Raw Data
Time Displacement Force
(s) (mm) (N)
0.0000 0.0000 0.3520
0.0200 0.0000 0.3570
0.0400 0.0008 0.3840
0.0600 0.0039 0.4009
0.0800 0.0093 0.3599
0.1000 0.0150 0.3470
0.1200 0.0209 0.3843
0.1400 0.0275 0.3732
0.1600 0.0349 0.3559
0.1800 0.0424 0.3651
0.2000 0.0496 0.3585
0.2200 0.0564 0.3559
0.2400 0.0631 0.3673
0.2600 0.0698 0.3650
0.2800 0.0765 0.3666
0.3000 0.0832 0.3731
0.3200 0.0899 0.3607
0.3400 0.0966 0.3707
0.3600 0.1033 0.3739
0.3800 0.1099 0.3640
0.4000 0.1166 0.3741
0.4200 0.1233 0.3738
0.4400 0.1300 0.3716
0.4600 0.1366 0.3709
0.4800 0.1433 0.3787
0.5000 0.1500 0.3767
0.5200 0.1567 0.3761
0.5400 0.1633 0.3786
0.5600 0.1699 0.3788
0.5800 0.1765 0.3884
0.6000 0.1832 0.3820
0.6200 0.1899 0.3753
0.6400 0.1967 0.3909
0.6600 0.2033 0.3798
0.6800 0.2100 0.3860
0.7000 0.2167 0.3898
0.7200 0.2233 0.3863
0.7400 0.2299 0.3834
0.7600 0.2365 0.3935
0.7800 0.2432 0.3900
0.8000 0.2499 0.3843
0.8200 0.2566 0.3985
0.8400 0.2633 0.3927
0.8600 0.2700 0.3867
0.8800 0.2767 0.3973
0.9000 0.2833 0.3977
0.9200 0.2899 0.3917
0.9400 0.2965 0.4006
0.9600 0.3032 0.3958
0.9800 0.3099 0.3943
1.0000 0.3166 0.4045
1.0200 0.3233 0.3994
1.0400 0.3300 0.3915
1.0600 0.3366 0.4055
1.0800 0.3433 0.3974
1.1000 0.3499 0.3893
1.1200 0.3565 0.4084
1.1400 0.3632 0.4009
1.1600 0.3700 0.3895
1.1800 0.3767 0.4082
1.2000 0.3833 0.3987
1.2200 0.3900 0.3928
1.2400 0.3967 0.4091
1.2600 0.4034 0.3932
1.2800 0.4100 0.3944
1.3000 0.4166 0.4093
1.3200 0.4233 0.3951
1.3400 0.4300 0.3883
1.3600 0.4366 0.4058
1.3800 0.4433 0.3947
1.4000 0.4500 0.3891
1.4200 0.4567 0.3996
1.4400 0.4633 0.3920
1.4600 0.4699 0.3887
1.4800 0.4765 0.3971
1.5000 0.4832 0.3912
1.5200 0.4899 0.3882
1.5400 0.4966 0.3966
1.5600 0.5033 0.3887
1.5800 0.5100 0.3865
1.6000 0.5166 0.3930
1.6200 0.5233 0.3895
1.6400 0.5299 0.3833
1.6600 0.5365 0.3888
1.6800 0.5432 0.3841
1.7000 0.5499 0.3843
1.7200 0.5566 0.3852
1.7400 0.5633 0.3772
1.7600 0.5700 0.3826
1.7800 0.5766 0.3865
1.8000 0.5833 0.3820
1.8200 0.5899 0.3783
1.8400 0.5966 0.3843
1.8600 0.6033 0.3801
1.8800 0.6099 0.3721
1.9000 0.6166 0.3826
1.9200 0.6233 0.3751
1.9400 0.6300 0.3793
1.9600 0.6367 0.3757
1.9800 0.6434 0.3726
2.0000 0.6499 0.3790
2.0200 0.6565 0.3775
2.0400 0.6632 0.3724
2.0600 0.6699 0.3772
2.0800 0.6767 0.3752
2.1000 0.6833 0.3676
2.1200 0.6900 0.3773
2.1400 0.6967 0.3731
2.1600 0.7033 0.3708
2.1800 0.7099 0.3737
2.2000 0.7165 0.3752
2.2200 0.7232 0.3730
2.2400 0.7299 0.3714
2.2600 0.7366 0.3731
2.2800 0.7433 0.3727
2.3000 0.7500 0.3735
2.3200 0.7566 0.3694
2.3400 0.7633 0.3687
2.3600 0.7699 0.3708
2.3800 0.7765 0.3651
2.4000 0.7832 0.3736
2.4200 0.7899 0.3692
2.4400 0.7966 0.3629
2.4600 0.8033 0.3731
2.4800 0.8100 0.3645
2.5000 0.8167 0.3704
2.5200 0.8233 0.3716
2.5400 0.8299 0.3627
2.5600 0.8365 0.3715
2.5800 0.8432 0.3719
2.6000 0.8499 0.3598
2.6200 0.8567 0.3682
2.6400 0.8634 0.3686
2.6600 0.8700 0.3578
2.6800 0.8767 0.3676
2.7000 0.8833 0.3717
2.7200 0.8899 0.3598
2.7400 0.8966 0.3748
2.7600 0.9032 0.3680
2.7800 0.9099 0.3585
2.8000 0.9167 0.3724
2.8200 0.9233 0.3621
2.8400 0.9300 0.3582
2.8600 0.9367 0.3691
2.8800 0.9434 0.3629
2.9000 0.9500 0.3598
2.9200 0.9566 0.3671
2.9400 0.9632 0.3631
2.9600 0.9699 0.3604
2.9800 0.9766 0.3607
3.0000 0.9833 0.3619
3.0200 0.9900 0.3621
3.0400 0.9967 0.3621
3.0600 1.0033 0.3597
3.0800 1.0099 0.3612
3.1000 1.0165 0.3593
3.1200 1.0232 0.3617
3.1400 1.0299 0.3575
3.1600 1.0366 0.3578
3.1800 1.0433 0.3584
3.2000 1.0500 0.3554
3.2200 1.0566 0.3570
3.2400 1.0633 0.3572
3.2600 1.0699 0.3557
3.2800 1.0766 0.3576
3.3000 1.0832 0.3574
3.3200 1.0899 0.3520
3.3400 1.0966 0.3546
3.3600 1.1033 0.3521
3.3800 1.1100 0.3515
3.4000 1.1167 0.3550
3.4200 1.1234 0.3551
3.4400 1.1300 0.3484
3.4600 1.1366 0.3578
3.4800 1.1432 0.3517
3.5000 1.1499 0.3489
3.5200 1.1566 0.3592
3.5400 1.1633 0.3540
3.5600 1.1700 0.3434
3.5800 1.1767 0.3564
3.6000 1.1833 0.3499
3.6200 1.1899 0.3447
3.6400 1.1965 0.3598
3.6600 1.2032 0.3449
3.6800 1.2099 0.3480
3.7000 1.2166 0.3558
3.7200 1.2233 0.3451
3.7400 1.2300 0.3457
3.7600 1.2366 0.3504
3.7800 1.2433 0.3460
3.8000 1.2499 0.3459
3.8200 1.2566 0.3524
3.8400 1.2632 0.3447
3.8600 1.2699 0.3461
3.8800 1.2766 0.3516
3.9000 1.2833 0.3436
3.9200 1.2899 0.3512
3.9400 1.2966 0.3477
3.9600 1.3033 0.3398
3.9800 1.3100 0.3481
4.0000 1.3166 0.3464
4.0200 1.3232 0.3472
4.0400 1.3299 0.3512
4.0600 1.3366 0.3450
4.0800 1.3433 0.3416
4.1000 1.3500 0.3494
4.1200 1.3567 0.3479
4.1400 1.3633 0.3450
4.1600 1.3700 0.3451
4.1800 1.3766 0.3484
4.2000 1.3832 0.3415
4.2200 1.3899 0.3461
4.2400 1.3966 0.3487
4.2600 1.4033 0.3421
4.2800 1.4100 0.3454
4.3000 1.4167 0.3497
4.3200 1.4234 0.3423
4.3400 1.4300 0.3442
4.3600 1.4366 0.3502
4.3800 1.4432 0.3456
4.4000 1.4499 0.3420
4.4200 1.4566 0.3476
4.4400 1.4633 0.3457
4.4600 1.4700 0.3438
4.4800 1.4767 0.3460
4.5000 1.4833 0.3433
4.5200 1.4900 0.3416
4.5400 1.4965 0.3428
4.5600 1.5032 0.3493
4.5800 1.5099 0.3418
4.6000 1.5166 0.3433
4.6200 1.5233 0.3438
4.6400 1.5300 0.3387
4.6600 1.5367 0.3434
4.6800 1.5433 0.3418
4.7000 1.5500 0.3399
4.7200 1.5566 0.3410
4.7400 1.5632 0.3439
4.7600 1.5699 0.3391
4.7800 1.5767 0.3363
4.8000 1.5834 0.3440
4.8200 1.5900 0.3393
4.8400 1.5967 0.3361
4.8600 1.6034 0.3418
4.8800 1.6100 0.3339
4.9000 1.6166 0.3310
4.9200 1.6232 0.3381
4.9400 1.6299 0.3351
4.9600 1.6366 0.3319
4.9800 1.6433 0.3392
5.0000 1.6500 0.3314
5.0200 1.6567 0.3327
5.0400 1.6634 0.3352
5.0600 1.6700 0.3274
5.0800 1.6766 0.3330
5.1000 1.6832 0.3380
5.1200 1.6899 0.3261
5.1400 1.6966 0.3309
5.1600 1.7033 0.3341
5.1800 1.7100 0.3220
5.2000 1.7167 0.3322
5.2200 1.7234 0.3303
5.2400 1.7300 0.3221
5.2600 1.7366 0.3299
5.2800 1.7432 0.3304
5.3000 1.7499 0.3257
5.3200 1.7566 0.3264
5.3400 1.7633 0.3200
5.3600 1.7700 0.3210
5.3800 1.7766 0.3286
5.4000 1.7833 0.3207
5.4200 1.7899 0.3210
5.4400 1.7966 0.3304
5.4600 1.8032 0.3210
5.4800 1.8099 0.3200
5.5000 1.8166 0.3275
5.5200 1.8233 0.3176
5.5400 1.8300 0.3241
5.5600 1.8367 0.3264
5.5800 1.8434 0.3151
5.6000 1.8500 0.3228
5.6200 1.8566 0.3264
5.6400 1.8632 0.3130
5.6600 1.8699 0.3276
5.6800 1.8766 0.3266
5.7000 1.8833 0.3150
5.7200 1.8900 0.3227
5.7400 1.8967 0.3233
5.7600 1.9033 0.3149
5.7800 1.9100 0.3236
5.8000 1.9166 0.3208
5.8200 1.9232 0.3153
5.8400 1.9299 0.3247
5.8600 1.9366 0.3142
5.8800 1.9433 0.3108
5.9000 1.9499 0.3273
5.9200 1.9566 0.3180
5.9400 1.9633 0.3097
5.9600 1.9700 0.3214
5.9800 1.9766 0.3129
6.0000 1.9832 0.3125
6.0200 1.9899 0.3228
6.0400 1.9966 0.3184
6.0600 2.0033 0.3134
6.0800 2.0100 0.3182
6.1000 2.0167 0.3146
6.1200 2.0234 0.3122
6.1400 2.0300 0.3204
6.1600 2.0366 0.3192
6.1800 2.0432 0.3104
6.2000 2.0499 0.3157
6.2200 2.0566 0.3111
6.2400 2.0633 0.3095
6.2600 2.0700 0.3201
6.2800 2.0767 0.3166
6.3000 2.0834 0.3063
6.3200 2.0900 0.3178
6.3400 2.0966 0.3142
6.3600 2.1032 0.3079
6.3800 2.1099 0.3189
6.4000 2.1166 0.3117
6.4200 2.1233 0.3071
6.4400 2.1300 0.3152
6.4600 2.1367 0.3101
6.4800 2.1434 0.3071
6.5000 2.1500 0.3170
6.5200 2.1566 0.3073
6.5400 2.1632 0.3087
6.5600 2.1699 0.3117
6.5800 2.1766 0.3072
6.6000 2.1833 0.3083
6.6200 2.1900 0.3111
6.6400 2.1967 0.3084
6.6600 2.2034 0.3062
6.6800 2.2100 0.3069
6.7000 2.2166 0.3081
6.7200 2.2232 0.3083
6.7400 2.2298 0.3075
6.7600 2.2366 0.3095
6.7800 2.2433 0.3039
6.8000 2.2500 0.3031
6.8200 2.2567 0.3109
6.8400 2.2633 0.3043
6.8600 2.2700 0.3003
6.8800 2.2766 0.3094
6.9000 2.2832 0.2999
6.9200 2.2899 0.3041
6.9400 2.2966 0.3064
6.9600 2.3033 0.2965
6.9800 2.3100 0.3035
7.0000 2.3167 0.3090
7.0200 2.3233 0.2939
7.0400 2.3300 0.3048
7.0600 2.3366 0.3052
7.0800 2.3433 0.2928
7.1000 2.3499 0.3067
7.1200 2.3566 0.3073
7.1400 2.3633 0.2904
7.1600 2.3700 0.3050
7.1800 2.3767 0.3029
7.2000 2.3834 0.2900
7.2200 2.3900 0.3057
7.2400 2.3966 0.3041
7.2600 2.4032 0.2993
7.2800 2.4099 0.3041
7.3000 2.4166 0.2945
7.3200 2.4233 0.2940
7.3400 2.4300 0.3037
7.3600 2.4367 0.2966
7.3800 2.4433 0.2944
7.4000 2.4500 0.2995
7.4200 2.4566 0.2956
7.4400 2.4632 0.2975
7.4600 2.4699 0.3036
7.4800 2.4766 0.2973
7.5000 2.4833 0.2962
7.5200 2.4900 0.2969
7.5400 2.4966 0.2931
7.5600 2.5033 0.2941
7.5800 2.5100 0.2928
7.6000 2.5166 0.2953
7.6200 2.5232 0.2948
7.6400 2.5299 0.2946
7.6600 2.5366 0.2917
7.6800 2.5433 0.2963
7.7000 2.5500 0.2967
7.7200 2.5567 0.2930
7.7400 2.5634 0.2902
7.7600 2.5700 0.2936
7.7800 2.5766 0.2928
7.8000 2.5832 0.2924
7.8200 2.5899 0.2939
7.8400 2.5966 0.2924
7.8600 2.6033 0.2926
7.8800 2.6100 0.2902
7.9000 2.6167 0.2924
7.9200 2.6233 0.2939
7.9400 2.6300 0.2920
7.9600 2.6366 0.2855
7.9800 2.6432 0.2905
8.0000 2.6499 0.2929
8.0200 2.6566 0.2877
8.0400 2.6633 0.2887
8.0600 2.6700 0.2884
8.0800 2.6766 0.2870
8.1000 2.6833 0.2967
8.1200 2.6900 0.2842
8.1400 2.6966 0.2805
8.1600 2.7032 0.2939
8.1800 2.7098 0.2854
8.2000 2.7165 0.2830
8.2200 2.7233 0.2939
8.2400 2.7300 0.2814
8.2600 2.7367 0.2838
8.2800 2.7434 0.2888
8.3000 2.7500 0.2808
8.3200 2.7566 0.2855
8.3400 2.7632 0.2893
8.3600 2.7699 0.2781
8.3800 2.7766 0.2848
8.4000 2.7833 0.2898
8.4200 2.7900 0.2757
8.4400 2.7966 0.2887
8.4600 2.8033 0.2825
8.4800 2.8100 0.2756
8.5000 2.8166 0.2849
8.5200 2.8232 0.2797
8.5400 2.8299 0.2823
8.5600 2.8366 0.2835
8.5800 2.8433 0.2765
8.6000 2.8500 0.2799
8.6200 2.8567 0.2849
8.6400 2.8634 0.2818
8.6600 2.8700 0.2788
8.6800 2.8767 0.2789
8.7000 2.8833 0.2809
8.7200 2.8899 0.2787
8.7400 2.8966 0.2782
8.7600 2.9033 0.2816
8.7800 2.9100 0.2800
8.8000 2.9166 0.2743
8.8200 2.9233 0.2806
8.8400 2.9300 0.2753
8.8600 2.9366 0.2736
8.8800 2.9432 0.2824
8.9000 2.9498 0.2771
8.9200 2.9565 0.2723
8.9400 2.9632 0.2825
8.9600 2.9699 0.2706
8.9800 2.9766 0.2756
9.0000 2.9833 0.2808
9.0200 2.9900 0.2736
9.0400 2.9966 0.2776
9.0600 3.0032 0.2803
9.0800 3.0099 0.2680
9.1000 3.0166 0.2801
9.1200 3.0233 0.2866
9.1400 3.0300 0.2705
9.1600 3.0367 0.2754
9.1800 3.0434 0.2799
9.2000 3.0500 0.2709
9.2200 3.0567 0.2744
9.2400 3.0633 0.2784
9.2600 3.0699 0.2726
9.2800 3.0766 0.2757
9.3000 3.0833 0.2725
9.3200 3.0900 0.2748
9.3400 3.0967 0.2754
9.3600 3.1034 0.2773
9.3800 3.1100 0.2715
9.4000 3.1167 0.2666
9.4200 3.1232 0.2737
9.4400 3.1299 0.2749
9.4600 3.1366 0.2746
9.4800 3.1433 0.2696
9.5000 3.1500 0.2763
9.5200 3.1566 0.2722
9.5400 3.1633 0.2696
9.5600 3.1700 0.2770
9.5800 3.1767 0.2756
9.6000 3.1833 0.2670
9.6200 3.1899 0.2701
9.6400 3.1966 0.2706
9.6600 3.2033 0.2723
9.6800 3.2099 0.2719
9.7000 3.2166 0.2701
9.7200 3.2233 0.2725
9.7400 3.2300 0.2705
9.7600 3.2366 0.2664
9.7800 3.2432 0.2746
9.8000 3.2499 0.2718
9.8200 3.2566 0.2673
9.8400 3.2633 0.2715
9.8600 3.2700 0.2666
9.8800 3.2767 0.2644
9.9000 3.2834 0.2691
9.9200 3.2901 0.2642
9.9400 3.2967 0.2662
9.9600 3.3033 0.2715
9.9800 3.3099 0.2690
10.0000 3.3166 0.2649
10.0200 3.3233 0.2662
10.0400 3.3300 0.2664
10.0600 3.3367 0.2666
10.0800 3.3433 0.2663
10.1000 3.3500 0.2592
10.1200 3.3566 0.2678
10.1400 3.3633 0.2609
10.1600 3.3699 0.2629
10.1800 3.3766 0.2672
10.2000 3.3832 0.2640
10.2200 3.3899 0.2608
10.2400 3.3966 0.2599
10.2600 3.4033 0.2672
10.2800 3.4100 0.2620
10.3000 3.4166 0.2584
10.3200 3.4232 0.2637
10.3400 3.4298 0.2619
10.3600 3.4365 0.2584
10.3800 3.4432 0.2608
10.4000 3.4500 0.2625
10.4200 3.4566 0.2585
10.4400 3.4633 0.2646
10.4600 3.4700 0.2640
10.4800 3.4766 0.2492
10.5000 3.4833 0.2622
10.5200 3.4899 0.2602
10.5400 3.4966 0.2581
10.5600 3.5033 0.2571
10.5800 3.5100 0.2570
10.6000 3.5166 0.2526
10.6200 3.5233 0.2579
10.6400 3.5300 0.2625
10.6600 3.5367 0.2549
10.6800 3.5433 0.2575
10.7000 3.5499 0.2568
10.7200 3.5565 0.2547
10.7400 3.5632 0.2563
10.7600 3.5700 0.2552
10.7800 3.5767 0.2565
10.8000 3.5834 0.2547
10.8200 3.5900 0.2551
10.8400 3.5967 0.2564
10.8600 3.6033 0.2547
10.8800 3.6099 0.2617
10.9000 3.6166 0.2495
10.9200 3.6233 0.2556
10.9400 3.6300 0.2568
10.9600 3.6367 0.2514
10.9800 3.6433 0.2603
11.0000 3.6500 0.2533
11.0200 3.6566 0.2495
11.0400 3.6633 0.2562
11.0600 3.6699 0.2557
11.0800 3.6765 0.2502
11.1000 3.6832 0.2593
11.1200 3.6899 0.2485
11.1400 3.6966 0.2465
11.1600 3.7033 0.2630
11.1800 3.7100 0.2512
11.2000 3.7166 0.2466
11.2200 3.7233 0.2595
11.2400 3.7299 0.2476
11.2600 3.7365 0.2527
11.2800 3.7433 0.2561
11.3000 3.7500 0.2504
11.3200 3.7567 0.2488
11.3400 3.7634 0.2555
11.3600 3.7701 0.2490
11.3800 3.7767 0.2436
11.4000 3.7833 0.2586
11.4200 3.7899 0.2493
11.4400 3.7966 0.2488
11.4600 3.8033 0.2542
11.4800 3.8100 0.2471
11.5000 3.8167 0.2538
11.5200 3.8234 0.2518
11.5400 3.8300 0.2448
11.5600 3.8367 0.2482
11.5800 3.8433 0.2515
11.6000 3.8499 0.2463
11.6200 3.8566 0.2490
11.6400 3.8632 0.2524
11.6600 3.8699 0.2454
11.6800 3.8766 0.2510
11.7000 3.8833 0.2481
11.7200 3.8900 0.2515
11.7400 3.8966 0.2480
11.7600 3.9032 0.2462
11.7800 3.9098 0.2473
11.8000 3.9165 0.2443
11.8200 3.9232 0.2490
11.8400 3.9299 0.2455
11.8600 3.9366 0.2454
11.8800 3.9433 0.2523
11.9000 3.9500 0.2468
11.9200 3.9566 0.2461
11.9400 3.9632 0.2509
11.9600 3.9698 0.2468
11.9800 3.9765 0.2459
12.0000 3.9833 0.2425
12.0200 3.9900 0.2463
12.0400 3.9967 0.2461
12.0600 4.0033 0.2465
12.0800 4.0100 0.2419
12.1000 4.0167 0.2447
12.1200 4.0233 0.2478
12.1400 4.0300 0.2481
12.1600 4.0366 0.2482
12.1800 4.0433 0.2461
12.2000 4.0500 0.2476
12.2200 4.0567 0.2429
12.2400 4.0634 0.2423
12.2600 4.0700 0.2464
12.2800 4.0767 0.2453
12.3000 4.0833 0.2433
12.3200 4.0899 0.2453
12.3400 4.0965 0.2493
12.3600 4.1032 0.2472
12.3800 4.1099 0.2440
12.4000 4.1166 0.2469
12.4200 4.1233 0.2429
12.4400 4.1300 0.2468
12.4600 4.1367 0.2412
12.4800 4.1433 0.2428
12.5000 4.1499 0.2412
12.5200 4.1565 0.2458
12.5400 4.1632 0.2401
12.5600 4.1699 0.2407
12.5800 4.1766 0.2459
12.6000 4.1833 0.2435
12.6200 4.1900 0.2416
12.6400 4.1967 0.2351
12.6600 4.2033 0.2437
12.6800 4.2099 0.2398
12.7000 4.2166 0.2380
12.7200 4.2232 0.2393
12.7400 4.2299 0.2401
12.7600 4.2366 0.2426
12.7800 4.2433 0.2426
12.8000 4.2500 0.2351
12.8200 4.2567 0.2444
12.8400 4.2633 0.2338
12.8600 4.2699 0.2336
12.8800 4.2765 0.2433
12.9000 4.2832 0.2413
12.9200 4.2900 0.2357
12.9400 4.2967 0.2365
12.9600 4.3034 0.2353
12.9800 4.3100 0.2335
13.0000 4.3167 0.2411
13.0200 4.3233 0.2349
13.0400 4.3299 0.2390
13.0600 4.3366 0.2432
13.0800 4.3433 0.2291
13.1000 4.3500 0.2300
13.1200 4.3567 0.2423
13.1400 4.3633 0.2333
13.1600 4.3700 0.2337
13.1800 4.3767 0.2358
13.2000 4.3833 0.2279
13.2200 4.3899 0.2336
13.2400 4.3965 0.2389
13.2600 4.4032 0.2269
13.2800 4.4099 0.2335
13.3000 4.4166 0.2371
13.3200 4.4233 0.2260
13.3400 4.4300 0.2305
13.3600 4.4367 0.2353
13.3800 4.4433 0.2290
13.4000 4.4499 0.2353
13.4200 4.4565 0.2346
13.4400 4.4632 0.2272
13.4600 4.4700 0.2329
13.4800 4.4767 0.2324
13.5000 4.4834 0.2253
13.5200 4.4901 0.2329
13.5400 4.4967 0.2345
13.5600 4.5033 0.2227
13.5800 4.5099 0.2311
13.6000 4.5166 0.2363
13.6200 4.5233 0.2277
13.6400 4.5300 0.2274
13.6600 4.5367 0.2322
13.6800 4.5433 0.2289
13.7000 4.5500 0.2322
13.7200 4.5567 0.2293
13.7400 4.5633 0.2215
13.7600 4.5699 0.2322
13.7800 4.5765 0.2301
13.8000 4.5832 0.2229
13.8200 4.5899 0.2318
13.8400 4.5966 0.2289
13.8600 4.6033 0.2254
13.8800 4.6100 0.2318
13.9000 4.6167 0.2260
13.9200 4.6233 0.2235
13.9400 4.6299 0.2293
13.9600 4.6365 0.2263
13.9800 4.6432 0.2174
14.0000 4.6499 0.2323
14.0200 4.6566 0.2250
14.0400 4.6633 0.2196
14.0600 4.6700 0.2279
14.0800 4.6767 0.2265
14.1000 4.6833 0.2178
14.1200 4.6899 0.2224
14.1400 4.6965 0.2297
14.1600 4.7032 0.2225
14.1800 4.7100 0.2174
14.2000 4.7167 0.2212
14.2200 4.7233 0.2223
14.2400 4.7300 0.2214
14.2600 4.7367 0.2235
14.2800 4.7433 0.2137
14.3000 4.7500 0.2150
14.3200 4.7566 0.2244
14.3400 4.7632 0.2211
14.3600 4.7699 0.2137
14.3800 4.7767 0.2267
14.4000 4.7834 0.2121
14.4200 4.7900 0.2127
14.4400 4.7967 0.2217
14.4600 4.8033 0.2165
14.4800 4.8099 0.2162
14.5000 4.8165 0.2269
14.5200 4.8232 0.2110
14.5400 4.8299 0.2133
14.5600 4.8366 0.2253
14.5800 4.8433 0.2097
14.6000 4.8499 0.2161
14.6200 4.8566 0.2222
14.6400 4.8633 0.2058
14.6600 4.8699 0.2145
14.6800 4.8765 0.2214
14.7000 4.8832 0.2080
14.7200 4.8899 0.2143
14.7400 4.8966 0.2164
14.7600 4.9033 0.2064
14.7800 4.9099 0.2158
14.8000 4.9166 0.2164
14.8200 4.9233 0.2060
14.8400 4.9299 0.2163
14.8600 4.9366 0.2091
14.8800 4.9432 0.2079
14.9000 4.9499 0.2120
14.9200 4.9566 0.2029
14.9400 4.9633 0.2140
14.9600 4.9700 0.2119
14.9800 4.9767 0.2033
15.0000 4.9833 0.2124
15.0200 4.9899 0.2103
15.0400 4.9965 0.2055
15.0600 5.0032 0.2150
15.0800 5.0099 0.2058
15.1000 5.0167 0.2059
15.1200 5.0233 0.2107
15.1400 5.0300 0.2010
15.1600 5.0367 0.2041
15.1800 5.0433 0.2102
15.2000 5.0499 0.1979
15.2200 5.0566 0.2037
15.2400 5.0632 0.2088
15.2600 5.0699 0.2022
15.2800 5.0766 0.2069
15.3000 5.0833 0.2055
15.3200 5.0900 0.2024
15.3400 5.0967 0.2011
15.3600 5.1033 0.2007
15.3800 5.1099 0.1983
15.4000 5.1165 0.2004
15.4200 5.1232 0.2008
15.4400 5.1299 0.2037
15.4600 5.1366 0.2046
15.4800 5.1433 0.1976
15.5000 5.1500 0.2025
15.5200 5.1566 0.2008
15.5400 5.1633 0.1945
15.5600 5.1699 0.2077
15.5800 5.1765 0.1947
15.6000 5.1832 0.1940
15.6200 5.1899 0.2066
15.6400 5.1966 0.1927
15.6600 5.2033 0.1946
15.6800 5.2100 0.2024
15.7000 5.2167 0.1881
15.7200 5.2234 0.1938
15.7400 5.2300 0.1974
15.7600 5.2366 0.1870
15.7800 5.2433 0.1995
15.8000 5.2500 0.1991
15.8200 5.2567 0.1895
15.8400 5.2634 0.1959
15.8600 5.2700 0.1981
15.8800 5.2767 0.1873
15.9000 5.2833 0.1973
15.9200 5.2899 0.1975
15.9400 5.2965 0.1885
15.9600 5.3032 0.1960
15.9800 5.3099 0.1905
16.0000 5.3166 0.1907
16.0200 5.3233 0.1985
16.0400 5.3300 0.1891
16.0600 5.3367 0.1891
16.0800 5.3433 0.1955
16.1000 5.3499 0.1905
16.1200 5.3565 0.1902
16.1400 5.3632 0.1967
16.1600 5.3699 0.1903
16.1800 5.3767 0.1897
16.2000 5.3833 0.1888
16.2200 5.3900 0.1892
16.2400 5.3967 0.1915
16.2600 5.4033 0.1938
16.2800 5.4100 0.1908
16.3000 5.4166 0.1880
16.3200 5.4233 0.1938
16.3400 5.4299 0.1849
16.3600 5.4366 0.1887
16.3800 5.4433 0.1964
16.4000 5.4500 0.1825
16.4200 5.4567 0.1852
16.4400 5.4634 0.1909
16.4600 5.4700 0.1797
16.4800 5.4766 0.1878
16.5000 5.4832 0.1947
16.5200 5.4899 0.1881
16.5400 5.4966 0.1845
16.5600 5.5033 0.1875
16.5800 5.5100 0.1848
16.6000 5.5167 0.1854
16.6200 5.5233 0.1837
16.6400 5.5299 0.1819
16.6600 5.5365 0.1877
16.6800 5.5432 0.1815
16.7000 5.5499 0.1880
16.7200 5.5566 0.1869
16.7400 5.5633 0.1824
16.7600 5.5700 0.1902
16.7800 5.5766 0.1819
16.8000 5.5833 0.1803
16.8200 5.5899 0.1872
16.8400 5.5966 0.1812
16.8600 5.6032 0.1802
16.8800 5.6099 0.1832
16.9000 5.6166 0.1763
16.9200 5.6233 0.1827
16.9400 5.6300 0.1902
16.9600 5.6367 0.1729
16.9800 5.6433 0.1848
17.0000 5.6500 0.1922
17.0200 5.6566 0.1702
17.0400 5.6632 0.1901
17.0600 5.6699 0.1848
17.0800 5.6767 0.1692
17.1000 5.6834 0.1897
17.1200 5.6900 0.1838
17.1400 5.6967 0.1713
17.1600 5.7033 0.1898
17.1800 5.7100 0.1826
17.2000 5.7166 0.1698
17.2200 5.7232 0.1893
17.2400 5.7299 0.1803
17.2600 5.7366 0.1747
17.2800 5.7433 0.1894
17.3000 5.7500 0.1771
17.3200 5.7567 0.1757
17.3400 5.7634 0.1853
17.3600 5.7700 0.1765
17.3800 5.7766 0.1790
17.4000 5.7832 0.1788
17.4200 5.7899 0.1740
17.4400 5.7966 0.1769
17.4600 5.8033 0.1797
17.4800 5.8100 0.1812
17.5000 5.8167 0.1804
17.5200 5.8233 0.1739
17.5400 5.8299 0.1792
17.5600 5.8365 0.1762
17.5800 5.8431 0.1770
17.6000 5.8499 0.1806
17.6200 5.8566 0.1751
17.6400 5.8633 0.1749
17.6600 5.8700 0.1774
17.6800 5.8767 0.1703
17.7000 5.8833 0.1766
17.7200 5.8900 0.1820
17.7400 5.8966 0.1734
17.7600 5.9032 0.1743
17.7800 5.9099 0.1764
17.8000 5.9166 0.1706
17.8200 5.9233 0.1720
17.8400 5.9300 0.1811
17.8600 5.9367 0.1685
17.8800 5.9434 0.1759
17.9000 5.9500 0.1743
17.9200 5.9566 0.1656
17.9400 5.9633 0.1773
17.9600 5.9699 0.1791
17.9800 5.9766 0.1694
18.0000 5.9834 0.1732
18.0200 5.9900 0.1671
18.0400 5.9967 0.1723
18.0600 6.0033 0.1700
18.0800 6.0099 0.1723
18.1000 6.0165 0.1770
18.1200 6.0232 0.1693
18.1400 6.0299 0.1686
18.1600 6.0366 0.1682
18.1800 6.0433 0.1680
18.2000 6.0500 0.1688
18.2200 6.0566 0.1805
18.2400 6.0633 0.1628
18.2600 6.0700 0.1673
18.2800 6.0766 0.1753
18.3000 6.0832 0.1637
18.3200 6.0899 0.1678
18.3400 6.0966 0.1750
18.3600 6.1033 0.1636
18.3800 6.1099 0.1681
18.4000 6.1166 0.1716
18.4200 6.1233 0.1603
18.4400 6.1300 0.1733
18.4600 6.1366 0.1698
18.4800 6.1432 0.1650
18.5000 6.1499 0.1704
18.5200 6.1566 0.1629
18.5400 6.1633 0.1646
18.5600 6.1700 0.1722
18.5800 6.1767 0.1604
18.6000 6.1833 0.1711
18.6200 6.1900 0.1675
18.6400 6.1966 0.1574
18.6600 6.2032 0.1665
18.6800 6.2099 0.1691
18.7000 6.2166 0.1610
18.7200 6.2233 0.1692
18.7400 6.2300 0.1613
18.7600 6.2367 0.1631
18.7800 6.2434 0.1683
18.8000 6.2500 0.1581
18.8200 6.2566 0.1698
18.8400 6.2632 0.1667
18.8600 6.2699 0.1547
18.8800 6.2766 0.1626
18.9000 6.2833 0.1674
18.9200 6.2900 0.1597
18.9400 6.2966 0.1675
18.9600 6.3033 0.1664
18.9800 6.3100 0.1498
19.0000 6.3166 0.1640
19.0200 6.3232 0.1660
19.0400 6.3298 0.1570
19.0600 6.3366 0.1669
19.0800 6.3433 0.1546
19.1000 6.3500 0.1577
19.1200 6.3566 0.1679
19.1400 6.3633 0.1588
19.1600 6.3699 0.1558
19.1800 6.3765 0.1652
19.2000 6.3832 0.1640
19.2200 6.3899 0.1566
19.2400 6.3967 0.1614
19.2600 6.4034 0.1609
19.2800 6.4100 0.1578
19.3000 6.4167 0.1578
19.3200 6.4234 0.1598
19.3400 6.4300 0.1594
19.3600 6.4366 0.1528
19.3800 6.4432 0.1589
19.4000 6.4499 0.1633
19.4200 6.4566 0.1547
19.4400 6.4633 0.1615
19.4600 6.4700 0.1559
19.4800 6.4767 0.1559
19.5000 6.4834 0.1577
19.5200 6.4900 0.1513
19.5400 6.4966 0.1546
19.5600 6.5032 0.1634
19.5800 6.5099 0.1571
19.6000 6.5166 0.1546
19.6200 6.5233 0.1599
19.6400 6.5300 0.1547
19.6600 6.5367 0.1596
19.6800 6.5434 0.1570
19.7000 6.5500 0.1502
19.7200 6.5566 0.1569
19.7400 6.5632 0.1596
19.7600 6.5698 0.1518
19.7800 6.5766 0.1579
19.8000 6.5833 0.1558
19.8200 6.5900 0.1503
19.8400 6.5966 0.1561
19.8600 6.6033 0.1562
19.8800 6.6099 0.1499
19.9000 6.6166 0.1594
19.9200 6.6232 0.1556
19.9400 6.6299 0.1509
19.9600 6.6366 0.1552
19.9800 6.6433 0.1528
20.0000 6.6500 0.1482
20.0200 6.6567 0.1559
20.0400 6.6634 0.1538
20.0600 6.6700 0.1509
20.0800 6.6767 0.1549
20.1000 6.6833 0.1482
20.1200 6.6899 0.1496
20.1400 6.6966 0.1589
20.1600 6.7033 0.1512
20.1800 6.7100 0.1465
20.2000 6.7167 0.1543
20.2200 6.7234 0.1455
20.2400 6.7300 0.1476
20.2600 6.7366 0.1557
20.2800 6.7432 0.1443
20.3000 6.7499 0.1465
20.3200 6.7566 0.1594
20.3400 6.7633 0.1420
20.3600 6.7699 0.1471
20.3800 6.7766 0.1590
20.4000 6.7833 0.1439
20.4200 6.7900 0.1476
20.4400 6.7966 0.1550
20.4600 6.8032 0.1369
20.4800 6.8099 0.1489
20.5000 6.8166 0.1593
20.5200 6.8233 0.1360
20.5400 6.8300 0.1485
20.5600 6.8367 0.1475
20.5800 6.8434 0.1421
20.6000 6.8500 0.1499
20.6200 6.8566 0.1512
20.6400 6.8632 0.1468
20.6600 6.8699 0.1456
20.6800 6.8766 0.1458
20.7000 6.8833 0.1485
20.7200 6.8900 0.1489
20.7400 6.8967 0.1429
20.7600 6.9034 0.1424
20.7800 6.9100 0.1429
20.8000 6.9166 0.1402
20.8200 6.9232 0.1541
20.8400 6.9299 0.1404
20.8600 6.9366 0.1375
20.8800 6.9433 0.1540
20.9000 6.9500 0.1413
20.9200 6.9567 0.1388
20.9400 6.9634 0.1481
20.9600 6.9700 0.1425
20.9800 6.9766 0.1418
21.0000 6.9833 0.1462
21.0200 6.9899 0.1404
21.0400 6.9966 0.1453
21.0600 7.0033 0.1455
21.0800 7.0099 0.1387
21.1000 7.0166 0.1444
21.1200 7.0233 0.1433
21.1400 7.0300 0.1339
21.1600 7.0366 0.1400
21.1800 7.0432 0.1428
21.2000 7.0498 0.1390
21.2200 7.0565 0.1440
21.2400 7.0633 0.1380
21.2600 7.0699 0.1369
21.2800 7.0766 0.1456
21.3000 7.0833 0.1413
21.3200 7.0899 0.1338
21.3400 7.0966 0.1442
21.3600 7.1032 0.1351
21.3800 7.1099 0.1356
21.4000 7.1166 0.1412
21.4200 7.1233 0.1341
21.4400 7.1300 0.1384
21.4600 7.1367 0.1369
21.4800 7.1434 0.1354
21.5000 7.1500 0.1377
21.5200 7.1567 0.1395
21.5400 7.1633 0.1351
21.5600 7.1699 0.1371
21.5800 7.1766 0.1373
21.6000 7.1833 0.1385
21.6200 7.1900 0.1341
21.6400 7.1967 0.1321
21.6600 7.2034 0.1380
21.6800 7.2100 0.1369
21.7000 7.2166 0.1315
21.7200 7.2232 0.1380
21.7400 7.2299 0.1293
21.7600 7.2366 0.1316
21.7800 7.2433 0.1351
21.8000 7.2500 0.1337
21.8200 7.2567 0.1306
21.8400 7.2633 0.1343
21.8600 7.2700 0.1317
21.8800 7.2766 0.1302
21.9000 7.2832 0.1350
21.9200 7.2899 0.1329
21.9400 7.2966 0.1295
21.9600 7.3033 0.1289
21.9800 7.3099 0.1331
22.0000 7.3166 0.1355
22.0200 7.3233 0.1332
22.0400 7.3300 0.1292
22.0600 7.3366 0.1274
22.0800 7.3432 0.1321
22.1000 7.3499 0.1307
22.1200 7.3566 0.1245
22.1400 7.3633 0.1335
22.1600 7.3700 0.1284
22.1800 7.3767 0.1271
22.2000 7.3834 0.1297
22.2200 7.3900 0.1319
22.2400 7.3967 0.1253
22.2600 7.4032 0.1283
22.2800 7.4099 0.1301
22.3000 7.4166 0.1300
22.3200 7.4233 0.1267
22.3400 7.4300 0.1251
22.3600 7.4367 0.1315
22.3800 7.4433 0.1204
22.4000 7.4500 0.1313
22.4200 7.4566 0.1358
22.4400 7.4632 0.1197
22.4600 7.4699 0.1281
22.4800 7.4765 0.1315
22.5000 7.4832 0.1200
22.5200 7.4899 0.1264
22.5400 7.4966 0.1322
22.5600 7.5033 0.1251
22.5800 7.5100 0.1195
22.6000 7.5166 0.1345
22.6200 7.5232 0.1274
22.6400 7.5298 0.1272
22.6600 7.5365 0.1266
22.6800 7.5433 0.1227
22.7000 7.5500 0.1279
22.7200 7.5567 0.1242
22.7400 7.5634 0.1232
22.7600 7.5700 0.1256
22.7800 7.5766 0.1255
22.8000 7.5832 0.1246
22.8200 7.5899 0.1302
22.8400 7.5966 0.1217
22.8600 7.6033 0.1240
22.8800 7.6100 0.1251
22.9000 7.6167 0.1241
22.9200 7.6233 0.1220
22.9400 7.6300 0.1277
22.9600 7.6367 0.1201
22.9800 7.6433 0.1231
23.0000 7.6499 0.1257
23.0200 7.6566 0.1234
23.0400 7.6633 0.1251
23.0600 7.6700 0.1194
23.0800 7.6767 0.1191
23.1000 7.6834 0.1223
23.1200 7.6901 0.1250
23.1400 7.6967 0.1168
23.1600 7.7033 0.1204
23.1800 7.7099 0.1240
23.2000 7.7165 0.1178
23.2200 7.7233 0.1221
23.2400 7.7300 0.1285
23.2600 7.7367 0.1123
23.2800 7.7433 0.1205
23.3000 7.7500 0.1257
23.3200 7.7566 0.1179
23.3400 7.7632 0.1196
23.3600 7.7698 0.1236
23.3800 7.7765 0.1145
23.4000 7.7832 0.1206
23.4200 7.7899 0.1281
23.4400 7.7966 0.1119
23.4600 7.8033 0.1149
23.4800 7.8099 0.1248
23.5000 7.8166 0.1140
23.5200 7.8232 0.1178
23.5400 7.8299 0.1253
23.5600 7.8366 0.1131
23.5800 7.8433 0.1178
23.6000 7.8500 0.1188
23.6200 7.8567 0.1147
23.6400 7.8634 0.1203
23.6600 7.8700 0.1190
23.6800 7.8767 0.1076
23.7000 7.8833 0.1145
23.7200 7.8899 0.1230
23.7400 7.8966 0.1128
23.7600 7.9033 0.1104
23.7800 7.9100 0.1175
23.8000 7.9167 0.1134
23.8200 7.9234 0.1130
23.8400 7.9300 0.1193
23.8600 7.9367 0.1121
23.8800 7.9432 0.1141
23.9000 7.9499 0.1188
23.9200 7.9566 0.1083
23.9400 7.9633 0.1109
23.9600 7.9700 0.1165
23.9800 7.9766 0.1119
24.0000 7.9833 0.1098
24.0200 7.9900 0.1141
24.0400 7.9967 0.1065
24.0600 8.0033 0.1072
24.0800 8.0099 0.1221
24.1000 8.0166 0.1094
24.1200 8.0232 0.1063
24.1400 8.0299 0.1143
24.1600 8.0366 0.1097
24.1800 8.0433 0.1090
24.2000 8.0500 0.1165
24.2200 8.0566 0.1099
24.2400 8.0632 0.0983
24.2600 8.0699 0.1232
24.2800 8.0766 0.1124
24.3000 8.0833 0.0988
24.3200 8.0900 0.1170
24.3400 8.0967 0.1084
24.3600 8.1034 0.1043
24.3800 8.1100 0.1152
24.4000 8.1167 0.1008
24.4200 8.1232 0.1068
24.4400 8.1299 0.1208
24.4600 8.1366 0.1015
24.4800 8.1433 0.1049
24.5000 8.1500 0.1162
24.5200 8.1567 0.0957
24.5400 8.1634 0.1027
24.5600 8.1700 0.1183
24.5800 8.1767 0.1008
24.6000 8.1833 0.1004
24.6200 8.1899 0.1124
24.6400 8.1965 0.1064
24.6600 8.2032 0.1046
24.6800 8.2099 0.1104
24.7000 8.2166 0.1024
24.7200 8.2233 0.1069
24.7400 8.2300 0.1075
24.7600 8.2367 0.1001
24.7800 8.2433 0.1029
24.8000 8.2499 0.1116
24.8200 8.2565 0.1034
24.8400 8.2632 0.0988
24.8600 8.2699 0.1090
24.8800 8.2766 0.1037
24.9000 8.2833 0.0991
24.9200 8.2900 0.1048
24.9400 8.2966 0.0988
24.9600 8.3033 0.1022
24.9800 8.3099 0.1043
25.0000 8.3166 0.1030
25.0200 8.3233 0.0949
25.0400 8.3300 0.1035
25.0600 8.3366 0.1030
25.0800 8.3433 0.0943
25.1000 8.3500 0.1050
25.1200 8.3567 0.1004
25.1400 8.3633 0.0995
25.1600 8.3699 0.1048
25.1800 8.3765 0.1024
25.2000 8.3832 0.0949
25.2200 8.3900 0.1060
25.2400 8.3966 0.0985
25.2600 8.4033 0.0913
25.2800 8.4100 0.1026
25.3000 8.4167 0.1008
25.3200 8.4233 0.0915
25.3400 8.4299 0.0983
25.3600 8.4365 0.0992
25.3800 8.4433 0.0928
25.4000 8.4500 0.0995
25.4200 8.4567 0.1008
25.4400 8.4633 0.0943
25.4600 8.4700 0.0998
25.4800 8.4766 0.0962
25.5000 8.4832 0.0898
25.5200 8.4898 0.1028
25.5400 8.4965 0.1001
25.5600 8.5032 0.0879
25.5800 8.5099 0.0975
25.6000 8.5166 0.0973
25.6200 8.5233 0.0903
25.6400 8.5300 0.0945
25.6600 8.5366 0.0970
25.6800 8.5433 0.0939
25.7000 8.5499 0.0995
25.7200 8.5565 0.0947
25.7400 8.5632 0.0879
25.7600 8.5700 0.0969
25.7800 8.5767 0.0935
25.8000 8.5834 0.0897
25.8200 8.5901 0.0914
25.8400 8.5967 0.0956
25.8600 8.6033 0.0933
25.8800 8.6099 0.0838
25.9000 8.6166 0.0951
25.9200 8.6233 0.0961
25.9400 8.6300 0.0864
25.9600 8.6367 0.0917
25.9800 8.6434 0.0891
26.0000 8.6500 0.0877
26.0200 8.6567 0.0950
26.0400 8.6633 0.0869
26.0600 8.6699 0.0870
26.0800 8.6765 0.0955
26.1000 8.6832 0.0897
26.1200 8.6899 0.0818
26.1400 8.6966 0.0948
26.1600 8.7033 0.0853
26.1800 8.7100 0.0848
26.2000 8.7167 0.0938
26.2200 8.7233 0.0832
26.2400 8.7299 0.0903
26.2600 8.7365 0.0989
26.2800 8.7432 0.0827
26.3000 8.7499 0.0857
26.3200 8.7566 0.0971
26.3400 8.7633 0.0789
26.3600 8.7700 0.0840
26.3800 8.7767 0.0994
26.4000 8.7833 0.0828
26.4200 8.7899 0.0852
26.4400 8.7965 0.0946
26.4600 8.8032 0.0805
26.4800 8.8100 0.0903
26.5000 8.8167 0.0899
26.5200 8.8234 0.0825
26.5400 8.8300 0.0888
26.5600 8.8367 0.0890
26.5800 8.8433 0.0868
26.6000 8.8499 0.0891
26.6200 8.8566 0.0910
26.6400 8.8633 0.0853
26.6600 8.8700 0.0854
26.6800 8.8767 0.0883
26.7000 8.8834 0.0844
26.7200 8.8901 0.0872
26.7400 8.8967 0.0874
26.7600 8.9033 0.0858
26.7800 8.9099 0.0825
26.8000 8.9165 0.0912
26.8200 8.9232 0.0906
26.8400 8.9299 0.0786
26.8600 8.9366 0.0881
26.8800 8.9433 0.0932
26.9000 8.9500 0.0822
26.9200 8.9567 0.0834
26.9400 8.9633 0.0912
26.9600 8.9699 0.0871
26.9800 8.9765 0.0849
27.0000 8.9832 0.0899
27.0200 8.9899 0.0830
27.0400 8.9966 0.0880
27.0600 9.0033 0.0881
27.0800 9.0100 0.0740
27.1000 9.0167 0.0898
27.1200 9.0233 0.0905
27.1400 9.0299 0.0726
27.1600 9.0365 0.0900
27.1800 9.0432 0.0967
27.2000 9.0499 0.0714
27.2200 9.0566 0.0800
27.2400 9.0633 0.0985
27.2600 9.0700 0.0720
27.2800 9.0767 0.0858
27.3000 9.0833 0.0886
27.3200 9.0899 0.0715
27.3400 9.0965 0.0974
27.3600 9.1032 0.0872
27.3800 9.1100 0.0648
27.4000 9.1167 0.0900
27.4200 9.1234 0.0863
27.4400 9.1300 0.0700
27.4600 9.1367 0.0881
27.4800 9.1433 0.0729
27.5000 9.1499 0.0803
27.5200 9.1565 0.0935
27.5400 9.1632 0.0664
27.5600 9.1700 0.0769
27.5800 9.1766 0.0971
27.6000 9.1833 0.0652
27.6200 9.1900 0.0744
27.6400 9.1967 0.0860
27.6600 9.2033 0.0765
27.6800 9.2099 0.0769
27.7000 9.2165 0.0756
27.7200 9.2232 0.0773
27.7400 9.2299 0.0801
27.7600 9.2366 0.0747
27.7800 9.2433 0.0742
27.8000 9.2500 0.0814
27.8200 9.2567 0.0681
27.8400 9.2633 0.0754
27.8600 9.2699 0.0747
27.8800 9.2765 0.0682
27.9000 9.2832 0.0825
27.9200 9.2900 0.0729
27.9400 9.2967 0.0656
27.9600 9.3034 0.0809
27.9800 9.3100 0.0666
28.0000 9.3167 0.0739
28.0200 9.3233 0.0773
28.0400 9.3299 0.0661
28.0600 9.3366 0.0726
28.0800 9.3433 0.0661
28.1000 9.3500 0.0640
28.1200 9.3567 0.0824
28.1400 9.3633 0.0687
28.1600 9.3700 0.0595
28.1800 9.3767 0.0778
28.2000 9.3833 0.0634
28.2200 9.3899 0.0666
28.2400 9.3965 0.0827
28.2600 9.4032 0.0588
28.2800 9.4099 0.0628
28.3000 9.4166 0.0793
28.3200 9.4233 0.0575
28.3400 9.4300 0.0663
28.3600 9.4367 0.0758
28.3800 9.4433 0.0499
28.4000 9.4499 0.0660
28.4200 9.4565 0.0800
28.4400 9.4632 0.0583
28.4600 9.4699 0.0702
28.4800 9.4766 0.0670
28.5000 9.4833 0.0558
28.5200 9.4900 0.0738
28.5400 9.4967 0.0668
28.5600 9.5033 0.0559
28.5800 9.5099 0.0707
28.6000 9.5166 0.0673
28.6200 9.5232 0.0590
28.6400 9.5299 0.0742
28.6600 9.5366 0.0649
28.6800 9.5433 0.0649
28.7000 9.5500 0.0718
28.7200 9.5567 0.0598
28.7400 9.5634 0.0630
28.7600 9.5700 0.0687
28.7800 9.5766 0.0612
28.8000 9.5832 0.0673
28.8200 9.5899 0.0657
28.8400 9.5967 0.0632
28.8600 9.6033 0.0686
28.8800 9.6100 0.0630
28.9000 9.6167 0.0627
28.9200 9.6234 0.0687
28.9400 9.6300 0.0548
28.9600 9.6365 0.0665
28.9800 9.6432 0.0766
29.0000 9.6499 0.0550
29.0200 9.6566 0.0640
29.0400 9.6633 0.0724
29.0600 9.6699 0.0566
29.0800 9.6766 0.0634
29.1000 9.6833 0.0714
29.1200 9.6899 0.0541
29.1400 9.6965 0.0696
29.1600 9.7032 0.0648
29.1800 9.7099 0.0535
29.2000 9.7166 0.0720
29.2200 9.7233 0.0603
29.2400 9.7299 0.0533
29.2600 9.7366 0.0725
29.2800 9.7433 0.0548
29.3000 9.7500 0.0555
29.3200 9.7566 0.0758
29.3400 9.7632 0.0557
29.3600 9.7699 0.0548
29.3800 9.7766 0.0702
29.4000 9.7833 0.0549
29.4200 9.7900 0.0593
29.4400 9.7967 0.0712
29.4600 9.8034 0.0437
29.4800 9.8099 0.0639
29.5000 9.8165 0.0749
29.5200 9.8232 0.0480
29.5400 9.8299 0.0574
29.5600 9.8367 0.0741
29.5800 9.8433 0.0495
29.6000 9.8500 0.0557
29.6200 9.8567 0.0704
29.6400 9.8633 0.0503
29.6600 9.8699 0.0584
29.6800 9.8766 0.0654
29.7000 9.8832 0.0475
29.7200 9.8899 0.0666
29.7400 9.8966 0.0603
29.7600 9.9033 0.0418
29.7800 9.9100 0.0691
29.8000 9.9167 0.0618
29.8200 9.9233 0.0417
29.8400 9.9299 0.0626
29.8600 9.9365 0.0639
29.8800 9.9432 0.0469
29.9000 9.9499 0.0626
29.9200 9.9566 0.0549
29.9400 9.9633 0.0467
29.9600 9.9700 0.0698
29.9800 9.9766 0.0540
30.0000 9.9833 0.0406
30.0200 9.9899 0.0691
30.0400 9.9965 0.0530
30.0600 10.0032 0.0452
30.0800 10.0099 0.0628
30.1000 10.0167 0.0536
30.1200 10.0233 0.0488
30.1400 10.0300 0.0583
30.1600 10.0367 0.0516
30.1800 10.0434 0.0521
30.2000 10.0500 0.0633
30.2200 10.0566 0.0497
30.2400 10.0633 0.0458
30.2600 10.0700 0.0619
30.2800 10.0767 0.0582
30.3000 10.0833 0.0465
30.3200 10.0900 0.0594
30.3400 10.0967 0.0539
30.3600 10.1034 0.0451
30.3800 10.1100 0.0555
30.4000 10.1165 0.0602
30.4200 10.1232 0.0444
30.4400 10.1299 0.0583
30.4600 10.1366 0.0535
30.4800 10.1433 0.0447
30.5000 10.1500 0.0600
30.5200 10.1567 0.0558
30.5400 10.1633 0.0489
30.5600 10.1699 0.0510
30.5800 10.1765 0.0490
30.6000 10.1832 0.0540
30.6200 10.1899 0.0576
30.6400 10.1966 0.0404
30.6600 10.2033 0.0500
30.6800 10.2100 0.0570
30.7000 10.2167 0.0426
30.7200 10.2233 0.0532
30.7400 10.2300 0.0557
30.7600 10.2366 0.0444
30.7800 10.2432 0.0500
30.8000 10.2499 0.0526
30.8200 10.2566 0.0504
30.8400 10.2633 0.0518
30.8600 10.2700 0.0500
30.8800 10.2767 0.0491
30.9000 10.2834 0.0451
30.9200 10.2900 0.0530
30.9400 10.2966 0.0501
30.9600 10.3032 0.0460
30.9800 10.3099 0.0539
31.0000 10.3166 0.0502
31.0200 10.3233 0.0425
31.0400 10.3300 0.0547
31.0600 10.3367 0.0494
31.0800 10.3433 0.0438
31.1000 10.3499 0.0465
31.1200 10.3565 0.0558
31.1400 10.3632 0.0418
31.1600 10.3699 0.0447
31.1800 10.3766 0.0503
31.2000 10.3833 0.0509
31.2200 10.3899 0.0406
31.2400 10.3966 0.0454
31.2600 10.4033 0.0536
31.2800 10.4100 0.0467
31.3000 10.4166 0.0412
31.3200 10.4232 0.0501
31.3400 10.4299 0.0544
31.3600 10.4366 0.0353
31.3800 10.4433 0.0438
31.4000 10.4500 0.0527
31.4200 10.4567 0.0421
31.4400 10.4634 0.0392
31.4600 10.4700 0.0431
31.4800 10.4766 0.0509
31.5000 10.4832 0.0413
31.5200 10.4899 0.0395
31.5400 10.4966 0.0572
31.5600 10.5033 0.0421
31.5800 10.5100 0.0277
31.6000 10.5167 0.0513
31.6200 10.5234 0.0545
31.6400 10.5300 0.0280
31.6600 10.5366 0.0483
31.6800 10.5432 0.0508
31.7000 10.5499 0.0272
31.7200 10.5566 0.0492
31.7400 10.5633 0.0492
31.7600 10.5700 0.0320
31.7800 10.5767 0.0404
31.8000 10.5834 0.0418
31.8200 10.5900 0.0380
31.8400 10.5966 0.0467
31.8600 10.6032 0.0354
31.8800 10.6099 0.0369
31.9000 10.6166 0.0458
31.9200 10.6233 0.0351
31.9400 10.6300 0.0419
31.9600 10.6367 0.0461
31.9800 10.6434 0.0234
32.0000 10.6500 0.0450
32.0200 10.6565 0.0520
32.0400 10.6631 0.0258
32.0600 10.6698 0.0366
32.0800 10.6766 0.0453
32.1000 10.6833 0.0294
32.1200 10.6900 0.0393
32.1400 10.6967 0.0407
32.1600 10.7033 0.0252
32.1800 10.7100 0.0411
32.2000 10.7166 0.0379
32.2200 10.7232 0.0262
32.2400 10.7299 0.0482
32.2600 10.7366 0.0383
32.2800 10.7433 0.0237
32.3000 10.7500 0.0448
32.3200 10.7567 0.0323
32.3400 10.7634 0.0278
32.3600 10.7700 0.0422
32.3800 10.7766 0.0349
32.4000 10.7833 0.0262
32.4200 10.7899 0.0408
32.4400 10.7966 0.0360
32.4600 10.8033 0.0264
32.4800 10.8100 0.0415
32.5000 10.8167 0.0347
32.5200 10.8233 0.0259
32.5400 10.8300 0.0353
32.5600 10.8366 0.0336
32.5800 10.8432 0.0361
32.6000 10.8499 0.0328
32.6200 10.8566 0.0338
32.6400 10.8633 0.0312
32.6600 10.8700 0.0294
32.6800 10.8767 0.0361
32.7000 10.8833 0.0293
32.7200 10.8900 0.0306
32.7400 10.8966 0.0347
32.7600 10.9032 0.0318
32.7800 10.9099 0.0288
32.8000 10.9166 0.0316
32.8200 10.9233 0.0282
32.8400 10.9300 0.0248
32.8600 10.9366 0.0412
32.8800 10.9433 0.0297
32.9000 10.9500 0.0246
32.9200 10.9566 0.0333
32.9400 10.9632 0.0281
32.9600 10.9699 0.0249
32.9800 10.9766 0.0351
33.0000 10.9833 0.0247
33.0200 10.9900 0.0236
33.0400 10.9967 0.0356
33.0600 11.0033 0.0248
33.0800 11.0100 0.0214
33.1000 11.0166 0.0371
33.1200 11.0232 0.0269
33.1400 11.0299 0.0185
33.1600 11.0366 0.0246
33.1800 11.0433 0.0271
33.2000 11.0500 0.0234
33.2200 11.0567 0.0242
33.2400 11.0634 0.0201
33.2600 11.0700 0.0261
33.2800 11.0766 0.0255
33.3000 11.0832 0.0175
33.3200 11.0899 0.0270
33.3400 11.0966 0.0301
33.3600 11.1033 0.0204
33.3800 11.1100 0.0183
33.4000 11.1166 0.0261
33.4200 11.1233 0.0244
33.4400 11.1300 0.0171
33.4600 11.1366 0.0178
33.4800 11.1432 0.0266
33.5000 11.1499 0.0222
33.5200 11.1566 0.0143
33.5400 11.1633 0.0195
33.5600 11.1699 0.0234
33.5800 11.1766 0.0152
33.6000 11.1833 0.0210
33.6200 11.1900 0.0156
33.6400 11.1966 0.0146
33.6600 11.2032 0.0309
33.6800 11.2099 0.0120
33.7000 11.2166 0.0149
33.7200 11.2234 0.0261
33.7400 11.2300 0.0134
33.7600 11.2367 0.0183
33.7800 11.2434 0.0248
33.8000 11.2500 0.0083
33.8200 11.2566 0.0188
33.8400 11.2632 0.0263
33.8600 11.2699 0.0148
33.8800 11.2766 0.0177
33.9000 11.2833 0.0171
33.9200 11.2900 0.0098
33.9400 11.2967 0.0199
33.9600 11.3033 0.0227
33.9800 11.3100 0.0133
34.0000 11.3166 0.0103
34.0200 11.3232 0.0195
34.0400 11.3299 0.0183
34.0600 11.3366 0.0126
34.0800 11.3433 0.0195
34.1000 11.3500 0.0139
34.1200 11.3567 0.0075
34.1400 11.3634 0.0197
34.1600 11.3700 0.0238
34.1800 11.3766 0.0081
34.2000 11.3832 0.0208
34.2200 11.3898 0.0139
34.2400 11.3965 0.0108
34.2600 11.4033 0.0276
34.2800 11.4100 0.0087
34.3000 11.4166 0.0007
34.3200 11.4233 0.0278
34.3400 11.4300 0.0108
34.3600 11.4366 0.0110
34.3800 11.4432 0.0271
34.4000 11.4499 -0.0002
34.4200 11.4566 0.0109
34.4400 11.4633 0.0294
34.4600 11.4700 0.0027
34.4800 11.4767 0.0142
34.5000 11.4834 0.0193
34.5200 11.4900 -0.0037
34.5400 11.4966 0.0147
34.5600 11.5032 0.0214
34.5800 11.5099 0.0045
34.6000 11.5166 0.0054
34.6200 11.5233 0.0134
34.6400 11.5300 0.0116
34.6600 11.5367 0.0139
34.6800 11.5434 0.0116
34.7000 11.5500 0.0030
34.7200 11.5566 0.0113
34.7400 11.5632 0.0185
34.7600 11.5699 0.0075
34.7800 11.5766 0.0109
34.8000 11.5833 0.0094
34.8200 11.5900 -0.0017
34.8400 11.5966 0.0125
34.8600 11.6033 0.0178
34.8800 11.6100 0.0024
34.9000 11.6166 0.0029
34.9200 11.6232 0.0135
34.9400 11.6299 0.0056
34.9600 11.6366 0.0111
34.9800 11.6433 0.0080
35.0000 11.6499 -0.0016
35.0200 11.6566 0.0096
35.0400 11.6633 0.0119
35.0600 11.6700 0.0024
35.0800 11.6767 0.0013
35.1000 11.6833 0.0086
35.1200 11.6899 0.0091
35.1400 11.6966 0.0033
35.1600 11.7033 0.0058
35.1800 11.7100 0.0001
35.2000 11.7167 0.0035
35.2200 11.7234 0.0058
35.2400 11.7300 0.0038
35.2600 11.7366 0.0050
35.2800 11.7432 0.0031
35.3000 11.7499 -0.0017
35.3200 11.7566 0.0033
35.3400 11.7633 0.0137
35.3600 11.7700 -0.0049
35.3800 11.7767 -0.0046
35.4000 11.7834 0.0111
35.4200 11.7900 0.0015
35.4400 11.7967 -0.0061
35.4600 11.8033 0.0063
35.4800 11.8099 -0.0033
35.5000 11.8166 -0.0018
35.5200 11.8233 0.0058
35.5400 11.8300 -0.0003
35.5600 11.8366 0.0012
35.5800 11.8433 0.0003
35.6000 11.8500 -0.0115
35.6200 11.8566 0.0007
35.6400 11.8632 0.0047
35.6600 11.8698 -0.0029
35.6800 11.8765 -0.0043
35.7000 11.8833 -0.0009
35.7200 11.8900 0.0026
35.7400 11.8966 -0.0050
35.7600 11.9033 0.0011
35.7800 11.9100 -0.0041
35.8000 11.9166 -0.0072
35.8200 11.9232 0.0010
35.8400 11.9299 -0.0014
35.8600 11.9366 -0.0063
35.8800 11.9433 0.0008
35.9000 11.9500 -0.0050
35.9200 11.9567 -0.0060
35.9400 11.9634 0.0001
35.9600 11.9700 -0.0058
35.9800 11.9767 -0.0088
36.0000 11.9833 -0.0062
36.0200 11.9899 -0.0039
36.0400 11.9966 -0.0082
36.0600 12.0033 -0.0034
36.0800 12.0100 -0.0070
36.1000 12.0167 -0.0092
36.1200 12.0234 0.0006
36.1400 12.0300 -0.0055
36.1600 12.0367 -0.0129
36.1800 12.0432 -0.0003
36.2000 12.0499 -0.0053
36.2200 12.0566 -0.0125
36.2400 12.0633 -0.0014
36.2600 12.0700 0.0004
36.2800 12.0767 -0.0175
36.3000 12.0833 0.0003
36.3200 12.0900 -0.0102
36.3400 12.0966 -0.0148
36.3600 12.1032 0.0039
36.3800 12.1099 -0.0069
36.4000 12.1166 -0.0158
36.4200 12.1232 -0.0038
36.4400 12.1299 -0.0066
36.4600 12.1366 -0.0173
36.4800 12.1433 -0.0011
36.5000 12.1500 -0.0066
36.5200 12.1566 -0.0165
36.5400 12.1633 -0.0005
36.5600 12.1699 -0.0093
36.5800 12.1766 -0.0127
36.6000 12.1833 0.0002
36.6200 12.1900 -0.0130
36.6400 12.1967 -0.0168
36.6600 12.2034 -0.0031
36.6800 12.2101 -0.0107
36.7000 12.2167 -0.0205
36.7200 12.2233 -0.0003
36.7400 12.2299 -0.0129
36.7600 12.2366 -0.0180
36.7800 12.2433 -0.0007
36.8000 12.2500 -0.0125
36.8200 12.2567 -0.0154
36.8400 12.2633 -0.0057
36.8600 12.2700 -0.0156
36.8800 12.2766 -0.0189
36.9000 12.2832 -0.0012
36.9200 12.2899 -0.0141
36.9400 12.2965 -0.0196
36.9600 12.3033 -0.0051
36.9800 12.3100 -0.0167
37.0000 12.3166 -0.0159
37.0200 12.3233 -0.0068
37.0400 12.3300 -0.0186
37.0600 12.3366 -0.0124
37.0800 12.3432 -0.0132
37.1000 12.3498 -0.0143
37.1200 12.3565 -0.0114
37.1400 12.3632 -0.0156
37.1600 12.3700 -0.0158
37.1800 12.3767 -0.0135
37.2000 12.3834 -0.0205
37.2200 12.3900 -0.0189
37.2400 12.3967 -0.0107
37.2600 12.4032 -0.0256
37.2800 12.4099 -0.0118
37.3000 12.4166 -0.0111
37.3200 12.4233 -0.0252
37.3400 12.4300 -0.0119
37.3600 12.4367 -0.0139
37.3800 12.4433 -0.0241
37.4000 12.4500 -0.0124
37.4200 12.4567 -0.0200
37.4400 12.4633 -0.0231
37.4600 12.4699 -0.0108
37.4800 12.4766 -0.0170
37.5000 12.4833 -0.0285
37.5200 12.4900 -0.0110
37.5400 12.4967 -0.0234
37.5600 12.5033 -0.0240
37.5800 12.5100 -0.0128
37.6000 12.5167 -0.0255
37.6200 12.5233 -0.0240
37.6400 12.5299 -0.0157
37.6600 12.5365 -0.0235
37.6800 12.5433 -0.0236
37.7000 12.5500 -0.0147
37.7200 12.5567 -0.0269
37.7400 12.5633 -0.0205
37.7600 12.5700 -0.0175
37.7800 12.5766 -0.0263
37.8000 12.5832 -0.0221
37.8200 12.5898 -0.0156
37.8400 12.5965 -0.0272
37.8600 12.6032 -0.0227
37.8800 12.6099 -0.0182
37.9000 12.6166 -0.0261
37.9200 12.6233 -0.0258
37.9400 12.6300 -0.0166
37.9600 12.6366 -0.0297
37.9800 12.6433 -0.0271
38.0000 12.6499 -0.0180
38.0200 12.6566 -0.0260
38.0400 12.6633 -0.0223
38.0600 12.6700 -0.0249
38.0800 12.6767 -0.0240
38.1000 12.6834 -0.0249
38.1200 12.6901 -0.0256
38.1400 12.6967 -0.0263
38.1600 12.7033 -0.0250
38.1800 12.7099 -0.0251
38.2000 12.7166 -0.0210
38.2200 12.7233 -0.0224
38.2400 12.7300 -0.0307
38.2600 12.7367 -0.0197
38.2800 12.7434 -0.0256
38.3000 12.7500 -0.0322
38.3200 12.7567 -0.0177
38.3400 12.7633 -0.0306
38.3600 12.7699 -0.0304
38.3800 12.7765 -0.0183
38.4000 12.7833 -0.0309
38.4200 12.7900 -0.0280
38.4400 12.7966 -0.0185
38.4600 12.8033 -0.0340
38.4800 12.8100 -0.0313
38.5000 12.8167 -0.0174
38.5200 12.8233 -0.0402
38.5400 12.8299 -0.0248
38.5600 12.8365 -0.0214
38.5800 12.8432 -0.0413
38.6000 12.8499 -0.0236
38.6200 12.8566 -0.0228
38.6400 12.8633 -0.0348
38.6600 12.8700 -0.0285
38.6800 12.8766 -0.0278
38.7000 12.8832 -0.0322
38.7200 12.8899 -0.0308
38.7400 12.8965 -0.0202
38.7600 12.9033 -0.0328
38.7800 12.9100 -0.0350
38.8000 12.9167 -0.0208
38.8200 12.9234 -0.0338
38.8400 12.9300 -0.0341
38.8600 12.9367 -0.0269
38.8800 12.9433 -0.0348
38.9000 12.9499 -0.0369
38.9200 12.9566 -0.0227
38.9400 12.9633 -0.0350
38.9600 12.9700 -0.0384
38.9800 12.9767 -0.0246
39.0000 12.9834 -0.0356
39.0200 12.9900 -0.0362
39.0400 12.9967 -0.0299
39.0600 13.0033 -0.0363
39.0800 13.0099 -0.0348
39.1000 13.0166 -0.0321
39.1200 13.0232 -0.0333
39.1400 13.0299 -0.0399
39.1600 13.0366 -0.0335
39.1800 13.0433 -0.0357
39.2000 13.0500 -0.0354
39.2200 13.0566 -0.0304
39.2400 13.0633 -0.0438
39.2600 13.0699 -0.0397
39.2800 13.0765 -0.0337
39.3000 13.0832 -0.0329
39.3200 13.0900 -0.0402
39.3400 13.0967 -0.0374
39.3600 13.1033 -0.0413
39.3800 13.1100 -0.0355
39.4000 13.1167 -0.0409
39.4200 13.1233 -0.0406
39.4400 13.1299 -0.0347
39.4600 13.1366 -0.0460
39.4800 13.1433 -0.0439
39.5000 13.1500 -0.0290
39.5200 13.1566 -0.0451
39.5400 13.1633 -0.0454
39.5600 13.1700 -0.0337
39.5800 13.1767 -0.0512
39.6000 13.1833 -0.0423
39.6200 13.1899 -0.0307
39.6400 13.1966 -0.0497
39.6600 13.2032 -0.0451
39.6800 13.2100 -0.0387
39.7000 13.2167 -0.0472
39.7200 13.2233 -0.0429
39.7400 13.2300 -0.0357
39.7600 13.2367 -0.0464
39.7800 13.2433 -0.0487
39.8000 13.2499 -0.0361
39.8200 13.2565 -0.0434
39.8400 13.2633 -0.0452
39.8600 13.2700 -0.0429
39.8800 13.2767 -0.0473
39.9000 13.2834 -0.0438
39.9200 13.2900 -0.0487
39.9400 13.2967 -0.0425
39.9600 13.3033 -0.0394
39.9800 13.3099 -0.0490
40.0000 13.3165 -0.0454
40.0200 13.3232 -0.0461
40.0400 13.3299 -0.0494
40.0600 13.3366 -0.0428
40.0800 13.3432 -0.0418
40.1000 13.3499 -0.0481
40.1200 13.3566 -0.0436
40.1400 13.3633 -0.0456
40.1600 13.3699 -0.0530
40.1800 13.3765 -0.0411
40.2000 13.3832 -0.0477
40.2200 13.3900 -0.0504
40.2400 13.3967 -0.0405
40.2600 13.4034 -0.0520
40.2800 13.4101 -0.0494
40.3000 13.4167 -0.0418
40.3200 13.4233 -0.0503
40.3400 13.4299 -0.0500
40.3600 13.4366 -0.0391
40.3800 13.4433 -0.0472
40.4000 13.4500 -0.0568
40.4200 13.4567 -0.0422
40.4400 13.4634 -0.0467
40.4600 13.4700 -0.0502
40.4800 13.4767 -0.0460
40.5000 13.4833 -0.0571
40.5200 13.4899 -0.0482
40.5400 13.4965 -0.0424
40.5600 13.5032 -0.0496
40.5800 13.5099 -0.0512
40.6000 13.5166 -0.0444
40.6200 13.5233 -0.0542
40.6400 13.5300 -0.0485
40.6600 13.5367 -0.0422
40.6800 13.5433 -0.0529
40.7000 13.5499 -0.0510
40.7200 13.5565 -0.0479
40.7400 13.5632 -0.0487
40.7600 13.5699 -0.0520
40.7800 13.5766 -0.0469
40.8000 13.5833 -0.0526
40.8200 13.5900 -0.0550
40.8400 13.5967 -0.0450
40.8600 13.6033 -0.0460
40.8800 13.6099 -0.0540
40.9000 13.6165 -0.0505
40.9200 13.6232 -0.0515
40.9400 13.6300 -0.0528
40.9600 13.6367 -0.0453
40.9800 13.6434 -0.0489
41.0000 13.6500 -0.0566
41.0200 13.6567 -0.0464
41.0400 13.6633 -0.0547
41.0600 13.6700 -0.0552
41.0800 13.6766 -0.0429
41.1000 13.6833 -0.0564
41.1200 13.6899 -0.0553
41.1400 13.6966 -0.0461
41.1600 13.7033 -0.0552
41.1800 13.7100 -0.0574
41.2000 13.7167 -0.0450
41.2200 13.7233 -0.0549
41.2400 13.7299 -0.0576
41.2600 13.7365 -0.0513
41.2800 13.7432 -0.0539
41.3000 13.7499 -0.0597
41.3200 13.7566 -0.0499
41.3400 13.7633 -0.0557
41.3600 13.7700 -0.0582
41.3800 13.7767 -0.0527
41.4000 13.7833 -0.0553
41.4200 13.7899 -0.0554
41.4400 13.7965 -0.0527
41.4600 13.8032 -0.0602
41.4800 13.8099 -0.0590
41.5000 13.8166 -0.0484
41.5200 13.8233 -0.0672
41.5400 13.8300 -0.0590
41.5600 13.8367 -0.0484
41.5800 13.8433 -0.0646
41.6000 13.8499 -0.0630
41.6200 13.8566 -0.0532
41.6400 13.8632 -0.0591
41.6600 13.8699 -0.0619
41.6800 13.8766 -0.0551
41.7000 13.8833 -0.0568
41.7200 13.8900 -0.0654
41.7400 13.8967 -0.0596
41.7600 13.9034 -0.0624
41.7800 13.9099 -0.0596
41.8000 13.9166 -0.0586
41.8200 13.9232 -0.0589
41.8400 13.9299 -0.0637
41.8600 13.9367 -0.0651
41.8800 13.9434 -0.0610
41.9000 13.9500 -0.0607
41.9200 13.9567 -0.0670
41.9400 13.9633 -0.0634
41.9600 13.9699 -0.0587
41.9800 13.9766 -0.0702
42.0000 13.9832 -0.0634
42.0200 13.9900 -0.0600
42.0400 13.9967 -0.0597
42.0600 14.0033 -0.0647
42.0800 14.0100 -0.0698
42.1000 14.0167 -0.0631
42.1200 14.0233 -0.0577
42.1400 14.0299 -0.0739
42.1600 14.0365 -0.0687
42.1800 14.0432 -0.0580
42.2000 14.0499 -0.0699
42.2200 14.0566 -0.0686
42.2400 14.0633 -0.0565
42.2600 14.0700 -0.0750
42.2800 14.0767 -0.0679
42.3000 14.0833 -0.0578
42.3200 14.0899 -0.0753
42.3400 14.0965 -0.0682
42.3600 14.1032 -0.0608
42.3800 14.1099 -0.0725
42.4000 14.1167 -0.0718
42.4200 14.1234 -0.0590
42.4400 14.1301 -0.0729
42.4600 14.1367 -0.0701
42.4800 14.1434 -0.0659
42.5000 14.1499 -0.0711
42.5200 14.1566 -0.0640
42.5400 14.1633 -0.0702
42.5600 14.1700 -0.0734
42.5800 14.1767 -0.0683
42.6000 14.1833 -0.0707
42.6200 14.1900 -0.0714
42.6400 14.1967 -0.0721
42.6600 14.2033 -0.0658
42.6800 14.2099 -0.0688
42.7000 14.2165 -0.0781
42.7200 14.2232 -0.0636
42.7400 14.2299 -0.0691
42.7600 14.2366 -0.0752
42.7800 14.2433 -0.0735
42.8000 14.2500 -0.0596
42.8200 14.2567 -0.0784
42.8400 14.2633 -0.0711
42.8600 14.2699 -0.0614
42.8800 14.2765 -0.0824
42.9000 14.2832 -0.0671
42.9200 14.2899 -0.0631
42.9400 14.2966 -0.0840
42.9600 14.3033 -0.0749
42.9800 14.3100 -0.0628
43.0000 14.3167 -0.0817
43.0200 14.3233 -0.0725
43.0400 14.3299 -0.0628
43.0600 14.3366 -0.0819
43.0800 14.3432 -0.0720
43.1000 14.3499 -0.0638
43.1200 14.3567 -0.0847
43.1400 14.3633 -0.0721
43.1600 14.3700 -0.0678
43.1800 14.3767 -0.0816
43.2000 14.3833 -0.0779
43.2200 14.3900 -0.0651
43.2400 14.3966 -0.0844
43.2600 14.4032 -0.0756
43.2800 14.4099 -0.0604
43.3000 14.4166 -0.0855
43.3200 14.4233 -0.0830
43.3400 14.4300 -0.0696
43.3600 14.4367 -0.0836
43.3800 14.4434 -0.0779
43.4000 14.4500 -0.0703
43.4200 14.4565 -0.0869
43.4400 14.4632 -0.0776
43.4600 14.4699 -0.0702
43.4800 14.4766 -0.0814
43.5000 14.4833 -0.0813
43.5200 14.4900 -0.0689
43.5400 14.4967 -0.0863
43.5600 14.5033 -0.0829
43.5800 14.5099 -0.0674
43.6000 14.5165 -0.0849
43.6200 14.5232 -0.0788
43.6400 14.5299 -0.0740
43.6600 14.5366 -0.0915
43.6800 14.5433 -0.0708
43.7000 14.5499 -0.0691
43.7200 14.5566 -0.0956
43.7400 14.5633 -0.0808
43.7600 14.5700 -0.0665
43.7800 14.5766 -0.0926
43.8000 14.5832 -0.0828
43.8200 14.5899 -0.0676
43.8400 14.5966 -0.0894
43.8600 14.6033 -0.0797
43.8800 14.6100 -0.0848
43.9000 14.6167 -0.0887
43.9200 14.6234 -0.0746
43.9400 14.6299 -0.0799
43.9600 14.6366 -0.0889
43.9800 14.6432 -0.0790
44.0000 14.6499 -0.0854
44.0200 14.6567 -0.0908
44.0400 14.6633 -0.0719
44.0600 14.6700 -0.0774
44.0800 14.6767 -0.0966
44.1000 14.6833 -0.0831
44.1200 14.6899 -0.0731
44.1400 14.6966 -0.0888
44.1600 14.7032 -0.0819
44.1800 14.7099 -0.0788
44.2000 14.7166 -0.0940
44.2200 14.7233 -0.0849
44.2400 14.7300 -0.0752
44.2600 14.7367 -0.0882
44.2800 14.7434 -0.0847
44.3000 14.7500 -0.0844
44.3200 14.7565 -0.0914
44.3400 14.7631 -0.0823
44.3600 14.7698 -0.0752
44.3800 14.7766 -0.0965
44.4000 14.7833 -0.0838
44.4200 14.7900 -0.0783
44.4400 14.7966 -0.0972
44.4600 14.8033 -0.0919
44.4800 14.8099 -0.0752
44.5000 14.8165 -0.0880
44.5200 14.8232 -0.0938
44.5400 14.8299 -0.0788
44.5600 14.8366 -0.0894
44.5800 14.8433 -0.0946
44.6000 14.8500 -0.0804
44.6200 14.8567 -0.0876
44.6400 14.8634 -0.0976
44.6600 14.8700 -0.0827
44.6800 14.8766 -0.0916
44.7000 14.8833 -0.0915
44.7200 14.8900 -0.0846
44.7400 14.8967 -0.0915
44.7600 14.9033 -0.0949
44.7800 14.9100 -0.0869
44.8000 14.9167 -0.0952
44.8200 14.9234 -0.0903
44.8400 14.9300 -0.0907
44.8600 14.9366 -0.0989
44.8800 14.9432 -0.0922
44.9000 14.9498 -0.0899
44.9200 14.9566 -0.0905
44.9400 14.9633 -0.0982
44.9600 14.9700 -0.0913
44.9800 14.9767 -0.0910
45.0000 14.9833 -0.1019
45.0200 14.9899 -0.0924
45.0400 14.9965 -0.0887
45.0600 15.0032 -0.0999
45.0800 15.0099 -0.0937
45.1000 15.0166 -0.0984
45.1200 15.0233 -0.0958
45.1400 15.0300 -0.0896
45.1600 15.0367 -0.0960
45.1800 15.0433 -0.1020
45.2000 15.0500 -0.0902
45.2200 15.0566 -0.0978
45.2400 15.0633 -0.0986
45.2600 15.0699 -0.0856
45.2800 15.0766 -0.1064
45.3000 15.0833 -0.0948
45.3200 15.0900 -0.0897
45.3400 15.0967 -0.1028
45.3600 15.1034 -0.0948
45.3800 15.1100 -0.0936
45.4000 15.1166 -0.1018
45.4200 15.1232 -0.0889
45.4400 15.1299 -0.0957
45.4600 15.1366 -0.1002
45.4800 15.1433 -0.0935
45.5000 15.1500 -0.0999
45.5200 15.1567 -0.1021
45.5400 15.1633 -0.0882
45.5600 15.1700 -0.1051
45.5800 15.1766 -0.1027
45.6000 15.1832 -0.0879
45.6200 15.1899 -0.0980
45.6400 15.1967 -0.1030
45.6600 15.2033 -0.0928
45.6800 15.2100 -0.1003
45.7000 15.2166 -0.0992
45.7200 15.2233 -0.0944
45.7400 15.2300 -0.1061
45.7600 15.2366 -0.0985
45.7800 15.2432 -0.0946
45.8000 15.2499 -0.1025
45.8200 15.2566 -0.0961
45.8400 15.2633 -0.0948
45.8600 15.2699 -0.1075
45.8800 15.2766 -0.0979
45.9000 15.2833 -0.0994
45.9200 15.2900 -0.1042
45.9400 15.2966 -0.0957
45.9600 15.3032 -0.1013
45.9800 15.3099 -0.1077
46.0000 15.3166 -0.0951
46.0200 15.3233 -0.1035
46.0400 15.3300 -0.1101
46.0600 15.3367 -0.0993
46.0800 15.3433 -0.1047
46.1000 15.3500 -0.1040
46.1200 15.3566 -0.1000
46.1400 15.3632 -0.1065
46.1600 15.3699 -0.1029
46.1800 15.3767 -0.1013
46.2000 15.3834 -0.1119
46.2200 15.3900 -0.1001
46.2400 15.3967 -0.1014
46.2600 15.4034 -0.1084
46.2800 15.4100 -0.1036
46.3000 15.4166 -0.1025
46.3200 15.4232 -0.1048
46.3400 15.4299 -0.1050
46.3600 15.4366 -0.1054
46.3800 15.4433 -0.1027
46.4000 15.4500 -0.1084
46.4200 15.4567 -0.1046
46.4400 15.4633 -0.1054
46.4600 15.4700 -0.1111
46.4800 15.4765 -0.1029
46.5000 15.4831 -0.1064
46.5200 15.4898 -0.1084
46.5400 15.4966 -0.1050
46.5600 15.5033 -0.1061
46.5800 15.5100 -0.1124
46.6000 15.5166 -0.1017
46.6200 15.5233 -0.1087
46.6400 15.5300 -0.1145
46.6600 15.5366 -0.1016
46.6800 15.5432 -0.1079
46.7000 15.5499 -0.1107
46.7200 15.5566 -0.1015
46.7400 15.5633 -0.1100
46.7600 15.5700 -0.1119
46.7800 15.5767 -0.0997
46.8000 15.5834 -0.1136
46.8200 15.5900 -0.1171
46.8400 15.5966 -0.1025
46.8600 15.6033 -0.1139
46.8800 15.6099 -0.1137
46.9000 15.6166 -0.1020
46.9200 15.6233 -0.1204
46.9400 15.6300 -0.1145
46.9600 15.6367 -0.1047
46.9800 15.6434 -0.1182
47.0000 15.6500 -0.1162
47.0200 15.6566 -0.1022
47.0400 15.6632 -0.1186
47.0600 15.6699 -0.1200
47.0800 15.6766 -0.1067
47.1000 15.6833 -0.1164
47.1200 15.6900 -0.1179
47.1400 15.6967 -0.1078
47.1600 15.7033 -0.1190
47.1800 15.7100 -0.1170
47.2000 15.7166 -0.1165
47.2200 15.7232 -0.1162
47.2400 15.7299 -0.1140
47.2600 15.7366 -0.1193
47.2800 15.7433 -0.1206
47.3000 15.7500 -0.1167
47.3200 15.7566 -0.1139
47.3400 15.7633 -0.1194
47.3600 15.7700 -0.1189
47.3800 15.7766 -0.1219
47.4000 15.7832 -0.1210
47.4200 15.7899 -0.1173
47.4400 15.7966 -0.1213
47.4600 15.8033 -0.1183
47.4800 15.8100 -0.1181
47.5000 15.8167 -0.1215
47.5200 15.8233 -0.1177
47.5400 15.8300 -0.1218
47.5600 15.8366 -0.1215
47.5800 15.8432 -0.1161
47.6000 15.8499 -0.1226
47.6200 15.8566 -0.1289
47.6400 15.8633 -0.1168
47.6600 15.8700 -0.1246
47.6800 15.8767 -0.1282
47.7000 15.8834 -0.1139
47.7200 15.8900 -0.1268
47.7400 15.8966 -0.1238
47.7600 15.9032 -0.1114
47.7800 15.9099 -0.1294
47.8000 15.9166 -0.1249
47.8200 15.9233 -0.1140
47.8400 15.9300 -0.1339
47.8600 15.9367 -0.1188
47.8800 15.9433 -0.1222
47.9000 15.9500 -0.1337
47.9200 15.9566 -0.1201
47.9400 15.9632 -0.1192
47.9600 15.9699 -0.1359
47.9800 15.9766 -0.1154
48.0000 15.9833 -0.1259
48.0200 15.9900 -0.1341
48.0400 15.9967 -0.1133
48.0600 16.0033 -0.1246
48.0800 16.0100 -0.1383
48.1000 16.0166 -0.1156
48.1200 16.0232 -0.1274
48.1400 16.0299 -0.1334
48.1600 16.0366 -0.1160
48.1800 16.0433 -0.1350
48.2000 16.0500 -0.1270
48.2200 16.0567 -0.1184
48.2400 16.0634 -0.1327
48.2600 16.0700 -0.1312
48.2800 16.0766 -0.1195
48.3000 16.0832 -0.1341
48.3200 16.0899 -0.1249
48.3400 16.0966 -0.1227
48.3600 16.1033 -0.1321
48.3800 16.1100 -0.1249
48.4000 16.1167 -0.1277
48.4200 16.1234 -0.1294
48.4400 16.1300 -0.1292
48.4600 16.1366 -0.1282
48.4800 16.1432 -0.1242
48.5000 16.1499 -0.1293
48.5200 16.1566 -0.1276
48.5400 16.1633 -0.1234
48.5600 16.1700 -0.1345
48.5800 16.1767 -0.1310
48.6000 16.1833 -0.1256
48.6200 16.1900 -0.1317
48.6400 16.1966 -0.1291
48.6600 16.2032 -0.1233
48.6800 16.2098 -0.1333
48.7000 16.2165 -0.1242
48.7200 16.2233 -0.1292
48.7400 16.2300 -0.1355
48.7600 16.2366 -0.1191
48.7800 16.2433 -0.1359
48.8000 16.2500 -0.1346
48.8200 16.2566 -0.1202
48.8400 16.2632 -0.1309
48.8600 16.2699 -0.1327
48.8800 16.2766 -0.1253
48.9000 16.2833 -0.1345
48.9200 16.2900 -0.1315
48.9400 16.2967 -0.1241
48.9600 16.3034 -0.1313
48.9800 16.3101 -0.1339
49.0000 16.3167 -0.1214
49.0200 16.3232 -0.1372
49.0400 16.3299 -0.1274
49.0600 16.3366 -0.1234
49.0800 16.3433 -0.1400
49.1000 16.3500 -0.1275
49.1200 16.3567 -0.1280
49.1400 16.3633 -0.1375
49.1600 16.3700 -0.1294
49.1800 16.3766 -0.1295
49.2000 16.3832 -0.1371
49.2200 16.3899 -0.1238
49.2400 16.3966 -0.1296
49.2600 16.4033 -0.1379
49.2800 16.4100 -0.1261
49.3000 16.4166 -0.1329
49.3200 16.4233 -0.1345
49.3400 16.4300 -0.1317
49.3600 16.4366 -0.1375
49.3800 16.4432 -0.1297
49.4000 16.4498 -0.1330
49.4200 16.4565 -0.1356
49.4400 16.4632 -0.1356
49.4600 16.4699 -0.1326
49.4800 16.4766 -0.1340
49.5000 16.4833 -0.1337
49.5200 16.4900 -0.1353
49.5400 16.4967 -0.1416
49.5600 16.5033 -0.1369
49.5800 16.5099 -0.1355
49.6000 16.5166 -0.1401
49.6200 16.5233 -0.1398
49.6400 16.5300 -0.1391
49.6600 16.5367 -0.1395
49.6800 16.5434 -0.1368
49.7000 16.5500 -0.1414
49.7200 16.5566 -0.1358
49.7400 16.5632 -0.1429
49.7600 16.5699 -0.1396
49.7800 16.5766 -0.1389
49.8000 16.5833 -0.1411
49.8200 16.5900 -0.1440
49.8400 16.5967 -0.1429
49.8600 16.6033 -0.1420
49.8800 16.6100 -0.1476
49.9000 16.6167 -0.1414
49.9200 16.6233 -0.1430
49.9400 16.6299 -0.1416
49.9600 16.6366 -0.1418
49.9800 16.6433 -0.1510
50.0000 16.6500 -0.1472
50.0200 16.6567 -0.1412
50.0400 16.6634 -0.1479
50.0600 16.6700 -0.1503
50.0800 16.6766 -0.1446
50.1000 16.6832 -0.1468
50.1200 16.6898 -0.1463
50.1400 16.6965 -0.1393
50.1600 16.7033 -0.1507
50.1800 16.7100 -0.1449
50.2000 16.7167 -0.1470
50.2200 16.7233 -0.1535
50.2400 16.7300 -0.1455
50.2600 16.7366 -0.1468
50.2800 16.7432 -0.1555
50.3000 16.7499 -0.1471
50.3200 16.7565 -0.1464
50.3400 16.7633 -0.1571
50.3600 16.7699 -0.1466
50.3800 16.7766 -0.1502
50.4000 16.7833 -0.1550
50.4200 16.7900 -0.1454
50.4400 16.7967 -0.1551
50.4600 16.8033 -0.1545
50.4800 16.8099 -0.1405
50.5000 16.8166 -0.1572
50.5200 16.8233 -0.1567
50.5400 16.8300 -0.1454
50.5600 16.8367 -0.1553
50.5800 16.8434 -0.1517
50.6000 16.8501 -0.1444
50.6200 16.8567 -0.1624
50.6400 16.8633 -0.1513
50.6600 16.8699 -0.1457
50.6800 16.8766 -0.1598
50.7000 16.8833 -0.1537
50.7200 16.8900 -0.1530
50.7400 16.8967 -0.1566
50.7600 16.9033 -0.1509
50.7800 16.9100 -0.1571
50.8000 16.9166 -0.1546
50.8200 16.9232 -0.1504
50.8400 16.9299 -0.1595
50.8600 16.9366 -0.1529
50.8800 16.9433 -0.1564
50.9000 16.9499 -0.1538
50.9200 16.9566 -0.1551
50.9400 16.9633 -0.1551
50.9600 16.9700 -0.1571
50.9800 16.9766 -0.1562
51.0000 16.9832 -0.1555
51.0200 16.9899 -0.1526
51.0400 16.9965 -0.1559
51.0600 17.0033 -0.1578
51.0800 17.0100 -0.1559
51.1000 17.0167 -0.1569
51.1200 17.0234 -0.1580
51.1400 17.0300 -0.1531
51.1600 17.0367 -0.1620
51.1800 17.0432 -0.1600
51.2000 17.0499 -0.1516
51.2200 17.0566 -0.1623
51.2400 17.0633 -0.1598
51.2600 17.0700 -0.1571
51.2800 17.0767 -0.1553
51.3000 17.0833 -0.1625
51.3200 17.0900 -0.1572
51.3400 17.0966 -0.1566
51.3600 17.1033 -0.1617
51.3800 17.1099 -0.1588
51.4000 17.1166 -0.1588
51.4200 17.1233 -0.1616
51.4400 17.1300 -0.1574
51.4600 17.1366 -0.1619
51.4800 17.1433 -0.1602
51.5000 17.1500 -0.1587
51.5200 17.1567 -0.1624
51.5400 17.1633 -0.1632
51.5600 17.1699 -0.1584
51.5800 17.1765 -0.1565
51.6000 17.1832 -0.1661
51.6200 17.1900 -0.1582
51.6400 17.1967 -0.1632
51.6600 17.2033 -0.1632
51.6800 17.2100 -0.1648
51.7000 17.2166 -0.1626
51.7200 17.2232 -0.1626
51.7400 17.2299 -0.1622
51.7600 17.2365 -0.1618
51.7800 17.2432 -0.1667
51.8000 17.2499 -0.1621
51.8200 17.2566 -0.1634
51.8400 17.2633 -0.1636
51.8600 17.2700 -0.1641
51.8800 17.2767 -0.1656
51.9000 17.2833 -0.1633
51.9200 17.2899 -0.1651
51.9400 17.2966 -0.1643
51.9600 17.3033 -0.1674
51.9800 17.3100 -0.1641
52.0000 17.3167 -0.1635
52.0200 17.3234 -0.1708
52.0400 17.3301 -0.1624
52.0600 17.3367 -0.1715
52.0800 17.3433 -0.1677
52.1000 17.3499 -0.1622
52.1200 17.3565 -0.1696
52.1400 17.3632 -0.1698
52.1600 17.3700 -0.1637
52.1800 17.3766 -0.1700
52.2000 17.3833 -0.1696
52.2200 17.3900 -0.1616
52.2400 17.3966 -0.1746
52.2600 17.4032 -0.1702
52.2800 17.4098 -0.1626
52.3000 17.4165 -0.1743
52.3200 17.4232 -0.1657
52.3400 17.4299 -0.1669
52.3600 17.4366 -0.1775
52.3800 17.4433 -0.1681
52.4000 17.4500 -0.1659
52.4200 17.4566 -0.1675
52.4400 17.4633 -0.1729
52.4600 17.4699 -0.1667
52.4800 17.4766 -0.1734
52.5000 17.4833 -0.1786
52.5200 17.4900 -0.1692
52.5400 17.4967 -0.1681
52.5600 17.5034 -0.1742
52.5800 17.5101 -0.1760
52.6000 17.5167 -0.1735
52.6200 17.5233 -0.1737
52.6400 17.5299 -0.1725
52.6600 17.5366 -0.1713
52.6800 17.5433 -0.1793
52.7000 17.5500 -0.1779
52.7200 17.5567 -0.1703
52.7400 17.5634 -0.1823
52.7600 17.5700 -0.1739
52.7800 17.5767 -0.1739
52.8000 17.5833 -0.1830
52.8200 17.5899 -0.1757
52.8400 17.5965 -0.1710
52.8600 17.6033 -0.1831
52.8800 17.6100 -0.1729
52.9000 17.6166 -0.1750
52.9200 17.6233 -0.1822
52.9400 17.6300 -0.1729
52.9600 17.6367 -0.1803
52.9800 17.6433 -0.1844
53.0000 17.6499 -0.1743
53.0200 17.6566 -0.1819
53.0400 17.6632 -0.1819
53.0600 17.6699 -0.1796
53.0800 17.6766 -0.1823
53.1000 17.6833 -0.1819
53.1200 17.6900 -0.1846
53.1400 17.6966 -0.1873
53.1600 17.7033 -0.1850
53.1800 17.7099 -0.1795
53.2000 17.7166 -0.1865
53.2200 17.7233 -0.1829
53.2400 17.7300 -0.1884
53.2600 17.7367 -0.1819
53.2800 17.7434 -0.1818
53.3000 17.7500 -0.1915
53.3200 17.7567 -0.1816
53.3400 17.7633 -0.1840
53.3600 17.7699 -0.1933
53.3800 17.7766 -0.1867
53.4000 17.7833 -0.1854
53.4200 17.7900 -0.1952
53.4400 17.7967 -0.1852
53.4600 17.8034 -0.1869
53.4800 17.8100 -0.1941
53.5000 17.8167 -0.1810
53.5200 17.8233 -0.1885
53.5400 17.8299 -0.1872
53.5600 17.8365 -0.1873
53.5800 17.8432 -0.1892
53.6000 17.8499 -0.1911
53.6200 17.8566 -0.1931
53.6400 17.8633 -0.1848
53.6600 17.8700 -0.1931
53.6800 17.8767 -0.1915
53.7000 17.8833 -0.1876
53.7200 17.8899 -0.1865
53.7400 17.8965 -0.1836
53.7600 17.9032 -0.1893
53.7800 17.9099 -0.1930
53.8000 17.9166 -0.1912
53.8200 17.9233 -0.1876
53.8400 17.9300 -0.1945
53.8600 17.9367 -0.1932
53.8800 17.9433 -0.1879
53.9000 17.9499 -0.1931
53.9200 17.9566 -0.1908
53.9400 17.9633 -0.1856
53.9600 17.9699 -0.1893
53.9800 17.9766 -0.1929
54.0000 17.9833 -0.1934
54.0200 17.9900 -0.1923
54.0400 17.9967 -0.1935
54.0600 18.0033 -0.1932
54.0800 18.0099 -0.1931
54.1000 18.0165 -0.1910
54.1200 18.0232 -0.1889
54.1400 18.0299 -0.1881
54.1600 18.0366 -0.1954
54.1800 18.0433 -0.1917
54.2000 18.0500 -0.1903
54.2200 18.0567 -0.1965
54.2400 18.0633 -0.1970
54.2600 18.0699 -0.1894
54.2800 18.0766 -0.1887
54.3000 18.0833 -0.1935
54.3200 18.0900 -0.1963
54.3400 18.0967 -0.1963
54.3600 18.1033 -0.1853
54.3800 18.1100 -0.1943
54.4000 18.1167 -0.1938
54.4200 18.1233 -0.1908
54.4400 18.1299 -0.1955
54.4600 18.1365 -0.1955
54.4800 18.1432 -0.1873
54.5000 18.1499 -0.1995
54.5200 18.1566 -0.1959
54.5400 18.1633 -0.1891
54.5600 18.1699 -0.2009
54.5800 18.1766 -0.1926
54.6000 18.1833 -0.1947
54.6200 18.1899 -0.2009
54.6400 18.1965 -0.1941
54.6600 18.2032 -0.1963
54.6800 18.2099 -0.2017
54.7000 18.2167 -0.1993
54.7200 18.2234 -0.1957
54.7400 18.2301 -0.1984
54.7600 18.2367 -0.2033
54.7800 18.2434 -0.1972
54.8000 18.2499 -0.1982
54.8200 18.2566 -0.1982
54.8400 18.2633 -0.1987
54.8600 18.2700 -0.2008
54.8800 18.2767 -0.2047
54.9000 18.2834 -0.1956
54.9200 18.2900 -0.1993
54.9400 18.2967 -0.2030
54.9600 18.3033 -0.2029
54.9800 18.3099 -0.1989
55.0000 18.3165 -0.1984
55.0200 18.3232 -0.2047
55.0400 18.3299 -0.2018
55.0600 18.3366 -0.2028
55.0800 18.3433 -0.2020
55.1000 18.3500 -0.2012
55.1200 18.3567 -0.2091
55.1400 18.3633 -0.2008
55.1600 18.3699 -0.2025
55.1800 18.3765 -0.2116
55.2000 18.3832 -0.1957
55.2200 18.3899 -0.2056
55.2400 18.3966 -0.2125
55.2600 18.4033 -0.1955
55.2800 18.4100 -0.2089
55.3000 18.4167 -0.2171
55.3200 18.4233 -0.1928
55.3400 18.4299 -0.2156
55.3600 18.4365 -0.2092
55.3800 18.4432 -0.1956
55.4000 18.4500 -0.2188
55.4200 18.4567 -0.2051
55.4400 18.4634 -0.1998
55.4600 18.4700 -0.2193
55.4800 18.4767 -0.2047
55.5000 18.4834 -0.2015
55.5200 18.4900 -0.2237
55.5400 18.4966 -0.2048
55.5600 18.5033 -0.2046
55.5800 18.5099 -0.2223
55.6000 18.5166 -0.2094
55.6200 18.5233 -0.2062
55.6400 18.5300 -0.2165
55.6600 18.5367 -0.2040
55.6800 18.5434 -0.2140
55.7000 18.5499 -0.2141
55.7200 18.5565 -0.2028
55.7400 18.5632 -0.2175
55.7600 18.5699 -0.2118
55.7800 18.5766 -0.2082
55.8000 18.5833 -0.2180
55.8200 18.5900 -0.2136
55.8400 18.5967 -0.2128
55.8600 18.6033 -0.2159
55.8800 18.6099 -0.2088
55.9000 18.6165 -0.2133
55.9200 18.6232 -0.2149
55.9400 18.6299 -0.2119
55.9600 18.6366 -0.2214
55.9800 18.6433 -0.2143
56.0000 18.6500 -0.2098
56.0200 18.6567 -0.2236
56.0400 18.6633 -0.2155
56.0600 18.6700 -0.2111
56.0800 18.6766 -0.2169
56.1000 18.6832 -0.2155
56.1200 18.6899 -0.2186
56.1400 18.6966 -0.2266
56.1600 18.7033 -0.2122
56.1800 18.7100 -0.2161
56.2000 18.7167 -0.2276
56.2200 18.7234 -0.2111
56.2400 18.7300 -0.2224
56.2600 18.7366 -0.2218
56.2800 18.7432 -0.2135
56.3000 18.7499 -0.2222
56.3200 18.7567 -0.2275
56.3400 18.7634 -0.2138
56.3600 18.7700 -0.2244
56.3800 18.7767 -0.2237
56.4000 18.7833 -0.2134
56.4200 18.7899 -0.2281
56.4400 18.7966 -0.2222
56.4600 18.8032 -0.2163
56.4800 18.8099 -0.2270
56.5000 18.8166 -0.2194
56.5200 18.8233 -0.2184
56.5400 18.8300 -0.2312
56.5600 18.8367 -0.2226
56.5800 18.8433 -0.2212
56.6000 18.8499 -0.2283
56.6200 18.8565 -0.2195
56.6400 18.8632 -0.2204
56.6600 18.8699 -0.2281
56.6800 18.8766 -0.2180
56.7000 18.8833 -0.2242
56.7200 18.8900 -0.2266
56.7400 18.8967 -0.2199
56.7600 18.9033 -0.2258
56.7800 18.9099 -0.2267
56.8000 18.9165 -0.2223
56.8200 18.9232 -0.2248
56.8400 18.9299 -0.2273
56.8600 18.9367 -0.2211
56.8800 18.9434 -0.2250
56.9000 18.9500 -0.2236
56.9200 18.9567 -0.2251
56.9400 18.9634 -0.2244
56.9600 18.9700 -0.2254
56.9800 18.9766 -0.2234
57.0000 18.9832 -0.2255
57.0200 18.9900 -0.2293
57.0400 18.9967 -0.2269
57.0600 19.0033 -0.2235
57.0800 19.0100 -0.2289
57.1000 19.0167 -0.2252
57.1200 19.0233 -0.2281
57.1400 19.0299 -0.2263
57.1600 19.0365 -0.2276
57.1800 19.0432 -0.2255
57.2000 19.0499 -0.2288
57.2200 19.0566 -0.2304
57.2400 19.0633 -0.2285
57.2600 19.0700 -0.2287
57.2800 19.0767 -0.2258
57.3000 19.0833 -0.2313
57.3200 19.0899 -0.2322
57.3400 19.0965 -0.2243
57.3600 19.1032 -0.2299
57.3800 19.1099 -0.2361
57.4000 19.1166 -0.2244
57.4200 19.1233 -0.2318
57.4400 19.1300 -0.2356
57.4600 19.1366 -0.2272
57.4800 19.1433 -0.2312
57.5000 19.1499 -0.2381
57.5200 19.1566 -0.2255
57.5400 19.1632 -0.2344
57.5600 19.1699 -0.2339
57.5800 19.1766 -0.2281
57.6000 19.1833 -0.2357
57.6200 19.1900 -0.2362
57.6400 19.1967 -0.2285
57.6600 19.2034 -0.2358
57.6800 19.2100 -0.2383
57.7000 19.2166 -0.2339
57.7200 19.2232 -0.2377
57.7400 19.2299 -0.2302
57.7600 19.2366 -0.2346
57.7800 19.2433 -0.2411
57.8000 19.2500 -0.2311
57.8200 19.2567 -0.2392
57.8400 19.2634 -0.2402
57.8600 19.2700 -0.2313
57.8800 19.2766 -0.2364
57.9000 19.2832 -0.2373
57.9200 19.2899 -0.2337
57.9400 19.2966 -0.2397
57.9600 19.3033 -0.2376
57.9800 19.3100 -0.2338
58.0000 19.3167 -0.2435
58.0200 19.3233 -0.2354
58.0400 19.3300 -0.2392
58.0600 19.3365 -0.2420
58.0800 19.3432 -0.2366
58.1000 19.3499 -0.2430
58.1200 19.3566 -0.2388
58.1400 19.3633 -0.2425
58.1600 19.3699 -0.2424
58.1800 19.3766 -0.2408
58.2000 19.3833 -0.2457
58.2200 19.3900 -0.2418
58.2400 19.3966 -0.2384
58.2600 19.4032 -0.2427
58.2800 19.4099 -0.2441
58.3000 19.4166 -0.2419
58.3200 19.4233 -0.2468
58.3400 19.4300 -0.2459
58.3600 19.4367 -0.2397
58.3800 19.4434 -0.2492
58.4000 19.4500 -0.2503
58.4200 19.4566 -0.2428
58.4400 19.4632 -0.2469
58.4600 19.4699 -0.2430
58.4800 19.4766 -0.2501
58.5000 19.4833 -0.2457
58.5200 19.4900 -0.2461
58.5400 19.4967 -0.2490
58.5600 19.5034 -0.2514
58.5800 19.5100 -0.2464
58.6000 19.5166 -0.2486
58.6200 19.5232 -0.2508
58.6400 19.5299 -0.2517
58.6600 19.5366 -0.2488
58.6800 19.5433 -0.2503
58.7000 19.5500 -0.2514
58.7200 19.5567 -0.2510
58.7400 19.5633 -0.2541
58.7600 19.5700 -0.2550
58.7800 19.5766 -0.2533
58.8000 19.5832 -0.2505
58.8200 19.5898 -0.2572
58.8400 19.5966 -0.2574
58.8600 19.6033 -0.2571
58.8800 19.6100 -0.2571
58.9000 19.6166 -0.2571
58.9200 19.6233 -0.2600
58.9400 19.6299 -0.2606
58.9600 19.6365 -0.2533
58.9800 19.6432 -0.2660
59.0000 19.6499 -0.2632
59.0200 19.6566 -0.2548
59.0400 19.6633 -0.2667
59.0600 19.6700 -0.2635
59.0800 19.6767 -0.2633
59.1000 19.6834 -0.2674
59.1200 19.6900 -0.2637
59.1400 19.6966 -0.2659
59.1600 19.7033 -0.2661
59.1800 19.7099 -0.2633
59.2000 19.7166 -0.2681
59.2200 19.7233 -0.2677
59.2400 19.7300 -0.2668
59.2600 19.7367 -0.2697
59.2800 19.7434 -0.2717
59.3000 19.7499 -0.2794
59.3010 19.7502 -0.2809
