Raw Data
Time Displacement Force
(s) (mm) (N)
0.0000 0.0000 0.1375
0.0200 0.0001 0.1405
0.0400 0.0008 0.1558
0.0600 0.0040 0.1798
0.0800 0.0095 0.1384
0.1000 0.0153 0.1236
0.1200 0.0212 0.1618
0.1400 0.0279 0.1490
0.1600 0.0351 0.1307
0.1800 0.0425 0.1468
0.2000 0.0497 0.1375
0.2200 0.0565 0.1343
0.2400 0.0633 0.1502
0.2600 0.0699 0.1420
0.2800 0.0766 0.1368
0.3000 0.0833 0.1531
0.3200 0.0900 0.1378
0.3400 0.0967 0.1483
0.3600 0.1034 0.1507
0.3800 0.1101 0.1448
0.4000 0.1167 0.1494
0.4200 0.1234 0.1511
0.4400 0.1301 0.1470
0.4600 0.1368 0.1535
0.4800 0.1434 0.1526
0.5000 0.1502 0.1498
0.5200 0.1568 0.1570
0.5400 0.1635 0.1522
0.5600 0.1700 0.1537
0.5800 0.1767 0.1627
0.6000 0.1834 0.1590
0.6200 0.1901 0.1576
0.6400 0.1968 0.1616
0.6600 0.2034 0.1655
0.6800 0.2101 0.1640
0.7000 0.2168 0.1598
0.7200 0.2234 0.1689
0.7400 0.2300 0.1614
0.7600 0.2367 0.1708
0.7800 0.2434 0.1756
0.8000 0.2501 0.1688
0.8200 0.2567 0.1720
0.8400 0.2634 0.1781
0.8600 0.2701 0.1681
0.8800 0.2768 0.1731
0.9000 0.2834 0.1787
0.9200 0.2900 0.1726
0.9400 0.2966 0.1801
0.9600 0.3033 0.1781
0.9800 0.3100 0.1744
1.0000 0.3167 0.1859
1.0200 0.3234 0.1777
1.0400 0.3301 0.1683
1.0600 0.3367 0.1854
1.0800 0.3434 0.1779
1.1000 0.3500 0.1734
1.1200 0.3567 0.1842
1.1400 0.3633 0.1779
1.1600 0.3701 0.1767
1.1800 0.3768 0.1848
1.2000 0.3834 0.1765
1.2200 0.3901 0.1787
1.2400 0.3968 0.1843
1.2600 0.4035 0.1743
1.2800 0.4101 0.1771
1.3000 0.4167 0.1899
1.3200 0.4234 0.1741
1.3400 0.4301 0.1810
1.3600 0.4368 0.1746
1.3800 0.4434 0.1774
1.4000 0.4501 0.1826
1.4200 0.4568 0.1761
1.4400 0.4634 0.1762
1.4600 0.4700 0.1821
1.4800 0.4766 0.1774
1.5000 0.4833 0.1737
1.5200 0.4900 0.1801
1.5400 0.4967 0.1755
1.5600 0.5034 0.1743
1.5800 0.5101 0.1790
1.6000 0.5168 0.1746
1.6200 0.5234 0.1737
1.6400 0.5300 0.1772
1.6600 0.5366 0.1728
1.6800 0.5433 0.1733
1.7000 0.5501 0.1710
1.7200 0.5568 0.1655
1.7400 0.5634 0.1682
1.7600 0.5701 0.1787
1.7800 0.5768 0.1675
1.8000 0.5834 0.1678
1.8200 0.5901 0.1711
1.8400 0.5967 0.1656
1.8600 0.6034 0.1708
1.8800 0.6101 0.1708
1.9000 0.6168 0.1633
1.9200 0.6234 0.1704
1.9400 0.6301 0.1694
1.9600 0.6368 0.1670
1.9800 0.6435 0.1716
2.0000 0.6501 0.1644
2.0200 0.6567 0.1693
2.0400 0.6633 0.1667
2.0600 0.6701 0.1670
2.0800 0.6768 0.1629
2.1000 0.6835 0.1700
2.1200 0.6901 0.1665
2.1400 0.6968 0.1623
2.1600 0.7034 0.1699
2.1800 0.7100 0.1675
2.2000 0.7166 0.1671
2.2200 0.7233 0.1671
2.2400 0.7301 0.1636
2.2600 0.7368 0.1680
2.2800 0.7434 0.1657
2.3000 0.7501 0.1620
2.3200 0.7568 0.1701
2.3400 0.7634 0.1694
2.3600 0.7701 0.1550
2.3800 0.7767 0.1708
2.4000 0.7833 0.1716
2.4200 0.7900 0.1556
2.4400 0.7967 0.1738
2.4600 0.8034 0.1666
2.4800 0.8101 0.1567
2.5000 0.8168 0.1759
2.5200 0.8235 0.1616
2.5400 0.8301 0.1587
2.5600 0.8367 0.1795
2.5800 0.8434 0.1619
2.6000 0.8501 0.1607
2.6200 0.8568 0.1739
2.6400 0.8635 0.1626
2.6600 0.8702 0.1643
2.6800 0.8768 0.1790
2.7000 0.8835 0.1536
2.7200 0.8901 0.1680
2.7400 0.8967 0.1764
2.7600 0.9034 0.1597
2.7800 0.9101 0.1704
2.8000 0.9168 0.1663
2.8200 0.9235 0.1630
2.8400 0.9301 0.1713
2.8600 0.9368 0.1678
2.8800 0.9435 0.1623
2.9000 0.9501 0.1714
2.9200 0.9567 0.1639
2.9400 0.9633 0.1660
2.9600 0.9700 0.1679
2.9800 0.9767 0.1671
3.0000 0.9834 0.1659
3.0200 0.9901 0.1644
3.0400 0.9968 0.1608
3.0600 1.0034 0.1719
3.0800 1.0100 0.1620
3.1000 1.0166 0.1638
3.1200 1.0233 0.1656
3.1400 1.0300 0.1639
3.1600 1.0367 0.1646
3.1800 1.0434 0.1626
3.2000 1.0501 0.1630
3.2200 1.0568 0.1653
3.2400 1.0634 0.1582
3.2600 1.0701 0.1611
3.2800 1.0767 0.1660
3.3000 1.0834 0.1599
3.3200 1.0901 0.1576
3.3400 1.0968 0.1663
3.3600 1.1034 0.1605
3.3800 1.1101 0.1623
3.4000 1.1168 0.1639
3.4200 1.1235 0.1510
3.4400 1.1301 0.1670
3.4600 1.1367 0.1594
3.4800 1.1434 0.1556
3.5000 1.1501 0.1665
3.5200 1.1568 0.1613
3.5400 1.1635 0.1538
3.5600 1.1701 0.1647
3.5800 1.1768 0.1633
3.6000 1.1835 0.1550
3.6200 1.1901 0.1598
3.6400 1.1967 0.1601
3.6600 1.2033 0.1585
3.6800 1.2100 0.1646
3.7000 1.2168 0.1563
3.7200 1.2234 0.1569
3.7400 1.2301 0.1650
3.7600 1.2368 0.1587
3.7800 1.2434 0.1545
3.8000 1.2501 0.1639
3.8200 1.2567 0.1592
3.8400 1.2633 0.1538
3.8600 1.2700 0.1647
3.8800 1.2767 0.1578
3.9000 1.2834 0.1593
3.9200 1.2901 0.1615
3.9400 1.2968 0.1572
3.9600 1.3034 0.1573
3.9800 1.3101 0.1610
4.0000 1.3167 0.1592
4.0200 1.3233 0.1587
4.0400 1.3300 0.1618
4.0600 1.3367 0.1649
4.0800 1.3434 0.1587
4.1000 1.3501 0.1590
4.1200 1.3568 0.1589
4.1400 1.3635 0.1595
4.1600 1.3701 0.1601
4.1800 1.3767 0.1617
4.2000 1.3833 0.1595
4.2200 1.3901 0.1569
4.2400 1.3968 0.1605
4.2600 1.4035 0.1595
4.2800 1.4101 0.1633
4.3000 1.4168 0.1595
4.3200 1.4235 0.1559
4.3400 1.4301 0.1609
4.3600 1.4367 0.1615
4.3800 1.4433 0.1597
4.4000 1.4500 0.1642
4.4200 1.4567 0.1537
4.4400 1.4634 0.1590
4.4600 1.4701 0.1631
4.4800 1.4768 0.1592
4.5000 1.4834 0.1554
4.5200 1.4901 0.1630
4.5400 1.4967 0.1578
4.5600 1.5033 0.1540
4.5800 1.5100 0.1687
4.6000 1.5167 0.1556
4.6200 1.5234 0.1580
4.6400 1.5301 0.1665
4.6600 1.5368 0.1537
4.6800 1.5434 0.1560
4.7000 1.5501 0.1673
4.7200 1.5567 0.1503
4.7400 1.5633 0.1630
4.7600 1.5701 0.1623
4.7800 1.5768 0.1508
4.8000 1.5835 0.1575
4.8200 1.5902 0.1622
4.8400 1.5968 0.1510
4.8600 1.6035 0.1611
4.8800 1.6101 0.1581
4.9000 1.6167 0.1507
4.9200 1.6234 0.1576
4.9400 1.6301 0.1591
4.9600 1.6368 0.1500
4.9800 1.6434 0.1562
5.0000 1.6501 0.1558
5.0200 1.6568 0.1494
5.0400 1.6635 0.1549
5.0600 1.6701 0.1601
5.0800 1.6767 0.1483
5.1000 1.6833 0.1588
5.1200 1.6900 0.1536
5.1400 1.6967 0.1450
5.1600 1.7034 0.1584
5.1800 1.7101 0.1520
5.2000 1.7168 0.1519
5.2200 1.7235 0.1548
5.2400 1.7301 0.1484
5.2600 1.7367 0.1447
5.2800 1.7433 0.1600
5.3000 1.7500 0.1556
5.3200 1.7567 0.1467
5.3400 1.7634 0.1522
5.3600 1.7701 0.1475
5.3800 1.7768 0.1482
5.4000 1.7834 0.1582
5.4200 1.7901 0.1477
5.4400 1.7967 0.1489
5.4600 1.8033 0.1511
5.4800 1.8100 0.1490
5.5000 1.8168 0.1458
5.5200 1.8234 0.1513
5.5400 1.8301 0.1550
5.5600 1.8368 0.1437
5.5800 1.8435 0.1493
5.6000 1.8501 0.1432
5.6200 1.8567 0.1511
5.6400 1.8633 0.1566
5.6600 1.8700 0.1485
5.6800 1.8767 0.1462
5.7000 1.8835 0.1487
5.7200 1.8901 0.1502
5.7400 1.8968 0.1495
5.7600 1.9035 0.1485
5.7800 1.9101 0.1464
5.8000 1.9167 0.1477
5.8200 1.9233 0.1540
5.8400 1.9300 0.1415
5.8600 1.9367 0.1487
5.8800 1.9434 0.1560
5.9000 1.9501 0.1443
5.9200 1.9567 0.1447
5.9400 1.9634 0.1514
5.9600 1.9701 0.1455
5.9800 1.9767 0.1435
6.0000 1.9833 0.1535
6.0200 1.9900 0.1417
6.0400 1.9967 0.1408
6.0600 2.0034 0.1557
6.0800 2.0101 0.1400
6.1000 2.0168 0.1423
6.1200 2.0235 0.1568
6.1400 2.0301 0.1394
6.1600 2.0367 0.1489
6.1800 2.0433 0.1527
6.2000 2.0500 0.1412
6.2200 2.0567 0.1439
6.2400 2.0634 0.1492
6.2600 2.0701 0.1400
6.2800 2.0768 0.1508
6.3000 2.0835 0.1484
6.3200 2.0901 0.1343
6.3400 2.0967 0.1515
6.3600 2.1033 0.1469
6.3800 2.1100 0.1437
6.4000 2.1167 0.1542
6.4200 2.1234 0.1439
6.4400 2.1301 0.1385
6.4600 2.1368 0.1449
6.4800 2.1435 0.1383
6.5000 2.1502 0.1487
6.5200 2.1568 0.1498
6.5400 2.1634 0.1375
6.5600 2.1700 0.1460
6.5800 2.1767 0.1522
6.6000 2.1834 0.1384
6.6200 2.1901 0.1518
6.6400 2.1968 0.1448
6.6600 2.2035 0.1363
6.6800 2.2101 0.1477
6.7000 2.2167 0.1400
6.7200 2.2233 0.1411
6.7400 2.2300 0.1512
6.7600 2.2367 0.1416
6.7800 2.2434 0.1404
6.8000 2.2501 0.1491
6.8200 2.2568 0.1424
6.8400 2.2635 0.1466
6.8600 2.2701 0.1540
6.8800 2.2767 0.1391
6.9000 2.2833 0.1432
6.9200 2.2900 0.1490
6.9400 2.2967 0.1343
6.9600 2.3034 0.1504
6.9800 2.3101 0.1508
7.0000 2.3168 0.1268
7.0200 2.3235 0.1437
7.0400 2.3301 0.1551
7.0600 2.3367 0.1392
7.0800 2.3434 0.1480
7.1000 2.3500 0.1450
7.1200 2.3567 0.1405
7.1400 2.3634 0.1526
7.1600 2.3701 0.1401
7.1800 2.3768 0.1351
7.2000 2.3835 0.1522
7.2200 2.3902 0.1384
7.2400 2.3967 0.1436
7.2600 2.4033 0.1500
7.2800 2.4100 0.1408
7.3000 2.4167 0.1530
7.3200 2.4234 0.1485
7.3400 2.4301 0.1306
7.3600 2.4368 0.1489
7.3800 2.4435 0.1456
7.4000 2.4501 0.1341
7.4200 2.4567 0.1517
7.4400 2.4633 0.1378
7.4600 2.4700 0.1367
7.4800 2.4767 0.1528
7.5000 2.4834 0.1413
7.5200 2.4901 0.1400
7.5400 2.4967 0.1523
7.5600 2.5034 0.1351
7.5800 2.5101 0.1399
7.6000 2.5167 0.1457
7.6200 2.5233 0.1404
7.6400 2.5300 0.1423
7.6600 2.5367 0.1386
7.6800 2.5434 0.1397
7.7000 2.5501 0.1471
7.7200 2.5568 0.1400
7.7400 2.5635 0.1413
7.7600 2.5702 0.1447
7.7800 2.5768 0.1399
7.8000 2.5834 0.1427
7.8200 2.5900 0.1422
7.8400 2.5967 0.1349
7.8600 2.6035 0.1415
7.8800 2.6101 0.1442
7.9000 2.6168 0.1334
7.9200 2.6235 0.1456
7.9400 2.6301 0.1390
7.9600 2.6367 0.1365
7.9800 2.6434 0.1525
8.0000 2.6500 0.1396
8.0200 2.6567 0.1297
8.0400 2.6634 0.1508
8.0600 2.6701 0.1330
8.0800 2.6767 0.1365
8.1000 2.6834 0.1512
8.1200 2.6901 0.1252
8.1400 2.6967 0.1384
8.1600 2.7033 0.1505
8.1800 2.7100 0.1327
8.2000 2.7167 0.1446
8.2200 2.7234 0.1434
8.2400 2.7301 0.1260
8.2600 2.7368 0.1472
8.2800 2.7435 0.1381
8.3000 2.7501 0.1216
8.3200 2.7567 0.1464
8.3400 2.7634 0.1419
8.3600 2.7700 0.1270
8.3800 2.7767 0.1504
8.4000 2.7834 0.1367
8.4200 2.7901 0.1340
8.4400 2.7968 0.1455
8.4600 2.8035 0.1300
8.4800 2.8102 0.1327
8.5000 2.8168 0.1395
8.5200 2.8234 0.1288
8.5400 2.8300 0.1408
8.5600 2.8367 0.1363
8.5800 2.8434 0.1296
8.6000 2.8501 0.1377
8.6200 2.8568 0.1343
8.6400 2.8635 0.1351
8.6600 2.8702 0.1441
8.6800 2.8768 0.1312
8.7000 2.8834 0.1315
8.7200 2.8900 0.1445
8.7400 2.8967 0.1346
8.7600 2.9034 0.1346
8.7800 2.9101 0.1333
8.8000 2.9168 0.1354
8.8200 2.9235 0.1377
8.8400 2.9301 0.1349
8.8600 2.9367 0.1289
8.8800 2.9433 0.1455
8.9000 2.9499 0.1365
8.9200 2.9566 0.1295
8.9400 2.9634 0.1375
8.9600 2.9700 0.1339
8.9800 2.9767 0.1319
9.0000 2.9834 0.1393
9.0200 2.9901 0.1358
9.0400 2.9968 0.1318
9.0600 3.0034 0.1404
9.0800 3.0100 0.1346
9.1000 3.0167 0.1412
9.1200 3.0234 0.1394
9.1400 3.0301 0.1326
9.1600 3.0368 0.1284
9.1800 3.0435 0.1358
9.2000 3.0502 0.1380
9.2200 3.0568 0.1349
9.2400 3.0634 0.1327
9.2600 3.0700 0.1354
9.2800 3.0767 0.1365
9.3000 3.0834 0.1422
9.3200 3.0901 0.1332
9.3400 3.0968 0.1339
9.3600 3.1035 0.1364
9.3800 3.1102 0.1290
9.4000 3.1168 0.1282
9.4200 3.1233 0.1438
9.4400 3.1300 0.1345
9.4600 3.1367 0.1264
9.4800 3.1434 0.1397
9.5000 3.1501 0.1336
9.5200 3.1568 0.1360
9.5400 3.1634 0.1365
9.5600 3.1701 0.1346
9.5800 3.1768 0.1348
9.6000 3.1834 0.1331
9.6200 3.1900 0.1318
9.6400 3.1967 0.1398
9.6600 3.2034 0.1338
9.6800 3.2101 0.1290
9.7000 3.2167 0.1332
9.7200 3.2234 0.1339
9.7400 3.2301 0.1305
9.7600 3.2367 0.1397
9.7800 3.2434 0.1296
9.8000 3.2500 0.1353
9.8200 3.2567 0.1386
9.8400 3.2634 0.1262
9.8600 3.2701 0.1332
9.8800 3.2768 0.1312
9.9000 3.2835 0.1303
9.9200 3.2902 0.1365
9.9400 3.2968 0.1283
9.9600 3.3034 0.1338
9.9800 3.3100 0.1416
10.0000 3.3167 0.1271
10.0200 3.3235 0.1305
10.0400 3.3302 0.1340
10.0600 3.3368 0.1303
10.0800 3.3435 0.1272
10.1000 3.3501 0.1334
10.1200 3.3568 0.1268
10.1400 3.3634 0.1310
10.1600 3.3700 0.1332
10.1800 3.3767 0.1304
10.2000 3.3834 0.1310
10.2200 3.3901 0.1355
10.2400 3.3967 0.1295
10.2600 3.4034 0.1315
10.2800 3.4101 0.1292
10.3000 3.4168 0.1333
10.3200 3.4234 0.1268
10.3400 3.4300 0.1295
10.3600 3.4366 0.1333
10.3800 3.4434 0.1284
10.4000 3.4501 0.1280
10.4200 3.4568 0.1318
10.4400 3.4634 0.1293
10.4600 3.4701 0.1275
10.4800 3.4768 0.1341
10.5000 3.4834 0.1244
10.5200 3.4900 0.1282
10.5400 3.4967 0.1387
10.5600 3.5034 0.1190
10.5800 3.5101 0.1223
10.6000 3.5168 0.1382
10.6200 3.5235 0.1213
10.6400 3.5302 0.1259
10.6600 3.5368 0.1355
10.6800 3.5434 0.1267
10.7000 3.5500 0.1243
10.7200 3.5567 0.1369
10.7400 3.5634 0.1232
10.7600 3.5701 0.1200
10.7800 3.5768 0.1356
10.8000 3.5835 0.1211
10.8200 3.5902 0.1224
10.8400 3.5968 0.1326
10.8600 3.6034 0.1216
10.8800 3.6100 0.1304
10.9000 3.6167 0.1341
10.9200 3.6234 0.1205
10.9400 3.6301 0.1262
10.9600 3.6368 0.1328
10.9800 3.6435 0.1180
11.0000 3.6501 0.1200
11.0200 3.6568 0.1342
11.0400 3.6634 0.1172
11.0600 3.6700 0.1238
11.0800 3.6767 0.1311
11.1000 3.6834 0.1271
11.1200 3.6901 0.1228
11.1400 3.6967 0.1237
11.1600 3.7034 0.1221
11.1800 3.7101 0.1271
11.2000 3.7168 0.1202
11.2200 3.7234 0.1248
11.2400 3.7300 0.1245
11.2600 3.7367 0.1198
11.2800 3.7434 0.1248
11.3000 3.7501 0.1260
11.3200 3.7568 0.1245
11.3400 3.7635 0.1257
11.3600 3.7702 0.1216
11.3800 3.7768 0.1171
11.4000 3.7834 0.1262
11.4200 3.7900 0.1220
11.4400 3.7967 0.1255
11.4600 3.8034 0.1235
11.4800 3.8101 0.1186
11.5000 3.8168 0.1240
11.5200 3.8235 0.1234
11.5400 3.8301 0.1204
11.5600 3.8368 0.1246
11.5800 3.8434 0.1221
11.6000 3.8500 0.1224
11.6200 3.8567 0.1161
11.6400 3.8634 0.1230
11.6600 3.8701 0.1283
11.6800 3.8767 0.1165
11.7000 3.8834 0.1173
11.7200 3.8901 0.1290
11.7400 3.8968 0.1181
11.7600 3.9034 0.1131
11.7800 3.9100 0.1279
11.8000 3.9166 0.1237
11.8200 3.9233 0.1164
11.8400 3.9300 0.1207
11.8600 3.9367 0.1212
11.8800 3.9434 0.1170
11.9000 3.9501 0.1236
11.9200 3.9568 0.1168
11.9400 3.9634 0.1163
11.9600 3.9700 0.1267
11.9800 3.9767 0.1204
12.0000 3.9834 0.1138
12.0200 3.9901 0.1297
12.0400 3.9968 0.1196
12.0600 4.0035 0.1184
12.0800 4.0101 0.1183
12.1000 4.0168 0.1162
12.1200 4.0234 0.1238
12.1400 4.0301 0.1222
12.1600 4.0367 0.1154
12.1800 4.0434 0.1179
12.2000 4.0501 0.1227
12.2200 4.0568 0.1142
12.2400 4.0635 0.1242
12.2600 4.0702 0.1228
12.2800 4.0768 0.1032
12.3000 4.0834 0.1193
12.3200 4.0900 0.1320
12.3400 4.0966 0.1077
12.3600 4.1034 0.1239
12.3800 4.1101 0.1230
12.4000 4.1167 0.1061
12.4200 4.1234 0.1233
12.4400 4.1301 0.1272
12.4600 4.1368 0.1048
12.4800 4.1434 0.1210
12.5000 4.1500 0.1263
12.5200 4.1566 0.1054
12.5400 4.1633 0.1203
12.5600 4.1701 0.1291
12.5800 4.1767 0.1042
12.6000 4.1834 0.1182
12.6200 4.1901 0.1313
12.6400 4.1968 0.1046
12.6600 4.2034 0.1153
12.6800 4.2100 0.1266
12.7000 4.2167 0.1082
12.7200 4.2234 0.1140
12.7400 4.2301 0.1257
12.7600 4.2368 0.1115
12.7800 4.2435 0.1187
12.8000 4.2502 0.1146
12.8200 4.2568 0.1120
12.8400 4.2634 0.1212
12.8600 4.2700 0.1144
12.8800 4.2767 0.1116
12.9000 4.2834 0.1233
12.9200 4.2901 0.1116
12.9400 4.2968 0.1083
12.9600 4.3035 0.1191
12.9800 4.3102 0.1168
13.0000 4.3168 0.1124
13.0200 4.3234 0.1134
13.0400 4.3300 0.1153
13.0600 4.3367 0.1194
13.0800 4.3434 0.1153
13.1000 4.3501 0.1154
13.1200 4.3568 0.1162
13.1400 4.3634 0.1114
13.1600 4.3701 0.1150
13.1800 4.3768 0.1145
13.2000 4.3834 0.1174
13.2200 4.3900 0.1165
13.2400 4.3966 0.1138
13.2600 4.4033 0.1059
13.2800 4.4100 0.1215
13.3000 4.4167 0.1173
13.3200 4.4234 0.1104
13.3400 4.4301 0.1179
13.3600 4.4368 0.1147
13.3800 4.4434 0.1059
13.4000 4.4500 0.1166
13.4200 4.4567 0.1250
13.4400 4.4634 0.1154
13.4600 4.4701 0.1018
13.4800 4.4768 0.1144
13.5000 4.4835 0.1264
13.5200 4.4902 0.1144
13.5400 4.4968 0.1039
13.5600 4.5034 0.1192
13.5800 4.5100 0.1154
13.6000 4.5167 0.1024
13.6200 4.5234 0.1227
13.6400 4.5301 0.1167
13.6600 4.5368 0.1098
13.6800 4.5435 0.1106
13.7000 4.5501 0.1160
13.7200 4.5568 0.1198
13.7400 4.5634 0.1079
13.7600 4.5700 0.1093
13.7800 4.5766 0.1241
13.8000 4.5833 0.1138
13.8200 4.5901 0.1021
13.8400 4.5968 0.1124
13.8600 4.6034 0.1181
13.8800 4.6101 0.1040
13.9000 4.6168 0.1149
13.9200 4.6234 0.1096
13.9400 4.6300 0.1139
13.9600 4.6366 0.1128
13.9800 4.6433 0.1157
14.0000 4.6500 0.1202
14.0200 4.6567 0.1076
14.0400 4.6634 0.1073
14.0600 4.6701 0.1070
14.0800 4.6768 0.1143
14.1000 4.6834 0.1096
14.1200 4.6900 0.1094
14.1400 4.6967 0.1087
14.1600 4.7034 0.1106
14.1800 4.7101 0.1179
14.2000 4.7168 0.1108
14.2200 4.7235 0.1088
14.2400 4.7301 0.1119
14.2600 4.7368 0.1054
14.2800 4.7435 0.1075
14.3000 4.7501 0.1099
14.3200 4.7567 0.1096
14.3400 4.7633 0.1054
14.3600 4.7701 0.1123
14.3800 4.7768 0.1135
14.4000 4.7835 0.1023
14.4200 4.7902 0.1146
14.4400 4.7969 0.1093
14.4600 4.8035 0.1032
14.4800 4.8100 0.1140
14.5000 4.8167 0.1158
14.5200 4.8233 0.1019
14.5400 4.8301 0.1049
14.5600 4.8367 0.1110
14.5800 4.8434 0.1076
14.6000 4.8501 0.1086
14.6200 4.8568 0.1088
14.6400 4.8634 0.1052
14.6600 4.8700 0.1118
14.6800 4.8767 0.1086
14.7000 4.8833 0.1111
14.7200 4.8900 0.1029
14.7400 4.8967 0.1022
14.7600 4.9034 0.1124
14.7800 4.9101 0.1150
14.8000 4.9168 0.0987
14.8200 4.9234 0.1053
14.8400 4.9300 0.1157
14.8600 4.9367 0.1025
14.8800 4.9434 0.1094
14.9000 4.9501 0.1147
14.9200 4.9567 0.0997
14.9400 4.9634 0.1066
14.9600 4.9701 0.1145
14.9800 4.9768 0.0988
15.0000 4.9835 0.1056
15.0200 4.9900 0.1124
15.0400 4.9967 0.0996
15.0600 5.0034 0.1024
15.0800 5.0101 0.1101
15.1000 5.0168 0.1053
15.1200 5.0235 0.1060
15.1400 5.0301 0.1056
15.1600 5.0368 0.0997
15.1800 5.0434 0.1046
15.2000 5.0500 0.1137
15.2200 5.0567 0.1007
15.2400 5.0634 0.1009
15.2600 5.0701 0.1077
15.2800 5.0768 0.1050
15.3000 5.0835 0.1035
15.3200 5.0901 0.1054
15.3400 5.0968 0.0994
15.3600 5.1035 0.1019
15.3800 5.1100 0.1042
15.4000 5.1166 0.1031
15.4200 5.1233 0.1086
15.4400 5.1300 0.0966
15.4600 5.1367 0.0972
15.4800 5.1434 0.1038
15.5000 5.1501 0.1075
15.5200 5.1568 0.1029
15.5400 5.1634 0.0987
15.5600 5.1700 0.1024
15.5800 5.1767 0.1069
15.6000 5.1834 0.0933
15.6200 5.1901 0.1009
15.6400 5.1968 0.1139
15.6600 5.2035 0.0984
15.6800 5.2101 0.0943
15.7000 5.2168 0.1046
15.7200 5.2235 0.1027
15.7400 5.2301 0.0992
15.7600 5.2367 0.1029
15.7800 5.2434 0.0983
15.8000 5.2501 0.0995
15.8200 5.2568 0.1027
15.8400 5.2635 0.1015
15.8600 5.2702 0.0970
15.8800 5.2768 0.1073
15.9000 5.2835 0.1030
15.9200 5.2901 0.0898
15.9400 5.2967 0.0989
15.9600 5.3033 0.1126
15.9800 5.3100 0.0940
16.0000 5.3167 0.0969
16.0200 5.3234 0.1029
16.0400 5.3301 0.0933
16.0600 5.3368 0.0964
16.0800 5.3434 0.1091
16.1000 5.3500 0.0964
16.1200 5.3567 0.0993
16.1400 5.3633 0.1091
16.1600 5.3701 0.0916
16.1800 5.3768 0.0960
16.2000 5.3834 0.1114
16.2200 5.3901 0.0915
16.2400 5.3968 0.0927
16.2600 5.4034 0.1087
16.2800 5.4101 0.0901
16.3000 5.4167 0.0969
16.3200 5.4234 0.1072
16.3400 5.4301 0.0987
16.3600 5.4368 0.0956
16.3800 5.4435 0.0981
16.4000 5.4501 0.1004
16.4200 5.4568 0.0985
16.4400 5.4635 0.0966
16.4600 5.4701 0.0936
16.4800 5.4767 0.1032
16.5000 5.4833 0.1009
16.5200 5.4900 0.0870
16.5400 5.4968 0.1051
16.5600 5.5035 0.1013
16.5800 5.5101 0.0884
16.6000 5.5168 0.1013
16.6200 5.5234 0.1036
16.6400 5.5300 0.0935
16.6600 5.5367 0.0987
16.6800 5.5433 0.1038
16.7000 5.5501 0.0918
16.7200 5.5568 0.1040
16.7400 5.5634 0.0979
16.7600 5.5701 0.0985
16.7800 5.5767 0.1043
16.8000 5.5834 0.0930
16.8200 5.5900 0.0977
16.8400 5.5967 0.1088
16.8600 5.6033 0.0930
16.8800 5.6100 0.0916
16.9000 5.6167 0.1037
16.9200 5.6234 0.0981
16.9400 5.6301 0.0943
16.9600 5.6368 0.1040
16.9800 5.6435 0.0920
17.0000 5.6501 0.0980
17.0200 5.6567 0.1080
17.0400 5.6633 0.0972
17.0600 5.6700 0.0992
17.0800 5.6768 0.1040
17.1000 5.6835 0.0923
17.1200 5.6902 0.0950
17.1400 5.6968 0.1035
17.1600 5.7035 0.0937
17.1800 5.7101 0.1002
17.2000 5.7167 0.1013
17.2200 5.7234 0.0934
17.2400 5.7301 0.0953
17.2600 5.7368 0.1082
17.2800 5.7435 0.0984
17.3000 5.7502 0.0942
17.3200 5.7568 0.1008
17.3400 5.7635 0.0951
17.3600 5.7701 0.0947
17.3800 5.7767 0.1027
17.4000 5.7833 0.0982
17.4200 5.7900 0.0904
17.4400 5.7967 0.0974
17.4600 5.8034 0.1001
17.4800 5.8101 0.0958
17.5000 5.8168 0.1023
17.5200 5.8235 0.0980
17.5400 5.8301 0.0871
17.5600 5.8366 0.0974
17.5800 5.8433 0.1026
17.6000 5.8500 0.0929
17.6200 5.8567 0.0952
17.6400 5.8634 0.0955
17.6600 5.8701 0.0914
17.6800 5.8768 0.1062
17.7000 5.8834 0.0950
17.7200 5.8901 0.0928
17.7400 5.8967 0.1019
17.7600 5.9034 0.0959
17.7800 5.9101 0.0840
17.8000 5.9168 0.1049
17.8200 5.9234 0.0895
17.8400 5.9301 0.0859
17.8600 5.9368 0.1054
17.8800 5.9435 0.0901
17.9000 5.9501 0.0892
17.9200 5.9568 0.1012
17.9400 5.9634 0.0935
17.9600 5.9701 0.0911
17.9800 5.9768 0.1003
18.0000 5.9835 0.0911
18.0200 5.9902 0.0911
18.0400 5.9968 0.0966
18.0600 6.0035 0.0868
18.0800 6.0101 0.0929
18.1000 6.0167 0.1006
18.1200 6.0233 0.0890
18.1400 6.0300 0.1029
18.1600 6.0368 0.0923
18.1800 6.0434 0.0852
18.2000 6.0501 0.1014
18.2200 6.0568 0.0929
18.2400 6.0635 0.0878
18.2600 6.0701 0.0926
18.2800 6.0767 0.0877
18.3000 6.0833 0.0927
18.3200 6.0900 0.0973
18.3400 6.0967 0.0874
18.3600 6.1034 0.0893
18.3800 6.1101 0.0988
18.4000 6.1168 0.0868
18.4200 6.1235 0.0896
18.4400 6.1301 0.0964
18.4600 6.1367 0.0847
18.4800 6.1433 0.0946
18.5000 6.1500 0.0951
18.5200 6.1567 0.0828
18.5400 6.1635 0.0890
18.5600 6.1701 0.0984
18.5800 6.1768 0.0840
18.6000 6.1835 0.0884
18.6200 6.1901 0.0952
18.6400 6.1967 0.0840
18.6600 6.2033 0.0915
18.6800 6.2100 0.0965
18.7000 6.2168 0.0848
18.7200 6.2235 0.0901
18.7400 6.2301 0.0885
18.7600 6.2368 0.0876
18.7800 6.2435 0.0927
18.8000 6.2501 0.0911
18.8200 6.2567 0.0893
18.8400 6.2634 0.0912
18.8600 6.2700 0.0876
18.8800 6.2767 0.0834
18.9000 6.2834 0.0981
18.9200 6.2901 0.0855
18.9400 6.2968 0.0848
18.9600 6.3035 0.0924
18.9800 6.3101 0.0877
19.0000 6.3167 0.0879
19.0200 6.3233 0.0906
19.0400 6.3300 0.0915
19.0600 6.3367 0.0872
19.0800 6.3434 0.0838
19.1000 6.3501 0.0914
19.1200 6.3568 0.0889
19.1400 6.3634 0.0864
19.1600 6.3701 0.0863
19.1800 6.3767 0.0894
19.2000 6.3833 0.0878
19.2200 6.3900 0.0927
19.2400 6.3968 0.0931
19.2600 6.4035 0.0839
19.2800 6.4101 0.0911
19.3000 6.4168 0.0890
19.3200 6.4235 0.0888
19.3400 6.4301 0.0881
19.3600 6.4367 0.0837
19.3800 6.4434 0.0915
19.4000 6.4500 0.0878
19.4200 6.4567 0.0855
19.4400 6.4634 0.0930
19.4600 6.4701 0.0857
19.4800 6.4768 0.0886
19.5000 6.4835 0.0894
19.5200 6.4901 0.0865
19.5400 6.4967 0.0867
19.5600 6.5033 0.0895
19.5800 6.5100 0.0893
19.6000 6.5167 0.0834
19.6200 6.5234 0.0867
19.6400 6.5301 0.0906
19.6600 6.5368 0.0866
19.6800 6.5435 0.0852
19.7000 6.5501 0.0909
19.7200 6.5567 0.0880
19.7400 6.5633 0.0852
19.7600 6.5700 0.0872
19.7800 6.5767 0.0859
19.8000 6.5834 0.0886
19.8200 6.5901 0.0861
19.8400 6.5967 0.0788
19.8600 6.6034 0.0952
19.8800 6.6101 0.0894
19.9000 6.6167 0.0824
19.9200 6.6233 0.0890
19.9400 6.6300 0.0923
19.9600 6.6367 0.0832
19.9800 6.6434 0.0793
20.0000 6.6501 0.0919
20.0200 6.6568 0.0937
20.0400 6.6635 0.0754
20.0600 6.6702 0.0890
20.0800 6.6768 0.0946
20.1000 6.6834 0.0785
20.1200 6.6900 0.0903
20.1400 6.6968 0.0932
20.1600 6.7035 0.0764
20.1800 6.7101 0.0906
20.2000 6.7168 0.0955
20.2200 6.7235 0.0725
20.2400 6.7301 0.0883
20.2600 6.7367 0.0933
20.2800 6.7433 0.0774
20.3000 6.7500 0.0908
20.3200 6.7567 0.0879
20.3400 6.7634 0.0776
20.3600 6.7701 0.0951
20.3800 6.7767 0.0792
20.4000 6.7834 0.0760
20.4200 6.7901 0.0974
20.4400 6.7967 0.0804
20.4600 6.8033 0.0744
20.4800 6.8100 0.0981
20.5000 6.8167 0.0821
20.5200 6.8234 0.0763
20.5400 6.8301 0.0956
20.5600 6.8368 0.0820
20.5800 6.8435 0.0832
20.6000 6.8501 0.0854
20.6200 6.8568 0.0781
20.6400 6.8634 0.0848
20.6600 6.8700 0.0845
20.6800 6.8767 0.0793
20.7000 6.8835 0.0876
20.7200 6.8901 0.0805
20.7400 6.8968 0.0839
20.7600 6.9035 0.0894
20.7800 6.9101 0.0789
20.8000 6.9167 0.0809
20.8200 6.9233 0.0897
20.8400 6.9300 0.0794
20.8600 6.9367 0.0809
20.8800 6.9434 0.0799
20.9000 6.9501 0.0790
20.9200 6.9568 0.0888
20.9400 6.9635 0.0740
20.9600 6.9701 0.0842
20.9800 6.9768 0.0931
21.0000 6.9834 0.0695
21.0200 6.9900 0.0810
21.0400 6.9967 0.0907
21.0600 7.0034 0.0729
21.0800 7.0101 0.0833
21.1000 7.0168 0.0859
21.1200 7.0235 0.0773
21.1400 7.0301 0.0826
21.1600 7.0367 0.0887
21.1800 7.0433 0.0650
21.2000 7.0500 0.0914
21.2200 7.0567 0.0856
21.2400 7.0634 0.0659
21.2600 7.0701 0.0913
21.2800 7.0767 0.0776
21.3000 7.0834 0.0702
21.3200 7.0901 0.0919
21.3400 7.0967 0.0751
21.3600 7.1033 0.0750
21.3800 7.1100 0.0898
21.4000 7.1167 0.0727
21.4200 7.1234 0.0753
21.4400 7.1301 0.0937
21.4600 7.1368 0.0704
21.4800 7.1435 0.0789
21.5000 7.1502 0.0926
21.5200 7.1568 0.0646
21.5400 7.1634 0.0830
21.5600 7.1700 0.0896
21.5800 7.1767 0.0670
21.6000 7.1834 0.0857
21.6200 7.1901 0.0852
21.6400 7.1968 0.0669
21.6600 7.2035 0.0911
21.6800 7.2102 0.0785
21.7000 7.2168 0.0735
21.7200 7.2233 0.0898
21.7400 7.2300 0.0809
21.7600 7.2367 0.0752
21.7800 7.2434 0.0887
21.8000 7.2501 0.0737
21.8200 7.2568 0.0769
21.8400 7.2635 0.0902
21.8600 7.2701 0.0662
21.8800 7.2767 0.0841
21.9000 7.2833 0.0825
21.9200 7.2900 0.0724
21.9400 7.2967 0.0854
21.9600 7.3034 0.0755
21.9800 7.3101 0.0746
22.0000 7.3167 0.0877
22.0200 7.3234 0.0806
22.0400 7.3301 0.0743
22.0600 7.3367 0.0819
22.0800 7.3434 0.0776
22.1000 7.3500 0.0716
22.1200 7.3567 0.0864
22.1400 7.3634 0.0746
22.1600 7.3701 0.0799
22.1800 7.3768 0.0805
22.2000 7.3835 0.0713
22.2200 7.3902 0.0800
22.2400 7.3968 0.0798
22.2600 7.4034 0.0741
22.2800 7.4100 0.0826
22.3000 7.4167 0.0807
22.3200 7.4235 0.0713
22.3400 7.4302 0.0782
22.3600 7.4368 0.0825
22.3800 7.4435 0.0746
22.4000 7.4501 0.0765
22.4200 7.4568 0.0805
22.4400 7.4634 0.0757
22.4600 7.4700 0.0804
22.4800 7.4767 0.0758
22.5000 7.4834 0.0784
22.5200 7.4901 0.0745
22.5400 7.4968 0.0800
22.5600 7.5034 0.0747
22.5800 7.5101 0.0736
22.6000 7.5168 0.0820
22.6200 7.5233 0.0735
22.6400 7.5300 0.0758
22.6600 7.5367 0.0813
22.6800 7.5434 0.0743
22.7000 7.5501 0.0703
22.7200 7.5568 0.0802
22.7400 7.5635 0.0728
22.7600 7.5701 0.0749
22.7800 7.5768 0.0800
22.8000 7.5833 0.0720
22.8200 7.5900 0.0715
22.8400 7.5967 0.0837
22.8600 7.6034 0.0730
22.8800 7.6101 0.0779
22.9000 7.6168 0.0790
22.9200 7.6235 0.0692
22.9400 7.6302 0.0728
22.9600 7.6368 0.0781
22.9800 7.6434 0.0678
23.0000 7.6500 0.0789
23.0200 7.6567 0.0774
23.0400 7.6634 0.0694
23.0600 7.6701 0.0792
23.0800 7.6768 0.0769
23.1000 7.6835 0.0708
23.1200 7.6902 0.0771
23.1400 7.6968 0.0701
23.1600 7.7034 0.0738
23.1800 7.7100 0.0864
23.2000 7.7167 0.0732
23.2200 7.7234 0.0693
23.2400 7.7301 0.0775
23.2600 7.7368 0.0717
23.2800 7.7435 0.0688
23.3000 7.7501 0.0795
23.3200 7.7567 0.0752
23.3400 7.7633 0.0697
23.3600 7.7700 0.0739
23.3800 7.7767 0.0741
23.4000 7.7834 0.0706
23.4200 7.7901 0.0764
23.4400 7.7967 0.0745
23.4600 7.8034 0.0712
23.4800 7.8101 0.0705
23.5000 7.8167 0.0751
23.5200 7.8234 0.0743
23.5400 7.8300 0.0703
23.5600 7.8367 0.0760
23.5800 7.8434 0.0690
23.6000 7.8501 0.0702
23.6200 7.8568 0.0717
23.6400 7.8635 0.0746
23.6600 7.8702 0.0711
23.6800 7.8768 0.0683
23.7000 7.8834 0.0734
23.7200 7.8900 0.0609
23.7400 7.8967 0.0712
23.7600 7.9034 0.1087
23.7800 7.9101 0.0390
23.8000 7.9168 0.0713
23.8200 7.9235 0.0962
23.8400 7.9302 0.0489
23.8600 7.9368 0.0766
23.8800 7.9434 0.0930
23.9000 7.9500 0.0546
23.9200 7.9567 0.0766
23.9400 7.9634 0.0882
23.9600 7.9701 0.0509
23.9800 7.9768 0.0850
24.0000 7.9834 0.0774
24.0200 7.9901 0.0529
24.0400 7.9968 0.0790
24.0600 8.0034 0.0710
24.0800 8.0100 0.0642
24.1000 8.0167 0.0823
24.1200 8.0234 0.0651
24.1400 8.0301 0.0613
24.1600 8.0367 0.0816
24.1800 8.0434 0.0830
24.2000 8.0501 0.0613
24.2200 8.0568 0.0779
24.2400 8.0634 0.0706
24.2600 8.0700 0.0708
24.2800 8.0767 0.0755
24.3000 8.0834 0.0723
24.3200 8.0901 0.0719
24.3400 8.0968 0.0682
24.3600 8.1035 0.0763
24.3800 8.1101 0.0723
24.4000 8.1168 0.0705
24.4200 8.1234 0.0794
24.4400 8.1300 0.0720
24.4600 8.1367 0.0672
24.4800 8.1434 0.0775
24.5000 8.1501 0.0718
24.5200 8.1568 0.0694
24.5400 8.1635 0.0706
24.5600 8.1702 0.0737
24.5800 8.1768 0.0783
24.6000 8.1834 0.0718
24.6200 8.1900 0.0684
24.6400 8.1967 0.0801
24.6600 8.2033 0.0716
24.6800 8.2100 0.0687
24.7000 8.2167 0.0756
24.7200 8.2234 0.0724
24.7400 8.2301 0.0685
24.7600 8.2368 0.0744
24.7800 8.2434 0.0711
24.8000 8.2500 0.0698
24.8200 8.2566 0.0769
24.8400 8.2634 0.0742
24.8600 8.2701 0.0661
24.8800 8.2768 0.0714
24.9000 8.2834 0.0765
24.9200 8.2901 0.0625
24.9400 8.2968 0.0697
24.9600 8.3034 0.0861
24.9800 8.3100 0.0637
25.0000 8.3167 0.0673
25.0200 8.3234 0.0823
25.0400 8.3301 0.0657
25.0600 8.3368 0.0697
25.0800 8.3435 0.0807
25.1000 8.3502 0.0606
25.1200 8.3568 0.0687
25.1400 8.3634 0.0863
25.1600 8.3700 0.0600
25.1800 8.3767 0.0686
25.2000 8.3834 0.0848
25.2200 8.3901 0.0597
25.2400 8.3968 0.0693
25.2600 8.4035 0.0784
25.2800 8.4102 0.0612
25.3000 8.4168 0.0722
25.3200 8.4234 0.0817
25.3400 8.4300 0.0617
25.3600 8.4367 0.0730
25.3800 8.4434 0.0780
25.4000 8.4501 0.0595
25.4200 8.4568 0.0742
25.4400 8.4635 0.0765
25.4600 8.4701 0.0534
25.4800 8.4768 0.0759
25.5000 8.4834 0.0676
25.5200 8.4900 0.0645
25.5400 8.4966 0.0785
25.5600 8.5033 0.0658
25.5800 8.5100 0.0670
25.6000 8.5167 0.0682
25.6200 8.5234 0.0671
25.6400 8.5301 0.0683
25.6600 8.5368 0.0686
25.6800 8.5434 0.0618
25.7000 8.5500 0.0739
25.7200 8.5567 0.0712
25.7400 8.5634 0.0614
25.7600 8.5701 0.0703
25.7800 8.5768 0.0671
25.8000 8.5835 0.0644
25.8200 8.5902 0.0699
25.8400 8.5968 0.0631
25.8600 8.6034 0.0684
25.8800 8.6100 0.0692
25.9000 8.6167 0.0640
25.9200 8.6234 0.0707
25.9400 8.6301 0.0699
25.9600 8.6368 0.0613
25.9800 8.6435 0.0684
26.0000 8.6502 0.0719
26.0200 8.6568 0.0629
26.0400 8.6634 0.0741
26.0600 8.6700 0.0656
26.0800 8.6767 0.0649
26.1000 8.6834 0.0769
26.1200 8.6901 0.0614
26.1400 8.6967 0.0649
26.1600 8.7034 0.0760
26.1800 8.7101 0.0565
26.2000 8.7168 0.0693
26.2200 8.7234 0.0713
26.2400 8.7300 0.0601
26.2600 8.7366 0.0714
26.2800 8.7433 0.0724
26.3000 8.7500 0.0606
26.3200 8.7567 0.0696
26.3400 8.7634 0.0699
26.3600 8.7701 0.0623
26.3800 8.7768 0.0683
26.4000 8.7834 0.0691
26.4200 8.7900 0.0680
26.4400 8.7967 0.0691
26.4600 8.8034 0.0677
26.4800 8.8101 0.0638
26.5000 8.8168 0.0701
26.5200 8.8235 0.0636
26.5400 8.8302 0.0693
26.5600 8.8368 0.0712
26.5800 8.8435 0.0643
26.6000 8.8501 0.0685
26.6200 8.8567 0.0727
26.6400 8.8634 0.0601
26.6600 8.8701 0.0717
26.6800 8.8768 0.0676
26.7000 8.8835 0.0623
26.7200 8.8902 0.0774
26.7400 8.8968 0.0658
26.7600 8.9034 0.0576
26.7800 8.9100 0.0750
26.8000 8.9166 0.0699
26.8200 8.9233 0.0641
26.8400 8.9301 0.0728
26.8600 8.9368 0.0683
26.8800 8.9434 0.0670
26.9000 8.9501 0.0684
26.9200 8.9568 0.0646
26.9400 8.9634 0.0696
26.9600 8.9700 0.0721
26.9800 8.9766 0.0654
27.0000 8.9833 0.0694
27.0200 8.9901 0.0670
27.0400 8.9967 0.0694
27.0600 9.0034 0.0659
27.0800 9.0101 0.0666
27.1000 9.0168 0.0691
27.1200 9.0234 0.0672
27.1400 9.0300 0.0659
27.1600 9.0367 0.0736
27.1800 9.0434 0.0676
27.2000 9.0501 0.0630
27.2200 9.0568 0.0723
27.2400 9.0634 0.0676
27.2600 9.0702 0.0629
27.2800 9.0768 0.0702
27.3000 9.0835 0.0604
27.3200 9.0900 0.0659
27.3400 9.0967 0.0776
27.3600 9.1034 0.0536
27.3800 9.1101 0.0698
27.4000 9.1168 0.0767
27.4200 9.1235 0.0548
27.4400 9.1302 0.0690
27.4600 9.1368 0.0725
27.4800 9.1434 0.0510
27.5000 9.1500 0.0711
27.5200 9.1567 0.0716
27.5400 9.1634 0.0558
27.5600 9.1701 0.0687
27.5800 9.1768 0.0692
27.6000 9.1834 0.0560
27.6200 9.1901 0.0670
27.6400 9.1968 0.0674
27.6600 9.2034 0.0618
27.6800 9.2100 0.0656
27.7000 9.2166 0.0620
27.7200 9.2233 0.0668
27.7400 9.2300 0.0634
27.7600 9.2367 0.0618
27.7800 9.2434 0.0628
27.8000 9.2501 0.0598
27.8200 9.2568 0.0587
27.8400 9.2634 0.0643
27.8600 9.2700 0.0585
27.8800 9.2767 0.0624
27.9000 9.2833 0.0641
27.9200 9.2901 0.0566
27.9400 9.2968 0.0638
27.9600 9.3035 0.0628
27.9800 9.3102 0.0575
28.0000 9.3168 0.0673
28.0200 9.3235 0.0538
28.0400 9.3301 0.0602
28.0600 9.3367 0.0655
28.0800 9.3434 0.0510
28.1000 9.3501 0.0628
28.1200 9.3568 0.0613
28.1400 9.3634 0.0567
28.1600 9.3701 0.0602
28.1800 9.3768 0.0596
28.2000 9.3834 0.0541
28.2200 9.3900 0.0663
28.2400 9.3966 0.0620
28.2600 9.4033 0.0522
28.2800 9.4100 0.0622
28.3000 9.4167 0.0527
28.3200 9.4234 0.0571
28.3400 9.4301 0.0677
28.3600 9.4368 0.0580
28.3800 9.4434 0.0538
28.4000 9.4500 0.0585
28.4200 9.4566 0.0610
28.4400 9.4633 0.0576
28.4600 9.4700 0.0587
28.4800 9.4768 0.0626
28.5000 9.4834 0.0545
28.5200 9.4901 0.0608
28.5400 9.4968 0.0593
28.5600 9.5034 0.0515
28.5800 9.5100 0.0613
28.6000 9.5167 0.0605
28.6200 9.5234 0.0582
28.6400 9.5301 0.0600
28.6600 9.5368 0.0584
28.6800 9.5434 0.0596
28.7000 9.5501 0.0572
28.7200 9.5568 0.0551
28.7400 9.5635 0.0587
28.7600 9.5701 0.0601
28.7800 9.5767 0.0587
28.8000 9.5834 0.0573
28.8200 9.5901 0.0581
28.8400 9.5968 0.0595
28.8600 9.6035 0.0568
28.8800 9.6102 0.0563
28.9000 9.6169 0.0619
28.9200 9.6235 0.0582
28.9400 9.6301 0.0515
28.9600 9.6367 0.0677
28.9800 9.6433 0.0598
29.0000 9.6500 0.0495
29.0200 9.6567 0.0657
29.0400 9.6634 0.0571
29.0600 9.6701 0.0538
29.0800 9.6768 0.0645
29.1000 9.6834 0.0563
29.1200 9.6900 0.0523
29.1400 9.6966 0.0643
29.1600 9.7033 0.0518
29.1800 9.7100 0.0600
29.2000 9.7167 0.0630
29.2200 9.7234 0.0541
29.2400 9.7301 0.0606
29.2600 9.7368 0.0594
29.2800 9.7434 0.0533
29.3000 9.7501 0.0623
29.3200 9.7567 0.0566
29.3400 9.7634 0.0515
29.3600 9.7701 0.0602
29.3800 9.7768 0.0551
29.4000 9.7835 0.0557
29.4200 9.7902 0.0595
29.4400 9.7969 0.0566
29.4600 9.8035 0.0541
29.4800 9.8101 0.0603
29.5000 9.8167 0.0564
29.5200 9.8233 0.0538
29.5400 9.8301 0.0620
29.5600 9.8368 0.0564
29.5800 9.8435 0.0518
29.6000 9.8501 0.0622
29.6200 9.8568 0.0525
29.6400 9.8634 0.0545
29.6600 9.8701 0.0630
29.6800 9.8767 0.0530
29.7000 9.8833 0.0562
29.7200 9.8900 0.0607
29.7400 9.8968 0.0552
29.7600 9.9034 0.0551
29.7800 9.9101 0.0551
29.8000 9.9168 0.0549
29.8200 9.9234 0.0605
29.8400 9.9300 0.0534
29.8600 9.9366 0.0514
29.8800 9.9433 0.0601
29.9000 9.9500 0.0532
29.9200 9.9567 0.0524
29.9400 9.9634 0.0651
29.9600 9.9701 0.0532
29.9800 9.9768 0.0529
30.0000 9.9834 0.0554
30.0200 9.9900 0.0532
30.0400 9.9967 0.0571
30.0600 10.0033 0.0604
30.0800 10.0101 0.0507
30.1000 10.0168 0.0529
30.1200 10.0235 0.0574
30.1400 10.0301 0.0515
30.1600 10.0368 0.0531
30.1800 10.0435 0.0564
30.2000 10.0501 0.0538
30.2200 10.0567 0.0512
30.2400 10.0634 0.0511
30.2600 10.0701 0.0550
30.2800 10.0768 0.0535
30.3000 10.0834 0.0496
30.3200 10.0901 0.0554
30.3400 10.0968 0.0541
30.3600 10.1035 0.0525
30.3800 10.1101 0.0526
30.4000 10.1167 0.0519
30.4200 10.1233 0.0514
30.4400 10.1300 0.0563
30.4600 10.1367 0.0497
30.4800 10.1434 0.0490
30.5000 10.1501 0.0554
30.5200 10.1568 0.0551
30.5400 10.1634 0.0512
30.5600 10.1700 0.0528
30.5800 10.1766 0.0515
30.6000 10.1833 0.0550
30.6200 10.1900 0.0512
30.6400 10.1968 0.0477
30.6600 10.2034 0.0568
30.6800 10.2101 0.0471
30.7000 10.2168 0.0483
30.7200 10.2235 0.0522
30.7400 10.2301 0.0492
30.7600 10.2367 0.0554
30.7800 10.2434 0.0562
30.8000 10.2501 0.0465
30.8200 10.2567 0.0504
30.8400 10.2634 0.0555
30.8600 10.2701 0.0459
30.8800 10.2768 0.0546
30.9000 10.2835 0.0576
30.9200 10.2901 0.0404
30.9400 10.2967 0.0509
30.9600 10.3033 0.0560
30.9800 10.3100 0.0495
31.0000 10.3168 0.0469
31.0200 10.3235 0.0512
31.0400 10.3301 0.0489
31.0600 10.3368 0.0467
31.0800 10.3435 0.0565
31.1000 10.3501 0.0479
31.1200 10.3567 0.0450
31.1400 10.3633 0.0574
31.1600 10.3700 0.0545
31.1800 10.3768 0.0403
31.2000 10.3834 0.0532
31.2200 10.3901 0.0562
31.2400 10.3968 0.0438
31.2600 10.4034 0.0530
31.2800 10.4101 0.0532
31.3000 10.4167 0.0441
31.3200 10.4233 0.0583
31.3400 10.4300 0.0510
31.3600 10.4367 0.0429
31.3800 10.4434 0.0605
31.4000 10.4501 0.0460
31.4200 10.4568 0.0415
31.4400 10.4635 0.0598
31.4600 10.4701 0.0485
31.4800 10.4767 0.0437
31.5000 10.4833 0.0587
31.5200 10.4900 0.0445
31.5400 10.4968 0.0468
31.5600 10.5035 0.0603
31.5800 10.5102 0.0428
31.6000 10.5168 0.0418
31.6200 10.5235 0.0596
31.6400 10.5301 0.0441
31.6600 10.5367 0.0498
31.6800 10.5434 0.0595
31.7000 10.5500 0.0374
31.7200 10.5568 0.0520
31.7400 10.5635 0.0622
31.7600 10.5701 0.0361
31.7800 10.5768 0.0475
31.8000 10.5835 0.0572
31.8200 10.5901 0.0452
31.8400 10.5967 0.0497
31.8600 10.6033 0.0530
31.8800 10.6100 0.0451
31.9000 10.6167 0.0551
31.9200 10.6234 0.0522
31.9400 10.6301 0.0345
31.9600 10.6368 0.0526
31.9800 10.6435 0.0548
32.0000 10.6501 0.0382
32.0200 10.6567 0.0476
32.0400 10.6633 0.0547
32.0600 10.6700 0.0452
32.0800 10.6767 0.0460
32.1000 10.6834 0.0471
32.1200 10.6901 0.0469
32.1400 10.6968 0.0471
32.1600 10.7035 0.0515
32.1800 10.7101 0.0394
32.2000 10.7167 0.0428
32.2200 10.7233 0.0627
32.2400 10.7300 0.0440
32.2600 10.7367 0.0314
32.2800 10.7434 0.0552
32.3000 10.7501 0.0529
32.3200 10.7568 0.0325
32.3400 10.7635 0.0542
32.3600 10.7702 0.0502
32.3800 10.7768 0.0397
32.4000 10.7834 0.0497
32.4200 10.7900 0.0459
32.4400 10.7967 0.0426
32.4600 10.8034 0.0580
32.4800 10.8101 0.0444
32.5000 10.8168 0.0373
32.5200 10.8235 0.0496
32.5400 10.8301 0.0502
32.5600 10.8367 0.0378
32.5800 10.8433 0.0457
32.6000 10.8500 0.0540
32.6200 10.8567 0.0436
32.6400 10.8634 0.0376
32.6600 10.8701 0.0526
32.6800 10.8768 0.0511
32.7000 10.8835 0.0327
32.7200 10.8901 0.0519
32.7400 10.8967 0.0432
32.7600 10.9033 0.0416
32.7800 10.9100 0.0580
32.8000 10.9167 0.0396
32.8200 10.9234 0.0319
32.8400 10.9301 0.0614
32.8600 10.9368 0.0371
32.8800 10.9435 0.0368
32.9000 10.9501 0.0579
32.9200 10.9567 0.0356
32.9400 10.9633 0.0366
32.9600 10.9700 0.0508
32.9800 10.9767 0.0367
33.0000 10.9834 0.0440
33.0200 10.9901 0.0470
33.0400 10.9968 0.0314
33.0600 11.0035 0.0495
33.0800 11.0101 0.0441
33.1000 11.0167 0.0384
33.1200 11.0233 0.0509
33.1400 11.0300 0.0394
33.1600 11.0367 0.0350
33.1800 11.0435 0.0496
33.2000 11.0502 0.0385
33.2200 11.0568 0.0364
33.2400 11.0635 0.0509
33.2600 11.0701 0.0361
33.2800 11.0767 0.0350
33.3000 11.0834 0.0510
33.3200 11.0900 0.0333
33.3400 11.0967 0.0348
33.3600 11.1034 0.0503
33.3800 11.1101 0.0314
33.4000 11.1168 0.0369
33.4200 11.1235 0.0457
33.4400 11.1301 0.0342
33.4600 11.1367 0.0386
33.4800 11.1433 0.0472
33.5000 11.1500 0.0365
33.5200 11.1567 0.0400
33.5400 11.1634 0.0447
33.5600 11.1701 0.0335
33.5800 11.1768 0.0367
33.6000 11.1835 0.0452
33.6200 11.1901 0.0338
33.6400 11.1967 0.0404
33.6600 11.2033 0.0424
33.6800 11.2100 0.0378
33.7000 11.2167 0.0360
33.7200 11.2235 0.0385
33.7400 11.2302 0.0386
33.7600 11.2368 0.0378
33.7800 11.2435 0.0385
33.8000 11.2501 0.0351
33.8200 11.2567 0.0368
33.8400 11.2633 0.0406
33.8600 11.2700 0.0386
33.8800 11.2767 0.0385
33.9000 11.2834 0.0375
33.9200 11.2901 0.0349
33.9400 11.2968 0.0372
33.9600 11.3035 0.0410
33.9800 11.3101 0.0385
34.0000 11.3167 0.0333
34.0200 11.3233 0.0380
34.0400 11.3300 0.0357
34.0600 11.3367 0.0393
34.0800 11.3434 0.0373
34.1000 11.3501 0.0357
34.1200 11.3568 0.0351
34.1400 11.3635 0.0367
34.1600 11.3701 0.0401
34.1800 11.3767 0.0354
34.2000 11.3833 0.0412
34.2200 11.3900 0.0391
34.2400 11.3967 0.0296
34.2600 11.4034 0.0383
34.2800 11.4101 0.0441
34.3000 11.4167 0.0352
34.3200 11.4234 0.0341
34.3400 11.4301 0.0394
34.3600 11.4367 0.0385
34.3800 11.4433 0.0346
34.4000 11.4500 0.0406
34.4200 11.4567 0.0358
34.4400 11.4634 0.0369
34.4600 11.4701 0.0356
34.4800 11.4768 0.0401
34.5000 11.4835 0.0352
34.5200 11.4902 0.0344
34.5400 11.4968 0.0365
34.5600 11.5034 0.0402
34.5800 11.5100 0.0358
34.6000 11.5167 0.0350
34.6200 11.5234 0.0397
34.6400 11.5301 0.0377
34.6600 11.5368 0.0344
34.6800 11.5435 0.0350
34.7000 11.5501 0.0381
34.7200 11.5567 0.0343
34.7400 11.5633 0.0357
34.7600 11.5700 0.0371
34.7800 11.5767 0.0379
34.8000 11.5834 0.0350
34.8200 11.5901 0.0343
34.8400 11.5967 0.0374
34.8600 11.6034 0.0401
34.8800 11.6101 0.0318
34.9000 11.6167 0.0338
34.9200 11.6233 0.0361
34.9400 11.6300 0.0366
34.9600 11.6367 0.0428
34.9800 11.6434 0.0305
35.0000 11.6501 0.0286
35.0200 11.6568 0.0463
35.0400 11.6635 0.0329
35.0600 11.6701 0.0259
35.0800 11.6768 0.0446
35.1000 11.6834 0.0312
35.1200 11.6900 0.0279
35.1400 11.6967 0.0434
35.1600 11.7034 0.0295
35.1800 11.7101 0.0290
35.2000 11.7168 0.0448
35.2200 11.7235 0.0260
35.2400 11.7301 0.0328
35.2600 11.7368 0.0443
35.2800 11.7434 0.0207
35.3000 11.7500 0.0391
35.3200 11.7567 0.0478
35.3400 11.7635 0.0229
35.3600 11.7701 0.0371
35.3800 11.7768 0.0405
35.4000 11.7835 0.0260
35.4200 11.7902 0.0366
35.4400 11.7968 0.0421
35.4600 11.8034 0.0261
35.4800 11.8100 0.0368
35.5000 11.8167 0.0359
35.5200 11.8234 0.0251
35.5400 11.8301 0.0426
35.5600 11.8368 0.0376
35.5800 11.8435 0.0204
35.6000 11.8501 0.0373
35.6200 11.8567 0.0384
35.6400 11.8633 0.0299
35.6600 11.8700 0.0391
35.6800 11.8767 0.0372
35.7000 11.8834 0.0261
35.7200 11.8901 0.0372
35.7400 11.8968 0.0408
35.7600 11.9034 0.0270
35.7800 11.9101 0.0300
35.8000 11.9167 0.0405
35.8200 11.9234 0.0313
35.8400 11.9300 0.0378
35.8600 11.9367 0.0374
35.8800 11.9434 0.0268
35.9000 11.9501 0.0330
35.9200 11.9568 0.0402
35.9400 11.9635 0.0302
35.9600 11.9702 0.0308
35.9800 11.9768 0.0374
36.0000 11.9834 0.0312
36.0200 11.9900 0.0330
36.0400 11.9967 0.0412
36.0600 12.0034 0.0263
36.0800 12.0101 0.0316
36.1000 12.0168 0.0394
36.1200 12.0235 0.0303
36.1400 12.0302 0.0324
36.1600 12.0368 0.0371
36.1800 12.0434 0.0278
36.2000 12.0500 0.0327
36.2200 12.0567 0.0365
36.2400 12.0634 0.0267
36.2600 12.0701 0.0354
36.2800 12.0768 0.0334
36.3000 12.0834 0.0287
36.3200 12.0901 0.0361
36.3400 12.0968 0.0334
36.3600 12.1034 0.0309
36.3800 12.1100 0.0316
36.4000 12.1167 0.0318
36.4200 12.1234 0.0364
36.4400 12.1300 0.0297
36.4600 12.1367 0.0325
36.4800 12.1434 0.0347
36.5000 12.1501 0.0253
36.5200 12.1568 0.0291
36.5400 12.1634 0.0347
36.5600 12.1700 0.0298
36.5800 12.1767 0.0332
36.6000 12.1834 0.0337
36.6200 12.1901 0.0231
36.6400 12.1968 0.0361
36.6600 12.2035 0.0332
36.6800 12.2102 0.0239
36.7000 12.2168 0.0353
36.7200 12.2234 0.0330
36.7400 12.2300 0.0269
36.7600 12.2367 0.0376
36.7800 12.2435 0.0267
36.8000 12.2501 0.0257
36.8200 12.2568 0.0340
36.8400 12.2635 0.0274
36.8600 12.2701 0.0238
36.8800 12.2767 0.0344
36.9000 12.2834 0.0252
36.9200 12.2900 0.0263
36.9400 12.2967 0.0348
36.9600 12.3034 0.0270
36.9800 12.3101 0.0241
37.0000 12.3168 0.0319
37.0200 12.3234 0.0288
37.0400 12.3301 0.0312
37.0600 12.3368 0.0257
37.0800 12.3434 0.0282
37.1000 12.3500 0.0327
37.1200 12.3566 0.0259
37.1400 12.3634 0.0290
37.1600 12.3701 0.0278
37.1800 12.3768 0.0294
37.2000 12.3835 0.0275
37.2200 12.3901 0.0278
37.2400 12.3968 0.0238
37.2600 12.4034 0.0278
37.2800 12.4100 0.0285
37.3000 12.4167 0.0255
37.3200 12.4234 0.0271
37.3400 12.4301 0.0265
37.3600 12.4368 0.0254
37.3800 12.4435 0.0279
37.4000 12.4502 0.0290
37.4200 12.4568 0.0208
37.4400 12.4634 0.0214
37.4600 12.4700 0.0320
37.4800 12.4767 0.0254
37.5000 12.4834 0.0219
37.5200 12.4901 0.0285
37.5400 12.4968 0.0257
37.5600 12.5035 0.0268
37.5800 12.5102 0.0232
37.6000 12.5168 0.0230
37.6200 12.5234 0.0238
37.6400 12.5300 0.0247
37.6600 12.5367 0.0265
37.6800 12.5434 0.0234
37.7000 12.5501 0.0247
37.7200 12.5568 0.0242
37.7400 12.5635 0.0209
37.7600 12.5701 0.0227
37.7800 12.5768 0.0250
37.8000 12.5833 0.0238
37.8200 12.5899 0.0201
37.8400 12.5966 0.0232
37.8600 12.6033 0.0257
37.8800 12.6100 0.0194
37.9000 12.6167 0.0217
37.9200 12.6234 0.0227
37.9400 12.6301 0.0217
37.9600 12.6368 0.0229
37.9800 12.6434 0.0222
38.0000 12.6500 0.0245
38.0200 12.6567 0.0271
38.0400 12.6634 0.0191
38.0600 12.6701 0.0221
38.0800 12.6768 0.0234
38.1000 12.6835 0.0231
38.1200 12.6902 0.0202
38.1400 12.6968 0.0213
38.1600 12.7034 0.0202
38.1800 12.7100 0.0218
38.2000 12.7167 0.0250
38.2200 12.7234 0.0178
38.2400 12.7301 0.0222
38.2600 12.7368 0.0195
38.2800 12.7435 0.0155
38.3000 12.7502 0.0232
38.3200 12.7568 0.0231
38.3400 12.7634 0.0206
38.3600 12.7700 0.0208
38.3800 12.7767 0.0179
38.4000 12.7834 0.0202
38.4200 12.7901 0.0250
38.4400 12.7968 0.0192
38.4600 12.8034 0.0197
38.4800 12.8101 0.0201
38.5000 12.8168 0.0162
38.5200 12.8234 0.0214
38.5400 12.8300 0.0183
38.5600 12.8367 0.0175
38.5800 12.8434 0.0194
38.6000 12.8501 0.0177
38.6200 12.8567 0.0187
38.6400 12.8634 0.0185
38.6600 12.8701 0.0184
38.6800 12.8768 0.0150
38.7000 12.8834 0.0211
38.7200 12.8900 0.0219
38.7400 12.8967 0.0187
38.7600 12.9034 0.0167
38.7800 12.9101 0.0212
38.8000 12.9168 0.0161
38.8200 12.9235 0.0184
38.8400 12.9301 0.0211
38.8600 12.9368 0.0146
38.8800 12.9434 0.0160
38.9000 12.9500 0.0256
38.9200 12.9567 0.0110
38.9400 12.9634 0.0210
38.9600 12.9701 0.0264
38.9800 12.9768 0.0104
39.0000 12.9835 0.0175
39.0200 12.9901 0.0200
39.0400 12.9968 0.0149
39.0600 13.0034 0.0186
39.0800 13.0100 0.0235
39.1000 13.0167 0.0083
39.1200 13.0234 0.0183
39.1400 13.0301 0.0186
39.1600 13.0367 0.0111
39.1800 13.0434 0.0211
39.2000 13.0501 0.0145
39.2200 13.0568 0.0061
39.2400 13.0634 0.0207
39.2600 13.0700 0.0165
39.2800 13.0766 0.0124
39.3000 13.0834 0.0176
39.3200 13.0901 0.0136
39.3400 13.0968 0.0087
39.3600 13.1034 0.0138
39.3800 13.1101 0.0111
39.4000 13.1168 0.0129
39.4200 13.1234 0.0190
39.4400 13.1300 0.0130
39.4600 13.1367 0.0110
39.4800 13.1434 0.0190
39.5000 13.1501 0.0124
39.5200 13.1568 0.0097
39.5400 13.1634 0.0181
39.5600 13.1701 0.0106
39.5800 13.1768 0.0118
39.6000 13.1834 0.0121
39.6200 13.1900 0.0110
39.6400 13.1967 0.0177
39.6600 13.2034 0.0124
39.6800 13.2101 0.0128
39.7000 13.2168 0.0176
39.7200 13.2235 0.0054
39.7400 13.2302 0.0093
39.7600 13.2368 0.0164
39.7800 13.2434 0.0015
39.8000 13.2500 0.0149
39.8200 13.2567 0.0177
39.8400 13.2634 0.0017
39.8600 13.2701 0.0184
39.8800 13.2768 0.0202
39.9000 13.2835 -0.0065
39.9200 13.2902 0.0206
39.9400 13.2968 0.0160
39.9600 13.3034 0.0005
39.9800 13.3100 0.0247
40.0000 13.3167 0.0117
40.0200 13.3234 -0.0007
40.0400 13.3301 0.0206
40.0600 13.3367 0.0123
40.0800 13.3434 -0.0007
40.1000 13.3501 0.0217
40.1200 13.3567 0.0061
40.1400 13.3634 0.0022
40.1600 13.3700 0.0242
40.1800 13.3767 0.0065
40.2000 13.3834 0.0101
40.2200 13.3901 0.0194
40.2400 13.3968 0.0018
40.2600 13.4035 0.0106
40.2800 13.4102 0.0163
40.3000 13.4169 0.0021
40.3200 13.4235 0.0121
40.3400 13.4300 0.0177
40.3600 13.4367 0.0027
40.3800 13.4434 0.0158
40.4000 13.4501 0.0172
40.4200 13.4568 0.0013
40.4400 13.4635 0.0103
40.4600 13.4701 0.0166
40.4800 13.4768 0.0086
40.5000 13.4834 0.0073
40.5200 13.4900 0.0130
40.5400 13.4967 0.0120
40.5600 13.5033 0.0080
40.5800 13.5100 0.0139
40.6000 13.5167 0.0170
40.6200 13.5234 0.0063
40.6400 13.5301 0.0119
40.6600 13.5368 0.0126
40.6800 13.5434 0.0075
40.7000 13.5500 0.0192
40.7200 13.5566 0.0143
40.7400 13.5633 0.0006
40.7600 13.5700 0.0163
40.7800 13.5767 0.0129
40.8000 13.5834 0.0046
40.8200 13.5901 0.0170
40.8400 13.5968 0.0102
40.8600 13.6034 0.0087
40.8800 13.6100 0.0130
40.9000 13.6166 0.0067
40.9200 13.6234 0.0153
40.9400 13.6301 0.0164
40.9600 13.6368 -0.0027
40.9800 13.6435 0.0099
41.0000 13.6501 0.0159
41.0200 13.6568 0.0024
41.0400 13.6635 0.0103
41.0600 13.6701 0.0171
41.0800 13.6767 -0.0008
41.1000 13.6834 0.0085
41.1200 13.6901 0.0177
41.1400 13.6968 0.0034
41.1600 13.7034 0.0083
41.1800 13.7101 0.0115
41.2000 13.7168 0.0046
41.2200 13.7235 0.0085
41.2400 13.7300 0.0112
41.2600 13.7366 0.0051
41.2800 13.7433 0.0129
41.3000 13.7500 0.0106
41.3200 13.7567 0.0021
41.3400 13.7634 0.0146
41.3600 13.7701 0.0114
41.3800 13.7768 0.0014
41.4000 13.7834 0.0114
41.4200 13.7900 0.0083
41.4400 13.7966 0.0043
41.4600 13.8033 0.0140
41.4800 13.8101 0.0085
41.5000 13.8167 0.0012
41.5200 13.8234 0.0139
41.5400 13.8301 0.0070
41.5600 13.8368 -0.0001
41.5800 13.8434 0.0140
41.6000 13.8501 0.0037
41.6200 13.8567 0.0057
41.6400 13.8634 0.0144
41.6600 13.8701 0.0087
41.6800 13.8767 0.0051
41.7000 13.8834 0.0144
41.7200 13.8901 0.0039
41.7400 13.8968 0.0002
41.7600 13.9035 0.0088
41.7800 13.9101 0.0078
41.8000 13.9167 0.0043
41.8200 13.9234 0.0090
41.8400 13.9301 0.0026
41.8600 13.9368 0.0088
41.8800 13.9435 0.0113
41.9000 13.9502 -0.0054
41.9200 13.9568 0.0087
41.9400 13.9634 0.0152
41.9600 13.9700 0.0005
41.9800 13.9767 0.0027
42.0000 13.9834 0.0124
42.0200 13.9901 0.0042
42.0400 13.9968 0.0060
42.0600 14.0034 0.0048
42.0800 14.0101 0.0037
42.1000 14.0168 0.0002
42.1200 14.0235 0.0140
42.1400 14.0301 0.0026
42.1600 14.0366 -0.0068
42.1800 14.0433 0.0135
42.2000 14.0500 0.0107
42.2200 14.0567 -0.0084
42.2400 14.0634 0.0079
42.2600 14.0701 0.0109
42.2800 14.0768 0.0016
42.3000 14.0835 0.0097
42.3200 14.0901 -0.0047
42.3400 14.0967 0.0009
42.3600 14.1034 0.0214
42.3800 14.1101 -0.0031
42.4000 14.1168 -0.0092
42.4200 14.1235 0.0197
42.4400 14.1302 -0.0016
42.4600 14.1368 -0.0008
42.4800 14.1435 0.0150
42.5000 14.1501 -0.0127
42.5200 14.1567 0.0144
42.5400 14.1634 0.0132
42.5600 14.1701 -0.0158
42.5800 14.1768 0.0134
42.6000 14.1834 0.0087
42.6200 14.1901 -0.0140
42.6400 14.1968 0.0114
42.6600 14.2035 0.0072
42.6800 14.2101 -0.0072
42.7000 14.2166 0.0145
42.7200 14.2233 -0.0066
42.7400 14.2300 -0.0028
42.7600 14.2367 0.0241
42.7800 14.2434 -0.0116
42.8000 14.2501 -0.0035
42.8200 14.2568 0.0229
42.8400 14.2635 -0.0146
42.8600 14.2701 0.0006
42.8800 14.2766 0.0203
42.9000 14.2833 -0.0113
42.9200 14.2900 0.0052
42.9400 14.2967 0.0112
42.9600 14.3034 -0.0088
42.9800 14.3101 0.0116
43.0000 14.3168 0.0066
43.0200 14.3234 -0.0159
43.0400 14.3301 0.0133
43.0600 14.3367 0.0033
43.0800 14.3434 -0.0090
43.1000 14.3501 0.0165
43.1200 14.3568 -0.0067
43.1400 14.3635 -0.0030
43.1600 14.3701 0.0166
43.1800 14.3768 -0.0076
43.2000 14.3835 -0.0001
43.2200 14.3901 0.0119
43.2400 14.3967 -0.0100
43.2600 14.4034 0.0051
43.2800 14.4101 0.0111
43.3000 14.4168 -0.0139
43.3200 14.4235 0.0056
43.3400 14.4302 0.0100
43.3600 14.4368 -0.0139
43.3800 14.4435 0.0151
43.4000 14.4501 -0.0025
43.4200 14.4567 -0.0070
43.4400 14.4633 0.0153
43.4600 14.4700 -0.0055
43.4800 14.4768 -0.0073
43.5000 14.4834 0.0188
43.5200 14.4901 -0.0048
43.5400 14.4968 -0.0058
43.5600 14.5034 0.0138
43.5800 14.5101 -0.0118
43.6000 14.5167 0.0019
43.6200 14.5233 0.0142
43.6400 14.5300 -0.0132
43.6600 14.5367 0.0044
43.6800 14.5434 0.0056
43.7000 14.5501 -0.0122
43.7200 14.5568 0.0098
43.7400 14.5634 -0.0016
43.7600 14.5701 -0.0067
43.7800 14.5767 0.0126
43.8000 14.5833 -0.0049
43.8200 14.5900 -0.0082
43.8400 14.5967 0.0146
43.8600 14.6034 -0.0068
43.8800 14.6101 -0.0111
43.9000 14.6168 0.0137
43.9200 14.6235 -0.0102
43.9400 14.6301 -0.0042
43.9600 14.6367 0.0152
43.9800 14.6433 -0.0107
44.0000 14.6501 0.0009
44.0200 14.6568 0.0051
44.0400 14.6635 -0.0117
44.0600 14.6701 0.0016
44.0800 14.6768 0.0051
44.1000 14.6835 -0.0106
44.1200 14.6901 -0.0001
44.1400 14.6967 0.0027
44.1600 14.7033 -0.0097
44.1800 14.7100 0.0038
44.2000 14.7167 -0.0047
44.2200 14.7234 -0.0024
44.2400 14.7301 0.0051
44.2600 14.7368 -0.0080
44.2800 14.7435 -0.0016
44.3000 14.7501 0.0037
44.3200 14.7567 -0.0102
44.3400 14.7633 0.0058
44.3600 14.7700 0.0024
44.3800 14.7767 -0.0097
44.4000 14.7834 0.0039
44.4200 14.7901 -0.0007
44.4400 14.7968 -0.0090
44.4600 14.8034 0.0008
44.4800 14.8100 -0.0035
44.5000 14.8166 -0.0036
44.5200 14.8233 0.0086
44.5400 14.8300 -0.0101
44.5600 14.8368 -0.0011
44.5800 14.8435 0.0050
44.6000 14.8501 -0.0093
44.6200 14.8568 -0.0010
44.6400 14.8635 0.0042
44.6600 14.8701 -0.0100
44.6800 14.8768 0.0034
44.7000 14.8834 0.0050
44.7200 14.8901 -0.0102
44.7400 14.8968 0.0037
44.7600 14.9035 0.0030
44.7800 14.9101 -0.0105
44.8000 14.9168 0.0052
44.8200 14.9235 -0.0020
44.8400 14.9301 -0.0075
44.8600 14.9367 0.0073
44.8800 14.9433 -0.0075
44.9000 14.9500 0.0001
44.9200 14.9567 0.0021
44.9400 14.9634 -0.0109
44.9600 14.9701 0.0012
44.9800 14.9768 0.0064
45.0000 14.9834 -0.0159
45.0200 14.9901 -0.0001
45.0400 14.9967 0.0032
45.0600 15.0033 -0.0100
45.0800 15.0100 0.0042
45.1000 15.0168 -0.0064
45.1200 15.0234 -0.0081
45.1400 15.0301 0.0083
45.1600 15.0368 -0.0116
45.1800 15.0435 -0.0094
45.2000 15.0501 0.0063
45.2200 15.0567 -0.0078
45.2400 15.0634 -0.0073
45.2600 15.0701 0.0001
45.2800 15.0767 -0.0085
45.3000 15.0834 -0.0039
45.3200 15.0901 -0.0007
45.3400 15.0968 -0.0125
45.3600 15.1035 0.0004
45.3800 15.1101 -0.0061
45.4000 15.1167 -0.0091
45.4200 15.1233 0.0060
45.4400 15.1300 -0.0078
45.4600 15.1368 -0.0078
45.4800 15.1435 0.0042
45.5000 15.1501 -0.0157
45.5200 15.1568 -0.0026
45.5400 15.1635 0.0029
45.5600 15.1701 -0.0200
45.5800 15.1767 -0.0034
45.6000 15.1833 0.0039
45.6200 15.1900 -0.0124
45.6400 15.1968 -0.0058
45.6600 15.2035 -0.0037
45.6800 15.2101 -0.0106
45.7000 15.2168 0.0010
45.7200 15.2234 -0.0120
45.7400 15.2301 -0.0078
45.7600 15.2367 0.0016
45.7800 15.2433 -0.0120
45.8000 15.2500 -0.0086
45.8200 15.2567 0.0004
45.8400 15.2634 -0.0142
45.8600 15.2701 -0.0038
45.8800 15.2768 -0.0020
45.9000 15.2835 -0.0155
45.9200 15.2901 -0.0016
45.9400 15.2967 -0.0050
45.9600 15.3033 -0.0152
45.9800 15.3100 0.0030
46.0000 15.3167 -0.0077
46.0200 15.3235 -0.0112
46.0400 15.3302 0.0012
46.0600 15.3368 -0.0127
46.0800 15.3435 -0.0065
46.1000 15.3501 -0.0040
46.1200 15.3567 -0.0137
46.1400 15.3634 -0.0062
46.1600 15.3701 -0.0070
46.1800 15.3768 -0.0121
46.2000 15.3835 -0.0014
46.2200 15.3901 -0.0090
46.2400 15.3968 -0.0127
46.2600 15.4035 -0.0070
46.2800 15.4101 -0.0101
46.3000 15.4167 -0.0135
46.3200 15.4233 -0.0069
46.3400 15.4300 -0.0048
46.3600 15.4367 -0.0154
46.3800 15.4434 -0.0076
46.4000 15.4501 -0.0028
46.4200 15.4568 -0.0133
46.4400 15.4635 -0.0116
46.4600 15.4701 -0.0070
46.4800 15.4767 -0.0128
46.5000 15.4833 -0.0062
46.5200 15.4900 -0.0055
46.5400 15.4967 -0.0183
46.5600 15.5034 -0.0087
46.5800 15.5101 -0.0063
46.6000 15.5168 -0.0188
46.6200 15.5234 -0.0046
46.6400 15.5301 -0.0091
46.6600 15.5367 -0.0191
46.6800 15.5433 -0.0058
46.7000 15.5500 -0.0012
46.7200 15.5567 -0.0232
46.7400 15.5634 -0.0133
46.7600 15.5701 -0.0008
46.7800 15.5768 -0.0183
46.8000 15.5835 -0.0094
46.8200 15.5902 -0.0124
46.8400 15.5968 -0.0144
46.8600 15.6034 -0.0094
46.8800 15.6100 -0.0109
46.9000 15.6167 -0.0123
46.9200 15.6235 -0.0103
46.9400 15.6301 -0.0148
46.9600 15.6368 -0.0126
46.9800 15.6435 -0.0090
47.0000 15.6501 -0.0142
47.0200 15.6567 -0.0175
47.0400 15.6633 -0.0087
47.0600 15.6700 -0.0173
47.0800 15.6767 -0.0139
47.1000 15.6834 -0.0076
47.1200 15.6901 -0.0217
47.1400 15.6968 -0.0090
47.1600 15.7035 -0.0103
47.1800 15.7101 -0.0192
47.2000 15.7167 -0.0136
47.2200 15.7234 -0.0111
47.2400 15.7300 -0.0133
47.2600 15.7367 -0.0117
47.2800 15.7434 -0.0231
47.3000 15.7501 -0.0087
47.3200 15.7567 -0.0108
47.3400 15.7634 -0.0260
47.3600 15.7701 -0.0106
47.3800 15.7767 -0.0143
47.4000 15.7834 -0.0190
47.4200 15.7900 -0.0069
47.4400 15.7967 -0.0151
47.4600 15.8034 -0.0219
47.4800 15.8101 -0.0063
47.5000 15.8168 -0.0170
47.5200 15.8235 -0.0199
47.5400 15.8301 -0.0094
47.5600 15.8367 -0.0188
47.5800 15.8433 -0.0183
47.6000 15.8500 -0.0055
47.6200 15.8567 -0.0230
47.6400 15.8635 -0.0166
47.6600 15.8702 -0.0047
47.6800 15.8768 -0.0204
47.7000 15.8835 -0.0190
47.7200 15.8901 -0.0105
47.7400 15.8967 -0.0192
47.7600 15.9034 -0.0177
47.7800 15.9100 -0.0074
47.8000 15.9167 -0.0208
47.8200 15.9234 -0.0230
47.8400 15.9301 -0.0045
47.8600 15.9368 -0.0202
47.8800 15.9435 -0.0204
47.9000 15.9501 -0.0046
47.9200 15.9567 -0.0260
47.9400 15.9633 -0.0207
47.9600 15.9700 -0.0065
47.9800 15.9767 -0.0196
48.0000 15.9834 -0.0165
48.0200 15.9901 -0.0101
48.0400 15.9968 -0.0235
48.0600 16.0035 -0.0134
48.0800 16.0101 -0.0126
48.1000 16.0167 -0.0264
48.1200 16.0233 -0.0085
48.1400 16.0300 -0.0169
48.1600 16.0368 -0.0229
48.1800 16.0435 -0.0116
48.2000 16.0502 -0.0161
48.2200 16.0568 -0.0229
48.2400 16.0635 -0.0111
48.2600 16.0701 -0.0164
48.2800 16.0767 -0.0212
48.3000 16.0834 -0.0101
48.3200 16.0900 -0.0224
48.3400 16.0967 -0.0151
48.3600 16.1034 -0.0124
48.3800 16.1101 -0.0279
48.4000 16.1168 -0.0101
48.4200 16.1235 -0.0127
48.4400 16.1301 -0.0311
48.4600 16.1368 -0.0088
48.4800 16.1433 -0.0161
48.5000 16.1500 -0.0273
48.5200 16.1567 -0.0016
48.5400 16.1634 -0.0279
48.5600 16.1701 -0.0284
48.5800 16.1768 0.0006
48.6000 16.1835 -0.0277
48.6200 16.1901 -0.0250
48.6400 16.1967 -0.0012
48.6600 16.2033 -0.0332
48.6800 16.2100 -0.0172
48.7000 16.2167 -0.0023
48.7200 16.2234 -0.0325
48.7400 16.2301 -0.0122
48.7600 16.2368 -0.0121
48.7800 16.2434 -0.0371
48.8000 16.2501 -0.0124
48.8200 16.2567 -0.0107
48.8400 16.2633 -0.0372
48.8600 16.2700 -0.0073
48.8800 16.2767 -0.0179
48.9000 16.2834 -0.0338
48.9200 16.2901 -0.0075
48.9400 16.2968 -0.0169
48.9600 16.3035 -0.0290
48.9800 16.3102 -0.0129
49.0000 16.3168 -0.0253
49.0200 16.3234 -0.0253
49.0400 16.3300 -0.0060
49.0600 16.3367 -0.0264
49.0800 16.3434 -0.0272
49.1000 16.3501 -0.0108
49.1200 16.3568 -0.0300
49.1400 16.3635 -0.0194
49.1600 16.3701 -0.0124
49.1800 16.3767 -0.0313
49.2000 16.3833 -0.0174
49.2200 16.3900 -0.0148
49.2400 16.3967 -0.0280
49.2600 16.4034 -0.0189
49.2800 16.4101 -0.0227
49.3000 16.4167 -0.0273
49.3200 16.4234 -0.0175
49.3400 16.4301 -0.0252
49.3600 16.4367 -0.0238
49.3800 16.4433 -0.0160
49.4000 16.4500 -0.0236
49.4200 16.4567 -0.0285
49.4400 16.4634 -0.0168
49.4600 16.4701 -0.0234
49.4800 16.4768 -0.0267
49.5000 16.4835 -0.0163
49.5200 16.4901 -0.0291
49.5400 16.4968 -0.0264
49.5600 16.5034 -0.0194
49.5800 16.5100 -0.0251
49.6000 16.5167 -0.0245
49.6200 16.5234 -0.0215
49.6400 16.5301 -0.0294
49.6600 16.5368 -0.0234
49.6800 16.5435 -0.0233
49.7000 16.5502 -0.0263
49.7200 16.5568 -0.0236
49.7400 16.5634 -0.0229
49.7600 16.5700 -0.0283
49.7800 16.5767 -0.0245
49.8000 16.5834 -0.0218
49.8200 16.5901 -0.0325
49.8400 16.5968 -0.0218
49.8600 16.6035 -0.0255
49.8800 16.6102 -0.0293
49.9000 16.6168 -0.0231
49.9200 16.6234 -0.0238
49.9400 16.6300 -0.0269
49.9600 16.6367 -0.0270
49.9800 16.6434 -0.0248
50.0000 16.6501 -0.0277
50.0200 16.6568 -0.0253
50.0400 16.6635 -0.0212
50.0600 16.6702 -0.0325
50.0800 16.6768 -0.0271
50.1000 16.6833 -0.0267
50.1200 16.6900 -0.0271
50.1400 16.6967 -0.0260
50.1600 16.7034 -0.0259
50.1800 16.7101 -0.0323
50.2000 16.7168 -0.0251
50.2200 16.7234 -0.0266
50.2400 16.7301 -0.0315
50.2600 16.7367 -0.0251
50.2800 16.7433 -0.0300
50.3000 16.7500 -0.0331
50.3200 16.7567 -0.0272
50.3400 16.7634 -0.0242
50.3600 16.7701 -0.0348
50.3800 16.7768 -0.0250
50.4000 16.7835 -0.0293
50.4200 16.7902 -0.0349
50.4400 16.7968 -0.0262
50.4600 16.8034 -0.0275
50.4800 16.8100 -0.0320
50.5000 16.8167 -0.0246
50.5200 16.8234 -0.0286
50.5400 16.8301 -0.0344
50.5600 16.8368 -0.0244
50.5800 16.8435 -0.0263
50.6000 16.8502 -0.0377
50.6200 16.8568 -0.0243
50.6400 16.8634 -0.0255
50.6600 16.8700 -0.0323
50.6800 16.8767 -0.0243
50.7000 16.8834 -0.0298
50.7200 16.8901 -0.0325
50.7400 16.8968 -0.0264
50.7600 16.9034 -0.0244
50.7800 16.9101 -0.0374
50.8000 16.9168 -0.0255
50.8200 16.9234 -0.0266
50.8400 16.9300 -0.0363
50.8600 16.9367 -0.0259
50.8800 16.9434 -0.0268
50.9000 16.9501 -0.0336
50.9200 16.9567 -0.0302
50.9400 16.9634 -0.0273
50.9600 16.9701 -0.0351
50.9800 16.9768 -0.0270
51.0000 16.9834 -0.0246
51.0200 16.9900 -0.0379
51.0400 16.9967 -0.0268
51.0600 17.0034 -0.0253
51.0800 17.0101 -0.0385
51.1000 17.0168 -0.0256
51.1200 17.0235 -0.0307
51.1400 17.0302 -0.0350
51.1600 17.0368 -0.0299
51.1800 17.0434 -0.0340
51.2000 17.0500 -0.0325
51.2200 17.0567 -0.0248
51.2400 17.0634 -0.0368
51.2600 17.0701 -0.0359
51.2800 17.0768 -0.0260
51.3000 17.0835 -0.0337
51.3200 17.0901 -0.0338
51.3400 17.0968 -0.0279
51.3600 17.1034 -0.0360
51.3800 17.1100 -0.0325
51.4000 17.1167 -0.0314
51.4200 17.1234 -0.0327
51.4400 17.1301 -0.0323
51.4600 17.1368 -0.0335
51.4800 17.1434 -0.0377
51.5000 17.1501 -0.0353
51.5200 17.1568 -0.0309
51.5400 17.1634 -0.0378
51.5600 17.1700 -0.0298
51.5800 17.1766 -0.0342
51.6000 17.1834 -0.0387
51.6200 17.1901 -0.0300
51.6400 17.1968 -0.0353
51.6600 17.2035 -0.0338
51.6800 17.2102 -0.0317
51.7000 17.2168 -0.0408
51.7200 17.2234 -0.0355
51.7400 17.2300 -0.0265
51.7600 17.2367 -0.0352
51.7800 17.2434 -0.0383
51.8000 17.2501 -0.0322
51.8200 17.2568 -0.0366
51.8400 17.2635 -0.0351
51.8600 17.2701 -0.0307
51.8800 17.2768 -0.0425
51.9000 17.2834 -0.0289
51.9200 17.2900 -0.0368
51.9400 17.2967 -0.0401
51.9600 17.3034 -0.0294
51.9800 17.3101 -0.0375
52.0000 17.3168 -0.0398
52.0200 17.3235 -0.0313
52.0400 17.3302 -0.0400
52.0600 17.3368 -0.0374
52.0800 17.3434 -0.0312
52.1000 17.3500 -0.0408
52.1200 17.3567 -0.0356
52.1400 17.3634 -0.0303
52.1600 17.3701 -0.0380
52.1800 17.3768 -0.0391
52.2000 17.3834 -0.0328
52.2200 17.3901 -0.0400
52.2400 17.3968 -0.0385
52.2600 17.4034 -0.0328
52.2800 17.4100 -0.0391
52.3000 17.4166 -0.0411
52.3200 17.4233 -0.0303
52.3400 17.4300 -0.0408
52.3600 17.4367 -0.0420
52.3800 17.4434 -0.0329
52.4000 17.4501 -0.0437
52.4200 17.4568 -0.0362
52.4400 17.4634 -0.0347
52.4600 17.4700 -0.0426
52.4800 17.4767 -0.0352
52.5000 17.4834 -0.0364
52.5200 17.4901 -0.0417
52.5400 17.4968 -0.0335
52.5600 17.5035 -0.0366
52.5800 17.5102 -0.0439
52.6000 17.5168 -0.0349
52.6200 17.5234 -0.0395
52.6400 17.5300 -0.0439
52.6600 17.5367 -0.0291
52.6800 17.5434 -0.0420
52.7000 17.5501 -0.0415
52.7200 17.5568 -0.0315
52.7400 17.5635 -0.0446
52.7600 17.5702 -0.0403
52.7800 17.5768 -0.0338
52.8000 17.5834 -0.0440
52.8200 17.5900 -0.0383
52.8400 17.5967 -0.0341
52.8600 17.6034 -0.0440
52.8800 17.6101 -0.0392
52.9000 17.6168 -0.0326
52.9200 17.6234 -0.0450
52.9400 17.6301 -0.0364
52.9600 17.6368 -0.0398
52.9800 17.6434 -0.0443
53.0000 17.6500 -0.0326
53.0200 17.6567 -0.0417
53.0400 17.6634 -0.0403
53.0600 17.6701 -0.0345
53.0800 17.6768 -0.0397
53.1000 17.6834 -0.0433
53.1200 17.6901 -0.0333
53.1400 17.6968 -0.0399
53.1600 17.7034 -0.0437
53.1800 17.7100 -0.0339
53.2000 17.7167 -0.0373
53.2200 17.7234 -0.0408
53.2400 17.7301 -0.0364
53.2600 17.7368 -0.0393
53.2800 17.7435 -0.0389
53.3000 17.7502 -0.0377
53.3200 17.7568 -0.0412
53.3400 17.7634 -0.0371
53.3600 17.7700 -0.0374
53.3800 17.7767 -0.0364
53.4000 17.7834 -0.0399
53.4200 17.7901 -0.0387
53.4400 17.7968 -0.0395
53.4600 17.8035 -0.0431
53.4800 17.8101 -0.0425
53.5000 17.8168 -0.0364
53.5200 17.8234 -0.0407
53.5400 17.8300 -0.0407
53.5600 17.8367 -0.0364
53.5800 17.8434 -0.0419
53.6000 17.8500 -0.0445
53.6200 17.8567 -0.0354
53.6400 17.8634 -0.0410
53.6600 17.8701 -0.0354
53.6800 17.8768 -0.0397
53.7000 17.8834 -0.0465
53.7200 17.8900 -0.0306
53.7400 17.8966 -0.0393
53.7600 17.9033 -0.0450
53.7800 17.9101 -0.0370
53.8000 17.9168 -0.0380
53.8200 17.9234 -0.0470
53.8400 17.9301 -0.0385
53.8600 17.9368 -0.0410
53.8800 17.9434 -0.0467
53.9000 17.9500 -0.0382
53.9200 17.9567 -0.0410
53.9400 17.9634 -0.0469
53.9600 17.9701 -0.0365
53.9800 17.9768 -0.0430
54.0000 17.9835 -0.0441
54.0200 17.9901 -0.0362
54.0400 17.9968 -0.0426
54.0600 18.0034 -0.0451
54.0800 18.0100 -0.0388
54.1000 18.0167 -0.0400
54.1200 18.0233 -0.0464
54.1400 18.0301 -0.0362
54.1600 18.0368 -0.0422
54.1800 18.0435 -0.0456
54.2000 18.0501 -0.0369
54.2200 18.0568 -0.0431
54.2400 18.0634 -0.0518
54.2600 18.0700 -0.0348
54.2800 18.0767 -0.0394
54.3000 18.0834 -0.0495
54.3200 18.0901 -0.0392
54.3400 18.0968 -0.0435
54.3600 18.1035 -0.0441
54.3800 18.1101 -0.0396
54.4000 18.1168 -0.0453
54.4200 18.1234 -0.0422
54.4400 18.1300 -0.0406
54.4600 18.1366 -0.0469
54.4800 18.1433 -0.0483
54.5000 18.1500 -0.0411
54.5200 18.1567 -0.0427
54.5400 18.1634 -0.0479
54.5600 18.1701 -0.0425
54.5800 18.1768 -0.0465
54.6000 18.1834 -0.0486
54.6200 18.1900 -0.0472
54.6400 18.1966 -0.0438
54.6600 18.2033 -0.0425
54.6800 18.2101 -0.0509
54.7000 18.2168 -0.0464
54.7200 18.2235 -0.0446
54.7400 18.2302 -0.0554
54.7600 18.2369 -0.0453
54.7800 18.2435 -0.0500
54.8000 18.2501 -0.0492
54.8200 18.2567 -0.0429
54.8400 18.2634 -0.0519
54.8600 18.2701 -0.0460
54.8800 18.2768 -0.0506
54.9000 18.2835 -0.0477
54.9200 18.2901 -0.0452
54.9400 18.2968 -0.0527
54.9600 18.3034 -0.0546
54.9800 18.3100 -0.0426
55.0000 18.3167 -0.0516
55.0200 18.3234 -0.0526
55.0400 18.3301 -0.0440
55.0600 18.3367 -0.0552
55.0800 18.3434 -0.0482
55.1000 18.3501 -0.0445
55.1200 18.3568 -0.0597
55.1400 18.3634 -0.0480
55.1600 18.3700 -0.0475
55.1800 18.3766 -0.0563
55.2000 18.3833 -0.0487
55.2200 18.3900 -0.0491
55.2400 18.3967 -0.0557
55.2600 18.4034 -0.0454
55.2800 18.4101 -0.0493
55.3000 18.4168 -0.0569
55.3200 18.4234 -0.0437
55.3400 18.4300 -0.0542
55.3600 18.4367 -0.0501
55.3800 18.4434 -0.0481
55.4000 18.4501 -0.0566
55.4200 18.4568 -0.0435
55.4400 18.4635 -0.0526
55.4600 18.4701 -0.0572
55.4800 18.4768 -0.0438
55.5000 18.4835 -0.0603
55.5200 18.4901 -0.0532
55.5400 18.4967 -0.0398
55.5600 18.5034 -0.0594
55.5800 18.5101 -0.0553
55.6000 18.5168 -0.0422
55.6200 18.5234 -0.0577
55.6400 18.5301 -0.0507
55.6600 18.5368 -0.0415
55.6800 18.5435 -0.0625
55.7000 18.5501 -0.0463
55.7200 18.5567 -0.0435
55.7400 18.5633 -0.0587
55.7600 18.5701 -0.0448
55.7800 18.5768 -0.0520
55.8000 18.5834 -0.0603
55.8200 18.5901 -0.0376
55.8400 18.5968 -0.0576
55.8600 18.6034 -0.0630
55.8800 18.6100 -0.0404
55.9000 18.6166 -0.0548
55.9200 18.6233 -0.0592
55.9400 18.6300 -0.0422
55.9600 18.6367 -0.0577
55.9800 18.6434 -0.0519
56.0000 18.6501 -0.0472
56.0200 18.6568 -0.0616
56.0400 18.6635 -0.0474
56.0600 18.6701 -0.0461
56.0800 18.6767 -0.0621
56.1000 18.6834 -0.0466
56.1200 18.6901 -0.0511
56.1400 18.6968 -0.0601
56.1600 18.7035 -0.0442
56.1800 18.7102 -0.0549
56.2000 18.7169 -0.0625
56.2200 18.7235 -0.0488
56.2400 18.7301 -0.0552
56.2600 18.7367 -0.0557
56.2800 18.7433 -0.0460
56.3000 18.7501 -0.0589
56.3200 18.7568 -0.0535
56.3400 18.7635 -0.0520
56.3600 18.7702 -0.0587
56.3800 18.7768 -0.0493
56.4000 18.7835 -0.0575
56.4200 18.7901 -0.0598
56.4400 18.7967 -0.0505
56.4600 18.8034 -0.0519
56.4800 18.8101 -0.0591
56.5000 18.8168 -0.0506
56.5200 18.8234 -0.0592
56.5400 18.8301 -0.0556
56.5600 18.8368 -0.0495
56.5800 18.8434 -0.0578
56.6000 18.8500 -0.0568
56.6200 18.8566 -0.0450
56.6400 18.8633 -0.0593
56.6600 18.8700 -0.0531
56.6800 18.8767 -0.0520
56.7000 18.8834 -0.0563
56.7200 18.8901 -0.0517
56.7400 18.8968 -0.0517
56.7600 18.9035 -0.0581
56.7800 18.9101 -0.0477
56.8000 18.9167 -0.0515
56.8200 18.9233 -0.0615
56.8400 18.9301 -0.0532
56.8600 18.9368 -0.0481
56.8800 18.9435 -0.0502
56.9000 18.9502 -0.0586
56.9200 18.9568 -0.0584
56.9400 18.9635 -0.0455
56.9600 18.9701 -0.0528
56.9800 18.9767 -0.0609
57.0000 18.9834 -0.0440
57.0200 18.9901 -0.0564
57.0400 18.9968 -0.0603
57.0600 19.0034 -0.0432
57.0800 19.0101 -0.0524
57.1000 19.0168 -0.0627
57.1200 19.0235 -0.0442
57.1400 19.0301 -0.0580
57.1600 19.0367 -0.0595
57.1800 19.0433 -0.0369
57.2000 19.0500 -0.0590
57.2200 19.0567 -0.0610
57.2400 19.0634 -0.0429
57.2600 19.0701 -0.0600
57.2800 19.0768 -0.0576
57.3000 19.0835 -0.0431
57.3200 19.0901 -0.0625
57.3400 19.0966 -0.0513
57.3600 19.1033 -0.0410
57.3800 19.1100 -0.0634
57.4000 19.1167 -0.0516
57.4200 19.1234 -0.0404
57.4400 19.1301 -0.0624
57.4600 19.1368 -0.0526
57.4800 19.1434 -0.0546
57.5000 19.1501 -0.0552
57.5200 19.1567 -0.0532
57.5400 19.1633 -0.0591
57.5600 19.1701 -0.0500
57.5800 19.1768 -0.0527
57.6000 19.1835 -0.0615
57.6200 19.1901 -0.0559
57.6400 19.1968 -0.0483
57.6600 19.2035 -0.0584
57.6800 19.2101 -0.0540
57.7000 19.2167 -0.0497
57.7200 19.2234 -0.0580
57.7400 19.2301 -0.0531
57.7600 19.2368 -0.0485
57.7800 19.2435 -0.0602
57.8000 19.2502 -0.0496
57.8200 19.2569 -0.0508
57.8400 19.2635 -0.0593
57.8600 19.2701 -0.0527
57.8800 19.2767 -0.0501
57.9000 19.2833 -0.0527
57.9200 19.2900 -0.0507
57.9400 19.2967 -0.0542
57.9600 19.3034 -0.0540
57.9800 19.3101 -0.0495
58.0000 19.3168 -0.0548
58.0200 19.3235 -0.0503
58.0400 19.3301 -0.0504
58.0600 19.3367 -0.0533
58.0800 19.3433 -0.0520
58.1000 19.3500 -0.0518
58.1200 19.3567 -0.0519
58.1400 19.3634 -0.0523
58.1600 19.3701 -0.0546
58.1800 19.3768 -0.0512
58.2000 19.3834 -0.0503
58.2200 19.3901 -0.0549
58.2400 19.3967 -0.0526
58.2600 19.4034 -0.0460
58.2800 19.4100 -0.0561
58.3000 19.4167 -0.0533
58.3200 19.4234 -0.0482
58.3400 19.4301 -0.0565
58.3600 19.4368 -0.0491
58.3800 19.4435 -0.0539
58.4000 19.4501 -0.0575
58.4200 19.4567 -0.0477
58.4400 19.4633 -0.0492
58.4600 19.4700 -0.0583
58.4800 19.4768 -0.0474
58.5000 19.4835 -0.0549
58.5200 19.4901 -0.0618
58.5400 19.4968 -0.0505
58.5600 19.5035 -0.0570
58.5800 19.5101 -0.0585
58.6000 19.5167 -0.0523
58.6200 19.5233 -0.0581
58.6400 19.5300 -0.0556
58.6600 19.5368 -0.0595
58.6800 19.5434 -0.0573
58.7000 19.5501 -0.0549
58.7200 19.5568 -0.0556
58.7400 19.5635 -0.0613
58.7600 19.5701 -0.0606
58.7800 19.5767 -0.0529
58.8000 19.5833 -0.0591
58.8200 19.5900 -0.0600
58.8400 19.5967 -0.0558
58.8600 19.6034 -0.0590
58.8800 19.6101 -0.0606
58.9000 19.6168 -0.0601
58.9200 19.6234 -0.0684
58.9400 19.6300 -0.0578
58.9600 19.6367 -0.0553
58.9800 19.6433 -0.0657
59.0000 19.6500 -0.0626
59.0200 19.6568 -0.0612
59.0400 19.6635 -0.0706
59.0600 19.6701 -0.0598
59.0800 19.6768 -0.0578
59.1000 19.6835 -0.0678
59.1200 19.6901 -0.0639
59.1400 19.6968 -0.0655
59.1600 19.7034 -0.0678
59.1800 19.7101 -0.0661
59.2000 19.7168 -0.0676
59.2200 19.7235 -0.0708
59.2400 19.7301 -0.0695
59.2600 19.7368 -0.0715
59.2800 19.7435 -0.0668
59.3000 19.7501 -0.0840
