Raw Data
Time Displacement Force
(s) (mm) (N)
0.0000 0.0001 0.1316
0.0200 0.0001 0.1417
0.0400 0.0009 0.1697
0.0600 0.0042 0.1767
0.0800 0.0097 0.1375
0.1000 0.0154 0.1371
0.1200 0.0213 0.1596
0.1400 0.0280 0.1500
0.1600 0.0353 0.1394
0.1800 0.0428 0.1437
0.2000 0.0499 0.1387
0.2200 0.0568 0.1406
0.2400 0.0635 0.1485
0.2600 0.0701 0.1454
0.2800 0.0768 0.1495
0.3000 0.0835 0.1520
0.3200 0.0902 0.1428
0.3400 0.0970 0.1509
0.3600 0.1036 0.1516
0.3800 0.1103 0.1484
0.4000 0.1169 0.1604
0.4200 0.1236 0.1523
0.4400 0.1303 0.1518
0.4600 0.1370 0.1563
0.4800 0.1437 0.1557
0.5000 0.1504 0.1529
0.5200 0.1570 0.1610
0.5400 0.1637 0.1531
0.5600 0.1702 0.1576
0.5800 0.1769 0.1672
0.6000 0.1836 0.1631
0.6200 0.1903 0.1626
0.6400 0.1970 0.1650
0.6600 0.2037 0.1636
0.6800 0.2103 0.1749
0.7000 0.2170 0.1627
0.7200 0.2236 0.1675
0.7400 0.2302 0.1782
0.7600 0.2369 0.1675
0.7800 0.2436 0.1678
0.8000 0.2503 0.1793
0.8200 0.2569 0.1732
0.8400 0.2636 0.1731
0.8600 0.2703 0.1801
0.8800 0.2770 0.1699
0.9000 0.2836 0.1815
0.9200 0.2902 0.1801
0.9400 0.2968 0.1753
0.9600 0.3035 0.1829
0.9800 0.3102 0.1844
1.0000 0.3169 0.1774
1.0200 0.3236 0.1855
1.0400 0.3303 0.1800
1.0600 0.3369 0.1777
1.0800 0.3436 0.1855
1.1000 0.3502 0.1830
1.1200 0.3569 0.1780
1.1400 0.3636 0.1902
1.1600 0.3703 0.1795
1.1800 0.3770 0.1779
1.2000 0.3837 0.1883
1.2200 0.3903 0.1773
1.2400 0.3970 0.1839
1.2600 0.4037 0.1850
1.2800 0.4103 0.1772
1.3000 0.4169 0.1831
1.3200 0.4236 0.1826
1.3400 0.4303 0.1739
1.3600 0.4370 0.1873
1.3800 0.4437 0.1812
1.4000 0.4504 0.1713
1.4200 0.4570 0.1842
1.4400 0.4637 0.1799
1.4600 0.4703 0.1721
1.4800 0.4768 0.1847
1.5000 0.4835 0.1787
1.5200 0.4902 0.1672
1.5400 0.4969 0.1792
1.5600 0.5036 0.1757
1.5800 0.5103 0.1726
1.6000 0.5170 0.1781
1.6200 0.5236 0.1728
1.6400 0.5302 0.1722
1.6600 0.5368 0.1757
1.6800 0.5435 0.1743
1.7000 0.5503 0.1709
1.7200 0.5570 0.1734
1.7400 0.5636 0.1718
1.7600 0.5703 0.1662
1.7800 0.5770 0.1757
1.8000 0.5836 0.1725
1.8200 0.5903 0.1662
1.8400 0.5969 0.1668
1.8600 0.6036 0.1726
1.8800 0.6103 0.1670
1.9000 0.6170 0.1677
1.9200 0.6236 0.1720
1.9400 0.6303 0.1679
1.9600 0.6370 0.1654
1.9800 0.6437 0.1662
2.0000 0.6503 0.1663
2.0200 0.6569 0.1694
2.0400 0.6636 0.1704
2.0600 0.6703 0.1645
2.0800 0.6770 0.1598
2.1000 0.6837 0.1687
2.1200 0.6903 0.1667
2.1400 0.6970 0.1616
2.1600 0.7036 0.1688
2.1800 0.7102 0.1620
2.2000 0.7169 0.1608
2.2200 0.7236 0.1683
2.2400 0.7303 0.1631
2.2600 0.7370 0.1602
2.2800 0.7436 0.1715
2.3000 0.7503 0.1620
2.3200 0.7570 0.1620
2.3400 0.7636 0.1685
2.3600 0.7703 0.1652
2.3800 0.7769 0.1630
2.4000 0.7836 0.1717
2.4200 0.7902 0.1617
2.4400 0.7969 0.1613
2.4600 0.8036 0.1692
2.4800 0.8103 0.1643
2.5000 0.8170 0.1610
2.5200 0.8237 0.1694
2.5400 0.8303 0.1635
2.5600 0.8369 0.1630
2.5800 0.8436 0.1738
2.6000 0.8503 0.1627
2.6200 0.8570 0.1636
2.6400 0.8637 0.1698
2.6600 0.8704 0.1671
2.6800 0.8770 0.1614
2.7000 0.8837 0.1675
2.7200 0.8903 0.1634
2.7400 0.8969 0.1641
2.7600 0.9036 0.1683
2.7800 0.9103 0.1701
2.8000 0.9170 0.1621
2.8200 0.9237 0.1674
2.8400 0.9304 0.1645
2.8600 0.9370 0.1638
2.8800 0.9437 0.1652
2.9000 0.9503 0.1672
2.9200 0.9569 0.1595
2.9400 0.9635 0.1690
2.9600 0.9702 0.1667
2.9800 0.9769 0.1565
3.0000 0.9836 0.1720
3.0200 0.9903 0.1629
3.0400 0.9970 0.1547
3.0600 1.0037 0.1705
3.0800 1.0102 0.1622
3.1000 1.0168 0.1565
3.1200 1.0235 0.1704
3.1400 1.0302 0.1626
3.1600 1.0369 0.1598
3.1800 1.0436 0.1663
3.2000 1.0503 0.1594
3.2200 1.0570 0.1611
3.2400 1.0637 0.1692
3.2600 1.0703 0.1545
3.2800 1.0769 0.1648
3.3000 1.0836 0.1685
3.3200 1.0903 0.1561
3.3400 1.0970 0.1631
3.3600 1.1037 0.1645
3.3800 1.1103 0.1596
3.4000 1.1170 0.1668
3.4200 1.1237 0.1581
3.4400 1.1303 0.1613
3.4600 1.1369 0.1631
3.4800 1.1436 0.1592
3.5000 1.1503 0.1593
3.5200 1.1570 0.1679
3.5400 1.1637 0.1610
3.5600 1.1704 0.1575
3.5800 1.1770 0.1653
3.6000 1.1837 0.1556
3.6200 1.1903 0.1661
3.6400 1.1969 0.1631
3.6600 1.2035 0.1607
3.6800 1.2103 0.1612
3.7000 1.2170 0.1616
3.7200 1.2237 0.1602
3.7400 1.2303 0.1676
3.7600 1.2370 0.1571
3.7800 1.2437 0.1607
3.8000 1.2503 0.1616
3.8200 1.2569 0.1595
3.8400 1.2636 0.1660
3.8600 1.2703 0.1615
3.8800 1.2770 0.1553
3.9000 1.2836 0.1622
3.9200 1.2903 0.1632
3.9400 1.2970 0.1570
3.9600 1.3037 0.1617
3.9800 1.3103 0.1571
4.0000 1.3169 0.1599
4.0200 1.3235 0.1620
4.0400 1.3302 0.1589
4.0600 1.3369 0.1587
4.0800 1.3436 0.1623
4.1000 1.3503 0.1557
4.1200 1.3570 0.1591
4.1400 1.3637 0.1621
4.1600 1.3703 0.1557
4.1800 1.3769 0.1577
4.2000 1.3836 0.1635
4.2200 1.3903 0.1542
4.2400 1.3970 0.1645
4.2600 1.4037 0.1559
4.2800 1.4103 0.1554
4.3000 1.4170 0.1627
4.3200 1.4237 0.1579
4.3400 1.4303 0.1546
4.3600 1.4369 0.1612
4.3800 1.4436 0.1622
4.4000 1.4502 0.1569
4.4200 1.4569 0.1593
4.4400 1.4636 0.1600
4.4600 1.4703 0.1630
4.4800 1.4770 0.1575
4.5000 1.4837 0.1588
4.5200 1.4903 0.1601
4.5400 1.4969 0.1618
4.5600 1.5035 0.1595
4.5800 1.5102 0.1559
4.6000 1.5169 0.1549
4.6200 1.5236 0.1649
4.6400 1.5303 0.1557
4.6600 1.5370 0.1578
4.6800 1.5437 0.1638
4.7000 1.5503 0.1584
4.7200 1.5569 0.1546
4.7400 1.5635 0.1647
4.7600 1.5703 0.1590
4.7800 1.5770 0.1539
4.8000 1.5837 0.1615
4.8200 1.5904 0.1568
4.8400 1.5970 0.1559
4.8600 1.6037 0.1635
4.8800 1.6103 0.1528
4.9000 1.6169 0.1510
4.9200 1.6236 0.1675
4.9400 1.6303 0.1541
4.9600 1.6370 0.1534
4.9800 1.6437 0.1621
5.0000 1.6503 0.1549
5.0200 1.6570 0.1541
5.0400 1.6637 0.1613
5.0600 1.6703 0.1513
5.0800 1.6769 0.1570
5.1000 1.6835 0.1586
5.1200 1.6902 0.1534
5.1400 1.6969 0.1589
5.1600 1.7036 0.1605
5.1800 1.7103 0.1507
5.2000 1.7170 0.1576
5.2200 1.7237 0.1567
5.2400 1.7303 0.1484
5.2600 1.7369 0.1624
5.2800 1.7435 0.1509
5.3000 1.7502 0.1490
5.3200 1.7569 0.1579
5.3400 1.7636 0.1458
5.3600 1.7703 0.1500
5.3800 1.7769 0.1622
5.4000 1.7836 0.1461
5.4200 1.7903 0.1515
5.4400 1.7969 0.1576
5.4600 1.8036 0.1501
5.4800 1.8103 0.1543
5.5000 1.8170 0.1579
5.5200 1.8237 0.1443
5.5400 1.8303 0.1580
5.5600 1.8370 0.1562
5.5800 1.8437 0.1428
5.6000 1.8504 0.1530
5.6200 1.8569 0.1543
5.6400 1.8636 0.1451
5.6600 1.8702 0.1556
5.6800 1.8770 0.1487
5.7000 1.8837 0.1497
5.7200 1.8903 0.1541
5.7400 1.8970 0.1492
5.7600 1.9037 0.1522
5.7800 1.9103 0.1474
5.8000 1.9169 0.1482
5.8200 1.9235 0.1531
5.8400 1.9302 0.1503
5.8600 1.9369 0.1461
5.8800 1.9436 0.1552
5.9000 1.9503 0.1454
5.9200 1.9569 0.1466
5.9400 1.9636 0.1486
5.9600 1.9703 0.1450
5.9800 1.9769 0.1517
6.0000 1.9835 0.1506
6.0200 1.9902 0.1393
6.0400 1.9969 0.1538
6.0600 2.0036 0.1506
6.0800 2.0103 0.1409
6.1000 2.0170 0.1546
6.1200 2.0237 0.1463
6.1400 2.0303 0.1389
6.1600 2.0369 0.1546
6.1800 2.0435 0.1422
6.2000 2.0502 0.1443
6.2200 2.0569 0.1531
6.2400 2.0637 0.1394
6.2600 2.0704 0.1452
6.2800 2.0770 0.1493
6.3000 2.0837 0.1404
6.3200 2.0903 0.1430
6.3400 2.0969 0.1542
6.3600 2.1035 0.1438
6.3800 2.1102 0.1463
6.4000 2.1170 0.1482
6.4200 2.1237 0.1410
6.4400 2.1303 0.1449
6.4600 2.1370 0.1488
6.4800 2.1437 0.1402
6.5000 2.1504 0.1417
6.5200 2.1570 0.1467
6.5400 2.1636 0.1422
6.5600 2.1702 0.1452
6.5800 2.1769 0.1498
6.6000 2.1836 0.1369
6.6200 2.1903 0.1417
6.6400 2.1970 0.1486
6.6600 2.2037 0.1388
6.6800 2.2103 0.1441
6.7000 2.2169 0.1475
6.7200 2.2235 0.1385
6.7400 2.2302 0.1451
6.7600 2.2369 0.1523
6.7800 2.2436 0.1362
6.8000 2.2503 0.1449
6.8200 2.2570 0.1471
6.8400 2.2637 0.1381
6.8600 2.2703 0.1389
6.8800 2.2769 0.1480
6.9000 2.2836 0.1369
6.9200 2.2902 0.1418
6.9400 2.2969 0.1473
6.9600 2.3036 0.1357
6.9800 2.3103 0.1442
7.0000 2.3170 0.1452
7.0200 2.3237 0.1343
7.0400 2.3303 0.1445
7.0600 2.3370 0.1440
7.0800 2.3436 0.1378
7.1000 2.3502 0.1399
7.1200 2.3569 0.1426
7.1400 2.3636 0.1377
7.1600 2.3703 0.1388
7.1800 2.3770 0.1425
7.2000 2.3837 0.1367
7.2200 2.3904 0.1398
7.2400 2.3969 0.1420
7.2600 2.4035 0.1361
7.2800 2.4102 0.1407
7.3000 2.4169 0.1428
7.3200 2.4237 0.1355
7.3400 2.4303 0.1395
7.3600 2.4370 0.1424
7.3800 2.4437 0.1368
7.4000 2.4503 0.1357
7.4200 2.4569 0.1460
7.4400 2.4635 0.1359
7.4600 2.4702 0.1391
7.4800 2.4769 0.1469
7.5000 2.4836 0.1377
7.5200 2.4903 0.1337
7.5400 2.4969 0.1512
7.5600 2.5036 0.1408
7.5800 2.5103 0.1338
7.6000 2.5170 0.1438
7.6200 2.5236 0.1380
7.6400 2.5302 0.1420
7.6600 2.5369 0.1401
7.6800 2.5436 0.1368
7.7000 2.5503 0.1422
7.7200 2.5570 0.1423
7.7400 2.5637 0.1360
7.7600 2.5704 0.1435
7.7800 2.5770 0.1390
7.8000 2.5836 0.1386
7.8200 2.5902 0.1367
7.8400 2.5969 0.1430
7.8600 2.6037 0.1390
7.8800 2.6104 0.1397
7.9000 2.6170 0.1397
7.9200 2.6237 0.1381
7.9400 2.6303 0.1376
7.9600 2.6369 0.1401
7.9800 2.6436 0.1387
8.0000 2.6502 0.1390
8.0200 2.6569 0.1387
8.0400 2.6636 0.1320
8.0600 2.6703 0.1415
8.0800 2.6770 0.1435
8.1000 2.6837 0.1347
8.1200 2.6903 0.1407
8.1400 2.6970 0.1365
8.1600 2.7035 0.1342
8.1800 2.7102 0.1472
8.2000 2.7169 0.1367
8.2200 2.7236 0.1338
8.2400 2.7303 0.1364
8.2600 2.7370 0.1395
8.2800 2.7437 0.1316
8.3000 2.7503 0.1412
8.3200 2.7569 0.1382
8.3400 2.7636 0.1329
8.3600 2.7702 0.1388
8.3800 2.7769 0.1350
8.4000 2.7836 0.1339
8.4200 2.7903 0.1421
8.4400 2.7970 0.1331
8.4600 2.8037 0.1351
8.4800 2.8104 0.1385
8.5000 2.8170 0.1348
8.5200 2.8236 0.1330
8.5400 2.8302 0.1360
8.5600 2.8369 0.1383
8.5800 2.8436 0.1314
8.6000 2.8503 0.1368
8.6200 2.8570 0.1328
8.6400 2.8637 0.1342
8.6600 2.8704 0.1353
8.6800 2.8770 0.1320
8.7000 2.8836 0.1340
8.7200 2.8902 0.1365
8.7400 2.8969 0.1283
8.7600 2.9036 0.1330
8.7800 2.9103 0.1328
8.8000 2.9170 0.1321
8.8200 2.9237 0.1370
8.8400 2.9303 0.1355
8.8600 2.9369 0.1274
8.8800 2.9435 0.1394
8.9000 2.9502 0.1358
8.9200 2.9569 0.1284
8.9400 2.9636 0.1410
8.9600 2.9702 0.1315
8.9800 2.9769 0.1337
9.0000 2.9836 0.1360
9.0200 2.9903 0.1313
9.0400 2.9970 0.1324
9.0600 3.0036 0.1388
9.0800 3.0102 0.1289
9.1000 3.0169 0.1325
9.1200 3.0236 0.1414
9.1400 3.0303 0.1299
9.1600 3.0370 0.1320
9.1800 3.0437 0.1423
9.2000 3.0504 0.1240
9.2200 3.0570 0.1376
9.2400 3.0636 0.1357
9.2600 3.0702 0.1314
9.2800 3.0769 0.1373
9.3000 3.0836 0.1347
9.3200 3.0904 0.1288
9.3400 3.0970 0.1360
9.3600 3.1037 0.1366
9.3800 3.1104 0.1257
9.4000 3.1170 0.1367
9.4200 3.1236 0.1369
9.4400 3.1302 0.1305
9.4600 3.1369 0.1357
9.4800 3.1436 0.1303
9.5000 3.1503 0.1314
9.5200 3.1570 0.1373
9.5400 3.1637 0.1295
9.5600 3.1703 0.1374
9.5800 3.1770 0.1308
9.6000 3.1836 0.1348
9.6200 3.1902 0.1351
9.6400 3.1969 0.1360
9.6600 3.2036 0.1321
9.6800 3.2103 0.1356
9.7000 3.2169 0.1330
9.7200 3.2236 0.1380
9.7400 3.2303 0.1324
9.7600 3.2370 0.1262
9.7800 3.2436 0.1353
9.8000 3.2502 0.1364
9.8200 3.2569 0.1266
9.8400 3.2636 0.1330
9.8600 3.2703 0.1344
9.8800 3.2770 0.1287
9.9000 3.2837 0.1367
9.9200 3.2904 0.1374
9.9400 3.2970 0.1278
9.9600 3.3036 0.1343
9.9800 3.3102 0.1330
10.0000 3.3169 0.1270
10.0200 3.3237 0.1373
10.0400 3.3304 0.1297
10.0600 3.3370 0.1286
10.0800 3.3437 0.1355
10.1000 3.3503 0.1290
10.1200 3.3570 0.1298
10.1400 3.3636 0.1429
10.1600 3.3702 0.1265
10.1800 3.3769 0.1281
10.2000 3.3836 0.1323
10.2200 3.3903 0.1297
10.2400 3.3969 0.1279
10.2600 3.4036 0.1390
10.2800 3.4103 0.1271
10.3000 3.4170 0.1240
10.3200 3.4236 0.1404
10.3400 3.4302 0.1237
10.3600 3.4369 0.1270
10.3800 3.4436 0.1393
10.4000 3.4503 0.1235
10.4200 3.4570 0.1246
10.4400 3.4636 0.1387
10.4600 3.4703 0.1250
10.4800 3.4770 0.1295
10.5000 3.4836 0.1328
10.5200 3.4902 0.1268
10.5400 3.4969 0.1283
10.5600 3.5036 0.1336
10.5800 3.5103 0.1280
10.6000 3.5170 0.1275
10.6200 3.5237 0.1319
10.6400 3.5304 0.1213
10.6600 3.5370 0.1259
10.6800 3.5436 0.1331
10.7000 3.5502 0.1253
10.7200 3.5569 0.1275
10.7400 3.5636 0.1315
10.7600 3.5703 0.1234
10.7800 3.5770 0.1273
10.8000 3.5837 0.1292
10.8200 3.5904 0.1220
10.8400 3.5970 0.1230
10.8600 3.6036 0.1274
10.8800 3.6102 0.1244
10.9000 3.6169 0.1288
10.9200 3.6236 0.1248
10.9400 3.6303 0.1232
10.9600 3.6370 0.1263
10.9800 3.6437 0.1305
11.0000 3.6503 0.1258
11.0200 3.6570 0.1264
11.0400 3.6636 0.1226
11.0600 3.6702 0.1272
11.0800 3.6769 0.1222
11.1000 3.6836 0.1214
11.1200 3.6903 0.1272
11.1400 3.6969 0.1251
11.1600 3.7036 0.1224
11.1800 3.7103 0.1253
11.2000 3.7170 0.1239
11.2200 3.7236 0.1199
11.2400 3.7302 0.1284
11.2600 3.7369 0.1268
11.2800 3.7436 0.1218
11.3000 3.7503 0.1254
11.3200 3.7570 0.1277
11.3400 3.7637 0.1183
11.3600 3.7704 0.1265
11.3800 3.7771 0.1240
11.4000 3.7836 0.1236
11.4200 3.7902 0.1235
11.4400 3.7969 0.1273
11.4600 3.8036 0.1222
11.4800 3.8103 0.1191
11.5000 3.8170 0.1228
11.5200 3.8237 0.1235
11.5400 3.8304 0.0996
11.5600 3.8370 0.1306
11.5800 3.8436 0.1383
11.6000 3.8502 0.1118
11.6200 3.8569 0.1246
11.6400 3.8636 0.1251
11.6600 3.8703 0.1173
11.6800 3.8769 0.1200
11.7000 3.8836 0.1277
11.7200 3.8903 0.1275
11.7400 3.8970 0.1272
11.7600 3.9036 0.1206
11.7800 3.9102 0.1198
11.8000 3.9168 0.1207
11.8200 3.9235 0.1201
11.8400 3.9303 0.1174
11.8600 3.9370 0.1253
11.8800 3.9436 0.1189
11.9000 3.9503 0.1215
11.9200 3.9570 0.1196
11.9400 3.9636 0.1160
11.9600 3.9702 0.1160
11.9800 3.9769 0.1262
12.0000 3.9836 0.1274
12.0200 3.9903 0.1210
12.0400 3.9970 0.1258
12.0600 4.0037 0.1210
12.0800 4.0104 0.1156
12.1000 4.0170 0.1246
12.1200 4.0236 0.1228
12.1400 4.0303 0.1235
12.1600 4.0369 0.1290
12.1800 4.0436 0.1167
12.2000 4.0503 0.1234
12.2200 4.0570 0.1239
12.2400 4.0637 0.1198
12.2600 4.0704 0.1202
12.2800 4.0770 0.1198
12.3000 4.0836 0.1175
12.3200 4.0902 0.1259
12.3400 4.0969 0.1163
12.3600 4.1036 0.1195
12.3800 4.1103 0.1274
12.4000 4.1170 0.1180
12.4200 4.1237 0.1142
12.4400 4.1303 0.1235
12.4600 4.1370 0.1191
12.4800 4.1436 0.1229
12.5000 4.1502 0.1251
12.5200 4.1569 0.1236
12.5400 4.1636 0.1183
12.5600 4.1703 0.1128
12.5800 4.1770 0.1183
12.6000 4.1836 0.1252
12.6200 4.1903 0.1176
12.6400 4.1970 0.1181
12.6600 4.2036 0.1203
12.6800 4.2103 0.1149
12.7000 4.2169 0.1274
12.7200 4.2236 0.1174
12.7400 4.2303 0.1176
12.7600 4.2370 0.1289
12.7800 4.2437 0.1147
12.8000 4.2504 0.1147
12.8200 4.2570 0.1266
12.8400 4.2636 0.1158
12.8600 4.2702 0.1183
12.8800 4.2769 0.1271
12.9000 4.2836 0.1126
12.9200 4.2903 0.1199
12.9400 4.2970 0.1282
12.9600 4.3037 0.1101
12.9800 4.3104 0.1232
13.0000 4.3170 0.1244
13.0200 4.3236 0.1058
13.0400 4.3302 0.1233
13.0600 4.3369 0.1258
13.0800 4.3436 0.1152
13.1000 4.3503 0.1174
13.1200 4.3570 0.1192
13.1400 4.3636 0.1101
13.1600 4.3703 0.1186
13.1800 4.3770 0.1200
13.2000 4.3836 0.1122
13.2200 4.3902 0.1202
13.2400 4.3968 0.1188
13.2600 4.4035 0.1136
13.2800 4.4102 0.1205
13.3000 4.4170 0.1168
13.3200 4.4236 0.1208
13.3400 4.4304 0.1149
13.3600 4.4370 0.1161
13.3800 4.4436 0.1191
13.4000 4.4502 0.1131
13.4200 4.4569 0.1208
13.4400 4.4636 0.1201
13.4600 4.4703 0.1147
13.4800 4.4770 0.1138
13.5000 4.4837 0.1211
13.5200 4.4904 0.1112
13.5400 4.4970 0.1163
13.5600 4.5037 0.1196
13.5800 4.5103 0.1119
13.6000 4.5169 0.1195
13.6200 4.5236 0.1172
13.6400 4.5303 0.1093
13.6600 4.5370 0.1240
13.6800 4.5436 0.1172
13.7000 4.5503 0.1132
13.7200 4.5570 0.1174
13.7400 4.5636 0.1141
13.7600 4.5702 0.1129
13.7800 4.5768 0.1282
13.8000 4.5835 0.1082
13.8200 4.5903 0.1107
13.8400 4.5970 0.1248
13.8600 4.6036 0.1081
13.8800 4.6103 0.1181
13.9000 4.6170 0.1225
13.9200 4.6237 0.1103
13.9400 4.6302 0.1186
13.9600 4.6368 0.1178
13.9800 4.6435 0.1067
14.0000 4.6503 0.1196
14.0200 4.6570 0.1204
14.0400 4.6637 0.1100
14.0600 4.6703 0.1163
14.0800 4.6770 0.1206
14.1000 4.6836 0.1065
14.1200 4.6902 0.1188
14.1400 4.6969 0.1204
14.1600 4.7036 0.1138
14.1800 4.7103 0.1151
14.2000 4.7170 0.1182
14.2200 4.7237 0.1074
14.2400 4.7304 0.1171
14.2600 4.7370 0.1220
14.2800 4.7437 0.1100
14.3000 4.7503 0.1135
14.3200 4.7569 0.1240
14.3400 4.7636 0.1122
14.3600 4.7703 0.1131
14.3800 4.7770 0.1198
14.4000 4.7837 0.1132
14.4200 4.7904 0.1159
14.4400 4.7971 0.1159
14.4600 4.8037 0.1114
14.4800 4.8103 0.1148
14.5000 4.8169 0.1222
14.5200 4.8235 0.1086
14.5400 4.8303 0.1117
14.5600 4.8370 0.1189
14.5800 4.8436 0.1128
14.6000 4.8503 0.1134
14.6200 4.8570 0.1145
14.6400 4.8636 0.1110
14.6600 4.8702 0.1110
14.6800 4.8769 0.1120
14.7000 4.8836 0.1122
14.7200 4.8903 0.1102
14.7400 4.8969 0.1232
14.7600 4.9036 0.1106
14.7800 4.9103 0.1112
14.8000 4.9170 0.1241
14.8200 4.9236 0.1056
14.8400 4.9303 0.1103
14.8600 4.9369 0.1193
14.8800 4.9436 0.1120
14.9000 4.9503 0.1067
14.9200 4.9570 0.1155
14.9400 4.9636 0.1127
14.9600 4.9704 0.1129
14.9800 4.9770 0.1164
15.0000 4.9837 0.1077
15.0200 4.9903 0.1088
15.0400 4.9969 0.1226
15.0600 5.0035 0.1063
15.0800 5.0103 0.1095
15.1000 5.0170 0.1137
15.1200 5.0237 0.1079
15.1400 5.0304 0.1125
15.1600 5.0370 0.1132
15.1800 5.0437 0.1029
15.2000 5.0503 0.1146
15.2200 5.0569 0.1213
15.2400 5.0636 0.1014
15.2600 5.0703 0.1108
15.2800 5.0770 0.1135
15.3000 5.0837 0.1047
15.3200 5.0903 0.1117
15.3400 5.0970 0.1127
15.3600 5.1037 0.1044
15.3800 5.1102 0.1114
15.4000 5.1168 0.1100
15.4200 5.1235 0.1092
15.4400 5.1302 0.1133
15.4600 5.1369 0.1121
15.4800 5.1436 0.1051
15.5000 5.1503 0.1128
15.5200 5.1570 0.1059
15.5400 5.1636 0.1104
15.5600 5.1702 0.1087
15.5800 5.1769 0.1069
15.6000 5.1836 0.1114
15.6200 5.1903 0.1084
15.6400 5.1970 0.1016
15.6600 5.2037 0.1168
15.6800 5.2104 0.1063
15.7000 5.2171 0.1011
15.7200 5.2237 0.1046
15.7400 5.2303 0.1062
15.7600 5.2370 0.1077
15.7800 5.2436 0.1104
15.8000 5.2503 0.1057
15.8200 5.2570 0.1017
15.8400 5.2637 0.1124
15.8600 5.2704 0.1015
15.8800 5.2770 0.1044
15.9000 5.2837 0.1099
15.9200 5.2903 0.1092
15.9400 5.2969 0.1044
15.9600 5.3035 0.1077
15.9800 5.3102 0.1072
16.0000 5.3170 0.1056
16.0200 5.3236 0.1069
16.0400 5.3303 0.1044
16.0600 5.3370 0.1003
16.0800 5.3436 0.1115
16.1000 5.3502 0.1055
16.1200 5.3569 0.0985
16.1400 5.3635 0.1123
16.1600 5.3703 0.1086
16.1800 5.3770 0.0973
16.2000 5.3836 0.1084
16.2200 5.3903 0.1031
16.2400 5.3970 0.0967
16.2600 5.4036 0.1088
16.2800 5.4103 0.0972
16.3000 5.4169 0.1007
16.3200 5.4236 0.1138
16.3400 5.4303 0.0996
16.3600 5.4370 0.0959
16.3800 5.4437 0.1152
16.4000 5.4503 0.1022
16.4200 5.4570 0.0982
16.4400 5.4637 0.1022
16.4600 5.4703 0.1002
16.4800 5.4769 0.1006
16.5000 5.4835 0.1060
16.5200 5.4903 0.1013
16.5400 5.4970 0.1013
16.5600 5.5037 0.1033
16.5800 5.5103 0.1000
16.6000 5.5170 0.0980
16.6200 5.5237 0.1034
16.6400 5.5303 0.1046
16.6600 5.5369 0.0969
16.6800 5.5435 0.1022
16.7000 5.5503 0.1066
16.7200 5.5570 0.0983
16.7400 5.5636 0.0976
16.7600 5.5703 0.1051
16.7800 5.5770 0.0970
16.8000 5.5837 0.0984
16.8200 5.5903 0.1041
16.8400 5.5969 0.1001
16.8600 5.6035 0.1026
16.8800 5.6102 0.1022
16.9000 5.6169 0.0954
16.9200 5.6236 0.1048
16.9400 5.6303 0.1038
16.9600 5.6370 0.0995
16.9800 5.6437 0.0987
17.0000 5.6503 0.1068
17.0200 5.6569 0.0945
17.0400 5.6636 0.1035
17.0600 5.6703 0.1052
17.0800 5.6770 0.0929
17.1000 5.6837 0.1047
17.1200 5.6904 0.1029
17.1400 5.6970 0.0966
17.1600 5.7037 0.1066
17.1800 5.7103 0.1084
17.2000 5.7169 0.0918
17.2200 5.7236 0.1053
17.2400 5.7303 0.1074
17.2600 5.7370 0.0941
17.2800 5.7437 0.1022
17.3000 5.7504 0.1054
17.3200 5.7570 0.0970
17.3400 5.7637 0.1042
17.3600 5.7703 0.0996
17.3800 5.7769 0.1013
17.4000 5.7835 0.1002
17.4200 5.7902 0.1031
17.4400 5.7969 0.0988
17.4600 5.8036 0.0982
17.4800 5.8103 0.1031
17.5000 5.8170 0.1006
17.5200 5.8237 0.0975
17.5400 5.8303 0.1028
17.5600 5.8369 0.0993
17.5800 5.8435 0.1005
17.6000 5.8502 0.1053
17.6200 5.8569 0.0961
17.6400 5.8636 0.0982
17.6600 5.8703 0.1060
17.6800 5.8770 0.0958
17.7000 5.8837 0.0961
17.7200 5.8903 0.1089
17.7400 5.8969 0.0967
17.7600 5.9036 0.0986
17.7800 5.9103 0.1040
17.8000 5.9170 0.0966
17.8200 5.9237 0.0976
17.8400 5.9303 0.1056
17.8600 5.9371 0.0929
17.8800 5.9437 0.1054
17.9000 5.9504 0.1032
17.9200 5.9570 0.0885
17.9400 5.9636 0.1023
17.9600 5.9703 0.1060
17.9800 5.9770 0.0906
18.0000 5.9837 0.1033
18.0200 5.9904 0.0973
18.0400 5.9970 0.0951
18.0600 6.0037 0.1008
18.0800 6.0103 0.0939
18.1000 6.0169 0.1008
18.1200 6.0235 0.1043
18.1400 6.0302 0.0968
18.1600 6.0370 0.0941
18.1800 6.0436 0.1030
18.2000 6.0503 0.0963
18.2200 6.0570 0.0938
18.2400 6.0637 0.0974
18.2600 6.0703 0.0968
18.2800 6.0769 0.0956
18.3000 6.0836 0.1001
18.3200 6.0902 0.0926
18.3400 6.0969 0.1018
18.3600 6.1036 0.0972
18.3800 6.1103 0.0971
18.4000 6.1170 0.0993
18.4200 6.1237 0.0952
18.4400 6.1303 0.0934
18.4600 6.1369 0.0950
18.4800 6.1436 0.0985
18.5000 6.1502 0.0949
18.5200 6.1569 0.0972
18.5400 6.1637 0.0960
18.5600 6.1703 0.0963
18.5800 6.1770 0.0998
18.6000 6.1837 0.0942
18.6200 6.1903 0.0920
18.6400 6.1969 0.0995
18.6600 6.2036 0.0938
18.6800 6.2103 0.0939
18.7000 6.2170 0.0905
18.7200 6.2237 0.1004
18.7400 6.2304 0.0937
18.7600 6.2370 0.0886
18.7800 6.2437 0.0955
18.8000 6.2503 0.0921
18.8200 6.2569 0.0929
18.8400 6.2636 0.0985
18.8600 6.2703 0.0906
18.8800 6.2769 0.0934
18.9000 6.2836 0.0962
18.9200 6.2903 0.0862
18.9400 6.2970 0.0895
18.9600 6.3037 0.0970
18.9800 6.3103 0.0875
19.0000 6.3169 0.0931
19.0200 6.3235 0.1012
19.0400 6.3302 0.0870
19.0600 6.3369 0.0956
19.0800 6.3436 0.0937
19.1000 6.3503 0.0920
19.1200 6.3570 0.0948
19.1400 6.3636 0.0900
19.1600 6.3703 0.0915
19.1800 6.3769 0.0970
19.2000 6.3836 0.0912
19.2200 6.3903 0.0927
19.2400 6.3970 0.0944
19.2600 6.4037 0.0916
19.2800 6.4104 0.0928
19.3000 6.4170 0.0923
19.3200 6.4237 0.0875
19.3400 6.4303 0.0936
19.3600 6.4369 0.0910
19.3800 6.4436 0.0960
19.4000 6.4503 0.0934
19.4200 6.4569 0.0862
19.4400 6.4636 0.0905
19.4600 6.4703 0.0976
19.4800 6.4770 0.0920
19.5000 6.4837 0.0910
19.5200 6.4903 0.0890
19.5400 6.4969 0.0904
19.5600 6.5035 0.0966
19.5800 6.5102 0.0851
19.6000 6.5169 0.0906
19.6200 6.5236 0.0936
19.6400 6.5303 0.0888
19.6600 6.5370 0.0875
19.6800 6.5437 0.0994
19.7000 6.5503 0.0810
19.7200 6.5569 0.0892
19.7400 6.5635 0.0956
19.7600 6.5702 0.0873
19.7800 6.5769 0.0924
19.8000 6.5836 0.0949
19.8200 6.5903 0.0866
19.8400 6.5969 0.0910
19.8600 6.6036 0.0930
19.8800 6.6103 0.0832
19.9000 6.6169 0.0960
19.9200 6.6235 0.0923
19.9400 6.6302 0.0834
19.9600 6.6369 0.0922
19.9800 6.6436 0.0872
20.0000 6.6503 0.0841
20.0200 6.6570 0.0951
20.0400 6.6637 0.0875
20.0600 6.6704 0.0817
20.0800 6.6770 0.0937
20.1000 6.6836 0.0914
20.1200 6.6903 0.0842
20.1400 6.6970 0.0968
20.1600 6.7037 0.0840
20.1800 6.7104 0.0848
20.2000 6.7171 0.0959
20.2200 6.7237 0.0870
20.2400 6.7303 0.0839
20.2600 6.7369 0.0968
20.2800 6.7435 0.0852
20.3000 6.7502 0.0836
20.3200 6.7569 0.0962
20.3400 6.7636 0.0858
20.3600 6.7703 0.0823
20.3800 6.7770 0.0988
20.4000 6.7837 0.0809
20.4200 6.7903 0.0855
20.4400 6.7969 0.0996
20.4600 6.8035 0.0798
20.4800 6.8102 0.0880
20.5000 6.8169 0.0970
20.5200 6.8236 0.0824
20.5400 6.8303 0.0862
20.5600 6.8370 0.0959
20.5800 6.8437 0.0812
20.6000 6.8504 0.0889
20.6200 6.8570 0.0939
20.6400 6.8636 0.0818
20.6600 6.8702 0.0898
20.6800 6.8769 0.0946
20.7000 6.8837 0.0731
20.7200 6.8904 0.0900
20.7400 6.8970 0.0974
20.7600 6.9037 0.0783
20.7800 6.9104 0.0874
20.8000 6.9169 0.0962
20.8200 6.9235 0.0817
20.8400 6.9302 0.0869
20.8600 6.9369 0.0942
20.8800 6.9437 0.0821
20.9000 6.9503 0.0880
20.9200 6.9570 0.0875
20.9400 6.9637 0.0872
20.9600 6.9704 0.0853
20.9800 6.9770 0.0905
21.0000 6.9836 0.0817
21.0200 6.9902 0.0863
21.0400 6.9969 0.0908
21.0600 7.0036 0.0820
21.0800 7.0103 0.0827
21.1000 7.0170 0.0967
21.1200 7.0237 0.0821
21.1400 7.0303 0.0841
21.1600 7.0369 0.0863
21.1800 7.0435 0.0863
21.2000 7.0502 0.0860
21.2200 7.0569 0.0894
21.2400 7.0636 0.0841
21.2600 7.0703 0.0806
21.2800 7.0769 0.0886
21.3000 7.0836 0.0873
21.3200 7.0903 0.0860
21.3400 7.0969 0.0866
21.3600 7.1035 0.0824
21.3800 7.1102 0.0831
21.4000 7.1169 0.0855
21.4200 7.1236 0.0812
21.4400 7.1303 0.0808
21.4600 7.1370 0.0891
21.4800 7.1437 0.0865
21.5000 7.1504 0.0729
21.5200 7.1570 0.0873
21.5400 7.1636 0.0843
21.5600 7.1702 0.0778
21.5800 7.1769 0.0866
21.6000 7.1836 0.0836
21.6200 7.1903 0.0804
21.6400 7.1970 0.0860
21.6600 7.2037 0.0821
21.6800 7.2104 0.0828
21.7000 7.2170 0.0871
21.7200 7.2236 0.0754
21.7400 7.2302 0.0805
21.7600 7.2369 0.0874
21.7800 7.2436 0.0797
21.8000 7.2503 0.0781
21.8200 7.2570 0.0861
21.8400 7.2637 0.0813
21.8600 7.2703 0.0745
21.8800 7.2769 0.0792
21.9000 7.2836 0.0833
21.9200 7.2902 0.0728
21.9400 7.2969 0.0849
21.9600 7.3036 0.0808
21.9800 7.3103 0.0721
22.0000 7.3169 0.0842
22.0200 7.3236 0.0818
22.0400 7.3303 0.0734
22.0600 7.3369 0.0855
22.0800 7.3436 0.0783
22.1000 7.3502 0.0736
22.1200 7.3569 0.0843
22.1400 7.3636 0.0746
22.1600 7.3703 0.0734
22.1800 7.3770 0.0809
22.2000 7.3837 0.0754
22.2200 7.3904 0.0766
22.2400 7.3970 0.0848
22.2600 7.4036 0.0737
22.2800 7.4102 0.0772
22.3000 7.4169 0.0832
22.3200 7.4237 0.0775
22.3400 7.4304 0.0771
22.3600 7.4370 0.0825
22.3800 7.4437 0.0755
22.4000 7.4503 0.0772
22.4200 7.4570 0.0758
22.4400 7.4636 0.0780
22.4600 7.4702 0.0840
22.4800 7.4769 0.0805
22.5000 7.4836 0.0712
22.5200 7.4903 0.0806
22.5400 7.4970 0.0782
22.5600 7.5037 0.0783
22.5800 7.5103 0.0799
22.6000 7.5170 0.0773
22.6200 7.5236 0.0795
22.6400 7.5302 0.0777
22.6600 7.5369 0.0753
22.6800 7.5436 0.0773
22.7000 7.5503 0.0840
22.7200 7.5570 0.0761
22.7400 7.5637 0.0744
22.7600 7.5704 0.0780
22.7800 7.5770 0.0753
22.8000 7.5836 0.0758
22.8200 7.5902 0.0860
22.8400 7.5969 0.0726
22.8600 7.6036 0.0772
22.8800 7.6103 0.0809
22.9000 7.6170 0.0756
22.9200 7.6237 0.0757
22.9400 7.6304 0.0807
22.9600 7.6370 0.0685
22.9800 7.6436 0.0731
23.0000 7.6502 0.0801
23.0200 7.6569 0.0746
23.0400 7.6636 0.0761
23.0600 7.6703 0.0807
23.0800 7.6770 0.0720
23.1000 7.6837 0.0796
23.1200 7.6904 0.0770
23.1400 7.6970 0.0683
23.1600 7.7036 0.0856
23.1800 7.7102 0.0733
23.2000 7.7169 0.0698
23.2200 7.7236 0.0802
23.2400 7.7303 0.0774
23.2600 7.7370 0.0684
23.2800 7.7437 0.0813
23.3000 7.7503 0.0716
23.3200 7.7569 0.0717
23.3400 7.7635 0.0809
23.3600 7.7702 0.0746
23.3800 7.7769 0.0704
23.4000 7.7836 0.0796
23.4200 7.7903 0.0727
23.4400 7.7969 0.0709
23.4600 7.8036 0.0789
23.4800 7.8103 0.0727
23.5000 7.8169 0.0690
23.5200 7.8236 0.0805
23.5400 7.8302 0.0729
23.5600 7.8369 0.0735
23.5800 7.8436 0.0797
23.6000 7.8503 0.0675
23.6200 7.8570 0.0742
23.6400 7.8637 0.0766
23.6600 7.8704 0.0707
23.6800 7.8770 0.0750
23.7000 7.8836 0.0804
23.7200 7.8902 0.0705
23.7400 7.8969 0.0795
23.7600 7.9036 0.0735
23.7800 7.9104 0.0737
23.8000 7.9170 0.0741
23.8200 7.9237 0.0765
23.8400 7.9304 0.0688
23.8600 7.9370 0.0774
23.8800 7.9436 0.0756
23.9000 7.9502 0.0751
23.9200 7.9569 0.0739
23.9400 7.9636 0.0725
23.9600 7.9703 0.0744
23.9800 7.9770 0.0708
24.0000 7.9836 0.0734
24.0200 7.9903 0.0737
24.0400 7.9970 0.0700
24.0600 8.0036 0.0739
24.0800 8.0102 0.0747
24.1000 8.0169 0.0716
24.1200 8.0236 0.0740
24.1400 8.0303 0.0723
24.1600 8.0370 0.0704
24.1800 8.0436 0.0733
24.2000 8.0503 0.0753
24.2200 8.0570 0.0639
24.2400 8.0636 0.0732
24.2600 8.0702 0.0756
24.2800 8.0769 0.0659
24.3000 8.0836 0.0696
24.3200 8.0903 0.0757
24.3400 8.0970 0.0643
24.3600 8.1037 0.0734
24.3800 8.1104 0.0711
24.4000 8.1170 0.0679
24.4200 8.1236 0.0756
24.4400 8.1302 0.0736
24.4600 8.1369 0.0684
24.4800 8.1436 0.0715
24.5000 8.1503 0.0750
24.5200 8.1570 0.0654
24.5400 8.1637 0.0703
24.5600 8.1704 0.0719
24.5800 8.1770 0.0733
24.6000 8.1836 0.0646
24.6200 8.1902 0.0747
24.6400 8.1969 0.0729
24.6600 8.2036 0.0645
24.6800 8.2103 0.0696
24.7000 8.2170 0.0725
24.7200 8.2236 0.0676
24.7400 8.2303 0.0708
24.7600 8.2370 0.0687
24.7800 8.2436 0.0685
24.8000 8.2502 0.0711
24.8200 8.2569 0.0722
24.8400 8.2636 0.0646
24.8600 8.2703 0.0713
24.8800 8.2770 0.0714
24.9000 8.2836 0.0677
24.9200 8.2903 0.0725
24.9400 8.2970 0.0642
24.9600 8.3036 0.0733
24.9800 8.3102 0.0755
25.0000 8.3169 0.0641
25.0200 8.3236 0.0669
25.0400 8.3303 0.0754
25.0600 8.3370 0.0651
25.0800 8.3437 0.0711
25.1000 8.3504 0.0737
25.1200 8.3570 0.0641
25.1400 8.3636 0.0699
25.1600 8.3702 0.0762
25.1800 8.3769 0.0638
25.2000 8.3836 0.0745
25.2200 8.3903 0.0731
25.2400 8.3970 0.0617
25.2600 8.4037 0.0717
25.2800 8.4104 0.0712
25.3000 8.4170 0.0688
25.3200 8.4236 0.0745
25.3400 8.4302 0.0668
25.3600 8.4369 0.0686
25.3800 8.4436 0.0749
25.4000 8.4503 0.0665
25.4200 8.4570 0.0702
25.4400 8.4637 0.0721
25.4600 8.4703 0.0696
25.4800 8.4770 0.0668
25.5000 8.4836 0.0702
25.5200 8.4902 0.0686
25.5400 8.4968 0.0743
25.5600 8.5035 0.0690
25.5800 8.5103 0.0610
25.6000 8.5169 0.0754
25.6200 8.5236 0.0696
25.6400 8.5303 0.0621
25.6600 8.5370 0.0715
25.6800 8.5436 0.0668
25.7000 8.5502 0.0688
25.7200 8.5569 0.0675
25.7400 8.5636 0.0674
25.7600 8.5703 0.0709
25.7800 8.5770 0.0661
25.8000 8.5837 0.0637
25.8200 8.5904 0.0706
25.8400 8.5971 0.0671
25.8600 8.6036 0.0658
25.8800 8.6102 0.0698
25.9000 8.6169 0.0707
25.9200 8.6236 0.0664
25.9400 8.6303 0.0650
25.9600 8.6370 0.0680
25.9800 8.6437 0.0660
26.0000 8.6504 0.0671
26.0200 8.6570 0.0640
26.0400 8.6636 0.0685
26.0600 8.6702 0.0669
26.0800 8.6769 0.0654
26.1000 8.6836 0.0629
26.1200 8.6903 0.0631
26.1400 8.6969 0.0642
26.1600 8.7036 0.0694
26.1800 8.7103 0.0612
26.2000 8.7170 0.0631
26.2200 8.7236 0.0643
26.2400 8.7302 0.0651
26.2600 8.7368 0.0619
26.2800 8.7435 0.0619
26.3000 8.7502 0.0670
26.3200 8.7569 0.0612
26.3400 8.7636 0.0661
26.3600 8.7703 0.0664
26.3800 8.7770 0.0596
26.4000 8.7836 0.0607
26.4200 8.7902 0.0682
26.4400 8.7969 0.0606
26.4600 8.8036 0.0681
26.4800 8.8103 0.0623
26.5000 8.8170 0.0588
26.5200 8.8237 0.0676
26.5400 8.8304 0.0643
26.5600 8.8370 0.0553
26.5800 8.8437 0.0678
26.6000 8.8503 0.0650
26.6200 8.8569 0.0531
26.6400 8.8636 0.0666
26.6600 8.8703 0.0614
26.6800 8.8770 0.0527
26.7000 8.8837 0.0680
26.7200 8.8904 0.0569
26.7400 8.8971 0.0570
26.7600 8.9037 0.0731
26.7800 8.9102 0.0559
26.8000 8.9169 0.0514
26.8200 8.9236 0.0710
26.8400 8.9303 0.0565
26.8600 8.9370 0.0552
26.8800 8.9437 0.0761
26.9000 8.9503 0.0491
26.9200 8.9570 0.0589
26.9400 8.9636 0.0728
26.9600 8.9702 0.0537
26.9800 8.9769 0.0634
27.0000 8.9836 0.0674
27.0200 8.9903 0.0517
27.0400 8.9970 0.0670
27.0600 9.0036 0.0655
27.0800 9.0103 0.0544
27.1000 9.0170 0.0624
27.1200 9.0236 0.0620
27.1400 9.0302 0.0563
27.1600 9.0369 0.0691
27.1800 9.0436 0.0571
27.2000 9.0503 0.0547
27.2200 9.0570 0.0700
27.2400 9.0637 0.0569
27.2600 9.0704 0.0509
27.2800 9.0771 0.0711
27.3000 9.0837 0.0592
27.3200 9.0903 0.0501
27.3400 9.0969 0.0725
27.3600 9.1036 0.0571
27.3800 9.1103 0.0553
27.4000 9.1170 0.0628
27.4200 9.1237 0.0590
27.4400 9.1304 0.0568
27.4600 9.1370 0.0657
27.4800 9.1437 0.0558
27.5000 9.1503 0.0556
27.5200 9.1569 0.0636
27.5400 9.1636 0.0618
27.5600 9.1703 0.0539
27.5800 9.1770 0.0579
27.6000 9.1836 0.0632
27.6200 9.1903 0.0526
27.6400 9.1970 0.0496
27.6600 9.2036 0.0648
27.6800 9.2102 0.0593
27.7000 9.2168 0.0543
27.7200 9.2235 0.0616
27.7400 9.2302 0.0570
27.7600 9.2370 0.0581
27.7800 9.2436 0.0649
27.8000 9.2503 0.0580
27.8200 9.2570 0.0483
27.8400 9.2636 0.0648
27.8600 9.2702 0.0618
27.8800 9.2769 0.0525
27.9000 9.2836 0.0577
27.9200 9.2903 0.0619
27.9400 9.2970 0.0559
27.9600 9.3037 0.0572
27.9800 9.3104 0.0476
28.0000 9.3171 0.0566
28.0200 9.3237 0.0694
28.0400 9.3303 0.0487
28.0600 9.3369 0.0501
28.0800 9.3436 0.0625
28.1000 9.3503 0.0505
28.1200 9.3570 0.0628
28.1400 9.3637 0.0577
28.1600 9.3703 0.0480
28.1800 9.3770 0.0565
28.2000 9.3836 0.0499
28.2200 9.3902 0.0496
28.2400 9.3968 0.0667
28.2600 9.4035 0.0558
28.2800 9.4102 0.0408
28.3000 9.4170 0.0584
28.3200 9.4237 0.0539
28.3400 9.4303 0.0553
28.3600 9.4370 0.0565
28.3800 9.4437 0.0415
28.4000 9.4502 0.0531
28.4200 9.4569 0.0710
28.4400 9.4635 0.0461
28.4600 9.4703 0.0498
28.4800 9.4770 0.0602
28.5000 9.4836 0.0463
28.5200 9.4903 0.0604
28.5400 9.4970 0.0543
28.5600 9.5036 0.0400
28.5800 9.5103 0.0636
28.6000 9.5169 0.0548
28.6200 9.5236 0.0416
28.6400 9.5303 0.0633
28.6600 9.5370 0.0598
28.6800 9.5437 0.0406
28.7000 9.5503 0.0552
28.7200 9.5570 0.0558
28.7400 9.5637 0.0523
28.7600 9.5703 0.0555
28.7800 9.5769 0.0465
28.8000 9.5836 0.0569
28.8200 9.5903 0.0538
28.8400 9.5970 0.0489
28.8600 9.6037 0.0539
28.8800 9.6104 0.0562
28.9000 9.6171 0.0438
28.9200 9.6237 0.0549
28.9400 9.6303 0.0554
28.9600 9.6369 0.0528
28.9800 9.6435 0.0562
29.0000 9.6502 0.0461
29.0200 9.6569 0.0525
29.0400 9.6636 0.0601
29.0600 9.6703 0.0433
29.0800 9.6770 0.0519
29.1000 9.6837 0.0551
29.1200 9.6903 0.0438
29.1400 9.6969 0.0578
29.1600 9.7035 0.0504
29.1800 9.7103 0.0503
29.2000 9.7170 0.0529
29.2200 9.7236 0.0536
29.2400 9.7303 0.0476
29.2600 9.7370 0.0572
29.2800 9.7436 0.0485
29.3000 9.7503 0.0500
29.3200 9.7569 0.0555
29.3400 9.7636 0.0480
29.3600 9.7703 0.0503
29.3800 9.7770 0.0528
29.4000 9.7837 0.0432
29.4200 9.7904 0.0575
29.4400 9.7971 0.0524
29.4600 9.8037 0.0422
29.4800 9.8103 0.0514
29.5000 9.8169 0.0597
29.5200 9.8235 0.0463
29.5400 9.8303 0.0523
29.5600 9.8370 0.0589
29.5800 9.8437 0.0444
29.6000 9.8504 0.0500
29.6200 9.8570 0.0564
29.6400 9.8637 0.0529
29.6600 9.8703 0.0506
29.6800 9.8769 0.0590
29.7000 9.8836 0.0416
29.7200 9.8903 0.0407
29.7400 9.8970 0.0616
29.7600 9.9036 0.0509
29.7800 9.9103 0.0430
29.8000 9.9170 0.0626
29.8200 9.9236 0.0455
29.8400 9.9303 0.0419
29.8600 9.9368 0.0584
29.8800 9.9435 0.0537
29.9000 9.9502 0.0461
29.9200 9.9569 0.0521
29.9400 9.9636 0.0500
29.9600 9.9703 0.0479
29.9800 9.9770 0.0548
30.0000 9.9836 0.0455
30.0200 9.9902 0.0552
30.0400 9.9969 0.0498
30.0600 10.0036 0.0426
30.0800 10.0103 0.0582
30.1000 10.0170 0.0488
30.1200 10.0237 0.0416
30.1400 10.0303 0.0556
30.1600 10.0370 0.0465
30.1800 10.0437 0.0489
30.2000 10.0503 0.0472
30.2200 10.0569 0.0446
30.2400 10.0636 0.0512
30.2600 10.0703 0.0511
30.2800 10.0770 0.0417
30.3000 10.0837 0.0503
30.3200 10.0904 0.0503
30.3400 10.0970 0.0435
30.3600 10.1037 0.0450
30.3800 10.1103 0.0462
30.4000 10.1169 0.0514
30.4200 10.1235 0.0471
30.4400 10.1302 0.0367
30.4600 10.1370 0.0553
30.4800 10.1436 0.0530
30.5000 10.1503 0.0387
30.5200 10.1570 0.0537
30.5400 10.1636 0.0459
30.5600 10.1702 0.0390
30.5800 10.1769 0.0489
30.6000 10.1835 0.0520
30.6200 10.1903 0.0420
30.6400 10.1970 0.0487
30.6600 10.2037 0.0412
30.6800 10.2103 0.0410
30.7000 10.2170 0.0530
30.7200 10.2237 0.0437
30.7400 10.2303 0.0424
30.7600 10.2369 0.0544
30.7800 10.2436 0.0381
30.8000 10.2503 0.0480
30.8200 10.2570 0.0508
30.8400 10.2637 0.0376
30.8600 10.2704 0.0440
30.8800 10.2771 0.0489
30.9000 10.2837 0.0428
30.9200 10.2903 0.0441
30.9400 10.2969 0.0471
30.9600 10.3035 0.0462
30.9800 10.3102 0.0454
31.0000 10.3170 0.0415
31.0200 10.3237 0.0549
31.0400 10.3304 0.0397
31.0600 10.3370 0.0379
31.0800 10.3437 0.0507
31.1000 10.3503 0.0457
31.1200 10.3569 0.0393
31.1400 10.3635 0.0552
31.1600 10.3702 0.0390
31.1800 10.3770 0.0362
31.2000 10.3836 0.0588
31.2200 10.3903 0.0426
31.2400 10.3970 0.0423
31.2600 10.4037 0.0543
31.2800 10.4103 0.0347
31.3000 10.4169 0.0423
31.3200 10.4235 0.0591
31.3400 10.4302 0.0368
31.3600 10.4369 0.0384
31.3800 10.4436 0.0494
31.4000 10.4503 0.0484
31.4200 10.4570 0.0397
31.4400 10.4637 0.0460
31.4600 10.4703 0.0473
31.4800 10.4769 0.0395
31.5000 10.4836 0.0415
31.5200 10.4903 0.0583
31.5400 10.4970 0.0329
31.5600 10.5037 0.0371
31.5800 10.5104 0.0608
31.6000 10.5170 0.0353
31.6200 10.5237 0.0434
31.6400 10.5303 0.0598
31.6600 10.5369 0.0279
31.6800 10.5436 0.0374
31.7000 10.5503 0.0587
31.7200 10.5570 0.0335
31.7400 10.5637 0.0377
31.7600 10.5704 0.0584
31.7800 10.5770 0.0377
31.8000 10.5837 0.0378
31.8200 10.5903 0.0558
31.8400 10.5969 0.0359
31.8600 10.6035 0.0454
31.8800 10.6102 0.0533
31.9000 10.6169 0.0376
31.9200 10.6236 0.0368
31.9400 10.6303 0.0563
31.9600 10.6370 0.0371
31.9800 10.6437 0.0391
32.0000 10.6503 0.0599
32.0200 10.6569 0.0371
32.0400 10.6635 0.0376
32.0600 10.6702 0.0588
32.0800 10.6769 0.0422
32.1000 10.6836 0.0378
32.1200 10.6903 0.0564
32.1400 10.6970 0.0482
32.1600 10.7037 0.0305
32.1800 10.7103 0.0564
32.2000 10.7169 0.0462
32.2200 10.7236 0.0425
32.2400 10.7303 0.0545
32.2600 10.7370 0.0359
32.2800 10.7437 0.0447
32.3000 10.7504 0.0550
32.3200 10.7570 0.0363
32.3400 10.7637 0.0534
32.3600 10.7704 0.0497
32.3800 10.7770 0.0360
32.4000 10.7836 0.0518
32.4200 10.7902 0.0487
32.4400 10.7969 0.0412
32.4600 10.8037 0.0464
32.4800 10.8103 0.0492
32.5000 10.8170 0.0468
32.5200 10.8237 0.0487
32.5400 10.8303 0.0350
32.5600 10.8369 0.0462
32.5800 10.8435 0.0579
32.6000 10.8502 0.0418
32.6200 10.8569 0.0411
32.6400 10.8636 0.0515
32.6600 10.8703 0.0434
32.6800 10.8770 0.0485
32.7000 10.8837 0.0504
32.7200 10.8903 0.0418
32.7400 10.8969 0.0410
32.7600 10.9036 0.0542
32.7800 10.9102 0.0459
32.8000 10.9169 0.0388
32.8200 10.9236 0.0503
32.8400 10.9303 0.0419
32.8600 10.9370 0.0468
32.8800 10.9437 0.0461
32.9000 10.9503 0.0422
32.9200 10.9569 0.0466
32.9400 10.9635 0.0405
32.9600 10.9702 0.0412
32.9800 10.9769 0.0520
33.0000 10.9836 0.0341
33.0200 10.9903 0.0456
33.0400 10.9970 0.0532
33.0600 11.0037 0.0350
33.0800 11.0103 0.0431
33.1000 11.0169 0.0500
33.1200 11.0235 0.0406
33.1400 11.0302 0.0434
33.1600 11.0370 0.0390
33.1800 11.0437 0.0386
33.2000 11.0504 0.0439
33.2200 11.0570 0.0364
33.2400 11.0637 0.0410
33.2600 11.0703 0.0429
33.2800 11.0769 0.0372
33.3000 11.0836 0.0362
33.3200 11.0902 0.0455
33.3400 11.0969 0.0316
33.3600 11.1036 0.0426
33.3800 11.1103 0.0408
33.4000 11.1170 0.0310
33.4200 11.1237 0.0427
33.4400 11.1303 0.0408
33.4600 11.1369 0.0288
33.4800 11.1435 0.0433
33.5000 11.1502 0.0376
33.5200 11.1569 0.0268
33.5400 11.1636 0.0403
33.5600 11.1703 0.0363
33.5800 11.1770 0.0335
33.6000 11.1837 0.0369
33.6200 11.1903 0.0315
33.6400 11.1969 0.0345
33.6600 11.2036 0.0396
33.6800 11.2103 0.0300
33.7000 11.2170 0.0330
33.7200 11.2237 0.0381
33.7400 11.2304 0.0276
33.7600 11.2370 0.0310
33.7800 11.2437 0.0388
33.8000 11.2503 0.0267
33.8200 11.2569 0.0382
33.8400 11.2636 0.0361
33.8600 11.2702 0.0332
33.8800 11.2770 0.0352
33.9000 11.2837 0.0345
33.9200 11.2903 0.0306
33.9400 11.2970 0.0350
33.9600 11.3037 0.0321
33.9800 11.3103 0.0337
34.0000 11.3170 0.0331
34.0200 11.3235 0.0299
34.0400 11.3302 0.0384
34.0600 11.3369 0.0338
34.0800 11.3436 0.0279
34.1000 11.3503 0.0386
34.1200 11.3570 0.0325
34.1400 11.3637 0.0275
34.1600 11.3703 0.0328
34.1800 11.3769 0.0338
34.2000 11.3835 0.0344
34.2200 11.3902 0.0305
34.2400 11.3969 0.0325
34.2600 11.4036 0.0270
34.2800 11.4103 0.0348
34.3000 11.4169 0.0331
34.3200 11.4236 0.0296
34.3400 11.4303 0.0324
34.3600 11.4369 0.0318
34.3800 11.4436 0.0285
34.4000 11.4502 0.0359
34.4200 11.4569 0.0251
34.4400 11.4636 0.0313
34.4600 11.4703 0.0340
34.4800 11.4770 0.0257
34.5000 11.4837 0.0313
34.5200 11.4904 0.0317
34.5400 11.4970 0.0273
34.5600 11.5036 0.0338
34.5800 11.5102 0.0357
34.6000 11.5169 0.0297
34.6200 11.5237 0.0333
34.6400 11.5304 0.0315
34.6600 11.5370 0.0322
34.6800 11.5437 0.0358
34.7000 11.5503 0.0277
34.7200 11.5569 0.0291
34.7400 11.5635 0.0404
34.7600 11.5702 0.0271
34.7800 11.5769 0.0298
34.8000 11.5836 0.0402
34.8200 11.5903 0.0285
34.8400 11.5969 0.0231
34.8600 11.6036 0.0422
34.8800 11.6103 0.0302
34.9000 11.6169 0.0247
34.9200 11.6235 0.0414
34.9400 11.6302 0.0279
34.9600 11.6369 0.0261
34.9800 11.6436 0.0410
35.0000 11.6503 0.0256
35.0200 11.6570 0.0296
35.0400 11.6637 0.0429
35.0600 11.6704 0.0238
35.0800 11.6770 0.0289
35.1000 11.6836 0.0357
35.1200 11.6902 0.0261
35.1400 11.6969 0.0267
35.1600 11.7036 0.0358
35.1800 11.7103 0.0234
35.2000 11.7170 0.0324
35.2200 11.7237 0.0325
35.2400 11.7303 0.0268
35.2600 11.7370 0.0295
35.2800 11.7436 0.0332
35.3000 11.7502 0.0303
35.3200 11.7569 0.0324
35.3400 11.7636 0.0280
35.3600 11.7703 0.0345
35.3800 11.7770 0.0307
35.4000 11.7837 0.0274
35.4200 11.7904 0.0331
35.4400 11.7970 0.0254
35.4600 11.8036 0.0295
35.4800 11.8103 0.0373
35.5000 11.8169 0.0233
35.5200 11.8236 0.0253
35.5400 11.8303 0.0342
35.5600 11.8370 0.0203
35.5800 11.8437 0.0320
35.6000 11.8504 0.0323
35.6200 11.8570 0.0201
35.6400 11.8635 0.0377
35.6600 11.8702 0.0311
35.6800 11.8769 0.0192
35.7000 11.8836 0.0414
35.7200 11.8903 0.0249
35.7400 11.8970 0.0235
35.7600 11.9037 0.0380
35.7800 11.9103 0.0256
35.8000 11.9170 0.0229
35.8200 11.9236 0.0404
35.8400 11.9302 0.0250
35.8600 11.9369 0.0265
35.8800 11.9436 0.0382
35.9000 11.9503 0.0239
35.9200 11.9570 0.0381
35.9400 11.9637 0.0318
35.9600 11.9704 0.0218
35.9800 11.9770 0.0376
36.0000 11.9836 0.0265
36.0200 11.9902 0.0185
36.0400 11.9969 0.0402
36.0600 12.0036 0.0266
36.0800 12.0103 0.0219
36.1000 12.0170 0.0406
36.1200 12.0237 0.0289
36.1400 12.0304 0.0153
36.1600 12.0370 0.0439
36.1800 12.0436 0.0282
36.2000 12.0502 0.0259
36.2200 12.0569 0.0346
36.2400 12.0636 0.0279
36.2600 12.0703 0.0353
36.2800 12.0770 0.0323
36.3000 12.0837 0.0168
36.3200 12.0903 0.0356
36.3400 12.0970 0.0413
36.3600 12.1036 0.0156
36.3800 12.1102 0.0292
36.4000 12.1169 0.0399
36.4200 12.1236 0.0160
36.4400 12.1303 0.0274
36.4600 12.1369 0.0393
36.4800 12.1436 0.0188
36.5000 12.1503 0.0269
36.5200 12.1570 0.0316
36.5400 12.1636 0.0211
36.5600 12.1702 0.0326
36.5800 12.1769 0.0404
36.6000 12.1836 0.0078
36.6200 12.1903 0.0306
36.6400 12.1970 0.0436
36.6600 12.2037 0.0178
36.6800 12.2104 0.0243
36.7000 12.2170 0.0315
36.7200 12.2236 0.0166
36.7400 12.2302 0.0371
36.7600 12.2369 0.0312
36.7800 12.2437 -0.0020
36.8000 12.2504 0.0361
36.8200 12.2570 0.0477
36.8400 12.2637 0.0145
36.8600 12.2703 0.0071
36.8800 12.2770 0.0265
36.9000 12.2836 0.0400
36.9200 12.2902 0.0419
36.9400 12.2969 0.0055
36.9600 12.3036 0.0187
36.9800 12.3103 0.0305
37.0000 12.3170 0.0183
37.0200 12.3236 0.0375
37.0400 12.3303 0.0326
37.0600 12.3370 -0.0105
37.0800 12.3436 0.0399
37.1000 12.3502 0.0397
37.1200 12.3569 -0.0078
37.1400 12.3636 0.0556
37.1600 12.3703 0.0305
37.1800 12.3770 -0.0278
37.2000 12.3837 0.0598
37.2200 12.3904 0.0353
37.2400 12.3970 -0.0217
37.2600 12.4036 0.0608
37.2800 12.4102 0.0215
37.3000 12.4169 -0.0115
37.3200 12.4236 0.0577
37.3400 12.4303 0.0093
37.3600 12.4370 0.0021
37.3800 12.4437 0.0637
37.4000 12.4504 -0.0043
37.4200 12.4570 0.0002
37.4400 12.4636 0.0490
37.4600 12.4703 0.0055
37.4800 12.4769 0.0211
37.5000 12.4836 0.0368
37.5200 12.4903 -0.0018
37.5400 12.4970 0.0325
37.5600 12.5037 0.0250
37.5800 12.5104 0.0049
37.6000 12.5170 0.0359
37.6200 12.5236 0.0118
37.6400 12.5302 0.0083
37.6600 12.5369 0.0348
37.6800 12.5436 0.0133
37.7000 12.5503 0.0241
37.7200 12.5570 0.0285
37.7400 12.5637 0.0003
37.7600 12.5703 0.0257
37.7800 12.5770 0.0234
37.8000 12.5836 0.0103
37.8200 12.5902 0.0281
37.8400 12.5968 0.0129
37.8600 12.6035 0.0156
37.8800 12.6102 0.0329
37.9000 12.6169 0.0008
37.9200 12.6236 0.0201
37.9400 12.6303 0.0310
37.9600 12.6370 0.0028
37.9800 12.6436 0.0221
38.0000 12.6502 0.0271
38.0200 12.6569 -0.0013
38.0400 12.6636 0.0347
38.0600 12.6703 0.0203
38.0800 12.6770 0.0021
38.1000 12.6837 0.0326
38.1200 12.6904 0.0133
38.1400 12.6970 0.0046
38.1600 12.7036 0.0330
38.1800 12.7102 0.0130
38.2000 12.7169 0.0045
38.2200 12.7236 0.0335
38.2400 12.7303 0.0142
38.2600 12.7370 0.0061
38.2800 12.7437 0.0242
38.3000 12.7504 0.0180
38.3200 12.7570 0.0125
38.3400 12.7636 0.0208
38.3600 12.7702 0.0158
38.3800 12.7769 0.0168
38.4000 12.7836 0.0154
38.4200 12.7903 0.0219
38.4400 12.7970 0.0102
38.4600 12.8037 0.0157
38.4800 12.8103 0.0213
38.5000 12.8170 0.0138
38.5200 12.8236 0.0090
38.5400 12.8302 0.0253
38.5600 12.8369 0.0140
38.5800 12.8436 0.0081
38.6000 12.8503 0.0258
38.6200 12.8569 0.0101
38.6400 12.8636 0.0073
38.6600 12.8703 0.0234
38.6800 12.8770 0.0088
38.7000 12.8836 0.0122
38.7200 12.8902 0.0231
38.7400 12.8969 0.0072
38.7600 12.9036 0.0148
38.7800 12.9103 0.0190
38.8000 12.9170 0.0138
38.8200 12.9237 0.0106
38.8400 12.9304 0.0187
38.8600 12.9370 0.0107
38.8800 12.9436 0.0105
38.9000 12.9502 0.0147
38.9200 12.9569 0.0209
38.9400 12.9636 0.0107
38.9600 12.9704 0.0115
38.9800 12.9770 0.0189
39.0000 12.9837 0.0127
39.0200 12.9904 0.0086
39.0400 12.9970 0.0221
39.0600 13.0036 0.0086
39.0800 13.0102 0.0083
39.1000 13.0169 0.0251
39.1200 13.0236 0.0063
39.1400 13.0303 0.0100
39.1600 13.0369 0.0207
39.1800 13.0436 0.0052
39.2000 13.0503 0.0084
39.2200 13.0570 0.0251
39.2400 13.0636 0.0002
39.2600 13.0702 0.0203
39.2800 13.0769 0.0214
39.3000 13.0836 -0.0001
39.3200 13.0903 0.0169
39.3400 13.0970 0.0195
39.3600 13.1037 0.0010
39.3800 13.1103 0.0156
39.4000 13.1170 0.0161
39.4200 13.1236 0.0085
39.4400 13.1303 0.0196
39.4600 13.1369 0.0121
39.4800 13.1436 0.0079
39.5000 13.1503 0.0210
39.5200 13.1570 0.0022
39.5400 13.1637 0.0127
39.5600 13.1703 0.0230
39.5800 13.1770 0.0025
39.6000 13.1836 0.0125
39.6200 13.1902 0.0218
39.6400 13.1969 0.0034
39.6600 13.2036 0.0144
39.6800 13.2103 0.0208
39.7000 13.2170 -0.0002
39.7200 13.2237 0.0168
39.7400 13.2304 0.0154
39.7600 13.2370 0.0037
39.7800 13.2436 0.0148
39.8000 13.2502 0.0213
39.8200 13.2569 0.0091
39.8400 13.2636 0.0104
39.8600 13.2703 0.0140
39.8800 13.2770 0.0138
39.9000 13.2837 0.0102
39.9200 13.2904 0.0083
39.9400 13.2970 0.0153
39.9600 13.3036 0.0062
39.9800 13.3102 0.0069
40.0000 13.3169 0.0251
40.0200 13.3236 0.0095
40.0400 13.3303 0.0066
40.0600 13.3369 0.0199
40.0800 13.3436 0.0058
40.1000 13.3503 0.0041
40.1200 13.3570 0.0260
40.1400 13.3636 0.0068
40.1600 13.3702 -0.0059
40.1800 13.3769 0.0316
40.2000 13.3836 0.0094
40.2200 13.3903 -0.0031
40.2400 13.3970 0.0196
40.2600 13.4037 0.0139
40.2800 13.4104 0.0002
40.3000 13.4171 0.0210
40.3200 13.4237 0.0056
40.3400 13.4303 0.0040
40.3600 13.4369 0.0200
40.3800 13.4436 0.0097
40.4000 13.4503 0.0055
40.4200 13.4570 0.0129
40.4400 13.4637 0.0057
40.4600 13.4703 0.0187
40.4800 13.4770 0.0069
40.5000 13.4836 -0.0063
40.5200 13.4902 0.0212
40.5400 13.4969 0.0187
40.5600 13.5036 -0.0037
40.5800 13.5103 0.0072
40.6000 13.5169 0.0187
40.6200 13.5236 0.0048
40.6400 13.5303 0.0034
40.6600 13.5370 0.0114
40.6800 13.5436 0.0197
40.7000 13.5502 0.0021
40.7200 13.5568 -0.0061
40.7400 13.5635 0.0254
40.7600 13.5702 0.0109
40.7800 13.5769 -0.0066
40.8000 13.5836 0.0175
40.8200 13.5903 -0.0014
40.8400 13.5970 0.0017
40.8600 13.6036 0.0309
40.8800 13.6102 -0.0016
40.9000 13.6168 0.0020
40.9200 13.6236 0.0276
40.9400 13.6303 -0.0092
40.9600 13.6370 0.0100
40.9800 13.6437 0.0292
41.0000 13.6504 -0.0093
41.0200 13.6570 0.0109
41.0400 13.6637 0.0183
41.0600 13.6703 -0.0052
41.0800 13.6769 0.0199
41.1000 13.6836 0.0151
41.1200 13.6903 -0.0087
41.1400 13.6970 0.0256
41.1600 13.7037 0.0033
41.1800 13.7104 -0.0027
41.2000 13.7170 0.0324
41.2200 13.7237 -0.0005
41.2400 13.7303 -0.0116
41.2600 13.7369 0.0330
41.2800 13.7435 0.0164
41.3000 13.7503 -0.0124
41.3200 13.7570 0.0086
41.3400 13.7636 0.0232
41.3600 13.7703 0.0008
41.3800 13.7770 -0.0043
41.4000 13.7836 0.0292
41.4200 13.7902 0.0065
41.4400 13.7968 -0.0147
41.4600 13.8035 0.0274
41.4800 13.8103 0.0135
41.5000 13.8170 -0.0127
41.5200 13.8236 0.0285
41.5400 13.8303 0.0061
41.5600 13.8370 -0.0055
41.5800 13.8436 0.0291
41.6000 13.8503 -0.0014
41.6200 13.8569 -0.0029
41.6400 13.8636 0.0278
41.6600 13.8703 -0.0064
41.6800 13.8770 -0.0006
41.7000 13.8837 0.0223
41.7200 13.8904 -0.0056
41.7400 13.8970 0.0036
41.7600 13.9037 0.0215
41.7800 13.9103 -0.0075
41.8000 13.9169 0.0090
41.8200 13.9236 0.0171
41.8400 13.9303 -0.0086
41.8600 13.9370 0.0085
41.8800 13.9437 0.0079
41.9000 13.9504 0.0028
41.9200 13.9570 0.0075
41.9400 13.9637 0.0009
41.9600 13.9703 -0.0001
41.9800 13.9769 0.0071
42.0000 13.9836 0.0009
42.0200 13.9903 0.0079
42.0400 13.9970 0.0063
42.0600 14.0036 -0.0021
42.0800 14.0103 0.0059
42.1000 14.0170 0.0038
42.1200 14.0237 -0.0020
42.1400 14.0302 0.0106
42.1600 14.0368 0.0022
42.1800 14.0435 -0.0004
42.2000 14.0502 0.0077
42.2200 14.0569 0.0034
42.2400 14.0636 -0.0014
42.2600 14.0703 0.0062
42.2800 14.0770 -0.0026
42.3000 14.0836 0.0019
42.3200 14.0903 0.0101
42.3400 14.0969 -0.0004
42.3600 14.1036 0.0046
42.3800 14.1103 -0.0028
42.4000 14.1170 -0.0029
42.4200 14.1237 0.0072
42.4400 14.1304 -0.0005
42.4600 14.1371 -0.0029
42.4800 14.1437 0.0055
42.5000 14.1503 -0.0006
42.5200 14.1569 0.0068
42.5400 14.1636 0.0083
42.5600 14.1703 -0.0021
42.5800 14.1770 -0.0024
42.6000 14.1837 0.0088
42.6200 14.1903 -0.0016
42.6400 14.1970 -0.0005
42.6600 14.2037 0.0009
42.6800 14.2102 0.0025
42.7000 14.2169 0.0000
42.7200 14.2235 -0.0022
42.7400 14.2302 0.0076
42.7600 14.2369 0.0018
42.7800 14.2436 -0.0047
42.8000 14.2503 0.0022
42.8200 14.2570 -0.0001
42.8400 14.2637 -0.0059
42.8600 14.2703 0.0041
42.8800 14.2768 0.0003
42.9000 14.2835 -0.0019
42.9200 14.2902 0.0051
42.9400 14.2970 0.0006
42.9600 14.3037 -0.0005
42.9800 14.3103 0.0001
43.0000 14.3170 -0.0006
43.0200 14.3236 0.0065
43.0400 14.3303 -0.0058
43.0600 14.3369 -0.0020
43.0800 14.3436 0.0071
43.1000 14.3503 -0.0062
43.1200 14.3570 -0.0046
43.1400 14.3637 0.0106
43.1600 14.3704 -0.0063
43.1800 14.3770 -0.0062
43.2000 14.3837 0.0064
43.2200 14.3903 -0.0067
43.2400 14.3969 0.0004
43.2600 14.4036 0.0041
43.2800 14.4103 -0.0035
43.3000 14.4170 -0.0019
43.3200 14.4237 0.0009
43.3400 14.4304 -0.0044
43.3600 14.4371 -0.0027
43.3800 14.4437 -0.0025
43.4000 14.4503 -0.0068
43.4200 14.4569 -0.0053
43.4400 14.4635 0.0011
43.4600 14.4703 -0.0056
43.4800 14.4770 -0.0013
43.5000 14.4836 -0.0041
43.5200 14.4903 -0.0055
43.5400 14.4970 -0.0031
43.5600 14.5036 -0.0048
43.5800 14.5103 -0.0048
43.6000 14.5169 -0.0018
43.6200 14.5235 -0.0035
43.6400 14.5302 -0.0037
43.6600 14.5369 -0.0061
43.6800 14.5436 -0.0035
43.7000 14.5503 -0.0055
43.7200 14.5570 -0.0085
43.7400 14.5637 -0.0052
43.7600 14.5703 -0.0080
43.7800 14.5769 -0.0027
43.8000 14.5835 -0.0032
43.8200 14.5902 -0.0055
43.8400 14.5969 -0.0095
43.8600 14.6037 -0.0002
43.8800 14.6104 -0.0108
43.9000 14.6170 -0.0075
43.9200 14.6237 -0.0028
43.9400 14.6303 -0.0099
43.9600 14.6369 -0.0087
43.9800 14.6436 -0.0002
44.0000 14.6503 -0.0088
44.0200 14.6570 -0.0077
44.0400 14.6637 -0.0050
44.0600 14.6703 -0.0076
44.0800 14.6770 -0.0038
44.1000 14.6837 -0.0071
44.1200 14.6903 -0.0098
44.1400 14.6969 -0.0032
44.1600 14.7036 -0.0100
44.1800 14.7102 -0.0079
44.2000 14.7169 -0.0014
44.2200 14.7236 -0.0109
44.2400 14.7303 -0.0026
44.2600 14.7370 -0.0024
44.2800 14.7437 -0.0105
44.3000 14.7503 -0.0087
44.3200 14.7569 -0.0050
44.3400 14.7635 -0.0068
44.3600 14.7702 -0.0032
44.3800 14.7769 -0.0077
44.4000 14.7836 -0.0078
44.4200 14.7903 -0.0047
44.4400 14.7970 -0.0077
44.4600 14.8036 -0.0077
44.4800 14.8102 -0.0050
44.5000 14.8169 -0.0086
44.5200 14.8235 -0.0007
44.5400 14.8303 -0.0083
44.5600 14.8370 -0.0133
44.5800 14.8437 -0.0041
44.6000 14.8503 -0.0076
44.6200 14.8570 -0.0059
44.6400 14.8637 -0.0078
44.6600 14.8703 -0.0076
44.6800 14.8770 -0.0077
44.7000 14.8836 -0.0096
44.7200 14.8903 -0.0083
44.7400 14.8970 -0.0063
44.7600 14.9037 -0.0074
44.7800 14.9104 -0.0067
44.8000 14.9170 -0.0063
44.8200 14.9237 -0.0044
44.8400 14.9303 -0.0091
44.8600 14.9369 -0.0050
44.8800 14.9435 -0.0127
44.9000 14.9502 -0.0029
44.9200 14.9569 -0.0064
44.9400 14.9636 -0.0079
44.9600 14.9703 -0.0055
44.9800 14.9770 -0.0080
45.0000 14.9837 -0.0150
45.0200 14.9903 -0.0102
45.0400 14.9969 -0.0032
45.0600 15.0035 -0.0100
45.0800 15.0102 -0.0085
45.1000 15.0170 -0.0091
45.1200 15.0237 -0.0078
45.1400 15.0303 -0.0078
45.1600 15.0370 -0.0060
45.1800 15.0437 -0.0081
45.2000 15.0503 -0.0124
45.2200 15.0569 -0.0099
45.2400 15.0636 -0.0061
45.2600 15.0703 -0.0107
45.2800 15.0770 -0.0075
45.3000 15.0837 -0.0143
45.3200 15.0904 -0.0030
45.3400 15.0970 -0.0126
45.3600 15.1037 -0.0083
45.3800 15.1104 -0.0086
45.4000 15.1169 -0.0147
45.4200 15.1235 -0.0078
45.4400 15.1302 -0.0101
45.4600 15.1370 -0.0110
45.4800 15.1437 -0.0064
45.5000 15.1504 -0.0115
45.5200 15.1570 -0.0136
45.5400 15.1637 -0.0102
45.5600 15.1703 -0.0111
45.5800 15.1769 -0.0094
45.6000 15.1835 -0.0095
45.6200 15.1902 -0.0095
45.6400 15.1970 -0.0105
45.6600 15.2037 -0.0077
45.6800 15.2103 -0.0137
45.7000 15.2170 -0.0025
45.7200 15.2237 -0.0107
45.7400 15.2303 -0.0135
45.7600 15.2369 -0.0031
45.7800 15.2435 -0.0105
45.8000 15.2502 -0.0149
45.8200 15.2569 -0.0068
45.8400 15.2636 -0.0102
45.8600 15.2703 -0.0110
45.8800 15.2770 -0.0079
45.9000 15.2837 -0.0079
45.9200 15.2903 -0.0161
45.9400 15.2969 -0.0021
45.9600 15.3036 -0.0084
45.9800 15.3102 -0.0200
46.0000 15.3170 -0.0062
46.0200 15.3237 -0.0130
46.0400 15.3303 -0.0133
46.0600 15.3370 -0.0080
46.0800 15.3437 -0.0120
46.1000 15.3503 -0.0164
46.1200 15.3569 -0.0007
46.1400 15.3636 -0.0134
46.1600 15.3703 -0.0174
46.1800 15.3770 -0.0009
46.2000 15.3837 -0.0183
46.2200 15.3904 -0.0178
46.2400 15.3970 0.0021
46.2600 15.4037 -0.0200
46.2800 15.4103 -0.0183
46.3000 15.4169 -0.0030
46.3200 15.4235 -0.0142
46.3400 15.4302 -0.0162
46.3600 15.4369 -0.0018
46.3800 15.4436 -0.0176
46.4000 15.4503 -0.0186
46.4200 15.4570 -0.0055
46.4400 15.4637 -0.0209
46.4600 15.4703 -0.0116
46.4800 15.4769 -0.0038
46.5000 15.4835 -0.0232
46.5200 15.4902 -0.0123
46.5400 15.4969 -0.0018
46.5600 15.5036 -0.0248
46.5800 15.5103 -0.0100
46.6000 15.5170 -0.0116
46.6200 15.5236 -0.0209
46.6400 15.5303 -0.0098
46.6600 15.5369 -0.0093
46.6800 15.5435 -0.0242
46.7000 15.5502 -0.0092
46.7200 15.5569 -0.0087
46.7400 15.5636 -0.0236
46.7600 15.5703 -0.0120
46.7800 15.5770 -0.0096
46.8000 15.5837 -0.0255
46.8200 15.5904 -0.0114
46.8400 15.5970 -0.0119
46.8600 15.6036 -0.0218
46.8800 15.6102 -0.0103
46.9000 15.6170 -0.0138
46.9200 15.6237 -0.0245
46.9400 15.6304 -0.0154
46.9600 15.6370 -0.0100
46.9800 15.6437 -0.0193
47.0000 15.6503 -0.0140
47.0200 15.6569 -0.0119
47.0400 15.6635 -0.0138
47.0600 15.6702 -0.0164
47.0800 15.6769 -0.0164
47.1000 15.6836 -0.0161
47.1200 15.6903 -0.0143
47.1400 15.6970 -0.0154
47.1600 15.7037 -0.0154
47.1800 15.7103 -0.0180
47.2000 15.7169 -0.0144
47.2200 15.7235 -0.0138
47.2400 15.7302 -0.0176
47.2600 15.7369 -0.0148
47.2800 15.7436 -0.0132
47.3000 15.7503 -0.0230
47.3200 15.7570 -0.0093
47.3400 15.7637 -0.0132
47.3600 15.7703 -0.0243
47.3800 15.7770 -0.0062
47.4000 15.7836 -0.0196
47.4200 15.7902 -0.0200
47.4400 15.7969 -0.0083
47.4600 15.8036 -0.0223
47.4800 15.8103 -0.0181
47.5000 15.8170 -0.0048
47.5200 15.8237 -0.0280
47.5400 15.8303 -0.0175
47.5600 15.8369 -0.0045
47.5800 15.8435 -0.0219
47.6000 15.8502 -0.0187
47.6200 15.8569 -0.0088
47.6400 15.8637 -0.0251
47.6600 15.8704 -0.0108
47.6800 15.8770 -0.0150
47.7000 15.8837 -0.0256
47.7200 15.8904 -0.0083
47.7400 15.8970 -0.0132
47.7600 15.9036 -0.0258
47.7800 15.9102 -0.0106
47.8000 15.9169 -0.0150
47.8200 15.9236 -0.0247
47.8400 15.9303 -0.0116
47.8600 15.9370 -0.0152
47.8800 15.9437 -0.0209
47.9000 15.9503 -0.0113
47.9200 15.9569 -0.0183
47.9400 15.9635 -0.0207
47.9600 15.9702 -0.0076
47.9800 15.9769 -0.0226
48.0000 15.9836 -0.0221
48.0200 15.9903 -0.0164
48.0400 15.9970 -0.0173
48.0600 16.0037 -0.0199
48.0800 16.0103 -0.0146
48.1000 16.0169 -0.0170
48.1200 16.0236 -0.0140
48.1400 16.0303 -0.0161
48.1600 16.0370 -0.0185
48.1800 16.0437 -0.0165
48.2000 16.0504 -0.0148
48.2200 16.0570 -0.0212
48.2400 16.0637 -0.0178
48.2600 16.0703 -0.0170
48.2800 16.0770 -0.0197
48.3000 16.0836 -0.0154
48.3200 16.0902 -0.0195
48.3400 16.0970 -0.0187
48.3600 16.1037 -0.0208
48.3800 16.1103 -0.0168
48.4000 16.1170 -0.0180
48.4200 16.1237 -0.0184
48.4400 16.1304 -0.0208
48.4600 16.1370 -0.0180
48.4800 16.1436 -0.0183
48.5000 16.1502 -0.0141
48.5200 16.1569 -0.0189
48.5400 16.1636 -0.0192
48.5600 16.1703 -0.0130
48.5800 16.1770 -0.0241
48.6000 16.1837 -0.0222
48.6200 16.1903 -0.0125
48.6400 16.1969 -0.0269
48.6600 16.2035 -0.0190
48.6800 16.2102 -0.0109
48.7000 16.2169 -0.0219
48.7200 16.2236 -0.0220
48.7400 16.2303 -0.0177
48.7600 16.2369 -0.0192
48.7800 16.2436 -0.0166
48.8000 16.2503 -0.0190
48.8200 16.2569 -0.0221
48.8400 16.2636 -0.0157
48.8600 16.2702 -0.0199
48.8800 16.2769 -0.0226
48.9000 16.2836 -0.0145
48.9200 16.2903 -0.0198
48.9400 16.2970 -0.0213
48.9600 16.3037 -0.0141
48.9800 16.3104 -0.0261
49.0000 16.3170 -0.0150
49.0200 16.3236 -0.0152
49.0400 16.3302 -0.0215
49.0600 16.3369 -0.0169
49.0800 16.3437 -0.0176
49.1000 16.3503 -0.0251
49.1200 16.3570 -0.0141
49.1400 16.3637 -0.0184
49.1600 16.3703 -0.0258
49.1800 16.3769 -0.0148
49.2000 16.3835 -0.0179
49.2200 16.3902 -0.0193
49.2400 16.3969 -0.0143
49.2600 16.4036 -0.0264
49.2800 16.4103 -0.0197
49.3000 16.4169 -0.0097
49.3200 16.4236 -0.0301
49.3400 16.4303 -0.0184
49.3600 16.4369 -0.0135
49.3800 16.4435 -0.0254
49.4000 16.4502 -0.0200
49.4200 16.4569 -0.0127
49.4400 16.4636 -0.0273
49.4600 16.4703 -0.0179
49.4800 16.4770 -0.0140
49.5000 16.4837 -0.0286
49.5200 16.4904 -0.0183
49.5400 16.4970 -0.0163
49.5600 16.5036 -0.0273
49.5800 16.5102 -0.0134
49.6000 16.5169 -0.0224
49.6200 16.5236 -0.0215
49.6400 16.5303 -0.0159
49.6600 16.5370 -0.0278
49.6800 16.5437 -0.0179
49.7000 16.5504 -0.0205
49.7200 16.5570 -0.0268
49.7400 16.5636 -0.0202
49.7600 16.5702 -0.0180
49.7800 16.5769 -0.0273
49.8000 16.5836 -0.0149
49.8200 16.5903 -0.0236
49.8400 16.5970 -0.0283
49.8600 16.6037 -0.0118
49.8800 16.6104 -0.0249
49.9000 16.6170 -0.0336
49.9200 16.6236 -0.0103
49.9400 16.6302 -0.0273
49.9600 16.6369 -0.0255
49.9800 16.6436 -0.0176
50.0000 16.6503 -0.0322
50.0200 16.6570 -0.0217
50.0400 16.6637 -0.0109
50.0600 16.6704 -0.0346
50.0800 16.6770 -0.0248
50.1000 16.6835 -0.0067
50.1200 16.6902 -0.0334
50.1400 16.6969 -0.0214
50.1600 16.7036 -0.0176
50.1800 16.7103 -0.0300
50.2000 16.7170 -0.0253
50.2200 16.7237 -0.0230
50.2400 16.7303 -0.0311
50.2600 16.7369 -0.0166
50.2800 16.7436 -0.0212
50.3000 16.7502 -0.0299
50.3200 16.7569 -0.0173
50.3400 16.7636 -0.0207
50.3600 16.7703 -0.0341
50.3800 16.7770 -0.0149
50.4000 16.7837 -0.0274
50.4200 16.7904 -0.0331
50.4400 16.7970 -0.0148
50.4600 16.8036 -0.0333
50.4800 16.8102 -0.0291
50.5000 16.8169 -0.0132
50.5200 16.8236 -0.0373
50.5400 16.8303 -0.0240
50.5600 16.8370 -0.0200
50.5800 16.8437 -0.0370
50.6000 16.8504 -0.0219
50.6200 16.8570 -0.0256
50.6400 16.8636 -0.0337
50.6600 16.8702 -0.0186
50.6800 16.8769 -0.0350
50.7000 16.8836 -0.0294
50.7200 16.8903 -0.0153
50.7400 16.8970 -0.0401
50.7600 16.9037 -0.0246
50.7800 16.9103 -0.0165
50.8000 16.9170 -0.0409
50.8200 16.9236 -0.0245
50.8400 16.9302 -0.0209
50.8600 16.9369 -0.0391
50.8800 16.9436 -0.0237
50.9000 16.9503 -0.0300
50.9200 16.9569 -0.0370
50.9400 16.9636 -0.0228
50.9600 16.9703 -0.0300
50.9800 16.9770 -0.0352
51.0000 16.9836 -0.0196
51.0200 16.9902 -0.0378
51.0400 16.9969 -0.0320
51.0600 17.0036 -0.0173
51.0800 17.0103 -0.0419
51.1000 17.0170 -0.0278
51.1200 17.0237 -0.0258
51.1400 17.0304 -0.0321
51.1600 17.0370 -0.0312
51.1800 17.0436 -0.0338
51.2000 17.0502 -0.0279
51.2200 17.0569 -0.0316
51.2400 17.0636 -0.0346
51.2600 17.0703 -0.0299
51.2800 17.0770 -0.0336
51.3000 17.0837 -0.0291
51.3200 17.0903 -0.0351
51.3400 17.0970 -0.0330
51.3600 17.1036 -0.0279
51.3800 17.1102 -0.0314
51.4000 17.1169 -0.0371
51.4200 17.1236 -0.0268
51.4400 17.1303 -0.0274
51.4600 17.1370 -0.0396
51.4800 17.1437 -0.0269
51.5000 17.1504 -0.0335
51.5200 17.1570 -0.0353
51.5400 17.1636 -0.0256
51.5600 17.1702 -0.0320
51.5800 17.1769 -0.0365
51.6000 17.1836 -0.0263
51.6200 17.1903 -0.0373
51.6400 17.1970 -0.0355
51.6600 17.2037 -0.0242
51.6800 17.2104 -0.0361
51.7000 17.2170 -0.0370
51.7200 17.2236 -0.0246
51.7400 17.2302 -0.0375
51.7600 17.2369 -0.0288
51.7800 17.2436 -0.0275
51.8000 17.2503 -0.0397
51.8200 17.2570 -0.0299
51.8400 17.2637 -0.0292
51.8600 17.2704 -0.0425
51.8800 17.2770 -0.0265
51.9000 17.2836 -0.0301
51.9200 17.2903 -0.0426
51.9400 17.2969 -0.0288
51.9600 17.3036 -0.0357
51.9800 17.3103 -0.0384
52.0000 17.3170 -0.0264
52.0200 17.3237 -0.0409
52.0400 17.3304 -0.0395
52.0600 17.3370 -0.0249
52.0800 17.3436 -0.0439
52.1000 17.3502 -0.0317
52.1200 17.3569 -0.0282
52.1400 17.3636 -0.0422
52.1600 17.3703 -0.0306
52.1800 17.3770 -0.0323
52.2000 17.3837 -0.0437
52.2200 17.3903 -0.0276
52.2400 17.3970 -0.0369
52.2600 17.4036 -0.0410
52.2800 17.4102 -0.0301
52.3000 17.4168 -0.0357
52.3200 17.4235 -0.0372
52.3400 17.4302 -0.0347
52.3600 17.4369 -0.0408
52.3800 17.4436 -0.0368
52.4000 17.4503 -0.0329
52.4200 17.4570 -0.0419
52.4400 17.4636 -0.0344
52.4600 17.4702 -0.0403
52.4800 17.4769 -0.0357
52.5000 17.4836 -0.0339
52.5200 17.4903 -0.0392
52.5400 17.4970 -0.0327
52.5600 17.5037 -0.0367
52.5800 17.5104 -0.0410
52.6000 17.5170 -0.0362
52.6200 17.5236 -0.0364
52.6400 17.5303 -0.0360
52.6600 17.5369 -0.0385
52.6800 17.5436 -0.0342
52.7000 17.5503 -0.0374
52.7200 17.5570 -0.0345
52.7400 17.5637 -0.0375
52.7600 17.5704 -0.0351
52.7800 17.5770 -0.0378
52.8000 17.5836 -0.0410
52.8200 17.5902 -0.0358
52.8400 17.5969 -0.0354
52.8600 17.6036 -0.0397
52.8800 17.6103 -0.0371
52.9000 17.6170 -0.0368
52.9200 17.6237 -0.0427
52.9400 17.6303 -0.0382
52.9600 17.6370 -0.0384
52.9800 17.6436 -0.0410
53.0000 17.6502 -0.0363
53.0200 17.6569 -0.0317
53.0400 17.6636 -0.0437
53.0600 17.6703 -0.0348
53.0800 17.6769 -0.0367
53.1000 17.6836 -0.0389
53.1200 17.6903 -0.0329
53.1400 17.6970 -0.0414
53.1600 17.7036 -0.0444
53.1800 17.7102 -0.0315
53.2000 17.7169 -0.0423
53.2200 17.7236 -0.0391
53.2400 17.7303 -0.0320
53.2600 17.7370 -0.0424
53.2800 17.7437 -0.0373
53.3000 17.7504 -0.0388
53.3200 17.7570 -0.0467
53.3400 17.7636 -0.0361
53.3600 17.7702 -0.0398
53.3800 17.7769 -0.0442
53.4000 17.7836 -0.0380
53.4200 17.7904 -0.0466
53.4400 17.7970 -0.0377
53.4600 17.8037 -0.0410
53.4800 17.8104 -0.0452
53.5000 17.8170 -0.0390
53.5200 17.8236 -0.0395
53.5400 17.8302 -0.0446
53.5600 17.8369 -0.0373
53.5800 17.8436 -0.0422
53.6000 17.8503 -0.0452
53.6200 17.8569 -0.0433
53.6400 17.8636 -0.0408
53.6600 17.8703 -0.0416
53.6800 17.8770 -0.0441
53.7000 17.8836 -0.0460
53.7200 17.8902 -0.0352
53.7400 17.8968 -0.0422
53.7600 17.9035 -0.0479
53.7800 17.9103 -0.0339
53.8000 17.9170 -0.0449
53.8200 17.9236 -0.0500
53.8400 17.9303 -0.0381
53.8600 17.9370 -0.0411
53.8800 17.9436 -0.0481
53.9000 17.9502 -0.0369
53.9200 17.9569 -0.0439
53.9400 17.9636 -0.0482
53.9600 17.9703 -0.0432
53.9800 17.9770 -0.0407
54.0000 17.9837 -0.0470
54.0200 17.9904 -0.0509
54.0400 17.9970 -0.0396
54.0600 18.0037 -0.0440
54.0800 18.0103 -0.0515
54.1000 18.0169 -0.0410
54.1200 18.0236 -0.0449
54.1400 18.0303 -0.0478
54.1600 18.0370 -0.0433
54.1800 18.0437 -0.0488
54.2000 18.0504 -0.0468
54.2200 18.0570 -0.0416
54.2400 18.0637 -0.0506
54.2600 18.0702 -0.0428
54.2800 18.0769 -0.0335
54.3000 18.0836 -0.0513
54.3200 18.0903 -0.0473
54.3400 18.0970 -0.0412
54.3600 18.1037 -0.0497
54.3800 18.1103 -0.0438
54.4000 18.1170 -0.0416
54.4200 18.1236 -0.0538
54.4400 18.1302 -0.0358
54.4600 18.1368 -0.0471
54.4800 18.1435 -0.0535
54.5000 18.1503 -0.0342
54.5200 18.1570 -0.0462
54.5400 18.1636 -0.0562
54.5600 18.1703 -0.0377
54.5800 18.1770 -0.0481
54.6000 18.1836 -0.0533
54.6200 18.1902 -0.0413
54.6400 18.1969 -0.0490
54.6600 18.2036 -0.0510
54.6800 18.2103 -0.0458
54.7000 18.2170 -0.0489
54.7200 18.2237 -0.0475
54.7400 18.2304 -0.0444
54.7600 18.2371 -0.0495
54.7800 18.2437 -0.0461
54.8000 18.2503 -0.0503
54.8200 18.2569 -0.0478
54.8400 18.2636 -0.0427
54.8600 18.2703 -0.0481
54.8800 18.2770 -0.0582
54.9000 18.2837 -0.0430
54.9200 18.2903 -0.0510
54.9400 18.2970 -0.0557
54.9600 18.3036 -0.0504
54.9800 18.3102 -0.0460
55.0000 18.3169 -0.0475
55.0200 18.3236 -0.0542
55.0400 18.3303 -0.0534
55.0600 18.3369 -0.0437
55.0800 18.3436 -0.0500
55.1000 18.3503 -0.0579
55.1200 18.3570 -0.0488
55.1400 18.3636 -0.0491
55.1600 18.3702 -0.0551
55.1800 18.3768 -0.0460
55.2000 18.3835 -0.0516
55.2200 18.3902 -0.0498
55.2400 18.3969 -0.0482
55.2600 18.4036 -0.0614
55.2800 18.4103 -0.0464
55.3000 18.4170 -0.0473
55.3200 18.4236 -0.0568
55.3400 18.4302 -0.0587
55.3600 18.4369 -0.0438
55.3800 18.4436 -0.0497
55.4000 18.4503 -0.0600
55.4200 18.4570 -0.0515
55.4400 18.4637 -0.0469
55.4600 18.4704 -0.0556
55.4800 18.4770 -0.0588
55.5000 18.4837 -0.0585
55.5200 18.4903 -0.0437
55.5400 18.4969 -0.0560
55.5600 18.5036 -0.0642
55.5800 18.5103 -0.0506
55.6000 18.5170 -0.0522
55.6200 18.5237 -0.0592
55.6400 18.5303 -0.0600
55.6600 18.5370 -0.0557
55.6800 18.5437 -0.0569
55.7000 18.5503 -0.0524
55.7200 18.5569 -0.0571
55.7400 18.5635 -0.0533
55.7600 18.5703 -0.0553
55.7800 18.5770 -0.0647
55.8000 18.5836 -0.0521
55.8200 18.5903 -0.0478
55.8400 18.5970 -0.0625
55.8600 18.6036 -0.0544
55.8800 18.6103 -0.0588
55.9000 18.6169 -0.0541
55.9200 18.6235 -0.0487
55.9400 18.6302 -0.0569
55.9600 18.6370 -0.0612
55.9800 18.6436 -0.0478
56.0000 18.6503 -0.0569
56.0200 18.6570 -0.0628
56.0400 18.6637 -0.0529
56.0600 18.6703 -0.0606
56.0800 18.6769 -0.0544
56.1000 18.6836 -0.0517
56.1200 18.6903 -0.0641
56.1400 18.6970 -0.0530
56.1600 18.7037 -0.0491
56.1800 18.7104 -0.0654
56.2000 18.7171 -0.0579
56.2200 18.7237 -0.0509
56.2400 18.7303 -0.0580
56.2600 18.7369 -0.0593
56.2800 18.7436 -0.0524
56.3000 18.7503 -0.0618
56.3200 18.7570 -0.0532
56.3400 18.7637 -0.0559
56.3600 18.7704 -0.0588
56.3800 18.7770 -0.0542
56.4000 18.7837 -0.0542
56.4200 18.7903 -0.0558
56.4400 18.7969 -0.0607
56.4600 18.8036 -0.0534
56.4800 18.8103 -0.0522
56.5000 18.8170 -0.0583
56.5200 18.8236 -0.0571
56.5400 18.8303 -0.0565
56.5600 18.8370 -0.0570
56.5800 18.8437 -0.0558
56.6000 18.8503 -0.0589
56.6200 18.8568 -0.0597
56.6400 18.8635 -0.0470
56.6600 18.8702 -0.0564
56.6800 18.8769 -0.0678
56.7000 18.8836 -0.0447
56.7200 18.8903 -0.0540
56.7400 18.8970 -0.0616
56.7600 18.9037 -0.0538
56.7800 18.9103 -0.0498
56.8000 18.9169 -0.0548
56.8200 18.9236 -0.0576
56.8400 18.9303 -0.0550
56.8600 18.9370 -0.0528
56.8800 18.9437 -0.0563
56.9000 18.9504 -0.0583
56.9200 18.9571 -0.0560
56.9400 18.9637 -0.0556
56.9600 18.9703 -0.0546
56.9800 18.9769 -0.0602
57.0000 18.9836 -0.0509
57.0200 18.9903 -0.0528
57.0400 18.9970 -0.0627
57.0600 19.0037 -0.0571
57.0800 19.0103 -0.0465
57.1000 19.0170 -0.0594
57.1200 19.0237 -0.0566
57.1400 19.0303 -0.0548
57.1600 19.0369 -0.0564
57.1800 19.0435 -0.0554
57.2000 19.0502 -0.0518
57.2200 19.0569 -0.0613
57.2400 19.0636 -0.0498
57.2600 19.0703 -0.0577
57.2800 19.0770 -0.0592
57.3000 19.0837 -0.0471
57.3200 19.0903 -0.0600
57.3400 19.0969 -0.0626
57.3600 19.1035 -0.0480
57.3800 19.1102 -0.0581
57.4000 19.1169 -0.0601
57.4200 19.1236 -0.0470
57.4400 19.1303 -0.0606
57.4600 19.1370 -0.0596
57.4800 19.1437 -0.0490
57.5000 19.1503 -0.0552
57.5200 19.1569 -0.0573
57.5400 19.1635 -0.0485
57.5600 19.1703 -0.0609
57.5800 19.1770 -0.0574
57.6000 19.1837 -0.0508
57.6200 19.1903 -0.0608
57.6400 19.1970 -0.0596
57.6600 19.2037 -0.0497
57.6800 19.2103 -0.0602
57.7000 19.2169 -0.0578
57.7200 19.2236 -0.0597
57.7400 19.2303 -0.0557
57.7600 19.2370 -0.0578
57.7800 19.2437 -0.0657
57.8000 19.2504 -0.0563
57.8200 19.2571 -0.0574
57.8400 19.2637 -0.0656
57.8600 19.2703 -0.0566
57.8800 19.2769 -0.0534
57.9000 19.2835 -0.0655
57.9200 19.2902 -0.0555
57.9400 19.2969 -0.0598
57.9600 19.3036 -0.0644
57.9800 19.3103 -0.0517
58.0000 19.3170 -0.0606
58.0200 19.3237 -0.0644
58.0400 19.3303 -0.0533
58.0600 19.3369 -0.0640
58.0800 19.3435 -0.0584
58.1000 19.3502 -0.0579
58.1200 19.3569 -0.0673
58.1400 19.3636 -0.0614
58.1600 19.3703 -0.0545
58.1800 19.3770 -0.0675
58.2000 19.3836 -0.0541
58.2200 19.3903 -0.0561
58.2400 19.3969 -0.0695
58.2600 19.4036 -0.0509
58.2800 19.4102 -0.0610
58.3000 19.4169 -0.0723
58.3200 19.4236 -0.0518
58.3400 19.4303 -0.0605
58.3600 19.4370 -0.0714
58.3800 19.4437 -0.0550
58.4000 19.4503 -0.0627
58.4200 19.4569 -0.0680
58.4400 19.4636 -0.0560
58.4600 19.4703 -0.0648
58.4800 19.4770 -0.0645
58.5000 19.4837 -0.0549
58.5200 19.4904 -0.0669
58.5400 19.4970 -0.0611
58.5600 19.5037 -0.0579
58.5800 19.5103 -0.0667
58.6000 19.5169 -0.0645
58.6200 19.5235 -0.0585
58.6400 19.5302 -0.0651
58.6600 19.5370 -0.0658
58.6800 19.5436 -0.0600
58.7000 19.5503 -0.0622
58.7200 19.5570 -0.0676
58.7400 19.5637 -0.0659
58.7600 19.5703 -0.0678
58.7800 19.5769 -0.0636
58.8000 19.5835 -0.0627
58.8200 19.5902 -0.0655
58.8400 19.5969 -0.0649
58.8600 19.6036 -0.0626
58.8800 19.6103 -0.0635
58.9000 19.6170 -0.0688
58.9200 19.6236 -0.0657
58.9400 19.6303 -0.0665
58.9600 19.6369 -0.0682
58.9800 19.6435 -0.0688
59.0000 19.6502 -0.0648
59.0200 19.6570 -0.0659
59.0400 19.6637 -0.0706
59.0600 19.6703 -0.0671
59.0800 19.6770 -0.0647
59.1000 19.6837 -0.0712
59.1200 19.6903 -0.0690
59.1400 19.6970 -0.0664
59.1600 19.7036 -0.0714
59.1800 19.7103 -0.0708
59.2000 19.7170 -0.0686
59.2200 19.7237 -0.0726
59.2400 19.7304 -0.0690
59.2600 19.7370 -0.0712
59.2800 19.7437 -0.0752
59.3000 19.7502 -0.0775
