Raw Data
Time Displacement Force
(s) (mm) (N)
0.0000 0.0000 0.1337
0.0200 0.0000 0.1287
0.0400 0.0008 0.1579
0.0600 0.0041 0.1780
0.0800 0.0095 0.1302
0.1000 0.0153 0.1250
0.1200 0.0212 0.1611
0.1400 0.0279 0.1374
0.1600 0.0352 0.1347
0.1800 0.0426 0.1486
0.2000 0.0498 0.1295
0.2200 0.0567 0.1338
0.2400 0.0634 0.1478
0.2600 0.0700 0.1393
0.2800 0.0767 0.1450
0.3000 0.0834 0.1595
0.3200 0.0901 0.1385
0.3400 0.0969 0.1526
0.3600 0.1035 0.1555
0.3800 0.1102 0.1504
0.4000 0.1168 0.1598
0.4200 0.1235 0.1615
0.4400 0.1302 0.1509
0.4600 0.1369 0.1560
0.4800 0.1436 0.1685
0.5000 0.1503 0.1600
0.5200 0.1569 0.1577
0.5400 0.1636 0.1704
0.5600 0.1701 0.1587
0.5800 0.1768 0.1660
0.6000 0.1835 0.1703
0.6200 0.1902 0.1641
0.6400 0.1969 0.1705
0.6600 0.2036 0.1676
0.6800 0.2102 0.1684
0.7000 0.2169 0.1724
0.7200 0.2236 0.1708
0.7400 0.2302 0.1708
0.7600 0.2368 0.1731
0.7800 0.2435 0.1690
0.8000 0.2502 0.1730
0.8200 0.2569 0.1716
0.8400 0.2635 0.1748
0.8600 0.2702 0.1766
0.8800 0.2769 0.1734
0.9000 0.2835 0.1751
0.9200 0.2901 0.1809
0.9400 0.2967 0.1727
0.9600 0.3034 0.1780
0.9800 0.3101 0.1776
1.0000 0.3168 0.1751
1.0200 0.3235 0.1764
1.0400 0.3302 0.1768
1.0600 0.3369 0.1728
1.0800 0.3435 0.1782
1.1000 0.3501 0.1821
1.1200 0.3568 0.1757
1.1400 0.3635 0.1765
1.1600 0.3702 0.1809
1.1800 0.3769 0.1742
1.2000 0.3836 0.1745
1.2200 0.3903 0.1803
1.2400 0.3970 0.1732
1.2600 0.4036 0.1720
1.2800 0.4102 0.1783
1.3000 0.4168 0.1765
1.3200 0.4235 0.1756
1.3400 0.4302 0.1757
1.3600 0.4369 0.1717
1.3800 0.4436 0.1770
1.4000 0.4503 0.1762
1.4200 0.4569 0.1737
1.4400 0.4635 0.1719
1.4600 0.4701 0.1736
1.4800 0.4768 0.1696
1.5000 0.4834 0.1772
1.5200 0.4902 0.1685
1.5400 0.4969 0.1681
1.5600 0.5035 0.1775
1.5800 0.5102 0.1665
1.6000 0.5169 0.1692
1.6200 0.5235 0.1739
1.6400 0.5301 0.1666
1.6600 0.5368 0.1713
1.6800 0.5435 0.1716
1.7000 0.5502 0.1638
1.7200 0.5569 0.1693
1.7400 0.5635 0.1756
1.7600 0.5702 0.1603
1.7800 0.5769 0.1709
1.8000 0.5836 0.1702
1.8200 0.5902 0.1663
1.8400 0.5968 0.1734
1.8600 0.6035 0.1644
1.8800 0.6102 0.1663
1.9000 0.6169 0.1698
1.9200 0.6236 0.1693
1.9400 0.6303 0.1710
1.9600 0.6369 0.1676
1.9800 0.6436 0.1573
2.0000 0.6502 0.1736
2.0200 0.6568 0.1693
2.0400 0.6635 0.1673
2.0600 0.6702 0.1698
2.0800 0.6769 0.1612
2.1000 0.6836 0.1662
2.1200 0.6903 0.1733
2.1400 0.6969 0.1641
2.1600 0.7036 0.1701
2.1800 0.7102 0.1737
2.2000 0.7168 0.1629
2.2200 0.7235 0.1726
2.2400 0.7302 0.1733
2.2600 0.7369 0.1605
2.2800 0.7436 0.1717
2.3000 0.7502 0.1708
2.3200 0.7569 0.1670
2.3400 0.7636 0.1703
2.3600 0.7702 0.1646
2.3800 0.7768 0.1672
2.4000 0.7834 0.1739
2.4200 0.7901 0.1703
2.4400 0.7968 0.1651
2.4600 0.8035 0.1719
2.4800 0.8102 0.1646
2.5000 0.8169 0.1735
2.5200 0.8236 0.1705
2.5400 0.8302 0.1626
2.5600 0.8368 0.1716
2.5800 0.8435 0.1688
2.6000 0.8502 0.1625
2.6200 0.8569 0.1721
2.6400 0.8636 0.1671
2.6600 0.8703 0.1610
2.6800 0.8769 0.1684
2.7000 0.8836 0.1665
2.7200 0.8902 0.1605
2.7400 0.8968 0.1802
2.7600 0.9035 0.1591
2.7800 0.9102 0.1625
2.8000 0.9169 0.1795
2.8200 0.9236 0.1544
2.8400 0.9303 0.1641
2.8600 0.9370 0.1761
2.8800 0.9436 0.1563
2.9000 0.9502 0.1669
2.9200 0.9568 0.1726
2.9400 0.9634 0.1566
2.9600 0.9701 0.1700
2.9800 0.9769 0.1673
3.0000 0.9835 0.1598
3.0200 0.9902 0.1646
3.0400 0.9969 0.1661
3.0600 1.0036 0.1577
3.0800 1.0102 0.1676
3.1000 1.0168 0.1645
3.1200 1.0234 0.1639
3.1400 1.0301 0.1652
3.1600 1.0368 0.1612
3.1800 1.0435 0.1638
3.2000 1.0502 0.1655
3.2200 1.0569 0.1612
3.2400 1.0636 0.1637
3.2600 1.0702 0.1569
3.2800 1.0768 0.1697
3.3000 1.0835 0.1592
3.3200 1.0902 0.1557
3.3400 1.0969 0.1711
3.3600 1.1036 0.1574
3.3800 1.1103 0.1609
3.4000 1.1170 0.1667
3.4200 1.1236 0.1567
3.4400 1.1302 0.1586
3.4600 1.1368 0.1701
3.4800 1.1435 0.1605
3.5000 1.1502 0.1607
3.5200 1.1569 0.1624
3.5400 1.1636 0.1549
3.5600 1.1703 0.1654
3.5800 1.1769 0.1659
3.6000 1.1836 0.1540
3.6200 1.1902 0.1633
3.6400 1.1968 0.1634
3.6600 1.2035 0.1651
3.6800 1.2102 0.1575
3.7000 1.2169 0.1609
3.7200 1.2236 0.1619
3.7400 1.2302 0.1572
3.7600 1.2369 0.1670
3.7800 1.2436 0.1619
3.8000 1.2502 0.1532
3.8200 1.2568 0.1653
3.8400 1.2635 0.1638
3.8600 1.2702 0.1596
3.8800 1.2769 0.1609
3.9000 1.2835 0.1627
3.9200 1.2902 0.1567
3.9400 1.2969 0.1590
3.9600 1.3036 0.1629
3.9800 1.3102 0.1558
4.0000 1.3168 0.1588
4.0200 1.3235 0.1588
4.0400 1.3301 0.1604
4.0600 1.3369 0.1597
4.0800 1.3436 0.1661
4.1000 1.3502 0.1553
4.1200 1.3569 0.1569
4.1400 1.3636 0.1632
4.1600 1.3702 0.1550
4.1800 1.3768 0.1567
4.2000 1.3835 0.1666
4.2200 1.3902 0.1487
4.2400 1.3969 0.1608
4.2600 1.4036 0.1627
4.2800 1.4103 0.1513
4.3000 1.4169 0.1621
4.3200 1.4236 0.1626
4.3400 1.4302 0.1524
4.3600 1.4368 0.1630
4.3800 1.4435 0.1599
4.4000 1.4502 0.1529
4.4200 1.4569 0.1618
4.4400 1.4635 0.1569
4.4600 1.4702 0.1568
4.4800 1.4769 0.1590
4.5000 1.4836 0.1556
4.5200 1.4902 0.1581
4.5400 1.4968 0.1598
4.5600 1.5034 0.1537
4.5800 1.5101 0.1597
4.6000 1.5168 0.1530
4.6200 1.5235 0.1615
4.6400 1.5302 0.1594
4.6600 1.5369 0.1507
4.6800 1.5436 0.1525
4.7000 1.5502 0.1604
4.7200 1.5568 0.1565
4.7400 1.5635 0.1562
4.7600 1.5702 0.1552
4.7800 1.5769 0.1526
4.8000 1.5836 0.1541
4.8200 1.5903 0.1588
4.8400 1.5969 0.1476
4.8600 1.6036 0.1612
4.8800 1.6102 0.1528
4.9000 1.6168 0.1458
4.9200 1.6235 0.1590
4.9400 1.6302 0.1579
4.9600 1.6369 0.1495
4.9800 1.6436 0.1489
5.0000 1.6503 0.1577
5.0200 1.6569 0.1525
5.0400 1.6636 0.1467
5.0600 1.6702 0.1456
5.0800 1.6768 0.1557
5.1000 1.6834 0.1523
5.1200 1.6901 0.1484
5.1400 1.6968 0.1518
5.1600 1.7035 0.1546
5.1800 1.7102 0.1489
5.2000 1.7169 0.1520
5.2200 1.7236 0.1473
5.2400 1.7302 0.1554
5.2600 1.7368 0.1524
5.2800 1.7434 0.1452
5.3000 1.7501 0.1535
5.3200 1.7569 0.1529
5.3400 1.7636 0.1439
5.3600 1.7702 0.1463
5.3800 1.7769 0.1512
5.4000 1.7835 0.1460
5.4200 1.7902 0.1523
5.4400 1.7968 0.1515
5.4600 1.8035 0.1422
5.4800 1.8102 0.1537
5.5000 1.8169 0.1517
5.5200 1.8236 0.1424
5.5400 1.8302 0.1549
5.5600 1.8369 0.1474
5.5800 1.8436 0.1435
5.6000 1.8503 0.1530
5.6200 1.8568 0.1510
5.6400 1.8635 0.1427
5.6600 1.8702 0.1522
5.6800 1.8769 0.1460
5.7000 1.8836 0.1393
5.7200 1.8903 0.1554
5.7400 1.8969 0.1491
5.7600 1.9036 0.1285
5.7800 1.9102 0.1536
5.8000 1.9168 0.1470
5.8200 1.9234 0.1430
5.8400 1.9301 0.1529
5.8600 1.9368 0.1388
5.8800 1.9435 0.1415
5.9000 1.9502 0.1568
5.9200 1.9569 0.1408
5.9400 1.9635 0.1363
5.9600 1.9702 0.1535
5.9800 1.9768 0.1386
6.0000 1.9834 0.1453
6.0200 1.9901 0.1545
6.0400 1.9968 0.1399
6.0600 2.0035 0.1405
6.0800 2.0102 0.1452
6.1000 2.0169 0.1399
6.1200 2.0236 0.1479
6.1400 2.0303 0.1430
6.1600 2.0369 0.1357
6.1800 2.0435 0.1396
6.2000 2.0501 0.1505
6.2200 2.0568 0.1367
6.2400 2.0635 0.1442
6.2600 2.0702 0.1425
6.2800 2.0769 0.1398
6.3000 2.0836 0.1467
6.3200 2.0903 0.1414
6.3400 2.0968 0.1359
6.3600 2.1035 0.1479
6.3800 2.1101 0.1452
6.4000 2.1169 0.1397
6.4200 2.1236 0.1438
6.4400 2.1302 0.1409
6.4600 2.1369 0.1363
6.4800 2.1436 0.1445
6.5000 2.1503 0.1414
6.5200 2.1569 0.1377
6.5400 2.1635 0.1440
6.5600 2.1702 0.1423
6.5800 2.1768 0.1387
6.6000 2.1835 0.1424
6.6200 2.1902 0.1406
6.6400 2.1969 0.1358
6.6600 2.2036 0.1451
6.6800 2.2102 0.1399
6.7000 2.2168 0.1368
6.7200 2.2234 0.1417
6.7400 2.2301 0.1443
6.7600 2.2368 0.1317
6.7800 2.2435 0.1438
6.8000 2.2502 0.1388
6.8200 2.2569 0.1342
6.8400 2.2636 0.1429
6.8600 2.2702 0.1412
6.8800 2.2768 0.1347
6.9000 2.2835 0.1457
6.9200 2.2901 0.1402
6.9400 2.2968 0.1324
6.9600 2.3035 0.1404
6.9800 2.3102 0.1392
7.0000 2.3169 0.1381
7.0200 2.3236 0.1438
7.0400 2.3303 0.1299
7.0600 2.3369 0.1356
7.0800 2.3435 0.1479
7.1000 2.3502 0.1313
7.1200 2.3568 0.1375
7.1400 2.3635 0.1410
7.1600 2.3702 0.1334
7.1800 2.3769 0.1336
7.2000 2.3836 0.1439
7.2200 2.3903 0.1290
7.2400 2.3969 0.1316
7.2600 2.4035 0.1431
7.2800 2.4101 0.1362
7.3000 2.4168 0.1311
7.3200 2.4236 0.1427
7.3400 2.4303 0.1351
7.3600 2.4369 0.1381
7.3800 2.4436 0.1325
7.4000 2.4502 0.1311
7.4200 2.4568 0.1408
7.4400 2.4634 0.1357
7.4600 2.4701 0.1308
7.4800 2.4768 0.1378
7.5000 2.4835 0.1347
7.5200 2.4902 0.1332
7.5400 2.4969 0.1364
7.5600 2.5036 0.1358
7.5800 2.5102 0.1319
7.6000 2.5169 0.1384
7.6200 2.5235 0.1304
7.6400 2.5301 0.1314
7.6600 2.5368 0.1427
7.6800 2.5435 0.1303
7.7000 2.5502 0.1354
7.7200 2.5569 0.1334
7.7400 2.5636 0.1345
7.7600 2.5703 0.1347
7.7800 2.5769 0.1338
7.8000 2.5835 0.1337
7.8200 2.5902 0.1369
7.8400 2.5969 0.1292
7.8600 2.6036 0.1335
7.8800 2.6103 0.1403
7.9000 2.6169 0.1295
7.9200 2.6236 0.1324
7.9400 2.6302 0.1375
7.9600 2.6368 0.1265
7.9800 2.6435 0.1424
8.0000 2.6501 0.1360
8.0200 2.6568 0.1283
8.0400 2.6635 0.1323
8.0600 2.6702 0.1348
8.0800 2.6769 0.1311
8.1000 2.6836 0.1391
8.1200 2.6902 0.1290
8.1400 2.6969 0.1228
8.1600 2.7035 0.1392
8.1800 2.7101 0.1332
8.2000 2.7168 0.1315
8.2200 2.7235 0.1322
8.2400 2.7302 0.1281
8.2600 2.7369 0.1346
8.2800 2.7436 0.1226
8.3000 2.7503 0.1171
8.3200 2.7569 0.1495
8.3400 2.7635 0.1322
8.3600 2.7701 0.1133
8.3800 2.7768 0.1367
8.4000 2.7835 0.1328
8.4200 2.7902 0.1231
8.4400 2.7969 0.1480
8.4600 2.8036 0.1115
8.4800 2.8103 0.1207
8.5000 2.8169 0.1592
8.5200 2.8235 0.1134
8.5400 2.8301 0.1193
8.5600 2.8368 0.1494
8.5800 2.8436 0.1181
8.6000 2.8503 0.1360
8.6200 2.8569 0.1336
8.6400 2.8636 0.1100
8.6600 2.8703 0.1504
8.6800 2.8769 0.1366
8.7000 2.8835 0.1035
8.7200 2.8901 0.1439
8.7400 2.8968 0.1258
8.7600 2.9035 0.1193
8.7800 2.9102 0.1578
8.8000 2.9169 0.1024
8.8200 2.9236 0.1249
8.8400 2.9302 0.1501
8.8600 2.9368 0.1015
8.8800 2.9434 0.1467
8.9000 2.9501 0.1468
8.9200 2.9568 0.0896
8.9400 2.9635 0.1457
8.9600 2.9702 0.1372
8.9800 2.9768 0.1059
9.0000 2.9835 0.1516
9.0200 2.9902 0.1270
9.0400 2.9969 0.1087
9.0600 3.0035 0.1546
9.0800 3.0101 0.1111
9.1000 3.0168 0.1244
9.1200 3.0235 0.1615
9.1400 3.0303 0.1044
9.1600 3.0369 0.1245
9.1800 3.0436 0.1499
9.2000 3.0503 0.1083
9.2200 3.0569 0.1357
9.2400 3.0635 0.1456
9.2600 3.0701 0.1101
9.2800 3.0768 0.1356
9.3000 3.0835 0.1320
9.3200 3.0902 0.1227
9.3400 3.0969 0.1444
9.3600 3.1036 0.1300
9.3800 3.1103 0.1186
9.4000 3.1169 0.1402
9.4200 3.1235 0.1173
9.4400 3.1301 0.1317
9.4600 3.1368 0.1419
9.4800 3.1435 0.1197
9.5000 3.1502 0.1233
9.5200 3.1569 0.1344
9.5400 3.1636 0.1255
9.5600 3.1703 0.1315
9.5800 3.1769 0.1306
9.6000 3.1835 0.1248
9.6200 3.1901 0.1259
9.6400 3.1968 0.1339
9.6600 3.2035 0.1241
9.6800 3.2102 0.1271
9.7000 3.2169 0.1288
9.7200 3.2235 0.1203
9.7400 3.2302 0.1316
9.7600 3.2369 0.1284
9.7800 3.2435 0.1230
9.8000 3.2501 0.1280
9.8200 3.2568 0.1322
9.8400 3.2635 0.1234
9.8600 3.2703 0.1288
9.8800 3.2769 0.1275
9.9000 3.2836 0.1249
9.9200 3.2903 0.1242
9.9400 3.2969 0.1265
9.9600 3.3035 0.1229
9.9800 3.3101 0.1274
10.0000 3.3168 0.1300
10.0200 3.3236 0.1241
10.0400 3.3303 0.1206
10.0600 3.3369 0.1358
10.0800 3.3436 0.1257
10.1000 3.3503 0.1270
10.1200 3.3569 0.1281
10.1400 3.3635 0.1197
10.1600 3.3701 0.1241
10.1800 3.3768 0.1335
10.2000 3.3835 0.1240
10.2200 3.3902 0.1243
10.2400 3.3969 0.1281
10.2600 3.4036 0.1239
10.2800 3.4102 0.1241
10.3000 3.4169 0.1313
10.3200 3.4235 0.1201
10.3400 3.4301 0.1227
10.3600 3.4368 0.1318
10.3800 3.4435 0.1209
10.4000 3.4502 0.1248
10.4200 3.4569 0.1262
10.4400 3.4635 0.1224
10.4600 3.4702 0.1190
10.4800 3.4769 0.1298
10.5000 3.4835 0.1209
10.5200 3.4901 0.1235
10.5400 3.4968 0.1264
10.5600 3.5035 0.1195
10.5800 3.5102 0.1191
10.6000 3.5169 0.1298
10.6200 3.5236 0.1198
10.6400 3.5303 0.1190
10.6600 3.5369 0.1227
10.6800 3.5435 0.1162
10.7000 3.5501 0.1243
10.7200 3.5568 0.1248
10.7400 3.5635 0.1184
10.7600 3.5702 0.1215
10.7800 3.5769 0.1212
10.8000 3.5836 0.1209
10.8200 3.5903 0.1211
10.8400 3.5969 0.1196
10.8600 3.6035 0.1219
10.8800 3.6101 0.1227
10.9000 3.6168 0.1193
10.9200 3.6235 0.1216
10.9400 3.6302 0.1227
10.9600 3.6369 0.1151
10.9800 3.6436 0.1181
11.0000 3.6503 0.1222
11.0200 3.6569 0.1201
11.0400 3.6635 0.1113
11.0600 3.6701 0.1217
11.0800 3.6768 0.1203
11.1000 3.6835 0.1187
11.1200 3.6902 0.1141
11.1400 3.6969 0.1216
11.1600 3.7035 0.1179
11.1800 3.7102 0.1135
11.2000 3.7169 0.1183
11.2200 3.7235 0.1245
11.2400 3.7301 0.1196
11.2600 3.7368 0.1130
11.2800 3.7435 0.1157
11.3000 3.7502 0.1225
11.3200 3.7569 0.1201
11.3400 3.7636 0.1135
11.3600 3.7703 0.1203
11.3800 3.7770 0.1139
11.4000 3.7835 0.1107
11.4200 3.7901 0.1239
11.4400 3.7968 0.1248
11.4600 3.8035 0.1096
11.4800 3.8103 0.1150
11.5000 3.8169 0.1154
11.5200 3.8236 0.1253
11.5400 3.8303 0.1170
11.5600 3.8369 0.1123
11.5800 3.8435 0.1135
11.6000 3.8501 0.1288
11.6200 3.8568 0.1128
11.6400 3.8635 0.1130
11.6600 3.8702 0.1283
11.6800 3.8769 0.1105
11.7000 3.8835 0.1129
11.7200 3.8902 0.1291
11.7400 3.8969 0.1121
11.7600 3.9035 0.1110
11.7800 3.9101 0.1184
11.8000 3.9167 0.1163
11.8200 3.9234 0.1275
11.8400 3.9302 0.1166
11.8600 3.9369 0.1055
11.8800 3.9435 0.1271
11.9000 3.9502 0.1152
11.9200 3.9569 0.1113
11.9400 3.9635 0.1314
11.9600 3.9701 0.1128
11.9800 3.9768 0.1094
12.0000 3.9835 0.1194
12.0200 3.9902 0.1178
12.0400 3.9969 0.1197
12.0600 4.0036 0.1213
12.0800 4.0103 0.1073
12.1000 4.0169 0.1185
12.1200 4.0235 0.1239
12.1400 4.0302 0.1099
12.1600 4.0368 0.1148
12.1800 4.0435 0.1244
12.2000 4.0502 0.1060
12.2200 4.0569 0.1194
12.2400 4.0636 0.1188
12.2600 4.0703 0.1117
12.2800 4.0770 0.1176
12.3000 4.0836 0.1109
12.3200 4.0901 0.1171
12.3400 4.0968 0.1222
12.3600 4.1035 0.1088
12.3800 4.1102 0.1130
12.4000 4.1169 0.1179
12.4200 4.1236 0.1079
12.4400 4.1303 0.1180
12.4600 4.1369 0.1172
12.4800 4.1435 0.1091
12.5000 4.1501 0.1185
12.5200 4.1568 0.1163
12.5400 4.1635 0.1090
12.5600 4.1702 0.1189
12.5800 4.1769 0.1041
12.6000 4.1835 0.1145
12.6200 4.1902 0.1182
12.6400 4.1969 0.1044
12.6600 4.2035 0.1115
12.6800 4.2102 0.1230
12.7000 4.2168 0.1031
12.7200 4.2235 0.1127
12.7400 4.2302 0.1202
12.7600 4.2369 0.1065
12.7800 4.2436 0.1130
12.8000 4.2503 0.1167
12.8200 4.2570 0.1016
12.8400 4.2636 0.1198
12.8600 4.2701 0.1137
12.8800 4.2768 0.1048
12.9000 4.2835 0.1227
12.9200 4.2902 0.1094
12.9400 4.2969 0.1051
12.9600 4.3036 0.1171
12.9800 4.3103 0.1096
13.0000 4.3169 0.1074
13.0200 4.3235 0.1154
13.0400 4.3302 0.1081
13.0600 4.3368 0.1130
13.0800 4.3435 0.1156
13.1000 4.3502 0.1068
13.1200 4.3569 0.1131
13.1400 4.3636 0.1147
13.1600 4.3702 0.1076
13.1800 4.3769 0.1112
13.2000 4.3835 0.1080
13.2200 4.3901 0.1140
13.2400 4.3968 0.1138
13.2600 4.4034 0.1071
13.2800 4.4102 0.1126
13.3000 4.4169 0.1171
13.3200 4.4236 0.1063
13.3400 4.4303 0.1131
13.3600 4.4369 0.1158
13.3800 4.4435 0.1086
13.4000 4.4501 0.1177
13.4200 4.4568 0.1123
13.4400 4.4635 0.1089
13.4600 4.4702 0.1204
13.4800 4.4769 0.1091
13.5000 4.4836 0.1116
13.5200 4.4903 0.1207
13.5400 4.4969 0.1041
13.5600 4.5035 0.1148
13.5800 4.5102 0.1182
13.6000 4.5168 0.1077
13.6200 4.5235 0.1169
13.6400 4.5302 0.1164
13.6600 4.5369 0.1010
13.6800 4.5436 0.1192
13.7000 4.5502 0.1162
13.7200 4.5569 0.1041
13.7400 4.5635 0.1190
13.7600 4.5701 0.1142
13.7800 4.5768 0.1031
13.8000 4.5834 0.1240
13.8200 4.5902 0.1105
13.8400 4.5969 0.1074
13.8600 4.6035 0.1207
13.8800 4.6103 0.1051
13.9000 4.6169 0.1041
13.9200 4.6235 0.1205
13.9400 4.6301 0.1094
13.9600 4.6368 0.1102
13.9800 4.6434 0.1205
14.0000 4.6502 0.1066
14.0200 4.6569 0.1114
14.0400 4.6636 0.1200
14.0600 4.6702 0.1052
14.0800 4.6769 0.1091
14.1000 4.6835 0.1138
14.1200 4.6901 0.1067
14.1400 4.6968 0.1149
14.1600 4.7035 0.1104
14.1800 4.7102 0.1099
14.2000 4.7169 0.1123
14.2200 4.7236 0.1092
14.2400 4.7303 0.1119
14.2600 4.7369 0.1129
14.2800 4.7436 0.1057
14.3000 4.7502 0.1117
14.3200 4.7568 0.1108
14.3400 4.7635 0.1050
14.3600 4.7702 0.1154
14.3800 4.7769 0.1095
14.4000 4.7836 0.1023
14.4200 4.7903 0.1203
14.4400 4.7970 0.1071
14.4600 4.8036 0.1026
14.4800 4.8102 0.1198
14.5000 4.8168 0.1025
14.5200 4.8235 0.1065
14.5400 4.8302 0.1175
14.5600 4.8369 0.1004
14.5800 4.8435 0.1062
14.6000 4.8502 0.1189
14.6200 4.8569 0.1014
14.6400 4.8635 0.1079
14.6600 4.8701 0.1148
14.6800 4.8768 0.1019
14.7000 4.8834 0.1111
14.7200 4.8902 0.1117
14.7400 4.8969 0.0956
14.7600 4.9035 0.1165
14.7800 4.9102 0.1040
14.8000 4.9169 0.1001
14.8200 4.9235 0.1113
14.8400 4.9302 0.1083
14.8600 4.9368 0.1019
14.8800 4.9435 0.1150
14.9000 4.9502 0.1024
14.9200 4.9569 0.1033
14.9400 4.9636 0.1132
14.9600 4.9703 0.0977
14.9800 4.9770 0.1066
15.0000 4.9836 0.1058
15.0200 4.9902 0.1005
15.0400 4.9968 0.1087
15.0600 5.0035 0.1005
15.0800 5.0102 0.1011
15.1000 5.0169 0.1088
15.1200 5.0236 0.0985
15.1400 5.0303 0.1040
15.1600 5.0369 0.1041
15.1800 5.0436 0.1001
15.2000 5.0502 0.1044
15.2200 5.0568 0.1107
15.2400 5.0635 0.0967
15.2600 5.0702 0.1056
15.2800 5.0769 0.1065
15.3000 5.0836 0.0990
15.3200 5.0902 0.1043
15.3400 5.0969 0.0990
15.3600 5.1036 0.0958
15.3800 5.1102 0.1033
15.4000 5.1168 0.0970
15.4200 5.1234 0.1065
15.4400 5.1301 0.1050
15.4600 5.1368 0.0979
15.4800 5.1435 0.1015
15.5000 5.1502 0.1031
15.5200 5.1569 0.1006
15.5400 5.1635 0.1019
15.5600 5.1701 0.0990
15.5800 5.1768 0.1000
15.6000 5.1835 0.1063
15.6200 5.1902 0.0975
15.6400 5.1969 0.1046
15.6600 5.2036 0.1008
15.6800 5.2103 0.1023
15.7000 5.2170 0.1015
15.7200 5.2236 0.0971
15.7400 5.2302 0.0993
15.7600 5.2369 0.1064
15.7800 5.2435 0.0979
15.8000 5.2502 0.1006
15.8200 5.2569 0.0992
15.8400 5.2636 0.0989
15.8600 5.2703 0.1038
15.8800 5.2770 0.0986
15.9000 5.2836 0.0966
15.9200 5.2902 0.1066
15.9400 5.2968 0.0986
15.9600 5.3035 0.0972
15.9800 5.3102 0.1036
16.0000 5.3169 0.0992
16.0200 5.3236 0.0981
16.0400 5.3302 0.1014
16.0600 5.3369 0.0956
16.0800 5.3436 0.1003
16.1000 5.3501 0.1028
16.1200 5.3568 0.0918
16.1400 5.3634 0.1057
16.1600 5.3702 0.1034
16.1800 5.3769 0.0970
16.2000 5.3836 0.0995
16.2200 5.3902 0.1017
16.2400 5.3969 0.1033
16.2600 5.4036 0.0981
16.2800 5.4102 0.0937
16.3000 5.4168 0.1029
16.3200 5.4235 0.1028
16.3400 5.4302 0.0966
16.3600 5.4369 0.0980
16.3800 5.4436 0.1092
16.4000 5.4503 0.0946
16.4200 5.4570 0.1010
16.4400 5.4636 0.1003
16.4600 5.4702 0.0953
16.4800 5.4768 0.1042
16.5000 5.4834 0.0977
16.5200 5.4902 0.0963
16.5400 5.4969 0.1070
16.5600 5.5036 0.0982
16.5800 5.5103 0.0900
16.6000 5.5169 0.1055
16.6200 5.5236 0.0970
16.6400 5.5302 0.0955
16.6600 5.5368 0.1067
16.6800 5.5434 0.0994
16.7000 5.5502 0.0967
16.7200 5.5569 0.1041
16.7400 5.5636 0.0914
16.7600 5.5702 0.1001
16.7800 5.5769 0.1016
16.8000 5.5836 0.0962
16.8200 5.5902 0.0917
16.8400 5.5968 0.1045
16.8600 5.6035 0.0973
16.8800 5.6101 0.0956
16.9000 5.6168 0.0989
16.9200 5.6235 0.0968
16.9400 5.6302 0.1003
16.9600 5.6369 0.1002
16.9800 5.6436 0.0970
17.0000 5.6502 0.0974
17.0200 5.6568 0.0975
17.0400 5.6635 0.1034
17.0600 5.6702 0.0969
17.0800 5.6769 0.0973
17.1000 5.6836 0.1038
17.1200 5.6903 0.0902
17.1400 5.6969 0.1003
17.1600 5.7036 0.1022
17.1800 5.7102 0.0907
17.2000 5.7168 0.0985
17.2200 5.7235 0.1044
17.2400 5.7302 0.0944
17.2600 5.7369 0.1031
17.2800 5.7436 0.1017
17.3000 5.7502 0.0935
17.3200 5.7569 0.1014
17.3400 5.7636 0.0995
17.3600 5.7702 0.0906
17.3800 5.7768 0.1038
17.4000 5.7834 0.0979
17.4200 5.7901 0.0982
17.4400 5.7968 0.0990
17.4600 5.8035 0.0916
17.4800 5.8102 0.0965
17.5000 5.8169 0.1018
17.5200 5.8236 0.0929
17.5400 5.8302 0.1001
17.5600 5.8368 0.1002
17.5800 5.8434 0.0952
17.6000 5.8501 0.1009
17.6200 5.8568 0.1007
17.6400 5.8635 0.0930
17.6600 5.8702 0.0997
17.6800 5.8769 0.1002
17.7000 5.8836 0.0901
17.7200 5.8902 0.1010
17.7400 5.8968 0.0960
17.7600 5.9035 0.1008
17.7800 5.9102 0.0919
17.8000 5.9169 0.0951
17.8200 5.9236 0.1020
17.8400 5.9303 0.0942
17.8600 5.9370 0.0926
17.8800 5.9437 0.1037
17.9000 5.9503 0.0915
17.9200 5.9569 0.0941
17.9400 5.9635 0.1040
17.9600 5.9702 0.0932
17.9800 5.9769 0.0922
18.0000 5.9836 0.1015
18.0200 5.9903 0.0839
18.0400 5.9969 0.0991
18.0600 6.0036 0.1007
18.0800 6.0102 0.0831
18.1000 6.0168 0.1012
18.1200 6.0234 0.1027
18.1400 6.0301 0.0859
18.1600 6.0369 0.0978
18.1800 6.0436 0.1025
18.2000 6.0502 0.0848
18.2200 6.0569 0.1032
18.2400 6.0636 0.0977
18.2600 6.0702 0.0828
18.2800 6.0768 0.1060
18.3000 6.0835 0.0932
18.3200 6.0902 0.0824
18.3400 6.0969 0.1085
18.3600 6.1035 0.0915
18.3800 6.1102 0.0858
18.4000 6.1169 0.1020
18.4200 6.1236 0.0931
18.4400 6.1302 0.0818
18.4600 6.1368 0.1085
18.4800 6.1435 0.0886
18.5000 6.1501 0.0816
18.5200 6.1569 0.1082
18.5400 6.1636 0.0841
18.5600 6.1703 0.0864
18.5800 6.1769 0.1085
18.6000 6.1836 0.0839
18.6200 6.1902 0.0888
18.6400 6.1968 0.1017
18.6600 6.2035 0.0852
18.6800 6.2102 0.0930
18.7000 6.2169 0.0992
18.7200 6.2236 0.0849
18.7400 6.2303 0.0891
18.7600 6.2369 0.1005
18.7800 6.2436 0.0810
18.8000 6.2502 0.0914
18.8200 6.2568 0.0975
18.8400 6.2635 0.0877
18.8600 6.2702 0.0893
18.8800 6.2769 0.0961
18.9000 6.2835 0.0884
18.9200 6.2902 0.0927
18.9400 6.2969 0.0935
18.9600 6.3036 0.0857
18.9800 6.3102 0.0868
19.0000 6.3168 0.0940
19.0200 6.3234 0.0838
19.0400 6.3301 0.0930
19.0600 6.3368 0.0966
19.0800 6.3435 0.0869
19.1000 6.3502 0.0903
19.1200 6.3569 0.0937
19.1400 6.3636 0.0860
19.1600 6.3702 0.0889
19.1800 6.3768 0.0935
19.2000 6.3835 0.0830
19.2200 6.3902 0.0913
19.2400 6.3969 0.0918
19.2600 6.4036 0.0819
19.2800 6.4103 0.0918
19.3000 6.4169 0.0929
19.3200 6.4236 0.0807
19.3400 6.4302 0.0989
19.3600 6.4368 0.0858
19.3800 6.4435 0.0831
19.4000 6.4502 0.0977
19.4200 6.4569 0.0874
19.4400 6.4635 0.0831
19.4600 6.4702 0.0961
19.4800 6.4769 0.0889
19.5000 6.4836 0.0866
19.5200 6.4903 0.0893
19.5400 6.4969 0.0864
19.5600 6.5035 0.0900
19.5800 6.5101 0.0932
19.6000 6.5168 0.0843
19.6200 6.5235 0.0932
19.6400 6.5302 0.0945
19.6600 6.5369 0.0809
19.6800 6.5436 0.0919
19.7000 6.5502 0.0888
19.7200 6.5568 0.0828
19.7400 6.5634 0.0911
19.7600 6.5701 0.0900
19.7800 6.5768 0.0826
19.8000 6.5835 0.0909
19.8200 6.5902 0.0847
19.8400 6.5969 0.0899
19.8600 6.6035 0.0899
19.8800 6.6102 0.0867
19.9000 6.6168 0.0875
19.9200 6.6235 0.0904
19.9400 6.6301 0.0855
19.9600 6.6368 0.0885
19.9800 6.6436 0.0883
20.0000 6.6502 0.0904
20.0200 6.6569 0.0890
20.0400 6.6636 0.0861
20.0600 6.6703 0.0855
20.0800 6.6769 0.0891
20.1000 6.6835 0.0904
20.1200 6.6901 0.0866
20.1400 6.6969 0.0854
20.1600 6.7036 0.0883
20.1800 6.7103 0.0895
20.2000 6.7170 0.0874
20.2200 6.7236 0.0884
20.2400 6.7302 0.0877
20.2600 6.7368 0.0852
20.2800 6.7435 0.0892
20.3000 6.7501 0.0906
20.3200 6.7568 0.0832
20.3400 6.7635 0.0902
20.3600 6.7702 0.0875
20.3800 6.7769 0.0868
20.4000 6.7836 0.0835
20.4200 6.7902 0.0874
20.4400 6.7968 0.0863
20.4600 6.8034 0.0916
20.4800 6.8101 0.0882
20.5000 6.8168 0.0853
20.5200 6.8235 0.0840
20.5400 6.8302 0.0869
20.5600 6.8369 0.0872
20.5800 6.8436 0.0866
20.6000 6.8503 0.0843
20.6200 6.8569 0.0831
20.6400 6.8635 0.0884
20.6600 6.8701 0.0888
20.6800 6.8769 0.0859
20.7000 6.8836 0.0812
20.7200 6.8903 0.0903
20.7400 6.8970 0.0838
20.7600 6.9036 0.0829
20.7800 6.9103 0.0890
20.8000 6.9169 0.0879
20.8200 6.9235 0.0822
20.8400 6.9301 0.0888
20.8600 6.9368 0.0824
20.8800 6.9436 0.0846
20.9000 6.9502 0.0863
20.9200 6.9569 0.0877
20.9400 6.9636 0.0786
20.9600 6.9703 0.0889
20.9800 6.9769 0.0858
21.0000 6.9835 0.0789
21.0200 6.9902 0.0876
21.0400 6.9968 0.0857
21.0600 7.0035 0.0773
21.0800 7.0102 0.0862
21.1000 7.0169 0.0866
21.1200 7.0236 0.0832
21.1400 7.0303 0.0837
21.1600 7.0368 0.0817
21.1800 7.0434 0.0834
21.2000 7.0501 0.0907
21.2200 7.0568 0.0821
21.2400 7.0635 0.0750
21.2600 7.0702 0.0925
21.2800 7.0769 0.0796
21.3000 7.0835 0.0759
21.3200 7.0902 0.0861
21.3400 7.0968 0.0841
21.3600 7.1034 0.0796
21.3800 7.1101 0.0892
21.4000 7.1168 0.0784
21.4200 7.1235 0.0825
21.4400 7.1302 0.0900
21.4600 7.1369 0.0788
21.4800 7.1436 0.0800
21.5000 7.1503 0.0895
21.5200 7.1569 0.0778
21.5400 7.1635 0.0821
21.5600 7.1702 0.0913
21.5800 7.1768 0.0769
21.6000 7.1835 0.0834
21.6200 7.1902 0.0852
21.6400 7.1969 0.0766
21.6600 7.2036 0.0870
21.6800 7.2103 0.0799
21.7000 7.2169 0.0753
21.7200 7.2235 0.0865
21.7400 7.2301 0.0815
21.7600 7.2368 0.0809
21.7800 7.2436 0.0818
21.8000 7.2502 0.0796
21.8200 7.2569 0.0769
21.8400 7.2636 0.0814
21.8600 7.2702 0.0772
21.8800 7.2768 0.0842
21.9000 7.2834 0.0834
21.9200 7.2901 0.0804
21.9400 7.2968 0.0774
21.9600 7.3035 0.0832
21.9800 7.3102 0.0804
22.0000 7.3169 0.0813
22.0200 7.3235 0.0767
22.0400 7.3302 0.0777
22.0600 7.3369 0.0826
22.0800 7.3435 0.0776
22.1000 7.3501 0.0793
22.1200 7.3568 0.0823
22.1400 7.3635 0.0767
22.1600 7.3702 0.0766
22.1800 7.3769 0.0813
22.2000 7.3836 0.0750
22.2200 7.3903 0.0803
22.2400 7.3969 0.0817
22.2600 7.4035 0.0738
22.2800 7.4101 0.0792
22.3000 7.4168 0.0870
22.3200 7.4236 0.0680
22.3400 7.4303 0.0767
22.3600 7.4369 0.0854
22.3800 7.4436 0.0711
22.4000 7.4502 0.0762
22.4200 7.4569 0.0843
22.4400 7.4635 0.0673
22.4600 7.4701 0.0837
22.4800 7.4768 0.0793
22.5000 7.4835 0.0710
22.5200 7.4902 0.0850
22.5400 7.4969 0.0760
22.5600 7.5036 0.0732
22.5800 7.5103 0.0837
22.6000 7.5169 0.0735
22.6200 7.5235 0.0778
22.6400 7.5301 0.0808
22.6600 7.5368 0.0768
22.6800 7.5435 0.0765
22.7000 7.5502 0.0747
22.7200 7.5569 0.0783
22.7400 7.5636 0.0762
22.7600 7.5703 0.0752
22.7800 7.5769 0.0734
22.8000 7.5835 0.0800
22.8200 7.5901 0.0752
22.8400 7.5968 0.0780
22.8600 7.6035 0.0744
22.8800 7.6102 0.0793
22.9000 7.6169 0.0754
22.9200 7.6236 0.0776
22.9400 7.6303 0.0768
22.9600 7.6369 0.0713
22.9800 7.6435 0.0748
23.0000 7.6502 0.0785
23.0200 7.6568 0.0731
23.0400 7.6635 0.0759
23.0600 7.6702 0.0786
23.0800 7.6769 0.0738
23.1000 7.6836 0.0763
23.1200 7.6903 0.0733
23.1400 7.6969 0.0744
23.1600 7.7035 0.0798
23.1800 7.7101 0.0750
23.2000 7.7168 0.0717
23.2200 7.7235 0.0778
23.2400 7.7302 0.0713
23.2600 7.7369 0.0747
23.2800 7.7436 0.0793
23.3000 7.7503 0.0714
23.3200 7.7569 0.0702
23.3400 7.7634 0.0768
23.3600 7.7701 0.0708
23.3800 7.7768 0.0784
23.4000 7.7835 0.0748
23.4200 7.7902 0.0701
23.4400 7.7968 0.0772
23.4600 7.8035 0.0738
23.4800 7.8102 0.0695
23.5000 7.8169 0.0796
23.5200 7.8235 0.0725
23.5400 7.8301 0.0717
23.5600 7.8368 0.0800
23.5800 7.8435 0.0721
23.6000 7.8502 0.0727
23.6200 7.8569 0.0801
23.6400 7.8636 0.0707
23.6600 7.8703 0.0724
23.6800 7.8769 0.0788
23.7000 7.8835 0.0716
23.7200 7.8901 0.0799
23.7400 7.8968 0.0741
23.7600 7.9035 0.0710
23.7800 7.9103 0.0745
23.8000 7.9170 0.0758
23.8200 7.9236 0.0696
23.8400 7.9303 0.0776
23.8600 7.9369 0.0693
23.8800 7.9435 0.0712
23.9000 7.9501 0.0777
23.9200 7.9568 0.0726
23.9400 7.9635 0.0729
23.9600 7.9702 0.0719
23.9800 7.9769 0.0680
24.0000 7.9836 0.0759
24.0200 7.9903 0.0738
24.0400 7.9969 0.0671
24.0600 8.0035 0.0763
24.0800 8.0101 0.0729
24.1000 8.0168 0.0703
24.1200 8.0235 0.0768
24.1400 8.0302 0.0675
24.1600 8.0369 0.0746
24.1800 8.0435 0.0759
24.2000 8.0502 0.0632
24.2200 8.0569 0.0783
24.2400 8.0635 0.0695
24.2600 8.0701 0.0650
24.2800 8.0768 0.0786
24.3000 8.0835 0.0717
24.3200 8.0902 0.0633
24.3400 8.0969 0.0798
24.3600 8.1036 0.0697
24.3800 8.1103 0.0661
24.4000 8.1169 0.0782
24.4200 8.1235 0.0687
24.4400 8.1301 0.0674
24.4600 8.1368 0.0766
24.4800 8.1436 0.0638
24.5000 8.1503 0.0702
24.5200 8.1569 0.0740
24.5400 8.1636 0.0691
24.5600 8.1703 0.0729
24.5800 8.1769 0.0701
24.6000 8.1835 0.0683
24.6200 8.1901 0.0746
24.6400 8.1968 0.0710
24.6600 8.2035 0.0717
24.6800 8.2102 0.0740
24.7000 8.2169 0.0690
24.7200 8.2235 0.0691
24.7400 8.2302 0.0723
24.7600 8.2369 0.0696
24.7800 8.2435 0.0686
24.8000 8.2501 0.0753
24.8200 8.2568 0.0643
24.8400 8.2635 0.0708
24.8600 8.2702 0.0708
24.8800 8.2769 0.0677
24.9000 8.2836 0.0717
24.9200 8.2902 0.0694
24.9400 8.2969 0.0626
24.9600 8.3035 0.0736
24.9800 8.3101 0.0699
25.0000 8.3168 0.0655
25.0200 8.3235 0.0724
25.0400 8.3302 0.0681
25.0600 8.3369 0.0653
25.0800 8.3436 0.0744
25.1000 8.3503 0.0650
25.1200 8.3569 0.0665
25.1400 8.3635 0.0772
25.1600 8.3701 0.0653
25.1800 8.3768 0.0680
25.2000 8.3835 0.0755
25.2200 8.3902 0.0635
25.2400 8.3969 0.0718
25.2600 8.4036 0.0753
25.2800 8.4103 0.0584
25.3000 8.4169 0.0738
25.3200 8.4235 0.0715
25.3400 8.4301 0.0614
25.3600 8.4368 0.0715
25.3800 8.4435 0.0718
25.4000 8.4502 0.0578
25.4200 8.4569 0.0746
25.4400 8.4636 0.0637
25.4600 8.4702 0.0613
25.4800 8.4769 0.0744
25.5000 8.4835 0.0660
25.5200 8.4901 0.0659
25.5400 8.4967 0.0751
25.5600 8.5035 0.0637
25.5800 8.5102 0.0661
25.6000 8.5169 0.0718
25.6200 8.5235 0.0639
25.6400 8.5302 0.0641
25.6600 8.5369 0.0678
25.6800 8.5435 0.0654
25.7000 8.5501 0.0669
25.7200 8.5568 0.0697
25.7400 8.5635 0.0641
25.7600 8.5702 0.0698
25.7800 8.5769 0.0664
25.8000 8.5836 0.0656
25.8200 8.5903 0.0610
25.8400 8.5970 0.0639
25.8600 8.6036 0.0656
25.8800 8.6101 0.0667
25.9000 8.6168 0.0644
25.9200 8.6235 0.0699
25.9400 8.6303 0.0623
25.9600 8.6369 0.0650
25.9800 8.6436 0.0660
26.0000 8.6503 0.0687
26.0200 8.6569 0.0661
26.0400 8.6635 0.0635
26.0600 8.6701 0.0631
26.0800 8.6768 0.0660
26.1000 8.6835 0.0631
26.1200 8.6902 0.0600
26.1400 8.6969 0.0691
26.1600 8.7035 0.0672
26.1800 8.7102 0.0657
26.2000 8.7169 0.0641
26.2200 8.7235 0.0633
26.2400 8.7301 0.0639
26.2600 8.7367 0.0669
26.2800 8.7434 0.0617
26.3000 8.7502 0.0633
26.3200 8.7568 0.0631
26.3400 8.7635 0.0654
26.3600 8.7702 0.0623
26.3800 8.7769 0.0606
26.4000 8.7835 0.0631
26.4200 8.7901 0.0665
26.4400 8.7968 0.0600
26.4600 8.8035 0.0664
26.4800 8.8102 0.0632
26.5000 8.8169 0.0579
26.5200 8.8236 0.0652
26.5400 8.8303 0.0660
26.5600 8.8370 0.0585
26.5800 8.8436 0.0670
26.6000 8.8502 0.0617
26.6200 8.8568 0.0580
26.6400 8.8635 0.0738
26.6600 8.8702 0.0602
26.6800 8.8769 0.0571
26.7000 8.8836 0.0704
26.7200 8.8903 0.0589
26.7400 8.8970 0.0551
26.7600 8.9036 0.0693
26.7800 8.9102 0.0615
26.8000 8.9168 0.0593
26.8200 8.9235 0.0666
26.8400 8.9302 0.0556
26.8600 8.9369 0.0633
26.8800 8.9436 0.0681
26.9000 8.9502 0.0497
26.9200 8.9569 0.0637
26.9400 8.9635 0.0627
26.9600 8.9701 0.0570
26.9800 8.9768 0.0631
27.0000 8.9835 0.0648
27.0200 8.9902 0.0561
27.0400 8.9969 0.0611
27.0600 9.0035 0.0635
27.0800 9.0102 0.0589
27.1000 9.0169 0.0608
27.1200 9.0235 0.0624
27.1400 9.0302 0.0632
27.1600 9.0368 0.0627
27.1800 9.0435 0.0587
27.2000 9.0502 0.0644
27.2200 9.0569 0.0667
27.2400 9.0636 0.0553
27.2600 9.0703 0.0663
27.2800 9.0770 0.0628
27.3000 9.0836 0.0563
27.3200 9.0902 0.0631
27.3400 9.0968 0.0661
27.3600 9.1035 0.0552
27.3800 9.1102 0.0633
27.4000 9.1169 0.0614
27.4200 9.1236 0.0582
27.4400 9.1303 0.0641
27.4600 9.1369 0.0604
27.4800 9.1436 0.0525
27.5000 9.1502 0.0679
27.5200 9.1568 0.0611
27.5400 9.1635 0.0567
27.5600 9.1702 0.0640
27.5800 9.1769 0.0622
27.6000 9.1836 0.0554
27.6200 9.1902 0.0628
27.6400 9.1969 0.0621
27.6600 9.2036 0.0561
27.6800 9.2101 0.0662
27.7000 9.2168 0.0563
27.7200 9.2234 0.0577
27.7400 9.2301 0.0675
27.7600 9.2369 0.0578
27.7800 9.2436 0.0561
27.8000 9.2502 0.0655
27.8200 9.2569 0.0544
27.8400 9.2635 0.0566
27.8600 9.2701 0.0610
27.8800 9.2768 0.0585
27.9000 9.2835 0.0563
27.9200 9.2902 0.0653
27.9400 9.2969 0.0532
27.9600 9.3036 0.0577
27.9800 9.3103 0.0671
28.0000 9.3170 0.0528
28.0200 9.3236 0.0552
28.0400 9.3302 0.0682
28.0600 9.3368 0.0561
28.0800 9.3435 0.0557
28.1000 9.3502 0.0627
28.1200 9.3569 0.0492
28.1400 9.3636 0.0545
28.1600 9.3703 0.0695
28.1800 9.3769 0.0490
28.2000 9.3835 0.0535
28.2200 9.3901 0.0648
28.2400 9.3967 0.0528
28.2600 9.4034 0.0583
28.2800 9.4101 0.0610
28.3000 9.4169 0.0594
28.3200 9.4236 0.0553
28.3400 9.4303 0.0610
28.3600 9.4369 0.0514
28.3800 9.4436 0.0601
28.4000 9.4502 0.0620
28.4200 9.4568 0.0544
28.4400 9.4635 0.0597
28.4600 9.4702 0.0627
28.4800 9.4769 0.0535
28.5000 9.4836 0.0568
28.5200 9.4902 0.0655
28.5400 9.4969 0.0567
28.5600 9.5036 0.0521
28.5800 9.5102 0.0622
28.6000 9.5168 0.0565
28.6200 9.5235 0.0584
28.6400 9.5302 0.0622
28.6600 9.5369 0.0514
28.6800 9.5436 0.0577
28.7000 9.5503 0.0613
28.7200 9.5569 0.0564
28.7400 9.5636 0.0535
28.7600 9.5702 0.0669
28.7800 9.5768 0.0579
28.8000 9.5835 0.0546
28.8200 9.5902 0.0660
28.8400 9.5969 0.0559
28.8600 9.6036 0.0525
28.8800 9.6103 0.0660
28.9000 9.6170 0.0495
28.9200 9.6236 0.0589
28.9400 9.6302 0.0625
28.9600 9.6368 0.0505
28.9800 9.6434 0.0609
29.0000 9.6501 0.0614
29.0200 9.6569 0.0478
29.0400 9.6635 0.0630
29.0600 9.6702 0.0587
29.0800 9.6769 0.0489
29.1000 9.6836 0.0608
29.1200 9.6902 0.0573
29.1400 9.6968 0.0540
29.1600 9.7035 0.0630
29.1800 9.7102 0.0589
29.2000 9.7169 0.0532
29.2200 9.7235 0.0615
29.2400 9.7302 0.0566
29.2600 9.7369 0.0545
29.2800 9.7436 0.0547
29.3000 9.7502 0.0578
29.3200 9.7568 0.0583
29.3400 9.7635 0.0585
29.3600 9.7702 0.0535
29.3800 9.7769 0.0592
29.4000 9.7836 0.0552
29.4200 9.7903 0.0600
29.4400 9.7970 0.0547
29.4600 9.8036 0.0539
29.4800 9.8102 0.0586
29.5000 9.8168 0.0523
29.5200 9.8235 0.0525
29.5400 9.8302 0.0610
29.5600 9.8369 0.0566
29.5800 9.8436 0.0537
29.6000 9.8503 0.0546
29.6200 9.8569 0.0530
29.6400 9.8636 0.0560
29.6600 9.8702 0.0561
29.6800 9.8768 0.0586
29.7000 9.8835 0.0515
29.7200 9.8902 0.0562
29.7400 9.8969 0.0553
29.7600 9.9036 0.0573
29.7800 9.9102 0.0506
29.8000 9.9169 0.0563
29.8200 9.9236 0.0555
29.8400 9.9302 0.0482
29.8600 9.9367 0.0560
29.8800 9.9434 0.0612
29.9000 9.9501 0.0480
29.9200 9.9569 0.0557
29.9400 9.9635 0.0503
29.9600 9.9702 0.0510
29.9800 9.9769 0.0622
30.0000 9.9835 0.0529
30.0200 9.9901 0.0501
30.0400 9.9968 0.0609
30.0600 10.0035 0.0538
30.0800 10.0102 0.0465
30.1000 10.0169 0.0623
30.1200 10.0236 0.0501
30.1400 10.0302 0.0484
30.1600 10.0369 0.0616
30.1800 10.0436 0.0473
30.2000 10.0502 0.0506
30.2200 10.0569 0.0643
30.2400 10.0635 0.0451
30.2600 10.0702 0.0541
30.2800 10.0769 0.0603
30.3000 10.0836 0.0473
30.3200 10.0903 0.0492
30.3400 10.0969 0.0630
30.3600 10.1036 0.0391
30.3800 10.1102 0.0559
30.4000 10.1168 0.0592
30.4200 10.1234 0.0450
30.4400 10.1302 0.0607
30.4600 10.1369 0.0515
30.4800 10.1436 0.0455
30.5000 10.1502 0.0594
30.5200 10.1569 0.0565
30.5400 10.1636 0.0486
30.5600 10.1702 0.0550
30.5800 10.1768 0.0519
30.6000 10.1834 0.0496
30.6200 10.1902 0.0582
30.6400 10.1969 0.0527
30.6600 10.2036 0.0442
30.6800 10.2102 0.0610
30.7000 10.2169 0.0519
30.7200 10.2236 0.0511
30.7400 10.2302 0.0532
30.7600 10.2368 0.0551
30.7800 10.2435 0.0494
30.8000 10.2502 0.0511
30.8200 10.2569 0.0530
30.8400 10.2636 0.0552
30.8600 10.2702 0.0527
30.8800 10.2769 0.0537
30.9000 10.2836 0.0481
30.9200 10.2902 0.0501
30.9400 10.2968 0.0535
30.9600 10.3035 0.0523
30.9800 10.3102 0.0517
31.0000 10.3169 0.0488
31.0200 10.3236 0.0502
31.0400 10.3303 0.0465
31.0600 10.3369 0.0529
31.0800 10.3436 0.0539
31.1000 10.3502 0.0452
31.1200 10.3568 0.0508
31.1400 10.3634 0.0573
31.1600 10.3702 0.0444
31.1800 10.3769 0.0516
31.2000 10.3836 0.0548
31.2200 10.3902 0.0440
31.2400 10.3969 0.0526
31.2600 10.4036 0.0584
31.2800 10.4102 0.0415
31.3000 10.4168 0.0565
31.3200 10.4234 0.0499
31.3400 10.4301 0.0423
31.3600 10.4368 0.0508
31.3800 10.4435 0.0514
31.4000 10.4502 0.0480
31.4200 10.4569 0.0521
31.4400 10.4636 0.0443
31.4600 10.4702 0.0443
31.4800 10.4768 0.0554
31.5000 10.4834 0.0487
31.5200 10.4901 0.0445
31.5400 10.4969 0.0516
31.5600 10.5036 0.0464
31.5800 10.5103 0.0455
31.6000 10.5170 0.0515
31.6200 10.5236 0.0499
31.6400 10.5302 0.0472
31.6600 10.5368 0.0467
31.6800 10.5435 0.0497
31.7000 10.5502 0.0445
31.7200 10.5569 0.0553
31.7400 10.5636 0.0463
31.7600 10.5703 0.0481
31.7800 10.5769 0.0505
31.8000 10.5836 0.0444
31.8200 10.5902 0.0422
31.8400 10.5968 0.0527
31.8600 10.6035 0.0474
31.8800 10.6101 0.0446
31.9000 10.6169 0.0487
31.9200 10.6236 0.0469
31.9400 10.6302 0.0463
31.9600 10.6369 0.0484
31.9800 10.6436 0.0467
32.0000 10.6502 0.0439
32.0200 10.6568 0.0504
32.0400 10.6634 0.0468
32.0600 10.6701 0.0465
32.0800 10.6768 0.0462
32.1000 10.6835 0.0449
32.1200 10.6902 0.0474
32.1400 10.6969 0.0464
32.1600 10.7035 0.0431
32.1800 10.7102 0.0466
32.2000 10.7168 0.0423
32.2200 10.7235 0.0500
32.2400 10.7302 0.0448
32.2600 10.7369 0.0443
32.2800 10.7436 0.0494
32.3000 10.7503 0.0468
32.3200 10.7570 0.0399
32.3400 10.7636 0.0511
32.3600 10.7703 0.0424
32.3800 10.7769 0.0422
32.4000 10.7835 0.0519
32.4200 10.7902 0.0399
32.4400 10.7969 0.0450
32.4600 10.8036 0.0505
32.4800 10.8102 0.0357
32.5000 10.8169 0.0462
32.5200 10.8236 0.0524
32.5400 10.8302 0.0352
32.5600 10.8368 0.0518
32.5800 10.8434 0.0491
32.6000 10.8501 0.0377
32.6200 10.8569 0.0488
32.6400 10.8636 0.0460
32.6600 10.8702 0.0375
32.6800 10.8769 0.0511
32.7000 10.8836 0.0400
32.7200 10.8902 0.0370
32.7400 10.8968 0.0491
32.7600 10.9035 0.0441
32.7800 10.9102 0.0369
32.8000 10.9169 0.0515
32.8200 10.9235 0.0406
32.8400 10.9302 0.0386
32.8600 10.9369 0.0494
32.8800 10.9436 0.0401
32.9000 10.9502 0.0388
32.9200 10.9568 0.0466
32.9400 10.9635 0.0382
32.9600 10.9701 0.0413
32.9800 10.9768 0.0440
33.0000 10.9836 0.0390
33.0200 10.9902 0.0396
33.0400 10.9969 0.0459
33.0600 11.0036 0.0459
33.0800 11.0102 0.0325
33.1000 11.0168 0.0427
33.1200 11.0235 0.0471
33.1400 11.0301 0.0388
33.1600 11.0369 0.0364
33.1800 11.0436 0.0457
33.2000 11.0503 0.0401
33.2200 11.0570 0.0401
33.2400 11.0636 0.0444
33.2600 11.0703 0.0399
33.2800 11.0768 0.0424
33.3000 11.0835 0.0453
33.3200 11.0901 0.0363
33.3400 11.0969 0.0390
33.3600 11.1035 0.0406
33.3800 11.1102 0.0399
33.4000 11.1169 0.0366
33.4200 11.1236 0.0425
33.4400 11.1302 0.0413
33.4600 11.1368 0.0330
33.4800 11.1435 0.0431
33.5000 11.1501 0.0408
33.5200 11.1568 0.0369
33.5400 11.1635 0.0386
33.5600 11.1702 0.0393
33.5800 11.1769 0.0392
33.6000 11.1836 0.0403
33.6200 11.1902 0.0365
33.6400 11.1968 0.0380
33.6600 11.2035 0.0415
33.6800 11.2101 0.0424
33.7000 11.2169 0.0350
33.7200 11.2236 0.0416
33.7400 11.2303 0.0384
33.7600 11.2370 0.0411
33.7800 11.2436 0.0384
33.8000 11.2503 0.0365
33.8200 11.2568 0.0390
33.8400 11.2635 0.0428
33.8600 11.2701 0.0392
33.8800 11.2769 0.0340
33.9000 11.2836 0.0419
33.9200 11.2902 0.0389
33.9400 11.2969 0.0349
33.9600 11.3036 0.0377
33.9800 11.3103 0.0345
34.0000 11.3169 0.0362
34.0200 11.3235 0.0418
34.0400 11.3301 0.0410
34.0600 11.3368 0.0361
34.0800 11.3435 0.0364
34.1000 11.3502 0.0454
34.1200 11.3569 0.0342
34.1400 11.3636 0.0383
34.1600 11.3702 0.0390
34.1800 11.3768 0.0359
34.2000 11.3834 0.0348
34.2200 11.3901 0.0418
34.2400 11.3968 0.0394
34.2600 11.4035 0.0352
34.2800 11.4102 0.0385
34.3000 11.4169 0.0381
34.3200 11.4235 0.0341
34.3400 11.4302 0.0385
34.3600 11.4368 0.0391
34.3800 11.4435 0.0382
34.4000 11.4501 0.0337
34.4200 11.4568 0.0368
34.4400 11.4635 0.0387
34.4600 11.4702 0.0310
34.4800 11.4769 0.0374
34.5000 11.4836 0.0331
34.5200 11.4903 0.0333
34.5400 11.4969 0.0355
34.5600 11.5035 0.0390
34.5800 11.5101 0.0315
34.6000 11.5168 0.0349
34.6200 11.5236 0.0361
34.6400 11.5302 0.0329
34.6600 11.5369 0.0381
34.6800 11.5436 0.0371
34.7000 11.5502 0.0328
34.7200 11.5568 0.0353
34.7400 11.5635 0.0303
34.7600 11.5701 0.0402
34.7800 11.5768 0.0375
34.8000 11.5835 0.0264
34.8200 11.5902 0.0338
34.8400 11.5969 0.0319
34.8600 11.6035 0.0335
34.8800 11.6102 0.0373
34.9000 11.6168 0.0283
34.9200 11.6234 0.0279
34.9400 11.6301 0.0382
34.9600 11.6368 0.0307
34.9800 11.6435 0.0319
35.0000 11.6502 0.0424
35.0200 11.6569 0.0270
35.0400 11.6636 0.0262
35.0600 11.6703 0.0435
35.0800 11.6769 0.0262
35.1000 11.6835 0.0303
35.1200 11.6901 0.0414
35.1400 11.6968 0.0280
35.1600 11.7035 0.0285
35.1800 11.7102 0.0419
35.2000 11.7169 0.0271
35.2200 11.7236 0.0312
35.2400 11.7303 0.0427
35.2600 11.7369 0.0262
35.2800 11.7435 0.0263
35.3000 11.7501 0.0420
35.3200 11.7568 0.0282
35.3400 11.7636 0.0342
35.3600 11.7702 0.0373
35.3800 11.7769 0.0243
35.4000 11.7836 0.0308
35.4200 11.7903 0.0368
35.4400 11.7969 0.0271
35.4600 11.8035 0.0303
35.4800 11.8102 0.0446
35.5000 11.8169 0.0191
35.5200 11.8235 0.0302
35.5400 11.8302 0.0386
35.5600 11.8369 0.0277
35.5800 11.8436 0.0356
35.6000 11.8503 0.0342
35.6200 11.8569 0.0254
35.6400 11.8635 0.0370
35.6600 11.8701 0.0374
35.6800 11.8768 0.0276
35.7000 11.8835 0.0309
35.7200 11.8902 0.0389
35.7400 11.8969 0.0234
35.7600 11.9036 0.0349
35.7800 11.9102 0.0352
35.8000 11.9169 0.0268
35.8200 11.9235 0.0324
35.8400 11.9301 0.0338
35.8600 11.9368 0.0329
35.8800 11.9435 0.0284
35.9000 11.9502 0.0360
35.9200 11.9569 0.0295
35.9400 11.9636 0.0362
35.9600 11.9703 0.0387
35.9800 11.9769 0.0267
36.0000 11.9835 0.0325
36.0200 11.9902 0.0388
36.0400 11.9968 0.0300
36.0600 12.0035 0.0347
36.0800 12.0102 0.0333
36.1000 12.0169 0.0322
36.1200 12.0236 0.0300
36.1400 12.0303 0.0345
36.1600 12.0369 0.0317
36.1800 12.0435 0.0331
36.2000 12.0501 0.0328
36.2200 12.0568 0.0334
36.2400 12.0636 0.0308
36.2600 12.0703 0.0332
36.2800 12.0769 0.0351
36.3000 12.0836 0.0280
36.3200 12.0902 0.0287
36.3400 12.0969 0.0361
36.3600 12.1035 0.0280
36.3800 12.1101 0.0268
36.4000 12.1168 0.0426
36.4200 12.1235 0.0227
36.4400 12.1302 0.0272
36.4600 12.1368 0.0391
36.4800 12.1435 0.0290
36.5000 12.1502 0.0264
36.5200 12.1569 0.0349
36.5400 12.1635 0.0209
36.5600 12.1701 0.0288
36.5800 12.1768 0.0347
36.6000 12.1835 0.0265
36.6200 12.1902 0.0256
36.6400 12.1969 0.0331
36.6600 12.2036 0.0261
36.6800 12.2103 0.0285
36.7000 12.2169 0.0285
36.7200 12.2235 0.0268
36.7400 12.2301 0.0290
36.7600 12.2368 0.0216
36.7800 12.2436 0.0297
36.8000 12.2503 0.0305
36.8200 12.2569 0.0237
36.8400 12.2636 0.0249
36.8600 12.2702 0.0264
36.8800 12.2769 0.0215
36.9000 12.2835 0.0311
36.9200 12.2901 0.0267
36.9400 12.2968 0.0258
36.9600 12.3035 0.0264
36.9800 12.3102 0.0254
37.0000 12.3169 0.0252
37.0200 12.3236 0.0298
37.0400 12.3303 0.0233
37.0600 12.3369 0.0254
37.0800 12.3435 0.0312
37.1000 12.3501 0.0226
37.1200 12.3568 0.0221
37.1400 12.3635 0.0310
37.1600 12.3702 0.0244
37.1800 12.3769 0.0238
37.2000 12.3836 0.0230
37.2200 12.3903 0.0215
37.2400 12.3969 0.0265
37.2600 12.4035 0.0262
37.2800 12.4101 0.0220
37.3000 12.4168 0.0270
37.3200 12.4235 0.0271
37.3400 12.4302 0.0246
37.3600 12.4369 0.0232
37.3800 12.4436 0.0259
37.4000 12.4503 0.0216
37.4200 12.4569 0.0201
37.4400 12.4635 0.0283
37.4600 12.4702 0.0183
37.4800 12.4768 0.0250
37.5000 12.4835 0.0247
37.5200 12.4902 0.0149
37.5400 12.4969 0.0242
37.5600 12.5036 0.0298
37.5800 12.5103 0.0166
37.6000 12.5169 0.0210
37.6200 12.5235 0.0285
37.6400 12.5301 0.0193
37.6600 12.5368 0.0212
37.6800 12.5435 0.0275
37.7000 12.5502 0.0148
37.7200 12.5569 0.0275
37.7400 12.5636 0.0258
37.7600 12.5703 0.0028
37.7800 12.5769 0.0303
37.8000 12.5835 0.0274
37.8200 12.5901 0.0088
37.8400 12.5967 0.0250
37.8600 12.6035 0.0283
37.8800 12.6102 0.0081
37.9000 12.6169 0.0325
37.9200 12.6235 0.0275
37.9400 12.6302 0.0104
37.9600 12.6369 0.0212
37.9800 12.6435 0.0220
38.0000 12.6501 0.0180
38.0200 12.6568 0.0301
38.0400 12.6635 0.0170
38.0600 12.6702 0.0188
38.0800 12.6769 0.0247
38.1000 12.6836 0.0164
38.1200 12.6903 0.0204
38.1400 12.6970 0.0213
38.1600 12.7035 0.0105
38.1800 12.7101 0.0204
38.2000 12.7168 0.0298
38.2200 12.7235 0.0147
38.2400 12.7302 0.0194
38.2600 12.7369 0.0250
38.2800 12.7436 0.0169
38.3000 12.7503 0.0233
38.3200 12.7569 0.0184
38.3400 12.7635 0.0160
38.3600 12.7701 0.0286
38.3800 12.7768 0.0166
38.4000 12.7835 0.0211
38.4200 12.7902 0.0222
38.4400 12.7969 0.0140
38.4600 12.8036 0.0242
38.4800 12.8102 0.0255
38.5000 12.8169 0.0086
38.5200 12.8235 0.0226
38.5400 12.8301 0.0282
38.5600 12.8368 0.0158
38.5800 12.8435 0.0198
38.6000 12.8502 0.0175
38.6200 12.8568 0.0240
38.6400 12.8635 0.0239
38.6600 12.8702 0.0101
38.6800 12.8769 0.0195
38.7000 12.8835 0.0303
38.7200 12.8901 0.0178
38.7400 12.8968 0.0191
38.7600 12.9035 0.0226
38.7800 12.9102 0.0083
38.8000 12.9169 0.0201
38.8200 12.9236 0.0349
38.8400 12.9303 0.0125
38.8600 12.9369 0.0164
38.8800 12.9435 0.0187
38.9000 12.9501 0.0216
38.9200 12.9568 0.0268
38.9400 12.9635 0.0229
38.9600 12.9703 0.0109
38.9800 12.9769 0.0162
39.0000 12.9836 0.0195
39.0200 12.9903 0.0221
39.0400 12.9969 0.0252
39.0600 13.0035 0.0118
39.0800 13.0101 0.0051
39.1000 13.0168 0.0282
39.1200 13.0235 0.0282
39.1400 13.0302 0.0100
39.1600 13.0368 0.0174
39.1800 13.0435 0.0172
39.2000 13.0502 0.0132
39.2200 13.0569 0.0223
39.2400 13.0635 0.0224
39.2600 13.0701 0.0115
39.2800 13.0768 0.0194
39.3000 13.0835 0.0223
39.3200 13.0902 0.0113
39.3400 13.0969 0.0216
39.3600 13.1036 0.0193
39.3800 13.1103 0.0006
39.4000 13.1169 0.0178
39.4200 13.1235 0.0274
39.4400 13.1301 0.0178
39.4600 13.1368 0.0051
39.4800 13.1435 0.0193
39.5000 13.1502 0.0183
39.5200 13.1569 0.0125
39.5400 13.1636 0.0169
39.5600 13.1703 0.0111
39.5800 13.1769 0.0119
39.6000 13.1835 0.0148
39.6200 13.1901 0.0129
39.6400 13.1968 0.0134
39.6600 13.2035 0.0188
39.6800 13.2102 0.0095
39.7000 13.2169 0.0095
39.7200 13.2236 0.0239
39.7400 13.2303 0.0155
39.7600 13.2369 0.0048
39.7800 13.2435 0.0213
39.8000 13.2501 0.0091
39.8200 13.2568 0.0104
39.8400 13.2635 0.0265
39.8600 13.2702 0.0043
39.8800 13.2769 0.0016
39.9000 13.2836 0.0279
39.9200 13.2903 0.0110
39.9400 13.2969 0.0073
39.9600 13.3035 0.0167
39.9800 13.3101 0.0059
40.0000 13.3168 0.0193
40.0200 13.3235 0.0118
40.0400 13.3302 0.0008
40.0600 13.3369 0.0272
40.0800 13.3435 0.0086
40.1000 13.3502 -0.0105
40.1200 13.3569 0.0308
40.1400 13.3635 0.0238
40.1600 13.3701 -0.0075
40.1800 13.3768 0.0158
40.2000 13.3835 0.0197
40.2200 13.3902 0.0041
40.2400 13.3969 0.0218
40.2600 13.4036 0.0058
40.2800 13.4103 0.0031
40.3000 13.4170 0.0148
40.3200 13.4236 0.0129
40.3400 13.4302 0.0141
40.3600 13.4368 0.0156
40.3800 13.4435 0.0019
40.4000 13.4502 0.0077
40.4200 13.4569 0.0189
40.4400 13.4636 0.0087
40.4600 13.4703 0.0071
40.4800 13.4769 0.0166
40.5000 13.4835 0.0007
40.5200 13.4901 0.0145
40.5400 13.4968 0.0222
40.5600 13.5035 0.0043
40.5800 13.5102 0.0045
40.6000 13.5169 0.0072
40.6200 13.5235 0.0169
40.6400 13.5302 0.0170
40.6600 13.5369 0.0119
40.6800 13.5435 0.0005
40.7000 13.5501 0.0157
40.7200 13.5567 0.0115
40.7400 13.5634 0.0128
40.7600 13.5702 0.0136
40.7800 13.5768 0.0059
40.8000 13.5835 0.0107
40.8200 13.5902 0.0170
40.8400 13.5969 0.0047
40.8600 13.6035 0.0176
40.8800 13.6101 0.0104
40.9000 13.6168 0.0015
40.9200 13.6235 0.0159
40.9400 13.6302 0.0218
40.9600 13.6369 0.0015
40.9800 13.6436 0.0053
41.0000 13.6503 0.0216
41.0200 13.6569 0.0019
41.0400 13.6636 0.0107
41.0600 13.6702 0.0232
41.0800 13.6768 -0.0004
41.1000 13.6835 0.0008
41.1200 13.6902 0.0232
41.1400 13.6969 0.0047
41.1600 13.7036 0.0080
41.1800 13.7103 0.0216
41.2000 13.7170 0.0046
41.2200 13.7236 0.0024
41.2400 13.7302 0.0234
41.2600 13.7368 0.0072
41.2800 13.7435 0.0068
41.3000 13.7502 0.0168
41.3200 13.7569 0.0046
41.3400 13.7636 0.0069
41.3600 13.7702 0.0177
41.3800 13.7769 0.0073
41.4000 13.7835 0.0060
41.4200 13.7901 0.0147
41.4400 13.7967 0.0073
41.4600 13.8034 0.0089
41.4800 13.8102 0.0094
41.5000 13.8169 0.0111
41.5200 13.8235 0.0080
41.5400 13.8302 0.0105
41.5600 13.8369 0.0083
41.5800 13.8436 0.0077
41.6000 13.8502 0.0022
41.6200 13.8568 0.0132
41.6400 13.8635 0.0102
41.6600 13.8702 0.0078
41.6800 13.8769 0.0045
41.7000 13.8836 0.0057
41.7200 13.8903 0.0086
41.7400 13.8970 0.0073
41.7600 13.9036 0.0046
41.7800 13.9102 0.0090
41.8000 13.9168 0.0034
41.8200 13.9235 0.0056
41.8400 13.9302 0.0076
41.8600 13.9369 0.0028
41.8800 13.9436 0.0065
41.9000 13.9503 0.0070
41.9200 13.9569 0.0003
41.9400 13.9636 0.0015
41.9600 13.9702 0.0145
41.9800 13.9768 0.0012
42.0000 13.9835 0.0044
42.0200 13.9902 0.0146
42.0400 13.9969 0.0005
42.0600 14.0036 0.0020
42.0800 14.0102 0.0136
42.1000 14.0169 -0.0010
42.1200 14.0236 0.0053
42.1400 14.0302 0.0095
42.1600 14.0368 0.0009
42.1800 14.0434 0.0002
42.2000 14.0501 0.0073
42.2200 14.0568 -0.0020
42.2400 14.0635 0.0021
42.2600 14.0702 0.0085
42.2800 14.0769 -0.0035
42.3000 14.0836 0.0001
42.3200 14.0902 0.0052
42.3400 14.0968 0.0031
42.3600 14.1035 0.0056
42.3800 14.1102 0.0005
42.4000 14.1169 -0.0029
42.4200 14.1236 0.0028
42.4400 14.1303 0.0042
42.4600 14.1370 -0.0031
42.4800 14.1436 0.0001
42.5000 14.1502 0.0030
42.5200 14.1568 -0.0015
42.5400 14.1635 0.0049
42.5600 14.1702 -0.0019
42.5800 14.1769 0.0058
42.6000 14.1836 -0.0001
42.6200 14.1903 -0.0004
42.6400 14.1969 0.0029
42.6600 14.2036 -0.0041
42.6800 14.2102 0.0049
42.7000 14.2168 0.0064
42.7200 14.2234 -0.0009
42.7400 14.2301 -0.0001
42.7600 14.2369 0.0020
42.7800 14.2436 0.0024
42.8000 14.2502 0.0015
42.8200 14.2569 0.0045
42.8400 14.2636 -0.0007
42.8600 14.2702 0.0009
42.8800 14.2768 0.0061
42.9000 14.2834 -0.0041
42.9200 14.2901 0.0068
42.9400 14.2969 0.0049
42.9600 14.3036 -0.0054
42.9800 14.3102 0.0011
43.0000 14.3169 0.0052
43.0200 14.3236 -0.0033
43.0400 14.3302 0.0035
43.0600 14.3368 -0.0001
43.0800 14.3435 -0.0016
43.1000 14.3502 0.0001
43.1200 14.3569 0.0033
43.1400 14.3636 -0.0037
43.1600 14.3703 0.0038
43.1800 14.3770 -0.0042
43.2000 14.3836 -0.0031
43.2200 14.3902 0.0036
43.2400 14.3968 -0.0026
43.2600 14.4035 0.0002
43.2800 14.4102 0.0038
43.3000 14.4169 -0.0026
43.3200 14.4236 -0.0037
43.3400 14.4303 0.0058
43.3600 14.4370 -0.0064
43.3800 14.4436 -0.0032
43.4000 14.4502 0.0053
43.4200 14.4568 -0.0009
43.4400 14.4635 -0.0025
43.4600 14.4702 0.0034
43.4800 14.4769 0.0000
43.5000 14.4836 0.0007
43.5200 14.4902 0.0002
43.5400 14.4969 0.0051
43.5600 14.5036 -0.0051
43.5800 14.5102 -0.0027
43.6000 14.5168 0.0026
43.6200 14.5234 0.0004
43.6400 14.5301 0.0003
43.6600 14.5368 -0.0033
43.6800 14.5435 -0.0018
43.7000 14.5502 -0.0001
43.7200 14.5569 -0.0021
43.7400 14.5636 -0.0036
43.7600 14.5702 0.0019
43.7800 14.5768 0.0037
43.8000 14.5835 -0.0100
43.8200 14.5902 -0.0028
43.8400 14.5969 0.0047
43.8600 14.6036 -0.0072
43.8800 14.6102 -0.0016
43.9000 14.6169 -0.0012
43.9200 14.6236 -0.0012
43.9400 14.6302 -0.0085
43.9600 14.6368 0.0024
43.9800 14.6435 -0.0036
44.0000 14.6502 -0.0011
44.0200 14.6569 0.0073
44.0400 14.6636 -0.0149
44.0600 14.6703 -0.0057
44.0800 14.6769 0.0184
44.1000 14.6836 -0.0108
44.1200 14.6902 -0.0082
44.1400 14.6968 0.0101
44.1600 14.7035 -0.0040
44.1800 14.7102 0.0001
44.2000 14.7169 0.0052
44.2200 14.7235 -0.0190
44.2400 14.7302 0.0023
44.2600 14.7369 0.0121
44.2800 14.7436 -0.0189
44.3000 14.7502 -0.0012
44.3200 14.7568 0.0097
44.3400 14.7634 -0.0075
44.3600 14.7701 -0.0048
44.3800 14.7768 -0.0042
44.4000 14.7835 0.0015
44.4200 14.7902 0.0076
44.4400 14.7969 -0.0191
44.4600 14.8035 -0.0020
44.4800 14.8101 0.0081
44.5000 14.8168 -0.0127
44.5200 14.8234 0.0027
44.5400 14.8302 0.0034
44.5600 14.8369 -0.0160
44.5800 14.8436 0.0047
44.6000 14.8502 -0.0038
44.6200 14.8569 -0.0133
44.6400 14.8636 0.0194
44.6600 14.8703 -0.0066
44.6800 14.8769 -0.0221
44.7000 14.8835 0.0165
44.7200 14.8902 -0.0049
44.7400 14.8969 -0.0107
44.7600 14.9036 0.0107
44.7800 14.9103 -0.0199
44.8000 14.9170 -0.0055
44.8200 14.9236 0.0116
44.8400 14.9302 -0.0139
44.8600 14.9368 -0.0135
44.8800 14.9434 0.0038
44.9000 14.9501 -0.0075
44.9200 14.9568 -0.0045
44.9400 14.9635 -0.0027
44.9600 14.9702 -0.0103
44.9800 14.9769 -0.0012
45.0000 14.9836 -0.0015
45.0200 14.9902 -0.0149
45.0400 14.9968 0.0014
45.0600 15.0034 -0.0023
45.0800 15.0101 -0.0105
45.1000 15.0169 -0.0059
45.1200 15.0236 -0.0049
45.1400 15.0302 0.0024
45.1600 15.0369 -0.0144
45.1800 15.0436 -0.0075
45.2000 15.0502 0.0073
45.2200 15.0568 -0.0154
45.2400 15.0635 -0.0055
45.2600 15.0702 0.0089
45.2800 15.0769 -0.0249
45.3000 15.0835 -0.0008
45.3200 15.0902 0.0114
45.3400 15.0970 -0.0268
45.3600 15.1037 -0.0069
45.3800 15.1103 0.0081
45.4000 15.1169 -0.0215
45.4200 15.1235 0.0077
45.4400 15.1301 -0.0066
45.4600 15.1369 -0.0164
45.4800 15.1436 0.0046
45.5000 15.1503 -0.0172
45.5200 15.1569 -0.0063
45.5400 15.1636 0.0069
45.5600 15.1702 -0.0164
45.5800 15.1768 -0.0095
45.6000 15.1834 0.0011
45.6200 15.1902 -0.0131
45.6400 15.1969 -0.0052
45.6600 15.2036 -0.0036
45.6800 15.2102 -0.0136
45.7000 15.2169 -0.0088
45.7200 15.2236 -0.0029
45.7400 15.2302 -0.0098
45.7600 15.2368 -0.0079
45.7800 15.2435 -0.0107
45.8000 15.2501 0.0023
45.8200 15.2568 -0.0187
45.8400 15.2635 -0.0140
45.8600 15.2702 0.0048
45.8800 15.2769 -0.0147
45.9000 15.2836 -0.0155
45.9200 15.2902 0.0004
45.9400 15.2968 -0.0133
45.9600 15.3035 -0.0116
45.9800 15.3101 -0.0019
46.0000 15.3169 -0.0160
46.0200 15.3236 -0.0084
46.0400 15.3303 -0.0074
46.0600 15.3369 -0.0220
46.0800 15.3436 -0.0073
46.1000 15.3502 -0.0079
46.1200 15.3568 -0.0192
46.1400 15.3635 -0.0031
46.1600 15.3702 -0.0152
46.1800 15.3769 -0.0138
46.2000 15.3836 -0.0071
46.2200 15.3903 -0.0147
46.2400 15.3969 -0.0198
46.2600 15.4036 -0.0043
46.2800 15.4102 -0.0198
46.3000 15.4168 -0.0168
46.3200 15.4234 0.0005
46.3400 15.4301 -0.0216
46.3600 15.4368 -0.0204
46.3800 15.4436 -0.0029
46.4000 15.4502 -0.0195
46.4200 15.4569 -0.0151
46.4400 15.4636 -0.0117
46.4600 15.4702 -0.0218
46.4800 15.4768 -0.0125
46.5000 15.4834 -0.0108
46.5200 15.4901 -0.0212
46.5400 15.4968 -0.0113
46.5600 15.5035 -0.0129
46.5800 15.5102 -0.0254
46.6000 15.5169 -0.0047
46.6200 15.5236 -0.0105
46.6400 15.5302 -0.0232
46.6600 15.5368 -0.0127
46.6800 15.5434 -0.0105
46.7000 15.5501 -0.0203
46.7200 15.5568 -0.0110
46.7400 15.5635 -0.0133
46.7600 15.5702 -0.0185
46.7800 15.5769 -0.0153
46.8000 15.5836 -0.0089
46.8200 15.5903 -0.0144
46.8400 15.5969 -0.0203
46.8600 15.6035 -0.0098
46.8800 15.6102 -0.0103
46.9000 15.6169 -0.0238
46.9200 15.6236 -0.0112
46.9400 15.6303 -0.0085
46.9600 15.6370 -0.0223
46.9800 15.6436 -0.0113
47.0000 15.6502 -0.0134
47.0200 15.6568 -0.0223
47.0400 15.6634 -0.0076
47.0600 15.6701 -0.0115
47.0800 15.6768 -0.0275
47.1000 15.6836 -0.0011
47.1200 15.6902 -0.0099
47.1400 15.6969 -0.0260
47.1600 15.7036 -0.0064
47.1800 15.7102 -0.0150
47.2000 15.7169 -0.0199
47.2200 15.7235 -0.0051
47.2400 15.7301 -0.0206
47.2600 15.7369 -0.0105
47.2800 15.7435 -0.0084
47.3000 15.7502 -0.0285
47.3200 15.7569 -0.0079
47.3400 15.7636 -0.0053
47.3600 15.7702 -0.0337
47.3800 15.7769 -0.0070
47.4000 15.7835 -0.0074
47.4200 15.7901 -0.0351
47.4400 15.7968 -0.0014
47.4600 15.8035 -0.0061
47.4800 15.8102 -0.0385
47.5000 15.8169 -0.0033
47.5200 15.8236 -0.0106
47.5400 15.8302 -0.0375
47.5600 15.8368 -0.0051
47.5800 15.8435 -0.0122
47.6000 15.8501 -0.0249
47.6200 15.8569 -0.0113
47.6400 15.8636 -0.0183
47.6600 15.8703 -0.0250
47.6800 15.8770 -0.0062
47.7000 15.8836 -0.0220
47.7200 15.8903 -0.0241
47.7400 15.8969 -0.0057
47.7600 15.9035 -0.0129
47.7800 15.9101 -0.0301
47.8000 15.9169 -0.0079
47.8200 15.9236 -0.0159
47.8400 15.9302 -0.0174
47.8600 15.9369 -0.0213
47.8800 15.9436 -0.0241
47.9000 15.9502 -0.0036
47.9200 15.9569 -0.0227
47.9400 15.9635 -0.0289
47.9600 15.9701 -0.0013
47.9800 15.9768 -0.0202
48.0000 15.9835 -0.0436
48.0200 15.9902 -0.0040
48.0400 15.9969 -0.0065
48.0600 16.0036 -0.0457
48.0800 16.0102 -0.0145
48.1000 16.0168 -0.0037
48.1200 16.0235 -0.0337
48.1400 16.0301 -0.0128
48.1600 16.0369 -0.0158
48.1800 16.0436 -0.0240
48.2000 16.0503 -0.0167
48.2200 16.0569 -0.0279
48.2400 16.0636 -0.0243
48.2600 16.0703 0.0057
48.2800 16.0769 -0.0371
48.3000 16.0835 -0.0410
48.3200 16.0901 0.0121
48.3400 16.0968 -0.0222
48.3600 16.1035 -0.0463
48.3800 16.1102 0.0011
48.4000 16.1169 -0.0127
48.4200 16.1236 -0.0368
48.4400 16.1303 -0.0116
48.4600 16.1369 -0.0172
48.4800 16.1435 -0.0255
48.5000 16.1501 -0.0111
48.5200 16.1568 -0.0269
48.5400 16.1635 -0.0249
48.5600 16.1702 0.0014
48.5800 16.1769 -0.0376
48.6000 16.1836 -0.0220
48.6200 16.1903 0.0049
48.6400 16.1968 -0.0367
48.6600 16.2034 -0.0251
48.6800 16.2101 0.0110
48.7000 16.2168 -0.0355
48.7200 16.2235 -0.0342
48.7400 16.2302 0.0000
48.7600 16.2369 -0.0173
48.7800 16.2435 -0.0216
48.8000 16.2502 -0.0206
48.8200 16.2568 -0.0309
48.8400 16.2635 -0.0007
48.8600 16.2701 -0.0149
48.8800 16.2768 -0.0397
48.9000 16.2835 -0.0022
48.9200 16.2902 -0.0151
48.9400 16.2969 -0.0384
48.9600 16.3036 -0.0059
48.9800 16.3103 -0.0028
49.0000 16.3169 -0.0461
49.0200 16.3235 -0.0091
49.0400 16.3301 -0.0093
49.0600 16.3368 -0.0399
49.0800 16.3436 -0.0111
49.1000 16.3503 -0.0064
49.1200 16.3569 -0.0374
49.1400 16.3636 -0.0167
49.1600 16.3702 -0.0157
49.1800 16.3768 -0.0329
49.2000 16.3834 -0.0091
49.2200 16.3901 -0.0166
49.2400 16.3968 -0.0366
49.2600 16.4035 -0.0066
49.2800 16.4102 -0.0180
49.3000 16.4169 -0.0455
49.3200 16.4236 -0.0082
49.3400 16.4302 -0.0089
49.3600 16.4368 -0.0427
49.3800 16.4434 -0.0232
49.4000 16.4501 -0.0057
49.4200 16.4568 -0.0383
49.4400 16.4635 -0.0178
49.4600 16.4702 -0.0113
49.4800 16.4769 -0.0414
49.5000 16.4836 -0.0213
49.5200 16.4903 0.0001
49.5400 16.4969 -0.0460
49.5600 16.5035 -0.0320
49.5800 16.5101 0.0038
49.6000 16.5168 -0.0377
49.6200 16.5235 -0.0344
49.6400 16.5302 -0.0045
49.6600 16.5369 -0.0369
49.6800 16.5436 -0.0314
49.7000 16.5503 -0.0094
49.7200 16.5569 -0.0426
49.7400 16.5635 -0.0337
49.7600 16.5701 -0.0036
49.7800 16.5768 -0.0368
49.8000 16.5835 -0.0393
49.8200 16.5902 -0.0033
49.8400 16.5969 -0.0382
49.8600 16.6036 -0.0323
49.8800 16.6103 -0.0130
49.9000 16.6169 -0.0408
49.9200 16.6235 -0.0307
49.9400 16.6302 -0.0126
49.9600 16.6368 -0.0383
49.9800 16.6435 -0.0263
50.0000 16.6502 -0.0165
50.0200 16.6569 -0.0377
50.0400 16.6636 -0.0250
50.0600 16.6703 -0.0143
50.0800 16.6769 -0.0388
50.1000 16.6835 -0.0275
50.1200 16.6901 -0.0168
50.1400 16.6968 -0.0297
50.1600 16.7035 -0.0324
50.1800 16.7102 -0.0200
50.2000 16.7169 -0.0336
50.2200 16.7236 -0.0336
50.2400 16.7302 -0.0178
50.2600 16.7369 -0.0345
50.2800 16.7435 -0.0256
50.3000 16.7501 -0.0253
50.3200 16.7568 -0.0374
50.3400 16.7635 -0.0169
50.3600 16.7702 -0.0282
50.3800 16.7769 -0.0475
50.4000 16.7836 -0.0113
50.4200 16.7903 -0.0258
50.4400 16.7969 -0.0474
50.4600 16.8035 -0.0207
50.4800 16.8101 -0.0208
50.5000 16.8168 -0.0388
50.5200 16.8235 -0.0241
50.5400 16.8302 -0.0334
50.5600 16.8369 -0.0293
50.5800 16.8436 -0.0187
50.6000 16.8503 -0.0420
50.6200 16.8569 -0.0319
50.6400 16.8635 -0.0176
50.6600 16.8701 -0.0318
50.6800 16.8768 -0.0356
50.7000 16.8835 -0.0202
50.7200 16.8902 -0.0353
50.7400 16.8969 -0.0296
50.7600 16.9036 -0.0257
50.7800 16.9102 -0.0367
50.8000 16.9169 -0.0275
50.8200 16.9235 -0.0251
50.8400 16.9301 -0.0412
50.8600 16.9368 -0.0237
50.8800 16.9435 -0.0289
50.9000 16.9502 -0.0436
50.9200 16.9569 -0.0217
50.9400 16.9635 -0.0257
50.9600 16.9702 -0.0469
50.9800 16.9769 -0.0187
51.0000 16.9835 -0.0289
51.0200 16.9901 -0.0429
51.0400 16.9968 -0.0197
51.0600 17.0035 -0.0363
51.0800 17.0102 -0.0403
51.1000 17.0169 -0.0146
51.1200 17.0236 -0.0394
51.1400 17.0303 -0.0454
51.1600 17.0369 -0.0106
51.1800 17.0435 -0.0453
51.2000 17.0501 -0.0422
51.2200 17.0568 -0.0089
51.2400 17.0635 -0.0423
51.2600 17.0703 -0.0563
51.2800 17.0769 -0.0135
51.3000 17.0836 -0.0288
51.3200 17.0903 -0.0530
51.3400 17.0969 -0.0247
51.3600 17.1035 -0.0245
51.3800 17.1101 -0.0459
51.4000 17.1168 -0.0301
51.4200 17.1235 -0.0252
51.4400 17.1302 -0.0462
51.4600 17.1369 -0.0298
51.4800 17.1436 -0.0253
51.5000 17.1503 -0.0495
51.5200 17.1569 -0.0264
51.5400 17.1635 -0.0222
51.5600 17.1701 -0.0522
51.5800 17.1768 -0.0216
51.6000 17.1835 -0.0244
51.6200 17.1902 -0.0560
51.6400 17.1969 -0.0262
51.6600 17.2036 -0.0265
51.6800 17.2103 -0.0551
51.7000 17.2169 -0.0206
51.7200 17.2235 -0.0325
51.7400 17.2301 -0.0551
51.7600 17.2368 -0.0158
51.7800 17.2435 -0.0380
51.8000 17.2502 -0.0599
51.8200 17.2569 -0.0100
51.8400 17.2636 -0.0285
51.8600 17.2703 -0.0573
51.8800 17.2769 -0.0355
51.9000 17.2836 -0.0242
51.9200 17.2902 -0.0366
51.9400 17.2968 -0.0451
51.9600 17.3035 -0.0390
51.9800 17.3102 -0.0246
52.0000 17.3169 -0.0465
52.0200 17.3236 -0.0334
52.0400 17.3303 -0.0240
52.0600 17.3369 -0.0559
52.0800 17.3435 -0.0266
52.1000 17.3501 -0.0240
52.1200 17.3568 -0.0565
52.1400 17.3635 -0.0197
52.1600 17.3702 -0.0271
52.1800 17.3769 -0.0614
52.2000 17.3836 -0.0193
52.2200 17.3903 -0.0287
52.2400 17.3969 -0.0605
52.2600 17.4035 -0.0210
52.2800 17.4101 -0.0257
52.3000 17.4168 -0.0574
52.3200 17.4235 -0.0170
52.3400 17.4302 -0.0369
52.3600 17.4368 -0.0550
52.3800 17.4435 -0.0154
52.4000 17.4502 -0.0359
52.4200 17.4569 -0.0545
52.4400 17.4635 -0.0261
52.4600 17.4701 -0.0374
52.4800 17.4768 -0.0421
52.5000 17.4835 -0.0260
52.5200 17.4902 -0.0423
52.5400 17.4969 -0.0394
52.5600 17.5036 -0.0299
52.5800 17.5103 -0.0416
52.6000 17.5170 -0.0287
52.6200 17.5236 -0.0313
52.6400 17.5301 -0.0540
52.6600 17.5368 -0.0257
52.6800 17.5435 -0.0279
52.7000 17.5503 -0.0471
52.7200 17.5569 -0.0290
52.7400 17.5636 -0.0325
52.7600 17.5703 -0.0489
52.7800 17.5769 -0.0323
52.8000 17.5835 -0.0269
52.8200 17.5901 -0.0404
52.8400 17.5968 -0.0403
52.8600 17.6035 -0.0323
52.8800 17.6102 -0.0394
52.9000 17.6169 -0.0401
52.9200 17.6236 -0.0321
52.9400 17.6302 -0.0405
52.9600 17.6369 -0.0445
52.9800 17.6435 -0.0349
53.0000 17.6501 -0.0326
53.0200 17.6568 -0.0409
53.0400 17.6635 -0.0332
53.0600 17.6702 -0.0383
53.0800 17.6769 -0.0465
53.1000 17.6835 -0.0279
53.1200 17.6902 -0.0335
53.1400 17.6969 -0.0506
53.1600 17.7035 -0.0300
53.1800 17.7101 -0.0397
53.2000 17.7168 -0.0457
53.2200 17.7235 -0.0347
53.2400 17.7302 -0.0314
53.2600 17.7369 -0.0498
53.2800 17.7436 -0.0404
53.3000 17.7503 -0.0261
53.3200 17.7569 -0.0509
53.3400 17.7635 -0.0410
53.3600 17.7701 -0.0331
53.3800 17.7768 -0.0438
53.4000 17.7835 -0.0391
53.4200 17.7903 -0.0376
53.4400 17.7969 -0.0439
53.4600 17.8036 -0.0353
53.4800 17.8103 -0.0342
53.5000 17.8169 -0.0548
53.5200 17.8235 -0.0415
53.5400 17.8302 -0.0277
53.5600 17.8368 -0.0500
53.5800 17.8435 -0.0369
53.6000 17.8502 -0.0431
53.6200 17.8569 -0.0448
53.6400 17.8635 -0.0364
53.6600 17.8702 -0.0404
53.6800 17.8769 -0.0443
53.7000 17.8835 -0.0420
53.7200 17.8901 -0.0409
53.7400 17.8968 -0.0405
53.7600 17.9035 -0.0310
53.7800 17.9102 -0.0439
53.8000 17.9169 -0.0523
53.8200 17.9236 -0.0327
53.8400 17.9302 -0.0368
53.8600 17.9369 -0.0500
53.8800 17.9435 -0.0340
53.9000 17.9501 -0.0381
53.9200 17.9568 -0.0504
53.9400 17.9635 -0.0366
53.9600 17.9702 -0.0332
53.9800 17.9769 -0.0517
54.0000 17.9836 -0.0347
54.0200 17.9903 -0.0397
54.0400 17.9969 -0.0493
54.0600 18.0036 -0.0317
54.0800 18.0102 -0.0381
54.1000 18.0168 -0.0564
54.1200 18.0235 -0.0235
54.1400 18.0302 -0.0397
54.1600 18.0369 -0.0581
54.1800 18.0436 -0.0238
54.2000 18.0503 -0.0380
54.2200 18.0570 -0.0564
54.2400 18.0636 -0.0288
54.2600 18.0702 -0.0365
54.2800 18.0768 -0.0562
54.3000 18.0835 -0.0221
54.3200 18.0902 -0.0443
54.3400 18.0969 -0.0533
54.3600 18.1036 -0.0212
54.3800 18.1103 -0.0485
54.4000 18.1169 -0.0514
54.4200 18.1235 -0.0174
54.4400 18.1301 -0.0506
54.4600 18.1368 -0.0532
54.4800 18.1434 -0.0291
54.5000 18.1502 -0.0464
54.5200 18.1569 -0.0455
54.5400 18.1635 -0.0247
54.5600 18.1702 -0.0559
54.5800 18.1769 -0.0422
54.6000 18.1835 -0.0314
54.6200 18.1901 -0.0539
54.6400 18.1968 -0.0364
54.6600 18.2035 -0.0326
54.6800 18.2102 -0.0547
54.7000 18.2169 -0.0423
54.7200 18.2236 -0.0301
54.7400 18.2303 -0.0506
54.7600 18.2370 -0.0477
54.7800 18.2436 -0.0363
54.8000 18.2502 -0.0448
54.8200 18.2568 -0.0460
54.8400 18.2635 -0.0328
54.8600 18.2702 -0.0492
54.8800 18.2769 -0.0432
54.9000 18.2836 -0.0379
54.9200 18.2903 -0.0447
54.9400 18.2969 -0.0442
54.9600 18.3036 -0.0363
54.9800 18.3102 -0.0529
55.0000 18.3168 -0.0385
55.0200 18.3235 -0.0318
55.0400 18.3302 -0.0531
55.0600 18.3369 -0.0441
55.0800 18.3435 -0.0353
55.1000 18.3502 -0.0564
55.1200 18.3569 -0.0389
55.1400 18.3635 -0.0373
55.1600 18.3701 -0.0548
55.1800 18.3767 -0.0363
55.2000 18.3834 -0.0449
55.2200 18.3901 -0.0534
55.2400 18.3968 -0.0352
55.2600 18.4035 -0.0434
55.2800 18.4102 -0.0518
55.3000 18.4169 -0.0385
55.3200 18.4235 -0.0490
55.3400 18.4301 -0.0484
55.3600 18.4368 -0.0389
55.3800 18.4435 -0.0502
55.4000 18.4502 -0.0424
55.4200 18.4569 -0.0405
55.4400 18.4636 -0.0570
55.4600 18.4703 -0.0391
55.4800 18.4769 -0.0444
55.5000 18.4836 -0.0518
55.5200 18.4902 -0.0433
55.5400 18.4968 -0.0464
55.5600 18.5035 -0.0485
55.5800 18.5102 -0.0469
55.6000 18.5169 -0.0447
55.6200 18.5236 -0.0432
55.6400 18.5303 -0.0466
55.6600 18.5370 -0.0505
55.6800 18.5436 -0.0457
55.7000 18.5502 -0.0464
55.7200 18.5568 -0.0442
55.7400 18.5635 -0.0504
55.7600 18.5702 -0.0540
55.7800 18.5769 -0.0435
55.8000 18.5836 -0.0464
55.8200 18.5902 -0.0556
55.8400 18.5969 -0.0494
55.8600 18.6036 -0.0468
55.8800 18.6102 -0.0448
55.9000 18.6168 -0.0556
55.9200 18.6234 -0.0466
55.9400 18.6301 -0.0394
55.9600 18.6369 -0.0534
55.9800 18.6435 -0.0607
56.0000 18.6502 -0.0412
56.0200 18.6569 -0.0455
56.0400 18.6636 -0.0617
56.0600 18.6702 -0.0502
56.0800 18.6768 -0.0502
56.1000 18.6835 -0.0514
56.1200 18.6902 -0.0508
56.1400 18.6969 -0.0521
56.1600 18.7036 -0.0503
56.1800 18.7103 -0.0496
56.2000 18.7170 -0.0573
56.2200 18.7236 -0.0515
56.2400 18.7302 -0.0489
56.2600 18.7368 -0.0492
56.2800 18.7435 -0.0567
56.3000 18.7502 -0.0533
56.3200 18.7569 -0.0517
56.3400 18.7636 -0.0472
56.3600 18.7703 -0.0566
56.3800 18.7769 -0.0543
56.4000 18.7836 -0.0537
56.4200 18.7902 -0.0581
56.4400 18.7968 -0.0442
56.4600 18.8035 -0.0555
56.4800 18.8102 -0.0567
56.5000 18.8169 -0.0421
56.5200 18.8235 -0.0621
56.5400 18.8302 -0.0582
56.5600 18.8369 -0.0432
56.5800 18.8436 -0.0593
56.6000 18.8502 -0.0593
56.6200 18.8568 -0.0498
56.6400 18.8634 -0.0587
56.6600 18.8701 -0.0472
56.6800 18.8768 -0.0456
56.7000 18.8835 -0.0699
56.7200 18.8902 -0.0430
56.7400 18.8969 -0.0511
56.7600 18.9036 -0.0666
56.7800 18.9102 -0.0425
56.8000 18.9168 -0.0509
56.8200 18.9235 -0.0629
56.8400 18.9302 -0.0440
56.8600 18.9369 -0.0575
56.8800 18.9436 -0.0626
56.9000 18.9503 -0.0437
56.9200 18.9570 -0.0592
56.9400 18.9636 -0.0620
56.9600 18.9702 -0.0421
56.9800 18.9768 -0.0569
57.0000 18.9835 -0.0583
57.0200 18.9902 -0.0506
57.0400 18.9969 -0.0575
57.0600 19.0036 -0.0507
57.0800 19.0103 -0.0553
57.1000 19.0169 -0.0589
57.1200 19.0236 -0.0533
57.1400 19.0302 -0.0534
57.1600 19.0368 -0.0533
57.1800 19.0434 -0.0483
57.2000 19.0501 -0.0568
57.2200 19.0568 -0.0509
57.2400 19.0635 -0.0541
57.2600 19.0702 -0.0575
57.2800 19.0769 -0.0506
57.3000 19.0836 -0.0511
57.3200 19.0902 -0.0588
57.3400 19.0968 -0.0534
57.3600 19.1034 -0.0497
57.3800 19.1101 -0.0523
57.4000 19.1168 -0.0593
57.4200 19.1235 -0.0514
57.4400 19.1302 -0.0455
57.4600 19.1369 -0.0577
57.4800 19.1436 -0.0583
57.5000 19.1502 -0.0487
57.5200 19.1568 -0.0529
57.5400 19.1635 -0.0523
57.5600 19.1702 -0.0513
57.5800 19.1769 -0.0637
57.6000 19.1836 -0.0522
57.6200 19.1903 -0.0490
57.6400 19.1969 -0.0563
57.6600 19.2036 -0.0587
57.6800 19.2102 -0.0536
57.7000 19.2168 -0.0588
57.7200 19.2235 -0.0506
57.7400 19.2302 -0.0501
57.7600 19.2369 -0.0528
57.7800 19.2436 -0.0626
57.8000 19.2503 -0.0556
57.8200 19.2570 -0.0549
57.8400 19.2636 -0.0589
57.8600 19.2702 -0.0505
57.8800 19.2768 -0.0552
57.9000 19.2834 -0.0569
57.9200 19.2901 -0.0546
57.9400 19.2968 -0.0537
57.9600 19.3035 -0.0549
57.9800 19.3102 -0.0571
58.0000 19.3169 -0.0592
58.0200 19.3236 -0.0585
58.0400 19.3302 -0.0560
58.0600 19.3368 -0.0532
58.0800 19.3434 -0.0612
58.1000 19.3501 -0.0536
58.1200 19.3568 -0.0620
58.1400 19.3635 -0.0609
58.1600 19.3702 -0.0503
58.1800 19.3769 -0.0562
58.2000 19.3836 -0.0654
58.2200 19.3902 -0.0543
58.2400 19.3968 -0.0595
58.2600 19.4035 -0.0621
58.2800 19.4102 -0.0554
58.3000 19.4169 -0.0618
58.3200 19.4235 -0.0635
58.3400 19.4302 -0.0526
58.3600 19.4370 -0.0573
58.3800 19.4436 -0.0629
58.4000 19.4502 -0.0553
58.4200 19.4568 -0.0641
58.4400 19.4634 -0.0596
58.4600 19.4701 -0.0522
58.4800 19.4769 -0.0645
58.5000 19.4836 -0.0622
58.5200 19.4903 -0.0514
58.5400 19.4969 -0.0690
58.5600 19.5036 -0.0605
58.5800 19.5102 -0.0548
58.6000 19.5168 -0.0724
58.6200 19.5235 -0.0539
58.6400 19.5302 -0.0522
58.6600 19.5369 -0.0707
58.6800 19.5436 -0.0635
58.7000 19.5502 -0.0536
58.7200 19.5569 -0.0652
58.7400 19.5636 -0.0684
58.7600 19.5702 -0.0554
58.7800 19.5768 -0.0644
58.8000 19.5834 -0.0704
58.8200 19.5901 -0.0608
58.8400 19.5968 -0.0599
58.8600 19.6035 -0.0617
58.8800 19.6102 -0.0641
58.9000 19.6169 -0.0648
58.9200 19.6236 -0.0680
58.9400 19.6302 -0.0536
58.9600 19.6368 -0.0616
58.9800 19.6434 -0.0712
59.0000 19.6501 -0.0598
59.0200 19.6569 -0.0614
59.0400 19.6636 -0.0726
59.0600 19.6703 -0.0572
59.0800 19.6769 -0.0675
59.1000 19.6836 -0.0709
59.1200 19.6902 -0.0585
59.1400 19.6969 -0.0695
59.1600 19.7035 -0.0757
59.1800 19.7102 -0.0586
59.2000 19.7169 -0.0678
59.2200 19.7236 -0.0733
59.2400 19.7303 -0.0609
59.2600 19.7369 -0.0716
59.2800 19.7436 -0.0679
59.3000 19.7502 -0.0750
