Raw Data
Time Displacement Force
(s) (mm) (N)
0.0000 0.0000 0.3480
0.0200 0.0000 0.3589
0.0400 0.0008 0.3729
0.0600 0.0040 0.3936
0.0800 0.0095 0.3537
0.1000 0.0152 0.3368
0.1200 0.0212 0.3751
0.1400 0.0278 0.3637
0.1600 0.0351 0.3454
0.1800 0.0425 0.3618
0.2000 0.0497 0.3518
0.2200 0.0565 0.3490
0.2400 0.0632 0.3678
0.2600 0.0699 0.3513
0.2800 0.0765 0.3539
0.3000 0.0832 0.3699
0.3200 0.0900 0.3544
0.3400 0.0967 0.3623
0.3600 0.1034 0.3670
0.3800 0.1100 0.3556
0.4000 0.1167 0.3700
0.4200 0.1233 0.3724
0.4400 0.1300 0.3569
0.4600 0.1367 0.3720
0.4800 0.1434 0.3713
0.5000 0.1501 0.3610
0.5200 0.1568 0.3777
0.5400 0.1634 0.3730
0.5600 0.1700 0.3684
0.5800 0.1766 0.3779
0.6000 0.1833 0.3763
0.6200 0.1900 0.3712
0.6400 0.1967 0.3850
0.6600 0.2034 0.3804
0.6800 0.2101 0.3811
0.7000 0.2168 0.3842
0.7200 0.2234 0.3818
0.7400 0.2300 0.3872
0.7600 0.2366 0.3918
0.7800 0.2433 0.3905
0.8000 0.2500 0.3892
0.8200 0.2567 0.3903
0.8400 0.2634 0.3923
0.8600 0.2701 0.3899
0.8800 0.2767 0.3944
0.9000 0.2834 0.3909
0.9200 0.2900 0.3951
0.9400 0.2966 0.3951
0.9600 0.3032 0.3925
0.9800 0.3100 0.3987
1.0000 0.3167 0.3951
1.0200 0.3234 0.3926
1.0400 0.3300 0.3958
1.0600 0.3367 0.3972
1.0800 0.3433 0.3917
1.1000 0.3499 0.3991
1.1200 0.3566 0.3972
1.1400 0.3633 0.3916
1.1600 0.3700 0.4024
1.1800 0.3767 0.3959
1.2000 0.3834 0.3927
1.2200 0.3901 0.4014
1.2400 0.3968 0.3924
1.2600 0.4034 0.3855
1.2800 0.4100 0.4017
1.3000 0.4167 0.3956
1.3200 0.4233 0.3881
1.3400 0.4300 0.4036
1.3600 0.4367 0.3921
1.3800 0.4434 0.3875
1.4000 0.4501 0.4014
1.4200 0.4568 0.3884
1.4400 0.4634 0.3889
1.4600 0.4700 0.3946
1.4800 0.4766 0.3904
1.5000 0.4832 0.3906
1.5200 0.4900 0.3964
1.5400 0.4967 0.3875
1.5600 0.5034 0.3848
1.5800 0.5100 0.3962
1.6000 0.5167 0.3807
1.6200 0.5233 0.3878
1.6400 0.5299 0.3966
1.6600 0.5366 0.3832
1.6800 0.5433 0.3825
1.7000 0.5500 0.3877
1.7200 0.5567 0.3785
1.7400 0.5634 0.3796
1.7600 0.5701 0.3893
1.7800 0.5767 0.3779
1.8000 0.5834 0.3756
1.8200 0.5900 0.3862
1.8400 0.5967 0.3760
1.8600 0.6033 0.3791
1.8800 0.6100 0.3813
1.9000 0.6167 0.3778
1.9200 0.6234 0.3809
1.9400 0.6301 0.3844
1.9600 0.6368 0.3699
1.9800 0.6434 0.3740
2.0000 0.6500 0.3816
2.0200 0.6566 0.3715
2.0400 0.6633 0.3732
2.0600 0.6700 0.3758
2.0800 0.6767 0.3723
2.1000 0.6834 0.3731
2.1200 0.6901 0.3744
2.1400 0.6968 0.3715
2.1600 0.7034 0.3711
2.1800 0.7100 0.3775
2.2000 0.7166 0.3690
2.2200 0.7233 0.3632
2.2400 0.7300 0.3813
2.2600 0.7367 0.3691
2.2800 0.7434 0.3640
2.3000 0.7500 0.3773
2.3200 0.7567 0.3704
2.3400 0.7634 0.3642
2.3600 0.7700 0.3697
2.3800 0.7766 0.3731
2.4000 0.7833 0.3624
2.4200 0.7900 0.3689
2.4400 0.7967 0.3696
2.4600 0.8033 0.3642
2.4800 0.8101 0.3688
2.5000 0.8168 0.3679
2.5200 0.8234 0.3580
2.5400 0.8300 0.3732
2.5600 0.8366 0.3683
2.5800 0.8433 0.3608
2.6000 0.8500 0.3722
2.6200 0.8568 0.3694
2.6400 0.8634 0.3600
2.6600 0.8701 0.3733
2.6800 0.8768 0.3630
2.7000 0.8834 0.3591
2.7200 0.8900 0.3756
2.7400 0.8966 0.3648
2.7600 0.9033 0.3570
2.7800 0.9100 0.3755
2.8000 0.9168 0.3595
2.8200 0.9234 0.3568
2.8400 0.9301 0.3752
2.8600 0.9368 0.3585
2.8800 0.9434 0.3634
2.9000 0.9500 0.3692
2.9200 0.9566 0.3577
2.9400 0.9633 0.3610
2.9600 0.9700 0.3692
2.9800 0.9767 0.3517
3.0000 0.9834 0.3593
3.0200 0.9901 0.3675
3.0400 0.9968 0.3520
3.0600 1.0034 0.3594
3.0800 1.0100 0.3590
3.1000 1.0166 0.3583
3.1200 1.0233 0.3615
3.1400 1.0300 0.3578
3.1600 1.0367 0.3555
3.1800 1.0434 0.3562
3.2000 1.0500 0.3552
3.2200 1.0567 0.3588
3.2400 1.0634 0.3537
3.2600 1.0700 0.3546
3.2800 1.0766 0.3571
3.3000 1.0833 0.3551
3.3200 1.0900 0.3555
3.3400 1.0967 0.3579
3.3600 1.1034 0.3480
3.3800 1.1101 0.3505
3.4000 1.1168 0.3574
3.4200 1.1235 0.3453
3.4400 1.1301 0.3513
3.4600 1.1367 0.3625
3.4800 1.1433 0.3459
3.5000 1.1500 0.3548
3.5200 1.1567 0.3603
3.5400 1.1634 0.3442
3.5600 1.1701 0.3525
3.5800 1.1768 0.3534
3.6000 1.1834 0.3478
3.6200 1.1900 0.3584
3.6400 1.1966 0.3529
3.6600 1.2033 0.3476
3.6800 1.2100 0.3624
3.7000 1.2167 0.3512
3.7200 1.2234 0.3471
3.7400 1.2301 0.3593
3.7600 1.2367 0.3522
3.7800 1.2434 0.3429
3.8000 1.2500 0.3576
3.8200 1.2566 0.3544
3.8400 1.2633 0.3463
3.8600 1.2700 0.3593
3.8800 1.2767 0.3466
3.9000 1.2834 0.3502
3.9200 1.2900 0.3596
3.9400 1.2967 0.3456
3.9600 1.3034 0.3534
3.9800 1.3100 0.3565
4.0000 1.3166 0.3441
4.0200 1.3233 0.3522
4.0400 1.3300 0.3548
4.0600 1.3367 0.3474
4.0800 1.3434 0.3536
4.1000 1.3501 0.3539
4.1200 1.3567 0.3471
4.1400 1.3634 0.3561
4.1600 1.3700 0.3480
4.1800 1.3767 0.3513
4.2000 1.3833 0.3569
4.2200 1.3900 0.3497
4.2400 1.3967 0.3518
4.2600 1.4034 0.3531
4.2800 1.4101 0.3488
4.3000 1.4168 0.3517
4.3200 1.4234 0.3578
4.3400 1.4301 0.3461
4.3600 1.4367 0.3557
4.3800 1.4433 0.3541
4.4000 1.4500 0.3450
4.4200 1.4567 0.3541
4.4400 1.4634 0.3508
4.4600 1.4700 0.3440
4.4800 1.4767 0.3574
4.5000 1.4834 0.3483
4.5200 1.4900 0.3479
4.5400 1.4966 0.3556
4.5600 1.5033 0.3507
4.5800 1.5100 0.3413
4.6000 1.5167 0.3538
4.6200 1.5234 0.3449
4.6400 1.5301 0.3440
4.6600 1.5367 0.3521
4.6800 1.5434 0.3398
4.7000 1.5500 0.3497
4.7200 1.5566 0.3455
4.7400 1.5633 0.3428
4.7600 1.5700 0.3472
4.7800 1.5767 0.3478
4.8000 1.5835 0.3393
4.8200 1.5901 0.3411
4.8400 1.5968 0.3448
4.8600 1.6034 0.3391
4.8800 1.6101 0.3440
4.9000 1.6166 0.3414
4.9200 1.6233 0.3341
4.9400 1.6300 0.3443
4.9600 1.6367 0.3361
4.9800 1.6434 0.3371
5.0000 1.6501 0.3480
5.0200 1.6568 0.3323
5.0400 1.6634 0.3340
5.0600 1.6701 0.3341
5.0800 1.6767 0.3322
5.1000 1.6833 0.3388
5.1200 1.6900 0.3351
5.1400 1.6967 0.3272
5.1600 1.7034 0.3387
5.1800 1.7101 0.3351
5.2000 1.7168 0.3287
5.2200 1.7234 0.3417
5.2400 1.7301 0.3334
5.2600 1.7366 0.3262
5.2800 1.7432 0.3388
5.3000 1.7499 0.3256
5.3200 1.7567 0.3299
5.3400 1.7634 0.3374
5.3600 1.7700 0.3250
5.3800 1.7767 0.3275
5.4000 1.7834 0.3371
5.4200 1.7900 0.3217
5.4400 1.7967 0.3305
5.4600 1.8033 0.3392
5.4800 1.8100 0.3178
5.5000 1.8167 0.3301
5.5200 1.8234 0.3302
5.5400 1.8301 0.3197
5.5600 1.8368 0.3306
5.5800 1.8435 0.3273
5.6000 1.8501 0.3189
5.6200 1.8567 0.3289
5.6400 1.8633 0.3322
5.6600 1.8700 0.3212
5.6800 1.8767 0.3248
5.7000 1.8834 0.3249
5.7200 1.8901 0.3164
5.7400 1.8968 0.3242
5.7600 1.9034 0.3257
5.7800 1.9101 0.3191
5.8000 1.9167 0.3215
5.8200 1.9233 0.3248
5.8400 1.9300 0.3210
5.8600 1.9367 0.3218
5.8800 1.9434 0.3267
5.9000 1.9500 0.3169
5.9200 1.9567 0.3202
5.9400 1.9634 0.3202
5.9600 1.9700 0.3170
5.9800 1.9766 0.3230
6.0000 1.9833 0.3227
6.0200 1.9900 0.3176
6.0400 1.9967 0.3205
6.0600 2.0034 0.3232
6.0800 2.0101 0.3144
6.1000 2.0167 0.3196
6.1200 2.0234 0.3204
6.1400 2.0301 0.3093
6.1600 2.0367 0.3151
6.1800 2.0433 0.3221
6.2000 2.0500 0.3176
6.2200 2.0567 0.3108
6.2400 2.0634 0.3158
6.2600 2.0701 0.3137
6.2800 2.0768 0.3123
6.3000 2.0834 0.3243
6.3200 2.0900 0.3092
6.3400 2.0966 0.3120
6.3600 2.1033 0.3224
6.3800 2.1099 0.3054
6.4000 2.1167 0.3140
6.4200 2.1234 0.3189
6.4400 2.1301 0.3054
6.4600 2.1368 0.3089
6.4800 2.1434 0.3181
6.5000 2.1501 0.3097
6.5200 2.1567 0.3126
6.5400 2.1633 0.3165
6.5600 2.1700 0.3052
6.5800 2.1767 0.3094
6.6000 2.1834 0.3162
6.6200 2.1901 0.3050
6.6400 2.1968 0.3072
6.6600 2.2035 0.3119
6.6800 2.2101 0.3045
6.7000 2.2167 0.3044
6.7200 2.2233 0.3208
6.7400 2.2299 0.3090
6.7600 2.2366 0.3034
6.7800 2.2434 0.3121
6.8000 2.2501 0.3052
6.8200 2.2567 0.3034
6.8400 2.2634 0.3151
6.8600 2.2700 0.3038
6.8800 2.2767 0.3012
6.9000 2.2833 0.3140
6.9200 2.2900 0.3078
6.9400 2.2967 0.3076
6.9600 2.3034 0.3135
6.9800 2.3101 0.2992
7.0000 2.3168 0.3054
7.0200 2.3234 0.3110
7.0400 2.3301 0.2986
7.0600 2.3367 0.3087
7.0800 2.3433 0.3064
7.1000 2.3500 0.3012
7.1200 2.3567 0.3057
7.1400 2.3634 0.3117
7.1600 2.3701 0.3008
7.1800 2.3767 0.3078
7.2000 2.3834 0.3085
7.2200 2.3901 0.2952
7.2400 2.3967 0.3070
7.2600 2.4033 0.3066
7.2800 2.4100 0.2973
7.3000 2.4167 0.3047
7.3200 2.4234 0.3063
7.3400 2.4301 0.2966
7.3600 2.4368 0.3065
7.3800 2.4434 0.3072
7.4000 2.4501 0.2949
7.4200 2.4567 0.3028
7.4400 2.4633 0.3053
7.4600 2.4700 0.2949
7.4800 2.4767 0.3039
7.5000 2.4833 0.2962
7.5200 2.4900 0.2994
7.5400 2.4967 0.3032
7.5600 2.5034 0.3000
7.5800 2.5101 0.2959
7.6000 2.5167 0.3010
7.6200 2.5233 0.2985
7.6400 2.5300 0.2973
7.6600 2.5367 0.2988
7.6800 2.5434 0.2901
7.7000 2.5501 0.3013
7.7200 2.5568 0.2967
7.7400 2.5635 0.2925
7.7600 2.5701 0.2996
7.7800 2.5767 0.2965
7.8000 2.5833 0.2960
7.8200 2.5900 0.2969
7.8400 2.5967 0.2962
7.8600 2.6034 0.2954
7.8800 2.6101 0.2979
7.9000 2.6167 0.2941
7.9200 2.6234 0.2899
7.9400 2.6301 0.2966
7.9600 2.6367 0.2876
7.9800 2.6433 0.2988
8.0000 2.6499 0.2990
8.0200 2.6566 0.2961
8.0400 2.6633 0.3002
8.0600 2.6701 0.2893
8.0800 2.6768 0.2918
8.1000 2.6834 0.2952
8.1200 2.6901 0.2909
8.1400 2.6967 0.2893
8.1600 2.7033 0.2974
8.1800 2.7099 0.2918
8.2000 2.7166 0.2889
8.2200 2.7233 0.2930
8.2400 2.7301 0.2868
8.2600 2.7367 0.2884
8.2800 2.7434 0.2912
8.3000 2.7501 0.2840
8.3200 2.7567 0.2891
8.3400 2.7633 0.2907
8.3600 2.7700 0.2864
8.3800 2.7767 0.2880
8.4000 2.7834 0.2892
8.4200 2.7901 0.2871
8.4400 2.7967 0.2902
8.4600 2.8034 0.2836
8.4800 2.8101 0.2823
8.5000 2.8167 0.2910
8.5200 2.8233 0.2813
8.5400 2.8300 0.2842
8.5600 2.8367 0.2918
8.5800 2.8434 0.2829
8.6000 2.8501 0.2834
8.6200 2.8568 0.2861
8.6400 2.8635 0.2816
8.6600 2.8701 0.2847
8.6800 2.8767 0.2879
8.7000 2.8833 0.2782
8.7200 2.8900 0.2839
8.7400 2.8966 0.2888
8.7600 2.9034 0.2724
8.7800 2.9100 0.2859
8.8000 2.9167 0.2884
8.8200 2.9234 0.2754
8.8400 2.9301 0.2830
8.8600 2.9367 0.2851
8.8800 2.9433 0.2767
8.9000 2.9499 0.2900
8.9200 2.9566 0.2857
8.9400 2.9633 0.2702
8.9600 2.9700 0.2898
8.9800 2.9767 0.2859
9.0000 2.9834 0.2704
9.0200 2.9901 0.2870
9.0400 2.9967 0.2835
9.0600 3.0033 0.2714
9.0800 3.0100 0.2872
9.1000 3.0167 0.2800
9.1200 3.0234 0.2760
9.1400 3.0301 0.2861
9.1600 3.0368 0.2755
9.1800 3.0435 0.2744
9.2000 3.0501 0.2862
9.2200 3.0568 0.2802
9.2400 3.0633 0.2742
9.2600 3.0700 0.2851
9.2800 3.0766 0.2759
9.3000 3.0834 0.2735
9.3200 3.0901 0.2791
9.3400 3.0968 0.2791
9.3600 3.1035 0.2756
9.3800 3.1101 0.2776
9.4000 3.1167 0.2774
9.4200 3.1233 0.2751
9.4400 3.1299 0.2777
9.4600 3.1366 0.2781
9.4800 3.1434 0.2740
9.5000 3.1501 0.2797
9.5200 3.1567 0.2741
9.5400 3.1634 0.2735
9.5600 3.1701 0.2794
9.5800 3.1767 0.2796
9.6000 3.1833 0.2743
9.6200 3.1900 0.2758
9.6400 3.1967 0.2812
9.6600 3.2033 0.2723
9.6800 3.2100 0.2761
9.7000 3.2167 0.2763
9.7200 3.2234 0.2697
9.7400 3.2301 0.2778
9.7600 3.2367 0.2780
9.7800 3.2433 0.2686
9.8000 3.2499 0.2807
9.8200 3.2566 0.2760
9.8400 3.2634 0.2658
9.8600 3.2701 0.2769
9.8800 3.2768 0.2783
9.9000 3.2835 0.2651
9.9200 3.2901 0.2750
9.9400 3.2967 0.2772
9.9600 3.3033 0.2662
9.9800 3.3100 0.2780
10.0000 3.3167 0.2767
10.0200 3.3234 0.2633
10.0400 3.3301 0.2710
10.0600 3.3368 0.2766
10.0800 3.3434 0.2621
10.1000 3.3501 0.2692
10.1200 3.3567 0.2715
10.1400 3.3633 0.2641
10.1600 3.3700 0.2728
10.1800 3.3766 0.2714
10.2000 3.3833 0.2682
10.2200 3.3900 0.2724
10.2400 3.3967 0.2680
10.2600 3.4034 0.2678
10.2800 3.4101 0.2657
10.3000 3.4167 0.2668
10.3200 3.4233 0.2670
10.3400 3.4299 0.2683
10.3600 3.4366 0.2658
10.3800 3.4433 0.2647
10.4000 3.4500 0.2678
10.4200 3.4567 0.2641
10.4400 3.4634 0.2641
10.4600 3.4701 0.2677
10.4800 3.4767 0.2638
10.5000 3.4833 0.2658
10.5200 3.4900 0.2671
10.5400 3.4967 0.2645
10.5600 3.5034 0.2630
10.5800 3.5101 0.2630
10.6000 3.5167 0.2633
10.6200 3.5234 0.2636
10.6400 3.5301 0.2603
10.6600 3.5368 0.2593
10.6800 3.5434 0.2658
10.7000 3.5500 0.2605
10.7200 3.5566 0.2603
10.7400 3.5633 0.2616
10.7600 3.5700 0.2592
10.7800 3.5767 0.2646
10.8000 3.5834 0.2571
10.8200 3.5901 0.2632
10.8400 3.5968 0.2606
10.8600 3.6034 0.2594
10.8800 3.6100 0.2610
10.9000 3.6166 0.2623
10.9200 3.6234 0.2604
10.9400 3.6301 0.2603
10.9600 3.6367 0.2595
10.9800 3.6434 0.2593
11.0000 3.6501 0.2611
11.0200 3.6567 0.2641
11.0400 3.6633 0.2591
11.0600 3.6699 0.2571
11.0800 3.6766 0.2553
11.1000 3.6833 0.2613
11.1200 3.6900 0.2579
11.1400 3.6967 0.2534
11.1600 3.7033 0.2606
11.1800 3.7100 0.2556
11.2000 3.7167 0.2558
11.2200 3.7233 0.2608
11.2400 3.7300 0.2570
11.2600 3.7366 0.2538
11.2800 3.7433 0.2591
11.3000 3.7500 0.2520
11.3200 3.7568 0.2553
11.3400 3.7635 0.2561
11.3600 3.7702 0.2531
11.3800 3.7768 0.2527
11.4000 3.7834 0.2571
11.4200 3.7900 0.2513
11.4400 3.7966 0.2575
11.4600 3.8034 0.2561
11.4800 3.8101 0.2478
11.5000 3.8168 0.2556
11.5200 3.8234 0.2547
11.5400 3.8301 0.2466
11.5600 3.8368 0.2552
11.5800 3.8434 0.2571
11.6000 3.8500 0.2575
11.6200 3.8566 0.2572
11.6400 3.8633 0.2422
11.6600 3.8700 0.2560
11.6800 3.8767 0.2568
11.7000 3.8833 0.2436
11.7200 3.8900 0.2529
11.7400 3.8967 0.2517
11.7600 3.9033 0.2424
11.7800 3.9099 0.2516
11.8000 3.9165 0.2509
11.8200 3.9233 0.2488
11.8400 3.9300 0.2553
11.8600 3.9367 0.2453
11.8800 3.9434 0.2479
11.9000 3.9501 0.2513
11.9200 3.9567 0.2430
11.9400 3.9633 0.2498
11.9600 3.9700 0.2540
11.9800 3.9766 0.2403
12.0000 3.9833 0.2468
12.0200 3.9901 0.2500
12.0400 3.9968 0.2440
12.0600 4.0034 0.2496
12.0800 4.0101 0.2457
12.1000 4.0168 0.2380
12.1200 4.0234 0.2480
12.1400 4.0300 0.2423
12.1600 4.0367 0.2412
12.1800 4.0434 0.2491
12.2000 4.0500 0.2394
12.2200 4.0567 0.2414
12.2400 4.0634 0.2494
12.2600 4.0701 0.2449
12.2800 4.0768 0.2377
12.3000 4.0834 0.2403
12.3200 4.0899 0.2423
12.3400 4.0966 0.2409
12.3600 4.1033 0.2432
12.3800 4.1100 0.2374
12.4000 4.1167 0.2392
12.4200 4.1234 0.2412
12.4400 4.1301 0.2398
12.4600 4.1368 0.2418
12.4800 4.1434 0.2361
12.5000 4.1499 0.2372
12.5200 4.1566 0.2390
12.5400 4.1633 0.2411
12.5600 4.1700 0.2353
12.5800 4.1767 0.2330
12.6000 4.1834 0.2413
12.6200 4.1901 0.2334
12.6400 4.1968 0.2331
12.6600 4.2034 0.2465
12.6800 4.2100 0.2356
12.7000 4.2167 0.2290
12.7200 4.2233 0.2419
12.7400 4.2300 0.2301
12.7600 4.2367 0.2311
12.7800 4.2434 0.2393
12.8000 4.2501 0.2332
12.8200 4.2568 0.2300
12.8400 4.2634 0.2422
12.8600 4.2700 0.2362
12.8800 4.2766 0.2361
12.9000 4.2833 0.2397
12.9200 4.2900 0.2278
12.9400 4.2968 0.2324
12.9600 4.3035 0.2371
12.9800 4.3101 0.2310
13.0000 4.3168 0.2320
13.0200 4.3234 0.2340
13.0400 4.3300 0.2354
13.0600 4.3366 0.2356
13.0800 4.3433 0.2328
13.1000 4.3501 0.2288
13.1200 4.3567 0.2305
13.1400 4.3634 0.2373
13.1600 4.3701 0.2337
13.1800 4.3768 0.2301
13.2000 4.3834 0.2341
13.2200 4.3900 0.2375
13.2400 4.3966 0.2296
13.2600 4.4033 0.2371
13.2800 4.4100 0.2373
13.3000 4.4167 0.2274
13.3200 4.4234 0.2333
13.3400 4.4301 0.2352
13.3600 4.4368 0.2256
13.3800 4.4434 0.2301
13.4000 4.4500 0.2390
13.4200 4.4566 0.2251
13.4400 4.4633 0.2303
13.4600 4.4701 0.2396
13.4800 4.4768 0.2272
13.5000 4.4835 0.2297
13.5200 4.4901 0.2366
13.5400 4.4968 0.2239
13.5600 4.5034 0.2306
13.5800 4.5100 0.2341
13.6000 4.5167 0.2180
13.6200 4.5234 0.2312
13.6400 4.5301 0.2369
13.6600 4.5367 0.2224
13.6800 4.5434 0.2298
13.7000 4.5501 0.2341
13.7200 4.5567 0.2187
13.7400 4.5633 0.2270
13.7600 4.5699 0.2374
13.7800 4.5766 0.2196
13.8000 4.5833 0.2275
13.8200 4.5900 0.2336
13.8400 4.5967 0.2137
13.8600 4.6034 0.2360
13.8800 4.6101 0.2326
13.9000 4.6167 0.2145
13.9200 4.6234 0.2300
13.9400 4.6300 0.2317
13.9600 4.6366 0.2126
13.9800 4.6433 0.2319
14.0000 4.6500 0.2275
14.0200 4.6567 0.2184
14.0400 4.6634 0.2324
14.0600 4.6701 0.2243
14.0800 4.6767 0.2177
14.1000 4.6834 0.2350
14.1200 4.6900 0.2215
14.1400 4.6966 0.2148
14.1600 4.7033 0.2345
14.1800 4.7100 0.2220
14.2000 4.7167 0.2152
14.2200 4.7234 0.2306
14.2400 4.7301 0.2213
14.2600 4.7368 0.2127
14.2800 4.7434 0.2286
14.3000 4.7500 0.2204
14.3200 4.7566 0.2250
14.3400 4.7633 0.2243
14.3600 4.7700 0.2132
14.3800 4.7768 0.2245
14.4000 4.7834 0.2265
14.4200 4.7901 0.2138
14.4400 4.7968 0.2174
14.4600 4.8034 0.2252
14.4800 4.8100 0.2183
14.5000 4.8166 0.2194
14.5200 4.8233 0.2159
14.5400 4.8300 0.2178
14.5600 4.8367 0.2207
14.5800 4.8434 0.2147
14.6000 4.8501 0.2203
14.6200 4.8567 0.2175
14.6400 4.8634 0.2136
14.6600 4.8700 0.2254
14.6800 4.8766 0.2163
14.7000 4.8833 0.2141
14.7200 4.8900 0.2262
14.7400 4.8967 0.2116
14.7600 4.9034 0.2107
14.7800 4.9100 0.2264
14.8000 4.9167 0.2109
14.8200 4.9234 0.2118
14.8400 4.9300 0.2228
14.8600 4.9366 0.2085
14.8800 4.9433 0.2162
14.9000 4.9500 0.2220
14.9200 4.9567 0.2078
14.9400 4.9634 0.2136
14.9600 4.9701 0.2175
14.9800 4.9768 0.2027
15.0000 4.9834 0.2140
15.0200 4.9900 0.2158
15.0400 4.9966 0.2072
15.0600 5.0033 0.2142
15.0800 5.0100 0.2119
15.1000 5.0167 0.2035
15.1200 5.0234 0.2188
15.1400 5.0301 0.2076
15.1600 5.0368 0.2040
15.1800 5.0434 0.2154
15.2000 5.0500 0.2103
15.2200 5.0566 0.2029
15.2400 5.0633 0.2122
15.2600 5.0700 0.2136
15.2800 5.0767 0.2063
15.3000 5.0834 0.2118
15.3200 5.0901 0.2090
15.3400 5.0968 0.2052
15.3600 5.1034 0.2090
15.3800 5.1100 0.2067
15.4000 5.1166 0.2063
15.4200 5.1232 0.2092
15.4400 5.1300 0.2055
15.4600 5.1367 0.2008
15.4800 5.1434 0.2026
15.5000 5.1500 0.2099
15.5200 5.1567 0.2062
15.5400 5.1634 0.2028
15.5600 5.1700 0.1998
15.5800 5.1766 0.2052
15.6000 5.1833 0.1997
15.6200 5.1900 0.1989
15.6400 5.1967 0.2091
15.6600 5.2034 0.1995
15.6800 5.2101 0.2035
15.7000 5.2168 0.2081
15.7200 5.2234 0.1936
15.7400 5.2301 0.2008
15.7600 5.2367 0.2074
15.7800 5.2434 0.1905
15.8000 5.2501 0.2031
15.8200 5.2568 0.2061
15.8400 5.2634 0.1936
15.8600 5.2701 0.2033
15.8800 5.2768 0.2068
15.9000 5.2834 0.1920
15.9200 5.2900 0.2009
15.9400 5.2966 0.2021
15.9600 5.3033 0.1959
15.9800 5.3100 0.2020
16.0000 5.3167 0.1983
16.0200 5.3234 0.1943
16.0400 5.3301 0.2023
16.0600 5.3367 0.1993
16.0800 5.3434 0.1975
16.1000 5.3500 0.2054
16.1200 5.3566 0.1991
16.1400 5.3633 0.1988
16.1600 5.3700 0.2010
16.1800 5.3767 0.1970
16.2000 5.3834 0.1970
16.2200 5.3900 0.1967
16.2400 5.3967 0.2005
16.2600 5.4034 0.1979
16.2800 5.4100 0.1950
16.3000 5.4167 0.2057
16.3200 5.4233 0.1942
16.3400 5.4300 0.1953
16.3600 5.4367 0.2043
16.3800 5.4434 0.1939
16.4000 5.4501 0.1953
16.4200 5.4568 0.2001
16.4400 5.4634 0.1892
16.4600 5.4700 0.1944
16.4800 5.4766 0.2065
16.5000 5.4833 0.1891
16.5200 5.4900 0.1954
16.5400 5.4967 0.2016
16.5600 5.5034 0.1850
16.5800 5.5101 0.1963
16.6000 5.5168 0.1999
16.6200 5.5234 0.1850
16.6400 5.5300 0.1968
16.6600 5.5366 0.2020
16.6800 5.5433 0.1860
16.7000 5.5500 0.2001
16.7200 5.5567 0.2001
16.7400 5.5634 0.1824
16.7600 5.5700 0.1995
16.7800 5.5767 0.1957
16.8000 5.5834 0.1843
16.8200 5.5900 0.1966
16.8400 5.5966 0.1938
16.8600 5.6033 0.1878
16.8800 5.6100 0.1957
16.9000 5.6167 0.1949
16.9200 5.6234 0.1846
16.9400 5.6300 0.1940
16.9600 5.6368 0.1898
16.9800 5.6434 0.1855
17.0000 5.6500 0.1875
17.0200 5.6566 0.1981
17.0400 5.6633 0.1886
17.0600 5.6700 0.1844
17.0800 5.6767 0.1961
17.1000 5.6834 0.1876
17.1200 5.6901 0.1858
17.1400 5.6968 0.1930
17.1600 5.7034 0.1868
17.1800 5.7100 0.1847
17.2000 5.7166 0.1901
17.2200 5.7233 0.1844
17.2400 5.7300 0.1879
17.2600 5.7367 0.1900
17.2800 5.7434 0.1828
17.3000 5.7501 0.1824
17.3200 5.7568 0.1957
17.3400 5.7635 0.1787
17.3600 5.7701 0.1827
17.3800 5.7766 0.1929
17.4000 5.7833 0.1825
17.4200 5.7900 0.1832
17.4400 5.7967 0.1878
17.4600 5.8034 0.1805
17.4800 5.8101 0.1821
17.5000 5.8168 0.1884
17.5200 5.8234 0.1810
17.5400 5.8300 0.1797
17.5600 5.8366 0.1885
17.5800 5.8432 0.1788
17.6000 5.8499 0.1807
17.6200 5.8567 0.1887
17.6400 5.8634 0.1752
17.6600 5.8700 0.1782
17.6800 5.8767 0.1853
17.7000 5.8834 0.1757
17.7200 5.8900 0.1837
17.7400 5.8966 0.1826
17.7600 5.9033 0.1750
17.7800 5.9100 0.1830
17.8000 5.9167 0.1828
17.8200 5.9234 0.1765
17.8400 5.9301 0.1785
17.8600 5.9368 0.1825
17.8800 5.9435 0.1750
17.9000 5.9501 0.1815
17.9200 5.9567 0.1822
17.9400 5.9633 0.1767
17.9600 5.9700 0.1821
17.9800 5.9767 0.1781
18.0000 5.9834 0.1755
18.0200 5.9901 0.1761
18.0400 5.9968 0.1808
18.0600 6.0034 0.1760
18.0800 6.0100 0.1755
18.1000 6.0166 0.1828
18.1200 6.0233 0.1807
18.1400 6.0300 0.1767
18.1600 6.0367 0.1808
18.1800 6.0434 0.1719
18.2000 6.0501 0.1734
18.2200 6.0567 0.1807
18.2400 6.0634 0.1764
18.2600 6.0700 0.1709
18.2800 6.0767 0.1815
18.3000 6.0833 0.1771
18.3200 6.0900 0.1720
18.3400 6.0967 0.1820
18.3600 6.1034 0.1762
18.3800 6.1100 0.1714
18.4000 6.1167 0.1769
18.4200 6.1234 0.1715
18.4400 6.1301 0.1690
18.4600 6.1367 0.1812
18.4800 6.1433 0.1725
18.5000 6.1500 0.1687
18.5200 6.1567 0.1780
18.5400 6.1634 0.1719
18.5600 6.1701 0.1672
18.5800 6.1768 0.1799
18.6000 6.1834 0.1670
18.6200 6.1900 0.1627
18.6400 6.1967 0.1761
18.6600 6.2033 0.1687
18.6800 6.2100 0.1690
18.7000 6.2167 0.1735
18.7200 6.2234 0.1669
18.7400 6.2301 0.1732
18.7600 6.2368 0.1719
18.7800 6.2434 0.1647
18.8000 6.2501 0.1731
18.8200 6.2567 0.1686
18.8400 6.2633 0.1689
18.8600 6.2700 0.1711
18.8800 6.2767 0.1700
18.9000 6.2834 0.1669
18.9200 6.2900 0.1692
18.9400 6.2967 0.1709
18.9600 6.3034 0.1699
18.9800 6.3100 0.1651
19.0000 6.3166 0.1670
19.0200 6.3233 0.1676
19.0400 6.3299 0.1680
19.0600 6.3366 0.1684
19.0800 6.3433 0.1664
19.1000 6.3500 0.1667
19.1200 6.3567 0.1640
19.1400 6.3634 0.1649
19.1600 6.3700 0.1626
19.1800 6.3766 0.1717
19.2000 6.3833 0.1642
19.2200 6.3900 0.1627
19.2400 6.3967 0.1713
19.2600 6.4034 0.1633
19.2800 6.4101 0.1599
19.3000 6.4168 0.1637
19.3200 6.4234 0.1596
19.3400 6.4301 0.1680
19.3600 6.4367 0.1663
19.3800 6.4433 0.1637
19.4000 6.4500 0.1645
19.4200 6.4567 0.1613
19.4400 6.4634 0.1603
19.4600 6.4701 0.1623
19.4800 6.4768 0.1625
19.5000 6.4834 0.1586
19.5200 6.4901 0.1608
19.5400 6.4967 0.1594
19.5600 6.5033 0.1638
19.5800 6.5099 0.1673
19.6000 6.5167 0.1589
19.6200 6.5234 0.1599
19.6400 6.5301 0.1620
19.6600 6.5368 0.1582
19.6800 6.5434 0.1624
19.7000 6.5500 0.1574
19.7200 6.5566 0.1589
19.7400 6.5632 0.1626
19.7600 6.5699 0.1582
19.7800 6.5766 0.1587
19.8000 6.5834 0.1631
19.8200 6.5900 0.1593
19.8400 6.5967 0.1564
19.8600 6.6034 0.1618
19.8800 6.6100 0.1528
19.9000 6.6167 0.1575
19.9200 6.6233 0.1625
19.9400 6.6300 0.1560
19.9600 6.6367 0.1555
19.9800 6.6434 0.1617
20.0000 6.6501 0.1555
20.0200 6.6568 0.1579
20.0400 6.6635 0.1597
20.0600 6.6701 0.1508
20.0800 6.6767 0.1560
20.1000 6.6833 0.1640
20.1200 6.6900 0.1503
20.1400 6.6967 0.1557
20.1600 6.7034 0.1599
20.1800 6.7101 0.1537
20.2000 6.7168 0.1590
20.2200 6.7234 0.1586
20.2400 6.7301 0.1547
20.2600 6.7367 0.1591
20.2800 6.7433 0.1559
20.3000 6.7500 0.1525
20.3200 6.7567 0.1593
20.3400 6.7634 0.1527
20.3600 6.7700 0.1538
20.3800 6.7767 0.1601
20.4000 6.7834 0.1544
20.4200 6.7900 0.1538
20.4400 6.7967 0.1588
20.4600 6.8033 0.1513
20.4800 6.8099 0.1604
20.5000 6.8167 0.1538
20.5200 6.8234 0.1506
20.5400 6.8301 0.1561
20.5600 6.8367 0.1511
20.5800 6.8434 0.1573
20.6000 6.8501 0.1567
20.6200 6.8567 0.1488
20.6400 6.8633 0.1590
20.6600 6.8700 0.1601
20.6800 6.8767 0.1451
20.7000 6.8834 0.1521
20.7200 6.8901 0.1563
20.7400 6.8968 0.1443
20.7600 6.9034 0.1525
20.7800 6.9101 0.1563
20.8000 6.9167 0.1475
20.8200 6.9233 0.1626
20.8400 6.9300 0.1509
20.8600 6.9367 0.1488
20.8800 6.9434 0.1566
20.9000 6.9501 0.1492
20.9200 6.9567 0.1468
20.9400 6.9634 0.1520
20.9600 6.9701 0.1518
20.9800 6.9767 0.1432
21.0000 6.9834 0.1562
21.0200 6.9900 0.1500
21.0400 6.9967 0.1439
21.0600 7.0034 0.1531
21.0800 7.0100 0.1467
21.1000 7.0167 0.1424
21.1200 7.0234 0.1485
21.1400 7.0301 0.1480
21.1600 7.0367 0.1417
21.1800 7.0433 0.1477
21.2000 7.0499 0.1520
21.2200 7.0566 0.1448
21.2400 7.0633 0.1510
21.2600 7.0700 0.1454
21.2800 7.0767 0.1439
21.3000 7.0834 0.1454
21.3200 7.0900 0.1414
21.3400 7.0967 0.1472
21.3600 7.1033 0.1431
21.3800 7.1099 0.1450
21.4000 7.1166 0.1471
21.4200 7.1234 0.1397
21.4400 7.1301 0.1453
21.4600 7.1367 0.1460
21.4800 7.1434 0.1392
21.5000 7.1501 0.1416
21.5200 7.1567 0.1425
21.5400 7.1633 0.1396
21.5600 7.1700 0.1383
21.5800 7.1767 0.1486
21.6000 7.1834 0.1344
21.6200 7.1901 0.1430
21.6400 7.1968 0.1457
21.6600 7.2034 0.1329
21.6800 7.2101 0.1456
21.7000 7.2167 0.1340
21.7200 7.2233 0.1357
21.7400 7.2299 0.1486
21.7600 7.2367 0.1334
21.7800 7.2434 0.1335
21.8000 7.2501 0.1448
21.8200 7.2567 0.1356
21.8400 7.2634 0.1364
21.8600 7.2701 0.1464
21.8800 7.2767 0.1293
21.9000 7.2833 0.1373
21.9200 7.2899 0.1483
21.9400 7.2966 0.1264
21.9600 7.3033 0.1398
21.9800 7.3100 0.1412
22.0000 7.3167 0.1256
22.0200 7.3234 0.1412
22.0400 7.3301 0.1424
22.0600 7.3367 0.1271
22.0800 7.3433 0.1388
22.1000 7.3500 0.1395
22.1200 7.3567 0.1269
22.1400 7.3634 0.1400
22.1600 7.3701 0.1357
22.1800 7.3768 0.1271
22.2000 7.3835 0.1359
22.2200 7.3901 0.1329
22.2400 7.3967 0.1309
22.2600 7.4033 0.1389
22.2800 7.4100 0.1350
22.3000 7.4167 0.1306
22.3200 7.4234 0.1332
22.3400 7.4301 0.1347
22.3600 7.4368 0.1306
22.3800 7.4434 0.1332
22.4000 7.4501 0.1313
22.4200 7.4567 0.1305
22.4400 7.4633 0.1330
22.4600 7.4699 0.1340
22.4800 7.4766 0.1308
22.5000 7.4833 0.1244
22.5200 7.4900 0.1329
22.5400 7.4967 0.1268
22.5600 7.5034 0.1281
22.5800 7.5101 0.1341
22.6000 7.5167 0.1221
22.6200 7.5233 0.1283
22.6400 7.5299 0.1385
22.6600 7.5366 0.1222
22.6800 7.5433 0.1303
22.7000 7.5500 0.1362
22.7200 7.5567 0.1201
22.7400 7.5634 0.1248
22.7600 7.5701 0.1336
22.7800 7.5767 0.1220
22.8000 7.5833 0.1294
22.8200 7.5900 0.1294
22.8400 7.5966 0.1241
22.8600 7.6034 0.1313
22.8800 7.6101 0.1288
22.9000 7.6167 0.1230
22.9200 7.6234 0.1267
22.9400 7.6301 0.1296
22.9600 7.6368 0.1188
22.9800 7.6434 0.1281
23.0000 7.6500 0.1272
23.0200 7.6567 0.1230
23.0400 7.6634 0.1245
23.0600 7.6701 0.1278
23.0800 7.6767 0.1310
23.1000 7.6834 0.1267
23.1200 7.6901 0.1242
23.1400 7.6968 0.1238
23.1600 7.7034 0.1275
23.1800 7.7100 0.1253
23.2000 7.7166 0.1283
23.2200 7.7233 0.1266
23.2400 7.7301 0.1182
23.2600 7.7368 0.1320
23.2800 7.7434 0.1262
23.3000 7.7501 0.1164
23.3200 7.7567 0.1289
23.3400 7.7633 0.1223
23.3600 7.7699 0.1197
23.3800 7.7766 0.1259
23.4000 7.7833 0.1224
23.4200 7.7900 0.1186
23.4400 7.7967 0.1299
23.4600 7.8033 0.1174
23.4800 7.8100 0.1208
23.5000 7.8167 0.1270
23.5200 7.8233 0.1136
23.5400 7.8300 0.1235
23.5600 7.8366 0.1266
23.5800 7.8434 0.1169
23.6000 7.8501 0.1185
23.6200 7.8568 0.1230
23.6400 7.8635 0.1182
23.6600 7.8701 0.1244
23.6800 7.8768 0.1208
23.7000 7.8834 0.1178
23.7200 7.8900 0.1189
23.7400 7.8966 0.1227
23.7600 7.9034 0.1146
23.7800 7.9101 0.1184
23.8000 7.9168 0.1212
23.8200 7.9234 0.1167
23.8400 7.9301 0.1139
23.8600 7.9367 0.1204
23.8800 7.9433 0.1167
23.9000 7.9499 0.1180
23.9200 7.9566 0.1227
23.9400 7.9634 0.1121
23.9600 7.9701 0.1154
23.9800 7.9767 0.1195
24.0000 7.9834 0.1163
24.0200 7.9901 0.1134
24.0400 7.9967 0.1160
24.0600 8.0034 0.1147
24.0800 8.0100 0.1097
24.1000 8.0166 0.1156
24.1200 8.0233 0.1167
24.1400 8.0300 0.1087
24.1600 8.0367 0.1163
24.1800 8.0434 0.1124
24.2000 8.0501 0.1115
24.2200 8.0567 0.1128
24.2400 8.0633 0.1132
24.2600 8.0700 0.1102
24.2800 8.0766 0.1178
24.3000 8.0834 0.1095
24.3200 8.0901 0.1114
24.3400 8.0968 0.1168
24.3600 8.1035 0.1088
24.3800 8.1101 0.1118
24.4000 8.1167 0.1122
24.4200 8.1233 0.1084
24.4400 8.1300 0.1084
24.4600 8.1366 0.1144
24.4800 8.1434 0.1087
24.5000 8.1501 0.1077
24.5200 8.1568 0.1175
24.5400 8.1634 0.1111
24.5600 8.1701 0.1073
24.5800 8.1767 0.1121
24.6000 8.1834 0.1065
24.6200 8.1900 0.1063
24.6400 8.1966 0.1113
24.6600 8.2033 0.1112
24.6800 8.2100 0.1045
24.7000 8.2167 0.1098
24.7200 8.2234 0.1136
24.7400 8.2301 0.1038
24.7600 8.2367 0.1118
24.7800 8.2433 0.1054
24.8000 8.2499 0.1024
24.8200 8.2566 0.1159
24.8400 8.2633 0.1061
24.8600 8.2700 0.0977
24.8800 8.2767 0.1145
24.9000 8.2834 0.1061
24.9200 8.2901 0.1009
24.9400 8.2967 0.1135
24.9600 8.3033 0.1008
24.9800 8.3100 0.1068
25.0000 8.3167 0.1120
25.0200 8.3234 0.0993
25.0400 8.3300 0.1094
25.0600 8.3367 0.1092
25.0800 8.3434 0.0997
25.1000 8.3501 0.1027
25.1200 8.3568 0.1090
25.1400 8.3634 0.1047
25.1600 8.3700 0.1037
25.1800 8.3766 0.1049
25.2000 8.3833 0.1004
25.2200 8.3900 0.1063
25.2400 8.3967 0.1059
25.2600 8.4034 0.1012
25.2800 8.4101 0.1038
25.3000 8.4168 0.0995
25.3200 8.4234 0.1021
25.3400 8.4300 0.1021
25.3600 8.4366 0.1068
25.3800 8.4434 0.1050
25.4000 8.4501 0.0966
25.4200 8.4567 0.1040
25.4400 8.4634 0.1037
25.4600 8.4701 0.0973
25.4800 8.4767 0.1015
25.5000 8.4833 0.1006
25.5200 8.4899 0.1001
25.5400 8.4966 0.1073
25.5600 8.5033 0.1064
25.5800 8.5100 0.0949
25.6000 8.5167 0.1035
25.6200 8.5233 0.1034
25.6400 8.5300 0.0973
25.6600 8.5367 0.0988
25.6800 8.5434 0.1038
25.7000 8.5500 0.0978
25.7200 8.5566 0.0983
25.7400 8.5633 0.1036
25.7600 8.5700 0.0972
25.7800 8.5768 0.0980
25.8000 8.5835 0.1033
25.8200 8.5902 0.0957
25.8400 8.5968 0.0997
25.8600 8.6034 0.0978
25.8800 8.6100 0.0930
25.9000 8.6166 0.0956
25.9200 8.6234 0.0998
25.9400 8.6301 0.0971
25.9600 8.6368 0.0963
25.9800 8.6434 0.1022
26.0000 8.6501 0.0906
26.0200 8.6568 0.0957
26.0400 8.6634 0.0959
26.0600 8.6700 0.0927
26.0800 8.6766 0.0937
26.1000 8.6833 0.0983
26.1200 8.6900 0.0865
26.1400 8.6967 0.0977
26.1600 8.7034 0.1000
26.1800 8.7101 0.0886
26.2000 8.7167 0.0906
26.2200 8.7234 0.0941
26.2400 8.7299 0.0894
26.2600 8.7366 0.0991
26.2800 8.7433 0.0886
26.3000 8.7500 0.0891
26.3200 8.7567 0.0970
26.3400 8.7634 0.0860
26.3600 8.7700 0.0914
26.3800 8.7767 0.0970
26.4000 8.7833 0.0917
26.4200 8.7900 0.0868
26.4400 8.7966 0.0919
26.4600 8.8033 0.0876
26.4800 8.8101 0.0884
26.5000 8.8168 0.0913
26.5200 8.8234 0.0871
26.5400 8.8301 0.0875
26.5600 8.8368 0.0887
26.5800 8.8434 0.0885
26.6000 8.8500 0.0956
26.6200 8.8567 0.0822
26.6400 8.8634 0.0878
26.6600 8.8700 0.0960
26.6800 8.8767 0.0824
26.7000 8.8834 0.0859
26.7200 8.8901 0.0921
26.7400 8.8968 0.0808
26.7600 8.9034 0.0879
26.7800 8.9100 0.0993
26.8000 8.9166 0.0812
26.8200 8.9233 0.0903
26.8400 8.9300 0.0923
26.8600 8.9367 0.0751
26.8800 8.9434 0.0915
26.9000 8.9501 0.0926
26.9200 8.9568 0.0753
26.9400 8.9634 0.0918
26.9600 8.9699 0.0897
26.9800 8.9766 0.0812
27.0000 8.9833 0.0966
27.0200 8.9900 0.0907
27.0400 8.9967 0.0776
27.0600 9.0034 0.0922
27.0800 9.0100 0.0876
27.1000 9.0167 0.0783
27.1200 9.0234 0.0907
27.1400 9.0300 0.0843
27.1600 9.0366 0.0860
27.1800 9.0433 0.0854
27.2000 9.0500 0.0860
27.2200 9.0567 0.0860
27.2400 9.0634 0.0841
27.2600 9.0701 0.0875
27.2800 9.0768 0.0776
27.3000 9.0834 0.0831
27.3200 9.0900 0.0874
27.3400 9.0966 0.0845
27.3600 9.1033 0.0855
27.3800 9.1100 0.0836
27.4000 9.1168 0.0835
27.4200 9.1234 0.0846
27.4400 9.1301 0.0836
27.4600 9.1368 0.0806
27.4800 9.1434 0.0810
27.5000 9.1500 0.0828
27.5200 9.1566 0.0813
27.5400 9.1633 0.0840
27.5600 9.1700 0.0798
27.5800 9.1767 0.0815
27.6000 9.1834 0.0811
27.6200 9.1901 0.0844
27.6400 9.1968 0.0797
27.6600 9.2034 0.0781
27.6800 9.2100 0.0855
27.7000 9.2166 0.0771
27.7200 9.2233 0.0779
27.7400 9.2300 0.0848
27.7600 9.2367 0.0773
27.7800 9.2434 0.0788
27.8000 9.2501 0.0848
27.8200 9.2567 0.0753
27.8400 9.2634 0.0783
27.8600 9.2700 0.0805
27.8800 9.2766 0.0757
27.9000 9.2833 0.0811
27.9200 9.2900 0.0795
27.9400 9.2968 0.0689
27.9600 9.3035 0.0823
27.9800 9.3101 0.0765
28.0000 9.3168 0.0725
28.0200 9.3234 0.0830
28.0400 9.3300 0.0807
28.0600 9.3367 0.0732
28.0800 9.3433 0.0808
28.1000 9.3500 0.0741
28.1200 9.3567 0.0723
28.1400 9.3634 0.0794
28.1600 9.3701 0.0795
28.1800 9.3768 0.0696
28.2000 9.3834 0.0765
28.2200 9.3900 0.0821
28.2400 9.3966 0.0767
28.2600 9.4033 0.0750
28.2800 9.4100 0.0760
28.3000 9.4167 0.0756
28.3200 9.4234 0.0742
28.3400 9.4301 0.0755
28.3600 9.4368 0.0756
28.3800 9.4434 0.0740
28.4000 9.4500 0.0769
28.4200 9.4566 0.0759
28.4400 9.4633 0.0715
28.4600 9.4700 0.0801
28.4800 9.4767 0.0695
28.5000 9.4834 0.0686
28.5200 9.4901 0.0783
28.5400 9.4967 0.0768
28.5600 9.5034 0.0693
28.5800 9.5100 0.0744
28.6000 9.5166 0.0760
28.6200 9.5233 0.0699
28.6400 9.5300 0.0786
28.6600 9.5367 0.0747
28.6800 9.5434 0.0745
28.7000 9.5501 0.0785
28.7200 9.5568 0.0669
28.7400 9.5634 0.0693
28.7600 9.5700 0.0788
28.7800 9.5767 0.0657
28.8000 9.5833 0.0748
28.8200 9.5900 0.0755
28.8400 9.5967 0.0641
28.8600 9.6034 0.0724
28.8800 9.6101 0.0809
28.9000 9.6168 0.0640
28.9200 9.6234 0.0736
28.9400 9.6300 0.0763
28.9600 9.6366 0.0611
28.9800 9.6433 0.0758
29.0000 9.6500 0.0784
29.0200 9.6567 0.0618
29.0400 9.6634 0.0672
29.0600 9.6701 0.0803
29.0800 9.6768 0.0646
29.1000 9.6834 0.0690
29.1200 9.6900 0.0770
29.1400 9.6966 0.0664
29.1600 9.7033 0.0692
29.1800 9.7100 0.0773
29.2000 9.7167 0.0626
29.2200 9.7234 0.0700
29.2400 9.7300 0.0741
29.2600 9.7367 0.0596
29.2800 9.7434 0.0677
29.3000 9.7500 0.0765
29.3200 9.7567 0.0615
29.3400 9.7633 0.0694
29.3600 9.7700 0.0698
29.3800 9.7767 0.0594
29.4000 9.7834 0.0712
29.4200 9.7901 0.0672
29.4400 9.7968 0.0563
29.4600 9.8034 0.0729
29.4800 9.8100 0.0687
29.5000 9.8166 0.0616
29.5200 9.8233 0.0717
29.5400 9.8300 0.0630
29.5600 9.8367 0.0629
29.5800 9.8434 0.0672
29.6000 9.8501 0.0610
29.6200 9.8568 0.0588
29.6400 9.8634 0.0660
29.6600 9.8700 0.0617
29.6800 9.8766 0.0582
29.7000 9.8833 0.0691
29.7200 9.8900 0.0639
29.7400 9.8967 0.0654
29.7600 9.9034 0.0645
29.7800 9.9101 0.0606
29.8000 9.9167 0.0654
29.8200 9.9234 0.0597
29.8400 9.9300 0.0615
29.8600 9.9366 0.0591
29.8800 9.9432 0.0596
29.9000 9.9499 0.0645
29.9200 9.9567 0.0557
29.9400 9.9634 0.0593
29.9600 9.9700 0.0683
29.9800 9.9767 0.0531
30.0000 9.9834 0.0591
30.0200 9.9900 0.0635
30.0400 9.9966 0.0545
30.0600 10.0033 0.0606
30.0800 10.0100 0.0594
30.1000 10.0167 0.0518
30.1200 10.0234 0.0627
30.1400 10.0301 0.0614
30.1600 10.0368 0.0521
30.1800 10.0434 0.0626
30.2000 10.0501 0.0570
30.2200 10.0567 0.0545
30.2400 10.0633 0.0657
30.2600 10.0700 0.0514
30.2800 10.0767 0.0581
30.3000 10.0834 0.0588
30.3200 10.0901 0.0518
30.3400 10.0968 0.0624
30.3600 10.1034 0.0546
30.3800 10.1100 0.0546
30.4000 10.1166 0.0582
30.4200 10.1233 0.0500
30.4400 10.1300 0.0561
30.4600 10.1367 0.0550
30.4800 10.1434 0.0493
30.5000 10.1501 0.0532
30.5200 10.1567 0.0526
30.5400 10.1634 0.0455
30.5600 10.1700 0.0565
30.5800 10.1766 0.0565
30.6000 10.1833 0.0524
30.6200 10.1900 0.0562
30.6400 10.1967 0.0447
30.6600 10.2034 0.0484
30.6800 10.2100 0.0544
30.7000 10.2167 0.0482
30.7200 10.2234 0.0443
30.7400 10.2300 0.0493
30.7600 10.2367 0.0491
30.7800 10.2433 0.0507
30.8000 10.2500 0.0494
30.8200 10.2567 0.0464
30.8400 10.2634 0.0513
30.8600 10.2701 0.0484
30.8800 10.2768 0.0423
30.9000 10.2835 0.0509
30.9200 10.2901 0.0460
30.9400 10.2967 0.0425
30.9600 10.3033 0.0533
30.9800 10.3100 0.0443
31.0000 10.3167 0.0417
31.0200 10.3234 0.0482
31.0400 10.3301 0.0399
31.0600 10.3368 0.0469
31.0800 10.3434 0.0510
31.1000 10.3500 0.0387
31.1200 10.3566 0.0482
31.1400 10.3633 0.0477
31.1600 10.3700 0.0359
31.1800 10.3767 0.0452
31.2000 10.3834 0.0470
31.2200 10.3900 0.0372
31.2400 10.3967 0.0512
31.2600 10.4034 0.0434
31.2800 10.4100 0.0336
31.3000 10.4167 0.0482
31.3200 10.4233 0.0477
31.3400 10.4300 0.0387
31.3600 10.4367 0.0437
31.3800 10.4433 0.0440
31.4000 10.4500 0.0391
31.4200 10.4567 0.0470
31.4400 10.4634 0.0441
31.4600 10.4701 0.0360
31.4800 10.4766 0.0456
31.5000 10.4833 0.0440
31.5200 10.4900 0.0363
31.5400 10.4967 0.0469
31.5600 10.5034 0.0417
31.5800 10.5101 0.0357
31.6000 10.5168 0.0417
31.6200 10.5235 0.0448
31.6400 10.5301 0.0314
31.6600 10.5367 0.0440
31.6800 10.5433 0.0442
31.7000 10.5500 0.0279
31.7200 10.5567 0.0434
31.7400 10.5634 0.0434
31.7600 10.5701 0.0412
31.7800 10.5768 0.0401
31.8000 10.5835 0.0387
31.8200 10.5901 0.0400
31.8400 10.5967 0.0376
31.8600 10.6033 0.0391
31.8800 10.6100 0.0421
31.9000 10.6167 0.0371
31.9200 10.6234 0.0405
31.9400 10.6301 0.0361
31.9600 10.6368 0.0421
31.9800 10.6434 0.0415
32.0000 10.6500 0.0289
32.0200 10.6566 0.0351
32.0400 10.6632 0.0432
32.0600 10.6699 0.0284
32.0800 10.6767 0.0384
32.1000 10.6834 0.0398
32.1200 10.6901 0.0251
32.1400 10.6967 0.0440
32.1600 10.7034 0.0360
32.1800 10.7100 0.0241
32.2000 10.7167 0.0426
32.2200 10.7233 0.0360
32.2400 10.7300 0.0297
32.2600 10.7367 0.0454
32.2800 10.7434 0.0262
32.3000 10.7501 0.0337
32.3200 10.7568 0.0433
32.3400 10.7635 0.0293
32.3600 10.7701 0.0315
32.3800 10.7767 0.0398
32.4000 10.7833 0.0317
32.4200 10.7900 0.0360
32.4400 10.7967 0.0365
32.4600 10.8034 0.0317
32.4800 10.8101 0.0416
32.5000 10.8168 0.0312
32.5200 10.8234 0.0310
32.5400 10.8301 0.0415
32.5600 10.8366 0.0292
32.5800 10.8433 0.0328
32.6000 10.8500 0.0400
32.6200 10.8567 0.0267
32.6400 10.8634 0.0337
32.6600 10.8701 0.0345
32.6800 10.8767 0.0302
32.7000 10.8834 0.0375
32.7200 10.8901 0.0304
32.7400 10.8967 0.0289
32.7600 10.9033 0.0394
32.7800 10.9100 0.0269
32.8000 10.9167 0.0291
32.8200 10.9234 0.0334
32.8400 10.9300 0.0271
32.8600 10.9367 0.0349
32.8800 10.9434 0.0357
32.9000 10.9501 0.0225
32.9200 10.9567 0.0325
32.9400 10.9633 0.0339
32.9600 10.9700 0.0232
32.9800 10.9767 0.0301
33.0000 10.9834 0.0311
33.0200 10.9901 0.0229
33.0400 10.9968 0.0308
33.0600 11.0034 0.0295
33.0800 11.0101 0.0249
33.1000 11.0167 0.0348
33.1200 11.0233 0.0290
33.1400 11.0300 0.0261
33.1600 11.0367 0.0274
33.1800 11.0434 0.0286
33.2000 11.0501 0.0298
33.2200 11.0568 0.0273
33.2400 11.0635 0.0241
33.2600 11.0701 0.0243
33.2800 11.0767 0.0268
33.3000 11.0833 0.0310
33.3200 11.0900 0.0243
33.3400 11.0967 0.0260
33.3600 11.1034 0.0291
33.3800 11.1100 0.0213
33.4000 11.1167 0.0264
33.4200 11.1234 0.0256
33.4400 11.1301 0.0219
33.4600 11.1367 0.0256
33.4800 11.1433 0.0274
33.5000 11.1499 0.0186
33.5200 11.1566 0.0275
33.5400 11.1633 0.0280
33.5600 11.1700 0.0198
33.5800 11.1767 0.0277
33.6000 11.1834 0.0202
33.6200 11.1901 0.0189
33.6400 11.1967 0.0301
33.6600 11.2033 0.0251
33.6800 11.2100 0.0166
33.7000 11.2167 0.0220
33.7200 11.2234 0.0202
33.7400 11.2301 0.0214
33.7600 11.2368 0.0254
33.7800 11.2435 0.0207
33.8000 11.2501 0.0169
33.8200 11.2567 0.0219
33.8400 11.2633 0.0200
33.8600 11.2700 0.0252
33.8800 11.2767 0.0200
33.9000 11.2834 0.0146
33.9200 11.2901 0.0203
33.9400 11.2967 0.0224
33.9600 11.3034 0.0195
33.9800 11.3101 0.0266
34.0000 11.3167 0.0169
34.0200 11.3233 0.0159
34.0400 11.3300 0.0229
34.0600 11.3366 0.0209
34.0800 11.3433 0.0156
34.1000 11.3500 0.0208
34.1200 11.3567 0.0167
34.1400 11.3634 0.0121
34.1600 11.3701 0.0275
34.1800 11.3767 0.0208
34.2000 11.3832 0.0155
34.2200 11.3899 0.0220
34.2400 11.3966 0.0174
34.2600 11.4034 0.0140
34.2800 11.4100 0.0191
34.3000 11.4167 0.0190
34.3200 11.4234 0.0141
34.3400 11.4300 0.0140
34.3600 11.4367 0.0184
34.3800 11.4433 0.0165
34.4000 11.4500 0.0204
34.4200 11.4567 0.0181
34.4400 11.4634 0.0110
34.4600 11.4701 0.0138
34.4800 11.4768 0.0204
34.5000 11.4835 0.0113
34.5200 11.4901 0.0140
34.5400 11.4967 0.0220
34.5600 11.5033 0.0098
34.5800 11.5100 0.0154
34.6000 11.5167 0.0186
34.6200 11.5234 0.0135
34.6400 11.5301 0.0165
34.6600 11.5368 0.0139
34.6800 11.5434 0.0090
34.7000 11.5501 0.0168
34.7200 11.5567 0.0130
34.7400 11.5633 0.0109
34.7600 11.5700 0.0162
34.7800 11.5767 0.0125
34.8000 11.5834 0.0116
34.8200 11.5900 0.0208
34.8400 11.5967 0.0139
34.8600 11.6034 0.0153
34.8800 11.6101 0.0161
34.9000 11.6167 0.0051
34.9200 11.6233 0.0140
34.9400 11.6299 0.0165
34.9600 11.6366 0.0060
34.9800 11.6434 0.0096
35.0000 11.6501 0.0126
35.0200 11.6567 0.0093
35.0400 11.6634 0.0137
35.0600 11.6701 0.0111
35.0800 11.6767 0.0081
35.1000 11.6833 0.0153
35.1200 11.6900 0.0129
35.1400 11.6967 0.0053
35.1600 11.7034 0.0146
35.1800 11.7101 0.0109
35.2000 11.7168 0.0041
35.2200 11.7234 0.0108
35.2400 11.7301 0.0089
35.2600 11.7367 0.0107
35.2800 11.7433 0.0137
35.3000 11.7500 0.0098
35.3200 11.7567 0.0052
35.3400 11.7634 0.0140
35.3600 11.7701 0.0054
35.3800 11.7768 0.0056
35.4000 11.7834 0.0126
35.4200 11.7901 0.0038
35.4400 11.7968 0.0072
35.4600 11.8034 0.0115
35.4800 11.8100 0.0108
35.5000 11.8167 0.0120
35.5200 11.8234 0.0015
35.5400 11.8300 0.0111
35.5600 11.8367 0.0090
35.5800 11.8434 0.0030
35.6000 11.8501 0.0046
35.6200 11.8567 0.0090
35.6400 11.8633 0.0014
35.6600 11.8699 0.0079
35.6800 11.8766 0.0130
35.7000 11.8834 0.0061
35.7200 11.8901 0.0055
35.7400 11.8967 0.0052
35.7600 11.9034 0.0039
35.7800 11.9101 0.0088
35.8000 11.9167 0.0018
35.8200 11.9233 0.0038
35.8400 11.9300 0.0138
35.8600 11.9366 -0.0057
35.8800 11.9434 0.0064
35.9000 11.9500 0.0146
35.9200 11.9567 0.0013
35.9400 11.9634 0.0071
35.9600 11.9701 0.0086
35.9800 11.9767 -0.0034
36.0000 11.9833 0.0113
36.0200 11.9900 0.0073
36.0400 11.9966 -0.0050
36.0600 12.0033 0.0127
36.0800 12.0101 0.0042
36.1000 12.0168 -0.0062
36.1200 12.0234 0.0147
36.1400 12.0301 0.0005
36.1600 12.0367 -0.0042
36.1800 12.0433 0.0144
36.2000 12.0499 0.0000
36.2200 12.0567 -0.0022
36.2400 12.0634 0.0092
36.2600 12.0701 -0.0056
36.2800 12.0767 0.0008
36.3000 12.0834 0.0123
36.3200 12.0901 -0.0127
36.3400 12.0967 0.0039
36.3600 12.1033 0.0113
36.3800 12.1099 -0.0058
36.4000 12.1166 0.0067
36.4200 12.1233 -0.0020
36.4400 12.1300 -0.0069
36.4600 12.1367 0.0034
36.4800 12.1434 -0.0027
36.5000 12.1501 -0.0121
36.5200 12.1567 0.0068
36.5400 12.1634 -0.0036
36.5600 12.1700 -0.0077
36.5800 12.1767 0.0110
36.6000 12.1834 -0.0018
36.6200 12.1901 -0.0109
36.6400 12.1968 0.0046
36.6600 12.2035 -0.0068
36.6800 12.2101 -0.0090
36.7000 12.2168 -0.0003
36.7200 12.2233 -0.0050
36.7400 12.2300 -0.0041
36.7600 12.2367 -0.0027
36.7800 12.2434 -0.0061
36.8000 12.2501 -0.0036
36.8200 12.2568 0.0005
36.8400 12.2634 -0.0095
36.8600 12.2701 -0.0093
36.8800 12.2767 -0.0081
36.9000 12.2833 -0.0046
36.9200 12.2900 -0.0014
36.9400 12.2966 -0.0129
36.9600 12.3033 -0.0057
36.9800 12.3100 0.0004
37.0000 12.3167 -0.0155
37.0200 12.3234 -0.0056
37.0400 12.3301 -0.0059
37.0600 12.3367 -0.0091
37.0800 12.3433 -0.0109
37.1000 12.3499 -0.0069
37.1200 12.3566 -0.0110
37.1400 12.3633 -0.0109
37.1600 12.3700 -0.0062
37.1800 12.3767 -0.0156
37.2000 12.3834 -0.0097
37.2200 12.3901 -0.0093
37.2400 12.3967 -0.0149
37.2600 12.4033 -0.0081
37.2800 12.4100 -0.0083
37.3000 12.4167 -0.0164
37.3200 12.4234 -0.0163
37.3400 12.4301 -0.0117
37.3600 12.4367 -0.0142
37.3800 12.4434 -0.0174
37.4000 12.4501 -0.0148
37.4200 12.4568 -0.0192
37.4400 12.4634 -0.0145
37.4600 12.4700 -0.0108
37.4800 12.4767 -0.0115
37.5000 12.4834 -0.0228
37.5200 12.4901 -0.0169
37.5400 12.4967 -0.0165
37.5600 12.5034 -0.0209
37.5800 12.5101 -0.0142
37.6000 12.5168 -0.0149
37.6200 12.5234 -0.0228
37.6400 12.5300 -0.0188
37.6600 12.5366 -0.0175
37.6800 12.5433 -0.0194
37.7000 12.5500 -0.0171
37.7200 12.5567 -0.0186
37.7400 12.5634 -0.0218
37.7600 12.5701 -0.0210
37.7800 12.5767 -0.0191
37.8000 12.5833 -0.0236
37.8200 12.5899 -0.0176
37.8400 12.5966 -0.0215
37.8600 12.6033 -0.0259
37.8800 12.6100 -0.0181
37.9000 12.6167 -0.0165
37.9200 12.6234 -0.0240
37.9400 12.6300 -0.0246
37.9600 12.6367 -0.0176
37.9800 12.6433 -0.0283
38.0000 12.6500 -0.0244
38.0200 12.6566 -0.0163
38.0400 12.6633 -0.0274
38.0600 12.6701 -0.0191
38.0800 12.6768 -0.0224
38.1000 12.6835 -0.0275
38.1200 12.6902 -0.0144
38.1400 12.6968 -0.0261
38.1600 12.7034 -0.0269
38.1800 12.7100 -0.0162
38.2000 12.7166 -0.0219
38.2200 12.7233 -0.0307
38.2400 12.7301 -0.0182
38.2600 12.7368 -0.0239
38.2800 12.7434 -0.0283
38.3000 12.7501 -0.0137
38.3200 12.7568 -0.0272
38.3400 12.7633 -0.0212
38.3600 12.7699 -0.0179
38.3800 12.7766 -0.0260
38.4000 12.7834 -0.0233
38.4200 12.7901 -0.0219
38.4400 12.7967 -0.0308
38.4600 12.8034 -0.0231
38.4800 12.8101 -0.0175
38.5000 12.8167 -0.0360
38.5200 12.8234 -0.0222
38.5400 12.8300 -0.0146
38.5600 12.8366 -0.0332
38.5800 12.8433 -0.0191
38.6000 12.8500 -0.0220
38.6200 12.8567 -0.0313
38.6400 12.8634 -0.0230
38.6600 12.8701 -0.0198
38.6800 12.8767 -0.0325
38.7000 12.8833 -0.0226
38.7200 12.8900 -0.0250
38.7400 12.8966 -0.0335
38.7600 12.9033 -0.0214
38.7800 12.9100 -0.0263
38.8000 12.9168 -0.0283
38.8200 12.9234 -0.0239
38.8400 12.9301 -0.0282
38.8600 12.9368 -0.0311
38.8800 12.9434 -0.0235
38.9000 12.9500 -0.0265
38.9200 12.9566 -0.0306
38.9400 12.9634 -0.0259
38.9600 12.9701 -0.0307
38.9800 12.9768 -0.0312
39.0000 12.9834 -0.0235
39.0200 12.9901 -0.0287
39.0400 12.9968 -0.0302
39.0600 13.0034 -0.0333
39.0800 13.0100 -0.0286
39.1000 13.0166 -0.0278
39.1200 13.0233 -0.0272
39.1400 13.0300 -0.0318
39.1600 13.0367 -0.0326
39.1800 13.0434 -0.0234
39.2000 13.0501 -0.0305
39.2200 13.0567 -0.0319
39.2400 13.0634 -0.0267
39.2600 13.0699 -0.0318
39.2800 13.0766 -0.0307
39.3000 13.0833 -0.0315
39.3200 13.0900 -0.0419
39.3400 13.0967 -0.0334
39.3600 13.1034 -0.0264
39.3800 13.1101 -0.0403
39.4000 13.1167 -0.0371
39.4200 13.1234 -0.0252
39.4400 13.1300 -0.0391
39.4600 13.1367 -0.0296
39.4800 13.1434 -0.0303
39.5000 13.1501 -0.0407
39.5200 13.1567 -0.0312
39.5400 13.1634 -0.0357
39.5600 13.1701 -0.0425
39.5800 13.1768 -0.0294
39.6000 13.1834 -0.0325
39.6200 13.1900 -0.0457
39.6400 13.1966 -0.0355
39.6600 13.2033 -0.0343
39.6800 13.2100 -0.0351
39.7000 13.2167 -0.0325
39.7200 13.2234 -0.0444
39.7400 13.2301 -0.0385
39.7600 13.2368 -0.0337
39.7800 13.2434 -0.0454
39.8000 13.2500 -0.0384
39.8200 13.2566 -0.0304
39.8400 13.2633 -0.0417
39.8600 13.2701 -0.0466
39.8800 13.2768 -0.0366
39.9000 13.2834 -0.0339
39.9200 13.2901 -0.0399
39.9400 13.2968 -0.0457
39.9600 13.3034 -0.0390
39.9800 13.3100 -0.0393
40.0000 13.3166 -0.0426
40.0200 13.3233 -0.0440
40.0400 13.3300 -0.0400
40.0600 13.3367 -0.0452
40.0800 13.3433 -0.0422
40.1000 13.3500 -0.0413
40.1200 13.3567 -0.0496
40.1400 13.3633 -0.0377
40.1600 13.3700 -0.0370
40.1800 13.3766 -0.0530
40.2000 13.3833 -0.0414
40.2200 13.3900 -0.0417
40.2400 13.3968 -0.0553
40.2600 13.4035 -0.0353
40.2800 13.4102 -0.0436
40.3000 13.4168 -0.0492
40.3200 13.4234 -0.0387
40.3400 13.4300 -0.0455
40.3600 13.4366 -0.0422
40.3800 13.4433 -0.0393
40.4000 13.4501 -0.0476
40.4200 13.4568 -0.0505
40.4400 13.4634 -0.0454
40.4600 13.4701 -0.0462
40.4800 13.4768 -0.0451
40.5000 13.4834 -0.0482
40.5200 13.4900 -0.0479
40.5400 13.4966 -0.0393
40.5600 13.5033 -0.0442
40.5800 13.5100 -0.0494
40.6000 13.5167 -0.0392
40.6200 13.5234 -0.0509
40.6400 13.5301 -0.0509
40.6600 13.5367 -0.0436
40.6800 13.5434 -0.0492
40.7000 13.5500 -0.0491
40.7200 13.5566 -0.0426
40.7400 13.5633 -0.0549
40.7600 13.5700 -0.0500
40.7800 13.5767 -0.0382
40.8000 13.5834 -0.0483
40.8200 13.5900 -0.0521
40.8400 13.5967 -0.0449
40.8600 13.6033 -0.0433
40.8800 13.6100 -0.0552
40.9000 13.6166 -0.0454
40.9200 13.6233 -0.0456
40.9400 13.6301 -0.0528
40.9600 13.6368 -0.0528
40.9800 13.6434 -0.0491
41.0000 13.6501 -0.0464
41.0200 13.6568 -0.0445
41.0400 13.6634 -0.0514
41.0600 13.6700 -0.0547
41.0800 13.6767 -0.0473
41.1000 13.6834 -0.0516
41.1200 13.6900 -0.0545
41.1400 13.6967 -0.0507
41.1600 13.7034 -0.0509
41.1800 13.7101 -0.0556
41.2000 13.7168 -0.0548
41.2200 13.7234 -0.0535
41.2400 13.7300 -0.0451
41.2600 13.7366 -0.0513
41.2800 13.7433 -0.0577
41.3000 13.7500 -0.0498
41.3200 13.7567 -0.0528
41.3400 13.7634 -0.0539
41.3600 13.7701 -0.0510
41.3800 13.7767 -0.0577
41.4000 13.7834 -0.0502
41.4200 13.7900 -0.0574
41.4400 13.7966 -0.0554
41.4600 13.8033 -0.0482
41.4800 13.8100 -0.0537
41.5000 13.8167 -0.0581
41.5200 13.8234 -0.0557
41.5400 13.8300 -0.0597
41.5600 13.8367 -0.0549
41.5800 13.8434 -0.0512
41.6000 13.8500 -0.0693
41.6200 13.8566 -0.0510
41.6400 13.8633 -0.0496
41.6600 13.8700 -0.0691
41.6800 13.8767 -0.0529
41.7000 13.8834 -0.0504
41.7200 13.8901 -0.0640
41.7400 13.8968 -0.0585
41.7600 13.9034 -0.0576
41.7800 13.9100 -0.0666
41.8000 13.9166 -0.0531
41.8200 13.9233 -0.0555
41.8400 13.9300 -0.0705
41.8600 13.9368 -0.0583
41.8800 13.9434 -0.0533
41.9000 13.9501 -0.0647
41.9200 13.9568 -0.0588
41.9400 13.9634 -0.0603
41.9600 13.9700 -0.0625
41.9800 13.9766 -0.0568
42.0000 13.9833 -0.0657
42.0200 13.9900 -0.0652
42.0400 13.9967 -0.0504
42.0600 14.0034 -0.0720
42.0800 14.0101 -0.0692
42.1000 14.0168 -0.0472
42.1200 14.0234 -0.0658
42.1400 14.0300 -0.0637
42.1600 14.0366 -0.0516
42.1800 14.0433 -0.0681
42.2000 14.0500 -0.0617
42.2200 14.0567 -0.0565
42.2400 14.0634 -0.0691
42.2600 14.0701 -0.0662
42.2800 14.0768 -0.0572
42.3000 14.0834 -0.0682
42.3200 14.0900 -0.0642
42.3400 14.0966 -0.0550
42.3600 14.1033 -0.0668
42.3800 14.1100 -0.0638
42.4000 14.1168 -0.0618
42.4200 14.1234 -0.0679
42.4400 14.1301 -0.0636
42.4600 14.1368 -0.0660
42.4800 14.1434 -0.0696
42.5000 14.1500 -0.0613
42.5200 14.1567 -0.0648
42.5400 14.1633 -0.0648
42.5600 14.1701 -0.0615
42.5800 14.1768 -0.0637
42.6000 14.1834 -0.0636
42.6200 14.1901 -0.0671
42.6400 14.1968 -0.0655
42.6600 14.2034 -0.0631
42.6800 14.2100 -0.0674
42.7000 14.2166 -0.0629
42.7200 14.2233 -0.0603
42.7400 14.2300 -0.0690
42.7600 14.2367 -0.0648
42.7800 14.2434 -0.0657
42.8000 14.2501 -0.0634
42.8200 14.2568 -0.0655
42.8400 14.2634 -0.0685
42.8600 14.2700 -0.0641
42.8800 14.2766 -0.0669
42.9000 14.2833 -0.0708
42.9200 14.2900 -0.0622
42.9400 14.2967 -0.0679
42.9600 14.3034 -0.0676
42.9800 14.3101 -0.0635
43.0000 14.3167 -0.0685
43.0200 14.3234 -0.0688
43.0400 14.3300 -0.0629
43.0600 14.3366 -0.0702
43.0800 14.3433 -0.0689
43.1000 14.3500 -0.0683
43.1200 14.3567 -0.0732
43.1400 14.3634 -0.0643
43.1600 14.3701 -0.0669
43.1800 14.3768 -0.0737
43.2000 14.3834 -0.0663
43.2200 14.3900 -0.0671
43.2400 14.3967 -0.0700
43.2600 14.4033 -0.0642
43.2800 14.4100 -0.0750
43.3000 14.4167 -0.0727
43.3200 14.4234 -0.0730
43.3400 14.4301 -0.0726
43.3600 14.4368 -0.0695
43.3800 14.4435 -0.0737
43.4000 14.4500 -0.0752
43.4200 14.4566 -0.0666
43.4400 14.4633 -0.0688
43.4600 14.4700 -0.0707
43.4800 14.4767 -0.0716
43.5000 14.4834 -0.0783
43.5200 14.4900 -0.0711
43.5400 14.4967 -0.0716
43.5600 14.5034 -0.0784
43.5800 14.5100 -0.0744
43.6000 14.5166 -0.0722
43.6200 14.5233 -0.0750
43.6400 14.5300 -0.0720
43.6600 14.5367 -0.0726
43.6800 14.5433 -0.0743
43.7000 14.5500 -0.0785
43.7200 14.5567 -0.0738
43.7400 14.5634 -0.0760
43.7600 14.5700 -0.0792
43.7800 14.5767 -0.0813
43.8000 14.5833 -0.0757
43.8200 14.5900 -0.0774
43.8400 14.5967 -0.0786
43.8600 14.6034 -0.0763
43.8800 14.6101 -0.0814
43.9000 14.6168 -0.0771
43.9200 14.6234 -0.0774
43.9400 14.6300 -0.0816
43.9600 14.6366 -0.0783
43.9800 14.6433 -0.0797
44.0000 14.6500 -0.0829
44.0200 14.6567 -0.0833
44.0400 14.6634 -0.0780
44.0600 14.6701 -0.0841
44.0800 14.6768 -0.0815
44.1000 14.6834 -0.0812
44.1200 14.6900 -0.0807
44.1400 14.6966 -0.0786
44.1600 14.7033 -0.0833
44.1800 14.7100 -0.0830
44.2000 14.7167 -0.0859
44.2200 14.7234 -0.0843
44.2400 14.7301 -0.0850
44.2600 14.7368 -0.0876
44.2800 14.7434 -0.0854
44.3000 14.7500 -0.0869
44.3200 14.7566 -0.0797
44.3400 14.7632 -0.0785
44.3600 14.7699 -0.0817
44.3800 14.7767 -0.0861
44.4000 14.7834 -0.0863
44.4200 14.7900 -0.0885
44.4400 14.7967 -0.0875
44.4600 14.8034 -0.0848
44.4800 14.8100 -0.0891
44.5000 14.8166 -0.0829
44.5200 14.8233 -0.0896
44.5400 14.8300 -0.0899
44.5600 14.8367 -0.0767
44.5800 14.8434 -0.0912
44.6000 14.8501 -0.0915
44.6200 14.8568 -0.0840
44.6400 14.8635 -0.0955
44.6600 14.8701 -0.0924
44.6800 14.8767 -0.0823
44.7000 14.8833 -0.0921
44.7200 14.8900 -0.0919
44.7400 14.8967 -0.0851
44.7600 14.9034 -0.0964
44.7800 14.9101 -0.0856
44.8000 14.9168 -0.0807
44.8200 14.9235 -0.0981
44.8400 14.9301 -0.0895
44.8600 14.9366 -0.0849
44.8800 14.9432 -0.0990
44.9000 14.9499 -0.0878
44.9200 14.9566 -0.0887
44.9400 14.9634 -0.1009
44.9600 14.9701 -0.0892
44.9800 14.9767 -0.0855
45.0000 14.9834 -0.0997
45.0200 14.9900 -0.0828
45.0400 14.9966 -0.0897
45.0600 15.0033 -0.1026
45.0800 15.0100 -0.0786
45.1000 15.0167 -0.0932
45.1200 15.0234 -0.1011
45.1400 15.0301 -0.0872
45.1600 15.0367 -0.0959
45.1800 15.0434 -0.0930
45.2000 15.0501 -0.0893
45.2200 15.0567 -0.0951
45.2400 15.0633 -0.0918
45.2600 15.0700 -0.0885
45.2800 15.0767 -0.0945
45.3000 15.0834 -0.0971
45.3200 15.0901 -0.0915
45.3400 15.0968 -0.0952
45.3600 15.1035 -0.0945
45.3800 15.1101 -0.0929
45.4000 15.1167 -0.0934
45.4200 15.1233 -0.0909
45.4400 15.1300 -0.0914
45.4600 15.1367 -0.0874
45.4800 15.1434 -0.0977
45.5000 15.1501 -0.0932
45.5200 15.1568 -0.0906
45.5400 15.1634 -0.0987
45.5600 15.1700 -0.0929
45.5800 15.1766 -0.0898
45.6000 15.1833 -0.0998
45.6200 15.1900 -0.0898
45.6400 15.1967 -0.0871
45.6600 15.2034 -0.1007
45.6800 15.2101 -0.0903
45.7000 15.2167 -0.0864
45.7200 15.2234 -0.1085
45.7400 15.2301 -0.0912
45.7600 15.2367 -0.0883
45.7800 15.2433 -0.1089
45.8000 15.2499 -0.0858
45.8200 15.2566 -0.0952
45.8400 15.2633 -0.1070
45.8600 15.2700 -0.0872
45.8800 15.2767 -0.0947
45.9000 15.2834 -0.1009
45.9200 15.2901 -0.0908
45.9400 15.2967 -0.1031
45.9600 15.3033 -0.1026
45.9800 15.3100 -0.0884
46.0000 15.3167 -0.1040
46.0200 15.3234 -0.1003
46.0400 15.3301 -0.0903
46.0600 15.3368 -0.1108
46.0800 15.3434 -0.0969
46.1000 15.3501 -0.0901
46.1200 15.3567 -0.1035
46.1400 15.3633 -0.0982
46.1600 15.3700 -0.0986
46.1800 15.3767 -0.1072
46.2000 15.3834 -0.0987
46.2200 15.3901 -0.1011
46.2400 15.3968 -0.1060
46.2600 15.4034 -0.0988
46.2800 15.4101 -0.1061
46.3000 15.4167 -0.1016
46.3200 15.4233 -0.0940
46.3400 15.4299 -0.1058
46.3600 15.4367 -0.0999
46.3800 15.4434 -0.1031
46.4000 15.4501 -0.1057
46.4200 15.4568 -0.1037
46.4400 15.4634 -0.1031
46.4600 15.4701 -0.1022
46.4800 15.4766 -0.1056
46.5000 15.4832 -0.1050
46.5200 15.4899 -0.1018
46.5400 15.4966 -0.1020
46.5600 15.5034 -0.1050
46.5800 15.5101 -0.1072
46.6000 15.5167 -0.1041
46.6200 15.5234 -0.1090
46.6400 15.5301 -0.1078
46.6600 15.5367 -0.1028
46.6800 15.5433 -0.1071
46.7000 15.5500 -0.1016
46.7200 15.5567 -0.1089
46.7400 15.5634 -0.1070
46.7600 15.5701 -0.0978
46.7800 15.5768 -0.1096
46.8000 15.5835 -0.1091
46.8200 15.5901 -0.1063
46.8400 15.5967 -0.1105
46.8600 15.6033 -0.1095
46.8800 15.6100 -0.1025
46.9000 15.6167 -0.1138
46.9200 15.6234 -0.1104
46.9400 15.6301 -0.1030
46.9600 15.6368 -0.1131
46.9800 15.6434 -0.1100
47.0000 15.6501 -0.1068
47.0200 15.6567 -0.1177
47.0400 15.6633 -0.1084
47.0600 15.6700 -0.1046
47.0800 15.6767 -0.1240
47.1000 15.6834 -0.1076
47.1200 15.6900 -0.0990
47.1400 15.6967 -0.1241
47.1600 15.7034 -0.1110
47.1800 15.7101 -0.0982
47.2000 15.7167 -0.1219
47.2200 15.7233 -0.1100
47.2400 15.7300 -0.1062
47.2600 15.7367 -0.1239
47.2800 15.7434 -0.1096
47.3000 15.7500 -0.1076
47.3200 15.7567 -0.1236
47.3400 15.7634 -0.1020
47.3600 15.7701 -0.1152
47.3800 15.7767 -0.1336
47.4000 15.7833 -0.0967
47.4200 15.7900 -0.1062
47.4400 15.7967 -0.1305
47.4600 15.8034 -0.1118
47.4800 15.8101 -0.1072
47.5000 15.8167 -0.1264
47.5200 15.8234 -0.1084
47.5400 15.8301 -0.1157
47.5600 15.8367 -0.1268
47.5800 15.8433 -0.1043
47.6000 15.8500 -0.1171
47.6200 15.8567 -0.1264
47.6400 15.8634 -0.1049
47.6600 15.8701 -0.1116
47.6800 15.8768 -0.1245
47.7000 15.8835 -0.1124
47.7200 15.8901 -0.1171
47.7400 15.8967 -0.1196
47.7600 15.9033 -0.1113
47.7800 15.9100 -0.1210
47.8000 15.9167 -0.1190
47.8200 15.9234 -0.1095
47.8400 15.9301 -0.1276
47.8600 15.9367 -0.1137
47.8800 15.9434 -0.1124
47.9000 15.9501 -0.1245
47.9200 15.9567 -0.1164
47.9400 15.9633 -0.1173
47.9600 15.9699 -0.1207
47.9800 15.9766 -0.1135
48.0000 15.9833 -0.1258
48.0200 15.9900 -0.1256
48.0400 15.9967 -0.1130
48.0600 16.0034 -0.1214
48.0800 16.0101 -0.1206
48.1000 16.0167 -0.1129
48.1200 16.0233 -0.1194
48.1400 16.0300 -0.1223
48.1600 16.0367 -0.1108
48.1800 16.0434 -0.1272
48.2000 16.0501 -0.1258
48.2200 16.0568 -0.1117
48.2400 16.0635 -0.1266
48.2600 16.0701 -0.1262
48.2800 16.0767 -0.1129
48.3000 16.0833 -0.1208
48.3200 16.0900 -0.1226
48.3400 16.0967 -0.1182
48.3600 16.1034 -0.1229
48.3800 16.1101 -0.1258
48.4000 16.1168 -0.1253
48.4200 16.1234 -0.1218
48.4400 16.1301 -0.1227
48.4600 16.1367 -0.1249
48.4800 16.1433 -0.1286
48.5000 16.1499 -0.1255
48.5200 16.1566 -0.1151
48.5400 16.1633 -0.1229
48.5600 16.1700 -0.1310
48.5800 16.1767 -0.1217
48.6000 16.1834 -0.1245
48.6200 16.1901 -0.1294
48.6400 16.1967 -0.1233
48.6600 16.2033 -0.1228
48.6800 16.2099 -0.1298
48.7000 16.2166 -0.1289
48.7200 16.2234 -0.1217
48.7400 16.2300 -0.1254
48.7600 16.2367 -0.1243
48.7800 16.2434 -0.1242
48.8000 16.2500 -0.1272
48.8200 16.2567 -0.1279
48.8400 16.2633 -0.1280
48.8600 16.2700 -0.1275
48.8800 16.2767 -0.1247
48.9000 16.2834 -0.1277
48.9200 16.2901 -0.1288
48.9400 16.2968 -0.1326
48.9600 16.3035 -0.1259
48.9800 16.3101 -0.1240
49.0000 16.3167 -0.1318
49.0200 16.3233 -0.1284
49.0400 16.3300 -0.1264
49.0600 16.3367 -0.1365
49.0800 16.3434 -0.1298
49.1000 16.3501 -0.1315
49.1200 16.3568 -0.1343
49.1400 16.3634 -0.1264
49.1600 16.3701 -0.1307
49.1800 16.3767 -0.1339
49.2000 16.3833 -0.1247
49.2200 16.3899 -0.1327
49.2400 16.3966 -0.1352
49.2600 16.4034 -0.1278
49.2800 16.4100 -0.1436
49.3000 16.4167 -0.1334
49.3200 16.4234 -0.1232
49.3400 16.4301 -0.1396
49.3600 16.4367 -0.1366
49.3800 16.4433 -0.1266
49.4000 16.4499 -0.1410
49.4200 16.4566 -0.1346
49.4400 16.4633 -0.1257
49.4600 16.4700 -0.1407
49.4800 16.4767 -0.1362
49.5000 16.4834 -0.1298
49.5200 16.4901 -0.1481
49.5400 16.4967 -0.1336
49.5600 16.5033 -0.1310
49.5800 16.5099 -0.1460
49.6000 16.5166 -0.1320
49.6200 16.5234 -0.1334
49.6400 16.5301 -0.1458
49.6600 16.5368 -0.1291
49.6800 16.5434 -0.1372
49.7000 16.5501 -0.1456
49.7200 16.5567 -0.1322
49.7400 16.5633 -0.1453
49.7600 16.5700 -0.1431
49.7800 16.5767 -0.1298
49.8000 16.5834 -0.1436
49.8200 16.5901 -0.1473
49.8400 16.5967 -0.1319
49.8600 16.6034 -0.1466
49.8800 16.6101 -0.1419
49.9000 16.6168 -0.1323
49.9200 16.6234 -0.1479
49.9400 16.6300 -0.1414
49.9600 16.6367 -0.1367
49.9800 16.6434 -0.1467
50.0000 16.6501 -0.1447
50.0200 16.6567 -0.1356
50.0400 16.6634 -0.1468
50.0600 16.6701 -0.1452
50.0800 16.6767 -0.1370
50.1000 16.6833 -0.1417
50.1200 16.6899 -0.1430
50.1400 16.6966 -0.1416
50.1600 16.7034 -0.1460
50.1800 16.7101 -0.1465
50.2000 16.7168 -0.1470
50.2200 16.7234 -0.1420
50.2400 16.7301 -0.1486
50.2600 16.7367 -0.1440
50.2800 16.7433 -0.1444
50.3000 16.7500 -0.1517
50.3200 16.7566 -0.1401
50.3400 16.7634 -0.1441
50.3600 16.7701 -0.1581
50.3800 16.7767 -0.1480
50.4000 16.7834 -0.1442
50.4200 16.7901 -0.1549
50.4400 16.7967 -0.1490
50.4600 16.8033 -0.1465
50.4800 16.8100 -0.1532
50.5000 16.8167 -0.1449
50.5200 16.8234 -0.1429
50.5400 16.8301 -0.1532
50.5600 16.8368 -0.1448
50.5800 16.8435 -0.1519
50.6000 16.8501 -0.1574
50.6200 16.8568 -0.1496
50.6400 16.8633 -0.1488
50.6600 16.8700 -0.1510
50.6800 16.8767 -0.1492
50.7000 16.8834 -0.1542
50.7200 16.8901 -0.1505
50.7400 16.8968 -0.1509
50.7600 16.9034 -0.1548
50.7800 16.9101 -0.1501
50.8000 16.9167 -0.1540
50.8200 16.9233 -0.1558
50.8400 16.9299 -0.1550
50.8600 16.9366 -0.1531
50.8800 16.9433 -0.1557
50.9000 16.9500 -0.1561
50.9200 16.9567 -0.1523
50.9400 16.9634 -0.1532
50.9600 16.9700 -0.1533
50.9800 16.9767 -0.1494
51.0000 16.9833 -0.1509
51.0200 16.9900 -0.1579
51.0400 16.9966 -0.1573
51.0600 17.0033 -0.1507
51.0800 17.0101 -0.1575
51.1000 17.0168 -0.1558
51.1200 17.0234 -0.1528
51.1400 17.0301 -0.1616
51.1600 17.0367 -0.1559
51.1800 17.0433 -0.1466
51.2000 17.0500 -0.1561
51.2200 17.0567 -0.1514
51.2400 17.0634 -0.1533
51.2600 17.0701 -0.1641
51.2800 17.0767 -0.1506
51.3000 17.0834 -0.1535
51.3200 17.0901 -0.1623
51.3400 17.0967 -0.1536
51.3600 17.1033 -0.1543
51.3800 17.1100 -0.1661
51.4000 17.1166 -0.1495
51.4200 17.1233 -0.1521
51.4400 17.1300 -0.1623
51.4600 17.1367 -0.1503
51.4800 17.1434 -0.1620
51.5000 17.1501 -0.1678
51.5200 17.1567 -0.1454
51.5400 17.1633 -0.1581
51.5600 17.1699 -0.1643
51.5800 17.1766 -0.1451
51.6000 17.1833 -0.1627
51.6200 17.1901 -0.1612
51.6400 17.1967 -0.1503
51.6600 17.2034 -0.1609
51.6800 17.2101 -0.1585
51.7000 17.2167 -0.1565
51.7200 17.2233 -0.1678
51.7400 17.2299 -0.1570
51.7600 17.2366 -0.1561
51.7800 17.2433 -0.1687
51.8000 17.2500 -0.1589
51.8200 17.2567 -0.1595
51.8400 17.2634 -0.1664
51.8600 17.2701 -0.1590
51.8800 17.2768 -0.1627
51.9000 17.2834 -0.1618
51.9200 17.2900 -0.1605
51.9400 17.2967 -0.1692
51.9600 17.3034 -0.1645
51.9800 17.3101 -0.1626
52.0000 17.3168 -0.1691
52.0200 17.3234 -0.1634
52.0400 17.3301 -0.1615
52.0600 17.3368 -0.1719
52.0800 17.3434 -0.1562
52.1000 17.3500 -0.1614
52.1200 17.3566 -0.1710
52.1400 17.3633 -0.1560
52.1600 17.3700 -0.1712
52.1800 17.3767 -0.1761
52.2000 17.3834 -0.1532
52.2200 17.3901 -0.1741
52.2400 17.3967 -0.1750
52.2600 17.4033 -0.1593
52.2800 17.4099 -0.1739
52.3000 17.4166 -0.1645
52.3200 17.4233 -0.1556
52.3400 17.4300 -0.1776
52.3600 17.4367 -0.1669
52.3800 17.4433 -0.1600
52.4000 17.4500 -0.1793
52.4200 17.4567 -0.1628
52.4400 17.4633 -0.1590
52.4600 17.4700 -0.1812
52.4800 17.4767 -0.1648
52.5000 17.4834 -0.1642
52.5200 17.4901 -0.1756
52.5400 17.4967 -0.1582
52.5600 17.5034 -0.1673
52.5800 17.5101 -0.1767
52.6000 17.5168 -0.1678
52.6200 17.5234 -0.1681
52.6400 17.5300 -0.1734
52.6600 17.5366 -0.1610
52.6800 17.5434 -0.1686
52.7000 17.5501 -0.1770
52.7200 17.5568 -0.1643
52.7400 17.5634 -0.1669
52.7600 17.5701 -0.1732
52.7800 17.5768 -0.1672
52.8000 17.5834 -0.1724
52.8200 17.5900 -0.1752
52.8400 17.5966 -0.1679
52.8600 17.6033 -0.1730
52.8800 17.6101 -0.1754
52.9000 17.6167 -0.1738
52.9200 17.6234 -0.1729
52.9400 17.6301 -0.1726
52.9600 17.6367 -0.1747
52.9800 17.6434 -0.1756
53.0000 17.6500 -0.1686
53.0200 17.6566 -0.1758
53.0400 17.6633 -0.1779
53.0600 17.6700 -0.1733
53.0800 17.6767 -0.1806
53.1000 17.6834 -0.1773
53.1200 17.6901 -0.1727
53.1400 17.6967 -0.1793
53.1600 17.7034 -0.1770
53.1800 17.7100 -0.1686
53.2000 17.7166 -0.1817
53.2200 17.7233 -0.1778
53.2400 17.7301 -0.1717
53.2600 17.7368 -0.1864
53.2800 17.7434 -0.1803
53.3000 17.7501 -0.1725
53.3200 17.7568 -0.1861
53.3400 17.7634 -0.1802
53.3600 17.7700 -0.1766
53.3800 17.7766 -0.1838
53.4000 17.7834 -0.1740
53.4200 17.7901 -0.1752
53.4400 17.7968 -0.1865
53.4600 17.8034 -0.1782
53.4800 17.8101 -0.1768
53.5000 17.8168 -0.1870
53.5200 17.8234 -0.1780
53.5400 17.8300 -0.1745
53.5600 17.8366 -0.1856
53.5800 17.8433 -0.1803
53.6000 17.8500 -0.1708
53.6200 17.8567 -0.1835
53.6400 17.8634 -0.1815
53.6600 17.8700 -0.1775
53.6800 17.8767 -0.1825
53.7000 17.8834 -0.1883
53.7200 17.8900 -0.1770
53.7400 17.8966 -0.1769
53.7600 17.9033 -0.1889
53.7800 17.9100 -0.1814
53.8000 17.9167 -0.1805
53.8200 17.9234 -0.1859
53.8400 17.9301 -0.1788
53.8600 17.9367 -0.1796
53.8800 17.9434 -0.1904
53.9000 17.9500 -0.1780
53.9200 17.9566 -0.1818
53.9400 17.9633 -0.1904
53.9600 17.9700 -0.1777
53.9800 17.9767 -0.1850
54.0000 17.9834 -0.1941
54.0200 17.9901 -0.1779
54.0400 17.9968 -0.1873
54.0600 18.0034 -0.1900
54.0800 18.0100 -0.1849
54.1000 18.0166 -0.1834
54.1200 18.0233 -0.1876
54.1400 18.0300 -0.1870
54.1600 18.0367 -0.1850
54.1800 18.0434 -0.1921
54.2000 18.0501 -0.1904
54.2200 18.0568 -0.1875
54.2400 18.0634 -0.1818
54.2600 18.0700 -0.1955
54.2800 18.0766 -0.1887
54.3000 18.0833 -0.1807
54.3200 18.0901 -0.1918
54.3400 18.0967 -0.1945
54.3600 18.1034 -0.1821
54.3800 18.1101 -0.1955
54.4000 18.1168 -0.1957
54.4200 18.1234 -0.1815
54.4400 18.1300 -0.1984
54.4600 18.1366 -0.1910
54.4800 18.1433 -0.1831
54.5000 18.1500 -0.2013
54.5200 18.1567 -0.1858
54.5400 18.1633 -0.1876
54.5600 18.1700 -0.2100
54.5800 18.1767 -0.1806
54.6000 18.1834 -0.1839
54.6200 18.1900 -0.2122
54.6400 18.1966 -0.1884
54.6600 18.2033 -0.1893
54.6800 18.2100 -0.2077
54.7000 18.2167 -0.1839
54.7200 18.2234 -0.1902
54.7400 18.2301 -0.2099
54.7600 18.2368 -0.1879
54.7800 18.2434 -0.1874
54.8000 18.2500 -0.2090
54.8200 18.2566 -0.1914
54.8400 18.2633 -0.1945
54.8600 18.2701 -0.2076
54.8800 18.2768 -0.1937
54.9000 18.2834 -0.2006
54.9200 18.2901 -0.2068
54.9400 18.2968 -0.1874
54.9600 18.3034 -0.2020
54.9800 18.3100 -0.2138
55.0000 18.3166 -0.1802
55.0200 18.3233 -0.2046
55.0400 18.3300 -0.2161
55.0600 18.3367 -0.1829
55.0800 18.3434 -0.2004
55.1000 18.3501 -0.2175
55.1200 18.3568 -0.1860
55.1400 18.3634 -0.2035
55.1600 18.3700 -0.2097
55.1800 18.3766 -0.1823
55.2000 18.3832 -0.2050
55.2200 18.3900 -0.2118
55.2400 18.3967 -0.1859
55.2600 18.4033 -0.2104
55.2800 18.4100 -0.2130
55.3000 18.4167 -0.1910
55.3200 18.4234 -0.2105
55.3400 18.4300 -0.2055
55.3600 18.4366 -0.1943
55.3800 18.4433 -0.2128
55.4000 18.4500 -0.2015
55.4200 18.4568 -0.1940
55.4400 18.4634 -0.2145
55.4600 18.4701 -0.2008
55.4800 18.4768 -0.1974
55.5000 18.4834 -0.2192
55.5200 18.4900 -0.2025
55.5400 18.4967 -0.1924
55.5600 18.5034 -0.2203
55.5800 18.5100 -0.2057
55.6000 18.5167 -0.1999
55.6200 18.5234 -0.2144
55.6400 18.5301 -0.1990
55.6600 18.5368 -0.2019
55.6800 18.5434 -0.2188
55.7000 18.5500 -0.2044
55.7200 18.5566 -0.2025
55.7400 18.5633 -0.2159
55.7600 18.5700 -0.1999
55.7800 18.5767 -0.2082
55.8000 18.5834 -0.2134
55.8200 18.5901 -0.2014
55.8400 18.5968 -0.2105
55.8600 18.6034 -0.2168
55.8800 18.6100 -0.2008
55.9000 18.6166 -0.2181
55.9200 18.6233 -0.2147
55.9400 18.6300 -0.2012
55.9600 18.6367 -0.2196
55.9800 18.6434 -0.2158
56.0000 18.6500 -0.1956
56.0200 18.6567 -0.2223
56.0400 18.6634 -0.2111
56.0600 18.6700 -0.2033
56.0800 18.6767 -0.2223
56.1000 18.6833 -0.2104
56.1200 18.6900 -0.2117
56.1400 18.6967 -0.2210
56.1600 18.7034 -0.2107
56.1800 18.7101 -0.2085
56.2000 18.7168 -0.2258
56.2200 18.7235 -0.2137
56.2400 18.7300 -0.2143
56.2600 18.7366 -0.2184
56.2800 18.7433 -0.2047
56.3000 18.7500 -0.2162
56.3200 18.7567 -0.2214
56.3400 18.7634 -0.2114
56.3600 18.7701 -0.2172
56.3800 18.7768 -0.2198
56.4000 18.7834 -0.2147
56.4200 18.7900 -0.2186
56.4400 18.7966 -0.2220
56.4600 18.8033 -0.2133
56.4800 18.8100 -0.2165
56.5000 18.8167 -0.2158
56.5200 18.8234 -0.2186
56.5400 18.8300 -0.2209
56.5600 18.8367 -0.2138
56.5800 18.8434 -0.2257
56.6000 18.8500 -0.2195
56.6200 18.8566 -0.2179
56.6400 18.8632 -0.2198
56.6600 18.8699 -0.2196
56.6800 18.8767 -0.2210
56.7000 18.8834 -0.2225
56.7200 18.8901 -0.2128
56.7400 18.8968 -0.2191
56.7600 18.9034 -0.2226
56.7800 18.9100 -0.2172
56.8000 18.9166 -0.2224
56.8200 18.9233 -0.2216
56.8400 18.9300 -0.2184
56.8600 18.9367 -0.2241
56.8800 18.9434 -0.2194
56.9000 18.9501 -0.2176
56.9200 18.9568 -0.2280
56.9400 18.9634 -0.2146
56.9600 18.9700 -0.2167
56.9800 18.9766 -0.2243
57.0000 18.9833 -0.2186
57.0200 18.9900 -0.2198
57.0400 18.9967 -0.2278
57.0600 19.0034 -0.2177
57.0800 19.0101 -0.2237
57.1000 19.0168 -0.2288
57.1200 19.0234 -0.2209
57.1400 19.0300 -0.2271
57.1600 19.0366 -0.2237
57.1800 19.0432 -0.2158
57.2000 19.0500 -0.2258
57.2200 19.0567 -0.2282
57.2400 19.0634 -0.2198
57.2600 19.0701 -0.2302
57.2800 19.0768 -0.2297
57.3000 19.0834 -0.2209
57.3200 19.0900 -0.2291
57.3400 19.0966 -0.2287
57.3600 19.1033 -0.2242
57.3800 19.1100 -0.2276
57.4000 19.1167 -0.2271
57.4200 19.1234 -0.2253
57.4400 19.1300 -0.2326
57.4600 19.1367 -0.2308
57.4800 19.1434 -0.2282
57.5000 19.1500 -0.2336
57.5200 19.1566 -0.2304
57.5400 19.1633 -0.2316
57.5600 19.1700 -0.2313
57.5800 19.1767 -0.2349
57.6000 19.1834 -0.2299
57.6200 19.1901 -0.2264
57.6400 19.1968 -0.2345
57.6600 19.2034 -0.2311
57.6800 19.2101 -0.2316
57.7000 19.2167 -0.2387
57.7200 19.2233 -0.2320
57.7400 19.2300 -0.2296
57.7600 19.2367 -0.2412
57.7800 19.2434 -0.2312
57.8000 19.2501 -0.2329
57.8200 19.2568 -0.2398
57.8400 19.2635 -0.2298
57.8600 19.2701 -0.2327
57.8800 19.2766 -0.2409
57.9000 19.2833 -0.2312
57.9200 19.2900 -0.2371
57.9400 19.2967 -0.2392
57.9600 19.3034 -0.2333
57.9800 19.3100 -0.2394
58.0000 19.3167 -0.2408
58.0200 19.3234 -0.2356
58.0400 19.3300 -0.2350
58.0600 19.3366 -0.2392
58.0800 19.3433 -0.2278
58.1000 19.3500 -0.2381
58.1200 19.3567 -0.2462
58.1400 19.3633 -0.2350
58.1600 19.3700 -0.2346
58.1800 19.3767 -0.2479
58.2000 19.3834 -0.2366
58.2200 19.3900 -0.2407
58.2400 19.3967 -0.2471
58.2600 19.4033 -0.2302
58.2800 19.4100 -0.2395
58.3000 19.4167 -0.2461
58.3200 19.4234 -0.2323
58.3400 19.4301 -0.2422
58.3600 19.4368 -0.2502
58.3800 19.4435 -0.2329
58.4000 19.4501 -0.2469
58.4200 19.4567 -0.2485
58.4400 19.4633 -0.2352
58.4600 19.4700 -0.2441
58.4800 19.4767 -0.2462
58.5000 19.4834 -0.2304
58.5200 19.4901 -0.2467
58.5400 19.4968 -0.2457
58.5600 19.5034 -0.2387
58.5800 19.5101 -0.2507
58.6000 19.5167 -0.2426
58.6200 19.5233 -0.2407
58.6400 19.5300 -0.2488
58.6600 19.5367 -0.2488
58.6800 19.5434 -0.2408
58.7000 19.5501 -0.2443
58.7200 19.5567 -0.2451
58.7400 19.5634 -0.2468
58.7600 19.5700 -0.2503
58.7800 19.5766 -0.2443
58.8000 19.5833 -0.2504
58.8200 19.5899 -0.2518
58.8400 19.5967 -0.2477
58.8600 19.6033 -0.2554
58.8800 19.6100 -0.2511
58.9000 19.6167 -0.2515
58.9200 19.6234 -0.2529
58.9400 19.6300 -0.2474
58.9600 19.6366 -0.2573
58.9800 19.6433 -0.2560
59.0000 19.6500 -0.2505
59.0200 19.6567 -0.2614
59.0400 19.6634 -0.2553
59.0600 19.6701 -0.2554
59.0800 19.6768 -0.2600
59.1000 19.6835 -0.2532
59.1200 19.6901 -0.2564
59.1400 19.6967 -0.2562
59.1600 19.7033 -0.2528
59.1800 19.7100 -0.2604
59.2000 19.7167 -0.2625
59.2200 19.7234 -0.2543
59.2400 19.7301 -0.2620
59.2600 19.7368 -0.2640
59.2800 19.7434 -0.2591
59.3000 19.7500 -0.2718
