Raw Data
Time Displacement Force
(s) (mm) (N)
0.0000 0.0001 0.3436
0.0200 0.0001 0.3450
0.0400 0.0009 0.3900
0.0600 0.0041 0.3851
0.0800 0.0096 0.3475
0.1000 0.0154 0.3485
0.1200 0.0213 0.3715
0.1400 0.0280 0.3578
0.1600 0.0353 0.3531
0.1800 0.0428 0.3489
0.2000 0.0499 0.3481
0.2200 0.0568 0.3528
0.2400 0.0634 0.3555
0.2600 0.0701 0.3583
0.2800 0.0768 0.3573
0.3000 0.0835 0.3631
0.3200 0.0902 0.3556
0.3400 0.0969 0.3555
0.3600 0.1036 0.3666
0.3800 0.1102 0.3563
0.4000 0.1169 0.3638
0.4200 0.1236 0.3722
0.4400 0.1303 0.3629
0.4600 0.1370 0.3689
0.4800 0.1436 0.3701
0.5000 0.1503 0.3685
0.5200 0.1570 0.3690
0.5400 0.1636 0.3756
0.5600 0.1702 0.3702
0.5800 0.1769 0.3729
0.6000 0.1835 0.3808
0.6200 0.1903 0.3723
0.6400 0.1970 0.3735
0.6600 0.2036 0.3807
0.6800 0.2103 0.3836
0.7000 0.2170 0.3807
0.7200 0.2236 0.3780
0.7400 0.2302 0.3875
0.7600 0.2369 0.3829
0.7800 0.2435 0.3859
0.8000 0.2502 0.3879
0.8200 0.2569 0.3887
0.8400 0.2636 0.3945
0.8600 0.2703 0.3867
0.8800 0.2770 0.3898
0.9000 0.2836 0.3937
0.9200 0.2902 0.3964
0.9400 0.2968 0.3908
0.9600 0.3035 0.3961
0.9800 0.3102 0.3985
1.0000 0.3169 0.3920
1.0200 0.3236 0.3991
1.0400 0.3303 0.3979
1.0600 0.3369 0.3961
1.0800 0.3436 0.3979
1.1000 0.3502 0.3955
1.1200 0.3568 0.3982
1.1400 0.3635 0.4014
1.1600 0.3703 0.3999
1.1800 0.3770 0.3960
1.2000 0.3836 0.3997
1.2200 0.3903 0.4016
1.2400 0.3970 0.3958
1.2600 0.4037 0.3980
1.2800 0.4103 0.4013
1.3000 0.4169 0.3939
1.3200 0.4236 0.3983
1.3400 0.4303 0.3995
1.3600 0.4370 0.3901
1.3800 0.4436 0.3998
1.4000 0.4503 0.4005
1.4200 0.4570 0.3911
1.4400 0.4636 0.3954
1.4600 0.4702 0.3987
1.4800 0.4768 0.3875
1.5000 0.4835 0.3907
1.5200 0.4902 0.3943
1.5400 0.4969 0.3870
1.5600 0.5036 0.3903
1.5800 0.5103 0.3904
1.6000 0.5170 0.3840
1.6200 0.5236 0.3910
1.6400 0.5302 0.3921
1.6600 0.5368 0.3816
1.6800 0.5435 0.3887
1.7000 0.5502 0.3877
1.7200 0.5569 0.3782
1.7400 0.5636 0.3822
1.7600 0.5703 0.3837
1.7800 0.5770 0.3773
1.8000 0.5836 0.3838
1.8200 0.5903 0.3783
1.8400 0.5969 0.3765
1.8600 0.6036 0.3826
1.8800 0.6103 0.3776
1.9000 0.6169 0.3707
1.9200 0.6236 0.3789
1.9400 0.6303 0.3744
1.9600 0.6370 0.3669
1.9800 0.6437 0.3783
2.0000 0.6503 0.3740
2.0200 0.6569 0.3715
2.0400 0.6635 0.3775
2.0600 0.6703 0.3734
2.0800 0.6770 0.3699
2.1000 0.6837 0.3789
2.1200 0.6903 0.3725
2.1400 0.6970 0.3652
2.1600 0.7036 0.3684
2.1800 0.7102 0.3768
2.2000 0.7168 0.3642
2.2200 0.7235 0.3723
2.2400 0.7302 0.3724
2.2600 0.7370 0.3611
2.2800 0.7436 0.3744
2.3000 0.7503 0.3716
2.3200 0.7570 0.3663
2.3400 0.7636 0.3696
2.3600 0.7703 0.3670
2.3800 0.7769 0.3634
2.4000 0.7835 0.3736
2.4200 0.7902 0.3699
2.4400 0.7969 0.3623
2.4600 0.8036 0.3675
2.4800 0.8103 0.3712
2.5000 0.8170 0.3625
2.5200 0.8236 0.3672
2.5400 0.8303 0.3671
2.5600 0.8369 0.3639
2.5800 0.8435 0.3654
2.6000 0.8503 0.3647
2.6200 0.8570 0.3630
2.6400 0.8637 0.3670
2.6600 0.8703 0.3690
2.6800 0.8770 0.3618
2.7000 0.8836 0.3676
2.7200 0.8903 0.3663
2.7400 0.8969 0.3625
2.7600 0.9035 0.3673
2.7800 0.9103 0.3696
2.8000 0.9170 0.3595
2.8200 0.9236 0.3619
2.8400 0.9303 0.3688
2.8600 0.9370 0.3575
2.8800 0.9437 0.3656
2.9000 0.9503 0.3679
2.9200 0.9569 0.3591
2.9400 0.9635 0.3632
2.9600 0.9702 0.3645
2.9800 0.9769 0.3585
3.0000 0.9836 0.3636
3.0200 0.9903 0.3676
3.0400 0.9970 0.3542
3.0600 1.0036 0.3601
3.0800 1.0102 0.3633
3.1000 1.0168 0.3568
3.1200 1.0235 0.3628
3.1400 1.0302 0.3641
3.1600 1.0369 0.3513
3.1800 1.0436 0.3587
3.2000 1.0503 0.3685
3.2200 1.0570 0.3492
3.2400 1.0636 0.3591
3.2600 1.0703 0.3624
3.2800 1.0769 0.3510
3.3000 1.0835 0.3572
3.3200 1.0903 0.3574
3.3400 1.0970 0.3506
3.3600 1.1036 0.3592
3.3800 1.1103 0.3568
3.4000 1.1170 0.3507
3.4200 1.1237 0.3539
3.4400 1.1303 0.3576
3.4600 1.1369 0.3526
3.4800 1.1435 0.3520
3.5000 1.1502 0.3565
3.5200 1.1570 0.3563
3.5400 1.1637 0.3475
3.5600 1.1703 0.3493
3.5800 1.1770 0.3578
3.6000 1.1837 0.3522
3.6200 1.1902 0.3532
3.6400 1.1969 0.3504
3.6600 1.2035 0.3454
3.6800 1.2102 0.3503
3.7000 1.2170 0.3567
3.7200 1.2236 0.3419
3.7400 1.2303 0.3540
3.7600 1.2370 0.3568
3.7800 1.2436 0.3366
3.8000 1.2503 0.3512
3.8200 1.2569 0.3563
3.8400 1.2635 0.3453
3.8600 1.2702 0.3563
3.8800 1.2769 0.3511
3.9000 1.2836 0.3448
3.9200 1.2903 0.3616
3.9400 1.2970 0.3426
3.9600 1.3036 0.3470
3.9800 1.3103 0.3578
4.0000 1.3169 0.3469
4.0200 1.3235 0.3474
4.0400 1.3302 0.3568
4.0600 1.3369 0.3526
4.0800 1.3436 0.3491
4.1000 1.3503 0.3505
4.1200 1.3570 0.3501
4.1400 1.3637 0.3530
4.1600 1.3703 0.3520
4.1800 1.3769 0.3537
4.2000 1.3835 0.3538
4.2200 1.3902 0.3486
4.2400 1.3970 0.3550
4.2600 1.4037 0.3470
4.2800 1.4103 0.3479
4.3000 1.4170 0.3596
4.3200 1.4237 0.3436
4.3400 1.4303 0.3491
4.3600 1.4369 0.3582
4.3800 1.4435 0.3432
4.4000 1.4502 0.3483
4.4200 1.4569 0.3593
4.4400 1.4636 0.3338
4.4600 1.4703 0.3549
4.4800 1.4770 0.3566
4.5000 1.4836 0.3296
4.5200 1.4903 0.3510
4.5400 1.4969 0.3533
4.5600 1.5035 0.3330
4.5800 1.5102 0.3526
4.6000 1.5169 0.3472
4.6200 1.5236 0.3334
4.6400 1.5303 0.3508
4.6600 1.5370 0.3454
4.6800 1.5437 0.3341
4.7000 1.5503 0.3488
4.7200 1.5569 0.3439
4.7400 1.5635 0.3382
4.7600 1.5702 0.3487
4.7800 1.5770 0.3346
4.8000 1.5837 0.3367
4.8200 1.5904 0.3478
4.8400 1.5970 0.3300
4.8600 1.6037 0.3387
4.8800 1.6103 0.3453
4.9000 1.6169 0.3277
4.9200 1.6235 0.3445
4.9400 1.6302 0.3412
4.9600 1.6370 0.3274
4.9800 1.6436 0.3412
5.0000 1.6503 0.3330
5.0200 1.6570 0.3321
5.0400 1.6637 0.3437
5.0600 1.6703 0.3239
5.0800 1.6769 0.3309
5.1000 1.6835 0.3459
5.1200 1.6902 0.3194
5.1400 1.6969 0.3343
5.1600 1.7036 0.3461
5.1800 1.7103 0.3221
5.2000 1.7170 0.3285
5.2200 1.7237 0.3412
5.2400 1.7303 0.3209
5.2600 1.7369 0.3328
5.2800 1.7435 0.3401
5.3000 1.7502 0.3173
5.3200 1.7569 0.3382
5.3400 1.7636 0.3320
5.3600 1.7703 0.3172
5.3800 1.7770 0.3427
5.4000 1.7836 0.3272
5.4200 1.7903 0.3204
5.4400 1.7969 0.3383
5.4600 1.8035 0.3285
5.4800 1.8102 0.3267
5.5000 1.8169 0.3337
5.5200 1.8236 0.3202
5.5400 1.8303 0.3247
5.5600 1.8370 0.3385
5.5800 1.8437 0.3151
5.6000 1.8503 0.3242
5.6200 1.8569 0.3319
5.6400 1.8635 0.3159
5.6600 1.8702 0.3303
5.6800 1.8769 0.3273
5.7000 1.8836 0.3194
5.7200 1.8903 0.3297
5.7400 1.8970 0.3237
5.7600 1.9037 0.3169
5.7800 1.9103 0.3270
5.8000 1.9169 0.3249
5.8200 1.9235 0.3206
5.8400 1.9302 0.3249
5.8600 1.9369 0.3216
5.8800 1.9436 0.3265
5.9000 1.9503 0.3236
5.9200 1.9569 0.3145
5.9400 1.9636 0.3307
5.9600 1.9703 0.3195
5.9800 1.9769 0.3169
6.0000 1.9835 0.3317
6.0200 1.9902 0.3146
6.0400 1.9969 0.3174
6.0600 2.0036 0.3316
6.0800 2.0103 0.3129
6.1000 2.0170 0.3214
6.1200 2.0237 0.3281
6.1400 2.0303 0.3057
6.1600 2.0369 0.3191
6.1800 2.0435 0.3275
6.2000 2.0502 0.3078
6.2200 2.0569 0.3257
6.2400 2.0636 0.3219
6.2600 2.0703 0.3018
6.2800 2.0770 0.3293
6.3000 2.0837 0.3213
6.3200 2.0903 0.3010
6.3400 2.0969 0.3267
6.3600 2.1035 0.3191
6.3800 2.1102 0.3071
6.4000 2.1169 0.3247
6.4200 2.1236 0.3105
6.4400 2.1303 0.3122
6.4600 2.1370 0.3224
6.4800 2.1437 0.3072
6.5000 2.1503 0.3107
6.5200 2.1570 0.3210
6.5400 2.1636 0.3088
6.5600 2.1702 0.3135
6.5800 2.1769 0.3177
6.6000 2.1836 0.3050
6.6200 2.1903 0.3144
6.6400 2.1970 0.3109
6.6600 2.2037 0.3090
6.6800 2.2103 0.3120
6.7000 2.2169 0.3110
6.7200 2.2235 0.3098
6.7400 2.2302 0.3156
6.7600 2.2369 0.3121
6.7800 2.2436 0.3095
6.8000 2.2503 0.3137
6.8200 2.2570 0.3043
6.8400 2.2636 0.3114
6.8600 2.2703 0.3130
6.8800 2.2769 0.3015
6.9000 2.2835 0.3123
6.9200 2.2902 0.3073
6.9400 2.2969 0.3000
6.9600 2.3036 0.3189
6.9800 2.3103 0.3021
7.0000 2.3170 0.3018
7.0200 2.3237 0.3172
7.0400 2.3303 0.2964
7.0600 2.3370 0.3017
7.0800 2.3436 0.3225
7.1000 2.3502 0.2925
7.1200 2.3569 0.3047
7.1400 2.3636 0.3211
7.1600 2.3703 0.2917
7.1800 2.3770 0.3032
7.2000 2.3837 0.3148
7.2200 2.3903 0.2882
7.2400 2.3969 0.3079
7.2600 2.4035 0.3096
7.2800 2.4102 0.2905
7.3000 2.4169 0.3134
7.3200 2.4236 0.3031
7.3400 2.4303 0.2922
7.3600 2.4370 0.3092
7.3800 2.4437 0.3020
7.4000 2.4503 0.2957
7.4200 2.4569 0.3066
7.4400 2.4635 0.2987
7.4600 2.4702 0.3018
7.4800 2.4769 0.3040
7.5000 2.4836 0.2980
7.5200 2.4902 0.3018
7.5400 2.4969 0.3007
7.5600 2.5036 0.2963
7.5800 2.5103 0.3012
7.6000 2.5169 0.2979
7.6200 2.5236 0.2998
7.6400 2.5302 0.3020
7.6600 2.5369 0.2908
7.6800 2.5436 0.2991
7.7000 2.5503 0.2975
7.7200 2.5570 0.2956
7.7400 2.5637 0.2978
7.7600 2.5704 0.2980
7.7800 2.5769 0.2952
7.8000 2.5836 0.2977
7.8200 2.5902 0.2997
7.8400 2.5969 0.2896
7.8600 2.6037 0.2954
7.8800 2.6103 0.2961
7.9000 2.6170 0.2877
7.9200 2.6237 0.2999
7.9400 2.6303 0.2971
7.9600 2.6369 0.2857
7.9800 2.6435 0.2974
8.0000 2.6502 0.2943
8.0200 2.6569 0.2888
8.0400 2.6636 0.2967
8.0600 2.6703 0.2906
8.0800 2.6770 0.2844
8.1000 2.6836 0.2950
8.1200 2.6903 0.2864
8.1400 2.6969 0.2861
8.1600 2.7035 0.2955
8.1800 2.7102 0.2896
8.2000 2.7169 0.2826
8.2200 2.7236 0.2909
8.2400 2.7303 0.2906
8.2600 2.7370 0.2854
8.2800 2.7437 0.2857
8.3000 2.7503 0.2848
8.3200 2.7569 0.2911
8.3400 2.7635 0.2838
8.3600 2.7702 0.2856
8.3800 2.7769 0.2855
8.4000 2.7836 0.2846
8.4200 2.7903 0.2844
8.4400 2.7970 0.2811
8.4600 2.8037 0.2854
8.4800 2.8103 0.2859
8.5000 2.8169 0.2775
8.5200 2.8236 0.2855
8.5400 2.8302 0.2896
8.5600 2.8369 0.2818
8.5800 2.8436 0.2778
8.6000 2.8503 0.2862
8.6200 2.8570 0.2807
8.6400 2.8637 0.2835
8.6600 2.8704 0.2836
8.6800 2.8770 0.2760
8.7000 2.8836 0.2872
8.7200 2.8902 0.2825
8.7400 2.8969 0.2762
8.7600 2.9036 0.2837
8.7800 2.9103 0.2887
8.8000 2.9170 0.2672
8.8200 2.9237 0.2808
8.8400 2.9303 0.2869
8.8600 2.9369 0.2716
8.8800 2.9435 0.2833
8.9000 2.9501 0.2858
8.9200 2.9568 0.2661
8.9400 2.9635 0.2847
8.9600 2.9702 0.2879
8.9800 2.9769 0.2687
9.0000 2.9836 0.2882
9.0200 2.9903 0.2812
9.0400 2.9969 0.2692
9.0600 3.0036 0.2861
9.0800 3.0102 0.2804
9.1000 3.0169 0.2714
9.1200 3.0236 0.2858
9.1400 3.0303 0.2749
9.1600 3.0370 0.2769
9.1800 3.0437 0.2829
9.2000 3.0504 0.2750
9.2200 3.0570 0.2737
9.2400 3.0636 0.2778
9.2600 3.0702 0.2773
9.2800 3.0769 0.2821
9.3000 3.0836 0.2782
9.3200 3.0903 0.2818
9.3400 3.0970 0.2769
9.3600 3.1037 0.2750
9.3800 3.1104 0.2858
9.4000 3.1170 0.2755
9.4200 3.1235 0.2739
9.4400 3.1302 0.2835
9.4600 3.1369 0.2777
9.4800 3.1436 0.2734
9.5000 3.1503 0.2859
9.5200 3.1570 0.2726
9.5400 3.1637 0.2718
9.5600 3.1703 0.2858
9.5800 3.1770 0.2773
9.6000 3.1836 0.2690
9.6200 3.1902 0.2864
9.6400 3.1969 0.2720
9.6600 3.2036 0.2720
9.6800 3.2103 0.2831
9.7000 3.2169 0.2697
9.7200 3.2236 0.2687
9.7400 3.2303 0.2787
9.7600 3.2369 0.2714
9.7800 3.2436 0.2739
9.8000 3.2502 0.2811
9.8200 3.2569 0.2682
9.8400 3.2636 0.2738
9.8600 3.2703 0.2761
9.8800 3.2770 0.2696
9.9000 3.2837 0.2700
9.9200 3.2904 0.2730
9.9400 3.2970 0.2701
9.9600 3.3036 0.2691
9.9800 3.3102 0.2737
10.0000 3.3169 0.2694
10.0200 3.3236 0.2656
10.0400 3.3303 0.2742
10.0600 3.3370 0.2710
10.0800 3.3437 0.2673
10.1000 3.3503 0.2716
10.1200 3.3570 0.2626
10.1400 3.3636 0.2715
10.1600 3.3702 0.2682
10.1800 3.3769 0.2673
10.2000 3.3836 0.2680
10.2200 3.3902 0.2698
10.2400 3.3969 0.2666
10.2600 3.4036 0.2650
10.2800 3.4103 0.2679
10.3000 3.4170 0.2664
10.3200 3.4235 0.2628
10.3400 3.4302 0.2641
10.3600 3.4368 0.2704
10.3800 3.4436 0.2630
10.4000 3.4503 0.2607
10.4200 3.4570 0.2655
10.4400 3.4636 0.2554
10.4600 3.4703 0.2683
10.4800 3.4770 0.2651
10.5000 3.4836 0.2546
10.5200 3.4902 0.2695
10.5400 3.4969 0.2633
10.5600 3.5036 0.2522
10.5800 3.5103 0.2666
10.6000 3.5170 0.2665
10.6200 3.5237 0.2525
10.6400 3.5303 0.2647
10.6600 3.5370 0.2563
10.6800 3.5436 0.2577
10.7000 3.5502 0.2713
10.7200 3.5569 0.2554
10.7400 3.5636 0.2564
10.7600 3.5703 0.2695
10.7800 3.5770 0.2558
10.8000 3.5837 0.2582
10.8200 3.5904 0.2628
10.8400 3.5970 0.2609
10.8600 3.6036 0.2596
10.8800 3.6102 0.2612
10.9000 3.6169 0.2625
10.9200 3.6236 0.2608
10.9400 3.6303 0.2573
10.9600 3.6370 0.2568
10.9800 3.6437 0.2585
11.0000 3.6503 0.2548
11.0200 3.6570 0.2616
11.0400 3.6636 0.2569
11.0600 3.6702 0.2582
11.0800 3.6768 0.2605
11.1000 3.6836 0.2554
11.1200 3.6903 0.2548
11.1400 3.6969 0.2597
11.1600 3.7036 0.2541
11.1800 3.7103 0.2552
11.2000 3.7169 0.2556
11.2200 3.7236 0.2555
11.2400 3.7302 0.2556
11.2600 3.7368 0.2587
11.2800 3.7436 0.2569
11.3000 3.7503 0.2517
11.3200 3.7570 0.2572
11.3400 3.7637 0.2561
11.3600 3.7704 0.2518
11.3800 3.7770 0.2561
11.4000 3.7836 0.2550
11.4200 3.7902 0.2522
11.4400 3.7969 0.2600
11.4600 3.8036 0.2583
11.4800 3.8103 0.2489
11.5000 3.8170 0.2534
11.5200 3.8237 0.2568
11.5400 3.8304 0.2496
11.5600 3.8370 0.2571
11.5800 3.8436 0.2539
11.6000 3.8502 0.2499
11.6200 3.8569 0.2551
11.6400 3.8636 0.2506
11.6600 3.8702 0.2526
11.6800 3.8769 0.2584
11.7000 3.8836 0.2478
11.7200 3.8903 0.2480
11.7400 3.8970 0.2548
11.7600 3.9036 0.2484
11.7800 3.9102 0.2535
11.8000 3.9168 0.2573
11.8200 3.9235 0.2459
11.8400 3.9302 0.2461
11.8600 3.9369 0.2623
11.8800 3.9436 0.2464
11.9000 3.9503 0.2420
11.9200 3.9570 0.2561
11.9400 3.9636 0.2464
11.9600 3.9702 0.2374
11.9800 3.9769 0.2609
12.0000 3.9836 0.2529
12.0200 3.9903 0.2280
12.0400 3.9970 0.2597
12.0600 4.0037 0.2521
12.0800 4.0103 0.2313
12.1000 4.0170 0.2631
12.1200 4.0236 0.2515
12.1400 4.0303 0.2260
12.1600 4.0369 0.2619
12.1800 4.0436 0.2467
12.2000 4.0503 0.2285
12.2200 4.0570 0.2632
12.2400 4.0637 0.2450
12.2600 4.0704 0.2233
12.2800 4.0770 0.2605
12.3000 4.0836 0.2459
12.3200 4.0902 0.2321
12.3400 4.0968 0.2587
12.3600 4.1035 0.2407
12.3800 4.1103 0.2366
12.4000 4.1170 0.2538
12.4200 4.1237 0.2398
12.4400 4.1303 0.2348
12.4600 4.1370 0.2581
12.4800 4.1436 0.2314
12.5000 4.1502 0.2355
12.5200 4.1568 0.2585
12.5400 4.1635 0.2377
12.5600 4.1703 0.2334
12.5800 4.1769 0.2529
12.6000 4.1836 0.2360
12.6200 4.1903 0.2387
12.6400 4.1970 0.2452
12.6600 4.2036 0.2389
12.6800 4.2102 0.2430
12.7000 4.2169 0.2404
12.7200 4.2236 0.2379
12.7400 4.2303 0.2425
12.7600 4.2370 0.2430
12.7800 4.2437 0.2378
12.8000 4.2504 0.2379
12.8200 4.2570 0.2327
12.8400 4.2636 0.2407
12.8600 4.2702 0.2420
12.8800 4.2769 0.2377
12.9000 4.2836 0.2450
12.9200 4.2903 0.2356
12.9400 4.2970 0.2302
12.9600 4.3037 0.2455
12.9800 4.3104 0.2345
13.0000 4.3170 0.2306
13.0200 4.3236 0.2428
13.0400 4.3302 0.2328
13.0600 4.3369 0.2299
13.0800 4.3436 0.2533
13.1000 4.3503 0.2296
13.1200 4.3570 0.2240
13.1400 4.3636 0.2501
13.1600 4.3703 0.2261
13.1800 4.3770 0.2335
13.2000 4.3836 0.2476
13.2200 4.3902 0.2208
13.2400 4.3968 0.2305
13.2600 4.4035 0.2530
13.2800 4.4102 0.2223
13.3000 4.4169 0.2340
13.3200 4.4236 0.2474
13.3400 4.4303 0.2227
13.3600 4.4370 0.2331
13.3800 4.4436 0.2464
13.4000 4.4502 0.2258
13.4200 4.4569 0.2328
13.4400 4.4636 0.2384
13.4600 4.4703 0.2200
13.4800 4.4770 0.2364
13.5000 4.4837 0.2337
13.5200 4.4904 0.2222
13.5400 4.4970 0.2382
13.5600 4.5036 0.2323
13.5800 4.5102 0.2241
13.6000 4.5169 0.2400
13.6200 4.5236 0.2296
13.6400 4.5303 0.2245
13.6600 4.5370 0.2343
13.6800 4.5436 0.2310
13.7000 4.5503 0.2238
13.7200 4.5570 0.2369
13.7400 4.5636 0.2222
13.7600 4.5702 0.2266
13.7800 4.5768 0.2358
13.8000 4.5835 0.2274
13.8200 4.5902 0.2263
13.8400 4.5969 0.2316
13.8600 4.6036 0.2291
13.8800 4.6103 0.2248
13.9000 4.6170 0.2271
13.9200 4.6236 0.2258
13.9400 4.6302 0.2285
13.9600 4.6368 0.2283
13.9800 4.6435 0.2246
14.0000 4.6502 0.2260
14.0200 4.6570 0.2286
14.0400 4.6636 0.2204
14.0600 4.6703 0.2233
14.0800 4.6770 0.2312
14.1000 4.6836 0.2239
14.1200 4.6902 0.2179
14.1400 4.6968 0.2262
14.1600 4.7035 0.2301
14.1800 4.7103 0.2182
14.2000 4.7170 0.2240
14.2200 4.7237 0.2302
14.2400 4.7303 0.2223
14.2600 4.7370 0.2221
14.2800 4.7437 0.2268
14.3000 4.7503 0.2194
14.3200 4.7569 0.2203
14.3400 4.7635 0.2223
14.3600 4.7703 0.2202
14.3800 4.7770 0.2227
14.4000 4.7837 0.2222
14.4200 4.7904 0.2138
14.4400 4.7970 0.2172
14.4600 4.8037 0.2211
14.4800 4.8102 0.2214
14.5000 4.8169 0.2198
14.5200 4.8235 0.2223
14.5400 4.8303 0.2172
14.5600 4.8369 0.2201
14.5800 4.8436 0.2179
14.6000 4.8503 0.2163
14.6200 4.8570 0.2241
14.6400 4.8636 0.2172
14.6600 4.8702 0.2168
14.6800 4.8768 0.2164
14.7000 4.8835 0.2215
14.7200 4.8902 0.2196
14.7400 4.8969 0.2113
14.7600 4.9036 0.2166
14.7800 4.9103 0.2227
14.8000 4.9170 0.2117
14.8200 4.9236 0.2142
14.8400 4.9302 0.2227
14.8600 4.9369 0.2182
14.8800 4.9435 0.2105
14.9000 4.9503 0.2209
14.9200 4.9570 0.2110
14.9400 4.9636 0.2184
14.9600 4.9703 0.2202
14.9800 4.9770 0.2051
15.0000 4.9837 0.2190
15.0200 4.9902 0.2194
15.0400 4.9968 0.2064
15.0600 5.0035 0.2160
15.0800 5.0103 0.2233
15.1000 5.0170 0.2000
15.1200 5.0237 0.2187
15.1400 5.0303 0.2158
15.1600 5.0370 0.1998
15.1800 5.0436 0.2200
15.2000 5.0502 0.2161
15.2200 5.0569 0.2034
15.2400 5.0635 0.2146
15.2600 5.0703 0.2142
15.2800 5.0770 0.2040
15.3000 5.0837 0.2155
15.3200 5.0903 0.2122
15.3400 5.0970 0.2002
15.3600 5.1036 0.2186
15.3800 5.1102 0.2102
15.4000 5.1168 0.2034
15.4200 5.1235 0.2192
15.4400 5.1302 0.2113
15.4600 5.1369 0.1988
15.4800 5.1436 0.2110
15.5000 5.1503 0.2174
15.5200 5.1570 0.2009
15.5400 5.1636 0.2067
15.5600 5.1702 0.2104
15.5800 5.1768 0.2052
15.6000 5.1835 0.2037
15.6200 5.1903 0.2105
15.6400 5.1970 0.2081
15.6600 5.2037 0.1986
15.6800 5.2103 0.2089
15.7000 5.2170 0.2058
15.7200 5.2237 0.1977
15.7400 5.2303 0.2074
15.7600 5.2369 0.2092
15.7800 5.2436 0.1995
15.8000 5.2503 0.2095
15.8200 5.2570 0.2021
15.8400 5.2637 0.2021
15.8600 5.2704 0.2080
15.8800 5.2770 0.2003
15.9000 5.2837 0.1994
15.9200 5.2903 0.2079
15.9400 5.2968 0.1996
15.9600 5.3035 0.2005
15.9800 5.3102 0.2110
16.0000 5.3169 0.2019
16.0200 5.3236 0.1987
16.0400 5.3303 0.2051
16.0600 5.3370 0.2025
16.0800 5.3436 0.2031
16.1000 5.3502 0.2074
16.1200 5.3569 0.2032
16.1400 5.3635 0.2047
16.1600 5.3703 0.2033
16.1800 5.3770 0.2016
16.2000 5.3836 0.2011
16.2200 5.3903 0.2051
16.2400 5.3970 0.2041
16.2600 5.4036 0.1994
16.2800 5.4103 0.2037
16.3000 5.4169 0.2056
16.3200 5.4236 0.2050
16.3400 5.4303 0.2030
16.3600 5.4369 0.2033
16.3800 5.4436 0.2019
16.4000 5.4503 0.2035
16.4200 5.4570 0.2045
16.4400 5.4637 0.1971
16.4600 5.4703 0.2031
16.4800 5.4769 0.2076
16.5000 5.4835 0.2010
16.5200 5.4902 0.2057
16.5400 5.4970 0.2060
16.5600 5.5037 0.1957
16.5800 5.5103 0.2030
16.6000 5.5170 0.2034
16.6200 5.5236 0.1931
16.6400 5.5302 0.2061
16.6600 5.5368 0.2017
16.6800 5.5435 0.1937
16.7000 5.5502 0.2045
16.7200 5.5570 0.2007
16.7400 5.5636 0.1937
16.7600 5.5703 0.2112
16.7800 5.5770 0.1985
16.8000 5.5836 0.1936
16.8200 5.5903 0.2033
16.8400 5.5969 0.1996
16.8600 5.6035 0.1955
16.8800 5.6102 0.2026
16.9000 5.6169 0.2001
16.9200 5.6236 0.1925
16.9400 5.6303 0.2009
16.9600 5.6370 0.1992
16.9800 5.6437 0.1940
17.0000 5.6503 0.1993
17.0200 5.6569 0.2005
17.0400 5.6635 0.1934
17.0600 5.6703 0.1960
17.0800 5.6770 0.1966
17.1000 5.6837 0.1928
17.1200 5.6904 0.1999
17.1400 5.6970 0.1980
17.1600 5.7036 0.1878
17.1800 5.7103 0.1974
17.2000 5.7169 0.2008
17.2200 5.7235 0.1882
17.2400 5.7303 0.1986
17.2600 5.7370 0.1992
17.2800 5.7437 0.1838
17.3000 5.7503 0.1977
17.3200 5.7570 0.1996
17.3400 5.7637 0.1841
17.3600 5.7703 0.1992
17.3800 5.7769 0.1940
17.4000 5.7835 0.1804
17.4200 5.7902 0.2010
17.4400 5.7969 0.1865
17.4600 5.8036 0.1815
17.4800 5.8103 0.2041
17.5000 5.8170 0.1830
17.5200 5.8237 0.1768
17.5400 5.8302 0.1989
17.5600 5.8368 0.1875
17.5800 5.8435 0.1799
17.6000 5.8502 0.1980
17.6200 5.8569 0.1845
17.6400 5.8636 0.1774
17.6600 5.8703 0.1974
17.6800 5.8770 0.1809
17.7000 5.8836 0.1832
17.7200 5.8903 0.1949
17.7400 5.8969 0.1836
17.7600 5.9035 0.1784
17.7800 5.9102 0.1896
17.8000 5.9169 0.1841
17.8200 5.9236 0.1811
17.8400 5.9303 0.1909
17.8600 5.9370 0.1792
17.8800 5.9437 0.1768
17.9000 5.9503 0.1895
17.9200 5.9569 0.1787
17.9400 5.9636 0.1807
17.9600 5.9702 0.1888
17.9800 5.9770 0.1776
18.0000 5.9837 0.1777
18.0200 5.9903 0.1795
18.0400 5.9970 0.1790
18.0600 6.0037 0.1786
18.0800 6.0103 0.1806
18.1000 6.0169 0.1796
18.1200 6.0235 0.1816
18.1400 6.0302 0.1817
18.1600 6.0369 0.1766
18.1800 6.0436 0.1790
18.2000 6.0503 0.1876
18.2200 6.0570 0.1745
18.2400 6.0637 0.1760
18.2600 6.0703 0.1811
18.2800 6.0769 0.1776
18.3000 6.0835 0.1801
18.3200 6.0902 0.1844
18.3400 6.0969 0.1708
18.3600 6.1036 0.1758
18.3800 6.1103 0.1827
18.4000 6.1169 0.1744
18.4200 6.1236 0.1791
18.4400 6.1303 0.1757
18.4600 6.1369 0.1733
18.4800 6.1435 0.1773
18.5000 6.1502 0.1783
18.5200 6.1569 0.1767
18.5400 6.1636 0.1787
18.5600 6.1703 0.1708
18.5800 6.1770 0.1751
18.6000 6.1837 0.1794
18.6200 6.1903 0.1711
18.6400 6.1969 0.1754
18.6600 6.2035 0.1800
18.6800 6.2102 0.1723
18.7000 6.2170 0.1749
18.7200 6.2237 0.1741
18.7400 6.2303 0.1738
18.7600 6.2370 0.1788
18.7800 6.2437 0.1668
18.8000 6.2503 0.1720
18.8200 6.2569 0.1776
18.8400 6.2635 0.1723
18.8600 6.2702 0.1701
18.8800 6.2769 0.1742
18.9000 6.2836 0.1710
18.9200 6.2903 0.1703
18.9400 6.2969 0.1725
18.9600 6.3036 0.1691
18.9800 6.3103 0.1734
19.0000 6.3169 0.1685
19.0200 6.3235 0.1670
19.0400 6.3302 0.1747
19.0600 6.3369 0.1644
19.0800 6.3436 0.1743
19.1000 6.3503 0.1670
19.1200 6.3570 0.1611
19.1400 6.3636 0.1732
19.1600 6.3703 0.1658
19.1800 6.3769 0.1665
19.2000 6.3835 0.1709
19.2200 6.3902 0.1700
19.2400 6.3970 0.1621
19.2600 6.4037 0.1661
19.2800 6.4104 0.1655
19.3000 6.4170 0.1651
19.3200 6.4237 0.1670
19.3400 6.4303 0.1662
19.3600 6.4369 0.1688
19.3800 6.4436 0.1682
19.4000 6.4502 0.1661
19.4200 6.4569 0.1678
19.4400 6.4636 0.1656
19.4600 6.4703 0.1682
19.4800 6.4770 0.1677
19.5000 6.4837 0.1611
19.5200 6.4903 0.1639
19.5400 6.4969 0.1641
19.5600 6.5035 0.1615
19.5800 6.5102 0.1681
19.6000 6.5169 0.1650
19.6200 6.5236 0.1557
19.6400 6.5303 0.1694
19.6600 6.5370 0.1606
19.6800 6.5437 0.1581
19.7000 6.5503 0.1674
19.7200 6.5569 0.1567
19.7400 6.5635 0.1578
19.7600 6.5701 0.1708
19.7800 6.5769 0.1560
19.8000 6.5836 0.1566
19.8200 6.5903 0.1712
19.8400 6.5969 0.1571
19.8600 6.6036 0.1577
19.8800 6.6103 0.1671
19.9000 6.6169 0.1556
19.9200 6.6235 0.1587
19.9400 6.6302 0.1670
19.9600 6.6369 0.1524
19.9800 6.6436 0.1626
20.0000 6.6503 0.1637
20.0200 6.6570 0.1510
20.0400 6.6637 0.1600
20.0600 6.6704 0.1587
20.0800 6.6769 0.1514
20.1000 6.6836 0.1649
20.1200 6.6902 0.1579
20.1400 6.6969 0.1509
20.1600 6.7037 0.1604
20.1800 6.7103 0.1591
20.2000 6.7170 0.1472
20.2200 6.7237 0.1621
20.2400 6.7303 0.1594
20.2600 6.7369 0.1460
20.2800 6.7435 0.1652
20.3000 6.7502 0.1546
20.3200 6.7569 0.1476
20.3400 6.7636 0.1642
20.3600 6.7703 0.1538
20.3800 6.7769 0.1481
20.4000 6.7836 0.1625
20.4200 6.7903 0.1513
20.4400 6.7969 0.1482
20.4600 6.8035 0.1602
20.4800 6.8102 0.1533
20.5000 6.8169 0.1528
20.5200 6.8236 0.1543
20.5400 6.8303 0.1519
20.5600 6.8370 0.1553
20.5800 6.8437 0.1462
20.6000 6.8503 0.1490
20.6200 6.8569 0.1572
20.6400 6.8635 0.1479
20.6600 6.8702 0.1506
20.6800 6.8769 0.1573
20.7000 6.8836 0.1506
20.7200 6.8903 0.1445
20.7400 6.8970 0.1544
20.7600 6.9037 0.1421
20.7800 6.9103 0.1482
20.8000 6.9169 0.1561
20.8200 6.9235 0.1428
20.8400 6.9302 0.1490
20.8600 6.9369 0.1491
20.8800 6.9436 0.1411
20.9000 6.9503 0.1497
20.9200 6.9570 0.1445
20.9400 6.9637 0.1481
20.9600 6.9703 0.1502
20.9800 6.9770 0.1369
21.0000 6.9836 0.1498
21.0200 6.9902 0.1508
21.0400 6.9969 0.1360
21.0600 7.0036 0.1454
21.0800 7.0103 0.1487
21.1000 7.0170 0.1346
21.1200 7.0237 0.1523
21.1400 7.0303 0.1459
21.1600 7.0369 0.1306
21.1800 7.0435 0.1558
21.2000 7.0501 0.1445
21.2200 7.0568 0.1309
21.2400 7.0636 0.1512
21.2600 7.0703 0.1424
21.2800 7.0769 0.1338
21.3000 7.0836 0.1510
21.3200 7.0903 0.1394
21.3400 7.0969 0.1333
21.3600 7.1035 0.1494
21.3800 7.1102 0.1391
21.4000 7.1169 0.1351
21.4200 7.1236 0.1483
21.4400 7.1303 0.1382
21.4600 7.1370 0.1367
21.4800 7.1437 0.1416
21.5000 7.1504 0.1383
21.5200 7.1570 0.1363
21.5400 7.1636 0.1450
21.5600 7.1702 0.1386
21.5800 7.1769 0.1320
21.6000 7.1836 0.1411
21.6200 7.1903 0.1380
21.6400 7.1970 0.1338
21.6600 7.2037 0.1394
21.6800 7.2104 0.1372
21.7000 7.2170 0.1350
21.7200 7.2235 0.1390
21.7400 7.2302 0.1360
21.7600 7.2369 0.1330
21.7800 7.2436 0.1413
21.8000 7.2503 0.1383
21.8200 7.2570 0.1271
21.8400 7.2637 0.1401
21.8600 7.2703 0.1311
21.8800 7.2769 0.1259
21.9000 7.2835 0.1429
21.9200 7.2902 0.1377
21.9400 7.2969 0.1278
21.9600 7.3036 0.1421
21.9800 7.3102 0.1340
22.0000 7.3169 0.1279
22.0200 7.3236 0.1383
22.0400 7.3303 0.1315
22.0600 7.3369 0.1270
22.0800 7.3436 0.1411
22.1000 7.3502 0.1318
22.1200 7.3569 0.1291
22.1400 7.3636 0.1388
22.1600 7.3703 0.1325
22.1800 7.3770 0.1344
22.2000 7.3837 0.1296
22.2200 7.3904 0.1287
22.2400 7.3970 0.1341
22.2600 7.4036 0.1314
22.2800 7.4102 0.1314
22.3000 7.4169 0.1325
22.3200 7.4237 0.1321
22.3400 7.4303 0.1290
22.3600 7.4370 0.1320
22.3800 7.4436 0.1302
22.4000 7.4503 0.1306
22.4200 7.4569 0.1324
22.4400 7.4635 0.1251
22.4600 7.4702 0.1358
22.4800 7.4769 0.1373
22.5000 7.4836 0.1207
22.5200 7.4903 0.1378
22.5400 7.4969 0.1308
22.5600 7.5036 0.1243
22.5800 7.5103 0.1338
22.6000 7.5169 0.1298
22.6200 7.5235 0.1230
22.6400 7.5301 0.1327
22.6600 7.5368 0.1267
22.6800 7.5436 0.1235
22.7000 7.5503 0.1347
22.7200 7.5570 0.1282
22.7400 7.5637 0.1215
22.7600 7.5703 0.1333
22.7800 7.5769 0.1267
22.8000 7.5836 0.1299
22.8200 7.5902 0.1320
22.8400 7.5969 0.1218
22.8600 7.6036 0.1294
22.8800 7.6103 0.1251
22.9000 7.6170 0.1272
22.9200 7.6237 0.1300
22.9400 7.6304 0.1230
22.9600 7.6370 0.1244
22.9800 7.6436 0.1270
23.0000 7.6502 0.1217
23.0200 7.6569 0.1281
23.0400 7.6636 0.1297
23.0600 7.6703 0.1212
23.0800 7.6770 0.1266
23.1000 7.6837 0.1290
23.1200 7.6904 0.1168
23.1400 7.6970 0.1293
23.1600 7.7036 0.1250
23.1800 7.7102 0.1218
23.2000 7.7169 0.1260
23.2200 7.7236 0.1285
23.2400 7.7303 0.1207
23.2600 7.7370 0.1234
23.2800 7.7437 0.1275
23.3000 7.7503 0.1139
23.3200 7.7569 0.1267
23.3400 7.7635 0.1284
23.3600 7.7702 0.1154
23.3800 7.7768 0.1251
23.4000 7.7835 0.1291
23.4200 7.7902 0.1193
23.4400 7.7969 0.1229
23.4600 7.8036 0.1302
23.4800 7.8103 0.1169
23.5000 7.8169 0.1212
23.5200 7.8235 0.1246
23.5400 7.8302 0.1180
23.5600 7.8369 0.1282
23.5800 7.8436 0.1216
23.6000 7.8503 0.1155
23.6200 7.8570 0.1235
23.6400 7.8637 0.1197
23.6600 7.8704 0.1208
23.6800 7.8770 0.1216
23.7000 7.8836 0.1188
23.7200 7.8902 0.1226
23.7400 7.8969 0.1264
23.7600 7.9036 0.1112
23.7800 7.9103 0.1205
23.8000 7.9170 0.1283
23.8200 7.9237 0.1126
23.8400 7.9304 0.1216
23.8600 7.9370 0.1175
23.8800 7.9436 0.1131
23.9000 7.9502 0.1270
23.9200 7.9569 0.1180
23.9400 7.9636 0.1140
23.9600 7.9703 0.1223
23.9800 7.9770 0.1175
24.0000 7.9836 0.1119
24.0200 7.9903 0.1187
24.0400 7.9970 0.1190
24.0600 8.0036 0.1105
24.0800 8.0102 0.1240
24.1000 8.0169 0.1180
24.1200 8.0236 0.1151
24.1400 8.0303 0.1186
24.1600 8.0369 0.1156
24.1800 8.0436 0.1131
24.2000 8.0503 0.1155
24.2200 8.0570 0.1160
24.2400 8.0636 0.1170
24.2600 8.0702 0.1155
24.2800 8.0769 0.1128
24.3000 8.0836 0.1125
24.3200 8.0903 0.1139
24.3400 8.0970 0.1138
24.3600 8.1037 0.1140
24.3800 8.1103 0.1085
24.4000 8.1170 0.1167
24.4200 8.1236 0.1133
24.4400 8.1302 0.1090
24.4600 8.1369 0.1241
24.4800 8.1436 0.1118
24.5000 8.1503 0.1014
24.5200 8.1570 0.1194
24.5400 8.1637 0.1143
24.5600 8.1703 0.1018
24.5800 8.1770 0.1225
24.6000 8.1836 0.1094
24.6200 8.1902 0.0980
24.6400 8.1969 0.1271
24.6600 8.2036 0.1068
24.6800 8.2103 0.0990
24.7000 8.2169 0.1282
24.7200 8.2236 0.1031
24.7400 8.2303 0.0985
24.7600 8.2370 0.1266
24.7800 8.2436 0.0971
24.8000 8.2502 0.1062
24.8200 8.2568 0.1226
24.8400 8.2635 0.0958
24.8600 8.2703 0.1053
24.8800 8.2770 0.1193
24.9000 8.2836 0.0959
24.9200 8.2903 0.1097
24.9400 8.2970 0.1134
24.9600 8.3036 0.0982
24.9800 8.3102 0.1121
25.0000 8.3169 0.1143
25.0200 8.3236 0.0976
25.0400 8.3303 0.1065
25.0600 8.3370 0.1074
25.0800 8.3436 0.1023
25.1000 8.3503 0.1061
25.1200 8.3570 0.1053
25.1400 8.3636 0.1014
25.1600 8.3702 0.1065
25.1800 8.3769 0.1077
25.2000 8.3836 0.1001
25.2200 8.3903 0.1086
25.2400 8.3970 0.1018
25.2600 8.4037 0.1029
25.2800 8.4103 0.1031
25.3000 8.4170 0.1027
25.3200 8.4236 0.1049
25.3400 8.4302 0.0967
25.3600 8.4369 0.1073
25.3800 8.4436 0.1038
25.4000 8.4503 0.0978
25.4200 8.4570 0.1072
25.4400 8.4637 0.0994
25.4600 8.4703 0.1005
25.4800 8.4770 0.1069
25.5000 8.4836 0.0951
25.5200 8.4902 0.0994
25.5400 8.4968 0.1079
25.5600 8.5035 0.0957
25.5800 8.5102 0.0907
25.6000 8.5169 0.1103
25.6200 8.5236 0.0970
25.6400 8.5303 0.0919
25.6600 8.5369 0.1106
25.6800 8.5436 0.0953
25.7000 8.5502 0.0909
25.7200 8.5569 0.1062
25.7400 8.5636 0.0904
25.7600 8.5703 0.0929
25.7800 8.5770 0.1062
25.8000 8.5837 0.0890
25.8200 8.5904 0.0934
25.8400 8.5970 0.1034
25.8600 8.6036 0.0885
25.8800 8.6102 0.0940
25.9000 8.6169 0.1019
25.9200 8.6236 0.0887
25.9400 8.6303 0.0992
25.9600 8.6370 0.0960
25.9800 8.6437 0.0908
26.0000 8.6504 0.0995
26.0200 8.6570 0.0964
26.0400 8.6636 0.0900
26.0600 8.6702 0.0976
26.0800 8.6769 0.0938
26.1000 8.6836 0.0920
26.1200 8.6903 0.0971
26.1400 8.6969 0.0871
26.1600 8.7036 0.0948
26.1800 8.7103 0.1002
26.2000 8.7170 0.0838
26.2200 8.7236 0.0949
26.2400 8.7302 0.0968
26.2600 8.7368 0.0873
26.2800 8.7435 0.0957
26.3000 8.7502 0.0929
26.3200 8.7569 0.0880
26.3400 8.7636 0.0942
26.3600 8.7703 0.0891
26.3800 8.7770 0.0877
26.4000 8.7836 0.0949
26.4200 8.7902 0.0893
26.4400 8.7969 0.0917
26.4600 8.8036 0.0957
26.4800 8.8103 0.0874
26.5000 8.8170 0.0917
26.5200 8.8237 0.0929
26.5400 8.8303 0.0873
26.5600 8.8370 0.0877
26.5800 8.8436 0.0897
26.6000 8.8503 0.0882
26.6200 8.8569 0.0896
26.6400 8.8636 0.0886
26.6600 8.8703 0.0894
26.6800 8.8770 0.0891
26.7000 8.8837 0.0859
26.7200 8.8904 0.0892
26.7400 8.8970 0.0897
26.7600 8.9036 0.0852
26.7800 8.9102 0.0898
26.8000 8.9168 0.0875
26.8200 8.9235 0.0859
26.8400 8.9303 0.0853
26.8600 8.9369 0.0876
26.8800 8.9436 0.0823
26.9000 8.9503 0.0895
26.9200 8.9570 0.0864
26.9400 8.9636 0.0811
26.9600 8.9702 0.0931
26.9800 8.9768 0.0841
27.0000 8.9835 0.0842
27.0200 8.9903 0.0880
27.0400 8.9969 0.0837
27.0600 9.0036 0.0834
27.0800 9.0103 0.0900
27.1000 9.0170 0.0831
27.1200 9.0236 0.0814
27.1400 9.0302 0.0876
27.1600 9.0369 0.0876
27.1800 9.0435 0.0826
27.2000 9.0503 0.0833
27.2200 9.0569 0.0828
27.2400 9.0636 0.0873
27.2600 9.0704 0.0793
27.2800 9.0770 0.0833
27.3000 9.0837 0.0882
27.3200 9.0902 0.0831
27.3400 9.0969 0.0834
27.3600 9.1036 0.0804
27.3800 9.1103 0.0814
27.4000 9.1170 0.0819
27.4200 9.1237 0.0848
27.4400 9.1304 0.0789
27.4600 9.1370 0.0826
27.4800 9.1436 0.0808
27.5000 9.1502 0.0778
27.5200 9.1569 0.0853
27.5400 9.1636 0.0872
27.5600 9.1703 0.0702
27.5800 9.1770 0.0802
27.6000 9.1836 0.0872
27.6200 9.1903 0.0825
27.6400 9.1970 0.0830
27.6600 9.2036 0.0767
27.6800 9.2102 0.0850
27.7000 9.2168 0.0802
27.7200 9.2235 0.0765
27.7400 9.2302 0.0799
27.7600 9.2369 0.0834
27.7800 9.2436 0.0723
27.8000 9.2503 0.0825
27.8200 9.2570 0.0775
27.8400 9.2636 0.0739
27.8600 9.2702 0.0814
27.8800 9.2769 0.0791
27.9000 9.2836 0.0740
27.9200 9.2903 0.0781
27.9400 9.2970 0.0774
27.9600 9.3037 0.0769
27.9800 9.3104 0.0778
28.0000 9.3170 0.0748
28.0200 9.3237 0.0739
28.0400 9.3303 0.0792
28.0600 9.3369 0.0805
28.0800 9.3436 0.0727
28.1000 9.3503 0.0726
28.1200 9.3570 0.0744
28.1400 9.3636 0.0764
28.1600 9.3703 0.0742
28.1800 9.3770 0.0773
28.2000 9.3836 0.0724
28.2200 9.3902 0.0747
28.2400 9.3968 0.0775
28.2600 9.4035 0.0763
28.2800 9.4102 0.0730
28.3000 9.4169 0.0727
28.3200 9.4236 0.0763
28.3400 9.4303 0.0705
28.3600 9.4370 0.0736
28.3800 9.4436 0.0744
28.4000 9.4502 0.0731
28.4200 9.4568 0.0692
28.4400 9.4635 0.0728
28.4600 9.4702 0.0760
28.4800 9.4769 0.0702
28.5000 9.4836 0.0677
28.5200 9.4903 0.0747
28.5400 9.4970 0.0691
28.5600 9.5036 0.0711
28.5800 9.5102 0.0729
28.6000 9.5169 0.0669
28.6200 9.5236 0.0737
28.6400 9.5303 0.0716
28.6600 9.5370 0.0681
28.6800 9.5437 0.0707
28.7000 9.5503 0.0721
28.7200 9.5570 0.0693
28.7400 9.5637 0.0684
28.7600 9.5703 0.0751
28.7800 9.5769 0.0733
28.8000 9.5836 0.0693
28.8200 9.5903 0.0717
28.8400 9.5970 0.0720
28.8600 9.6037 0.0697
28.8800 9.6104 0.0689
28.9000 9.6171 0.0749
28.9200 9.6237 0.0639
28.9400 9.6303 0.0729
28.9600 9.6368 0.0750
28.9800 9.6435 0.0670
29.0000 9.6502 0.0731
29.0200 9.6569 0.0727
29.0400 9.6636 0.0645
29.0600 9.6703 0.0687
29.0800 9.6770 0.0749
29.1000 9.6836 0.0661
29.1200 9.6902 0.0699
29.1400 9.6968 0.0716
29.1600 9.7035 0.0650
29.1800 9.7102 0.0702
29.2000 9.7169 0.0724
29.2200 9.7236 0.0662
29.2400 9.7303 0.0675
29.2600 9.7370 0.0699
29.2800 9.7436 0.0649
29.3000 9.7503 0.0616
29.3200 9.7569 0.0737
29.3400 9.7636 0.0625
29.3600 9.7703 0.0638
29.3800 9.7770 0.0685
29.4000 9.7836 0.0625
29.4200 9.7903 0.0700
29.4400 9.7970 0.0666
29.4600 9.8037 0.0610
29.4800 9.8103 0.0657
29.5000 9.8169 0.0690
29.5200 9.8235 0.0651
29.5400 9.8302 0.0676
29.5600 9.8370 0.0650
29.5800 9.8437 0.0620
29.6000 9.8503 0.0696
29.6200 9.8570 0.0616
29.6400 9.8637 0.0591
29.6600 9.8703 0.0698
29.6800 9.8769 0.0587
29.7000 9.8835 0.0640
29.7200 9.8902 0.0638
29.7400 9.8969 0.0640
29.7600 9.9036 0.0645
29.7800 9.9103 0.0629
29.8000 9.9170 0.0615
29.8200 9.9236 0.0617
29.8400 9.9302 0.0657
29.8600 9.9368 0.0643
29.8800 9.9435 0.0644
29.9000 9.9502 0.0626
29.9200 9.9569 0.0609
29.9400 9.9636 0.0622
29.9600 9.9703 0.0639
29.9800 9.9770 0.0591
30.0000 9.9836 0.0544
30.0200 9.9902 0.0629
30.0400 9.9968 0.0641
30.0600 10.0035 0.0557
30.0800 10.0103 0.0655
30.1000 10.0170 0.0582
30.1200 10.0237 0.0579
30.1400 10.0303 0.0642
30.1600 10.0370 0.0557
30.1800 10.0437 0.0582
30.2000 10.0503 0.0610
30.2200 10.0569 0.0577
30.2400 10.0636 0.0611
30.2600 10.0703 0.0633
30.2800 10.0770 0.0543
30.3000 10.0837 0.0623
30.3200 10.0903 0.0567
30.3400 10.0970 0.0545
30.3600 10.1037 0.0623
30.3800 10.1103 0.0523
30.4000 10.1169 0.0524
30.4200 10.1235 0.0643
30.4400 10.1302 0.0576
30.4600 10.1369 0.0537
30.4800 10.1436 0.0565
30.5000 10.1503 0.0524
30.5200 10.1570 0.0530
30.5400 10.1636 0.0591
30.5600 10.1702 0.0534
30.5800 10.1768 0.0561
30.6000 10.1835 0.0579
30.6200 10.1902 0.0495
30.6400 10.1970 0.0564
30.6600 10.2036 0.0525
30.6800 10.2103 0.0514
30.7000 10.2170 0.0547
30.7200 10.2236 0.0506
30.7400 10.2303 0.0548
30.7600 10.2369 0.0575
30.7800 10.2436 0.0493
30.8000 10.2503 0.0503
30.8200 10.2569 0.0525
30.8400 10.2636 0.0540
30.8600 10.2703 0.0493
30.8800 10.2770 0.0505
30.9000 10.2837 0.0505
30.9200 10.2903 0.0493
30.9400 10.2969 0.0541
30.9600 10.3035 0.0468
30.9800 10.3102 0.0558
31.0000 10.3170 0.0456
31.0200 10.3237 0.0505
31.0400 10.3303 0.0527
31.0600 10.3370 0.0450
31.0800 10.3436 0.0515
31.1000 10.3502 0.0499
31.1200 10.3568 0.0428
31.1400 10.3635 0.0512
31.1600 10.3702 0.0481
31.1800 10.3769 0.0380
31.2000 10.3836 0.0520
31.2200 10.3903 0.0527
31.2400 10.3970 0.0387
31.2600 10.4036 0.0521
31.2800 10.4103 0.0453
31.3000 10.4169 0.0416
31.3200 10.4235 0.0559
31.3400 10.4302 0.0446
31.3600 10.4369 0.0420
31.3800 10.4436 0.0524
31.4000 10.4503 0.0460
31.4200 10.4570 0.0366
31.4400 10.4637 0.0527
31.4600 10.4703 0.0437
31.4800 10.4769 0.0432
31.5000 10.4835 0.0529
31.5200 10.4902 0.0397
31.5400 10.4970 0.0433
31.5600 10.5037 0.0531
31.5800 10.5103 0.0354
31.6000 10.5170 0.0404
31.6200 10.5237 0.0472
31.6400 10.5303 0.0412
31.6600 10.5369 0.0421
31.6800 10.5435 0.0431
31.7000 10.5502 0.0451
31.7200 10.5570 0.0397
31.7400 10.5637 0.0439
31.7600 10.5703 0.0436
31.7800 10.5770 0.0421
31.8000 10.5837 0.0430
31.8200 10.5903 0.0409
31.8400 10.5969 0.0426
31.8600 10.6035 0.0465
31.8800 10.6102 0.0424
31.9000 10.6169 0.0404
31.9200 10.6236 0.0437
31.9400 10.6303 0.0445
31.9600 10.6370 0.0367
31.9800 10.6437 0.0385
32.0000 10.6502 0.0403
32.0200 10.6568 0.0392
32.0400 10.6635 0.0430
32.0600 10.6702 0.0417
32.0800 10.6769 0.0400
32.1000 10.6836 0.0418
32.1200 10.6903 0.0413
32.1400 10.6970 0.0399
32.1600 10.7037 0.0379
32.1800 10.7103 0.0373
32.2000 10.7169 0.0368
32.2200 10.7235 0.0417
32.2400 10.7302 0.0380
32.2600 10.7370 0.0363
32.2800 10.7437 0.0395
32.3000 10.7503 0.0384
32.3200 10.7570 0.0354
32.3400 10.7637 0.0365
32.3600 10.7703 0.0361
32.3800 10.7769 0.0399
32.4000 10.7836 0.0434
32.4200 10.7902 0.0346
32.4400 10.7969 0.0327
32.4600 10.8036 0.0415
32.4800 10.8103 0.0354
32.5000 10.8170 0.0327
32.5200 10.8237 0.0380
32.5400 10.8303 0.0339
32.5600 10.8369 0.0334
32.5800 10.8435 0.0410
32.6000 10.8502 0.0365
32.6200 10.8569 0.0357
32.6400 10.8636 0.0337
32.6600 10.8703 0.0350
32.6800 10.8770 0.0331
32.7000 10.8836 0.0402
32.7200 10.8903 0.0318
32.7400 10.8969 0.0289
32.7600 10.9035 0.0413
32.7800 10.9102 0.0333
32.8000 10.9169 0.0279
32.8200 10.9236 0.0353
32.8400 10.9303 0.0353
32.8600 10.9369 0.0292
32.8800 10.9436 0.0314
32.9000 10.9503 0.0321
32.9200 10.9569 0.0318
32.9400 10.9635 0.0301
32.9600 10.9702 0.0280
32.9800 10.9769 0.0317
33.0000 10.9836 0.0299
33.0200 10.9903 0.0283
33.0400 10.9970 0.0329
33.0600 11.0037 0.0268
33.0800 11.0103 0.0331
33.1000 11.0169 0.0295
33.1200 11.0235 0.0271
33.1400 11.0302 0.0333
33.1600 11.0369 0.0285
33.1800 11.0437 0.0259
33.2000 11.0503 0.0299
33.2200 11.0570 0.0311
33.2400 11.0637 0.0239
33.2600 11.0703 0.0278
33.2800 11.0769 0.0308
33.3000 11.0835 0.0277
33.3200 11.0902 0.0247
33.3400 11.0969 0.0264
33.3600 11.1036 0.0301
33.3800 11.1103 0.0287
33.4000 11.1170 0.0229
33.4200 11.1237 0.0255
33.4400 11.1303 0.0256
33.4600 11.1369 0.0263
33.4800 11.1435 0.0279
33.5000 11.1502 0.0241
33.5200 11.1569 0.0249
33.5400 11.1636 0.0246
33.5600 11.1703 0.0203
33.5800 11.1770 0.0282
33.6000 11.1836 0.0251
33.6200 11.1903 0.0146
33.6400 11.1969 0.0279
33.6600 11.2035 0.0236
33.6800 11.2102 0.0213
33.7000 11.2169 0.0256
33.7200 11.2237 0.0230
33.7400 11.2303 0.0190
33.7600 11.2370 0.0269
33.7800 11.2437 0.0231
33.8000 11.2504 0.0158
33.8200 11.2569 0.0269
33.8400 11.2636 0.0224
33.8600 11.2702 0.0194
33.8800 11.2769 0.0258
33.9000 11.2836 0.0231
33.9200 11.2903 0.0229
33.9400 11.2970 0.0225
33.9600 11.3037 0.0229
33.9800 11.3103 0.0202
34.0000 11.3169 0.0205
34.0200 11.3235 0.0236
34.0400 11.3302 0.0200
34.0600 11.3369 0.0247
34.0800 11.3436 0.0197
34.1000 11.3503 0.0158
34.1200 11.3570 0.0263
34.1400 11.3637 0.0227
34.1600 11.3703 0.0105
34.1800 11.3769 0.0274
34.2000 11.3835 0.0197
34.2200 11.3901 0.0148
34.2400 11.3969 0.0207
34.2600 11.4036 0.0164
34.2800 11.4103 0.0153
34.3000 11.4169 0.0242
34.3200 11.4236 0.0161
34.3400 11.4303 0.0146
34.3600 11.4369 0.0256
34.3800 11.4435 0.0172
34.4000 11.4502 0.0195
34.4200 11.4569 0.0206
34.4400 11.4636 0.0185
34.4600 11.4703 0.0175
34.4800 11.4770 0.0206
34.5000 11.4837 0.0181
34.5200 11.4904 0.0140
34.5400 11.4970 0.0188
34.5600 11.5036 0.0177
34.5800 11.5102 0.0135
34.6000 11.5169 0.0211
34.6200 11.5236 0.0186
34.6400 11.5303 0.0148
34.6600 11.5370 0.0191
34.6800 11.5437 0.0163
34.7000 11.5503 0.0120
34.7200 11.5569 0.0183
34.7400 11.5635 0.0199
34.7600 11.5702 0.0116
34.7800 11.5769 0.0198
34.8000 11.5836 0.0165
34.8200 11.5903 0.0092
34.8400 11.5969 0.0204
34.8600 11.6036 0.0168
34.8800 11.6103 0.0107
34.9000 11.6169 0.0159
34.9200 11.6235 0.0193
34.9400 11.6302 0.0135
34.9600 11.6369 0.0179
34.9800 11.6436 0.0145
35.0000 11.6503 0.0128
35.0200 11.6570 0.0176
35.0400 11.6637 0.0120
35.0600 11.6703 0.0124
35.0800 11.6770 0.0161
35.1000 11.6836 0.0118
35.1200 11.6902 0.0117
35.1400 11.6969 0.0126
35.1600 11.7036 0.0120
35.1800 11.7103 0.0122
35.2000 11.7170 0.0140
35.2200 11.7237 0.0102
35.2400 11.7303 0.0132
35.2600 11.7369 0.0104
35.2800 11.7435 0.0075
35.3000 11.7502 0.0149
35.3200 11.7569 0.0135
35.3400 11.7636 0.0051
35.3600 11.7703 0.0104
35.3800 11.7770 0.0167
35.4000 11.7837 0.0069
35.4200 11.7903 0.0096
35.4400 11.7970 0.0132
35.4600 11.8036 0.0071
35.4800 11.8102 0.0074
35.5000 11.8169 0.0179
35.5200 11.8236 0.0039
35.5400 11.8303 0.0076
35.5600 11.8370 0.0153
35.5800 11.8437 0.0032
35.6000 11.8503 0.0089
35.6200 11.8569 0.0151
35.6400 11.8635 -0.0010
35.6600 11.8701 0.0125
35.6800 11.8768 0.0146
35.7000 11.8836 0.0007
35.7200 11.8903 0.0160
35.7400 11.8970 0.0144
35.7600 11.9036 0.0000
35.7800 11.9103 0.0111
35.8000 11.9169 0.0112
35.8200 11.9235 0.0011
35.8400 11.9302 0.0144
35.8600 11.9369 0.0102
35.8800 11.9436 0.0035
35.9000 11.9503 0.0102
35.9200 11.9570 0.0056
35.9400 11.9637 0.0044
35.9600 11.9703 0.0111
35.9800 11.9770 0.0062
36.0000 11.9836 0.0022
36.0200 11.9902 0.0081
36.0400 11.9969 0.0081
36.0600 12.0036 0.0038
36.0800 12.0103 0.0055
36.1000 12.0170 0.0104
36.1200 12.0237 0.0046
36.1400 12.0303 0.0022
36.1600 12.0369 0.0065
36.1800 12.0435 0.0084
36.2000 12.0502 0.0055
36.2200 12.0569 0.0097
36.2400 12.0636 0.0022
36.2600 12.0703 0.0051
36.2800 12.0770 0.0055
36.3000 12.0837 0.0067
36.3200 12.0903 0.0079
36.3400 12.0969 0.0064
36.3600 12.1035 0.0020
36.3800 12.1102 0.0031
36.4000 12.1169 0.0085
36.4200 12.1236 -0.0008
36.4400 12.1302 0.0039
36.4600 12.1369 0.0091
36.4800 12.1436 0.0003
36.5000 12.1503 0.0037
36.5200 12.1570 0.0083
36.5400 12.1636 -0.0034
36.5600 12.1702 0.0051
36.5800 12.1769 0.0105
36.6000 12.1836 -0.0078
36.6200 12.1903 0.0014
36.6400 12.1970 0.0090
36.6600 12.2037 -0.0112
36.6800 12.2104 0.0028
36.7000 12.2170 0.0018
36.7200 12.2236 -0.0045
36.7400 12.2302 0.0051
36.7600 12.2369 0.0016
36.7800 12.2437 -0.0078
36.8000 12.2503 0.0012
36.8200 12.2570 0.0032
36.8400 12.2636 -0.0082
36.8600 12.2703 0.0069
36.8800 12.2769 -0.0010
36.9000 12.2835 -0.0088
36.9200 12.2902 0.0076
36.9400 12.2969 -0.0043
36.9600 12.3036 -0.0082
36.9800 12.3103 -0.0037
37.0000 12.3169 -0.0023
37.0200 12.3236 -0.0034
37.0400 12.3303 -0.0031
37.0600 12.3370 -0.0039
37.0800 12.3436 -0.0046
37.1000 12.3502 -0.0056
37.1200 12.3569 -0.0059
37.1400 12.3636 -0.0049
37.1600 12.3703 -0.0065
37.1800 12.3770 -0.0041
37.2000 12.3837 -0.0021
37.2200 12.3903 -0.0149
37.2400 12.3970 -0.0016
37.2600 12.4036 0.0004
37.2800 12.4102 -0.0142
37.3000 12.4169 -0.0033
37.3200 12.4236 -0.0035
37.3400 12.4303 -0.0147
37.3600 12.4370 -0.0019
37.3800 12.4437 -0.0040
37.4000 12.4504 -0.0145
37.4200 12.4570 -0.0041
37.4400 12.4636 -0.0084
37.4600 12.4702 -0.0077
37.4800 12.4769 -0.0014
37.5000 12.4836 -0.0145
37.5200 12.4903 -0.0122
37.5400 12.4970 -0.0033
37.5600 12.5037 -0.0135
37.5800 12.5104 -0.0117
37.6000 12.5170 -0.0082
37.6200 12.5236 -0.0121
37.6400 12.5302 -0.0086
37.6600 12.5369 -0.0068
37.6800 12.5436 -0.0168
37.7000 12.5503 -0.0060
37.7200 12.5569 -0.0078
37.7400 12.5636 -0.0154
37.7600 12.5703 -0.0123
37.7800 12.5769 -0.0055
37.8000 12.5835 -0.0148
37.8200 12.5901 -0.0130
37.8400 12.5968 -0.0071
37.8600 12.6035 -0.0117
37.8800 12.6102 -0.0113
37.9000 12.6169 -0.0109
37.9200 12.6236 -0.0114
37.9400 12.6303 -0.0105
37.9600 12.6370 -0.0154
37.9800 12.6436 -0.0142
38.0000 12.6502 -0.0092
38.0200 12.6569 -0.0132
38.0400 12.6636 -0.0113
38.0600 12.6703 -0.0173
38.0800 12.6770 -0.0144
38.1000 12.6837 -0.0057
38.1200 12.6904 -0.0142
38.1400 12.6970 -0.0169
38.1600 12.7036 -0.0093
38.1800 12.7102 -0.0163
38.2000 12.7169 -0.0180
38.2200 12.7236 -0.0129
38.2400 12.7303 -0.0142
38.2600 12.7370 -0.0158
38.2800 12.7437 -0.0124
38.3000 12.7504 -0.0158
38.3200 12.7570 -0.0209
38.3400 12.7636 -0.0063
38.3600 12.7702 -0.0152
38.3800 12.7769 -0.0203
38.4000 12.7836 -0.0103
38.4200 12.7903 -0.0173
38.4400 12.7970 -0.0220
38.4600 12.8036 -0.0112
38.4800 12.8103 -0.0174
38.5000 12.8170 -0.0230
38.5200 12.8236 -0.0153
38.5400 12.8302 -0.0104
38.5600 12.8368 -0.0214
38.5800 12.8436 -0.0113
38.6000 12.8503 -0.0169
38.6200 12.8569 -0.0243
38.6400 12.8636 -0.0118
38.6600 12.8703 -0.0166
38.6800 12.8770 -0.0324
38.7000 12.8836 -0.0147
38.7200 12.8902 -0.0114
38.7400 12.8969 -0.0255
38.7600 12.9036 -0.0162
38.7800 12.9103 -0.0140
38.8000 12.9170 -0.0252
38.8200 12.9237 -0.0190
38.8400 12.9304 -0.0136
38.8600 12.9370 -0.0286
38.8800 12.9436 -0.0164
38.9000 12.9502 -0.0145
38.9200 12.9569 -0.0296
38.9400 12.9636 -0.0176
38.9600 12.9703 -0.0149
38.9800 12.9770 -0.0312
39.0000 12.9837 -0.0135
39.0200 12.9903 -0.0168
39.0400 12.9970 -0.0363
39.0600 13.0036 -0.0141
39.0800 13.0102 -0.0202
39.1000 13.0169 -0.0286
39.1200 13.0235 -0.0146
39.1400 13.0302 -0.0256
39.1600 13.0369 -0.0329
39.1800 13.0436 -0.0130
39.2000 13.0503 -0.0282
39.2200 13.0570 -0.0266
39.2400 13.0636 -0.0192
39.2600 13.0702 -0.0274
39.2800 13.0768 -0.0276
39.3000 13.0835 -0.0189
39.3200 13.0903 -0.0320
39.3400 13.0970 -0.0277
39.3600 13.1036 -0.0229
39.3800 13.1103 -0.0339
39.4000 13.1170 -0.0243
39.4200 13.1236 -0.0265
39.4400 13.1302 -0.0297
39.4600 13.1369 -0.0206
39.4800 13.1436 -0.0329
39.5000 13.1503 -0.0273
39.5200 13.1570 -0.0256
39.5400 13.1636 -0.0339
39.5600 13.1703 -0.0230
39.5800 13.1770 -0.0341
39.6000 13.1836 -0.0325
39.6200 13.1902 -0.0244
39.6400 13.1969 -0.0299
39.6600 13.2036 -0.0308
39.6800 13.2103 -0.0273
39.7000 13.2170 -0.0339
39.7200 13.2237 -0.0286
39.7400 13.2303 -0.0306
39.7600 13.2370 -0.0326
39.7800 13.2436 -0.0313
39.8000 13.2502 -0.0321
39.8200 13.2569 -0.0304
39.8400 13.2636 -0.0315
39.8600 13.2703 -0.0307
39.8800 13.2770 -0.0321
39.9000 13.2837 -0.0342
39.9200 13.2903 -0.0302
39.9400 13.2970 -0.0328
39.9600 13.3036 -0.0367
39.9800 13.3102 -0.0303
40.0000 13.3168 -0.0314
40.0200 13.3235 -0.0340
40.0400 13.3303 -0.0363
40.0600 13.3369 -0.0327
40.0800 13.3436 -0.0345
40.1000 13.3503 -0.0373
40.1200 13.3569 -0.0323
40.1400 13.3636 -0.0366
40.1600 13.3702 -0.0349
40.1800 13.3769 -0.0338
40.2000 13.3836 -0.0325
40.2200 13.3903 -0.0372
40.2400 13.3970 -0.0386
40.2600 13.4037 -0.0381
40.2800 13.4104 -0.0345
40.3000 13.4171 -0.0384
40.3200 13.4236 -0.0370
40.3400 13.4302 -0.0351
40.3600 13.4369 -0.0373
40.3800 13.4436 -0.0392
40.4000 13.4503 -0.0350
40.4200 13.4570 -0.0384
40.4400 13.4637 -0.0408
40.4600 13.4703 -0.0311
40.4800 13.4770 -0.0427
40.5000 13.4836 -0.0407
40.5200 13.4902 -0.0284
40.5400 13.4969 -0.0424
40.5600 13.5035 -0.0364
40.5800 13.5103 -0.0341
40.6000 13.5169 -0.0452
40.6200 13.5236 -0.0327
40.6400 13.5303 -0.0327
40.6600 13.5370 -0.0436
40.6800 13.5436 -0.0359
40.7000 13.5502 -0.0302
40.7200 13.5568 -0.0457
40.7400 13.5635 -0.0369
40.7600 13.5702 -0.0341
40.7800 13.5769 -0.0436
40.8000 13.5836 -0.0404
40.8200 13.5903 -0.0413
40.8400 13.5970 -0.0389
40.8600 13.6036 -0.0413
40.8800 13.6102 -0.0371
40.9000 13.6168 -0.0382
40.9200 13.6235 -0.0430
40.9400 13.6303 -0.0325
40.9600 13.6370 -0.0408
40.9800 13.6437 -0.0455
41.0000 13.6503 -0.0354
41.0200 13.6570 -0.0430
41.0400 13.6636 -0.0467
41.0600 13.6702 -0.0389
41.0800 13.6769 -0.0339
41.1000 13.6836 -0.0475
41.1200 13.6903 -0.0409
41.1400 13.6970 -0.0390
41.1600 13.7036 -0.0446
41.1800 13.7103 -0.0347
41.2000 13.7170 -0.0506
41.2200 13.7237 -0.0418
41.2400 13.7302 -0.0363
41.2600 13.7369 -0.0455
41.2800 13.7435 -0.0424
41.3000 13.7502 -0.0433
41.3200 13.7569 -0.0418
41.3400 13.7636 -0.0461
41.3600 13.7703 -0.0406
41.3800 13.7770 -0.0430
41.4000 13.7836 -0.0447
41.4200 13.7902 -0.0442
41.4400 13.7968 -0.0409
41.4600 13.8035 -0.0439
41.4800 13.8102 -0.0499
41.5000 13.8169 -0.0383
41.5200 13.8236 -0.0479
41.5400 13.8303 -0.0525
41.5600 13.8370 -0.0403
41.5800 13.8436 -0.0475
41.6000 13.8503 -0.0521
41.6200 13.8569 -0.0391
41.6400 13.8636 -0.0465
41.6600 13.8703 -0.0546
41.6800 13.8769 -0.0388
41.7000 13.8836 -0.0476
41.7200 13.8903 -0.0597
41.7400 13.8970 -0.0396
41.7600 13.9037 -0.0469
41.7800 13.9102 -0.0542
41.8000 13.9169 -0.0384
41.8200 13.9236 -0.0538
41.8400 13.9303 -0.0509
41.8600 13.9370 -0.0449
41.8800 13.9437 -0.0514
41.9000 13.9504 -0.0480
41.9200 13.9570 -0.0479
41.9400 13.9636 -0.0551
41.9600 13.9702 -0.0526
41.9800 13.9769 -0.0440
42.0000 13.9836 -0.0558
42.0200 13.9903 -0.0536
42.0400 13.9970 -0.0458
42.0600 14.0036 -0.0541
42.0800 14.0103 -0.0501
42.1000 14.0170 -0.0507
42.1200 14.0236 -0.0530
42.1400 14.0302 -0.0490
42.1600 14.0368 -0.0543
42.1800 14.0435 -0.0526
42.2000 14.0502 -0.0531
42.2200 14.0569 -0.0555
42.2400 14.0636 -0.0565
42.2600 14.0703 -0.0475
42.2800 14.0770 -0.0535
42.3000 14.0836 -0.0581
42.3200 14.0902 -0.0471
42.3400 14.0969 -0.0549
42.3600 14.1035 -0.0527
42.3800 14.1103 -0.0548
42.4000 14.1170 -0.0547
42.4200 14.1237 -0.0516
42.4400 14.1304 -0.0556
42.4600 14.1370 -0.0529
42.4800 14.1437 -0.0536
42.5000 14.1503 -0.0625
42.5200 14.1569 -0.0493
42.5400 14.1636 -0.0508
42.5600 14.1703 -0.0618
42.5800 14.1770 -0.0544
42.6000 14.1837 -0.0561
42.6200 14.1903 -0.0632
42.6400 14.1970 -0.0498
42.6600 14.2036 -0.0546
42.6800 14.2102 -0.0634
42.7000 14.2168 -0.0475
42.7200 14.2235 -0.0514
42.7400 14.2302 -0.0652
42.7600 14.2369 -0.0475
42.7800 14.2436 -0.0565
42.8000 14.2503 -0.0633
42.8200 14.2570 -0.0531
42.8400 14.2637 -0.0558
42.8600 14.2702 -0.0600
42.8800 14.2768 -0.0533
42.9000 14.2835 -0.0542
42.9200 14.2902 -0.0623
42.9400 14.2969 -0.0554
42.9600 14.3036 -0.0565
42.9800 14.3103 -0.0632
43.0000 14.3170 -0.0497
43.0200 14.3236 -0.0588
43.0400 14.3303 -0.0645
43.0600 14.3369 -0.0512
43.0800 14.3436 -0.0572
43.1000 14.3503 -0.0608
43.1200 14.3570 -0.0524
43.1400 14.3637 -0.0574
43.1600 14.3703 -0.0618
43.1800 14.3770 -0.0549
43.2000 14.3837 -0.0581
43.2200 14.3903 -0.0626
43.2400 14.3969 -0.0510
43.2600 14.4035 -0.0644
43.2800 14.4102 -0.0632
43.3000 14.4170 -0.0537
43.3200 14.4237 -0.0592
43.3400 14.4304 -0.0636
43.3600 14.4370 -0.0570
43.3800 14.4437 -0.0578
43.4000 14.4503 -0.0683
43.4200 14.4569 -0.0566
43.4400 14.4635 -0.0604
43.4600 14.4702 -0.0638
43.4800 14.4769 -0.0554
43.5000 14.4836 -0.0692
43.5200 14.4903 -0.0631
43.5400 14.4970 -0.0564
43.5600 14.5036 -0.0689
43.5800 14.5103 -0.0651
43.6000 14.5169 -0.0557
43.6200 14.5235 -0.0629
43.6400 14.5302 -0.0685
43.6600 14.5369 -0.0559
43.6800 14.5436 -0.0663
43.7000 14.5503 -0.0639
43.7200 14.5570 -0.0611
43.7400 14.5636 -0.0693
43.7600 14.5703 -0.0649
43.7800 14.5769 -0.0578
43.8000 14.5835 -0.0723
43.8200 14.5902 -0.0688
43.8400 14.5969 -0.0535
43.8600 14.6036 -0.0727
43.8800 14.6103 -0.0724
43.9000 14.6170 -0.0542
43.9200 14.6237 -0.0730
43.9400 14.6303 -0.0712
43.9600 14.6369 -0.0575
43.9800 14.6435 -0.0692
44.0000 14.6503 -0.0710
44.0200 14.6570 -0.0619
44.0400 14.6637 -0.0730
44.0600 14.6703 -0.0683
44.0800 14.6770 -0.0588
44.1000 14.6837 -0.0767
44.1200 14.6903 -0.0681
44.1400 14.6969 -0.0615
44.1600 14.7035 -0.0733
44.1800 14.7102 -0.0729
44.2000 14.7169 -0.0603
44.2200 14.7236 -0.0723
44.2400 14.7303 -0.0756
44.2600 14.7370 -0.0636
44.2800 14.7437 -0.0730
44.3000 14.7503 -0.0833
44.3200 14.7569 -0.0601
44.3400 14.7635 -0.0651
44.3600 14.7702 -0.0950
44.3800 14.7769 -0.0611
44.4000 14.7836 -0.0696
44.4200 14.7903 -0.0980
44.4400 14.7969 -0.0554
44.4600 14.8036 -0.0622
44.4800 14.8102 -0.0984
44.5000 14.8168 -0.0605
44.5200 14.8235 -0.0712
44.5400 14.8302 -0.0944
44.5600 14.8370 -0.0437
44.5800 14.8437 -0.0790
44.6000 14.8503 -0.1112
44.6200 14.8570 -0.0339
44.6400 14.8637 -0.0771
44.6600 14.8703 -0.1224
44.6800 14.8769 -0.0362
44.7000 14.8836 -0.0751
44.7200 14.8903 -0.1142
44.7400 14.8970 -0.0479
44.7600 14.9037 -0.0836
44.7800 14.9104 -0.1004
44.8000 14.9170 -0.0378
44.8200 14.9237 -0.1080
44.8400 14.9303 -0.1006
44.8600 14.9369 -0.0257
44.8800 14.9435 -0.1070
44.9000 14.9502 -0.1009
44.9200 14.9569 -0.0323
44.9400 14.9636 -0.1075
44.9600 14.9703 -0.0924
44.9800 14.9770 -0.0463
45.0000 14.9836 -0.1146
45.0200 14.9903 -0.0681
45.0400 14.9969 -0.0514
45.0600 15.0035 -0.1267
45.0800 15.0102 -0.0624
45.1000 15.0169 -0.0588
45.1200 15.0236 -0.1132
45.1400 15.0303 -0.0662
45.1600 15.0370 -0.0786
45.1800 15.0437 -0.0978
45.2000 15.0503 -0.0628
45.2200 15.0569 -0.0954
45.2400 15.0636 -0.0835
45.2600 15.0702 -0.0626
45.2800 15.0769 -0.1112
45.3000 15.0836 -0.0785
45.3200 15.0903 -0.0571
45.3400 15.0970 -0.1083
45.3600 15.1037 -0.0728
45.3800 15.1103 -0.0749
45.4000 15.1169 -0.1035
45.4200 15.1235 -0.0614
45.4400 15.1302 -0.0839
45.4600 15.1370 -0.1071
45.4800 15.1437 -0.0572
45.5000 15.1503 -0.0961
45.5200 15.1570 -0.1031
45.5400 15.1637 -0.0561
45.5600 15.1703 -0.0922
45.5800 15.1769 -0.1011
45.6000 15.1835 -0.0638
45.6200 15.1902 -0.0895
45.6400 15.1970 -0.0998
45.6600 15.2036 -0.0687
45.6800 15.2103 -0.0865
45.7000 15.2170 -0.0911
45.7200 15.2236 -0.0838
45.7400 15.2303 -0.0904
45.7600 15.2369 -0.0830
45.7800 15.2435 -0.0837
45.8000 15.2502 -0.0942
45.8200 15.2569 -0.0847
45.8400 15.2636 -0.0851
45.8600 15.2703 -0.0887
45.8800 15.2770 -0.0881
45.9000 15.2837 -0.0870
45.9200 15.2903 -0.0896
45.9400 15.2969 -0.0917
45.9600 15.3035 -0.0959
45.9800 15.3102 -0.0806
46.0000 15.3169 -0.0868
46.0200 15.3236 -0.1044
46.0400 15.3303 -0.0843
46.0600 15.3370 -0.0895
46.0800 15.3437 -0.0951
46.1000 15.3503 -0.0819
46.1200 15.3569 -0.0956
46.1400 15.3636 -0.0970
46.1600 15.3703 -0.0840
46.1800 15.3770 -0.0994
46.2000 15.3837 -0.0962
46.2200 15.3903 -0.0786
46.2400 15.3970 -0.1027
46.2600 15.4037 -0.1017
46.2800 15.4103 -0.0819
46.3000 15.4169 -0.1018
46.3200 15.4235 -0.0887
46.3400 15.4302 -0.0865
46.3600 15.4369 -0.1049
46.3800 15.4436 -0.0881
46.4000 15.4503 -0.0932
46.4200 15.4570 -0.1023
46.4400 15.4637 -0.0914
46.4600 15.4703 -0.0926
46.4800 15.4769 -0.1061
46.5000 15.4835 -0.0867
46.5200 15.4902 -0.0963
46.5400 15.4969 -0.1027
46.5600 15.5036 -0.0875
46.5800 15.5103 -0.1035
46.6000 15.5170 -0.0972
46.6200 15.5236 -0.0926
46.6400 15.5303 -0.1007
46.6600 15.5369 -0.0953
46.6800 15.5435 -0.1002
46.7000 15.5502 -0.0956
46.7200 15.5569 -0.0979
46.7400 15.5636 -0.1069
46.7600 15.5703 -0.0883
46.7800 15.5770 -0.0981
46.8000 15.5837 -0.1115
46.8200 15.5904 -0.0907
46.8400 15.5970 -0.0945
46.8600 15.6036 -0.1097
46.8800 15.6102 -0.0896
46.9000 15.6169 -0.1018
46.9200 15.6236 -0.1125
46.9400 15.6303 -0.0873
46.9600 15.6370 -0.1037
46.9800 15.6437 -0.1117
47.0000 15.6503 -0.0903
47.0200 15.6569 -0.1043
47.0400 15.6635 -0.1095
47.0600 15.6702 -0.0929
47.0800 15.6769 -0.1032
47.1000 15.6836 -0.1047
47.1200 15.6903 -0.0962
47.1400 15.6970 -0.1099
47.1600 15.7037 -0.1046
47.1800 15.7103 -0.0946
47.2000 15.7169 -0.1144
47.2200 15.7235 -0.1031
47.2400 15.7302 -0.0964
47.2600 15.7369 -0.1118
47.2800 15.7436 -0.1126
47.3000 15.7503 -0.0932
47.3200 15.7569 -0.1099
47.3400 15.7636 -0.1126
47.3600 15.7703 -0.1004
47.3800 15.7769 -0.1129
47.4000 15.7835 -0.1098
47.4200 15.7902 -0.0984
47.4400 15.7969 -0.1149
47.4600 15.8036 -0.1126
47.4800 15.8103 -0.0956
47.5000 15.8170 -0.1104
47.5200 15.8237 -0.1114
47.5400 15.8303 -0.1044
47.5600 15.8369 -0.1120
47.5800 15.8435 -0.1038
47.6000 15.8502 -0.1062
47.6200 15.8569 -0.1179
47.6400 15.8637 -0.1050
47.6600 15.8704 -0.1060
47.6800 15.8770 -0.1139
47.7000 15.8837 -0.1099
47.7200 15.8903 -0.1064
47.7400 15.8969 -0.1139
47.7600 15.9035 -0.1136
47.7800 15.9102 -0.1029
47.8000 15.9169 -0.1089
47.8200 15.9236 -0.1135
47.8400 15.9303 -0.1077
47.8600 15.9370 -0.1085
47.8800 15.9436 -0.1168
47.9000 15.9503 -0.1107
47.9200 15.9569 -0.1139
47.9400 15.9635 -0.1137
47.9600 15.9702 -0.1094
47.9800 15.9769 -0.1131
48.0000 15.9836 -0.1226
48.0200 15.9903 -0.1065
48.0400 15.9970 -0.1144
48.0600 16.0037 -0.1232
48.0800 16.0103 -0.1056
48.1000 16.0169 -0.1105
48.1200 16.0235 -0.1268
48.1400 16.0302 -0.1088
48.1600 16.0369 -0.1110
48.1800 16.0437 -0.1271
48.2000 16.0504 -0.1106
48.2200 16.0570 -0.1101
48.2400 16.0637 -0.1221
48.2600 16.0703 -0.1133
48.2800 16.0769 -0.1157
48.3000 16.0836 -0.1217
48.3200 16.0902 -0.1099
48.3400 16.0969 -0.1157
48.3600 16.1036 -0.1236
48.3800 16.1103 -0.1133
48.4000 16.1170 -0.1189
48.4200 16.1237 -0.1209
48.4400 16.1303 -0.1112
48.4600 16.1369 -0.1225
48.4800 16.1435 -0.1182
48.5000 16.1502 -0.1168
48.5200 16.1569 -0.1244
48.5400 16.1636 -0.1164
48.5600 16.1703 -0.1196
48.5800 16.1770 -0.1237
48.6000 16.1837 -0.1201
48.6200 16.1903 -0.1202
48.6400 16.1969 -0.1272
48.6600 16.2035 -0.1168
48.6800 16.2102 -0.1220
48.7000 16.2169 -0.1217
48.7200 16.2236 -0.1224
48.7400 16.2303 -0.1248
48.7600 16.2369 -0.1197
48.7800 16.2436 -0.1244
48.8000 16.2503 -0.1248
48.8200 16.2569 -0.1248
48.8400 16.2635 -0.1239
48.8600 16.2702 -0.1229
48.8800 16.2769 -0.1265
48.9000 16.2836 -0.1272
48.9200 16.2903 -0.1269
48.9400 16.2970 -0.1264
48.9600 16.3037 -0.1318
48.9800 16.3104 -0.1255
49.0000 16.3170 -0.1266
49.0200 16.3236 -0.1305
49.0400 16.3302 -0.1221
49.0600 16.3369 -0.1274
49.0800 16.3436 -0.1288
49.1000 16.3503 -0.1275
49.1200 16.3570 -0.1317
49.1400 16.3637 -0.1287
49.1600 16.3703 -0.1339
49.1800 16.3769 -0.1341
49.2000 16.3835 -0.1262
49.2200 16.3902 -0.1339
49.2400 16.3969 -0.1327
49.2600 16.4036 -0.1298
49.2800 16.4103 -0.1346
49.3000 16.4169 -0.1328
49.3200 16.4236 -0.1322
49.3400 16.4303 -0.1342
49.3600 16.4369 -0.1365
49.3800 16.4435 -0.1304
49.4000 16.4502 -0.1350
49.4200 16.4569 -0.1349
49.4400 16.4636 -0.1327
49.4600 16.4703 -0.1403
49.4800 16.4770 -0.1343
49.5000 16.4837 -0.1321
49.5200 16.4903 -0.1452
49.5400 16.4970 -0.1343
49.5600 16.5036 -0.1338
49.5800 16.5102 -0.1452
49.6000 16.5169 -0.1290
49.6200 16.5236 -0.1336
49.6400 16.5303 -0.1505
49.6600 16.5370 -0.1324
49.6800 16.5437 -0.1372
49.7000 16.5503 -0.1490
49.7200 16.5569 -0.1350
49.7400 16.5635 -0.1414
49.7600 16.5702 -0.1411
49.7800 16.5769 -0.1387
49.8000 16.5836 -0.1472
49.8200 16.5903 -0.1443
49.8400 16.5970 -0.1329
49.8600 16.6037 -0.1491
49.8800 16.6104 -0.1430
49.9000 16.6170 -0.1341
49.9200 16.6236 -0.1512
49.9400 16.6302 -0.1439
49.9600 16.6369 -0.1337
49.9800 16.6436 -0.1490
50.0000 16.6503 -0.1422
50.0200 16.6570 -0.1417
50.0400 16.6637 -0.1467
50.0600 16.6704 -0.1406
50.0800 16.6770 -0.1449
50.1000 16.6835 -0.1441
50.1200 16.6902 -0.1431
50.1400 16.6968 -0.1459
50.1600 16.7036 -0.1464
50.1800 16.7103 -0.1421
50.2000 16.7170 -0.1465
50.2200 16.7236 -0.1413
50.2400 16.7303 -0.1500
50.2600 16.7369 -0.1486
50.2800 16.7435 -0.1371
50.3000 16.7502 -0.1454
50.3200 16.7569 -0.1468
50.3400 16.7636 -0.1356
50.3600 16.7703 -0.1541
50.3800 16.7770 -0.1464
50.4000 16.7837 -0.1385
50.4200 16.7903 -0.1549
50.4400 16.7970 -0.1435
50.4600 16.8036 -0.1375
50.4800 16.8102 -0.1531
50.5000 16.8169 -0.1445
50.5200 16.8236 -0.1412
50.5400 16.8303 -0.1602
50.5600 16.8370 -0.1406
50.5800 16.8437 -0.1411
50.6000 16.8504 -0.1617
50.6200 16.8570 -0.1429
50.6400 16.8636 -0.1438
50.6600 16.8702 -0.1569
50.6800 16.8769 -0.1407
50.7000 16.8836 -0.1512
50.7200 16.8903 -0.1588
50.7400 16.8970 -0.1432
50.7600 16.9037 -0.1467
50.7800 16.9103 -0.1589
50.8000 16.9170 -0.1447
50.8200 16.9236 -0.1485
50.8400 16.9302 -0.1606
50.8600 16.9369 -0.1421
50.8800 16.9436 -0.1496
50.9000 16.9502 -0.1579
50.9200 16.9569 -0.1482
50.9400 16.9636 -0.1507
50.9600 16.9703 -0.1577
50.9800 16.9769 -0.1488
51.0000 16.9836 -0.1520
51.0200 16.9902 -0.1545
51.0400 16.9969 -0.1505
51.0600 17.0036 -0.1531
51.0800 17.0103 -0.1575
51.1000 17.0170 -0.1554
51.1200 17.0237 -0.1506
51.1400 17.0304 -0.1566
51.1600 17.0370 -0.1539
51.1800 17.0436 -0.1503
51.2000 17.0502 -0.1559
51.2200 17.0569 -0.1548
51.2400 17.0636 -0.1498
51.2600 17.0703 -0.1580
51.2800 17.0770 -0.1554
51.3000 17.0837 -0.1532
51.3200 17.0903 -0.1586
51.3400 17.0970 -0.1566
51.3600 17.1036 -0.1519
51.3800 17.1102 -0.1603
51.4000 17.1169 -0.1539
51.4200 17.1236 -0.1512
51.4400 17.1303 -0.1626
51.4600 17.1369 -0.1554
51.4800 17.1436 -0.1526
51.5000 17.1503 -0.1620
51.5200 17.1570 -0.1538
51.5400 17.1636 -0.1589
51.5600 17.1702 -0.1658
51.5800 17.1768 -0.1501
51.6000 17.1836 -0.1560
51.6200 17.1903 -0.1663
51.6400 17.1970 -0.1585
51.6600 17.2037 -0.1578
51.6800 17.2103 -0.1674
51.7000 17.2170 -0.1603
51.7200 17.2236 -0.1616
51.7400 17.2302 -0.1625
51.7600 17.2369 -0.1613
51.7800 17.2436 -0.1627
51.8000 17.2503 -0.1615
51.8200 17.2570 -0.1596
51.8400 17.2637 -0.1613
51.8600 17.2703 -0.1633
51.8800 17.2770 -0.1661
51.9000 17.2836 -0.1627
51.9200 17.2902 -0.1646
51.9400 17.2969 -0.1634
51.9600 17.3036 -0.1670
51.9800 17.3103 -0.1647
52.0000 17.3170 -0.1615
52.0200 17.3237 -0.1728
52.0400 17.3303 -0.1641
52.0600 17.3370 -0.1668
52.0800 17.3436 -0.1630
52.1000 17.3502 -0.1681
52.1200 17.3568 -0.1673
52.1400 17.3635 -0.1647
52.1600 17.3703 -0.1647
52.1800 17.3770 -0.1704
52.2000 17.3836 -0.1677
52.2200 17.3903 -0.1651
52.2400 17.3970 -0.1671
52.2600 17.4036 -0.1652
52.2800 17.4102 -0.1683
52.3000 17.4168 -0.1688
52.3200 17.4235 -0.1636
52.3400 17.4302 -0.1741
52.3600 17.4369 -0.1714
52.3800 17.4436 -0.1601
52.4000 17.4503 -0.1764
52.4200 17.4570 -0.1758
52.4400 17.4636 -0.1634
52.4600 17.4702 -0.1728
52.4800 17.4769 -0.1757
52.5000 17.4836 -0.1638
52.5200 17.4903 -0.1762
52.5400 17.4970 -0.1711
52.5600 17.5037 -0.1687
52.5800 17.5104 -0.1810
52.6000 17.5170 -0.1716
52.6200 17.5236 -0.1673
52.6400 17.5302 -0.1782
52.6600 17.5369 -0.1731
52.6800 17.5436 -0.1655
52.7000 17.5503 -0.1808
52.7200 17.5570 -0.1770
52.7400 17.5637 -0.1683
52.7600 17.5704 -0.1802
52.7800 17.5770 -0.1749
52.8000 17.5836 -0.1683
52.8200 17.5902 -0.1796
52.8400 17.5968 -0.1678
52.8600 17.6036 -0.1773
52.8800 17.6103 -0.1809
52.9000 17.6170 -0.1706
52.9200 17.6236 -0.1741
52.9400 17.6303 -0.1818
52.9600 17.6370 -0.1736
52.9800 17.6436 -0.1755
53.0000 17.6502 -0.1767
53.0200 17.6569 -0.1736
53.0400 17.6636 -0.1773
53.0600 17.6703 -0.1772
53.0800 17.6769 -0.1764
53.1000 17.6836 -0.1818
53.1200 17.6903 -0.1752
53.1400 17.6970 -0.1755
53.1600 17.7036 -0.1847
53.1800 17.7102 -0.1732
53.2000 17.7169 -0.1810
53.2200 17.7236 -0.1868
53.2400 17.7303 -0.1739
53.2600 17.7370 -0.1786
53.2800 17.7437 -0.1894
53.3000 17.7504 -0.1765
53.3200 17.7570 -0.1810
53.3400 17.7636 -0.1841
53.3600 17.7702 -0.1699
53.3800 17.7769 -0.1881
53.4000 17.7836 -0.1874
53.4200 17.7903 -0.1759
53.4400 17.7970 -0.1862
53.4600 17.8037 -0.1843
53.4800 17.8103 -0.1746
53.5000 17.8170 -0.1890
53.5200 17.8236 -0.1876
53.5400 17.8302 -0.1718
53.5600 17.8369 -0.1838
53.5800 17.8435 -0.1878
53.6000 17.8502 -0.1739
53.6200 17.8569 -0.1882
53.6400 17.8636 -0.1859
53.6600 17.8703 -0.1726
53.6800 17.8770 -0.1946
53.7000 17.8836 -0.1813
53.7200 17.8902 -0.1792
53.7400 17.8968 -0.1946
53.7600 17.9035 -0.1809
53.7800 17.9102 -0.1791
53.8000 17.9169 -0.1926
53.8200 17.9236 -0.1795
53.8400 17.9303 -0.1852
53.8600 17.9370 -0.1868
53.8800 17.9436 -0.1801
53.9000 17.9502 -0.1865
53.9200 17.9569 -0.1857
53.9400 17.9636 -0.1827
53.9600 17.9703 -0.1848
53.9800 17.9770 -0.1824
54.0000 17.9836 -0.1914
54.0200 17.9903 -0.1841
54.0400 17.9970 -0.1847
54.0600 18.0037 -0.1897
54.0800 18.0102 -0.1839
54.1000 18.0169 -0.1874
54.1200 18.0235 -0.1876
54.1400 18.0302 -0.1836
54.1600 18.0370 -0.1898
54.1800 18.0436 -0.1962
54.2000 18.0503 -0.1783
54.2200 18.0570 -0.1867
54.2400 18.0636 -0.1991
54.2600 18.0702 -0.1792
54.2800 18.0769 -0.1853
54.3000 18.0836 -0.1984
54.3200 18.0903 -0.1823
54.3400 18.0970 -0.1898
54.3600 18.1037 -0.1951
54.3800 18.1103 -0.1823
54.4000 18.1170 -0.1940
54.4200 18.1236 -0.1968
54.4400 18.1302 -0.1838
54.4600 18.1368 -0.1933
54.4800 18.1435 -0.1956
54.5000 18.1502 -0.1826
54.5200 18.1569 -0.1943
54.5400 18.1636 -0.1972
54.5600 18.1703 -0.1831
54.5800 18.1770 -0.1982
54.6000 18.1836 -0.2012
54.6200 18.1902 -0.1781
54.6400 18.1968 -0.2022
54.6600 18.2035 -0.2024
54.6800 18.2103 -0.1821
54.7000 18.2170 -0.2012
54.7200 18.2237 -0.2029
54.7400 18.2304 -0.1842
54.7600 18.2371 -0.2036
54.7800 18.2437 -0.1981
54.8000 18.2502 -0.1870
54.8200 18.2569 -0.2042
54.8400 18.2636 -0.1937
54.8600 18.2703 -0.1911
54.8800 18.2770 -0.2067
54.9000 18.2837 -0.1993
54.9200 18.2903 -0.1925
54.9400 18.2970 -0.1992
54.9600 18.3036 -0.2011
54.9800 18.3102 -0.1934
55.0000 18.3169 -0.1941
55.0200 18.3235 -0.2067
55.0400 18.3302 -0.1933
55.0600 18.3369 -0.1964
55.0800 18.3436 -0.2036
55.1000 18.3503 -0.1949
55.1200 18.3570 -0.2004
55.1400 18.3636 -0.2045
55.1600 18.3702 -0.1954
55.1800 18.3768 -0.1973
55.2000 18.3835 -0.2075
55.2200 18.3902 -0.1957
55.2400 18.3969 -0.2030
55.2600 18.4036 -0.2074
55.2800 18.4103 -0.1966
55.3000 18.4170 -0.2014
55.3200 18.4236 -0.2100
55.3400 18.4302 -0.1955
55.3600 18.4369 -0.2066
55.3800 18.4436 -0.2071
55.4000 18.4503 -0.1974
55.4200 18.4570 -0.2073
55.4400 18.4637 -0.2109
55.4600 18.4703 -0.1946
55.4800 18.4770 -0.2028
55.5000 18.4837 -0.2110
55.5200 18.4903 -0.1998
55.5400 18.4969 -0.2075
55.5600 18.5036 -0.2101
55.5800 18.5103 -0.1998
55.6000 18.5170 -0.2118
55.6200 18.5236 -0.2088
55.6400 18.5303 -0.2023
55.6600 18.5370 -0.2139
55.6800 18.5437 -0.2088
55.7000 18.5503 -0.2047
55.7200 18.5569 -0.2110
55.7400 18.5635 -0.2075
55.7600 18.5702 -0.2056
55.7800 18.5769 -0.2132
55.8000 18.5836 -0.2107
55.8200 18.5903 -0.2096
55.8400 18.5970 -0.2131
55.8600 18.6036 -0.2118
55.8800 18.6102 -0.2112
55.9000 18.6168 -0.2075
55.9200 18.6235 -0.2107
55.9400 18.6302 -0.2127
55.9600 18.6369 -0.2108
55.9800 18.6436 -0.2150
56.0000 18.6503 -0.2122
56.0200 18.6570 -0.2031
56.0400 18.6636 -0.2178
56.0600 18.6703 -0.2124
56.0800 18.6769 -0.2027
56.1000 18.6836 -0.2178
56.1200 18.6903 -0.2103
56.1400 18.6970 -0.2036
56.1600 18.7036 -0.2194
56.1800 18.7103 -0.2090
56.2000 18.7170 -0.2096
56.2200 18.7237 -0.2235
56.2400 18.7303 -0.2051
56.2600 18.7369 -0.2070
56.2800 18.7435 -0.2248
56.3000 18.7503 -0.2039
56.3200 18.7570 -0.2127
56.3400 18.7637 -0.2186
56.3600 18.7703 -0.2061
56.3800 18.7770 -0.2206
56.4000 18.7836 -0.2188
56.4200 18.7903 -0.2053
56.4400 18.7969 -0.2177
56.4600 18.8036 -0.2191
56.4800 18.8103 -0.2100
56.5000 18.8170 -0.2176
56.5200 18.8236 -0.2174
56.5400 18.8303 -0.2130
56.5600 18.8370 -0.2136
56.5800 18.8436 -0.2158
56.6000 18.8502 -0.2167
56.6200 18.8568 -0.2144
56.6400 18.8635 -0.2112
56.6600 18.8702 -0.2217
56.6800 18.8769 -0.2193
56.7000 18.8836 -0.2109
56.7200 18.8903 -0.2216
56.7400 18.8970 -0.2148
56.7600 18.9036 -0.2150
56.7800 18.9102 -0.2252
56.8000 18.9169 -0.2113
56.8200 18.9235 -0.2169
56.8400 18.9303 -0.2330
56.8600 18.9370 -0.2099
56.8800 18.9437 -0.2215
56.9000 18.9504 -0.2305
56.9200 18.9570 -0.2088
56.9400 18.9637 -0.2231
56.9600 18.9703 -0.2258
56.9800 18.9769 -0.2146
57.0000 18.9836 -0.2252
57.0200 18.9903 -0.2221
57.0400 18.9970 -0.2193
57.0600 19.0036 -0.2270
57.0800 19.0103 -0.2267
57.1000 19.0170 -0.2207
57.1200 19.0236 -0.2244
57.1400 19.0302 -0.2297
57.1600 19.0368 -0.2251
57.1800 19.0435 -0.2237
57.2000 19.0502 -0.2248
57.2200 19.0569 -0.2286
57.2400 19.0636 -0.2185
57.2600 19.0703 -0.2302
57.2800 19.0770 -0.2290
57.3000 19.0837 -0.2197
57.3200 19.0903 -0.2346
57.3400 19.0968 -0.2259
57.3600 19.1035 -0.2202
57.3800 19.1102 -0.2381
57.4000 19.1169 -0.2251
57.4200 19.1236 -0.2212
57.4400 19.1303 -0.2401
57.4600 19.1370 -0.2250
57.4800 19.1436 -0.2238
57.5000 19.1502 -0.2376
57.5200 19.1569 -0.2227
57.5400 19.1636 -0.2281
57.5600 19.1703 -0.2377
57.5800 19.1770 -0.2269
57.6000 19.1836 -0.2315
57.6200 19.1903 -0.2303
57.6400 19.1970 -0.2304
57.6600 19.2037 -0.2327
57.6800 19.2103 -0.2357
57.7000 19.2169 -0.2330
57.7200 19.2236 -0.2288
57.7400 19.2303 -0.2345
57.7600 19.2370 -0.2356
57.7800 19.2437 -0.2298
57.8000 19.2504 -0.2301
57.8200 19.2570 -0.2412
57.8400 19.2637 -0.2271
57.8600 19.2703 -0.2368
57.8800 19.2769 -0.2426
57.9000 19.2835 -0.2259
57.9200 19.2902 -0.2417
57.9400 19.2969 -0.2381
57.9600 19.3036 -0.2267
57.9800 19.3103 -0.2456
58.0000 19.3170 -0.2407
58.0200 19.3236 -0.2264
58.0400 19.3302 -0.2470
58.0600 19.3368 -0.2399
58.0800 19.3435 -0.2280
58.1000 19.3502 -0.2500
58.1200 19.3569 -0.2377
58.1400 19.3636 -0.2311
58.1600 19.3703 -0.2509
58.1800 19.3769 -0.2374
58.2000 19.3836 -0.2362
58.2200 19.3903 -0.2450
58.2400 19.3969 -0.2351
58.2600 19.4036 -0.2431
58.2800 19.4102 -0.2514
58.3000 19.4169 -0.2344
58.3200 19.4236 -0.2434
58.3400 19.4303 -0.2482
58.3600 19.4370 -0.2367
58.3800 19.4437 -0.2435
58.4000 19.4503 -0.2479
58.4200 19.4569 -0.2355
58.4400 19.4635 -0.2420
58.4600 19.4702 -0.2482
58.4800 19.4769 -0.2442
58.5000 19.4837 -0.2446
58.5200 19.4903 -0.2439
58.5400 19.4970 -0.2436
58.5600 19.5037 -0.2466
58.5800 19.5103 -0.2446
58.6000 19.5169 -0.2425
58.6200 19.5235 -0.2408
58.6400 19.5302 -0.2477
58.6600 19.5370 -0.2465
58.6800 19.5436 -0.2389
58.7000 19.5503 -0.2500
58.7200 19.5570 -0.2473
58.7400 19.5637 -0.2339
58.7600 19.5703 -0.2490
58.7800 19.5769 -0.2498
58.8000 19.5835 -0.2404
58.8200 19.5902 -0.2513
58.8400 19.5969 -0.2472
58.8600 19.6036 -0.2376
58.8800 19.6103 -0.2515
58.9000 19.6169 -0.2501
58.9200 19.6236 -0.2447
58.9400 19.6303 -0.2617
58.9600 19.6369 -0.2479
58.9800 19.6435 -0.2412
59.0000 19.6502 -0.2621
59.0200 19.6569 -0.2463
59.0400 19.6636 -0.2484
59.0600 19.6703 -0.2596
59.0800 19.6770 -0.2445
59.1000 19.6837 -0.2497
59.1200 19.6903 -0.2662
59.1400 19.6969 -0.2485
59.1600 19.7036 -0.2505
59.1800 19.7103 -0.2616
59.2000 19.7170 -0.2461
59.2200 19.7237 -0.2571
59.2400 19.7303 -0.2626
59.2600 19.7370 -0.2536
59.2800 19.7437 -0.2616
59.3000 19.7502 -0.2678
