Raw Data
Time Displacement Force
(s) (mm) (N)
0.0000 0.0000 -0.0063
0.0200 0.0001 0.0041
0.0400 0.0020 0.0697
0.0600 0.0096 0.0677
0.0800 0.0215 -0.0248
0.1000 0.0340 -0.0104
0.1200 0.0466 0.0206
0.1400 0.0600 -0.0081
0.1600 0.0740 -0.0049
0.1800 0.0882 -0.0040
0.2000 0.1021 -0.0200
0.2200 0.1157 -0.0099
0.2400 0.1290 0.0030
0.2600 0.1423 -0.0157
0.2800 0.1556 -0.0002
0.3000 0.1690 0.0001
0.3200 0.1824 -0.0165
0.3400 0.1957 0.0066
0.3600 0.2091 -0.0099
0.3800 0.2225 -0.0098
0.4000 0.2358 0.0022
0.4200 0.2492 -0.0077
0.4400 0.2625 -0.0062
0.4600 0.2758 0.0014
0.4800 0.2892 -0.0071
0.5000 0.3025 -0.0087
0.5200 0.3158 -0.0004
0.5400 0.3291 -0.0064
0.5600 0.3424 -0.0069
0.5800 0.3558 0.0054
0.6000 0.3691 -0.0092
0.6200 0.3824 -0.0030
0.6400 0.3957 0.0014
0.6600 0.4091 -0.0075
0.6800 0.4224 -0.0017
0.7000 0.4357 0.0016
0.7200 0.4490 -0.0112
0.7400 0.4624 -0.0009
0.7600 0.4758 0.0028
0.7800 0.4892 -0.0091
0.8000 0.5025 0.0036
0.8200 0.5159 -0.0022
0.8400 0.5292 -0.0087
0.8600 0.5425 0.0057
0.8800 0.5558 -0.0045
0.9000 0.5691 -0.0015
0.9200 0.5824 0.0044
0.9400 0.5958 -0.0080
0.9600 0.6091 0.0052
0.9800 0.6224 -0.0015
1.0000 0.6357 -0.0012
1.0200 0.6491 0.0008
1.0400 0.6624 -0.0044
1.0600 0.6758 -0.0003
1.0800 0.6891 0.0017
1.1000 0.7025 -0.0042
1.1200 0.7159 0.0034
1.1400 0.7292 0.0039
1.1600 0.7425 -0.0039
1.1800 0.7558 -0.0004
1.2000 0.7692 0.0068
1.2200 0.7825 -0.0029
1.2400 0.7958 0.0028
1.2600 0.8091 0.0048
1.2800 0.8225 -0.0034
1.3000 0.8358 0.0018
1.3200 0.8491 0.0017
1.3400 0.8624 0.0024
1.3600 0.8757 0.0074
1.3800 0.8891 0.0020
1.4000 0.9024 0.0019
1.4200 0.9157 0.0026
1.4400 0.9291 0.0061
1.4600 0.9425 0.0046
1.4800 0.9559 -0.0012
1.5000 0.9692 0.0031
1.5200 0.9825 0.0060
1.5400 0.9958 0.0038
1.5600 1.0092 0.0049
1.5800 1.0225 0.0009
1.6000 1.0358 0.0053
1.6200 1.0491 0.0077
1.6400 1.0624 0.0078
1.6600 1.0758 0.0025
1.6800 1.0891 0.0059
1.7000 1.1024 0.0009
1.7200 1.1157 0.0049
1.7400 1.1291 0.0078
1.7600 1.1425 0.0039
1.7800 1.1558 0.0030
1.8000 1.1692 0.0048
1.8200 1.1825 0.0065
1.8400 1.1959 0.0020
1.8600 1.2092 0.0080
1.8800 1.2225 0.0046
1.9000 1.2358 0.0013
1.9200 1.2491 0.0096
1.9400 1.2625 0.0067
1.9600 1.2758 0.0069
1.9800 1.2891 0.0151
2.0000 1.3025 0.0034
2.0200 1.3158 -0.0009
2.0400 1.3291 0.0131
2.0600 1.3424 0.0039
2.0800 1.3558 0.0030
2.1000 1.3691 0.0172
2.1200 1.3824 0.0002
2.1400 1.3958 0.0059
2.1600 1.4091 0.0170
2.1800 1.4224 0.0053
2.2000 1.4358 0.0057
2.2200 1.4492 0.0123
2.2400 1.4625 0.0050
2.2600 1.4758 0.0084
2.2800 1.4892 0.0158
2.3000 1.5025 0.0021
2.3200 1.5158 0.0056
2.3400 1.5292 0.0169
2.3600 1.5425 0.0036
2.3800 1.5558 0.0055
2.4000 1.5692 0.0163
2.4200 1.5825 0.0092
2.4400 1.5957 0.0047
2.4600 1.6091 0.0157
2.4800 1.6224 0.0053
2.5000 1.6358 0.0077
2.5200 1.6491 0.0224
2.5400 1.6625 0.0037
2.5600 1.6758 0.0034
2.5800 1.6892 0.0209
2.6000 1.7025 0.0076
2.6200 1.7158 0.0059
2.6400 1.7292 0.0215
2.6600 1.7425 0.0102
2.6800 1.7558 0.0099
2.7000 1.7691 0.0231
2.7200 1.7824 0.0145
2.7400 1.7958 0.0146
2.7600 1.8091 0.0260
2.7800 1.8224 0.0142
2.8000 1.8357 0.0179
2.8200 1.8491 0.0295
2.8400 1.8624 0.0148
2.8600 1.8758 0.0202
2.8800 1.8891 0.0319
2.9000 1.9025 0.0195
2.9200 1.9158 0.0231
2.9400 1.9292 0.0358
2.9600 1.9425 0.0228
2.9800 1.9558 0.0276
3.0000 1.9692 0.0395
3.0200 1.9826 0.0214
3.0400 1.9959 0.0331
3.0600 2.0092 0.0446
3.0800 2.0225 0.0293
3.1000 2.0358 0.0425
3.1200 2.0491 0.0462
3.1400 2.0624 0.0373
3.1600 2.0757 0.0517
3.1800 2.0891 0.0560
3.2000 2.1024 0.0438
3.2200 2.1158 0.0568
3.2400 2.1291 0.0638
3.2600 2.1424 0.0560
3.2800 2.1558 0.0668
3.3000 2.1692 0.0681
3.3200 2.1825 0.0623
3.3400 2.1959 0.0718
3.3600 2.2092 0.0774
3.3800 2.2226 0.0755
3.4000 2.2358 0.0796
3.4200 2.2491 0.0874
3.4400 2.2624 0.0806
3.4600 2.2758 0.0894
3.4800 2.2891 0.0944
3.5000 2.3025 0.0896
3.5200 2.3158 0.0971
3.5400 2.3291 0.1013
3.5600 2.3424 0.1020
3.5800 2.3558 0.1053
3.6000 2.3691 0.1098
3.6200 2.3825 0.1074
3.6400 2.3959 0.1138
3.6600 2.4092 0.1161
3.6800 2.4225 0.1141
3.7000 2.4358 0.1243
3.7200 2.4492 0.1226
3.7400 2.4625 0.1205
3.7600 2.4758 0.1287
3.7800 2.4891 0.1333
3.8000 2.5024 0.1354
3.8200 2.5158 0.1335
3.8400 2.5291 0.1381
3.8600 2.5424 0.1430
3.8800 2.5557 0.1387
3.9000 2.5691 0.1460
3.9200 2.5824 0.1482
3.9400 2.5958 0.1447
3.9600 2.6091 0.1557
3.9800 2.6224 0.1575
4.0000 2.6358 0.1513
4.0200 2.6492 0.1616
4.0400 2.6625 0.1593
4.0600 2.6758 0.1567
4.0800 2.6891 0.1721
4.1000 2.7025 0.1652
4.1200 2.7158 0.1648
4.1400 2.7292 0.1792
4.1600 2.7425 0.1671
4.1800 2.7559 0.1755
4.2000 2.7692 0.1823
4.2200 2.7824 0.1698
4.2400 2.7957 0.1855
4.2600 2.8091 0.1944
4.2800 2.8224 0.1740
4.3000 2.8357 0.1938
4.3200 2.8491 0.1984
4.3400 2.8624 0.1777
4.3600 2.8758 0.2043
4.3800 2.8892 0.1957
4.4000 2.9025 0.1879
4.4200 2.9159 0.2102
4.4400 2.9292 0.1979
4.4600 2.9426 0.1969
4.4800 2.9559 0.2186
4.5000 2.9691 0.2056
4.5200 2.9824 0.2065
4.5400 2.9958 0.2211
4.5600 3.0091 0.2084
4.5800 3.0224 0.2143
4.6000 3.0357 0.2273
4.6200 3.0491 0.2135
4.6400 3.0624 0.2213
4.6600 3.0758 0.2260
4.6800 3.0891 0.2218
4.7000 3.1024 0.2293
4.7200 3.1158 0.2329
4.7400 3.1292 0.2264
4.7600 3.1425 0.2299
4.7800 3.1559 0.2391
4.8000 3.1692 0.2333
4.8200 3.1826 0.2388
4.8400 3.1959 0.2398
4.8600 3.2091 0.2380
4.8800 3.2224 0.2492
4.9000 3.2358 0.2487
4.9200 3.2491 0.2421
4.9400 3.2624 0.2482
4.9600 3.2757 0.2576
4.9800 3.2891 0.2493
5.0000 3.3024 0.2498
5.0200 3.3158 0.2619
5.0400 3.3291 0.2509
5.0600 3.3425 0.2569
5.0800 3.3558 0.2696
5.1000 3.3692 0.2574
5.1200 3.3825 0.2645
5.1400 3.3958 0.2703
5.1600 3.4092 0.2601
5.1800 3.4225 0.2669
5.2000 3.4359 0.2735
5.2200 3.4492 0.2684
5.2400 3.4625 0.2734
5.2600 3.4758 0.2818
5.2800 3.4891 0.2696
5.3000 3.5024 0.2801
5.3200 3.5157 0.2872
5.3400 3.5291 0.2767
5.3600 3.5424 0.2829
5.3800 3.5558 0.2854
5.4000 3.5691 0.2793
5.4200 3.5825 0.2958
5.4400 3.5958 0.2898
5.4600 3.6092 0.2864
5.4800 3.6225 0.2976
5.5000 3.6358 0.2931
5.5200 3.6492 0.2944
5.5400 3.6625 0.3047
5.5600 3.6758 0.2963
5.5800 3.6891 0.2966
5.6000 3.7024 0.3070
5.6200 3.7158 0.3033
5.6400 3.7291 0.3047
5.6600 3.7424 0.3076
5.6800 3.7558 0.3083
5.7000 3.7691 0.3093
5.7200 3.7824 0.3102
5.7400 3.7958 0.3127
5.7600 3.8091 0.3124
5.7800 3.8224 0.3201
5.8000 3.8358 0.3187
5.8200 3.8492 0.3165
5.8400 3.8625 0.3185
5.8600 3.8758 0.3224
5.8800 3.8892 0.3239
5.9000 3.9025 0.3238
5.9200 3.9159 0.3282
5.9400 3.9292 0.3222
5.9600 3.9425 0.3344
5.9800 3.9558 0.3313
6.0000 3.9691 0.3241
6.0200 3.9824 0.3392
6.0400 3.9958 0.3360
6.0600 4.0091 0.3295
6.0800 4.0224 0.3430
6.1000 4.0358 0.3376
6.1200 4.0491 0.3330
6.1400 4.0624 0.3447
6.1600 4.0758 0.3461
6.1800 4.0892 0.3370
6.2000 4.1025 0.3472
6.2200 4.1158 0.3452
6.2400 4.1291 0.3454
6.2600 4.1425 0.3552
6.2800 4.1558 0.3471
6.3000 4.1692 0.3475
6.3200 4.1825 0.3625
6.3400 4.1958 0.3515
6.3600 4.2092 0.3537
6.3800 4.2225 0.3632
6.4000 4.2358 0.3567
6.4200 4.2490 0.3638
6.4400 4.2624 0.3629
6.4600 4.2757 0.3662
6.4800 4.2891 0.3588
6.5000 4.3024 0.3693
6.5200 4.3158 0.3708
6.5400 4.3292 0.3666
6.5600 4.3426 0.3677
6.5800 4.3559 0.3754
6.6000 4.3692 0.3732
6.6200 4.3825 0.3695
6.6400 4.3959 0.3811
6.6600 4.4092 0.3735
6.6800 4.4224 0.3747
6.7000 4.4358 0.3850
6.7200 4.4491 0.3772
6.7400 4.4624 0.3814
6.7600 4.4757 0.3867
6.7800 4.4891 0.3809
6.8000 4.5024 0.3838
6.8200 4.5158 0.3943
6.8400 4.5291 0.3796
6.8600 4.5425 0.3872
6.8800 4.5558 0.4008
6.9000 4.5692 0.3818
6.9200 4.5825 0.3920
6.9400 4.5958 0.4013
6.9600 4.6091 0.3860
6.9800 4.6225 0.4020
7.0000 4.6358 0.3970
7.0200 4.6491 0.3881
7.0400 4.6624 0.4074
7.0600 4.6758 0.4045
7.0800 4.6891 0.3920
7.1000 4.7025 0.4116
7.1200 4.7158 0.4060
7.1400 4.7291 0.3961
7.1600 4.7424 0.4174
7.1800 4.7558 0.4070
7.2000 4.7691 0.4022
7.2200 4.7825 0.4145
7.2400 4.7958 0.4103
7.2600 4.8092 0.4070
7.2800 4.8225 0.4197
7.3000 4.8358 0.4183
7.3200 4.8491 0.4115
7.3400 4.8625 0.4199
7.3600 4.8759 0.4183
7.3800 4.8892 0.4120
7.4000 4.9025 0.4286
7.4200 4.9158 0.4225
7.4400 4.9291 0.4143
7.4600 4.9425 0.4298
7.4800 4.9558 0.4294
7.5000 4.9691 0.4197
7.5200 4.9824 0.4372
7.5400 4.9958 0.4309
7.5600 5.0091 0.4242
7.5800 5.0224 0.4378
7.6000 5.0358 0.4359
7.6200 5.0492 0.4284
7.6400 5.0625 0.4409
7.6600 5.0759 0.4323
7.6800 5.0892 0.4296
7.7000 5.1025 0.4434
7.7200 5.1159 0.4386
7.7400 5.1292 0.4347
7.7600 5.1424 0.4494
7.7800 5.1558 0.4436
7.8000 5.1691 0.4341
7.8200 5.1825 0.4539
7.8400 5.1958 0.4438
7.8600 5.2091 0.4436
7.8800 5.2224 0.4580
7.9000 5.2358 0.4404
7.9200 5.2491 0.4513
7.9400 5.2624 0.4619
7.9600 5.2758 0.4477
7.9800 5.2892 0.4526
8.0000 5.3025 0.4563
8.0200 5.3158 0.4572
8.0400 5.3292 0.4570
8.0600 5.3425 0.4606
8.0800 5.3559 0.4532
8.1000 5.3692 0.4603
8.1200 5.3825 0.4617
8.1400 5.3958 0.4655
8.1600 5.4091 0.4657
8.1800 5.4225 0.4656
8.2000 5.4358 0.4704
8.2200 5.4491 0.4639
8.2400 5.4624 0.4657
8.2600 5.4757 0.4721
8.2800 5.4891 0.4637
8.3000 5.5025 0.4724
8.3200 5.5158 0.4752
8.3400 5.5292 0.4685
8.3600 5.5425 0.4752
8.3800 5.5558 0.4788
8.4000 5.5691 0.4739
8.4200 5.5825 0.4786
8.4400 5.5959 0.4764
8.4600 5.6092 0.4793
8.4800 5.6225 0.4818
8.5000 5.6358 0.4777
8.5200 5.6491 0.4829
8.5400 5.6625 0.4841
8.5600 5.6758 0.4822
8.5800 5.6891 0.4865
8.6000 5.7024 0.4893
8.6200 5.7158 0.4851
8.6400 5.7291 0.4855
8.6600 5.7424 0.4915
8.6800 5.7558 0.4926
8.7000 5.7692 0.4905
8.7200 5.7825 0.4921
8.7400 5.7958 0.4923
8.7600 5.8092 0.4944
8.7800 5.8225 0.4971
8.8000 5.8359 0.4953
8.8200 5.8492 0.4953
8.8400 5.8624 0.5003
8.8600 5.8757 0.4987
8.8800 5.8891 0.5005
8.9000 5.9024 0.5027
8.9200 5.9157 0.5018
8.9400 5.9291 0.5025
8.9600 5.9424 0.5057
8.9800 5.9558 0.5031
9.0000 5.9692 0.5087
9.0200 5.9825 0.5090
9.0400 5.9958 0.5030
9.0600 6.0092 0.5050
9.0800 6.0225 0.5130
9.1000 6.0358 0.5065
9.1200 6.0491 0.5114
9.1400 6.0625 0.5139
9.1600 6.0758 0.5128
9.1800 6.0892 0.5183
9.2000 6.1025 0.5153
9.2200 6.1158 0.5144
9.2400 6.1292 0.5240
9.2600 6.1425 0.5133
9.2800 6.1558 0.5158
9.3000 6.1691 0.5269
9.3200 6.1824 0.5191
9.3400 6.1958 0.5173
9.3600 6.2091 0.5266
9.3800 6.2224 0.5228
9.4000 6.2357 0.5216
9.4200 6.2491 0.5285
9.4400 6.2625 0.5222
9.4600 6.2758 0.5252
9.4800 6.2891 0.5326
9.5000 6.3025 0.5277
9.5200 6.3159 0.5287
9.5400 6.3292 0.5298
9.5600 6.3425 0.5332
9.5800 6.3558 0.5308
9.6000 6.3691 0.5392
9.6200 6.3825 0.5384
9.6400 6.3958 0.5295
9.6600 6.4091 0.5414
9.6800 6.4224 0.5383
9.7000 6.4358 0.5324
9.7200 6.4491 0.5442
9.7400 6.4624 0.5383
9.7600 6.4758 0.5337
9.7800 6.4892 0.5505
9.8000 6.5025 0.5379
9.8200 6.5158 0.5361
9.8400 6.5292 0.5554
9.8600 6.5425 0.5416
9.8800 6.5559 0.5401
9.9000 6.5692 0.5544
9.9200 6.5825 0.5437
9.9400 6.5958 0.5481
9.9600 6.6091 0.5556
9.9800 6.6225 0.5453
10.0000 6.6358 0.5476
10.0200 6.6491 0.5598
10.0400 6.6624 0.5517
10.0600 6.6758 0.5515
10.0800 6.6891 0.5587
10.1000 6.7024 0.5523
10.1200 6.7158 0.5562
10.1400 6.7291 0.5594
10.1600 6.7425 0.5540
10.1800 6.7558 0.5617
10.2000 6.7692 0.5625
10.2200 6.7825 0.5591
10.2400 6.7959 0.5595
10.2600 6.8092 0.5614
10.2800 6.8225 0.5640
10.3000 6.8358 0.5625
10.3200 6.8491 0.5686
10.3400 6.8625 0.5689
10.3600 6.8758 0.5630
10.3800 6.8891 0.5717
10.4000 6.9024 0.5728
10.4200 6.9157 0.5645
10.4400 6.9291 0.5738
10.4600 6.9424 0.5749
10.4800 6.9558 0.5691
10.5000 6.9692 0.5752
10.5200 6.9825 0.5770
10.5400 6.9959 0.5718
10.5600 7.0092 0.5797
10.5800 7.0225 0.5809
10.6000 7.0358 0.5756
10.6200 7.0492 0.5802
10.6400 7.0625 0.5815
10.6600 7.0758 0.5788
10.6800 7.0891 0.5855
10.7000 7.1025 0.5802
10.7200 7.1158 0.5818
10.7400 7.1291 0.5870
10.7600 7.1424 0.5882
10.7800 7.1558 0.5821
10.8000 7.1691 0.5881
10.8200 7.1824 0.5869
10.8400 7.1958 0.5860
10.8600 7.2091 0.5926
10.8800 7.2225 0.5918
10.9000 7.2358 0.5855
10.9200 7.2491 0.5951
10.9400 7.2625 0.5912
10.9600 7.2758 0.5899
10.9800 7.2892 0.6009
11.0000 7.3025 0.5918
11.0200 7.3158 0.5936
11.0400 7.3291 0.6083
11.0600 7.3425 0.5927
11.0800 7.3558 0.5966
11.1000 7.3691 0.6070
11.1200 7.3824 0.5928
11.1400 7.3958 0.6032
11.1600 7.4091 0.6059
11.1800 7.4225 0.5967
11.2000 7.4358 0.6030
11.2200 7.4491 0.6120
11.2400 7.4625 0.5959
11.2600 7.4758 0.6035
11.2800 7.4891 0.6130
11.3000 7.5024 0.5981
11.3200 7.5158 0.6120
11.3400 7.5292 0.6093
11.3600 7.5425 0.6017
11.3800 7.5558 0.6160
11.4000 7.5692 0.6147
11.4200 7.5825 0.6077
11.4400 7.5958 0.6147
11.4600 7.6091 0.6174
11.4800 7.6224 0.6100
11.5000 7.6357 0.6179
11.5200 7.6491 0.6173
11.5400 7.6624 0.6142
11.5600 7.6758 0.6182
11.5800 7.6891 0.6198
11.6000 7.7025 0.6198
11.6200 7.7159 0.6188
11.6400 7.7292 0.6194
11.6600 7.7425 0.6241
11.6800 7.7559 0.6188
11.7000 7.7692 0.6241
11.7200 7.7825 0.6229
11.7400 7.7958 0.6230
11.7600 7.8091 0.6318
11.7800 7.8225 0.6264
11.8000 7.8358 0.6233
11.8200 7.8491 0.6319
11.8400 7.8624 0.6286
11.8600 7.8757 0.6259
11.8800 7.8891 0.6342
11.9000 7.9024 0.6287
11.9200 7.9158 0.6265
11.9400 7.9291 0.6410
11.9600 7.9425 0.6285
11.9800 7.9559 0.6270
12.0000 7.9692 0.6427
12.0200 7.9825 0.6320
12.0400 7.9958 0.6322
12.0600 8.0092 0.6412
12.0800 8.0225 0.6338
12.1000 8.0358 0.6374
12.1200 8.0491 0.6496
12.1400 8.0624 0.6333
12.1600 8.0758 0.6418
12.1800 8.0891 0.6500
12.2000 8.1024 0.6342
12.2200 8.1157 0.6473
12.2400 8.1291 0.6509
12.2600 8.1424 0.6362
12.2800 8.1558 0.6512
12.3000 8.1691 0.6486
12.3200 8.1825 0.6387
12.3400 8.1958 0.6510
12.3600 8.2092 0.6466
12.3800 8.2225 0.6436
12.4000 8.2358 0.6573
12.4200 8.2492 0.6459
12.4400 8.2625 0.6431
12.4600 8.2758 0.6574
12.4800 8.2891 0.6465
12.5000 8.3025 0.6523
12.5200 8.3158 0.6575
12.5400 8.3291 0.6504
12.5600 8.3424 0.6565
12.5800 8.3557 0.6564
12.6000 8.3691 0.6481
12.6200 8.3824 0.6585
12.6400 8.3958 0.6614
12.6600 8.4091 0.6513
12.6800 8.4225 0.6631
12.7000 8.4359 0.6616
12.7200 8.4492 0.6540
12.7400 8.4625 0.6649
12.7600 8.4758 0.6622
12.7800 8.4892 0.6582
12.8000 8.5025 0.6651
12.8200 8.5158 0.6657
12.8400 8.5291 0.6616
12.8600 8.5424 0.6655
12.8800 8.5558 0.6609
12.9000 8.5691 0.6662
12.9200 8.5824 0.6653
12.9400 8.5958 0.6667
12.9600 8.6091 0.6688
12.9800 8.6224 0.6679
13.0000 8.6358 0.6706
13.0200 8.6491 0.6680
13.0400 8.6625 0.6699
13.0600 8.6759 0.6712
13.0800 8.6892 0.6682
13.1000 8.7025 0.6758
13.1200 8.7158 0.6758
13.1400 8.7292 0.6721
13.1600 8.7425 0.6712
13.1800 8.7558 0.6814
13.2000 8.7691 0.6722
13.2200 8.7825 0.6713
13.2400 8.7958 0.6844
13.2600 8.8091 0.6700
13.2800 8.8224 0.6762
13.3000 8.8358 0.6864
13.3200 8.8491 0.6711
13.3400 8.8625 0.6784
13.3600 8.8758 0.6857
13.3800 8.8891 0.6762
13.4000 8.9025 0.6796
13.4200 8.9159 0.6845
13.4400 8.9292 0.6791
13.4600 8.9425 0.6846
13.4800 8.9558 0.6865
13.5000 8.9692 0.6767
13.5200 8.9825 0.6905
13.5400 8.9958 0.6841
13.5600 9.0091 0.6806
13.5800 9.0225 0.6945
13.6000 9.0358 0.6870
13.6200 9.0491 0.6847
13.6400 9.0624 0.6969
13.6600 9.0757 0.6885
13.6800 9.0891 0.6874
13.7000 9.1024 0.6942
13.7200 9.1157 0.6909
13.7400 9.1291 0.6944
13.7600 9.1425 0.6952
13.7800 9.1559 0.6904
13.8000 9.1692 0.6937
13.8200 9.1825 0.6931
13.8400 9.1959 0.6995
13.8600 9.2092 0.6940
13.8800 9.2225 0.6981
13.9000 9.2358 0.6993
13.9200 9.2491 0.6958
13.9400 9.2624 0.7004
13.9600 9.2757 0.7028
13.9800 9.2891 0.6988
14.0000 9.3024 0.7010
14.0200 9.3158 0.7043
14.0400 9.3291 0.6951
14.0600 9.3425 0.7038
14.0800 9.3558 0.7087
14.1000 9.3691 0.6968
14.1200 9.3825 0.7088
14.1400 9.3959 0.7072
14.1600 9.4092 0.6977
14.1800 9.4225 0.7091
14.2000 9.4358 0.7128
14.2200 9.4492 0.7020
14.2400 9.4625 0.7115
14.2600 9.4758 0.7125
14.2800 9.4891 0.7004
14.3000 9.5024 0.7150
14.3200 9.5158 0.7139
14.3400 9.5291 0.7052
14.3600 9.5424 0.7160
14.3800 9.5557 0.7173
14.4000 9.5691 0.7095
14.4200 9.5825 0.7148
14.4400 9.5958 0.7190
14.4600 9.6091 0.7140
14.4800 9.6225 0.7128
14.5000 9.6358 0.7171
14.5200 9.6492 0.7109
14.5400 9.6625 0.7230
14.5600 9.6758 0.7183
14.5800 9.6892 0.7151
14.6000 9.7025 0.7214
14.6200 9.7158 0.7203
14.6400 9.7291 0.7189
14.6600 9.7425 0.7202
14.6800 9.7558 0.7266
14.7000 9.7691 0.7148
14.7200 9.7824 0.7240
14.7400 9.7957 0.7272
14.7600 9.8091 0.7178
14.7800 9.8225 0.7241
14.8000 9.8358 0.7239
14.8200 9.8491 0.7226
14.8400 9.8625 0.7277
14.8600 9.8759 0.7267
14.8800 9.8892 0.7217
14.9000 9.9025 0.7262
14.9200 9.9158 0.7282
14.9400 9.9292 0.7210
14.9600 9.9425 0.7331
14.9800 9.9558 0.7291
15.0000 9.9691 0.7262
15.0200 9.9825 0.7328
15.0400 9.9958 0.7304
15.0600 10.0091 0.7290
15.0800 10.0224 0.7335
15.1000 10.0357 0.7332
15.1200 10.0491 0.7244
15.1400 10.0625 0.7367
15.1600 10.0758 0.7380
15.1800 10.0891 0.7242
15.2000 10.1025 0.7392
15.2200 10.1158 0.7357
15.2400 10.1292 0.7278
15.2600 10.1425 0.7379
15.2800 10.1558 0.7380
15.3000 10.1692 0.7325
15.3200 10.1825 0.7338
15.3400 10.1958 0.7406
15.3600 10.2091 0.7348
15.3800 10.2225 0.7378
15.4000 10.2358 0.7419
15.4200 10.2491 0.7338
15.4400 10.2624 0.7420
15.4600 10.2757 0.7452
15.4800 10.2891 0.7398
15.5000 10.3024 0.7334
15.5200 10.3158 0.7515
15.5400 10.3291 0.7434
15.5600 10.3425 0.7356
15.5800 10.3559 0.7541
15.6000 10.3692 0.7398
15.6200 10.3825 0.7414
15.6400 10.3958 0.7505
15.6600 10.4092 0.7382
15.6800 10.4225 0.7452
15.7000 10.4358 0.7536
15.7200 10.4491 0.7452
15.7400 10.4624 0.7470
15.7600 10.4758 0.7531
15.7800 10.4891 0.7470
15.8000 10.5024 0.7466
15.8200 10.5157 0.7580
15.8400 10.5291 0.7492
15.8600 10.5424 0.7505
15.8800 10.5558 0.7546
15.9000 10.5691 0.7538
15.9200 10.5825 0.7509
15.9400 10.5959 0.7563
15.9600 10.6092 0.7543
15.9800 10.6225 0.7571
16.0000 10.6358 0.7582
16.0200 10.6492 0.7531
16.0400 10.6625 0.7590
16.0600 10.6758 0.7612
16.0800 10.6891 0.7594
16.1000 10.7024 0.7622
16.1200 10.7158 0.7557
16.1400 10.7291 0.7602
16.1600 10.7424 0.7636
16.1800 10.7557 0.7594
16.2000 10.7691 0.7591
16.2200 10.7825 0.7625
16.2400 10.7958 0.7588
16.2600 10.8091 0.7608
16.2800 10.8225 0.7676
16.3000 10.8358 0.7626
16.3200 10.8492 0.7614
16.3400 10.8625 0.7718
16.3600 10.8758 0.7627
16.3800 10.8891 0.7653
16.4000 10.9025 0.7724
16.4200 10.9159 0.7642
16.4400 10.9292 0.7673
16.4600 10.9425 0.7710
16.4800 10.9558 0.7687
16.5000 10.9692 0.7680
16.5200 10.9824 0.7756
16.5400 10.9958 0.7670
16.5600 11.0091 0.7669
16.5800 11.0224 0.7802
16.6000 11.0358 0.7684
16.6200 11.0491 0.7701
16.6400 11.0624 0.7803
16.6600 11.0758 0.7665
16.6800 11.0892 0.7724
16.7000 11.1025 0.7829
16.7200 11.1158 0.7738
16.7400 11.1292 0.7733
16.7600 11.1425 0.7821
16.7800 11.1558 0.7706
16.8000 11.1691 0.7782
16.8200 11.1825 0.7848
16.8400 11.1958 0.7719
16.8600 11.2091 0.7797
16.8800 11.2224 0.7834
16.9000 11.2357 0.7759
16.9200 11.2491 0.7871
16.9400 11.2624 0.7838
16.9600 11.2757 0.7792
16.9800 11.2891 0.7848
17.0000 11.3025 0.7864
17.0200 11.3158 0.7818
17.0400 11.3292 0.7861
17.0600 11.3425 0.7879
17.0800 11.3558 0.7842
17.1000 11.3692 0.7843
17.1200 11.3825 0.7885
17.1400 11.3958 0.7879
17.1600 11.4091 0.7901
17.1800 11.4224 0.7888
17.2000 11.4358 0.7869
17.2200 11.4491 0.7901
17.2400 11.4624 0.7936
17.2600 11.4757 0.7915
17.2800 11.4891 0.7941
17.3000 11.5025 0.7897
17.3200 11.5158 0.7902
17.3400 11.5291 0.7947
17.3600 11.5425 0.7921
17.3800 11.5558 0.7979
17.4000 11.5692 0.7941
17.4200 11.5825 0.7928
17.4400 11.5958 0.7939
17.4600 11.6092 0.7978
17.4800 11.6225 0.7943
17.5000 11.6359 0.8011
17.5200 11.6491 0.7972
17.5400 11.6625 0.7942
17.5600 11.6758 0.8050
17.5800 11.6891 0.7980
17.6000 11.7024 0.8009
17.6200 11.7157 0.8046
17.6400 11.7290 0.7981
17.6600 11.7424 0.8037
17.6800 11.7558 0.8002
17.7000 11.7691 0.8010
17.7200 11.7825 0.8068
17.7400 11.7958 0.8016
17.7600 11.8092 0.7979
17.7800 11.8225 0.8094
17.8000 11.8358 0.8034
17.8200 11.8492 0.8025
17.8400 11.8625 0.8130
17.8600 11.8758 0.8021
17.8800 11.8891 0.8050
17.9000 11.9024 0.8162
17.9200 11.9158 0.8054
17.9400 11.9291 0.8086
17.9600 11.9425 0.8168
17.9800 11.9558 0.8066
18.0000 11.9691 0.8108
18.0200 11.9824 0.8135
18.0400 11.9958 0.8066
18.0600 12.0091 0.8148
18.0800 12.0224 0.8187
18.1000 12.0358 0.8062
18.1200 12.0492 0.8130
18.1400 12.0625 0.8223
18.1600 12.0758 0.8066
18.1800 12.0892 0.8138
18.2000 12.1025 0.8229
18.2200 12.1158 0.8105
18.2400 12.1291 0.8178
18.2600 12.1424 0.8241
18.2800 12.1558 0.8111
18.3000 12.1691 0.8204
18.3200 12.1824 0.8253
18.3400 12.1957 0.8127
18.3600 12.2091 0.8238
18.3800 12.2224 0.8216
18.4000 12.2358 0.8177
18.4200 12.2491 0.8246
18.4400 12.2625 0.8240
18.4600 12.2758 0.8214
18.4800 12.2892 0.8275
18.5000 12.3025 0.8221
18.5200 12.3158 0.8227
18.5400 12.3291 0.8308
18.5600 12.3425 0.8254
18.5800 12.3558 0.8233
18.6000 12.3692 0.8255
18.6200 12.3825 0.8266
18.6400 12.3958 0.8265
18.6600 12.4092 0.8276
18.6800 12.4225 0.8326
18.7000 12.4358 0.8272
18.7200 12.4491 0.8277
18.7400 12.4624 0.8337
18.7600 12.4757 0.8231
18.7800 12.4891 0.8317
18.8000 12.5024 0.8355
18.8200 12.5158 0.8257
18.8400 12.5292 0.8302
18.8600 12.5425 0.8372
18.8800 12.5558 0.8274
18.9000 12.5692 0.8368
18.9200 12.5826 0.8382
18.9400 12.5959 0.8255
18.9600 12.6092 0.8393
18.9800 12.6224 0.8386
19.0000 12.6358 0.8284
19.0200 12.6491 0.8379
19.0400 12.6624 0.8402
19.0600 12.6757 0.8331
19.0800 12.6890 0.8384
19.1000 12.7024 0.8386
19.1200 12.7158 0.8336
19.1400 12.7291 0.8428
19.1600 12.7424 0.8409
19.1800 12.7558 0.8364
19.2000 12.7692 0.8451
19.2200 12.7825 0.8395
19.2400 12.7959 0.8381
19.2600 12.8092 0.8495
19.2800 12.8225 0.8451
19.3000 12.8359 0.8349
19.3200 12.8491 0.8489
19.3400 12.8624 0.8448
19.3600 12.8758 0.8413
19.3800 12.8891 0.8472
19.4000 12.9024 0.8475
19.4200 12.9157 0.8469
19.4400 12.9291 0.8498
19.4600 12.9424 0.8504
19.4800 12.9558 0.8460
19.5000 12.9691 0.8482
19.5200 12.9824 0.8545
19.5400 12.9958 0.8483
19.5600 13.0092 0.8460
19.5800 13.0225 0.8557
19.6000 13.0358 0.8520
19.6200 13.0492 0.8507
19.6400 13.0625 0.8542
19.6600 13.0759 0.8497
19.6800 13.0892 0.8548
19.7000 13.1025 0.8568
19.7200 13.1158 0.8518
19.7400 13.1291 0.8579
19.7600 13.1424 0.8587
19.7800 13.1557 0.8532
19.8000 13.1690 0.8591
19.8200 13.1824 0.8583
19.8400 13.1958 0.8563
19.8600 13.2091 0.8601
19.8800 13.2224 0.8622
19.9000 13.2358 0.8545
19.9200 13.2492 0.8661
19.9400 13.2625 0.8578
19.9600 13.2758 0.8587
19.9800 13.2892 0.8679
20.0000 13.3025 0.8583
20.0200 13.3159 0.8608
20.0400 13.3292 0.8692
20.0600 13.3425 0.8631
20.0800 13.3558 0.8622
20.1000 13.3692 0.8693
20.1200 13.3825 0.8624
20.1400 13.3958 0.8648
20.1600 13.4091 0.8706
20.1800 13.4224 0.8628
20.2000 13.4358 0.8670
20.2200 13.4491 0.8730
20.2400 13.4624 0.8672
20.2600 13.4758 0.8684
20.2800 13.4891 0.8679
20.3000 13.5025 0.8675
20.3200 13.5158 0.8730
20.3400 13.5292 0.8710
20.3600 13.5425 0.8692
20.3800 13.5559 0.8710
20.4000 13.5692 0.8769
20.4200 13.5825 0.8736
20.4400 13.5958 0.8709
20.4600 13.6092 0.8774
20.4800 13.6225 0.8703
20.5000 13.6358 0.8746
20.5200 13.6491 0.8763
20.5400 13.6624 0.8753
20.5600 13.6757 0.8755
20.5800 13.6891 0.8825
20.6000 13.7024 0.8722
20.6200 13.7158 0.8779
20.6400 13.7292 0.8868
20.6600 13.7425 0.8731
20.6800 13.7558 0.8786
20.7000 13.7691 0.8852
20.7200 13.7825 0.8732
20.7400 13.7959 0.8843
20.7600 13.8092 0.8834
20.7800 13.8225 0.8743
20.8000 13.8358 0.8870
20.8200 13.8492 0.8854
20.8400 13.8625 0.8742
20.8600 13.8758 0.8889
20.8800 13.8891 0.8859
20.9000 13.9024 0.8757
20.9200 13.9157 0.8883
20.9400 13.9291 0.8856
20.9600 13.9424 0.8801
20.9800 13.9558 0.8929
21.0000 13.9692 0.8836
21.0200 13.9826 0.8799
21.0400 13.9959 0.8974
21.0600 14.0092 0.8834
21.0800 14.0226 0.8804
21.1000 14.0359 0.8969
21.1200 14.0492 0.8877
21.1400 14.0625 0.8848
21.1600 14.0757 0.9030
21.1800 14.0891 0.8857
21.2000 14.1024 0.8880
21.2200 14.1157 0.8982
21.2400 14.1291 0.8882
21.2600 14.1424 0.8946
21.2800 14.1558 0.8985
21.3000 14.1691 0.8881
21.3200 14.1825 0.8940
21.3400 14.1958 0.8997
21.3600 14.2092 0.8912
21.3800 14.2225 0.8908
21.4000 14.2358 0.9053
21.4200 14.2491 0.8904
21.4400 14.2625 0.8959
21.4600 14.2758 0.9039
21.4800 14.2891 0.8923
21.5000 14.3024 0.8974
21.5200 14.3158 0.9053
21.5400 14.3291 0.8940
21.5600 14.3424 0.8956
21.5800 14.3557 0.9115
21.6000 14.3691 0.8962
21.6200 14.3824 0.8984
21.6400 14.3958 0.9106
21.6600 14.4091 0.8934
21.6800 14.4224 0.9041
21.7000 14.4358 0.9135
21.7200 14.4492 0.8935
21.7400 14.4625 0.9051
21.7600 14.4758 0.9094
21.7800 14.4891 0.8961
21.8000 14.5025 0.9029
21.8200 14.5158 0.9129
21.8400 14.5292 0.8970
21.8600 14.5425 0.9058
21.8800 14.5558 0.9102
21.9000 14.5691 0.9002
21.9200 14.5825 0.9112
21.9400 14.5958 0.9134
21.9600 14.6091 0.9054
21.9800 14.6224 0.9074
22.0000 14.6358 0.9084
22.0200 14.6491 0.9099
22.0400 14.6624 0.9070
22.0600 14.6758 0.9146
22.0800 14.6892 0.9136
22.1000 14.7025 0.9013
22.1200 14.7158 0.9146
22.1400 14.7292 0.9221
22.1600 14.7425 0.9017
22.1800 14.7558 0.9200
22.2000 14.7692 0.9176
22.2200 14.7825 0.9025
22.2400 14.7958 0.9237
22.2600 14.8092 0.9153
22.2800 14.8225 0.9015
22.3000 14.8358 0.9274
22.3200 14.8491 0.9151
22.3400 14.8624 0.9080
22.3600 14.8758 0.9329
22.3800 14.8891 0.9156
22.4000 14.9024 0.9103
22.4200 14.9158 0.9294
22.4400 14.9291 0.9132
22.4600 14.9425 0.9155
22.4800 14.9558 0.9325
22.5000 14.9691 0.9147
22.5200 14.9825 0.9177
22.5400 14.9959 0.9315
22.5600 15.0092 0.9194
22.5800 15.0225 0.9223
22.6000 15.0358 0.9381
22.6200 15.0491 0.9179
22.6400 15.0625 0.9234
22.6600 15.0758 0.9373
22.6800 15.0891 0.9201
22.7000 15.1024 0.9292
22.7200 15.1158 0.9374
22.7400 15.1291 0.9177
22.7600 15.1424 0.9338
22.7800 15.1558 0.9354
22.8000 15.1692 0.9216
22.8200 15.1826 0.9335
22.8400 15.1959 0.9345
22.8600 15.2092 0.9279
22.8800 15.2225 0.9370
22.9000 15.2359 0.9315
22.9200 15.2492 0.9292
22.9400 15.2625 0.9352
22.9600 15.2758 0.9338
22.9800 15.2891 0.9349
23.0000 15.3025 0.9388
23.0200 15.3158 0.9350
23.0400 15.3291 0.9375
23.0600 15.3424 0.9405
23.0800 15.3558 0.9374
23.1000 15.3691 0.9386
23.1200 15.3824 0.9323
23.1400 15.3958 0.9413
23.1600 15.4092 0.9441
23.1800 15.4225 0.9331
23.2000 15.4358 0.9440
23.2200 15.4492 0.9433
23.2400 15.4625 0.9383
23.2600 15.4759 0.9465
23.2800 15.4892 0.9439
23.3000 15.5024 0.9362
23.3200 15.5157 0.9506
23.3400 15.5291 0.9435
23.3600 15.5424 0.9395
23.3800 15.5557 0.9515
23.4000 15.5691 0.9466
23.4200 15.5824 0.9433
23.4400 15.5958 0.9483
23.4600 15.6091 0.9485
23.4800 15.6225 0.9463
23.5000 15.6358 0.9529
23.5200 15.6492 0.9494
23.5400 15.6625 0.9433
23.5600 15.6758 0.9514
23.5800 15.6891 0.9535
23.6000 15.7024 0.9449
23.6200 15.7158 0.9512
23.6400 15.7292 0.9533
23.6600 15.7425 0.9469
23.6800 15.7558 0.9540
23.7000 15.7692 0.9568
23.7200 15.7825 0.9521
23.7400 15.7958 0.9558
23.7600 15.8091 0.9544
23.7800 15.8224 0.9476
23.8000 15.8358 0.9566
23.8200 15.8491 0.9578
23.8400 15.8624 0.9522
23.8600 15.8757 0.9600
23.8800 15.8891 0.9571
23.9000 15.9025 0.9536
23.9200 15.9158 0.9562
23.9400 15.9292 0.9646
23.9600 15.9425 0.9537
23.9800 15.9559 0.9586
24.0000 15.9692 0.9632
24.0200 15.9825 0.9518
24.0400 15.9958 0.9651
24.0600 16.0092 0.9631
24.0800 16.0225 0.9584
24.1000 16.0358 0.9668
24.1200 16.0491 0.9620
24.1400 16.0624 0.9588
24.1600 16.0758 0.9679
24.1800 16.0891 0.9614
24.2000 16.1024 0.9594
24.2200 16.1158 0.9696
24.2400 16.1291 0.9599
24.2600 16.1425 0.9588
24.2800 16.1558 0.9710
24.3000 16.1692 0.9623
24.3200 16.1825 0.9619
24.3400 16.1958 0.9718
24.3600 16.2092 0.9646
24.3800 16.2225 0.9653
24.4000 16.2358 0.9766
24.4200 16.2491 0.9637
24.4400 16.2625 0.9690
24.4600 16.2758 0.9690
24.4800 16.2891 0.9621
24.5000 16.3024 0.9740
24.5200 16.3158 0.9752
24.5400 16.3291 0.9642
24.5600 16.3425 0.9728
24.5800 16.3558 0.9739
24.6000 16.3691 0.9685
24.6200 16.3825 0.9825
24.6400 16.3958 0.9773
24.6600 16.4092 0.9653
24.6800 16.4225 0.9804
24.7000 16.4359 0.9732
24.7200 16.4492 0.9678
24.7400 16.4625 0.9869
24.7600 16.4758 0.9769
24.7800 16.4891 0.9701
24.8000 16.5025 0.9831
24.8200 16.5158 0.9747
24.8400 16.5291 0.9778
24.8600 16.5424 0.9862
24.8800 16.5557 0.9747
24.9000 16.5691 0.9712
24.9200 16.5824 0.9868
24.9400 16.5958 0.9782
24.9600 16.6092 0.9762
24.9800 16.6226 0.9888
25.0000 16.6359 0.9728
25.0200 16.6492 0.9809
25.0400 16.6625 0.9919
25.0600 16.6758 0.9808
25.0800 16.6892 0.9838
25.1000 16.7025 0.9916
25.1200 16.7158 0.9818
25.1400 16.7291 0.9837
25.1600 16.7425 0.9909
25.1800 16.7558 0.9819
25.2000 16.7691 0.9858
25.2200 16.7824 0.9913
25.2400 16.7958 0.9828
25.2600 16.8091 0.9870
25.2800 16.8224 0.9933
25.3000 16.8358 0.9909
25.3200 16.8491 0.9877
25.3400 16.8625 0.9944
25.3600 16.8759 0.9878
25.3800 16.8892 0.9880
25.4000 16.9025 0.9985
25.4200 16.9159 0.9915
25.4400 16.9292 0.9878
25.4600 16.9425 0.9991
25.4800 16.9558 0.9962
25.5000 16.9691 0.9932
25.5200 16.9824 1.0017
25.5400 16.9958 0.9927
25.5600 17.0091 0.9948
25.5800 17.0224 1.0002
25.6000 17.0357 0.9958
25.6200 17.0491 0.9979
25.6400 17.0624 1.0004
25.6600 17.0758 0.9980
25.6800 17.0891 1.0008
25.7000 17.1025 1.0000
25.7200 17.1158 1.0011
25.7400 17.1291 1.0021
25.7600 17.1425 1.0052
25.7800 17.1558 1.0009
25.8000 17.1692 0.9997
25.8200 17.1825 1.0089
25.8400 17.1958 1.0054
25.8600 17.2092 0.9978
25.8800 17.2225 1.0126
25.9000 17.2358 1.0024
25.9200 17.2491 1.0011
25.9400 17.2624 1.0213
25.9600 17.2757 1.0047
25.9800 17.2891 1.0009
26.0000 17.3024 1.0186
26.0200 17.3157 1.0052
26.0400 17.3291 1.0017
26.0600 17.3425 1.0157
26.0800 17.3559 1.0081
26.1000 17.3692 1.0040
26.1200 17.3825 1.0231
26.1400 17.3959 1.0056
26.1600 17.4092 1.0073
26.1800 17.4225 1.0247
26.2000 17.4358 1.0096
26.2200 17.4491 1.0113
26.2400 17.4625 1.0257
26.2600 17.4758 1.0129
26.2800 17.4891 1.0115
26.3000 17.5024 1.0256
26.3200 17.5157 1.0202
26.3400 17.5291 1.0126
26.3600 17.5424 1.0258
26.3800 17.5558 1.0133
26.4000 17.5691 1.0177
26.4200 17.5825 1.0304
26.4400 17.5959 1.0166
26.4600 17.6092 1.0205
26.4800 17.6225 1.0282
26.5000 17.6359 1.0180
26.5200 17.6492 1.0177
26.5400 17.6625 1.0345
26.5600 17.6758 1.0217
26.5800 17.6891 1.0217
26.6000 17.7024 1.0312
26.6200 17.7158 1.0232
26.6400 17.7291 1.0252
26.6600 17.7424 1.0306
26.6800 17.7558 1.0245
26.7000 17.7691 1.0279
26.7200 17.7825 1.0287
26.7400 17.7958 1.0288
26.7600 17.8091 1.0301
26.7800 17.8225 1.0351
26.8000 17.8358 1.0294
26.8200 17.8492 1.0245
26.8400 17.8625 1.0391
26.8600 17.8758 1.0362
26.8800 17.8892 1.0304
26.9000 17.9025 1.0347
26.9200 17.9158 1.0354
26.9400 17.9291 1.0262
26.9600 17.9425 1.0382
26.9800 17.9558 1.0383
27.0000 17.9691 1.0300
27.0200 17.9824 1.0405
27.0400 17.9957 1.0374
27.0600 18.0091 1.0285
27.0800 18.0224 1.0425
27.1000 18.0358 1.0386
27.1200 18.0491 1.0325
27.1400 18.0625 1.0437
27.1600 18.0759 1.0367
27.1800 18.0892 1.0371
27.2000 18.1025 1.0455
27.2200 18.1158 1.0383
27.2400 18.1292 1.0398
27.2600 18.1425 1.0485
27.2800 18.1558 1.0438
27.3000 18.1691 1.0399
27.3200 18.1824 1.0550
27.3400 18.1958 1.0434
27.3600 18.2091 1.0398
27.3800 18.2224 1.0529
27.4000 18.2357 1.0478
27.4200 18.2491 1.0392
27.4400 18.2624 1.0527
27.4600 18.2757 1.0479
27.4800 18.2891 1.0462
27.5000 18.3025 1.0543
27.5200 18.3158 1.0471
27.5400 18.3292 1.0490
27.5600 18.3425 1.0561
27.5800 18.3558 1.0507
27.6000 18.3692 1.0482
27.6200 18.3825 1.0502
27.6400 18.3958 1.0511
27.6600 18.4091 1.0567
27.6800 18.4225 1.0528
27.7000 18.4358 1.0496
27.7200 18.4491 1.0613
27.7400 18.4624 1.0574
27.7600 18.4757 1.0552
27.7800 18.4891 1.0588
27.8000 18.5025 1.0565
27.8200 18.5158 1.0575
27.8400 18.5291 1.0556
27.8600 18.5425 1.0604
27.8800 18.5558 1.0607
27.9000 18.5691 1.0564
27.9200 18.5825 1.0640
27.9400 18.5958 1.0613
27.9600 18.6092 1.0588
27.9800 18.6225 1.0698
28.0000 18.6358 1.0642
28.0200 18.6491 1.0603
28.0400 18.6625 1.0674
28.0600 18.6758 1.0656
28.0800 18.6891 1.0604
28.1000 18.7024 1.0709
28.1200 18.7157 1.0682
28.1400 18.7291 1.0575
28.1600 18.7424 1.0712
28.1800 18.7557 1.0703
28.2000 18.7691 1.0684
28.2200 18.7825 1.0713
28.2400 18.7959 1.0681
28.2600 18.8092 1.0650
28.2800 18.8225 1.0734
28.3000 18.8359 1.0691
28.3200 18.8492 1.0671
28.3400 18.8625 1.0738
28.3600 18.8758 1.0702
28.3800 18.8891 1.0724
28.4000 18.9024 1.0720
28.4200 18.9158 1.0775
28.4400 18.9291 1.0747
28.4600 18.9424 1.0722
28.4800 18.9558 1.0760
28.5000 18.9691 1.0778
28.5200 18.9825 1.0728
28.5400 18.9958 1.0777
28.5600 19.0091 1.0805
28.5800 19.0225 1.0708
28.6000 19.0359 1.0787
28.6200 19.0492 1.0819
28.6400 19.0625 1.0782
28.6600 19.0758 1.0814
28.6800 19.0892 1.0832
28.7000 19.1025 1.0753
28.7200 19.1158 1.0857
28.7400 19.1291 1.0833
28.7600 19.1424 1.0771
28.7800 19.1558 1.0846
28.8000 19.1691 1.0840
28.8200 19.1824 1.0796
28.8400 19.1957 1.0919
28.8600 19.2091 1.0859
28.8800 19.2225 1.0819
28.9000 19.2358 1.0909
28.9200 19.2491 1.0845
28.9400 19.2625 1.0856
28.9600 19.2758 1.0947
28.9800 19.2892 1.0818
29.0000 19.3025 1.0890
29.0200 19.3158 1.0908
29.0400 19.3292 1.0883
29.0600 19.3425 1.0888
29.0800 19.3558 1.0952
29.1000 19.3691 1.0918
29.1200 19.3825 1.0923
29.1400 19.3958 1.0961
29.1600 19.4091 1.0888
29.1800 19.4224 1.0923
29.2000 19.4357 1.0962
29.2200 19.4491 1.0961
29.2400 19.4624 1.0940
29.2600 19.4758 1.0975
29.2800 19.4891 1.0978
29.3000 19.5025 1.0951
29.3200 19.5159 1.0990
29.3400 19.5292 1.1039
29.3600 19.5425 1.0960
29.3800 19.5558 1.0981
29.4000 19.5692 1.1025
29.4200 19.5825 1.0971
29.4400 19.5958 1.1016
29.4600 19.6091 1.1090
29.4800 19.6225 1.0995
29.5000 19.6358 1.1023
29.5200 19.6491 1.1053
29.5400 19.6624 1.1016
29.5600 19.6757 1.1074
29.5800 19.6891 1.1048
29.6000 19.7025 1.0963
29.6200 19.7158 1.1126
29.6400 19.7291 1.1071
29.6600 19.7424 1.1010
29.6800 19.7558 1.1120
29.7000 19.7691 1.1085
29.7200 19.7825 1.1047
29.7400 19.7958 1.1176
29.7600 19.8092 1.1077
29.7800 19.8225 1.1055
29.8000 19.8358 1.1159
29.8200 19.8491 1.1093
29.8400 19.8625 1.1083
29.8600 19.8758 1.1215
29.8800 19.8891 1.1105
29.9000 19.9024 1.1082
29.9200 19.9157 1.1220
29.9400 19.9291 1.1164
29.9600 19.9424 1.1090
29.9800 19.9558 1.1233
30.0000 19.9691 1.1167
30.0200 19.9825 1.1136
30.0400 19.9959 1.1235
30.0600 20.0092 1.1155
30.0800 20.0225 1.1137
30.1000 20.0358 1.1248
30.1200 20.0492 1.1167
30.1400 20.0625 1.1176
30.1600 20.0758 1.1256
30.1800 20.0891 1.1210
30.2000 20.1024 1.1176
30.2200 20.1158 1.1282
30.2400 20.1291 1.1270
30.2600 20.1424 1.1167
30.2800 20.1557 1.1298
30.3000 20.1691 1.1256
30.3200 20.1824 1.1182
30.3400 20.1958 1.1287
30.3600 20.2091 1.1315
30.3800 20.2225 1.1219
30.4000 20.2358 1.1268
30.4200 20.2492 1.1318
30.4400 20.2625 1.1253
30.4600 20.2758 1.1324
30.4800 20.2892 1.1370
30.5000 20.3025 1.1199
30.5200 20.3158 1.1349
30.5400 20.3291 1.1352
30.5600 20.3424 1.1247
30.5800 20.3558 1.1360
30.6000 20.3691 1.1355
30.6200 20.3824 1.1264
30.6400 20.3957 1.1392
30.6600 20.4091 1.1426
30.6800 20.4225 1.1275
30.7000 20.4358 1.1402
30.7200 20.4491 1.1365
30.7400 20.4625 1.1266
30.7600 20.4758 1.1423
30.7800 20.4892 1.1390
30.8000 20.5025 1.1319
30.8200 20.5158 1.1452
30.8400 20.5291 1.1365
30.8600 20.5425 1.1340
30.8800 20.5558 1.1497
30.9000 20.5692 1.1436
30.9200 20.5825 1.1373
30.9400 20.5958 1.1499
30.9600 20.6092 1.1374
30.9800 20.6225 1.1396
31.0000 20.6358 1.1532
31.0200 20.6491 1.1448
31.0400 20.6624 1.1421
31.0600 20.6758 1.1525
31.0800 20.6891 1.1412
31.1000 20.7024 1.1489
31.1200 20.7158 1.1541
31.1400 20.7292 1.1422
31.1600 20.7425 1.1526
31.1800 20.7558 1.1521
31.2000 20.7692 1.1396
31.2200 20.7825 1.1538
31.2400 20.7959 1.1541
31.2600 20.8092 1.1488
31.2800 20.8225 1.1565
31.3000 20.8358 1.1526
31.3200 20.8492 1.1518
31.3400 20.8625 1.1593
31.3600 20.8758 1.1508
31.3800 20.8891 1.1532
31.4000 20.9024 1.1544
31.4200 20.9157 1.1544
31.4400 20.9291 1.1575
31.4600 20.9424 1.1599
31.4800 20.9558 1.1567
31.5000 20.9692 1.1588
31.5200 20.9825 1.1593
31.5400 20.9958 1.1576
31.5600 21.0092 1.1689
31.5800 21.0225 1.1593
31.6000 21.0358 1.1587
31.6200 21.0491 1.1684
31.6400 21.0625 1.1609
31.6600 21.0758 1.1610
31.6800 21.0891 1.1645
31.7000 21.1024 1.1606
31.7200 21.1157 1.1653
31.7400 21.1291 1.1655
31.7600 21.1425 1.1672
31.7800 21.1558 1.1682
31.8000 21.1691 1.1690
31.8200 21.1825 1.1640
31.8400 21.1958 1.1700
31.8600 21.2092 1.1716
31.8800 21.2225 1.1677
31.9000 21.2358 1.1688
31.9200 21.2492 1.1726
31.9400 21.2625 1.1658
31.9600 21.2759 1.1744
31.9800 21.2892 1.1770
32.0000 21.3025 1.1765
32.0200 21.3158 1.1751
32.0400 21.3291 1.1735
32.0600 21.3424 1.1710
32.0800 21.3557 1.1812
32.1000 21.3691 1.1718
32.1200 21.3824 1.1746
32.1400 21.3958 1.1835
32.1600 21.4091 1.1715
32.1800 21.4225 1.1782
32.2000 21.4358 1.1846
32.2200 21.4492 1.1722
32.2400 21.4625 1.1864
32.2600 21.4758 1.1829
32.2800 21.4891 1.1744
32.3000 21.5025 1.1806
32.3200 21.5158 1.1818
32.3400 21.5291 1.1758
32.3600 21.5424 1.1916
32.3800 21.5558 1.1852
32.4000 21.5691 1.1763
32.4200 21.5825 1.1923
32.4400 21.5958 1.1861
32.4600 21.6091 1.1861
32.4800 21.6224 1.1920
32.5000 21.6358 1.1845
32.5200 21.6491 1.1846
32.5400 21.6624 1.1934
32.5600 21.6758 1.1836
32.5800 21.6892 1.1880
32.6000 21.7025 1.1952
32.6200 21.7158 1.1855
32.6400 21.7292 1.1910
32.6600 21.7425 1.1994
32.6800 21.7558 1.1912
32.7000 21.7691 1.1927
32.7200 21.7824 1.1971
32.7400 21.7958 1.1910
32.7600 21.8091 1.1932
32.7800 21.8225 1.1992
32.8000 21.8358 1.1997
32.8200 21.8491 1.1951
32.8400 21.8624 1.1965
32.8600 21.8758 1.1947
32.8800 21.8891 1.1957
32.9000 21.9024 1.2027
32.9200 21.9158 1.1976
32.9400 21.9292 1.1952
32.9600 21.9425 1.2024
32.9800 21.9558 1.2033
33.0000 21.9691 1.1966
33.0200 21.9825 1.2081
33.0400 21.9958 1.2013
33.0600 22.0092 1.1971
33.0800 22.0225 1.2089
33.1000 22.0359 1.2048
33.1200 22.0492 1.1974
33.1400 22.0625 1.2122
33.1600 22.0758 1.2029
33.1800 22.0891 1.1982
33.2000 22.1024 1.2131
33.2200 22.1157 1.2037
33.2400 22.1290 1.2014
33.2600 22.1424 1.2198
33.2800 22.1558 1.2081
33.3000 22.1692 1.2034
33.3200 22.1825 1.2209
33.3400 22.1959 1.2100
33.3600 22.2092 1.2086
33.3800 22.2226 1.2167
33.4000 22.2359 1.2101
33.4200 22.2492 1.2083
33.4400 22.2625 1.2226
33.4600 22.2758 1.2135
33.4800 22.2891 1.2108
33.5000 22.3025 1.2223
33.5200 22.3157 1.2166
33.5400 22.3291 1.2152
33.5600 22.3424 1.2253
33.5800 22.3558 1.2150
33.6000 22.3691 1.2098
33.6200 22.3824 1.2254
33.6400 22.3958 1.2140
33.6600 22.4092 1.2152
33.6800 22.4225 1.2289
33.7000 22.4358 1.2146
33.7200 22.4492 1.2179
33.7400 22.4625 1.2296
33.7600 22.4759 1.2235
33.7800 22.4892 1.2209
33.8000 22.5024 1.2313
33.8200 22.5158 1.2236
33.8400 22.5291 1.2186
33.8600 22.5424 1.2307
33.8800 22.5557 1.2253
33.9000 22.5690 1.2230
33.9200 22.5824 1.2361
33.9400 22.5958 1.2254
33.9600 22.6091 1.2233
33.9800 22.6224 1.2363
34.0000 22.6358 1.2310
34.0200 22.6492 1.2231
34.0400 22.6625 1.2322
34.0600 22.6758 1.2322
34.0800 22.6892 1.2226
34.1000 22.7025 1.2401
34.1200 22.7158 1.2332
34.1400 22.7291 1.2282
34.1600 22.7425 1.2460
34.1800 22.7558 1.2330
34.2000 22.7691 1.2300
34.2200 22.7825 1.2423
34.2400 22.7958 1.2395
34.2600 22.8091 1.2318
34.2800 22.8224 1.2446
34.3000 22.8358 1.2399
34.3200 22.8491 1.2267
34.3400 22.8624 1.2468
34.3600 22.8758 1.2436
34.3800 22.8892 1.2320
34.4000 22.9025 1.2463
34.4200 22.9158 1.2432
34.4400 22.9292 1.2362
34.4600 22.9425 1.2517
34.4800 22.9559 1.2399
34.5000 22.9691 1.2393
34.5200 22.9824 1.2547
34.5400 22.9958 1.2406
34.5600 23.0091 1.2397
34.5800 23.0225 1.2542
34.6000 23.0358 1.2452
34.6200 23.0491 1.2438
34.6400 23.0624 1.2573
34.6600 23.0758 1.2447
34.6800 23.0891 1.2473
34.7000 23.1024 1.2600
34.7200 23.1158 1.2497
34.7400 23.1292 1.2456
34.7600 23.1425 1.2563
34.7800 23.1558 1.2475
34.8000 23.1692 1.2525
34.8200 23.1825 1.2562
34.8400 23.1959 1.2522
34.8600 23.2092 1.2525
34.8800 23.2225 1.2601
34.9000 23.2358 1.2582
34.9200 23.2491 1.2570
34.9400 23.2625 1.2624
34.9600 23.2758 1.2540
34.9800 23.2891 1.2567
35.0000 23.3024 1.2690
35.0200 23.3158 1.2555
35.0400 23.3291 1.2574
35.0600 23.3424 1.2698
35.0800 23.3558 1.2580
35.1000 23.3692 1.2580
35.1200 23.3825 1.2715
35.1400 23.3958 1.2642
35.1600 23.4091 1.2577
35.1800 23.4225 1.2706
35.2000 23.4358 1.2633
35.2200 23.4492 1.2614
35.2400 23.4625 1.2761
35.2600 23.4758 1.2638
35.2800 23.4891 1.2641
35.3000 23.5025 1.2710
35.3200 23.5158 1.2695
35.3400 23.5291 1.2751
35.3600 23.5424 1.2740
35.3800 23.5557 1.2663
35.4000 23.5691 1.2724
35.4200 23.5824 1.2719
35.4400 23.5958 1.2725
35.4600 23.6092 1.2749
35.4800 23.6225 1.2734
35.5000 23.6359 1.2753
35.5200 23.6492 1.2751
35.5400 23.6625 1.2757
35.5600 23.6759 1.2831
35.5800 23.6892 1.2768
35.6000 23.7024 1.2759
35.6200 23.7158 1.2876
35.6400 23.7291 1.2714
35.6600 23.7424 1.2788
35.6800 23.7557 1.2876
35.7000 23.7691 1.2824
35.7200 23.7824 1.2769
35.7400 23.7958 1.2886
35.7600 23.8091 1.2796
35.7800 23.8225 1.2834
35.8000 23.8358 1.2934
35.8200 23.8492 1.2783
35.8400 23.8626 1.2883
35.8600 23.8759 1.2933
35.8800 23.8892 1.2830
35.9000 23.9025 1.2900
35.9200 23.9158 1.2940
35.9400 23.9292 1.2851
35.9600 23.9425 1.2887
35.9800 23.9558 1.2992
36.0000 23.9691 1.2879
36.0200 23.9825 1.2941
36.0400 23.9958 1.2972
36.0600 24.0091 1.2893
36.0800 24.0224 1.2991
36.1000 24.0358 1.2953
36.1200 24.0492 1.2896
36.1400 24.0625 1.3009
36.1600 24.0758 1.2993
36.1800 24.0892 1.2904
36.2000 24.1025 1.2982
36.2200 24.1158 1.3037
36.2400 24.1292 1.2992
36.2600 24.1425 1.3036
36.2800 24.1559 1.3020
36.3000 24.1692 1.2995
36.3200 24.1825 1.3038
36.3400 24.1958 1.3067
36.3600 24.2091 1.3048
36.3800 24.2225 1.3010
36.4000 24.2358 1.3054
36.4200 24.2491 1.3108
36.4400 24.2624 1.3038
36.4600 24.2758 1.3091
36.4800 24.2891 1.3102
36.5000 24.3025 1.3051
36.5200 24.3158 1.3132
36.5400 24.3292 1.3066
36.5600 24.3425 1.3087
36.5800 24.3558 1.3149
36.6000 24.3692 1.3102
36.6200 24.3825 1.3117
36.6400 24.3959 1.3138
36.6600 24.4092 1.3099
36.6800 24.4224 1.3167
36.7000 24.4358 1.3178
36.7200 24.4491 1.3125
36.7400 24.4625 1.3129
36.7600 24.4758 1.3186
36.7800 24.4891 1.3126
36.8000 24.5024 1.3165
36.8200 24.5158 1.3195
36.8400 24.5291 1.3135
36.8600 24.5424 1.3231
36.8800 24.5558 1.3215
36.9000 24.5691 1.3177
36.9200 24.5825 1.3260
36.9400 24.5958 1.3192
36.9600 24.6092 1.3194
36.9800 24.6225 1.3276
37.0000 24.6359 1.3182
37.0200 24.6492 1.3248
37.0400 24.6625 1.3318
37.0600 24.6758 1.3257
37.0800 24.6891 1.3242
37.1000 24.7024 1.3245
37.1200 24.7158 1.3258
37.1400 24.7291 1.3305
37.1600 24.7424 1.3289
37.1800 24.7558 1.3244
37.2000 24.7691 1.3278
37.2200 24.7825 1.3299
37.2400 24.7958 1.3339
37.2600 24.8092 1.3312
37.2800 24.8226 1.3332
37.3000 24.8359 1.3337
37.3200 24.8492 1.3319
37.3400 24.8625 1.3372
37.3600 24.8759 1.3354
37.3800 24.8892 1.3356
37.4000 24.9025 1.3326
37.4200 24.9158 1.3374
37.4400 24.9291 1.3358
37.4600 24.9424 1.3321
37.4800 24.9558 1.3402
37.5000 24.9691 1.3411
37.5200 24.9824 1.3366
37.5400 24.9957 1.3367
37.5600 25.0091 1.3425
37.5800 25.0224 1.3407
37.6000 25.0358 1.3389
37.6200 25.0491 1.3482
37.6400 25.0625 1.3369
37.6600 25.0758 1.3405
37.6800 25.0892 1.3479
37.7000 25.1025 1.3391
37.7200 25.1159 1.3417
37.7400 25.1292 1.3476
37.7600 25.1425 1.3412
37.7800 25.1558 1.3459
37.8000 25.1691 1.3507
37.8200 25.1824 1.3456
37.8400 25.1957 1.3476
37.8600 25.2091 1.3513
37.8800 25.2224 1.3469
37.9000 25.2358 1.3479
37.9200 25.2492 1.3534
37.9400 25.2625 1.3485
37.9600 25.2758 1.3538
37.9800 25.2892 1.3550
38.0000 25.3025 1.3536
38.0200 25.3158 1.3524
38.0400 25.3291 1.3602
38.0600 25.3424 1.3565
38.0800 25.3558 1.3538
38.1000 25.3692 1.3597
38.1200 25.3825 1.3566
38.1400 25.3958 1.3570
38.1600 25.4092 1.3613
38.1800 25.4225 1.3597
38.2000 25.4358 1.3581
38.2200 25.4491 1.3621
38.2400 25.4624 1.3664
38.2600 25.4758 1.3569
38.2800 25.4891 1.3672
38.3000 25.5024 1.3641
38.3200 25.5157 1.3592
38.3400 25.5291 1.3706
38.3600 25.5425 1.3655
38.3800 25.5558 1.3653
38.4000 25.5692 1.3737
38.4200 25.5825 1.3691
38.4400 25.5959 1.3649
38.4600 25.6092 1.3721
38.4800 25.6225 1.3790
38.5000 25.6358 1.3631
38.5200 25.6492 1.3759
38.5400 25.6625 1.3758
38.5600 25.6758 1.3650
38.5800 25.6891 1.3804
38.6000 25.7024 1.3781
38.6200 25.7157 1.3717
38.6400 25.7291 1.3816
38.6600 25.7424 1.3796
38.6800 25.7557 1.3708
38.7000 25.7691 1.3882
38.7200 25.7825 1.3761
38.7400 25.7959 1.3710
38.7600 25.8092 1.3936
38.7800 25.8225 1.3803
38.8000 25.8359 1.3752
38.8200 25.8492 1.3955
38.8400 25.8625 1.3777
38.8600 25.8758 1.3777
38.8800 25.8891 1.3965
38.9000 25.9025 1.3823
38.9200 25.9158 1.3836
38.9400 25.9291 1.3985
38.9600 25.9424 1.3817
38.9800 25.9558 1.3864
39.0000 25.9691 1.3942
39.0200 25.9824 1.3859
39.0400 25.9958 1.3897
39.0600 26.0091 1.4013
39.0800 26.0225 1.3854
39.1000 26.0358 1.3923
39.1200 26.0492 1.3977
39.1400 26.0625 1.3926
39.1600 26.0759 1.3962
39.1800 26.0892 1.3973
39.2000 26.1025 1.3936
39.2200 26.1158 1.3975
39.2400 26.1291 1.4034
39.2600 26.1425 1.3991
39.2800 26.1558 1.3991
39.3000 26.1691 1.4008
39.3200 26.1824 1.4018
39.3400 26.1957 1.4052
39.3600 26.2091 1.4031
39.3800 26.2224 1.4012
39.4000 26.2358 1.4040
39.4200 26.2491 1.4067
39.4400 26.2625 1.4021
39.4600 26.2759 1.4020
39.4800 26.2892 1.4123
39.5000 26.3025 1.4074
39.5200 26.3158 1.4062
39.5400 26.3292 1.4089
39.5600 26.3425 1.4096
39.5800 26.3558 1.4145
39.6000 26.3691 1.4096
39.6200 26.3825 1.4125
39.6400 26.3958 1.4133
39.6600 26.4091 1.4167
39.6800 26.4224 1.4097
39.7000 26.4358 1.4155
39.7200 26.4491 1.4212
39.7400 26.4624 1.4102
39.7600 26.4758 1.4171
39.7800 26.4891 1.4215
39.8000 26.5025 1.4179
39.8200 26.5159 1.4133
39.8400 26.5292 1.4245
39.8600 26.5425 1.4232
39.8800 26.5558 1.4145
39.9000 26.5692 1.4251
39.9200 26.5825 1.4193
39.9400 26.5958 1.4234
39.9600 26.6091 1.4293
39.9800 26.6224 1.4179
40.0000 26.6358 1.4252
40.0200 26.6491 1.4339
40.0400 26.6624 1.4268
40.0600 26.6758 1.4240
40.0800 26.6891 1.4326
40.1000 26.7025 1.4297
40.1200 26.7158 1.4284
40.1400 26.7291 1.4321
40.1600 26.7425 1.4306
40.1800 26.7558 1.4293
40.2000 26.7691 1.4336
40.2200 26.7825 1.4321
40.2400 26.7958 1.4359
40.2600 26.8092 1.4387
40.2800 26.8225 1.4329
40.3000 26.8358 1.4309
40.3200 26.8492 1.4404
40.3400 26.8625 1.4366
40.3600 26.8759 1.4313
40.3800 26.8891 1.4418
40.4000 26.9024 1.4425
40.4200 26.9157 1.4378
40.4400 26.9291 1.4406
40.4600 26.9424 1.4454
40.4800 26.9557 1.4441
40.5000 26.9691 1.4430
40.5200 26.9825 1.4417
40.5400 26.9959 1.4382
40.5600 27.0092 1.4508
40.5800 27.0225 1.4471
40.6000 27.0359 1.4441
40.6200 27.0492 1.4502
40.6400 27.0625 1.4450
40.6600 27.0758 1.4520
40.6800 27.0891 1.4510
40.7000 27.1025 1.4558
40.7200 27.1158 1.4518
40.7400 27.1291 1.4465
40.7600 27.1424 1.4529
40.7800 27.1557 1.4585
40.8000 27.1691 1.4525
40.8200 27.1824 1.4547
40.8400 27.1958 1.4607
40.8600 27.2091 1.4526
40.8800 27.2225 1.4530
40.9000 27.2359 1.4627
40.9200 27.2492 1.4582
40.9400 27.2625 1.4576
40.9600 27.2759 1.4619
40.9800 27.2892 1.4563
41.0000 27.3025 1.4592
41.0200 27.3158 1.4659
41.0400 27.3291 1.4621
41.0600 27.3424 1.4630
41.0800 27.3558 1.4667
41.1000 27.3691 1.4599
41.1200 27.3824 1.4688
41.1400 27.3957 1.4711
41.1600 27.4091 1.4637
41.1800 27.4225 1.4679
41.2000 27.4358 1.4699
41.2200 27.4491 1.4654
41.2400 27.4625 1.4745
41.2600 27.4758 1.4736
41.2800 27.4892 1.4666
41.3000 27.5025 1.4763
41.3200 27.5158 1.4749
41.3400 27.5292 1.4686
41.3600 27.5425 1.4831
41.3800 27.5558 1.4725
41.4000 27.5692 1.4726
41.4200 27.5825 1.4823
41.4400 27.5958 1.4775
41.4600 27.6091 1.4737
41.4800 27.6224 1.4866
41.5000 27.6357 1.4789
41.5200 27.6491 1.4786
41.5400 27.6625 1.4832
41.5600 27.6758 1.4845
41.5800 27.6891 1.4851
41.6000 27.7025 1.4838
41.6200 27.7159 1.4865
41.6400 27.7292 1.4825
41.6600 27.7425 1.4825
41.6800 27.7558 1.4908
41.7000 27.7692 1.4841
41.7200 27.7825 1.4874
41.7400 27.7958 1.4931
41.7600 27.8091 1.4877
41.7800 27.8224 1.4899
41.8000 27.8358 1.4965
41.8200 27.8491 1.4916
41.8400 27.8624 1.4910
41.8600 27.8758 1.5005
41.8800 27.8891 1.4887
41.9000 27.9024 1.4954
41.9200 27.9157 1.5035
41.9400 27.9291 1.4939
41.9600 27.9425 1.5013
41.9800 27.9558 1.5000
42.0000 27.9692 1.4936
42.0200 27.9825 1.5079
42.0400 27.9958 1.4981
42.0600 28.0092 1.4980
42.0800 28.0225 1.5083
42.1000 28.0358 1.5044
42.1200 28.0491 1.5008
42.1400 28.0625 1.5121
42.1600 28.0758 1.5037
42.1800 28.0891 1.5072
42.2000 28.1024 1.5119
42.2200 28.1157 1.5052
42.2400 28.1291 1.5116
42.2600 28.1424 1.5174
42.2800 28.1558 1.5085
42.3000 28.1691 1.5111
42.3200 28.1825 1.5165
42.3400 28.1958 1.5116
42.3600 28.2092 1.5149
42.3800 28.2225 1.5159
42.4000 28.2358 1.5176
42.4200 28.2492 1.5176
42.4400 28.2625 1.5151
42.4600 28.2758 1.5217
42.4800 28.2891 1.5251
42.5000 28.3025 1.5199
42.5200 28.3158 1.5228
42.5400 28.3291 1.5217
42.5600 28.3424 1.5245
42.5800 28.3557 1.5278
42.6000 28.3691 1.5173
42.6200 28.3824 1.5280
42.6400 28.3957 1.5276
42.6600 28.4091 1.5253
42.6800 28.4225 1.5299
42.7000 28.4359 1.5327
42.7200 28.4492 1.5302
42.7400 28.4626 1.5328
42.7600 28.4759 1.5327
42.7800 28.4892 1.5257
42.8000 28.5025 1.5347
42.8200 28.5158 1.5366
42.8400 28.5291 1.5346
42.8600 28.5424 1.5380
42.8800 28.5558 1.5363
42.9000 28.5691 1.5338
42.9200 28.5824 1.5457
42.9400 28.5957 1.5418
42.9600 28.6091 1.5405
42.9800 28.6225 1.5400
43.0000 28.6358 1.5403
43.0200 28.6491 1.5436
43.0400 28.6625 1.5476
43.0600 28.6759 1.5441
43.0800 28.6892 1.5467
43.1000 28.7025 1.5502
43.1200 28.7158 1.5424
43.1400 28.7292 1.5513
43.1600 28.7425 1.5528
43.1800 28.7558 1.5494
43.2000 28.7691 1.5569
43.2200 28.7824 1.5481
43.2400 28.7958 1.5472
43.2600 28.8091 1.5595
43.2800 28.8224 1.5535
43.3000 28.8358 1.5522
43.3200 28.8491 1.5593
43.3400 28.8625 1.5510
43.3600 28.8758 1.5581
43.3800 28.8891 1.5636
43.4000 28.9025 1.5545
43.4200 28.9159 1.5619
43.4400 28.9292 1.5673
43.4600 28.9425 1.5547
43.4800 28.9558 1.5671
43.5000 28.9692 1.5702
43.5200 28.9825 1.5558
43.5400 28.9958 1.5715
43.5600 29.0091 1.5674
43.5800 29.0225 1.5625
43.6000 29.0358 1.5783
43.6200 29.0491 1.5681
43.6400 29.0624 1.5677
43.6600 29.0757 1.5785
43.6800 29.0891 1.5601
43.7000 29.1024 1.5706
43.7200 29.1158 1.5849
43.7400 29.1291 1.5647
43.7600 29.1425 1.5716
43.7800 29.1558 1.5809
43.8000 29.1692 1.5702
43.8200 29.1825 1.5819
43.8400 29.1958 1.5824
43.8600 29.2092 1.5735
43.8800 29.2225 1.5848
43.9000 29.2358 1.5800
43.9200 29.2491 1.5769
43.9400 29.2624 1.5891
43.9600 29.2758 1.5856
43.9800 29.2891 1.5829
44.0000 29.3024 1.5870
44.0200 29.3158 1.5866
44.0400 29.3291 1.5893
44.0600 29.3425 1.5925
44.0800 29.3558 1.5844
44.1000 29.3691 1.5930
44.1200 29.3824 1.5914
44.1400 29.3958 1.5871
44.1600 29.4092 1.5966
44.1800 29.4225 1.5962
44.2000 29.4358 1.5923
44.2200 29.4492 1.5950
44.2400 29.4626 1.5939
44.2600 29.4759 1.5946
44.2800 29.4891 1.6042
44.3000 29.5024 1.5985
44.3200 29.5158 1.5962
44.3400 29.5291 1.6040
44.3600 29.5424 1.5969
44.3800 29.5557 1.6043
44.4000 29.5691 1.6068
44.4200 29.5824 1.5964
44.4400 29.5958 1.6081
44.4600 29.6091 1.6078
44.4800 29.6225 1.6081
44.5000 29.6359 1.6107
44.5200 29.6492 1.6058
44.5400 29.6625 1.6045
44.5600 29.6758 1.6108
44.5800 29.6892 1.6107
44.6000 29.7025 1.6092
44.6200 29.7159 1.6170
44.6400 29.7291 1.6135
44.6600 29.7424 1.6093
44.6800 29.7558 1.6141
44.7000 29.7691 1.6168
44.7200 29.7824 1.6157
44.7400 29.7957 1.6162
44.7600 29.8091 1.6214
44.7800 29.8224 1.6209
44.8000 29.8358 1.6162
44.8200 29.8491 1.6251
44.8400 29.8624 1.6243
44.8600 29.8758 1.6208
44.8800 29.8892 1.6238
44.9000 29.9025 1.6255
44.9200 29.9158 1.6233
44.9400 29.9292 1.6303
44.9600 29.9425 1.6267
44.9800 29.9558 1.6237
45.0000 29.9691 1.6311
45.0200 29.9824 1.6319
45.0400 29.9957 1.6287
45.0600 30.0091 1.6350
45.0800 30.0224 1.6327
45.1000 30.0357 1.6342
45.1200 30.0491 1.6371
45.1400 30.0625 1.6385
45.1600 30.0758 1.6376
45.1800 30.0892 1.6392
45.2000 30.1025 1.6377
45.2200 30.1159 1.6380
45.2400 30.1292 1.6393
45.2600 30.1425 1.6411
45.2800 30.1558 1.6399
45.3000 30.1691 1.6434
45.3200 30.1825 1.6429
45.3400 30.1959 1.6416
45.3600 30.2092 1.6492
45.3800 30.2225 1.6527
45.4000 30.2358 1.6458
45.4200 30.2492 1.6487
45.4400 30.2625 1.6503
45.4600 30.2758 1.6497
45.4800 30.2891 1.6501
45.5000 30.3025 1.6549
45.5200 30.3158 1.6482
45.5400 30.3291 1.6555
45.5600 30.3424 1.6560
45.5800 30.3558 1.6546
45.6000 30.3692 1.6624
45.6200 30.3825 1.6596
45.6400 30.3958 1.6558
45.6600 30.4091 1.6598
45.6800 30.4225 1.6643
45.7000 30.4358 1.6576
45.7200 30.4491 1.6611
45.7400 30.4625 1.6701
45.7600 30.4758 1.6579
45.7800 30.4892 1.6621
45.8000 30.5025 1.6741
45.8200 30.5158 1.6634
45.8400 30.5291 1.6682
45.8600 30.5424 1.6753
45.8800 30.5558 1.6605
45.9000 30.5691 1.6719
45.9200 30.5824 1.6815
45.9400 30.5958 1.6588
45.9600 30.6092 1.6742
45.9800 30.6225 1.6811
46.0000 30.6358 1.6692
46.0200 30.6492 1.6771
46.0400 30.6625 1.6850
46.0600 30.6758 1.6712
46.0800 30.6891 1.6831
46.1000 30.7024 1.6862
46.1200 30.7158 1.6725
46.1400 30.7291 1.6894
46.1600 30.7425 1.6885
46.1800 30.7558 1.6757
46.2000 30.7691 1.6931
46.2200 30.7824 1.6909
46.2400 30.7958 1.6781
46.2600 30.8091 1.6961
46.2800 30.8224 1.6965
46.3000 30.8358 1.6799
46.3200 30.8492 1.6958
46.3400 30.8625 1.6960
46.3600 30.8758 1.6802
46.3800 30.8892 1.7034
46.4000 30.9025 1.6982
46.4200 30.9159 1.6862
46.4400 30.9292 1.7068
46.4600 30.9425 1.6992
46.4800 30.9558 1.6902
46.5000 30.9691 1.7101
46.5200 30.9824 1.7018
46.5400 30.9957 1.6977
46.5600 31.0091 1.7128
46.5800 31.0224 1.7041
46.6000 31.0358 1.6979
46.6200 31.0491 1.7132
46.6400 31.0624 1.7098
46.6600 31.0758 1.7056
46.6800 31.0892 1.7153
46.7000 31.1025 1.7100
46.7200 31.1158 1.7062
46.7400 31.1291 1.7235
46.7600 31.1425 1.7102
46.7800 31.1559 1.7114
46.8000 31.1692 1.7227
46.8200 31.1825 1.7112
46.8400 31.1958 1.7149
46.8600 31.2091 1.7242
46.8800 31.2225 1.7199
46.9000 31.2358 1.7179
46.9200 31.2491 1.7286
46.9400 31.2624 1.7276
46.9600 31.2758 1.7213
46.9800 31.2891 1.7327
47.0000 31.3024 1.7242
47.0200 31.3158 1.7224
47.0400 31.3292 1.7312
47.0600 31.3425 1.7241
47.0800 31.3558 1.7283
47.1000 31.3691 1.7351
47.1200 31.3825 1.7298
47.1400 31.3958 1.7311
47.1600 31.4091 1.7413
47.1800 31.4224 1.7353
47.2000 31.4358 1.7338
47.2200 31.4491 1.7414
47.2400 31.4624 1.7342
47.2600 31.4758 1.7406
47.2800 31.4891 1.7444
47.3000 31.5024 1.7408
47.3200 31.5158 1.7431
47.3400 31.5291 1.7442
47.3600 31.5424 1.7386
47.3800 31.5558 1.7513
47.4000 31.5691 1.7505
47.4200 31.5825 1.7393
47.4400 31.5958 1.7517
47.4600 31.6091 1.7511
47.4800 31.6225 1.7482
47.5000 31.6358 1.7556
47.5200 31.6492 1.7557
47.5400 31.6625 1.7504
47.5600 31.6758 1.7570
47.5800 31.6892 1.7565
47.6000 31.7025 1.7558
47.6200 31.7158 1.7618
47.6400 31.7291 1.7626
47.6600 31.7424 1.7579
47.6800 31.7557 1.7626
47.7000 31.7690 1.7642
47.7200 31.7824 1.7605
47.7400 31.7958 1.7656
47.7600 31.8092 1.7649
47.7800 31.8226 1.7616
47.8000 31.8359 1.7673
47.8200 31.8492 1.7709
47.8400 31.8625 1.7692
47.8600 31.8759 1.7704
47.8800 31.8892 1.7693
47.9000 31.9025 1.7693
47.9200 31.9158 1.7762
47.9400 31.9291 1.7737
47.9600 31.9424 1.7782
47.9800 31.9557 1.7786
48.0000 31.9690 1.7757
48.0200 31.9824 1.7834
48.0400 31.9958 1.7790
48.0600 32.0091 1.7852
48.0800 32.0224 1.7865
48.1000 32.0358 1.7811
48.1200 32.0492 1.7845
48.1400 32.0626 1.7870
48.1600 32.0759 1.7868
48.1800 32.0892 1.7929
48.2000 32.1025 1.7889
48.2200 32.1158 1.7859
48.2400 32.1291 1.7920
48.2600 32.1424 1.7963
48.2800 32.1558 1.7930
48.3000 32.1691 1.7945
48.3200 32.1825 1.7907
48.3400 32.1958 1.7968
48.3600 32.2091 1.7992
48.3800 32.2224 1.7972
48.4000 32.2358 1.8008
48.4200 32.2491 1.8016
48.4400 32.2624 1.7990
48.4600 32.2758 1.8020
48.4800 32.2892 1.8073
48.5000 32.3025 1.8042
48.5200 32.3158 1.8058
48.5400 32.3291 1.8090
48.5600 32.3425 1.8043
48.5800 32.3559 1.8102
48.6000 32.3692 1.8098
48.6200 32.3825 1.8099
48.6400 32.3958 1.8143
48.6600 32.4091 1.8175
48.6800 32.4225 1.8147
48.7000 32.4358 1.8195
48.7200 32.4491 1.8215
48.7400 32.4624 1.8173
48.7600 32.4758 1.8228
48.7800 32.4891 1.8185
48.8000 32.5024 1.8211
48.8200 32.5158 1.8255
48.8400 32.5292 1.8222
48.8600 32.5425 1.8210
48.8800 32.5558 1.8294
48.9000 32.5692 1.8234
48.9200 32.5825 1.8317
48.9400 32.5959 1.8327
48.9600 32.6092 1.8272
48.9800 32.6224 1.8325
49.0000 32.6358 1.8324
49.0200 32.6491 1.8311
49.0400 32.6625 1.8362
49.0600 32.6758 1.8362
49.0800 32.6891 1.8371
49.1000 32.7024 1.8359
49.1200 32.7158 1.8410
49.1400 32.7291 1.8421
49.1600 32.7424 1.8422
49.1800 32.7558 1.8415
49.2000 32.7692 1.8454
49.2200 32.7825 1.8391
49.2400 32.7958 1.8452
49.2600 32.8092 1.8506
49.2800 32.8225 1.8455
49.3000 32.8359 1.8501
49.3200 32.8492 1.8533
49.3400 32.8625 1.8496
49.3600 32.8758 1.8590
49.3800 32.8891 1.8625
49.4000 32.9025 1.8497
49.4200 32.9158 1.8631
49.4400 32.9291 1.8613
49.4600 32.9424 1.8475
49.4800 32.9558 1.8684
49.5000 32.9691 1.8627
49.5200 32.9824 1.8496
49.5400 32.9958 1.8739
49.5600 33.0092 1.8612
49.5800 33.0225 1.8597
49.6000 33.0358 1.8769
49.6200 33.0491 1.8627
49.6400 33.0625 1.8621
49.6600 33.0759 1.8801
49.6800 33.0892 1.8673
49.7000 33.1025 1.8661
49.7200 33.1158 1.8858
49.7400 33.1291 1.8716
49.7600 33.1425 1.8689
49.7800 33.1558 1.8871
49.8000 33.1690 1.8771
49.8200 33.1824 1.8772
49.8400 33.1957 1.8930
49.8600 33.2090 1.8795
49.8800 33.2224 1.8753
49.9000 33.2358 1.8939
49.9200 33.2492 1.8799
49.9400 33.2626 1.8782
49.9600 33.2759 1.8939
49.9800 33.2892 1.8893
50.0000 33.3025 1.8851
50.0200 33.3159 1.8996
50.0400 33.3292 1.8916
50.0600 33.3424 1.8941
50.0800 33.3557 1.9013
50.1000 33.3691 1.8920
50.1200 33.3824 1.8958
50.1400 33.3957 1.9020
50.1600 33.4091 1.8987
50.1800 33.4224 1.9019
50.2000 33.4358 1.9060
50.2200 33.4491 1.9005
50.2400 33.4624 1.9045
50.2600 33.4758 1.9135
50.2800 33.4892 1.9086
50.3000 33.5025 1.9055
50.3200 33.5159 1.9114
50.3400 33.5291 1.9130
50.3600 33.5425 1.9074
50.3800 33.5558 1.9109
50.4000 33.5691 1.9179
50.4200 33.5825 1.9093
50.4400 33.5958 1.9213
50.4600 33.6091 1.9261
50.4800 33.6225 1.9132
50.5000 33.6358 1.9223
50.5200 33.6491 1.9275
50.5400 33.6624 1.9136
50.5600 33.6758 1.9286
50.5800 33.6891 1.9316
50.6000 33.7024 1.9176
50.6200 33.7158 1.9335
50.6400 33.7292 1.9325
50.6600 33.7425 1.9169
50.6800 33.7559 1.9380
50.7000 33.7692 1.9397
50.7200 33.7825 1.9241
50.7400 33.7959 1.9414
50.7600 33.8092 1.9390
50.7800 33.8225 1.9293
50.8000 33.8358 1.9489
50.8200 33.8491 1.9421
50.8400 33.8625 1.9320
50.8600 33.8758 1.9515
50.8800 33.8891 1.9465
50.9000 33.9024 1.9381
50.9200 33.9158 1.9597
50.9400 33.9291 1.9474
50.9600 33.9424 1.9416
50.9800 33.9558 1.9585
51.0000 33.9691 1.9516
51.0200 33.9825 1.9492
51.0400 33.9959 1.9589
51.0600 34.0092 1.9582
51.0800 34.0225 1.9554
51.1000 34.0358 1.9636
51.1200 34.0492 1.9587
51.1400 34.0625 1.9616
51.1600 34.0758 1.9745
51.1800 34.0891 1.9635
51.2000 34.1025 1.9624
51.2200 34.1158 1.9703
51.2400 34.1291 1.9699
51.2600 34.1424 1.9684
51.2800 34.1558 1.9718
51.3000 34.1691 1.9761
51.3200 34.1824 1.9698
51.3400 34.1958 1.9808
51.3600 34.2091 1.9830
51.3800 34.2225 1.9741
51.4000 34.2358 1.9794
51.4200 34.2491 1.9819
51.4400 34.2625 1.9802
51.4600 34.2759 1.9803
51.4800 34.2892 1.9859
51.5000 34.3025 1.9815
51.5200 34.3158 1.9885
51.5400 34.3291 1.9935
51.5600 34.3424 1.9851
51.5800 34.3558 1.9984
51.6000 34.3691 1.9940
51.6200 34.3824 1.9890
51.6400 34.3957 2.0002
51.6600 34.4091 1.9976
51.6800 34.4224 1.9920
51.7000 34.4358 2.0032
51.7200 34.4492 1.9994
51.7400 34.4625 1.9982
51.7600 34.4759 2.0063
51.7800 34.4892 2.0032
51.8000 34.5025 2.0038
51.8200 34.5159 2.0158
51.8400 34.5292 2.0031
51.8600 34.5425 2.0070
51.8800 34.5558 2.0177
51.9000 34.5691 2.0068
51.9200 34.5825 2.0148
51.9400 34.5958 2.0175
51.9600 34.6091 2.0139
51.9800 34.6224 2.0183
52.0000 34.6357 2.0191
52.0200 34.6491 2.0182
52.0400 34.6624 2.0283
52.0600 34.6757 2.0223
52.0800 34.6891 2.0206
52.1000 34.7025 2.0266
52.1200 34.7159 2.0212
52.1400 34.7292 2.0273
52.1600 34.7425 2.0352
52.1800 34.7559 2.0235
52.2000 34.7692 2.0379
52.2200 34.7825 2.0332
52.2400 34.7958 2.0309
52.2600 34.8091 2.0440
52.2800 34.8224 2.0395
52.3000 34.8358 2.0370
52.3200 34.8491 2.0422
52.3400 34.8624 2.0428
52.3600 34.8758 2.0388
52.3800 34.8892 2.0476
52.4000 34.9025 2.0463
52.4200 34.9158 2.0487
52.4400 34.9291 2.0486
52.4600 34.9425 2.0491
52.4800 34.9558 2.0600
52.5000 34.9691 2.0505
52.5200 34.9824 2.0556
52.5400 34.9958 2.0634
52.5600 35.0092 2.0501
52.5800 35.0225 2.0613
52.6000 35.0358 2.0653
52.6200 35.0492 2.0628
52.6400 35.0625 2.0626
52.6600 35.0758 2.0615
52.6800 35.0891 2.0707
52.7000 35.1024 2.0739
52.7200 35.1158 2.0676
52.7400 35.1291 2.0691
52.7600 35.1424 2.0738
52.7800 35.1557 2.0707
52.8000 35.1691 2.0746
52.8200 35.1825 2.0825
52.8400 35.1958 2.0738
52.8600 35.2091 2.0807
52.8800 35.2225 2.0846
52.9000 35.2358 2.0801
52.9200 35.2492 2.0834
52.9400 35.2625 2.0902
52.9600 35.2758 2.0850
52.9800 35.2892 2.0880
53.0000 35.3025 2.0915
53.0200 35.3158 2.0880
53.0400 35.3291 2.0971
53.0600 35.3424 2.1003
53.0800 35.3557 2.0885
53.1000 35.3691 2.0994
53.1200 35.3824 2.1034
53.1400 35.3958 2.0943
53.1600 35.4091 2.1082
53.1800 35.4225 2.1081
53.2000 35.4359 2.0980
53.2200 35.4492 2.1065
53.2400 35.4625 2.1126
53.2600 35.4759 2.1064
53.2800 35.4892 2.1090
53.3000 35.5025 2.1153
53.3200 35.5158 2.1135
53.3400 35.5291 2.1182
53.3600 35.5425 2.1258
53.3800 35.5558 2.1116
53.4000 35.5691 2.1189
53.4200 35.5824 2.1267
53.4400 35.5958 2.1182
53.4600 35.6091 2.1220
53.4800 35.6225 2.1319
53.5000 35.6358 2.1238
53.5200 35.6491 2.1271
53.5400 35.6625 2.1332
53.5600 35.6758 2.1303
53.5800 35.6892 2.1340
53.6000 35.7025 2.1361
53.6200 35.7158 2.1336
53.6400 35.7292 2.1378
53.6600 35.7425 2.1415
53.6800 35.7558 2.1396
53.7000 35.7691 2.1414
53.7200 35.7825 2.1476
53.7400 35.7958 2.1430
53.7600 35.8091 2.1486
53.7800 35.8224 2.1550
53.8000 35.8357 2.1554
53.8200 35.8491 2.1512
53.8400 35.8624 2.1572
53.8600 35.8758 2.1545
53.8800 35.8891 2.1544
53.9000 35.9025 2.1614
53.9200 35.9159 2.1569
53.9400 35.9292 2.1596
53.9600 35.9425 2.1686
53.9800 35.9558 2.1616
54.0000 35.9692 2.1632
54.0200 35.9825 2.1764
54.0400 35.9958 2.1619
54.0600 36.0091 2.1690
54.0800 36.0225 2.1810
54.1000 36.0358 2.1659
54.1200 36.0491 2.1735
54.1400 36.0624 2.1863
54.1600 36.0758 2.1718
54.1800 36.0891 2.1774
54.2000 36.1024 2.1880
54.2200 36.1158 2.1742
54.2400 36.1291 2.1883
54.2600 36.1425 2.1972
54.2800 36.1558 2.1764
54.3000 36.1692 2.1892
54.3200 36.1825 2.1994
54.3400 36.1958 2.1902
54.3600 36.2092 2.1938
54.3800 36.2225 2.1995
54.4000 36.2358 2.1981
54.4200 36.2491 2.2055
54.4400 36.2624 2.2010
54.4600 36.2758 2.2009
54.4800 36.2891 2.2108
54.5000 36.3024 2.2038
54.5200 36.3157 2.2019
54.5400 36.3291 2.2112
54.5600 36.3425 2.2116
54.5800 36.3558 2.2145
54.6000 36.3691 2.2128
54.6200 36.3825 2.2162
54.6400 36.3958 2.2148
54.6600 36.4091 2.2216
54.6800 36.4224 2.2259
54.7000 36.4358 2.2221
54.7200 36.4492 2.2253
54.7400 36.4625 2.2228
54.7600 36.4758 2.2275
54.7800 36.4892 2.2318
54.8000 36.5025 2.2300
54.8200 36.5159 2.2362
54.8400 36.5292 2.2314
54.8600 36.5424 2.2402
54.8800 36.5557 2.2375
54.9000 36.5691 2.2424
54.9200 36.5824 2.2448
54.9400 36.5957 2.2395
54.9600 36.6091 2.2456
54.9800 36.6225 2.2451
55.0000 36.6359 2.2497
55.0200 36.6492 2.2471
55.0400 36.6625 2.2509
55.0600 36.6758 2.2576
55.0800 36.6892 2.2511
55.1000 36.7025 2.2528
55.1200 36.7158 2.2644
55.1400 36.7291 2.2633
55.1600 36.7424 2.2598
55.1800 36.7558 2.2655
55.2000 36.7691 2.2628
55.2200 36.7824 2.2652
55.2400 36.7957 2.2725
55.2600 36.8091 2.2678
55.2800 36.8224 2.2736
55.3000 36.8358 2.2767
55.3200 36.8491 2.2712
55.3400 36.8625 2.2816
55.3600 36.8759 2.2837
55.3800 36.8892 2.2752
55.4000 36.9025 2.2861
55.4200 36.9159 2.2901
55.4400 36.9292 2.2796
55.4600 36.9425 2.2896
55.4800 36.9558 2.2966
55.5000 36.9691 2.2870
55.5200 36.9824 2.2950
55.5400 36.9958 2.2996
55.5600 37.0091 2.2963
55.5800 37.0224 2.3090
55.6000 37.0357 2.3025
55.6200 37.0491 2.2991
55.6400 37.0624 2.3025
55.6600 37.0758 2.3105
55.6800 37.0891 2.3052
55.7000 37.1025 2.3121
55.7200 37.1159 2.3143
55.7400 37.1292 2.3089
55.7600 37.1425 2.3197
55.7800 37.1558 2.3187
55.8000 37.1692 2.3184
55.8200 37.1825 2.3242
55.8400 37.1958 2.3237
55.8600 37.2091 2.3248
55.8800 37.2225 2.3285
55.9000 37.2358 2.3306
55.9200 37.2491 2.3250
55.9400 37.2624 2.3373
55.9600 37.2757 2.3370
55.9800 37.2891 2.3300
56.0000 37.3024 2.3421
56.0200 37.3158 2.3414
56.0400 37.3291 2.3375
56.0600 37.3425 2.3504
56.0800 37.3559 2.3466
56.1000 37.3692 2.3408
56.1200 37.3825 2.3558
56.1400 37.3958 2.3502
56.1600 37.4092 2.3481
56.1800 37.4225 2.3628
56.2000 37.4358 2.3536
56.2200 37.4491 2.3579
56.2400 37.4625 2.3705
56.2600 37.4758 2.3581
56.2800 37.4892 2.3626
56.3000 37.5024 2.3707
56.3200 37.5158 2.3638
56.3400 37.5291 2.3694
56.3600 37.5424 2.3746
56.3800 37.5558 2.3658
56.4000 37.5691 2.3815
56.4200 37.5825 2.3816
56.4400 37.5958 2.3723
56.4600 37.6092 2.3879
56.4800 37.6225 2.3847
56.5000 37.6358 2.3833
56.5200 37.6492 2.3912
56.5400 37.6625 2.3871
56.5600 37.6758 2.3896
56.5800 37.6891 2.3966
56.6000 37.7025 2.3917
56.6200 37.7158 2.3984
56.6400 37.7291 2.4012
56.6600 37.7424 2.3966
56.6800 37.7557 2.4052
56.7000 37.7691 2.4072
56.7200 37.7824 2.4025
56.7400 37.7958 2.4116
56.7600 37.8091 2.4123
56.7800 37.8225 2.4064
56.8000 37.8358 2.4171
56.8200 37.8492 2.4153
56.8400 37.8625 2.4127
56.8600 37.8758 2.4244
56.8800 37.8891 2.4233
56.9000 37.9025 2.4231
56.9200 37.9158 2.4320
56.9400 37.9291 2.4277
56.9600 37.9425 2.4248
56.9800 37.9558 2.4385
57.0000 37.9691 2.4319
57.0200 37.9824 2.4312
57.0400 37.9957 2.4481
57.0600 38.0091 2.4407
57.0800 38.0224 2.4363
57.1000 38.0357 2.4520
57.1200 38.0491 2.4456
57.1400 38.0625 2.4479
57.1600 38.0759 2.4497
57.1800 38.0892 2.4520
57.2000 38.1025 2.4535
57.2200 38.1159 2.4586
57.2400 38.1292 2.4603
57.2600 38.1426 2.4589
57.2800 38.1558 2.4669
57.3000 38.1691 2.4673
57.3200 38.1824 2.4632
57.3400 38.1958 2.4771
57.3600 38.2091 2.4724
57.3800 38.2224 2.4698
57.4000 38.2357 2.4781
57.4200 38.2491 2.4786
57.4400 38.2625 2.4729
57.4600 38.2758 2.4839
57.4800 38.2891 2.4908
57.5000 38.3025 2.4811
57.5200 38.3159 2.4883
57.5400 38.3292 2.4951
57.5600 38.3425 2.4877
57.5800 38.3558 2.4993
57.6000 38.3692 2.5009
57.6200 38.3825 2.4896
57.6400 38.3958 2.5022
57.6600 38.4091 2.5095
57.6800 38.4224 2.4964
57.7000 38.4358 2.5110
57.7200 38.4491 2.5140
57.7400 38.4624 2.5010
57.7600 38.4757 2.5180
57.7800 38.4891 2.5202
57.8000 38.5024 2.5108
57.8200 38.5158 2.5270
57.8400 38.5291 2.5268
57.8600 38.5425 2.5158
57.8800 38.5558 2.5312
57.9000 38.5692 2.5307
57.9200 38.5825 2.5245
57.9400 38.5958 2.5400
57.9600 38.6092 2.5381
57.9800 38.6225 2.5289
58.0000 38.6358 2.5448
58.0200 38.6491 2.5448
58.0400 38.6624 2.5385
58.0600 38.6758 2.5508
58.0800 38.6891 2.5476
58.1000 38.7024 2.5453
58.1200 38.7157 2.5607
58.1400 38.7291 2.5570
58.1600 38.7424 2.5501
58.1800 38.7558 2.5639
58.2000 38.7691 2.5621
58.2200 38.7825 2.5558
58.2400 38.7958 2.5751
58.2600 38.8092 2.5668
58.2800 38.8225 2.5684
58.3000 38.8358 2.5784
58.3200 38.8492 2.5749
58.3400 38.8625 2.5734
58.3600 38.8758 2.5850
58.3800 38.8891 2.5857
58.4000 38.9024 2.5785
58.4200 38.9158 2.5876
58.4400 38.9291 2.5928
58.4600 38.9424 2.5862
58.4800 38.9558 2.5940
58.5000 38.9691 2.5975
58.5200 38.9825 2.5961
58.5400 38.9958 2.5971
58.5600 39.0091 2.6067
58.5800 39.0225 2.6055
58.6000 39.0358 2.6070
58.6200 39.0492 2.6149
58.6400 39.0625 2.6073
58.6600 39.0758 2.6179
58.6800 39.0891 2.6292
58.7000 39.1025 2.6102
58.7200 39.1159 2.6247
58.7400 39.1292 2.6319
58.7600 39.1425 2.6183
58.7800 39.1558 2.6319
58.8000 39.1691 2.6396
58.8200 39.1824 2.6265
58.8400 39.1957 2.6412
58.8600 39.2091 2.6480
58.8800 39.2224 2.6332
58.9000 39.2358 2.6507
58.9200 39.2491 2.6546
58.9400 39.2625 2.6439
58.9600 39.2759 2.6506
58.9800 39.2892 2.6538
59.0000 39.3025 2.6530
59.0200 39.3158 2.6602
59.0400 39.3292 2.6649
59.0600 39.3425 2.6597
59.0800 39.3559 2.6647
59.1000 39.3691 2.6704
59.1200 39.3824 2.6728
59.1400 39.3958 2.6716
59.1600 39.4091 2.6765
59.1800 39.4224 2.6796
59.2000 39.4358 2.6798
59.2200 39.4491 2.6871
59.2400 39.4624 2.6861
59.2600 39.4758 2.6855
59.2800 39.4891 2.6957
59.3000 39.5024 2.6910
59.3200 39.5158 2.6934
59.3400 39.5292 2.7079
59.3600 39.5425 2.6995
59.3800 39.5558 2.6998
59.4000 39.5692 2.7108
59.4200 39.5825 2.7032
59.4400 39.5958 2.7096
59.4600 39.6091 2.7183
59.4800 39.6224 2.7119
59.5000 39.6357 2.7137
59.5200 39.6491 2.7230
59.5400 39.6624 2.7206
59.5600 39.6757 2.7299
59.5800 39.6891 2.7332
59.6000 39.7025 2.7275
59.6200 39.7158 2.7348
59.6400 39.7291 2.7396
59.6600 39.7425 2.7363
59.6800 39.7558 2.7411
59.7000 39.7692 2.7474
59.7200 39.7825 2.7413
59.7400 39.7958 2.7510
59.7600 39.8091 2.7542
59.7800 39.8225 2.7538
59.8000 39.8358 2.7638
59.8200 39.8492 2.7593
59.8400 39.8625 2.7609
59.8600 39.8758 2.7632
59.8800 39.8892 2.7688
59.9000 39.9025 2.7705
59.9200 39.9158 2.7696
59.9400 39.9291 2.7773
59.9600 39.9425 2.7803
59.9800 39.9558 2.7777
60.0000 39.9691 2.7858
60.0200 39.9824 2.7887
60.0400 39.9958 2.7807
60.0470 40.0003 2.7658
60.0480 40.0010 2.7630
60.0490 40.0016 2.7603
60.0690 40.0120 2.6880
60.0890 40.0140 2.6293
60.1090 40.0056 2.7177
60.1290 39.9928 2.8082
60.1490 39.9799 2.7675
60.1690 39.9671 2.7393
60.1890 39.9536 2.7728
60.2090 39.9396 2.7439
60.2290 39.9255 2.7463
60.2490 39.9118 2.7634
60.2690 39.8983 2.7234
60.2890 39.8850 2.7294
60.3090 39.8717 2.7387
60.3290 39.8584 2.7068
60.3490 39.8450 2.7093
60.3690 39.8316 2.7227
60.3890 39.8183 2.6925
60.4090 39.8049 2.7044
60.4290 39.7916 2.7019
60.4490 39.7782 2.6825
60.4690 39.7648 2.6960
60.4890 39.7515 2.6851
60.5090 39.7382 2.6697
60.5290 39.7249 2.6764
60.5490 39.7115 2.6684
60.5690 39.6982 2.6604
60.5890 39.6849 2.6594
60.6090 39.6715 2.6512
60.6290 39.6582 2.6508
60.6490 39.6449 2.6501
60.6690 39.6316 2.6373
60.6890 39.6183 2.6412
60.7090 39.6049 2.6321
60.7290 39.5916 2.6223
60.7490 39.5782 2.6309
60.7690 39.5649 2.6204
60.7890 39.5516 2.6074
60.8090 39.5382 2.6146
60.8290 39.5249 2.6093
60.8490 39.5115 2.5952
60.8690 39.4982 2.6019
60.8890 39.4849 2.5952
60.9090 39.4715 2.5864
60.9290 39.4582 2.5930
60.9490 39.4449 2.5813
60.9690 39.4316 2.5780
60.9890 39.4182 2.5783
61.0090 39.4049 2.5662
61.0290 39.3916 2.5700
61.0490 39.3783 2.5693
61.0690 39.3650 2.5501
61.0890 39.3516 2.5603
61.1090 39.3382 2.5591
61.1290 39.3249 2.5406
61.1490 39.3116 2.5501
61.1690 39.2982 2.5419
61.1890 39.2848 2.5302
61.2090 39.2715 2.5391
61.2290 39.2582 2.5265
61.2490 39.2449 2.5166
61.2690 39.2315 2.5333
61.2890 39.2181 2.5185
61.3090 39.2048 2.5057
61.3290 39.1915 2.5155
61.3490 39.1782 2.5122
61.3690 39.1648 2.5012
61.3890 39.1515 2.5002
61.4090 39.1382 2.4957
61.4290 39.1249 2.4880
61.4490 39.1116 2.4852
61.4690 39.0982 2.4882
61.4890 39.0849 2.4827
61.5090 39.0716 2.4786
61.5290 39.0582 2.4726
61.5490 39.0448 2.4713
61.5690 39.0315 2.4677
61.5890 39.0182 2.4692
61.6090 39.0049 2.4578
61.6290 38.9915 2.4569
61.6490 38.9782 2.4547
61.6690 38.9648 2.4493
61.6890 38.9515 2.4500
61.7090 38.9382 2.4443
61.7290 38.9249 2.4366
61.7490 38.9115 2.4363
61.7690 38.8982 2.4355
61.7890 38.8849 2.4272
61.8090 38.8715 2.4300
61.8290 38.8582 2.4319
61.8490 38.8449 2.4151
61.8690 38.8316 2.4165
61.8890 38.8182 2.4171
61.9090 38.8049 2.4023
61.9290 38.7915 2.4086
61.9490 38.7782 2.4057
61.9690 38.7648 2.3983
61.9890 38.7515 2.3990
62.0090 38.7381 2.3969
62.0290 38.7248 2.3934
62.0490 38.7115 2.3879
62.0690 38.6982 2.3848
62.0890 38.6849 2.3824
62.1090 38.6716 2.3751
62.1290 38.6583 2.3767
62.1490 38.6449 2.3730
62.1690 38.6315 2.3702
62.1890 38.6182 2.3700
62.2090 38.6049 2.3643
62.2290 38.5916 2.3568
62.2490 38.5782 2.3609
62.2690 38.5648 2.3552
62.2890 38.5515 2.3461
62.3090 38.5382 2.3520
62.3290 38.5249 2.3473
62.3490 38.5115 2.3333
62.3690 38.4982 2.3432
62.3890 38.4848 2.3401
62.4090 38.4715 2.3243
62.4290 38.4582 2.3368
62.4490 38.4448 2.3351
62.4690 38.4315 2.3169
62.4890 38.4182 2.3272
62.5090 38.4049 2.3156
62.5290 38.3916 2.3108
62.5490 38.3782 2.3152
62.5690 38.3649 2.3030
62.5890 38.3516 2.3043
62.6090 38.3382 2.3077
62.6290 38.3248 2.2978
62.6490 38.3115 2.2950
62.6690 38.2982 2.3021
62.6890 38.2848 2.2919
62.7090 38.2715 2.2861
62.7290 38.2581 2.2939
62.7490 38.2448 2.2808
62.7690 38.2315 2.2777
62.7890 38.2182 2.2847
62.8090 38.2048 2.2729
62.8290 38.1915 2.2663
62.8490 38.1782 2.2803
62.8690 38.1649 2.2616
62.8890 38.1515 2.2560
62.9090 38.1382 2.2755
62.9290 38.1249 2.2574
62.9490 38.1116 2.2477
62.9690 38.0982 2.2610
62.9890 38.0848 2.2443
63.0090 38.0714 2.2426
63.0290 38.0581 2.2543
63.0490 38.0448 2.2339
63.0690 38.0315 2.2375
63.0890 38.0181 2.2441
63.1090 38.0048 2.2270
63.1290 37.9915 2.2338
63.1490 37.9782 2.2367
63.1690 37.9649 2.2165
63.1890 37.9515 2.2265
63.2090 37.9383 2.2259
63.2290 37.9249 2.2120
63.2490 37.9116 2.2150
63.2690 37.8982 2.2183
63.2890 37.8849 2.2032
63.3090 37.8715 2.2047
63.3290 37.8582 2.2131
63.3490 37.8448 2.2040
63.3690 37.8315 2.1953
63.3890 37.8182 2.2015
63.4090 37.8049 2.1913
63.4290 37.7915 2.1882
63.4490 37.7781 2.1976
63.4690 37.7648 2.1846
63.4890 37.7515 2.1782
63.5090 37.7382 2.1884
63.5290 37.7249 2.1752
63.5490 37.7115 2.1753
63.5690 37.6982 2.1838
63.5890 37.6849 2.1670
63.6090 37.6716 2.1674
63.6290 37.6582 2.1743
63.6490 37.6449 2.1606
63.6690 37.6316 2.1598
63.6890 37.6182 2.1647
63.7090 37.6048 2.1573
63.7290 37.5915 2.1514
63.7490 37.5782 2.1537
63.7690 37.5648 2.1510
63.7890 37.5515 2.1492
63.8090 37.5381 2.1514
63.8290 37.5248 2.1402
63.8490 37.5115 2.1445
63.8690 37.4982 2.1384
63.8890 37.4848 2.1311
63.9090 37.4715 2.1346
63.9290 37.4582 2.1291
63.9490 37.4449 2.1253
63.9690 37.4315 2.1287
63.9890 37.4182 2.1247
64.0090 37.4049 2.1201
64.0290 37.3916 2.1250
64.0490 37.3782 2.1163
64.0690 37.3649 2.1088
64.0890 37.3515 2.1222
64.1090 37.3382 2.1062
64.1290 37.3249 2.1041
64.1490 37.3115 2.1133
64.1690 37.2981 2.1001
64.1890 37.2848 2.1001
64.2090 37.2715 2.1053
64.2290 37.2582 2.0915
64.2490 37.2448 2.0969
64.2690 37.2315 2.0989
64.2890 37.2182 2.0813
64.3090 37.2049 2.0887
64.3290 37.1916 2.0869
64.3490 37.1782 2.0746
64.3690 37.1649 2.0860
64.3890 37.1516 2.0850
64.4090 37.1382 2.0676
64.4290 37.1249 2.0799
64.4490 37.1115 2.0802
64.4690 37.0982 2.0640
64.4890 37.0849 2.0735
64.5090 37.0715 2.0681
64.5290 37.0581 2.0553
64.5490 37.0448 2.0665
64.5690 37.0315 2.0572
64.5890 37.0181 2.0486
64.6090 37.0048 2.0632
64.6290 36.9915 2.0517
64.6490 36.9782 2.0441
64.6690 36.9649 2.0566
64.6890 36.9516 2.0436
64.7090 36.9382 2.0398
64.7290 36.9249 2.0504
64.7490 36.9116 2.0351
64.7690 36.8982 2.0325
64.7890 36.8849 2.0460
64.8090 36.8715 2.0267
64.8290 36.8582 2.0287
64.8490 36.8448 2.0370
64.8690 36.8315 2.0217
64.8890 36.8181 2.0227
64.9090 36.8048 2.0337
64.9290 36.7915 2.0194
64.9490 36.7782 2.0109
64.9690 36.7649 2.0249
64.9890 36.7515 2.0152
65.0090 36.7383 2.0067
65.0290 36.7249 2.0139
65.0490 36.7116 2.0097
65.0690 36.6982 2.0037
65.0890 36.6849 2.0102
65.1090 36.6716 2.0026
65.1290 36.6582 1.9988
65.1490 36.6449 2.0053
65.1690 36.6315 1.9979
65.1890 36.6181 1.9923
65.2090 36.6048 2.0009
65.2290 36.5915 1.9875
65.2490 36.5782 1.9799
65.2690 36.5648 2.0000
65.2890 36.5515 1.9855
65.3090 36.5382 1.9729
65.3290 36.5249 1.9901
65.3490 36.5115 1.9811
65.3690 36.4982 1.9719
65.3890 36.4849 1.9842
65.4090 36.4716 1.9782
65.4290 36.4582 1.9658
65.4490 36.4449 1.9762
65.4690 36.4315 1.9661
65.4890 36.4182 1.9619
65.5090 36.4048 1.9717
65.5290 36.3915 1.9605
65.5490 36.3782 1.9546
65.5690 36.3648 1.9653
65.5890 36.3515 1.9592
65.6090 36.3382 1.9503
65.6290 36.3249 1.9577
65.6490 36.3115 1.9511
65.6690 36.2982 1.9454
65.6890 36.2849 1.9553
65.7090 36.2715 1.9462
65.7290 36.2582 1.9396
65.7490 36.2449 1.9468
65.7690 36.2316 1.9381
65.7890 36.2182 1.9345
65.8090 36.2049 1.9437
65.8290 36.1915 1.9328
65.8490 36.1782 1.9258
65.8690 36.1648 1.9335
65.8890 36.1515 1.9297
65.9090 36.1381 1.9226
65.9290 36.1248 1.9322
65.9490 36.1115 1.9227
65.9690 36.0982 1.9137
65.9890 36.0848 1.9274
66.0090 36.0715 1.9201
66.0290 36.0582 1.9108
66.0490 36.0449 1.9208
66.0690 36.0315 1.9116
66.0890 36.0182 1.8997
66.1090 36.0049 1.9217
66.1290 35.9916 1.9022
66.1490 35.9782 1.8970
66.1690 35.9648 1.9160
66.1890 35.9515 1.9012
66.2090 35.9382 1.8883
66.2290 35.9249 1.9075
66.2490 35.9115 1.9017
66.2690 35.8982 1.8881
66.2890 35.8849 1.8982
66.3090 35.8715 1.8921
66.3290 35.8582 1.8793
66.3490 35.8448 1.8942
66.3690 35.8315 1.8853
66.3890 35.8182 1.8751
66.4090 35.8049 1.8889
66.4290 35.7915 1.8801
66.4490 35.7782 1.8746
66.4690 35.7649 1.8846
66.4890 35.7516 1.8728
66.5090 35.7382 1.8664
66.5290 35.7249 1.8753
66.5490 35.7116 1.8679
66.5690 35.6982 1.8628
66.5890 35.6849 1.8730
66.6090 35.6715 1.8660
66.6290 35.6581 1.8580
66.6490 35.6448 1.8657
66.6690 35.6315 1.8558
66.6890 35.6182 1.8595
66.7090 35.6048 1.8622
66.7290 35.5915 1.8521
66.7490 35.5782 1.8492
66.7690 35.5649 1.8577
66.7890 35.5515 1.8457
66.8090 35.5382 1.8482
66.8290 35.5249 1.8507
66.8490 35.5116 1.8424
66.8690 35.4982 1.8366
66.8890 35.4849 1.8507
66.9090 35.4716 1.8444
66.9290 35.4582 1.8324
66.9490 35.4449 1.8402
66.9690 35.4315 1.8340
66.9890 35.4181 1.8298
67.0090 35.4048 1.8325
67.0290 35.3915 1.8269
67.0490 35.3781 1.8289
67.0690 35.3648 1.8285
67.0890 35.3515 1.8224
67.1090 35.3382 1.8231
67.1290 35.3249 1.8235
67.1490 35.3116 1.8256
67.1690 35.2982 1.8184
67.1890 35.2849 1.8125
67.2090 35.2716 1.8134
67.2290 35.2582 1.8120
67.2490 35.2449 1.8128
67.2690 35.2316 1.8130
67.2890 35.2182 1.8074
67.3090 35.2049 1.8039
67.3290 35.1915 1.8095
67.3490 35.1781 1.8041
67.3690 35.1648 1.8015
67.3890 35.1515 1.8044
67.4090 35.1382 1.7954
67.4290 35.1248 1.7964
67.4490 35.1115 1.7979
67.4690 35.0982 1.7907
67.4890 35.0849 1.7939
67.5090 35.0715 1.7976
67.5290 35.0582 1.7821
67.5490 35.0449 1.7875
67.5690 35.0316 1.7936
67.5890 35.0182 1.7822
67.6090 35.0049 1.7808
67.6290 34.9916 1.7881
67.6490 34.9782 1.7788
67.6690 34.9649 1.7805
67.6890 34.9515 1.7821
67.7090 34.9381 1.7749
67.7290 34.9248 1.7706
67.7490 34.9115 1.7758
67.7690 34.8982 1.7692
67.7890 34.8848 1.7719
67.8090 34.8715 1.7715
67.8290 34.8582 1.7655
67.8490 34.8448 1.7645
67.8690 34.8315 1.7655
67.8890 34.8182 1.7617
67.9090 34.8049 1.7593
67.9290 34.7916 1.7607
67.9490 34.7782 1.7555
67.9690 34.7649 1.7559
67.9890 34.7516 1.7523
68.0090 34.7383 1.7529
68.0290 34.7249 1.7544
68.0490 34.7115 1.7470
68.0690 34.6982 1.7500
68.0890 34.6849 1.7479
68.1090 34.6716 1.7454
68.1290 34.6582 1.7448
68.1490 34.6448 1.7413
68.1690 34.6315 1.7439
68.1890 34.6182 1.7408
68.2090 34.6048 1.7370
68.2290 34.5915 1.7376
68.2490 34.5782 1.7454
68.2690 34.5649 1.7292
68.2890 34.5516 1.7326
68.3090 34.5382 1.7393
68.3290 34.5248 1.7247
68.3490 34.5115 1.7301
68.3690 34.4982 1.7311
68.3890 34.4849 1.7219
68.4090 34.4715 1.7266
68.4290 34.4581 1.7255
68.4490 34.4448 1.7211
68.4690 34.4315 1.7229
68.4890 34.4182 1.7162
68.5090 34.4048 1.7168
68.5290 34.3915 1.7183
68.5490 34.3782 1.7147
68.5690 34.3648 1.7127
68.5890 34.3515 1.7082
68.6090 34.3382 1.7132
68.6290 34.3249 1.7066
68.6490 34.3116 1.7028
68.6690 34.2982 1.7114
68.6890 34.2849 1.7033
68.7090 34.2715 1.6984
68.7290 34.2582 1.7057
68.7490 34.2449 1.6961
68.7690 34.2315 1.6952
68.7890 34.2181 1.7049
68.8090 34.2048 1.6922
68.8290 34.1915 1.6892
68.8490 34.1782 1.6992
68.8690 34.1648 1.6879
68.8890 34.1515 1.6840
68.9090 34.1382 1.6972
68.9290 34.1249 1.6788
68.9490 34.1115 1.6810
68.9690 34.0982 1.6938
68.9890 34.0849 1.6791
69.0090 34.0716 1.6762
69.0290 34.0582 1.6856
69.0490 34.0449 1.6764
69.0690 34.0315 1.6766
69.0890 34.0182 1.6749
69.1090 34.0049 1.6683
69.1290 33.9915 1.6717
69.1490 33.9782 1.6782
69.1690 33.9648 1.6622
69.1890 33.9515 1.6699
69.2090 33.9382 1.6709
69.2290 33.9248 1.6553
69.2490 33.9115 1.6644
69.2690 33.8982 1.6704
69.2890 33.8849 1.6567
69.3090 33.8716 1.6552
69.3290 33.8582 1.6614
69.3490 33.8449 1.6552
69.3690 33.8316 1.6549
69.3890 33.8182 1.6570
69.4090 33.8048 1.6492
69.4290 33.7915 1.6485
69.4490 33.7782 1.6574
69.4690 33.7649 1.6409
69.4890 33.7515 1.6424
69.5090 33.7382 1.6556
69.5290 33.7248 1.6401
69.5490 33.7115 1.6358
69.5690 33.6982 1.6528
69.5890 33.6848 1.6375
69.6090 33.6715 1.6344
69.6290 33.6582 1.6476
69.6490 33.6449 1.6293
69.6690 33.6315 1.6292
69.6890 33.6182 1.6448
69.7090 33.6049 1.6254
69.7290 33.5916 1.6294
69.7490 33.5782 1.6404
69.7690 33.5649 1.6221
69.7890 33.5515 1.6304
69.8090 33.5382 1.6358
69.8290 33.5249 1.6159
69.8490 33.5115 1.6234
69.8690 33.4982 1.6302
69.8890 33.4848 1.6130
69.9090 33.4715 1.6211
69.9290 33.4582 1.6254
69.9490 33.4448 1.6067
69.9690 33.4315 1.6196
69.9890 33.4182 1.6196
70.0090 33.4048 1.6081
70.0290 33.3915 1.6137
70.0490 33.3782 1.6178
70.0690 33.3649 1.6013
70.0890 33.3516 1.6082
70.1090 33.3382 1.6086
70.1290 33.3249 1.6006
70.1490 33.3115 1.6079
70.1690 33.2982 1.6052
70.1890 33.2849 1.6016
70.2090 33.2715 1.5999
70.2290 33.2582 1.6057
70.2490 33.2448 1.5983
70.2690 33.2315 1.5953
70.2890 33.2182 1.6007
70.3090 33.2048 1.5876
70.3290 33.1914 1.5914
70.3490 33.1781 1.5968
70.3690 33.1648 1.5862
70.3890 33.1515 1.5909
70.4090 33.1382 1.5929
70.4290 33.1249 1.5834
70.4490 33.1116 1.5856
70.4690 33.0983 1.5878
70.4890 33.0849 1.5797
70.5090 33.0715 1.5837
70.5290 33.0582 1.5817
70.5490 33.0449 1.5754
70.5690 33.0315 1.5793
70.5890 33.0182 1.5811
70.6090 33.0048 1.5746
70.6290 32.9915 1.5751
70.6490 32.9782 1.5723
70.6690 32.9648 1.5726
70.6890 32.9514 1.5746
70.7090 32.9381 1.5713
70.7290 32.9248 1.5640
70.7490 32.9115 1.5671
70.7690 32.8982 1.5702
70.7890 32.8849 1.5621
70.8090 32.8716 1.5635
70.8290 32.8582 1.5671
70.8490 32.8449 1.5596
70.8690 32.8315 1.5642
70.8890 32.8182 1.5604
70.9090 32.8049 1.5580
70.9290 32.7915 1.5591
70.9490 32.7781 1.5577
70.9690 32.7648 1.5532
70.9890 32.7515 1.5492
71.0090 32.7382 1.5534
71.0290 32.7248 1.5514
71.0490 32.7115 1.5488
71.0690 32.6982 1.5490
71.0890 32.6849 1.5455
71.1090 32.6715 1.5459
71.1290 32.6582 1.5487
71.1490 32.6449 1.5479
71.1690 32.6316 1.5377
71.1890 32.6182 1.5411
71.2090 32.6049 1.5431
71.2290 32.5915 1.5369
71.2490 32.5782 1.5403
71.2690 32.5649 1.5381
71.2890 32.5516 1.5331
71.3090 32.5382 1.5346
71.3290 32.5248 1.5363
71.3490 32.5115 1.5334
71.3690 32.4982 1.5379
71.3890 32.4848 1.5292
71.4090 32.4715 1.5281
71.4290 32.4581 1.5312
71.4490 32.4448 1.5246
71.4690 32.4315 1.5251
71.4890 32.4182 1.5316
71.5090 32.4049 1.5224
71.5290 32.3916 1.5184
71.5490 32.3783 1.5251
71.5690 32.3649 1.5188
71.5890 32.3515 1.5217
71.6090 32.3382 1.5244
71.6290 32.3249 1.5143
71.6490 32.3115 1.5146
71.6690 32.2982 1.5183
71.6890 32.2848 1.5120
71.7090 32.2715 1.5145
71.7290 32.2582 1.5095
71.7490 32.2449 1.5082
71.7690 32.2315 1.5135
71.7890 32.2181 1.5099
71.8090 32.2048 1.5091
71.8290 32.1915 1.5070
71.8490 32.1782 1.5044
71.8690 32.1648 1.5033
71.8890 32.1516 1.5048
71.9090 32.1382 1.5019
71.9290 32.1249 1.5005
71.9490 32.1116 1.5007
71.9690 32.0983 1.4946
71.9890 32.0849 1.5003
72.0090 32.0716 1.5005
72.0290 32.0582 1.4937
72.0490 32.0448 1.4934
72.0690 32.0315 1.4930
72.0890 32.0182 1.4895
72.1090 32.0048 1.4931
72.1290 31.9914 1.4878
72.1490 31.9781 1.4912
72.1690 31.9648 1.4861
72.1890 31.9515 1.4884
72.2090 31.9382 1.4846
72.2290 31.9249 1.4875
72.2490 31.9116 1.4857
72.2690 31.8983 1.4778
72.2890 31.8849 1.4811
72.3090 31.8715 1.4851
72.3290 31.8582 1.4753
72.3490 31.8449 1.4811
72.3690 31.8315 1.4813
72.3890 31.8182 1.4689
72.4090 31.8048 1.4771
72.4290 31.7915 1.4791
72.4490 31.7782 1.4669
72.4690 31.7648 1.4744
72.4890 31.7515 1.4765
72.5090 31.7381 1.4621
72.5290 31.7248 1.4739
72.5490 31.7115 1.4708
72.5690 31.6982 1.4608
72.5890 31.6849 1.4726
72.6090 31.6716 1.4678
72.6290 31.6582 1.4555
72.6490 31.6449 1.4697
72.6690 31.6315 1.4673
72.6890 31.6182 1.4520
72.7090 31.6049 1.4671
72.7290 31.5915 1.4598
72.7490 31.5782 1.4468
72.7690 31.5648 1.4642
72.7890 31.5515 1.4586
72.8090 31.5382 1.4463
72.8290 31.5249 1.4616
72.8490 31.5115 1.4568
72.8690 31.4982 1.4406
72.8890 31.4849 1.4623
72.9090 31.4715 1.4543
72.9290 31.4582 1.4356
72.9490 31.4449 1.4551
72.9690 31.4316 1.4521
72.9890 31.4183 1.4328
73.0090 31.4049 1.4543
73.0290 31.3915 1.4454
73.0490 31.3782 1.4319
73.0690 31.3649 1.4533
73.0890 31.3515 1.4415
73.1090 31.3382 1.4267
73.1290 31.3248 1.4528
73.1490 31.3115 1.4360
73.1690 31.2982 1.4252
73.1890 31.2849 1.4490
73.2090 31.2715 1.4335
73.2290 31.2582 1.4243
73.2490 31.2449 1.4484
73.2690 31.2315 1.4254
73.2890 31.2182 1.4241
73.3090 31.2049 1.4421
73.3290 31.1916 1.4244
73.3490 31.1783 1.4204
73.3690 31.1649 1.4341
73.3890 31.1515 1.4216
73.4090 31.1382 1.4213
73.4290 31.1249 1.4333
73.4490 31.1115 1.4156
73.4690 31.0982 1.4134
73.4890 31.0848 1.4277
73.5090 31.0715 1.4198
73.5290 31.0582 1.4139
73.5490 31.0448 1.4227
73.5690 31.0315 1.4166
73.5890 31.0181 1.4092
73.6090 31.0048 1.4207
73.6290 30.9915 1.4139
73.6490 30.9782 1.4024
73.6690 30.9649 1.4212
73.6890 30.9516 1.4110
73.7090 30.9383 1.4039
73.7290 30.9249 1.4174
73.7490 30.9115 1.4061
73.7690 30.8982 1.4011
73.7890 30.8849 1.4120
73.8090 30.8715 1.4047
73.8290 30.8582 1.3975
73.8490 30.8448 1.4117
73.8690 30.8315 1.4026
73.8890 30.8182 1.3966
73.9090 30.8048 1.4043
73.9290 30.7915 1.4014
73.9490 30.7781 1.3971
73.9690 30.7648 1.3990
73.9890 30.7515 1.3997
74.0090 30.7382 1.3941
74.0290 30.7248 1.3909
74.0490 30.7115 1.4007
74.0690 30.6982 1.3886
74.0890 30.6849 1.3874
74.1090 30.6716 1.3989
74.1290 30.6582 1.3872
74.1490 30.6449 1.3844
74.1690 30.6316 1.3955
74.1890 30.6182 1.3784
74.2090 30.6048 1.3832
74.2290 30.5915 1.3969
74.2490 30.5782 1.3725
74.2690 30.5648 1.3810
74.2890 30.5515 1.3957
74.3090 30.5381 1.3729
74.3290 30.5248 1.3794
74.3490 30.5115 1.3867
74.3690 30.4982 1.3718
74.3890 30.4849 1.3737
74.4090 30.4716 1.3895
74.4290 30.4583 1.3671
74.4490 30.4449 1.3728
74.4690 30.4315 1.3823
74.4890 30.4182 1.3650
74.5090 30.4049 1.3733
74.5290 30.3915 1.3756
74.5490 30.3782 1.3625
74.5690 30.3648 1.3706
74.5890 30.3515 1.3703
74.6090 30.3382 1.3631
74.6290 30.3249 1.3677
74.6490 30.3115 1.3679
74.6690 30.2982 1.3623
74.6890 30.2849 1.3670
74.7090 30.2715 1.3656
74.7290 30.2582 1.3585
74.7490 30.2448 1.3648
74.7690 30.2315 1.3592
74.7890 30.2182 1.3563
74.8090 30.2049 1.3613
74.8290 30.1915 1.3551
74.8490 30.1782 1.3573
74.8690 30.1649 1.3573
74.8890 30.1516 1.3512
74.9090 30.1382 1.3545
74.9290 30.1248 1.3533
74.9490 30.1115 1.3507
74.9690 30.0982 1.3522
74.9890 30.0849 1.3522
75.0090 30.0715 1.3453
75.0290 30.0581 1.3535
75.0490 30.0448 1.3477
75.0690 30.0315 1.3471
75.0890 30.0182 1.3493
75.1090 30.0048 1.3446
75.1290 29.9915 1.3411
75.1490 29.9782 1.3467
75.1690 29.9649 1.3407
75.1890 29.9515 1.3393
75.2090 29.9382 1.3395
75.2290 29.9249 1.3410
75.2490 29.9116 1.3347
75.2690 29.8982 1.3400
75.2890 29.8849 1.3355
75.3090 29.8715 1.3346
75.3290 29.8582 1.3364
75.3490 29.8448 1.3375
75.3690 29.8315 1.3319
75.3890 29.8181 1.3335
75.4090 29.8048 1.3326
75.4290 29.7915 1.3273
75.4490 29.7782 1.3295
75.4690 29.7648 1.3319
75.4890 29.7515 1.3270
75.5090 29.7383 1.3256
75.5290 29.7249 1.3260
75.5490 29.7116 1.3249
75.5690 29.6982 1.3249
75.5890 29.6849 1.3220
75.6090 29.6716 1.3195
75.6290 29.6582 1.3235
75.6490 29.6448 1.3226
75.6690 29.6315 1.3137
75.6890 29.6182 1.3262
75.7090 29.6049 1.3172
75.7290 29.5915 1.3092
75.7490 29.5781 1.3226
75.7690 29.5648 1.3151
75.7890 29.5515 1.3078
75.8090 29.5382 1.3191
75.8290 29.5249 1.3125
75.8490 29.5115 1.3032
75.8690 29.4982 1.3161
75.8890 29.4849 1.3101
75.9090 29.4715 1.3016
75.9290 29.4582 1.3161
75.9490 29.4449 1.3055
75.9690 29.4315 1.3019
75.9890 29.4182 1.3109
76.0090 29.4048 1.3036
76.0290 29.3915 1.3055
76.0490 29.3782 1.3061
76.0690 29.3649 1.2985
76.0890 29.3515 1.2979
76.1090 29.3382 1.3038
76.1290 29.3249 1.3029
76.1490 29.3115 1.2939
76.1690 29.2982 1.3012
76.1890 29.2849 1.2995
76.2090 29.2715 1.2931
76.2290 29.2582 1.2937
76.2490 29.2449 1.2973
76.2690 29.2315 1.2892
76.2890 29.2182 1.2906
76.3090 29.2049 1.2958
76.3290 29.1915 1.2820
76.3490 29.1782 1.2926
76.3690 29.1648 1.2931
76.3890 29.1515 1.2829
76.4090 29.1382 1.2897
76.4290 29.1248 1.2926
76.4490 29.1115 1.2750
76.4690 29.0981 1.2927
76.4890 29.0848 1.2832
76.5090 29.0715 1.2761
76.5290 29.0582 1.2888
76.5490 29.0449 1.2828
76.5690 29.0316 1.2763
76.5890 29.0183 1.2816
76.6090 29.0049 1.2764
76.6290 28.9916 1.2755
76.6490 28.9782 1.2834
76.6690 28.9648 1.2783
76.6890 28.9515 1.2676
76.7090 28.9382 1.2782
76.7290 28.9248 1.2753
76.7490 28.9115 1.2686
76.7690 28.8982 1.2763
76.7890 28.8849 1.2741
76.8090 28.8715 1.2654
76.8290 28.8582 1.2719
76.8490 28.8448 1.2675
76.8690 28.8315 1.2650
76.8890 28.8182 1.2713
76.9090 28.8048 1.2659
76.9290 28.7915 1.2610
76.9490 28.7782 1.2686
76.9690 28.7649 1.2623
76.9890 28.7516 1.2587
77.0090 28.7382 1.2645
77.0290 28.7249 1.2617
77.0490 28.7116 1.2578
77.0690 28.6982 1.2604
77.0890 28.6849 1.2573
77.1090 28.6715 1.2580
77.1290 28.6582 1.2592
77.1490 28.6449 1.2523
77.1690 28.6315 1.2549
77.1890 28.6181 1.2552
77.2090 28.6048 1.2553
77.2290 28.5915 1.2521
77.2490 28.5782 1.2505
77.2690 28.5649 1.2507
77.2890 28.5515 1.2501
77.3090 28.5382 1.2500
77.3290 28.5249 1.2516
77.3490 28.5116 1.2456
77.3690 28.4982 1.2513
77.3890 28.4849 1.2484
77.4090 28.4716 1.2429
77.4290 28.4582 1.2482
77.4490 28.4448 1.2484
77.4690 28.4315 1.2355
77.4890 28.4182 1.2456
77.5090 28.4048 1.2444
77.5290 28.3915 1.2345
77.5490 28.3781 1.2441
77.5690 28.3648 1.2413
77.5890 28.3515 1.2307
77.6090 28.3382 1.2405
77.6290 28.3249 1.2360
77.6490 28.3115 1.2325
77.6690 28.2982 1.2390
77.6890 28.2849 1.2310
77.7090 28.2716 1.2304
77.7290 28.2582 1.2366
77.7490 28.2449 1.2331
77.7690 28.2316 1.2212
77.7890 28.2182 1.2341
77.8090 28.2048 1.2276
77.8290 28.1915 1.2241
77.8490 28.1782 1.2332
77.8690 28.1648 1.2220
77.8890 28.1515 1.2211
77.9090 28.1381 1.2281
77.9290 28.1248 1.2206
77.9490 28.1115 1.2219
77.9690 28.0982 1.2227
77.9890 28.0848 1.2159
78.0090 28.0715 1.2219
78.0290 28.0582 1.2246
78.0490 28.0449 1.2143
78.0690 28.0316 1.2200
78.0890 28.0182 1.2205
78.1090 28.0049 1.2150
78.1290 27.9916 1.2139
78.1490 27.9782 1.2154
78.1690 27.9648 1.2117
78.1890 27.9515 1.2137
78.2090 27.9381 1.2140
78.2290 27.9248 1.2089
78.2490 27.9115 1.2070
78.2690 27.8981 1.2122
78.2890 27.8848 1.2112
78.3090 27.8715 1.2017
78.3290 27.8582 1.2090
78.3490 27.8449 1.2093
78.3690 27.8315 1.2046
78.3890 27.8182 1.2098
78.4090 27.8049 1.2047
78.4290 27.7916 1.1973
78.4490 27.7782 1.2095
78.4690 27.7649 1.2045
78.4890 27.7516 1.1954
78.5090 27.7382 1.2052
78.5290 27.7249 1.2011
78.5490 27.7115 1.1938
78.5690 27.6982 1.2015
78.5890 27.6849 1.1982
78.6090 27.6715 1.1902
78.6290 27.6582 1.1981
78.6490 27.6448 1.1978
78.6690 27.6315 1.1902
78.6890 27.6182 1.1969
78.7090 27.6049 1.1925
78.7290 27.5915 1.1913
78.7490 27.5782 1.1952
78.7690 27.5649 1.1899
78.7890 27.5516 1.1861
78.8090 27.5382 1.1955
78.8290 27.5249 1.1879
78.8490 27.5115 1.1854
78.8690 27.4982 1.1906
78.8890 27.4849 1.1870
78.9090 27.4715 1.1886
78.9290 27.4582 1.1887
78.9490 27.4449 1.1794
78.9690 27.4315 1.1855
78.9890 27.4182 1.1836
79.0090 27.4048 1.1799
79.0290 27.3915 1.1857
79.0490 27.3782 1.1776
79.0690 27.3648 1.1766
79.0890 27.3515 1.1849
79.1090 27.3382 1.1778
79.1290 27.3249 1.1746
79.1490 27.3116 1.1845
79.1690 27.2982 1.1769
79.1890 27.2849 1.1734
79.2090 27.2716 1.1804
79.2290 27.2583 1.1701
79.2490 27.2449 1.1738
79.2690 27.2315 1.1764
79.2890 27.2181 1.1674
79.3090 27.2048 1.1737
79.3290 27.1915 1.1736
79.3490 27.1781 1.1662
79.3690 27.1648 1.1733
79.3890 27.1515 1.1738
79.4090 27.1382 1.1599
79.4290 27.1249 1.1677
79.4490 27.1115 1.1711
79.4690 27.0982 1.1610
79.4890 27.0849 1.1661
79.5090 27.0716 1.1683
79.5290 27.0582 1.1582
79.5490 27.0449 1.1670
79.5690 27.0315 1.1676
79.5890 27.0182 1.1516
79.6090 27.0049 1.1645
79.6290 26.9915 1.1664
79.6490 26.9781 1.1487
79.6690 26.9648 1.1655
79.6890 26.9515 1.1590
79.7090 26.9382 1.1469
79.7290 26.9248 1.1684
79.7490 26.9115 1.1568
79.7690 26.8982 1.1464
79.7890 26.8849 1.1585
79.8090 26.8715 1.1554
79.8290 26.8582 1.1495
79.8490 26.8449 1.1588
79.8690 26.8316 1.1506
79.8890 26.8182 1.1437
79.9090 26.8049 1.1572
79.9290 26.7915 1.1493
79.9490 26.7782 1.1422
79.9690 26.7648 1.1549
79.9890 26.7515 1.1445
80.0090 26.7382 1.1453
80.0290 26.7249 1.1483
80.0490 26.7115 1.1468
80.0690 26.6982 1.1418
80.0890 26.6848 1.1458
80.1090 26.6715 1.1503
80.1290 26.6582 1.1350
80.1490 26.6449 1.1430
80.1690 26.6315 1.1483
80.1890 26.6182 1.1399
80.2090 26.6049 1.1384
80.2290 26.5916 1.1426
80.2490 26.5782 1.1398
80.2690 26.5649 1.1349
80.2890 26.5515 1.1456
80.3090 26.5382 1.1328
80.3290 26.5249 1.1328
80.3490 26.5115 1.1437
80.3690 26.4981 1.1337
80.3890 26.4848 1.1335
80.4090 26.4715 1.1393
80.4290 26.4582 1.1292
80.4490 26.4448 1.1278
80.4690 26.4315 1.1394
80.4890 26.4182 1.1280
80.5090 26.4049 1.1270
80.5290 26.3915 1.1409
80.5490 26.3782 1.1215
80.5690 26.3649 1.1263
80.5890 26.3516 1.1364
80.6090 26.3382 1.1192
80.6290 26.3249 1.1247
80.6490 26.3115 1.1315
80.6690 26.2982 1.1119
80.6890 26.2849 1.1240
80.7090 26.2715 1.1336
80.7290 26.2582 1.1142
80.7490 26.2449 1.1227
80.7690 26.2315 1.1301
80.7890 26.2182 1.1128
80.8090 26.2048 1.1160
80.8290 26.1915 1.1269
80.8490 26.1782 1.1134
80.8690 26.1649 1.1136
80.8890 26.1515 1.1253
80.9090 26.1382 1.1140
80.9290 26.1249 1.1107
80.9490 26.1116 1.1235
80.9690 26.0983 1.1052
80.9890 26.0849 1.1146
81.0090 26.0716 1.1216
81.0290 26.0583 1.1038
81.0490 26.0449 1.1078
81.0690 26.0315 1.1170
81.0890 26.0182 1.1019
81.1090 26.0048 1.1083
81.1290 25.9915 1.1193
81.1490 25.9781 1.0957
81.1690 25.9648 1.1100
81.1890 25.9515 1.1141
81.2090 25.9382 1.0909
81.2290 25.9248 1.1109
81.2490 25.9115 1.1100
81.2690 25.8982 1.0956
81.2890 25.8849 1.1087
81.3090 25.8716 1.1064
81.3290 25.8582 1.0955
81.3490 25.8449 1.1044
81.3690 25.8316 1.1027
81.3890 25.8183 1.0921
81.4090 25.8049 1.1041
81.4290 25.7915 1.1007
81.4490 25.7781 1.0937
81.4690 25.7648 1.1009
81.4890 25.7515 1.0946
81.5090 25.7381 1.0882
81.5290 25.7248 1.0998
81.5490 25.7115 1.0918
81.5690 25.6982 1.0893
81.5890 25.6849 1.0994
81.6090 25.6716 1.0929
81.6290 25.6582 1.0901
81.6490 25.6450 1.0965
81.6690 25.6316 1.0905
81.6890 25.6183 1.0857
81.7090 25.6049 1.0955
81.7290 25.5915 1.0880
81.7490 25.5782 1.0850
81.7690 25.5649 1.0916
81.7890 25.5515 1.0861
81.8090 25.5381 1.0847
81.8290 25.5248 1.0878
81.8490 25.5115 1.0846
81.8690 25.4982 1.0825
81.8890 25.4848 1.0852
81.9090 25.4715 1.0825
81.9290 25.4582 1.0819
81.9490 25.4448 1.0827
81.9690 25.4315 1.0806
81.9890 25.4182 1.0847
82.0090 25.4049 1.0788
82.0290 25.3916 1.0755
82.0490 25.3782 1.0793
82.0690 25.3649 1.0811
82.0890 25.3515 1.0761
82.1090 25.3382 1.0775
82.1290 25.3249 1.0751
82.1490 25.3115 1.0741
82.1690 25.2981 1.0782
82.1890 25.2848 1.0716
82.2090 25.2715 1.0717
82.2290 25.2582 1.0716
82.2490 25.2448 1.0686
82.2690 25.2315 1.0725
82.2890 25.2182 1.0692
82.3090 25.2048 1.0709
82.3290 25.1915 1.0694
82.3490 25.1782 1.0682
82.3690 25.1649 1.0652
82.3890 25.1516 1.0680
82.4090 25.1382 1.0657
82.4290 25.1249 1.0691
82.4490 25.1115 1.0658
82.4690 25.0982 1.0615
82.4890 25.0849 1.0647
82.5090 25.0715 1.0629
82.5290 25.0582 1.0636
82.5490 25.0448 1.0640
82.5690 25.0315 1.0551
82.5890 25.0182 1.0598
82.6090 25.0048 1.0677
82.6290 24.9915 1.0562
82.6490 24.9782 1.0567
82.6690 24.9649 1.0634
82.6890 24.9515 1.0537
82.7090 24.9382 1.0596
82.7290 24.9249 1.0612
82.7490 24.9116 1.0470
82.7690 24.8982 1.0598
82.7890 24.8849 1.0549
82.8090 24.8716 1.0468
82.8290 24.8583 1.0589
82.8490 24.8449 1.0475
82.8690 24.8316 1.0439
82.8890 24.8182 1.0595
82.9090 24.8048 1.0457
82.9290 24.7915 1.0428
82.9490 24.7782 1.0559
82.9690 24.7648 1.0448
82.9890 24.7515 1.0446
83.0090 24.7381 1.0554
83.0290 24.7248 1.0397
83.0490 24.7115 1.0472
83.0690 24.6981 1.0511
83.0890 24.6849 1.0406
83.1090 24.6716 1.0396
83.1290 24.6582 1.0466
83.1490 24.6449 1.0386
83.1690 24.6315 1.0426
83.1890 24.6182 1.0451
83.2090 24.6049 1.0383
83.2290 24.5915 1.0385
83.2490 24.5781 1.0403
83.2690 24.5648 1.0406
83.2890 24.5515 1.0369
83.3090 24.5382 1.0360
83.3290 24.5248 1.0391
83.3490 24.5115 1.0313
83.3690 24.4982 1.0398
83.3890 24.4849 1.0380
83.4090 24.4715 1.0310
83.4290 24.4582 1.0400
83.4490 24.4449 1.0316
83.4690 24.4316 1.0265
83.4890 24.4182 1.0399
83.5090 24.4049 1.0304
83.5290 24.3915 1.0277
83.5490 24.3782 1.0331
83.5690 24.3649 1.0250
83.5890 24.3515 1.0262
83.6090 24.3382 1.0313
83.6290 24.3248 1.0261
83.6490 24.3115 1.0218
83.6690 24.2982 1.0289
83.6890 24.2848 1.0255
83.7090 24.2715 1.0220
83.7290 24.2582 1.0299
83.7490 24.2449 1.0247
83.7690 24.2315 1.0160
83.7890 24.2182 1.0278
83.8090 24.2049 1.0206
83.8290 24.1916 1.0146
83.8490 24.1782 1.0279
83.8690 24.1649 1.0179
83.8890 24.1515 1.0172
83.9090 24.1382 1.0295
83.9290 24.1249 1.0193
83.9490 24.1115 1.0145
83.9690 24.0982 1.0229
83.9890 24.0848 1.0143
84.0090 24.0715 1.0091
84.0290 24.0582 1.0238
84.0490 24.0449 1.0120
84.0690 24.0315 1.0121
84.0890 24.0182 1.0199
84.1090 24.0049 1.0081
84.1290 23.9915 1.0104
84.1490 23.9782 1.0181
84.1690 23.9648 1.0112
84.1890 23.9515 1.0078
84.2090 23.9382 1.0101
84.2290 23.9249 1.0079
84.2490 23.9116 1.0061
84.2690 23.8982 1.0100
84.2890 23.8849 1.0083
84.3090 23.8715 0.9997
84.3290 23.8582 1.0073
84.3490 23.8448 1.0120
84.3690 23.8315 1.0057
84.3890 23.8182 1.0052
84.4090 23.8048 1.0058
84.4290 23.7915 1.0007
84.4490 23.7781 1.0025
84.4690 23.7648 1.0065
84.4890 23.7515 0.9983
84.5090 23.7382 1.0024
84.5290 23.7249 1.0081
84.5490 23.7116 0.9946
84.5690 23.6982 0.9978
84.5890 23.6849 1.0089
84.6090 23.6715 0.9960
84.6290 23.6582 0.9946
84.6490 23.6449 1.0070
84.6690 23.6315 0.9874
84.6890 23.6182 0.9933
84.7090 23.6048 1.0036
84.7290 23.5915 0.9884
84.7490 23.5782 0.9931
84.7690 23.5648 1.0007
84.7890 23.5514 0.9883
84.8090 23.5381 0.9981
84.8290 23.5248 1.0040
84.8490 23.5115 0.9812
84.8690 23.4982 0.9929
84.8890 23.4849 1.0004
84.9090 23.4716 0.9811
84.9290 23.4583 0.9919
84.9490 23.4449 0.9928
84.9690 23.4315 0.9837
84.9890 23.4182 0.9891
85.0090 23.4049 0.9913
85.0290 23.3915 0.9825
85.0490 23.3782 0.9945
85.0690 23.3648 0.9878
85.0890 23.3515 0.9749
85.1090 23.3382 0.9877
85.1290 23.3248 0.9855
85.1490 23.3115 0.9758
85.1690 23.2982 0.9861
85.1890 23.2849 0.9839
85.2090 23.2715 0.9757
85.2290 23.2582 0.9819
85.2490 23.2449 0.9863
85.2690 23.2316 0.9766
85.2890 23.2182 0.9765
85.3090 23.2049 0.9837
85.3290 23.1915 0.9716
85.3490 23.1782 0.9776
85.3690 23.1649 0.9803
85.3890 23.1515 0.9709
85.4090 23.1382 0.9763
85.4290 23.1248 0.9827
85.4490 23.1115 0.9670
85.4690 23.0982 0.9782
85.4890 23.0848 0.9820
85.5090 23.0715 0.9644
85.5290 23.0581 0.9750
85.5490 23.0448 0.9756
85.5690 23.0315 0.9605
85.5890 23.0182 0.9709
85.6090 23.0048 0.9750
85.6290 22.9915 0.9624
85.6490 22.9782 0.9669
85.6690 22.9649 0.9746
85.6890 22.9515 0.9635
85.7090 22.9382 0.9689
85.7290 22.9249 0.9637
85.7490 22.9116 0.9596
85.7690 22.8982 0.9672
85.7890 22.8848 0.9608
85.8090 22.8715 0.9622
85.8290 22.8582 0.9648
85.8490 22.8448 0.9588
85.8690 22.8315 0.9589
85.8890 22.8181 0.9648
85.9090 22.8048 0.9585
85.9290 22.7915 0.9610
85.9490 22.7782 0.9568
85.9690 22.7649 0.9580
85.9890 22.7516 0.9624
86.0090 22.7382 0.9525
86.0290 22.7249 0.9564
86.0490 22.7115 0.9609
86.0690 22.6982 0.9483
86.0890 22.6849 0.9564
86.1090 22.6716 0.9553
86.1290 22.6582 0.9477
86.1490 22.6448 0.9570
86.1690 22.6315 0.9567
86.1890 22.6182 0.9437
86.2090 22.6048 0.9548
86.2290 22.5915 0.9550
86.2490 22.5782 0.9430
86.2690 22.5649 0.9509
86.2890 22.5515 0.9515
86.3090 22.5382 0.9446
86.3290 22.5248 0.9534
86.3490 22.5115 0.9473
86.3690 22.4982 0.9446
86.3890 22.4849 0.9533
86.4090 22.4716 0.9466
86.4290 22.4582 0.9377
86.4490 22.4449 0.9499
86.4690 22.4316 0.9408
86.4890 22.4182 0.9413
86.5090 22.4048 0.9488
86.5290 22.3915 0.9412
86.5490 22.3782 0.9395
86.5690 22.3648 0.9452
86.5890 22.3515 0.9417
86.6090 22.3381 0.9425
86.6290 22.3248 0.9409
86.6490 22.3115 0.9335
86.6690 22.2982 0.9416
86.6890 22.2849 0.9392
86.7090 22.2716 0.9328
86.7290 22.2583 0.9413
86.7490 22.2449 0.9374
86.7690 22.2315 0.9348
86.7890 22.2182 0.9411
86.8090 22.2049 0.9325
86.8290 22.1916 0.9349
86.8490 22.1782 0.9344
86.8690 22.1648 0.9295
86.8890 22.1515 0.9310
86.9090 22.1382 0.9334
86.9290 22.1248 0.9318
86.9490 22.1115 0.9309
86.9690 22.0981 0.9333
86.9890 22.0848 0.9280
87.0090 22.0715 0.9287
87.0290 22.0582 0.9376
87.0490 22.0449 0.9261
87.0690 22.0316 0.9331
87.0890 22.0183 0.9309
87.1090 22.0049 0.9214
87.1290 21.9915 0.9314
87.1490 21.9782 0.9276
87.1690 21.9648 0.9218
87.1890 21.9515 0.9276
87.2090 21.9381 0.9241
87.2290 21.9248 0.9157
87.2490 21.9115 0.9317
87.2690 21.8982 0.9240
87.2890 21.8849 0.9127
87.3090 21.8715 0.9266
87.3290 21.8582 0.9177
87.3490 21.8449 0.9201
87.3690 21.8315 0.9243
87.3890 21.8182 0.9143
87.4090 21.8049 0.9208
87.4290 21.7916 0.9167
87.4490 21.7783 0.9139
87.4690 21.7649 0.9191
87.4890 21.7515 0.9210
87.5090 21.7382 0.9126
87.5290 21.7249 0.9158
87.5490 21.7115 0.9149
87.5690 21.6982 0.9125
87.5890 21.6848 0.9105
87.6090 21.6715 0.9159
87.6290 21.6582 0.9129
87.6490 21.6449 0.9053
87.6690 21.6315 0.9133
87.6890 21.6181 0.9163
87.7090 21.6049 0.9035
87.7290 21.5915 0.9168
87.7490 21.5782 0.9087
87.7690 21.5649 0.9007
87.7890 21.5516 0.9141
87.8090 21.5383 0.9060
87.8290 21.5249 0.9040
87.8490 21.5115 0.9140
87.8690 21.4982 0.9043
87.8890 21.4849 0.8976
87.9090 21.4715 0.9119
87.9290 21.4582 0.9016
87.9490 21.4448 0.8963
87.9690 21.4315 0.9152
87.9890 21.4182 0.8946
88.0090 21.4049 0.8967
88.0290 21.3915 0.9108
88.0490 21.3781 0.8953
88.0690 21.3648 0.8975
88.0890 21.3515 0.9055
88.1090 21.3382 0.8973
88.1290 21.3249 0.8944
88.1490 21.3116 0.9061
88.1690 21.2983 0.8987
88.1890 21.2849 0.8927
88.2090 21.2716 0.9061
88.2290 21.2582 0.8930
88.2490 21.2449 0.8896
88.2690 21.2316 0.9023
88.2890 21.2182 0.8867
88.3090 21.2048 0.8947
88.3290 21.1915 0.8988
88.3490 21.1782 0.8862
88.3690 21.1648 0.8878
88.3890 21.1515 0.8997
88.4090 21.1381 0.8854
88.4290 21.1248 0.8883
88.4490 21.1115 0.8997
88.4690 21.0982 0.8780
88.4890 21.0848 0.8870
88.5090 21.0715 0.8950
88.5290 21.0582 0.8800
88.5490 21.0449 0.8847
88.5690 21.0316 0.8914
88.5890 21.0182 0.8821
88.6090 21.0049 0.8793
88.6290 20.9916 0.8906
88.6490 20.9782 0.8791
88.6690 20.9648 0.8789
88.6890 20.9515 0.8903
88.7090 20.9382 0.8756
88.7290 20.9248 0.8736
88.7490 20.9115 0.8893
88.7690 20.8981 0.8785
88.7890 20.8848 0.8723
88.8090 20.8715 0.8883
88.8290 20.8582 0.8758
88.8490 20.8449 0.8692
88.8690 20.8316 0.8865
88.8890 20.8183 0.8774
88.9090 20.8050 0.8628
88.9290 20.7916 0.8832
88.9490 20.7782 0.8733
88.9690 20.7649 0.8662
88.9890 20.7516 0.8832
89.0090 20.7382 0.8709
89.0290 20.7248 0.8633
89.0490 20.7115 0.8846
89.0690 20.6982 0.8678
89.0890 20.6849 0.8624
89.1090 20.6715 0.8812
89.1290 20.6582 0.8676
89.1490 20.6448 0.8630
89.1690 20.6315 0.8768
89.1890 20.6182 0.8636
89.2090 20.6048 0.8642
89.2290 20.5915 0.8780
89.2490 20.5782 0.8607
89.2690 20.5649 0.8615
89.2890 20.5515 0.8777
89.3090 20.5382 0.8606
89.3290 20.5249 0.8621
89.3490 20.5116 0.8707
89.3690 20.4982 0.8602
89.3890 20.4848 0.8593
89.4090 20.4715 0.8711
89.4290 20.4582 0.8581
89.4490 20.4449 0.8594
89.4690 20.4315 0.8647
89.4890 20.4181 0.8605
89.5090 20.4048 0.8596
89.5290 20.3915 0.8592
89.5490 20.3782 0.8550
89.5690 20.3648 0.8553
89.5890 20.3515 0.8603
89.6090 20.3382 0.8495
89.6290 20.3249 0.8545
89.6490 20.3115 0.8556
89.6690 20.2982 0.8568
89.6890 20.2849 0.8551
89.7090 20.2716 0.8553
89.7290 20.2583 0.8575
89.7490 20.2449 0.8518
89.7690 20.2315 0.8521
89.7890 20.2182 0.8542
89.8090 20.2048 0.8450
89.8290 20.1915 0.8527
89.8490 20.1781 0.8535
89.8690 20.1648 0.8467
89.8890 20.1515 0.8490
89.9090 20.1382 0.8512
89.9290 20.1248 0.8465
89.9490 20.1115 0.8477
89.9690 20.0982 0.8497
89.9890 20.0849 0.8480
90.0090 20.0715 0.8449
90.0290 20.0582 0.8464
90.0490 20.0449 0.8428
90.0690 20.0316 0.8417
90.0890 20.0182 0.8415
90.1090 20.0048 0.8426
90.1290 19.9915 0.8441
90.1490 19.9782 0.8416
90.1690 19.9649 0.8408
90.1890 19.9515 0.8426
90.2090 19.9381 0.8393
90.2290 19.9248 0.8379
90.2490 19.9115 0.8405
90.2690 19.8982 0.8379
90.2890 19.8848 0.8367
90.3090 19.8715 0.8417
90.3290 19.8582 0.8343
90.3490 19.8449 0.8361
90.3690 19.8316 0.8373
90.3890 19.8182 0.8318
90.4090 19.8049 0.8400
90.4290 19.7916 0.8370
90.4490 19.7782 0.8300
90.4690 19.7648 0.8378
90.4890 19.7515 0.8355
90.5090 19.7382 0.8246
90.5290 19.7249 0.8385
90.5490 19.7115 0.8330
90.5690 19.6982 0.8280
90.5890 19.6849 0.8358
90.6090 19.6715 0.8320
90.6290 19.6582 0.8281
90.6490 19.6449 0.8347
90.6690 19.6316 0.8299
90.6890 19.6183 0.8260
90.7090 19.6049 0.8322
90.7290 19.5916 0.8270
90.7490 19.5782 0.8250
90.7690 19.5648 0.8348
90.7890 19.5515 0.8226
90.8090 19.5382 0.8257
90.8290 19.5248 0.8330
90.8490 19.5115 0.8204
90.8690 19.4982 0.8255
90.8890 19.4849 0.8312
90.9090 19.4715 0.8159
90.9290 19.4581 0.8182
90.9490 19.4448 0.8321
90.9690 19.4315 0.8158
90.9890 19.4182 0.8213
91.0090 19.4049 0.8306
91.0290 19.3915 0.8100
91.0490 19.3782 0.8233
91.0690 19.3649 0.8267
91.0890 19.3515 0.8115
91.1090 19.3382 0.8229
91.1290 19.3248 0.8211
91.1490 19.3115 0.8107
91.1690 19.2982 0.8188
91.1890 19.2848 0.8203
91.2090 19.2715 0.8118
91.2290 19.2582 0.8196
91.2490 19.2449 0.8140
91.2690 19.2316 0.8092
91.2890 19.2182 0.8192
91.3090 19.2049 0.8184
91.3290 19.1915 0.8025
91.3490 19.1782 0.8116
91.3690 19.1648 0.8176
91.3890 19.1515 0.8062
91.4090 19.1382 0.8079
91.4290 19.1249 0.8225
91.4490 19.1115 0.8032
91.4690 19.0982 0.8031
91.4890 19.0849 0.8231
91.5090 19.0716 0.8013
91.5290 19.0582 0.8053
91.5490 19.0449 0.8183
91.5690 19.0315 0.7952
91.5890 19.0182 0.8043
91.6090 19.0048 0.8126
91.6290 18.9915 0.7972
91.6490 18.9781 0.8093
91.6690 18.9648 0.8095
91.6890 18.9515 0.7920
91.7090 18.9382 0.8032
91.7290 18.9249 0.8130
91.7490 18.9115 0.7943
91.7690 18.8983 0.8054
91.7890 18.8849 0.8052
91.8090 18.8716 0.7926
91.8290 18.8582 0.8014
91.8490 18.8449 0.8068
91.8690 18.8316 0.7900
91.8890 18.8182 0.7982
91.9090 18.8049 0.8012
91.9290 18.7915 0.7904
91.9490 18.7782 0.7989
91.9690 18.7648 0.8061
91.9890 18.7515 0.7904
92.0090 18.7381 0.7955
92.0290 18.7248 0.7979
92.0490 18.7115 0.7916
92.0690 18.6982 0.7937
92.0890 18.6849 0.7966
92.1090 18.6715 0.7872
92.1290 18.6582 0.7919
92.1490 18.6449 0.7967
92.1690 18.6316 0.7855
92.1890 18.6182 0.7973
92.2090 18.6049 0.7957
92.2290 18.5915 0.7810
92.2490 18.5782 0.7966
92.2690 18.5648 0.7903
92.2890 18.5515 0.7814
92.3090 18.5382 0.7935
92.3290 18.5248 0.7920
92.3490 18.5115 0.7792
92.3690 18.4981 0.7874
92.3890 18.4848 0.7928
92.4090 18.4715 0.7824
92.4290 18.4582 0.7865
92.4490 18.4449 0.7883
92.4690 18.4315 0.7798
92.4890 18.4182 0.7823
92.5090 18.4049 0.7825
92.5290 18.3916 0.7794
92.5490 18.3782 0.7844
92.5690 18.3649 0.7842
92.5890 18.3516 0.7768
92.6090 18.3382 0.7774
92.6290 18.3248 0.7862
92.6490 18.3115 0.7769
92.6690 18.2981 0.7775
92.6890 18.2848 0.7814
92.7090 18.2715 0.7735
92.7290 18.2581 0.7770
92.7490 18.2448 0.7752
92.7690 18.2315 0.7756
92.7890 18.2182 0.7750
92.8090 18.2049 0.7814
92.8290 18.1915 0.7693
92.8490 18.1782 0.7685
92.8690 18.1649 0.7838
92.8890 18.1515 0.7641
92.9090 18.1382 0.7688
92.9290 18.1249 0.7823
92.9490 18.1116 0.7627
92.9690 18.0983 0.7661
92.9890 18.0849 0.7791
93.0090 18.0715 0.7679
93.0290 18.0582 0.7641
93.0490 18.0449 0.7754
93.0690 18.0315 0.7630
93.0890 18.0181 0.7630
93.1090 18.0048 0.7782
93.1290 17.9915 0.7607
93.1490 17.9782 0.7612
93.1690 17.9649 0.7728
93.1890 17.9515 0.7582
93.2090 17.9382 0.7607
93.2290 17.9249 0.7708
93.2490 17.9116 0.7607
93.2690 17.8982 0.7611
93.2890 17.8848 0.7671
93.3090 17.8715 0.7606
93.3290 17.8582 0.7594
93.3490 17.8449 0.7663
93.3690 17.8315 0.7587
93.3890 17.8182 0.7588
93.4090 17.8049 0.7596
93.4290 17.7916 0.7563
93.4490 17.7782 0.7597
93.4690 17.7648 0.7533
93.4890 17.7515 0.7572
93.5090 17.7382 0.7548
93.5290 17.7248 0.7561
93.5490 17.7115 0.7617
93.5690 17.6982 0.7565
93.5890 17.6849 0.7548
93.6090 17.6716 0.7559
93.6290 17.6582 0.7540
93.6490 17.6449 0.7539
93.6690 17.6316 0.7570
93.6890 17.6183 0.7511
93.7090 17.6049 0.7485
93.7290 17.5915 0.7520
93.7490 17.5781 0.7506
93.7690 17.5648 0.7505
93.7890 17.5515 0.7491
93.8090 17.5381 0.7464
93.8290 17.5248 0.7467
93.8490 17.5115 0.7498
93.8690 17.4982 0.7440
93.8890 17.4849 0.7450
93.9090 17.4715 0.7485
93.9290 17.4582 0.7424
93.9490 17.4449 0.7453
93.9690 17.4316 0.7453
93.9890 17.4182 0.7393
94.0090 17.4049 0.7456
94.0290 17.3915 0.7447
94.0490 17.3782 0.7415
94.0690 17.3649 0.7404
94.0890 17.3515 0.7401
94.1090 17.3381 0.7435
94.1290 17.3248 0.7387
94.1490 17.3115 0.7406
94.1690 17.2982 0.7408
94.1890 17.2848 0.7410
94.2090 17.2715 0.7387
94.2290 17.2582 0.7365
94.2490 17.2449 0.7362
94.2690 17.2315 0.7355
94.2890 17.2182 0.7364
94.3090 17.2049 0.7330
94.3290 17.1916 0.7356
94.3490 17.1782 0.7326
94.3690 17.1649 0.7317
94.3890 17.1515 0.7386
94.4090 17.1382 0.7274
94.4290 17.1249 0.7359
94.4490 17.1115 0.7406
94.4690 17.0982 0.7243
94.4890 17.0849 0.7317
94.5090 17.0715 0.7331
94.5290 17.0582 0.7200
94.5490 17.0448 0.7321
94.5690 17.0315 0.7354
94.5890 17.0182 0.7198
94.6090 17.0049 0.7287
94.6290 16.9915 0.7339
94.6490 16.9782 0.7213
94.6690 16.9649 0.7266
94.6890 16.9516 0.7273
94.7090 16.9382 0.7191
94.7290 16.9249 0.7251
94.7490 16.9115 0.7249
94.7690 16.8982 0.7208
94.7890 16.8849 0.7262
94.8090 16.8715 0.7231
94.8290 16.8581 0.7200
94.8490 16.8448 0.7259
94.8690 16.8315 0.7188
94.8890 16.8182 0.7226
94.9090 16.8048 0.7152
94.9290 16.7915 0.7225
94.9490 16.7782 0.7234
94.9690 16.7649 0.7122
94.9890 16.7515 0.7176
95.0090 16.7382 0.7254
95.0290 16.7249 0.7149
95.0490 16.7116 0.7142
95.0690 16.6982 0.7219
95.0890 16.6848 0.7115
95.1090 16.6715 0.7151
95.1290 16.6582 0.7162
95.1490 16.6449 0.7061
95.1690 16.6315 0.7161
95.1890 16.6181 0.7166
95.2090 16.6048 0.7050
95.2290 16.5915 0.7214
95.2490 16.5781 0.7162
95.2690 16.5648 0.7017
95.2890 16.5514 0.7185
95.3090 16.5381 0.7123
95.3290 16.5248 0.7040
95.3490 16.5115 0.7167
95.3690 16.4982 0.7078
95.3890 16.4849 0.7023
95.4090 16.4716 0.7140
95.4290 16.4582 0.7100
95.4490 16.4449 0.7028
95.4690 16.4316 0.7179
95.4890 16.4182 0.7033
95.5090 16.4049 0.7001
95.5290 16.3915 0.7191
95.5490 16.3782 0.7044
95.5690 16.3648 0.6992
95.5890 16.3515 0.7089
95.6090 16.3382 0.7000
95.6290 16.3248 0.6989
95.6490 16.3115 0.7067
95.6690 16.2982 0.7042
95.6890 16.2849 0.6962
95.7090 16.2715 0.7036
95.7290 16.2582 0.7037
95.7490 16.2449 0.6987
95.7690 16.2316 0.7012
95.7890 16.2183 0.7015
95.8090 16.2049 0.6912
95.8290 16.1916 0.7029
95.8490 16.1782 0.6961
95.8690 16.1649 0.6907
95.8890 16.1515 0.7032
95.9090 16.1381 0.6968
95.9290 16.1248 0.6904
95.9490 16.1115 0.7014
95.9690 16.0981 0.6967
95.9890 16.0848 0.6900
96.0090 16.0715 0.6967
96.0290 16.0582 0.6931
96.0490 16.0449 0.6844
96.0690 16.0315 0.6949
96.0890 16.0182 0.6930
96.1090 16.0049 0.6860
96.1290 15.9916 0.6954
96.1490 15.9782 0.6892
96.1690 15.9649 0.6807
96.1890 15.9515 0.6958
96.2090 15.9382 0.6927
96.2290 15.9249 0.6759
96.2490 15.9115 0.6937
96.2690 15.8982 0.6892
96.2890 15.8849 0.6766
96.3090 15.8715 0.6915
96.3290 15.8582 0.6900
96.3490 15.8448 0.6766
96.3690 15.8315 0.6896
96.3890 15.8182 0.6855
96.4090 15.8048 0.6752
96.4290 15.7915 0.6907
96.4490 15.7782 0.6822
96.4690 15.7649 0.6737
96.4890 15.7516 0.6896
96.5090 15.7382 0.6812
96.5290 15.7248 0.6733
96.5490 15.7115 0.6864
96.5690 15.6982 0.6798
96.5890 15.6849 0.6750
96.6090 15.6715 0.6742
96.6290 15.6581 0.6807
96.6490 15.6448 0.6786
96.6690 15.6315 0.6716
96.6890 15.6182 0.6789
96.7090 15.6048 0.6771
96.7290 15.5915 0.6758
96.7490 15.5782 0.6753
96.7690 15.5649 0.6776
96.7890 15.5515 0.6697
96.8090 15.5382 0.6778
96.8290 15.5249 0.6747
96.8490 15.5116 0.6690
96.8690 15.4982 0.6790
96.8890 15.4849 0.6774
96.9090 15.4715 0.6694
96.9290 15.4582 0.6753
96.9490 15.4449 0.6730
96.9690 15.4316 0.6659
96.9890 15.4182 0.6793
97.0090 15.4048 0.6640
97.0290 15.3915 0.6685
97.0490 15.3782 0.6731
97.0690 15.3648 0.6641
97.0890 15.3515 0.6718
97.1090 15.3382 0.6740
97.1290 15.3249 0.6599
97.1490 15.3115 0.6688
97.1690 15.2982 0.6708
97.1890 15.2849 0.6594
97.2090 15.2716 0.6644
97.2290 15.2583 0.6714
97.2490 15.2449 0.6598
97.2690 15.2315 0.6686
97.2890 15.2182 0.6699
97.3090 15.2049 0.6581
97.3290 15.1915 0.6667
97.3490 15.1782 0.6660
97.3690 15.1648 0.6590
97.3890 15.1515 0.6653
97.4090 15.1382 0.6630
97.4290 15.1249 0.6547
97.4490 15.1115 0.6657
97.4690 15.0981 0.6629
97.4890 15.0848 0.6518
97.5090 15.0715 0.6623
97.5290 15.0581 0.6678
97.5490 15.0449 0.6513
97.5690 15.0316 0.6597
97.5890 15.0183 0.6603
97.6090 15.0049 0.6502
97.6290 14.9915 0.6609
97.6490 14.9782 0.6535
97.6690 14.9649 0.6485
97.6890 14.9515 0.6620
97.7090 14.9381 0.6526
97.7290 14.9248 0.6486
97.7490 14.9115 0.6567
97.7690 14.8982 0.6522
97.7890 14.8848 0.6487
97.8090 14.8715 0.6564
97.8290 14.8582 0.6462
97.8490 14.8449 0.6500
97.8690 14.8315 0.6514
97.8890 14.8182 0.6500
97.9090 14.8048 0.6506
97.9290 14.7915 0.6467
97.9490 14.7782 0.6465
97.9690 14.7649 0.6496
97.9890 14.7515 0.6471
98.0090 14.7382 0.6463
98.0290 14.7249 0.6451
98.0490 14.7115 0.6443
98.0690 14.6982 0.6444
98.0890 14.6848 0.6501
98.1090 14.6715 0.6362
98.1290 14.6582 0.6434
98.1490 14.6448 0.6463
98.1690 14.6315 0.6376
98.1890 14.6182 0.6463
98.2090 14.6049 0.6468
98.2290 14.5916 0.6367
98.2490 14.5783 0.6416
98.2690 14.5649 0.6451
98.2890 14.5516 0.6366
98.3090 14.5382 0.6386
98.3290 14.5248 0.6446
98.3490 14.5115 0.6344
98.3690 14.4981 0.6394
98.3890 14.4848 0.6424
98.4090 14.4715 0.6344
98.4290 14.4582 0.6411
98.4490 14.4448 0.6360
98.4690 14.4315 0.6361
98.4890 14.4182 0.6312
98.5090 14.4049 0.6349
98.5290 14.3915 0.6375
98.5490 14.3782 0.6337
98.5690 14.3649 0.6336
98.5890 14.3515 0.6323
98.6090 14.3382 0.6307
98.6290 14.3248 0.6337
98.6490 14.3116 0.6330
98.6690 14.2983 0.6266
98.6890 14.2849 0.6305
98.7090 14.2716 0.6300
98.7290 14.2582 0.6212
98.7490 14.2449 0.6326
98.7690 14.2316 0.6246
98.7890 14.2182 0.6215
98.8090 14.2048 0.6365
98.8290 14.1915 0.6214
98.8490 14.1782 0.6171
98.8690 14.1648 0.6363
98.8890 14.1515 0.6229
98.9090 14.1381 0.6205
98.9290 14.1248 0.6334
98.9490 14.1115 0.6170
98.9690 14.0982 0.6123
98.9890 14.0848 0.6334
99.0090 14.0715 0.6145
99.0290 14.0582 0.6094
99.0490 14.0449 0.6326
99.0690 14.0315 0.6134
99.0890 14.0182 0.6135
99.1090 14.0049 0.6294
99.1290 13.9916 0.6110
99.1490 13.9782 0.6126
99.1690 13.9648 0.6256
99.1890 13.9515 0.6079
99.2090 13.9381 0.6121
99.2290 13.9248 0.6236
99.2490 13.9114 0.6067
99.2690 13.8981 0.6142
99.2890 13.8848 0.6190
99.3090 13.8715 0.6066
99.3290 13.8582 0.6121
99.3490 13.8449 0.6154
99.3690 13.8316 0.6100
99.3890 13.8183 0.6061
99.4090 13.8049 0.6164
99.4290 13.7915 0.6056
99.4490 13.7782 0.6078
99.4690 13.7649 0.6149
99.4890 13.7516 0.6047
99.5090 13.7382 0.6004
99.5290 13.7248 0.6129
99.5490 13.7115 0.6086
99.5690 13.6982 0.5958
99.5890 13.6848 0.6112
99.6090 13.6715 0.6058
99.6290 13.6582 0.5940
99.6490 13.6449 0.6131
99.6690 13.6315 0.6038
99.6890 13.6182 0.6002
99.7090 13.6049 0.6117
99.7290 13.5916 0.6012
99.7490 13.5782 0.5959
99.7690 13.5649 0.6098
99.7890 13.5515 0.5988
99.8090 13.5382 0.5929
99.8290 13.5249 0.6076
99.8490 13.5116 0.5943
99.8690 13.4982 0.5960
99.8890 13.4848 0.6051
99.9090 13.4715 0.5904
99.9290 13.4582 0.5927
99.9490 13.4448 0.6057
99.9690 13.4315 0.5918
99.9890 13.4182 0.5955
100.0090 13.4049 0.6034
100.0290 13.3915 0.5878
100.0490 13.3782 0.5918
100.0690 13.3648 0.5988
100.0890 13.3515 0.5883
100.1090 13.3382 0.5912
100.1290 13.3249 0.5917
100.1490 13.3115 0.5908
100.1690 13.2982 0.5886
100.1890 13.2849 0.5904
100.2090 13.2716 0.5903
100.2290 13.2582 0.5834
100.2490 13.2448 0.5915
100.2690 13.2315 0.5889
100.2890 13.2182 0.5795
100.3090 13.2049 0.5909
100.3290 13.1915 0.5896
100.3490 13.1781 0.5791
100.3690 13.1648 0.5869
100.3890 13.1515 0.5894
100.4090 13.1382 0.5719
100.4290 13.1248 0.5924
100.4490 13.1115 0.5903
100.4690 13.0982 0.5654
100.4890 13.0849 0.5883
100.5090 13.0715 0.5831
100.5290 13.0582 0.5705
100.5490 13.0449 0.5851
100.5690 13.0315 0.5812
100.5890 13.0182 0.5685
100.6090 13.0048 0.5840
100.6290 12.9915 0.5755
100.6490 12.9782 0.5702
100.6690 12.9649 0.5861
100.6890 12.9515 0.5743
100.7090 12.9381 0.5661
100.7290 12.9248 0.5861
100.7490 12.9115 0.5685
100.7690 12.8981 0.5670
100.7890 12.8848 0.5837
100.8090 12.8715 0.5691
100.8290 12.8582 0.5642
100.8490 12.8449 0.5790
100.8690 12.8316 0.5700
100.8890 12.8182 0.5655
100.9090 12.8049 0.5746
100.9290 12.7916 0.5639
100.9490 12.7782 0.5612
100.9690 12.7648 0.5747
100.9890 12.7515 0.5634
101.0090 12.7382 0.5643
101.0290 12.7248 0.5676
101.0490 12.7115 0.5627
101.0690 12.6981 0.5633
101.0890 12.6848 0.5703
101.1090 12.6715 0.5642
101.1290 12.6582 0.5587
101.1490 12.6449 0.5646
101.1690 12.6316 0.5619
101.1890 12.6183 0.5567
101.2090 12.6049 0.5621
101.2290 12.5916 0.5625
101.2490 12.5782 0.5560
101.2690 12.5649 0.5596
101.2890 12.5516 0.5605
101.3090 12.5382 0.5565
101.3290 12.5248 0.5588
101.3490 12.5115 0.5623
101.3690 12.4982 0.5529
101.3890 12.4848 0.5576
101.4090 12.4715 0.5580
101.4290 12.4581 0.5510
101.4490 12.4448 0.5573
101.4690 12.4315 0.5569
101.4890 12.4182 0.5467
101.5090 12.4048 0.5584
101.5290 12.3916 0.5587
101.5490 12.3783 0.5477
101.5690 12.3649 0.5550
101.5890 12.3515 0.5548
101.6090 12.3382 0.5419
101.6290 12.3249 0.5587
101.6490 12.3115 0.5527
101.6690 12.2982 0.5412
101.6890 12.2848 0.5561
101.7090 12.2715 0.5506
101.7290 12.2582 0.5446
101.7490 12.2449 0.5536
101.7690 12.2315 0.5473
101.7890 12.2182 0.5443
101.8090 12.2049 0.5523
101.8290 12.1915 0.5445
101.8490 12.1782 0.5429
101.8690 12.1648 0.5500
101.8890 12.1516 0.5436
101.9090 12.1383 0.5452
101.9290 12.1249 0.5441
101.9490 12.1115 0.5452
101.9690 12.0982 0.5427
101.9890 12.0849 0.5397
102.0090 12.0715 0.5426
102.0290 12.0582 0.5370
102.0490 12.0448 0.5430
102.0690 12.0315 0.5397
102.0890 12.0182 0.5344
102.1090 12.0048 0.5403
102.1290 11.9915 0.5391
102.1490 11.9781 0.5326
102.1690 11.9648 0.5404
102.1890 11.9515 0.5386
102.2090 11.9382 0.5332
102.2290 11.9249 0.5346
102.2490 11.9116 0.5366
102.2690 11.8982 0.5284
102.2890 11.8849 0.5346
102.3090 11.8715 0.5396
102.3290 11.8582 0.5273
102.3490 11.8449 0.5360
102.3690 11.8316 0.5348
102.3890 11.8182 0.5227
102.4090 11.8048 0.5357
102.4290 11.7915 0.5364
102.4490 11.7782 0.5254
102.4690 11.7649 0.5296
102.4890 11.7515 0.5313
102.5090 11.7381 0.5197
102.5290 11.7248 0.5265
102.5490 11.7115 0.5316
102.5690 11.6982 0.5209
102.5890 11.6849 0.5300
102.6090 11.6716 0.5277
102.6290 11.6583 0.5190
102.6490 11.6449 0.5315
102.6690 11.6316 0.5220
102.6890 11.6182 0.5226
102.7090 11.6049 0.5270
102.7290 11.5916 0.5143
102.7490 11.5782 0.5191
102.7690 11.5648 0.5246
102.7890 11.5515 0.5195
102.8090 11.5382 0.5197
102.8290 11.5248 0.5198
102.8490 11.5115 0.5160
102.8690 11.4981 0.5238
102.8890 11.4848 0.5164
102.9090 11.4715 0.5100
102.9290 11.4582 0.5205
102.9490 11.4448 0.5140
102.9690 11.4315 0.5084
102.9890 11.4182 0.5142
103.0090 11.4049 0.5128
103.0290 11.3916 0.5087
103.0490 11.3782 0.5191
103.0690 11.3649 0.5133
103.0890 11.3516 0.5077
103.1090 11.3382 0.5154
103.1290 11.3248 0.5066
103.1490 11.3115 0.5094
103.1690 11.2981 0.5094
103.1890 11.2848 0.5058
103.2090 11.2715 0.5017
103.2290 11.2581 0.5096
103.2490 11.2448 0.5067
103.2690 11.2315 0.5009
103.2890 11.2182 0.5107
103.3090 11.2049 0.5054
103.3290 11.1916 0.4985
103.3490 11.1783 0.5083
103.3690 11.1650 0.5012
103.3890 11.1516 0.4947
103.4090 11.1382 0.5094
103.4290 11.1249 0.5009
103.4490 11.1115 0.4945
103.4690 11.0982 0.5069
103.4890 11.0848 0.4964
103.5090 11.0715 0.4972
103.5290 11.0582 0.5057
103.5490 11.0449 0.4952
103.5690 11.0315 0.4918
103.5890 11.0182 0.5036
103.6090 11.0048 0.4937
103.6290 10.9915 0.4898
103.6490 10.9782 0.5038
103.6690 10.9649 0.4907
103.6890 10.9515 0.4913
103.7090 10.9383 0.4996
103.7290 10.9249 0.4892
103.7490 10.9116 0.4878
103.7690 10.8982 0.5034
103.7890 10.8848 0.4856
103.8090 10.8715 0.4845
103.8290 10.8582 0.4978
103.8490 10.8448 0.4862
103.8690 10.8315 0.4853
103.8890 10.8182 0.4966
103.9090 10.8049 0.4838
103.9290 10.7915 0.4837
103.9490 10.7782 0.4961
103.9690 10.7648 0.4777
103.9890 10.7515 0.4862
104.0090 10.7382 0.4979
104.0290 10.7248 0.4740
104.0490 10.7115 0.4832
104.0690 10.6982 0.4953
104.0890 10.6849 0.4711
104.1090 10.6716 0.4816
104.1290 10.6582 0.4921
104.1490 10.6449 0.4679
104.1690 10.6316 0.4777
104.1890 10.6183 0.4905
104.2090 10.6049 0.4732
104.2290 10.5915 0.4790
104.2490 10.5782 0.4896
104.2690 10.5649 0.4687
104.2890 10.5515 0.4731
104.3090 10.5381 0.4859
104.3290 10.5248 0.4739
104.3490 10.5115 0.4699
104.3690 10.4982 0.4813
104.3890 10.4848 0.4673
104.4090 10.4715 0.4775
104.4290 10.4582 0.4852
104.4490 10.4449 0.4618
104.4690 10.4315 0.4725
104.4890 10.4182 0.4775
104.5090 10.4049 0.4643
104.5290 10.3916 0.4696
104.5490 10.3782 0.4761
104.5690 10.3649 0.4630
104.5890 10.3515 0.4681
104.6090 10.3381 0.4731
104.6290 10.3248 0.4631
104.6490 10.3115 0.4723
104.6690 10.2981 0.4663
104.6890 10.2848 0.4597
104.7090 10.2715 0.4670
104.7290 10.2582 0.4656
104.7490 10.2448 0.4620
104.7690 10.2315 0.4642
104.7890 10.2182 0.4574
104.8090 10.2049 0.4635
104.8290 10.1916 0.4626
104.8490 10.1782 0.4581
104.8690 10.1649 0.4650
104.8890 10.1515 0.4593
104.9090 10.1382 0.4536
104.9290 10.1248 0.4595
104.9490 10.1115 0.4584
104.9690 10.0982 0.4559
104.9890 10.0849 0.4578
105.0090 10.0715 0.4508
105.0290 10.0582 0.4541
105.0490 10.0448 0.4584
105.0690 10.0315 0.4505
105.0890 10.0182 0.4566
105.1090 10.0049 0.4556
105.1290 9.9915 0.4491
105.1490 9.9783 0.4518
105.1690 9.9650 0.4441
105.1890 9.9516 0.4436
105.2090 9.9382 0.4549
105.2290 9.9248 0.4454
105.2490 9.9115 0.4429
105.2690 9.8982 0.4489
105.2890 9.8848 0.4472
105.3090 9.8715 0.4424
105.3290 9.8581 0.4499
105.3490 9.8448 0.4468
105.3690 9.8315 0.4369
105.3890 9.8181 0.4417
105.4090 9.8048 0.4446
105.4290 9.7915 0.4367
105.4490 9.7782 0.4416
105.4690 9.7649 0.4416
105.4890 9.7516 0.4348
105.5090 9.7383 0.4410
105.5290 9.7250 0.4418
105.5490 9.7116 0.4330
105.5690 9.6982 0.4386
105.5890 9.6848 0.4405
105.6090 9.6715 0.4255
105.6290 9.6582 0.4357
105.6490 9.6448 0.4409
105.6690 9.6315 0.4257
105.6890 9.6181 0.4336
105.7090 9.6049 0.4376
105.7290 9.5915 0.4225
105.7490 9.5782 0.4337
105.7690 9.5648 0.4332
105.7890 9.5515 0.4204
105.8090 9.5382 0.4301
105.8290 9.5248 0.4292
105.8490 9.5115 0.4209
105.8690 9.4982 0.4328
105.8890 9.4849 0.4288
105.9090 9.4716 0.4185
105.9290 9.4582 0.4317
105.9490 9.4449 0.4314
105.9690 9.4316 0.4200
105.9890 9.4182 0.4282
106.0090 9.4049 0.4198
106.0290 9.3915 0.4159
106.0490 9.3781 0.4265
106.0690 9.3648 0.4190
106.0890 9.3515 0.4157
106.1090 9.3381 0.4248
106.1290 9.3248 0.4163
106.1490 9.3115 0.4153
106.1690 9.2982 0.4228
106.1890 9.2848 0.4195
106.2090 9.2715 0.4168
106.2290 9.2582 0.4219
106.2490 9.2449 0.4115
106.2690 9.2316 0.4080
106.2890 9.2182 0.4199
106.3090 9.2049 0.4117
106.3290 9.1916 0.4115
106.3490 9.1783 0.4169
106.3690 9.1649 0.4091
106.3890 9.1515 0.4119
106.4090 9.1382 0.4126
106.4290 9.1248 0.4062
106.4490 9.1115 0.4108
106.4690 9.0981 0.4067
106.4890 9.0848 0.4051
106.5090 9.0715 0.4130
106.5290 9.0582 0.4029
106.5490 9.0448 0.4011
106.5690 9.0315 0.4116
106.5890 9.0182 0.3981
106.6090 9.0049 0.3998
106.6290 8.9916 0.4099
106.6490 8.9782 0.3952
106.6690 8.9649 0.3999
106.6890 8.9515 0.4066
106.7090 8.9382 0.3899
106.7290 8.9249 0.3977
106.7490 8.9115 0.4024
106.7690 8.8982 0.3919
106.7890 8.8849 0.3948
106.8090 8.8715 0.4009
106.8290 8.8582 0.3932
106.8490 8.8448 0.3979
106.8690 8.8315 0.3963
106.8890 8.8182 0.3919
106.9090 8.8049 0.3955
106.9290 8.7915 0.3947
106.9490 8.7782 0.3875
106.9690 8.7649 0.3949
106.9890 8.7516 0.3892
107.0090 8.7382 0.3860
107.0290 8.7249 0.3926
107.0490 8.7116 0.3918
107.0690 8.6982 0.3839
107.0890 8.6849 0.3866
107.1090 8.6715 0.3922
107.1290 8.6581 0.3793
107.1490 8.6448 0.3838
107.1690 8.6315 0.3912
107.1890 8.6181 0.3777
107.2090 8.6048 0.3811
107.2290 8.5915 0.3901
107.2490 8.5782 0.3744
107.2690 8.5649 0.3830
107.2890 8.5515 0.3906
107.3090 8.5382 0.3756
107.3290 8.5249 0.3800
107.3490 8.5115 0.3820
107.3690 8.4982 0.3757
107.3890 8.4849 0.3795
107.4090 8.4716 0.3784
107.4290 8.4582 0.3705
107.4490 8.4449 0.3775
107.4690 8.4315 0.3825
107.4890 8.4182 0.3672
107.5090 8.4048 0.3787
107.5290 8.3915 0.3768
107.5490 8.3782 0.3622
107.5690 8.3648 0.3763
107.5890 8.3515 0.3760
107.6090 8.3382 0.3653
107.6290 8.3249 0.3700
107.6490 8.3115 0.3726
107.6690 8.2982 0.3645
107.6890 8.2849 0.3703
107.7090 8.2716 0.3665
107.7290 8.2582 0.3648
107.7490 8.2448 0.3718
107.7690 8.2315 0.3617
107.7890 8.2182 0.3634
107.8090 8.2049 0.3675
107.8290 8.1915 0.3612
107.8490 8.1782 0.3600
107.8690 8.1649 0.3653
107.8890 8.1516 0.3575
107.9090 8.1382 0.3602
107.9290 8.1248 0.3639
107.9490 8.1115 0.3585
107.9690 8.0981 0.3600
107.9890 8.0848 0.3597
108.0090 8.0715 0.3604
108.0290 8.0582 0.3561
108.0490 8.0449 0.3545
108.0690 8.0316 0.3567
108.0890 8.0182 0.3539
108.1090 8.0049 0.3533
108.1290 7.9916 0.3586
108.1490 7.9783 0.3482
108.1690 7.9649 0.3527
108.1890 7.9515 0.3609
108.2090 7.9382 0.3461
108.2290 7.9248 0.3457
108.2490 7.9115 0.3592
108.2690 7.8982 0.3439
108.2890 7.8848 0.3449
108.3090 7.8715 0.3550
108.3290 7.8582 0.3430
108.3490 7.8449 0.3421
108.3690 7.8315 0.3521
108.3890 7.8182 0.3459
108.4090 7.8049 0.3418
108.4290 7.7916 0.3446
108.4490 7.7782 0.3432
108.4690 7.7649 0.3412
108.4890 7.7515 0.3406
108.5090 7.7382 0.3375
108.5290 7.7249 0.3394
108.5490 7.7115 0.3445
108.5690 7.6981 0.3379
108.5890 7.6848 0.3350
108.6090 7.6715 0.3408
108.6290 7.6582 0.3329
108.6490 7.6448 0.3349
108.6690 7.6315 0.3391
108.6890 7.6182 0.3297
108.7090 7.6048 0.3277
108.7290 7.5915 0.3383
108.7490 7.5782 0.3309
108.7690 7.5649 0.3272
108.7890 7.5516 0.3338
108.8090 7.5382 0.3261
108.8290 7.5248 0.3313
108.8490 7.5115 0.3279
108.8690 7.4982 0.3301
108.8890 7.4849 0.3269
108.9090 7.4715 0.3289
108.9290 7.4581 0.3279
108.9490 7.4448 0.3223
108.9690 7.4315 0.3254
108.9890 7.4182 0.3291
109.0090 7.4049 0.3181
109.0290 7.3915 0.3233
109.0490 7.3782 0.3282
109.0690 7.3649 0.3165
109.0890 7.3515 0.3191
109.1090 7.3382 0.3262
109.1290 7.3249 0.3114
109.1490 7.3116 0.3138
109.1690 7.2982 0.3227
109.1890 7.2849 0.3100
109.2090 7.2715 0.3185
109.2290 7.2582 0.3169
109.2490 7.2449 0.3084
109.2690 7.2315 0.3179
109.2890 7.2181 0.3209
109.3090 7.2048 0.3042
109.3290 7.1915 0.3119
109.3490 7.1782 0.3138
109.3690 7.1648 0.3006
109.3890 7.1515 0.3123
109.4090 7.1382 0.3120
109.4290 7.1249 0.3021
109.4490 7.1115 0.3060
109.4690 7.0982 0.3138
109.4890 7.0849 0.2977
109.5090 7.0716 0.3090
109.5290 7.0582 0.3086
109.5490 7.0449 0.2948
109.5690 7.0315 0.3096
109.5890 7.0182 0.3034
109.6090 7.0049 0.2921
109.6290 6.9915 0.3058
109.6490 6.9782 0.3040
109.6690 6.9649 0.2873
109.6890 6.9515 0.3037
109.7090 6.9382 0.2971
109.7290 6.9248 0.2867
109.7490 6.9115 0.3051
109.7690 6.8982 0.2989
109.7890 6.8848 0.2811
109.8090 6.8715 0.3025
109.8290 6.8582 0.2922
109.8490 6.8449 0.2851
109.8690 6.8316 0.2994
109.8890 6.8183 0.2909
109.9090 6.8049 0.2845
109.9290 6.7915 0.2980
109.9490 6.7782 0.2865
109.9690 6.7649 0.2831
109.9890 6.7515 0.2948
110.0090 6.7381 0.2835
110.0290 6.7248 0.2822
110.0490 6.7115 0.2890
110.0690 6.6982 0.2814
110.0890 6.6848 0.2826
110.1090 6.6715 0.2878
110.1290 6.6582 0.2804
110.1490 6.6448 0.2812
110.1690 6.6315 0.2841
110.1890 6.6182 0.2751
110.2090 6.6049 0.2790
110.2290 6.5916 0.2795
110.2490 6.5782 0.2716
110.2690 6.5649 0.2776
110.2890 6.5516 0.2788
110.3090 6.5382 0.2715
110.3290 6.5249 0.2752
110.3490 6.5115 0.2724
110.3690 6.4981 0.2714
110.3890 6.4848 0.2768
110.4090 6.4715 0.2716
110.4290 6.4582 0.2698
110.4490 6.4448 0.2710
110.4690 6.4315 0.2696
110.4890 6.4182 0.2675
110.5090 6.4049 0.2685
110.5290 6.3915 0.2641
110.5490 6.3782 0.2671
110.5690 6.3649 0.2662
110.5890 6.3516 0.2619
110.6090 6.3383 0.2649
110.6290 6.3249 0.2661
110.6490 6.3115 0.2604
110.6690 6.2982 0.2605
110.6890 6.2849 0.2599
110.7090 6.2715 0.2601
110.7290 6.2581 0.2599
110.7490 6.2448 0.2626
110.7690 6.2315 0.2577
110.7890 6.2182 0.2551
110.8090 6.2048 0.2640
110.8290 6.1915 0.2543
110.8490 6.1782 0.2570
110.8690 6.1649 0.2576
110.8890 6.1515 0.2438
110.9090 6.1382 0.2520
110.9290 6.1249 0.2578
110.9490 6.1116 0.2465
110.9690 6.0982 0.2483
110.9890 6.0849 0.2571
111.0090 6.0715 0.2462
111.0290 6.0582 0.2468
111.0490 6.0449 0.2549
111.0690 6.0315 0.2412
111.0890 6.0181 0.2436
111.1090 6.0048 0.2477
111.1290 5.9915 0.2399
111.1490 5.9782 0.2426
111.1690 5.9648 0.2450
111.1890 5.9515 0.2401
111.2090 5.9382 0.2399
111.2290 5.9248 0.2413
111.2490 5.9115 0.2354
111.2690 5.8981 0.2402
111.2890 5.8848 0.2454
111.3090 5.8715 0.2271
111.3290 5.8582 0.2350
111.3490 5.8449 0.2411
111.3690 5.8315 0.2277
111.3890 5.8182 0.2340
111.4090 5.8049 0.2402
111.4290 5.7916 0.2262
111.4490 5.7782 0.2322
111.4690 5.7648 0.2323
111.4890 5.7515 0.2258
111.5090 5.7382 0.2306
111.5290 5.7248 0.2295
111.5490 5.7115 0.2211
111.5690 5.6982 0.2300
111.5890 5.6849 0.2252
111.6090 5.6715 0.2143
111.6290 5.6582 0.2363
111.6490 5.6448 0.2257
111.6690 5.6316 0.2141
111.6890 5.6183 0.2257
111.7090 5.6049 0.2223
111.7290 5.5915 0.2183
111.7490 5.5782 0.2216
111.7690 5.5649 0.2206
111.7890 5.5516 0.2127
111.8090 5.5382 0.2203
111.8290 5.5248 0.2171
111.8490 5.5115 0.2055
111.8690 5.4982 0.2175
111.8890 5.4849 0.2156
111.9090 5.4715 0.2048
111.9290 5.4581 0.2203
111.9490 5.4448 0.2130
111.9690 5.4315 0.2006
111.9890 5.4182 0.2173
112.0090 5.4049 0.2087
112.0290 5.3916 0.1986
112.0490 5.3783 0.2159
112.0690 5.3649 0.2085
112.0890 5.3515 0.1972
112.1090 5.3382 0.2098
112.1290 5.3249 0.2025
112.1490 5.3115 0.1975
112.1690 5.2981 0.2089
112.1890 5.2848 0.1977
112.2090 5.2715 0.1931
112.2290 5.2582 0.2052
112.2490 5.2448 0.1943
112.2690 5.2315 0.1930
112.2890 5.2182 0.2002
112.3090 5.2049 0.1920
112.3290 5.1915 0.1923
112.3490 5.1782 0.1989
112.3690 5.1649 0.1950
112.3890 5.1516 0.1906
112.4090 5.1383 0.1914
112.4290 5.1249 0.1940
112.4490 5.1115 0.1874
112.4690 5.0982 0.1883
112.4890 5.0849 0.1895
112.5090 5.0715 0.1813
112.5290 5.0582 0.1924
112.5490 5.0448 0.1824
112.5690 5.0315 0.1794
112.5890 5.0181 0.1863
112.6090 5.0048 0.1854
112.6290 4.9914 0.1784
112.6490 4.9781 0.1805
112.6690 4.9649 0.1828
112.6890 4.9515 0.1744
112.7090 4.9382 0.1834
112.7290 4.9249 0.1825
112.7490 4.9116 0.1715
112.7690 4.8983 0.1755
112.7890 4.8849 0.1814
112.8090 4.8715 0.1756
112.8290 4.8582 0.1714
112.8490 4.8449 0.1788
112.8690 4.8315 0.1711
112.8890 4.8182 0.1675
112.9090 4.8048 0.1790
112.9290 4.7915 0.1695
112.9490 4.7782 0.1631
112.9690 4.7649 0.1758
112.9890 4.7515 0.1644
113.0090 4.7382 0.1682
113.0290 4.7249 0.1736
113.0490 4.7115 0.1610
113.0690 4.6982 0.1635
113.0890 4.6848 0.1709
113.1090 4.6715 0.1609
113.1290 4.6582 0.1622
113.1490 4.6449 0.1666
113.1690 4.6316 0.1543
113.1890 4.6182 0.1634
113.2090 4.6049 0.1641
113.2290 4.5916 0.1499
113.2490 4.5782 0.1592
113.2690 4.5648 0.1596
113.2890 4.5515 0.1502
113.3090 4.5382 0.1573
113.3290 4.5248 0.1572
113.3490 4.5115 0.1520
113.3690 4.4981 0.1532
113.3890 4.4848 0.1551
113.4090 4.4715 0.1447
113.4290 4.4582 0.1531
113.4490 4.4448 0.1575
113.4690 4.4315 0.1432
113.4890 4.4182 0.1479
113.5090 4.4049 0.1500
113.5290 4.3915 0.1421
113.5490 4.3782 0.1524
113.5690 4.3649 0.1427
113.5890 4.3516 0.1346
113.6090 4.3382 0.1476
113.6290 4.3248 0.1450
113.6490 4.3115 0.1383
113.6690 4.2982 0.1440
113.6890 4.2848 0.1393
113.7090 4.2715 0.1350
113.7290 4.2581 0.1413
113.7490 4.2448 0.1356
113.7690 4.2315 0.1360
113.7890 4.2182 0.1361
113.8090 4.2049 0.1320
113.8290 4.1916 0.1329
113.8490 4.1783 0.1330
113.8690 4.1649 0.1333
113.8890 4.1515 0.1315
113.9090 4.1382 0.1314
113.9290 4.1249 0.1284
113.9490 4.1115 0.1264
113.9690 4.0982 0.1277
113.9890 4.0848 0.1303
114.0090 4.0715 0.1240
114.0290 4.0582 0.1220
114.0490 4.0448 0.1260
114.0690 4.0315 0.1167
114.0890 4.0181 0.1202
114.1090 4.0048 0.1206
114.1290 3.9915 0.1160
114.1490 3.9782 0.1185
114.1690 3.9649 0.1190
114.1890 3.9516 0.1145
114.2090 3.9382 0.1163
114.2290 3.9249 0.1151
114.2490 3.9115 0.1139
114.2690 3.8982 0.1109
114.2890 3.8849 0.1081
114.3090 3.8716 0.1132
114.3290 3.8582 0.1101
114.3490 3.8448 0.1023
114.3690 3.8315 0.1107
114.3890 3.8182 0.1070
114.4090 3.8048 0.1000
114.4290 3.7915 0.1069
114.4490 3.7781 0.1042
114.4690 3.7648 0.1026
114.4890 3.7515 0.1032
114.5090 3.7382 0.0978
114.5290 3.7248 0.1015
114.5490 3.7115 0.1048
114.5690 3.6982 0.0914
114.5890 3.6849 0.0927
114.6090 3.6715 0.0979
114.6290 3.6582 0.0949
114.6490 3.6449 0.0950
114.6690 3.6316 0.0925
114.6890 3.6182 0.0906
114.7090 3.6048 0.0947
114.7290 3.5915 0.0887
114.7490 3.5782 0.0888
114.7690 3.5649 0.0909
114.7890 3.5515 0.0864
114.8090 3.5381 0.0823
114.8290 3.5248 0.0920
114.8490 3.5115 0.0834
114.8690 3.4982 0.0837
114.8890 3.4848 0.0898
114.9090 3.4715 0.0802
114.9290 3.4582 0.0778
114.9490 3.4449 0.0830
114.9690 3.4315 0.0775
114.9890 3.4182 0.0829
115.0090 3.4049 0.0781
115.0290 3.3915 0.0740
115.0490 3.3782 0.0759
115.0690 3.3648 0.0747
115.0890 3.3515 0.0713
115.1090 3.3382 0.0705
115.1290 3.3249 0.0702
115.1490 3.3115 0.0706
115.1690 3.2981 0.0732
115.1890 3.2848 0.0650
115.2090 3.2715 0.0677
115.2290 3.2582 0.0677
115.2490 3.2448 0.0616
115.2690 3.2315 0.0694
115.2890 3.2182 0.0637
115.3090 3.2049 0.0551
115.3290 3.1916 0.0697
115.3490 3.1782 0.0568
115.3690 3.1649 0.0542
115.3890 3.1516 0.0638
115.4090 3.1382 0.0545
115.4290 3.1248 0.0539
115.4490 3.1115 0.0647
115.4690 3.0981 0.0467
115.4890 3.0848 0.0508
115.5090 3.0715 0.0616
115.5290 3.0581 0.0408
115.5490 3.0448 0.0519
115.5690 3.0315 0.0566
115.5890 3.0182 0.0362
115.6090 3.0049 0.0530
115.6290 2.9916 0.0517
115.6490 2.9783 0.0327
115.6690 2.9649 0.0523
115.6890 2.9516 0.0492
115.7090 2.9382 0.0299
115.7290 2.9249 0.0499
115.7490 2.9115 0.0427
115.7690 2.8982 0.0288
115.7890 2.8848 0.0469
115.8090 2.8715 0.0393
115.8290 2.8582 0.0264
115.8490 2.8449 0.0453
115.8690 2.8315 0.0295
115.8890 2.8181 0.0238
115.9090 2.8048 0.0408
115.9290 2.7915 0.0305
115.9490 2.7782 0.0245
115.9690 2.7649 0.0358
115.9890 2.7516 0.0301
116.0090 2.7383 0.0233
116.0290 2.7249 0.0326
116.0490 2.7116 0.0250
116.0690 2.6982 0.0222
116.0890 2.6849 0.0261
116.1090 2.6715 0.0200
116.1290 2.6582 0.0163
116.1490 2.6448 0.0284
116.1690 2.6315 0.0184
116.1890 2.6182 0.0208
116.2090 2.6049 0.0182
116.2290 2.5915 0.0175
116.2490 2.5782 0.0203
116.2690 2.5649 0.0115
116.2890 2.5515 0.0162
116.3090 2.5382 0.0175
116.3290 2.5249 0.0090
116.3490 2.5116 0.0144
116.3690 2.4983 0.0120
116.3890 2.4849 0.0058
116.4090 2.4716 0.0115
116.4290 2.4582 0.0125
116.4490 2.4449 -0.0002
116.4690 2.4315 0.0079
116.4890 2.4182 0.0071
116.5090 2.4048 -0.0006
116.5290 2.3915 0.0090
116.5490 2.3782 0.0062
116.5690 2.3648 -0.0055
116.5890 2.3515 0.0050
116.6090 2.3381 0.0035
116.6290 2.3248 -0.0044
116.6490 2.3115 0.0019
116.6690 2.2982 0.0002
116.6890 2.2849 -0.0036
116.7090 2.2715 0.0033
116.7290 2.2582 0.0002
116.7490 2.2449 -0.0096
116.7690 2.2315 0.0030
116.7890 2.2182 0.0001
116.8090 2.2049 -0.0135
116.8290 2.1916 -0.0026
116.8490 2.1782 -0.0047
116.8690 2.1648 -0.0127
116.8890 2.1515 0.0000
116.9090 2.1382 -0.0039
116.9290 2.1248 -0.0177
116.9490 2.1115 0.0002
116.9690 2.0981 -0.0090
116.9890 2.0848 -0.0125
117.0090 2.0715 -0.0002
117.0290 2.0582 -0.0091
117.0490 2.0449 -0.0159
117.0690 2.0315 -0.0030
117.0890 2.0183 -0.0102
117.1090 2.0049 -0.0160
117.1290 1.9916 -0.0055
117.1490 1.9782 -0.0106
117.1690 1.9649 -0.0150
117.1890 1.9516 -0.0080
117.2090 1.9382 -0.0081
117.2290 1.9248 -0.0188
117.2490 1.9115 -0.0043
117.2690 1.8982 -0.0135
117.2890 1.8848 -0.0164
117.3090 1.8715 -0.0102
117.3290 1.8581 -0.0072
117.3490 1.8448 -0.0141
117.3690 1.8315 -0.0092
117.3890 1.8182 -0.0096
117.4090 1.8048 -0.0178
117.4290 1.7915 -0.0049
117.4490 1.7782 -0.0139
117.4690 1.7649 -0.0183
117.4890 1.7516 -0.0069
117.5090 1.7382 -0.0152
117.5290 1.7249 -0.0153
117.5490 1.7116 -0.0074
117.5690 1.6982 -0.0171
117.5890 1.6848 -0.0149
117.6090 1.6715 -0.0095
117.6290 1.6581 -0.0165
117.6490 1.6448 -0.0158
117.6690 1.6315 -0.0059
117.6890 1.6181 -0.0187
117.7090 1.6048 -0.0173
117.7290 1.5915 -0.0037
117.7490 1.5782 -0.0214
117.7690 1.5649 -0.0121
117.7890 1.5515 -0.0057
117.8090 1.5383 -0.0220
117.8290 1.5249 -0.0130
117.8490 1.5116 -0.0125
117.8690 1.4982 -0.0190
117.8890 1.4849 -0.0119
117.9090 1.4715 -0.0138
117.9290 1.4582 -0.0186
117.9490 1.4448 -0.0123
117.9690 1.4315 -0.0125
117.9890 1.4182 -0.0157
118.0090 1.4049 -0.0163
118.0290 1.3915 -0.0176
118.0490 1.3781 -0.0134
118.0690 1.3648 -0.0082
118.0890 1.3515 -0.0196
118.1090 1.3382 -0.0113
118.1290 1.3249 -0.0156
118.1490 1.3115 -0.0189
118.1690 1.2982 -0.0070
118.1890 1.2849 -0.0130
118.2090 1.2715 -0.0183
118.2290 1.2582 -0.0098
118.2490 1.2449 -0.0179
118.2690 1.2316 -0.0172
118.2890 1.2182 -0.0113
118.3090 1.2048 -0.0155
118.3290 1.1915 -0.0151
118.3490 1.1782 -0.0118
118.3690 1.1648 -0.0209
118.3890 1.1515 -0.0138
118.4090 1.1382 -0.0121
118.4290 1.1248 -0.0165
118.4490 1.1115 -0.0117
118.4690 1.0982 -0.0131
118.4890 1.0848 -0.0158
118.5090 1.0715 -0.0140
118.5290 1.0582 -0.0120
118.5490 1.0449 -0.0169
118.5690 1.0316 -0.0148
118.5890 1.0182 -0.0148
118.6090 1.0049 -0.0155
118.6290 0.9916 -0.0162
118.6490 0.9782 -0.0127
118.6690 0.9649 -0.0151
118.6890 0.9515 -0.0136
118.7090 0.9382 -0.0123
118.7290 0.9249 -0.0166
118.7490 0.9115 -0.0162
118.7690 0.8981 -0.0108
118.7890 0.8848 -0.0185
118.8090 0.8715 -0.0157
118.8290 0.8582 -0.0177
118.8490 0.8449 -0.0139
118.8690 0.8315 -0.0168
118.8890 0.8182 -0.0174
118.9090 0.8049 -0.0167
118.9290 0.7916 -0.0174
118.9490 0.7782 -0.0152
118.9690 0.7649 -0.0111
118.9890 0.7516 -0.0162
119.0090 0.7382 -0.0216
119.0290 0.7249 -0.0123
119.0490 0.7115 -0.0157
119.0690 0.6982 -0.0193
119.0890 0.6849 -0.0109
119.1090 0.6715 -0.0212
119.1290 0.6582 -0.0130
119.1490 0.6448 -0.0105
119.1690 0.6315 -0.0211
119.1890 0.6182 -0.0147
119.2090 0.6048 -0.0101
119.2290 0.5915 -0.0180
119.2490 0.5782 -0.0144
119.2690 0.5649 -0.0105
119.2890 0.5516 -0.0218
119.3090 0.5382 -0.0153
119.3290 0.5248 -0.0114
119.3490 0.5115 -0.0184
119.3690 0.4982 -0.0207
119.3890 0.4848 -0.0083
119.4090 0.4715 -0.0174
119.4290 0.4581 -0.0195
119.4490 0.4449 -0.0161
119.4690 0.4315 -0.0158
119.4890 0.4182 -0.0167
119.5090 0.4048 -0.0134
119.5290 0.3915 -0.0168
119.5490 0.3782 -0.0179
119.5690 0.3649 -0.0089
119.5890 0.3515 -0.0188
119.6090 0.3382 -0.0173
119.6290 0.3249 -0.0108
119.6490 0.3116 -0.0232
119.6690 0.2982 -0.0180
119.6890 0.2848 -0.0101
119.7090 0.2715 -0.0179
119.7290 0.2582 -0.0170
119.7490 0.2449 -0.0131
119.7690 0.2315 -0.0207
119.7890 0.2182 -0.0183
119.8090 0.2048 -0.0127
119.8290 0.1915 -0.0216
119.8490 0.1781 -0.0146
119.8690 0.1648 -0.0126
119.8890 0.1515 -0.0199
119.9090 0.1382 -0.0197
119.9290 0.1249 -0.0112
119.9490 0.1115 -0.0170
119.9690 0.0982 -0.0182
119.9890 0.0849 -0.0145
120.0090 0.0716 -0.0212
120.0290 0.0582 -0.0177
120.0490 0.0448 -0.0103
120.0690 0.0315 -0.0231
120.0890 0.0182 -0.0186
120.1090 0.0049 -0.0093
120.1170 -0.0003 0.0020
