Raw Data
Time Displacement Force
(s) (mm) (N)
0.0000 0.0000 0.0086
0.0200 0.0001 0.0195
0.0400 0.0020 0.0963
0.0600 0.0095 0.0814
0.0800 0.0212 0.0042
0.1000 0.0336 0.0069
0.1200 0.0462 0.0410
0.1400 0.0597 0.0088
0.1600 0.0738 0.0114
0.1800 0.0880 0.0212
0.2000 0.1020 0.0003
0.2200 0.1155 0.0085
0.2400 0.1289 0.0216
0.2600 0.1421 0.0065
0.2800 0.1554 0.0159
0.3000 0.1688 0.0192
0.3200 0.1822 0.0027
0.3400 0.1956 0.0200
0.3600 0.2089 0.0181
0.3800 0.2223 0.0071
0.4000 0.2356 0.0208
0.4200 0.2490 0.0162
0.4400 0.2623 0.0105
0.4600 0.2756 0.0209
0.4800 0.2890 0.0166
0.5000 0.3023 0.0138
0.5200 0.3156 0.0225
0.5400 0.3289 0.0185
0.5600 0.3423 0.0120
0.5800 0.3556 0.0235
0.6000 0.3689 0.0128
0.6200 0.3822 0.0166
0.6400 0.3956 0.0237
0.6600 0.4089 0.0163
0.6800 0.4222 0.0150
0.7000 0.4356 0.0206
0.7200 0.4489 0.0165
0.7400 0.4623 0.0173
0.7600 0.4756 0.0251
0.7800 0.4890 0.0191
0.8000 0.5023 0.0147
0.8200 0.5157 0.0209
0.8400 0.5290 0.0186
0.8600 0.5424 0.0180
0.8800 0.5557 0.0176
0.9000 0.5689 0.0219
0.9200 0.5823 0.0165
0.9400 0.5956 0.0177
0.9600 0.6089 0.0226
0.9800 0.6222 0.0233
1.0000 0.6355 0.0174
1.0200 0.6489 0.0205
1.0400 0.6622 0.0228
1.0600 0.6756 0.0155
1.0800 0.6890 0.0232
1.1000 0.7023 0.0205
1.1200 0.7157 0.0162
1.1400 0.7290 0.0261
1.1600 0.7423 0.0245
1.1800 0.7556 0.0192
1.2000 0.7690 0.0256
1.2200 0.7823 0.0198
1.2400 0.7956 0.0176
1.2600 0.8089 0.0292
1.2800 0.8223 0.0273
1.3000 0.8356 0.0144
1.3200 0.8489 0.0271
1.3400 0.8622 0.0331
1.3600 0.8755 0.0148
1.3800 0.8889 0.0278
1.4000 0.9022 0.0302
1.4200 0.9156 0.0092
1.4400 0.9289 0.0314
1.4600 0.9423 0.0332
1.4800 0.9557 0.0120
1.5000 0.9690 0.0329
1.5200 0.9823 0.0246
1.5400 0.9956 0.0103
1.5600 1.0090 0.0351
1.5800 1.0223 0.0281
1.6000 1.0356 0.0134
1.6200 1.0489 0.0375
1.6400 1.0622 0.0258
1.6600 1.0756 0.0106
1.6800 1.0889 0.0389
1.7000 1.1022 0.0203
1.7200 1.1156 0.0191
1.7400 1.1290 0.0392
1.7600 1.1423 0.0242
1.7800 1.1556 0.0189
1.8000 1.1690 0.0295
1.8200 1.1823 0.0275
1.8400 1.1957 0.0229
1.8600 1.2090 0.0319
1.8800 1.2223 0.0212
1.9000 1.2356 0.0185
1.9200 1.2490 0.0347
1.9400 1.2623 0.0264
1.9600 1.2756 0.0235
1.9800 1.2889 0.0324
2.0000 1.3023 0.0259
2.0200 1.3156 0.0264
2.0400 1.3290 0.0346
2.0600 1.3423 0.0296
2.0800 1.3556 0.0210
2.1000 1.3689 0.0352
2.1200 1.3822 0.0242
2.1400 1.3956 0.0199
2.1600 1.4089 0.0393
2.1800 1.4223 0.0264
2.2000 1.4356 0.0144
2.2200 1.4490 0.0354
2.2400 1.4623 0.0277
2.2600 1.4756 0.0216
2.2800 1.4890 0.0380
2.3000 1.5024 0.0230
2.3200 1.5157 0.0209
2.3400 1.5290 0.0427
2.3600 1.5423 0.0231
2.3800 1.5557 0.0230
2.4000 1.5690 0.0392
2.4200 1.5823 0.0191
2.4400 1.5956 0.0239
2.4600 1.6089 0.0437
2.4800 1.6222 0.0211
2.5000 1.6355 0.0249
2.5200 1.6489 0.0378
2.5400 1.6623 0.0270
2.5600 1.6756 0.0279
2.5800 1.6890 0.0404
2.6000 1.7023 0.0271
2.6200 1.7156 0.0297
2.6400 1.7290 0.0380
2.6600 1.7424 0.0297
2.6800 1.7557 0.0299
2.7000 1.7690 0.0388
2.7200 1.7823 0.0350
2.7400 1.7956 0.0326
2.7600 1.8089 0.0408
2.7800 1.8222 0.0386
2.8000 1.8356 0.0373
2.8200 1.8489 0.0448
2.8400 1.8623 0.0397
2.8600 1.8756 0.0351
2.8800 1.8889 0.0531
2.9000 1.9023 0.0465
2.9200 1.9156 0.0383
2.9400 1.9290 0.0556
2.9600 1.9423 0.0502
2.9800 1.9556 0.0416
3.0000 1.9690 0.0586
3.0200 1.9824 0.0517
3.0400 1.9957 0.0469
3.0600 2.0090 0.0650
3.0800 2.0223 0.0548
3.1000 2.0356 0.0507
3.1200 2.0490 0.0682
3.1400 2.0622 0.0605
3.1600 2.0755 0.0562
3.1800 2.0889 0.0712
3.2000 2.1022 0.0613
3.2200 2.1156 0.0566
3.2400 2.1289 0.0753
3.2600 2.1423 0.0630
3.2800 2.1557 0.0612
3.3000 2.1690 0.0741
3.3200 2.1823 0.0659
3.3400 2.1956 0.0698
3.3600 2.2090 0.0759
3.3800 2.2223 0.0676
3.4000 2.2356 0.0755
3.4200 2.2489 0.0794
3.4400 2.2622 0.0726
3.4600 2.2756 0.0769
3.4800 2.2890 0.0786
3.5000 2.3023 0.0777
3.5200 2.3156 0.0855
3.5400 2.3289 0.0822
3.5600 2.3423 0.0792
3.5800 2.3556 0.0903
3.6000 2.3689 0.0805
3.6200 2.3823 0.0842
3.6400 2.3957 0.0982
3.6600 2.4090 0.0834
3.6800 2.4223 0.0886
3.7000 2.4357 0.0990
3.7200 2.4490 0.0868
3.7400 2.4623 0.0923
3.7600 2.4756 0.0959
3.7800 2.4889 0.0949
3.8000 2.5022 0.0980
3.8200 2.5156 0.0995
3.8400 2.5289 0.0873
3.8600 2.5422 0.1026
3.8800 2.5556 0.1048
3.9000 2.5689 0.0904
3.9200 2.5823 0.1060
3.9400 2.5956 0.1063
3.9600 2.6089 0.0955
3.9800 2.6223 0.1103
4.0000 2.6356 0.1027
4.0200 2.6490 0.1025
4.0400 2.6623 0.1113
4.0600 2.6756 0.1015
4.0800 2.6889 0.1083
4.1000 2.7023 0.1139
4.1200 2.7156 0.1086
4.1400 2.7290 0.1084
4.1600 2.7423 0.1177
4.1800 2.7557 0.1108
4.2000 2.7690 0.1169
4.2200 2.7823 0.1146
4.2400 2.7955 0.1139
4.2600 2.8089 0.1209
4.2800 2.8222 0.1135
4.3000 2.8355 0.1167
4.3200 2.8489 0.1225
4.3400 2.8622 0.1159
4.3600 2.8756 0.1196
4.3800 2.8890 0.1177
4.4000 2.9023 0.1235
4.4200 2.9157 0.1253
4.4400 2.9290 0.1249
4.4600 2.9424 0.1192
4.4800 2.9557 0.1296
4.5000 2.9690 0.1239
4.5200 2.9823 0.1290
4.5400 2.9956 0.1307
4.5600 3.0089 0.1264
4.5800 3.0222 0.1349
4.6000 3.0355 0.1335
4.6200 3.0489 0.1277
4.6400 3.0622 0.1334
4.6600 3.0756 0.1364
4.6800 3.0889 0.1305
4.7000 3.1023 0.1362
4.7200 3.1156 0.1445
4.7400 3.1290 0.1329
4.7600 3.1424 0.1398
4.7800 3.1557 0.1410
4.8000 3.1690 0.1389
4.8200 3.1824 0.1430
4.8400 3.1957 0.1380
4.8600 3.2090 0.1412
4.8800 3.2222 0.1472
4.9000 3.2356 0.1413
4.9200 3.2489 0.1449
4.9400 3.2622 0.1488
4.9600 3.2755 0.1502
4.9800 3.2889 0.1500
5.0000 3.3022 0.1467
5.0200 3.3156 0.1463
5.0400 3.3289 0.1538
5.0600 3.3423 0.1532
5.0800 3.3556 0.1508
5.1000 3.3690 0.1552
5.1200 3.3823 0.1500
5.1400 3.3956 0.1575
5.1600 3.4090 0.1602
5.1800 3.4223 0.1550
5.2000 3.4357 0.1567
5.2200 3.4490 0.1623
5.2400 3.4623 0.1526
5.2600 3.4756 0.1651
5.2800 3.4890 0.1638
5.3000 3.5023 0.1584
5.3200 3.5155 0.1646
5.3400 3.5289 0.1655
5.3600 3.5423 0.1588
5.3800 3.5556 0.1680
5.4000 3.5689 0.1660
5.4200 3.5823 0.1625
5.4400 3.5956 0.1705
5.4600 3.6090 0.1640
5.4800 3.6223 0.1663
5.5000 3.6356 0.1754
5.5200 3.6490 0.1658
5.5400 3.6623 0.1715
5.5600 3.6757 0.1764
5.5800 3.6890 0.1680
5.6000 3.7023 0.1766
5.6200 3.7156 0.1770
5.6400 3.7290 0.1695
5.6600 3.7423 0.1741
5.6800 3.7556 0.1801
5.7000 3.7689 0.1747
5.7200 3.7823 0.1782
5.7400 3.7956 0.1817
5.7600 3.8089 0.1750
5.7800 3.8223 0.1762
5.8000 3.8356 0.1878
5.8200 3.8490 0.1785
5.8400 3.8623 0.1797
5.8600 3.8756 0.1879
5.8800 3.8890 0.1787
5.9000 3.9024 0.1810
5.9200 3.9157 0.1880
5.9400 3.9290 0.1862
5.9600 3.9423 0.1831
5.9800 3.9556 0.1895
6.0000 3.9690 0.1856
6.0200 3.9823 0.1874
6.0400 3.9956 0.1934
6.0600 4.0089 0.1840
6.0800 4.0222 0.1897
6.1000 4.0356 0.1981
6.1200 4.0489 0.1884
6.1400 4.0622 0.1898
6.1600 4.0756 0.2014
6.1800 4.0890 0.1856
6.2000 4.1023 0.1907
6.2200 4.1156 0.2040
6.2400 4.1290 0.1890
6.2600 4.1423 0.1972
6.2800 4.1557 0.2023
6.3000 4.1690 0.1916
6.3200 4.1823 0.1998
6.3400 4.1956 0.2086
6.3600 4.2090 0.1935
6.3800 4.2223 0.1956
6.4000 4.2356 0.2124
6.4200 4.2489 0.1927
6.4400 4.2622 0.1973
6.4600 4.2755 0.2142
6.4800 4.2889 0.1962
6.5000 4.3022 0.2031
6.5200 4.3156 0.2123
6.5400 4.3290 0.1997
6.5600 4.3424 0.2020
6.5800 4.3557 0.2144
6.6000 4.3690 0.1990
6.6200 4.3824 0.2033
6.6400 4.3957 0.2142
6.6600 4.4090 0.1971
6.6800 4.4222 0.2100
6.7000 4.4356 0.2190
6.7200 4.4489 0.2005
6.7400 4.4622 0.2145
6.7600 4.4755 0.2149
6.7800 4.4889 0.2073
6.8000 4.5023 0.2130
6.8200 4.5156 0.2194
6.8400 4.5290 0.2043
6.8600 4.5423 0.2128
6.8800 4.5556 0.2219
6.9000 4.5690 0.2072
6.9200 4.5823 0.2200
6.9400 4.5956 0.2236
6.9600 4.6090 0.2115
6.9800 4.6223 0.2213
7.0000 4.6356 0.2196
7.0200 4.6489 0.2143
7.0400 4.6622 0.2260
7.0600 4.6756 0.2238
7.0800 4.6889 0.2125
7.1000 4.7023 0.2256
7.1200 4.7156 0.2268
7.1400 4.7289 0.2172
7.1600 4.7423 0.2271
7.1800 4.7556 0.2247
7.2000 4.7689 0.2201
7.2200 4.7823 0.2290
7.2400 4.7956 0.2279
7.2600 4.8090 0.2239
7.2800 4.8223 0.2272
7.3000 4.8356 0.2289
7.3200 4.8489 0.2291
7.3400 4.8623 0.2264
7.3600 4.8757 0.2321
7.3800 4.8890 0.2299
7.4000 4.9023 0.2296
7.4200 4.9156 0.2331
7.4400 4.9289 0.2322
7.4600 4.9423 0.2317
7.4800 4.9556 0.2375
7.5000 4.9689 0.2335
7.5200 4.9822 0.2346
7.5400 4.9956 0.2407
7.5600 5.0089 0.2389
7.5800 5.0222 0.2345
7.6000 5.0356 0.2418
7.6200 5.0490 0.2372
7.6400 5.0624 0.2347
7.6600 5.0757 0.2399
7.6800 5.0890 0.2453
7.7000 5.1023 0.2370
7.7200 5.1157 0.2412
7.7400 5.1290 0.2419
7.7600 5.1423 0.2407
7.7800 5.1556 0.2440
7.8000 5.1689 0.2451
7.8200 5.1823 0.2365
7.8400 5.1956 0.2451
7.8600 5.2089 0.2488
7.8800 5.2223 0.2393
7.9000 5.2356 0.2505
7.9200 5.2489 0.2457
7.9400 5.2623 0.2427
7.9600 5.2756 0.2538
7.9800 5.2890 0.2485
8.0000 5.3023 0.2449
8.0200 5.3156 0.2537
8.0400 5.3290 0.2538
8.0600 5.3424 0.2476
8.0800 5.3557 0.2505
8.1000 5.3690 0.2511
8.1200 5.3823 0.2504
8.1400 5.3956 0.2547
8.1600 5.4090 0.2556
8.1800 5.4223 0.2515
8.2000 5.4356 0.2533
8.2200 5.4489 0.2561
8.2400 5.4622 0.2525
8.2600 5.4756 0.2548
8.2800 5.4889 0.2622
8.3000 5.5023 0.2577
8.3200 5.5156 0.2524
8.3400 5.5290 0.2607
8.3600 5.5424 0.2570
8.3800 5.5557 0.2560
8.4000 5.5690 0.2674
8.4200 5.5823 0.2573
8.4400 5.5957 0.2561
8.4600 5.6090 0.2630
8.4800 5.6223 0.2570
8.5000 5.6356 0.2633
8.5200 5.6489 0.2636
8.5400 5.6623 0.2569
8.5600 5.6756 0.2669
8.5800 5.6889 0.2668
8.6000 5.7022 0.2621
8.6200 5.7156 0.2689
8.6400 5.7289 0.2653
8.6600 5.7422 0.2693
8.6800 5.7556 0.2661
8.7000 5.7690 0.2646
8.7200 5.7823 0.2677
8.7400 5.7957 0.2672
8.7600 5.8090 0.2707
8.7800 5.8223 0.2705
8.8000 5.8357 0.2663
8.8200 5.8490 0.2685
8.8400 5.8623 0.2769
8.8600 5.8756 0.2658
8.8800 5.8889 0.2736
8.9000 5.9022 0.2766
8.9200 5.9155 0.2632
8.9400 5.9289 0.2769
8.9600 5.9422 0.2777
8.9800 5.9556 0.2670
9.0000 5.9690 0.2782
9.0200 5.9823 0.2775
9.0400 5.9956 0.2720
9.0600 6.0090 0.2787
9.0800 6.0223 0.2805
9.1000 6.0356 0.2653
9.1200 6.0489 0.2806
9.1400 6.0623 0.2840
9.1600 6.0756 0.2671
9.1800 6.0890 0.2834
9.2000 6.1023 0.2836
9.2200 6.1156 0.2721
9.2400 6.1290 0.2832
9.2600 6.1423 0.2829
9.2800 6.1556 0.2749
9.3000 6.1689 0.2865
9.3200 6.1822 0.2860
9.3400 6.1956 0.2710
9.3600 6.2089 0.2880
9.3800 6.2222 0.2879
9.4000 6.2356 0.2782
9.4200 6.2490 0.2867
9.4400 6.2623 0.2861
9.4600 6.2756 0.2802
9.4800 6.2890 0.2910
9.5000 6.3023 0.2866
9.5200 6.3157 0.2811
9.5400 6.3290 0.2913
9.5600 6.3423 0.2865
9.5800 6.3556 0.2876
9.6000 6.3690 0.2924
9.6200 6.3823 0.2886
9.6400 6.3956 0.2829
9.6600 6.4089 0.2924
9.6800 6.4222 0.2906
9.7000 6.4356 0.2820
9.7200 6.4489 0.2958
9.7400 6.4622 0.2955
9.7600 6.4756 0.2854
9.7800 6.4889 0.2948
9.8000 6.5023 0.2939
9.8200 6.5157 0.2866
9.8400 6.5290 0.2953
9.8600 6.5423 0.3003
9.8800 6.5557 0.2885
9.9000 6.5690 0.2925
9.9200 6.5823 0.2994
9.9400 6.5956 0.2932
9.9600 6.6090 0.2961
9.9800 6.6223 0.2970
10.0000 6.6356 0.2905
10.0200 6.6489 0.2995
10.0400 6.6622 0.2980
10.0600 6.6756 0.2912
10.0800 6.6889 0.3006
10.1000 6.7023 0.3002
10.1200 6.7156 0.2921
10.1400 6.7289 0.3044
10.1600 6.7423 0.3022
10.1800 6.7557 0.2928
10.2000 6.7690 0.3034
10.2200 6.7823 0.3027
10.2400 6.7957 0.2939
10.2600 6.8090 0.3077
10.2800 6.8223 0.3052
10.3000 6.8356 0.2925
10.3200 6.8489 0.3079
10.3400 6.8623 0.3053
10.3600 6.8756 0.3008
10.3800 6.8889 0.3085
10.4000 6.9022 0.3056
10.4200 6.9156 0.3010
10.4400 6.9289 0.3049
10.4600 6.9422 0.3091
10.4800 6.9556 0.3039
10.5000 6.9690 0.3079
10.5200 6.9824 0.3095
10.5400 6.9957 0.2985
10.5600 7.0090 0.3080
10.5800 7.0223 0.3147
10.6000 7.0357 0.3050
10.6200 7.0490 0.3056
10.6400 7.0623 0.3175
10.6600 7.0756 0.3044
10.6800 7.0890 0.3088
10.7000 7.1023 0.3196
10.7200 7.1156 0.3027
10.7400 7.1289 0.3113
10.7600 7.1422 0.3220
10.7800 7.1556 0.3004
10.8000 7.1689 0.3129
10.8200 7.1823 0.3238
10.8400 7.1956 0.3034
10.8600 7.2090 0.3135
10.8800 7.2223 0.3214
10.9000 7.2357 0.3074
10.9200 7.2490 0.3192
10.9400 7.2623 0.3171
10.9600 7.2756 0.3069
10.9800 7.2890 0.3212
11.0000 7.3023 0.3206
11.0200 7.3156 0.3134
11.0400 7.3289 0.3205
11.0600 7.3423 0.3184
11.0800 7.3556 0.3135
11.1000 7.3689 0.3207
11.1200 7.3822 0.3238
11.1400 7.3956 0.3162
11.1600 7.4089 0.3193
11.1800 7.4223 0.3190
11.2000 7.4356 0.3182
11.2200 7.4489 0.3230
11.2400 7.4623 0.3211
11.2600 7.4756 0.3184
11.2800 7.4889 0.3200
11.3000 7.5022 0.3279
11.3200 7.5156 0.3206
11.3400 7.5290 0.3208
11.3600 7.5423 0.3307
11.3800 7.5556 0.3208
11.4000 7.5690 0.3232
11.4200 7.5823 0.3252
11.4400 7.5956 0.3224
11.4600 7.6089 0.3264
11.4800 7.6222 0.3274
11.5000 7.6356 0.3267
11.5200 7.6489 0.3198
11.5400 7.6622 0.3335
11.5600 7.6756 0.3275
11.5800 7.6890 0.3210
11.6000 7.7024 0.3325
11.6200 7.7157 0.3247
11.6400 7.7290 0.3264
11.6600 7.7423 0.3327
11.6800 7.7557 0.3235
11.7000 7.7690 0.3293
11.7200 7.7823 0.3345
11.7400 7.7956 0.3251
11.7600 7.8089 0.3317
11.7800 7.8223 0.3348
11.8000 7.8356 0.3244
11.8200 7.8489 0.3338
11.8400 7.8622 0.3377
11.8600 7.8755 0.3274
11.8800 7.8889 0.3329
11.9000 7.9022 0.3336
11.9200 7.9156 0.3321
11.9400 7.9290 0.3353
11.9600 7.9423 0.3323
11.9800 7.9557 0.3322
12.0000 7.9690 0.3367
12.0200 7.9823 0.3313
12.0400 7.9957 0.3372
12.0600 8.0090 0.3383
12.0800 8.0223 0.3312
12.1000 8.0356 0.3361
12.1200 8.0489 0.3407
12.1400 8.0623 0.3339
12.1600 8.0756 0.3311
12.1800 8.0889 0.3396
12.2000 8.1022 0.3373
12.2200 8.1155 0.3323
12.2400 8.1289 0.3388
12.2600 8.1423 0.3348
12.2800 8.1556 0.3356
12.3000 8.1690 0.3443
12.3200 8.1823 0.3345
12.3400 8.1957 0.3330
12.3600 8.2090 0.3439
12.3800 8.2223 0.3338
12.4000 8.2357 0.3380
12.4200 8.2490 0.3432
12.4400 8.2623 0.3385
12.4600 8.2756 0.3424
12.4800 8.2890 0.3435
12.5000 8.3023 0.3350
12.5200 8.3156 0.3456
12.5400 8.3289 0.3440
12.5600 8.3422 0.3382
12.5800 8.3555 0.3499
12.6000 8.3689 0.3401
12.6200 8.3823 0.3395
12.6400 8.3956 0.3508
12.6600 8.4089 0.3418
12.6800 8.4223 0.3402
12.7000 8.4357 0.3501
12.7200 8.4490 0.3372
12.7400 8.4623 0.3440
12.7600 8.4756 0.3530
12.7800 8.4889 0.3437
12.8000 8.5022 0.3429
12.8200 8.5156 0.3506
12.8400 8.5289 0.3481
12.8600 8.5423 0.3415
12.8800 8.5557 0.3484
12.9000 8.5689 0.3464
12.9200 8.5822 0.3455
12.9400 8.5956 0.3497
12.9600 8.6089 0.3451
12.9800 8.6223 0.3433
13.0000 8.6356 0.3520
13.0200 8.6489 0.3508
13.0400 8.6623 0.3418
13.0600 8.6757 0.3517
13.0800 8.6890 0.3475
13.1000 8.7023 0.3447
13.1200 8.7157 0.3554
13.1400 8.7290 0.3478
13.1600 8.7423 0.3460
13.1800 8.7556 0.3559
13.2000 8.7689 0.3519
13.2200 8.7822 0.3458
13.2400 8.7956 0.3541
13.2600 8.8089 0.3541
13.2800 8.8222 0.3473
13.3000 8.8356 0.3568
13.3200 8.8489 0.3509
13.3400 8.8623 0.3475
13.3600 8.8756 0.3613
13.3800 8.8889 0.3532
13.4000 8.9023 0.3458
13.4200 8.9157 0.3611
13.4400 8.9290 0.3566
13.4600 8.9423 0.3479
13.4800 8.9556 0.3655
13.5000 8.9690 0.3564
13.5200 8.9823 0.3506
13.5400 8.9956 0.3634
13.5600 9.0090 0.3601
13.5800 9.0223 0.3440
13.6000 9.0356 0.3670
13.6200 9.0489 0.3583
13.6400 9.0622 0.3477
13.6600 9.0755 0.3720
13.6800 9.0889 0.3518
13.7000 9.1022 0.3497
13.7200 9.1155 0.3738
13.7400 9.1289 0.3566
13.7600 9.1423 0.3530
13.7800 9.1557 0.3695
13.8000 9.1690 0.3546
13.8200 9.1824 0.3568
13.8400 9.1957 0.3741
13.8600 9.2090 0.3552
13.8800 9.2223 0.3580
13.9000 9.2356 0.3682
13.9200 9.2489 0.3592
13.9400 9.2622 0.3574
13.9600 9.2756 0.3687
13.9800 9.2889 0.3602
14.0000 9.3022 0.3624
14.0200 9.3156 0.3697
14.0400 9.3289 0.3609
14.0600 9.3423 0.3618
14.0800 9.3556 0.3661
14.1000 9.3689 0.3648
14.1200 9.3823 0.3637
14.1400 9.3957 0.3683
14.1600 9.4090 0.3654
14.1800 9.4223 0.3628
14.2000 9.4356 0.3705
14.2200 9.4490 0.3664
14.2400 9.4623 0.3641
14.2600 9.4756 0.3704
14.2800 9.4889 0.3730
14.3000 9.5023 0.3645
14.3200 9.5156 0.3691
14.3400 9.5289 0.3718
14.3600 9.5422 0.3652
14.3800 9.5556 0.3719
14.4000 9.5689 0.3712
14.4200 9.5823 0.3658
14.4400 9.5956 0.3671
14.4600 9.6090 0.3799
14.4800 9.6223 0.3641
14.5000 9.6357 0.3700
14.5200 9.6490 0.3778
14.5400 9.6623 0.3646
14.5600 9.6756 0.3721
14.5800 9.6890 0.3767
14.6000 9.7023 0.3706
14.6200 9.7156 0.3766
14.6400 9.7289 0.3778
14.6600 9.7423 0.3688
14.6800 9.7556 0.3774
14.7000 9.7689 0.3784
14.7200 9.7822 0.3727
14.7400 9.7956 0.3803
14.7600 9.8089 0.3726
14.7800 9.8223 0.3710
14.8000 9.8356 0.3797
14.8200 9.8489 0.3787
14.8400 9.8623 0.3730
14.8600 9.8757 0.3769
14.8800 9.8890 0.3814
14.9000 9.9023 0.3750
14.9200 9.9156 0.3799
14.9400 9.9290 0.3812
14.9600 9.9423 0.3761
14.9800 9.9556 0.3779
15.0000 9.9689 0.3866
15.0200 9.9823 0.3774
15.0400 9.9956 0.3799
15.0600 10.0089 0.3863
15.0800 10.0222 0.3784
15.1000 10.0356 0.3807
15.1200 10.0489 0.3866
15.1400 10.0623 0.3778
15.1600 10.0756 0.3825
15.1800 10.0889 0.3847
15.2000 10.1023 0.3782
15.2200 10.1156 0.3826
15.2400 10.1290 0.3887
15.2600 10.1423 0.3771
15.2800 10.1556 0.3892
15.3000 10.1690 0.3870
15.3200 10.1823 0.3764
15.3400 10.1957 0.3896
15.3600 10.2090 0.3901
15.3800 10.2223 0.3827
15.4000 10.2356 0.3873
15.4200 10.2489 0.3896
15.4400 10.2622 0.3830
15.4600 10.2755 0.3893
15.4800 10.2889 0.3935
15.5000 10.3022 0.3850
15.5200 10.3156 0.3886
15.5400 10.3289 0.3919
15.5600 10.3423 0.3871
15.5800 10.3557 0.3865
15.6000 10.3690 0.3881
15.6200 10.3823 0.3903
15.6400 10.3957 0.3878
15.6600 10.4090 0.3930
15.6800 10.4224 0.3866
15.7000 10.4356 0.3911
15.7200 10.4489 0.3955
15.7400 10.4623 0.3918
15.7600 10.4756 0.3911
15.7800 10.4889 0.3944
15.8000 10.5022 0.3911
15.8200 10.5155 0.3908
15.8400 10.5289 0.3959
15.8600 10.5422 0.3911
15.8800 10.5556 0.3894
15.9000 10.5689 0.3957
15.9200 10.5823 0.3933
15.9400 10.5957 0.3908
15.9600 10.6090 0.3968
15.9800 10.6223 0.3924
16.0000 10.6357 0.3911
16.0200 10.6490 0.3995
16.0400 10.6623 0.3952
16.0600 10.6756 0.3932
16.0800 10.6889 0.3954
16.1000 10.7022 0.3961
16.1200 10.7156 0.3911
16.1400 10.7289 0.3982
16.1600 10.7422 0.3981
16.1800 10.7556 0.3976
16.2000 10.7689 0.3959
16.2200 10.7823 0.3966
16.2400 10.7956 0.4000
16.2600 10.8090 0.4007
16.2800 10.8223 0.3997
16.3000 10.8357 0.3964
16.3200 10.8490 0.3983
16.3400 10.8623 0.4028
16.3600 10.8756 0.4000
16.3800 10.8890 0.3978
16.4000 10.9023 0.4039
16.4200 10.9157 0.3990
16.4400 10.9290 0.3976
16.4600 10.9423 0.4066
16.4800 10.9556 0.3968
16.5000 10.9690 0.4036
16.5200 10.9823 0.4089
16.5400 10.9956 0.3952
16.5600 11.0089 0.4071
16.5800 11.0223 0.4081
16.6000 11.0356 0.3948
16.6200 11.0489 0.4044
16.6400 11.0622 0.4105
16.6600 11.0756 0.3949
16.6800 11.0890 0.4074
16.7000 11.1023 0.4103
16.7200 11.1156 0.3972
16.7400 11.1290 0.4042
16.7600 11.1423 0.4120
16.7800 11.1557 0.3967
16.8000 11.1690 0.4126
16.8200 11.1823 0.4106
16.8400 11.1957 0.3971
16.8600 11.2090 0.4118
16.8800 11.2223 0.4128
16.9000 11.2356 0.4000
16.9200 11.2489 0.4095
16.9400 11.2622 0.4088
16.9600 11.2755 0.4029
16.9800 11.2889 0.4103
17.0000 11.3023 0.4104
17.0200 11.3156 0.4029
17.0400 11.3290 0.4085
17.0600 11.3423 0.4085
17.0800 11.3557 0.4022
17.1000 11.3690 0.4100
17.1200 11.3824 0.4118
17.1400 11.3957 0.3965
17.1600 11.4089 0.4071
17.1800 11.4223 0.4184
17.2000 11.4356 0.3998
17.2200 11.4489 0.4074
17.2400 11.4622 0.4173
17.2600 11.4756 0.4042
17.2800 11.4889 0.4094
17.3000 11.5023 0.4128
17.3200 11.5156 0.4059
17.3400 11.5289 0.4107
17.3600 11.5423 0.4156
17.3800 11.5556 0.4075
17.4000 11.5690 0.4076
17.4200 11.5823 0.4184
17.4400 11.5957 0.4070
17.4600 11.6090 0.4093
17.4800 11.6224 0.4203
17.5000 11.6357 0.4083
17.5200 11.6490 0.4070
17.5400 11.6623 0.4241
17.5600 11.6756 0.4092
17.5800 11.6890 0.4086
17.6000 11.7022 0.4219
17.6200 11.7155 0.4116
17.6400 11.7289 0.4116
17.6600 11.7422 0.4233
17.6800 11.7556 0.4121
17.7000 11.7689 0.4115
17.7200 11.7823 0.4218
17.7400 11.7957 0.4128
17.7600 11.8090 0.4099
17.7800 11.8223 0.4209
17.8000 11.8356 0.4147
17.8200 11.8490 0.4107
17.8400 11.8623 0.4223
17.8600 11.8756 0.4181
17.8800 11.8889 0.4106
17.9000 11.9022 0.4256
17.9200 11.9156 0.4195
17.9400 11.9290 0.4081
17.9600 11.9423 0.4315
17.9800 11.9556 0.4200
18.0000 11.9689 0.4091
18.0200 11.9823 0.4310
18.0400 11.9956 0.4186
18.0600 12.0089 0.4106
18.0800 12.0223 0.4331
18.1000 12.0357 0.4174
18.1200 12.0490 0.4097
18.1400 12.0623 0.4320
18.1600 12.0756 0.4182
18.1800 12.0890 0.4102
18.2000 12.1023 0.4341
18.2200 12.1157 0.4166
18.2400 12.1290 0.4195
18.2600 12.1423 0.4351
18.2800 12.1556 0.4216
18.3000 12.1689 0.4154
18.3200 12.1822 0.4344
18.3400 12.1955 0.4224
18.3600 12.2089 0.4172
18.3800 12.2223 0.4388
18.4000 12.2356 0.4222
18.4200 12.2489 0.4170
18.4400 12.2623 0.4368
18.4600 12.2756 0.4199
18.4800 12.2890 0.4219
18.5000 12.3023 0.4371
18.5200 12.3156 0.4222
18.5400 12.3289 0.4241
18.5600 12.3423 0.4363
18.5800 12.3557 0.4229
18.6000 12.3690 0.4302
18.6200 12.3823 0.4373
18.6400 12.3957 0.4181
18.6600 12.4090 0.4293
18.6800 12.4223 0.4313
18.7000 12.4356 0.4233
18.7200 12.4489 0.4356
18.7400 12.4622 0.4331
18.7600 12.4756 0.4245
18.7800 12.4889 0.4305
18.8000 12.5022 0.4320
18.8200 12.5156 0.4273
18.8400 12.5290 0.4292
18.8600 12.5423 0.4330
18.8800 12.5557 0.4314
18.9000 12.5690 0.4322
18.9200 12.5824 0.4293
18.9400 12.5957 0.4290
18.9600 12.6090 0.4353
18.9800 12.6223 0.4329
19.0000 12.6356 0.4344
19.0200 12.6489 0.4291
19.0400 12.6622 0.4340
19.0600 12.6755 0.4331
19.0800 12.6889 0.4267
19.1000 12.7022 0.4353
19.1200 12.7156 0.4325
19.1400 12.7289 0.4301
19.1600 12.7423 0.4400
19.1800 12.7556 0.4331
19.2000 12.7690 0.4316
19.2200 12.7824 0.4422
19.2400 12.7957 0.4346
19.2600 12.8090 0.4291
19.2800 12.8223 0.4413
19.3000 12.8357 0.4371
19.3200 12.8490 0.4313
19.3400 12.8622 0.4413
19.3600 12.8756 0.4354
19.3800 12.8889 0.4318
19.4000 12.9022 0.4448
19.4200 12.9155 0.4347
19.4400 12.9289 0.4355
19.4600 12.9422 0.4421
19.4800 12.9556 0.4320
19.5000 12.9689 0.4386
19.5200 12.9823 0.4402
19.5400 12.9956 0.4347
19.5600 13.0090 0.4412
19.5800 13.0223 0.4423
19.6000 13.0356 0.4371
19.6200 13.0490 0.4373
19.6400 13.0623 0.4433
19.6600 13.0757 0.4378
19.6800 13.0890 0.4397
19.7000 13.1023 0.4445
19.7200 13.1156 0.4413
19.7400 13.1290 0.4379
19.7600 13.1423 0.4446
19.7800 13.1556 0.4434
19.8000 13.1689 0.4367
19.8200 13.1822 0.4496
19.8400 13.1956 0.4434
19.8600 13.2089 0.4360
19.8800 13.2223 0.4497
19.9000 13.2356 0.4426
19.9200 13.2490 0.4367
19.9400 13.2623 0.4511
19.9600 13.2756 0.4458
19.9800 13.2890 0.4372
20.0000 13.3023 0.4539
20.0200 13.3157 0.4440
20.0400 13.3290 0.4397
20.0600 13.3423 0.4510
20.0800 13.3556 0.4420
20.1000 13.3690 0.4454
20.1200 13.3823 0.4513
20.1400 13.3956 0.4418
20.1600 13.4089 0.4494
20.1800 13.4222 0.4509
20.2000 13.4356 0.4433
20.2200 13.4489 0.4449
20.2400 13.4622 0.4557
20.2600 13.4756 0.4424
20.2800 13.4890 0.4457
20.3000 13.5023 0.4534
20.3200 13.5156 0.4433
20.3400 13.5290 0.4511
20.3600 13.5423 0.4507
20.3800 13.5557 0.4414
20.4000 13.5690 0.4514
20.4200 13.5823 0.4501
20.4400 13.5956 0.4446
20.4600 13.6090 0.4526
20.4800 13.6223 0.4496
20.5000 13.6356 0.4424
20.5200 13.6489 0.4534
20.5400 13.6622 0.4516
20.5600 13.6755 0.4461
20.5800 13.6889 0.4588
20.6000 13.7022 0.4449
20.6200 13.7156 0.4468
20.6400 13.7290 0.4570
20.6600 13.7423 0.4450
20.6800 13.7556 0.4512
20.7000 13.7690 0.4575
20.7200 13.7823 0.4468
20.7400 13.7957 0.4519
20.7600 13.8090 0.4570
20.7800 13.8223 0.4505
20.8000 13.8356 0.4566
20.8200 13.8490 0.4545
20.8400 13.8623 0.4515
20.8600 13.8756 0.4572
20.8800 13.8889 0.4551
20.9000 13.9022 0.4541
20.9200 13.9156 0.4558
20.9400 13.9289 0.4572
20.9600 13.9422 0.4558
20.9800 13.9556 0.4555
21.0000 13.9690 0.4586
21.0200 13.9824 0.4558
21.0400 13.9957 0.4559
21.0600 14.0090 0.4572
21.0800 14.0224 0.4589
21.1000 14.0357 0.4533
21.1200 14.0490 0.4626
21.1400 14.0623 0.4568
21.1600 14.0756 0.4537
21.1800 14.0889 0.4696
21.2000 14.1022 0.4537
21.2200 14.1156 0.4561
21.2400 14.1289 0.4700
21.2600 14.1423 0.4552
21.2800 14.1556 0.4550
21.3000 14.1690 0.4696
21.3200 14.1823 0.4577
21.3400 14.1957 0.4568
21.3600 14.2090 0.4727
21.3800 14.2224 0.4545
21.4000 14.2357 0.4608
21.4200 14.2490 0.4731
21.4400 14.2623 0.4560
21.4600 14.2757 0.4608
21.4800 14.2890 0.4714
21.5000 14.3023 0.4583
21.5200 14.3156 0.4682
21.5400 14.3289 0.4750
21.5600 14.3423 0.4565
21.5800 14.3556 0.4656
21.6000 14.3689 0.4770
21.6200 14.3822 0.4558
21.6400 14.3956 0.4675
21.6600 14.4089 0.4734
21.6800 14.4223 0.4579
21.7000 14.4356 0.4708
21.7200 14.4490 0.4720
21.7400 14.4623 0.4577
21.7600 14.4756 0.4708
21.7800 14.4889 0.4757
21.8000 14.5023 0.4588
21.8200 14.5156 0.4723
21.8400 14.5290 0.4769
21.8600 14.5423 0.4596
21.8800 14.5556 0.4721
21.9000 14.5690 0.4747
21.9200 14.5823 0.4594
21.9400 14.5956 0.4728
21.9600 14.6089 0.4740
21.9800 14.6222 0.4635
22.0000 14.6356 0.4721
22.0200 14.6489 0.4770
22.0400 14.6622 0.4610
22.0600 14.6756 0.4723
22.0800 14.6890 0.4757
22.1000 14.7023 0.4643
22.1200 14.7157 0.4724
22.1400 14.7290 0.4786
22.1600 14.7423 0.4659
22.1800 14.7557 0.4720
22.2000 14.7690 0.4786
22.2200 14.7823 0.4716
22.2400 14.7956 0.4741
22.2600 14.8090 0.4793
22.2800 14.8223 0.4679
22.3000 14.8356 0.4722
22.3200 14.8489 0.4806
22.3400 14.8622 0.4702
22.3600 14.8756 0.4753
22.3800 14.8889 0.4795
22.4000 14.9023 0.4783
22.4200 14.9156 0.4747
22.4400 14.9290 0.4784
22.4600 14.9423 0.4739
22.4800 14.9556 0.4740
22.5000 14.9690 0.4827
22.5200 14.9823 0.4739
22.5400 14.9957 0.4796
22.5600 15.0090 0.4792
22.5800 15.0223 0.4771
22.6000 15.0356 0.4823
22.6200 15.0489 0.4787
22.6400 15.0623 0.4837
22.6600 15.0756 0.4773
22.6800 15.0889 0.4799
22.7000 15.1022 0.4845
22.7200 15.1156 0.4795
22.7400 15.1289 0.4815
22.7600 15.1423 0.4835
22.7800 15.1556 0.4780
22.8000 15.1690 0.4794
22.8200 15.1824 0.4828
22.8400 15.1957 0.4820
22.8600 15.2090 0.4836
22.8800 15.2223 0.4845
22.9000 15.2357 0.4737
22.9200 15.2490 0.4902
22.9400 15.2623 0.4868
22.9600 15.2756 0.4795
22.9800 15.2889 0.4905
23.0000 15.3023 0.4830
23.0200 15.3156 0.4768
23.0400 15.3289 0.4906
23.0600 15.3422 0.4827
23.0800 15.3556 0.4804
23.1000 15.3689 0.4934
23.1200 15.3822 0.4842
23.1400 15.3956 0.4827
23.1600 15.4090 0.4985
23.1800 15.4224 0.4816
23.2000 15.4357 0.4834
23.2200 15.4490 0.4956
23.2400 15.4623 0.4867
23.2600 15.4757 0.4858
23.2800 15.4890 0.4955
23.3000 15.5023 0.4853
23.3200 15.5156 0.4842
23.3400 15.5289 0.4975
23.3600 15.5422 0.4842
23.3800 15.5556 0.4874
23.4000 15.5689 0.4958
23.4200 15.5822 0.4841
23.4400 15.5956 0.4883
23.4600 15.6090 0.4954
23.4800 15.6223 0.4862
23.5000 15.6356 0.4893
23.5200 15.6490 0.4978
23.5400 15.6623 0.4851
23.5600 15.6756 0.4878
23.5800 15.6889 0.4999
23.6000 15.7023 0.4865
23.6200 15.7156 0.4903
23.6400 15.7290 0.4955
23.6600 15.7423 0.4917
23.6800 15.7556 0.4939
23.7000 15.7690 0.5007
23.7200 15.7823 0.4913
23.7400 15.7956 0.4928
23.7600 15.8089 0.4980
23.7800 15.8223 0.4958
23.8000 15.8356 0.4927
23.8200 15.8489 0.4977
23.8400 15.8622 0.4954
23.8600 15.8756 0.4900
23.8800 15.8889 0.4964
23.9000 15.9023 0.4944
23.9200 15.9157 0.4925
23.9400 15.9290 0.5019
23.9600 15.9423 0.4924
23.9800 15.9557 0.4949
24.0000 15.9690 0.5037
24.0200 15.9823 0.4953
24.0400 15.9956 0.4957
24.0600 16.0090 0.5026
24.0800 16.0223 0.4927
24.1000 16.0356 0.4947
24.1200 16.0489 0.5048
24.1400 16.0622 0.4972
24.1600 16.0756 0.4975
24.1800 16.0889 0.5067
24.2000 16.1022 0.4940
24.2200 16.1156 0.4983
24.2400 16.1290 0.5057
24.2600 16.1423 0.4967
24.2800 16.1557 0.5000
24.3000 16.1690 0.5036
24.3200 16.1823 0.5011
24.3400 16.1957 0.5017
24.3600 16.2090 0.5077
24.3800 16.2223 0.4978
24.4000 16.2356 0.5031
24.4200 16.2489 0.5039
24.4400 16.2623 0.5003
24.4600 16.2756 0.5065
24.4800 16.2889 0.4998
24.5000 16.3022 0.4998
24.5200 16.3156 0.5093
24.5400 16.3290 0.4987
24.5600 16.3423 0.5038
24.5800 16.3556 0.5122
24.6000 16.3689 0.5018
24.6200 16.3823 0.5009
24.6400 16.3956 0.5126
24.6600 16.4090 0.5033
24.6800 16.4223 0.5002
24.7000 16.4357 0.5128
24.7200 16.4490 0.4986
24.7400 16.4623 0.5043
24.7600 16.4756 0.5126
24.7800 16.4889 0.5002
24.8000 16.5023 0.5048
24.8200 16.5156 0.5138
24.8400 16.5289 0.4992
24.8600 16.5422 0.5063
24.8800 16.5556 0.5137
24.9000 16.5689 0.5006
24.9200 16.5822 0.5087
24.9400 16.5956 0.5123
24.9600 16.6090 0.4997
24.9800 16.6224 0.5109
25.0000 16.6357 0.5117
25.0200 16.6490 0.4997
25.0400 16.6623 0.5137
25.0600 16.6757 0.5108
25.0800 16.6890 0.5002
25.1000 16.7023 0.5148
25.1200 16.7156 0.5132
25.1400 16.7289 0.5002
25.1600 16.7423 0.5109
25.1800 16.7556 0.5130
25.2000 16.7689 0.5039
25.2200 16.7822 0.5178
25.2400 16.7956 0.5135
25.2600 16.8089 0.5024
25.2800 16.8223 0.5123
25.3000 16.8356 0.5140
25.3200 16.8490 0.5042
25.3400 16.8623 0.5113
25.3600 16.8757 0.5170
25.3800 16.8890 0.5074
25.4000 16.9023 0.5120
25.4200 16.9157 0.5182
25.4400 16.9290 0.5089
25.4600 16.9423 0.5137
25.4800 16.9556 0.5180
25.5000 16.9689 0.5099
25.5200 16.9823 0.5148
25.5400 16.9956 0.5184
25.5600 17.0089 0.5083
25.5800 17.0222 0.5156
25.6000 17.0356 0.5225
25.6200 17.0489 0.5056
25.6400 17.0622 0.5174
25.6600 17.0756 0.5217
25.6800 17.0889 0.5064
25.7000 17.1023 0.5185
25.7200 17.1156 0.5216
25.7400 17.1290 0.5102
25.7600 17.1423 0.5213
25.7800 17.1556 0.5232
25.8000 17.1690 0.5083
25.8200 17.1823 0.5220
25.8400 17.1956 0.5233
25.8600 17.2090 0.5068
25.8800 17.2223 0.5256
25.9000 17.2357 0.5226
25.9200 17.2489 0.5105
25.9400 17.2622 0.5264
25.9600 17.2755 0.5199
25.9800 17.2889 0.5140
26.0000 17.3022 0.5232
26.0200 17.3155 0.5207
26.0400 17.3289 0.5160
26.0600 17.3423 0.5227
26.0800 17.3557 0.5214
26.1000 17.3690 0.5181
26.1200 17.3823 0.5260
26.1400 17.3957 0.5228
26.1600 17.4090 0.5202
26.1800 17.4223 0.5236
26.2000 17.4356 0.5247
26.2200 17.4489 0.5238
26.2400 17.4623 0.5188
26.2600 17.4756 0.5262
26.2800 17.4889 0.5223
26.3000 17.5022 0.5246
26.3200 17.5155 0.5315
26.3400 17.5289 0.5163
26.3600 17.5422 0.5275
26.3800 17.5556 0.5302
26.4000 17.5689 0.5165
26.4200 17.5823 0.5275
26.4400 17.5957 0.5287
26.4600 17.6090 0.5192
26.4800 17.6223 0.5266
26.5000 17.6357 0.5333
26.5200 17.6490 0.5200
26.5400 17.6623 0.5308
26.5600 17.6756 0.5311
26.5800 17.6889 0.5208
26.6000 17.7022 0.5329
26.6200 17.7156 0.5279
26.6400 17.7289 0.5223
26.6600 17.7422 0.5356
26.6800 17.7556 0.5294
26.7000 17.7689 0.5231
26.7200 17.7823 0.5324
26.7400 17.7956 0.5318
26.7600 17.8090 0.5231
26.7800 17.8223 0.5333
26.8000 17.8357 0.5284
26.8200 17.8490 0.5284
26.8400 17.8623 0.5329
26.8600 17.8756 0.5355
26.8800 17.8890 0.5280
26.9000 17.9023 0.5315
26.9200 17.9156 0.5369
26.9400 17.9290 0.5289
26.9600 17.9423 0.5339
26.9800 17.9556 0.5371
27.0000 17.9689 0.5296
27.0200 17.9822 0.5344
27.0400 17.9955 0.5344
27.0600 18.0089 0.5329
27.0800 18.0223 0.5356
27.1000 18.0356 0.5360
27.1200 18.0489 0.5351
27.1400 18.0623 0.5355
27.1600 18.0757 0.5380
27.1800 18.0890 0.5346
27.2000 18.1023 0.5336
27.2200 18.1157 0.5453
27.2400 18.1290 0.5321
27.2600 18.1423 0.5381
27.2800 18.1556 0.5436
27.3000 18.1689 0.5299
27.3200 18.1823 0.5400
27.3400 18.1956 0.5419
27.3600 18.2089 0.5281
27.3800 18.2222 0.5472
27.4000 18.2355 0.5443
27.4200 18.2489 0.5286
27.4400 18.2622 0.5476
27.4600 18.2756 0.5443
27.4800 18.2889 0.5334
27.5000 18.3023 0.5479
27.5200 18.3157 0.5402
27.5400 18.3290 0.5354
27.5600 18.3423 0.5529
27.5800 18.3556 0.5401
27.6000 18.3690 0.5398
27.6200 18.3824 0.5479
27.6400 18.3957 0.5378
27.6600 18.4089 0.5394
27.6800 18.4223 0.5492
27.7000 18.4356 0.5375
27.7200 18.4489 0.5429
27.7400 18.4622 0.5462
27.7600 18.4756 0.5388
27.7800 18.4889 0.5451
27.8000 18.5022 0.5454
27.8200 18.5156 0.5416
27.8400 18.5289 0.5481
27.8600 18.5423 0.5451
27.8800 18.5557 0.5366
27.9000 18.5690 0.5458
27.9200 18.5823 0.5485
27.9400 18.5956 0.5456
27.9600 18.6090 0.5466
27.9800 18.6223 0.5456
28.0000 18.6356 0.5444
28.0200 18.6489 0.5522
28.0400 18.6623 0.5447
28.0600 18.6757 0.5457
28.0800 18.6890 0.5491
28.1000 18.7023 0.5476
28.1200 18.7156 0.5462
28.1400 18.7289 0.5502
28.1600 18.7422 0.5474
28.1800 18.7555 0.5453
28.2000 18.7689 0.5539
28.2200 18.7823 0.5507
28.2400 18.7956 0.5470
28.2600 18.8090 0.5545
28.2800 18.8224 0.5515
28.3000 18.8357 0.5531
28.3200 18.8491 0.5502
28.3400 18.8624 0.5530
28.3600 18.8756 0.5506
28.3800 18.8889 0.5516
28.4000 18.9022 0.5505
28.4200 18.9156 0.5495
28.4400 18.9289 0.5531
28.4600 18.9422 0.5510
28.4800 18.9556 0.5525
28.5000 18.9689 0.5564
28.5200 18.9823 0.5505
28.5400 18.9956 0.5549
28.5600 19.0089 0.5567
28.5800 19.0223 0.5540
28.6000 19.0357 0.5507
28.6200 19.0490 0.5564
28.6400 19.0623 0.5581
28.6600 19.0756 0.5516
28.6800 19.0890 0.5584
28.7000 19.1023 0.5560
28.7200 19.1156 0.5559
28.7400 19.1289 0.5575
28.7600 19.1423 0.5537
28.7800 19.1556 0.5537
28.8000 19.1689 0.5545
28.8200 19.1822 0.5597
28.8400 19.1956 0.5592
28.8600 19.2089 0.5553
28.8800 19.2223 0.5577
28.9000 19.2356 0.5584
28.9200 19.2489 0.5583
28.9400 19.2623 0.5581
28.9600 19.2757 0.5605
28.9800 19.2890 0.5599
29.0000 19.3023 0.5617
29.0200 19.3156 0.5555
29.0400 19.3290 0.5632
29.0600 19.3423 0.5628
29.0800 19.3556 0.5528
29.1000 19.3689 0.5645
29.1200 19.3823 0.5637
29.1400 19.3956 0.5519
29.1600 19.4090 0.5680
29.1800 19.4222 0.5636
29.2000 19.4355 0.5526
29.2200 19.4489 0.5737
29.2400 19.4623 0.5625
29.2600 19.4756 0.5526
29.2800 19.4889 0.5752
29.3000 19.5023 0.5576
29.3200 19.5157 0.5559
29.3400 19.5290 0.5784
29.3600 19.5423 0.5585
29.3800 19.5557 0.5611
29.4000 19.5690 0.5699
29.4200 19.5823 0.5531
29.4400 19.5956 0.5658
29.4600 19.6089 0.5765
29.4800 19.6223 0.5610
29.5000 19.6356 0.5658
29.5200 19.6490 0.5725
29.5400 19.6623 0.5599
29.5600 19.6756 0.5689
29.5800 19.6889 0.5744
29.6000 19.7023 0.5623
29.6200 19.7156 0.5670
29.6400 19.7289 0.5706
29.6600 19.7422 0.5634
29.6800 19.7556 0.5676
29.7000 19.7690 0.5711
29.7200 19.7823 0.5681
29.7400 19.7956 0.5659
29.7600 19.8090 0.5721
29.7800 19.8224 0.5692
29.8000 19.8357 0.5684
29.8200 19.8490 0.5717
29.8400 19.8623 0.5687
29.8600 19.8756 0.5734
29.8800 19.8889 0.5689
29.9000 19.9022 0.5748
29.9200 19.9156 0.5677
29.9400 19.9289 0.5708
29.9600 19.9423 0.5747
29.9800 19.9556 0.5674
30.0000 19.9689 0.5736
30.0200 19.9823 0.5741
30.0400 19.9957 0.5687
30.0600 20.0090 0.5738
30.0800 20.0223 0.5738
30.1000 20.0356 0.5684
30.1200 20.0490 0.5769
30.1400 20.0623 0.5747
30.1600 20.0757 0.5644
30.1800 20.0889 0.5826
30.2000 20.1022 0.5793
30.2200 20.1156 0.5679
30.2400 20.1289 0.5815
30.2600 20.1423 0.5753
30.2800 20.1556 0.5702
30.3000 20.1689 0.5821
30.3200 20.1822 0.5768
30.3400 20.1956 0.5728
30.3600 20.2089 0.5839
30.3800 20.2223 0.5753
30.4000 20.2357 0.5724
30.4200 20.2490 0.5845
30.4400 20.2623 0.5745
30.4600 20.2757 0.5773
30.4800 20.2890 0.5837
30.5000 20.3023 0.5743
30.5200 20.3156 0.5803
30.5400 20.3289 0.5793
30.5600 20.3422 0.5799
30.5800 20.3556 0.5829
30.6000 20.3689 0.5766
30.6200 20.3822 0.5837
30.6400 20.3956 0.5824
30.6600 20.4089 0.5796
30.6800 20.4223 0.5841
30.7000 20.4357 0.5799
30.7200 20.4490 0.5782
30.7400 20.4623 0.5855
30.7600 20.4757 0.5799
30.7800 20.4890 0.5784
30.8000 20.5023 0.5935
30.8200 20.5156 0.5732
30.8400 20.5289 0.5853
30.8600 20.5423 0.5920
30.8800 20.5557 0.5696
30.9000 20.5690 0.5917
30.9200 20.5823 0.5914
30.9400 20.5956 0.5687
30.9600 20.6090 0.5907
30.9800 20.6223 0.5952
31.0000 20.6356 0.5734
31.0200 20.6489 0.5897
31.0400 20.6623 0.5915
31.0600 20.6756 0.5730
31.0800 20.6889 0.5935
31.1000 20.7022 0.5940
31.1200 20.7156 0.5726
31.1400 20.7290 0.5987
31.1600 20.7423 0.5869
31.1800 20.7556 0.5771
31.2000 20.7690 0.5978
31.2200 20.7823 0.5874
31.2400 20.7957 0.5795
31.2600 20.8090 0.5967
31.2800 20.8223 0.5895
31.3000 20.8356 0.5804
31.3200 20.8490 0.5938
31.3400 20.8623 0.5914
31.3600 20.8756 0.5815
31.3800 20.8889 0.5959
31.4000 20.9022 0.5879
31.4200 20.9156 0.5842
31.4400 20.9289 0.5956
31.4600 20.9422 0.5913
31.4800 20.9556 0.5854
31.5000 20.9690 0.5911
31.5200 20.9823 0.5939
31.5400 20.9957 0.5914
31.5600 21.0090 0.5954
31.5800 21.0223 0.5936
31.6000 21.0357 0.5915
31.6200 21.0490 0.5969
31.6400 21.0623 0.5950
31.6600 21.0756 0.5929
31.6800 21.0889 0.5987
31.7000 21.1022 0.5906
31.7200 21.1156 0.5912
31.7400 21.1289 0.5974
31.7600 21.1423 0.5937
31.7800 21.1556 0.5939
31.8000 21.1690 0.5977
31.8200 21.1823 0.5941
31.8400 21.1956 0.5947
31.8600 21.2090 0.6009
31.8800 21.2223 0.5968
31.9000 21.2356 0.5971
31.9200 21.2490 0.6027
31.9400 21.2624 0.5979
31.9600 21.2757 0.5956
31.9800 21.2890 0.5969
32.0000 21.3023 0.5954
32.0200 21.3156 0.6030
32.0400 21.3289 0.5984
32.0600 21.3422 0.5957
32.0800 21.3555 0.6065
32.1000 21.3689 0.5980
32.1200 21.3822 0.5972
32.1400 21.3956 0.6040
32.1600 21.4089 0.5989
32.1800 21.4223 0.6029
32.2000 21.4356 0.6037
32.2200 21.4490 0.5967
32.2400 21.4623 0.6014
32.2600 21.4756 0.6049
32.2800 21.4890 0.5995
32.3000 21.5023 0.6022
32.3200 21.5156 0.6081
32.3400 21.5289 0.5983
32.3600 21.5423 0.6041
32.3800 21.5556 0.6050
32.4000 21.5690 0.5951
32.4200 21.5823 0.6071
32.4400 21.5956 0.6052
32.4600 21.6089 0.5961
32.4800 21.6223 0.6087
32.5000 21.6356 0.6044
32.5200 21.6489 0.5986
32.5400 21.6623 0.6131
32.5600 21.6756 0.6049
32.5800 21.6890 0.5965
32.6000 21.7023 0.6131
32.6200 21.7156 0.6051
32.6400 21.7290 0.6003
32.6600 21.7423 0.6153
32.6800 21.7556 0.6047
32.7000 21.7689 0.6059
32.7200 21.7823 0.6147
32.7400 21.7956 0.6091
32.7600 21.8089 0.6053
32.7800 21.8223 0.6110
32.8000 21.8356 0.6091
32.8200 21.8489 0.6074
32.8400 21.8623 0.6089
32.8600 21.8756 0.6110
32.8800 21.8889 0.6074
32.9000 21.9022 0.6072
32.9200 21.9156 0.6140
32.9400 21.9290 0.6056
32.9600 21.9423 0.6054
32.9800 21.9556 0.6199
33.0000 21.9689 0.6088
33.0200 21.9823 0.6098
33.0400 21.9957 0.6185
33.0600 22.0090 0.6080
33.0800 22.0223 0.6130
33.1000 22.0356 0.6183
33.1200 22.0490 0.6034
33.1400 22.0623 0.6182
33.1600 22.0756 0.6198
33.1800 22.0889 0.6066
33.2000 22.1022 0.6173
33.2200 22.1155 0.6177
33.2400 22.1289 0.6093
33.2600 22.1422 0.6235
33.2800 22.1556 0.6141
33.3000 22.1690 0.6098
33.3200 22.1824 0.6225
33.3400 22.1957 0.6153
33.3600 22.2090 0.6166
33.3800 22.2224 0.6228
33.4000 22.2357 0.6157
33.4200 22.2490 0.6159
33.4400 22.2623 0.6215
33.4600 22.2756 0.6214
33.4800 22.2890 0.6171
33.5000 22.3023 0.6166
33.5200 22.3156 0.6176
33.5400 22.3289 0.6186
33.5600 22.3422 0.6169
33.5800 22.3556 0.6194
33.6000 22.3689 0.6220
33.6200 22.3823 0.6161
33.6400 22.3956 0.6236
33.6600 22.4090 0.6206
33.6800 22.4224 0.6176
33.7000 22.4357 0.6241
33.7200 22.4490 0.6196
33.7400 22.4623 0.6204
33.7600 22.4757 0.6226
33.7800 22.4890 0.6216
33.8000 22.5023 0.6215
33.8200 22.5156 0.6257
33.8400 22.5289 0.6171
33.8600 22.5422 0.6214
33.8800 22.5555 0.6307
33.9000 22.5688 0.6153
33.9200 22.5822 0.6256
33.9400 22.5956 0.6281
33.9600 22.6089 0.6153
33.9800 22.6222 0.6274
34.0000 22.6356 0.6292
34.0200 22.6490 0.6159
34.0400 22.6623 0.6239
34.0600 22.6756 0.6308
34.0800 22.6890 0.6190
34.1000 22.7023 0.6241
34.1200 22.7157 0.6287
34.1400 22.7290 0.6214
34.1600 22.7423 0.6265
34.1800 22.7556 0.6297
34.2000 22.7690 0.6221
34.2200 22.7823 0.6257
34.2400 22.7956 0.6335
34.2600 22.8089 0.6193
34.2800 22.8222 0.6298
34.3000 22.8356 0.6312
34.3200 22.8489 0.6230
34.3400 22.8622 0.6296
34.3600 22.8756 0.6318
34.3800 22.8890 0.6273
34.4000 22.9023 0.6244
34.4200 22.9157 0.6301
34.4400 22.9290 0.6310
34.4600 22.9423 0.6280
34.4800 22.9557 0.6316
34.5000 22.9690 0.6332
34.5200 22.9822 0.6299
34.5400 22.9956 0.6318
34.5600 23.0089 0.6309
34.5800 23.0223 0.6308
34.6000 23.0356 0.6328
34.6200 23.0489 0.6308
34.6400 23.0622 0.6299
34.6600 23.0756 0.6343
34.6800 23.0889 0.6306
34.7000 23.1022 0.6327
34.7200 23.1156 0.6345
34.7400 23.1290 0.6370
34.7600 23.1423 0.6258
34.7800 23.1556 0.6392
34.8000 23.1690 0.6432
34.8200 23.1823 0.6251
34.8400 23.1957 0.6401
34.8600 23.2090 0.6375
34.8800 23.2223 0.6260
34.9000 23.2356 0.6432
34.9200 23.2490 0.6385
34.9400 23.2623 0.6255
34.9600 23.2756 0.6453
34.9800 23.2889 0.6431
35.0000 23.3022 0.6254
35.0200 23.3156 0.6444
35.0400 23.3289 0.6409
35.0600 23.3422 0.6294
35.0800 23.3556 0.6486
35.1000 23.3690 0.6373
35.1200 23.3823 0.6353
35.1400 23.3956 0.6482
35.1600 23.4090 0.6344
35.1800 23.4223 0.6392
35.2000 23.4357 0.6436
35.2200 23.4490 0.6348
35.2400 23.4623 0.6416
35.2600 23.4756 0.6463
35.2800 23.4890 0.6417
35.3000 23.5023 0.6422
35.3200 23.5156 0.6435
35.3400 23.5289 0.6393
35.3600 23.5422 0.6473
35.3800 23.5556 0.6408
35.4000 23.5689 0.6404
35.4200 23.5822 0.6493
35.4400 23.5956 0.6437
35.4600 23.6090 0.6414
35.4800 23.6224 0.6455
35.5000 23.6357 0.6456
35.5200 23.6490 0.6473
35.5400 23.6624 0.6426
35.5600 23.6757 0.6432
35.5800 23.6890 0.6455
35.6000 23.7023 0.6483
35.6200 23.7156 0.6465
35.6400 23.7289 0.6497
35.6600 23.7422 0.6465
35.6800 23.7556 0.6495
35.7000 23.7689 0.6500
35.7200 23.7822 0.6457
35.7400 23.7956 0.6537
35.7600 23.8090 0.6490
35.7800 23.8223 0.6471
35.8000 23.8356 0.6498
35.8200 23.8490 0.6479
35.8400 23.8624 0.6517
35.8600 23.8757 0.6469
35.8800 23.8890 0.6504
35.9000 23.9023 0.6517
35.9200 23.9157 0.6474
35.9400 23.9290 0.6529
35.9600 23.9423 0.6530
35.9800 23.9556 0.6519
36.0000 23.9689 0.6504
36.0200 23.9823 0.6527
36.0400 23.9956 0.6507
36.0600 24.0089 0.6577
36.0800 24.0222 0.6531
36.1000 24.0356 0.6507
36.1200 24.0490 0.6560
36.1400 24.0623 0.6533
36.1600 24.0756 0.6521
36.1800 24.0890 0.6574
36.2000 24.1023 0.6536
36.2200 24.1157 0.6494
36.2400 24.1290 0.6601
36.2600 24.1423 0.6547
36.2800 24.1557 0.6517
36.3000 24.1690 0.6602
36.3200 24.1823 0.6496
36.3400 24.1956 0.6583
36.3600 24.2089 0.6648
36.3800 24.2223 0.6511
36.4000 24.2356 0.6554
36.4200 24.2489 0.6640
36.4400 24.2622 0.6494
36.4600 24.2756 0.6630
36.4800 24.2889 0.6642
36.5000 24.3023 0.6503
36.5200 24.3156 0.6631
36.5400 24.3290 0.6621
36.5600 24.3423 0.6500
36.5800 24.3557 0.6651
36.6000 24.3690 0.6634
36.6200 24.3823 0.6533
36.6400 24.3957 0.6708
36.6600 24.4090 0.6558
36.6800 24.4223 0.6560
36.7000 24.4356 0.6747
36.7200 24.4489 0.6564
36.7400 24.4623 0.6637
36.7600 24.4756 0.6682
36.7800 24.4889 0.6529
36.8000 24.5022 0.6672
36.8200 24.5156 0.6664
36.8400 24.5289 0.6533
36.8600 24.5422 0.6699
36.8800 24.5556 0.6709
36.9000 24.5689 0.6547
36.9200 24.5823 0.6700
36.9400 24.5957 0.6690
36.9600 24.6090 0.6581
36.9800 24.6223 0.6701
37.0000 24.6357 0.6681
37.0200 24.6490 0.6593
37.0400 24.6623 0.6732
37.0600 24.6756 0.6671
37.0800 24.6889 0.6629
37.1000 24.7023 0.6725
37.1200 24.7156 0.6636
37.1400 24.7289 0.6632
37.1600 24.7422 0.6787
37.1800 24.7556 0.6643
37.2000 24.7689 0.6628
37.2200 24.7823 0.6775
37.2400 24.7956 0.6666
37.2600 24.8090 0.6646
37.2800 24.8223 0.6787
37.3000 24.8357 0.6645
37.3200 24.8490 0.6714
37.3400 24.8623 0.6793
37.3600 24.8757 0.6621
37.3800 24.8890 0.6721
37.4000 24.9023 0.6764
37.4200 24.9156 0.6696
37.4400 24.9289 0.6748
37.4600 24.9423 0.6773
37.4800 24.9556 0.6687
37.5000 24.9689 0.6718
37.5200 24.9822 0.6783
37.5400 24.9956 0.6728
37.5600 25.0089 0.6761
37.5800 25.0222 0.6746
37.6000 25.0356 0.6734
37.6200 25.0489 0.6793
37.6400 25.0623 0.6744
37.6600 25.0757 0.6784
37.6800 25.0890 0.6752
37.7000 25.1023 0.6797
37.7200 25.1157 0.6777
37.7400 25.1290 0.6730
37.7600 25.1423 0.6807
37.7800 25.1556 0.6773
37.8000 25.1689 0.6803
37.8200 25.1823 0.6815
37.8400 25.1956 0.6767
37.8600 25.2089 0.6814
37.8800 25.2222 0.6838
37.9000 25.2356 0.6795
37.9200 25.2490 0.6783
37.9400 25.2623 0.6825
37.9600 25.2756 0.6816
37.9800 25.2890 0.6813
38.0000 25.3023 0.6850
38.0200 25.3157 0.6803
38.0400 25.3289 0.6801
38.0600 25.3423 0.6876
38.0800 25.3556 0.6831
38.1000 25.3690 0.6789
38.1200 25.3823 0.6914
38.1400 25.3956 0.6846
38.1600 25.4090 0.6826
38.1800 25.4223 0.6923
38.2000 25.4356 0.6819
38.2200 25.4489 0.6840
38.2400 25.4622 0.6949
38.2600 25.4756 0.6812
38.2800 25.4889 0.6854
38.3000 25.5022 0.6926
38.3200 25.5156 0.6814
38.3400 25.5289 0.6871
38.3600 25.5423 0.6947
38.3800 25.5556 0.6833
38.4000 25.5690 0.6880
38.4200 25.5823 0.6948
38.4400 25.5957 0.6839
38.4600 25.6090 0.6922
38.4800 25.6223 0.6961
38.5000 25.6356 0.6870
38.5200 25.6490 0.6929
38.5400 25.6623 0.6940
38.5600 25.6756 0.6859
38.5800 25.6889 0.6935
38.6000 25.7022 0.6985
38.6200 25.7155 0.6864
38.6400 25.7289 0.6905
38.6600 25.7422 0.6958
38.6800 25.7556 0.6873
38.7000 25.7689 0.6892
38.7200 25.7823 0.6994
38.7400 25.7957 0.6888
38.7600 25.8090 0.6927
38.7800 25.8223 0.7022
38.8000 25.8357 0.6925
38.8200 25.8490 0.6882
38.8400 25.8623 0.7043
38.8600 25.8756 0.6948
38.8800 25.8889 0.6929
38.9000 25.9023 0.7089
38.9200 25.9156 0.6932
38.9400 25.9289 0.6922
38.9600 25.9422 0.7106
38.9800 25.9556 0.6926
39.0000 25.9689 0.6916
39.0200 25.9823 0.7112
39.0400 25.9956 0.6924
39.0600 26.0089 0.6970
39.0800 26.0223 0.7067
39.1000 26.0356 0.6937
39.1200 26.0490 0.6976
39.1400 26.0623 0.7064
39.1600 26.0757 0.6928
39.1800 26.0890 0.6977
39.2000 26.1023 0.7100
39.2200 26.1156 0.6975
39.2400 26.1289 0.7041
39.2600 26.1423 0.7092
39.2800 26.1556 0.6939
39.3000 26.1689 0.7056
39.3200 26.1822 0.7084
39.3400 26.1955 0.6998
39.3600 26.2089 0.7016
39.3800 26.2222 0.7080
39.4000 26.2356 0.7034
39.4200 26.2489 0.7026
39.4400 26.2623 0.7096
39.4600 26.2757 0.7037
39.4800 26.2890 0.7026
39.5000 26.3023 0.7101
39.5200 26.3156 0.7067
39.5400 26.3290 0.6997
39.5600 26.3423 0.7121
39.5800 26.3556 0.7080
39.6000 26.3689 0.7020
39.6200 26.3823 0.7162
39.6400 26.3956 0.7067
39.6600 26.4089 0.7056
39.6800 26.4222 0.7167
39.7000 26.4356 0.7055
39.7200 26.4489 0.7073
39.7400 26.4623 0.7170
39.7600 26.4756 0.7070
39.7800 26.4889 0.7081
39.8000 26.5023 0.7186
39.8200 26.5157 0.7074
39.8400 26.5290 0.7081
39.8600 26.5423 0.7148
39.8800 26.5557 0.7096
39.9000 26.5690 0.7134
39.9200 26.5823 0.7177
39.9400 26.5956 0.7097
39.9600 26.6089 0.7131
39.9800 26.6223 0.7170
40.0000 26.6356 0.7121
40.0200 26.6489 0.7118
40.0400 26.6622 0.7202
40.0600 26.6756 0.7157
40.0800 26.6889 0.7125
40.1000 26.7023 0.7212
40.1200 26.7156 0.7135
40.1400 26.7289 0.7144
40.1600 26.7423 0.7194
40.1800 26.7556 0.7138
40.2000 26.7690 0.7143
40.2200 26.7823 0.7220
40.2400 26.7956 0.7196
40.2600 26.8090 0.7161
40.2800 26.8223 0.7226
40.3000 26.8356 0.7183
40.3200 26.8490 0.7200
40.3400 26.8623 0.7237
40.3600 26.8757 0.7147
40.3800 26.8890 0.7261
40.4000 26.9022 0.7218
40.4200 26.9155 0.7192
40.4400 26.9289 0.7275
40.4600 26.9422 0.7206
40.4800 26.9556 0.7220
40.5000 26.9689 0.7312
40.5200 26.9823 0.7205
40.5400 26.9957 0.7173
40.5600 27.0090 0.7350
40.5800 27.0223 0.7206
40.6000 27.0357 0.7214
40.6200 27.0490 0.7341
40.6400 27.0624 0.7170
40.6600 27.0756 0.7250
40.6800 27.0889 0.7311
40.7000 27.1023 0.7231
40.7200 27.1156 0.7262
40.7400 27.1289 0.7352
40.7600 27.1422 0.7250
40.7800 27.1555 0.7309
40.8000 27.1689 0.7308
40.8200 27.1822 0.7242
40.8400 27.1956 0.7334
40.8600 27.2089 0.7323
40.8800 27.2223 0.7251
40.9000 27.2357 0.7304
40.9200 27.2490 0.7332
40.9400 27.2624 0.7275
40.9600 27.2757 0.7324
40.9800 27.2891 0.7320
41.0000 27.3024 0.7266
41.0200 27.3156 0.7334
41.0400 27.3289 0.7366
41.0600 27.3423 0.7306
41.0800 27.3556 0.7335
41.1000 27.3689 0.7349
41.1200 27.3822 0.7305
41.1400 27.3955 0.7349
41.1600 27.4089 0.7376
41.1800 27.4223 0.7284
41.2000 27.4356 0.7383
41.2200 27.4489 0.7409
41.2400 27.4623 0.7319
41.2600 27.4757 0.7354
41.2800 27.4890 0.7440
41.3000 27.5023 0.7345
41.3200 27.5156 0.7397
41.3400 27.5290 0.7429
41.3600 27.5423 0.7322
41.3800 27.5556 0.7416
41.4000 27.5690 0.7433
41.4200 27.5823 0.7301
41.4400 27.5956 0.7396
41.4600 27.6089 0.7433
41.4800 27.6222 0.7347
41.5000 27.6355 0.7464
41.5200 27.6489 0.7447
41.5400 27.6623 0.7310
41.5600 27.6756 0.7453
41.5800 27.6889 0.7461
41.6000 27.7023 0.7345
41.6200 27.7157 0.7489
41.6400 27.7290 0.7413
41.6600 27.7423 0.7377
41.6800 27.7556 0.7490
41.7000 27.7690 0.7437
41.7200 27.7823 0.7382
41.7400 27.7956 0.7486
41.7600 27.8089 0.7492
41.7800 27.8222 0.7394
41.8000 27.8356 0.7505
41.8200 27.8490 0.7500
41.8400 27.8623 0.7430
41.8600 27.8756 0.7535
41.8800 27.8889 0.7473
41.9000 27.9022 0.7435
41.9200 27.9156 0.7492
41.9400 27.9289 0.7536
41.9600 27.9423 0.7499
41.9800 27.9557 0.7454
42.0000 27.9690 0.7533
42.0200 27.9823 0.7458
42.0400 27.9956 0.7513
42.0600 28.0090 0.7580
42.0800 28.0224 0.7431
42.1000 28.0357 0.7549
42.1200 28.0490 0.7579
42.1400 28.0623 0.7457
42.1600 28.0756 0.7540
42.1800 28.0889 0.7597
42.2000 28.1022 0.7484
42.2200 28.1155 0.7555
42.2400 28.1289 0.7639
42.2600 28.1422 0.7510
42.2800 28.1556 0.7514
42.3000 28.1689 0.7660
42.3200 28.1823 0.7501
42.3400 28.1957 0.7569
42.3600 28.2090 0.7655
42.3800 28.2223 0.7515
42.4000 28.2356 0.7590
42.4200 28.2490 0.7613
42.4400 28.2623 0.7509
42.4600 28.2756 0.7617
42.4800 28.2889 0.7673
42.5000 28.3023 0.7504
42.5200 28.3156 0.7603
42.5400 28.3289 0.7697
42.5600 28.3422 0.7484
42.5800 28.3555 0.7671
42.6000 28.3689 0.7692
42.6200 28.3822 0.7481
42.6400 28.3956 0.7647
42.6600 28.4089 0.7690
42.6800 28.4223 0.7501
42.7000 28.4357 0.7677
42.7200 28.4490 0.7696
42.7400 28.4624 0.7489
42.7600 28.4757 0.7681
42.7800 28.4890 0.7689
42.8000 28.5024 0.7555
42.8200 28.5156 0.7677
42.8400 28.5289 0.7679
42.8600 28.5422 0.7633
42.8800 28.5556 0.7713
42.9000 28.5689 0.7624
42.9200 28.5822 0.7620
42.9400 28.5956 0.7723
42.9600 28.6089 0.7667
42.9800 28.6223 0.7634
43.0000 28.6356 0.7726
43.0200 28.6490 0.7692
43.0400 28.6623 0.7643
43.0600 28.6757 0.7734
43.0800 28.6890 0.7701
43.1000 28.7023 0.7669
43.1200 28.7156 0.7750
43.1400 28.7290 0.7688
43.1600 28.7423 0.7691
43.1800 28.7556 0.7730
43.2000 28.7689 0.7725
43.2200 28.7822 0.7742
43.2400 28.7956 0.7740
43.2600 28.8089 0.7723
43.2800 28.8222 0.7753
43.3000 28.8356 0.7758
43.3200 28.8489 0.7716
43.3400 28.8623 0.7761
43.3600 28.8756 0.7723
43.3800 28.8889 0.7717
43.4000 28.9023 0.7784
43.4200 28.9157 0.7740
43.4400 28.9290 0.7784
43.4600 28.9423 0.7768
43.4800 28.9556 0.7772
43.5000 28.9690 0.7832
43.5200 28.9823 0.7750
43.5400 28.9956 0.7764
43.5600 29.0090 0.7867
43.5800 29.0223 0.7773
43.6000 29.0356 0.7753
43.6200 29.0490 0.7837
43.6400 29.0622 0.7767
43.6600 29.0755 0.7818
43.6800 29.0889 0.7900
43.7000 29.1023 0.7776
43.7200 29.1156 0.7811
43.7400 29.1289 0.7911
43.7600 29.1423 0.7789
43.7800 29.1557 0.7791
43.8000 29.1690 0.7887
43.8200 29.1823 0.7821
43.8400 29.1957 0.7805
43.8600 29.2090 0.7880
43.8800 29.2223 0.7838
43.9000 29.2356 0.7820
43.9200 29.2489 0.7909
43.9400 29.2623 0.7862
43.9600 29.2756 0.7836
43.9800 29.2889 0.7941
44.0000 29.3022 0.7835
44.0200 29.3156 0.7844
44.0400 29.3289 0.7956
44.0600 29.3423 0.7833
44.0800 29.3556 0.7860
44.1000 29.3689 0.7977
44.1200 29.3823 0.7834
44.1400 29.3956 0.7879
44.1600 29.4090 0.7976
44.1800 29.4223 0.7804
44.2000 29.4356 0.7944
44.2200 29.4490 0.7962
44.2400 29.4624 0.7798
44.2600 29.4757 0.7992
44.2800 29.4889 0.7944
44.3000 29.5023 0.7820
44.3200 29.5156 0.8017
44.3400 29.5289 0.7954
44.3600 29.5422 0.7844
44.3800 29.5555 0.8031
44.4000 29.5689 0.7989
44.4200 29.5822 0.7860
44.4400 29.5956 0.8041
44.4600 29.6089 0.7949
44.4800 29.6223 0.7896
44.5000 29.6357 0.8018
44.5200 29.6490 0.7926
44.5400 29.6623 0.7903
44.5600 29.6757 0.8042
44.5800 29.6890 0.7947
44.6000 29.7024 0.7918
44.6200 29.7157 0.8004
44.6400 29.7289 0.8002
44.6600 29.7422 0.7995
44.6800 29.7556 0.8033
44.7000 29.7689 0.7976
44.7200 29.7822 0.7975
44.7400 29.7955 0.8086
44.7600 29.8089 0.8036
44.7800 29.8222 0.7953
44.8000 29.8356 0.8055
44.8200 29.8489 0.8009
44.8400 29.8623 0.8046
44.8600 29.8757 0.8098
44.8800 29.8890 0.8000
44.9000 29.9023 0.8041
44.9200 29.9157 0.8104
44.9400 29.9290 0.8034
44.9600 29.9423 0.8062
44.9800 29.9556 0.8105
45.0000 29.9689 0.8058
45.0200 29.9822 0.8109
45.0400 29.9956 0.8113
45.0600 30.0089 0.8073
45.0800 30.0222 0.8150
45.1000 30.0356 0.8076
45.1200 30.0489 0.8063
45.1400 30.0623 0.8160
45.1600 30.0756 0.8060
45.1800 30.0890 0.8116
45.2000 30.1023 0.8205
45.2200 30.1157 0.8076
45.2400 30.1290 0.8104
45.2600 30.1423 0.8163
45.2800 30.1556 0.8107
45.3000 30.1689 0.8145
45.3200 30.1823 0.8160
45.3400 30.1957 0.8163
45.3600 30.2090 0.8134
45.3800 30.2223 0.8207
45.4000 30.2356 0.8120
45.4200 30.2490 0.8180
45.4400 30.2623 0.8186
45.4600 30.2756 0.8158
45.4800 30.2889 0.8171
45.5000 30.3023 0.8197
45.5200 30.3156 0.8172
45.5400 30.3289 0.8142
45.5600 30.3422 0.8225
45.5800 30.3556 0.8205
45.6000 30.3690 0.8178
45.6200 30.3823 0.8238
45.6400 30.3956 0.8198
45.6600 30.4090 0.8184
45.6800 30.4223 0.8223
45.7000 30.4357 0.8206
45.7200 30.4490 0.8212
45.7400 30.4623 0.8263
45.7600 30.4756 0.8236
45.7800 30.4890 0.8202
45.8000 30.5023 0.8294
45.8200 30.5156 0.8244
45.8400 30.5289 0.8235
45.8600 30.5422 0.8322
45.8800 30.5556 0.8248
45.9000 30.5689 0.8239
45.9200 30.5822 0.8301
45.9400 30.5956 0.8235
45.9600 30.6090 0.8248
45.9800 30.6223 0.8313
46.0000 30.6356 0.8251
46.0200 30.6490 0.8210
46.0400 30.6623 0.8371
46.0600 30.6756 0.8225
46.0800 30.6889 0.8255
46.1000 30.7022 0.8365
46.1200 30.7156 0.8275
46.1400 30.7290 0.8291
46.1600 30.7423 0.8383
46.1800 30.7556 0.8255
46.2000 30.7689 0.8275
46.2200 30.7823 0.8397
46.2400 30.7956 0.8306
46.2600 30.8089 0.8302
46.2800 30.8223 0.8396
46.3000 30.8356 0.8254
46.3200 30.8490 0.8313
46.3400 30.8623 0.8387
46.3600 30.8757 0.8316
46.3800 30.8890 0.8354
46.4000 30.9023 0.8394
46.4200 30.9157 0.8327
46.4400 30.9290 0.8347
46.4600 30.9423 0.8445
46.4800 30.9556 0.8369
46.5000 30.9690 0.8356
46.5200 30.9823 0.8396
46.5400 30.9956 0.8343
46.5600 31.0089 0.8457
46.5800 31.0222 0.8429
46.6000 31.0356 0.8380
46.6200 31.0489 0.8411
46.6400 31.0623 0.8374
46.6600 31.0756 0.8401
46.6800 31.0890 0.8447
46.7000 31.1023 0.8405
46.7200 31.1156 0.8442
46.7400 31.1290 0.8428
46.7600 31.1423 0.8397
46.7800 31.1557 0.8464
46.8000 31.1690 0.8377
46.8200 31.1823 0.8445
46.8400 31.1956 0.8472
46.8600 31.2090 0.8380
46.8800 31.2223 0.8479
46.9000 31.2356 0.8547
46.9200 31.2489 0.8348
46.9400 31.2623 0.8492
46.9600 31.2756 0.8511
46.9800 31.2889 0.8369
47.0000 31.3023 0.8580
47.0200 31.3156 0.8501
47.0400 31.3290 0.8319
47.0600 31.3423 0.8567
47.0800 31.3556 0.8555
47.1000 31.3689 0.8390
47.1200 31.3823 0.8626
47.1400 31.3957 0.8508
47.1600 31.4090 0.8435
47.1800 31.4223 0.8655
47.2000 31.4356 0.8507
47.2200 31.4489 0.8500
47.2400 31.4622 0.8628
47.2600 31.4756 0.8516
47.2800 31.4889 0.8521
47.3000 31.5023 0.8635
47.3200 31.5156 0.8490
47.3400 31.5289 0.8547
47.3600 31.5423 0.8658
47.3800 31.5556 0.8503
47.4000 31.5690 0.8582
47.4200 31.5823 0.8610
47.4400 31.5956 0.8547
47.4600 31.6089 0.8614
47.4800 31.6223 0.8619
47.5000 31.6356 0.8568
47.5200 31.6490 0.8620
47.5400 31.6623 0.8600
47.5600 31.6756 0.8641
47.5800 31.6890 0.8622
47.6000 31.7023 0.8602
47.6200 31.7156 0.8616
47.6400 31.7289 0.8629
47.6600 31.7422 0.8582
47.6800 31.7555 0.8691
47.7000 31.7689 0.8657
47.7200 31.7822 0.8608
47.7400 31.7956 0.8698
47.7600 31.8090 0.8623
47.7800 31.8224 0.8615
47.8000 31.8357 0.8747
47.8200 31.8490 0.8636
47.8400 31.8624 0.8650
47.8600 31.8757 0.8728
47.8800 31.8890 0.8621
47.9000 31.9023 0.8695
47.9200 31.9156 0.8782
47.9400 31.9289 0.8615
47.9600 31.9422 0.8698
47.9800 31.9555 0.8732
48.0000 31.9689 0.8651
48.0200 31.9822 0.8797
48.0400 31.9956 0.8745
48.0600 32.0089 0.8664
48.0800 32.0223 0.8735
48.1000 32.0356 0.8761
48.1200 32.0490 0.8715
48.1400 32.0624 0.8759
48.1600 32.0757 0.8748
48.1800 32.0890 0.8775
48.2000 32.1024 0.8775
48.2200 32.1157 0.8761
48.2400 32.1290 0.8824
48.2600 32.1423 0.8709
48.2800 32.1556 0.8805
48.3000 32.1689 0.8842
48.3200 32.1823 0.8735
48.3400 32.1956 0.8847
48.3600 32.2089 0.8854
48.3800 32.2222 0.8788
48.4000 32.2356 0.8844
48.4200 32.2489 0.8860
48.4400 32.2622 0.8801
48.4600 32.2756 0.8861
48.4800 32.2890 0.8844
48.5000 32.3023 0.8822
48.5200 32.3156 0.8878
48.5400 32.3290 0.8824
48.5600 32.3423 0.8842
48.5800 32.3557 0.8887
48.6000 32.3690 0.8796
48.6200 32.3823 0.8922
48.6400 32.3956 0.8886
48.6600 32.4090 0.8843
48.6800 32.4223 0.8886
48.7000 32.4356 0.8892
48.7200 32.4489 0.8891
48.7400 32.4622 0.8939
48.7600 32.4756 0.8867
48.7800 32.4889 0.8870
48.8000 32.5023 0.8994
48.8200 32.5156 0.8883
48.8400 32.5290 0.8907
48.8600 32.5423 0.8959
48.8800 32.5557 0.8901
48.9000 32.5690 0.8916
48.9200 32.5823 0.8967
48.9400 32.5957 0.8908
48.9600 32.6090 0.8948
48.9800 32.6223 0.8965
49.0000 32.6356 0.8943
49.0200 32.6489 0.9001
49.0400 32.6623 0.8960
49.0600 32.6756 0.8965
49.0800 32.6889 0.9041
49.1000 32.7022 0.8953
49.1200 32.7156 0.8971
49.1400 32.7289 0.9048
49.1600 32.7422 0.9004
49.1800 32.7556 0.8989
49.2000 32.7690 0.9081
49.2200 32.7823 0.8994
49.2400 32.7957 0.8954
49.2600 32.8090 0.9094
49.2800 32.8223 0.9040
49.3000 32.8357 0.8945
49.3200 32.8490 0.9122
49.3400 32.8623 0.9008
49.3600 32.8756 0.8998
49.3800 32.8890 0.9140
49.4000 32.9023 0.9045
49.4200 32.9156 0.9043
49.4400 32.9289 0.9140
49.4600 32.9422 0.9035
49.4800 32.9556 0.9027
49.5000 32.9689 0.9149
49.5200 32.9823 0.9080
49.5400 32.9956 0.9042
49.5600 33.0090 0.9155
49.5800 33.0223 0.9113
49.6000 33.0356 0.9042
49.6200 33.0490 0.9203
49.6400 33.0623 0.9115
49.6600 33.0757 0.9067
49.6800 33.0890 0.9217
49.7000 33.1023 0.9085
49.7200 33.1156 0.9132
49.7400 33.1289 0.9213
49.7600 33.1423 0.9060
49.7800 33.1556 0.9105
49.8000 33.1689 0.9321
49.8200 33.1822 0.9124
49.8400 33.1955 0.9097
49.8600 33.2089 0.9348
49.8800 33.2222 0.9090
49.9000 33.2356 0.9139
49.9200 33.2490 0.9361
49.9400 33.2624 0.9089
49.9600 33.2757 0.9164
49.9800 33.2890 0.9327
50.0000 33.3024 0.9072
50.0200 33.3157 0.9214
50.0400 33.3290 0.9319
50.0600 33.3423 0.9110
50.0800 33.3556 0.9226
50.1000 33.3689 0.9353
50.1200 33.3822 0.9136
50.1400 33.3955 0.9229
50.1600 33.4089 0.9364
50.1800 33.4222 0.9190
50.2000 33.4356 0.9276
50.2200 33.4489 0.9313
50.2400 33.4623 0.9198
50.2600 33.4756 0.9335
50.2800 33.4890 0.9333
50.3000 33.5023 0.9208
50.3200 33.5157 0.9327
50.3400 33.5290 0.9371
50.3600 33.5423 0.9205
50.3800 33.5556 0.9320
50.4000 33.5690 0.9368
50.4200 33.5823 0.9260
50.4400 33.5956 0.9353
50.4600 33.6090 0.9352
50.4800 33.6223 0.9318
50.5000 33.6356 0.9329
50.5200 33.6489 0.9424
50.5400 33.6622 0.9334
50.5600 33.6756 0.9336
50.5800 33.6890 0.9435
50.6000 33.7023 0.9295
50.6200 33.7156 0.9355
50.6400 33.7290 0.9437
50.6600 33.7423 0.9367
50.6800 33.7557 0.9389
50.7000 33.7690 0.9421
50.7200 33.7823 0.9391
50.7400 33.7957 0.9390
50.7600 33.8090 0.9428
50.7800 33.8223 0.9391
50.8000 33.8356 0.9441
50.8200 33.8490 0.9452
50.8400 33.8623 0.9391
50.8600 33.8756 0.9413
50.8800 33.8889 0.9477
50.9000 33.9022 0.9459
50.9200 33.9156 0.9417
50.9400 33.9289 0.9497
50.9600 33.9423 0.9475
50.9800 33.9556 0.9421
51.0000 33.9689 0.9565
51.0200 33.9823 0.9444
51.0400 33.9957 0.9444
51.0600 34.0090 0.9576
51.0800 34.0223 0.9467
51.1000 34.0357 0.9497
51.1200 34.0490 0.9547
51.1400 34.0623 0.9538
51.1600 34.0756 0.9522
51.1800 34.0889 0.9563
51.2000 34.1023 0.9531
51.2200 34.1156 0.9515
51.2400 34.1289 0.9579
51.2600 34.1422 0.9532
51.2800 34.1556 0.9579
51.3000 34.1689 0.9567
51.3200 34.1823 0.9556
51.3400 34.1956 0.9619
51.3600 34.2089 0.9560
51.3800 34.2223 0.9583
51.4000 34.2356 0.9601
51.4200 34.2490 0.9587
51.4400 34.2623 0.9570
51.4600 34.2757 0.9629
51.4800 34.2890 0.9635
51.5000 34.3023 0.9617
51.5200 34.3156 0.9655
51.5400 34.3289 0.9643
51.5600 34.3423 0.9612
51.5800 34.3556 0.9670
51.6000 34.3689 0.9628
51.6200 34.3822 0.9662
51.6400 34.3956 0.9664
51.6600 34.4089 0.9680
51.6800 34.4223 0.9640
51.7000 34.4356 0.9684
51.7200 34.4490 0.9719
51.7400 34.4624 0.9624
51.7600 34.4757 0.9679
51.7800 34.4890 0.9704
51.8000 34.5023 0.9624
51.8200 34.5157 0.9693
51.8400 34.5290 0.9727
51.8600 34.5423 0.9673
51.8800 34.5556 0.9753
51.9000 34.5689 0.9776
51.9200 34.5823 0.9701
51.9400 34.5956 0.9738
51.9600 34.6089 0.9770
51.9800 34.6222 0.9695
52.0000 34.6355 0.9782
52.0200 34.6489 0.9764
52.0400 34.6622 0.9744
52.0600 34.6756 0.9763
52.0800 34.6889 0.9716
52.1000 34.7023 0.9784
52.1200 34.7157 0.9823
52.1400 34.7290 0.9757
52.1600 34.7423 0.9807
52.1800 34.7557 0.9789
52.2000 34.7690 0.9788
52.2200 34.7823 0.9825
52.2400 34.7956 0.9812
52.2600 34.8089 0.9833
52.2800 34.8222 0.9835
52.3000 34.8356 0.9762
52.3200 34.8489 0.9902
52.3400 34.8622 0.9883
52.3600 34.8756 0.9775
52.3800 34.8890 0.9924
52.4000 34.9023 0.9878
52.4200 34.9156 0.9813
52.4400 34.9290 0.9927
52.4600 34.9423 0.9891
52.4800 34.9556 0.9856
52.5000 34.9689 0.9900
52.5200 34.9823 0.9909
52.5400 34.9956 0.9866
52.5600 35.0090 0.9978
52.5800 35.0223 0.9886
52.6000 35.0356 0.9887
52.6200 35.0490 0.9945
52.6400 35.0623 0.9921
52.6600 35.0757 0.9950
52.6800 35.0889 0.9957
52.7000 35.1022 0.9966
52.7200 35.1156 0.9946
52.7400 35.1289 0.9955
52.7600 35.1422 0.9987
52.7800 35.1556 1.0011
52.8000 35.1689 0.9959
52.8200 35.1823 1.0004
52.8400 35.1956 0.9998
52.8600 35.2090 0.9979
52.8800 35.2223 1.0026
52.9000 35.2356 1.0016
52.9200 35.2490 0.9985
52.9400 35.2623 1.0050
52.9600 35.2756 1.0067
52.9800 35.2890 1.0014
53.0000 35.3023 1.0023
53.0200 35.3156 1.0036
53.0400 35.3289 1.0051
53.0600 35.3422 1.0067
53.0800 35.3555 1.0089
53.1000 35.3689 1.0069
53.1200 35.3822 1.0033
53.1400 35.3956 1.0114
53.1600 35.4089 1.0077
53.1800 35.4223 1.0071
53.2000 35.4357 1.0145
53.2200 35.4490 1.0098
53.2400 35.4623 1.0038
53.2600 35.4757 1.0147
53.2800 35.4890 1.0143
53.3000 35.5023 1.0107
53.3200 35.5156 1.0220
53.3400 35.5289 1.0166
53.3600 35.5423 1.0078
53.3800 35.5556 1.0177
53.4000 35.5689 1.0158
53.4200 35.5822 1.0105
53.4400 35.5956 1.0222
53.4600 35.6090 1.0145
53.4800 35.6223 1.0114
53.5000 35.6356 1.0254
53.5200 35.6489 1.0151
53.5400 35.6623 1.0159
53.5600 35.6757 1.0267
53.5800 35.6890 1.0151
53.6000 35.7023 1.0174
53.6200 35.7157 1.0294
53.6400 35.7290 1.0227
53.6600 35.7423 1.0210
53.6800 35.7556 1.0319
53.7000 35.7689 1.0204
53.7200 35.7823 1.0243
53.7400 35.7956 1.0346
53.7600 35.8089 1.0225
53.7800 35.8222 1.0284
53.8000 35.8355 1.0378
53.8200 35.8489 1.0211
53.8400 35.8622 1.0287
53.8600 35.8756 1.0398
53.8800 35.8889 1.0269
53.9000 35.9023 1.0324
53.9200 35.9157 1.0381
53.9400 35.9290 1.0241
53.9600 35.9423 1.0340
53.9800 35.9557 1.0421
54.0000 35.9690 1.0228
54.0200 35.9823 1.0354
54.0400 35.9956 1.0431
54.0600 36.0089 1.0302
54.0800 36.0223 1.0405
54.1000 36.0356 1.0422
54.1200 36.0489 1.0310
54.1400 36.0622 1.0405
54.1600 36.0756 1.0415
54.1800 36.0889 1.0357
54.2000 36.1022 1.0414
54.2200 36.1156 1.0447
54.2400 36.1289 1.0379
54.2600 36.1423 1.0483
54.2800 36.1556 1.0434
54.3000 36.1690 1.0370
54.3200 36.1823 1.0521
54.3400 36.1956 1.0468
54.3600 36.2090 1.0407
54.3800 36.2223 1.0512
54.4000 36.2356 1.0478
54.4200 36.2489 1.0444
54.4400 36.2622 1.0536
54.4600 36.2756 1.0478
54.4800 36.2889 1.0461
54.5000 36.3022 1.0600
54.5200 36.3156 1.0455
54.5400 36.3289 1.0494
54.5600 36.3423 1.0553
54.5800 36.3556 1.0527
54.6000 36.3689 1.0541
54.6200 36.3823 1.0593
54.6400 36.3956 1.0572
54.6600 36.4089 1.0566
54.6800 36.4223 1.0600
54.7000 36.4356 1.0578
54.7200 36.4490 1.0593
54.7400 36.4623 1.0674
54.7600 36.4757 1.0570
54.7800 36.4890 1.0604
54.8000 36.5023 1.0645
54.8200 36.5157 1.0561
54.8400 36.5290 1.0641
54.8600 36.5422 1.0689
54.8800 36.5556 1.0617
54.9000 36.5689 1.0636
54.9200 36.5822 1.0677
54.9400 36.5956 1.0660
54.9600 36.6089 1.0651
54.9800 36.6223 1.0689
55.0000 36.6357 1.0681
55.0200 36.6490 1.0696
55.0400 36.6623 1.0695
55.0600 36.6757 1.0699
55.0800 36.6890 1.0720
55.1000 36.7023 1.0708
55.1200 36.7156 1.0769
55.1400 36.7289 1.0740
55.1600 36.7422 1.0732
55.1800 36.7556 1.0742
55.2000 36.7689 1.0754
55.2200 36.7822 1.0789
55.2400 36.7955 1.0779
55.2600 36.8089 1.0758
55.2800 36.8222 1.0784
55.3000 36.8356 1.0790
55.3200 36.8489 1.0805
55.3400 36.8623 1.0784
55.3600 36.8757 1.0805
55.3800 36.8890 1.0862
55.4000 36.9023 1.0810
55.4200 36.9157 1.0830
55.4400 36.9290 1.0878
55.4600 36.9423 1.0817
55.4800 36.9556 1.0889
55.5000 36.9689 1.0892
55.5200 36.9823 1.0835
55.5400 36.9956 1.0895
55.5600 37.0089 1.0882
55.5800 37.0222 1.0858
55.6000 37.0355 1.0945
55.6200 37.0489 1.0902
55.6400 37.0623 1.0866
55.6600 37.0756 1.0963
55.6800 37.0889 1.0885
55.7000 37.1023 1.0932
55.7200 37.1157 1.0969
55.7400 37.1290 1.0898
55.7600 37.1423 1.0985
55.7800 37.1556 1.0988
55.8000 37.1690 1.0931
55.8200 37.1823 1.0979
55.8400 37.1956 1.1003
55.8600 37.2090 1.0974
55.8800 37.2223 1.1042
55.9000 37.2356 1.1004
55.9200 37.2489 1.0998
55.9400 37.2622 1.1069
55.9600 37.2755 1.1009
55.9800 37.2889 1.1047
56.0000 37.3023 1.1038
56.0200 37.3156 1.1041
56.0400 37.3289 1.1150
56.0600 37.3423 1.1034
56.0800 37.3557 1.1014
56.1000 37.3690 1.1144
56.1200 37.3823 1.1036
56.1400 37.3957 1.1071
56.1600 37.4090 1.1154
56.1800 37.4223 1.1077
56.2000 37.4356 1.1101
56.2200 37.4489 1.1177
56.2400 37.4623 1.1124
56.2600 37.4756 1.1116
56.2800 37.4890 1.1156
56.3000 37.5023 1.1131
56.3200 37.5156 1.1149
56.3400 37.5289 1.1190
56.3600 37.5422 1.1131
56.3800 37.5556 1.1165
56.4000 37.5689 1.1210
56.4200 37.5823 1.1163
56.4400 37.5956 1.1147
56.4600 37.6090 1.1251
56.4800 37.6223 1.1241
56.5000 37.6356 1.1176
56.5200 37.6490 1.1311
56.5400 37.6624 1.1260
56.5600 37.6757 1.1174
56.5800 37.6890 1.1359
56.6000 37.7023 1.1284
56.6200 37.7156 1.1151
56.6400 37.7290 1.1378
56.6600 37.7423 1.1301
56.6800 37.7556 1.1167
56.7000 37.7689 1.1434
56.7200 37.7822 1.1284
56.7400 37.7956 1.1177
56.7600 37.8089 1.1438
56.7800 37.8223 1.1343
56.8000 37.8356 1.1257
56.8200 37.8490 1.1424
56.8400 37.8623 1.1321
56.8600 37.8756 1.1305
56.8800 37.8889 1.1476
56.9000 37.9023 1.1314
56.9200 37.9156 1.1344
56.9400 37.9290 1.1479
56.9600 37.9423 1.1352
56.9800 37.9557 1.1389
57.0000 37.9690 1.1499
57.0200 37.9823 1.1400
57.0400 37.9955 1.1439
57.0600 38.0089 1.1490
57.0800 38.0222 1.1442
57.1000 38.0355 1.1439
57.1200 38.0489 1.1516
57.1400 38.0623 1.1427
57.1600 38.0757 1.1418
57.1800 38.0890 1.1499
57.2000 38.1024 1.1503
57.2200 38.1157 1.1451
57.2400 38.1291 1.1551
57.2600 38.1424 1.1544
57.2800 38.1557 1.1440
57.3000 38.1689 1.1603
57.3200 38.1822 1.1581
57.3400 38.1956 1.1499
57.3600 38.2089 1.1583
57.3800 38.2222 1.1594
57.4000 38.2356 1.1507
57.4200 38.2489 1.1619
57.4400 38.2623 1.1626
57.4600 38.2756 1.1509
57.4800 38.2890 1.1648
57.5000 38.3023 1.1667
57.5200 38.3157 1.1550
57.5400 38.3290 1.1685
57.5600 38.3423 1.1661
57.5800 38.3556 1.1575
57.6000 38.3690 1.1662
57.6200 38.3823 1.1665
57.6400 38.3956 1.1592
57.6600 38.4089 1.1733
57.6800 38.4222 1.1726
57.7000 38.4356 1.1592
57.7200 38.4489 1.1750
57.7400 38.4622 1.1705
57.7600 38.4755 1.1639
57.7800 38.4889 1.1810
57.8000 38.5023 1.1712
57.8200 38.5156 1.1670
57.8400 38.5289 1.1770
57.8600 38.5423 1.1791
57.8800 38.5556 1.1677
57.9000 38.5690 1.1812
57.9200 38.5823 1.1794
57.9400 38.5956 1.1707
57.9600 38.6090 1.1895
57.9800 38.6223 1.1818
58.0000 38.6357 1.1688
58.0200 38.6489 1.1870
58.0400 38.6623 1.1851
58.0600 38.6756 1.1746
58.0800 38.6890 1.1889
58.1000 38.7022 1.1883
58.1200 38.7156 1.1774
58.1400 38.7289 1.1934
58.1600 38.7422 1.1890
58.1800 38.7556 1.1807
58.2000 38.7689 1.1978
58.2200 38.7823 1.1911
58.2400 38.7957 1.1870
58.2600 38.8090 1.1929
58.2800 38.8223 1.1937
58.3000 38.8356 1.1905
58.3200 38.8490 1.1999
58.3400 38.8623 1.1926
58.3600 38.8756 1.1891
58.3800 38.8889 1.2015
58.4000 38.9023 1.1960
58.4200 38.9156 1.1934
58.4400 38.9290 1.2068
58.4600 38.9423 1.1981
58.4800 38.9556 1.2006
58.5000 38.9689 1.2071
58.5200 38.9823 1.2022
58.5400 38.9956 1.2021
58.5600 39.0089 1.2079
58.5800 39.0223 1.2050
58.6000 39.0356 1.2043
58.6200 39.0490 1.2101
58.6400 39.0623 1.2123
58.6600 39.0756 1.2078
58.6800 39.0890 1.2108
58.7000 39.1023 1.2118
58.7200 39.1157 1.2067
58.7400 39.1290 1.2167
58.7600 39.1423 1.2196
58.7800 39.1556 1.2069
58.8000 39.1689 1.2184
58.8200 39.1823 1.2179
58.8400 39.1956 1.2109
58.8600 39.2089 1.2245
58.8800 39.2223 1.2159
58.9000 39.2356 1.2143
58.9200 39.2489 1.2259
58.9400 39.2623 1.2167
58.9600 39.2757 1.2158
58.9800 39.2890 1.2320
59.0000 39.3023 1.2181
59.0200 39.3156 1.2212
59.0400 39.3290 1.2336
59.0600 39.3423 1.2221
59.0800 39.3557 1.2309
59.1000 39.3690 1.2321
59.1200 39.3823 1.2265
59.1400 39.3956 1.2343
59.1600 39.4089 1.2294
59.1800 39.4222 1.2326
59.2000 39.4356 1.2359
59.2200 39.4489 1.2333
59.2400 39.4622 1.2338
59.2600 39.4756 1.2326
59.2800 39.4889 1.2364
59.3000 39.5023 1.2422
59.3200 39.5156 1.2369
59.3400 39.5290 1.2400
59.3600 39.5423 1.2405
59.3800 39.5556 1.2393
59.4000 39.5690 1.2443
59.4200 39.5823 1.2442
59.4400 39.5956 1.2414
59.4600 39.6089 1.2465
59.4800 39.6222 1.2449
59.5000 39.6356 1.2472
59.5200 39.6489 1.2492
59.5400 39.6622 1.2476
59.5600 39.6755 1.2498
59.5800 39.6889 1.2545
59.6000 39.7023 1.2482
59.6200 39.7156 1.2542
59.6400 39.7290 1.2542
59.6600 39.7423 1.2522
59.6800 39.7557 1.2583
59.7000 39.7690 1.2534
59.7200 39.7823 1.2573
59.7400 39.7956 1.2644
59.7600 39.8089 1.2551
59.7800 39.8223 1.2591
59.8000 39.8356 1.2629
59.8200 39.8490 1.2611
59.8400 39.8623 1.2614
59.8600 39.8757 1.2630
59.8800 39.8890 1.2663
59.9000 39.9023 1.2627
59.9200 39.9156 1.2707
59.9400 39.9289 1.2701
59.9600 39.9423 1.2653
59.9800 39.9556 1.2716
60.0000 39.9689 1.2703
60.0200 39.9822 1.2711
60.0400 39.9956 1.2694
60.0470 40.0002 1.2575
60.0480 40.0008 1.2547
60.0490 40.0014 1.2519
60.0690 40.0119 1.1687
60.0890 40.0140 1.1068
60.1090 40.0057 1.2098
60.1290 39.9929 1.2920
60.1490 39.9800 1.2638
60.1690 39.9672 1.2427
60.1890 39.9537 1.2642
60.2090 39.9397 1.2562
60.2290 39.9256 1.2525
60.2490 39.9118 1.2706
60.2690 39.8983 1.2438
60.2890 39.8850 1.2532
60.3090 39.8718 1.2490
60.3290 39.8585 1.2386
60.3490 39.8451 1.2485
60.3690 39.8317 1.2404
60.3890 39.8183 1.2374
60.4090 39.8050 1.2439
60.4290 39.7917 1.2365
60.4490 39.7783 1.2234
60.4690 39.7649 1.2421
60.4890 39.7516 1.2307
60.5090 39.7383 1.2211
60.5290 39.7250 1.2261
60.5490 39.7116 1.2269
60.5690 39.6982 1.2280
60.5890 39.6849 1.2237
60.6090 39.6716 1.2181
60.6290 39.6583 1.2196
60.6490 39.6449 1.2204
60.6690 39.6316 1.2153
60.6890 39.6183 1.2146
60.7090 39.6050 1.2122
60.7290 39.5917 1.2064
60.7490 39.5783 1.2132
60.7690 39.5650 1.2082
60.7890 39.5517 1.2009
60.8090 39.5383 1.2055
60.8290 39.5249 1.2045
60.8490 39.5116 1.1962
60.8690 39.4983 1.1961
60.8890 39.4849 1.2013
60.9090 39.4716 1.1948
60.9290 39.4582 1.1944
60.9490 39.4449 1.1990
60.9690 39.4316 1.1847
60.9890 39.4183 1.1931
61.0090 39.4049 1.1965
61.0290 39.3916 1.1813
61.0490 39.3784 1.1887
61.0690 39.3650 1.1850
61.0890 39.3517 1.1774
61.1090 39.3383 1.1857
61.1290 39.3250 1.1862
61.1490 39.3117 1.1657
61.1690 39.2983 1.1827
61.1890 39.2849 1.1827
61.2090 39.2715 1.1638
61.2290 39.2582 1.1801
61.2490 39.2449 1.1731
61.2690 39.2316 1.1600
61.2890 39.2182 1.1805
61.3090 39.2049 1.1653
61.3290 39.1916 1.1616
61.3490 39.1782 1.1715
61.3690 39.1649 1.1597
61.3890 39.1516 1.1539
61.4090 39.1383 1.1651
61.4290 39.1250 1.1578
61.4490 39.1116 1.1518
61.4690 39.0983 1.1623
61.4890 39.0850 1.1526
61.5090 39.0716 1.1468
61.5290 39.0583 1.1515
61.5490 39.0449 1.1514
61.5690 39.0315 1.1486
61.5890 39.0182 1.1481
61.6090 39.0049 1.1472
61.6290 38.9916 1.1387
61.6490 38.9782 1.1437
61.6690 38.9649 1.1496
61.6890 38.9516 1.1311
61.7090 38.9383 1.1452
61.7290 38.9249 1.1403
61.7490 38.9116 1.1259
61.7690 38.8983 1.1412
61.7890 38.8850 1.1372
61.8090 38.8716 1.1260
61.8290 38.8583 1.1336
61.8490 38.8450 1.1315
61.8690 38.8316 1.1188
61.8890 38.8183 1.1367
61.9090 38.8049 1.1282
61.9290 38.7916 1.1168
61.9490 38.7782 1.1324
61.9690 38.7649 1.1184
61.9890 38.7515 1.1166
62.0090 38.7382 1.1261
62.0290 38.7249 1.1177
62.0490 38.7116 1.1106
62.0690 38.6983 1.1209
62.0890 38.6850 1.1145
62.1090 38.6716 1.1076
62.1290 38.6583 1.1185
62.1490 38.6450 1.1071
62.1690 38.6316 1.1063
62.1890 38.6182 1.1133
62.2090 38.6049 1.1068
62.2290 38.5916 1.1005
62.2490 38.5783 1.1078
62.2690 38.5649 1.1057
62.2890 38.5516 1.0962
62.3090 38.5383 1.1052
62.3290 38.5250 1.1017
62.3490 38.5116 1.0963
62.3690 38.4982 1.1020
62.3890 38.4849 1.0972
62.4090 38.4716 1.0914
62.4290 38.4582 1.0976
62.4490 38.4449 1.0947
62.4690 38.4316 1.0851
62.4890 38.4183 1.0927
62.5090 38.4050 1.0863
62.5290 38.3916 1.0842
62.5490 38.3783 1.0904
62.5690 38.3650 1.0865
62.5890 38.3517 1.0807
62.6090 38.3383 1.0846
62.6290 38.3249 1.0827
62.6490 38.3116 1.0817
62.6690 38.2982 1.0818
62.6890 38.2849 1.0759
62.7090 38.2716 1.0712
62.7290 38.2582 1.0816
62.7490 38.2449 1.0755
62.7690 38.2316 1.0657
62.7890 38.2183 1.0763
62.8090 38.2049 1.0767
62.8290 38.1916 1.0627
62.8490 38.1783 1.0716
62.8690 38.1650 1.0709
62.8890 38.1516 1.0581
62.9090 38.1382 1.0668
62.9290 38.1249 1.0688
62.9490 38.1116 1.0589
62.9690 38.0983 1.0673
62.9890 38.0849 1.0638
63.0090 38.0715 1.0527
63.0290 38.0582 1.0610
63.0490 38.0449 1.0586
63.0690 38.0315 1.0490
63.0890 38.0182 1.0588
63.1090 38.0049 1.0581
63.1290 37.9916 1.0433
63.1490 37.9783 1.0564
63.1690 37.9649 1.0554
63.1890 37.9516 1.0442
63.2090 37.9383 1.0584
63.2290 37.9250 1.0443
63.2490 37.9117 1.0411
63.2690 37.8983 1.0530
63.2890 37.8850 1.0427
63.3090 37.8716 1.0391
63.3290 37.8583 1.0469
63.3490 37.8449 1.0423
63.3690 37.8315 1.0353
63.3890 37.8182 1.0498
63.4090 37.8049 1.0377
63.4290 37.7916 1.0328
63.4490 37.7782 1.0422
63.4690 37.7649 1.0305
63.4890 37.7516 1.0354
63.5090 37.7383 1.0386
63.5290 37.7249 1.0239
63.5490 37.7116 1.0341
63.5690 37.6983 1.0346
63.5890 37.6850 1.0215
63.6090 37.6716 1.0336
63.6290 37.6583 1.0347
63.6490 37.6450 1.0182
63.6690 37.6317 1.0303
63.6890 37.6183 1.0268
63.7090 37.6049 1.0184
63.7290 37.5916 1.0290
63.7490 37.5782 1.0212
63.7690 37.5649 1.0168
63.7890 37.5516 1.0258
63.8090 37.5382 1.0156
63.8290 37.5249 1.0185
63.8490 37.5116 1.0212
63.8690 37.4982 1.0138
63.8890 37.4849 1.0124
63.9090 37.4716 1.0174
63.9290 37.4583 1.0119
63.9490 37.4450 1.0110
63.9690 37.4316 1.0115
63.9890 37.4183 1.0091
64.0090 37.4049 1.0097
64.0290 37.3916 1.0101
64.0490 37.3783 1.0091
64.0690 37.3649 1.0059
64.0890 37.3516 1.0035
64.1090 37.3383 1.0066
64.1290 37.3249 1.0009
64.1490 37.3116 1.0020
64.1690 37.2982 1.0086
64.1890 37.2849 0.9919
64.2090 37.2716 1.0028
64.2290 37.2583 1.0047
64.2490 37.2449 0.9939
64.2690 37.2316 1.0011
64.2890 37.2183 0.9956
64.3090 37.2050 0.9889
64.3290 37.1917 0.9995
64.3490 37.1783 0.9941
64.3690 37.1649 0.9888
64.3890 37.1516 0.9975
64.4090 37.1383 0.9864
64.4290 37.1249 0.9823
64.4490 37.1116 0.9997
64.4690 37.0983 0.9839
64.4890 37.0850 0.9819
64.5090 37.0716 0.9919
64.5290 37.0582 0.9817
64.5490 37.0449 0.9816
64.5690 37.0315 0.9877
64.5890 37.0182 0.9732
64.6090 37.0049 0.9804
64.6290 36.9915 0.9850
64.6490 36.9782 0.9724
64.6690 36.9650 0.9807
64.6890 36.9516 0.9849
64.7090 36.9383 0.9698
64.7290 36.9250 0.9803
64.7490 36.9117 0.9744
64.7690 36.8983 0.9681
64.7890 36.8849 0.9776
64.8090 36.8716 0.9758
64.8290 36.8582 0.9702
64.8490 36.8449 0.9735
64.8690 36.8316 0.9736
64.8890 36.8182 0.9643
64.9090 36.8048 0.9746
64.9290 36.7916 0.9674
64.9490 36.7783 0.9607
64.9690 36.7649 0.9719
64.9890 36.7516 0.9640
65.0090 36.7383 0.9609
65.0290 36.7250 0.9688
65.0490 36.7117 0.9597
65.0690 36.6983 0.9610
65.0890 36.6849 0.9642
65.1090 36.6716 0.9559
65.1290 36.6583 0.9549
65.1490 36.6449 0.9670
65.1690 36.6315 0.9563
65.1890 36.6182 0.9554
65.2090 36.6049 0.9597
65.2290 36.5916 0.9541
65.2490 36.5782 0.9526
65.2690 36.5649 0.9521
65.2890 36.5516 0.9510
65.3090 36.5383 0.9561
65.3290 36.5249 0.9471
65.3490 36.5116 0.9534
65.3690 36.4983 0.9474
65.3890 36.4850 0.9443
65.4090 36.4717 0.9504
65.4290 36.4583 0.9435
65.4490 36.4449 0.9448
65.4690 36.4316 0.9488
65.4890 36.4183 0.9450
65.5090 36.4049 0.9434
65.5290 36.3915 0.9479
65.5490 36.3782 0.9409
65.5690 36.3649 0.9394
65.5890 36.3516 0.9439
65.6090 36.3383 0.9340
65.6290 36.3249 0.9365
65.6490 36.3116 0.9417
65.6690 36.2983 0.9303
65.6890 36.2849 0.9398
65.7090 36.2716 0.9394
65.7290 36.2583 0.9282
65.7490 36.2450 0.9312
65.7690 36.2316 0.9368
65.7890 36.2183 0.9261
65.8090 36.2049 0.9352
65.8290 36.1916 0.9332
65.8490 36.1783 0.9205
65.8690 36.1649 0.9328
65.8890 36.1515 0.9304
65.9090 36.1382 0.9221
65.9290 36.1249 0.9260
65.9490 36.1116 0.9206
65.9690 36.0982 0.9228
65.9890 36.0849 0.9283
66.0090 36.0716 0.9227
66.0290 36.0583 0.9190
66.0490 36.0449 0.9219
66.0690 36.0316 0.9197
66.0890 36.0183 0.9198
66.1090 36.0050 0.9147
66.1290 35.9916 0.9145
66.1490 35.9783 0.9208
66.1690 35.9649 0.9163
66.1890 35.9516 0.9160
66.2090 35.9383 0.9159
66.2290 35.9249 0.9094
66.2490 35.9116 0.9181
66.2690 35.8982 0.9108
66.2890 35.8849 0.9092
66.3090 35.8716 0.9143
66.3290 35.8582 0.9074
66.3490 35.8449 0.9091
66.3690 35.8316 0.9096
66.3890 35.8183 0.9115
66.4090 35.8050 0.9047
66.4290 35.7916 0.9085
66.4490 35.7783 0.9081
66.4690 35.7650 0.9033
66.4890 35.7517 0.9073
66.5090 35.7383 0.9025
66.5290 35.7249 0.9055
66.5490 35.7116 0.9032
66.5690 35.6983 0.8955
66.5890 35.6849 0.9023
66.6090 35.6716 0.9008
66.6290 35.6582 0.9015
66.6490 35.6449 0.8940
66.6690 35.6316 0.9012
66.6890 35.6182 0.8953
66.7090 35.6049 0.8919
66.7290 35.5915 0.9013
66.7490 35.5783 0.8952
66.7690 35.5649 0.8911
66.7890 35.5516 0.8959
66.8090 35.5383 0.8948
66.8290 35.5250 0.8884
66.8490 35.5116 0.8949
66.8690 35.4983 0.8973
66.8890 35.4849 0.8862
66.9090 35.4716 0.8914
66.9290 35.4583 0.8885
66.9490 35.4449 0.8835
66.9690 35.4315 0.8915
66.9890 35.4182 0.8891
67.0090 35.4049 0.8808
67.0290 35.3916 0.8886
67.0490 35.3782 0.8851
67.0690 35.3649 0.8819
67.0890 35.3516 0.8904
67.1090 35.3383 0.8806
67.1290 35.3250 0.8754
67.1490 35.3116 0.8849
67.1690 35.2983 0.8796
67.1890 35.2850 0.8791
67.2090 35.2717 0.8848
67.2290 35.2583 0.8777
67.2490 35.2449 0.8724
67.2690 35.2316 0.8805
67.2890 35.2183 0.8754
67.3090 35.2049 0.8724
67.3290 35.1915 0.8771
67.3490 35.1782 0.8732
67.3690 35.1649 0.8679
67.3890 35.1516 0.8736
67.4090 35.1383 0.8728
67.4290 35.1249 0.8698
67.4490 35.1116 0.8743
67.4690 35.0983 0.8703
67.4890 35.0849 0.8689
67.5090 35.0716 0.8696
67.5290 35.0583 0.8712
67.5490 35.0450 0.8636
67.5690 35.0317 0.8662
67.5890 35.0183 0.8682
67.6090 35.0050 0.8640
67.6290 34.9917 0.8593
67.6490 34.9784 0.8624
67.6690 34.9650 0.8642
67.6890 34.9516 0.8595
67.7090 34.9382 0.8683
67.7290 34.9249 0.8616
67.7490 34.9116 0.8555
67.7690 34.8982 0.8661
67.7890 34.8849 0.8551
67.8090 34.8716 0.8534
67.8290 34.8582 0.8608
67.8490 34.8449 0.8532
67.8690 34.8316 0.8546
67.8890 34.8182 0.8633
67.9090 34.8049 0.8541
67.9290 34.7916 0.8534
67.9490 34.7783 0.8596
67.9690 34.7649 0.8488
67.9890 34.7516 0.8549
68.0090 34.7383 0.8538
68.0290 34.7250 0.8499
68.0490 34.7116 0.8532
68.0690 34.6982 0.8483
68.0890 34.6849 0.8488
68.1090 34.6716 0.8545
68.1290 34.6582 0.8465
68.1490 34.6449 0.8492
68.1690 34.6316 0.8541
68.1890 34.6183 0.8434
68.2090 34.6049 0.8461
68.2290 34.5916 0.8503
68.2490 34.5782 0.8426
68.2690 34.5650 0.8469
68.2890 34.5516 0.8416
68.3090 34.5383 0.8394
68.3290 34.5249 0.8483
68.3490 34.5116 0.8409
68.3690 34.4983 0.8355
68.3890 34.4850 0.8451
68.4090 34.4716 0.8368
68.4290 34.4582 0.8390
68.4490 34.4449 0.8453
68.4690 34.4316 0.8299
68.4890 34.4182 0.8364
68.5090 34.4049 0.8432
68.5290 34.3915 0.8303
68.5490 34.3782 0.8367
68.5690 34.3649 0.8396
68.5890 34.3516 0.8318
68.6090 34.3382 0.8343
68.6290 34.3250 0.8389
68.6490 34.3116 0.8263
68.6690 34.2983 0.8347
68.6890 34.2849 0.8340
68.7090 34.2716 0.8230
68.7290 34.2583 0.8359
68.7490 34.2449 0.8309
68.7690 34.2316 0.8219
68.7890 34.2182 0.8380
68.8090 34.2049 0.8279
68.8290 34.1916 0.8187
68.8490 34.1783 0.8326
68.8690 34.1649 0.8278
68.8890 34.1516 0.8186
68.9090 34.1383 0.8302
68.9290 34.1250 0.8265
68.9490 34.1116 0.8191
68.9690 34.0983 0.8268
68.9890 34.0850 0.8247
69.0090 34.0717 0.8125
69.0290 34.0583 0.8269
69.0490 34.0449 0.8227
69.0690 34.0316 0.8103
69.0890 34.0183 0.8279
69.1090 34.0049 0.8166
69.1290 33.9916 0.8102
69.1490 33.9782 0.8260
69.1690 33.9649 0.8208
69.1890 33.9516 0.8066
69.2090 33.9382 0.8222
69.2290 33.9249 0.8185
69.2490 33.9116 0.8057
69.2690 33.8983 0.8226
69.2890 33.8850 0.8136
69.3090 33.8716 0.8070
69.3290 33.8583 0.8188
69.3490 33.8450 0.8111
69.3690 33.8317 0.8075
69.3890 33.8183 0.8181
69.4090 33.8049 0.8075
69.4290 33.7916 0.8081
69.4490 33.7783 0.8119
69.4690 33.7649 0.8075
69.4890 33.7516 0.8070
69.5090 33.7382 0.8123
69.5290 33.7249 0.8048
69.5490 33.7116 0.8008
69.5690 33.6983 0.8075
69.5890 33.6849 0.8063
69.6090 33.6716 0.8013
69.6290 33.6583 0.8057
69.6490 33.6449 0.8033
69.6690 33.6316 0.8009
69.6890 33.6182 0.8054
69.7090 33.6049 0.8038
69.7290 33.5916 0.7983
69.7490 33.5783 0.8013
69.7690 33.5650 0.8023
69.7890 33.5516 0.7969
69.8090 33.5383 0.7995
69.8290 33.5250 0.8012
69.8490 33.5116 0.7878
69.8690 33.4982 0.7994
69.8890 33.4849 0.8021
69.9090 33.4716 0.7888
69.9290 33.4582 0.7972
69.9490 33.4449 0.8001
69.9690 33.4315 0.7895
69.9890 33.4182 0.7947
70.0090 33.4049 0.7967
70.0290 33.3916 0.7915
70.0490 33.3783 0.7905
70.0690 33.3649 0.7990
70.0890 33.3516 0.7872
70.1090 33.3383 0.7865
70.1290 33.3250 0.7939
70.1490 33.3116 0.7878
70.1690 33.2983 0.7879
70.1890 33.2850 0.7924
70.2090 33.2716 0.7837
70.2290 33.2582 0.7833
70.2490 33.2449 0.7915
70.2690 33.2316 0.7819
70.2890 33.2182 0.7836
70.3090 33.2049 0.7889
70.3290 33.1915 0.7828
70.3490 33.1782 0.7819
70.3690 33.1649 0.7844
70.3890 33.1516 0.7781
70.4090 33.1383 0.7865
70.4290 33.1250 0.7806
70.4490 33.1117 0.7762
70.4690 33.0983 0.7850
70.4890 33.0850 0.7788
70.5090 33.0716 0.7760
70.5290 33.0583 0.7828
70.5490 33.0450 0.7764
70.5690 33.0316 0.7766
70.5890 33.0182 0.7732
70.6090 33.0049 0.7748
70.6290 32.9916 0.7755
70.6490 32.9782 0.7795
70.6690 32.9649 0.7703
70.6890 32.9515 0.7747
70.7090 32.9382 0.7776
70.7290 32.9249 0.7667
70.7490 32.9116 0.7758
70.7690 32.8982 0.7732
70.7890 32.8849 0.7664
70.8090 32.8716 0.7802
70.8290 32.8583 0.7648
70.8490 32.8450 0.7643
70.8690 32.8316 0.7767
70.8890 32.8183 0.7655
70.9090 32.8050 0.7618
70.9290 32.7916 0.7742
70.9490 32.7782 0.7629
70.9690 32.7649 0.7666
70.9890 32.7516 0.7778
71.0090 32.7382 0.7575
71.0290 32.7249 0.7617
71.0490 32.7115 0.7732
71.0690 32.6982 0.7564
71.0890 32.6849 0.7651
71.1090 32.6716 0.7693
71.1290 32.6582 0.7547
71.1490 32.6449 0.7646
71.1690 32.6316 0.7633
71.1890 32.6183 0.7569
71.2090 32.6049 0.7654
71.2290 32.5916 0.7620
71.2490 32.5783 0.7568
71.2690 32.5650 0.7584
71.2890 32.5516 0.7598
71.3090 32.5382 0.7589
71.3290 32.5249 0.7565
71.3490 32.5116 0.7578
71.3690 32.4983 0.7549
71.3890 32.4849 0.7527
71.4090 32.4715 0.7609
71.4290 32.4582 0.7560
71.4490 32.4449 0.7458
71.4690 32.4316 0.7631
71.4890 32.4182 0.7539
71.5090 32.4049 0.7420
71.5290 32.3916 0.7634
71.5490 32.3783 0.7513
71.5690 32.3650 0.7365
71.5890 32.3516 0.7621
71.6090 32.3383 0.7472
71.6290 32.3250 0.7386
71.6490 32.3116 0.7627
71.6690 32.2983 0.7443
71.6890 32.2849 0.7383
71.7090 32.2716 0.7628
71.7290 32.2583 0.7375
71.7490 32.2449 0.7402
71.7690 32.2316 0.7608
71.7890 32.2182 0.7357
71.8090 32.2049 0.7416
71.8290 32.1916 0.7538
71.8490 32.1782 0.7334
71.8690 32.1649 0.7408
71.8890 32.1516 0.7494
71.9090 32.1383 0.7316
71.9290 32.1250 0.7408
71.9490 32.1116 0.7466
71.9690 32.0983 0.7323
71.9890 32.0850 0.7413
72.0090 32.0717 0.7429
72.0290 32.0583 0.7307
72.0490 32.0449 0.7406
72.0690 32.0316 0.7375
72.0890 32.0182 0.7319
72.1090 32.0049 0.7359
72.1290 31.9915 0.7366
72.1490 31.9782 0.7330
72.1690 31.9649 0.7371
72.1890 31.9516 0.7341
72.2090 31.9383 0.7345
72.2290 31.9249 0.7344
72.2490 31.9116 0.7309
72.2690 31.8983 0.7361
72.2890 31.8850 0.7339
72.3090 31.8716 0.7331
72.3290 31.8583 0.7367
72.3490 31.8449 0.7239
72.3690 31.8316 0.7312
72.3890 31.8182 0.7334
72.4090 31.8049 0.7215
72.4290 31.7916 0.7302
72.4490 31.7782 0.7299
72.4690 31.7649 0.7188
72.4890 31.7515 0.7353
72.5090 31.7382 0.7337
72.5290 31.7249 0.7141
72.5490 31.7116 0.7335
72.5690 31.6983 0.7314
72.5890 31.6849 0.7139
72.6090 31.6716 0.7350
72.6290 31.6583 0.7271
72.6490 31.6450 0.7125
72.6690 31.6316 0.7320
72.6890 31.6182 0.7205
72.7090 31.6049 0.7154
72.7290 31.5916 0.7298
72.7490 31.5782 0.7200
72.7690 31.5649 0.7116
72.7890 31.5516 0.7312
72.8090 31.5383 0.7184
72.8290 31.5249 0.7102
72.8490 31.5116 0.7315
72.8690 31.4982 0.7146
72.8890 31.4849 0.7145
72.9090 31.4716 0.7284
72.9290 31.4583 0.7109
72.9490 31.4449 0.7156
72.9690 31.4316 0.7245
72.9890 31.4183 0.7084
73.0090 31.4050 0.7124
73.0290 31.3916 0.7249
73.0490 31.3783 0.7078
73.0690 31.3650 0.7124
73.0890 31.3516 0.7195
73.1090 31.3382 0.7049
73.1290 31.3249 0.7099
73.1490 31.3116 0.7193
73.1690 31.2983 0.7105
73.1890 31.2849 0.7042
73.2090 31.2716 0.7175
73.2290 31.2582 0.7124
73.2490 31.2449 0.7043
73.2690 31.2316 0.7196
73.2890 31.2183 0.7039
73.3090 31.2050 0.7035
73.3290 31.1916 0.7154
73.3490 31.1783 0.7033
73.3690 31.1650 0.6993
73.3890 31.1516 0.7157
73.4090 31.1383 0.7042
73.4290 31.1250 0.6971
73.4490 31.1116 0.7153
73.4690 31.0982 0.6980
73.4890 31.0849 0.7037
73.5090 31.0716 0.7121
73.5290 31.0583 0.6945
73.5490 31.0449 0.7033
73.5690 31.0315 0.7083
73.5890 31.0182 0.6963
73.6090 31.0049 0.7047
73.6290 30.9916 0.7069
73.6490 30.9783 0.6970
73.6690 30.9649 0.7000
73.6890 30.9516 0.7049
73.7090 30.9383 0.6943
73.7290 30.9250 0.7034
73.7490 30.9116 0.7009
73.7690 30.8983 0.6952
73.7890 30.8850 0.7005
73.8090 30.8716 0.7009
73.8290 30.8582 0.6936
73.8490 30.8449 0.7007
73.8690 30.8316 0.6970
73.8890 30.8182 0.6939
73.9090 30.8049 0.6953
73.9290 30.7915 0.7008
73.9490 30.7782 0.6963
73.9690 30.7649 0.6927
73.9890 30.7516 0.6941
74.0090 30.7382 0.6934
74.0290 30.7249 0.6934
74.0490 30.7116 0.7017
74.0690 30.6983 0.6883
74.0890 30.6850 0.6901
74.1090 30.6716 0.7016
74.1290 30.6583 0.6910
74.1490 30.6450 0.6887
74.1690 30.6317 0.6947
74.1890 30.6183 0.6909
74.2090 30.6049 0.6871
74.2290 30.5916 0.6938
74.2490 30.5782 0.6878
74.2690 30.5649 0.6864
74.2890 30.5515 0.6931
74.3090 30.5382 0.6839
74.3290 30.5249 0.6860
74.3490 30.5116 0.6945
74.3690 30.4983 0.6816
74.3890 30.4850 0.6864
74.4090 30.4716 0.6914
74.4290 30.4583 0.6848
74.4490 30.4450 0.6846
74.4690 30.4316 0.6865
74.4890 30.4183 0.6835
74.5090 30.4049 0.6807
74.5290 30.3916 0.6839
74.5490 30.3783 0.6844
74.5690 30.3649 0.6809
74.5890 30.3516 0.6839
74.6090 30.3383 0.6812
74.6290 30.3249 0.6783
74.6490 30.3116 0.6824
74.6690 30.2982 0.6833
74.6890 30.2849 0.6747
74.7090 30.2716 0.6783
74.7290 30.2582 0.6799
74.7490 30.2449 0.6749
74.7690 30.2316 0.6825
74.7890 30.2183 0.6794
74.8090 30.2050 0.6759
74.8290 30.1916 0.6844
74.8490 30.1783 0.6723
74.8690 30.1650 0.6755
74.8890 30.1516 0.6832
74.9090 30.1383 0.6698
74.9290 30.1249 0.6756
74.9490 30.1116 0.6828
74.9690 30.0983 0.6704
74.9890 30.0849 0.6730
75.0090 30.0716 0.6777
75.0290 30.0582 0.6688
75.0490 30.0449 0.6757
75.0690 30.0316 0.6735
75.0890 30.0182 0.6667
75.1090 30.0049 0.6756
75.1290 29.9916 0.6705
75.1490 29.9783 0.6694
75.1690 29.9650 0.6714
75.1890 29.9516 0.6645
75.2090 29.9383 0.6737
75.2290 29.9250 0.6678
75.2490 29.9117 0.6640
75.2690 29.8983 0.6723
75.2890 29.8849 0.6669
75.3090 29.8716 0.6627
75.3290 29.8583 0.6717
75.3490 29.8449 0.6640
75.3690 29.8316 0.6625
75.3890 29.8182 0.6744
75.4090 29.8049 0.6638
75.4290 29.7916 0.6605
75.4490 29.7783 0.6732
75.4690 29.7649 0.6608
75.4890 29.7516 0.6623
75.5090 29.7383 0.6710
75.5290 29.7250 0.6544
75.5490 29.7116 0.6601
75.5690 29.6983 0.6714
75.5890 29.6850 0.6569
75.6090 29.6716 0.6613
75.6290 29.6583 0.6644
75.6490 29.6449 0.6564
75.6690 29.6315 0.6620
75.6890 29.6182 0.6625
75.7090 29.6049 0.6534
75.7290 29.5916 0.6613
75.7490 29.5782 0.6613
75.7690 29.5649 0.6571
75.7890 29.5516 0.6556
75.8090 29.5382 0.6581
75.8290 29.5249 0.6578
75.8490 29.5116 0.6562
75.8690 29.4983 0.6557
75.8890 29.4850 0.6542
75.9090 29.4716 0.6590
75.9290 29.4583 0.6502
75.9490 29.4449 0.6602
75.9690 29.4316 0.6513
75.9890 29.4183 0.6494
76.0090 29.4049 0.6625
76.0290 29.3915 0.6462
76.0490 29.3782 0.6503
76.0690 29.3649 0.6581
76.0890 29.3516 0.6437
76.1090 29.3382 0.6564
76.1290 29.3249 0.6582
76.1490 29.3116 0.6410
76.1690 29.2983 0.6531
76.1890 29.2849 0.6582
76.2090 29.2716 0.6427
76.2290 29.2583 0.6533
76.2490 29.2450 0.6501
76.2690 29.2316 0.6390
76.2890 29.2182 0.6536
76.3090 29.2049 0.6532
76.3290 29.1916 0.6362
76.3490 29.1783 0.6515
76.3690 29.1649 0.6462
76.3890 29.1515 0.6392
76.4090 29.1382 0.6527
76.4290 29.1249 0.6397
76.4490 29.1116 0.6427
76.4690 29.0982 0.6493
76.4890 29.0849 0.6427
76.5090 29.0716 0.6432
76.5290 29.0583 0.6439
76.5490 29.0450 0.6426
76.5690 29.0316 0.6405
76.5890 29.0183 0.6442
76.6090 29.0050 0.6416
76.6290 28.9916 0.6387
76.6490 28.9782 0.6413
76.6690 28.9649 0.6408
76.6890 28.9516 0.6383
76.7090 28.9383 0.6362
76.7290 28.9249 0.6379
76.7490 28.9116 0.6383
76.7690 28.8983 0.6386
76.7890 28.8850 0.6319
76.8090 28.8716 0.6347
76.8290 28.8582 0.6406
76.8490 28.8449 0.6337
76.8690 28.8316 0.6366
76.8890 28.8183 0.6409
76.9090 28.8049 0.6294
76.9290 28.7916 0.6361
76.9490 28.7783 0.6412
76.9690 28.7650 0.6299
76.9890 28.7516 0.6322
77.0090 28.7383 0.6360
77.0290 28.7250 0.6270
77.0490 28.7117 0.6337
77.0690 28.6983 0.6316
77.0890 28.6849 0.6275
77.1090 28.6716 0.6363
77.1290 28.6582 0.6286
77.1490 28.6449 0.6233
77.1690 28.6316 0.6342
77.1890 28.6182 0.6279
77.2090 28.6049 0.6297
77.2290 28.5916 0.6312
77.2490 28.5783 0.6288
77.2690 28.5649 0.6260
77.2890 28.5516 0.6266
77.3090 28.5383 0.6290
77.3290 28.5250 0.6274
77.3490 28.5116 0.6246
77.3690 28.4983 0.6279
77.3890 28.4849 0.6282
77.4090 28.4716 0.6223
77.4290 28.4583 0.6243
77.4490 28.4449 0.6236
77.4690 28.4315 0.6179
77.4890 28.4182 0.6317
77.5090 28.4049 0.6270
77.5290 28.3915 0.6153
77.5490 28.3782 0.6283
77.5690 28.3649 0.6226
77.5890 28.3516 0.6192
77.6090 28.3383 0.6249
77.6290 28.3249 0.6225
77.6490 28.3116 0.6193
77.6690 28.2983 0.6221
77.6890 28.2850 0.6201
77.7090 28.2717 0.6165
77.7290 28.2583 0.6223
77.7490 28.2449 0.6220
77.7690 28.2316 0.6151
77.7890 28.2183 0.6170
77.8090 28.2049 0.6168
77.8290 28.1915 0.6220
77.8490 28.1782 0.6145
77.8690 28.1649 0.6170
77.8890 28.1516 0.6198
77.9090 28.1382 0.6122
77.9290 28.1249 0.6148
77.9490 28.1116 0.6167
77.9690 28.0982 0.6132
77.9890 28.0849 0.6113
78.0090 28.0716 0.6128
78.0290 28.0583 0.6133
78.0490 28.0450 0.6114
78.0690 28.0316 0.6169
78.0890 28.0183 0.6090
78.1090 28.0049 0.6144
78.1290 27.9916 0.6130
78.1490 27.9783 0.6077
78.1690 27.9649 0.6129
78.1890 27.9515 0.6083
78.2090 27.9382 0.6084
78.2290 27.9249 0.6131
78.2490 27.9116 0.6066
78.2690 27.8982 0.6084
78.2890 27.8849 0.6103
78.3090 27.8716 0.6082
78.3290 27.8583 0.6048
78.3490 27.8449 0.6117
78.3690 27.8316 0.6063
78.3890 27.8183 0.6042
78.4090 27.8050 0.6109
78.4290 27.7916 0.6032
78.4490 27.7783 0.6105
78.4690 27.7649 0.6081
78.4890 27.7516 0.6017
78.5090 27.7383 0.6093
78.5290 27.7250 0.5988
78.5490 27.7116 0.6046
78.5690 27.6983 0.6088
78.5890 27.6849 0.5972
78.6090 27.6716 0.6014
78.6290 27.6582 0.6054
78.6490 27.6449 0.5995
78.6690 27.6316 0.5995
78.6890 27.6183 0.6047
78.7090 27.6049 0.5982
78.7290 27.5916 0.5997
78.7490 27.5783 0.6050
78.7690 27.5650 0.5995
78.7890 27.5516 0.5974
78.8090 27.5383 0.5992
78.8290 27.5249 0.5966
78.8490 27.5116 0.5973
78.8690 27.4983 0.5966
78.8890 27.4849 0.5968
78.9090 27.4716 0.5947
78.9290 27.4582 0.6000
78.9490 27.4449 0.5952
78.9690 27.4316 0.5934
78.9890 27.4182 0.6001
79.0090 27.4049 0.5956
79.0290 27.3915 0.5891
79.0490 27.3782 0.5944
79.0690 27.3649 0.5976
79.0890 27.3516 0.5887
79.1090 27.3383 0.5961
79.1290 27.3250 0.5963
79.1490 27.3116 0.5892
79.1690 27.2983 0.5945
79.1890 27.2850 0.5935
79.2090 27.2717 0.5870
79.2290 27.2583 0.5948
79.2490 27.2450 0.5960
79.2690 27.2316 0.5824
79.2890 27.2182 0.5931
79.3090 27.2049 0.5943
79.3290 27.1916 0.5783
79.3490 27.1782 0.5953
79.3690 27.1648 0.5910
79.3890 27.1515 0.5807
79.4090 27.1383 0.5954
79.4290 27.1249 0.5849
79.4490 27.1116 0.5819
79.4690 27.0983 0.5981
79.4890 27.0850 0.5806
79.5090 27.0717 0.5792
79.5290 27.0583 0.5976
79.5490 27.0449 0.5782
79.5690 27.0316 0.5790
79.5890 27.0183 0.5932
79.6090 27.0049 0.5757
79.6290 26.9915 0.5817
79.6490 26.9782 0.5956
79.6690 26.9649 0.5710
79.6890 26.9516 0.5821
79.7090 26.9382 0.5909
79.7290 26.9249 0.5707
79.7490 26.9116 0.5865
79.7690 26.8983 0.5881
79.7890 26.8849 0.5681
79.8090 26.8716 0.5836
79.8290 26.8583 0.5915
79.8490 26.8450 0.5662
79.8690 26.8317 0.5794
79.8890 26.8183 0.5898
79.9090 26.8049 0.5670
79.9290 26.7916 0.5814
79.9490 26.7783 0.5803
79.9690 26.7649 0.5666
79.9890 26.7516 0.5818
80.0090 26.7382 0.5799
80.0290 26.7249 0.5696
80.0490 26.7116 0.5813
80.0690 26.6982 0.5780
80.0890 26.6849 0.5648
80.1090 26.6716 0.5816
80.1290 26.6583 0.5778
80.1490 26.6449 0.5646
80.1690 26.6316 0.5817
80.1890 26.6183 0.5738
80.2090 26.6050 0.5683
80.2290 26.5917 0.5758
80.2490 26.5783 0.5734
80.2690 26.5649 0.5655
80.2890 26.5516 0.5799
80.3090 26.5383 0.5724
80.3290 26.5249 0.5661
80.3490 26.5116 0.5757
80.3690 26.4982 0.5707
80.3890 26.4849 0.5633
80.4090 26.4716 0.5764
80.4290 26.4582 0.5708
80.4490 26.4449 0.5638
80.4690 26.4315 0.5720
80.4890 26.4182 0.5693
80.5090 26.4049 0.5677
80.5290 26.3916 0.5722
80.5490 26.3783 0.5669
80.5690 26.3650 0.5685
80.5890 26.3516 0.5675
80.6090 26.3383 0.5661
80.6290 26.3249 0.5689
80.6490 26.3116 0.5688
80.6690 26.2983 0.5615
80.6890 26.2849 0.5628
80.7090 26.2716 0.5643
80.7290 26.2582 0.5653
80.7490 26.2449 0.5651
80.7690 26.2316 0.5632
80.7890 26.2182 0.5625
80.8090 26.2049 0.5653
80.8290 26.1915 0.5637
80.8490 26.1782 0.5613
80.8690 26.1649 0.5617
80.8890 26.1516 0.5644
80.9090 26.1383 0.5610
80.9290 26.1250 0.5593
80.9490 26.1117 0.5574
80.9690 26.0983 0.5615
80.9890 26.0849 0.5608
81.0090 26.0716 0.5564
81.0290 26.0583 0.5562
81.0490 26.0450 0.5579
81.0690 26.0316 0.5581
81.0890 26.0182 0.5607
81.1090 26.0049 0.5527
81.1290 25.9916 0.5573
81.1490 25.9782 0.5612
81.1690 25.9649 0.5512
81.1890 25.9515 0.5597
81.2090 25.9383 0.5593
81.2290 25.9249 0.5483
81.2490 25.9116 0.5562
81.2690 25.8983 0.5621
81.2890 25.8850 0.5472
81.3090 25.8717 0.5548
81.3290 25.8583 0.5582
81.3490 25.8450 0.5448
81.3690 25.8316 0.5535
81.3890 25.8183 0.5564
81.4090 25.8049 0.5446
81.4290 25.7915 0.5558
81.4490 25.7782 0.5546
81.4690 25.7649 0.5431
81.4890 25.7515 0.5511
81.5090 25.7382 0.5547
81.5290 25.7248 0.5415
81.5490 25.7116 0.5517
81.5690 25.6983 0.5523
81.5890 25.6850 0.5390
81.6090 25.6716 0.5546
81.6290 25.6583 0.5543
81.6490 25.6450 0.5444
81.6690 25.6317 0.5516
81.6890 25.6183 0.5427
81.7090 25.6049 0.5469
81.7290 25.5916 0.5548
81.7490 25.5783 0.5396
81.7690 25.5649 0.5436
81.7890 25.5515 0.5505
81.8090 25.5382 0.5425
81.8290 25.5249 0.5420
81.8490 25.5116 0.5498
81.8690 25.4982 0.5392
81.8890 25.4849 0.5485
81.9090 25.4716 0.5446
81.9290 25.4583 0.5376
81.9490 25.4449 0.5520
81.9690 25.4316 0.5413
81.9890 25.4183 0.5395
82.0090 25.4050 0.5492
82.0290 25.3917 0.5349
82.0490 25.3783 0.5409
82.0690 25.3649 0.5493
82.0890 25.3516 0.5351
82.1090 25.3383 0.5396
82.1290 25.3249 0.5426
82.1490 25.3116 0.5345
82.1690 25.2982 0.5437
82.1890 25.2849 0.5396
82.2090 25.2716 0.5335
82.2290 25.2583 0.5427
82.2490 25.2449 0.5381
82.2690 25.2316 0.5337
82.2890 25.2182 0.5415
82.3090 25.2049 0.5310
82.3290 25.1916 0.5346
82.3490 25.1782 0.5473
82.3690 25.1649 0.5323
82.3890 25.1516 0.5351
82.4090 25.1383 0.5421
82.4290 25.1249 0.5289
82.4490 25.1116 0.5368
82.4690 25.0983 0.5387
82.4890 25.0850 0.5260
82.5090 25.0716 0.5364
82.5290 25.0582 0.5382
82.5490 25.0449 0.5280
82.5690 25.0316 0.5360
82.5890 25.0182 0.5355
82.6090 25.0049 0.5258
82.6290 24.9915 0.5360
82.6490 24.9782 0.5357
82.6690 24.9649 0.5252
82.6890 24.9516 0.5358
82.7090 24.9382 0.5329
82.7290 24.9249 0.5255
82.7490 24.9116 0.5321
82.7690 24.8983 0.5279
82.7890 24.8849 0.5292
82.8090 24.8716 0.5343
82.8290 24.8583 0.5258
82.8490 24.8450 0.5292
82.8690 24.8316 0.5290
82.8890 24.8182 0.5247
82.9090 24.8049 0.5339
82.9290 24.7916 0.5266
82.9490 24.7783 0.5205
82.9690 24.7649 0.5345
82.9890 24.7515 0.5255
83.0090 24.7382 0.5185
83.0290 24.7249 0.5359
83.0490 24.7115 0.5259
83.0690 24.6982 0.5201
83.0890 24.6849 0.5285
83.1090 24.6716 0.5218
83.1290 24.6583 0.5212
83.1490 24.6449 0.5297
83.1690 24.6316 0.5228
83.1890 24.6183 0.5250
83.2090 24.6049 0.5236
83.2290 24.5916 0.5211
83.2490 24.5782 0.5257
83.2690 24.5649 0.5254
83.2890 24.5516 0.5192
83.3090 24.5382 0.5242
83.3290 24.5249 0.5211
83.3490 24.5116 0.5182
83.3690 24.4982 0.5278
83.3890 24.4849 0.5191
83.4090 24.4716 0.5220
83.4290 24.4583 0.5210
83.4490 24.4450 0.5154
83.4690 24.4317 0.5199
83.4890 24.4183 0.5225
83.5090 24.4050 0.5162
83.5290 24.3916 0.5206
83.5490 24.3783 0.5207
83.5690 24.3650 0.5140
83.5890 24.3516 0.5218
83.6090 24.3382 0.5201
83.6290 24.3249 0.5135
83.6490 24.3116 0.5177
83.6690 24.2982 0.5144
83.6890 24.2849 0.5151
83.7090 24.2715 0.5207
83.7290 24.2583 0.5142
83.7490 24.2450 0.5115
83.7690 24.2316 0.5202
83.7890 24.2183 0.5094
83.8090 24.2050 0.5110
83.8290 24.1917 0.5209
83.8490 24.1783 0.5054
83.8690 24.1649 0.5150
83.8890 24.1516 0.5206
83.9090 24.1383 0.5050
83.9290 24.1249 0.5152
83.9490 24.1116 0.5176
83.9690 24.0982 0.5044
83.9890 24.0849 0.5149
84.0090 24.0716 0.5169
84.0290 24.0583 0.5034
84.0490 24.0449 0.5124
84.0690 24.0316 0.5185
84.0890 24.0182 0.4999
84.1090 24.0049 0.5132
84.1290 23.9916 0.5137
84.1490 23.9782 0.5019
84.1690 23.9649 0.5121
84.1890 23.9516 0.5115
84.2090 23.9383 0.5009
84.2290 23.9250 0.5107
84.2490 23.9116 0.5105
84.2690 23.8983 0.5000
84.2890 23.8850 0.5103
84.3090 23.8716 0.5078
84.3290 23.8582 0.4994
84.3490 23.8449 0.5157
84.3690 23.8316 0.5030
84.3890 23.8182 0.4967
84.4090 23.8049 0.5116
84.4290 23.7915 0.5093
84.4490 23.7782 0.4986
84.4690 23.7649 0.5136
84.4890 23.7516 0.5004
84.5090 23.7382 0.4990
84.5290 23.7249 0.5134
84.5490 23.7116 0.4969
84.5690 23.6983 0.5006
84.5890 23.6849 0.5080
84.6090 23.6716 0.4953
84.6290 23.6583 0.5049
84.6490 23.6450 0.5041
84.6690 23.6316 0.4962
84.6890 23.6182 0.5035
84.7090 23.6049 0.4990
84.7290 23.5916 0.4944
84.7490 23.5782 0.5041
84.7690 23.5649 0.4963
84.7890 23.5515 0.4956
84.8090 23.5382 0.5025
84.8290 23.5249 0.4952
84.8490 23.5116 0.4991
84.8690 23.4983 0.5029
84.8890 23.4850 0.4945
84.9090 23.4717 0.4951
84.9290 23.4583 0.4991
84.9490 23.4450 0.4889
84.9690 23.4316 0.5023
84.9890 23.4183 0.4948
85.0090 23.4050 0.4922
85.0290 23.3916 0.4962
85.0490 23.3782 0.4948
85.0690 23.3649 0.4940
85.0890 23.3516 0.4961
85.1090 23.3382 0.4907
85.1290 23.3249 0.4906
85.1490 23.3116 0.4994
85.1690 23.2982 0.4908
85.1890 23.2849 0.4920
85.2090 23.2716 0.4955
85.2290 23.2582 0.4839
85.2490 23.2449 0.4973
85.2690 23.2316 0.4925
85.2890 23.2183 0.4843
85.3090 23.2050 0.4989
85.3290 23.1916 0.4912
85.3490 23.1783 0.4840
85.3690 23.1650 0.4933
85.3890 23.1516 0.4884
85.4090 23.1382 0.4862
85.4290 23.1249 0.4944
85.4490 23.1116 0.4887
85.4690 23.0982 0.4824
85.4890 23.0849 0.4923
85.5090 23.0715 0.4853
85.5290 23.0582 0.4917
85.5490 23.0449 0.4877
85.5690 23.0316 0.4810
85.5890 23.0182 0.4916
85.6090 23.0049 0.4831
85.6290 22.9916 0.4824
85.6490 22.9783 0.4900
85.6690 22.9649 0.4847
85.6890 22.9516 0.4818
85.7090 22.9383 0.4923
85.7290 22.9250 0.4834
85.7490 22.9116 0.4794
85.7690 22.8982 0.4889
85.7890 22.8849 0.4828
85.8090 22.8716 0.4796
85.8290 22.8583 0.4835
85.8490 22.8449 0.4807
85.8690 22.8315 0.4841
85.8890 22.8182 0.4797
85.9090 22.8049 0.4792
85.9290 22.7916 0.4837
85.9490 22.7783 0.4806
85.9690 22.7649 0.4796
85.9890 22.7516 0.4829
86.0090 22.7383 0.4788
86.0290 22.7250 0.4796
86.0490 22.7116 0.4792
86.0690 22.6983 0.4790
86.0890 22.6850 0.4803
86.1090 22.6716 0.4770
86.1290 22.6583 0.4743
86.1490 22.6449 0.4850
86.1690 22.6316 0.4805
86.1890 22.6183 0.4735
86.2090 22.6049 0.4826
86.2290 22.5915 0.4751
86.2490 22.5782 0.4758
86.2690 22.5649 0.4809
86.2890 22.5516 0.4691
86.3090 22.5382 0.4765
86.3290 22.5249 0.4802
86.3490 22.5116 0.4752
86.3690 22.4983 0.4737
86.3890 22.4850 0.4807
86.4090 22.4716 0.4734
86.4290 22.4583 0.4739
86.4490 22.4450 0.4745
86.4690 22.4316 0.4704
86.4890 22.4183 0.4758
86.5090 22.4049 0.4705
86.5290 22.3916 0.4706
86.5490 22.3782 0.4736
86.5690 22.3649 0.4728
86.5890 22.3515 0.4745
86.6090 22.3382 0.4777
86.6290 22.3249 0.4712
86.6490 22.3116 0.4670
86.6690 22.2983 0.4719
86.6890 22.2849 0.4748
86.7090 22.2716 0.4695
86.7290 22.2583 0.4722
86.7490 22.2450 0.4686
86.7690 22.2316 0.4686
86.7890 22.2183 0.4726
86.8090 22.2049 0.4703
86.8290 22.1916 0.4725
86.8490 22.1782 0.4673
86.8690 22.1649 0.4729
86.8890 22.1515 0.4702
86.9090 22.1382 0.4652
86.9290 22.1249 0.4698
86.9490 22.1115 0.4677
86.9690 22.0982 0.4679
86.9890 22.0849 0.4691
87.0090 22.0716 0.4717
87.0290 22.0583 0.4650
87.0490 22.0449 0.4690
87.0690 22.0316 0.4716
87.0890 22.0183 0.4618
87.1090 22.0050 0.4682
87.1290 21.9916 0.4686
87.1490 21.9782 0.4656
87.1690 21.9649 0.4680
87.1890 21.9516 0.4603
87.2090 21.9382 0.4666
87.2290 21.9249 0.4657
87.2490 21.9116 0.4644
87.2690 21.8983 0.4657
87.2890 21.8849 0.4630
87.3090 21.8716 0.4660
87.3290 21.8582 0.4633
87.3490 21.8449 0.4634
87.3690 21.8316 0.4643
87.3890 21.8183 0.4668
87.4090 21.8049 0.4566
87.4290 21.7916 0.4678
87.4490 21.7783 0.4665
87.4690 21.7650 0.4538
87.4890 21.7516 0.4692
87.5090 21.7383 0.4610
87.5290 21.7249 0.4548
87.5490 21.7116 0.4653
87.5690 21.6982 0.4573
87.5890 21.6849 0.4572
87.6090 21.6716 0.4616
87.6290 21.6583 0.4592
87.6490 21.6449 0.4539
87.6690 21.6316 0.4644
87.6890 21.6182 0.4596
87.7090 21.6049 0.4556
87.7290 21.5916 0.4621
87.7490 21.5783 0.4579
87.7690 21.5650 0.4559
87.7890 21.5516 0.4589
87.8090 21.5383 0.4553
87.8290 21.5250 0.4555
87.8490 21.5116 0.4595
87.8690 21.4982 0.4575
87.8890 21.4849 0.4550
87.9090 21.4716 0.4579
87.9290 21.4583 0.4550
87.9490 21.4449 0.4546
87.9690 21.4316 0.4551
87.9890 21.4183 0.4571
88.0090 21.4049 0.4513
88.0290 21.3915 0.4504
88.0490 21.3782 0.4580
88.0690 21.3649 0.4480
88.0890 21.3516 0.4541
88.1090 21.3383 0.4590
88.1290 21.3249 0.4486
88.1490 21.3116 0.4568
88.1690 21.2983 0.4579
88.1890 21.2850 0.4486
88.2090 21.2716 0.4514
88.2290 21.2583 0.4590
88.2490 21.2450 0.4439
88.2690 21.2316 0.4503
88.2890 21.2183 0.4548
88.3090 21.2049 0.4402
88.3290 21.1915 0.4546
88.3490 21.1782 0.4578
88.3690 21.1649 0.4448
88.3890 21.1515 0.4523
88.4090 21.1382 0.4567
88.4290 21.1249 0.4433
88.4490 21.1116 0.4498
88.4690 21.0982 0.4533
88.4890 21.0849 0.4447
88.5090 21.0716 0.4468
88.5290 21.0583 0.4532
88.5490 21.0450 0.4425
88.5690 21.0316 0.4427
88.5890 21.0183 0.4565
88.6090 21.0050 0.4450
88.6290 20.9916 0.4391
88.6490 20.9783 0.4564
88.6690 20.9649 0.4380
88.6890 20.9515 0.4450
88.7090 20.9382 0.4552
88.7290 20.9249 0.4351
88.7490 20.9115 0.4409
88.7690 20.8982 0.4577
88.7890 20.8849 0.4344
88.8090 20.8716 0.4418
88.8290 20.8583 0.4560
88.8490 20.8450 0.4285
88.8690 20.8316 0.4461
88.8890 20.8183 0.4574
88.9090 20.8050 0.4255
88.9290 20.7916 0.4452
88.9490 20.7783 0.4533
88.9690 20.7649 0.4289
88.9890 20.7516 0.4480
89.0090 20.7383 0.4445
89.0290 20.7249 0.4311
89.0490 20.7116 0.4494
89.0690 20.6983 0.4445
89.0890 20.6849 0.4297
89.1090 20.6716 0.4479
89.1290 20.6582 0.4437
89.1490 20.6449 0.4325
89.1690 20.6316 0.4443
89.1890 20.6183 0.4393
89.2090 20.6049 0.4365
89.2290 20.5916 0.4463
89.2490 20.5783 0.4354
89.2690 20.5650 0.4400
89.2890 20.5516 0.4388
89.3090 20.5383 0.4401
89.3290 20.5249 0.4388
89.3490 20.5116 0.4380
89.3690 20.4983 0.4341
89.3890 20.4849 0.4345
89.4090 20.4715 0.4411
89.4290 20.4582 0.4388
89.4490 20.4449 0.4290
89.4690 20.4316 0.4388
89.4890 20.4182 0.4405
89.5090 20.4049 0.4271
89.5290 20.3916 0.4340
89.5490 20.3782 0.4396
89.5690 20.3649 0.4302
89.5890 20.3516 0.4357
89.6090 20.3383 0.4399
89.6290 20.3250 0.4301
89.6490 20.3116 0.4358
89.6690 20.2983 0.4430
89.6890 20.2850 0.4290
89.7090 20.2717 0.4315
89.7290 20.2583 0.4401
89.7490 20.2449 0.4314
89.7690 20.2315 0.4341
89.7890 20.2182 0.4368
89.8090 20.2049 0.4228
89.8290 20.1916 0.4347
89.8490 20.1782 0.4397
89.8690 20.1649 0.4247
89.8890 20.1516 0.4309
89.9090 20.1382 0.4380
89.9290 20.1249 0.4258
89.9490 20.1116 0.4313
89.9690 20.0983 0.4364
89.9890 20.0850 0.4228
90.0090 20.0716 0.4283
90.0290 20.0582 0.4337
90.0490 20.0449 0.4262
90.0690 20.0316 0.4270
90.0890 20.0183 0.4299
90.1090 20.0049 0.4284
90.1290 19.9916 0.4297
90.1490 19.9783 0.4260
90.1690 19.9649 0.4260
90.1890 19.9516 0.4261
90.2090 19.9382 0.4261
90.2290 19.9249 0.4291
90.2490 19.9116 0.4216
90.2690 19.8982 0.4276
90.2890 19.8849 0.4325
90.3090 19.8716 0.4201
90.3290 19.8583 0.4236
90.3490 19.8450 0.4292
90.3690 19.8316 0.4184
90.3890 19.8183 0.4225
90.4090 19.8049 0.4323
90.4290 19.7916 0.4178
90.4490 19.7783 0.4232
90.4690 19.7649 0.4297
90.4890 19.7516 0.4204
90.5090 19.7382 0.4230
90.5290 19.7249 0.4214
90.5490 19.7116 0.4190
90.5690 19.6983 0.4266
90.5890 19.6849 0.4225
90.6090 19.6716 0.4222
90.6290 19.6583 0.4219
90.6490 19.6449 0.4215
90.6690 19.6316 0.4224
90.6890 19.6183 0.4239
90.7090 19.6050 0.4192
90.7290 19.5916 0.4225
90.7490 19.5783 0.4206
90.7690 19.5649 0.4161
90.7890 19.5516 0.4296
90.8090 19.5383 0.4156
90.8290 19.5249 0.4166
90.8490 19.5116 0.4288
90.8690 19.4982 0.4174
90.8890 19.4849 0.4146
90.9090 19.4716 0.4245
90.9290 19.4582 0.4126
90.9490 19.4449 0.4185
90.9690 19.4316 0.4255
90.9890 19.4183 0.4114
91.0090 19.4049 0.4159
91.0290 19.3916 0.4259
91.0490 19.3783 0.4097
91.0690 19.3650 0.4159
91.0890 19.3516 0.4209
91.1090 19.3382 0.4060
91.1290 19.3249 0.4238
91.1490 19.3116 0.4188
91.1690 19.2983 0.4050
91.1890 19.2849 0.4244
91.2090 19.2715 0.4165
91.2290 19.2582 0.4085
91.2490 19.2449 0.4174
91.2690 19.2316 0.4160
91.2890 19.2182 0.4065
91.3090 19.2049 0.4192
91.3290 19.1916 0.4111
91.3490 19.1782 0.4079
91.3690 19.1649 0.4175
91.3890 19.1516 0.4084
91.4090 19.1383 0.4114
91.4290 19.1250 0.4147
91.4490 19.1116 0.4072
91.4690 19.0983 0.4158
91.4890 19.0850 0.4119
91.5090 19.0717 0.4052
91.5290 19.0583 0.4106
91.5490 19.0449 0.4071
91.5690 19.0315 0.4042
91.5890 19.0182 0.4128
91.6090 19.0049 0.4084
91.6290 18.9916 0.4058
91.6490 18.9782 0.4127
91.6690 18.9649 0.4046
91.6890 18.9516 0.4148
91.7090 18.9383 0.4082
91.7290 18.9249 0.4024
91.7490 18.9116 0.4127
91.7690 18.8983 0.4060
91.7890 18.8850 0.4002
91.8090 18.8716 0.4113
91.8290 18.8583 0.4068
91.8490 18.8449 0.4053
91.8690 18.8316 0.4095
91.8890 18.8183 0.4036
91.9090 18.8049 0.4046
91.9290 18.7916 0.4078
91.9490 18.7782 0.4036
91.9690 18.7649 0.4032
91.9890 18.7516 0.4051
92.0090 18.7382 0.3995
92.0290 18.7248 0.4044
92.0490 18.7116 0.4046
92.0690 18.6983 0.3987
92.0890 18.6849 0.4026
92.1090 18.6716 0.4029
92.1290 18.6583 0.4029
92.1490 18.6450 0.4035
92.1690 18.6317 0.4035
92.1890 18.6183 0.4013
92.2090 18.6049 0.4018
92.2290 18.5916 0.4013
92.2490 18.5783 0.3926
92.2690 18.5649 0.4017
92.2890 18.5515 0.4034
92.3090 18.5382 0.3940
92.3290 18.5249 0.4005
92.3490 18.5116 0.4007
92.3690 18.4982 0.3944
92.3890 18.4849 0.3976
92.4090 18.4716 0.4014
92.4290 18.4582 0.3925
92.4490 18.4449 0.3968
92.4690 18.4316 0.4039
92.4890 18.4183 0.3891
92.5090 18.4050 0.3965
92.5290 18.3916 0.4000
92.5490 18.3783 0.3890
92.5690 18.3649 0.4012
92.5890 18.3516 0.4023
92.6090 18.3383 0.3836
92.6290 18.3249 0.3989
92.6490 18.3115 0.4008
92.6690 18.2982 0.3860
92.6890 18.2849 0.3977
92.7090 18.2716 0.4000
92.7290 18.2582 0.3830
92.7490 18.2449 0.3991
92.7690 18.2316 0.3957
92.7890 18.2183 0.3824
92.8090 18.2049 0.3996
92.8290 18.1916 0.3965
92.8490 18.1783 0.3806
92.8690 18.1650 0.3988
92.8890 18.1516 0.3934
92.9090 18.1383 0.3819
92.9290 18.1249 0.3997
92.9490 18.1116 0.3927
92.9690 18.0983 0.3832
92.9890 18.0850 0.3969
93.0090 18.0716 0.3907
93.0290 18.0583 0.3855
93.0490 18.0449 0.4024
93.0690 18.0316 0.3829
93.0890 18.0182 0.3845
93.1090 18.0049 0.4028
93.1290 17.9915 0.3814
93.1490 17.9782 0.3836
93.1690 17.9649 0.4006
93.1890 17.9516 0.3843
93.2090 17.9383 0.3881
93.2290 17.9250 0.3986
93.2490 17.9116 0.3777
93.2690 17.8983 0.3864
93.2890 17.8849 0.3989
93.3090 17.8716 0.3805
93.3290 17.8583 0.3833
93.3490 17.8449 0.3919
93.3690 17.8316 0.3806
93.3890 17.8183 0.3848
93.4090 17.8050 0.3926
93.4290 17.7916 0.3785
93.4490 17.7782 0.3839
93.4690 17.7649 0.3916
93.4890 17.7516 0.3787
93.5090 17.7382 0.3835
93.5290 17.7249 0.3905
93.5490 17.7115 0.3812
93.5690 17.6982 0.3834
93.5890 17.6850 0.3888
93.6090 17.6716 0.3811
93.6290 17.6583 0.3805
93.6490 17.6450 0.3902
93.6690 17.6317 0.3751
93.6890 17.6183 0.3797
93.7090 17.6050 0.3878
93.7290 17.5916 0.3752
93.7490 17.5782 0.3855
93.7690 17.5649 0.3847
93.7890 17.5516 0.3747
93.8090 17.5382 0.3852
93.8290 17.5248 0.3838
93.8490 17.5115 0.3724
93.8690 17.4982 0.3864
93.8890 17.4849 0.3823
93.9090 17.4716 0.3745
93.9290 17.4583 0.3841
93.9490 17.4450 0.3799
93.9690 17.4317 0.3707
93.9890 17.4183 0.3807
94.0090 17.4049 0.3784
94.0290 17.3916 0.3757
94.0490 17.3783 0.3802
94.0690 17.3649 0.3781
94.0890 17.3515 0.3747
94.1090 17.3382 0.3811
94.1290 17.3249 0.3761
94.1490 17.3116 0.3745
94.1690 17.2982 0.3790
94.1890 17.2849 0.3787
94.2090 17.2716 0.3740
94.2290 17.2583 0.3793
94.2490 17.2449 0.3762
94.2690 17.2316 0.3727
94.2890 17.2183 0.3778
94.3090 17.2050 0.3735
94.3290 17.1917 0.3723
94.3490 17.1783 0.3791
94.3690 17.1649 0.3713
94.3890 17.1516 0.3748
94.4090 17.1383 0.3749
94.4290 17.1249 0.3699
94.4490 17.1116 0.3727
94.4690 17.0982 0.3733
94.4890 17.0849 0.3685
94.5090 17.0716 0.3722
94.5290 17.0582 0.3744
94.5490 17.0449 0.3703
94.5690 17.0316 0.3727
94.5890 17.0183 0.3699
94.6090 17.0049 0.3669
94.6290 16.9916 0.3732
94.6490 16.9783 0.3717
94.6690 16.9650 0.3675
94.6890 16.9517 0.3722
94.7090 16.9383 0.3679
94.7290 16.9249 0.3685
94.7490 16.9116 0.3694
94.7690 16.8983 0.3672
94.7890 16.8850 0.3676
94.8090 16.8716 0.3660
94.8290 16.8582 0.3693
94.8490 16.8449 0.3694
94.8690 16.8316 0.3649
94.8890 16.8182 0.3658
94.9090 16.8049 0.3680
94.9290 16.7916 0.3656
94.9490 16.7783 0.3664
94.9690 16.7649 0.3647
94.9890 16.7516 0.3614
95.0090 16.7383 0.3706
95.0290 16.7250 0.3639
95.0490 16.7116 0.3609
95.0690 16.6983 0.3678
95.0890 16.6849 0.3666
95.1090 16.6716 0.3611
95.1290 16.6583 0.3641
95.1490 16.6449 0.3688
95.1690 16.6316 0.3594
95.1890 16.6182 0.3634
95.2090 16.6049 0.3682
95.2290 16.5916 0.3578
95.2490 16.5782 0.3617
95.2690 16.5648 0.3650
95.2890 16.5515 0.3623
95.3090 16.5382 0.3643
95.3290 16.5249 0.3622
95.3490 16.5116 0.3546
95.3690 16.4983 0.3610
95.3890 16.4850 0.3701
95.4090 16.4717 0.3503
95.4290 16.4583 0.3626
95.4490 16.4449 0.3660
95.4690 16.4316 0.3498
95.4890 16.4183 0.3621
95.5090 16.4050 0.3639
95.5290 16.3916 0.3501
95.5490 16.3782 0.3641
95.5690 16.3649 0.3595
95.5890 16.3516 0.3471
95.6090 16.3382 0.3648
95.6290 16.3249 0.3593
95.6490 16.3116 0.3492
95.6690 16.2983 0.3646
95.6890 16.2849 0.3535
95.7090 16.2716 0.3518
95.7290 16.2582 0.3647
95.7490 16.2450 0.3505
95.7690 16.2317 0.3510
95.7890 16.2183 0.3640
95.8090 16.2050 0.3498
95.8290 16.1916 0.3512
95.8490 16.1783 0.3606
95.8690 16.1650 0.3471
95.8890 16.1516 0.3496
95.9090 16.1382 0.3624
95.9290 16.1249 0.3450
95.9490 16.1116 0.3506
95.9690 16.0982 0.3576
95.9890 16.0849 0.3467
96.0090 16.0715 0.3512
96.0290 16.0582 0.3529
96.0490 16.0449 0.3500
96.0690 16.0316 0.3493
96.0890 16.0183 0.3534
96.1090 16.0050 0.3483
96.1290 15.9917 0.3469
96.1490 15.9783 0.3506
96.1690 15.9649 0.3502
96.1890 15.9516 0.3507
96.2090 15.9383 0.3482
96.2290 15.9249 0.3457
96.2490 15.9116 0.3504
96.2690 15.8982 0.3501
96.2890 15.8849 0.3459
96.3090 15.8716 0.3442
96.3290 15.8583 0.3454
96.3490 15.8449 0.3481
96.3690 15.8315 0.3460
96.3890 15.8182 0.3484
96.4090 15.8049 0.3464
96.4290 15.7916 0.3418
96.4490 15.7782 0.3509
96.4690 15.7649 0.3464
96.4890 15.7516 0.3419
96.5090 15.7383 0.3490
96.5290 15.7249 0.3440
96.5490 15.7116 0.3380
96.5690 15.6983 0.3507
96.5890 15.6849 0.3424
96.6090 15.6716 0.3397
96.6290 15.6582 0.3471
96.6490 15.6449 0.3409
96.6690 15.6316 0.3418
96.6890 15.6183 0.3499
96.7090 15.6049 0.3398
96.7290 15.5915 0.3416
96.7490 15.5782 0.3462
96.7690 15.5649 0.3374
96.7890 15.5516 0.3449
96.8090 15.5382 0.3484
96.8290 15.5249 0.3348
96.8490 15.5116 0.3377
96.8690 15.4983 0.3422
96.8890 15.4849 0.3407
96.9090 15.4716 0.3397
96.9290 15.4583 0.3434
96.9490 15.4450 0.3337
96.9690 15.4317 0.3375
96.9890 15.4183 0.3459
97.0090 15.4049 0.3363
97.0290 15.3916 0.3393
97.0490 15.3782 0.3436
97.0690 15.3649 0.3356
97.0890 15.3515 0.3367
97.1090 15.3382 0.3457
97.1290 15.3249 0.3342
97.1490 15.3116 0.3358
97.1690 15.2982 0.3428
97.1890 15.2849 0.3366
97.2090 15.2717 0.3352
97.2290 15.2583 0.3396
97.2490 15.2449 0.3325
97.2690 15.2316 0.3348
97.2890 15.2183 0.3356
97.3090 15.2050 0.3302
97.3290 15.1916 0.3288
97.3490 15.1782 0.3390
97.3690 15.1649 0.3346
97.3890 15.1516 0.3258
97.4090 15.1383 0.3374
97.4290 15.1249 0.3354
97.4490 15.1115 0.3254
97.4690 15.0982 0.3413
97.4890 15.0849 0.3279
97.5090 15.0716 0.3266
97.5290 15.0582 0.3429
97.5490 15.0449 0.3295
97.5690 15.0317 0.3267
97.5890 15.0183 0.3382
97.6090 15.0050 0.3277
97.6290 14.9916 0.3246
97.6490 14.9783 0.3358
97.6690 14.9649 0.3290
97.6890 14.9516 0.3252
97.7090 14.9382 0.3380
97.7290 14.9249 0.3244
97.7490 14.9116 0.3243
97.7690 14.8983 0.3320
97.7890 14.8849 0.3206
97.8090 14.8716 0.3297
97.8290 14.8582 0.3316
97.8490 14.8449 0.3198
97.8690 14.8316 0.3272
97.8890 14.8183 0.3296
97.9090 14.8049 0.3229
97.9290 14.7916 0.3243
97.9490 14.7783 0.3259
97.9690 14.7650 0.3246
97.9890 14.7516 0.3271
98.0090 14.7383 0.3263
98.0290 14.7250 0.3194
98.0490 14.7116 0.3268
98.0690 14.6982 0.3240
98.0890 14.6849 0.3220
98.1090 14.6716 0.3222
98.1290 14.6582 0.3245
98.1490 14.6449 0.3243
98.1690 14.6315 0.3234
98.1890 14.6182 0.3205
98.2090 14.6049 0.3238
98.2290 14.5916 0.3192
98.2490 14.5783 0.3202
98.2690 14.5649 0.3250
98.2890 14.5516 0.3175
98.3090 14.5383 0.3234
98.3290 14.5249 0.3197
98.3490 14.5116 0.3166
98.3690 14.4982 0.3239
98.3890 14.4849 0.3154
98.4090 14.4716 0.3138
98.4290 14.4582 0.3285
98.4490 14.4449 0.3154
98.4690 14.4316 0.3169
98.4890 14.4183 0.3217
98.5090 14.4049 0.3082
98.5290 14.3915 0.3220
98.5490 14.3782 0.3255
98.5690 14.3649 0.3042
98.5890 14.3516 0.3191
98.6090 14.3382 0.3246
98.6290 14.3249 0.3058
98.6490 14.3116 0.3241
98.6690 14.2983 0.3208
98.6890 14.2850 0.3056
98.7090 14.2716 0.3239
98.7290 14.2583 0.3114
98.7490 14.2450 0.3094
98.7690 14.2316 0.3211
98.7890 14.2182 0.3111
98.8090 14.2049 0.3142
98.8290 14.1916 0.3171
98.8490 14.1782 0.3088
98.8690 14.1649 0.3109
98.8890 14.1515 0.3145
98.9090 14.1382 0.3100
98.9290 14.1249 0.3121
98.9490 14.1116 0.3134
98.9690 14.0982 0.3071
98.9890 14.0849 0.3168
99.0090 14.0716 0.3126
99.0290 14.0583 0.3117
99.0490 14.0449 0.3122
99.0690 14.0316 0.3106
99.0890 14.0183 0.3131
99.1090 14.0050 0.3094
99.1290 13.9916 0.3101
99.1490 13.9782 0.3086
99.1690 13.9649 0.3104
99.1890 13.9515 0.3116
99.2090 13.9382 0.3066
99.2290 13.9249 0.3094
99.2490 13.9115 0.3060
99.2690 13.8982 0.3070
99.2890 13.8849 0.3097
99.3090 13.8716 0.3061
99.3290 13.8583 0.3085
99.3490 13.8450 0.3049
99.3690 13.8317 0.3119
99.3890 13.8184 0.3040
99.4090 13.8050 0.3053
99.4290 13.7916 0.3108
99.4490 13.7783 0.3065
99.4690 13.7649 0.3018
99.4890 13.7516 0.3081
99.5090 13.7382 0.3068
99.5290 13.7249 0.3038
99.5490 13.7116 0.3117
99.5690 13.6982 0.3038
99.5890 13.6849 0.2992
99.6090 13.6715 0.3082
99.6290 13.6582 0.3054
99.6490 13.6449 0.3023
99.6690 13.6316 0.3056
99.6890 13.6183 0.3051
99.7090 13.6050 0.3009
99.7290 13.5917 0.3064
99.7490 13.5784 0.3035
99.7690 13.5650 0.2981
99.7890 13.5516 0.3113
99.8090 13.5383 0.3025
99.8290 13.5250 0.2961
99.8490 13.5116 0.3100
99.8690 13.4982 0.2991
99.8890 13.4849 0.2965
99.9090 13.4716 0.3108
99.9290 13.4582 0.2957
99.9490 13.4449 0.2934
99.9690 13.4315 0.3097
99.9890 13.4182 0.2980
100.0090 13.4049 0.2924
100.0290 13.3916 0.3084
100.0490 13.3782 0.2945
100.0690 13.3649 0.2955
100.0890 13.3516 0.3102
100.1090 13.3383 0.2908
100.1290 13.3249 0.2967
100.1490 13.3116 0.3062
100.1690 13.2983 0.2888
100.1890 13.2850 0.3012
100.2090 13.2716 0.3047
100.2290 13.2583 0.2835
100.2490 13.2449 0.2974
100.2690 13.2316 0.3127
100.2890 13.2183 0.2832
100.3090 13.2049 0.2886
100.3290 13.1915 0.3112
100.3490 13.1782 0.2869
100.3690 13.1649 0.2872
100.3890 13.1516 0.3102
100.4090 13.1382 0.2862
100.4290 13.1249 0.2879
100.4490 13.1116 0.3034
100.4690 13.0983 0.2907
100.4890 13.0850 0.2817
100.5090 13.0716 0.3034
100.5290 13.0583 0.2906
100.5490 13.0449 0.2821
100.5690 13.0316 0.3006
100.5890 13.0183 0.2845
100.6090 13.0049 0.2930
100.6290 12.9916 0.2992
100.6490 12.9783 0.2847
100.6690 12.9649 0.2873
100.6890 12.9516 0.2995
100.7090 12.9382 0.2853
100.7290 12.9249 0.2867
100.7490 12.9116 0.3001
100.7690 12.8982 0.2842
100.7890 12.8849 0.2866
100.8090 12.8716 0.3007
100.8290 12.8583 0.2822
100.8490 12.8450 0.2864
100.8690 12.8316 0.2955
100.8890 12.8183 0.2846
100.9090 12.8050 0.2867
100.9290 12.7917 0.2943
100.9490 12.7783 0.2825
100.9690 12.7649 0.2830
100.9890 12.7516 0.2972
101.0090 12.7382 0.2825
101.0290 12.7249 0.2815
101.0490 12.7115 0.2929
101.0690 12.6982 0.2866
101.0890 12.6849 0.2793
101.1090 12.6716 0.2910
101.1290 12.6583 0.2839
101.1490 12.6449 0.2804
101.1690 12.6317 0.2923
101.1890 12.6184 0.2756
101.2090 12.6050 0.2834
101.2290 12.5916 0.2928
101.2490 12.5783 0.2755
101.2690 12.5649 0.2791
101.2890 12.5516 0.2937
101.3090 12.5382 0.2745
101.3290 12.5249 0.2841
101.3490 12.5115 0.2898
101.3690 12.4982 0.2763
101.3890 12.4849 0.2788
101.4090 12.4716 0.2897
101.4290 12.4582 0.2738
101.4490 12.4449 0.2827
101.4690 12.4316 0.2836
101.4890 12.4182 0.2740
101.5090 12.4049 0.2821
101.5290 12.3916 0.2829
101.5490 12.3783 0.2760
101.5690 12.3650 0.2787
101.5890 12.3516 0.2809
101.6090 12.3383 0.2767
101.6290 12.3249 0.2778
101.6490 12.3116 0.2758
101.6690 12.2982 0.2761
101.6890 12.2849 0.2778
101.7090 12.2715 0.2796
101.7290 12.2582 0.2696
101.7490 12.2449 0.2781
101.7690 12.2316 0.2741
101.7890 12.2182 0.2759
101.8090 12.2049 0.2765
101.8290 12.1916 0.2776
101.8490 12.1783 0.2713
101.8690 12.1649 0.2757
101.8890 12.1516 0.2761
101.9090 12.1383 0.2643
101.9290 12.1250 0.2784
101.9490 12.1116 0.2759
101.9690 12.0982 0.2656
101.9890 12.0849 0.2772
102.0090 12.0716 0.2742
102.0290 12.0582 0.2654
102.0490 12.0449 0.2787
102.0690 12.0315 0.2720
102.0890 12.0182 0.2629
102.1090 12.0049 0.2757
102.1290 11.9916 0.2688
102.1490 11.9782 0.2644
102.1690 11.9649 0.2770
102.1890 11.9516 0.2623
102.2090 11.9383 0.2672
102.2290 11.9249 0.2788
102.2490 11.9116 0.2596
102.2690 11.8983 0.2652
102.2890 11.8850 0.2709
102.3090 11.8716 0.2653
102.3290 11.8583 0.2708
102.3490 11.8449 0.2692
102.3690 11.8316 0.2585
102.3890 11.8183 0.2683
102.4090 11.8049 0.2675
102.4290 11.7916 0.2595
102.4490 11.7783 0.2705
102.4690 11.7649 0.2675
102.4890 11.7516 0.2578
102.5090 11.7382 0.2727
102.5290 11.7249 0.2627
102.5490 11.7116 0.2606
102.5690 11.6983 0.2677
102.5890 11.6849 0.2662
102.6090 11.6716 0.2553
102.6290 11.6583 0.2677
102.6490 11.6450 0.2633
102.6690 11.6316 0.2554
102.6890 11.6183 0.2690
102.7090 11.6049 0.2597
102.7290 11.5916 0.2579
102.7490 11.5783 0.2648
102.7690 11.5649 0.2609
102.7890 11.5515 0.2595
102.8090 11.5382 0.2641
102.8290 11.5249 0.2593
102.8490 11.5116 0.2575
102.8690 11.4982 0.2634
102.8890 11.4849 0.2602
102.9090 11.4716 0.2580
102.9290 11.4583 0.2633
102.9490 11.4449 0.2577
102.9690 11.4316 0.2586
102.9890 11.4183 0.2599
103.0090 11.4050 0.2553
103.0290 11.3916 0.2585
103.0490 11.3783 0.2614
103.0690 11.3650 0.2536
103.0890 11.3516 0.2551
103.1090 11.3383 0.2618
103.1290 11.3249 0.2542
103.1490 11.3115 0.2569
103.1690 11.2982 0.2630
103.1890 11.2849 0.2499
103.2090 11.2715 0.2514
103.2290 11.2582 0.2635
103.2490 11.2449 0.2548
103.2690 11.2316 0.2502
103.2890 11.2183 0.2631
103.3090 11.2050 0.2557
103.3290 11.1916 0.2509
103.3490 11.1783 0.2616
103.3690 11.1650 0.2463
103.3890 11.1516 0.2526
103.4090 11.1383 0.2597
103.4290 11.1249 0.2519
103.4490 11.1116 0.2514
103.4690 11.0983 0.2577
103.4890 11.0849 0.2490
103.5090 11.0716 0.2548
103.5290 11.0583 0.2586
103.5490 11.0449 0.2489
103.5690 11.0316 0.2511
103.5890 11.0182 0.2509
103.6090 11.0049 0.2499
103.6290 10.9916 0.2538
103.6490 10.9783 0.2466
103.6690 10.9649 0.2524
103.6890 10.9516 0.2501
103.7090 10.9383 0.2453
103.7290 10.9250 0.2531
103.7490 10.9116 0.2524
103.7690 10.8983 0.2482
103.7890 10.8849 0.2501
103.8090 10.8716 0.2504
103.8290 10.8583 0.2452
103.8490 10.8449 0.2525
103.8690 10.8315 0.2488
103.8890 10.8182 0.2435
103.9090 10.8049 0.2520
103.9290 10.7916 0.2431
103.9490 10.7782 0.2461
103.9690 10.7649 0.2533
103.9890 10.7516 0.2421
104.0090 10.7383 0.2451
104.0290 10.7249 0.2541
104.0490 10.7116 0.2401
104.0690 10.6983 0.2459
104.0890 10.6850 0.2538
104.1090 10.6716 0.2377
104.1290 10.6583 0.2460
104.1490 10.6449 0.2591
104.1690 10.6316 0.2342
104.1890 10.6183 0.2448
104.2090 10.6049 0.2542
104.2290 10.5916 0.2302
104.2490 10.5783 0.2476
104.2690 10.5649 0.2504
104.2890 10.5516 0.2330
104.3090 10.5382 0.2491
104.3290 10.5249 0.2485
104.3490 10.5116 0.2262
104.3690 10.4983 0.2533
104.3890 10.4849 0.2483
104.4090 10.4716 0.2266
104.4290 10.4583 0.2470
104.4490 10.4450 0.2461
104.4690 10.4316 0.2288
104.4890 10.4183 0.2491
104.5090 10.4049 0.2417
104.5290 10.3917 0.2288
104.5490 10.3783 0.2467
104.5690 10.3649 0.2415
104.5890 10.3515 0.2339
104.6090 10.3382 0.2490
104.6290 10.3249 0.2375
104.6490 10.3116 0.2309
104.6690 10.2982 0.2446
104.6890 10.2849 0.2414
104.7090 10.2716 0.2304
104.7290 10.2582 0.2418
104.7490 10.2449 0.2388
104.7690 10.2316 0.2283
104.7890 10.2183 0.2405
104.8090 10.2050 0.2386
104.8290 10.1916 0.2310
104.8490 10.1783 0.2417
104.8690 10.1649 0.2366
104.8890 10.1516 0.2298
104.9090 10.1383 0.2374
104.9290 10.1249 0.2343
104.9490 10.1115 0.2323
104.9690 10.0982 0.2365
104.9890 10.0849 0.2320
105.0090 10.0716 0.2296
105.0290 10.0582 0.2362
105.0490 10.0449 0.2304
105.0690 10.0316 0.2310
105.0890 10.0183 0.2364
105.1090 10.0049 0.2340
105.1290 9.9916 0.2281
105.1490 9.9783 0.2310
105.1690 9.9650 0.2319
105.1890 9.9516 0.2285
105.2090 9.9383 0.2303
105.2290 9.9249 0.2313
105.2490 9.9116 0.2286
105.2690 9.8983 0.2325
105.2890 9.8849 0.2279
105.3090 9.8716 0.2267
105.3290 9.8582 0.2335
105.3490 9.8449 0.2294
105.3690 9.8316 0.2221
105.3890 9.8182 0.2329
105.4090 9.8049 0.2320
105.4290 9.7916 0.2230
105.4490 9.7783 0.2323
105.4690 9.7649 0.2286
105.4890 9.7516 0.2229
105.5090 9.7383 0.2324
105.5290 9.7250 0.2262
105.5490 9.7116 0.2174
105.5690 9.6983 0.2330
105.5890 9.6849 0.2285
105.6090 9.6716 0.2172
105.6290 9.6583 0.2328
105.6490 9.6449 0.2203
105.6690 9.6316 0.2207
105.6890 9.6182 0.2300
105.7090 9.6049 0.2237
105.7290 9.5916 0.2176
105.7490 9.5782 0.2267
105.7690 9.5649 0.2306
105.7890 9.5516 0.2154
105.8090 9.5382 0.2273
105.8290 9.5249 0.2267
105.8490 9.5115 0.2192
105.8690 9.4983 0.2223
105.8890 9.4850 0.2247
105.9090 9.4716 0.2215
105.9290 9.4583 0.2241
105.9490 9.4449 0.2204
105.9690 9.4316 0.2187
105.9890 9.4183 0.2185
106.0090 9.4049 0.2161
106.0290 9.3916 0.2215
106.0490 9.3782 0.2248
106.0690 9.3649 0.2113
106.0890 9.3516 0.2175
106.1090 9.3382 0.2229
106.1290 9.3249 0.2127
106.1490 9.3116 0.2199
106.1690 9.2982 0.2172
106.1890 9.2849 0.2119
106.2090 9.2716 0.2243
106.2290 9.2583 0.2188
106.2490 9.2450 0.2159
106.2690 9.2316 0.2191
106.2890 9.2183 0.2168
106.3090 9.2049 0.2152
106.3290 9.1916 0.2222
106.3490 9.1783 0.2123
106.3690 9.1649 0.2159
106.3890 9.1516 0.2230
106.4090 9.1382 0.2079
106.4290 9.1249 0.2148
106.4490 9.1116 0.2188
106.4690 9.0982 0.2082
106.4890 9.0848 0.2145
106.5090 9.0716 0.2161
106.5290 9.0583 0.2084
106.5490 9.0449 0.2109
106.5690 9.0316 0.2186
106.5890 9.0183 0.2121
106.6090 9.0050 0.2111
106.6290 8.9917 0.2134
106.6490 8.9783 0.2102
106.6690 8.9649 0.2142
106.6890 8.9516 0.2093
106.7090 8.9383 0.2138
106.7290 8.9249 0.1982
106.7490 8.9116 0.2115
106.7690 8.8982 0.2284
106.7890 8.8849 0.1977
106.8090 8.8716 0.2132
106.8290 8.8582 0.2162
106.8490 8.8449 0.1979
106.8690 8.8316 0.2123
106.8890 8.8182 0.2110
106.9090 8.8049 0.1972
106.9290 8.7916 0.2198
106.9490 8.7783 0.2117
106.9690 8.7650 0.1906
106.9890 8.7517 0.2230
107.0090 8.7383 0.2025
107.0290 8.7249 0.1923
107.0490 8.7116 0.2245
107.0690 8.6983 0.1953
107.0890 8.6849 0.1970
107.1090 8.6715 0.2233
107.1290 8.6582 0.1928
107.1490 8.6449 0.2019
107.1690 8.6316 0.2159
107.1890 8.6182 0.1948
107.2090 8.6049 0.2052
107.2290 8.5916 0.2143
107.2490 8.5783 0.1912
107.2690 8.5649 0.2066
107.2890 8.5516 0.2108
107.3090 8.5382 0.1865
107.3290 8.5249 0.2084
107.3490 8.5116 0.2023
107.3690 8.4983 0.1913
107.3890 8.4849 0.2062
107.4090 8.4716 0.2017
107.4290 8.4583 0.1953
107.4490 8.4450 0.2046
107.4690 8.4316 0.2024
107.4890 8.4182 0.1949
107.5090 8.4049 0.2017
107.5290 8.3916 0.1966
107.5490 8.3782 0.1952
107.5690 8.3649 0.2033
107.5890 8.3515 0.1932
107.6090 8.3383 0.1964
107.6290 8.3249 0.1941
107.6490 8.3116 0.1978
107.6690 8.2983 0.1952
107.6890 8.2850 0.1952
107.7090 8.2717 0.1961
107.7290 8.2583 0.1924
107.7490 8.2449 0.1945
107.7690 8.2316 0.1982
107.7890 8.2183 0.1882
107.8090 8.2049 0.1903
107.8290 8.1916 0.1954
107.8490 8.1782 0.1898
107.8690 8.1649 0.1886
107.8890 8.1516 0.1967
107.9090 8.1382 0.1830
107.9290 8.1249 0.1886
107.9490 8.1115 0.1969
107.9690 8.0982 0.1845
107.9890 8.0849 0.1887
108.0090 8.0715 0.1925
108.0290 8.0582 0.1842
108.0490 8.0449 0.1864
108.0690 8.0316 0.1914
108.0890 8.0183 0.1841
108.1090 8.0049 0.1888
108.1290 7.9916 0.1900
108.1490 7.9783 0.1786
108.1690 7.9650 0.1848
108.1890 7.9516 0.1924
108.2090 7.9382 0.1762
108.2290 7.9249 0.1853
108.2490 7.9116 0.1870
108.2690 7.8982 0.1787
108.2890 7.8849 0.1829
108.3090 7.8715 0.1914
108.3290 7.8583 0.1786
108.3490 7.8449 0.1845
108.3690 7.8316 0.1786
108.3890 7.8183 0.1849
108.4090 7.8050 0.1833
108.4290 7.7917 0.1769
108.4490 7.7783 0.1830
108.4690 7.7649 0.1799
108.4890 7.7516 0.1823
108.5090 7.7382 0.1792
108.5290 7.7249 0.1799
108.5490 7.7115 0.1725
108.5690 7.6982 0.1843
108.5890 7.6849 0.1754
108.6090 7.6716 0.1788
108.6290 7.6582 0.1768
108.6490 7.6449 0.1790
108.6690 7.6315 0.1729
108.6890 7.6182 0.1737
108.7090 7.6049 0.1749
108.7290 7.5916 0.1803
108.7490 7.5783 0.1754
108.7690 7.5650 0.1691
108.7890 7.5516 0.1849
108.8090 7.5383 0.1615
108.8290 7.5249 0.1813
108.8490 7.5116 0.1705
108.8690 7.4983 0.1704
108.8890 7.4849 0.1688
108.9090 7.4715 0.1813
108.9290 7.4582 0.1639
108.9490 7.4449 0.1755
108.9690 7.4316 0.1766
108.9890 7.4183 0.1585
109.0090 7.4049 0.1771
109.0290 7.3916 0.1706
109.0490 7.3783 0.1621
109.0690 7.3650 0.1711
109.0890 7.3516 0.1724
109.1090 7.3383 0.1560
109.1290 7.3250 0.1762
109.1490 7.3117 0.1653
109.1690 7.2983 0.1674
109.1890 7.2849 0.1643
109.2090 7.2716 0.1709
109.2290 7.2583 0.1555
109.2490 7.2450 0.1685
109.2690 7.2316 0.1664
109.2890 7.2182 0.1610
109.3090 7.2049 0.1685
109.3290 7.1916 0.1619
109.3490 7.1782 0.1681
109.3690 7.1649 0.1616
109.3890 7.1516 0.1639
109.4090 7.1383 0.1589
109.4290 7.1249 0.1611
109.4490 7.1116 0.1598
109.4690 7.0983 0.1652
109.4890 7.0850 0.1618
109.5090 7.0717 0.1605
109.5290 7.0583 0.1560
109.5490 7.0449 0.1633
109.5690 7.0316 0.1611
109.5890 7.0183 0.1547
109.6090 7.0049 0.1619
109.6290 6.9916 0.1592
109.6490 6.9782 0.1511
109.6690 6.9649 0.1556
109.6890 6.9516 0.1647
109.7090 6.9382 0.1482
109.7290 6.9249 0.1579
109.7490 6.9115 0.1611
109.7690 6.8982 0.1481
109.7890 6.8849 0.1580
109.8090 6.8716 0.1603
109.8290 6.8583 0.1462
109.8490 6.8450 0.1569
109.8690 6.8317 0.1587
109.8890 6.8183 0.1471
109.9090 6.8050 0.1535
109.9290 6.7916 0.1573
109.9490 6.7783 0.1460
109.9690 6.7650 0.1509
109.9890 6.7516 0.1549
110.0090 6.7382 0.1512
110.0290 6.7249 0.1543
110.0490 6.7116 0.1502
110.0690 6.6982 0.1504
110.0890 6.6849 0.1527
110.1090 6.6715 0.1505
110.1290 6.6582 0.1463
110.1490 6.6449 0.1565
110.1690 6.6316 0.1443
110.1890 6.6182 0.1500
110.2090 6.6049 0.1504
110.2290 6.5916 0.1424
110.2490 6.5783 0.1494
110.2690 6.5650 0.1475
110.2890 6.5516 0.1426
110.3090 6.5383 0.1476
110.3290 6.5250 0.1479
110.3490 6.5116 0.1400
110.3690 6.4982 0.1445
110.3890 6.4849 0.1451
110.4090 6.4716 0.1395
110.4290 6.4582 0.1418
110.4490 6.4449 0.1459
110.4690 6.4315 0.1405
110.4890 6.4183 0.1476
110.5090 6.4049 0.1424
110.5290 6.3916 0.1364
110.5490 6.3783 0.1444
110.5690 6.3650 0.1452
110.5890 6.3517 0.1352
110.6090 6.3383 0.1438
110.6290 6.3250 0.1394
110.6490 6.3116 0.1352
110.6690 6.2983 0.1412
110.6890 6.2850 0.1374
110.7090 6.2716 0.1341
110.7290 6.2582 0.1396
110.7490 6.2449 0.1366
110.7690 6.2316 0.1327
110.7890 6.2182 0.1382
110.8090 6.2049 0.1390
110.8290 6.1915 0.1320
110.8490 6.1782 0.1390
110.8690 6.1649 0.1296
110.8890 6.1516 0.1323
110.9090 6.1382 0.1404
110.9290 6.1249 0.1317
110.9490 6.1116 0.1303
110.9690 6.0983 0.1357
110.9890 6.0849 0.1296
111.0090 6.0716 0.1321
111.0290 6.0583 0.1372
111.0490 6.0450 0.1265
111.0690 6.0316 0.1306
111.0890 6.0182 0.1348
111.1090 6.0049 0.1248
111.1290 5.9916 0.1287
111.1490 5.9783 0.1334
111.1690 5.9649 0.1230
111.1890 5.9515 0.1267
111.2090 5.9382 0.1332
111.2290 5.9249 0.1229
111.2490 5.9116 0.1271
111.2690 5.8982 0.1291
111.2890 5.8849 0.1212
111.3090 5.8716 0.1273
111.3290 5.8583 0.1280
111.3490 5.8450 0.1188
111.3690 5.8316 0.1255
111.3890 5.8183 0.1292
111.4090 5.8050 0.1215
111.4290 5.7916 0.1217
111.4490 5.7783 0.1266
111.4690 5.7649 0.1258
111.4890 5.7516 0.1146
111.5090 5.7383 0.1259
111.5290 5.7249 0.1222
111.5490 5.7116 0.1170
111.5690 5.6982 0.1252
111.5890 5.6849 0.1165
111.6090 5.6716 0.1128
111.6290 5.6582 0.1290
111.6490 5.6449 0.1172
111.6690 5.6316 0.1097
111.6890 5.6183 0.1235
111.7090 5.6050 0.1201
111.7290 5.5916 0.1124
111.7490 5.5783 0.1218
111.7690 5.5650 0.1150
111.7890 5.5516 0.1099
111.8090 5.5382 0.1219
111.8290 5.5249 0.1130
111.8490 5.5116 0.1120
111.8690 5.4983 0.1200
111.8890 5.4849 0.1111
111.9090 5.4715 0.1085
111.9290 5.4582 0.1179
111.9490 5.4449 0.1140
111.9690 5.4316 0.1115
111.9890 5.4182 0.1123
112.0090 5.4049 0.1115
112.0290 5.3917 0.1106
112.0490 5.3783 0.1066
112.0690 5.3650 0.1149
112.0890 5.3516 0.1086
112.1090 5.3383 0.1052
112.1290 5.3249 0.1118
112.1490 5.3116 0.1061
112.1690 5.2982 0.1081
112.1890 5.2849 0.1118
112.2090 5.2716 0.1099
112.2290 5.2583 0.0995
112.2490 5.2449 0.1157
112.2690 5.2316 0.1069
112.2890 5.2182 0.1005
112.3090 5.2049 0.1158
112.3290 5.1916 0.1051
112.3490 5.1783 0.0953
112.3690 5.1650 0.1071
112.3890 5.1517 0.1046
112.4090 5.1383 0.0976
112.4290 5.1250 0.1064
112.4490 5.1116 0.1020
112.4690 5.0983 0.0990
112.4890 5.0850 0.1076
112.5090 5.0716 0.0959
112.5290 5.0582 0.0979
112.5490 5.0449 0.1075
112.5690 5.0316 0.0950
112.5890 5.0182 0.0975
112.6090 5.0049 0.1086
112.6290 4.9915 0.0933
112.6490 4.9782 0.0959
112.6690 4.9649 0.1043
112.6890 4.9516 0.0854
112.7090 4.9383 0.1006
112.7290 4.9249 0.1073
112.7490 4.9116 0.0869
112.7690 4.8983 0.0958
112.7890 4.8849 0.0992
112.8090 4.8716 0.0828
112.8290 4.8583 0.0994
112.8490 4.8449 0.1022
112.8690 4.8316 0.0817
112.8890 4.8182 0.0921
112.9090 4.8049 0.1017
112.9290 4.7916 0.0830
112.9490 4.7783 0.0931
112.9690 4.7649 0.0967
112.9890 4.7516 0.0776
113.0090 4.7382 0.0940
113.0290 4.7249 0.0962
113.0490 4.7116 0.0781
113.0690 4.6982 0.0957
113.0890 4.6849 0.0952
113.1090 4.6716 0.0746
113.1290 4.6583 0.0982
113.1490 4.6450 0.0925
113.1690 4.6316 0.0743
113.1890 4.6183 0.0975
113.2090 4.6050 0.0869
113.2290 4.5916 0.0745
113.2490 4.5783 0.0917
113.2690 4.5649 0.0868
113.2890 4.5516 0.0768
113.3090 4.5382 0.0918
113.3290 4.5249 0.0829
113.3490 4.5115 0.0771
113.3690 4.4982 0.0896
113.3890 4.4849 0.0813
113.4090 4.4716 0.0775
113.4290 4.4583 0.0847
113.4490 4.4449 0.0816
113.4690 4.4316 0.0791
113.4890 4.4183 0.0807
113.5090 4.4050 0.0794
113.5290 4.3916 0.0781
113.5490 4.3783 0.0817
113.5690 4.3650 0.0772
113.5890 4.3516 0.0743
113.6090 4.3382 0.0817
113.6290 4.3249 0.0727
113.6490 4.3115 0.0756
113.6690 4.2982 0.0756
113.6890 4.2849 0.0729
113.7090 4.2715 0.0756
113.7290 4.2582 0.0752
113.7490 4.2449 0.0690
113.7690 4.2316 0.0761
113.7890 4.2182 0.0729
113.8090 4.2049 0.0690
113.8290 4.1916 0.0750
113.8490 4.1783 0.0713
113.8690 4.1650 0.0679
113.8890 4.1516 0.0728
113.9090 4.1383 0.0698
113.9290 4.1249 0.0697
113.9490 4.1116 0.0661
113.9690 4.0982 0.0661
113.9890 4.0849 0.0676
114.0090 4.0716 0.0665
114.0290 4.0582 0.0678
114.0490 4.0449 0.0669
114.0690 4.0315 0.0681
114.0890 4.0182 0.0636
114.1090 4.0049 0.0635
114.1290 3.9916 0.0681
114.1490 3.9783 0.0655
114.1690 3.9649 0.0606
114.1890 3.9516 0.0589
114.2090 3.9383 0.0662
114.2290 3.9250 0.0656
114.2490 3.9116 0.0591
114.2690 3.8983 0.0637
114.2890 3.8850 0.0582
114.3090 3.8716 0.0546
114.3290 3.8583 0.0608
114.3490 3.8449 0.0613
114.3690 3.8316 0.0560
114.3890 3.8182 0.0613
114.4090 3.8049 0.0555
114.4290 3.7915 0.0547
114.4490 3.7782 0.0591
114.4690 3.7649 0.0552
114.4890 3.7516 0.0521
114.5090 3.7383 0.0587
114.5290 3.7249 0.0514
114.5490 3.7116 0.0563
114.5690 3.6983 0.0574
114.5890 3.6850 0.0497
114.6090 3.6716 0.0561
114.6290 3.6583 0.0537
114.6490 3.6450 0.0460
114.6690 3.6316 0.0575
114.6890 3.6183 0.0520
114.7090 3.6049 0.0487
114.7290 3.5916 0.0542
114.7490 3.5783 0.0492
114.7690 3.5649 0.0446
114.7890 3.5516 0.0523
114.8090 3.5382 0.0546
114.8290 3.5249 0.0461
114.8490 3.5116 0.0484
114.8690 3.4982 0.0516
114.8890 3.4849 0.0471
114.9090 3.4716 0.0490
114.9290 3.4583 0.0473
114.9490 3.4450 0.0411
114.9690 3.4316 0.0483
114.9890 3.4182 0.0481
115.0090 3.4049 0.0423
115.0290 3.3916 0.0462
115.0490 3.3782 0.0450
115.0690 3.3649 0.0426
115.0890 3.3516 0.0409
115.1090 3.3383 0.0440
115.1290 3.3249 0.0383
115.1490 3.3116 0.0409
115.1690 3.2982 0.0476
115.1890 3.2849 0.0368
115.2090 3.2716 0.0398
115.2290 3.2583 0.0398
115.2490 3.2449 0.0398
115.2690 3.2316 0.0411
115.2890 3.2183 0.0356
115.3090 3.2050 0.0381
115.3290 3.1916 0.0376
115.3490 3.1783 0.0354
115.3690 3.1650 0.0367
115.3890 3.1517 0.0339
115.4090 3.1383 0.0351
115.4290 3.1249 0.0372
115.4490 3.1115 0.0346
115.4690 3.0982 0.0282
115.4890 3.0849 0.0354
115.5090 3.0715 0.0303
115.5290 3.0582 0.0316
115.5490 3.0449 0.0371
115.5690 3.0316 0.0218
115.5890 3.0183 0.0312
115.6090 3.0049 0.0336
115.6290 2.9916 0.0216
115.6490 2.9783 0.0323
115.6690 2.9650 0.0267
115.6890 2.9516 0.0235
115.7090 2.9383 0.0303
115.7290 2.9249 0.0263
115.7490 2.9116 0.0186
115.7690 2.8983 0.0284
115.7890 2.8849 0.0228
115.8090 2.8716 0.0220
115.8290 2.8583 0.0299
115.8490 2.8449 0.0187
115.8690 2.8316 0.0227
115.8890 2.8182 0.0286
115.9090 2.8049 0.0162
115.9290 2.7916 0.0255
115.9490 2.7783 0.0196
115.9690 2.7649 0.0155
115.9890 2.7516 0.0305
116.0090 2.7383 0.0159
116.0290 2.7250 0.0128
116.0490 2.7116 0.0227
116.0690 2.6982 0.0181
116.0890 2.6849 0.0068
116.1090 2.6716 0.0279
116.1290 2.6582 0.0136
116.1490 2.6449 0.0094
116.1690 2.6316 0.0238
116.1890 2.6183 0.0077
116.2090 2.6049 0.0141
116.2290 2.5916 0.0227
116.2490 2.5782 0.0109
116.2690 2.5649 0.0111
116.2890 2.5516 0.0176
116.3090 2.5383 0.0076
116.3290 2.5249 0.0111
116.3490 2.5116 0.0179
116.3690 2.4983 0.0027
116.3890 2.4850 0.0093
116.4090 2.4717 0.0125
116.4290 2.4583 0.0003
116.4490 2.4449 0.0114
116.4690 2.4316 0.0089
116.4890 2.4182 0.0015
116.5090 2.4049 0.0089
116.5290 2.3915 0.0121
116.5490 2.3782 0.0047
116.5690 2.3649 0.0050
116.5890 2.3516 0.0060
116.6090 2.3382 0.0002
116.6290 2.3249 0.0077
116.6490 2.3116 0.0049
116.6690 2.2982 0.0018
116.6890 2.2849 0.0063
116.7090 2.2716 0.0019
116.7290 2.2583 0.0069
116.7490 2.2450 0.0017
116.7690 2.2316 0.0014
116.7890 2.2182 0.0070
116.8090 2.2049 0.0029
116.8290 2.1916 0.0031
116.8490 2.1783 0.0026
116.8690 2.1649 0.0016
116.8890 2.1515 0.0052
116.9090 2.1382 0.0003
116.9290 2.1249 -0.0013
116.9490 2.1115 -0.0001
116.9690 2.0982 0.0049
116.9890 2.0849 -0.0016
117.0090 2.0716 0.0053
117.0290 2.0583 0.0020
117.0490 2.0449 -0.0044
117.0690 2.0316 0.0054
117.0890 2.0183 -0.0073
117.1090 2.0050 -0.0004
117.1290 1.9917 0.0088
117.1490 1.9783 -0.0084
117.1690 1.9650 0.0030
117.1890 1.9516 0.0057
117.2090 1.9383 -0.0049
117.2290 1.9249 0.0050
117.2490 1.9116 0.0028
117.2690 1.8983 -0.0092
117.2890 1.8850 0.0021
117.3090 1.8716 0.0051
117.3290 1.8581 -0.0112
117.3490 1.8448 0.0084
117.3690 1.8315 0.0013
117.3890 1.8183 -0.0132
117.4090 1.8049 0.0079
117.4290 1.7916 -0.0009
117.4490 1.7783 -0.0059
117.4690 1.7650 0.0085
117.4890 1.7516 -0.0048
117.5090 1.7383 -0.0070
117.5290 1.7250 0.0052
117.5490 1.7117 -0.0046
117.5690 1.6983 -0.0048
117.5890 1.6849 0.0071
117.6090 1.6715 -0.0061
117.6290 1.6582 -0.0015
117.6490 1.6449 0.0033
117.6690 1.6316 -0.0080
117.6890 1.6182 0.0016
117.7090 1.6049 0.0036
117.7290 1.5916 -0.0095
117.7490 1.5783 0.0056
117.7690 1.5649 -0.0012
117.7890 1.5516 -0.0081
117.8090 1.5383 0.0038
117.8290 1.5250 -0.0018
117.8490 1.5116 -0.0078
117.8690 1.4983 0.0036
117.8890 1.4849 0.0013
117.9090 1.4716 -0.0002
117.9290 1.4583 0.0002
117.9490 1.4449 -0.0015
117.9690 1.4315 -0.0004
117.9890 1.4182 -0.0019
118.0090 1.4049 -0.0029
118.0290 1.3916 0.0018
118.0490 1.3782 -0.0052
118.0690 1.3649 -0.0002
118.0890 1.3516 -0.0007
118.1090 1.3383 -0.0054
118.1290 1.3249 -0.0013
118.1490 1.3116 0.0028
118.1690 1.2983 -0.0049
118.1890 1.2850 -0.0027
118.2090 1.2716 0.0009
118.2290 1.2583 -0.0067
118.2490 1.2449 0.0001
118.2690 1.2316 -0.0020
118.2890 1.2183 -0.0073
118.3090 1.2049 0.0011
118.3290 1.1916 -0.0023
118.3490 1.1782 -0.0079
118.3690 1.1649 0.0055
118.3890 1.1516 -0.0055
118.4090 1.1382 -0.0059
118.4290 1.1249 0.0034
118.4490 1.1116 -0.0022
118.4690 1.0983 -0.0084
118.4890 1.0849 0.0020
118.5090 1.0716 -0.0038
118.5290 1.0583 -0.0044
118.5490 1.0450 0.0035
118.5690 1.0316 -0.0047
118.5890 1.0183 -0.0031
118.6090 1.0049 0.0022
118.6290 0.9916 -0.0064
118.6490 0.9783 -0.0055
118.6690 0.9650 0.0011
118.6890 0.9516 -0.0038
118.7090 0.9382 -0.0028
118.7290 0.9249 0.0025
118.7490 0.9116 -0.0029
118.7690 0.8982 -0.0065
118.7890 0.8849 0.0016
118.8090 0.8716 -0.0041
118.8290 0.8583 -0.0059
118.8490 0.8449 0.0020
118.8690 0.8316 -0.0045
118.8890 0.8183 -0.0054
118.9090 0.8050 0.0029
118.9290 0.7917 -0.0050
118.9490 0.7783 -0.0045
118.9690 0.7649 0.0030
118.9890 0.7516 -0.0022
119.0090 0.7383 -0.0072
119.0290 0.7249 0.0018
119.0490 0.7115 -0.0049
119.0690 0.6982 -0.0077
119.0890 0.6849 0.0024
119.1090 0.6716 -0.0050
119.1290 0.6582 -0.0087
119.1490 0.6449 0.0053
119.1690 0.6316 -0.0053
119.1890 0.6182 -0.0054
119.2090 0.6049 0.0053
119.2290 0.5916 0.0011
119.2490 0.5783 -0.0079
119.2690 0.5650 0.0053
119.2890 0.5517 -0.0034
119.3090 0.5383 -0.0047
119.3290 0.5249 0.0085
119.3490 0.5116 -0.0078
119.3690 0.4983 -0.0024
119.3890 0.4849 0.0076
119.4090 0.4715 -0.0095
119.4290 0.4582 -0.0005
119.4490 0.4449 0.0045
119.4690 0.4316 -0.0042
119.4890 0.4182 0.0042
119.5090 0.4049 0.0022
119.5290 0.3916 -0.0070
119.5490 0.3783 0.0033
119.5690 0.3649 0.0056
119.5890 0.3516 -0.0068
119.6090 0.3383 -0.0013
119.6290 0.3250 0.0035
119.6490 0.3116 -0.0042
119.6690 0.2983 0.0003
119.6890 0.2849 0.0093
119.7090 0.2716 -0.0045
119.7290 0.2583 -0.0053
119.7490 0.2449 0.0042
119.7690 0.2316 -0.0035
119.7890 0.2182 -0.0066
119.8090 0.2049 0.0108
119.8290 0.1916 -0.0038
119.8490 0.1782 -0.0091
119.8690 0.1649 0.0092
119.8890 0.1516 -0.0034
119.9090 0.1383 -0.0067
119.9290 0.1250 0.0131
119.9490 0.1116 -0.0065
119.9690 0.0983 -0.0040
119.9890 0.0850 0.0069
120.0090 0.0716 -0.0074
120.0290 0.0583 -0.0032
120.0490 0.0449 0.0106
120.0690 0.0316 -0.0084
120.0890 0.0183 -0.0037
120.1090 0.0049 0.0147
120.1170 -0.0003 0.0265
