Raw Data
Time Displacement Force
(s) (mm) (N)
0.0000 0.0000 0.0025
0.0200 0.0001 0.0107
0.0400 0.0020 0.0783
0.0600 0.0095 0.0759
0.0800 0.0212 -0.0136
0.1000 0.0336 -0.0047
0.1200 0.0463 0.0262
0.1400 0.0597 0.0013
0.1600 0.0738 0.0029
0.1800 0.0880 0.0059
0.2000 0.1020 -0.0057
0.2200 0.1156 -0.0035
0.2400 0.1289 0.0040
0.2600 0.1422 0.0017
0.2800 0.1555 0.0074
0.3000 0.1688 0.0064
0.3200 0.1822 -0.0051
0.3400 0.1956 0.0085
0.3600 0.2089 0.0022
0.3800 0.2223 0.0004
0.4000 0.2357 0.0047
0.4200 0.2490 0.0026
0.4400 0.2623 0.0062
0.4600 0.2757 0.0004
0.4800 0.2890 0.0098
0.5000 0.3023 0.0042
0.5200 0.3156 0.0034
0.5400 0.3290 0.0085
0.5600 0.3423 0.0021
0.5800 0.3556 0.0053
0.6000 0.3690 0.0076
0.6200 0.3823 0.0039
0.6400 0.3956 0.0059
0.6600 0.4090 0.0051
0.6800 0.4223 0.0052
0.7000 0.4356 0.0128
0.7200 0.4489 0.0058
0.7400 0.4623 0.0002
0.7600 0.4757 0.0138
0.7800 0.4890 0.0021
0.8000 0.5023 0.0027
0.8200 0.5157 0.0140
0.8400 0.5291 0.0024
0.8600 0.5424 0.0044
0.8800 0.5557 0.0176
0.9000 0.5690 0.0059
0.9200 0.5823 0.0126
0.9400 0.5956 0.0062
0.9600 0.6089 0.0031
0.9800 0.6222 0.0114
1.0000 0.6355 0.0112
1.0200 0.6489 0.0046
1.0400 0.6622 0.0107
1.0600 0.6756 0.0077
1.0800 0.6890 0.0069
1.1000 0.7024 0.0111
1.1200 0.7157 0.0063
1.1400 0.7290 0.0075
1.1600 0.7423 0.0130
1.1800 0.7557 0.0079
1.2000 0.7690 0.0103
1.2200 0.7824 0.0114
1.2400 0.7957 0.0077
1.2600 0.8090 0.0161
1.2800 0.8223 0.0086
1.3000 0.8357 0.0120
1.3200 0.8490 0.0153
1.3400 0.8623 0.0084
1.3600 0.8756 0.0115
1.3800 0.8889 0.0159
1.4000 0.9023 0.0083
1.4200 0.9156 0.0103
1.4400 0.9289 0.0189
1.4600 0.9423 0.0064
1.4800 0.9557 0.0099
1.5000 0.9690 0.0131
1.5200 0.9824 0.0069
1.5400 0.9957 0.0184
1.5600 1.0090 0.0141
1.5800 1.0223 0.0061
1.6000 1.0356 0.0191
1.6200 1.0489 0.0153
1.6400 1.0622 0.0083
1.6600 1.0756 0.0180
1.6800 1.0889 0.0123
1.7000 1.1023 0.0074
1.7200 1.1156 0.0216
1.7400 1.1290 0.0133
1.7600 1.1424 0.0072
1.7800 1.1557 0.0236
1.8000 1.1690 0.0117
1.8200 1.1823 0.0161
1.8400 1.1957 0.0205
1.8600 1.2090 0.0080
1.8800 1.2223 0.0169
1.9000 1.2356 0.0216
1.9200 1.2490 0.0146
1.9400 1.2623 0.0220
1.9600 1.2757 0.0217
1.9800 1.2890 0.0147
2.0000 1.3023 0.0212
2.0200 1.3157 0.0260
2.0400 1.3290 0.0171
2.0600 1.3423 0.0275
2.0800 1.3556 0.0227
2.1000 1.3689 0.0189
2.1200 1.3823 0.0286
2.1400 1.3956 0.0206
2.1600 1.4089 0.0258
2.1800 1.4223 0.0297
2.2000 1.4357 0.0256
2.2200 1.4490 0.0294
2.2400 1.4623 0.0299
2.2600 1.4757 0.0333
2.2800 1.4890 0.0368
2.3000 1.5024 0.0345
2.3200 1.5157 0.0371
2.3400 1.5290 0.0374
2.3600 1.5424 0.0377
2.3800 1.5557 0.0417
2.4000 1.5690 0.0440
2.4200 1.5823 0.0422
2.4400 1.5956 0.0494
2.4600 1.6089 0.0500
2.4800 1.6223 0.0456
2.5000 1.6356 0.0543
2.5200 1.6489 0.0569
2.5400 1.6623 0.0515
2.5600 1.6757 0.0568
2.5800 1.6890 0.0595
2.6000 1.7024 0.0578
2.6200 1.7157 0.0639
2.6400 1.7291 0.0612
2.6600 1.7424 0.0579
2.6800 1.7557 0.0721
2.7000 1.7690 0.0623
2.7200 1.7823 0.0659
2.7400 1.7956 0.0803
2.7600 1.8090 0.0635
2.7800 1.8223 0.0758
2.8000 1.8356 0.0822
2.8200 1.8489 0.0700
2.8400 1.8623 0.0770
2.8600 1.8756 0.0828
2.8800 1.8889 0.0758
2.9000 1.9023 0.0855
2.9200 1.9157 0.0884
2.9400 1.9290 0.0791
2.9600 1.9423 0.0908
2.9800 1.9557 0.0861
3.0000 1.9690 0.0855
3.0200 1.9824 0.0966
3.0400 1.9957 0.0878
3.0600 2.0090 0.0924
3.0800 2.0223 0.0985
3.1000 2.0357 0.0954
3.1200 2.0490 0.0956
3.1400 2.0623 0.1036
3.1600 2.0756 0.0981
3.1800 2.0889 0.1059
3.2000 2.1023 0.1057
3.2200 2.1156 0.1031
3.2400 2.1290 0.1073
3.2600 2.1423 0.1113
3.2800 2.1557 0.1050
3.3000 2.1690 0.1103
3.3200 2.1824 0.1167
3.3400 2.1957 0.1153
3.3600 2.2090 0.1110
3.3800 2.2224 0.1214
3.4000 2.2357 0.1144
3.4200 2.2490 0.1182
3.4400 2.2623 0.1254
3.4600 2.2756 0.1159
3.4800 2.2890 0.1233
3.5000 2.3023 0.1258
3.5200 2.3156 0.1220
3.5400 2.3289 0.1278
3.5600 2.3423 0.1252
3.5800 2.3556 0.1274
3.6000 2.3689 0.1338
3.6200 2.3823 0.1287
3.6400 2.3957 0.1311
3.6600 2.4091 0.1353
3.6800 2.4224 0.1296
3.7000 2.4357 0.1371
3.7200 2.4490 0.1426
3.7400 2.4624 0.1332
3.7600 2.4757 0.1396
3.7800 2.4890 0.1410
3.8000 2.5023 0.1400
3.8200 2.5156 0.1483
3.8400 2.5290 0.1403
3.8600 2.5423 0.1426
3.8800 2.5556 0.1514
3.9000 2.5689 0.1375
3.9200 2.5823 0.1507
3.9400 2.5956 0.1513
3.9600 2.6090 0.1446
3.9800 2.6223 0.1523
4.0000 2.6356 0.1511
4.0200 2.6490 0.1483
4.0400 2.6623 0.1576
4.0600 2.6756 0.1580
4.0800 2.6890 0.1495
4.1000 2.7024 0.1582
4.1200 2.7157 0.1591
4.1400 2.7290 0.1555
4.1600 2.7424 0.1649
4.1800 2.7557 0.1556
4.2000 2.7690 0.1608
4.2200 2.7823 0.1657
4.2400 2.7956 0.1616
4.2600 2.8089 0.1628
4.2800 2.8222 0.1697
4.3000 2.8356 0.1629
4.3200 2.8489 0.1673
4.3400 2.8622 0.1731
4.3600 2.8757 0.1650
4.3800 2.8891 0.1691
4.4000 2.9024 0.1747
4.4200 2.9157 0.1671
4.4400 2.9291 0.1720
4.4600 2.9424 0.1772
4.4800 2.9557 0.1677
4.5000 2.9690 0.1781
4.5200 2.9823 0.1817
4.5400 2.9956 0.1737
4.5600 3.0090 0.1802
4.5800 3.0223 0.1813
4.6000 3.0355 0.1739
4.6200 3.0489 0.1853
4.6400 3.0622 0.1813
4.6600 3.0756 0.1815
4.6800 3.0889 0.1849
4.7000 3.1023 0.1830
4.7200 3.1157 0.1859
4.7400 3.1291 0.1864
4.7600 3.1424 0.1866
4.7800 3.1557 0.1873
4.8000 3.1691 0.1906
4.8200 3.1824 0.1926
4.8400 3.1957 0.1869
4.8600 3.2090 0.1957
4.8800 3.2223 0.1942
4.9000 3.2356 0.1944
4.9200 3.2489 0.1990
4.9400 3.2622 0.1964
4.9600 3.2756 0.1991
4.9800 3.2889 0.1989
5.0000 3.3023 0.1971
5.0200 3.3156 0.2009
5.0400 3.3290 0.2034
5.0600 3.3423 0.2021
5.0800 3.3557 0.1974
5.1000 3.3690 0.2061
5.1200 3.3823 0.2034
5.1400 3.3957 0.2048
5.1600 3.4090 0.2124
5.1800 3.4224 0.1989
5.2000 3.4357 0.2060
5.2200 3.4490 0.2167
5.2400 3.4623 0.2092
5.2600 3.4757 0.2082
5.2800 3.4890 0.2202
5.3000 3.5023 0.2070
5.3200 3.5156 0.2090
5.3400 3.5289 0.2205
5.3600 3.5423 0.2062
5.3800 3.5556 0.2148
5.4000 3.5690 0.2232
5.4200 3.5823 0.2096
5.4400 3.5957 0.2195
5.4600 3.6091 0.2216
5.4800 3.6224 0.2140
5.5000 3.6357 0.2195
5.5200 3.6490 0.2256
5.5400 3.6624 0.2169
5.5600 3.6757 0.2214
5.5800 3.6890 0.2257
5.6000 3.7023 0.2233
5.6200 3.7156 0.2250
5.6400 3.7290 0.2294
5.6600 3.7423 0.2199
5.6800 3.7556 0.2277
5.7000 3.7689 0.2310
5.7200 3.7823 0.2228
5.7400 3.7956 0.2283
5.7600 3.8089 0.2354
5.7800 3.8223 0.2260
5.8000 3.8356 0.2307
5.8200 3.8490 0.2360
5.8400 3.8623 0.2280
5.8600 3.8757 0.2373
5.8800 3.8890 0.2352
5.9000 3.9024 0.2277
5.9200 3.9157 0.2391
5.9400 3.9290 0.2420
5.9600 3.9423 0.2304
5.9800 3.9556 0.2421
6.0000 3.9690 0.2447
6.0200 3.9823 0.2366
6.0400 3.9956 0.2392
6.0600 4.0089 0.2439
6.0800 4.0223 0.2365
6.1000 4.0356 0.2437
6.1200 4.0489 0.2455
6.1400 4.0623 0.2417
6.1600 4.0756 0.2460
6.1800 4.0890 0.2474
6.2000 4.1024 0.2403
6.2200 4.1157 0.2480
6.2400 4.1290 0.2495
6.2600 4.1424 0.2469
6.2800 4.1557 0.2466
6.3000 4.1690 0.2526
6.3200 4.1823 0.2527
6.3400 4.1957 0.2528
6.3600 4.2090 0.2534
6.3800 4.2223 0.2542
6.4000 4.2356 0.2509
6.4200 4.2489 0.2583
6.4400 4.2622 0.2560
6.4600 4.2756 0.2528
6.4800 4.2889 0.2603
6.5000 4.3023 0.2567
6.5200 4.3157 0.2521
6.5400 4.3291 0.2671
6.5600 4.3424 0.2582
6.5800 4.3557 0.2564
6.6000 4.3691 0.2664
6.6200 4.3824 0.2610
6.6400 4.3957 0.2583
6.6600 4.4090 0.2709
6.6800 4.4223 0.2616
6.7000 4.4356 0.2628
6.7200 4.4489 0.2724
6.7400 4.4622 0.2640
6.7600 4.4756 0.2662
6.7800 4.4889 0.2756
6.8000 4.5023 0.2663
6.8200 4.5156 0.2651
6.8400 4.5290 0.2780
6.8600 4.5423 0.2680
6.8800 4.5557 0.2684
6.9000 4.5690 0.2798
6.9200 4.5824 0.2685
6.9400 4.5957 0.2694
6.9600 4.6090 0.2770
6.9800 4.6223 0.2729
7.0000 4.6357 0.2744
7.0200 4.6490 0.2813
7.0400 4.6623 0.2781
7.0600 4.6756 0.2736
7.0800 4.6890 0.2842
7.1000 4.7023 0.2759
7.1200 4.7156 0.2817
7.1400 4.7289 0.2815
7.1600 4.7423 0.2814
7.1800 4.7557 0.2788
7.2000 4.7690 0.2889
7.2200 4.7823 0.2816
7.2400 4.7957 0.2780
7.2600 4.8090 0.2935
7.2800 4.8224 0.2783
7.3000 4.8357 0.2800
7.3200 4.8490 0.2976
7.3400 4.8623 0.2804
7.3600 4.8757 0.2840
7.3800 4.8890 0.2961
7.4000 4.9023 0.2864
7.4200 4.9156 0.2925
7.4400 4.9290 0.2938
7.4600 4.9423 0.2819
7.4800 4.9556 0.2950
7.5000 4.9689 0.2955
7.5200 4.9823 0.2809
7.5400 4.9956 0.2950
7.5600 5.0089 0.2977
7.5800 5.0223 0.2884
7.6000 5.0356 0.2974
7.6200 5.0490 0.2962
7.6400 5.0624 0.2944
7.6600 5.0757 0.2965
7.6800 5.0890 0.2962
7.7000 5.1024 0.2956
7.7200 5.1157 0.2973
7.7400 5.1290 0.3023
7.7600 5.1423 0.2966
7.7800 5.1556 0.3027
7.8000 5.1690 0.3028
7.8200 5.1823 0.3001
7.8400 5.1956 0.3040
7.8600 5.2089 0.3050
7.8800 5.2223 0.2982
7.9000 5.2356 0.3078
7.9200 5.2490 0.3022
7.9400 5.2623 0.3003
7.9600 5.2756 0.3116
7.9800 5.2890 0.3052
8.0000 5.3024 0.3023
8.0200 5.3157 0.3118
8.0400 5.3290 0.3085
8.0600 5.3424 0.3042
8.0800 5.3557 0.3126
8.1000 5.3690 0.3083
8.1200 5.3823 0.3068
8.1400 5.3956 0.3189
8.1600 5.4090 0.3074
8.1800 5.4223 0.3062
8.2000 5.4356 0.3210
8.2200 5.4489 0.3083
8.2400 5.4622 0.3105
8.2600 5.4756 0.3168
8.2800 5.4889 0.3112
8.3000 5.5023 0.3155
8.3200 5.5157 0.3183
8.3400 5.5290 0.3121
8.3600 5.5424 0.3146
8.3800 5.5557 0.3174
8.4000 5.5690 0.3171
8.4200 5.5824 0.3176
8.4400 5.5957 0.3208
8.4600 5.6090 0.3166
8.4800 5.6223 0.3188
8.5000 5.6356 0.3230
8.5200 5.6490 0.3165
8.5400 5.6623 0.3208
8.5600 5.6756 0.3214
8.5800 5.6889 0.3181
8.6000 5.7022 0.3229
8.6200 5.7156 0.3191
8.6400 5.7289 0.3202
8.6600 5.7423 0.3224
8.6800 5.7556 0.3257
8.7000 5.7690 0.3194
8.7200 5.7824 0.3251
8.7400 5.7957 0.3244
8.7600 5.8090 0.3217
8.7800 5.8224 0.3317
8.8000 5.8357 0.3233
8.8200 5.8490 0.3235
8.8400 5.8623 0.3307
8.8600 5.8756 0.3269
8.8800 5.8889 0.3271
8.9000 5.9023 0.3318
8.9200 5.9156 0.3268
8.9400 5.9289 0.3269
8.9600 5.9423 0.3293
8.9800 5.9557 0.3304
9.0000 5.9690 0.3250
9.0200 5.9823 0.3342
9.0400 5.9957 0.3344
9.0600 6.0090 0.3280
9.0800 6.0224 0.3369
9.1000 6.0357 0.3309
9.1200 6.0490 0.3304
9.1400 6.0623 0.3363
9.1600 6.0757 0.3321
9.1800 6.0890 0.3335
9.2000 6.1023 0.3392
9.2200 6.1157 0.3358
9.2400 6.1290 0.3322
9.2600 6.1424 0.3419
9.2800 6.1557 0.3363
9.3000 6.1690 0.3382
9.3200 6.1823 0.3363
9.3400 6.1956 0.3383
9.3600 6.2090 0.3346
9.3800 6.2223 0.3411
9.4000 6.2356 0.3437
9.4200 6.2490 0.3372
9.4400 6.2623 0.3393
9.4600 6.2757 0.3426
9.4800 6.2890 0.3379
9.5000 6.3023 0.3435
9.5200 6.3157 0.3457
9.5400 6.3290 0.3403
9.5600 6.3423 0.3387
9.5800 6.3557 0.3508
9.6000 6.3690 0.3382
9.6200 6.3823 0.3415
9.6400 6.3956 0.3526
9.6600 6.4089 0.3353
9.6800 6.4222 0.3482
9.7000 6.4356 0.3514
9.7200 6.4489 0.3446
9.7400 6.4623 0.3488
9.7600 6.4756 0.3512
9.7800 6.4890 0.3443
9.8000 6.5024 0.3485
9.8200 6.5157 0.3532
9.8400 6.5290 0.3434
9.8600 6.5424 0.3545
9.8800 6.5557 0.3510
9.9000 6.5691 0.3462
9.9200 6.5823 0.3568
9.9400 6.5956 0.3493
9.9600 6.6090 0.3513
9.9800 6.6223 0.3555
10.0000 6.6356 0.3504
10.0200 6.6489 0.3535
10.0400 6.6623 0.3596
10.0600 6.6756 0.3516
10.0800 6.6890 0.3534
10.1000 6.7023 0.3605
10.1200 6.7156 0.3509
10.1400 6.7290 0.3555
10.1600 6.7423 0.3632
10.1800 6.7557 0.3486
10.2000 6.7690 0.3588
10.2200 6.7824 0.3630
10.2400 6.7957 0.3543
10.2600 6.8091 0.3598
10.2800 6.8223 0.3608
10.3000 6.8356 0.3540
10.3200 6.8490 0.3643
10.3400 6.8623 0.3614
10.3600 6.8756 0.3575
10.3800 6.8889 0.3657
10.4000 6.9023 0.3618
10.4200 6.9156 0.3580
10.4400 6.9289 0.3673
10.4600 6.9423 0.3630
10.4800 6.9556 0.3623
10.5000 6.9690 0.3702
10.5200 6.9824 0.3592
10.5400 6.9957 0.3595
10.5600 7.0090 0.3678
10.5800 7.0223 0.3656
10.6000 7.0357 0.3648
10.6200 7.0490 0.3706
10.6400 7.0623 0.3664
10.6600 7.0756 0.3663
10.6800 7.0890 0.3744
10.7000 7.1023 0.3681
10.7200 7.1157 0.3670
10.7400 7.1290 0.3732
10.7600 7.1423 0.3666
10.7800 7.1556 0.3686
10.8000 7.1690 0.3712
10.8200 7.1823 0.3701
10.8400 7.1956 0.3740
10.8600 7.2090 0.3709
10.8800 7.2224 0.3691
10.9000 7.2357 0.3754
10.9200 7.2490 0.3711
10.9400 7.2623 0.3753
10.9600 7.2757 0.3735
10.9800 7.2890 0.3713
11.0000 7.3023 0.3784
11.0200 7.3156 0.3756
11.0400 7.3289 0.3756
11.0600 7.3423 0.3779
11.0800 7.3556 0.3698
11.1000 7.3689 0.3829
11.1200 7.3823 0.3813
11.1400 7.3956 0.3683
11.1600 7.4090 0.3805
11.1800 7.4223 0.3821
11.2000 7.4356 0.3755
11.2200 7.4490 0.3821
11.2400 7.4623 0.3823
11.2600 7.4756 0.3741
11.2800 7.4889 0.3808
11.3000 7.5023 0.3804
11.3200 7.5156 0.3782
11.3400 7.5290 0.3845
11.3600 7.5423 0.3802
11.3800 7.5557 0.3796
11.4000 7.5690 0.3831
11.4200 7.5824 0.3814
11.4400 7.5957 0.3870
11.4600 7.6090 0.3789
11.4800 7.6223 0.3836
11.5000 7.6356 0.3862
11.5200 7.6489 0.3819
11.5400 7.6622 0.3881
11.5600 7.6756 0.3874
11.5800 7.6890 0.3833
11.6000 7.7024 0.3830
11.6200 7.7157 0.3846
11.6400 7.7291 0.3854
11.6600 7.7424 0.3870
11.6800 7.7557 0.3888
11.7000 7.7691 0.3875
11.7200 7.7824 0.3842
11.7400 7.7957 0.3857
11.7600 7.8090 0.3940
11.7800 7.8223 0.3856
11.8000 7.8356 0.3849
11.8200 7.8489 0.3919
11.8400 7.8622 0.3899
11.8600 7.8756 0.3873
11.8800 7.8889 0.3902
11.9000 7.9023 0.3896
11.9200 7.9156 0.3872
11.9400 7.9290 0.3894
11.9600 7.9424 0.3895
11.9800 7.9557 0.3917
12.0000 7.9690 0.3926
12.0200 7.9824 0.3902
12.0400 7.9957 0.3884
12.0600 8.0090 0.3924
12.0800 8.0223 0.3909
12.1000 8.0356 0.3898
12.1200 8.0489 0.3957
12.1400 8.0623 0.3943
12.1600 8.0756 0.3876
12.1800 8.0889 0.3968
12.2000 8.1022 0.3946
12.2200 8.1156 0.3883
12.2400 8.1290 0.3994
12.2600 8.1423 0.3913
12.2800 8.1556 0.3900
12.3000 8.1690 0.4027
12.3200 8.1824 0.3897
12.3400 8.1957 0.3897
12.3600 8.2090 0.3966
12.3800 8.2223 0.3996
12.4000 8.2357 0.3952
12.4200 8.2490 0.4007
12.4400 8.2624 0.3967
12.4600 8.2757 0.3917
12.4800 8.2890 0.4018
12.5000 8.3023 0.4009
12.5200 8.3156 0.3978
12.5400 8.3289 0.4024
12.5600 8.3422 0.3977
12.5800 8.3556 0.3992
12.6000 8.3690 0.3981
12.6200 8.3823 0.4037
12.6400 8.3956 0.4013
12.6600 8.4090 0.4028
12.6800 8.4224 0.4007
12.7000 8.4357 0.3978
12.7200 8.4490 0.4034
12.7400 8.4623 0.4031
12.7600 8.4757 0.4026
12.7800 8.4890 0.4014
12.8000 8.5023 0.4033
12.8200 8.5156 0.4050
12.8400 8.5289 0.4014
12.8600 8.5423 0.4060
12.8800 8.5556 0.3998
12.9000 8.5689 0.4004
12.9200 8.5823 0.4049
12.9400 8.5956 0.4055
12.9600 8.6090 0.4036
12.9800 8.6223 0.4058
13.0000 8.6356 0.4074
13.0200 8.6490 0.4013
13.0400 8.6623 0.4067
13.0600 8.6757 0.4039
13.0800 8.6890 0.4015
13.1000 8.7023 0.4107
13.1200 8.7157 0.4016
13.1400 8.7291 0.4008
13.1600 8.7424 0.4069
13.1800 8.7557 0.4003
13.2000 8.7690 0.4108
13.2200 8.7823 0.4069
13.2400 8.7956 0.3995
13.2600 8.8090 0.4078
13.2800 8.8223 0.4079
13.3000 8.8356 0.4023
13.3200 8.8490 0.4078
13.3400 8.8623 0.4078
13.3600 8.8756 0.4029
13.3800 8.8890 0.4119
13.4000 8.9024 0.4119
13.4200 8.9157 0.4017
13.4400 8.9290 0.4124
13.4600 8.9423 0.4080
13.4800 8.9557 0.4060
13.5000 8.9690 0.4138
13.5200 8.9824 0.4102
13.5400 8.9957 0.4067
13.5600 9.0090 0.4110
13.5800 9.0223 0.4125
13.6000 9.0357 0.4094
13.6200 9.0489 0.4153
13.6400 9.0622 0.4118
13.6600 9.0756 0.4116
13.6800 9.0889 0.4154
13.7000 9.1022 0.4139
13.7200 9.1156 0.4121
13.7400 9.1289 0.4164
13.7600 9.1423 0.4185
13.7800 9.1557 0.4093
13.8000 9.1691 0.4192
13.8200 9.1824 0.4166
13.8400 9.1957 0.4139
13.8600 9.2091 0.4201
13.8800 9.2224 0.4155
13.9000 9.2356 0.4176
13.9200 9.2489 0.4224
13.9400 9.2623 0.4228
13.9600 9.2756 0.4133
13.9800 9.2889 0.4253
14.0000 9.3022 0.4185
14.0200 9.3156 0.4198
14.0400 9.3290 0.4254
14.0600 9.3423 0.4201
14.0800 9.3557 0.4197
14.1000 9.3690 0.4236
14.1200 9.3824 0.4229
14.1400 9.3957 0.4225
14.1600 9.4090 0.4214
14.1800 9.4223 0.4221
14.2000 9.4357 0.4246
14.2200 9.4490 0.4267
14.2400 9.4623 0.4202
14.2600 9.4756 0.4269
14.2800 9.4889 0.4283
14.3000 9.5023 0.4235
14.3200 9.5156 0.4248
14.3400 9.5290 0.4257
14.3600 9.5423 0.4269
14.3800 9.5556 0.4287
14.4000 9.5690 0.4304
14.4200 9.5823 0.4243
14.4400 9.5956 0.4290
14.4600 9.6090 0.4293
14.4800 9.6224 0.4263
14.5000 9.6357 0.4283
14.5200 9.6490 0.4285
14.5400 9.6623 0.4278
14.5600 9.6756 0.4291
14.5800 9.6890 0.4336
14.6000 9.7023 0.4296
14.6200 9.7157 0.4274
14.6400 9.7290 0.4361
14.6600 9.7423 0.4316
14.6800 9.7557 0.4306
14.7000 9.7690 0.4341
14.7200 9.7823 0.4350
14.7400 9.7956 0.4316
14.7600 9.8089 0.4353
14.7800 9.8223 0.4357
14.8000 9.8356 0.4351
14.8200 9.8490 0.4358
14.8400 9.8623 0.4328
14.8600 9.8757 0.4371
14.8800 9.8890 0.4385
14.9000 9.9024 0.4327
14.9200 9.9157 0.4392
14.9400 9.9290 0.4372
14.9600 9.9423 0.4370
14.9800 9.9556 0.4402
15.0000 9.9689 0.4392
15.0200 9.9823 0.4381
15.0400 9.9957 0.4399
15.0600 10.0090 0.4361
15.0800 10.0223 0.4374
15.1000 10.0356 0.4417
15.1200 10.0490 0.4428
15.1400 10.0623 0.4394
15.1600 10.0756 0.4420
15.1800 10.0889 0.4442
15.2000 10.1023 0.4395
15.2200 10.1157 0.4404
15.2400 10.1290 0.4404
15.2600 10.1423 0.4411
15.2800 10.1557 0.4416
15.3000 10.1690 0.4439
15.3200 10.1824 0.4407
15.3400 10.1957 0.4394
15.3600 10.2090 0.4465
15.3800 10.2223 0.4423
15.4000 10.2357 0.4413
15.4200 10.2490 0.4481
15.4400 10.2623 0.4442
15.4600 10.2756 0.4480
15.4800 10.2889 0.4447
15.5000 10.3023 0.4478
15.5200 10.3156 0.4465
15.5400 10.3290 0.4458
15.5600 10.3424 0.4485
15.5800 10.3557 0.4481
15.6000 10.3691 0.4433
15.6200 10.3824 0.4486
15.6400 10.3957 0.4472
15.6600 10.4090 0.4455
15.6800 10.4224 0.4472
15.7000 10.4357 0.4412
15.7200 10.4490 0.4475
15.7400 10.4623 0.4553
15.7600 10.4757 0.4402
15.7800 10.4890 0.4461
15.8000 10.5023 0.4534
15.8200 10.5156 0.4425
15.8400 10.5289 0.4479
15.8600 10.5423 0.4540
15.8800 10.5556 0.4417
15.9000 10.5690 0.4491
15.9200 10.5823 0.4519
15.9400 10.5957 0.4397
15.9600 10.6091 0.4494
15.9800 10.6224 0.4525
16.0000 10.6357 0.4430
16.0200 10.6490 0.4493
16.0400 10.6624 0.4492
16.0600 10.6756 0.4452
16.0800 10.6889 0.4532
16.1000 10.7023 0.4481
16.1200 10.7156 0.4478
16.1400 10.7289 0.4529
16.1600 10.7423 0.4466
16.1800 10.7556 0.4493
16.2000 10.7690 0.4569
16.2200 10.7824 0.4450
16.2400 10.7957 0.4469
16.2600 10.8090 0.4527
16.2800 10.8223 0.4501
16.3000 10.8357 0.4526
16.3200 10.8490 0.4535
16.3400 10.8623 0.4512
16.3600 10.8756 0.4510
16.3800 10.8890 0.4531
16.4000 10.9023 0.4513
16.4200 10.9157 0.4523
16.4400 10.9290 0.4593
16.4600 10.9423 0.4500
16.4800 10.9557 0.4551
16.5000 10.9690 0.4600
16.5200 10.9823 0.4456
16.5400 10.9956 0.4571
16.5600 11.0090 0.4620
16.5800 11.0223 0.4448
16.6000 11.0356 0.4579
16.6200 11.0489 0.4601
16.6400 11.0623 0.4525
16.6600 11.0756 0.4630
16.6800 11.0890 0.4584
16.7000 11.1023 0.4520
16.7200 11.1157 0.4645
16.7400 11.1290 0.4576
16.7600 11.1424 0.4519
16.7800 11.1557 0.4669
16.8000 11.1690 0.4565
16.8200 11.1823 0.4544
16.8400 11.1957 0.4649
16.8600 11.2090 0.4527
16.8800 11.2223 0.4619
16.9000 11.2356 0.4679
16.9200 11.2489 0.4570
16.9400 11.2623 0.4628
16.9600 11.2756 0.4622
16.9800 11.2889 0.4593
17.0000 11.3023 0.4629
17.0200 11.3157 0.4652
17.0400 11.3290 0.4595
17.0600 11.3424 0.4638
17.0800 11.3557 0.4613
17.1000 11.3690 0.4703
17.1200 11.3824 0.4646
17.1400 11.3957 0.4628
17.1600 11.4090 0.4676
17.1800 11.4223 0.4594
17.2000 11.4356 0.4688
17.2200 11.4490 0.4663
17.2400 11.4623 0.4590
17.2600 11.4756 0.4754
17.2800 11.4889 0.4691
17.3000 11.5023 0.4602
17.3200 11.5157 0.4715
17.3400 11.5290 0.4685
17.3600 11.5423 0.4602
17.3800 11.5557 0.4739
17.4000 11.5690 0.4665
17.4200 11.5824 0.4640
17.4400 11.5957 0.4754
17.4600 11.6090 0.4650
17.4800 11.6224 0.4682
17.5000 11.6357 0.4756
17.5200 11.6490 0.4681
17.5400 11.6623 0.4664
17.5600 11.6757 0.4757
17.5800 11.6890 0.4698
17.6000 11.7023 0.4682
17.6200 11.7156 0.4780
17.6400 11.7289 0.4737
17.6600 11.7422 0.4700
17.6800 11.7556 0.4756
17.7000 11.7689 0.4706
17.7200 11.7823 0.4753
17.7400 11.7957 0.4722
17.7600 11.8091 0.4723
17.7800 11.8224 0.4725
17.8000 11.8357 0.4720
17.8200 11.8490 0.4739
17.8400 11.8624 0.4704
17.8600 11.8757 0.4773
17.8800 11.8890 0.4757
17.9000 11.9023 0.4744
17.9200 11.9156 0.4802
17.9400 11.9290 0.4769
17.9600 11.9423 0.4763
17.9800 11.9556 0.4760
18.0000 11.9689 0.4771
18.0200 11.9823 0.4796
18.0400 11.9956 0.4771
18.0600 12.0089 0.4797
18.0800 12.0223 0.4812
18.1000 12.0357 0.4759
18.1200 12.0490 0.4778
18.1400 12.0624 0.4811
18.1600 12.0757 0.4792
18.1800 12.0890 0.4851
18.2000 12.1024 0.4802
18.2200 12.1157 0.4766
18.2400 12.1290 0.4851
18.2600 12.1423 0.4812
18.2800 12.1556 0.4761
18.3000 12.1690 0.4875
18.3200 12.1823 0.4761
18.3400 12.1956 0.4853
18.3600 12.2089 0.4884
18.3800 12.2223 0.4781
18.4000 12.2356 0.4853
18.4200 12.2490 0.4885
18.4400 12.2623 0.4805
18.4600 12.2757 0.4887
18.4800 12.2890 0.4896
18.5000 12.3023 0.4809
18.5200 12.3156 0.4827
18.5400 12.3290 0.4895
18.5600 12.3423 0.4856
18.5800 12.3557 0.4891
18.6000 12.3690 0.4881
18.6200 12.3823 0.4870
18.6400 12.3957 0.4866
18.6600 12.4090 0.4902
18.6800 12.4223 0.4839
18.7000 12.4356 0.4923
18.7200 12.4489 0.4883
18.7400 12.4623 0.4867
18.7600 12.4756 0.4907
18.7800 12.4889 0.4859
18.8000 12.5022 0.4939
18.8200 12.5156 0.4937
18.8400 12.5290 0.4857
18.8600 12.5424 0.4899
18.8800 12.5557 0.4906
18.9000 12.5690 0.4910
18.9200 12.5824 0.4913
18.9400 12.5957 0.4924
18.9600 12.6090 0.4937
18.9800 12.6223 0.4898
19.0000 12.6356 0.4949
19.0200 12.6490 0.4954
19.0400 12.6623 0.4890
19.0600 12.6756 0.4942
19.0800 12.6889 0.4974
19.1000 12.7023 0.4879
19.1200 12.7156 0.4963
19.1400 12.7289 0.4964
19.1600 12.7423 0.4963
19.1800 12.7557 0.4929
19.2000 12.7690 0.4957
19.2200 12.7824 0.4950
19.2400 12.7957 0.4946
19.2600 12.8090 0.5006
19.2800 12.8224 0.4939
19.3000 12.8357 0.4927
19.3200 12.8490 0.5013
19.3400 12.8623 0.4933
19.3600 12.8756 0.4942
19.3800 12.8889 0.5049
19.4000 12.9023 0.4908
19.4200 12.9156 0.4920
19.4400 12.9289 0.5093
19.4600 12.9423 0.4921
19.4800 12.9556 0.4968
19.5000 12.9690 0.5050
19.5200 12.9823 0.4945
19.5400 12.9957 0.5009
19.5600 13.0090 0.5031
19.5800 13.0223 0.4973
19.6000 13.0357 0.5068
19.6200 13.0490 0.5021
19.6400 13.0624 0.4982
19.6600 13.0757 0.5094
19.6800 13.0890 0.5069
19.7000 13.1023 0.4986
19.7200 13.1156 0.5069
19.7400 13.1290 0.5032
19.7600 13.1423 0.5007
19.7800 13.1556 0.5068
19.8000 13.1689 0.5026
19.8200 13.1822 0.5055
19.8400 13.1956 0.5056
19.8600 13.2089 0.5040
19.8800 13.2223 0.5029
19.9000 13.2357 0.5080
19.9200 13.2490 0.5046
19.9400 13.2624 0.5014
19.9600 13.2757 0.5079
19.9800 13.2890 0.5106
20.0000 13.3024 0.5038
20.0200 13.3157 0.5082
20.0400 13.3290 0.5050
20.0600 13.3423 0.5088
20.0800 13.3556 0.5104
20.1000 13.3690 0.5057
20.1200 13.3823 0.5065
20.1400 13.3956 0.5172
20.1600 13.4089 0.5040
20.1800 13.4223 0.5111
20.2000 13.4356 0.5163
20.2200 13.4489 0.5045
20.2400 13.4623 0.5145
20.2600 13.4756 0.5135
20.2800 13.4890 0.5029
20.3000 13.5023 0.5137
20.3200 13.5157 0.5145
20.3400 13.5290 0.5042
20.3600 13.5424 0.5186
20.3800 13.5557 0.5128
20.4000 13.5690 0.5065
20.4200 13.5823 0.5213
20.4400 13.5957 0.5130
20.4600 13.6090 0.5090
20.4800 13.6223 0.5192
20.5000 13.6356 0.5122
20.5200 13.6489 0.5122
20.5400 13.6623 0.5216
20.5600 13.6756 0.5100
20.5800 13.6889 0.5136
20.6000 13.7023 0.5220
20.6200 13.7156 0.5077
20.6400 13.7290 0.5103
20.6600 13.7423 0.5270
20.6800 13.7557 0.5128
20.7000 13.7690 0.5122
20.7200 13.7824 0.5294
20.7400 13.7957 0.5128
20.7600 13.8090 0.5182
20.7800 13.8223 0.5269
20.8000 13.8356 0.5149
20.8200 13.8490 0.5174
20.8400 13.8623 0.5249
20.8600 13.8756 0.5149
20.8800 13.8889 0.5181
20.9000 13.9022 0.5285
20.9200 13.9156 0.5152
20.9400 13.9289 0.5178
20.9600 13.9423 0.5262
20.9800 13.9556 0.5178
21.0000 13.9691 0.5239
21.0200 13.9824 0.5213
21.0400 13.9958 0.5194
21.0600 14.0091 0.5247
21.0800 14.0224 0.5215
21.1000 14.0357 0.5168
21.1200 14.0490 0.5237
21.1400 14.0623 0.5306
21.1600 14.0756 0.5195
21.1800 14.0889 0.5232
21.2000 14.1022 0.5312
21.2200 14.1156 0.5219
21.2400 14.1289 0.5242
21.2600 14.1423 0.5284
21.2800 14.1556 0.5221
21.3000 14.1690 0.5273
21.3200 14.1823 0.5304
21.3400 14.1957 0.5204
21.3600 14.2091 0.5288
21.3800 14.2224 0.5287
21.4000 14.2357 0.5175
21.4200 14.2490 0.5309
21.4400 14.2623 0.5292
21.4600 14.2757 0.5245
21.4800 14.2890 0.5273
21.5000 14.3023 0.5267
21.5200 14.3156 0.5257
21.5400 14.3290 0.5305
21.5600 14.3423 0.5323
21.5800 14.3556 0.5278
21.6000 14.3689 0.5290
21.6200 14.3822 0.5313
21.6400 14.3956 0.5297
21.6600 14.4090 0.5322
21.6800 14.4223 0.5308
21.7000 14.4357 0.5296
21.7200 14.4490 0.5266
21.7400 14.4624 0.5324
21.7600 14.4757 0.5297
21.7800 14.4890 0.5313
21.8000 14.5023 0.5372
21.8200 14.5157 0.5288
21.8400 14.5290 0.5300
21.8600 14.5423 0.5356
21.8800 14.5556 0.5324
21.9000 14.5690 0.5332
21.9200 14.5823 0.5337
21.9400 14.5956 0.5305
21.9600 14.6089 0.5333
21.9800 14.6222 0.5346
22.0000 14.6356 0.5335
22.0200 14.6489 0.5320
22.0400 14.6623 0.5392
22.0600 14.6756 0.5333
22.0800 14.6890 0.5323
22.1000 14.7024 0.5372
22.1200 14.7157 0.5340
22.1400 14.7290 0.5392
22.1600 14.7424 0.5373
22.1800 14.7557 0.5338
22.2000 14.7690 0.5373
22.2200 14.7823 0.5424
22.2400 14.7956 0.5348
22.2600 14.8090 0.5322
22.2800 14.8223 0.5432
22.3000 14.8356 0.5388
22.3200 14.8490 0.5380
22.3400 14.8623 0.5403
22.3600 14.8756 0.5405
22.3800 14.8889 0.5367
22.4000 14.9023 0.5420
22.4200 14.9156 0.5381
22.4400 14.9290 0.5420
22.4600 14.9424 0.5425
22.4800 14.9557 0.5370
22.5000 14.9690 0.5418
22.5200 14.9823 0.5449
22.5400 14.9957 0.5381
22.5600 15.0090 0.5429
22.5800 15.0223 0.5457
22.6000 15.0357 0.5401
22.6200 15.0490 0.5480
22.6400 15.0623 0.5430
22.6600 15.0756 0.5431
22.6800 15.0889 0.5505
22.7000 15.1023 0.5431
22.7200 15.1156 0.5394
22.7400 15.1290 0.5516
22.7600 15.1423 0.5423
22.7800 15.1557 0.5420
22.8000 15.1690 0.5516
22.8200 15.1824 0.5426
22.8400 15.1957 0.5476
22.8600 15.2090 0.5520
22.8800 15.2224 0.5461
22.9000 15.2357 0.5493
22.9200 15.2490 0.5512
22.9400 15.2623 0.5479
22.9600 15.2756 0.5491
22.9800 15.2890 0.5524
23.0000 15.3023 0.5454
23.0200 15.3156 0.5457
23.0400 15.3289 0.5513
23.0600 15.3422 0.5506
23.0800 15.3556 0.5471
23.1000 15.3689 0.5477
23.1200 15.3823 0.5528
23.1400 15.3956 0.5504
23.1600 15.4090 0.5504
23.1800 15.4224 0.5452
23.2000 15.4357 0.5398
23.2200 15.4490 0.5498
23.2400 15.4624 0.5450
23.2600 15.4757 0.5421
23.2800 15.4890 0.5499
23.3000 15.5023 0.5521
23.3200 15.5156 0.5469
23.3400 15.5289 0.5541
23.3600 15.5423 0.5466
23.3800 15.5556 0.5538
23.4000 15.5689 0.5502
23.4200 15.5823 0.5492
23.4400 15.5957 0.5517
23.4600 15.6090 0.5513
23.4800 15.6223 0.5538
23.5000 15.6357 0.5510
23.5200 15.6490 0.5527
23.5400 15.6624 0.5509
23.5600 15.6757 0.5520
23.5800 15.6890 0.5568
23.6000 15.7023 0.5522
23.6200 15.7156 0.5546
23.6400 15.7290 0.5565
23.6600 15.7423 0.5556
23.6800 15.7557 0.5585
23.7000 15.7690 0.5573
23.7200 15.7824 0.5581
23.7400 15.7957 0.5533
23.7600 15.8090 0.5614
23.7800 15.8223 0.5560
23.8000 15.8356 0.5583
23.8200 15.8489 0.5614
23.8400 15.8623 0.5554
23.8600 15.8756 0.5585
23.8800 15.8890 0.5610
23.9000 15.9024 0.5532
23.9200 15.9157 0.5593
23.9400 15.9290 0.5634
23.9600 15.9423 0.5565
23.9800 15.9557 0.5587
24.0000 15.9690 0.5628
24.0200 15.9824 0.5585
24.0400 15.9957 0.5629
24.0600 16.0090 0.5626
24.0800 16.0224 0.5564
24.1000 16.0357 0.5628
24.1200 16.0489 0.5652
24.1400 16.0623 0.5611
24.1600 16.0756 0.5642
24.1800 16.0889 0.5635
24.2000 16.1023 0.5629
24.2200 16.1156 0.5670
24.2400 16.1290 0.5658
24.2600 16.1424 0.5618
24.2800 16.1557 0.5657
24.3000 16.1690 0.5658
24.3200 16.1823 0.5639
24.3400 16.1957 0.5687
24.3600 16.2090 0.5705
24.3800 16.2223 0.5643
24.4000 16.2356 0.5673
24.4200 16.2490 0.5714
24.4400 16.2623 0.5641
24.4600 16.2756 0.5667
24.4800 16.2889 0.5752
24.5000 16.3023 0.5645
24.5200 16.3156 0.5716
24.5400 16.3290 0.5694
24.5600 16.3423 0.5659
24.5800 16.3556 0.5738
24.6000 16.3690 0.5703
24.6200 16.3823 0.5688
24.6400 16.3957 0.5670
24.6600 16.4090 0.5741
24.6800 16.4223 0.5701
24.7000 16.4357 0.5758
24.7200 16.4490 0.5707
24.7400 16.4623 0.5685
24.7600 16.4756 0.5751
24.7800 16.4890 0.5719
24.8000 16.5023 0.5732
24.8200 16.5156 0.5743
24.8400 16.5289 0.5767
24.8600 16.5422 0.5732
24.8800 16.5556 0.5772
24.9000 16.5689 0.5752
24.9200 16.5823 0.5666
24.9400 16.5956 0.5793
24.9600 16.6090 0.5771
24.9800 16.6224 0.5691
25.0000 16.6357 0.5801
25.0200 16.6490 0.5750
25.0400 16.6624 0.5685
25.0600 16.6757 0.5844
25.0800 16.6890 0.5805
25.1000 16.7023 0.5702
25.1200 16.7156 0.5867
25.1400 16.7290 0.5767
25.1600 16.7423 0.5669
25.1800 16.7556 0.5880
25.2000 16.7690 0.5815
25.2200 16.7823 0.5710
25.2400 16.7956 0.5896
25.2600 16.8090 0.5776
25.2800 16.8223 0.5753
25.3000 16.8356 0.5892
25.3200 16.8490 0.5827
25.3400 16.8624 0.5752
25.3600 16.8757 0.5881
25.3800 16.8890 0.5790
25.4000 16.9024 0.5772
25.4200 16.9157 0.5917
25.4400 16.9290 0.5821
25.4600 16.9423 0.5776
25.4800 16.9556 0.5909
25.5000 16.9689 0.5814
25.5200 16.9823 0.5809
25.5400 16.9956 0.5895
25.5600 17.0089 0.5860
25.5800 17.0222 0.5840
25.6000 17.0356 0.5906
25.6200 17.0490 0.5853
25.6400 17.0623 0.5853
25.6600 17.0756 0.5886
25.6800 17.0889 0.5884
25.7000 17.1023 0.5812
25.7200 17.1157 0.5943
25.7400 17.1290 0.5872
25.7600 17.1423 0.5846
25.7800 17.1557 0.5929
25.8000 17.1690 0.5864
25.8200 17.1824 0.5882
25.8400 17.1957 0.5928
25.8600 17.2090 0.5916
25.8800 17.2224 0.5926
25.9000 17.2357 0.5937
25.9200 17.2490 0.5912
25.9400 17.2623 0.5886
25.9600 17.2756 0.5947
25.9800 17.2889 0.5899
26.0000 17.3022 0.5880
26.0200 17.3156 0.5962
26.0400 17.3289 0.5897
26.0600 17.3424 0.5907
26.0800 17.3557 0.5935
26.1000 17.3690 0.5921
26.1200 17.3824 0.5912
26.1400 17.3957 0.5960
26.1600 17.4091 0.5927
26.1800 17.4224 0.5913
26.2000 17.4357 0.5952
26.2200 17.4490 0.5910
26.2400 17.4623 0.5942
26.2600 17.4756 0.5986
26.2800 17.4889 0.5916
26.3000 17.5022 0.5962
26.3200 17.5156 0.5962
26.3400 17.5289 0.5927
26.3600 17.5423 0.5978
26.3800 17.5556 0.6003
26.4000 17.5690 0.5920
26.4200 17.5824 0.5993
26.4400 17.5957 0.5954
26.4600 17.6091 0.5909
26.4800 17.6224 0.6027
26.5000 17.6357 0.6006
26.5200 17.6490 0.5974
26.5400 17.6623 0.5985
26.5600 17.6756 0.6027
26.5800 17.6889 0.5968
26.6000 17.7023 0.5990
26.6200 17.7156 0.6038
26.6400 17.7289 0.5972
26.6600 17.7423 0.6018
26.6800 17.7556 0.6010
26.7000 17.7690 0.5978
26.7200 17.7823 0.6044
26.7400 17.7956 0.6051
26.7600 17.8090 0.6014
26.7800 17.8224 0.6043
26.8000 17.8357 0.6032
26.8200 17.8490 0.6003
26.8400 17.8623 0.6081
26.8600 17.8757 0.6024
26.8800 17.8890 0.6031
26.9000 17.9024 0.6053
26.9200 17.9157 0.6059
26.9400 17.9290 0.6013
26.9600 17.9423 0.6064
26.9800 17.9557 0.6076
27.0000 17.9689 0.6053
27.0200 17.9822 0.6078
27.0400 17.9956 0.6070
27.0600 18.0089 0.6045
27.0800 18.0223 0.6094
27.1000 18.0356 0.6079
27.1200 18.0490 0.6044
27.1400 18.0623 0.6102
27.1600 18.0757 0.6096
27.1800 18.0890 0.6063
27.2000 18.1024 0.6063
27.2200 18.1157 0.6069
27.2400 18.1290 0.6124
27.2600 18.1423 0.6085
27.2800 18.1556 0.6082
27.3000 18.1689 0.6120
27.3200 18.1823 0.6107
27.3400 18.1956 0.6090
27.3600 18.2090 0.6153
27.3800 18.2223 0.6155
27.4000 18.2356 0.6082
27.4200 18.2489 0.6138
27.4400 18.2623 0.6076
27.4600 18.2756 0.6114
27.4800 18.2889 0.6163
27.5000 18.3023 0.6134
27.5200 18.3157 0.6120
27.5400 18.3290 0.6138
27.5600 18.3423 0.6185
27.5800 18.3557 0.6153
27.6000 18.3691 0.6153
27.6200 18.3824 0.6167
27.6400 18.3957 0.6146
27.6600 18.4090 0.6157
27.6800 18.4223 0.6175
27.7000 18.4356 0.6166
27.7200 18.4490 0.6119
27.7400 18.4623 0.6204
27.7600 18.4756 0.6149
27.7800 18.4889 0.6139
27.8000 18.5023 0.6235
27.8200 18.5156 0.6127
27.8400 18.5289 0.6223
27.8600 18.5423 0.6217
27.8800 18.5557 0.6126
27.9000 18.5690 0.6193
27.9200 18.5823 0.6234
27.9400 18.5957 0.6186
27.9600 18.6090 0.6159
27.9800 18.6224 0.6292
28.0000 18.6357 0.6155
28.0200 18.6490 0.6198
28.0400 18.6623 0.6301
28.0600 18.6757 0.6157
28.0800 18.6890 0.6219
28.1000 18.7023 0.6260
28.1200 18.7156 0.6220
28.1400 18.7289 0.6234
28.1600 18.7423 0.6289
28.1800 18.7556 0.6217
28.2000 18.7689 0.6237
28.2200 18.7823 0.6267
28.2400 18.7957 0.6277
28.2600 18.8091 0.6236
28.2800 18.8224 0.6238
28.3000 18.8357 0.6236
28.3200 18.8491 0.6242
28.3400 18.8624 0.6243
28.3600 18.8756 0.6310
28.3800 18.8889 0.6268
28.4000 18.9023 0.6264
28.4200 18.9156 0.6246
28.4400 18.9289 0.6314
28.4600 18.9423 0.6321
28.4800 18.9556 0.6299
28.5000 18.9690 0.6281
28.5200 18.9823 0.6261
28.5400 18.9957 0.6319
28.5600 19.0090 0.6296
28.5800 19.0224 0.6313
28.6000 19.0357 0.6335
28.6200 19.0490 0.6294
28.6400 19.0623 0.6326
28.6600 19.0757 0.6318
28.6800 19.0890 0.6311
28.7000 19.1024 0.6320
28.7200 19.1156 0.6338
28.7400 19.1290 0.6338
28.7600 19.1423 0.6339
28.7800 19.1556 0.6392
28.8000 19.1690 0.6319
28.8200 19.1823 0.6350
28.8400 19.1956 0.6386
28.8600 19.2089 0.6306
28.8800 19.2223 0.6338
28.9000 19.2356 0.6380
28.9200 19.2490 0.6311
28.9400 19.2623 0.6379
28.9600 19.2757 0.6396
28.9800 19.2890 0.6316
29.0000 19.3023 0.6397
29.0200 19.3156 0.6408
29.0400 19.3290 0.6311
29.0600 19.3424 0.6416
29.0800 19.3557 0.6372
29.1000 19.3690 0.6343
29.1200 19.3823 0.6454
29.1400 19.3957 0.6376
29.1600 19.4090 0.6320
29.1800 19.4223 0.6489
29.2000 19.4356 0.6390
29.2200 19.4489 0.6384
29.2400 19.4623 0.6436
29.2600 19.4756 0.6393
29.2800 19.4890 0.6424
29.3000 19.5023 0.6430
29.3200 19.5157 0.6385
29.3400 19.5290 0.6449
29.3600 19.5423 0.6443
29.3800 19.5557 0.6425
29.4000 19.5690 0.6421
29.4200 19.5824 0.6453
29.4400 19.5957 0.6445
29.4600 19.6090 0.6473
29.4800 19.6223 0.6432
29.5000 19.6357 0.6440
29.5200 19.6490 0.6488
29.5400 19.6623 0.6440
29.5600 19.6756 0.6487
29.5800 19.6890 0.6478
29.6000 19.7023 0.6442
29.6200 19.7156 0.6510
29.6400 19.7289 0.6464
29.6600 19.7423 0.6464
29.6800 19.7556 0.6492
29.7000 19.7690 0.6473
29.7200 19.7823 0.6464
29.7400 19.7957 0.6528
29.7600 19.8090 0.6512
29.7800 19.8224 0.6471
29.8000 19.8357 0.6560
29.8200 19.8490 0.6461
29.8400 19.8623 0.6537
29.8600 19.8757 0.6545
29.8800 19.8890 0.6492
29.9000 19.9023 0.6535
29.9200 19.9156 0.6525
29.9400 19.9289 0.6514
29.9600 19.9423 0.6559
29.9800 19.9556 0.6523
30.0000 19.9690 0.6526
30.0200 19.9823 0.6599
30.0400 19.9957 0.6515
30.0600 20.0091 0.6521
30.0800 20.0224 0.6632
30.1000 20.0357 0.6540
30.1200 20.0490 0.6546
30.1400 20.0624 0.6644
30.1600 20.0757 0.6510
30.1800 20.0890 0.6571
30.2000 20.1023 0.6628
30.2200 20.1156 0.6564
30.2400 20.1290 0.6609
30.2600 20.1423 0.6587
30.2800 20.1556 0.6580
30.3000 20.1689 0.6608
30.3200 20.1823 0.6611
30.3400 20.1956 0.6587
30.3600 20.2090 0.6640
30.3800 20.2223 0.6605
30.4000 20.2357 0.6594
30.4200 20.2490 0.6636
30.4400 20.2624 0.6589
30.4600 20.2757 0.6631
30.4800 20.2890 0.6630
30.5000 20.3024 0.6599
30.5200 20.3157 0.6657
30.5400 20.3289 0.6664
30.5600 20.3423 0.6629
30.5800 20.3556 0.6673
30.6000 20.3689 0.6654
30.6200 20.3823 0.6636
30.6400 20.3956 0.6675
30.6600 20.4090 0.6680
30.6800 20.4223 0.6665
30.7000 20.4357 0.6679
30.7200 20.4490 0.6646
30.7400 20.4624 0.6720
30.7600 20.4757 0.6660
30.7800 20.4890 0.6635
30.8000 20.5023 0.6710
30.8200 20.5156 0.6713
30.8400 20.5290 0.6678
30.8600 20.5423 0.6684
30.8800 20.5557 0.6745
30.9000 20.5690 0.6649
30.9200 20.5823 0.6692
30.9400 20.5957 0.6746
30.9600 20.6090 0.6674
30.9800 20.6223 0.6740
31.0000 20.6356 0.6734
31.0200 20.6489 0.6726
31.0400 20.6623 0.6703
31.0600 20.6756 0.6755
31.0800 20.6889 0.6773
31.1000 20.7023 0.6682
31.1200 20.7156 0.6747
31.1400 20.7290 0.6729
31.1600 20.7423 0.6716
31.1800 20.7557 0.6796
31.2000 20.7690 0.6746
31.2200 20.7824 0.6744
31.2400 20.7957 0.6760
31.2600 20.8090 0.6748
31.2800 20.8223 0.6768
31.3000 20.8357 0.6767
31.3200 20.8490 0.6743
31.3400 20.8623 0.6753
31.3600 20.8756 0.6814
31.3800 20.8889 0.6799
31.4000 20.9022 0.6766
31.4200 20.9156 0.6804
31.4400 20.9289 0.6766
31.4600 20.9423 0.6750
31.4800 20.9557 0.6844
31.5000 20.9690 0.6757
31.5200 20.9824 0.6796
31.5400 20.9957 0.6781
31.5600 21.0090 0.6759
31.5800 21.0224 0.6798
31.6000 21.0357 0.6855
31.6200 21.0490 0.6819
31.6400 21.0623 0.6830
31.6600 21.0756 0.6826
31.6800 21.0890 0.6812
31.7000 21.1023 0.6843
31.7200 21.1156 0.6852
31.7400 21.1289 0.6807
31.7600 21.1423 0.6799
31.7800 21.1557 0.6889
31.8000 21.1690 0.6805
31.8200 21.1823 0.6813
31.8400 21.1957 0.6925
31.8600 21.2090 0.6784
31.8800 21.2223 0.6844
31.9000 21.2357 0.6916
31.9200 21.2490 0.6838
31.9400 21.2624 0.6833
31.9600 21.2757 0.6904
31.9800 21.2890 0.6864
32.0000 21.3023 0.6860
32.0200 21.3157 0.6924
32.0400 21.3290 0.6852
32.0600 21.3423 0.6902
32.0800 21.3556 0.6909
32.1000 21.3689 0.6864
32.1200 21.3823 0.6930
32.1400 21.3956 0.6900
32.1600 21.4090 0.6882
32.1800 21.4223 0.6934
32.2000 21.4357 0.6882
32.2200 21.4490 0.6924
32.2400 21.4624 0.6959
32.2600 21.4757 0.6892
32.2800 21.4890 0.6883
32.3000 21.5024 0.6967
32.3200 21.5157 0.6924
32.3400 21.5290 0.6939
32.3600 21.5423 0.6936
32.3800 21.5556 0.6918
32.4000 21.5690 0.6961
32.4200 21.5823 0.6930
32.4400 21.5956 0.6917
32.4600 21.6089 0.6973
32.4800 21.6223 0.6938
32.5000 21.6356 0.6939
32.5200 21.6490 0.6997
32.5400 21.6623 0.6940
32.5600 21.6757 0.6927
32.5800 21.6890 0.7004
32.6000 21.7023 0.6931
32.6200 21.7156 0.6960
32.6400 21.7290 0.7008
32.6600 21.7423 0.6936
32.6800 21.7557 0.6966
32.7000 21.7690 0.7055
32.7200 21.7823 0.6949
32.7400 21.7956 0.6952
32.7600 21.8090 0.7038
32.7800 21.8223 0.6943
32.8000 21.8356 0.6999
32.8200 21.8489 0.7057
32.8400 21.8623 0.6997
32.8600 21.8756 0.6967
32.8800 21.8890 0.7052
32.9000 21.9023 0.7008
32.9200 21.9156 0.6993
32.9400 21.9290 0.7095
32.9600 21.9423 0.6997
32.9800 21.9556 0.6999
33.0000 21.9690 0.7127
33.0200 21.9823 0.7008
33.0400 21.9957 0.7027
33.0600 22.0090 0.7144
33.0800 22.0224 0.7016
33.1000 22.0357 0.7037
33.1200 22.0491 0.7139
33.1400 22.0624 0.7022
33.1600 22.0756 0.7064
33.1800 22.0889 0.7169
33.2000 22.1022 0.7016
33.2200 22.1156 0.7098
33.2400 22.1289 0.7149
33.2600 22.1422 0.7032
33.2800 22.1556 0.7150
33.3000 22.1691 0.7150
33.3200 22.1824 0.7008
33.3400 22.1957 0.7154
33.3600 22.2090 0.7165
33.3800 22.2224 0.7050
33.4000 22.2357 0.7151
33.4200 22.2490 0.7168
33.4400 22.2623 0.7089
33.4600 22.2756 0.7187
33.4800 22.2890 0.7139
33.5000 22.3023 0.7068
33.5200 22.3156 0.7194
33.5400 22.3289 0.7171
33.5600 22.3423 0.7055
33.5800 22.3556 0.7188
33.6000 22.3689 0.7187
33.6200 22.3823 0.7107
33.6400 22.3957 0.7207
33.6600 22.4090 0.7160
33.6800 22.4224 0.7135
33.7000 22.4357 0.7250
33.7200 22.4490 0.7164
33.7400 22.4624 0.7166
33.7600 22.4757 0.7204
33.7800 22.4890 0.7221
33.8000 22.5023 0.7172
33.8200 22.5156 0.7241
33.8400 22.5290 0.7249
33.8600 22.5423 0.7120
33.8800 22.5556 0.7244
33.9000 22.5689 0.7283
33.9200 22.5823 0.7156
33.9400 22.5956 0.7257
33.9600 22.6090 0.7218
33.9800 22.6223 0.7167
34.0000 22.6356 0.7323
34.0200 22.6490 0.7224
34.0400 22.6624 0.7191
34.0600 22.6757 0.7336
34.0800 22.6890 0.7259
34.1000 22.7024 0.7197
34.1200 22.7157 0.7327
34.1400 22.7290 0.7245
34.1600 22.7423 0.7234
34.1800 22.7556 0.7333
34.2000 22.7690 0.7213
34.2200 22.7823 0.7273
34.2400 22.7956 0.7331
34.2600 22.8089 0.7217
34.2800 22.8223 0.7316
34.3000 22.8356 0.7297
34.3200 22.8489 0.7286
34.3400 22.8623 0.7305
34.3600 22.8757 0.7302
34.3800 22.8890 0.7301
34.4000 22.9024 0.7292
34.4200 22.9157 0.7300
34.4400 22.9290 0.7326
34.4600 22.9424 0.7310
34.4800 22.9557 0.7323
34.5000 22.9690 0.7328
34.5200 22.9823 0.7353
34.5400 22.9956 0.7314
34.5600 23.0090 0.7333
34.5800 23.0223 0.7301
34.6000 23.0356 0.7367
34.6200 23.0489 0.7354
34.6400 23.0623 0.7340
34.6600 23.0756 0.7389
34.6800 23.0889 0.7346
34.7000 23.1023 0.7357
34.7200 23.1156 0.7371
34.7400 23.1290 0.7333
34.7600 23.1424 0.7395
34.7800 23.1557 0.7362
34.8000 23.1690 0.7355
34.8200 23.1824 0.7376
34.8400 23.1957 0.7396
34.8600 23.2090 0.7339
34.8800 23.2223 0.7396
34.9000 23.2356 0.7413
34.9200 23.2490 0.7343
34.9400 23.2623 0.7406
34.9600 23.2756 0.7390
34.9800 23.2889 0.7427
35.0000 23.3023 0.7411
35.0200 23.3156 0.7408
35.0400 23.3289 0.7431
35.0600 23.3423 0.7393
35.0800 23.3556 0.7479
35.1000 23.3690 0.7455
35.1200 23.3824 0.7397
35.1400 23.3957 0.7443
35.1600 23.4090 0.7465
35.1800 23.4223 0.7443
35.2000 23.4357 0.7442
35.2200 23.4490 0.7501
35.2400 23.4623 0.7412
35.2600 23.4756 0.7477
35.2800 23.4890 0.7460
35.3000 23.5023 0.7471
35.3200 23.5156 0.7510
35.3400 23.5289 0.7474
35.3600 23.5422 0.7477
35.3800 23.5556 0.7514
35.4000 23.5689 0.7475
35.4200 23.5822 0.7513
35.4400 23.5956 0.7513
35.4600 23.6090 0.7461
35.4800 23.6224 0.7509
35.5000 23.6357 0.7537
35.5200 23.6491 0.7433
35.5400 23.6624 0.7545
35.5600 23.6757 0.7541
35.5800 23.6890 0.7483
35.6000 23.7023 0.7590
35.6200 23.7156 0.7558
35.6400 23.7289 0.7473
35.6600 23.7422 0.7580
35.6800 23.7556 0.7562
35.7000 23.7689 0.7493
35.7200 23.7823 0.7579
35.7400 23.7956 0.7591
35.7600 23.8090 0.7504
35.7800 23.8223 0.7598
35.8000 23.8357 0.7621
35.8200 23.8491 0.7509
35.8400 23.8624 0.7615
35.8600 23.8757 0.7616
35.8800 23.8890 0.7544
35.9000 23.9023 0.7628
35.9200 23.9157 0.7633
35.9400 23.9290 0.7520
35.9600 23.9423 0.7651
35.9800 23.9556 0.7648
36.0000 23.9690 0.7562
36.0200 23.9823 0.7619
36.0400 23.9956 0.7643
36.0600 24.0089 0.7562
36.0800 24.0223 0.7672
36.1000 24.0356 0.7630
36.1200 24.0490 0.7605
36.1400 24.0623 0.7693
36.1600 24.0757 0.7634
36.1800 24.0890 0.7606
36.2000 24.1024 0.7725
36.2200 24.1157 0.7651
36.2400 24.1290 0.7599
36.2600 24.1423 0.7739
36.2800 24.1557 0.7662
36.3000 24.1690 0.7633
36.3200 24.1823 0.7755
36.3400 24.1956 0.7648
36.3600 24.2090 0.7684
36.3800 24.2223 0.7709
36.4000 24.2356 0.7655
36.4200 24.2489 0.7709
36.4400 24.2622 0.7713
36.4600 24.2756 0.7670
36.4800 24.2890 0.7699
36.5000 24.3023 0.7733
36.5200 24.3156 0.7704
36.5400 24.3290 0.7778
36.5600 24.3424 0.7725
36.5800 24.3557 0.7714
36.6000 24.3690 0.7745
36.6200 24.3824 0.7780
36.6400 24.3957 0.7721
36.6600 24.4090 0.7708
36.6800 24.4223 0.7792
36.7000 24.4356 0.7730
36.7200 24.4490 0.7769
36.7400 24.4623 0.7826
36.7600 24.4756 0.7717
36.7800 24.4889 0.7780
36.8000 24.5023 0.7806
36.8200 24.5156 0.7755
36.8400 24.5290 0.7770
36.8600 24.5423 0.7846
36.8800 24.5556 0.7765
36.9000 24.5690 0.7781
36.9200 24.5824 0.7818
36.9400 24.5957 0.7775
36.9600 24.6090 0.7810
36.9800 24.6224 0.7797
37.0000 24.6357 0.7790
37.0200 24.6491 0.7861
37.0400 24.6624 0.7843
37.0600 24.6756 0.7820
37.0800 24.6890 0.7849
37.1000 24.7023 0.7859
37.1200 24.7156 0.7818
37.1400 24.7289 0.7881
37.1600 24.7422 0.7826
37.1800 24.7556 0.7818
37.2000 24.7690 0.7867
37.2200 24.7823 0.7841
37.2400 24.7957 0.7858
37.2600 24.8090 0.7885
37.2800 24.8224 0.7880
37.3000 24.8357 0.7858
37.3200 24.8490 0.7888
37.3400 24.8624 0.7925
37.3600 24.8757 0.7865
37.3800 24.8891 0.7890
37.4000 24.9023 0.7902
37.4200 24.9156 0.7886
37.4400 24.9289 0.7932
37.4600 24.9423 0.7904
37.4800 24.9556 0.7907
37.5000 24.9689 0.7932
37.5200 24.9822 0.7916
37.5400 24.9956 0.7914
37.5600 25.0089 0.7944
37.5800 25.0223 0.7957
37.6000 25.0356 0.7918
37.6200 25.0490 0.7912
37.6400 25.0624 0.7959
37.6600 25.0757 0.7940
37.6800 25.0890 0.7903
37.7000 25.1023 0.8010
37.7200 25.1157 0.7950
37.7400 25.1290 0.7909
37.7600 25.1423 0.8019
37.7800 25.1556 0.7967
37.8000 25.1689 0.7950
37.8200 25.1823 0.8022
37.8400 25.1956 0.7956
37.8600 25.2089 0.7955
37.8800 25.2223 0.8028
37.9000 25.2357 0.7987
37.9200 25.2490 0.7964
37.9400 25.2623 0.8041
37.9600 25.2757 0.8019
37.9800 25.2890 0.7979
38.0000 25.3024 0.8019
38.0200 25.3157 0.8009
38.0400 25.3290 0.8012
38.0600 25.3423 0.8075
38.0800 25.3556 0.8034
38.1000 25.3690 0.7976
38.1200 25.3823 0.8037
38.1400 25.3957 0.8063
38.1600 25.4090 0.8005
38.1800 25.4224 0.8066
38.2000 25.4357 0.8071
38.2200 25.4490 0.8036
38.2400 25.4623 0.8099
38.2600 25.4756 0.8059
38.2800 25.4889 0.8036
38.3000 25.5023 0.8140
38.3200 25.5156 0.8055
38.3400 25.5290 0.8047
38.3600 25.5423 0.8149
38.3800 25.5557 0.8060
38.4000 25.5690 0.8082
38.4200 25.5823 0.8164
38.4400 25.5957 0.8082
38.4600 25.6091 0.8105
38.4800 25.6224 0.8136
38.5000 25.6357 0.8084
38.5200 25.6490 0.8101
38.5400 25.6624 0.8153
38.5600 25.6757 0.8084
38.5800 25.6890 0.8165
38.6000 25.7022 0.8191
38.6200 25.7156 0.8076
38.6400 25.7289 0.8160
38.6600 25.7423 0.8209
38.6800 25.7556 0.8096
38.7000 25.7690 0.8185
38.7200 25.7824 0.8211
38.7400 25.7957 0.8083
38.7600 25.8090 0.8232
38.7800 25.8224 0.8190
38.8000 25.8357 0.8095
38.8200 25.8491 0.8225
38.8400 25.8623 0.8199
38.8600 25.8756 0.8135
38.8800 25.8890 0.8246
38.9000 25.9023 0.8194
38.9200 25.9156 0.8172
38.9400 25.9289 0.8231
38.9600 25.9423 0.8177
38.9800 25.9556 0.8197
39.0000 25.9690 0.8239
39.0200 25.9823 0.8176
39.0400 25.9956 0.8207
39.0600 26.0089 0.8258
39.0800 26.0223 0.8184
39.1000 26.0357 0.8224
39.1200 26.0490 0.8236
39.1400 26.0624 0.8232
39.1600 26.0757 0.8227
39.1800 26.0890 0.8241
39.2000 26.1024 0.8274
39.2200 26.1157 0.8218
39.2400 26.1290 0.8299
39.2600 26.1423 0.8230
39.2800 26.1556 0.8231
39.3000 26.1689 0.8322
39.3200 26.1822 0.8272
39.3400 26.1956 0.8243
39.3600 26.2089 0.8322
39.3800 26.2223 0.8260
39.4000 26.2356 0.8295
39.4200 26.2490 0.8361
39.4400 26.2624 0.8255
39.4600 26.2757 0.8304
39.4800 26.2890 0.8394
39.5000 26.3023 0.8250
39.5200 26.3157 0.8328
39.5400 26.3290 0.8377
39.5600 26.3423 0.8250
39.5800 26.3556 0.8380
39.6000 26.3690 0.8378
39.6200 26.3823 0.8318
39.6400 26.3957 0.8328
39.6600 26.4090 0.8398
39.6800 26.4223 0.8331
39.7000 26.4356 0.8369
39.7200 26.4489 0.8383
39.7400 26.4623 0.8333
39.7600 26.4756 0.8402
39.7800 26.4890 0.8370
39.8000 26.5024 0.8315
39.8200 26.5157 0.8374
39.8400 26.5290 0.8436
39.8600 26.5424 0.8383
39.8800 26.5557 0.8370
39.9000 26.5690 0.8436
39.9200 26.5824 0.8365
39.9400 26.5956 0.8419
39.9600 26.6089 0.8453
39.9800 26.6223 0.8378
40.0000 26.6356 0.8400
40.0200 26.6489 0.8469
40.0400 26.6623 0.8371
40.0600 26.6756 0.8409
40.0800 26.6890 0.8508
40.1000 26.7023 0.8380
40.1200 26.7156 0.8418
40.1400 26.7290 0.8509
40.1600 26.7423 0.8386
40.1800 26.7557 0.8454
40.2000 26.7690 0.8492
40.2200 26.7823 0.8457
40.2400 26.7956 0.8461
40.2600 26.8090 0.8518
40.2800 26.8223 0.8504
40.3000 26.8357 0.8480
40.3200 26.8490 0.8550
40.3400 26.8624 0.8497
40.3600 26.8757 0.8521
40.3800 26.8890 0.8560
40.4000 26.9023 0.8527
40.4200 26.9156 0.8529
40.4400 26.9289 0.8541
40.4600 26.9422 0.8532
40.4800 26.9556 0.8564
40.5000 26.9689 0.8563
40.5200 26.9823 0.8565
40.5400 26.9957 0.8535
40.5600 27.0090 0.8590
40.5800 27.0224 0.8568
40.6000 27.0357 0.8587
40.6200 27.0491 0.8622
40.6400 27.0624 0.8588
40.6600 27.0757 0.8564
40.6800 27.0890 0.8638
40.7000 27.1023 0.8615
40.7200 27.1156 0.8594
40.7400 27.1289 0.8653
40.7600 27.1422 0.8621
40.7800 27.1556 0.8581
40.8000 27.1689 0.8686
40.8200 27.1823 0.8591
40.8400 27.1956 0.8629
40.8600 27.2090 0.8699
40.8800 27.2223 0.8638
40.9000 27.2357 0.8608
40.9200 27.2491 0.8699
40.9400 27.2624 0.8634
40.9600 27.2757 0.8648
40.9800 27.2891 0.8708
41.0000 27.3024 0.8642
41.0200 27.3156 0.8694
41.0400 27.3289 0.8740
41.0600 27.3423 0.8676
41.0800 27.3556 0.8669
41.1000 27.3689 0.8749
41.1200 27.3822 0.8629
41.1400 27.3956 0.8744
41.1600 27.4090 0.8765
41.1800 27.4223 0.8651
41.2000 27.4356 0.8759
41.2200 27.4490 0.8789
41.2400 27.4623 0.8718
41.2600 27.4757 0.8776
41.2800 27.4890 0.8785
41.3000 27.5023 0.8741
41.3200 27.5157 0.8717
41.3400 27.5290 0.8818
41.3600 27.5424 0.8753
41.3800 27.5557 0.8767
41.4000 27.5690 0.8842
41.4200 27.5823 0.8777
41.4400 27.5957 0.8800
41.4600 27.6090 0.8844
41.4800 27.6223 0.8786
41.5000 27.6356 0.8795
41.5200 27.6490 0.8850
41.5400 27.6623 0.8807
41.5600 27.6756 0.8781
41.5800 27.6890 0.8921
41.6000 27.7024 0.8830
41.6200 27.7157 0.8796
41.6400 27.7290 0.8906
41.6600 27.7424 0.8844
41.6800 27.7557 0.8814
41.7000 27.7690 0.8935
41.7200 27.7823 0.8883
41.7400 27.7956 0.8831
41.7600 27.8089 0.8940
41.7800 27.8223 0.8885
41.8000 27.8357 0.8891
41.8200 27.8490 0.8947
41.8400 27.8623 0.8914
41.8600 27.8756 0.8925
41.8800 27.8890 0.8907
41.9000 27.9023 0.8901
41.9200 27.9156 0.8947
41.9400 27.9289 0.8956
41.9600 27.9423 0.8905
41.9800 27.9557 0.8927
42.0000 27.9690 0.8988
42.0200 27.9823 0.8935
42.0400 27.9957 0.8968
42.0600 28.0090 0.8970
42.0800 28.0224 0.8949
42.1000 28.0357 0.8931
42.1200 28.0490 0.9020
42.1400 28.0623 0.9018
42.1600 28.0756 0.8918
42.1800 28.0890 0.9040
42.2000 28.1023 0.9012
42.2200 28.1156 0.8986
42.2400 28.1289 0.9068
42.2600 28.1423 0.9017
42.2800 28.1556 0.9009
42.3000 28.1689 0.9058
42.3200 28.1823 0.9033
42.3400 28.1957 0.9024
42.3600 28.2090 0.9066
42.3800 28.2223 0.9032
42.4000 28.2356 0.9041
42.4200 28.2490 0.9098
42.4400 28.2623 0.9074
42.4600 28.2757 0.9069
42.4800 28.2890 0.9122
42.5000 28.3023 0.9037
42.5200 28.3157 0.9116
42.5400 28.3290 0.9112
42.5600 28.3423 0.9051
42.5800 28.3555 0.9179
42.6000 28.3689 0.9068
42.6200 28.3822 0.9092
42.6400 28.3956 0.9201
42.6600 28.4089 0.9076
42.6800 28.4223 0.9111
42.7000 28.4357 0.9238
42.7200 28.4491 0.9041
42.7400 28.4624 0.9149
42.7600 28.4757 0.9253
42.7800 28.4891 0.9058
42.8000 28.5024 0.9155
42.8200 28.5157 0.9283
42.8400 28.5290 0.9086
42.8600 28.5423 0.9191
42.8800 28.5556 0.9270
42.9000 28.5689 0.9118
42.9200 28.5822 0.9226
42.9400 28.5956 0.9288
42.9600 28.6090 0.9106
42.9800 28.6223 0.9266
43.0000 28.6357 0.9273
43.0200 28.6490 0.9116
43.0400 28.6623 0.9292
43.0600 28.6757 0.9242
43.0800 28.6890 0.9180
43.1000 28.7023 0.9339
43.1200 28.7157 0.9239
43.1400 28.7290 0.9234
43.1600 28.7424 0.9321
43.1800 28.7556 0.9252
43.2000 28.7689 0.9248
43.2200 28.7823 0.9364
43.2400 28.7956 0.9283
43.2600 28.8090 0.9287
43.2800 28.8223 0.9352
43.3000 28.8356 0.9292
43.3200 28.8489 0.9309
43.3400 28.8623 0.9368
43.3600 28.8756 0.9316
43.3800 28.8890 0.9307
43.4000 28.9023 0.9392
43.4200 28.9157 0.9337
43.4400 28.9290 0.9313
43.4600 28.9423 0.9392
43.4800 28.9557 0.9354
43.5000 28.9690 0.9300
43.5200 28.9824 0.9389
43.5400 28.9957 0.9390
43.5600 29.0090 0.9393
43.5800 29.0223 0.9430
43.6000 29.0357 0.9444
43.6200 29.0490 0.9336
43.6400 29.0623 0.9461
43.6600 29.0756 0.9460
43.6800 29.0889 0.9352
43.7000 29.1023 0.9459
43.7200 29.1156 0.9473
43.7400 29.1290 0.9313
43.7600 29.1423 0.9513
43.7800 29.1557 0.9506
43.8000 29.1690 0.9350
43.8200 29.1824 0.9497
43.8400 29.1957 0.9521
43.8600 29.2090 0.9373
43.8800 29.2224 0.9558
43.9000 29.2357 0.9529
43.9200 29.2490 0.9372
43.9400 29.2623 0.9557
43.9600 29.2756 0.9516
43.9800 29.2890 0.9432
44.0000 29.3023 0.9598
44.0200 29.3156 0.9510
44.0400 29.3289 0.9468
44.0600 29.3423 0.9608
44.0800 29.3556 0.9529
44.1000 29.3689 0.9514
44.1200 29.3823 0.9613
44.1400 29.3957 0.9553
44.1600 29.4090 0.9467
44.1800 29.4223 0.9589
44.2000 29.4357 0.9619
44.2200 29.4490 0.9520
44.2400 29.4624 0.9561
44.2600 29.4757 0.9620
44.2800 29.4890 0.9591
44.3000 29.5023 0.9579
44.3200 29.5156 0.9640
44.3400 29.5290 0.9593
44.3600 29.5423 0.9554
44.3800 29.5556 0.9703
44.4000 29.5689 0.9588
44.4200 29.5823 0.9626
44.4400 29.5956 0.9698
44.4600 29.6089 0.9605
44.4800 29.6223 0.9667
44.5000 29.6357 0.9724
44.5200 29.6491 0.9604
44.5400 29.6624 0.9673
44.5600 29.6757 0.9745
44.5800 29.6890 0.9571
44.6000 29.7024 0.9688
44.6200 29.7157 0.9741
44.6400 29.7290 0.9652
44.6600 29.7423 0.9735
44.6800 29.7556 0.9736
44.7000 29.7690 0.9660
44.7200 29.7823 0.9778
44.7400 29.7956 0.9754
44.7600 29.8089 0.9682
44.7800 29.8223 0.9789
44.8000 29.8356 0.9757
44.8200 29.8489 0.9709
44.8400 29.8623 0.9862
44.8600 29.8757 0.9736
44.8800 29.8891 0.9694
44.9000 29.9024 0.9875
44.9200 29.9157 0.9756
44.9400 29.9290 0.9742
44.9600 29.9424 0.9889
44.9800 29.9557 0.9827
45.0000 29.9690 0.9802
45.0200 29.9823 0.9876
45.0400 29.9956 0.9816
45.0600 30.0089 0.9778
45.0800 30.0223 0.9905
45.1000 30.0356 0.9837
45.1200 30.0490 0.9830
45.1400 30.0623 0.9910
45.1600 30.0757 0.9817
45.1800 30.0890 0.9841
45.2000 30.1023 0.9923
45.2200 30.1157 0.9863
45.2400 30.1290 0.9883
45.2600 30.1423 0.9925
45.2800 30.1556 0.9888
45.3000 30.1690 0.9923
45.3200 30.1823 0.9980
45.3400 30.1957 0.9892
45.3600 30.2090 0.9960
45.3800 30.2223 0.9997
45.4000 30.2357 0.9903
45.4200 30.2490 0.9979
45.4400 30.2623 0.9959
45.4600 30.2756 0.9898
45.4800 30.2890 1.0040
45.5000 30.3023 0.9955
45.5200 30.3156 0.9953
45.5400 30.3290 1.0059
45.5600 30.3423 0.9969
45.5800 30.3556 1.0020
45.6000 30.3690 1.0035
45.6200 30.3823 0.9997
45.6400 30.3956 1.0048
45.6600 30.4090 1.0084
45.6800 30.4224 0.9961
45.7000 30.4357 1.0092
45.7200 30.4490 1.0098
45.7400 30.4623 0.9987
45.7600 30.4757 1.0148
45.7800 30.4890 1.0079
45.8000 30.5023 1.0050
45.8200 30.5156 1.0132
45.8400 30.5289 1.0110
45.8600 30.5423 1.0091
45.8800 30.5556 1.0120
45.9000 30.5689 1.0118
45.9200 30.5823 1.0106
45.9400 30.5957 1.0174
45.9600 30.6090 1.0110
45.9800 30.6224 1.0160
46.0000 30.6357 1.0151
46.0200 30.6490 1.0124
46.0400 30.6624 1.0180
46.0600 30.6757 1.0148
46.0800 30.6890 1.0143
46.1000 30.7023 1.0204
46.1200 30.7156 1.0182
46.1400 30.7290 1.0196
46.1600 30.7423 1.0220
46.1800 30.7556 1.0184
46.2000 30.7689 1.0240
46.2200 30.7823 1.0270
46.2400 30.7956 1.0184
46.2600 30.8090 1.0272
46.2800 30.8223 1.0274
46.3000 30.8356 1.0166
46.3200 30.8490 1.0288
46.3400 30.8624 1.0290
46.3600 30.8757 1.0232
46.3800 30.8890 1.0233
46.4000 30.9024 1.0306
46.4200 30.9157 1.0236
46.4400 30.9290 1.0283
46.4600 30.9423 1.0367
46.4800 30.9557 1.0225
46.5000 30.9690 1.0336
46.5200 30.9823 1.0351
46.5400 30.9956 1.0276
46.5600 31.0089 1.0400
46.5800 31.0223 1.0337
46.6000 31.0356 1.0303
46.6200 31.0489 1.0375
46.6400 31.0623 1.0397
46.6600 31.0757 1.0287
46.6800 31.0891 1.0453
46.7000 31.1024 1.0399
46.7200 31.1157 1.0313
46.7400 31.1290 1.0497
46.7600 31.1424 1.0408
46.7800 31.1557 1.0377
46.8000 31.1690 1.0483
46.8200 31.1823 1.0421
46.8400 31.1957 1.0421
46.8600 31.2090 1.0459
46.8800 31.2223 1.0430
46.9000 31.2356 1.0411
46.9200 31.2489 1.0496
46.9400 31.2623 1.0456
46.9600 31.2756 1.0443
46.9800 31.2890 1.0501
47.0000 31.3023 1.0505
47.0200 31.3157 1.0488
47.0400 31.3290 1.0509
47.0600 31.3423 1.0496
47.0800 31.3556 1.0545
47.1000 31.3690 1.0538
47.1200 31.3823 1.0522
47.1400 31.3957 1.0550
47.1600 31.4090 1.0572
47.1800 31.4223 1.0519
47.2000 31.4356 1.0570
47.2200 31.4490 1.0593
47.2400 31.4623 1.0573
47.2600 31.4756 1.0583
47.2800 31.4889 1.0620
47.3000 31.5023 1.0576
47.3200 31.5156 1.0513
47.3400 31.5290 1.0684
47.3600 31.5423 1.0612
47.3800 31.5556 1.0544
47.4000 31.5690 1.0686
47.4200 31.5823 1.0581
47.4400 31.5956 1.0608
47.4600 31.6089 1.0738
47.4800 31.6223 1.0583
47.5000 31.6357 1.0641
47.5200 31.6490 1.0764
47.5400 31.6623 1.0591
47.5600 31.6757 1.0679
47.5800 31.6890 1.0742
47.6000 31.7023 1.0598
47.6200 31.7156 1.0714
47.6400 31.7289 1.0739
47.6600 31.7422 1.0651
47.6800 31.7556 1.0730
47.7000 31.7689 1.0738
47.7200 31.7822 1.0710
47.7400 31.7956 1.0767
47.7600 31.8090 1.0750
47.7800 31.8224 1.0701
47.8000 31.8357 1.0763
47.8200 31.8490 1.0824
47.8400 31.8624 1.0776
47.8600 31.8757 1.0738
47.8800 31.8890 1.0826
47.9000 31.9023 1.0834
47.9200 31.9156 1.0793
47.9400 31.9290 1.0850
47.9600 31.9423 1.0803
47.9800 31.9556 1.0815
48.0000 31.9689 1.0904
48.0200 31.9822 1.0760
48.0400 31.9956 1.0841
48.0600 32.0089 1.0881
48.0800 32.0223 1.0835
48.1000 32.0357 1.0866
48.1200 32.0490 1.0926
48.1400 32.0624 1.0894
48.1600 32.0757 1.0875
48.1800 32.0890 1.0948
48.2000 32.1024 1.0915
48.2200 32.1157 1.0917
48.2400 32.1290 1.0962
48.2600 32.1423 1.0936
48.2800 32.1556 1.0916
48.3000 32.1690 1.0937
48.3200 32.1823 1.0986
48.3400 32.1956 1.0905
48.3600 32.2089 1.1012
48.3800 32.2223 1.0997
48.4000 32.2356 1.0936
48.4200 32.2490 1.1018
48.4400 32.2623 1.1007
48.4600 32.2756 1.0956
48.4800 32.2890 1.1049
48.5000 32.3023 1.1001
48.5200 32.3157 1.0999
48.5400 32.3290 1.1101
48.5600 32.3424 1.1015
48.5800 32.3557 1.1003
48.6000 32.3690 1.1082
48.6200 32.3823 1.1023
48.6400 32.3956 1.1064
48.6600 32.4090 1.1144
48.6800 32.4223 1.1019
48.7000 32.4356 1.1070
48.7200 32.4489 1.1129
48.7400 32.4622 1.1082
48.7600 32.4756 1.1075
48.7800 32.4889 1.1101
48.8000 32.5023 1.1140
48.8200 32.5156 1.1107
48.8400 32.5290 1.1104
48.8600 32.5424 1.1171
48.8800 32.5557 1.1108
48.9000 32.5690 1.1148
48.9200 32.5823 1.1186
48.9400 32.5957 1.1100
48.9600 32.6090 1.1184
48.9800 32.6223 1.1221
49.0000 32.6356 1.1094
49.0200 32.6490 1.1243
49.0400 32.6623 1.1189
49.0600 32.6756 1.1168
49.0800 32.6889 1.1282
49.1000 32.7023 1.1205
49.1200 32.7156 1.1199
49.1400 32.7289 1.1314
49.1600 32.7423 1.1190
49.1800 32.7556 1.1255
49.2000 32.7690 1.1326
49.2200 32.7824 1.1207
49.2400 32.7957 1.1281
49.2600 32.8090 1.1336
49.2800 32.8224 1.1270
49.3000 32.8357 1.1319
49.3200 32.8491 1.1297
49.3400 32.8624 1.1316
49.3600 32.8757 1.1358
49.3800 32.8890 1.1277
49.4000 32.9023 1.1377
49.4200 32.9156 1.1338
49.4400 32.9289 1.1310
49.4600 32.9423 1.1407
49.4800 32.9556 1.1375
49.5000 32.9690 1.1349
49.5200 32.9823 1.1462
49.5400 32.9956 1.1366
49.5600 33.0090 1.1424
49.5800 33.0224 1.1442
49.6000 33.0357 1.1396
49.6200 33.0490 1.1457
49.6400 33.0623 1.1488
49.6600 33.0757 1.1379
49.6800 33.0890 1.1498
49.7000 33.1023 1.1493
49.7200 33.1156 1.1469
49.7400 33.1290 1.1501
49.7600 33.1423 1.1538
49.7800 33.1556 1.1495
49.8000 33.1689 1.1532
49.8200 33.1822 1.1526
49.8400 33.1956 1.1514
49.8600 33.2089 1.1550
49.8800 33.2222 1.1529
49.9000 33.2356 1.1553
49.9200 33.2490 1.1581
49.9400 33.2624 1.1520
49.9600 33.2757 1.1584
49.9800 33.2891 1.1549
50.0000 33.3024 1.1587
50.0200 33.3157 1.1568
50.0400 33.3290 1.1617
50.0600 33.3423 1.1630
50.0800 33.3556 1.1629
50.1000 33.3689 1.1660
50.1200 33.3822 1.1619
50.1400 33.3956 1.1675
50.1600 33.4089 1.1631
50.1800 33.4223 1.1679
50.2000 33.4356 1.1719
50.2200 33.4490 1.1618
50.2400 33.4623 1.1702
50.2600 33.4757 1.1764
50.2800 33.4890 1.1689
50.3000 33.5024 1.1722
50.3200 33.5157 1.1754
50.3400 33.5290 1.1718
50.3600 33.5423 1.1710
50.3800 33.5557 1.1804
50.4000 33.5690 1.1759
50.4200 33.5823 1.1796
50.4400 33.5956 1.1809
50.4600 33.6090 1.1767
50.4800 33.6223 1.1798
50.5000 33.6356 1.1829
50.5200 33.6489 1.1829
50.5400 33.6623 1.1832
50.5600 33.6756 1.1829
50.5800 33.6890 1.1851
50.6000 33.7023 1.1851
50.6200 33.7156 1.1880
50.6400 33.7290 1.1827
50.6600 33.7424 1.1901
50.6800 33.7557 1.1911
50.7000 33.7690 1.1860
50.7200 33.7823 1.1921
50.7400 33.7957 1.1917
50.7600 33.8090 1.1872
50.7800 33.8223 1.1954
50.8000 33.8356 1.1988
50.8200 33.8490 1.1859
50.8400 33.8624 1.1968
50.8600 33.8757 1.2015
50.8800 33.8890 1.1900
50.9000 33.9023 1.2003
50.9200 33.9156 1.2044
50.9400 33.9290 1.1927
50.9600 33.9423 1.2037
50.9800 33.9556 1.2029
51.0000 33.9690 1.1989
51.0200 33.9823 1.2043
51.0400 33.9957 1.2045
51.0600 34.0090 1.1988
51.0800 34.0223 1.2102
51.1000 34.0357 1.2060
51.1200 34.0490 1.2030
51.1400 34.0623 1.2146
51.1600 34.0756 1.2133
51.1800 34.0890 1.2030
51.2000 34.1023 1.2140
51.2200 34.1156 1.2120
51.2400 34.1289 1.2086
51.2600 34.1423 1.2139
51.2800 34.1556 1.2140
51.3000 34.1690 1.2099
51.3200 34.1823 1.2168
51.3400 34.1956 1.2155
51.3600 34.2090 1.2109
51.3800 34.2223 1.2153
51.4000 34.2357 1.2227
51.4200 34.2490 1.2194
51.4400 34.2623 1.2151
51.4600 34.2757 1.2245
51.4800 34.2890 1.2184
51.5000 34.3024 1.2215
51.5200 34.3157 1.2297
51.5400 34.3290 1.2200
51.5600 34.3423 1.2260
51.5800 34.3556 1.2269
51.6000 34.3689 1.2227
51.6200 34.3822 1.2317
51.6400 34.3956 1.2303
51.6600 34.4090 1.2228
51.6800 34.4223 1.2329
51.7000 34.4356 1.2397
51.7200 34.4490 1.2238
51.7400 34.4624 1.2345
51.7600 34.4757 1.2418
51.7800 34.4890 1.2278
51.8000 34.5024 1.2429
51.8200 34.5157 1.2421
51.8400 34.5291 1.2289
51.8600 34.5423 1.2444
51.8800 34.5556 1.2423
51.9000 34.5690 1.2321
51.9200 34.5823 1.2481
51.9400 34.5956 1.2484
51.9600 34.6089 1.2330
51.9800 34.6222 1.2495
52.0000 34.6356 1.2522
52.0200 34.6489 1.2377
52.0400 34.6623 1.2566
52.0600 34.6756 1.2523
52.0800 34.6890 1.2398
52.1000 34.7024 1.2595
52.1200 34.7157 1.2522
52.1400 34.7290 1.2449
52.1600 34.7424 1.2570
52.1800 34.7557 1.2531
52.2000 34.7690 1.2478
52.2200 34.7823 1.2605
52.2400 34.7956 1.2622
52.2600 34.8089 1.2536
52.2800 34.8223 1.2612
52.3000 34.8356 1.2611
52.3200 34.8489 1.2592
52.3400 34.8623 1.2642
52.3600 34.8756 1.2652
52.3800 34.8890 1.2610
52.4000 34.9024 1.2671
52.4200 34.9157 1.2702
52.4400 34.9290 1.2611
52.4600 34.9423 1.2676
52.4800 34.9557 1.2767
52.5000 34.9690 1.2614
52.5200 34.9823 1.2723
52.5400 34.9956 1.2809
52.5600 35.0090 1.2629
52.5800 35.0223 1.2763
52.6000 35.0357 1.2832
52.6200 35.0490 1.2678
52.6400 35.0624 1.2801
52.6600 35.0757 1.2812
52.6800 35.0890 1.2729
52.7000 35.1023 1.2860
52.7200 35.1156 1.2864
52.7400 35.1289 1.2714
52.7600 35.1423 1.2852
52.7800 35.1556 1.2871
52.8000 35.1690 1.2792
52.8200 35.1823 1.2850
52.8400 35.1957 1.2915
52.8600 35.2090 1.2820
52.8800 35.2223 1.2910
52.9000 35.2357 1.2909
52.9200 35.2490 1.2852
52.9400 35.2623 1.2948
52.9600 35.2757 1.2908
52.9800 35.2890 1.2897
53.0000 35.3024 1.2991
53.0200 35.3157 1.2890
53.0400 35.3290 1.2917
53.0600 35.3423 1.3016
53.0800 35.3556 1.2968
53.1000 35.3689 1.2971
53.1200 35.3822 1.3043
53.1400 35.3956 1.2999
53.1600 35.4090 1.3000
53.1800 35.4224 1.3041
53.2000 35.4357 1.3037
53.2200 35.4490 1.3064
53.2400 35.4624 1.3064
53.2600 35.4757 1.3041
53.2800 35.4890 1.3106
53.3000 35.5023 1.3098
53.3200 35.5156 1.3074
53.3400 35.5289 1.3162
53.3600 35.5423 1.3135
53.3800 35.5557 1.3110
53.4000 35.5690 1.3170
53.4200 35.5823 1.3175
53.4400 35.5956 1.3160
53.4600 35.6090 1.3176
53.4800 35.6223 1.3149
53.5000 35.6356 1.3204
53.5200 35.6490 1.3249
53.5400 35.6623 1.3205
53.5600 35.6757 1.3226
53.5800 35.6890 1.3295
53.6000 35.7024 1.3172
53.6200 35.7157 1.3287
53.6400 35.7290 1.3306
53.6600 35.7424 1.3266
53.6800 35.7557 1.3342
53.7000 35.7690 1.3316
53.7200 35.7823 1.3269
53.7400 35.7956 1.3375
53.7600 35.8089 1.3357
53.7800 35.8222 1.3295
53.8000 35.8356 1.3422
53.8200 35.8489 1.3364
53.8400 35.8623 1.3317
53.8600 35.8756 1.3460
53.8800 35.8890 1.3381
53.9000 35.9023 1.3388
53.9200 35.9157 1.3444
53.9400 35.9290 1.3418
53.9600 35.9423 1.3418
53.9800 35.9557 1.3500
54.0000 35.9690 1.3468
54.0200 35.9824 1.3466
54.0400 35.9956 1.3512
54.0600 36.0089 1.3473
54.0800 36.0223 1.3534
54.1000 36.0356 1.3534
54.1200 36.0490 1.3519
54.1400 36.0623 1.3545
54.1600 36.0756 1.3568
54.1800 36.0890 1.3552
54.2000 36.1023 1.3526
54.2200 36.1156 1.3620
54.2400 36.1290 1.3596
54.2600 36.1423 1.3580
54.2800 36.1557 1.3645
54.3000 36.1690 1.3597
54.3200 36.1823 1.3681
54.3400 36.1957 1.3639
54.3600 36.2090 1.3658
54.3800 36.2224 1.3671
54.4000 36.2357 1.3655
54.4200 36.2490 1.3709
54.4400 36.2623 1.3712
54.4600 36.2756 1.3698
54.4800 36.2889 1.3752
54.5000 36.3022 1.3825
54.5200 36.3156 1.3673
54.5400 36.3290 1.3777
54.5600 36.3423 1.3792
54.5800 36.3556 1.3679
54.6000 36.3690 1.3845
54.6200 36.3823 1.3844
54.6400 36.3957 1.3717
54.6600 36.4090 1.3864
54.6800 36.4223 1.3884
54.7000 36.4356 1.3772
54.7200 36.4490 1.3926
54.7400 36.4624 1.3877
54.7600 36.4757 1.3832
54.7800 36.4890 1.3941
54.8000 36.5024 1.3860
54.8200 36.5157 1.3880
54.8400 36.5290 1.3993
54.8600 36.5423 1.3891
54.8800 36.5556 1.3912
54.9000 36.5689 1.3984
54.9200 36.5823 1.3922
54.9400 36.5956 1.3986
54.9600 36.6089 1.4014
54.9800 36.6223 1.3976
55.0000 36.6357 1.4009
55.0200 36.6491 1.4011
55.0400 36.6624 1.4017
55.0600 36.6757 1.4079
55.0800 36.6891 1.4032
55.1000 36.7024 1.4057
55.1200 36.7156 1.4063
55.1400 36.7289 1.4070
55.1600 36.7423 1.4138
55.1800 36.7556 1.4059
55.2000 36.7689 1.4100
55.2200 36.7822 1.4178
55.2400 36.7956 1.4033
55.2600 36.8089 1.4139
55.2800 36.8223 1.4230
55.3000 36.8356 1.4062
55.3200 36.8490 1.4195
55.3400 36.8623 1.4241
55.3600 36.8757 1.4086
55.3800 36.8891 1.4259
55.4000 36.9024 1.4258
55.4200 36.9157 1.4159
55.4400 36.9291 1.4293
55.4600 36.9424 1.4266
55.4800 36.9557 1.4226
55.5000 36.9689 1.4318
55.5200 36.9823 1.4318
55.5400 36.9956 1.4272
55.5600 37.0089 1.4349
55.5800 37.0223 1.4340
55.6000 37.0356 1.4287
55.6200 37.0489 1.4382
55.6400 37.0623 1.4339
55.6600 37.0756 1.4325
55.6800 37.0890 1.4457
55.7000 37.1023 1.4397
55.7200 37.1157 1.4359
55.7400 37.1290 1.4478
55.7600 37.1423 1.4436
55.7800 37.1557 1.4403
55.8000 37.1690 1.4487
55.8200 37.1824 1.4483
55.8400 37.1957 1.4478
55.8600 37.2090 1.4499
55.8800 37.2223 1.4489
55.9000 37.2357 1.4483
55.9200 37.2490 1.4574
55.9400 37.2623 1.4546
55.9600 37.2756 1.4504
55.9800 37.2889 1.4593
56.0000 37.3023 1.4578
56.0200 37.3156 1.4549
56.0400 37.3290 1.4652
56.0600 37.3423 1.4586
56.0800 37.3557 1.4604
56.1000 37.3690 1.4672
56.1200 37.3824 1.4672
56.1400 37.3957 1.4604
56.1600 37.4090 1.4689
56.1800 37.4224 1.4681
56.2000 37.4356 1.4638
56.2200 37.4489 1.4750
56.2400 37.4623 1.4737
56.2600 37.4757 1.4709
56.2800 37.4890 1.4776
56.3000 37.5023 1.4711
56.3200 37.5156 1.4732
56.3400 37.5289 1.4801
56.3600 37.5423 1.4791
56.3800 37.5556 1.4774
56.4000 37.5689 1.4833
56.4200 37.5823 1.4824
56.4400 37.5957 1.4772
56.4600 37.6090 1.4881
56.4800 37.6223 1.4903
56.5000 37.6357 1.4829
56.5200 37.6490 1.4866
56.5400 37.6624 1.4949
56.5600 37.6757 1.4865
56.5800 37.6890 1.4931
56.6000 37.7023 1.4957
56.6200 37.7157 1.4897
56.6400 37.7290 1.4975
56.6600 37.7423 1.5008
56.6800 37.7556 1.4957
56.7000 37.7689 1.5006
56.7200 37.7823 1.5002
56.7400 37.7956 1.4978
56.7600 37.8090 1.5041
56.7800 37.8223 1.5048
56.8000 37.8357 1.5040
56.8200 37.8490 1.5035
56.8400 37.8623 1.5059
56.8600 37.8756 1.5110
56.8800 37.8890 1.5078
56.9000 37.9024 1.5111
56.9200 37.9157 1.5182
56.9400 37.9290 1.5079
56.9600 37.9423 1.5151
56.9800 37.9557 1.5202
57.0000 37.9690 1.5106
57.0200 37.9823 1.5258
57.0400 37.9956 1.5216
57.0600 38.0089 1.5149
57.0800 38.0223 1.5301
57.1000 38.0356 1.5263
57.1200 38.0489 1.5221
57.1400 38.0623 1.5324
57.1600 38.0757 1.5246
57.1800 38.0891 1.5255
57.2000 38.1024 1.5383
57.2200 38.1157 1.5314
57.2400 38.1291 1.5299
57.2600 38.1424 1.5358
57.2800 38.1557 1.5339
57.3000 38.1690 1.5347
57.3200 38.1822 1.5441
57.3400 38.1956 1.5384
57.3600 38.2089 1.5404
57.3800 38.2222 1.5404
57.4000 38.2356 1.5436
57.4200 38.2490 1.5443
57.4400 38.2623 1.5453
57.4600 38.2757 1.5481
57.4800 38.2890 1.5491
57.5000 38.3024 1.5540
57.5200 38.3157 1.5472
57.5400 38.3291 1.5504
57.5600 38.3424 1.5624
57.5800 38.3557 1.5524
57.6000 38.3690 1.5558
57.6200 38.3824 1.5649
57.6400 38.3957 1.5524
57.6600 38.4090 1.5594
57.6800 38.4223 1.5703
57.7000 38.4356 1.5574
57.7200 38.4490 1.5643
57.7400 38.4623 1.5730
57.7600 38.4756 1.5623
57.7800 38.4889 1.5688
57.8000 38.5023 1.5755
57.8200 38.5156 1.5658
57.8400 38.5290 1.5729
57.8600 38.5423 1.5801
57.8800 38.5557 1.5698
57.9000 38.5690 1.5777
57.9200 38.5823 1.5758
57.9400 38.5957 1.5793
57.9600 38.6090 1.5761
57.9800 38.6224 1.5785
58.0000 38.6357 1.5855
58.0200 38.6490 1.5778
58.0400 38.6623 1.5848
58.0600 38.6757 1.5911
58.0800 38.6890 1.5794
58.1000 38.7023 1.5913
58.1200 38.7156 1.5928
58.1400 38.7289 1.5873
58.1600 38.7423 1.5954
58.1800 38.7556 1.5945
58.2000 38.7689 1.5876
58.2200 38.7823 1.6055
58.2400 38.7957 1.5954
58.2600 38.8091 1.5929
58.2800 38.8224 1.6084
58.3000 38.8357 1.5996
58.3200 38.8490 1.5998
58.3400 38.8624 1.6111
58.3600 38.8757 1.6056
58.3800 38.8890 1.6072
58.4000 38.9023 1.6157
58.4200 38.9156 1.6060
58.4400 38.9290 1.6127
58.4600 38.9423 1.6178
58.4800 38.9556 1.6085
58.5000 38.9689 1.6195
58.5200 38.9823 1.6189
58.5400 38.9956 1.6153
58.5600 39.0090 1.6264
58.5800 39.0223 1.6192
58.6000 39.0357 1.6229
58.6200 39.0490 1.6260
58.6400 39.0623 1.6261
58.6600 39.0756 1.6276
58.6800 39.0890 1.6260
58.7000 39.1024 1.6269
58.7200 39.1157 1.6343
58.7400 39.1290 1.6320
58.7600 39.1423 1.6328
58.7800 39.1556 1.6370
58.8000 39.1690 1.6317
58.8200 39.1823 1.6385
58.8400 39.1956 1.6445
58.8600 39.2089 1.6372
58.8800 39.2223 1.6425
58.9000 39.2356 1.6452
58.9200 39.2490 1.6452
58.9400 39.2623 1.6441
58.9600 39.2757 1.6498
58.9800 39.2891 1.6487
59.0000 39.3024 1.6486
59.0200 39.3157 1.6539
59.0400 39.3290 1.6511
59.0600 39.3424 1.6548
59.0800 39.3557 1.6616
59.1000 39.3690 1.6569
59.1200 39.3823 1.6595
59.1400 39.3956 1.6645
59.1600 39.4090 1.6611
59.1800 39.4223 1.6634
59.2000 39.4356 1.6676
59.2200 39.4489 1.6689
59.2400 39.4623 1.6631
59.2600 39.4756 1.6708
59.2800 39.4889 1.6715
59.3000 39.5023 1.6675
59.3200 39.5157 1.6804
59.3400 39.5290 1.6731
59.3600 39.5424 1.6715
59.3800 39.5557 1.6853
59.4000 39.5690 1.6744
59.4200 39.5824 1.6786
59.4400 39.5957 1.6885
59.4600 39.6090 1.6817
59.4800 39.6223 1.6822
59.5000 39.6356 1.6976
59.5200 39.6489 1.6842
59.5400 39.6623 1.6892
59.5600 39.6756 1.6971
59.5800 39.6889 1.6885
59.6000 39.7023 1.6943
59.6200 39.7157 1.6998
59.6400 39.7290 1.6924
59.6600 39.7423 1.6975
59.6800 39.7557 1.7058
59.7000 39.7690 1.6994
59.7200 39.7823 1.6973
59.7400 39.7956 1.7092
59.7600 39.8090 1.7008
59.7800 39.8223 1.7072
59.8000 39.8357 1.7113
59.8200 39.8490 1.7112
59.8400 39.8623 1.7101
59.8600 39.8757 1.7149
59.8800 39.8890 1.7128
59.9000 39.9024 1.7149
59.9200 39.9156 1.7191
59.9400 39.9290 1.7163
59.9600 39.9423 1.7173
59.9800 39.9556 1.7288
60.0000 39.9689 1.7222
60.0200 39.9823 1.7219
60.0400 39.9956 1.7261
60.0470 40.0002 1.7126
60.0480 40.0008 1.7094
60.0490 40.0015 1.7064
60.0690 40.0119 1.6146
60.0890 40.0140 1.5661
60.1090 40.0056 1.6648
60.1290 39.9928 1.7403
60.1490 39.9799 1.7104
60.1690 39.9670 1.6847
60.1890 39.9536 1.7095
60.2090 39.9396 1.6963
60.2290 39.9255 1.6870
60.2490 39.9118 1.7047
60.2690 39.8983 1.6783
60.2890 39.8850 1.6831
60.3090 39.8717 1.6762
60.3290 39.8584 1.6708
60.3490 39.8450 1.6654
60.3690 39.8316 1.6678
60.3890 39.8183 1.6537
60.4090 39.8049 1.6564
60.4290 39.7916 1.6587
60.4490 39.7782 1.6388
60.4690 39.7649 1.6527
60.4890 39.7515 1.6430
60.5090 39.7382 1.6366
60.5290 39.7249 1.6351
60.5490 39.7115 1.6339
60.5690 39.6982 1.6307
60.5890 39.6849 1.6240
60.6090 39.6715 1.6213
60.6290 39.6582 1.6155
60.6490 39.6449 1.6194
60.6690 39.6316 1.6118
60.6890 39.6183 1.6078
60.7090 39.6050 1.6076
60.7290 39.5916 1.6025
60.7490 39.5782 1.5982
60.7690 39.5649 1.5989
60.7890 39.5516 1.5904
60.8090 39.5383 1.5924
60.8290 39.5249 1.5908
60.8490 39.5115 1.5788
60.8690 39.4982 1.5803
60.8890 39.4849 1.5825
60.9090 39.4715 1.5786
60.9290 39.4582 1.5663
60.9490 39.4449 1.5719
60.9690 39.4316 1.5641
60.9890 39.4182 1.5644
61.0090 39.4049 1.5616
61.0290 39.3916 1.5549
61.0490 39.3783 1.5583
61.0690 39.3649 1.5526
61.0890 39.3516 1.5472
61.1090 39.3382 1.5490
61.1290 39.3249 1.5434
61.1490 39.3116 1.5392
61.1690 39.2982 1.5396
61.1890 39.2848 1.5351
61.2090 39.2715 1.5328
61.2290 39.2582 1.5322
61.2490 39.2449 1.5235
61.2690 39.2315 1.5226
61.2890 39.2182 1.5230
61.3090 39.2048 1.5152
61.3290 39.1915 1.5153
61.3490 39.1782 1.5119
61.3690 39.1648 1.5094
61.3890 39.1515 1.5089
61.4090 39.1383 1.5086
61.4290 39.1249 1.5063
61.4490 39.1116 1.5001
61.4690 39.0982 1.4973
61.4890 39.0849 1.4976
61.5090 39.0716 1.4927
61.5290 39.0582 1.4864
61.5490 39.0448 1.4858
61.5690 39.0315 1.4931
61.5890 39.0182 1.4790
61.6090 39.0049 1.4782
61.6290 38.9915 1.4795
61.6490 38.9782 1.4722
61.6690 38.9649 1.4719
61.6890 38.9515 1.4759
61.7090 38.9382 1.4650
61.7290 38.9249 1.4698
61.7490 38.9116 1.4625
61.7690 38.8983 1.4573
61.7890 38.8849 1.4615
61.8090 38.8716 1.4570
61.8290 38.8582 1.4512
61.8490 38.8449 1.4555
61.8690 38.8316 1.4460
61.8890 38.8182 1.4440
61.9090 38.8049 1.4485
61.9290 38.7915 1.4399
61.9490 38.7782 1.4395
61.9690 38.7649 1.4427
61.9890 38.7515 1.4300
62.0090 38.7381 1.4365
62.0290 38.7248 1.4295
62.0490 38.7115 1.4276
62.0690 38.6982 1.4269
62.0890 38.6849 1.4191
62.1090 38.6716 1.4266
62.1290 38.6583 1.4221
62.1490 38.6449 1.4116
62.1690 38.6315 1.4169
62.1890 38.6182 1.4176
62.2090 38.6049 1.4008
62.2290 38.5916 1.4118
62.2490 38.5782 1.4132
62.2690 38.5649 1.3951
62.2890 38.5515 1.4089
62.3090 38.5382 1.4047
62.3290 38.5249 1.3874
62.3490 38.5115 1.4025
62.3690 38.4982 1.3936
62.3890 38.4848 1.3849
62.4090 38.4715 1.3934
62.4290 38.4582 1.3904
62.4490 38.4448 1.3800
62.4690 38.4315 1.3906
62.4890 38.4182 1.3789
62.5090 38.4049 1.3740
62.5290 38.3916 1.3849
62.5490 38.3782 1.3737
62.5690 38.3649 1.3668
62.5890 38.3516 1.3793
62.6090 38.3382 1.3652
62.6290 38.3248 1.3624
62.6490 38.3115 1.3734
62.6690 38.2982 1.3637
62.6890 38.2849 1.3550
62.7090 38.2715 1.3638
62.7290 38.2581 1.3598
62.7490 38.2448 1.3491
62.7690 38.2315 1.3614
62.7890 38.2182 1.3522
62.8090 38.2049 1.3418
62.8290 38.1915 1.3526
62.8490 38.1782 1.3500
62.8690 38.1649 1.3381
62.8890 38.1516 1.3435
62.9090 38.1382 1.3409
62.9290 38.1249 1.3365
62.9490 38.1116 1.3381
62.9690 38.0982 1.3330
62.9890 38.0849 1.3290
63.0090 38.0715 1.3363
63.0290 38.0581 1.3271
63.0490 38.0448 1.3229
63.0690 38.0315 1.3261
63.0890 38.0181 1.3245
63.1090 38.0048 1.3156
63.1290 37.9915 1.3211
63.1490 37.9782 1.3207
63.1690 37.9649 1.3113
63.1890 37.9516 1.3188
63.2090 37.9383 1.3142
63.2290 37.9250 1.3031
63.2490 37.9116 1.3157
63.2690 37.8982 1.3080
63.2890 37.8849 1.3005
63.3090 37.8716 1.3054
63.3290 37.8582 1.2983
63.3490 37.8449 1.2912
63.3690 37.8315 1.3067
63.3890 37.8182 1.2942
63.4090 37.8049 1.2849
63.4290 37.7915 1.3030
63.4490 37.7782 1.2848
63.4690 37.7648 1.2826
63.4890 37.7515 1.3000
63.5090 37.7382 1.2795
63.5290 37.7249 1.2802
63.5490 37.7116 1.2923
63.5690 37.6983 1.2727
63.5890 37.6849 1.2726
63.6090 37.6716 1.2880
63.6290 37.6582 1.2672
63.6490 37.6449 1.2705
63.6690 37.6316 1.2854
63.6890 37.6182 1.2625
63.7090 37.6049 1.2684
63.7290 37.5915 1.2779
63.7490 37.5782 1.2584
63.7690 37.5649 1.2635
63.7890 37.5515 1.2669
63.8090 37.5382 1.2540
63.8290 37.5248 1.2640
63.8490 37.5115 1.2628
63.8690 37.4982 1.2448
63.8890 37.4849 1.2565
63.9090 37.4715 1.2586
63.9290 37.4582 1.2426
63.9490 37.4449 1.2535
63.9690 37.4315 1.2493
63.9890 37.4182 1.2471
64.0090 37.4049 1.2453
64.0290 37.3916 1.2447
64.0490 37.3783 1.2444
64.0690 37.3649 1.2381
64.0890 37.3515 1.2384
64.1090 37.3382 1.2415
64.1290 37.3249 1.2313
64.1490 37.3115 1.2350
64.1690 37.2981 1.2396
64.1890 37.2848 1.2277
64.2090 37.2715 1.2301
64.2290 37.2582 1.2310
64.2490 37.2449 1.2227
64.2690 37.2315 1.2279
64.2890 37.2182 1.2309
64.3090 37.2049 1.2160
64.3290 37.1916 1.2213
64.3490 37.1782 1.2239
64.3690 37.1649 1.2127
64.3890 37.1516 1.2181
64.4090 37.1382 1.2163
64.4290 37.1249 1.2075
64.4490 37.1115 1.2204
64.4690 37.0982 1.2045
64.4890 37.0849 1.2069
64.5090 37.0715 1.2149
64.5290 37.0582 1.2035
64.5490 37.0448 1.2029
64.5690 37.0315 1.2071
64.5890 37.0182 1.1991
64.6090 37.0048 1.2025
64.6290 36.9915 1.1986
64.6490 36.9782 1.1956
64.6690 36.9649 1.1984
64.6890 36.9516 1.1957
64.7090 36.9382 1.1906
64.7290 36.9249 1.1942
64.7490 36.9116 1.1886
64.7690 36.8983 1.1860
64.7890 36.8849 1.1881
64.8090 36.8715 1.1826
64.8290 36.8582 1.1864
64.8490 36.8448 1.1879
64.8690 36.8315 1.1751
64.8890 36.8181 1.1818
64.9090 36.8048 1.1826
64.9290 36.7915 1.1788
64.9490 36.7782 1.1816
64.9690 36.7649 1.1732
64.9890 36.7516 1.1721
65.0090 36.7383 1.1749
65.0290 36.7249 1.1679
65.0490 36.7116 1.1692
65.0690 36.6982 1.1712
65.0890 36.6849 1.1621
65.1090 36.6716 1.1652
65.1290 36.6582 1.1676
65.1490 36.6449 1.1561
65.1690 36.6315 1.1614
65.1890 36.6182 1.1668
65.2090 36.6048 1.1495
65.2290 36.5915 1.1580
65.2490 36.5782 1.1588
65.2690 36.5648 1.1495
65.2890 36.5515 1.1536
65.3090 36.5382 1.1556
65.3290 36.5249 1.1462
65.3490 36.5116 1.1492
65.3690 36.4983 1.1528
65.3890 36.4850 1.1429
65.4090 36.4716 1.1452
65.4290 36.4582 1.1489
65.4490 36.4449 1.1399
65.4690 36.4315 1.1455
65.4890 36.4182 1.1413
65.5090 36.4048 1.1369
65.5290 36.3915 1.1379
65.5490 36.3782 1.1388
65.5690 36.3649 1.1312
65.5890 36.3515 1.1382
65.6090 36.3382 1.1341
65.6290 36.3249 1.1297
65.6490 36.3115 1.1350
65.6690 36.2982 1.1308
65.6890 36.2849 1.1278
65.7090 36.2715 1.1268
65.7290 36.2582 1.1284
65.7490 36.2449 1.1209
65.7690 36.2316 1.1196
65.7890 36.2182 1.1273
65.8090 36.2049 1.1172
65.8290 36.1916 1.1203
65.8490 36.1782 1.1176
65.8690 36.1649 1.1121
65.8890 36.1515 1.1196
65.9090 36.1381 1.1155
65.9290 36.1249 1.1141
65.9490 36.1115 1.1086
65.9690 36.0982 1.1123
65.9890 36.0848 1.1086
66.0090 36.0715 1.1070
66.0290 36.0582 1.1108
66.0490 36.0449 1.1087
66.0690 36.0315 1.1008
66.0890 36.0182 1.1062
66.1090 36.0049 1.1018
66.1290 35.9916 1.0977
66.1490 35.9782 1.1053
66.1690 35.9649 1.0976
66.1890 35.9515 1.0944
66.2090 35.9382 1.0994
66.2290 35.9249 1.0950
66.2490 35.9115 1.0925
66.2690 35.8982 1.0967
66.2890 35.8849 1.0879
66.3090 35.8715 1.0876
66.3290 35.8582 1.0963
66.3490 35.8448 1.0868
66.3690 35.8315 1.0913
66.3890 35.8182 1.0912
66.4090 35.8049 1.0839
66.4290 35.7915 1.0887
66.4490 35.7782 1.0871
66.4690 35.7649 1.0797
66.4890 35.7516 1.0798
66.5090 35.7383 1.0815
66.5290 35.7249 1.0787
66.5490 35.7116 1.0826
66.5690 35.6982 1.0745
66.5890 35.6849 1.0751
66.6090 35.6715 1.0760
66.6290 35.6582 1.0745
66.6490 35.6449 1.0776
66.6690 35.6315 1.0703
66.6890 35.6182 1.0666
66.7090 35.6048 1.0746
66.7290 35.5915 1.0657
66.7490 35.5782 1.0659
66.7690 35.5649 1.0704
66.7890 35.5515 1.0621
66.8090 35.5382 1.0625
66.8290 35.5249 1.0678
66.8490 35.5116 1.0571
66.8690 35.4982 1.0622
66.8890 35.4849 1.0653
66.9090 35.4716 1.0519
66.9290 35.4583 1.0549
66.9490 35.4449 1.0611
66.9690 35.4315 1.0496
66.9890 35.4181 1.0549
67.0090 35.4048 1.0568
67.0290 35.3915 1.0506
67.0490 35.3782 1.0494
67.0690 35.3648 1.0517
67.0890 35.3515 1.0516
67.1090 35.3382 1.0469
67.1290 35.3249 1.0464
67.1490 35.3116 1.0484
67.1690 35.2982 1.0430
67.1890 35.2849 1.0461
67.2090 35.2716 1.0417
67.2290 35.2583 1.0403
67.2490 35.2449 1.0424
67.2690 35.2315 1.0410
67.2890 35.2182 1.0303
67.3090 35.2049 1.0399
67.3290 35.1915 1.0404
67.3490 35.1782 1.0313
67.3690 35.1649 1.0401
67.3890 35.1516 1.0377
67.4090 35.1382 1.0240
67.4290 35.1249 1.0357
67.4490 35.1115 1.0371
67.4690 35.0982 1.0196
67.4890 35.0849 1.0309
67.5090 35.0715 1.0303
67.5290 35.0582 1.0180
67.5490 35.0449 1.0348
67.5690 35.0316 1.0209
67.5890 35.0182 1.0179
67.6090 35.0049 1.0315
67.6290 34.9916 1.0168
67.6490 34.9782 1.0175
67.6690 34.9649 1.0206
67.6890 34.9515 1.0172
67.7090 34.9382 1.0192
67.7290 34.9249 1.0204
67.7490 34.9116 1.0149
67.7690 34.8982 1.0144
67.7890 34.8848 1.0161
67.8090 34.8715 1.0145
67.8290 34.8582 1.0089
67.8490 34.8449 1.0153
67.8690 34.8315 1.0086
67.8890 34.8182 1.0092
67.9090 34.8049 1.0129
67.9290 34.7916 1.0046
67.9490 34.7783 1.0058
67.9690 34.7649 1.0103
67.9890 34.7516 1.0046
68.0090 34.7383 0.9969
68.0290 34.7249 1.0101
68.0490 34.7116 1.0007
68.0690 34.6982 0.9969
68.0890 34.6849 1.0041
68.1090 34.6715 0.9956
68.1290 34.6582 0.9974
68.1490 34.6448 1.0015
68.1690 34.6315 0.9971
68.1890 34.6182 0.9923
68.2090 34.6049 0.9958
68.2290 34.5915 0.9981
68.2490 34.5782 0.9926
68.2690 34.5649 0.9973
68.2890 34.5516 0.9872
68.3090 34.5382 0.9893
68.3290 34.5249 0.9923
68.3490 34.5115 0.9882
68.3690 34.4982 0.9853
68.3890 34.4849 0.9884
68.4090 34.4715 0.9873
68.4290 34.4581 0.9800
68.4490 34.4448 0.9902
68.4690 34.4315 0.9843
68.4890 34.4182 0.9782
68.5090 34.4048 0.9851
68.5290 34.3915 0.9822
68.5490 34.3782 0.9776
68.5690 34.3648 0.9808
68.5890 34.3515 0.9807
68.6090 34.3382 0.9705
68.6290 34.3249 0.9805
68.6490 34.3116 0.9738
68.6690 34.2982 0.9686
68.6890 34.2849 0.9779
68.7090 34.2715 0.9735
68.7290 34.2582 0.9658
68.7490 34.2449 0.9724
68.7690 34.2315 0.9689
68.7890 34.2181 0.9662
68.8090 34.2048 0.9730
68.8290 34.1915 0.9695
68.8490 34.1782 0.9574
68.8690 34.1648 0.9721
68.8890 34.1515 0.9641
68.9090 34.1382 0.9594
68.9290 34.1249 0.9692
68.9490 34.1116 0.9565
68.9690 34.0982 0.9634
68.9890 34.0849 0.9639
69.0090 34.0716 0.9508
69.0290 34.0583 0.9609
69.0490 34.0449 0.9602
69.0690 34.0315 0.9532
69.0890 34.0182 0.9570
69.1090 34.0049 0.9528
69.1290 33.9915 0.9505
69.1490 33.9782 0.9577
69.1690 33.9648 0.9482
69.1890 33.9515 0.9512
69.2090 33.9382 0.9572
69.2290 33.9248 0.9393
69.2490 33.9115 0.9487
69.2690 33.8982 0.9491
69.2890 33.8849 0.9401
69.3090 33.8716 0.9471
69.3290 33.8582 0.9445
69.3490 33.8449 0.9387
69.3690 33.8316 0.9423
69.3890 33.8182 0.9444
69.4090 33.8049 0.9356
69.4290 33.7915 0.9405
69.4490 33.7782 0.9451
69.4690 33.7649 0.9351
69.4890 33.7515 0.9363
69.5090 33.7382 0.9389
69.5290 33.7249 0.9318
69.5490 33.7115 0.9368
69.5690 33.6982 0.9374
69.5890 33.6848 0.9296
69.6090 33.6715 0.9321
69.6290 33.6582 0.9315
69.6490 33.6449 0.9290
69.6690 33.6315 0.9348
69.6890 33.6182 0.9299
69.7090 33.6049 0.9239
69.7290 33.5916 0.9324
69.7490 33.5783 0.9296
69.7690 33.5649 0.9187
69.7890 33.5516 0.9342
69.8090 33.5382 0.9278
69.8290 33.5249 0.9139
69.8490 33.5115 0.9291
69.8690 33.4982 0.9256
69.8890 33.4848 0.9149
69.9090 33.4715 0.9258
69.9290 33.4582 0.9173
69.9490 33.4448 0.9155
69.9690 33.4314 0.9209
69.9890 33.4181 0.9156
70.0090 33.4048 0.9158
70.0290 33.3915 0.9187
70.0490 33.3782 0.9157
70.0690 33.3649 0.9150
70.0890 33.3516 0.9136
70.1090 33.3383 0.9130
70.1290 33.3249 0.9089
70.1490 33.3116 0.9146
70.1690 33.2983 0.9105
70.1890 33.2849 0.9053
70.2090 33.2716 0.9104
70.2290 33.2582 0.9129
70.2490 33.2448 0.9022
70.2690 33.2315 0.9100
70.2890 33.2182 0.9034
70.3090 33.2048 0.9053
70.3290 33.1914 0.9022
70.3490 33.1781 0.9065
70.3690 33.1649 0.9006
70.3890 33.1515 0.8999
70.4090 33.1382 0.9058
70.4290 33.1249 0.8943
70.4490 33.1116 0.9027
70.4690 33.0983 0.8989
70.4890 33.0849 0.8929
70.5090 33.0716 0.9028
70.5290 33.0582 0.8952
70.5490 33.0449 0.8896
70.5690 33.0315 0.9012
70.5890 33.0182 0.8958
70.6090 33.0048 0.8854
70.6290 32.9915 0.8948
70.6490 32.9782 0.8858
70.6690 32.9648 0.8942
70.6890 32.9515 0.9023
70.7090 32.9381 0.8819
70.7290 32.9248 0.8863
70.7490 32.9115 0.8862
70.7690 32.8982 0.8805
70.7890 32.8849 0.8866
70.8090 32.8716 0.8890
70.8290 32.8583 0.8786
70.8490 32.8449 0.8881
70.8690 32.8316 0.8813
70.8890 32.8182 0.8816
70.9090 32.8049 0.8860
70.9290 32.7915 0.8742
70.9490 32.7781 0.8850
70.9690 32.7648 0.8818
70.9890 32.7515 0.8715
71.0090 32.7382 0.8848
71.0290 32.7248 0.8728
71.0490 32.7115 0.8724
71.0690 32.6982 0.8850
71.0890 32.6849 0.8718
71.1090 32.6715 0.8714
71.1290 32.6582 0.8780
71.1490 32.6449 0.8688
71.1690 32.6316 0.8693
71.1890 32.6183 0.8744
71.2090 32.6049 0.8694
71.2290 32.5915 0.8720
71.2490 32.5782 0.8741
71.2690 32.5649 0.8638
71.2890 32.5516 0.8655
71.3090 32.5382 0.8701
71.3290 32.5249 0.8620
71.3490 32.5115 0.8592
71.3690 32.4982 0.8730
71.3890 32.4848 0.8652
71.4090 32.4715 0.8592
71.4290 32.4581 0.8701
71.4490 32.4448 0.8569
71.4690 32.4315 0.8568
71.4890 32.4182 0.8681
71.5090 32.4049 0.8591
71.5290 32.3916 0.8573
71.5490 32.3783 0.8675
71.5690 32.3649 0.8520
71.5890 32.3515 0.8579
71.6090 32.3382 0.8672
71.6290 32.3249 0.8448
71.6490 32.3116 0.8570
71.6690 32.2982 0.8636
71.6890 32.2849 0.8475
71.7090 32.2716 0.8558
71.7290 32.2582 0.8605
71.7490 32.2449 0.8433
71.7690 32.2315 0.8535
71.7890 32.2181 0.8580
71.8090 32.2048 0.8390
71.8290 32.1915 0.8504
71.8490 32.1782 0.8547
71.8690 32.1648 0.8402
71.8890 32.1516 0.8478
71.9090 32.1383 0.8572
71.9290 32.1249 0.8402
71.9490 32.1116 0.8461
71.9690 32.0983 0.8549
71.9890 32.0850 0.8346
72.0090 32.0716 0.8476
72.0290 32.0582 0.8560
72.0490 32.0448 0.8324
72.0690 32.0315 0.8391
72.0890 32.0182 0.8504
72.1090 32.0048 0.8314
72.1290 31.9915 0.8396
72.1490 31.9782 0.8466
72.1690 31.9649 0.8314
72.1890 31.9515 0.8353
72.2090 31.9382 0.8480
72.2290 31.9249 0.8262
72.2490 31.9116 0.8364
72.2690 31.8983 0.8484
72.2890 31.8849 0.8231
72.3090 31.8715 0.8373
72.3290 31.8582 0.8393
72.3490 31.8449 0.8197
72.3690 31.8315 0.8384
72.3890 31.8182 0.8364
72.4090 31.8048 0.8230
72.4290 31.7915 0.8353
72.4490 31.7782 0.8303
72.4690 31.7648 0.8192
72.4890 31.7515 0.8334
72.5090 31.7381 0.8322
72.5290 31.7248 0.8225
72.5490 31.7115 0.8284
72.5690 31.6982 0.8250
72.5890 31.6849 0.8252
72.6090 31.6716 0.8307
72.6290 31.6583 0.8196
72.6490 31.6449 0.8295
72.6690 31.6315 0.8274
72.6890 31.6182 0.8197
72.7090 31.6049 0.8244
72.7290 31.5915 0.8183
72.7490 31.5782 0.8178
72.7690 31.5648 0.8227
72.7890 31.5515 0.8244
72.8090 31.5382 0.8147
72.8290 31.5249 0.8193
72.8490 31.5115 0.8200
72.8690 31.4982 0.8092
72.8890 31.4849 0.8213
72.9090 31.4716 0.8171
72.9290 31.4582 0.8121
72.9490 31.4449 0.8221
72.9690 31.4316 0.8135
72.9890 31.4183 0.8062
73.0090 31.4049 0.8183
73.0290 31.3916 0.8104
73.0490 31.3782 0.8047
73.0690 31.3649 0.8175
73.0890 31.3516 0.8066
73.1090 31.3382 0.8106
73.1290 31.3248 0.8153
73.1490 31.3115 0.8059
73.1690 31.2982 0.8053
73.1890 31.2849 0.8086
73.2090 31.2715 0.8033
73.2290 31.2582 0.8047
73.2490 31.2449 0.8047
73.2690 31.2315 0.8020
73.2890 31.2182 0.8100
73.3090 31.2049 0.8072
73.3290 31.1916 0.7994
73.3490 31.1783 0.8030
73.3690 31.1649 0.8015
73.3890 31.1516 0.8002
73.4090 31.1382 0.8026
73.4290 31.1249 0.7963
73.4490 31.1116 0.7984
73.4690 31.0982 0.7973
73.4890 31.0848 0.7987
73.5090 31.0715 0.7998
73.5290 31.0582 0.7932
73.5490 31.0449 0.7920
73.5690 31.0315 0.7989
73.5890 31.0181 0.7958
73.6090 31.0048 0.7952
73.6290 30.9915 0.7971
73.6490 30.9782 0.7889
73.6690 30.9649 0.7950
73.6890 30.9516 0.7954
73.7090 30.9383 0.7829
73.7290 30.9249 0.7932
73.7490 30.9116 0.7924
73.7690 30.8982 0.7882
73.7890 30.8849 0.7898
73.8090 30.8716 0.7881
73.8290 30.8582 0.7803
73.8490 30.8448 0.7930
73.8690 30.8315 0.7846
73.8890 30.8182 0.7794
73.9090 30.8048 0.7934
73.9290 30.7915 0.7825
73.9490 30.7781 0.7808
73.9690 30.7648 0.7906
73.9890 30.7515 0.7795
74.0090 30.7382 0.7773
74.0290 30.7249 0.7884
74.0490 30.7116 0.7799
74.0690 30.6983 0.7737
74.0890 30.6849 0.7894
74.1090 30.6716 0.7764
74.1290 30.6582 0.7767
74.1490 30.6449 0.7851
74.1690 30.6316 0.7743
74.1890 30.6182 0.7758
74.2090 30.6048 0.7813
74.2290 30.5915 0.7745
74.2490 30.5782 0.7713
74.2690 30.5648 0.7772
74.2890 30.5515 0.7730
74.3090 30.5381 0.7708
74.3290 30.5248 0.7779
74.3490 30.5116 0.7714
74.3690 30.4982 0.7672
74.3890 30.4849 0.7753
74.4090 30.4716 0.7706
74.4290 30.4583 0.7653
74.4490 30.4449 0.7715
74.4690 30.4316 0.7702
74.4890 30.4182 0.7662
74.5090 30.4049 0.7735
74.5290 30.3916 0.7648
74.5490 30.3782 0.7610
74.5690 30.3648 0.7712
74.5890 30.3515 0.7666
74.6090 30.3382 0.7620
74.6290 30.3249 0.7707
74.6490 30.3115 0.7617
74.6690 30.2982 0.7665
74.6890 30.2849 0.7649
74.7090 30.2715 0.7582
74.7290 30.2582 0.7594
74.7490 30.2448 0.7660
74.7690 30.2315 0.7568
74.7890 30.2182 0.7555
74.8090 30.2049 0.7665
74.8290 30.1915 0.7548
74.8490 30.1782 0.7550
74.8690 30.1649 0.7629
74.8890 30.1516 0.7541
74.9090 30.1382 0.7551
74.9290 30.1248 0.7617
74.9490 30.1115 0.7560
74.9690 30.0982 0.7527
74.9890 30.0849 0.7562
75.0090 30.0715 0.7572
75.0290 30.0582 0.7482
75.0490 30.0448 0.7579
75.0690 30.0315 0.7557
75.0890 30.0182 0.7440
75.1090 30.0048 0.7557
75.1290 29.9915 0.7523
75.1490 29.9782 0.7451
75.1690 29.9649 0.7499
75.1890 29.9516 0.7546
75.2090 29.9382 0.7478
75.2290 29.9249 0.7485
75.2490 29.9116 0.7458
75.2690 29.8982 0.7376
75.2890 29.8849 0.7499
75.3090 29.8715 0.7468
75.3290 29.8582 0.7392
75.3490 29.8449 0.7480
75.3690 29.8315 0.7427
75.3890 29.8181 0.7380
75.4090 29.8048 0.7480
75.4290 29.7915 0.7454
75.4490 29.7782 0.7350
75.4690 29.7649 0.7431
75.4890 29.7515 0.7446
75.5090 29.7383 0.7327
75.5290 29.7249 0.7402
75.5490 29.7116 0.7439
75.5690 29.6982 0.7327
75.5890 29.6849 0.7378
75.6090 29.6716 0.7379
75.6290 29.6582 0.7319
75.6490 29.6449 0.7394
75.6690 29.6315 0.7367
75.6890 29.6182 0.7256
75.7090 29.6049 0.7398
75.7290 29.5915 0.7376
75.7490 29.5781 0.7268
75.7690 29.5648 0.7416
75.7890 29.5515 0.7336
75.8090 29.5382 0.7250
75.8290 29.5248 0.7344
75.8490 29.5115 0.7333
75.8690 29.4982 0.7269
75.8890 29.4849 0.7317
75.9090 29.4716 0.7333
75.9290 29.4582 0.7250
75.9490 29.4449 0.7323
75.9690 29.4316 0.7282
75.9890 29.4182 0.7215
76.0090 29.4048 0.7290
76.0290 29.3915 0.7323
76.0490 29.3782 0.7199
76.0690 29.3649 0.7255
76.0890 29.3515 0.7319
76.1090 29.3382 0.7174
76.1290 29.3249 0.7263
76.1490 29.3116 0.7283
76.1690 29.2982 0.7144
76.1890 29.2849 0.7289
76.2090 29.2716 0.7265
76.2290 29.2582 0.7190
76.2490 29.2449 0.7246
76.2690 29.2316 0.7272
76.2890 29.2182 0.7131
76.3090 29.2049 0.7237
76.3290 29.1916 0.7228
76.3490 29.1782 0.7105
76.3690 29.1648 0.7213
76.3890 29.1515 0.7228
76.4090 29.1382 0.7124
76.4290 29.1248 0.7244
76.4490 29.1115 0.7177
76.4690 29.0981 0.7118
76.4890 29.0848 0.7201
76.5090 29.0715 0.7140
76.5290 29.0582 0.7085
76.5490 29.0449 0.7134
76.5690 29.0316 0.7140
76.5890 29.0183 0.7105
76.6090 29.0049 0.7142
76.6290 28.9916 0.7154
76.6490 28.9782 0.7114
76.6690 28.9648 0.7095
76.6890 28.9515 0.7119
76.7090 28.9382 0.7059
76.7290 28.9249 0.7114
76.7490 28.9115 0.7089
76.7690 28.8982 0.7038
76.7890 28.8849 0.7094
76.8090 28.8715 0.7060
76.8290 28.8582 0.7069
76.8490 28.8448 0.7076
76.8690 28.8315 0.7080
76.8890 28.8182 0.7005
76.9090 28.8049 0.7032
76.9290 28.7915 0.7041
76.9490 28.7782 0.7022
76.9690 28.7649 0.7065
76.9890 28.7516 0.6991
77.0090 28.7382 0.6983
77.0290 28.7249 0.6992
77.0490 28.7116 0.7015
77.0690 28.6982 0.7021
77.0890 28.6849 0.6974
77.1090 28.6715 0.6983
77.1290 28.6582 0.7003
77.1490 28.6449 0.6950
77.1690 28.6315 0.6986
77.1890 28.6182 0.7024
77.2090 28.6048 0.6900
77.2290 28.5915 0.6973
77.2490 28.5782 0.6987
77.2690 28.5649 0.6909
77.2890 28.5515 0.6966
77.3090 28.5382 0.6979
77.3290 28.5249 0.6912
77.3490 28.5116 0.6936
77.3690 28.4982 0.6930
77.3890 28.4849 0.6936
77.4090 28.4716 0.6904
77.4290 28.4583 0.6912
77.4490 28.4449 0.6879
77.4690 28.4315 0.6925
77.4890 28.4182 0.6916
77.5090 28.4048 0.6835
77.5290 28.3915 0.6891
77.5490 28.3781 0.6903
77.5690 28.3648 0.6867
77.5890 28.3515 0.6889
77.6090 28.3382 0.6883
77.6290 28.3249 0.6851
77.6490 28.3115 0.6852
77.6690 28.2983 0.6898
77.6890 28.2849 0.6775
77.7090 28.2716 0.6846
77.7290 28.2582 0.6924
77.7490 28.2449 0.6754
77.7690 28.2316 0.6821
77.7890 28.2182 0.6893
77.8090 28.2049 0.6751
77.8290 28.1915 0.6846
77.8490 28.1782 0.6832
77.8690 28.1649 0.6749
77.8890 28.1515 0.6787
77.9090 28.1382 0.6826
77.9290 28.1248 0.6784
77.9490 28.1115 0.6779
77.9690 28.0982 0.6815
77.9890 28.0849 0.6738
78.0090 28.0715 0.6763
78.0290 28.0582 0.6807
78.0490 28.0449 0.6764
78.0690 28.0316 0.6691
78.0890 28.0182 0.6792
78.1090 28.0049 0.6781
78.1290 27.9916 0.6652
78.1490 27.9782 0.6782
78.1690 27.9649 0.6729
78.1890 27.9515 0.6644
78.2090 27.9382 0.6837
78.2290 27.9248 0.6654
78.2490 27.9115 0.6673
78.2690 27.8982 0.6831
78.2890 27.8848 0.6651
78.3090 27.8715 0.6662
78.3290 27.8582 0.6806
78.3490 27.8449 0.6615
78.3690 27.8315 0.6689
78.3890 27.8182 0.6785
78.4090 27.8049 0.6621
78.4290 27.7916 0.6641
78.4490 27.7782 0.6770
78.4690 27.7649 0.6587
78.4890 27.7516 0.6666
78.5090 27.7383 0.6721
78.5290 27.7249 0.6558
78.5490 27.7115 0.6706
78.5690 27.6982 0.6722
78.5890 27.6849 0.6542
78.6090 27.6715 0.6707
78.6290 27.6582 0.6674
78.6490 27.6448 0.6554
78.6690 27.6315 0.6679
78.6890 27.6182 0.6633
78.7090 27.6049 0.6578
78.7290 27.5915 0.6681
78.7490 27.5782 0.6626
78.7690 27.5649 0.6549
78.7890 27.5516 0.6628
78.8090 27.5382 0.6622
78.8290 27.5249 0.6587
78.8490 27.5116 0.6577
78.8690 27.4982 0.6582
78.8890 27.4849 0.6559
78.9090 27.4715 0.6610
78.9290 27.4582 0.6571
78.9490 27.4449 0.6508
78.9690 27.4315 0.6593
78.9890 27.4182 0.6573
79.0090 27.4048 0.6527
79.0290 27.3915 0.6614
79.0490 27.3782 0.6570
79.0690 27.3648 0.6510
79.0890 27.3515 0.6556
79.1090 27.3382 0.6587
79.1290 27.3249 0.6498
79.1490 27.3116 0.6517
79.1690 27.2982 0.6567
79.1890 27.2849 0.6452
79.2090 27.2716 0.6529
79.2290 27.2583 0.6537
79.2490 27.2449 0.6433
79.2690 27.2315 0.6554
79.2890 27.2182 0.6508
79.3090 27.2048 0.6442
79.3290 27.1915 0.6505
79.3490 27.1781 0.6497
79.3690 27.1648 0.6447
79.3890 27.1515 0.6495
79.4090 27.1382 0.6478
79.4290 27.1249 0.6426
79.4490 27.1115 0.6482
79.4690 27.0982 0.6463
79.4890 27.0849 0.6475
79.5090 27.0716 0.6456
79.5290 27.0582 0.6435
79.5490 27.0449 0.6452
79.5690 27.0315 0.6428
79.5890 27.0182 0.6453
79.6090 27.0049 0.6389
79.6290 26.9915 0.6423
79.6490 26.9781 0.6437
79.6690 26.9648 0.6381
79.6890 26.9515 0.6420
79.7090 26.9382 0.6407
79.7290 26.9248 0.6395
79.7490 26.9115 0.6360
79.7690 26.8982 0.6463
79.7890 26.8849 0.6391
79.8090 26.8716 0.6341
79.8290 26.8582 0.6433
79.8490 26.8449 0.6286
79.8690 26.8316 0.6321
79.8890 26.8182 0.6443
79.9090 26.8049 0.6319
79.9290 26.7915 0.6355
79.9490 26.7782 0.6370
79.9690 26.7649 0.6320
79.9890 26.7515 0.6318
80.0090 26.7382 0.6433
80.0290 26.7249 0.6304
80.0490 26.7115 0.6288
80.0690 26.6982 0.6383
80.0890 26.6848 0.6278
80.1090 26.6715 0.6318
80.1290 26.6582 0.6353
80.1490 26.6449 0.6262
80.1690 26.6315 0.6322
80.1890 26.6182 0.6359
80.2090 26.6049 0.6263
80.2290 26.5916 0.6301
80.2490 26.5782 0.6349
80.2690 26.5649 0.6222
80.2890 26.5516 0.6300
80.3090 26.5382 0.6279
80.3290 26.5249 0.6235
80.3490 26.5115 0.6281
80.3690 26.4981 0.6275
80.3890 26.4848 0.6218
80.4090 26.4715 0.6298
80.4290 26.4582 0.6208
80.4490 26.4448 0.6210
80.4690 26.4315 0.6339
80.4890 26.4182 0.6209
80.5090 26.4049 0.6221
80.5290 26.3916 0.6276
80.5490 26.3782 0.6196
80.5690 26.3649 0.6182
80.5890 26.3516 0.6270
80.6090 26.3382 0.6168
80.6290 26.3249 0.6220
80.6490 26.3115 0.6209
80.6690 26.2982 0.6185
80.6890 26.2849 0.6198
80.7090 26.2715 0.6228
80.7290 26.2582 0.6180
80.7490 26.2449 0.6175
80.7690 26.2315 0.6184
80.7890 26.2182 0.6154
80.8090 26.2048 0.6200
80.8290 26.1915 0.6179
80.8490 26.1782 0.6121
80.8690 26.1649 0.6250
80.8890 26.1515 0.6139
80.9090 26.1382 0.6119
80.9290 26.1249 0.6216
80.9490 26.1116 0.6112
80.9690 26.0983 0.6131
80.9890 26.0849 0.6198
81.0090 26.0716 0.6138
81.0290 26.0583 0.6141
81.0490 26.0449 0.6176
81.0690 26.0315 0.6120
81.0890 26.0182 0.6171
81.1090 26.0049 0.6155
81.1290 25.9915 0.6082
81.1490 25.9782 0.6107
81.1690 25.9648 0.6120
81.1890 25.9515 0.6098
81.2090 25.9382 0.6120
81.2290 25.9249 0.6091
81.2490 25.9115 0.6118
81.2690 25.8982 0.6078
81.2890 25.8849 0.6129
81.3090 25.8716 0.6115
81.3290 25.8583 0.6022
81.3490 25.8449 0.6117
81.3690 25.8316 0.6107
81.3890 25.8183 0.5992
81.4090 25.8049 0.6126
81.4290 25.7915 0.6102
81.4490 25.7781 0.5988
81.4690 25.7648 0.6084
81.4890 25.7515 0.6056
81.5090 25.7382 0.5983
81.5290 25.7248 0.6115
81.5490 25.7115 0.6061
81.5690 25.6982 0.5961
81.5890 25.6849 0.6072
81.6090 25.6716 0.6047
81.6290 25.6582 0.6022
81.6490 25.6449 0.6076
81.6690 25.6316 0.5977
81.6890 25.6183 0.5983
81.7090 25.6049 0.6084
81.7290 25.5915 0.6007
81.7490 25.5782 0.5955
81.7690 25.5649 0.6043
81.7890 25.5515 0.5981
81.8090 25.5382 0.5956
81.8290 25.5249 0.6043
81.8490 25.5116 0.5957
81.8690 25.4982 0.5923
81.8890 25.4848 0.6069
81.9090 25.4715 0.6013
81.9290 25.4582 0.5899
81.9490 25.4449 0.6067
81.9690 25.4315 0.5951
81.9890 25.4182 0.5877
82.0090 25.4049 0.6054
82.0290 25.3916 0.5932
82.0490 25.3782 0.5893
82.0690 25.3649 0.6063
82.0890 25.3516 0.5907
82.1090 25.3382 0.5896
82.1290 25.3249 0.6016
82.1490 25.3115 0.5897
82.1690 25.2981 0.5922
82.1890 25.2848 0.5949
82.2090 25.2716 0.5887
82.2290 25.2582 0.5954
82.2490 25.2448 0.5931
82.2690 25.2315 0.5912
82.2890 25.2182 0.5908
82.3090 25.2049 0.5899
82.3290 25.1915 0.5890
82.3490 25.1782 0.5931
82.3690 25.1649 0.5910
82.3890 25.1516 0.5924
82.4090 25.1383 0.5860
82.4290 25.1249 0.5911
82.4490 25.1116 0.5898
82.4690 25.0983 0.5856
82.4890 25.0849 0.5914
82.5090 25.0716 0.5841
82.5290 25.0582 0.5848
82.5490 25.0449 0.5906
82.5690 25.0315 0.5844
82.5890 25.0182 0.5830
82.6090 25.0048 0.5912
82.6290 24.9915 0.5877
82.6490 24.9782 0.5818
82.6690 24.9649 0.5891
82.6890 24.9515 0.5870
82.7090 24.9382 0.5834
82.7290 24.9249 0.5854
82.7490 24.9116 0.5819
82.7690 24.8982 0.5814
82.7890 24.8849 0.5840
82.8090 24.8716 0.5832
82.8290 24.8583 0.5795
82.8490 24.8449 0.5803
82.8690 24.8316 0.5816
82.8890 24.8182 0.5778
82.9090 24.8049 0.5794
82.9290 24.7916 0.5796
82.9490 24.7782 0.5766
82.9690 24.7648 0.5803
82.9890 24.7515 0.5843
83.0090 24.7382 0.5739
83.0290 24.7249 0.5794
83.0490 24.7115 0.5822
83.0690 24.6982 0.5735
83.0890 24.6849 0.5797
83.1090 24.6716 0.5766
83.1290 24.6582 0.5728
83.1490 24.6449 0.5783
83.1690 24.6315 0.5765
83.1890 24.6182 0.5732
83.2090 24.6049 0.5753
83.2290 24.5915 0.5728
83.2490 24.5781 0.5676
83.2690 24.5648 0.5758
83.2890 24.5515 0.5715
83.3090 24.5382 0.5686
83.3290 24.5248 0.5788
83.3490 24.5115 0.5701
83.3690 24.4982 0.5705
83.3890 24.4849 0.5737
83.4090 24.4715 0.5682
83.4290 24.4582 0.5715
83.4490 24.4449 0.5751
83.4690 24.4316 0.5650
83.4890 24.4182 0.5715
83.5090 24.4049 0.5714
83.5290 24.3915 0.5692
83.5490 24.3782 0.5700
83.5690 24.3649 0.5647
83.5890 24.3515 0.5661
83.6090 24.3382 0.5717
83.6290 24.3248 0.5650
83.6490 24.3115 0.5691
83.6690 24.2982 0.5720
83.6890 24.2848 0.5609
83.7090 24.2715 0.5730
83.7290 24.2582 0.5653
83.7490 24.2449 0.5598
83.7690 24.2316 0.5696
83.7890 24.2182 0.5634
83.8090 24.2049 0.5613
83.8290 24.1916 0.5682
83.8490 24.1783 0.5595
83.8690 24.1649 0.5615
83.8890 24.1515 0.5676
83.9090 24.1382 0.5590
83.9290 24.1249 0.5603
83.9490 24.1115 0.5673
83.9690 24.0982 0.5567
83.9890 24.0848 0.5641
84.0090 24.0715 0.5633
84.0290 24.0582 0.5506
84.0490 24.0449 0.5635
84.0690 24.0315 0.5615
84.0890 24.0182 0.5537
84.1090 24.0049 0.5611
84.1290 23.9915 0.5582
84.1490 23.9782 0.5606
84.1690 23.9649 0.5564
84.1890 23.9516 0.5574
84.2090 23.9383 0.5580
84.2290 23.9249 0.5571
84.2490 23.9116 0.5571
84.2690 23.8983 0.5590
84.2890 23.8849 0.5538
84.3090 23.8716 0.5542
84.3290 23.8582 0.5536
84.3490 23.8448 0.5528
84.3690 23.8315 0.5519
84.3890 23.8182 0.5554
84.4090 23.8048 0.5500
84.4290 23.7915 0.5523
84.4490 23.7782 0.5531
84.4690 23.7648 0.5479
84.4890 23.7515 0.5534
84.5090 23.7382 0.5495
84.5290 23.7249 0.5492
84.5490 23.7116 0.5550
84.5690 23.6982 0.5466
84.5890 23.6849 0.5467
84.6090 23.6716 0.5511
84.6290 23.6583 0.5439
84.6490 23.6449 0.5458
84.6690 23.6316 0.5512
84.6890 23.6182 0.5476
84.7090 23.6048 0.5408
84.7290 23.5915 0.5514
84.7490 23.5782 0.5430
84.7690 23.5648 0.5417
84.7890 23.5514 0.5537
84.8090 23.5381 0.5417
84.8290 23.5249 0.5417
84.8490 23.5115 0.5512
84.8690 23.4982 0.5422
84.8890 23.4849 0.5420
84.9090 23.4716 0.5495
84.9290 23.4583 0.5373
84.9490 23.4449 0.5412
84.9690 23.4316 0.5455
84.9890 23.4182 0.5380
85.0090 23.4049 0.5410
85.0290 23.3916 0.5404
85.0490 23.3782 0.5401
85.0690 23.3648 0.5420
85.0890 23.3515 0.5402
85.1090 23.3382 0.5405
85.1290 23.3248 0.5396
85.1490 23.3115 0.5404
85.1690 23.2982 0.5350
85.1890 23.2849 0.5381
85.2090 23.2715 0.5406
85.2290 23.2582 0.5414
85.2490 23.2449 0.5361
85.2690 23.2316 0.5332
85.2890 23.2183 0.5363
85.3090 23.2049 0.5337
85.3290 23.1916 0.5341
85.3490 23.1782 0.5374
85.3690 23.1649 0.5319
85.3890 23.1516 0.5305
85.4090 23.1382 0.5339
85.4290 23.1248 0.5364
85.4490 23.1115 0.5274
85.4690 23.0982 0.5366
85.4890 23.0848 0.5314
85.5090 23.0715 0.5302
85.5290 23.0581 0.5362
85.5490 23.0449 0.5285
85.5690 23.0315 0.5281
85.5890 23.0182 0.5336
85.6090 23.0049 0.5272
85.6290 22.9915 0.5281
85.6490 22.9782 0.5332
85.6690 22.9649 0.5276
85.6890 22.9515 0.5247
85.7090 22.9382 0.5334
85.7290 22.9249 0.5270
85.7490 22.9116 0.5248
85.7690 22.8982 0.5363
85.7890 22.8848 0.5239
85.8090 22.8715 0.5241
85.8290 22.8582 0.5324
85.8490 22.8448 0.5228
85.8690 22.8315 0.5229
85.8890 22.8181 0.5340
85.9090 22.8049 0.5190
85.9290 22.7915 0.5184
85.9490 22.7782 0.5370
85.9690 22.7649 0.5232
85.9890 22.7516 0.5190
86.0090 22.7383 0.5351
86.0290 22.7249 0.5188
86.0490 22.7115 0.5175
86.0690 22.6982 0.5307
86.0890 22.6849 0.5221
86.1090 22.6716 0.5103
86.1290 22.6582 0.5301
86.1490 22.6449 0.5202
86.1690 22.6315 0.5108
86.1890 22.6182 0.5325
86.2090 22.6049 0.5165
86.2290 22.5915 0.5138
86.2490 22.5782 0.5348
86.2690 22.5649 0.5114
86.2890 22.5515 0.5178
86.3090 22.5382 0.5324
86.3290 22.5248 0.5092
86.3490 22.5115 0.5157
86.3690 22.4982 0.5333
86.3890 22.4849 0.5068
86.4090 22.4716 0.5189
86.4290 22.4582 0.5278
86.4490 22.4449 0.5056
86.4690 22.4316 0.5160
86.4890 22.4182 0.5216
86.5090 22.4048 0.5086
86.5290 22.3915 0.5180
86.5490 22.3782 0.5182
86.5690 22.3648 0.5113
86.5890 22.3515 0.5169
86.6090 22.3381 0.5189
86.6290 22.3248 0.5172
86.6490 22.3115 0.5085
86.6690 22.2982 0.5120
86.6890 22.2849 0.5177
86.7090 22.2716 0.5085
86.7290 22.2583 0.5131
86.7490 22.2449 0.5177
86.7690 22.2315 0.5057
86.7890 22.2182 0.5147
86.8090 22.2049 0.5173
86.8290 22.1916 0.5049
86.8490 22.1782 0.5144
86.8690 22.1648 0.5176
86.8890 22.1515 0.4986
86.9090 22.1382 0.5156
86.9290 22.1249 0.5088
86.9490 22.1115 0.5055
86.9690 22.0982 0.5171
86.9890 22.0849 0.5024
87.0090 22.0715 0.5052
87.0290 22.0582 0.5138
87.0490 22.0449 0.5083
87.0690 22.0316 0.5043
87.0890 22.0183 0.5100
87.1090 22.0049 0.5057
87.1290 21.9915 0.5007
87.1490 21.9782 0.5117
87.1690 21.9649 0.5046
87.1890 21.9515 0.4993
87.2090 21.9382 0.5067
87.2290 21.9248 0.5044
87.2490 21.9115 0.4992
87.2690 21.8982 0.5088
87.2890 21.8849 0.5056
87.3090 21.8715 0.4933
87.3290 21.8582 0.5064
87.3490 21.8449 0.5057
87.3690 21.8316 0.4980
87.3890 21.8182 0.5074
87.4090 21.8049 0.5029
87.4290 21.7916 0.4966
87.4490 21.7783 0.5078
87.4690 21.7649 0.4990
87.4890 21.7515 0.4963
87.5090 21.7382 0.5029
87.5290 21.7249 0.5013
87.5490 21.7116 0.4951
87.5690 21.6982 0.5018
87.5890 21.6848 0.5043
87.6090 21.6715 0.4887
87.6290 21.6582 0.5024
87.6490 21.6449 0.5000
87.6690 21.6315 0.4924
87.6890 21.6182 0.5070
87.7090 21.6049 0.4980
87.7290 21.5915 0.4896
87.7490 21.5782 0.5049
87.7690 21.5649 0.4989
87.7890 21.5516 0.4894
87.8090 21.5383 0.5056
87.8290 21.5249 0.4922
87.8490 21.5116 0.4879
87.8690 21.4982 0.5103
87.8890 21.4849 0.4896
87.9090 21.4716 0.4858
87.9290 21.4582 0.5065
87.9490 21.4448 0.4919
87.9690 21.4315 0.4869
87.9890 21.4182 0.5041
88.0090 21.4049 0.4882
88.0290 21.3915 0.4874
88.0490 21.3781 0.4994
88.0690 21.3648 0.4887
88.0890 21.3515 0.4862
88.1090 21.3382 0.4917
88.1290 21.3249 0.4891
88.1490 21.3116 0.4905
88.1690 21.2983 0.4949
88.1890 21.2849 0.4867
88.2090 21.2716 0.4875
88.2290 21.2582 0.4953
88.2490 21.2449 0.4843
88.2690 21.2316 0.4892
88.2890 21.2182 0.4869
88.3090 21.2048 0.4879
88.3290 21.1915 0.4898
88.3490 21.1782 0.4841
88.3690 21.1649 0.4850
88.3890 21.1515 0.4885
88.4090 21.1381 0.4825
88.4290 21.1248 0.4889
88.4490 21.1115 0.4890
88.4690 21.0982 0.4817
88.4890 21.0848 0.4844
88.5090 21.0715 0.4860
88.5290 21.0582 0.4779
88.5490 21.0449 0.4854
88.5690 21.0316 0.4836
88.5890 21.0182 0.4801
88.6090 21.0049 0.4868
88.6290 20.9916 0.4777
88.6490 20.9782 0.4791
88.6690 20.9648 0.4845
88.6890 20.9515 0.4839
88.7090 20.9382 0.4817
88.7290 20.9248 0.4800
88.7490 20.9115 0.4820
88.7690 20.8981 0.4800
88.7890 20.8848 0.4814
88.8090 20.8715 0.4801
88.8290 20.8582 0.4790
88.8490 20.8449 0.4785
88.8690 20.8316 0.4821
88.8890 20.8183 0.4768
88.9090 20.8050 0.4760
88.9290 20.7916 0.4822
88.9490 20.7782 0.4738
88.9690 20.7649 0.4782
88.9890 20.7515 0.4824
89.0090 20.7382 0.4706
89.0290 20.7248 0.4760
89.0490 20.7115 0.4837
89.0690 20.6982 0.4696
89.0890 20.6849 0.4780
89.1090 20.6715 0.4773
89.1290 20.6582 0.4685
89.1490 20.6449 0.4767
89.1690 20.6316 0.4768
89.1890 20.6182 0.4664
89.2090 20.6049 0.4789
89.2290 20.5915 0.4777
89.2490 20.5782 0.4639
89.2690 20.5649 0.4786
89.2890 20.5515 0.4759
89.3090 20.5382 0.4679
89.3290 20.5249 0.4770
89.3490 20.5116 0.4727
89.3690 20.4982 0.4693
89.3890 20.4848 0.4740
89.4090 20.4715 0.4761
89.4290 20.4582 0.4638
89.4490 20.4449 0.4701
89.4690 20.4315 0.4744
89.4890 20.4182 0.4648
89.5090 20.4049 0.4706
89.5290 20.3915 0.4734
89.5490 20.3782 0.4649
89.5690 20.3648 0.4655
89.5890 20.3515 0.4723
89.6090 20.3382 0.4627
89.6290 20.3249 0.4654
89.6490 20.3116 0.4725
89.6690 20.2982 0.4607
89.6890 20.2849 0.4654
89.7090 20.2716 0.4739
89.7290 20.2583 0.4565
89.7490 20.2449 0.4674
89.7690 20.2315 0.4749
89.7890 20.2182 0.4588
89.8090 20.2049 0.4570
89.8290 20.1915 0.4726
89.8490 20.1782 0.4596
89.8690 20.1648 0.4587
89.8890 20.1515 0.4727
89.9090 20.1382 0.4563
89.9290 20.1249 0.4609
89.9490 20.1115 0.4667
89.9690 20.0982 0.4558
89.9890 20.0849 0.4595
90.0090 20.0716 0.4653
90.0290 20.0582 0.4572
90.0490 20.0449 0.4575
90.0690 20.0316 0.4655
90.0890 20.0182 0.4555
90.1090 20.0048 0.4592
90.1290 19.9915 0.4708
90.1490 19.9782 0.4528
90.1690 19.9649 0.4571
90.1890 19.9515 0.4666
90.2090 19.9381 0.4509
90.2290 19.9248 0.4578
90.2490 19.9115 0.4640
90.2690 19.8982 0.4516
90.2890 19.8848 0.4534
90.3090 19.8715 0.4644
90.3290 19.8582 0.4527
90.3490 19.8449 0.4587
90.3690 19.8316 0.4622
90.3890 19.8182 0.4498
90.4090 19.8049 0.4558
90.4290 19.7916 0.4586
90.4490 19.7782 0.4522
90.4690 19.7648 0.4547
90.4890 19.7515 0.4612
90.5090 19.7382 0.4523
90.5290 19.7249 0.4526
90.5490 19.7115 0.4608
90.5690 19.6982 0.4496
90.5890 19.6849 0.4498
90.6090 19.6716 0.4577
90.6290 19.6582 0.4482
90.6490 19.6449 0.4505
90.6690 19.6315 0.4581
90.6890 19.6182 0.4460
90.7090 19.6049 0.4480
90.7290 19.5916 0.4610
90.7490 19.5782 0.4438
90.7690 19.5649 0.4511
90.7890 19.5516 0.4555
90.8090 19.5383 0.4407
90.8290 19.5249 0.4521
90.8490 19.5115 0.4555
90.8690 19.4982 0.4481
90.8890 19.4848 0.4489
90.9090 19.4715 0.4511
90.9290 19.4581 0.4500
90.9490 19.4448 0.4427
90.9690 19.4315 0.4560
90.9890 19.4182 0.4412
91.0090 19.4049 0.4435
91.0290 19.3915 0.4579
91.0490 19.3782 0.4409
91.0690 19.3649 0.4453
91.0890 19.3516 0.4569
91.1090 19.3382 0.4382
91.1290 19.3248 0.4463
91.1490 19.3115 0.4510
91.1690 19.2982 0.4386
91.1890 19.2848 0.4462
91.2090 19.2715 0.4551
91.2290 19.2582 0.4413
91.2490 19.2449 0.4379
91.2690 19.2315 0.4505
91.2890 19.2182 0.4382
91.3090 19.2048 0.4470
91.3290 19.1915 0.4448
91.3490 19.1782 0.4356
91.3690 19.1648 0.4441
91.3890 19.1515 0.4426
91.4090 19.1382 0.4373
91.4290 19.1249 0.4408
91.4490 19.1116 0.4425
91.4690 19.0982 0.4375
91.4890 19.0849 0.4410
91.5090 19.0716 0.4439
91.5290 19.0582 0.4346
91.5490 19.0449 0.4438
91.5690 19.0315 0.4391
91.5890 19.0182 0.4342
91.6090 19.0049 0.4403
91.6290 18.9915 0.4398
91.6490 18.9782 0.4319
91.6690 18.9648 0.4372
91.6890 18.9515 0.4410
91.7090 18.9382 0.4299
91.7290 18.9249 0.4368
91.7490 18.9115 0.4431
91.7690 18.8982 0.4296
91.7890 18.8849 0.4371
91.8090 18.8716 0.4353
91.8290 18.8582 0.4344
91.8490 18.8449 0.4357
91.8690 18.8316 0.4355
91.8890 18.8183 0.4282
91.9090 18.8049 0.4335
91.9290 18.7915 0.4400
91.9490 18.7782 0.4253
91.9690 18.7648 0.4322
91.9890 18.7515 0.4374
92.0090 18.7381 0.4226
92.0290 18.7248 0.4358
92.0490 18.7115 0.4393
92.0690 18.6982 0.4281
92.0890 18.6849 0.4317
92.1090 18.6716 0.4385
92.1290 18.6583 0.4249
92.1490 18.6450 0.4340
92.1690 18.6316 0.4345
92.1890 18.6182 0.4198
92.2090 18.6049 0.4348
92.2290 18.5916 0.4314
92.2490 18.5782 0.4235
92.2690 18.5649 0.4294
92.2890 18.5515 0.4328
92.3090 18.5382 0.4286
92.3290 18.5249 0.4244
92.3490 18.5115 0.4303
92.3690 18.4981 0.4283
92.3890 18.4848 0.4265
92.4090 18.4715 0.4323
92.4290 18.4582 0.4228
92.4490 18.4449 0.4232
92.4690 18.4315 0.4294
92.4890 18.4182 0.4255
92.5090 18.4049 0.4256
92.5290 18.3916 0.4291
92.5490 18.3782 0.4223
92.5690 18.3649 0.4203
92.5890 18.3516 0.4309
92.6090 18.3382 0.4211
92.6290 18.3249 0.4242
92.6490 18.3115 0.4301
92.6690 18.2981 0.4124
92.6890 18.2848 0.4244
92.7090 18.2715 0.4266
92.7290 18.2582 0.4147
92.7490 18.2448 0.4280
92.7690 18.2315 0.4251
92.7890 18.2182 0.4133
92.8090 18.2049 0.4243
92.8290 18.1915 0.4230
92.8490 18.1782 0.4105
92.8690 18.1649 0.4240
92.8890 18.1516 0.4163
92.9090 18.1382 0.4174
92.9290 18.1249 0.4267
92.9490 18.1116 0.4139
92.9690 18.0983 0.4179
92.9890 18.0849 0.4244
93.0090 18.0715 0.4122
93.0290 18.0582 0.4207
93.0490 18.0449 0.4243
93.0690 18.0315 0.4106
93.0890 18.0182 0.4164
93.1090 18.0048 0.4207
93.1290 17.9915 0.4130
93.1490 17.9782 0.4171
93.1690 17.9649 0.4159
93.1890 17.9515 0.4132
93.2090 17.9382 0.4179
93.2290 17.9249 0.4160
93.2490 17.9116 0.4094
93.2690 17.8982 0.4159
93.2890 17.8849 0.4159
93.3090 17.8715 0.4048
93.3290 17.8582 0.4114
93.3490 17.8449 0.4142
93.3690 17.8315 0.4068
93.3890 17.8182 0.4124
93.4090 17.8049 0.4138
93.4290 17.7916 0.4041
93.4490 17.7782 0.4135
93.4690 17.7648 0.4133
93.4890 17.7515 0.4013
93.5090 17.7382 0.4207
93.5290 17.7248 0.4132
93.5490 17.7115 0.4012
93.5690 17.6982 0.4167
93.5890 17.6849 0.4115
93.6090 17.6716 0.4004
93.6290 17.6582 0.4161
93.6490 17.6449 0.4140
93.6690 17.6316 0.3985
93.6890 17.6183 0.4172
93.7090 17.6049 0.4104
93.7290 17.5915 0.3986
93.7490 17.5782 0.4165
93.7690 17.5648 0.4111
93.7890 17.5515 0.3954
93.8090 17.5382 0.4151
93.8290 17.5248 0.4119
93.8490 17.5115 0.3948
93.8690 17.4982 0.4127
93.8890 17.4849 0.4106
93.9090 17.4715 0.3978
93.9290 17.4582 0.4146
93.9490 17.4449 0.4074
93.9690 17.4316 0.3961
93.9890 17.4182 0.4099
94.0090 17.4049 0.4067
94.0290 17.3916 0.3964
94.0490 17.3782 0.4035
94.0690 17.3649 0.4064
94.0890 17.3515 0.3989
94.1090 17.3381 0.4060
94.1290 17.3248 0.4081
94.1490 17.3115 0.3937
94.1690 17.2982 0.4059
94.1890 17.2848 0.4073
94.2090 17.2715 0.3927
94.2290 17.2582 0.4055
94.2490 17.2449 0.4035
94.2690 17.2316 0.3913
94.2890 17.2182 0.4037
94.3090 17.2050 0.4064
94.3290 17.1916 0.3878
94.3490 17.1783 0.4074
94.3690 17.1649 0.4071
94.3890 17.1515 0.3863
94.4090 17.1382 0.4087
94.4290 17.1249 0.4021
94.4490 17.1115 0.3904
94.4690 17.0982 0.4076
94.4890 17.0849 0.3942
94.5090 17.0715 0.3888
94.5290 17.0582 0.4030
94.5490 17.0448 0.4009
94.5690 17.0315 0.3877
94.5890 17.0182 0.4058
94.6090 17.0049 0.3973
94.6290 16.9915 0.3903
94.6490 16.9782 0.4005
94.6690 16.9649 0.3961
94.6890 16.9516 0.3911
94.7090 16.9383 0.3987
94.7290 16.9249 0.3964
94.7490 16.9116 0.3886
94.7690 16.8982 0.3933
94.7890 16.8849 0.3975
94.8090 16.8715 0.3888
94.8290 16.8582 0.3940
94.8490 16.8449 0.3954
94.8690 16.8315 0.3841
94.8890 16.8182 0.3941
94.9090 16.8048 0.3974
94.9290 16.7915 0.3873
94.9490 16.7782 0.3899
94.9690 16.7649 0.3993
94.9890 16.7515 0.3818
95.0090 16.7382 0.3930
95.0290 16.7249 0.3989
95.0490 16.7116 0.3808
95.0690 16.6982 0.3874
95.0890 16.6849 0.3954
95.1090 16.6715 0.3854
95.1290 16.6582 0.3895
95.1490 16.6449 0.3921
95.1690 16.6315 0.3825
95.1890 16.6182 0.3953
95.2090 16.6048 0.3933
95.2290 16.5915 0.3758
95.2490 16.5782 0.3955
95.2690 16.5648 0.3864
95.2890 16.5514 0.3825
95.3090 16.5382 0.3906
95.3290 16.5249 0.3883
95.3490 16.5115 0.3816
95.3690 16.4982 0.3898
95.3890 16.4849 0.3874
95.4090 16.4716 0.3756
95.4290 16.4583 0.3886
95.4490 16.4449 0.3872
95.4690 16.4316 0.3839
95.4890 16.4183 0.3879
95.5090 16.4049 0.3819
95.5290 16.3915 0.3807
95.5490 16.3782 0.3887
95.5690 16.3649 0.3826
95.5890 16.3515 0.3800
95.6090 16.3382 0.3852
95.6290 16.3248 0.3801
95.6490 16.3115 0.3857
95.6690 16.2982 0.3799
95.6890 16.2849 0.3790
95.7090 16.2715 0.3826
95.7290 16.2582 0.3841
95.7490 16.2449 0.3802
95.7690 16.2316 0.3777
95.7890 16.2183 0.3816
95.8090 16.2049 0.3765
95.8290 16.1916 0.3824
95.8490 16.1783 0.3795
95.8690 16.1649 0.3751
95.8890 16.1515 0.3778
95.9090 16.1382 0.3817
95.9290 16.1248 0.3761
95.9490 16.1115 0.3777
95.9690 16.0982 0.3775
95.9890 16.0848 0.3772
96.0090 16.0715 0.3755
96.0290 16.0582 0.3814
96.0490 16.0449 0.3769
96.0690 16.0315 0.3726
96.0890 16.0182 0.3768
96.1090 16.0049 0.3753
96.1290 15.9916 0.3699
96.1490 15.9783 0.3769
96.1690 15.9649 0.3781
96.1890 15.9515 0.3718
96.2090 15.9382 0.3779
96.2290 15.9249 0.3754
96.2490 15.9115 0.3672
96.2690 15.8982 0.3781
96.2890 15.8849 0.3730
96.3090 15.8716 0.3680
96.3290 15.8582 0.3732
96.3490 15.8448 0.3740
96.3690 15.8315 0.3720
96.3890 15.8182 0.3681
96.4090 15.8049 0.3720
96.4290 15.7915 0.3733
96.4490 15.7782 0.3694
96.4690 15.7649 0.3736
96.4890 15.7516 0.3724
96.5090 15.7382 0.3656
96.5290 15.7249 0.3722
96.5490 15.7115 0.3712
96.5690 15.6982 0.3669
96.5890 15.6849 0.3659
96.6090 15.6715 0.3708
96.6290 15.6582 0.3651
96.6490 15.6449 0.3713
96.6690 15.6316 0.3703
96.6890 15.6182 0.3636
96.7090 15.6048 0.3676
96.7290 15.5915 0.3695
96.7490 15.5782 0.3652
96.7690 15.5649 0.3672
96.7890 15.5515 0.3673
96.8090 15.5382 0.3651
96.8290 15.5249 0.3638
96.8490 15.5116 0.3684
96.8690 15.4982 0.3642
96.8890 15.4849 0.3646
96.9090 15.4716 0.3675
96.9290 15.4583 0.3649
96.9490 15.4449 0.3588
96.9690 15.4316 0.3625
96.9890 15.4182 0.3635
97.0090 15.4049 0.3645
97.0290 15.3915 0.3649
97.0490 15.3782 0.3610
97.0690 15.3648 0.3623
97.0890 15.3515 0.3648
97.1090 15.3382 0.3624
97.1290 15.3249 0.3581
97.1490 15.3115 0.3627
97.1690 15.2982 0.3632
97.1890 15.2849 0.3592
97.2090 15.2716 0.3609
97.2290 15.2583 0.3617
97.2490 15.2449 0.3546
97.2690 15.2315 0.3692
97.2890 15.2182 0.3582
97.3090 15.2049 0.3548
97.3290 15.1915 0.3664
97.3490 15.1782 0.3558
97.3690 15.1648 0.3540
97.3890 15.1515 0.3674
97.4090 15.1382 0.3583
97.4290 15.1248 0.3540
97.4490 15.1115 0.3639
97.4690 15.0982 0.3556
97.4890 15.0849 0.3518
97.5090 15.0715 0.3633
97.5290 15.0582 0.3543
97.5490 15.0449 0.3515
97.5690 15.0316 0.3620
97.5890 15.0183 0.3564
97.6090 15.0049 0.3477
97.6290 14.9915 0.3623
97.6490 14.9782 0.3598
97.6690 14.9649 0.3442
97.6890 14.9515 0.3597
97.7090 14.9381 0.3573
97.7290 14.9248 0.3476
97.7490 14.9115 0.3598
97.7690 14.8982 0.3480
97.7890 14.8849 0.3493
97.8090 14.8715 0.3590
97.8290 14.8582 0.3493
97.8490 14.8449 0.3493
97.8690 14.8315 0.3592
97.8890 14.8182 0.3498
97.9090 14.8049 0.3479
97.9290 14.7916 0.3593
97.9490 14.7782 0.3435
97.9690 14.7649 0.3482
97.9890 14.7515 0.3627
98.0090 14.7382 0.3456
98.0290 14.7249 0.3444
98.0490 14.7116 0.3557
98.0690 14.6983 0.3462
98.0890 14.6849 0.3475
98.1090 14.6715 0.3544
98.1290 14.6581 0.3450
98.1490 14.6448 0.3462
98.1690 14.6314 0.3534
98.1890 14.6181 0.3425
98.2090 14.6049 0.3451
98.2290 14.5916 0.3511
98.2490 14.5782 0.3447
98.2690 14.5649 0.3408
98.2890 14.5516 0.3512
98.3090 14.5383 0.3411
98.3290 14.5249 0.3484
98.3490 14.5115 0.3497
98.3690 14.4982 0.3430
98.3890 14.4849 0.3421
98.4090 14.4715 0.3445
98.4290 14.4582 0.3462
98.4490 14.4448 0.3417
98.4690 14.4315 0.3443
98.4890 14.4182 0.3475
98.5090 14.4049 0.3387
98.5290 14.3915 0.3515
98.5490 14.3782 0.3439
98.5690 14.3649 0.3369
98.5890 14.3515 0.3459
98.6090 14.3382 0.3431
98.6290 14.3249 0.3368
98.6490 14.3116 0.3507
98.6690 14.2983 0.3395
98.6890 14.2849 0.3367
98.7090 14.2716 0.3531
98.7290 14.2582 0.3395
98.7490 14.2449 0.3355
98.7690 14.2316 0.3540
98.7890 14.2182 0.3374
98.8090 14.2048 0.3359
98.8290 14.1915 0.3479
98.8490 14.1782 0.3339
98.8690 14.1648 0.3407
98.8890 14.1515 0.3469
98.9090 14.1382 0.3346
98.9290 14.1248 0.3378
98.9490 14.1115 0.3458
98.9690 14.0982 0.3319
98.9890 14.0848 0.3400
99.0090 14.0716 0.3448
99.0290 14.0582 0.3309
99.0490 14.0449 0.3362
99.0690 14.0316 0.3396
99.0890 14.0183 0.3326
99.1090 14.0049 0.3337
99.1290 13.9916 0.3383
99.1490 13.9782 0.3310
99.1690 13.9648 0.3362
99.1890 13.9515 0.3399
99.2090 13.9382 0.3221
99.2290 13.9248 0.3390
99.2490 13.9114 0.3344
99.2690 13.8981 0.3242
99.2890 13.8849 0.3353
99.3090 13.8716 0.3373
99.3290 13.8582 0.3286
99.3490 13.8449 0.3314
99.3690 13.8316 0.3370
99.3890 13.8183 0.3275
99.4090 13.8049 0.3305
99.4290 13.7916 0.3359
99.4490 13.7782 0.3231
99.4690 13.7649 0.3316
99.4890 13.7516 0.3305
99.5090 13.7382 0.3235
99.5290 13.7248 0.3338
99.5490 13.7115 0.3317
99.5690 13.6982 0.3222
99.5890 13.6848 0.3329
99.6090 13.6715 0.3294
99.6290 13.6582 0.3221
99.6490 13.6449 0.3362
99.6690 13.6315 0.3231
99.6890 13.6182 0.3183
99.7090 13.6049 0.3365
99.7290 13.5916 0.3222
99.7490 13.5783 0.3222
99.7690 13.5649 0.3352
99.7890 13.5516 0.3200
99.8090 13.5382 0.3189
99.8290 13.5249 0.3335
99.8490 13.5116 0.3198
99.8690 13.4982 0.3237
99.8890 13.4848 0.3303
99.9090 13.4715 0.3211
99.9290 13.4582 0.3217
99.9490 13.4448 0.3262
99.9690 13.4315 0.3182
99.9890 13.4182 0.3218
100.0090 13.4049 0.3274
100.0290 13.3915 0.3169
100.0490 13.3782 0.3235
100.0690 13.3649 0.3275
100.0890 13.3516 0.3174
100.1090 13.3382 0.3197
100.1290 13.3249 0.3210
100.1490 13.3115 0.3174
100.1690 13.2982 0.3198
100.1890 13.2849 0.3223
100.2090 13.2716 0.3196
100.2290 13.2582 0.3147
100.2490 13.2448 0.3227
100.2690 13.2315 0.3164
100.2890 13.2182 0.3145
100.3090 13.2049 0.3187
100.3290 13.1915 0.3146
100.3490 13.1781 0.3154
100.3690 13.1648 0.3192
100.3890 13.1515 0.3145
100.4090 13.1382 0.3108
100.4290 13.1248 0.3224
100.4490 13.1115 0.3089
100.4690 13.0982 0.3123
100.4890 13.0849 0.3204
100.5090 13.0715 0.3084
100.5290 13.0582 0.3123
100.5490 13.0449 0.3195
100.5690 13.0316 0.3072
100.5890 13.0182 0.3105
100.6090 13.0048 0.3183
100.6290 12.9915 0.3046
100.6490 12.9782 0.3140
100.6690 12.9649 0.3173
100.6890 12.9515 0.3021
100.7090 12.9381 0.3173
100.7290 12.9248 0.3145
100.7490 12.9115 0.3001
100.7690 12.8982 0.3132
100.7890 12.8848 0.3155
100.8090 12.8715 0.3050
100.8290 12.8582 0.3079
100.8490 12.8449 0.3117
100.8690 12.8316 0.3072
100.8890 12.8182 0.3082
100.9090 12.8049 0.3115
100.9290 12.7916 0.3050
100.9490 12.7782 0.3056
100.9690 12.7649 0.3075
100.9890 12.7515 0.3078
101.0090 12.7382 0.2995
101.0290 12.7248 0.3084
101.0490 12.7115 0.3094
101.0690 12.6981 0.3029
101.0890 12.6848 0.3131
101.1090 12.6715 0.3007
101.1290 12.6582 0.3015
101.1490 12.6449 0.3132
101.1690 12.6316 0.2997
101.1890 12.6183 0.3021
101.2090 12.6049 0.3117
101.2290 12.5916 0.2949
101.2490 12.5782 0.3057
101.2690 12.5649 0.3097
101.2890 12.5516 0.2963
101.3090 12.5382 0.3034
101.3290 12.5248 0.3104
101.3490 12.5115 0.2939
101.3690 12.4982 0.3069
101.3890 12.4848 0.3052
101.4090 12.4715 0.2898
101.4290 12.4581 0.3036
101.4490 12.4448 0.3044
101.4690 12.4315 0.2895
101.4890 12.4182 0.3033
101.5090 12.4049 0.3054
101.5290 12.3916 0.2914
101.5490 12.3783 0.3010
101.5690 12.3649 0.3021
101.5890 12.3516 0.2930
101.6090 12.3382 0.3079
101.6290 12.3249 0.2960
101.6490 12.3116 0.2928
101.6690 12.2982 0.3019
101.6890 12.2848 0.2992
101.7090 12.2715 0.2955
101.7290 12.2582 0.2976
101.7490 12.2449 0.2985
101.7690 12.2315 0.2947
101.7890 12.2182 0.2933
101.8090 12.2049 0.3011
101.8290 12.1915 0.2917
101.8490 12.1782 0.2933
101.8690 12.1649 0.2979
101.8890 12.1516 0.2926
101.9090 12.1383 0.2912
101.9290 12.1249 0.2999
101.9490 12.1116 0.2870
101.9690 12.0982 0.2936
101.9890 12.0849 0.3014
102.0090 12.0716 0.2867
102.0290 12.0582 0.2902
102.0490 12.0448 0.2968
102.0690 12.0315 0.2896
102.0890 12.0182 0.2884
102.1090 12.0049 0.2956
102.1290 11.9915 0.2865
102.1490 11.9781 0.2910
102.1690 11.9648 0.2979
102.1890 11.9515 0.2830
102.2090 11.9382 0.2907
102.2290 11.9249 0.2976
102.2490 11.9116 0.2806
102.2690 11.8982 0.2916
102.2890 11.8849 0.2964
102.3090 11.8716 0.2800
102.3290 11.8582 0.2882
102.3490 11.8449 0.2930
102.3690 11.8316 0.2811
102.3890 11.8182 0.2911
102.4090 11.8048 0.2878
102.4290 11.7915 0.2831
102.4490 11.7782 0.2922
102.4690 11.7649 0.2887
102.4890 11.7515 0.2819
102.5090 11.7381 0.2961
102.5290 11.7248 0.2888
102.5490 11.7115 0.2820
102.5690 11.6982 0.2897
102.5890 11.6849 0.2869
102.6090 11.6716 0.2911
102.6290 11.6583 0.2819
102.6490 11.6450 0.2848
102.6690 11.6316 0.2905
102.6890 11.6182 0.2813
102.7090 11.6049 0.2829
102.7290 11.5916 0.2872
102.7490 11.5782 0.2826
102.7690 11.5648 0.2824
102.7890 11.5515 0.2857
102.8090 11.5382 0.2832
102.8290 11.5249 0.2816
102.8490 11.5115 0.2874
102.8690 11.4982 0.2818
102.8890 11.4848 0.2849
102.9090 11.4715 0.2820
102.9290 11.4582 0.2762
102.9490 11.4449 0.2814
102.9690 11.4315 0.2864
102.9890 11.4183 0.2789
103.0090 11.4049 0.2780
103.0290 11.3916 0.2813
103.0490 11.3782 0.2762
103.0690 11.3649 0.2807
103.0890 11.3516 0.2801
103.1090 11.3382 0.2736
103.1290 11.3248 0.2809
103.1490 11.3115 0.2752
103.1690 11.2982 0.2762
103.1890 11.2848 0.2783
103.2090 11.2715 0.2774
103.2290 11.2581 0.2771
103.2490 11.2448 0.2783
103.2690 11.2315 0.2730
103.2890 11.2182 0.2770
103.3090 11.2049 0.2764
103.3290 11.1916 0.2734
103.3490 11.1783 0.2743
103.3690 11.1650 0.2783
103.3890 11.1516 0.2686
103.4090 11.1382 0.2799
103.4290 11.1249 0.2729
103.4490 11.1116 0.2721
103.4690 11.0982 0.2754
103.4890 11.0848 0.2697
103.5090 11.0715 0.2757
103.5290 11.0582 0.2712
103.5490 11.0449 0.2714
103.5690 11.0315 0.2736
103.5890 11.0182 0.2739
103.6090 11.0049 0.2656
103.6290 10.9915 0.2716
103.6490 10.9782 0.2742
103.6690 10.9649 0.2664
103.6890 10.9515 0.2667
103.7090 10.9382 0.2716
103.7290 10.9249 0.2647
103.7490 10.9116 0.2697
103.7690 10.8982 0.2668
103.7890 10.8849 0.2652
103.8090 10.8716 0.2715
103.8290 10.8582 0.2655
103.8490 10.8448 0.2647
103.8690 10.8315 0.2666
103.8890 10.8182 0.2683
103.9090 10.8049 0.2615
103.9290 10.7915 0.2629
103.9490 10.7782 0.2714
103.9690 10.7648 0.2609
103.9890 10.7515 0.2650
104.0090 10.7382 0.2668
104.0290 10.7248 0.2594
104.0490 10.7115 0.2659
104.0690 10.6982 0.2621
104.0890 10.6849 0.2574
104.1090 10.6716 0.2636
104.1290 10.6582 0.2671
104.1490 10.6449 0.2543
104.1690 10.6316 0.2677
104.1890 10.6183 0.2653
104.2090 10.6049 0.2487
104.2290 10.5915 0.2672
104.2490 10.5782 0.2566
104.2690 10.5649 0.2565
104.2890 10.5515 0.2664
104.3090 10.5382 0.2536
104.3290 10.5248 0.2620
104.3490 10.5115 0.2592
104.3690 10.4982 0.2502
104.3890 10.4848 0.2586
104.4090 10.4715 0.2657
104.4290 10.4582 0.2468
104.4490 10.4449 0.2577
104.4690 10.4316 0.2622
104.4890 10.4182 0.2499
104.5090 10.4049 0.2617
104.5290 10.3916 0.2540
104.5490 10.3783 0.2526
104.5690 10.3649 0.2552
104.5890 10.3515 0.2524
104.6090 10.3382 0.2596
104.6290 10.3249 0.2544
104.6490 10.3115 0.2498
104.6690 10.2981 0.2518
104.6890 10.2848 0.2532
104.7090 10.2715 0.2490
104.7290 10.2582 0.2569
104.7490 10.2448 0.2465
104.7690 10.2315 0.2504
104.7890 10.2182 0.2571
104.8090 10.2049 0.2440
104.8290 10.1916 0.2507
104.8490 10.1782 0.2562
104.8690 10.1649 0.2446
104.8890 10.1516 0.2506
104.9090 10.1382 0.2529
104.9290 10.1249 0.2387
104.9490 10.1115 0.2545
104.9690 10.0982 0.2537
104.9890 10.0849 0.2388
105.0090 10.0715 0.2494
105.0290 10.0582 0.2533
105.0490 10.0448 0.2388
105.0690 10.0315 0.2514
105.0890 10.0182 0.2463
105.1090 10.0049 0.2439
105.1290 9.9916 0.2504
105.1490 9.9782 0.2427
105.1690 9.9649 0.2422
105.1890 9.9516 0.2536
105.2090 9.9382 0.2456
105.2290 9.9249 0.2384
105.2490 9.9116 0.2505
105.2690 9.8982 0.2458
105.2890 9.8849 0.2378
105.3090 9.8715 0.2502
105.3290 9.8582 0.2415
105.3490 9.8448 0.2377
105.3690 9.8315 0.2472
105.3890 9.8181 0.2439
105.4090 9.8048 0.2384
105.4290 9.7915 0.2466
105.4490 9.7782 0.2369
105.4690 9.7649 0.2402
105.4890 9.7516 0.2422
105.5090 9.7383 0.2404
105.5290 9.7249 0.2351
105.5490 9.7116 0.2361
105.5690 9.6982 0.2444
105.5890 9.6848 0.2342
105.6090 9.6715 0.2410
105.6290 9.6582 0.2384
105.6490 9.6449 0.2309
105.6690 9.6315 0.2394
105.6890 9.6182 0.2472
105.7090 9.6049 0.2291
105.7290 9.5916 0.2398
105.7490 9.5782 0.2440
105.7690 9.5648 0.2285
105.7890 9.5515 0.2411
105.8090 9.5382 0.2432
105.8290 9.5248 0.2266
105.8490 9.5115 0.2470
105.8690 9.4982 0.2409
105.8890 9.4849 0.2219
105.9090 9.4716 0.2451
105.9290 9.4582 0.2400
105.9490 9.4449 0.2239
105.9690 9.4316 0.2438
105.9890 9.4183 0.2350
106.0090 9.4049 0.2247
106.0290 9.3915 0.2411
106.0490 9.3782 0.2345
106.0690 9.3649 0.2239
106.0890 9.3515 0.2364
106.1090 9.3382 0.2343
106.1290 9.3248 0.2250
106.1490 9.3115 0.2367
106.1690 9.2982 0.2312
106.1890 9.2849 0.2238
106.2090 9.2715 0.2370
106.2290 9.2582 0.2251
106.2490 9.2449 0.2276
106.2690 9.2316 0.2311
106.2890 9.2182 0.2231
106.3090 9.2049 0.2264
106.3290 9.1916 0.2312
106.3490 9.1783 0.2228
106.3690 9.1649 0.2200
106.3890 9.1515 0.2299
106.4090 9.1382 0.2236
106.4290 9.1248 0.2219
106.4490 9.1115 0.2242
106.4690 9.0981 0.2219
106.4890 9.0848 0.2244
106.5090 9.0715 0.2255
106.5290 9.0582 0.2205
106.5490 9.0449 0.2261
106.5690 9.0315 0.2240
106.5890 9.0182 0.2220
106.6090 9.0050 0.2180
106.6290 8.9916 0.2217
106.6490 8.9783 0.2255
106.6690 8.9649 0.2159
106.6890 8.9516 0.2215
106.7090 8.9382 0.2225
106.7290 8.9249 0.2135
106.7490 8.9115 0.2170
106.7690 8.8982 0.2218
106.7890 8.8849 0.2141
106.8090 8.8715 0.2181
106.8290 8.8582 0.2185
106.8490 8.8448 0.2127
106.8690 8.8315 0.2196
106.8890 8.8182 0.2135
106.9090 8.8049 0.2140
106.9290 8.7915 0.2173
106.9490 8.7782 0.2146
106.9690 8.7649 0.2168
106.9890 8.7516 0.2159
107.0090 8.7382 0.2129
107.0290 8.7249 0.2193
107.0490 8.7116 0.2132
107.0690 8.6983 0.2105
107.0890 8.6849 0.2143
107.1090 8.6715 0.2110
107.1290 8.6582 0.2106
107.1490 8.6448 0.2139
107.1690 8.6315 0.2065
107.1890 8.6182 0.2116
107.2090 8.6048 0.2144
107.2290 8.5915 0.2016
107.2490 8.5782 0.2116
107.2690 8.5649 0.2138
107.2890 8.5515 0.1978
107.3090 8.5382 0.2093
107.3290 8.5249 0.2127
107.3490 8.5116 0.1980
107.3690 8.4982 0.2130
107.3890 8.4849 0.2083
107.4090 8.4716 0.2015
107.4290 8.4583 0.2128
107.4490 8.4449 0.2019
107.4690 8.4315 0.1996
107.4890 8.4182 0.2114
107.5090 8.4049 0.2013
107.5290 8.3915 0.1990
107.5490 8.3782 0.2108
107.5690 8.3648 0.2041
107.5890 8.3515 0.2024
107.6090 8.3382 0.2022
107.6290 8.3249 0.2009
107.6490 8.3115 0.1997
107.6690 8.2982 0.2004
107.6890 8.2849 0.2067
107.7090 8.2716 0.1933
107.7290 8.2582 0.2004
107.7490 8.2449 0.2053
107.7690 8.2315 0.1957
107.7890 8.2182 0.1949
107.8090 8.2049 0.2062
107.8290 8.1915 0.1967
107.8490 8.1782 0.1912
107.8690 8.1649 0.2085
107.8890 8.1516 0.1911
107.9090 8.1382 0.1905
107.9290 8.1248 0.2054
107.9490 8.1115 0.1900
107.9690 8.0982 0.1949
107.9890 8.0848 0.2040
108.0090 8.0715 0.1875
108.0290 8.0582 0.1944
108.0490 8.0449 0.1999
108.0690 8.0316 0.1905
108.0890 8.0182 0.1939
108.1090 8.0049 0.2060
108.1290 7.9916 0.1847
108.1490 7.9783 0.1989
108.1690 7.9649 0.1979
108.1890 7.9515 0.1852
108.2090 7.9382 0.1962
108.2290 7.9248 0.1956
108.2490 7.9115 0.1880
108.2690 7.8982 0.1920
108.2890 7.8848 0.1947
108.3090 7.8715 0.1931
108.3290 7.8582 0.1927
108.3490 7.8449 0.1892
108.3690 7.8315 0.1949
108.3890 7.8182 0.1854
108.4090 7.8049 0.1947
108.4290 7.7916 0.1871
108.4490 7.7782 0.1900
108.4690 7.7649 0.1913
108.4890 7.7515 0.1935
108.5090 7.7382 0.1837
108.5290 7.7249 0.1947
108.5490 7.7115 0.1879
108.5690 7.6981 0.1820
108.5890 7.6848 0.2002
108.6090 7.6715 0.1752
108.6290 7.6582 0.1932
108.6490 7.6448 0.1838
108.6690 7.6315 0.1873
108.6890 7.6182 0.1810
108.7090 7.6049 0.1982
108.7290 7.5916 0.1761
108.7490 7.5782 0.1898
108.7690 7.5649 0.1909
108.7890 7.5516 0.1808
108.8090 7.5383 0.1856
108.8290 7.5249 0.1859
108.8490 7.5115 0.1854
108.8690 7.4982 0.1839
108.8890 7.4849 0.1886
108.9090 7.4715 0.1749
108.9290 7.4581 0.1911
108.9490 7.4448 0.1771
108.9690 7.4315 0.1851
108.9890 7.4182 0.1752
109.0090 7.4049 0.1881
109.0290 7.3915 0.1729
109.0490 7.3782 0.1814
109.0690 7.3649 0.1815
109.0890 7.3515 0.1788
109.1090 7.3382 0.1779
109.1290 7.3249 0.1858
109.1490 7.3116 0.1746
109.1690 7.2983 0.1691
109.1890 7.2849 0.1911
109.2090 7.2715 0.1724
109.2290 7.2582 0.1806
109.2490 7.2449 0.1763
109.2690 7.2315 0.1774
109.2890 7.2182 0.1682
109.3090 7.2048 0.1841
109.3290 7.1915 0.1667
109.3490 7.1782 0.1742
109.3690 7.1648 0.1753
109.3890 7.1515 0.1737
109.4090 7.1382 0.1764
109.4290 7.1249 0.1751
109.4490 7.1115 0.1738
109.4690 7.0982 0.1659
109.4890 7.0849 0.1769
109.5090 7.0716 0.1678
109.5290 7.0582 0.1729
109.5490 7.0449 0.1683
109.5690 7.0315 0.1734
109.5890 7.0182 0.1617
109.6090 7.0049 0.1776
109.6290 6.9915 0.1690
109.6490 6.9782 0.1675
109.6690 6.9649 0.1708
109.6890 6.9515 0.1649
109.7090 6.9382 0.1697
109.7290 6.9248 0.1686
109.7490 6.9114 0.1715
109.7690 6.8981 0.1624
109.7890 6.8849 0.1742
109.8090 6.8715 0.1623
109.8290 6.8582 0.1677
109.8490 6.8449 0.1656
109.8690 6.8316 0.1612
109.8890 6.8183 0.1637
109.9090 6.8049 0.1668
109.9290 6.7915 0.1644
109.9490 6.7782 0.1591
109.9690 6.7649 0.1611
109.9890 6.7515 0.1630
110.0090 6.7382 0.1596
110.0290 6.7248 0.1658
110.0490 6.7115 0.1637
110.0690 6.6982 0.1539
110.0890 6.6848 0.1673
110.1090 6.6715 0.1602
110.1290 6.6582 0.1553
110.1490 6.6449 0.1632
110.1690 6.6315 0.1592
110.1890 6.6182 0.1501
110.2090 6.6049 0.1624
110.2290 6.5916 0.1571
110.2490 6.5783 0.1505
110.2690 6.5649 0.1646
110.2890 6.5516 0.1527
110.3090 6.5383 0.1529
110.3290 6.5249 0.1593
110.3490 6.5115 0.1464
110.3690 6.4981 0.1573
110.3890 6.4848 0.1610
110.4090 6.4715 0.1458
110.4290 6.4582 0.1535
110.4490 6.4448 0.1548
110.4690 6.4315 0.1473
110.4890 6.4182 0.1566
110.5090 6.4049 0.1511
110.5290 6.3916 0.1478
110.5490 6.3782 0.1507
110.5690 6.3649 0.1515
110.5890 6.3516 0.1489
110.6090 6.3383 0.1540
110.6290 6.3249 0.1472
110.6490 6.3116 0.1439
110.6690 6.2982 0.1533
110.6890 6.2849 0.1441
110.7090 6.2715 0.1429
110.7290 6.2582 0.1522
110.7490 6.2449 0.1380
110.7690 6.2316 0.1455
110.7890 6.2182 0.1486
110.8090 6.2049 0.1408
110.8290 6.1915 0.1458
110.8490 6.1782 0.1454
110.8690 6.1649 0.1372
110.8890 6.1515 0.1482
110.9090 6.1382 0.1465
110.9290 6.1249 0.1351
110.9490 6.1116 0.1445
110.9690 6.0982 0.1439
110.9890 6.0849 0.1363
111.0090 6.0715 0.1479
111.0290 6.0582 0.1409
111.0490 6.0449 0.1330
111.0690 6.0316 0.1411
111.0890 6.0182 0.1350
111.1090 6.0049 0.1381
111.1290 5.9916 0.1413
111.1490 5.9782 0.1357
111.1690 5.9648 0.1347
111.1890 5.9514 0.1389
111.2090 5.9381 0.1336
111.2290 5.9248 0.1352
111.2490 5.9115 0.1342
111.2690 5.8981 0.1362
111.2890 5.8848 0.1352
111.3090 5.8715 0.1302
111.3290 5.8582 0.1321
111.3490 5.8449 0.1319
111.3690 5.8315 0.1329
111.3890 5.8182 0.1364
111.4090 5.8049 0.1284
111.4290 5.7916 0.1324
111.4490 5.7782 0.1315
111.4690 5.7648 0.1271
111.4890 5.7515 0.1257
111.5090 5.7382 0.1302
111.5290 5.7249 0.1305
111.5490 5.7115 0.1271
111.5690 5.6982 0.1328
111.5890 5.6849 0.1291
111.6090 5.6715 0.1263
111.6290 5.6582 0.1311
111.6490 5.6448 0.1295
111.6690 5.6316 0.1278
111.6890 5.6183 0.1261
111.7090 5.6049 0.1287
111.7290 5.5915 0.1229
111.7490 5.5782 0.1271
111.7690 5.5649 0.1262
111.7890 5.5516 0.1192
111.8090 5.5382 0.1297
111.8290 5.5248 0.1223
111.8490 5.5115 0.1203
111.8690 5.4982 0.1291
111.8890 5.4849 0.1194
111.9090 5.4715 0.1214
111.9290 5.4582 0.1248
111.9490 5.4449 0.1166
111.9690 5.4315 0.1215
111.9890 5.4182 0.1263
112.0090 5.4048 0.1172
112.0290 5.3916 0.1197
112.0490 5.3782 0.1214
112.0690 5.3649 0.1104
112.0890 5.3515 0.1241
112.1090 5.3382 0.1177
112.1290 5.3249 0.1117
112.1490 5.3115 0.1184
112.1690 5.2982 0.1178
112.1890 5.2848 0.1128
112.2090 5.2715 0.1165
112.2290 5.2582 0.1188
112.2490 5.2449 0.1100
112.2690 5.2315 0.1141
112.2890 5.2182 0.1157
112.3090 5.2049 0.1109
112.3290 5.1916 0.1172
112.3490 5.1782 0.1126
112.3690 5.1649 0.1123
112.3890 5.1516 0.1101
112.4090 5.1382 0.1127
112.4290 5.1249 0.1114
112.4490 5.1115 0.1068
112.4690 5.0982 0.1163
112.4890 5.0849 0.1078
112.5090 5.0716 0.1041
112.5290 5.0582 0.1166
112.5490 5.0448 0.1053
112.5690 5.0315 0.1022
112.5890 5.0182 0.1164
112.6090 5.0048 0.1001
112.6290 4.9915 0.1033
112.6490 4.9782 0.1160
112.6690 4.9649 0.0967
112.6890 4.9516 0.1011
112.7090 4.9382 0.1149
112.7290 4.9249 0.0970
112.7490 4.9116 0.1034
112.7690 4.8983 0.1073
112.7890 4.8849 0.0962
112.8090 4.8715 0.1000
112.8290 4.8582 0.1099
112.8490 4.8449 0.0900
112.8690 4.8316 0.1030
112.8890 4.8182 0.1069
112.9090 4.8048 0.0912
112.9290 4.7915 0.1063
112.9490 4.7782 0.0997
112.9690 4.7649 0.0910
112.9890 4.7515 0.1054
113.0090 4.7382 0.0974
113.0290 4.7249 0.0877
113.0490 4.7116 0.1011
113.0690 4.6982 0.0991
113.0890 4.6849 0.0895
113.1090 4.6716 0.0972
113.1290 4.6582 0.0955
113.1490 4.6449 0.0889
113.1690 4.6316 0.0954
113.1890 4.6182 0.0938
113.2090 4.6049 0.0929
113.2290 4.5916 0.0903
113.2490 4.5782 0.0937
113.2690 4.5648 0.0885
113.2890 4.5515 0.0879
113.3090 4.5382 0.0944
113.3290 4.5248 0.0856
113.3490 4.5115 0.0870
113.3690 4.4981 0.0934
113.3890 4.4848 0.0833
113.4090 4.4715 0.0861
113.4290 4.4582 0.0885
113.4490 4.4449 0.0818
113.4690 4.4316 0.0871
113.4890 4.4182 0.0888
113.5090 4.4049 0.0813
113.5290 4.3915 0.0858
113.5490 4.3782 0.0872
113.5690 4.3649 0.0813
113.5890 4.3516 0.0826
113.6090 4.3382 0.0851
113.6290 4.3248 0.0812
113.6490 4.3115 0.0812
113.6690 4.2982 0.0802
113.6890 4.2848 0.0811
113.7090 4.2715 0.0730
113.7290 4.2581 0.0857
113.7490 4.2448 0.0770
113.7690 4.2315 0.0775
113.7890 4.2182 0.0822
113.8090 4.2049 0.0766
113.8290 4.1916 0.0775
113.8490 4.1783 0.0808
113.8690 4.1649 0.0795
113.8890 4.1516 0.0759
113.9090 4.1382 0.0780
113.9290 4.1249 0.0739
113.9490 4.1115 0.0794
113.9690 4.0982 0.0700
113.9890 4.0848 0.0740
114.0090 4.0715 0.0785
114.0290 4.0582 0.0693
114.0490 4.0448 0.0690
114.0690 4.0315 0.0756
114.0890 4.0181 0.0688
114.1090 4.0048 0.0699
114.1290 3.9915 0.0693
114.1490 3.9782 0.0708
114.1690 3.9649 0.0712
114.1890 3.9516 0.0689
114.2090 3.9383 0.0666
114.2290 3.9249 0.0696
114.2490 3.9116 0.0684
114.2690 3.8982 0.0684
114.2890 3.8849 0.0674
114.3090 3.8716 0.0612
114.3290 3.8582 0.0663
114.3490 3.8448 0.0649
114.3690 3.8315 0.0564
114.3890 3.8182 0.0699
114.4090 3.8049 0.0641
114.4290 3.7915 0.0553
114.4490 3.7782 0.0697
114.4690 3.7649 0.0632
114.4890 3.7516 0.0554
114.5090 3.7382 0.0684
114.5290 3.7249 0.0612
114.5490 3.7116 0.0594
114.5690 3.6982 0.0641
114.5890 3.6849 0.0577
114.6090 3.6715 0.0606
114.6290 3.6582 0.0652
114.6490 3.6449 0.0580
114.6690 3.6316 0.0559
114.6890 3.6182 0.0582
114.7090 3.6049 0.0601
114.7290 3.5915 0.0552
114.7490 3.5782 0.0537
114.7690 3.5649 0.0579
114.7890 3.5515 0.0540
114.8090 3.5382 0.0543
114.8290 3.5248 0.0574
114.8490 3.5115 0.0539
114.8690 3.4982 0.0548
114.8890 3.4848 0.0547
114.9090 3.4715 0.0492
114.9290 3.4582 0.0532
114.9490 3.4449 0.0544
114.9690 3.4315 0.0499
114.9890 3.4182 0.0475
115.0090 3.4049 0.0546
115.0290 3.3916 0.0521
115.0490 3.3782 0.0477
115.0690 3.3648 0.0519
115.0890 3.3515 0.0494
115.1090 3.3382 0.0432
115.1290 3.3249 0.0474
115.1490 3.3115 0.0512
115.1690 3.2981 0.0422
115.1890 3.2848 0.0437
115.2090 3.2715 0.0478
115.2290 3.2582 0.0400
115.2490 3.2448 0.0499
115.2690 3.2315 0.0420
115.2890 3.2182 0.0383
115.3090 3.2049 0.0523
115.3290 3.1916 0.0369
115.3490 3.1782 0.0373
115.3690 3.1649 0.0533
115.3890 3.1516 0.0329
115.4090 3.1382 0.0365
115.4290 3.1248 0.0468
115.4490 3.1115 0.0308
115.4690 3.0982 0.0357
115.4890 3.0848 0.0468
115.5090 3.0715 0.0257
115.5290 3.0581 0.0414
115.5490 3.0448 0.0409
115.5690 3.0315 0.0300
115.5890 3.0182 0.0357
115.6090 3.0049 0.0405
115.6290 2.9916 0.0267
115.6490 2.9783 0.0298
115.6690 2.9649 0.0371
115.6890 2.9516 0.0268
115.7090 2.9382 0.0338
115.7290 2.9249 0.0348
115.7490 2.9116 0.0263
115.7690 2.8982 0.0232
115.7890 2.8848 0.0386
115.8090 2.8715 0.0226
115.8290 2.8582 0.0317
115.8490 2.8449 0.0251
115.8690 2.8315 0.0247
115.8890 2.8181 0.0236
115.9090 2.8048 0.0292
115.9290 2.7915 0.0246
115.9490 2.7782 0.0175
115.9690 2.7649 0.0308
115.9890 2.7516 0.0103
116.0090 2.7383 0.0250
116.0290 2.7249 0.0194
116.0490 2.7116 0.0215
116.0690 2.6982 0.0112
116.0890 2.6849 0.0238
116.1090 2.6716 0.0137
116.1290 2.6582 0.0137
116.1490 2.6448 0.0278
116.1690 2.6315 0.0069
116.1890 2.6182 0.0173
116.2090 2.6049 0.0169
116.2290 2.5915 0.0183
116.2490 2.5782 0.0027
116.2690 2.5649 0.0333
116.2890 2.5516 0.0009
116.3090 2.5382 0.0073
116.3290 2.5249 0.0232
116.3490 2.5116 0.0048
116.3690 2.4983 0.0051
116.3890 2.4850 0.0124
116.4090 2.4716 0.0091
116.4290 2.4582 0.0007
116.4490 2.4449 0.0239
116.4690 2.4315 -0.0091
116.4890 2.4182 0.0126
116.5090 2.4048 0.0037
116.5290 2.3915 0.0049
116.5490 2.3782 -0.0030
116.5690 2.3649 0.0062
116.5890 2.3515 -0.0008
116.6090 2.3381 -0.0010
116.6290 2.3248 0.0077
116.6490 2.3115 -0.0060
116.6690 2.2982 -0.0026
116.6890 2.2849 0.0023
116.7090 2.2716 0.0025
116.7290 2.2583 -0.0112
116.7490 2.2449 0.0084
116.7690 2.2316 -0.0074
116.7890 2.2182 -0.0057
116.8090 2.2049 0.0008
116.8290 2.1916 -0.0051
116.8490 2.1782 -0.0111
116.8690 2.1648 0.0053
116.8890 2.1515 -0.0104
116.9090 2.1382 -0.0101
116.9290 2.1249 0.0036
116.9490 2.1115 -0.0129
116.9690 2.0981 -0.0040
116.9890 2.0848 -0.0064
117.0090 2.0715 -0.0019
117.0290 2.0582 -0.0193
117.0490 2.0449 0.0052
117.0690 2.0316 -0.0077
117.0890 2.0183 -0.0121
117.1090 2.0050 -0.0041
117.1290 1.9916 -0.0082
117.1490 1.9782 -0.0152
117.1690 1.9649 -0.0012
117.1890 1.9516 -0.0084
117.2090 1.9382 -0.0191
117.2290 1.9249 0.0009
117.2490 1.9115 -0.0153
117.2690 1.8982 -0.0129
117.2890 1.8849 -0.0075
117.3090 1.8715 -0.0118
117.3290 1.8581 -0.0180
117.3490 1.8448 0.0032
117.3690 1.8315 -0.0226
117.3890 1.8182 -0.0099
117.4090 1.8048 -0.0041
117.4290 1.7915 -0.0159
117.4490 1.7782 -0.0084
117.4690 1.7649 -0.0072
117.4890 1.7516 -0.0150
117.5090 1.7383 -0.0092
117.5290 1.7249 -0.0050
117.5490 1.7116 -0.0172
117.5690 1.6982 -0.0089
117.5890 1.6848 -0.0094
117.6090 1.6715 -0.0096
117.6290 1.6581 -0.0117
117.6490 1.6448 -0.0060
117.6690 1.6315 -0.0162
117.6890 1.6181 -0.0131
117.7090 1.6048 -0.0104
117.7290 1.5915 -0.0074
117.7490 1.5782 -0.0101
117.7690 1.5649 -0.0119
117.7890 1.5516 -0.0064
117.8090 1.5383 -0.0140
117.8290 1.5250 -0.0106
117.8490 1.5116 -0.0063
117.8690 1.4982 -0.0125
117.8890 1.4849 -0.0072
117.9090 1.4716 -0.0080
117.9290 1.4582 -0.0186
117.9490 1.4448 -0.0077
117.9690 1.4315 -0.0049
117.9890 1.4182 -0.0181
118.0090 1.4049 -0.0085
118.0290 1.3915 -0.0074
118.0490 1.3782 -0.0166
118.0690 1.3648 -0.0090
118.0890 1.3515 -0.0055
118.1090 1.3382 -0.0185
118.1290 1.3249 -0.0063
118.1490 1.3115 -0.0092
118.1690 1.2982 -0.0182
118.1890 1.2849 -0.0072
118.2090 1.2716 -0.0110
118.2290 1.2582 -0.0123
118.2490 1.2449 -0.0035
118.2690 1.2316 -0.0128
118.2890 1.2183 -0.0143
118.3090 1.2049 -0.0101
118.3290 1.1915 -0.0106
118.3490 1.1782 -0.0119
118.3690 1.1649 -0.0131
118.3890 1.1515 -0.0094
118.4090 1.1382 -0.0118
118.4290 1.1248 -0.0114
118.4490 1.1115 -0.0035
118.4690 1.0982 -0.0161
118.4890 1.0848 -0.0106
118.5090 1.0715 -0.0055
118.5290 1.0582 -0.0155
118.5490 1.0449 -0.0109
118.5690 1.0316 -0.0048
118.5890 1.0182 -0.0156
118.6090 1.0049 -0.0145
118.6290 0.9916 -0.0076
118.6490 0.9783 -0.0143
118.6690 0.9649 -0.0133
118.6890 0.9515 -0.0066
118.7090 0.9382 -0.0153
118.7290 0.9249 -0.0139
118.7490 0.9116 -0.0016
118.7690 0.8982 -0.0184
118.7890 0.8848 -0.0115
118.8090 0.8715 -0.0025
118.8290 0.8582 -0.0205
118.8490 0.8448 -0.0124
118.8690 0.8315 -0.0047
118.8890 0.8182 -0.0195
118.9090 0.8049 -0.0138
118.9290 0.7916 -0.0053
118.9490 0.7782 -0.0169
118.9690 0.7649 -0.0131
118.9890 0.7516 -0.0056
119.0090 0.7383 -0.0210
119.0290 0.7249 -0.0105
119.0490 0.7115 -0.0030
119.0690 0.6982 -0.0161
119.0890 0.6849 -0.0085
119.1090 0.6715 -0.0103
119.1290 0.6582 -0.0124
119.1490 0.6448 -0.0105
119.1690 0.6315 -0.0101
119.1890 0.6182 -0.0123
119.2090 0.6048 -0.0141
119.2290 0.5915 -0.0088
119.2490 0.5782 -0.0080
119.2690 0.5649 -0.0138
119.2890 0.5516 -0.0128
119.3090 0.5382 -0.0084
119.3290 0.5249 -0.0142
119.3490 0.5115 -0.0124
119.3690 0.4982 -0.0074
119.3890 0.4848 -0.0177
119.4090 0.4715 -0.0080
119.4290 0.4581 -0.0063
119.4490 0.4449 -0.0185
119.4690 0.4315 -0.0098
119.4890 0.4182 -0.0091
119.5090 0.4048 -0.0196
119.5290 0.3915 -0.0104
119.5490 0.3782 -0.0064
119.5690 0.3649 -0.0167
119.5890 0.3515 -0.0132
119.6090 0.3382 -0.0043
119.6290 0.3249 -0.0216
119.6490 0.3116 -0.0109
119.6690 0.2982 -0.0052
119.6890 0.2849 -0.0181
119.7090 0.2715 -0.0120
119.7290 0.2582 -0.0067
119.7490 0.2449 -0.0185
119.7690 0.2315 -0.0116
119.7890 0.2182 -0.0081
119.8090 0.2049 -0.0214
119.8290 0.1915 -0.0130
119.8490 0.1782 -0.0073
119.8690 0.1648 -0.0190
119.8890 0.1515 -0.0092
119.9090 0.1382 -0.0061
119.9290 0.1249 -0.0162
119.9490 0.1116 -0.0104
119.9690 0.0982 -0.0053
119.9890 0.0849 -0.0215
120.0090 0.0716 -0.0129
120.0290 0.0582 -0.0043
120.0490 0.0448 -0.0224
120.0690 0.0315 -0.0090
120.0890 0.0182 -0.0064
120.1090 0.0049 -0.0214
120.1170 -0.0003 -0.0020
