Raw Data
Time Displacement Force
(s) (mm) (N)
0.0000 0.0000 -0.0031
0.0200 0.0001 0.0109
0.0400 0.0020 0.0710
0.0600 0.0094 0.0736
0.0800 0.0211 -0.0128
0.1000 0.0336 -0.0110
0.1200 0.0462 0.0324
0.1400 0.0596 -0.0039
0.1600 0.0737 -0.0080
0.1800 0.0880 0.0119
0.2000 0.1019 -0.0163
0.2200 0.1155 -0.0079
0.2400 0.1288 0.0105
0.2600 0.1421 -0.0115
0.2800 0.1554 0.0026
0.3000 0.1688 0.0132
0.3200 0.1822 -0.0173
0.3400 0.1955 0.0071
0.3600 0.2089 0.0064
0.3800 0.2223 -0.0132
0.4000 0.2356 0.0047
0.4200 0.2489 0.0051
0.4400 0.2623 -0.0054
0.4600 0.2756 0.0004
0.4800 0.2889 0.0031
0.5000 0.3022 0.0001
0.5200 0.3155 0.0027
0.5400 0.3289 0.0069
0.5600 0.3422 -0.0008
0.5800 0.3556 -0.0009
0.6000 0.3689 0.0036
0.6200 0.3822 0.0047
0.6400 0.3955 -0.0045
0.6600 0.4089 0.0050
0.6800 0.4222 0.0075
0.7000 0.4355 -0.0073
0.7200 0.4489 0.0107
0.7400 0.4622 0.0067
0.7600 0.4756 -0.0043
0.7800 0.4889 0.0060
0.8000 0.5023 0.0025
0.8200 0.5156 -0.0032
0.8400 0.5290 0.0106
0.8600 0.5423 0.0014
0.8800 0.5556 0.0030
0.9000 0.5689 0.0119
0.9200 0.5822 0.0028
0.9400 0.5956 -0.0009
0.9600 0.6088 0.0103
0.9800 0.6221 0.0054
1.0000 0.6354 0.0043
1.0200 0.6488 0.0107
1.0400 0.6622 0.0004
1.0600 0.6755 0.0074
1.0800 0.6889 0.0108
1.1000 0.7023 0.0024
1.1200 0.7156 0.0062
1.1400 0.7289 0.0047
1.1600 0.7423 0.0059
1.1800 0.7556 0.0064
1.2000 0.7690 0.0043
1.2200 0.7823 0.0108
1.2400 0.7956 0.0060
1.2600 0.8089 0.0042
1.2800 0.8222 0.0134
1.3000 0.8356 0.0084
1.3200 0.8489 0.0039
1.3400 0.8622 0.0121
1.3600 0.8755 0.0062
1.3800 0.8888 -0.0004
1.4000 0.9022 0.0149
1.4200 0.9155 0.0064
1.4400 0.9289 0.0054
1.4600 0.9422 0.0152
1.4800 0.9556 0.0031
1.5000 0.9690 0.0054
1.5200 0.9823 0.0152
1.5400 0.9956 0.0045
1.5600 1.0089 0.0023
1.5800 1.0223 0.0162
1.6000 1.0355 0.0038
1.6200 1.0489 0.0089
1.6400 1.0622 0.0182
1.6600 1.0755 0.0031
1.6800 1.0889 0.0074
1.7000 1.1022 0.0155
1.7200 1.1155 0.0074
1.7400 1.1289 0.0086
1.7600 1.1423 0.0172
1.7800 1.1556 0.0068
1.8000 1.1689 0.0081
1.8200 1.1823 0.0177
1.8400 1.1956 0.0041
1.8600 1.2089 0.0084
1.8800 1.2222 0.0185
1.9000 1.2356 0.0029
1.9200 1.2489 0.0113
1.9400 1.2623 0.0182
1.9600 1.2756 0.0018
1.9800 1.2889 0.0175
2.0000 1.3023 0.0217
2.0200 1.3156 -0.0006
2.0400 1.3289 0.0123
2.0600 1.3422 0.0255
2.0800 1.3555 0.0056
2.1000 1.3689 0.0083
2.1200 1.3822 0.0261
2.1400 1.3955 0.0029
2.1600 1.4089 0.0155
2.1800 1.4222 0.0258
2.2000 1.4356 0.0042
2.2200 1.4489 0.0180
2.2400 1.4623 0.0261
2.2600 1.4756 0.0049
2.2800 1.4890 0.0230
2.3000 1.5023 0.0297
2.3200 1.5156 0.0085
2.3400 1.5290 0.0238
2.3600 1.5423 0.0345
2.3800 1.5556 0.0106
2.4000 1.5689 0.0322
2.4200 1.5822 0.0331
2.4400 1.5955 0.0169
2.4600 1.6089 0.0323
2.4800 1.6222 0.0355
2.5000 1.6355 0.0252
2.5200 1.6488 0.0345
2.5400 1.6622 0.0408
2.5600 1.6756 0.0269
2.5800 1.6890 0.0391
2.6000 1.7023 0.0503
2.6200 1.7156 0.0291
2.6400 1.7290 0.0469
2.6600 1.7423 0.0575
2.6800 1.7556 0.0374
2.7000 1.7689 0.0552
2.7200 1.7822 0.0648
2.7400 1.7956 0.0493
2.7600 1.8089 0.0630
2.7800 1.8222 0.0697
2.8000 1.8355 0.0583
2.8200 1.8489 0.0768
2.8400 1.8623 0.0709
2.8600 1.8756 0.0653
2.8800 1.8889 0.0820
2.9000 1.9022 0.0814
2.9200 1.9156 0.0708
2.9400 1.9289 0.0952
2.9600 1.9423 0.0895
2.9800 1.9556 0.0852
3.0000 1.9690 0.1028
3.0200 1.9823 0.0978
3.0400 1.9956 0.0974
3.0600 2.0089 0.1104
3.0800 2.0223 0.1060
3.1000 2.0356 0.1066
3.1200 2.0489 0.1116
3.1400 2.0622 0.1156
3.1600 2.0755 0.1149
3.1800 2.0888 0.1205
3.2000 2.1022 0.1200
3.2200 2.1155 0.1200
3.2400 2.1289 0.1273
3.2600 2.1423 0.1323
3.2800 2.1556 0.1264
3.3000 2.1690 0.1303
3.3200 2.1823 0.1409
3.3400 2.1956 0.1365
3.3600 2.2090 0.1423
3.3800 2.2223 0.1468
3.4000 2.2356 0.1433
3.4200 2.2489 0.1480
3.4400 2.2622 0.1537
3.4600 2.2756 0.1533
3.4800 2.2889 0.1557
3.5000 2.3022 0.1620
3.5200 2.3156 0.1583
3.5400 2.3289 0.1620
3.5600 2.3422 0.1711
3.5800 2.3555 0.1623
3.6000 2.3689 0.1703
3.6200 2.3822 0.1768
3.6400 2.3956 0.1680
3.6600 2.4090 0.1748
3.6800 2.4223 0.1868
3.7000 2.4356 0.1785
3.7200 2.4490 0.1806
3.7400 2.4623 0.1886
3.7600 2.4756 0.1849
3.7800 2.4889 0.1917
3.8000 2.5022 0.1965
3.8200 2.5156 0.1869
3.8400 2.5289 0.1972
3.8600 2.5422 0.2030
3.8800 2.5555 0.1974
3.9000 2.5689 0.2030
3.9200 2.5822 0.2044
3.9400 2.5956 0.2023
3.9600 2.6089 0.2120
3.9800 2.6222 0.2076
4.0000 2.6356 0.2120
4.0200 2.6489 0.2172
4.0400 2.6622 0.2159
4.0600 2.6756 0.2184
4.0800 2.6889 0.2227
4.1000 2.7023 0.2219
4.1200 2.7156 0.2253
4.1400 2.7289 0.2250
4.1600 2.7423 0.2281
4.1800 2.7556 0.2315
4.2000 2.7690 0.2305
4.2200 2.7822 0.2326
4.2400 2.7955 0.2381
4.2600 2.8088 0.2410
4.2800 2.8222 0.2387
4.3000 2.8355 0.2447
4.3200 2.8488 0.2451
4.3400 2.8622 0.2444
4.3600 2.8756 0.2467
4.3800 2.8890 0.2498
4.4000 2.9023 0.2508
4.4200 2.9156 0.2505
4.4400 2.9290 0.2550
4.4600 2.9423 0.2569
4.4800 2.9557 0.2550
4.5000 2.9689 0.2656
4.5200 2.9822 0.2598
4.5400 2.9956 0.2630
4.5600 3.0089 0.2685
4.5800 3.0222 0.2654
4.6000 3.0355 0.2686
4.6200 3.0488 0.2777
4.6400 3.0622 0.2696
4.6600 3.0755 0.2724
4.6800 3.0889 0.2787
4.7000 3.1022 0.2799
4.7200 3.1156 0.2809
4.7400 3.1290 0.2821
4.7600 3.1423 0.2797
4.7800 3.1556 0.2870
4.8000 3.1690 0.2904
4.8200 3.1823 0.2798
4.8400 3.1956 0.2916
4.8600 3.2089 0.2966
4.8800 3.2222 0.2866
4.9000 3.2355 0.3012
4.9200 3.2489 0.3013
4.9400 3.2622 0.2937
4.9600 3.2755 0.3053
4.9800 3.2888 0.3027
5.0000 3.3022 0.2979
5.0200 3.3156 0.3102
5.0400 3.3289 0.3107
5.0600 3.3422 0.3002
5.0800 3.3556 0.3195
5.1000 3.3690 0.3102
5.1200 3.3823 0.3071
5.1400 3.3956 0.3236
5.1600 3.4089 0.3187
5.1800 3.4223 0.3088
5.2000 3.4356 0.3286
5.2200 3.4489 0.3242
5.2400 3.4623 0.3177
5.2600 3.4756 0.3351
5.2800 3.4889 0.3225
5.3000 3.5022 0.3195
5.3200 3.5155 0.3429
5.3400 3.5288 0.3320
5.3600 3.5422 0.3234
5.3800 3.5556 0.3406
5.4000 3.5689 0.3359
5.4200 3.5822 0.3284
5.4400 3.5956 0.3489
5.4600 3.6090 0.3401
5.4800 3.6223 0.3319
5.5000 3.6356 0.3519
5.5200 3.6489 0.3431
5.5400 3.6623 0.3416
5.5600 3.6756 0.3553
5.5800 3.6889 0.3483
5.6000 3.7022 0.3446
5.6200 3.7156 0.3534
5.6400 3.7289 0.3552
5.6600 3.7422 0.3502
5.6800 3.7555 0.3593
5.7000 3.7689 0.3592
5.7200 3.7822 0.3564
5.7400 3.7956 0.3613
5.7600 3.8089 0.3639
5.7800 3.8222 0.3594
5.8000 3.8356 0.3656
5.8200 3.8489 0.3680
5.8400 3.8623 0.3625
5.8600 3.8756 0.3773
5.8800 3.8889 0.3708
5.9000 3.9023 0.3686
5.9200 3.9157 0.3751
5.9400 3.9289 0.3758
5.9600 3.9422 0.3694
5.9800 3.9556 0.3787
6.0000 3.9689 0.3802
6.0200 3.9822 0.3740
6.0400 3.9955 0.3861
6.0600 4.0089 0.3858
6.0800 4.0222 0.3815
6.1000 4.0355 0.3916
6.1200 4.0489 0.3875
6.1400 4.0622 0.3874
6.1600 4.0756 0.3969
6.1800 4.0890 0.3940
6.2000 4.1023 0.3880
6.2200 4.1156 0.3957
6.2400 4.1289 0.3987
6.2600 4.1423 0.3945
6.2800 4.1556 0.3984
6.3000 4.1689 0.3982
6.3200 4.1822 0.4035
6.3400 4.1956 0.4001
6.3600 4.2089 0.4060
6.3800 4.2222 0.4033
6.4000 4.2355 0.4046
6.4200 4.2488 0.4101
6.4400 4.2622 0.4059
6.4600 4.2755 0.4076
6.4800 4.2888 0.4155
6.5000 4.3022 0.4126
6.5200 4.3156 0.4142
6.5400 4.3290 0.4199
6.5600 4.3423 0.4133
6.5800 4.3556 0.4180
6.6000 4.3690 0.4281
6.6200 4.3823 0.4124
6.6400 4.3957 0.4218
6.6600 4.4089 0.4300
6.6800 4.4222 0.4156
6.7000 4.4355 0.4296
6.7200 4.4489 0.4365
6.7400 4.4622 0.4171
6.7600 4.4755 0.4328
6.7800 4.4889 0.4395
6.8000 4.5022 0.4198
6.8200 4.5156 0.4344
6.8400 4.5289 0.4404
6.8600 4.5422 0.4263
6.8800 4.5556 0.4397
6.9000 4.5690 0.4352
6.9200 4.5823 0.4304
6.9400 4.5956 0.4478
6.9600 4.6089 0.4394
6.9800 4.6223 0.4380
7.0000 4.6356 0.4526
7.0200 4.6489 0.4412
7.0400 4.6622 0.4415
7.0600 4.6756 0.4582
7.0800 4.6889 0.4408
7.1000 4.7022 0.4460
7.1200 4.7155 0.4559
7.1400 4.7289 0.4490
7.1600 4.7422 0.4527
7.1800 4.7556 0.4569
7.2000 4.7689 0.4514
7.2200 4.7822 0.4552
7.2400 4.7956 0.4586
7.2600 4.8090 0.4564
7.2800 4.8223 0.4592
7.3000 4.8356 0.4610
7.3200 4.8489 0.4624
7.3400 4.8622 0.4618
7.3600 4.8756 0.4646
7.3800 4.8889 0.4678
7.4000 4.9022 0.4622
7.4200 4.9156 0.4730
7.4400 4.9289 0.4681
7.4600 4.9423 0.4671
7.4800 4.9556 0.4729
7.5000 4.9689 0.4769
7.5200 4.9822 0.4705
7.5400 4.9956 0.4720
7.5600 5.0089 0.4778
7.5800 5.0222 0.4704
7.6000 5.0356 0.4825
7.6200 5.0490 0.4762
7.6400 5.0623 0.4719
7.6600 5.0756 0.4880
7.6800 5.0890 0.4817
7.7000 5.1023 0.4782
7.7200 5.1156 0.4879
7.7400 5.1289 0.4870
7.7600 5.1422 0.4831
7.7800 5.1556 0.4881
7.8000 5.1689 0.4881
7.8200 5.1822 0.4887
7.8400 5.1956 0.4939
7.8600 5.2089 0.4923
7.8800 5.2222 0.4959
7.9000 5.2356 0.4934
7.9200 5.2489 0.4916
7.9400 5.2622 0.4962
7.9600 5.2756 0.4957
7.9800 5.2889 0.4925
8.0000 5.3023 0.4992
8.0200 5.3156 0.4996
8.0400 5.3289 0.5002
8.0600 5.3423 0.4995
8.0800 5.3557 0.5025
8.1000 5.3690 0.5064
8.1200 5.3823 0.5060
8.1400 5.3956 0.5048
8.1600 5.4089 0.5060
8.1800 5.4223 0.5096
8.2000 5.4355 0.5067
8.2200 5.4488 0.5086
8.2400 5.4622 0.5163
8.2600 5.4755 0.5094
8.2800 5.4889 0.5105
8.3000 5.5022 0.5164
8.3200 5.5156 0.5125
8.3400 5.5290 0.5134
8.3600 5.5423 0.5172
8.3800 5.5556 0.5175
8.4000 5.5689 0.5219
8.4200 5.5823 0.5254
8.4400 5.5956 0.5138
8.4600 5.6090 0.5200
8.4800 5.6222 0.5242
8.5000 5.6356 0.5238
8.5200 5.6489 0.5210
8.5400 5.6622 0.5259
8.5600 5.6755 0.5269
8.5800 5.6888 0.5219
8.6000 5.7022 0.5329
8.6200 5.7155 0.5289
8.6400 5.7289 0.5231
8.6600 5.7422 0.5361
8.6800 5.7555 0.5314
8.7000 5.7689 0.5281
8.7200 5.7823 0.5397
8.7400 5.7956 0.5336
8.7600 5.8089 0.5304
8.7800 5.8223 0.5478
8.8000 5.8356 0.5348
8.8200 5.8489 0.5320
8.8400 5.8622 0.5500
8.8600 5.8755 0.5392
8.8800 5.8888 0.5368
8.9000 5.9022 0.5495
8.9200 5.9155 0.5395
8.9400 5.9289 0.5398
8.9600 5.9422 0.5495
8.9800 5.9556 0.5461
9.0000 5.9690 0.5426
9.0200 5.9823 0.5542
9.0400 5.9956 0.5479
9.0600 6.0090 0.5430
9.0800 6.0223 0.5599
9.1000 6.0356 0.5438
9.1200 6.0489 0.5478
9.1400 6.0622 0.5634
9.1600 6.0756 0.5475
9.1800 6.0889 0.5476
9.2000 6.1023 0.5647
9.2200 6.1156 0.5531
9.2400 6.1289 0.5508
9.2600 6.1423 0.5678
9.2800 6.1556 0.5568
9.3000 6.1689 0.5517
9.3200 6.1822 0.5702
9.3400 6.1956 0.5582
9.3600 6.2089 0.5548
9.3800 6.2222 0.5712
9.4000 6.2355 0.5637
9.4200 6.2489 0.5554
9.4400 6.2623 0.5727
9.4600 6.2756 0.5671
9.4800 6.2889 0.5599
9.5000 6.3023 0.5743
9.5200 6.3156 0.5667
9.5400 6.3290 0.5635
9.5600 6.3423 0.5820
9.5800 6.3556 0.5693
9.6000 6.3689 0.5635
9.6200 6.3823 0.5838
9.6400 6.3956 0.5703
9.6600 6.4089 0.5680
9.6800 6.4222 0.5876
9.7000 6.4355 0.5721
9.7200 6.4489 0.5709
9.7400 6.4622 0.5872
9.7600 6.4755 0.5748
9.7800 6.4889 0.5767
9.8000 6.5023 0.5895
9.8200 6.5156 0.5736
9.8400 6.5289 0.5783
9.8600 6.5423 0.5932
9.8800 6.5557 0.5749
9.9000 6.5690 0.5830
9.9200 6.5823 0.5946
9.9400 6.5956 0.5757
9.9600 6.6089 0.5912
9.9800 6.6222 0.5934
10.0000 6.6355 0.5762
10.0200 6.6489 0.5938
10.0400 6.6622 0.5935
10.0600 6.6756 0.5847
10.0800 6.6889 0.5964
10.1000 6.7022 0.5942
10.1200 6.7155 0.5864
10.1400 6.7289 0.5988
10.1600 6.7423 0.5929
10.1800 6.7556 0.5899
10.2000 6.7689 0.6014
10.2200 6.7823 0.5978
10.2400 6.7956 0.5946
10.2600 6.8090 0.6051
10.2800 6.8223 0.5961
10.3000 6.8356 0.6052
10.3200 6.8489 0.6039
10.3400 6.8623 0.5960
10.3600 6.8756 0.6065
10.3800 6.8889 0.6039
10.4000 6.9022 0.6034
10.4200 6.9155 0.6110
10.4400 6.9289 0.6022
10.4600 6.9422 0.6088
10.4800 6.9556 0.6106
10.5000 6.9689 0.6036
10.5200 6.9823 0.6108
10.5400 6.9957 0.6127
10.5600 7.0089 0.6040
10.5800 7.0223 0.6165
10.6000 7.0356 0.6142
10.6200 7.0490 0.6060
10.6400 7.0623 0.6213
10.6600 7.0756 0.6175
10.6800 7.0889 0.6097
10.7000 7.1023 0.6232
10.7200 7.1156 0.6161
10.7400 7.1289 0.6118
10.7600 7.1422 0.6243
10.7800 7.1556 0.6170
10.8000 7.1689 0.6178
10.8200 7.1822 0.6292
10.8400 7.1956 0.6209
10.8600 7.2089 0.6181
10.8800 7.2223 0.6292
10.9000 7.2356 0.6236
10.9200 7.2489 0.6240
10.9400 7.2623 0.6278
10.9600 7.2756 0.6288
10.9800 7.2889 0.6264
11.0000 7.3022 0.6307
11.0200 7.3155 0.6318
11.0400 7.3289 0.6310
11.0600 7.3422 0.6293
11.0800 7.3556 0.6361
11.1000 7.3689 0.6310
11.1200 7.3822 0.6311
11.1400 7.3956 0.6417
11.1600 7.4089 0.6340
11.1800 7.4222 0.6347
11.2000 7.4356 0.6427
11.2200 7.4489 0.6331
11.2400 7.4622 0.6397
11.2600 7.4756 0.6455
11.2800 7.4889 0.6314
11.3000 7.5022 0.6409
11.3200 7.5156 0.6446
11.3400 7.5290 0.6361
11.3600 7.5423 0.6465
11.3800 7.5556 0.6436
11.4000 7.5689 0.6431
11.4200 7.5823 0.6506
11.4400 7.5956 0.6452
11.4600 7.6089 0.6441
11.4800 7.6222 0.6515
11.5000 7.6355 0.6488
11.5200 7.6489 0.6503
11.5400 7.6622 0.6501
11.5600 7.6755 0.6502
11.5800 7.6889 0.6542
11.6000 7.7023 0.6504
11.6200 7.7157 0.6531
11.6400 7.7290 0.6563
11.6600 7.7423 0.6513
11.6800 7.7556 0.6529
11.7000 7.7690 0.6591
11.7200 7.7823 0.6535
11.7400 7.7956 0.6575
11.7600 7.8089 0.6627
11.7800 7.8223 0.6541
11.8000 7.8356 0.6611
11.8200 7.8489 0.6667
11.8400 7.8622 0.6540
11.8600 7.8755 0.6671
11.8800 7.8889 0.6656
11.9000 7.9022 0.6554
11.9200 7.9155 0.6671
11.9400 7.9289 0.6710
11.9600 7.9423 0.6568
11.9800 7.9557 0.6696
12.0000 7.9690 0.6685
12.0200 7.9823 0.6625
12.0400 7.9956 0.6726
12.0600 8.0089 0.6702
12.0800 8.0222 0.6642
12.1000 8.0355 0.6736
12.1200 8.0489 0.6741
12.1400 8.0622 0.6689
12.1600 8.0756 0.6777
12.1800 8.0889 0.6708
12.2000 8.1022 0.6711
12.2200 8.1155 0.6813
12.2400 8.1289 0.6717
12.2600 8.1422 0.6780
12.2800 8.1556 0.6813
12.3000 8.1689 0.6727
12.3200 8.1823 0.6791
12.3400 8.1956 0.6785
12.3600 8.2089 0.6801
12.3800 8.2223 0.6808
12.4000 8.2356 0.6803
12.4200 8.2490 0.6803
12.4400 8.2623 0.6779
12.4600 8.2756 0.6874
12.4800 8.2889 0.6826
12.5000 8.3023 0.6813
12.5200 8.3156 0.6879
12.5400 8.3289 0.6871
12.5600 8.3422 0.6851
12.5800 8.3555 0.6878
12.6000 8.3689 0.6901
12.6200 8.3822 0.6822
12.6400 8.3955 0.6904
12.6600 8.4089 0.6959
12.6800 8.4223 0.6827
12.7000 8.4356 0.6917
12.7200 8.4490 0.6972
12.7400 8.4623 0.6860
12.7600 8.4756 0.6989
12.7800 8.4890 0.6932
12.8000 8.5023 0.6875
12.8200 8.5155 0.7032
12.8400 8.5289 0.6969
12.8600 8.5422 0.6898
12.8800 8.5556 0.7037
12.9000 8.5689 0.6960
12.9200 8.5822 0.6936
12.9400 8.5955 0.7028
12.9600 8.6089 0.7011
12.9800 8.6222 0.6983
13.0000 8.6355 0.7064
13.0200 8.6489 0.7032
13.0400 8.6623 0.6991
13.0600 8.6756 0.7074
13.0800 8.6889 0.7036
13.1000 8.7023 0.7015
13.1200 8.7156 0.7075
13.1400 8.7290 0.7046
13.1600 8.7423 0.7024
13.1800 8.7556 0.7114
13.2000 8.7689 0.7114
13.2200 8.7822 0.7056
13.2400 8.7956 0.7114
13.2600 8.8089 0.7131
13.2800 8.8222 0.7082
13.3000 8.8355 0.7114
13.3200 8.8489 0.7120
13.3400 8.8622 0.7078
13.3600 8.8756 0.7148
13.3800 8.8889 0.7183
13.4000 8.9023 0.7103
13.4200 8.9156 0.7155
13.4400 8.9289 0.7185
13.4600 8.9423 0.7167
13.4800 8.9556 0.7171
13.5000 8.9690 0.7217
13.5200 8.9823 0.7156
13.5400 8.9956 0.7160
13.5600 9.0089 0.7293
13.5800 9.0223 0.7163
13.6000 9.0356 0.7176
13.6200 9.0489 0.7287
13.6400 9.0622 0.7217
13.6600 9.0755 0.7196
13.6800 9.0888 0.7314
13.7000 9.1022 0.7237
13.7200 9.1155 0.7158
13.7400 9.1289 0.7338
13.7600 9.1423 0.7247
13.7800 9.1557 0.7222
13.8000 9.1690 0.7339
13.8200 9.1823 0.7227
13.8400 9.1956 0.7261
13.8600 9.2090 0.7333
13.8800 9.2223 0.7261
13.9000 9.2356 0.7308
13.9200 9.2489 0.7377
13.9400 9.2622 0.7233
13.9600 9.2755 0.7294
13.9800 9.2888 0.7386
14.0000 9.3022 0.7285
14.0200 9.3155 0.7346
14.0400 9.3289 0.7411
14.0600 9.3422 0.7256
14.0800 9.3556 0.7369
14.1000 9.3689 0.7400
14.1200 9.3823 0.7332
14.1400 9.3956 0.7406
14.1600 9.4090 0.7352
14.1800 9.4223 0.7347
14.2000 9.4356 0.7457
14.2200 9.4490 0.7432
14.2400 9.4623 0.7326
14.2600 9.4756 0.7457
14.2800 9.4889 0.7412
14.3000 9.5022 0.7391
14.3200 9.5156 0.7479
14.3400 9.5289 0.7406
14.3600 9.5422 0.7413
14.3800 9.5555 0.7484
14.4000 9.5689 0.7434
14.4200 9.5822 0.7434
14.4400 9.5956 0.7478
14.4600 9.6089 0.7511
14.4800 9.6222 0.7404
14.5000 9.6356 0.7476
14.5200 9.6490 0.7495
14.5400 9.6623 0.7450
14.5600 9.6756 0.7536
14.5800 9.6890 0.7511
14.6000 9.7023 0.7449
14.6200 9.7156 0.7539
14.6400 9.7289 0.7516
14.6600 9.7423 0.7483
14.6800 9.7556 0.7551
14.7000 9.7689 0.7573
14.7200 9.7822 0.7476
14.7400 9.7955 0.7605
14.7600 9.8089 0.7552
14.7800 9.8222 0.7502
14.8000 9.8356 0.7592
14.8200 9.8489 0.7573
14.8400 9.8623 0.7540
14.8600 9.8756 0.7600
14.8800 9.8890 0.7581
14.9000 9.9023 0.7531
14.9200 9.9156 0.7658
14.9400 9.9290 0.7583
14.9600 9.9423 0.7550
14.9800 9.9556 0.7654
15.0000 9.9689 0.7618
15.0200 9.9822 0.7594
15.0400 9.9956 0.7632
15.0600 10.0089 0.7628
15.0800 10.0222 0.7631
15.1000 10.0355 0.7639
15.1200 10.0489 0.7663
15.1400 10.0622 0.7594
15.1600 10.0755 0.7646
15.1800 10.0889 0.7651
15.2000 10.1022 0.7660
15.2200 10.1156 0.7656
15.2400 10.1289 0.7601
15.2600 10.1423 0.7715
15.2800 10.1556 0.7743
15.3000 10.1690 0.7594
15.3200 10.1823 0.7730
15.3400 10.1956 0.7679
15.3600 10.2089 0.7594
15.3800 10.2223 0.7747
15.4000 10.2356 0.7742
15.4200 10.2489 0.7638
15.4400 10.2622 0.7750
15.4600 10.2755 0.7768
15.4800 10.2888 0.7629
15.5000 10.3022 0.7763
15.5200 10.3155 0.7729
15.5400 10.3289 0.7664
15.5600 10.3423 0.7798
15.5800 10.3557 0.7726
15.6000 10.3690 0.7736
15.6200 10.3823 0.7800
15.6400 10.3956 0.7721
15.6600 10.4090 0.7749
15.6800 10.4223 0.7809
15.7000 10.4356 0.7751
15.7200 10.4489 0.7756
15.7400 10.4622 0.7852
15.7600 10.4756 0.7802
15.7800 10.4889 0.7756
15.8000 10.5022 0.7818
15.8200 10.5155 0.7809
15.8400 10.5289 0.7764
15.8600 10.5422 0.7836
15.8800 10.5555 0.7863
15.9000 10.5689 0.7813
15.9200 10.5822 0.7793
15.9400 10.5956 0.7935
15.9600 10.6090 0.7863
15.9800 10.6223 0.7828
16.0000 10.6356 0.7901
16.0200 10.6490 0.7810
16.0400 10.6623 0.7847
16.0600 10.6756 0.7914
16.0800 10.6889 0.7882
16.1000 10.7022 0.7869
16.1200 10.7155 0.7935
16.1400 10.7289 0.7886
16.1600 10.7422 0.7883
16.1800 10.7555 0.8006
16.2000 10.7689 0.7863
16.2200 10.7823 0.7908
16.2400 10.7956 0.7961
16.2600 10.8089 0.7899
16.2800 10.8223 0.7971
16.3000 10.8356 0.7977
16.3200 10.8489 0.7858
16.3400 10.8622 0.7999
16.3600 10.8756 0.8049
16.3800 10.8889 0.7878
16.4000 10.9023 0.8002
16.4200 10.9156 0.8006
16.4400 10.9289 0.7868
16.4600 10.9423 0.8061
16.4800 10.9556 0.8034
16.5000 10.9689 0.7936
16.5200 10.9822 0.8058
16.5400 10.9955 0.7949
16.5600 11.0089 0.7983
16.5800 11.0222 0.8123
16.6000 11.0355 0.8008
16.6200 11.0489 0.7927
16.6400 11.0622 0.8151
16.6600 11.0756 0.7942
16.6800 11.0889 0.7978
16.7000 11.1023 0.8183
16.7200 11.1156 0.7999
16.7400 11.1290 0.8047
16.7600 11.1423 0.8172
16.7800 11.1556 0.7957
16.8000 11.1689 0.8057
16.8200 11.1823 0.8191
16.8400 11.1956 0.8008
16.8600 11.2089 0.8051
16.8800 11.2222 0.8193
16.9000 11.2355 0.8050
16.9200 11.2488 0.8076
16.9400 11.2622 0.8187
16.9600 11.2755 0.8054
16.9800 11.2888 0.8139
17.0000 11.3022 0.8187
17.0200 11.3156 0.8101
17.0400 11.3290 0.8174
17.0600 11.3423 0.8133
17.0800 11.3556 0.8135
17.1000 11.3690 0.8171
17.1200 11.3823 0.8157
17.1400 11.3956 0.8160
17.1600 11.4089 0.8147
17.1800 11.4222 0.8169
17.2000 11.4356 0.8242
17.2200 11.4489 0.8137
17.2400 11.4622 0.8194
17.2600 11.4755 0.8259
17.2800 11.4889 0.8102
17.3000 11.5022 0.8230
17.3200 11.5156 0.8295
17.3400 11.5289 0.8086
17.3600 11.5423 0.8295
17.3800 11.5556 0.8275
17.4000 11.5690 0.8072
17.4200 11.5823 0.8374
17.4400 11.5956 0.8301
17.4600 11.6090 0.8093
17.4800 11.6223 0.8361
17.5000 11.6356 0.8258
17.5200 11.6489 0.8125
17.5400 11.6622 0.8430
17.5600 11.6756 0.8221
17.5800 11.6889 0.8178
17.6000 11.7022 0.8422
17.6200 11.7155 0.8252
17.6400 11.7288 0.8220
17.6600 11.7422 0.8410
17.6800 11.7555 0.8237
17.7000 11.7689 0.8274
17.7200 11.7823 0.8408
17.7400 11.7956 0.8251
17.7600 11.8090 0.8288
17.7800 11.8223 0.8376
17.8000 11.8356 0.8295
17.8200 11.8489 0.8357
17.8400 11.8623 0.8335
17.8600 11.8756 0.8327
17.8800 11.8889 0.8410
17.9000 11.9022 0.8330
17.9200 11.9156 0.8397
17.9400 11.9289 0.8379
17.9600 11.9422 0.8342
17.9800 11.9555 0.8387
18.0000 11.9689 0.8397
18.0200 11.9822 0.8334
18.0400 11.9955 0.8439
18.0600 12.0089 0.8413
18.0800 12.0222 0.8368
18.1000 12.0356 0.8480
18.1200 12.0490 0.8368
18.1400 12.0623 0.8375
18.1600 12.0756 0.8535
18.1800 12.0889 0.8365
18.2000 12.1023 0.8433
18.2200 12.1156 0.8529
18.2400 12.1289 0.8382
18.2600 12.1422 0.8460
18.2800 12.1556 0.8535
18.3000 12.1689 0.8360
18.3200 12.1822 0.8488
18.3400 12.1955 0.8521
18.3600 12.2089 0.8414
18.3800 12.2222 0.8529
18.4000 12.2356 0.8501
18.4200 12.2489 0.8409
18.4400 12.2622 0.8504
18.4600 12.2756 0.8512
18.4800 12.2889 0.8462
18.5000 12.3022 0.8504
18.5200 12.3155 0.8519
18.5400 12.3289 0.8487
18.5600 12.3423 0.8532
18.5800 12.3556 0.8531
18.6000 12.3690 0.8514
18.6200 12.3823 0.8539
18.6400 12.3956 0.8558
18.6600 12.4090 0.8520
18.6800 12.4223 0.8524
18.7000 12.4355 0.8590
18.7200 12.4489 0.8517
18.7400 12.4622 0.8550
18.7600 12.4755 0.8589
18.7800 12.4888 0.8533
18.8000 12.5022 0.8553
18.8200 12.5156 0.8638
18.8400 12.5290 0.8524
18.8600 12.5423 0.8549
18.8800 12.5556 0.8674
18.9000 12.5690 0.8571
18.9200 12.5823 0.8569
18.9400 12.5957 0.8626
18.9600 12.6089 0.8595
18.9800 12.6222 0.8628
19.0000 12.6356 0.8682
19.0200 12.6489 0.8593
19.0400 12.6622 0.8540
19.0600 12.6755 0.8729
19.0800 12.6888 0.8685
19.1000 12.7022 0.8552
19.1200 12.7155 0.8718
19.1400 12.7289 0.8631
19.1600 12.7422 0.8563
19.1800 12.7556 0.8745
19.2000 12.7690 0.8650
19.2200 12.7823 0.8615
19.2400 12.7956 0.8746
19.2600 12.8090 0.8595
19.2800 12.8223 0.8657
19.3000 12.8356 0.8810
19.3200 12.8489 0.8594
19.3400 12.8622 0.8679
19.3600 12.8755 0.8835
19.3800 12.8889 0.8607
19.4000 12.9022 0.8665
19.4200 12.9155 0.8831
19.4400 12.9288 0.8656
19.4600 12.9422 0.8719
19.4800 12.9556 0.8793
19.5000 12.9689 0.8643
19.5200 12.9822 0.8778
19.5400 12.9956 0.8838
19.5600 13.0090 0.8673
19.5800 13.0223 0.8758
19.6000 13.0356 0.8849
19.6200 13.0489 0.8694
19.6400 13.0623 0.8770
19.6600 13.0756 0.8846
19.6800 13.0890 0.8731
19.7000 13.1023 0.8848
19.7200 13.1156 0.8811
19.7400 13.1289 0.8741
19.7600 13.1422 0.8851
19.7800 13.1555 0.8819
19.8000 13.1688 0.8789
19.8200 13.1822 0.8837
19.8400 13.1955 0.8825
19.8600 13.2089 0.8790
19.8800 13.2222 0.8892
19.9000 13.2356 0.8825
19.9200 13.2490 0.8849
19.9400 13.2623 0.8864
19.9600 13.2756 0.8797
19.9800 13.2889 0.8882
20.0000 13.3023 0.8860
20.0200 13.3156 0.8830
20.0400 13.3289 0.8916
20.0600 13.3422 0.8900
20.0800 13.3556 0.8859
20.1000 13.3689 0.8893
20.1200 13.3822 0.8879
20.1400 13.3955 0.8890
20.1600 13.4088 0.8962
20.1800 13.4222 0.8896
20.2000 13.4356 0.8887
20.2200 13.4489 0.8930
20.2400 13.4622 0.8911
20.2600 13.4756 0.8915
20.2800 13.4889 0.8948
20.3000 13.5023 0.8924
20.3200 13.5156 0.8944
20.3400 13.5289 0.8908
20.3600 13.5423 0.8935
20.3800 13.5557 0.8994
20.4000 13.5690 0.8939
20.4200 13.5823 0.8997
20.4400 13.5956 0.8985
20.4600 13.6089 0.8968
20.4800 13.6223 0.9020
20.5000 13.6356 0.8989
20.5200 13.6489 0.8979
20.5400 13.6622 0.9027
20.5600 13.6755 0.8972
20.5800 13.6888 0.9030
20.6000 13.7022 0.9058
20.6200 13.7155 0.8974
20.6400 13.7289 0.9034
20.6600 13.7423 0.9022
20.6800 13.7556 0.8951
20.7000 13.7689 0.9091
20.7200 13.7823 0.9081
20.7400 13.7956 0.8945
20.7600 13.8090 0.9113
20.7800 13.8223 0.9087
20.8000 13.8356 0.8975
20.8200 13.8489 0.9180
20.8400 13.8623 0.9046
20.8600 13.8755 0.9011
20.8800 13.8888 0.9159
20.9000 13.9022 0.9052
20.9200 13.9155 0.9034
20.9400 13.9288 0.9197
20.9600 13.9422 0.9073
20.9800 13.9556 0.9029
21.0000 13.9690 0.9211
21.0200 13.9824 0.9094
21.0400 13.9957 0.9052
21.0600 14.0090 0.9237
21.0800 14.0223 0.9106
21.1000 14.0357 0.9078
21.1200 14.0490 0.9193
21.1400 14.0622 0.9117
21.1600 14.0755 0.9157
21.1800 14.0889 0.9184
21.2000 14.1022 0.9130
21.2200 14.1155 0.9148
21.2400 14.1289 0.9221
21.2600 14.1422 0.9098
21.2800 14.1556 0.9159
21.3000 14.1689 0.9195
21.3200 14.1823 0.9152
21.3400 14.1956 0.9250
21.3600 14.2090 0.9167
21.3800 14.2223 0.9212
21.4000 14.2356 0.9223
21.4200 14.2489 0.9167
21.4400 14.2623 0.9276
21.4600 14.2756 0.9182
21.4800 14.2889 0.9190
21.5000 14.3022 0.9257
21.5200 14.3156 0.9208
21.5400 14.3289 0.9227
21.5600 14.3422 0.9286
21.5800 14.3555 0.9185
21.6000 14.3688 0.9252
21.6200 14.3822 0.9336
21.6400 14.3956 0.9147
21.6600 14.4089 0.9291
21.6800 14.4222 0.9303
21.7000 14.4356 0.9204
21.7200 14.4490 0.9274
21.7400 14.4623 0.9293
21.7600 14.4756 0.9225
21.7800 14.4889 0.9319
21.8000 14.5022 0.9338
21.8200 14.5156 0.9231
21.8400 14.5289 0.9333
21.8600 14.5422 0.9330
21.8800 14.5556 0.9264
21.9000 14.5689 0.9356
21.9200 14.5822 0.9305
21.9400 14.5955 0.9290
21.9600 14.6088 0.9387
21.9800 14.6222 0.9295
22.0000 14.6355 0.9335
22.0200 14.6489 0.9379
22.0400 14.6622 0.9294
22.0600 14.6756 0.9354
22.0800 14.6889 0.9343
22.1000 14.7023 0.9343
22.1200 14.7156 0.9387
22.1400 14.7289 0.9378
22.1600 14.7423 0.9373
22.1800 14.7556 0.9392
22.2000 14.7689 0.9353
22.2200 14.7822 0.9430
22.2400 14.7956 0.9433
22.2600 14.8089 0.9366
22.2800 14.8223 0.9463
22.3000 14.8356 0.9396
22.3200 14.8489 0.9387
22.3400 14.8622 0.9480
22.3600 14.8756 0.9377
22.3800 14.8889 0.9452
22.4000 14.9022 0.9476
22.4200 14.9156 0.9424
22.4400 14.9289 0.9467
22.4600 14.9423 0.9454
22.4800 14.9556 0.9435
22.5000 14.9689 0.9488
22.5200 14.9823 0.9486
22.5400 14.9956 0.9450
22.5600 15.0090 0.9540
22.5800 15.0223 0.9494
22.6000 15.0356 0.9484
22.6200 15.0489 0.9544
22.6400 15.0623 0.9465
22.6600 15.0756 0.9510
22.6800 15.0889 0.9592
22.7000 15.1022 0.9442
22.7200 15.1155 0.9562
22.7400 15.1289 0.9543
22.7600 15.1422 0.9473
22.7800 15.1556 0.9583
22.8000 15.1690 0.9568
22.8200 15.1823 0.9480
22.8400 15.1956 0.9630
22.8600 15.2089 0.9561
22.8800 15.2223 0.9518
22.9000 15.2357 0.9635
22.9200 15.2490 0.9551
22.9400 15.2622 0.9556
22.9600 15.2755 0.9665
22.9800 15.2889 0.9564
23.0000 15.3022 0.9588
23.0200 15.3156 0.9648
23.0400 15.3289 0.9570
23.0600 15.3422 0.9625
23.0800 15.3555 0.9666
23.1000 15.3689 0.9586
23.1200 15.3822 0.9686
23.1400 15.3956 0.9653
23.1600 15.4089 0.9517
23.1800 15.4223 0.9702
23.2000 15.4356 0.9678
23.2200 15.4490 0.9603
23.2400 15.4623 0.9733
23.2600 15.4756 0.9666
23.2800 15.4889 0.9598
23.3000 15.5022 0.9746
23.3200 15.5155 0.9703
23.3400 15.5288 0.9650
23.3600 15.5422 0.9722
23.3800 15.5555 0.9679
23.4000 15.5688 0.9689
23.4200 15.5822 0.9796
23.4400 15.5956 0.9658
23.4600 15.6089 0.9687
23.4800 15.6223 0.9778
23.5000 15.6356 0.9668
23.5200 15.6490 0.9710
23.5400 15.6623 0.9780
23.5600 15.6756 0.9710
23.5800 15.6889 0.9739
23.6000 15.7022 0.9806
23.6200 15.7156 0.9730
23.6400 15.7289 0.9726
23.6600 15.7423 0.9824
23.6800 15.7556 0.9755
23.7000 15.7689 0.9761
23.7200 15.7823 0.9765
23.7400 15.7956 0.9753
23.7600 15.8089 0.9819
23.7800 15.8222 0.9781
23.8000 15.8356 0.9753
23.8200 15.8489 0.9825
23.8400 15.8622 0.9795
23.8600 15.8755 0.9839
23.8800 15.8889 0.9820
23.9000 15.9023 0.9770
23.9200 15.9156 0.9857
23.9400 15.9289 0.9794
23.9600 15.9423 0.9812
23.9800 15.9556 0.9875
24.0000 15.9690 0.9798
24.0200 15.9823 0.9789
24.0400 15.9956 0.9934
24.0600 16.0090 0.9849
24.0800 16.0223 0.9785
24.1000 16.0356 0.9945
24.1200 16.0489 0.9833
24.1400 16.0622 0.9823
24.1600 16.0755 0.9947
24.1800 16.0889 0.9827
24.2000 16.1022 0.9864
24.2200 16.1155 0.9972
24.2400 16.1289 0.9838
24.2600 16.1423 0.9820
24.2800 16.1556 0.9957
24.3000 16.1689 0.9890
24.3200 16.1823 0.9891
24.3400 16.1956 0.9974
24.3600 16.2090 0.9862
24.3800 16.2223 0.9892
24.4000 16.2355 1.0028
24.4200 16.2489 0.9863
24.4400 16.2622 0.9920
24.4600 16.2756 1.0026
24.4800 16.2889 0.9851
24.5000 16.3022 0.9922
24.5200 16.3156 1.0066
24.5400 16.3289 0.9861
24.5600 16.3422 0.9943
24.5800 16.3556 1.0031
24.6000 16.3689 0.9878
24.6200 16.3823 1.0007
24.6400 16.3956 0.9986
24.6600 16.4089 0.9889
24.6800 16.4223 1.0031
24.7000 16.4356 1.0026
24.7200 16.4490 0.9903
24.7400 16.4623 1.0018
24.7600 16.4756 1.0014
24.7800 16.4889 0.9970
24.8000 16.5022 1.0011
24.8200 16.5155 1.0019
24.8400 16.5288 0.9983
24.8600 16.5422 1.0019
24.8800 16.5555 1.0043
24.9000 16.5689 1.0017
24.9200 16.5822 1.0039
24.9400 16.5956 1.0096
24.9600 16.6089 0.9970
24.9800 16.6223 1.0031
25.0000 16.6357 1.0128
25.0200 16.6490 0.9963
25.0400 16.6623 1.0042
25.0600 16.6756 1.0151
25.0800 16.6890 0.9998
25.1000 16.7023 1.0045
25.1200 16.7156 1.0192
25.1400 16.7289 1.0047
25.1600 16.7422 1.0079
25.1800 16.7556 1.0170
25.2000 16.7689 1.0046
25.2200 16.7822 1.0106
25.2400 16.7955 1.0208
25.2600 16.8089 1.0038
25.2800 16.8222 1.0095
25.3000 16.8356 1.0264
25.3200 16.8489 1.0026
25.3400 16.8623 1.0116
25.3600 16.8756 1.0253
25.3800 16.8890 1.0043
25.4000 16.9023 1.0182
25.4200 16.9156 1.0238
25.4400 16.9290 1.0047
25.4600 16.9423 1.0160
25.4800 16.9556 1.0270
25.5000 16.9689 1.0103
25.5200 16.9822 1.0203
25.5400 16.9955 1.0222
25.5600 17.0088 1.0133
25.5800 17.0222 1.0218
25.6000 17.0355 1.0254
25.6200 17.0489 1.0121
25.6400 17.0622 1.0266
25.6600 17.0755 1.0219
25.6800 17.0889 1.0185
25.7000 17.1023 1.0221
25.7200 17.1156 1.0239
25.7400 17.1289 1.0253
25.7600 17.1422 1.0227
25.7800 17.1556 1.0225
25.8000 17.1690 1.0294
25.8200 17.1823 1.0268
25.8400 17.1956 1.0248
25.8600 17.2089 1.0300
25.8800 17.2223 1.0261
25.9000 17.2356 1.0249
25.9200 17.2489 1.0349
25.9400 17.2622 1.0251
25.9600 17.2755 1.0297
25.9800 17.2889 1.0385
26.0000 17.3022 1.0202
26.0200 17.3155 1.0360
26.0400 17.3289 1.0367
26.0600 17.3423 1.0216
26.0800 17.3556 1.0391
26.1000 17.3690 1.0353
26.1200 17.3823 1.0267
26.1400 17.3956 1.0417
26.1600 17.4090 1.0379
26.1800 17.4223 1.0259
26.2000 17.4356 1.0476
26.2200 17.4489 1.0358
26.2400 17.4622 1.0272
26.2600 17.4756 1.0536
26.2800 17.4888 1.0326
26.3000 17.5021 1.0341
26.3200 17.5155 1.0484
26.3400 17.5289 1.0347
26.3600 17.5422 1.0442
26.3800 17.5556 1.0484
26.4000 17.5689 1.0366
26.4200 17.5823 1.0434
26.4400 17.5957 1.0438
26.4600 17.6090 1.0399
26.4800 17.6223 1.0451
26.5000 17.6356 1.0444
26.5200 17.6490 1.0422
26.5400 17.6623 1.0488
26.5600 17.6756 1.0427
26.5800 17.6889 1.0518
26.6000 17.7022 1.0481
26.6200 17.7155 1.0462
26.6400 17.7289 1.0536
26.6600 17.7422 1.0460
26.6800 17.7555 1.0475
26.7000 17.7689 1.0540
26.7200 17.7822 1.0474
26.7400 17.7956 1.0516
26.7600 17.8089 1.0561
26.7800 17.8223 1.0441
26.8000 17.8356 1.0559
26.8200 17.8490 1.0578
26.8400 17.8623 1.0473
26.8600 17.8756 1.0579
26.8800 17.8890 1.0566
26.9000 17.9023 1.0489
26.9200 17.9156 1.0618
26.9400 17.9289 1.0546
26.9600 17.9423 1.0543
26.9800 17.9556 1.0625
27.0000 17.9689 1.0533
27.0200 17.9822 1.0599
27.0400 17.9955 1.0616
27.0600 18.0089 1.0549
27.0800 18.0222 1.0613
27.1000 18.0356 1.0622
27.1200 18.0489 1.0621
27.1400 18.0623 1.0631
27.1600 18.0756 1.0588
27.1800 18.0890 1.0627
27.2000 18.1023 1.0676
27.2200 18.1156 1.0643
27.2400 18.1290 1.0693
27.2600 18.1423 1.0620
27.2800 18.1556 1.0668
27.3000 18.1689 1.0727
27.3200 18.1822 1.0590
27.3400 18.1956 1.0709
27.3600 18.2089 1.0739
27.3800 18.2222 1.0606
27.4000 18.2355 1.0702
27.4200 18.2489 1.0712
27.4400 18.2622 1.0688
27.4600 18.2755 1.0739
27.4800 18.2889 1.0691
27.5000 18.3023 1.0708
27.5200 18.3156 1.0745
27.5400 18.3289 1.0709
27.5600 18.3423 1.0718
27.5800 18.3556 1.0783
27.6000 18.3690 1.0686
27.6200 18.3823 1.0775
27.6400 18.3956 1.0753
27.6600 18.4089 1.0725
27.6800 18.4222 1.0821
27.7000 18.4356 1.0760
27.7200 18.4489 1.0756
27.7400 18.4622 1.0872
27.7600 18.4755 1.0723
27.7800 18.4889 1.0810
27.8000 18.5022 1.0851
27.8200 18.5156 1.0715
27.8400 18.5289 1.0842
27.8600 18.5422 1.0860
27.8800 18.5556 1.0746
27.9000 18.5689 1.0912
27.9200 18.5823 1.0872
27.9400 18.5956 1.0775
27.9600 18.6090 1.0897
27.9800 18.6223 1.0837
28.0000 18.6356 1.0813
28.0200 18.6489 1.0952
28.0400 18.6623 1.0838
28.0600 18.6756 1.0817
28.0800 18.6889 1.0926
28.1000 18.7022 1.0856
28.1200 18.7155 1.0856
28.1400 18.7289 1.0933
28.1600 18.7422 1.0853
28.1800 18.7555 1.0882
28.2000 18.7689 1.0958
28.2200 18.7823 1.0822
28.2400 18.7957 1.0902
28.2600 18.8090 1.0952
28.2800 18.8223 1.0841
28.3000 18.8356 1.0963
28.3200 18.8490 1.0998
28.3400 18.8623 1.0834
28.3600 18.8756 1.0926
28.3800 18.8889 1.0981
28.4000 18.9022 1.0895
28.4200 18.9156 1.0952
28.4400 18.9289 1.1046
28.4600 18.9422 1.0906
28.4800 18.9555 1.0992
28.5000 18.9689 1.1001
28.5200 18.9823 1.0921
28.5400 18.9956 1.1037
28.5600 19.0089 1.1005
28.5800 19.0223 1.0928
28.6000 19.0357 1.1009
28.6200 19.0490 1.1038
28.6400 19.0623 1.0971
28.6600 19.0756 1.1027
28.6800 19.0890 1.1077
28.7000 19.1023 1.0949
28.7200 19.1156 1.1050
28.7400 19.1289 1.1082
28.7600 19.1422 1.1049
28.7800 19.1556 1.1042
28.8000 19.1689 1.1055
28.8200 19.1822 1.1087
28.8400 19.1955 1.1023
28.8600 19.2089 1.1111
28.8800 19.2222 1.1092
28.9000 19.2356 1.1010
28.9200 19.2489 1.1177
28.9400 19.2623 1.1070
28.9600 19.2756 1.1010
28.9800 19.2890 1.1170
29.0000 19.3023 1.1075
29.0200 19.3156 1.1051
29.0400 19.3289 1.1158
29.0600 19.3423 1.1103
29.0800 19.3556 1.1076
29.1000 19.3689 1.1210
29.1200 19.3823 1.1084
29.1400 19.3956 1.1119
29.1600 19.4089 1.1217
29.1800 19.4222 1.1048
29.2000 19.4355 1.1181
29.2200 19.4489 1.1207
29.2400 19.4622 1.1045
29.2600 19.4756 1.1235
29.2800 19.4889 1.1235
29.3000 19.5023 1.1085
29.3200 19.5156 1.1222
29.3400 19.5290 1.1207
29.3600 19.5423 1.1086
29.3800 19.5556 1.1287
29.4000 19.5690 1.1231
29.4200 19.5823 1.1124
29.4400 19.5956 1.1299
29.4600 19.6089 1.1206
29.4800 19.6222 1.1202
29.5000 19.6356 1.1279
29.5200 19.6489 1.1239
29.5400 19.6622 1.1288
29.5600 19.6755 1.1266
29.5800 19.6889 1.1245
29.6000 19.7022 1.1267
29.6200 19.7155 1.1260
29.6400 19.7289 1.1288
29.6600 19.7422 1.1286
29.6800 19.7556 1.1261
29.7000 19.7689 1.1338
29.7200 19.7822 1.1324
29.7400 19.7956 1.1253
29.7600 19.8090 1.1376
29.7800 19.8223 1.1328
29.8000 19.8356 1.1265
29.8200 19.8489 1.1381
29.8400 19.8622 1.1329
29.8600 19.8756 1.1267
29.8800 19.8889 1.1430
29.9000 19.9022 1.1294
29.9200 19.9155 1.1337
29.9400 19.9289 1.1436
29.9600 19.9422 1.1312
29.9800 19.9555 1.1349
30.0000 19.9689 1.1417
30.0200 19.9823 1.1353
30.0400 19.9956 1.1425
30.0600 20.0090 1.1396
30.0800 20.0223 1.1372
30.1000 20.0356 1.1460
30.1200 20.0490 1.1399
30.1400 20.0623 1.1372
30.1600 20.0756 1.1491
30.1800 20.0889 1.1407
30.2000 20.1022 1.1446
30.2200 20.1156 1.1471
30.2400 20.1289 1.1415
30.2600 20.1422 1.1474
30.2800 20.1555 1.1470
30.3000 20.1689 1.1429
30.3200 20.1822 1.1472
30.3400 20.1955 1.1470
30.3600 20.2089 1.1428
30.3800 20.2222 1.1530
30.4000 20.2356 1.1514
30.4200 20.2490 1.1450
30.4400 20.2623 1.1542
30.4600 20.2756 1.1526
30.4800 20.2890 1.1471
30.5000 20.3023 1.1537
30.5200 20.3156 1.1544
30.5400 20.3289 1.1520
30.5600 20.3422 1.1562
30.5800 20.3555 1.1555
30.6000 20.3689 1.1517
30.6200 20.3822 1.1598
30.6400 20.3955 1.1550
30.6600 20.4089 1.1579
30.6800 20.4223 1.1567
30.7000 20.4356 1.1565
30.7200 20.4489 1.1559
30.7400 20.4623 1.1597
30.7600 20.4756 1.1557
30.7800 20.4890 1.1624
30.8000 20.5023 1.1616
30.8200 20.5156 1.1604
30.8400 20.5289 1.1626
30.8600 20.5423 1.1619
30.8800 20.5556 1.1638
30.9000 20.5689 1.1601
30.9200 20.5823 1.1636
30.9400 20.5956 1.1697
30.9600 20.6089 1.1620
30.9800 20.6222 1.1692
31.0000 20.6355 1.1699
31.0200 20.6489 1.1643
31.0400 20.6622 1.1717
31.0600 20.6755 1.1709
31.0800 20.6889 1.1652
31.1000 20.7022 1.1727
31.1200 20.7156 1.1737
31.1400 20.7289 1.1629
31.1600 20.7423 1.1760
31.1800 20.7556 1.1740
31.2000 20.7690 1.1667
31.2200 20.7823 1.1768
31.2400 20.7956 1.1692
31.2600 20.8089 1.1759
31.2800 20.8223 1.1806
31.3000 20.8356 1.1682
31.3200 20.8489 1.1768
31.3400 20.8622 1.1803
31.3600 20.8755 1.1713
31.3800 20.8888 1.1787
31.4000 20.9022 1.1780
31.4200 20.9155 1.1739
31.4400 20.9288 1.1828
31.4600 20.9422 1.1743
31.4800 20.9556 1.1806
31.5000 20.9690 1.1830
31.5200 20.9823 1.1758
31.5400 20.9956 1.1861
31.5600 21.0090 1.1857
31.5800 21.0223 1.1753
31.6000 21.0356 1.1893
31.6200 21.0489 1.1868
31.6400 21.0622 1.1786
31.6600 21.0756 1.1908
31.6800 21.0889 1.1828
31.7000 21.1022 1.1825
31.7200 21.1155 1.1961
31.7400 21.1289 1.1807
31.7600 21.1422 1.1878
31.7800 21.1556 1.1959
31.8000 21.1689 1.1828
31.8200 21.1822 1.1938
31.8400 21.1956 1.1936
31.8600 21.2090 1.1850
31.8800 21.2223 1.1958
31.9000 21.2356 1.1922
31.9200 21.2490 1.1866
31.9400 21.2623 1.1967
31.9600 21.2757 1.1941
31.9800 21.2889 1.1917
32.0000 21.3022 1.1969
32.0200 21.3156 1.1961
32.0400 21.3289 1.1929
32.0600 21.3422 1.1952
32.0800 21.3555 1.1976
32.1000 21.3689 1.1952
32.1200 21.3822 1.1970
32.1400 21.3956 1.2024
32.1600 21.4089 1.1994
32.1800 21.4222 1.1962
32.2000 21.4356 1.2031
32.2200 21.4490 1.1985
32.2400 21.4623 1.1995
32.2600 21.4756 1.2062
32.2800 21.4889 1.1966
32.3000 21.5023 1.2022
32.3200 21.5156 1.2059
32.3400 21.5289 1.2030
32.3600 21.5422 1.2036
32.3800 21.5556 1.2101
32.4000 21.5689 1.2026
32.4200 21.5822 1.2003
32.4400 21.5956 1.2112
32.4600 21.6089 1.2058
32.4800 21.6222 1.2045
32.5000 21.6356 1.2115
32.5200 21.6489 1.2038
32.5400 21.6622 1.2085
32.5600 21.6756 1.2177
32.5800 21.6890 1.2033
32.6000 21.7023 1.2058
32.6200 21.7156 1.2216
32.6400 21.7289 1.2066
32.6600 21.7423 1.2090
32.6800 21.7556 1.2234
32.7000 21.7689 1.2097
32.7200 21.7822 1.2116
32.7400 21.7956 1.2217
32.7600 21.8089 1.2143
32.7800 21.8222 1.2114
32.8000 21.8355 1.2249
32.8200 21.8489 1.2121
32.8400 21.8622 1.2192
32.8600 21.8756 1.2220
32.8800 21.8889 1.2158
32.9000 21.9022 1.2189
32.9200 21.9156 1.2231
32.9400 21.9289 1.2208
32.9600 21.9423 1.2215
32.9800 21.9556 1.2220
33.0000 21.9689 1.2210
33.0200 21.9823 1.2230
33.0400 21.9956 1.2213
33.0600 22.0089 1.2242
33.0800 22.0223 1.2302
33.1000 22.0356 1.2186
33.1200 22.0490 1.2220
33.1400 22.0623 1.2285
33.1600 22.0755 1.2244
33.1800 22.0888 1.2267
33.2000 22.1022 1.2271
33.2200 22.1155 1.2290
33.2400 22.1288 1.2274
33.2600 22.1422 1.2310
33.2800 22.1556 1.2318
33.3000 22.1690 1.2280
33.3200 22.1823 1.2304
33.3400 22.1956 1.2341
33.3600 22.2090 1.2304
33.3800 22.2223 1.2321
33.4000 22.2357 1.2383
33.4200 22.2490 1.2339
33.4400 22.2622 1.2361
33.4600 22.2756 1.2395
33.4800 22.2889 1.2300
33.5000 22.3022 1.2345
33.5200 22.3155 1.2429
33.5400 22.3288 1.2367
33.5600 22.3422 1.2345
33.5800 22.3555 1.2439
33.6000 22.3689 1.2337
33.6200 22.3822 1.2413
33.6400 22.3956 1.2429
33.6600 22.4090 1.2315
33.6800 22.4223 1.2412
33.7000 22.4356 1.2485
33.7200 22.4490 1.2358
33.7400 22.4623 1.2418
33.7600 22.4757 1.2476
33.7800 22.4889 1.2393
33.8000 22.5022 1.2426
33.8200 22.5155 1.2494
33.8400 22.5289 1.2420
33.8600 22.5422 1.2491
33.8800 22.5555 1.2523
33.9000 22.5688 1.2408
33.9200 22.5822 1.2501
33.9400 22.5956 1.2491
33.9600 22.6089 1.2426
33.9800 22.6222 1.2507
34.0000 22.6356 1.2520
34.0200 22.6489 1.2499
34.0400 22.6623 1.2493
34.0600 22.6756 1.2539
34.0800 22.6889 1.2523
34.1000 22.7023 1.2521
34.1200 22.7156 1.2562
34.1400 22.7289 1.2520
34.1600 22.7422 1.2555
34.1800 22.7556 1.2573
34.2000 22.7689 1.2558
34.2200 22.7822 1.2535
34.2400 22.7955 1.2603
34.2600 22.8088 1.2589
34.2800 22.8222 1.2618
34.3000 22.8355 1.2606
34.3200 22.8489 1.2581
34.3400 22.8622 1.2621
34.3600 22.8756 1.2649
34.3800 22.8890 1.2581
34.4000 22.9023 1.2648
34.4200 22.9156 1.2639
34.4400 22.9290 1.2603
34.4600 22.9423 1.2673
34.4800 22.9556 1.2684
34.5000 22.9689 1.2589
34.5200 22.9822 1.2740
34.5400 22.9955 1.2683
34.5600 23.0089 1.2632
34.5800 23.0222 1.2727
34.6000 23.0356 1.2642
34.6200 23.0489 1.2682
34.6400 23.0622 1.2753
34.6600 23.0755 1.2639
34.6800 23.0889 1.2705
34.7000 23.1022 1.2811
34.7200 23.1156 1.2648
34.7400 23.1290 1.2734
34.7600 23.1423 1.2776
34.7800 23.1556 1.2650
34.8000 23.1689 1.2812
34.8200 23.1823 1.2817
34.8400 23.1957 1.2683
34.8600 23.2090 1.2795
34.8800 23.2223 1.2774
34.9000 23.2356 1.2716
34.9200 23.2489 1.2841
34.9400 23.2622 1.2842
34.9600 23.2755 1.2731
34.9800 23.2889 1.2874
35.0000 23.3022 1.2832
35.0200 23.3155 1.2749
35.0400 23.3289 1.2901
35.0600 23.3422 1.2824
35.0800 23.3555 1.2776
35.1000 23.3689 1.2931
35.1200 23.3823 1.2847
35.1400 23.3956 1.2789
35.1600 23.4089 1.2941
35.1800 23.4223 1.2835
35.2000 23.4356 1.2833
35.2200 23.4489 1.2990
35.2400 23.4623 1.2826
35.2600 23.4756 1.2894
35.2800 23.4889 1.2966
35.3000 23.5022 1.2863
35.3200 23.5155 1.2886
35.3400 23.5288 1.2986
35.3600 23.5422 1.2922
35.3800 23.5555 1.2877
35.4000 23.5688 1.3010
35.4200 23.5822 1.2914
35.4400 23.5955 1.2919
35.4600 23.6089 1.3035
35.4800 23.6223 1.2908
35.5000 23.6357 1.2953
35.5200 23.6490 1.3019
35.5400 23.6623 1.2903
35.5600 23.6757 1.2970
35.5800 23.6890 1.3032
35.6000 23.7022 1.3003
35.6200 23.7155 1.2996
35.6400 23.7289 1.3051
35.6600 23.7422 1.2974
35.6800 23.7555 1.3047
35.7000 23.7689 1.3082
35.7200 23.7822 1.3012
35.7400 23.7956 1.3065
35.7600 23.8089 1.3089
35.7800 23.8223 1.3042
35.8000 23.8356 1.3062
35.8200 23.8490 1.3096
35.8400 23.8623 1.3099
35.8600 23.8756 1.3039
35.8800 23.8889 1.3160
35.9000 23.9023 1.3101
35.9200 23.9156 1.3075
35.9400 23.9289 1.3165
35.9600 23.9422 1.3127
35.9800 23.9555 1.3069
36.0000 23.9689 1.3208
36.0200 23.9822 1.3135
36.0400 23.9956 1.3116
36.0600 24.0089 1.3216
36.0800 24.0222 1.3133
36.1000 24.0356 1.3134
36.1200 24.0489 1.3238
36.1400 24.0623 1.3162
36.1600 24.0756 1.3163
36.1800 24.0890 1.3241
36.2000 24.1023 1.3181
36.2200 24.1156 1.3179
36.2400 24.1289 1.3254
36.2600 24.1423 1.3208
36.2800 24.1556 1.3210
36.3000 24.1690 1.3224
36.3200 24.1822 1.3242
36.3400 24.1955 1.3223
36.3600 24.2089 1.3242
36.3800 24.2222 1.3287
36.4000 24.2355 1.3189
36.4200 24.2489 1.3321
36.4400 24.2622 1.3334
36.4600 24.2756 1.3199
36.4800 24.2889 1.3335
36.5000 24.3022 1.3349
36.5200 24.3156 1.3215
36.5400 24.3289 1.3358
36.5600 24.3423 1.3352
36.5800 24.3556 1.3214
36.6000 24.3689 1.3327
36.6200 24.3823 1.3355
36.6400 24.3956 1.3291
36.6600 24.4089 1.3399
36.6800 24.4222 1.3338
36.7000 24.4355 1.3316
36.7200 24.4489 1.3382
36.7400 24.4622 1.3375
36.7600 24.4756 1.3327
36.7800 24.4889 1.3434
36.8000 24.5022 1.3366
36.8200 24.5156 1.3322
36.8400 24.5289 1.3431
36.8600 24.5422 1.3427
36.8800 24.5556 1.3360
36.9000 24.5689 1.3415
36.9200 24.5823 1.3368
36.9400 24.5956 1.3390
36.9600 24.6089 1.3480
36.9800 24.6223 1.3406
37.0000 24.6357 1.3447
37.0200 24.6490 1.3507
37.0400 24.6623 1.3437
37.0600 24.6756 1.3446
37.0800 24.6889 1.3535
37.1000 24.7022 1.3458
37.1200 24.7155 1.3417
37.1400 24.7288 1.3533
37.1600 24.7422 1.3479
37.1800 24.7555 1.3490
37.2000 24.7689 1.3525
37.2200 24.7822 1.3481
37.2400 24.7956 1.3509
37.2600 24.8090 1.3525
37.2800 24.8223 1.3494
37.3000 24.8357 1.3507
37.3200 24.8490 1.3596
37.3400 24.8623 1.3474
37.3600 24.8757 1.3517
37.3800 24.8890 1.3611
37.4000 24.9023 1.3539
37.4200 24.9155 1.3581
37.4400 24.9289 1.3580
37.4600 24.9422 1.3550
37.4800 24.9555 1.3594
37.5000 24.9688 1.3577
37.5200 24.9822 1.3638
37.5400 24.9955 1.3583
37.5600 25.0089 1.3626
37.5800 25.0222 1.3612
37.6000 25.0355 1.3594
37.6200 25.0489 1.3648
37.6400 25.0623 1.3638
37.6600 25.0756 1.3607
37.6800 25.0889 1.3649
37.7000 25.1023 1.3696
37.7200 25.1156 1.3637
37.7400 25.1290 1.3668
37.7600 25.1423 1.3672
37.7800 25.1555 1.3695
37.8000 25.1689 1.3755
37.8200 25.1822 1.3659
37.8400 25.1955 1.3698
37.8600 25.2088 1.3747
37.8800 25.2222 1.3637
37.9000 25.2356 1.3717
37.9200 25.2489 1.3724
37.9400 25.2623 1.3694
37.9600 25.2756 1.3786
37.9800 25.2889 1.3742
38.0000 25.3023 1.3670
38.0200 25.3156 1.3814
38.0400 25.3289 1.3769
38.0600 25.3422 1.3715
38.0800 25.3556 1.3823
38.1000 25.3689 1.3743
38.1200 25.3823 1.3729
38.1400 25.3956 1.3865
38.1600 25.4089 1.3772
38.1800 25.4223 1.3811
38.2000 25.4356 1.3821
38.2200 25.4489 1.3789
38.2400 25.4622 1.3870
38.2600 25.4755 1.3810
38.2800 25.4889 1.3811
38.3000 25.5022 1.3900
38.3200 25.5155 1.3834
38.3400 25.5289 1.3845
38.3600 25.5423 1.3929
38.3800 25.5556 1.3851
38.4000 25.5689 1.3896
38.4200 25.5823 1.3932
38.4400 25.5956 1.3883
38.4600 25.6090 1.3892
38.4800 25.6223 1.3917
38.5000 25.6356 1.3934
38.5200 25.6489 1.3927
38.5400 25.6623 1.3904
38.5600 25.6756 1.3930
38.5800 25.6889 1.3950
38.6000 25.7022 1.3946
38.6200 25.7155 1.3965
38.6400 25.7289 1.4008
38.6600 25.7422 1.3952
38.6800 25.7555 1.3975
38.7000 25.7689 1.4047
38.7200 25.7823 1.3958
38.7400 25.7956 1.4014
38.7600 25.8090 1.4052
38.7800 25.8223 1.3980
38.8000 25.8357 1.4040
38.8200 25.8490 1.4046
38.8400 25.8623 1.4035
38.8600 25.8756 1.4053
38.8800 25.8889 1.4072
38.9000 25.9022 1.4054
38.9200 25.9156 1.4065
38.9400 25.9289 1.4134
38.9600 25.9422 1.4050
38.9800 25.9555 1.4097
39.0000 25.9689 1.4096
39.0200 25.9822 1.4070
39.0400 25.9955 1.4131
39.0600 26.0089 1.4148
39.0800 26.0222 1.4105
39.1000 26.0356 1.4113
39.1200 26.0489 1.4145
39.1400 26.0623 1.4149
39.1600 26.0756 1.4205
39.1800 26.0890 1.4182
39.2000 26.1023 1.4141
39.2200 26.1156 1.4208
39.2400 26.1289 1.4257
39.2600 26.1423 1.4155
39.2800 26.1556 1.4172
39.3000 26.1689 1.4239
39.3200 26.1822 1.4169
39.3400 26.1955 1.4272
39.3600 26.2089 1.4267
39.3800 26.2222 1.4229
39.4000 26.2355 1.4277
39.4200 26.2489 1.4247
39.4400 26.2623 1.4257
39.4600 26.2757 1.4267
39.4800 26.2890 1.4284
39.5000 26.3023 1.4255
39.5200 26.3156 1.4315
39.5400 26.3290 1.4301
39.5600 26.3423 1.4270
39.5800 26.3556 1.4377
39.6000 26.3689 1.4307
39.6200 26.3822 1.4283
39.6400 26.3956 1.4376
39.6600 26.4089 1.4347
39.6800 26.4222 1.4342
39.7000 26.4355 1.4381
39.7200 26.4489 1.4374
39.7400 26.4622 1.4329
39.7600 26.4755 1.4428
39.7800 26.4889 1.4403
39.8000 26.5023 1.4389
39.8200 26.5156 1.4408
39.8400 26.5290 1.4420
39.8600 26.5423 1.4388
39.8800 26.5556 1.4423
39.9000 26.5690 1.4418
39.9200 26.5823 1.4369
39.9400 26.5956 1.4483
39.9600 26.6089 1.4460
39.9800 26.6222 1.4412
40.0000 26.6356 1.4490
40.0200 26.6489 1.4495
40.0400 26.6622 1.4430
40.0600 26.6755 1.4483
40.0800 26.6889 1.4562
40.1000 26.7022 1.4427
40.1200 26.7156 1.4530
40.1400 26.7289 1.4557
40.1600 26.7422 1.4444
40.1800 26.7556 1.4538
40.2000 26.7689 1.4561
40.2200 26.7822 1.4500
40.2400 26.7956 1.4576
40.2600 26.8089 1.4586
40.2800 26.8223 1.4487
40.3000 26.8356 1.4641
40.3200 26.8490 1.4622
40.3400 26.8623 1.4502
40.3600 26.8756 1.4694
40.3800 26.8889 1.4584
40.4000 26.9022 1.4541
40.4200 26.9155 1.4697
40.4400 26.9289 1.4601
40.4600 26.9422 1.4560
40.4800 26.9555 1.4707
40.5000 26.9689 1.4625
40.5200 26.9823 1.4597
40.5400 26.9957 1.4727
40.5600 27.0090 1.4660
40.5800 27.0223 1.4652
40.6000 27.0356 1.4776
40.6200 27.0490 1.4674
40.6400 27.0623 1.4648
40.6600 27.0756 1.4744
40.6800 27.0889 1.4668
40.7000 27.1022 1.4720
40.7200 27.1155 1.4775
40.7400 27.1288 1.4702
40.7600 27.1421 1.4764
40.7800 27.1555 1.4804
40.8000 27.1689 1.4695
40.8200 27.1822 1.4785
40.8400 27.1955 1.4779
40.8600 27.2089 1.4762
40.8800 27.2223 1.4815
40.9000 27.2356 1.4783
40.9200 27.2490 1.4785
40.9400 27.2623 1.4845
40.9600 27.2756 1.4826
40.9800 27.2890 1.4810
41.0000 27.3023 1.4834
41.0200 27.3156 1.4857
41.0400 27.3289 1.4842
41.0600 27.3422 1.4836
41.0800 27.3556 1.4866
41.1000 27.3689 1.4901
41.1200 27.3822 1.4841
41.1400 27.3955 1.4898
41.1600 27.4089 1.4889
41.1800 27.4222 1.4872
41.2000 27.4356 1.4935
41.2200 27.4489 1.4908
41.2400 27.4623 1.4896
41.2600 27.4756 1.4924
41.2800 27.4889 1.4889
41.3000 27.5023 1.4957
41.3200 27.5156 1.4997
41.3400 27.5290 1.4877
41.3600 27.5423 1.4939
41.3800 27.5556 1.5009
41.4000 27.5689 1.4943
41.4200 27.5823 1.4988
41.4400 27.5956 1.5027
41.4600 27.6089 1.4946
41.4800 27.6222 1.5022
41.5000 27.6355 1.5025
41.5200 27.6489 1.5007
41.5400 27.6622 1.5052
41.5600 27.6756 1.5031
41.5800 27.6889 1.5048
41.6000 27.7023 1.5078
41.6200 27.7157 1.5016
41.6400 27.7290 1.5102
41.6600 27.7423 1.5091
41.6800 27.7556 1.5059
41.7000 27.7690 1.5110
41.7200 27.7823 1.5079
41.7400 27.7955 1.5094
41.7600 27.8089 1.5176
41.7800 27.8222 1.5070
41.8000 27.8356 1.5131
41.8200 27.8489 1.5167
41.8400 27.8622 1.5128
41.8600 27.8755 1.5170
41.8800 27.8889 1.5172
41.9000 27.9022 1.5117
41.9200 27.9155 1.5158
41.9400 27.9289 1.5237
41.9600 27.9422 1.5150
41.9800 27.9556 1.5206
42.0000 27.9689 1.5207
42.0200 27.9823 1.5171
42.0400 27.9956 1.5291
42.0600 28.0090 1.5213
42.0800 28.0223 1.5192
42.1000 28.0356 1.5300
42.1200 28.0489 1.5227
42.1400 28.0622 1.5236
42.1600 28.0756 1.5308
42.1800 28.0889 1.5269
42.2000 28.1022 1.5273
42.2200 28.1155 1.5357
42.2400 28.1288 1.5296
42.2600 28.1422 1.5334
42.2800 28.1555 1.5322
42.3000 28.1689 1.5318
42.3200 28.1823 1.5365
42.3400 28.1956 1.5331
42.3600 28.2089 1.5344
42.3800 28.2222 1.5436
42.4000 28.2356 1.5328
42.4200 28.2489 1.5387
42.4400 28.2623 1.5458
42.4600 28.2756 1.5365
42.4800 28.2889 1.5437
42.5000 28.3022 1.5491
42.5200 28.3156 1.5345
42.5400 28.3289 1.5461
42.5600 28.3422 1.5472
42.5800 28.3555 1.5395
42.6000 28.3688 1.5492
42.6200 28.3822 1.5485
42.6400 28.3955 1.5392
42.6600 28.4089 1.5547
42.6800 28.4222 1.5514
42.7000 28.4356 1.5398
42.7200 28.4490 1.5559
42.7400 28.4623 1.5502
42.7600 28.4757 1.5446
42.7800 28.4890 1.5609
42.8000 28.5023 1.5516
42.8200 28.5156 1.5492
42.8400 28.5289 1.5618
42.8600 28.5422 1.5571
42.8800 28.5555 1.5538
42.9000 28.5689 1.5595
42.9200 28.5822 1.5573
42.9400 28.5956 1.5572
42.9600 28.6089 1.5634
42.9800 28.6223 1.5548
43.0000 28.6356 1.5641
43.0200 28.6489 1.5613
43.0400 28.6623 1.5657
43.0600 28.6756 1.5667
43.0800 28.6890 1.5624
43.1000 28.7023 1.5685
43.1200 28.7156 1.5667
43.1400 28.7290 1.5675
43.1600 28.7423 1.5694
43.1800 28.7556 1.5681
43.2000 28.7689 1.5719
43.2200 28.7822 1.5725
43.2400 28.7956 1.5730
43.2600 28.8089 1.5761
43.2800 28.8222 1.5776
43.3000 28.8355 1.5735
43.3200 28.8489 1.5798
43.3400 28.8622 1.5784
43.3600 28.8756 1.5734
43.3800 28.8889 1.5775
43.4000 28.9023 1.5826
43.4200 28.9156 1.5775
43.4400 28.9290 1.5778
43.4600 28.9423 1.5852
43.4800 28.9556 1.5809
43.5000 28.9689 1.5797
43.5200 28.9823 1.5893
43.5400 28.9956 1.5805
43.5600 29.0089 1.5883
43.5800 29.0222 1.5917
43.6000 29.0356 1.5841
43.6200 29.0489 1.5882
43.6400 29.0622 1.5924
43.6600 29.0755 1.5859
43.6800 29.0889 1.5916
43.7000 29.1022 1.5969
43.7200 29.1156 1.5892
43.7400 29.1289 1.5944
43.7600 29.1422 1.6013
43.7800 29.1556 1.5928
43.8000 29.1690 1.5967
43.8200 29.1823 1.5985
43.8400 29.1956 1.5960
43.8600 29.2090 1.6024
43.8800 29.2223 1.5995
43.9000 29.2356 1.5999
43.9200 29.2489 1.6022
43.9400 29.2622 1.6066
43.9600 29.2756 1.6018
43.9800 29.2889 1.6044
44.0000 29.3022 1.6078
44.0200 29.3155 1.6043
44.0400 29.3289 1.6043
44.0600 29.3422 1.6141
44.0800 29.3556 1.6033
44.1000 29.3689 1.6045
44.1200 29.3822 1.6176
44.1400 29.3956 1.6036
44.1600 29.4089 1.6116
44.1800 29.4223 1.6185
44.2000 29.4356 1.6082
44.2200 29.4490 1.6165
44.2400 29.4623 1.6216
44.2600 29.4756 1.6125
44.2800 29.4889 1.6171
44.3000 29.5022 1.6262
44.3200 29.5156 1.6121
44.3400 29.5289 1.6164
44.3600 29.5422 1.6307
44.3800 29.5555 1.6184
44.4000 29.5688 1.6234
44.4200 29.5822 1.6277
44.4400 29.5955 1.6169
44.4600 29.6089 1.6258
44.4800 29.6223 1.6331
44.5000 29.6357 1.6188
44.5200 29.6490 1.6280
44.5400 29.6623 1.6315
44.5600 29.6756 1.6229
44.5800 29.6889 1.6336
44.6000 29.7023 1.6356
44.6200 29.7156 1.6279
44.6400 29.7289 1.6399
44.6600 29.7422 1.6341
44.6800 29.7556 1.6343
44.7000 29.7689 1.6362
44.7200 29.7822 1.6388
44.7400 29.7955 1.6374
44.7600 29.8088 1.6375
44.7800 29.8222 1.6421
44.8000 29.8355 1.6390
44.8200 29.8489 1.6392
44.8400 29.8622 1.6455
44.8600 29.8756 1.6413
44.8800 29.8890 1.6408
44.9000 29.9023 1.6442
44.9200 29.9156 1.6470
44.9400 29.9290 1.6434
44.9600 29.9423 1.6473
44.9800 29.9556 1.6481
45.0000 29.9689 1.6512
45.0200 29.9822 1.6531
45.0400 29.9955 1.6492
45.0600 30.0089 1.6515
45.0800 30.0222 1.6506
45.1000 30.0355 1.6576
45.1200 30.0489 1.6542
45.1400 30.0623 1.6525
45.1600 30.0756 1.6588
45.1800 30.0889 1.6553
45.2000 30.1023 1.6561
45.2200 30.1156 1.6601
45.2400 30.1290 1.6581
45.2600 30.1423 1.6642
45.2800 30.1556 1.6636
45.3000 30.1689 1.6612
45.3200 30.1823 1.6606
45.3400 30.1956 1.6705
45.3600 30.2089 1.6559
45.3800 30.2223 1.6665
45.4000 30.2356 1.6694
45.4200 30.2490 1.6628
45.4400 30.2623 1.6703
45.4600 30.2756 1.6717
45.4800 30.2889 1.6714
45.5000 30.3022 1.6739
45.5200 30.3156 1.6726
45.5400 30.3289 1.6730
45.5600 30.3422 1.6795
45.5800 30.3556 1.6786
45.6000 30.3689 1.6715
45.6200 30.3823 1.6818
45.6400 30.3956 1.6788
45.6600 30.4089 1.6818
45.6800 30.4223 1.6817
45.7000 30.4356 1.6769
45.7200 30.4489 1.6872
45.7400 30.4622 1.6854
45.7600 30.4756 1.6850
45.7800 30.4889 1.6866
45.8000 30.5022 1.6874
45.8200 30.5155 1.6871
45.8400 30.5288 1.6886
45.8600 30.5422 1.6908
45.8800 30.5555 1.6900
45.9000 30.5689 1.6886
45.9200 30.5822 1.6928
45.9400 30.5956 1.6922
45.9600 30.6090 1.6929
45.9800 30.6223 1.6944
46.0000 30.6356 1.7005
46.0200 30.6489 1.6945
46.0400 30.6623 1.6976
46.0600 30.6756 1.6998
46.0800 30.6889 1.7012
46.1000 30.7022 1.7023
46.1200 30.7156 1.7001
46.1400 30.7289 1.7028
46.1600 30.7422 1.7019
46.1800 30.7555 1.7049
46.2000 30.7689 1.7098
46.2200 30.7822 1.7031
46.2400 30.7956 1.7101
46.2600 30.8089 1.7110
46.2800 30.8222 1.7056
46.3000 30.8356 1.7151
46.3200 30.8490 1.7135
46.3400 30.8623 1.7048
46.3600 30.8756 1.7217
46.3800 30.8890 1.7125
46.4000 30.9023 1.7119
46.4200 30.9156 1.7215
46.4400 30.9289 1.7127
46.4600 30.9422 1.7142
46.4800 30.9556 1.7235
46.5000 30.9689 1.7168
46.5200 30.9822 1.7151
46.5400 30.9955 1.7286
46.5600 31.0088 1.7193
46.5800 31.0222 1.7205
46.6000 31.0355 1.7292
46.6200 31.0489 1.7246
46.6400 31.0622 1.7216
46.6600 31.0756 1.7330
46.6800 31.0890 1.7279
46.7000 31.1023 1.7245
46.7200 31.1156 1.7385
46.7400 31.1289 1.7331
46.7600 31.1423 1.7285
46.7800 31.1556 1.7371
46.8000 31.1690 1.7325
46.8200 31.1822 1.7339
46.8400 31.1956 1.7407
46.8600 31.2089 1.7391
46.8800 31.2222 1.7325
46.9000 31.2356 1.7441
46.9200 31.2489 1.7388
46.9400 31.2622 1.7339
46.9600 31.2756 1.7492
46.9800 31.2889 1.7421
47.0000 31.3022 1.7427
47.0200 31.3156 1.7500
47.0400 31.3290 1.7439
47.0600 31.3423 1.7489
47.0800 31.3556 1.7537
47.1000 31.3689 1.7511
47.1200 31.3823 1.7475
47.1400 31.3956 1.7560
47.1600 31.4089 1.7507
47.1800 31.4222 1.7521
47.2000 31.4356 1.7674
47.2200 31.4489 1.7539
47.2400 31.4622 1.7488
47.2600 31.4755 1.7689
47.2800 31.4888 1.7590
47.3000 31.5022 1.7550
47.3200 31.5156 1.7668
47.3400 31.5289 1.7609
47.3600 31.5422 1.7606
47.3800 31.5556 1.7713
47.4000 31.5689 1.7617
47.4200 31.5823 1.7595
47.4400 31.5956 1.7767
47.4600 31.6089 1.7640
47.4800 31.6223 1.7614
47.5000 31.6356 1.7807
47.5200 31.6489 1.7723
47.5400 31.6622 1.7655
47.5600 31.6756 1.7858
47.5800 31.6890 1.7726
47.6000 31.7023 1.7680
47.6200 31.7156 1.7862
47.6400 31.7288 1.7768
47.6600 31.7422 1.7747
47.6800 31.7555 1.7863
47.7000 31.7688 1.7820
47.7200 31.7822 1.7800
47.7400 31.7956 1.7867
47.7600 31.8090 1.7787
47.7800 31.8223 1.7804
47.8000 31.8357 1.7946
47.8200 31.8490 1.7865
47.8400 31.8623 1.7825
47.8600 31.8757 1.7967
47.8800 31.8890 1.7835
47.9000 31.9023 1.7925
47.9200 31.9156 1.8039
47.9400 31.9289 1.7901
47.9600 31.9422 1.7941
47.9800 31.9555 1.8049
48.0000 31.9688 1.7960
48.0200 31.9822 1.7962
48.0400 31.9955 1.8040
48.0600 32.0089 1.7979
48.0800 32.0222 1.7996
48.1000 32.0356 1.8073
48.1200 32.0490 1.8002
48.1400 32.0623 1.8046
48.1600 32.0757 1.8055
48.1800 32.0890 1.8064
48.2000 32.1023 1.8034
48.2200 32.1157 1.8134
48.2400 32.1289 1.8099
48.2600 32.1422 1.8088
48.2800 32.1555 1.8201
48.3000 32.1689 1.8121
48.3200 32.1822 1.8097
48.3400 32.1955 1.8211
48.3600 32.2088 1.8161
48.3800 32.2222 1.8171
48.4000 32.2355 1.8234
48.4200 32.2489 1.8152
48.4400 32.2622 1.8174
48.4600 32.2756 1.8279
48.4800 32.2889 1.8182
48.5000 32.3023 1.8306
48.5200 32.3156 1.8278
48.5400 32.3289 1.8250
48.5600 32.3423 1.8332
48.5800 32.3556 1.8242
48.6000 32.3690 1.8266
48.6200 32.3823 1.8395
48.6400 32.3956 1.8248
48.6600 32.4089 1.8350
48.6800 32.4223 1.8399
48.7000 32.4355 1.8291
48.7200 32.4488 1.8392
48.7400 32.4622 1.8455
48.7600 32.4755 1.8342
48.7800 32.4889 1.8408
48.8000 32.5022 1.8488
48.8200 32.5156 1.8370
48.8400 32.5290 1.8415
48.8600 32.5423 1.8492
48.8800 32.5556 1.8416
48.9000 32.5689 1.8466
48.9200 32.5823 1.8557
48.9400 32.5956 1.8471
48.9600 32.6089 1.8522
48.9800 32.6222 1.8533
49.0000 32.6355 1.8541
49.0200 32.6489 1.8575
49.0400 32.6622 1.8566
49.0600 32.6756 1.8466
49.0800 32.6889 1.8623
49.1000 32.7022 1.8589
49.1200 32.7156 1.8518
49.1400 32.7289 1.8683
49.1600 32.7422 1.8617
49.1800 32.7556 1.8581
49.2000 32.7689 1.8696
49.2200 32.7823 1.8630
49.2400 32.7956 1.8632
49.2600 32.8089 1.8733
49.2800 32.8223 1.8646
49.3000 32.8357 1.8666
49.3200 32.8490 1.8813
49.3400 32.8623 1.8686
49.3600 32.8756 1.8704
49.3800 32.8889 1.8800
49.4000 32.9023 1.8734
49.4200 32.9156 1.8728
49.4400 32.9289 1.8807
49.4600 32.9422 1.8809
49.4800 32.9556 1.8789
49.5000 32.9689 1.8831
49.5200 32.9822 1.8809
49.5400 32.9956 1.8844
49.5600 33.0089 1.8881
49.5800 33.0223 1.8817
49.6000 33.0356 1.8866
49.6200 33.0489 1.8902
49.6400 33.0623 1.8883
49.6600 33.0756 1.8868
49.6800 33.0890 1.8908
49.7000 33.1022 1.8952
49.7200 33.1156 1.8921
49.7400 33.1289 1.8917
49.7600 33.1422 1.8997
49.7800 33.1555 1.8992
49.8000 33.1688 1.8969
49.8200 33.1821 1.9027
49.8400 33.1955 1.9015
49.8600 33.2088 1.9012
49.8800 33.2222 1.9059
49.9000 33.2355 1.9045
49.9200 33.2490 1.9078
49.9400 33.2623 1.9110
49.9600 33.2757 1.9015
49.9800 33.2890 1.9114
50.0000 33.3023 1.9166
50.0200 33.3157 1.9070
50.0400 33.3290 1.9153
50.0600 33.3422 1.9179
50.0800 33.3555 1.9096
50.1000 33.3689 1.9220
50.1200 33.3822 1.9155
50.1400 33.3955 1.9106
50.1600 33.4088 1.9277
50.1800 33.4222 1.9226
50.2000 33.4356 1.9145
50.2200 33.4489 1.9334
50.2400 33.4622 1.9254
50.2600 33.4756 1.9196
50.2800 33.4890 1.9337
50.3000 33.5023 1.9239
50.3200 33.5156 1.9292
50.3400 33.5289 1.9414
50.3600 33.5423 1.9276
50.3800 33.5556 1.9332
50.4000 33.5689 1.9415
50.4200 33.5822 1.9323
50.4400 33.5956 1.9380
50.4600 33.6089 1.9462
50.4800 33.6223 1.9371
50.5000 33.6356 1.9419
50.5200 33.6489 1.9494
50.5400 33.6622 1.9437
50.5600 33.6756 1.9467
50.5800 33.6889 1.9493
50.6000 33.7022 1.9469
50.6200 33.7156 1.9471
50.6400 33.7289 1.9527
50.6600 33.7423 1.9512
50.6800 33.7556 1.9520
50.7000 33.7689 1.9554
50.7200 33.7823 1.9559
50.7400 33.7956 1.9574
50.7600 33.8090 1.9563
50.7800 33.8223 1.9617
50.8000 33.8356 1.9630
50.8200 33.8489 1.9620
50.8400 33.8623 1.9662
50.8600 33.8756 1.9643
50.8800 33.8889 1.9671
50.9000 33.9022 1.9724
50.9200 33.9155 1.9694
50.9400 33.9289 1.9659
50.9600 33.9422 1.9761
50.9800 33.9556 1.9714
51.0000 33.9689 1.9695
51.0200 33.9823 1.9846
51.0400 33.9956 1.9710
51.0600 34.0090 1.9742
51.0800 34.0223 1.9929
51.1000 34.0356 1.9747
51.1200 34.0489 1.9771
51.1400 34.0622 1.9949
51.1600 34.0756 1.9766
51.1800 34.0889 1.9854
51.2000 34.1023 1.9954
51.2200 34.1156 1.9867
51.2400 34.1289 1.9875
51.2600 34.1422 2.0017
51.2800 34.1556 1.9890
51.3000 34.1689 1.9914
51.3200 34.1822 2.0036
51.3400 34.1955 1.9931
51.3600 34.2089 2.0005
51.3800 34.2223 2.0082
51.4000 34.2356 1.9962
51.4200 34.2489 2.0043
51.4400 34.2623 2.0084
51.4600 34.2756 2.0037
51.4800 34.2890 2.0048
51.5000 34.3023 2.0136
51.5200 34.3156 2.0081
51.5400 34.3289 2.0090
51.5600 34.3422 2.0161
51.5800 34.3555 2.0119
51.6000 34.3688 2.0151
51.6200 34.3822 2.0238
51.6400 34.3955 2.0163
51.6600 34.4089 2.0144
51.6800 34.4222 2.0248
51.7000 34.4356 2.0228
51.7200 34.4489 2.0176
51.7400 34.4623 2.0275
51.7600 34.4756 2.0217
51.7800 34.4889 2.0269
51.8000 34.5023 2.0359
51.8200 34.5156 2.0250
51.8400 34.5290 2.0310
51.8600 34.5423 2.0361
51.8800 34.5556 2.0322
51.9000 34.5689 2.0361
51.9200 34.5822 2.0419
51.9400 34.5956 2.0299
51.9600 34.6089 2.0411
51.9800 34.6222 2.0486
52.0000 34.6355 2.0343
52.0200 34.6489 2.0436
52.0400 34.6622 2.0451
52.0600 34.6755 2.0428
52.0800 34.6889 2.0561
52.1000 34.7023 2.0491
52.1200 34.7157 2.0482
52.1400 34.7290 2.0584
52.1600 34.7423 2.0524
52.1800 34.7556 2.0532
52.2000 34.7690 2.0637
52.2200 34.7823 2.0536
52.2400 34.7955 2.0590
52.2600 34.8089 2.0657
52.2800 34.8222 2.0602
52.3000 34.8355 2.0632
52.3200 34.8489 2.0703
52.3400 34.8622 2.0625
52.3600 34.8756 2.0680
52.3800 34.8889 2.0685
52.4000 34.9023 2.0709
52.4200 34.9156 2.0736
52.4400 34.9289 2.0721
52.4600 34.9423 2.0780
52.4800 34.9556 2.0749
52.5000 34.9689 2.0775
52.5200 34.9822 2.0850
52.5400 34.9956 2.0796
52.5600 35.0089 2.0779
52.5800 35.0223 2.0857
52.6000 35.0356 2.0863
52.6200 35.0489 2.0878
52.6400 35.0623 2.0936
52.6600 35.0756 2.0851
52.6800 35.0889 2.0909
52.7000 35.1022 2.0972
52.7200 35.1155 2.0910
52.7400 35.1289 2.0985
52.7600 35.1422 2.0959
52.7800 35.1555 2.0946
52.8000 35.1689 2.1050
52.8200 35.1823 2.1015
52.8400 35.1956 2.0987
52.8600 35.2089 2.1074
52.8800 35.2223 2.1048
52.9000 35.2356 2.1082
52.9200 35.2490 2.1086
52.9400 35.2623 2.1135
52.9600 35.2756 2.1118
52.9800 35.2889 2.1143
53.0000 35.3023 2.1142
53.0200 35.3156 2.1185
53.0400 35.3289 2.1203
53.0600 35.3422 2.1143
53.0800 35.3555 2.1247
53.1000 35.3689 2.1183
53.1200 35.3822 2.1223
53.1400 35.3955 2.1290
53.1600 35.4089 2.1262
53.1800 35.4223 2.1260
53.2000 35.4356 2.1269
53.2200 35.4490 2.1318
53.2400 35.4623 2.1317
53.2600 35.4756 2.1334
53.2800 35.4890 2.1378
53.3000 35.5023 2.1343
53.3200 35.5156 2.1403
53.3400 35.5289 2.1383
53.3600 35.5422 2.1442
53.3800 35.5556 2.1413
53.4000 35.5689 2.1443
53.4200 35.5822 2.1462
53.4400 35.5955 2.1456
53.4600 35.6089 2.1505
53.4800 35.6222 2.1508
53.5000 35.6356 2.1532
53.5200 35.6489 2.1533
53.5400 35.6623 2.1489
53.5600 35.6756 2.1594
53.5800 35.6890 2.1549
53.6000 35.7023 2.1608
53.6200 35.7156 2.1627
53.6400 35.7290 2.1602
53.6600 35.7423 2.1632
53.6800 35.7556 2.1689
53.7000 35.7689 2.1656
53.7200 35.7822 2.1690
53.7400 35.7956 2.1723
53.7600 35.8089 2.1696
53.7800 35.8222 2.1757
53.8000 35.8355 2.1763
53.8200 35.8489 2.1697
53.8400 35.8622 2.1765
53.8600 35.8755 2.1797
53.8800 35.8889 2.1813
53.9000 35.9023 2.1827
53.9200 35.9156 2.1867
53.9400 35.9290 2.1828
53.9600 35.9423 2.1827
53.9800 35.9556 2.1927
54.0000 35.9690 2.1850
54.0200 35.9823 2.1932
54.0400 35.9956 2.1989
54.0600 36.0089 2.1906
54.0800 36.0222 2.1958
54.1000 36.0356 2.2062
54.1200 36.0489 2.1976
54.1400 36.0622 2.1991
54.1600 36.0755 2.2050
54.1800 36.0889 2.2065
54.2000 36.1022 2.2048
54.2200 36.1155 2.2121
54.2400 36.1289 2.2079
54.2600 36.1423 2.2079
54.2800 36.1556 2.2155
54.3000 36.1689 2.2141
54.3200 36.1823 2.2145
54.3400 36.1956 2.2216
54.3600 36.2090 2.2178
54.3800 36.2223 2.2149
54.4000 36.2356 2.2244
54.4200 36.2489 2.2239
54.4400 36.2622 2.2198
54.4600 36.2755 2.2357
54.4800 36.2888 2.2276
54.5000 36.3022 2.2254
54.5200 36.3155 2.2373
54.5400 36.3289 2.2356
54.5600 36.3423 2.2296
54.5800 36.3556 2.2421
54.6000 36.3689 2.2396
54.6200 36.3823 2.2340
54.6400 36.3956 2.2438
54.6600 36.4089 2.2430
54.6800 36.4222 2.2420
54.7000 36.4356 2.2537
54.7200 36.4489 2.2509
54.7400 36.4623 2.2434
54.7600 36.4756 2.2569
54.7800 36.4889 2.2531
54.8000 36.5023 2.2500
54.8200 36.5157 2.2626
54.8400 36.5289 2.2586
54.8600 36.5422 2.2558
54.8800 36.5555 2.2694
54.9000 36.5689 2.2624
54.9200 36.5822 2.2615
54.9400 36.5955 2.2737
54.9600 36.6089 2.2704
54.9800 36.6223 2.2692
55.0000 36.6357 2.2759
55.0200 36.6490 2.2702
55.0400 36.6623 2.2742
55.0600 36.6756 2.2819
55.0800 36.6890 2.2798
55.1000 36.7023 2.2825
55.1200 36.7156 2.2867
55.1400 36.7289 2.2850
55.1600 36.7422 2.2862
55.1800 36.7556 2.2903
55.2000 36.7689 2.2913
55.2200 36.7822 2.2900
55.2400 36.7955 2.2951
55.2600 36.8089 2.2968
55.2800 36.8222 2.2933
55.3000 36.8355 2.3006
55.3200 36.8489 2.3031
55.3400 36.8623 2.2974
55.3600 36.8756 2.3030
55.3800 36.8890 2.3101
55.4000 36.9023 2.2991
55.4200 36.9156 2.3156
55.4400 36.9290 2.3160
55.4600 36.9423 2.3015
55.4800 36.9556 2.3206
55.5000 36.9689 2.3204
55.5200 36.9822 2.3095
55.5400 36.9956 2.3273
55.5600 37.0089 2.3219
55.5800 37.0222 2.3142
55.6000 37.0355 2.3331
55.6200 37.0489 2.3264
55.6400 37.0622 2.3198
55.6600 37.0756 2.3381
55.6800 37.0889 2.3304
55.7000 37.1023 2.3300
55.7200 37.1156 2.3415
55.7400 37.1290 2.3326
55.7600 37.1423 2.3353
55.7800 37.1556 2.3478
55.8000 37.1690 2.3389
55.8200 37.1823 2.3436
55.8400 37.1956 2.3537
55.8600 37.2089 2.3467
55.8800 37.2223 2.3468
55.9000 37.2356 2.3586
55.9200 37.2489 2.3509
55.9400 37.2622 2.3558
55.9600 37.2755 2.3647
55.9800 37.2889 2.3561
56.0000 37.3022 2.3611
56.0200 37.3156 2.3668
56.0400 37.3289 2.3645
56.0600 37.3423 2.3647
56.0800 37.3556 2.3743
56.1000 37.3689 2.3678
56.1200 37.3823 2.3715
56.1400 37.3956 2.3787
56.1600 37.4090 2.3706
56.1800 37.4223 2.3788
56.2000 37.4356 2.3822
56.2200 37.4489 2.3810
56.2400 37.4622 2.3807
56.2600 37.4756 2.3855
56.2800 37.4889 2.3901
56.3000 37.5022 2.3802
56.3200 37.5155 2.3986
56.3400 37.5289 2.3879
56.3600 37.5422 2.3897
56.3800 37.5555 2.4044
56.4000 37.5689 2.3957
56.4200 37.5822 2.3967
56.4400 37.5956 2.4039
56.4600 37.6089 2.4008
56.4800 37.6223 2.4074
56.5000 37.6356 2.4095
56.5200 37.6490 2.4037
56.5400 37.6623 2.4089
56.5600 37.6756 2.4197
56.5800 37.6889 2.4076
56.6000 37.7022 2.4229
56.6200 37.7156 2.4226
56.6400 37.7289 2.4104
56.6600 37.7422 2.4280
56.6800 37.7555 2.4259
56.7000 37.7689 2.4230
56.7200 37.7822 2.4322
56.7400 37.7955 2.4291
56.7600 37.8089 2.4279
56.7800 37.8222 2.4411
56.8000 37.8356 2.4334
56.8200 37.8489 2.4354
56.8400 37.8622 2.4468
56.8600 37.8756 2.4384
56.8800 37.8889 2.4423
56.9000 37.9023 2.4529
56.9200 37.9156 2.4438
56.9400 37.9289 2.4522
56.9600 37.9423 2.4565
56.9800 37.9556 2.4469
57.0000 37.9689 2.4540
57.0200 37.9822 2.4620
57.0400 37.9955 2.4544
57.0600 38.0088 2.4625
57.0800 38.0222 2.4643
57.1000 38.0355 2.4615
57.1200 38.0489 2.4657
57.1400 38.0622 2.4684
57.1600 38.0756 2.4716
57.1800 38.0890 2.4753
57.2000 38.1023 2.4693
57.2200 38.1157 2.4835
57.2400 38.1290 2.4780
57.2600 38.1423 2.4757
57.2800 38.1556 2.4914
57.3000 38.1689 2.4817
57.3200 38.1822 2.4823
57.3400 38.1955 2.4997
57.3600 38.2089 2.4840
57.3800 38.2222 2.4887
57.4000 38.2355 2.5075
57.4200 38.2489 2.4901
57.4400 38.2623 2.4948
57.4600 38.2756 2.5118
57.4800 38.2889 2.4933
57.5000 38.3023 2.5059
57.5200 38.3157 2.5163
57.5400 38.3290 2.4944
57.5600 38.3423 2.5123
57.5800 38.3556 2.5226
57.6000 38.3690 2.5081
57.6200 38.3823 2.5200
57.6400 38.3956 2.5212
57.6600 38.4089 2.5152
57.6800 38.4222 2.5321
57.7000 38.4356 2.5260
57.7200 38.4489 2.5205
57.7400 38.4622 2.5370
57.7600 38.4755 2.5348
57.7800 38.4889 2.5279
57.8000 38.5022 2.5419
57.8200 38.5156 2.5380
57.8400 38.5289 2.5339
57.8600 38.5422 2.5504
57.8800 38.5556 2.5451
57.9000 38.5690 2.5430
57.9200 38.5823 2.5565
57.9400 38.5956 2.5553
57.9600 38.6089 2.5522
57.9800 38.6223 2.5590
58.0000 38.6356 2.5612
58.0200 38.6489 2.5588
58.0400 38.6622 2.5672
58.0600 38.6756 2.5690
58.0800 38.6889 2.5642
58.1000 38.7022 2.5689
58.1200 38.7155 2.5774
58.1400 38.7289 2.5725
58.1600 38.7422 2.5772
58.1800 38.7555 2.5815
58.2000 38.7689 2.5807
58.2200 38.7822 2.5822
58.2400 38.7956 2.5894
58.2600 38.8090 2.5859
58.2800 38.8223 2.5900
58.3000 38.8356 2.5984
58.3200 38.8490 2.5898
58.3400 38.8623 2.6040
58.3600 38.8756 2.6006
58.3800 38.8889 2.6012
58.4000 38.9022 2.6120
58.4200 38.9156 2.6017
58.4400 38.9289 2.6049
58.4600 38.9422 2.6166
58.4800 38.9555 2.6151
58.5000 38.9689 2.6133
58.5200 38.9822 2.6207
58.5400 38.9956 2.6206
58.5600 39.0089 2.6191
58.5800 39.0222 2.6283
58.6000 39.0356 2.6324
58.6200 39.0489 2.6271
58.6400 39.0623 2.6321
58.6600 39.0756 2.6420
58.6800 39.0889 2.6296
58.7000 39.1023 2.6436
58.7200 39.1156 2.6465
58.7400 39.1289 2.6349
58.7600 39.1422 2.6508
58.7800 39.1556 2.6529
58.8000 39.1689 2.6449
58.8200 39.1822 2.6590
58.8400 39.1955 2.6566
58.8600 39.2089 2.6537
58.8800 39.2222 2.6653
58.9000 39.2356 2.6627
58.9200 39.2489 2.6614
58.9400 39.2623 2.6741
58.9600 39.2756 2.6665
58.9800 39.2890 2.6676
59.0000 39.3023 2.6792
59.0200 39.3156 2.6728
59.0400 39.3289 2.6768
59.0600 39.3423 2.6881
59.0800 39.3556 2.6812
59.1000 39.3689 2.6812
59.1200 39.3822 2.6987
59.1400 39.3956 2.6872
59.1600 39.4089 2.6892
59.1800 39.4222 2.6984
59.2000 39.4355 2.6948
59.2200 39.4488 2.7055
59.2400 39.4622 2.7064
59.2600 39.4755 2.7004
59.2800 39.4889 2.7097
59.3000 39.5022 2.7094
59.3200 39.5156 2.7094
59.3400 39.5289 2.7203
59.3600 39.5423 2.7177
59.3800 39.5556 2.7191
59.4000 39.5690 2.7254
59.4200 39.5823 2.7212
59.4400 39.5956 2.7316
59.4600 39.6089 2.7338
59.4800 39.6222 2.7312
59.5000 39.6355 2.7388
59.5200 39.6489 2.7379
59.5400 39.6622 2.7418
59.5600 39.6755 2.7447
59.5800 39.6889 2.7472
59.6000 39.7022 2.7473
59.6200 39.7156 2.7476
59.6400 39.7289 2.7534
59.6600 39.7423 2.7525
59.6800 39.7556 2.7618
59.7000 39.7690 2.7617
59.7200 39.7823 2.7607
59.7400 39.7956 2.7667
59.7600 39.8089 2.7689
59.7800 39.8223 2.7715
59.8000 39.8356 2.7740
59.8200 39.8489 2.7767
59.8400 39.8623 2.7736
59.8600 39.8756 2.7857
59.8800 39.8890 2.7861
59.9000 39.9023 2.7796
59.9200 39.9156 2.7931
59.9400 39.9289 2.7921
59.9600 39.9422 2.7916
59.9800 39.9556 2.8025
60.0000 39.9689 2.7940
60.0200 39.9822 2.8033
60.0400 39.9955 2.7994
60.0470 40.0001 2.7848
60.0480 40.0008 2.7818
60.0490 40.0014 2.7789
60.0690 40.0119 2.6973
60.0890 40.0140 2.6511
60.1090 40.0057 2.7361
60.1290 39.9929 2.8116
60.1490 39.9800 2.7918
60.1690 39.9672 2.7550
60.1890 39.9537 2.7776
60.2090 39.9397 2.7682
60.2290 39.9256 2.7547
60.2490 39.9118 2.7728
60.2690 39.8983 2.7449
60.2890 39.8850 2.7423
60.3090 39.8718 2.7436
60.3290 39.8585 2.7289
60.3490 39.8451 2.7267
60.3690 39.8317 2.7347
60.3890 39.8183 2.7092
60.4090 39.8050 2.7178
60.4290 39.7917 2.7162
60.4490 39.7783 2.6869
60.4690 39.7649 2.7053
60.4890 39.7516 2.7012
60.5090 39.7383 2.6766
60.5290 39.7250 2.6871
60.5490 39.7116 2.6863
60.5690 39.6982 2.6692
60.5890 39.6849 2.6781
60.6090 39.6716 2.6680
60.6290 39.6582 2.6533
60.6490 39.6449 2.6687
60.6690 39.6316 2.6522
60.6890 39.6183 2.6458
60.7090 39.6050 2.6510
60.7290 39.5916 2.6364
60.7490 39.5783 2.6340
60.7690 39.5650 2.6405
60.7890 39.5517 2.6174
60.8090 39.5383 2.6200
60.8290 39.5249 2.6259
60.8490 39.5116 2.6074
60.8690 39.4983 2.6105
60.8890 39.4849 2.6099
60.9090 39.4716 2.5955
60.9290 39.4582 2.5996
60.9490 39.4449 2.6001
60.9690 39.4316 2.5857
60.9890 39.4183 2.5825
61.0090 39.4050 2.5902
61.0290 39.3917 2.5750
61.0490 39.3784 2.5712
61.0690 39.3650 2.5780
61.0890 39.3516 2.5648
61.1090 39.3383 2.5631
61.1290 39.3250 2.5566
61.1490 39.3116 2.5510
61.1690 39.2982 2.5500
61.1890 39.2849 2.5494
61.2090 39.2715 2.5418
61.2290 39.2582 2.5425
61.2490 39.2449 2.5379
61.2690 39.2316 2.5309
61.2890 39.2182 2.5305
61.3090 39.2049 2.5272
61.3290 39.1916 2.5209
61.3490 39.1782 2.5160
61.3690 39.1649 2.5153
61.3890 39.1516 2.5101
61.4090 39.1383 2.5043
61.4290 39.1250 2.5026
61.4490 39.1116 2.4963
61.4690 39.0983 2.4995
61.4890 39.0850 2.4924
61.5090 39.0716 2.4868
61.5290 39.0583 2.4847
61.5490 39.0449 2.4792
61.5690 39.0315 2.4782
61.5890 39.0182 2.4759
61.6090 39.0049 2.4714
61.6290 38.9916 2.4644
61.6490 38.9782 2.4653
61.6690 38.9649 2.4607
61.6890 38.9516 2.4530
61.7090 38.9383 2.4531
61.7290 38.9249 2.4453
61.7490 38.9116 2.4524
61.7690 38.8983 2.4448
61.7890 38.8850 2.4346
61.8090 38.8716 2.4429
61.8290 38.8583 2.4337
61.8490 38.8450 2.4255
61.8690 38.8316 2.4289
61.8890 38.8183 2.4245
61.9090 38.8049 2.4154
61.9290 38.7916 2.4263
61.9490 38.7782 2.4113
61.9690 38.7649 2.4062
61.9890 38.7515 2.4163
62.0090 38.7382 2.4031
62.0290 38.7249 2.3954
62.0490 38.7116 2.4082
62.0690 38.6983 2.3876
62.0890 38.6850 2.3872
62.1090 38.6716 2.3941
62.1290 38.6583 2.3792
62.1490 38.6450 2.3778
62.1690 38.6316 2.3869
62.1890 38.6182 2.3680
62.2090 38.6049 2.3732
62.2290 38.5916 2.3770
62.2490 38.5783 2.3600
62.2690 38.5649 2.3627
62.2890 38.5516 2.3664
62.3090 38.5383 2.3501
62.3290 38.5250 2.3527
62.3490 38.5116 2.3562
62.3690 38.4982 2.3454
62.3890 38.4849 2.3468
62.4090 38.4716 2.3438
62.4290 38.4582 2.3343
62.4490 38.4449 2.3362
62.4690 38.4316 2.3405
62.4890 38.4183 2.3180
62.5090 38.4050 2.3276
62.5290 38.3916 2.3305
62.5490 38.3783 2.3092
62.5690 38.3650 2.3226
62.5890 38.3517 2.3217
62.6090 38.3383 2.3013
62.6290 38.3249 2.3148
62.6490 38.3116 2.3110
62.6690 38.2983 2.2947
62.6890 38.2850 2.3040
62.7090 38.2716 2.3000
62.7290 38.2582 2.2888
62.7490 38.2449 2.2983
62.7690 38.2316 2.2906
62.7890 38.2182 2.2802
62.8090 38.2049 2.2910
62.8290 38.1915 2.2847
62.8490 38.1782 2.2717
62.8690 38.1649 2.2808
62.8890 38.1516 2.2712
62.9090 38.1382 2.2660
62.9290 38.1249 2.2712
62.9490 38.1116 2.2632
62.9690 38.0983 2.2565
62.9890 38.0849 2.2620
63.0090 38.0715 2.2567
63.0290 38.0582 2.2521
63.0490 38.0449 2.2520
63.0690 38.0315 2.2514
63.0890 38.0182 2.2413
63.1090 38.0049 2.2439
63.1290 37.9916 2.2423
63.1490 37.9783 2.2328
63.1690 37.9649 2.2355
63.1890 37.9516 2.2318
63.2090 37.9383 2.2270
63.2290 37.9250 2.2249
63.2490 37.9117 2.2280
63.2690 37.8983 2.2172
63.2890 37.8849 2.2228
63.3090 37.8716 2.2131
63.3290 37.8583 2.2101
63.3490 37.8449 2.2127
63.3690 37.8315 2.2090
63.3890 37.8182 2.2010
63.4090 37.8049 2.2019
63.4290 37.7916 2.2057
63.4490 37.7782 2.1957
63.4690 37.7649 2.1984
63.4890 37.7516 2.1954
63.5090 37.7383 2.1833
63.5290 37.7249 2.1918
63.5490 37.7116 2.1823
63.5690 37.6983 2.1808
63.5890 37.6850 2.1876
63.6090 37.6716 2.1762
63.6290 37.6583 2.1758
63.6490 37.6450 2.1792
63.6690 37.6317 2.1667
63.6890 37.6183 2.1678
63.7090 37.6049 2.1669
63.7290 37.5915 2.1639
63.7490 37.5782 2.1625
63.7690 37.5649 2.1587
63.7890 37.5516 2.1530
63.8090 37.5382 2.1563
63.8290 37.5249 2.1545
63.8490 37.5116 2.1427
63.8690 37.4982 2.1466
63.8890 37.4849 2.1469
63.9090 37.4716 2.1425
63.9290 37.4583 2.1379
63.9490 37.4450 2.1379
63.9690 37.4316 2.1340
63.9890 37.4182 2.1336
64.0090 37.4049 2.1288
64.0290 37.3916 2.1271
64.0490 37.3783 2.1222
64.0690 37.3649 2.1247
64.0890 37.3516 2.1169
64.1090 37.3382 2.1157
64.1290 37.3249 2.1173
64.1490 37.3116 2.1129
64.1690 37.2982 2.1092
64.1890 37.2849 2.1128
64.2090 37.2716 2.1055
64.2290 37.2582 2.1033
64.2490 37.2449 2.1006
64.2690 37.2316 2.0996
64.2890 37.2183 2.1001
64.3090 37.2050 2.0942
64.3290 37.1916 2.0947
64.3490 37.1783 2.0911
64.3690 37.1649 2.0889
64.3890 37.1516 2.0869
64.4090 37.1383 2.0827
64.4290 37.1249 2.0865
64.4490 37.1116 2.0767
64.4690 37.0983 2.0744
64.4890 37.0850 2.0761
64.5090 37.0716 2.0695
64.5290 37.0582 2.0755
64.5490 37.0448 2.0691
64.5690 37.0315 2.0625
64.5890 37.0182 2.0639
64.6090 37.0049 2.0641
64.6290 36.9915 2.0568
64.6490 36.9783 2.0616
64.6690 36.9650 2.0555
64.6890 36.9516 2.0510
64.7090 36.9383 2.0560
64.7290 36.9250 2.0479
64.7490 36.9117 2.0436
64.7690 36.8983 2.0485
64.7890 36.8849 2.0380
64.8090 36.8716 2.0389
64.8290 36.8582 2.0461
64.8490 36.8449 2.0332
64.8690 36.8316 2.0275
64.8890 36.8182 2.0412
64.9090 36.8048 2.0280
64.9290 36.7916 2.0247
64.9490 36.7783 2.0364
64.9690 36.7650 2.0191
64.9890 36.7516 2.0206
65.0090 36.7383 2.0265
65.0290 36.7250 2.0152
65.0490 36.7117 2.0108
65.0690 36.6983 2.0212
65.0890 36.6849 2.0116
65.1090 36.6716 2.0058
65.1290 36.6583 2.0132
65.1490 36.6449 2.0043
65.1690 36.6315 1.9987
65.1890 36.6182 2.0067
65.2090 36.6049 1.9998
65.2290 36.5916 1.9960
65.2490 36.5782 1.9956
65.2690 36.5649 1.9943
65.2890 36.5516 1.9949
65.3090 36.5383 1.9889
65.3290 36.5249 1.9877
65.3490 36.5116 1.9924
65.3690 36.4983 1.9810
65.3890 36.4850 1.9838
65.4090 36.4716 1.9853
65.4290 36.4583 1.9777
65.4490 36.4449 1.9751
65.4690 36.4316 1.9773
65.4890 36.4183 1.9667
65.5090 36.4049 1.9731
65.5290 36.3915 1.9717
65.5490 36.3782 1.9634
65.5690 36.3649 1.9660
65.5890 36.3516 1.9624
65.6090 36.3382 1.9611
65.6290 36.3249 1.9658
65.6490 36.3116 1.9547
65.6690 36.2983 1.9520
65.6890 36.2849 1.9604
65.7090 36.2716 1.9461
65.7290 36.2583 1.9551
65.7490 36.2450 1.9492
65.7690 36.2316 1.9391
65.7890 36.2183 1.9491
65.8090 36.2049 1.9405
65.8290 36.1916 1.9357
65.8490 36.1783 1.9412
65.8690 36.1649 1.9283
65.8890 36.1515 1.9316
65.9090 36.1382 1.9408
65.9290 36.1249 1.9249
65.9490 36.1116 1.9264
65.9690 36.0982 1.9348
65.9890 36.0849 1.9156
66.0090 36.0716 1.9257
66.0290 36.0582 1.9285
66.0490 36.0449 1.9110
66.0690 36.0316 1.9213
66.0890 36.0183 1.9230
66.1090 36.0050 1.9085
66.1290 35.9916 1.9173
66.1490 35.9783 1.9121
66.1690 35.9649 1.9057
66.1890 35.9516 1.9094
66.2090 35.9383 1.9043
66.2290 35.9249 1.8985
66.2490 35.9116 1.9011
66.2690 35.8982 1.9023
66.2890 35.8849 1.8985
66.3090 35.8716 1.8914
66.3290 35.8582 1.8946
66.3490 35.8449 1.8956
66.3690 35.8316 1.8867
66.3890 35.8182 1.8912
66.4090 35.8049 1.8869
66.4290 35.7916 1.8822
66.4490 35.7783 1.8876
66.4690 35.7650 1.8832
66.4890 35.7517 1.8780
66.5090 35.7383 1.8819
66.5290 35.7249 1.8781
66.5490 35.7116 1.8688
66.5690 35.6983 1.8793
66.5890 35.6849 1.8672
66.6090 35.6716 1.8659
66.6290 35.6582 1.8754
66.6490 35.6449 1.8665
66.6690 35.6316 1.8598
66.6890 35.6182 1.8679
66.7090 35.6049 1.8583
66.7290 35.5916 1.8535
66.7490 35.5782 1.8665
66.7690 35.5649 1.8539
66.7890 35.5515 1.8566
66.8090 35.5382 1.8557
66.8290 35.5250 1.8528
66.8490 35.5116 1.8447
66.8690 35.4983 1.8484
66.8890 35.4850 1.8452
66.9090 35.4716 1.8428
66.9290 35.4583 1.8476
66.9490 35.4449 1.8405
66.9690 35.4315 1.8397
66.9890 35.4182 1.8426
67.0090 35.4049 1.8352
67.0290 35.3916 1.8326
67.0490 35.3782 1.8363
67.0690 35.3648 1.8344
67.0890 35.3515 1.8263
67.1090 35.3383 1.8336
67.1290 35.3250 1.8258
67.1490 35.3116 1.8207
67.1690 35.2983 1.8298
67.1890 35.2850 1.8221
67.2090 35.2717 1.8153
67.2290 35.2583 1.8282
67.2490 35.2449 1.8170
67.2690 35.2316 1.8093
67.2890 35.2183 1.8230
67.3090 35.2049 1.8104
67.3290 35.1915 1.8035
67.3490 35.1782 1.8220
67.3690 35.1649 1.8035
67.3890 35.1516 1.7983
67.4090 35.1383 1.8171
67.4290 35.1249 1.7991
67.4490 35.1116 1.8013
67.4690 35.0983 1.8069
67.4890 35.0849 1.7909
67.5090 35.0716 1.7964
67.5290 35.0582 1.8012
67.5490 35.0450 1.7848
67.5690 35.0316 1.7960
67.5890 35.0183 1.7969
67.6090 35.0049 1.7821
67.6290 34.9916 1.7941
67.6490 34.9783 1.7895
67.6690 34.9649 1.7767
67.6890 34.9516 1.7927
67.7090 34.9382 1.7815
67.7290 34.9249 1.7751
67.7490 34.9116 1.7838
67.7690 34.8983 1.7752
67.7890 34.8849 1.7727
67.8090 34.8716 1.7802
67.8290 34.8583 1.7691
67.8490 34.8449 1.7710
67.8690 34.8315 1.7741
67.8890 34.8182 1.7660
67.9090 34.8049 1.7689
67.9290 34.7916 1.7648
67.9490 34.7783 1.7584
67.9690 34.7649 1.7664
67.9890 34.7516 1.7618
68.0090 34.7383 1.7559
68.0290 34.7250 1.7603
68.0490 34.7116 1.7513
68.0690 34.6982 1.7537
68.0890 34.6849 1.7587
68.1090 34.6716 1.7471
68.1290 34.6582 1.7522
68.1490 34.6449 1.7533
68.1690 34.6315 1.7436
68.1890 34.6182 1.7456
68.2090 34.6049 1.7447
68.2290 34.5916 1.7433
68.2490 34.5782 1.7445
68.2690 34.5650 1.7407
68.2890 34.5516 1.7352
68.3090 34.5383 1.7409
68.3290 34.5249 1.7392
68.3490 34.5116 1.7299
68.3690 34.4983 1.7316
68.3890 34.4849 1.7350
68.4090 34.4716 1.7256
68.4290 34.4582 1.7275
68.4490 34.4449 1.7319
68.4690 34.4316 1.7196
68.4890 34.4182 1.7205
68.5090 34.4049 1.7264
68.5290 34.3915 1.7226
68.5490 34.3782 1.7157
68.5690 34.3649 1.7212
68.5890 34.3515 1.7194
68.6090 34.3382 1.7111
68.6290 34.3249 1.7187
68.6490 34.3116 1.7100
68.6690 34.2983 1.7091
68.6890 34.2849 1.7127
68.7090 34.2716 1.7069
68.7290 34.2583 1.7062
68.7490 34.2449 1.7058
68.7690 34.2315 1.7031
68.7890 34.2182 1.7038
68.8090 34.2049 1.7024
68.8290 34.1916 1.6954
68.8490 34.1783 1.6921
68.8690 34.1649 1.6989
68.8890 34.1516 1.6909
68.9090 34.1383 1.6914
68.9290 34.1249 1.6919
68.9490 34.1116 1.6877
68.9690 34.0983 1.6912
68.9890 34.0850 1.6836
69.0090 34.0717 1.6832
69.0290 34.0583 1.6819
69.0490 34.0449 1.6825
69.0690 34.0316 1.6832
69.0890 34.0183 1.6788
69.1090 34.0049 1.6771
69.1290 33.9916 1.6828
69.1490 33.9782 1.6731
69.1690 33.9649 1.6702
69.1890 33.9516 1.6756
69.2090 33.9382 1.6690
69.2290 33.9249 1.6697
69.2490 33.9115 1.6742
69.2690 33.8983 1.6617
69.2890 33.8850 1.6651
69.3090 33.8716 1.6742
69.3290 33.8583 1.6614
69.3490 33.8450 1.6576
69.3690 33.8316 1.6635
69.3890 33.8183 1.6526
69.4090 33.8049 1.6584
69.4290 33.7916 1.6600
69.4490 33.7783 1.6540
69.4690 33.7649 1.6563
69.4890 33.7516 1.6537
69.5090 33.7382 1.6513
69.5290 33.7249 1.6514
69.5490 33.7116 1.6485
69.5690 33.6983 1.6459
69.5890 33.6849 1.6452
69.6090 33.6716 1.6440
69.6290 33.6582 1.6463
69.6490 33.6449 1.6361
69.6690 33.6316 1.6423
69.6890 33.6182 1.6412
69.7090 33.6049 1.6350
69.7290 33.5916 1.6361
69.7490 33.5783 1.6364
69.7690 33.5649 1.6340
69.7890 33.5516 1.6313
69.8090 33.5383 1.6335
69.8290 33.5250 1.6291
69.8490 33.5116 1.6273
69.8690 33.4982 1.6314
69.8890 33.4849 1.6227
69.9090 33.4716 1.6273
69.9290 33.4582 1.6207
69.9490 33.4449 1.6232
69.9690 33.4315 1.6238
69.9890 33.4182 1.6161
70.0090 33.4049 1.6145
70.0290 33.3916 1.6231
70.0490 33.3782 1.6104
70.0690 33.3649 1.6125
70.0890 33.3516 1.6210
70.1090 33.3383 1.6003
70.1290 33.3250 1.6109
70.1490 33.3116 1.6202
70.1690 33.2983 1.5975
70.1890 33.2850 1.6146
70.2090 33.2716 1.6068
70.2290 33.2582 1.5942
70.2490 33.2449 1.6077
70.2690 33.2316 1.5974
70.2890 33.2182 1.5938
70.3090 33.2049 1.6083
70.3290 33.1915 1.5992
70.3490 33.1782 1.5899
70.3690 33.1649 1.6020
70.3890 33.1516 1.5946
70.4090 33.1383 1.5892
70.4290 33.1250 1.5954
70.4490 33.1117 1.5898
70.4690 33.0983 1.5868
70.4890 33.0850 1.5902
70.5090 33.0716 1.5858
70.5290 33.0583 1.5850
70.5490 33.0449 1.5840
70.5690 33.0316 1.5826
70.5890 33.0182 1.5806
70.6090 33.0049 1.5849
70.6290 32.9916 1.5785
70.6490 32.9782 1.5767
70.6690 32.9649 1.5761
70.6890 32.9515 1.5763
70.7090 32.9382 1.5710
70.7290 32.9249 1.5707
70.7490 32.9116 1.5743
70.7690 32.8982 1.5663
70.7890 32.8849 1.5685
70.8090 32.8716 1.5703
70.8290 32.8583 1.5702
70.8490 32.8450 1.5661
70.8690 32.8316 1.5640
70.8890 32.8183 1.5654
70.9090 32.8050 1.5567
70.9290 32.7916 1.5661
70.9490 32.7782 1.5672
70.9690 32.7649 1.5557
70.9890 32.7516 1.5608
71.0090 32.7382 1.5572
71.0290 32.7249 1.5473
71.0490 32.7115 1.5621
71.0690 32.6982 1.5514
71.0890 32.6849 1.5459
71.1090 32.6716 1.5612
71.1290 32.6582 1.5469
71.1490 32.6449 1.5467
71.1690 32.6316 1.5555
71.1890 32.6183 1.5408
71.2090 32.6049 1.5424
71.2290 32.5916 1.5531
71.2490 32.5783 1.5338
71.2690 32.5650 1.5439
71.2890 32.5516 1.5478
71.3090 32.5382 1.5308
71.3290 32.5249 1.5407
71.3490 32.5116 1.5436
71.3690 32.4983 1.5260
71.3890 32.4849 1.5361
71.4090 32.4715 1.5392
71.4290 32.4582 1.5266
71.4490 32.4449 1.5325
71.4690 32.4316 1.5319
71.4890 32.4182 1.5240
71.5090 32.4049 1.5340
71.5290 32.3916 1.5268
71.5490 32.3783 1.5189
71.5690 32.3650 1.5292
71.5890 32.3516 1.5263
71.6090 32.3383 1.5184
71.6290 32.3250 1.5244
71.6490 32.3116 1.5210
71.6690 32.2982 1.5121
71.6890 32.2849 1.5247
71.7090 32.2716 1.5138
71.7290 32.2583 1.5098
71.7490 32.2449 1.5206
71.7690 32.2315 1.5133
71.7890 32.2182 1.5084
71.8090 32.2049 1.5170
71.8290 32.1916 1.5132
71.8490 32.1782 1.5039
71.8690 32.1649 1.5088
71.8890 32.1516 1.5092
71.9090 32.1383 1.4998
71.9290 32.1250 1.5060
71.9490 32.1116 1.5080
71.9690 32.0983 1.4990
71.9890 32.0850 1.4989
72.0090 32.0716 1.5079
72.0290 32.0583 1.4991
72.0490 32.0449 1.4967
72.0690 32.0316 1.4997
72.0890 32.0182 1.4914
72.1090 32.0049 1.4936
72.1290 31.9915 1.5000
72.1490 31.9782 1.4865
72.1690 31.9649 1.4949
72.1890 31.9516 1.4941
72.2090 31.9383 1.4836
72.2290 31.9249 1.4949
72.2490 31.9116 1.4870
72.2690 31.8983 1.4788
72.2890 31.8850 1.4924
72.3090 31.8716 1.4840
72.3290 31.8583 1.4776
72.3490 31.8450 1.4897
72.3690 31.8316 1.4763
72.3890 31.8182 1.4745
72.4090 31.8048 1.4883
72.4290 31.7915 1.4730
72.4490 31.7782 1.4724
72.4690 31.7649 1.4812
72.4890 31.7515 1.4682
72.5090 31.7382 1.4754
72.5290 31.7249 1.4783
72.5490 31.7116 1.4651
72.5690 31.6983 1.4745
72.5890 31.6849 1.4768
72.6090 31.6716 1.4610
72.6290 31.6583 1.4697
72.6490 31.6449 1.4726
72.6690 31.6316 1.4651
72.6890 31.6182 1.4651
72.7090 31.6049 1.4640
72.7290 31.5916 1.4546
72.7490 31.5782 1.4661
72.7690 31.5649 1.4570
72.7890 31.5516 1.4567
72.8090 31.5383 1.4630
72.8290 31.5249 1.4525
72.8490 31.5116 1.4577
72.8690 31.4982 1.4568
72.8890 31.4849 1.4535
72.9090 31.4716 1.4592
72.9290 31.4583 1.4504
72.9490 31.4449 1.4479
72.9690 31.4316 1.4544
72.9890 31.4183 1.4499
73.0090 31.4050 1.4445
73.0290 31.3916 1.4543
73.0490 31.3783 1.4466
73.0690 31.3650 1.4418
73.0890 31.3516 1.4488
73.1090 31.3382 1.4402
73.1290 31.3249 1.4412
73.1490 31.3116 1.4464
73.1690 31.2983 1.4340
73.1890 31.2849 1.4408
73.2090 31.2716 1.4418
73.2290 31.2582 1.4335
73.2490 31.2449 1.4386
73.2690 31.2316 1.4325
73.2890 31.2183 1.4306
73.3090 31.2049 1.4348
73.3290 31.1916 1.4304
73.3490 31.1783 1.4293
73.3690 31.1650 1.4343
73.3890 31.1516 1.4216
73.4090 31.1383 1.4331
73.4290 31.1250 1.4319
73.4490 31.1116 1.4177
73.4690 31.0982 1.4269
73.4890 31.0849 1.4282
73.5090 31.0716 1.4163
73.5290 31.0583 1.4276
73.5490 31.0449 1.4206
73.5690 31.0315 1.4124
73.5890 31.0182 1.4301
73.6090 31.0049 1.4136
73.6290 30.9916 1.4100
73.6490 30.9783 1.4304
73.6690 30.9649 1.4088
73.6890 30.9516 1.4111
73.7090 30.9383 1.4232
73.7290 30.9250 1.4020
73.7490 30.9116 1.4144
73.7690 30.8983 1.4208
73.7890 30.8850 1.3985
73.8090 30.8716 1.4099
73.8290 30.8582 1.4128
73.8490 30.8449 1.4004
73.8690 30.8316 1.4119
73.8890 30.8182 1.4069
73.9090 30.8049 1.3943
73.9290 30.7915 1.4090
73.9490 30.7782 1.4032
73.9690 30.7649 1.3955
73.9890 30.7516 1.4077
74.0090 30.7382 1.3958
74.0290 30.7249 1.3982
74.0490 30.7116 1.3990
74.0690 30.6983 1.3936
74.0890 30.6850 1.3976
74.1090 30.6716 1.3967
74.1290 30.6583 1.3913
74.1490 30.6450 1.3973
74.1690 30.6316 1.3844
74.1890 30.6183 1.3906
74.2090 30.6049 1.3917
74.2290 30.5915 1.3845
74.2490 30.5782 1.3912
74.2690 30.5649 1.3860
74.2890 30.5515 1.3794
74.3090 30.5382 1.3938
74.3290 30.5249 1.3856
74.3490 30.5116 1.3708
74.3690 30.4983 1.3910
74.3890 30.4850 1.3839
74.4090 30.4716 1.3642
74.4290 30.4583 1.3896
74.4490 30.4450 1.3764
74.4690 30.4316 1.3687
74.4890 30.4182 1.3873
74.5090 30.4049 1.3742
74.5290 30.3916 1.3654
74.5490 30.3783 1.3796
74.5690 30.3649 1.3740
74.5890 30.3516 1.3656
74.6090 30.3383 1.3757
74.6290 30.3249 1.3669
74.6490 30.3116 1.3655
74.6690 30.2982 1.3732
74.6890 30.2849 1.3629
74.7090 30.2716 1.3611
74.7290 30.2583 1.3702
74.7490 30.2449 1.3595
74.7690 30.2316 1.3597
74.7890 30.2183 1.3654
74.8090 30.2049 1.3573
74.8290 30.1916 1.3583
74.8490 30.1782 1.3646
74.8690 30.1649 1.3557
74.8890 30.1516 1.3558
74.9090 30.1382 1.3578
74.9290 30.1249 1.3546
74.9490 30.1116 1.3545
74.9690 30.0983 1.3587
74.9890 30.0849 1.3514
75.0090 30.0716 1.3467
75.0290 30.0582 1.3534
75.0490 30.0449 1.3503
75.0690 30.0316 1.3433
75.0890 30.0182 1.3485
75.1090 30.0049 1.3487
75.1290 29.9916 1.3440
75.1490 29.9783 1.3484
75.1690 29.9650 1.3439
75.1890 29.9516 1.3385
75.2090 29.9383 1.3455
75.2290 29.9250 1.3447
75.2490 29.9117 1.3386
75.2690 29.8983 1.3356
75.2890 29.8849 1.3428
75.3090 29.8716 1.3369
75.3290 29.8583 1.3308
75.3490 29.8449 1.3451
75.3690 29.8316 1.3326
75.3890 29.8182 1.3333
75.4090 29.8049 1.3418
75.4290 29.7916 1.3304
75.4490 29.7782 1.3271
75.4690 29.7649 1.3370
75.4890 29.7516 1.3283
75.5090 29.7383 1.3259
75.5290 29.7250 1.3333
75.5490 29.7116 1.3258
75.5690 29.6983 1.3260
75.5890 29.6849 1.3314
75.6090 29.6716 1.3234
75.6290 29.6583 1.3266
75.6490 29.6449 1.3237
75.6690 29.6316 1.3204
75.6890 29.6183 1.3219
75.7090 29.6049 1.3226
75.7290 29.5916 1.3177
75.7490 29.5782 1.3189
75.7690 29.5649 1.3194
75.7890 29.5516 1.3133
75.8090 29.5382 1.3185
75.8290 29.5249 1.3185
75.8490 29.5116 1.3093
75.8690 29.4983 1.3185
75.8890 29.4850 1.3146
75.9090 29.4716 1.3047
75.9290 29.4583 1.3145
75.9490 29.4449 1.3121
75.9690 29.4316 1.3021
75.9890 29.4183 1.3097
76.0090 29.4049 1.3062
76.0290 29.3915 1.3021
76.0490 29.3782 1.3106
76.0690 29.3649 1.3011
76.0890 29.3516 1.3036
76.1090 29.3382 1.3080
76.1290 29.3249 1.2986
76.1490 29.3116 1.3040
76.1690 29.2983 1.3017
76.1890 29.2849 1.2962
76.2090 29.2716 1.3006
76.2290 29.2583 1.2982
76.2490 29.2450 1.2950
76.2690 29.2316 1.2998
76.2890 29.2182 1.2984
76.3090 29.2049 1.2911
76.3290 29.1916 1.2967
76.3490 29.1783 1.2908
76.3690 29.1649 1.2919
76.3890 29.1515 1.2972
76.4090 29.1382 1.2865
76.4290 29.1249 1.2886
76.4490 29.1115 1.2931
76.4690 29.0982 1.2839
76.4890 29.0849 1.2921
76.5090 29.0716 1.2857
76.5290 29.0583 1.2843
76.5490 29.0449 1.2886
76.5690 29.0316 1.2785
76.5890 29.0183 1.2811
76.6090 29.0050 1.2872
76.6290 28.9916 1.2778
76.6490 28.9782 1.2779
76.6690 28.9649 1.2844
76.6890 28.9516 1.2708
76.7090 28.9383 1.2780
76.7290 28.9249 1.2798
76.7490 28.9116 1.2700
76.7690 28.8983 1.2800
76.7890 28.8850 1.2786
76.8090 28.8716 1.2644
76.8290 28.8582 1.2755
76.8490 28.8449 1.2770
76.8690 28.8316 1.2619
76.8890 28.8183 1.2756
76.9090 28.8049 1.2739
76.9290 28.7916 1.2621
76.9490 28.7783 1.2727
76.9690 28.7650 1.2614
76.9890 28.7516 1.2666
77.0090 28.7383 1.2724
77.0290 28.7249 1.2606
77.0490 28.7116 1.2634
77.0690 28.6983 1.2659
77.0890 28.6849 1.2561
77.1090 28.6716 1.2647
77.1290 28.6582 1.2623
77.1490 28.6449 1.2497
77.1690 28.6316 1.2638
77.1890 28.6182 1.2586
77.2090 28.6049 1.2495
77.2290 28.5916 1.2659
77.2490 28.5783 1.2508
77.2690 28.5649 1.2493
77.2890 28.5516 1.2597
77.3090 28.5383 1.2524
77.3290 28.5250 1.2514
77.3490 28.5116 1.2557
77.3690 28.4983 1.2478
77.3890 28.4849 1.2464
77.4090 28.4716 1.2499
77.4290 28.4583 1.2421
77.4490 28.4449 1.2483
77.4690 28.4315 1.2506
77.4890 28.4182 1.2420
77.5090 28.4049 1.2463
77.5290 28.3915 1.2427
77.5490 28.3782 1.2419
77.5690 28.3648 1.2455
77.5890 28.3516 1.2371
77.6090 28.3382 1.2430
77.6290 28.3249 1.2397
77.6490 28.3116 1.2395
77.6690 28.2983 1.2409
77.6890 28.2850 1.2368
77.7090 28.2717 1.2344
77.7290 28.2583 1.2388
77.7490 28.2449 1.2377
77.7690 28.2316 1.2288
77.7890 28.2183 1.2340
77.8090 28.2049 1.2351
77.8290 28.1915 1.2277
77.8490 28.1782 1.2326
77.8690 28.1649 1.2270
77.8890 28.1516 1.2285
77.9090 28.1382 1.2323
77.9290 28.1249 1.2243
77.9490 28.1116 1.2241
77.9690 28.0982 1.2270
77.9890 28.0849 1.2211
78.0090 28.0716 1.2285
78.0290 28.0583 1.2235
78.0490 28.0450 1.2174
78.0690 28.0316 1.2253
78.0890 28.0183 1.2211
78.1090 28.0049 1.2148
78.1290 27.9916 1.2255
78.1490 27.9783 1.2155
78.1690 27.9649 1.2149
78.1890 27.9515 1.2219
78.2090 27.9382 1.2139
78.2290 27.9249 1.2150
78.2490 27.9116 1.2183
78.2690 27.8982 1.2109
78.2890 27.8849 1.2130
78.3090 27.8716 1.2175
78.3290 27.8583 1.2043
78.3490 27.8449 1.2141
78.3690 27.8316 1.2177
78.3890 27.8183 1.1992
78.4090 27.8050 1.2120
78.4290 27.7916 1.2120
78.4490 27.7783 1.1979
78.4690 27.7649 1.2128
78.4890 27.7516 1.2056
78.5090 27.7383 1.1998
78.5290 27.7249 1.2075
78.5490 27.7116 1.2084
78.5690 27.6983 1.1950
78.5890 27.6849 1.2024
78.6090 27.6716 1.2054
78.6290 27.6582 1.1949
78.6490 27.6449 1.2039
78.6690 27.6316 1.2011
78.6890 27.6183 1.1927
78.7090 27.6049 1.2000
78.7290 27.5916 1.1980
78.7490 27.5783 1.1964
78.7690 27.5650 1.1971
78.7890 27.5516 1.1982
78.8090 27.5383 1.1882
78.8290 27.5249 1.1918
78.8490 27.5116 1.1988
78.8690 27.4983 1.1871
78.8890 27.4849 1.1875
78.9090 27.4716 1.1938
78.9290 27.4582 1.1890
78.9490 27.4450 1.1870
78.9690 27.4316 1.1928
78.9890 27.4182 1.1873
79.0090 27.4049 1.1851
79.0290 27.3915 1.1894
79.0490 27.3782 1.1816
79.0690 27.3649 1.1853
79.0890 27.3516 1.1861
79.1090 27.3383 1.1761
79.1290 27.3250 1.1804
79.1490 27.3116 1.1834
79.1690 27.2983 1.1749
79.1890 27.2849 1.1808
79.2090 27.2716 1.1834
79.2290 27.2583 1.1682
79.2490 27.2450 1.1784
79.2690 27.2316 1.1795
79.2890 27.2182 1.1705
79.3090 27.2049 1.1761
79.3290 27.1916 1.1762
79.3490 27.1782 1.1669
79.3690 27.1648 1.1771
79.3890 27.1515 1.1729
79.4090 27.1382 1.1667
79.4290 27.1249 1.1754
79.4490 27.1116 1.1715
79.4690 27.0983 1.1644
79.4890 27.0850 1.1761
79.5090 27.0717 1.1696
79.5290 27.0583 1.1608
79.5490 27.0449 1.1692
79.5690 27.0316 1.1683
79.5890 27.0183 1.1598
79.6090 27.0049 1.1680
79.6290 26.9915 1.1613
79.6490 26.9782 1.1592
79.6690 26.9649 1.1691
79.6890 26.9516 1.1586
79.7090 26.9382 1.1575
79.7290 26.9249 1.1650
79.7490 26.9116 1.1553
79.7690 26.8983 1.1585
79.7890 26.8849 1.1623
79.8090 26.8716 1.1570
79.8290 26.8583 1.1552
79.8490 26.8450 1.1576
79.8690 26.8316 1.1550
79.8890 26.8183 1.1498
79.9090 26.8049 1.1584
79.9290 26.7916 1.1520
79.9490 26.7783 1.1478
79.9690 26.7649 1.1545
79.9890 26.7515 1.1543
80.0090 26.7382 1.1470
80.0290 26.7249 1.1520
80.0490 26.7116 1.1512
80.0690 26.6982 1.1444
80.0890 26.6849 1.1535
80.1090 26.6716 1.1478
80.1290 26.6583 1.1411
80.1490 26.6449 1.1496
80.1690 26.6316 1.1452
80.1890 26.6183 1.1368
80.2090 26.6050 1.1504
80.2290 26.5916 1.1432
80.2490 26.5783 1.1395
80.2690 26.5649 1.1462
80.2890 26.5516 1.1388
80.3090 26.5383 1.1394
80.3290 26.5249 1.1420
80.3490 26.5116 1.1353
80.3690 26.4982 1.1369
80.3890 26.4849 1.1436
80.4090 26.4716 1.1352
80.4290 26.4583 1.1353
80.4490 26.4449 1.1410
80.4690 26.4316 1.1319
80.4890 26.4183 1.1324
80.5090 26.4049 1.1352
80.5290 26.3916 1.1316
80.5490 26.3783 1.1328
80.5690 26.3650 1.1336
80.5890 26.3516 1.1272
80.6090 26.3383 1.1270
80.6290 26.3249 1.1317
80.6490 26.3116 1.1295
80.6690 26.2983 1.1291
80.6890 26.2849 1.1307
80.7090 26.2716 1.1239
80.7290 26.2582 1.1297
80.7490 26.2449 1.1236
80.7690 26.2316 1.1228
80.7890 26.2182 1.1259
80.8090 26.2049 1.1233
80.8290 26.1915 1.1189
80.8490 26.1782 1.1261
80.8690 26.1649 1.1195
80.8890 26.1516 1.1175
80.9090 26.1383 1.1261
80.9290 26.1250 1.1163
80.9490 26.1117 1.1141
80.9690 26.0983 1.1261
80.9890 26.0849 1.1123
81.0090 26.0716 1.1117
81.0290 26.0583 1.1227
81.0490 26.0449 1.1075
81.0690 26.0316 1.1100
81.0890 26.0182 1.1220
81.1090 26.0049 1.1061
81.1290 25.9916 1.1072
81.1490 25.9782 1.1202
81.1690 25.9649 1.1048
81.1890 25.9515 1.1125
81.2090 25.9382 1.1164
81.2290 25.9249 1.1023
81.2490 25.9116 1.1106
81.2690 25.8983 1.1121
81.2890 25.8850 1.1042
81.3090 25.8717 1.1067
81.3290 25.8583 1.1068
81.3490 25.8449 1.1024
81.3690 25.8316 1.1072
81.3890 25.8183 1.1022
81.4090 25.8049 1.0973
81.4290 25.7916 1.1056
81.4490 25.7782 1.1020
81.4690 25.7649 1.1004
81.4890 25.7516 1.0983
81.5090 25.7382 1.0984
81.5290 25.7248 1.0990
81.5490 25.7115 1.1001
81.5690 25.6983 1.0932
81.5890 25.6850 1.0979
81.6090 25.6716 1.1008
81.6290 25.6583 1.0942
81.6490 25.6450 1.0931
81.6690 25.6317 1.0954
81.6890 25.6183 1.0950
81.7090 25.6049 1.0905
81.7290 25.5916 1.0925
81.7490 25.5783 1.0932
81.7690 25.5649 1.0877
81.7890 25.5515 1.0900
81.8090 25.5382 1.0926
81.8290 25.5249 1.0826
81.8490 25.5116 1.0882
81.8690 25.4982 1.0883
81.8890 25.4849 1.0809
81.9090 25.4715 1.0908
81.9290 25.4582 1.0869
81.9490 25.4449 1.0757
81.9690 25.4316 1.0942
81.9890 25.4183 1.0867
82.0090 25.4050 1.0744
82.0290 25.3916 1.0926
82.0490 25.3783 1.0786
82.0690 25.3649 1.0737
82.0890 25.3516 1.0927
82.1090 25.3383 1.0787
82.1290 25.3249 1.0700
82.1490 25.3116 1.0859
82.1690 25.2982 1.0716
82.1890 25.2849 1.0726
82.2090 25.2716 1.0849
82.2290 25.2583 1.0687
82.2490 25.2449 1.0743
82.2690 25.2315 1.0797
82.2890 25.2182 1.0654
82.3090 25.2049 1.0772
82.3290 25.1915 1.0788
82.3490 25.1782 1.0629
82.3690 25.1649 1.0735
82.3890 25.1516 1.0748
82.4090 25.1383 1.0667
82.4290 25.1249 1.0684
82.4490 25.1116 1.0741
82.4690 25.0983 1.0603
82.4890 25.0850 1.0668
82.5090 25.0716 1.0708
82.5290 25.0582 1.0632
82.5490 25.0449 1.0633
82.5690 25.0316 1.0651
82.5890 25.0182 1.0601
82.6090 25.0049 1.0644
82.6290 24.9915 1.0637
82.6490 24.9782 1.0625
82.6690 24.9649 1.0620
82.6890 24.9516 1.0594
82.7090 24.9382 1.0614
82.7290 24.9249 1.0613
82.7490 24.9117 1.0565
82.7690 24.8983 1.0591
82.7890 24.8849 1.0591
82.8090 24.8716 1.0579
82.8290 24.8583 1.0558
82.8490 24.8450 1.0512
82.8690 24.8316 1.0561
82.8890 24.8182 1.0519
82.9090 24.8049 1.0528
82.9290 24.7916 1.0531
82.9490 24.7782 1.0441
82.9690 24.7649 1.0530
82.9890 24.7515 1.0543
83.0090 24.7382 1.0448
83.0290 24.7249 1.0538
83.0490 24.7115 1.0508
83.0690 24.6982 1.0484
83.0890 24.6849 1.0497
83.1090 24.6716 1.0477
83.1290 24.6583 1.0422
83.1490 24.6449 1.0495
83.1690 24.6316 1.0434
83.1890 24.6183 1.0428
83.2090 24.6049 1.0416
83.2290 24.5916 1.0420
83.2490 24.5782 1.0435
83.2690 24.5649 1.0438
83.2890 24.5516 1.0415
83.3090 24.5383 1.0383
83.3290 24.5249 1.0415
83.3490 24.5116 1.0415
83.3690 24.4982 1.0413
83.3890 24.4849 1.0371
83.4090 24.4716 1.0449
83.4290 24.4582 1.0356
83.4490 24.4449 1.0329
83.4690 24.4316 1.0403
83.4890 24.4183 1.0328
83.5090 24.4049 1.0381
83.5290 24.3916 1.0389
83.5490 24.3783 1.0281
83.5690 24.3650 1.0330
83.5890 24.3516 1.0352
83.6090 24.3382 1.0291
83.6290 24.3249 1.0311
83.6490 24.3116 1.0346
83.6690 24.2982 1.0224
83.6890 24.2849 1.0322
83.7090 24.2715 1.0343
83.7290 24.2582 1.0244
83.7490 24.2449 1.0325
83.7690 24.2316 1.0272
83.7890 24.2183 1.0237
83.8090 24.2050 1.0291
83.8290 24.1917 1.0226
83.8490 24.1783 1.0270
83.8690 24.1649 1.0236
83.8890 24.1516 1.0231
83.9090 24.1383 1.0252
83.9290 24.1249 1.0216
83.9490 24.1116 1.0226
83.9690 24.0982 1.0207
83.9890 24.0849 1.0188
84.0090 24.0716 1.0187
84.0290 24.0583 1.0175
84.0490 24.0449 1.0122
84.0690 24.0316 1.0200
84.0890 24.0183 1.0218
84.1090 24.0049 1.0123
84.1290 23.9916 1.0170
84.1490 23.9782 1.0203
84.1690 23.9649 1.0105
84.1890 23.9516 1.0206
84.2090 23.9383 1.0154
84.2290 23.9250 1.0115
84.2490 23.9116 1.0163
84.2690 23.8983 1.0117
84.2890 23.8850 1.0093
84.3090 23.8716 1.0178
84.3290 23.8582 1.0058
84.3490 23.8449 1.0090
84.3690 23.8316 1.0159
84.3890 23.8182 1.0006
84.4090 23.8049 1.0103
84.4290 23.7915 1.0119
84.4490 23.7782 0.9988
84.4690 23.7649 1.0122
84.4890 23.7516 1.0072
84.5090 23.7382 0.9951
84.5290 23.7249 1.0105
84.5490 23.7116 1.0088
84.5690 23.6983 0.9962
84.5890 23.6849 1.0115
84.6090 23.6716 1.0032
84.6290 23.6583 0.9969
84.6490 23.6450 1.0085
84.6690 23.6316 0.9978
84.6890 23.6182 0.9944
84.7090 23.6049 1.0054
84.7290 23.5916 0.9981
84.7490 23.5782 0.9943
84.7690 23.5649 1.0045
84.7890 23.5515 0.9974
84.8090 23.5382 0.9927
84.8290 23.5249 1.0034
84.8490 23.5116 0.9985
84.8690 23.4983 0.9902
84.8890 23.4849 1.0008
84.9090 23.4717 0.9915
84.9290 23.4583 0.9892
84.9490 23.4450 0.9987
84.9690 23.4316 0.9923
84.9890 23.4183 0.9882
85.0090 23.4050 0.9946
85.0290 23.3916 0.9896
85.0490 23.3782 0.9881
85.0690 23.3649 0.9914
85.0890 23.3516 0.9889
85.1090 23.3382 0.9811
85.1290 23.3249 0.9870
85.1490 23.3115 0.9914
85.1690 23.2982 0.9833
85.1890 23.2849 0.9792
85.2090 23.2716 0.9919
85.2290 23.2582 0.9788
85.2490 23.2449 0.9818
85.2690 23.2316 0.9889
85.2890 23.2183 0.9792
85.3090 23.2050 0.9772
85.3290 23.1916 0.9870
85.3490 23.1783 0.9756
85.3690 23.1650 0.9781
85.3890 23.1516 0.9843
85.4090 23.1382 0.9743
85.4290 23.1249 0.9763
85.4490 23.1115 0.9835
85.4690 23.0982 0.9692
85.4890 23.0849 0.9763
85.5090 23.0715 0.9799
85.5290 23.0582 0.9697
85.5490 23.0449 0.9753
85.5690 23.0316 0.9741
85.5890 23.0182 0.9680
85.6090 23.0049 0.9726
85.6290 22.9916 0.9735
85.6490 22.9783 0.9661
85.6690 22.9649 0.9704
85.6890 22.9516 0.9720
85.7090 22.9383 0.9683
85.7290 22.9250 0.9652
85.7490 22.9116 0.9728
85.7690 22.8983 0.9669
85.7890 22.8849 0.9645
85.8090 22.8716 0.9708
85.8290 22.8583 0.9636
85.8490 22.8449 0.9622
85.8690 22.8315 0.9690
85.8890 22.8182 0.9600
85.9090 22.8049 0.9620
85.9290 22.7916 0.9663
85.9490 22.7782 0.9581
85.9690 22.7649 0.9607
85.9890 22.7516 0.9631
86.0090 22.7383 0.9563
86.0290 22.7249 0.9594
86.0490 22.7116 0.9657
86.0690 22.6983 0.9589
86.0890 22.6850 0.9530
86.1090 22.6716 0.9597
86.1290 22.6583 0.9564
86.1490 22.6449 0.9515
86.1690 22.6316 0.9647
86.1890 22.6183 0.9517
86.2090 22.6049 0.9487
86.2290 22.5916 0.9637
86.2490 22.5782 0.9533
86.2690 22.5649 0.9481
86.2890 22.5516 0.9594
86.3090 22.5382 0.9488
86.3290 22.5249 0.9456
86.3490 22.5116 0.9597
86.3690 22.4983 0.9446
86.3890 22.4850 0.9452
86.4090 22.4716 0.9606
86.4290 22.4583 0.9412
86.4490 22.4450 0.9426
86.4690 22.4316 0.9564
86.4890 22.4183 0.9419
86.5090 22.4049 0.9453
86.5290 22.3916 0.9538
86.5490 22.3782 0.9374
86.5690 22.3649 0.9438
86.5890 22.3515 0.9534
86.6090 22.3382 0.9383
86.6290 22.3249 0.9424
86.6490 22.3116 0.9502
86.6690 22.2983 0.9342
86.6890 22.2849 0.9452
86.7090 22.2716 0.9465
86.7290 22.2583 0.9356
86.7490 22.2450 0.9426
86.7690 22.2316 0.9462
86.7890 22.2183 0.9338
86.8090 22.2049 0.9390
86.8290 22.1916 0.9386
86.8490 22.1782 0.9332
86.8690 22.1649 0.9422
86.8890 22.1515 0.9380
86.9090 22.1383 0.9301
86.9290 22.1249 0.9375
86.9490 22.1115 0.9355
86.9690 22.0982 0.9310
86.9890 22.0849 0.9334
87.0090 22.0716 0.9296
87.0290 22.0583 0.9289
87.0490 22.0449 0.9291
87.0690 22.0316 0.9318
87.0890 22.0183 0.9313
87.1090 22.0050 0.9266
87.1290 21.9916 0.9319
87.1490 21.9782 0.9295
87.1690 21.9649 0.9249
87.1890 21.9516 0.9284
87.2090 21.9382 0.9239
87.2290 21.9248 0.9189
87.2490 21.9115 0.9296
87.2690 21.8983 0.9271
87.2890 21.8849 0.9177
87.3090 21.8716 0.9278
87.3290 21.8582 0.9225
87.3490 21.8449 0.9180
87.3690 21.8316 0.9265
87.3890 21.8183 0.9207
87.4090 21.8049 0.9186
87.4290 21.7916 0.9248
87.4490 21.7783 0.9174
87.4690 21.7650 0.9172
87.4890 21.7516 0.9239
87.5090 21.7382 0.9104
87.5290 21.7249 0.9203
87.5490 21.7116 0.9214
87.5690 21.6982 0.9052
87.5890 21.6849 0.9192
87.6090 21.6715 0.9194
87.6290 21.6582 0.9063
87.6490 21.6449 0.9155
87.6690 21.6316 0.9157
87.6890 21.6182 0.9083
87.7090 21.6049 0.9143
87.7290 21.5916 0.9134
87.7490 21.5783 0.9051
87.7690 21.5649 0.9157
87.7890 21.5516 0.9150
87.8090 21.5383 0.9043
87.8290 21.5250 0.9098
87.8490 21.5116 0.9123
87.8690 21.4982 0.9041
87.8890 21.4849 0.9088
87.9090 21.4716 0.9060
87.9290 21.4583 0.9032
87.9490 21.4449 0.9084
87.9690 21.4316 0.9055
87.9890 21.4183 0.9016
88.0090 21.4049 0.9019
88.0290 21.3916 0.9033
88.0490 21.3782 0.9028
88.0690 21.3649 0.9026
88.0890 21.3516 0.9016
88.1090 21.3383 0.8948
88.1290 21.3249 0.9026
88.1490 21.3116 0.9009
88.1690 21.2983 0.8949
88.1890 21.2850 0.8999
88.2090 21.2716 0.9013
88.2290 21.2583 0.8942
88.2490 21.2450 0.8969
88.2690 21.2316 0.8977
88.2890 21.2183 0.8892
88.3090 21.2049 0.8978
88.3290 21.1915 0.8968
88.3490 21.1782 0.8872
88.3690 21.1649 0.8919
88.3890 21.1515 0.8919
88.4090 21.1382 0.8911
88.4290 21.1249 0.8923
88.4490 21.1116 0.8856
88.4690 21.0982 0.8893
88.4890 21.0849 0.8919
88.5090 21.0716 0.8854
88.5290 21.0583 0.8896
88.5490 21.0450 0.8919
88.5690 21.0316 0.8838
88.5890 21.0183 0.8905
88.6090 21.0050 0.8902
88.6290 20.9917 0.8803
88.6490 20.9783 0.8869
88.6690 20.9649 0.8887
88.6890 20.9515 0.8800
88.7090 20.9382 0.8890
88.7290 20.9249 0.8839
88.7490 20.9115 0.8789
88.7690 20.8982 0.8852
88.7890 20.8849 0.8815
88.8090 20.8716 0.8768
88.8290 20.8583 0.8887
88.8490 20.8449 0.8736
88.8690 20.8316 0.8714
88.8890 20.8183 0.8953
88.9090 20.8050 0.8740
88.9290 20.7916 0.8714
88.9490 20.7783 0.8921
88.9690 20.7649 0.8770
88.9890 20.7516 0.8690
89.0090 20.7383 0.8832
89.0290 20.7249 0.8687
89.0490 20.7116 0.8705
89.0690 20.6983 0.8819
89.0890 20.6849 0.8698
89.1090 20.6716 0.8711
89.1290 20.6582 0.8761
89.1490 20.6449 0.8719
89.1690 20.6316 0.8691
89.1890 20.6183 0.8745
89.2090 20.6049 0.8731
89.2290 20.5916 0.8674
89.2490 20.5783 0.8728
89.2690 20.5650 0.8696
89.2890 20.5516 0.8645
89.3090 20.5383 0.8702
89.3290 20.5249 0.8661
89.3490 20.5116 0.8631
89.3690 20.4983 0.8709
89.3890 20.4849 0.8664
89.4090 20.4715 0.8596
89.4290 20.4582 0.8677
89.4490 20.4449 0.8649
89.4690 20.4316 0.8615
89.4890 20.4182 0.8677
89.5090 20.4049 0.8630
89.5290 20.3916 0.8572
89.5490 20.3782 0.8645
89.5690 20.3649 0.8633
89.5890 20.3516 0.8591
89.6090 20.3383 0.8672
89.6290 20.3250 0.8585
89.6490 20.3116 0.8574
89.6690 20.2983 0.8624
89.6890 20.2849 0.8551
89.7090 20.2717 0.8563
89.7290 20.2583 0.8585
89.7490 20.2449 0.8536
89.7690 20.2316 0.8560
89.7890 20.2183 0.8589
89.8090 20.2049 0.8515
89.8290 20.1916 0.8529
89.8490 20.1782 0.8574
89.8690 20.1649 0.8496
89.8890 20.1516 0.8520
89.9090 20.1383 0.8535
89.9290 20.1249 0.8476
89.9490 20.1116 0.8533
89.9690 20.0983 0.8529
89.9890 20.0850 0.8488
90.0090 20.0716 0.8481
90.0290 20.0582 0.8522
90.0490 20.0449 0.8504
90.0690 20.0316 0.8448
90.0890 20.0183 0.8449
90.1090 20.0049 0.8451
90.1290 19.9915 0.8465
90.1490 19.9782 0.8478
90.1690 19.9649 0.8441
90.1890 19.9516 0.8466
90.2090 19.9382 0.8469
90.2290 19.9249 0.8439
90.2490 19.9116 0.8403
90.2690 19.8982 0.8471
90.2890 19.8849 0.8417
90.3090 19.8716 0.8397
90.3290 19.8583 0.8430
90.3490 19.8450 0.8391
90.3690 19.8316 0.8418
90.3890 19.8183 0.8372
90.4090 19.8049 0.8396
90.4290 19.7916 0.8377
90.4490 19.7783 0.8373
90.4690 19.7649 0.8365
90.4890 19.7515 0.8405
90.5090 19.7382 0.8378
90.5290 19.7249 0.8375
90.5490 19.7116 0.8331
90.5690 19.6982 0.8354
90.5890 19.6849 0.8391
90.6090 19.6716 0.8293
90.6290 19.6583 0.8284
90.6490 19.6449 0.8400
90.6690 19.6316 0.8299
90.6890 19.6183 0.8315
90.7090 19.6050 0.8364
90.7290 19.5916 0.8257
90.7490 19.5783 0.8338
90.7690 19.5649 0.8342
90.7890 19.5516 0.8224
90.8090 19.5383 0.8281
90.8290 19.5249 0.8323
90.8490 19.5115 0.8188
90.8690 19.4982 0.8316
90.8890 19.4849 0.8323
90.9090 19.4715 0.8172
90.9290 19.4582 0.8311
90.9490 19.4449 0.8264
90.9690 19.4316 0.8226
90.9890 19.4183 0.8290
91.0090 19.4049 0.8215
91.0290 19.3916 0.8224
91.0490 19.3783 0.8273
91.0690 19.3650 0.8175
91.0890 19.3516 0.8177
91.1090 19.3382 0.8260
91.1290 19.3249 0.8199
91.1490 19.3116 0.8171
91.1690 19.2982 0.8283
91.1890 19.2849 0.8161
91.2090 19.2716 0.8207
91.2290 19.2583 0.8258
91.2490 19.2450 0.8124
91.2690 19.2316 0.8183
91.2890 19.2182 0.8217
91.3090 19.2049 0.8140
91.3290 19.1916 0.8161
91.3490 19.1782 0.8201
91.3690 19.1649 0.8158
91.3890 19.1515 0.8141
91.4090 19.1383 0.8139
91.4290 19.1250 0.8141
91.4490 19.1116 0.8127
91.4690 19.0983 0.8122
91.4890 19.0849 0.8159
91.5090 19.0716 0.8091
91.5290 19.0583 0.8116
91.5490 19.0449 0.8109
91.5690 19.0316 0.8104
91.5890 19.0182 0.8083
91.6090 19.0049 0.8074
91.6290 18.9916 0.8086
91.6490 18.9782 0.8064
91.6690 18.9649 0.8074
91.6890 18.9516 0.8049
91.7090 18.9383 0.8069
91.7290 18.9249 0.8080
91.7490 18.9116 0.8019
91.7690 18.8983 0.8066
91.7890 18.8849 0.8023
91.8090 18.8716 0.8005
91.8290 18.8582 0.8058
91.8490 18.8449 0.7979
91.8690 18.8316 0.7983
91.8890 18.8183 0.8016
91.9090 18.8049 0.7980
91.9290 18.7915 0.7998
91.9490 18.7782 0.8039
91.9690 18.7649 0.7959
91.9890 18.7516 0.7977
92.0090 18.7382 0.7982
92.0290 18.7248 0.7928
92.0490 18.7116 0.8014
92.0690 18.6983 0.7997
92.0890 18.6849 0.7881
92.1090 18.6716 0.7985
92.1290 18.6583 0.7962
92.1490 18.6450 0.7839
92.1690 18.6316 0.7995
92.1890 18.6183 0.7965
92.2090 18.6049 0.7851
92.2290 18.5916 0.7957
92.2490 18.5783 0.7964
92.2690 18.5649 0.7824
92.2890 18.5515 0.7975
92.3090 18.5382 0.7938
92.3290 18.5249 0.7801
92.3490 18.5116 0.7960
92.3690 18.4982 0.7865
92.3890 18.4849 0.7775
92.4090 18.4716 0.7990
92.4290 18.4582 0.7837
92.4490 18.4449 0.7771
92.4690 18.4316 0.7960
92.4890 18.4183 0.7828
92.5090 18.4050 0.7784
92.5290 18.3916 0.7929
92.5490 18.3783 0.7800
92.5690 18.3649 0.7809
92.5890 18.3516 0.7878
92.6090 18.3383 0.7711
92.6290 18.3249 0.7780
92.6490 18.3115 0.7909
92.6690 18.2982 0.7745
92.6890 18.2849 0.7802
92.7090 18.2716 0.7829
92.7290 18.2582 0.7771
92.7490 18.2449 0.7788
92.7690 18.2316 0.7808
92.7890 18.2183 0.7738
92.8090 18.2049 0.7748
92.8290 18.1916 0.7807
92.8490 18.1783 0.7711
92.8690 18.1650 0.7734
92.8890 18.1516 0.7749
92.9090 18.1383 0.7726
92.9290 18.1249 0.7751
92.9490 18.1116 0.7719
92.9690 18.0983 0.7713
92.9890 18.0850 0.7723
93.0090 18.0716 0.7715
93.0290 18.0582 0.7721
93.0490 18.0449 0.7703
93.0690 18.0316 0.7717
93.0890 18.0182 0.7676
93.1090 18.0049 0.7704
93.1290 17.9916 0.7696
93.1490 17.9782 0.7654
93.1690 17.9649 0.7688
93.1890 17.9516 0.7692
93.2090 17.9383 0.7659
93.2290 17.9250 0.7665
93.2490 17.9116 0.7679
93.2690 17.8983 0.7645
93.2890 17.8849 0.7626
93.3090 17.8716 0.7673
93.3290 17.8583 0.7623
93.3490 17.8449 0.7619
93.3690 17.8316 0.7660
93.3890 17.8183 0.7630
93.4090 17.8050 0.7575
93.4290 17.7916 0.7629
93.4490 17.7782 0.7573
93.4690 17.7649 0.7587
93.4890 17.7515 0.7690
93.5090 17.7382 0.7578
93.5290 17.7249 0.7579
93.5490 17.7115 0.7665
93.5690 17.6982 0.7558
93.5890 17.6850 0.7562
93.6090 17.6716 0.7611
93.6290 17.6583 0.7571
93.6490 17.6449 0.7580
93.6690 17.6317 0.7543
93.6890 17.6183 0.7514
93.7090 17.6050 0.7548
93.7290 17.5916 0.7552
93.7490 17.5782 0.7536
93.7690 17.5649 0.7529
93.7890 17.5516 0.7520
93.8090 17.5382 0.7567
93.8290 17.5248 0.7496
93.8490 17.5115 0.7498
93.8690 17.4982 0.7558
93.8890 17.4849 0.7439
93.9090 17.4716 0.7489
93.9290 17.4583 0.7546
93.9490 17.4450 0.7465
93.9690 17.4316 0.7512
93.9890 17.4183 0.7491
94.0090 17.4049 0.7396
94.0290 17.3916 0.7499
94.0490 17.3783 0.7425
94.0690 17.3649 0.7416
94.0890 17.3515 0.7482
94.1090 17.3382 0.7423
94.1290 17.3249 0.7442
94.1490 17.3116 0.7497
94.1690 17.2982 0.7408
94.1890 17.2849 0.7401
94.2090 17.2716 0.7502
94.2290 17.2582 0.7351
94.2490 17.2449 0.7366
94.2690 17.2316 0.7510
94.2890 17.2183 0.7357
94.3090 17.2050 0.7343
94.3290 17.1917 0.7423
94.3490 17.1783 0.7328
94.3690 17.1649 0.7384
94.3890 17.1516 0.7461
94.4090 17.1383 0.7301
94.4290 17.1249 0.7340
94.4490 17.1116 0.7430
94.4690 17.0982 0.7299
94.4890 17.0849 0.7337
94.5090 17.0716 0.7386
94.5290 17.0582 0.7293
94.5490 17.0449 0.7365
94.5690 17.0316 0.7318
94.5890 17.0183 0.7349
94.6090 17.0049 0.7389
94.6290 16.9916 0.7282
94.6490 16.9783 0.7301
94.6690 16.9650 0.7346
94.6890 16.9517 0.7265
94.7090 16.9383 0.7299
94.7290 16.9249 0.7261
94.7490 16.9116 0.7239
94.7690 16.8983 0.7290
94.7890 16.8849 0.7271
94.8090 16.8716 0.7229
94.8290 16.8582 0.7283
94.8490 16.8449 0.7235
94.8690 16.8316 0.7230
94.8890 16.8182 0.7255
94.9090 16.8049 0.7249
94.9290 16.7916 0.7270
94.9490 16.7783 0.7255
94.9690 16.7649 0.7170
94.9890 16.7516 0.7239
95.0090 16.7383 0.7264
95.0290 16.7250 0.7138
95.0490 16.7116 0.7256
95.0690 16.6983 0.7235
95.0890 16.6849 0.7149
95.1090 16.6716 0.7277
95.1290 16.6583 0.7192
95.1490 16.6449 0.7143
95.1690 16.6316 0.7273
95.1890 16.6182 0.7140
95.2090 16.6049 0.7122
95.2290 16.5916 0.7213
95.2490 16.5782 0.7128
95.2690 16.5648 0.7164
95.2890 16.5515 0.7222
95.3090 16.5382 0.7088
95.3290 16.5249 0.7134
95.3490 16.5116 0.7207
95.3690 16.4983 0.7105
95.3890 16.4850 0.7143
95.4090 16.4717 0.7139
95.4290 16.4583 0.7088
95.4490 16.4449 0.7143
95.4690 16.4316 0.7121
95.4890 16.4183 0.7075
95.5090 16.4050 0.7126
95.5290 16.3916 0.7118
95.5490 16.3782 0.7045
95.5690 16.3649 0.7160
95.5890 16.3516 0.7057
95.6090 16.3382 0.7038
95.6290 16.3249 0.7090
95.6490 16.3116 0.7051
95.6690 16.2982 0.7068
95.6890 16.2849 0.7075
95.7090 16.2716 0.7032
95.7290 16.2582 0.7018
95.7490 16.2450 0.7086
95.7690 16.2316 0.6997
95.7890 16.2183 0.7015
95.8090 16.2050 0.7075
95.8290 16.1916 0.6997
95.8490 16.1783 0.6983
95.8690 16.1650 0.7021
95.8890 16.1516 0.6990
95.9090 16.1382 0.7018
95.9290 16.1249 0.7023
95.9490 16.1115 0.6980
95.9690 16.0982 0.6951
95.9890 16.0849 0.7058
96.0090 16.0715 0.6949
96.0290 16.0582 0.6965
96.0490 16.0449 0.7004
96.0690 16.0316 0.6933
96.0890 16.0183 0.6962
96.1090 16.0050 0.7012
96.1290 15.9917 0.6893
96.1490 15.9783 0.6931
96.1690 15.9649 0.6951
96.1890 15.9516 0.6866
96.2090 15.9383 0.6918
96.2290 15.9249 0.6968
96.2490 15.9116 0.6783
96.2690 15.8982 0.6949
96.2890 15.8849 0.6967
96.3090 15.8716 0.6763
96.3290 15.8583 0.6934
96.3490 15.8449 0.6954
96.3690 15.8315 0.6811
96.3890 15.8182 0.6905
96.4090 15.8049 0.6915
96.4290 15.7916 0.6820
96.4490 15.7782 0.6907
96.4690 15.7649 0.6882
96.4890 15.7516 0.6771
96.5090 15.7383 0.6921
96.5290 15.7249 0.6858
96.5490 15.7116 0.6795
96.5690 15.6983 0.6886
96.5890 15.6849 0.6774
96.6090 15.6716 0.6817
96.6290 15.6582 0.6857
96.6490 15.6449 0.6777
96.6690 15.6316 0.6787
96.6890 15.6183 0.6806
96.7090 15.6049 0.6789
96.7290 15.5915 0.6815
96.7490 15.5782 0.6814
96.7690 15.5649 0.6740
96.7890 15.5516 0.6738
96.8090 15.5382 0.6807
96.8290 15.5249 0.6789
96.8490 15.5116 0.6707
96.8690 15.4983 0.6762
96.8890 15.4849 0.6806
96.9090 15.4716 0.6696
96.9290 15.4583 0.6811
96.9490 15.4450 0.6766
96.9690 15.4316 0.6639
96.9890 15.4182 0.6784
97.0090 15.4049 0.6740
97.0290 15.3916 0.6654
97.0490 15.3783 0.6792
97.0690 15.3649 0.6715
97.0890 15.3516 0.6640
97.1090 15.3382 0.6771
97.1290 15.3249 0.6715
97.1490 15.3116 0.6650
97.1690 15.2983 0.6744
97.1890 15.2850 0.6659
97.2090 15.2717 0.6650
97.2290 15.2583 0.6723
97.2490 15.2449 0.6668
97.2690 15.2316 0.6687
97.2890 15.2183 0.6663
97.3090 15.2050 0.6631
97.3290 15.1916 0.6640
97.3490 15.1782 0.6659
97.3690 15.1649 0.6647
97.3890 15.1516 0.6628
97.4090 15.1383 0.6619
97.4290 15.1249 0.6621
97.4490 15.1115 0.6639
97.4690 15.0982 0.6607
97.4890 15.0849 0.6561
97.5090 15.0716 0.6637
97.5290 15.0582 0.6586
97.5490 15.0449 0.6610
97.5690 15.0317 0.6591
97.5890 15.0183 0.6537
97.6090 15.0050 0.6624
97.6290 14.9916 0.6559
97.6490 14.9782 0.6538
97.6690 14.9649 0.6611
97.6890 14.9515 0.6521
97.7090 14.9382 0.6504
97.7290 14.9248 0.6647
97.7490 14.9116 0.6485
97.7690 14.8982 0.6497
97.7890 14.8849 0.6652
97.8090 14.8716 0.6469
97.8290 14.8582 0.6518
97.8490 14.8449 0.6603
97.8690 14.8316 0.6425
97.8890 14.8183 0.6525
97.9090 14.8049 0.6591
97.9290 14.7916 0.6429
97.9490 14.7783 0.6524
97.9690 14.7650 0.6545
97.9890 14.7516 0.6405
98.0090 14.7383 0.6500
98.0290 14.7250 0.6492
98.0490 14.7117 0.6437
98.0690 14.6982 0.6503
98.0890 14.6848 0.6469
98.1090 14.6715 0.6440
98.1290 14.6582 0.6487
98.1490 14.6448 0.6435
98.1690 14.6315 0.6450
98.1890 14.6182 0.6401
98.2090 14.6049 0.6459
98.2290 14.5916 0.6429
98.2490 14.5783 0.6448
98.2690 14.5650 0.6423
98.2890 14.5517 0.6419
98.3090 14.5383 0.6414
98.3290 14.5249 0.6392
98.3490 14.5116 0.6414
98.3690 14.4982 0.6369
98.3890 14.4849 0.6393
98.4090 14.4716 0.6388
98.4290 14.4582 0.6370
98.4490 14.4449 0.6396
98.4690 14.4316 0.6342
98.4890 14.4183 0.6355
98.5090 14.4049 0.6384
98.5290 14.3915 0.6400
98.5490 14.3782 0.6336
98.5690 14.3649 0.6384
98.5890 14.3516 0.6343
98.6090 14.3382 0.6310
98.6290 14.3249 0.6370
98.6490 14.3116 0.6329
98.6690 14.2983 0.6324
98.6890 14.2850 0.6372
98.7090 14.2716 0.6291
98.7290 14.2583 0.6309
98.7490 14.2450 0.6332
98.7690 14.2316 0.6242
98.7890 14.2182 0.6350
98.8090 14.2049 0.6281
98.8290 14.1916 0.6245
98.8490 14.1783 0.6291
98.8690 14.1649 0.6265
98.8890 14.1515 0.6234
98.9090 14.1382 0.6291
98.9290 14.1249 0.6250
98.9490 14.1116 0.6231
98.9690 14.0982 0.6244
98.9890 14.0849 0.6210
99.0090 14.0716 0.6211
99.0290 14.0583 0.6271
99.0490 14.0449 0.6194
99.0690 14.0316 0.6204
99.0890 14.0183 0.6208
99.1090 14.0050 0.6169
99.1290 13.9916 0.6223
99.1490 13.9782 0.6181
99.1690 13.9649 0.6185
99.1890 13.9515 0.6195
99.2090 13.9382 0.6141
99.2290 13.9249 0.6194
99.2490 13.9115 0.6167
99.2690 13.8982 0.6141
99.2890 13.8849 0.6152
99.3090 13.8716 0.6145
99.3290 13.8583 0.6143
99.3490 13.8450 0.6191
99.3690 13.8317 0.6104
99.3890 13.8183 0.6080
99.4090 13.8050 0.6153
99.4290 13.7916 0.6089
99.4490 13.7783 0.6117
99.4690 13.7649 0.6127
99.4890 13.7516 0.6071
99.5090 13.7382 0.6079
99.5290 13.7249 0.6100
99.5490 13.7116 0.6073
99.5690 13.6982 0.6120
99.5890 13.6849 0.6076
99.6090 13.6715 0.6036
99.6290 13.6582 0.6093
99.6490 13.6449 0.6061
99.6690 13.6316 0.6069
99.6890 13.6183 0.6097
99.7090 13.6049 0.6063
99.7290 13.5916 0.6019
99.7490 13.5783 0.6053
99.7690 13.5650 0.6071
99.7890 13.5516 0.6022
99.8090 13.5383 0.6053
99.8290 13.5250 0.5992
99.8490 13.5116 0.5969
99.8690 13.4982 0.6054
99.8890 13.4849 0.5987
99.9090 13.4715 0.5947
99.9290 13.4582 0.6064
99.9490 13.4449 0.5957
99.9690 13.4315 0.5993
99.9890 13.4182 0.6036
100.0090 13.4049 0.5934
100.0290 13.3916 0.5914
100.0490 13.3782 0.6007
100.0690 13.3649 0.5905
100.0890 13.3516 0.5910
100.1090 13.3383 0.6034
100.1290 13.3249 0.5905
100.1490 13.3116 0.5906
100.1690 13.2983 0.5981
100.1890 13.2850 0.5871
100.2090 13.2716 0.5896
100.2290 13.2583 0.5962
100.2490 13.2449 0.5858
100.2690 13.2316 0.5898
100.2890 13.2183 0.5913
100.3090 13.2049 0.5857
100.3290 13.1915 0.5872
100.3490 13.1782 0.5921
100.3690 13.1649 0.5840
100.3890 13.1516 0.5858
100.4090 13.1382 0.5935
100.4290 13.1249 0.5827
100.4490 13.1116 0.5845
100.4690 13.0983 0.5906
100.4890 13.0850 0.5777
100.5090 13.0716 0.5855
100.5290 13.0583 0.5863
100.5490 13.0449 0.5743
100.5690 13.0316 0.5792
100.5890 13.0182 0.5884
100.6090 13.0049 0.5706
100.6290 12.9916 0.5823
100.6490 12.9783 0.5854
100.6690 12.9649 0.5688
100.6890 12.9515 0.5828
100.7090 12.9382 0.5858
100.7290 12.9249 0.5687
100.7490 12.9116 0.5777
100.7690 12.8982 0.5818
100.7890 12.8849 0.5713
100.8090 12.8716 0.5789
100.8290 12.8583 0.5790
100.8490 12.8450 0.5693
100.8690 12.8316 0.5777
100.8890 12.8183 0.5757
100.9090 12.8050 0.5663
100.9290 12.7916 0.5728
100.9490 12.7783 0.5743
100.9690 12.7649 0.5688
100.9890 12.7516 0.5722
101.0090 12.7382 0.5739
101.0290 12.7249 0.5610
101.0490 12.7115 0.5708
101.0690 12.6982 0.5785
101.0890 12.6849 0.5608
101.1090 12.6716 0.5676
101.1290 12.6583 0.5751
101.1490 12.6449 0.5582
101.1690 12.6316 0.5663
101.1890 12.6183 0.5686
101.2090 12.6050 0.5564
101.2290 12.5916 0.5689
101.2490 12.5783 0.5675
101.2690 12.5650 0.5544
101.2890 12.5516 0.5659
101.3090 12.5383 0.5618
101.3290 12.5249 0.5558
101.3490 12.5115 0.5690
101.3690 12.4982 0.5597
101.3890 12.4849 0.5494
101.4090 12.4715 0.5715
101.4290 12.4582 0.5585
101.4490 12.4449 0.5549
101.4690 12.4316 0.5608
101.4890 12.4183 0.5579
101.5090 12.4049 0.5548
101.5290 12.3916 0.5662
101.5490 12.3783 0.5531
101.5690 12.3650 0.5512
101.5890 12.3516 0.5640
101.6090 12.3383 0.5512
101.6290 12.3249 0.5556
101.6490 12.3116 0.5605
101.6690 12.2982 0.5489
101.6890 12.2849 0.5539
101.7090 12.2716 0.5578
101.7290 12.2583 0.5486
101.7490 12.2449 0.5558
101.7690 12.2316 0.5521
101.7890 12.2182 0.5497
101.8090 12.2049 0.5546
101.8290 12.1916 0.5523
101.8490 12.1783 0.5413
101.8690 12.1649 0.5535
101.8890 12.1516 0.5463
101.9090 12.1383 0.5433
101.9290 12.1250 0.5517
101.9490 12.1116 0.5437
101.9690 12.0982 0.5448
101.9890 12.0849 0.5480
102.0090 12.0716 0.5364
102.0290 12.0582 0.5429
102.0490 12.0449 0.5448
102.0690 12.0315 0.5420
102.0890 12.0182 0.5430
102.1090 12.0049 0.5373
102.1290 11.9916 0.5381
102.1490 11.9782 0.5439
102.1690 11.9649 0.5364
102.1890 11.9516 0.5327
102.2090 11.9383 0.5448
102.2290 11.9249 0.5373
102.2490 11.9116 0.5352
102.2690 11.8983 0.5427
102.2890 11.8850 0.5322
102.3090 11.8716 0.5357
102.3290 11.8582 0.5379
102.3490 11.8449 0.5323
102.3690 11.8316 0.5347
102.3890 11.8183 0.5357
102.4090 11.8049 0.5293
102.4290 11.7916 0.5346
102.4490 11.7783 0.5360
102.4690 11.7649 0.5253
102.4890 11.7516 0.5318
102.5090 11.7382 0.5347
102.5290 11.7249 0.5284
102.5490 11.7116 0.5288
102.5690 11.6983 0.5285
102.5890 11.6849 0.5294
102.6090 11.6716 0.5310
102.6290 11.6583 0.5250
102.6490 11.6450 0.5255
102.6690 11.6316 0.5276
102.6890 11.6183 0.5289
102.7090 11.6049 0.5242
102.7290 11.5916 0.5263
102.7490 11.5783 0.5228
102.7690 11.5649 0.5251
102.7890 11.5515 0.5238
102.8090 11.5382 0.5238
102.8290 11.5249 0.5208
102.8490 11.5116 0.5199
102.8690 11.4982 0.5250
102.8890 11.4849 0.5188
102.9090 11.4716 0.5167
102.9290 11.4582 0.5259
102.9490 11.4449 0.5163
102.9690 11.4316 0.5171
102.9890 11.4183 0.5198
103.0090 11.4050 0.5168
103.0290 11.3916 0.5152
103.0490 11.3783 0.5157
103.0690 11.3650 0.5155
103.0890 11.3516 0.5085
103.1090 11.3383 0.5173
103.1290 11.3249 0.5170
103.1490 11.3115 0.5076
103.1690 11.2982 0.5174
103.1890 11.2849 0.5115
103.2090 11.2715 0.5052
103.2290 11.2582 0.5162
103.2490 11.2449 0.5144
103.2690 11.2316 0.5054
103.2890 11.2183 0.5080
103.3090 11.2050 0.5113
103.3290 11.1916 0.5057
103.3490 11.1783 0.5085
103.3690 11.1650 0.5045
103.3890 11.1516 0.5030
103.4090 11.1383 0.5048
103.4290 11.1249 0.5061
103.4490 11.1116 0.5017
103.4690 11.0983 0.5035
103.4890 11.0849 0.5052
103.5090 11.0715 0.5021
103.5290 11.0582 0.5030
103.5490 11.0449 0.5053
103.5690 11.0316 0.4958
103.5890 11.0182 0.4991
103.6090 11.0049 0.5037
103.6290 10.9916 0.4942
103.6490 10.9783 0.4945
103.6690 10.9649 0.5055
103.6890 10.9516 0.4948
103.7090 10.9383 0.4949
103.7290 10.9250 0.4979
103.7490 10.9116 0.4930
103.7690 10.8983 0.4965
103.7890 10.8849 0.4982
103.8090 10.8716 0.4915
103.8290 10.8583 0.4918
103.8490 10.8449 0.4988
103.8690 10.8315 0.4908
103.8890 10.8182 0.4904
103.9090 10.8049 0.4961
103.9290 10.7916 0.4848
103.9490 10.7782 0.4907
103.9690 10.7649 0.4907
103.9890 10.7516 0.4855
104.0090 10.7383 0.4912
104.0290 10.7249 0.4874
104.0490 10.7116 0.4830
104.0690 10.6983 0.4859
104.0890 10.6850 0.4878
104.1090 10.6716 0.4783
104.1290 10.6583 0.4866
104.1490 10.6449 0.4875
104.1690 10.6316 0.4771
104.1890 10.6183 0.4853
104.2090 10.6049 0.4859
104.2290 10.5916 0.4768
104.2490 10.5783 0.4852
104.2690 10.5649 0.4809
104.2890 10.5516 0.4780
104.3090 10.5382 0.4804
104.3290 10.5249 0.4788
104.3490 10.5116 0.4753
104.3690 10.4982 0.4814
104.3890 10.4849 0.4787
104.4090 10.4716 0.4746
104.4290 10.4583 0.4791
104.4490 10.4450 0.4732
104.4690 10.4316 0.4745
104.4890 10.4183 0.4753
104.5090 10.4049 0.4766
104.5290 10.3916 0.4728
104.5490 10.3783 0.4692
104.5690 10.3649 0.4727
104.5890 10.3515 0.4720
104.6090 10.3382 0.4707
104.6290 10.3249 0.4702
104.6490 10.3116 0.4695
104.6690 10.2982 0.4642
104.6890 10.2849 0.4736
104.7090 10.2715 0.4680
104.7290 10.2582 0.4608
104.7490 10.2449 0.4745
104.7690 10.2316 0.4641
104.7890 10.2183 0.4584
104.8090 10.2050 0.4716
104.8290 10.1916 0.4647
104.8490 10.1783 0.4590
104.8690 10.1649 0.4720
104.8890 10.1516 0.4575
104.9090 10.1383 0.4586
104.9290 10.1249 0.4711
104.9490 10.1115 0.4590
104.9690 10.0982 0.4541
104.9890 10.0849 0.4713
105.0090 10.0716 0.4482
105.0290 10.0582 0.4542
105.0490 10.0449 0.4689
105.0690 10.0316 0.4497
105.0890 10.0183 0.4550
105.1090 10.0049 0.4640
105.1290 9.9916 0.4483
105.1490 9.9783 0.4581
105.1690 9.9650 0.4600
105.1890 9.9516 0.4449
105.2090 9.9383 0.4515
105.2290 9.9249 0.4618
105.2490 9.9116 0.4438
105.2690 9.8983 0.4478
105.2890 9.8849 0.4554
105.3090 9.8715 0.4429
105.3290 9.8582 0.4473
105.3490 9.8449 0.4495
105.3690 9.8316 0.4417
105.3890 9.8182 0.4469
105.4090 9.8049 0.4485
105.4290 9.7916 0.4460
105.4490 9.7783 0.4436
105.4690 9.7649 0.4442
105.4890 9.7516 0.4456
105.5090 9.7383 0.4425
105.5290 9.7250 0.4418
105.5490 9.7116 0.4369
105.5690 9.6983 0.4376
105.5890 9.6849 0.4422
105.6090 9.6716 0.4409
105.6290 9.6582 0.4339
105.6490 9.6449 0.4441
105.6690 9.6315 0.4382
105.6890 9.6182 0.4346
105.7090 9.6049 0.4415
105.7290 9.5916 0.4287
105.7490 9.5782 0.4327
105.7690 9.5649 0.4432
105.7890 9.5516 0.4249
105.8090 9.5382 0.4325
105.8290 9.5249 0.4387
105.8490 9.5115 0.4282
105.8690 9.4982 0.4357
105.8890 9.4849 0.4383
105.9090 9.4716 0.4215
105.9290 9.4583 0.4284
105.9490 9.4449 0.4360
105.9690 9.4316 0.4204
105.9890 9.4183 0.4322
106.0090 9.4049 0.4283
106.0290 9.3916 0.4200
106.0490 9.3782 0.4326
106.0690 9.3649 0.4237
106.0890 9.3516 0.4213
106.1090 9.3382 0.4254
106.1290 9.3249 0.4219
106.1490 9.3116 0.4230
106.1690 9.2982 0.4243
106.1890 9.2849 0.4212
106.2090 9.2716 0.4239
106.2290 9.2582 0.4193
106.2490 9.2449 0.4157
106.2690 9.2316 0.4239
106.2890 9.2183 0.4189
106.3090 9.2049 0.4143
106.3290 9.1916 0.4244
106.3490 9.1783 0.4148
106.3690 9.1649 0.4098
106.3890 9.1516 0.4213
106.4090 9.1382 0.4134
106.4290 9.1249 0.4110
106.4490 9.1116 0.4146
106.4690 9.0982 0.4133
106.4890 9.0848 0.4092
106.5090 9.0715 0.4158
106.5290 9.0583 0.4087
106.5490 9.0449 0.4076
106.5690 9.0316 0.4114
106.5890 9.0183 0.4103
106.6090 9.0050 0.4057
106.6290 8.9917 0.4082
106.6490 8.9783 0.4047
106.6690 8.9649 0.4040
106.6890 8.9516 0.4061
106.7090 8.9383 0.4026
106.7290 8.9249 0.4001
106.7490 8.9116 0.4062
106.7690 8.8982 0.3994
106.7890 8.8849 0.4014
106.8090 8.8716 0.4032
106.8290 8.8582 0.3974
106.8490 8.8449 0.4040
106.8690 8.8316 0.4008
106.8890 8.8183 0.3957
106.9090 8.8049 0.4003
106.9290 8.7916 0.4002
106.9490 8.7783 0.3954
106.9690 8.7650 0.3958
106.9890 8.7516 0.3961
107.0090 8.7383 0.3898
107.0290 8.7249 0.3945
107.0490 8.7116 0.3940
107.0690 8.6983 0.3849
107.0890 8.6849 0.3971
107.1090 8.6715 0.3896
107.1290 8.6582 0.3914
107.1490 8.6449 0.3948
107.1690 8.6316 0.3858
107.1890 8.6182 0.3897
107.2090 8.6049 0.3889
107.2290 8.5916 0.3815
107.2490 8.5783 0.3869
107.2690 8.5649 0.3818
107.2890 8.5516 0.3833
107.3090 8.5382 0.3885
107.3290 8.5249 0.3813
107.3490 8.5116 0.3823
107.3690 8.4983 0.3866
107.3890 8.4849 0.3811
107.4090 8.4716 0.3840
107.4290 8.4583 0.3849
107.4490 8.4450 0.3770
107.4690 8.4316 0.3826
107.4890 8.4182 0.3818
107.5090 8.4049 0.3758
107.5290 8.3916 0.3801
107.5490 8.3782 0.3747
107.5690 8.3648 0.3755
107.5890 8.3515 0.3826
107.6090 8.3382 0.3711
107.6290 8.3249 0.3766
107.6490 8.3116 0.3828
107.6690 8.2983 0.3667
107.6890 8.2850 0.3770
107.7090 8.2716 0.3797
107.7290 8.2583 0.3641
107.7490 8.2449 0.3765
107.7690 8.2316 0.3782
107.7890 8.2183 0.3646
107.8090 8.2049 0.3720
107.8290 8.1916 0.3692
107.8490 8.1783 0.3678
107.8690 8.1650 0.3708
107.8890 8.1516 0.3632
107.9090 8.1382 0.3674
107.9290 8.1249 0.3685
107.9490 8.1115 0.3652
107.9690 8.0982 0.3633
107.9890 8.0849 0.3661
108.0090 8.0715 0.3617
108.0290 8.0582 0.3647
108.0490 8.0449 0.3663
108.0690 8.0316 0.3565
108.0890 8.0183 0.3610
108.1090 8.0049 0.3629
108.1290 7.9916 0.3567
108.1490 7.9783 0.3610
108.1690 7.9650 0.3566
108.1890 7.9516 0.3563
108.2090 7.9382 0.3590
108.2290 7.9249 0.3550
108.2490 7.9116 0.3545
108.2690 7.8982 0.3616
108.2890 7.8848 0.3484
108.3090 7.8715 0.3537
108.3290 7.8582 0.3566
108.3490 7.8449 0.3436
108.3690 7.8316 0.3523
108.3890 7.8183 0.3551
108.4090 7.8050 0.3418
108.4290 7.7917 0.3494
108.4490 7.7783 0.3524
108.4690 7.7649 0.3419
108.4890 7.7516 0.3514
108.5090 7.7383 0.3460
108.5290 7.7250 0.3381
108.5490 7.7116 0.3507
108.5690 7.6982 0.3468
108.5890 7.6849 0.3331
108.6090 7.6716 0.3493
108.6290 7.6582 0.3431
108.6490 7.6449 0.3338
108.6690 7.6315 0.3440
108.6890 7.6182 0.3411
108.7090 7.6049 0.3358
108.7290 7.5916 0.3413
108.7490 7.5782 0.3404
108.7690 7.5649 0.3373
108.7890 7.5516 0.3380
108.8090 7.5383 0.3374
108.8290 7.5249 0.3321
108.8490 7.5116 0.3387
108.8690 7.4983 0.3328
108.8890 7.4849 0.3304
108.9090 7.4715 0.3333
108.9290 7.4582 0.3305
108.9490 7.4449 0.3327
108.9690 7.4316 0.3296
108.9890 7.4183 0.3280
109.0090 7.4049 0.3337
109.0290 7.3916 0.3243
109.0490 7.3783 0.3303
109.0690 7.3649 0.3308
109.0890 7.3516 0.3241
109.1090 7.3382 0.3288
109.1290 7.3250 0.3279
109.1490 7.3117 0.3203
109.1690 7.2983 0.3271
109.1890 7.2849 0.3260
109.2090 7.2716 0.3186
109.2290 7.2583 0.3225
109.2490 7.2449 0.3154
109.2690 7.2316 0.3217
109.2890 7.2182 0.3251
109.3090 7.2049 0.3134
109.3290 7.1916 0.3178
109.3490 7.1782 0.3211
109.3690 7.1649 0.3105
109.3890 7.1515 0.3153
109.4090 7.1383 0.3188
109.4290 7.1249 0.3076
109.4490 7.1116 0.3119
109.4690 7.0983 0.3181
109.4890 7.0850 0.3059
109.5090 7.0717 0.3107
109.5290 7.0583 0.3095
109.5490 7.0449 0.3068
109.5690 7.0316 0.3096
109.5890 7.0183 0.3106
109.6090 7.0049 0.2994
109.6290 6.9916 0.3058
109.6490 6.9782 0.3135
109.6690 6.9649 0.2974
109.6890 6.9516 0.3010
109.7090 6.9382 0.3104
109.7290 6.9249 0.2979
109.7490 6.9115 0.3020
109.7690 6.8982 0.3067
109.7890 6.8849 0.2932
109.8090 6.8716 0.2990
109.8290 6.8583 0.3038
109.8490 6.8450 0.2938
109.8690 6.8317 0.3003
109.8890 6.8183 0.3033
109.9090 6.8049 0.2871
109.9290 6.7916 0.3001
109.9490 6.7783 0.2959
109.9690 6.7650 0.2824
109.9890 6.7516 0.3039
110.0090 6.7382 0.2949
110.0290 6.7249 0.2819
110.0490 6.7116 0.3012
110.0690 6.6982 0.2893
110.0890 6.6849 0.2839
110.1090 6.6715 0.2943
110.1290 6.6582 0.2874
110.1490 6.6449 0.2792
110.1690 6.6316 0.2938
110.1890 6.6182 0.2866
110.2090 6.6049 0.2831
110.2290 6.5916 0.2918
110.2490 6.5783 0.2808
110.2690 6.5650 0.2830
110.2890 6.5516 0.2858
110.3090 6.5383 0.2739
110.3290 6.5249 0.2847
110.3490 6.5116 0.2811
110.3690 6.4982 0.2749
110.3890 6.4848 0.2875
110.4090 6.4716 0.2758
110.4290 6.4582 0.2692
110.4490 6.4449 0.2879
110.4690 6.4315 0.2740
110.4890 6.4182 0.2776
110.5090 6.4049 0.2810
110.5290 6.3916 0.2668
110.5490 6.3783 0.2737
110.5690 6.3650 0.2735
110.5890 6.3517 0.2617
110.6090 6.3383 0.2762
110.6290 6.3250 0.2723
110.6490 6.3116 0.2648
110.6690 6.2983 0.2775
110.6890 6.2849 0.2639
110.7090 6.2716 0.2609
110.7290 6.2582 0.2742
110.7490 6.2449 0.2622
110.7690 6.2316 0.2630
110.7890 6.2183 0.2702
110.8090 6.2049 0.2605
110.8290 6.1916 0.2632
110.8490 6.1783 0.2680
110.8690 6.1649 0.2578
110.8890 6.1516 0.2589
110.9090 6.1382 0.2625
110.9290 6.1249 0.2585
110.9490 6.1116 0.2570
110.9690 6.0983 0.2541
110.9890 6.0849 0.2622
111.0090 6.0716 0.2570
111.0290 6.0583 0.2480
111.0490 6.0450 0.2576
111.0690 6.0316 0.2553
111.0890 6.0182 0.2473
111.1090 6.0049 0.2561
111.1290 5.9916 0.2520
111.1490 5.9782 0.2438
111.1690 5.9649 0.2551
111.1890 5.9515 0.2478
111.2090 5.9382 0.2420
111.2290 5.9249 0.2571
111.2490 5.9116 0.2383
111.2690 5.8982 0.2431
111.2890 5.8849 0.2523
111.3090 5.8716 0.2387
111.3290 5.8583 0.2404
111.3490 5.8450 0.2503
111.3690 5.8316 0.2385
111.3890 5.8183 0.2364
111.4090 5.8050 0.2492
111.4290 5.7916 0.2296
111.4490 5.7782 0.2361
111.4690 5.7649 0.2482
111.4890 5.7516 0.2293
111.5090 5.7383 0.2398
111.5290 5.7249 0.2349
111.5490 5.7116 0.2295
111.5690 5.6982 0.2373
111.5890 5.6849 0.2339
111.6090 5.6716 0.2293
111.6290 5.6582 0.2362
111.6490 5.6449 0.2361
111.6690 5.6317 0.2255
111.6890 5.6183 0.2288
111.7090 5.6050 0.2300
111.7290 5.5916 0.2297
111.7490 5.5783 0.2237
111.7690 5.5650 0.2247
111.7890 5.5516 0.2254
111.8090 5.5382 0.2224
111.8290 5.5249 0.2238
111.8490 5.5116 0.2261
111.8690 5.4983 0.2199
111.8890 5.4849 0.2212
111.9090 5.4715 0.2263
111.9290 5.4582 0.2162
111.9490 5.4449 0.2181
111.9690 5.4316 0.2248
111.9890 5.4182 0.2085
112.0090 5.4049 0.2197
112.0290 5.3916 0.2243
112.0490 5.3783 0.2050
112.0690 5.3650 0.2137
112.0890 5.3516 0.2213
112.1090 5.3383 0.2044
112.1290 5.3250 0.2123
112.1490 5.3116 0.2126
112.1690 5.2982 0.2038
112.1890 5.2849 0.2154
112.2090 5.2715 0.2074
112.2290 5.2582 0.2036
112.2490 5.2449 0.2151
112.2690 5.2315 0.1997
112.2890 5.2182 0.2011
112.3090 5.2049 0.2082
112.3290 5.1916 0.1989
112.3490 5.1783 0.1989
112.3690 5.1649 0.2028
112.3890 5.1516 0.1975
112.4090 5.1383 0.1951
112.4290 5.1250 0.2008
112.4490 5.1116 0.2019
112.4690 5.0983 0.1933
112.4890 5.0850 0.1979
112.5090 5.0716 0.1981
112.5290 5.0582 0.1892
112.5490 5.0449 0.1931
112.5690 5.0316 0.1950
112.5890 5.0182 0.1896
112.6090 5.0049 0.1885
112.6290 4.9915 0.1950
112.6490 4.9782 0.1839
112.6690 4.9649 0.1852
112.6890 4.9516 0.1914
112.7090 4.9383 0.1852
112.7290 4.9249 0.1860
112.7490 4.9116 0.1851
112.7690 4.8983 0.1747
112.7890 4.8849 0.1859
112.8090 4.8716 0.1875
112.8290 4.8582 0.1687
112.8490 4.8449 0.1844
112.8690 4.8316 0.1845
112.8890 4.8182 0.1660
112.9090 4.8049 0.1829
112.9290 4.7916 0.1813
112.9490 4.7783 0.1668
112.9690 4.7649 0.1771
112.9890 4.7516 0.1797
113.0090 4.7382 0.1683
113.0290 4.7249 0.1763
113.0490 4.7116 0.1754
113.0690 4.6982 0.1647
113.0890 4.6849 0.1726
113.1090 4.6716 0.1715
113.1290 4.6583 0.1622
113.1490 4.6450 0.1702
113.1690 4.6316 0.1694
113.1890 4.6183 0.1611
113.2090 4.6050 0.1652
113.2290 4.5916 0.1664
113.2490 4.5783 0.1586
113.2690 4.5649 0.1635
113.2890 4.5516 0.1629
113.3090 4.5382 0.1584
113.3290 4.5249 0.1611
113.3490 4.5115 0.1590
113.3690 4.4982 0.1551
113.3890 4.4849 0.1543
113.4090 4.4716 0.1596
113.4290 4.4582 0.1526
113.4490 4.4449 0.1528
113.4690 4.4316 0.1599
113.4890 4.4183 0.1486
113.5090 4.4050 0.1441
113.5290 4.3916 0.1583
113.5490 4.3783 0.1481
113.5690 4.3649 0.1409
113.5890 4.3516 0.1533
113.6090 4.3382 0.1434
113.6290 4.3249 0.1419
113.6490 4.3115 0.1530
113.6690 4.2982 0.1388
113.6890 4.2849 0.1391
113.7090 4.2715 0.1480
113.7290 4.2582 0.1393
113.7490 4.2449 0.1371
113.7690 4.2316 0.1468
113.7890 4.2182 0.1323
113.8090 4.2049 0.1377
113.8290 4.1916 0.1446
113.8490 4.1783 0.1265
113.8690 4.1650 0.1377
113.8890 4.1516 0.1396
113.9090 4.1383 0.1272
113.9290 4.1249 0.1338
113.9490 4.1116 0.1316
113.9690 4.0982 0.1248
113.9890 4.0849 0.1303
114.0090 4.0716 0.1336
114.0290 4.0582 0.1152
114.0490 4.0449 0.1282
114.0690 4.0315 0.1288
114.0890 4.0182 0.1139
114.1090 4.0049 0.1284
114.1290 3.9916 0.1232
114.1490 3.9783 0.1164
114.1690 3.9649 0.1284
114.1890 3.9516 0.1182
114.2090 3.9383 0.1152
114.2290 3.9250 0.1226
114.2490 3.9116 0.1157
114.2690 3.8983 0.1118
114.2890 3.8850 0.1177
114.3090 3.8717 0.1134
114.3290 3.8583 0.1042
114.3490 3.8449 0.1161
114.3690 3.8316 0.1087
114.3890 3.8182 0.1077
114.4090 3.8049 0.1115
114.4290 3.7915 0.1054
114.4490 3.7782 0.1051
114.4690 3.7649 0.1050
114.4890 3.7516 0.1042
114.5090 3.7383 0.0997
114.5290 3.7249 0.1026
114.5490 3.7116 0.1079
114.5690 3.6983 0.0954
114.5890 3.6849 0.0982
114.6090 3.6716 0.1027
114.6290 3.6583 0.0967
114.6490 3.6450 0.0968
114.6690 3.6316 0.1016
114.6890 3.6183 0.0899
114.7090 3.6049 0.0965
114.7290 3.5916 0.1002
114.7490 3.5783 0.0850
114.7690 3.5649 0.0965
114.7890 3.5516 0.0977
114.8090 3.5382 0.0864
114.8290 3.5249 0.0926
114.8490 3.5116 0.0894
114.8690 3.4982 0.0859
114.8890 3.4849 0.0875
114.9090 3.4716 0.0896
114.9290 3.4583 0.0790
114.9490 3.4450 0.0841
114.9690 3.4316 0.0887
114.9890 3.4183 0.0772
115.0090 3.4049 0.0873
115.0290 3.3916 0.0775
115.0490 3.3783 0.0771
115.0690 3.3649 0.0817
115.0890 3.3516 0.0738
115.1090 3.3383 0.0729
115.1290 3.3249 0.0743
115.1490 3.3116 0.0762
115.1690 3.2982 0.0717
115.1890 3.2849 0.0734
115.2090 3.2716 0.0698
115.2290 3.2582 0.0694
115.2490 3.2449 0.0734
115.2690 3.2316 0.0679
115.2890 3.2183 0.0650
115.3090 3.2050 0.0658
115.3290 3.1916 0.0645
115.3490 3.1783 0.0675
115.3690 3.1650 0.0645
115.3890 3.1517 0.0570
115.4090 3.1383 0.0633
115.4290 3.1249 0.0574
115.4490 3.1115 0.0600
115.4690 3.0982 0.0556
115.4890 3.0849 0.0562
115.5090 3.0715 0.0580
115.5290 3.0582 0.0562
115.5490 3.0449 0.0527
115.5690 3.0316 0.0520
115.5890 3.0183 0.0564
115.6090 3.0049 0.0489
115.6290 2.9916 0.0529
115.6490 2.9783 0.0456
115.6690 2.9650 0.0436
115.6890 2.9516 0.0478
115.7090 2.9383 0.0426
115.7290 2.9249 0.0475
115.7490 2.9116 0.0432
115.7690 2.8983 0.0361
115.7890 2.8849 0.0459
115.8090 2.8715 0.0431
115.8290 2.8582 0.0398
115.8490 2.8449 0.0368
115.8690 2.8316 0.0415
115.8890 2.8182 0.0390
115.9090 2.8049 0.0354
115.9290 2.7916 0.0392
115.9490 2.7783 0.0333
115.9690 2.7649 0.0351
115.9890 2.7516 0.0289
116.0090 2.7383 0.0294
116.0290 2.7250 0.0320
116.0490 2.7116 0.0262
116.0690 2.6983 0.0312
116.0890 2.6849 0.0265
116.1090 2.6716 0.0219
116.1290 2.6582 0.0242
116.1490 2.6449 0.0241
116.1690 2.6316 0.0210
116.1890 2.6183 0.0268
116.2090 2.6049 0.0216
116.2290 2.5916 0.0161
116.2490 2.5782 0.0263
116.2690 2.5649 0.0228
116.2890 2.5516 0.0123
116.3090 2.5383 0.0186
116.3290 2.5249 0.0149
116.3490 2.5116 0.0134
116.3690 2.4983 0.0200
116.3890 2.4850 0.0098
116.4090 2.4716 0.0078
116.4290 2.4583 0.0119
116.4490 2.4449 0.0080
116.4690 2.4316 0.0074
116.4890 2.4183 0.0149
116.5090 2.4049 0.0042
116.5290 2.3915 0.0011
116.5490 2.3782 0.0049
116.5690 2.3649 -0.0014
116.5890 2.3516 -0.0001
116.6090 2.3382 0.0062
116.6290 2.3249 -0.0004
116.6490 2.3116 -0.0047
116.6690 2.2983 -0.0016
116.6890 2.2849 0.0021
116.7090 2.2716 -0.0030
116.7290 2.2583 0.0001
116.7490 2.2450 -0.0075
116.7690 2.2316 -0.0067
116.7890 2.2182 -0.0020
116.8090 2.2049 -0.0023
116.8290 2.1916 -0.0090
116.8490 2.1783 -0.0132
116.8690 2.1649 -0.0016
116.8890 2.1515 -0.0112
116.9090 2.1382 -0.0037
116.9290 2.1249 -0.0074
116.9490 2.1115 -0.0143
116.9690 2.0982 -0.0064
116.9890 2.0848 -0.0094
117.0090 2.0716 -0.0117
117.0290 2.0582 -0.0115
117.0490 2.0449 -0.0092
117.0690 2.0316 -0.0135
117.0890 2.0183 -0.0127
117.1090 2.0050 -0.0118
117.1290 1.9916 -0.0128
117.1490 1.9783 -0.0117
117.1690 1.9650 -0.0115
117.1890 1.9516 -0.0197
117.2090 1.9383 -0.0115
117.2290 1.9249 -0.0159
117.2490 1.9116 -0.0150
117.2690 1.8983 -0.0135
117.2890 1.8849 -0.0143
117.3090 1.8716 -0.0223
117.3290 1.8582 -0.0137
117.3490 1.8449 -0.0060
117.3690 1.8316 -0.0270
117.3890 1.8182 -0.0107
117.4090 1.8049 -0.0129
117.4290 1.7916 -0.0185
117.4490 1.7783 -0.0092
117.4690 1.7650 -0.0149
117.4890 1.7516 -0.0190
117.5090 1.7383 -0.0050
117.5290 1.7250 -0.0157
117.5490 1.7116 -0.0228
117.5690 1.6983 -0.0098
117.5890 1.6849 -0.0139
117.6090 1.6715 -0.0221
117.6290 1.6582 -0.0120
117.6490 1.6449 -0.0145
117.6690 1.6315 -0.0181
117.6890 1.6182 -0.0122
117.7090 1.6049 -0.0138
117.7290 1.5916 -0.0175
117.7490 1.5783 -0.0166
117.7690 1.5649 -0.0143
117.7890 1.5516 -0.0137
117.8090 1.5383 -0.0164
117.8290 1.5250 -0.0137
117.8490 1.5116 -0.0165
117.8690 1.4983 -0.0133
117.8890 1.4849 -0.0130
117.9090 1.4716 -0.0217
117.9290 1.4583 -0.0175
117.9490 1.4449 -0.0120
117.9690 1.4315 -0.0182
117.9890 1.4182 -0.0153
118.0090 1.4049 -0.0104
118.0290 1.3916 -0.0180
118.0490 1.3782 -0.0135
118.0690 1.3649 -0.0093
118.0890 1.3516 -0.0205
118.1090 1.3383 -0.0127
118.1290 1.3249 -0.0125
118.1490 1.3116 -0.0189
118.1690 1.2983 -0.0139
118.1890 1.2850 -0.0125
118.2090 1.2716 -0.0141
118.2290 1.2583 -0.0156
118.2490 1.2449 -0.0172
118.2690 1.2316 -0.0195
118.2890 1.2183 -0.0149
118.3090 1.2049 -0.0123
118.3290 1.1915 -0.0154
118.3490 1.1782 -0.0175
118.3690 1.1649 -0.0141
118.3890 1.1516 -0.0191
118.4090 1.1382 -0.0135
118.4290 1.1249 -0.0116
118.4490 1.1116 -0.0182
118.4690 1.0983 -0.0195
118.4890 1.0849 -0.0141
118.5090 1.0716 -0.0182
118.5290 1.0583 -0.0185
118.5490 1.0450 -0.0128
118.5690 1.0316 -0.0199
118.5890 1.0183 -0.0126
118.6090 1.0049 -0.0154
118.6290 0.9916 -0.0200
118.6490 0.9783 -0.0130
118.6690 0.9649 -0.0169
118.6890 0.9516 -0.0142
118.7090 0.9382 -0.0150
118.7290 0.9249 -0.0129
118.7490 0.9116 -0.0158
118.7690 0.8982 -0.0155
118.7890 0.8849 -0.0125
118.8090 0.8716 -0.0189
118.8290 0.8583 -0.0113
118.8490 0.8449 -0.0176
118.8690 0.8316 -0.0167
118.8890 0.8183 -0.0123
118.9090 0.8050 -0.0167
118.9290 0.7916 -0.0141
118.9490 0.7783 -0.0132
118.9690 0.7649 -0.0170
118.9890 0.7516 -0.0160
119.0090 0.7383 -0.0119
119.0290 0.7249 -0.0168
119.0490 0.7115 -0.0168
119.0690 0.6982 -0.0078
119.0890 0.6849 -0.0205
119.1090 0.6716 -0.0159
119.1290 0.6582 -0.0122
119.1490 0.6449 -0.0142
119.1690 0.6316 -0.0157
119.1890 0.6182 -0.0149
119.2090 0.6049 -0.0135
119.2290 0.5916 -0.0154
119.2490 0.5783 -0.0189
119.2690 0.5650 -0.0106
119.2890 0.5516 -0.0161
119.3090 0.5383 -0.0137
119.3290 0.5249 -0.0137
119.3490 0.5116 -0.0178
119.3690 0.4983 -0.0171
119.3890 0.4849 -0.0138
119.4090 0.4715 -0.0176
119.4290 0.4582 -0.0143
119.4490 0.4449 -0.0134
119.4690 0.4316 -0.0196
119.4890 0.4182 -0.0131
119.5090 0.4049 -0.0133
119.5290 0.3916 -0.0167
119.5490 0.3783 -0.0103
119.5690 0.3649 -0.0149
119.5890 0.3516 -0.0155
119.6090 0.3383 -0.0135
119.6290 0.3250 -0.0176
119.6490 0.3116 -0.0132
119.6690 0.2983 -0.0131
119.6890 0.2849 -0.0149
119.7090 0.2716 -0.0154
119.7290 0.2583 -0.0139
119.7490 0.2449 -0.0183
119.7690 0.2316 -0.0101
119.7890 0.2182 -0.0210
119.8090 0.2049 -0.0185
119.8290 0.1916 -0.0115
119.8490 0.1782 -0.0165
119.8690 0.1649 -0.0121
119.8890 0.1516 -0.0147
119.9090 0.1383 -0.0173
119.9290 0.1250 -0.0115
119.9490 0.1116 -0.0156
119.9690 0.0983 -0.0175
119.9890 0.0850 -0.0119
120.0090 0.0716 -0.0141
120.0290 0.0583 -0.0224
120.0490 0.0449 -0.0077
120.0690 0.0316 -0.0162
120.0890 0.0183 -0.0243
120.1090 0.0049 -0.0066
120.1170 -0.0003 0.0082
