Raw Data
Time Displacement Force
(s) (mm) (N)
0.0000 0.0000 0.0003
0.0200 0.0001 0.0186
0.0400 0.0020 0.0683
0.0600 0.0094 0.0767
0.0800 0.0211 -0.0076
0.1000 0.0336 -0.0103
0.1200 0.0462 0.0289
0.1400 0.0597 0.0013
0.1600 0.0738 -0.0061
0.1800 0.0880 0.0089
0.2000 0.1019 -0.0098
0.2200 0.1155 -0.0107
0.2400 0.1288 0.0103
0.2600 0.1421 -0.0092
0.2800 0.1554 0.0026
0.3000 0.1688 0.0116
0.3200 0.1822 -0.0115
0.3400 0.1955 0.0078
0.3600 0.2089 0.0028
0.3800 0.2222 -0.0023
0.4000 0.2356 0.0062
0.4200 0.2489 -0.0014
0.4400 0.2622 0.0056
0.4600 0.2756 0.0049
0.4800 0.2889 0.0020
0.5000 0.3023 0.0038
0.5200 0.3156 0.0068
0.5400 0.3289 0.0046
0.5600 0.3422 0.0011
0.5800 0.3556 0.0074
0.6000 0.3689 -0.0004
0.6200 0.3822 0.0074
0.6400 0.3955 0.0037
0.6600 0.4089 -0.0004
0.6800 0.4222 0.0117
0.7000 0.4355 -0.0007
0.7200 0.4489 -0.0001
0.7400 0.4622 0.0088
0.7600 0.4756 0.0007
0.7800 0.4889 0.0022
0.8000 0.5023 0.0102
0.8200 0.5156 0.0053
0.8400 0.5290 0.0051
0.8600 0.5423 0.0094
0.8800 0.5556 0.0027
0.9000 0.5689 0.0059
0.9200 0.5822 0.0144
0.9400 0.5956 0.0034
0.9600 0.6088 0.0056
0.9800 0.6221 0.0149
1.0000 0.6354 0.0069
1.0200 0.6488 0.0070
1.0400 0.6622 0.0121
1.0600 0.6755 0.0062
1.0800 0.6889 0.0052
1.1000 0.7023 0.0103
1.1200 0.7157 0.0035
1.1400 0.7290 0.0108
1.1600 0.7423 0.0144
1.1800 0.7556 0.0031
1.2000 0.7690 0.0068
1.2200 0.7823 0.0113
1.2400 0.7956 0.0076
1.2600 0.8089 0.0095
1.2800 0.8222 0.0120
1.3000 0.8356 0.0037
1.3200 0.8489 0.0068
1.3400 0.8622 0.0179
1.3600 0.8755 0.0069
1.3800 0.8888 0.0080
1.4000 0.9022 0.0144
1.4200 0.9155 0.0048
1.4400 0.9289 0.0107
1.4600 0.9422 0.0178
1.4800 0.9556 0.0041
1.5000 0.9690 0.0132
1.5200 0.9823 0.0166
1.5400 0.9956 0.0051
1.5600 1.0090 0.0138
1.5800 1.0223 0.0145
1.6000 1.0355 0.0066
1.6200 1.0488 0.0133
1.6400 1.0622 0.0151
1.6600 1.0755 0.0060
1.6800 1.0889 0.0178
1.7000 1.1022 0.0127
1.7200 1.1155 0.0075
1.7400 1.1289 0.0196
1.7600 1.1423 0.0156
1.7800 1.1556 0.0061
1.8000 1.1689 0.0164
1.8200 1.1823 0.0137
1.8400 1.1956 0.0071
1.8600 1.2089 0.0195
1.8800 1.2222 0.0158
1.9000 1.2355 0.0066
1.9200 1.2489 0.0231
1.9400 1.2623 0.0104
1.9600 1.2756 0.0143
1.9800 1.2889 0.0188
2.0000 1.3023 0.0123
2.0200 1.3156 0.0139
2.0400 1.3289 0.0167
2.0600 1.3422 0.0140
2.0800 1.3555 0.0155
2.1000 1.3689 0.0188
2.1200 1.3822 0.0127
2.1400 1.3955 0.0140
2.1600 1.4089 0.0174
2.1800 1.4222 0.0136
2.2000 1.4356 0.0153
2.2200 1.4489 0.0145
2.2400 1.4623 0.0199
2.2600 1.4756 0.0172
2.2800 1.4890 0.0178
2.3000 1.5023 0.0214
2.3200 1.5156 0.0121
2.3400 1.5289 0.0172
2.3600 1.5423 0.0277
2.3800 1.5556 0.0142
2.4000 1.5689 0.0183
2.4200 1.5822 0.0265
2.4400 1.5955 0.0153
2.4600 1.6089 0.0202
2.4800 1.6222 0.0313
2.5000 1.6355 0.0184
2.5200 1.6488 0.0217
2.5400 1.6622 0.0274
2.5600 1.6756 0.0178
2.5800 1.6890 0.0258
2.6000 1.7023 0.0295
2.6200 1.7156 0.0215
2.6400 1.7290 0.0294
2.6600 1.7423 0.0336
2.6800 1.7556 0.0240
2.7000 1.7689 0.0351
2.7200 1.7822 0.0315
2.7400 1.7956 0.0298
2.7600 1.8089 0.0339
2.7800 1.8222 0.0399
2.8000 1.8355 0.0357
2.8200 1.8489 0.0371
2.8400 1.8622 0.0421
2.8600 1.8756 0.0385
2.8800 1.8889 0.0425
2.9000 1.9022 0.0495
2.9200 1.9156 0.0412
2.9400 1.9289 0.0483
2.9600 1.9423 0.0540
2.9800 1.9556 0.0498
3.0000 1.9690 0.0491
3.0200 1.9823 0.0575
3.0400 1.9956 0.0531
3.0600 2.0089 0.0577
3.0800 2.0223 0.0631
3.1000 2.0356 0.0615
3.1200 2.0489 0.0594
3.1400 2.0622 0.0655
3.1600 2.0755 0.0656
3.1800 2.0888 0.0652
3.2000 2.1022 0.0704
3.2200 2.1155 0.0699
3.2400 2.1289 0.0712
3.2600 2.1423 0.0757
3.2800 2.1556 0.0765
3.3000 2.1690 0.0711
3.3200 2.1823 0.0804
3.3400 2.1956 0.0793
3.3600 2.2090 0.0764
3.3800 2.2223 0.0861
3.4000 2.2356 0.0850
3.4200 2.2489 0.0795
3.4400 2.2622 0.0926
3.4600 2.2756 0.0855
3.4800 2.2889 0.0838
3.5000 2.3022 0.0977
3.5200 2.3155 0.0911
3.5400 2.3289 0.0905
3.5600 2.3422 0.1021
3.5800 2.3555 0.0907
3.6000 2.3689 0.0970
3.6200 2.3822 0.1056
3.6400 2.3956 0.0974
3.6600 2.4090 0.0996
3.6800 2.4223 0.1087
3.7000 2.4356 0.1008
3.7200 2.4490 0.1025
3.7400 2.4623 0.1109
3.7600 2.4756 0.1031
3.7800 2.4889 0.1064
3.8000 2.5022 0.1124
3.8200 2.5156 0.1124
3.8400 2.5289 0.1095
3.8600 2.5422 0.1117
3.8800 2.5555 0.1197
3.9000 2.5689 0.1125
3.9200 2.5822 0.1157
3.9400 2.5956 0.1210
3.9600 2.6089 0.1156
3.9800 2.6222 0.1240
4.0000 2.6356 0.1271
4.0200 2.6489 0.1157
4.0400 2.6622 0.1281
4.0600 2.6756 0.1273
4.0800 2.6889 0.1155
4.1000 2.7023 0.1360
4.1200 2.7156 0.1225
4.1400 2.7290 0.1282
4.1600 2.7423 0.1393
4.1800 2.7556 0.1264
4.2000 2.7689 0.1316
4.2200 2.7822 0.1396
4.2400 2.7955 0.1308
4.2600 2.8088 0.1381
4.2800 2.8222 0.1437
4.3000 2.8355 0.1311
4.3200 2.8488 0.1424
4.3400 2.8622 0.1419
4.3600 2.8756 0.1348
4.3800 2.8890 0.1481
4.4000 2.9023 0.1422
4.4200 2.9156 0.1437
4.4400 2.9290 0.1480
4.4600 2.9423 0.1419
4.4800 2.9556 0.1465
4.5000 2.9689 0.1496
4.5200 2.9822 0.1457
4.5400 2.9956 0.1480
4.5600 3.0089 0.1528
4.5800 3.0222 0.1456
4.6000 3.0355 0.1518
4.6200 3.0488 0.1577
4.6400 3.0622 0.1492
4.6600 3.0755 0.1599
4.6800 3.0889 0.1555
4.7000 3.1022 0.1557
4.7200 3.1156 0.1652
4.7400 3.1290 0.1565
4.7600 3.1423 0.1587
4.7800 3.1557 0.1652
4.8000 3.1690 0.1565
4.8200 3.1823 0.1554
4.8400 3.1956 0.1709
4.8600 3.2089 0.1621
4.8800 3.2222 0.1619
4.9000 3.2355 0.1734
4.9200 3.2489 0.1611
4.9400 3.2622 0.1618
4.9600 3.2755 0.1786
4.9800 3.2888 0.1641
5.0000 3.3022 0.1713
5.0200 3.3156 0.1727
5.0400 3.3289 0.1694
5.0600 3.3422 0.1781
5.0800 3.3556 0.1803
5.1000 3.3690 0.1704
5.1200 3.3823 0.1774
5.1400 3.3956 0.1778
5.1600 3.4089 0.1728
5.1800 3.4223 0.1822
5.2000 3.4356 0.1824
5.2200 3.4489 0.1747
5.2400 3.4623 0.1837
5.2600 3.4756 0.1831
5.2800 3.4889 0.1839
5.3000 3.5022 0.1822
5.3200 3.5155 0.1838
5.3400 3.5288 0.1857
5.3600 3.5422 0.1836
5.3800 3.5556 0.1877
5.4000 3.5689 0.1898
5.4200 3.5823 0.1877
5.4400 3.5956 0.1872
5.4600 3.6090 0.1919
5.4800 3.6223 0.1893
5.5000 3.6356 0.1880
5.5200 3.6489 0.1967
5.5400 3.6623 0.1897
5.5600 3.6756 0.1958
5.5800 3.6889 0.2019
5.6000 3.7022 0.1951
5.6200 3.7155 0.1962
5.6400 3.7289 0.2013
5.6600 3.7422 0.2001
5.6800 3.7556 0.1955
5.7000 3.7689 0.2024
5.7200 3.7822 0.2003
5.7400 3.7956 0.1979
5.7600 3.8089 0.2020
5.7800 3.8222 0.2045
5.8000 3.8356 0.2022
5.8200 3.8489 0.2060
5.8400 3.8623 0.2073
5.8600 3.8756 0.2044
5.8800 3.8889 0.2033
5.9000 3.9023 0.2117
5.9200 3.9156 0.2007
5.9400 3.9289 0.2104
5.9600 3.9422 0.2125
5.9800 3.9556 0.2059
6.0000 3.9689 0.2135
6.0200 3.9822 0.2066
6.0400 3.9955 0.2128
6.0600 4.0089 0.2168
6.0800 4.0222 0.2117
6.1000 4.0355 0.2130
6.1200 4.0489 0.2201
6.1400 4.0622 0.2131
6.1600 4.0756 0.2128
6.1800 4.0890 0.2248
6.2000 4.1023 0.2108
6.2200 4.1156 0.2191
6.2400 4.1289 0.2237
6.2600 4.1423 0.2175
6.2800 4.1556 0.2220
6.3000 4.1689 0.2216
6.3200 4.1822 0.2189
6.3400 4.1956 0.2257
6.3600 4.2089 0.2254
6.3800 4.2223 0.2167
6.4000 4.2355 0.2271
6.4200 4.2488 0.2282
6.4400 4.2622 0.2204
6.4600 4.2755 0.2300
6.4800 4.2888 0.2287
6.5000 4.3022 0.2280
6.5200 4.3156 0.2277
6.5400 4.3290 0.2270
6.5600 4.3423 0.2282
6.5800 4.3557 0.2278
6.6000 4.3690 0.2338
6.6200 4.3823 0.2335
6.6400 4.3957 0.2367
6.6600 4.4089 0.2283
6.6800 4.4222 0.2347
6.7000 4.4355 0.2387
6.7200 4.4489 0.2357
6.7400 4.4622 0.2348
6.7600 4.4755 0.2388
6.7800 4.4889 0.2403
6.8000 4.5022 0.2322
6.8200 4.5156 0.2430
6.8400 4.5289 0.2407
6.8600 4.5422 0.2352
6.8800 4.5556 0.2455
6.9000 4.5690 0.2373
6.9200 4.5823 0.2377
6.9400 4.5956 0.2479
6.9600 4.6089 0.2436
6.9800 4.6223 0.2397
7.0000 4.6356 0.2448
7.0200 4.6489 0.2421
7.0400 4.6622 0.2415
7.0600 4.6756 0.2548
7.0800 4.6889 0.2430
7.1000 4.7022 0.2467
7.1200 4.7155 0.2533
7.1400 4.7288 0.2446
7.1600 4.7422 0.2488
7.1800 4.7556 0.2512
7.2000 4.7689 0.2522
7.2200 4.7822 0.2465
7.2400 4.7956 0.2531
7.2600 4.8090 0.2504
7.2800 4.8223 0.2497
7.3000 4.8356 0.2557
7.3200 4.8489 0.2517
7.3400 4.8623 0.2505
7.3600 4.8756 0.2570
7.3800 4.8889 0.2575
7.4000 4.9022 0.2479
7.4200 4.9156 0.2640
7.4400 4.9289 0.2581
7.4600 4.9422 0.2493
7.4800 4.9555 0.2676
7.5000 4.9689 0.2620
7.5200 4.9822 0.2508
7.5400 4.9956 0.2652
7.5600 5.0089 0.2602
7.5800 5.0222 0.2559
7.6000 5.0356 0.2672
7.6200 5.0490 0.2616
7.6400 5.0623 0.2567
7.6600 5.0756 0.2703
7.6800 5.0890 0.2652
7.7000 5.1023 0.2602
7.7200 5.1156 0.2725
7.7400 5.1289 0.2584
7.7600 5.1422 0.2655
7.7800 5.1556 0.2760
7.8000 5.1689 0.2662
7.8200 5.1822 0.2683
7.8400 5.1955 0.2747
7.8600 5.2089 0.2666
7.8800 5.2222 0.2675
7.9000 5.2356 0.2799
7.9200 5.2489 0.2661
7.9400 5.2622 0.2713
7.9600 5.2756 0.2814
7.9800 5.2889 0.2622
8.0000 5.3023 0.2747
8.0200 5.3156 0.2816
8.0400 5.3289 0.2652
8.0600 5.3423 0.2810
8.0800 5.3557 0.2751
8.1000 5.3690 0.2727
8.1200 5.3823 0.2800
8.1400 5.3956 0.2780
8.1600 5.4089 0.2725
8.1800 5.4222 0.2834
8.2000 5.4355 0.2821
8.2200 5.4488 0.2682
8.2400 5.4622 0.2873
8.2600 5.4755 0.2799
8.2800 5.4889 0.2734
8.3000 5.5022 0.2859
8.3200 5.5156 0.2835
8.3400 5.5290 0.2740
8.3600 5.5423 0.2875
8.3800 5.5556 0.2855
8.4000 5.5689 0.2719
8.4200 5.5823 0.2960
8.4400 5.5956 0.2839
8.4600 5.6090 0.2748
8.4800 5.6222 0.2976
8.5000 5.6356 0.2847
8.5200 5.6489 0.2787
8.5400 5.6622 0.2970
8.5600 5.6755 0.2879
8.5800 5.6888 0.2808
8.6000 5.7022 0.3010
8.6200 5.7155 0.2853
8.6400 5.7289 0.2784
8.6600 5.7422 0.3003
8.6800 5.7555 0.2843
8.7000 5.7689 0.2871
8.7200 5.7823 0.3013
8.7400 5.7956 0.2850
8.7600 5.8090 0.2907
8.7800 5.8223 0.3029
8.8000 5.8356 0.2893
8.8200 5.8489 0.2911
8.8400 5.8622 0.3019
8.8600 5.8755 0.2921
8.8800 5.8889 0.2950
8.9000 5.9022 0.3015
8.9200 5.9155 0.2939
8.9400 5.9288 0.2975
8.9600 5.9422 0.3000
8.9800 5.9556 0.2954
9.0000 5.9690 0.2952
9.0200 5.9823 0.3044
9.0400 5.9956 0.2980
9.0600 6.0090 0.2964
9.0800 6.0223 0.3049
9.1000 6.0356 0.2982
9.1200 6.0489 0.3043
9.1400 6.0622 0.3044
9.1600 6.0756 0.2966
9.1800 6.0889 0.3070
9.2000 6.1023 0.3046
9.2200 6.1156 0.3006
9.2400 6.1289 0.3108
9.2600 6.1423 0.3034
9.2800 6.1556 0.3008
9.3000 6.1689 0.3093
9.3200 6.1822 0.3042
9.3400 6.1956 0.3073
9.3600 6.2089 0.3090
9.3800 6.2222 0.3070
9.4000 6.2355 0.3116
9.4200 6.2489 0.3061
9.4400 6.2623 0.3076
9.4600 6.2756 0.3162
9.4800 6.2889 0.3026
9.5000 6.3022 0.3114
9.5200 6.3156 0.3217
9.5400 6.3290 0.3000
9.5600 6.3423 0.3117
9.5800 6.3556 0.3193
9.6000 6.3689 0.3058
9.6200 6.3823 0.3175
9.6400 6.3956 0.3168
9.6600 6.4089 0.3086
9.6800 6.4222 0.3209
9.7000 6.4355 0.3132
9.7200 6.4489 0.3097
9.7400 6.4622 0.3236
9.7600 6.4755 0.3170
9.7800 6.4889 0.3085
9.8000 6.5023 0.3246
9.8200 6.5156 0.3168
9.8400 6.5290 0.3183
9.8600 6.5423 0.3205
9.8800 6.5557 0.3175
9.9000 6.5690 0.3184
9.9200 6.5823 0.3250
9.9400 6.5956 0.3230
9.9600 6.6089 0.3197
9.9800 6.6222 0.3243
10.0000 6.6355 0.3238
10.0200 6.6488 0.3205
10.0400 6.6622 0.3267
10.0600 6.6756 0.3247
10.0800 6.6889 0.3187
10.1000 6.7022 0.3249
10.1200 6.7155 0.3291
10.1400 6.7289 0.3222
10.1600 6.7423 0.3277
10.1800 6.7556 0.3295
10.2000 6.7689 0.3231
10.2200 6.7823 0.3286
10.2400 6.7957 0.3310
10.2600 6.8090 0.3246
10.2800 6.8223 0.3370
10.3000 6.8356 0.3317
10.3200 6.8489 0.3253
10.3400 6.8623 0.3336
10.3600 6.8756 0.3302
10.3800 6.8889 0.3240
10.4000 6.9022 0.3360
10.4200 6.9155 0.3354
10.4400 6.9289 0.3248
10.4600 6.9422 0.3398
10.4800 6.9556 0.3366
10.5000 6.9689 0.3278
10.5200 6.9823 0.3410
10.5400 6.9956 0.3365
10.5600 7.0089 0.3261
10.5800 7.0223 0.3403
10.6000 7.0356 0.3396
10.6200 7.0490 0.3302
10.6400 7.0623 0.3439
10.6600 7.0756 0.3400
10.6800 7.0889 0.3285
10.7000 7.1023 0.3491
10.7200 7.1156 0.3396
10.7400 7.1289 0.3324
10.7600 7.1422 0.3485
10.7800 7.1556 0.3380
10.8000 7.1689 0.3347
10.8200 7.1822 0.3521
10.8400 7.1956 0.3402
10.8600 7.2089 0.3362
10.8800 7.2223 0.3511
10.9000 7.2356 0.3437
10.9200 7.2489 0.3398
10.9400 7.2623 0.3497
10.9600 7.2756 0.3452
10.9800 7.2890 0.3400
11.0000 7.3023 0.3507
11.0200 7.3156 0.3442
11.0400 7.3289 0.3432
11.0600 7.3422 0.3514
11.0800 7.3556 0.3445
11.1000 7.3689 0.3449
11.1200 7.3822 0.3535
11.1400 7.3955 0.3451
11.1600 7.4089 0.3444
11.1800 7.4222 0.3515
11.2000 7.4356 0.3536
11.2200 7.4489 0.3437
11.2400 7.4622 0.3530
11.2600 7.4756 0.3513
11.2800 7.4889 0.3473
11.3000 7.5022 0.3526
11.3200 7.5156 0.3530
11.3400 7.5289 0.3488
11.3600 7.5423 0.3555
11.3800 7.5556 0.3543
11.4000 7.5690 0.3507
11.4200 7.5823 0.3543
11.4400 7.5956 0.3540
11.4600 7.6089 0.3531
11.4800 7.6222 0.3601
11.5000 7.6355 0.3521
11.5200 7.6488 0.3530
11.5400 7.6622 0.3601
11.5600 7.6755 0.3536
11.5800 7.6889 0.3566
11.6000 7.7023 0.3565
11.6200 7.7157 0.3512
11.6400 7.7290 0.3592
11.6600 7.7423 0.3576
11.6800 7.7557 0.3537
11.7000 7.7690 0.3609
11.7200 7.7823 0.3558
11.7400 7.7956 0.3572
11.7600 7.8089 0.3580
11.7800 7.8223 0.3559
11.8000 7.8356 0.3611
11.8200 7.8489 0.3619
11.8400 7.8622 0.3569
11.8600 7.8755 0.3609
11.8800 7.8889 0.3597
11.9000 7.9022 0.3599
11.9200 7.9155 0.3631
11.9400 7.9289 0.3597
11.9600 7.9423 0.3622
11.9800 7.9556 0.3616
12.0000 7.9690 0.3641
12.0200 7.9823 0.3662
12.0400 7.9956 0.3621
12.0600 8.0090 0.3616
12.0800 8.0223 0.3665
12.1000 8.0356 0.3633
12.1200 8.0489 0.3597
12.1400 8.0622 0.3669
12.1600 8.0755 0.3583
12.1800 8.0888 0.3652
12.2000 8.1022 0.3693
12.2200 8.1155 0.3605
12.2400 8.1289 0.3629
12.2600 8.1422 0.3700
12.2800 8.1556 0.3610
12.3000 8.1689 0.3645
12.3200 8.1823 0.3696
12.3400 8.1956 0.3639
12.3600 8.2089 0.3714
12.3800 8.2223 0.3696
12.4000 8.2356 0.3596
12.4200 8.2490 0.3771
12.4400 8.2623 0.3670
12.4600 8.2756 0.3655
12.4800 8.2889 0.3756
12.5000 8.3023 0.3670
12.5200 8.3156 0.3671
12.5400 8.3289 0.3777
12.5600 8.3422 0.3711
12.5800 8.3555 0.3705
12.6000 8.3689 0.3779
12.6200 8.3822 0.3693
12.6400 8.3955 0.3727
12.6600 8.4089 0.3758
12.6800 8.4223 0.3709
12.7000 8.4356 0.3702
12.7200 8.4490 0.3771
12.7400 8.4623 0.3717
12.7600 8.4756 0.3721
12.7800 8.4890 0.3751
12.8000 8.5023 0.3735
12.8200 8.5155 0.3768
12.8400 8.5289 0.3759
12.8600 8.5422 0.3744
12.8800 8.5556 0.3778
12.9000 8.5689 0.3760
12.9200 8.5822 0.3784
12.9400 8.5955 0.3749
12.9600 8.6089 0.3782
12.9800 8.6222 0.3778
13.0000 8.6355 0.3749
13.0200 8.6489 0.3803
13.0400 8.6623 0.3781
13.0600 8.6756 0.3777
13.0800 8.6889 0.3778
13.1000 8.7023 0.3871
13.1200 8.7156 0.3784
13.1400 8.7290 0.3769
13.1600 8.7423 0.3855
13.1800 8.7556 0.3790
13.2000 8.7689 0.3794
13.2200 8.7822 0.3855
13.2400 8.7956 0.3815
13.2600 8.8089 0.3772
13.2800 8.8222 0.3853
13.3000 8.8355 0.3802
13.3200 8.8489 0.3829
13.3400 8.8622 0.3883
13.3600 8.8756 0.3736
13.3800 8.8889 0.3842
13.4000 8.9023 0.3910
13.4200 8.9156 0.3766
13.4400 8.9289 0.3895
13.4600 8.9423 0.3887
13.4800 8.9556 0.3827
13.5000 8.9690 0.3897
13.5200 8.9823 0.3861
13.5400 8.9956 0.3862
13.5600 9.0089 0.3940
13.5800 9.0223 0.3863
13.6000 9.0356 0.3822
13.6200 9.0489 0.3954
13.6400 9.0622 0.3886
13.6600 9.0755 0.3847
13.6800 9.0889 0.3904
13.7000 9.1022 0.3888
13.7200 9.1155 0.3842
13.7400 9.1289 0.3965
13.7600 9.1423 0.3894
13.7800 9.1557 0.3832
13.8000 9.1690 0.3965
13.8200 9.1823 0.3906
13.8400 9.1957 0.3860
13.8600 9.2090 0.3952
13.8800 9.2223 0.3926
13.9000 9.2356 0.3891
13.9200 9.2489 0.3954
13.9400 9.2622 0.3930
13.9600 9.2755 0.3875
13.9800 9.2888 0.3970
14.0000 9.3022 0.3941
14.0200 9.3155 0.3891
14.0400 9.3289 0.4000
14.0600 9.3422 0.3895
14.0800 9.3556 0.3927
14.1000 9.3689 0.4038
14.1200 9.3823 0.3921
14.1400 9.3956 0.3934
14.1600 9.4090 0.3988
14.1800 9.4223 0.3912
14.2000 9.4356 0.3956
14.2200 9.4490 0.4005
14.2400 9.4623 0.3952
14.2600 9.4756 0.3942
14.2800 9.4889 0.4029
14.3000 9.5022 0.3932
14.3200 9.5156 0.3918
14.3400 9.5289 0.4097
14.3600 9.5422 0.3928
14.3800 9.5555 0.3967
14.4000 9.5689 0.4119
14.4200 9.5823 0.3896
14.4400 9.5956 0.3983
14.4600 9.6089 0.4110
14.4800 9.6223 0.3916
14.5000 9.6356 0.3960
14.5200 9.6489 0.4095
14.5400 9.6622 0.3957
14.5600 9.6756 0.4070
14.5800 9.6889 0.4060
14.6000 9.7023 0.3928
14.6200 9.7156 0.4146
14.6400 9.7289 0.4074
14.6600 9.7422 0.3877
14.6800 9.7556 0.4196
14.7000 9.7689 0.4013
14.7200 9.7822 0.3916
14.7400 9.7955 0.4205
14.7600 9.8089 0.4051
14.7800 9.8222 0.3906
14.8000 9.8356 0.4176
14.8200 9.8489 0.4085
14.8400 9.8623 0.3980
14.8600 9.8756 0.4144
14.8800 9.8890 0.4061
14.9000 9.9023 0.4047
14.9200 9.9156 0.4162
14.9400 9.9290 0.4040
14.9600 9.9423 0.4071
14.9800 9.9556 0.4163
15.0000 9.9689 0.4083
15.0200 9.9822 0.4147
15.0400 9.9956 0.4132
15.0600 10.0089 0.4091
15.0800 10.0222 0.4155
15.1000 10.0355 0.4113
15.1200 10.0489 0.4117
15.1400 10.0622 0.4158
15.1600 10.0756 0.4110
15.1800 10.0889 0.4159
15.2000 10.1022 0.4130
15.2200 10.1156 0.4147
15.2400 10.1289 0.4197
15.2600 10.1423 0.4111
15.2800 10.1556 0.4084
15.3000 10.1690 0.4210
15.3200 10.1823 0.4123
15.3400 10.1956 0.4188
15.3600 10.2089 0.4224
15.3800 10.2222 0.4115
15.4000 10.2356 0.4159
15.4200 10.2489 0.4224
15.4400 10.2622 0.4144
15.4600 10.2755 0.4192
15.4800 10.2889 0.4227
15.5000 10.3022 0.4149
15.5200 10.3155 0.4194
15.5400 10.3289 0.4267
15.5600 10.3423 0.4126
15.5800 10.3557 0.4218
15.6000 10.3690 0.4250
15.6200 10.3823 0.4185
15.6400 10.3956 0.4250
15.6600 10.4090 0.4203
15.6800 10.4223 0.4192
15.7000 10.4356 0.4274
15.7200 10.4489 0.4230
15.7400 10.4622 0.4212
15.7600 10.4756 0.4277
15.7800 10.4889 0.4176
15.8000 10.5022 0.4182
15.8200 10.5155 0.4334
15.8400 10.5288 0.4222
15.8600 10.5422 0.4191
15.8800 10.5555 0.4240
15.9000 10.5689 0.4269
15.9200 10.5822 0.4293
15.9400 10.5956 0.4219
15.9600 10.6090 0.4274
15.9800 10.6223 0.4314
16.0000 10.6356 0.4248
16.0200 10.6490 0.4191
16.0400 10.6623 0.4342
16.0600 10.6756 0.4308
16.0800 10.6889 0.4241
16.1000 10.7022 0.4298
16.1200 10.7155 0.4283
16.1400 10.7289 0.4259
16.1600 10.7422 0.4340
16.1800 10.7555 0.4262
16.2000 10.7689 0.4276
16.2200 10.7823 0.4324
16.2400 10.7956 0.4245
16.2600 10.8089 0.4257
16.2800 10.8223 0.4324
16.3000 10.8356 0.4297
16.3200 10.8489 0.4294
16.3400 10.8622 0.4307
16.3600 10.8756 0.4308
16.3800 10.8889 0.4334
16.4000 10.9023 0.4294
16.4200 10.9156 0.4260
16.4400 10.9289 0.4341
16.4600 10.9423 0.4277
16.4800 10.9556 0.4316
16.5000 10.9689 0.4341
16.5200 10.9822 0.4267
16.5400 10.9955 0.4355
16.5600 11.0089 0.4308
16.5800 11.0222 0.4296
16.6000 11.0355 0.4372
16.6200 11.0489 0.4310
16.6400 11.0622 0.4297
16.6600 11.0756 0.4347
16.6800 11.0889 0.4329
16.7000 11.1023 0.4326
16.7200 11.1156 0.4387
16.7400 11.1289 0.4290
16.7600 11.1423 0.4347
16.7800 11.1556 0.4422
16.8000 11.1689 0.4308
16.8200 11.1823 0.4422
16.8400 11.1956 0.4349
16.8600 11.2089 0.4303
16.8800 11.2222 0.4431
16.9000 11.2355 0.4386
16.9200 11.2488 0.4303
16.9400 11.2622 0.4451
16.9600 11.2755 0.4346
16.9800 11.2888 0.4354
17.0000 11.3022 0.4462
17.0200 11.3156 0.4355
17.0400 11.3290 0.4336
17.0600 11.3423 0.4444
17.0800 11.3556 0.4395
17.1000 11.3690 0.4382
17.1200 11.3823 0.4471
17.1400 11.3956 0.4441
17.1600 11.4089 0.4377
17.1800 11.4222 0.4467
17.2000 11.4356 0.4421
17.2200 11.4489 0.4394
17.2400 11.4622 0.4469
17.2600 11.4755 0.4433
17.2800 11.4889 0.4437
17.3000 11.5022 0.4459
17.3200 11.5156 0.4417
17.3400 11.5289 0.4476
17.3600 11.5422 0.4468
17.3800 11.5556 0.4480
17.4000 11.5690 0.4507
17.4200 11.5823 0.4430
17.4400 11.5956 0.4460
17.4600 11.6090 0.4505
17.4800 11.6223 0.4424
17.5000 11.6356 0.4444
17.5200 11.6489 0.4558
17.5400 11.6623 0.4411
17.5600 11.6756 0.4502
17.5800 11.6889 0.4531
17.6000 11.7022 0.4427
17.6200 11.7155 0.4555
17.6400 11.7288 0.4475
17.6600 11.7422 0.4422
17.6800 11.7555 0.4628
17.7000 11.7689 0.4443
17.7200 11.7822 0.4404
17.7400 11.7956 0.4649
17.7600 11.8090 0.4437
17.7800 11.8223 0.4476
17.8000 11.8356 0.4633
17.8200 11.8489 0.4413
17.8400 11.8623 0.4474
17.8600 11.8756 0.4631
17.8800 11.8889 0.4457
17.9000 11.9022 0.4524
17.9200 11.9156 0.4623
17.9400 11.9289 0.4459
17.9600 11.9422 0.4556
17.9800 11.9555 0.4610
18.0000 11.9689 0.4482
18.0200 11.9822 0.4555
18.0400 11.9956 0.4556
18.0600 12.0089 0.4529
18.0800 12.0222 0.4627
18.1000 12.0356 0.4525
18.1200 12.0490 0.4520
18.1400 12.0623 0.4595
18.1600 12.0756 0.4544
18.1800 12.0889 0.4573
18.2000 12.1023 0.4569
18.2200 12.1156 0.4527
18.2400 12.1289 0.4619
18.2600 12.1422 0.4570
18.2800 12.1556 0.4495
18.3000 12.1689 0.4653
18.3200 12.1822 0.4582
18.3400 12.1955 0.4564
18.3600 12.2089 0.4669
18.3800 12.2222 0.4591
18.4000 12.2356 0.4559
18.4200 12.2489 0.4681
18.4400 12.2622 0.4554
18.4600 12.2756 0.4580
18.4800 12.2889 0.4675
18.5000 12.3022 0.4579
18.5200 12.3156 0.4601
18.5400 12.3289 0.4662
18.5600 12.3423 0.4650
18.5800 12.3556 0.4625
18.6000 12.3689 0.4627
18.6200 12.3823 0.4657
18.6400 12.3956 0.4637
18.6600 12.4090 0.4658
18.6800 12.4223 0.4615
18.7000 12.4355 0.4666
18.7200 12.4488 0.4656
18.7400 12.4622 0.4637
18.7600 12.4755 0.4677
18.7800 12.4888 0.4670
18.8000 12.5022 0.4670
18.8200 12.5156 0.4644
18.8400 12.5290 0.4674
18.8600 12.5423 0.4682
18.8800 12.5556 0.4691
18.9000 12.5690 0.4740
18.9200 12.5823 0.4582
18.9400 12.5957 0.4635
18.9600 12.6089 0.4802
18.9800 12.6222 0.4649
19.0000 12.6355 0.4657
19.0200 12.6489 0.4742
19.0400 12.6622 0.4682
19.0600 12.6755 0.4624
19.0800 12.6888 0.4777
19.1000 12.7022 0.4737
19.1200 12.7156 0.4637
19.1400 12.7289 0.4704
19.1600 12.7422 0.4726
19.1800 12.7556 0.4680
19.2000 12.7690 0.4745
19.2200 12.7823 0.4703
19.2400 12.7957 0.4719
19.2600 12.8090 0.4715
19.2800 12.8223 0.4766
19.3000 12.8356 0.4747
19.3200 12.8489 0.4694
19.3400 12.8622 0.4746
19.3600 12.8755 0.4771
19.3800 12.8889 0.4689
19.4000 12.9022 0.4728
19.4200 12.9155 0.4811
19.4400 12.9288 0.4719
19.4600 12.9422 0.4740
19.4800 12.9556 0.4761
19.5000 12.9689 0.4753
19.5200 12.9822 0.4824
19.5400 12.9956 0.4726
19.5600 13.0090 0.4660
19.5800 13.0223 0.4844
19.6000 13.0356 0.4837
19.6200 13.0490 0.4670
19.6400 13.0623 0.4831
19.6600 13.0756 0.4800
19.6800 13.0889 0.4757
19.7000 13.1023 0.4817
19.7200 13.1156 0.4804
19.7400 13.1289 0.4800
19.7600 13.1422 0.4791
19.7800 13.1555 0.4827
19.8000 13.1688 0.4811
19.8200 13.1822 0.4809
19.8400 13.1955 0.4807
19.8600 13.2089 0.4841
19.8800 13.2222 0.4820
19.9000 13.2356 0.4802
19.9200 13.2490 0.4775
19.9400 13.2623 0.4850
19.9600 13.2756 0.4841
19.9800 13.2889 0.4837
20.0000 13.3023 0.4804
20.0200 13.3156 0.4792
20.0400 13.3289 0.4822
20.0600 13.3422 0.4870
20.0800 13.3556 0.4876
20.1000 13.3689 0.4871
20.1200 13.3823 0.4804
20.1400 13.3955 0.4882
20.1600 13.4089 0.4872
20.1800 13.4222 0.4852
20.2000 13.4355 0.4859
20.2200 13.4489 0.4844
20.2400 13.4622 0.4862
20.2600 13.4756 0.4852
20.2800 13.4889 0.4885
20.3000 13.5023 0.4908
20.3200 13.5156 0.4880
20.3400 13.5289 0.4843
20.3600 13.5423 0.4883
20.3800 13.5557 0.4982
20.4000 13.5690 0.4854
20.4200 13.5823 0.4852
20.4400 13.5956 0.4955
20.4600 13.6089 0.4893
20.4800 13.6222 0.4890
20.5000 13.6356 0.4897
20.5200 13.6489 0.4895
20.5400 13.6622 0.4919
20.5600 13.6755 0.4923
20.5800 13.6889 0.4844
20.6000 13.7022 0.4967
20.6200 13.7155 0.4983
20.6400 13.7289 0.4839
20.6600 13.7423 0.4934
20.6800 13.7556 0.5011
20.7000 13.7689 0.4874
20.7200 13.7823 0.4923
20.7400 13.7956 0.4960
20.7600 13.8089 0.4908
20.7800 13.8223 0.4962
20.8000 13.8356 0.4987
20.8200 13.8490 0.4902
20.8400 13.8623 0.4982
20.8600 13.8756 0.4943
20.8800 13.8888 0.4893
20.9000 13.9022 0.5050
20.9200 13.9155 0.4996
20.9400 13.9288 0.4911
20.9600 13.9422 0.5029
20.9800 13.9556 0.4960
21.0000 13.9690 0.4957
21.0200 13.9823 0.5014
21.0400 13.9957 0.4961
21.0600 14.0090 0.4956
21.0800 14.0223 0.5040
21.1000 14.0357 0.4976
21.1200 14.0490 0.4994
21.1400 14.0622 0.5102
21.1600 14.0755 0.4926
21.1800 14.0888 0.5001
21.2000 14.1022 0.5068
21.2200 14.1155 0.4947
21.2400 14.1289 0.5046
21.2600 14.1422 0.5042
21.2800 14.1556 0.4929
21.3000 14.1689 0.5008
21.3200 14.1823 0.5089
21.3400 14.1956 0.4982
21.3600 14.2090 0.5043
21.3800 14.2223 0.5063
21.4000 14.2356 0.4994
21.4200 14.2489 0.5054
21.4400 14.2623 0.5087
21.4600 14.2756 0.4996
21.4800 14.2889 0.4979
21.5000 14.3022 0.5149
21.5200 14.3156 0.5016
21.5400 14.3289 0.4993
21.5600 14.3422 0.5163
21.5800 14.3555 0.5020
21.6000 14.3688 0.5029
21.6200 14.3822 0.5134
21.6400 14.3956 0.4977
21.6600 14.4089 0.5131
21.6800 14.4222 0.5107
21.7000 14.4356 0.4979
21.7200 14.4490 0.5128
21.7400 14.4623 0.5078
21.7600 14.4756 0.5009
21.7800 14.4889 0.5104
21.8000 14.5022 0.5141
21.8200 14.5156 0.5029
21.8400 14.5289 0.5068
21.8600 14.5422 0.5119
21.8800 14.5556 0.5058
21.9000 14.5689 0.5146
21.9200 14.5823 0.5101
21.9400 14.5955 0.5153
21.9600 14.6088 0.5110
21.9800 14.6222 0.5112
22.0000 14.6355 0.5147
22.0200 14.6489 0.5122
22.0400 14.6622 0.5129
22.0600 14.6756 0.5128
22.0800 14.6889 0.5125
22.1000 14.7023 0.5113
22.1200 14.7156 0.5182
22.1400 14.7289 0.5119
22.1600 14.7423 0.5113
22.1800 14.7556 0.5196
22.2000 14.7689 0.5082
22.2200 14.7822 0.5157
22.2400 14.7956 0.5229
22.2600 14.8089 0.5087
22.2800 14.8223 0.5212
22.3000 14.8356 0.5204
22.3200 14.8489 0.5115
22.3400 14.8622 0.5222
22.3600 14.8756 0.5218
22.3800 14.8889 0.5086
22.4000 14.9022 0.5264
22.4200 14.9156 0.5228
22.4400 14.9289 0.5091
22.4600 14.9423 0.5264
22.4800 14.9556 0.5198
22.5000 14.9689 0.5095
22.5200 14.9823 0.5291
22.5400 14.9956 0.5222
22.5600 15.0090 0.5129
22.5800 15.0223 0.5265
22.6000 15.0356 0.5238
22.6200 15.0489 0.5136
22.6400 15.0623 0.5279
22.6600 15.0756 0.5230
22.6800 15.0889 0.5172
22.7000 15.1022 0.5267
22.7200 15.1156 0.5257
22.7400 15.1289 0.5130
22.7600 15.1422 0.5247
22.7800 15.1556 0.5430
22.8000 15.1690 0.5170
22.8200 15.1823 0.5097
22.8400 15.1956 0.5480
22.8600 15.2089 0.5319
22.8800 15.2223 0.5026
22.9000 15.2357 0.5289
22.9200 15.2490 0.5463
22.9400 15.2623 0.5176
22.9600 15.2756 0.5152
22.9800 15.2889 0.5399
23.0000 15.3022 0.5333
23.0200 15.3155 0.5238
23.0400 15.3289 0.5199
23.0600 15.3422 0.5393
23.0800 15.3555 0.5332
23.1000 15.3689 0.5060
23.1200 15.3822 0.5359
23.1400 15.3956 0.5497
23.1600 15.4089 0.5130
23.1800 15.4223 0.5272
23.2000 15.4356 0.5450
23.2200 15.4489 0.5188
23.2400 15.4623 0.5381
23.2600 15.4756 0.5354
23.2800 15.4889 0.5173
23.3000 15.5022 0.5371
23.3200 15.5155 0.5335
23.3400 15.5289 0.5299
23.3600 15.5422 0.5354
23.3800 15.5555 0.5287
23.4000 15.5689 0.5378
23.4200 15.5822 0.5320
23.4400 15.5956 0.5231
23.4600 15.6089 0.5433
23.4800 15.6222 0.5387
23.5000 15.6356 0.5193
23.5200 15.6490 0.5378
23.5400 15.6623 0.5408
23.5600 15.6756 0.5166
23.5800 15.6889 0.5378
23.6000 15.7022 0.5399
23.6200 15.7156 0.5207
23.6400 15.7289 0.5363
23.6600 15.7423 0.5344
23.6800 15.7556 0.5269
23.7000 15.7689 0.5401
23.7200 15.7823 0.5357
23.7400 15.7956 0.5252
23.7600 15.8089 0.5391
23.7800 15.8222 0.5356
23.8000 15.8356 0.5312
23.8200 15.8489 0.5401
23.8400 15.8622 0.5318
23.8600 15.8755 0.5327
23.8800 15.8889 0.5450
23.9000 15.9023 0.5341
23.9200 15.9156 0.5298
23.9400 15.9289 0.5457
23.9600 15.9423 0.5468
23.9800 15.9556 0.5197
24.0000 15.9690 0.5396
24.0200 15.9823 0.5539
24.0400 15.9956 0.5253
24.0600 16.0090 0.5350
24.0800 16.0223 0.5531
24.1000 16.0356 0.5371
24.1200 16.0489 0.5296
24.1400 16.0622 0.5511
24.1600 16.0755 0.5390
24.1800 16.0889 0.5332
24.2000 16.1022 0.5502
24.2200 16.1155 0.5393
24.2400 16.1289 0.5420
24.2600 16.1423 0.5518
24.2800 16.1556 0.5318
24.3000 16.1689 0.5433
24.3200 16.1823 0.5555
24.3400 16.1956 0.5304
24.3600 16.2090 0.5456
24.3800 16.2223 0.5536
24.4000 16.2355 0.5331
24.4200 16.2489 0.5447
24.4400 16.2622 0.5466
24.4600 16.2756 0.5361
24.4800 16.2889 0.5509
24.5000 16.3022 0.5498
24.5200 16.3156 0.5378
24.5400 16.3289 0.5531
24.5600 16.3422 0.5490
24.5800 16.3556 0.5406
24.6000 16.3689 0.5548
24.6200 16.3823 0.5502
24.6400 16.3956 0.5425
24.6600 16.4089 0.5546
24.6800 16.4223 0.5461
24.7000 16.4356 0.5454
24.7200 16.4490 0.5515
24.7400 16.4623 0.5530
24.7600 16.4756 0.5446
24.7800 16.4889 0.5554
24.8000 16.5022 0.5525
24.8200 16.5155 0.5429
24.8400 16.5288 0.5557
24.8600 16.5422 0.5543
24.8800 16.5555 0.5434
24.9000 16.5689 0.5567
24.9200 16.5822 0.5500
24.9400 16.5956 0.5451
24.9600 16.6089 0.5628
24.9800 16.6223 0.5541
25.0000 16.6357 0.5423
25.0200 16.6490 0.5588
25.0400 16.6623 0.5560
25.0600 16.6756 0.5395
25.0800 16.6890 0.5604
25.1000 16.7023 0.5579
25.1200 16.7156 0.5484
25.1400 16.7289 0.5624
25.1600 16.7422 0.5586
25.1800 16.7556 0.5512
25.2000 16.7689 0.5613
25.2200 16.7822 0.5555
25.2400 16.7955 0.5510
25.2600 16.8089 0.5588
25.2800 16.8222 0.5614
25.3000 16.8356 0.5512
25.3200 16.8489 0.5624
25.3400 16.8623 0.5601
25.3600 16.8756 0.5532
25.3800 16.8889 0.5571
25.4000 16.9023 0.5646
25.4200 16.9156 0.5549
25.4400 16.9290 0.5623
25.4600 16.9423 0.5587
25.4800 16.9556 0.5588
25.5000 16.9689 0.5653
25.5200 16.9822 0.5540
25.5400 16.9955 0.5588
25.5600 17.0088 0.5727
25.5800 17.0222 0.5521
25.6000 17.0355 0.5667
25.6200 17.0489 0.5699
25.6400 17.0622 0.5505
25.6600 17.0755 0.5731
25.6800 17.0889 0.5730
25.7000 17.1022 0.5473
25.7200 17.1156 0.5730
25.7400 17.1289 0.5707
25.7600 17.1422 0.5504
25.7800 17.1556 0.5725
25.8000 17.1690 0.5714
25.8200 17.1823 0.5589
25.8400 17.1956 0.5706
25.8600 17.2089 0.5667
25.8800 17.2223 0.5690
25.9000 17.2356 0.5738
25.9200 17.2489 0.5599
25.9400 17.2622 0.5740
25.9600 17.2755 0.5796
25.9800 17.2888 0.5563
26.0000 17.3022 0.5732
26.0200 17.3155 0.5831
26.0400 17.3289 0.5588
26.0600 17.3423 0.5656
26.0800 17.3556 0.5758
26.1000 17.3690 0.5670
26.1200 17.3823 0.5732
26.1400 17.3957 0.5733
26.1600 17.4090 0.5673
26.1800 17.4223 0.5768
26.2000 17.4356 0.5761
26.2200 17.4489 0.5756
26.2400 17.4623 0.5767
26.2600 17.4756 0.5689
26.2800 17.4889 0.5750
26.3000 17.5022 0.5867
26.3200 17.5155 0.5684
26.3400 17.5289 0.5702
26.3600 17.5422 0.5894
26.3800 17.5556 0.5701
26.4000 17.5689 0.5643
26.4200 17.5823 0.5943
26.4400 17.5956 0.5789
26.4600 17.6090 0.5630
26.4800 17.6223 0.5879
26.5000 17.6356 0.5817
26.5200 17.6490 0.5680
26.5400 17.6623 0.5852
26.5600 17.6756 0.5830
26.5800 17.6889 0.5739
26.6000 17.7022 0.5834
26.6200 17.7156 0.5767
26.6400 17.7289 0.5748
26.6600 17.7422 0.5912
26.6800 17.7555 0.5825
26.7000 17.7689 0.5737
26.7200 17.7822 0.5873
26.7400 17.7956 0.5814
26.7600 17.8089 0.5774
26.7800 17.8223 0.5875
26.8000 17.8356 0.5807
26.8200 17.8490 0.5729
26.8400 17.8623 0.5886
26.8600 17.8756 0.5854
26.8800 17.8890 0.5767
26.9000 17.9023 0.5859
26.9200 17.9156 0.5869
26.9400 17.9289 0.5842
26.9600 17.9423 0.5877
26.9800 17.9556 0.5865
27.0000 17.9689 0.5851
27.0200 17.9822 0.5852
27.0400 17.9955 0.5903
27.0600 18.0089 0.5873
27.0800 18.0222 0.5819
27.1000 18.0355 0.5939
27.1200 18.0489 0.5916
27.1400 18.0623 0.5778
27.1600 18.0756 0.5928
27.1800 18.0890 0.5952
27.2000 18.1023 0.5743
27.2200 18.1156 0.5935
27.2400 18.1289 0.5970
27.2600 18.1423 0.5787
27.2800 18.1555 0.5973
27.3000 18.1689 0.5936
27.3200 18.1822 0.5865
27.3400 18.1956 0.5948
27.3600 18.2089 0.5891
27.3800 18.2222 0.5884
27.4000 18.2355 0.5995
27.4200 18.2489 0.5887
27.4400 18.2622 0.5868
27.4600 18.2755 0.6034
27.4800 18.2889 0.5856
27.5000 18.3023 0.5956
27.5200 18.3156 0.5991
27.5400 18.3289 0.5866
27.5600 18.3423 0.6005
27.5800 18.3556 0.5970
27.6000 18.3690 0.5888
27.6200 18.3823 0.5975
27.6400 18.3956 0.5970
27.6600 18.4089 0.5976
27.6800 18.4222 0.5979
27.7000 18.4356 0.5939
27.7200 18.4489 0.5964
27.7400 18.4622 0.6000
27.7600 18.4755 0.5920
27.7800 18.4889 0.6013
27.8000 18.5022 0.5984
27.8200 18.5156 0.5973
27.8400 18.5289 0.5995
27.8600 18.5422 0.5990
27.8800 18.5556 0.5975
27.9000 18.5689 0.5985
27.9200 18.5823 0.5983
27.9400 18.5956 0.5991
27.9600 18.6090 0.6019
27.9800 18.6223 0.5987
28.0000 18.6356 0.5980
28.0200 18.6489 0.6028
28.0400 18.6623 0.5996
28.0600 18.6756 0.6042
28.0800 18.6889 0.6030
28.1000 18.7022 0.6010
28.1200 18.7155 0.6057
28.1400 18.7289 0.6013
28.1600 18.7422 0.6039
28.1800 18.7555 0.6046
28.2000 18.7689 0.6071
28.2200 18.7823 0.6020
28.2400 18.7957 0.6133
28.2600 18.8090 0.5963
28.2800 18.8223 0.6026
28.3000 18.8357 0.6206
28.3200 18.8490 0.5987
28.3400 18.8623 0.6047
28.3600 18.8756 0.6210
28.3800 18.8889 0.6018
28.4000 18.9022 0.6045
28.4200 18.9155 0.6147
28.4400 18.9288 0.6059
28.4600 18.9422 0.6082
28.4800 18.9555 0.6169
28.5000 18.9689 0.6044
28.5200 18.9823 0.6069
28.5400 18.9956 0.6121
28.5600 19.0089 0.6045
28.5800 19.0223 0.6093
28.6000 19.0357 0.6101
28.6200 19.0490 0.6099
28.6400 19.0623 0.6093
28.6600 19.0756 0.6114
28.6800 19.0890 0.6105
28.7000 19.1023 0.6084
28.7200 19.1156 0.6162
28.7400 19.1289 0.6114
28.7600 19.1422 0.6138
28.7800 19.1556 0.6156
28.8000 19.1689 0.6117
28.8200 19.1822 0.6120
28.8400 19.1955 0.6169
28.8600 19.2089 0.6170
28.8800 19.2222 0.6112
28.9000 19.2356 0.6170
28.9200 19.2489 0.6130
28.9400 19.2623 0.6117
28.9600 19.2756 0.6253
28.9800 19.2890 0.6097
29.0000 19.3023 0.6170
29.0200 19.3156 0.6246
29.0400 19.3289 0.6119
29.0600 19.3423 0.6204
29.0800 19.3556 0.6190
29.1000 19.3689 0.6175
29.1200 19.3823 0.6182
29.1400 19.3956 0.6242
29.1600 19.4089 0.6158
29.1800 19.4222 0.6234
29.2000 19.4355 0.6244
29.2200 19.4489 0.6180
29.2400 19.4622 0.6207
29.2600 19.4756 0.6254
29.2800 19.4889 0.6161
29.3000 19.5023 0.6223
29.3200 19.5156 0.6276
29.3400 19.5290 0.6143
29.3600 19.5423 0.6256
29.3800 19.5556 0.6284
29.4000 19.5690 0.6121
29.4200 19.5823 0.6314
29.4400 19.5956 0.6297
29.4600 19.6089 0.6148
29.4800 19.6222 0.6314
29.5000 19.6356 0.6245
29.5200 19.6489 0.6197
29.5400 19.6622 0.6356
29.5600 19.6755 0.6252
29.5800 19.6889 0.6222
29.6000 19.7022 0.6320
29.6200 19.7156 0.6275
29.6400 19.7289 0.6220
29.6600 19.7422 0.6267
29.6800 19.7556 0.6270
29.7000 19.7689 0.6293
29.7200 19.7822 0.6344
29.7400 19.7956 0.6280
29.7600 19.8090 0.6289
29.7800 19.8223 0.6305
29.8000 19.8356 0.6265
29.8200 19.8489 0.6317
29.8400 19.8622 0.6327
29.8600 19.8756 0.6319
29.8800 19.8889 0.6289
29.9000 19.9022 0.6280
29.9200 19.9155 0.6362
29.9400 19.9289 0.6325
29.9600 19.9422 0.6315
29.9800 19.9556 0.6336
30.0000 19.9689 0.6329
30.0200 19.9823 0.6332
30.0400 19.9957 0.6324
30.0600 20.0090 0.6324
30.0800 20.0223 0.6346
30.1000 20.0356 0.6326
30.1200 20.0490 0.6363
30.1400 20.0623 0.6396
30.1600 20.0756 0.6315
30.1800 20.0889 0.6410
30.2000 20.1022 0.6441
30.2200 20.1156 0.6276
30.2400 20.1289 0.6425
30.2600 20.1422 0.6448
30.2800 20.1555 0.6293
30.3000 20.1689 0.6444
30.3200 20.1822 0.6409
30.3400 20.1955 0.6263
30.3600 20.2089 0.6485
30.3800 20.2222 0.6418
30.4000 20.2356 0.6285
30.4200 20.2490 0.6459
30.4400 20.2623 0.6451
30.4600 20.2756 0.6327
30.4800 20.2890 0.6438
30.5000 20.3023 0.6371
30.5200 20.3156 0.6366
30.5400 20.3289 0.6553
30.5600 20.3422 0.6342
30.5800 20.3555 0.6411
30.6000 20.3689 0.6519
30.6200 20.3822 0.6358
30.6400 20.3955 0.6449
30.6600 20.4089 0.6550
30.6800 20.4223 0.6333
30.7000 20.4356 0.6458
30.7200 20.4489 0.6532
30.7400 20.4623 0.6352
30.7600 20.4756 0.6500
30.7800 20.4890 0.6532
30.8000 20.5023 0.6360
30.8200 20.5156 0.6556
30.8400 20.5289 0.6463
30.8600 20.5423 0.6364
30.8800 20.5556 0.6588
30.9000 20.5689 0.6458
30.9200 20.5823 0.6452
30.9400 20.5956 0.6578
30.9600 20.6090 0.6432
30.9800 20.6222 0.6480
31.0000 20.6355 0.6579
31.0200 20.6489 0.6436
31.0400 20.6622 0.6506
31.0600 20.6755 0.6576
31.0800 20.6889 0.6403
31.1000 20.7022 0.6581
31.1200 20.7156 0.6538
31.1400 20.7289 0.6422
31.1600 20.7423 0.6606
31.1800 20.7556 0.6546
31.2000 20.7689 0.6418
31.2200 20.7823 0.6617
31.2400 20.7956 0.6508
31.2600 20.8089 0.6454
31.2800 20.8223 0.6611
31.3000 20.8356 0.6539
31.3200 20.8489 0.6474
31.3400 20.8622 0.6582
31.3600 20.8755 0.6566
31.3800 20.8888 0.6511
31.4000 20.9022 0.6559
31.4200 20.9155 0.6560
31.4400 20.9288 0.6541
31.4600 20.9422 0.6581
31.4800 20.9556 0.6581
31.5000 20.9690 0.6571
31.5200 20.9823 0.6591
31.5400 20.9956 0.6599
31.5600 21.0089 0.6635
31.5800 21.0223 0.6583
31.6000 21.0356 0.6561
31.6200 21.0489 0.6633
31.6400 21.0622 0.6578
31.6600 21.0756 0.6598
31.6800 21.0889 0.6611
31.7000 21.1022 0.6600
31.7200 21.1155 0.6661
31.7400 21.1289 0.6597
31.7600 21.1422 0.6590
31.7800 21.1556 0.6680
31.8000 21.1689 0.6609
31.8200 21.1822 0.6638
31.8400 21.1956 0.6702
31.8600 21.2089 0.6572
31.8800 21.2223 0.6670
31.9000 21.2356 0.6664
31.9200 21.2490 0.6628
31.9400 21.2623 0.6663
31.9600 21.2757 0.6663
31.9800 21.2889 0.6616
32.0000 21.3022 0.6695
32.0200 21.3156 0.6679
32.0400 21.3289 0.6612
32.0600 21.3422 0.6702
32.0800 21.3555 0.6703
32.1000 21.3688 0.6661
32.1200 21.3822 0.6704
32.1400 21.3956 0.6642
32.1600 21.4089 0.6684
32.1800 21.4222 0.6741
32.2000 21.4356 0.6643
32.2200 21.4490 0.6699
32.2400 21.4623 0.6699
32.2600 21.4756 0.6668
32.2800 21.4889 0.6749
32.3000 21.5023 0.6694
32.3200 21.5156 0.6657
32.3400 21.5289 0.6794
32.3600 21.5422 0.6692
32.3800 21.5556 0.6692
32.4000 21.5689 0.6745
32.4200 21.5822 0.6713
32.4400 21.5956 0.6715
32.4600 21.6089 0.6758
32.4800 21.6222 0.6709
32.5000 21.6356 0.6722
32.5200 21.6489 0.6734
32.5400 21.6622 0.6766
32.5600 21.6756 0.6768
32.5800 21.6890 0.6693
32.6000 21.7023 0.6753
32.6200 21.7156 0.6806
32.6400 21.7289 0.6691
32.6600 21.7423 0.6803
32.6800 21.7556 0.6774
32.7000 21.7689 0.6712
32.7200 21.7822 0.6817
32.7400 21.7956 0.6764
32.7600 21.8089 0.6736
32.7800 21.8222 0.6828
32.8000 21.8355 0.6774
32.8200 21.8489 0.6712
32.8400 21.8622 0.6848
32.8600 21.8756 0.6825
32.8800 21.8889 0.6740
32.9000 21.9022 0.6863
32.9200 21.9156 0.6804
32.9400 21.9289 0.6747
32.9600 21.9423 0.6890
32.9800 21.9556 0.6794
33.0000 21.9689 0.6745
33.0200 21.9822 0.6879
33.0400 21.9956 0.6790
33.0600 22.0089 0.6785
33.0800 22.0223 0.6954
33.1000 22.0356 0.6732
33.1200 22.0490 0.6796
33.1400 22.0623 0.6924
33.1600 22.0756 0.6775
33.1800 22.0889 0.6843
33.2000 22.1022 0.6944
33.2200 22.1155 0.6771
33.2400 22.1288 0.6875
33.2600 22.1422 0.6922
33.2800 22.1556 0.6802
33.3000 22.1690 0.6927
33.3200 22.1823 0.6868
33.3400 22.1956 0.6809
33.3600 22.2090 0.6941
33.3800 22.2223 0.6895
33.4000 22.2357 0.6855
33.4200 22.2490 0.6935
33.4400 22.2623 0.6860
33.4600 22.2756 0.6878
33.4800 22.2889 0.6921
33.5000 22.3022 0.6868
33.5200 22.3155 0.6937
33.5400 22.3288 0.6931
33.5600 22.3422 0.6872
33.5800 22.3555 0.6976
33.6000 22.3689 0.6931
33.6200 22.3822 0.6908
33.6400 22.3956 0.6959
33.6600 22.4090 0.6920
33.6800 22.4223 0.6896
33.7000 22.4356 0.6977
33.7200 22.4490 0.6935
33.7400 22.4623 0.6920
33.7600 22.4757 0.6961
33.7800 22.4889 0.6945
33.8000 22.5022 0.6978
33.8200 22.5155 0.7003
33.8400 22.5289 0.6934
33.8600 22.5422 0.6988
33.8800 22.5555 0.6953
33.9000 22.5688 0.6995
33.9200 22.5822 0.6993
33.9400 22.5956 0.6962
33.9600 22.6089 0.7007
33.9800 22.6222 0.7006
34.0000 22.6356 0.6982
34.0200 22.6489 0.7006
34.0400 22.6623 0.6976
34.0600 22.6756 0.7025
34.0800 22.6889 0.7048
34.1000 22.7023 0.6973
34.1200 22.7156 0.7031
34.1400 22.7289 0.7081
34.1600 22.7422 0.6989
34.1800 22.7556 0.7066
34.2000 22.7689 0.7061
34.2200 22.7822 0.7009
34.2400 22.7955 0.7084
34.2600 22.8088 0.7053
34.2800 22.8222 0.7056
34.3000 22.8356 0.7101
34.3200 22.8489 0.7081
34.3400 22.8622 0.7021
34.3600 22.8756 0.7096
34.3800 22.8890 0.7072
34.4000 22.9023 0.7029
34.4200 22.9156 0.7110
34.4400 22.9290 0.7116
34.4600 22.9423 0.7021
34.4800 22.9556 0.7134
34.5000 22.9689 0.7089
34.5200 22.9822 0.7075
34.5400 22.9955 0.7104
34.5600 23.0089 0.7120
34.5800 23.0222 0.7063
34.6000 23.0355 0.7113
34.6200 23.0489 0.7156
34.6400 23.0622 0.7054
34.6600 23.0755 0.7116
34.6800 23.0889 0.7184
34.7000 23.1022 0.7078
34.7200 23.1156 0.7171
34.7400 23.1289 0.7143
34.7600 23.1423 0.7094
34.7800 23.1556 0.7166
34.8000 23.1689 0.7176
34.8200 23.1823 0.7091
34.8400 23.1957 0.7192
34.8600 23.2090 0.7179
34.8800 23.2223 0.7124
34.9000 23.2356 0.7212
34.9200 23.2489 0.7174
34.9400 23.2622 0.7170
34.9600 23.2755 0.7210
34.9800 23.2888 0.7148
35.0000 23.3022 0.7193
35.0200 23.3155 0.7194
35.0400 23.3289 0.7199
35.0600 23.3422 0.7183
35.0800 23.3556 0.7170
35.1000 23.3689 0.7193
35.1200 23.3823 0.7191
35.1400 23.3956 0.7220
35.1600 23.4089 0.7241
35.1800 23.4223 0.7187
35.2000 23.4356 0.7215
35.2200 23.4489 0.7249
35.2400 23.4623 0.7203
35.2600 23.4756 0.7262
35.2800 23.4889 0.7283
35.3000 23.5022 0.7164
35.3200 23.5155 0.7222
35.3400 23.5288 0.7331
35.3600 23.5422 0.7186
35.3800 23.5555 0.7267
35.4000 23.5688 0.7280
35.4200 23.5822 0.7203
35.4400 23.5956 0.7267
35.4600 23.6090 0.7277
35.4800 23.6223 0.7205
35.5000 23.6357 0.7278
35.5200 23.6490 0.7299
35.5400 23.6623 0.7237
35.5600 23.6757 0.7285
35.5800 23.6890 0.7347
35.6000 23.7022 0.7241
35.6200 23.7155 0.7288
35.6400 23.7289 0.7349
35.6600 23.7422 0.7268
35.6800 23.7555 0.7278
35.7000 23.7689 0.7371
35.7200 23.7822 0.7223
35.7400 23.7956 0.7283
35.7600 23.8089 0.7391
35.7800 23.8222 0.7256
35.8000 23.8356 0.7322
35.8200 23.8490 0.7364
35.8400 23.8623 0.7239
35.8600 23.8756 0.7360
35.8800 23.8890 0.7421
35.9000 23.9023 0.7254
35.9200 23.9156 0.7324
35.9400 23.9289 0.7403
35.9600 23.9422 0.7289
35.9800 23.9556 0.7342
36.0000 23.9689 0.7403
36.0200 23.9822 0.7300
36.0400 23.9956 0.7369
36.0600 24.0089 0.7407
36.0800 24.0222 0.7332
36.1000 24.0356 0.7363
36.1200 24.0489 0.7418
36.1400 24.0623 0.7363
36.1600 24.0756 0.7392
36.1800 24.0890 0.7357
36.2000 24.1023 0.7354
36.2200 24.1156 0.7382
36.2400 24.1289 0.7435
36.2600 24.1422 0.7332
36.2800 24.1556 0.7400
36.3000 24.1690 0.7456
36.3200 24.1822 0.7332
36.3400 24.1955 0.7403
36.3600 24.2089 0.7481
36.3800 24.2222 0.7338
36.4000 24.2356 0.7407
36.4200 24.2489 0.7528
36.4400 24.2622 0.7348
36.4600 24.2755 0.7390
36.4800 24.2889 0.7525
36.5000 24.3022 0.7344
36.5200 24.3156 0.7438
36.5400 24.3289 0.7562
36.5600 24.3423 0.7347
36.5800 24.3556 0.7414
36.6000 24.3690 0.7552
36.6200 24.3823 0.7363
36.6400 24.3956 0.7474
36.6600 24.4089 0.7520
36.6800 24.4222 0.7373
36.7000 24.4355 0.7483
36.7200 24.4489 0.7518
36.7400 24.4622 0.7399
36.7600 24.4756 0.7472
36.7800 24.4889 0.7572
36.8000 24.5022 0.7389
36.8200 24.5156 0.7466
36.8400 24.5289 0.7575
36.8600 24.5422 0.7427
36.8800 24.5555 0.7496
36.9000 24.5689 0.7546
36.9200 24.5823 0.7423
36.9400 24.5956 0.7503
36.9600 24.6089 0.7586
36.9800 24.6223 0.7489
37.0000 24.6356 0.7533
37.0200 24.6490 0.7528
37.0400 24.6623 0.7486
37.0600 24.6756 0.7571
37.0800 24.6889 0.7556
37.1000 24.7022 0.7502
37.1200 24.7155 0.7534
37.1400 24.7288 0.7564
37.1600 24.7422 0.7532
37.1800 24.7555 0.7595
37.2000 24.7689 0.7579
37.2200 24.7822 0.7545
37.2400 24.7956 0.7586
37.2600 24.8090 0.7561
37.2800 24.8223 0.7559
37.3000 24.8357 0.7560
37.3200 24.8490 0.7574
37.3400 24.8623 0.7596
37.3600 24.8756 0.7579
37.3800 24.8890 0.7591
37.4000 24.9023 0.7560
37.4200 24.9156 0.7611
37.4400 24.9289 0.7631
37.4600 24.9422 0.7576
37.4800 24.9555 0.7591
37.5000 24.9688 0.7661
37.5200 24.9822 0.7637
37.5400 24.9955 0.7591
37.5600 25.0089 0.7671
37.5800 25.0222 0.7642
37.6000 25.0356 0.7602
37.6200 25.0489 0.7680
37.6400 25.0623 0.7636
37.6600 25.0756 0.7677
37.6800 25.0889 0.7701
37.7000 25.1023 0.7643
37.7200 25.1156 0.7672
37.7400 25.1290 0.7690
37.7600 25.1423 0.7641
37.7800 25.1555 0.7704
37.8000 25.1689 0.7684
37.8200 25.1822 0.7631
37.8400 25.1955 0.7766
37.8600 25.2089 0.7665
37.8800 25.2222 0.7677
37.9000 25.2356 0.7778
37.9200 25.2490 0.7653
37.9400 25.2623 0.7713
37.9600 25.2756 0.7797
37.9800 25.2890 0.7674
38.0000 25.3023 0.7691
38.0200 25.3156 0.7806
38.0400 25.3289 0.7701
38.0600 25.3422 0.7750
38.0800 25.3556 0.7827
38.1000 25.3689 0.7693
38.1200 25.3823 0.7758
38.1400 25.3956 0.7789
38.1600 25.4089 0.7701
38.1800 25.4223 0.7797
38.2000 25.4356 0.7753
38.2200 25.4489 0.7741
38.2400 25.4622 0.7821
38.2600 25.4756 0.7798
38.2800 25.4889 0.7780
38.3000 25.5022 0.7848
38.3200 25.5155 0.7757
38.3400 25.5289 0.7765
38.3600 25.5423 0.7845
38.3800 25.5556 0.7790
38.4000 25.5689 0.7833
38.4200 25.5823 0.7865
38.4400 25.5956 0.7771
38.4600 25.6090 0.7815
38.4800 25.6223 0.7855
38.5000 25.6356 0.7878
38.5200 25.6489 0.7790
38.5400 25.6623 0.7862
38.5600 25.6756 0.7892
38.5800 25.6889 0.7827
38.6000 25.7022 0.7862
38.6200 25.7155 0.7928
38.6400 25.7289 0.7805
38.6600 25.7422 0.7848
38.6800 25.7555 0.7925
38.7000 25.7689 0.7850
38.7200 25.7823 0.7868
38.7400 25.7957 0.7916
38.7600 25.8090 0.7818
38.7800 25.8223 0.7952
38.8000 25.8357 0.7944
38.8200 25.8490 0.7820
38.8400 25.8623 0.7951
38.8600 25.8756 0.7932
38.8800 25.8889 0.7864
38.9000 25.9022 0.7978
38.9200 25.9156 0.7918
38.9400 25.9289 0.7893
38.9600 25.9422 0.7945
38.9800 25.9556 0.7942
39.0000 25.9689 0.7888
39.0200 25.9822 0.8005
39.0400 25.9956 0.7960
39.0600 26.0089 0.7921
39.0800 26.0223 0.8013
39.1000 26.0356 0.7924
39.1200 26.0489 0.7966
39.1400 26.0623 0.7998
39.1600 26.0756 0.7913
39.1800 26.0890 0.7961
39.2000 26.1023 0.8009
39.2200 26.1156 0.7978
39.2400 26.1289 0.7971
39.2600 26.1423 0.8006
39.2800 26.1556 0.8002
39.3000 26.1688 0.8003
39.3200 26.1822 0.8020
39.3400 26.1955 0.7989
39.3600 26.2089 0.8031
39.3800 26.2222 0.7967
39.4000 26.2356 0.8030
39.4200 26.2489 0.8044
39.4400 26.2623 0.7989
39.4600 26.2756 0.8013
39.4800 26.2889 0.8107
39.5000 26.3022 0.7987
39.5200 26.3156 0.7999
39.5400 26.3289 0.8103
39.5600 26.3423 0.8033
39.5800 26.3556 0.8047
39.6000 26.3689 0.8077
39.6200 26.3822 0.8019
39.6400 26.3956 0.8083
39.6600 26.4089 0.8088
39.6800 26.4222 0.8057
39.7000 26.4356 0.8127
39.7200 26.4489 0.8081
39.7400 26.4622 0.8045
39.7600 26.4755 0.8151
39.7800 26.4889 0.8064
39.8000 26.5023 0.8021
39.8200 26.5156 0.8154
39.8400 26.5290 0.8074
39.8600 26.5423 0.8097
39.8800 26.5556 0.8151
39.9000 26.5690 0.8041
39.9200 26.5823 0.8095
39.9400 26.5956 0.8200
39.9600 26.6089 0.8087
39.9800 26.6222 0.8108
40.0000 26.6355 0.8197
40.0200 26.6489 0.8087
40.0400 26.6622 0.8150
40.0600 26.6755 0.8234
40.0800 26.6889 0.8106
40.1000 26.7022 0.8102
40.1200 26.7156 0.8218
40.1400 26.7289 0.8163
40.1600 26.7422 0.8112
40.1800 26.7556 0.8250
40.2000 26.7689 0.8165
40.2200 26.7822 0.8165
40.2400 26.7956 0.8232
40.2600 26.8089 0.8146
40.2800 26.8223 0.8223
40.3000 26.8356 0.8256
40.3200 26.8490 0.8190
40.3400 26.8623 0.8205
40.3600 26.8756 0.8268
40.3800 26.8889 0.8161
40.4000 26.9022 0.8226
40.4200 26.9155 0.8278
40.4400 26.9289 0.8150
40.4600 26.9422 0.8219
40.4800 26.9555 0.8249
40.5000 26.9689 0.8233
40.5200 26.9823 0.8263
40.5400 26.9956 0.8240
40.5600 27.0090 0.8272
40.5800 27.0223 0.8221
40.6000 27.0356 0.8274
40.6200 27.0490 0.8249
40.6400 27.0623 0.8270
40.6600 27.0756 0.8305
40.6800 27.0889 0.8275
40.7000 27.1022 0.8269
40.7200 27.1156 0.8326
40.7400 27.1289 0.8248
40.7600 27.1422 0.8266
40.7800 27.1555 0.8360
40.8000 27.1689 0.8269
40.8200 27.1822 0.8290
40.8400 27.1955 0.8356
40.8600 27.2089 0.8288
40.8800 27.2223 0.8310
40.9000 27.2356 0.8381
40.9200 27.2490 0.8293
40.9400 27.2623 0.8375
40.9600 27.2756 0.8392
40.9800 27.2890 0.8305
41.0000 27.3023 0.8379
41.0200 27.3156 0.8353
41.0400 27.3289 0.8363
41.0600 27.3422 0.8413
41.0800 27.3556 0.8356
41.1000 27.3689 0.8377
41.1200 27.3822 0.8437
41.1400 27.3955 0.8362
41.1600 27.4089 0.8389
41.1800 27.4222 0.8412
41.2000 27.4356 0.8411
41.2200 27.4489 0.8443
41.2400 27.4623 0.8395
41.2600 27.4756 0.8417
41.2800 27.4889 0.8501
41.3000 27.5023 0.8408
41.3200 27.5156 0.8412
41.3400 27.5290 0.8503
41.3600 27.5423 0.8448
41.3800 27.5556 0.8426
41.4000 27.5689 0.8505
41.4200 27.5823 0.8481
41.4400 27.5956 0.8420
41.4600 27.6089 0.8469
41.4800 27.6222 0.8486
41.5000 27.6355 0.8472
41.5200 27.6489 0.8504
41.5400 27.6622 0.8504
41.5600 27.6756 0.8458
41.5800 27.6889 0.8538
41.6000 27.7023 0.8510
41.6200 27.7157 0.8498
41.6400 27.7290 0.8537
41.6600 27.7423 0.8498
41.6800 27.7556 0.8536
41.7000 27.7690 0.8564
41.7200 27.7823 0.8504
41.7400 27.7956 0.8591
41.7600 27.8089 0.8612
41.7800 27.8222 0.8546
41.8000 27.8356 0.8519
41.8200 27.8489 0.8628
41.8400 27.8622 0.8565
41.8600 27.8756 0.8539
41.8800 27.8889 0.8649
41.9000 27.9022 0.8587
41.9200 27.9155 0.8506
41.9400 27.9289 0.8633
41.9600 27.9422 0.8641
41.9800 27.9556 0.8549
42.0000 27.9690 0.8679
42.0200 27.9823 0.8622
42.0400 27.9956 0.8579
42.0600 28.0090 0.8651
42.0800 28.0223 0.8646
42.1000 28.0356 0.8629
42.1200 28.0489 0.8685
42.1400 28.0622 0.8635
42.1600 28.0756 0.8643
42.1800 28.0889 0.8738
42.2000 28.1022 0.8647
42.2200 28.1155 0.8616
42.2400 28.1288 0.8765
42.2600 28.1422 0.8687
42.2800 28.1555 0.8649
42.3000 28.1689 0.8771
42.3200 28.1823 0.8700
42.3400 28.1956 0.8628
42.3600 28.2089 0.8782
42.3800 28.2222 0.8710
42.4000 28.2356 0.8714
42.4200 28.2489 0.8760
42.4400 28.2623 0.8664
42.4600 28.2756 0.8749
42.4800 28.2889 0.8790
42.5000 28.3022 0.8691
42.5200 28.3156 0.8792
42.5400 28.3289 0.8733
42.5600 28.3422 0.8736
42.5800 28.3555 0.8815
42.6000 28.3688 0.8780
42.6200 28.3822 0.8746
42.6400 28.3955 0.8817
42.6600 28.4089 0.8780
42.6800 28.4223 0.8747
42.7000 28.4357 0.8833
42.7200 28.4490 0.8777
42.7400 28.4624 0.8827
42.7600 28.4757 0.8797
42.7800 28.4890 0.8765
42.8000 28.5023 0.8871
42.8200 28.5156 0.8817
42.8400 28.5289 0.8826
42.8600 28.5422 0.8855
42.8800 28.5555 0.8810
42.9000 28.5689 0.8842
42.9200 28.5822 0.8880
42.9400 28.5955 0.8817
42.9600 28.6089 0.8866
42.9800 28.6223 0.8866
43.0000 28.6356 0.8829
43.0200 28.6489 0.8923
43.0400 28.6623 0.8879
43.0600 28.6756 0.8850
43.0800 28.6890 0.8942
43.1000 28.7023 0.8891
43.1200 28.7156 0.8853
43.1400 28.7290 0.8977
43.1600 28.7423 0.8938
43.1800 28.7556 0.8862
43.2000 28.7689 0.8978
43.2200 28.7822 0.8928
43.2400 28.7956 0.8867
43.2600 28.8089 0.9001
43.2800 28.8222 0.8902
43.3000 28.8355 0.8925
43.3200 28.8489 0.9001
43.3400 28.8622 0.8892
43.3600 28.8756 0.8985
43.3800 28.8889 0.9005
43.4000 28.9023 0.8964
43.4200 28.9156 0.8932
43.4400 28.9290 0.8994
43.4600 28.9423 0.9003
43.4800 28.9556 0.8972
43.5000 28.9689 0.9000
43.5200 28.9823 0.9017
43.5400 28.9956 0.8989
43.5600 29.0089 0.9052
43.5800 29.0223 0.9009
43.6000 29.0356 0.9004
43.6200 29.0489 0.9075
43.6400 29.0622 0.9037
43.6600 29.0755 0.9023
43.6800 29.0889 0.9127
43.7000 29.1022 0.9026
43.7200 29.1156 0.8987
43.7400 29.1289 0.9141
43.7600 29.1422 0.9068
43.7800 29.1556 0.8981
43.8000 29.1690 0.9150
43.8200 29.1823 0.9049
43.8400 29.1956 0.9063
43.8600 29.2090 0.9162
43.8800 29.2223 0.9103
43.9000 29.2356 0.9060
43.9200 29.2489 0.9175
43.9400 29.2622 0.9106
43.9600 29.2756 0.9084
43.9800 29.2889 0.9212
44.0000 29.3022 0.9130
44.0200 29.3155 0.9098
44.0400 29.3289 0.9235
44.0600 29.3422 0.9105
44.0800 29.3556 0.9115
44.1000 29.3689 0.9250
44.1200 29.3822 0.9101
44.1400 29.3956 0.9143
44.1600 29.4089 0.9253
44.1800 29.4223 0.9130
44.2000 29.4356 0.9155
44.2200 29.4490 0.9268
44.2400 29.4623 0.9118
44.2600 29.4756 0.9204
44.2800 29.4889 0.9239
44.3000 29.5022 0.9167
44.3200 29.5156 0.9225
44.3400 29.5289 0.9265
44.3600 29.5422 0.9225
44.3800 29.5555 0.9213
44.4000 29.5688 0.9287
44.4200 29.5822 0.9266
44.4400 29.5955 0.9217
44.4600 29.6089 0.9317
44.4800 29.6223 0.9264
44.5000 29.6356 0.9259
44.5200 29.6490 0.9230
44.5400 29.6623 0.9282
44.5600 29.6756 0.9299
44.5800 29.6890 0.9287
44.6000 29.7023 0.9282
44.6200 29.7156 0.9280
44.6400 29.7289 0.9351
44.6600 29.7422 0.9297
44.6800 29.7556 0.9331
44.7000 29.7689 0.9381
44.7200 29.7822 0.9251
44.7400 29.7955 0.9387
44.7600 29.8088 0.9367
44.7800 29.8222 0.9301
44.8000 29.8355 0.9385
44.8200 29.8489 0.9369
44.8400 29.8622 0.9315
44.8600 29.8756 0.9387
44.8800 29.8890 0.9376
44.9000 29.9023 0.9400
44.9200 29.9156 0.9409
44.9400 29.9290 0.9368
44.9600 29.9423 0.9414
44.9800 29.9556 0.9463
45.0000 29.9689 0.9375
45.0200 29.9822 0.9448
45.0400 29.9955 0.9467
45.0600 30.0089 0.9385
45.0800 30.0222 0.9480
45.1000 30.0355 0.9456
45.1200 30.0489 0.9472
45.1400 30.0623 0.9460
45.1600 30.0756 0.9395
45.1800 30.0889 0.9530
45.2000 30.1023 0.9486
45.2200 30.1156 0.9437
45.2400 30.1290 0.9514
45.2600 30.1423 0.9485
45.2800 30.1556 0.9467
45.3000 30.1689 0.9559
45.3200 30.1823 0.9534
45.3400 30.1956 0.9498
45.3600 30.2089 0.9553
45.3800 30.2223 0.9509
45.4000 30.2356 0.9526
45.4200 30.2490 0.9572
45.4400 30.2623 0.9478
45.4600 30.2756 0.9550
45.4800 30.2889 0.9563
45.5000 30.3022 0.9524
45.5200 30.3156 0.9596
45.5400 30.3289 0.9596
45.5600 30.3422 0.9544
45.5800 30.3556 0.9609
45.6000 30.3689 0.9634
45.6200 30.3822 0.9538
45.6400 30.3956 0.9654
45.6600 30.4089 0.9639
45.6800 30.4223 0.9548
45.7000 30.4356 0.9674
45.7200 30.4489 0.9638
45.7400 30.4622 0.9598
45.7600 30.4756 0.9734
45.7800 30.4889 0.9622
45.8000 30.5022 0.9612
45.8200 30.5155 0.9742
45.8400 30.5289 0.9666
45.8600 30.5422 0.9647
45.8800 30.5555 0.9796
45.9000 30.5689 0.9648
45.9200 30.5822 0.9653
45.9400 30.5956 0.9800
45.9600 30.6090 0.9601
45.9800 30.6223 0.9707
46.0000 30.6356 0.9839
46.0200 30.6489 0.9636
46.0400 30.6623 0.9757
46.0600 30.6756 0.9859
46.0800 30.6889 0.9634
46.1000 30.7022 0.9765
46.1200 30.7156 0.9892
46.1400 30.7289 0.9654
46.1600 30.7422 0.9827
46.1800 30.7555 0.9918
46.2000 30.7689 0.9666
46.2200 30.7822 0.9868
46.2400 30.7956 0.9853
46.2600 30.8089 0.9725
46.2800 30.8222 0.9883
46.3000 30.8356 0.9845
46.3200 30.8489 0.9771
46.3400 30.8623 0.9897
46.3600 30.8756 0.9827
46.3800 30.8890 0.9783
46.4000 30.9023 0.9953
46.4200 30.9156 0.9810
46.4400 30.9289 0.9801
46.4600 30.9422 0.9977
46.4800 30.9556 0.9842
46.5000 30.9689 0.9845
46.5200 30.9822 0.9961
46.5400 30.9955 0.9875
46.5600 31.0088 0.9937
46.5800 31.0222 0.9935
46.6000 31.0355 0.9851
46.6200 31.0489 0.9975
46.6400 31.0622 0.9980
46.6600 31.0756 0.9890
46.6800 31.0890 0.9941
46.7000 31.1023 0.9990
46.7200 31.1156 0.9946
46.7400 31.1289 1.0008
46.7600 31.1423 0.9970
46.7800 31.1556 0.9956
46.8000 31.1690 1.0013
46.8200 31.1823 0.9990
46.8400 31.1956 1.0063
46.8600 31.2089 0.9996
46.8800 31.2222 0.9992
46.9000 31.2356 1.0065
46.9200 31.2489 0.9975
46.9400 31.2622 1.0056
46.9600 31.2756 1.0113
46.9800 31.2889 0.9982
47.0000 31.3022 1.0094
47.0200 31.3156 1.0064
47.0400 31.3290 1.0021
47.0600 31.3423 1.0109
47.0800 31.3556 1.0103
47.1000 31.3689 1.0036
47.1200 31.3823 1.0117
47.1400 31.3956 1.0140
47.1600 31.4089 1.0046
47.1800 31.4222 1.0155
47.2000 31.4356 1.0165
47.2200 31.4489 1.0092
47.2400 31.4622 1.0158
47.2600 31.4755 1.0138
47.2800 31.4889 1.0166
47.3000 31.5022 1.0136
47.3200 31.5156 1.0170
47.3400 31.5289 1.0186
47.3600 31.5422 1.0155
47.3800 31.5556 1.0205
47.4000 31.5689 1.0185
47.4200 31.5822 1.0202
47.4400 31.5956 1.0217
47.4600 31.6089 1.0234
47.4800 31.6223 1.0172
47.5000 31.6356 1.0222
47.5200 31.6489 1.0261
47.5400 31.6622 1.0155
47.5600 31.6756 1.0291
47.5800 31.6890 1.0292
47.6000 31.7023 1.0118
47.6200 31.7156 1.0333
47.6400 31.7289 1.0285
47.6600 31.7422 1.0202
47.6800 31.7555 1.0346
47.7000 31.7688 1.0307
47.7200 31.7822 1.0224
47.7400 31.7956 1.0369
47.7600 31.8090 1.0336
47.7800 31.8223 1.0255
47.8000 31.8357 1.0357
47.8200 31.8490 1.0346
47.8400 31.8623 1.0291
47.8600 31.8757 1.0353
47.8800 31.8890 1.0344
47.9000 31.9023 1.0331
47.9200 31.9156 1.0366
47.9400 31.9289 1.0375
47.9600 31.9422 1.0304
47.9800 31.9555 1.0380
48.0000 31.9688 1.0371
48.0200 31.9822 1.0367
48.0400 31.9955 1.0436
48.0600 32.0089 1.0399
48.0800 32.0222 1.0368
48.1000 32.0356 1.0429
48.1200 32.0490 1.0400
48.1400 32.0623 1.0417
48.1600 32.0757 1.0470
48.1800 32.0890 1.0415
48.2000 32.1023 1.0406
48.2200 32.1157 1.0479
48.2400 32.1289 1.0452
48.2600 32.1422 1.0436
48.2800 32.1555 1.0513
48.3000 32.1689 1.0436
48.3200 32.1822 1.0470
48.3400 32.1955 1.0552
48.3600 32.2089 1.0477
48.3800 32.2222 1.0559
48.4000 32.2355 1.0554
48.4200 32.2489 1.0519
48.4400 32.2622 1.0553
48.4600 32.2756 1.0595
48.4800 32.2889 1.0500
48.5000 32.3023 1.0505
48.5200 32.3156 1.0602
48.5400 32.3289 1.0531
48.5600 32.3423 1.0585
48.5800 32.3556 1.0591
48.6000 32.3689 1.0556
48.6200 32.3822 1.0596
48.6400 32.3956 1.0598
48.6600 32.4089 1.0616
48.6800 32.4223 1.0621
48.7000 32.4355 1.0633
48.7200 32.4488 1.0630
48.7400 32.4622 1.0579
48.7600 32.4755 1.0679
48.7800 32.4889 1.0643
48.8000 32.5022 1.0634
48.8200 32.5156 1.0732
48.8400 32.5290 1.0643
48.8600 32.5423 1.0631
48.8800 32.5556 1.0776
48.9000 32.5689 1.0656
48.9200 32.5823 1.0697
48.9400 32.5956 1.0748
48.9600 32.6089 1.0637
48.9800 32.6222 1.0733
49.0000 32.6356 1.0791
49.0200 32.6489 1.0686
49.0400 32.6622 1.0697
49.0600 32.6756 1.0791
49.0800 32.6889 1.0685
49.1000 32.7022 1.0778
49.1200 32.7156 1.0783
49.1400 32.7289 1.0711
49.1600 32.7422 1.0803
49.1800 32.7556 1.0778
49.2000 32.7689 1.0782
49.2200 32.7823 1.0807
49.2400 32.7956 1.0782
49.2600 32.8089 1.0820
49.2800 32.8223 1.0835
49.3000 32.8357 1.0831
49.3200 32.8490 1.0814
49.3400 32.8623 1.0878
49.3600 32.8756 1.0799
49.3800 32.8889 1.0829
49.4000 32.9022 1.0897
49.4200 32.9156 1.0831
49.4400 32.9289 1.0894
49.4600 32.9422 1.0906
49.4800 32.9556 1.0840
49.5000 32.9689 1.0921
49.5200 32.9822 1.0944
49.5400 32.9956 1.0871
49.5600 33.0089 1.0923
49.5800 33.0223 1.0940
49.6000 33.0356 1.0838
49.6200 33.0489 1.0973
49.6400 33.0623 1.0974
49.6600 33.0756 1.0888
49.6800 33.0890 1.1001
49.7000 33.1023 1.0922
49.7200 33.1156 1.0948
49.7400 33.1289 1.0971
49.7600 33.1422 1.0995
49.7800 33.1555 1.0954
49.8000 33.1688 1.1033
49.8200 33.1821 1.1020
49.8400 33.1955 1.0976
49.8600 33.2088 1.1022
49.8800 33.2222 1.1017
49.9000 33.2355 1.1042
49.9200 33.2489 1.1031
49.9400 33.2623 1.1061
49.9600 33.2757 1.1030
49.9800 33.2890 1.1048
50.0000 33.3023 1.1132
50.0200 33.3157 1.1035
50.0400 33.3290 1.1064
50.0600 33.3422 1.1188
50.0800 33.3555 1.1063
50.1000 33.3688 1.1129
50.1200 33.3822 1.1166
50.1400 33.3955 1.1044
50.1600 33.4088 1.1130
50.1800 33.4222 1.1210
50.2000 33.4355 1.1119
50.2200 33.4489 1.1145
50.2400 33.4622 1.1171
50.2600 33.4756 1.1123
50.2800 33.4889 1.1211
50.3000 33.5023 1.1206
50.3200 33.5156 1.1129
50.3400 33.5289 1.1254
50.3600 33.5423 1.1186
50.3800 33.5556 1.1173
50.4000 33.5689 1.1313
50.4200 33.5822 1.1219
50.4400 33.5956 1.1195
50.4600 33.6089 1.1316
50.4800 33.6223 1.1236
50.5000 33.6356 1.1255
50.5200 33.6489 1.1341
50.5400 33.6622 1.1276
50.5600 33.6756 1.1267
50.5800 33.6889 1.1363
50.6000 33.7022 1.1271
50.6200 33.7156 1.1321
50.6400 33.7290 1.1383
50.6600 33.7423 1.1309
50.6800 33.7556 1.1328
50.7000 33.7689 1.1395
50.7200 33.7823 1.1319
50.7400 33.7956 1.1356
50.7600 33.8090 1.1407
50.7800 33.8223 1.1334
50.8000 33.8356 1.1385
50.8200 33.8489 1.1475
50.8400 33.8623 1.1333
50.8600 33.8756 1.1411
50.8800 33.8889 1.1518
50.9000 33.9022 1.1359
50.9200 33.9156 1.1416
50.9400 33.9289 1.1500
50.9600 33.9422 1.1415
50.9800 33.9556 1.1479
51.0000 33.9689 1.1523
51.0200 33.9823 1.1492
51.0400 33.9956 1.1450
51.0600 34.0089 1.1532
51.0800 34.0223 1.1501
51.1000 34.0356 1.1466
51.1200 34.0489 1.1588
51.1400 34.0622 1.1529
51.1600 34.0756 1.1490
51.1800 34.0889 1.1594
51.2000 34.1022 1.1586
51.2200 34.1156 1.1462
51.2400 34.1289 1.1624
51.2600 34.1422 1.1624
51.2800 34.1555 1.1536
51.3000 34.1689 1.1639
51.3200 34.1822 1.1655
51.3400 34.1955 1.1590
51.3600 34.2089 1.1711
51.3800 34.2223 1.1606
51.4000 34.2356 1.1603
51.4200 34.2489 1.1722
51.4400 34.2623 1.1623
51.4600 34.2756 1.1666
51.4800 34.2890 1.1717
51.5000 34.3023 1.1645
51.5200 34.3156 1.1719
51.5400 34.3289 1.1720
51.5600 34.3422 1.1717
51.5800 34.3556 1.1693
51.6000 34.3688 1.1725
51.6200 34.3822 1.1765
51.6400 34.3955 1.1770
51.6600 34.4089 1.1739
51.6800 34.4222 1.1797
51.7000 34.4356 1.1771
51.7200 34.4489 1.1767
51.7400 34.4623 1.1843
51.7600 34.4757 1.1780
51.7800 34.4890 1.1795
51.8000 34.5023 1.1912
51.8200 34.5156 1.1809
51.8400 34.5290 1.1816
51.8600 34.5423 1.1895
51.8800 34.5556 1.1848
51.9000 34.5689 1.1870
51.9200 34.5822 1.1961
51.9400 34.5956 1.1848
51.9600 34.6089 1.1914
51.9800 34.6222 1.1952
52.0000 34.6355 1.1869
52.0200 34.6489 1.1923
52.0400 34.6622 1.1928
52.0600 34.6755 1.1933
52.0800 34.6889 1.1922
52.1000 34.7023 1.1958
52.1200 34.7157 1.1949
52.1400 34.7290 1.1950
52.1600 34.7423 1.2043
52.1800 34.7556 1.1982
52.2000 34.7690 1.1977
52.2200 34.7823 1.2043
52.2400 34.7955 1.1991
52.2600 34.8089 1.2035
52.2800 34.8222 1.2034
52.3000 34.8355 1.2030
52.3200 34.8489 1.2050
52.3400 34.8622 1.2113
52.3600 34.8756 1.2048
52.3800 34.8889 1.2075
52.4000 34.9023 1.2107
52.4200 34.9156 1.2062
52.4400 34.9289 1.2124
52.4600 34.9423 1.2127
52.4800 34.9556 1.2106
52.5000 34.9689 1.2165
52.5200 34.9822 1.2173
52.5400 34.9956 1.2108
52.5600 35.0089 1.2184
52.5800 35.0223 1.2175
52.6000 35.0356 1.2174
52.6200 35.0489 1.2206
52.6400 35.0623 1.2160
52.6600 35.0756 1.2195
52.6800 35.0889 1.2254
52.7000 35.1022 1.2258
52.7200 35.1155 1.2229
52.7400 35.1289 1.2247
52.7600 35.1422 1.2240
52.7800 35.1555 1.2234
52.8000 35.1689 1.2318
52.8200 35.1822 1.2276
52.8400 35.1956 1.2312
52.8600 35.2089 1.2303
52.8800 35.2223 1.2296
52.9000 35.2356 1.2357
52.9200 35.2490 1.2337
52.9400 35.2623 1.2295
52.9600 35.2756 1.2385
52.9800 35.2889 1.2338
53.0000 35.3023 1.2363
53.0200 35.3156 1.2431
53.0400 35.3289 1.2392
53.0600 35.3422 1.2412
53.0800 35.3555 1.2458
53.1000 35.3689 1.2369
53.1200 35.3822 1.2460
53.1400 35.3955 1.2451
53.1600 35.4089 1.2418
53.1800 35.4223 1.2493
53.2000 35.4356 1.2465
53.2200 35.4490 1.2484
53.2400 35.4623 1.2520
53.2600 35.4756 1.2509
53.2800 35.4890 1.2527
53.3000 35.5023 1.2523
53.3200 35.5156 1.2520
53.3400 35.5289 1.2601
53.3600 35.5422 1.2557
53.3800 35.5556 1.2534
53.4000 35.5689 1.2632
53.4200 35.5822 1.2560
53.4400 35.5956 1.2596
53.4600 35.6089 1.2650
53.4800 35.6222 1.2536
53.5000 35.6356 1.2630
53.5200 35.6489 1.2654
53.5400 35.6623 1.2615
53.5600 35.6756 1.2677
53.5800 35.6890 1.2696
53.6000 35.7023 1.2623
53.6200 35.7156 1.2730
53.6400 35.7290 1.2724
53.6600 35.7423 1.2622
53.6800 35.7556 1.2777
53.7000 35.7689 1.2754
53.7200 35.7822 1.2661
53.7400 35.7956 1.2816
53.7600 35.8089 1.2739
53.7800 35.8222 1.2757
53.8000 35.8355 1.2831
53.8200 35.8489 1.2774
53.8400 35.8622 1.2749
53.8600 35.8756 1.2871
53.8800 35.8889 1.2830
53.9000 35.9023 1.2794
53.9200 35.9156 1.2895
53.9400 35.9290 1.2820
53.9600 35.9423 1.2861
53.9800 35.9556 1.2896
54.0000 35.9690 1.2862
54.0200 35.9823 1.2907
54.0400 35.9956 1.2886
54.0600 36.0089 1.2924
54.0800 36.0222 1.2904
54.1000 36.0356 1.2930
54.1200 36.0489 1.2955
54.1400 36.0622 1.2951
54.1600 36.0755 1.2978
54.1800 36.0889 1.2936
54.2000 36.1022 1.3036
54.2200 36.1155 1.3003
54.2400 36.1289 1.3023
54.2600 36.1423 1.3036
54.2800 36.1556 1.3025
54.3000 36.1689 1.3040
54.3200 36.1823 1.3050
54.3400 36.1956 1.3089
54.3600 36.2090 1.3017
54.3800 36.2223 1.3065
54.4000 36.2356 1.3155
54.4200 36.2489 1.3103
54.4400 36.2622 1.3117
54.4600 36.2756 1.3184
54.4800 36.2889 1.3139
54.5000 36.3022 1.3153
54.5200 36.3155 1.3218
54.5400 36.3289 1.3153
54.5600 36.3423 1.3170
54.5800 36.3556 1.3288
54.6000 36.3689 1.3160
54.6200 36.3823 1.3191
54.6400 36.3956 1.3288
54.6600 36.4089 1.3189
54.6800 36.4222 1.3233
54.7000 36.4356 1.3302
54.7200 36.4489 1.3248
54.7400 36.4623 1.3224
54.7600 36.4756 1.3361
54.7800 36.4889 1.3293
54.8000 36.5023 1.3269
54.8200 36.5156 1.3364
54.8400 36.5289 1.3356
54.8600 36.5422 1.3346
54.8800 36.5555 1.3383
54.9000 36.5689 1.3386
54.9200 36.5822 1.3344
54.9400 36.5955 1.3419
54.9600 36.6089 1.3419
54.9800 36.6223 1.3401
55.0000 36.6357 1.3473
55.0200 36.6490 1.3375
55.0400 36.6623 1.3475
55.0600 36.6756 1.3535
55.0800 36.6890 1.3378
55.1000 36.7023 1.3527
55.1200 36.7156 1.3552
55.1400 36.7289 1.3422
55.1600 36.7422 1.3590
55.1800 36.7555 1.3514
55.2000 36.7689 1.3488
55.2200 36.7822 1.3620
55.2400 36.7955 1.3545
55.2600 36.8089 1.3545
55.2800 36.8222 1.3568
55.3000 36.8355 1.3590
55.3200 36.8489 1.3598
55.3400 36.8623 1.3640
55.3600 36.8756 1.3595
55.3800 36.8890 1.3632
55.4000 36.9023 1.3718
55.4200 36.9156 1.3601
55.4400 36.9290 1.3671
55.4600 36.9423 1.3729
55.4800 36.9556 1.3631
55.5000 36.9689 1.3739
55.5200 36.9822 1.3745
55.5400 36.9956 1.3744
55.5600 37.0089 1.3755
55.5800 37.0222 1.3784
55.6000 37.0355 1.3753
55.6200 37.0489 1.3802
55.6400 37.0622 1.3779
55.6600 37.0756 1.3802
55.6800 37.0889 1.3819
55.7000 37.1023 1.3779
55.7200 37.1156 1.3828
55.7400 37.1290 1.3860
55.7600 37.1423 1.3846
55.7800 37.1556 1.3915
55.8000 37.1690 1.3889
55.8200 37.1823 1.3871
55.8400 37.1956 1.3975
55.8600 37.2089 1.3919
55.8800 37.2223 1.3923
55.9000 37.2356 1.3951
55.9200 37.2489 1.3933
55.9400 37.2622 1.3976
55.9600 37.2755 1.3994
55.9800 37.2889 1.3956
56.0000 37.3022 1.4020
56.0200 37.3156 1.4037
56.0400 37.3289 1.4002
56.0600 37.3423 1.4056
56.0800 37.3556 1.4072
56.1000 37.3690 1.4044
56.1200 37.3823 1.4116
56.1400 37.3956 1.4129
56.1600 37.4090 1.4094
56.1800 37.4223 1.4085
56.2000 37.4356 1.4151
56.2200 37.4489 1.4179
56.2400 37.4622 1.4120
56.2600 37.4756 1.4187
56.2800 37.4889 1.4216
56.3000 37.5022 1.4196
56.3200 37.5155 1.4238
56.3400 37.5289 1.4241
56.3600 37.5422 1.4171
56.3800 37.5555 1.4315
56.4000 37.5689 1.4287
56.4200 37.5822 1.4204
56.4400 37.5956 1.4347
56.4600 37.6089 1.4259
56.4800 37.6223 1.4281
56.5000 37.6356 1.4428
56.5200 37.6490 1.4280
56.5400 37.6623 1.4319
56.5600 37.6756 1.4444
56.5800 37.6889 1.4289
56.6000 37.7022 1.4393
56.6200 37.7156 1.4534
56.6400 37.7289 1.4297
56.6600 37.7422 1.4446
56.6800 37.7555 1.4545
56.7000 37.7689 1.4345
56.7200 37.7822 1.4456
56.7400 37.7955 1.4585
56.7600 37.8089 1.4389
56.7800 37.8222 1.4546
56.8000 37.8356 1.4542
56.8200 37.8489 1.4454
56.8400 37.8622 1.4593
56.8600 37.8756 1.4557
56.8800 37.8889 1.4487
56.9000 37.9023 1.4634
56.9200 37.9156 1.4606
56.9400 37.9289 1.4560
56.9600 37.9422 1.4676
56.9800 37.9556 1.4636
57.0000 37.9689 1.4623
57.0200 37.9822 1.4714
57.0400 37.9955 1.4698
57.0600 38.0088 1.4668
57.0800 38.0222 1.4699
57.1000 38.0355 1.4733
57.1200 38.0489 1.4717
57.1400 38.0622 1.4771
57.1600 38.0756 1.4757
57.1800 38.0890 1.4721
57.2000 38.1023 1.4813
57.2200 38.1157 1.4820
57.2400 38.1290 1.4773
57.2600 38.1423 1.4886
57.2800 38.1556 1.4843
57.3000 38.1689 1.4788
57.3200 38.1822 1.4950
57.3400 38.1955 1.4881
57.3600 38.2089 1.4831
57.3800 38.2222 1.5007
57.4000 38.2355 1.4922
57.4200 38.2489 1.4892
57.4400 38.2622 1.5013
57.4600 38.2756 1.4955
57.4800 38.2889 1.4966
57.5000 38.3023 1.5053
57.5200 38.3157 1.4958
57.5400 38.3290 1.4995
57.5600 38.3423 1.5158
57.5800 38.3556 1.4966
57.6000 38.3690 1.5061
57.6200 38.3823 1.5160
57.6400 38.3956 1.5047
57.6600 38.4089 1.5131
57.6800 38.4222 1.5172
57.7000 38.4356 1.5064
57.7200 38.4489 1.5235
57.7400 38.4622 1.5214
57.7600 38.4755 1.5091
57.7800 38.4889 1.5274
57.8000 38.5022 1.5232
57.8200 38.5156 1.5127
57.8400 38.5289 1.5355
57.8600 38.5422 1.5292
57.8800 38.5556 1.5170
57.9000 38.5689 1.5364
57.9200 38.5823 1.5299
57.9400 38.5956 1.5317
57.9600 38.6089 1.5373
57.9800 38.6223 1.5313
58.0000 38.6356 1.5361
58.0200 38.6489 1.5415
58.0400 38.6622 1.5408
58.0600 38.6756 1.5381
58.0800 38.6889 1.5463
58.1000 38.7022 1.5443
58.1200 38.7155 1.5428
58.1400 38.7289 1.5508
58.1600 38.7422 1.5499
58.1800 38.7555 1.5473
58.2000 38.7689 1.5532
58.2200 38.7822 1.5585
58.2400 38.7956 1.5503
58.2600 38.8090 1.5566
58.2800 38.8223 1.5584
58.3000 38.8356 1.5571
58.3200 38.8490 1.5609
58.3400 38.8623 1.5651
58.3600 38.8756 1.5625
58.3800 38.8889 1.5661
58.4000 38.9022 1.5719
58.4200 38.9156 1.5670
58.4400 38.9289 1.5706
58.4600 38.9422 1.5753
58.4800 38.9556 1.5731
58.5000 38.9689 1.5751
58.5200 38.9822 1.5782
58.5400 38.9956 1.5775
58.5600 39.0089 1.5827
58.5800 39.0222 1.5838
58.6000 39.0356 1.5777
58.6200 39.0490 1.5887
58.6400 39.0623 1.5886
58.6600 39.0756 1.5840
58.6800 39.0889 1.5936
58.7000 39.1023 1.5925
58.7200 39.1156 1.5864
58.7400 39.1289 1.6004
58.7600 39.1422 1.6032
58.7800 39.1556 1.5894
58.8000 39.1689 1.6009
58.8200 39.1822 1.6034
58.8400 39.1955 1.5959
58.8600 39.2089 1.6105
58.8800 39.2222 1.6045
58.9000 39.2356 1.6011
58.9200 39.2489 1.6160
58.9400 39.2623 1.6112
58.9600 39.2756 1.6075
58.9800 39.2890 1.6175
59.0000 39.3023 1.6164
59.0200 39.3156 1.6141
59.0400 39.3289 1.6226
59.0600 39.3423 1.6184
59.0800 39.3556 1.6221
59.1000 39.3689 1.6241
59.1200 39.3822 1.6280
59.1400 39.3955 1.6286
59.1600 39.4089 1.6287
59.1800 39.4222 1.6275
59.2000 39.4355 1.6305
59.2200 39.4488 1.6368
59.2400 39.4622 1.6360
59.2600 39.4755 1.6324
59.2800 39.4889 1.6380
59.3000 39.5022 1.6456
59.3200 39.5156 1.6375
59.3400 39.5290 1.6427
59.3600 39.5423 1.6510
59.3800 39.5556 1.6406
59.4000 39.5690 1.6467
59.4200 39.5823 1.6554
59.4400 39.5956 1.6431
59.4600 39.6089 1.6524
59.4800 39.6222 1.6610
59.5000 39.6355 1.6482
59.5200 39.6489 1.6579
59.5400 39.6622 1.6636
59.5600 39.6755 1.6517
59.5800 39.6889 1.6714
59.6000 39.7022 1.6606
59.6200 39.7156 1.6584
59.6400 39.7289 1.6774
59.6600 39.7423 1.6639
59.6800 39.7556 1.6654
59.7000 39.7690 1.6796
59.7200 39.7823 1.6711
59.7400 39.7956 1.6755
59.7600 39.8089 1.6838
59.7800 39.8222 1.6761
59.8000 39.8356 1.6747
59.8200 39.8489 1.6858
59.8400 39.8623 1.6844
59.8600 39.8756 1.6848
59.8800 39.8890 1.6874
59.9000 39.9023 1.6870
59.9200 39.9156 1.6901
59.9400 39.9289 1.6951
59.9600 39.9422 1.6903
59.9800 39.9556 1.6962
60.0000 39.9689 1.6985
60.0200 39.9822 1.6961
60.0400 39.9955 1.6945
60.0470 40.0001 1.6821
60.0480 40.0008 1.6793
60.0490 40.0014 1.6766
60.0690 40.0119 1.5988
60.0890 40.0140 1.5406
60.1090 40.0057 1.6313
60.1290 39.9928 1.7142
60.1490 39.9799 1.6853
60.1690 39.9670 1.6594
60.1890 39.9536 1.6824
60.2090 39.9396 1.6687
60.2290 39.9256 1.6635
60.2490 39.9118 1.6819
60.2690 39.8983 1.6545
60.2890 39.8850 1.6549
60.3090 39.8717 1.6610
60.3290 39.8584 1.6447
60.3490 39.8451 1.6354
60.3690 39.8317 1.6488
60.3890 39.8184 1.6322
60.4090 39.8050 1.6332
60.4290 39.7917 1.6359
60.4490 39.7783 1.6169
60.4690 39.7648 1.6256
60.4890 39.7515 1.6266
60.5090 39.7382 1.6099
60.5290 39.7249 1.6112
60.5490 39.7115 1.6147
60.5690 39.6982 1.6011
60.5890 39.6849 1.6016
60.6090 39.6716 1.6044
60.6290 39.6582 1.5959
60.6490 39.6449 1.5969
60.6690 39.6316 1.5902
60.6890 39.6183 1.5840
60.7090 39.6050 1.5857
60.7290 39.5916 1.5825
60.7490 39.5783 1.5780
60.7690 39.5650 1.5817
60.7890 39.5517 1.5657
60.8090 39.5383 1.5680
60.8290 39.5249 1.5716
60.8490 39.5116 1.5598
60.8690 39.4982 1.5659
60.8890 39.4849 1.5567
60.9090 39.4715 1.5510
60.9290 39.4582 1.5562
60.9490 39.4449 1.5482
60.9690 39.4316 1.5414
60.9890 39.4183 1.5494
61.0090 39.4049 1.5397
61.0290 39.3916 1.5364
61.0490 39.3783 1.5381
61.0690 39.3650 1.5312
61.0890 39.3516 1.5272
61.1090 39.3383 1.5320
61.1290 39.3250 1.5196
61.1490 39.3116 1.5208
61.1690 39.2983 1.5205
61.1890 39.2849 1.5149
61.2090 39.2716 1.5162
61.2290 39.2583 1.5106
61.2490 39.2450 1.5017
61.2690 39.2316 1.5099
61.2890 39.2182 1.5012
61.3090 39.2048 1.5000
61.3290 39.1915 1.5015
61.3490 39.1782 1.4908
61.3690 39.1648 1.4960
61.3890 39.1516 1.4900
61.4090 39.1383 1.4810
61.4290 39.1250 1.4887
61.4490 39.1116 1.4805
61.4690 39.0982 1.4745
61.4890 39.0849 1.4868
61.5090 39.0716 1.4718
61.5290 39.0582 1.4636
61.5490 39.0448 1.4826
61.5690 39.0315 1.4641
61.5890 39.0182 1.4566
61.6090 39.0049 1.4707
61.6290 38.9916 1.4549
61.6490 38.9782 1.4526
61.6690 38.9649 1.4587
61.6890 38.9516 1.4519
61.7090 38.9382 1.4487
61.7290 38.9249 1.4516
61.7490 38.9116 1.4418
61.7690 38.8983 1.4436
61.7890 38.8849 1.4423
61.8090 38.8716 1.4387
61.8290 38.8582 1.4373
61.8490 38.8449 1.4362
61.8690 38.8316 1.4307
61.8890 38.8182 1.4290
61.9090 38.8049 1.4290
61.9290 38.7915 1.4265
61.9490 38.7782 1.4210
61.9690 38.7649 1.4228
61.9890 38.7515 1.4141
62.0090 38.7382 1.4188
62.0290 38.7249 1.4170
62.0490 38.7116 1.4103
62.0690 38.6983 1.4101
62.0890 38.6849 1.4084
62.1090 38.6716 1.4041
62.1290 38.6583 1.4016
62.1490 38.6449 1.3994
62.1690 38.6316 1.4030
62.1890 38.6182 1.3973
62.2090 38.6049 1.3989
62.2290 38.5916 1.3915
62.2490 38.5782 1.3890
62.2690 38.5649 1.3903
62.2890 38.5516 1.3857
62.3090 38.5383 1.3777
62.3290 38.5249 1.3823
62.3490 38.5116 1.3828
62.3690 38.4982 1.3730
62.3890 38.4849 1.3792
62.4090 38.4716 1.3765
62.4290 38.4583 1.3677
62.4490 38.4449 1.3761
62.4690 38.4316 1.3695
62.4890 38.4183 1.3607
62.5090 38.4049 1.3723
62.5290 38.3916 1.3578
62.5490 38.3782 1.3533
62.5690 38.3649 1.3691
62.5890 38.3516 1.3498
62.6090 38.3383 1.3455
62.6290 38.3249 1.3644
62.6490 38.3115 1.3498
62.6690 38.2982 1.3400
62.6890 38.2849 1.3530
62.7090 38.2716 1.3413
62.7290 38.2582 1.3351
62.7490 38.2449 1.3491
62.7690 38.2315 1.3309
62.7890 38.2182 1.3355
62.8090 38.2048 1.3449
62.8290 38.1915 1.3280
62.8490 38.1782 1.3284
62.8690 38.1649 1.3358
62.8890 38.1516 1.3191
62.9090 38.1382 1.3241
62.9290 38.1249 1.3329
62.9490 38.1116 1.3133
62.9690 38.0983 1.3142
62.9890 38.0849 1.3269
63.0090 38.0715 1.3103
63.0290 38.0582 1.3126
63.0490 38.0448 1.3154
63.0690 38.0315 1.3043
63.0890 38.0181 1.3073
63.1090 38.0048 1.3086
63.1290 37.9915 1.3027
63.1490 37.9782 1.3017
63.1690 37.9649 1.3085
63.1890 37.9516 1.2961
63.2090 37.9383 1.2938
63.2290 37.9250 1.2995
63.2490 37.9116 1.2918
63.2690 37.8983 1.2906
63.2890 37.8849 1.2946
63.3090 37.8716 1.2840
63.3290 37.8582 1.2834
63.3490 37.8449 1.2862
63.3690 37.8315 1.2825
63.3890 37.8182 1.2809
63.4090 37.8049 1.2788
63.4290 37.7915 1.2768
63.4490 37.7782 1.2791
63.4690 37.7649 1.2746
63.4890 37.7516 1.2703
63.5090 37.7382 1.2727
63.5290 37.7249 1.2710
63.5490 37.7116 1.2657
63.5690 37.6983 1.2669
63.5890 37.6850 1.2664
63.6090 37.6716 1.2603
63.6290 37.6583 1.2636
63.6490 37.6449 1.2636
63.6690 37.6316 1.2602
63.6890 37.6183 1.2551
63.7090 37.6049 1.2555
63.7290 37.5915 1.2525
63.7490 37.5782 1.2523
63.7690 37.5649 1.2485
63.7890 37.5515 1.2496
63.8090 37.5382 1.2510
63.8290 37.5248 1.2411
63.8490 37.5115 1.2427
63.8690 37.4982 1.2472
63.8890 37.4849 1.2369
63.9090 37.4716 1.2419
63.9290 37.4582 1.2395
63.9490 37.4449 1.2291
63.9690 37.4316 1.2356
63.9890 37.4182 1.2383
64.0090 37.4049 1.2247
64.0290 37.3916 1.2322
64.0490 37.3783 1.2249
64.0690 37.3649 1.2220
64.0890 37.3515 1.2336
64.1090 37.3382 1.2238
64.1290 37.3249 1.2152
64.1490 37.3115 1.2269
64.1690 37.2982 1.2190
64.1890 37.2848 1.2098
64.2090 37.2715 1.2279
64.2290 37.2582 1.2149
64.2490 37.2449 1.2052
64.2690 37.2315 1.2206
64.2890 37.2183 1.2071
64.3090 37.2049 1.2064
64.3290 37.1916 1.2125
64.3490 37.1782 1.2022
64.3690 37.1649 1.2006
64.3890 37.1516 1.2077
64.4090 37.1383 1.1985
64.4290 37.1249 1.1977
64.4490 37.1116 1.2033
64.4690 37.0982 1.1932
64.4890 37.0849 1.1958
64.5090 37.0716 1.1954
64.5290 37.0582 1.1936
64.5490 37.0448 1.1907
64.5690 37.0315 1.1921
64.5890 37.0182 1.1867
64.6090 37.0048 1.1839
64.6290 36.9915 1.1889
64.6490 36.9782 1.1836
64.6690 36.9649 1.1806
64.6890 36.9516 1.1835
64.7090 36.9383 1.1803
64.7290 36.9249 1.1794
64.7490 36.9116 1.1820
64.7690 36.8983 1.1694
64.7890 36.8849 1.1740
64.8090 36.8715 1.1802
64.8290 36.8582 1.1655
64.8490 36.8449 1.1709
64.8690 36.8315 1.1682
64.8890 36.8182 1.1652
64.9090 36.8048 1.1709
64.9290 36.7915 1.1679
64.9490 36.7782 1.1611
64.9690 36.7649 1.1675
64.9890 36.7516 1.1641
65.0090 36.7383 1.1578
65.0290 36.7250 1.1594
65.0490 36.7116 1.1609
65.0690 36.6983 1.1544
65.0890 36.6849 1.1589
65.1090 36.6716 1.1549
65.1290 36.6583 1.1499
65.1490 36.6449 1.1513
65.1690 36.6315 1.1513
65.1890 36.6182 1.1520
65.2090 36.6049 1.1479
65.2290 36.5915 1.1444
65.2490 36.5782 1.1475
65.2690 36.5648 1.1417
65.2890 36.5515 1.1452
65.3090 36.5382 1.1439
65.3290 36.5249 1.1339
65.3490 36.5116 1.1429
65.3690 36.4983 1.1397
65.3890 36.4850 1.1273
65.4090 36.4716 1.1422
65.4290 36.4583 1.1319
65.4490 36.4449 1.1255
65.4690 36.4316 1.1359
65.4890 36.4182 1.1272
65.5090 36.4049 1.1233
65.5290 36.3915 1.1351
65.5490 36.3782 1.1260
65.5690 36.3649 1.1201
65.5890 36.3516 1.1334
65.6090 36.3382 1.1170
65.6290 36.3249 1.1174
65.6490 36.3116 1.1244
65.6690 36.2982 1.1145
65.6890 36.2849 1.1168
65.7090 36.2715 1.1212
65.7290 36.2582 1.1097
65.7490 36.2449 1.1092
65.7690 36.2316 1.1169
65.7890 36.2183 1.1128
65.8090 36.2049 1.1067
65.8290 36.1916 1.1096
65.8490 36.1782 1.1082
65.8690 36.1649 1.1057
65.8890 36.1515 1.1046
65.9090 36.1382 1.1085
65.9290 36.1249 1.0989
65.9490 36.1116 1.1050
65.9690 36.0982 1.1002
65.9890 36.0848 1.0937
66.0090 36.0715 1.1021
66.0290 36.0582 1.0992
66.0490 36.0449 1.0872
66.0690 36.0316 1.0985
66.0890 36.0183 1.0985
66.1090 36.0050 1.0853
66.1290 35.9916 1.0978
66.1490 35.9782 1.0979
66.1690 35.9649 1.0776
66.1890 35.9516 1.0956
66.2090 35.9383 1.0905
66.2290 35.9249 1.0706
66.2490 35.9115 1.0955
66.2690 35.8982 1.0855
66.2890 35.8849 1.0699
66.3090 35.8716 1.0903
66.3290 35.8582 1.0815
66.3490 35.8448 1.0680
66.3690 35.8315 1.0920
66.3890 35.8182 1.0798
66.4090 35.8049 1.0623
66.4290 35.7916 1.0858
66.4490 35.7783 1.0696
66.4690 35.7650 1.0651
66.4890 35.7516 1.0822
66.5090 35.7383 1.0660
66.5290 35.7249 1.0658
66.5490 35.7116 1.0701
66.5690 35.6983 1.0648
66.5890 35.6849 1.0637
66.6090 35.6715 1.0707
66.6290 35.6582 1.0625
66.6490 35.6449 1.0561
66.6690 35.6315 1.0613
66.6890 35.6182 1.0634
66.7090 35.6048 1.0583
66.7290 35.5915 1.0596
66.7490 35.5782 1.0586
66.7690 35.5649 1.0514
66.7890 35.5515 1.0588
66.8090 35.5382 1.0581
66.8290 35.5249 1.0475
66.8490 35.5116 1.0561
66.8690 35.4983 1.0491
66.8890 35.4849 1.0415
66.9090 35.4716 1.0560
66.9290 35.4583 1.0472
66.9490 35.4449 1.0443
66.9690 35.4315 1.0527
66.9890 35.4182 1.0438
67.0090 35.4048 1.0349
67.0290 35.3915 1.0512
67.0490 35.3782 1.0386
67.0690 35.3648 1.0353
67.0890 35.3515 1.0490
67.1090 35.3382 1.0356
67.1290 35.3249 1.0329
67.1490 35.3116 1.0413
67.1690 35.2983 1.0358
67.1890 35.2850 1.0323
67.2090 35.2716 1.0333
67.2290 35.2583 1.0347
67.2490 35.2449 1.0321
67.2690 35.2316 1.0295
67.2890 35.2182 1.0294
67.3090 35.2049 1.0240
67.3290 35.1915 1.0282
67.3490 35.1782 1.0321
67.3690 35.1649 1.0199
67.3890 35.1516 1.0238
67.4090 35.1382 1.0253
67.4290 35.1249 1.0218
67.4490 35.1115 1.0246
67.4690 35.0982 1.0204
67.4890 35.0849 1.0163
67.5090 35.0715 1.0234
67.5290 35.0582 1.0169
67.5490 35.0449 1.0135
67.5690 35.0316 1.0191
67.5890 35.0182 1.0116
67.6090 35.0049 1.0117
67.6290 34.9916 1.0165
67.6490 34.9783 1.0089
67.6690 34.9649 1.0137
67.6890 34.9515 1.0119
67.7090 34.9382 1.0045
67.7290 34.9249 1.0078
67.7490 34.9116 1.0091
67.7690 34.8982 1.0025
67.7890 34.8849 1.0045
67.8090 34.8715 1.0048
67.8290 34.8582 1.0005
67.8490 34.8449 1.0064
67.8690 34.8315 0.9980
67.8890 34.8182 1.0034
67.9090 34.8049 0.9993
67.9290 34.7916 0.9958
67.9490 34.7783 0.9984
67.9690 34.7649 0.9981
67.9890 34.7516 0.9948
68.0090 34.7383 0.9969
68.0290 34.7250 0.9927
68.0490 34.7116 0.9908
68.0690 34.6982 0.9945
68.0890 34.6849 0.9924
68.1090 34.6716 0.9848
68.1290 34.6582 0.9938
68.1490 34.6448 0.9893
68.1690 34.6315 0.9876
68.1890 34.6182 0.9890
68.2090 34.6049 0.9851
68.2290 34.5916 0.9853
68.2490 34.5782 0.9857
68.2690 34.5649 0.9820
68.2890 34.5516 0.9826
68.3090 34.5382 0.9836
68.3290 34.5249 0.9814
68.3490 34.5116 0.9766
68.3690 34.4983 0.9825
68.3890 34.4849 0.9794
68.4090 34.4715 0.9765
68.4290 34.4582 0.9817
68.4490 34.4449 0.9747
68.4690 34.4316 0.9746
68.4890 34.4182 0.9767
68.5090 34.4048 0.9718
68.5290 34.3915 0.9776
68.5490 34.3782 0.9734
68.5690 34.3649 0.9626
68.5890 34.3515 0.9715
68.6090 34.3382 0.9698
68.6290 34.3249 0.9639
68.6490 34.3116 0.9714
68.6690 34.2983 0.9628
68.6890 34.2849 0.9632
68.7090 34.2716 0.9622
68.7290 34.2582 0.9616
68.7490 34.2449 0.9622
68.7690 34.2315 0.9607
68.7890 34.2182 0.9585
68.8090 34.2048 0.9592
68.8290 34.1916 0.9570
68.8490 34.1782 0.9571
68.8690 34.1649 0.9632
68.8890 34.1516 0.9497
68.9090 34.1382 0.9560
68.9290 34.1249 0.9617
68.9490 34.1116 0.9486
68.9690 34.0982 0.9510
68.9890 34.0849 0.9573
69.0090 34.0716 0.9401
69.0290 34.0583 0.9471
69.0490 34.0449 0.9571
69.0690 34.0316 0.9431
69.0890 34.0183 0.9461
69.1090 34.0049 0.9484
69.1290 33.9916 0.9384
69.1490 33.9782 0.9477
69.1690 33.9649 0.9500
69.1890 33.9515 0.9328
69.2090 33.9382 0.9404
69.2290 33.9248 0.9450
69.2490 33.9115 0.9366
69.2690 33.8982 0.9407
69.2890 33.8849 0.9401
69.3090 33.8716 0.9363
69.3290 33.8583 0.9370
69.3490 33.8449 0.9379
69.3690 33.8316 0.9357
69.3890 33.8183 0.9342
69.4090 33.8049 0.9365
69.4290 33.7915 0.9332
69.4490 33.7782 0.9283
69.4690 33.7649 0.9318
69.4890 33.7516 0.9301
69.5090 33.7382 0.9224
69.5290 33.7249 0.9357
69.5490 33.7116 0.9242
69.5690 33.6982 0.9217
69.5890 33.6849 0.9336
69.6090 33.6715 0.9226
69.6290 33.6582 0.9178
69.6490 33.6449 0.9347
69.6690 33.6315 0.9195
69.6890 33.6182 0.9136
69.7090 33.6049 0.9286
69.7290 33.5916 0.9235
69.7490 33.5783 0.9109
69.7690 33.5649 0.9280
69.7890 33.5516 0.9166
69.8090 33.5383 0.9084
69.8290 33.5249 0.9246
69.8490 33.5116 0.9150
69.8690 33.4982 0.9076
69.8890 33.4849 0.9229
69.9090 33.4715 0.9106
69.9290 33.4582 0.9085
69.9490 33.4448 0.9193
69.9690 33.4315 0.9078
69.9890 33.4182 0.9070
70.0090 33.4049 0.9137
70.0290 33.3916 0.9066
70.0490 33.3782 0.9039
70.0690 33.3649 0.9136
70.0890 33.3516 0.9038
70.1090 33.3383 0.8993
70.1290 33.3249 0.9101
70.1490 33.3116 0.9070
70.1690 33.2983 0.8956
70.1890 33.2850 0.9057
70.2090 33.2716 0.9019
70.2290 33.2582 0.8942
70.2490 33.2449 0.9052
70.2690 33.2315 0.9015
70.2890 33.2182 0.8897
70.3090 33.2048 0.9064
70.3290 33.1915 0.8941
70.3490 33.1782 0.8847
70.3690 33.1649 0.9128
70.3890 33.1516 0.8893
70.4090 33.1382 0.8865
70.4290 33.1250 0.9076
70.4490 33.1117 0.8850
70.4690 33.0983 0.8830
70.4890 33.0849 0.9041
70.5090 33.0716 0.8841
70.5290 33.0583 0.8801
70.5490 33.0449 0.9000
70.5690 33.0316 0.8758
70.5890 33.0182 0.8861
70.6090 33.0048 0.8967
70.6290 32.9915 0.8757
70.6490 32.9782 0.8822
70.6690 32.9648 0.8909
70.6890 32.9515 0.8786
70.7090 32.9382 0.8808
70.7290 32.9249 0.8909
70.7490 32.9115 0.8736
70.7690 32.8982 0.8746
70.7890 32.8849 0.8888
70.8090 32.8716 0.8739
70.8290 32.8583 0.8732
70.8490 32.8449 0.8829
70.8690 32.8316 0.8740
70.8890 32.8183 0.8766
70.9090 32.8049 0.8786
70.9290 32.7916 0.8710
70.9490 32.7782 0.8708
70.9690 32.7648 0.8828
70.9890 32.7515 0.8658
71.0090 32.7382 0.8702
71.0290 32.7249 0.8741
71.0490 32.7115 0.8668
71.0690 32.6982 0.8749
71.0890 32.6849 0.8696
71.1090 32.6716 0.8672
71.1290 32.6582 0.8676
71.1490 32.6449 0.8662
71.1690 32.6316 0.8647
71.1890 32.6183 0.8622
71.2090 32.6049 0.8666
71.2290 32.5916 0.8646
71.2490 32.5783 0.8653
71.2690 32.5649 0.8613
71.2890 32.5516 0.8598
71.3090 32.5382 0.8604
71.3290 32.5249 0.8581
71.3490 32.5116 0.8628
71.3690 32.4982 0.8576
71.3890 32.4849 0.8544
71.4090 32.4715 0.8568
71.4290 32.4582 0.8526
71.4490 32.4449 0.8558
71.4690 32.4316 0.8586
71.4890 32.4182 0.8560
71.5090 32.4049 0.8535
71.5290 32.3916 0.8521
71.5490 32.3783 0.8528
71.5690 32.3649 0.8490
71.5890 32.3516 0.8538
71.6090 32.3382 0.8521
71.6290 32.3249 0.8462
71.6490 32.3116 0.8455
71.6690 32.2982 0.8495
71.6890 32.2849 0.8486
71.7090 32.2716 0.8438
71.7290 32.2583 0.8500
71.7490 32.2449 0.8461
71.7690 32.2315 0.8421
71.7890 32.2182 0.8497
71.8090 32.2049 0.8420
71.8290 32.1915 0.8393
71.8490 32.1782 0.8462
71.8690 32.1649 0.8428
71.8890 32.1516 0.8370
71.9090 32.1383 0.8455
71.9290 32.1249 0.8395
71.9490 32.1116 0.8366
71.9690 32.0983 0.8439
71.9890 32.0850 0.8295
72.0090 32.0716 0.8378
72.0290 32.0582 0.8459
72.0490 32.0449 0.8279
72.0690 32.0315 0.8318
72.0890 32.0182 0.8419
72.1090 32.0048 0.8308
72.1290 31.9915 0.8293
72.1490 31.9782 0.8395
72.1690 31.9649 0.8280
72.1890 31.9516 0.8304
72.2090 31.9382 0.8343
72.2290 31.9249 0.8246
72.2490 31.9116 0.8307
72.2690 31.8983 0.8241
72.2890 31.8849 0.8239
72.3090 31.8716 0.8336
72.3290 31.8582 0.8269
72.3490 31.8449 0.8254
72.3690 31.8316 0.8278
72.3890 31.8182 0.8216
72.4090 31.8048 0.8282
72.4290 31.7915 0.8257
72.4490 31.7782 0.8182
72.4690 31.7649 0.8215
72.4890 31.7515 0.8238
72.5090 31.7382 0.8180
72.5290 31.7249 0.8258
72.5490 31.7116 0.8213
72.5690 31.6982 0.8190
72.5890 31.6849 0.8200
72.6090 31.6716 0.8187
72.6290 31.6583 0.8188
72.6490 31.6449 0.8180
72.6690 31.6315 0.8205
72.6890 31.6182 0.8134
72.7090 31.6049 0.8132
72.7290 31.5916 0.8160
72.7490 31.5782 0.8118
72.7690 31.5648 0.8203
72.7890 31.5515 0.8135
72.8090 31.5382 0.8124
72.8290 31.5249 0.8138
72.8490 31.5115 0.8144
72.8690 31.4982 0.8124
72.8890 31.4849 0.8091
72.9090 31.4716 0.8091
72.9290 31.4582 0.8113
72.9490 31.4449 0.8120
72.9690 31.4316 0.8054
72.9890 31.4183 0.8098
73.0090 31.4050 0.8051
73.0290 31.3916 0.8055
73.0490 31.3782 0.8058
73.0690 31.3649 0.8032
73.0890 31.3516 0.8055
73.1090 31.3382 0.8014
73.1290 31.3248 0.8023
73.1490 31.3115 0.8067
73.1690 31.2982 0.8017
73.1890 31.2849 0.7991
73.2090 31.2715 0.7979
73.2290 31.2582 0.8016
73.2490 31.2449 0.8014
73.2690 31.2316 0.8006
73.2890 31.2182 0.7978
73.3090 31.2049 0.8017
73.3290 31.1916 0.7942
73.3490 31.1783 0.7931
73.3690 31.1649 0.7956
73.3890 31.1516 0.7913
73.4090 31.1382 0.7978
73.4290 31.1249 0.7936
73.4490 31.1116 0.7890
73.4690 31.0982 0.7960
73.4890 31.0849 0.7950
73.5090 31.0716 0.7851
73.5290 31.0582 0.7955
73.5490 31.0449 0.7943
73.5690 31.0315 0.7789
73.5890 31.0181 0.7980
73.6090 31.0048 0.7921
73.6290 30.9915 0.7791
73.6490 30.9782 0.7981
73.6690 30.9649 0.7850
73.6890 30.9516 0.7768
73.7090 30.9383 0.7948
73.7290 30.9250 0.7839
73.7490 30.9116 0.7783
73.7690 30.8982 0.7989
73.7890 30.8849 0.7800
73.8090 30.8716 0.7735
73.8290 30.8582 0.7923
73.8490 30.8448 0.7761
73.8690 30.8315 0.7811
73.8890 30.8182 0.7901
73.9090 30.8049 0.7692
73.9290 30.7915 0.7814
73.9490 30.7782 0.7879
73.9690 30.7649 0.7717
73.9890 30.7515 0.7798
74.0090 30.7382 0.7878
74.0290 30.7249 0.7683
74.0490 30.7116 0.7774
74.0690 30.6983 0.7847
74.0890 30.6850 0.7722
74.1090 30.6716 0.7793
74.1290 30.6583 0.7790
74.1490 30.6450 0.7725
74.1690 30.6316 0.7771
74.1890 30.6182 0.7751
74.2090 30.6049 0.7678
74.2290 30.5915 0.7737
74.2490 30.5782 0.7730
74.2690 30.5649 0.7643
74.2890 30.5515 0.7720
74.3090 30.5382 0.7697
74.3290 30.5249 0.7682
74.3490 30.5116 0.7670
74.3690 30.4983 0.7695
74.3890 30.4849 0.7668
74.4090 30.4716 0.7682
74.4290 30.4583 0.7626
74.4490 30.4449 0.7591
74.4690 30.4316 0.7665
74.4890 30.4182 0.7675
74.5090 30.4049 0.7607
74.5290 30.3916 0.7600
74.5490 30.3782 0.7658
74.5690 30.3649 0.7602
74.5890 30.3515 0.7552
74.6090 30.3382 0.7674
74.6290 30.3249 0.7558
74.6490 30.3116 0.7529
74.6690 30.2982 0.7665
74.6890 30.2849 0.7512
74.7090 30.2716 0.7533
74.7290 30.2582 0.7645
74.7490 30.2449 0.7578
74.7690 30.2316 0.7508
74.7890 30.2183 0.7596
74.8090 30.2049 0.7548
74.8290 30.1916 0.7543
74.8490 30.1782 0.7562
74.8690 30.1649 0.7462
74.8890 30.1516 0.7518
74.9090 30.1382 0.7571
74.9290 30.1249 0.7470
74.9490 30.1115 0.7530
74.9690 30.0982 0.7531
74.9890 30.0849 0.7470
75.0090 30.0715 0.7443
75.0290 30.0582 0.7531
75.0490 30.0449 0.7501
75.0690 30.0316 0.7425
75.0890 30.0182 0.7487
75.1090 30.0049 0.7483
75.1290 29.9915 0.7400
75.1490 29.9782 0.7488
75.1690 29.9649 0.7433
75.1890 29.9516 0.7382
75.2090 29.9382 0.7518
75.2290 29.9249 0.7402
75.2490 29.9116 0.7340
75.2690 29.8983 0.7521
75.2890 29.8849 0.7394
75.3090 29.8715 0.7327
75.3290 29.8582 0.7469
75.3490 29.8449 0.7359
75.3690 29.8315 0.7331
75.3890 29.8182 0.7473
75.4090 29.8049 0.7338
75.4290 29.7916 0.7360
75.4490 29.7782 0.7440
75.4690 29.7649 0.7327
75.4890 29.7516 0.7346
75.5090 29.7383 0.7371
75.5290 29.7250 0.7285
75.5490 29.7116 0.7343
75.5690 29.6982 0.7388
75.5890 29.6849 0.7241
75.6090 29.6716 0.7353
75.6290 29.6582 0.7312
75.6490 29.6449 0.7259
75.6690 29.6315 0.7341
75.6890 29.6182 0.7304
75.7090 29.6049 0.7225
75.7290 29.5915 0.7277
75.7490 29.5782 0.7308
75.7690 29.5648 0.7265
75.7890 29.5515 0.7248
75.8090 29.5382 0.7279
75.8290 29.5249 0.7259
75.8490 29.5116 0.7273
75.8690 29.4983 0.7227
75.8890 29.4850 0.7233
75.9090 29.4716 0.7240
75.9290 29.4582 0.7181
75.9490 29.4449 0.7272
75.9690 29.4316 0.7221
75.9890 29.4182 0.7204
76.0090 29.4048 0.7240
76.0290 29.3915 0.7195
76.0490 29.3782 0.7215
76.0690 29.3649 0.7200
76.0890 29.3516 0.7155
76.1090 29.3382 0.7222
76.1290 29.3249 0.7168
76.1490 29.3116 0.7161
76.1690 29.2983 0.7195
76.1890 29.2849 0.7156
76.2090 29.2716 0.7165
76.2290 29.2583 0.7191
76.2490 29.2450 0.7080
76.2690 29.2316 0.7181
76.2890 29.2182 0.7154
76.3090 29.2049 0.7102
76.3290 29.1916 0.7165
76.3490 29.1782 0.7118
76.3690 29.1649 0.7083
76.3890 29.1515 0.7168
76.4090 29.1382 0.7120
76.4290 29.1249 0.7075
76.4490 29.1115 0.7116
76.4690 29.0982 0.7075
76.4890 29.0849 0.7099
76.5090 29.0716 0.7101
76.5290 29.0583 0.7033
76.5490 29.0449 0.7092
76.5690 29.0316 0.7074
76.5890 29.0183 0.7025
76.6090 29.0049 0.7098
76.6290 28.9916 0.7075
76.6490 28.9782 0.6975
76.6690 28.9649 0.7070
76.6890 28.9516 0.7069
76.7090 28.9382 0.6940
76.7290 28.9249 0.7080
76.7490 28.9115 0.7063
76.7690 28.8982 0.6992
76.7890 28.8849 0.7039
76.8090 28.8716 0.7009
76.8290 28.8582 0.7006
76.8490 28.8449 0.7054
76.8690 28.8316 0.6976
76.8890 28.8182 0.6967
76.9090 28.8049 0.7037
76.9290 28.7915 0.6973
76.9490 28.7782 0.7000
76.9690 28.7649 0.7009
76.9890 28.7516 0.6953
77.0090 28.7383 0.6968
77.0290 28.7249 0.6974
77.0490 28.7116 0.6988
77.0690 28.6983 0.6933
77.0890 28.6849 0.6943
77.1090 28.6715 0.6983
77.1290 28.6582 0.6922
77.1490 28.6449 0.6905
77.1690 28.6315 0.6980
77.1890 28.6182 0.6894
77.2090 28.6049 0.6906
77.2290 28.5915 0.6943
77.2490 28.5782 0.6868
77.2690 28.5649 0.6873
77.2890 28.5515 0.7011
77.3090 28.5382 0.6844
77.3290 28.5249 0.6866
77.3490 28.5116 0.6949
77.3690 28.4982 0.6812
77.3890 28.4849 0.6885
77.4090 28.4716 0.6968
77.4290 28.4583 0.6764
77.4490 28.4449 0.6871
77.4690 28.4315 0.6989
77.4890 28.4182 0.6737
77.5090 28.4049 0.6861
77.5290 28.3915 0.6927
77.5490 28.3781 0.6741
77.5690 28.3648 0.6887
77.5890 28.3515 0.6863
77.6090 28.3382 0.6721
77.6290 28.3249 0.6844
77.6490 28.3116 0.6877
77.6690 28.2983 0.6690
77.6890 28.2850 0.6813
77.7090 28.2716 0.6875
77.7290 28.2583 0.6669
77.7490 28.2449 0.6815
77.7690 28.2316 0.6852
77.7890 28.2183 0.6708
77.8090 28.2049 0.6764
77.8290 28.1915 0.6848
77.8490 28.1782 0.6726
77.8690 28.1649 0.6759
77.8890 28.1515 0.6822
77.9090 28.1382 0.6672
77.9290 28.1248 0.6734
77.9490 28.1115 0.6787
77.9690 28.0982 0.6661
77.9890 28.0849 0.6777
78.0090 28.0716 0.6790
78.0290 28.0583 0.6640
78.0490 28.0449 0.6685
78.0690 28.0316 0.6837
78.0890 28.0182 0.6595
78.1090 28.0049 0.6706
78.1290 27.9916 0.6814
78.1490 27.9783 0.6530
78.1690 27.9649 0.6695
78.1890 27.9515 0.6803
78.2090 27.9382 0.6584
78.2290 27.9249 0.6671
78.2490 27.9115 0.6750
78.2690 27.8982 0.6550
78.2890 27.8848 0.6683
78.3090 27.8715 0.6766
78.3290 27.8582 0.6478
78.3490 27.8449 0.6704
78.3690 27.8316 0.6738
78.3890 27.8182 0.6473
78.4090 27.8049 0.6742
78.4290 27.7916 0.6667
78.4490 27.7782 0.6497
78.4690 27.7649 0.6677
78.4890 27.7516 0.6634
78.5090 27.7383 0.6510
78.5290 27.7249 0.6651
78.5490 27.7115 0.6644
78.5690 27.6982 0.6528
78.5890 27.6849 0.6609
78.6090 27.6716 0.6570
78.6290 27.6582 0.6532
78.6490 27.6448 0.6689
78.6690 27.6315 0.6580
78.6890 27.6182 0.6490
78.7090 27.6049 0.6598
78.7290 27.5915 0.6568
78.7490 27.5782 0.6520
78.7690 27.5649 0.6594
78.7890 27.5516 0.6532
78.8090 27.5382 0.6528
78.8290 27.5249 0.6583
78.8490 27.5116 0.6577
78.8690 27.4982 0.6442
78.8890 27.4849 0.6562
78.9090 27.4715 0.6571
78.9290 27.4582 0.6460
78.9490 27.4449 0.6549
78.9690 27.4316 0.6522
78.9890 27.4182 0.6449
79.0090 27.4048 0.6531
79.0290 27.3915 0.6534
79.0490 27.3782 0.6414
79.0690 27.3649 0.6505
79.0890 27.3515 0.6536
79.1090 27.3382 0.6399
79.1290 27.3249 0.6531
79.1490 27.3116 0.6471
79.1690 27.2983 0.6418
79.1890 27.2849 0.6542
79.2090 27.2716 0.6466
79.2290 27.2583 0.6399
79.2490 27.2449 0.6472
79.2690 27.2315 0.6512
79.2890 27.2182 0.6398
79.3090 27.2049 0.6431
79.3290 27.1915 0.6476
79.3490 27.1782 0.6431
79.3690 27.1648 0.6462
79.3890 27.1515 0.6423
79.4090 27.1382 0.6345
79.4290 27.1249 0.6440
79.4490 27.1116 0.6470
79.4690 27.0983 0.6326
79.4890 27.0850 0.6397
79.5090 27.0716 0.6462
79.5290 27.0583 0.6317
79.5490 27.0449 0.6391
79.5690 27.0316 0.6398
79.5890 27.0183 0.6315
79.6090 27.0049 0.6414
79.6290 26.9915 0.6413
79.6490 26.9782 0.6334
79.6690 26.9649 0.6401
79.6890 26.9516 0.6385
79.7090 26.9382 0.6313
79.7290 26.9249 0.6403
79.7490 26.9115 0.6386
79.7690 26.8983 0.6326
79.7890 26.8849 0.6342
79.8090 26.8716 0.6363
79.8290 26.8583 0.6336
79.8490 26.8449 0.6340
79.8690 26.8316 0.6269
79.8890 26.8182 0.6328
79.9090 26.8049 0.6374
79.9290 26.7916 0.6281
79.9490 26.7782 0.6270
79.9690 26.7649 0.6391
79.9890 26.7515 0.6260
80.0090 26.7382 0.6274
80.0290 26.7249 0.6351
80.0490 26.7116 0.6220
80.0690 26.6982 0.6264
80.0890 26.6849 0.6300
80.1090 26.6716 0.6239
80.1290 26.6583 0.6289
80.1490 26.6449 0.6280
80.1690 26.6316 0.6245
80.1890 26.6182 0.6258
80.2090 26.6049 0.6305
80.2290 26.5916 0.6211
80.2490 26.5783 0.6221
80.2690 26.5649 0.6307
80.2890 26.5516 0.6177
80.3090 26.5383 0.6212
80.3290 26.5249 0.6280
80.3490 26.5115 0.6163
80.3690 26.4982 0.6254
80.3890 26.4849 0.6254
80.4090 26.4716 0.6164
80.4290 26.4582 0.6203
80.4490 26.4448 0.6276
80.4690 26.4315 0.6166
80.4890 26.4182 0.6187
80.5090 26.4049 0.6203
80.5290 26.3916 0.6180
80.5490 26.3783 0.6222
80.5690 26.3649 0.6179
80.5890 26.3516 0.6154
80.6090 26.3383 0.6216
80.6290 26.3249 0.6202
80.6490 26.3116 0.6124
80.6690 26.2982 0.6195
80.6890 26.2849 0.6140
80.7090 26.2715 0.6121
80.7290 26.2582 0.6197
80.7490 26.2449 0.6099
80.7690 26.2316 0.6143
80.7890 26.2182 0.6131
80.8090 26.2048 0.6104
80.8290 26.1915 0.6175
80.8490 26.1782 0.6108
80.8690 26.1649 0.6110
80.8890 26.1516 0.6136
80.9090 26.1383 0.6153
80.9290 26.1250 0.6071
80.9490 26.1117 0.6131
80.9690 26.0983 0.6091
80.9890 26.0849 0.6087
81.0090 26.0716 0.6126
81.0290 26.0583 0.6072
81.0490 26.0449 0.6106
81.0690 26.0315 0.6063
81.0890 26.0182 0.6107
81.1090 26.0049 0.6105
81.1290 25.9916 0.6005
81.1490 25.9782 0.6092
81.1690 25.9648 0.6071
81.1890 25.9515 0.6014
81.2090 25.9382 0.6132
81.2290 25.9249 0.6053
81.2490 25.9116 0.6011
81.2690 25.8982 0.6181
81.2890 25.8849 0.5983
81.3090 25.8716 0.5945
81.3290 25.8583 0.6160
81.3490 25.8449 0.6013
81.3690 25.8316 0.5917
81.3890 25.8183 0.6083
81.4090 25.8049 0.5988
81.4290 25.7915 0.5968
81.4490 25.7782 0.6119
81.4690 25.7648 0.5966
81.4890 25.7515 0.5961
81.5090 25.7382 0.6041
81.5290 25.7248 0.5991
81.5490 25.7115 0.5980
81.5690 25.6982 0.6024
81.5890 25.6849 0.5959
81.6090 25.6716 0.5950
81.6290 25.6583 0.6033
81.6490 25.6450 0.6004
81.6690 25.6317 0.5929
81.6890 25.6183 0.5953
81.7090 25.6049 0.6009
81.7290 25.5916 0.5909
81.7490 25.5782 0.5970
81.7690 25.5649 0.5997
81.7890 25.5515 0.5882
81.8090 25.5382 0.5989
81.8290 25.5249 0.5963
81.8490 25.5116 0.5892
81.8690 25.4982 0.5947
81.8890 25.4849 0.5956
81.9090 25.4715 0.5856
81.9290 25.4582 0.5970
81.9490 25.4449 0.5936
81.9690 25.4316 0.5822
81.9890 25.4182 0.5999
82.0090 25.4049 0.5943
82.0290 25.3916 0.5797
82.0490 25.3783 0.5970
82.0690 25.3649 0.5917
82.0890 25.3516 0.5753
82.1090 25.3383 0.5988
82.1290 25.3249 0.5895
82.1490 25.3115 0.5781
82.1690 25.2982 0.5955
82.1890 25.2849 0.5889
82.2090 25.2716 0.5802
82.2290 25.2582 0.5952
82.2490 25.2449 0.5858
82.2690 25.2315 0.5795
82.2890 25.2182 0.5943
82.3090 25.2049 0.5827
82.3290 25.1915 0.5775
82.3490 25.1782 0.5967
82.3690 25.1649 0.5807
82.3890 25.1516 0.5793
82.4090 25.1383 0.5897
82.4290 25.1249 0.5818
82.4490 25.1116 0.5773
82.4690 25.0983 0.5884
82.4890 25.0850 0.5832
82.5090 25.0716 0.5736
82.5290 25.0582 0.5894
82.5490 25.0449 0.5765
82.5690 25.0316 0.5725
82.5890 25.0182 0.5909
82.6090 25.0049 0.5771
82.6290 24.9915 0.5778
82.6490 24.9782 0.5870
82.6690 24.9649 0.5776
82.6890 24.9515 0.5751
82.7090 24.9382 0.5863
82.7290 24.9249 0.5776
82.7490 24.9116 0.5716
82.7690 24.8983 0.5823
82.7890 24.8849 0.5718
82.8090 24.8716 0.5754
82.8290 24.8583 0.5814
82.8490 24.8449 0.5727
82.8690 24.8316 0.5739
82.8890 24.8182 0.5784
82.9090 24.8049 0.5736
82.9290 24.7916 0.5735
82.9490 24.7782 0.5726
82.9690 24.7649 0.5744
82.9890 24.7515 0.5745
83.0090 24.7382 0.5728
83.0290 24.7249 0.5724
83.0490 24.7115 0.5762
83.0690 24.6982 0.5734
83.0890 24.6849 0.5711
83.1090 24.6716 0.5704
83.1290 24.6583 0.5750
83.1490 24.6449 0.5696
83.1690 24.6316 0.5724
83.1890 24.6183 0.5708
83.2090 24.6049 0.5695
83.2290 24.5915 0.5686
83.2490 24.5782 0.5710
83.2690 24.5648 0.5683
83.2890 24.5515 0.5707
83.3090 24.5382 0.5650
83.3290 24.5249 0.5687
83.3490 24.5115 0.5750
83.3690 24.4982 0.5653
83.3890 24.4849 0.5650
83.4090 24.4716 0.5726
83.4290 24.4582 0.5662
83.4490 24.4449 0.5675
83.4690 24.4316 0.5667
83.4890 24.4182 0.5645
83.5090 24.4049 0.5697
83.5290 24.3916 0.5658
83.5490 24.3783 0.5603
83.5690 24.3649 0.5690
83.5890 24.3516 0.5625
83.6090 24.3382 0.5598
83.6290 24.3249 0.5720
83.6490 24.3115 0.5574
83.6690 24.2982 0.5606
83.6890 24.2848 0.5686
83.7090 24.2715 0.5567
83.7290 24.2582 0.5651
83.7490 24.2449 0.5638
83.7690 24.2316 0.5590
83.7890 24.2183 0.5612
83.8090 24.2049 0.5642
83.8290 24.1916 0.5562
83.8490 24.1783 0.5553
83.8690 24.1649 0.5667
83.8890 24.1515 0.5550
83.9090 24.1382 0.5584
83.9290 24.1249 0.5609
83.9490 24.1116 0.5553
83.9690 24.0982 0.5590
83.9890 24.0849 0.5599
84.0090 24.0716 0.5565
84.0290 24.0582 0.5557
84.0490 24.0449 0.5545
84.0690 24.0315 0.5633
84.0890 24.0182 0.5529
84.1090 24.0049 0.5548
84.1290 23.9915 0.5566
84.1490 23.9782 0.5536
84.1690 23.9649 0.5565
84.1890 23.9516 0.5558
84.2090 23.9383 0.5505
84.2290 23.9249 0.5528
84.2490 23.9116 0.5546
84.2690 23.8983 0.5484
84.2890 23.8849 0.5576
84.3090 23.8716 0.5522
84.3290 23.8582 0.5408
84.3490 23.8449 0.5584
84.3690 23.8315 0.5460
84.3890 23.8182 0.5449
84.4090 23.8049 0.5542
84.4290 23.7915 0.5509
84.4490 23.7782 0.5459
84.4690 23.7649 0.5519
84.4890 23.7515 0.5479
84.5090 23.7382 0.5455
84.5290 23.7249 0.5519
84.5490 23.7116 0.5442
84.5690 23.6983 0.5450
84.5890 23.6849 0.5512
84.6090 23.6716 0.5450
84.6290 23.6583 0.5446
84.6490 23.6449 0.5471
84.6690 23.6316 0.5440
84.6890 23.6182 0.5435
84.7090 23.6048 0.5450
84.7290 23.5915 0.5489
84.7490 23.5782 0.5373
84.7690 23.5648 0.5477
84.7890 23.5515 0.5465
84.8090 23.5382 0.5397
84.8290 23.5249 0.5487
84.8490 23.5116 0.5425
84.8690 23.4982 0.5376
84.8890 23.4849 0.5472
84.9090 23.4716 0.5402
84.9290 23.4583 0.5385
84.9490 23.4449 0.5473
84.9690 23.4316 0.5415
84.9890 23.4183 0.5370
85.0090 23.4049 0.5458
85.0290 23.3916 0.5376
85.0490 23.3782 0.5335
85.0690 23.3649 0.5428
85.0890 23.3516 0.5364
85.1090 23.3382 0.5313
85.1290 23.3249 0.5409
85.1490 23.3115 0.5377
85.1690 23.2982 0.5334
85.1890 23.2849 0.5411
85.2090 23.2716 0.5368
85.2290 23.2582 0.5313
85.2490 23.2449 0.5391
85.2690 23.2316 0.5323
85.2890 23.2183 0.5315
85.3090 23.2049 0.5408
85.3290 23.1916 0.5334
85.3490 23.1783 0.5324
85.3690 23.1649 0.5360
85.3890 23.1516 0.5295
85.4090 23.1382 0.5292
85.4290 23.1248 0.5366
85.4490 23.1115 0.5295
85.4690 23.0982 0.5247
85.4890 23.0848 0.5357
85.5090 23.0715 0.5338
85.5290 23.0582 0.5230
85.5490 23.0449 0.5335
85.5690 23.0316 0.5313
85.5890 23.0182 0.5239
85.6090 23.0049 0.5343
85.6290 22.9916 0.5343
85.6490 22.9783 0.5203
85.6690 22.9649 0.5343
85.6890 22.9516 0.5314
85.7090 22.9382 0.5226
85.7290 22.9249 0.5276
85.7490 22.9116 0.5308
85.7690 22.8982 0.5219
85.7890 22.8849 0.5279
85.8090 22.8716 0.5280
85.8290 22.8582 0.5190
85.8490 22.8449 0.5207
85.8690 22.8315 0.5329
85.8890 22.8182 0.5178
85.9090 22.8049 0.5219
85.9290 22.7916 0.5343
85.9490 22.7782 0.5171
85.9690 22.7649 0.5212
85.9890 22.7516 0.5324
86.0090 22.7383 0.5167
86.0290 22.7249 0.5196
86.0490 22.7116 0.5311
86.0690 22.6982 0.5135
86.0890 22.6849 0.5213
86.1090 22.6716 0.5265
86.1290 22.6582 0.5130
86.1490 22.6449 0.5225
86.1690 22.6316 0.5243
86.1890 22.6183 0.5128
86.2090 22.6049 0.5210
86.2290 22.5915 0.5240
86.2490 22.5782 0.5136
86.2690 22.5649 0.5208
86.2890 22.5515 0.5226
86.3090 22.5382 0.5118
86.3290 22.5249 0.5200
86.3490 22.5116 0.5204
86.3690 22.4983 0.5121
86.3890 22.4850 0.5145
86.4090 22.4716 0.5213
86.4290 22.4583 0.5089
86.4490 22.4450 0.5149
86.4690 22.4316 0.5174
86.4890 22.4182 0.5130
86.5090 22.4049 0.5170
86.5290 22.3915 0.5175
86.5490 22.3782 0.5061
86.5690 22.3649 0.5128
86.5890 22.3515 0.5195
86.6090 22.3382 0.5061
86.6290 22.3249 0.5173
86.6490 22.3116 0.5139
86.6690 22.2982 0.5085
86.6890 22.2849 0.5148
86.7090 22.2716 0.5098
86.7290 22.2583 0.5048
86.7490 22.2449 0.5169
86.7690 22.2316 0.5088
86.7890 22.2182 0.5047
86.8090 22.2049 0.5140
86.8290 22.1916 0.5058
86.8490 22.1782 0.5027
86.8690 22.1648 0.5173
86.8890 22.1515 0.5071
86.9090 22.1382 0.5046
86.9290 22.1249 0.5075
86.9490 22.1115 0.5053
86.9690 22.0982 0.5082
86.9890 22.0849 0.5086
87.0090 22.0716 0.5030
87.0290 22.0582 0.5049
87.0490 22.0449 0.5080
87.0690 22.0316 0.5041
87.0890 22.0183 0.5052
87.1090 22.0049 0.5079
87.1290 21.9916 0.5025
87.1490 21.9782 0.5035
87.1690 21.9649 0.5044
87.1890 21.9515 0.5012
87.2090 21.9382 0.5048
87.2290 21.9248 0.5043
87.2490 21.9115 0.5007
87.2690 21.8982 0.5030
87.2890 21.8849 0.5022
87.3090 21.8715 0.4998
87.3290 21.8582 0.5032
87.3490 21.8449 0.5018
87.3690 21.8316 0.4999
87.3890 21.8182 0.5024
87.4090 21.8049 0.4992
87.4290 21.7916 0.4998
87.4490 21.7783 0.5013
87.4690 21.7649 0.4923
87.4890 21.7516 0.5009
87.5090 21.7382 0.5043
87.5290 21.7249 0.4935
87.5490 21.7116 0.4996
87.5690 21.6982 0.4990
87.5890 21.6849 0.4940
87.6090 21.6715 0.5024
87.6290 21.6582 0.5000
87.6490 21.6449 0.4936
87.6690 21.6315 0.4962
87.6890 21.6182 0.4977
87.7090 21.6049 0.4930
87.7290 21.5916 0.4967
87.7490 21.5782 0.4959
87.7690 21.5649 0.4922
87.7890 21.5516 0.4952
87.8090 21.5383 0.4964
87.8290 21.5249 0.4940
87.8490 21.5116 0.4945
87.8690 21.4982 0.4927
87.8890 21.4849 0.4914
87.9090 21.4716 0.4909
87.9290 21.4582 0.4936
87.9490 21.4449 0.4916
87.9690 21.4315 0.4916
87.9890 21.4182 0.4918
88.0090 21.4049 0.4861
88.0290 21.3915 0.4938
88.0490 21.3782 0.4940
88.0690 21.3648 0.4866
88.0890 21.3515 0.4912
88.1090 21.3382 0.4874
88.1290 21.3249 0.4888
88.1490 21.3116 0.4875
88.1690 21.2983 0.4867
88.1890 21.2850 0.4886
88.2090 21.2716 0.4823
88.2290 21.2583 0.4925
88.2490 21.2449 0.4854
88.2690 21.2316 0.4852
88.2890 21.2182 0.4882
88.3090 21.2048 0.4819
88.3290 21.1915 0.4827
88.3490 21.1782 0.4885
88.3690 21.1649 0.4810
88.3890 21.1515 0.4827
88.4090 21.1382 0.4880
88.4290 21.1249 0.4780
88.4490 21.1115 0.4804
88.4690 21.0982 0.4833
88.4890 21.0849 0.4766
88.5090 21.0715 0.4823
88.5290 21.0583 0.4844
88.5490 21.0449 0.4804
88.5690 21.0316 0.4800
88.5890 21.0183 0.4844
88.6090 21.0049 0.4795
88.6290 20.9916 0.4769
88.6490 20.9782 0.4815
88.6690 20.9648 0.4811
88.6890 20.9515 0.4764
88.7090 20.9382 0.4781
88.7290 20.9249 0.4844
88.7490 20.9115 0.4759
88.7690 20.8981 0.4810
88.7890 20.8849 0.4839
88.8090 20.8716 0.4711
88.8290 20.8583 0.4814
88.8490 20.8449 0.4807
88.8690 20.8316 0.4685
88.8890 20.8183 0.4829
88.9090 20.8050 0.4757
88.9290 20.7916 0.4732
88.9490 20.7782 0.4833
88.9690 20.7649 0.4756
88.9890 20.7516 0.4697
89.0090 20.7382 0.4811
89.0290 20.7249 0.4751
89.0490 20.7115 0.4694
89.0690 20.6982 0.4802
89.0890 20.6849 0.4764
89.1090 20.6715 0.4620
89.1290 20.6582 0.4791
89.1490 20.6449 0.4753
89.1690 20.6316 0.4628
89.1890 20.6182 0.4758
89.2090 20.6049 0.4785
89.2290 20.5916 0.4597
89.2490 20.5783 0.4726
89.2690 20.5649 0.4786
89.2890 20.5516 0.4604
89.3090 20.5382 0.4736
89.3290 20.5249 0.4726
89.3490 20.5116 0.4571
89.3690 20.4982 0.4745
89.3890 20.4848 0.4712
89.4090 20.4715 0.4605
89.4290 20.4582 0.4676
89.4490 20.4449 0.4696
89.4690 20.4316 0.4601
89.4890 20.4182 0.4671
89.5090 20.4049 0.4726
89.5290 20.3916 0.4562
89.5490 20.3782 0.4677
89.5690 20.3649 0.4723
89.5890 20.3515 0.4579
89.6090 20.3382 0.4671
89.6290 20.3249 0.4682
89.6490 20.3116 0.4555
89.6690 20.2982 0.4654
89.6890 20.2849 0.4745
89.7090 20.2716 0.4506
89.7290 20.2583 0.4625
89.7490 20.2449 0.4732
89.7690 20.2315 0.4487
89.7890 20.2182 0.4656
89.8090 20.2049 0.4688
89.8290 20.1915 0.4496
89.8490 20.1782 0.4632
89.8690 20.1649 0.4672
89.8890 20.1516 0.4483
89.9090 20.1382 0.4622
89.9290 20.1249 0.4695
89.9490 20.1116 0.4486
89.9690 20.0983 0.4586
89.9890 20.0849 0.4679
90.0090 20.0716 0.4461
90.0290 20.0582 0.4605
90.0490 20.0449 0.4700
90.0690 20.0316 0.4467
90.0890 20.0183 0.4556
90.1090 20.0049 0.4667
90.1290 19.9915 0.4448
90.1490 19.9782 0.4556
90.1690 19.9649 0.4637
90.1890 19.9515 0.4440
90.2090 19.9382 0.4572
90.2290 19.9249 0.4660
90.2490 19.9116 0.4403
90.2690 19.8982 0.4604
90.2890 19.8849 0.4603
90.3090 19.8716 0.4436
90.3290 19.8583 0.4583
90.3490 19.8449 0.4573
90.3690 19.8316 0.4413
90.3890 19.8182 0.4594
90.4090 19.8049 0.4554
90.4290 19.7916 0.4430
90.4490 19.7782 0.4594
90.4690 19.7649 0.4499
90.4890 19.7515 0.4501
90.5090 19.7382 0.4559
90.5290 19.7249 0.4455
90.5490 19.7116 0.4507
90.5690 19.6982 0.4557
90.5890 19.6849 0.4480
90.6090 19.6716 0.4487
90.6290 19.6583 0.4534
90.6490 19.6449 0.4495
90.6690 19.6316 0.4471
90.6890 19.6183 0.4514
90.7090 19.6050 0.4452
90.7290 19.5916 0.4500
90.7490 19.5782 0.4474
90.7690 19.5649 0.4502
90.7890 19.5516 0.4465
90.8090 19.5383 0.4454
90.8290 19.5249 0.4488
90.8490 19.5115 0.4450
90.8690 19.4982 0.4485
90.8890 19.4848 0.4489
90.9090 19.4715 0.4423
90.9290 19.4581 0.4459
90.9490 19.4448 0.4493
90.9690 19.4315 0.4408
90.9890 19.4182 0.4450
91.0090 19.4049 0.4462
91.0290 19.3916 0.4465
91.0490 19.3783 0.4465
91.0690 19.3649 0.4408
91.0890 19.3516 0.4478
91.1090 19.3382 0.4434
91.1290 19.3249 0.4377
91.1490 19.3116 0.4427
91.1690 19.2982 0.4438
91.1890 19.2849 0.4397
91.2090 19.2715 0.4424
91.2290 19.2582 0.4473
91.2490 19.2449 0.4396
91.2690 19.2316 0.4411
91.2890 19.2182 0.4433
91.3090 19.2049 0.4421
91.3290 19.1915 0.4411
91.3490 19.1782 0.4405
91.3690 19.1649 0.4397
91.3890 19.1515 0.4354
91.4090 19.1382 0.4424
91.4290 19.1249 0.4412
91.4490 19.1116 0.4353
91.4690 19.0983 0.4419
91.4890 19.0849 0.4404
91.5090 19.0716 0.4354
91.5290 19.0583 0.4408
91.5490 19.0449 0.4402
91.5690 19.0315 0.4365
91.5890 19.0182 0.4385
91.6090 19.0049 0.4346
91.6290 18.9915 0.4392
91.6490 18.9782 0.4388
91.6690 18.9648 0.4333
91.6890 18.9515 0.4364
91.7090 18.9382 0.4369
91.7290 18.9249 0.4338
91.7490 18.9116 0.4386
91.7690 18.8982 0.4339
91.7890 18.8849 0.4339
91.8090 18.8716 0.4356
91.8290 18.8583 0.4313
91.8490 18.8449 0.4314
91.8690 18.8316 0.4358
91.8890 18.8183 0.4280
91.9090 18.8049 0.4327
91.9290 18.7915 0.4318
91.9490 18.7782 0.4271
91.9690 18.7649 0.4303
91.9890 18.7515 0.4320
92.0090 18.7381 0.4279
92.0290 18.7248 0.4324
92.0490 18.7115 0.4305
92.0690 18.6982 0.4300
92.0890 18.6849 0.4311
92.1090 18.6716 0.4288
92.1290 18.6583 0.4297
92.1490 18.6450 0.4307
92.1690 18.6316 0.4283
92.1890 18.6183 0.4269
92.2090 18.6049 0.4286
92.2290 18.5916 0.4269
92.2490 18.5783 0.4262
92.2690 18.5649 0.4244
92.2890 18.5515 0.4272
92.3090 18.5382 0.4263
92.3290 18.5249 0.4232
92.3490 18.5115 0.4298
92.3690 18.4982 0.4281
92.3890 18.4848 0.4255
92.4090 18.4715 0.4303
92.4290 18.4582 0.4231
92.4490 18.4449 0.4208
92.4690 18.4316 0.4275
92.4890 18.4183 0.4233
92.5090 18.4050 0.4202
92.5290 18.3916 0.4284
92.5490 18.3783 0.4207
92.5690 18.3649 0.4215
92.5890 18.3516 0.4250
92.6090 18.3383 0.4177
92.6290 18.3249 0.4177
92.6490 18.3115 0.4277
92.6690 18.2982 0.4167
92.6890 18.2849 0.4192
92.7090 18.2715 0.4234
92.7290 18.2582 0.4186
92.7490 18.2448 0.4198
92.7690 18.2315 0.4228
92.7890 18.2182 0.4163
92.8090 18.2049 0.4194
92.8290 18.1915 0.4224
92.8490 18.1782 0.4174
92.8690 18.1649 0.4154
92.8890 18.1516 0.4190
92.9090 18.1382 0.4161
92.9290 18.1249 0.4185
92.9490 18.1116 0.4175
92.9690 18.0983 0.4125
92.9890 18.0849 0.4169
93.0090 18.0716 0.4177
93.0290 18.0582 0.4162
93.0490 18.0449 0.4117
93.0690 18.0316 0.4175
93.0890 18.0182 0.4149
93.1090 18.0048 0.4104
93.1290 17.9915 0.4155
93.1490 17.9782 0.4148
93.1690 17.9649 0.4037
93.1890 17.9516 0.4189
93.2090 17.9382 0.4128
93.2290 17.9249 0.4044
93.2490 17.9116 0.4195
93.2690 17.8983 0.4094
93.2890 17.8849 0.4010
93.3090 17.8716 0.4181
93.3290 17.8583 0.4067
93.3490 17.8449 0.4027
93.3690 17.8316 0.4173
93.3890 17.8182 0.4087
93.4090 17.8049 0.4027
93.4290 17.7916 0.4189
93.4490 17.7782 0.4063
93.4690 17.7648 0.4006
93.4890 17.7515 0.4158
93.5090 17.7382 0.4043
93.5290 17.7249 0.4034
93.5490 17.7115 0.4137
93.5690 17.6982 0.4041
93.5890 17.6849 0.4046
93.6090 17.6716 0.4086
93.6290 17.6583 0.4046
93.6490 17.6449 0.4079
93.6690 17.6316 0.4022
93.6890 17.6183 0.4034
93.7090 17.6049 0.4037
93.7290 17.5916 0.4049
93.7490 17.5782 0.3999
93.7690 17.5649 0.4020
93.7890 17.5515 0.4040
93.8090 17.5382 0.4040
93.8290 17.5248 0.4007
93.8490 17.5115 0.4043
93.8690 17.4982 0.4010
93.8890 17.4849 0.3973
93.9090 17.4716 0.4035
93.9290 17.4582 0.4039
93.9490 17.4450 0.3976
93.9690 17.4316 0.3979
93.9890 17.4183 0.3989
94.0090 17.4049 0.3954
94.0290 17.3916 0.4018
94.0490 17.3783 0.4027
94.0690 17.3649 0.3955
94.0890 17.3515 0.4002
94.1090 17.3382 0.4004
94.1290 17.3249 0.3956
94.1490 17.3115 0.3994
94.1690 17.2982 0.4018
94.1890 17.2848 0.3945
94.2090 17.2715 0.4025
94.2290 17.2582 0.3988
94.2490 17.2449 0.3937
94.2690 17.2316 0.4016
94.2890 17.2183 0.3951
94.3090 17.2050 0.3894
94.3290 17.1916 0.4019
94.3490 17.1783 0.3973
94.3690 17.1649 0.3894
94.3890 17.1516 0.3999
94.4090 17.1383 0.3971
94.4290 17.1249 0.3858
94.4490 17.1115 0.4016
94.4690 17.0982 0.3988
94.4890 17.0849 0.3850
94.5090 17.0716 0.3964
94.5290 17.0582 0.3935
94.5490 17.0449 0.3942
94.5690 17.0315 0.3932
94.5890 17.0182 0.3967
94.6090 17.0049 0.3893
94.6290 16.9916 0.3924
94.6490 16.9782 0.3972
94.6690 16.9649 0.3877
94.6890 16.9516 0.3912
94.7090 16.9383 0.3951
94.7290 16.9249 0.3861
94.7490 16.9116 0.3926
94.7690 16.8983 0.3961
94.7890 16.8849 0.3851
94.8090 16.8715 0.3914
94.8290 16.8582 0.3938
94.8490 16.8449 0.3818
94.8690 16.8316 0.3935
94.8890 16.8182 0.3915
94.9090 16.8048 0.3874
94.9290 16.7915 0.3904
94.9490 16.7782 0.3906
94.9690 16.7649 0.3809
94.9890 16.7516 0.3892
95.0090 16.7383 0.3938
95.0290 16.7249 0.3832
95.0490 16.7116 0.3887
95.0690 16.6982 0.3868
95.0890 16.6849 0.3829
95.1090 16.6715 0.3881
95.1290 16.6582 0.3882
95.1490 16.6449 0.3803
95.1690 16.6315 0.3863
95.1890 16.6182 0.3911
95.2090 16.6049 0.3782
95.2290 16.5915 0.3828
95.2490 16.5782 0.3910
95.2690 16.5648 0.3757
95.2890 16.5515 0.3859
95.3090 16.5382 0.3874
95.3290 16.5249 0.3797
95.3490 16.5116 0.3851
95.3690 16.4982 0.3865
95.3890 16.4849 0.3764
95.4090 16.4716 0.3834
95.4290 16.4583 0.3854
95.4490 16.4449 0.3764
95.4690 16.4316 0.3837
95.4890 16.4183 0.3819
95.5090 16.4049 0.3766
95.5290 16.3916 0.3824
95.5490 16.3782 0.3778
95.5690 16.3649 0.3780
95.5890 16.3516 0.3809
95.6090 16.3382 0.3802
95.6290 16.3249 0.3745
95.6490 16.3115 0.3839
95.6690 16.2982 0.3801
95.6890 16.2849 0.3728
95.7090 16.2716 0.3826
95.7290 16.2582 0.3794
95.7490 16.2449 0.3730
95.7690 16.2316 0.3833
95.7890 16.2183 0.3768
95.8090 16.2049 0.3753
95.8290 16.1916 0.3823
95.8490 16.1783 0.3717
95.8690 16.1650 0.3787
95.8890 16.1516 0.3790
95.9090 16.1382 0.3697
95.9290 16.1248 0.3764
95.9490 16.1115 0.3770
95.9690 16.0982 0.3655
95.9890 16.0848 0.3824
96.0090 16.0715 0.3734
96.0290 16.0582 0.3649
96.0490 16.0449 0.3813
96.0690 16.0316 0.3703
96.0890 16.0182 0.3682
96.1090 16.0049 0.3819
96.1290 15.9916 0.3670
96.1490 15.9783 0.3707
96.1690 15.9649 0.3789
96.1890 15.9515 0.3673
96.2090 15.9382 0.3659
96.2290 15.9249 0.3788
96.2490 15.9115 0.3629
96.2690 15.8982 0.3683
96.2890 15.8849 0.3813
96.3090 15.8716 0.3594
96.3290 15.8582 0.3685
96.3490 15.8448 0.3770
96.3690 15.8315 0.3652
96.3890 15.8182 0.3714
96.4090 15.8049 0.3731
96.4290 15.7916 0.3610
96.4490 15.7782 0.3705
96.4690 15.7649 0.3729
96.4890 15.7516 0.3606
96.5090 15.7382 0.3686
96.5290 15.7249 0.3709
96.5490 15.7116 0.3588
96.5690 15.6982 0.3657
96.5890 15.6849 0.3710
96.6090 15.6715 0.3599
96.6290 15.6582 0.3628
96.6490 15.6449 0.3729
96.6690 15.6316 0.3596
96.6890 15.6182 0.3625
96.7090 15.6049 0.3713
96.7290 15.5915 0.3584
96.7490 15.5782 0.3621
96.7690 15.5649 0.3703
96.7890 15.5515 0.3504
96.8090 15.5382 0.3667
96.8290 15.5249 0.3698
96.8490 15.5116 0.3550
96.8690 15.4983 0.3625
96.8890 15.4849 0.3698
96.9090 15.4716 0.3530
96.9290 15.4583 0.3620
96.9490 15.4450 0.3640
96.9690 15.4316 0.3565
96.9890 15.4182 0.3613
97.0090 15.4049 0.3627
97.0290 15.3916 0.3535
97.0490 15.3782 0.3592
97.0690 15.3649 0.3652
97.0890 15.3515 0.3532
97.1090 15.3382 0.3588
97.1290 15.3249 0.3643
97.1490 15.3116 0.3513
97.1690 15.2982 0.3592
97.1890 15.2849 0.3655
97.2090 15.2716 0.3517
97.2290 15.2583 0.3537
97.2490 15.2449 0.3590
97.2690 15.2316 0.3550
97.2890 15.2183 0.3513
97.3090 15.2049 0.3595
97.3290 15.1916 0.3493
97.3490 15.1782 0.3537
97.3690 15.1649 0.3626
97.3890 15.1515 0.3499
97.4090 15.1382 0.3535
97.4290 15.1249 0.3592
97.4490 15.1115 0.3517
97.4690 15.0982 0.3487
97.4890 15.0849 0.3593
97.5090 15.0715 0.3491
97.5290 15.0582 0.3512
97.5490 15.0449 0.3585
97.5690 15.0316 0.3432
97.5890 15.0183 0.3540
97.6090 15.0049 0.3551
97.6290 14.9916 0.3479
97.6490 14.9782 0.3508
97.6690 14.9649 0.3521
97.6890 14.9515 0.3485
97.7090 14.9382 0.3502
97.7290 14.9248 0.3583
97.7490 14.9115 0.3468
97.7690 14.8982 0.3476
97.7890 14.8849 0.3532
97.8090 14.8715 0.3476
97.8290 14.8582 0.3505
97.8490 14.8449 0.3510
97.8690 14.8316 0.3469
97.8890 14.8182 0.3458
97.9090 14.8049 0.3551
97.9290 14.7916 0.3469
97.9490 14.7783 0.3444
97.9690 14.7649 0.3549
97.9890 14.7516 0.3439
98.0090 14.7383 0.3437
98.0290 14.7249 0.3534
98.0490 14.7116 0.3436
98.0690 14.6982 0.3384
98.0890 14.6848 0.3500
98.1090 14.6715 0.3448
98.1290 14.6582 0.3413
98.1490 14.6448 0.3511
98.1690 14.6315 0.3460
98.1890 14.6182 0.3405
98.2090 14.6049 0.3525
98.2290 14.5916 0.3404
98.2490 14.5782 0.3444
98.2690 14.5649 0.3485
98.2890 14.5516 0.3446
98.3090 14.5383 0.3416
98.3290 14.5249 0.3478
98.3490 14.5115 0.3459
98.3690 14.4982 0.3380
98.3890 14.4849 0.3471
98.4090 14.4716 0.3443
98.4290 14.4582 0.3330
98.4490 14.4449 0.3528
98.4690 14.4316 0.3430
98.4890 14.4182 0.3351
98.5090 14.4049 0.3475
98.5290 14.3915 0.3428
98.5490 14.3782 0.3350
98.5690 14.3649 0.3464
98.5890 14.3515 0.3435
98.6090 14.3382 0.3313
98.6290 14.3249 0.3500
98.6490 14.3116 0.3364
98.6690 14.2983 0.3297
98.6890 14.2849 0.3536
98.7090 14.2716 0.3326
98.7290 14.2583 0.3327
98.7490 14.2449 0.3435
98.7690 14.2316 0.3336
98.7890 14.2182 0.3310
98.8090 14.2049 0.3481
98.8290 14.1916 0.3327
98.8490 14.1782 0.3295
98.8690 14.1649 0.3475
98.8890 14.1515 0.3337
98.9090 14.1382 0.3342
98.9290 14.1249 0.3426
98.9490 14.1116 0.3325
98.9690 14.0982 0.3356
98.9890 14.0849 0.3391
99.0090 14.0716 0.3334
99.0290 14.0583 0.3353
99.0490 14.0449 0.3380
99.0690 14.0316 0.3328
99.0890 14.0183 0.3329
99.1090 14.0050 0.3358
99.1290 13.9916 0.3284
99.1490 13.9782 0.3355
99.1690 13.9648 0.3295
99.1890 13.9515 0.3367
99.2090 13.9382 0.3343
99.2290 13.9248 0.3307
99.2490 13.9115 0.3326
99.2690 13.8981 0.3354
99.2890 13.8849 0.3279
99.3090 13.8716 0.3335
99.3290 13.8582 0.3378
99.3490 13.8449 0.3279
99.3690 13.8316 0.3331
99.3890 13.8183 0.3309
99.4090 13.8050 0.3253
99.4290 13.7916 0.3346
99.4490 13.7782 0.3273
99.4690 13.7649 0.3247
99.4890 13.7516 0.3315
99.5090 13.7382 0.3242
99.5290 13.7248 0.3271
99.5490 13.7115 0.3323
99.5690 13.6982 0.3251
99.5890 13.6849 0.3227
99.6090 13.6715 0.3297
99.6290 13.6582 0.3257
99.6490 13.6449 0.3237
99.6690 13.6316 0.3302
99.6890 13.6182 0.3234
99.7090 13.6049 0.3271
99.7290 13.5916 0.3286
99.7490 13.5783 0.3186
99.7690 13.5649 0.3252
99.7890 13.5516 0.3275
99.8090 13.5383 0.3217
99.8290 13.5249 0.3203
99.8490 13.5116 0.3240
99.8690 13.4982 0.3221
99.8890 13.4848 0.3275
99.9090 13.4715 0.3198
99.9290 13.4582 0.3191
99.9490 13.4449 0.3241
99.9690 13.4315 0.3169
99.9890 13.4182 0.3191
100.0090 13.4049 0.3246
100.0290 13.3916 0.3148
100.0490 13.3782 0.3216
100.0690 13.3649 0.3219
100.0890 13.3516 0.3129
100.1090 13.3383 0.3239
100.1290 13.3249 0.3179
100.1490 13.3116 0.3122
100.1690 13.2982 0.3254
100.1890 13.2849 0.3105
100.2090 13.2716 0.3121
100.2290 13.2582 0.3235
100.2490 13.2449 0.3089
100.2690 13.2315 0.3150
100.2890 13.2182 0.3246
100.3090 13.2049 0.3074
100.3290 13.1915 0.3173
100.3490 13.1782 0.3204
100.3690 13.1649 0.3066
100.3890 13.1515 0.3155
100.4090 13.1382 0.3164
100.4290 13.1249 0.3089
100.4490 13.1116 0.3183
100.4690 13.0983 0.3133
100.4890 13.0849 0.3046
100.5090 13.0716 0.3155
100.5290 13.0582 0.3118
100.5490 13.0449 0.3099
100.5690 13.0316 0.3119
100.5890 13.0182 0.3082
100.6090 13.0048 0.3117
100.6290 12.9915 0.3100
100.6490 12.9782 0.3094
100.6690 12.9649 0.3144
100.6890 12.9515 0.3057
100.7090 12.9382 0.3094
100.7290 12.9249 0.3063
100.7490 12.9115 0.3038
100.7690 12.8982 0.3156
100.7890 12.8848 0.3066
100.8090 12.8715 0.3015
100.8290 12.8583 0.3111
100.8490 12.8450 0.3060
100.8690 12.8316 0.3043
100.8890 12.8183 0.3113
100.9090 12.8050 0.3053
100.9290 12.7916 0.2989
100.9490 12.7782 0.3079
100.9690 12.7649 0.3038
100.9890 12.7515 0.3047
101.0090 12.7382 0.3068
101.0290 12.7249 0.2958
101.0490 12.7115 0.3011
101.0690 12.6981 0.3109
101.0890 12.6849 0.2972
101.1090 12.6716 0.3048
101.1290 12.6583 0.3082
101.1490 12.6449 0.2953
101.1690 12.6316 0.3009
101.1890 12.6183 0.3061
101.2090 12.6050 0.2978
101.2290 12.5916 0.3052
101.2490 12.5782 0.3042
101.2690 12.5649 0.2939
101.2890 12.5516 0.3064
101.3090 12.5382 0.3008
101.3290 12.5248 0.2988
101.3490 12.5115 0.3058
101.3690 12.4982 0.2983
101.3890 12.4849 0.2953
101.4090 12.4715 0.3041
101.4290 12.4582 0.2989
101.4490 12.4449 0.2958
101.4690 12.4316 0.3009
101.4890 12.4182 0.3009
101.5090 12.4049 0.2959
101.5290 12.3916 0.3017
101.5490 12.3783 0.2970
101.5690 12.3650 0.2940
101.5890 12.3516 0.2993
101.6090 12.3382 0.2988
101.6290 12.3249 0.2935
101.6490 12.3116 0.2956
101.6690 12.2982 0.2989
101.6890 12.2848 0.2891
101.7090 12.2715 0.2996
101.7290 12.2582 0.3008
101.7490 12.2449 0.2851
101.7690 12.2315 0.2991
101.7890 12.2182 0.2954
101.8090 12.2049 0.2857
101.8290 12.1916 0.2990
101.8490 12.1782 0.2970
101.8690 12.1649 0.2852
101.8890 12.1516 0.2951
101.9090 12.1383 0.2959
101.9290 12.1249 0.2851
101.9490 12.1116 0.3009
101.9690 12.0982 0.2929
101.9890 12.0849 0.2864
102.0090 12.0716 0.2967
102.0290 12.0582 0.2889
102.0490 12.0449 0.2876
102.0690 12.0315 0.2975
102.0890 12.0182 0.2896
102.1090 12.0049 0.2832
102.1290 11.9915 0.2939
102.1490 11.9782 0.2870
102.1690 11.9648 0.2871
102.1890 11.9516 0.2946
102.2090 11.9382 0.2825
102.2290 11.9249 0.2856
102.2490 11.9116 0.2869
102.2690 11.8983 0.2897
102.2890 11.8849 0.2833
102.3090 11.8716 0.2896
102.3290 11.8582 0.2865
102.3490 11.8449 0.2867
102.3690 11.8316 0.2864
102.3890 11.8182 0.2858
102.4090 11.8049 0.2877
102.4290 11.7915 0.2869
102.4490 11.7782 0.2816
102.4690 11.7649 0.2832
102.4890 11.7515 0.2833
102.5090 11.7382 0.2832
102.5290 11.7248 0.2836
102.5490 11.7115 0.2843
102.5690 11.6982 0.2803
102.5890 11.6849 0.2867
102.6090 11.6716 0.2889
102.6290 11.6583 0.2804
102.6490 11.6450 0.2827
102.6690 11.6316 0.2845
102.6890 11.6183 0.2808
102.7090 11.6049 0.2828
102.7290 11.5916 0.2850
102.7490 11.5782 0.2751
102.7690 11.5649 0.2828
102.7890 11.5515 0.2836
102.8090 11.5382 0.2757
102.8290 11.5249 0.2821
102.8490 11.5115 0.2776
102.8690 11.4982 0.2755
102.8890 11.4849 0.2830
102.9090 11.4716 0.2769
102.9290 11.4582 0.2774
102.9490 11.4449 0.2813
102.9690 11.4316 0.2781
102.9890 11.4183 0.2713
103.0090 11.4050 0.2835
103.0290 11.3916 0.2741
103.0490 11.3783 0.2757
103.0690 11.3649 0.2847
103.0890 11.3516 0.2698
103.1090 11.3382 0.2754
103.1290 11.3249 0.2840
103.1490 11.3115 0.2729
103.1690 11.2982 0.2783
103.1890 11.2849 0.2804
103.2090 11.2715 0.2666
103.2290 11.2581 0.2767
103.2490 11.2448 0.2821
103.2690 11.2316 0.2649
103.2890 11.2183 0.2764
103.3090 11.2049 0.2785
103.3290 11.1916 0.2659
103.3490 11.1783 0.2779
103.3690 11.1650 0.2744
103.3890 11.1516 0.2686
103.4090 11.1382 0.2755
103.4290 11.1249 0.2738
103.4490 11.1116 0.2665
103.4690 11.0982 0.2717
103.4890 11.0849 0.2722
103.5090 11.0715 0.2687
103.5290 11.0582 0.2744
103.5490 11.0449 0.2680
103.5690 11.0316 0.2664
103.5890 11.0182 0.2721
103.6090 11.0049 0.2689
103.6290 10.9916 0.2633
103.6490 10.9782 0.2682
103.6690 10.9649 0.2745
103.6890 10.9516 0.2609
103.7090 10.9383 0.2666
103.7290 10.9249 0.2707
103.7490 10.9116 0.2621
103.7690 10.8982 0.2655
103.7890 10.8849 0.2684
103.8090 10.8716 0.2615
103.8290 10.8582 0.2623
103.8490 10.8449 0.2687
103.8690 10.8315 0.2616
103.8890 10.8182 0.2597
103.9090 10.8049 0.2709
103.9290 10.7916 0.2559
103.9490 10.7782 0.2654
103.9690 10.7649 0.2668
103.9890 10.7516 0.2577
104.0090 10.7382 0.2661
104.0290 10.7248 0.2629
104.0490 10.7115 0.2569
104.0690 10.6982 0.2595
104.0890 10.6849 0.2646
104.1090 10.6716 0.2554
104.1290 10.6583 0.2618
104.1490 10.6449 0.2634
104.1690 10.6316 0.2536
104.1890 10.6183 0.2579
104.2090 10.6049 0.2606
104.2290 10.5915 0.2573
104.2490 10.5782 0.2588
104.2690 10.5649 0.2598
104.2890 10.5515 0.2567
104.3090 10.5382 0.2522
104.3290 10.5248 0.2590
104.3490 10.5115 0.2539
104.3690 10.4982 0.2531
104.3890 10.4849 0.2591
104.4090 10.4715 0.2540
104.4290 10.4583 0.2529
104.4490 10.4449 0.2610
104.4690 10.4316 0.2490
104.4890 10.4182 0.2506
104.5090 10.4049 0.2644
104.5290 10.3916 0.2445
104.5490 10.3783 0.2494
104.5690 10.3649 0.2657
104.5890 10.3515 0.2419
104.6090 10.3382 0.2512
104.6290 10.3249 0.2603
104.6490 10.3116 0.2415
104.6690 10.2982 0.2510
104.6890 10.2848 0.2552
104.7090 10.2715 0.2370
104.7290 10.2582 0.2544
104.7490 10.2448 0.2529
104.7690 10.2315 0.2380
104.7890 10.2182 0.2539
104.8090 10.2049 0.2471
104.8290 10.1916 0.2443
104.8490 10.1782 0.2519
104.8690 10.1649 0.2473
104.8890 10.1516 0.2465
104.9090 10.1382 0.2452
104.9290 10.1249 0.2488
104.9490 10.1115 0.2462
104.9690 10.0982 0.2456
104.9890 10.0849 0.2447
105.0090 10.0716 0.2408
105.0290 10.0582 0.2442
105.0490 10.0449 0.2439
105.0690 10.0316 0.2452
105.0890 10.0182 0.2396
105.1090 10.0049 0.2477
105.1290 9.9916 0.2409
105.1490 9.9783 0.2412
105.1690 9.9650 0.2463
105.1890 9.9516 0.2389
105.2090 9.9382 0.2419
105.2290 9.9249 0.2465
105.2490 9.9116 0.2329
105.2690 9.8983 0.2440
105.2890 9.8849 0.2410
105.3090 9.8715 0.2363
105.3290 9.8582 0.2357
105.3490 9.8449 0.2417
105.3690 9.8315 0.2327
105.3890 9.8182 0.2387
105.4090 9.8049 0.2440
105.4290 9.7916 0.2322
105.4490 9.7783 0.2391
105.4690 9.7649 0.2404
105.4890 9.7516 0.2324
105.5090 9.7383 0.2419
105.5290 9.7250 0.2360
105.5490 9.7116 0.2339
105.5690 9.6982 0.2391
105.5890 9.6849 0.2389
105.6090 9.6715 0.2315
105.6290 9.6582 0.2330
105.6490 9.6449 0.2375
105.6690 9.6315 0.2318
105.6890 9.6182 0.2335
105.7090 9.6049 0.2320
105.7290 9.5916 0.2314
105.7490 9.5782 0.2315
105.7690 9.5649 0.2338
105.7890 9.5516 0.2320
105.8090 9.5382 0.2321
105.8290 9.5249 0.2321
105.8490 9.5115 0.2319
105.8690 9.4982 0.2317
105.8890 9.4849 0.2297
105.9090 9.4716 0.2293
105.9290 9.4583 0.2313
105.9490 9.4449 0.2294
105.9690 9.4316 0.2310
105.9890 9.4183 0.2278
106.0090 9.4049 0.2299
106.0290 9.3915 0.2291
106.0490 9.3782 0.2245
106.0690 9.3649 0.2300
106.0890 9.3515 0.2304
106.1090 9.3382 0.2181
106.1290 9.3248 0.2315
106.1490 9.3115 0.2271
106.1690 9.2982 0.2199
106.1890 9.2849 0.2309
106.2090 9.2715 0.2263
106.2290 9.2582 0.2183
106.2490 9.2449 0.2311
106.2690 9.2316 0.2192
106.2890 9.2182 0.2221
106.3090 9.2049 0.2312
106.3290 9.1916 0.2155
106.3490 9.1783 0.2231
106.3690 9.1649 0.2238
106.3890 9.1515 0.2187
106.4090 9.1382 0.2267
106.4290 9.1249 0.2222
106.4490 9.1115 0.2183
106.4690 9.0982 0.2252
106.4890 9.0848 0.2186
106.5090 9.0715 0.2186
106.5290 9.0582 0.2208
106.5490 9.0449 0.2159
106.5690 9.0316 0.2212
106.5890 9.0183 0.2223
106.6090 9.0050 0.2142
106.6290 8.9917 0.2192
106.6490 8.9783 0.2179
106.6690 8.9649 0.2131
106.6890 8.9516 0.2186
106.7090 8.9383 0.2170
106.7290 8.9249 0.2143
106.7490 8.9115 0.2177
106.7690 8.8982 0.2142
106.7890 8.8849 0.2086
106.8090 8.8716 0.2158
106.8290 8.8582 0.2160
106.8490 8.8448 0.2124
106.8690 8.8315 0.2173
106.8890 8.8182 0.2142
106.9090 8.8049 0.2060
106.9290 8.7916 0.2186
106.9490 8.7782 0.2140
106.9690 8.7649 0.2049
106.9890 8.7516 0.2182
107.0090 8.7383 0.2089
107.0290 8.7249 0.2034
107.0490 8.7116 0.2173
107.0690 8.6983 0.2062
107.0890 8.6849 0.2035
107.1090 8.6715 0.2161
107.1290 8.6582 0.2050
107.1490 8.6449 0.2059
107.1690 8.6315 0.2112
107.1890 8.6182 0.2038
107.2090 8.6048 0.2057
107.2290 8.5915 0.2088
107.2490 8.5782 0.2017
107.2690 8.5649 0.2069
107.2890 8.5515 0.2125
107.3090 8.5382 0.2001
107.3290 8.5249 0.2053
107.3490 8.5116 0.2054
107.3690 8.4982 0.2025
107.3890 8.4849 0.2084
107.4090 8.4716 0.2051
107.4290 8.4583 0.2013
107.4490 8.4449 0.2051
107.4690 8.4316 0.2036
107.4890 8.4182 0.2042
107.5090 8.4049 0.2013
107.5290 8.3916 0.1997
107.5490 8.3782 0.2036
107.5690 8.3648 0.2005
107.5890 8.3515 0.1985
107.6090 8.3382 0.2028
107.6290 8.3249 0.1989
107.6490 8.3116 0.1984
107.6690 8.2982 0.2019
107.6890 8.2849 0.1971
107.7090 8.2716 0.1972
107.7290 8.2583 0.2015
107.7490 8.2449 0.1906
107.7690 8.2316 0.2033
107.7890 8.2183 0.2011
107.8090 8.2049 0.1944
107.8290 8.1916 0.2012
107.8490 8.1782 0.1986
107.8690 8.1649 0.1918
107.8890 8.1516 0.1943
107.9090 8.1382 0.2023
107.9290 8.1248 0.1888
107.9490 8.1115 0.1981
107.9690 8.0982 0.2012
107.9890 8.0849 0.1847
108.0090 8.0715 0.2005
108.0290 8.0582 0.1972
108.0490 8.0449 0.1859
108.0690 8.0316 0.1947
108.0890 8.0183 0.1940
108.1090 8.0049 0.1913
108.1290 7.9916 0.1964
108.1490 7.9783 0.1932
108.1690 7.9650 0.1856
108.1890 7.9516 0.1949
108.2090 7.9382 0.1919
108.2290 7.9249 0.1904
108.2490 7.9115 0.1938
108.2690 7.8982 0.1867
108.2890 7.8848 0.1890
108.3090 7.8715 0.1928
108.3290 7.8582 0.1848
108.3490 7.8449 0.1909
108.3690 7.8316 0.1905
108.3890 7.8183 0.1923
108.4090 7.8050 0.1825
108.4290 7.7916 0.1926
108.4490 7.7783 0.1840
108.4690 7.7649 0.1884
108.4890 7.7516 0.1822
108.5090 7.7382 0.1897
108.5290 7.7249 0.1831
108.5490 7.7115 0.1807
108.5690 7.6982 0.1908
108.5890 7.6849 0.1839
108.6090 7.6716 0.1772
108.6290 7.6582 0.1886
108.6490 7.6448 0.1799
108.6690 7.6315 0.1770
108.6890 7.6182 0.1937
108.7090 7.6049 0.1657
108.7290 7.5916 0.1866
108.7490 7.5782 0.1811
108.7690 7.5649 0.1825
108.7890 7.5516 0.1729
108.8090 7.5383 0.1891
108.8290 7.5249 0.1712
108.8490 7.5115 0.1801
108.8690 7.4982 0.1835
108.8890 7.4849 0.1689
108.9090 7.4715 0.1850
108.9290 7.4582 0.1747
108.9490 7.4449 0.1742
108.9690 7.4316 0.1747
108.9890 7.4182 0.1839
109.0090 7.4049 0.1704
109.0290 7.3916 0.1827
109.0490 7.3782 0.1727
109.0690 7.3649 0.1760
109.0890 7.3516 0.1725
109.1090 7.3382 0.1809
109.1290 7.3249 0.1680
109.1490 7.3116 0.1758
109.1690 7.2983 0.1746
109.1890 7.2849 0.1787
109.2090 7.2716 0.1749
109.2290 7.2582 0.1687
109.2490 7.2449 0.1791
109.2690 7.2315 0.1610
109.2890 7.2182 0.1815
109.3090 7.2049 0.1654
109.3290 7.1916 0.1705
109.3490 7.1782 0.1724
109.3690 7.1649 0.1732
109.3890 7.1515 0.1615
109.4090 7.1382 0.1774
109.4290 7.1249 0.1645
109.4490 7.1116 0.1661
109.4690 7.0982 0.1752
109.4890 7.0850 0.1627
109.5090 7.0716 0.1636
109.5290 7.0583 0.1721
109.5490 7.0449 0.1672
109.5690 7.0315 0.1576
109.5890 7.0182 0.1744
109.6090 7.0049 0.1571
109.6290 6.9915 0.1661
109.6490 6.9782 0.1660
109.6690 6.9649 0.1613
109.6890 6.9516 0.1579
109.7090 6.9382 0.1689
109.7290 6.9248 0.1589
109.7490 6.9115 0.1602
109.7690 6.8982 0.1667
109.7890 6.8849 0.1549
109.8090 6.8716 0.1598
109.8290 6.8583 0.1645
109.8490 6.8450 0.1610
109.8690 6.8317 0.1558
109.8890 6.8183 0.1626
109.9090 6.8049 0.1548
109.9290 6.7916 0.1582
109.9490 6.7783 0.1627
109.9690 6.7649 0.1512
109.9890 6.7516 0.1524
110.0090 6.7382 0.1646
110.0290 6.7248 0.1564
110.0490 6.7115 0.1516
110.0690 6.6982 0.1612
110.0890 6.6848 0.1539
110.1090 6.6715 0.1523
110.1290 6.6582 0.1559
110.1490 6.6449 0.1509
110.1690 6.6316 0.1522
110.1890 6.6182 0.1600
110.2090 6.6049 0.1487
110.2290 6.5916 0.1491
110.2490 6.5783 0.1548
110.2690 6.5649 0.1524
110.2890 6.5516 0.1529
110.3090 6.5383 0.1531
110.3290 6.5249 0.1519
110.3490 6.5116 0.1481
110.3690 6.4982 0.1523
110.3890 6.4848 0.1493
110.4090 6.4715 0.1483
110.4290 6.4582 0.1466
110.4490 6.4448 0.1488
110.4690 6.4315 0.1523
110.4890 6.4182 0.1465
110.5090 6.4049 0.1467
110.5290 6.3916 0.1496
110.5490 6.3783 0.1388
110.5690 6.3650 0.1497
110.5890 6.3517 0.1487
110.6090 6.3383 0.1369
110.6290 6.3249 0.1463
110.6490 6.3116 0.1520
110.6690 6.2983 0.1386
110.6890 6.2849 0.1466
110.7090 6.2715 0.1421
110.7290 6.2582 0.1388
110.7490 6.2449 0.1486
110.7690 6.2316 0.1400
110.7890 6.2183 0.1346
110.8090 6.2049 0.1515
110.8290 6.1915 0.1388
110.8490 6.1782 0.1323
110.8690 6.1649 0.1478
110.8890 6.1515 0.1399
110.9090 6.1382 0.1347
110.9290 6.1249 0.1429
110.9490 6.1116 0.1334
110.9690 6.0983 0.1349
110.9890 6.0849 0.1439
111.0090 6.0715 0.1328
111.0290 6.0582 0.1341
111.0490 6.0449 0.1432
111.0690 6.0315 0.1344
111.0890 6.0182 0.1320
111.1090 6.0048 0.1384
111.1290 5.9916 0.1345
111.1490 5.9782 0.1291
111.1690 5.9649 0.1370
111.1890 5.9515 0.1356
111.2090 5.9382 0.1283
111.2290 5.9249 0.1365
111.2490 5.9115 0.1290
111.2690 5.8982 0.1293
111.2890 5.8849 0.1392
111.3090 5.8716 0.1273
111.3290 5.8583 0.1281
111.3490 5.8449 0.1316
111.3690 5.8316 0.1269
111.3890 5.8183 0.1285
111.4090 5.8050 0.1294
111.4290 5.7916 0.1268
111.4490 5.7782 0.1283
111.4690 5.7649 0.1290
111.4890 5.7516 0.1241
111.5090 5.7382 0.1307
111.5290 5.7249 0.1262
111.5490 5.7115 0.1251
111.5690 5.6982 0.1256
111.5890 5.6849 0.1217
111.6090 5.6716 0.1271
111.6290 5.6582 0.1230
111.6490 5.6449 0.1272
111.6690 5.6316 0.1251
111.6890 5.6183 0.1175
111.7090 5.6049 0.1278
111.7290 5.5916 0.1219
111.7490 5.5783 0.1217
111.7690 5.5650 0.1264
111.7890 5.5516 0.1185
111.8090 5.5382 0.1167
111.8290 5.5249 0.1238
111.8490 5.5115 0.1194
111.8690 5.4982 0.1179
111.8890 5.4849 0.1249
111.9090 5.4715 0.1171
111.9290 5.4582 0.1129
111.9490 5.4449 0.1240
111.9690 5.4315 0.1143
111.9890 5.4182 0.1133
112.0090 5.4049 0.1200
112.0290 5.3916 0.1086
112.0490 5.3783 0.1177
112.0690 5.3649 0.1193
112.0890 5.3516 0.1131
112.1090 5.3382 0.1114
112.1290 5.3249 0.1153
112.1490 5.3116 0.1113
112.1690 5.2982 0.1149
112.1890 5.2848 0.1201
112.2090 5.2715 0.1130
112.2290 5.2582 0.1072
112.2490 5.2449 0.1142
112.2690 5.2315 0.1143
112.2890 5.2182 0.1064
112.3090 5.2049 0.1099
112.3290 5.1916 0.1123
112.3490 5.1782 0.1061
112.3690 5.1649 0.1143
112.3890 5.1516 0.1093
112.4090 5.1383 0.1043
112.4290 5.1249 0.1111
112.4490 5.1116 0.1039
112.4690 5.0982 0.1040
112.4890 5.0849 0.1102
112.5090 5.0716 0.1065
112.5290 5.0582 0.1008
112.5490 5.0448 0.1047
112.5690 5.0315 0.1084
112.5890 5.0182 0.0995
112.6090 5.0048 0.1053
112.6290 4.9915 0.1069
112.6490 4.9782 0.0971
112.6690 4.9649 0.1032
112.6890 4.9516 0.1029
112.7090 4.9383 0.0999
112.7290 4.9249 0.1024
112.7490 4.9116 0.0978
112.7690 4.8983 0.0968
112.7890 4.8849 0.1017
112.8090 4.8715 0.1001
112.8290 4.8582 0.0919
112.8490 4.8449 0.0968
112.8690 4.8316 0.0985
112.8890 4.8182 0.0906
112.9090 4.8049 0.0983
112.9290 4.7916 0.0960
112.9490 4.7782 0.0918
112.9690 4.7649 0.0941
112.9890 4.7515 0.1016
113.0090 4.7382 0.0860
113.0290 4.7249 0.0953
113.0490 4.7116 0.0957
113.0690 4.6982 0.0848
113.0890 4.6849 0.0961
113.1090 4.6716 0.0931
113.1290 4.6583 0.0829
113.1490 4.6449 0.0937
113.1690 4.6316 0.0921
113.1890 4.6183 0.0833
113.2090 4.6050 0.0912
113.2290 4.5916 0.0883
113.2490 4.5782 0.0850
113.2690 4.5649 0.0894
113.2890 4.5515 0.0851
113.3090 4.5382 0.0845
113.3290 4.5249 0.0881
113.3490 4.5115 0.0861
113.3690 4.4982 0.0874
113.3890 4.4849 0.0832
113.4090 4.4715 0.0850
113.4290 4.4582 0.0801
113.4490 4.4449 0.0844
113.4690 4.4316 0.0884
113.4890 4.4183 0.0803
113.5090 4.4049 0.0794
113.5290 4.3916 0.0862
113.5490 4.3783 0.0778
113.5690 4.3650 0.0806
113.5890 4.3516 0.0854
113.6090 4.3382 0.0786
113.6290 4.3248 0.0787
113.6490 4.3115 0.0837
113.6690 4.2982 0.0752
113.6890 4.2848 0.0762
113.7090 4.2715 0.0833
113.7290 4.2582 0.0739
113.7490 4.2449 0.0753
113.7690 4.2316 0.0833
113.7890 4.2182 0.0712
113.8090 4.2049 0.0743
113.8290 4.1916 0.0810
113.8490 4.1783 0.0722
113.8690 4.1650 0.0732
113.8890 4.1516 0.0825
113.9090 4.1382 0.0694
113.9290 4.1249 0.0717
113.9490 4.1116 0.0799
113.9690 4.0982 0.0678
113.9890 4.0849 0.0726
114.0090 4.0715 0.0757
114.0290 4.0582 0.0660
114.0490 4.0449 0.0681
114.0690 4.0315 0.0753
114.0890 4.0182 0.0649
114.1090 4.0049 0.0737
114.1290 3.9916 0.0711
114.1490 3.9782 0.0615
114.1690 3.9649 0.0751
114.1890 3.9516 0.0671
114.2090 3.9383 0.0600
114.2290 3.9249 0.0734
114.2490 3.9116 0.0628
114.2690 3.8983 0.0660
114.2890 3.8850 0.0671
114.3090 3.8716 0.0611
114.3290 3.8582 0.0677
114.3490 3.8449 0.0653
114.3690 3.8315 0.0625
114.3890 3.8182 0.0656
114.4090 3.8049 0.0558
114.4290 3.7915 0.0588
114.4490 3.7782 0.0715
114.4690 3.7649 0.0574
114.4890 3.7516 0.0565
114.5090 3.7382 0.0724
114.5290 3.7249 0.0517
114.5490 3.7116 0.0630
114.5690 3.6983 0.0674
114.5890 3.6849 0.0509
114.6090 3.6716 0.0606
114.6290 3.6582 0.0596
114.6490 3.6449 0.0487
114.6690 3.6316 0.0587
114.6890 3.6183 0.0583
114.7090 3.6049 0.0497
114.7290 3.5916 0.0561
114.7490 3.5782 0.0571
114.7690 3.5649 0.0496
114.7890 3.5515 0.0552
114.8090 3.5382 0.0518
114.8290 3.5249 0.0539
114.8490 3.5115 0.0550
114.8690 3.4982 0.0502
114.8890 3.4849 0.0504
114.9090 3.4716 0.0521
114.9290 3.4583 0.0515
114.9490 3.4449 0.0509
114.9690 3.4316 0.0530
114.9890 3.4182 0.0473
115.0090 3.4049 0.0464
115.0290 3.3916 0.0461
115.0490 3.3782 0.0505
115.0690 3.3649 0.0486
115.0890 3.3515 0.0455
115.1090 3.3383 0.0467
115.1290 3.3249 0.0428
115.1490 3.3115 0.0416
115.1690 3.2982 0.0522
115.1890 3.2848 0.0419
115.2090 3.2715 0.0400
115.2290 3.2582 0.0469
115.2490 3.2448 0.0422
115.2690 3.2316 0.0446
115.2890 3.2183 0.0460
115.3090 3.2050 0.0360
115.3290 3.1916 0.0386
115.3490 3.1783 0.0470
115.3690 3.1649 0.0358
115.3890 3.1516 0.0376
115.4090 3.1383 0.0413
115.4290 3.1249 0.0336
115.4490 3.1115 0.0400
115.4690 3.0982 0.0398
115.4890 3.0849 0.0315
115.5090 3.0715 0.0351
115.5290 3.0582 0.0395
115.5490 3.0448 0.0331
115.5690 3.0315 0.0336
115.5890 3.0182 0.0426
115.6090 3.0049 0.0257
115.6290 2.9916 0.0310
115.6490 2.9783 0.0358
115.6690 2.9649 0.0260
115.6890 2.9516 0.0344
115.7090 2.9382 0.0345
115.7290 2.9249 0.0249
115.7490 2.9116 0.0254
115.7690 2.8982 0.0319
115.7890 2.8848 0.0290
115.8090 2.8715 0.0237
115.8290 2.8582 0.0277
115.8490 2.8449 0.0239
115.8690 2.8315 0.0208
115.8890 2.8182 0.0275
115.9090 2.8049 0.0221
115.9290 2.7916 0.0207
115.9490 2.7782 0.0265
115.9690 2.7649 0.0233
115.9890 2.7516 0.0162
116.0090 2.7383 0.0239
116.0290 2.7250 0.0181
116.0490 2.7116 0.0173
116.0690 2.6982 0.0287
116.0890 2.6849 0.0095
116.1090 2.6716 0.0122
116.1290 2.6582 0.0233
116.1490 2.6449 0.0121
116.1690 2.6315 0.0118
116.1890 2.6182 0.0212
116.2090 2.6049 0.0055
116.2290 2.5916 0.0117
116.2490 2.5782 0.0176
116.2690 2.5649 0.0040
116.2890 2.5516 0.0093
116.3090 2.5382 0.0142
116.3290 2.5249 0.0027
116.3490 2.5116 0.0094
116.3690 2.4983 0.0127
116.3890 2.4850 0.0017
116.4090 2.4716 0.0068
116.4290 2.4582 0.0081
116.4490 2.4449 -0.0019
116.4690 2.4316 0.0044
116.4890 2.4182 0.0104
116.5090 2.4049 -0.0032
116.5290 2.3915 0.0047
116.5490 2.3782 0.0057
116.5690 2.3649 -0.0105
116.5890 2.3515 0.0024
116.6090 2.3382 0.0038
116.6290 2.3248 -0.0084
116.6490 2.3115 0.0012
116.6690 2.2982 -0.0005
116.6890 2.2849 -0.0025
116.7090 2.2716 -0.0003
116.7290 2.2583 -0.0026
116.7490 2.2449 -0.0077
116.7690 2.2316 -0.0015
116.7890 2.2182 -0.0044
116.8090 2.2049 -0.0043
116.8290 2.1916 -0.0027
116.8490 2.1782 -0.0127
116.8690 2.1649 -0.0030
116.8890 2.1515 -0.0083
116.9090 2.1382 -0.0085
116.9290 2.1249 -0.0012
116.9490 2.1115 -0.0081
116.9690 2.0982 -0.0092
116.9890 2.0848 -0.0059
117.0090 2.0715 -0.0023
117.0290 2.0582 -0.0087
117.0490 2.0449 -0.0045
117.0690 2.0316 -0.0078
117.0890 2.0183 -0.0084
117.1090 2.0050 -0.0100
117.1290 1.9916 -0.0070
117.1490 1.9783 -0.0082
117.1690 1.9649 -0.0076
117.1890 1.9516 -0.0191
117.2090 1.9383 -0.0029
117.2290 1.9249 -0.0079
117.2490 1.9115 -0.0189
117.2690 1.8982 -0.0032
117.2890 1.8849 -0.0132
117.3090 1.8715 -0.0152
117.3290 1.8582 -0.0075
117.3490 1.8449 -0.0079
117.3690 1.8316 -0.0213
117.3890 1.8182 -0.0019
117.4090 1.8049 -0.0129
117.4290 1.7915 -0.0119
117.4490 1.7783 -0.0046
117.4690 1.7650 -0.0139
117.4890 1.7516 -0.0106
117.5090 1.7383 -0.0044
117.5290 1.7249 -0.0145
117.5490 1.7116 -0.0054
117.5690 1.6983 -0.0058
117.5890 1.6849 -0.0161
117.6090 1.6715 -0.0070
117.6290 1.6582 -0.0106
117.6490 1.6449 -0.0118
117.6690 1.6315 -0.0080
117.6890 1.6182 -0.0108
117.7090 1.6048 -0.0137
117.7290 1.5916 -0.0081
117.7490 1.5782 -0.0142
117.7690 1.5649 -0.0111
117.7890 1.5516 -0.0006
117.8090 1.5383 -0.0144
117.8290 1.5250 -0.0099
117.8490 1.5116 -0.0065
117.8690 1.4982 -0.0142
117.8890 1.4849 -0.0016
117.9090 1.4716 -0.0120
117.9290 1.4582 -0.0124
117.9490 1.4449 -0.0067
117.9690 1.4315 -0.0108
117.9890 1.4182 -0.0099
118.0090 1.4049 -0.0065
118.0290 1.3916 -0.0135
118.0490 1.3782 -0.0109
118.0690 1.3649 -0.0066
118.0890 1.3516 -0.0129
118.1090 1.3382 -0.0115
118.1290 1.3249 -0.0052
118.1490 1.3116 -0.0117
118.1690 1.2983 -0.0111
118.1890 1.2849 -0.0098
118.2090 1.2716 -0.0101
118.2290 1.2582 -0.0130
118.2490 1.2449 -0.0061
118.2690 1.2316 -0.0124
118.2890 1.2182 -0.0123
118.3090 1.2049 -0.0068
118.3290 1.1915 -0.0100
118.3490 1.1782 -0.0186
118.3690 1.1649 -0.0058
118.3890 1.1516 -0.0100
118.4090 1.1382 -0.0140
118.4290 1.1249 -0.0089
118.4490 1.1116 -0.0102
118.4690 1.0982 -0.0174
118.4890 1.0849 -0.0079
118.5090 1.0715 -0.0102
118.5290 1.0582 -0.0158
118.5490 1.0449 -0.0068
118.5690 1.0316 -0.0143
118.5890 1.0182 -0.0157
118.6090 1.0049 -0.0061
118.6290 0.9916 -0.0111
118.6490 0.9783 -0.0151
118.6690 0.9649 -0.0097
118.6890 0.9516 -0.0112
118.7090 0.9382 -0.0163
118.7290 0.9249 -0.0064
118.7490 0.9115 -0.0105
118.7690 0.8982 -0.0130
118.7890 0.8849 -0.0076
118.8090 0.8716 -0.0096
118.8290 0.8582 -0.0127
118.8490 0.8449 -0.0094
118.8690 0.8316 -0.0072
118.8890 0.8183 -0.0172
118.9090 0.8050 -0.0131
118.9290 0.7916 -0.0036
118.9490 0.7782 -0.0168
118.9690 0.7649 -0.0113
118.9890 0.7516 -0.0054
119.0090 0.7383 -0.0231
119.0290 0.7249 -0.0107
119.0490 0.7115 -0.0007
119.0690 0.6982 -0.0148
119.0890 0.6849 -0.0124
119.1090 0.6716 -0.0086
119.1290 0.6582 -0.0172
119.1490 0.6448 -0.0117
119.1690 0.6315 -0.0056
119.1890 0.6182 -0.0142
119.2090 0.6049 -0.0136
119.2290 0.5915 -0.0112
119.2490 0.5783 -0.0148
119.2690 0.5650 -0.0115
119.2890 0.5516 -0.0132
119.3090 0.5382 -0.0131
119.3290 0.5249 -0.0069
119.3490 0.5116 -0.0122
119.3690 0.4982 -0.0127
119.3890 0.4849 -0.0070
119.4090 0.4715 -0.0112
119.4290 0.4582 -0.0142
119.4490 0.4449 -0.0099
119.4690 0.4316 -0.0104
119.4890 0.4182 -0.0140
119.5090 0.4049 -0.0115
119.5290 0.3916 -0.0072
119.5490 0.3782 -0.0132
119.5690 0.3649 -0.0159
119.5890 0.3516 -0.0088
119.6090 0.3383 -0.0135
119.6290 0.3249 -0.0149
119.6490 0.3116 -0.0087
119.6690 0.2983 -0.0138
119.6890 0.2849 -0.0118
119.7090 0.2716 -0.0094
119.7290 0.2583 -0.0144
119.7490 0.2449 -0.0134
119.7690 0.2315 -0.0046
119.7890 0.2182 -0.0182
119.8090 0.2049 -0.0122
119.8290 0.1915 -0.0059
119.8490 0.1782 -0.0191
119.8690 0.1649 -0.0100
119.8890 0.1516 -0.0035
119.9090 0.1383 -0.0210
119.9290 0.1249 -0.0126
119.9490 0.1116 -0.0047
119.9690 0.0983 -0.0211
119.9890 0.0849 -0.0100
120.0090 0.0716 -0.0043
120.0290 0.0582 -0.0201
120.0490 0.0449 -0.0138
120.0690 0.0316 -0.0022
120.0890 0.0182 -0.0199
120.1090 0.0049 -0.0107
120.1170 -0.0003 0.0119
