Raw Data
Time Displacement Force
(s) (mm) (N)
0.0000 0.0000 -0.0094
0.0200 0.0001 0.0191
0.0400 0.0020 0.0750
0.0600 0.0094 0.0672
0.0800 0.0211 -0.0031
0.1000 0.0335 -0.0097
0.1200 0.0461 0.0289
0.1400 0.0596 0.0048
0.1600 0.0737 -0.0066
0.1800 0.0880 0.0096
0.2000 0.1019 -0.0093
0.2200 0.1155 -0.0123
0.2400 0.1288 0.0127
0.2600 0.1421 -0.0061
0.2800 0.1554 0.0024
0.3000 0.1688 0.0061
0.3200 0.1822 -0.0069
0.3400 0.1955 0.0079
0.3600 0.2089 0.0018
0.3800 0.2223 -0.0042
0.4000 0.2356 0.0120
0.4200 0.2489 0.0047
0.4400 0.2623 -0.0044
0.4600 0.2756 0.0079
0.4800 0.2889 0.0049
0.5000 0.3023 -0.0023
0.5200 0.3156 0.0097
0.5400 0.3289 0.0029
0.5600 0.3422 -0.0001
0.5800 0.3556 0.0104
0.6000 0.3689 -0.0013
0.6200 0.3822 0.0046
0.6400 0.3956 0.0102
0.6600 0.4089 -0.0025
0.6800 0.4222 0.0035
0.7000 0.4355 0.0067
0.7200 0.4488 0.0048
0.7400 0.4622 0.0092
0.7600 0.4756 0.0025
0.7800 0.4889 0.0053
0.8000 0.5023 0.0074
0.8200 0.5156 0.0056
0.8400 0.5290 0.0022
0.8600 0.5424 0.0089
0.8800 0.5556 0.0049
0.9000 0.5689 0.0078
0.9200 0.5822 0.0085
0.9400 0.5956 0.0047
0.9600 0.6089 0.0043
0.9800 0.6222 0.0083
1.0000 0.6355 0.0054
1.0200 0.6488 0.0107
1.0400 0.6622 0.0061
1.0600 0.6756 0.0026
1.0800 0.6889 0.0144
1.1000 0.7023 0.0052
1.1200 0.7157 0.0007
1.1400 0.7290 0.0141
1.1600 0.7423 0.0066
1.1800 0.7556 0.0052
1.2000 0.7690 0.0172
1.2200 0.7823 0.0041
1.2400 0.7956 0.0060
1.2600 0.8089 0.0195
1.2800 0.8222 0.0028
1.3000 0.8356 0.0065
1.3200 0.8489 0.0199
1.3400 0.8622 0.0077
1.3600 0.8755 0.0095
1.3800 0.8889 0.0158
1.4000 0.9022 0.0070
1.4200 0.9155 0.0129
1.4400 0.9289 0.0155
1.4600 0.9423 0.0073
1.4800 0.9556 0.0152
1.5000 0.9690 0.0151
1.5200 0.9823 0.0076
1.5400 0.9956 0.0149
1.5600 1.0089 0.0149
1.5800 1.0223 0.0108
1.6000 1.0356 0.0131
1.6200 1.0489 0.0169
1.6400 1.0622 0.0160
1.6600 1.0755 0.0095
1.6800 1.0889 0.0202
1.7000 1.1022 0.0176
1.7200 1.1156 0.0099
1.7400 1.1289 0.0163
1.7600 1.1423 0.0184
1.7800 1.1556 0.0076
1.8000 1.1689 0.0201
1.8200 1.1823 0.0178
1.8400 1.1956 0.0133
1.8600 1.2090 0.0257
1.8800 1.2223 0.0181
1.9000 1.2356 0.0190
1.9200 1.2489 0.0249
1.9400 1.2623 0.0167
1.9600 1.2756 0.0209
1.9800 1.2889 0.0308
2.0000 1.3023 0.0167
2.0200 1.3156 0.0231
2.0400 1.3289 0.0294
2.0600 1.3422 0.0157
2.0800 1.3556 0.0335
2.1000 1.3689 0.0293
2.1200 1.3822 0.0229
2.1400 1.3955 0.0380
2.1600 1.4089 0.0317
2.1800 1.4222 0.0251
2.2000 1.4356 0.0382
2.2200 1.4489 0.0293
2.2400 1.4623 0.0308
2.2600 1.4756 0.0416
2.2800 1.4890 0.0332
2.3000 1.5023 0.0372
2.3200 1.5157 0.0431
2.3400 1.5290 0.0412
2.3600 1.5423 0.0485
2.3800 1.5556 0.0477
2.4000 1.5689 0.0482
2.4200 1.5822 0.0585
2.4400 1.5955 0.0527
2.4600 1.6089 0.0499
2.4800 1.6222 0.0632
2.5000 1.6355 0.0619
2.5200 1.6488 0.0589
2.5400 1.6622 0.0740
2.5600 1.6756 0.0635
2.5800 1.6890 0.0709
2.6000 1.7023 0.0788
2.6200 1.7156 0.0694
2.6400 1.7290 0.0851
2.6600 1.7423 0.0823
2.6800 1.7556 0.0816
2.7000 1.7689 0.0936
2.7200 1.7822 0.0914
2.7400 1.7956 0.0931
2.7600 1.8089 0.1008
2.7800 1.8222 0.1030
2.8000 1.8355 0.1002
2.8200 1.8489 0.1119
2.8400 1.8623 0.1110
2.8600 1.8756 0.1105
2.8800 1.8889 0.1232
2.9000 1.9022 0.1192
2.9200 1.9156 0.1250
2.9400 1.9289 0.1294
2.9600 1.9423 0.1308
2.9800 1.9556 0.1337
3.0000 1.9690 0.1381
3.0200 1.9823 0.1398
3.0400 1.9956 0.1386
3.0600 2.0089 0.1477
3.0800 2.0223 0.1521
3.1000 2.0356 0.1471
3.1200 2.0489 0.1576
3.1400 2.0622 0.1575
3.1600 2.0755 0.1576
3.1800 2.0889 0.1688
3.2000 2.1022 0.1663
3.2200 2.1156 0.1662
3.2400 2.1289 0.1779
3.2600 2.1423 0.1759
3.2800 2.1556 0.1713
3.3000 2.1690 0.1834
3.3200 2.1823 0.1862
3.3400 2.1956 0.1782
3.3600 2.2090 0.1957
3.3800 2.2223 0.1887
3.4000 2.2356 0.1935
3.4200 2.2489 0.1998
3.4400 2.2622 0.1965
3.4600 2.2756 0.2034
3.4800 2.2889 0.2099
3.5000 2.3022 0.2039
3.5200 2.3156 0.2100
3.5400 2.3289 0.2183
3.5600 2.3422 0.2086
3.5800 2.3556 0.2151
3.6000 2.3689 0.2258
3.6200 2.3823 0.2196
3.6400 2.3956 0.2257
3.6600 2.4090 0.2290
3.6800 2.4223 0.2271
3.7000 2.4356 0.2311
3.7200 2.4490 0.2367
3.7400 2.4623 0.2344
3.7600 2.4756 0.2386
3.7800 2.4889 0.2487
3.8000 2.5022 0.2427
3.8200 2.5156 0.2486
3.8400 2.5289 0.2523
3.8600 2.5422 0.2526
3.8800 2.5555 0.2541
3.9000 2.5689 0.2544
3.9200 2.5822 0.2620
3.9400 2.5956 0.2618
3.9600 2.6089 0.2578
3.9800 2.6222 0.2703
4.0000 2.6356 0.2686
4.0200 2.6490 0.2709
4.0400 2.6623 0.2734
4.0600 2.6756 0.2734
4.0800 2.6889 0.2753
4.1000 2.7023 0.2807
4.1200 2.7156 0.2795
4.1400 2.7290 0.2836
4.1600 2.7423 0.2915
4.1800 2.7556 0.2824
4.2000 2.7690 0.2887
4.2200 2.7822 0.2975
4.2400 2.7955 0.2892
4.2600 2.8088 0.2996
4.2800 2.8222 0.2989
4.3000 2.8355 0.2947
4.3200 2.8488 0.3064
4.3400 2.8622 0.3054
4.3600 2.8756 0.3040
4.3800 2.8890 0.3111
4.4000 2.9023 0.3099
4.4200 2.9156 0.3110
4.4400 2.9290 0.3175
4.4600 2.9423 0.3155
4.4800 2.9556 0.3142
4.5000 2.9689 0.3290
4.5200 2.9822 0.3199
4.5400 2.9956 0.3228
4.5600 3.0089 0.3337
4.5800 3.0222 0.3207
4.6000 3.0355 0.3315
4.6200 3.0488 0.3360
4.6400 3.0622 0.3279
4.6600 3.0755 0.3361
4.6800 3.0889 0.3438
4.7000 3.1022 0.3318
4.7200 3.1156 0.3398
4.7400 3.1290 0.3449
4.7600 3.1423 0.3387
4.7800 3.1557 0.3510
4.8000 3.1690 0.3484
4.8200 3.1824 0.3461
4.8400 3.1957 0.3555
4.8600 3.2089 0.3482
4.8800 3.2222 0.3536
4.9000 3.2355 0.3564
4.9200 3.2489 0.3576
4.9400 3.2622 0.3600
4.9600 3.2755 0.3651
4.9800 3.2888 0.3616
5.0000 3.3022 0.3631
5.0200 3.3156 0.3659
5.0400 3.3289 0.3640
5.0600 3.3422 0.3745
5.0800 3.3556 0.3684
5.1000 3.3690 0.3671
5.1200 3.3823 0.3821
5.1400 3.3956 0.3737
5.1600 3.4089 0.3788
5.1800 3.4223 0.3820
5.2000 3.4356 0.3774
5.2200 3.4490 0.3858
5.2400 3.4623 0.3858
5.2600 3.4756 0.3866
5.2800 3.4889 0.3852
5.3000 3.5022 0.3921
5.3200 3.5155 0.3909
5.3400 3.5288 0.3933
5.3600 3.5422 0.3968
5.3800 3.5556 0.3965
5.4000 3.5689 0.3991
5.4200 3.5823 0.4013
5.4400 3.5956 0.4041
5.4600 3.6090 0.4031
5.4800 3.6223 0.4044
5.5000 3.6356 0.4100
5.5200 3.6490 0.4072
5.5400 3.6623 0.4114
5.5600 3.6756 0.4136
5.5800 3.6889 0.4158
5.6000 3.7022 0.4181
5.6200 3.7156 0.4178
5.6400 3.7289 0.4189
5.6600 3.7422 0.4235
5.6800 3.7556 0.4259
5.7000 3.7689 0.4245
5.7200 3.7822 0.4266
5.7400 3.7956 0.4295
5.7600 3.8089 0.4317
5.7800 3.8222 0.4324
5.8000 3.8356 0.4301
5.8200 3.8489 0.4385
5.8400 3.8623 0.4365
5.8600 3.8756 0.4385
5.8800 3.8889 0.4441
5.9000 3.9023 0.4407
5.9200 3.9157 0.4393
5.9400 3.9290 0.4455
5.9600 3.9423 0.4531
5.9800 3.9556 0.4506
6.0000 3.9689 0.4499
6.0200 3.9822 0.4544
6.0400 3.9956 0.4507
6.0600 4.0089 0.4557
6.0800 4.0222 0.4654
6.1000 4.0356 0.4554
6.1200 4.0489 0.4590
6.1400 4.0622 0.4623
6.1600 4.0756 0.4619
6.1800 4.0890 0.4666
6.2000 4.1023 0.4670
6.2200 4.1156 0.4641
6.2400 4.1289 0.4728
6.2600 4.1423 0.4685
6.2800 4.1556 0.4747
6.3000 4.1689 0.4765
6.3200 4.1823 0.4687
6.3400 4.1956 0.4840
6.3600 4.2090 0.4824
6.3800 4.2223 0.4740
6.4000 4.2355 0.4903
6.4200 4.2488 0.4837
6.4400 4.2622 0.4782
6.4600 4.2755 0.4920
6.4800 4.2888 0.4887
6.5000 4.3022 0.4890
6.5200 4.3156 0.4964
6.5400 4.3290 0.4922
6.5600 4.3424 0.4873
6.5800 4.3557 0.5039
6.6000 4.3690 0.4947
6.6200 4.3823 0.4980
6.6400 4.3957 0.5086
6.6600 4.4089 0.4961
6.6800 4.4222 0.5023
6.7000 4.4355 0.5114
6.7200 4.4489 0.4986
6.7400 4.4622 0.5032
6.7600 4.4755 0.5184
6.7800 4.4889 0.5037
6.8000 4.5022 0.5117
6.8200 4.5156 0.5215
6.8400 4.5289 0.5077
6.8600 4.5423 0.5175
6.8800 4.5556 0.5233
6.9000 4.5690 0.5148
6.9200 4.5823 0.5212
6.9400 4.5956 0.5270
6.9600 4.6089 0.5192
6.9800 4.6223 0.5280
7.0000 4.6356 0.5291
7.0200 4.6489 0.5227
7.0400 4.6622 0.5297
7.0600 4.6756 0.5363
7.0800 4.6889 0.5252
7.1000 4.7022 0.5385
7.1200 4.7155 0.5369
7.1400 4.7289 0.5282
7.1600 4.7422 0.5448
7.1800 4.7556 0.5375
7.2000 4.7689 0.5336
7.2200 4.7823 0.5465
7.2400 4.7956 0.5442
7.2600 4.8090 0.5351
7.2800 4.8223 0.5467
7.3000 4.8356 0.5518
7.3200 4.8489 0.5389
7.3400 4.8623 0.5548
7.3600 4.8756 0.5514
7.3800 4.8889 0.5439
7.4000 4.9022 0.5620
7.4200 4.9156 0.5557
7.4400 4.9289 0.5514
7.4600 4.9423 0.5610
7.4800 4.9555 0.5624
7.5000 4.9689 0.5572
7.5200 4.9822 0.5644
7.5400 4.9956 0.5653
7.5600 5.0089 0.5641
7.5800 5.0222 0.5647
7.6000 5.0356 0.5704
7.6200 5.0490 0.5653
7.6400 5.0623 0.5688
7.6600 5.0756 0.5717
7.6800 5.0890 0.5687
7.7000 5.1023 0.5733
7.7200 5.1157 0.5788
7.7400 5.1289 0.5696
7.7600 5.1422 0.5760
7.7800 5.1556 0.5851
7.8000 5.1689 0.5749
7.8200 5.1822 0.5778
7.8400 5.1956 0.5899
7.8600 5.2089 0.5791
7.8800 5.2222 0.5832
7.9000 5.2356 0.5917
7.9200 5.2489 0.5802
7.9400 5.2622 0.5921
7.9600 5.2756 0.5936
7.9800 5.2890 0.5848
8.0000 5.3023 0.5930
8.0200 5.3156 0.5957
8.0400 5.3289 0.5915
8.0600 5.3423 0.5941
8.0800 5.3557 0.5945
8.1000 5.3690 0.5931
8.1200 5.3823 0.6025
8.1400 5.3956 0.5997
8.1600 5.4089 0.6023
8.1800 5.4223 0.6060
8.2000 5.4356 0.6066
8.2200 5.4489 0.5994
8.2400 5.4622 0.6122
8.2600 5.4755 0.6137
8.2800 5.4889 0.6056
8.3000 5.5022 0.6154
8.3200 5.5156 0.6143
8.3400 5.5290 0.6086
8.3600 5.5423 0.6113
8.3800 5.5556 0.6174
8.4000 5.5689 0.6143
8.4200 5.5823 0.6154
8.4400 5.5956 0.6204
8.4600 5.6090 0.6174
8.4800 5.6222 0.6206
8.5000 5.6356 0.6271
8.5200 5.6489 0.6216
8.5400 5.6622 0.6247
8.5600 5.6755 0.6275
8.5800 5.6888 0.6267
8.6000 5.7022 0.6300
8.6200 5.7155 0.6299
8.6400 5.7289 0.6249
8.6600 5.7422 0.6339
8.6800 5.7556 0.6383
8.7000 5.7689 0.6258
8.7200 5.7823 0.6364
8.7400 5.7956 0.6446
8.7600 5.8090 0.6314
8.7800 5.8223 0.6394
8.8000 5.8357 0.6393
8.8200 5.8489 0.6374
8.8400 5.8622 0.6469
8.8600 5.8755 0.6459
8.8800 5.8889 0.6402
8.9000 5.9022 0.6492
8.9200 5.9155 0.6498
8.9400 5.9289 0.6445
8.9600 5.9422 0.6521
8.9800 5.9556 0.6489
9.0000 5.9690 0.6465
9.0200 5.9823 0.6568
9.0400 5.9956 0.6483
9.0600 6.0090 0.6510
9.0800 6.0223 0.6576
9.1000 6.0356 0.6535
9.1200 6.0489 0.6555
9.1400 6.0622 0.6601
9.1600 6.0756 0.6585
9.1800 6.0890 0.6548
9.2000 6.1023 0.6688
9.2200 6.1156 0.6630
9.2400 6.1290 0.6586
9.2600 6.1423 0.6667
9.2800 6.1556 0.6670
9.3000 6.1689 0.6638
9.3200 6.1822 0.6718
9.3400 6.1956 0.6695
9.3600 6.2089 0.6694
9.3800 6.2222 0.6708
9.4000 6.2355 0.6730
9.4200 6.2489 0.6736
9.4400 6.2623 0.6757
9.4600 6.2756 0.6733
9.4800 6.2889 0.6745
9.5000 6.3023 0.6790
9.5200 6.3156 0.6713
9.5400 6.3290 0.6767
9.5600 6.3423 0.6897
9.5800 6.3556 0.6777
9.6000 6.3689 0.6818
9.6200 6.3823 0.6874
9.6400 6.3956 0.6783
9.6600 6.4089 0.6831
9.6800 6.4222 0.6970
9.7000 6.4355 0.6758
9.7200 6.4489 0.6890
9.7400 6.4622 0.7006
9.7600 6.4755 0.6852
9.7800 6.4889 0.6921
9.8000 6.5023 0.6942
9.8200 6.5156 0.6858
9.8400 6.5290 0.6972
9.8600 6.5423 0.6980
9.8800 6.5557 0.6892
9.9000 6.5690 0.6990
9.9200 6.5823 0.7013
9.9400 6.5956 0.6936
9.9600 6.6089 0.7045
9.9800 6.6222 0.7018
10.0000 6.6356 0.7002
10.0200 6.6489 0.7063
10.0400 6.6622 0.7030
10.0600 6.6756 0.7051
10.0800 6.6889 0.7094
10.1000 6.7022 0.7054
10.1200 6.7156 0.7069
10.1400 6.7289 0.7104
10.1600 6.7423 0.7112
10.1800 6.7556 0.7041
10.2000 6.7690 0.7142
10.2200 6.7823 0.7150
10.2400 6.7957 0.7081
10.2600 6.8090 0.7215
10.2800 6.8223 0.7143
10.3000 6.8356 0.7164
10.3200 6.8489 0.7164
10.3400 6.8623 0.7174
10.3600 6.8756 0.7156
10.3800 6.8889 0.7227
10.4000 6.9022 0.7234
10.4200 6.9155 0.7183
10.4400 6.9289 0.7290
10.4600 6.9422 0.7236
10.4800 6.9556 0.7206
10.5000 6.9690 0.7292
10.5200 6.9823 0.7221
10.5400 6.9957 0.7257
10.5600 7.0090 0.7353
10.5800 7.0223 0.7322
10.6000 7.0356 0.7278
10.6200 7.0490 0.7362
10.6400 7.0623 0.7327
10.6600 7.0756 0.7281
10.6800 7.0889 0.7419
10.7000 7.1023 0.7294
10.7200 7.1156 0.7358
10.7400 7.1289 0.7478
10.7600 7.1422 0.7348
10.7800 7.1556 0.7384
10.8000 7.1689 0.7501
10.8200 7.1822 0.7359
10.8400 7.1956 0.7423
10.8600 7.2089 0.7480
10.8800 7.2223 0.7415
10.9000 7.2356 0.7431
10.9200 7.2489 0.7471
10.9400 7.2623 0.7421
10.9600 7.2756 0.7514
10.9800 7.2890 0.7507
11.0000 7.3023 0.7469
11.0200 7.3156 0.7525
11.0400 7.3289 0.7506
11.0600 7.3422 0.7525
11.0800 7.3556 0.7508
11.1000 7.3689 0.7541
11.1200 7.3822 0.7544
11.1400 7.3956 0.7519
11.1600 7.4089 0.7571
11.1800 7.4222 0.7568
11.2000 7.4356 0.7574
11.2200 7.4489 0.7580
11.2400 7.4622 0.7612
11.2600 7.4756 0.7553
11.2800 7.4889 0.7671
11.3000 7.5022 0.7658
11.3200 7.5156 0.7583
11.3400 7.5290 0.7657
11.3600 7.5423 0.7669
11.3800 7.5556 0.7610
11.4000 7.5690 0.7746
11.4200 7.5823 0.7673
11.4400 7.5956 0.7605
11.4600 7.6089 0.7759
11.4800 7.6222 0.7693
11.5000 7.6355 0.7691
11.5200 7.6489 0.7766
11.5400 7.6622 0.7699
11.5600 7.6755 0.7690
11.5800 7.6889 0.7780
11.6000 7.7023 0.7722
11.6200 7.7157 0.7770
11.6400 7.7290 0.7745
11.6600 7.7423 0.7745
11.6800 7.7557 0.7787
11.7000 7.7690 0.7774
11.7200 7.7823 0.7826
11.7400 7.7956 0.7813
11.7600 7.8089 0.7780
11.7800 7.8223 0.7826
11.8000 7.8356 0.7825
11.8200 7.8489 0.7837
11.8400 7.8622 0.7852
11.8600 7.8755 0.7811
11.8800 7.8889 0.7825
11.9000 7.9022 0.7902
11.9200 7.9156 0.7844
11.9400 7.9289 0.7862
11.9600 7.9423 0.7944
11.9800 7.9557 0.7841
12.0000 7.9690 0.7880
12.0200 7.9823 0.7938
12.0400 7.9956 0.7903
12.0600 8.0090 0.7996
12.0800 8.0223 0.7929
12.1000 8.0356 0.7898
12.1200 8.0489 0.7998
12.1400 8.0622 0.7982
12.1600 8.0755 0.7912
12.1800 8.0889 0.7999
12.2000 8.1022 0.7953
12.2200 8.1155 0.7949
12.2400 8.1289 0.8057
12.2600 8.1422 0.7985
12.2800 8.1556 0.8013
12.3000 8.1689 0.8024
12.3200 8.1823 0.7981
12.3400 8.1957 0.8057
12.3600 8.2090 0.8048
12.3800 8.2223 0.8025
12.4000 8.2356 0.8100
12.4200 8.2490 0.8035
12.4400 8.2623 0.8034
12.4600 8.2756 0.8096
12.4800 8.2889 0.8091
12.5000 8.3023 0.8091
12.5200 8.3156 0.8097
12.5400 8.3289 0.8144
12.5600 8.3422 0.8104
12.5800 8.3555 0.8073
12.6000 8.3689 0.8158
12.6200 8.3822 0.8121
12.6400 8.3956 0.8094
12.6600 8.4089 0.8176
12.6800 8.4223 0.8159
12.7000 8.4357 0.8102
12.7200 8.4490 0.8234
12.7400 8.4623 0.8167
12.7600 8.4756 0.8149
12.7800 8.4890 0.8238
12.8000 8.5023 0.8168
12.8200 8.5155 0.8200
12.8400 8.5289 0.8255
12.8600 8.5422 0.8204
12.8800 8.5556 0.8206
12.9000 8.5689 0.8260
12.9200 8.5822 0.8211
12.9400 8.5956 0.8245
12.9600 8.6089 0.8260
12.9800 8.6222 0.8207
13.0000 8.6356 0.8337
13.0200 8.6489 0.8269
13.0400 8.6623 0.8211
13.0600 8.6756 0.8320
13.0800 8.6890 0.8298
13.1000 8.7023 0.8291
13.1200 8.7156 0.8315
13.1400 8.7290 0.8320
13.1600 8.7423 0.8279
13.1800 8.7556 0.8381
13.2000 8.7689 0.8312
13.2200 8.7823 0.8318
13.2400 8.7956 0.8399
13.2600 8.8089 0.8326
13.2800 8.8222 0.8352
13.3000 8.8355 0.8381
13.3200 8.8489 0.8371
13.3400 8.8623 0.8396
13.3600 8.8756 0.8340
13.3800 8.8889 0.8382
13.4000 8.9023 0.8421
13.4200 8.9156 0.8362
13.4400 8.9290 0.8406
13.4600 8.9423 0.8466
13.4800 8.9556 0.8387
13.5000 8.9690 0.8430
13.5200 8.9823 0.8471
13.5400 8.9956 0.8394
13.5600 9.0089 0.8529
13.5800 9.0223 0.8529
13.6000 9.0356 0.8405
13.6200 9.0489 0.8562
13.6400 9.0622 0.8474
13.6600 9.0755 0.8468
13.6800 9.0889 0.8563
13.7000 9.1022 0.8488
13.7200 9.1155 0.8469
13.7400 9.1289 0.8611
13.7600 9.1423 0.8490
13.7800 9.1557 0.8468
13.8000 9.1690 0.8635
13.8200 9.1823 0.8461
13.8400 9.1957 0.8574
13.8600 9.2090 0.8582
13.8800 9.2223 0.8502
13.9000 9.2356 0.8637
13.9200 9.2489 0.8629
13.9400 9.2622 0.8536
13.9600 9.2755 0.8623
13.9800 9.2888 0.8653
14.0000 9.3022 0.8586
14.0200 9.3156 0.8628
14.0400 9.3289 0.8652
14.0600 9.3423 0.8568
14.0800 9.3556 0.8680
14.1000 9.3689 0.8638
14.1200 9.3823 0.8704
14.1400 9.3957 0.8636
14.1600 9.4090 0.8634
14.1800 9.4223 0.8747
14.2000 9.4356 0.8639
14.2200 9.4490 0.8682
14.2400 9.4623 0.8714
14.2600 9.4756 0.8680
14.2800 9.4889 0.8745
14.3000 9.5022 0.8727
14.3200 9.5156 0.8710
14.3400 9.5289 0.8739
14.3600 9.5422 0.8734
14.3800 9.5555 0.8727
14.4000 9.5689 0.8790
14.4200 9.5823 0.8707
14.4400 9.5956 0.8759
14.4600 9.6089 0.8790
14.4800 9.6223 0.8674
14.5000 9.6357 0.8786
14.5200 9.6490 0.8787
14.5400 9.6622 0.8722
14.5600 9.6756 0.8829
14.5800 9.6889 0.8819
14.6000 9.7023 0.8714
14.6200 9.7156 0.8841
14.6400 9.7289 0.8839
14.6600 9.7423 0.8726
14.6800 9.7556 0.8873
14.7000 9.7689 0.8818
14.7200 9.7822 0.8777
14.7400 9.7955 0.8918
14.7600 9.8089 0.8815
14.7800 9.8223 0.8760
14.8000 9.8356 0.8904
14.8200 9.8489 0.8859
14.8400 9.8623 0.8775
14.8600 9.8757 0.8923
14.8800 9.8890 0.8869
14.9000 9.9023 0.8781
14.9200 9.9156 0.8957
14.9400 9.9290 0.8901
14.9600 9.9423 0.8820
14.9800 9.9556 0.8993
15.0000 9.9689 0.8907
15.0200 9.9822 0.8857
15.0400 9.9956 0.8972
15.0600 10.0089 0.8916
15.0800 10.0222 0.8893
15.1000 10.0355 0.9010
15.1200 10.0489 0.8932
15.1400 10.0622 0.8901
15.1600 10.0756 0.9043
15.1800 10.0889 0.8917
15.2000 10.1023 0.8919
15.2200 10.1156 0.9097
15.2400 10.1290 0.8882
15.2600 10.1423 0.9002
15.2800 10.1556 0.9128
15.3000 10.1690 0.8897
15.3200 10.1823 0.9008
15.3400 10.1956 0.9131
15.3600 10.2089 0.8956
15.3800 10.2223 0.9046
15.4000 10.2356 0.9113
15.4200 10.2489 0.8960
15.4400 10.2622 0.9126
15.4600 10.2755 0.9105
15.4800 10.2889 0.9033
15.5000 10.3022 0.9122
15.5200 10.3156 0.9073
15.5400 10.3289 0.9041
15.5600 10.3423 0.9136
15.5800 10.3557 0.9083
15.6000 10.3690 0.9066
15.6200 10.3823 0.9163
15.6400 10.3956 0.9179
15.6600 10.4090 0.9135
15.6800 10.4223 0.9111
15.7000 10.4356 0.9193
15.7200 10.4489 0.9152
15.7400 10.4622 0.9156
15.7600 10.4756 0.9188
15.7800 10.4889 0.9154
15.8000 10.5022 0.9208
15.8200 10.5155 0.9154
15.8400 10.5289 0.9146
15.8600 10.5422 0.9221
15.8800 10.5555 0.9241
15.9000 10.5689 0.9145
15.9200 10.5823 0.9217
15.9400 10.5956 0.9252
15.9600 10.6090 0.9168
15.9800 10.6223 0.9234
16.0000 10.6356 0.9248
16.0200 10.6490 0.9189
16.0400 10.6623 0.9312
16.0600 10.6756 0.9270
16.0800 10.6889 0.9250
16.1000 10.7022 0.9308
16.1200 10.7155 0.9291
16.1400 10.7289 0.9258
16.1600 10.7422 0.9314
16.1800 10.7555 0.9332
16.2000 10.7689 0.9236
16.2200 10.7823 0.9338
16.2400 10.7956 0.9329
16.2600 10.8089 0.9296
16.2800 10.8223 0.9359
16.3000 10.8356 0.9380
16.3200 10.8490 0.9267
16.3400 10.8623 0.9329
16.3600 10.8756 0.9406
16.3800 10.8889 0.9289
16.4000 10.9023 0.9392
16.4200 10.9156 0.9425
16.4400 10.9289 0.9304
16.4600 10.9423 0.9415
16.4800 10.9556 0.9392
16.5000 10.9690 0.9376
16.5200 10.9822 0.9428
16.5400 10.9956 0.9397
16.5600 11.0089 0.9374
16.5800 11.0222 0.9460
16.6000 11.0356 0.9450
16.6200 11.0489 0.9444
16.6400 11.0622 0.9467
16.6600 11.0756 0.9398
16.6800 11.0889 0.9419
16.7000 11.1023 0.9483
16.7200 11.1156 0.9448
16.7400 11.1290 0.9433
16.7600 11.1423 0.9500
16.7800 11.1556 0.9445
16.8000 11.1689 0.9482
16.8200 11.1823 0.9565
16.8400 11.1956 0.9453
16.8600 11.2090 0.9494
16.8800 11.2222 0.9538
16.9000 11.2355 0.9480
16.9200 11.2488 0.9564
16.9400 11.2622 0.9511
16.9600 11.2755 0.9507
16.9800 11.2889 0.9545
17.0000 11.3022 0.9534
17.0200 11.3156 0.9544
17.0400 11.3290 0.9561
17.0600 11.3423 0.9547
17.0800 11.3556 0.9545
17.1000 11.3690 0.9571
17.1200 11.3823 0.9605
17.1400 11.3956 0.9577
17.1600 11.4089 0.9589
17.1800 11.4222 0.9592
17.2000 11.4356 0.9590
17.2200 11.4489 0.9575
17.2400 11.4622 0.9651
17.2600 11.4755 0.9576
17.2800 11.4889 0.9632
17.3000 11.5023 0.9644
17.3200 11.5156 0.9624
17.3400 11.5289 0.9635
17.3600 11.5423 0.9715
17.3800 11.5556 0.9631
17.4000 11.5690 0.9636
17.4200 11.5823 0.9689
17.4400 11.5956 0.9621
17.4600 11.6090 0.9670
17.4800 11.6223 0.9740
17.5000 11.6356 0.9641
17.5200 11.6489 0.9699
17.5400 11.6623 0.9749
17.5600 11.6756 0.9627
17.5800 11.6889 0.9732
17.6000 11.7022 0.9785
17.6200 11.7155 0.9683
17.6400 11.7288 0.9728
17.6600 11.7422 0.9787
17.6800 11.7555 0.9660
17.7000 11.7689 0.9761
17.7200 11.7823 0.9771
17.7400 11.7956 0.9618
17.7600 11.8090 0.9772
17.7800 11.8223 0.9808
17.8000 11.8356 0.9656
17.8200 11.8490 0.9852
17.8400 11.8623 0.9838
17.8600 11.8756 0.9694
17.8800 11.8889 0.9805
17.9000 11.9022 0.9829
17.9200 11.9156 0.9753
17.9400 11.9289 0.9804
17.9600 11.9422 0.9831
17.9800 11.9556 0.9724
18.0000 11.9689 0.9811
18.0200 11.9822 0.9930
18.0400 11.9956 0.9766
18.0600 12.0089 0.9887
18.0800 12.0222 0.9879
18.1000 12.0356 0.9777
18.1200 12.0490 0.9851
18.1400 12.0623 0.9921
18.1600 12.0756 0.9807
18.1800 12.0890 0.9841
18.2000 12.1023 0.9959
18.2200 12.1156 0.9781
18.2400 12.1289 0.9945
18.2600 12.1422 0.9992
18.2800 12.1556 0.9759
18.3000 12.1689 0.9945
18.3200 12.1822 0.9971
18.3400 12.1955 0.9792
18.3600 12.2089 1.0001
18.3800 12.2222 0.9961
18.4000 12.2356 0.9821
18.4200 12.2489 1.0009
18.4400 12.2622 0.9953
18.4600 12.2756 0.9860
18.4800 12.2889 1.0066
18.5000 12.3023 0.9959
18.5200 12.3156 0.9874
18.5400 12.3289 1.0086
18.5600 12.3423 0.9949
18.5800 12.3556 0.9910
18.6000 12.3689 1.0095
18.6200 12.3823 0.9953
18.6400 12.3956 0.9938
18.6600 12.4090 1.0087
18.6800 12.4223 0.9980
18.7000 12.4355 0.9966
18.7200 12.4488 1.0100
18.7400 12.4622 0.9984
18.7600 12.4755 1.0029
18.7800 12.4889 1.0094
18.8000 12.5022 1.0039
18.8200 12.5156 1.0069
18.8400 12.5290 1.0077
18.8600 12.5423 1.0031
18.8800 12.5556 1.0065
18.9000 12.5690 1.0130
18.9200 12.5824 1.0097
18.9400 12.5957 1.0014
18.9600 12.6090 1.0150
18.9800 12.6222 1.0117
19.0000 12.6356 1.0106
19.0200 12.6489 1.0142
19.0400 12.6622 1.0167
19.0600 12.6755 1.0077
19.0800 12.6888 1.0160
19.1000 12.7022 1.0206
19.1200 12.7156 1.0112
19.1400 12.7289 1.0194
19.1600 12.7422 1.0179
19.1800 12.7556 1.0102
19.2000 12.7690 1.0191
19.2200 12.7823 1.0228
19.2400 12.7957 1.0127
19.2600 12.8090 1.0222
19.2800 12.8223 1.0243
19.3000 12.8356 1.0138
19.3200 12.8489 1.0262
19.3400 12.8622 1.0250
19.3600 12.8755 1.0147
19.3800 12.8889 1.0295
19.4000 12.9022 1.0270
19.4200 12.9155 1.0195
19.4400 12.9289 1.0277
19.4600 12.9422 1.0280
19.4800 12.9556 1.0205
19.5000 12.9689 1.0318
19.5200 12.9822 1.0269
19.5400 12.9956 1.0269
19.5600 13.0090 1.0270
19.5800 13.0223 1.0297
19.6000 13.0356 1.0258
19.6200 13.0490 1.0283
19.6400 13.0623 1.0359
19.6600 13.0757 1.0273
19.6800 13.0890 1.0346
19.7000 13.1023 1.0361
19.7200 13.1156 1.0279
19.7400 13.1289 1.0362
19.7600 13.1422 1.0351
19.7800 13.1555 1.0302
19.8000 13.1688 1.0356
19.8200 13.1822 1.0339
19.8400 13.1956 1.0349
19.8600 13.2089 1.0404
19.8800 13.2222 1.0388
19.9000 13.2356 1.0362
19.9200 13.2490 1.0361
19.9400 13.2623 1.0385
19.9600 13.2756 1.0431
19.9800 13.2889 1.0391
20.0000 13.3023 1.0377
20.0200 13.3156 1.0436
20.0400 13.3289 1.0328
20.0600 13.3422 1.0457
20.0800 13.3556 1.0453
20.1000 13.3689 1.0351
20.1200 13.3823 1.0505
20.1400 13.3955 1.0438
20.1600 13.4089 1.0399
20.1800 13.4222 1.0519
20.2000 13.4356 1.0429
20.2200 13.4489 1.0460
20.2400 13.4622 1.0512
20.2600 13.4756 1.0409
20.2800 13.4889 1.0516
20.3000 13.5023 1.0490
20.3200 13.5156 1.0439
20.3400 13.5289 1.0505
20.3600 13.5423 1.0563
20.3800 13.5557 1.0446
20.4000 13.5690 1.0547
20.4200 13.5823 1.0578
20.4400 13.5956 1.0469
20.4600 13.6089 1.0561
20.4800 13.6223 1.0525
20.5000 13.6356 1.0518
20.5200 13.6489 1.0600
20.5400 13.6622 1.0545
20.5600 13.6755 1.0508
20.5800 13.6889 1.0615
20.6000 13.7022 1.0546
20.6200 13.7156 1.0531
20.6400 13.7290 1.0613
20.6600 13.7423 1.0555
20.6800 13.7556 1.0571
20.7000 13.7690 1.0639
20.7200 13.7823 1.0608
20.7400 13.7957 1.0560
20.7600 13.8090 1.0640
20.7800 13.8223 1.0606
20.8000 13.8356 1.0599
20.8200 13.8489 1.0637
20.8400 13.8623 1.0609
20.8600 13.8756 1.0649
20.8800 13.8888 1.0682
20.9000 13.9022 1.0681
20.9200 13.9155 1.0626
20.9400 13.9288 1.0679
20.9600 13.9422 1.0726
20.9800 13.9556 1.0664
21.0000 13.9690 1.0716
21.0200 13.9824 1.0711
21.0400 13.9957 1.0667
21.0600 14.0090 1.0729
21.0800 14.0224 1.0688
21.1000 14.0357 1.0692
21.1200 14.0490 1.0738
21.1400 14.0622 1.0743
21.1600 14.0755 1.0677
21.1800 14.0889 1.0755
21.2000 14.1022 1.0744
21.2200 14.1155 1.0685
21.2400 14.1289 1.0784
21.2600 14.1422 1.0741
21.2800 14.1556 1.0725
21.3000 14.1689 1.0798
21.3200 14.1823 1.0747
21.3400 14.1956 1.0773
21.3600 14.2090 1.0814
21.3800 14.2223 1.0726
21.4000 14.2356 1.0786
21.4200 14.2489 1.0872
21.4400 14.2623 1.0755
21.4600 14.2756 1.0826
21.4800 14.2889 1.0882
21.5000 14.3022 1.0730
21.5200 14.3156 1.0883
21.5400 14.3289 1.0881
21.5600 14.3422 1.0781
21.5800 14.3555 1.0894
21.6000 14.3688 1.0938
21.6200 14.3822 1.0787
21.6400 14.3956 1.0869
21.6600 14.4089 1.0887
21.6800 14.4222 1.0825
21.7000 14.4356 1.0921
21.7200 14.4490 1.0896
21.7400 14.4623 1.0868
21.7600 14.4756 1.0946
21.7800 14.4889 1.0925
21.8000 14.5022 1.0909
21.8200 14.5156 1.0908
21.8400 14.5289 1.0968
21.8600 14.5422 1.0917
21.8800 14.5555 1.0930
21.9000 14.5689 1.0996
21.9200 14.5823 1.0894
21.9400 14.5956 1.0983
21.9600 14.6089 1.1009
21.9800 14.6222 1.0906
22.0000 14.6356 1.1027
22.0200 14.6489 1.0992
22.0400 14.6622 1.0921
22.0600 14.6756 1.1031
22.0800 14.6889 1.1030
22.1000 14.7023 1.0936
22.1200 14.7156 1.1018
22.1400 14.7290 1.1046
22.1600 14.7423 1.0983
22.1800 14.7557 1.1078
22.2000 14.7690 1.1042
22.2200 14.7822 1.1011
22.2400 14.7956 1.1074
22.2600 14.8089 1.1065
22.2800 14.8223 1.1029
22.3000 14.8356 1.1071
22.3200 14.8489 1.1144
22.3400 14.8622 1.1083
22.3600 14.8756 1.1073
22.3800 14.8889 1.1099
22.4000 14.9022 1.1062
22.4200 14.9156 1.1127
22.4400 14.9289 1.1140
22.4600 14.9423 1.1036
22.4800 14.9556 1.1130
22.5000 14.9689 1.1184
22.5200 14.9823 1.1089
22.5400 14.9957 1.1161
22.5600 15.0090 1.1185
22.5800 15.0223 1.1112
22.6000 15.0356 1.1167
22.6200 15.0489 1.1201
22.6400 15.0623 1.1109
22.6600 15.0756 1.1187
22.6800 15.0889 1.1242
22.7000 15.1022 1.1149
22.7200 15.1156 1.1202
22.7400 15.1289 1.1276
22.7600 15.1422 1.1165
22.7800 15.1556 1.1273
22.8000 15.1690 1.1250
22.8200 15.1823 1.1145
22.8400 15.1956 1.1316
22.8600 15.2089 1.1248
22.8800 15.2223 1.1201
22.9000 15.2357 1.1339
22.9200 15.2490 1.1260
22.9400 15.2623 1.1217
22.9600 15.2756 1.1313
22.9800 15.2889 1.1284
23.0000 15.3023 1.1252
23.0200 15.3156 1.1369
23.0400 15.3289 1.1292
23.0600 15.3422 1.1262
23.0800 15.3555 1.1363
23.1000 15.3689 1.1276
23.1200 15.3822 1.1301
23.1400 15.3956 1.1359
23.1600 15.4089 1.1332
23.1800 15.4223 1.1285
23.2000 15.4356 1.1366
23.2200 15.4490 1.1352
23.2400 15.4623 1.1333
23.2600 15.4756 1.1366
23.2800 15.4890 1.1396
23.3000 15.5022 1.1325
23.3200 15.5155 1.1415
23.3400 15.5289 1.1427
23.3600 15.5422 1.1361
23.3800 15.5555 1.1394
23.4000 15.5689 1.1444
23.4200 15.5822 1.1331
23.4400 15.5956 1.1496
23.4600 15.6089 1.1448
23.4800 15.6223 1.1355
23.5000 15.6356 1.1525
23.5200 15.6490 1.1435
23.5400 15.6623 1.1390
23.5600 15.6756 1.1508
23.5800 15.6889 1.1476
23.6000 15.7022 1.1409
23.6200 15.7156 1.1527
23.6400 15.7290 1.1507
23.6600 15.7423 1.1425
23.6800 15.7556 1.1540
23.7000 15.7690 1.1478
23.7200 15.7823 1.1449
23.7400 15.7956 1.1531
23.7600 15.8089 1.1459
23.7800 15.8222 1.1508
23.8000 15.8356 1.1586
23.8200 15.8489 1.1499
23.8400 15.8622 1.1505
23.8600 15.8755 1.1597
23.8800 15.8889 1.1508
23.9000 15.9023 1.1513
23.9200 15.9156 1.1613
23.9400 15.9289 1.1516
23.9600 15.9423 1.1546
23.9800 15.9556 1.1603
24.0000 15.9690 1.1527
24.0200 15.9823 1.1584
24.0400 15.9956 1.1635
24.0600 16.0090 1.1560
24.0800 16.0223 1.1600
24.1000 16.0356 1.1644
24.1200 16.0489 1.1559
24.1400 16.0622 1.1637
24.1600 16.0755 1.1626
24.1800 16.0889 1.1580
24.2000 16.1022 1.1620
24.2200 16.1155 1.1654
24.2400 16.1289 1.1630
24.2600 16.1423 1.1649
24.2800 16.1556 1.1639
24.3000 16.1689 1.1697
24.3200 16.1823 1.1671
24.3400 16.1956 1.1680
24.3600 16.2090 1.1671
24.3800 16.2223 1.1653
24.4000 16.2356 1.1724
24.4200 16.2489 1.1696
24.4400 16.2623 1.1687
24.4600 16.2756 1.1722
24.4800 16.2889 1.1705
24.5000 16.3022 1.1711
24.5200 16.3156 1.1699
24.5400 16.3289 1.1723
24.5600 16.3423 1.1693
24.5800 16.3556 1.1744
24.6000 16.3689 1.1721
24.6200 16.3823 1.1674
24.6400 16.3956 1.1778
24.6600 16.4089 1.1723
24.6800 16.4223 1.1771
24.7000 16.4356 1.1754
24.7200 16.4490 1.1729
24.7400 16.4623 1.1759
24.7600 16.4756 1.1778
24.7800 16.4889 1.1767
24.8000 16.5022 1.1794
24.8200 16.5156 1.1806
24.8400 16.5289 1.1793
24.8600 16.5422 1.1821
24.8800 16.5555 1.1849
24.9000 16.5689 1.1767
24.9200 16.5822 1.1863
24.9400 16.5956 1.1855
24.9600 16.6089 1.1800
24.9800 16.6223 1.1865
25.0000 16.6357 1.1832
25.0200 16.6490 1.1862
25.0400 16.6623 1.1869
25.0600 16.6756 1.1855
25.0800 16.6890 1.1839
25.1000 16.7023 1.1892
25.1200 16.7156 1.1924
25.1400 16.7289 1.1839
25.1600 16.7423 1.1904
25.1800 16.7556 1.1928
25.2000 16.7689 1.1898
25.2200 16.7822 1.1930
25.2400 16.7956 1.1925
25.2600 16.8089 1.1950
25.2800 16.8222 1.1919
25.3000 16.8356 1.1938
25.3200 16.8489 1.1971
25.3400 16.8623 1.1966
25.3600 16.8756 1.1912
25.3800 16.8890 1.1955
25.4000 16.9023 1.1995
25.4200 16.9157 1.1985
25.4400 16.9290 1.1961
25.4600 16.9423 1.1942
25.4800 16.9556 1.2008
25.5000 16.9689 1.2014
25.5200 16.9822 1.1947
25.5400 16.9955 1.2054
25.5600 17.0089 1.2014
25.5800 17.0222 1.2030
25.6000 17.0355 1.2069
25.6200 17.0489 1.2010
25.6400 17.0622 1.2051
25.6600 17.0756 1.2114
25.6800 17.0889 1.2034
25.7000 17.1023 1.2054
25.7200 17.1156 1.2091
25.7400 17.1289 1.2052
25.7600 17.1422 1.2099
25.7800 17.1556 1.2122
25.8000 17.1690 1.2043
25.8200 17.1823 1.2129
25.8400 17.1956 1.2131
25.8600 17.2089 1.2096
25.8800 17.2223 1.2156
25.9000 17.2356 1.2112
25.9200 17.2489 1.2092
25.9400 17.2622 1.2183
25.9600 17.2755 1.2128
25.9800 17.2889 1.2111
26.0000 17.3022 1.2151
26.0200 17.3155 1.2170
26.0400 17.3289 1.2188
26.0600 17.3423 1.2141
26.0800 17.3557 1.2171
26.1000 17.3690 1.2158
26.1200 17.3823 1.2215
26.1400 17.3956 1.2208
26.1600 17.4090 1.2198
26.1800 17.4223 1.2189
26.2000 17.4356 1.2210
26.2200 17.4489 1.2229
26.2400 17.4623 1.2261
26.2600 17.4756 1.2261
26.2800 17.4889 1.2236
26.3000 17.5022 1.2287
26.3200 17.5155 1.2287
26.3400 17.5289 1.2251
26.3600 17.5422 1.2319
26.3800 17.5556 1.2316
26.4000 17.5689 1.2273
26.4200 17.5823 1.2282
26.4400 17.5957 1.2314
26.4600 17.6090 1.2291
26.4800 17.6223 1.2331
26.5000 17.6357 1.2316
26.5200 17.6490 1.2292
26.5400 17.6623 1.2334
26.5600 17.6756 1.2376
26.5800 17.6889 1.2325
26.6000 17.7022 1.2384
26.6200 17.7156 1.2379
26.6400 17.7289 1.2325
26.6600 17.7422 1.2399
26.6800 17.7555 1.2360
26.7000 17.7689 1.2357
26.7200 17.7823 1.2438
26.7400 17.7956 1.2352
26.7600 17.8089 1.2394
26.7800 17.8223 1.2452
26.8000 17.8357 1.2379
26.8200 17.8490 1.2449
26.8400 17.8623 1.2489
26.8600 17.8756 1.2384
26.8800 17.8890 1.2422
26.9000 17.9023 1.2525
26.9200 17.9156 1.2387
26.9400 17.9289 1.2485
26.9600 17.9423 1.2529
26.9800 17.9556 1.2386
27.0000 17.9689 1.2513
27.0200 17.9822 1.2535
27.0400 17.9955 1.2440
27.0600 18.0089 1.2553
27.0800 18.0222 1.2537
27.1000 18.0356 1.2452
27.1200 18.0489 1.2529
27.1400 18.0623 1.2520
27.1600 18.0757 1.2515
27.1800 18.0890 1.2548
27.2000 18.1023 1.2544
27.2200 18.1156 1.2547
27.2400 18.1290 1.2557
27.2600 18.1423 1.2576
27.2800 18.1556 1.2548
27.3000 18.1689 1.2603
27.3200 18.1822 1.2585
27.3400 18.1956 1.2581
27.3600 18.2089 1.2637
27.3800 18.2222 1.2618
27.4000 18.2355 1.2563
27.4200 18.2489 1.2634
27.4400 18.2622 1.2630
27.4600 18.2755 1.2623
27.4800 18.2889 1.2635
27.5000 18.3023 1.2624
27.5200 18.3156 1.2657
27.5400 18.3290 1.2662
27.5600 18.3423 1.2641
27.5800 18.3556 1.2687
27.6000 18.3690 1.2663
27.6200 18.3823 1.2627
27.6400 18.3956 1.2683
27.6600 18.4089 1.2660
27.6800 18.4223 1.2713
27.7000 18.4356 1.2715
27.7200 18.4489 1.2651
27.7400 18.4622 1.2741
27.7600 18.4755 1.2735
27.7800 18.4889 1.2670
27.8000 18.5022 1.2752
27.8200 18.5156 1.2722
27.8400 18.5289 1.2718
27.8600 18.5422 1.2765
27.8800 18.5556 1.2794
27.9000 18.5690 1.2744
27.9200 18.5823 1.2793
27.9400 18.5956 1.2789
27.9600 18.6090 1.2763
27.9800 18.6223 1.2789
28.0000 18.6356 1.2795
28.0200 18.6489 1.2813
28.0400 18.6623 1.2796
28.0600 18.6756 1.2819
28.0800 18.6889 1.2830
28.1000 18.7022 1.2833
28.1200 18.7155 1.2862
28.1400 18.7289 1.2840
28.1600 18.7422 1.2881
28.1800 18.7555 1.2841
28.2000 18.7689 1.2866
28.2200 18.7823 1.2898
28.2400 18.7957 1.2880
28.2600 18.8090 1.2858
28.2800 18.8223 1.2890
28.3000 18.8357 1.2922
28.3200 18.8490 1.2865
28.3400 18.8623 1.2896
28.3600 18.8756 1.2932
28.3800 18.8889 1.2904
28.4000 18.9022 1.2962
28.4200 18.9155 1.2930
28.4400 18.9289 1.2902
28.4600 18.9422 1.3006
28.4800 18.9556 1.2918
28.5000 18.9689 1.2942
28.5200 18.9823 1.3021
28.5400 18.9956 1.2925
28.5600 19.0089 1.2963
28.5800 19.0223 1.3022
28.6000 19.0357 1.2921
28.6200 19.0490 1.2992
28.6400 19.0623 1.3052
28.6600 19.0756 1.2971
28.6800 19.0890 1.3023
28.7000 19.1023 1.3054
28.7200 19.1156 1.2954
28.7400 19.1289 1.3087
28.7600 19.1422 1.3094
28.7800 19.1556 1.2986
28.8000 19.1689 1.3100
28.8200 19.1822 1.3041
28.8400 19.1955 1.3024
28.8600 19.2089 1.3140
28.8800 19.2223 1.3014
28.9000 19.2356 1.3098
28.9200 19.2489 1.3135
28.9400 19.2623 1.3033
28.9600 19.2756 1.3137
28.9800 19.2890 1.3164
29.0000 19.3023 1.3099
29.0200 19.3156 1.3139
29.0400 19.3289 1.3169
29.0600 19.3423 1.3074
29.0800 19.3556 1.3208
29.1000 19.3689 1.3162
29.1200 19.3823 1.3135
29.1400 19.3956 1.3226
29.1600 19.4089 1.3151
29.1800 19.4222 1.3167
29.2000 19.4355 1.3230
29.2200 19.4489 1.3190
29.2400 19.4622 1.3166
29.2600 19.4756 1.3254
29.2800 19.4889 1.3208
29.3000 19.5023 1.3208
29.3200 19.5156 1.3275
29.3400 19.5290 1.3179
29.3600 19.5423 1.3228
29.3800 19.5556 1.3295
29.4000 19.5690 1.3279
29.4200 19.5823 1.3191
29.4400 19.5956 1.3312
29.4600 19.6089 1.3311
29.4800 19.6222 1.3221
29.5000 19.6356 1.3277
29.5200 19.6489 1.3345
29.5400 19.6622 1.3232
29.5600 19.6755 1.3380
29.5800 19.6889 1.3317
29.6000 19.7022 1.3238
29.6200 19.7156 1.3391
29.6400 19.7289 1.3317
29.6600 19.7422 1.3309
29.6800 19.7556 1.3380
29.7000 19.7689 1.3351
29.7200 19.7823 1.3312
29.7400 19.7956 1.3416
29.7600 19.8090 1.3364
29.7800 19.8223 1.3337
29.8000 19.8356 1.3412
29.8200 19.8489 1.3328
29.8400 19.8623 1.3402
29.8600 19.8756 1.3447
29.8800 19.8889 1.3330
29.9000 19.9022 1.3428
29.9200 19.9155 1.3440
29.9400 19.9289 1.3403
29.9600 19.9422 1.3423
29.9800 19.9556 1.3468
30.0000 19.9689 1.3427
30.0200 19.9823 1.3446
30.0400 19.9957 1.3498
30.0600 20.0090 1.3438
30.0800 20.0223 1.3501
30.1000 20.0356 1.3522
30.1200 20.0490 1.3470
30.1400 20.0623 1.3472
30.1600 20.0756 1.3563
30.1800 20.0889 1.3524
30.2000 20.1022 1.3494
30.2200 20.1156 1.3556
30.2400 20.1289 1.3520
30.2600 20.1422 1.3544
30.2800 20.1555 1.3574
30.3000 20.1689 1.3564
30.3200 20.1822 1.3518
30.3400 20.1955 1.3585
30.3600 20.2089 1.3566
30.3800 20.2222 1.3562
30.4000 20.2356 1.3612
30.4200 20.2490 1.3544
30.4400 20.2623 1.3567
30.4600 20.2756 1.3612
30.4800 20.2890 1.3580
30.5000 20.3023 1.3610
30.5200 20.3156 1.3641
30.5400 20.3289 1.3628
30.5600 20.3422 1.3620
30.5800 20.3555 1.3670
30.6000 20.3689 1.3664
30.6200 20.3822 1.3647
30.6400 20.3955 1.3689
30.6600 20.4089 1.3654
30.6800 20.4223 1.3694
30.7000 20.4356 1.3685
30.7200 20.4490 1.3657
30.7400 20.4623 1.3701
30.7600 20.4757 1.3711
30.7800 20.4890 1.3684
30.8000 20.5023 1.3711
30.8200 20.5156 1.3748
30.8400 20.5289 1.3760
30.8600 20.5423 1.3714
30.8800 20.5556 1.3737
30.9000 20.5690 1.3763
30.9200 20.5823 1.3756
30.9400 20.5956 1.3760
30.9600 20.6090 1.3789
30.9800 20.6223 1.3724
31.0000 20.6355 1.3791
31.0200 20.6489 1.3831
31.0400 20.6622 1.3756
31.0600 20.6755 1.3830
31.0800 20.6889 1.3849
31.1000 20.7022 1.3762
31.1200 20.7156 1.3844
31.1400 20.7289 1.3845
31.1600 20.7423 1.3807
31.1800 20.7556 1.3882
31.2000 20.7690 1.3884
31.2200 20.7823 1.3803
31.2400 20.7956 1.3922
31.2600 20.8089 1.3911
31.2800 20.8223 1.3840
31.3000 20.8356 1.3919
31.3200 20.8490 1.3886
31.3400 20.8623 1.3860
31.3600 20.8755 1.3947
31.3800 20.8888 1.3875
31.4000 20.9022 1.3920
31.4200 20.9155 1.3967
31.4400 20.9288 1.3928
31.4600 20.9422 1.3945
31.4800 20.9556 1.3958
31.5000 20.9690 1.3983
31.5200 20.9823 1.3916
31.5400 20.9956 1.3982
31.5600 21.0090 1.4048
31.5800 21.0223 1.3963
31.6000 21.0356 1.3996
31.6200 21.0489 1.4051
31.6400 21.0622 1.3947
31.6600 21.0756 1.4043
31.6800 21.0889 1.4066
31.7000 21.1022 1.3991
31.7200 21.1155 1.4054
31.7400 21.1289 1.4083
31.7600 21.1423 1.4054
31.7800 21.1556 1.4089
31.8000 21.1689 1.4096
31.8200 21.1823 1.4035
31.8400 21.1956 1.4133
31.8600 21.2090 1.4078
31.8800 21.2223 1.4052
31.9000 21.2356 1.4182
31.9200 21.2490 1.4074
31.9400 21.2623 1.4069
31.9600 21.2757 1.4180
31.9800 21.2889 1.4116
32.0000 21.3022 1.4119
32.0200 21.3156 1.4181
32.0400 21.3289 1.4082
32.0600 21.3422 1.4147
32.0800 21.3555 1.4238
32.1000 21.3689 1.4159
32.1200 21.3822 1.4171
32.1400 21.3956 1.4211
32.1600 21.4089 1.4134
32.1800 21.4223 1.4212
32.2000 21.4356 1.4257
32.2200 21.4490 1.4160
32.2400 21.4623 1.4212
32.2600 21.4756 1.4281
32.2800 21.4889 1.4182
32.3000 21.5023 1.4285
32.3200 21.5156 1.4280
32.3400 21.5289 1.4191
32.3600 21.5422 1.4363
32.3800 21.5556 1.4286
32.4000 21.5689 1.4209
32.4200 21.5823 1.4331
32.4400 21.5956 1.4309
32.4600 21.6089 1.4252
32.4800 21.6222 1.4366
32.5000 21.6356 1.4306
32.5200 21.6489 1.4252
32.5400 21.6622 1.4389
32.5600 21.6756 1.4341
32.5800 21.6890 1.4262
32.6000 21.7023 1.4362
32.6200 21.7156 1.4369
32.6400 21.7289 1.4326
32.6600 21.7423 1.4382
32.6800 21.7556 1.4343
32.7000 21.7689 1.4388
32.7200 21.7822 1.4425
32.7400 21.7956 1.4356
32.7600 21.8089 1.4413
32.7800 21.8222 1.4413
32.8000 21.8355 1.4419
32.8200 21.8489 1.4437
32.8400 21.8622 1.4472
32.8600 21.8756 1.4395
32.8800 21.8889 1.4446
32.9000 21.9022 1.4500
32.9200 21.9156 1.4438
32.9400 21.9289 1.4479
32.9600 21.9423 1.4475
32.9800 21.9556 1.4451
33.0000 21.9689 1.4491
33.0200 21.9823 1.4499
33.0400 21.9956 1.4479
33.0600 22.0090 1.4507
33.0800 22.0223 1.4503
33.1000 22.0356 1.4533
33.1200 22.0490 1.4489
33.1400 22.0623 1.4528
33.1600 22.0756 1.4560
33.1800 22.0889 1.4511
33.2000 22.1022 1.4588
33.2200 22.1155 1.4549
33.2400 22.1288 1.4513
33.2600 22.1422 1.4632
33.2800 22.1556 1.4569
33.3000 22.1690 1.4562
33.3200 22.1823 1.4647
33.3400 22.1956 1.4576
33.3600 22.2090 1.4579
33.3800 22.2223 1.4656
33.4000 22.2357 1.4572
33.4200 22.2490 1.4613
33.4400 22.2623 1.4674
33.4600 22.2756 1.4631
33.4800 22.2889 1.4645
33.5000 22.3022 1.4627
33.5200 22.3155 1.4652
33.5400 22.3288 1.4745
33.5600 22.3422 1.4621
33.5800 22.3556 1.4667
33.6000 22.3689 1.4741
33.6200 22.3822 1.4671
33.6400 22.3956 1.4691
33.6600 22.4090 1.4737
33.6800 22.4223 1.4661
33.7000 22.4357 1.4772
33.7200 22.4490 1.4739
33.7400 22.4623 1.4712
33.7600 22.4757 1.4796
33.7800 22.4890 1.4710
33.8000 22.5022 1.4732
33.8200 22.5156 1.4848
33.8400 22.5289 1.4696
33.8600 22.5422 1.4778
33.8800 22.5555 1.4890
33.9000 22.5688 1.4748
33.9200 22.5822 1.4817
33.9400 22.5956 1.4861
33.9600 22.6089 1.4769
33.9800 22.6222 1.4863
34.0000 22.6356 1.4841
34.0200 22.6489 1.4796
34.0400 22.6623 1.4893
34.0600 22.6756 1.4823
34.0800 22.6890 1.4875
34.1000 22.7023 1.4888
34.1200 22.7157 1.4857
34.1400 22.7290 1.4890
34.1600 22.7423 1.4938
34.1800 22.7556 1.4867
34.2000 22.7689 1.4920
34.2200 22.7822 1.4916
34.2400 22.7955 1.4892
34.2600 22.8088 1.4982
34.2800 22.8222 1.4953
34.3000 22.8356 1.4918
34.3200 22.8489 1.4979
34.3400 22.8622 1.4949
34.3600 22.8756 1.4944
34.3800 22.8890 1.4983
34.4000 22.9023 1.4980
34.4200 22.9156 1.4952
34.4400 22.9290 1.5057
34.4600 22.9423 1.5030
34.4800 22.9556 1.4985
34.5000 22.9689 1.5060
34.5200 22.9822 1.5051
34.5400 22.9955 1.5009
34.5600 23.0089 1.5077
34.5800 23.0222 1.5059
34.6000 23.0356 1.5044
34.6200 23.0489 1.5087
34.6400 23.0622 1.5071
34.6600 23.0755 1.5038
34.6800 23.0889 1.5131
34.7000 23.1022 1.5139
34.7200 23.1156 1.5048
34.7400 23.1290 1.5126
34.7600 23.1423 1.5123
34.7800 23.1556 1.5084
34.8000 23.1690 1.5179
34.8200 23.1823 1.5175
34.8400 23.1957 1.5134
34.8600 23.2090 1.5230
34.8800 23.2223 1.5196
34.9000 23.2356 1.5153
34.9200 23.2489 1.5206
34.9400 23.2622 1.5234
34.9600 23.2756 1.5175
34.9800 23.2889 1.5245
35.0000 23.3022 1.5231
35.0200 23.3155 1.5197
35.0400 23.3289 1.5254
35.0600 23.3422 1.5293
35.0800 23.3556 1.5209
35.1000 23.3689 1.5274
35.1200 23.3823 1.5280
35.1400 23.3956 1.5243
35.1600 23.4089 1.5328
35.1800 23.4223 1.5297
35.2000 23.4356 1.5233
35.2200 23.4490 1.5357
35.2400 23.4623 1.5352
35.2600 23.4756 1.5281
35.2800 23.4889 1.5358
35.3000 23.5022 1.5371
35.3200 23.5155 1.5269
35.3400 23.5288 1.5375
35.3600 23.5422 1.5388
35.3800 23.5555 1.5349
35.4000 23.5688 1.5367
35.4200 23.5822 1.5411
35.4400 23.5955 1.5391
35.4600 23.6090 1.5356
35.4800 23.6223 1.5446
35.5000 23.6357 1.5412
35.5200 23.6490 1.5439
35.5400 23.6623 1.5390
35.5600 23.6757 1.5453
35.5800 23.6890 1.5449
35.6000 23.7022 1.5467
35.6200 23.7155 1.5508
35.6400 23.7289 1.5460
35.6600 23.7422 1.5482
35.6800 23.7555 1.5532
35.7000 23.7689 1.5500
35.7200 23.7822 1.5483
35.7400 23.7956 1.5522
35.7600 23.8089 1.5507
35.7800 23.8223 1.5509
35.8000 23.8356 1.5566
35.8200 23.8490 1.5501
35.8400 23.8624 1.5559
35.8600 23.8757 1.5557
35.8800 23.8890 1.5558
35.9000 23.9023 1.5602
35.9200 23.9156 1.5590
35.9400 23.9289 1.5545
35.9600 23.9422 1.5595
35.9800 23.9556 1.5646
36.0000 23.9689 1.5579
36.0200 23.9823 1.5600
36.0400 23.9956 1.5647
36.0600 24.0089 1.5618
36.0800 24.0222 1.5632
36.1000 24.0356 1.5641
36.1200 24.0489 1.5664
36.1400 24.0623 1.5668
36.1600 24.0756 1.5678
36.1800 24.0890 1.5681
36.2000 24.1023 1.5693
36.2200 24.1156 1.5728
36.2400 24.1289 1.5697
36.2600 24.1423 1.5723
36.2800 24.1556 1.5726
36.3000 24.1690 1.5712
36.3200 24.1823 1.5774
36.3400 24.1956 1.5763
36.3600 24.2089 1.5726
36.3800 24.2223 1.5786
36.4000 24.2356 1.5784
36.4200 24.2489 1.5767
36.4400 24.2622 1.5767
36.4600 24.2756 1.5794
36.4800 24.2889 1.5774
36.5000 24.3022 1.5838
36.5200 24.3156 1.5794
36.5400 24.3289 1.5794
36.5600 24.3423 1.5864
36.5800 24.3556 1.5812
36.6000 24.3690 1.5832
36.6200 24.3823 1.5876
36.6400 24.3956 1.5810
36.6600 24.4090 1.5860
36.6800 24.4222 1.5906
36.7000 24.4356 1.5872
36.7200 24.4489 1.5872
36.7400 24.4623 1.5930
36.7600 24.4756 1.5895
36.7800 24.4889 1.5936
36.8000 24.5022 1.5963
36.8200 24.5156 1.5904
36.8400 24.5289 1.5920
36.8600 24.5422 1.5972
36.8800 24.5556 1.5936
36.9000 24.5689 1.5965
36.9200 24.5823 1.6012
36.9400 24.5956 1.5915
36.9600 24.6089 1.5965
36.9800 24.6223 1.6015
37.0000 24.6357 1.5949
37.0200 24.6490 1.6044
37.0400 24.6623 1.6000
37.0600 24.6756 1.6042
37.0800 24.6889 1.6066
37.1000 24.7022 1.5993
37.1200 24.7156 1.6089
37.1400 24.7288 1.6020
37.1600 24.7422 1.6051
37.1800 24.7555 1.6114
37.2000 24.7689 1.6084
37.2200 24.7822 1.6072
37.2400 24.7956 1.6164
37.2600 24.8090 1.6091
37.2800 24.8223 1.6062
37.3000 24.8357 1.6196
37.3200 24.8490 1.6094
37.3400 24.8623 1.6130
37.3600 24.8757 1.6208
37.3800 24.8890 1.6080
37.4000 24.9023 1.6196
37.4200 24.9156 1.6196
37.4400 24.9289 1.6158
37.4600 24.9422 1.6185
37.4800 24.9556 1.6203
37.5000 24.9689 1.6206
37.5200 24.9822 1.6194
37.5400 24.9955 1.6229
37.5600 25.0089 1.6217
37.5800 25.0222 1.6240
37.6000 25.0356 1.6256
37.6200 25.0489 1.6242
37.6400 25.0623 1.6279
37.6600 25.0756 1.6274
37.6800 25.0889 1.6285
37.7000 25.1023 1.6305
37.7200 25.1156 1.6307
37.7400 25.1290 1.6285
37.7600 25.1423 1.6291
37.7800 25.1556 1.6381
37.8000 25.1689 1.6312
37.8200 25.1822 1.6287
37.8400 25.1955 1.6405
37.8600 25.2089 1.6357
37.8800 25.2222 1.6313
37.9000 25.2356 1.6411
37.9200 25.2490 1.6382
37.9400 25.2623 1.6333
37.9600 25.2756 1.6435
37.9800 25.2890 1.6378
38.0000 25.3023 1.6367
38.0200 25.3156 1.6486
38.0400 25.3289 1.6420
38.0600 25.3422 1.6451
38.0800 25.3556 1.6441
38.1000 25.3689 1.6433
38.1200 25.3823 1.6443
38.1400 25.3956 1.6499
38.1600 25.4089 1.6479
38.1800 25.4223 1.6470
38.2000 25.4356 1.6507
38.2200 25.4489 1.6587
38.2400 25.4622 1.6474
38.2600 25.4755 1.6519
38.2800 25.4889 1.6558
38.3000 25.5022 1.6466
38.3200 25.5155 1.6562
38.3400 25.5289 1.6590
38.3600 25.5423 1.6502
38.3800 25.5556 1.6592
38.4000 25.5689 1.6613
38.4200 25.5823 1.6550
38.4400 25.5956 1.6649
38.4600 25.6090 1.6579
38.4800 25.6223 1.6618
38.5000 25.6356 1.6681
38.5200 25.6490 1.6624
38.5400 25.6623 1.6665
38.5600 25.6756 1.6677
38.5800 25.6889 1.6650
38.6000 25.7022 1.6696
38.6200 25.7155 1.6733
38.6400 25.7289 1.6685
38.6600 25.7422 1.6709
38.6800 25.7555 1.6724
38.7000 25.7689 1.6728
38.7200 25.7823 1.6748
38.7400 25.7957 1.6740
38.7600 25.8090 1.6791
38.7800 25.8223 1.6777
38.8000 25.8357 1.6737
38.8200 25.8490 1.6828
38.8400 25.8623 1.6795
38.8600 25.8756 1.6775
38.8800 25.8889 1.6851
38.9000 25.9023 1.6771
38.9200 25.9156 1.6836
38.9400 25.9289 1.6884
38.9600 25.9422 1.6855
38.9800 25.9556 1.6837
39.0000 25.9689 1.6888
39.0200 25.9822 1.6858
39.0400 25.9956 1.6876
39.0600 26.0089 1.6946
39.0800 26.0223 1.6867
39.1000 26.0356 1.6845
39.1200 26.0490 1.6974
39.1400 26.0623 1.6891
39.1600 26.0756 1.6979
39.1800 26.0890 1.7011
39.2000 26.1023 1.6891
39.2200 26.1156 1.7016
39.2400 26.1289 1.6997
39.2600 26.1423 1.6925
39.2800 26.1556 1.7051
39.3000 26.1689 1.7038
39.3200 26.1822 1.6942
39.3400 26.1955 1.7111
39.3600 26.2089 1.7026
39.3800 26.2222 1.6973
39.4000 26.2356 1.7100
39.4200 26.2489 1.7054
39.4400 26.2623 1.7018
39.4600 26.2757 1.7180
39.4800 26.2890 1.7047
39.5000 26.3023 1.7066
39.5200 26.3156 1.7244
39.5400 26.3290 1.7046
39.5600 26.3423 1.7085
39.5800 26.3556 1.7216
39.6000 26.3689 1.7080
39.6200 26.3822 1.7156
39.6400 26.3956 1.7204
39.6600 26.4089 1.7094
39.6800 26.4222 1.7222
39.7000 26.4356 1.7231
39.7200 26.4489 1.7104
39.7400 26.4622 1.7226
39.7600 26.4756 1.7241
39.7800 26.4889 1.7147
39.8000 26.5023 1.7295
39.8200 26.5156 1.7226
39.8400 26.5290 1.7116
39.8600 26.5423 1.7346
39.8800 26.5556 1.7233
39.9000 26.5690 1.7199
39.9200 26.5823 1.7350
39.9400 26.5956 1.7230
39.9600 26.6089 1.7295
39.9800 26.6222 1.7345
40.0000 26.6356 1.7286
40.0200 26.6489 1.7333
40.0400 26.6622 1.7361
40.0600 26.6755 1.7309
40.0800 26.6889 1.7340
40.1000 26.7022 1.7365
40.1200 26.7156 1.7361
40.1400 26.7289 1.7370
40.1600 26.7423 1.7427
40.1800 26.7556 1.7324
40.2000 26.7689 1.7411
40.2200 26.7822 1.7438
40.2400 26.7956 1.7397
40.2600 26.8090 1.7444
40.2800 26.8223 1.7475
40.3000 26.8356 1.7417
40.3200 26.8490 1.7448
40.3400 26.8623 1.7494
40.3600 26.8756 1.7457
40.3800 26.8889 1.7461
40.4000 26.9022 1.7559
40.4200 26.9155 1.7470
40.4400 26.9289 1.7502
40.4600 26.9422 1.7570
40.4800 26.9555 1.7504
40.5000 26.9689 1.7535
40.5200 26.9823 1.7609
40.5400 26.9957 1.7488
40.5600 27.0090 1.7559
40.5800 27.0223 1.7642
40.6000 27.0356 1.7546
40.6200 27.0490 1.7631
40.6400 27.0623 1.7638
40.6600 27.0756 1.7579
40.6800 27.0890 1.7658
40.7000 27.1023 1.7665
40.7200 27.1156 1.7626
40.7400 27.1289 1.7647
40.7600 27.1422 1.7686
40.7800 27.1555 1.7654
40.8000 27.1689 1.7704
40.8200 27.1822 1.7729
40.8400 27.1956 1.7670
40.8600 27.2089 1.7723
40.8800 27.2223 1.7706
40.9000 27.2357 1.7704
40.9200 27.2490 1.7755
40.9400 27.2623 1.7779
40.9600 27.2757 1.7737
40.9800 27.2890 1.7764
41.0000 27.3023 1.7777
41.0200 27.3156 1.7769
41.0400 27.3289 1.7818
41.0600 27.3422 1.7812
41.0800 27.3556 1.7796
41.1000 27.3689 1.7804
41.1200 27.3822 1.7841
41.1400 27.3955 1.7812
41.1600 27.4089 1.7847
41.1800 27.4222 1.7869
41.2000 27.4356 1.7843
41.2200 27.4489 1.7873
41.2400 27.4623 1.7901
41.2600 27.4756 1.7867
41.2800 27.4890 1.7894
41.3000 27.5023 1.7956
41.3200 27.5156 1.7897
41.3400 27.5290 1.7930
41.3600 27.5423 1.7961
41.3800 27.5556 1.7917
41.4000 27.5689 1.7982
41.4200 27.5823 1.8007
41.4400 27.5956 1.7971
41.4600 27.6089 1.7981
41.4800 27.6222 1.8053
41.5000 27.6355 1.7998
41.5200 27.6489 1.7953
41.5400 27.6622 1.8088
41.5600 27.6756 1.8048
41.5800 27.6889 1.8039
41.6000 27.7023 1.8108
41.6200 27.7157 1.8033
41.6400 27.7290 1.8051
41.6600 27.7423 1.8139
41.6800 27.7556 1.8116
41.7000 27.7690 1.8077
41.7200 27.7823 1.8157
41.7400 27.7956 1.8121
41.7600 27.8089 1.8129
41.7800 27.8222 1.8242
41.8000 27.8356 1.8134
41.8200 27.8489 1.8130
41.8400 27.8622 1.8296
41.8600 27.8756 1.8154
41.8800 27.8889 1.8208
41.9000 27.9022 1.8290
41.9200 27.9155 1.8177
41.9400 27.9289 1.8227
41.9600 27.9422 1.8320
41.9800 27.9556 1.8209
42.0000 27.9690 1.8281
42.0200 27.9823 1.8360
42.0400 27.9956 1.8244
42.0600 28.0090 1.8340
42.0800 28.0223 1.8334
42.1000 28.0356 1.8280
42.1200 28.0489 1.8417
42.1400 28.0622 1.8337
42.1600 28.0756 1.8314
42.1800 28.0889 1.8383
42.2000 28.1022 1.8398
42.2200 28.1155 1.8429
42.2400 28.1289 1.8384
42.2600 28.1422 1.8415
42.2800 28.1556 1.8455
42.3000 28.1689 1.8428
42.3200 28.1823 1.8452
42.3400 28.1956 1.8489
42.3600 28.2090 1.8415
42.3800 28.2223 1.8497
42.4000 28.2356 1.8547
42.4200 28.2489 1.8420
42.4400 28.2623 1.8568
42.4600 28.2756 1.8583
42.4800 28.2889 1.8457
42.5000 28.3023 1.8599
42.5200 28.3156 1.8528
42.5400 28.3289 1.8552
42.5600 28.3422 1.8642
42.5800 28.3555 1.8564
42.6000 28.3688 1.8604
42.6200 28.3822 1.8638
42.6400 28.3955 1.8544
42.6600 28.4089 1.8699
42.6800 28.4223 1.8692
42.7000 28.4357 1.8580
42.7200 28.4490 1.8714
42.7400 28.4624 1.8719
42.7600 28.4757 1.8583
42.7800 28.4890 1.8763
42.8000 28.5024 1.8701
42.8200 28.5156 1.8680
42.8400 28.5289 1.8793
42.8600 28.5422 1.8723
42.8800 28.5555 1.8724
42.9000 28.5689 1.8836
42.9200 28.5822 1.8760
42.9400 28.5955 1.8774
42.9600 28.6089 1.8852
42.9800 28.6223 1.8772
43.0000 28.6356 1.8786
43.0200 28.6489 1.8880
43.0400 28.6623 1.8807
43.0600 28.6757 1.8884
43.0800 28.6890 1.8864
43.1000 28.7023 1.8845
43.1200 28.7156 1.8963
43.1400 28.7289 1.8899
43.1600 28.7423 1.8892
43.1800 28.7556 1.8931
43.2000 28.7689 1.8977
43.2200 28.7822 1.8890
43.2400 28.7956 1.8959
43.2600 28.8089 1.9015
43.2800 28.8222 1.8938
43.3000 28.8355 1.9033
43.3200 28.8489 1.9003
43.3400 28.8623 1.8970
43.3600 28.8756 1.9068
43.3800 28.8889 1.8995
43.4000 28.9023 1.9054
43.4200 28.9156 1.9108
43.4400 28.9290 1.9079
43.4600 28.9423 1.9017
43.4800 28.9556 1.9153
43.5000 28.9689 1.9088
43.5200 28.9823 1.9089
43.5400 28.9956 1.9137
43.5600 29.0089 1.9106
43.5800 29.0223 1.9140
43.6000 29.0356 1.9156
43.6200 29.0489 1.9180
43.6400 29.0622 1.9254
43.6600 29.0755 1.9133
43.6800 29.0889 1.9214
43.7000 29.1022 1.9220
43.7200 29.1156 1.9221
43.7400 29.1289 1.9282
43.7600 29.1423 1.9246
43.7800 29.1556 1.9266
43.8000 29.1690 1.9282
43.8200 29.1823 1.9271
43.8400 29.1956 1.9296
43.8600 29.2090 1.9306
43.8800 29.2223 1.9249
43.9000 29.2356 1.9344
43.9200 29.2489 1.9367
43.9400 29.2622 1.9318
43.9600 29.2756 1.9432
43.9800 29.2889 1.9377
44.0000 29.3022 1.9295
44.0200 29.3155 1.9489
44.0400 29.3289 1.9396
44.0600 29.3422 1.9343
44.0800 29.3556 1.9493
44.1000 29.3689 1.9421
44.1200 29.3822 1.9395
44.1400 29.3956 1.9540
44.1600 29.4090 1.9423
44.1800 29.4223 1.9448
44.2000 29.4356 1.9608
44.2200 29.4490 1.9438
44.2400 29.4623 1.9510
44.2600 29.4757 1.9608
44.2800 29.4889 1.9467
44.3000 29.5022 1.9594
44.3200 29.5156 1.9596
44.3400 29.5289 1.9490
44.3600 29.5422 1.9586
44.3800 29.5555 1.9678
44.4000 29.5688 1.9516
44.4200 29.5822 1.9621
44.4400 29.5955 1.9677
44.4600 29.6089 1.9551
44.4800 29.6223 1.9700
44.5000 29.6357 1.9698
44.5200 29.6490 1.9577
44.5400 29.6623 1.9732
44.5600 29.6756 1.9690
44.5800 29.6890 1.9680
44.6000 29.7023 1.9747
44.6200 29.7156 1.9759
44.6400 29.7289 1.9728
44.6600 29.7422 1.9792
44.6800 29.7556 1.9748
44.7000 29.7689 1.9723
44.7200 29.7822 1.9832
44.7400 29.7955 1.9766
44.7600 29.8089 1.9807
44.7800 29.8222 1.9804
44.8000 29.8355 1.9792
44.8200 29.8489 1.9860
44.8400 29.8622 1.9879
44.8600 29.8756 1.9832
44.8800 29.8890 1.9899
44.9000 29.9023 1.9864
44.9200 29.9156 1.9892
44.9400 29.9290 1.9991
44.9600 29.9423 1.9912
44.9800 29.9556 1.9917
45.0000 29.9689 1.9995
45.0200 29.9822 1.9960
45.0400 29.9955 2.0017
45.0600 30.0089 2.0023
45.0800 30.0222 1.9944
45.1000 30.0355 2.0064
45.1200 30.0489 2.0035
45.1400 30.0623 1.9971
45.1600 30.0756 2.0101
45.1800 30.0889 2.0075
45.2000 30.1023 2.0024
45.2200 30.1156 2.0115
45.2400 30.1290 2.0154
45.2600 30.1423 2.0063
45.2800 30.1556 2.0133
45.3000 30.1689 2.0140
45.3200 30.1823 2.0129
45.3400 30.1956 2.0197
45.3600 30.2090 2.0143
45.3800 30.2223 2.0211
45.4000 30.2356 2.0228
45.4200 30.2490 2.0203
45.4400 30.2623 2.0204
45.4600 30.2756 2.0280
45.4800 30.2889 2.0233
45.5000 30.3022 2.0262
45.5200 30.3156 2.0292
45.5400 30.3289 2.0259
45.5600 30.3422 2.0304
45.5800 30.3556 2.0305
45.6000 30.3689 2.0354
45.6200 30.3823 2.0331
45.6400 30.3956 2.0316
45.6600 30.4089 2.0414
45.6800 30.4223 2.0310
45.7000 30.4356 2.0390
45.7200 30.4489 2.0436
45.7400 30.4623 2.0394
45.7600 30.4756 2.0432
45.7800 30.4890 2.0474
45.8000 30.5023 2.0437
45.8200 30.5155 2.0480
45.8400 30.5289 2.0489
45.8600 30.5422 2.0410
45.8800 30.5555 2.0550
45.9000 30.5689 2.0554
45.9200 30.5822 2.0472
45.9400 30.5956 2.0552
45.9600 30.6090 2.0537
45.9800 30.6223 2.0539
46.0000 30.6356 2.0588
46.0200 30.6490 2.0603
46.0400 30.6623 2.0565
46.0600 30.6756 2.0645
46.0800 30.6889 2.0639
46.1000 30.7022 2.0595
46.1200 30.7156 2.0686
46.1400 30.7289 2.0677
46.1600 30.7422 2.0665
46.1800 30.7555 2.0674
46.2000 30.7689 2.0769
46.2200 30.7822 2.0718
46.2400 30.7956 2.0699
46.2600 30.8089 2.0790
46.2800 30.8222 2.0744
46.3000 30.8356 2.0739
46.3200 30.8490 2.0802
46.3400 30.8623 2.0796
46.3600 30.8756 2.0817
46.3800 30.8890 2.0848
46.4000 30.9023 2.0837
46.4200 30.9157 2.0831
46.4400 30.9290 2.0871
46.4600 30.9423 2.0879
46.4800 30.9556 2.0892
46.5000 30.9689 2.0924
46.5200 30.9822 2.0889
46.5400 30.9955 2.0929
46.5600 31.0089 2.0984
46.5800 31.0222 2.0935
46.6000 31.0355 2.0974
46.6200 31.0489 2.1010
46.6400 31.0622 2.0975
46.6600 31.0756 2.0993
46.6800 31.0890 2.1068
46.7000 31.1023 2.0950
46.7200 31.1156 2.1036
46.7400 31.1289 2.1152
46.7600 31.1423 2.1001
46.7800 31.1556 2.1146
46.8000 31.1690 2.1183
46.8200 31.1823 2.1028
46.8400 31.1956 2.1176
46.8600 31.2089 2.1170
46.8800 31.2222 2.1085
46.9000 31.2356 2.1251
46.9200 31.2489 2.1263
46.9400 31.2622 2.1079
46.9600 31.2756 2.1262
46.9800 31.2889 2.1298
47.0000 31.3022 2.1115
47.0200 31.3156 2.1287
47.0400 31.3290 2.1304
47.0600 31.3423 2.1234
47.0800 31.3556 2.1336
47.1000 31.3689 2.1324
47.1200 31.3823 2.1274
47.1400 31.3956 2.1403
47.1600 31.4089 2.1337
47.1800 31.4222 2.1307
47.2000 31.4356 2.1495
47.2200 31.4489 2.1387
47.2400 31.4622 2.1330
47.2600 31.4755 2.1519
47.2800 31.4889 2.1425
47.3000 31.5022 2.1395
47.3200 31.5156 2.1480
47.3400 31.5289 2.1502
47.3600 31.5422 2.1419
47.3800 31.5556 2.1524
47.4000 31.5689 2.1561
47.4200 31.5823 2.1495
47.4400 31.5956 2.1604
47.4600 31.6089 2.1521
47.4800 31.6223 2.1590
47.5000 31.6356 2.1552
47.5200 31.6489 2.1611
47.5400 31.6623 2.1655
47.5600 31.6756 2.1633
47.5800 31.6890 2.1665
47.6000 31.7023 2.1612
47.6200 31.7156 2.1701
47.6400 31.7289 2.1694
47.6600 31.7422 2.1731
47.6800 31.7555 2.1785
47.7000 31.7688 2.1676
47.7200 31.7822 2.1769
47.7400 31.7956 2.1766
47.7600 31.8090 2.1752
47.7800 31.8223 2.1793
47.8000 31.8356 2.1786
47.8200 31.8490 2.1823
47.8400 31.8623 2.1831
47.8600 31.8757 2.1873
47.8800 31.8890 2.1877
47.9000 31.9023 2.1882
47.9200 31.9156 2.1860
47.9400 31.9289 2.1894
47.9600 31.9422 2.1946
47.9800 31.9555 2.1914
48.0000 31.9688 2.1907
48.0200 31.9822 2.1975
48.0400 31.9955 2.1979
48.0600 32.0089 2.1961
48.0800 32.0222 2.2035
48.1000 32.0356 2.2043
48.1200 32.0490 2.2029
48.1400 32.0623 2.2036
48.1600 32.0757 2.2065
48.1800 32.0890 2.2057
48.2000 32.1023 2.2126
48.2200 32.1157 2.2054
48.2400 32.1290 2.2098
48.2600 32.1422 2.2172
48.2800 32.1556 2.2166
48.3000 32.1689 2.2134
48.3200 32.1822 2.2175
48.3400 32.1955 2.2182
48.3600 32.2089 2.2243
48.3800 32.2222 2.2271
48.4000 32.2356 2.2217
48.4200 32.2489 2.2256
48.4400 32.2622 2.2274
48.4600 32.2756 2.2250
48.4800 32.2889 2.2306
48.5000 32.3023 2.2336
48.5200 32.3156 2.2315
48.5400 32.3289 2.2340
48.5600 32.3423 2.2353
48.5800 32.3556 2.2358
48.6000 32.3690 2.2384
48.6200 32.3823 2.2429
48.6400 32.3956 2.2399
48.6600 32.4089 2.2417
48.6800 32.4223 2.2429
48.7000 32.4355 2.2452
48.7200 32.4488 2.2450
48.7400 32.4622 2.2483
48.7600 32.4756 2.2467
48.7800 32.4889 2.2541
48.8000 32.5022 2.2547
48.8200 32.5156 2.2542
48.8400 32.5290 2.2561
48.8600 32.5423 2.2573
48.8800 32.5556 2.2570
48.9000 32.5689 2.2588
48.9200 32.5823 2.2656
48.9400 32.5956 2.2642
48.9600 32.6089 2.2617
48.9800 32.6222 2.2713
49.0000 32.6356 2.2689
49.0200 32.6489 2.2691
49.0400 32.6623 2.2699
49.0600 32.6756 2.2772
49.0800 32.6889 2.2709
49.1000 32.7022 2.2760
49.1200 32.7156 2.2793
49.1400 32.7289 2.2727
49.1600 32.7422 2.2847
49.1800 32.7556 2.2814
49.2000 32.7690 2.2799
49.2200 32.7823 2.2871
49.2400 32.7956 2.2857
49.2600 32.8089 2.2890
49.2800 32.8223 2.2940
49.3000 32.8357 2.2887
49.3200 32.8490 2.2910
49.3400 32.8623 2.2960
49.3600 32.8756 2.2940
49.3800 32.8889 2.3029
49.4000 32.9023 2.3003
49.4200 32.9156 2.2946
49.4400 32.9289 2.3108
49.4600 32.9422 2.3033
49.4800 32.9556 2.3028
49.5000 32.9689 2.3123
49.5200 32.9822 2.3059
49.5400 32.9956 2.3108
49.5600 33.0089 2.3146
49.5800 33.0223 2.3054
49.6000 33.0356 2.3191
49.6200 33.0489 2.3199
49.6400 33.0623 2.3168
49.6600 33.0756 2.3221
49.6800 33.0890 2.3240
49.7000 33.1023 2.3205
49.7200 33.1156 2.3308
49.7400 33.1289 2.3214
49.7600 33.1423 2.3229
49.7800 33.1555 2.3359
49.8000 33.1688 2.3284
49.8200 33.1821 2.3315
49.8400 33.1955 2.3391
49.8600 33.2088 2.3303
49.8800 33.2222 2.3419
49.9000 33.2356 2.3429
49.9200 33.2490 2.3368
49.9400 33.2623 2.3416
49.9600 33.2757 2.3445
49.9800 33.2890 2.3422
50.0000 33.3023 2.3460
50.0200 33.3157 2.3552
50.0400 33.3290 2.3482
50.0600 33.3422 2.3522
50.0800 33.3555 2.3575
50.1000 33.3689 2.3562
50.1200 33.3822 2.3545
50.1400 33.3955 2.3615
50.1600 33.4088 2.3594
50.1800 33.4222 2.3631
50.2000 33.4356 2.3640
50.2200 33.4489 2.3624
50.2400 33.4622 2.3646
50.2600 33.4756 2.3718
50.2800 33.4890 2.3656
50.3000 33.5023 2.3684
50.3200 33.5156 2.3772
50.3400 33.5289 2.3709
50.3600 33.5423 2.3773
50.3800 33.5556 2.3803
50.4000 33.5689 2.3741
50.4200 33.5823 2.3858
50.4400 33.5956 2.3850
50.4600 33.6089 2.3790
50.4800 33.6223 2.3894
50.5000 33.6356 2.3925
50.5200 33.6489 2.3810
50.5400 33.6622 2.3907
50.5600 33.6756 2.3936
50.5800 33.6889 2.3909
50.6000 33.7023 2.3946
50.6200 33.7156 2.3973
50.6400 33.7290 2.3946
50.6600 33.7423 2.3999
50.6800 33.7556 2.4034
50.7000 33.7689 2.3982
50.7200 33.7823 2.4053
50.7400 33.7956 2.4078
50.7600 33.8090 2.4019
50.7800 33.8223 2.4101
50.8000 33.8356 2.4146
50.8200 33.8489 2.4105
50.8400 33.8623 2.4166
50.8600 33.8756 2.4152
50.8800 33.8889 2.4174
50.9000 33.9022 2.4204
50.9200 33.9156 2.4221
50.9400 33.9289 2.4187
50.9600 33.9422 2.4236
50.9800 33.9556 2.4251
51.0000 33.9689 2.4244
51.0200 33.9823 2.4305
51.0400 33.9956 2.4303
51.0600 34.0090 2.4278
51.0800 34.0223 2.4338
51.1000 34.0356 2.4369
51.1200 34.0490 2.4366
51.1400 34.0623 2.4381
51.1600 34.0756 2.4456
51.1800 34.0889 2.4401
51.2000 34.1023 2.4443
51.2200 34.1156 2.4496
51.2400 34.1289 2.4450
51.2600 34.1422 2.4544
51.2800 34.1556 2.4515
51.3000 34.1689 2.4503
51.3200 34.1822 2.4600
51.3400 34.1955 2.4497
51.3600 34.2089 2.4620
51.3800 34.2223 2.4636
51.4000 34.2356 2.4583
51.4200 34.2489 2.4658
51.4400 34.2623 2.4658
51.4600 34.2756 2.4643
51.4800 34.2890 2.4710
51.5000 34.3023 2.4695
51.5200 34.3156 2.4689
51.5400 34.3289 2.4805
51.5600 34.3422 2.4735
51.5800 34.3556 2.4743
51.6000 34.3689 2.4838
51.6200 34.3822 2.4794
51.6400 34.3955 2.4798
51.6600 34.4089 2.4920
51.6800 34.4222 2.4864
51.7000 34.4356 2.4907
51.7200 34.4490 2.4919
51.7400 34.4623 2.4885
51.7600 34.4757 2.4960
51.7800 34.4890 2.5035
51.8000 34.5023 2.4956
51.8200 34.5157 2.5012
51.8400 34.5290 2.5034
51.8600 34.5423 2.4979
51.8800 34.5556 2.5095
51.9000 34.5689 2.5089
51.9200 34.5823 2.5055
51.9400 34.5956 2.5144
51.9600 34.6089 2.5173
51.9800 34.6222 2.5122
52.0000 34.6355 2.5159
52.0200 34.6489 2.5225
52.0400 34.6622 2.5126
52.0600 34.6755 2.5244
52.0800 34.6889 2.5275
52.1000 34.7023 2.5209
52.1200 34.7157 2.5262
52.1400 34.7290 2.5288
52.1600 34.7423 2.5279
52.1800 34.7556 2.5339
52.2000 34.7690 2.5400
52.2200 34.7823 2.5340
52.2400 34.7956 2.5399
52.2600 34.8089 2.5457
52.2800 34.8222 2.5422
52.3000 34.8356 2.5438
52.3200 34.8489 2.5506
52.3400 34.8622 2.5467
52.3600 34.8756 2.5488
52.3800 34.8889 2.5562
52.4000 34.9023 2.5502
52.4200 34.9156 2.5562
52.4400 34.9290 2.5628
52.4600 34.9423 2.5503
52.4800 34.9556 2.5616
52.5000 34.9689 2.5702
52.5200 34.9822 2.5592
52.5400 34.9956 2.5686
52.5600 35.0090 2.5777
52.5800 35.0223 2.5624
52.6000 35.0356 2.5736
52.6200 35.0490 2.5781
52.6400 35.0623 2.5724
52.6600 35.0756 2.5806
52.6800 35.0889 2.5845
52.7000 35.1022 2.5775
52.7200 35.1155 2.5894
52.7400 35.1289 2.5894
52.7600 35.1422 2.5816
52.7800 35.1555 2.5964
52.8000 35.1689 2.5943
52.8200 35.1823 2.5891
52.8400 35.1956 2.5999
52.8600 35.2089 2.5986
52.8800 35.2223 2.5991
52.9000 35.2356 2.6032
52.9200 35.2490 2.6060
52.9400 35.2623 2.6047
52.9600 35.2756 2.6108
52.9800 35.2890 2.6110
53.0000 35.3023 2.6094
53.0200 35.3156 2.6161
53.0400 35.3289 2.6152
53.0600 35.3422 2.6175
53.0800 35.3555 2.6174
53.1000 35.3689 2.6234
53.1200 35.3822 2.6230
53.1400 35.3955 2.6258
53.1600 35.4089 2.6357
53.1800 35.4223 2.6235
53.2000 35.4356 2.6294
53.2200 35.4490 2.6413
53.2400 35.4623 2.6300
53.2600 35.4756 2.6353
53.2800 35.4890 2.6458
53.3000 35.5023 2.6378
53.3200 35.5156 2.6424
53.3400 35.5289 2.6495
53.3600 35.5423 2.6465
53.3800 35.5556 2.6512
53.4000 35.5689 2.6508
53.4200 35.5822 2.6543
53.4400 35.5956 2.6543
53.4600 35.6089 2.6601
53.4800 35.6223 2.6573
53.5000 35.6356 2.6585
53.5200 35.6489 2.6694
53.5400 35.6623 2.6619
53.5600 35.6756 2.6649
53.5800 35.6890 2.6764
53.6000 35.7023 2.6671
53.6200 35.7156 2.6733
53.6400 35.7290 2.6812
53.6600 35.7423 2.6752
53.6800 35.7556 2.6807
53.7000 35.7689 2.6918
53.7200 35.7823 2.6735
53.7400 35.7956 2.6880
53.7600 35.8089 2.6963
53.7800 35.8222 2.6822
53.8000 35.8355 2.6950
53.8200 35.8489 2.6983
53.8400 35.8622 2.6919
53.8600 35.8756 2.6988
53.8800 35.8889 2.7061
53.9000 35.9023 2.6988
53.9200 35.9157 2.7062
53.9400 35.9290 2.7083
53.9600 35.9423 2.7057
53.9800 35.9556 2.7165
54.0000 35.9690 2.7127
54.0200 35.9823 2.7116
54.0400 35.9956 2.7199
54.0600 36.0089 2.7213
54.0800 36.0222 2.7201
54.1000 36.0356 2.7233
54.1200 36.0489 2.7286
54.1400 36.0622 2.7198
54.1600 36.0755 2.7319
54.1800 36.0889 2.7335
54.2000 36.1022 2.7326
54.2200 36.1156 2.7405
54.2400 36.1289 2.7378
54.2600 36.1423 2.7391
54.2800 36.1556 2.7399
54.3000 36.1689 2.7462
54.3200 36.1823 2.7453
54.3400 36.1956 2.7482
54.3600 36.2090 2.7560
54.3800 36.2223 2.7476
54.4000 36.2356 2.7602
54.4200 36.2489 2.7574
54.4400 36.2622 2.7583
54.4600 36.2756 2.7652
54.4800 36.2889 2.7623
54.5000 36.3022 2.7662
54.5200 36.3155 2.7696
54.5400 36.3289 2.7716
54.5600 36.3423 2.7700
54.5800 36.3556 2.7778
54.6000 36.3689 2.7813
54.6200 36.3823 2.7771
54.6400 36.3956 2.7869
54.6600 36.4089 2.7832
54.6800 36.4222 2.7852
54.7000 36.4356 2.7904
54.7200 36.4490 2.7911
54.7400 36.4623 2.7905
54.7600 36.4756 2.7974
54.7800 36.4890 2.8021
54.8000 36.5023 2.7984
54.8200 36.5157 2.8038
54.8400 36.5289 2.8034
54.8600 36.5422 2.8098
54.8800 36.5555 2.8100
54.9000 36.5689 2.8076
54.9200 36.5822 2.8179
54.9400 36.5955 2.8158
54.9600 36.6089 2.8174
54.9800 36.6223 2.8204
55.0000 36.6357 2.8242
55.0200 36.6490 2.8256
55.0400 36.6623 2.8241
55.0600 36.6757 2.8328
55.0800 36.6890 2.8281
55.1000 36.7023 2.8326
55.1200 36.7156 2.8395
55.1400 36.7289 2.8359
55.1600 36.7422 2.8429
55.1800 36.7556 2.8438
55.2000 36.7689 2.8382
55.2200 36.7822 2.8460
55.2400 36.7955 2.8550
55.2600 36.8089 2.8478
55.2800 36.8222 2.8544
55.3000 36.8355 2.8626
55.3200 36.8489 2.8567
55.3400 36.8623 2.8661
55.3600 36.8757 2.8618
55.3800 36.8890 2.8649
55.4000 36.9023 2.8744
55.4200 36.9156 2.8665
55.4400 36.9290 2.8736
55.4600 36.9423 2.8779
55.4800 36.9556 2.8753
55.5000 36.9689 2.8786
55.5200 36.9822 2.8903
55.5400 36.9956 2.8835
55.5600 37.0089 2.8811
55.5800 37.0222 2.8938
55.6000 37.0355 2.8912
55.6200 37.0489 2.8891
55.6400 37.0622 2.9005
55.6600 37.0756 2.8962
55.6800 37.0889 2.9010
55.7000 37.1023 2.9066
55.7200 37.1156 2.8996
55.7400 37.1290 2.9070
55.7600 37.1423 2.9147
55.7800 37.1556 2.9113
55.8000 37.1690 2.9154
55.8200 37.1823 2.9195
55.8400 37.1956 2.9168
55.8600 37.2089 2.9258
55.8800 37.2223 2.9270
55.9000 37.2356 2.9209
55.9200 37.2489 2.9315
55.9400 37.2622 2.9371
55.9600 37.2755 2.9271
55.9800 37.2889 2.9397
56.0000 37.3022 2.9446
56.0200 37.3156 2.9341
56.0400 37.3289 2.9504
56.0600 37.3423 2.9462
56.0800 37.3557 2.9442
56.1000 37.3690 2.9527
56.1200 37.3823 2.9497
56.1400 37.3956 2.9565
56.1600 37.4090 2.9643
56.1800 37.4223 2.9540
56.2000 37.4356 2.9651
56.2200 37.4489 2.9718
56.2400 37.4622 2.9586
56.2600 37.4756 2.9750
56.2800 37.4889 2.9763
56.3000 37.5022 2.9647
56.3200 37.5156 2.9854
56.3400 37.5289 2.9811
56.3600 37.5422 2.9752
56.3800 37.5555 2.9949
56.4000 37.5689 2.9851
56.4200 37.5822 2.9866
56.4400 37.5956 2.9989
56.4600 37.6090 2.9896
56.4800 37.6223 2.9952
56.5000 37.6356 3.0079
56.5200 37.6490 2.9987
56.5400 37.6623 3.0033
56.5600 37.6756 3.0155
56.5800 37.6889 3.0037
56.6000 37.7023 3.0145
56.6200 37.7156 3.0217
56.6400 37.7289 3.0094
56.6600 37.7422 3.0257
56.6800 37.7556 3.0284
56.7000 37.7689 3.0206
56.7200 37.7822 3.0321
56.7400 37.7956 3.0303
56.7600 37.8089 3.0311
56.7800 37.8222 3.0419
56.8000 37.8356 3.0344
56.8200 37.8489 3.0366
56.8400 37.8623 3.0513
56.8600 37.8756 3.0453
56.8800 37.8889 3.0420
56.9000 37.9023 3.0617
56.9200 37.9156 3.0542
56.9400 37.9289 3.0538
56.9600 37.9423 3.0623
56.9800 37.9556 3.0612
57.0000 37.9689 3.0605
57.0200 37.9822 3.0704
57.0400 37.9955 3.0693
57.0600 38.0088 3.0722
57.0800 38.0222 3.0797
57.1000 38.0355 3.0752
57.1200 38.0489 3.0797
57.1400 38.0622 3.0886
57.1600 38.0756 3.0846
57.1800 38.0890 3.0811
57.2000 38.1023 3.1014
57.2200 38.1157 3.0951
57.2400 38.1290 3.0881
57.2600 38.1423 3.1061
57.2800 38.1556 3.1054
57.3000 38.1689 3.1020
57.3200 38.1822 3.1159
57.3400 38.1955 3.1092
57.3600 38.2089 3.1081
57.3800 38.2222 3.1260
57.4000 38.2355 3.1189
57.4200 38.2489 3.1165
57.4400 38.2623 3.1364
57.4600 38.2756 3.1221
57.4800 38.2889 3.1236
57.5000 38.3023 3.1443
57.5200 38.3157 3.1327
57.5400 38.3290 3.1335
57.5600 38.3423 3.1443
57.5800 38.3556 3.1403
57.6000 38.3690 3.1423
57.6200 38.3823 3.1544
57.6400 38.3956 3.1512
57.6600 38.4089 3.1532
57.6800 38.4222 3.1620
57.7000 38.4356 3.1565
57.7200 38.4489 3.1614
57.7400 38.4622 3.1716
57.7600 38.4755 3.1694
57.7800 38.4889 3.1721
57.8000 38.5022 3.1730
57.8200 38.5156 3.1784
57.8400 38.5289 3.1814
57.8600 38.5423 3.1834
57.8800 38.5556 3.1858
57.9000 38.5690 3.1894
57.9200 38.5823 3.1888
57.9400 38.5956 3.2015
57.9600 38.6089 3.1983
57.9800 38.6223 3.1940
58.0000 38.6356 3.2026
58.0200 38.6489 3.2065
58.0400 38.6622 3.2109
58.0600 38.6756 3.2105
58.0800 38.6889 3.2101
58.1000 38.7022 3.2186
58.1200 38.7155 3.2210
58.1400 38.7289 3.2197
58.1600 38.7422 3.2285
58.1800 38.7556 3.2297
58.2000 38.7689 3.2267
58.2200 38.7822 3.2367
58.2400 38.7956 3.2392
58.2600 38.8090 3.2389
58.2800 38.8223 3.2449
58.3000 38.8356 3.2436
58.3200 38.8490 3.2454
58.3400 38.8623 3.2564
58.3600 38.8756 3.2553
58.3800 38.8889 3.2577
58.4000 38.9022 3.2638
58.4200 38.9156 3.2652
58.4400 38.9289 3.2676
58.4600 38.9422 3.2721
58.4800 38.9556 3.2744
58.5000 38.9689 3.2761
58.5200 38.9823 3.2798
58.5400 38.9956 3.2804
58.5600 39.0089 3.2810
58.5800 39.0222 3.2912
58.6000 39.0356 3.2915
58.6200 39.0490 3.2890
58.6400 39.0623 3.3006
58.6600 39.0756 3.2989
58.6800 39.0890 3.3018
58.7000 39.1023 3.3033
58.7200 39.1156 3.3107
58.7400 39.1289 3.3111
58.7600 39.1422 3.3145
58.7800 39.1556 3.3199
58.8000 39.1689 3.3187
58.8200 39.1822 3.3257
58.8400 39.1955 3.3331
58.8600 39.2089 3.3278
58.8800 39.2222 3.3299
58.9000 39.2356 3.3381
58.9200 39.2489 3.3395
58.9400 39.2623 3.3392
58.9600 39.2756 3.3471
58.9800 39.2890 3.3466
59.0000 39.3023 3.3474
59.0200 39.3156 3.3539
59.0400 39.3290 3.3613
59.0600 39.3423 3.3596
59.0800 39.3557 3.3644
59.1000 39.3689 3.3644
59.1200 39.3822 3.3708
59.1400 39.3956 3.3745
59.1600 39.4089 3.3723
59.1800 39.4222 3.3813
59.2000 39.4355 3.3836
59.2200 39.4489 3.3865
59.2400 39.4622 3.3883
59.2600 39.4756 3.3942
59.2800 39.4889 3.3969
59.3000 39.5022 3.3977
59.3200 39.5156 3.4024
59.3400 39.5290 3.4032
59.3600 39.5423 3.4018
59.3800 39.5556 3.4109
59.4000 39.5690 3.4171
59.4200 39.5823 3.4147
59.4400 39.5956 3.4172
59.4600 39.6089 3.4261
59.4800 39.6222 3.4296
59.5000 39.6355 3.4257
59.5200 39.6489 3.4298
59.5400 39.6622 3.4413
59.5600 39.6755 3.4303
59.5800 39.6889 3.4433
59.6000 39.7023 3.4470
59.6200 39.7156 3.4408
59.6400 39.7289 3.4526
59.6600 39.7423 3.4532
59.6800 39.7556 3.4555
59.7000 39.7690 3.4626
59.7200 39.7823 3.4618
59.7400 39.7956 3.4641
59.7600 39.8089 3.4696
59.7800 39.8223 3.4736
59.8000 39.8356 3.4747
59.8200 39.8490 3.4805
59.8400 39.8623 3.4821
59.8600 39.8756 3.4888
59.8800 39.8890 3.4889
59.9000 39.9023 3.4913
59.9200 39.9156 3.4944
59.9400 39.9289 3.5000
59.9600 39.9422 3.5003
59.9800 39.9556 3.5031
60.0000 39.9689 3.5111
60.0200 39.9822 3.5054
60.0400 39.9956 3.5107
60.0470 40.0001 3.5024
60.0480 40.0008 3.5001
60.0490 40.0014 3.4977
60.0690 40.0119 3.4119
60.0890 40.0140 3.3487
60.1090 40.0057 3.4497
60.1290 39.9928 3.5204
60.1490 39.9799 3.4820
60.1690 39.9671 3.4628
60.1890 39.9536 3.4717
60.2090 39.9396 3.4563
60.2290 39.9256 3.4523
60.2490 39.9118 3.4543
60.2690 39.8983 3.4281
60.2890 39.8850 3.4328
60.3090 39.8717 3.4198
60.3290 39.8584 3.4086
60.3490 39.8451 3.4083
60.3690 39.8317 3.4009
60.3890 39.8183 3.3899
60.4090 39.8050 3.3885
60.4290 39.7916 3.3765
60.4490 39.7782 3.3649
60.4690 39.7649 3.3702
60.4890 39.7516 3.3555
60.5090 39.7383 3.3469
60.5290 39.7249 3.3418
60.5490 39.7115 3.3421
60.5690 39.6982 3.3324
60.5890 39.6849 3.3174
60.6090 39.6716 3.3233
60.6290 39.6582 3.3154
60.6490 39.6449 3.2987
60.6690 39.6316 3.3103
60.6890 39.6183 3.2910
60.7090 39.6050 3.2783
60.7290 39.5916 3.2924
60.7490 39.5783 3.2720
60.7690 39.5650 3.2643
60.7890 39.5516 3.2718
60.8090 39.5383 3.2496
60.8290 39.5249 3.2476
60.8490 39.5116 3.2554
60.8690 39.4982 3.2299
60.8890 39.4849 3.2297
60.9090 39.4715 3.2424
60.9290 39.4582 3.2123
60.9490 39.4449 3.2187
60.9690 39.4316 3.2203
60.9890 39.4183 3.1954
61.0090 39.4049 3.2044
61.0290 39.3916 3.2053
61.0490 39.3783 3.1785
61.0690 39.3650 3.1876
61.0890 39.3516 3.1920
61.1090 39.3383 3.1663
61.1290 39.3250 3.1695
61.1490 39.3116 3.1694
61.1690 39.2982 3.1444
61.1890 39.2849 3.1603
61.2090 39.2715 3.1522
61.2290 39.2582 3.1316
61.2490 39.2449 3.1403
61.2690 39.2316 3.1358
61.2890 39.2182 3.1179
61.3090 39.2049 3.1264
61.3290 39.1916 3.1220
61.3490 39.1782 3.1023
61.3690 39.1649 3.1107
61.3890 39.1516 3.1032
61.4090 39.1383 3.0877
61.4290 39.1250 3.0969
61.4490 39.1116 3.0897
61.4690 39.0982 3.0709
61.4890 39.0849 3.0798
61.5090 39.0716 3.0753
61.5290 39.0582 3.0607
61.5490 39.0448 3.0643
61.5690 39.0315 3.0615
61.5890 39.0182 3.0418
61.6090 39.0049 3.0500
61.6290 38.9915 3.0474
61.6490 38.9782 3.0288
61.6690 38.9649 3.0377
61.6890 38.9516 3.0319
61.7090 38.9382 3.0144
61.7290 38.9249 3.0201
61.7490 38.9116 3.0183
61.7690 38.8983 3.0034
61.7890 38.8849 3.0041
61.8090 38.8716 3.0017
61.8290 38.8582 2.9918
61.8490 38.8449 2.9919
61.8690 38.8316 2.9854
61.8890 38.8182 2.9801
61.9090 38.8049 2.9776
61.9290 38.7915 2.9744
61.9490 38.7782 2.9665
61.9690 38.7649 2.9653
61.9890 38.7515 2.9611
62.0090 38.7382 2.9535
62.0290 38.7249 2.9533
62.0490 38.7116 2.9480
62.0690 38.6983 2.9364
62.0890 38.6849 2.9388
62.1090 38.6716 2.9330
62.1290 38.6583 2.9282
62.1490 38.6449 2.9265
62.1690 38.6316 2.9222
62.1890 38.6182 2.9148
62.2090 38.6049 2.9112
62.2290 38.5916 2.9082
62.2490 38.5782 2.8986
62.2690 38.5649 2.9007
62.2890 38.5516 2.8987
62.3090 38.5382 2.8888
62.3290 38.5249 2.8862
62.3490 38.5116 2.8849
62.3690 38.4982 2.8757
62.3890 38.4849 2.8779
62.4090 38.4716 2.8729
62.4290 38.4582 2.8627
62.4490 38.4449 2.8647
62.4690 38.4315 2.8609
62.4890 38.4183 2.8477
62.5090 38.4049 2.8498
62.5290 38.3916 2.8541
62.5490 38.3783 2.8400
62.5690 38.3649 2.8339
62.5890 38.3516 2.8419
62.6090 38.3383 2.8251
62.6290 38.3249 2.8241
62.6490 38.3115 2.8299
62.6690 38.2982 2.8156
62.6890 38.2849 2.8118
62.7090 38.2715 2.8156
62.7290 38.2581 2.8077
62.7490 38.2448 2.8030
62.7690 38.2315 2.8039
62.7890 38.2182 2.7922
62.8090 38.2049 2.7898
62.8290 38.1915 2.7965
62.8490 38.1782 2.7811
62.8690 38.1649 2.7785
62.8890 38.1516 2.7825
62.9090 38.1382 2.7716
62.9290 38.1249 2.7699
62.9490 38.1116 2.7677
62.9690 38.0982 2.7589
62.9890 38.0849 2.7546
63.0090 38.0715 2.7550
63.0290 38.0582 2.7503
63.0490 38.0448 2.7440
63.0690 38.0315 2.7415
63.0890 38.0181 2.7373
63.1090 38.0048 2.7374
63.1290 37.9915 2.7310
63.1490 37.9782 2.7275
63.1690 37.9649 2.7273
63.1890 37.9516 2.7203
63.2090 37.9383 2.7145
63.2290 37.9250 2.7127
63.2490 37.9116 2.7127
63.2690 37.8983 2.7062
63.2890 37.8849 2.7013
63.3090 37.8716 2.6973
63.3290 37.8582 2.6936
63.3490 37.8449 2.6945
63.3690 37.8315 2.6908
63.3890 37.8182 2.6803
63.4090 37.8049 2.6833
63.4290 37.7915 2.6787
63.4490 37.7782 2.6695
63.4690 37.7648 2.6802
63.4890 37.7515 2.6703
63.5090 37.7382 2.6597
63.5290 37.7249 2.6666
63.5490 37.7116 2.6569
63.5690 37.6983 2.6526
63.5890 37.6850 2.6528
63.6090 37.6716 2.6505
63.6290 37.6583 2.6460
63.6490 37.6449 2.6480
63.6690 37.6316 2.6342
63.6890 37.6183 2.6336
63.7090 37.6049 2.6390
63.7290 37.5915 2.6234
63.7490 37.5782 2.6240
63.7690 37.5649 2.6212
63.7890 37.5515 2.6161
63.8090 37.5382 2.6174
63.8290 37.5248 2.6147
63.8490 37.5115 2.6064
63.8690 37.4982 2.6073
63.8890 37.4849 2.6062
63.9090 37.4716 2.5945
63.9290 37.4583 2.6012
63.9490 37.4449 2.5939
63.9690 37.4316 2.5842
63.9890 37.4182 2.5952
64.0090 37.4049 2.5802
64.0290 37.3916 2.5799
64.0490 37.3783 2.5795
64.0690 37.3649 2.5658
64.0890 37.3515 2.5769
64.1090 37.3382 2.5726
64.1290 37.3249 2.5618
64.1490 37.3115 2.5662
64.1690 37.2982 2.5587
64.1890 37.2848 2.5523
64.2090 37.2715 2.5537
64.2290 37.2582 2.5492
64.2490 37.2449 2.5442
64.2690 37.2315 2.5471
64.2890 37.2183 2.5391
64.3090 37.2049 2.5361
64.3290 37.1916 2.5341
64.3490 37.1782 2.5333
64.3690 37.1649 2.5315
64.3890 37.1516 2.5208
64.4090 37.1383 2.5277
64.4290 37.1249 2.5195
64.4490 37.1115 2.5150
64.4690 37.0982 2.5214
64.4890 37.0849 2.5058
64.5090 37.0716 2.5052
64.5290 37.0582 2.5088
64.5490 37.0448 2.4996
64.5690 37.0315 2.4982
64.5890 37.0182 2.4992
64.6090 37.0048 2.4886
64.6290 36.9915 2.4913
64.6490 36.9782 2.4916
64.6690 36.9649 2.4793
64.6890 36.9516 2.4858
64.7090 36.9383 2.4846
64.7290 36.9249 2.4733
64.7490 36.9116 2.4777
64.7690 36.8983 2.4669
64.7890 36.8849 2.4665
64.8090 36.8715 2.4699
64.8290 36.8582 2.4575
64.8490 36.8449 2.4613
64.8690 36.8315 2.4566
64.8890 36.8181 2.4542
64.9090 36.8048 2.4585
64.9290 36.7915 2.4459
64.9490 36.7782 2.4467
64.9690 36.7649 2.4472
64.9890 36.7516 2.4364
65.0090 36.7383 2.4429
65.0290 36.7250 2.4324
65.0490 36.7116 2.4305
65.0690 36.6983 2.4342
65.0890 36.6849 2.4270
65.1090 36.6716 2.4199
65.1290 36.6583 2.4272
65.1490 36.6449 2.4173
65.1690 36.6315 2.4126
65.1890 36.6182 2.4200
65.2090 36.6049 2.4084
65.2290 36.5915 2.4034
65.2490 36.5782 2.4101
65.2690 36.5648 2.4050
65.2890 36.5515 2.3926
65.3090 36.5382 2.4028
65.3290 36.5249 2.3971
65.3490 36.5116 2.3884
65.3690 36.4983 2.3986
65.3890 36.4850 2.3849
65.4090 36.4716 2.3822
65.4290 36.4583 2.3922
65.4490 36.4449 2.3782
65.4690 36.4316 2.3737
65.4890 36.4182 2.3785
65.5090 36.4049 2.3728
65.5290 36.3915 2.3680
65.5490 36.3782 2.3727
65.5690 36.3649 2.3618
65.5890 36.3516 2.3599
65.6090 36.3382 2.3630
65.6290 36.3249 2.3520
65.6490 36.3116 2.3586
65.6690 36.2982 2.3536
65.6890 36.2849 2.3508
65.7090 36.2715 2.3482
65.7290 36.2582 2.3455
65.7490 36.2449 2.3402
65.7690 36.2316 2.3403
65.7890 36.2182 2.3370
65.8090 36.2049 2.3337
65.8290 36.1916 2.3366
65.8490 36.1782 2.3262
65.8690 36.1649 2.3292
65.8890 36.1515 2.3254
65.9090 36.1381 2.3194
65.9290 36.1249 2.3210
65.9490 36.1116 2.3168
65.9690 36.0982 2.3109
65.9890 36.0849 2.3164
66.0090 36.0715 2.3087
66.0290 36.0582 2.3026
66.0490 36.0449 2.3108
66.0690 36.0316 2.3009
66.0890 36.0182 2.2973
66.1090 36.0049 2.3019
66.1290 35.9916 2.2912
66.1490 35.9782 2.2924
66.1690 35.9649 2.2957
66.1890 35.9516 2.2837
66.2090 35.9383 2.2849
66.2290 35.9249 2.2838
66.2490 35.9115 2.2768
66.2690 35.8982 2.2802
66.2890 35.8849 2.2775
66.3090 35.8715 2.2714
66.3290 35.8582 2.2738
66.3490 35.8448 2.2717
66.3690 35.8315 2.2645
66.3890 35.8182 2.2661
66.4090 35.8049 2.2641
66.4290 35.7916 2.2604
66.4490 35.7782 2.2608
66.4690 35.7650 2.2552
66.4890 35.7516 2.2536
66.5090 35.7383 2.2514
66.5290 35.7249 2.2511
66.5490 35.7116 2.2508
66.5690 35.6983 2.2446
66.5890 35.6849 2.2385
66.6090 35.6715 2.2401
66.6290 35.6582 2.2403
66.6490 35.6449 2.2327
66.6690 35.6315 2.2302
66.6890 35.6182 2.2352
66.7090 35.6048 2.2216
66.7290 35.5915 2.2283
66.7490 35.5782 2.2272
66.7690 35.5649 2.2160
66.7890 35.5516 2.2265
66.8090 35.5382 2.2198
66.8290 35.5250 2.2059
66.8490 35.5116 2.2207
66.8690 35.4983 2.2090
66.8890 35.4849 2.2102
66.9090 35.4716 2.2140
66.9290 35.4583 2.1990
66.9490 35.4449 2.1995
66.9690 35.4315 2.2092
66.9890 35.4181 2.1907
67.0090 35.4048 2.1987
67.0290 35.3915 2.1965
67.0490 35.3782 2.1849
67.0690 35.3648 2.1947
67.0890 35.3515 2.1881
67.1090 35.3382 2.1789
67.1290 35.3249 2.1889
67.1490 35.3116 2.1819
67.1690 35.2983 2.1753
67.1890 35.2850 2.1839
67.2090 35.2716 2.1729
67.2290 35.2583 2.1677
67.2490 35.2449 2.1790
67.2690 35.2316 2.1666
67.2890 35.2182 2.1645
67.3090 35.2049 2.1719
67.3290 35.1915 2.1551
67.3490 35.1782 2.1609
67.3690 35.1649 2.1639
67.3890 35.1516 2.1527
67.4090 35.1382 2.1510
67.4290 35.1249 2.1560
67.4490 35.1115 2.1474
67.4690 35.0982 2.1433
67.4890 35.0849 2.1500
67.5090 35.0715 2.1439
67.5290 35.0582 2.1402
67.5490 35.0449 2.1397
67.5690 35.0316 2.1327
67.5890 35.0183 2.1352
67.6090 35.0049 2.1357
67.6290 34.9916 2.1332
67.6490 34.9783 2.1241
67.6690 34.9649 2.1263
67.6890 34.9515 2.1311
67.7090 34.9382 2.1206
67.7290 34.9249 2.1199
67.7490 34.9116 2.1244
67.7690 34.8982 2.1109
67.7890 34.8849 2.1187
67.8090 34.8715 2.1189
67.8290 34.8582 2.1052
67.8490 34.8449 2.1136
67.8690 34.8315 2.1074
67.8890 34.8182 2.1015
67.9090 34.8049 2.1087
67.9290 34.7916 2.1011
67.9490 34.7783 2.0957
67.9690 34.7649 2.1013
67.9890 34.7516 2.0938
68.0090 34.7383 2.0940
68.0290 34.7249 2.0958
68.0490 34.7116 2.0859
68.0690 34.6982 2.0899
68.0890 34.6849 2.0898
68.1090 34.6716 2.0782
68.1290 34.6582 2.0824
68.1490 34.6448 2.0886
68.1690 34.6315 2.0744
68.1890 34.6182 2.0768
68.2090 34.6049 2.0806
68.2290 34.5915 2.0680
68.2490 34.5782 2.0742
68.2690 34.5649 2.0705
68.2890 34.5516 2.0651
68.3090 34.5382 2.0701
68.3290 34.5249 2.0619
68.3490 34.5116 2.0631
68.3690 34.4983 2.0635
68.3890 34.4849 2.0516
68.4090 34.4715 2.0611
68.4290 34.4582 2.0567
68.4490 34.4448 2.0503
68.4690 34.4315 2.0529
68.4890 34.4182 2.0511
68.5090 34.4048 2.0433
68.5290 34.3915 2.0544
68.5490 34.3782 2.0410
68.5690 34.3649 2.0387
68.5890 34.3515 2.0447
68.6090 34.3382 2.0359
68.6290 34.3249 2.0337
68.6490 34.3116 2.0366
68.6690 34.2982 2.0311
68.6890 34.2849 2.0284
68.7090 34.2716 2.0347
68.7290 34.2582 2.0272
68.7490 34.2449 2.0222
68.7690 34.2315 2.0290
68.7890 34.2181 2.0243
68.8090 34.2048 2.0167
68.8290 34.1916 2.0235
68.8490 34.1782 2.0116
68.8690 34.1649 2.0133
68.8890 34.1516 2.0177
68.9090 34.1382 2.0116
68.9290 34.1249 2.0040
68.9490 34.1116 2.0136
68.9690 34.0982 2.0036
68.9890 34.0849 1.9961
69.0090 34.0716 2.0094
69.0290 34.0583 1.9976
69.0490 34.0449 1.9915
69.0690 34.0316 2.0059
69.0890 34.0183 1.9901
69.1090 34.0049 1.9880
69.1290 33.9916 1.9979
69.1490 33.9782 1.9855
69.1690 33.9649 1.9827
69.1890 33.9515 1.9904
69.2090 33.9382 1.9789
69.2290 33.9249 1.9786
69.2490 33.9115 1.9892
69.2690 33.8982 1.9719
69.2890 33.8849 1.9723
69.3090 33.8716 1.9832
69.3290 33.8583 1.9690
69.3490 33.8449 1.9702
69.3690 33.8316 1.9764
69.3890 33.8183 1.9628
69.4090 33.8049 1.9633
69.4290 33.7915 1.9723
69.4490 33.7782 1.9592
69.4690 33.7649 1.9561
69.4890 33.7516 1.9649
69.5090 33.7382 1.9552
69.5290 33.7249 1.9524
69.5490 33.7116 1.9607
69.5690 33.6982 1.9457
69.5890 33.6849 1.9436
69.6090 33.6715 1.9609
69.6290 33.6582 1.9369
69.6490 33.6449 1.9417
69.6690 33.6315 1.9536
69.6890 33.6182 1.9384
69.7090 33.6049 1.9352
69.7290 33.5916 1.9490
69.7490 33.5783 1.9374
69.7690 33.5649 1.9297
69.7890 33.5516 1.9416
69.8090 33.5383 1.9334
69.8290 33.5249 1.9221
69.8490 33.5116 1.9384
69.8690 33.4982 1.9232
69.8890 33.4849 1.9211
69.9090 33.4715 1.9342
69.9290 33.4582 1.9171
69.9490 33.4448 1.9172
69.9690 33.4315 1.9292
69.9890 33.4182 1.9158
70.0090 33.4049 1.9099
70.0290 33.3916 1.9186
70.0490 33.3782 1.9087
70.0690 33.3649 1.9090
70.0890 33.3516 1.9184
70.1090 33.3383 1.9003
70.1290 33.3249 1.9017
70.1490 33.3116 1.9149
70.1690 33.2983 1.9004
70.1890 33.2850 1.8988
70.2090 33.2716 1.9111
70.2290 33.2582 1.8926
70.2490 33.2448 1.8873
70.2690 33.2315 1.9053
70.2890 33.2182 1.8905
70.3090 33.2048 1.8865
70.3290 33.1915 1.8987
70.3490 33.1782 1.8874
70.3690 33.1649 1.8799
70.3890 33.1516 1.8937
70.4090 33.1382 1.8844
70.4290 33.1250 1.8753
70.4490 33.1117 1.8864
70.4690 33.0983 1.8793
70.4890 33.0849 1.8689
70.5090 33.0716 1.8837
70.5290 33.0582 1.8781
70.5490 33.0449 1.8649
70.5690 33.0316 1.8765
70.5890 33.0182 1.8739
70.6090 33.0048 1.8643
70.6290 32.9915 1.8746
70.6490 32.9782 1.8628
70.6690 32.9648 1.8596
70.6890 32.9515 1.8689
70.7090 32.9382 1.8602
70.7290 32.9249 1.8566
70.7490 32.9115 1.8633
70.7690 32.8982 1.8583
70.7890 32.8849 1.8490
70.8090 32.8716 1.8569
70.8290 32.8583 1.8539
70.8490 32.8449 1.8460
70.8690 32.8316 1.8552
70.8890 32.8183 1.8470
70.9090 32.8049 1.8400
70.9290 32.7915 1.8477
70.9490 32.7782 1.8445
70.9690 32.7648 1.8373
70.9890 32.7515 1.8422
71.0090 32.7382 1.8330
71.0290 32.7248 1.8359
71.0490 32.7115 1.8439
71.0690 32.6982 1.8320
71.0890 32.6849 1.8338
71.1090 32.6716 1.8323
71.1290 32.6582 1.8243
71.1490 32.6449 1.8316
71.1690 32.6316 1.8282
71.1890 32.6183 1.8214
71.2090 32.6049 1.8257
71.2290 32.5916 1.8196
71.2490 32.5783 1.8209
71.2690 32.5649 1.8191
71.2890 32.5516 1.8145
71.3090 32.5382 1.8189
71.3290 32.5249 1.8161
71.3490 32.5116 1.8034
71.3690 32.4982 1.8151
71.3890 32.4849 1.8095
71.4090 32.4715 1.8014
71.4290 32.4582 1.8148
71.4490 32.4449 1.8062
71.4690 32.4316 1.7963
71.4890 32.4182 1.8107
71.5090 32.4049 1.7996
71.5290 32.3916 1.7940
71.5490 32.3783 1.8044
71.5690 32.3649 1.7929
71.5890 32.3516 1.7946
71.6090 32.3382 1.8019
71.6290 32.3249 1.7849
71.6490 32.3116 1.7900
71.6690 32.2982 1.7976
71.6890 32.2849 1.7836
71.7090 32.2716 1.7843
71.7290 32.2583 1.7895
71.7490 32.2449 1.7790
71.7690 32.2315 1.7819
71.7890 32.2182 1.7831
71.8090 32.2049 1.7768
71.8290 32.1915 1.7728
71.8490 32.1782 1.7801
71.8690 32.1649 1.7763
71.8890 32.1516 1.7645
71.9090 32.1383 1.7813
71.9290 32.1249 1.7711
71.9490 32.1116 1.7628
71.9690 32.0983 1.7790
71.9890 32.0850 1.7670
72.0090 32.0716 1.7577
72.0290 32.0582 1.7745
72.0490 32.0448 1.7607
72.0690 32.0315 1.7550
72.0890 32.0182 1.7643
72.1090 32.0048 1.7569
72.1290 31.9915 1.7522
72.1490 31.9782 1.7630
72.1690 31.9649 1.7502
72.1890 31.9516 1.7485
72.2090 31.9382 1.7585
72.2290 31.9249 1.7467
72.2490 31.9116 1.7456
72.2690 31.8983 1.7535
72.2890 31.8849 1.7435
72.3090 31.8716 1.7420
72.3290 31.8582 1.7466
72.3490 31.8449 1.7387
72.3690 31.8316 1.7387
72.3890 31.8182 1.7454
72.4090 31.8048 1.7368
72.4290 31.7915 1.7347
72.4490 31.7782 1.7403
72.4690 31.7649 1.7324
72.4890 31.7515 1.7267
72.5090 31.7382 1.7377
72.5290 31.7249 1.7320
72.5490 31.7116 1.7218
72.5690 31.6982 1.7331
72.5890 31.6849 1.7303
72.6090 31.6716 1.7154
72.6290 31.6583 1.7294
72.6490 31.6449 1.7233
72.6690 31.6315 1.7139
72.6890 31.6182 1.7285
72.7090 31.6049 1.7209
72.7290 31.5915 1.7090
72.7490 31.5782 1.7193
72.7690 31.5648 1.7182
72.7890 31.5515 1.7075
72.8090 31.5382 1.7155
72.8290 31.5249 1.7097
72.8490 31.5115 1.7081
72.8690 31.4982 1.7121
72.8890 31.4849 1.7065
72.9090 31.4716 1.7020
72.9290 31.4582 1.7127
72.9490 31.4449 1.7028
72.9690 31.4316 1.7015
72.9890 31.4183 1.7028
73.0090 31.4049 1.6975
73.0290 31.3916 1.6985
73.0490 31.3782 1.7006
73.0690 31.3649 1.6929
73.0890 31.3516 1.6960
73.1090 31.3382 1.6920
73.1290 31.3248 1.6906
73.1490 31.3115 1.6945
73.1690 31.2982 1.6879
73.1890 31.2849 1.6843
73.2090 31.2715 1.6885
73.2290 31.2582 1.6834
73.2490 31.2449 1.6828
73.2690 31.2316 1.6861
73.2890 31.2182 1.6773
73.3090 31.2049 1.6789
73.3290 31.1916 1.6837
73.3490 31.1783 1.6730
73.3690 31.1649 1.6754
73.3890 31.1516 1.6759
73.4090 31.1382 1.6730
73.4290 31.1249 1.6736
73.4490 31.1116 1.6696
73.4690 31.0982 1.6711
73.4890 31.0848 1.6687
73.5090 31.0715 1.6647
73.5290 31.0582 1.6701
73.5490 31.0449 1.6600
73.5690 31.0315 1.6592
73.5890 31.0182 1.6705
73.6090 31.0049 1.6558
73.6290 30.9915 1.6591
73.6490 30.9782 1.6665
73.6690 30.9649 1.6518
73.6890 30.9516 1.6542
73.7090 30.9383 1.6600
73.7290 30.9250 1.6466
73.7490 30.9116 1.6559
73.7690 30.8982 1.6578
73.7890 30.8849 1.6456
73.8090 30.8716 1.6485
73.8290 30.8582 1.6533
73.8490 30.8448 1.6411
73.8690 30.8315 1.6485
73.8890 30.8182 1.6453
73.9090 30.8049 1.6395
73.9290 30.7915 1.6476
73.9490 30.7781 1.6406
73.9690 30.7649 1.6374
73.9890 30.7516 1.6409
74.0090 30.7382 1.6361
74.0290 30.7249 1.6401
74.0490 30.7116 1.6310
74.0690 30.6983 1.6316
74.0890 30.6849 1.6386
74.1090 30.6716 1.6266
74.1290 30.6583 1.6283
74.1490 30.6449 1.6316
74.1690 30.6316 1.6212
74.1890 30.6182 1.6218
74.2090 30.6048 1.6320
74.2290 30.5915 1.6197
74.2490 30.5782 1.6222
74.2690 30.5649 1.6249
74.2890 30.5515 1.6153
74.3090 30.5382 1.6250
74.3290 30.5249 1.6168
74.3490 30.5116 1.6122
74.3690 30.4983 1.6225
74.3890 30.4849 1.6109
74.4090 30.4716 1.6149
74.4290 30.4583 1.6176
74.4490 30.4450 1.6036
74.4690 30.4316 1.6110
74.4890 30.4182 1.6154
74.5090 30.4049 1.5987
74.5290 30.3916 1.6123
74.5490 30.3782 1.6069
74.5690 30.3649 1.5970
74.5890 30.3515 1.6067
74.6090 30.3382 1.5986
74.6290 30.3249 1.5961
74.6490 30.3115 1.6079
74.6690 30.2982 1.5939
74.6890 30.2849 1.5907
74.7090 30.2716 1.6025
74.7290 30.2582 1.5916
74.7490 30.2449 1.5920
74.7690 30.2316 1.5974
74.7890 30.2183 1.5853
74.8090 30.2049 1.5926
74.8290 30.1916 1.5916
74.8490 30.1782 1.5824
74.8690 30.1649 1.5923
74.8890 30.1516 1.5832
74.9090 30.1382 1.5832
74.9290 30.1248 1.5854
74.9490 30.1115 1.5821
74.9690 30.0982 1.5824
74.9890 30.0849 1.5798
75.0090 30.0715 1.5762
75.0290 30.0582 1.5780
75.0490 30.0449 1.5765
75.0690 30.0316 1.5717
75.0890 30.0182 1.5746
75.1090 30.0048 1.5721
75.1290 29.9915 1.5725
75.1490 29.9782 1.5717
75.1690 29.9649 1.5636
75.1890 29.9516 1.5705
75.2090 29.9382 1.5684
75.2290 29.9249 1.5627
75.2490 29.9116 1.5655
75.2690 29.8983 1.5643
75.2890 29.8849 1.5559
75.3090 29.8715 1.5629
75.3290 29.8582 1.5573
75.3490 29.8449 1.5571
75.3690 29.8315 1.5646
75.3890 29.8182 1.5575
75.4090 29.8049 1.5541
75.4290 29.7916 1.5579
75.4490 29.7782 1.5491
75.4690 29.7649 1.5515
75.4890 29.7516 1.5567
75.5090 29.7383 1.5467
75.5290 29.7250 1.5513
75.5490 29.7116 1.5532
75.5690 29.6982 1.5405
75.5890 29.6849 1.5480
75.6090 29.6716 1.5494
75.6290 29.6582 1.5367
75.6490 29.6449 1.5433
75.6690 29.6315 1.5473
75.6890 29.6182 1.5381
75.7090 29.6049 1.5400
75.7290 29.5915 1.5432
75.7490 29.5782 1.5341
75.7690 29.5648 1.5370
75.7890 29.5515 1.5372
75.8090 29.5382 1.5300
75.8290 29.5249 1.5351
75.8490 29.5116 1.5360
75.8690 29.4983 1.5306
75.8890 29.4849 1.5296
75.9090 29.4716 1.5344
75.9290 29.4582 1.5282
75.9490 29.4449 1.5248
75.9690 29.4316 1.5270
75.9890 29.4182 1.5231
76.0090 29.4048 1.5221
76.0290 29.3915 1.5223
76.0490 29.3782 1.5198
76.0690 29.3649 1.5187
76.0890 29.3516 1.5176
76.1090 29.3382 1.5176
76.1290 29.3249 1.5174
76.1490 29.3116 1.5183
76.1690 29.2982 1.5165
76.1890 29.2849 1.5072
76.2090 29.2716 1.5149
76.2290 29.2583 1.5149
76.2490 29.2449 1.5040
76.2690 29.2316 1.5127
76.2890 29.2182 1.5143
76.3090 29.2049 1.4968
76.3290 29.1916 1.5090
76.3490 29.1782 1.5103
76.3690 29.1649 1.4957
76.3890 29.1515 1.5103
76.4090 29.1382 1.5046
76.4290 29.1249 1.4949
76.4490 29.1115 1.5044
76.4690 29.0982 1.5056
76.4890 29.0849 1.4918
76.5090 29.0716 1.4988
76.5290 29.0583 1.5002
76.5490 29.0449 1.4908
76.5690 29.0316 1.4980
76.5890 29.0183 1.4935
76.6090 29.0049 1.4898
76.6290 28.9916 1.4947
76.6490 28.9782 1.4879
76.6690 28.9649 1.4923
76.6890 28.9516 1.4897
76.7090 28.9382 1.4857
76.7290 28.9249 1.4838
76.7490 28.9115 1.4852
76.7690 28.8982 1.4879
76.7890 28.8849 1.4794
76.8090 28.8716 1.4743
76.8290 28.8582 1.4879
76.8490 28.8449 1.4763
76.8690 28.8316 1.4726
76.8890 28.8182 1.4835
76.9090 28.8049 1.4759
76.9290 28.7915 1.4738
76.9490 28.7782 1.4828
76.9690 28.7649 1.4689
76.9890 28.7516 1.4705
77.0090 28.7383 1.4756
77.0290 28.7249 1.4675
77.0490 28.7116 1.4742
77.0690 28.6983 1.4728
77.0890 28.6849 1.4620
77.1090 28.6715 1.4700
77.1290 28.6582 1.4681
77.1490 28.6449 1.4629
77.1690 28.6315 1.4687
77.1890 28.6182 1.4618
77.2090 28.6049 1.4604
77.2290 28.5915 1.4646
77.2490 28.5782 1.4584
77.2690 28.5649 1.4553
77.2890 28.5515 1.4624
77.3090 28.5382 1.4573
77.3290 28.5249 1.4539
77.3490 28.5116 1.4575
77.3690 28.4982 1.4542
77.3890 28.4849 1.4546
77.4090 28.4716 1.4532
77.4290 28.4583 1.4502
77.4490 28.4449 1.4471
77.4690 28.4315 1.4492
77.4890 28.4182 1.4524
77.5090 28.4049 1.4408
77.5290 28.3915 1.4485
77.5490 28.3781 1.4480
77.5690 28.3648 1.4394
77.5890 28.3515 1.4441
77.6090 28.3382 1.4469
77.6290 28.3249 1.4358
77.6490 28.3116 1.4449
77.6690 28.2983 1.4438
77.6890 28.2850 1.4265
77.7090 28.2716 1.4422
77.7290 28.2583 1.4408
77.7490 28.2449 1.4261
77.7690 28.2316 1.4392
77.7890 28.2182 1.4359
77.8090 28.2049 1.4245
77.8290 28.1915 1.4377
77.8490 28.1782 1.4305
77.8690 28.1649 1.4250
77.8890 28.1515 1.4373
77.9090 28.1382 1.4265
77.9290 28.1248 1.4220
77.9490 28.1115 1.4320
77.9690 28.0982 1.4213
77.9890 28.0849 1.4223
78.0090 28.0715 1.4291
78.0290 28.0582 1.4165
78.0490 28.0449 1.4193
78.0690 28.0316 1.4236
78.0890 28.0182 1.4139
78.1090 28.0049 1.4196
78.1290 27.9916 1.4179
78.1490 27.9783 1.4161
78.1690 27.9649 1.4140
78.1890 27.9515 1.4164
78.2090 27.9382 1.4075
78.2290 27.9249 1.4124
78.2490 27.9115 1.4087
78.2690 27.8982 1.4053
78.2890 27.8848 1.4137
78.3090 27.8715 1.4083
78.3290 27.8582 1.4024
78.3490 27.8449 1.4070
78.3690 27.8315 1.4046
78.3890 27.8182 1.4015
78.4090 27.8049 1.4046
78.4290 27.7916 1.4020
78.4490 27.7782 1.4021
78.4690 27.7649 1.4015
78.4890 27.7516 1.3981
78.5090 27.7383 1.3962
78.5290 27.7249 1.3998
78.5490 27.7115 1.3983
78.5690 27.6982 1.3941
78.5890 27.6849 1.3980
78.6090 27.6716 1.3923
78.6290 27.6582 1.3920
78.6490 27.6448 1.3938
78.6690 27.6315 1.3906
78.6890 27.6182 1.3870
78.7090 27.6049 1.3937
78.7290 27.5915 1.3873
78.7490 27.5782 1.3870
78.7690 27.5649 1.3919
78.7890 27.5516 1.3828
78.8090 27.5382 1.3872
78.8290 27.5249 1.3880
78.8490 27.5116 1.3764
78.8690 27.4982 1.3833
78.8890 27.4849 1.3846
78.9090 27.4715 1.3762
78.9290 27.4582 1.3814
78.9490 27.4449 1.3831
78.9690 27.4316 1.3720
78.9890 27.4182 1.3785
79.0090 27.4048 1.3839
79.0290 27.3915 1.3697
79.0490 27.3782 1.3729
79.0690 27.3649 1.3768
79.0890 27.3515 1.3734
79.1090 27.3382 1.3697
79.1290 27.3249 1.3712
79.1490 27.3116 1.3680
79.1690 27.2983 1.3666
79.1890 27.2849 1.3737
79.2090 27.2716 1.3616
79.2290 27.2583 1.3632
79.2490 27.2449 1.3719
79.2690 27.2315 1.3563
79.2890 27.2182 1.3662
79.3090 27.2049 1.3672
79.3290 27.1915 1.3579
79.3490 27.1782 1.3572
79.3690 27.1648 1.3627
79.3890 27.1515 1.3519
79.4090 27.1382 1.3564
79.4290 27.1249 1.3615
79.4490 27.1116 1.3485
79.4690 27.0983 1.3564
79.4890 27.0850 1.3576
79.5090 27.0716 1.3449
79.5290 27.0583 1.3536
79.5490 27.0449 1.3566
79.5690 27.0316 1.3455
79.5890 27.0183 1.3490
79.6090 27.0049 1.3541
79.6290 26.9915 1.3419
79.6490 26.9782 1.3471
79.6690 26.9649 1.3527
79.6890 26.9516 1.3363
79.7090 26.9382 1.3481
79.7290 26.9248 1.3474
79.7490 26.9115 1.3347
79.7690 26.8982 1.3454
79.7890 26.8849 1.3420
79.8090 26.8716 1.3337
79.8290 26.8583 1.3449
79.8490 26.8450 1.3409
79.8690 26.8316 1.3310
79.8890 26.8183 1.3389
79.9090 26.8049 1.3376
79.9290 26.7915 1.3294
79.9490 26.7782 1.3370
79.9690 26.7649 1.3370
79.9890 26.7515 1.3303
80.0090 26.7382 1.3308
80.0290 26.7249 1.3365
80.0490 26.7116 1.3227
80.0690 26.6982 1.3295
80.0890 26.6849 1.3354
80.1090 26.6716 1.3216
80.1290 26.6582 1.3272
80.1490 26.6449 1.3332
80.1690 26.6316 1.3164
80.1890 26.6182 1.3287
80.2090 26.6049 1.3313
80.2290 26.5916 1.3124
80.2490 26.5783 1.3261
80.2690 26.5649 1.3251
80.2890 26.5516 1.3117
80.3090 26.5383 1.3244
80.3290 26.5249 1.3187
80.3490 26.5115 1.3074
80.3690 26.4982 1.3207
80.3890 26.4849 1.3165
80.4090 26.4716 1.3073
80.4290 26.4582 1.3192
80.4490 26.4449 1.3134
80.4690 26.4315 1.3088
80.4890 26.4182 1.3138
80.5090 26.4049 1.3102
80.5290 26.3916 1.3082
80.5490 26.3782 1.3163
80.5690 26.3649 1.3092
80.5890 26.3516 1.3042
80.6090 26.3382 1.3116
80.6290 26.3249 1.3072
80.6490 26.3116 1.3045
80.6690 26.2983 1.3079
80.6890 26.2849 1.3047
80.7090 26.2715 1.3030
80.7290 26.2582 1.3032
80.7490 26.2449 1.2999
80.7690 26.2315 1.2991
80.7890 26.2182 1.2996
80.8090 26.2048 1.2960
80.8290 26.1915 1.2991
80.8490 26.1782 1.2984
80.8690 26.1649 1.2938
80.8890 26.1516 1.3002
80.9090 26.1383 1.2948
80.9290 26.1250 1.2944
80.9490 26.1117 1.2938
80.9690 26.0983 1.2891
80.9890 26.0849 1.2937
81.0090 26.0716 1.2932
81.0290 26.0583 1.2829
81.0490 26.0449 1.2930
81.0690 26.0315 1.2869
81.0890 26.0182 1.2837
81.1090 26.0049 1.2960
81.1290 25.9915 1.2780
81.1490 25.9782 1.2817
81.1690 25.9648 1.2918
81.1890 25.9515 1.2753
81.2090 25.9382 1.2811
81.2290 25.9249 1.2881
81.2490 25.9115 1.2766
81.2690 25.8982 1.2819
81.2890 25.8849 1.2846
81.3090 25.8716 1.2694
81.3290 25.8583 1.2780
81.3490 25.8449 1.2797
81.3690 25.8316 1.2680
81.3890 25.8183 1.2807
81.4090 25.8049 1.2754
81.4290 25.7915 1.2665
81.4490 25.7782 1.2769
81.4690 25.7648 1.2723
81.4890 25.7515 1.2656
81.5090 25.7382 1.2733
81.5290 25.7248 1.2675
81.5490 25.7115 1.2674
81.5690 25.6982 1.2658
81.5890 25.6849 1.2643
81.6090 25.6716 1.2626
81.6290 25.6583 1.2677
81.6490 25.6450 1.2653
81.6690 25.6317 1.2638
81.6890 25.6183 1.2619
81.7090 25.6049 1.2609
81.7290 25.5916 1.2639
81.7490 25.5782 1.2595
81.7690 25.5649 1.2528
81.7890 25.5515 1.2632
81.8090 25.5382 1.2583
81.8290 25.5249 1.2558
81.8490 25.5116 1.2574
81.8690 25.4982 1.2521
81.8890 25.4849 1.2560
81.9090 25.4715 1.2562
81.9290 25.4582 1.2494
81.9490 25.4449 1.2509
81.9690 25.4315 1.2547
81.9890 25.4182 1.2503
82.0090 25.4049 1.2536
82.0290 25.3916 1.2517
82.0490 25.3783 1.2421
82.0690 25.3649 1.2503
82.0890 25.3516 1.2498
82.1090 25.3383 1.2402
82.1290 25.3249 1.2513
82.1490 25.3115 1.2436
82.1690 25.2982 1.2389
82.1890 25.2849 1.2472
82.2090 25.2716 1.2442
82.2290 25.2582 1.2390
82.2490 25.2449 1.2483
82.2690 25.2315 1.2345
82.2890 25.2182 1.2377
82.3090 25.2049 1.2413
82.3290 25.1915 1.2352
82.3490 25.1782 1.2394
82.3690 25.1649 1.2367
82.3890 25.1516 1.2333
82.4090 25.1383 1.2383
82.4290 25.1249 1.2325
82.4490 25.1116 1.2311
82.4690 25.0983 1.2348
82.4890 25.0850 1.2263
82.5090 25.0716 1.2292
82.5290 25.0582 1.2385
82.5490 25.0449 1.2233
82.5690 25.0316 1.2278
82.5890 25.0182 1.2301
82.6090 25.0048 1.2212
82.6290 24.9915 1.2320
82.6490 24.9782 1.2285
82.6690 24.9649 1.2160
82.6890 24.9515 1.2257
82.7090 24.9382 1.2309
82.7290 24.9249 1.2119
82.7490 24.9116 1.2257
82.7690 24.8983 1.2237
82.7890 24.8849 1.2119
82.8090 24.8716 1.2272
82.8290 24.8583 1.2206
82.8490 24.8450 1.2085
82.8690 24.8316 1.2255
82.8890 24.8182 1.2125
82.9090 24.8049 1.2091
82.9290 24.7915 1.2248
82.9490 24.7782 1.2077
82.9690 24.7649 1.2123
82.9890 24.7515 1.2209
83.0090 24.7382 1.2055
83.0290 24.7249 1.2106
83.0490 24.7115 1.2135
83.0690 24.6982 1.2068
83.0890 24.6849 1.2092
83.1090 24.6716 1.2115
83.1290 24.6583 1.2052
83.1490 24.6449 1.2073
83.1690 24.6316 1.2079
83.1890 24.6182 1.2053
83.2090 24.6049 1.2059
83.2290 24.5915 1.2045
83.2490 24.5781 1.2041
83.2690 24.5648 1.1998
83.2890 24.5515 1.2013
83.3090 24.5382 1.2048
83.3290 24.5249 1.1997
83.3490 24.5115 1.2009
83.3690 24.4982 1.2004
83.3890 24.4849 1.1959
83.4090 24.4716 1.1965
83.4290 24.4582 1.1984
83.4490 24.4449 1.1953
83.4690 24.4316 1.1968
83.4890 24.4182 1.1963
83.5090 24.4049 1.1866
83.5290 24.3915 1.1947
83.5490 24.3782 1.1947
83.5690 24.3649 1.1882
83.5890 24.3516 1.1892
83.6090 24.3382 1.1929
83.6290 24.3248 1.1837
83.6490 24.3115 1.1909
83.6690 24.2982 1.1916
83.6890 24.2849 1.1826
83.7090 24.2715 1.1905
83.7290 24.2582 1.1899
83.7490 24.2449 1.1768
83.7690 24.2316 1.1891
83.7890 24.2182 1.1889
83.8090 24.2049 1.1734
83.8290 24.1916 1.1838
83.8490 24.1783 1.1874
83.8690 24.1649 1.1743
83.8890 24.1515 1.1836
83.9090 24.1382 1.1803
83.9290 24.1249 1.1744
83.9490 24.1116 1.1833
83.9690 24.0982 1.1790
83.9890 24.0849 1.1691
84.0090 24.0716 1.1808
84.0290 24.0582 1.1703
84.0490 24.0449 1.1688
84.0690 24.0315 1.1795
84.0890 24.0182 1.1693
84.1090 24.0049 1.1660
84.1290 23.9915 1.1744
84.1490 23.9782 1.1698
84.1690 23.9649 1.1648
84.1890 23.9516 1.1730
84.2090 23.9383 1.1653
84.2290 23.9249 1.1652
84.2490 23.9116 1.1707
84.2690 23.8983 1.1646
84.2890 23.8849 1.1629
84.3090 23.8716 1.1651
84.3290 23.8582 1.1629
84.3490 23.8449 1.1621
84.3690 23.8316 1.1575
84.3890 23.8182 1.1627
84.4090 23.8049 1.1597
84.4290 23.7915 1.1639
84.4490 23.7782 1.1585
84.4690 23.7649 1.1557
84.4890 23.7515 1.1605
84.5090 23.7382 1.1608
84.5290 23.7249 1.1562
84.5490 23.7116 1.1553
84.5690 23.6983 1.1535
84.5890 23.6849 1.1552
84.6090 23.6716 1.1518
84.6290 23.6583 1.1553
84.6490 23.6449 1.1553
84.6690 23.6316 1.1513
84.6890 23.6182 1.1485
84.7090 23.6048 1.1512
84.7290 23.5915 1.1525
84.7490 23.5782 1.1510
84.7690 23.5648 1.1464
84.7890 23.5515 1.1473
84.8090 23.5382 1.1472
84.8290 23.5249 1.1500
84.8490 23.5116 1.1447
84.8690 23.4982 1.1429
84.8890 23.4849 1.1474
84.9090 23.4716 1.1409
84.9290 23.4583 1.1444
84.9490 23.4449 1.1425
84.9690 23.4316 1.1434
84.9890 23.4182 1.1411
85.0090 23.4049 1.1384
85.0290 23.3916 1.1356
85.0490 23.3782 1.1443
85.0690 23.3649 1.1370
85.0890 23.3515 1.1323
85.1090 23.3382 1.1378
85.1290 23.3249 1.1384
85.1490 23.3115 1.1325
85.1690 23.2982 1.1391
85.1890 23.2849 1.1342
85.2090 23.2716 1.1296
85.2290 23.2582 1.1360
85.2490 23.2449 1.1300
85.2690 23.2316 1.1275
85.2890 23.2183 1.1331
85.3090 23.2049 1.1276
85.3290 23.1916 1.1276
85.3490 23.1783 1.1299
85.3690 23.1649 1.1275
85.3890 23.1516 1.1214
85.4090 23.1382 1.1314
85.4290 23.1248 1.1279
85.4490 23.1115 1.1203
85.4690 23.0982 1.1264
85.4890 23.0849 1.1241
85.5090 23.0715 1.1181
85.5290 23.0582 1.1221
85.5490 23.0449 1.1227
85.5690 23.0316 1.1190
85.5890 23.0182 1.1170
85.6090 23.0049 1.1175
85.6290 22.9916 1.1132
85.6490 22.9782 1.1197
85.6690 22.9649 1.1184
85.6890 22.9515 1.1131
85.7090 22.9382 1.1173
85.7290 22.9249 1.1145
85.7490 22.9116 1.1068
85.7690 22.8982 1.1118
85.7890 22.8849 1.1127
85.8090 22.8715 1.1054
85.8290 22.8582 1.1132
85.8490 22.8449 1.1083
85.8690 22.8315 1.1071
85.8890 22.8182 1.1090
85.9090 22.8049 1.1098
85.9290 22.7915 1.1050
85.9490 22.7782 1.1077
85.9690 22.7649 1.1084
85.9890 22.7516 1.1014
86.0090 22.7383 1.1048
86.0290 22.7249 1.1057
86.0490 22.7116 1.0959
86.0690 22.6982 1.1019
86.0890 22.6849 1.1008
86.1090 22.6716 1.0978
86.1290 22.6582 1.0976
86.1490 22.6449 1.1023
86.1690 22.6316 1.0971
86.1890 22.6182 1.0945
86.2090 22.6049 1.0978
86.2290 22.5915 1.0973
86.2490 22.5782 1.0975
86.2690 22.5649 1.0960
86.2890 22.5515 1.0960
86.3090 22.5382 1.0927
86.3290 22.5249 1.0959
86.3490 22.5116 1.0952
86.3690 22.4983 1.0908
86.3890 22.4849 1.0892
86.4090 22.4716 1.0912
86.4290 22.4583 1.0897
86.4490 22.4450 1.0868
86.4690 22.4316 1.0871
86.4890 22.4182 1.0874
86.5090 22.4048 1.0922
86.5290 22.3915 1.0825
86.5490 22.3782 1.0850
86.5690 22.3649 1.0900
86.5890 22.3515 1.0814
86.6090 22.3382 1.0885
86.6290 22.3249 1.0876
86.6490 22.3116 1.0772
86.6690 22.2982 1.0807
86.6890 22.2849 1.0870
86.7090 22.2716 1.0746
86.7290 22.2583 1.0780
86.7490 22.2449 1.0821
86.7690 22.2316 1.0745
86.7890 22.2182 1.0828
86.8090 22.2049 1.0807
86.8290 22.1916 1.0689
86.8490 22.1782 1.0790
86.8690 22.1648 1.0805
86.8890 22.1515 1.0677
86.9090 22.1382 1.0755
86.9290 22.1249 1.0763
86.9490 22.1115 1.0663
86.9690 22.0982 1.0783
86.9890 22.0849 1.0699
87.0090 22.0716 1.0667
87.0290 22.0582 1.0729
87.0490 22.0449 1.0682
87.0690 22.0316 1.0690
87.0890 22.0183 1.0699
87.1090 22.0049 1.0644
87.1290 21.9916 1.0656
87.1490 21.9782 1.0639
87.1690 21.9649 1.0649
87.1890 21.9515 1.0643
87.2090 21.9382 1.0626
87.2290 21.9248 1.0670
87.2490 21.9115 1.0660
87.2690 21.8982 1.0613
87.2890 21.8849 1.0603
87.3090 21.8715 1.0599
87.3290 21.8582 1.0564
87.3490 21.8449 1.0628
87.3690 21.8316 1.0597
87.3890 21.8182 1.0573
87.4090 21.8049 1.0616
87.4290 21.7916 1.0515
87.4490 21.7783 1.0541
87.4690 21.7650 1.0588
87.4890 21.7516 1.0500
87.5090 21.7382 1.0552
87.5290 21.7249 1.0557
87.5490 21.7116 1.0522
87.5690 21.6982 1.0523
87.5890 21.6848 1.0515
87.6090 21.6715 1.0512
87.6290 21.6582 1.0520
87.6490 21.6449 1.0487
87.6690 21.6315 1.0486
87.6890 21.6182 1.0457
87.7090 21.6049 1.0532
87.7290 21.5916 1.0485
87.7490 21.5782 1.0424
87.7690 21.5649 1.0510
87.7890 21.5516 1.0461
87.8090 21.5383 1.0371
87.8290 21.5249 1.0512
87.8490 21.5116 1.0424
87.8690 21.4982 1.0366
87.8890 21.4849 1.0499
87.9090 21.4716 1.0359
87.9290 21.4582 1.0367
87.9490 21.4449 1.0492
87.9690 21.4315 1.0371
87.9890 21.4182 1.0349
88.0090 21.4049 1.0444
88.0290 21.3915 1.0324
88.0490 21.3782 1.0342
88.0690 21.3648 1.0445
88.0890 21.3515 1.0316
88.1090 21.3382 1.0327
88.1290 21.3249 1.0454
88.1490 21.3116 1.0282
88.1690 21.2983 1.0318
88.1890 21.2850 1.0363
88.2090 21.2716 1.0293
88.2290 21.2582 1.0313
88.2490 21.2449 1.0362
88.2690 21.2316 1.0249
88.2890 21.2183 1.0259
88.3090 21.2049 1.0370
88.3290 21.1915 1.0282
88.3490 21.1782 1.0214
88.3690 21.1648 1.0306
88.3890 21.1515 1.0222
88.4090 21.1381 1.0229
88.4290 21.1248 1.0302
88.4490 21.1115 1.0209
88.4690 21.0982 1.0249
88.4890 21.0848 1.0308
88.5090 21.0716 1.0147
88.5290 21.0583 1.0211
88.5490 21.0450 1.0249
88.5690 21.0316 1.0181
88.5890 21.0183 1.0200
88.6090 21.0049 1.0210
88.6290 20.9916 1.0084
88.6490 20.9782 1.0204
88.6690 20.9648 1.0185
88.6890 20.9515 1.0132
88.7090 20.9382 1.0166
88.7290 20.9249 1.0165
88.7490 20.9115 1.0174
88.7690 20.8981 1.0138
88.7890 20.8849 1.0134
88.8090 20.8716 1.0160
88.8290 20.8583 1.0134
88.8490 20.8449 1.0080
88.8690 20.8316 1.0152
88.8890 20.8183 1.0088
88.9090 20.8050 1.0075
88.9290 20.7916 1.0103
88.9490 20.7782 1.0086
88.9690 20.7649 1.0065
88.9890 20.7516 1.0080
89.0090 20.7382 1.0019
89.0290 20.7249 1.0071
89.0490 20.7115 1.0075
89.0690 20.6982 0.9976
89.0890 20.6849 1.0056
89.1090 20.6715 1.0067
89.1290 20.6582 0.9973
89.1490 20.6449 0.9991
89.1690 20.6316 1.0054
89.1890 20.6182 0.9972
89.2090 20.6049 1.0010
89.2290 20.5916 1.0060
89.2490 20.5783 0.9892
89.2690 20.5649 0.9987
89.2890 20.5516 1.0056
89.3090 20.5382 0.9900
89.3290 20.5249 0.9975
89.3490 20.5116 0.9932
89.3690 20.4982 0.9872
89.3890 20.4848 0.9982
89.4090 20.4715 0.9977
89.4290 20.4582 0.9876
89.4490 20.4449 0.9910
89.4690 20.4315 0.9927
89.4890 20.4182 0.9871
89.5090 20.4049 0.9941
89.5290 20.3916 0.9871
89.5490 20.3782 0.9860
89.5690 20.3649 0.9932
89.5890 20.3515 0.9827
89.6090 20.3383 0.9888
89.6290 20.3249 0.9912
89.6490 20.3116 0.9841
89.6690 20.2982 0.9823
89.6890 20.2849 0.9840
89.7090 20.2716 0.9821
89.7290 20.2583 0.9851
89.7490 20.2449 0.9846
89.7690 20.2315 0.9768
89.7890 20.2182 0.9797
89.8090 20.2049 0.9788
89.8290 20.1915 0.9756
89.8490 20.1782 0.9834
89.8690 20.1649 0.9756
89.8890 20.1516 0.9747
89.9090 20.1382 0.9806
89.9290 20.1249 0.9756
89.9490 20.1116 0.9791
89.9690 20.0983 0.9763
89.9890 20.0849 0.9697
90.0090 20.0716 0.9714
90.0290 20.0582 0.9746
90.0490 20.0449 0.9705
90.0690 20.0316 0.9670
90.0890 20.0182 0.9716
90.1090 20.0049 0.9659
90.1290 19.9915 0.9733
90.1490 19.9782 0.9716
90.1690 19.9649 0.9647
90.1890 19.9515 0.9687
90.2090 19.9382 0.9697
90.2290 19.9248 0.9666
90.2490 19.9115 0.9619
90.2690 19.8982 0.9677
90.2890 19.8849 0.9614
90.3090 19.8716 0.9610
90.3290 19.8583 0.9679
90.3490 19.8450 0.9567
90.3690 19.8316 0.9609
90.3890 19.8182 0.9687
90.4090 19.8049 0.9565
90.4290 19.7916 0.9579
90.4490 19.7782 0.9631
90.4690 19.7649 0.9548
90.4890 19.7515 0.9551
90.5090 19.7382 0.9608
90.5290 19.7249 0.9519
90.5490 19.7116 0.9557
90.5690 19.6982 0.9588
90.5890 19.6849 0.9496
90.6090 19.6716 0.9532
90.6290 19.6582 0.9566
90.6490 19.6449 0.9483
90.6690 19.6316 0.9562
90.6890 19.6183 0.9529
90.7090 19.6050 0.9477
90.7290 19.5916 0.9548
90.7490 19.5783 0.9478
90.7690 19.5649 0.9464
90.7890 19.5516 0.9518
90.8090 19.5383 0.9451
90.8290 19.5249 0.9475
90.8490 19.5115 0.9467
90.8690 19.4982 0.9446
90.8890 19.4848 0.9462
90.9090 19.4715 0.9470
90.9290 19.4581 0.9473
90.9490 19.4448 0.9420
90.9690 19.4315 0.9416
90.9890 19.4182 0.9463
91.0090 19.4049 0.9412
91.0290 19.3916 0.9394
91.0490 19.3783 0.9447
91.0690 19.3649 0.9357
91.0890 19.3516 0.9379
91.1090 19.3382 0.9485
91.1290 19.3249 0.9345
91.1490 19.3116 0.9358
91.1690 19.2982 0.9427
91.1890 19.2849 0.9308
91.2090 19.2715 0.9384
91.2290 19.2582 0.9400
91.2490 19.2449 0.9287
91.2690 19.2316 0.9326
91.2890 19.2182 0.9408
91.3090 19.2049 0.9269
91.3290 19.1915 0.9326
91.3490 19.1782 0.9378
91.3690 19.1649 0.9260
91.3890 19.1515 0.9335
91.4090 19.1382 0.9342
91.4290 19.1249 0.9243
91.4490 19.1116 0.9315
91.4690 19.0982 0.9322
91.4890 19.0849 0.9277
91.5090 19.0716 0.9226
91.5290 19.0583 0.9334
91.5490 19.0449 0.9236
91.5690 19.0315 0.9215
91.5890 19.0182 0.9295
91.6090 19.0049 0.9207
91.6290 18.9915 0.9171
91.6490 18.9782 0.9316
91.6690 18.9648 0.9200
91.6890 18.9515 0.9151
91.7090 18.9382 0.9306
91.7290 18.9249 0.9165
91.7490 18.9116 0.9168
91.7690 18.8983 0.9316
91.7890 18.8849 0.9099
91.8090 18.8716 0.9142
91.8290 18.8583 0.9299
91.8490 18.8449 0.9090
91.8690 18.8316 0.9168
91.8890 18.8183 0.9240
91.9090 18.8049 0.9071
91.9290 18.7915 0.9155
91.9490 18.7782 0.9239
91.9690 18.7649 0.9019
91.9890 18.7515 0.9181
92.0090 18.7381 0.9163
92.0290 18.7248 0.9001
92.0490 18.7115 0.9161
92.0690 18.6982 0.9158
92.0890 18.6849 0.8983
92.1090 18.6716 0.9171
92.1290 18.6583 0.9111
92.1490 18.6450 0.9029
92.1690 18.6316 0.9101
92.1890 18.6183 0.9108
92.2090 18.6049 0.9018
92.2290 18.5916 0.9078
92.2490 18.5783 0.9045
92.2690 18.5649 0.9023
92.2890 18.5515 0.9080
92.3090 18.5382 0.9015
92.3290 18.5249 0.9028
92.3490 18.5115 0.9032
92.3690 18.4982 0.9034
92.3890 18.4848 0.9053
92.4090 18.4715 0.8993
92.4290 18.4582 0.9004
92.4490 18.4449 0.9002
92.4690 18.4316 0.8976
92.4890 18.4183 0.8997
92.5090 18.4050 0.8988
92.5290 18.3916 0.8968
92.5490 18.3782 0.9014
92.5690 18.3649 0.8950
92.5890 18.3516 0.8950
92.6090 18.3383 0.8978
92.6290 18.3249 0.8903
92.6490 18.3115 0.8913
92.6690 18.2982 0.8970
92.6890 18.2849 0.8924
92.7090 18.2715 0.8867
92.7290 18.2582 0.8958
92.7490 18.2448 0.8865
92.7690 18.2315 0.8922
92.7890 18.2182 0.8906
92.8090 18.2049 0.8861
92.8290 18.1915 0.8932
92.8490 18.1782 0.8892
92.8690 18.1649 0.8804
92.8890 18.1516 0.8910
92.9090 18.1382 0.8819
92.9290 18.1249 0.8849
92.9490 18.1116 0.8866
92.9690 18.0983 0.8820
92.9890 18.0849 0.8828
93.0090 18.0716 0.8874
93.0290 18.0582 0.8799
93.0490 18.0449 0.8790
93.0690 18.0316 0.8780
93.0890 18.0182 0.8801
93.1090 18.0048 0.8805
93.1290 17.9915 0.8755
93.1490 17.9782 0.8796
93.1690 17.9649 0.8780
93.1890 17.9515 0.8774
93.2090 17.9382 0.8782
93.2290 17.9249 0.8762
93.2490 17.9116 0.8719
93.2690 17.8983 0.8748
93.2890 17.8849 0.8784
93.3090 17.8716 0.8702
93.3290 17.8583 0.8737
93.3490 17.8449 0.8745
93.3690 17.8315 0.8635
93.3890 17.8182 0.8726
93.4090 17.8049 0.8682
93.4290 17.7916 0.8689
93.4490 17.7782 0.8719
93.4690 17.7648 0.8649
93.4890 17.7515 0.8631
93.5090 17.7382 0.8739
93.5290 17.7249 0.8665
93.5490 17.7115 0.8641
93.5690 17.6982 0.8697
93.5890 17.6849 0.8611
93.6090 17.6716 0.8608
93.6290 17.6583 0.8700
93.6490 17.6449 0.8602
93.6690 17.6316 0.8633
93.6890 17.6183 0.8620
93.7090 17.6049 0.8554
93.7290 17.5916 0.8626
93.7490 17.5782 0.8652
93.7690 17.5648 0.8534
93.7890 17.5515 0.8591
93.8090 17.5382 0.8583
93.8290 17.5248 0.8579
93.8490 17.5115 0.8605
93.8690 17.4982 0.8572
93.8890 17.4849 0.8590
93.9090 17.4715 0.8599
93.9290 17.4582 0.8513
93.9490 17.4449 0.8573
93.9690 17.4316 0.8584
93.9890 17.4183 0.8490
94.0090 17.4049 0.8588
94.0290 17.3916 0.8524
94.0490 17.3783 0.8451
94.0690 17.3649 0.8599
94.0890 17.3515 0.8455
94.1090 17.3382 0.8419
94.1290 17.3249 0.8583
94.1490 17.3115 0.8444
94.1690 17.2982 0.8443
94.1890 17.2848 0.8571
94.2090 17.2715 0.8433
94.2290 17.2582 0.8409
94.2490 17.2449 0.8548
94.2690 17.2316 0.8442
94.2890 17.2183 0.8430
94.3090 17.2050 0.8495
94.3290 17.1916 0.8412
94.3490 17.1783 0.8401
94.3690 17.1649 0.8530
94.3890 17.1516 0.8414
94.4090 17.1382 0.8380
94.4290 17.1249 0.8441
94.4490 17.1115 0.8393
94.4690 17.0982 0.8405
94.4890 17.0849 0.8445
94.5090 17.0716 0.8350
94.5290 17.0582 0.8374
94.5490 17.0449 0.8438
94.5690 17.0315 0.8283
94.5890 17.0182 0.8383
94.6090 17.0049 0.8440
94.6290 16.9915 0.8308
94.6490 16.9782 0.8323
94.6690 16.9649 0.8410
94.6890 16.9516 0.8310
94.7090 16.9383 0.8275
94.7290 16.9249 0.8394
94.7490 16.9116 0.8286
94.7690 16.8983 0.8236
94.7890 16.8849 0.8385
94.8090 16.8715 0.8284
94.8290 16.8582 0.8232
94.8490 16.8449 0.8344
94.8690 16.8316 0.8321
94.8890 16.8182 0.8202
94.9090 16.8049 0.8341
94.9290 16.7915 0.8321
94.9490 16.7782 0.8149
94.9690 16.7649 0.8319
94.9890 16.7516 0.8301
95.0090 16.7382 0.8179
95.0290 16.7249 0.8345
95.0490 16.7116 0.8221
95.0690 16.6983 0.8164
95.0890 16.6849 0.8310
95.1090 16.6715 0.8241
95.1290 16.6582 0.8146
95.1490 16.6449 0.8295
95.1690 16.6315 0.8181
95.1890 16.6182 0.8160
95.2090 16.6049 0.8274
95.2290 16.5915 0.8137
95.2490 16.5782 0.8180
95.2690 16.5648 0.8234
95.2890 16.5515 0.8175
95.3090 16.5382 0.8146
95.3290 16.5249 0.8155
95.3490 16.5116 0.8182
95.3690 16.4982 0.8109
95.3890 16.4849 0.8124
95.4090 16.4716 0.8160
95.4290 16.4583 0.8109
95.4490 16.4449 0.8097
95.4690 16.4316 0.8148
95.4890 16.4183 0.8101
95.5090 16.4049 0.8058
95.5290 16.3916 0.8147
95.5490 16.3782 0.8062
95.5690 16.3649 0.8040
95.5890 16.3516 0.8146
95.6090 16.3382 0.8006
95.6290 16.3249 0.8066
95.6490 16.3115 0.8173
95.6690 16.2982 0.7987
95.6890 16.2849 0.8118
95.7090 16.2715 0.8091
95.7290 16.2582 0.8015
95.7490 16.2449 0.8051
95.7690 16.2316 0.8094
95.7890 16.2183 0.7972
95.8090 16.2049 0.8042
95.8290 16.1916 0.8095
95.8490 16.1783 0.7919
95.8690 16.1650 0.8016
95.8890 16.1516 0.8029
95.9090 16.1382 0.7934
95.9290 16.1248 0.8014
95.9490 16.1115 0.7954
95.9690 16.0982 0.7952
95.9890 16.0848 0.8037
96.0090 16.0715 0.7977
96.0290 16.0582 0.7895
96.0490 16.0449 0.7944
96.0690 16.0316 0.7983
96.0890 16.0182 0.7896
96.1090 16.0049 0.7961
96.1290 15.9916 0.7935
96.1490 15.9783 0.7870
96.1690 15.9649 0.7949
96.1890 15.9515 0.7901
96.2090 15.9382 0.7826
96.2290 15.9249 0.7916
96.2490 15.9115 0.7877
96.2690 15.8982 0.7861
96.2890 15.8849 0.7896
96.3090 15.8716 0.7864
96.3290 15.8582 0.7823
96.3490 15.8449 0.7896
96.3690 15.8315 0.7798
96.3890 15.8182 0.7822
96.4090 15.8049 0.7857
96.4290 15.7916 0.7849
96.4490 15.7782 0.7851
96.4690 15.7649 0.7827
96.4890 15.7516 0.7808
96.5090 15.7383 0.7798
96.5290 15.7249 0.7802
96.5490 15.7116 0.7795
96.5690 15.6982 0.7811
96.5890 15.6849 0.7733
96.6090 15.6715 0.7744
96.6290 15.6582 0.7830
96.6490 15.6449 0.7764
96.6690 15.6316 0.7781
96.6890 15.6182 0.7764
96.7090 15.6049 0.7703
96.7290 15.5915 0.7758
96.7490 15.5782 0.7785
96.7690 15.5649 0.7689
96.7890 15.5515 0.7725
96.8090 15.5382 0.7761
96.8290 15.5249 0.7646
96.8490 15.5116 0.7707
96.8690 15.4983 0.7755
96.8890 15.4849 0.7683
96.9090 15.4716 0.7702
96.9290 15.4583 0.7722
96.9490 15.4450 0.7604
96.9690 15.4316 0.7667
96.9890 15.4182 0.7721
97.0090 15.4049 0.7589
97.0290 15.3916 0.7617
97.0490 15.3782 0.7701
97.0690 15.3649 0.7579
97.0890 15.3515 0.7610
97.1090 15.3382 0.7710
97.1290 15.3249 0.7557
97.1490 15.3116 0.7591
97.1690 15.2982 0.7690
97.1890 15.2849 0.7548
97.2090 15.2716 0.7590
97.2290 15.2583 0.7685
97.2490 15.2449 0.7517
97.2690 15.2315 0.7599
97.2890 15.2183 0.7703
97.3090 15.2049 0.7444
97.3290 15.1916 0.7585
97.3490 15.1782 0.7644
97.3690 15.1649 0.7448
97.3890 15.1515 0.7534
97.4090 15.1382 0.7653
97.4290 15.1249 0.7421
97.4490 15.1115 0.7563
97.4690 15.0982 0.7608
97.4890 15.0849 0.7356
97.5090 15.0715 0.7592
97.5290 15.0582 0.7571
97.5490 15.0449 0.7399
97.5690 15.0316 0.7545
97.5890 15.0183 0.7541
97.6090 15.0049 0.7449
97.6290 14.9915 0.7503
97.6490 14.9782 0.7562
97.6690 14.9649 0.7410
97.6890 14.9515 0.7480
97.7090 14.9381 0.7513
97.7290 14.9248 0.7393
97.7490 14.9115 0.7481
97.7690 14.8982 0.7465
97.7890 14.8849 0.7398
97.8090 14.8715 0.7444
97.8290 14.8582 0.7528
97.8490 14.8449 0.7350
97.8690 14.8316 0.7439
97.8890 14.8182 0.7479
97.9090 14.8049 0.7341
97.9290 14.7916 0.7430
97.9490 14.7783 0.7462
97.9690 14.7649 0.7326
97.9890 14.7516 0.7424
98.0090 14.7382 0.7422
98.0290 14.7249 0.7322
98.0490 14.7116 0.7381
98.0690 14.6982 0.7421
98.0890 14.6848 0.7308
98.1090 14.6715 0.7355
98.1290 14.6582 0.7397
98.1490 14.6448 0.7277
98.1690 14.6315 0.7372
98.1890 14.6182 0.7404
98.2090 14.6049 0.7241
98.2290 14.5916 0.7334
98.2490 14.5782 0.7398
98.2690 14.5649 0.7221
98.2890 14.5516 0.7328
98.3090 14.5383 0.7393
98.3290 14.5249 0.7206
98.3490 14.5115 0.7342
98.3690 14.4982 0.7323
98.3890 14.4849 0.7193
98.4090 14.4716 0.7337
98.4290 14.4582 0.7288
98.4490 14.4449 0.7207
98.4690 14.4316 0.7284
98.4890 14.4183 0.7276
98.5090 14.4049 0.7204
98.5290 14.3915 0.7296
98.5490 14.3782 0.7297
98.5690 14.3649 0.7165
98.5890 14.3515 0.7225
98.6090 14.3382 0.7288
98.6290 14.3249 0.7191
98.6490 14.3116 0.7210
98.6690 14.2983 0.7261
98.6890 14.2849 0.7207
98.7090 14.2716 0.7160
98.7290 14.2583 0.7292
98.7490 14.2449 0.7161
98.7690 14.2316 0.7113
98.7890 14.2182 0.7293
98.8090 14.2049 0.7098
98.8290 14.1916 0.7145
98.8490 14.1782 0.7255
98.8690 14.1649 0.7104
98.8890 14.1515 0.7141
98.9090 14.1382 0.7252
98.9290 14.1249 0.7137
98.9490 14.1115 0.7127
98.9690 14.0982 0.7200
98.9890 14.0849 0.7101
99.0090 14.0716 0.7127
99.0290 14.0583 0.7147
99.0490 14.0449 0.7122
99.0690 14.0316 0.7148
99.0890 14.0183 0.7130
99.1090 14.0049 0.7097
99.1290 13.9916 0.7054
99.1490 13.9782 0.7150
99.1690 13.9648 0.7060
99.1890 13.9515 0.7024
99.2090 13.9382 0.7122
99.2290 13.9248 0.7003
99.2490 13.9115 0.7003
99.2690 13.8982 0.7115
99.2890 13.8849 0.7011
99.3090 13.8716 0.6993
99.3290 13.8582 0.7076
99.3490 13.8449 0.7026
99.3690 13.8316 0.6956
99.3890 13.8183 0.7018
99.4090 13.8050 0.7002
99.4290 13.7916 0.6974
99.4490 13.7782 0.6988
99.4690 13.7649 0.6939
99.4890 13.7516 0.6952
99.5090 13.7382 0.6991
99.5290 13.7248 0.6944
99.5490 13.7115 0.6941
99.5690 13.6982 0.6956
99.5890 13.6849 0.6942
99.6090 13.6715 0.6915
99.6290 13.6582 0.6942
99.6490 13.6449 0.6912
99.6690 13.6316 0.6879
99.6890 13.6182 0.6968
99.7090 13.6049 0.6890
99.7290 13.5916 0.6815
99.7490 13.5783 0.6959
99.7690 13.5649 0.6845
99.7890 13.5516 0.6832
99.8090 13.5383 0.6960
99.8290 13.5249 0.6824
99.8490 13.5116 0.6795
99.8690 13.4982 0.6897
99.8890 13.4848 0.6797
99.9090 13.4715 0.6854
99.9290 13.4582 0.6908
99.9490 13.4449 0.6766
99.9690 13.4315 0.6813
99.9890 13.4182 0.6881
100.0090 13.4049 0.6762
100.0290 13.3916 0.6751
100.0490 13.3782 0.6848
100.0690 13.3649 0.6737
100.0890 13.3516 0.6777
100.1090 13.3383 0.6815
100.1290 13.3249 0.6713
100.1490 13.3116 0.6783
100.1690 13.2982 0.6761
100.1890 13.2849 0.6676
100.2090 13.2716 0.6775
100.2290 13.2582 0.6744
100.2490 13.2449 0.6708
100.2690 13.2316 0.6701
100.2890 13.2182 0.6719
100.3090 13.2049 0.6702
100.3290 13.1915 0.6698
100.3490 13.1782 0.6702
100.3690 13.1649 0.6724
100.3890 13.1515 0.6670
100.4090 13.1382 0.6682
100.4290 13.1249 0.6695
100.4490 13.1116 0.6634
100.4690 13.0983 0.6670
100.4890 13.0849 0.6717
100.5090 13.0716 0.6576
100.5290 13.0582 0.6623
100.5490 13.0449 0.6667
100.5690 13.0316 0.6545
100.5890 13.0182 0.6652
100.6090 13.0049 0.6647
100.6290 12.9915 0.6533
100.6490 12.9782 0.6606
100.6690 12.9649 0.6589
100.6890 12.9515 0.6560
100.7090 12.9382 0.6622
100.7290 12.9249 0.6523
100.7490 12.9115 0.6583
100.7690 12.8982 0.6572
100.7890 12.8848 0.6509
100.8090 12.8715 0.6613
100.8290 12.8583 0.6505
100.8490 12.8449 0.6571
100.8690 12.8316 0.6624
100.8890 12.8183 0.6466
100.9090 12.8050 0.6546
100.9290 12.7916 0.6569
100.9490 12.7782 0.6444
100.9690 12.7649 0.6528
100.9890 12.7515 0.6600
101.0090 12.7382 0.6421
101.0290 12.7249 0.6510
101.0490 12.7115 0.6542
101.0690 12.6981 0.6411
101.0890 12.6849 0.6518
101.1090 12.6716 0.6465
101.1290 12.6583 0.6411
101.1490 12.6449 0.6535
101.1690 12.6316 0.6442
101.1890 12.6183 0.6414
101.2090 12.6050 0.6496
101.2290 12.5916 0.6437
101.2490 12.5782 0.6390
101.2690 12.5649 0.6469
101.2890 12.5516 0.6416
101.3090 12.5382 0.6388
101.3290 12.5248 0.6488
101.3490 12.5115 0.6388
101.3690 12.4982 0.6384
101.3890 12.4849 0.6416
101.4090 12.4715 0.6407
101.4290 12.4582 0.6406
101.4490 12.4449 0.6372
101.4690 12.4316 0.6405
101.4890 12.4182 0.6343
101.5090 12.4049 0.6348
101.5290 12.3916 0.6417
101.5490 12.3783 0.6317
101.5690 12.3650 0.6338
101.5890 12.3516 0.6386
101.6090 12.3382 0.6293
101.6290 12.3249 0.6310
101.6490 12.3116 0.6370
101.6690 12.2982 0.6276
101.6890 12.2848 0.6305
101.7090 12.2715 0.6346
101.7290 12.2582 0.6265
101.7490 12.2449 0.6305
101.7690 12.2315 0.6325
101.7890 12.2182 0.6207
101.8090 12.2049 0.6340
101.8290 12.1916 0.6264
101.8490 12.1782 0.6208
101.8690 12.1649 0.6336
101.8890 12.1516 0.6245
101.9090 12.1383 0.6142
101.9290 12.1250 0.6318
101.9490 12.1116 0.6246
101.9690 12.0982 0.6182
101.9890 12.0849 0.6296
102.0090 12.0716 0.6190
102.0290 12.0582 0.6180
102.0490 12.0448 0.6268
102.0690 12.0315 0.6189
102.0890 12.0182 0.6162
102.1090 12.0049 0.6210
102.1290 11.9915 0.6152
102.1490 11.9782 0.6167
102.1690 11.9648 0.6152
102.1890 11.9516 0.6159
102.2090 11.9382 0.6162
102.2290 11.9249 0.6127
102.2490 11.9116 0.6147
102.2690 11.8983 0.6110
102.2890 11.8849 0.6089
102.3090 11.8716 0.6151
102.3290 11.8582 0.6078
102.3490 11.8449 0.6067
102.3690 11.8316 0.6128
102.3890 11.8182 0.6040
102.4090 11.8049 0.6073
102.4290 11.7915 0.6170
102.4490 11.7782 0.5977
102.4690 11.7649 0.6056
102.4890 11.7515 0.6136
102.5090 11.7382 0.5979
102.5290 11.7248 0.6067
102.5490 11.7115 0.6128
102.5690 11.6982 0.5914
102.5890 11.6849 0.6088
102.6090 11.6716 0.6095
102.6290 11.6583 0.5927
102.6490 11.6450 0.6090
102.6690 11.6316 0.6004
102.6890 11.6182 0.5905
102.7090 11.6049 0.6072
102.7290 11.5916 0.5986
102.7490 11.5782 0.5905
102.7690 11.5648 0.6028
102.7890 11.5515 0.5986
102.8090 11.5382 0.5873
102.8290 11.5249 0.5932
102.8490 11.5115 0.5996
102.8690 11.4982 0.5891
102.8890 11.4849 0.5900
102.9090 11.4716 0.5960
102.9290 11.4582 0.5879
102.9490 11.4449 0.5910
102.9690 11.4315 0.6002
102.9890 11.4183 0.5860
103.0090 11.4050 0.5886
103.0290 11.3916 0.5934
103.0490 11.3783 0.5847
103.0690 11.3649 0.5840
103.0890 11.3516 0.5905
103.1090 11.3382 0.5835
103.1290 11.3248 0.5827
103.1490 11.3115 0.5872
103.1690 11.2982 0.5789
103.1890 11.2848 0.5852
103.2090 11.2715 0.5847
103.2290 11.2581 0.5711
103.2490 11.2448 0.5827
103.2690 11.2316 0.5853
103.2890 11.2183 0.5782
103.3090 11.2049 0.5781
103.3290 11.1916 0.5836
103.3490 11.1783 0.5742
103.3690 11.1650 0.5753
103.3890 11.1516 0.5800
103.4090 11.1382 0.5687
103.4290 11.1249 0.5803
103.4490 11.1116 0.5757
103.4690 11.0982 0.5658
103.4890 11.0849 0.5778
103.5090 11.0715 0.5750
103.5290 11.0582 0.5618
103.5490 11.0449 0.5767
103.5690 11.0316 0.5724
103.5890 11.0182 0.5630
103.6090 11.0049 0.5754
103.6290 10.9916 0.5691
103.6490 10.9782 0.5601
103.6690 10.9649 0.5756
103.6890 10.9516 0.5646
103.7090 10.9383 0.5632
103.7290 10.9249 0.5698
103.7490 10.9116 0.5613
103.7690 10.8982 0.5624
103.7890 10.8849 0.5706
103.8090 10.8716 0.5599
103.8290 10.8582 0.5593
103.8490 10.8449 0.5682
103.8690 10.8315 0.5605
103.8890 10.8182 0.5596
103.9090 10.8049 0.5620
103.9290 10.7915 0.5568
103.9490 10.7782 0.5622
103.9690 10.7649 0.5545
103.9890 10.7516 0.5650
104.0090 10.7382 0.5544
104.0290 10.7249 0.5524
104.0490 10.7115 0.5640
104.0690 10.6982 0.5518
104.0890 10.6849 0.5489
104.1090 10.6716 0.5635
104.1290 10.6582 0.5515
104.1490 10.6449 0.5494
104.1690 10.6316 0.5604
104.1890 10.6183 0.5464
104.2090 10.6049 0.5483
104.2290 10.5915 0.5590
104.2490 10.5782 0.5410
104.2690 10.5649 0.5498
104.2890 10.5515 0.5519
104.3090 10.5382 0.5400
104.3290 10.5248 0.5533
104.3490 10.5115 0.5439
104.3690 10.4982 0.5396
104.3890 10.4849 0.5497
104.4090 10.4715 0.5450
104.4290 10.4583 0.5387
104.4490 10.4449 0.5492
104.4690 10.4316 0.5375
104.4890 10.4182 0.5432
104.5090 10.4049 0.5491
104.5290 10.3916 0.5302
104.5490 10.3783 0.5410
104.5690 10.3649 0.5401
104.5890 10.3515 0.5321
104.6090 10.3382 0.5438
104.6290 10.3249 0.5366
104.6490 10.3115 0.5281
104.6690 10.2982 0.5371
104.6890 10.2848 0.5336
104.7090 10.2715 0.5307
104.7290 10.2582 0.5388
104.7490 10.2448 0.5318
104.7690 10.2315 0.5293
104.7890 10.2183 0.5313
104.8090 10.2050 0.5294
104.8290 10.1916 0.5288
104.8490 10.1782 0.5326
104.8690 10.1649 0.5282
104.8890 10.1516 0.5238
104.9090 10.1382 0.5266
104.9290 10.1249 0.5246
104.9490 10.1115 0.5240
104.9690 10.0982 0.5301
104.9890 10.0849 0.5187
105.0090 10.0716 0.5201
105.0290 10.0582 0.5295
105.0490 10.0449 0.5168
105.0690 10.0316 0.5217
105.0890 10.0182 0.5206
105.1090 10.0049 0.5174
105.1290 9.9916 0.5188
105.1490 9.9782 0.5215
105.1690 9.9649 0.5150
105.1890 9.9516 0.5127
105.2090 9.9382 0.5193
105.2290 9.9249 0.5161
105.2490 9.9116 0.5101
105.2690 9.8983 0.5177
105.2890 9.8849 0.5106
105.3090 9.8715 0.5068
105.3290 9.8582 0.5141
105.3490 9.8449 0.5077
105.3690 9.8315 0.5090
105.3890 9.8182 0.5164
105.4090 9.8049 0.5018
105.4290 9.7916 0.5053
105.4490 9.7783 0.5108
105.4690 9.7649 0.5013
105.4890 9.7516 0.5028
105.5090 9.7383 0.5113
105.5290 9.7249 0.4985
105.5490 9.7116 0.5022
105.5690 9.6982 0.5088
105.5890 9.6849 0.4964
105.6090 9.6716 0.5019
105.6290 9.6582 0.5012
105.6490 9.6449 0.4954
105.6690 9.6315 0.5051
105.6890 9.6182 0.5012
105.7090 9.6049 0.4931
105.7290 9.5916 0.4975
105.7490 9.5782 0.5017
105.7690 9.5649 0.4934
105.7890 9.5516 0.4912
105.8090 9.5382 0.4995
105.8290 9.5249 0.4940
105.8490 9.5115 0.4946
105.8690 9.4982 0.4939
105.8890 9.4849 0.4885
105.9090 9.4716 0.4912
105.9290 9.4582 0.4940
105.9490 9.4449 0.4842
105.9690 9.4316 0.4870
105.9890 9.4183 0.4920
106.0090 9.4049 0.4834
106.0290 9.3915 0.4848
106.0490 9.3782 0.4910
106.0690 9.3649 0.4828
106.0890 9.3515 0.4811
106.1090 9.3382 0.4883
106.1290 9.3248 0.4828
106.1490 9.3115 0.4801
106.1690 9.2982 0.4857
106.1890 9.2849 0.4802
106.2090 9.2715 0.4826
106.2290 9.2582 0.4806
106.2490 9.2449 0.4784
106.2690 9.2316 0.4754
106.2890 9.2182 0.4800
106.3090 9.2049 0.4778
106.3290 9.1916 0.4751
106.3490 9.1783 0.4770
106.3690 9.1649 0.4731
106.3890 9.1515 0.4705
106.4090 9.1382 0.4786
106.4290 9.1249 0.4717
106.4490 9.1115 0.4686
106.4690 9.0982 0.4703
106.4890 9.0848 0.4685
106.5090 9.0715 0.4690
106.5290 9.0582 0.4687
106.5490 9.0449 0.4660
106.5690 9.0316 0.4637
106.5890 9.0183 0.4681
106.6090 9.0050 0.4625
106.6290 8.9916 0.4631
106.6490 8.9783 0.4689
106.6690 8.9649 0.4592
106.6890 8.9516 0.4611
106.7090 8.9383 0.4587
106.7290 8.9249 0.4588
106.7490 8.9115 0.4609
106.7690 8.8982 0.4598
106.7890 8.8849 0.4572
106.8090 8.8716 0.4557
106.8290 8.8582 0.4594
106.8490 8.8448 0.4521
106.8690 8.8315 0.4568
106.8890 8.8182 0.4560
106.9090 8.8049 0.4504
106.9290 8.7916 0.4535
106.9490 8.7783 0.4541
106.9690 8.7650 0.4521
106.9890 8.7516 0.4501
107.0090 8.7383 0.4492
107.0290 8.7249 0.4493
107.0490 8.7116 0.4483
107.0690 8.6983 0.4501
107.0890 8.6849 0.4438
107.1090 8.6715 0.4480
107.1290 8.6582 0.4480
107.1490 8.6449 0.4420
107.1690 8.6315 0.4420
107.1890 8.6182 0.4445
107.2090 8.6048 0.4472
107.2290 8.5915 0.4400
107.2490 8.5782 0.4405
107.2690 8.5649 0.4449
107.2890 8.5515 0.4393
107.3090 8.5382 0.4408
107.3290 8.5249 0.4390
107.3490 8.5116 0.4327
107.3690 8.4982 0.4387
107.3890 8.4849 0.4398
107.4090 8.4716 0.4333
107.4290 8.4583 0.4347
107.4490 8.4449 0.4308
107.4690 8.4316 0.4309
107.4890 8.4182 0.4395
107.5090 8.4049 0.4334
107.5290 8.3916 0.4271
107.5490 8.3782 0.4305
107.5690 8.3648 0.4333
107.5890 8.3515 0.4264
107.6090 8.3382 0.4311
107.6290 8.3249 0.4306
107.6490 8.3115 0.4230
107.6690 8.2982 0.4258
107.6890 8.2849 0.4314
107.7090 8.2716 0.4222
107.7290 8.2582 0.4249
107.7490 8.2449 0.4326
107.7690 8.2316 0.4184
107.7890 8.2183 0.4155
107.8090 8.2049 0.4322
107.8290 8.1916 0.4169
107.8490 8.1782 0.4198
107.8690 8.1649 0.4245
107.8890 8.1516 0.4136
107.9090 8.1382 0.4173
107.9290 8.1248 0.4272
107.9490 8.1115 0.4116
107.9690 8.0982 0.4165
107.9890 8.0849 0.4195
108.0090 8.0715 0.4119
108.0290 8.0582 0.4147
108.0490 8.0449 0.4184
108.0690 8.0316 0.4107
108.0890 8.0183 0.4080
108.1090 8.0049 0.4208
108.1290 7.9916 0.4080
108.1490 7.9783 0.4070
108.1690 7.9650 0.4154
108.1890 7.9516 0.4097
108.2090 7.9382 0.4006
108.2290 7.9249 0.4155
108.2490 7.9115 0.4010
108.2690 7.8982 0.3999
108.2890 7.8848 0.4136
108.3090 7.8715 0.3963
108.3290 7.8582 0.4023
108.3490 7.8449 0.4046
108.3690 7.8316 0.3965
108.3890 7.8182 0.3971
108.4090 7.8049 0.4107
108.4290 7.7916 0.3849
108.4490 7.7783 0.4000
108.4690 7.7649 0.4027
108.4890 7.7516 0.3870
108.5090 7.7383 0.4018
108.5290 7.7249 0.3946
108.5490 7.7115 0.3880
108.5690 7.6982 0.3999
108.5890 7.6849 0.3944
108.6090 7.6715 0.3783
108.6290 7.6582 0.4012
108.6490 7.6448 0.3804
108.6690 7.6315 0.3902
108.6890 7.6182 0.3868
108.7090 7.6049 0.3963
108.7290 7.5916 0.3765
108.7490 7.5782 0.3913
108.7690 7.5649 0.3877
108.7890 7.5516 0.3820
108.8090 7.5382 0.3897
108.8290 7.5249 0.3803
108.8490 7.5115 0.3841
108.8690 7.4982 0.3761
108.8890 7.4849 0.3828
108.9090 7.4715 0.3774
108.9290 7.4582 0.3849
108.9490 7.4449 0.3719
108.9690 7.4316 0.3865
108.9890 7.4182 0.3736
109.0090 7.4049 0.3798
109.0290 7.3916 0.3763
109.0490 7.3782 0.3778
109.0690 7.3649 0.3675
109.0890 7.3516 0.3760
109.1090 7.3382 0.3742
109.1290 7.3249 0.3676
109.1490 7.3116 0.3785
109.1690 7.2983 0.3614
109.1890 7.2849 0.3761
109.2090 7.2716 0.3686
109.2290 7.2582 0.3669
109.2490 7.2449 0.3651
109.2690 7.2315 0.3753
109.2890 7.2182 0.3561
109.3090 7.2049 0.3643
109.3290 7.1915 0.3678
109.3490 7.1782 0.3579
109.3690 7.1649 0.3667
109.3890 7.1515 0.3614
109.4090 7.1382 0.3561
109.4290 7.1249 0.3602
109.4490 7.1116 0.3636
109.4690 7.0982 0.3473
109.4890 7.0849 0.3691
109.5090 7.0716 0.3523
109.5290 7.0583 0.3546
109.5490 7.0449 0.3523
109.5690 7.0315 0.3612
109.5890 7.0182 0.3440
109.6090 7.0049 0.3556
109.6290 6.9916 0.3560
109.6490 6.9782 0.3438
109.6690 6.9649 0.3557
109.6890 6.9516 0.3492
109.7090 6.9382 0.3489
109.7290 6.9248 0.3463
109.7490 6.9115 0.3549
109.7690 6.8982 0.3377
109.7890 6.8849 0.3491
109.8090 6.8716 0.3438
109.8290 6.8582 0.3399
109.8490 6.8449 0.3454
109.8690 6.8316 0.3431
109.8890 6.8183 0.3378
109.9090 6.8049 0.3454
109.9290 6.7916 0.3398
109.9490 6.7783 0.3348
109.9690 6.7649 0.3398
109.9890 6.7515 0.3339
110.0090 6.7382 0.3371
110.0290 6.7249 0.3331
110.0490 6.7115 0.3392
110.0690 6.6982 0.3299
110.0890 6.6848 0.3360
110.1090 6.6715 0.3326
110.1290 6.6582 0.3275
110.1490 6.6449 0.3321
110.1690 6.6315 0.3309
110.1890 6.6182 0.3310
110.2090 6.6049 0.3266
110.2290 6.5916 0.3269
110.2490 6.5783 0.3211
110.2690 6.5649 0.3287
110.2890 6.5516 0.3245
110.3090 6.5383 0.3205
110.3290 6.5249 0.3238
110.3490 6.5116 0.3241
110.3690 6.4982 0.3197
110.3890 6.4848 0.3157
110.4090 6.4715 0.3241
110.4290 6.4582 0.3208
110.4490 6.4448 0.3142
110.4690 6.4315 0.3231
110.4890 6.4182 0.3165
110.5090 6.4049 0.3072
110.5290 6.3916 0.3211
110.5490 6.3783 0.3151
110.5690 6.3650 0.3079
110.5890 6.3517 0.3181
110.6090 6.3383 0.3043
110.6290 6.3249 0.3039
110.6490 6.3115 0.3163
110.6690 6.2982 0.3052
110.6890 6.2849 0.3029
110.7090 6.2715 0.3073
110.7290 6.2582 0.3008
110.7490 6.2449 0.3039
110.7690 6.2316 0.3096
110.7890 6.2182 0.2948
110.8090 6.2049 0.3035
110.8290 6.1915 0.3102
110.8490 6.1782 0.2932
110.8690 6.1649 0.2962
110.8890 6.1516 0.3047
110.9090 6.1382 0.2929
110.9290 6.1249 0.2929
110.9490 6.1116 0.3016
110.9690 6.0983 0.2899
110.9890 6.0849 0.2917
111.0090 6.0716 0.2985
111.0290 6.0583 0.2889
111.0490 6.0449 0.2873
111.0690 6.0316 0.2974
111.0890 6.0182 0.2862
111.1090 6.0048 0.2833
111.1290 5.9915 0.2906
111.1490 5.9782 0.2790
111.1690 5.9649 0.2812
111.1890 5.9515 0.2915
111.2090 5.9382 0.2788
111.2290 5.9249 0.2818
111.2490 5.9115 0.2901
111.2690 5.8982 0.2712
111.2890 5.8849 0.2807
111.3090 5.8716 0.2856
111.3290 5.8583 0.2676
111.3490 5.8449 0.2820
111.3690 5.8316 0.2811
111.3890 5.8183 0.2664
111.4090 5.8050 0.2775
111.4290 5.7916 0.2789
111.4490 5.7782 0.2648
111.4690 5.7649 0.2769
111.4890 5.7515 0.2756
111.5090 5.7382 0.2630
111.5290 5.7249 0.2711
111.5490 5.7115 0.2729
111.5690 5.6982 0.2616
111.5890 5.6849 0.2656
111.6090 5.6716 0.2635
111.6290 5.6582 0.2632
111.6490 5.6449 0.2679
111.6690 5.6316 0.2657
111.6890 5.6183 0.2540
111.7090 5.6049 0.2686
111.7290 5.5916 0.2642
111.7490 5.5783 0.2546
111.7690 5.5650 0.2618
111.7890 5.5516 0.2560
111.8090 5.5382 0.2510
111.8290 5.5249 0.2619
111.8490 5.5115 0.2558
111.8690 5.4982 0.2468
111.8890 5.4849 0.2590
111.9090 5.4715 0.2517
111.9290 5.4582 0.2473
111.9490 5.4449 0.2561
111.9690 5.4315 0.2469
111.9890 5.4182 0.2464
112.0090 5.4049 0.2513
112.0290 5.3916 0.2458
112.0490 5.3783 0.2470
112.0690 5.3649 0.2454
112.0890 5.3516 0.2438
112.1090 5.3382 0.2449
112.1290 5.3249 0.2460
112.1490 5.3116 0.2344
112.1690 5.2982 0.2473
112.1890 5.2848 0.2408
112.2090 5.2715 0.2344
112.2290 5.2582 0.2449
112.2490 5.2449 0.2343
112.2690 5.2315 0.2355
112.2890 5.2182 0.2430
112.3090 5.2049 0.2285
112.3290 5.1916 0.2335
112.3490 5.1782 0.2393
112.3690 5.1649 0.2310
112.3890 5.1516 0.2283
112.4090 5.1383 0.2328
112.4290 5.1249 0.2291
112.4490 5.1116 0.2271
112.4690 5.0982 0.2309
112.4890 5.0849 0.2229
112.5090 5.0716 0.2254
112.5290 5.0582 0.2271
112.5490 5.0448 0.2230
112.5690 5.0315 0.2253
112.5890 5.0182 0.2213
112.6090 5.0048 0.2188
112.6290 4.9915 0.2231
112.6490 4.9782 0.2185
112.6690 4.9649 0.2174
112.6890 4.9516 0.2173
112.7090 4.9382 0.2112
112.7290 4.9249 0.2183
112.7490 4.9116 0.2193
112.7690 4.8983 0.2063
112.7890 4.8849 0.2166
112.8090 4.8715 0.2088
112.8290 4.8582 0.2088
112.8490 4.8449 0.2138
112.8690 4.8316 0.2019
112.8890 4.8182 0.2043
112.9090 4.8049 0.2118
112.9290 4.7916 0.2017
112.9490 4.7782 0.2010
112.9690 4.7649 0.2115
112.9890 4.7516 0.1976
113.0090 4.7382 0.1997
113.0290 4.7249 0.2076
113.0490 4.7116 0.1901
113.0690 4.6982 0.2086
113.0890 4.6849 0.2028
113.1090 4.6716 0.1847
113.1290 4.6583 0.2045
113.1490 4.6449 0.1950
113.1690 4.6316 0.1829
113.1890 4.6183 0.2037
113.2090 4.6049 0.1885
113.2290 4.5916 0.1784
113.2490 4.5782 0.1974
113.2690 4.5648 0.1871
113.2890 4.5515 0.1805
113.3090 4.5382 0.1913
113.3290 4.5249 0.1816
113.3490 4.5115 0.1792
113.3690 4.4982 0.1905
113.3890 4.4849 0.1783
113.4090 4.4715 0.1817
113.4290 4.4582 0.1816
113.4490 4.4449 0.1805
113.4690 4.4316 0.1797
113.4890 4.4183 0.1749
113.5090 4.4049 0.1784
113.5290 4.3916 0.1743
113.5490 4.3782 0.1704
113.5690 4.3649 0.1765
113.5890 4.3516 0.1714
113.6090 4.3382 0.1681
113.6290 4.3248 0.1739
113.6490 4.3115 0.1700
113.6690 4.2982 0.1562
113.6890 4.2848 0.1792
113.7090 4.2715 0.1656
113.7290 4.2582 0.1601
113.7490 4.2449 0.1707
113.7690 4.2316 0.1549
113.7890 4.2182 0.1590
113.8090 4.2049 0.1696
113.8290 4.1916 0.1586
113.8490 4.1783 0.1530
113.8690 4.1649 0.1665
113.8890 4.1516 0.1501
113.9090 4.1382 0.1529
113.9290 4.1249 0.1649
113.9490 4.1116 0.1423
113.9690 4.0982 0.1530
113.9890 4.0849 0.1576
114.0090 4.0715 0.1388
114.0290 4.0582 0.1537
114.0490 4.0449 0.1508
114.0690 4.0315 0.1377
114.0890 4.0182 0.1520
114.1090 4.0049 0.1461
114.1290 3.9915 0.1362
114.1490 3.9782 0.1507
114.1690 3.9649 0.1435
114.1890 3.9516 0.1358
114.2090 3.9383 0.1417
114.2290 3.9249 0.1398
114.2490 3.9116 0.1359
114.2690 3.8982 0.1364
114.2890 3.8849 0.1345
114.3090 3.8716 0.1305
114.3290 3.8582 0.1320
114.3490 3.8449 0.1358
114.3690 3.8315 0.1287
114.3890 3.8182 0.1282
114.4090 3.8049 0.1319
114.4290 3.7915 0.1247
114.4490 3.7782 0.1296
114.4690 3.7649 0.1342
114.4890 3.7516 0.1171
114.5090 3.7382 0.1208
114.5290 3.7249 0.1284
114.5490 3.7116 0.1167
114.5690 3.6983 0.1197
114.5890 3.6849 0.1298
114.6090 3.6716 0.1114
114.6290 3.6582 0.1154
114.6490 3.6449 0.1233
114.6690 3.6316 0.1072
114.6890 3.6182 0.1139
114.7090 3.6049 0.1227
114.7290 3.5915 0.1011
114.7490 3.5782 0.1127
114.7690 3.5649 0.1145
114.7890 3.5515 0.1038
114.8090 3.5382 0.1086
114.8290 3.5249 0.1100
114.8490 3.5115 0.0979
114.8690 3.4982 0.1047
114.8890 3.4849 0.1113
114.9090 3.4716 0.0943
114.9290 3.4583 0.1057
114.9490 3.4449 0.1013
114.9690 3.4316 0.0904
114.9890 3.4182 0.1063
115.0090 3.4049 0.0976
115.0290 3.3916 0.0881
115.0490 3.3782 0.0998
115.0690 3.3649 0.0968
115.0890 3.3516 0.0865
115.1090 3.3383 0.0933
115.1290 3.3249 0.0953
115.1490 3.3115 0.0807
115.1690 3.2982 0.0910
115.1890 3.2848 0.0946
115.2090 3.2715 0.0802
115.2290 3.2582 0.0839
115.2490 3.2448 0.0928
115.2690 3.2315 0.0784
115.2890 3.2183 0.0823
115.3090 3.2049 0.0843
115.3290 3.1916 0.0767
115.3490 3.1783 0.0790
115.3690 3.1650 0.0811
115.3890 3.1516 0.0681
115.4090 3.1383 0.0735
115.4290 3.1249 0.0793
115.4490 3.1115 0.0649
115.4690 3.0982 0.0701
115.4890 3.0848 0.0759
115.5090 3.0715 0.0617
115.5290 3.0581 0.0748
115.5490 3.0448 0.0700
115.5690 3.0316 0.0584
115.5890 3.0182 0.0722
115.6090 3.0049 0.0676
115.6290 2.9916 0.0557
115.6490 2.9783 0.0680
115.6690 2.9650 0.0599
115.6890 2.9516 0.0532
115.7090 2.9382 0.0681
115.7290 2.9249 0.0526
115.7490 2.9116 0.0512
115.7690 2.8982 0.0644
115.7890 2.8848 0.0463
115.8090 2.8715 0.0510
115.8290 2.8582 0.0600
115.8490 2.8449 0.0443
115.8690 2.8315 0.0517
115.8890 2.8182 0.0623
115.9090 2.8049 0.0476
115.9290 2.7916 0.0538
115.9490 2.7782 0.0487
115.9690 2.7649 0.0428
115.9890 2.7516 0.0549
116.0090 2.7383 0.0437
116.0290 2.7250 0.0406
116.0490 2.7116 0.0462
116.0690 2.6982 0.0448
116.0890 2.6849 0.0369
116.1090 2.6716 0.0414
116.1290 2.6582 0.0379
116.1490 2.6449 0.0355
116.1690 2.6315 0.0413
116.1890 2.6182 0.0338
116.2090 2.6049 0.0311
116.2290 2.5916 0.0372
116.2490 2.5782 0.0251
116.2690 2.5649 0.0302
116.2890 2.5516 0.0312
116.3090 2.5382 0.0258
116.3290 2.5249 0.0284
116.3490 2.5116 0.0230
116.3690 2.4983 0.0213
116.3890 2.4849 0.0255
116.4090 2.4716 0.0191
116.4290 2.4582 0.0177
116.4490 2.4449 0.0235
116.4690 2.4316 0.0169
116.4890 2.4182 0.0181
116.5090 2.4049 0.0197
116.5290 2.3915 0.0126
116.5490 2.3782 0.0158
116.5690 2.3649 0.0145
116.5890 2.3515 0.0112
116.6090 2.3382 0.0114
116.6290 2.3248 0.0131
116.6490 2.3115 0.0127
116.6690 2.2982 0.0085
116.6890 2.2849 0.0071
116.7090 2.2716 0.0127
116.7290 2.2583 0.0062
116.7490 2.2449 -0.0015
116.7690 2.2316 0.0103
116.7890 2.2182 0.0024
116.8090 2.2049 -0.0015
116.8290 2.1916 0.0056
116.8490 2.1783 0.0023
116.8690 2.1649 -0.0035
116.8890 2.1515 0.0077
116.9090 2.1382 -0.0044
116.9290 2.1249 -0.0014
116.9490 2.1115 0.0004
116.9690 2.0981 -0.0012
116.9890 2.0848 -0.0037
117.0090 2.0715 -0.0009
117.0290 2.0582 -0.0028
117.0490 2.0449 -0.0046
117.0690 2.0316 -0.0009
117.0890 2.0183 -0.0040
117.1090 2.0050 -0.0027
117.1290 1.9916 -0.0094
117.1490 1.9783 -0.0009
117.1690 1.9649 -0.0068
117.1890 1.9516 -0.0035
117.2090 1.9383 -0.0076
117.2290 1.9249 -0.0107
117.2490 1.9115 -0.0024
117.2690 1.8982 -0.0103
117.2890 1.8849 -0.0101
117.3090 1.8715 -0.0024
117.3290 1.8582 -0.0088
117.3490 1.8448 -0.0143
117.3690 1.8316 -0.0036
117.3890 1.8182 -0.0080
117.4090 1.8049 -0.0165
117.4290 1.7915 -0.0073
117.4490 1.7783 -0.0076
117.4690 1.7650 -0.0142
117.4890 1.7516 -0.0048
117.5090 1.7383 -0.0131
117.5290 1.7250 -0.0179
117.5490 1.7116 -0.0045
117.5690 1.6983 -0.0181
117.5890 1.6849 -0.0136
117.6090 1.6715 -0.0035
117.6290 1.6581 -0.0155
117.6490 1.6448 -0.0156
117.6690 1.6315 -0.0066
117.6890 1.6182 -0.0150
117.7090 1.6048 -0.0129
117.7290 1.5915 -0.0071
117.7490 1.5782 -0.0199
117.7690 1.5649 -0.0137
117.7890 1.5516 -0.0035
117.8090 1.5383 -0.0213
117.8290 1.5250 -0.0145
117.8490 1.5116 -0.0047
117.8690 1.4982 -0.0210
117.8890 1.4849 -0.0114
117.9090 1.4716 -0.0073
117.9290 1.4582 -0.0204
117.9490 1.4449 -0.0077
117.9690 1.4315 -0.0072
117.9890 1.4182 -0.0191
118.0090 1.4049 -0.0130
118.0290 1.3916 -0.0085
118.0490 1.3782 -0.0163
118.0690 1.3649 -0.0125
118.0890 1.3515 -0.0072
118.1090 1.3382 -0.0170
118.1290 1.3249 -0.0103
118.1490 1.3115 -0.0101
118.1690 1.2982 -0.0116
118.1890 1.2849 -0.0128
118.2090 1.2716 -0.0137
118.2290 1.2582 -0.0138
118.2490 1.2449 -0.0137
118.2690 1.2316 -0.0116
118.2890 1.2183 -0.0159
118.3090 1.2049 -0.0134
118.3290 1.1915 -0.0089
118.3490 1.1782 -0.0157
118.3690 1.1649 -0.0093
118.3890 1.1516 -0.0139
118.4090 1.1382 -0.0154
118.4290 1.1249 -0.0138
118.4490 1.1116 -0.0122
118.4690 1.0982 -0.0174
118.4890 1.0849 -0.0090
118.5090 1.0715 -0.0083
118.5290 1.0582 -0.0246
118.5490 1.0449 -0.0093
118.5690 1.0316 -0.0082
118.5890 1.0182 -0.0198
118.6090 1.0049 -0.0077
118.6290 0.9916 -0.0096
118.6490 0.9783 -0.0190
118.6690 0.9649 -0.0089
118.6890 0.9515 -0.0095
118.7090 0.9382 -0.0156
118.7290 0.9249 -0.0129
118.7490 0.9116 -0.0141
118.7690 0.8982 -0.0141
118.7890 0.8849 -0.0094
118.8090 0.8716 -0.0170
118.8290 0.8582 -0.0117
118.8490 0.8449 -0.0129
118.8690 0.8315 -0.0149
118.8890 0.8183 -0.0113
118.9090 0.8049 -0.0122
118.9290 0.7916 -0.0109
118.9490 0.7782 -0.0135
118.9690 0.7649 -0.0119
118.9890 0.7516 -0.0106
119.0090 0.7383 -0.0176
119.0290 0.7249 -0.0114
119.0490 0.7115 -0.0118
119.0690 0.6982 -0.0120
119.0890 0.6849 -0.0179
119.1090 0.6715 -0.0091
119.1290 0.6582 -0.0109
119.1490 0.6448 -0.0102
119.1690 0.6315 -0.0120
119.1890 0.6182 -0.0138
119.2090 0.6049 -0.0103
119.2290 0.5915 -0.0120
119.2490 0.5782 -0.0136
119.2690 0.5650 -0.0113
119.2890 0.5516 -0.0132
119.3090 0.5382 -0.0143
119.3290 0.5249 -0.0075
119.3490 0.5116 -0.0122
119.3690 0.4982 -0.0166
119.3890 0.4849 -0.0089
119.4090 0.4715 -0.0130
119.4290 0.4582 -0.0160
119.4490 0.4449 -0.0043
119.4690 0.4316 -0.0121
119.4890 0.4182 -0.0143
119.5090 0.4049 -0.0081
119.5290 0.3916 -0.0106
119.5490 0.3782 -0.0117
119.5690 0.3649 -0.0084
119.5890 0.3516 -0.0118
119.6090 0.3382 -0.0084
119.6290 0.3249 -0.0104
119.6490 0.3116 -0.0115
119.6690 0.2982 -0.0075
119.6890 0.2849 -0.0088
119.7090 0.2716 -0.0147
119.7290 0.2583 -0.0100
119.7490 0.2449 -0.0111
119.7690 0.2315 -0.0113
119.7890 0.2182 -0.0069
119.8090 0.2049 -0.0125
119.8290 0.1915 -0.0172
119.8490 0.1782 -0.0076
119.8690 0.1648 -0.0118
119.8890 0.1516 -0.0143
119.9090 0.1383 -0.0117
119.9290 0.1249 -0.0160
119.9490 0.1116 -0.0094
119.9690 0.0983 -0.0116
119.9890 0.0850 -0.0137
120.0090 0.0716 -0.0064
120.0290 0.0582 -0.0140
120.0490 0.0449 -0.0112
120.0690 0.0316 -0.0104
120.0890 0.0182 -0.0119
120.1090 0.0049 -0.0074
120.1170 -0.0003 0.0090
