Raw Data
Time Displacement Force
(s) (mm) (N)
0.0000 0.0000 -0.0017
0.0200 0.0001 0.0117
0.0400 0.0020 0.0727
0.0600 0.0094 0.0721
0.0800 0.0211 -0.0129
0.1000 0.0336 -0.0095
0.1200 0.0462 0.0272
0.1400 0.0596 0.0008
0.1600 0.0737 -0.0059
0.1800 0.0880 0.0107
0.2000 0.1019 -0.0131
0.2200 0.1155 -0.0086
0.2400 0.1288 0.0162
0.2600 0.1421 -0.0110
0.2800 0.1554 0.0027
0.3000 0.1688 0.0088
0.3200 0.1822 -0.0080
0.3400 0.1955 0.0100
0.3600 0.2089 0.0026
0.3800 0.2222 -0.0010
0.4000 0.2356 0.0088
0.4200 0.2489 0.0020
0.4400 0.2623 0.0008
0.4600 0.2756 0.0120
0.4800 0.2889 -0.0012
0.5000 0.3023 -0.0006
0.5200 0.3156 0.0083
0.5400 0.3289 0.0025
0.5600 0.3422 0.0027
0.5800 0.3556 0.0067
0.6000 0.3689 -0.0017
0.6200 0.3822 0.0028
0.6400 0.3955 0.0075
0.6600 0.4089 0.0008
0.6800 0.4222 0.0011
0.7000 0.4355 0.0079
0.7200 0.4489 0.0041
0.7400 0.4622 0.0000
0.7600 0.4756 0.0060
0.7800 0.4889 0.0072
0.8000 0.5023 0.0028
0.8200 0.5156 0.0030
0.8400 0.5290 0.0056
0.8600 0.5423 0.0047
0.8800 0.5556 0.0095
0.9000 0.5689 0.0064
0.9200 0.5822 0.0063
0.9400 0.5956 0.0062
0.9600 0.6089 0.0005
0.9800 0.6221 0.0101
1.0000 0.6355 0.0131
1.0200 0.6488 0.0022
1.0400 0.6622 0.0124
1.0600 0.6755 0.0040
1.0800 0.6889 0.0042
1.1000 0.7023 0.0135
1.1200 0.7156 0.0063
1.1400 0.7290 0.0042
1.1600 0.7423 0.0102
1.1800 0.7556 0.0125
1.2000 0.7690 0.0036
1.2200 0.7823 0.0115
1.2400 0.7956 0.0088
1.2600 0.8089 0.0082
1.2800 0.8222 0.0137
1.3000 0.8356 0.0050
1.3200 0.8489 0.0097
1.3400 0.8622 0.0095
1.3600 0.8755 0.0104
1.3800 0.8889 0.0041
1.4000 0.9022 0.0057
1.4200 0.9155 0.0115
1.4400 0.9289 0.0038
1.4600 0.9423 0.0093
1.4800 0.9556 0.0108
1.5000 0.9690 0.0016
1.5200 0.9823 0.0055
1.5400 0.9956 0.0148
1.5600 1.0089 0.0051
1.5800 1.0223 0.0049
1.6000 1.0356 0.0130
1.6200 1.0489 0.0080
1.6400 1.0622 0.0088
1.6600 1.0755 0.0112
1.6800 1.0889 0.0071
1.7000 1.1022 0.0102
1.7200 1.1155 0.0128
1.7400 1.1289 0.0075
1.7600 1.1423 0.0103
1.7800 1.1556 0.0137
1.8000 1.1689 0.0079
1.8200 1.1823 0.0069
1.8400 1.1956 0.0157
1.8600 1.2089 0.0070
1.8800 1.2222 0.0084
1.9000 1.2356 0.0167
1.9200 1.2489 0.0065
1.9400 1.2623 0.0071
1.9600 1.2756 0.0203
1.9800 1.2889 0.0065
2.0000 1.3023 0.0071
2.0200 1.3156 0.0197
2.0400 1.3289 0.0052
2.0600 1.3422 0.0114
2.0800 1.3555 0.0268
2.1000 1.3689 0.0047
2.1200 1.3822 0.0109
2.1400 1.3955 0.0226
2.1600 1.4089 0.0062
2.1800 1.4222 0.0174
2.2000 1.4356 0.0226
2.2200 1.4490 0.0090
2.2400 1.4623 0.0206
2.2600 1.4756 0.0206
2.2800 1.4890 0.0139
2.3000 1.5023 0.0158
2.3200 1.5156 0.0265
2.3400 1.5289 0.0164
2.3600 1.5423 0.0213
2.3800 1.5556 0.0247
2.4000 1.5690 0.0141
2.4200 1.5822 0.0282
2.4400 1.5955 0.0266
2.4600 1.6089 0.0177
2.4800 1.6222 0.0284
2.5000 1.6355 0.0266
2.5200 1.6488 0.0222
2.5400 1.6622 0.0319
2.5600 1.6756 0.0278
2.5800 1.6890 0.0214
2.6000 1.7023 0.0323
2.6200 1.7156 0.0342
2.6400 1.7290 0.0263
2.6600 1.7423 0.0361
2.6800 1.7556 0.0340
2.7000 1.7689 0.0331
2.7200 1.7822 0.0439
2.7400 1.7956 0.0408
2.7600 1.8089 0.0414
2.7800 1.8222 0.0568
2.8000 1.8355 0.0456
2.8200 1.8489 0.0525
2.8400 1.8623 0.0613
2.8600 1.8756 0.0565
2.8800 1.8889 0.0569
2.9000 1.9022 0.0742
2.9200 1.9156 0.0653
2.9400 1.9289 0.0693
2.9600 1.9423 0.0832
2.9800 1.9556 0.0719
3.0000 1.9690 0.0783
3.0200 1.9823 0.0861
3.0400 1.9956 0.0841
3.0600 2.0089 0.0894
3.0800 2.0223 0.0973
3.1000 2.0356 0.0936
3.1200 2.0489 0.0976
3.1400 2.0622 0.1068
3.1600 2.0755 0.1044
3.1800 2.0888 0.1108
3.2000 2.1022 0.1089
3.2200 2.1156 0.1137
3.2400 2.1289 0.1125
3.2600 2.1423 0.1173
3.2800 2.1556 0.1292
3.3000 2.1690 0.1205
3.3200 2.1823 0.1283
3.3400 2.1956 0.1368
3.3600 2.2089 0.1355
3.3800 2.2223 0.1383
3.4000 2.2356 0.1406
3.4200 2.2489 0.1426
3.4400 2.2622 0.1461
3.4600 2.2756 0.1492
3.4800 2.2889 0.1509
3.5000 2.3022 0.1564
3.5200 2.3156 0.1577
3.5400 2.3289 0.1590
3.5600 2.3422 0.1655
3.5800 2.3555 0.1628
3.6000 2.3689 0.1706
3.6200 2.3822 0.1720
3.6400 2.3956 0.1768
3.6600 2.4090 0.1781
3.6800 2.4223 0.1792
3.7000 2.4356 0.1854
3.7200 2.4490 0.1891
3.7400 2.4623 0.1810
3.7600 2.4756 0.1892
3.7800 2.4889 0.2006
3.8000 2.5022 0.1900
3.8200 2.5156 0.1952
3.8400 2.5289 0.2079
3.8600 2.5422 0.1963
3.8800 2.5555 0.2105
3.9000 2.5689 0.2125
3.9200 2.5822 0.2026
3.9400 2.5956 0.2163
3.9600 2.6089 0.2204
3.9800 2.6222 0.2086
4.0000 2.6356 0.2246
4.0200 2.6489 0.2244
4.0400 2.6623 0.2146
4.0600 2.6756 0.2379
4.0800 2.6889 0.2290
4.1000 2.7023 0.2226
4.1200 2.7156 0.2451
4.1400 2.7289 0.2372
4.1600 2.7423 0.2305
4.1800 2.7556 0.2470
4.2000 2.7690 0.2403
4.2200 2.7822 0.2434
4.2400 2.7955 0.2545
4.2600 2.8088 0.2534
4.2800 2.8222 0.2499
4.3000 2.8355 0.2590
4.3200 2.8488 0.2582
4.3400 2.8622 0.2603
4.3600 2.8756 0.2674
4.3800 2.8890 0.2628
4.4000 2.9023 0.2616
4.4200 2.9156 0.2726
4.4400 2.9290 0.2699
4.4600 2.9423 0.2742
4.4800 2.9557 0.2788
4.5000 2.9689 0.2758
4.5200 2.9822 0.2816
4.5400 2.9956 0.2856
4.5600 3.0089 0.2815
4.5800 3.0222 0.2871
4.6000 3.0355 0.2917
4.6200 3.0488 0.2875
4.6400 3.0622 0.3001
4.6600 3.0755 0.2935
4.6800 3.0889 0.2947
4.7000 3.1022 0.3061
4.7200 3.1156 0.2984
4.7400 3.1290 0.3013
4.7600 3.1423 0.3075
4.7800 3.1557 0.3093
4.8000 3.1690 0.3125
4.8200 3.1823 0.3123
4.8400 3.1956 0.3100
4.8600 3.2089 0.3213
4.8800 3.2222 0.3129
4.9000 3.2355 0.3190
4.9200 3.2489 0.3264
4.9400 3.2622 0.3175
4.9600 3.2755 0.3289
4.9800 3.2888 0.3319
5.0000 3.3022 0.3268
5.0200 3.3156 0.3344
5.0400 3.3289 0.3348
5.0600 3.3422 0.3317
5.0800 3.3556 0.3436
5.1000 3.3690 0.3359
5.1200 3.3823 0.3385
5.1400 3.3956 0.3487
5.1600 3.4089 0.3409
5.1800 3.4223 0.3447
5.2000 3.4356 0.3556
5.2200 3.4489 0.3454
5.2400 3.4623 0.3548
5.2600 3.4756 0.3574
5.2800 3.4889 0.3534
5.3000 3.5022 0.3599
5.3200 3.5155 0.3627
5.3400 3.5288 0.3628
5.3600 3.5422 0.3658
5.3800 3.5556 0.3661
5.4000 3.5689 0.3663
5.4200 3.5822 0.3719
5.4400 3.5956 0.3734
5.4600 3.6090 0.3694
5.4800 3.6223 0.3723
5.5000 3.6356 0.3790
5.5200 3.6490 0.3751
5.5400 3.6623 0.3819
5.5600 3.6756 0.3839
5.5800 3.6889 0.3795
5.6000 3.7022 0.3902
5.6200 3.7155 0.3861
5.6400 3.7289 0.3853
5.6600 3.7422 0.3933
5.6800 3.7556 0.3901
5.7000 3.7689 0.3932
5.7200 3.7822 0.3971
5.7400 3.7956 0.3956
5.7600 3.8089 0.3965
5.7800 3.8222 0.4030
5.8000 3.8356 0.4042
5.8200 3.8489 0.4027
5.8400 3.8623 0.4050
5.8600 3.8756 0.4085
5.8800 3.8890 0.4082
5.9000 3.9023 0.4129
5.9200 3.9157 0.4111
5.9400 3.9289 0.4169
5.9600 3.9422 0.4179
5.9800 3.9556 0.4196
6.0000 3.9689 0.4219
6.0200 3.9822 0.4212
6.0400 3.9956 0.4215
6.0600 4.0089 0.4265
6.0800 4.0222 0.4242
6.1000 4.0355 0.4258
6.1200 4.0489 0.4301
6.1400 4.0622 0.4356
6.1600 4.0756 0.4284
6.1800 4.0890 0.4341
6.2000 4.1023 0.4379
6.2200 4.1156 0.4351
6.2400 4.1289 0.4433
6.2600 4.1423 0.4408
6.2800 4.1556 0.4395
6.3000 4.1689 0.4493
6.3200 4.1823 0.4434
6.3400 4.1956 0.4463
6.3600 4.2089 0.4563
6.3800 4.2223 0.4431
6.4000 4.2355 0.4515
6.4200 4.2488 0.4587
6.4400 4.2622 0.4532
6.4600 4.2755 0.4533
6.4800 4.2888 0.4615
6.5000 4.3022 0.4584
6.5200 4.3156 0.4579
6.5400 4.3290 0.4666
6.5600 4.3423 0.4611
6.5800 4.3557 0.4642
6.6000 4.3690 0.4666
6.6200 4.3823 0.4636
6.6400 4.3957 0.4732
6.6600 4.4089 0.4724
6.6800 4.4222 0.4714
6.7000 4.4355 0.4775
6.7200 4.4489 0.4789
6.7400 4.4622 0.4721
6.7600 4.4755 0.4778
6.7800 4.4889 0.4822
6.8000 4.5022 0.4809
6.8200 4.5156 0.4784
6.8400 4.5289 0.4847
6.8600 4.5422 0.4870
6.8800 4.5556 0.4849
6.9000 4.5690 0.4862
6.9200 4.5823 0.4903
6.9400 4.5956 0.4895
6.9600 4.6089 0.4914
6.9800 4.6223 0.4929
7.0000 4.6356 0.4922
7.0200 4.6489 0.4973
7.0400 4.6622 0.5016
7.0600 4.6756 0.4999
7.0800 4.6889 0.5033
7.1000 4.7022 0.5078
7.1200 4.7155 0.4953
7.1400 4.7288 0.5069
7.1600 4.7422 0.5113
7.1800 4.7556 0.5021
7.2000 4.7689 0.5094
7.2200 4.7822 0.5121
7.2400 4.7956 0.5087
7.2600 4.8090 0.5140
7.2800 4.8223 0.5158
7.3000 4.8356 0.5127
7.3200 4.8489 0.5251
7.3400 4.8623 0.5223
7.3600 4.8756 0.5150
7.3800 4.8889 0.5274
7.4000 4.9022 0.5246
7.4200 4.9156 0.5242
7.4400 4.9289 0.5295
7.4600 4.9422 0.5259
7.4800 4.9555 0.5290
7.5000 4.9688 0.5326
7.5200 4.9822 0.5299
7.5400 4.9955 0.5302
7.5600 5.0089 0.5362
7.5800 5.0222 0.5366
7.6000 5.0356 0.5353
7.6200 5.0490 0.5373
7.6400 5.0623 0.5383
7.6600 5.0756 0.5435
7.6800 5.0890 0.5406
7.7000 5.1023 0.5402
7.7200 5.1156 0.5466
7.7400 5.1289 0.5462
7.7600 5.1422 0.5477
7.7800 5.1556 0.5487
7.8000 5.1689 0.5476
7.8200 5.1822 0.5563
7.8400 5.1955 0.5518
7.8600 5.2089 0.5484
7.8800 5.2222 0.5600
7.9000 5.2356 0.5558
7.9200 5.2489 0.5535
7.9400 5.2622 0.5653
7.9600 5.2756 0.5639
7.9800 5.2890 0.5524
8.0000 5.3023 0.5664
8.0200 5.3156 0.5644
8.0400 5.3289 0.5638
8.0600 5.3423 0.5663
8.0800 5.3557 0.5620
8.1000 5.3690 0.5670
8.1200 5.3823 0.5727
8.1400 5.3956 0.5698
8.1600 5.4089 0.5732
8.1800 5.4222 0.5756
8.2000 5.4355 0.5738
8.2200 5.4488 0.5703
8.2400 5.4622 0.5797
8.2600 5.4755 0.5807
8.2800 5.4889 0.5769
8.3000 5.5022 0.5794
8.3200 5.5156 0.5826
8.3400 5.5290 0.5824
8.3600 5.5423 0.5822
8.3800 5.5556 0.5892
8.4000 5.5689 0.5835
8.4200 5.5823 0.5880
8.4400 5.5956 0.5912
8.4600 5.6090 0.5857
8.4800 5.6222 0.5959
8.5000 5.6356 0.5986
8.5200 5.6489 0.5884
8.5400 5.6622 0.5952
8.5600 5.6755 0.5994
8.5800 5.6888 0.5911
8.6000 5.7022 0.6022
8.6200 5.7155 0.6029
8.6400 5.7289 0.5921
8.6600 5.7422 0.6053
8.6800 5.7556 0.6042
8.7000 5.7689 0.5976
8.7200 5.7823 0.6061
8.7400 5.7956 0.6078
8.7600 5.8090 0.6008
8.7800 5.8223 0.6110
8.8000 5.8356 0.6090
8.8200 5.8489 0.6051
8.8400 5.8622 0.6168
8.8600 5.8755 0.6100
8.8800 5.8889 0.6092
8.9000 5.9022 0.6266
8.9200 5.9155 0.6078
8.9400 5.9289 0.6152
8.9600 5.9422 0.6260
8.9800 5.9556 0.6096
9.0000 5.9690 0.6197
9.0200 5.9823 0.6301
9.0400 5.9956 0.6149
9.0600 6.0090 0.6227
9.0800 6.0223 0.6297
9.1000 6.0356 0.6175
9.1200 6.0489 0.6322
9.1400 6.0622 0.6297
9.1600 6.0756 0.6169
9.1800 6.0890 0.6379
9.2000 6.1023 0.6265
9.2200 6.1156 0.6276
9.2400 6.1289 0.6410
9.2600 6.1423 0.6277
9.2800 6.1556 0.6317
9.3000 6.1689 0.6424
9.3200 6.1822 0.6342
9.3400 6.1956 0.6357
9.3600 6.2089 0.6440
9.3800 6.2222 0.6349
9.4000 6.2355 0.6461
9.4200 6.2489 0.6429
9.4400 6.2623 0.6387
9.4600 6.2756 0.6449
9.4800 6.2889 0.6436
9.5000 6.3023 0.6440
9.5200 6.3156 0.6455
9.5400 6.3290 0.6499
9.5600 6.3423 0.6499
9.5800 6.3556 0.6490
9.6000 6.3689 0.6508
9.6200 6.3823 0.6498
9.6400 6.3956 0.6571
9.6600 6.4089 0.6524
9.6800 6.4222 0.6535
9.7000 6.4355 0.6559
9.7200 6.4489 0.6582
9.7400 6.4622 0.6582
9.7600 6.4755 0.6609
9.7800 6.4889 0.6601
9.8000 6.5023 0.6560
9.8200 6.5156 0.6609
9.8400 6.5290 0.6631
9.8600 6.5423 0.6622
9.8800 6.5557 0.6637
9.9000 6.5690 0.6627
9.9200 6.5823 0.6682
9.9400 6.5956 0.6717
9.9600 6.6089 0.6669
9.9800 6.6222 0.6697
10.0000 6.6356 0.6709
10.0200 6.6489 0.6730
10.0400 6.6622 0.6722
10.0600 6.6756 0.6719
10.0800 6.6889 0.6720
10.1000 6.7022 0.6749
10.1200 6.7155 0.6742
10.1400 6.7289 0.6799
10.1600 6.7423 0.6757
10.1800 6.7556 0.6809
10.2000 6.7689 0.6788
10.2200 6.7823 0.6763
10.2400 6.7957 0.6862
10.2600 6.8090 0.6827
10.2800 6.8223 0.6761
10.3000 6.8356 0.6923
10.3200 6.8489 0.6889
10.3400 6.8623 0.6785
10.3600 6.8756 0.6906
10.3800 6.8889 0.6888
10.4000 6.9022 0.6861
10.4200 6.9155 0.6982
10.4400 6.9289 0.6875
10.4600 6.9422 0.6838
10.4800 6.9556 0.7013
10.5000 6.9689 0.6881
10.5200 6.9823 0.6920
10.5400 6.9957 0.7057
10.5600 7.0089 0.6900
10.5800 7.0223 0.6965
10.6000 7.0356 0.7059
10.6200 7.0489 0.6931
10.6400 7.0622 0.6983
10.6600 7.0755 0.7115
10.6800 7.0889 0.6966
10.7000 7.1023 0.6976
10.7200 7.1156 0.7145
10.7400 7.1289 0.6990
10.7600 7.1422 0.7056
10.7800 7.1556 0.7136
10.8000 7.1689 0.7055
10.8200 7.1822 0.7056
10.8400 7.1956 0.7167
10.8600 7.2089 0.7091
10.8800 7.2223 0.7085
10.9000 7.2356 0.7181
10.9200 7.2489 0.7105
10.9400 7.2623 0.7131
10.9600 7.2756 0.7205
10.9800 7.2888 0.7120
11.0000 7.3021 0.7214
11.0200 7.3155 0.7207
11.0400 7.3289 0.7144
11.0600 7.3423 0.7220
11.0800 7.3556 0.7228
11.1000 7.3689 0.7157
11.1200 7.3823 0.7267
11.1400 7.3956 0.7222
11.1600 7.4090 0.7181
11.1800 7.4223 0.7290
11.2000 7.4356 0.7254
11.2200 7.4489 0.7266
11.2400 7.4623 0.7277
11.2600 7.4756 0.7245
11.2800 7.4889 0.7330
11.3000 7.5022 0.7283
11.3200 7.5156 0.7297
11.3400 7.5290 0.7355
11.3600 7.5423 0.7286
11.3800 7.5556 0.7343
11.4000 7.5690 0.7376
11.4200 7.5823 0.7311
11.4400 7.5956 0.7371
11.4600 7.6089 0.7405
11.4800 7.6221 0.7321
11.5000 7.6355 0.7453
11.5200 7.6489 0.7377
11.5400 7.6622 0.7357
11.5600 7.6755 0.7490
11.5800 7.6889 0.7413
11.6000 7.7023 0.7384
11.6200 7.7157 0.7506
11.6400 7.7290 0.7385
11.6600 7.7423 0.7447
11.6800 7.7557 0.7542
11.7000 7.7690 0.7397
11.7200 7.7823 0.7485
11.7400 7.7956 0.7603
11.7600 7.8089 0.7452
11.7800 7.8223 0.7523
11.8000 7.8356 0.7575
11.8200 7.8488 0.7447
11.8400 7.8622 0.7531
11.8600 7.8755 0.7615
11.8800 7.8888 0.7483
11.9000 7.9022 0.7562
11.9200 7.9155 0.7618
11.9400 7.9289 0.7512
11.9600 7.9423 0.7581
11.9800 7.9557 0.7639
12.0000 7.9690 0.7544
12.0200 7.9823 0.7608
12.0400 7.9956 0.7659
12.0600 8.0090 0.7553
12.0800 8.0223 0.7642
12.1000 8.0356 0.7663
12.1200 8.0489 0.7604
12.1400 8.0622 0.7662
12.1600 8.0755 0.7684
12.1800 8.0888 0.7597
12.2000 8.1022 0.7693
12.2200 8.1155 0.7712
12.2400 8.1289 0.7650
12.2600 8.1422 0.7672
12.2800 8.1556 0.7714
12.3000 8.1689 0.7668
12.3200 8.1823 0.7655
12.3400 8.1957 0.7765
12.3600 8.2090 0.7670
12.3800 8.2223 0.7724
12.4000 8.2356 0.7827
12.4200 8.2490 0.7684
12.4400 8.2623 0.7775
12.4600 8.2756 0.7851
12.4800 8.2889 0.7733
12.5000 8.3023 0.7747
12.5200 8.3156 0.7878
12.5400 8.3289 0.7743
12.5600 8.3422 0.7808
12.5800 8.3555 0.7911
12.6000 8.3689 0.7721
12.6200 8.3822 0.7868
12.6400 8.3956 0.7941
12.6600 8.4089 0.7708
12.6800 8.4223 0.7918
12.7000 8.4356 0.7884
12.7200 8.4489 0.7790
12.7400 8.4623 0.7895
12.7600 8.4756 0.7932
12.7800 8.4890 0.7810
12.8000 8.5023 0.7900
12.8200 8.5155 0.8012
12.8400 8.5289 0.7817
12.8600 8.5422 0.7993
12.8800 8.5556 0.7951
12.9000 8.5689 0.7876
12.9200 8.5822 0.7976
12.9400 8.5955 0.7947
12.9600 8.6089 0.7950
12.9800 8.6222 0.7918
13.0000 8.6356 0.8001
13.0200 8.6489 0.7995
13.0400 8.6623 0.7936
13.0600 8.6756 0.8022
13.0800 8.6889 0.7914
13.1000 8.7023 0.8028
13.1200 8.7156 0.8030
13.1400 8.7290 0.7993
13.1600 8.7423 0.8017
13.1800 8.7556 0.8063
13.2000 8.7689 0.8036
13.2200 8.7822 0.8004
13.2400 8.7956 0.8107
13.2600 8.8089 0.7983
13.2800 8.8222 0.8095
13.3000 8.8355 0.8146
13.3200 8.8489 0.7972
13.3400 8.8622 0.8147
13.3600 8.8756 0.8085
13.3800 8.8889 0.8062
13.4000 8.9023 0.8121
13.4200 8.9156 0.8115
13.4400 8.9290 0.8066
13.4600 8.9423 0.8129
13.4800 8.9556 0.8179
13.5000 8.9690 0.8076
13.5200 8.9823 0.8225
13.5400 8.9956 0.8131
13.5600 9.0089 0.8104
13.5800 9.0223 0.8256
13.6000 9.0356 0.8141
13.6200 9.0489 0.8178
13.6400 9.0622 0.8251
13.6600 9.0755 0.8162
13.6800 9.0889 0.8211
13.7000 9.1022 0.8186
13.7200 9.1155 0.8244
13.7400 9.1289 0.8234
13.7600 9.1423 0.8257
13.7800 9.1557 0.8180
13.8000 9.1690 0.8239
13.8200 9.1823 0.8301
13.8400 9.1957 0.8232
13.8600 9.2090 0.8312
13.8800 9.2223 0.8263
13.9000 9.2356 0.8255
13.9200 9.2489 0.8328
13.9400 9.2622 0.8297
13.9600 9.2755 0.8290
13.9800 9.2889 0.8318
14.0000 9.3022 0.8328
14.0200 9.3155 0.8312
14.0400 9.3289 0.8370
14.0600 9.3422 0.8314
14.0800 9.3556 0.8332
14.1000 9.3689 0.8396
14.1200 9.3823 0.8326
14.1400 9.3956 0.8387
14.1600 9.4089 0.8372
14.1800 9.4223 0.8367
14.2000 9.4356 0.8405
14.2200 9.4490 0.8347
14.2400 9.4623 0.8400
14.2600 9.4756 0.8390
14.2800 9.4889 0.8383
14.3000 9.5022 0.8440
14.3200 9.5156 0.8414
14.3400 9.5289 0.8430
14.3600 9.5422 0.8455
14.3800 9.5555 0.8474
14.4000 9.5689 0.8427
14.4200 9.5823 0.8525
14.4400 9.5956 0.8437
14.4600 9.6089 0.8479
14.4800 9.6223 0.8567
14.5000 9.6356 0.8405
14.5200 9.6489 0.8471
14.5400 9.6622 0.8604
14.5600 9.6756 0.8430
14.5800 9.6889 0.8508
14.6000 9.7023 0.8564
14.6200 9.7156 0.8457
14.6400 9.7289 0.8520
14.6600 9.7423 0.8625
14.6800 9.7556 0.8462
14.7000 9.7689 0.8544
14.7200 9.7822 0.8662
14.7400 9.7955 0.8474
14.7600 9.8089 0.8567
14.7800 9.8222 0.8625
14.8000 9.8356 0.8513
14.8200 9.8489 0.8635
14.8400 9.8623 0.8619
14.8600 9.8756 0.8529
14.8800 9.8890 0.8608
14.9000 9.9023 0.8619
14.9200 9.9156 0.8555
14.9400 9.9289 0.8615
14.9600 9.9423 0.8644
14.9800 9.9556 0.8580
15.0000 9.9689 0.8660
15.0200 9.9822 0.8633
15.0400 9.9956 0.8632
15.0600 10.0089 0.8665
15.0800 10.0222 0.8656
15.1000 10.0355 0.8663
15.1200 10.0489 0.8682
15.1400 10.0622 0.8665
15.1600 10.0756 0.8654
15.1800 10.0889 0.8661
15.2000 10.1022 0.8678
15.2200 10.1156 0.8665
15.2400 10.1289 0.8688
15.2600 10.1423 0.8710
15.2800 10.1556 0.8715
15.3000 10.1690 0.8666
15.3200 10.1823 0.8768
15.3400 10.1956 0.8734
15.3600 10.2089 0.8724
15.3800 10.2222 0.8762
15.4000 10.2356 0.8706
15.4200 10.2489 0.8746
15.4400 10.2622 0.8811
15.4600 10.2755 0.8742
15.4800 10.2889 0.8757
15.5000 10.3022 0.8801
15.5200 10.3156 0.8760
15.5400 10.3289 0.8820
15.5600 10.3423 0.8834
15.5800 10.3557 0.8804
15.6000 10.3690 0.8830
15.6200 10.3823 0.8812
15.6400 10.3956 0.8824
15.6600 10.4090 0.8848
15.6800 10.4223 0.8821
15.7000 10.4356 0.8805
15.7200 10.4489 0.8873
15.7400 10.4622 0.8890
15.7600 10.4756 0.8845
15.7800 10.4889 0.8914
15.8000 10.5022 0.8876
15.8200 10.5155 0.8878
15.8400 10.5289 0.8844
15.8600 10.5422 0.8931
15.8800 10.5555 0.8898
15.9000 10.5689 0.8844
15.9200 10.5822 0.8952
15.9400 10.5956 0.8894
15.9600 10.6090 0.8898
15.9800 10.6223 0.8969
16.0000 10.6356 0.8910
16.0200 10.6490 0.8980
16.0400 10.6623 0.8963
16.0600 10.6756 0.8931
16.0800 10.6889 0.8970
16.1000 10.7022 0.9038
16.1200 10.7155 0.8897
16.1400 10.7289 0.8981
16.1600 10.7422 0.9032
16.1800 10.7555 0.8931
16.2000 10.7689 0.9097
16.2200 10.7823 0.8992
16.2400 10.7956 0.8912
16.2600 10.8089 0.9122
16.2800 10.8223 0.9007
16.3000 10.8356 0.8965
16.3200 10.8489 0.9115
16.3400 10.8622 0.8993
16.3600 10.8756 0.9028
16.3800 10.8889 0.9201
16.4000 10.9023 0.8986
16.4200 10.9156 0.9056
16.4400 10.9289 0.9183
16.4600 10.9423 0.9056
16.4800 10.9556 0.9125
16.5000 10.9689 0.9136
16.5200 10.9822 0.9096
16.5400 10.9955 0.9127
16.5600 11.0089 0.9123
16.5800 11.0222 0.9084
16.6000 11.0355 0.9167
16.6200 11.0489 0.9148
16.6400 11.0622 0.9125
16.6600 11.0756 0.9176
16.6800 11.0889 0.9123
16.7000 11.1023 0.9134
16.7200 11.1156 0.9246
16.7400 11.1290 0.9143
16.7600 11.1423 0.9217
16.7800 11.1556 0.9199
16.8000 11.1689 0.9124
16.8200 11.1823 0.9274
16.8400 11.1956 0.9220
16.8600 11.2089 0.9164
16.8800 11.2222 0.9272
16.9000 11.2355 0.9256
16.9200 11.2489 0.9209
16.9400 11.2622 0.9294
16.9600 11.2755 0.9261
16.9800 11.2888 0.9205
17.0000 11.3022 0.9347
17.0200 11.3156 0.9228
17.0400 11.3290 0.9253
17.0600 11.3423 0.9336
17.0800 11.3556 0.9294
17.1000 11.3690 0.9288
17.1200 11.3823 0.9319
17.1400 11.3956 0.9318
17.1600 11.4089 0.9321
17.1800 11.4222 0.9337
17.2000 11.4356 0.9322
17.2200 11.4489 0.9389
17.2400 11.4622 0.9329
17.2600 11.4755 0.9332
17.2800 11.4889 0.9419
17.3000 11.5023 0.9312
17.3200 11.5156 0.9390
17.3400 11.5289 0.9402
17.3600 11.5422 0.9320
17.3800 11.5556 0.9445
17.4000 11.5690 0.9396
17.4200 11.5823 0.9357
17.4400 11.5956 0.9432
17.4600 11.6090 0.9395
17.4800 11.6223 0.9362
17.5000 11.6356 0.9467
17.5200 11.6489 0.9392
17.5400 11.6622 0.9441
17.5600 11.6756 0.9481
17.5800 11.6889 0.9376
17.6000 11.7022 0.9485
17.6200 11.7155 0.9487
17.6400 11.7288 0.9435
17.6600 11.7422 0.9481
17.6800 11.7555 0.9483
17.7000 11.7689 0.9441
17.7200 11.7823 0.9531
17.7400 11.7956 0.9466
17.7600 11.8090 0.9446
17.7800 11.8223 0.9569
17.8000 11.8356 0.9442
17.8200 11.8489 0.9506
17.8400 11.8623 0.9563
17.8600 11.8756 0.9451
17.8800 11.8889 0.9565
17.9000 11.9022 0.9552
17.9200 11.9156 0.9509
17.9400 11.9289 0.9558
17.9600 11.9422 0.9523
17.9800 11.9556 0.9529
18.0000 11.9689 0.9603
18.0200 11.9822 0.9554
18.0400 11.9956 0.9570
18.0600 12.0089 0.9647
18.0800 12.0222 0.9539
18.1000 12.0356 0.9604
18.1200 12.0490 0.9646
18.1400 12.0623 0.9519
18.1600 12.0756 0.9682
18.1800 12.0889 0.9597
18.2000 12.1023 0.9537
18.2200 12.1156 0.9655
18.2400 12.1289 0.9676
18.2600 12.1422 0.9611
18.2800 12.1556 0.9679
18.3000 12.1689 0.9667
18.3200 12.1822 0.9609
18.3400 12.1955 0.9723
18.3600 12.2089 0.9668
18.3800 12.2222 0.9621
18.4000 12.2356 0.9684
18.4200 12.2489 0.9624
18.4400 12.2622 0.9664
18.4600 12.2756 0.9742
18.4800 12.2889 0.9674
18.5000 12.3022 0.9714
18.5200 12.3156 0.9731
18.5400 12.3289 0.9701
18.5600 12.3423 0.9724
18.5800 12.3556 0.9729
18.6000 12.3689 0.9722
18.6200 12.3823 0.9723
18.6400 12.3956 0.9780
18.6600 12.4090 0.9740
18.6800 12.4223 0.9718
18.7000 12.4355 0.9821
18.7200 12.4489 0.9786
18.7400 12.4622 0.9714
18.7600 12.4755 0.9800
18.7800 12.4888 0.9812
18.8000 12.5022 0.9732
18.8200 12.5156 0.9828
18.8400 12.5290 0.9819
18.8600 12.5423 0.9774
18.8800 12.5556 0.9857
18.9000 12.5690 0.9843
18.9200 12.5823 0.9789
18.9400 12.5957 0.9893
18.9600 12.6089 0.9859
18.9800 12.6222 0.9836
19.0000 12.6356 0.9929
19.0200 12.6489 0.9846
19.0400 12.6622 0.9794
19.0600 12.6755 0.9958
19.0800 12.6888 0.9887
19.1000 12.7022 0.9848
19.1200 12.7155 0.9922
19.1400 12.7289 0.9885
19.1600 12.7422 0.9900
19.1800 12.7556 0.9951
19.2000 12.7690 0.9890
19.2200 12.7823 0.9897
19.2400 12.7956 0.9959
19.2600 12.8090 0.9935
19.2800 12.8223 0.9936
19.3000 12.8356 0.9955
19.3200 12.8489 0.9965
19.3400 12.8622 0.9954
19.3600 12.8755 1.0004
19.3800 12.8889 0.9960
19.4000 12.9022 0.9989
19.4200 12.9155 0.9997
19.4400 12.9288 1.0005
19.4600 12.9422 1.0018
19.4800 12.9556 1.0005
19.5000 12.9689 1.0010
19.5200 12.9822 1.0032
19.5400 12.9956 1.0066
19.5600 13.0090 1.0036
19.5800 13.0223 1.0025
19.6000 13.0356 1.0081
19.6200 13.0489 0.9996
19.6400 13.0623 1.0037
19.6600 13.0757 1.0070
19.6800 13.0890 1.0059
19.7000 13.1023 1.0060
19.7200 13.1156 1.0115
19.7400 13.1289 1.0075
19.7600 13.1422 1.0031
19.7800 13.1555 1.0131
19.8000 13.1688 1.0111
19.8200 13.1822 1.0047
19.8400 13.1955 1.0166
19.8600 13.2089 1.0102
19.8800 13.2222 1.0122
19.9000 13.2356 1.0183
19.9200 13.2490 1.0091
19.9400 13.2623 1.0154
19.9600 13.2756 1.0191
19.9800 13.2889 1.0105
20.0000 13.3023 1.0174
20.0200 13.3156 1.0166
20.0400 13.3289 1.0124
20.0600 13.3422 1.0223
20.0800 13.3556 1.0207
20.1000 13.3689 1.0133
20.1200 13.3822 1.0212
20.1400 13.3955 1.0194
20.1600 13.4089 1.0192
20.1800 13.4222 1.0231
20.2000 13.4355 1.0202
20.2200 13.4489 1.0233
20.2400 13.4622 1.0247
20.2600 13.4756 1.0241
20.2800 13.4889 1.0257
20.3000 13.5023 1.0194
20.3200 13.5156 1.0213
20.3400 13.5289 1.0317
20.3600 13.5423 1.0204
20.3800 13.5557 1.0255
20.4000 13.5690 1.0322
20.4200 13.5823 1.0217
20.4400 13.5956 1.0284
20.4600 13.6089 1.0313
20.4800 13.6222 1.0244
20.5000 13.6355 1.0322
20.5200 13.6489 1.0289
20.5400 13.6622 1.0285
20.5600 13.6755 1.0316
20.5800 13.6889 1.0321
20.6000 13.7022 1.0279
20.6200 13.7156 1.0387
20.6400 13.7289 1.0320
20.6600 13.7423 1.0263
20.6800 13.7556 1.0379
20.7000 13.7689 1.0305
20.7200 13.7823 1.0329
20.7400 13.7956 1.0399
20.7600 13.8090 1.0284
20.7800 13.8223 1.0356
20.8000 13.8356 1.0412
20.8200 13.8489 1.0353
20.8400 13.8623 1.0359
20.8600 13.8755 1.0396
20.8800 13.8888 1.0377
20.9000 13.9022 1.0401
20.9200 13.9155 1.0405
20.9400 13.9288 1.0441
20.9600 13.9422 1.0450
20.9800 13.9556 1.0393
21.0000 13.9690 1.0449
21.0200 13.9823 1.0417
21.0400 13.9957 1.0464
21.0600 14.0090 1.0483
21.0800 14.0223 1.0456
21.1000 14.0357 1.0466
21.1200 14.0490 1.0484
21.1400 14.0622 1.0471
21.1600 14.0755 1.0523
21.1800 14.0889 1.0490
21.2000 14.1022 1.0448
21.2200 14.1155 1.0550
21.2400 14.1289 1.0547
21.2600 14.1422 1.0457
21.2800 14.1556 1.0566
21.3000 14.1689 1.0526
21.3200 14.1823 1.0458
21.3400 14.1956 1.0570
21.3600 14.2090 1.0500
21.3800 14.2223 1.0541
21.4000 14.2356 1.0599
21.4200 14.2489 1.0505
21.4400 14.2623 1.0584
21.4600 14.2756 1.0577
21.4800 14.2889 1.0535
21.5000 14.3022 1.0610
21.5200 14.3156 1.0584
21.5400 14.3289 1.0547
21.5600 14.3422 1.0655
21.5800 14.3555 1.0627
21.6000 14.3688 1.0572
21.6200 14.3822 1.0684
21.6400 14.3956 1.0602
21.6600 14.4089 1.0597
21.6800 14.4222 1.0692
21.7000 14.4356 1.0611
21.7200 14.4490 1.0609
21.7400 14.4623 1.0698
21.7600 14.4756 1.0606
21.7800 14.4889 1.0708
21.8000 14.5022 1.0731
21.8200 14.5156 1.0602
21.8400 14.5289 1.0662
21.8600 14.5422 1.0761
21.8800 14.5556 1.0654
21.9000 14.5689 1.0704
21.9200 14.5822 1.0741
21.9400 14.5955 1.0672
21.9600 14.6088 1.0710
21.9800 14.6222 1.0762
22.0000 14.6355 1.0676
22.0200 14.6489 1.0710
22.0400 14.6622 1.0791
22.0600 14.6756 1.0682
22.0800 14.6889 1.0682
22.1000 14.7023 1.0835
22.1200 14.7156 1.0725
22.1400 14.7289 1.0769
22.1600 14.7423 1.0816
22.1800 14.7556 1.0758
22.2000 14.7689 1.0776
22.2200 14.7822 1.0803
22.2400 14.7956 1.0782
22.2600 14.8089 1.0814
22.2800 14.8223 1.0857
22.3000 14.8356 1.0770
22.3200 14.8489 1.0826
22.3400 14.8622 1.0886
22.3600 14.8756 1.0806
22.3800 14.8889 1.0815
22.4000 14.9022 1.0944
22.4200 14.9156 1.0811
22.4400 14.9289 1.0825
22.4600 14.9423 1.0887
22.4800 14.9556 1.0866
22.5000 14.9689 1.0873
22.5200 14.9823 1.0921
22.5400 14.9957 1.0897
22.5600 15.0090 1.0873
22.5800 15.0223 1.0974
22.6000 15.0356 1.0914
22.6200 15.0489 1.0899
22.6400 15.0623 1.0994
22.6600 15.0756 1.0885
22.6800 15.0889 1.0928
22.7000 15.1022 1.1017
22.7200 15.1155 1.0932
22.7400 15.1289 1.0927
22.7600 15.1422 1.1032
22.7800 15.1556 1.0951
22.8000 15.1690 1.0937
22.8200 15.1823 1.1034
22.8400 15.1956 1.0942
22.8600 15.2089 1.0969
22.8800 15.2223 1.1092
22.9000 15.2357 1.0966
22.9200 15.2490 1.0968
22.9400 15.2623 1.1130
22.9600 15.2756 1.0990
22.9800 15.2889 1.0972
23.0000 15.3022 1.1152
23.0200 15.3155 1.0993
23.0400 15.3289 1.1032
23.0600 15.3422 1.1176
23.0800 15.3555 1.0967
23.1000 15.3689 1.1069
23.1200 15.3822 1.1151
23.1400 15.3956 1.1029
23.1600 15.4089 1.1075
23.1800 15.4223 1.1140
23.2000 15.4356 1.1032
23.2200 15.4489 1.1151
23.2400 15.4623 1.1190
23.2600 15.4756 1.1033
23.2800 15.4889 1.1193
23.3000 15.5022 1.1188
23.3200 15.5155 1.1063
23.3400 15.5289 1.1207
23.3600 15.5422 1.1149
23.3800 15.5555 1.1096
23.4000 15.5688 1.1193
23.4200 15.5822 1.1203
23.4400 15.5956 1.1119
23.4600 15.6089 1.1186
23.4800 15.6223 1.1223
23.5000 15.6356 1.1156
23.5200 15.6490 1.1200
23.5400 15.6623 1.1246
23.5600 15.6756 1.1173
23.5800 15.6889 1.1223
23.6000 15.7022 1.1252
23.6200 15.7156 1.1177
23.6400 15.7289 1.1212
23.6600 15.7423 1.1292
23.6800 15.7556 1.1226
23.7000 15.7689 1.1240
23.7200 15.7823 1.1293
23.7400 15.7956 1.1237
23.7600 15.8089 1.1275
23.7800 15.8222 1.1362
23.8000 15.8356 1.1205
23.8200 15.8489 1.1237
23.8400 15.8622 1.1345
23.8600 15.8755 1.1251
23.8800 15.8889 1.1265
23.9000 15.9023 1.1341
23.9200 15.9156 1.1296
23.9400 15.9289 1.1301
23.9600 15.9423 1.1373
23.9800 15.9556 1.1303
24.0000 15.9690 1.1321
24.0200 15.9823 1.1373
24.0400 15.9956 1.1293
24.0600 16.0090 1.1343
24.0800 16.0223 1.1396
24.1000 16.0356 1.1307
24.1200 16.0489 1.1374
24.1400 16.0622 1.1411
24.1600 16.0755 1.1324
24.1800 16.0889 1.1405
24.2000 16.1022 1.1439
24.2200 16.1155 1.1353
24.2400 16.1289 1.1427
24.2600 16.1423 1.1430
24.2800 16.1556 1.1332
24.3000 16.1689 1.1464
24.3200 16.1823 1.1462
24.3400 16.1956 1.1386
24.3600 16.2090 1.1464
24.3800 16.2223 1.1454
24.4000 16.2356 1.1415
24.4200 16.2489 1.1474
24.4400 16.2622 1.1457
24.4600 16.2756 1.1442
24.4800 16.2889 1.1472
24.5000 16.3022 1.1463
24.5200 16.3156 1.1500
24.5400 16.3289 1.1482
24.5600 16.3422 1.1492
24.5800 16.3556 1.1517
24.6000 16.3689 1.1433
24.6200 16.3823 1.1521
24.6400 16.3956 1.1541
24.6600 16.4089 1.1482
24.6800 16.4223 1.1527
24.7000 16.4356 1.1566
24.7200 16.4490 1.1469
24.7400 16.4623 1.1580
24.7600 16.4756 1.1539
24.7800 16.4889 1.1497
24.8000 16.5022 1.1580
24.8200 16.5156 1.1532
24.8400 16.5289 1.1541
24.8600 16.5422 1.1587
24.8800 16.5555 1.1535
24.9000 16.5689 1.1582
24.9200 16.5822 1.1600
24.9400 16.5956 1.1545
24.9600 16.6089 1.1631
24.9800 16.6223 1.1593
25.0000 16.6357 1.1559
25.0200 16.6490 1.1656
25.0400 16.6623 1.1621
25.0600 16.6756 1.1606
25.0800 16.6890 1.1660
25.1000 16.7023 1.1625
25.1200 16.7156 1.1631
25.1400 16.7289 1.1694
25.1600 16.7422 1.1647
25.1800 16.7556 1.1621
25.2000 16.7689 1.1750
25.2200 16.7822 1.1646
25.2400 16.7955 1.1665
25.2600 16.8089 1.1740
25.2800 16.8222 1.1674
25.3000 16.8356 1.1653
25.3200 16.8489 1.1730
25.3400 16.8623 1.1677
25.3600 16.8756 1.1694
25.3800 16.8890 1.1774
25.4000 16.9023 1.1695
25.4200 16.9156 1.1718
25.4400 16.9290 1.1813
25.4600 16.9423 1.1670
25.4800 16.9556 1.1805
25.5000 16.9689 1.1787
25.5200 16.9822 1.1731
25.5400 16.9955 1.1820
25.5600 17.0088 1.1797
25.5800 17.0222 1.1756
25.6000 17.0355 1.1834
25.6200 17.0489 1.1783
25.6400 17.0622 1.1788
25.6600 17.0755 1.1840
25.6800 17.0889 1.1817
25.7000 17.1022 1.1797
25.7200 17.1156 1.1866
25.7400 17.1289 1.1827
25.7600 17.1422 1.1874
25.7800 17.1556 1.1884
25.8000 17.1690 1.1831
25.8200 17.1823 1.1875
25.8400 17.1956 1.1865
25.8600 17.2089 1.1893
25.8800 17.2223 1.1866
25.9000 17.2356 1.1883
25.9200 17.2489 1.1897
25.9400 17.2622 1.1914
25.9600 17.2755 1.1932
25.9800 17.2889 1.1907
26.0000 17.3022 1.1908
26.0200 17.3155 1.1920
26.0400 17.3289 1.1943
26.0600 17.3423 1.1934
26.0800 17.3557 1.1948
26.1000 17.3690 1.1947
26.1200 17.3823 1.1933
26.1400 17.3956 1.1975
26.1600 17.4090 1.1958
26.1800 17.4223 1.1954
26.2000 17.4356 1.1995
26.2200 17.4489 1.2013
26.2400 17.4623 1.1996
26.2600 17.4756 1.1993
26.2800 17.4889 1.2053
26.3000 17.5022 1.2002
26.3200 17.5155 1.2024
26.3400 17.5289 1.2029
26.3600 17.5422 1.2010
26.3800 17.5556 1.2045
26.4000 17.5689 1.2049
26.4200 17.5823 1.2046
26.4400 17.5957 1.1998
26.4600 17.6090 1.2082
26.4800 17.6223 1.2072
26.5000 17.6356 1.2082
26.5200 17.6490 1.2115
26.5400 17.6623 1.2048
26.5600 17.6756 1.2094
26.5800 17.6889 1.2112
26.6000 17.7022 1.2097
26.6200 17.7155 1.2129
26.6400 17.7289 1.2116
26.6600 17.7422 1.2100
26.6800 17.7555 1.2119
26.7000 17.7689 1.2147
26.7200 17.7822 1.2109
26.7400 17.7956 1.2149
26.7600 17.8089 1.2194
26.7800 17.8223 1.2121
26.8000 17.8356 1.2199
26.8200 17.8490 1.2193
26.8400 17.8623 1.2158
26.8600 17.8756 1.2202
26.8800 17.8890 1.2220
26.9000 17.9023 1.2162
26.9200 17.9156 1.2187
26.9400 17.9289 1.2271
26.9600 17.9423 1.2220
26.9800 17.9556 1.2147
27.0000 17.9689 1.2287
27.0200 17.9822 1.2245
27.0400 17.9955 1.2244
27.0600 18.0089 1.2341
27.0800 18.0222 1.2211
27.1000 18.0356 1.2233
27.1200 18.0489 1.2371
27.1400 18.0623 1.2240
27.1600 18.0757 1.2229
27.1800 18.0890 1.2357
27.2000 18.1023 1.2255
27.2200 18.1156 1.2285
27.2400 18.1290 1.2371
27.2600 18.1423 1.2311
27.2800 18.1556 1.2348
27.3000 18.1689 1.2353
27.3200 18.1822 1.2304
27.3400 18.1956 1.2352
27.3600 18.2089 1.2419
27.3800 18.2222 1.2327
27.4000 18.2355 1.2342
27.4200 18.2489 1.2471
27.4400 18.2622 1.2303
27.4600 18.2755 1.2398
27.4800 18.2889 1.2431
27.5000 18.3023 1.2348
27.5200 18.3156 1.2352
27.5400 18.3290 1.2415
27.5600 18.3423 1.2418
27.5800 18.3556 1.2415
27.6000 18.3690 1.2444
27.6200 18.3823 1.2384
27.6400 18.3956 1.2453
27.6600 18.4089 1.2497
27.6800 18.4222 1.2395
27.7000 18.4356 1.2497
27.7200 18.4489 1.2468
27.7400 18.4622 1.2419
27.7600 18.4755 1.2494
27.7800 18.4889 1.2496
27.8000 18.5022 1.2503
27.8200 18.5155 1.2510
27.8400 18.5289 1.2469
27.8600 18.5423 1.2535
27.8800 18.5556 1.2530
27.9000 18.5689 1.2532
27.9200 18.5823 1.2513
27.9400 18.5956 1.2556
27.9600 18.6090 1.2541
27.9800 18.6223 1.2538
28.0000 18.6356 1.2559
28.0200 18.6489 1.2537
28.0400 18.6623 1.2556
28.0600 18.6756 1.2561
28.0800 18.6889 1.2592
28.1000 18.7022 1.2594
28.1200 18.7155 1.2629
28.1400 18.7289 1.2614
28.1600 18.7422 1.2566
28.1800 18.7555 1.2605
28.2000 18.7689 1.2690
28.2200 18.7823 1.2589
28.2400 18.7957 1.2624
28.2600 18.8090 1.2667
28.2800 18.8223 1.2602
28.3000 18.8356 1.2655
28.3200 18.8490 1.2707
28.3400 18.8623 1.2653
28.3600 18.8756 1.2667
28.3800 18.8889 1.2695
28.4000 18.9022 1.2700
28.4200 18.9155 1.2680
28.4400 18.9289 1.2729
28.4600 18.9422 1.2685
28.4800 18.9555 1.2710
28.5000 18.9689 1.2726
28.5200 18.9823 1.2698
28.5400 18.9956 1.2731
28.5600 19.0089 1.2750
28.5800 19.0223 1.2707
28.6000 19.0356 1.2729
28.6200 19.0490 1.2781
28.6400 19.0623 1.2744
28.6600 19.0756 1.2796
28.6800 19.0890 1.2802
28.7000 19.1023 1.2755
28.7200 19.1156 1.2828
28.7400 19.1289 1.2762
28.7600 19.1422 1.2807
28.7800 19.1556 1.2815
28.8000 19.1689 1.2802
28.8200 19.1822 1.2801
28.8400 19.1955 1.2831
28.8600 19.2089 1.2852
28.8800 19.2222 1.2793
28.9000 19.2356 1.2843
28.9200 19.2489 1.2864
28.9400 19.2623 1.2841
28.9600 19.2756 1.2859
28.9800 19.2890 1.2893
29.0000 19.3022 1.2903
29.0200 19.3156 1.2920
29.0400 19.3289 1.2896
29.0600 19.3423 1.2854
29.0800 19.3556 1.2945
29.1000 19.3689 1.2945
29.1200 19.3822 1.2897
29.1400 19.3956 1.2934
29.1600 19.4089 1.2889
29.1800 19.4222 1.2949
29.2000 19.4355 1.2982
29.2200 19.4489 1.2973
29.2400 19.4622 1.2967
29.2600 19.4756 1.2981
29.2800 19.4889 1.2939
29.3000 19.5023 1.3008
29.3200 19.5156 1.2986
29.3400 19.5290 1.2939
29.3600 19.5423 1.3070
29.3800 19.5556 1.2936
29.4000 19.5690 1.2929
29.4200 19.5823 1.3143
29.4400 19.5956 1.2972
29.4600 19.6089 1.2992
29.4800 19.6222 1.3135
29.5000 19.6356 1.2979
29.5200 19.6489 1.3073
29.5400 19.6622 1.3125
29.5600 19.6755 1.3048
29.5800 19.6889 1.3088
29.6000 19.7022 1.3098
29.6200 19.7156 1.3045
29.6400 19.7289 1.3143
29.6600 19.7422 1.3108
29.6800 19.7556 1.3068
29.7000 19.7689 1.3153
29.7200 19.7823 1.3127
29.7400 19.7956 1.3094
29.7600 19.8090 1.3153
29.7800 19.8223 1.3119
29.8000 19.8356 1.3121
29.8200 19.8489 1.3171
29.8400 19.8622 1.3169
29.8600 19.8756 1.3147
29.8800 19.8889 1.3150
29.9000 19.9022 1.3210
29.9200 19.9155 1.3178
29.9400 19.9289 1.3170
29.9600 19.9422 1.3260
29.9800 19.9556 1.3182
30.0000 19.9689 1.3217
30.0200 19.9823 1.3226
30.0400 19.9956 1.3220
30.0600 20.0090 1.3228
30.0800 20.0223 1.3213
30.1000 20.0356 1.3265
30.1200 20.0490 1.3215
30.1400 20.0623 1.3220
30.1600 20.0756 1.3292
30.1800 20.0889 1.3288
30.2000 20.1022 1.3281
30.2200 20.1156 1.3299
30.2400 20.1289 1.3255
30.2600 20.1422 1.3313
30.2800 20.1555 1.3328
30.3000 20.1689 1.3270
30.3200 20.1822 1.3334
30.3400 20.1955 1.3321
30.3600 20.2089 1.3301
30.3800 20.2222 1.3338
30.4000 20.2356 1.3346
30.4200 20.2490 1.3312
30.4400 20.2623 1.3366
30.4600 20.2756 1.3374
30.4800 20.2890 1.3328
30.5000 20.3023 1.3396
30.5200 20.3156 1.3395
30.5400 20.3289 1.3371
30.5600 20.3422 1.3387
30.5800 20.3555 1.3408
30.6000 20.3689 1.3406
30.6200 20.3822 1.3439
30.6400 20.3955 1.3434
30.6600 20.4089 1.3406
30.6800 20.4223 1.3411
30.7000 20.4356 1.3477
30.7200 20.4489 1.3445
30.7400 20.4623 1.3504
30.7600 20.4756 1.3452
30.7800 20.4890 1.3442
30.8000 20.5023 1.3508
30.8200 20.5156 1.3489
30.8400 20.5289 1.3462
30.8600 20.5423 1.3572
30.8800 20.5556 1.3488
30.9000 20.5689 1.3464
30.9200 20.5823 1.3579
30.9400 20.5956 1.3484
30.9600 20.6090 1.3500
30.9800 20.6222 1.3574
31.0000 20.6355 1.3554
31.0200 20.6489 1.3530
31.0400 20.6622 1.3584
31.0600 20.6755 1.3600
31.0800 20.6889 1.3551
31.1000 20.7022 1.3578
31.1200 20.7156 1.3624
31.1400 20.7289 1.3567
31.1600 20.7423 1.3593
31.1800 20.7556 1.3643
31.2000 20.7690 1.3568
31.2200 20.7823 1.3631
31.2400 20.7956 1.3662
31.2600 20.8089 1.3592
31.2800 20.8223 1.3683
31.3000 20.8356 1.3698
31.3200 20.8490 1.3580
31.3400 20.8622 1.3716
31.3600 20.8755 1.3740
31.3800 20.8888 1.3584
31.4000 20.9022 1.3737
31.4200 20.9155 1.3753
31.4400 20.9288 1.3600
31.4600 20.9422 1.3770
31.4800 20.9556 1.3784
31.5000 20.9690 1.3630
31.5200 20.9823 1.3732
31.5400 20.9956 1.3765
31.5600 21.0090 1.3686
31.5800 21.0223 1.3779
31.6000 21.0356 1.3753
31.6200 21.0489 1.3712
31.6400 21.0622 1.3810
31.6600 21.0756 1.3782
31.6800 21.0889 1.3750
31.7000 21.1022 1.3844
31.7200 21.1155 1.3843
31.7400 21.1289 1.3760
31.7600 21.1422 1.3819
31.7800 21.1556 1.3792
31.8000 21.1689 1.3795
31.8200 21.1822 1.3873
31.8400 21.1956 1.3840
31.8600 21.2090 1.3811
31.8800 21.2223 1.3882
31.9000 21.2356 1.3839
31.9200 21.2490 1.3883
31.9400 21.2623 1.3906
31.9600 21.2757 1.3829
31.9800 21.2889 1.3910
32.0000 21.3022 1.3903
32.0200 21.3156 1.3896
32.0400 21.3289 1.3920
32.0600 21.3422 1.3871
32.0800 21.3555 1.3916
32.1000 21.3688 1.3960
32.1200 21.3822 1.3906
32.1400 21.3956 1.3949
32.1600 21.4089 1.3944
32.1800 21.4222 1.3945
32.2000 21.4356 1.3956
32.2200 21.4490 1.3981
32.2400 21.4623 1.3974
32.2600 21.4756 1.3998
32.2800 21.4889 1.3954
32.3000 21.5023 1.4002
32.3200 21.5156 1.4022
32.3400 21.5289 1.3975
32.3600 21.5422 1.4069
32.3800 21.5556 1.4037
32.4000 21.5689 1.3958
32.4200 21.5822 1.4068
32.4400 21.5956 1.4058
32.4600 21.6089 1.3998
32.4800 21.6222 1.4090
32.5000 21.6356 1.4041
32.5200 21.6489 1.4051
32.5400 21.6622 1.4091
32.5600 21.6756 1.4071
32.5800 21.6890 1.4113
32.6000 21.7023 1.4067
32.6200 21.7156 1.4092
32.6400 21.7289 1.4116
32.6600 21.7423 1.4074
32.6800 21.7556 1.4158
32.7000 21.7689 1.4118
32.7200 21.7822 1.4117
32.7400 21.7956 1.4173
32.7600 21.8089 1.4125
32.7800 21.8222 1.4145
32.8000 21.8355 1.4197
32.8200 21.8489 1.4154
32.8400 21.8622 1.4176
32.8600 21.8756 1.4211
32.8800 21.8889 1.4155
32.9000 21.9022 1.4172
32.9200 21.9156 1.4263
32.9400 21.9289 1.4170
32.9600 21.9423 1.4202
32.9800 21.9556 1.4256
33.0000 21.9689 1.4196
33.0200 21.9823 1.4231
33.0400 21.9956 1.4266
33.0600 22.0090 1.4238
33.0800 22.0223 1.4237
33.1000 22.0356 1.4273
33.1200 22.0490 1.4233
33.1400 22.0623 1.4263
33.1600 22.0756 1.4307
33.1800 22.0889 1.4243
33.2000 22.1022 1.4310
33.2200 22.1155 1.4321
33.2400 22.1288 1.4291
33.2600 22.1422 1.4334
33.2800 22.1556 1.4297
33.3000 22.1690 1.4325
33.3200 22.1823 1.4344
33.3400 22.1956 1.4364
33.3600 22.2090 1.4344
33.3800 22.2223 1.4342
33.4000 22.2357 1.4373
33.4200 22.2490 1.4377
33.4400 22.2623 1.4353
33.4600 22.2756 1.4384
33.4800 22.2889 1.4414
33.5000 22.3022 1.4379
33.5200 22.3155 1.4401
33.5400 22.3288 1.4478
33.5600 22.3422 1.4389
33.5800 22.3555 1.4461
33.6000 22.3689 1.4424
33.6200 22.3822 1.4463
33.6400 22.3956 1.4471
33.6600 22.4090 1.4429
33.6800 22.4223 1.4492
33.7000 22.4356 1.4458
33.7200 22.4490 1.4451
33.7400 22.4623 1.4502
33.7600 22.4756 1.4466
33.7800 22.4889 1.4484
33.8000 22.5022 1.4528
33.8200 22.5156 1.4480
33.8400 22.5289 1.4549
33.8600 22.5422 1.4559
33.8800 22.5555 1.4483
33.9000 22.5688 1.4620
33.9200 22.5822 1.4567
33.9400 22.5955 1.4464
33.9600 22.6089 1.4646
33.9800 22.6222 1.4608
34.0000 22.6356 1.4506
34.0200 22.6489 1.4663
34.0400 22.6623 1.4603
34.0600 22.6756 1.4548
34.0800 22.6889 1.4696
34.1000 22.7023 1.4579
34.1200 22.7156 1.4609
34.1400 22.7289 1.4661
34.1600 22.7422 1.4628
34.1800 22.7556 1.4662
34.2000 22.7689 1.4704
34.2200 22.7822 1.4633
34.2400 22.7955 1.4670
34.2600 22.8088 1.4713
34.2800 22.8222 1.4675
34.3000 22.8356 1.4683
34.3200 22.8489 1.4743
34.3400 22.8622 1.4684
34.3600 22.8756 1.4717
34.3800 22.8890 1.4756
34.4000 22.9023 1.4680
34.4200 22.9156 1.4757
34.4400 22.9290 1.4795
34.4600 22.9423 1.4702
34.4800 22.9556 1.4730
34.5000 22.9689 1.4802
34.5200 22.9822 1.4713
34.5400 22.9955 1.4787
34.5600 23.0089 1.4827
34.5800 23.0222 1.4752
34.6000 23.0356 1.4759
34.6200 23.0489 1.4880
34.6400 23.0622 1.4769
34.6600 23.0755 1.4836
34.6800 23.0889 1.4916
34.7000 23.1022 1.4823
34.7200 23.1156 1.4856
34.7400 23.1290 1.4859
34.7600 23.1423 1.4846
34.7800 23.1556 1.4892
34.8000 23.1689 1.4876
34.8200 23.1823 1.4919
34.8400 23.1957 1.4901
34.8600 23.2090 1.4940
34.8800 23.2223 1.4890
34.9000 23.2356 1.4915
34.9200 23.2489 1.4994
34.9400 23.2622 1.4902
34.9600 23.2756 1.4907
34.9800 23.2889 1.5026
35.0000 23.3022 1.4914
35.0200 23.3155 1.4949
35.0400 23.3289 1.5071
35.0600 23.3422 1.4901
35.0800 23.3555 1.5025
35.1000 23.3689 1.5038
35.1200 23.3823 1.4909
35.1400 23.3956 1.5072
35.1600 23.4089 1.5072
35.1800 23.4223 1.4988
35.2000 23.4356 1.5067
35.2200 23.4489 1.5061
35.2400 23.4623 1.5009
35.2600 23.4756 1.5092
35.2800 23.4889 1.5096
35.3000 23.5022 1.5049
35.3200 23.5155 1.5122
35.3400 23.5288 1.5057
35.3600 23.5422 1.5109
35.3800 23.5555 1.5172
35.4000 23.5688 1.5084
35.4200 23.5822 1.5116
35.4400 23.5955 1.5178
35.4600 23.6090 1.5076
35.4800 23.6223 1.5186
35.5000 23.6357 1.5161
35.5200 23.6490 1.5170
35.5400 23.6623 1.5163
35.5600 23.6757 1.5185
35.5800 23.6890 1.5192
35.6000 23.7022 1.5180
35.6200 23.7155 1.5232
35.6400 23.7289 1.5237
35.6600 23.7422 1.5176
35.6800 23.7555 1.5213
35.7000 23.7689 1.5284
35.7200 23.7822 1.5211
35.7400 23.7956 1.5261
35.7600 23.8089 1.5319
35.7800 23.8223 1.5141
35.8000 23.8356 1.5361
35.8200 23.8490 1.5311
35.8400 23.8623 1.5164
35.8600 23.8756 1.5408
35.8800 23.8889 1.5308
35.9000 23.9023 1.5277
35.9200 23.9156 1.5392
35.9400 23.9289 1.5312
35.9600 23.9422 1.5305
35.9800 23.9556 1.5412
36.0000 23.9689 1.5322
36.0200 23.9822 1.5369
36.0400 23.9955 1.5473
36.0600 24.0089 1.5301
36.0800 24.0222 1.5432
36.1000 24.0356 1.5431
36.1200 24.0489 1.5322
36.1400 24.0623 1.5467
36.1600 24.0756 1.5404
36.1800 24.0890 1.5395
36.2000 24.1023 1.5449
36.2200 24.1156 1.5425
36.2400 24.1289 1.5439
36.2600 24.1423 1.5466
36.2800 24.1556 1.5457
36.3000 24.1690 1.5472
36.3200 24.1823 1.5453
36.3400 24.1956 1.5510
36.3600 24.2089 1.5518
36.3800 24.2222 1.5465
36.4000 24.2355 1.5546
36.4200 24.2488 1.5543
36.4400 24.2622 1.5469
36.4600 24.2755 1.5602
36.4800 24.2889 1.5518
36.5000 24.3022 1.5499
36.5200 24.3156 1.5646
36.5400 24.3289 1.5540
36.5600 24.3423 1.5502
36.5800 24.3556 1.5657
36.6000 24.3689 1.5582
36.6200 24.3823 1.5515
36.6400 24.3957 1.5646
36.6600 24.4090 1.5599
36.6800 24.4222 1.5618
36.7000 24.4356 1.5658
36.7200 24.4489 1.5619
36.7400 24.4622 1.5655
36.7600 24.4756 1.5669
36.7800 24.4889 1.5621
36.8000 24.5022 1.5684
36.8200 24.5156 1.5696
36.8400 24.5289 1.5614
36.8600 24.5422 1.5718
36.8800 24.5556 1.5726
36.9000 24.5689 1.5632
36.9200 24.5823 1.5713
36.9400 24.5956 1.5728
36.9600 24.6089 1.5696
36.9800 24.6223 1.5734
37.0000 24.6357 1.5769
37.0200 24.6490 1.5694
37.0400 24.6623 1.5782
37.0600 24.6756 1.5776
37.0800 24.6889 1.5764
37.1000 24.7022 1.5804
37.1200 24.7155 1.5755
37.1400 24.7288 1.5782
37.1600 24.7422 1.5772
37.1800 24.7555 1.5773
37.2000 24.7689 1.5856
37.2200 24.7822 1.5795
37.2400 24.7956 1.5810
37.2600 24.8090 1.5822
37.2800 24.8223 1.5756
37.3000 24.8357 1.5859
37.3200 24.8490 1.5864
37.3400 24.8623 1.5815
37.3600 24.8757 1.5933
37.3800 24.8890 1.5877
37.4000 24.9023 1.5818
37.4200 24.9156 1.6022
37.4400 24.9289 1.5902
37.4600 24.9422 1.5809
37.4800 24.9555 1.6019
37.5000 24.9689 1.5905
37.5200 24.9822 1.5856
37.5400 24.9955 1.6048
37.5600 25.0089 1.5877
37.5800 25.0222 1.5947
37.6000 25.0356 1.6040
37.6200 25.0489 1.5905
37.6400 25.0623 1.5949
37.6600 25.0756 1.6034
37.6800 25.0889 1.5948
37.7000 25.1023 1.6001
37.7200 25.1156 1.6069
37.7400 25.1290 1.5946
37.7600 25.1423 1.6038
37.7800 25.1556 1.6095
37.8000 25.1689 1.5972
37.8200 25.1822 1.6050
37.8400 25.1955 1.6108
37.8600 25.2089 1.5999
37.8800 25.2222 1.6101
37.9000 25.2356 1.6137
37.9200 25.2490 1.6047
37.9400 25.2623 1.6159
37.9600 25.2756 1.6166
37.9800 25.2890 1.6049
38.0000 25.3023 1.6210
38.0200 25.3156 1.6164
38.0400 25.3289 1.6079
38.0600 25.3422 1.6207
38.0800 25.3556 1.6217
38.1000 25.3689 1.6117
38.1200 25.3823 1.6244
38.1400 25.3956 1.6212
38.1600 25.4089 1.6174
38.1800 25.4223 1.6258
38.2000 25.4356 1.6232
38.2200 25.4489 1.6202
38.2400 25.4622 1.6261
38.2600 25.4755 1.6276
38.2800 25.4889 1.6233
38.3000 25.5022 1.6266
38.3200 25.5155 1.6298
38.3400 25.5289 1.6215
38.3600 25.5423 1.6324
38.3800 25.5556 1.6327
38.4000 25.5689 1.6262
38.4200 25.5823 1.6368
38.4400 25.5956 1.6349
38.4600 25.6090 1.6247
38.4800 25.6223 1.6407
38.5000 25.6356 1.6417
38.5200 25.6490 1.6285
38.5400 25.6623 1.6414
38.5600 25.6756 1.6443
38.5800 25.6889 1.6314
38.6000 25.7022 1.6482
38.6200 25.7155 1.6464
38.6400 25.7289 1.6358
38.6600 25.7422 1.6504
38.6800 25.7555 1.6440
38.7000 25.7689 1.6365
38.7200 25.7823 1.6513
38.7400 25.7956 1.6496
38.7600 25.8090 1.6413
38.7800 25.8223 1.6514
38.8000 25.8356 1.6541
38.8200 25.8490 1.6456
38.8400 25.8623 1.6577
38.8600 25.8756 1.6535
38.8800 25.8889 1.6489
38.9000 25.9023 1.6616
38.9200 25.9156 1.6544
38.9400 25.9289 1.6556
38.9600 25.9422 1.6603
38.9800 25.9555 1.6572
39.0000 25.9689 1.6524
39.0200 25.9822 1.6637
39.0400 25.9956 1.6575
39.0600 26.0089 1.6585
39.0800 26.0223 1.6648
39.1000 26.0356 1.6624
39.1200 26.0490 1.6622
39.1400 26.0623 1.6676
39.1600 26.0756 1.6628
39.1800 26.0890 1.6705
39.2000 26.1023 1.6702
39.2200 26.1156 1.6667
39.2400 26.1289 1.6723
39.2600 26.1423 1.6713
39.2800 26.1556 1.6668
39.3000 26.1689 1.6730
39.3200 26.1822 1.6727
39.3400 26.1955 1.6742
39.3600 26.2089 1.6757
39.3800 26.2222 1.6750
39.4000 26.2356 1.6788
39.4200 26.2489 1.6752
39.4400 26.2623 1.6771
39.4600 26.2757 1.6812
39.4800 26.2889 1.6794
39.5000 26.3023 1.6821
39.5200 26.3156 1.6885
39.5400 26.3289 1.6798
39.5600 26.3423 1.6870
39.5800 26.3556 1.6871
39.6000 26.3689 1.6842
39.6200 26.3822 1.6907
39.6400 26.3956 1.6874
39.6600 26.4089 1.6861
39.6800 26.4222 1.6934
39.7000 26.4356 1.6895
39.7200 26.4489 1.6846
39.7400 26.4622 1.6977
39.7600 26.4755 1.6938
39.7800 26.4889 1.6914
39.8000 26.5023 1.6983
39.8200 26.5157 1.6948
39.8400 26.5290 1.6946
39.8600 26.5423 1.6979
39.8800 26.5556 1.6992
39.9000 26.5690 1.6945
39.9200 26.5823 1.7012
39.9400 26.5956 1.7039
39.9600 26.6089 1.7017
39.9800 26.6222 1.7045
40.0000 26.6355 1.7066
40.0200 26.6489 1.7020
40.0400 26.6622 1.7055
40.0600 26.6755 1.7058
40.0800 26.6889 1.7092
40.1000 26.7022 1.7051
40.1200 26.7156 1.7058
40.1400 26.7289 1.7132
40.1600 26.7422 1.7089
40.1800 26.7556 1.7070
40.2000 26.7689 1.7106
40.2200 26.7822 1.7169
40.2400 26.7956 1.7117
40.2600 26.8090 1.7173
40.2800 26.8223 1.7128
40.3000 26.8356 1.7150
40.3200 26.8489 1.7225
40.3400 26.8623 1.7139
40.3600 26.8756 1.7182
40.3800 26.8889 1.7289
40.4000 26.9022 1.7177
40.4200 26.9155 1.7188
40.4400 26.9289 1.7305
40.4600 26.9422 1.7219
40.4800 26.9555 1.7209
40.5000 26.9689 1.7337
40.5200 26.9823 1.7218
40.5400 26.9957 1.7263
40.5600 27.0090 1.7294
40.5800 27.0223 1.7278
40.6000 27.0356 1.7301
40.6200 27.0490 1.7358
40.6400 27.0623 1.7265
40.6600 27.0756 1.7318
40.6800 27.0889 1.7402
40.7000 27.1022 1.7291
40.7200 27.1156 1.7363
40.7400 27.1288 1.7405
40.7600 27.1421 1.7352
40.7800 27.1555 1.7422
40.8000 27.1689 1.7409
40.8200 27.1822 1.7414
40.8400 27.1955 1.7415
40.8600 27.2089 1.7448
40.8800 27.2223 1.7441
40.9000 27.2357 1.7446
40.9200 27.2490 1.7454
40.9400 27.2623 1.7423
40.9600 27.2756 1.7506
40.9800 27.2890 1.7483
41.0000 27.3023 1.7482
41.0200 27.3156 1.7500
41.0400 27.3289 1.7592
41.0600 27.3422 1.7502
41.0800 27.3556 1.7477
41.1000 27.3689 1.7640
41.1200 27.3822 1.7503
41.1400 27.3955 1.7501
41.1600 27.4089 1.7628
41.1800 27.4222 1.7498
41.2000 27.4356 1.7575
41.2200 27.4489 1.7672
41.2400 27.4623 1.7590
41.2600 27.4756 1.7563
41.2800 27.4889 1.7668
41.3000 27.5023 1.7596
41.3200 27.5156 1.7603
41.3400 27.5290 1.7701
41.3600 27.5423 1.7609
41.3800 27.5556 1.7634
41.4000 27.5689 1.7772
41.4200 27.5823 1.7607
41.4400 27.5956 1.7693
41.4600 27.6089 1.7788
41.4800 27.6222 1.7699
41.5000 27.6355 1.7754
41.5200 27.6489 1.7807
41.5400 27.6622 1.7679
41.5600 27.6756 1.7745
41.5800 27.6889 1.7833
41.6000 27.7023 1.7710
41.6200 27.7156 1.7746
41.6400 27.7290 1.7853
41.6600 27.7423 1.7761
41.6800 27.7556 1.7841
41.7000 27.7690 1.7889
41.7200 27.7823 1.7776
41.7400 27.7956 1.7851
41.7600 27.8089 1.7933
41.7800 27.8222 1.7837
41.8000 27.8356 1.7873
41.8200 27.8489 1.7974
41.8400 27.8622 1.7869
41.8600 27.8755 1.7890
41.8800 27.8889 1.7952
41.9000 27.9022 1.7914
41.9200 27.9155 1.7906
41.9400 27.9289 1.8008
41.9600 27.9422 1.7896
41.9800 27.9556 1.7950
42.0000 27.9690 1.8046
42.0200 27.9823 1.7923
42.0400 27.9956 1.8025
42.0600 28.0090 1.8111
42.0800 28.0223 1.7938
42.1000 28.0356 1.8058
42.1200 28.0489 1.8126
42.1400 28.0622 1.8033
42.1600 28.0756 1.8064
42.1800 28.0889 1.8113
42.2000 28.1022 1.8048
42.2200 28.1155 1.8096
42.2400 28.1289 1.8164
42.2600 28.1422 1.8094
42.2800 28.1555 1.8107
42.3000 28.1689 1.8167
42.3200 28.1822 1.8143
42.3400 28.1956 1.8169
42.3600 28.2090 1.8185
42.3800 28.2223 1.8165
42.4000 28.2356 1.8232
42.4200 28.2489 1.8224
42.4400 28.2623 1.8187
42.4600 28.2756 1.8234
42.4800 28.2889 1.8284
42.5000 28.3023 1.8238
42.5200 28.3156 1.8265
42.5400 28.3289 1.8307
42.5600 28.3422 1.8281
42.5800 28.3555 1.8283
42.6000 28.3688 1.8339
42.6200 28.3822 1.8285
42.6400 28.3955 1.8349
42.6600 28.4089 1.8380
42.6800 28.4223 1.8323
42.7000 28.4357 1.8340
42.7200 28.4490 1.8395
42.7400 28.4623 1.8368
42.7600 28.4757 1.8387
42.7800 28.4890 1.8437
42.8000 28.5023 1.8376
42.8200 28.5156 1.8412
42.8400 28.5289 1.8481
42.8600 28.5422 1.8408
42.8800 28.5555 1.8508
42.9000 28.5689 1.8468
42.9200 28.5822 1.8450
42.9400 28.5955 1.8516
42.9600 28.6089 1.8497
42.9800 28.6223 1.8492
43.0000 28.6356 1.8513
43.0200 28.6489 1.8529
43.0400 28.6623 1.8542
43.0600 28.6756 1.8509
43.0800 28.6890 1.8600
43.1000 28.7023 1.8603
43.1200 28.7156 1.8537
43.1400 28.7289 1.8618
43.1600 28.7423 1.8612
43.1800 28.7556 1.8586
43.2000 28.7689 1.8629
43.2200 28.7822 1.8674
43.2400 28.7956 1.8602
43.2600 28.8089 1.8694
43.2800 28.8222 1.8680
43.3000 28.8355 1.8653
43.3200 28.8489 1.8720
43.3400 28.8622 1.8670
43.3600 28.8756 1.8692
43.3800 28.8889 1.8764
43.4000 28.9023 1.8714
43.4200 28.9156 1.8734
43.4400 28.9290 1.8758
43.4600 28.9423 1.8741
43.4800 28.9556 1.8765
43.5000 28.9689 1.8839
43.5200 28.9823 1.8748
43.5400 28.9956 1.8810
43.5600 29.0089 1.8856
43.5800 29.0223 1.8781
43.6000 29.0356 1.8910
43.6200 29.0489 1.8836
43.6400 29.0622 1.8860
43.6600 29.0755 1.8921
43.6800 29.0889 1.8859
43.7000 29.1022 1.8898
43.7200 29.1156 1.8945
43.7400 29.1289 1.8910
43.7600 29.1422 1.8944
43.7800 29.1556 1.8972
43.8000 29.1690 1.8867
43.8200 29.1823 1.9004
43.8400 29.1956 1.9009
43.8600 29.2090 1.8960
43.8800 29.2223 1.9067
43.9000 29.2356 1.8995
43.9200 29.2489 1.9018
43.9400 29.2622 1.9082
43.9600 29.2756 1.9046
43.9800 29.2889 1.9028
44.0000 29.3022 1.9130
44.0200 29.3155 1.9061
44.0400 29.3289 1.9036
44.0600 29.3422 1.9185
44.0800 29.3556 1.9068
44.1000 29.3689 1.9082
44.1200 29.3822 1.9222
44.1400 29.3956 1.9057
44.1600 29.4090 1.9129
44.1800 29.4223 1.9226
44.2000 29.4356 1.9134
44.2200 29.4490 1.9168
44.2400 29.4623 1.9247
44.2600 29.4756 1.9174
44.2800 29.4889 1.9233
44.3000 29.5022 1.9264
44.3200 29.5156 1.9229
44.3400 29.5289 1.9252
44.3600 29.5422 1.9274
44.3800 29.5555 1.9294
44.4000 29.5688 1.9281
44.4200 29.5822 1.9272
44.4400 29.5955 1.9353
44.4600 29.6089 1.9336
44.4800 29.6223 1.9314
44.5000 29.6357 1.9351
44.5200 29.6490 1.9308
44.5400 29.6623 1.9348
44.5600 29.6756 1.9442
44.5800 29.6890 1.9329
44.6000 29.7023 1.9422
44.6200 29.7156 1.9499
44.6400 29.7289 1.9360
44.6600 29.7422 1.9483
44.6800 29.7556 1.9494
44.7000 29.7689 1.9379
44.7200 29.7822 1.9501
44.7400 29.7955 1.9553
44.7600 29.8088 1.9423
44.7800 29.8222 1.9530
44.8000 29.8355 1.9557
44.8200 29.8489 1.9533
44.8400 29.8622 1.9569
44.8600 29.8756 1.9560
44.8800 29.8890 1.9522
44.9000 29.9023 1.9622
44.9200 29.9156 1.9618
44.9400 29.9290 1.9566
44.9600 29.9423 1.9627
44.9800 29.9556 1.9644
45.0000 29.9689 1.9568
45.0200 29.9822 1.9733
45.0400 29.9955 1.9727
45.0600 30.0089 1.9595
45.0800 30.0222 1.9724
45.1000 30.0355 1.9725
45.1200 30.0489 1.9656
45.1400 30.0623 1.9804
45.1600 30.0756 1.9744
45.1800 30.0889 1.9669
45.2000 30.1023 1.9855
45.2200 30.1156 1.9753
45.2400 30.1290 1.9692
45.2600 30.1423 1.9879
45.2800 30.1556 1.9826
45.3000 30.1689 1.9767
45.3200 30.1823 1.9909
45.3400 30.1956 1.9825
45.3600 30.2090 1.9818
45.3800 30.2223 1.9974
45.4000 30.2356 1.9854
45.4200 30.2490 1.9826
45.4400 30.2623 1.9998
45.4600 30.2756 1.9875
45.4800 30.2889 1.9875
45.5000 30.3022 1.9983
45.5200 30.3156 1.9951
45.5400 30.3289 1.9917
45.5600 30.3422 2.0035
45.5800 30.3556 1.9966
45.6000 30.3689 1.9961
45.6200 30.3823 2.0065
45.6400 30.3956 2.0017
45.6600 30.4089 2.0019
45.6800 30.4223 2.0096
45.7000 30.4356 2.0017
45.7200 30.4489 2.0034
45.7400 30.4622 2.0123
45.7600 30.4756 2.0113
45.7800 30.4889 2.0106
45.8000 30.5022 2.0160
45.8200 30.5155 2.0144
45.8400 30.5289 2.0152
45.8600 30.5422 2.0159
45.8800 30.5555 2.0208
45.9000 30.5689 2.0176
45.9200 30.5822 2.0212
45.9400 30.5956 2.0245
45.9600 30.6090 2.0168
45.9800 30.6223 2.0237
46.0000 30.6356 2.0272
46.0200 30.6489 2.0258
46.0400 30.6623 2.0258
46.0600 30.6756 2.0304
46.0800 30.6889 2.0324
46.1000 30.7022 2.0335
46.1200 30.7156 2.0329
46.1400 30.7289 2.0303
46.1600 30.7422 2.0383
46.1800 30.7555 2.0360
46.2000 30.7689 2.0323
46.2200 30.7822 2.0475
46.2400 30.7956 2.0389
46.2600 30.8089 2.0390
46.2800 30.8222 2.0483
46.3000 30.8356 2.0426
46.3200 30.8489 2.0438
46.3400 30.8623 2.0533
46.3600 30.8756 2.0444
46.3800 30.8890 2.0469
46.4000 30.9023 2.0558
46.4200 30.9156 2.0498
46.4400 30.9289 2.0504
46.4600 30.9423 2.0622
46.4800 30.9556 2.0527
46.5000 30.9689 2.0530
46.5200 30.9822 2.0634
46.5400 30.9955 2.0621
46.5600 31.0088 2.0643
46.5800 31.0222 2.0679
46.6000 31.0355 2.0604
46.6200 31.0489 2.0645
46.6400 31.0622 2.0688
46.6600 31.0756 2.0632
46.6800 31.0890 2.0723
46.7000 31.1023 2.0731
46.7200 31.1156 2.0663
46.7400 31.1289 2.0748
46.7600 31.1423 2.0729
46.7800 31.1556 2.0733
46.8000 31.1689 2.0793
46.8200 31.1823 2.0793
46.8400 31.1956 2.0753
46.8600 31.2089 2.0801
46.8800 31.2222 2.0812
46.9000 31.2356 2.0788
46.9200 31.2489 2.0900
46.9400 31.2622 2.0834
46.9600 31.2756 2.0898
46.9800 31.2889 2.0845
47.0000 31.3022 2.0903
47.0200 31.3156 2.0949
47.0400 31.3290 2.0860
47.0600 31.3423 2.0928
47.0800 31.3556 2.1005
47.1000 31.3689 2.0977
47.1200 31.3823 2.0953
47.1400 31.3956 2.0995
47.1600 31.4089 2.1027
47.1800 31.4222 2.1040
47.2000 31.4356 2.1079
47.2200 31.4489 2.1012
47.2400 31.4622 2.1029
47.2600 31.4755 2.1096
47.2800 31.4889 2.1096
47.3000 31.5022 2.1105
47.3200 31.5156 2.1084
47.3400 31.5289 2.1155
47.3600 31.5422 2.1134
47.3800 31.5556 2.1153
47.4000 31.5689 2.1213
47.4200 31.5823 2.1164
47.4400 31.5956 2.1189
47.4600 31.6089 2.1234
47.4800 31.6223 2.1196
47.5000 31.6356 2.1201
47.5200 31.6489 2.1261
47.5400 31.6623 2.1256
47.5600 31.6756 2.1284
47.5800 31.6890 2.1327
47.6000 31.7023 2.1248
47.6200 31.7156 2.1369
47.6400 31.7289 2.1353
47.6600 31.7422 2.1359
47.6800 31.7555 2.1352
47.7000 31.7688 2.1388
47.7200 31.7822 2.1397
47.7400 31.7956 2.1402
47.7600 31.8090 2.1409
47.7800 31.8223 2.1458
47.8000 31.8356 2.1436
47.8200 31.8490 2.1434
47.8400 31.8623 2.1473
47.8600 31.8757 2.1467
47.8800 31.8890 2.1500
47.9000 31.9023 2.1534
47.9200 31.9156 2.1514
47.9400 31.9289 2.1540
47.9600 31.9422 2.1568
47.9800 31.9555 2.1535
48.0000 31.9688 2.1647
48.0200 31.9822 2.1606
48.0400 31.9955 2.1555
48.0600 32.0089 2.1676
48.0800 32.0222 2.1618
48.1000 32.0356 2.1666
48.1200 32.0490 2.1693
48.1400 32.0623 2.1615
48.1600 32.0757 2.1705
48.1800 32.0890 2.1753
48.2000 32.1023 2.1694
48.2200 32.1157 2.1748
48.2400 32.1289 2.1788
48.2600 32.1422 2.1787
48.2800 32.1555 2.1793
48.3000 32.1689 2.1818
48.3200 32.1822 2.1808
48.3400 32.1955 2.1826
48.3600 32.2088 2.1844
48.3800 32.2222 2.1875
48.4000 32.2356 2.1871
48.4200 32.2489 2.1869
48.4400 32.2622 2.1905
48.4600 32.2756 2.1863
48.4800 32.2889 2.1967
48.5000 32.3023 2.1937
48.5200 32.3156 2.1938
48.5400 32.3289 2.2037
48.5600 32.3423 2.1998
48.5800 32.3556 2.1939
48.6000 32.3690 2.2063
48.6200 32.3823 2.2041
48.6400 32.3956 2.1996
48.6600 32.4089 2.2113
48.6800 32.4223 2.2104
48.7000 32.4355 2.2034
48.7200 32.4488 2.2207
48.7400 32.4622 2.2131
48.7600 32.4755 2.2062
48.7800 32.4889 2.2252
48.8000 32.5022 2.2120
48.8200 32.5156 2.2134
48.8400 32.5290 2.2312
48.8600 32.5423 2.2179
48.8800 32.5556 2.2154
48.9000 32.5689 2.2355
48.9200 32.5823 2.2218
48.9400 32.5956 2.2224
48.9600 32.6089 2.2371
48.9800 32.6222 2.2248
49.0000 32.6356 2.2326
49.0200 32.6489 2.2407
49.0400 32.6622 2.2226
49.0600 32.6755 2.2372
49.0800 32.6889 2.2454
49.1000 32.7022 2.2297
49.1200 32.7156 2.2385
49.1400 32.7289 2.2482
49.1600 32.7422 2.2408
49.1800 32.7556 2.2476
49.2000 32.7689 2.2508
49.2200 32.7823 2.2483
49.2400 32.7956 2.2477
49.2600 32.8089 2.2555
49.2800 32.8223 2.2537
49.3000 32.8357 2.2519
49.3200 32.8490 2.2571
49.3400 32.8623 2.2604
49.3600 32.8756 2.2575
49.3800 32.8889 2.2618
49.4000 32.9023 2.2660
49.4200 32.9156 2.2609
49.4400 32.9289 2.2693
49.4600 32.9422 2.2691
49.4800 32.9555 2.2636
49.5000 32.9689 2.2744
49.5200 32.9822 2.2718
49.5400 32.9956 2.2684
49.5600 33.0089 2.2747
49.5800 33.0223 2.2738
49.6000 33.0356 2.2769
49.6200 33.0489 2.2804
49.6400 33.0623 2.2818
49.6600 33.0756 2.2820
49.6800 33.0890 2.2849
49.7000 33.1023 2.2874
49.7200 33.1156 2.2918
49.7400 33.1289 2.2836
49.7600 33.1422 2.2972
49.7800 33.1555 2.2896
49.8000 33.1688 2.2901
49.8200 33.1821 2.3075
49.8400 33.1955 2.2901
49.8600 33.2088 2.2922
49.8800 33.2222 2.3112
49.9000 33.2355 2.2967
49.9200 33.2489 2.2969
49.9400 33.2623 2.3110
49.9600 33.2757 2.3032
49.9800 33.2890 2.3014
50.0000 33.3023 2.3226
50.0200 33.3157 2.3041
50.0400 33.3290 2.3125
50.0600 33.3422 2.3226
50.0800 33.3555 2.3064
50.1000 33.3689 2.3178
50.1200 33.3822 2.3257
50.1400 33.3955 2.3096
50.1600 33.4088 2.3241
50.1800 33.4222 2.3279
50.2000 33.4356 2.3190
50.2200 33.4489 2.3255
50.2400 33.4622 2.3307
50.2600 33.4756 2.3234
50.2800 33.4890 2.3309
50.3000 33.5023 2.3357
50.3200 33.5156 2.3261
50.3400 33.5289 2.3374
50.3600 33.5423 2.3393
50.3800 33.5556 2.3355
50.4000 33.5689 2.3424
50.4200 33.5822 2.3430
50.4400 33.5956 2.3397
50.4600 33.6089 2.3495
50.4800 33.6223 2.3482
50.5000 33.6356 2.3433
50.5200 33.6489 2.3546
50.5400 33.6622 2.3493
50.5600 33.6756 2.3470
50.5800 33.6889 2.3618
50.6000 33.7022 2.3558
50.6200 33.7156 2.3542
50.6400 33.7290 2.3638
50.6600 33.7423 2.3592
50.6800 33.7557 2.3566
50.7000 33.7689 2.3722
50.7200 33.7823 2.3654
50.7400 33.7956 2.3606
50.7600 33.8090 2.3736
50.7800 33.8223 2.3728
50.8000 33.8356 2.3697
50.8200 33.8489 2.3785
50.8400 33.8623 2.3777
50.8600 33.8756 2.3741
50.8800 33.8889 2.3829
50.9000 33.9022 2.3861
50.9200 33.9156 2.3791
50.9400 33.9289 2.3847
50.9600 33.9422 2.3869
50.9800 33.9555 2.3875
51.0000 33.9689 2.3902
51.0200 33.9823 2.3917
51.0400 33.9956 2.3939
51.0600 34.0090 2.3927
51.0800 34.0223 2.3990
51.1000 34.0356 2.3993
51.1200 34.0489 2.3995
51.1400 34.0622 2.4063
51.1600 34.0756 2.4072
51.1800 34.0889 2.4039
51.2000 34.1023 2.4080
51.2200 34.1156 2.4096
51.2400 34.1289 2.4099
51.2600 34.1422 2.4139
51.2800 34.1556 2.4168
51.3000 34.1689 2.4129
51.3200 34.1822 2.4213
51.3400 34.1955 2.4249
51.3600 34.2089 2.4195
51.3800 34.2223 2.4212
51.4000 34.2356 2.4316
51.4200 34.2489 2.4254
51.4400 34.2623 2.4282
51.4600 34.2756 2.4365
51.4800 34.2890 2.4294
51.5000 34.3023 2.4344
51.5200 34.3156 2.4459
51.5400 34.3289 2.4301
51.5600 34.3422 2.4426
51.5800 34.3556 2.4421
51.6000 34.3689 2.4349
51.6200 34.3822 2.4541
51.6400 34.3955 2.4471
51.6600 34.4089 2.4403
51.6800 34.4222 2.4553
51.7000 34.4356 2.4549
51.7200 34.4489 2.4502
51.7400 34.4623 2.4578
51.7600 34.4756 2.4578
51.7800 34.4889 2.4564
51.8000 34.5023 2.4629
51.8200 34.5156 2.4647
51.8400 34.5290 2.4629
51.8600 34.5423 2.4696
51.8800 34.5556 2.4713
51.9000 34.5689 2.4694
51.9200 34.5822 2.4740
51.9400 34.5956 2.4746
51.9600 34.6089 2.4720
51.9800 34.6222 2.4823
52.0000 34.6355 2.4790
52.0200 34.6489 2.4776
52.0400 34.6622 2.4860
52.0600 34.6755 2.4857
52.0800 34.6889 2.4857
52.1000 34.7023 2.4914
52.1200 34.7157 2.4913
52.1400 34.7290 2.4945
52.1600 34.7423 2.4969
52.1800 34.7556 2.5000
52.2000 34.7690 2.4952
52.2200 34.7823 2.5004
52.2400 34.7955 2.5026
52.2600 34.8089 2.5037
52.2800 34.8222 2.5072
52.3000 34.8355 2.5071
52.3200 34.8489 2.5109
52.3400 34.8622 2.5124
52.3600 34.8756 2.5169
52.3800 34.8890 2.5165
52.4000 34.9023 2.5167
52.4200 34.9156 2.5197
52.4400 34.9289 2.5193
52.4600 34.9423 2.5211
52.4800 34.9556 2.5316
52.5000 34.9689 2.5283
52.5200 34.9822 2.5278
52.5400 34.9956 2.5380
52.5600 35.0089 2.5290
52.5800 35.0223 2.5318
52.6000 35.0356 2.5466
52.6200 35.0489 2.5292
52.6400 35.0623 2.5422
52.6600 35.0756 2.5501
52.6800 35.0889 2.5392
52.7000 35.1022 2.5486
52.7200 35.1155 2.5581
52.7400 35.1289 2.5402
52.7600 35.1422 2.5538
52.7800 35.1555 2.5627
52.8000 35.1689 2.5511
52.8200 35.1822 2.5574
52.8400 35.1956 2.5674
52.8600 35.2089 2.5541
52.8800 35.2223 2.5680
52.9000 35.2356 2.5729
52.9200 35.2490 2.5550
52.9400 35.2623 2.5763
52.9600 35.2756 2.5758
52.9800 35.2889 2.5659
53.0000 35.3023 2.5826
53.0200 35.3156 2.5797
53.0400 35.3289 2.5745
53.0600 35.3422 2.5870
53.0800 35.3555 2.5867
53.1000 35.3689 2.5772
53.1200 35.3822 2.5954
53.1400 35.3955 2.5913
53.1600 35.4089 2.5828
53.1800 35.4223 2.6000
53.2000 35.4357 2.5966
53.2200 35.4490 2.5904
53.2400 35.4623 2.6043
53.2600 35.4756 2.6062
53.2800 35.4890 2.5963
53.3000 35.5023 2.6110
53.3200 35.5156 2.6101
53.3400 35.5289 2.6051
53.3600 35.5422 2.6179
53.3800 35.5556 2.6137
53.4000 35.5689 2.6094
53.4200 35.5822 2.6229
53.4400 35.5956 2.6183
53.4600 35.6089 2.6173
53.4800 35.6222 2.6261
53.5000 35.6356 2.6298
53.5200 35.6489 2.6245
53.5400 35.6623 2.6332
53.5600 35.6756 2.6295
53.5800 35.6890 2.6302
53.6000 35.7023 2.6405
53.6200 35.7156 2.6380
53.6400 35.7290 2.6401
53.6600 35.7423 2.6397
53.6800 35.7556 2.6483
53.7000 35.7689 2.6485
53.7200 35.7823 2.6444
53.7400 35.7956 2.6581
53.7600 35.8089 2.6503
53.7800 35.8222 2.6550
53.8000 35.8355 2.6619
53.8200 35.8489 2.6572
53.8400 35.8622 2.6621
53.8600 35.8756 2.6627
53.8800 35.8889 2.6671
53.9000 35.9023 2.6644
53.9200 35.9156 2.6719
53.9400 35.9290 2.6778
53.9600 35.9423 2.6652
53.9800 35.9556 2.6792
54.0000 35.9690 2.6815
54.0200 35.9823 2.6722
54.0400 35.9956 2.6870
54.0600 36.0089 2.6856
54.0800 36.0222 2.6818
54.1000 36.0356 2.6920
54.1200 36.0489 2.6954
54.1400 36.0622 2.6838
54.1600 36.0755 2.7007
54.1800 36.0889 2.6941
54.2000 36.1022 2.6912
54.2200 36.1155 2.7150
54.2400 36.1289 2.6989
54.2600 36.1423 2.7024
54.2800 36.1556 2.7162
54.3000 36.1689 2.7057
54.3200 36.1823 2.7127
54.3400 36.1956 2.7221
54.3600 36.2090 2.7105
54.3800 36.2223 2.7179
54.4000 36.2356 2.7301
54.4200 36.2489 2.7165
54.4400 36.2622 2.7267
54.4600 36.2755 2.7345
54.4800 36.2889 2.7234
54.5000 36.3022 2.7355
54.5200 36.3155 2.7381
54.5400 36.3289 2.7342
54.5600 36.3422 2.7372
54.5800 36.3556 2.7464
54.6000 36.3689 2.7404
54.6200 36.3823 2.7416
54.6400 36.3956 2.7544
54.6600 36.4089 2.7491
54.6800 36.4222 2.7463
54.7000 36.4356 2.7590
54.7200 36.4490 2.7561
54.7400 36.4623 2.7567
54.7600 36.4756 2.7686
54.7800 36.4889 2.7648
54.8000 36.5023 2.7609
54.8200 36.5157 2.7783
54.8400 36.5289 2.7641
54.8600 36.5422 2.7682
54.8800 36.5555 2.7856
54.9000 36.5689 2.7711
54.9200 36.5822 2.7776
54.9400 36.5955 2.7922
54.9600 36.6089 2.7761
54.9800 36.6223 2.7888
55.0000 36.6357 2.7918
55.0200 36.6490 2.7852
55.0400 36.6623 2.7986
55.0600 36.6756 2.7996
55.0800 36.6890 2.7940
55.1000 36.7023 2.8010
55.1200 36.7156 2.8090
55.1400 36.7289 2.7972
55.1600 36.7422 2.8153
55.1800 36.7556 2.8144
55.2000 36.7689 2.8044
55.2200 36.7822 2.8237
55.2400 36.7955 2.8177
55.2600 36.8089 2.8146
55.2800 36.8222 2.8288
55.3000 36.8355 2.8213
55.3200 36.8489 2.8290
55.3400 36.8623 2.8355
55.3600 36.8756 2.8242
55.3800 36.8890 2.8371
55.4000 36.9023 2.8416
55.4200 36.9156 2.8295
55.4400 36.9290 2.8459
55.4600 36.9423 2.8476
55.4800 36.9556 2.8381
55.5000 36.9689 2.8593
55.5200 36.9822 2.8506
55.5400 36.9956 2.8476
55.5600 37.0089 2.8673
55.5800 37.0222 2.8556
55.6000 37.0355 2.8584
55.6200 37.0489 2.8684
55.6400 37.0622 2.8619
55.6600 37.0756 2.8664
55.6800 37.0889 2.8824
55.7000 37.1023 2.8643
55.7200 37.1156 2.8747
55.7400 37.1290 2.8860
55.7600 37.1423 2.8708
55.7800 37.1556 2.8881
55.8000 37.1690 2.8873
55.8200 37.1823 2.8755
55.8400 37.1956 2.8929
55.8600 37.2089 2.8963
55.8800 37.2223 2.8907
55.9000 37.2356 2.9022
55.9200 37.2489 2.8970
55.9400 37.2622 2.9004
55.9600 37.2755 2.9077
55.9800 37.2889 2.9078
56.0000 37.3022 2.9130
56.0200 37.3156 2.9126
56.0400 37.3289 2.9116
56.0600 37.3423 2.9200
56.0800 37.3556 2.9186
56.1000 37.3690 2.9271
56.1200 37.3823 2.9277
56.1400 37.3956 2.9262
56.1600 37.4090 2.9293
56.1800 37.4223 2.9363
56.2000 37.4356 2.9312
56.2200 37.4489 2.9412
56.2400 37.4622 2.9432
56.2600 37.4756 2.9370
56.2800 37.4889 2.9475
56.3000 37.5022 2.9494
56.3200 37.5155 2.9475
56.3400 37.5289 2.9574
56.3600 37.5422 2.9564
56.3800 37.5555 2.9564
56.4000 37.5689 2.9646
56.4200 37.5822 2.9658
56.4400 37.5956 2.9614
56.4600 37.6090 2.9678
56.4800 37.6223 2.9728
56.5000 37.6356 2.9701
56.5200 37.6490 2.9761
56.5400 37.6623 2.9773
56.5600 37.6756 2.9821
56.5800 37.6889 2.9888
56.6000 37.7022 2.9827
56.6200 37.7156 2.9896
56.6400 37.7289 2.9993
56.6600 37.7422 2.9910
56.6800 37.7555 2.9968
56.7000 37.7689 3.0050
56.7200 37.7822 3.0011
56.7400 37.7955 3.0020
56.7600 37.8089 3.0129
56.7800 37.8222 3.0089
56.8000 37.8356 3.0130
56.8200 37.8489 3.0169
56.8400 37.8623 3.0163
56.8600 37.8756 3.0221
56.8800 37.8889 3.0268
56.9000 37.9023 3.0275
56.9200 37.9156 3.0248
56.9400 37.9289 3.0341
56.9600 37.9423 3.0416
56.9800 37.9556 3.0309
57.0000 37.9689 3.0425
57.0200 37.9822 3.0521
57.0400 37.9955 3.0403
57.0600 38.0088 3.0508
57.0800 38.0222 3.0584
57.1000 38.0355 3.0476
57.1200 38.0489 3.0661
57.1400 38.0622 3.0614
57.1600 38.0756 3.0546
57.1800 38.0890 3.0736
57.2000 38.1023 3.0696
57.2200 38.1157 3.0652
57.2400 38.1290 3.0828
57.2600 38.1423 3.0734
57.2800 38.1556 3.0707
57.3000 38.1689 3.0943
57.3200 38.1822 3.0831
57.3400 38.1955 3.0840
57.3600 38.2089 3.1052
57.3800 38.2222 3.0914
57.4000 38.2355 3.0909
57.4200 38.2489 3.1075
57.4400 38.2623 3.1008
57.4600 38.2756 3.0988
57.4800 38.2889 3.1149
57.5000 38.3023 3.1136
57.5200 38.3156 3.1049
57.5400 38.3290 3.1244
57.5600 38.3423 3.1168
57.5800 38.3556 3.1165
57.6000 38.3690 3.1301
57.6200 38.3823 3.1274
57.6400 38.3956 3.1272
57.6600 38.4089 3.1414
57.6800 38.4222 3.1369
57.7000 38.4356 3.1374
57.7200 38.4489 3.1464
57.7400 38.4622 3.1463
57.7600 38.4755 3.1447
57.7800 38.4889 3.1533
57.8000 38.5022 3.1536
57.8200 38.5156 3.1584
57.8400 38.5289 3.1624
57.8600 38.5422 3.1674
57.8800 38.5556 3.1612
57.9000 38.5690 3.1726
57.9200 38.5823 3.1773
57.9400 38.5956 3.1754
57.9600 38.6089 3.1812
57.9800 38.6223 3.1822
58.0000 38.6356 3.1828
58.0200 38.6489 3.1876
58.0400 38.6622 3.1914
58.0600 38.6756 3.1900
58.0800 38.6889 3.2002
58.1000 38.7022 3.2037
58.1200 38.7155 3.1965
58.1400 38.7289 3.2089
58.1600 38.7422 3.2087
58.1800 38.7555 3.2049
58.2000 38.7689 3.2207
58.2200 38.7822 3.2153
58.2400 38.7956 3.2153
58.2600 38.8090 3.2274
58.2800 38.8223 3.2288
58.3000 38.8356 3.2256
58.3200 38.8490 3.2362
58.3400 38.8623 3.2357
58.3600 38.8756 3.2350
58.3800 38.8889 3.2461
58.4000 38.9022 3.2455
58.4200 38.9156 3.2433
58.4400 38.9289 3.2526
58.4600 38.9422 3.2540
58.4800 38.9555 3.2560
58.5000 38.9689 3.2665
58.5200 38.9822 3.2608
58.5400 38.9956 3.2592
58.5600 39.0089 3.2786
58.5800 39.0222 3.2718
58.6000 39.0356 3.2730
58.6200 39.0490 3.2828
58.6400 39.0623 3.2799
58.6600 39.0756 3.2843
58.6800 39.0889 3.2912
58.7000 39.1023 3.2904
58.7200 39.1156 3.2917
58.7400 39.1289 3.3008
58.7600 39.1422 3.3015
58.7800 39.1556 3.3013
58.8000 39.1689 3.3097
58.8200 39.1822 3.3091
58.8400 39.1955 3.3140
58.8600 39.2089 3.3201
58.8800 39.2222 3.3162
58.9000 39.2356 3.3230
58.9200 39.2489 3.3257
58.9400 39.2623 3.3300
58.9600 39.2756 3.3299
58.9800 39.2890 3.3400
59.0000 39.3023 3.3398
59.0200 39.3156 3.3411
59.0400 39.3290 3.3508
59.0600 39.3423 3.3473
59.0800 39.3556 3.3508
59.1000 39.3689 3.3603
59.1200 39.3822 3.3567
59.1400 39.3955 3.3639
59.1600 39.4089 3.3663
59.1800 39.4222 3.3653
59.2000 39.4355 3.3732
59.2200 39.4489 3.3751
59.2400 39.4622 3.3704
59.2600 39.4755 3.3821
59.2800 39.4889 3.3837
59.3000 39.5022 3.3851
59.3200 39.5156 3.3935
59.3400 39.5290 3.3944
59.3600 39.5423 3.3967
59.3800 39.5556 3.4019
59.4000 39.5689 3.4052
59.4200 39.5823 3.4037
59.4400 39.5956 3.4144
59.4600 39.6089 3.4138
59.4800 39.6222 3.4142
59.5000 39.6355 3.4259
59.5200 39.6489 3.4214
59.5400 39.6622 3.4234
59.5600 39.6755 3.4328
59.5800 39.6889 3.4333
59.6000 39.7023 3.4299
59.6200 39.7156 3.4445
59.6400 39.7289 3.4484
59.6600 39.7423 3.4349
59.6800 39.7556 3.4516
59.7000 39.7690 3.4517
59.7200 39.7823 3.4460
59.7400 39.7956 3.4652
59.7600 39.8089 3.4620
59.7800 39.8223 3.4544
59.8000 39.8356 3.4781
59.8200 39.8489 3.4744
59.8400 39.8623 3.4659
59.8600 39.8756 3.4867
59.8800 39.8890 3.4816
59.9000 39.9023 3.4767
59.9200 39.9156 3.5009
59.9400 39.9289 3.4861
59.9600 39.9422 3.4909
59.9800 39.9556 3.5083
60.0000 39.9689 3.4992
60.0200 39.9822 3.5051
60.0400 39.9955 3.5093
60.0470 40.0001 3.4958
60.0480 40.0008 3.4928
60.0490 40.0014 3.4898
60.0690 40.0119 3.4011
60.0890 40.0140 3.3466
60.1090 40.0057 3.4464
60.1290 39.9929 3.5040
60.1490 39.9800 3.4820
60.1690 39.9671 3.4552
60.1890 39.9537 3.4661
60.2090 39.9396 3.4562
60.2290 39.9256 3.4455
60.2490 39.9118 3.4484
60.2690 39.8983 3.4245
60.2890 39.8850 3.4307
60.3090 39.8717 3.4165
60.3290 39.8585 3.3988
60.3490 39.8451 3.4083
60.3690 39.8317 3.3910
60.3890 39.8183 3.3836
60.4090 39.8050 3.3901
60.4290 39.7916 3.3679
60.4490 39.7783 3.3622
60.4690 39.7649 3.3703
60.4890 39.7516 3.3490
60.5090 39.7383 3.3399
60.5290 39.7250 3.3508
60.5490 39.7116 3.3268
60.5690 39.6982 3.3280
60.5890 39.6849 3.3315
60.6090 39.6716 3.3096
60.6290 39.6582 3.3082
60.6490 39.6449 3.3134
60.6690 39.6316 3.2871
60.6890 39.6183 3.2905
60.7090 39.6050 3.2975
60.7290 39.5916 3.2660
60.7490 39.5783 3.2760
60.7690 39.5650 3.2765
60.7890 39.5517 3.2476
60.8090 39.5383 3.2588
60.8290 39.5249 3.2538
60.8490 39.5116 3.2354
60.8690 39.4983 3.2454
60.8890 39.4849 3.2325
60.9090 39.4716 3.2158
60.9290 39.4582 3.2273
60.9490 39.4449 3.2145
60.9690 39.4316 3.2044
60.9890 39.4183 3.2120
61.0090 39.4049 3.1982
61.0290 39.3916 3.1915
61.0490 39.3783 3.1941
61.0690 39.3650 3.1781
61.0890 39.3516 3.1785
61.1090 39.3383 3.1784
61.1290 39.3250 3.1613
61.1490 39.3116 3.1589
61.1690 39.2983 3.1589
61.1890 39.2849 3.1517
61.2090 39.2715 3.1434
61.2290 39.2582 3.1392
61.2490 39.2449 3.1351
61.2690 39.2316 3.1249
61.2890 39.2182 3.1243
61.3090 39.2049 3.1233
61.3290 39.1916 3.1116
61.3490 39.1782 3.1050
61.3690 39.1649 3.1107
61.3890 39.1516 3.0952
61.4090 39.1383 3.0893
61.4290 39.1250 3.0988
61.4490 39.1116 3.0818
61.4690 39.0983 3.0764
61.4890 39.0850 3.0797
61.5090 39.0716 3.0629
61.5290 39.0583 3.0587
61.5490 39.0449 3.0698
61.5690 39.0315 3.0536
61.5890 39.0182 3.0450
61.6090 39.0049 3.0519
61.6290 38.9916 3.0362
61.6490 38.9782 3.0305
61.6690 38.9649 3.0399
61.6890 38.9516 3.0203
61.7090 38.9383 3.0178
61.7290 38.9249 3.0276
61.7490 38.9116 3.0034
61.7690 38.8983 3.0065
61.7890 38.8850 3.0104
61.8090 38.8716 2.9887
61.8290 38.8583 2.9926
61.8490 38.8449 3.0001
61.8690 38.8316 2.9745
61.8890 38.8183 2.9740
61.9090 38.8049 2.9835
61.9290 38.7915 2.9635
61.9490 38.7782 2.9649
61.9690 38.7649 2.9659
61.9890 38.7515 2.9515
62.0090 38.7382 2.9562
62.0290 38.7249 2.9517
62.0490 38.7116 2.9413
62.0690 38.6983 2.9431
62.0890 38.6849 2.9361
62.1090 38.6716 2.9242
62.1290 38.6583 2.9256
62.1490 38.6450 2.9269
62.1690 38.6316 2.9165
62.1890 38.6182 2.9152
62.2090 38.6050 2.9136
62.2290 38.5916 2.8972
62.2490 38.5783 2.9048
62.2690 38.5649 2.8984
62.2890 38.5515 2.8904
62.3090 38.5382 2.8959
62.3290 38.5249 2.8806
62.3490 38.5116 2.8803
62.3690 38.4982 2.8807
62.3890 38.4849 2.8729
62.4090 38.4716 2.8693
62.4290 38.4582 2.8628
62.4490 38.4449 2.8602
62.4690 38.4316 2.8549
62.4890 38.4183 2.8552
62.5090 38.4050 2.8457
62.5290 38.3916 2.8461
62.5490 38.3783 2.8413
62.5690 38.3650 2.8351
62.5890 38.3516 2.8357
62.6090 38.3383 2.8243
62.6290 38.3249 2.8239
62.6490 38.3115 2.8247
62.6690 38.2982 2.8115
62.6890 38.2849 2.8127
62.7090 38.2715 2.8108
62.7290 38.2582 2.8062
62.7490 38.2449 2.8017
62.7690 38.2316 2.7973
62.7890 38.2182 2.7896
62.8090 38.2049 2.7985
62.8290 38.1916 2.7859
62.8490 38.1783 2.7775
62.8690 38.1650 2.7846
62.8890 38.1516 2.7702
62.9090 38.1382 2.7682
62.9290 38.1249 2.7692
62.9490 38.1116 2.7605
62.9690 38.0983 2.7612
62.9890 38.0849 2.7552
63.0090 38.0715 2.7506
63.0290 38.0582 2.7525
63.0490 38.0449 2.7410
63.0690 38.0315 2.7366
63.0890 38.0182 2.7434
63.1090 38.0048 2.7311
63.1290 37.9915 2.7311
63.1490 37.9782 2.7323
63.1690 37.9649 2.7170
63.1890 37.9516 2.7199
63.2090 37.9383 2.7195
63.2290 37.9250 2.7092
63.2490 37.9116 2.7085
63.2690 37.8983 2.7072
63.2890 37.8849 2.6954
63.3090 37.8716 2.6987
63.3290 37.8583 2.6939
63.3490 37.8449 2.6855
63.3690 37.8315 2.6912
63.3890 37.8182 2.6824
63.4090 37.8049 2.6748
63.4290 37.7915 2.6815
63.4490 37.7782 2.6739
63.4690 37.7649 2.6641
63.4890 37.7516 2.6731
63.5090 37.7383 2.6575
63.5290 37.7249 2.6553
63.5490 37.7116 2.6675
63.5690 37.6983 2.6484
63.5890 37.6850 2.6490
63.6090 37.6716 2.6556
63.6290 37.6583 2.6400
63.6490 37.6450 2.6403
63.6690 37.6316 2.6405
63.6890 37.6183 2.6300
63.7090 37.6049 2.6330
63.7290 37.5915 2.6308
63.7490 37.5782 2.6195
63.7690 37.5649 2.6247
63.7890 37.5516 2.6130
63.8090 37.5382 2.6136
63.8290 37.5249 2.6143
63.8490 37.5116 2.6021
63.8690 37.4983 2.6011
63.8890 37.4849 2.6063
63.9090 37.4716 2.5903
63.9290 37.4583 2.5970
63.9490 37.4449 2.6003
63.9690 37.4316 2.5769
63.9890 37.4182 2.5916
64.0090 37.4049 2.5854
64.0290 37.3916 2.5679
64.0490 37.3783 2.5850
64.0690 37.3649 2.5676
64.0890 37.3516 2.5655
64.1090 37.3382 2.5735
64.1290 37.3249 2.5594
64.1490 37.3116 2.5560
64.1690 37.2982 2.5661
64.1890 37.2848 2.5502
64.2090 37.2715 2.5471
64.2290 37.2582 2.5554
64.2490 37.2449 2.5392
64.2690 37.2316 2.5449
64.2890 37.2183 2.5414
64.3090 37.2050 2.5283
64.3290 37.1916 2.5352
64.3490 37.1783 2.5347
64.3690 37.1649 2.5265
64.3890 37.1516 2.5255
64.4090 37.1383 2.5225
64.4290 37.1249 2.5137
64.4490 37.1116 2.5174
64.4690 37.0983 2.5175
64.4890 37.0849 2.5063
64.5090 37.0716 2.5054
64.5290 37.0582 2.5087
64.5490 37.0448 2.4990
64.5690 37.0315 2.4976
64.5890 37.0182 2.4970
64.6090 37.0049 2.4899
64.6290 36.9915 2.4880
64.6490 36.9783 2.4909
64.6690 36.9650 2.4815
64.6890 36.9516 2.4786
64.7090 36.9383 2.4849
64.7290 36.9249 2.4690
64.7490 36.9116 2.4741
64.7690 36.8983 2.4756
64.7890 36.8849 2.4611
64.8090 36.8716 2.4631
64.8290 36.8582 2.4634
64.8490 36.8449 2.4543
64.8690 36.8315 2.4519
64.8890 36.8182 2.4546
64.9090 36.8048 2.4492
64.9290 36.7915 2.4461
64.9490 36.7783 2.4471
64.9690 36.7649 2.4372
64.9890 36.7516 2.4390
65.0090 36.7383 2.4420
65.0290 36.7250 2.4281
65.0490 36.7117 2.4270
65.0690 36.6983 2.4320
65.0890 36.6849 2.4224
65.1090 36.6716 2.4216
65.1290 36.6583 2.4268
65.1490 36.6449 2.4087
65.1690 36.6315 2.4146
65.1890 36.6182 2.4206
65.2090 36.6049 2.4007
65.2290 36.5916 2.4016
65.2490 36.5782 2.4123
65.2690 36.5648 2.3953
65.2890 36.5515 2.3989
65.3090 36.5382 2.4030
65.3290 36.5249 2.3864
65.3490 36.5116 2.3934
65.3690 36.4983 2.3949
65.3890 36.4850 2.3757
65.4090 36.4716 2.3878
65.4290 36.4583 2.3862
65.4490 36.4449 2.3700
65.4690 36.4316 2.3819
65.4890 36.4182 2.3754
65.5090 36.4049 2.3604
65.5290 36.3915 2.3746
65.5490 36.3782 2.3689
65.5690 36.3649 2.3546
65.5890 36.3516 2.3626
65.6090 36.3382 2.3602
65.6290 36.3249 2.3513
65.6490 36.3116 2.3603
65.6690 36.2983 2.3471
65.6890 36.2849 2.3452
65.7090 36.2716 2.3481
65.7290 36.2583 2.3434
65.7490 36.2450 2.3388
65.7690 36.2316 2.3348
65.7890 36.2183 2.3376
65.8090 36.2049 2.3323
65.8290 36.1916 2.3291
65.8490 36.1783 2.3264
65.8690 36.1649 2.3233
65.8890 36.1515 2.3190
65.9090 36.1382 2.3273
65.9290 36.1249 2.3124
65.9490 36.1116 2.3119
65.9690 36.0982 2.3162
65.9890 36.0849 2.3055
66.0090 36.0715 2.3035
66.0290 36.0582 2.3150
66.0490 36.0449 2.2945
66.0690 36.0316 2.3017
66.0890 36.0183 2.3083
66.1090 36.0050 2.2882
66.1290 35.9916 2.2911
66.1490 35.9783 2.3008
66.1690 35.9649 2.2834
66.1890 35.9516 2.2824
66.2090 35.9383 2.2880
66.2290 35.9249 2.2764
66.2490 35.9116 2.2799
66.2690 35.8982 2.2775
66.2890 35.8849 2.2722
66.3090 35.8716 2.2709
66.3290 35.8582 2.2697
66.3490 35.8449 2.2656
66.3690 35.8315 2.2640
66.3890 35.8182 2.2699
66.4090 35.8049 2.2589
66.4290 35.7916 2.2570
66.4490 35.7783 2.2631
66.4690 35.7650 2.2475
66.4890 35.7517 2.2475
66.5090 35.7383 2.2497
66.5290 35.7249 2.2459
66.5490 35.7116 2.2390
66.5690 35.6983 2.2478
66.5890 35.6849 2.2335
66.6090 35.6715 2.2356
66.6290 35.6582 2.2441
66.6490 35.6449 2.2252
66.6690 35.6316 2.2290
66.6890 35.6182 2.2352
66.7090 35.6049 2.2212
66.7290 35.5915 2.2252
66.7490 35.5782 2.2269
66.7690 35.5649 2.2167
66.7890 35.5516 2.2185
66.8090 35.5382 2.2224
66.8290 35.5249 2.2079
66.8490 35.5116 2.2124
66.8690 35.4983 2.2157
66.8890 35.4850 2.2007
66.9090 35.4716 2.2022
66.9290 35.4583 2.2059
66.9490 35.4449 2.1955
66.9690 35.4315 2.1997
66.9890 35.4181 2.2043
67.0090 35.4048 2.1882
67.0290 35.3915 2.1905
67.0490 35.3782 2.1958
67.0690 35.3648 2.1851
67.0890 35.3515 2.1860
67.1090 35.3382 2.1918
67.1290 35.3249 2.1742
67.1490 35.3116 2.1776
67.1690 35.2983 2.1848
67.1890 35.2850 2.1707
67.2090 35.2717 2.1700
67.2290 35.2583 2.1779
67.2490 35.2449 2.1613
67.2690 35.2316 2.1653
67.2890 35.2183 2.1686
67.3090 35.2049 2.1551
67.3290 35.1915 2.1607
67.3490 35.1782 2.1616
67.3690 35.1649 2.1506
67.3890 35.1516 2.1545
67.4090 35.1383 2.1529
67.4290 35.1249 2.1470
67.4490 35.1116 2.1470
67.4690 35.0983 2.1505
67.4890 35.0849 2.1411
67.5090 35.0716 2.1432
67.5290 35.0582 2.1425
67.5490 35.0449 2.1359
67.5690 35.0316 2.1375
67.5890 35.0183 2.1331
67.6090 35.0049 2.1304
67.6290 34.9916 2.1337
67.6490 34.9783 2.1288
67.6690 34.9649 2.1226
67.6890 34.9516 2.1259
67.7090 34.9382 2.1204
67.7290 34.9249 2.1224
67.7490 34.9116 2.1204
67.7690 34.8982 2.1081
67.7890 34.8849 2.1215
67.8090 34.8715 2.1129
67.8290 34.8582 2.0989
67.8490 34.8449 2.1164
67.8690 34.8315 2.1038
67.8890 34.8182 2.1025
67.9090 34.8049 2.1109
67.9290 34.7916 2.0933
67.9490 34.7783 2.0966
67.9690 34.7649 2.1025
67.9890 34.7516 2.0886
68.0090 34.7383 2.0976
68.0290 34.7250 2.0912
68.0490 34.7116 2.0824
68.0690 34.6982 2.0920
68.0890 34.6849 2.0859
68.1090 34.6716 2.0774
68.1290 34.6582 2.0902
68.1490 34.6449 2.0747
68.1690 34.6315 2.0751
68.1890 34.6182 2.0824
68.2090 34.6049 2.0688
68.2290 34.5916 2.0726
68.2490 34.5782 2.0761
68.2690 34.5649 2.0597
68.2890 34.5516 2.0668
68.3090 34.5383 2.0700
68.3290 34.5249 2.0568
68.3490 34.5116 2.0660
68.3690 34.4983 2.0579
68.3890 34.4849 2.0445
68.4090 34.4716 2.0707
68.4290 34.4582 2.0515
68.4490 34.4449 2.0412
68.4690 34.4316 2.0604
68.4890 34.4182 2.0407
68.5090 34.4049 2.0385
68.5290 34.3915 2.0563
68.5490 34.3782 2.0372
68.5690 34.3649 2.0345
68.5890 34.3515 2.0506
68.6090 34.3382 2.0311
68.6290 34.3249 2.0331
68.6490 34.3116 2.0423
68.6690 34.2983 2.0249
68.6890 34.2849 2.0244
68.7090 34.2716 2.0322
68.7290 34.2583 2.0217
68.7490 34.2449 2.0203
68.7690 34.2315 2.0232
68.7890 34.2182 2.0180
68.8090 34.2049 2.0192
68.8290 34.1916 2.0187
68.8490 34.1783 2.0027
68.8690 34.1649 2.0186
68.8890 34.1516 2.0118
68.9090 34.1383 2.0018
68.9290 34.1249 2.0112
68.9490 34.1116 2.0060
68.9690 34.0983 2.0011
68.9890 34.0850 2.0033
69.0090 34.0716 2.0020
69.0290 34.0583 1.9957
69.0490 34.0449 1.9950
69.0690 34.0316 1.9959
69.0890 34.0183 1.9870
69.1090 34.0049 1.9885
69.1290 33.9916 1.9983
69.1490 33.9782 1.9787
69.1690 33.9649 1.9847
69.1890 33.9516 1.9862
69.2090 33.9382 1.9744
69.2290 33.9249 1.9805
69.2490 33.9115 1.9847
69.2690 33.8983 1.9679
69.2890 33.8850 1.9746
69.3090 33.8716 1.9811
69.3290 33.8583 1.9612
69.3490 33.8450 1.9719
69.3690 33.8316 1.9734
69.3890 33.8183 1.9538
69.4090 33.8049 1.9694
69.4290 33.7916 1.9675
69.4490 33.7783 1.9520
69.4690 33.7649 1.9624
69.4890 33.7516 1.9612
69.5090 33.7382 1.9444
69.5290 33.7249 1.9611
69.5490 33.7116 1.9530
69.5690 33.6983 1.9423
69.5890 33.6849 1.9559
69.6090 33.6715 1.9499
69.6290 33.6582 1.9338
69.6490 33.6449 1.9493
69.6690 33.6316 1.9456
69.6890 33.6182 1.9359
69.7090 33.6049 1.9410
69.7290 33.5916 1.9353
69.7490 33.5783 1.9342
69.7690 33.5649 1.9419
69.7890 33.5516 1.9282
69.8090 33.5383 1.9308
69.8290 33.5249 1.9333
69.8490 33.5116 1.9197
69.8690 33.4982 1.9270
69.8890 33.4849 1.9269
69.9090 33.4716 1.9195
69.9290 33.4582 1.9224
69.9490 33.4449 1.9142
69.9690 33.4315 1.9231
69.9890 33.4182 1.9163
70.0090 33.4049 1.9093
70.0290 33.3916 1.9188
70.0490 33.3782 1.9062
70.0690 33.3649 1.9096
70.0890 33.3516 1.9118
70.1090 33.3383 1.9038
70.1290 33.3249 1.9016
70.1490 33.3116 1.9084
70.1690 33.2983 1.8982
70.1890 33.2850 1.8980
70.2090 33.2716 1.9035
70.2290 33.2582 1.8922
70.2490 33.2449 1.8937
70.2690 33.2315 1.8973
70.2890 33.2182 1.8844
70.3090 33.2048 1.8935
70.3290 33.1915 1.8891
70.3490 33.1782 1.8833
70.3690 33.1649 1.8881
70.3890 33.1516 1.8801
70.4090 33.1383 1.8832
70.4290 33.1250 1.8842
70.4490 33.1117 1.8759
70.4690 33.0983 1.8755
70.4890 33.0850 1.8777
70.5090 33.0716 1.8722
70.5290 33.0583 1.8696
70.5490 33.0449 1.8701
70.5690 33.0316 1.8680
70.5890 33.0182 1.8696
70.6090 33.0049 1.8705
70.6290 32.9916 1.8658
70.6490 32.9782 1.8587
70.6690 32.9649 1.8601
70.6890 32.9515 1.8624
70.7090 32.9382 1.8515
70.7290 32.9249 1.8540
70.7490 32.9116 1.8576
70.7690 32.8982 1.8477
70.7890 32.8849 1.8516
70.8090 32.8716 1.8562
70.8290 32.8583 1.8384
70.8490 32.8450 1.8518
70.8690 32.8316 1.8538
70.8890 32.8183 1.8355
70.9090 32.8049 1.8497
70.9290 32.7916 1.8425
70.9490 32.7782 1.8285
70.9690 32.7649 1.8476
70.9890 32.7516 1.8371
71.0090 32.7382 1.8280
71.0290 32.7249 1.8389
71.0490 32.7115 1.8355
71.0690 32.6982 1.8278
71.0890 32.6849 1.8317
71.1090 32.6716 1.8194
71.1290 32.6582 1.8264
71.1490 32.6449 1.8288
71.1690 32.6316 1.8166
71.1890 32.6183 1.8219
71.2090 32.6049 1.8273
71.2290 32.5916 1.8144
71.2490 32.5783 1.8169
71.2690 32.5650 1.8219
71.2890 32.5516 1.8140
71.3090 32.5382 1.8095
71.3290 32.5249 1.8140
71.3490 32.5116 1.8088
71.3690 32.4983 1.8086
71.3890 32.4849 1.8151
71.4090 32.4715 1.8038
71.4290 32.4582 1.8021
71.4490 32.4449 1.8087
71.4690 32.4316 1.8043
71.4890 32.4182 1.7996
71.5090 32.4049 1.8032
71.5290 32.3916 1.7946
71.5490 32.3783 1.7874
71.5690 32.3649 1.7957
71.5890 32.3516 1.7937
71.6090 32.3383 1.7894
71.6290 32.3250 1.7926
71.6490 32.3116 1.7847
71.6690 32.2982 1.7839
71.6890 32.2849 1.7848
71.7090 32.2716 1.7821
71.7290 32.2583 1.7800
71.7490 32.2449 1.7871
71.7690 32.2315 1.7783
71.7890 32.2182 1.7744
71.8090 32.2049 1.7811
71.8290 32.1916 1.7755
71.8490 32.1782 1.7747
71.8690 32.1649 1.7718
71.8890 32.1516 1.7713
71.9090 32.1383 1.7722
71.9290 32.1250 1.7660
71.9490 32.1116 1.7673
71.9690 32.0983 1.7684
71.9890 32.0850 1.7627
72.0090 32.0716 1.7594
72.0290 32.0582 1.7693
72.0490 32.0449 1.7603
72.0690 32.0315 1.7568
72.0890 32.0182 1.7630
72.1090 32.0049 1.7518
72.1290 31.9915 1.7540
72.1490 31.9782 1.7611
72.1690 31.9649 1.7483
72.1890 31.9516 1.7441
72.2090 31.9382 1.7543
72.2290 31.9249 1.7471
72.2490 31.9116 1.7382
72.2690 31.8983 1.7490
72.2890 31.8849 1.7421
72.3090 31.8716 1.7374
72.3290 31.8582 1.7480
72.3490 31.8449 1.7354
72.3690 31.8316 1.7336
72.3890 31.8182 1.7403
72.4090 31.8048 1.7351
72.4290 31.7915 1.7346
72.4490 31.7782 1.7385
72.4690 31.7649 1.7292
72.4890 31.7515 1.7301
72.5090 31.7382 1.7338
72.5290 31.7249 1.7252
72.5490 31.7116 1.7238
72.5690 31.6982 1.7298
72.5890 31.6849 1.7224
72.6090 31.6716 1.7236
72.6290 31.6583 1.7242
72.6490 31.6449 1.7180
72.6690 31.6316 1.7199
72.6890 31.6182 1.7163
72.7090 31.6049 1.7187
72.7290 31.5916 1.7106
72.7490 31.5782 1.7126
72.7690 31.5649 1.7144
72.7890 31.5516 1.7082
72.8090 31.5382 1.7092
72.8290 31.5249 1.7095
72.8490 31.5116 1.7052
72.8690 31.4982 1.7067
72.8890 31.4849 1.7071
72.9090 31.4716 1.7008
72.9290 31.4583 1.7033
72.9490 31.4449 1.7057
72.9690 31.4316 1.6898
72.9890 31.4183 1.6978
73.0090 31.4050 1.7014
73.0290 31.3916 1.6906
73.0490 31.3783 1.7004
73.0690 31.3649 1.6984
73.0890 31.3516 1.6822
73.1090 31.3382 1.6974
73.1290 31.3249 1.6936
73.1490 31.3115 1.6789
73.1690 31.2982 1.6943
73.1890 31.2849 1.6850
73.2090 31.2716 1.6739
73.2290 31.2582 1.6948
73.2490 31.2449 1.6808
73.2690 31.2316 1.6741
73.2890 31.2183 1.6913
73.3090 31.2049 1.6749
73.3290 31.1916 1.6718
73.3490 31.1783 1.6895
73.3690 31.1650 1.6711
73.3890 31.1516 1.6703
73.4090 31.1383 1.6877
73.4290 31.1250 1.6637
73.4490 31.1116 1.6659
73.4690 31.0982 1.6840
73.4890 31.0849 1.6639
73.5090 31.0716 1.6641
73.5290 31.0582 1.6757
73.5490 31.0449 1.6550
73.5690 31.0315 1.6625
73.5890 31.0182 1.6727
73.6090 31.0049 1.6538
73.6290 30.9916 1.6570
73.6490 30.9782 1.6661
73.6690 30.9649 1.6489
73.6890 30.9516 1.6541
73.7090 30.9383 1.6634
73.7290 30.9250 1.6456
73.7490 30.9116 1.6530
73.7690 30.8983 1.6617
73.7890 30.8849 1.6411
73.8090 30.8716 1.6495
73.8290 30.8582 1.6521
73.8490 30.8449 1.6428
73.8690 30.8315 1.6400
73.8890 30.8182 1.6504
73.9090 30.8049 1.6387
73.9290 30.7915 1.6355
73.9490 30.7782 1.6437
73.9690 30.7649 1.6365
73.9890 30.7516 1.6329
74.0090 30.7382 1.6440
74.0290 30.7249 1.6353
74.0490 30.7116 1.6285
74.0690 30.6983 1.6392
74.0890 30.6850 1.6314
74.1090 30.6716 1.6261
74.1290 30.6583 1.6377
74.1490 30.6450 1.6278
74.1690 30.6316 1.6149
74.1890 30.6183 1.6348
74.2090 30.6049 1.6213
74.2290 30.5915 1.6139
74.2490 30.5782 1.6321
74.2690 30.5649 1.6176
74.2890 30.5515 1.6118
74.3090 30.5382 1.6303
74.3290 30.5249 1.6163
74.3490 30.5116 1.6093
74.3690 30.4983 1.6194
74.3890 30.4850 1.6135
74.4090 30.4716 1.6063
74.4290 30.4583 1.6203
74.4490 30.4450 1.6048
74.4690 30.4316 1.6061
74.4890 30.4182 1.6154
74.5090 30.4049 1.6043
74.5290 30.3916 1.6018
74.5490 30.3782 1.6093
74.5690 30.3649 1.6018
74.5890 30.3516 1.6001
74.6090 30.3383 1.6028
74.6290 30.3249 1.5991
74.6490 30.3116 1.5966
74.6690 30.2982 1.6002
74.6890 30.2849 1.5969
74.7090 30.2716 1.5910
74.7290 30.2582 1.5991
74.7490 30.2449 1.5916
74.7690 30.2316 1.5864
74.7890 30.2183 1.5928
74.8090 30.2049 1.5933
74.8290 30.1916 1.5855
74.8490 30.1783 1.5880
74.8690 30.1649 1.5889
74.8890 30.1516 1.5829
74.9090 30.1382 1.5829
74.9290 30.1249 1.5838
74.9490 30.1115 1.5781
74.9690 30.0982 1.5784
74.9890 30.0849 1.5800
75.0090 30.0716 1.5742
75.0290 30.0582 1.5752
75.0490 30.0449 1.5828
75.0690 30.0316 1.5658
75.0890 30.0182 1.5717
75.1090 30.0049 1.5772
75.1290 29.9916 1.5646
75.1490 29.9783 1.5677
75.1690 29.9649 1.5760
75.1890 29.9516 1.5629
75.2090 29.9383 1.5649
75.2290 29.9250 1.5689
75.2490 29.9116 1.5585
75.2690 29.8983 1.5627
75.2890 29.8849 1.5691
75.3090 29.8716 1.5596
75.3290 29.8582 1.5591
75.3490 29.8449 1.5612
75.3690 29.8316 1.5565
75.3890 29.8182 1.5579
75.4090 29.8049 1.5570
75.4290 29.7916 1.5513
75.4490 29.7782 1.5536
75.4690 29.7649 1.5549
75.4890 29.7516 1.5485
75.5090 29.7383 1.5506
75.5290 29.7250 1.5481
75.5490 29.7116 1.5486
75.5690 29.6982 1.5460
75.5890 29.6849 1.5422
75.6090 29.6716 1.5455
75.6290 29.6583 1.5453
75.6490 29.6449 1.5405
75.6690 29.6315 1.5480
75.6890 29.6182 1.5369
75.7090 29.6049 1.5368
75.7290 29.5916 1.5431
75.7490 29.5782 1.5335
75.7690 29.5649 1.5367
75.7890 29.5516 1.5377
75.8090 29.5382 1.5248
75.8290 29.5249 1.5339
75.8490 29.5116 1.5346
75.8690 29.4983 1.5272
75.8890 29.4850 1.5347
75.9090 29.4716 1.5289
75.9290 29.4582 1.5168
75.9490 29.4449 1.5375
75.9690 29.4316 1.5265
75.9890 29.4182 1.5186
76.0090 29.4049 1.5327
76.0290 29.3915 1.5209
76.0490 29.3782 1.5142
76.0690 29.3649 1.5293
76.0890 29.3516 1.5169
76.1090 29.3382 1.5186
76.1290 29.3249 1.5276
76.1490 29.3116 1.5128
76.1690 29.2983 1.5164
76.1890 29.2849 1.5151
76.2090 29.2716 1.5117
76.2290 29.2583 1.5123
76.2490 29.2450 1.5086
76.2690 29.2316 1.5115
76.2890 29.2182 1.5096
76.3090 29.2049 1.5046
76.3290 29.1916 1.5100
76.3490 29.1782 1.5055
76.3690 29.1649 1.5008
76.3890 29.1515 1.5097
76.4090 29.1382 1.5022
76.4290 29.1249 1.5006
76.4490 29.1115 1.5067
76.4690 29.0982 1.4938
76.4890 29.0849 1.4981
76.5090 29.0716 1.5067
76.5290 29.0583 1.4891
76.5490 29.0449 1.4938
76.5690 29.0316 1.5030
76.5890 29.0183 1.4857
76.6090 29.0050 1.4901
76.6290 28.9916 1.5013
76.6490 28.9782 1.4823
76.6690 28.9649 1.4884
76.6890 28.9516 1.4937
76.7090 28.9382 1.4778
76.7290 28.9249 1.4896
76.7490 28.9116 1.4891
76.7690 28.8983 1.4764
76.7890 28.8849 1.4813
76.8090 28.8716 1.4868
76.8290 28.8582 1.4767
76.8490 28.8449 1.4839
76.8690 28.8316 1.4803
76.8890 28.8182 1.4714
76.9090 28.8049 1.4831
76.9290 28.7916 1.4788
76.9490 28.7783 1.4697
76.9690 28.7650 1.4732
76.9890 28.7516 1.4781
77.0090 28.7383 1.4677
77.0290 28.7249 1.4656
77.0490 28.7116 1.4731
77.0690 28.6983 1.4604
77.0890 28.6849 1.4640
77.1090 28.6716 1.4748
77.1290 28.6582 1.4591
77.1490 28.6449 1.4591
77.1690 28.6315 1.4730
77.1890 28.6182 1.4559
77.2090 28.6049 1.4591
77.2290 28.5916 1.4733
77.2490 28.5782 1.4479
77.2690 28.5649 1.4565
77.2890 28.5516 1.4710
77.3090 28.5383 1.4453
77.3290 28.5250 1.4543
77.3490 28.5116 1.4634
77.3690 28.4983 1.4378
77.3890 28.4849 1.4627
77.4090 28.4716 1.4586
77.4290 28.4583 1.4331
77.4490 28.4449 1.4535
77.4690 28.4315 1.4551
77.4890 28.4182 1.4312
77.5090 28.4049 1.4542
77.5290 28.3915 1.4549
77.5490 28.3782 1.4291
77.5690 28.3648 1.4492
77.5890 28.3516 1.4487
77.6090 28.3382 1.4301
77.6290 28.3249 1.4485
77.6490 28.3116 1.4440
77.6690 28.2983 1.4272
77.6890 28.2850 1.4416
77.7090 28.2716 1.4412
77.7290 28.2583 1.4263
77.7490 28.2449 1.4397
77.7690 28.2316 1.4356
77.7890 28.2183 1.4241
77.8090 28.2049 1.4350
77.8290 28.1916 1.4311
77.8490 28.1782 1.4234
77.8690 28.1649 1.4299
77.8890 28.1516 1.4270
77.9090 28.1382 1.4228
77.9290 28.1248 1.4299
77.9490 28.1115 1.4246
77.9690 28.0982 1.4165
77.9890 28.0849 1.4243
78.0090 28.0716 1.4228
78.0290 28.0583 1.4172
78.0490 28.0450 1.4161
78.0690 28.0316 1.4216
78.0890 28.0183 1.4192
78.1090 28.0049 1.4107
78.1290 27.9916 1.4210
78.1490 27.9783 1.4122
78.1690 27.9649 1.4095
78.1890 27.9515 1.4149
78.2090 27.9382 1.4086
78.2290 27.9249 1.4073
78.2490 27.9116 1.4169
78.2690 27.8982 1.4068
78.2890 27.8849 1.4078
78.3090 27.8716 1.4117
78.3290 27.8583 1.3976
78.3490 27.8449 1.4074
78.3690 27.8316 1.4069
78.3890 27.8183 1.3953
78.4090 27.8049 1.4046
78.4290 27.7916 1.3995
78.4490 27.7783 1.3925
78.4690 27.7649 1.4027
78.4890 27.7516 1.3954
78.5090 27.7383 1.3946
78.5290 27.7249 1.4002
78.5490 27.7116 1.3948
78.5690 27.6983 1.3980
78.5890 27.6849 1.3957
78.6090 27.6716 1.3898
78.6290 27.6582 1.3924
78.6490 27.6449 1.3923
78.6690 27.6316 1.3931
78.6890 27.6182 1.3883
78.7090 27.6049 1.3861
78.7290 27.5916 1.3859
78.7490 27.5783 1.3855
78.7690 27.5650 1.3800
78.7890 27.5516 1.3923
78.8090 27.5383 1.3846
78.8290 27.5249 1.3780
78.8490 27.5116 1.3878
78.8690 27.4983 1.3807
78.8890 27.4849 1.3759
78.9090 27.4716 1.3902
78.9290 27.4582 1.3727
78.9490 27.4449 1.3729
78.9690 27.4316 1.3848
78.9890 27.4182 1.3669
79.0090 27.4048 1.3745
79.0290 27.3915 1.3808
79.0490 27.3782 1.3665
79.0690 27.3649 1.3727
79.0890 27.3515 1.3752
79.1090 27.3382 1.3645
79.1290 27.3250 1.3735
79.1490 27.3116 1.3724
79.1690 27.2983 1.3628
79.1890 27.2849 1.3677
79.2090 27.2716 1.3667
79.2290 27.2583 1.3599
79.2490 27.2449 1.3654
79.2690 27.2316 1.3623
79.2890 27.2182 1.3595
79.3090 27.2049 1.3655
79.3290 27.1915 1.3570
79.3490 27.1782 1.3594
79.3690 27.1648 1.3608
79.3890 27.1515 1.3517
79.4090 27.1382 1.3581
79.4290 27.1249 1.3576
79.4490 27.1116 1.3532
79.4690 27.0983 1.3545
79.4890 27.0850 1.3526
79.5090 27.0716 1.3491
79.5290 27.0583 1.3574
79.5490 27.0449 1.3495
79.5690 27.0316 1.3499
79.5890 27.0183 1.3474
79.6090 27.0049 1.3437
79.6290 26.9915 1.3480
79.6490 26.9782 1.3486
79.6690 26.9649 1.3429
79.6890 26.9516 1.3449
79.7090 26.9382 1.3462
79.7290 26.9249 1.3422
79.7490 26.9116 1.3421
79.7690 26.8983 1.3469
79.7890 26.8849 1.3338
79.8090 26.8716 1.3367
79.8290 26.8583 1.3436
79.8490 26.8450 1.3368
79.8690 26.8317 1.3352
79.8890 26.8183 1.3373
79.9090 26.8049 1.3344
79.9290 26.7916 1.3297
79.9490 26.7782 1.3326
79.9690 26.7649 1.3348
79.9890 26.7515 1.3260
80.0090 26.7382 1.3343
80.0290 26.7249 1.3264
80.0490 26.7116 1.3257
80.0690 26.6982 1.3356
80.0890 26.6849 1.3237
80.1090 26.6716 1.3235
80.1290 26.6583 1.3289
80.1490 26.6449 1.3224
80.1690 26.6316 1.3225
80.1890 26.6183 1.3318
80.2090 26.6050 1.3158
80.2290 26.5916 1.3198
80.2490 26.5783 1.3302
80.2690 26.5649 1.3169
80.2890 26.5516 1.3201
80.3090 26.5383 1.3211
80.3290 26.5249 1.3091
80.3490 26.5115 1.3161
80.3690 26.4982 1.3231
80.3890 26.4849 1.3069
80.4090 26.4716 1.3126
80.4290 26.4582 1.3198
80.4490 26.4449 1.3056
80.4690 26.4315 1.3145
80.4890 26.4182 1.3116
80.5090 26.4049 1.3089
80.5290 26.3916 1.3129
80.5490 26.3783 1.3048
80.5690 26.3650 1.3067
80.5890 26.3516 1.3098
80.6090 26.3383 1.3050
80.6290 26.3249 1.3051
80.6490 26.3116 1.3081
80.6690 26.2983 1.3018
80.6890 26.2849 1.3017
80.7090 26.2716 1.3059
80.7290 26.2582 1.2995
80.7490 26.2449 1.3037
80.7690 26.2316 1.2989
80.7890 26.2182 1.2923
80.8090 26.2048 1.3025
80.8290 26.1915 1.2945
80.8490 26.1782 1.2926
80.8690 26.1649 1.2993
80.8890 26.1516 1.2935
80.9090 26.1383 1.2929
80.9290 26.1250 1.2974
80.9490 26.1117 1.2860
80.9690 26.0983 1.2936
80.9890 26.0849 1.2960
81.0090 26.0716 1.2799
81.0290 26.0583 1.2900
81.0490 26.0449 1.2939
81.0690 26.0316 1.2776
81.0890 26.0182 1.2873
81.1090 26.0049 1.2855
81.1290 25.9916 1.2812
81.1490 25.9782 1.2867
81.1690 25.9649 1.2861
81.1890 25.9515 1.2755
81.2090 25.9382 1.2866
81.2290 25.9249 1.2797
81.2490 25.9116 1.2715
81.2690 25.8982 1.2918
81.2890 25.8849 1.2761
81.3090 25.8716 1.2661
81.3290 25.8583 1.2854
81.3490 25.8450 1.2753
81.3690 25.8316 1.2687
81.3890 25.8183 1.2845
81.4090 25.8049 1.2704
81.4290 25.7915 1.2612
81.4490 25.7782 1.2844
81.4690 25.7649 1.2668
81.4890 25.7516 1.2601
81.5090 25.7382 1.2817
81.5290 25.7248 1.2635
81.5490 25.7115 1.2606
81.5690 25.6982 1.2769
81.5890 25.6849 1.2619
81.6090 25.6716 1.2603
81.6290 25.6583 1.2716
81.6490 25.6450 1.2581
81.6690 25.6317 1.2589
81.6890 25.6183 1.2651
81.7090 25.6049 1.2592
81.7290 25.5916 1.2557
81.7490 25.5783 1.2645
81.7690 25.5649 1.2532
81.7890 25.5516 1.2535
81.8090 25.5382 1.2660
81.8290 25.5249 1.2526
81.8490 25.5116 1.2503
81.8690 25.4982 1.2583
81.8890 25.4849 1.2495
81.9090 25.4715 1.2530
81.9290 25.4582 1.2544
81.9490 25.4449 1.2485
81.9690 25.4316 1.2485
81.9890 25.4182 1.2540
82.0090 25.4049 1.2470
82.0290 25.3916 1.2470
82.0490 25.3783 1.2466
82.0690 25.3649 1.2474
82.0890 25.3516 1.2419
82.1090 25.3383 1.2451
82.1290 25.3249 1.2485
82.1490 25.3116 1.2408
82.1690 25.2982 1.2447
82.1890 25.2849 1.2461
82.2090 25.2716 1.2385
82.2290 25.2582 1.2376
82.2490 25.2449 1.2414
82.2690 25.2315 1.2368
82.2890 25.2182 1.2404
82.3090 25.2049 1.2335
82.3290 25.1916 1.2304
82.3490 25.1782 1.2458
82.3690 25.1649 1.2312
82.3890 25.1516 1.2280
82.4090 25.1383 1.2391
82.4290 25.1249 1.2265
82.4490 25.1116 1.2335
82.4690 25.0983 1.2305
82.4890 25.0850 1.2221
82.5090 25.0716 1.2295
82.5290 25.0582 1.2304
82.5490 25.0449 1.2232
82.5690 25.0316 1.2288
82.5890 25.0182 1.2245
82.6090 25.0049 1.2232
82.6290 24.9915 1.2295
82.6490 24.9782 1.2180
82.6690 24.9649 1.2232
82.6890 24.9516 1.2314
82.7090 24.9382 1.2120
82.7290 24.9249 1.2218
82.7490 24.9116 1.2236
82.7690 24.8983 1.2106
82.7890 24.8849 1.2240
82.8090 24.8716 1.2210
82.8290 24.8583 1.2067
82.8490 24.8450 1.2181
82.8690 24.8316 1.2198
82.8890 24.8182 1.2091
82.9090 24.8049 1.2174
82.9290 24.7916 1.2160
82.9490 24.7782 1.2031
82.9690 24.7649 1.2139
82.9890 24.7515 1.2143
83.0090 24.7382 1.2043
83.0290 24.7249 1.2147
83.0490 24.7115 1.2061
83.0690 24.6982 1.2026
83.0890 24.6849 1.2116
83.1090 24.6716 1.2094
83.1290 24.6583 1.2018
83.1490 24.6449 1.2043
83.1690 24.6316 1.2072
83.1890 24.6183 1.1987
83.2090 24.6050 1.2023
83.2290 24.5916 1.2053
83.2490 24.5782 1.1972
83.2690 24.5648 1.2022
83.2890 24.5516 1.2027
83.3090 24.5382 1.1952
83.3290 24.5249 1.1987
83.3490 24.5115 1.2043
83.3690 24.4982 1.1930
83.3890 24.4849 1.1947
83.4090 24.4716 1.2029
83.4290 24.4582 1.1905
83.4490 24.4449 1.1894
83.4690 24.4316 1.2017
83.4890 24.4183 1.1856
83.5090 24.4049 1.1920
83.5290 24.3916 1.1999
83.5490 24.3783 1.1832
83.5690 24.3650 1.1937
83.5890 24.3516 1.1936
83.6090 24.3382 1.1806
83.6290 24.3249 1.1884
83.6490 24.3116 1.1961
83.6690 24.2982 1.1784
83.6890 24.2849 1.1832
83.7090 24.2715 1.1942
83.7290 24.2582 1.1772
83.7490 24.2449 1.1808
83.7690 24.2316 1.1918
83.7890 24.2183 1.1776
83.8090 24.2049 1.1804
83.8290 24.1916 1.1895
83.8490 24.1783 1.1735
83.8690 24.1649 1.1792
83.8890 24.1516 1.1878
83.9090 24.1382 1.1686
83.9290 24.1249 1.1756
83.9490 24.1116 1.1828
83.9690 24.0982 1.1662
83.9890 24.0849 1.1749
84.0090 24.0716 1.1827
84.0290 24.0583 1.1646
84.0490 24.0449 1.1697
84.0690 24.0316 1.1808
84.0890 24.0182 1.1636
84.1090 24.0049 1.1669
84.1290 23.9916 1.1760
84.1490 23.9782 1.1644
84.1690 23.9649 1.1716
84.1890 23.9516 1.1684
84.2090 23.9383 1.1591
84.2290 23.9250 1.1670
84.2490 23.9116 1.1718
84.2690 23.8983 1.1624
84.2890 23.8850 1.1611
84.3090 23.8716 1.1703
84.3290 23.8582 1.1585
84.3490 23.8449 1.1590
84.3690 23.8316 1.1632
84.3890 23.8182 1.1610
84.4090 23.8049 1.1547
84.4290 23.7915 1.1683
84.4490 23.7782 1.1585
84.4690 23.7649 1.1508
84.4890 23.7516 1.1673
84.5090 23.7382 1.1564
84.5290 23.7249 1.1417
84.5490 23.7116 1.1692
84.5690 23.6983 1.1531
84.5890 23.6849 1.1426
84.6090 23.6716 1.1654
84.6290 23.6583 1.1496
84.6490 23.6450 1.1402
84.6690 23.6316 1.1643
84.6890 23.6182 1.1412
84.7090 23.6049 1.1439
84.7290 23.5915 1.1658
84.7490 23.5782 1.1393
84.7690 23.5648 1.1431
84.7890 23.5515 1.1589
84.8090 23.5382 1.1369
84.8290 23.5249 1.1427
84.8490 23.5116 1.1534
84.8690 23.4982 1.1383
84.8890 23.4849 1.1443
84.9090 23.4716 1.1479
84.9290 23.4583 1.1375
84.9490 23.4450 1.1444
84.9690 23.4316 1.1466
84.9890 23.4183 1.1363
85.0090 23.4050 1.1424
85.0290 23.3916 1.1379
85.0490 23.3782 1.1374
85.0690 23.3649 1.1393
85.0890 23.3516 1.1338
85.1090 23.3382 1.1338
85.1290 23.3249 1.1328
85.1490 23.3115 1.1372
85.1690 23.2982 1.1353
85.1890 23.2849 1.1254
85.2090 23.2716 1.1365
85.2290 23.2582 1.1305
85.2490 23.2449 1.1247
85.2690 23.2316 1.1380
85.2890 23.2183 1.1336
85.3090 23.2049 1.1149
85.3290 23.1916 1.1403
85.3490 23.1783 1.1329
85.3690 23.1650 1.1082
85.3890 23.1516 1.1368
85.4090 23.1382 1.1304
85.4290 23.1249 1.1126
85.4490 23.1115 1.1313
85.4690 23.0982 1.1209
85.4890 23.0849 1.1136
85.5090 23.0715 1.1365
85.5290 23.0582 1.1164
85.5490 23.0449 1.1075
85.5690 23.0316 1.1387
85.5890 23.0182 1.1073
85.6090 23.0049 1.1085
85.6290 22.9916 1.1378
85.6490 22.9783 1.1003
85.6690 22.9649 1.1117
85.6890 22.9516 1.1358
85.7090 22.9383 1.1036
85.7290 22.9250 1.1109
85.7490 22.9116 1.1242
85.7690 22.8982 1.0941
85.7890 22.8849 1.1215
85.8090 22.8716 1.1148
85.8290 22.8583 1.0958
85.8490 22.8449 1.1254
85.8690 22.8315 1.1052
85.8890 22.8182 1.0986
85.9090 22.8049 1.1255
85.9290 22.7916 1.0947
85.9490 22.7782 1.1002
85.9690 22.7649 1.1186
85.9890 22.7516 1.0936
86.0090 22.7383 1.1072
86.0290 22.7249 1.1126
86.0490 22.7116 1.0911
86.0690 22.6982 1.1091
86.0890 22.6849 1.1028
86.1090 22.6716 1.0859
86.1290 22.6583 1.1080
86.1490 22.6449 1.0976
86.1690 22.6316 1.0897
86.1890 22.6183 1.1072
86.2090 22.6049 1.0913
86.2290 22.5915 1.0959
86.2490 22.5782 1.1019
86.2690 22.5649 1.0850
86.2890 22.5516 1.0971
86.3090 22.5382 1.0992
86.3290 22.5249 1.0854
86.3490 22.5116 1.0916
86.3690 22.4983 1.0959
86.3890 22.4850 1.0877
86.4090 22.4716 1.0911
86.4290 22.4583 1.0898
86.4490 22.4450 1.0879
86.4690 22.4316 1.0906
86.4890 22.4182 1.0827
86.5090 22.4049 1.0907
86.5290 22.3915 1.0912
86.5490 22.3782 1.0761
86.5690 22.3649 1.0880
86.5890 22.3515 1.0863
86.6090 22.3382 1.0813
86.6290 22.3249 1.0864
86.6490 22.3116 1.0783
86.6690 22.2983 1.0767
86.6890 22.2849 1.0855
86.7090 22.2716 1.0805
86.7290 22.2583 1.0712
86.7490 22.2450 1.0813
86.7690 22.2316 1.0772
86.7890 22.2182 1.0726
86.8090 22.2049 1.0857
86.8290 22.1916 1.0647
86.8490 22.1782 1.0723
86.8690 22.1649 1.0859
86.8890 22.1515 1.0676
86.9090 22.1382 1.0677
86.9290 22.1249 1.0784
86.9490 22.1115 1.0668
86.9690 22.0982 1.0726
86.9890 22.0849 1.0769
87.0090 22.0716 1.0629
87.0290 22.0583 1.0720
87.0490 22.0449 1.0706
87.0690 22.0316 1.0632
87.0890 22.0183 1.0708
87.1090 22.0050 1.0664
87.1290 21.9916 1.0626
87.1490 21.9782 1.0663
87.1690 21.9649 1.0662
87.1890 21.9516 1.0589
87.2090 21.9382 1.0673
87.2290 21.9248 1.0614
87.2490 21.9115 1.0629
87.2690 21.8982 1.0613
87.2890 21.8849 1.0589
87.3090 21.8716 1.0582
87.3290 21.8582 1.0617
87.3490 21.8449 1.0602
87.3690 21.8316 1.0536
87.3890 21.8183 1.0570
87.4090 21.8049 1.0577
87.4290 21.7916 1.0537
87.4490 21.7783 1.0518
87.4690 21.7650 1.0598
87.4890 21.7516 1.0490
87.5090 21.7382 1.0507
87.5290 21.7249 1.0591
87.5490 21.7116 1.0463
87.5690 21.6982 1.0503
87.5890 21.6849 1.0574
87.6090 21.6715 1.0426
87.6290 21.6582 1.0474
87.6490 21.6449 1.0537
87.6690 21.6315 1.0422
87.6890 21.6182 1.0468
87.7090 21.6049 1.0529
87.7290 21.5916 1.0392
87.7490 21.5783 1.0507
87.7690 21.5649 1.0480
87.7890 21.5516 1.0341
87.8090 21.5383 1.0446
87.8290 21.5250 1.0480
87.8490 21.5116 1.0325
87.8690 21.4982 1.0497
87.8890 21.4849 1.0454
87.9090 21.4716 1.0289
87.9290 21.4582 1.0473
87.9490 21.4449 1.0402
87.9690 21.4316 1.0255
87.9890 21.4183 1.0464
88.0090 21.4049 1.0352
88.0290 21.3915 1.0262
88.0490 21.3782 1.0455
88.0690 21.3649 1.0318
88.0890 21.3516 1.0291
88.1090 21.3382 1.0383
88.1290 21.3249 1.0281
88.1490 21.3116 1.0286
88.1690 21.2983 1.0356
88.1890 21.2850 1.0246
88.2090 21.2716 1.0280
88.2290 21.2583 1.0359
88.2490 21.2450 1.0271
88.2690 21.2316 1.0201
88.2890 21.2182 1.0297
88.3090 21.2049 1.0331
88.3290 21.1915 1.0242
88.3490 21.1782 1.0199
88.3690 21.1649 1.0345
88.3890 21.1515 1.0213
88.4090 21.1382 1.0207
88.4290 21.1249 1.0319
88.4490 21.1116 1.0122
88.4690 21.0982 1.0219
88.4890 21.0849 1.0350
88.5090 21.0716 1.0015
88.5290 21.0583 1.0228
88.5490 21.0450 1.0322
88.5690 21.0316 1.0042
88.5890 21.0183 1.0146
88.6090 21.0049 1.0286
88.6290 20.9916 1.0061
88.6490 20.9782 1.0147
88.6690 20.9649 1.0255
88.6890 20.9515 1.0034
88.7090 20.9382 1.0112
88.7290 20.9249 1.0244
88.7490 20.9115 0.9978
88.7690 20.8982 1.0108
88.7890 20.8849 1.0244
88.8090 20.8716 0.9970
88.8290 20.8583 1.0095
88.8490 20.8450 1.0233
88.8690 20.8316 0.9990
88.8890 20.8183 1.0108
88.9090 20.8050 1.0139
88.9290 20.7916 0.9946
88.9490 20.7783 1.0154
88.9690 20.7649 1.0114
88.9890 20.7516 0.9892
89.0090 20.7382 1.0097
89.0290 20.7249 1.0124
89.0490 20.7115 0.9903
89.0690 20.6982 1.0081
89.0890 20.6849 1.0076
89.1090 20.6716 0.9896
89.1290 20.6582 1.0063
89.1490 20.6449 1.0044
89.1690 20.6316 0.9932
89.1890 20.6183 1.0048
89.2090 20.6049 0.9958
89.2290 20.5916 0.9924
89.2490 20.5783 1.0035
89.2690 20.5650 0.9961
89.2890 20.5516 0.9927
89.3090 20.5383 0.9983
89.3290 20.5249 0.9938
89.3490 20.5116 0.9927
89.3690 20.4983 0.9927
89.3890 20.4849 0.9910
89.4090 20.4715 0.9971
89.4290 20.4582 0.9882
89.4490 20.4449 0.9881
89.4690 20.4316 0.9902
89.4890 20.4182 0.9873
89.5090 20.4049 0.9921
89.5290 20.3916 0.9873
89.5490 20.3782 0.9853
89.5690 20.3649 0.9980
89.5890 20.3516 0.9835
89.6090 20.3383 0.9797
89.6290 20.3250 0.9942
89.6490 20.3116 0.9788
89.6690 20.2983 0.9804
89.6890 20.2849 0.9954
89.7090 20.2716 0.9747
89.7290 20.2583 0.9777
89.7490 20.2449 0.9891
89.7690 20.2316 0.9750
89.7890 20.2183 0.9795
89.8090 20.2049 0.9880
89.8290 20.1916 0.9681
89.8490 20.1782 0.9781
89.8690 20.1649 0.9878
89.8890 20.1516 0.9682
89.9090 20.1383 0.9732
89.9290 20.1249 0.9854
89.9490 20.1116 0.9689
89.9690 20.0983 0.9748
89.9890 20.0850 0.9782
90.0090 20.0716 0.9652
90.0290 20.0582 0.9753
90.0490 20.0449 0.9733
90.0690 20.0316 0.9653
90.0890 20.0183 0.9696
90.1090 20.0049 0.9704
90.1290 19.9915 0.9647
90.1490 19.9782 0.9703
90.1690 19.9649 0.9681
90.1890 19.9516 0.9605
90.2090 19.9382 0.9706
90.2290 19.9249 0.9667
90.2490 19.9116 0.9625
90.2690 19.8982 0.9663
90.2890 19.8849 0.9663
90.3090 19.8716 0.9638
90.3290 19.8583 0.9612
90.3490 19.8450 0.9620
90.3690 19.8316 0.9585
90.3890 19.8183 0.9609
90.4090 19.8049 0.9597
90.4290 19.7916 0.9592
90.4490 19.7783 0.9528
90.4690 19.7649 0.9620
90.4890 19.7515 0.9611
90.5090 19.7382 0.9487
90.5290 19.7249 0.9597
90.5490 19.7116 0.9539
90.5690 19.6982 0.9517
90.5890 19.6849 0.9619
90.6090 19.6716 0.9521
90.6290 19.6583 0.9480
90.6490 19.6449 0.9575
90.6690 19.6316 0.9519
90.6890 19.6183 0.9470
90.7090 19.6050 0.9569
90.7290 19.5916 0.9469
90.7490 19.5783 0.9451
90.7690 19.5650 0.9542
90.7890 19.5516 0.9532
90.8090 19.5383 0.9395
90.8290 19.5249 0.9487
90.8490 19.5115 0.9543
90.8690 19.4982 0.9455
90.8890 19.4848 0.9419
90.9090 19.4715 0.9470
90.9290 19.4581 0.9509
90.9490 19.4448 0.9400
90.9690 19.4316 0.9401
90.9890 19.4183 0.9448
91.0090 19.4049 0.9418
91.0290 19.3916 0.9399
91.0490 19.3783 0.9422
91.0690 19.3650 0.9407
91.0890 19.3516 0.9389
91.1090 19.3382 0.9362
91.1290 19.3249 0.9444
91.1490 19.3116 0.9367
91.1690 19.2982 0.9332
91.1890 19.2849 0.9416
91.2090 19.2715 0.9379
91.2290 19.2582 0.9286
91.2490 19.2449 0.9380
91.2690 19.2316 0.9348
91.2890 19.2182 0.9301
91.3090 19.2049 0.9347
91.3290 19.1916 0.9385
91.3490 19.1782 0.9288
91.3690 19.1649 0.9307
91.3890 19.1515 0.9361
91.4090 19.1382 0.9276
91.4290 19.1250 0.9261
91.4490 19.1116 0.9298
91.4690 19.0983 0.9346
91.4890 19.0849 0.9277
91.5090 19.0716 0.9246
91.5290 19.0583 0.9323
91.5490 19.0449 0.9249
91.5690 19.0315 0.9255
91.5890 19.0182 0.9277
91.6090 19.0049 0.9206
91.6290 18.9916 0.9277
91.6490 18.9782 0.9232
91.6690 18.9649 0.9198
91.6890 18.9516 0.9310
91.7090 18.9382 0.9178
91.7290 18.9249 0.9126
91.7490 18.9116 0.9345
91.7690 18.8983 0.9153
91.7890 18.8850 0.9110
91.8090 18.8716 0.9294
91.8290 18.8583 0.9139
91.8490 18.8449 0.9139
91.8690 18.8316 0.9238
91.8890 18.8183 0.9083
91.9090 18.8049 0.9160
91.9290 18.7915 0.9204
91.9490 18.7782 0.9060
91.9690 18.7649 0.9160
91.9890 18.7515 0.9168
92.0090 18.7382 0.9036
92.0290 18.7248 0.9172
92.0490 18.7115 0.9120
92.0690 18.6983 0.9035
92.0890 18.6849 0.9147
92.1090 18.6716 0.9131
92.1290 18.6583 0.9058
92.1490 18.6450 0.9114
92.1690 18.6317 0.9068
92.1890 18.6183 0.9052
92.2090 18.6049 0.9071
92.2290 18.5916 0.9120
92.2490 18.5783 0.9030
92.2690 18.5649 0.9004
92.2890 18.5515 0.9126
92.3090 18.5382 0.9054
92.3290 18.5249 0.8980
92.3490 18.5116 0.9064
92.3690 18.4982 0.9068
92.3890 18.4848 0.8964
92.4090 18.4715 0.9092
92.4290 18.4582 0.9011
92.4490 18.4449 0.8976
92.4690 18.4316 0.9051
92.4890 18.4183 0.8954
92.5090 18.4050 0.8952
92.5290 18.3916 0.9033
92.5490 18.3783 0.8921
92.5690 18.3649 0.8957
92.5890 18.3516 0.8997
92.6090 18.3383 0.8944
92.6290 18.3249 0.8884
92.6490 18.3115 0.8975
92.6690 18.2982 0.8961
92.6890 18.2849 0.8865
92.7090 18.2716 0.8911
92.7290 18.2582 0.8901
92.7490 18.2449 0.8905
92.7690 18.2315 0.8959
92.7890 18.2182 0.8849
92.8090 18.2049 0.8862
92.8290 18.1916 0.8958
92.8490 18.1783 0.8845
92.8690 18.1649 0.8808
92.8890 18.1516 0.8932
92.9090 18.1383 0.8884
92.9290 18.1249 0.8773
92.9490 18.1116 0.8904
92.9690 18.0983 0.8820
92.9890 18.0849 0.8765
93.0090 18.0716 0.8904
93.0290 18.0582 0.8791
93.0490 18.0449 0.8759
93.0690 18.0316 0.8849
93.0890 18.0182 0.8828
93.1090 18.0049 0.8739
93.1290 17.9915 0.8837
93.1490 17.9782 0.8806
93.1690 17.9649 0.8667
93.1890 17.9516 0.8860
93.2090 17.9383 0.8785
93.2290 17.9250 0.8674
93.2490 17.9116 0.8840
93.2690 17.8983 0.8708
93.2890 17.8849 0.8694
93.3090 17.8716 0.8882
93.3290 17.8583 0.8728
93.3490 17.8449 0.8632
93.3690 17.8316 0.8798
93.3890 17.8182 0.8725
93.4090 17.8049 0.8633
93.4290 17.7916 0.8765
93.4490 17.7782 0.8658
93.4690 17.7649 0.8659
93.4890 17.7515 0.8744
93.5090 17.7382 0.8634
93.5290 17.7249 0.8676
93.5490 17.7115 0.8722
93.5690 17.6982 0.8615
93.5890 17.6849 0.8628
93.6090 17.6716 0.8704
93.6290 17.6583 0.8569
93.6490 17.6449 0.8640
93.6690 17.6316 0.8699
93.6890 17.6183 0.8524
93.7090 17.6050 0.8643
93.7290 17.5916 0.8636
93.7490 17.5782 0.8585
93.7690 17.5649 0.8614
93.7890 17.5516 0.8590
93.8090 17.5382 0.8573
93.8290 17.5248 0.8652
93.8490 17.5115 0.8640
93.8690 17.4982 0.8508
93.8890 17.4849 0.8603
93.9090 17.4716 0.8619
93.9290 17.4583 0.8527
93.9490 17.4450 0.8528
93.9690 17.4316 0.8556
93.9890 17.4183 0.8492
94.0090 17.4049 0.8532
94.0290 17.3916 0.8553
94.0490 17.3783 0.8485
94.0690 17.3649 0.8527
94.0890 17.3515 0.8532
94.1090 17.3382 0.8477
94.1290 17.3249 0.8528
94.1490 17.3116 0.8469
94.1690 17.2982 0.8454
94.1890 17.2849 0.8464
94.2090 17.2715 0.8457
94.2290 17.2582 0.8482
94.2490 17.2449 0.8491
94.2690 17.2316 0.8420
94.2890 17.2183 0.8471
94.3090 17.2050 0.8478
94.3290 17.1917 0.8390
94.3490 17.1783 0.8421
94.3690 17.1649 0.8458
94.3890 17.1516 0.8404
94.4090 17.1383 0.8376
94.4290 17.1249 0.8437
94.4490 17.1115 0.8433
94.4690 17.0982 0.8370
94.4890 17.0849 0.8415
94.5090 17.0716 0.8447
94.5290 17.0582 0.8360
94.5490 17.0449 0.8379
94.5690 17.0316 0.8378
94.5890 17.0182 0.8362
94.6090 17.0049 0.8338
94.6290 16.9916 0.8333
94.6490 16.9782 0.8373
94.6690 16.9650 0.8392
94.6890 16.9516 0.8282
94.7090 16.9383 0.8352
94.7290 16.9249 0.8389
94.7490 16.9116 0.8245
94.7690 16.8983 0.8331
94.7890 16.8849 0.8322
94.8090 16.8716 0.8194
94.8290 16.8582 0.8376
94.8490 16.8449 0.8288
94.8690 16.8316 0.8214
94.8890 16.8182 0.8335
94.9090 16.8049 0.8278
94.9290 16.7915 0.8225
94.9490 16.7782 0.8289
94.9690 16.7649 0.8272
94.9890 16.7516 0.8178
95.0090 16.7383 0.8267
95.0290 16.7250 0.8251
95.0490 16.7116 0.8187
95.0690 16.6983 0.8252
95.0890 16.6849 0.8180
95.1090 16.6716 0.8212
95.1290 16.6583 0.8223
95.1490 16.6449 0.8178
95.1690 16.6316 0.8221
95.1890 16.6182 0.8207
95.2090 16.6049 0.8210
95.2290 16.5916 0.8146
95.2490 16.5782 0.8176
95.2690 16.5648 0.8199
95.2890 16.5515 0.8233
95.3090 16.5382 0.8107
95.3290 16.5249 0.8127
95.3490 16.5116 0.8198
95.3690 16.4983 0.8104
95.3890 16.4850 0.8151
95.4090 16.4717 0.8169
95.4290 16.4583 0.8044
95.4490 16.4449 0.8134
95.4690 16.4316 0.8150
95.4890 16.4183 0.8053
95.5090 16.4050 0.8130
95.5290 16.3916 0.8091
95.5490 16.3782 0.8079
95.5690 16.3649 0.8110
95.5890 16.3516 0.8069
95.6090 16.3382 0.8067
95.6290 16.3249 0.8059
95.6490 16.3115 0.8111
95.6690 16.2982 0.8021
95.6890 16.2849 0.8106
95.7090 16.2716 0.8018
95.7290 16.2582 0.8017
95.7490 16.2449 0.8163
95.7690 16.2316 0.7973
95.7890 16.2183 0.8028
95.8090 16.2050 0.8128
95.8290 16.1916 0.7941
95.8490 16.1783 0.7989
95.8690 16.1650 0.8072
95.8890 16.1516 0.7931
95.9090 16.1382 0.7994
95.9290 16.1248 0.8038
95.9490 16.1115 0.7906
95.9690 16.0982 0.7931
95.9890 16.0848 0.8024
96.0090 16.0715 0.7908
96.0290 16.0582 0.7946
96.0490 16.0449 0.7958
96.0690 16.0316 0.7910
96.0890 16.0183 0.7972
96.1090 16.0050 0.7967
96.1290 15.9916 0.7872
96.1490 15.9783 0.7919
96.1690 15.9649 0.7939
96.1890 15.9516 0.7857
96.2090 15.9383 0.7897
96.2290 15.9249 0.7935
96.2490 15.9116 0.7848
96.2690 15.8982 0.7860
96.2890 15.8849 0.7928
96.3090 15.8716 0.7872
96.3290 15.8582 0.7819
96.3490 15.8449 0.7870
96.3690 15.8315 0.7884
96.3890 15.8182 0.7814
96.4090 15.8049 0.7849
96.4290 15.7916 0.7886
96.4490 15.7782 0.7760
96.4690 15.7649 0.7833
96.4890 15.7516 0.7826
96.5090 15.7383 0.7753
96.5290 15.7249 0.7829
96.5490 15.7116 0.7813
96.5690 15.6983 0.7728
96.5890 15.6849 0.7863
96.6090 15.6716 0.7772
96.6290 15.6582 0.7687
96.6490 15.6449 0.7915
96.6690 15.6316 0.7712
96.6890 15.6183 0.7694
96.7090 15.6049 0.7894
96.7290 15.5915 0.7658
96.7490 15.5782 0.7684
96.7690 15.5649 0.7835
96.7890 15.5516 0.7625
96.8090 15.5382 0.7723
96.8290 15.5249 0.7769
96.8490 15.5116 0.7662
96.8690 15.4983 0.7709
96.8890 15.4849 0.7794
96.9090 15.4716 0.7613
96.9290 15.4583 0.7731
96.9490 15.4450 0.7726
96.9690 15.4316 0.7603
96.9890 15.4182 0.7725
97.0090 15.4049 0.7683
97.0290 15.3916 0.7621
97.0490 15.3782 0.7665
97.0690 15.3649 0.7623
97.0890 15.3515 0.7668
97.1090 15.3382 0.7637
97.1290 15.3249 0.7635
97.1490 15.3116 0.7625
97.1690 15.2982 0.7598
97.1890 15.2849 0.7644
97.2090 15.2716 0.7580
97.2290 15.2583 0.7595
97.2490 15.2449 0.7638
97.2690 15.2316 0.7571
97.2890 15.2183 0.7621
97.3090 15.2050 0.7607
97.3290 15.1916 0.7526
97.3490 15.1782 0.7555
97.3690 15.1649 0.7643
97.3890 15.1516 0.7534
97.4090 15.1383 0.7523
97.4290 15.1249 0.7650
97.4490 15.1115 0.7491
97.4690 15.0982 0.7520
97.4890 15.0849 0.7591
97.5090 15.0716 0.7507
97.5290 15.0582 0.7546
97.5490 15.0449 0.7538
97.5690 15.0316 0.7497
97.5890 15.0183 0.7497
97.6090 15.0049 0.7544
97.6290 14.9916 0.7492
97.6490 14.9782 0.7500
97.6690 14.9649 0.7531
97.6890 14.9515 0.7462
97.7090 14.9382 0.7493
97.7290 14.9248 0.7466
97.7490 14.9115 0.7474
97.7690 14.8982 0.7425
97.7890 14.8849 0.7485
97.8090 14.8716 0.7512
97.8290 14.8583 0.7370
97.8490 14.8449 0.7451
97.8690 14.8316 0.7500
97.8890 14.8182 0.7361
97.9090 14.8049 0.7468
97.9290 14.7916 0.7477
97.9490 14.7783 0.7282
97.9690 14.7649 0.7463
97.9890 14.7516 0.7472
98.0090 14.7383 0.7312
98.0290 14.7250 0.7408
98.0490 14.7116 0.7378
98.0690 14.6982 0.7290
98.0890 14.6849 0.7437
98.1090 14.6715 0.7400
98.1290 14.6582 0.7261
98.1490 14.6449 0.7426
98.1690 14.6315 0.7388
98.1890 14.6182 0.7261
98.2090 14.6049 0.7420
98.2290 14.5916 0.7357
98.2490 14.5783 0.7268
98.2690 14.5649 0.7333
98.2890 14.5516 0.7354
98.3090 14.5383 0.7236
98.3290 14.5249 0.7345
98.3490 14.5115 0.7314
98.3690 14.4982 0.7242
98.3890 14.4849 0.7299
98.4090 14.4716 0.7330
98.4290 14.4582 0.7220
98.4490 14.4449 0.7295
98.4690 14.4316 0.7295
98.4890 14.4183 0.7197
98.5090 14.4049 0.7318
98.5290 14.3915 0.7307
98.5490 14.3782 0.7166
98.5690 14.3649 0.7264
98.5890 14.3516 0.7301
98.6090 14.3382 0.7179
98.6290 14.3249 0.7271
98.6490 14.3116 0.7288
98.6690 14.2983 0.7135
98.6890 14.2850 0.7257
98.7090 14.2716 0.7254
98.7290 14.2583 0.7161
98.7490 14.2449 0.7263
98.7690 14.2316 0.7138
98.7890 14.2182 0.7160
98.8090 14.2049 0.7246
98.8290 14.1916 0.7115
98.8490 14.1782 0.7136
98.8690 14.1649 0.7192
98.8890 14.1515 0.7114
98.9090 14.1382 0.7128
98.9290 14.1249 0.7166
98.9490 14.1116 0.7128
98.9690 14.0982 0.7082
98.9890 14.0849 0.7126
99.0090 14.0716 0.7076
99.0290 14.0583 0.7146
99.0490 14.0450 0.7083
99.0690 14.0316 0.7068
99.0890 14.0183 0.7112
99.1090 14.0050 0.7062
99.1290 13.9916 0.7037
99.1490 13.9782 0.7106
99.1690 13.9648 0.7037
99.1890 13.9515 0.7050
99.2090 13.9382 0.7042
99.2290 13.9248 0.7029
99.2490 13.9115 0.7075
99.2690 13.8982 0.7031
99.2890 13.8849 0.6986
99.3090 13.8716 0.7047
99.3290 13.8583 0.7005
99.3490 13.8449 0.6986
99.3690 13.8317 0.7010
99.3890 13.8183 0.6999
99.4090 13.8050 0.6932
99.4290 13.7916 0.7042
99.4490 13.7783 0.6971
99.4690 13.7649 0.6907
99.4890 13.7516 0.7011
99.5090 13.7382 0.6971
99.5290 13.7249 0.6917
99.5490 13.7115 0.6981
99.5690 13.6982 0.6913
99.5890 13.6849 0.6879
99.6090 13.6715 0.6955
99.6290 13.6582 0.6936
99.6490 13.6449 0.6883
99.6690 13.6316 0.6907
99.6890 13.6183 0.6898
99.7090 13.6049 0.6877
99.7290 13.5916 0.6895
99.7490 13.5783 0.6870
99.7690 13.5650 0.6868
99.7890 13.5516 0.6897
99.8090 13.5383 0.6868
99.8290 13.5250 0.6822
99.8490 13.5116 0.6909
99.8690 13.4982 0.6819
99.8890 13.4849 0.6776
99.9090 13.4715 0.6905
99.9290 13.4582 0.6807
99.9490 13.4449 0.6785
99.9690 13.4315 0.6885
99.9890 13.4182 0.6803
100.0090 13.4049 0.6755
100.0290 13.3916 0.6836
100.0490 13.3782 0.6795
100.0690 13.3649 0.6756
100.0890 13.3516 0.6813
100.1090 13.3383 0.6755
100.1290 13.3249 0.6744
100.1490 13.3116 0.6834
100.1690 13.2983 0.6748
100.1890 13.2849 0.6672
100.2090 13.2716 0.6783
100.2290 13.2583 0.6709
100.2490 13.2449 0.6688
100.2690 13.2316 0.6761
100.2890 13.2182 0.6686
100.3090 13.2049 0.6682
100.3290 13.1915 0.6726
100.3490 13.1782 0.6689
100.3690 13.1649 0.6679
100.3890 13.1516 0.6712
100.4090 13.1382 0.6668
100.4290 13.1249 0.6665
100.4490 13.1116 0.6665
100.4690 13.0983 0.6680
100.4890 13.0849 0.6599
100.5090 13.0716 0.6637
100.5290 13.0582 0.6675
100.5490 13.0449 0.6598
100.5690 13.0316 0.6624
100.5890 13.0182 0.6683
100.6090 13.0049 0.6579
100.6290 12.9916 0.6603
100.6490 12.9783 0.6631
100.6690 12.9649 0.6579
100.6890 12.9515 0.6614
100.7090 12.9382 0.6616
100.7290 12.9249 0.6529
100.7490 12.9116 0.6568
100.7690 12.8982 0.6618
100.7890 12.8849 0.6522
100.8090 12.8716 0.6583
100.8290 12.8583 0.6585
100.8490 12.8450 0.6457
100.8690 12.8316 0.6583
100.8890 12.8183 0.6558
100.9090 12.8050 0.6491
100.9290 12.7916 0.6585
100.9490 12.7783 0.6513
100.9690 12.7649 0.6469
100.9890 12.7515 0.6563
101.0090 12.7382 0.6512
101.0290 12.7249 0.6448
101.0490 12.7115 0.6513
101.0690 12.6982 0.6492
101.0890 12.6849 0.6420
101.1090 12.6716 0.6510
101.1290 12.6583 0.6429
101.1490 12.6449 0.6420
101.1690 12.6316 0.6550
101.1890 12.6183 0.6367
101.2090 12.6050 0.6441
101.2290 12.5916 0.6521
101.2490 12.5783 0.6425
101.2690 12.5649 0.6377
101.2890 12.5516 0.6497
101.3090 12.5382 0.6371
101.3290 12.5249 0.6364
101.3490 12.5115 0.6502
101.3690 12.4982 0.6373
101.3890 12.4849 0.6332
101.4090 12.4715 0.6468
101.4290 12.4582 0.6369
101.4490 12.4449 0.6315
101.4690 12.4316 0.6414
101.4890 12.4183 0.6384
101.5090 12.4049 0.6314
101.5290 12.3916 0.6431
101.5490 12.3783 0.6297
101.5690 12.3650 0.6336
101.5890 12.3516 0.6431
101.6090 12.3383 0.6286
101.6290 12.3249 0.6287
101.6490 12.3116 0.6369
101.6690 12.2982 0.6266
101.6890 12.2848 0.6295
101.7090 12.2715 0.6355
101.7290 12.2582 0.6230
101.7490 12.2449 0.6344
101.7690 12.2316 0.6295
101.7890 12.2182 0.6206
101.8090 12.2049 0.6318
101.8290 12.1916 0.6279
101.8490 12.1783 0.6211
101.8690 12.1649 0.6264
101.8890 12.1516 0.6271
101.9090 12.1383 0.6215
101.9290 12.1250 0.6191
101.9490 12.1116 0.6248
101.9690 12.0982 0.6178
101.9890 12.0849 0.6185
102.0090 12.0716 0.6202
102.0290 12.0582 0.6190
102.0490 12.0449 0.6182
102.0690 12.0315 0.6192
102.0890 12.0182 0.6152
102.1090 12.0049 0.6190
102.1290 11.9915 0.6169
102.1490 11.9782 0.6121
102.1690 11.9649 0.6215
102.1890 11.9516 0.6144
102.2090 11.9383 0.6110
102.2290 11.9249 0.6212
102.2490 11.9116 0.6058
102.2690 11.8983 0.6052
102.2890 11.8850 0.6216
102.3090 11.8716 0.6062
102.3290 11.8582 0.6033
102.3490 11.8449 0.6170
102.3690 11.8316 0.6025
102.3890 11.8183 0.6025
102.4090 11.8049 0.6219
102.4290 11.7916 0.6017
102.4490 11.7782 0.6024
102.4690 11.7649 0.6112
102.4890 11.7516 0.5980
102.5090 11.7382 0.6014
102.5290 11.7249 0.6141
102.5490 11.7116 0.5963
102.5690 11.6983 0.6010
102.5890 11.6849 0.6143
102.6090 11.6716 0.5928
102.6290 11.6583 0.5983
102.6490 11.6450 0.6138
102.6690 11.6316 0.5928
102.6890 11.6183 0.5966
102.7090 11.6049 0.6073
102.7290 11.5916 0.5931
102.7490 11.5782 0.5953
102.7690 11.5649 0.6022
102.7890 11.5515 0.5936
102.8090 11.5382 0.5952
102.8290 11.5249 0.5998
102.8490 11.5115 0.5875
102.8690 11.4982 0.5914
102.8890 11.4849 0.6009
102.9090 11.4716 0.5849
102.9290 11.4582 0.5901
102.9490 11.4449 0.5945
102.9690 11.4316 0.5893
102.9890 11.4183 0.5832
103.0090 11.4050 0.5944
103.0290 11.3916 0.5860
103.0490 11.3783 0.5828
103.0690 11.3650 0.5953
103.0890 11.3516 0.5814
103.1090 11.3383 0.5804
103.1290 11.3249 0.5897
103.1490 11.3115 0.5783
103.1690 11.2982 0.5776
103.1890 11.2849 0.5904
103.2090 11.2715 0.5778
103.2290 11.2582 0.5763
103.2490 11.2449 0.5888
103.2690 11.2316 0.5757
103.2890 11.2183 0.5769
103.3090 11.2050 0.5880
103.3290 11.1916 0.5766
103.3490 11.1783 0.5729
103.3690 11.1650 0.5813
103.3890 11.1516 0.5699
103.4090 11.1382 0.5752
103.4290 11.1249 0.5818
103.4490 11.1116 0.5669
103.4690 11.0983 0.5740
103.4890 11.0849 0.5772
103.5090 11.0715 0.5686
103.5290 11.0582 0.5725
103.5490 11.0449 0.5753
103.5690 11.0316 0.5675
103.5890 11.0182 0.5708
103.6090 11.0049 0.5758
103.6290 10.9916 0.5634
103.6490 10.9782 0.5648
103.6690 10.9649 0.5732
103.6890 10.9516 0.5641
103.7090 10.9383 0.5642
103.7290 10.9250 0.5716
103.7490 10.9116 0.5640
103.7690 10.8982 0.5621
103.7890 10.8849 0.5686
103.8090 10.8716 0.5592
103.8290 10.8583 0.5593
103.8490 10.8449 0.5720
103.8690 10.8315 0.5563
103.8890 10.8182 0.5564
103.9090 10.8049 0.5651
103.9290 10.7916 0.5514
103.9490 10.7782 0.5591
103.9690 10.7649 0.5644
103.9890 10.7516 0.5501
104.0090 10.7382 0.5570
104.0290 10.7249 0.5615
104.0490 10.7116 0.5519
104.0690 10.6983 0.5551
104.0890 10.6849 0.5638
104.1090 10.6716 0.5470
104.1290 10.6583 0.5540
104.1490 10.6449 0.5565
104.1690 10.6317 0.5465
104.1890 10.6183 0.5528
104.2090 10.6049 0.5528
104.2290 10.5916 0.5476
104.2490 10.5782 0.5518
104.2690 10.5649 0.5492
104.2890 10.5516 0.5424
104.3090 10.5382 0.5500
104.3290 10.5249 0.5519
104.3490 10.5116 0.5460
104.3690 10.4982 0.5439
104.3890 10.4849 0.5446
104.4090 10.4716 0.5459
104.4290 10.4583 0.5421
104.4490 10.4450 0.5421
104.4690 10.4316 0.5465
104.4890 10.4182 0.5424
104.5090 10.4049 0.5396
104.5290 10.3916 0.5396
104.5490 10.3783 0.5390
104.5690 10.3649 0.5377
104.5890 10.3515 0.5433
104.6090 10.3382 0.5377
104.6290 10.3249 0.5357
104.6490 10.3116 0.5368
104.6690 10.2982 0.5327
104.6890 10.2848 0.5381
104.7090 10.2715 0.5362
104.7290 10.2582 0.5256
104.7490 10.2449 0.5347
104.7690 10.2315 0.5352
104.7890 10.2183 0.5256
104.8090 10.2050 0.5328
104.8290 10.1916 0.5294
104.8490 10.1783 0.5212
104.8690 10.1649 0.5317
104.8890 10.1516 0.5307
104.9090 10.1383 0.5219
104.9290 10.1249 0.5294
104.9490 10.1115 0.5293
104.9690 10.0982 0.5177
104.9890 10.0849 0.5279
105.0090 10.0716 0.5274
105.0290 10.0582 0.5201
105.0490 10.0449 0.5211
105.0690 10.0316 0.5192
105.0890 10.0183 0.5176
105.1090 10.0049 0.5209
105.1290 9.9916 0.5240
105.1490 9.9783 0.5131
105.1690 9.9650 0.5134
105.1890 9.9516 0.5218
105.2090 9.9383 0.5123
105.2290 9.9249 0.5142
105.2490 9.9116 0.5230
105.2690 9.8983 0.5058
105.2890 9.8849 0.5104
105.3090 9.8715 0.5205
105.3290 9.8582 0.5084
105.3490 9.8449 0.5068
105.3690 9.8315 0.5170
105.3890 9.8182 0.5047
105.4090 9.8049 0.5088
105.4290 9.7916 0.5153
105.4490 9.7783 0.5013
105.4690 9.7649 0.5113
105.4890 9.7516 0.5132
105.5090 9.7383 0.4969
105.5290 9.7250 0.5053
105.5490 9.7116 0.5054
105.5690 9.6982 0.4981
105.5890 9.6849 0.5020
105.6090 9.6716 0.5085
105.6290 9.6582 0.4978
105.6490 9.6449 0.5017
105.6690 9.6315 0.5031
105.6890 9.6182 0.4907
105.7090 9.6049 0.5036
105.7290 9.5916 0.5022
105.7490 9.5782 0.4898
105.7690 9.5649 0.4994
105.7890 9.5516 0.4971
105.8090 9.5382 0.4922
105.8290 9.5249 0.4996
105.8490 9.5115 0.4950
105.8690 9.4982 0.4935
105.8890 9.4849 0.4937
105.9090 9.4716 0.4886
105.9290 9.4583 0.4914
105.9490 9.4449 0.4936
105.9690 9.4316 0.4924
105.9890 9.4183 0.4867
106.0090 9.4049 0.4865
106.0290 9.3915 0.4882
106.0490 9.3782 0.4847
106.0690 9.3649 0.4828
106.0890 9.3515 0.4897
106.1090 9.3382 0.4855
106.1290 9.3249 0.4776
106.1490 9.3115 0.4908
106.1690 9.2982 0.4753
106.1890 9.2849 0.4824
106.2090 9.2716 0.4921
106.2290 9.2582 0.4726
106.2490 9.2449 0.4765
106.2690 9.2316 0.4859
106.2890 9.2183 0.4706
106.3090 9.2049 0.4754
106.3290 9.1916 0.4881
106.3490 9.1783 0.4646
106.3690 9.1649 0.4720
106.3890 9.1516 0.4814
106.4090 9.1382 0.4673
106.4290 9.1249 0.4788
106.4490 9.1115 0.4770
106.4690 9.0982 0.4633
106.4890 9.0848 0.4733
106.5090 9.0715 0.4739
106.5290 9.0582 0.4631
106.5490 9.0449 0.4707
106.5690 9.0316 0.4671
106.5890 9.0183 0.4660
106.6090 9.0050 0.4647
106.6290 8.9917 0.4616
106.6490 8.9783 0.4682
106.6690 8.9649 0.4607
106.6890 8.9516 0.4573
106.7090 8.9383 0.4677
106.7290 8.9249 0.4623
106.7490 8.9116 0.4574
106.7690 8.8982 0.4656
106.7890 8.8849 0.4572
106.8090 8.8716 0.4577
106.8290 8.8582 0.4621
106.8490 8.8449 0.4552
106.8690 8.8315 0.4559
106.8890 8.8182 0.4580
106.9090 8.8049 0.4497
106.9290 8.7916 0.4582
106.9490 8.7783 0.4616
106.9690 8.7650 0.4421
106.9890 8.7516 0.4504
107.0090 8.7383 0.4596
107.0290 8.7249 0.4425
107.0490 8.7116 0.4520
107.0690 8.6983 0.4540
107.0890 8.6849 0.4402
107.1090 8.6715 0.4502
107.1290 8.6582 0.4527
107.1490 8.6449 0.4361
107.1690 8.6316 0.4510
107.1890 8.6182 0.4482
107.2090 8.6048 0.4355
107.2290 8.5915 0.4467
107.2490 8.5782 0.4466
107.2690 8.5649 0.4328
107.2890 8.5516 0.4475
107.3090 8.5382 0.4441
107.3290 8.5249 0.4332
107.3490 8.5116 0.4469
107.3690 8.4983 0.4391
107.3890 8.4849 0.4328
107.4090 8.4716 0.4446
107.4290 8.4583 0.4345
107.4490 8.4450 0.4324
107.4690 8.4316 0.4418
107.4890 8.4182 0.4305
107.5090 8.4049 0.4267
107.5290 8.3916 0.4364
107.5490 8.3782 0.4326
107.5690 8.3649 0.4272
107.5890 8.3515 0.4349
107.6090 8.3382 0.4310
107.6290 8.3249 0.4266
107.6490 8.3116 0.4318
107.6690 8.2983 0.4303
107.6890 8.2850 0.4241
107.7090 8.2716 0.4265
107.7290 8.2583 0.4236
107.7490 8.2449 0.4278
107.7690 8.2316 0.4263
107.7890 8.2183 0.4254
107.8090 8.2049 0.4197
107.8290 8.1916 0.4218
107.8490 8.1782 0.4290
107.8690 8.1649 0.4150
107.8890 8.1516 0.4219
107.9090 8.1382 0.4208
107.9290 8.1249 0.4176
107.9490 8.1115 0.4225
107.9690 8.0982 0.4172
107.9890 8.0849 0.4155
108.0090 8.0715 0.4195
108.0290 8.0582 0.4182
108.0490 8.0449 0.4106
108.0690 8.0316 0.4165
108.0890 8.0183 0.4175
108.1090 8.0049 0.4111
108.1290 7.9916 0.4130
108.1490 7.9783 0.4116
108.1690 7.9650 0.4069
108.1890 7.9516 0.4097
108.2090 7.9382 0.4124
108.2290 7.9249 0.4065
108.2490 7.9116 0.4103
108.2690 7.8982 0.4080
108.2890 7.8848 0.4053
108.3090 7.8715 0.4072
108.3290 7.8582 0.4047
108.3490 7.8449 0.4008
108.3690 7.8316 0.4052
108.3890 7.8183 0.4074
108.4090 7.8050 0.3981
108.4290 7.7917 0.4002
108.4490 7.7783 0.4011
108.4690 7.7649 0.3995
108.4890 7.7516 0.3969
108.5090 7.7383 0.3976
108.5290 7.7249 0.3965
108.5490 7.7115 0.3962
108.5690 7.6982 0.3986
108.5890 7.6849 0.3929
108.6090 7.6716 0.3952
108.6290 7.6582 0.3901
108.6490 7.6449 0.3997
108.6690 7.6315 0.3860
108.6890 7.6182 0.3941
108.7090 7.6049 0.3868
108.7290 7.5916 0.3915
108.7490 7.5782 0.3909
108.7690 7.5649 0.3903
108.7890 7.5516 0.3802
108.8090 7.5383 0.3868
108.8290 7.5249 0.3891
108.8490 7.5116 0.3777
108.8690 7.4983 0.3925
108.8890 7.4849 0.3735
108.9090 7.4715 0.3866
108.9290 7.4582 0.3821
108.9490 7.4449 0.3848
108.9690 7.4316 0.3743
108.9890 7.4183 0.3906
109.0090 7.4049 0.3689
109.0290 7.3916 0.3804
109.0490 7.3783 0.3793
109.0690 7.3649 0.3754
109.0890 7.3516 0.3739
109.1090 7.3382 0.3792
109.1290 7.3249 0.3699
109.1490 7.3116 0.3731
109.1690 7.2983 0.3760
109.1890 7.2849 0.3676
109.2090 7.2716 0.3794
109.2290 7.2583 0.3640
109.2490 7.2449 0.3731
109.2690 7.2316 0.3686
109.2890 7.2182 0.3717
109.3090 7.2049 0.3631
109.3290 7.1916 0.3737
109.3490 7.1782 0.3610
109.3690 7.1649 0.3653
109.3890 7.1515 0.3652
109.4090 7.1382 0.3586
109.4290 7.1249 0.3670
109.4490 7.1116 0.3635
109.4690 7.0983 0.3610
109.4890 7.0850 0.3620
109.5090 7.0716 0.3652
109.5290 7.0583 0.3490
109.5490 7.0449 0.3668
109.5690 7.0316 0.3603
109.5890 7.0183 0.3551
109.6090 7.0049 0.3545
109.6290 6.9916 0.3585
109.6490 6.9782 0.3509
109.6690 6.9649 0.3535
109.6890 6.9516 0.3541
109.7090 6.9382 0.3463
109.7290 6.9249 0.3596
109.7490 6.9115 0.3515
109.7690 6.8982 0.3449
109.7890 6.8849 0.3570
109.8090 6.8716 0.3513
109.8290 6.8583 0.3395
109.8490 6.8450 0.3618
109.8690 6.8317 0.3386
109.8890 6.8183 0.3448
109.9090 6.8049 0.3509
109.9290 6.7916 0.3378
109.9490 6.7783 0.3414
109.9690 6.7649 0.3467
109.9890 6.7516 0.3374
110.0090 6.7382 0.3420
110.0290 6.7249 0.3501
110.0490 6.7116 0.3310
110.0690 6.6982 0.3378
110.0890 6.6849 0.3446
110.1090 6.6715 0.3300
110.1290 6.6582 0.3371
110.1490 6.6449 0.3412
110.1690 6.6316 0.3274
110.1890 6.6182 0.3363
110.2090 6.6049 0.3384
110.2290 6.5916 0.3229
110.2490 6.5783 0.3316
110.2690 6.5650 0.3352
110.2890 6.5516 0.3250
110.3090 6.5383 0.3316
110.3290 6.5250 0.3261
110.3490 6.5116 0.3283
110.3690 6.4982 0.3266
110.3890 6.4848 0.3265
110.4090 6.4715 0.3229
110.4290 6.4582 0.3207
110.4490 6.4449 0.3230
110.4690 6.4315 0.3234
110.4890 6.4182 0.3177
110.5090 6.4049 0.3203
110.5290 6.3916 0.3203
110.5490 6.3783 0.3155
110.5690 6.3650 0.3173
110.5890 6.3517 0.3218
110.6090 6.3383 0.3101
110.6290 6.3250 0.3176
110.6490 6.3116 0.3198
110.6690 6.2983 0.3074
110.6890 6.2849 0.3170
110.7090 6.2716 0.3133
110.7290 6.2582 0.3056
110.7490 6.2449 0.3139
110.7690 6.2316 0.3124
110.7890 6.2182 0.3050
110.8090 6.2049 0.3129
110.8290 6.1915 0.3073
110.8490 6.1782 0.3024
110.8690 6.1649 0.3118
110.8890 6.1516 0.3036
110.9090 6.1382 0.3025
110.9290 6.1249 0.3060
110.9490 6.1116 0.3015
110.9690 6.0983 0.2966
110.9890 6.0849 0.3041
111.0090 6.0716 0.3037
111.0290 6.0583 0.2937
111.0490 6.0449 0.2976
111.0690 6.0316 0.2971
111.0890 6.0182 0.2953
111.1090 6.0049 0.2955
111.1290 5.9916 0.2935
111.1490 5.9782 0.2886
111.1690 5.9649 0.2969
111.1890 5.9515 0.2947
111.2090 5.9382 0.2881
111.2290 5.9249 0.2914
111.2490 5.9115 0.2917
111.2690 5.8982 0.2793
111.2890 5.8849 0.2927
111.3090 5.8716 0.2920
111.3290 5.8583 0.2787
111.3490 5.8449 0.2862
111.3690 5.8316 0.2884
111.3890 5.8183 0.2762
111.4090 5.8050 0.2856
111.4290 5.7916 0.2896
111.4490 5.7782 0.2690
111.4690 5.7649 0.2878
111.4890 5.7516 0.2825
111.5090 5.7382 0.2627
111.5290 5.7249 0.2886
111.5490 5.7115 0.2804
111.5690 5.6982 0.2636
111.5890 5.6849 0.2848
111.6090 5.6716 0.2809
111.6290 5.6582 0.2592
111.6490 5.6449 0.2857
111.6690 5.6316 0.2757
111.6890 5.6183 0.2538
111.7090 5.6049 0.2860
111.7290 5.5916 0.2716
111.7490 5.5783 0.2544
111.7690 5.5650 0.2787
111.7890 5.5516 0.2668
111.8090 5.5382 0.2548
111.8290 5.5249 0.2755
111.8490 5.5116 0.2640
111.8690 5.4983 0.2545
111.8890 5.4849 0.2681
111.9090 5.4715 0.2637
111.9290 5.4582 0.2526
111.9490 5.4449 0.2695
111.9690 5.4316 0.2558
111.9890 5.4182 0.2537
112.0090 5.4049 0.2668
112.0290 5.3916 0.2529
112.0490 5.3783 0.2536
112.0690 5.3649 0.2603
112.0890 5.3516 0.2518
112.1090 5.3383 0.2501
112.1290 5.3249 0.2544
112.1490 5.3116 0.2489
112.1690 5.2982 0.2460
112.1890 5.2849 0.2548
112.2090 5.2716 0.2487
112.2290 5.2583 0.2395
112.2490 5.2449 0.2527
112.2690 5.2315 0.2484
112.2890 5.2182 0.2406
112.3090 5.2049 0.2475
112.3290 5.1916 0.2429
112.3490 5.1783 0.2360
112.3690 5.1649 0.2469
112.3890 5.1516 0.2429
112.4090 5.1383 0.2272
112.4290 5.1249 0.2406
112.4490 5.1116 0.2423
112.4690 5.0982 0.2280
112.4890 5.0849 0.2389
112.5090 5.0716 0.2366
112.5290 5.0582 0.2256
112.5490 5.0449 0.2331
112.5690 5.0315 0.2348
112.5890 5.0182 0.2242
112.6090 5.0049 0.2313
112.6290 4.9915 0.2318
112.6490 4.9782 0.2185
112.6690 4.9649 0.2294
112.6890 4.9516 0.2313
112.7090 4.9383 0.2182
112.7290 4.9249 0.2270
112.7490 4.9116 0.2258
112.7690 4.8983 0.2158
112.7890 4.8849 0.2247
112.8090 4.8716 0.2220
112.8290 4.8582 0.2111
112.8490 4.8449 0.2240
112.8690 4.8316 0.2165
112.8890 4.8182 0.2061
112.9090 4.8049 0.2198
112.9290 4.7916 0.2123
112.9490 4.7783 0.2079
112.9690 4.7650 0.2199
112.9890 4.7516 0.2094
113.0090 4.7383 0.2072
113.0290 4.7249 0.2097
113.0490 4.7116 0.2026
113.0690 4.6982 0.2093
113.0890 4.6849 0.2076
113.1090 4.6716 0.1992
113.1290 4.6583 0.2046
113.1490 4.6450 0.2038
113.1690 4.6316 0.1985
113.1890 4.6183 0.2086
113.2090 4.6050 0.1991
113.2290 4.5916 0.1905
113.2490 4.5782 0.2021
113.2690 4.5649 0.1939
113.2890 4.5516 0.1942
113.3090 4.5382 0.2009
113.3290 4.5249 0.1905
113.3490 4.5115 0.1915
113.3690 4.4982 0.1985
113.3890 4.4849 0.1899
113.4090 4.4716 0.1881
113.4290 4.4582 0.1945
113.4490 4.4449 0.1867
113.4690 4.4316 0.1851
113.4890 4.4183 0.1937
113.5090 4.4049 0.1821
113.5290 4.3916 0.1801
113.5490 4.3783 0.1924
113.5690 4.3650 0.1806
113.5890 4.3516 0.1800
113.6090 4.3382 0.1842
113.6290 4.3249 0.1778
113.6490 4.3115 0.1805
113.6690 4.2982 0.1758
113.6890 4.2849 0.1719
113.7090 4.2715 0.1769
113.7290 4.2582 0.1786
113.7490 4.2449 0.1639
113.7690 4.2316 0.1708
113.7890 4.2182 0.1776
113.8090 4.2049 0.1624
113.8290 4.1916 0.1699
113.8490 4.1783 0.1673
113.8690 4.1650 0.1601
113.8890 4.1516 0.1687
113.9090 4.1382 0.1659
113.9290 4.1249 0.1602
113.9490 4.1116 0.1662
113.9690 4.0982 0.1606
113.9890 4.0849 0.1577
114.0090 4.0716 0.1621
114.0290 4.0582 0.1611
114.0490 4.0449 0.1516
114.0690 4.0315 0.1569
114.0890 4.0182 0.1607
114.1090 4.0049 0.1509
114.1290 3.9916 0.1505
114.1490 3.9783 0.1582
114.1690 3.9649 0.1453
114.1890 3.9516 0.1437
114.2090 3.9383 0.1589
114.2290 3.9250 0.1391
114.2490 3.9116 0.1476
114.2690 3.8983 0.1540
114.2890 3.8850 0.1353
114.3090 3.8716 0.1421
114.3290 3.8583 0.1466
114.3490 3.8449 0.1340
114.3690 3.8316 0.1441
114.3890 3.8182 0.1423
114.4090 3.8049 0.1271
114.4290 3.7915 0.1412
114.4490 3.7782 0.1393
114.4690 3.7649 0.1254
114.4890 3.7516 0.1374
114.5090 3.7382 0.1374
114.5290 3.7249 0.1216
114.5490 3.7116 0.1360
114.5690 3.6983 0.1328
114.5890 3.6849 0.1210
114.6090 3.6716 0.1285
114.6290 3.6583 0.1288
114.6490 3.6450 0.1195
114.6690 3.6316 0.1259
114.6890 3.6183 0.1227
114.7090 3.6049 0.1194
114.7290 3.5916 0.1184
114.7490 3.5783 0.1215
114.7690 3.5649 0.1142
114.7890 3.5516 0.1173
114.8090 3.5382 0.1193
114.8290 3.5249 0.1064
114.8490 3.5116 0.1136
114.8690 3.4982 0.1149
114.8890 3.4849 0.1054
114.9090 3.4716 0.1101
114.9290 3.4583 0.1109
114.9490 3.4450 0.1017
114.9690 3.4316 0.1095
114.9890 3.4182 0.1120
115.0090 3.4049 0.0967
115.0290 3.3916 0.1051
115.0490 3.3783 0.1038
115.0690 3.3649 0.0977
115.0890 3.3516 0.1008
115.1090 3.3383 0.1012
115.1290 3.3249 0.0878
115.1490 3.3115 0.1015
115.1690 3.2982 0.0989
115.1890 3.2849 0.0836
115.2090 3.2715 0.0981
115.2290 3.2582 0.0926
115.2490 3.2449 0.0847
115.2690 3.2316 0.0918
115.2890 3.2183 0.0908
115.3090 3.2050 0.0802
115.3290 3.1916 0.0869
115.3490 3.1783 0.0862
115.3690 3.1650 0.0784
115.3890 3.1516 0.0834
115.4090 3.1383 0.0806
115.4290 3.1249 0.0725
115.4490 3.1115 0.0825
115.4690 3.0982 0.0770
115.4890 3.0849 0.0678
115.5090 3.0715 0.0769
115.5290 3.0581 0.0767
115.5490 3.0449 0.0642
115.5690 3.0316 0.0745
115.5890 3.0183 0.0703
115.6090 3.0049 0.0663
115.6290 2.9916 0.0636
115.6490 2.9783 0.0729
115.6690 2.9650 0.0560
115.6890 2.9516 0.0584
115.7090 2.9382 0.0749
115.7290 2.9249 0.0561
115.7490 2.9116 0.0574
115.7690 2.8982 0.0681
115.7890 2.8849 0.0478
115.8090 2.8715 0.0559
115.8290 2.8582 0.0624
115.8490 2.8449 0.0441
115.8690 2.8316 0.0486
115.8890 2.8182 0.0595
115.9090 2.8049 0.0412
115.9290 2.7916 0.0494
115.9490 2.7782 0.0526
115.9690 2.7649 0.0398
115.9890 2.7516 0.0506
116.0090 2.7383 0.0538
116.0290 2.7250 0.0364
116.0490 2.7116 0.0483
116.0690 2.6982 0.0498
116.0890 2.6849 0.0381
116.1090 2.6716 0.0432
116.1290 2.6582 0.0406
116.1490 2.6449 0.0354
116.1690 2.6316 0.0384
116.1890 2.6183 0.0372
116.2090 2.6049 0.0319
116.2290 2.5916 0.0409
116.2490 2.5782 0.0321
116.2690 2.5649 0.0277
116.2890 2.5516 0.0363
116.3090 2.5383 0.0301
116.3290 2.5249 0.0272
116.3490 2.5116 0.0335
116.3690 2.4983 0.0236
116.3890 2.4850 0.0186
116.4090 2.4716 0.0265
116.4290 2.4582 0.0242
116.4490 2.4449 0.0183
116.4690 2.4316 0.0190
116.4890 2.4183 0.0161
116.5090 2.4049 0.0141
116.5290 2.3915 0.0137
116.5490 2.3782 0.0149
116.5690 2.3649 0.0108
116.5890 2.3515 0.0081
116.6090 2.3382 0.0140
116.6290 2.3249 0.0075
116.6490 2.3116 0.0045
116.6690 2.2983 0.0075
116.6890 2.2849 -0.0001
116.7090 2.2716 0.0057
116.7290 2.2583 0.0006
116.7490 2.2450 -0.0003
116.7690 2.2316 -0.0002
116.7890 2.2182 0.0014
116.8090 2.2049 -0.0037
116.8290 2.1916 -0.0035
116.8490 2.1783 0.0000
116.8690 2.1649 -0.0048
116.8890 2.1516 -0.0025
116.9090 2.1382 -0.0043
116.9290 2.1249 -0.0080
116.9490 2.1115 -0.0081
116.9690 2.0982 -0.0026
116.9890 2.0848 -0.0018
117.0090 2.0716 -0.0074
117.0290 2.0583 -0.0118
117.0490 2.0449 -0.0062
117.0690 2.0316 -0.0093
117.0890 2.0183 -0.0060
117.1090 2.0050 -0.0143
117.1290 1.9916 -0.0109
117.1490 1.9783 -0.0102
117.1690 1.9649 -0.0108
117.1890 1.9516 -0.0143
117.2090 1.9383 -0.0092
117.2290 1.9249 -0.0084
117.2490 1.9116 -0.0164
117.2690 1.8982 -0.0111
117.2890 1.8849 -0.0115
117.3090 1.8715 -0.0138
117.3290 1.8582 -0.0125
117.3490 1.8449 -0.0119
117.3690 1.8316 -0.0122
117.3890 1.8183 -0.0143
117.4090 1.8049 -0.0125
117.4290 1.7916 -0.0119
117.4490 1.7783 -0.0189
117.4690 1.7650 -0.0140
117.4890 1.7516 -0.0125
117.5090 1.7383 -0.0130
117.5290 1.7250 -0.0121
117.5490 1.7116 -0.0144
117.5690 1.6983 -0.0179
117.5890 1.6849 -0.0106
117.6090 1.6715 -0.0096
117.6290 1.6582 -0.0196
117.6490 1.6449 -0.0110
117.6690 1.6315 -0.0169
117.6890 1.6182 -0.0219
117.7090 1.6049 -0.0045
117.7290 1.5916 -0.0126
117.7490 1.5783 -0.0188
117.7690 1.5649 -0.0114
117.7890 1.5516 -0.0116
117.8090 1.5383 -0.0174
117.8290 1.5250 -0.0116
117.8490 1.5116 -0.0147
117.8690 1.4982 -0.0195
117.8890 1.4849 -0.0067
117.9090 1.4716 -0.0139
117.9290 1.4583 -0.0138
117.9490 1.4449 -0.0101
117.9690 1.4315 -0.0188
117.9890 1.4182 -0.0121
118.0090 1.4049 -0.0114
118.0290 1.3916 -0.0199
118.0490 1.3782 -0.0120
118.0690 1.3649 -0.0102
118.0890 1.3516 -0.0184
118.1090 1.3382 -0.0143
118.1290 1.3249 -0.0125
118.1490 1.3116 -0.0145
118.1690 1.2983 -0.0151
118.1890 1.2850 -0.0193
118.2090 1.2716 -0.0087
118.2290 1.2582 -0.0149
118.2490 1.2449 -0.0140
118.2690 1.2316 -0.0072
118.2890 1.2183 -0.0164
118.3090 1.2049 -0.0150
118.3290 1.1915 -0.0054
118.3490 1.1782 -0.0193
118.3690 1.1649 -0.0145
118.3890 1.1516 -0.0084
118.4090 1.1382 -0.0183
118.4290 1.1249 -0.0118
118.4490 1.1116 -0.0043
118.4690 1.0982 -0.0233
118.4890 1.0849 -0.0111
118.5090 1.0716 -0.0050
118.5290 1.0583 -0.0285
118.5490 1.0449 -0.0100
118.5690 1.0316 -0.0063
118.5890 1.0183 -0.0260
118.6090 1.0049 -0.0066
118.6290 0.9916 -0.0074
118.6490 0.9783 -0.0278
118.6690 0.9650 -0.0083
118.6890 0.9516 -0.0104
118.7090 0.9382 -0.0264
118.7290 0.9249 -0.0001
118.7490 0.9116 -0.0123
118.7690 0.8982 -0.0244
118.7890 0.8849 -0.0044
118.8090 0.8716 -0.0171
118.8290 0.8583 -0.0228
118.8490 0.8449 -0.0076
118.8690 0.8316 -0.0137
118.8890 0.8183 -0.0202
118.9090 0.8050 -0.0091
118.9290 0.7916 -0.0128
118.9490 0.7783 -0.0176
118.9690 0.7649 -0.0121
118.9890 0.7516 -0.0131
119.0090 0.7383 -0.0194
119.0290 0.7249 -0.0109
119.0490 0.7115 -0.0092
119.0690 0.6982 -0.0163
119.0890 0.6849 -0.0117
119.1090 0.6716 -0.0076
119.1290 0.6582 -0.0225
119.1490 0.6449 -0.0047
119.1690 0.6316 -0.0082
119.1890 0.6182 -0.0241
119.2090 0.6049 -0.0067
119.2290 0.5915 -0.0069
119.2490 0.5783 -0.0213
119.2690 0.5650 -0.0085
119.2890 0.5516 -0.0106
119.3090 0.5383 -0.0211
119.3290 0.5249 -0.0108
119.3490 0.5116 -0.0017
119.3690 0.4983 -0.0228
119.3890 0.4849 -0.0119
119.4090 0.4715 -0.0059
119.4290 0.4582 -0.0203
119.4490 0.4449 -0.0127
119.4690 0.4316 -0.0067
119.4890 0.4182 -0.0235
119.5090 0.4049 -0.0096
119.5290 0.3916 -0.0026
119.5490 0.3783 -0.0241
119.5690 0.3649 -0.0065
119.5890 0.3516 -0.0046
119.6090 0.3383 -0.0216
119.6290 0.3250 -0.0082
119.6490 0.3116 -0.0095
119.6690 0.2982 -0.0206
119.6890 0.2849 -0.0066
119.7090 0.2716 -0.0101
119.7290 0.2583 -0.0201
119.7490 0.2449 -0.0109
119.7690 0.2315 -0.0051
119.7890 0.2182 -0.0184
119.8090 0.2049 -0.0099
119.8290 0.1916 -0.0093
119.8490 0.1782 -0.0216
119.8690 0.1649 -0.0072
119.8890 0.1516 -0.0074
119.9090 0.1383 -0.0216
119.9290 0.1249 -0.0086
119.9490 0.1116 -0.0147
119.9690 0.0983 -0.0119
119.9890 0.0850 -0.0081
120.0090 0.0716 -0.0099
120.0290 0.0582 -0.0165
120.0490 0.0449 -0.0125
120.0690 0.0316 -0.0082
120.0890 0.0183 -0.0201
120.1090 0.0049 -0.0089
120.1170 -0.0003 0.0095
