Raw Data
Time Displacement Force
(s) (mm) (N)
0.0000 0.0000 0.0039
0.0200 0.0001 0.0020
0.0400 0.0020 0.0703
0.0600 0.0094 0.0820
0.0800 0.0211 -0.0208
0.1000 0.0335 -0.0076
0.1200 0.0461 0.0371
0.1400 0.0596 -0.0100
0.1600 0.0737 -0.0068
0.1800 0.0879 0.0148
0.2000 0.1019 -0.0193
0.2200 0.1155 -0.0058
0.2400 0.1288 0.0181
0.2600 0.1421 -0.0125
0.2800 0.1554 0.0021
0.3000 0.1688 0.0160
0.3200 0.1821 -0.0141
0.3400 0.1955 0.0052
0.3600 0.2089 0.0086
0.3800 0.2222 -0.0060
0.4000 0.2356 0.0034
0.4200 0.2489 0.0094
0.4400 0.2622 -0.0038
0.4600 0.2756 0.0003
0.4800 0.2889 0.0079
0.5000 0.3022 -0.0045
0.5200 0.3155 0.0035
0.5400 0.3288 0.0114
0.5600 0.3422 -0.0030
0.5800 0.3556 -0.0008
0.6000 0.3689 0.0087
0.6200 0.3822 0.0075
0.6400 0.3955 -0.0013
0.6600 0.4089 0.0122
0.6800 0.4222 0.0040
0.7000 0.4355 -0.0012
0.7200 0.4488 0.0089
0.7400 0.4622 0.0074
0.7600 0.4756 0.0028
0.7800 0.4889 0.0088
0.8000 0.5022 0.0076
0.8200 0.5156 0.0033
0.8400 0.5290 0.0067
0.8600 0.5423 0.0046
0.8800 0.5556 0.0042
0.9000 0.5689 0.0100
0.9200 0.5822 0.0029
0.9400 0.5955 0.0029
0.9600 0.6088 0.0086
0.9800 0.6221 0.0035
1.0000 0.6354 0.0011
1.0200 0.6488 0.0108
1.0400 0.6622 0.0051
1.0600 0.6755 0.0028
1.0800 0.6889 0.0094
1.1000 0.7023 0.0035
1.1200 0.7156 0.0116
1.1400 0.7289 0.0099
1.1600 0.7422 0.0021
1.1800 0.7556 0.0107
1.2000 0.7689 0.0094
1.2200 0.7823 0.0026
1.2400 0.7956 0.0100
1.2600 0.8089 0.0125
1.2800 0.8222 0.0079
1.3000 0.8356 0.0070
1.3200 0.8489 0.0081
1.3400 0.8622 0.0078
1.3600 0.8755 0.0108
1.3800 0.8888 0.0083
1.4000 0.9022 0.0114
1.4200 0.9155 0.0113
1.4400 0.9288 0.0072
1.4600 0.9422 0.0116
1.4800 0.9556 0.0116
1.5000 0.9690 0.0118
1.5200 0.9823 0.0108
1.5400 0.9956 0.0125
1.5600 1.0089 0.0138
1.5800 1.0222 0.0083
1.6000 1.0355 0.0103
1.6200 1.0488 0.0146
1.6400 1.0622 0.0129
1.6600 1.0755 0.0102
1.6800 1.0889 0.0139
1.7000 1.1022 0.0064
1.7200 1.1155 0.0098
1.7400 1.1289 0.0207
1.7600 1.1423 0.0074
1.7800 1.1556 0.0148
1.8000 1.1689 0.0137
1.8200 1.1823 0.0105
1.8400 1.1956 0.0105
1.8600 1.2089 0.0137
1.8800 1.2222 0.0143
1.9000 1.2355 0.0124
1.9200 1.2489 0.0184
1.9400 1.2623 0.0093
1.9600 1.2756 0.0148
1.9800 1.2889 0.0175
2.0000 1.3022 0.0091
2.0200 1.3156 0.0191
2.0400 1.3289 0.0145
2.0600 1.3422 0.0119
2.0800 1.3555 0.0173
2.1000 1.3689 0.0147
2.1200 1.3822 0.0141
2.1400 1.3955 0.0169
2.1600 1.4088 0.0169
2.1800 1.4222 0.0118
2.2000 1.4356 0.0191
2.2200 1.4489 0.0137
2.2400 1.4622 0.0155
2.2600 1.4756 0.0231
2.2800 1.4889 0.0097
2.3000 1.5023 0.0182
2.3200 1.5156 0.0253
2.3400 1.5289 0.0153
2.3600 1.5423 0.0190
2.3800 1.5556 0.0210
2.4000 1.5689 0.0137
2.4200 1.5822 0.0213
2.4400 1.5955 0.0237
2.4600 1.6088 0.0191
2.4800 1.6222 0.0240
2.5000 1.6355 0.0235
2.5200 1.6488 0.0161
2.5400 1.6622 0.0280
2.5600 1.6756 0.0224
2.5800 1.6889 0.0189
2.6000 1.7023 0.0288
2.6200 1.7156 0.0255
2.6400 1.7290 0.0264
2.6600 1.7423 0.0301
2.6800 1.7556 0.0302
2.7000 1.7689 0.0294
2.7200 1.7822 0.0350
2.7400 1.7956 0.0299
2.7600 1.8089 0.0279
2.7800 1.8222 0.0366
2.8000 1.8355 0.0327
2.8200 1.8489 0.0328
2.8400 1.8622 0.0388
2.8600 1.8755 0.0332
2.8800 1.8889 0.0405
2.9000 1.9022 0.0437
2.9200 1.9156 0.0359
2.9400 1.9289 0.0476
2.9600 1.9423 0.0479
2.9800 1.9556 0.0426
3.0000 1.9689 0.0476
3.0200 1.9823 0.0494
3.0400 1.9956 0.0477
3.0600 2.0089 0.0586
3.0800 2.0222 0.0543
3.1000 2.0356 0.0476
3.1200 2.0489 0.0624
3.1400 2.0622 0.0559
3.1600 2.0755 0.0589
3.1800 2.0888 0.0683
3.2000 2.1022 0.0628
3.2200 2.1155 0.0643
3.2400 2.1289 0.0691
3.2600 2.1422 0.0669
3.2800 2.1556 0.0669
3.3000 2.1690 0.0757
3.3200 2.1823 0.0697
3.3400 2.1956 0.0773
3.3600 2.2089 0.0805
3.3800 2.2223 0.0721
3.4000 2.2356 0.0812
3.4200 2.2489 0.0831
3.4400 2.2622 0.0791
3.4600 2.2756 0.0868
3.4800 2.2889 0.0830
3.5000 2.3022 0.0823
3.5200 2.3155 0.0864
3.5400 2.3289 0.0988
3.5600 2.3422 0.0849
3.5800 2.3555 0.0868
3.6000 2.3689 0.0987
3.6200 2.3822 0.0873
3.6400 2.3956 0.0972
3.6600 2.4090 0.1006
3.6800 2.4223 0.0951
3.7000 2.4356 0.1026
3.7200 2.4489 0.0986
3.7400 2.4623 0.0986
3.7600 2.4756 0.1073
3.7800 2.4889 0.1066
3.8000 2.5022 0.0974
3.8200 2.5155 0.1124
3.8400 2.5289 0.1066
3.8600 2.5422 0.1029
3.8800 2.5555 0.1181
3.9000 2.5688 0.1035
3.9200 2.5822 0.1156
3.9400 2.5955 0.1194
3.9600 2.6089 0.1078
3.9800 2.6222 0.1213
4.0000 2.6356 0.1207
4.0200 2.6489 0.1134
4.0400 2.6622 0.1223
4.0600 2.6755 0.1282
4.0800 2.6889 0.1170
4.1000 2.7023 0.1194
4.1200 2.7156 0.1315
4.1400 2.7289 0.1219
4.1600 2.7423 0.1296
4.1800 2.7556 0.1271
4.2000 2.7689 0.1193
4.2200 2.7822 0.1329
4.2400 2.7955 0.1368
4.2600 2.8088 0.1250
4.2800 2.8222 0.1320
4.3000 2.8355 0.1390
4.3200 2.8488 0.1258
4.3400 2.8622 0.1440
4.3600 2.8756 0.1397
4.3800 2.8890 0.1267
4.4000 2.9023 0.1478
4.4200 2.9156 0.1384
4.4400 2.9290 0.1357
4.4600 2.9423 0.1511
4.4800 2.9556 0.1430
4.5000 2.9689 0.1432
4.5200 2.9822 0.1480
4.5400 2.9955 0.1437
4.5600 3.0089 0.1491
4.5800 3.0222 0.1504
4.6000 3.0355 0.1512
4.6200 3.0488 0.1536
4.6400 3.0622 0.1468
4.6600 3.0755 0.1527
4.6800 3.0888 0.1550
4.7000 3.1022 0.1524
4.7200 3.1156 0.1570
4.7400 3.1290 0.1577
4.7600 3.1423 0.1526
4.7800 3.1556 0.1604
4.8000 3.1690 0.1589
4.8200 3.1823 0.1567
4.8400 3.1956 0.1651
4.8600 3.2089 0.1598
4.8800 3.2222 0.1579
4.9000 3.2355 0.1679
4.9200 3.2488 0.1603
4.9400 3.2621 0.1640
4.9600 3.2755 0.1716
4.9800 3.2888 0.1681
5.0000 3.3022 0.1650
5.0200 3.3156 0.1698
5.0400 3.3289 0.1637
5.0600 3.3422 0.1714
5.0800 3.3556 0.1777
5.1000 3.3689 0.1662
5.1200 3.3823 0.1736
5.1400 3.3956 0.1768
5.1600 3.4089 0.1693
5.1800 3.4223 0.1769
5.2000 3.4356 0.1787
5.2200 3.4489 0.1731
5.2400 3.4622 0.1764
5.2600 3.4756 0.1804
5.2800 3.4889 0.1758
5.3000 3.5022 0.1811
5.3200 3.5155 0.1847
5.3400 3.5288 0.1723
5.3600 3.5422 0.1801
5.3800 3.5555 0.1870
5.4000 3.5689 0.1835
5.4200 3.5822 0.1825
5.4400 3.5956 0.1842
5.4600 3.6090 0.1849
5.4800 3.6223 0.1825
5.5000 3.6356 0.1923
5.5200 3.6489 0.1866
5.5400 3.6623 0.1871
5.5600 3.6756 0.1939
5.5800 3.6889 0.1900
5.6000 3.7022 0.1911
5.6200 3.7155 0.1971
5.6400 3.7289 0.1952
5.6600 3.7422 0.1903
5.6800 3.7555 0.1993
5.7000 3.7689 0.1996
5.7200 3.7822 0.1943
5.7400 3.7955 0.1979
5.7600 3.8089 0.2000
5.7800 3.8222 0.1950
5.8000 3.8356 0.1999
5.8200 3.8489 0.2024
5.8400 3.8623 0.1971
5.8600 3.8756 0.2052
5.8800 3.8889 0.2023
5.9000 3.9023 0.1999
5.9200 3.9156 0.2074
5.9400 3.9289 0.2043
5.9600 3.9422 0.2039
5.9800 3.9555 0.2080
6.0000 3.9689 0.2062
6.0200 3.9822 0.2039
6.0400 3.9955 0.2170
6.0600 4.0088 0.2085
6.0800 4.0222 0.2070
6.1000 4.0355 0.2158
6.1200 4.0489 0.2093
6.1400 4.0622 0.2143
6.1600 4.0756 0.2145
6.1800 4.0889 0.2144
6.2000 4.1023 0.2157
6.2200 4.1156 0.2161
6.2400 4.1289 0.2141
6.2600 4.1423 0.2168
6.2800 4.1556 0.2198
6.3000 4.1689 0.2144
6.3200 4.1822 0.2248
6.3400 4.1956 0.2201
6.3600 4.2089 0.2165
6.3800 4.2222 0.2256
6.4000 4.2355 0.2190
6.4200 4.2488 0.2186
6.4400 4.2621 0.2288
6.4600 4.2755 0.2243
6.4800 4.2888 0.2227
6.5000 4.3022 0.2252
6.5200 4.3156 0.2230
6.5400 4.3290 0.2277
6.5600 4.3423 0.2229
6.5800 4.3556 0.2304
6.6000 4.3690 0.2259
6.6200 4.3823 0.2268
6.6400 4.3956 0.2325
6.6600 4.4089 0.2251
6.6800 4.4222 0.2288
6.7000 4.4355 0.2392
6.7200 4.4489 0.2234
6.7400 4.4622 0.2345
6.7600 4.4755 0.2387
6.7800 4.4888 0.2274
6.8000 4.5022 0.2386
6.8200 4.5156 0.2359
6.8400 4.5289 0.2314
6.8600 4.5422 0.2385
6.8800 4.5556 0.2372
6.9000 4.5689 0.2349
6.9200 4.5823 0.2385
6.9400 4.5956 0.2368
6.9600 4.6089 0.2394
6.9800 4.6222 0.2435
7.0000 4.6356 0.2321
7.0200 4.6489 0.2434
7.0400 4.6622 0.2449
7.0600 4.6755 0.2328
7.0800 4.6889 0.2485
7.1000 4.7022 0.2457
7.1200 4.7155 0.2379
7.1400 4.7288 0.2511
7.1600 4.7422 0.2456
7.1800 4.7556 0.2375
7.2000 4.7689 0.2532
7.2200 4.7822 0.2438
7.2400 4.7956 0.2437
7.2600 4.8090 0.2530
7.2800 4.8223 0.2484
7.3000 4.8356 0.2495
7.3200 4.8489 0.2567
7.3400 4.8623 0.2504
7.3600 4.8756 0.2516
7.3800 4.8889 0.2507
7.4000 4.9022 0.2574
7.4200 4.9155 0.2538
7.4400 4.9289 0.2560
7.4600 4.9422 0.2554
7.4800 4.9555 0.2568
7.5000 4.9688 0.2532
7.5200 4.9822 0.2616
7.5400 4.9955 0.2519
7.5600 5.0089 0.2573
7.5800 5.0222 0.2649
7.6000 5.0356 0.2542
7.6200 5.0489 0.2593
7.6400 5.0623 0.2675
7.6600 5.0756 0.2511
7.6800 5.0889 0.2634
7.7000 5.1023 0.2708
7.7200 5.1156 0.2528
7.7400 5.1289 0.2669
7.7600 5.1422 0.2716
7.7800 5.1555 0.2560
7.8000 5.1689 0.2710
7.8200 5.1822 0.2741
7.8400 5.1955 0.2530
7.8600 5.2088 0.2770
7.8800 5.2222 0.2719
7.9000 5.2355 0.2544
7.9200 5.2489 0.2779
7.9400 5.2622 0.2759
7.9600 5.2755 0.2585
7.9800 5.2889 0.2797
8.0000 5.3023 0.2692
8.0200 5.3156 0.2639
8.0400 5.3289 0.2829
8.0600 5.3423 0.2746
8.0800 5.3556 0.2655
8.1000 5.3690 0.2843
8.1200 5.3823 0.2706
8.1400 5.3956 0.2683
8.1600 5.4089 0.2835
8.1800 5.4222 0.2697
8.2000 5.4355 0.2754
8.2200 5.4488 0.2824
8.2400 5.4621 0.2713
8.2600 5.4755 0.2796
8.2800 5.4888 0.2829
8.3000 5.5022 0.2752
8.3200 5.5156 0.2800
8.3400 5.5290 0.2853
8.3600 5.5423 0.2760
8.3800 5.5556 0.2774
8.4000 5.5689 0.2843
8.4200 5.5823 0.2825
8.4400 5.5956 0.2800
8.4600 5.6089 0.2859
8.4800 5.6222 0.2915
8.5000 5.6355 0.2822
8.5200 5.6489 0.2848
8.5400 5.6622 0.2913
8.5600 5.6755 0.2839
8.5800 5.6888 0.2888
8.6000 5.7022 0.2924
8.6200 5.7155 0.2810
8.6400 5.7288 0.2877
8.6600 5.7422 0.2945
8.6800 5.7555 0.2870
8.7000 5.7689 0.2890
8.7200 5.7823 0.2940
8.7400 5.7956 0.2837
8.7600 5.8089 0.2933
8.7800 5.8223 0.2929
8.8000 5.8356 0.2853
8.8200 5.8489 0.2959
8.8400 5.8622 0.2992
8.8600 5.8755 0.2850
8.8800 5.8888 0.3009
8.9000 5.9022 0.2983
8.9200 5.9155 0.2900
8.9400 5.9288 0.2990
8.9600 5.9422 0.3014
8.9800 5.9556 0.2887
9.0000 5.9689 0.2953
9.0200 5.9823 0.3040
9.0400 5.9956 0.2916
9.0600 6.0089 0.3025
9.0800 6.0223 0.3087
9.1000 6.0356 0.2931
9.1200 6.0489 0.3012
9.1400 6.0622 0.3085
9.1600 6.0756 0.2921
9.1800 6.0889 0.3054
9.2000 6.1023 0.3097
9.2200 6.1156 0.2942
9.2400 6.1289 0.3046
9.2600 6.1423 0.3075
9.2800 6.1556 0.2953
9.3000 6.1689 0.3090
9.3200 6.1822 0.3088
9.3400 6.1955 0.2971
9.3600 6.2088 0.3061
9.3800 6.2222 0.3130
9.4000 6.2355 0.3012
9.4200 6.2489 0.3081
9.4400 6.2623 0.3132
9.4600 6.2756 0.2977
9.4800 6.2889 0.3126
9.5000 6.3022 0.3117
9.5200 6.3156 0.3009
9.5400 6.3289 0.3159
9.5600 6.3422 0.3087
9.5800 6.3556 0.3106
9.6000 6.3689 0.3138
9.6200 6.3823 0.3130
9.6400 6.3956 0.3094
9.6600 6.4088 0.3132
9.6800 6.4222 0.3193
9.7000 6.4355 0.3092
9.7200 6.4489 0.3096
9.7400 6.4622 0.3189
9.7600 6.4755 0.3149
9.7800 6.4889 0.3126
9.8000 6.5023 0.3165
9.8200 6.5156 0.3164
9.8400 6.5289 0.3121
9.8600 6.5423 0.3223
9.8800 6.5556 0.3128
9.9000 6.5690 0.3193
9.9200 6.5822 0.3262
9.9400 6.5955 0.3128
9.9600 6.6089 0.3235
9.9800 6.6222 0.3248
10.0000 6.6355 0.3147
10.0200 6.6488 0.3209
10.0400 6.6622 0.3291
10.0600 6.6756 0.3144
10.0800 6.6889 0.3203
10.1000 6.7022 0.3271
10.1200 6.7155 0.3183
10.1400 6.7289 0.3232
10.1600 6.7422 0.3246
10.1800 6.7556 0.3222
10.2000 6.7689 0.3292
10.2200 6.7823 0.3278
10.2400 6.7956 0.3240
10.2600 6.8090 0.3296
10.2800 6.8223 0.3298
10.3000 6.8356 0.3250
10.3200 6.8489 0.3322
10.3400 6.8622 0.3257
10.3600 6.8755 0.3282
10.3800 6.8888 0.3329
10.4000 6.9022 0.3294
10.4200 6.9155 0.3273
10.4400 6.9288 0.3347
10.4600 6.9422 0.3296
10.4800 6.9555 0.3291
10.5000 6.9689 0.3334
10.5200 6.9823 0.3355
10.5400 6.9956 0.3271
10.5600 7.0089 0.3376
10.5800 7.0222 0.3375
10.6000 7.0356 0.3304
10.6200 7.0489 0.3382
10.6400 7.0622 0.3355
10.6600 7.0755 0.3357
10.6800 7.0889 0.3373
10.7000 7.1022 0.3374
10.7200 7.1156 0.3348
10.7400 7.1289 0.3385
10.7600 7.1422 0.3397
10.7800 7.1555 0.3371
10.8000 7.1689 0.3409
10.8200 7.1822 0.3402
10.8400 7.1955 0.3347
10.8600 7.2089 0.3424
10.8800 7.2223 0.3410
10.9000 7.2356 0.3378
10.9200 7.2489 0.3443
10.9400 7.2622 0.3446
10.9600 7.2756 0.3409
10.9800 7.2889 0.3440
11.0000 7.3022 0.3437
11.0200 7.3155 0.3412
11.0400 7.3289 0.3471
11.0600 7.3422 0.3427
11.0800 7.3555 0.3402
11.1000 7.3688 0.3477
11.1200 7.3822 0.3455
11.1400 7.3955 0.3447
11.1600 7.4089 0.3485
11.1800 7.4222 0.3465
11.2000 7.4355 0.3477
11.2200 7.4489 0.3513
11.2400 7.4622 0.3425
11.2600 7.4755 0.3520
11.2800 7.4889 0.3480
11.3000 7.5022 0.3429
11.3200 7.5156 0.3535
11.3400 7.5289 0.3505
11.3600 7.5422 0.3443
11.3800 7.5556 0.3556
11.4000 7.5689 0.3544
11.4200 7.5823 0.3420
11.4400 7.5956 0.3571
11.4600 7.6089 0.3525
11.4800 7.6222 0.3448
11.5000 7.6355 0.3597
11.5200 7.6488 0.3520
11.5400 7.6622 0.3450
11.5600 7.6755 0.3585
11.5800 7.6889 0.3589
11.6000 7.7023 0.3478
11.6200 7.7157 0.3544
11.6400 7.7290 0.3586
11.6600 7.7423 0.3507
11.6800 7.7556 0.3547
11.7000 7.7690 0.3593
11.7200 7.7823 0.3466
11.7400 7.7956 0.3580
11.7600 7.8089 0.3657
11.7800 7.8222 0.3500
11.8000 7.8355 0.3614
11.8200 7.8488 0.3654
11.8400 7.8621 0.3503
11.8600 7.8755 0.3599
11.8800 7.8889 0.3673
11.9000 7.9022 0.3522
11.9200 7.9155 0.3623
11.9400 7.9289 0.3619
11.9600 7.9423 0.3509
11.9800 7.9556 0.3654
12.0000 7.9690 0.3631
12.0200 7.9823 0.3545
12.0400 7.9956 0.3669
12.0600 8.0090 0.3647
12.0800 8.0223 0.3576
12.1000 8.0355 0.3676
12.1200 8.0488 0.3669
12.1400 8.0622 0.3545
12.1600 8.0755 0.3670
12.1800 8.0888 0.3663
12.2000 8.1021 0.3607
12.2200 8.1155 0.3659
12.2400 8.1289 0.3697
12.2600 8.1422 0.3598
12.2800 8.1556 0.3669
12.3000 8.1689 0.3692
12.3200 8.1823 0.3637
12.3400 8.1956 0.3687
12.3600 8.2089 0.3657
12.3800 8.2222 0.3645
12.4000 8.2356 0.3686
12.4200 8.2489 0.3667
12.4400 8.2623 0.3663
12.4600 8.2756 0.3743
12.4800 8.2889 0.3674
12.5000 8.3022 0.3681
12.5200 8.3156 0.3715
12.5400 8.3289 0.3657
12.5600 8.3422 0.3683
12.5800 8.3555 0.3733
12.6000 8.3689 0.3669
12.6200 8.3822 0.3659
12.6400 8.3955 0.3737
12.6600 8.4089 0.3708
12.6800 8.4223 0.3700
12.7000 8.4356 0.3723
12.7200 8.4489 0.3680
12.7400 8.4622 0.3713
12.7600 8.4756 0.3741
12.7800 8.4889 0.3740
12.8000 8.5022 0.3718
12.8200 8.5155 0.3750
12.8400 8.5288 0.3767
12.8600 8.5422 0.3681
12.8800 8.5555 0.3765
12.9000 8.5689 0.3743
12.9200 8.5822 0.3707
12.9400 8.5955 0.3781
12.9600 8.6089 0.3775
12.9800 8.6222 0.3721
13.0000 8.6355 0.3781
13.0200 8.6489 0.3796
13.0400 8.6622 0.3667
13.0600 8.6756 0.3833
13.0800 8.6889 0.3790
13.1000 8.7022 0.3728
13.1200 8.7156 0.3855
13.1400 8.7290 0.3758
13.1600 8.7423 0.3753
13.1800 8.7556 0.3865
13.2000 8.7689 0.3792
13.2200 8.7822 0.3752
13.2400 8.7956 0.3881
13.2600 8.8089 0.3811
13.2800 8.8222 0.3757
13.3000 8.8355 0.3882
13.3200 8.8489 0.3781
13.3400 8.8622 0.3770
13.3600 8.8755 0.3902
13.3800 8.8889 0.3771
13.4000 8.9023 0.3836
13.4200 8.9156 0.3874
13.4400 8.9289 0.3811
13.4600 8.9422 0.3845
13.4800 8.9556 0.3924
13.5000 8.9689 0.3811
13.5200 8.9823 0.3902
13.5400 8.9956 0.3900
13.5600 9.0089 0.3822
13.5800 9.0222 0.3899
13.6000 9.0356 0.3905
13.6200 9.0489 0.3863
13.6400 9.0621 0.3880
13.6600 9.0755 0.3947
13.6800 9.0888 0.3851
13.7000 9.1022 0.3888
13.7200 9.1155 0.3919
13.7400 9.1288 0.3906
13.7600 9.1422 0.3920
13.7800 9.1556 0.3824
13.8000 9.1690 0.3940
13.8200 9.1823 0.3872
13.8400 9.1956 0.3918
13.8600 9.2090 0.3951
13.8800 9.2223 0.3881
13.9000 9.2355 0.3922
13.9200 9.2488 0.3913
13.9400 9.2622 0.3889
13.9600 9.2755 0.3973
13.9800 9.2888 0.3894
14.0000 9.3022 0.3884
14.0200 9.3155 0.3951
14.0400 9.3289 0.3925
14.0600 9.3422 0.3906
14.0800 9.3556 0.3963
14.1000 9.3689 0.3940
14.1200 9.3823 0.3887
14.1400 9.3956 0.3929
14.1600 9.4089 0.3934
14.1800 9.4222 0.3926
14.2000 9.4356 0.3977
14.2200 9.4489 0.3941
14.2400 9.4623 0.3888
14.2600 9.4755 0.3973
14.2800 9.4888 0.3968
14.3000 9.5022 0.3953
14.3200 9.5155 0.3981
14.3400 9.5289 0.3966
14.3600 9.5422 0.3940
14.3800 9.5555 0.3988
14.4000 9.5689 0.3999
14.4200 9.5822 0.3956
14.4400 9.5956 0.3960
14.4600 9.6089 0.4034
14.4800 9.6223 0.3946
14.5000 9.6356 0.3994
14.5200 9.6489 0.4004
14.5400 9.6622 0.3965
14.5600 9.6755 0.4012
14.5800 9.6889 0.4032
14.6000 9.7023 0.3994
14.6200 9.7156 0.4024
14.6400 9.7289 0.4036
14.6600 9.7422 0.4022
14.6800 9.7556 0.4012
14.7000 9.7689 0.4037
14.7200 9.7822 0.4019
14.7400 9.7955 0.4044
14.7600 9.8089 0.4041
14.7800 9.8222 0.3985
14.8000 9.8356 0.4078
14.8200 9.8489 0.4046
14.8400 9.8622 0.4023
14.8600 9.8756 0.4034
14.8800 9.8890 0.4050
14.9000 9.9023 0.4026
14.9200 9.9156 0.4079
14.9400 9.9289 0.4070
14.9600 9.9423 0.4065
14.9800 9.9555 0.4114
15.0000 9.9689 0.4042
15.0200 9.9822 0.4080
15.0400 9.9956 0.4136
15.0600 10.0089 0.4016
15.0800 10.0222 0.4087
15.1000 10.0355 0.4127
15.1200 10.0489 0.4053
15.1400 10.0622 0.4116
15.1600 10.0755 0.4147
15.1800 10.0889 0.4085
15.2000 10.1022 0.4149
15.2200 10.1156 0.4114
15.2400 10.1289 0.4032
15.2600 10.1422 0.4171
15.2800 10.1556 0.4118
15.3000 10.1690 0.4062
15.3200 10.1823 0.4137
15.3400 10.1956 0.4155
15.3600 10.2089 0.4124
15.3800 10.2222 0.4111
15.4000 10.2356 0.4190
15.4200 10.2489 0.4123
15.4400 10.2622 0.4166
15.4600 10.2755 0.4172
15.4800 10.2888 0.4086
15.5000 10.3022 0.4196
15.5200 10.3155 0.4177
15.5400 10.3289 0.4130
15.5600 10.3423 0.4171
15.5800 10.3556 0.4192
15.6000 10.3690 0.4183
15.6200 10.3823 0.4183
15.6400 10.3956 0.4192
15.6600 10.4090 0.4174
15.6800 10.4223 0.4180
15.7000 10.4356 0.4217
15.7200 10.4489 0.4237
15.7400 10.4622 0.4193
15.7600 10.4756 0.4218
15.7800 10.4889 0.4204
15.8000 10.5022 0.4189
15.8200 10.5155 0.4234
15.8400 10.5288 0.4223
15.8600 10.5422 0.4161
15.8800 10.5555 0.4236
15.9000 10.5689 0.4220
15.9200 10.5822 0.4219
15.9400 10.5956 0.4257
15.9600 10.6090 0.4181
15.9800 10.6223 0.4230
16.0000 10.6356 0.4240
16.0200 10.6490 0.4232
16.0400 10.6623 0.4278
16.0600 10.6756 0.4221
16.0800 10.6889 0.4241
16.1000 10.7022 0.4307
16.1200 10.7155 0.4226
16.1400 10.7289 0.4221
16.1600 10.7422 0.4297
16.1800 10.7555 0.4257
16.2000 10.7689 0.4231
16.2200 10.7823 0.4277
16.2400 10.7956 0.4249
16.2600 10.8089 0.4343
16.2800 10.8222 0.4267
16.3000 10.8356 0.4207
16.3200 10.8489 0.4331
16.3400 10.8622 0.4280
16.3600 10.8755 0.4250
16.3800 10.8889 0.4291
16.4000 10.9023 0.4321
16.4200 10.9156 0.4299
16.4400 10.9289 0.4274
16.4600 10.9422 0.4304
16.4800 10.9556 0.4333
16.5000 10.9689 0.4287
16.5200 10.9822 0.4295
16.5400 10.9955 0.4301
16.5600 11.0089 0.4322
16.5800 11.0222 0.4302
16.6000 11.0355 0.4353
16.6200 11.0488 0.4300
16.6400 11.0622 0.4369
16.6600 11.0756 0.4348
16.6800 11.0889 0.4294
16.7000 11.1022 0.4359
16.7200 11.1156 0.4311
16.7400 11.1289 0.4300
16.7600 11.1423 0.4412
16.7800 11.1556 0.4301
16.8000 11.1689 0.4294
16.8200 11.1822 0.4423
16.8400 11.1956 0.4338
16.8600 11.2089 0.4301
16.8800 11.2222 0.4480
16.9000 11.2355 0.4329
16.9200 11.2488 0.4320
16.9400 11.2622 0.4453
16.9600 11.2755 0.4282
16.9800 11.2888 0.4353
17.0000 11.3022 0.4512
17.0200 11.3156 0.4261
17.0400 11.3289 0.4359
17.0600 11.3423 0.4446
17.0800 11.3556 0.4254
17.1000 11.3690 0.4400
17.1200 11.3823 0.4458
17.1400 11.3956 0.4229
17.1600 11.4089 0.4434
17.1800 11.4222 0.4467
17.2000 11.4355 0.4304
17.2200 11.4489 0.4433
17.2400 11.4622 0.4442
17.2600 11.4755 0.4335
17.2800 11.4889 0.4439
17.3000 11.5022 0.4423
17.3200 11.5156 0.4361
17.3400 11.5289 0.4410
17.3600 11.5422 0.4434
17.3800 11.5556 0.4369
17.4000 11.5689 0.4409
17.4200 11.5823 0.4481
17.4400 11.5956 0.4383
17.4600 11.6089 0.4389
17.4800 11.6223 0.4466
17.5000 11.6356 0.4454
17.5200 11.6489 0.4399
17.5400 11.6622 0.4530
17.5600 11.6756 0.4416
17.5800 11.6889 0.4396
17.6000 11.7022 0.4548
17.6200 11.7155 0.4366
17.6400 11.7288 0.4468
17.6600 11.7422 0.4544
17.6800 11.7555 0.4350
17.7000 11.7689 0.4486
17.7200 11.7822 0.4531
17.7400 11.7956 0.4364
17.7600 11.8090 0.4503
17.7800 11.8223 0.4534
17.8000 11.8356 0.4355
17.8200 11.8489 0.4589
17.8400 11.8623 0.4482
17.8600 11.8756 0.4357
17.8800 11.8889 0.4601
17.9000 11.9022 0.4491
17.9200 11.9155 0.4361
17.9400 11.9289 0.4597
17.9600 11.9422 0.4490
17.9800 11.9555 0.4418
18.0000 11.9689 0.4559
18.0200 11.9822 0.4518
18.0400 11.9955 0.4452
18.0600 12.0088 0.4609
18.0800 12.0222 0.4535
18.1000 12.0356 0.4442
18.1200 12.0490 0.4598
18.1400 12.0623 0.4512
18.1600 12.0756 0.4462
18.1800 12.0889 0.4588
18.2000 12.1023 0.4554
18.2200 12.1156 0.4476
18.2400 12.1289 0.4605
18.2600 12.1422 0.4527
18.2800 12.1555 0.4520
18.3000 12.1689 0.4603
18.3200 12.1822 0.4491
18.3400 12.1955 0.4578
18.3600 12.2088 0.4578
18.3800 12.2222 0.4478
18.4000 12.2355 0.4609
18.4200 12.2489 0.4579
18.4400 12.2622 0.4573
18.4600 12.2756 0.4587
18.4800 12.2889 0.4555
18.5000 12.3022 0.4617
18.5200 12.3155 0.4606
18.5400 12.3289 0.4556
18.5600 12.3422 0.4572
18.5800 12.3556 0.4617
18.6000 12.3689 0.4575
18.6200 12.3823 0.4640
18.6400 12.3956 0.4625
18.6600 12.4089 0.4582
18.6800 12.4222 0.4660
18.7000 12.4355 0.4580
18.7200 12.4488 0.4654
18.7400 12.4622 0.4636
18.7600 12.4755 0.4605
18.7800 12.4888 0.4622
18.8000 12.5022 0.4664
18.8200 12.5156 0.4668
18.8400 12.5290 0.4609
18.8600 12.5423 0.4661
18.8800 12.5556 0.4643
18.9000 12.5689 0.4652
18.9200 12.5823 0.4660
18.9400 12.5956 0.4634
18.9600 12.6089 0.4719
18.9800 12.6222 0.4646
19.0000 12.6355 0.4637
19.0200 12.6489 0.4678
19.0400 12.6622 0.4674
19.0600 12.6755 0.4651
19.0800 12.6888 0.4702
19.1000 12.7022 0.4718
19.1200 12.7155 0.4606
19.1400 12.7289 0.4712
19.1600 12.7422 0.4734
19.1800 12.7556 0.4593
19.2000 12.7690 0.4729
19.2200 12.7823 0.4715
19.2400 12.7956 0.4625
19.2600 12.8090 0.4767
19.2800 12.8223 0.4733
19.3000 12.8356 0.4688
19.3200 12.8489 0.4752
19.3400 12.8622 0.4704
19.3600 12.8755 0.4709
19.3800 12.8889 0.4779
19.4000 12.9022 0.4670
19.4200 12.9155 0.4748
19.4400 12.9288 0.4801
19.4600 12.9422 0.4668
19.4800 12.9556 0.4736
19.5000 12.9689 0.4792
19.5200 12.9822 0.4704
19.5400 12.9956 0.4746
19.5600 13.0089 0.4733
19.5800 13.0223 0.4746
19.6000 13.0356 0.4720
19.6200 13.0489 0.4715
19.6400 13.0623 0.4733
19.6600 13.0756 0.4732
19.6800 13.0889 0.4711
19.7000 13.1022 0.4787
19.7200 13.1156 0.4798
19.7400 13.1289 0.4703
19.7600 13.1422 0.4787
19.7800 13.1555 0.4736
19.8000 13.1688 0.4751
19.8200 13.1822 0.4837
19.8400 13.1955 0.4719
19.8600 13.2089 0.4752
19.8800 13.2222 0.4811
19.9000 13.2356 0.4726
19.9200 13.2489 0.4772
19.9400 13.2623 0.4788
19.9600 13.2756 0.4755
19.9800 13.2889 0.4783
20.0000 13.3023 0.4775
20.0200 13.3156 0.4764
20.0400 13.3289 0.4830
20.0600 13.3422 0.4798
20.0800 13.3555 0.4787
20.1000 13.3689 0.4813
20.1200 13.3822 0.4771
20.1400 13.3955 0.4793
20.1600 13.4088 0.4846
20.1800 13.4222 0.4728
20.2000 13.4355 0.4852
20.2200 13.4488 0.4850
20.2400 13.4622 0.4746
20.2600 13.4755 0.4864
20.2800 13.4889 0.4848
20.3000 13.5023 0.4707
20.3200 13.5156 0.4913
20.3400 13.5289 0.4855
20.3600 13.5423 0.4723
20.3800 13.5556 0.4894
20.4000 13.5689 0.4860
20.4200 13.5822 0.4753
20.4400 13.5956 0.4926
20.4600 13.6089 0.4870
20.4800 13.6222 0.4757
20.5000 13.6355 0.4933
20.5200 13.6488 0.4861
20.5400 13.6622 0.4791
20.5600 13.6755 0.4904
20.5800 13.6888 0.4893
20.6000 13.7022 0.4835
20.6200 13.7156 0.4916
20.6400 13.7289 0.4793
20.6600 13.7423 0.4844
20.6800 13.7556 0.4979
20.7000 13.7689 0.4791
20.7200 13.7823 0.4870
20.7400 13.7956 0.4927
20.7600 13.8089 0.4884
20.7800 13.8222 0.4910
20.8000 13.8356 0.4928
20.8200 13.8489 0.4908
20.8400 13.8622 0.4884
20.8600 13.8755 0.4952
20.8800 13.8888 0.4870
20.9000 13.9022 0.4934
20.9200 13.9155 0.4923
20.9400 13.9288 0.4930
20.9600 13.9422 0.4906
20.9800 13.9555 0.4955
21.0000 13.9690 0.4922
21.0200 13.9823 0.4894
21.0400 13.9957 0.4943
21.0600 14.0090 0.4954
21.0800 14.0223 0.4933
21.1000 14.0356 0.4942
21.1200 14.0489 0.4916
21.1400 14.0622 0.4980
21.1600 14.0755 0.4949
21.1800 14.0888 0.5013
21.2000 14.1022 0.4922
21.2200 14.1155 0.4950
21.2400 14.1288 0.5012
21.2600 14.1422 0.4910
21.2800 14.1556 0.4951
21.3000 14.1689 0.5015
21.3200 14.1822 0.4929
21.3400 14.1956 0.4956
21.3600 14.2090 0.5022
21.3800 14.2223 0.4924
21.4000 14.2356 0.4994
21.4200 14.2489 0.5032
21.4400 14.2623 0.4948
21.4600 14.2756 0.5006
21.4800 14.2889 0.5017
21.5000 14.3022 0.4994
21.5200 14.3155 0.5023
21.5400 14.3289 0.5023
21.5600 14.3422 0.5008
21.5800 14.3555 0.5002
21.6000 14.3688 0.5025
21.6200 14.3822 0.4988
21.6400 14.3955 0.5014
21.6600 14.4089 0.5047
21.6800 14.4222 0.5002
21.7000 14.4356 0.5014
21.7200 14.4489 0.5129
21.7400 14.4623 0.4998
21.7600 14.4756 0.5024
21.7800 14.4889 0.5112
21.8000 14.5022 0.5011
21.8200 14.5156 0.5014
21.8400 14.5289 0.5086
21.8600 14.5422 0.5034
21.8800 14.5555 0.5070
21.9000 14.5689 0.5089
21.9200 14.5822 0.5028
21.9400 14.5955 0.5060
21.9600 14.6088 0.5141
21.9800 14.6222 0.4979
22.0000 14.6355 0.5093
22.0200 14.6488 0.5139
22.0400 14.6622 0.4965
22.0600 14.6755 0.5172
22.0800 14.6889 0.5089
22.1000 14.7023 0.5015
22.1200 14.7156 0.5149
22.1400 14.7289 0.5089
22.1600 14.7423 0.5069
22.1800 14.7556 0.5138
22.2000 14.7689 0.5101
22.2200 14.7822 0.5115
22.2400 14.7955 0.5169
22.2600 14.8089 0.5118
22.2800 14.8222 0.5124
22.3000 14.8356 0.5172
22.3200 14.8489 0.5122
22.3400 14.8622 0.5154
22.3600 14.8755 0.5156
22.3800 14.8889 0.5088
22.4000 14.9022 0.5154
22.4200 14.9155 0.5197
22.4400 14.9289 0.5110
22.4600 14.9423 0.5150
22.4800 14.9556 0.5246
22.5000 14.9689 0.5096
22.5200 14.9823 0.5187
22.5400 14.9956 0.5202
22.5600 15.0090 0.5054
22.5800 15.0223 0.5253
22.6000 15.0356 0.5174
22.6200 15.0489 0.5113
22.6400 15.0622 0.5247
22.6600 15.0755 0.5177
22.6800 15.0888 0.5163
22.7000 15.1022 0.5264
22.7200 15.1155 0.5160
22.7400 15.1289 0.5156
22.7600 15.1422 0.5281
22.7800 15.1556 0.5144
22.8000 15.1689 0.5178
22.8200 15.1823 0.5307
22.8400 15.1956 0.5117
22.8600 15.2089 0.5196
22.8800 15.2223 0.5297
22.9000 15.2356 0.5148
22.9200 15.2490 0.5228
22.9400 15.2622 0.5284
22.9600 15.2755 0.5230
22.9800 15.2889 0.5193
23.0000 15.3022 0.5256
23.0200 15.3155 0.5211
23.0400 15.3288 0.5250
23.0600 15.3422 0.5283
23.0800 15.3555 0.5231
23.1000 15.3689 0.5261
23.1200 15.3822 0.5244
23.1400 15.3955 0.5256
23.1600 15.4089 0.5248
23.1800 15.4223 0.5271
23.2000 15.4356 0.5265
23.2200 15.4489 0.5250
23.2400 15.4623 0.5329
23.2600 15.4756 0.5230
23.2800 15.4889 0.5294
23.3000 15.5022 0.5314
23.3200 15.5155 0.5262
23.3400 15.5288 0.5260
23.3600 15.5422 0.5337
23.3800 15.5555 0.5266
23.4000 15.5688 0.5247
23.4200 15.5822 0.5337
23.4400 15.5956 0.5282
23.4600 15.6089 0.5262
23.4800 15.6222 0.5378
23.5000 15.6356 0.5299
23.5200 15.6489 0.5264
23.5400 15.6623 0.5335
23.5600 15.6756 0.5273
23.5800 15.6889 0.5336
23.6000 15.7022 0.5375
23.6200 15.7156 0.5304
23.6400 15.7289 0.5322
23.6600 15.7423 0.5358
23.6800 15.7556 0.5310
23.7000 15.7689 0.5292
23.7200 15.7823 0.5429
23.7400 15.7956 0.5289
23.7600 15.8089 0.5304
23.7800 15.8222 0.5404
23.8000 15.8355 0.5288
23.8200 15.8489 0.5339
23.8400 15.8622 0.5380
23.8600 15.8755 0.5332
23.8800 15.8889 0.5385
23.9000 15.9023 0.5391
23.9200 15.9156 0.5339
23.9400 15.9289 0.5396
23.9600 15.9422 0.5391
23.9800 15.9556 0.5339
24.0000 15.9690 0.5370
24.0200 15.9823 0.5435
24.0400 15.9956 0.5367
24.0600 16.0089 0.5377
24.0800 16.0223 0.5381
24.1000 16.0356 0.5379
24.1200 16.0489 0.5370
24.1400 16.0622 0.5374
24.1600 16.0755 0.5379
24.1800 16.0888 0.5388
24.2000 16.1022 0.5382
24.2200 16.1155 0.5432
24.2400 16.1289 0.5339
24.2600 16.1423 0.5388
24.2800 16.1556 0.5407
24.3000 16.1689 0.5338
24.3200 16.1822 0.5402
24.3400 16.1956 0.5420
24.3600 16.2089 0.5351
24.3800 16.2222 0.5415
24.4000 16.2355 0.5449
24.4200 16.2489 0.5377
24.4400 16.2622 0.5415
24.4600 16.2756 0.5439
24.4800 16.2889 0.5366
24.5000 16.3022 0.5432
24.5200 16.3155 0.5453
24.5400 16.3289 0.5353
24.5600 16.3422 0.5461
24.5800 16.3555 0.5472
24.6000 16.3689 0.5359
24.6200 16.3822 0.5470
24.6400 16.3956 0.5479
24.6600 16.4089 0.5378
24.6800 16.4223 0.5486
24.7000 16.4356 0.5484
24.7200 16.4490 0.5375
24.7400 16.4622 0.5512
24.7600 16.4755 0.5520
24.7800 16.4889 0.5341
24.8000 16.5022 0.5546
24.8200 16.5155 0.5470
24.8400 16.5288 0.5389
24.8600 16.5421 0.5524
24.8800 16.5555 0.5463
24.9000 16.5689 0.5420
24.9200 16.5822 0.5522
24.9400 16.5955 0.5455
24.9600 16.6089 0.5467
24.9800 16.6223 0.5511
25.0000 16.6356 0.5444
25.0200 16.6489 0.5478
25.0400 16.6623 0.5506
25.0600 16.6756 0.5454
25.0800 16.6890 0.5516
25.1000 16.7023 0.5491
25.1200 16.7156 0.5511
25.1400 16.7289 0.5542
25.1600 16.7422 0.5487
25.1800 16.7555 0.5546
25.2000 16.7689 0.5522
25.2200 16.7822 0.5517
25.2400 16.7955 0.5540
25.2600 16.8089 0.5488
25.2800 16.8222 0.5514
25.3000 16.8355 0.5525
25.3200 16.8489 0.5542
25.3400 16.8623 0.5516
25.3600 16.8756 0.5543
25.3800 16.8889 0.5545
25.4000 16.9023 0.5530
25.4200 16.9156 0.5572
25.4400 16.9290 0.5530
25.4600 16.9423 0.5599
25.4800 16.9555 0.5597
25.5000 16.9689 0.5521
25.5200 16.9822 0.5549
25.5400 16.9955 0.5594
25.5600 17.0088 0.5583
25.5800 17.0221 0.5578
25.6000 17.0355 0.5613
25.6200 17.0489 0.5554
25.6400 17.0622 0.5585
25.6600 17.0755 0.5611
25.6800 17.0889 0.5597
25.7000 17.1022 0.5622
25.7200 17.1156 0.5551
25.7400 17.1289 0.5604
25.7600 17.1422 0.5671
25.7800 17.1556 0.5553
25.8000 17.1689 0.5582
25.8200 17.1823 0.5685
25.8400 17.1956 0.5583
25.8600 17.2089 0.5607
25.8800 17.2223 0.5687
25.9000 17.2356 0.5586
25.9200 17.2489 0.5610
25.9400 17.2622 0.5687
25.9600 17.2755 0.5593
25.9800 17.2888 0.5666
26.0000 17.3021 0.5674
26.0200 17.3155 0.5618
26.0400 17.3289 0.5680
26.0600 17.3423 0.5658
26.0800 17.3556 0.5617
26.1000 17.3689 0.5727
26.1200 17.3823 0.5709
26.1400 17.3956 0.5636
26.1600 17.4090 0.5683
26.1800 17.4223 0.5716
26.2000 17.4356 0.5625
26.2200 17.4489 0.5715
26.2400 17.4622 0.5703
26.2600 17.4756 0.5626
26.2800 17.4888 0.5780
26.3000 17.5021 0.5687
26.3200 17.5155 0.5676
26.3400 17.5288 0.5769
26.3600 17.5422 0.5679
26.3800 17.5555 0.5698
26.4000 17.5689 0.5740
26.4200 17.5823 0.5681
26.4400 17.5956 0.5722
26.4600 17.6090 0.5773
26.4800 17.6223 0.5686
26.5000 17.6356 0.5743
26.5200 17.6490 0.5757
26.5400 17.6623 0.5705
26.5600 17.6755 0.5786
26.5800 17.6889 0.5779
26.6000 17.7022 0.5729
26.6200 17.7155 0.5762
26.6400 17.7288 0.5755
26.6600 17.7422 0.5778
26.6800 17.7555 0.5780
26.7000 17.7689 0.5720
26.7200 17.7822 0.5769
26.7400 17.7956 0.5786
26.7600 17.8089 0.5781
26.7800 17.8223 0.5735
26.8000 17.8356 0.5763
26.8200 17.8489 0.5790
26.8400 17.8622 0.5787
26.8600 17.8756 0.5760
26.8800 17.8889 0.5824
26.9000 17.9023 0.5789
26.9200 17.9156 0.5757
26.9400 17.9289 0.5820
26.9600 17.9422 0.5783
26.9800 17.9556 0.5725
27.0000 17.9688 0.5855
27.0200 17.9821 0.5810
27.0400 17.9955 0.5772
27.0600 18.0089 0.5867
27.0800 18.0222 0.5774
27.1000 18.0355 0.5770
27.1200 18.0489 0.5873
27.1400 18.0623 0.5830
27.1600 18.0756 0.5722
27.1800 18.0890 0.5932
27.2000 18.1023 0.5789
27.2200 18.1156 0.5795
27.2400 18.1289 0.5906
27.2600 18.1422 0.5771
27.2800 18.1555 0.5879
27.3000 18.1688 0.5885
27.3200 18.1822 0.5832
27.3400 18.1956 0.5842
27.3600 18.2089 0.5906
27.3800 18.2222 0.5884
27.4000 18.2355 0.5839
27.4200 18.2488 0.5900
27.4400 18.2622 0.5840
27.4600 18.2755 0.5874
27.4800 18.2889 0.5894
27.5000 18.3022 0.5893
27.5200 18.3156 0.5867
27.5400 18.3289 0.5876
27.5600 18.3422 0.5949
27.5800 18.3556 0.5842
27.6000 18.3690 0.5893
27.6200 18.3823 0.5924
27.6400 18.3956 0.5836
27.6600 18.4089 0.5983
27.6800 18.4222 0.5942
27.7000 18.4356 0.5833
27.7200 18.4489 0.5972
27.7400 18.4622 0.5966
27.7600 18.4755 0.5841
27.7800 18.4888 0.5977
27.8000 18.5022 0.5945
27.8200 18.5155 0.5856
27.8400 18.5289 0.6046
27.8600 18.5422 0.5890
27.8800 18.5556 0.5872
27.9000 18.5689 0.6069
27.9200 18.5822 0.5869
27.9400 18.5956 0.5966
27.9600 18.6089 0.6053
27.9800 18.6223 0.5894
28.0000 18.6356 0.5981
28.0200 18.6489 0.6030
28.0400 18.6623 0.5898
28.0600 18.6756 0.5987
28.0800 18.6889 0.6012
28.1000 18.7022 0.5904
28.1200 18.7155 0.6028
28.1400 18.7288 0.5987
28.1600 18.7422 0.5944
28.1800 18.7555 0.6095
28.2000 18.7689 0.5982
28.2200 18.7822 0.5942
28.2400 18.7956 0.6092
28.2600 18.8090 0.5967
28.2800 18.8223 0.6004
28.3000 18.8356 0.6073
28.3200 18.8490 0.5998
28.3400 18.8623 0.5982
28.3600 18.8756 0.6063
28.3800 18.8888 0.6029
28.4000 18.9022 0.6027
28.4200 18.9155 0.6012
28.4400 18.9288 0.6056
28.4600 18.9422 0.6063
28.4800 18.9555 0.6029
28.5000 18.9689 0.6078
28.5200 18.9822 0.6043
28.5400 18.9956 0.5990
28.5600 19.0089 0.6100
28.5800 19.0223 0.6085
28.6000 19.0356 0.6000
28.6200 19.0490 0.6060
28.6400 19.0623 0.6105
28.6600 19.0756 0.6020
28.6800 19.0889 0.6088
28.7000 19.1023 0.6104
28.7200 19.1156 0.6051
28.7400 19.1289 0.6125
28.7600 19.1422 0.6106
28.7800 19.1555 0.6059
28.8000 19.1689 0.6119
28.8200 19.1822 0.6076
28.8400 19.1955 0.6063
28.8600 19.2089 0.6136
28.8800 19.2222 0.6144
28.9000 19.2356 0.6052
28.9200 19.2489 0.6134
28.9400 19.2622 0.6128
28.9600 19.2756 0.6068
28.9800 19.2889 0.6159
29.0000 19.3022 0.6128
29.0200 19.3156 0.6121
29.0400 19.3289 0.6134
29.0600 19.3423 0.6123
29.0800 19.3556 0.6129
29.1000 19.3689 0.6179
29.1200 19.3822 0.6145
29.1400 19.3956 0.6132
29.1600 19.4089 0.6171
29.1800 19.4222 0.6163
29.2000 19.4355 0.6154
29.2200 19.4488 0.6203
29.2400 19.4622 0.6131
29.2600 19.4755 0.6194
29.2800 19.4889 0.6164
29.3000 19.5022 0.6140
29.3200 19.5156 0.6174
29.3400 19.5289 0.6169
29.3600 19.5423 0.6169
29.3800 19.5556 0.6222
29.4000 19.5690 0.6152
29.4200 19.5823 0.6159
29.4400 19.5956 0.6221
29.4600 19.6089 0.6202
29.4800 19.6222 0.6202
29.5000 19.6356 0.6203
29.5200 19.6489 0.6224
29.5400 19.6622 0.6197
29.5600 19.6755 0.6161
29.5800 19.6889 0.6238
29.6000 19.7022 0.6230
29.6200 19.7155 0.6186
29.6400 19.7289 0.6229
29.6600 19.7422 0.6244
29.6800 19.7556 0.6216
29.7000 19.7689 0.6231
29.7200 19.7822 0.6246
29.7400 19.7956 0.6254
29.7600 19.8089 0.6271
29.7800 19.8223 0.6221
29.8000 19.8356 0.6268
29.8200 19.8489 0.6249
29.8400 19.8622 0.6238
29.8600 19.8756 0.6276
29.8800 19.8889 0.6268
29.9000 19.9022 0.6251
29.9200 19.9155 0.6317
29.9400 19.9288 0.6257
29.9600 19.9422 0.6311
29.9800 19.9555 0.6279
30.0000 19.9689 0.6266
30.0200 19.9822 0.6316
30.0400 19.9956 0.6262
30.0600 20.0090 0.6275
30.0800 20.0223 0.6356
30.1000 20.0356 0.6281
30.1200 20.0489 0.6269
30.1400 20.0623 0.6373
30.1600 20.0756 0.6323
30.1800 20.0889 0.6259
30.2000 20.1022 0.6382
30.2200 20.1155 0.6294
30.2400 20.1289 0.6335
30.2600 20.1422 0.6384
30.2800 20.1555 0.6288
30.3000 20.1689 0.6324
30.3200 20.1822 0.6372
30.3400 20.1955 0.6322
30.3600 20.2088 0.6315
30.3800 20.2222 0.6425
30.4000 20.2356 0.6317
30.4200 20.2490 0.6304
30.4400 20.2623 0.6414
30.4600 20.2756 0.6363
30.4800 20.2889 0.6333
30.5000 20.3023 0.6407
30.5200 20.3156 0.6357
30.5400 20.3288 0.6339
30.5600 20.3422 0.6434
30.5800 20.3555 0.6394
30.6000 20.3688 0.6296
30.6200 20.3822 0.6439
30.6400 20.3955 0.6377
30.6600 20.4089 0.6350
30.6800 20.4223 0.6457
30.7000 20.4356 0.6406
30.7200 20.4489 0.6335
30.7400 20.4623 0.6457
30.7600 20.4756 0.6384
30.7800 20.4890 0.6374
30.8000 20.5022 0.6472
30.8200 20.5155 0.6373
30.8400 20.5289 0.6388
30.8600 20.5422 0.6509
30.8800 20.5556 0.6366
30.9000 20.5689 0.6403
30.9200 20.5822 0.6489
30.9400 20.5956 0.6407
30.9600 20.6089 0.6427
30.9800 20.6222 0.6483
31.0000 20.6355 0.6442
31.0200 20.6488 0.6445
31.0400 20.6622 0.6448
31.0600 20.6755 0.6437
31.0800 20.6888 0.6444
31.1000 20.7022 0.6480
31.1200 20.7156 0.6437
31.1400 20.7289 0.6436
31.1600 20.7423 0.6493
31.1800 20.7556 0.6495
31.2000 20.7689 0.6458
31.2200 20.7823 0.6517
31.2400 20.7956 0.6512
31.2600 20.8089 0.6455
31.2800 20.8222 0.6554
31.3000 20.8356 0.6537
31.3200 20.8489 0.6445
31.3400 20.8622 0.6564
31.3600 20.8755 0.6533
31.3800 20.8888 0.6415
31.4000 20.9022 0.6556
31.4200 20.9155 0.6536
31.4400 20.9288 0.6479
31.4600 20.9422 0.6539
31.4800 20.9556 0.6560
31.5000 20.9689 0.6483
31.5200 20.9823 0.6565
31.5400 20.9956 0.6582
31.5600 21.0089 0.6507
31.5800 21.0223 0.6562
31.6000 21.0356 0.6556
31.6200 21.0489 0.6518
31.6400 21.0622 0.6596
31.6600 21.0756 0.6584
31.6800 21.0889 0.6558
31.7000 21.1022 0.6556
31.7200 21.1155 0.6620
31.7400 21.1289 0.6543
31.7600 21.1422 0.6575
31.7800 21.1556 0.6611
31.8000 21.1689 0.6535
31.8200 21.1822 0.6627
31.8400 21.1956 0.6599
31.8600 21.2089 0.6539
31.8800 21.2223 0.6626
31.9000 21.2356 0.6608
31.9200 21.2489 0.6560
31.9400 21.2623 0.6651
31.9600 21.2756 0.6649
31.9800 21.2889 0.6521
32.0000 21.3022 0.6622
32.0200 21.3156 0.6620
32.0400 21.3289 0.6557
32.0600 21.3422 0.6689
32.0800 21.3555 0.6602
32.1000 21.3688 0.6596
32.1200 21.3822 0.6652
32.1400 21.3955 0.6604
32.1600 21.4089 0.6599
32.1800 21.4222 0.6728
32.2000 21.4356 0.6629
32.2200 21.4490 0.6583
32.2400 21.4623 0.6745
32.2600 21.4756 0.6618
32.2800 21.4889 0.6622
32.3000 21.5023 0.6710
32.3200 21.5156 0.6587
32.3400 21.5289 0.6654
32.3600 21.5422 0.6683
32.3800 21.5555 0.6622
32.4000 21.5689 0.6665
32.4200 21.5822 0.6710
32.4400 21.5955 0.6609
32.4600 21.6089 0.6717
32.4800 21.6222 0.6687
32.5000 21.6355 0.6627
32.5200 21.6489 0.6741
32.5400 21.6622 0.6683
32.5600 21.6756 0.6618
32.5800 21.6889 0.6734
32.6000 21.7022 0.6655
32.6200 21.7156 0.6701
32.6400 21.7289 0.6730
32.6600 21.7423 0.6658
32.6800 21.7556 0.6699
32.7000 21.7689 0.6712
32.7200 21.7822 0.6687
32.7400 21.7955 0.6748
32.7600 21.8089 0.6697
32.7800 21.8222 0.6699
32.8000 21.8355 0.6739
32.8200 21.8488 0.6681
32.8400 21.8622 0.6754
32.8600 21.8755 0.6731
32.8800 21.8889 0.6691
32.9000 21.9022 0.6791
32.9200 21.9155 0.6765
32.9400 21.9289 0.6712
32.9600 21.9422 0.6778
32.9800 21.9555 0.6722
33.0000 21.9689 0.6754
33.0200 21.9822 0.6778
33.0400 21.9956 0.6709
33.0600 22.0089 0.6776
33.0800 22.0223 0.6761
33.1000 22.0356 0.6740
33.1200 22.0490 0.6795
33.1400 22.0622 0.6750
33.1600 22.0755 0.6776
33.1800 22.0888 0.6806
33.2000 22.1022 0.6790
33.2200 22.1155 0.6732
33.2400 22.1288 0.6816
33.2600 22.1422 0.6830
33.2800 22.1556 0.6745
33.3000 22.1689 0.6797
33.3200 22.1823 0.6803
33.3400 22.1956 0.6769
33.3600 22.2090 0.6892
33.3800 22.2223 0.6813
33.4000 22.2357 0.6782
33.4200 22.2489 0.6878
33.4400 22.2622 0.6807
33.4600 22.2756 0.6804
33.4800 22.2889 0.6897
33.5000 22.3022 0.6805
33.5200 22.3155 0.6810
33.5400 22.3288 0.6908
33.5600 22.3422 0.6792
33.5800 22.3555 0.6830
33.6000 22.3689 0.6946
33.6200 22.3822 0.6788
33.6400 22.3956 0.6835
33.6600 22.4089 0.6948
33.6800 22.4223 0.6834
33.7000 22.4356 0.6859
33.7200 22.4489 0.6922
33.7400 22.4623 0.6833
33.7600 22.4756 0.6877
33.7800 22.4889 0.6970
33.8000 22.5022 0.6833
33.8200 22.5155 0.6929
33.8400 22.5289 0.6916
33.8600 22.5422 0.6846
33.8800 22.5555 0.6949
33.9000 22.5688 0.6951
33.9200 22.5822 0.6875
33.9400 22.5955 0.6892
33.9600 22.6089 0.6974
33.9800 22.6222 0.6885
34.0000 22.6355 0.6891
34.0200 22.6489 0.6969
34.0400 22.6623 0.6856
34.0600 22.6756 0.6936
34.0800 22.6889 0.6969
34.1000 22.7023 0.6894
34.1200 22.7156 0.6956
34.1400 22.7289 0.6986
34.1600 22.7422 0.6908
34.1800 22.7556 0.6974
34.2000 22.7689 0.6980
34.2200 22.7822 0.6902
34.2400 22.7955 0.7001
34.2600 22.8088 0.7031
34.2800 22.8222 0.6931
34.3000 22.8355 0.6965
34.3200 22.8489 0.7014
34.3400 22.8622 0.6926
34.3600 22.8756 0.6985
34.3800 22.8889 0.7064
34.4000 22.9023 0.6968
34.4200 22.9156 0.6992
34.4400 22.9289 0.7067
34.4600 22.9423 0.6961
34.4800 22.9556 0.7012
34.5000 22.9689 0.7030
34.5200 22.9822 0.7022
34.5400 22.9955 0.7029
34.5600 23.0089 0.7028
34.5800 23.0222 0.6990
34.6000 23.0355 0.7063
34.6200 23.0488 0.7056
34.6400 23.0622 0.7008
34.6600 23.0755 0.7072
34.6800 23.0888 0.7076
34.7000 23.1022 0.7033
34.7200 23.1156 0.7062
34.7400 23.1289 0.7075
34.7600 23.1423 0.7066
34.7800 23.1556 0.7081
34.8000 23.1689 0.7091
34.8200 23.1823 0.7067
34.8400 23.1957 0.7107
34.8600 23.2090 0.7088
34.8800 23.2223 0.7107
34.9000 23.2356 0.7096
34.9200 23.2489 0.7134
34.9400 23.2622 0.7095
34.9600 23.2755 0.7109
34.9800 23.2888 0.7172
35.0000 23.3022 0.7128
35.0200 23.3155 0.7107
35.0400 23.3288 0.7166
35.0600 23.3422 0.7126
35.0800 23.3555 0.7149
35.1000 23.3689 0.7170
35.1200 23.3822 0.7147
35.1400 23.3956 0.7140
35.1600 23.4089 0.7168
35.1800 23.4222 0.7116
35.2000 23.4356 0.7165
35.2200 23.4489 0.7205
35.2400 23.4622 0.7105
35.2600 23.4755 0.7200
35.2800 23.4889 0.7173
35.3000 23.5022 0.7142
35.3200 23.5155 0.7269
35.3400 23.5288 0.7159
35.3600 23.5422 0.7194
35.3800 23.5555 0.7199
35.4000 23.5688 0.7164
35.4200 23.5822 0.7233
35.4400 23.5955 0.7255
35.4600 23.6089 0.7176
35.4800 23.6223 0.7182
35.5000 23.6356 0.7261
35.5200 23.6490 0.7215
35.5400 23.6623 0.7226
35.5600 23.6756 0.7231
35.5800 23.6889 0.7194
35.6000 23.7022 0.7277
35.6200 23.7155 0.7252
35.6400 23.7288 0.7200
35.6600 23.7422 0.7250
35.6800 23.7555 0.7252
35.7000 23.7688 0.7232
35.7200 23.7822 0.7221
35.7400 23.7955 0.7266
35.7600 23.8089 0.7212
35.7800 23.8222 0.7278
35.8000 23.8356 0.7323
35.8200 23.8490 0.7263
35.8400 23.8623 0.7286
35.8600 23.8756 0.7325
35.8800 23.8889 0.7261
35.9000 23.9022 0.7310
35.9200 23.9156 0.7327
35.9400 23.9289 0.7269
35.9600 23.9422 0.7317
35.9800 23.9555 0.7328
36.0000 23.9689 0.7281
36.0200 23.9822 0.7363
36.0400 23.9955 0.7349
36.0600 24.0089 0.7307
36.0800 24.0222 0.7360
36.1000 24.0356 0.7319
36.1200 24.0489 0.7286
36.1400 24.0622 0.7342
36.1600 24.0756 0.7347
36.1800 24.0889 0.7285
36.2000 24.1023 0.7379
36.2200 24.1156 0.7356
36.2400 24.1289 0.7316
36.2600 24.1422 0.7420
36.2800 24.1556 0.7361
36.3000 24.1689 0.7344
36.3200 24.1822 0.7391
36.3400 24.1955 0.7381
36.3600 24.2089 0.7361
36.3800 24.2222 0.7389
36.4000 24.2355 0.7434
36.4200 24.2488 0.7392
36.4400 24.2622 0.7402
36.4600 24.2755 0.7410
36.4800 24.2889 0.7373
36.5000 24.3022 0.7420
36.5200 24.3155 0.7425
36.5400 24.3289 0.7393
36.5600 24.3423 0.7408
36.5800 24.3556 0.7398
36.6000 24.3689 0.7425
36.6200 24.3823 0.7389
36.6400 24.3956 0.7444
36.6600 24.4089 0.7415
36.6800 24.4222 0.7408
36.7000 24.4355 0.7443
36.7200 24.4489 0.7438
36.7400 24.4622 0.7464
36.7600 24.4755 0.7411
36.7800 24.4889 0.7452
36.8000 24.5022 0.7492
36.8200 24.5155 0.7430
36.8400 24.5289 0.7453
36.8600 24.5422 0.7482
36.8800 24.5555 0.7473
36.9000 24.5689 0.7470
36.9200 24.5823 0.7438
36.9400 24.5956 0.7485
36.9600 24.6089 0.7507
36.9800 24.6223 0.7445
37.0000 24.6356 0.7477
37.0200 24.6490 0.7510
37.0400 24.6623 0.7460
37.0600 24.6756 0.7532
37.0800 24.6889 0.7511
37.1000 24.7022 0.7463
37.1200 24.7155 0.7481
37.1400 24.7288 0.7537
37.1600 24.7421 0.7545
37.1800 24.7555 0.7505
37.2000 24.7689 0.7552
37.2200 24.7822 0.7538
37.2400 24.7956 0.7496
37.2600 24.8089 0.7570
37.2800 24.8223 0.7572
37.3000 24.8356 0.7473
37.3200 24.8489 0.7527
37.3400 24.8623 0.7578
37.3600 24.8756 0.7479
37.3800 24.8890 0.7562
37.4000 24.9022 0.7563
37.4200 24.9155 0.7526
37.4400 24.9289 0.7594
37.4600 24.9422 0.7567
37.4800 24.9555 0.7519
37.5000 24.9688 0.7616
37.5200 24.9822 0.7561
37.5400 24.9955 0.7552
37.5600 25.0089 0.7620
37.5800 25.0222 0.7594
37.6000 25.0355 0.7539
37.6200 25.0489 0.7605
37.6400 25.0623 0.7568
37.6600 25.0756 0.7582
37.6800 25.0889 0.7632
37.7000 25.1023 0.7636
37.7200 25.1156 0.7598
37.7400 25.1289 0.7621
37.7600 25.1422 0.7619
37.7800 25.1555 0.7659
37.8000 25.1688 0.7611
37.8200 25.1822 0.7643
37.8400 25.1955 0.7640
37.8600 25.2088 0.7601
37.8800 25.2222 0.7662
37.9000 25.2356 0.7623
37.9200 25.2489 0.7601
37.9400 25.2623 0.7667
37.9600 25.2756 0.7651
37.9800 25.2889 0.7607
38.0000 25.3023 0.7723
38.0200 25.3156 0.7685
38.0400 25.3289 0.7616
38.0600 25.3422 0.7740
38.0800 25.3555 0.7676
38.1000 25.3689 0.7649
38.1200 25.3822 0.7746
38.1400 25.3956 0.7675
38.1600 25.4089 0.7702
38.1800 25.4223 0.7740
38.2000 25.4356 0.7643
38.2200 25.4489 0.7703
38.2400 25.4622 0.7770
38.2600 25.4755 0.7690
38.2800 25.4889 0.7728
38.3000 25.5022 0.7759
38.3200 25.5155 0.7694
38.3400 25.5289 0.7756
38.3600 25.5422 0.7741
38.3800 25.5556 0.7756
38.4000 25.5689 0.7761
38.4200 25.5822 0.7761
38.4400 25.5956 0.7791
38.4600 25.6090 0.7736
38.4800 25.6223 0.7774
38.5000 25.6356 0.7788
38.5200 25.6489 0.7786
38.5400 25.6623 0.7793
38.5600 25.6756 0.7801
38.5800 25.6889 0.7742
38.6000 25.7022 0.7816
38.6200 25.7155 0.7868
38.6400 25.7288 0.7739
38.6600 25.7422 0.7836
38.6800 25.7555 0.7833
38.7000 25.7689 0.7779
38.7200 25.7823 0.7835
38.7400 25.7956 0.7845
38.7600 25.8089 0.7779
38.7800 25.8223 0.7856
38.8000 25.8356 0.7858
38.8200 25.8490 0.7782
38.8400 25.8623 0.7896
38.8600 25.8755 0.7895
38.8800 25.8889 0.7779
38.9000 25.9022 0.7950
38.9200 25.9156 0.7892
38.9400 25.9288 0.7806
38.9600 25.9422 0.7922
38.9800 25.9555 0.7890
39.0000 25.9689 0.7823
39.0200 25.9822 0.7941
39.0400 25.9955 0.7891
39.0600 26.0089 0.7871
39.0800 26.0222 0.7923
39.1000 26.0356 0.7921
39.1200 26.0489 0.7866
39.1400 26.0623 0.7961
39.1600 26.0756 0.7923
39.1800 26.0890 0.7880
39.2000 26.1023 0.7960
39.2200 26.1156 0.7928
39.2400 26.1289 0.7941
39.2600 26.1422 0.7985
39.2800 26.1555 0.7923
39.3000 26.1688 0.7922
39.3200 26.1821 0.7999
39.3400 26.1955 0.7965
39.3600 26.2089 0.7940
39.3800 26.2222 0.7969
39.4000 26.2355 0.7951
39.4200 26.2489 0.7972
39.4400 26.2623 0.7968
39.4600 26.2756 0.8002
39.4800 26.2889 0.7983
39.5000 26.3022 0.8036
39.5200 26.3156 0.8007
39.5400 26.3289 0.7938
39.5600 26.3422 0.8025
39.5800 26.3555 0.8031
39.6000 26.3689 0.7911
39.6200 26.3822 0.8052
39.6400 26.3956 0.8070
39.6600 26.4089 0.7916
39.6800 26.4222 0.8079
39.7000 26.4355 0.8064
39.7200 26.4489 0.7941
39.7400 26.4622 0.8113
39.7600 26.4755 0.8048
39.7800 26.4889 0.7958
39.8000 26.5023 0.8121
39.8200 26.5156 0.8029
39.8400 26.5289 0.8019
39.8600 26.5422 0.8152
39.8800 26.5556 0.8007
39.9000 26.5690 0.8020
39.9200 26.5823 0.8152
39.9400 26.5956 0.8028
39.9600 26.6089 0.8065
39.9800 26.6222 0.8150
40.0000 26.6355 0.8012
40.0200 26.6488 0.8046
40.0400 26.6622 0.8149
40.0600 26.6755 0.8049
40.0800 26.6889 0.8076
40.1000 26.7022 0.8124
40.1200 26.7155 0.8075
40.1400 26.7289 0.8102
40.1600 26.7422 0.8113
40.1800 26.7556 0.8138
40.2000 26.7689 0.8106
40.2200 26.7822 0.8093
40.2400 26.7956 0.8155
40.2600 26.8089 0.8099
40.2800 26.8223 0.8166
40.3000 26.8356 0.8154
40.3200 26.8489 0.8171
40.3400 26.8623 0.8123
40.3600 26.8756 0.8153
40.3800 26.8889 0.8161
40.4000 26.9022 0.8146
40.4200 26.9155 0.8189
40.4400 26.9288 0.8126
40.4600 26.9422 0.8142
40.4800 26.9555 0.8223
40.5000 26.9689 0.8142
40.5200 26.9823 0.8152
40.5400 26.9956 0.8190
40.5600 27.0090 0.8152
40.5800 27.0223 0.8206
40.6000 27.0356 0.8176
40.6200 27.0490 0.8167
40.6400 27.0623 0.8231
40.6600 27.0756 0.8226
40.6800 27.0889 0.8191
40.7000 27.1022 0.8243
40.7200 27.1155 0.8215
40.7400 27.1288 0.8216
40.7600 27.1421 0.8234
40.7800 27.1555 0.8231
40.8000 27.1688 0.8225
40.8200 27.1822 0.8233
40.8400 27.1955 0.8200
40.8600 27.2089 0.8260
40.8800 27.2223 0.8253
40.9000 27.2356 0.8224
40.9200 27.2490 0.8250
40.9400 27.2623 0.8270
40.9600 27.2756 0.8286
40.9800 27.2890 0.8248
41.0000 27.3023 0.8262
41.0200 27.3156 0.8272
41.0400 27.3289 0.8277
41.0600 27.3422 0.8314
41.0800 27.3555 0.8294
41.1000 27.3689 0.8290
41.1200 27.3822 0.8322
41.1400 27.3955 0.8297
41.1600 27.4089 0.8261
41.1800 27.4222 0.8358
41.2000 27.4355 0.8298
41.2200 27.4489 0.8282
41.2400 27.4622 0.8344
41.2600 27.4756 0.8320
41.2800 27.4889 0.8320
41.3000 27.5022 0.8410
41.3200 27.5156 0.8343
41.3400 27.5289 0.8311
41.3600 27.5423 0.8401
41.3800 27.5556 0.8347
41.4000 27.5689 0.8371
41.4200 27.5823 0.8434
41.4400 27.5956 0.8309
41.4600 27.6089 0.8347
41.4800 27.6222 0.8465
41.5000 27.6355 0.8376
41.5200 27.6489 0.8398
41.5400 27.6622 0.8441
41.5600 27.6755 0.8340
41.5800 27.6889 0.8433
41.6000 27.7023 0.8449
41.6200 27.7156 0.8331
41.6400 27.7290 0.8531
41.6600 27.7423 0.8421
41.6800 27.7556 0.8360
41.7000 27.7689 0.8518
41.7200 27.7823 0.8444
41.7400 27.7955 0.8443
41.7600 27.8088 0.8502
41.7800 27.8222 0.8467
41.8000 27.8356 0.8441
41.8200 27.8489 0.8513
41.8400 27.8622 0.8507
41.8600 27.8755 0.8479
41.8800 27.8889 0.8486
41.9000 27.9022 0.8510
41.9200 27.9155 0.8506
41.9400 27.9288 0.8511
41.9600 27.9422 0.8590
41.9800 27.9556 0.8481
42.0000 27.9689 0.8548
42.0200 27.9822 0.8572
42.0400 27.9956 0.8487
42.0600 28.0090 0.8550
42.0800 28.0223 0.8594
42.1000 28.0356 0.8449
42.1200 28.0489 0.8606
42.1400 28.0622 0.8662
42.1600 28.0756 0.8469
42.1800 28.0889 0.8640
42.2000 28.1022 0.8628
42.2200 28.1155 0.8503
42.2400 28.1288 0.8678
42.2600 28.1422 0.8564
42.2800 28.1555 0.8551
42.3000 28.1689 0.8667
42.3200 28.1822 0.8607
42.3400 28.1956 0.8566
42.3600 28.2089 0.8668
42.3800 28.2222 0.8632
42.4000 28.2356 0.8628
42.4200 28.2489 0.8666
42.4400 28.2623 0.8592
42.4600 28.2756 0.8673
42.4800 28.2889 0.8689
42.5000 28.3022 0.8629
42.5200 28.3156 0.8673
42.5400 28.3289 0.8692
42.5600 28.3422 0.8674
42.5800 28.3555 0.8686
42.6000 28.3688 0.8709
42.6200 28.3822 0.8690
42.6400 28.3955 0.8666
42.6600 28.4089 0.8731
42.6800 28.4222 0.8707
42.7000 28.4356 0.8696
42.7200 28.4490 0.8735
42.7400 28.4623 0.8764
42.7600 28.4756 0.8683
42.7800 28.4890 0.8769
42.8000 28.5023 0.8740
42.8200 28.5156 0.8718
42.8400 28.5289 0.8806
42.8600 28.5422 0.8792
42.8800 28.5555 0.8716
42.9000 28.5688 0.8810
42.9200 28.5822 0.8778
42.9400 28.5955 0.8769
42.9600 28.6089 0.8818
42.9800 28.6223 0.8767
43.0000 28.6356 0.8766
43.0200 28.6489 0.8838
43.0400 28.6622 0.8813
43.0600 28.6756 0.8766
43.0800 28.6889 0.8861
43.1000 28.7023 0.8773
43.1200 28.7156 0.8836
43.1400 28.7289 0.8851
43.1600 28.7423 0.8801
43.1800 28.7555 0.8855
43.2000 28.7688 0.8886
43.2200 28.7822 0.8865
43.2400 28.7956 0.8850
43.2600 28.8089 0.8884
43.2800 28.8222 0.8878
43.3000 28.8355 0.8841
43.3200 28.8489 0.8899
43.3400 28.8622 0.8895
43.3600 28.8756 0.8885
43.3800 28.8889 0.8898
43.4000 28.9022 0.8899
43.4200 28.9156 0.8840
43.4400 28.9289 0.8956
43.4600 28.9422 0.8910
43.4800 28.9556 0.8893
43.5000 28.9689 0.8966
43.5200 28.9823 0.8904
43.5400 28.9956 0.8894
43.5600 29.0089 0.9013
43.5800 29.0222 0.8902
43.6000 29.0356 0.8957
43.6200 29.0489 0.9003
43.6400 29.0622 0.8916
43.6600 29.0755 0.8968
43.6800 29.0888 0.9047
43.7000 29.1022 0.8922
43.7200 29.1155 0.8973
43.7400 29.1289 0.9024
43.7600 29.1422 0.8952
43.7800 29.1556 0.9030
43.8000 29.1689 0.8969
43.8200 29.1823 0.8981
43.8400 29.1956 0.9069
43.8600 29.2089 0.8992
43.8800 29.2223 0.8993
43.9000 29.2356 0.9068
43.9200 29.2489 0.9010
43.9400 29.2622 0.9032
43.9600 29.2756 0.9089
43.9800 29.2889 0.9001
44.0000 29.3022 0.9051
44.0200 29.3155 0.9153
44.0400 29.3289 0.9023
44.0600 29.3422 0.9068
44.0800 29.3555 0.9101
44.1000 29.3688 0.9079
44.1200 29.3822 0.9130
44.1400 29.3956 0.9098
44.1600 29.4089 0.9104
44.1800 29.4222 0.9085
44.2000 29.4356 0.9127
44.2200 29.4489 0.9121
44.2400 29.4623 0.9112
44.2600 29.4756 0.9157
44.2800 29.4889 0.9103
44.3000 29.5022 0.9186
44.3200 29.5155 0.9094
44.3400 29.5289 0.9181
44.3600 29.5422 0.9148
44.3800 29.5555 0.9138
44.4000 29.5688 0.9193
44.4200 29.5822 0.9108
44.4400 29.5955 0.9209
44.4600 29.6089 0.9200
44.4800 29.6222 0.9162
44.5000 29.6356 0.9224
44.5200 29.6490 0.9160
44.5400 29.6623 0.9202
44.5600 29.6756 0.9225
44.5800 29.6889 0.9244
44.6000 29.7023 0.9152
44.6200 29.7156 0.9218
44.6400 29.7289 0.9223
44.6600 29.7422 0.9196
44.6800 29.7555 0.9284
44.7000 29.7689 0.9232
44.7200 29.7822 0.9251
44.7400 29.7955 0.9270
44.7600 29.8088 0.9226
44.7800 29.8222 0.9274
44.8000 29.8355 0.9292
44.8200 29.8489 0.9279
44.8400 29.8622 0.9275
44.8600 29.8756 0.9287
44.8800 29.8890 0.9303
44.9000 29.9023 0.9272
44.9200 29.9156 0.9296
44.9400 29.9289 0.9306
44.9600 29.9423 0.9305
44.9800 29.9556 0.9341
45.0000 29.9689 0.9360
45.0200 29.9822 0.9302
45.0400 29.9955 0.9357
45.0600 30.0089 0.9336
45.0800 30.0222 0.9351
45.1000 30.0355 0.9412
45.1200 30.0489 0.9326
45.1400 30.0622 0.9366
45.1600 30.0756 0.9399
45.1800 30.0889 0.9351
45.2000 30.1023 0.9393
45.2200 30.1156 0.9392
45.2400 30.1289 0.9362
45.2600 30.1422 0.9427
45.2800 30.1555 0.9418
45.3000 30.1689 0.9393
45.3200 30.1822 0.9466
45.3400 30.1956 0.9401
45.3600 30.2089 0.9398
45.3800 30.2223 0.9459
45.4000 30.2356 0.9487
45.4200 30.2489 0.9385
45.4400 30.2622 0.9491
45.4600 30.2756 0.9463
45.4800 30.2889 0.9447
45.5000 30.3022 0.9484
45.5200 30.3156 0.9485
45.5400 30.3289 0.9503
45.5600 30.3422 0.9462
45.5800 30.3556 0.9504
45.6000 30.3689 0.9492
45.6200 30.3822 0.9507
45.6400 30.3955 0.9572
45.6600 30.4089 0.9481
45.6800 30.4223 0.9545
45.7000 30.4356 0.9558
45.7200 30.4489 0.9482
45.7400 30.4622 0.9595
45.7600 30.4756 0.9566
45.7800 30.4889 0.9512
45.8000 30.5022 0.9593
45.8200 30.5155 0.9614
45.8400 30.5288 0.9538
45.8600 30.5422 0.9588
45.8800 30.5555 0.9603
45.9000 30.5688 0.9541
45.9200 30.5822 0.9623
45.9400 30.5956 0.9616
45.9600 30.6089 0.9564
45.9800 30.6223 0.9583
46.0000 30.6356 0.9621
46.0200 30.6489 0.9584
46.0400 30.6623 0.9653
46.0600 30.6756 0.9671
46.0800 30.6889 0.9593
46.1000 30.7022 0.9689
46.1200 30.7155 0.9641
46.1400 30.7289 0.9638
46.1600 30.7422 0.9696
46.1800 30.7555 0.9712
46.2000 30.7688 0.9615
46.2200 30.7822 0.9707
46.2400 30.7956 0.9738
46.2600 30.8089 0.9639
46.2800 30.8222 0.9751
46.3000 30.8355 0.9773
46.3200 30.8489 0.9658
46.3400 30.8623 0.9744
46.3600 30.8756 0.9785
46.3800 30.8889 0.9678
46.4000 30.9023 0.9777
46.4200 30.9156 0.9781
46.4400 30.9289 0.9690
46.4600 30.9422 0.9808
46.4800 30.9556 0.9791
46.5000 30.9689 0.9686
46.5200 30.9822 0.9823
46.5400 30.9955 0.9857
46.5600 31.0088 0.9725
46.5800 31.0222 0.9857
46.6000 31.0355 0.9838
46.6200 31.0489 0.9753
46.6400 31.0622 0.9917
46.6600 31.0756 0.9825
46.6800 31.0890 0.9781
46.7000 31.1023 0.9910
46.7200 31.1156 0.9785
46.7400 31.1289 0.9873
46.7600 31.1423 0.9930
46.7800 31.1556 0.9786
46.8000 31.1689 0.9891
46.8200 31.1822 0.9975
46.8400 31.1956 0.9847
46.8600 31.2089 0.9878
46.8800 31.2222 0.9956
46.9000 31.2355 0.9888
46.9200 31.2489 0.9909
46.9400 31.2622 0.9933
46.9600 31.2755 0.9926
46.9800 31.2889 0.9900
47.0000 31.3022 0.9974
47.0200 31.3156 0.9930
47.0400 31.3289 0.9920
47.0600 31.3422 0.9977
47.0800 31.3555 0.9951
47.1000 31.3689 0.9957
47.1200 31.3822 0.9990
47.1400 31.3956 0.9987
47.1600 31.4089 1.0002
47.1800 31.4222 0.9982
47.2000 31.4355 1.0054
47.2200 31.4489 0.9947
47.2400 31.4622 1.0024
47.2600 31.4755 1.0069
47.2800 31.4888 0.9985
47.3000 31.5022 1.0109
47.3200 31.5155 1.0001
47.3400 31.5289 1.0013
47.3600 31.5422 1.0127
47.3800 31.5555 1.0043
47.4000 31.5689 1.0040
47.4200 31.5822 1.0119
47.4400 31.5955 1.0081
47.4600 31.6089 1.0084
47.4800 31.6222 1.0120
47.5000 31.6356 1.0086
47.5200 31.6489 1.0084
47.5400 31.6622 1.0168
47.5600 31.6756 1.0129
47.5800 31.6890 1.0156
47.6000 31.7023 1.0137
47.6200 31.7155 1.0138
47.6400 31.7288 1.0147
47.6600 31.7422 1.0138
47.6800 31.7555 1.0200
47.7000 31.7688 1.0157
47.7200 31.7822 1.0136
47.7400 31.7956 1.0246
47.7600 31.8090 1.0153
47.7800 31.8223 1.0202
47.8000 31.8356 1.0221
47.8200 31.8489 1.0158
47.8400 31.8623 1.0183
47.8600 31.8757 1.0280
47.8800 31.8890 1.0180
47.9000 31.9023 1.0258
47.9200 31.9156 1.0311
47.9400 31.9289 1.0199
47.9600 31.9422 1.0249
47.9800 31.9555 1.0317
48.0000 31.9688 1.0226
48.0200 31.9822 1.0257
48.0400 31.9955 1.0271
48.0600 32.0089 1.0274
48.0800 32.0222 1.0289
48.1000 32.0356 1.0304
48.1200 32.0490 1.0303
48.1400 32.0623 1.0309
48.1600 32.0756 1.0301
48.1800 32.0890 1.0344
48.2000 32.1023 1.0331
48.2200 32.1156 1.0343
48.2400 32.1289 1.0388
48.2600 32.1422 1.0363
48.2800 32.1555 1.0343
48.3000 32.1689 1.0374
48.3200 32.1822 1.0367
48.3400 32.1955 1.0383
48.3600 32.2088 1.0410
48.3800 32.2222 1.0352
48.4000 32.2355 1.0400
48.4200 32.2489 1.0411
48.4400 32.2622 1.0409
48.4600 32.2755 1.0425
48.4800 32.2889 1.0411
48.5000 32.3023 1.0390
48.5200 32.3156 1.0455
48.5400 32.3289 1.0519
48.5600 32.3423 1.0469
48.5800 32.3556 1.0435
48.6000 32.3689 1.0522
48.6200 32.3822 1.0499
48.6400 32.3955 1.0486
48.6600 32.4089 1.0500
48.6800 32.4222 1.0478
48.7000 32.4355 1.0502
48.7200 32.4488 1.0536
48.7400 32.4622 1.0494
48.7600 32.4755 1.0540
48.7800 32.4889 1.0529
48.8000 32.5022 1.0509
48.8200 32.5156 1.0564
48.8400 32.5289 1.0553
48.8600 32.5423 1.0536
48.8800 32.5556 1.0598
48.9000 32.5689 1.0564
48.9200 32.5822 1.0517
48.9400 32.5956 1.0601
48.9600 32.6089 1.0636
48.9800 32.6222 1.0553
49.0000 32.6355 1.0632
49.0200 32.6489 1.0634
49.0400 32.6622 1.0540
49.0600 32.6755 1.0661
49.0800 32.6889 1.0671
49.1000 32.7022 1.0574
49.1200 32.7155 1.0695
49.1400 32.7289 1.0694
49.1600 32.7422 1.0597
49.1800 32.7555 1.0720
49.2000 32.7689 1.0706
49.2200 32.7823 1.0630
49.2400 32.7956 1.0718
49.2600 32.8089 1.0768
49.2800 32.8223 1.0682
49.3000 32.8356 1.0749
49.3200 32.8490 1.0737
49.3400 32.8623 1.0694
49.3600 32.8756 1.0770
49.3800 32.8889 1.0747
49.4000 32.9022 1.0673
49.4200 32.9155 1.0790
49.4400 32.9289 1.0797
49.4600 32.9422 1.0728
49.4800 32.9555 1.0780
49.5000 32.9689 1.0813
49.5200 32.9822 1.0735
49.5400 32.9955 1.0817
49.5600 33.0089 1.0872
49.5800 33.0223 1.0710
49.6000 33.0356 1.0862
49.6200 33.0489 1.0896
49.6400 33.0623 1.0759
49.6600 33.0756 1.0903
49.6800 33.0889 1.0857
49.7000 33.1022 1.0793
49.7200 33.1156 1.0936
49.7400 33.1289 1.0870
49.7600 33.1422 1.0814
49.7800 33.1555 1.0949
49.8000 33.1688 1.0885
49.8200 33.1821 1.0844
49.8400 33.1955 1.0990
49.8600 33.2088 1.0890
49.8800 33.2221 1.0866
49.9000 33.2355 1.1006
49.9200 33.2489 1.0902
49.9400 33.2623 1.0912
49.9600 33.2757 1.1010
49.9800 33.2890 1.0928
50.0000 33.3023 1.1007
50.0200 33.3156 1.0975
50.0400 33.3290 1.0939
50.0600 33.3422 1.0995
50.0800 33.3555 1.1033
50.1000 33.3688 1.0996
50.1200 33.3822 1.0984
50.1400 33.3955 1.1003
50.1600 33.4088 1.1037
50.1800 33.4222 1.1047
50.2000 33.4355 1.1016
50.2200 33.4489 1.1041
50.2400 33.4622 1.1085
50.2600 33.4756 1.1017
50.2800 33.4889 1.1106
50.3000 33.5023 1.1017
50.3200 33.5156 1.1020
50.3400 33.5289 1.1160
50.3600 33.5422 1.1038
50.3800 33.5556 1.1067
50.4000 33.5689 1.1182
50.4200 33.5822 1.1066
50.4400 33.5955 1.1089
50.4600 33.6089 1.1207
50.4800 33.6222 1.1075
50.5000 33.6355 1.1161
50.5200 33.6489 1.1220
50.5400 33.6622 1.1086
50.5600 33.6755 1.1158
50.5800 33.6889 1.1204
50.6000 33.7022 1.1131
50.6200 33.7156 1.1173
50.6400 33.7289 1.1227
50.6600 33.7423 1.1174
50.6800 33.7556 1.1163
50.7000 33.7689 1.1284
50.7200 33.7822 1.1206
50.7400 33.7956 1.1178
50.7600 33.8089 1.1293
50.7800 33.8223 1.1211
50.8000 33.8356 1.1229
50.8200 33.8489 1.1355
50.8400 33.8622 1.1203
50.8600 33.8755 1.1228
50.8800 33.8888 1.1379
50.9000 33.9022 1.1246
50.9200 33.9155 1.1287
50.9400 33.9289 1.1364
50.9600 33.9422 1.1220
50.9800 33.9555 1.1384
51.0000 33.9689 1.1384
51.0200 33.9823 1.1258
51.0400 33.9956 1.1395
51.0600 34.0089 1.1434
51.0800 34.0222 1.1297
51.1000 34.0356 1.1425
51.1200 34.0489 1.1432
51.1400 34.0622 1.1340
51.1600 34.0755 1.1440
51.1800 34.0889 1.1443
51.2000 34.1022 1.1379
51.2200 34.1156 1.1466
51.2400 34.1289 1.1436
51.2600 34.1422 1.1443
51.2800 34.1555 1.1510
51.3000 34.1689 1.1461
51.3200 34.1822 1.1453
51.3400 34.1955 1.1498
51.3600 34.2089 1.1522
51.3800 34.2222 1.1503
51.4000 34.2356 1.1516
51.4200 34.2489 1.1537
51.4400 34.2622 1.1473
51.4600 34.2756 1.1552
51.4800 34.2890 1.1546
51.5000 34.3023 1.1566
51.5200 34.3156 1.1612
51.5400 34.3289 1.1594
51.5600 34.3422 1.1555
51.5800 34.3555 1.1581
51.6000 34.3688 1.1651
51.6200 34.3821 1.1573
51.6400 34.3955 1.1619
51.6600 34.4089 1.1638
51.6800 34.4222 1.1593
51.7000 34.4355 1.1672
51.7200 34.4489 1.1650
51.7400 34.4623 1.1619
51.7600 34.4756 1.1700
51.7800 34.4889 1.1684
51.8000 34.5023 1.1638
51.8200 34.5156 1.1737
51.8400 34.5290 1.1714
51.8600 34.5423 1.1612
51.8800 34.5556 1.1782
51.9000 34.5689 1.1759
51.9200 34.5822 1.1704
51.9400 34.5955 1.1744
51.9600 34.6088 1.1787
51.9800 34.6222 1.1710
52.0000 34.6355 1.1825
52.0200 34.6488 1.1803
52.0400 34.6622 1.1764
52.0600 34.6755 1.1869
52.0800 34.6889 1.1773
52.1000 34.7023 1.1802
52.1200 34.7156 1.1881
52.1400 34.7290 1.1756
52.1600 34.7423 1.1901
52.1800 34.7556 1.1878
52.2000 34.7689 1.1769
52.2200 34.7822 1.1943
52.2400 34.7955 1.1938
52.2600 34.8088 1.1821
52.2800 34.8222 1.1935
52.3000 34.8355 1.1918
52.3200 34.8488 1.1838
52.3400 34.8622 1.1986
52.3600 34.8755 1.1944
52.3800 34.8889 1.1888
52.4000 34.9023 1.2016
52.4200 34.9156 1.1924
52.4400 34.9289 1.1949
52.4600 34.9423 1.2023
52.4800 34.9556 1.1904
52.5000 34.9689 1.2001
52.5200 34.9822 1.2030
52.5400 34.9955 1.1963
52.5600 35.0089 1.2058
52.5800 35.0223 1.2040
52.6000 35.0356 1.2003
52.6200 35.0489 1.2062
52.6400 35.0623 1.2076
52.6600 35.0756 1.2052
52.6800 35.0889 1.2073
52.7000 35.1022 1.2103
52.7200 35.1155 1.2056
52.7400 35.1289 1.2115
52.7600 35.1422 1.2128
52.7800 35.1555 1.2114
52.8000 35.1689 1.2135
52.8200 35.1822 1.2168
52.8400 35.1956 1.2075
52.8600 35.2089 1.2169
52.8800 35.2222 1.2212
52.9000 35.2356 1.2123
52.9200 35.2489 1.2210
52.9400 35.2623 1.2210
52.9600 35.2756 1.2159
52.9800 35.2889 1.2277
53.0000 35.3023 1.2208
53.0200 35.3156 1.2198
53.0400 35.3289 1.2324
53.0600 35.3422 1.2228
53.0800 35.3555 1.2215
53.1000 35.3689 1.2354
53.1200 35.3822 1.2280
53.1400 35.3955 1.2248
53.1600 35.4089 1.2330
53.1800 35.4223 1.2301
53.2000 35.4356 1.2290
53.2200 35.4489 1.2359
53.2400 35.4623 1.2340
53.2600 35.4756 1.2343
53.2800 35.4890 1.2372
53.3000 35.5022 1.2341
53.3200 35.5155 1.2419
53.3400 35.5289 1.2422
53.3600 35.5422 1.2371
53.3800 35.5556 1.2399
53.4000 35.5689 1.2455
53.4200 35.5822 1.2420
53.4400 35.5955 1.2417
53.4600 35.6089 1.2432
53.4800 35.6222 1.2454
53.5000 35.6356 1.2470
53.5200 35.6489 1.2482
53.5400 35.6622 1.2468
53.5600 35.6756 1.2502
53.5800 35.6889 1.2483
53.6000 35.7023 1.2508
53.6200 35.7156 1.2517
53.6400 35.7290 1.2535
53.6600 35.7423 1.2581
53.6800 35.7556 1.2568
53.7000 35.7689 1.2543
53.7200 35.7822 1.2596
53.7400 35.7956 1.2587
53.7600 35.8088 1.2592
53.7800 35.8221 1.2633
53.8000 35.8355 1.2611
53.8200 35.8488 1.2575
53.8400 35.8622 1.2668
53.8600 35.8755 1.2620
53.8800 35.8889 1.2629
53.9000 35.9023 1.2737
53.9200 35.9156 1.2624
53.9400 35.9289 1.2647
53.9600 35.9422 1.2764
53.9800 35.9556 1.2741
54.0000 35.9689 1.2671
54.0200 35.9823 1.2785
54.0400 35.9955 1.2729
54.0600 36.0089 1.2698
54.0800 36.0222 1.2815
54.1000 36.0356 1.2743
54.1200 36.0489 1.2762
54.1400 36.0622 1.2830
54.1600 36.0755 1.2761
54.1800 36.0889 1.2776
54.2000 36.1022 1.2896
54.2200 36.1155 1.2800
54.2400 36.1289 1.2804
54.2600 36.1423 1.2906
54.2800 36.1556 1.2818
54.3000 36.1689 1.2829
54.3200 36.1822 1.2947
54.3400 36.1956 1.2861
54.3600 36.2089 1.2910
54.3800 36.2223 1.2980
54.4000 36.2356 1.2864
54.4200 36.2489 1.2977
54.4400 36.2622 1.2948
54.4600 36.2755 1.2933
54.4800 36.2888 1.2999
54.5000 36.3022 1.2979
54.5200 36.3155 1.2952
54.5400 36.3289 1.3028
54.5600 36.3422 1.2991
54.5800 36.3556 1.2997
54.6000 36.3689 1.3085
54.6200 36.3822 1.3040
54.6400 36.3956 1.3027
54.6600 36.4089 1.3069
54.6800 36.4222 1.3084
54.7000 36.4356 1.3081
54.7200 36.4489 1.3050
54.7400 36.4623 1.3130
54.7600 36.4756 1.3169
54.7800 36.4889 1.3102
54.8000 36.5023 1.3156
54.8200 36.5156 1.3211
54.8400 36.5289 1.3120
54.8600 36.5422 1.3197
54.8800 36.5555 1.3222
54.9000 36.5688 1.3159
54.9200 36.5822 1.3230
54.9400 36.5955 1.3208
54.9600 36.6088 1.3234
54.9800 36.6222 1.3248
55.0000 36.6356 1.3224
55.0200 36.6490 1.3270
55.0400 36.6623 1.3329
55.0600 36.6756 1.3267
55.0800 36.6890 1.3256
55.1000 36.7023 1.3332
55.1200 36.7156 1.3290
55.1400 36.7288 1.3348
55.1600 36.7422 1.3416
55.1800 36.7555 1.3276
55.2000 36.7689 1.3409
55.2200 36.7822 1.3441
55.2400 36.7955 1.3349
55.2600 36.8088 1.3428
55.2800 36.8222 1.3462
55.3000 36.8355 1.3367
55.3200 36.8489 1.3475
55.3400 36.8623 1.3446
55.3600 36.8756 1.3416
55.3800 36.8890 1.3501
55.4000 36.9023 1.3454
55.4200 36.9156 1.3468
55.4400 36.9290 1.3550
55.4600 36.9423 1.3493
55.4800 36.9556 1.3524
55.5000 36.9689 1.3577
55.5200 36.9822 1.3516
55.5400 36.9955 1.3586
55.5600 37.0089 1.3626
55.5800 37.0222 1.3536
55.6000 37.0355 1.3668
55.6200 37.0488 1.3600
55.6400 37.0622 1.3565
55.6600 37.0755 1.3682
55.6800 37.0889 1.3617
55.7000 37.1022 1.3670
55.7200 37.1156 1.3686
55.7400 37.1289 1.3648
55.7600 37.1423 1.3734
55.7800 37.1556 1.3699
55.8000 37.1690 1.3686
55.8200 37.1823 1.3740
55.8400 37.1956 1.3752
55.8600 37.2089 1.3742
55.8800 37.2222 1.3806
55.9000 37.2356 1.3794
55.9200 37.2489 1.3736
55.9400 37.2622 1.3840
55.9600 37.2755 1.3789
55.9800 37.2888 1.3834
56.0000 37.3022 1.3890
56.0200 37.3155 1.3820
56.0400 37.3289 1.3857
56.0600 37.3423 1.3914
56.0800 37.3556 1.3839
56.1000 37.3689 1.3881
56.1200 37.3823 1.3955
56.1400 37.3956 1.3866
56.1600 37.4089 1.3966
56.1800 37.4223 1.3966
56.2000 37.4356 1.3882
56.2200 37.4489 1.3993
56.2400 37.4622 1.3970
56.2600 37.4756 1.3944
56.2800 37.4889 1.4017
56.3000 37.5022 1.4008
56.3200 37.5155 1.3998
56.3400 37.5289 1.4067
56.3600 37.5422 1.4050
56.3800 37.5555 1.4006
56.4000 37.5688 1.4151
56.4200 37.5822 1.4064
56.4400 37.5956 1.4032
56.4600 37.6089 1.4149
56.4800 37.6222 1.4076
56.5000 37.6356 1.4120
56.5200 37.6489 1.4224
56.5400 37.6623 1.4081
56.5600 37.6756 1.4133
56.5800 37.6889 1.4236
56.6000 37.7022 1.4226
56.6200 37.7156 1.4180
56.6400 37.7289 1.4201
56.6600 37.7422 1.4243
56.6800 37.7555 1.4231
56.7000 37.7688 1.4262
56.7200 37.7822 1.4296
56.7400 37.7955 1.4253
56.7600 37.8089 1.4260
56.7800 37.8222 1.4341
56.8000 37.8356 1.4288
56.8200 37.8489 1.4307
56.8400 37.8622 1.4399
56.8600 37.8755 1.4338
56.8800 37.8889 1.4388
56.9000 37.9023 1.4426
56.9200 37.9156 1.4385
56.9400 37.9289 1.4419
56.9600 37.9423 1.4427
56.9800 37.9556 1.4397
57.0000 37.9689 1.4462
57.0200 37.9822 1.4477
57.0400 37.9955 1.4440
57.0600 38.0088 1.4488
57.0800 38.0222 1.4515
57.1000 38.0355 1.4475
57.1200 38.0488 1.4564
57.1400 38.0622 1.4569
57.1600 38.0756 1.4549
57.1800 38.0890 1.4555
57.2000 38.1023 1.4594
57.2200 38.1156 1.4602
57.2400 38.1290 1.4626
57.2600 38.1423 1.4621
57.2800 38.1556 1.4622
57.3000 38.1689 1.4648
57.3200 38.1822 1.4713
57.3400 38.1955 1.4686
57.3600 38.2088 1.4699
57.3800 38.2222 1.4685
57.4000 38.2355 1.4704
57.4200 38.2489 1.4753
57.4400 38.2622 1.4739
57.4600 38.2756 1.4753
57.4800 38.2889 1.4784
57.5000 38.3023 1.4796
57.5200 38.3156 1.4799
57.5400 38.3290 1.4831
57.5600 38.3423 1.4834
57.5800 38.3556 1.4847
57.6000 38.3689 1.4887
57.6200 38.3823 1.4867
57.6400 38.3956 1.4865
57.6600 38.4089 1.4961
57.6800 38.4222 1.4890
57.7000 38.4355 1.4942
57.7200 38.4489 1.4976
57.7400 38.4622 1.4924
57.7600 38.4755 1.4994
57.7800 38.4888 1.5005
57.8000 38.5022 1.4979
57.8200 38.5156 1.5079
57.8400 38.5289 1.5035
57.8600 38.5422 1.5026
57.8800 38.5556 1.5096
57.9000 38.5689 1.5072
57.9200 38.5822 1.5078
57.9400 38.5956 1.5125
57.9600 38.6089 1.5086
57.9800 38.6223 1.5156
58.0000 38.6356 1.5125
58.0200 38.6489 1.5129
58.0400 38.6622 1.5218
58.0600 38.6756 1.5174
58.0800 38.6889 1.5157
58.1000 38.7022 1.5273
58.1200 38.7155 1.5225
58.1400 38.7288 1.5258
58.1600 38.7422 1.5290
58.1800 38.7555 1.5266
58.2000 38.7689 1.5337
58.2200 38.7822 1.5289
58.2400 38.7956 1.5327
58.2600 38.8090 1.5359
58.2800 38.8223 1.5315
58.3000 38.8356 1.5394
58.3200 38.8489 1.5419
58.3400 38.8623 1.5364
58.3600 38.8756 1.5434
58.3800 38.8889 1.5463
58.4000 38.9022 1.5403
58.4200 38.9156 1.5476
58.4400 38.9289 1.5518
58.4600 38.9422 1.5402
58.4800 38.9555 1.5567
58.5000 38.9689 1.5575
58.5200 38.9822 1.5463
58.5400 38.9956 1.5587
58.5600 39.0089 1.5609
58.5800 39.0222 1.5491
58.6000 39.0356 1.5652
58.6200 39.0489 1.5658
58.6400 39.0622 1.5566
58.6600 39.0756 1.5712
58.6800 39.0889 1.5677
58.7000 39.1023 1.5609
58.7200 39.1156 1.5794
58.7400 39.1289 1.5730
58.7600 39.1422 1.5705
58.7800 39.1555 1.5831
58.8000 39.1689 1.5712
58.8200 39.1822 1.5742
58.8400 39.1955 1.5884
58.8600 39.2088 1.5780
58.8800 39.2222 1.5796
58.9000 39.2356 1.5901
58.9200 39.2489 1.5822
58.9400 39.2622 1.5883
58.9600 39.2756 1.5944
58.9800 39.2890 1.5817
59.0000 39.3023 1.5923
59.0200 39.3156 1.5963
59.0400 39.3289 1.5917
59.0600 39.3423 1.5981
59.0800 39.3556 1.6032
59.1000 39.3689 1.5969
59.1200 39.3822 1.6047
59.1400 39.3955 1.6092
59.1600 39.4089 1.6003
59.1800 39.4222 1.6082
59.2000 39.4355 1.6129
59.2200 39.4488 1.6075
59.2400 39.4622 1.6130
59.2600 39.4755 1.6147
59.2800 39.4889 1.6142
59.3000 39.5022 1.6180
59.3200 39.5156 1.6186
59.3400 39.5289 1.6185
59.3600 39.5423 1.6239
59.3800 39.5556 1.6242
59.4000 39.5689 1.6224
59.4200 39.5823 1.6273
59.4400 39.5956 1.6285
59.4600 39.6089 1.6321
59.4800 39.6222 1.6322
59.5000 39.6355 1.6367
59.5200 39.6488 1.6324
59.5400 39.6622 1.6290
59.5600 39.6755 1.6414
59.5800 39.6888 1.6416
59.6000 39.7022 1.6380
59.6200 39.7156 1.6469
59.6400 39.7289 1.6425
59.6600 39.7422 1.6394
59.6800 39.7556 1.6569
59.7000 39.7690 1.6463
59.7200 39.7823 1.6489
59.7400 39.7956 1.6619
59.7600 39.8089 1.6467
59.7800 39.8222 1.6593
59.8000 39.8356 1.6617
59.8200 39.8489 1.6539
59.8400 39.8622 1.6681
59.8600 39.8756 1.6695
59.8800 39.8889 1.6590
59.9000 39.9023 1.6695
59.9200 39.9156 1.6722
59.9400 39.9289 1.6657
59.9600 39.9422 1.6755
59.9800 39.9555 1.6726
60.0000 39.9688 1.6706
60.0200 39.9822 1.6784
60.0400 39.9955 1.6746
60.0470 40.0001 1.6622
60.0480 40.0007 1.6594
60.0490 40.0014 1.6568
60.0690 40.0118 1.5788
60.0890 40.0140 1.5161
60.1090 40.0057 1.6138
60.1290 39.9928 1.6947
60.1490 39.9799 1.6635
60.1690 39.9671 1.6437
60.1890 39.9536 1.6658
60.2090 39.9396 1.6482
60.2290 39.9256 1.6472
60.2490 39.9118 1.6600
60.2690 39.8983 1.6354
60.2890 39.8850 1.6403
60.3090 39.8717 1.6342
60.3290 39.8584 1.6283
60.3490 39.8451 1.6296
60.3690 39.8317 1.6198
60.3890 39.8183 1.6191
60.4090 39.8050 1.6166
60.4290 39.7916 1.6106
60.4490 39.7783 1.6057
60.4690 39.7649 1.6086
60.4890 39.7516 1.6000
60.5090 39.7383 1.5920
60.5290 39.7249 1.6007
60.5490 39.7116 1.5913
60.5690 39.6982 1.5879
60.5890 39.6849 1.5929
60.6090 39.6716 1.5784
60.6290 39.6582 1.5806
60.6490 39.6449 1.5800
60.6690 39.6316 1.5712
60.6890 39.6183 1.5725
60.7090 39.6050 1.5715
60.7290 39.5916 1.5620
60.7490 39.5783 1.5661
60.7690 39.5650 1.5632
60.7890 39.5517 1.5501
60.8090 39.5383 1.5541
60.8290 39.5249 1.5548
60.8490 39.5116 1.5400
60.8690 39.4983 1.5472
60.8890 39.4849 1.5420
60.9090 39.4715 1.5342
60.9290 39.4582 1.5356
60.9490 39.4449 1.5372
60.9690 39.4316 1.5257
60.9890 39.4183 1.5259
61.0090 39.4049 1.5296
61.0290 39.3916 1.5172
61.0490 39.3783 1.5202
61.0690 39.3650 1.5237
61.0890 39.3516 1.5063
61.1090 39.3383 1.5126
61.1290 39.3250 1.5147
61.1490 39.3116 1.4984
61.1690 39.2983 1.5071
61.1890 39.2849 1.5093
61.2090 39.2716 1.4894
61.2290 39.2583 1.4994
61.2490 39.2449 1.4971
61.2690 39.2316 1.4793
61.2890 39.2182 1.4957
61.3090 39.2049 1.4879
61.3290 39.1916 1.4757
61.3490 39.1782 1.4845
61.3690 39.1649 1.4772
61.3890 39.1516 1.4717
61.4090 39.1383 1.4789
61.4290 39.1250 1.4688
61.4490 39.1116 1.4638
61.4690 39.0983 1.4739
61.4890 39.0849 1.4592
61.5090 39.0716 1.4556
61.5290 39.0582 1.4672
61.5490 39.0448 1.4508
61.5690 39.0315 1.4549
61.5890 39.0182 1.4571
61.6090 39.0049 1.4447
61.6290 38.9916 1.4440
61.6490 38.9782 1.4460
61.6690 38.9649 1.4432
61.6890 38.9516 1.4344
61.7090 38.9382 1.4355
61.7290 38.9249 1.4369
61.7490 38.9116 1.4258
61.7690 38.8983 1.4365
61.7890 38.8849 1.4267
61.8090 38.8716 1.4214
61.8290 38.8582 1.4287
61.8490 38.8449 1.4188
61.8690 38.8316 1.4165
61.8890 38.8182 1.4213
61.9090 38.8049 1.4103
61.9290 38.7915 1.4068
61.9490 38.7782 1.4165
61.9690 38.7649 1.4057
61.9890 38.7515 1.3989
62.0090 38.7382 1.4143
62.0290 38.7249 1.4028
62.0490 38.7116 1.3917
62.0690 38.6983 1.4028
62.0890 38.6849 1.3876
62.1090 38.6716 1.3930
62.1290 38.6583 1.3953
62.1490 38.6450 1.3812
62.1690 38.6316 1.3876
62.1890 38.6182 1.3935
62.2090 38.6049 1.3756
62.2290 38.5916 1.3772
62.2490 38.5782 1.3847
62.2690 38.5649 1.3685
62.2890 38.5516 1.3695
62.3090 38.5382 1.3804
62.3290 38.5249 1.3600
62.3490 38.5116 1.3706
62.3690 38.4982 1.3741
62.3890 38.4849 1.3558
62.4090 38.4716 1.3628
62.4290 38.4582 1.3681
62.4490 38.4449 1.3504
62.4690 38.4316 1.3536
62.4890 38.4183 1.3599
62.5090 38.4050 1.3424
62.5290 38.3916 1.3524
62.5490 38.3783 1.3535
62.5690 38.3650 1.3400
62.5890 38.3516 1.3440
62.6090 38.3383 1.3441
62.6290 38.3249 1.3377
62.6490 38.3115 1.3360
62.6690 38.2982 1.3411
62.6890 38.2849 1.3291
62.7090 38.2715 1.3287
62.7290 38.2582 1.3397
62.7490 38.2448 1.3258
62.7690 38.2315 1.3266
62.7890 38.2182 1.3279
62.8090 38.2049 1.3180
62.8290 38.1916 1.3256
62.8490 38.1783 1.3210
62.8690 38.1649 1.3121
62.8890 38.1516 1.3204
62.9090 38.1382 1.3207
62.9290 38.1249 1.3081
62.9490 38.1116 1.3096
62.9690 38.0983 1.3153
62.9890 38.0849 1.3009
63.0090 38.0715 1.3059
63.0290 38.0582 1.3066
63.0490 38.0449 1.2951
63.0690 38.0315 1.2987
63.0890 38.0182 1.3016
63.1090 38.0048 1.2937
63.1290 37.9915 1.2937
63.1490 37.9782 1.2957
63.1690 37.9649 1.2896
63.1890 37.9516 1.2878
63.2090 37.9383 1.2915
63.2290 37.9250 1.2813
63.2490 37.9116 1.2866
63.2690 37.8983 1.2838
63.2890 37.8849 1.2770
63.3090 37.8716 1.2819
63.3290 37.8582 1.2788
63.3490 37.8449 1.2696
63.3690 37.8315 1.2744
63.3890 37.8182 1.2733
63.4090 37.8049 1.2630
63.4290 37.7915 1.2727
63.4490 37.7782 1.2702
63.4690 37.7649 1.2593
63.4890 37.7516 1.2669
63.5090 37.7382 1.2572
63.5290 37.7249 1.2571
63.5490 37.7116 1.2668
63.5690 37.6983 1.2552
63.5890 37.6850 1.2517
63.6090 37.6716 1.2582
63.6290 37.6583 1.2559
63.6490 37.6449 1.2446
63.6690 37.6316 1.2495
63.6890 37.6183 1.2476
63.7090 37.6049 1.2424
63.7290 37.5915 1.2481
63.7490 37.5782 1.2466
63.7690 37.5649 1.2378
63.7890 37.5516 1.2416
63.8090 37.5382 1.2374
63.8290 37.5249 1.2390
63.8490 37.5116 1.2336
63.8690 37.4982 1.2381
63.8890 37.4849 1.2277
63.9090 37.4716 1.2336
63.9290 37.4583 1.2322
63.9490 37.4449 1.2198
63.9690 37.4316 1.2299
63.9890 37.4182 1.2296
64.0090 37.4049 1.2147
64.0290 37.3916 1.2207
64.0490 37.3783 1.2230
64.0690 37.3649 1.2068
64.0890 37.3515 1.2214
64.1090 37.3382 1.2206
64.1290 37.3249 1.2007
64.1490 37.3116 1.2175
64.1690 37.2982 1.2136
64.1890 37.2848 1.2004
64.2090 37.2715 1.2149
64.2290 37.2582 1.2052
64.2490 37.2449 1.1996
64.2690 37.2315 1.2099
64.2890 37.2183 1.1999
64.3090 37.2050 1.1940
64.3290 37.1916 1.2063
64.3490 37.1783 1.1947
64.3690 37.1649 1.1933
64.3890 37.1516 1.2010
64.4090 37.1383 1.1878
64.4290 37.1249 1.1841
64.4490 37.1116 1.1987
64.4690 37.0982 1.1886
64.4890 37.0849 1.1812
64.5090 37.0716 1.1916
64.5290 37.0582 1.1811
64.5490 37.0448 1.1774
64.5690 37.0315 1.1893
64.5890 37.0182 1.1741
64.6090 37.0049 1.1758
64.6290 36.9915 1.1811
64.6490 36.9782 1.1697
64.6690 36.9650 1.1762
64.6890 36.9516 1.1775
64.7090 36.9383 1.1661
64.7290 36.9250 1.1733
64.7490 36.9117 1.1669
64.7690 36.8983 1.1609
64.7890 36.8849 1.1704
64.8090 36.8715 1.1685
64.8290 36.8582 1.1626
64.8490 36.8449 1.1651
64.8690 36.8315 1.1594
64.8890 36.8182 1.1588
64.9090 36.8048 1.1578
64.9290 36.7915 1.1608
64.9490 36.7782 1.1561
64.9690 36.7649 1.1506
64.9890 36.7516 1.1560
65.0090 36.7383 1.1528
65.0290 36.7250 1.1463
65.0490 36.7116 1.1533
65.0690 36.6983 1.1462
65.0890 36.6849 1.1452
65.1090 36.6716 1.1532
65.1290 36.6583 1.1383
65.1490 36.6449 1.1423
65.1690 36.6315 1.1490
65.1890 36.6182 1.1357
65.2090 36.6049 1.1343
65.2290 36.5916 1.1435
65.2490 36.5782 1.1323
65.2690 36.5648 1.1349
65.2890 36.5515 1.1398
65.3090 36.5382 1.1284
65.3290 36.5249 1.1317
65.3490 36.5116 1.1369
65.3690 36.4983 1.1245
65.3890 36.4850 1.1281
65.4090 36.4716 1.1299
65.4290 36.4583 1.1212
65.4490 36.4449 1.1269
65.4690 36.4316 1.1292
65.4890 36.4182 1.1138
65.5090 36.4049 1.1232
65.5290 36.3915 1.1209
65.5490 36.3782 1.1149
65.5690 36.3649 1.1177
65.5890 36.3516 1.1209
65.6090 36.3382 1.1089
65.6290 36.3249 1.1136
65.6490 36.3116 1.1190
65.6690 36.2983 1.1031
65.6890 36.2849 1.1140
65.7090 36.2716 1.1101
65.7290 36.2583 1.1008
65.7490 36.2450 1.1037
65.7690 36.2316 1.1062
65.7890 36.2183 1.0975
65.8090 36.2049 1.1039
65.8290 36.1916 1.1064
65.8490 36.1783 1.0893
65.8690 36.1649 1.1017
65.8890 36.1515 1.1013
65.9090 36.1382 1.0913
65.9290 36.1249 1.1018
65.9490 36.1116 1.0903
65.9690 36.0982 1.0907
65.9890 36.0849 1.0969
66.0090 36.0715 1.0929
66.0290 36.0582 1.0857
66.0490 36.0449 1.0925
66.0690 36.0316 1.0866
66.0890 36.0183 1.0826
66.1090 36.0050 1.0874
66.1290 35.9916 1.0817
66.1490 35.9783 1.0806
66.1690 35.9649 1.0842
66.1890 35.9516 1.0781
66.2090 35.9383 1.0755
66.2290 35.9249 1.0780
66.2490 35.9115 1.0784
66.2690 35.8982 1.0730
66.2890 35.8849 1.0789
66.3090 35.8716 1.0749
66.3290 35.8582 1.0649
66.3490 35.8448 1.0726
66.3690 35.8315 1.0727
66.3890 35.8182 1.0662
66.4090 35.8049 1.0676
66.4290 35.7916 1.0713
66.4490 35.7783 1.0664
66.4690 35.7650 1.0591
66.4890 35.7517 1.0678
66.5090 35.7383 1.0594
66.5290 35.7249 1.0624
66.5490 35.7116 1.0643
66.5690 35.6983 1.0539
66.5890 35.6849 1.0564
66.6090 35.6715 1.0613
66.6290 35.6582 1.0556
66.6490 35.6449 1.0561
66.6690 35.6316 1.0560
66.6890 35.6182 1.0504
66.7090 35.6048 1.0535
66.7290 35.5915 1.0502
66.7490 35.5782 1.0457
66.7690 35.5649 1.0542
66.7890 35.5516 1.0455
66.8090 35.5382 1.0446
66.8290 35.5249 1.0504
66.8490 35.5116 1.0390
66.8690 35.4983 1.0451
66.8890 35.4849 1.0439
66.9090 35.4716 1.0389
66.9290 35.4583 1.0419
66.9490 35.4449 1.0396
66.9690 35.4315 1.0379
66.9890 35.4182 1.0364
67.0090 35.4049 1.0401
67.0290 35.3915 1.0352
67.0490 35.3782 1.0357
67.0690 35.3648 1.0364
67.0890 35.3515 1.0290
67.1090 35.3382 1.0373
67.1290 35.3249 1.0306
67.1490 35.3116 1.0270
67.1690 35.2983 1.0300
67.1890 35.2850 1.0283
67.2090 35.2716 1.0233
67.2290 35.2583 1.0275
67.2490 35.2449 1.0265
67.2690 35.2316 1.0243
67.2890 35.2183 1.0244
67.3090 35.2049 1.0193
67.3290 35.1915 1.0210
67.3490 35.1782 1.0250
67.3690 35.1649 1.0160
67.3890 35.1516 1.0149
67.4090 35.1382 1.0203
67.4290 35.1249 1.0147
67.4490 35.1115 1.0203
67.4690 35.0982 1.0156
67.4890 35.0849 1.0101
67.5090 35.0716 1.0147
67.5290 35.0582 1.0131
67.5490 35.0449 1.0127
67.5690 35.0316 1.0093
67.5890 35.0183 1.0109
67.6090 35.0049 1.0085
67.6290 34.9916 1.0069
67.6490 34.9783 1.0043
67.6690 34.9649 1.0020
67.6890 34.9516 1.0059
67.7090 34.9382 1.0030
67.7290 34.9249 1.0020
67.7490 34.9116 1.0038
67.7690 34.8982 1.0017
67.7890 34.8849 0.9980
67.8090 34.8715 1.0008
67.8290 34.8582 0.9972
67.8490 34.8449 0.9935
67.8690 34.8315 0.9982
67.8890 34.8182 0.9967
67.9090 34.8049 0.9920
67.9290 34.7916 0.9948
67.9490 34.7783 0.9942
67.9690 34.7649 0.9929
67.9890 34.7516 0.9919
68.0090 34.7383 0.9892
68.0290 34.7250 0.9897
68.0490 34.7116 0.9890
68.0690 34.6982 0.9861
68.0890 34.6849 0.9941
68.1090 34.6716 0.9815
68.1290 34.6582 0.9809
68.1490 34.6449 0.9946
68.1690 34.6315 0.9802
68.1890 34.6182 0.9792
68.2090 34.6049 0.9884
68.2290 34.5916 0.9733
68.2490 34.5782 0.9797
68.2690 34.5649 0.9870
68.2890 34.5516 0.9672
68.3090 34.5383 0.9759
68.3290 34.5249 0.9822
68.3490 34.5116 0.9669
68.3690 34.4983 0.9725
68.3890 34.4849 0.9808
68.4090 34.4715 0.9666
68.4290 34.4582 0.9713
68.4490 34.4449 0.9769
68.4690 34.4315 0.9607
68.4890 34.4182 0.9722
68.5090 34.4049 0.9767
68.5290 34.3915 0.9587
68.5490 34.3782 0.9664
68.5690 34.3649 0.9690
68.5890 34.3515 0.9566
68.6090 34.3382 0.9689
68.6290 34.3249 0.9687
68.6490 34.3116 0.9495
68.6690 34.2983 0.9654
68.6890 34.2849 0.9636
68.7090 34.2716 0.9488
68.7290 34.2583 0.9650
68.7490 34.2449 0.9599
68.7690 34.2315 0.9491
68.7890 34.2182 0.9593
68.8090 34.2049 0.9539
68.8290 34.1916 0.9512
68.8490 34.1782 0.9536
68.8690 34.1649 0.9473
68.8890 34.1516 0.9497
68.9090 34.1383 0.9508
68.9290 34.1249 0.9456
68.9490 34.1116 0.9493
68.9690 34.0983 0.9498
68.9890 34.0849 0.9438
69.0090 34.0716 0.9450
69.0290 34.0583 0.9454
69.0490 34.0449 0.9475
69.0690 34.0316 0.9443
69.0890 34.0183 0.9395
69.1090 34.0049 0.9391
69.1290 33.9916 0.9410
69.1490 33.9782 0.9383
69.1690 33.9649 0.9368
69.1890 33.9516 0.9377
69.2090 33.9382 0.9364
69.2290 33.9249 0.9340
69.2490 33.9115 0.9334
69.2690 33.8983 0.9401
69.2890 33.8849 0.9338
69.3090 33.8716 0.9247
69.3290 33.8583 0.9348
69.3490 33.8450 0.9309
69.3690 33.8316 0.9241
69.3890 33.8183 0.9298
69.4090 33.8049 0.9306
69.4290 33.7916 0.9234
69.4490 33.7783 0.9276
69.4690 33.7649 0.9233
69.4890 33.7516 0.9254
69.5090 33.7382 0.9290
69.5290 33.7249 0.9163
69.5490 33.7116 0.9178
69.5690 33.6982 0.9245
69.5890 33.6849 0.9185
69.6090 33.6715 0.9209
69.6290 33.6582 0.9181
69.6490 33.6449 0.9186
69.6690 33.6316 0.9190
69.6890 33.6182 0.9179
69.7090 33.6049 0.9139
69.7290 33.5916 0.9156
69.7490 33.5783 0.9130
69.7690 33.5649 0.9115
69.7890 33.5516 0.9154
69.8090 33.5383 0.9106
69.8290 33.5249 0.9117
69.8490 33.5116 0.9106
69.8690 33.4982 0.9065
69.8890 33.4849 0.9097
69.9090 33.4716 0.9061
69.9290 33.4582 0.9077
69.9490 33.4448 0.9065
69.9690 33.4315 0.9085
69.9890 33.4182 0.9059
70.0090 33.4049 0.9018
70.0290 33.3916 0.9078
70.0490 33.3782 0.9011
70.0690 33.3649 0.9050
70.0890 33.3516 0.9012
70.1090 33.3383 0.9004
70.1290 33.3249 0.9023
70.1490 33.3116 0.8980
70.1690 33.2983 0.8969
70.1890 33.2850 0.8994
70.2090 33.2716 0.8983
70.2290 33.2582 0.8926
70.2490 33.2449 0.8989
70.2690 33.2315 0.8949
70.2890 33.2182 0.8868
70.3090 33.2048 0.9018
70.3290 33.1915 0.8895
70.3490 33.1782 0.8893
70.3690 33.1649 0.8964
70.3890 33.1516 0.8856
70.4090 33.1382 0.8883
70.4290 33.1250 0.8942
70.4490 33.1117 0.8859
70.4690 33.0983 0.8823
70.4890 33.0850 0.8930
70.5090 33.0716 0.8829
70.5290 33.0583 0.8803
70.5490 33.0449 0.8922
70.5690 33.0316 0.8807
70.5890 33.0182 0.8813
70.6090 33.0049 0.8828
70.6290 32.9915 0.8756
70.6490 32.9782 0.8793
70.6690 32.9649 0.8809
70.6890 32.9515 0.8791
70.7090 32.9382 0.8752
70.7290 32.9249 0.8793
70.7490 32.9116 0.8720
70.7690 32.8982 0.8762
70.7890 32.8849 0.8778
70.8090 32.8716 0.8701
70.8290 32.8583 0.8767
70.8490 32.8449 0.8729
70.8690 32.8316 0.8718
70.8890 32.8183 0.8742
70.9090 32.8049 0.8673
70.9290 32.7916 0.8720
70.9490 32.7782 0.8707
70.9690 32.7648 0.8696
70.9890 32.7515 0.8667
71.0090 32.7382 0.8692
71.0290 32.7249 0.8617
71.0490 32.7115 0.8703
71.0690 32.6982 0.8701
71.0890 32.6849 0.8578
71.1090 32.6716 0.8665
71.1290 32.6582 0.8663
71.1490 32.6449 0.8567
71.1690 32.6316 0.8700
71.1890 32.6183 0.8572
71.2090 32.6049 0.8530
71.2290 32.5916 0.8716
71.2490 32.5783 0.8574
71.2690 32.5650 0.8510
71.2890 32.5516 0.8693
71.3090 32.5382 0.8541
71.3290 32.5249 0.8533
71.3490 32.5116 0.8640
71.3690 32.4982 0.8471
71.3890 32.4849 0.8543
71.4090 32.4715 0.8620
71.4290 32.4582 0.8457
71.4490 32.4449 0.8537
71.4690 32.4316 0.8568
71.4890 32.4182 0.8472
71.5090 32.4049 0.8491
71.5290 32.3916 0.8528
71.5490 32.3783 0.8462
71.5690 32.3649 0.8476
71.5890 32.3516 0.8521
71.6090 32.3382 0.8409
71.6290 32.3249 0.8440
71.6490 32.3116 0.8516
71.6690 32.2982 0.8396
71.6890 32.2849 0.8426
71.7090 32.2716 0.8514
71.7290 32.2583 0.8374
71.7490 32.2449 0.8375
71.7690 32.2315 0.8504
71.7890 32.2182 0.8387
71.8090 32.2049 0.8305
71.8290 32.1915 0.8517
71.8490 32.1782 0.8325
71.8690 32.1649 0.8316
71.8890 32.1516 0.8445
71.9090 32.1383 0.8293
71.9290 32.1249 0.8366
71.9490 32.1116 0.8401
71.9690 32.0983 0.8308
71.9890 32.0850 0.8344
72.0090 32.0716 0.8374
72.0290 32.0582 0.8267
72.0490 32.0449 0.8315
72.0690 32.0315 0.8363
72.0890 32.0182 0.8210
72.1090 32.0049 0.8304
72.1290 31.9915 0.8329
72.1490 31.9782 0.8249
72.1690 31.9649 0.8269
72.1890 31.9516 0.8293
72.2090 31.9382 0.8247
72.2290 31.9249 0.8259
72.2490 31.9116 0.8272
72.2690 31.8983 0.8198
72.2890 31.8849 0.8251
72.3090 31.8716 0.8284
72.3290 31.8582 0.8152
72.3490 31.8449 0.8248
72.3690 31.8316 0.8229
72.3890 31.8182 0.8133
72.4090 31.8048 0.8266
72.4290 31.7915 0.8194
72.4490 31.7782 0.8124
72.4690 31.7649 0.8215
72.4890 31.7515 0.8188
72.5090 31.7382 0.8176
72.5290 31.7249 0.8175
72.5490 31.7116 0.8154
72.5690 31.6982 0.8151
72.5890 31.6849 0.8182
72.6090 31.6716 0.8168
72.6290 31.6583 0.8115
72.6490 31.6449 0.8137
72.6690 31.6316 0.8151
72.6890 31.6182 0.8140
72.7090 31.6049 0.8105
72.7290 31.5916 0.8139
72.7490 31.5782 0.8081
72.7690 31.5648 0.8094
72.7890 31.5515 0.8148
72.8090 31.5382 0.8084
72.8290 31.5249 0.8049
72.8490 31.5116 0.8122
72.8690 31.4982 0.8093
72.8890 31.4849 0.8016
72.9090 31.4716 0.8106
72.9290 31.4582 0.8054
72.9490 31.4449 0.8005
72.9690 31.4316 0.8144
72.9890 31.4183 0.7996
73.0090 31.4050 0.7993
73.0290 31.3916 0.8151
73.0490 31.3782 0.7973
73.0690 31.3649 0.8011
73.0890 31.3516 0.8100
73.1090 31.3382 0.7884
73.1290 31.3249 0.7986
73.1490 31.3115 0.8107
73.1690 31.2982 0.7880
73.1890 31.2849 0.8015
73.2090 31.2716 0.8079
73.2290 31.2582 0.7856
73.2490 31.2449 0.8009
73.2690 31.2316 0.8048
73.2890 31.2183 0.7890
73.3090 31.2049 0.7962
73.3290 31.1916 0.7948
73.3490 31.1783 0.7876
73.3690 31.1649 0.7953
73.3890 31.1516 0.7926
73.4090 31.1382 0.7847
73.4290 31.1249 0.7963
73.4490 31.1116 0.7890
73.4690 31.0982 0.7841
73.4890 31.0849 0.7931
73.5090 31.0715 0.7904
73.5290 31.0582 0.7822
73.5490 31.0449 0.7888
73.5690 31.0315 0.7915
73.5890 31.0182 0.7814
73.6090 31.0049 0.7865
73.6290 30.9916 0.7876
73.6490 30.9782 0.7798
73.6690 30.9649 0.7870
73.6890 30.9516 0.7841
73.7090 30.9383 0.7744
73.7290 30.9250 0.7855
73.7490 30.9116 0.7844
73.7690 30.8982 0.7753
73.7890 30.8849 0.7854
73.8090 30.8716 0.7763
73.8290 30.8582 0.7729
73.8490 30.8449 0.7876
73.8690 30.8315 0.7761
73.8890 30.8182 0.7717
73.9090 30.8049 0.7855
73.9290 30.7915 0.7712
73.9490 30.7782 0.7785
73.9690 30.7649 0.7798
73.9890 30.7516 0.7671
74.0090 30.7382 0.7769
74.0290 30.7249 0.7780
74.0490 30.7116 0.7678
74.0690 30.6983 0.7727
74.0890 30.6850 0.7768
74.1090 30.6716 0.7643
74.1290 30.6583 0.7777
74.1490 30.6449 0.7722
74.1690 30.6316 0.7613
74.1890 30.6182 0.7757
74.2090 30.6049 0.7670
74.2290 30.5915 0.7644
74.2490 30.5782 0.7725
74.2690 30.5649 0.7638
74.2890 30.5515 0.7661
74.3090 30.5382 0.7646
74.3290 30.5249 0.7682
74.3490 30.5116 0.7636
74.3690 30.4983 0.7626
74.3890 30.4849 0.7639
74.4090 30.4716 0.7682
74.4290 30.4583 0.7579
74.4490 30.4450 0.7641
74.4690 30.4316 0.7653
74.4890 30.4182 0.7559
74.5090 30.4049 0.7662
74.5290 30.3916 0.7590
74.5490 30.3782 0.7533
74.5690 30.3649 0.7663
74.5890 30.3515 0.7538
74.6090 30.3383 0.7554
74.6290 30.3249 0.7620
74.6490 30.3116 0.7492
74.6690 30.2982 0.7568
74.6890 30.2849 0.7629
74.7090 30.2716 0.7453
74.7290 30.2582 0.7565
74.7490 30.2449 0.7601
74.7690 30.2316 0.7409
74.7890 30.2183 0.7586
74.8090 30.2049 0.7559
74.8290 30.1916 0.7374
74.8490 30.1782 0.7575
74.8690 30.1649 0.7526
74.8890 30.1516 0.7334
74.9090 30.1382 0.7607
74.9290 30.1249 0.7477
74.9490 30.1115 0.7372
74.9690 30.0982 0.7602
74.9890 30.0849 0.7430
75.0090 30.0715 0.7355
75.0290 30.0582 0.7602
75.0490 30.0449 0.7417
75.0690 30.0316 0.7335
75.0890 30.0182 0.7542
75.1090 30.0049 0.7391
75.1290 29.9915 0.7367
75.1490 29.9782 0.7542
75.1690 29.9649 0.7366
75.1890 29.9516 0.7356
75.2090 29.9383 0.7502
75.2290 29.9250 0.7376
75.2490 29.9116 0.7349
75.2690 29.8983 0.7434
75.2890 29.8849 0.7351
75.3090 29.8715 0.7350
75.3290 29.8582 0.7421
75.3490 29.8449 0.7320
75.3690 29.8315 0.7348
75.3890 29.8182 0.7367
75.4090 29.8049 0.7316
75.4290 29.7916 0.7336
75.4490 29.7783 0.7359
75.4690 29.7649 0.7335
75.4890 29.7516 0.7302
75.5090 29.7383 0.7342
75.5290 29.7250 0.7321
75.5490 29.7116 0.7292
75.5690 29.6983 0.7374
75.5890 29.6849 0.7298
75.6090 29.6716 0.7240
75.6290 29.6583 0.7329
75.6490 29.6449 0.7290
75.6690 29.6315 0.7239
75.6890 29.6182 0.7327
75.7090 29.6049 0.7265
75.7290 29.5916 0.7183
75.7490 29.5782 0.7345
75.7690 29.5648 0.7263
75.7890 29.5515 0.7146
75.8090 29.5382 0.7343
75.8290 29.5249 0.7234
75.8490 29.5116 0.7153
75.8690 29.4983 0.7328
75.8890 29.4849 0.7202
75.9090 29.4716 0.7137
75.9290 29.4582 0.7340
75.9490 29.4449 0.7186
75.9690 29.4316 0.7148
75.9890 29.4182 0.7276
76.0090 29.4049 0.7191
76.0290 29.3915 0.7155
76.0490 29.3782 0.7238
76.0690 29.3649 0.7144
76.0890 29.3516 0.7097
76.1090 29.3382 0.7264
76.1290 29.3249 0.7141
76.1490 29.3116 0.7099
76.1690 29.2983 0.7209
76.1890 29.2849 0.7147
76.2090 29.2716 0.7121
76.2290 29.2583 0.7166
76.2490 29.2450 0.7155
76.2690 29.2316 0.7094
76.2890 29.2182 0.7157
76.3090 29.2049 0.7169
76.3290 29.1916 0.7064
76.3490 29.1782 0.7136
76.3690 29.1649 0.7151
76.3890 29.1515 0.7072
76.4090 29.1382 0.7101
76.4290 29.1249 0.7142
76.4490 29.1115 0.7018
76.4690 29.0982 0.7098
76.4890 29.0849 0.7134
76.5090 29.0716 0.7002
76.5290 29.0583 0.7092
76.5490 29.0449 0.7150
76.5690 29.0316 0.6961
76.5890 29.0183 0.7110
76.6090 29.0050 0.7113
76.6290 28.9916 0.6965
76.6490 28.9782 0.7095
76.6690 28.9649 0.7036
76.6890 28.9516 0.6928
76.7090 28.9382 0.7107
76.7290 28.9249 0.7031
76.7490 28.9115 0.6914
76.7690 28.8982 0.7069
76.7890 28.8849 0.7032
76.8090 28.8716 0.6884
76.8290 28.8582 0.7086
76.8490 28.8449 0.6991
76.8690 28.8316 0.6929
76.8890 28.8183 0.7021
76.9090 28.8049 0.6934
76.9290 28.7916 0.6940
76.9490 28.7783 0.7004
76.9690 28.7649 0.6935
76.9890 28.7516 0.6892
77.0090 28.7383 0.6998
77.0290 28.7249 0.6938
77.0490 28.7116 0.6893
77.0690 28.6983 0.6937
77.0890 28.6849 0.6958
77.1090 28.6715 0.6891
77.1290 28.6582 0.6905
77.1490 28.6449 0.6957
77.1690 28.6315 0.6873
77.1890 28.6182 0.6917
77.2090 28.6048 0.6924
77.2290 28.5916 0.6869
77.2490 28.5782 0.6896
77.2690 28.5649 0.6895
77.2890 28.5516 0.6872
77.3090 28.5383 0.6855
77.3290 28.5249 0.6948
77.3490 28.5116 0.6823
77.3690 28.4983 0.6841
77.3890 28.4849 0.6899
77.4090 28.4716 0.6808
77.4290 28.4583 0.6819
77.4490 28.4449 0.6841
77.4690 28.4315 0.6818
77.4890 28.4182 0.6870
77.5090 28.4049 0.6837
77.5290 28.3915 0.6814
77.5490 28.3782 0.6815
77.5690 28.3648 0.6844
77.5890 28.3515 0.6734
77.6090 28.3382 0.6830
77.6290 28.3249 0.6845
77.6490 28.3116 0.6762
77.6690 28.2983 0.6775
77.6890 28.2850 0.6831
77.7090 28.2716 0.6752
77.7290 28.2583 0.6768
77.7490 28.2449 0.6758
77.7690 28.2316 0.6751
77.7890 28.2183 0.6762
77.8090 28.2049 0.6714
77.8290 28.1915 0.6792
77.8490 28.1782 0.6769
77.8690 28.1649 0.6703
77.8890 28.1516 0.6706
77.9090 28.1382 0.6720
77.9290 28.1248 0.6696
77.9490 28.1115 0.6734
77.9690 28.0982 0.6692
77.9890 28.0849 0.6704
78.0090 28.0716 0.6744
78.0290 28.0583 0.6653
78.0490 28.0449 0.6712
78.0690 28.0316 0.6706
78.0890 28.0182 0.6631
78.1090 28.0049 0.6712
78.1290 27.9916 0.6648
78.1490 27.9783 0.6622
78.1690 27.9649 0.6707
78.1890 27.9515 0.6653
78.2090 27.9382 0.6592
78.2290 27.9249 0.6716
78.2490 27.9115 0.6627
78.2690 27.8982 0.6583
78.2890 27.8848 0.6663
78.3090 27.8715 0.6612
78.3290 27.8582 0.6594
78.3490 27.8449 0.6616
78.3690 27.8316 0.6631
78.3890 27.8183 0.6596
78.4090 27.8049 0.6577
78.4290 27.7916 0.6610
78.4490 27.7782 0.6599
78.4690 27.7649 0.6617
78.4890 27.7516 0.6576
78.5090 27.7383 0.6554
78.5290 27.7249 0.6568
78.5490 27.7116 0.6631
78.5690 27.6982 0.6553
78.5890 27.6849 0.6562
78.6090 27.6716 0.6595
78.6290 27.6582 0.6517
78.6490 27.6449 0.6564
78.6690 27.6315 0.6557
78.6890 27.6182 0.6495
78.7090 27.6049 0.6539
78.7290 27.5916 0.6540
78.7490 27.5783 0.6528
78.7690 27.5650 0.6512
78.7890 27.5516 0.6531
78.8090 27.5383 0.6505
78.8290 27.5249 0.6491
78.8490 27.5116 0.6516
78.8690 27.4982 0.6475
78.8890 27.4849 0.6496
78.9090 27.4716 0.6508
78.9290 27.4582 0.6500
78.9490 27.4449 0.6458
78.9690 27.4316 0.6483
78.9890 27.4182 0.6498
79.0090 27.4048 0.6444
79.0290 27.3915 0.6505
79.0490 27.3782 0.6464
79.0690 27.3649 0.6419
79.0890 27.3515 0.6508
79.1090 27.3382 0.6446
79.1290 27.3249 0.6422
79.1490 27.3116 0.6471
79.1690 27.2983 0.6468
79.1890 27.2849 0.6368
79.2090 27.2716 0.6492
79.2290 27.2583 0.6429
79.2490 27.2449 0.6352
79.2690 27.2315 0.6467
79.2890 27.2182 0.6420
79.3090 27.2049 0.6284
79.3290 27.1915 0.6467
79.3490 27.1782 0.6409
79.3690 27.1648 0.6339
79.3890 27.1515 0.6431
79.4090 27.1382 0.6358
79.4290 27.1249 0.6348
79.4490 27.1116 0.6457
79.4690 27.0983 0.6320
79.4890 27.0850 0.6341
79.5090 27.0716 0.6396
79.5290 27.0583 0.6293
79.5490 27.0449 0.6389
79.5690 27.0316 0.6395
79.5890 27.0183 0.6313
79.6090 27.0049 0.6369
79.6290 26.9915 0.6343
79.6490 26.9782 0.6326
79.6690 26.9649 0.6336
79.6890 26.9516 0.6335
79.7090 26.9382 0.6313
79.7290 26.9248 0.6305
79.7490 26.9115 0.6328
79.7690 26.8982 0.6276
79.7890 26.8849 0.6320
79.8090 26.8716 0.6353
79.8290 26.8583 0.6294
79.8490 26.8450 0.6281
79.8690 26.8316 0.6353
79.8890 26.8183 0.6299
79.9090 26.8049 0.6286
79.9290 26.7916 0.6306
79.9490 26.7782 0.6250
79.9690 26.7649 0.6221
79.9890 26.7515 0.6325
80.0090 26.7382 0.6245
80.0290 26.7249 0.6223
80.0490 26.7116 0.6311
80.0690 26.6982 0.6270
80.0890 26.6849 0.6216
80.1090 26.6716 0.6304
80.1290 26.6583 0.6229
80.1490 26.6449 0.6188
80.1690 26.6316 0.6280
80.1890 26.6182 0.6239
80.2090 26.6049 0.6190
80.2290 26.5916 0.6296
80.2490 26.5783 0.6147
80.2690 26.5649 0.6175
80.2890 26.5516 0.6324
80.3090 26.5383 0.6155
80.3290 26.5249 0.6152
80.3490 26.5115 0.6303
80.3690 26.4982 0.6145
80.3890 26.4849 0.6172
80.4090 26.4716 0.6300
80.4290 26.4582 0.6136
80.4490 26.4449 0.6204
80.4690 26.4315 0.6238
80.4890 26.4182 0.6128
80.5090 26.4049 0.6164
80.5290 26.3916 0.6274
80.5490 26.3783 0.6113
80.5690 26.3650 0.6166
80.5890 26.3516 0.6244
80.6090 26.3383 0.6072
80.6290 26.3249 0.6167
80.6490 26.3116 0.6173
80.6690 26.2983 0.6043
80.6890 26.2849 0.6181
80.7090 26.2715 0.6158
80.7290 26.2582 0.6106
80.7490 26.2449 0.6125
80.7690 26.2316 0.6121
80.7890 26.2182 0.6084
80.8090 26.2048 0.6147
80.8290 26.1915 0.6124
80.8490 26.1782 0.6099
80.8690 26.1649 0.6135
80.8890 26.1516 0.6126
80.9090 26.1383 0.6072
80.9290 26.1250 0.6081
80.9490 26.1117 0.6119
80.9690 26.0983 0.6047
80.9890 26.0849 0.6060
81.0090 26.0716 0.6166
81.0290 26.0583 0.6028
81.0490 26.0449 0.6043
81.0690 26.0316 0.6107
81.0890 26.0182 0.6047
81.1090 26.0049 0.6067
81.1290 25.9916 0.6090
81.1490 25.9782 0.5999
81.1690 25.9648 0.6045
81.1890 25.9515 0.6077
81.2090 25.9382 0.6009
81.2290 25.9249 0.6016
81.2490 25.9115 0.6032
81.2690 25.8982 0.6028
81.2890 25.8849 0.6029
81.3090 25.8716 0.6043
81.3290 25.8583 0.5956
81.3490 25.8449 0.6013
81.3690 25.8316 0.6010
81.3890 25.8183 0.5987
81.4090 25.8049 0.5999
81.4290 25.7915 0.6023
81.4490 25.7782 0.5947
81.4690 25.7649 0.5980
81.4890 25.7515 0.6015
81.5090 25.7382 0.5986
81.5290 25.7248 0.5973
81.5490 25.7115 0.6005
81.5690 25.6982 0.5923
81.5890 25.6849 0.5937
81.6090 25.6716 0.5990
81.6290 25.6583 0.5929
81.6490 25.6450 0.5960
81.6690 25.6317 0.5961
81.6890 25.6183 0.5921
81.7090 25.6049 0.5944
81.7290 25.5916 0.5946
81.7490 25.5783 0.5940
81.7690 25.5649 0.5892
81.7890 25.5515 0.5923
81.8090 25.5382 0.5925
81.8290 25.5249 0.5902
81.8490 25.5116 0.5938
81.8690 25.4982 0.5934
81.8890 25.4849 0.5859
81.9090 25.4715 0.5940
81.9290 25.4582 0.5885
81.9490 25.4449 0.5859
81.9690 25.4315 0.5976
81.9890 25.4182 0.5870
82.0090 25.4049 0.5835
82.0290 25.3916 0.5943
82.0490 25.3783 0.5858
82.0690 25.3649 0.5883
82.0890 25.3516 0.5977
82.1090 25.3383 0.5787
82.1290 25.3249 0.5839
82.1490 25.3115 0.5925
82.1690 25.2982 0.5796
82.1890 25.2849 0.5870
82.2090 25.2716 0.5903
82.2290 25.2583 0.5728
82.2490 25.2449 0.5862
82.2690 25.2316 0.5850
82.2890 25.2182 0.5766
82.3090 25.2049 0.5883
82.3290 25.1915 0.5833
82.3490 25.1782 0.5757
82.3690 25.1649 0.5908
82.3890 25.1516 0.5820
82.4090 25.1383 0.5763
82.4290 25.1249 0.5858
82.4490 25.1116 0.5789
82.4690 25.0983 0.5750
82.4890 25.0850 0.5833
82.5090 25.0716 0.5765
82.5290 25.0582 0.5746
82.5490 25.0449 0.5823
82.5690 25.0316 0.5768
82.5890 25.0182 0.5754
82.6090 25.0049 0.5810
82.6290 24.9915 0.5766
82.6490 24.9782 0.5785
82.6690 24.9649 0.5780
82.6890 24.9516 0.5783
82.7090 24.9382 0.5731
82.7290 24.9249 0.5776
82.7490 24.9116 0.5780
82.7690 24.8983 0.5716
82.7890 24.8849 0.5748
82.8090 24.8716 0.5782
82.8290 24.8583 0.5706
82.8490 24.8450 0.5721
82.8690 24.8316 0.5760
82.8890 24.8182 0.5705
82.9090 24.8049 0.5713
82.9290 24.7916 0.5734
82.9490 24.7782 0.5663
82.9690 24.7649 0.5726
82.9890 24.7515 0.5785
83.0090 24.7382 0.5619
83.0290 24.7249 0.5765
83.0490 24.7115 0.5706
83.0690 24.6982 0.5625
83.0890 24.6849 0.5799
83.1090 24.6716 0.5647
83.1290 24.6583 0.5605
83.1490 24.6449 0.5802
83.1690 24.6316 0.5641
83.1890 24.6182 0.5608
83.2090 24.6049 0.5767
83.2290 24.5916 0.5576
83.2490 24.5782 0.5606
83.2690 24.5648 0.5824
83.2890 24.5516 0.5521
83.3090 24.5382 0.5625
83.3290 24.5249 0.5738
83.3490 24.5115 0.5511
83.3690 24.4982 0.5676
83.3890 24.4849 0.5738
83.4090 24.4716 0.5498
83.4290 24.4582 0.5667
83.4490 24.4449 0.5712
83.4690 24.4316 0.5519
83.4890 24.4183 0.5650
83.5090 24.4049 0.5696
83.5290 24.3916 0.5550
83.5490 24.3783 0.5633
83.5690 24.3649 0.5656
83.5890 24.3516 0.5553
83.6090 24.3382 0.5644
83.6290 24.3249 0.5618
83.6490 24.3115 0.5524
83.6690 24.2982 0.5584
83.6890 24.2849 0.5669
83.7090 24.2715 0.5517
83.7290 24.2582 0.5570
83.7490 24.2449 0.5653
83.7690 24.2316 0.5488
83.7890 24.2183 0.5594
83.8090 24.2049 0.5631
83.8290 24.1916 0.5467
83.8490 24.1783 0.5543
83.8690 24.1649 0.5651
83.8890 24.1516 0.5474
83.9090 24.1383 0.5561
83.9290 24.1249 0.5638
83.9490 24.1116 0.5407
83.9690 24.0982 0.5594
83.9890 24.0849 0.5594
84.0090 24.0716 0.5466
84.0290 24.0583 0.5578
84.0490 24.0449 0.5557
84.0690 24.0316 0.5449
84.0890 24.0182 0.5542
84.1090 24.0049 0.5559
84.1290 23.9916 0.5460
84.1490 23.9782 0.5533
84.1690 23.9649 0.5595
84.1890 23.9516 0.5426
84.2090 23.9383 0.5514
84.2290 23.9249 0.5518
84.2490 23.9116 0.5430
84.2690 23.8983 0.5545
84.2890 23.8850 0.5488
84.3090 23.8716 0.5461
84.3290 23.8582 0.5468
84.3490 23.8449 0.5551
84.3690 23.8316 0.5453
84.3890 23.8182 0.5411
84.4090 23.8049 0.5530
84.4290 23.7915 0.5435
84.4490 23.7782 0.5463
84.4690 23.7649 0.5490
84.4890 23.7516 0.5423
84.5090 23.7382 0.5445
84.5290 23.7249 0.5486
84.5490 23.7116 0.5420
84.5690 23.6983 0.5394
84.5890 23.6849 0.5530
84.6090 23.6716 0.5375
84.6290 23.6583 0.5412
84.6490 23.6450 0.5515
84.6690 23.6316 0.5342
84.6890 23.6182 0.5402
84.7090 23.6049 0.5499
84.7290 23.5915 0.5366
84.7490 23.5782 0.5399
84.7690 23.5648 0.5489
84.7890 23.5515 0.5399
84.8090 23.5382 0.5368
84.8290 23.5249 0.5493
84.8490 23.5116 0.5343
84.8690 23.4982 0.5420
84.8890 23.4849 0.5478
84.9090 23.4716 0.5328
84.9290 23.4583 0.5429
84.9490 23.4449 0.5463
84.9690 23.4316 0.5332
84.9890 23.4183 0.5382
85.0090 23.4049 0.5452
85.0290 23.3916 0.5313
85.0490 23.3782 0.5358
85.0690 23.3649 0.5452
85.0890 23.3516 0.5279
85.1090 23.3382 0.5361
85.1290 23.3249 0.5454
85.1490 23.3115 0.5265
85.1690 23.2982 0.5392
85.1890 23.2849 0.5415
85.2090 23.2716 0.5268
85.2290 23.2582 0.5347
85.2490 23.2449 0.5446
85.2690 23.2316 0.5224
85.2890 23.2183 0.5303
85.3090 23.2049 0.5449
85.3290 23.1916 0.5233
85.3490 23.1783 0.5329
85.3690 23.1649 0.5363
85.3890 23.1516 0.5232
85.4090 23.1382 0.5344
85.4290 23.1248 0.5357
85.4490 23.1115 0.5233
85.4690 23.0982 0.5302
85.4890 23.0849 0.5403
85.5090 23.0715 0.5203
85.5290 23.0582 0.5289
85.5490 23.0449 0.5401
85.5690 23.0316 0.5168
85.5890 23.0182 0.5275
85.6090 23.0049 0.5359
85.6290 22.9916 0.5207
85.6490 22.9783 0.5271
85.6690 22.9649 0.5331
85.6890 22.9516 0.5171
85.7090 22.9383 0.5265
85.7290 22.9250 0.5329
85.7490 22.9116 0.5136
85.7690 22.8982 0.5248
85.7890 22.8849 0.5307
85.8090 22.8716 0.5153
85.8290 22.8582 0.5242
85.8490 22.8449 0.5272
85.8690 22.8315 0.5198
85.8890 22.8182 0.5201
85.9090 22.8049 0.5243
85.9290 22.7916 0.5185
85.9490 22.7782 0.5199
85.9690 22.7649 0.5282
85.9890 22.7516 0.5177
86.0090 22.7383 0.5219
86.0290 22.7249 0.5228
86.0490 22.7116 0.5204
86.0690 22.6982 0.5207
86.0890 22.6849 0.5198
86.1090 22.6716 0.5185
86.1290 22.6583 0.5151
86.1490 22.6449 0.5225
86.1690 22.6316 0.5180
86.1890 22.6182 0.5147
86.2090 22.6049 0.5157
86.2290 22.5915 0.5188
86.2490 22.5782 0.5143
86.2690 22.5649 0.5177
86.2890 22.5516 0.5184
86.3090 22.5382 0.5111
86.3290 22.5249 0.5120
86.3490 22.5116 0.5187
86.3690 22.4983 0.5156
86.3890 22.4850 0.5115
86.4090 22.4716 0.5178
86.4290 22.4583 0.5147
86.4490 22.4450 0.5073
86.4690 22.4316 0.5173
86.4890 22.4182 0.5136
86.5090 22.4049 0.5086
86.5290 22.3915 0.5160
86.5490 22.3782 0.5109
86.5690 22.3649 0.5059
86.5890 22.3515 0.5137
86.6090 22.3382 0.5114
86.6290 22.3249 0.5104
86.6490 22.3116 0.5090
86.6690 22.2982 0.5087
86.6890 22.2849 0.5117
86.7090 22.2716 0.5072
86.7290 22.2583 0.5085
86.7490 22.2450 0.5069
86.7690 22.2316 0.5098
86.7890 22.2182 0.5082
86.8090 22.2049 0.5056
86.8290 22.1916 0.5096
86.8490 22.1782 0.5053
86.8690 22.1649 0.5047
86.8890 22.1515 0.5090
86.9090 22.1382 0.5062
86.9290 22.1249 0.5012
86.9490 22.1115 0.5105
86.9690 22.0982 0.5088
86.9890 22.0849 0.4962
87.0090 22.0716 0.5091
87.0290 22.0583 0.5006
87.0490 22.0449 0.4994
87.0690 22.0316 0.5133
87.0890 22.0183 0.4993
87.1090 22.0049 0.4987
87.1290 21.9916 0.5106
87.1490 21.9782 0.4972
87.1690 21.9649 0.4988
87.1890 21.9516 0.5043
87.2090 21.9382 0.5008
87.2290 21.9249 0.5009
87.2490 21.9115 0.5037
87.2690 21.8982 0.4959
87.2890 21.8849 0.5034
87.3090 21.8716 0.5013
87.3290 21.8582 0.4973
87.3490 21.8449 0.5030
87.3690 21.8316 0.4980
87.3890 21.8183 0.4963
87.4090 21.8049 0.5018
87.4290 21.7916 0.4955
87.4490 21.7783 0.4947
87.4690 21.7650 0.4976
87.4890 21.7516 0.4949
87.5090 21.7382 0.4995
87.5290 21.7249 0.4964
87.5490 21.7116 0.4921
87.5690 21.6982 0.4981
87.5890 21.6849 0.4956
87.6090 21.6715 0.4943
87.6290 21.6582 0.4995
87.6490 21.6449 0.4893
87.6690 21.6315 0.4958
87.6890 21.6182 0.4997
87.7090 21.6049 0.4904
87.7290 21.5916 0.4962
87.7490 21.5783 0.4936
87.7690 21.5649 0.4895
87.7890 21.5516 0.4946
87.8090 21.5383 0.4927
87.8290 21.5250 0.4877
87.8490 21.5116 0.4973
87.8690 21.4982 0.4932
87.8890 21.4849 0.4831
87.9090 21.4716 0.4985
87.9290 21.4582 0.4862
87.9490 21.4449 0.4874
87.9690 21.4316 0.4952
87.9890 21.4183 0.4852
88.0090 21.4049 0.4862
88.0290 21.3915 0.4971
88.0490 21.3782 0.4892
88.0690 21.3648 0.4819
88.0890 21.3516 0.4979
88.1090 21.3382 0.4812
88.1290 21.3249 0.4853
88.1490 21.3116 0.4973
88.1690 21.2983 0.4792
88.1890 21.2850 0.4845
88.2090 21.2716 0.4903
88.2290 21.2583 0.4820
88.2490 21.2450 0.4807
88.2690 21.2316 0.4889
88.2890 21.2182 0.4799
88.3090 21.2049 0.4816
88.3290 21.1915 0.4907
88.3490 21.1782 0.4786
88.3690 21.1649 0.4812
88.3890 21.1515 0.4832
88.4090 21.1382 0.4832
88.4290 21.1249 0.4775
88.4490 21.1115 0.4803
88.4690 21.0982 0.4836
88.4890 21.0849 0.4799
88.5090 21.0716 0.4824
88.5290 21.0583 0.4854
88.5490 21.0450 0.4755
88.5690 21.0316 0.4804
88.5890 21.0183 0.4847
88.6090 21.0049 0.4773
88.6290 20.9916 0.4761
88.6490 20.9782 0.4843
88.6690 20.9649 0.4742
88.6890 20.9515 0.4786
88.7090 20.9382 0.4856
88.7290 20.9249 0.4721
88.7490 20.9115 0.4787
88.7690 20.8982 0.4832
88.7890 20.8849 0.4705
88.8090 20.8716 0.4779
88.8290 20.8583 0.4779
88.8490 20.8449 0.4722
88.8690 20.8316 0.4797
88.8890 20.8183 0.4761
88.9090 20.8050 0.4670
88.9290 20.7916 0.4793
88.9490 20.7782 0.4744
88.9690 20.7649 0.4660
88.9890 20.7516 0.4783
89.0090 20.7383 0.4721
89.0290 20.7249 0.4665
89.0490 20.7115 0.4835
89.0690 20.6982 0.4659
89.0890 20.6849 0.4649
89.1090 20.6716 0.4803
89.1290 20.6582 0.4665
89.1490 20.6449 0.4686
89.1690 20.6316 0.4770
89.1890 20.6182 0.4598
89.2090 20.6049 0.4686
89.2290 20.5916 0.4778
89.2490 20.5783 0.4582
89.2690 20.5649 0.4740
89.2890 20.5516 0.4699
89.3090 20.5382 0.4619
89.3290 20.5249 0.4706
89.3490 20.5116 0.4680
89.3690 20.4982 0.4625
89.3890 20.4849 0.4664
89.4090 20.4715 0.4710
89.4290 20.4582 0.4597
89.4490 20.4449 0.4644
89.4690 20.4315 0.4732
89.4890 20.4182 0.4582
89.5090 20.4049 0.4671
89.5290 20.3916 0.4614
89.5490 20.3782 0.4568
89.5690 20.3649 0.4711
89.5890 20.3516 0.4599
89.6090 20.3383 0.4587
89.6290 20.3249 0.4663
89.6490 20.3116 0.4619
89.6690 20.2982 0.4579
89.6890 20.2849 0.4658
89.7090 20.2716 0.4584
89.7290 20.2583 0.4537
89.7490 20.2449 0.4661
89.7690 20.2316 0.4560
89.7890 20.2183 0.4576
89.8090 20.2049 0.4648
89.8290 20.1916 0.4523
89.8490 20.1782 0.4576
89.8690 20.1648 0.4650
89.8890 20.1515 0.4549
89.9090 20.1382 0.4555
89.9290 20.1249 0.4618
89.9490 20.1116 0.4542
89.9690 20.0983 0.4572
89.9890 20.0850 0.4595
90.0090 20.0716 0.4549
90.0290 20.0582 0.4578
90.0490 20.0449 0.4576
90.0690 20.0316 0.4548
90.0890 20.0183 0.4566
90.1090 20.0049 0.4533
90.1290 19.9915 0.4550
90.1490 19.9782 0.4486
90.1690 19.9649 0.4580
90.1890 19.9516 0.4535
90.2090 19.9382 0.4525
90.2290 19.9249 0.4553
90.2490 19.9116 0.4487
90.2690 19.8982 0.4473
90.2890 19.8849 0.4587
90.3090 19.8715 0.4489
90.3290 19.8583 0.4456
90.3490 19.8449 0.4561
90.3690 19.8316 0.4482
90.3890 19.8183 0.4441
90.4090 19.8049 0.4595
90.4290 19.7916 0.4456
90.4490 19.7783 0.4442
90.4690 19.7649 0.4603
90.4890 19.7515 0.4441
90.5090 19.7382 0.4448
90.5290 19.7249 0.4585
90.5490 19.7116 0.4407
90.5690 19.6982 0.4425
90.5890 19.6849 0.4564
90.6090 19.6716 0.4437
90.6290 19.6583 0.4425
90.6490 19.6449 0.4573
90.6690 19.6316 0.4458
90.6890 19.6183 0.4385
90.7090 19.6050 0.4550
90.7290 19.5916 0.4390
90.7490 19.5783 0.4418
90.7690 19.5649 0.4548
90.7890 19.5516 0.4421
90.8090 19.5382 0.4388
90.8290 19.5249 0.4541
90.8490 19.5115 0.4393
90.8690 19.4982 0.4394
90.8890 19.4849 0.4546
90.9090 19.4715 0.4354
90.9290 19.4582 0.4390
90.9490 19.4448 0.4542
90.9690 19.4316 0.4339
90.9890 19.4183 0.4443
91.0090 19.4049 0.4483
91.0290 19.3916 0.4379
91.0490 19.3783 0.4424
91.0690 19.3650 0.4484
91.0890 19.3516 0.4360
91.1090 19.3382 0.4426
91.1290 19.3249 0.4483
91.1490 19.3116 0.4304
91.1690 19.2982 0.4419
91.1890 19.2849 0.4436
91.2090 19.2715 0.4355
91.2290 19.2582 0.4440
91.2490 19.2449 0.4435
91.2690 19.2316 0.4336
91.2890 19.2182 0.4417
91.3090 19.2049 0.4444
91.3290 19.1916 0.4329
91.3490 19.1782 0.4414
91.3690 19.1649 0.4450
91.3890 19.1516 0.4305
91.4090 19.1383 0.4410
91.4290 19.1249 0.4414
91.4490 19.1116 0.4262
91.4690 19.0983 0.4418
91.4890 19.0849 0.4446
91.5090 19.0716 0.4285
91.5290 19.0583 0.4372
91.5490 19.0449 0.4426
91.5690 19.0315 0.4254
91.5890 19.0182 0.4338
91.6090 19.0049 0.4437
91.6290 18.9915 0.4270
91.6490 18.9782 0.4336
91.6690 18.9648 0.4402
91.6890 18.9515 0.4271
91.7090 18.9382 0.4340
91.7290 18.9249 0.4411
91.7490 18.9116 0.4231
91.7690 18.8983 0.4364
91.7890 18.8850 0.4376
91.8090 18.8716 0.4254
91.8290 18.8583 0.4333
91.8490 18.8449 0.4360
91.8690 18.8316 0.4236
91.8890 18.8183 0.4330
91.9090 18.8049 0.4342
91.9290 18.7915 0.4262
91.9490 18.7782 0.4333
91.9690 18.7649 0.4250
91.9890 18.7515 0.4243
92.0090 18.7382 0.4332
92.0290 18.7248 0.4323
92.0490 18.7115 0.4239
92.0690 18.6982 0.4322
92.0890 18.6849 0.4259
92.1090 18.6716 0.4280
92.1290 18.6583 0.4309
92.1490 18.6450 0.4257
92.1690 18.6316 0.4277
92.1890 18.6183 0.4294
92.2090 18.6049 0.4225
92.2290 18.5916 0.4254
92.2490 18.5783 0.4307
92.2690 18.5649 0.4256
92.2890 18.5515 0.4206
92.3090 18.5382 0.4252
92.3290 18.5249 0.4232
92.3490 18.5116 0.4233
92.3690 18.4982 0.4276
92.3890 18.4848 0.4236
92.4090 18.4715 0.4222
92.4290 18.4582 0.4206
92.4490 18.4449 0.4226
92.4690 18.4316 0.4260
92.4890 18.4183 0.4207
92.5090 18.4050 0.4204
92.5290 18.3916 0.4212
92.5490 18.3783 0.4201
92.5690 18.3649 0.4206
92.5890 18.3516 0.4224
92.6090 18.3383 0.4166
92.6290 18.3249 0.4202
92.6490 18.3115 0.4213
92.6690 18.2982 0.4161
92.6890 18.2849 0.4209
92.7090 18.2715 0.4195
92.7290 18.2582 0.4137
92.7490 18.2448 0.4211
92.7690 18.2315 0.4187
92.7890 18.2182 0.4160
92.8090 18.2049 0.4213
92.8290 18.1916 0.4168
92.8490 18.1782 0.4119
92.8690 18.1649 0.4174
92.8890 18.1516 0.4132
92.9090 18.1382 0.4129
92.9290 18.1249 0.4192
92.9490 18.1116 0.4112
92.9690 18.0983 0.4143
92.9890 18.0849 0.4117
93.0090 18.0716 0.4137
93.0290 18.0582 0.4110
93.0490 18.0449 0.4129
93.0690 18.0316 0.4113
93.0890 18.0182 0.4090
93.1090 18.0048 0.4114
93.1290 17.9915 0.4119
93.1490 17.9782 0.4099
93.1690 17.9649 0.4073
93.1890 17.9516 0.4149
93.2090 17.9383 0.4115
93.2290 17.9250 0.4069
93.2490 17.9116 0.4116
93.2690 17.8983 0.4083
93.2890 17.8849 0.4095
93.3090 17.8716 0.4051
93.3290 17.8583 0.4077
93.3490 17.8449 0.4108
93.3690 17.8316 0.4067
93.3890 17.8182 0.4090
93.4090 17.8049 0.4076
93.4290 17.7916 0.4078
93.4490 17.7782 0.4086
93.4690 17.7649 0.4064
93.4890 17.7515 0.4073
93.5090 17.7382 0.4059
93.5290 17.7249 0.4032
93.5490 17.7115 0.4062
93.5690 17.6982 0.4062
93.5890 17.6849 0.4032
93.6090 17.6716 0.3981
93.6290 17.6583 0.4112
93.6490 17.6449 0.4060
93.6690 17.6316 0.3993
93.6890 17.6183 0.4094
93.7090 17.6050 0.3974
93.7290 17.5916 0.4020
93.7490 17.5782 0.4088
93.7690 17.5649 0.3976
93.7890 17.5515 0.4006
93.8090 17.5382 0.4030
93.8290 17.5248 0.4002
93.8490 17.5115 0.4015
93.8690 17.4982 0.4011
93.8890 17.4849 0.3940
93.9090 17.4716 0.4051
93.9290 17.4583 0.4021
93.9490 17.4450 0.3939
93.9690 17.4316 0.4046
93.9890 17.4183 0.4030
94.0090 17.4049 0.3907
94.0290 17.3916 0.4052
94.0490 17.3783 0.3991
94.0690 17.3649 0.3923
94.0890 17.3515 0.4061
94.1090 17.3382 0.4002
94.1290 17.3249 0.3929
94.1490 17.3116 0.4017
94.1690 17.2982 0.4006
94.1890 17.2848 0.3946
94.2090 17.2715 0.3999
94.2290 17.2582 0.4004
94.2490 17.2449 0.3919
94.2690 17.2316 0.3955
94.2890 17.2183 0.4013
94.3090 17.2050 0.3931
94.3290 17.1916 0.3947
94.3490 17.1783 0.3953
94.3690 17.1649 0.3896
94.3890 17.1516 0.3990
94.4090 17.1383 0.3990
94.4290 17.1249 0.3858
94.4490 17.1115 0.4014
94.4690 17.0982 0.3956
94.4890 17.0849 0.3839
94.5090 17.0716 0.3975
94.5290 17.0582 0.3957
94.5490 17.0449 0.3875
94.5690 17.0316 0.3966
94.5890 17.0182 0.3960
94.6090 17.0049 0.3825
94.6290 16.9916 0.3959
94.6490 16.9782 0.3961
94.6690 16.9649 0.3792
94.6890 16.9516 0.3980
94.7090 16.9383 0.3910
94.7290 16.9249 0.3863
94.7490 16.9116 0.3944
94.7690 16.8983 0.3922
94.7890 16.8849 0.3782
94.8090 16.8716 0.3924
94.8290 16.8582 0.3954
94.8490 16.8449 0.3755
94.8690 16.8316 0.3973
94.8890 16.8182 0.3893
94.9090 16.8049 0.3758
94.9290 16.7915 0.3987
94.9490 16.7782 0.3873
94.9690 16.7649 0.3746
94.9890 16.7516 0.3950
95.0090 16.7383 0.3902
95.0290 16.7250 0.3745
95.0490 16.7116 0.3943
95.0690 16.6983 0.3884
95.0890 16.6849 0.3756
95.1090 16.6716 0.3925
95.1290 16.6583 0.3844
95.1490 16.6449 0.3754
95.1690 16.6315 0.3943
95.1890 16.6182 0.3851
95.2090 16.6049 0.3770
95.2290 16.5916 0.3887
95.2490 16.5782 0.3838
95.2690 16.5648 0.3766
95.2890 16.5515 0.3913
95.3090 16.5382 0.3851
95.3290 16.5249 0.3735
95.3490 16.5116 0.3888
95.3690 16.4983 0.3803
95.3890 16.4850 0.3759
95.4090 16.4717 0.3863
95.4290 16.4583 0.3816
95.4490 16.4449 0.3776
95.4690 16.4316 0.3892
95.4890 16.4183 0.3780
95.5090 16.4049 0.3783
95.5290 16.3916 0.3859
95.5490 16.3782 0.3739
95.5690 16.3649 0.3768
95.5890 16.3516 0.3852
95.6090 16.3382 0.3705
95.6290 16.3249 0.3826
95.6490 16.3115 0.3804
95.6690 16.2982 0.3717
95.6890 16.2849 0.3811
95.7090 16.2716 0.3783
95.7290 16.2582 0.3733
95.7490 16.2449 0.3785
95.7690 16.2316 0.3748
95.7890 16.2183 0.3742
95.8090 16.2049 0.3774
95.8290 16.1916 0.3725
95.8490 16.1783 0.3747
95.8690 16.1650 0.3791
95.8890 16.1516 0.3698
95.9090 16.1382 0.3792
95.9290 16.1249 0.3752
95.9490 16.1115 0.3694
95.9690 16.0982 0.3774
95.9890 16.0848 0.3750
96.0090 16.0715 0.3715
96.0290 16.0582 0.3725
96.0490 16.0449 0.3723
96.0690 16.0316 0.3709
96.0890 16.0183 0.3716
96.1090 16.0050 0.3777
96.1290 15.9917 0.3681
96.1490 15.9783 0.3730
96.1690 15.9649 0.3738
96.1890 15.9516 0.3706
96.2090 15.9383 0.3685
96.2290 15.9249 0.3695
96.2490 15.9115 0.3670
96.2690 15.8982 0.3695
96.2890 15.8849 0.3735
96.3090 15.8716 0.3601
96.3290 15.8582 0.3678
96.3490 15.8449 0.3692
96.3690 15.8315 0.3658
96.3890 15.8182 0.3688
96.4090 15.8049 0.3641
96.4290 15.7916 0.3681
96.4490 15.7782 0.3661
96.4690 15.7649 0.3668
96.4890 15.7516 0.3655
96.5090 15.7383 0.3669
96.5290 15.7249 0.3688
96.5490 15.7116 0.3640
96.5690 15.6982 0.3659
96.5890 15.6849 0.3647
96.6090 15.6715 0.3629
96.6290 15.6582 0.3691
96.6490 15.6449 0.3623
96.6690 15.6316 0.3602
96.6890 15.6183 0.3685
96.7090 15.6049 0.3576
96.7290 15.5915 0.3644
96.7490 15.5782 0.3646
96.7690 15.5649 0.3578
96.7890 15.5515 0.3574
96.8090 15.5382 0.3670
96.8290 15.5249 0.3596
96.8490 15.5116 0.3557
96.8690 15.4983 0.3610
96.8890 15.4849 0.3568
96.9090 15.4716 0.3616
96.9290 15.4583 0.3633
96.9490 15.4450 0.3597
96.9690 15.4316 0.3564
96.9890 15.4182 0.3643
97.0090 15.4049 0.3518
97.0290 15.3916 0.3514
97.0490 15.3782 0.3628
97.0690 15.3649 0.3545
97.0890 15.3515 0.3570
97.1090 15.3382 0.3574
97.1290 15.3249 0.3577
97.1490 15.3116 0.3577
97.1690 15.2982 0.3572
97.1890 15.2849 0.3568
97.2090 15.2716 0.3503
97.2290 15.2583 0.3586
97.2490 15.2449 0.3521
97.2690 15.2316 0.3560
97.2890 15.2183 0.3531
97.3090 15.2050 0.3504
97.3290 15.1916 0.3576
97.3490 15.1782 0.3522
97.3690 15.1649 0.3528
97.3890 15.1516 0.3558
97.4090 15.1382 0.3473
97.4290 15.1249 0.3526
97.4490 15.1115 0.3533
97.4690 15.0982 0.3520
97.4890 15.0849 0.3484
97.5090 15.0715 0.3519
97.5290 15.0582 0.3537
97.5490 15.0449 0.3502
97.5690 15.0316 0.3514
97.5890 15.0183 0.3521
97.6090 15.0049 0.3510
97.6290 14.9916 0.3516
97.6490 14.9782 0.3495
97.6690 14.9649 0.3472
97.6890 14.9516 0.3507
97.7090 14.9382 0.3478
97.7290 14.9248 0.3509
97.7490 14.9115 0.3484
97.7690 14.8982 0.3410
97.7890 14.8849 0.3544
97.8090 14.8715 0.3512
97.8290 14.8582 0.3393
97.8490 14.8449 0.3556
97.8690 14.8316 0.3426
97.8890 14.8182 0.3450
97.9090 14.8049 0.3531
97.9290 14.7916 0.3446
97.9490 14.7783 0.3468
97.9690 14.7649 0.3510
97.9890 14.7516 0.3399
98.0090 14.7383 0.3439
98.0290 14.7249 0.3501
98.0490 14.7116 0.3400
98.0690 14.6982 0.3450
98.0890 14.6848 0.3537
98.1090 14.6715 0.3370
98.1290 14.6582 0.3475
98.1490 14.6449 0.3453
98.1690 14.6315 0.3398
98.1890 14.6182 0.3444
98.2090 14.6049 0.3480
98.2290 14.5916 0.3395
98.2490 14.5782 0.3441
98.2690 14.5649 0.3469
98.2890 14.5516 0.3341
98.3090 14.5383 0.3440
98.3290 14.5249 0.3473
98.3490 14.5115 0.3368
98.3690 14.4982 0.3446
98.3890 14.4849 0.3406
98.4090 14.4716 0.3347
98.4290 14.4582 0.3466
98.4490 14.4449 0.3396
98.4690 14.4316 0.3335
98.4890 14.4183 0.3437
98.5090 14.4049 0.3396
98.5290 14.3915 0.3332
98.5490 14.3782 0.3439
98.5690 14.3649 0.3399
98.5890 14.3515 0.3352
98.6090 14.3382 0.3420
98.6290 14.3249 0.3383
98.6490 14.3116 0.3327
98.6690 14.2983 0.3404
98.6890 14.2850 0.3347
98.7090 14.2716 0.3342
98.7290 14.2583 0.3397
98.7490 14.2450 0.3367
98.7690 14.2316 0.3361
98.7890 14.2182 0.3423
98.8090 14.2049 0.3358
98.8290 14.1916 0.3324
98.8490 14.1782 0.3385
98.8690 14.1649 0.3316
98.8890 14.1515 0.3355
98.9090 14.1382 0.3385
98.9290 14.1249 0.3327
98.9490 14.1116 0.3334
98.9690 14.0982 0.3353
98.9890 14.0849 0.3379
99.0090 14.0716 0.3330
99.0290 14.0583 0.3334
99.0490 14.0449 0.3360
99.0690 14.0316 0.3328
99.0890 14.0183 0.3312
99.1090 14.0050 0.3320
99.1290 13.9916 0.3305
99.1490 13.9782 0.3305
99.1690 13.9649 0.3357
99.1890 13.9515 0.3313
99.2090 13.9382 0.3261
99.2290 13.9248 0.3339
99.2490 13.9115 0.3300
99.2690 13.8982 0.3279
99.2890 13.8849 0.3347
99.3090 13.8716 0.3290
99.3290 13.8582 0.3298
99.3490 13.8449 0.3295
99.3690 13.8316 0.3302
99.3890 13.8183 0.3229
99.4090 13.8050 0.3313
99.4290 13.7916 0.3313
99.4490 13.7783 0.3205
99.4690 13.7649 0.3323
99.4890 13.7516 0.3284
99.5090 13.7382 0.3185
99.5290 13.7249 0.3328
99.5490 13.7115 0.3248
99.5690 13.6982 0.3140
99.5890 13.6849 0.3296
99.6090 13.6715 0.3295
99.6290 13.6582 0.3184
99.6490 13.6449 0.3325
99.6690 13.6316 0.3221
99.6890 13.6182 0.3147
99.7090 13.6049 0.3327
99.7290 13.5916 0.3179
99.7490 13.5783 0.3176
99.7690 13.5650 0.3337
99.7890 13.5516 0.3186
99.8090 13.5383 0.3149
99.8290 13.5250 0.3292
99.8490 13.5116 0.3181
99.8690 13.4982 0.3158
99.8890 13.4849 0.3315
99.9090 13.4715 0.3115
99.9290 13.4582 0.3116
99.9490 13.4449 0.3278
99.9690 13.4315 0.3114
99.9890 13.4182 0.3176
100.0090 13.4049 0.3247
100.0290 13.3916 0.3107
100.0490 13.3782 0.3157
100.0690 13.3649 0.3258
100.0890 13.3516 0.3135
100.1090 13.3383 0.3155
100.1290 13.3249 0.3184
100.1490 13.3116 0.3153
100.1690 13.2983 0.3116
100.1890 13.2849 0.3140
100.2090 13.2716 0.3129
100.2290 13.2582 0.3129
100.2490 13.2449 0.3119
100.2690 13.2316 0.3197
100.2890 13.2182 0.3098
100.3090 13.2049 0.3105
100.3290 13.1915 0.3186
100.3490 13.1782 0.3028
100.3690 13.1649 0.3145
100.3890 13.1516 0.3177
100.4090 13.1382 0.3037
100.4290 13.1249 0.3150
100.4490 13.1116 0.3113
100.4690 13.0983 0.3013
100.4890 13.0850 0.3139
100.5090 13.0716 0.3106
100.5290 13.0582 0.3036
100.5490 13.0449 0.3148
100.5690 13.0316 0.3070
100.5890 13.0182 0.3017
100.6090 13.0049 0.3159
100.6290 12.9916 0.3065
100.6490 12.9783 0.3020
100.6690 12.9649 0.3088
100.6890 12.9515 0.3046
100.7090 12.9382 0.3050
100.7290 12.9249 0.3082
100.7490 12.9115 0.3074
100.7690 12.8982 0.3075
100.7890 12.8849 0.3053
100.8090 12.8716 0.3050
100.8290 12.8583 0.3083
100.8490 12.8450 0.3043
100.8690 12.8316 0.3031
100.8890 12.8183 0.3092
100.9090 12.8050 0.3029
100.9290 12.7916 0.2995
100.9490 12.7783 0.3115
100.9690 12.7649 0.3001
100.9890 12.7515 0.3006
101.0090 12.7382 0.3091
101.0290 12.7249 0.2958
101.0490 12.7115 0.3078
101.0690 12.6982 0.3047
101.0890 12.6849 0.2962
101.1090 12.6716 0.3035
101.1290 12.6583 0.3058
101.1490 12.6449 0.2995
101.1690 12.6316 0.3091
101.1890 12.6183 0.3042
101.2090 12.6050 0.2944
101.2290 12.5916 0.3115
101.2490 12.5783 0.3055
101.2690 12.5650 0.2921
101.2890 12.5516 0.3065
101.3090 12.5382 0.2974
101.3290 12.5248 0.2948
101.3490 12.5115 0.3046
101.3690 12.4982 0.2972
101.3890 12.4849 0.2902
101.4090 12.4715 0.3038
101.4290 12.4582 0.2989
101.4490 12.4449 0.2919
101.4690 12.4316 0.3034
101.4890 12.4182 0.2960
101.5090 12.4049 0.2924
101.5290 12.3916 0.3033
101.5490 12.3783 0.2966
101.5690 12.3650 0.2938
101.5890 12.3516 0.3066
101.6090 12.3382 0.2931
101.6290 12.3249 0.2907
101.6490 12.3116 0.2987
101.6690 12.2982 0.2946
101.6890 12.2849 0.2893
101.7090 12.2715 0.2991
101.7290 12.2582 0.2909
101.7490 12.2449 0.2944
101.7690 12.2316 0.2976
101.7890 12.2182 0.2929
101.8090 12.2049 0.2943
101.8290 12.1916 0.2938
101.8490 12.1782 0.2935
101.8690 12.1649 0.2941
101.8890 12.1516 0.2878
101.9090 12.1383 0.2934
101.9290 12.1250 0.2918
101.9490 12.1116 0.2887
101.9690 12.0982 0.2935
101.9890 12.0849 0.2942
102.0090 12.0716 0.2860
102.0290 12.0582 0.2906
102.0490 12.0449 0.2948
102.0690 12.0315 0.2861
102.0890 12.0182 0.2923
102.1090 12.0049 0.2886
102.1290 11.9915 0.2869
102.1490 11.9782 0.2918
102.1690 11.9649 0.2842
102.1890 11.9516 0.2901
102.2090 11.9383 0.2915
102.2290 11.9249 0.2805
102.2490 11.9116 0.2891
102.2690 11.8983 0.2917
102.2890 11.8849 0.2779
102.3090 11.8716 0.2898
102.3290 11.8582 0.2898
102.3490 11.8449 0.2791
102.3690 11.8316 0.2886
102.3890 11.8183 0.2894
102.4090 11.8049 0.2781
102.4290 11.7916 0.2890
102.4490 11.7782 0.2862
102.4690 11.7649 0.2735
102.4890 11.7515 0.2894
102.5090 11.7382 0.2857
102.5290 11.7249 0.2790
102.5490 11.7116 0.2835
102.5690 11.6982 0.2827
102.5890 11.6849 0.2806
102.6090 11.6716 0.2837
102.6290 11.6583 0.2788
102.6490 11.6450 0.2794
102.6690 11.6316 0.2839
102.6890 11.6182 0.2824
102.7090 11.6049 0.2792
102.7290 11.5916 0.2795
102.7490 11.5782 0.2770
102.7690 11.5649 0.2771
102.7890 11.5515 0.2799
102.8090 11.5382 0.2795
102.8290 11.5249 0.2788
102.8490 11.5115 0.2795
102.8690 11.4982 0.2759
102.8890 11.4849 0.2742
102.9090 11.4716 0.2773
102.9290 11.4582 0.2760
102.9490 11.4449 0.2774
102.9690 11.4316 0.2769
102.9890 11.4183 0.2789
103.0090 11.4050 0.2732
103.0290 11.3916 0.2776
103.0490 11.3783 0.2773
103.0690 11.3650 0.2711
103.0890 11.3516 0.2741
103.1090 11.3383 0.2738
103.1290 11.3249 0.2729
103.1490 11.3115 0.2737
103.1690 11.2982 0.2744
103.1890 11.2849 0.2713
103.2090 11.2715 0.2692
103.2290 11.2581 0.2744
103.2490 11.2448 0.2703
103.2690 11.2316 0.2706
103.2890 11.2183 0.2712
103.3090 11.2049 0.2727
103.3290 11.1916 0.2708
103.3490 11.1783 0.2707
103.3690 11.1650 0.2678
103.3890 11.1516 0.2704
103.4090 11.1382 0.2739
103.4290 11.1249 0.2667
103.4490 11.1116 0.2653
103.4690 11.0982 0.2742
103.4890 11.0849 0.2611
103.5090 11.0715 0.2683
103.5290 11.0582 0.2714
103.5490 11.0449 0.2650
103.5690 11.0316 0.2619
103.5890 11.0182 0.2715
103.6090 11.0049 0.2605
103.6290 10.9916 0.2643
103.6490 10.9782 0.2720
103.6690 10.9649 0.2591
103.6890 10.9516 0.2628
103.7090 10.9383 0.2678
103.7290 10.9249 0.2600
103.7490 10.9116 0.2651
103.7690 10.8982 0.2644
103.7890 10.8849 0.2585
103.8090 10.8716 0.2642
103.8290 10.8583 0.2627
103.8490 10.8449 0.2589
103.8690 10.8315 0.2610
103.8890 10.8182 0.2665
103.9090 10.8049 0.2533
103.9290 10.7916 0.2591
103.9490 10.7782 0.2685
103.9690 10.7649 0.2529
103.9890 10.7516 0.2633
104.0090 10.7382 0.2640
104.0290 10.7249 0.2516
104.0490 10.7115 0.2679
104.0690 10.6982 0.2601
104.0890 10.6849 0.2517
104.1090 10.6716 0.2651
104.1290 10.6583 0.2595
104.1490 10.6449 0.2514
104.1690 10.6316 0.2650
104.1890 10.6183 0.2578
104.2090 10.6049 0.2476
104.2290 10.5916 0.2631
104.2490 10.5782 0.2523
104.2690 10.5649 0.2514
104.2890 10.5516 0.2645
104.3090 10.5382 0.2483
104.3290 10.5249 0.2532
104.3490 10.5115 0.2620
104.3690 10.4982 0.2496
104.3890 10.4849 0.2512
104.4090 10.4716 0.2650
104.4290 10.4583 0.2461
104.4490 10.4450 0.2497
104.4690 10.4316 0.2596
104.4890 10.4182 0.2487
104.5090 10.4049 0.2532
104.5290 10.3916 0.2499
104.5490 10.3783 0.2481
104.5690 10.3649 0.2476
104.5890 10.3515 0.2531
104.6090 10.3382 0.2478
104.6290 10.3249 0.2470
104.6490 10.3115 0.2490
104.6690 10.2982 0.2471
104.6890 10.2848 0.2473
104.7090 10.2715 0.2450
104.7290 10.2582 0.2534
104.7490 10.2449 0.2474
104.7690 10.2315 0.2389
104.7890 10.2183 0.2475
104.8090 10.2050 0.2465
104.8290 10.1916 0.2437
104.8490 10.1782 0.2444
104.8690 10.1649 0.2456
104.8890 10.1516 0.2458
104.9090 10.1382 0.2392
104.9290 10.1249 0.2471
104.9490 10.1115 0.2455
104.9690 10.0982 0.2416
104.9890 10.0849 0.2443
105.0090 10.0716 0.2396
105.0290 10.0582 0.2444
105.0490 10.0449 0.2382
105.0690 10.0316 0.2416
105.0890 10.0182 0.2416
105.1090 10.0049 0.2380
105.1290 9.9916 0.2442
105.1490 9.9783 0.2414
105.1690 9.9650 0.2340
105.1890 9.9516 0.2411
105.2090 9.9382 0.2397
105.2290 9.9249 0.2392
105.2490 9.9116 0.2410
105.2690 9.8983 0.2375
105.2890 9.8849 0.2342
105.3090 9.8715 0.2425
105.3290 9.8582 0.2347
105.3490 9.8449 0.2337
105.3690 9.8315 0.2404
105.3890 9.8182 0.2312
105.4090 9.8049 0.2313
105.4290 9.7916 0.2421
105.4490 9.7783 0.2336
105.4690 9.7649 0.2312
105.4890 9.7516 0.2395
105.5090 9.7383 0.2346
105.5290 9.7250 0.2267
105.5490 9.7116 0.2367
105.5690 9.6982 0.2369
105.5890 9.6849 0.2290
105.6090 9.6716 0.2343
105.6290 9.6582 0.2304
105.6490 9.6449 0.2342
105.6690 9.6315 0.2359
105.6890 9.6182 0.2305
105.7090 9.6049 0.2296
105.7290 9.5916 0.2338
105.7490 9.5782 0.2313
105.7690 9.5649 0.2313
105.7890 9.5516 0.2336
105.8090 9.5382 0.2286
105.8290 9.5249 0.2292
105.8490 9.5115 0.2295
105.8690 9.4982 0.2262
105.8890 9.4849 0.2299
105.9090 9.4716 0.2287
105.9290 9.4583 0.2304
105.9490 9.4449 0.2270
105.9690 9.4316 0.2301
105.9890 9.4183 0.2253
106.0090 9.4049 0.2232
106.0290 9.3915 0.2311
106.0490 9.3782 0.2233
106.0690 9.3649 0.2233
106.0890 9.3515 0.2302
106.1090 9.3382 0.2225
106.1290 9.3248 0.2236
106.1490 9.3115 0.2294
106.1690 9.2982 0.2186
106.1890 9.2849 0.2231
106.2090 9.2716 0.2314
106.2290 9.2582 0.2157
106.2490 9.2449 0.2230
106.2690 9.2316 0.2279
106.2890 9.2183 0.2123
106.3090 9.2049 0.2271
106.3290 9.1916 0.2232
106.3490 9.1783 0.2121
106.3690 9.1649 0.2308
106.3890 9.1515 0.2212
106.4090 9.1382 0.2091
106.4290 9.1249 0.2306
106.4490 9.1115 0.2172
106.4690 9.0982 0.2093
106.4890 9.0848 0.2311
106.5090 9.0715 0.2163
106.5290 9.0582 0.2060
106.5490 9.0449 0.2283
106.5690 9.0316 0.2133
106.5890 9.0183 0.2084
106.6090 9.0050 0.2251
106.6290 8.9917 0.2109
106.6490 8.9783 0.2110
106.6690 8.9649 0.2228
106.6890 8.9516 0.2088
106.7090 8.9383 0.2118
106.7290 8.9249 0.2181
106.7490 8.9116 0.2089
106.7690 8.8982 0.2096
106.7890 8.8849 0.2168
106.8090 8.8716 0.2078
106.8290 8.8582 0.2112
106.8490 8.8448 0.2141
106.8690 8.8315 0.2064
106.8890 8.8182 0.2097
106.9090 8.8049 0.2115
106.9290 8.7916 0.2063
106.9490 8.7783 0.2116
106.9690 8.7650 0.2085
106.9890 8.7516 0.2063
107.0090 8.7383 0.2057
107.0290 8.7249 0.2086
107.0490 8.7116 0.2093
107.0690 8.6983 0.2031
107.0890 8.6849 0.2081
107.1090 8.6715 0.2060
107.1290 8.6582 0.2073
107.1490 8.6449 0.2038
107.1690 8.6315 0.2064
107.1890 8.6182 0.2086
107.2090 8.6048 0.2048
107.2290 8.5915 0.2037
107.2490 8.5782 0.2055
107.2690 8.5649 0.2044
107.2890 8.5515 0.1997
107.3090 8.5382 0.2019
107.3290 8.5249 0.2059
107.3490 8.5116 0.1993
107.3690 8.4983 0.2006
107.3890 8.4849 0.2052
107.4090 8.4716 0.1998
107.4290 8.4583 0.1972
107.4490 8.4449 0.2097
107.4690 8.4316 0.1969
107.4890 8.4182 0.2018
107.5090 8.4049 0.2013
107.5290 8.3916 0.1971
107.5490 8.3782 0.2005
107.5690 8.3648 0.1990
107.5890 8.3515 0.2007
107.6090 8.3382 0.1961
107.6290 8.3249 0.1989
107.6490 8.3116 0.1991
107.6690 8.2982 0.1971
107.6890 8.2849 0.2013
107.7090 8.2716 0.1988
107.7290 8.2583 0.1929
107.7490 8.2449 0.2003
107.7690 8.2316 0.1996
107.7890 8.2183 0.1881
107.8090 8.2049 0.2014
107.8290 8.1916 0.1963
107.8490 8.1782 0.1884
107.8690 8.1649 0.1978
107.8890 8.1516 0.1936
107.9090 8.1382 0.1892
107.9290 8.1248 0.1960
107.9490 8.1115 0.1943
107.9690 8.0982 0.1901
107.9890 8.0849 0.1969
108.0090 8.0715 0.1945
108.0290 8.0582 0.1902
108.0490 8.0449 0.1913
108.0690 8.0316 0.1920
108.0890 8.0183 0.1901
108.1090 8.0049 0.1891
108.1290 7.9916 0.1921
108.1490 7.9783 0.1906
108.1690 7.9650 0.1873
108.1890 7.9516 0.1884
108.2090 7.9382 0.1945
108.2290 7.9249 0.1827
108.2490 7.9116 0.1892
108.2690 7.8982 0.1889
108.2890 7.8849 0.1835
108.3090 7.8715 0.1905
108.3290 7.8582 0.1899
108.3490 7.8449 0.1818
108.3690 7.8316 0.1851
108.3890 7.8183 0.1930
108.4090 7.8050 0.1796
108.4290 7.7916 0.1925
108.4490 7.7783 0.1798
108.4690 7.7649 0.1835
108.4890 7.7516 0.1835
108.5090 7.7383 0.1869
108.5290 7.7249 0.1747
108.5490 7.7115 0.1866
108.5690 7.6982 0.1813
108.5890 7.6849 0.1813
108.6090 7.6716 0.1787
108.6290 7.6582 0.1817
108.6490 7.6448 0.1790
108.6690 7.6315 0.1775
108.6890 7.6182 0.1858
108.7090 7.6049 0.1722
108.7290 7.5916 0.1849
108.7490 7.5783 0.1757
108.7690 7.5650 0.1878
108.7890 7.5516 0.1673
108.8090 7.5383 0.1856
108.8290 7.5249 0.1785
108.8490 7.5116 0.1750
108.8690 7.4982 0.1756
108.8890 7.4849 0.1788
108.9090 7.4715 0.1699
108.9290 7.4582 0.1769
108.9490 7.4449 0.1829
108.9690 7.4316 0.1674
108.9890 7.4182 0.1825
109.0090 7.4049 0.1718
109.0290 7.3916 0.1753
109.0490 7.3783 0.1725
109.0690 7.3649 0.1722
109.0890 7.3516 0.1652
109.1090 7.3382 0.1830
109.1290 7.3249 0.1616
109.1490 7.3116 0.1734
109.1690 7.2983 0.1758
109.1890 7.2849 0.1683
109.2090 7.2716 0.1701
109.2290 7.2583 0.1711
109.2490 7.2449 0.1691
109.2690 7.2316 0.1636
109.2890 7.2182 0.1762
109.3090 7.2049 0.1603
109.3290 7.1916 0.1724
109.3490 7.1782 0.1634
109.3690 7.1649 0.1679
109.3890 7.1515 0.1633
109.4090 7.1382 0.1731
109.4290 7.1249 0.1619
109.4490 7.1116 0.1651
109.4690 7.0983 0.1679
109.4890 7.0850 0.1643
109.5090 7.0716 0.1640
109.5290 7.0583 0.1640
109.5490 7.0449 0.1651
109.5690 7.0316 0.1595
109.5890 7.0182 0.1670
109.6090 7.0049 0.1577
109.6290 6.9916 0.1626
109.6490 6.9782 0.1586
109.6690 6.9649 0.1659
109.6890 6.9516 0.1510
109.7090 6.9382 0.1621
109.7290 6.9248 0.1605
109.7490 6.9115 0.1567
109.7690 6.8982 0.1624
109.7890 6.8849 0.1558
109.8090 6.8716 0.1537
109.8290 6.8583 0.1594
109.8490 6.8450 0.1591
109.8690 6.8317 0.1543
109.8890 6.8183 0.1593
109.9090 6.8049 0.1574
109.9290 6.7916 0.1541
109.9490 6.7783 0.1633
109.9690 6.7649 0.1500
109.9890 6.7515 0.1523
110.0090 6.7382 0.1626
110.0290 6.7249 0.1454
110.0490 6.7115 0.1554
110.0690 6.6982 0.1613
110.0890 6.6848 0.1503
110.1090 6.6715 0.1528
110.1290 6.6582 0.1578
110.1490 6.6449 0.1490
110.1690 6.6316 0.1502
110.1890 6.6182 0.1564
110.2090 6.6049 0.1470
110.2290 6.5916 0.1521
110.2490 6.5783 0.1557
110.2690 6.5649 0.1432
110.2890 6.5516 0.1502
110.3090 6.5383 0.1545
110.3290 6.5250 0.1441
110.3490 6.5116 0.1474
110.3690 6.4982 0.1523
110.3890 6.4848 0.1430
110.4090 6.4715 0.1471
110.4290 6.4582 0.1498
110.4490 6.4448 0.1418
110.4690 6.4315 0.1470
110.4890 6.4182 0.1525
110.5090 6.4049 0.1366
110.5290 6.3916 0.1453
110.5490 6.3783 0.1494
110.5690 6.3650 0.1401
110.5890 6.3517 0.1381
110.6090 6.3383 0.1491
110.6290 6.3250 0.1376
110.6490 6.3116 0.1413
110.6690 6.2983 0.1476
110.6890 6.2849 0.1342
110.7090 6.2716 0.1380
110.7290 6.2582 0.1482
110.7490 6.2449 0.1328
110.7690 6.2316 0.1433
110.7890 6.2182 0.1446
110.8090 6.2049 0.1294
110.8290 6.1915 0.1427
110.8490 6.1782 0.1446
110.8690 6.1649 0.1285
110.8890 6.1516 0.1372
110.9090 6.1382 0.1435
110.9290 6.1249 0.1268
110.9490 6.1116 0.1380
110.9690 6.0983 0.1376
110.9890 6.0849 0.1273
111.0090 6.0716 0.1391
111.0290 6.0583 0.1346
111.0490 6.0449 0.1280
111.0690 6.0316 0.1414
111.0890 6.0182 0.1326
111.1090 6.0049 0.1243
111.1290 5.9916 0.1408
111.1490 5.9782 0.1309
111.1690 5.9649 0.1263
111.1890 5.9515 0.1402
111.2090 5.9382 0.1286
111.2290 5.9249 0.1242
111.2490 5.9115 0.1318
111.2690 5.8982 0.1262
111.2890 5.8849 0.1242
111.3090 5.8716 0.1365
111.3290 5.8583 0.1211
111.3490 5.8449 0.1260
111.3690 5.8316 0.1360
111.3890 5.8183 0.1196
111.4090 5.8050 0.1232
111.4290 5.7916 0.1310
111.4490 5.7782 0.1227
111.4690 5.7649 0.1239
111.4890 5.7516 0.1297
111.5090 5.7382 0.1176
111.5290 5.7249 0.1236
111.5490 5.7115 0.1296
111.5690 5.6982 0.1145
111.5890 5.6849 0.1233
111.6090 5.6716 0.1242
111.6290 5.6582 0.1166
111.6490 5.6449 0.1225
111.6690 5.6316 0.1181
111.6890 5.6183 0.1166
111.7090 5.6049 0.1214
111.7290 5.5916 0.1179
111.7490 5.5783 0.1163
111.7690 5.5649 0.1237
111.7890 5.5516 0.1150
111.8090 5.5382 0.1178
111.8290 5.5249 0.1197
111.8490 5.5116 0.1166
111.8690 5.4982 0.1191
111.8890 5.4849 0.1130
111.9090 5.4715 0.1190
111.9290 5.4582 0.1162
111.9490 5.4449 0.1132
111.9690 5.4316 0.1183
111.9890 5.4182 0.1129
112.0090 5.4049 0.1131
112.0290 5.3916 0.1133
112.0490 5.3783 0.1117
112.0690 5.3649 0.1127
112.0890 5.3516 0.1150
112.1090 5.3382 0.1069
112.1290 5.3249 0.1133
112.1490 5.3116 0.1125
112.1690 5.2982 0.1069
112.1890 5.2848 0.1129
112.2090 5.2715 0.1167
112.2290 5.2582 0.1027
112.2490 5.2449 0.1081
112.2690 5.2315 0.1144
112.2890 5.2182 0.1009
112.3090 5.2049 0.1080
112.3290 5.1916 0.1125
112.3490 5.1782 0.0981
112.3690 5.1649 0.1081
112.3890 5.1516 0.1056
112.4090 5.1383 0.0994
112.4290 5.1249 0.1074
112.4490 5.1116 0.1054
112.4690 5.0982 0.1016
112.4890 5.0849 0.1034
112.5090 5.0716 0.0997
112.5290 5.0582 0.1002
112.5490 5.0449 0.1071
112.5690 5.0315 0.0981
112.5890 5.0182 0.1001
112.6090 5.0049 0.1013
112.6290 4.9915 0.0933
112.6490 4.9782 0.0991
112.6690 4.9649 0.1048
112.6890 4.9516 0.0938
112.7090 4.9383 0.0975
112.7290 4.9249 0.0964
112.7490 4.9116 0.0988
112.7690 4.8983 0.0943
112.7890 4.8849 0.0989
112.8090 4.8716 0.0958
112.8290 4.8583 0.0908
112.8490 4.8449 0.0959
112.8690 4.8316 0.0948
112.8890 4.8182 0.0913
112.9090 4.8049 0.0935
112.9290 4.7915 0.0949
112.9490 4.7782 0.0888
112.9690 4.7649 0.0942
112.9890 4.7515 0.0944
113.0090 4.7382 0.0867
113.0290 4.7249 0.0931
113.0490 4.7116 0.0940
113.0690 4.6982 0.0874
113.0890 4.6849 0.0939
113.1090 4.6716 0.0945
113.1290 4.6583 0.0844
113.1490 4.6449 0.0926
113.1690 4.6316 0.0909
113.1890 4.6183 0.0849
113.2090 4.6050 0.0922
113.2290 4.5916 0.0880
113.2490 4.5782 0.0793
113.2690 4.5649 0.0926
113.2890 4.5515 0.0878
113.3090 4.5382 0.0727
113.3290 4.5249 0.0940
113.3490 4.5115 0.0834
113.3690 4.4982 0.0776
113.3890 4.4849 0.0916
113.4090 4.4716 0.0833
113.4290 4.4582 0.0766
113.4490 4.4449 0.0866
113.4690 4.4316 0.0816
113.4890 4.4183 0.0796
113.5090 4.4049 0.0859
113.5290 4.3916 0.0807
113.5490 4.3783 0.0700
113.5690 4.3650 0.0862
113.5890 4.3516 0.0819
113.6090 4.3382 0.0692
113.6290 4.3249 0.0824
113.6490 4.3115 0.0849
113.6690 4.2982 0.0653
113.6890 4.2849 0.0834
113.7090 4.2715 0.0810
113.7290 4.2582 0.0656
113.7490 4.2449 0.0843
113.7690 4.2316 0.0761
113.7890 4.2182 0.0662
113.8090 4.2049 0.0828
113.8290 4.1916 0.0749
113.8490 4.1783 0.0652
113.8690 4.1650 0.0814
113.8890 4.1516 0.0703
113.9090 4.1382 0.0682
113.9290 4.1249 0.0825
113.9490 4.1116 0.0706
113.9690 4.0982 0.0686
113.9890 4.0849 0.0773
114.0090 4.0715 0.0664
114.0290 4.0582 0.0703
114.0490 4.0449 0.0675
114.0690 4.0315 0.0699
114.0890 4.0182 0.0706
114.1090 4.0049 0.0652
114.1290 3.9916 0.0701
114.1490 3.9782 0.0684
114.1690 3.9649 0.0582
114.1890 3.9516 0.0739
114.2090 3.9383 0.0681
114.2290 3.9249 0.0584
114.2490 3.9116 0.0704
114.2690 3.8983 0.0673
114.2890 3.8850 0.0574
114.3090 3.8716 0.0726
114.3290 3.8582 0.0596
114.3490 3.8449 0.0612
114.3690 3.8315 0.0678
114.3890 3.8182 0.0583
114.4090 3.8049 0.0602
114.4290 3.7915 0.0696
114.4490 3.7782 0.0536
114.4690 3.7649 0.0598
114.4890 3.7516 0.0688
114.5090 3.7382 0.0558
114.5290 3.7249 0.0613
114.5490 3.7116 0.0642
114.5690 3.6983 0.0522
114.5890 3.6849 0.0569
114.6090 3.6716 0.0637
114.6290 3.6583 0.0532
114.6490 3.6450 0.0572
114.6690 3.6316 0.0607
114.6890 3.6183 0.0499
114.7090 3.6049 0.0616
114.7290 3.5916 0.0601
114.7490 3.5783 0.0475
114.7690 3.5649 0.0574
114.7890 3.5515 0.0543
114.8090 3.5382 0.0480
114.8290 3.5249 0.0625
114.8490 3.5116 0.0497
114.8690 3.4982 0.0444
114.8890 3.4849 0.0597
114.9090 3.4716 0.0499
114.9290 3.4583 0.0444
114.9490 3.4449 0.0578
114.9690 3.4316 0.0492
114.9890 3.4182 0.0467
115.0090 3.4049 0.0543
115.0290 3.3916 0.0457
115.0490 3.3782 0.0461
115.0690 3.3649 0.0517
115.0890 3.3516 0.0444
115.1090 3.3383 0.0425
115.1290 3.3249 0.0476
115.1490 3.3115 0.0457
115.1690 3.2982 0.0429
115.1890 3.2849 0.0430
115.2090 3.2715 0.0432
115.2290 3.2582 0.0369
115.2490 3.2449 0.0460
115.2690 3.2316 0.0444
115.2890 3.2183 0.0429
115.3090 3.2050 0.0427
115.3290 3.1916 0.0369
115.3490 3.1783 0.0390
115.3690 3.1650 0.0458
115.3890 3.1516 0.0365
115.4090 3.1383 0.0325
115.4290 3.1249 0.0439
115.4490 3.1115 0.0331
115.4690 3.0982 0.0317
115.4890 3.0849 0.0406
115.5090 3.0715 0.0313
115.5290 3.0581 0.0345
115.5490 3.0448 0.0383
115.5690 3.0316 0.0312
115.5890 3.0182 0.0327
115.6090 3.0049 0.0319
115.6290 2.9916 0.0296
115.6490 2.9783 0.0327
115.6690 2.9650 0.0265
115.6890 2.9516 0.0314
115.7090 2.9382 0.0276
115.7290 2.9249 0.0216
115.7490 2.9116 0.0323
115.7690 2.8982 0.0234
115.7890 2.8848 0.0256
115.8090 2.8715 0.0270
115.8290 2.8582 0.0245
115.8490 2.8449 0.0175
115.8690 2.8316 0.0265
115.8890 2.8182 0.0205
115.9090 2.8049 0.0191
115.9290 2.7916 0.0244
115.9490 2.7782 0.0136
115.9690 2.7649 0.0230
115.9890 2.7516 0.0243
116.0090 2.7383 0.0125
116.0290 2.7250 0.0189
116.0490 2.7116 0.0166
116.0690 2.6982 0.0120
116.0890 2.6849 0.0173
116.1090 2.6716 0.0123
116.1290 2.6582 0.0127
116.1490 2.6449 0.0160
116.1690 2.6315 0.0059
116.1890 2.6182 0.0142
116.2090 2.6049 0.0142
116.2290 2.5916 0.0042
116.2490 2.5782 0.0152
116.2690 2.5649 0.0117
116.2890 2.5516 -0.0017
116.3090 2.5383 0.0130
116.3290 2.5249 0.0082
116.3490 2.5116 -0.0006
116.3690 2.4983 0.0113
116.3890 2.4850 0.0057
116.4090 2.4716 -0.0026
116.4290 2.4582 0.0120
116.4490 2.4449 0.0087
116.4690 2.4316 -0.0064
116.4890 2.4182 0.0059
116.5090 2.4049 0.0045
116.5290 2.3915 -0.0020
116.5490 2.3782 0.0036
116.5690 2.3649 -0.0009
116.5890 2.3515 -0.0059
116.6090 2.3382 0.0067
116.6290 2.3249 -0.0022
116.6490 2.3116 -0.0057
116.6690 2.2982 0.0010
116.6890 2.2849 -0.0053
116.7090 2.2716 -0.0078
116.7290 2.2583 0.0024
116.7490 2.2450 -0.0056
116.7690 2.2316 -0.0119
116.7890 2.2182 0.0022
116.8090 2.2049 -0.0069
116.8290 2.1916 -0.0171
116.8490 2.1782 0.0010
116.8690 2.1649 -0.0119
116.8890 2.1515 -0.0123
116.9090 2.1382 0.0026
116.9290 2.1249 -0.0131
116.9490 2.1115 -0.0114
116.9690 2.0982 0.0023
116.9890 2.0848 -0.0134
117.0090 2.0715 -0.0165
117.0290 2.0582 0.0022
117.0490 2.0449 -0.0167
117.0690 2.0316 -0.0118
117.0890 2.0183 0.0052
117.1090 2.0050 -0.0185
117.1290 1.9916 -0.0112
117.1490 1.9783 -0.0031
117.1690 1.9649 -0.0129
117.1890 1.9516 -0.0102
117.2090 1.9383 -0.0036
117.2290 1.9249 -0.0150
117.2490 1.9115 -0.0133
117.2690 1.8982 -0.0033
117.2890 1.8849 -0.0169
117.3090 1.8715 -0.0075
117.3290 1.8582 -0.0076
117.3490 1.8449 -0.0145
117.3690 1.8316 -0.0114
117.3890 1.8182 -0.0102
117.4090 1.8049 -0.0105
117.4290 1.7916 -0.0121
117.4490 1.7783 -0.0060
117.4690 1.7650 -0.0120
117.4890 1.7516 -0.0147
117.5090 1.7383 -0.0048
117.5290 1.7250 -0.0102
117.5490 1.7116 -0.0124
117.5690 1.6983 -0.0069
117.5890 1.6849 -0.0094
117.6090 1.6715 -0.0116
117.6290 1.6582 -0.0062
117.6490 1.6449 -0.0070
117.6690 1.6315 -0.0148
117.6890 1.6182 -0.0081
117.7090 1.6049 -0.0105
117.7290 1.5916 -0.0167
117.7490 1.5783 -0.0036
117.7690 1.5649 -0.0087
117.7890 1.5516 -0.0157
117.8090 1.5383 -0.0069
117.8290 1.5249 -0.0086
117.8490 1.5116 -0.0177
117.8690 1.4982 -0.0045
117.8890 1.4849 -0.0077
117.9090 1.4716 -0.0177
117.9290 1.4583 -0.0093
117.9490 1.4449 -0.0093
117.9690 1.4315 -0.0156
117.9890 1.4182 -0.0085
118.0090 1.4049 -0.0060
118.0290 1.3915 -0.0188
118.0490 1.3782 -0.0031
118.0690 1.3649 -0.0040
118.0890 1.3516 -0.0225
118.1090 1.3382 -0.0058
118.1290 1.3249 -0.0049
118.1490 1.3116 -0.0219
118.1690 1.2983 -0.0024
118.1890 1.2849 -0.0057
118.2090 1.2716 -0.0230
118.2290 1.2582 -0.0029
118.2490 1.2449 -0.0038
118.2690 1.2316 -0.0228
118.2890 1.2183 0.0004
118.3090 1.2049 -0.0100
118.3290 1.1915 -0.0283
118.3490 1.1782 -0.0001
118.3690 1.1649 -0.0107
118.3890 1.1516 -0.0233
118.4090 1.1382 -0.0006
118.4290 1.1249 -0.0103
118.4490 1.1116 -0.0171
118.4690 1.0982 -0.0043
118.4890 1.0849 -0.0146
118.5090 1.0716 -0.0166
118.5290 1.0583 -0.0076
118.5490 1.0449 -0.0131
118.5690 1.0316 -0.0186
118.5890 1.0182 -0.0034
118.6090 1.0049 -0.0103
118.6290 0.9916 -0.0170
118.6490 0.9783 -0.0058
118.6690 0.9649 -0.0121
118.6890 0.9516 -0.0164
118.7090 0.9382 -0.0090
118.7290 0.9249 -0.0135
118.7490 0.9116 -0.0189
118.7690 0.8982 -0.0113
118.7890 0.8849 -0.0090
118.8090 0.8716 -0.0146
118.8290 0.8583 -0.0094
118.8490 0.8449 -0.0075
118.8690 0.8316 -0.0133
118.8890 0.8183 -0.0098
118.9090 0.8050 -0.0103
118.9290 0.7916 -0.0201
118.9490 0.7782 -0.0060
118.9690 0.7649 -0.0055
118.9890 0.7516 -0.0224
119.0090 0.7383 -0.0083
119.0290 0.7249 -0.0065
119.0490 0.7115 -0.0211
119.0690 0.6982 -0.0026
119.0890 0.6849 -0.0132
119.1090 0.6716 -0.0197
119.1290 0.6582 -0.0048
119.1490 0.6448 -0.0146
119.1690 0.6315 -0.0207
119.1890 0.6182 -0.0012
119.2090 0.6049 -0.0144
119.2290 0.5915 -0.0172
119.2490 0.5783 -0.0016
119.2690 0.5650 -0.0134
119.2890 0.5516 -0.0161
119.3090 0.5382 -0.0066
119.3290 0.5249 -0.0134
119.3490 0.5116 -0.0150
119.3690 0.4983 -0.0117
119.3890 0.4849 -0.0133
119.4090 0.4715 -0.0144
119.4290 0.4582 -0.0094
119.4490 0.4449 -0.0146
119.4690 0.4316 -0.0154
119.4890 0.4182 -0.0089
119.5090 0.4049 -0.0109
119.5290 0.3916 -0.0101
119.5490 0.3783 -0.0133
119.5690 0.3649 -0.0105
119.5890 0.3516 -0.0113
119.6090 0.3383 -0.0106
119.6290 0.3249 -0.0136
119.6490 0.3116 -0.0127
119.6690 0.2982 -0.0088
119.6890 0.2849 -0.0127
119.7090 0.2716 -0.0126
119.7290 0.2583 -0.0106
119.7490 0.2449 -0.0160
119.7690 0.2315 -0.0077
119.7890 0.2182 -0.0127
119.8090 0.2049 -0.0102
119.8290 0.1916 -0.0121
119.8490 0.1782 -0.0149
119.8690 0.1649 -0.0078
119.8890 0.1516 -0.0118
119.9090 0.1383 -0.0163
119.9290 0.1249 -0.0091
119.9490 0.1116 -0.0104
119.9690 0.0983 -0.0138
119.9890 0.0850 -0.0148
120.0090 0.0716 -0.0106
120.0290 0.0582 -0.0156
120.0490 0.0449 -0.0116
120.0690 0.0316 -0.0115
120.0890 0.0183 -0.0150
120.1090 0.0049 -0.0081
120.1170 -0.0003 0.0102
