Raw Data
Time Displacement Force
(s) (mm) (N)
0.0000 0.0000 -0.0087
0.0200 0.0001 0.0057
0.0400 0.0020 0.0732
0.0600 0.0095 0.0657
0.0800 0.0213 -0.0148
0.1000 0.0338 -0.0103
0.1200 0.0465 0.0162
0.1400 0.0599 0.0021
0.1600 0.0739 -0.0071
0.1800 0.0881 0.0021
0.2000 0.1020 -0.0155
0.2200 0.1156 -0.0124
0.2400 0.1289 0.0085
0.2600 0.1422 -0.0175
0.2800 0.1555 0.0006
0.3000 0.1689 0.0065
0.3200 0.1823 -0.0194
0.3400 0.1956 0.0049
0.3600 0.2090 -0.0004
0.3800 0.2224 -0.0096
0.4000 0.2357 0.0020
0.4200 0.2491 -0.0003
0.4400 0.2624 -0.0049
0.4600 0.2757 0.0009
0.4800 0.2891 0.0042
0.5000 0.3024 -0.0086
0.5200 0.3157 0.0012
0.5400 0.3290 0.0033
0.5600 0.3423 -0.0097
0.5800 0.3557 0.0053
0.6000 0.3690 -0.0005
0.6200 0.3823 -0.0064
0.6400 0.3956 0.0065
0.6600 0.4090 0.0013
0.6800 0.4224 -0.0068
0.7000 0.4357 0.0043
0.7200 0.4490 0.0019
0.7400 0.4624 -0.0082
0.7600 0.4757 0.0112
0.7800 0.4890 -0.0020
0.8000 0.5024 -0.0038
0.8200 0.5157 0.0056
0.8400 0.5291 -0.0027
0.8600 0.5424 -0.0036
0.8800 0.5557 0.0031
0.9000 0.5690 0.0035
0.9200 0.5823 -0.0032
0.9400 0.5957 0.0037
0.9600 0.6090 0.0034
0.9800 0.6223 -0.0031
1.0000 0.6356 0.0060
1.0200 0.6489 -0.0009
1.0400 0.6623 0.0014
1.0600 0.6757 0.0086
1.0800 0.6890 0.0002
1.1000 0.7024 0.0006
1.1200 0.7158 0.0072
1.1400 0.7291 -0.0012
1.1600 0.7424 -0.0008
1.1800 0.7557 0.0114
1.2000 0.7691 0.0015
1.2200 0.7824 -0.0044
1.2400 0.7957 0.0092
1.2600 0.8090 0.0042
1.2800 0.8223 0.0010
1.3000 0.8357 0.0111
1.3200 0.8490 0.0041
1.3400 0.8623 0.0026
1.3600 0.8756 0.0089
1.3800 0.8890 0.0043
1.4000 0.9023 0.0015
1.4200 0.9156 0.0091
1.4400 0.9290 0.0040
1.4600 0.9423 0.0016
1.4800 0.9558 0.0091
1.5000 0.9691 0.0019
1.5200 0.9824 0.0001
1.5400 0.9957 0.0150
1.5600 1.0091 -0.0017
1.5800 1.0224 0.0029
1.6000 1.0357 0.0148
1.6200 1.0490 0.0002
1.6400 1.0623 0.0043
1.6600 1.0757 0.0137
1.6800 1.0890 0.0002
1.7000 1.1023 0.0068
1.7200 1.1157 0.0132
1.7400 1.1291 0.0004
1.7600 1.1424 0.0104
1.7800 1.1557 0.0106
1.8000 1.1690 0.0049
1.8200 1.1824 0.0137
1.8400 1.1957 0.0054
1.8600 1.2090 0.0031
1.8800 1.2224 0.0164
1.9000 1.2357 0.0045
1.9200 1.2490 0.0064
1.9400 1.2624 0.0123
1.9600 1.2757 0.0082
1.9800 1.2890 0.0089
2.0000 1.3024 0.0139
2.0200 1.3157 -0.0017
2.0400 1.3290 0.0125
2.0600 1.3423 0.0137
2.0800 1.3556 0.0039
2.1000 1.3690 0.0154
2.1200 1.3823 0.0093
2.1400 1.3957 0.0032
2.1600 1.4090 0.0149
2.1800 1.4224 0.0076
2.2000 1.4357 0.0077
2.2200 1.4491 0.0165
2.2400 1.4624 0.0106
2.2600 1.4757 0.0039
2.2800 1.4891 0.0168
2.3000 1.5024 0.0112
2.3200 1.5157 0.0012
2.3400 1.5291 0.0197
2.3600 1.5424 0.0144
2.3800 1.5557 0.0073
2.4000 1.5691 0.0221
2.4200 1.5824 0.0109
2.4400 1.5957 0.0106
2.4600 1.6090 0.0254
2.4800 1.6223 0.0106
2.5000 1.6357 0.0112
2.5200 1.6490 0.0204
2.5400 1.6624 0.0144
2.5600 1.6757 0.0113
2.5800 1.6891 0.0196
2.6000 1.7024 0.0140
2.6200 1.7157 0.0162
2.6400 1.7291 0.0234
2.6600 1.7424 0.0137
2.6800 1.7558 0.0234
2.7000 1.7690 0.0255
2.7200 1.7823 0.0150
2.7400 1.7957 0.0247
2.7600 1.8090 0.0226
2.7800 1.8223 0.0230
2.8000 1.8356 0.0300
2.8200 1.8490 0.0246
2.8400 1.8624 0.0261
2.8600 1.8757 0.0325
2.8800 1.8890 0.0275
2.9000 1.9023 0.0355
2.9200 1.9157 0.0363
2.9400 1.9291 0.0354
2.9600 1.9424 0.0431
2.9800 1.9557 0.0438
3.0000 1.9691 0.0445
3.0200 1.9825 0.0538
3.0400 1.9958 0.0485
3.0600 2.0091 0.0536
3.0800 2.0224 0.0681
3.1000 2.0357 0.0599
3.1200 2.0490 0.0601
3.1400 2.0623 0.0775
3.1600 2.0756 0.0654
3.1800 2.0890 0.0755
3.2000 2.1023 0.0814
3.2200 2.1157 0.0703
3.2400 2.1290 0.0882
3.2600 2.1424 0.0887
3.2800 2.1557 0.0828
3.3000 2.1691 0.0986
3.3200 2.1824 0.1003
3.3400 2.1957 0.0902
3.3600 2.2091 0.1068
3.3800 2.2224 0.1082
3.4000 2.2357 0.1002
3.4200 2.2490 0.1145
3.4400 2.2623 0.1181
3.4600 2.2757 0.1153
3.4800 2.2891 0.1208
3.5000 2.3024 0.1204
3.5200 2.3157 0.1255
3.5400 2.3290 0.1313
3.5600 2.3423 0.1349
3.5800 2.3557 0.1328
3.6000 2.3690 0.1389
3.6200 2.3824 0.1402
3.6400 2.3958 0.1440
3.6600 2.4091 0.1471
3.6800 2.4224 0.1494
3.7000 2.4357 0.1509
3.7200 2.4491 0.1540
3.7400 2.4624 0.1598
3.7600 2.4757 0.1614
3.7800 2.4890 0.1629
3.8000 2.5023 0.1711
3.8200 2.5157 0.1647
3.8400 2.5290 0.1710
3.8600 2.5423 0.1796
3.8800 2.5556 0.1772
3.9000 2.5690 0.1722
3.9200 2.5824 0.1887
3.9400 2.5957 0.1854
3.9600 2.6090 0.1806
3.9800 2.6223 0.2018
4.0000 2.6357 0.1930
4.0200 2.6491 0.1889
4.0400 2.6624 0.2072
4.0600 2.6757 0.2022
4.0800 2.6890 0.2033
4.1000 2.7024 0.2133
4.1200 2.7157 0.2055
4.1400 2.7291 0.2103
4.1600 2.7424 0.2217
4.1800 2.7558 0.2133
4.2000 2.7691 0.2180
4.2200 2.7823 0.2255
4.2400 2.7956 0.2194
4.2600 2.8089 0.2253
4.2800 2.8223 0.2318
4.3000 2.8356 0.2313
4.3200 2.8490 0.2336
4.3400 2.8623 0.2393
4.3600 2.8757 0.2371
4.3800 2.8891 0.2391
4.4000 2.9024 0.2445
4.4200 2.9158 0.2468
4.4400 2.9291 0.2469
4.4600 2.9425 0.2507
4.4800 2.9558 0.2516
4.5000 2.9691 0.2501
4.5200 2.9824 0.2599
4.5400 2.9957 0.2629
4.5600 3.0090 0.2555
4.5800 3.0223 0.2629
4.6000 3.0356 0.2696
4.6200 3.0489 0.2672
4.6400 3.0623 0.2708
4.6600 3.0756 0.2745
4.6800 3.0890 0.2713
4.7000 3.1023 0.2807
4.7200 3.1157 0.2779
4.7400 3.1291 0.2758
4.7600 3.1424 0.2925
4.7800 3.1558 0.2810
4.8000 3.1691 0.2788
4.8200 3.1825 0.2966
4.8400 3.1958 0.2855
4.8600 3.2090 0.2891
4.8800 3.2223 0.3076
4.9000 3.2357 0.2923
4.9200 3.2490 0.2935
4.9400 3.2623 0.3188
4.9600 3.2756 0.2956
4.9800 3.2890 0.3024
5.0000 3.3023 0.3183
5.0200 3.3157 0.2989
5.0400 3.3290 0.3160
5.0600 3.3423 0.3227
5.0800 3.3557 0.3015
5.1000 3.3691 0.3208
5.1200 3.3824 0.3276
5.1400 3.3957 0.3090
5.1600 3.4091 0.3345
5.1800 3.4224 0.3299
5.2000 3.4358 0.3148
5.2200 3.4491 0.3382
5.2400 3.4624 0.3358
5.2600 3.4757 0.3270
5.2800 3.4891 0.3426
5.3000 3.5023 0.3366
5.3200 3.5156 0.3364
5.3400 3.5289 0.3472
5.3600 3.5423 0.3400
5.3800 3.5557 0.3425
5.4000 3.5690 0.3521
5.4200 3.5824 0.3441
5.4400 3.5957 0.3512
5.4600 3.6091 0.3557
5.4800 3.6224 0.3463
5.5000 3.6357 0.3602
5.5200 3.6490 0.3614
5.5400 3.6624 0.3506
5.5600 3.6757 0.3605
5.5800 3.6890 0.3623
5.6000 3.7023 0.3629
5.6200 3.7157 0.3701
5.6400 3.7290 0.3676
5.6600 3.7424 0.3663
5.6800 3.7557 0.3758
5.7000 3.7690 0.3749
5.7200 3.7823 0.3686
5.7400 3.7957 0.3809
5.7600 3.8090 0.3762
5.7800 3.8223 0.3758
5.8000 3.8357 0.3930
5.8200 3.8491 0.3800
5.8400 3.8624 0.3815
5.8600 3.8757 0.3973
5.8800 3.8891 0.3838
5.9000 3.9024 0.3881
5.9200 3.9158 0.3996
5.9400 3.9291 0.3907
5.9600 3.9424 0.3985
5.9800 3.9557 0.4065
6.0000 3.9690 0.3944
6.0200 3.9824 0.3995
6.0400 3.9957 0.4120
6.0600 4.0090 0.4015
6.0800 4.0223 0.4074
6.1000 4.0357 0.4104
6.1200 4.0490 0.4060
6.1400 4.0623 0.4134
6.1600 4.0757 0.4138
6.1800 4.0891 0.4119
6.2000 4.1024 0.4203
6.2200 4.1157 0.4165
6.2400 4.1290 0.4151
6.2600 4.1424 0.4257
6.2800 4.1557 0.4208
6.3000 4.1691 0.4225
6.3200 4.1824 0.4279
6.3400 4.1957 0.4277
6.3600 4.2091 0.4353
6.3800 4.2224 0.4309
6.4000 4.2356 0.4342
6.4200 4.2489 0.4357
6.4400 4.2623 0.4323
6.4600 4.2756 0.4388
6.4800 4.2890 0.4405
6.5000 4.3023 0.4361
6.5200 4.3157 0.4458
6.5400 4.3291 0.4415
6.5600 4.3425 0.4380
6.5800 4.3558 0.4546
6.6000 4.3691 0.4504
6.6200 4.3825 0.4398
6.6400 4.3958 0.4572
6.6600 4.4091 0.4532
6.6800 4.4223 0.4533
6.7000 4.4357 0.4610
6.7200 4.4490 0.4552
6.7400 4.4623 0.4551
6.7600 4.4756 0.4648
6.7800 4.4890 0.4609
6.8000 4.5023 0.4591
6.8200 4.5157 0.4719
6.8400 4.5290 0.4622
6.8600 4.5424 0.4608
6.8800 4.5557 0.4816
6.9000 4.5691 0.4672
6.9200 4.5824 0.4664
6.9400 4.5957 0.4807
6.9600 4.6090 0.4699
6.9800 4.6224 0.4708
7.0000 4.6357 0.4857
7.0200 4.6490 0.4749
7.0400 4.6623 0.4755
7.0600 4.6757 0.4893
7.0800 4.6890 0.4788
7.1000 4.7024 0.4816
7.1200 4.7157 0.4922
7.1400 4.7290 0.4803
7.1600 4.7423 0.4883
7.1800 4.7557 0.4938
7.2000 4.7690 0.4839
7.2200 4.7824 0.4927
7.2400 4.7957 0.4979
7.2600 4.8091 0.4940
7.2800 4.8224 0.4951
7.3000 4.8357 0.4985
7.3200 4.8490 0.4999
7.3400 4.8624 0.4970
7.3600 4.8758 0.5017
7.3800 4.8891 0.5030
7.4000 4.9024 0.5029
7.4200 4.9157 0.5087
7.4400 4.9290 0.5047
7.4600 4.9424 0.5064
7.4800 4.9556 0.5112
7.5000 4.9690 0.5082
7.5200 4.9823 0.5070
7.5400 4.9957 0.5169
7.5600 5.0090 0.5120
7.5800 5.0223 0.5116
7.6000 5.0357 0.5272
7.6200 5.0491 0.5133
7.6400 5.0624 0.5167
7.6600 5.0758 0.5325
7.6800 5.0891 0.5197
7.7000 5.1024 0.5212
7.7200 5.1158 0.5337
7.7400 5.1291 0.5199
7.7600 5.1423 0.5295
7.7800 5.1557 0.5368
7.8000 5.1690 0.5256
7.8200 5.1824 0.5318
7.8400 5.1957 0.5390
7.8600 5.2090 0.5321
7.8800 5.2223 0.5394
7.9000 5.2357 0.5424
7.9200 5.2490 0.5335
7.9400 5.2623 0.5416
7.9600 5.2757 0.5468
7.9800 5.2891 0.5380
8.0000 5.3024 0.5432
8.0200 5.3157 0.5474
8.0400 5.3291 0.5437
8.0600 5.3424 0.5448
8.0800 5.3558 0.5497
8.1000 5.3691 0.5463
8.1200 5.3824 0.5510
8.1400 5.3957 0.5566
8.1600 5.4090 0.5515
8.1800 5.4224 0.5517
8.2000 5.4357 0.5616
8.2200 5.4490 0.5557
8.2400 5.4623 0.5528
8.2600 5.4756 0.5639
8.2800 5.4890 0.5603
8.3000 5.5023 0.5574
8.3200 5.5157 0.5691
8.3400 5.5291 0.5603
8.3600 5.5425 0.5579
8.3800 5.5558 0.5712
8.4000 5.5691 0.5690
8.4200 5.5824 0.5611
8.4400 5.5957 0.5816
8.4600 5.6091 0.5718
8.4800 5.6224 0.5676
8.5000 5.6357 0.5790
8.5200 5.6490 0.5731
8.5400 5.6624 0.5740
8.5600 5.6757 0.5809
8.5800 5.6890 0.5719
8.6000 5.7023 0.5766
8.6200 5.7156 0.5880
8.6400 5.7290 0.5738
8.6600 5.7423 0.5844
8.6800 5.7557 0.5879
8.7000 5.7691 0.5757
8.7200 5.7824 0.5882
8.7400 5.7957 0.5881
8.7600 5.8091 0.5859
8.7800 5.8224 0.5904
8.8000 5.8358 0.5931
8.8200 5.8491 0.5892
8.8400 5.8623 0.5932
8.8600 5.8756 0.6003
8.8800 5.8890 0.5932
8.9000 5.9023 0.5952
8.9200 5.9156 0.5972
8.9400 5.9290 0.5987
8.9600 5.9423 0.6015
8.9800 5.9557 0.5991
9.0000 5.9691 0.5993
9.0200 5.9824 0.6006
9.0400 5.9957 0.6073
9.0600 6.0091 0.6022
9.0800 6.0224 0.6056
9.1000 6.0357 0.6103
9.1200 6.0490 0.6053
9.1400 6.0624 0.6091
9.1600 6.0757 0.6101
9.1800 6.0891 0.6168
9.2000 6.1024 0.6112
9.2200 6.1157 0.6178
9.2400 6.1291 0.6148
9.2600 6.1424 0.6162
9.2800 6.1557 0.6164
9.3000 6.1690 0.6170
9.3200 6.1823 0.6219
9.3400 6.1957 0.6164
9.3600 6.2090 0.6233
9.3800 6.2223 0.6201
9.4000 6.2357 0.6227
9.4200 6.2490 0.6256
9.4400 6.2624 0.6200
9.4600 6.2757 0.6236
9.4800 6.2890 0.6309
9.5000 6.3024 0.6271
9.5200 6.3158 0.6276
9.5400 6.3291 0.6329
9.5600 6.3424 0.6303
9.5800 6.3557 0.6275
9.6000 6.3691 0.6370
9.6200 6.3824 0.6321
9.6400 6.3957 0.6321
9.6600 6.4090 0.6413
9.6800 6.4223 0.6350
9.7000 6.4357 0.6318
9.7200 6.4490 0.6466
9.7400 6.4623 0.6376
9.7600 6.4757 0.6378
9.7800 6.4891 0.6515
9.8000 6.5024 0.6360
9.8200 6.5158 0.6414
9.8400 6.5291 0.6531
9.8600 6.5424 0.6378
9.8800 6.5558 0.6459
9.9000 6.5691 0.6518
9.9200 6.5824 0.6369
9.9400 6.5957 0.6563
9.9600 6.6090 0.6583
9.9800 6.6224 0.6424
10.0000 6.6357 0.6561
10.0200 6.6490 0.6582
10.0400 6.6623 0.6467
10.0600 6.6757 0.6574
10.0800 6.6890 0.6574
10.1000 6.7023 0.6531
10.1200 6.7157 0.6630
10.1400 6.7290 0.6616
10.1600 6.7424 0.6549
10.1800 6.7557 0.6664
10.2000 6.7691 0.6652
10.2200 6.7824 0.6587
10.2400 6.7958 0.6604
10.2600 6.8091 0.6693
10.2800 6.8224 0.6623
10.3000 6.8357 0.6643
10.3200 6.8490 0.6739
10.3400 6.8624 0.6661
10.3600 6.8757 0.6644
10.3800 6.8890 0.6786
10.4000 6.9023 0.6698
10.4200 6.9156 0.6696
10.4400 6.9290 0.6768
10.4600 6.9423 0.6714
10.4800 6.9557 0.6742
10.5000 6.9691 0.6846
10.5200 6.9824 0.6707
10.5400 6.9958 0.6775
10.5600 7.0091 0.6850
10.5800 7.0224 0.6744
10.6000 7.0357 0.6813
10.6200 7.0491 0.6839
10.6400 7.0624 0.6783
10.6600 7.0757 0.6892
10.6800 7.0890 0.6886
10.7000 7.1024 0.6852
10.7200 7.1157 0.6872
10.7400 7.1290 0.6883
10.7600 7.1423 0.6880
10.7800 7.1557 0.6873
10.8000 7.1690 0.6871
10.8200 7.1823 0.6961
10.8400 7.1957 0.6919
10.8600 7.2090 0.6882
10.8800 7.2224 0.6955
10.9000 7.2357 0.6956
10.9200 7.2490 0.6940
10.9400 7.2624 0.7048
10.9600 7.2757 0.6961
10.9800 7.2891 0.6934
11.0000 7.3024 0.7109
11.0200 7.3157 0.6988
11.0400 7.3290 0.7022
11.0600 7.3424 0.7050
11.0800 7.3557 0.6945
11.1000 7.3690 0.7051
11.1200 7.3823 0.7108
11.1400 7.3957 0.6995
11.1600 7.4090 0.7044
11.1800 7.4223 0.7140
11.2000 7.4357 0.7060
11.2200 7.4490 0.7060
11.2400 7.4624 0.7138
11.2600 7.4757 0.7084
11.2800 7.4890 0.7133
11.3000 7.5023 0.7126
11.3200 7.5157 0.7108
11.3400 7.5291 0.7124
11.3600 7.5424 0.7195
11.3800 7.5557 0.7136
11.4000 7.5691 0.7173
11.4200 7.5824 0.7229
11.4400 7.5957 0.7126
11.4600 7.6090 0.7207
11.4800 7.6223 0.7315
11.5000 7.6356 0.7166
11.5200 7.6490 0.7183
11.5400 7.6623 0.7291
11.5600 7.6756 0.7166
11.5800 7.6890 0.7253
11.6000 7.7024 0.7332
11.6200 7.7158 0.7176
11.6400 7.7291 0.7223
11.6600 7.7424 0.7390
11.6800 7.7558 0.7204
11.7000 7.7691 0.7291
11.7200 7.7824 0.7372
11.7400 7.7957 0.7242
11.7600 7.8090 0.7357
11.7800 7.8224 0.7376
11.8000 7.8357 0.7261
11.8200 7.8490 0.7385
11.8400 7.8623 0.7387
11.8600 7.8756 0.7305
11.8800 7.8890 0.7358
11.9000 7.9023 0.7450
11.9200 7.9157 0.7358
11.9400 7.9290 0.7396
11.9600 7.9424 0.7432
11.9800 7.9558 0.7334
12.0000 7.9691 0.7402
12.0200 7.9824 0.7511
12.0400 7.9957 0.7411
12.0600 8.0091 0.7374
12.0800 8.0224 0.7496
12.1000 8.0357 0.7498
12.1200 8.0490 0.7506
12.1400 8.0623 0.7459
12.1600 8.0757 0.7493
12.1800 8.0890 0.7540
12.2000 8.1023 0.7537
12.2200 8.1156 0.7443
12.2400 8.1290 0.7490
12.2600 8.1423 0.7541
12.2800 8.1557 0.7527
12.3000 8.1690 0.7483
12.3200 8.1824 0.7615
12.3400 8.1957 0.7546
12.3600 8.2091 0.7499
12.3800 8.2224 0.7661
12.4000 8.2357 0.7547
12.4200 8.2491 0.7566
12.4400 8.2624 0.7663
12.4600 8.2757 0.7605
12.4800 8.2890 0.7604
12.5000 8.3024 0.7658
12.5200 8.3157 0.7602
12.5400 8.3290 0.7609
12.5600 8.3423 0.7682
12.5800 8.3556 0.7641
12.6000 8.3690 0.7632
12.6200 8.3823 0.7677
12.6400 8.3957 0.7669
12.6600 8.4090 0.7685
12.6800 8.4224 0.7667
12.7000 8.4358 0.7712
12.7200 8.4491 0.7709
12.7400 8.4624 0.7712
12.7600 8.4757 0.7754
12.7800 8.4891 0.7709
12.8000 8.5024 0.7713
12.8200 8.5157 0.7786
12.8400 8.5290 0.7776
12.8600 8.5423 0.7702
12.8800 8.5557 0.7758
12.9000 8.5690 0.7804
12.9200 8.5823 0.7737
12.9400 8.5957 0.7783
12.9600 8.6090 0.7829
12.9800 8.6223 0.7763
13.0000 8.6357 0.7828
13.0200 8.6490 0.7830
13.0400 8.6624 0.7751
13.0600 8.6758 0.7861
13.0800 8.6891 0.7826
13.1000 8.7024 0.7835
13.1200 8.7157 0.7893
13.1400 8.7291 0.7848
13.1600 8.7424 0.7809
13.1800 8.7557 0.7918
13.2000 8.7690 0.7881
13.2200 8.7824 0.7863
13.2400 8.7957 0.7916
13.2600 8.8090 0.7864
13.2800 8.8223 0.7898
13.3000 8.8357 0.7951
13.3200 8.8490 0.7891
13.3400 8.8624 0.7964
13.3600 8.8757 0.7951
13.3800 8.8890 0.7911
13.4000 8.9024 0.7967
13.4200 8.9158 0.7957
13.4400 8.9291 0.7961
13.4600 8.9424 0.7996
13.4800 8.9557 0.7982
13.5000 8.9691 0.7972
13.5200 8.9824 0.7982
13.5400 8.9957 0.8038
13.5600 9.0090 0.7999
13.5800 9.0224 0.7972
13.6000 9.0357 0.8077
13.6200 9.0490 0.8035
13.6400 9.0623 0.8020
13.6600 9.0756 0.8075
13.6800 9.0890 0.8034
13.7000 9.1023 0.8045
13.7200 9.1156 0.8102
13.7400 9.1290 0.8095
13.7600 9.1424 0.8044
13.7800 9.1558 0.8101
13.8000 9.1691 0.8096
13.8200 9.1825 0.8043
13.8400 9.1958 0.8152
13.8600 9.2091 0.8085
13.8800 9.2224 0.8080
13.9000 9.2357 0.8162
13.9200 9.2490 0.8140
13.9400 9.2623 0.8101
13.9600 9.2757 0.8155
13.9800 9.2890 0.8157
14.0000 9.3023 0.8151
14.0200 9.3157 0.8144
14.0400 9.3290 0.8211
14.0600 9.3424 0.8160
14.0800 9.3557 0.8208
14.1000 9.3690 0.8244
14.1200 9.3824 0.8152
14.1400 9.3958 0.8190
14.1600 9.4091 0.8249
14.1800 9.4224 0.8184
14.2000 9.4357 0.8264
14.2200 9.4491 0.8283
14.2400 9.4624 0.8176
14.2600 9.4757 0.8301
14.2800 9.4890 0.8334
14.3000 9.5023 0.8222
14.3200 9.5157 0.8294
14.3400 9.5290 0.8293
14.3600 9.5423 0.8268
14.3800 9.5556 0.8366
14.4000 9.5690 0.8319
14.4200 9.5824 0.8288
14.4400 9.5957 0.8361
14.4600 9.6090 0.8338
14.4800 9.6224 0.8284
14.5000 9.6357 0.8398
14.5200 9.6491 0.8348
14.5400 9.6624 0.8333
14.5600 9.6757 0.8379
14.5800 9.6891 0.8372
14.6000 9.7024 0.8372
14.6200 9.7157 0.8425
14.6400 9.7290 0.8378
14.6600 9.7424 0.8405
14.6800 9.7557 0.8422
14.7000 9.7690 0.8372
14.7200 9.7823 0.8421
14.7400 9.7956 0.8424
14.7600 9.8090 0.8414
14.7800 9.8224 0.8465
14.8000 9.8357 0.8384
14.8200 9.8490 0.8452
14.8400 9.8624 0.8499
14.8600 9.8758 0.8393
14.8800 9.8891 0.8509
14.9000 9.9024 0.8499
14.9200 9.9157 0.8402
14.9400 9.9291 0.8525
14.9600 9.9424 0.8487
14.9800 9.9557 0.8425
15.0000 9.9690 0.8591
15.0200 9.9824 0.8507
15.0400 9.9957 0.8422
15.0600 10.0090 0.8603
15.0800 10.0223 0.8527
15.1000 10.0357 0.8464
15.1200 10.0490 0.8605
15.1400 10.0624 0.8514
15.1600 10.0757 0.8531
15.1800 10.0890 0.8631
15.2000 10.1024 0.8538
15.2200 10.1157 0.8550
15.2400 10.1291 0.8623
15.2600 10.1424 0.8568
15.2800 10.1557 0.8564
15.3000 10.1691 0.8616
15.3200 10.1824 0.8519
15.3400 10.1957 0.8578
15.3600 10.2090 0.8696
15.3800 10.2224 0.8554
15.4000 10.2357 0.8560
15.4200 10.2490 0.8682
15.4400 10.2623 0.8573
15.4600 10.2756 0.8594
15.4800 10.2890 0.8711
15.5000 10.3023 0.8565
15.5200 10.3157 0.8619
15.5400 10.3290 0.8703
15.5600 10.3424 0.8561
15.5800 10.3558 0.8635
15.6000 10.3691 0.8734
15.6200 10.3824 0.8572
15.6400 10.3957 0.8666
15.6600 10.4091 0.8748
15.6800 10.4224 0.8560
15.7000 10.4357 0.8703
15.7200 10.4490 0.8777
15.7400 10.4623 0.8587
15.7600 10.4757 0.8733
15.7800 10.4890 0.8794
15.8000 10.5023 0.8595
15.8200 10.5156 0.8801
15.8400 10.5290 0.8813
15.8600 10.5423 0.8597
15.8800 10.5557 0.8796
15.9000 10.5690 0.8823
15.9200 10.5824 0.8650
15.9400 10.5958 0.8828
15.9600 10.6091 0.8780
15.9800 10.6224 0.8686
16.0000 10.6357 0.8873
16.0200 10.6491 0.8793
16.0400 10.6624 0.8688
16.0600 10.6757 0.8881
16.0800 10.6890 0.8795
16.1000 10.7023 0.8757
16.1200 10.7157 0.8902
16.1400 10.7290 0.8810
16.1600 10.7423 0.8745
16.1800 10.7556 0.8931
16.2000 10.7690 0.8851
16.2200 10.7824 0.8775
16.2400 10.7957 0.8928
16.2600 10.8090 0.8871
16.2800 10.8224 0.8843
16.3000 10.8357 0.8922
16.3200 10.8491 0.8911
16.3400 10.8624 0.8857
16.3600 10.8757 0.8931
16.3800 10.8890 0.8950
16.4000 10.9024 0.8907
16.4200 10.9157 0.8896
16.4400 10.9291 0.8940
16.4600 10.9424 0.8968
16.4800 10.9557 0.8917
16.5000 10.9691 0.8946
16.5200 10.9824 0.8941
16.5400 10.9957 0.8973
16.5600 11.0090 0.8957
16.5800 11.0223 0.8945
16.6000 11.0357 0.9012
16.6200 11.0490 0.8999
16.6400 11.0623 0.8978
16.6600 11.0757 0.9003
16.6800 11.0891 0.9003
16.7000 11.1024 0.9011
16.7200 11.1157 0.9043
16.7400 11.1291 0.9019
16.7600 11.1424 0.8987
16.7800 11.1557 0.9031
16.8000 11.1690 0.9046
16.8200 11.1824 0.9054
16.8400 11.1957 0.9101
16.8600 11.2091 0.9007
16.8800 11.2224 0.9080
16.9000 11.2356 0.9132
16.9200 11.2490 0.9085
16.9400 11.2623 0.9066
16.9600 11.2756 0.9137
16.9800 11.2890 0.9064
17.0000 11.3024 0.9106
17.0200 11.3157 0.9146
17.0400 11.3291 0.9051
17.0600 11.3424 0.9130
17.0800 11.3557 0.9139
17.1000 11.3691 0.9075
17.1200 11.3824 0.9209
17.1400 11.3957 0.9117
17.1600 11.4090 0.9139
17.1800 11.4223 0.9194
17.2000 11.4357 0.9134
17.2200 11.4490 0.9181
17.2400 11.4623 0.9270
17.2600 11.4756 0.9169
17.2800 11.4890 0.9158
17.3000 11.5024 0.9228
17.3200 11.5157 0.9162
17.3400 11.5290 0.9225
17.3600 11.5424 0.9291
17.3800 11.5557 0.9205
17.4000 11.5691 0.9215
17.4200 11.5824 0.9276
17.4400 11.5957 0.9208
17.4600 11.6091 0.9265
17.4800 11.6224 0.9289
17.5000 11.6358 0.9203
17.5200 11.6490 0.9299
17.5400 11.6624 0.9317
17.5600 11.6757 0.9230
17.5800 11.6890 0.9332
17.6000 11.7023 0.9274
17.6200 11.7156 0.9311
17.6400 11.7289 0.9381
17.6600 11.7423 0.9227
17.6800 11.7557 0.9341
17.7000 11.7690 0.9379
17.7200 11.7824 0.9250
17.7400 11.7958 0.9330
17.7600 11.8091 0.9396
17.7800 11.8224 0.9309
17.8000 11.8357 0.9337
17.8200 11.8491 0.9415
17.8400 11.8624 0.9317
17.8600 11.8757 0.9404
17.8800 11.8890 0.9381
17.9000 11.9023 0.9346
17.9200 11.9157 0.9423
17.9400 11.9290 0.9349
17.9600 11.9424 0.9413
17.9800 11.9557 0.9451
18.0000 11.9690 0.9328
18.0200 11.9823 0.9458
18.0400 11.9957 0.9430
18.0600 12.0090 0.9351
18.0800 12.0223 0.9488
18.1000 12.0357 0.9443
18.1200 12.0491 0.9372
18.1400 12.0624 0.9485
18.1600 12.0757 0.9463
18.1800 12.0891 0.9384
18.2000 12.1024 0.9559
18.2200 12.1157 0.9473
18.2400 12.1290 0.9397
18.2600 12.1424 0.9559
18.2800 12.1557 0.9477
18.3000 12.1690 0.9456
18.3200 12.1823 0.9559
18.3400 12.1956 0.9474
18.3600 12.2090 0.9467
18.3800 12.2223 0.9537
18.4000 12.2357 0.9502
18.4200 12.2490 0.9466
18.4400 12.2624 0.9563
18.4600 12.2757 0.9506
18.4800 12.2891 0.9521
18.5000 12.3024 0.9586
18.5200 12.3157 0.9515
18.5400 12.3290 0.9554
18.5600 12.3424 0.9617
18.5800 12.3557 0.9518
18.6000 12.3691 0.9571
18.6200 12.3824 0.9619
18.6400 12.3957 0.9579
18.6600 12.4091 0.9551
18.6800 12.4224 0.9606
18.7000 12.4357 0.9609
18.7200 12.4490 0.9582
18.7400 12.4623 0.9648
18.7600 12.4756 0.9643
18.7800 12.4890 0.9609
18.8000 12.5023 0.9659
18.8200 12.5157 0.9633
18.8400 12.5291 0.9633
18.8600 12.5424 0.9686
18.8800 12.5557 0.9647
18.9000 12.5691 0.9637
18.9200 12.5825 0.9704
18.9400 12.5958 0.9674
18.9600 12.6091 0.9666
18.9800 12.6223 0.9740
19.0000 12.6357 0.9647
19.0200 12.6490 0.9665
19.0400 12.6623 0.9750
19.0600 12.6756 0.9727
19.0800 12.6890 0.9668
19.1000 12.7023 0.9766
19.1200 12.7157 0.9709
19.1400 12.7290 0.9700
19.1600 12.7423 0.9792
19.1800 12.7557 0.9690
19.2000 12.7691 0.9702
19.2200 12.7824 0.9819
19.2400 12.7958 0.9701
19.2600 12.8091 0.9761
19.2800 12.8224 0.9769
19.3000 12.8358 0.9734
19.3200 12.8490 0.9782
19.3400 12.8623 0.9842
19.3600 12.8757 0.9760
19.3800 12.8890 0.9798
19.4000 12.9023 0.9819
19.4200 12.9156 0.9783
19.4400 12.9290 0.9835
19.4600 12.9423 0.9842
19.4800 12.9557 0.9813
19.5000 12.9690 0.9845
19.5200 12.9823 0.9817
19.5400 12.9957 0.9871
19.5600 13.0091 0.9846
19.5800 13.0224 0.9851
19.6000 13.0357 0.9907
19.6200 13.0491 0.9785
19.6400 13.0624 0.9893
19.6600 13.0758 0.9914
19.6800 13.0891 0.9858
19.7000 13.1024 0.9956
19.7200 13.1157 0.9914
19.7400 13.1290 0.9859
19.7600 13.1423 0.9935
19.7800 13.1556 0.9973
19.8000 13.1689 0.9843
19.8200 13.1823 0.9961
19.8400 13.1957 0.9965
19.8600 13.2090 0.9861
19.8800 13.2223 1.0024
19.9000 13.2357 0.9933
19.9200 13.2491 0.9922
19.9400 13.2624 0.9986
19.9600 13.2757 0.9949
19.9800 13.2891 0.9937
20.0000 13.3024 0.9968
20.0200 13.3157 1.0054
20.0400 13.3290 0.9945
20.0600 13.3423 0.9995
20.0800 13.3557 1.0084
20.1000 13.3690 0.9954
20.1200 13.3824 1.0034
20.1400 13.3957 1.0062
20.1600 13.4090 1.0006
20.1800 13.4223 1.0052
20.2000 13.4357 1.0076
20.2200 13.4490 1.0015
20.2400 13.4623 1.0066
20.2600 13.4757 1.0101
20.2800 13.4891 1.0009
20.3000 13.5024 1.0076
20.3200 13.5157 1.0146
20.3400 13.5291 1.0029
20.3600 13.5424 1.0132
20.3800 13.5558 1.0108
20.4000 13.5691 1.0032
20.4200 13.5824 1.0152
20.4400 13.5957 1.0160
20.4600 13.6090 1.0062
20.4800 13.6224 1.0148
20.5000 13.6357 1.0177
20.5200 13.6490 1.0028
20.5400 13.6623 1.0225
20.5600 13.6757 1.0145
20.5800 13.6890 1.0073
20.6000 13.7023 1.0191
20.6200 13.7157 1.0177
20.6400 13.7290 1.0138
20.6600 13.7424 1.0230
20.6800 13.7557 1.0196
20.7000 13.7691 1.0175
20.7200 13.7824 1.0231
20.7400 13.7958 1.0211
20.7600 13.8091 1.0207
20.7800 13.8224 1.0244
20.8000 13.8357 1.0202
20.8200 13.8491 1.0204
20.8400 13.8624 1.0201
20.8600 13.8757 1.0263
20.8800 13.8890 1.0271
20.9000 13.9023 1.0225
20.9200 13.9156 1.0262
20.9400 13.9289 1.0246
20.9600 13.9423 1.0244
20.9800 13.9557 1.0333
21.0000 13.9691 1.0242
21.0200 13.9825 1.0255
21.0400 13.9958 1.0325
21.0600 14.0091 1.0270
21.0800 14.0225 1.0286
21.1000 14.0358 1.0357
21.1200 14.0491 1.0280
21.1400 14.0624 1.0324
21.1600 14.0756 1.0366
21.1800 14.0890 1.0317
21.2000 14.1023 1.0341
21.2200 14.1156 1.0323
21.2400 14.1290 1.0335
21.2600 14.1423 1.0384
21.2800 14.1557 1.0323
21.3000 14.1690 1.0343
21.3200 14.1824 1.0424
21.3400 14.1958 1.0330
21.3600 14.2091 1.0380
21.3800 14.2225 1.0371
21.4000 14.2357 1.0381
21.4200 14.2490 1.0472
21.4400 14.2624 1.0367
21.4600 14.2757 1.0372
21.4800 14.2890 1.0505
21.5000 14.3023 1.0398
21.5200 14.3157 1.0374
21.5400 14.3290 1.0511
21.5600 14.3423 1.0391
21.5800 14.3557 1.0391
21.6000 14.3690 1.0548
21.6200 14.3823 1.0393
21.6400 14.3957 1.0449
21.6600 14.4090 1.0541
21.6800 14.4223 1.0407
21.7000 14.4357 1.0529
21.7200 14.4491 1.0552
21.7400 14.4624 1.0399
21.7600 14.4757 1.0550
21.7800 14.4890 1.0577
21.8000 14.5024 1.0415
21.8200 14.5157 1.0572
21.8400 14.5291 1.0533
21.8600 14.5424 1.0443
21.8800 14.5557 1.0605
21.9000 14.5690 1.0597
21.9200 14.5824 1.0465
21.9400 14.5956 1.0616
21.9600 14.6090 1.0561
21.9800 14.6223 1.0494
22.0000 14.6357 1.0634
22.0200 14.6490 1.0598
22.0400 14.6623 1.0517
22.0600 14.6757 1.0660
22.0800 14.6891 1.0604
22.1000 14.7024 1.0539
22.1200 14.7158 1.0625
22.1400 14.7291 1.0629
22.1600 14.7424 1.0571
22.1800 14.7558 1.0699
22.2000 14.7691 1.0616
22.2200 14.7824 1.0594
22.2400 14.7957 1.0719
22.2600 14.8090 1.0647
22.2800 14.8224 1.0581
22.3000 14.8357 1.0672
22.3200 14.8490 1.0696
22.3400 14.8623 1.0680
22.3600 14.8757 1.0685
22.3800 14.8890 1.0678
22.4000 14.9023 1.0642
22.4200 14.9157 1.0753
22.4400 14.9291 1.0743
22.4600 14.9424 1.0650
22.4800 14.9557 1.0741
22.5000 14.9691 1.0770
22.5200 14.9824 1.0712
22.5400 14.9958 1.0750
22.5600 15.0091 1.0722
22.5800 15.0224 1.0723
22.6000 15.0357 1.0824
22.6200 15.0490 1.0771
22.6400 15.0624 1.0706
22.6600 15.0757 1.0820
22.6800 15.0890 1.0783
22.7000 15.1023 1.0797
22.7200 15.1157 1.0812
22.7400 15.1290 1.0777
22.7600 15.1424 1.0834
22.7800 15.1557 1.0834
22.8000 15.1691 1.0801
22.8200 15.1824 1.0813
22.8400 15.1958 1.0845
22.8600 15.2091 1.0825
22.8800 15.2224 1.0849
22.9000 15.2358 1.0847
22.9200 15.2491 1.0894
22.9400 15.2624 1.0821
22.9600 15.2757 1.0840
22.9800 15.2890 1.0964
23.0000 15.3024 1.0846
23.0200 15.3157 1.0825
23.0400 15.3290 1.0967
23.0600 15.3423 1.0831
23.0800 15.3557 1.0894
23.1000 15.3690 1.0995
23.1200 15.3823 1.0816
23.1400 15.3957 1.0957
23.1600 15.4091 1.1014
23.1800 15.4224 1.0880
23.2000 15.4358 1.0977
23.2200 15.4491 1.0976
23.2400 15.4624 1.0861
23.2600 15.4758 1.1015
23.2800 15.4891 1.1014
23.3000 15.5023 1.0910
23.3200 15.5156 1.1048
23.3400 15.5290 1.0968
23.3600 15.5423 1.0948
23.3800 15.5557 1.1079
23.4000 15.5690 1.0958
23.4200 15.5823 1.1046
23.4400 15.5957 1.1046
23.4600 15.6090 1.0988
23.4800 15.6224 1.1048
23.5000 15.6357 1.1045
23.5200 15.6491 1.1017
23.5400 15.6624 1.1049
23.5600 15.6757 1.1007
23.5800 15.6890 1.1047
23.6000 15.7023 1.1079
23.6200 15.7157 1.1048
23.6400 15.7291 1.1052
23.6600 15.7424 1.1108
23.6800 15.7557 1.1038
23.7000 15.7691 1.1082
23.7200 15.7824 1.1095
23.7400 15.7957 1.1027
23.7600 15.8090 1.1099
23.7800 15.8223 1.1123
23.8000 15.8357 1.1059
23.8200 15.8490 1.1137
23.8400 15.8623 1.1157
23.8600 15.8756 1.1085
23.8800 15.8890 1.1145
23.9000 15.9024 1.1166
23.9200 15.9157 1.1111
23.9400 15.9290 1.1198
23.9600 15.9424 1.1146
23.9800 15.9558 1.1140
24.0000 15.9691 1.1188
24.0200 15.9824 1.1135
24.0400 15.9957 1.1198
24.0600 16.0091 1.1222
24.0800 16.0224 1.1157
24.1000 16.0357 1.1251
24.1200 16.0490 1.1160
24.1400 16.0623 1.1190
24.1600 16.0757 1.1284
24.1800 16.0890 1.1130
24.2000 16.1023 1.1261
24.2200 16.1157 1.1287
24.2400 16.1290 1.1163
24.2600 16.1424 1.1265
24.2800 16.1557 1.1298
24.3000 16.1691 1.1175
24.3200 16.1824 1.1290
24.3400 16.1957 1.1242
24.3600 16.2091 1.1214
24.3800 16.2224 1.1336
24.4000 16.2357 1.1267
24.4200 16.2490 1.1237
24.4400 16.2624 1.1354
24.4600 16.2757 1.1261
24.4800 16.2890 1.1295
24.5000 16.3023 1.1391
24.5200 16.3157 1.1238
24.5400 16.3290 1.1322
24.5600 16.3424 1.1335
24.5800 16.3557 1.1239
24.6000 16.3690 1.1393
24.6200 16.3824 1.1282
24.6400 16.3957 1.1249
24.6600 16.4091 1.1409
24.6800 16.4224 1.1326
24.7000 16.4358 1.1343
24.7200 16.4491 1.1382
24.7400 16.4624 1.1298
24.7600 16.4757 1.1389
24.7800 16.4890 1.1415
24.8000 16.5024 1.1371
24.8200 16.5157 1.1389
24.8400 16.5290 1.1356
24.8600 16.5423 1.1405
24.8800 16.5556 1.1477
24.9000 16.5690 1.1336
24.9200 16.5823 1.1422
24.9400 16.5957 1.1466
24.9600 16.6091 1.1329
24.9800 16.6224 1.1493
25.0000 16.6358 1.1468
25.0200 16.6491 1.1363
25.0400 16.6624 1.1527
25.0600 16.6757 1.1487
25.0800 16.6891 1.1374
25.1000 16.7024 1.1493
25.1200 16.7157 1.1458
25.1400 16.7290 1.1486
25.1600 16.7424 1.1486
25.1800 16.7557 1.1478
25.2000 16.7690 1.1522
25.2200 16.7823 1.1495
25.2400 16.7957 1.1420
25.2600 16.8090 1.1563
25.2800 16.8223 1.1534
25.3000 16.8357 1.1462
25.3200 16.8490 1.1575
25.3400 16.8624 1.1504
25.3600 16.8758 1.1523
25.3800 16.8891 1.1670
25.4000 16.9024 1.1503
25.4200 16.9158 1.1481
25.4400 16.9291 1.1652
25.4600 16.9424 1.1527
25.4800 16.9557 1.1605
25.5000 16.9690 1.1641
25.5200 16.9823 1.1540
25.5400 16.9957 1.1554
25.5600 17.0090 1.1636
25.5800 17.0223 1.1585
25.6000 17.0356 1.1641
25.6200 17.0490 1.1634
25.6400 17.0623 1.1565
25.6600 17.0757 1.1688
25.6800 17.0890 1.1677
25.7000 17.1024 1.1596
25.7200 17.1157 1.1667
25.7400 17.1290 1.1648
25.7600 17.1424 1.1678
25.7800 17.1557 1.1692
25.8000 17.1691 1.1686
25.8200 17.1824 1.1674
25.8400 17.1957 1.1721
25.8600 17.2090 1.1716
25.8800 17.2224 1.1696
25.9000 17.2357 1.1731
25.9200 17.2490 1.1694
25.9400 17.2623 1.1747
25.9600 17.2756 1.1711
25.9800 17.2890 1.1665
26.0000 17.3023 1.1808
26.0200 17.3156 1.1773
26.0400 17.3290 1.1703
26.0600 17.3424 1.1771
26.0800 17.3558 1.1741
26.1000 17.3691 1.1698
26.1200 17.3824 1.1829
26.1400 17.3958 1.1794
26.1600 17.4091 1.1750
26.1800 17.4224 1.1839
26.2000 17.4357 1.1768
26.2200 17.4490 1.1825
26.2400 17.4624 1.1845
26.2600 17.4757 1.1783
26.2800 17.4890 1.1829
26.3000 17.5023 1.1848
26.3200 17.5156 1.1868
26.3400 17.5290 1.1819
26.3600 17.5423 1.1850
26.3800 17.5557 1.1887
26.4000 17.5690 1.1800
26.4200 17.5824 1.1906
26.4400 17.5958 1.1907
26.4600 17.6091 1.1837
26.4800 17.6224 1.1905
26.5000 17.6358 1.1954
26.5200 17.6491 1.1836
26.5400 17.6624 1.1924
26.5600 17.6757 1.1973
26.5800 17.6890 1.1834
26.6000 17.7023 1.1963
26.6200 17.7157 1.1969
26.6400 17.7290 1.1854
26.6600 17.7423 1.2010
26.6800 17.7557 1.1988
26.7000 17.7690 1.1861
26.7200 17.7824 1.2002
26.7400 17.7957 1.2015
26.7600 17.8090 1.1909
26.7800 17.8224 1.2033
26.8000 17.8358 1.2026
26.8200 17.8491 1.1900
26.8400 17.8624 1.2036
26.8600 17.8757 1.2060
26.8800 17.8891 1.1981
26.9000 17.9024 1.2074
26.9200 17.9157 1.2066
26.9400 17.9290 1.1965
26.9600 17.9424 1.2097
26.9800 17.9557 1.2062
27.0000 17.9690 1.2001
27.0200 17.9823 1.2131
27.0400 17.9956 1.2087
27.0600 18.0090 1.1957
27.0800 18.0223 1.2175
27.1000 18.0357 1.2095
27.1200 18.0490 1.1974
27.1400 18.0624 1.2210
27.1600 18.0758 1.2150
27.1800 18.0891 1.2015
27.2000 18.1024 1.2203
27.2200 18.1157 1.2147
27.2400 18.1291 1.1993
27.2600 18.1424 1.2248
27.2800 18.1557 1.2189
27.3000 18.1690 1.2023
27.3200 18.1823 1.2270
27.3400 18.1957 1.2172
27.3600 18.2090 1.2011
27.3800 18.2223 1.2390
27.4000 18.2356 1.2219
27.4200 18.2490 1.1911
27.4400 18.2623 1.2441
27.4600 18.2756 1.2274
27.4800 18.2890 1.2009
27.5000 18.3024 1.2384
27.5200 18.3157 1.2201
27.5400 18.3291 1.2072
27.5600 18.3424 1.2483
27.5800 18.3557 1.2249
27.6000 18.3691 1.1956
27.6200 18.3825 1.2467
27.6400 18.3957 1.2354
27.6600 18.4090 1.2037
27.6800 18.4224 1.2370
27.7000 18.4357 1.2372
27.7200 18.4490 1.2133
27.7400 18.4623 1.2342
27.7600 18.4756 1.2331
27.7800 18.4890 1.2210
27.8000 18.5023 1.2329
27.8200 18.5157 1.2329
27.8400 18.5290 1.2233
27.8600 18.5424 1.2369
27.8800 18.5557 1.2344
27.9000 18.5691 1.2234
27.9200 18.5824 1.2392
27.9400 18.5957 1.2410
27.9600 18.6091 1.2288
27.9800 18.6224 1.2395
28.0000 18.6357 1.2355
28.0200 18.6490 1.2331
28.0400 18.6624 1.2437
28.0600 18.6757 1.2380
28.0800 18.6890 1.2341
28.1000 18.7023 1.2457
28.1200 18.7156 1.2407
28.1400 18.7290 1.2395
28.1600 18.7423 1.2491
28.1800 18.7556 1.2379
28.2000 18.7690 1.2421
28.2200 18.7824 1.2456
28.2400 18.7958 1.2404
28.2600 18.8091 1.2413
28.2800 18.8224 1.2505
28.3000 18.8358 1.2444
28.3200 18.8491 1.2461
28.3400 18.8624 1.2515
28.3600 18.8757 1.2455
28.3800 18.8890 1.2516
28.4000 18.9023 1.2532
28.4200 18.9157 1.2464
28.4400 18.9290 1.2544
28.4600 18.9423 1.2516
28.4800 18.9557 1.2483
28.5000 18.9690 1.2562
28.5200 18.9824 1.2560
28.5400 18.9957 1.2479
28.5600 19.0090 1.2522
28.5800 19.0224 1.2632
28.6000 19.0358 1.2529
28.6200 19.0491 1.2542
28.6400 19.0624 1.2601
28.6600 19.0757 1.2568
28.6800 19.0891 1.2657
28.7000 19.1024 1.2579
28.7200 19.1157 1.2562
28.7400 19.1290 1.2690
28.7600 19.1423 1.2615
28.7800 19.1557 1.2541
28.8000 19.1690 1.2701
28.8200 19.1823 1.2588
28.8400 19.1956 1.2607
28.8600 19.2090 1.2767
28.8800 19.2224 1.2594
28.9000 19.2357 1.2615
28.9200 19.2490 1.2750
28.9400 19.2624 1.2625
28.9600 19.2758 1.2634
28.9800 19.2891 1.2692
29.0000 19.3024 1.2651
29.0200 19.3157 1.2718
29.0400 19.3291 1.2721
29.0600 19.3424 1.2696
29.0800 19.3557 1.2720
29.1000 19.3690 1.2753
29.1200 19.3824 1.2721
29.1400 19.3957 1.2718
29.1600 19.4090 1.2771
29.1800 19.4223 1.2737
29.2000 19.4356 1.2689
29.2200 19.4490 1.2782
29.2400 19.4623 1.2758
29.2600 19.4757 1.2727
29.2800 19.4890 1.2840
29.3000 19.5024 1.2825
29.3200 19.5158 1.2722
29.3400 19.5291 1.2843
29.3600 19.5424 1.2817
29.3800 19.5557 1.2813
29.4000 19.5691 1.2846
29.4200 19.5824 1.2781
29.4400 19.5957 1.2814
29.4600 19.6090 1.2929
29.4800 19.6224 1.2856
29.5000 19.6357 1.2820
29.5200 19.6490 1.2895
29.5400 19.6623 1.2855
29.5600 19.6756 1.2825
29.5800 19.6890 1.2937
29.6000 19.7024 1.2865
29.6200 19.7157 1.2854
29.6400 19.7290 1.2931
29.6600 19.7423 1.2911
29.6800 19.7557 1.2867
29.7000 19.7690 1.2968
29.7200 19.7824 1.2917
29.7400 19.7957 1.2902
29.7600 19.8091 1.3002
29.7800 19.8224 1.2948
29.8000 19.8357 1.2930
29.8200 19.8490 1.2961
29.8400 19.8624 1.2973
29.8600 19.8757 1.2997
29.8800 19.8890 1.3027
29.9000 19.9023 1.2967
29.9200 19.9156 1.2984
29.9400 19.9290 1.3045
29.9600 19.9423 1.2952
29.9800 19.9557 1.3015
30.0000 19.9690 1.3067
30.0200 19.9824 1.2991
30.0400 19.9958 1.3045
30.0600 20.0091 1.3023
30.0800 20.0224 1.3035
30.1000 20.0357 1.3096
30.1200 20.0491 1.3064
30.1400 20.0624 1.3033
30.1600 20.0757 1.3084
30.1800 20.0890 1.3110
30.2000 20.1023 1.3103
30.2200 20.1157 1.3026
30.2400 20.1290 1.3187
30.2600 20.1423 1.3133
30.2800 20.1556 1.3072
30.3000 20.1690 1.3156
30.3200 20.1823 1.3140
30.3400 20.1957 1.3082
30.3600 20.2090 1.3186
30.3800 20.2224 1.3170
30.4000 20.2358 1.3082
30.4200 20.2491 1.3196
30.4400 20.2624 1.3191
30.4600 20.2757 1.3122
30.4800 20.2891 1.3278
30.5000 20.3024 1.3135
30.5200 20.3157 1.3136
30.5400 20.3290 1.3321
30.5600 20.3423 1.3166
30.5800 20.3557 1.3132
30.6000 20.3690 1.3286
30.6200 20.3823 1.3177
30.6400 20.3956 1.3192
30.6600 20.4090 1.3356
30.6800 20.4224 1.3151
30.7000 20.4357 1.3208
30.7200 20.4491 1.3352
30.7400 20.4624 1.3158
30.7600 20.4757 1.3259
30.7800 20.4891 1.3368
30.8000 20.5024 1.3177
30.8200 20.5157 1.3305
30.8400 20.5290 1.3369
30.8600 20.5424 1.3216
30.8800 20.5557 1.3340
30.9000 20.5691 1.3375
30.9200 20.5824 1.3230
30.9400 20.5957 1.3384
30.9600 20.6091 1.3360
30.9800 20.6224 1.3305
31.0000 20.6357 1.3398
31.0200 20.6490 1.3353
31.0400 20.6623 1.3327
31.0600 20.6757 1.3365
31.0800 20.6890 1.3426
31.1000 20.7023 1.3368
31.1200 20.7157 1.3382
31.1400 20.7291 1.3441
31.1600 20.7424 1.3336
31.1800 20.7557 1.3433
31.2000 20.7691 1.3436
31.2200 20.7824 1.3348
31.2400 20.7958 1.3420
31.2600 20.8091 1.3448
31.2800 20.8224 1.3450
31.3000 20.8357 1.3439
31.3200 20.8491 1.3473
31.3400 20.8624 1.3450
31.3600 20.8756 1.3465
31.3800 20.8890 1.3540
31.4000 20.9023 1.3450
31.4200 20.9156 1.3478
31.4400 20.9290 1.3536
31.4600 20.9423 1.3439
31.4800 20.9557 1.3486
31.5000 20.9691 1.3538
31.5200 20.9824 1.3473
31.5400 20.9957 1.3498
31.5600 21.0091 1.3625
31.5800 21.0224 1.3478
31.6000 21.0357 1.3485
31.6200 21.0490 1.3653
31.6400 21.0623 1.3534
31.6600 21.0757 1.3510
31.6800 21.0890 1.3636
31.7000 21.1023 1.3551
31.7200 21.1157 1.3616
31.7400 21.1290 1.3642
31.7600 21.1424 1.3574
31.7800 21.1557 1.3613
31.8000 21.1690 1.3678
31.8200 21.1824 1.3574
31.8400 21.1957 1.3668
31.8600 21.2091 1.3664
31.8800 21.2224 1.3579
31.9000 21.2357 1.3652
31.9200 21.2491 1.3697
31.9400 21.2625 1.3612
31.9600 21.2758 1.3679
31.9800 21.2891 1.3729
32.0000 21.3024 1.3658
32.0200 21.3157 1.3710
32.0400 21.3290 1.3684
32.0600 21.3423 1.3665
32.0800 21.3556 1.3778
32.1000 21.3690 1.3719
32.1200 21.3823 1.3733
32.1400 21.3957 1.3769
32.1600 21.4090 1.3704
32.1800 21.4224 1.3759
32.2000 21.4357 1.3756
32.2200 21.4491 1.3733
32.2400 21.4624 1.3742
32.2600 21.4757 1.3817
32.2800 21.4890 1.3757
32.3000 21.5024 1.3789
32.3200 21.5157 1.3814
32.3400 21.5290 1.3770
32.3600 21.5423 1.3836
32.3800 21.5557 1.3832
32.4000 21.5690 1.3788
32.4200 21.5824 1.3836
32.4400 21.5957 1.3876
32.4600 21.6090 1.3833
32.4800 21.6224 1.3830
32.5000 21.6357 1.3906
32.5200 21.6490 1.3847
32.5400 21.6623 1.3865
32.5600 21.6757 1.3877
32.5800 21.6891 1.3830
32.6000 21.7024 1.3926
32.6200 21.7157 1.3874
32.6400 21.7290 1.3874
32.6600 21.7424 1.3955
32.6800 21.7557 1.3878
32.7000 21.7690 1.3922
32.7200 21.7823 1.3968
32.7400 21.7957 1.3954
32.7600 21.8090 1.3916
32.7800 21.8223 1.3976
32.8000 21.8357 1.3976
32.8200 21.8490 1.3939
32.8400 21.8623 1.4016
32.8600 21.8757 1.3953
32.8800 21.8890 1.3957
32.9000 21.9023 1.4001
32.9200 21.9157 1.4013
32.9400 21.9290 1.4005
32.9600 21.9424 1.4008
32.9800 21.9557 1.4047
33.0000 21.9690 1.3989
33.0200 21.9824 1.4047
33.0400 21.9958 1.4041
33.0600 22.0091 1.3971
33.0800 22.0224 1.4110
33.1000 22.0357 1.4074
33.1200 22.0491 1.4011
33.1400 22.0624 1.4081
33.1600 22.0757 1.4106
33.1800 22.0890 1.4050
33.2000 22.1023 1.4123
33.2200 22.1156 1.4049
33.2400 22.1290 1.4053
33.2600 22.1423 1.4193
33.2800 22.1557 1.4047
33.3000 22.1691 1.4090
33.3200 22.1824 1.4180
33.3400 22.1958 1.4069
33.3600 22.2091 1.4116
33.3800 22.2225 1.4185
33.4000 22.2358 1.4174
33.4200 22.2491 1.4122
33.4400 22.2624 1.4194
33.4600 22.2757 1.4194
33.4800 22.2890 1.4137
33.5000 22.3024 1.4268
33.5200 22.3156 1.4148
33.5400 22.3290 1.4187
33.5600 22.3423 1.4261
33.5800 22.3557 1.4202
33.6000 22.3690 1.4147
33.6200 22.3823 1.4255
33.6400 22.3957 1.4210
33.6600 22.4091 1.4186
33.6800 22.4224 1.4325
33.7000 22.4358 1.4229
33.7200 22.4491 1.4241
33.7400 22.4624 1.4361
33.7600 22.4758 1.4183
33.7800 22.4891 1.4277
33.8000 22.5023 1.4417
33.8200 22.5157 1.4239
33.8400 22.5290 1.4271
33.8600 22.5423 1.4422
33.8800 22.5556 1.4259
33.9000 22.5689 1.4364
33.9200 22.5823 1.4406
33.9400 22.5957 1.4265
33.9600 22.6090 1.4405
33.9800 22.6223 1.4398
34.0000 22.6357 1.4282
34.0200 22.6491 1.4462
34.0400 22.6624 1.4377
34.0600 22.6757 1.4289
34.0800 22.6891 1.4482
34.1000 22.7024 1.4396
34.1200 22.7158 1.4351
34.1400 22.7291 1.4518
34.1600 22.7424 1.4407
34.1800 22.7557 1.4406
34.2000 22.7690 1.4499
34.2200 22.7824 1.4396
34.2400 22.7956 1.4496
34.2600 22.8090 1.4542
34.2800 22.8223 1.4408
34.3000 22.8357 1.4500
34.3200 22.8490 1.4517
34.3400 22.8623 1.4418
34.3600 22.8757 1.4542
34.3800 22.8891 1.4526
34.4000 22.9024 1.4446
34.4200 22.9157 1.4553
34.4400 22.9291 1.4551
34.4600 22.9424 1.4515
34.4800 22.9558 1.4606
34.5000 22.9691 1.4510
34.5200 22.9823 1.4569
34.5400 22.9957 1.4620
34.5600 23.0090 1.4564
34.5800 23.0224 1.4581
34.6000 23.0357 1.4611
34.6200 23.0490 1.4568
34.6400 23.0623 1.4609
34.6600 23.0757 1.4611
34.6800 23.0890 1.4606
34.7000 23.1023 1.4679
34.7200 23.1157 1.4645
34.7400 23.1291 1.4600
34.7600 23.1424 1.4684
34.7800 23.1557 1.4619
34.8000 23.1691 1.4703
34.8200 23.1824 1.4677
34.8400 23.1958 1.4643
34.8600 23.2091 1.4731
34.8800 23.2224 1.4659
34.9000 23.2357 1.4706
34.9200 23.2490 1.4777
34.9400 23.2624 1.4692
34.9600 23.2757 1.4761
34.9800 23.2890 1.4769
35.0000 23.3023 1.4683
35.0200 23.3157 1.4805
35.0400 23.3290 1.4784
35.0600 23.3423 1.4689
35.0800 23.3557 1.4841
35.1000 23.3690 1.4815
35.1200 23.3824 1.4675
35.1400 23.3957 1.4885
35.1600 23.4090 1.4807
35.1800 23.4224 1.4728
35.2000 23.4357 1.4883
35.2200 23.4491 1.4823
35.2400 23.4624 1.4794
35.2600 23.4757 1.4927
35.2800 23.4890 1.4802
35.3000 23.5024 1.4860
35.3200 23.5157 1.4941
35.3400 23.5290 1.4841
35.3600 23.5423 1.4908
35.3800 23.5556 1.4919
35.4000 23.5690 1.4860
35.4200 23.5823 1.4919
35.4400 23.5957 1.4972
35.4600 23.6091 1.4905
35.4800 23.6224 1.4954
35.5000 23.6358 1.4963
35.5200 23.6491 1.4874
35.5400 23.6624 1.5017
35.5600 23.6758 1.4955
35.5800 23.6891 1.4947
35.6000 23.7023 1.5039
35.6200 23.7156 1.4945
35.6400 23.7290 1.5014
35.6600 23.7423 1.5022
35.6800 23.7556 1.4993
35.7000 23.7690 1.5059
35.7200 23.7823 1.5013
35.7400 23.7957 1.5030
35.7600 23.8090 1.5042
35.7800 23.8224 1.5034
35.8000 23.8357 1.5088
35.8200 23.8491 1.5048
35.8400 23.8625 1.5038
35.8600 23.8758 1.5115
35.8800 23.8891 1.5079
35.9000 23.9024 1.5082
35.9200 23.9157 1.5124
35.9400 23.9291 1.5074
35.9600 23.9424 1.5110
35.9800 23.9557 1.5156
36.0000 23.9690 1.5104
36.0200 23.9824 1.5148
36.0400 23.9957 1.5163
36.0600 24.0090 1.5107
36.0800 24.0223 1.5231
36.1000 24.0357 1.5178
36.1200 24.0491 1.5145
36.1400 24.0624 1.5192
36.1600 24.0757 1.5208
36.1800 24.0891 1.5167
36.2000 24.1024 1.5272
36.2200 24.1157 1.5202
36.2400 24.1291 1.5195
36.2600 24.1424 1.5275
36.2800 24.1558 1.5207
36.3000 24.1691 1.5234
36.3200 24.1824 1.5303
36.3400 24.1957 1.5267
36.3600 24.2090 1.5233
36.3800 24.2224 1.5287
36.4000 24.2357 1.5303
36.4200 24.2490 1.5309
36.4400 24.2623 1.5309
36.4600 24.2757 1.5307
36.4800 24.2890 1.5322
36.5000 24.3023 1.5351
36.5200 24.3157 1.5315
36.5400 24.3291 1.5349
36.5600 24.3424 1.5364
36.5800 24.3557 1.5327
36.6000 24.3691 1.5360
36.6200 24.3824 1.5424
36.6400 24.3958 1.5348
36.6600 24.4091 1.5356
36.6800 24.4224 1.5409
36.7000 24.4357 1.5395
36.7200 24.4490 1.5404
36.7400 24.4624 1.5468
36.7600 24.4757 1.5393
36.7800 24.4890 1.5426
36.8000 24.5023 1.5491
36.8200 24.5157 1.5418
36.8400 24.5290 1.5468
36.8600 24.5423 1.5489
36.8800 24.5557 1.5463
36.9000 24.5690 1.5496
36.9200 24.5824 1.5490
36.9400 24.5957 1.5488
36.9600 24.6090 1.5516
36.9800 24.6224 1.5536
37.0000 24.6358 1.5461
37.0200 24.6491 1.5544
37.0400 24.6624 1.5562
37.0600 24.6757 1.5490
37.0800 24.6890 1.5554
37.1000 24.7023 1.5575
37.1200 24.7157 1.5506
37.1400 24.7290 1.5606
37.1600 24.7423 1.5600
37.1800 24.7557 1.5530
37.2000 24.7690 1.5627
37.2200 24.7824 1.5594
37.2400 24.7957 1.5533
37.2600 24.8091 1.5658
37.2800 24.8225 1.5616
37.3000 24.8358 1.5540
37.3200 24.8491 1.5677
37.3400 24.8624 1.5620
37.3600 24.8758 1.5592
37.3800 24.8891 1.5701
37.4000 24.9024 1.5637
37.4200 24.9157 1.5624
37.4400 24.9290 1.5724
37.4600 24.9423 1.5664
37.4800 24.9557 1.5643
37.5000 24.9690 1.5756
37.5200 24.9823 1.5680
37.5400 24.9957 1.5656
37.5600 25.0090 1.5777
37.5800 25.0223 1.5718
37.6000 25.0357 1.5740
37.6200 25.0490 1.5789
37.6400 25.0624 1.5729
37.6600 25.0758 1.5736
37.6800 25.0891 1.5796
37.7000 25.1024 1.5753
37.7200 25.1157 1.5747
37.7400 25.1291 1.5792
37.7600 25.1424 1.5771
37.7800 25.1557 1.5765
37.8000 25.1690 1.5885
37.8200 25.1823 1.5784
37.8400 25.1957 1.5795
37.8600 25.2090 1.5895
37.8800 25.2223 1.5795
37.9000 25.2357 1.5815
37.9200 25.2491 1.5933
37.9400 25.2624 1.5809
37.9600 25.2757 1.5874
37.9800 25.2891 1.5934
38.0000 25.3024 1.5796
38.0200 25.3157 1.5943
38.0400 25.3290 1.5952
38.0600 25.3423 1.5859
38.0800 25.3557 1.5974
38.1000 25.3690 1.5946
38.1200 25.3824 1.5880
38.1400 25.3957 1.6031
38.1600 25.4091 1.5931
38.1800 25.4224 1.5941
38.2000 25.4357 1.6023
38.2200 25.4490 1.5968
38.2400 25.4623 1.6036
38.2600 25.4757 1.6049
38.2800 25.4890 1.6018
38.3000 25.5023 1.6044
38.3200 25.5156 1.6006
38.3400 25.5290 1.6024
38.3600 25.5424 1.6086
38.3800 25.5557 1.6011
38.4000 25.5690 1.6058
38.4200 25.5824 1.6153
38.4400 25.5958 1.6013
38.4600 25.6091 1.6128
38.4800 25.6224 1.6132
38.5000 25.6357 1.6062
38.5200 25.6491 1.6171
38.5400 25.6624 1.6140
38.5600 25.6757 1.6059
38.5800 25.6890 1.6230
38.6000 25.7023 1.6213
38.6200 25.7156 1.6071
38.6400 25.7290 1.6252
38.6600 25.7423 1.6240
38.6800 25.7557 1.6125
38.7000 25.7690 1.6296
38.7200 25.7824 1.6209
38.7400 25.7958 1.6153
38.7600 25.8091 1.6319
38.7800 25.8224 1.6264
38.8000 25.8358 1.6180
38.8200 25.8491 1.6333
38.8400 25.8624 1.6249
38.8600 25.8757 1.6218
38.8800 25.8890 1.6380
38.9000 25.9024 1.6291
38.9200 25.9157 1.6242
38.9400 25.9290 1.6382
38.9600 25.9423 1.6326
38.9800 25.9557 1.6329
39.0000 25.9690 1.6373
39.0200 25.9823 1.6362
39.0400 25.9957 1.6327
39.0600 26.0090 1.6378
39.0800 26.0224 1.6396
39.1000 26.0357 1.6322
39.1200 26.0491 1.6455
39.1400 26.0624 1.6410
39.1600 26.0758 1.6359
39.1800 26.0891 1.6447
39.2000 26.1024 1.6467
39.2200 26.1157 1.6379
39.2400 26.1290 1.6482
39.2600 26.1424 1.6461
39.2800 26.1557 1.6410
39.3000 26.1690 1.6546
39.3200 26.1823 1.6466
39.3400 26.1956 1.6475
39.3600 26.2090 1.6566
39.3800 26.2223 1.6474
39.4000 26.2357 1.6519
39.4200 26.2490 1.6571
39.4400 26.2624 1.6544
39.4600 26.2758 1.6492
39.4800 26.2891 1.6608
39.5000 26.3024 1.6577
39.5200 26.3157 1.6527
39.5400 26.3291 1.6628
39.5600 26.3424 1.6567
39.5800 26.3557 1.6601
39.6000 26.3690 1.6626
39.6200 26.3824 1.6620
39.6400 26.3957 1.6604
39.6600 26.4090 1.6674
39.6800 26.4223 1.6646
39.7000 26.4357 1.6655
39.7200 26.4490 1.6737
39.7400 26.4623 1.6642
39.7600 26.4757 1.6712
39.7800 26.4890 1.6729
39.8000 26.5024 1.6671
39.8200 26.5158 1.6730
39.8400 26.5291 1.6737
39.8600 26.5424 1.6730
39.8800 26.5557 1.6721
39.9000 26.5691 1.6769
39.9200 26.5824 1.6735
39.9400 26.5957 1.6774
39.9600 26.6090 1.6785
39.9800 26.6223 1.6765
40.0000 26.6357 1.6799
40.0200 26.6490 1.6813
40.0400 26.6623 1.6776
40.0600 26.6757 1.6830
40.0800 26.6890 1.6854
40.1000 26.7024 1.6820
40.1200 26.7157 1.6875
40.1400 26.7290 1.6839
40.1600 26.7424 1.6857
40.1800 26.7557 1.6904
40.2000 26.7690 1.6854
40.2200 26.7823 1.6903
40.2400 26.7957 1.6872
40.2600 26.8091 1.6903
40.2800 26.8224 1.6937
40.3000 26.8357 1.6890
40.3200 26.8491 1.6942
40.3400 26.8624 1.6934
40.3600 26.8758 1.6929
40.3800 26.8890 1.6950
40.4000 26.9023 1.6980
40.4200 26.9156 1.6963
40.4400 26.9290 1.6976
40.4600 26.9423 1.6974
40.4800 26.9556 1.6979
40.5000 26.9690 1.7009
40.5200 26.9824 1.7000
40.5400 26.9958 1.7043
40.5600 27.0091 1.7028
40.5800 27.0224 1.7003
40.6000 27.0358 1.7095
40.6200 27.0491 1.7023
40.6400 27.0624 1.7055
40.6600 27.0757 1.7133
40.6800 27.0890 1.7075
40.7000 27.1024 1.7041
40.7200 27.1157 1.7188
40.7400 27.1290 1.7089
40.7600 27.1423 1.7133
40.7800 27.1556 1.7214
40.8000 27.1690 1.7054
40.8200 27.1823 1.7182
40.8400 27.1957 1.7187
40.8600 27.2090 1.7103
40.8800 27.2224 1.7199
40.9000 27.2358 1.7211
40.9200 27.2491 1.7128
40.9400 27.2624 1.7245
40.9600 27.2758 1.7278
40.9800 27.2891 1.7159
41.0000 27.3024 1.7248
41.0200 27.3157 1.7276
41.0400 27.3290 1.7199
41.0600 27.3423 1.7272
41.0800 27.3557 1.7261
41.1000 27.3690 1.7262
41.1200 27.3823 1.7301
41.1400 27.3956 1.7303
41.1600 27.4090 1.7281
41.1800 27.4224 1.7281
41.2000 27.4357 1.7366
41.2200 27.4490 1.7309
41.2400 27.4624 1.7296
41.2600 27.4757 1.7406
41.2800 27.4891 1.7315
41.3000 27.5024 1.7357
41.3200 27.5157 1.7432
41.3400 27.5291 1.7389
41.3600 27.5424 1.7354
41.3800 27.5557 1.7442
41.4000 27.5690 1.7417
41.4200 27.5824 1.7411
41.4400 27.5957 1.7460
41.4600 27.6090 1.7385
41.4800 27.6223 1.7431
41.5000 27.6356 1.7498
41.5200 27.6490 1.7414
41.5400 27.6624 1.7455
41.5600 27.6757 1.7521
41.5800 27.6890 1.7469
41.6000 27.7024 1.7486
41.6200 27.7158 1.7543
41.6400 27.7291 1.7511
41.6600 27.7424 1.7545
41.6800 27.7557 1.7574
41.7000 27.7691 1.7546
41.7200 27.7824 1.7572
41.7400 27.7957 1.7626
41.7600 27.8090 1.7572
41.7800 27.8223 1.7584
41.8000 27.8357 1.7667
41.8200 27.8490 1.7600
41.8400 27.8623 1.7604
41.8600 27.8757 1.7687
41.8800 27.8890 1.7631
41.9000 27.9023 1.7637
41.9200 27.9157 1.7751
41.9400 27.9290 1.7624
41.9600 27.9424 1.7657
41.9800 27.9557 1.7763
42.0000 27.9691 1.7637
42.0200 27.9824 1.7740
42.0400 27.9957 1.7810
42.0600 28.0091 1.7640
42.0800 28.0225 1.7748
42.1000 28.0357 1.7841
42.1200 28.0490 1.7725
42.1400 28.0624 1.7800
42.1600 28.0757 1.7874
42.1800 28.0890 1.7727
42.2000 28.1023 1.7819
42.2200 28.1156 1.7893
42.2400 28.1290 1.7769
42.2600 28.1423 1.7868
42.2800 28.1557 1.7886
42.3000 28.1690 1.7792
42.3200 28.1824 1.7914
42.3400 28.1957 1.7935
42.3600 28.2091 1.7813
42.3800 28.2224 1.7935
42.4000 28.2357 1.7990
42.4200 28.2491 1.7854
42.4400 28.2624 1.7952
42.4600 28.2757 1.7996
42.4800 28.2890 1.7932
42.5000 28.3024 1.7991
42.5200 28.3157 1.8013
42.5400 28.3290 1.7961
42.5600 28.3423 1.7994
42.5800 28.3556 1.8105
42.6000 28.3690 1.7987
42.6200 28.3823 1.8035
42.6400 28.3956 1.8095
42.6600 28.4090 1.8000
42.6800 28.4224 1.8089
42.7000 28.4358 1.8163
42.7200 28.4491 1.7982
42.7400 28.4625 1.8111
42.7600 28.4758 1.8160
42.7800 28.4891 1.8055
42.8000 28.5025 1.8167
42.8200 28.5157 1.8234
42.8400 28.5290 1.8044
42.8600 28.5423 1.8243
42.8800 28.5557 1.8251
42.9000 28.5690 1.8056
42.9200 28.5823 1.8241
42.9400 28.5956 1.8267
42.9600 28.6090 1.8126
42.9800 28.6224 1.8285
43.0000 28.6357 1.8252
43.0200 28.6490 1.8218
43.0400 28.6624 1.8326
43.0600 28.6757 1.8229
43.0800 28.6891 1.8245
43.1000 28.7024 1.8354
43.1200 28.7157 1.8239
43.1400 28.7291 1.8307
43.1600 28.7424 1.8397
43.1800 28.7557 1.8317
43.2000 28.7690 1.8316
43.2200 28.7823 1.8440
43.2400 28.7957 1.8346
43.2600 28.8090 1.8384
43.2800 28.8223 1.8421
43.3000 28.8356 1.8365
43.3200 28.8490 1.8430
43.3400 28.8624 1.8400
43.3600 28.8757 1.8457
43.3800 28.8890 1.8458
43.4000 28.9024 1.8454
43.4200 28.9158 1.8432
43.4400 28.9291 1.8493
43.4600 28.9424 1.8494
43.4800 28.9557 1.8496
43.5000 28.9691 1.8507
43.5200 28.9824 1.8481
43.5400 28.9958 1.8551
43.5600 29.0090 1.8558
43.5800 29.0224 1.8569
43.6000 29.0357 1.8633
43.6200 29.0490 1.8502
43.6400 29.0623 1.8630
43.6600 29.0756 1.8624
43.6800 29.0890 1.8538
43.7000 29.1023 1.8633
43.7200 29.1157 1.8707
43.7400 29.1290 1.8568
43.7600 29.1424 1.8666
43.7800 29.1557 1.8748
43.8000 29.1691 1.8595
43.8200 29.1824 1.8695
43.8400 29.1957 1.8769
43.8600 29.2091 1.8670
43.8800 29.2224 1.8729
43.9000 29.2357 1.8793
43.9200 29.2490 1.8730
43.9400 29.2624 1.8756
43.9600 29.2757 1.8804
43.9800 29.2890 1.8764
44.0000 29.3023 1.8775
44.0200 29.3157 1.8834
44.0400 29.3290 1.8770
44.0600 29.3423 1.8879
44.0800 29.3557 1.8843
44.1000 29.3690 1.8792
44.1200 29.3823 1.8898
44.1400 29.3957 1.8872
44.1600 29.4091 1.8826
44.1800 29.4224 1.8970
44.2000 29.4357 1.8913
44.2200 29.4491 1.8857
44.2400 29.4625 1.8935
44.2600 29.4758 1.8925
44.2800 29.4890 1.8876
44.3000 29.5023 1.9039
44.3200 29.5157 1.8940
44.3400 29.5290 1.8969
44.3600 29.5423 1.9033
44.3800 29.5556 1.8945
44.4000 29.5690 1.9011
44.4200 29.5823 1.9029
44.4400 29.5956 1.8994
44.4600 29.6090 1.9058
44.4800 29.6224 1.9041
44.5000 29.6358 1.9045
44.5200 29.6491 1.9064
44.5400 29.6624 1.9090
44.5600 29.6757 1.9079
44.5800 29.6891 1.9142
44.6000 29.7024 1.9087
44.6200 29.7158 1.9112
44.6400 29.7290 1.9187
44.6600 29.7423 1.9161
44.6800 29.7557 1.9171
44.7000 29.7690 1.9142
44.7200 29.7823 1.9207
44.7400 29.7956 1.9187
44.7600 29.8090 1.9200
44.7800 29.8223 1.9231
44.8000 29.8357 1.9220
44.8200 29.8490 1.9229
44.8400 29.8623 1.9267
44.8600 29.8757 1.9237
44.8800 29.8891 1.9308
44.9000 29.9024 1.9268
44.9200 29.9157 1.9265
44.9400 29.9291 1.9312
44.9600 29.9424 1.9286
44.9800 29.9557 1.9320
45.0000 29.9690 1.9374
45.0200 29.9823 1.9334
45.0400 29.9956 1.9370
45.0600 30.0090 1.9421
45.0800 30.0223 1.9397
45.1000 30.0356 1.9357
45.1200 30.0490 1.9443
45.1400 30.0624 1.9405
45.1600 30.0757 1.9390
45.1800 30.0891 1.9446
45.2000 30.1024 1.9482
45.2200 30.1158 1.9424
45.2400 30.1291 1.9476
45.2600 30.1424 1.9503
45.2800 30.1557 1.9468
45.3000 30.1690 1.9548
45.3200 30.1824 1.9565
45.3400 30.1957 1.9498
45.3600 30.2091 1.9580
45.3800 30.2224 1.9566
45.4000 30.2357 1.9504
45.4200 30.2491 1.9629
45.4400 30.2624 1.9588
45.4600 30.2757 1.9572
45.4800 30.2890 1.9687
45.5000 30.3024 1.9611
45.5200 30.3157 1.9574
45.5400 30.3290 1.9770
45.5600 30.3423 1.9653
45.5800 30.3557 1.9616
45.6000 30.3690 1.9756
45.6200 30.3824 1.9654
45.6400 30.3957 1.9671
45.6600 30.4090 1.9800
45.6800 30.4224 1.9690
45.7000 30.4357 1.9690
45.7200 30.4490 1.9832
45.7400 30.4624 1.9740
45.7600 30.4757 1.9760
45.7800 30.4891 1.9850
45.8000 30.5024 1.9754
45.8200 30.5157 1.9826
45.8400 30.5290 1.9864
45.8600 30.5423 1.9818
45.8800 30.5557 1.9873
45.9000 30.5690 1.9919
45.9200 30.5823 1.9840
45.9400 30.5957 1.9909
45.9600 30.6091 1.9982
45.9800 30.6224 1.9846
46.0000 30.6357 1.9906
46.0200 30.6491 2.0000
46.0400 30.6624 1.9921
46.0600 30.6757 1.9940
46.0800 30.6890 2.0067
46.1000 30.7023 1.9972
46.1200 30.7157 1.9901
46.1400 30.7290 2.0083
46.1600 30.7424 2.0039
46.1800 30.7556 1.9997
46.2000 30.7690 2.0100
46.2200 30.7824 2.0059
46.2400 30.7957 2.0036
46.2600 30.8090 2.0145
46.2800 30.8223 2.0085
46.3000 30.8357 2.0065
46.3200 30.8491 2.0189
46.3400 30.8624 2.0113
46.3600 30.8757 2.0077
46.3800 30.8891 2.0226
46.4000 30.9024 2.0196
46.4200 30.9158 2.0116
46.4400 30.9291 2.0258
46.4600 30.9424 2.0197
46.4800 30.9557 2.0193
46.5000 30.9691 2.0291
46.5200 30.9824 2.0237
46.5400 30.9957 2.0241
46.5600 31.0090 2.0332
46.5800 31.0223 2.0259
46.6000 31.0357 2.0268
46.6200 31.0490 2.0374
46.6400 31.0623 2.0305
46.6600 31.0757 2.0311
46.6800 31.0891 2.0392
46.7000 31.1024 2.0350
46.7200 31.1157 2.0387
46.7400 31.1290 2.0448
46.7600 31.1424 2.0375
46.7800 31.1558 2.0427
46.8000 31.1691 2.0474
46.8200 31.1824 2.0419
46.8400 31.1957 2.0463
46.8600 31.2090 2.0507
46.8800 31.2224 2.0434
46.9000 31.2357 2.0493
46.9200 31.2490 2.0566
46.9400 31.2623 2.0470
46.9600 31.2757 2.0531
46.9800 31.2890 2.0566
47.0000 31.3023 2.0524
47.0200 31.3157 2.0571
47.0400 31.3291 2.0601
47.0600 31.3424 2.0619
47.0800 31.3557 2.0599
47.1000 31.3690 2.0639
47.1200 31.3824 2.0611
47.1400 31.3957 2.0675
47.1600 31.4090 2.0672
47.1800 31.4223 2.0674
47.2000 31.4357 2.0713
47.2200 31.4490 2.0669
47.2400 31.4623 2.0732
47.2600 31.4757 2.0763
47.2800 31.4890 2.0735
47.3000 31.5023 2.0768
47.3200 31.5157 2.0754
47.3400 31.5290 2.0786
47.3600 31.5423 2.0793
47.3800 31.5557 2.0815
47.4000 31.5690 2.0828
47.4200 31.5824 2.0844
47.4400 31.5957 2.0850
47.4600 31.6090 2.0881
47.4800 31.6224 2.0899
47.5000 31.6357 2.0875
47.5200 31.6491 2.0933
47.5400 31.6624 2.0954
47.5600 31.6757 2.0907
47.5800 31.6891 2.0963
47.6000 31.7024 2.0939
47.6200 31.7157 2.0954
47.6400 31.7290 2.1039
47.6600 31.7423 2.0953
47.6800 31.7556 2.1044
47.7000 31.7690 2.1083
47.7200 31.7823 2.0955
47.7400 31.7957 2.1094
47.7600 31.8091 2.1085
47.7800 31.8225 2.1010
47.8000 31.8358 2.1103
47.8200 31.8491 2.1173
47.8400 31.8624 2.1071
47.8600 31.8758 2.1150
47.8800 31.8891 2.1193
47.9000 31.9024 2.1092
47.9200 31.9157 2.1277
47.9400 31.9290 2.1177
47.9600 31.9423 2.1137
47.9800 31.9556 2.1303
48.0000 31.9689 2.1212
48.0200 31.9823 2.1227
48.0400 31.9957 2.1386
48.0600 32.0090 2.1238
48.0800 32.0223 2.1260
48.1000 32.0357 2.1403
48.1200 32.0491 2.1285
48.1400 32.0625 2.1334
48.1600 32.0758 2.1415
48.1800 32.0891 2.1303
48.2000 32.1024 2.1388
48.2200 32.1158 2.1436
48.2400 32.1291 2.1364
48.2600 32.1424 2.1457
48.2800 32.1557 2.1483
48.3000 32.1690 2.1360
48.3200 32.1823 2.1479
48.3400 32.1957 2.1520
48.3600 32.2090 2.1435
48.3800 32.2223 2.1506
48.4000 32.2357 2.1510
48.4200 32.2490 2.1511
48.4400 32.2623 2.1550
48.4600 32.2757 2.1541
48.4800 32.2891 2.1554
48.5000 32.3024 2.1566
48.5200 32.3157 2.1588
48.5400 32.3291 2.1636
48.5600 32.3424 2.1622
48.5800 32.3558 2.1679
48.6000 32.3691 2.1653
48.6200 32.3824 2.1654
48.6400 32.3957 2.1727
48.6600 32.4090 2.1728
48.6800 32.4224 2.1663
48.7000 32.4357 2.1790
48.7200 32.4490 2.1739
48.7400 32.4623 2.1718
48.7600 32.4757 2.1870
48.7800 32.4890 2.1735
48.8000 32.5023 2.1757
48.8200 32.5157 2.1934
48.8400 32.5291 2.1780
48.8600 32.5424 2.1801
48.8800 32.5557 2.1937
48.9000 32.5691 2.1840
48.9200 32.5824 2.1841
48.9400 32.5957 2.1934
48.9600 32.6091 2.1889
48.9800 32.6224 2.1927
49.0000 32.6357 2.2014
49.0200 32.6490 2.1911
49.0400 32.6624 2.1990
49.0600 32.6757 2.2059
49.0800 32.6890 2.1944
49.1000 32.7023 2.2020
49.1200 32.7157 2.2049
49.1400 32.7290 2.2016
49.1600 32.7423 2.2067
49.1800 32.7557 2.2136
49.2000 32.7691 2.2057
49.2200 32.7824 2.2108
49.2400 32.7958 2.2189
49.2600 32.8091 2.2073
49.2800 32.8224 2.2219
49.3000 32.8358 2.2200
49.3200 32.8491 2.2129
49.3400 32.8624 2.2207
49.3600 32.8757 2.2291
49.3800 32.8890 2.2187
49.4000 32.9023 2.2255
49.4200 32.9157 2.2349
49.4400 32.9290 2.2200
49.4600 32.9423 2.2312
49.4800 32.9557 2.2398
49.5000 32.9690 2.2229
49.5200 32.9823 2.2363
49.5400 32.9957 2.2440
49.5600 33.0091 2.2293
49.5800 33.0224 2.2372
49.6000 33.0357 2.2477
49.6200 33.0490 2.2331
49.6400 33.0624 2.2504
49.6600 33.0757 2.2521
49.6800 33.0891 2.2389
49.7000 33.1024 2.2548
49.7200 33.1157 2.2532
49.7400 33.1290 2.2450
49.7600 33.1424 2.2564
49.7800 33.1557 2.2532
49.8000 33.1690 2.2551
49.8200 33.1823 2.2640
49.8400 33.1956 2.2556
49.8600 33.2090 2.2619
49.8800 33.2223 2.2657
49.9000 33.2357 2.2609
49.9200 33.2491 2.2638
49.9400 33.2625 2.2674
49.9600 33.2758 2.2662
49.9800 33.2891 2.2724
50.0000 33.3024 2.2718
50.0200 33.3158 2.2692
50.0400 33.3291 2.2779
50.0600 33.3424 2.2761
50.0800 33.3557 2.2752
50.1000 33.3690 2.2852
50.1200 33.3823 2.2755
50.1400 33.3956 2.2785
50.1600 33.4090 2.2888
50.1800 33.4223 2.2851
50.2000 33.4357 2.2842
50.2200 33.4490 2.2902
50.2400 33.4624 2.2887
50.2600 33.4757 2.2917
50.2800 33.4891 2.2968
50.3000 33.5024 2.2904
50.3200 33.5158 2.2950
50.3400 33.5291 2.3014
50.3600 33.5424 2.2944
50.3800 33.5557 2.3048
50.4000 33.5691 2.3022
50.4200 33.5824 2.2999
50.4400 33.5957 2.3077
50.4600 33.6090 2.3049
50.4800 33.6224 2.3057
50.5000 33.6357 2.3144
50.5200 33.6490 2.3101
50.5400 33.6623 2.3101
50.5600 33.6757 2.3178
50.5800 33.6890 2.3127
50.6000 33.7023 2.3152
50.6200 33.7157 2.3208
50.6400 33.7291 2.3155
50.6600 33.7425 2.3194
50.6800 33.7558 2.3278
50.7000 33.7691 2.3217
50.7200 33.7824 2.3292
50.7400 33.7958 2.3310
50.7600 33.8091 2.3263
50.7800 33.8224 2.3359
50.8000 33.8357 2.3334
50.8200 33.8490 2.3366
50.8400 33.8624 2.3425
50.8600 33.8757 2.3363
50.8800 33.8890 2.3442
50.9000 33.9023 2.3474
50.9200 33.9157 2.3443
50.9400 33.9290 2.3421
50.9600 33.9423 2.3506
50.9800 33.9557 2.3457
51.0000 33.9690 2.3513
51.0200 33.9824 2.3549
51.0400 33.9957 2.3498
51.0600 34.0091 2.3574
51.0800 34.0224 2.3617
51.1000 34.0358 2.3549
51.1200 34.0491 2.3622
51.1400 34.0624 2.3638
51.1600 34.0757 2.3673
51.1800 34.0890 2.3645
51.2000 34.1024 2.3660
51.2200 34.1157 2.3727
51.2400 34.1290 2.3712
51.2600 34.1423 2.3767
51.2800 34.1557 2.3773
51.3000 34.1690 2.3722
51.3200 34.1823 2.3812
51.3400 34.1957 2.3843
51.3600 34.2090 2.3755
51.3800 34.2224 2.3871
51.4000 34.2357 2.3853
51.4200 34.2490 2.3814
51.4400 34.2624 2.3944
51.4600 34.2758 2.3879
51.4800 34.2891 2.3859
51.5000 34.3024 2.4024
51.5200 34.3157 2.3918
51.5400 34.3290 2.3958
51.5600 34.3424 2.4052
51.5800 34.3557 2.3974
51.6000 34.3690 2.4030
51.6200 34.3823 2.4137
51.6400 34.3956 2.4004
51.6600 34.4090 2.4096
51.6800 34.4223 2.4190
51.7000 34.4357 2.4057
51.7200 34.4491 2.4144
51.7400 34.4624 2.4204
51.7600 34.4758 2.4075
51.7800 34.4891 2.4221
51.8000 34.5024 2.4263
51.8200 34.5158 2.4175
51.8400 34.5291 2.4213
51.8600 34.5424 2.4290
51.8800 34.5557 2.4252
51.9000 34.5690 2.4324
51.9200 34.5824 2.4373
51.9400 34.5957 2.4273
51.9600 34.6090 2.4355
51.9800 34.6223 2.4404
52.0000 34.6356 2.4382
52.0200 34.6490 2.4384
52.0400 34.6623 2.4434
52.0600 34.6757 2.4442
52.0800 34.6890 2.4392
52.1000 34.7024 2.4502
52.1200 34.7158 2.4511
52.1400 34.7291 2.4501
52.1600 34.7424 2.4608
52.1800 34.7558 2.4523
52.2000 34.7691 2.4592
52.2200 34.7824 2.4616
52.2400 34.7957 2.4614
52.2600 34.8090 2.4642
52.2800 34.8223 2.4660
52.3000 34.8357 2.4622
52.3200 34.8490 2.4689
52.3400 34.8623 2.4777
52.3600 34.8757 2.4668
52.3800 34.8891 2.4728
52.4000 34.9024 2.4771
52.4200 34.9157 2.4726
52.4400 34.9290 2.4830
52.4600 34.9424 2.4793
52.4800 34.9557 2.4805
52.5000 34.9690 2.4916
52.5200 34.9823 2.4860
52.5400 34.9957 2.4867
52.5600 35.0091 2.4932
52.5800 35.0224 2.4930
52.6000 35.0357 2.4951
52.6200 35.0491 2.4952
52.6400 35.0624 2.5037
52.6600 35.0757 2.4947
52.6800 35.0890 2.5058
52.7000 35.1023 2.5066
52.7200 35.1157 2.5038
52.7400 35.1290 2.5115
52.7600 35.1423 2.5070
52.7800 35.1556 2.5128
52.8000 35.1690 2.5140
52.8200 35.1824 2.5201
52.8400 35.1957 2.5118
52.8600 35.2091 2.5187
52.8800 35.2224 2.5273
52.9000 35.2357 2.5194
52.9200 35.2491 2.5261
52.9400 35.2624 2.5291
52.9600 35.2757 2.5283
52.9800 35.2891 2.5303
53.0000 35.3024 2.5398
53.0200 35.3157 2.5318
53.0400 35.3290 2.5361
53.0600 35.3423 2.5473
53.0800 35.3556 2.5333
53.1000 35.3690 2.5451
53.1200 35.3823 2.5462
53.1400 35.3957 2.5411
53.1600 35.4090 2.5513
53.1800 35.4224 2.5544
53.2000 35.4358 2.5475
53.2200 35.4491 2.5544
53.2400 35.4624 2.5596
53.2600 35.4758 2.5506
53.2800 35.4891 2.5631
53.3000 35.5024 2.5626
53.3200 35.5157 2.5591
53.3400 35.5290 2.5738
53.3600 35.5424 2.5664
53.3800 35.5557 2.5640
53.4000 35.5690 2.5767
53.4200 35.5823 2.5746
53.4400 35.5957 2.5700
53.4600 35.6090 2.5822
53.4800 35.6224 2.5823
53.5000 35.6357 2.5708
53.5200 35.6490 2.5889
53.5400 35.6624 2.5879
53.5600 35.6757 2.5785
53.5800 35.6891 2.5971
53.6000 35.7024 2.5927
53.6200 35.7157 2.5879
53.6400 35.7291 2.6018
53.6600 35.7424 2.6001
53.6800 35.7557 2.5922
53.7000 35.7690 2.6038
53.7200 35.7824 2.6075
53.7400 35.7957 2.5989
53.7600 35.8090 2.6141
53.7800 35.8223 2.6116
53.8000 35.8356 2.6061
53.8200 35.8490 2.6181
53.8400 35.8623 2.6163
53.8600 35.8757 2.6135
53.8800 35.8890 2.6228
53.9000 35.9024 2.6206
53.9200 35.9158 2.6193
53.9400 35.9291 2.6278
53.9600 35.9424 2.6352
53.9800 35.9557 2.6302
54.0000 35.9691 2.6326
54.0200 35.9824 2.6365
54.0400 35.9957 2.6324
54.0600 36.0090 2.6413
54.0800 36.0224 2.6467
54.1000 36.0357 2.6398
54.1200 36.0490 2.6449
54.1400 36.0623 2.6540
54.1600 36.0757 2.6450
54.1800 36.0890 2.6533
54.2000 36.1023 2.6590
54.2200 36.1157 2.6519
54.2400 36.1290 2.6626
54.2600 36.1424 2.6628
54.2800 36.1557 2.6547
54.3000 36.1690 2.6716
54.3200 36.1823 2.6730
54.3400 36.1957 2.6598
54.3600 36.2091 2.6744
54.3800 36.2224 2.6799
54.4000 36.2357 2.6653
54.4200 36.2490 2.6817
54.4400 36.2623 2.6825
54.4600 36.2757 2.6742
54.4800 36.2890 2.6891
54.5000 36.3023 2.6903
54.5200 36.3156 2.6807
54.5400 36.3290 2.6967
54.5600 36.3424 2.6963
54.5800 36.3557 2.6871
54.6000 36.3690 2.7031
54.6200 36.3824 2.7042
54.6400 36.3957 2.6901
54.6600 36.4090 2.7112
54.6800 36.4223 2.7083
54.7000 36.4357 2.7001
54.7200 36.4490 2.7155
54.7400 36.4623 2.7123
54.7600 36.4757 2.7111
54.7800 36.4891 2.7207
54.8000 36.5024 2.7175
54.8200 36.5158 2.7210
54.8400 36.5291 2.7276
54.8600 36.5424 2.7269
54.8800 36.5557 2.7289
54.9000 36.5690 2.7303
54.9200 36.5823 2.7292
54.9400 36.5956 2.7356
54.9600 36.6090 2.7392
54.9800 36.6224 2.7366
55.0000 36.6358 2.7436
55.0200 36.6491 2.7423
55.0400 36.6624 2.7470
55.0600 36.6758 2.7530
55.0800 36.6891 2.7468
55.1000 36.7024 2.7543
55.1200 36.7157 2.7593
55.1400 36.7290 2.7550
55.1600 36.7423 2.7638
55.1800 36.7557 2.7624
55.2000 36.7690 2.7629
55.2200 36.7823 2.7713
55.2400 36.7956 2.7692
55.2600 36.8090 2.7692
55.2800 36.8223 2.7761
55.3000 36.8357 2.7756
55.3200 36.8490 2.7795
55.3400 36.8624 2.7833
55.3600 36.8758 2.7846
55.3800 36.8891 2.7804
55.4000 36.9024 2.7901
55.4200 36.9157 2.7896
55.4400 36.9291 2.7940
55.4600 36.9424 2.7953
55.4800 36.9557 2.7989
55.5000 36.9690 2.7991
55.5200 36.9823 2.8035
55.5400 36.9957 2.8066
55.5600 37.0090 2.8077
55.5800 37.0223 2.8089
55.6000 37.0356 2.8136
55.6200 37.0490 2.8129
55.6400 37.0623 2.8166
55.6600 37.0757 2.8207
55.6800 37.0890 2.8209
55.7000 37.1024 2.8240
55.7200 37.1157 2.8244
55.7400 37.1291 2.8310
55.7600 37.1424 2.8319
55.7800 37.1557 2.8330
55.8000 37.1691 2.8343
55.8200 37.1824 2.8420
55.8400 37.1957 2.8370
55.8600 37.2090 2.8451
55.8800 37.2224 2.8485
55.9000 37.2357 2.8455
55.9200 37.2490 2.8535
55.9400 37.2623 2.8515
55.9600 37.2756 2.8520
55.9800 37.2890 2.8629
56.0000 37.3023 2.8539
56.0200 37.3157 2.8590
56.0400 37.3290 2.8729
56.0600 37.3424 2.8664
56.0800 37.3558 2.8649
56.1000 37.3691 2.8758
56.1200 37.3824 2.8709
56.1400 37.3957 2.8746
56.1600 37.4091 2.8864
56.1800 37.4224 2.8779
56.2000 37.4357 2.8818
56.2200 37.4490 2.8931
56.2400 37.4623 2.8893
56.2600 37.4757 2.8941
56.2800 37.4890 2.8978
56.3000 37.5024 2.8926
56.3200 37.5157 2.8997
56.3400 37.5290 2.9018
56.3600 37.5423 2.9005
56.3800 37.5556 2.9084
56.4000 37.5690 2.9113
56.4200 37.5824 2.9078
56.4400 37.5957 2.9170
56.4600 37.6091 2.9171
56.4800 37.6224 2.9155
56.5000 37.6357 2.9299
56.5200 37.6491 2.9260
56.5400 37.6624 2.9157
56.5600 37.6757 2.9344
56.5800 37.6890 2.9340
56.6000 37.7024 2.9290
56.6200 37.7157 2.9385
56.6400 37.7290 2.9381
56.6600 37.7423 2.9365
56.6800 37.7556 2.9519
56.7000 37.7690 2.9437
56.7200 37.7823 2.9440
56.7400 37.7957 2.9581
56.7600 37.8090 2.9486
56.7800 37.8223 2.9546
56.8000 37.8357 2.9648
56.8200 37.8491 2.9563
56.8400 37.8624 2.9629
56.8600 37.8757 2.9755
56.8800 37.8891 2.9682
56.9000 37.9024 2.9721
56.9200 37.9157 2.9796
56.9400 37.9290 2.9765
56.9600 37.9424 2.9804
56.9800 37.9557 2.9878
57.0000 37.9690 2.9838
57.0200 37.9823 2.9932
57.0400 37.9956 2.9921
57.0600 38.0090 2.9914
57.0800 38.0223 3.0005
57.1000 38.0356 3.0029
57.1200 38.0490 3.0028
57.1400 38.0624 3.0066
57.1600 38.0758 3.0091
57.1800 38.0891 3.0140
57.2000 38.1024 3.0129
57.2200 38.1158 3.0149
57.2400 38.1291 3.0206
57.2600 38.1425 3.0227
57.2800 38.1557 3.0212
57.3000 38.1690 3.0323
57.3200 38.1823 3.0278
57.3400 38.1956 3.0333
57.3600 38.2090 3.0425
57.3800 38.2223 3.0328
57.4000 38.2357 3.0407
57.4200 38.2490 3.0484
57.4400 38.2624 3.0407
57.4600 38.2757 3.0533
57.4800 38.2890 3.0553
57.5000 38.3024 3.0515
57.5200 38.3158 3.0609
57.5400 38.3291 3.0619
57.5600 38.3424 3.0619
57.5800 38.3557 3.0764
57.6000 38.3691 3.0698
57.6200 38.3824 3.0643
57.6400 38.3957 3.0857
57.6600 38.4090 3.0792
57.6800 38.4223 3.0785
57.7000 38.4357 3.0924
57.7200 38.4490 3.0845
57.7400 38.4623 3.0892
57.7600 38.4756 3.0985
57.7800 38.4890 3.0914
57.8000 38.5023 3.1003
57.8200 38.5157 3.1046
57.8400 38.5290 3.1009
57.8600 38.5424 3.1095
57.8800 38.5557 3.1149
57.9000 38.5691 3.1095
57.9200 38.5824 3.1205
57.9400 38.5957 3.1192
57.9600 38.6091 3.1231
57.9800 38.6224 3.1282
58.0000 38.6357 3.1322
58.0200 38.6490 3.1338
58.0400 38.6624 3.1387
58.0600 38.6757 3.1352
58.0800 38.6890 3.1399
58.1000 38.7023 3.1489
58.1200 38.7156 3.1443
58.1400 38.7290 3.1522
58.1600 38.7423 3.1554
58.1800 38.7556 3.1574
58.2000 38.7690 3.1633
58.2200 38.7824 3.1641
58.2400 38.7958 3.1642
58.2600 38.8091 3.1685
58.2800 38.8224 3.1716
58.3000 38.8357 3.1750
58.3200 38.8491 3.1798
58.3400 38.8624 3.1772
58.3600 38.8757 3.1848
58.3800 38.8890 3.1895
58.4000 38.9024 3.1903
58.4200 38.9157 3.1932
58.4400 38.9290 3.1977
58.4600 38.9423 3.1978
58.4800 38.9557 3.2041
58.5000 38.9690 3.2087
58.5200 38.9824 3.2094
58.5400 38.9957 3.2111
58.5600 39.0090 3.2154
58.5800 39.0224 3.2177
58.6000 39.0357 3.2193
58.6200 39.0491 3.2262
58.6400 39.0624 3.2284
58.6600 39.0757 3.2240
58.6800 39.0891 3.2377
58.7000 39.1024 3.2373
58.7200 39.1158 3.2340
58.7400 39.1290 3.2504
58.7600 39.1423 3.2500
58.7800 39.1557 3.2446
58.8000 39.1690 3.2564
58.8200 39.1823 3.2595
58.8400 39.1956 3.2522
58.8600 39.2090 3.2672
58.8800 39.2223 3.2655
58.9000 39.2357 3.2647
58.9200 39.2490 3.2812
58.9400 39.2624 3.2762
58.9600 39.2758 3.2738
58.9800 39.2891 3.2878
59.0000 39.3024 3.2836
59.0200 39.3157 3.2865
59.0400 39.3291 3.2978
59.0600 39.3424 3.2949
59.0800 39.3558 3.2942
59.1000 39.3690 3.3052
59.1200 39.3823 3.3080
59.1400 39.3957 3.3075
59.1600 39.4090 3.3131
59.1800 39.4223 3.3200
59.2000 39.4356 3.3183
59.2200 39.4490 3.3217
59.2400 39.4623 3.3305
59.2600 39.4757 3.3294
59.2800 39.4890 3.3313
59.3000 39.5023 3.3394
59.3200 39.5157 3.3403
59.3400 39.5291 3.3383
59.3600 39.5424 3.3493
59.3800 39.5557 3.3506
59.4000 39.5691 3.3510
59.4200 39.5824 3.3612
59.4400 39.5957 3.3544
59.4600 39.6090 3.3582
59.4800 39.6223 3.3688
59.5000 39.6356 3.3682
59.5200 39.6490 3.3725
59.5400 39.6623 3.3788
59.5600 39.6756 3.3791
59.5800 39.6890 3.3806
59.6000 39.7024 3.3899
59.6200 39.7157 3.3882
59.6400 39.7290 3.3938
59.6600 39.7424 3.3976
59.6800 39.7557 3.3980
59.7000 39.7691 3.4028
59.7200 39.7824 3.4072
59.7400 39.7957 3.4105
59.7600 39.8090 3.4130
59.7800 39.8224 3.4190
59.8000 39.8357 3.4223
59.8200 39.8491 3.4242
59.8400 39.8624 3.4290
59.8600 39.8757 3.4306
59.8800 39.8891 3.4354
59.9000 39.9024 3.4344
59.9200 39.9157 3.4403
59.9400 39.9290 3.4465
59.9600 39.9423 3.4469
59.9800 39.9557 3.4504
60.0000 39.9690 3.4527
60.0200 39.9823 3.4624
60.0400 39.9957 3.4515
60.0470 40.0002 3.4395
60.0480 40.0009 3.4371
60.0490 40.0015 3.4349
60.0690 40.0119 3.3649
60.0890 40.0141 3.2979
60.1090 40.0057 3.3891
60.1290 39.9928 3.4758
60.1490 39.9799 3.4348
60.1690 39.9670 3.4053
60.1890 39.9536 3.4287
60.2090 39.9396 3.4070
60.2290 39.9256 3.3993
60.2490 39.9118 3.4121
60.2690 39.8983 3.3814
60.2890 39.8850 3.3741
60.3090 39.8717 3.3824
60.3290 39.8584 3.3533
60.3490 39.8451 3.3600
60.3690 39.8317 3.3709
60.3890 39.8183 3.3314
60.4090 39.8050 3.3394
60.4290 39.7916 3.3408
60.4490 39.7782 3.3097
60.4690 39.7649 3.3218
60.4890 39.7516 3.3203
60.5090 39.7383 3.2933
60.5290 39.7249 3.3009
60.5490 39.7115 3.3016
60.5690 39.6982 3.2788
60.5890 39.6849 3.2838
60.6090 39.6716 3.2808
60.6290 39.6582 3.2620
60.6490 39.6449 3.2686
60.6690 39.6316 3.2564
60.6890 39.6183 3.2475
60.7090 39.6050 3.2469
60.7290 39.5916 3.2421
60.7490 39.5783 3.2290
60.7690 39.5650 3.2309
60.7890 39.5517 3.2228
60.8090 39.5383 3.2129
60.8290 39.5249 3.2150
60.8490 39.5116 3.1999
60.8690 39.4982 3.1947
60.8890 39.4849 3.1995
60.9090 39.4715 3.1891
60.9290 39.4582 3.1807
60.9490 39.4449 3.1771
60.9690 39.4316 3.1701
60.9890 39.4183 3.1730
61.0090 39.4049 3.1649
61.0290 39.3916 3.1465
61.0490 39.3783 3.1547
61.0690 39.3650 3.1482
61.0890 39.3516 3.1372
61.1090 39.3383 3.1454
61.1290 39.3249 3.1278
61.1490 39.3116 3.1165
61.1690 39.2983 3.1268
61.1890 39.2849 3.1122
61.2090 39.2715 3.1093
61.2290 39.2582 3.1113
61.2490 39.2449 3.0941
61.2690 39.2315 3.0975
61.2890 39.2182 3.0901
61.3090 39.2049 3.0793
61.3290 39.1916 3.0830
61.3490 39.1782 3.0739
61.3690 39.1649 3.0671
61.3890 39.1516 3.0692
61.4090 39.1383 3.0535
61.4290 39.1249 3.0528
61.4490 39.1116 3.0562
61.4690 39.0983 3.0451
61.4890 39.0849 3.0404
61.5090 39.0716 3.0385
61.5290 39.0582 3.0262
61.5490 39.0448 3.0231
61.5690 39.0315 3.0254
61.5890 39.0182 3.0150
61.6090 39.0049 3.0100
61.6290 38.9915 3.0077
61.6490 38.9782 3.0017
61.6690 38.9649 2.9987
61.6890 38.9516 2.9899
61.7090 38.9382 2.9888
61.7290 38.9249 2.9847
61.7490 38.9116 2.9770
61.7690 38.8983 2.9740
61.7890 38.8849 2.9719
61.8090 38.8716 2.9685
61.8290 38.8582 2.9612
61.8490 38.8449 2.9545
61.8690 38.8316 2.9555
61.8890 38.8182 2.9496
61.9090 38.8049 2.9409
61.9290 38.7915 2.9472
61.9490 38.7782 2.9340
61.9690 38.7649 2.9293
61.9890 38.7515 2.9296
62.0090 38.7382 2.9212
62.0290 38.7249 2.9186
62.0490 38.7116 2.9176
62.0690 38.6983 2.9077
62.0890 38.6849 2.9061
62.1090 38.6716 2.9053
62.1290 38.6583 2.8945
62.1490 38.6449 2.8924
62.1690 38.6316 2.8940
62.1890 38.6182 2.8810
62.2090 38.6049 2.8844
62.2290 38.5916 2.8774
62.2490 38.5782 2.8713
62.2690 38.5649 2.8700
62.2890 38.5515 2.8625
62.3090 38.5382 2.8599
62.3290 38.5249 2.8593
62.3490 38.5116 2.8493
62.3690 38.4982 2.8450
62.3890 38.4849 2.8467
62.4090 38.4716 2.8403
62.4290 38.4582 2.8358
62.4490 38.4449 2.8377
62.4690 38.4315 2.8253
62.4890 38.4182 2.8216
62.5090 38.4049 2.8185
62.5290 38.3916 2.8157
62.5490 38.3783 2.8155
62.5690 38.3649 2.8085
62.5890 38.3516 2.8016
62.6090 38.3383 2.7998
62.6290 38.3249 2.7990
62.6490 38.3115 2.7927
62.6690 38.2982 2.7902
62.6890 38.2849 2.7868
62.7090 38.2715 2.7793
62.7290 38.2582 2.7810
62.7490 38.2448 2.7724
62.7690 38.2315 2.7691
62.7890 38.2182 2.7689
62.8090 38.2049 2.7631
62.8290 38.1915 2.7593
62.8490 38.1782 2.7538
62.8690 38.1649 2.7554
62.8890 38.1516 2.7480
62.9090 38.1382 2.7396
62.9290 38.1249 2.7438
62.9490 38.1116 2.7330
62.9690 38.0982 2.7339
62.9890 38.0849 2.7348
63.0090 38.0715 2.7226
63.0290 38.0582 2.7233
63.0490 38.0448 2.7184
63.0690 38.0315 2.7133
63.0890 38.0182 2.7145
63.1090 38.0048 2.7119
63.1290 37.9915 2.7011
63.1490 37.9782 2.7039
63.1690 37.9649 2.7087
63.1890 37.9516 2.6893
63.2090 37.9383 2.6886
63.2290 37.9250 2.6929
63.2490 37.9116 2.6766
63.2690 37.8982 2.6825
63.2890 37.8849 2.6798
63.3090 37.8716 2.6663
63.3290 37.8582 2.6712
63.3490 37.8449 2.6670
63.3690 37.8315 2.6563
63.3890 37.8182 2.6637
63.4090 37.8049 2.6604
63.4290 37.7915 2.6440
63.4490 37.7782 2.6565
63.4690 37.7648 2.6520
63.4890 37.7515 2.6316
63.5090 37.7382 2.6457
63.5290 37.7249 2.6393
63.5490 37.7116 2.6217
63.5690 37.6983 2.6367
63.5890 37.6850 2.6288
63.6090 37.6716 2.6153
63.6290 37.6583 2.6321
63.6490 37.6449 2.6181
63.6690 37.6316 2.6024
63.6890 37.6183 2.6180
63.7090 37.6049 2.6069
63.7290 37.5915 2.5928
63.7490 37.5782 2.6076
63.7690 37.5649 2.5990
63.7890 37.5515 2.5853
63.8090 37.5382 2.5981
63.8290 37.5248 2.5893
63.8490 37.5116 2.5769
63.8690 37.4982 2.5901
63.8890 37.4849 2.5805
63.9090 37.4715 2.5664
63.9290 37.4582 2.5753
63.9490 37.4449 2.5682
63.9690 37.4316 2.5611
63.9890 37.4182 2.5693
64.0090 37.4049 2.5618
64.0290 37.3916 2.5529
64.0490 37.3783 2.5560
64.0690 37.3649 2.5539
64.0890 37.3515 2.5435
64.1090 37.3382 2.5472
64.1290 37.3249 2.5435
64.1490 37.3115 2.5305
64.1690 37.2982 2.5381
64.1890 37.2848 2.5350
64.2090 37.2715 2.5243
64.2290 37.2582 2.5294
64.2490 37.2449 2.5257
64.2690 37.2315 2.5199
64.2890 37.2182 2.5188
64.3090 37.2049 2.5172
64.3290 37.1916 2.5054
64.3490 37.1782 2.5149
64.3690 37.1649 2.5082
64.3890 37.1516 2.4952
64.4090 37.1383 2.5029
64.4290 37.1249 2.4939
64.4490 37.1115 2.4921
64.4690 37.0982 2.4982
64.4890 37.0849 2.4873
64.5090 37.0716 2.4810
64.5290 37.0582 2.4870
64.5490 37.0448 2.4783
64.5690 37.0315 2.4740
64.5890 37.0182 2.4782
64.6090 37.0048 2.4702
64.6290 36.9915 2.4663
64.6490 36.9782 2.4693
64.6690 36.9649 2.4605
64.6890 36.9516 2.4586
64.7090 36.9383 2.4628
64.7290 36.9249 2.4565
64.7490 36.9116 2.4491
64.7690 36.8983 2.4513
64.7890 36.8849 2.4445
64.8090 36.8715 2.4405
64.8290 36.8582 2.4436
64.8490 36.8449 2.4318
64.8690 36.8315 2.4308
64.8890 36.8181 2.4373
64.9090 36.8048 2.4303
64.9290 36.7915 2.4250
64.9490 36.7782 2.4267
64.9690 36.7649 2.4172
64.9890 36.7516 2.4213
65.0090 36.7383 2.4183
65.0290 36.7250 2.4111
65.0490 36.7116 2.4112
65.0690 36.6983 2.4123
65.0890 36.6849 2.4077
65.1090 36.6716 2.4008
65.1290 36.6583 2.4046
65.1490 36.6449 2.3969
65.1690 36.6315 2.3960
65.1890 36.6182 2.3936
65.2090 36.6049 2.3851
65.2290 36.5915 2.3885
65.2490 36.5782 2.3838
65.2690 36.5648 2.3846
65.2890 36.5515 2.3812
65.3090 36.5382 2.3737
65.3290 36.5249 2.3779
65.3490 36.5116 2.3757
65.3690 36.4983 2.3645
65.3890 36.4850 2.3702
65.4090 36.4716 2.3695
65.4290 36.4582 2.3533
65.4490 36.4449 2.3681
65.4690 36.4316 2.3599
65.4890 36.4182 2.3472
65.5090 36.4049 2.3584
65.5290 36.3915 2.3466
65.5490 36.3782 2.3423
65.5690 36.3649 2.3526
65.5890 36.3516 2.3399
65.6090 36.3382 2.3374
65.6290 36.3249 2.3413
65.6490 36.3116 2.3340
65.6690 36.2982 2.3303
65.6890 36.2849 2.3344
65.7090 36.2715 2.3257
65.7290 36.2582 2.3254
65.7490 36.2450 2.3208
65.7690 36.2316 2.3155
65.7890 36.2182 2.3198
65.8090 36.2049 2.3140
65.8290 36.1916 2.3123
65.8490 36.1782 2.3079
65.8690 36.1649 2.3054
65.8890 36.1515 2.3076
65.9090 36.1382 2.3007
65.9290 36.1249 2.3013
65.9490 36.1116 2.3003
65.9690 36.0982 2.2911
65.9890 36.0848 2.2963
66.0090 36.0715 2.2939
66.0290 36.0582 2.2881
66.0490 36.0449 2.2859
66.0690 36.0316 2.2881
66.0890 36.0182 2.2761
66.1090 36.0049 2.2835
66.1290 35.9916 2.2812
66.1490 35.9782 2.2701
66.1690 35.9649 2.2729
66.1890 35.9516 2.2688
66.2090 35.9383 2.2670
66.2290 35.9249 2.2686
66.2490 35.9115 2.2576
66.2690 35.8982 2.2630
66.2890 35.8849 2.2622
66.3090 35.8716 2.2499
66.3290 35.8582 2.2551
66.3490 35.8448 2.2561
66.3690 35.8315 2.2474
66.3890 35.8182 2.2504
66.4090 35.8049 2.2506
66.4290 35.7916 2.2424
66.4490 35.7783 2.2446
66.4690 35.7650 2.2363
66.4890 35.7516 2.2359
66.5090 35.7383 2.2379
66.5290 35.7249 2.2272
66.5490 35.7116 2.2312
66.5690 35.6983 2.2294
66.5890 35.6849 2.2154
66.6090 35.6715 2.2272
66.6290 35.6582 2.2217
66.6490 35.6449 2.2150
66.6690 35.6315 2.2207
66.6890 35.6182 2.2140
66.7090 35.6048 2.2068
66.7290 35.5915 2.2208
66.7490 35.5782 2.2044
66.7690 35.5649 2.1986
66.7890 35.5515 2.2127
66.8090 35.5382 2.1946
66.8290 35.5249 2.1997
66.8490 35.5116 2.2037
66.8690 35.4983 2.1857
66.8890 35.4849 2.1963
66.9090 35.4716 2.1978
66.9290 35.4583 2.1823
66.9490 35.4449 2.1862
66.9690 35.4315 2.1914
66.9890 35.4181 2.1755
67.0090 35.4048 2.1847
67.0290 35.3915 2.1805
67.0490 35.3782 2.1706
67.0690 35.3648 2.1766
67.0890 35.3515 2.1726
67.1090 35.3382 2.1682
67.1290 35.3249 2.1706
67.1490 35.3116 2.1656
67.1690 35.2983 2.1629
67.1890 35.2849 2.1652
67.2090 35.2716 2.1606
67.2290 35.2583 2.1566
67.2490 35.2449 2.1584
67.2690 35.2316 2.1574
67.2890 35.2182 2.1517
67.3090 35.2049 2.1509
67.3290 35.1915 2.1454
67.3490 35.1782 2.1511
67.3690 35.1649 2.1377
67.3890 35.1516 2.1431
67.4090 35.1382 2.1423
67.4290 35.1249 2.1307
67.4490 35.1115 2.1414
67.4690 35.0982 2.1305
67.4890 35.0849 2.1247
67.5090 35.0716 2.1406
67.5290 35.0583 2.1242
67.5490 35.0450 2.1170
67.5690 35.0316 2.1353
67.5890 35.0183 2.1241
67.6090 35.0049 2.1049
67.6290 34.9916 2.1313
67.6490 34.9782 2.1157
67.6690 34.9649 2.1033
67.6890 34.9515 2.1259
67.7090 34.9382 2.1077
67.7290 34.9249 2.0981
67.7490 34.9116 2.1160
67.7690 34.8982 2.1009
67.7890 34.8848 2.0945
67.8090 34.8715 2.1153
67.8290 34.8582 2.0879
67.8490 34.8449 2.0893
67.8690 34.8315 2.1072
67.8890 34.8182 2.0846
67.9090 34.8049 2.0862
67.9290 34.7916 2.0989
67.9490 34.7783 2.0791
67.9690 34.7649 2.0816
67.9890 34.7516 2.0925
68.0090 34.7383 2.0748
68.0290 34.7249 2.0747
68.0490 34.7116 2.0853
68.0690 34.6982 2.0709
68.0890 34.6849 2.0711
68.1090 34.6716 2.0733
68.1290 34.6582 2.0702
68.1490 34.6448 2.0720
68.1690 34.6315 2.0639
68.1890 34.6182 2.0677
68.2090 34.6049 2.0590
68.2290 34.5915 2.0612
68.2490 34.5782 2.0649
68.2690 34.5649 2.0542
68.2890 34.5516 2.0568
68.3090 34.5382 2.0556
68.3290 34.5249 2.0462
68.3490 34.5116 2.0510
68.3690 34.4983 2.0507
68.3890 34.4849 2.0395
68.4090 34.4715 2.0470
68.4290 34.4581 2.0452
68.4490 34.4448 2.0319
68.4690 34.4315 2.0445
68.4890 34.4182 2.0339
68.5090 34.4048 2.0276
68.5290 34.3915 2.0406
68.5490 34.3782 2.0280
68.5690 34.3649 2.0233
68.5890 34.3515 2.0332
68.6090 34.3382 2.0217
68.6290 34.3249 2.0214
68.6490 34.3116 2.0230
68.6690 34.2983 2.0161
68.6890 34.2849 2.0154
68.7090 34.2716 2.0208
68.7290 34.2583 2.0089
68.7490 34.2449 2.0108
68.7690 34.2315 2.0163
68.7890 34.2182 2.0052
68.8090 34.2048 2.0035
68.8290 34.1916 2.0130
68.8490 34.1782 1.9947
68.8690 34.1649 2.0027
68.8890 34.1515 2.0048
68.9090 34.1382 1.9911
68.9290 34.1249 1.9950
68.9490 34.1116 1.9974
68.9690 34.0982 1.9862
68.9890 34.0849 1.9937
69.0090 34.0716 1.9908
69.0290 34.0583 1.9812
69.0490 34.0449 1.9908
69.0690 34.0316 1.9872
69.0890 34.0183 1.9750
69.1090 34.0049 1.9810
69.1290 33.9916 1.9806
69.1490 33.9782 1.9749
69.1690 33.9649 1.9745
69.1890 33.9515 1.9713
69.2090 33.9382 1.9670
69.2290 33.9248 1.9687
69.2490 33.9115 1.9719
69.2690 33.8982 1.9615
69.2890 33.8849 1.9602
69.3090 33.8716 1.9652
69.3290 33.8582 1.9621
69.3490 33.8449 1.9541
69.3690 33.8316 1.9569
69.3890 33.8183 1.9535
69.4090 33.8049 1.9533
69.4290 33.7915 1.9520
69.4490 33.7782 1.9492
69.4690 33.7649 1.9507
69.4890 33.7516 1.9449
69.5090 33.7382 1.9419
69.5290 33.7249 1.9428
69.5490 33.7116 1.9355
69.5690 33.6982 1.9422
69.5890 33.6849 1.9404
69.6090 33.6715 1.9376
69.6290 33.6582 1.9357
69.6490 33.6449 1.9330
69.6690 33.6315 1.9292
69.6890 33.6182 1.9328
69.7090 33.6049 1.9259
69.7290 33.5916 1.9212
69.7490 33.5783 1.9282
69.7690 33.5649 1.9179
69.7890 33.5516 1.9219
69.8090 33.5383 1.9279
69.8290 33.5249 1.9074
69.8490 33.5116 1.9209
69.8690 33.4982 1.9193
69.8890 33.4849 1.9045
69.9090 33.4715 1.9199
69.9290 33.4582 1.9070
69.9490 33.4449 1.9011
69.9690 33.4315 1.9155
69.9890 33.4182 1.9037
70.0090 33.4049 1.8943
70.0290 33.3916 1.9113
70.0490 33.3782 1.8968
70.0690 33.3649 1.8928
70.0890 33.3516 1.9053
70.1090 33.3383 1.8891
70.1290 33.3249 1.8910
70.1490 33.3116 1.9037
70.1690 33.2983 1.8795
70.1890 33.2849 1.8891
70.2090 33.2716 1.8931
70.2290 33.2582 1.8812
70.2490 33.2449 1.8861
70.2690 33.2315 1.8873
70.2890 33.2182 1.8733
70.3090 33.2048 1.8827
70.3290 33.1915 1.8850
70.3490 33.1782 1.8673
70.3690 33.1649 1.8774
70.3890 33.1516 1.8741
70.4090 33.1382 1.8667
70.4290 33.1249 1.8723
70.4490 33.1117 1.8665
70.4690 33.0983 1.8625
70.4890 33.0849 1.8659
70.5090 33.0716 1.8618
70.5290 33.0582 1.8589
70.5490 33.0449 1.8630
70.5690 33.0316 1.8578
70.5890 33.0182 1.8543
70.6090 33.0048 1.8594
70.6290 32.9915 1.8551
70.6490 32.9782 1.8476
70.6690 32.9648 1.8544
70.6890 32.9515 1.8556
70.7090 32.9382 1.8404
70.7290 32.9249 1.8463
70.7490 32.9115 1.8484
70.7690 32.8982 1.8384
70.7890 32.8849 1.8440
70.8090 32.8716 1.8434
70.8290 32.8583 1.8296
70.8490 32.8449 1.8407
70.8690 32.8316 1.8336
70.8890 32.8182 1.8287
70.9090 32.8049 1.8371
70.9290 32.7916 1.8301
70.9490 32.7782 1.8286
70.9690 32.7648 1.8368
70.9890 32.7515 1.8219
71.0090 32.7382 1.8195
71.0290 32.7249 1.8312
71.0490 32.7115 1.8188
71.0690 32.6982 1.8186
71.0890 32.6849 1.8251
71.1090 32.6716 1.8113
71.1290 32.6582 1.8173
71.1490 32.6449 1.8214
71.1690 32.6316 1.8123
71.1890 32.6183 1.8110
71.2090 32.6049 1.8153
71.2290 32.5916 1.8074
71.2490 32.5783 1.8077
71.2690 32.5649 1.8083
71.2890 32.5516 1.8037
71.3090 32.5382 1.8042
71.3290 32.5249 1.8031
71.3490 32.5116 1.8000
71.3690 32.4982 1.7936
71.3890 32.4849 1.8014
71.4090 32.4715 1.7977
71.4290 32.4582 1.7921
71.4490 32.4449 1.7969
71.4690 32.4315 1.7941
71.4890 32.4182 1.7882
71.5090 32.4049 1.7970
71.5290 32.3916 1.7862
71.5490 32.3783 1.7862
71.5690 32.3649 1.7882
71.5890 32.3516 1.7744
71.6090 32.3382 1.7867
71.6290 32.3249 1.7901
71.6490 32.3116 1.7714
71.6690 32.2982 1.7808
71.6890 32.2849 1.7859
71.7090 32.2716 1.7683
71.7290 32.2583 1.7729
71.7490 32.2449 1.7800
71.7690 32.2315 1.7682
71.7890 32.2182 1.7735
71.8090 32.2049 1.7669
71.8290 32.1915 1.7649
71.8490 32.1782 1.7681
71.8690 32.1649 1.7682
71.8890 32.1516 1.7621
71.9090 32.1383 1.7595
71.9290 32.1249 1.7649
71.9490 32.1116 1.7570
71.9690 32.0983 1.7575
71.9890 32.0850 1.7604
72.0090 32.0716 1.7512
72.0290 32.0582 1.7507
72.0490 32.0449 1.7584
72.0690 32.0315 1.7456
72.0890 32.0182 1.7452
72.1090 32.0048 1.7565
72.1290 31.9915 1.7428
72.1490 31.9781 1.7458
72.1690 31.9649 1.7523
72.1890 31.9516 1.7377
72.2090 31.9382 1.7428
72.2290 31.9249 1.7457
72.2490 31.9116 1.7349
72.2690 31.8983 1.7372
72.2890 31.8849 1.7439
72.3090 31.8716 1.7314
72.3290 31.8582 1.7331
72.3490 31.8449 1.7341
72.3690 31.8316 1.7266
72.3890 31.8182 1.7314
72.4090 31.8048 1.7321
72.4290 31.7915 1.7257
72.4490 31.7782 1.7242
72.4690 31.7649 1.7242
72.4890 31.7515 1.7219
72.5090 31.7382 1.7225
72.5290 31.7249 1.7240
72.5490 31.7116 1.7162
72.5690 31.6982 1.7175
72.5890 31.6849 1.7196
72.6090 31.6716 1.7117
72.6290 31.6583 1.7135
72.6490 31.6449 1.7136
72.6690 31.6315 1.7094
72.6890 31.6182 1.7121
72.7090 31.6049 1.7138
72.7290 31.5915 1.6987
72.7490 31.5782 1.7076
72.7690 31.5648 1.7091
72.7890 31.5515 1.7011
72.8090 31.5382 1.7045
72.8290 31.5249 1.7034
72.8490 31.5116 1.6988
72.8690 31.4982 1.6964
72.8890 31.4849 1.6982
72.9090 31.4716 1.6936
72.9290 31.4582 1.6973
72.9490 31.4449 1.7020
72.9690 31.4316 1.6893
72.9890 31.4183 1.6914
73.0090 31.4049 1.6920
73.0290 31.3916 1.6847
73.0490 31.3782 1.6881
73.0690 31.3649 1.6893
73.0890 31.3516 1.6791
73.1090 31.3382 1.6842
73.1290 31.3248 1.6882
73.1490 31.3115 1.6740
73.1690 31.2982 1.6831
73.1890 31.2849 1.6831
73.2090 31.2715 1.6700
73.2290 31.2582 1.6801
73.2490 31.2449 1.6791
73.2690 31.2316 1.6660
73.2890 31.2182 1.6766
73.3090 31.2049 1.6750
73.3290 31.1916 1.6624
73.3490 31.1783 1.6714
73.3690 31.1649 1.6657
73.3890 31.1516 1.6649
73.4090 31.1382 1.6696
73.4290 31.1249 1.6591
73.4490 31.1116 1.6605
73.4690 31.0982 1.6660
73.4890 31.0848 1.6599
73.5090 31.0715 1.6547
73.5290 31.0582 1.6619
73.5490 31.0449 1.6543
73.5690 31.0315 1.6498
73.5890 31.0182 1.6559
73.6090 31.0048 1.6528
73.6290 30.9915 1.6552
73.6490 30.9782 1.6506
73.6690 30.9649 1.6488
73.6890 30.9516 1.6506
73.7090 30.9383 1.6439
73.7290 30.9250 1.6477
73.7490 30.9116 1.6448
73.7690 30.8982 1.6438
73.7890 30.8849 1.6412
73.8090 30.8716 1.6398
73.8290 30.8582 1.6412
73.8490 30.8448 1.6373
73.8690 30.8315 1.6390
73.8890 30.8182 1.6347
73.9090 30.8049 1.6315
73.9290 30.7915 1.6375
73.9490 30.7782 1.6329
73.9690 30.7649 1.6303
73.9890 30.7516 1.6290
74.0090 30.7382 1.6286
74.0290 30.7249 1.6287
74.0490 30.7116 1.6263
74.0690 30.6983 1.6259
74.0890 30.6850 1.6232
74.1090 30.6716 1.6228
74.1290 30.6583 1.6228
74.1490 30.6449 1.6219
74.1690 30.6316 1.6192
74.1890 30.6182 1.6184
74.2090 30.6049 1.6186
74.2290 30.5915 1.6169
74.2490 30.5782 1.6159
74.2690 30.5649 1.6111
74.2890 30.5515 1.6142
74.3090 30.5382 1.6121
74.3290 30.5249 1.6106
74.3490 30.5116 1.6096
74.3690 30.4983 1.6091
74.3890 30.4849 1.6092
74.4090 30.4716 1.6022
74.4290 30.4583 1.6045
74.4490 30.4450 1.6031
74.4690 30.4316 1.6075
74.4890 30.4182 1.6059
74.5090 30.4049 1.5952
74.5290 30.3916 1.5988
74.5490 30.3782 1.5992
74.5690 30.3649 1.5949
74.5890 30.3515 1.5933
74.6090 30.3382 1.5934
74.6290 30.3249 1.5913
74.6490 30.3115 1.5894
74.6690 30.2982 1.5957
74.6890 30.2849 1.5858
74.7090 30.2716 1.5911
74.7290 30.2582 1.5908
74.7490 30.2449 1.5832
74.7690 30.2316 1.5878
74.7890 30.2183 1.5849
74.8090 30.2049 1.5798
74.8290 30.1916 1.5827
74.8490 30.1782 1.5830
74.8690 30.1649 1.5773
74.8890 30.1516 1.5776
74.9090 30.1382 1.5802
74.9290 30.1249 1.5731
74.9490 30.1115 1.5782
74.9690 30.0982 1.5756
74.9890 30.0849 1.5667
75.0090 30.0715 1.5770
75.0290 30.0582 1.5696
75.0490 30.0449 1.5617
75.0690 30.0316 1.5729
75.0890 30.0182 1.5630
75.1090 30.0049 1.5630
75.1290 29.9915 1.5722
75.1490 29.9782 1.5593
75.1690 29.9649 1.5600
75.1890 29.9516 1.5669
75.2090 29.9382 1.5548
75.2290 29.9249 1.5577
75.2490 29.9116 1.5619
75.2690 29.8983 1.5514
75.2890 29.8849 1.5569
75.3090 29.8715 1.5609
75.3290 29.8582 1.5515
75.3490 29.8449 1.5508
75.3690 29.8315 1.5568
75.3890 29.8182 1.5462
75.4090 29.8049 1.5509
75.4290 29.7915 1.5498
75.4490 29.7782 1.5470
75.4690 29.7649 1.5488
75.4890 29.7516 1.5456
75.5090 29.7383 1.5426
75.5290 29.7249 1.5377
75.5490 29.7116 1.5371
75.5690 29.6982 1.5445
75.5890 29.6849 1.5392
75.6090 29.6716 1.5347
75.6290 29.6582 1.5425
75.6490 29.6449 1.5335
75.6690 29.6315 1.5333
75.6890 29.6182 1.5381
75.7090 29.6049 1.5301
75.7290 29.5916 1.5286
75.7490 29.5782 1.5361
75.7690 29.5649 1.5286
75.7890 29.5515 1.5258
75.8090 29.5382 1.5327
75.8290 29.5249 1.5256
75.8490 29.5115 1.5227
75.8690 29.4983 1.5327
75.8890 29.4849 1.5186
75.9090 29.4716 1.5235
75.9290 29.4582 1.5274
75.9490 29.4449 1.5159
75.9690 29.4316 1.5191
75.9890 29.4182 1.5202
76.0090 29.4048 1.5143
76.0290 29.3915 1.5185
76.0490 29.3782 1.5159
76.0690 29.3649 1.5118
76.0890 29.3516 1.5146
76.1090 29.3382 1.5126
76.1290 29.3249 1.5071
76.1490 29.3116 1.5175
76.1690 29.2982 1.5072
76.1890 29.2849 1.5085
76.2090 29.2716 1.5125
76.2290 29.2583 1.5001
76.2490 29.2449 1.5040
76.2690 29.2316 1.5064
76.2890 29.2182 1.5025
76.3090 29.2049 1.4993
76.3290 29.1916 1.5029
76.3490 29.1782 1.4925
76.3690 29.1648 1.4975
76.3890 29.1515 1.5025
76.4090 29.1382 1.4875
76.4290 29.1249 1.4945
76.4490 29.1115 1.5010
76.4690 29.0982 1.4871
76.4890 29.0849 1.4896
76.5090 29.0716 1.4966
76.5290 29.0582 1.4840
76.5490 29.0449 1.4869
76.5690 29.0316 1.4935
76.5890 29.0183 1.4790
76.6090 29.0050 1.4830
76.6290 28.9916 1.4911
76.6490 28.9782 1.4822
76.6690 28.9649 1.4833
76.6890 28.9516 1.4851
76.7090 28.9382 1.4767
76.7290 28.9249 1.4804
76.7490 28.9115 1.4813
76.7690 28.8982 1.4767
76.7890 28.8849 1.4712
76.8090 28.8716 1.4769
76.8290 28.8582 1.4734
76.8490 28.8449 1.4676
76.8690 28.8316 1.4749
76.8890 28.8182 1.4699
76.9090 28.8049 1.4641
76.9290 28.7915 1.4747
76.9490 28.7783 1.4678
76.9690 28.7649 1.4672
76.9890 28.7516 1.4706
77.0090 28.7383 1.4624
77.0290 28.7249 1.4606
77.0490 28.7116 1.4699
77.0690 28.6983 1.4553
77.0890 28.6849 1.4594
77.1090 28.6715 1.4672
77.1290 28.6582 1.4521
77.1490 28.6449 1.4566
77.1690 28.6315 1.4611
77.1890 28.6182 1.4524
77.2090 28.6049 1.4587
77.2290 28.5915 1.4568
77.2490 28.5782 1.4498
77.2690 28.5649 1.4575
77.2890 28.5515 1.4534
77.3090 28.5382 1.4453
77.3290 28.5249 1.4506
77.3490 28.5116 1.4496
77.3690 28.4982 1.4435
77.3890 28.4849 1.4502
77.4090 28.4716 1.4428
77.4290 28.4583 1.4424
77.4490 28.4449 1.4486
77.4690 28.4315 1.4441
77.4890 28.4182 1.4396
77.5090 28.4049 1.4413
77.5290 28.3915 1.4387
77.5490 28.3781 1.4378
77.5690 28.3648 1.4389
77.5890 28.3515 1.4368
77.6090 28.3382 1.4324
77.6290 28.3249 1.4393
77.6490 28.3116 1.4334
77.6690 28.2983 1.4290
77.6890 28.2850 1.4346
77.7090 28.2716 1.4278
77.7290 28.2583 1.4308
77.7490 28.2449 1.4331
77.7690 28.2316 1.4298
77.7890 28.2182 1.4260
77.8090 28.2049 1.4255
77.8290 28.1915 1.4251
77.8490 28.1782 1.4195
77.8690 28.1649 1.4243
77.8890 28.1515 1.4232
77.9090 28.1382 1.4177
77.9290 28.1248 1.4239
77.9490 28.1115 1.4223
77.9690 28.0982 1.4136
77.9890 28.0849 1.4184
78.0090 28.0716 1.4216
78.0290 28.0583 1.4079
78.0490 28.0449 1.4148
78.0690 28.0316 1.4156
78.0890 28.0182 1.4073
78.1090 28.0049 1.4184
78.1290 27.9916 1.4093
78.1490 27.9783 1.4007
78.1690 27.9649 1.4164
78.1890 27.9515 1.4088
78.2090 27.9382 1.3990
78.2290 27.9249 1.4098
78.2490 27.9115 1.4038
78.2690 27.8982 1.3959
78.2890 27.8848 1.4136
78.3090 27.8715 1.4017
78.3290 27.8582 1.3925
78.3490 27.8449 1.4076
78.3690 27.8316 1.3968
78.3890 27.8182 1.3923
78.4090 27.8049 1.4034
78.4290 27.7916 1.3942
78.4490 27.7782 1.3909
78.4690 27.7649 1.3984
78.4890 27.7516 1.3926
78.5090 27.7383 1.3833
78.5290 27.7249 1.3938
78.5490 27.7115 1.3933
78.5690 27.6982 1.3825
78.5890 27.6849 1.3919
78.6090 27.6716 1.3874
78.6290 27.6582 1.3798
78.6490 27.6448 1.3907
78.6690 27.6315 1.3874
78.6890 27.6182 1.3758
78.7090 27.6049 1.3893
78.7290 27.5915 1.3808
78.7490 27.5782 1.3742
78.7690 27.5649 1.3865
78.7890 27.5516 1.3787
78.8090 27.5382 1.3699
78.8290 27.5249 1.3863
78.8490 27.5116 1.3752
78.8690 27.4982 1.3677
78.8890 27.4849 1.3810
78.9090 27.4715 1.3707
78.9290 27.4582 1.3682
78.9490 27.4449 1.3816
78.9690 27.4316 1.3653
78.9890 27.4182 1.3647
79.0090 27.4048 1.3791
79.0290 27.3915 1.3617
79.0490 27.3782 1.3599
79.0690 27.3649 1.3795
79.0890 27.3515 1.3617
79.1090 27.3382 1.3601
79.1290 27.3249 1.3716
79.1490 27.3116 1.3597
79.1690 27.2982 1.3584
79.1890 27.2849 1.3681
79.2090 27.2716 1.3545
79.2290 27.2583 1.3542
79.2490 27.2449 1.3680
79.2690 27.2315 1.3513
79.2890 27.2182 1.3536
79.3090 27.2049 1.3622
79.3290 27.1915 1.3491
79.3490 27.1782 1.3524
79.3690 27.1648 1.3623
79.3890 27.1515 1.3448
79.4090 27.1382 1.3481
79.4290 27.1249 1.3575
79.4490 27.1116 1.3453
79.4690 27.0983 1.3481
79.4890 27.0850 1.3571
79.5090 27.0716 1.3418
79.5290 27.0583 1.3478
79.5490 27.0449 1.3532
79.5690 27.0316 1.3391
79.5890 27.0183 1.3443
79.6090 27.0049 1.3458
79.6290 26.9915 1.3401
79.6490 26.9782 1.3440
79.6690 26.9649 1.3394
79.6890 26.9515 1.3382
79.7090 26.9382 1.3398
79.7290 26.9248 1.3391
79.7490 26.9115 1.3343
79.7690 26.8982 1.3354
79.7890 26.8849 1.3379
79.8090 26.8716 1.3343
79.8290 26.8583 1.3332
79.8490 26.8450 1.3335
79.8690 26.8316 1.3310
79.8890 26.8183 1.3286
79.9090 26.8049 1.3303
79.9290 26.7916 1.3311
79.9490 26.7782 1.3238
79.9690 26.7649 1.3305
79.9890 26.7515 1.3256
80.0090 26.7382 1.3212
80.0290 26.7249 1.3282
80.0490 26.7116 1.3213
80.0690 26.6982 1.3179
80.0890 26.6849 1.3275
80.1090 26.6716 1.3231
80.1290 26.6583 1.3146
80.1490 26.6449 1.3237
80.1690 26.6316 1.3202
80.1890 26.6182 1.3124
80.2090 26.6049 1.3248
80.2290 26.5916 1.3132
80.2490 26.5782 1.3139
80.2690 26.5649 1.3209
80.2890 26.5516 1.3108
80.3090 26.5383 1.3145
80.3290 26.5249 1.3145
80.3490 26.5115 1.3065
80.3690 26.4982 1.3094
80.3890 26.4849 1.3136
80.4090 26.4716 1.3034
80.4290 26.4582 1.3078
80.4490 26.4448 1.3164
80.4690 26.4315 1.3038
80.4890 26.4182 1.3005
80.5090 26.4049 1.3095
80.5290 26.3916 1.3005
80.5490 26.3783 1.2999
80.5690 26.3650 1.3035
80.5890 26.3516 1.3012
80.6090 26.3383 1.2983
80.6290 26.3249 1.3026
80.6490 26.3116 1.2981
80.6690 26.2983 1.2963
80.6890 26.2849 1.3044
80.7090 26.2715 1.2921
80.7290 26.2582 1.2950
80.7490 26.2449 1.2999
80.7690 26.2316 1.2926
80.7890 26.2182 1.2871
80.8090 26.2048 1.2981
80.8290 26.1915 1.2930
80.8490 26.1782 1.2850
80.8690 26.1649 1.2938
80.8890 26.1516 1.2921
80.9090 26.1383 1.2864
80.9290 26.1250 1.2898
80.9490 26.1117 1.2840
80.9690 26.0983 1.2808
80.9890 26.0849 1.2881
81.0090 26.0716 1.2866
81.0290 26.0582 1.2769
81.0490 26.0449 1.2840
81.0690 26.0315 1.2848
81.0890 26.0182 1.2716
81.1090 26.0049 1.2863
81.1290 25.9915 1.2815
81.1490 25.9782 1.2650
81.1690 25.9648 1.2848
81.1890 25.9515 1.2794
81.2090 25.9382 1.2645
81.2290 25.9249 1.2833
81.2490 25.9115 1.2757
81.2690 25.8982 1.2609
81.2890 25.8849 1.2840
81.3090 25.8717 1.2717
81.3290 25.8583 1.2614
81.3490 25.8449 1.2839
81.3690 25.8316 1.2652
81.3890 25.8183 1.2610
81.4090 25.8049 1.2769
81.4290 25.7915 1.2625
81.4490 25.7782 1.2646
81.4690 25.7648 1.2730
81.4890 25.7515 1.2557
81.5090 25.7382 1.2624
81.5290 25.7248 1.2730
81.5490 25.7115 1.2511
81.5690 25.6982 1.2632
81.5890 25.6849 1.2708
81.6090 25.6716 1.2529
81.6290 25.6582 1.2643
81.6490 25.6449 1.2630
81.6690 25.6316 1.2491
81.6890 25.6183 1.2585
81.7090 25.6049 1.2550
81.7290 25.5916 1.2511
81.7490 25.5783 1.2601
81.7690 25.5649 1.2476
81.7890 25.5515 1.2514
81.8090 25.5382 1.2600
81.8290 25.5249 1.2440
81.8490 25.5116 1.2469
81.8690 25.4982 1.2571
81.8890 25.4849 1.2406
81.9090 25.4715 1.2491
81.9290 25.4582 1.2515
81.9490 25.4449 1.2408
81.9690 25.4315 1.2477
81.9890 25.4182 1.2499
82.0090 25.4049 1.2378
82.0290 25.3916 1.2456
82.0490 25.3783 1.2454
82.0690 25.3649 1.2355
82.0890 25.3516 1.2452
82.1090 25.3383 1.2389
82.1290 25.3249 1.2352
82.1490 25.3115 1.2429
82.1690 25.2982 1.2356
82.1890 25.2849 1.2351
82.2090 25.2716 1.2367
82.2290 25.2582 1.2331
82.2490 25.2449 1.2355
82.2690 25.2315 1.2352
82.2890 25.2182 1.2329
82.3090 25.2049 1.2304
82.3290 25.1915 1.2367
82.3490 25.1782 1.2314
82.3690 25.1649 1.2272
82.3890 25.1516 1.2301
82.4090 25.1383 1.2265
82.4290 25.1249 1.2278
82.4490 25.1116 1.2269
82.4690 25.0983 1.2263
82.4890 25.0850 1.2227
82.5090 25.0716 1.2263
82.5290 25.0582 1.2265
82.5490 25.0449 1.2185
82.5690 25.0315 1.2236
82.5890 25.0182 1.2237
82.6090 25.0048 1.2161
82.6290 24.9915 1.2226
82.6490 24.9782 1.2232
82.6690 24.9649 1.2099
82.6890 24.9515 1.2203
82.7090 24.9382 1.2193
82.7290 24.9249 1.2125
82.7490 24.9116 1.2148
82.7690 24.8983 1.2187
82.7890 24.8849 1.2106
82.8090 24.8716 1.2160
82.8290 24.8583 1.2154
82.8490 24.8450 1.2053
82.8690 24.8316 1.2135
82.8890 24.8182 1.2131
82.9090 24.8048 1.2013
82.9290 24.7915 1.2139
82.9490 24.7782 1.2084
82.9690 24.7649 1.2002
82.9890 24.7515 1.2158
83.0090 24.7382 1.2039
83.0290 24.7249 1.2007
83.0490 24.7115 1.2124
83.0690 24.6982 1.2050
83.0890 24.6849 1.1974
83.1090 24.6716 1.2021
83.1290 24.6583 1.2020
83.1490 24.6449 1.1999
83.1690 24.6316 1.2001
83.1890 24.6182 1.2016
83.2090 24.6049 1.1933
83.2290 24.5915 1.1953
83.2490 24.5782 1.2019
83.2690 24.5648 1.1979
83.2890 24.5516 1.1949
83.3090 24.5382 1.1969
83.3290 24.5249 1.1938
83.3490 24.5115 1.1915
83.3690 24.4982 1.1964
83.3890 24.4849 1.1888
83.4090 24.4715 1.1891
83.4290 24.4582 1.1988
83.4490 24.4449 1.1817
83.4690 24.4316 1.1891
83.4890 24.4182 1.1984
83.5090 24.4049 1.1766
83.5290 24.3916 1.1934
83.5490 24.3783 1.1937
83.5690 24.3649 1.1709
83.5890 24.3516 1.1904
83.6090 24.3382 1.1910
83.6290 24.3249 1.1690
83.6490 24.3116 1.1879
83.6690 24.2982 1.1873
83.6890 24.2849 1.1710
83.7090 24.2715 1.1910
83.7290 24.2582 1.1847
83.7490 24.2449 1.1672
83.7690 24.2316 1.1872
83.7890 24.2182 1.1812
83.8090 24.2049 1.1688
83.8290 24.1916 1.1830
83.8490 24.1783 1.1751
83.8690 24.1649 1.1702
83.8890 24.1515 1.1836
83.9090 24.1382 1.1717
83.9290 24.1249 1.1656
83.9490 24.1116 1.1822
83.9690 24.0982 1.1669
83.9890 24.0849 1.1684
84.0090 24.0716 1.1795
84.0290 24.0582 1.1661
84.0490 24.0449 1.1690
84.0690 24.0315 1.1734
84.0890 24.0182 1.1650
84.1090 24.0049 1.1672
84.1290 23.9915 1.1679
84.1490 23.9782 1.1634
84.1690 23.9649 1.1645
84.1890 23.9516 1.1667
84.2090 23.9383 1.1592
84.2290 23.9249 1.1635
84.2490 23.9116 1.1603
84.2690 23.8983 1.1602
84.2890 23.8850 1.1582
84.3090 23.8716 1.1571
84.3290 23.8582 1.1587
84.3490 23.8448 1.1598
84.3690 23.8315 1.1548
84.3890 23.8182 1.1559
84.4090 23.8048 1.1575
84.4290 23.7915 1.1540
84.4490 23.7782 1.1582
84.4690 23.7649 1.1486
84.4890 23.7515 1.1553
84.5090 23.7382 1.1558
84.5290 23.7249 1.1443
84.5490 23.7116 1.1546
84.5690 23.6983 1.1520
84.5890 23.6849 1.1465
84.6090 23.6716 1.1503
84.6290 23.6583 1.1509
84.6490 23.6449 1.1414
84.6690 23.6316 1.1482
84.6890 23.6182 1.1470
84.7090 23.6048 1.1394
84.7290 23.5915 1.1472
84.7490 23.5782 1.1439
84.7690 23.5648 1.1405
84.7890 23.5515 1.1467
84.8090 23.5382 1.1417
84.8290 23.5249 1.1383
84.8490 23.5116 1.1385
84.8690 23.4982 1.1423
84.8890 23.4849 1.1403
84.9090 23.4716 1.1386
84.9290 23.4583 1.1404
84.9490 23.4449 1.1349
84.9690 23.4316 1.1366
84.9890 23.4182 1.1385
85.0090 23.4049 1.1324
85.0290 23.3916 1.1321
85.0490 23.3782 1.1354
85.0690 23.3649 1.1300
85.0890 23.3516 1.1316
85.1090 23.3382 1.1351
85.1290 23.3249 1.1282
85.1490 23.3115 1.1303
85.1690 23.2982 1.1345
85.1890 23.2849 1.1259
85.2090 23.2716 1.1277
85.2290 23.2582 1.1300
85.2490 23.2449 1.1252
85.2690 23.2316 1.1241
85.2890 23.2183 1.1256
85.3090 23.2049 1.1184
85.3290 23.1916 1.1271
85.3490 23.1782 1.1263
85.3690 23.1649 1.1140
85.3890 23.1516 1.1224
85.4090 23.1382 1.1219
85.4290 23.1248 1.1184
85.4490 23.1115 1.1201
85.4690 23.0982 1.1124
85.4890 23.0849 1.1151
85.5090 23.0715 1.1197
85.5290 23.0582 1.1125
85.5490 23.0449 1.1125
85.5690 23.0316 1.1212
85.5890 23.0182 1.1074
85.6090 23.0049 1.1108
85.6290 22.9916 1.1154
85.6490 22.9782 1.1070
85.6690 22.9649 1.1144
85.6890 22.9516 1.1117
85.7090 22.9382 1.1063
85.7290 22.9249 1.1100
85.7490 22.9116 1.1074
85.7690 22.8982 1.1072
85.7890 22.8849 1.1075
85.8090 22.8715 1.1030
85.8290 22.8582 1.1030
85.8490 22.8449 1.1050
85.8690 22.8315 1.1066
85.8890 22.8182 1.1048
85.9090 22.8049 1.0998
85.9290 22.7916 1.1036
85.9490 22.7782 1.1042
85.9690 22.7649 1.0999
85.9890 22.7516 1.1030
86.0090 22.7383 1.0977
86.0290 22.7249 1.0989
86.0490 22.7116 1.1043
86.0690 22.6982 1.0956
86.0890 22.6849 1.0955
86.1090 22.6716 1.1014
86.1290 22.6582 1.0901
86.1490 22.6449 1.0954
86.1690 22.6316 1.1010
86.1890 22.6182 1.0865
86.2090 22.6049 1.0955
86.2290 22.5915 1.0989
86.2490 22.5782 1.0832
86.2690 22.5649 1.0978
86.2890 22.5515 1.0917
86.3090 22.5382 1.0841
86.3290 22.5249 1.0919
86.3490 22.5116 1.0907
86.3690 22.4983 1.0786
86.3890 22.4850 1.0939
86.4090 22.4716 1.0927
86.4290 22.4583 1.0801
86.4490 22.4450 1.0901
86.4690 22.4316 1.0864
86.4890 22.4182 1.0771
86.5090 22.4049 1.0879
86.5290 22.3915 1.0824
86.5490 22.3782 1.0758
86.5690 22.3649 1.0851
86.5890 22.3515 1.0825
86.6090 22.3381 1.0741
86.6290 22.3249 1.0833
86.6490 22.3116 1.0834
86.6690 22.2982 1.0709
86.6890 22.2849 1.0822
86.7090 22.2716 1.0759
86.7290 22.2583 1.0698
86.7490 22.2449 1.0802
86.7690 22.2316 1.0795
86.7890 22.2182 1.0677
86.8090 22.2049 1.0782
86.8290 22.1916 1.0746
86.8490 22.1782 1.0640
86.8690 22.1648 1.0829
86.8890 22.1515 1.0684
86.9090 22.1382 1.0589
86.9290 22.1249 1.0785
86.9490 22.1115 1.0679
86.9690 22.0982 1.0621
86.9890 22.0849 1.0751
87.0090 22.0716 1.0671
87.0290 22.0582 1.0595
87.0490 22.0449 1.0730
87.0690 22.0316 1.0608
87.0890 22.0183 1.0597
87.1090 22.0049 1.0706
87.1290 21.9916 1.0595
87.1490 21.9782 1.0572
87.1690 21.9649 1.0675
87.1890 21.9516 1.0589
87.2090 21.9382 1.0598
87.2290 21.9248 1.0613
87.2490 21.9115 1.0599
87.2690 21.8982 1.0568
87.2890 21.8849 1.0596
87.3090 21.8715 1.0522
87.3290 21.8582 1.0565
87.3490 21.8449 1.0626
87.3690 21.8316 1.0487
87.3890 21.8182 1.0543
87.4090 21.8049 1.0611
87.4290 21.7916 1.0512
87.4490 21.7783 1.0495
87.4690 21.7650 1.0539
87.4890 21.7516 1.0506
87.5090 21.7382 1.0480
87.5290 21.7249 1.0518
87.5490 21.7116 1.0472
87.5690 21.6982 1.0468
87.5890 21.6849 1.0474
87.6090 21.6715 1.0461
87.6290 21.6582 1.0471
87.6490 21.6449 1.0467
87.6690 21.6315 1.0463
87.6890 21.6182 1.0461
87.7090 21.6049 1.0429
87.7290 21.5916 1.0425
87.7490 21.5782 1.0456
87.7690 21.5649 1.0377
87.7890 21.5516 1.0427
87.8090 21.5383 1.0412
87.8290 21.5249 1.0388
87.8490 21.5116 1.0379
87.8690 21.4982 1.0391
87.8890 21.4849 1.0381
87.9090 21.4716 1.0350
87.9290 21.4582 1.0345
87.9490 21.4449 1.0379
87.9690 21.4315 1.0361
87.9890 21.4182 1.0319
88.0090 21.4049 1.0299
88.0290 21.3915 1.0374
88.0490 21.3782 1.0303
88.0690 21.3648 1.0294
88.0890 21.3515 1.0340
88.1090 21.3382 1.0224
88.1290 21.3249 1.0309
88.1490 21.3116 1.0343
88.1690 21.2983 1.0266
88.1890 21.2850 1.0256
88.2090 21.2716 1.0278
88.2290 21.2582 1.0255
88.2490 21.2449 1.0250
88.2690 21.2316 1.0285
88.2890 21.2182 1.0184
88.3090 21.2048 1.0234
88.3290 21.1915 1.0274
88.3490 21.1782 1.0174
88.3690 21.1649 1.0262
88.3890 21.1515 1.0178
88.4090 21.1382 1.0180
88.4290 21.1249 1.0220
88.4490 21.1115 1.0183
88.4690 21.0982 1.0142
88.4890 21.0849 1.0233
88.5090 21.0716 1.0182
88.5290 21.0583 1.0080
88.5490 21.0450 1.0205
88.5690 21.0316 1.0155
88.5890 21.0183 1.0119
88.6090 21.0049 1.0170
88.6290 20.9916 1.0102
88.6490 20.9782 1.0087
88.6690 20.9648 1.0129
88.6890 20.9515 1.0132
88.7090 20.9382 1.0040
88.7290 20.9249 1.0092
88.7490 20.9115 1.0100
88.7690 20.8981 1.0057
88.7890 20.8849 1.0078
88.8090 20.8716 1.0089
88.8290 20.8583 1.0027
88.8490 20.8449 1.0057
88.8690 20.8316 1.0092
88.8890 20.8183 0.9992
88.9090 20.8050 1.0032
88.9290 20.7916 1.0069
88.9490 20.7782 0.9967
88.9690 20.7649 1.0021
88.9890 20.7516 1.0034
89.0090 20.7382 0.9904
89.0290 20.7249 1.0065
89.0490 20.7115 1.0057
89.0690 20.6982 0.9874
89.0890 20.6849 1.0016
89.1090 20.6715 1.0003
89.1290 20.6582 0.9922
89.1490 20.6449 1.0014
89.1690 20.6316 0.9956
89.1890 20.6182 0.9889
89.2090 20.6049 0.9972
89.2290 20.5916 0.9957
89.2490 20.5783 0.9877
89.2690 20.5650 0.9951
89.2890 20.5516 0.9918
89.3090 20.5382 0.9909
89.3290 20.5249 0.9898
89.3490 20.5116 0.9896
89.3690 20.4982 0.9881
89.3890 20.4848 0.9870
89.4090 20.4715 0.9924
89.4290 20.4582 0.9801
89.4490 20.4449 0.9885
89.4690 20.4315 0.9933
89.4890 20.4182 0.9776
89.5090 20.4049 0.9862
89.5290 20.3916 0.9838
89.5490 20.3782 0.9801
89.5690 20.3649 0.9847
89.5890 20.3515 0.9838
89.6090 20.3382 0.9801
89.6290 20.3249 0.9813
89.6490 20.3116 0.9818
89.6690 20.2982 0.9786
89.6890 20.2849 0.9796
89.7090 20.2716 0.9789
89.7290 20.2583 0.9775
89.7490 20.2449 0.9788
89.7690 20.2315 0.9764
89.7890 20.2182 0.9753
89.8090 20.2049 0.9789
89.8290 20.1915 0.9702
89.8490 20.1782 0.9738
89.8690 20.1649 0.9747
89.8890 20.1516 0.9703
89.9090 20.1382 0.9725
89.9290 20.1249 0.9715
89.9490 20.1116 0.9663
89.9690 20.0983 0.9730
89.9890 20.0849 0.9669
90.0090 20.0716 0.9691
90.0290 20.0582 0.9692
90.0490 20.0449 0.9642
90.0690 20.0316 0.9629
90.0890 20.0183 0.9709
90.1090 20.0049 0.9638
90.1290 19.9915 0.9628
90.1490 19.9782 0.9640
90.1690 19.9649 0.9623
90.1890 19.9515 0.9647
90.2090 19.9382 0.9651
90.2290 19.9248 0.9613
90.2490 19.9115 0.9579
90.2690 19.8982 0.9650
90.2890 19.8849 0.9570
90.3090 19.8715 0.9570
90.3290 19.8583 0.9634
90.3490 19.8450 0.9530
90.3690 19.8316 0.9551
90.3890 19.8182 0.9612
90.4090 19.8049 0.9524
90.4290 19.7916 0.9529
90.4490 19.7782 0.9587
90.4690 19.7649 0.9547
90.4890 19.7515 0.9522
90.5090 19.7382 0.9586
90.5290 19.7249 0.9531
90.5490 19.7116 0.9496
90.5690 19.6982 0.9533
90.5890 19.6849 0.9557
90.6090 19.6716 0.9456
90.6290 19.6582 0.9488
90.6490 19.6449 0.9554
90.6690 19.6316 0.9432
90.6890 19.6183 0.9509
90.7090 19.6050 0.9520
90.7290 19.5916 0.9381
90.7490 19.5782 0.9578
90.7690 19.5649 0.9469
90.7890 19.5516 0.9367
90.8090 19.5382 0.9532
90.8290 19.5249 0.9393
90.8490 19.5115 0.9347
90.8690 19.4982 0.9567
90.8890 19.4849 0.9355
90.9090 19.4715 0.9350
90.9290 19.4582 0.9548
90.9490 19.4448 0.9293
90.9690 19.4315 0.9367
90.9890 19.4182 0.9536
91.0090 19.4049 0.9295
91.0290 19.3916 0.9343
91.0490 19.3783 0.9498
91.0690 19.3650 0.9243
91.0890 19.3516 0.9367
91.1090 19.3382 0.9501
91.1290 19.3249 0.9263
91.1490 19.3116 0.9333
91.1690 19.2982 0.9439
91.1890 19.2849 0.9238
91.2090 19.2715 0.9348
91.2290 19.2582 0.9391
91.2490 19.2449 0.9201
91.2690 19.2316 0.9303
91.2890 19.2182 0.9353
91.3090 19.2049 0.9258
91.3290 19.1916 0.9291
91.3490 19.1782 0.9314
91.3690 19.1649 0.9258
91.3890 19.1515 0.9268
91.4090 19.1382 0.9326
91.4290 19.1249 0.9203
91.4490 19.1116 0.9260
91.4690 19.0982 0.9278
91.4890 19.0849 0.9214
91.5090 19.0716 0.9246
91.5290 19.0583 0.9255
91.5490 19.0449 0.9204
91.5690 19.0315 0.9209
91.5890 19.0182 0.9242
91.6090 19.0049 0.9229
91.6290 18.9915 0.9196
91.6490 18.9782 0.9253
91.6690 18.9648 0.9181
91.6890 18.9515 0.9119
91.7090 18.9382 0.9260
91.7290 18.9249 0.9173
91.7490 18.9116 0.9137
91.7690 18.8983 0.9269
91.7890 18.8850 0.9081
91.8090 18.8716 0.9111
91.8290 18.8582 0.9224
91.8490 18.8449 0.9105
91.8690 18.8316 0.9149
91.8890 18.8183 0.9188
91.9090 18.8049 0.9071
91.9290 18.7915 0.9102
91.9490 18.7782 0.9202
91.9690 18.7649 0.9022
91.9890 18.7515 0.9130
92.0090 18.7382 0.9155
92.0290 18.7248 0.9019
92.0490 18.7115 0.9112
92.0690 18.6982 0.9137
92.0890 18.6849 0.9005
92.1090 18.6716 0.9076
92.1290 18.6583 0.9081
92.1490 18.6450 0.9000
92.1690 18.6316 0.9063
92.1890 18.6183 0.9052
92.2090 18.6049 0.9017
92.2290 18.5916 0.9050
92.2490 18.5783 0.9042
92.2690 18.5649 0.9021
92.2890 18.5515 0.9030
92.3090 18.5382 0.8989
92.3290 18.5249 0.9014
92.3490 18.5115 0.8997
92.3690 18.4982 0.8978
92.3890 18.4848 0.9018
92.4090 18.4715 0.8983
92.4290 18.4582 0.8959
92.4490 18.4449 0.9016
92.4690 18.4316 0.8964
92.4890 18.4182 0.8944
92.5090 18.4049 0.8971
92.5290 18.3916 0.8906
92.5490 18.3782 0.8963
92.5690 18.3649 0.8992
92.5890 18.3516 0.8876
92.6090 18.3383 0.8946
92.6290 18.3249 0.8933
92.6490 18.3115 0.8863
92.6690 18.2982 0.8957
92.6890 18.2849 0.8929
92.7090 18.2715 0.8834
92.7290 18.2582 0.8951
92.7490 18.2448 0.8855
92.7690 18.2315 0.8818
92.7890 18.2182 0.8942
92.8090 18.2049 0.8830
92.8290 18.1916 0.8813
92.8490 18.1782 0.8916
92.8690 18.1649 0.8787
92.8890 18.1516 0.8839
92.9090 18.1382 0.8890
92.9290 18.1249 0.8752
92.9490 18.1116 0.8853
92.9690 18.0983 0.8856
92.9890 18.0849 0.8737
93.0090 18.0716 0.8876
93.0290 18.0582 0.8815
93.0490 18.0449 0.8724
93.0690 18.0316 0.8819
93.0890 18.0182 0.8766
93.1090 18.0048 0.8749
93.1290 17.9915 0.8818
93.1490 17.9782 0.8729
93.1690 17.9649 0.8725
93.1890 17.9515 0.8791
93.2090 17.9382 0.8702
93.2290 17.9249 0.8757
93.2490 17.9116 0.8733
93.2690 17.8982 0.8661
93.2890 17.8849 0.8729
93.3090 17.8716 0.8695
93.3290 17.8583 0.8685
93.3490 17.8449 0.8754
93.3690 17.8315 0.8667
93.3890 17.8182 0.8702
93.4090 17.8049 0.8693
93.4290 17.7916 0.8626
93.4490 17.7782 0.8681
93.4690 17.7648 0.8711
93.4890 17.7515 0.8594
93.5090 17.7382 0.8677
93.5290 17.7249 0.8664
93.5490 17.7115 0.8628
93.5690 17.6982 0.8690
93.5890 17.6849 0.8621
93.6090 17.6716 0.8605
93.6290 17.6583 0.8682
93.6490 17.6449 0.8584
93.6690 17.6316 0.8640
93.6890 17.6183 0.8610
93.7090 17.6049 0.8557
93.7290 17.5916 0.8618
93.7490 17.5782 0.8586
93.7690 17.5649 0.8579
93.7890 17.5515 0.8575
93.8090 17.5382 0.8553
93.8290 17.5248 0.8563
93.8490 17.5115 0.8550
93.8690 17.4982 0.8515
93.8890 17.4849 0.8568
93.9090 17.4715 0.8587
93.9290 17.4582 0.8509
93.9490 17.4450 0.8500
93.9690 17.4316 0.8554
93.9890 17.4183 0.8512
94.0090 17.4049 0.8500
94.0290 17.3916 0.8545
94.0490 17.3783 0.8450
94.0690 17.3649 0.8457
94.0890 17.3515 0.8542
94.1090 17.3382 0.8466
94.1290 17.3249 0.8466
94.1490 17.3115 0.8495
94.1690 17.2982 0.8460
94.1890 17.2848 0.8447
94.2090 17.2715 0.8509
94.2290 17.2582 0.8405
94.2490 17.2449 0.8452
94.2690 17.2316 0.8487
94.2890 17.2183 0.8396
94.3090 17.2050 0.8397
94.3290 17.1916 0.8466
94.3490 17.1783 0.8390
94.3690 17.1649 0.8404
94.3890 17.1516 0.8406
94.4090 17.1382 0.8378
94.4290 17.1249 0.8414
94.4490 17.1115 0.8378
94.4690 17.0982 0.8370
94.4890 17.0849 0.8386
94.5090 17.0716 0.8382
94.5290 17.0582 0.8338
94.5490 17.0449 0.8355
94.5690 17.0315 0.8382
94.5890 17.0182 0.8323
94.6090 17.0049 0.8311
94.6290 16.9916 0.8366
94.6490 16.9782 0.8291
94.6690 16.9649 0.8342
94.6890 16.9516 0.8353
94.7090 16.9383 0.8270
94.7290 16.9249 0.8319
94.7490 16.9116 0.8344
94.7690 16.8983 0.8234
94.7890 16.8849 0.8288
94.8090 16.8715 0.8330
94.8290 16.8582 0.8230
94.8490 16.8449 0.8260
94.8690 16.8316 0.8278
94.8890 16.8182 0.8213
94.9090 16.8048 0.8258
94.9290 16.7915 0.8272
94.9490 16.7782 0.8203
94.9690 16.7649 0.8258
94.9890 16.7516 0.8278
95.0090 16.7382 0.8187
95.0290 16.7249 0.8219
95.0490 16.7116 0.8268
95.0690 16.6982 0.8179
95.0890 16.6849 0.8214
95.1090 16.6715 0.8251
95.1290 16.6582 0.8147
95.1490 16.6449 0.8169
95.1690 16.6315 0.8203
95.1890 16.6182 0.8156
95.2090 16.6049 0.8181
95.2290 16.5915 0.8199
95.2490 16.5782 0.8111
95.2690 16.5648 0.8174
95.2890 16.5515 0.8203
95.3090 16.5382 0.8105
95.3290 16.5249 0.8137
95.3490 16.5116 0.8180
95.3690 16.4982 0.8065
95.3890 16.4850 0.8141
95.4090 16.4716 0.8176
95.4290 16.4583 0.8036
95.4490 16.4449 0.8136
95.4690 16.4316 0.8147
95.4890 16.4183 0.8010
95.5090 16.4049 0.8093
95.5290 16.3916 0.8123
95.5490 16.3782 0.7999
95.5690 16.3649 0.8134
95.5890 16.3516 0.8081
95.6090 16.3382 0.7990
95.6290 16.3249 0.8137
95.6490 16.3115 0.8062
95.6690 16.2982 0.7987
95.6890 16.2849 0.8122
95.7090 16.2716 0.7985
95.7290 16.2582 0.8023
95.7490 16.2449 0.8083
95.7690 16.2316 0.7957
95.7890 16.2183 0.7970
95.8090 16.2049 0.8031
95.8290 16.1916 0.7980
95.8490 16.1783 0.8020
95.8690 16.1649 0.7995
95.8890 16.1516 0.7956
95.9090 16.1382 0.7981
95.9290 16.1248 0.7948
95.9490 16.1115 0.7946
95.9690 16.0982 0.7981
95.9890 16.0848 0.7945
96.0090 16.0715 0.7948
96.0290 16.0582 0.7944
96.0490 16.0449 0.7875
96.0690 16.0316 0.7965
96.0890 16.0182 0.7927
96.1090 16.0049 0.7855
96.1290 15.9916 0.7969
96.1490 15.9783 0.7879
96.1690 15.9649 0.7846
96.1890 15.9516 0.7991
96.2090 15.9382 0.7841
96.2290 15.9249 0.7833
96.2490 15.9115 0.7944
96.2690 15.8982 0.7849
96.2890 15.8849 0.7809
96.3090 15.8716 0.7902
96.3290 15.8582 0.7814
96.3490 15.8449 0.7789
96.3690 15.8315 0.7905
96.3890 15.8182 0.7807
96.4090 15.8049 0.7800
96.4290 15.7915 0.7864
96.4490 15.7782 0.7770
96.4690 15.7649 0.7796
96.4890 15.7516 0.7837
96.5090 15.7383 0.7754
96.5290 15.7249 0.7774
96.5490 15.7116 0.7849
96.5690 15.6982 0.7715
96.5890 15.6849 0.7786
96.6090 15.6715 0.7856
96.6290 15.6582 0.7709
96.6490 15.6449 0.7756
96.6690 15.6316 0.7788
96.6890 15.6182 0.7719
96.7090 15.6049 0.7756
96.7290 15.5915 0.7747
96.7490 15.5782 0.7693
96.7690 15.5649 0.7745
96.7890 15.5515 0.7699
96.8090 15.5382 0.7698
96.8290 15.5249 0.7760
96.8490 15.5116 0.7694
96.8690 15.4983 0.7669
96.8890 15.4849 0.7729
96.9090 15.4716 0.7688
96.9290 15.4583 0.7705
96.9490 15.4449 0.7672
96.9690 15.4316 0.7629
96.9890 15.4182 0.7664
97.0090 15.4049 0.7627
97.0290 15.3916 0.7642
97.0490 15.3782 0.7677
97.0690 15.3649 0.7607
97.0890 15.3515 0.7638
97.1090 15.3382 0.7638
97.1290 15.3249 0.7605
97.1490 15.3115 0.7617
97.1690 15.2982 0.7638
97.1890 15.2849 0.7574
97.2090 15.2716 0.7584
97.2290 15.2583 0.7637
97.2490 15.2449 0.7580
97.2690 15.2316 0.7573
97.2890 15.2183 0.7608
97.3090 15.2049 0.7582
97.3290 15.1916 0.7502
97.3490 15.1782 0.7552
97.3690 15.1649 0.7603
97.3890 15.1516 0.7469
97.4090 15.1382 0.7553
97.4290 15.1249 0.7590
97.4490 15.1115 0.7469
97.4690 15.0982 0.7546
97.4890 15.0849 0.7518
97.5090 15.0715 0.7450
97.5290 15.0582 0.7536
97.5490 15.0449 0.7505
97.5690 15.0316 0.7442
97.5890 15.0183 0.7534
97.6090 15.0049 0.7474
97.6290 14.9916 0.7442
97.6490 14.9782 0.7525
97.6690 14.9649 0.7450
97.6890 14.9515 0.7397
97.7090 14.9382 0.7519
97.7290 14.9248 0.7426
97.7490 14.9115 0.7389
97.7690 14.8982 0.7491
97.7890 14.8849 0.7393
97.8090 14.8715 0.7378
97.8290 14.8582 0.7470
97.8490 14.8449 0.7344
97.8690 14.8316 0.7376
97.8890 14.8182 0.7421
97.9090 14.8049 0.7398
97.9290 14.7916 0.7368
97.9490 14.7783 0.7397
97.9690 14.7649 0.7374
97.9890 14.7515 0.7394
98.0090 14.7382 0.7377
98.0290 14.7249 0.7333
98.0490 14.7116 0.7339
98.0690 14.6982 0.7350
98.0890 14.6849 0.7366
98.1090 14.6715 0.7301
98.1290 14.6582 0.7323
98.1490 14.6448 0.7393
98.1690 14.6315 0.7286
98.1890 14.6182 0.7290
98.2090 14.6049 0.7359
98.2290 14.5916 0.7260
98.2490 14.5782 0.7365
98.2690 14.5649 0.7344
98.2890 14.5516 0.7212
98.3090 14.5383 0.7344
98.3290 14.5249 0.7325
98.3490 14.5115 0.7190
98.3690 14.4982 0.7332
98.3890 14.4849 0.7274
98.4090 14.4715 0.7170
98.4290 14.4582 0.7342
98.4490 14.4449 0.7269
98.4690 14.4316 0.7200
98.4890 14.4183 0.7327
98.5090 14.4049 0.7188
98.5290 14.3915 0.7234
98.5490 14.3782 0.7304
98.5690 14.3649 0.7193
98.5890 14.3515 0.7212
98.6090 14.3382 0.7229
98.6290 14.3249 0.7185
98.6490 14.3116 0.7220
98.6690 14.2983 0.7244
98.6890 14.2849 0.7187
98.7090 14.2716 0.7180
98.7290 14.2583 0.7227
98.7490 14.2449 0.7132
98.7690 14.2316 0.7163
98.7890 14.2182 0.7161
98.8090 14.2049 0.7189
98.8290 14.1916 0.7137
98.8490 14.1782 0.7151
98.8690 14.1649 0.7162
98.8890 14.1515 0.7107
98.9090 14.1382 0.7154
98.9290 14.1249 0.7143
98.9490 14.1116 0.7068
98.9690 14.0982 0.7120
98.9890 14.0849 0.7130
99.0090 14.0716 0.7080
99.0290 14.0583 0.7104
99.0490 14.0449 0.7070
99.0690 14.0316 0.7042
99.0890 14.0183 0.7095
99.1090 14.0050 0.7068
99.1290 13.9916 0.7024
99.1490 13.9782 0.7059
99.1690 13.9648 0.7044
99.1890 13.9515 0.7008
99.2090 13.9382 0.7029
99.2290 13.9248 0.7045
99.2490 13.9115 0.6969
99.2690 13.8982 0.7039
99.2890 13.8849 0.7007
99.3090 13.8716 0.6944
99.3290 13.8582 0.7022
99.3490 13.8449 0.7008
99.3690 13.8316 0.6943
99.3890 13.8183 0.6968
99.4090 13.8049 0.6984
99.4290 13.7916 0.6962
99.4490 13.7782 0.6966
99.4690 13.7649 0.6999
99.4890 13.7516 0.6904
99.5090 13.7382 0.6932
99.5290 13.7248 0.7002
99.5490 13.7115 0.6888
99.5690 13.6982 0.6937
99.5890 13.6848 0.6971
99.6090 13.6715 0.6824
99.6290 13.6582 0.6919
99.6490 13.6449 0.6921
99.6690 13.6316 0.6832
99.6890 13.6182 0.6900
99.7090 13.6049 0.6893
99.7290 13.5916 0.6842
99.7490 13.5783 0.6877
99.7690 13.5649 0.6875
99.7890 13.5516 0.6814
99.8090 13.5383 0.6886
99.8290 13.5249 0.6816
99.8490 13.5116 0.6793
99.8690 13.4982 0.6861
99.8890 13.4848 0.6807
99.9090 13.4715 0.6787
99.9290 13.4582 0.6829
99.9490 13.4449 0.6788
99.9690 13.4315 0.6798
99.9890 13.4182 0.6818
100.0090 13.4049 0.6769
100.0290 13.3916 0.6768
100.0490 13.3782 0.6758
100.0690 13.3649 0.6796
100.0890 13.3516 0.6809
100.1090 13.3383 0.6708
100.1290 13.3249 0.6739
100.1490 13.3116 0.6778
100.1690 13.2982 0.6708
100.1890 13.2849 0.6741
100.2090 13.2716 0.6758
100.2290 13.2582 0.6630
100.2490 13.2449 0.6742
100.2690 13.2316 0.6717
100.2890 13.2182 0.6654
100.3090 13.2049 0.6730
100.3290 13.1915 0.6703
100.3490 13.1782 0.6656
100.3690 13.1649 0.6723
100.3890 13.1515 0.6621
100.4090 13.1382 0.6648
100.4290 13.1249 0.6718
100.4490 13.1116 0.6620
100.4690 13.0983 0.6641
100.4890 13.0849 0.6677
100.5090 13.0716 0.6600
100.5290 13.0582 0.6658
100.5490 13.0449 0.6618
100.5690 13.0316 0.6532
100.5890 13.0182 0.6653
100.6090 13.0049 0.6619
100.6290 12.9916 0.6543
100.6490 12.9783 0.6616
100.6690 12.9649 0.6574
100.6890 12.9515 0.6529
100.7090 12.9382 0.6624
100.7290 12.9249 0.6558
100.7490 12.9115 0.6518
100.7690 12.8982 0.6610
100.7890 12.8848 0.6530
100.8090 12.8715 0.6518
100.8290 12.8583 0.6583
100.8490 12.8449 0.6480
100.8690 12.8316 0.6537
100.8890 12.8183 0.6549
100.9090 12.8050 0.6490
100.9290 12.7916 0.6485
100.9490 12.7782 0.6543
100.9690 12.7649 0.6464
100.9890 12.7515 0.6503
101.0090 12.7382 0.6493
101.0290 12.7249 0.6439
101.0490 12.7115 0.6493
101.0690 12.6982 0.6486
101.0890 12.6849 0.6451
101.1090 12.6716 0.6462
101.1290 12.6582 0.6450
101.1490 12.6449 0.6444
101.1690 12.6316 0.6485
101.1890 12.6183 0.6438
101.2090 12.6050 0.6424
101.2290 12.5916 0.6429
101.2490 12.5782 0.6407
101.2690 12.5649 0.6417
101.2890 12.5516 0.6396
101.3090 12.5382 0.6385
101.3290 12.5248 0.6412
101.3490 12.5115 0.6392
101.3690 12.4982 0.6377
101.3890 12.4849 0.6364
101.4090 12.4715 0.6367
101.4290 12.4582 0.6379
101.4490 12.4449 0.6330
101.4690 12.4316 0.6351
101.4890 12.4182 0.6378
101.5090 12.4049 0.6335
101.5290 12.3916 0.6375
101.5490 12.3783 0.6322
101.5690 12.3649 0.6322
101.5890 12.3516 0.6303
101.6090 12.3382 0.6311
101.6290 12.3249 0.6275
101.6490 12.3116 0.6294
101.6690 12.2982 0.6293
101.6890 12.2848 0.6250
101.7090 12.2715 0.6286
101.7290 12.2582 0.6299
101.7490 12.2449 0.6235
101.7690 12.2316 0.6276
101.7890 12.2182 0.6254
101.8090 12.2049 0.6218
101.8290 12.1916 0.6291
101.8490 12.1782 0.6228
101.8690 12.1649 0.6224
101.8890 12.1516 0.6260
101.9090 12.1383 0.6190
101.9290 12.1249 0.6166
101.9490 12.1116 0.6257
101.9690 12.0982 0.6206
101.9890 12.0849 0.6141
102.0090 12.0716 0.6209
102.0290 12.0582 0.6178
102.0490 12.0449 0.6165
102.0690 12.0315 0.6219
102.0890 12.0182 0.6147
102.1090 12.0049 0.6077
102.1290 11.9915 0.6202
102.1490 11.9781 0.6123
102.1690 11.9648 0.6134
102.1890 11.9516 0.6176
102.2090 11.9383 0.6033
102.2290 11.9249 0.6146
102.2490 11.9116 0.6152
102.2690 11.8983 0.6052
102.2890 11.8849 0.6066
102.3090 11.8716 0.6129
102.3290 11.8582 0.6012
102.3490 11.8449 0.6104
102.3690 11.8316 0.6104
102.3890 11.8182 0.6044
102.4090 11.8049 0.6067
102.4290 11.7915 0.6082
102.4490 11.7782 0.5979
102.4690 11.7649 0.6036
102.4890 11.7515 0.6065
102.5090 11.7382 0.6023
102.5290 11.7248 0.6004
102.5490 11.7115 0.6035
102.5690 11.6982 0.6014
102.5890 11.6849 0.6044
102.6090 11.6716 0.6024
102.6290 11.6583 0.5946
102.6490 11.6450 0.5988
102.6690 11.6316 0.6048
102.6890 11.6182 0.5965
102.7090 11.6049 0.5942
102.7290 11.5916 0.6016
102.7490 11.5782 0.5879
102.7690 11.5649 0.5937
102.7890 11.5515 0.6016
102.8090 11.5382 0.5857
102.8290 11.5249 0.5890
102.8490 11.5115 0.5975
102.8690 11.4982 0.5899
102.8890 11.4849 0.5897
102.9090 11.4716 0.5992
102.9290 11.4582 0.5866
102.9490 11.4449 0.5907
102.9690 11.4316 0.5951
102.9890 11.4183 0.5800
103.0090 11.4050 0.5888
103.0290 11.3916 0.5941
103.0490 11.3783 0.5790
103.0690 11.3649 0.5852
103.0890 11.3516 0.5893
103.1090 11.3382 0.5753
103.1290 11.3249 0.5869
103.1490 11.3115 0.5877
103.1690 11.2982 0.5699
103.1890 11.2848 0.5825
103.2090 11.2715 0.5855
103.2290 11.2581 0.5744
103.2490 11.2448 0.5891
103.2690 11.2316 0.5786
103.2890 11.2183 0.5681
103.3090 11.2049 0.5836
103.3290 11.1916 0.5791
103.3490 11.1783 0.5714
103.3690 11.1650 0.5814
103.3890 11.1516 0.5795
103.4090 11.1382 0.5665
103.4290 11.1249 0.5780
103.4490 11.1116 0.5743
103.4690 11.0982 0.5646
103.4890 11.0849 0.5763
103.5090 11.0715 0.5706
103.5290 11.0582 0.5680
103.5490 11.0449 0.5748
103.5690 11.0316 0.5702
103.5890 11.0182 0.5646
103.6090 11.0049 0.5721
103.6290 10.9916 0.5713
103.6490 10.9782 0.5639
103.6690 10.9649 0.5700
103.6890 10.9516 0.5699
103.7090 10.9383 0.5616
103.7290 10.9249 0.5634
103.7490 10.9116 0.5723
103.7690 10.8982 0.5582
103.7890 10.8849 0.5615
103.8090 10.8716 0.5709
103.8290 10.8583 0.5531
103.8490 10.8449 0.5608
103.8690 10.8315 0.5679
103.8890 10.8182 0.5521
103.9090 10.8049 0.5642
103.9290 10.7915 0.5605
103.9490 10.7782 0.5575
103.9690 10.7649 0.5594
103.9890 10.7516 0.5631
104.0090 10.7382 0.5525
104.0290 10.7249 0.5573
104.0490 10.7115 0.5599
104.0690 10.6982 0.5508
104.0890 10.6849 0.5602
104.1090 10.6716 0.5537
104.1290 10.6582 0.5538
104.1490 10.6449 0.5564
104.1690 10.6316 0.5461
104.1890 10.6183 0.5531
104.2090 10.6049 0.5527
104.2290 10.5915 0.5472
104.2490 10.5782 0.5503
104.2690 10.5649 0.5501
104.2890 10.5515 0.5460
104.3090 10.5382 0.5476
104.3290 10.5249 0.5512
104.3490 10.5115 0.5424
104.3690 10.4982 0.5418
104.3890 10.4849 0.5484
104.4090 10.4715 0.5418
104.4290 10.4583 0.5435
104.4490 10.4449 0.5440
104.4690 10.4316 0.5409
104.4890 10.4182 0.5446
104.5090 10.4049 0.5415
104.5290 10.3916 0.5384
104.5490 10.3783 0.5381
104.5690 10.3649 0.5415
104.5890 10.3515 0.5343
104.6090 10.3382 0.5370
104.6290 10.3249 0.5397
104.6490 10.3115 0.5298
104.6690 10.2982 0.5341
104.6890 10.2848 0.5375
104.7090 10.2715 0.5288
104.7290 10.2582 0.5324
104.7490 10.2448 0.5378
104.7690 10.2315 0.5265
104.7890 10.2183 0.5332
104.8090 10.2050 0.5335
104.8290 10.1916 0.5201
104.8490 10.1782 0.5353
104.8690 10.1649 0.5307
104.8890 10.1516 0.5192
104.9090 10.1382 0.5289
104.9290 10.1249 0.5246
104.9490 10.1115 0.5188
104.9690 10.0982 0.5333
104.9890 10.0849 0.5210
105.0090 10.0716 0.5111
105.0290 10.0582 0.5340
105.0490 10.0449 0.5132
105.0690 10.0316 0.5133
105.0890 10.0182 0.5342
105.1090 10.0049 0.5110
105.1290 9.9916 0.5144
105.1490 9.9783 0.5280
105.1690 9.9649 0.5090
105.1890 9.9516 0.5206
105.2090 9.9382 0.5199
105.2290 9.9249 0.5099
105.2490 9.9116 0.5164
105.2690 9.8982 0.5174
105.2890 9.8849 0.5067
105.3090 9.8715 0.5186
105.3290 9.8582 0.5131
105.3490 9.8449 0.5039
105.3690 9.8315 0.5116
105.3890 9.8182 0.5118
105.4090 9.8049 0.5080
105.4290 9.7916 0.5075
105.4490 9.7783 0.5090
105.4690 9.7649 0.5050
105.4890 9.7516 0.5013
105.5090 9.7383 0.5119
105.5290 9.7250 0.5025
105.5490 9.7117 0.4989
105.5690 9.6982 0.5078
105.5890 9.6849 0.5007
105.6090 9.6715 0.5000
105.6290 9.6582 0.5042
105.6490 9.6448 0.4951
105.6690 9.6315 0.4965
105.6890 9.6182 0.5005
105.7090 9.6049 0.4952
105.7290 9.5916 0.4969
105.7490 9.5782 0.4973
105.7690 9.5649 0.4926
105.7890 9.5515 0.4979
105.8090 9.5382 0.4966
105.8290 9.5249 0.4902
105.8490 9.5115 0.4984
105.8690 9.4982 0.4914
105.8890 9.4849 0.4887
105.9090 9.4716 0.4922
105.9290 9.4583 0.4899
105.9490 9.4449 0.4904
105.9690 9.4316 0.4862
105.9890 9.4183 0.4850
106.0090 9.4049 0.4910
106.0290 9.3915 0.4850
106.0490 9.3782 0.4839
106.0690 9.3648 0.4920
106.0890 9.3515 0.4818
106.1090 9.3382 0.4819
106.1290 9.3248 0.4917
106.1490 9.3115 0.4775
106.1690 9.2982 0.4776
106.1890 9.2849 0.4892
106.2090 9.2715 0.4731
106.2290 9.2582 0.4750
106.2490 9.2449 0.4858
106.2690 9.2316 0.4696
106.2890 9.2182 0.4765
106.3090 9.2049 0.4843
106.3290 9.1916 0.4683
106.3490 9.1783 0.4721
106.3690 9.1649 0.4799
106.3890 9.1515 0.4692
106.4090 9.1382 0.4712
106.4290 9.1249 0.4781
106.4490 9.1115 0.4648
106.4690 9.0982 0.4688
106.4890 9.0848 0.4775
106.5090 9.0715 0.4629
106.5290 9.0582 0.4683
106.5490 9.0449 0.4705
106.5690 9.0316 0.4585
106.5890 9.0183 0.4657
106.6090 9.0050 0.4678
106.6290 8.9916 0.4597
106.6490 8.9783 0.4637
106.6690 8.9649 0.4682
106.6890 8.9516 0.4623
106.7090 8.9383 0.4621
106.7290 8.9249 0.4647
106.7490 8.9115 0.4536
106.7690 8.8982 0.4606
106.7890 8.8849 0.4628
106.8090 8.8716 0.4513
106.8290 8.8582 0.4595
106.8490 8.8448 0.4655
106.8690 8.8315 0.4472
106.8890 8.8182 0.4546
106.9090 8.8049 0.4652
106.9290 8.7915 0.4402
106.9490 8.7782 0.4591
106.9690 8.7649 0.4579
106.9890 8.7516 0.4384
107.0090 8.7382 0.4574
107.0290 8.7249 0.4566
107.0490 8.7116 0.4356
107.0690 8.6983 0.4526
107.0890 8.6849 0.4494
107.1090 8.6715 0.4382
107.1290 8.6582 0.4573
107.1490 8.6449 0.4453
107.1690 8.6315 0.4338
107.1890 8.6182 0.4511
107.2090 8.6048 0.4438
107.2290 8.5915 0.4376
107.2490 8.5782 0.4461
107.2690 8.5649 0.4417
107.2890 8.5515 0.4387
107.3090 8.5382 0.4385
107.3290 8.5249 0.4436
107.3490 8.5116 0.4348
107.3690 8.4982 0.4401
107.3890 8.4849 0.4426
107.4090 8.4716 0.4295
107.4290 8.4583 0.4370
107.4490 8.4449 0.4384
107.4690 8.4316 0.4295
107.4890 8.4182 0.4380
107.5090 8.4049 0.4354
107.5290 8.3916 0.4254
107.5490 8.3782 0.4322
107.5690 8.3648 0.4369
107.5890 8.3515 0.4268
107.6090 8.3382 0.4305
107.6290 8.3249 0.4335
107.6490 8.3115 0.4247
107.6690 8.2982 0.4319
107.6890 8.2849 0.4316
107.7090 8.2716 0.4216
107.7290 8.2582 0.4310
107.7490 8.2449 0.4305
107.7690 8.2316 0.4237
107.7890 8.2182 0.4221
107.8090 8.2049 0.4280
107.8290 8.1915 0.4172
107.8490 8.1782 0.4252
107.8690 8.1649 0.4247
107.8890 8.1516 0.4116
107.9090 8.1382 0.4215
107.9290 8.1248 0.4206
107.9490 8.1115 0.4153
107.9690 8.0982 0.4202
107.9890 8.0849 0.4183
108.0090 8.0715 0.4140
108.0290 8.0582 0.4142
108.0490 8.0449 0.4207
108.0690 8.0316 0.4148
108.0890 8.0183 0.4091
108.1090 8.0049 0.4155
108.1290 7.9916 0.4108
108.1490 7.9783 0.4103
108.1690 7.9649 0.4126
108.1890 7.9516 0.4065
108.2090 7.9382 0.4124
108.2290 7.9249 0.4088
108.2490 7.9115 0.4005
108.2690 7.8982 0.4099
108.2890 7.8848 0.4103
108.3090 7.8715 0.3962
108.3290 7.8582 0.4068
108.3490 7.8449 0.4069
108.3690 7.8316 0.3953
108.3890 7.8182 0.4080
108.4090 7.8050 0.4027
108.4290 7.7916 0.3934
108.4490 7.7783 0.4022
108.4690 7.7649 0.4003
108.4890 7.7516 0.3886
108.5090 7.7382 0.4010
108.5290 7.7249 0.3960
108.5490 7.7115 0.3910
108.5690 7.6982 0.4008
108.5890 7.6849 0.3930
108.6090 7.6716 0.3848
108.6290 7.6582 0.3978
108.6490 7.6448 0.3893
108.6690 7.6315 0.3854
108.6890 7.6182 0.3937
108.7090 7.6049 0.3867
108.7290 7.5916 0.3850
108.7490 7.5782 0.3940
108.7690 7.5649 0.3869
108.7890 7.5516 0.3822
108.8090 7.5383 0.3886
108.8290 7.5249 0.3823
108.8490 7.5115 0.3851
108.8690 7.4982 0.3876
108.8890 7.4849 0.3735
108.9090 7.4715 0.3850
108.9290 7.4582 0.3845
108.9490 7.4449 0.3747
108.9690 7.4316 0.3830
108.9890 7.4182 0.3760
109.0090 7.4049 0.3759
109.0290 7.3916 0.3794
109.0490 7.3782 0.3746
109.0690 7.3649 0.3698
109.0890 7.3516 0.3806
109.1090 7.3382 0.3744
109.1290 7.3249 0.3683
109.1490 7.3116 0.3782
109.1690 7.2983 0.3700
109.1890 7.2849 0.3719
109.2090 7.2716 0.3752
109.2290 7.2582 0.3702
109.2490 7.2449 0.3656
109.2690 7.2315 0.3691
109.2890 7.2182 0.3695
109.3090 7.2049 0.3659
109.3290 7.1916 0.3671
109.3490 7.1782 0.3656
109.3690 7.1649 0.3664
109.3890 7.1515 0.3685
109.4090 7.1382 0.3636
109.4290 7.1249 0.3579
109.4490 7.1116 0.3683
109.4690 7.0982 0.3593
109.4890 7.0849 0.3609
109.5090 7.0716 0.3613
109.5290 7.0583 0.3598
109.5490 7.0449 0.3546
109.5690 7.0315 0.3637
109.5890 7.0182 0.3577
109.6090 7.0049 0.3482
109.6290 6.9915 0.3617
109.6490 6.9782 0.3565
109.6690 6.9649 0.3470
109.6890 6.9516 0.3567
109.7090 6.9382 0.3504
109.7290 6.9248 0.3468
109.7490 6.9115 0.3567
109.7690 6.8982 0.3504
109.7890 6.8849 0.3430
109.8090 6.8716 0.3534
109.8290 6.8582 0.3458
109.8490 6.8449 0.3408
109.8690 6.8316 0.3521
109.8890 6.8183 0.3403
109.9090 6.8049 0.3412
109.9290 6.7916 0.3524
109.9490 6.7783 0.3379
109.9690 6.7649 0.3329
109.9890 6.7515 0.3452
110.0090 6.7382 0.3363
110.0290 6.7248 0.3343
110.0490 6.7115 0.3441
110.0690 6.6982 0.3363
110.0890 6.6848 0.3313
110.1090 6.6715 0.3431
110.1290 6.6582 0.3303
110.1490 6.6449 0.3273
110.1690 6.6316 0.3367
110.1890 6.6182 0.3320
110.2090 6.6049 0.3252
110.2290 6.5916 0.3359
110.2490 6.5783 0.3277
110.2690 6.5649 0.3242
110.2890 6.5516 0.3327
110.3090 6.5383 0.3277
110.3290 6.5250 0.3220
110.3490 6.5116 0.3287
110.3690 6.4982 0.3243
110.3890 6.4848 0.3224
110.4090 6.4715 0.3239
110.4290 6.4582 0.3230
110.4490 6.4448 0.3180
110.4690 6.4315 0.3223
110.4890 6.4182 0.3218
110.5090 6.4049 0.3132
110.5290 6.3916 0.3227
110.5490 6.3782 0.3201
110.5690 6.3649 0.3079
110.5890 6.3516 0.3185
110.6090 6.3383 0.3188
110.6290 6.3249 0.3050
110.6490 6.3116 0.3161
110.6690 6.2982 0.3177
110.6890 6.2849 0.3022
110.7090 6.2716 0.3115
110.7290 6.2582 0.3175
110.7490 6.2449 0.2982
110.7690 6.2316 0.3120
110.7890 6.2182 0.3107
110.8090 6.2049 0.2975
110.8290 6.1915 0.3089
110.8490 6.1782 0.3116
110.8690 6.1649 0.2947
110.8890 6.1516 0.3101
110.9090 6.1382 0.3101
110.9290 6.1249 0.2927
110.9490 6.1116 0.3058
110.9690 6.0983 0.3015
110.9890 6.0849 0.2867
111.0090 6.0715 0.3078
111.0290 6.0582 0.2980
111.0490 6.0449 0.2840
111.0690 6.0315 0.3064
111.0890 6.0182 0.2909
111.1090 6.0048 0.2845
111.1290 5.9916 0.3025
111.1490 5.9782 0.2873
111.1690 5.9649 0.2791
111.1890 5.9515 0.3024
111.2090 5.9382 0.2871
111.2290 5.9249 0.2783
111.2490 5.9115 0.2962
111.2690 5.8982 0.2844
111.2890 5.8849 0.2800
111.3090 5.8716 0.2938
111.3290 5.8583 0.2795
111.3490 5.8449 0.2805
111.3690 5.8316 0.2885
111.3890 5.8183 0.2806
111.4090 5.8050 0.2769
111.4290 5.7916 0.2819
111.4490 5.7782 0.2782
111.4690 5.7649 0.2780
111.4890 5.7515 0.2796
111.5090 5.7382 0.2767
111.5290 5.7249 0.2719
111.5490 5.7115 0.2759
111.5690 5.6982 0.2767
111.5890 5.6849 0.2655
111.6090 5.6716 0.2740
111.6290 5.6582 0.2752
111.6490 5.6449 0.2624
111.6690 5.6316 0.2751
111.6890 5.6183 0.2701
111.7090 5.6049 0.2610
111.7290 5.5916 0.2674
111.7490 5.5783 0.2654
111.7690 5.5649 0.2526
111.7890 5.5516 0.2673
111.8090 5.5382 0.2636
111.8290 5.5249 0.2525
111.8490 5.5116 0.2654
111.8690 5.4982 0.2589
111.8890 5.4849 0.2517
111.9090 5.4715 0.2645
111.9290 5.4582 0.2537
111.9490 5.4449 0.2511
111.9690 5.4315 0.2556
111.9890 5.4182 0.2500
112.0090 5.4049 0.2533
112.0290 5.3916 0.2531
112.0490 5.3783 0.2472
112.0690 5.3649 0.2487
112.0890 5.3515 0.2510
112.1090 5.3382 0.2432
112.1290 5.3249 0.2482
112.1490 5.3116 0.2443
112.1690 5.2982 0.2416
112.1890 5.2848 0.2471
112.2090 5.2715 0.2431
112.2290 5.2582 0.2391
112.2490 5.2449 0.2435
112.2690 5.2315 0.2391
112.2890 5.2182 0.2361
112.3090 5.2049 0.2377
112.3290 5.1916 0.2386
112.3490 5.1782 0.2337
112.3690 5.1649 0.2351
112.3890 5.1516 0.2330
112.4090 5.1383 0.2298
112.4290 5.1249 0.2321
112.4490 5.1116 0.2372
112.4690 5.0983 0.2281
112.4890 5.0849 0.2295
112.5090 5.0716 0.2248
112.5290 5.0582 0.2270
112.5490 5.0448 0.2265
112.5690 5.0315 0.2236
112.5890 5.0182 0.2295
112.6090 5.0048 0.2198
112.6290 4.9915 0.2190
112.6490 4.9782 0.2264
112.6690 4.9649 0.2161
112.6890 4.9516 0.2160
112.7090 4.9382 0.2230
112.7290 4.9249 0.2152
112.7490 4.9116 0.2133
112.7690 4.8983 0.2186
112.7890 4.8849 0.2101
112.8090 4.8715 0.2116
112.8290 4.8582 0.2187
112.8490 4.8449 0.2046
112.8690 4.8316 0.2106
112.8890 4.8182 0.2127
112.9090 4.8049 0.2028
112.9290 4.7915 0.2054
112.9490 4.7782 0.2083
112.9690 4.7649 0.2042
112.9890 4.7516 0.2060
113.0090 4.7382 0.2055
113.0290 4.7249 0.2024
113.0490 4.7116 0.1958
113.0690 4.6982 0.2023
113.0890 4.6849 0.2014
113.1090 4.6716 0.1980
113.1290 4.6582 0.1953
113.1490 4.6449 0.1945
113.1690 4.6316 0.1919
113.1890 4.6182 0.1999
113.2090 4.6049 0.1936
113.2290 4.5916 0.1854
113.2490 4.5782 0.1926
113.2690 4.5649 0.1902
113.2890 4.5515 0.1864
113.3090 4.5382 0.1894
113.3290 4.5249 0.1887
113.3490 4.5115 0.1885
113.3690 4.4982 0.1865
113.3890 4.4849 0.1851
113.4090 4.4716 0.1825
113.4290 4.4582 0.1817
113.4490 4.4449 0.1844
113.4690 4.4316 0.1795
113.4890 4.4183 0.1822
113.5090 4.4049 0.1794
113.5290 4.3916 0.1768
113.5490 4.3782 0.1757
113.5690 4.3649 0.1702
113.5890 4.3516 0.1720
113.6090 4.3382 0.1767
113.6290 4.3248 0.1728
113.6490 4.3115 0.1703
113.6690 4.2982 0.1681
113.6890 4.2849 0.1725
113.7090 4.2715 0.1703
113.7290 4.2582 0.1668
113.7490 4.2449 0.1666
113.7690 4.2315 0.1684
113.7890 4.2182 0.1610
113.8090 4.2049 0.1658
113.8290 4.1916 0.1665
113.8490 4.1783 0.1575
113.8690 4.1650 0.1610
113.8890 4.1516 0.1614
113.9090 4.1382 0.1538
113.9290 4.1249 0.1567
113.9490 4.1116 0.1545
113.9690 4.0982 0.1528
113.9890 4.0849 0.1538
114.0090 4.0715 0.1546
114.0290 4.0582 0.1463
114.0490 4.0449 0.1529
114.0690 4.0315 0.1533
114.0890 4.0182 0.1465
114.1090 4.0049 0.1483
114.1290 3.9915 0.1469
114.1490 3.9782 0.1440
114.1690 3.9649 0.1475
114.1890 3.9516 0.1425
114.2090 3.9383 0.1426
114.2290 3.9249 0.1417
114.2490 3.9116 0.1424
114.2690 3.8983 0.1360
114.2890 3.8850 0.1369
114.3090 3.8716 0.1417
114.3290 3.8582 0.1304
114.3490 3.8449 0.1376
114.3690 3.8315 0.1320
114.3890 3.8182 0.1280
114.4090 3.8049 0.1330
114.4290 3.7915 0.1306
114.4490 3.7782 0.1280
114.4690 3.7649 0.1306
114.4890 3.7516 0.1271
114.5090 3.7382 0.1207
114.5290 3.7249 0.1299
114.5490 3.7116 0.1263
114.5690 3.6983 0.1176
114.5890 3.6849 0.1307
114.6090 3.6716 0.1235
114.6290 3.6582 0.1182
114.6490 3.6449 0.1227
114.6690 3.6316 0.1158
114.6890 3.6183 0.1130
114.7090 3.6049 0.1221
114.7290 3.5915 0.1132
114.7490 3.5782 0.1116
114.7690 3.5649 0.1166
114.7890 3.5515 0.1087
114.8090 3.5382 0.1075
114.8290 3.5249 0.1140
114.8490 3.5115 0.1083
114.8690 3.4982 0.1089
114.8890 3.4849 0.1125
114.9090 3.4716 0.1020
114.9290 3.4583 0.1034
114.9490 3.4450 0.1102
114.9690 3.4316 0.0952
114.9890 3.4182 0.0996
115.0090 3.4049 0.1098
115.0290 3.3916 0.0924
115.0490 3.3782 0.0946
115.0690 3.3649 0.1030
115.0890 3.3516 0.0944
115.1090 3.3383 0.0888
115.1290 3.3249 0.1025
115.1490 3.3115 0.0894
115.1690 3.2982 0.0858
115.1890 3.2848 0.0969
115.2090 3.2715 0.0839
115.2290 3.2582 0.0852
115.2490 3.2449 0.0944
115.2690 3.2316 0.0835
115.2890 3.2183 0.0826
115.3090 3.2049 0.0853
115.3290 3.1916 0.0821
115.3490 3.1782 0.0769
115.3690 3.1650 0.0860
115.3890 3.1516 0.0795
115.4090 3.1383 0.0754
115.4290 3.1249 0.0795
115.4490 3.1115 0.0730
115.4690 3.0982 0.0713
115.4890 3.0849 0.0800
115.5090 3.0715 0.0730
115.5290 3.0581 0.0670
115.5490 3.0448 0.0775
115.5690 3.0316 0.0685
115.5890 3.0182 0.0625
115.6090 3.0049 0.0711
115.6290 2.9916 0.0644
115.6490 2.9783 0.0607
115.6690 2.9650 0.0669
115.6890 2.9516 0.0602
115.7090 2.9382 0.0598
115.7290 2.9249 0.0703
115.7490 2.9116 0.0548
115.7690 2.8982 0.0563
115.7890 2.8848 0.0638
115.8090 2.8715 0.0542
115.8290 2.8582 0.0554
115.8490 2.8449 0.0542
115.8690 2.8315 0.0500
115.8890 2.8182 0.0528
115.9090 2.8049 0.0546
115.9290 2.7916 0.0518
115.9490 2.7782 0.0496
115.9690 2.7649 0.0470
115.9890 2.7516 0.0484
116.0090 2.7383 0.0482
116.0290 2.7250 0.0436
116.0490 2.7116 0.0400
116.0690 2.6982 0.0434
116.0890 2.6849 0.0392
116.1090 2.6716 0.0392
116.1290 2.6582 0.0365
116.1490 2.6448 0.0358
116.1690 2.6315 0.0381
116.1890 2.6182 0.0310
116.2090 2.6049 0.0293
116.2290 2.5915 0.0392
116.2490 2.5782 0.0235
116.2690 2.5649 0.0240
116.2890 2.5516 0.0322
116.3090 2.5383 0.0197
116.3290 2.5249 0.0255
116.3490 2.5116 0.0279
116.3690 2.4983 0.0168
116.3890 2.4850 0.0162
116.4090 2.4716 0.0244
116.4290 2.4582 0.0139
116.4490 2.4449 0.0132
116.4690 2.4316 0.0166
116.4890 2.4182 0.0108
116.5090 2.4049 0.0106
116.5290 2.3915 0.0115
116.5490 2.3782 0.0088
116.5690 2.3649 0.0071
116.5890 2.3515 0.0115
116.6090 2.3382 0.0074
116.6290 2.3248 0.0025
116.6490 2.3115 0.0110
116.6690 2.2982 0.0044
116.6890 2.2849 -0.0011
116.7090 2.2716 0.0048
116.7290 2.2583 0.0034
116.7490 2.2449 -0.0049
116.7690 2.2316 0.0045
116.7890 2.2182 -0.0009
116.8090 2.2049 -0.0101
116.8290 2.1916 0.0013
116.8490 2.1782 0.0021
116.8690 2.1649 -0.0097
116.8890 2.1515 -0.0008
116.9090 2.1382 -0.0029
116.9290 2.1249 -0.0114
116.9490 2.1115 -0.0029
116.9690 2.0981 -0.0035
116.9890 2.0848 -0.0081
117.0090 2.0715 -0.0023
117.0290 2.0582 -0.0064
117.0490 2.0449 -0.0050
117.0690 2.0316 -0.0073
117.0890 2.0183 -0.0052
117.1090 2.0050 -0.0100
117.1290 1.9916 -0.0087
117.1490 1.9783 -0.0071
117.1690 1.9649 -0.0122
117.1890 1.9516 -0.0071
117.2090 1.9382 -0.0110
117.2290 1.9249 -0.0140
117.2490 1.9115 -0.0086
117.2690 1.8982 -0.0123
117.2890 1.8849 -0.0174
117.3090 1.8715 -0.0072
117.3290 1.8582 -0.0121
117.3490 1.8448 -0.0197
117.3690 1.8315 -0.0079
117.3890 1.8182 -0.0129
117.4090 1.8049 -0.0165
117.4290 1.7915 -0.0062
117.4490 1.7783 -0.0173
117.4690 1.7650 -0.0153
117.4890 1.7516 -0.0053
117.5090 1.7383 -0.0163
117.5290 1.7249 -0.0152
117.5490 1.7116 -0.0043
117.5690 1.6983 -0.0191
117.5890 1.6849 -0.0138
117.6090 1.6715 -0.0084
117.6290 1.6581 -0.0172
117.6490 1.6448 -0.0159
117.6690 1.6315 -0.0103
117.6890 1.6182 -0.0171
117.7090 1.6048 -0.0132
117.7290 1.5916 -0.0078
117.7490 1.5782 -0.0142
117.7690 1.5649 -0.0147
117.7890 1.5516 -0.0065
117.8090 1.5383 -0.0149
117.8290 1.5250 -0.0166
117.8490 1.5116 -0.0100
117.8690 1.4982 -0.0115
117.8890 1.4849 -0.0183
117.9090 1.4716 -0.0141
117.9290 1.4582 -0.0106
117.9490 1.4449 -0.0159
117.9690 1.4315 -0.0161
117.9890 1.4182 -0.0067
118.0090 1.4049 -0.0210
118.0290 1.3915 -0.0140
118.0490 1.3782 -0.0084
118.0690 1.3649 -0.0216
118.0890 1.3516 -0.0087
118.1090 1.3382 -0.0110
118.1290 1.3249 -0.0228
118.1490 1.3115 -0.0106
118.1690 1.2983 -0.0070
118.1890 1.2849 -0.0238
118.2090 1.2716 -0.0105
118.2290 1.2582 -0.0075
118.2490 1.2449 -0.0252
118.2690 1.2316 -0.0099
118.2890 1.2183 -0.0104
118.3090 1.2049 -0.0214
118.3290 1.1915 -0.0064
118.3490 1.1782 -0.0156
118.3690 1.1649 -0.0195
118.3890 1.1516 -0.0114
118.4090 1.1382 -0.0132
118.4290 1.1249 -0.0183
118.4490 1.1116 -0.0141
118.4690 1.0982 -0.0189
118.4890 1.0849 -0.0174
118.5090 1.0715 -0.0086
118.5290 1.0582 -0.0162
118.5490 1.0449 -0.0157
118.5690 1.0316 -0.0180
118.5890 1.0182 -0.0111
118.6090 1.0049 -0.0155
118.6290 0.9916 -0.0174
118.6490 0.9783 -0.0092
118.6690 0.9649 -0.0193
118.6890 0.9516 -0.0174
118.7090 0.9383 -0.0104
118.7290 0.9249 -0.0192
118.7490 0.9116 -0.0231
118.7690 0.8982 -0.0036
118.7890 0.8848 -0.0197
118.8090 0.8715 -0.0221
118.8290 0.8582 -0.0020
118.8490 0.8449 -0.0243
118.8690 0.8315 -0.0152
118.8890 0.8182 -0.0056
118.9090 0.8049 -0.0263
118.9290 0.7916 -0.0156
118.9490 0.7782 -0.0084
118.9690 0.7649 -0.0273
118.9890 0.7516 -0.0155
119.0090 0.7383 -0.0129
119.0290 0.7249 -0.0258
119.0490 0.7115 -0.0129
119.0690 0.6982 -0.0062
119.0890 0.6849 -0.0291
119.1090 0.6716 -0.0125
119.1290 0.6582 -0.0112
119.1490 0.6448 -0.0253
119.1690 0.6315 -0.0136
119.1890 0.6182 -0.0147
119.2090 0.6049 -0.0197
119.2290 0.5915 -0.0101
119.2490 0.5782 -0.0146
119.2690 0.5650 -0.0155
119.2890 0.5516 -0.0166
119.3090 0.5382 -0.0149
119.3290 0.5249 -0.0155
119.3490 0.5116 -0.0152
119.3690 0.4982 -0.0192
119.3890 0.4849 -0.0151
119.4090 0.4715 -0.0173
119.4290 0.4582 -0.0184
119.4490 0.4449 -0.0127
119.4690 0.4316 -0.0198
119.4890 0.4182 -0.0152
119.5090 0.4049 -0.0132
119.5290 0.3916 -0.0215
119.5490 0.3782 -0.0122
119.5690 0.3649 -0.0145
119.5890 0.3515 -0.0190
119.6090 0.3382 -0.0136
119.6290 0.3249 -0.0186
119.6490 0.3116 -0.0195
119.6690 0.2982 -0.0123
119.6890 0.2849 -0.0167
119.7090 0.2716 -0.0172
119.7290 0.2583 -0.0112
119.7490 0.2449 -0.0166
119.7690 0.2315 -0.0182
119.7890 0.2182 -0.0158
119.8090 0.2049 -0.0170
119.8290 0.1915 -0.0173
119.8490 0.1782 -0.0170
119.8690 0.1649 -0.0133
119.8890 0.1516 -0.0174
119.9090 0.1383 -0.0210
119.9290 0.1249 -0.0128
119.9490 0.1116 -0.0122
119.9690 0.0983 -0.0210
119.9890 0.0850 -0.0134
120.0090 0.0716 -0.0171
120.0290 0.0582 -0.0211
120.0490 0.0449 -0.0132
120.0690 0.0316 -0.0206
120.0890 0.0182 -0.0212
120.1090 0.0049 -0.0082
120.1170 -0.0003 0.0078
