Raw Data
Time Displacement Force
(s) (mm) (N)
0.0000 0.0000 0.0061
0.0200 0.0001 0.0213
0.0400 0.0021 0.0743
0.0600 0.0097 0.0825
0.0800 0.0217 -0.0042
0.1000 0.0342 -0.0111
0.1200 0.0469 0.0381
0.1400 0.0602 0.0057
0.1600 0.0742 -0.0015
0.1800 0.0884 0.0218
0.2000 0.1023 -0.0076
0.2200 0.1159 -0.0049
0.2400 0.1292 0.0245
0.2600 0.1424 -0.0079
0.2800 0.1558 0.0103
0.3000 0.1691 0.0209
0.3200 0.1825 -0.0068
0.3400 0.1959 0.0157
0.3600 0.2092 0.0138
0.3800 0.2226 -0.0027
0.4000 0.2360 0.0125
0.4200 0.2493 0.0118
0.4400 0.2626 0.0024
0.4600 0.2759 0.0156
0.4800 0.2893 0.0146
0.5000 0.3026 0.0039
0.5200 0.3159 0.0138
0.5400 0.3292 0.0141
0.5600 0.3426 0.0077
0.5800 0.3559 0.0095
0.6000 0.3693 0.0094
0.6200 0.3826 0.0126
0.6400 0.3959 0.0147
0.6600 0.4092 0.0058
0.6800 0.4226 0.0129
0.7000 0.4359 0.0142
0.7200 0.4492 0.0097
0.7400 0.4626 0.0142
0.7600 0.4760 0.0077
0.7800 0.4893 0.0094
0.8000 0.5026 0.0148
0.8200 0.5160 0.0152
0.8400 0.5294 0.0118
0.8600 0.5427 0.0138
0.8800 0.5560 0.0149
0.9000 0.5693 0.0135
0.9200 0.5826 0.0180
0.9400 0.5959 0.0113
0.9600 0.6092 0.0120
0.9800 0.6225 0.0155
1.0000 0.6358 0.0152
1.0200 0.6492 0.0125
1.0400 0.6626 0.0112
1.0600 0.6759 0.0177
1.0800 0.6893 0.0130
1.1000 0.7027 0.0132
1.1200 0.7160 0.0127
1.1400 0.7293 0.0134
1.1600 0.7426 0.0181
1.1800 0.7560 0.0191
1.2000 0.7694 0.0103
1.2200 0.7827 0.0193
1.2400 0.7960 0.0227
1.2600 0.8093 0.0109
1.2800 0.8226 0.0223
1.3000 0.8360 0.0190
1.3200 0.8493 0.0109
1.3400 0.8626 0.0234
1.3600 0.8759 0.0205
1.3800 0.8892 0.0093
1.4000 0.9026 0.0239
1.4200 0.9159 0.0222
1.4400 0.9292 0.0094
1.4600 0.9426 0.0226
1.4800 0.9560 0.0185
1.5000 0.9693 0.0126
1.5200 0.9827 0.0239
1.5400 0.9960 0.0157
1.5600 1.0093 0.0164
1.5800 1.0226 0.0242
1.6000 1.0359 0.0185
1.6200 1.0492 0.0184
1.6400 1.0625 0.0228
1.6600 1.0759 0.0153
1.6800 1.0892 0.0163
1.7000 1.1026 0.0242
1.7200 1.1159 0.0210
1.7400 1.1293 0.0169
1.7600 1.1427 0.0230
1.7800 1.1560 0.0181
1.8000 1.1693 0.0215
1.8200 1.1826 0.0199
1.8400 1.1960 0.0206
1.8600 1.2093 0.0197
1.8800 1.2226 0.0219
1.9000 1.2359 0.0203
1.9200 1.2493 0.0249
1.9400 1.2627 0.0228
1.9600 1.2760 0.0178
1.9800 1.2893 0.0273
2.0000 1.3026 0.0246
2.0200 1.3160 0.0178
2.0400 1.3293 0.0225
2.0600 1.3426 0.0262
2.0800 1.3559 0.0209
2.1000 1.3692 0.0220
2.1200 1.3826 0.0258
2.1400 1.3959 0.0204
2.1600 1.4092 0.0271
2.1800 1.4226 0.0239
2.2000 1.4360 0.0156
2.2200 1.4493 0.0271
2.2400 1.4626 0.0227
2.2600 1.4760 0.0194
2.2800 1.4893 0.0278
2.3000 1.5027 0.0246
2.3200 1.5160 0.0195
2.3400 1.5293 0.0276
2.3600 1.5426 0.0248
2.3800 1.5560 0.0206
2.4000 1.5693 0.0226
2.4200 1.5826 0.0246
2.4400 1.5959 0.0252
2.4600 1.6092 0.0266
2.4800 1.6226 0.0219
2.5000 1.6359 0.0240
2.5200 1.6493 0.0252
2.5400 1.6626 0.0239
2.5600 1.6760 0.0181
2.5800 1.6893 0.0315
2.6000 1.7027 0.0316
2.6200 1.7160 0.0163
2.6400 1.7293 0.0287
2.6600 1.7427 0.0271
2.6800 1.7560 0.0182
2.7000 1.7693 0.0278
2.7200 1.7826 0.0244
2.7400 1.7959 0.0188
2.7600 1.8093 0.0310
2.7800 1.8226 0.0271
2.8000 1.8359 0.0190
2.8200 1.8493 0.0301
2.8400 1.8626 0.0232
2.8600 1.8759 0.0232
2.8800 1.8892 0.0351
2.9000 1.9026 0.0243
2.9200 1.9160 0.0228
2.9400 1.9293 0.0332
2.9600 1.9427 0.0260
2.9800 1.9560 0.0300
3.0000 1.9693 0.0366
3.0200 1.9827 0.0179
3.0400 1.9960 0.0318
3.0600 2.0093 0.0372
3.0800 2.0226 0.0199
3.1000 2.0360 0.0333
3.1200 2.0493 0.0338
3.1400 2.0626 0.0223
3.1600 2.0759 0.0397
3.1800 2.0892 0.0334
3.2000 2.1026 0.0243
3.2200 2.1159 0.0449
3.2400 2.1292 0.0355
3.2600 2.1426 0.0267
3.2800 2.1560 0.0527
3.3000 2.1693 0.0333
3.3200 2.1827 0.0324
3.3400 2.1960 0.0503
3.3600 2.2093 0.0383
3.3800 2.2227 0.0368
3.4000 2.2360 0.0442
3.4200 2.2493 0.0487
3.4400 2.2626 0.0422
3.4600 2.2760 0.0501
3.4800 2.2893 0.0527
3.5000 2.3026 0.0454
3.5200 2.3159 0.0501
3.5400 2.3292 0.0507
3.5600 2.3426 0.0463
3.5800 2.3559 0.0516
3.6000 2.3692 0.0609
3.6200 2.3826 0.0531
3.6400 2.3960 0.0533
3.6600 2.4094 0.0628
3.6800 2.4227 0.0584
3.7000 2.4360 0.0571
3.7200 2.4493 0.0707
3.7400 2.4627 0.0597
3.7600 2.4760 0.0568
3.7800 2.4893 0.0747
3.8000 2.5026 0.0606
3.8200 2.5159 0.0621
3.8400 2.5293 0.0777
3.8600 2.5426 0.0619
3.8800 2.5559 0.0667
3.9000 2.5692 0.0826
3.9200 2.5826 0.0621
3.9400 2.5959 0.0734
3.9600 2.6092 0.0874
3.9800 2.6226 0.0662
4.0000 2.6360 0.0751
4.0200 2.6493 0.0908
4.0400 2.6626 0.0663
4.0600 2.6759 0.0807
4.0800 2.6893 0.0895
4.1000 2.7027 0.0705
4.1200 2.7160 0.0806
4.1400 2.7293 0.0898
4.1600 2.7426 0.0716
4.1800 2.7560 0.0949
4.2000 2.7693 0.0933
4.2200 2.7826 0.0755
4.2400 2.7959 0.0968
4.2600 2.8092 0.0983
4.2800 2.8225 0.0829
4.3000 2.8359 0.0948
4.3200 2.8492 0.0972
4.3400 2.8626 0.0875
4.3600 2.8760 0.0999
4.3800 2.8894 0.0991
4.4000 2.9027 0.0918
4.4200 2.9160 0.1038
4.4400 2.9293 0.1007
4.4600 2.9427 0.0977
4.4800 2.9560 0.1052
4.5000 2.9693 0.1023
4.5200 2.9826 0.1001
4.5400 2.9959 0.1108
4.5600 3.0093 0.1065
4.5800 3.0226 0.0985
4.6000 3.0359 0.1151
4.6200 3.0492 0.1097
4.6400 3.0626 0.1022
4.6600 3.0759 0.1109
4.6800 3.0892 0.1104
4.7000 3.1026 0.1107
4.7200 3.1160 0.1154
4.7400 3.1294 0.1171
4.7600 3.1427 0.1093
4.7800 3.1560 0.1195
4.8000 3.1693 0.1237
4.8200 3.1827 0.1112
4.8400 3.1960 0.1244
4.8600 3.2093 0.1230
4.8800 3.2226 0.1161
4.9000 3.2359 0.1184
4.9200 3.2493 0.1292
4.9400 3.2626 0.1259
4.9600 3.2759 0.1213
4.9800 3.2892 0.1340
5.0000 3.3026 0.1169
5.0200 3.3159 0.1225
5.0400 3.3293 0.1385
5.0600 3.3426 0.1230
5.0800 3.3560 0.1314
5.1000 3.3693 0.1355
5.1200 3.3827 0.1226
5.1400 3.3960 0.1366
5.1600 3.4093 0.1421
5.1800 3.4227 0.1213
5.2000 3.4360 0.1385
5.2200 3.4493 0.1407
5.2400 3.4626 0.1291
5.2600 3.4760 0.1459
5.2800 3.4893 0.1412
5.3000 3.5026 0.1346
5.3200 3.5159 0.1456
5.3400 3.5292 0.1425
5.3600 3.5426 0.1390
5.3800 3.5559 0.1484
5.4000 3.5693 0.1400
5.4200 3.5826 0.1430
5.4400 3.5960 0.1521
5.4600 3.6093 0.1455
5.4800 3.6227 0.1449
5.5000 3.6360 0.1551
5.5200 3.6493 0.1457
5.5400 3.6627 0.1462
5.5600 3.6760 0.1569
5.5800 3.6893 0.1552
5.6000 3.7026 0.1492
5.6200 3.7159 0.1573
5.6400 3.7293 0.1518
5.6600 3.7426 0.1475
5.6800 3.7559 0.1591
5.7000 3.7692 0.1578
5.7200 3.7826 0.1500
5.7400 3.7959 0.1652
5.7600 3.8092 0.1593
5.7800 3.8226 0.1598
5.8000 3.8359 0.1666
5.8200 3.8493 0.1573
5.8400 3.8627 0.1601
5.8600 3.8760 0.1665
5.8800 3.8893 0.1583
5.9000 3.9027 0.1615
5.9200 3.9160 0.1694
5.9400 3.9293 0.1596
5.9600 3.9426 0.1642
5.9800 3.9559 0.1766
6.0000 3.9693 0.1607
6.0200 3.9826 0.1670
6.0400 3.9959 0.1812
6.0600 4.0092 0.1630
6.0800 4.0226 0.1712
6.1000 4.0359 0.1775
6.1200 4.0492 0.1674
6.1400 4.0626 0.1765
6.1600 4.0760 0.1774
6.1800 4.0893 0.1663
6.2000 4.1027 0.1764
6.2200 4.1160 0.1841
6.2400 4.1293 0.1749
6.2600 4.1426 0.1795
6.2800 4.1560 0.1829
6.3000 4.1693 0.1770
6.3200 4.1826 0.1819
6.3400 4.1960 0.1806
6.3600 4.2093 0.1792
6.3800 4.2226 0.1818
6.4000 4.2359 0.1849
6.4200 4.2492 0.1860
6.4400 4.2625 0.1850
6.4600 4.2759 0.1853
6.4800 4.2892 0.1818
6.5000 4.3026 0.1875
6.5200 4.3160 0.1903
6.5400 4.3294 0.1833
6.5600 4.3427 0.1900
6.5800 4.3560 0.1909
6.6000 4.3693 0.1895
6.6200 4.3827 0.1897
6.6400 4.3960 0.1888
6.6600 4.4093 0.1977
6.6800 4.4226 0.1954
6.7000 4.4359 0.1908
6.7200 4.4493 0.1933
6.7400 4.4626 0.1963
6.7600 4.4759 0.1936
6.7800 4.4892 0.1963
6.8000 4.5026 0.1946
6.8200 4.5159 0.1961
6.8400 4.5293 0.2048
6.8600 4.5426 0.1909
6.8800 4.5560 0.1968
6.9000 4.5693 0.2062
6.9200 4.5827 0.1920
6.9400 4.5959 0.2025
6.9600 4.6093 0.2057
6.9800 4.6226 0.1958
7.0000 4.6360 0.2059
7.0200 4.6493 0.2057
7.0400 4.6626 0.2003
7.0600 4.6759 0.2165
7.0800 4.6893 0.2000
7.1000 4.7026 0.2008
7.1200 4.7159 0.2165
7.1400 4.7292 0.2009
7.1600 4.7426 0.2065
7.1800 4.7560 0.2140
7.2000 4.7693 0.2010
7.2200 4.7826 0.2120
7.2400 4.7960 0.2164
7.2600 4.8093 0.2008
7.2800 4.8227 0.2125
7.3000 4.8360 0.2194
7.3200 4.8493 0.2022
7.3400 4.8626 0.2193
7.3600 4.8760 0.2190
7.3800 4.8893 0.2041
7.4000 4.9026 0.2249
7.4200 4.9159 0.2164
7.4400 4.9293 0.2079
7.4600 4.9426 0.2228
7.4800 4.9559 0.2160
7.5000 4.9692 0.2131
7.5200 4.9826 0.2283
7.5400 4.9959 0.2165
7.5600 5.0093 0.2144
7.5800 5.0226 0.2253
7.6000 5.0360 0.2214
7.6200 5.0493 0.2129
7.6400 5.0627 0.2293
7.6600 5.0760 0.2233
7.6800 5.0893 0.2222
7.7000 5.1027 0.2279
7.7200 5.1160 0.2245
7.7400 5.1293 0.2199
7.7600 5.1426 0.2315
7.7800 5.1559 0.2282
7.8000 5.1693 0.2208
7.8200 5.1826 0.2310
7.8400 5.1959 0.2319
7.8600 5.2093 0.2238
7.8800 5.2226 0.2307
7.9000 5.2359 0.2283
7.9200 5.2493 0.2261
7.9400 5.2626 0.2357
7.9600 5.2759 0.2322
7.9800 5.2893 0.2266
8.0000 5.3027 0.2374
8.0200 5.3160 0.2303
8.0400 5.3293 0.2309
8.0600 5.3427 0.2400
8.0800 5.3560 0.2310
8.1000 5.3693 0.2342
8.1200 5.3826 0.2421
8.1400 5.3959 0.2345
8.1600 5.4093 0.2316
8.1800 5.4226 0.2438
8.2000 5.4359 0.2388
8.2200 5.4492 0.2341
8.2400 5.4625 0.2454
8.2600 5.4759 0.2352
8.2800 5.4893 0.2370
8.3000 5.5026 0.2462
8.3200 5.5160 0.2359
8.3400 5.5294 0.2435
8.3600 5.5427 0.2435
8.3800 5.5560 0.2351
8.4000 5.5693 0.2459
8.4200 5.5827 0.2442
8.4400 5.5960 0.2384
8.4600 5.6093 0.2487
8.4800 5.6226 0.2461
8.5000 5.6359 0.2402
8.5200 5.6493 0.2504
8.5400 5.6626 0.2453
8.5600 5.6759 0.2416
8.5800 5.6892 0.2556
8.6000 5.7026 0.2453
8.6200 5.7159 0.2475
8.6400 5.7292 0.2528
8.6600 5.7426 0.2452
8.6800 5.7559 0.2536
8.7000 5.7693 0.2481
8.7200 5.7827 0.2456
8.7400 5.7960 0.2591
8.7600 5.8093 0.2486
8.7800 5.8227 0.2495
8.8000 5.8360 0.2555
8.8200 5.8493 0.2533
8.8400 5.8626 0.2553
8.8600 5.8759 0.2575
8.8800 5.8892 0.2511
8.9000 5.9026 0.2570
8.9200 5.9159 0.2573
8.9400 5.9292 0.2540
8.9600 5.9426 0.2667
8.9800 5.9560 0.2561
9.0000 5.9693 0.2577
9.0200 5.9826 0.2615
9.0400 5.9960 0.2534
9.0600 6.0093 0.2607
9.0800 6.0227 0.2612
9.1000 6.0360 0.2568
9.1200 6.0493 0.2622
9.1400 6.0626 0.2662
9.1600 6.0760 0.2573
9.1800 6.0893 0.2634
9.2000 6.1026 0.2674
9.2200 6.1160 0.2600
9.2400 6.1293 0.2665
9.2600 6.1427 0.2615
9.2800 6.1560 0.2678
9.3000 6.1693 0.2705
9.3200 6.1826 0.2599
9.3400 6.1959 0.2673
9.3600 6.2093 0.2699
9.3800 6.2226 0.2625
9.4000 6.2359 0.2715
9.4200 6.2493 0.2667
9.4400 6.2626 0.2645
9.4600 6.2760 0.2739
9.4800 6.2893 0.2665
9.5000 6.3026 0.2697
9.5200 6.3160 0.2770
9.5400 6.3293 0.2656
9.5600 6.3426 0.2743
9.5800 6.3560 0.2777
9.6000 6.3693 0.2653
9.6200 6.3826 0.2764
9.6400 6.3959 0.2771
9.6600 6.4092 0.2660
9.6800 6.4226 0.2784
9.7000 6.4359 0.2747
9.7200 6.4493 0.2718
9.7400 6.4626 0.2805
9.7600 6.4759 0.2741
9.7800 6.4893 0.2739
9.8000 6.5027 0.2819
9.8200 6.5160 0.2749
9.8400 6.5293 0.2740
9.8600 6.5427 0.2844
9.8800 6.5560 0.2726
9.9000 6.5693 0.2801
9.9200 6.5826 0.2811
9.9400 6.5959 0.2760
9.9600 6.6093 0.2829
9.9800 6.6226 0.2814
10.0000 6.6359 0.2737
10.0200 6.6492 0.2877
10.0400 6.6626 0.2848
10.0600 6.6759 0.2799
10.0800 6.6893 0.2809
10.1000 6.7026 0.2830
10.1200 6.7159 0.2816
10.1400 6.7293 0.2829
10.1600 6.7427 0.2822
10.1800 6.7560 0.2859
10.2000 6.7693 0.2863
10.2200 6.7827 0.2866
10.2400 6.7960 0.2899
10.2600 6.8094 0.2821
10.2800 6.8227 0.2898
10.3000 6.8360 0.2938
10.3200 6.8493 0.2817
10.3400 6.8626 0.2935
10.3600 6.8759 0.2928
10.3800 6.8892 0.2831
10.4000 6.9026 0.2953
10.4200 6.9159 0.2889
10.4400 6.9292 0.2868
10.4600 6.9426 0.2955
10.4800 6.9559 0.2927
10.5000 6.9693 0.2900
10.5200 6.9827 0.2964
10.5400 6.9960 0.2917
10.5600 7.0093 0.2876
10.5800 7.0226 0.3060
10.6000 7.0360 0.2930
10.6200 7.0493 0.2876
10.6400 7.0626 0.3060
10.6600 7.0760 0.2907
10.6800 7.0893 0.2944
10.7000 7.1026 0.3039
10.7200 7.1160 0.2929
10.7400 7.1293 0.2987
10.7600 7.1426 0.3039
10.7800 7.1559 0.2933
10.8000 7.1693 0.2987
10.8200 7.1826 0.3056
10.8400 7.1959 0.2962
10.8600 7.2093 0.3045
10.8800 7.2227 0.3052
10.9000 7.2360 0.2943
10.9200 7.2493 0.3066
10.9400 7.2626 0.3036
10.9600 7.2760 0.2963
10.9800 7.2893 0.3038
11.0000 7.3026 0.3051
11.0200 7.3159 0.3004
11.0400 7.3293 0.3103
11.0600 7.3426 0.3019
11.0800 7.3559 0.2999
11.1000 7.3692 0.3143
11.1200 7.3826 0.3052
11.1400 7.3959 0.3025
11.1600 7.4093 0.3166
11.1800 7.4226 0.3032
11.2000 7.4359 0.3043
11.2200 7.4493 0.3126
11.2400 7.4626 0.3052
11.2600 7.4759 0.3053
11.2800 7.4892 0.3170
11.3000 7.5026 0.3078
11.3200 7.5160 0.3073
11.3400 7.5293 0.3189
11.3600 7.5426 0.3069
11.3800 7.5560 0.3118
11.4000 7.5693 0.3195
11.4200 7.5827 0.3063
11.4400 7.5960 0.3123
11.4600 7.6093 0.3221
11.4800 7.6226 0.3105
11.5000 7.6359 0.3128
11.5200 7.6492 0.3235
11.5400 7.6626 0.3142
11.5600 7.6759 0.3143
11.5800 7.6893 0.3246
11.6000 7.7027 0.3058
11.6200 7.7160 0.3146
11.6400 7.7294 0.3301
11.6600 7.7427 0.3152
11.6800 7.7560 0.3133
11.7000 7.7694 0.3293
11.7200 7.7827 0.3129
11.7400 7.7960 0.3175
11.7600 7.8093 0.3317
11.7800 7.8226 0.3138
11.8000 7.8359 0.3188
11.8200 7.8492 0.3294
11.8400 7.8625 0.3122
11.8600 7.8759 0.3223
11.8800 7.8893 0.3295
11.9000 7.9026 0.3148
11.9200 7.9159 0.3252
11.9400 7.9293 0.3248
11.9600 7.9427 0.3212
11.9800 7.9560 0.3283
12.0000 7.9693 0.3259
12.0200 7.9827 0.3206
12.0400 7.9960 0.3275
12.0600 8.0094 0.3289
12.0800 8.0226 0.3201
12.1000 8.0359 0.3281
12.1200 8.0492 0.3324
12.1400 8.0626 0.3234
12.1600 8.0759 0.3265
12.1800 8.0892 0.3324
12.2000 8.1025 0.3306
12.2200 8.1159 0.3253
12.2400 8.1293 0.3348
12.2600 8.1426 0.3298
12.2800 8.1559 0.3287
12.3000 8.1693 0.3367
12.3200 8.1827 0.3311
12.3400 8.1960 0.3263
12.3600 8.2093 0.3379
12.3800 8.2226 0.3307
12.4000 8.2360 0.3288
12.4200 8.2493 0.3412
12.4400 8.2626 0.3333
12.4600 8.2760 0.3289
12.4800 8.2893 0.3387
12.5000 8.3026 0.3328
12.5200 8.3160 0.3319
12.5400 8.3292 0.3439
12.5600 8.3425 0.3319
12.5800 8.3559 0.3337
12.6000 8.3693 0.3430
12.6200 8.3826 0.3316
12.6400 8.3959 0.3431
12.6600 8.4093 0.3433
12.6800 8.4226 0.3302
12.7000 8.4360 0.3384
12.7200 8.4493 0.3421
12.7400 8.4627 0.3358
12.7600 8.4760 0.3420
12.7800 8.4894 0.3415
12.8000 8.5026 0.3323
12.8200 8.5159 0.3443
12.8400 8.5292 0.3405
12.8600 8.5426 0.3413
12.8800 8.5559 0.3427
12.9000 8.5693 0.3396
12.9200 8.5826 0.3434
12.9400 8.5959 0.3431
12.9600 8.6093 0.3460
12.9800 8.6226 0.3451
13.0000 8.6359 0.3422
13.0200 8.6493 0.3485
13.0400 8.6626 0.3405
13.0600 8.6760 0.3461
13.0800 8.6893 0.3458
13.1000 8.7026 0.3453
13.1200 8.7159 0.3445
13.1400 8.7293 0.3477
13.1600 8.7427 0.3454
13.1800 8.7560 0.3441
13.2000 8.7693 0.3511
13.2200 8.7826 0.3428
13.2400 8.7959 0.3500
13.2600 8.8093 0.3556
13.2800 8.8226 0.3425
13.3000 8.8359 0.3512
13.3200 8.8493 0.3470
13.3400 8.8626 0.3459
13.3600 8.8759 0.3564
13.3800 8.8893 0.3505
13.4000 8.9026 0.3494
13.4200 8.9160 0.3531
13.4400 8.9293 0.3530
13.4600 8.9426 0.3519
13.4800 8.9560 0.3596
13.5000 8.9693 0.3469
13.5200 8.9827 0.3530
13.5400 8.9960 0.3619
13.5600 9.0093 0.3474
13.5800 9.0226 0.3557
13.6000 9.0360 0.3590
13.6200 9.0492 0.3493
13.6400 9.0625 0.3596
13.6600 9.0759 0.3584
13.6800 9.0892 0.3522
13.7000 9.1026 0.3592
13.7200 9.1159 0.3555
13.7400 9.1293 0.3534
13.7600 9.1427 0.3638
13.7800 9.1560 0.3545
13.8000 9.1694 0.3542
13.8200 9.1827 0.3601
13.8400 9.1960 0.3569
13.8600 9.2094 0.3625
13.8800 9.2227 0.3616
13.9000 9.2359 0.3537
13.9200 9.2492 0.3652
13.9400 9.2626 0.3593
13.9600 9.2759 0.3532
13.9800 9.2892 0.3664
14.0000 9.3026 0.3589
14.0200 9.3159 0.3578
14.0400 9.3293 0.3671
14.0600 9.3426 0.3585
14.0800 9.3559 0.3663
14.1000 9.3693 0.3656
14.1200 9.3827 0.3594
14.1400 9.3960 0.3638
14.1600 9.4093 0.3643
14.1800 9.4226 0.3563
14.2000 9.4360 0.3701
14.2200 9.4493 0.3603
14.2400 9.4626 0.3590
14.2600 9.4759 0.3775
14.2800 9.4893 0.3612
14.3000 9.5026 0.3582
14.3200 9.5159 0.3787
14.3400 9.5292 0.3597
14.3600 9.5426 0.3594
14.3800 9.5559 0.3859
14.4000 9.5693 0.3566
14.4200 9.5826 0.3596
14.4400 9.5960 0.3852
14.4600 9.6093 0.3581
14.4800 9.6227 0.3620
14.5000 9.6360 0.3850
14.5200 9.6493 0.3556
14.5400 9.6626 0.3703
14.5600 9.6760 0.3789
14.5800 9.6893 0.3539
14.6000 9.7027 0.3733
14.6200 9.7160 0.3837
14.6400 9.7293 0.3551
14.6600 9.7426 0.3763
14.6800 9.7560 0.3800
14.7000 9.7693 0.3558
14.7200 9.7826 0.3814
14.7400 9.7959 0.3782
14.7600 9.8093 0.3593
14.7800 9.8226 0.3803
14.8000 9.8359 0.3735
14.8200 9.8493 0.3640
14.8400 9.8626 0.3862
14.8600 9.8760 0.3741
14.8800 9.8893 0.3621
14.9000 9.9027 0.3843
14.9200 9.9160 0.3701
14.9400 9.9293 0.3701
14.9600 9.9426 0.3860
14.9800 9.9559 0.3719
15.0000 9.9693 0.3719
15.0200 9.9826 0.3834
15.0400 9.9960 0.3726
15.0600 10.0093 0.3767
15.0800 10.0226 0.3825
15.1000 10.0359 0.3708
15.1200 10.0493 0.3784
15.1400 10.0626 0.3810
15.1600 10.0759 0.3754
15.1800 10.0893 0.3802
15.2000 10.1026 0.3805
15.2200 10.1160 0.3752
15.2400 10.1293 0.3808
15.2600 10.1426 0.3803
15.2800 10.1560 0.3797
15.3000 10.1693 0.3811
15.3200 10.1827 0.3844
15.3400 10.1960 0.3802
15.3600 10.2093 0.3844
15.3800 10.2226 0.3815
15.4000 10.2360 0.3812
15.4200 10.2493 0.3801
15.4400 10.2626 0.3872
15.4600 10.2759 0.3818
15.4800 10.2892 0.3786
15.5000 10.3026 0.3884
15.5200 10.3159 0.3824
15.5400 10.3293 0.3794
15.5600 10.3427 0.3902
15.5800 10.3560 0.3823
15.6000 10.3694 0.3792
15.6200 10.3827 0.3905
15.6400 10.3960 0.3834
15.6600 10.4093 0.3863
15.6800 10.4227 0.3867
15.7000 10.4360 0.3849
15.7200 10.4493 0.3880
15.7400 10.4626 0.3870
15.7600 10.4760 0.3852
15.7800 10.4893 0.3873
15.8000 10.5026 0.3898
15.8200 10.5159 0.3865
15.8400 10.5292 0.3906
15.8600 10.5426 0.3898
15.8800 10.5559 0.3878
15.9000 10.5693 0.3940
15.9200 10.5826 0.3890
15.9400 10.5960 0.3880
15.9600 10.6094 0.3906
15.9800 10.6227 0.3896
16.0000 10.6360 0.3892
16.0200 10.6493 0.3923
16.0400 10.6627 0.3935
16.0600 10.6760 0.3904
16.0800 10.6892 0.3939
16.1000 10.7026 0.3943
16.1200 10.7159 0.3930
16.1400 10.7292 0.4025
16.1600 10.7425 0.3877
16.1800 10.7559 0.3954
16.2000 10.7693 0.3976
16.2200 10.7827 0.3897
16.2400 10.7960 0.3962
16.2600 10.8093 0.3968
16.2800 10.8226 0.3935
16.3000 10.8360 0.3944
16.3200 10.8493 0.4001
16.3400 10.8626 0.3897
16.3600 10.8759 0.3980
16.3800 10.8893 0.4019
16.4000 10.9027 0.3917
16.4200 10.9160 0.4005
16.4400 10.9293 0.3994
16.4600 10.9426 0.3949
16.4800 10.9560 0.3986
16.5000 10.9693 0.3973
16.5200 10.9826 0.3973
16.5400 10.9959 0.3990
16.5600 11.0092 0.3994
16.5800 11.0226 0.3953
16.6000 11.0359 0.4023
16.6200 11.0492 0.3957
16.6400 11.0626 0.3988
16.6600 11.0759 0.4057
16.6800 11.0893 0.3995
16.7000 11.1026 0.4025
16.7200 11.1160 0.4053
16.7400 11.1293 0.3988
16.7600 11.1427 0.4035
16.7800 11.1560 0.4042
16.8000 11.1693 0.4009
16.8200 11.1826 0.4012
16.8400 11.1960 0.4041
16.8600 11.2093 0.3992
16.8800 11.2226 0.4051
16.9000 11.2359 0.4070
16.9200 11.2492 0.4013
16.9400 11.2626 0.4050
16.9600 11.2759 0.4029
16.9800 11.2892 0.4047
17.0000 11.3026 0.4076
17.0200 11.3160 0.4028
17.0400 11.3294 0.4080
17.0600 11.3427 0.4010
17.0800 11.3560 0.4060
17.1000 11.3693 0.4094
17.1200 11.3827 0.4019
17.1400 11.3960 0.4083
17.1600 11.4093 0.4092
17.1800 11.4226 0.4037
17.2000 11.4360 0.4086
17.2200 11.4493 0.4084
17.2400 11.4626 0.4067
17.2600 11.4759 0.4124
17.2800 11.4892 0.4074
17.3000 11.5026 0.4052
17.3200 11.5160 0.4126
17.3400 11.5293 0.4089
17.3600 11.5426 0.4090
17.3800 11.5560 0.4128
17.4000 11.5693 0.4091
17.4200 11.5827 0.4087
17.4400 11.5960 0.4074
17.4600 11.6093 0.4117
17.4800 11.6227 0.4066
17.5000 11.6360 0.4091
17.5200 11.6493 0.4096
17.5400 11.6626 0.4087
17.5600 11.6760 0.4118
17.5800 11.6893 0.4125
17.6000 11.7026 0.4083
17.6200 11.7159 0.4155
17.6400 11.7292 0.4153
17.6600 11.7426 0.4089
17.6800 11.7559 0.4132
17.7000 11.7692 0.4155
17.7200 11.7826 0.4118
17.7400 11.7960 0.4109
17.7600 11.8094 0.4170
17.7800 11.8227 0.4130
17.8000 11.8360 0.4103
17.8200 11.8493 0.4183
17.8400 11.8627 0.4133
17.8600 11.8760 0.4148
17.8800 11.8893 0.4179
17.9000 11.9026 0.4163
17.9200 11.9159 0.4110
17.9400 11.9293 0.4190
17.9600 11.9426 0.4185
17.9800 11.9559 0.4079
18.0000 11.9692 0.4199
18.0200 11.9826 0.4182
18.0400 11.9959 0.4061
18.0600 12.0092 0.4229
18.0800 12.0226 0.4198
18.1000 12.0360 0.4086
18.1200 12.0494 0.4175
18.1400 12.0627 0.4204
18.1600 12.0760 0.4096
18.1800 12.0893 0.4242
18.2000 12.1027 0.4230
18.2200 12.1160 0.4063
18.2400 12.1293 0.4277
18.2600 12.1426 0.4199
18.2800 12.1559 0.4104
18.3000 12.1693 0.4274
18.3200 12.1826 0.4188
18.3400 12.1959 0.4130
18.3600 12.2092 0.4276
18.3800 12.2226 0.4218
18.4000 12.2359 0.4150
18.4200 12.2493 0.4278
18.4400 12.2626 0.4181
18.4600 12.2760 0.4205
18.4800 12.2893 0.4292
18.5000 12.3026 0.4175
18.5200 12.3159 0.4266
18.5400 12.3293 0.4227
18.5600 12.3426 0.4213
18.5800 12.3560 0.4241
18.6000 12.3693 0.4245
18.6200 12.3826 0.4249
18.6400 12.3960 0.4248
18.6600 12.4093 0.4235
18.6800 12.4226 0.4271
18.7000 12.4359 0.4295
18.7200 12.4492 0.4252
18.7400 12.4626 0.4235
18.7600 12.4759 0.4298
18.7800 12.4892 0.4229
18.8000 12.5026 0.4254
18.8200 12.5160 0.4289
18.8400 12.5294 0.4191
18.8600 12.5427 0.4291
18.8800 12.5560 0.4264
18.9000 12.5693 0.4287
18.9200 12.5827 0.4310
18.9400 12.5960 0.4244
18.9600 12.6093 0.4290
18.9800 12.6226 0.4335
19.0000 12.6359 0.4277
19.0200 12.6493 0.4273
19.0400 12.6626 0.4374
19.0600 12.6759 0.4316
19.0800 12.6892 0.4292
19.1000 12.7026 0.4359
19.1200 12.7159 0.4245
19.1400 12.7292 0.4344
19.1600 12.7426 0.4338
19.1800 12.7560 0.4266
19.2000 12.7694 0.4323
19.2200 12.7827 0.4346
19.2400 12.7960 0.4295
19.2600 12.8093 0.4355
19.2800 12.8227 0.4342
19.3000 12.8360 0.4299
19.3200 12.8493 0.4410
19.3400 12.8626 0.4334
19.3600 12.8759 0.4315
19.3800 12.8893 0.4404
19.4000 12.9026 0.4301
19.4200 12.9159 0.4380
19.4400 12.9292 0.4377
19.4600 12.9426 0.4326
19.4800 12.9559 0.4366
19.5000 12.9693 0.4353
19.5200 12.9826 0.4383
19.5400 12.9960 0.4379
19.5600 13.0093 0.4376
19.5800 13.0227 0.4394
19.6000 13.0360 0.4382
19.6200 13.0493 0.4400
19.6400 13.0627 0.4381
19.6600 13.0760 0.4395
19.6800 13.0893 0.4374
19.7000 13.1026 0.4395
19.7200 13.1160 0.4436
19.7400 13.1293 0.4332
19.7600 13.1426 0.4401
19.7800 13.1559 0.4434
19.8000 13.1692 0.4392
19.8200 13.1826 0.4446
19.8400 13.1959 0.4498
19.8600 13.2092 0.4361
19.8800 13.2226 0.4462
19.9000 13.2360 0.4427
19.9200 13.2493 0.4363
19.9400 13.2627 0.4486
19.9600 13.2760 0.4404
19.9800 13.2893 0.4400
20.0000 13.3027 0.4519
20.0200 13.3160 0.4378
20.0400 13.3293 0.4434
20.0600 13.3426 0.4529
20.0800 13.3559 0.4382
20.1000 13.3693 0.4433
20.1200 13.3826 0.4534
20.1400 13.3959 0.4378
20.1600 13.4092 0.4490
20.1800 13.4226 0.4499
20.2000 13.4359 0.4377
20.2200 13.4492 0.4518
20.2400 13.4626 0.4510
20.2600 13.4759 0.4400
20.2800 13.4893 0.4525
20.3000 13.5026 0.4484
20.3200 13.5160 0.4441
20.3400 13.5293 0.4543
20.3600 13.5427 0.4479
20.3800 13.5560 0.4451
20.4000 13.5693 0.4531
20.4200 13.5826 0.4464
20.4400 13.5960 0.4502
20.4600 13.6093 0.4518
20.4800 13.6226 0.4479
20.5000 13.6359 0.4518
20.5200 13.6492 0.4494
20.5400 13.6626 0.4545
20.5600 13.6759 0.4529
20.5800 13.6892 0.4482
20.6000 13.7026 0.4533
20.6200 13.7159 0.4553
20.6400 13.7293 0.4485
20.6600 13.7426 0.4575
20.6800 13.7560 0.4560
20.7000 13.7693 0.4523
20.7200 13.7827 0.4579
20.7400 13.7960 0.4517
20.7600 13.8093 0.4532
20.7800 13.8226 0.4614
20.8000 13.8360 0.4515
20.8200 13.8493 0.4502
20.8400 13.8626 0.4571
20.8600 13.8759 0.4565
20.8800 13.8892 0.4516
20.9000 13.9026 0.4635
20.9200 13.9159 0.4538
20.9400 13.9292 0.4483
20.9600 13.9426 0.4635
20.9800 13.9559 0.4551
21.0000 13.9694 0.4531
21.0200 13.9827 0.4640
21.0400 13.9960 0.4526
21.0600 14.0094 0.4532
21.0800 14.0227 0.4621
21.1000 14.0360 0.4569
21.1200 14.0493 0.4528
21.1400 14.0626 0.4653
21.1600 14.0759 0.4559
21.1800 14.0892 0.4564
21.2000 14.1026 0.4643
21.2200 14.1159 0.4569
21.2400 14.1292 0.4628
21.2600 14.1426 0.4599
21.2800 14.1559 0.4552
21.3000 14.1693 0.4598
21.3200 14.1826 0.4626
21.3400 14.1960 0.4572
21.3600 14.2094 0.4630
21.3800 14.2227 0.4589
21.4000 14.2360 0.4622
21.4200 14.2493 0.4647
21.4400 14.2626 0.4622
21.4600 14.2760 0.4618
21.4800 14.2893 0.4606
21.5000 14.3026 0.4634
21.5200 14.3159 0.4650
21.5400 14.3293 0.4601
21.5600 14.3426 0.4578
21.5800 14.3559 0.4598
21.6000 14.3692 0.4636
21.6200 14.3826 0.4641
21.6400 14.3959 0.4645
21.6600 14.4093 0.4605
21.6800 14.4226 0.4657
21.7000 14.4360 0.4668
21.7200 14.4493 0.4583
21.7400 14.4627 0.4673
21.7600 14.4760 0.4662
21.7800 14.4893 0.4585
21.8000 14.5026 0.4707
21.8200 14.5160 0.4612
21.8400 14.5293 0.4595
21.8600 14.5426 0.4726
21.8800 14.5559 0.4640
21.9000 14.5693 0.4585
21.9200 14.5826 0.4735
21.9400 14.5959 0.4672
21.9600 14.6092 0.4597
21.9800 14.6226 0.4753
22.0000 14.6359 0.4635
22.0200 14.6493 0.4612
22.0400 14.6626 0.4730
22.0600 14.6759 0.4639
22.0800 14.6893 0.4625
22.1000 14.7027 0.4719
22.1200 14.7160 0.4627
22.1400 14.7293 0.4703
22.1600 14.7427 0.4721
22.1800 14.7560 0.4657
22.2000 14.7693 0.4683
22.2200 14.7826 0.4712
22.2400 14.7959 0.4672
22.2600 14.8093 0.4734
22.2800 14.8226 0.4683
22.3000 14.8359 0.4705
22.3200 14.8492 0.4720
22.3400 14.8626 0.4675
22.3600 14.8759 0.4691
22.3800 14.8893 0.4742
22.4000 14.9026 0.4676
22.4200 14.9159 0.4741
22.4400 14.9293 0.4694
22.4600 14.9427 0.4686
22.4800 14.9560 0.4714
22.5000 14.9693 0.4732
22.5200 14.9827 0.4699
22.5400 14.9960 0.4750
22.5600 15.0094 0.4690
22.5800 15.0227 0.4694
22.6000 15.0360 0.4739
22.6200 15.0493 0.4721
22.6400 15.0626 0.4755
22.6600 15.0759 0.4735
22.6800 15.0892 0.4702
22.7000 15.1026 0.4777
22.7200 15.1159 0.4755
22.7400 15.1293 0.4700
22.7600 15.1426 0.4737
22.7800 15.1560 0.4752
22.8000 15.1694 0.4703
22.8200 15.1827 0.4767
22.8400 15.1960 0.4740
22.8600 15.2093 0.4704
22.8800 15.2226 0.4811
22.9000 15.2360 0.4728
22.9200 15.2494 0.4764
22.9400 15.2626 0.4780
22.9600 15.2759 0.4740
22.9800 15.2893 0.4798
23.0000 15.3026 0.4765
23.0200 15.3159 0.4719
23.0400 15.3292 0.4820
23.0600 15.3425 0.4788
23.0800 15.3559 0.4723
23.1000 15.3692 0.4809
23.1200 15.3826 0.4816
23.1400 15.3959 0.4742
23.1600 15.4093 0.4823
23.1800 15.4227 0.4746
23.2000 15.4360 0.4818
23.2200 15.4493 0.4838
23.2400 15.4627 0.4728
23.2600 15.4760 0.4829
23.2800 15.4893 0.4831
23.3000 15.5026 0.4708
23.3200 15.5159 0.4914
23.3400 15.5292 0.4823
23.3600 15.5426 0.4705
23.3800 15.5559 0.4882
23.4000 15.5692 0.4803
23.4200 15.5826 0.4700
23.4400 15.5959 0.4884
23.4600 15.6093 0.4784
23.4800 15.6226 0.4734
23.5000 15.6360 0.4916
23.5200 15.6493 0.4792
23.5400 15.6627 0.4769
23.5600 15.6760 0.4905
23.5800 15.6893 0.4807
23.6000 15.7026 0.4783
23.6200 15.7160 0.4936
23.6400 15.7293 0.4773
23.6600 15.7426 0.4765
23.6800 15.7560 0.4968
23.7000 15.7693 0.4791
23.7200 15.7827 0.4768
23.7400 15.7960 0.4981
23.7600 15.8093 0.4786
23.7800 15.8226 0.4824
23.8000 15.8359 0.4918
23.8200 15.8493 0.4736
23.8400 15.8626 0.4881
23.8600 15.8759 0.4929
23.8800 15.8893 0.4729
23.9000 15.9027 0.4892
23.9200 15.9160 0.4928
23.9400 15.9293 0.4777
23.9600 15.9426 0.4881
23.9800 15.9560 0.4934
24.0000 15.9693 0.4791
24.0200 15.9827 0.4898
24.0400 15.9960 0.4950
24.0600 16.0093 0.4806
24.0800 16.0227 0.4903
24.1000 16.0360 0.4947
24.1200 16.0493 0.4846
24.1400 16.0626 0.4899
24.1600 16.0759 0.4921
24.1800 16.0893 0.4890
24.2000 16.1026 0.4875
24.2200 16.1159 0.4907
24.2400 16.1293 0.4913
24.2600 16.1427 0.4867
24.2800 16.1560 0.4866
24.3000 16.1693 0.4938
24.3200 16.1826 0.4856
24.3400 16.1960 0.4879
24.3600 16.2093 0.4966
24.3800 16.2226 0.4849
24.4000 16.2359 0.4948
24.4200 16.2493 0.4985
24.4400 16.2626 0.4861
24.4600 16.2759 0.4948
24.4800 16.2892 0.4974
24.5000 16.3026 0.4863
24.5200 16.3159 0.4970
24.5400 16.3293 0.4966
24.5600 16.3426 0.4876
24.5800 16.3559 0.4990
24.6000 16.3693 0.4971
24.6200 16.3826 0.4853
24.6400 16.3960 0.4989
24.6600 16.4093 0.4917
24.6800 16.4226 0.4895
24.7000 16.4360 0.5022
24.7200 16.4493 0.4924
24.7400 16.4626 0.4923
24.7600 16.4759 0.5017
24.7800 16.4893 0.4937
24.8000 16.5026 0.4944
24.8200 16.5159 0.5028
24.8400 16.5292 0.4951
24.8600 16.5425 0.4952
24.8800 16.5559 0.5018
24.9000 16.5693 0.4929
24.9200 16.5826 0.4984
24.9400 16.5959 0.5031
24.9600 16.6093 0.4961
24.9800 16.6227 0.4990
25.0000 16.6360 0.4991
25.0200 16.6493 0.4965
25.0400 16.6627 0.5015
25.0600 16.6760 0.4999
25.0800 16.6893 0.4972
25.1000 16.7026 0.4983
25.1200 16.7159 0.5000
25.1400 16.7293 0.5000
25.1600 16.7426 0.5045
25.1800 16.7559 0.4982
25.2000 16.7693 0.4959
25.2200 16.7826 0.5054
25.2400 16.7959 0.4980
25.2600 16.8093 0.5028
25.2800 16.8226 0.5040
25.3000 16.8359 0.4994
25.3200 16.8493 0.5060
25.3400 16.8627 0.5018
25.3600 16.8760 0.4987
25.3800 16.8893 0.5051
25.4000 16.9027 0.5061
25.4200 16.9160 0.4962
25.4400 16.9294 0.5026
25.4600 16.9426 0.5069
25.4800 16.9559 0.5003
25.5000 16.9692 0.5098
25.5200 16.9826 0.5050
25.5400 16.9959 0.5024
25.5600 17.0092 0.5089
25.5800 17.0226 0.5048
25.6000 17.0359 0.5053
25.6200 17.0493 0.5087
25.6400 17.0626 0.5064
25.6600 17.0759 0.5018
25.6800 17.0893 0.5098
25.7000 17.1026 0.5030
25.7200 17.1160 0.5076
25.7400 17.1293 0.5104
25.7600 17.1426 0.5051
25.7800 17.1560 0.5119
25.8000 17.1693 0.5071
25.8200 17.1826 0.5028
25.8400 17.1960 0.5145
25.8600 17.2093 0.5075
25.8800 17.2227 0.5065
25.9000 17.2360 0.5143
25.9200 17.2493 0.5067
25.9400 17.2626 0.5089
25.9600 17.2759 0.5198
25.9800 17.2892 0.5076
26.0000 17.3026 0.5096
26.0200 17.3159 0.5214
26.0400 17.3293 0.5065
26.0600 17.3427 0.5141
26.0800 17.3560 0.5139
26.1000 17.3693 0.5056
26.1200 17.3826 0.5183
26.1400 17.3960 0.5109
26.1600 17.4094 0.5083
26.1800 17.4227 0.5123
26.2000 17.4360 0.5150
26.2200 17.4493 0.5115
26.2400 17.4626 0.5213
26.2600 17.4759 0.5153
26.2800 17.4892 0.5083
26.3000 17.5025 0.5198
26.3200 17.5159 0.5182
26.3400 17.5292 0.5118
26.3600 17.5426 0.5216
26.3800 17.5559 0.5139
26.4000 17.5693 0.5157
26.4200 17.5827 0.5204
26.4400 17.5960 0.5127
26.4600 17.6094 0.5140
26.4800 17.6227 0.5208
26.5000 17.6360 0.5155
26.5200 17.6494 0.5165
26.5400 17.6626 0.5278
26.5600 17.6759 0.5160
26.5800 17.6892 0.5176
26.6000 17.7026 0.5243
26.6200 17.7159 0.5171
26.6400 17.7292 0.5169
26.6600 17.7426 0.5273
26.6800 17.7559 0.5181
26.7000 17.7693 0.5181
26.7200 17.7826 0.5253
26.7400 17.7959 0.5214
26.7600 17.8093 0.5206
26.7800 17.8227 0.5258
26.8000 17.8360 0.5165
26.8200 17.8493 0.5217
26.8400 17.8626 0.5290
26.8600 17.8760 0.5197
26.8800 17.8893 0.5170
26.9000 17.9027 0.5309
26.9200 17.9160 0.5194
26.9400 17.9293 0.5216
26.9600 17.9426 0.5299
26.9800 17.9559 0.5211
27.0000 17.9692 0.5247
27.0200 17.9825 0.5312
27.0400 17.9959 0.5204
27.0600 18.0093 0.5286
27.0800 18.0226 0.5277
27.1000 18.0359 0.5203
27.1200 18.0493 0.5296
27.1400 18.0627 0.5320
27.1600 18.0760 0.5204
27.1800 18.0893 0.5326
27.2000 18.1027 0.5305
27.2200 18.1160 0.5204
27.2400 18.1293 0.5322
27.2600 18.1426 0.5319
27.2800 18.1559 0.5217
27.3000 18.1692 0.5362
27.3200 18.1826 0.5339
27.3400 18.1959 0.5182
27.3600 18.2093 0.5393
27.3800 18.2226 0.5329
27.4000 18.2359 0.5214
27.4200 18.2492 0.5388
27.4400 18.2626 0.5321
27.4600 18.2759 0.5206
27.4800 18.2892 0.5434
27.5000 18.3026 0.5315
27.5200 18.3160 0.5199
27.5400 18.3293 0.5457
27.5600 18.3426 0.5320
27.5800 18.3560 0.5241
27.6000 18.3694 0.5502
27.6200 18.3827 0.5224
27.6400 18.3960 0.5265
27.6600 18.4093 0.5495
27.6800 18.4226 0.5270
27.7000 18.4359 0.5330
27.7200 18.4493 0.5470
27.7400 18.4626 0.5255
27.7600 18.4759 0.5363
27.7800 18.4892 0.5444
27.8000 18.5026 0.5286
27.8200 18.5159 0.5358
27.8400 18.5293 0.5391
27.8600 18.5426 0.5299
27.8800 18.5560 0.5386
27.9000 18.5693 0.5373
27.9200 18.5826 0.5345
27.9400 18.5960 0.5388
27.9600 18.6093 0.5385
27.9800 18.6227 0.5364
28.0000 18.6360 0.5438
28.0200 18.6493 0.5359
28.0400 18.6626 0.5389
28.0600 18.6760 0.5432
28.0800 18.6893 0.5343
28.1000 18.7026 0.5400
28.1200 18.7159 0.5465
28.1400 18.7292 0.5401
28.1600 18.7425 0.5422
28.1800 18.7558 0.5424
28.2000 18.7692 0.5432
28.2200 18.7826 0.5429
28.2400 18.7961 0.5397
28.2600 18.8094 0.5399
28.2800 18.8227 0.5463
28.3000 18.8361 0.5448
28.3200 18.8494 0.5407
28.3400 18.8627 0.5438
28.3600 18.8760 0.5438
28.3800 18.8893 0.5412
28.4000 18.9026 0.5439
28.4200 18.9159 0.5469
28.4400 18.9292 0.5386
28.4600 18.9426 0.5481
28.4800 18.9559 0.5466
28.5000 18.9693 0.5414
28.5200 18.9826 0.5494
28.5400 18.9959 0.5484
28.5600 19.0093 0.5395
28.5800 19.0226 0.5506
28.6000 19.0360 0.5504
28.6200 19.0493 0.5412
28.6400 19.0626 0.5513
28.6600 19.0760 0.5531
28.6800 19.0893 0.5393
28.7000 19.1026 0.5538
28.7200 19.1159 0.5525
28.7400 19.1293 0.5481
28.7600 19.1426 0.5531
28.7800 19.1559 0.5509
28.8000 19.1693 0.5460
28.8200 19.1826 0.5560
28.8400 19.1959 0.5502
28.8600 19.2093 0.5492
28.8800 19.2226 0.5524
28.9000 19.2359 0.5503
28.9200 19.2493 0.5508
28.9400 19.2626 0.5545
28.9600 19.2760 0.5510
28.9800 19.2893 0.5488
29.0000 19.3026 0.5539
29.0200 19.3160 0.5553
29.0400 19.3293 0.5511
29.0600 19.3427 0.5537
29.0800 19.3560 0.5548
29.1000 19.3693 0.5555
29.1200 19.3826 0.5578
29.1400 19.3960 0.5524
29.1600 19.4093 0.5539
29.1800 19.4226 0.5527
29.2000 19.4359 0.5582
29.2200 19.4492 0.5546
29.2400 19.4626 0.5558
29.2600 19.4759 0.5544
29.2800 19.4893 0.5535
29.3000 19.5026 0.5572
29.3200 19.5160 0.5567
29.3400 19.5294 0.5572
29.3600 19.5427 0.5565
29.3800 19.5560 0.5567
29.4000 19.5693 0.5591
29.4200 19.5827 0.5547
29.4400 19.5960 0.5611
29.4600 19.6093 0.5628
29.4800 19.6226 0.5590
29.5000 19.6360 0.5543
29.5200 19.6493 0.5641
29.5400 19.6626 0.5596
29.5600 19.6759 0.5600
29.5800 19.6892 0.5615
29.6000 19.7026 0.5588
29.6200 19.7159 0.5578
29.6400 19.7292 0.5621
29.6600 19.7426 0.5615
29.6800 19.7560 0.5592
29.7000 19.7693 0.5638
29.7200 19.7826 0.5603
29.7400 19.7960 0.5620
29.7600 19.8093 0.5639
29.7800 19.8227 0.5600
29.8000 19.8360 0.5631
29.8200 19.8493 0.5670
29.8400 19.8626 0.5614
29.8600 19.8760 0.5649
29.8800 19.8893 0.5658
29.9000 19.9026 0.5595
29.9200 19.9159 0.5655
29.9400 19.9292 0.5682
29.9600 19.9426 0.5586
29.9800 19.9559 0.5700
30.0000 19.9693 0.5644
30.0200 19.9826 0.5620
30.0400 19.9960 0.5706
30.0600 20.0094 0.5622
30.0800 20.0227 0.5644
30.1000 20.0360 0.5777
30.1200 20.0493 0.5594
30.1400 20.0627 0.5637
30.1600 20.0760 0.5722
30.1800 20.0893 0.5601
30.2000 20.1026 0.5706
30.2200 20.1159 0.5722
30.2400 20.1293 0.5606
30.2600 20.1426 0.5725
30.2800 20.1559 0.5694
30.3000 20.1692 0.5661
30.3200 20.1826 0.5721
30.3400 20.1959 0.5666
30.3600 20.2092 0.5702
30.3800 20.2226 0.5753
30.4000 20.2360 0.5683
30.4200 20.2494 0.5694
30.4400 20.2627 0.5737
30.4600 20.2760 0.5672
30.4800 20.2893 0.5750
30.5000 20.3027 0.5765
30.5200 20.3160 0.5668
30.5400 20.3292 0.5806
30.5600 20.3426 0.5706
30.5800 20.3559 0.5682
30.6000 20.3693 0.5760
30.6200 20.3826 0.5702
30.6400 20.3959 0.5784
30.6600 20.4093 0.5755
30.6800 20.4226 0.5762
30.7000 20.4360 0.5735
30.7200 20.4493 0.5744
30.7400 20.4626 0.5688
30.7600 20.4760 0.5806
30.7800 20.4893 0.5783
30.8000 20.5026 0.5723
30.8200 20.5159 0.5792
30.8400 20.5293 0.5749
30.8600 20.5426 0.5712
30.8800 20.5560 0.5795
30.9000 20.5693 0.5780
30.9200 20.5826 0.5752
30.9400 20.5960 0.5798
30.9600 20.6093 0.5770
30.9800 20.6226 0.5755
31.0000 20.6359 0.5837
31.0200 20.6492 0.5771
31.0400 20.6626 0.5775
31.0600 20.6759 0.5802
31.0800 20.6892 0.5753
31.1000 20.7026 0.5784
31.1200 20.7160 0.5860
31.1400 20.7293 0.5750
31.1600 20.7426 0.5805
31.1800 20.7560 0.5861
31.2000 20.7693 0.5790
31.2200 20.7827 0.5795
31.2400 20.7960 0.5904
31.2600 20.8093 0.5811
31.2800 20.8226 0.5797
31.3000 20.8360 0.5911
31.3200 20.8493 0.5802
31.3400 20.8626 0.5814
31.3600 20.8759 0.5886
31.3800 20.8892 0.5776
31.4000 20.9026 0.5843
31.4200 20.9159 0.5922
31.4400 20.9292 0.5767
31.4600 20.9426 0.5870
31.4800 20.9560 0.5896
31.5000 20.9693 0.5811
31.5200 20.9827 0.5847
31.5400 20.9960 0.5897
31.5600 21.0093 0.5853
31.5800 21.0227 0.5818
31.6000 21.0360 0.5912
31.6200 21.0493 0.5853
31.6400 21.0626 0.5859
31.6600 21.0760 0.5896
31.6800 21.0893 0.5807
31.7000 21.1026 0.5900
31.7200 21.1159 0.5933
31.7400 21.1292 0.5842
31.7600 21.1426 0.5857
31.7800 21.1560 0.5955
31.8000 21.1693 0.5818
31.8200 21.1826 0.5911
31.8400 21.1960 0.5969
31.8600 21.2093 0.5818
31.8800 21.2226 0.5926
31.9000 21.2360 0.5961
31.9200 21.2493 0.5871
31.9400 21.2627 0.5925
31.9600 21.2760 0.5922
31.9800 21.2893 0.5902
32.0000 21.3026 0.5925
32.0200 21.3159 0.5955
32.0400 21.3293 0.5913
32.0600 21.3426 0.5905
32.0800 21.3559 0.5988
32.1000 21.3692 0.5939
32.1200 21.3826 0.5893
32.1400 21.3959 0.5980
32.1600 21.4093 0.5965
32.1800 21.4226 0.5892
32.2000 21.4360 0.5991
32.2200 21.4493 0.5928
32.2400 21.4627 0.5909
32.2600 21.4760 0.6035
32.2800 21.4893 0.5928
32.3000 21.5027 0.5923
32.3200 21.5160 0.6057
32.3400 21.5293 0.5925
32.3600 21.5426 0.5967
32.3800 21.5559 0.6018
32.4000 21.5693 0.5969
32.4200 21.5826 0.5963
32.4400 21.5959 0.6029
32.4600 21.6092 0.5958
32.4800 21.6226 0.5976
32.5000 21.6359 0.6067
32.5200 21.6493 0.5998
32.5400 21.6626 0.5988
32.5600 21.6760 0.6001
32.5800 21.6893 0.5928
32.6000 21.7026 0.5972
32.6200 21.7160 0.6105
32.6400 21.7293 0.5980
32.6600 21.7427 0.5953
32.6800 21.7560 0.6060
32.7000 21.7693 0.6012
32.7200 21.7826 0.6027
32.7400 21.7959 0.6057
32.7600 21.8093 0.5945
32.7800 21.8226 0.6051
32.8000 21.8359 0.6104
32.8200 21.8492 0.5960
32.8400 21.8626 0.6058
32.8600 21.8759 0.6058
32.8800 21.8892 0.5993
32.9000 21.9026 0.6099
32.9200 21.9160 0.6039
32.9400 21.9293 0.6023
32.9600 21.9426 0.6111
32.9800 21.9559 0.6048
33.0000 21.9693 0.6017
33.0200 21.9826 0.6149
33.0400 21.9960 0.6034
33.0600 22.0093 0.6071
33.0800 22.0227 0.6137
33.1000 22.0360 0.6018
33.1200 22.0493 0.6069
33.1400 22.0626 0.6162
33.1600 22.0759 0.6016
33.1800 22.0892 0.6060
33.2000 22.1026 0.6147
33.2200 22.1159 0.6047
33.2400 22.1292 0.6118
33.2600 22.1426 0.6167
33.2800 22.1560 0.6028
33.3000 22.1694 0.6117
33.3200 22.1827 0.6097
33.3400 22.1960 0.6060
33.3600 22.2093 0.6166
33.3800 22.2227 0.6146
33.4000 22.2360 0.6022
33.4200 22.2493 0.6193
33.4400 22.2626 0.6172
33.4600 22.2759 0.6061
33.4800 22.2893 0.6209
33.5000 22.3026 0.6122
33.5200 22.3159 0.6070
33.5400 22.3292 0.6212
33.5600 22.3426 0.6094
33.5800 22.3559 0.6134
33.6000 22.3693 0.6203
33.6200 22.3826 0.6097
33.6400 22.3960 0.6119
33.6600 22.4093 0.6213
33.6800 22.4227 0.6126
33.7000 22.4360 0.6159
33.7200 22.4493 0.6232
33.7400 22.4627 0.6099
33.7600 22.4760 0.6187
33.7800 22.4893 0.6247
33.8000 22.5026 0.6126
33.8200 22.5159 0.6233
33.8400 22.5293 0.6219
33.8600 22.5426 0.6105
33.8800 22.5559 0.6215
33.9000 22.5692 0.6222
33.9200 22.5826 0.6163
33.9400 22.5959 0.6208
33.9600 22.6093 0.6218
33.9800 22.6226 0.6180
34.0000 22.6359 0.6222
34.0200 22.6493 0.6180
34.0400 22.6627 0.6237
34.0600 22.6760 0.6247
34.0800 22.6893 0.6215
34.1000 22.7027 0.6232
34.1200 22.7160 0.6216
34.1400 22.7293 0.6233
34.1600 22.7426 0.6260
34.1800 22.7559 0.6219
34.2000 22.7693 0.6259
34.2200 22.7826 0.6258
34.2400 22.7959 0.6177
34.2600 22.8092 0.6313
34.2800 22.8226 0.6240
34.3000 22.8359 0.6182
34.3200 22.8492 0.6361
34.3400 22.8626 0.6256
34.3600 22.8760 0.6177
34.3800 22.8893 0.6354
34.4000 22.9027 0.6268
34.4200 22.9160 0.6178
34.4400 22.9293 0.6386
34.4600 22.9427 0.6232
34.4800 22.9560 0.6216
34.5000 22.9693 0.6373
34.5200 22.9826 0.6240
34.5400 22.9959 0.6320
34.5600 23.0093 0.6340
34.5800 23.0226 0.6250
34.6000 23.0359 0.6330
34.6200 23.0492 0.6310
34.6400 23.0626 0.6222
34.6600 23.0759 0.6397
34.6800 23.0892 0.6331
34.7000 23.1026 0.6246
34.7200 23.1160 0.6395
34.7400 23.1293 0.6295
34.7600 23.1427 0.6309
34.7800 23.1560 0.6385
34.8000 23.1693 0.6304
34.8200 23.1827 0.6356
34.8400 23.1960 0.6345
34.8600 23.2094 0.6271
34.8800 23.2226 0.6398
34.9000 23.2359 0.6370
34.9200 23.2493 0.6310
34.9400 23.2626 0.6416
34.9600 23.2759 0.6337
34.9800 23.2892 0.6301
35.0000 23.3026 0.6478
35.0200 23.3159 0.6310
35.0400 23.3293 0.6325
35.0600 23.3426 0.6466
35.0800 23.3559 0.6322
35.1000 23.3693 0.6373
35.1200 23.3826 0.6444
35.1400 23.3960 0.6348
35.1600 23.4093 0.6407
35.1800 23.4227 0.6430
35.2000 23.4360 0.6355
35.2200 23.4493 0.6454
35.2400 23.4626 0.6413
35.2600 23.4759 0.6345
35.2800 23.4893 0.6469
35.3000 23.5026 0.6397
35.3200 23.5159 0.6377
35.3400 23.5292 0.6438
35.3600 23.5426 0.6419
35.3800 23.5559 0.6379
35.4000 23.5692 0.6441
35.4200 23.5825 0.6429
35.4400 23.5959 0.6443
35.4600 23.6093 0.6416
35.4800 23.6227 0.6428
35.5000 23.6360 0.6428
35.5200 23.6493 0.6457
35.5400 23.6627 0.6450
35.5600 23.6760 0.6414
35.5800 23.6893 0.6426
35.6000 23.7026 0.6481
35.6200 23.7159 0.6468
35.6400 23.7292 0.6485
35.6600 23.7426 0.6497
35.6800 23.7559 0.6452
35.7000 23.7692 0.6459
35.7200 23.7826 0.6489
35.7400 23.7959 0.6461
35.7600 23.8093 0.6478
35.7800 23.8226 0.6499
35.8000 23.8360 0.6441
35.8200 23.8494 0.6516
35.8400 23.8627 0.6533
35.8600 23.8760 0.6435
35.8800 23.8893 0.6511
35.9000 23.9026 0.6513
35.9200 23.9160 0.6445
35.9400 23.9293 0.6508
35.9600 23.9426 0.6543
35.9800 23.9559 0.6495
36.0000 23.9693 0.6494
36.0200 23.9826 0.6516
36.0400 23.9959 0.6510
36.0600 24.0092 0.6516
36.0800 24.0226 0.6520
36.1000 24.0360 0.6536
36.1200 24.0493 0.6506
36.1400 24.0626 0.6564
36.1600 24.0760 0.6558
36.1800 24.0893 0.6512
36.2000 24.1027 0.6541
36.2200 24.1160 0.6596
36.2400 24.1293 0.6482
36.2600 24.1427 0.6577
36.2800 24.1560 0.6601
36.3000 24.1693 0.6475
36.3200 24.1826 0.6630
36.3400 24.1959 0.6592
36.3600 24.2093 0.6494
36.3800 24.2226 0.6665
36.4000 24.2359 0.6536
36.4200 24.2492 0.6528
36.4400 24.2626 0.6689
36.4600 24.2759 0.6537
36.4800 24.2893 0.6538
36.5000 24.3026 0.6695
36.5200 24.3159 0.6545
36.5400 24.3293 0.6588
36.5600 24.3427 0.6703
36.5800 24.3560 0.6499
36.6000 24.3693 0.6573
36.6200 24.3827 0.6706
36.6400 24.3960 0.6530
36.6600 24.4093 0.6623
36.6800 24.4226 0.6654
36.7000 24.4359 0.6524
36.7200 24.4493 0.6684
36.7400 24.4626 0.6627
36.7600 24.4759 0.6531
36.7800 24.4892 0.6675
36.8000 24.5026 0.6647
36.8200 24.5159 0.6573
36.8400 24.5293 0.6609
36.8600 24.5426 0.6692
36.8800 24.5559 0.6576
36.9000 24.5693 0.6604
36.9200 24.5827 0.6725
36.9400 24.5960 0.6572
36.9600 24.6093 0.6601
36.9800 24.6226 0.6694
37.0000 24.6360 0.6619
37.0200 24.6494 0.6566
37.0400 24.6627 0.6706
37.0600 24.6759 0.6650
37.0800 24.6893 0.6618
37.1000 24.7026 0.6700
37.1200 24.7159 0.6679
37.1400 24.7292 0.6615
37.1600 24.7425 0.6694
37.1800 24.7559 0.6681
37.2000 24.7693 0.6592
37.2200 24.7826 0.6756
37.2400 24.7960 0.6669
37.2600 24.8093 0.6619
37.2800 24.8227 0.6761
37.3000 24.8360 0.6668
37.3200 24.8493 0.6659
37.3400 24.8627 0.6777
37.3600 24.8760 0.6685
37.3800 24.8894 0.6660
37.4000 24.9026 0.6730
37.4200 24.9159 0.6678
37.4400 24.9292 0.6650
37.4600 24.9426 0.6784
37.4800 24.9559 0.6681
37.5000 24.9692 0.6711
37.5200 24.9825 0.6777
37.5400 24.9959 0.6661
37.5600 25.0092 0.6719
37.5800 25.0226 0.6786
37.6000 25.0359 0.6674
37.6200 25.0493 0.6754
37.6400 25.0627 0.6794
37.6600 25.0760 0.6667
37.6800 25.0893 0.6784
37.7000 25.1027 0.6783
37.7200 25.1160 0.6671
37.7400 25.1293 0.6803
37.7600 25.1426 0.6744
37.7800 25.1559 0.6728
37.8000 25.1692 0.6816
37.8200 25.1826 0.6729
37.8400 25.1959 0.6743
37.8600 25.2092 0.6819
37.8800 25.2226 0.6738
37.9000 25.2359 0.6766
37.9200 25.2493 0.6849
37.9400 25.2626 0.6733
37.9600 25.2760 0.6747
37.9800 25.2893 0.6868
38.0000 25.3027 0.6706
38.0200 25.3160 0.6801
38.0400 25.3293 0.6808
38.0600 25.3426 0.6671
38.0800 25.3559 0.6888
38.1000 25.3693 0.6834
38.1200 25.3826 0.6710
38.1400 25.3960 0.6857
38.1600 25.4093 0.6830
38.1800 25.4227 0.6711
38.2000 25.4360 0.6879
38.2200 25.4493 0.6839
38.2400 25.4626 0.6748
38.2600 25.4759 0.6880
38.2800 25.4893 0.6834
38.3000 25.5026 0.6769
38.3200 25.5159 0.6894
38.3400 25.5293 0.6813
38.3600 25.5426 0.6767
38.3800 25.5560 0.6889
38.4000 25.5693 0.6827
38.4200 25.5826 0.6775
38.4400 25.5960 0.6954
38.4600 25.6094 0.6784
38.4800 25.6227 0.6793
38.5000 25.6360 0.6919
38.5200 25.6493 0.6842
38.5400 25.6627 0.6788
38.5600 25.6760 0.6919
38.5800 25.6892 0.6883
38.6000 25.7025 0.6799
38.6200 25.7159 0.6947
38.6400 25.7292 0.6834
38.6600 25.7426 0.6797
38.6800 25.7559 0.6950
38.7000 25.7693 0.6879
38.7200 25.7826 0.6845
38.7400 25.7960 0.6957
38.7600 25.8094 0.6862
38.7800 25.8227 0.6857
38.8000 25.8360 0.6935
38.8200 25.8494 0.6881
38.8400 25.8626 0.6894
38.8600 25.8759 0.6966
38.8800 25.8893 0.6867
38.9000 25.9026 0.6949
38.9200 25.9159 0.6960
38.9400 25.9293 0.6906
38.9600 25.9426 0.6907
38.9800 25.9559 0.6974
39.0000 25.9693 0.6889
39.0200 25.9826 0.6928
39.0400 25.9959 0.6941
39.0600 26.0093 0.6932
39.0800 26.0226 0.6935
39.1000 26.0360 0.6929
39.1200 26.0493 0.6955
39.1400 26.0626 0.6944
39.1600 26.0760 0.6949
39.1800 26.0894 0.6995
39.2000 26.1027 0.6903
39.2200 26.1160 0.7001
39.2400 26.1293 0.6969
39.2600 26.1426 0.6910
39.2800 26.1559 0.7023
39.3000 26.1692 0.6981
39.3200 26.1825 0.6941
39.3400 26.1959 0.7056
39.3600 26.2092 0.6961
39.3800 26.2226 0.6948
39.4000 26.2359 0.7067
39.4200 26.2493 0.6952
39.4400 26.2627 0.6951
39.4600 26.2760 0.7063
39.4800 26.2893 0.6997
39.5000 26.3026 0.6982
39.5200 26.3160 0.7094
39.5400 26.3293 0.6988
39.5600 26.3426 0.6979
39.5800 26.3559 0.7065
39.6000 26.3693 0.7006
39.6200 26.3826 0.7031
39.6400 26.3960 0.7048
39.6600 26.4093 0.7023
39.6800 26.4226 0.7040
39.7000 26.4359 0.7031
39.7200 26.4493 0.7060
39.7400 26.4626 0.7079
39.7600 26.4759 0.7111
39.7800 26.4893 0.7002
39.8000 26.5027 0.7035
39.8200 26.5160 0.7092
39.8400 26.5293 0.7064
39.8600 26.5427 0.7041
39.8800 26.5560 0.7096
39.9000 26.5694 0.7049
39.9200 26.5827 0.7087
39.9400 26.5959 0.7119
39.9600 26.6092 0.7061
39.9800 26.6226 0.7109
40.0000 26.6359 0.7134
40.0200 26.6492 0.7044
40.0400 26.6626 0.7142
40.0600 26.6759 0.7172
40.0800 26.6893 0.7070
40.1000 26.7026 0.7113
40.1200 26.7159 0.7161
40.1400 26.7293 0.7071
40.1600 26.7426 0.7163
40.1800 26.7560 0.7104
40.2000 26.7693 0.7087
40.2200 26.7826 0.7190
40.2400 26.7960 0.7076
40.2600 26.8093 0.7165
40.2800 26.8227 0.7190
40.3000 26.8360 0.7088
40.3200 26.8493 0.7198
40.3400 26.8627 0.7162
40.3600 26.8760 0.7110
40.3800 26.8893 0.7244
40.4000 26.9026 0.7219
40.4200 26.9159 0.7119
40.4400 26.9292 0.7264
40.4600 26.9426 0.7180
40.4800 26.9559 0.7089
40.5000 26.9693 0.7314
40.5200 26.9827 0.7123
40.5400 26.9960 0.7123
40.5600 27.0093 0.7243
40.5800 27.0227 0.7158
40.6000 27.0360 0.7178
40.6200 27.0494 0.7240
40.6400 27.0627 0.7171
40.6600 27.0760 0.7192
40.6800 27.0893 0.7271
40.7000 27.1026 0.7211
40.7200 27.1159 0.7225
40.7400 27.1292 0.7251
40.7600 27.1425 0.7218
40.7800 27.1558 0.7273
40.8000 27.1692 0.7237
40.8200 27.1826 0.7212
40.8400 27.1959 0.7291
40.8600 27.2093 0.7251
40.8800 27.2227 0.7196
40.9000 27.2360 0.7255
40.9200 27.2494 0.7272
40.9400 27.2627 0.7232
40.9600 27.2760 0.7271
40.9800 27.2894 0.7297
41.0000 27.3027 0.7239
41.0200 27.3160 0.7277
41.0400 27.3293 0.7319
41.0600 27.3426 0.7287
41.0800 27.3559 0.7304
41.1000 27.3692 0.7297
41.1200 27.3825 0.7304
41.1400 27.3959 0.7331
41.1600 27.4092 0.7296
41.1800 27.4226 0.7267
41.2000 27.4360 0.7340
41.2200 27.4493 0.7335
41.2400 27.4627 0.7284
41.2600 27.4760 0.7326
41.2800 27.4893 0.7351
41.3000 27.5026 0.7289
41.3200 27.5160 0.7317
41.3400 27.5293 0.7347
41.3600 27.5427 0.7341
41.3800 27.5560 0.7298
41.4000 27.5693 0.7365
41.4200 27.5826 0.7351
41.4400 27.5960 0.7305
41.4600 27.6093 0.7374
41.4800 27.6226 0.7359
41.5000 27.6359 0.7318
41.5200 27.6493 0.7415
41.5400 27.6626 0.7333
41.5600 27.6759 0.7337
41.5800 27.6893 0.7455
41.6000 27.7026 0.7347
41.6200 27.7160 0.7300
41.6400 27.7294 0.7438
41.6600 27.7427 0.7426
41.6800 27.7560 0.7295
41.7000 27.7693 0.7455
41.7200 27.7826 0.7412
41.7400 27.7959 0.7328
41.7600 27.8092 0.7448
41.7800 27.8226 0.7449
41.8000 27.8360 0.7360
41.8200 27.8493 0.7414
41.8400 27.8626 0.7470
41.8600 27.8759 0.7364
41.8800 27.8893 0.7466
41.9000 27.9026 0.7467
41.9200 27.9159 0.7361
41.9400 27.9292 0.7477
41.9600 27.9426 0.7410
41.9800 27.9560 0.7451
42.0000 27.9693 0.7478
42.0200 27.9826 0.7489
42.0400 27.9960 0.7443
42.0600 28.0094 0.7470
42.0800 28.0227 0.7479
42.1000 28.0360 0.7417
42.1200 28.0493 0.7496
42.1400 28.0626 0.7479
42.1600 28.0760 0.7398
42.1800 28.0893 0.7522
42.2000 28.1026 0.7495
42.2200 28.1159 0.7475
42.2400 28.1292 0.7494
42.2600 28.1426 0.7536
42.2800 28.1559 0.7482
42.3000 28.1693 0.7468
42.3200 28.1826 0.7552
42.3400 28.1960 0.7481
42.3600 28.2093 0.7528
42.3800 28.2226 0.7556
42.4000 28.2359 0.7499
42.4200 28.2493 0.7568
42.4400 28.2627 0.7528
42.4600 28.2760 0.7529
42.4800 28.2893 0.7557
42.5000 28.3026 0.7603
42.5200 28.3160 0.7507
42.5400 28.3293 0.7533
42.5600 28.3426 0.7582
42.5800 28.3559 0.7533
42.6000 28.3692 0.7591
42.6200 28.3826 0.7562
42.6400 28.3959 0.7577
42.6600 28.4092 0.7595
42.6800 28.4226 0.7573
42.7000 28.4360 0.7571
42.7200 28.4494 0.7594
42.7400 28.4627 0.7600
42.7600 28.4760 0.7577
42.7800 28.4894 0.7625
42.8000 28.5027 0.7597
42.8200 28.5160 0.7547
42.8400 28.5292 0.7643
42.8600 28.5425 0.7609
42.8800 28.5559 0.7605
42.9000 28.5693 0.7635
42.9200 28.5826 0.7630
42.9400 28.5959 0.7640
42.9600 28.6093 0.7607
42.9800 28.6226 0.7630
43.0000 28.6360 0.7641
43.0200 28.6493 0.7634
43.0400 28.6627 0.7660
43.0600 28.6760 0.7633
43.0800 28.6894 0.7651
43.1000 28.7027 0.7676
43.1200 28.7160 0.7601
43.1400 28.7293 0.7712
43.1600 28.7426 0.7715
43.1800 28.7559 0.7593
43.2000 28.7692 0.7725
43.2200 28.7826 0.7720
43.2400 28.7959 0.7565
43.2600 28.8092 0.7709
43.2800 28.8225 0.7726
43.3000 28.8359 0.7622
43.3200 28.8493 0.7745
43.3400 28.8627 0.7752
43.3600 28.8760 0.7620
43.3800 28.8893 0.7727
43.4000 28.9026 0.7765
43.4200 28.9160 0.7621
43.4400 28.9293 0.7750
43.4600 28.9427 0.7725
43.4800 28.9560 0.7705
43.5000 28.9693 0.7771
43.5200 28.9827 0.7679
43.5400 28.9960 0.7718
43.5600 29.0093 0.7777
43.5800 29.0226 0.7719
43.6000 29.0360 0.7739
43.6200 29.0493 0.7769
43.6400 29.0626 0.7748
43.6600 29.0759 0.7749
43.6800 29.0892 0.7772
43.7000 29.1026 0.7759
43.7200 29.1159 0.7752
43.7400 29.1293 0.7812
43.7600 29.1426 0.7790
43.7800 29.1560 0.7776
43.8000 29.1694 0.7749
43.8200 29.1827 0.7753
43.8400 29.1960 0.7782
43.8600 29.2093 0.7803
43.8800 29.2227 0.7804
43.9000 29.2360 0.7774
43.9200 29.2493 0.7815
43.9400 29.2626 0.7814
43.9600 29.2759 0.7768
43.9800 29.2893 0.7840
44.0000 29.3026 0.7824
44.0200 29.3159 0.7776
44.0400 29.3293 0.7854
44.0600 29.3426 0.7818
44.0800 29.3559 0.7800
44.1000 29.3692 0.7912
44.1200 29.3826 0.7773
44.1400 29.3960 0.7857
44.1600 29.4093 0.7890
44.1800 29.4226 0.7776
44.2000 29.4360 0.7908
44.2200 29.4493 0.7896
44.2400 29.4627 0.7804
44.2600 29.4760 0.7908
44.2800 29.4893 0.7908
44.3000 29.5026 0.7799
44.3200 29.5159 0.7945
44.3400 29.5293 0.7922
44.3600 29.5426 0.7759
44.3800 29.5559 0.7991
44.4000 29.5692 0.7909
44.4200 29.5826 0.7780
44.4400 29.5959 0.8046
44.4600 29.6093 0.7920
44.4800 29.6226 0.7812
44.5000 29.6360 0.7995
44.5200 29.6494 0.7932
44.5400 29.6627 0.7817
44.5600 29.6760 0.8027
44.5800 29.6893 0.7915
44.6000 29.7027 0.7843
44.6200 29.7160 0.8010
44.6400 29.7293 0.7933
44.6600 29.7426 0.7862
44.6800 29.7559 0.8036
44.7000 29.7693 0.7869
44.7200 29.7826 0.7897
44.7400 29.7959 0.8057
44.7600 29.8092 0.7931
44.7800 29.8226 0.7962
44.8000 29.8359 0.7990
44.8200 29.8492 0.7964
44.8400 29.8626 0.7975
44.8600 29.8760 0.8007
44.8800 29.8894 0.7941
44.9000 29.9027 0.7973
44.9200 29.9160 0.8098
44.9400 29.9293 0.7954
44.9600 29.9427 0.7995
44.9800 29.9560 0.8066
45.0000 29.9693 0.7995
45.0200 29.9826 0.7987
45.0400 29.9959 0.8086
45.0600 30.0093 0.8029
45.0800 30.0226 0.7974
45.1000 30.0359 0.8111
45.1200 30.0493 0.7986
45.1400 30.0626 0.8041
45.1600 30.0760 0.8091
45.1800 30.0893 0.8028
45.2000 30.1026 0.8001
45.2200 30.1160 0.8100
45.2400 30.1294 0.8058
45.2600 30.1426 0.8038
45.2800 30.1559 0.8106
45.3000 30.1693 0.8084
45.3200 30.1826 0.8063
45.3400 30.1960 0.8098
45.3600 30.2093 0.8082
45.3800 30.2226 0.8092
45.4000 30.2360 0.8081
45.4200 30.2493 0.8095
45.4400 30.2626 0.8076
45.4600 30.2759 0.8087
45.4800 30.2893 0.8147
45.5000 30.3026 0.8102
45.5200 30.3159 0.8119
45.5400 30.3293 0.8166
45.5600 30.3426 0.8074
45.5800 30.3559 0.8176
45.6000 30.3693 0.8113
45.6200 30.3826 0.8075
45.6400 30.3960 0.8221
45.6600 30.4093 0.8140
45.6800 30.4227 0.8093
45.7000 30.4360 0.8260
45.7200 30.4493 0.8167
45.7400 30.4626 0.8086
45.7600 30.4760 0.8247
45.7800 30.4893 0.8132
45.8000 30.5026 0.8134
45.8200 30.5159 0.8263
45.8400 30.5292 0.8182
45.8600 30.5426 0.8156
45.8800 30.5559 0.8256
45.9000 30.5692 0.8159
45.9200 30.5826 0.8206
45.9400 30.5960 0.8265
45.9600 30.6093 0.8183
45.9800 30.6227 0.8213
46.0000 30.6360 0.8238
46.0200 30.6493 0.8188
46.0400 30.6627 0.8295
46.0600 30.6760 0.8238
46.0800 30.6893 0.8202
46.1000 30.7026 0.8255
46.1200 30.7159 0.8220
46.1400 30.7293 0.8227
46.1600 30.7426 0.8250
46.1800 30.7559 0.8236
46.2000 30.7692 0.8299
46.2200 30.7826 0.8258
46.2400 30.7959 0.8237
46.2600 30.8093 0.8303
46.2800 30.8226 0.8266
46.3000 30.8359 0.8260
46.3200 30.8493 0.8320
46.3400 30.8627 0.8235
46.3600 30.8760 0.8275
46.3800 30.8893 0.8342
46.4000 30.9027 0.8216
46.4200 30.9160 0.8297
46.4400 30.9293 0.8377
46.4600 30.9426 0.8251
46.4800 30.9560 0.8331
46.5000 30.9693 0.8352
46.5200 30.9826 0.8238
46.5400 30.9959 0.8375
46.5600 31.0092 0.8368
46.5800 31.0226 0.8280
46.6000 31.0359 0.8358
46.6200 31.0492 0.8385
46.6400 31.0626 0.8275
46.6600 31.0760 0.8369
46.6800 31.0894 0.8396
46.7000 31.1027 0.8326
46.7200 31.1160 0.8377
46.7400 31.1293 0.8403
46.7600 31.1427 0.8331
46.7800 31.1560 0.8404
46.8000 31.1693 0.8443
46.8200 31.1826 0.8322
46.8400 31.1959 0.8407
46.8600 31.2093 0.8397
46.8800 31.2226 0.8338
46.9000 31.2359 0.8425
46.9200 31.2493 0.8434
46.9400 31.2626 0.8373
46.9600 31.2759 0.8419
46.9800 31.2893 0.8464
47.0000 31.3026 0.8408
47.0200 31.3160 0.8437
47.0400 31.3293 0.8439
47.0600 31.3426 0.8413
47.0800 31.3560 0.8472
47.1000 31.3693 0.8481
47.1200 31.3827 0.8456
47.1400 31.3960 0.8470
47.1600 31.4093 0.8482
47.1800 31.4226 0.8430
47.2000 31.4359 0.8506
47.2200 31.4493 0.8464
47.2400 31.4626 0.8422
47.2600 31.4759 0.8510
47.2800 31.4892 0.8498
47.3000 31.5026 0.8465
47.3200 31.5159 0.8513
47.3400 31.5293 0.8486
47.3600 31.5426 0.8457
47.3800 31.5559 0.8521
47.4000 31.5693 0.8516
47.4200 31.5826 0.8472
47.4400 31.5959 0.8556
47.4600 31.6093 0.8491
47.4800 31.6226 0.8502
47.5000 31.6360 0.8561
47.5200 31.6493 0.8527
47.5400 31.6626 0.8493
47.5600 31.6760 0.8588
47.5800 31.6893 0.8551
47.6000 31.7026 0.8518
47.6200 31.7159 0.8604
47.6400 31.7292 0.8543
47.6600 31.7425 0.8541
47.6800 31.7559 0.8615
47.7000 31.7692 0.8542
47.7200 31.7826 0.8614
47.7400 31.7960 0.8599
47.7600 31.8094 0.8583
47.7800 31.8227 0.8597
47.8000 31.8360 0.8623
47.8200 31.8493 0.8619
47.8400 31.8627 0.8609
47.8600 31.8760 0.8655
47.8800 31.8893 0.8627
47.9000 31.9026 0.8641
47.9200 31.9159 0.8616
47.9400 31.9293 0.8629
47.9600 31.9426 0.8633
47.9800 31.9559 0.8636
48.0000 31.9692 0.8672
48.0200 31.9825 0.8632
48.0400 31.9959 0.8662
48.0600 32.0092 0.8631
48.0800 32.0226 0.8646
48.1000 32.0360 0.8709
48.1200 32.0494 0.8665
48.1400 32.0627 0.8694
48.1600 32.0760 0.8668
48.1800 32.0893 0.8677
48.2000 32.1027 0.8750
48.2200 32.1160 0.8677
48.2400 32.1293 0.8673
48.2600 32.1426 0.8742
48.2800 32.1559 0.8696
48.3000 32.1693 0.8721
48.3200 32.1826 0.8752
48.3400 32.1959 0.8715
48.3600 32.2092 0.8753
48.3800 32.2226 0.8755
48.4000 32.2359 0.8674
48.4200 32.2493 0.8793
48.4400 32.2626 0.8717
48.4600 32.2759 0.8714
48.4800 32.2893 0.8745
48.5000 32.3027 0.8779
48.5200 32.3160 0.8778
48.5400 32.3293 0.8803
48.5600 32.3427 0.8772
48.5800 32.3560 0.8745
48.6000 32.3693 0.8796
48.6200 32.3826 0.8828
48.6400 32.3959 0.8773
48.6600 32.4093 0.8803
48.6800 32.4226 0.8857
48.7000 32.4359 0.8775
48.7200 32.4492 0.8830
48.7400 32.4625 0.8844
48.7600 32.4759 0.8766
48.7800 32.4892 0.8825
48.8000 32.5026 0.8895
48.8200 32.5159 0.8786
48.8400 32.5293 0.8867
48.8600 32.5427 0.8841
48.8800 32.5560 0.8790
48.9000 32.5693 0.8919
48.9200 32.5826 0.8848
48.9400 32.5960 0.8823
48.9600 32.6093 0.8942
48.9800 32.6226 0.8857
49.0000 32.6359 0.8853
49.0200 32.6493 0.8863
49.0400 32.6626 0.8895
49.0600 32.6759 0.8909
49.0800 32.6892 0.8889
49.1000 32.7026 0.8935
49.1200 32.7159 0.8903
49.1400 32.7293 0.8854
49.1600 32.7426 0.8987
49.1800 32.7559 0.8923
49.2000 32.7693 0.8868
49.2200 32.7827 0.9014
49.2400 32.7960 0.8888
49.2600 32.8093 0.8903
49.2800 32.8227 0.9046
49.3000 32.8360 0.8875
49.3200 32.8494 0.8919
49.3400 32.8627 0.9043
49.3600 32.8759 0.8930
49.3800 32.8893 0.8930
49.4000 32.9026 0.9077
49.4200 32.9159 0.8912
49.4400 32.9292 0.8950
49.4600 32.9426 0.9067
49.4800 32.9559 0.8927
49.5000 32.9693 0.8987
49.5200 32.9826 0.9066
49.5400 32.9959 0.8924
49.5600 33.0093 0.8997
49.5800 33.0227 0.9084
49.6000 33.0360 0.8912
49.6200 33.0493 0.9063
49.6400 33.0626 0.9037
49.6600 33.0760 0.8929
49.6800 33.0893 0.9093
49.7000 33.1026 0.9099
49.7200 33.1159 0.8972
49.7400 33.1293 0.9095
49.7600 33.1426 0.9060
49.7800 33.1559 0.9018
49.8000 33.1692 0.9136
49.8200 33.1825 0.9097
49.8400 33.1959 0.9039
49.8600 33.2092 0.9128
49.8800 33.2225 0.9055
49.9000 33.2359 0.9100
49.9200 33.2493 0.9154
49.9400 33.2627 0.9084
49.9600 33.2760 0.9085
49.9800 33.2894 0.9123
50.0000 33.3027 0.9146
50.0200 33.3160 0.9153
50.0400 33.3293 0.9108
50.0600 33.3426 0.9123
50.0800 33.3559 0.9164
50.1000 33.3692 0.9087
50.1200 33.3826 0.9170
50.1400 33.3959 0.9161
50.1600 33.4092 0.9103
50.1800 33.4226 0.9221
50.2000 33.4359 0.9158
50.2200 33.4493 0.9098
50.2400 33.4626 0.9248
50.2600 33.4759 0.9209
50.2800 33.4893 0.9115
50.3000 33.5027 0.9270
50.3200 33.5160 0.9188
50.3400 33.5293 0.9158
50.3600 33.5426 0.9314
50.3800 33.5560 0.9120
50.4000 33.5693 0.9209
50.4200 33.5826 0.9321
50.4400 33.5959 0.9126
50.4600 33.6093 0.9253
50.4800 33.6226 0.9320
50.5000 33.6359 0.9202
50.5200 33.6493 0.9257
50.5400 33.6626 0.9275
50.5600 33.6759 0.9226
50.5800 33.6893 0.9283
50.6000 33.7026 0.9311
50.6200 33.7160 0.9248
50.6400 33.7293 0.9298
50.6600 33.7427 0.9277
50.6800 33.7560 0.9259
50.7000 33.7693 0.9354
50.7200 33.7826 0.9316
50.7400 33.7960 0.9277
50.7600 33.8093 0.9339
50.7800 33.8226 0.9324
50.8000 33.8359 0.9346
50.8200 33.8493 0.9324
50.8400 33.8626 0.9343
50.8600 33.8760 0.9385
50.8800 33.8893 0.9342
50.9000 33.9026 0.9347
50.9200 33.9159 0.9429
50.9400 33.9293 0.9348
50.9600 33.9426 0.9340
50.9800 33.9559 0.9398
51.0000 33.9693 0.9414
51.0200 33.9827 0.9377
51.0400 33.9960 0.9376
51.0600 34.0093 0.9424
51.0800 34.0226 0.9391
51.1000 34.0360 0.9412
51.1200 34.0493 0.9444
51.1400 34.0626 0.9391
51.1600 34.0759 0.9414
51.1800 34.0893 0.9465
51.2000 34.1026 0.9432
51.2200 34.1159 0.9437
51.2400 34.1292 0.9449
51.2600 34.1426 0.9476
51.2800 34.1559 0.9434
51.3000 34.1693 0.9439
51.3200 34.1826 0.9493
51.3400 34.1959 0.9474
51.3600 34.2093 0.9466
51.3800 34.2226 0.9480
51.4000 34.2360 0.9481
51.4200 34.2493 0.9512
51.4400 34.2626 0.9484
51.4600 34.2760 0.9549
51.4800 34.2894 0.9501
51.5000 34.3027 0.9494
51.5200 34.3160 0.9583
51.5400 34.3293 0.9544
51.5600 34.3426 0.9539
51.5800 34.3559 0.9566
51.6000 34.3692 0.9561
51.6200 34.3825 0.9548
51.6400 34.3959 0.9548
51.6600 34.4092 0.9577
51.6800 34.4226 0.9578
51.7000 34.4359 0.9585
51.7200 34.4493 0.9544
51.7400 34.4627 0.9598
51.7600 34.4760 0.9595
51.7800 34.4893 0.9645
51.8000 34.5027 0.9639
51.8200 34.5160 0.9566
51.8400 34.5294 0.9625
51.8600 34.5427 0.9615
51.8800 34.5560 0.9621
51.9000 34.5693 0.9720
51.9200 34.5826 0.9612
51.9400 34.5959 0.9615
51.9600 34.6092 0.9720
51.9800 34.6225 0.9610
52.0000 34.6359 0.9703
52.0200 34.6492 0.9703
52.0400 34.6626 0.9632
52.0600 34.6759 0.9743
52.0800 34.6893 0.9734
52.1000 34.7027 0.9643
52.1200 34.7160 0.9762
52.1400 34.7293 0.9711
52.1600 34.7427 0.9654
52.1800 34.7560 0.9745
52.2000 34.7693 0.9749
52.2200 34.7826 0.9658
52.2400 34.7959 0.9765
52.2600 34.8092 0.9785
52.2800 34.8226 0.9663
52.3000 34.8359 0.9761
52.3200 34.8492 0.9805
52.3400 34.8626 0.9764
52.3600 34.8759 0.9787
52.3800 34.8893 0.9790
52.4000 34.9026 0.9744
52.4200 34.9160 0.9822
52.4400 34.9293 0.9866
52.4600 34.9426 0.9718
52.4800 34.9560 0.9875
52.5000 34.9693 0.9872
52.5200 34.9826 0.9726
52.5400 34.9960 0.9859
52.5600 35.0093 0.9867
52.5800 35.0227 0.9763
52.6000 35.0360 0.9898
52.6200 35.0493 0.9857
52.6400 35.0627 0.9813
52.6600 35.0760 0.9888
52.6800 35.0893 0.9881
52.7000 35.1026 0.9852
52.7200 35.1159 0.9927
52.7400 35.1292 0.9855
52.7600 35.1426 0.9844
52.7800 35.1559 0.9958
52.8000 35.1693 0.9935
52.8200 35.1826 0.9889
52.8400 35.1960 0.9930
52.8600 35.2093 0.9955
52.8800 35.2226 0.9907
52.9000 35.2360 0.9971
52.9200 35.2493 0.9904
52.9400 35.2627 0.9942
52.9600 35.2760 1.0025
52.9800 35.2893 0.9973
53.0000 35.3027 0.9966
53.0200 35.3160 0.9982
53.0400 35.3293 0.9948
53.0600 35.3426 0.9994
53.0800 35.3559 1.0037
53.1000 35.3692 1.0002
53.1200 35.3826 0.9992
53.1400 35.3959 1.0055
53.1600 35.4093 0.9991
53.1800 35.4227 1.0003
53.2000 35.4360 1.0048
53.2200 35.4493 1.0045
53.2400 35.4627 0.9992
53.2600 35.4760 1.0096
53.2800 35.4894 1.0032
53.3000 35.5027 1.0012
53.3200 35.5159 1.0152
53.3400 35.5293 1.0107
53.3600 35.5426 1.0010
53.3800 35.5560 1.0125
53.4000 35.5693 1.0124
53.4200 35.5826 1.0067
53.4400 35.5959 1.0142
53.4600 35.6093 1.0114
53.4800 35.6226 1.0100
53.5000 35.6359 1.0157
53.5200 35.6493 1.0132
53.5400 35.6626 1.0135
53.5600 35.6760 1.0188
53.5800 35.6893 1.0175
53.6000 35.7026 1.0139
53.6200 35.7160 1.0190
53.6400 35.7294 1.0163
53.6600 35.7427 1.0159
53.6800 35.7560 1.0209
53.7000 35.7693 1.0187
53.7200 35.7826 1.0190
53.7400 35.7959 1.0283
53.7600 35.8092 1.0231
53.7800 35.8225 1.0175
53.8000 35.8359 1.0251
53.8200 35.8492 1.0245
53.8400 35.8626 1.0180
53.8600 35.8759 1.0307
53.8800 35.8893 1.0285
53.9000 35.9027 1.0200
53.9200 35.9160 1.0298
53.9400 35.9293 1.0294
53.9600 35.9426 1.0231
53.9800 35.9560 1.0317
54.0000 35.9693 1.0323
54.0200 35.9826 1.0269
54.0400 35.9959 1.0374
54.0600 36.0093 1.0358
54.0800 36.0226 1.0264
54.1000 36.0360 1.0373
54.1200 36.0493 1.0382
54.1400 36.0626 1.0303
54.1600 36.0759 1.0385
54.1800 36.0893 1.0354
54.2000 36.1026 1.0301
54.2200 36.1159 1.0438
54.2400 36.1293 1.0405
54.2600 36.1426 1.0339
54.2800 36.1560 1.0380
54.3000 36.1693 1.0403
54.3200 36.1826 1.0355
54.3400 36.1960 1.0431
54.3600 36.2093 1.0405
54.3800 36.2227 1.0407
54.4000 36.2360 1.0483
54.4200 36.2492 1.0457
54.4400 36.2626 1.0375
54.4600 36.2759 1.0499
54.4800 36.2892 1.0467
54.5000 36.3026 1.0487
54.5200 36.3159 1.0448
54.5400 36.3293 1.0472
54.5600 36.3426 1.0473
54.5800 36.3559 1.0491
54.6000 36.3693 1.0525
54.6200 36.3826 1.0449
54.6400 36.3960 1.0512
54.6600 36.4093 1.0581
54.6800 36.4226 1.0484
54.7000 36.4359 1.0547
54.7200 36.4493 1.0579
54.7400 36.4627 1.0491
54.7600 36.4760 1.0546
54.7800 36.4893 1.0647
54.8000 36.5027 1.0527
54.8200 36.5160 1.0561
54.8400 36.5293 1.0627
54.8600 36.5426 1.0564
54.8800 36.5559 1.0587
54.9000 36.5692 1.0659
54.9200 36.5826 1.0551
54.9400 36.5959 1.0639
54.9600 36.6092 1.0690
54.9800 36.6226 1.0620
55.0000 36.6360 1.0629
55.0200 36.6494 1.0687
55.0400 36.6627 1.0698
55.0600 36.6760 1.0654
55.0800 36.6894 1.0666
55.1000 36.7027 1.0710
55.1200 36.7159 1.0711
55.1400 36.7292 1.0666
55.1600 36.7426 1.0730
55.1800 36.7559 1.0710
55.2000 36.7692 1.0709
55.2200 36.7825 1.0781
55.2400 36.7959 1.0744
55.2600 36.8092 1.0680
55.2800 36.8226 1.0804
55.3000 36.8359 1.0721
55.3200 36.8493 1.0719
55.3400 36.8626 1.0795
55.3600 36.8760 1.0709
55.3800 36.8894 1.0788
55.4000 36.9027 1.0843
55.4200 36.9160 1.0723
55.4400 36.9294 1.0831
55.4600 36.9427 1.0822
55.4800 36.9560 1.0772
55.5000 36.9693 1.0855
55.5200 36.9826 1.0890
55.5400 36.9959 1.0777
55.5600 37.0093 1.0875
55.5800 37.0226 1.0872
55.6000 37.0359 1.0811
55.6200 37.0492 1.0889
55.6400 37.0626 1.0885
55.6600 37.0759 1.0824
55.6800 37.0893 1.0935
55.7000 37.1026 1.0918
55.7200 37.1160 1.0842
55.7400 37.1293 1.0908
55.7600 37.1426 1.0931
55.7800 37.1560 1.0890
55.8000 37.1693 1.0944
55.8200 37.1827 1.0923
55.8400 37.1960 1.0909
55.8600 37.2093 1.1002
55.8800 37.2226 1.0979
55.9000 37.2360 1.0940
55.9200 37.2493 1.0943
55.9400 37.2626 1.1021
55.9600 37.2759 1.0951
55.9800 37.2892 1.0986
56.0000 37.3026 1.1050
56.0200 37.3159 1.0976
56.0400 37.3293 1.1028
56.0600 37.3426 1.1060
56.0800 37.3560 1.1004
56.1000 37.3694 1.1032
56.1200 37.3827 1.1083
56.1400 37.3960 1.1021
56.1600 37.4093 1.1011
56.1800 37.4227 1.1121
56.2000 37.4359 1.1041
56.2200 37.4492 1.1125
56.2400 37.4626 1.1124
56.2600 37.4760 1.1057
56.2800 37.4893 1.1095
56.3000 37.5026 1.1115
56.3200 37.5159 1.1137
56.3400 37.5293 1.1126
56.3600 37.5426 1.1146
56.3800 37.5559 1.1128
56.4000 37.5692 1.1121
56.4200 37.5826 1.1208
56.4400 37.5960 1.1127
56.4600 37.6093 1.1110
56.4800 37.6226 1.1218
56.5000 37.6360 1.1154
56.5200 37.6493 1.1163
56.5400 37.6627 1.1253
56.5600 37.6760 1.1196
56.5800 37.6893 1.1174
56.6000 37.7026 1.1272
56.6200 37.7160 1.1211
56.6400 37.7293 1.1195
56.6600 37.7426 1.1305
56.6800 37.7559 1.1199
56.7000 37.7692 1.1259
56.7200 37.7826 1.1295
56.7400 37.7959 1.1249
56.7600 37.8092 1.1312
56.7800 37.8226 1.1332
56.8000 37.8360 1.1262
56.8200 37.8493 1.1286
56.8400 37.8626 1.1376
56.8600 37.8759 1.1284
56.8800 37.8893 1.1314
56.9000 37.9026 1.1370
56.9200 37.9160 1.1319
56.9400 37.9293 1.1380
56.9600 37.9426 1.1402
56.9800 37.9560 1.1359
57.0000 37.9693 1.1362
57.0200 37.9826 1.1430
57.0400 37.9959 1.1416
57.0600 38.0092 1.1359
57.0800 38.0226 1.1477
57.1000 38.0359 1.1437
57.1200 38.0492 1.1353
57.1400 38.0626 1.1482
57.1600 38.0760 1.1453
57.1800 38.0894 1.1378
57.2000 38.1027 1.1489
57.2200 38.1160 1.1463
57.2400 38.1294 1.1425
57.2600 38.1427 1.1552
57.2800 38.1560 1.1494
57.3000 38.1693 1.1490
57.3200 38.1826 1.1602
57.3400 38.1959 1.1476
57.3600 38.2092 1.1446
57.3800 38.2225 1.1635
57.4000 38.2359 1.1513
57.4200 38.2493 1.1488
57.4400 38.2626 1.1634
57.4600 38.2760 1.1544
57.4800 38.2893 1.1543
57.5000 38.3026 1.1683
57.5200 38.3160 1.1527
57.5400 38.3294 1.1535
57.5600 38.3427 1.1714
57.5800 38.3560 1.1570
57.6000 38.3693 1.1590
57.6200 38.3827 1.1716
57.6400 38.3960 1.1580
57.6600 38.4093 1.1645
57.6800 38.4226 1.1718
57.7000 38.4359 1.1619
57.7200 38.4493 1.1666
57.7400 38.4626 1.1758
57.7600 38.4759 1.1632
57.7800 38.4892 1.1699
57.8000 38.5026 1.1729
57.8200 38.5159 1.1682
57.8400 38.5293 1.1743
57.8600 38.5426 1.1741
57.8800 38.5560 1.1676
57.9000 38.5693 1.1745
57.9200 38.5826 1.1741
57.9400 38.5960 1.1743
57.9600 38.6093 1.1811
57.9800 38.6227 1.1721
58.0000 38.6360 1.1776
58.0200 38.6493 1.1816
58.0400 38.6626 1.1779
58.0600 38.6760 1.1828
58.0800 38.6893 1.1829
58.1000 38.7026 1.1755
58.1200 38.7159 1.1889
58.1400 38.7292 1.1861
58.1600 38.7426 1.1762
58.1800 38.7559 1.1917
58.2000 38.7693 1.1867
58.2200 38.7826 1.1843
58.2400 38.7960 1.1904
58.2600 38.8094 1.1869
58.2800 38.8227 1.1885
58.3000 38.8360 1.1939
58.3200 38.8493 1.1873
58.3400 38.8627 1.1940
58.3600 38.8760 1.1942
58.3800 38.8893 1.1926
58.4000 38.9026 1.1984
58.4200 38.9159 1.1942
58.4400 38.9293 1.1948
58.4600 38.9426 1.2027
58.4800 38.9559 1.1977
58.5000 38.9692 1.1945
58.5200 38.9826 1.2047
58.5400 38.9960 1.1966
58.5600 39.0093 1.1994
58.5800 39.0226 1.2052
58.6000 39.0360 1.1999
58.6200 39.0493 1.2034
58.6400 39.0626 1.2060
58.6600 39.0760 1.2001
58.6800 39.0893 1.2125
58.7000 39.1027 1.2055
58.7200 39.1160 1.2080
58.7400 39.1293 1.2144
58.7600 39.1426 1.2078
58.7800 39.1559 1.2112
58.8000 39.1693 1.2175
58.8200 39.1826 1.2103
58.8400 39.1959 1.2159
58.8600 39.2092 1.2157
58.8800 39.2226 1.2109
58.9000 39.2359 1.2200
58.9200 39.2493 1.2201
58.9400 39.2626 1.2140
58.9600 39.2760 1.2163
58.9800 39.2894 1.2156
59.0000 39.3027 1.2219
59.0200 39.3160 1.2260
59.0400 39.3293 1.2198
59.0600 39.3427 1.2220
59.0800 39.3560 1.2264
59.1000 39.3693 1.2220
59.1200 39.3826 1.2278
59.1400 39.3959 1.2281
59.1600 39.4093 1.2262
59.1800 39.4226 1.2311
59.2000 39.4359 1.2282
59.2200 39.4492 1.2316
59.2400 39.4626 1.2297
59.2600 39.4759 1.2318
59.2800 39.4892 1.2318
59.3000 39.5026 1.2305
59.3200 39.5160 1.2337
59.3400 39.5293 1.2342
59.3600 39.5427 1.2364
59.3800 39.5560 1.2366
59.4000 39.5693 1.2379
59.4200 39.5827 1.2361
59.4400 39.5960 1.2413
59.4600 39.6093 1.2391
59.4800 39.6226 1.2401
59.5000 39.6359 1.2441
59.5200 39.6492 1.2381
59.5400 39.6626 1.2485
59.5600 39.6759 1.2442
59.5800 39.6892 1.2449
59.6000 39.7026 1.2495
59.6200 39.7160 1.2459
59.6400 39.7293 1.2494
59.6600 39.7426 1.2518
59.6800 39.7560 1.2461
59.7000 39.7693 1.2510
59.7200 39.7827 1.2570
59.7400 39.7960 1.2470
59.7600 39.8093 1.2580
59.7800 39.8226 1.2606
59.8000 39.8360 1.2492
59.8200 39.8493 1.2633
59.8400 39.8626 1.2603
59.8600 39.8760 1.2553
59.8800 39.8893 1.2641
59.9000 39.9027 1.2615
59.9200 39.9160 1.2602
59.9400 39.9293 1.2640
59.9600 39.9426 1.2620
59.9800 39.9559 1.2635
60.0000 39.9692 1.2687
60.0200 39.9826 1.2652
60.0400 39.9959 1.2595
60.0470 40.0005 1.2494
60.0480 40.0011 1.2470
60.0490 40.0018 1.2447
60.0690 40.0121 1.1663
60.0890 40.0141 1.1050
60.1090 40.0056 1.2055
60.1290 39.9928 1.2872
60.1490 39.9799 1.2561
60.1690 39.9670 1.2408
60.1890 39.9536 1.2630
60.2090 39.9396 1.2463
60.2290 39.9255 1.2552
60.2490 39.9118 1.2647
60.2690 39.8983 1.2408
60.2890 39.8849 1.2477
60.3090 39.8717 1.2443
60.3290 39.8584 1.2377
60.3490 39.8450 1.2413
60.3690 39.8316 1.2394
60.3890 39.8182 1.2322
60.4090 39.8049 1.2388
60.4290 39.7916 1.2336
60.4490 39.7782 1.2211
60.4690 39.7648 1.2380
60.4890 39.7515 1.2282
60.5090 39.7382 1.2187
60.5290 39.7249 1.2258
60.5490 39.7115 1.2250
60.5690 39.6981 1.2176
60.5890 39.6848 1.2205
60.6090 39.6715 1.2214
60.6290 39.6582 1.2089
60.6490 39.6449 1.2154
60.6690 39.6316 1.2123
60.6890 39.6183 1.2060
60.7090 39.6049 1.2146
60.7290 39.5916 1.2039
60.7490 39.5782 1.2040
60.7690 39.5649 1.2085
60.7890 39.5516 1.1954
60.8090 39.5382 1.1994
60.8290 39.5248 1.2047
60.8490 39.5115 1.1914
60.8690 39.4982 1.1930
60.8890 39.4849 1.1960
60.9090 39.4715 1.1901
60.9290 39.4582 1.1916
60.9490 39.4449 1.1937
60.9690 39.4315 1.1822
60.9890 39.4182 1.1889
61.0090 39.4049 1.1898
61.0290 39.3916 1.1810
61.0490 39.3783 1.1781
61.0690 39.3649 1.1811
61.0890 39.3516 1.1832
61.1090 39.3382 1.1729
61.1290 39.3249 1.1741
61.1490 39.3116 1.1770
61.1690 39.2982 1.1721
61.1890 39.2848 1.1703
61.2090 39.2715 1.1761
61.2290 39.2582 1.1666
61.2490 39.2449 1.1635
61.2690 39.2315 1.1700
61.2890 39.2181 1.1618
61.3090 39.2048 1.1617
61.3290 39.1915 1.1676
61.3490 39.1782 1.1568
61.3690 39.1648 1.1574
61.3890 39.1515 1.1615
61.4090 39.1382 1.1546
61.4290 39.1249 1.1517
61.4490 39.1115 1.1597
61.4690 39.0982 1.1473
61.4890 39.0849 1.1486
61.5090 39.0716 1.1547
61.5290 39.0582 1.1402
61.5490 39.0448 1.1448
61.5690 39.0315 1.1561
61.5890 39.0182 1.1342
61.6090 39.0048 1.1389
61.6290 38.9915 1.1480
61.6490 38.9781 1.1301
61.6690 38.9648 1.1399
61.6890 38.9515 1.1457
61.7090 38.9382 1.1227
61.7290 38.9249 1.1371
61.7490 38.9115 1.1417
61.7690 38.8982 1.1163
61.7890 38.8849 1.1352
61.8090 38.8715 1.1332
61.8290 38.8582 1.1170
61.8490 38.8449 1.1311
61.8690 38.8316 1.1291
61.8890 38.8182 1.1159
61.9090 38.8048 1.1283
61.9290 38.7915 1.1264
61.9490 38.7782 1.1115
61.9690 38.7648 1.1218
61.9890 38.7515 1.1212
62.0090 38.7381 1.1122
62.0290 38.7248 1.1182
62.0490 38.7115 1.1173
62.0690 38.6982 1.1063
62.0890 38.6849 1.1103
62.1090 38.6716 1.1187
62.1290 38.6582 1.1044
62.1490 38.6449 1.1055
62.1690 38.6315 1.1119
62.1890 38.6182 1.1012
62.2090 38.6049 1.1038
62.2290 38.5915 1.1047
62.2490 38.5782 1.0971
62.2690 38.5648 1.1013
62.2890 38.5515 1.1004
62.3090 38.5382 1.0939
62.3290 38.5249 1.0951
62.3490 38.5115 1.0992
62.3690 38.4982 1.0899
62.3890 38.4848 1.0949
62.4090 38.4715 1.0934
62.4290 38.4582 1.0847
62.4490 38.4448 1.0943
62.4690 38.4315 1.0885
62.4890 38.4182 1.0806
62.5090 38.4049 1.0885
62.5290 38.3916 1.0897
62.5490 38.3782 1.0791
62.5690 38.3649 1.0832
62.5890 38.3516 1.0839
62.6090 38.3382 1.0736
62.6290 38.3248 1.0826
62.6490 38.3115 1.0832
62.6690 38.2982 1.0703
62.6890 38.2848 1.0766
62.7090 38.2715 1.0770
62.7290 38.2581 1.0724
62.7490 38.2448 1.0728
62.7690 38.2315 1.0733
62.7890 38.2182 1.0641
62.8090 38.2048 1.0699
62.8290 38.1915 1.0681
62.8490 38.1782 1.0656
62.8690 38.1649 1.0630
62.8890 38.1515 1.0636
62.9090 38.1382 1.0643
62.9290 38.1249 1.0606
62.9490 38.1116 1.0601
62.9690 38.0982 1.0637
62.9890 38.0848 1.0527
63.0090 38.0714 1.0554
63.0290 38.0581 1.0621
63.0490 38.0448 1.0518
63.0690 38.0314 1.0491
63.0890 38.0181 1.0599
63.1090 38.0048 1.0478
63.1290 37.9915 1.0510
63.1490 37.9782 1.0538
63.1690 37.9648 1.0432
63.1890 37.9515 1.0506
63.2090 37.9382 1.0499
63.2290 37.9249 1.0375
63.2490 37.9116 1.0477
63.2690 37.8982 1.0463
63.2890 37.8849 1.0346
63.3090 37.8715 1.0452
63.3290 37.8582 1.0409
63.3490 37.8448 1.0326
63.3690 37.8315 1.0426
63.3890 37.8182 1.0353
63.4090 37.8049 1.0312
63.4290 37.7915 1.0388
63.4490 37.7781 1.0334
63.4690 37.7648 1.0309
63.4890 37.7515 1.0360
63.5090 37.7382 1.0284
63.5290 37.7248 1.0237
63.5490 37.7115 1.0341
63.5690 37.6982 1.0265
63.5890 37.6849 1.0240
63.6090 37.6716 1.0294
63.6290 37.6582 1.0230
63.6490 37.6449 1.0201
63.6690 37.6316 1.0252
63.6890 37.6182 1.0158
63.7090 37.6048 1.0181
63.7290 37.5915 1.0211
63.7490 37.5782 1.0180
63.7690 37.5648 1.0148
63.7890 37.5515 1.0220
63.8090 37.5382 1.0147
63.8290 37.5249 1.0116
63.8490 37.5115 1.0179
63.8690 37.4982 1.0091
63.8890 37.4848 1.0086
63.9090 37.4715 1.0156
63.9290 37.4582 1.0100
63.9490 37.4449 1.0083
63.9690 37.4315 1.0103
63.9890 37.4182 1.0058
64.0090 37.4049 1.0025
64.0290 37.3916 1.0088
64.0490 37.3782 1.0053
64.0690 37.3649 1.0024
64.0890 37.3515 1.0010
64.1090 37.3382 1.0062
64.1290 37.3249 0.9970
64.1490 37.3115 0.9981
64.1690 37.2981 1.0006
64.1890 37.2848 0.9953
64.2090 37.2715 0.9955
64.2290 37.2582 0.9949
64.2490 37.2448 0.9932
64.2690 37.2315 0.9943
64.2890 37.2182 0.9949
64.3090 37.2049 0.9866
64.3290 37.1916 0.9923
64.3490 37.1782 0.9971
64.3690 37.1649 0.9827
64.3890 37.1516 0.9849
64.4090 37.1382 0.9922
64.4290 37.1249 0.9794
64.4490 37.1115 0.9861
64.4690 37.0982 0.9877
64.4890 37.0849 0.9765
64.5090 37.0715 0.9796
64.5290 37.0581 0.9875
64.5490 37.0448 0.9756
64.5690 37.0315 0.9782
64.5890 37.0181 0.9810
64.6090 37.0048 0.9723
64.6290 36.9915 0.9771
64.6490 36.9782 0.9803
64.6690 36.9649 0.9700
64.6890 36.9516 0.9734
64.7090 36.9382 0.9744
64.7290 36.9249 0.9699
64.7490 36.9116 0.9696
64.7690 36.8982 0.9741
64.7890 36.8849 0.9637
64.8090 36.8715 0.9668
64.8290 36.8581 0.9709
64.8490 36.8448 0.9653
64.8690 36.8315 0.9630
64.8890 36.8181 0.9668
64.9090 36.8048 0.9621
64.9290 36.7915 0.9586
64.9490 36.7782 0.9681
64.9690 36.7649 0.9580
64.9890 36.7515 0.9550
65.0090 36.7383 0.9664
65.0290 36.7249 0.9565
65.0490 36.7116 0.9534
65.0690 36.6982 0.9631
65.0890 36.6848 0.9563
65.1090 36.6715 0.9519
65.1290 36.6582 0.9621
65.1490 36.6448 0.9484
65.1690 36.6315 0.9492
65.1890 36.6182 0.9604
65.2090 36.6048 0.9444
65.2290 36.5915 0.9480
65.2490 36.5781 0.9542
65.2690 36.5648 0.9456
65.2890 36.5515 0.9414
65.3090 36.5382 0.9495
65.3290 36.5248 0.9472
65.3490 36.5115 0.9411
65.3690 36.4982 0.9504
65.3890 36.4849 0.9420
65.4090 36.4716 0.9358
65.4290 36.4582 0.9466
65.4490 36.4448 0.9407
65.4690 36.4315 0.9353
65.4890 36.4182 0.9406
65.5090 36.4048 0.9359
65.5290 36.3914 0.9328
65.5490 36.3781 0.9444
65.5690 36.3648 0.9332
65.5890 36.3515 0.9302
65.6090 36.3382 0.9452
65.6290 36.3248 0.9315
65.6490 36.3115 0.9280
65.6690 36.2982 0.9394
65.6890 36.2848 0.9262
65.7090 36.2715 0.9275
65.7290 36.2582 0.9325
65.7490 36.2449 0.9291
65.7690 36.2316 0.9254
65.7890 36.2182 0.9282
65.8090 36.2048 0.9302
65.8290 36.1915 0.9252
65.8490 36.1782 0.9226
65.8690 36.1648 0.9254
65.8890 36.1515 0.9229
65.9090 36.1381 0.9168
65.9290 36.1248 0.9243
65.9490 36.1115 0.9175
65.9690 36.0982 0.9188
65.9890 36.0848 0.9206
66.0090 36.0715 0.9131
66.0290 36.0582 0.9180
66.0490 36.0448 0.9206
66.0690 36.0315 0.9086
66.0890 36.0182 0.9152
66.1090 36.0049 0.9211
66.1290 35.9916 0.9041
66.1490 35.9782 0.9114
66.1690 35.9648 0.9205
66.1890 35.9515 0.9028
66.2090 35.9382 0.9095
66.2290 35.9248 0.9124
66.2490 35.9115 0.9012
66.2690 35.8982 0.9093
66.2890 35.8849 0.9103
66.3090 35.8715 0.8955
66.3290 35.8582 0.9106
66.3490 35.8448 0.9046
66.3690 35.8315 0.8940
66.3890 35.8182 0.9126
66.4090 35.8048 0.9007
66.4290 35.7915 0.8969
66.4490 35.7782 0.9091
66.4690 35.7649 0.8972
66.4890 35.7516 0.8895
66.5090 35.7382 0.9078
66.5290 35.7249 0.8968
66.5490 35.7115 0.8902
66.5690 35.6982 0.9029
66.5890 35.6849 0.8901
66.6090 35.6715 0.8915
66.6290 35.6581 0.9000
66.6490 35.6448 0.8855
66.6690 35.6315 0.8917
66.6890 35.6181 0.8967
66.7090 35.6048 0.8864
66.7290 35.5915 0.8875
66.7490 35.5782 0.8962
66.7690 35.5648 0.8840
66.7890 35.5515 0.8920
66.8090 35.5382 0.8889
66.8290 35.5249 0.8805
66.8490 35.5116 0.8916
66.8690 35.4982 0.8835
66.8890 35.4849 0.8802
66.9090 35.4716 0.8910
66.9290 35.4582 0.8763
66.9490 35.4449 0.8814
66.9690 35.4315 0.8871
66.9890 35.4181 0.8769
67.0090 35.4048 0.8786
67.0290 35.3915 0.8842
67.0490 35.3781 0.8744
67.0690 35.3648 0.8781
67.0890 35.3515 0.8801
67.1090 35.3382 0.8726
67.1290 35.3249 0.8785
67.1490 35.3115 0.8796
67.1690 35.2982 0.8700
67.1890 35.2849 0.8759
67.2090 35.2716 0.8740
67.2290 35.2582 0.8686
67.2490 35.2449 0.8767
67.2690 35.2315 0.8732
67.2890 35.2182 0.8659
67.3090 35.2048 0.8728
67.3290 35.1915 0.8683
67.3490 35.1781 0.8662
67.3690 35.1648 0.8674
67.3890 35.1515 0.8675
67.4090 35.1382 0.8659
67.4290 35.1248 0.8632
67.4490 35.1115 0.8691
67.4690 35.0982 0.8602
67.4890 35.0849 0.8608
67.5090 35.0715 0.8693
67.5290 35.0582 0.8594
67.5490 35.0449 0.8547
67.5690 35.0316 0.8655
67.5890 35.0182 0.8578
67.6090 35.0049 0.8579
67.6290 34.9915 0.8614
67.6490 34.9782 0.8516
67.6690 34.9648 0.8533
67.6890 34.9515 0.8582
67.7090 34.9381 0.8509
67.7290 34.9248 0.8541
67.7490 34.9115 0.8506
67.7690 34.8982 0.8552
67.7890 34.8848 0.8540
67.8090 34.8715 0.8532
67.8290 34.8582 0.8519
67.8490 34.8448 0.8485
67.8690 34.8315 0.8515
67.8890 34.8182 0.8502
67.9090 34.8049 0.8492
67.9290 34.7916 0.8491
67.9490 34.7783 0.8450
67.9690 34.7649 0.8466
67.9890 34.7515 0.8470
68.0090 34.7382 0.8452
68.0290 34.7249 0.8385
68.0490 34.7115 0.8474
68.0690 34.6982 0.8439
68.0890 34.6848 0.8388
68.1090 34.6715 0.8454
68.1290 34.6582 0.8426
68.1490 34.6448 0.8381
68.1690 34.6315 0.8445
68.1890 34.6182 0.8408
68.2090 34.6048 0.8320
68.2290 34.5915 0.8452
68.2490 34.5782 0.8346
68.2690 34.5649 0.8310
68.2890 34.5516 0.8451
68.3090 34.5382 0.8260
68.3290 34.5248 0.8336
68.3490 34.5115 0.8455
68.3690 34.4982 0.8259
68.3890 34.4849 0.8305
68.4090 34.4715 0.8427
68.4290 34.4581 0.8238
68.4490 34.4448 0.8300
68.4690 34.4315 0.8435
68.4890 34.4182 0.8178
68.5090 34.4048 0.8292
68.5290 34.3914 0.8421
68.5490 34.3781 0.8222
68.5690 34.3648 0.8254
68.5890 34.3515 0.8364
68.6090 34.3382 0.8185
68.6290 34.3249 0.8248
68.6490 34.3116 0.8306
68.6690 34.2982 0.8197
68.6890 34.2849 0.8235
68.7090 34.2715 0.8296
68.7290 34.2582 0.8205
68.7490 34.2449 0.8153
68.7690 34.2315 0.8313
68.7890 34.2181 0.8208
68.8090 34.2048 0.8156
68.8290 34.1915 0.8296
68.8490 34.1782 0.8153
68.8690 34.1648 0.8157
68.8890 34.1515 0.8254
68.9090 34.1382 0.8151
68.9290 34.1249 0.8097
68.9490 34.1115 0.8250
68.9690 34.0982 0.8125
68.9890 34.0849 0.8083
69.0090 34.0716 0.8245
69.0290 34.0582 0.8101
69.0490 34.0449 0.8063
69.0690 34.0315 0.8223
69.0890 34.0182 0.8090
69.1090 34.0049 0.8041
69.1290 33.9915 0.8223
69.1490 33.9781 0.8069
69.1690 33.9648 0.8032
69.1890 33.9515 0.8203
69.2090 33.9382 0.8027
69.2290 33.9248 0.8032
69.2490 33.9115 0.8260
69.2690 33.8982 0.7958
69.2890 33.8849 0.8022
69.3090 33.8715 0.8192
69.3290 33.8582 0.7914
69.3490 33.8449 0.8070
69.3690 33.8316 0.8137
69.3890 33.8182 0.7857
69.4090 33.8048 0.8081
69.4290 33.7915 0.8136
69.4490 33.7782 0.7877
69.4690 33.7649 0.8069
69.4890 33.7515 0.8113
69.5090 33.7382 0.7899
69.5290 33.7248 0.8057
69.5490 33.7115 0.8015
69.5690 33.6982 0.7908
69.5890 33.6848 0.8042
69.6090 33.6715 0.7963
69.6290 33.6582 0.7930
69.6490 33.6448 0.7981
69.6690 33.6315 0.7977
69.6890 33.6182 0.7925
69.7090 33.6049 0.8001
69.7290 33.5915 0.7957
69.7490 33.5782 0.7881
69.7690 33.5649 0.7971
69.7890 33.5515 0.7959
69.8090 33.5382 0.7862
69.8290 33.5249 0.7917
69.8490 33.5115 0.7918
69.8690 33.4981 0.7905
69.8890 33.4848 0.7922
69.9090 33.4715 0.7922
69.9290 33.4582 0.7803
69.9490 33.4448 0.7935
69.9690 33.4314 0.7923
69.9890 33.4181 0.7811
70.0090 33.4048 0.7915
70.0290 33.3915 0.7897
70.0490 33.3782 0.7810
70.0690 33.3649 0.7898
70.0890 33.3516 0.7862
70.1090 33.3382 0.7807
70.1290 33.3249 0.7871
70.1490 33.3115 0.7830
70.1690 33.2982 0.7781
70.1890 33.2849 0.7872
70.2090 33.2715 0.7790
70.2290 33.2581 0.7798
70.2490 33.2448 0.7867
70.2690 33.2315 0.7752
70.2890 33.2181 0.7737
70.3090 33.2048 0.7848
70.3290 33.1914 0.7716
70.3490 33.1781 0.7755
70.3690 33.1649 0.7777
70.3890 33.1515 0.7697
70.4090 33.1382 0.7780
70.4290 33.1249 0.7764
70.4490 33.1116 0.7696
70.4690 33.0983 0.7742
70.4890 33.0849 0.7762
70.5090 33.0715 0.7702
70.5290 33.0582 0.7751
70.5490 33.0449 0.7751
70.5690 33.0315 0.7686
70.5890 33.0181 0.7719
70.6090 33.0048 0.7708
70.6290 32.9915 0.7711
70.6490 32.9782 0.7688
70.6690 32.9648 0.7655
70.6890 32.9514 0.7722
70.7090 32.9381 0.7627
70.7290 32.9248 0.7686
70.7490 32.9115 0.7685
70.7690 32.8982 0.7648
70.7890 32.8849 0.7634
70.8090 32.8716 0.7657
70.8290 32.8582 0.7623
70.8490 32.8449 0.7644
70.8690 32.8315 0.7664
70.8890 32.8182 0.7554
70.9090 32.8049 0.7624
70.9290 32.7915 0.7686
70.9490 32.7781 0.7549
70.9690 32.7648 0.7665
70.9890 32.7515 0.7604
71.0090 32.7382 0.7530
71.0290 32.7248 0.7638
71.0490 32.7114 0.7596
71.0690 32.6981 0.7534
71.0890 32.6848 0.7580
71.1090 32.6715 0.7571
71.1290 32.6582 0.7515
71.1490 32.6448 0.7576
71.1690 32.6315 0.7542
71.1890 32.6182 0.7513
71.2090 32.6049 0.7611
71.2290 32.5915 0.7481
71.2490 32.5782 0.7496
71.2690 32.5649 0.7578
71.2890 32.5516 0.7439
71.3090 32.5382 0.7562
71.3290 32.5248 0.7571
71.3490 32.5115 0.7387
71.3690 32.4982 0.7551
71.3890 32.4848 0.7531
71.4090 32.4714 0.7411
71.4290 32.4581 0.7550
71.4490 32.4448 0.7439
71.4690 32.4315 0.7403
71.4890 32.4182 0.7564
71.5090 32.4049 0.7461
71.5290 32.3916 0.7375
71.5490 32.3782 0.7563
71.5690 32.3649 0.7378
71.5890 32.3515 0.7395
71.6090 32.3382 0.7543
71.6290 32.3249 0.7385
71.6490 32.3115 0.7419
71.6690 32.2982 0.7473
71.6890 32.2848 0.7360
71.7090 32.2715 0.7449
71.7290 32.2582 0.7450
71.7490 32.2448 0.7339
71.7690 32.2315 0.7444
71.7890 32.2181 0.7425
71.8090 32.2048 0.7309
71.8290 32.1915 0.7427
71.8490 32.1781 0.7362
71.8690 32.1648 0.7338
71.8890 32.1515 0.7377
71.9090 32.1382 0.7334
71.9290 32.1249 0.7350
71.9490 32.1115 0.7347
71.9690 32.0982 0.7335
71.9890 32.0849 0.7384
72.0090 32.0716 0.7276
72.0290 32.0582 0.7352
72.0490 32.0448 0.7390
72.0690 32.0315 0.7224
72.0890 32.0182 0.7302
72.1090 32.0048 0.7362
72.1290 31.9914 0.7280
72.1490 31.9781 0.7303
72.1690 31.9648 0.7360
72.1890 31.9515 0.7203
72.2090 31.9382 0.7298
72.2290 31.9249 0.7351
72.2490 31.9116 0.7201
72.2690 31.8982 0.7320
72.2890 31.8849 0.7275
72.3090 31.8715 0.7187
72.3290 31.8582 0.7297
72.3490 31.8449 0.7254
72.3690 31.8315 0.7192
72.3890 31.8182 0.7247
72.4090 31.8048 0.7269
72.4290 31.7915 0.7137
72.4490 31.7782 0.7271
72.4690 31.7648 0.7253
72.4890 31.7515 0.7152
72.5090 31.7381 0.7263
72.5290 31.7248 0.7177
72.5490 31.7115 0.7161
72.5690 31.6982 0.7269
72.5890 31.6848 0.7168
72.6090 31.6715 0.7169
72.6290 31.6582 0.7214
72.6490 31.6449 0.7190
72.6690 31.6315 0.7116
72.6890 31.6182 0.7187
72.7090 31.6048 0.7190
72.7290 31.5915 0.7077
72.7490 31.5781 0.7190
72.7690 31.5648 0.7195
72.7890 31.5515 0.7062
72.8090 31.5382 0.7160
72.8290 31.5249 0.7171
72.8490 31.5115 0.7049
72.8690 31.4982 0.7146
72.8890 31.4849 0.7197
72.9090 31.4715 0.7036
72.9290 31.4582 0.7157
72.9490 31.4448 0.7194
72.9690 31.4315 0.7002
72.9890 31.4182 0.7152
73.0090 31.4049 0.7140
73.0290 31.3915 0.6991
73.0490 31.3782 0.7141
73.0690 31.3649 0.7141
73.0890 31.3515 0.6914
73.1090 31.3382 0.7124
73.1290 31.3248 0.7195
73.1490 31.3115 0.6878
73.1690 31.2982 0.7121
73.1890 31.2849 0.7152
73.2090 31.2715 0.6856
73.2290 31.2582 0.7155
73.2490 31.2449 0.7086
73.2690 31.2315 0.6900
73.2890 31.2182 0.7158
73.3090 31.2049 0.7011
73.3290 31.1916 0.6864
73.3490 31.1782 0.7152
73.3690 31.1649 0.7005
73.3890 31.1515 0.6888
73.4090 31.1382 0.7166
73.4290 31.1249 0.7013
73.4490 31.1115 0.6825
73.4690 31.0982 0.7136
73.4890 31.0848 0.6958
73.5090 31.0715 0.6885
73.5290 31.0582 0.7071
73.5490 31.0448 0.6913
73.5690 31.0315 0.6922
73.5890 31.0181 0.7069
73.6090 31.0048 0.6907
73.6290 30.9915 0.6909
73.6490 30.9782 0.7032
73.6690 30.9649 0.6875
73.6890 30.9516 0.6967
73.7090 30.9383 0.7004
73.7290 30.9249 0.6856
73.7490 30.9115 0.6940
73.7690 30.8982 0.6996
73.7890 30.8849 0.6836
73.8090 30.8715 0.6965
73.8290 30.8582 0.6928
73.8490 30.8448 0.6856
73.8690 30.8315 0.6922
73.8890 30.8182 0.6923
73.9090 30.8048 0.6842
73.9290 30.7915 0.6923
73.9490 30.7781 0.6935
73.9690 30.7648 0.6820
73.9890 30.7515 0.6931
74.0090 30.7382 0.6898
74.0290 30.7248 0.6855
74.0490 30.7115 0.6912
74.0690 30.6982 0.6853
74.0890 30.6849 0.6855
74.1090 30.6716 0.6852
74.1290 30.6582 0.6883
74.1490 30.6449 0.6832
74.1690 30.6316 0.6827
74.1890 30.6182 0.6838
74.2090 30.6048 0.6847
74.2290 30.5915 0.6860
74.2490 30.5782 0.6770
74.2690 30.5648 0.6849
74.2890 30.5515 0.6849
74.3090 30.5381 0.6812
74.3290 30.5249 0.6848
74.3490 30.5116 0.6802
74.3690 30.4982 0.6780
74.3890 30.4849 0.6831
74.4090 30.4715 0.6796
74.4290 30.4582 0.6784
74.4490 30.4449 0.6803
74.4690 30.4315 0.6806
74.4890 30.4182 0.6757
74.5090 30.4049 0.6792
74.5290 30.3915 0.6748
74.5490 30.3782 0.6778
74.5690 30.3648 0.6793
74.5890 30.3515 0.6732
74.6090 30.3382 0.6767
74.6290 30.3249 0.6748
74.6490 30.3115 0.6758
74.6690 30.2982 0.6756
74.6890 30.2848 0.6708
74.7090 30.2715 0.6774
74.7290 30.2582 0.6732
74.7490 30.2448 0.6677
74.7690 30.2315 0.6803
74.7890 30.2182 0.6717
74.8090 30.2049 0.6678
74.8290 30.1915 0.6790
74.8490 30.1782 0.6670
74.8690 30.1649 0.6699
74.8890 30.1515 0.6765
74.9090 30.1382 0.6642
74.9290 30.1248 0.6669
74.9490 30.1115 0.6772
74.9690 30.0982 0.6577
74.9890 30.0849 0.6689
75.0090 30.0715 0.6767
75.0290 30.0581 0.6560
75.0490 30.0448 0.6717
75.0690 30.0315 0.6719
75.0890 30.0182 0.6567
75.1090 30.0048 0.6701
75.1290 29.9915 0.6712
75.1490 29.9782 0.6541
75.1690 29.9649 0.6654
75.1890 29.9515 0.6714
75.2090 29.9382 0.6525
75.2290 29.9249 0.6679
75.2490 29.9116 0.6686
75.2690 29.8982 0.6528
75.2890 29.8848 0.6654
75.3090 29.8715 0.6641
75.3290 29.8582 0.6551
75.3490 29.8449 0.6609
75.3690 29.8315 0.6618
75.3890 29.8181 0.6570
75.4090 29.8048 0.6641
75.4290 29.7915 0.6607
75.4490 29.7782 0.6545
75.4690 29.7648 0.6623
75.4890 29.7515 0.6612
75.5090 29.7382 0.6521
75.5290 29.7249 0.6600
75.5490 29.7115 0.6568
75.5690 29.6982 0.6525
75.5890 29.6849 0.6581
75.6090 29.6716 0.6598
75.6290 29.6582 0.6514
75.6490 29.6448 0.6553
75.6690 29.6315 0.6547
75.6890 29.6182 0.6506
75.7090 29.6049 0.6517
75.7290 29.5915 0.6518
75.7490 29.5781 0.6541
75.7690 29.5648 0.6572
75.7890 29.5515 0.6521
75.8090 29.5382 0.6533
75.8290 29.5248 0.6547
75.8490 29.5115 0.6519
75.8690 29.4982 0.6470
75.8890 29.4849 0.6513
75.9090 29.4715 0.6505
75.9290 29.4582 0.6518
75.9490 29.4449 0.6482
75.9690 29.4315 0.6463
75.9890 29.4182 0.6525
76.0090 29.4048 0.6448
76.0290 29.3915 0.6495
76.0490 29.3782 0.6498
76.0690 29.3648 0.6419
76.0890 29.3515 0.6464
76.1090 29.3381 0.6485
76.1290 29.3248 0.6454
76.1490 29.3115 0.6498
76.1690 29.2982 0.6433
76.1890 29.2849 0.6389
76.2090 29.2715 0.6464
76.2290 29.2582 0.6438
76.2490 29.2449 0.6402
76.2690 29.2315 0.6474
76.2890 29.2182 0.6450
76.3090 29.2049 0.6371
76.3290 29.1915 0.6462
76.3490 29.1782 0.6390
76.3690 29.1648 0.6384
76.3890 29.1515 0.6474
76.4090 29.1382 0.6350
76.4290 29.1248 0.6403
76.4490 29.1115 0.6418
76.4690 29.0981 0.6394
76.4890 29.0848 0.6379
76.5090 29.0715 0.6387
76.5290 29.0582 0.6393
76.5490 29.0449 0.6371
76.5690 29.0315 0.6372
76.5890 29.0182 0.6353
76.6090 29.0049 0.6379
76.6290 28.9915 0.6383
76.6490 28.9782 0.6380
76.6690 28.9648 0.6314
76.6890 28.9515 0.6359
76.7090 28.9382 0.6360
76.7290 28.9248 0.6303
76.7490 28.9115 0.6347
76.7690 28.8982 0.6335
76.7890 28.8849 0.6302
76.8090 28.8715 0.6348
76.8290 28.8582 0.6343
76.8490 28.8448 0.6305
76.8690 28.8315 0.6339
76.8890 28.8182 0.6337
76.9090 28.8048 0.6250
76.9290 28.7915 0.6352
76.9490 28.7782 0.6307
76.9690 28.7649 0.6240
76.9890 28.7516 0.6337
77.0090 28.7382 0.6308
77.0290 28.7249 0.6230
77.0490 28.7116 0.6363
77.0690 28.6982 0.6252
77.0890 28.6849 0.6190
77.1090 28.6715 0.6365
77.1290 28.6582 0.6261
77.1490 28.6448 0.6177
77.1690 28.6315 0.6327
77.1890 28.6181 0.6213
77.2090 28.6048 0.6192
77.2290 28.5915 0.6350
77.2490 28.5782 0.6207
77.2690 28.5648 0.6214
77.2890 28.5515 0.6326
77.3090 28.5382 0.6153
77.3290 28.5249 0.6217
77.3490 28.5115 0.6267
77.3690 28.4982 0.6173
77.3890 28.4849 0.6210
77.4090 28.4716 0.6273
77.4290 28.4582 0.6146
77.4490 28.4448 0.6204
77.4690 28.4315 0.6238
77.4890 28.4181 0.6198
77.5090 28.4048 0.6203
77.5290 28.3915 0.6194
77.5490 28.3781 0.6206
77.5690 28.3648 0.6161
77.5890 28.3515 0.6151
77.6090 28.3382 0.6239
77.6290 28.3248 0.6179
77.6490 28.3115 0.6137
77.6690 28.2982 0.6228
77.6890 28.2849 0.6118
77.7090 28.2716 0.6127
77.7290 28.2582 0.6189
77.7490 28.2449 0.6109
77.7690 28.2315 0.6140
77.7890 28.2182 0.6193
77.8090 28.2048 0.6041
77.8290 28.1915 0.6172
77.8490 28.1782 0.6161
77.8690 28.1648 0.6051
77.8890 28.1515 0.6140
77.9090 28.1381 0.6170
77.9290 28.1248 0.6094
77.9490 28.1115 0.6113
77.9690 28.0982 0.6096
77.9890 28.0848 0.6101
78.0090 28.0715 0.6119
78.0290 28.0582 0.6054
78.0490 28.0449 0.6069
78.0690 28.0315 0.6118
78.0890 28.0182 0.6081
78.1090 28.0049 0.6053
78.1290 27.9916 0.6083
78.1490 27.9782 0.6047
78.1690 27.9648 0.6061
78.1890 27.9515 0.6080
78.2090 27.9381 0.6081
78.2290 27.9248 0.6028
78.2490 27.9115 0.6055
78.2690 27.8981 0.6087
78.2890 27.8848 0.6013
78.3090 27.8715 0.6041
78.3290 27.8582 0.6043
78.3490 27.8449 0.6042
78.3690 27.8315 0.6002
78.3890 27.8182 0.6007
78.4090 27.8049 0.6068
78.4290 27.7915 0.5996
78.4490 27.7782 0.6067
78.4690 27.7649 0.6011
78.4890 27.7516 0.5974
78.5090 27.7382 0.5994
78.5290 27.7249 0.5986
78.5490 27.7115 0.5978
78.5690 27.6982 0.6036
78.5890 27.6849 0.5971
78.6090 27.6715 0.5916
78.6290 27.6581 0.6067
78.6490 27.6448 0.5969
78.6690 27.6315 0.5929
78.6890 27.6182 0.6037
78.7090 27.6048 0.5893
78.7290 27.5915 0.5988
78.7490 27.5782 0.6025
78.7690 27.5649 0.5867
78.7890 27.5516 0.5994
78.8090 27.5382 0.5977
78.8290 27.5248 0.5872
78.8490 27.5115 0.5968
78.8690 27.4982 0.5939
78.8890 27.4848 0.5879
78.9090 27.4715 0.5963
78.9290 27.4582 0.5948
78.9490 27.4449 0.5881
78.9690 27.4315 0.5940
78.9890 27.4181 0.5933
79.0090 27.4048 0.5881
79.0290 27.3915 0.5923
79.0490 27.3782 0.5918
79.0690 27.3648 0.5900
79.0890 27.3515 0.5919
79.1090 27.3382 0.5904
79.1290 27.3249 0.5887
79.1490 27.3116 0.5898
79.1690 27.2982 0.5864
79.1890 27.2849 0.5878
79.2090 27.2716 0.5880
79.2290 27.2582 0.5858
79.2490 27.2449 0.5842
79.2690 27.2315 0.5852
79.2890 27.2181 0.5891
79.3090 27.2048 0.5838
79.3290 27.1915 0.5785
79.3490 27.1781 0.5914
79.3690 27.1648 0.5850
79.3890 27.1515 0.5804
79.4090 27.1382 0.5865
79.4290 27.1248 0.5854
79.4490 27.1115 0.5843
79.4690 27.0982 0.5892
79.4890 27.0849 0.5847
79.5090 27.0716 0.5783
79.5290 27.0582 0.5898
79.5490 27.0448 0.5809
79.5690 27.0315 0.5746
79.5890 27.0182 0.5839
79.6090 27.0048 0.5755
79.6290 26.9915 0.5795
79.6490 26.9781 0.5844
79.6690 26.9648 0.5772
79.6890 26.9515 0.5794
79.7090 26.9381 0.5784
79.7290 26.9248 0.5758
79.7490 26.9115 0.5751
79.7690 26.8982 0.5813
79.7890 26.8849 0.5781
79.8090 26.8715 0.5755
79.8290 26.8582 0.5819
79.8490 26.8449 0.5750
79.8690 26.8316 0.5737
79.8890 26.8182 0.5817
79.9090 26.8048 0.5758
79.9290 26.7915 0.5719
79.9490 26.7782 0.5775
79.9690 26.7648 0.5757
79.9890 26.7515 0.5716
80.0090 26.7381 0.5780
80.0290 26.7248 0.5728
80.0490 26.7115 0.5717
80.0690 26.6982 0.5771
80.0890 26.6848 0.5767
80.1090 26.6715 0.5684
80.1290 26.6582 0.5751
80.1490 26.6449 0.5699
80.1690 26.6315 0.5679
80.1890 26.6182 0.5785
80.2090 26.6049 0.5688
80.2290 26.5916 0.5653
80.2490 26.5782 0.5769
80.2690 26.5648 0.5638
80.2890 26.5515 0.5705
80.3090 26.5382 0.5730
80.3290 26.5249 0.5651
80.3490 26.5115 0.5702
80.3690 26.4981 0.5699
80.3890 26.4848 0.5654
80.4090 26.4715 0.5690
80.4290 26.4582 0.5650
80.4490 26.4448 0.5659
80.4690 26.4315 0.5671
80.4890 26.4182 0.5646
80.5090 26.4049 0.5690
80.5290 26.3915 0.5646
80.5490 26.3782 0.5622
80.5690 26.3649 0.5666
80.5890 26.3516 0.5646
80.6090 26.3382 0.5594
80.6290 26.3248 0.5686
80.6490 26.3115 0.5586
80.6690 26.2982 0.5601
80.6890 26.2848 0.5668
80.7090 26.2715 0.5603
80.7290 26.2581 0.5587
80.7490 26.2448 0.5644
80.7690 26.2315 0.5581
80.7890 26.2182 0.5569
80.8090 26.2048 0.5663
80.8290 26.1915 0.5595
80.8490 26.1782 0.5561
80.8690 26.1649 0.5639
80.8890 26.1515 0.5554
80.9090 26.1382 0.5575
80.9290 26.1249 0.5640
80.9490 26.1116 0.5555
80.9690 26.0982 0.5513
80.9890 26.0849 0.5647
81.0090 26.0715 0.5526
81.0290 26.0582 0.5527
81.0490 26.0449 0.5617
81.0690 26.0315 0.5512
81.0890 26.0181 0.5536
81.1090 26.0048 0.5629
81.1290 25.9915 0.5486
81.1490 25.9781 0.5547
81.1690 25.9648 0.5607
81.1890 25.9515 0.5476
81.2090 25.9382 0.5502
81.2290 25.9248 0.5579
81.2490 25.9115 0.5488
81.2690 25.8982 0.5542
81.2890 25.8849 0.5600
81.3090 25.8716 0.5410
81.3290 25.8582 0.5551
81.3490 25.8449 0.5570
81.3690 25.8316 0.5428
81.3890 25.8182 0.5531
81.4090 25.8049 0.5543
81.4290 25.7915 0.5419
81.4490 25.7781 0.5518
81.4690 25.7648 0.5555
81.4890 25.7515 0.5399
81.5090 25.7381 0.5466
81.5290 25.7248 0.5543
81.5490 25.7115 0.5411
81.5690 25.6982 0.5448
81.5890 25.6849 0.5564
81.6090 25.6715 0.5421
81.6290 25.6582 0.5460
81.6490 25.6449 0.5536
81.6690 25.6316 0.5383
81.6890 25.6183 0.5440
81.7090 25.6049 0.5495
81.7290 25.5915 0.5429
81.7490 25.5782 0.5430
81.7690 25.5648 0.5442
81.7890 25.5515 0.5439
81.8090 25.5381 0.5442
81.8290 25.5248 0.5409
81.8490 25.5115 0.5400
81.8690 25.4982 0.5391
81.8890 25.4848 0.5418
81.9090 25.4715 0.5415
81.9290 25.4582 0.5378
81.9490 25.4448 0.5458
81.9690 25.4315 0.5437
81.9890 25.4182 0.5335
82.0090 25.4049 0.5454
82.0290 25.3916 0.5427
82.0490 25.3782 0.5301
82.0690 25.3648 0.5462
82.0890 25.3515 0.5406
82.1090 25.3382 0.5276
82.1290 25.3249 0.5504
82.1490 25.3115 0.5335
82.1690 25.2981 0.5272
82.1890 25.2848 0.5510
82.2090 25.2715 0.5285
82.2290 25.2582 0.5283
82.2490 25.2448 0.5506
82.2690 25.2315 0.5284
82.2890 25.2182 0.5306
82.3090 25.2048 0.5489
82.3290 25.1915 0.5193
82.3490 25.1782 0.5351
82.3690 25.1649 0.5442
82.3890 25.1516 0.5199
82.4090 25.1382 0.5373
82.4290 25.1249 0.5424
82.4490 25.1115 0.5218
82.4690 25.0982 0.5362
82.4890 25.0849 0.5351
82.5090 25.0716 0.5233
82.5290 25.0582 0.5386
82.5490 25.0448 0.5310
82.5690 25.0315 0.5228
82.5890 25.0181 0.5411
82.6090 25.0048 0.5241
82.6290 24.9915 0.5266
82.6490 24.9782 0.5393
82.6690 24.9648 0.5179
82.6890 24.9515 0.5300
82.7090 24.9382 0.5382
82.7290 24.9249 0.5179
82.7490 24.9116 0.5285
82.7690 24.8982 0.5341
82.7890 24.8849 0.5155
82.8090 24.8715 0.5316
82.8290 24.8582 0.5345
82.8490 24.8449 0.5149
82.8690 24.8315 0.5316
82.8890 24.8182 0.5306
82.9090 24.8048 0.5166
82.9290 24.7915 0.5319
82.9490 24.7782 0.5252
82.9690 24.7648 0.5191
82.9890 24.7515 0.5287
83.0090 24.7382 0.5264
83.0290 24.7249 0.5161
83.0490 24.7115 0.5272
83.0690 24.6982 0.5224
83.0890 24.6849 0.5158
83.1090 24.6716 0.5298
83.1290 24.6582 0.5202
83.1490 24.6448 0.5185
83.1690 24.6315 0.5313
83.1890 24.6182 0.5167
83.2090 24.6049 0.5150
83.2290 24.5915 0.5267
83.2490 24.5781 0.5175
83.2690 24.5648 0.5126
83.2890 24.5515 0.5258
83.3090 24.5382 0.5149
83.3290 24.5248 0.5141
83.3490 24.5115 0.5282
83.3690 24.4982 0.5183
83.3890 24.4848 0.5101
83.4090 24.4715 0.5229
83.4290 24.4581 0.5133
83.4490 24.4448 0.5148
83.4690 24.4315 0.5219
83.4890 24.4182 0.5152
83.5090 24.4049 0.5107
83.5290 24.3915 0.5223
83.5490 24.3782 0.5156
83.5690 24.3649 0.5073
83.5890 24.3515 0.5211
83.6090 24.3381 0.5167
83.6290 24.3248 0.5060
83.6490 24.3115 0.5206
83.6690 24.2982 0.5149
83.6890 24.2848 0.5060
83.7090 24.2715 0.5171
83.7290 24.2582 0.5141
83.7490 24.2449 0.5048
83.7690 24.2315 0.5179
83.7890 24.2182 0.5155
83.8090 24.2049 0.4980
83.8290 24.1916 0.5216
83.8490 24.1782 0.5122
83.8690 24.1649 0.4987
83.8890 24.1515 0.5232
83.9090 24.1382 0.5093
83.9290 24.1249 0.4985
83.9490 24.1115 0.5218
83.9690 24.0981 0.5078
83.9890 24.0848 0.4966
84.0090 24.0715 0.5192
84.0290 24.0582 0.5052
84.0490 24.0448 0.4985
84.0690 24.0315 0.5200
84.0890 24.0182 0.5028
84.1090 24.0049 0.4962
84.1290 23.9915 0.5190
84.1490 23.9782 0.5075
84.1690 23.9649 0.4956
84.1890 23.9515 0.5146
84.2090 23.9382 0.5039
84.2290 23.9249 0.4989
84.2490 23.9115 0.5134
84.2690 23.8982 0.5032
84.2890 23.8849 0.4960
84.3090 23.8715 0.5116
84.3290 23.8582 0.5016
84.3490 23.8448 0.4995
84.3690 23.8315 0.5082
84.3890 23.8182 0.5002
84.4090 23.8048 0.4974
84.4290 23.7915 0.5080
84.4490 23.7781 0.5046
84.4690 23.7648 0.4944
84.4890 23.7515 0.5012
84.5090 23.7382 0.5073
84.5290 23.7248 0.4922
84.5490 23.7115 0.5015
84.5690 23.6982 0.5084
84.5890 23.6849 0.4904
84.6090 23.6715 0.5005
84.6290 23.6582 0.5066
84.6490 23.6449 0.4900
84.6690 23.6315 0.5001
84.6890 23.6182 0.5050
84.7090 23.6048 0.4874
84.7290 23.5915 0.4997
84.7490 23.5781 0.5055
84.7690 23.5648 0.4858
84.7890 23.5514 0.4975
84.8090 23.5381 0.5023
84.8290 23.5248 0.4828
84.8490 23.5115 0.5012
84.8690 23.4982 0.5012
84.8890 23.4849 0.4843
84.9090 23.4716 0.5015
84.9290 23.4583 0.4940
84.9490 23.4449 0.4810
84.9690 23.4315 0.5046
84.9890 23.4182 0.4965
85.0090 23.4049 0.4802
85.0290 23.3915 0.5013
85.0490 23.3782 0.4930
85.0690 23.3648 0.4844
85.0890 23.3515 0.4995
85.1090 23.3382 0.4878
85.1290 23.3248 0.4863
85.1490 23.3115 0.4967
85.1690 23.2981 0.4858
85.1890 23.2848 0.4867
85.2090 23.2715 0.4987
85.2290 23.2582 0.4844
85.2490 23.2449 0.4860
85.2690 23.2316 0.4989
85.2890 23.2182 0.4859
85.3090 23.2049 0.4857
85.3290 23.1915 0.4936
85.3490 23.1782 0.4866
85.3690 23.1649 0.4821
85.3890 23.1515 0.4882
85.4090 23.1381 0.4875
85.4290 23.1248 0.4867
85.4490 23.1115 0.4877
85.4690 23.0982 0.4852
85.4890 23.0848 0.4818
85.5090 23.0715 0.4903
85.5290 23.0581 0.4828
85.5490 23.0448 0.4804
85.5690 23.0315 0.4869
85.5890 23.0181 0.4843
85.6090 23.0048 0.4789
85.6290 22.9915 0.4861
85.6490 22.9782 0.4876
85.6690 22.9649 0.4794
85.6890 22.9515 0.4817
85.7090 22.9382 0.4876
85.7290 22.9249 0.4772
85.7490 22.9116 0.4802
85.7690 22.8982 0.4860
85.7890 22.8848 0.4765
85.8090 22.8715 0.4820
85.8290 22.8582 0.4817
85.8490 22.8448 0.4718
85.8690 22.8315 0.4830
85.8890 22.8181 0.4819
85.9090 22.8048 0.4774
85.9290 22.7915 0.4823
85.9490 22.7782 0.4809
85.9690 22.7648 0.4773
85.9890 22.7515 0.4817
86.0090 22.7382 0.4779
86.0290 22.7249 0.4726
86.0490 22.7115 0.4815
86.0690 22.6982 0.4748
86.0890 22.6849 0.4769
86.1090 22.6715 0.4801
86.1290 22.6582 0.4690
86.1490 22.6448 0.4773
86.1690 22.6315 0.4765
86.1890 22.6182 0.4706
86.2090 22.6048 0.4797
86.2290 22.5915 0.4735
86.2490 22.5781 0.4710
86.2690 22.5648 0.4793
86.2890 22.5515 0.4723
86.3090 22.5382 0.4708
86.3290 22.5248 0.4777
86.3490 22.5115 0.4687
86.3690 22.4982 0.4693
86.3890 22.4849 0.4791
86.4090 22.4715 0.4700
86.4290 22.4582 0.4670
86.4490 22.4449 0.4760
86.4690 22.4316 0.4665
86.4890 22.4182 0.4646
86.5090 22.4048 0.4756
86.5290 22.3915 0.4693
86.5490 22.3782 0.4638
86.5690 22.3648 0.4754
86.5890 22.3514 0.4683
86.6090 22.3381 0.4676
86.6290 22.3248 0.4748
86.6490 22.3115 0.4614
86.6690 22.2982 0.4658
86.6890 22.2849 0.4764
86.7090 22.2716 0.4641
86.7290 22.2583 0.4665
86.7490 22.2449 0.4745
86.7690 22.2315 0.4617
86.7890 22.2182 0.4741
86.8090 22.2049 0.4691
86.8290 22.1915 0.4563
86.8490 22.1782 0.4725
86.8690 22.1648 0.4684
86.8890 22.1515 0.4571
86.9090 22.1382 0.4726
86.9290 22.1248 0.4637
86.9490 22.1115 0.4587
86.9690 22.0981 0.4722
86.9890 22.0848 0.4631
87.0090 22.0715 0.4607
87.0290 22.0582 0.4726
87.0490 22.0448 0.4572
87.0690 22.0315 0.4594
87.0890 22.0182 0.4702
87.1090 22.0049 0.4572
87.1290 21.9915 0.4599
87.1490 21.9782 0.4675
87.1690 21.9648 0.4558
87.1890 21.9515 0.4583
87.2090 21.9381 0.4677
87.2290 21.9248 0.4540
87.2490 21.9115 0.4599
87.2690 21.8982 0.4648
87.2890 21.8848 0.4520
87.3090 21.8715 0.4598
87.3290 21.8581 0.4607
87.3490 21.8448 0.4579
87.3690 21.8315 0.4580
87.3890 21.8182 0.4610
87.4090 21.8049 0.4572
87.4290 21.7916 0.4581
87.4490 21.7783 0.4582
87.4690 21.7649 0.4586
87.4890 21.7515 0.4601
87.5090 21.7382 0.4563
87.5290 21.7249 0.4575
87.5490 21.7115 0.4536
87.5690 21.6982 0.4557
87.5890 21.6848 0.4550
87.6090 21.6715 0.4553
87.6290 21.6582 0.4552
87.6490 21.6448 0.4551
87.6690 21.6315 0.4548
87.6890 21.6181 0.4563
87.7090 21.6048 0.4560
87.7290 21.5915 0.4527
87.7490 21.5782 0.4545
87.7690 21.5649 0.4533
87.7890 21.5516 0.4529
87.8090 21.5382 0.4561
87.8290 21.5249 0.4516
87.8490 21.5115 0.4525
87.8690 21.4982 0.4566
87.8890 21.4849 0.4516
87.9090 21.4715 0.4519
87.9290 21.4582 0.4496
87.9490 21.4448 0.4542
87.9690 21.4315 0.4509
87.9890 21.4182 0.4448
88.0090 21.4048 0.4533
88.0290 21.3915 0.4518
88.0490 21.3781 0.4475
88.0690 21.3648 0.4530
88.0890 21.3515 0.4505
88.1090 21.3382 0.4446
88.1290 21.3248 0.4529
88.1490 21.3116 0.4514
88.1690 21.2983 0.4492
88.1890 21.2849 0.4492
88.2090 21.2716 0.4466
88.2290 21.2582 0.4517
88.2490 21.2449 0.4491
88.2690 21.2316 0.4445
88.2890 21.2182 0.4472
88.3090 21.2048 0.4485
88.3290 21.1915 0.4467
88.3490 21.1782 0.4514
88.3690 21.1648 0.4458
88.3890 21.1515 0.4444
88.4090 21.1381 0.4501
88.4290 21.1248 0.4457
88.4490 21.1115 0.4431
88.4690 21.0982 0.4466
88.4890 21.0848 0.4441
88.5090 21.0715 0.4476
88.5290 21.0582 0.4425
88.5490 21.0449 0.4401
88.5690 21.0316 0.4499
88.5890 21.0182 0.4471
88.6090 21.0049 0.4429
88.6290 20.9916 0.4410
88.6490 20.9782 0.4417
88.6690 20.9648 0.4437
88.6890 20.9515 0.4403
88.7090 20.9382 0.4453
88.7290 20.9248 0.4443
88.7490 20.9115 0.4378
88.7690 20.8981 0.4443
88.7890 20.8848 0.4438
88.8090 20.8715 0.4394
88.8290 20.8582 0.4407
88.8490 20.8449 0.4398
88.8690 20.8316 0.4432
88.8890 20.8183 0.4426
88.9090 20.8049 0.4393
88.9290 20.7916 0.4421
88.9490 20.7782 0.4400
88.9690 20.7649 0.4373
88.9890 20.7515 0.4392
89.0090 20.7382 0.4370
89.0290 20.7248 0.4364
89.0490 20.7115 0.4400
89.0690 20.6982 0.4314
89.0890 20.6849 0.4412
89.1090 20.6715 0.4392
89.1290 20.6581 0.4303
89.1490 20.6448 0.4439
89.1690 20.6315 0.4365
89.1890 20.6182 0.4301
89.2090 20.6048 0.4439
89.2290 20.5915 0.4357
89.2490 20.5782 0.4322
89.2690 20.5649 0.4393
89.2890 20.5515 0.4364
89.3090 20.5382 0.4311
89.3290 20.5249 0.4383
89.3490 20.5116 0.4336
89.3690 20.4982 0.4314
89.3890 20.4848 0.4386
89.4090 20.4715 0.4330
89.4290 20.4582 0.4330
89.4490 20.4448 0.4392
89.4690 20.4315 0.4298
89.4890 20.4181 0.4318
89.5090 20.4048 0.4364
89.5290 20.3915 0.4327
89.5490 20.3782 0.4298
89.5690 20.3648 0.4376
89.5890 20.3515 0.4341
89.6090 20.3382 0.4265
89.6290 20.3249 0.4362
89.6490 20.3116 0.4343
89.6690 20.2982 0.4322
89.6890 20.2849 0.4319
89.7090 20.2716 0.4294
89.7290 20.2582 0.4299
89.7490 20.2448 0.4290
89.7690 20.2315 0.4305
89.7890 20.2182 0.4349
89.8090 20.2048 0.4279
89.8290 20.1915 0.4280
89.8490 20.1781 0.4304
89.8690 20.1648 0.4276
89.8890 20.1515 0.4317
89.9090 20.1382 0.4292
89.9290 20.1248 0.4250
89.9490 20.1115 0.4310
89.9690 20.0982 0.4284
89.9890 20.0849 0.4254
90.0090 20.0715 0.4292
90.0290 20.0582 0.4310
90.0490 20.0449 0.4210
90.0690 20.0316 0.4285
90.0890 20.0182 0.4278
90.1090 20.0048 0.4223
90.1290 19.9915 0.4280
90.1490 19.9782 0.4270
90.1690 19.9649 0.4210
90.1890 19.9515 0.4278
90.2090 19.9381 0.4252
90.2290 19.9248 0.4245
90.2490 19.9115 0.4286
90.2690 19.8982 0.4249
90.2890 19.8848 0.4186
90.3090 19.8715 0.4311
90.3290 19.8582 0.4189
90.3490 19.8449 0.4177
90.3690 19.8316 0.4328
90.3890 19.8182 0.4222
90.4090 19.8048 0.4173
90.4290 19.7915 0.4300
90.4490 19.7782 0.4196
90.4690 19.7648 0.4154
90.4890 19.7515 0.4324
90.5090 19.7382 0.4204
90.5290 19.7249 0.4198
90.5490 19.7115 0.4255
90.5690 19.6982 0.4193
90.5890 19.6848 0.4176
90.6090 19.6715 0.4239
90.6290 19.6582 0.4187
90.6490 19.6449 0.4173
90.6690 19.6315 0.4258
90.6890 19.6182 0.4183
90.7090 19.6049 0.4135
90.7290 19.5916 0.4240
90.7490 19.5782 0.4200
90.7690 19.5648 0.4160
90.7890 19.5515 0.4251
90.8090 19.5382 0.4174
90.8290 19.5248 0.4116
90.8490 19.5115 0.4227
90.8690 19.4981 0.4208
90.8890 19.4848 0.4083
90.9090 19.4715 0.4214
90.9290 19.4581 0.4195
90.9490 19.4448 0.4097
90.9690 19.4315 0.4228
90.9890 19.4182 0.4149
91.0090 19.4049 0.4125
91.0290 19.3915 0.4208
91.0490 19.3782 0.4142
91.0690 19.3649 0.4100
91.0890 19.3516 0.4196
91.1090 19.3382 0.4148
91.1290 19.3248 0.4130
91.1490 19.3115 0.4166
91.1690 19.2982 0.4183
91.1890 19.2848 0.4089
91.2090 19.2714 0.4150
91.2290 19.2581 0.4202
91.2490 19.2448 0.4092
91.2690 19.2315 0.4095
91.2890 19.2181 0.4205
91.3090 19.2048 0.4077
91.3290 19.1915 0.4103
91.3490 19.1782 0.4186
91.3690 19.1648 0.4044
91.3890 19.1515 0.4129
91.4090 19.1382 0.4176
91.4290 19.1249 0.4026
91.4490 19.1116 0.4151
91.4690 19.0982 0.4205
91.4890 19.0849 0.4006
91.5090 19.0716 0.4118
91.5290 19.0582 0.4167
91.5490 19.0449 0.3964
91.5690 19.0315 0.4152
91.5890 19.0182 0.4185
91.6090 19.0048 0.3959
91.6290 18.9915 0.4138
91.6490 18.9781 0.4144
91.6690 18.9648 0.4007
91.6890 18.9515 0.4108
91.7090 18.9382 0.4126
91.7290 18.9249 0.3981
91.7490 18.9115 0.4156
91.7690 18.8982 0.4097
91.7890 18.8849 0.3926
91.8090 18.8716 0.4159
91.8290 18.8582 0.4117
91.8490 18.8449 0.3918
91.8690 18.8316 0.4115
91.8890 18.8182 0.4086
91.9090 18.8049 0.3932
91.9290 18.7915 0.4120
91.9490 18.7781 0.4083
91.9690 18.7648 0.3941
91.9890 18.7515 0.4095
92.0090 18.7381 0.4013
92.0290 18.7248 0.3967
92.0490 18.7115 0.4107
92.0690 18.6982 0.4008
92.0890 18.6849 0.3928
92.1090 18.6715 0.4090
92.1290 18.6582 0.4022
92.1490 18.6449 0.3946
92.1690 18.6316 0.4075
92.1890 18.6182 0.3985
92.2090 18.6049 0.3964
92.2290 18.5915 0.4048
92.2490 18.5782 0.3970
92.2690 18.5648 0.3946
92.2890 18.5515 0.4048
92.3090 18.5382 0.3918
92.3290 18.5248 0.3957
92.3490 18.5115 0.4022
92.3690 18.4981 0.3961
92.3890 18.4848 0.3946
92.4090 18.4715 0.3986
92.4290 18.4582 0.3979
92.4490 18.4448 0.3962
92.4690 18.4315 0.3966
92.4890 18.4182 0.3964
92.5090 18.4049 0.3909
92.5290 18.3916 0.3950
92.5490 18.3782 0.3990
92.5690 18.3649 0.3941
92.5890 18.3516 0.3916
92.6090 18.3383 0.3945
92.6290 18.3249 0.3866
92.6490 18.3115 0.3967
92.6690 18.2981 0.4015
92.6890 18.2848 0.3885
92.7090 18.2715 0.3914
92.7290 18.2581 0.3944
92.7490 18.2448 0.3877
92.7690 18.2314 0.3970
92.7890 18.2181 0.3911
92.8090 18.2048 0.3843
92.8290 18.1915 0.3995
92.8490 18.1782 0.3858
92.8690 18.1649 0.3878
92.8890 18.1515 0.3958
92.9090 18.1382 0.3870
92.9290 18.1249 0.3867
92.9490 18.1116 0.3928
92.9690 18.0983 0.3858
92.9890 18.0849 0.3872
93.0090 18.0715 0.3924
93.0290 18.0582 0.3815
93.0490 18.0449 0.3882
93.0690 18.0315 0.3886
93.0890 18.0182 0.3822
93.1090 18.0048 0.3958
93.1290 17.9915 0.3840
93.1490 17.9782 0.3766
93.1690 17.9648 0.3948
93.1890 17.9515 0.3851
93.2090 17.9382 0.3784
93.2290 17.9249 0.3962
93.2490 17.9116 0.3772
93.2690 17.8982 0.3823
93.2890 17.8848 0.3954
93.3090 17.8715 0.3749
93.3290 17.8582 0.3826
93.3490 17.8449 0.3902
93.3690 17.8315 0.3729
93.3890 17.8182 0.3878
93.4090 17.8049 0.3841
93.4290 17.7916 0.3738
93.4490 17.7782 0.3878
93.4690 17.7648 0.3835
93.4890 17.7515 0.3760
93.5090 17.7382 0.3873
93.5290 17.7248 0.3794
93.5490 17.7115 0.3775
93.5690 17.6982 0.3847
93.5890 17.6849 0.3794
93.6090 17.6715 0.3794
93.6290 17.6582 0.3804
93.6490 17.6449 0.3743
93.6690 17.6316 0.3833
93.6890 17.6183 0.3806
93.7090 17.6049 0.3729
93.7290 17.5915 0.3814
93.7490 17.5781 0.3783
93.7690 17.5648 0.3804
93.7890 17.5515 0.3797
93.8090 17.5381 0.3727
93.8290 17.5248 0.3818
93.8490 17.5115 0.3775
93.8690 17.4982 0.3701
93.8890 17.4849 0.3791
93.9090 17.4715 0.3769
93.9290 17.4582 0.3716
93.9490 17.4449 0.3762
93.9690 17.4316 0.3753
93.9890 17.4182 0.3691
94.0090 17.4048 0.3815
94.0290 17.3915 0.3753
94.0490 17.3782 0.3676
94.0690 17.3649 0.3754
94.0890 17.3515 0.3732
94.1090 17.3381 0.3734
94.1290 17.3248 0.3739
94.1490 17.3115 0.3689
94.1690 17.2981 0.3731
94.1890 17.2848 0.3762
94.2090 17.2715 0.3718
94.2290 17.2582 0.3674
94.2490 17.2449 0.3699
94.2690 17.2315 0.3739
94.2890 17.2182 0.3735
94.3090 17.2049 0.3689
94.3290 17.1916 0.3696
94.3490 17.1782 0.3686
94.3690 17.1648 0.3728
94.3890 17.1515 0.3716
94.4090 17.1382 0.3682
94.4290 17.1248 0.3686
94.4490 17.1115 0.3715
94.4690 17.0981 0.3682
94.4890 17.0848 0.3686
94.5090 17.0715 0.3674
94.5290 17.0582 0.3661
94.5490 17.0448 0.3718
94.5690 17.0315 0.3627
94.5890 17.0182 0.3648
94.6090 17.0049 0.3709
94.6290 16.9915 0.3640
94.6490 16.9782 0.3653
94.6690 16.9649 0.3707
94.6890 16.9516 0.3632
94.7090 16.9382 0.3660
94.7290 16.9249 0.3702
94.7490 16.9115 0.3605
94.7690 16.8982 0.3615
94.7890 16.8849 0.3677
94.8090 16.8715 0.3664
94.8290 16.8581 0.3646
94.8490 16.8448 0.3656
94.8690 16.8315 0.3627
94.8890 16.8182 0.3596
94.9090 16.8048 0.3675
94.9290 16.7915 0.3632
94.9490 16.7782 0.3576
94.9690 16.7649 0.3616
94.9890 16.7515 0.3646
95.0090 16.7382 0.3581
95.0290 16.7249 0.3665
95.0490 16.7116 0.3659
95.0690 16.6982 0.3544
95.0890 16.6848 0.3673
95.1090 16.6715 0.3621
95.1290 16.6582 0.3511
95.1490 16.6449 0.3677
95.1690 16.6315 0.3615
95.1890 16.6181 0.3489
95.2090 16.6048 0.3674
95.2290 16.5915 0.3589
95.2490 16.5781 0.3540
95.2690 16.5648 0.3675
95.2890 16.5514 0.3593
95.3090 16.5381 0.3498
95.3290 16.5248 0.3646
95.3490 16.5115 0.3576
95.3690 16.4982 0.3498
95.3890 16.4849 0.3693
95.4090 16.4716 0.3540
95.4290 16.4582 0.3470
95.4490 16.4449 0.3710
95.4690 16.4315 0.3490
95.4890 16.4182 0.3521
95.5090 16.4049 0.3665
95.5290 16.3915 0.3471
95.5490 16.3782 0.3510
95.5690 16.3648 0.3683
95.5890 16.3515 0.3479
95.6090 16.3382 0.3544
95.6290 16.3248 0.3630
95.6490 16.3115 0.3478
95.6690 16.2982 0.3537
95.6890 16.2849 0.3601
95.7090 16.2715 0.3491
95.7290 16.2582 0.3550
95.7490 16.2449 0.3541
95.7690 16.2316 0.3530
95.7890 16.2182 0.3525
95.8090 16.2049 0.3541
95.8290 16.1916 0.3569
95.8490 16.1782 0.3472
95.8690 16.1649 0.3497
95.8890 16.1515 0.3545
95.9090 16.1381 0.3495
95.9290 16.1248 0.3538
95.9490 16.1115 0.3497
95.9690 16.0981 0.3464
95.9890 16.0848 0.3529
96.0090 16.0715 0.3507
96.0290 16.0582 0.3467
96.0490 16.0449 0.3510
96.0690 16.0315 0.3502
96.0890 16.0182 0.3439
96.1090 16.0049 0.3541
96.1290 15.9916 0.3463
96.1490 15.9783 0.3432
96.1690 15.9649 0.3523
96.1890 15.9515 0.3438
96.2090 15.9382 0.3384
96.2290 15.9249 0.3524
96.2490 15.9115 0.3438
96.2690 15.8981 0.3418
96.2890 15.8848 0.3524
96.3090 15.8715 0.3419
96.3290 15.8582 0.3357
96.3490 15.8448 0.3552
96.3690 15.8315 0.3444
96.3890 15.8182 0.3351
96.4090 15.8048 0.3566
96.4290 15.7915 0.3404
96.4490 15.7782 0.3369
96.4690 15.7649 0.3577
96.4890 15.7516 0.3371
96.5090 15.7382 0.3369
96.5290 15.7249 0.3500
96.5490 15.7115 0.3408
96.5690 15.6982 0.3389
96.5890 15.6849 0.3496
96.6090 15.6715 0.3376
96.6290 15.6581 0.3372
96.6490 15.6448 0.3461
96.6690 15.6315 0.3356
96.6890 15.6182 0.3380
96.7090 15.6048 0.3422
96.7290 15.5915 0.3389
96.7490 15.5782 0.3373
96.7690 15.5648 0.3386
96.7890 15.5515 0.3409
96.8090 15.5382 0.3400
96.8290 15.5248 0.3410
96.8490 15.5115 0.3411
96.8690 15.4982 0.3322
96.8890 15.4849 0.3415
96.9090 15.4715 0.3418
96.9290 15.4582 0.3322
96.9490 15.4449 0.3398
96.9690 15.4316 0.3374
96.9890 15.4182 0.3323
97.0090 15.4048 0.3412
97.0290 15.3915 0.3352
97.0490 15.3782 0.3310
97.0690 15.3648 0.3377
97.0890 15.3515 0.3373
97.1090 15.3382 0.3342
97.1290 15.3249 0.3387
97.1490 15.3115 0.3320
97.1690 15.2982 0.3335
97.1890 15.2849 0.3390
97.2090 15.2716 0.3327
97.2290 15.2582 0.3281
97.2490 15.2449 0.3368
97.2690 15.2315 0.3350
97.2890 15.2182 0.3268
97.3090 15.2049 0.3375
97.3290 15.1915 0.3365
97.3490 15.1781 0.3245
97.3690 15.1648 0.3379
97.3890 15.1515 0.3333
97.4090 15.1382 0.3254
97.4290 15.1248 0.3335
97.4490 15.1115 0.3318
97.4690 15.0982 0.3253
97.4890 15.0848 0.3340
97.5090 15.0715 0.3305
97.5290 15.0581 0.3287
97.5490 15.0449 0.3347
97.5690 15.0316 0.3232
97.5890 15.0183 0.3276
97.6090 15.0049 0.3341
97.6290 14.9915 0.3248
97.6490 14.9782 0.3336
97.6690 14.9648 0.3286
97.6890 14.9515 0.3184
97.7090 14.9381 0.3323
97.7290 14.9248 0.3306
97.7490 14.9115 0.3247
97.7690 14.8982 0.3267
97.7890 14.8848 0.3193
97.8090 14.8715 0.3268
97.8290 14.8582 0.3352
97.8490 14.8449 0.3161
97.8690 14.8315 0.3289
97.8890 14.8182 0.3317
97.9090 14.8049 0.3140
97.9290 14.7916 0.3275
97.9490 14.7782 0.3299
97.9690 14.7649 0.3178
97.9890 14.7515 0.3284
98.0090 14.7382 0.3235
98.0290 14.7249 0.3146
98.0490 14.7115 0.3278
98.0690 14.6981 0.3252
98.0890 14.6848 0.3170
98.1090 14.6715 0.3214
98.1290 14.6581 0.3208
98.1490 14.6448 0.3203
98.1690 14.6314 0.3272
98.1890 14.6182 0.3234
98.2090 14.6049 0.3180
98.2290 14.5915 0.3187
98.2490 14.5782 0.3213
98.2690 14.5649 0.3216
98.2890 14.5516 0.3214
98.3090 14.5382 0.3203
98.3290 14.5249 0.3201
98.3490 14.5115 0.3163
98.3690 14.4982 0.3207
98.3890 14.4848 0.3159
98.4090 14.4715 0.3157
98.4290 14.4581 0.3222
98.4490 14.4448 0.3171
98.4690 14.4315 0.3199
98.4890 14.4182 0.3215
98.5090 14.4048 0.3098
98.5290 14.3915 0.3205
98.5490 14.3781 0.3219
98.5690 14.3648 0.3060
98.5890 14.3515 0.3153
98.6090 14.3381 0.3205
98.6290 14.3248 0.3098
98.6490 14.3115 0.3134
98.6690 14.2982 0.3161
98.6890 14.2849 0.3147
98.7090 14.2715 0.3166
98.7290 14.2582 0.3157
98.7490 14.2449 0.3048
98.7690 14.2315 0.3160
98.7890 14.2182 0.3165
98.8090 14.2048 0.3072
98.8290 14.1915 0.3156
98.8490 14.1782 0.3144
98.8690 14.1648 0.3050
98.8890 14.1515 0.3133
98.9090 14.1381 0.3139
98.9290 14.1248 0.3080
98.9490 14.1115 0.3113
98.9690 14.0982 0.3152
98.9890 14.0848 0.3068
99.0090 14.0715 0.3091
99.0290 14.0582 0.3132
99.0490 14.0449 0.3074
99.0690 14.0315 0.3085
99.0890 14.0182 0.3152
99.1090 14.0049 0.3029
99.1290 13.9915 0.3022
99.1490 13.9782 0.3143
99.1690 13.9648 0.3022
99.1890 13.9515 0.3071
99.2090 13.9381 0.3117
99.2290 13.9248 0.2976
99.2490 13.9114 0.3059
99.2690 13.8981 0.3157
99.2890 13.8848 0.2953
99.3090 13.8715 0.3034
99.3290 13.8582 0.3155
99.3490 13.8449 0.2957
99.3690 13.8316 0.3030
99.3890 13.8183 0.3102
99.4090 13.8049 0.2980
99.4290 13.7915 0.3073
99.4490 13.7782 0.3014
99.4690 13.7649 0.2975
99.4890 13.7515 0.3016
99.5090 13.7382 0.3064
99.5290 13.7248 0.2920
99.5490 13.7115 0.3042
99.5690 13.6982 0.3065
99.5890 13.6848 0.2922
99.6090 13.6715 0.3066
99.6290 13.6581 0.3047
99.6490 13.6448 0.2920
99.6690 13.6315 0.3060
99.6890 13.6182 0.2989
99.7090 13.6049 0.2935
99.7290 13.5916 0.3000
99.7490 13.5782 0.3024
99.7690 13.5649 0.2955
99.7890 13.5515 0.2997
99.8090 13.5382 0.2975
99.8290 13.5249 0.2947
99.8490 13.5115 0.2989
99.8690 13.4982 0.2932
99.8890 13.4848 0.2986
99.9090 13.4715 0.2975
99.9290 13.4582 0.2928
99.9490 13.4448 0.3030
99.9690 13.4315 0.2909
99.9890 13.4181 0.2926
100.0090 13.4048 0.3014
100.0290 13.3915 0.2871
100.0490 13.3782 0.2895
100.0690 13.3648 0.3005
100.0890 13.3515 0.2903
100.1090 13.3382 0.2904
100.1290 13.3249 0.2979
100.1490 13.3115 0.2855
100.1690 13.2982 0.2972
100.1890 13.2849 0.2947
100.2090 13.2716 0.2837
100.2290 13.2582 0.2949
100.2490 13.2448 0.2944
100.2690 13.2315 0.2875
100.2890 13.2182 0.2977
100.3090 13.2049 0.2877
100.3290 13.1915 0.2885
100.3490 13.1781 0.2984
100.3690 13.1648 0.2897
100.3890 13.1515 0.2821
100.4090 13.1382 0.2960
100.4290 13.1248 0.2839
100.4490 13.1115 0.2833
100.4690 13.0982 0.2993
100.4890 13.0849 0.2865
100.5090 13.0715 0.2866
100.5290 13.0582 0.2927
100.5490 13.0449 0.2843
100.5690 13.0315 0.2834
100.5890 13.0182 0.2943
100.6090 13.0048 0.2878
100.6290 12.9915 0.2781
100.6490 12.9782 0.2940
100.6690 12.9648 0.2814
100.6890 12.9515 0.2827
100.7090 12.9381 0.2932
100.7290 12.9248 0.2756
100.7490 12.9115 0.2804
100.7690 12.8981 0.2898
100.7890 12.8848 0.2821
100.8090 12.8715 0.2782
100.8290 12.8582 0.2901
100.8490 12.8449 0.2806
100.8690 12.8315 0.2769
100.8890 12.8182 0.2931
100.9090 12.8049 0.2798
100.9290 12.7916 0.2744
100.9490 12.7782 0.2886
100.9690 12.7648 0.2748
100.9890 12.7515 0.2814
101.0090 12.7382 0.2887
101.0290 12.7248 0.2749
101.0490 12.7115 0.2778
101.0690 12.6981 0.2886
101.0890 12.6848 0.2737
101.1090 12.6715 0.2774
101.1290 12.6582 0.2842
101.1490 12.6449 0.2755
101.1690 12.6316 0.2725
101.1890 12.6183 0.2860
101.2090 12.6049 0.2728
101.2290 12.5915 0.2762
101.2490 12.5782 0.2859
101.2690 12.5649 0.2701
101.2890 12.5515 0.2726
101.3090 12.5382 0.2855
101.3290 12.5248 0.2730
101.3490 12.5115 0.2717
101.3690 12.4982 0.2839
101.3890 12.4848 0.2673
101.4090 12.4715 0.2698
101.4290 12.4581 0.2830
101.4490 12.4448 0.2728
101.4690 12.4315 0.2697
101.4890 12.4182 0.2821
101.5090 12.4048 0.2695
101.5290 12.3915 0.2718
101.5490 12.3782 0.2759
101.5690 12.3649 0.2694
101.5890 12.3515 0.2696
101.6090 12.3382 0.2802
101.6290 12.3249 0.2677
101.6490 12.3115 0.2688
101.6690 12.2982 0.2753
101.6890 12.2848 0.2686
101.7090 12.2715 0.2672
101.7290 12.2582 0.2738
101.7490 12.2448 0.2676
101.7690 12.2315 0.2697
101.7890 12.2181 0.2716
101.8090 12.2048 0.2666
101.8290 12.1915 0.2644
101.8490 12.1782 0.2737
101.8690 12.1648 0.2665
101.8890 12.1515 0.2631
101.9090 12.1382 0.2713
101.9290 12.1249 0.2662
101.9490 12.1115 0.2658
101.9690 12.0982 0.2705
101.9890 12.0849 0.2661
102.0090 12.0715 0.2630
102.0290 12.0582 0.2686
102.0490 12.0448 0.2633
102.0690 12.0315 0.2653
102.0890 12.0182 0.2663
102.1090 12.0048 0.2557
102.1290 11.9915 0.2665
102.1490 11.9781 0.2651
102.1690 11.9648 0.2607
102.1890 11.9515 0.2660
102.2090 11.9382 0.2594
102.2290 11.9249 0.2605
102.2490 11.9116 0.2653
102.2690 11.8983 0.2577
102.2890 11.8849 0.2593
102.3090 11.8715 0.2711
102.3290 11.8582 0.2579
102.3490 11.8449 0.2583
102.3690 11.8316 0.2647
102.3890 11.8182 0.2536
102.4090 11.8048 0.2596
102.4290 11.7915 0.2622
102.4490 11.7782 0.2556
102.4690 11.7648 0.2579
102.4890 11.7515 0.2584
102.5090 11.7381 0.2578
102.5290 11.7248 0.2547
102.5490 11.7115 0.2647
102.5690 11.6982 0.2521
102.5890 11.6849 0.2589
102.6090 11.6716 0.2628
102.6290 11.6583 0.2518
102.6490 11.6449 0.2592
102.6690 11.6316 0.2559
102.6890 11.6182 0.2529
102.7090 11.6049 0.2557
102.7290 11.5916 0.2551
102.7490 11.5782 0.2549
102.7690 11.5648 0.2547
102.7890 11.5515 0.2581
102.8090 11.5382 0.2511
102.8290 11.5248 0.2533
102.8490 11.5115 0.2567
102.8690 11.4981 0.2550
102.8890 11.4848 0.2521
102.9090 11.4715 0.2528
102.9290 11.4582 0.2503
102.9490 11.4448 0.2495
102.9690 11.4315 0.2570
102.9890 11.4182 0.2519
103.0090 11.4049 0.2479
103.0290 11.3916 0.2531
103.0490 11.3782 0.2517
103.0690 11.3649 0.2475
103.0890 11.3516 0.2531
103.1090 11.3382 0.2490
103.1290 11.3248 0.2501
103.1490 11.3115 0.2553
103.1690 11.2981 0.2452
103.1890 11.2848 0.2446
103.2090 11.2715 0.2550
103.2290 11.2581 0.2417
103.2490 11.2448 0.2493
103.2690 11.2315 0.2509
103.2890 11.2182 0.2457
103.3090 11.2049 0.2474
103.3290 11.1916 0.2505
103.3490 11.1783 0.2438
103.3690 11.1650 0.2498
103.3890 11.1516 0.2516
103.4090 11.1382 0.2432
103.4290 11.1248 0.2423
103.4490 11.1115 0.2507
103.4690 11.0982 0.2390
103.4890 11.0848 0.2473
103.5090 11.0715 0.2513
103.5290 11.0582 0.2394
103.5490 11.0449 0.2445
103.5690 11.0315 0.2464
103.5890 11.0181 0.2388
103.6090 11.0048 0.2454
103.6290 10.9915 0.2479
103.6490 10.9782 0.2357
103.6690 10.9648 0.2437
103.6890 10.9515 0.2458
103.7090 10.9382 0.2354
103.7290 10.9249 0.2434
103.7490 10.9116 0.2441
103.7690 10.8982 0.2349
103.7890 10.8849 0.2415
103.8090 10.8715 0.2409
103.8290 10.8582 0.2329
103.8490 10.8448 0.2437
103.8690 10.8315 0.2429
103.8890 10.8182 0.2339
103.9090 10.8048 0.2438
103.9290 10.7915 0.2386
103.9490 10.7781 0.2361
103.9690 10.7648 0.2427
103.9890 10.7515 0.2378
104.0090 10.7382 0.2328
104.0290 10.7248 0.2446
104.0490 10.7115 0.2382
104.0690 10.6982 0.2366
104.0890 10.6849 0.2445
104.1090 10.6715 0.2327
104.1290 10.6582 0.2368
104.1490 10.6449 0.2453
104.1690 10.6316 0.2282
104.1890 10.6182 0.2409
104.2090 10.6049 0.2379
104.2290 10.5915 0.2297
104.2490 10.5782 0.2363
104.2690 10.5649 0.2337
104.2890 10.5515 0.2319
104.3090 10.5381 0.2360
104.3290 10.5248 0.2328
104.3490 10.5115 0.2294
104.3690 10.4982 0.2436
104.3890 10.4848 0.2276
104.4090 10.4715 0.2317
104.4290 10.4582 0.2422
104.4490 10.4449 0.2209
104.4690 10.4315 0.2328
104.4890 10.4182 0.2386
104.5090 10.4049 0.2249
104.5290 10.3916 0.2342
104.5490 10.3782 0.2342
104.5690 10.3648 0.2272
104.5890 10.3515 0.2344
104.6090 10.3381 0.2348
104.6290 10.3248 0.2246
104.6490 10.3115 0.2327
104.6690 10.2981 0.2322
104.6890 10.2848 0.2246
104.7090 10.2715 0.2286
104.7290 10.2582 0.2309
104.7490 10.2448 0.2261
104.7690 10.2315 0.2293
104.7890 10.2182 0.2313
104.8090 10.2049 0.2266
104.8290 10.1916 0.2258
104.8490 10.1782 0.2282
104.8690 10.1648 0.2240
104.8890 10.1515 0.2272
104.9090 10.1382 0.2333
104.9290 10.1248 0.2271
104.9490 10.1115 0.2227
104.9690 10.0981 0.2275
104.9890 10.0849 0.2191
105.0090 10.0715 0.2268
105.0290 10.0582 0.2280
105.0490 10.0448 0.2157
105.0690 10.0315 0.2255
105.0890 10.0182 0.2285
105.1090 10.0048 0.2141
105.1290 9.9915 0.2307
105.1490 9.9782 0.2257
105.1690 9.9649 0.2096
105.1890 9.9516 0.2305
105.2090 9.9382 0.2227
105.2290 9.9248 0.2150
105.2490 9.9115 0.2264
105.2690 9.8982 0.2239
105.2890 9.8848 0.2128
105.3090 9.8715 0.2242
105.3290 9.8581 0.2252
105.3490 9.8448 0.2098
105.3690 9.8315 0.2265
105.3890 9.8181 0.2193
105.4090 9.8048 0.2140
105.4290 9.7915 0.2270
105.4490 9.7782 0.2143
105.4690 9.7649 0.2140
105.4890 9.7515 0.2255
105.5090 9.7382 0.2173
105.5290 9.7249 0.2118
105.5490 9.7116 0.2238
105.5690 9.6982 0.2132
105.5890 9.6849 0.2101
105.6090 9.6716 0.2222
105.6290 9.6582 0.2125
105.6490 9.6448 0.2057
105.6690 9.6315 0.2239
105.6890 9.6181 0.2124
105.7090 9.6049 0.2097
105.7290 9.5915 0.2181
105.7490 9.5782 0.2094
105.7690 9.5648 0.2101
105.7890 9.5515 0.2145
105.8090 9.5381 0.2114
105.8290 9.5248 0.2134
105.8490 9.5115 0.2140
105.8690 9.4982 0.2092
105.8890 9.4849 0.2089
105.9090 9.4716 0.2118
105.9290 9.4582 0.2089
105.9490 9.4449 0.2119
105.9690 9.4316 0.2121
105.9890 9.4182 0.2087
106.0090 9.4049 0.2108
106.0290 9.3915 0.2058
106.0490 9.3781 0.2101
106.0690 9.3648 0.2038
106.0890 9.3515 0.2036
106.1090 9.3381 0.2119
106.1290 9.3248 0.2061
106.1490 9.3115 0.2077
106.1690 9.2982 0.2088
106.1890 9.2848 0.2037
106.2090 9.2715 0.2076
106.2290 9.2582 0.2096
106.2490 9.2449 0.2018
106.2690 9.2316 0.2037
106.2890 9.2182 0.2098
106.3090 9.2049 0.1960
106.3290 9.1915 0.2084
106.3490 9.1782 0.2048
106.3690 9.1649 0.1927
106.3890 9.1515 0.2051
106.4090 9.1381 0.2039
106.4290 9.1248 0.1947
106.4490 9.1115 0.2084
106.4690 9.0981 0.2014
106.4890 9.0848 0.1957
106.5090 9.0715 0.2037
106.5290 9.0582 0.1966
106.5490 9.0448 0.1974
106.5690 9.0315 0.2048
106.5890 9.0182 0.1947
106.6090 9.0049 0.1958
106.6290 8.9916 0.2027
106.6490 8.9782 0.1956
106.6690 8.9649 0.1957
106.6890 8.9515 0.1981
106.7090 8.9382 0.1928
106.7290 8.9249 0.1985
106.7490 8.9115 0.1959
106.7690 8.8982 0.1946
106.7890 8.8848 0.1977
106.8090 8.8715 0.1921
106.8290 8.8582 0.1913
106.8490 8.8448 0.1925
106.8690 8.8315 0.1971
106.8890 8.8182 0.1934
106.9090 8.8048 0.1947
106.9290 8.7915 0.1951
106.9490 8.7782 0.1927
106.9690 8.7649 0.1970
106.9890 8.7516 0.1907
107.0090 8.7382 0.1913
107.0290 8.7249 0.1937
107.0490 8.7115 0.1873
107.0690 8.6982 0.1947
107.0890 8.6849 0.1893
107.1090 8.6715 0.1914
107.1290 8.6581 0.1928
107.1490 8.6448 0.1866
107.1690 8.6315 0.1880
107.1890 8.6181 0.1928
107.2090 8.6048 0.1832
107.2290 8.5915 0.1853
107.2490 8.5782 0.1923
107.2690 8.5648 0.1863
107.2890 8.5515 0.1861
107.3090 8.5382 0.1894
107.3290 8.5249 0.1862
107.3490 8.5115 0.1835
107.3690 8.4982 0.1879
107.3890 8.4848 0.1895
107.4090 8.4715 0.1827
107.4290 8.4582 0.1829
107.4490 8.4449 0.1857
107.4690 8.4315 0.1802
107.4890 8.4182 0.1839
107.5090 8.4048 0.1880
107.5290 8.3915 0.1797
107.5490 8.3782 0.1825
107.5690 8.3648 0.1882
107.5890 8.3515 0.1733
107.6090 8.3382 0.1842
107.6290 8.3248 0.1874
107.6490 8.3115 0.1718
107.6690 8.2982 0.1861
107.6890 8.2849 0.1847
107.7090 8.2716 0.1692
107.7290 8.2582 0.1881
107.7490 8.2448 0.1829
107.7690 8.2315 0.1652
107.7890 8.2182 0.1891
107.8090 8.2049 0.1798
107.8290 8.1915 0.1659
107.8490 8.1782 0.1876
107.8690 8.1649 0.1776
107.8890 8.1516 0.1644
107.9090 8.1382 0.1877
107.9290 8.1248 0.1756
107.9490 8.1114 0.1681
107.9690 8.0981 0.1902
107.9890 8.0848 0.1729
108.0090 8.0715 0.1694
108.0290 8.0582 0.1864
108.0490 8.0449 0.1681
108.0690 8.0316 0.1744
108.0890 8.0182 0.1767
108.1090 8.0049 0.1712
108.1290 7.9915 0.1749
108.1490 7.9782 0.1728
108.1690 7.9649 0.1704
108.1890 7.9515 0.1743
108.2090 7.9381 0.1739
108.2290 7.9248 0.1731
108.2490 7.9115 0.1722
108.2690 7.8982 0.1713
108.2890 7.8848 0.1742
108.3090 7.8715 0.1691
108.3290 7.8582 0.1694
108.3490 7.8449 0.1766
108.3690 7.8315 0.1686
108.3890 7.8182 0.1695
108.4090 7.8049 0.1732
108.4290 7.7916 0.1642
108.4490 7.7782 0.1671
108.4690 7.7649 0.1723
108.4890 7.7515 0.1649
108.5090 7.7382 0.1709
108.5290 7.7249 0.1679
108.5490 7.7115 0.1663
108.5690 7.6981 0.1672
108.5890 7.6848 0.1696
108.6090 7.6715 0.1662
108.6290 7.6582 0.1616
108.6490 7.6448 0.1655
108.6690 7.6315 0.1675
108.6890 7.6182 0.1626
108.7090 7.6048 0.1663
108.7290 7.5915 0.1654
108.7490 7.5782 0.1610
108.7690 7.5649 0.1671
108.7890 7.5516 0.1670
108.8090 7.5382 0.1601
108.8290 7.5248 0.1690
108.8490 7.5115 0.1626
108.8690 7.4982 0.1602
108.8890 7.4849 0.1659
108.9090 7.4715 0.1657
108.9290 7.4581 0.1556
108.9490 7.4448 0.1649
108.9690 7.4315 0.1598
108.9890 7.4182 0.1555
109.0090 7.4048 0.1659
109.0290 7.3915 0.1616
109.0490 7.3782 0.1590
109.0690 7.3649 0.1642
109.0890 7.3515 0.1597
109.1090 7.3382 0.1557
109.1290 7.3249 0.1667
109.1490 7.3116 0.1575
109.1690 7.2982 0.1516
109.1890 7.2849 0.1654
109.2090 7.2715 0.1562
109.2290 7.2582 0.1568
109.2490 7.2449 0.1620
109.2690 7.2315 0.1533
109.2890 7.2181 0.1581
109.3090 7.2048 0.1625
109.3290 7.1915 0.1512
109.3490 7.1782 0.1517
109.3690 7.1648 0.1637
109.3890 7.1515 0.1488
109.4090 7.1382 0.1524
109.4290 7.1249 0.1622
109.4490 7.1115 0.1489
109.4690 7.0982 0.1532
109.4890 7.0849 0.1614
109.5090 7.0716 0.1461
109.5290 7.0583 0.1540
109.5490 7.0449 0.1549
109.5690 7.0315 0.1502
109.5890 7.0182 0.1535
109.6090 7.0048 0.1540
109.6290 6.9915 0.1418
109.6490 6.9781 0.1545
109.6690 6.9648 0.1548
109.6890 6.9515 0.1436
109.7090 6.9382 0.1533
109.7290 6.9248 0.1549
109.7490 6.9115 0.1423
109.7690 6.8981 0.1504
109.7890 6.8848 0.1499
109.8090 6.8715 0.1477
109.8290 6.8582 0.1464
109.8490 6.8449 0.1443
109.8690 6.8316 0.1439
109.8890 6.8182 0.1473
109.9090 6.8049 0.1455
109.9290 6.7915 0.1486
109.9490 6.7782 0.1442
109.9690 6.7649 0.1434
109.9890 6.7515 0.1501
110.0090 6.7381 0.1431
110.0290 6.7248 0.1461
110.0490 6.7115 0.1475
110.0690 6.6982 0.1392
110.0890 6.6848 0.1436
110.1090 6.6715 0.1503
110.1290 6.6582 0.1385
110.1490 6.6448 0.1400
110.1690 6.6315 0.1455
110.1890 6.6182 0.1426
110.2090 6.6049 0.1413
110.2290 6.5916 0.1446
110.2490 6.5782 0.1385
110.2690 6.5649 0.1428
110.2890 6.5515 0.1441
110.3090 6.5382 0.1362
110.3290 6.5249 0.1384
110.3490 6.5115 0.1407
110.3690 6.4981 0.1349
110.3890 6.4848 0.1398
110.4090 6.4715 0.1380
110.4290 6.4581 0.1364
110.4490 6.4448 0.1363
110.4690 6.4315 0.1364
110.4890 6.4182 0.1329
110.5090 6.4049 0.1367
110.5290 6.3915 0.1350
110.5490 6.3782 0.1345
110.5690 6.3649 0.1383
110.5890 6.3516 0.1313
110.6090 6.3383 0.1292
110.6290 6.3249 0.1366
110.6490 6.3115 0.1313
110.6690 6.2982 0.1343
110.6890 6.2849 0.1319
110.7090 6.2715 0.1251
110.7290 6.2581 0.1364
110.7490 6.2448 0.1325
110.7690 6.2315 0.1283
110.7890 6.2182 0.1308
110.8090 6.2048 0.1299
110.8290 6.1915 0.1293
110.8490 6.1782 0.1288
110.8690 6.1648 0.1260
110.8890 6.1515 0.1279
110.9090 6.1382 0.1315
110.9290 6.1248 0.1229
110.9490 6.1116 0.1254
110.9690 6.0982 0.1297
110.9890 6.0849 0.1230
111.0090 6.0715 0.1296
111.0290 6.0582 0.1237
111.0490 6.0449 0.1178
111.0690 6.0315 0.1279
111.0890 6.0181 0.1222
111.1090 6.0048 0.1217
111.1290 5.9915 0.1255
111.1490 5.9782 0.1187
111.1690 5.9648 0.1211
111.1890 5.9515 0.1261
111.2090 5.9381 0.1231
111.2290 5.9248 0.1180
111.2490 5.9115 0.1186
111.2690 5.8981 0.1180
111.2890 5.8848 0.1149
111.3090 5.8715 0.1240
111.3290 5.8582 0.1187
111.3490 5.8449 0.1133
111.3690 5.8315 0.1207
111.3890 5.8182 0.1205
111.4090 5.8049 0.1141
111.4290 5.7916 0.1213
111.4490 5.7782 0.1221
111.4690 5.7648 0.1095
111.4890 5.7515 0.1178
111.5090 5.7382 0.1202
111.5290 5.7248 0.1088
111.5490 5.7115 0.1218
111.5690 5.6982 0.1183
111.5890 5.6848 0.1086
111.6090 5.6715 0.1199
111.6290 5.6582 0.1170
111.6490 5.6448 0.1087
111.6690 5.6316 0.1210
111.6890 5.6182 0.1121
111.7090 5.6049 0.1039
111.7290 5.5915 0.1232
111.7490 5.5782 0.1112
111.7690 5.5649 0.0980
111.7890 5.5515 0.1260
111.8090 5.5382 0.1096
111.8290 5.5248 0.1021
111.8490 5.5115 0.1196
111.8690 5.4982 0.1058
111.8890 5.4848 0.1009
111.9090 5.4715 0.1225
111.9290 5.4581 0.1047
111.9490 5.4448 0.1034
111.9690 5.4315 0.1168
111.9890 5.4181 0.1053
112.0090 5.4048 0.0995
112.0290 5.3916 0.1122
112.0490 5.3783 0.1012
112.0690 5.3649 0.1020
112.0890 5.3515 0.1151
112.1090 5.3382 0.1014
112.1290 5.3249 0.0992
112.1490 5.3115 0.1111
112.1690 5.2981 0.1037
112.1890 5.2848 0.1005
112.2090 5.2715 0.1085
112.2290 5.2582 0.0992
112.2490 5.2448 0.0947
112.2690 5.2315 0.1101
112.2890 5.2182 0.0963
112.3090 5.2048 0.0986
112.3290 5.1915 0.1044
112.3490 5.1782 0.0950
112.3690 5.1649 0.0970
112.3890 5.1516 0.1041
112.4090 5.1382 0.1007
112.4290 5.1249 0.0954
112.4490 5.1115 0.1010
112.4690 5.0982 0.0923
112.4890 5.0849 0.0967
112.5090 5.0715 0.0986
112.5290 5.0582 0.0908
112.5490 5.0448 0.0964
112.5690 5.0315 0.0952
112.5890 5.0181 0.0885
112.6090 5.0048 0.0924
112.6290 4.9914 0.0984
112.6490 4.9781 0.0943
112.6690 4.9648 0.0882
112.6890 4.9515 0.0972
112.7090 4.9382 0.0874
112.7290 4.9249 0.0864
112.7490 4.9116 0.0963
112.7690 4.8982 0.0888
112.7890 4.8849 0.0829
112.8090 4.8715 0.0963
112.8290 4.8582 0.0907
112.8490 4.8449 0.0813
112.8690 4.8315 0.0920
112.8890 4.8182 0.0895
112.9090 4.8048 0.0792
112.9290 4.7915 0.0927
112.9490 4.7782 0.0883
112.9690 4.7648 0.0772
112.9890 4.7515 0.0880
113.0090 4.7382 0.0882
113.0290 4.7249 0.0795
113.0490 4.7115 0.0876
113.0690 4.6982 0.0829
113.0890 4.6848 0.0761
113.1090 4.6715 0.0863
113.1290 4.6582 0.0854
113.1490 4.6449 0.0765
113.1690 4.6315 0.0849
113.1890 4.6182 0.0804
113.2090 4.6049 0.0722
113.2290 4.5916 0.0836
113.2490 4.5782 0.0795
113.2690 4.5648 0.0774
113.2890 4.5515 0.0784
113.3090 4.5382 0.0780
113.3290 4.5248 0.0746
113.3490 4.5115 0.0755
113.3690 4.4981 0.0795
113.3890 4.4848 0.0773
113.4090 4.4715 0.0755
113.4290 4.4582 0.0762
113.4490 4.4448 0.0736
113.4690 4.4315 0.0768
113.4890 4.4182 0.0765
113.5090 4.4049 0.0700
113.5290 4.3915 0.0693
113.5490 4.3782 0.0811
113.5690 4.3649 0.0670
113.5890 4.3516 0.0704
113.6090 4.3382 0.0799
113.6290 4.3248 0.0624
113.6490 4.3115 0.0732
113.6690 4.2981 0.0758
113.6890 4.2848 0.0604
113.7090 4.2714 0.0740
113.7290 4.2581 0.0740
113.7490 4.2448 0.0591
113.7690 4.2315 0.0710
113.7890 4.2182 0.0786
113.8090 4.2048 0.0584
113.8290 4.1916 0.0712
113.8490 4.1783 0.0752
113.8690 4.1649 0.0526
113.8890 4.1515 0.0705
113.9090 4.1382 0.0772
113.9290 4.1248 0.0562
113.9490 4.1115 0.0652
113.9690 4.0982 0.0688
113.9890 4.0848 0.0561
114.0090 4.0715 0.0671
114.0290 4.0582 0.0655
114.0490 4.0448 0.0546
114.0690 4.0315 0.0651
114.0890 4.0181 0.0656
114.1090 4.0048 0.0551
114.1290 3.9915 0.0626
114.1490 3.9782 0.0627
114.1690 3.9649 0.0545
114.1890 3.9515 0.0630
114.2090 3.9382 0.0592
114.2290 3.9249 0.0536
114.2490 3.9115 0.0640
114.2690 3.8982 0.0556
114.2890 3.8849 0.0586
114.3090 3.8716 0.0651
114.3290 3.8582 0.0504
114.3490 3.8448 0.0507
114.3690 3.8315 0.0706
114.3890 3.8182 0.0448
114.4090 3.8048 0.0510
114.4290 3.7915 0.0674
114.4490 3.7781 0.0395
114.4690 3.7648 0.0525
114.4890 3.7515 0.0582
114.5090 3.7382 0.0419
114.5290 3.7248 0.0546
114.5490 3.7115 0.0556
114.5690 3.6982 0.0432
114.5890 3.6849 0.0539
114.6090 3.6715 0.0508
114.6290 3.6582 0.0446
114.6490 3.6449 0.0546
114.6690 3.6316 0.0462
114.6890 3.6182 0.0442
114.7090 3.6048 0.0528
114.7290 3.5915 0.0445
114.7490 3.5782 0.0451
114.7690 3.5649 0.0475
114.7890 3.5515 0.0487
114.8090 3.5381 0.0455
114.8290 3.5248 0.0463
114.8490 3.5115 0.0440
114.8690 3.4982 0.0423
114.8890 3.4848 0.0486
114.9090 3.4715 0.0443
114.9290 3.4582 0.0337
114.9490 3.4449 0.0448
114.9690 3.4315 0.0415
114.9890 3.4182 0.0386
115.0090 3.4049 0.0460
115.0290 3.3915 0.0402
115.0490 3.3782 0.0293
115.0690 3.3648 0.0404
115.0890 3.3515 0.0513
115.1090 3.3382 0.0292
115.1290 3.3249 0.0364
115.1490 3.3115 0.0440
115.1690 3.2981 0.0258
115.1890 3.2848 0.0399
115.2090 3.2715 0.0420
115.2290 3.2581 0.0250
115.2490 3.2448 0.0392
115.2690 3.2315 0.0419
115.2890 3.2182 0.0214
115.3090 3.2049 0.0374
115.3290 3.1915 0.0382
115.3490 3.1782 0.0231
115.3690 3.1649 0.0358
115.3890 3.1516 0.0304
115.4090 3.1382 0.0196
115.4290 3.1248 0.0380
115.4490 3.1115 0.0289
115.4690 3.0981 0.0188
115.4890 3.0848 0.0327
115.5090 3.0715 0.0202
115.5290 3.0581 0.0263
115.5490 3.0448 0.0304
115.5690 3.0315 0.0197
115.5890 3.0182 0.0225
115.6090 3.0049 0.0307
115.6290 2.9915 0.0196
115.6490 2.9782 0.0208
115.6690 2.9649 0.0309
115.6890 2.9515 0.0164
115.7090 2.9382 0.0145
115.7290 2.9249 0.0308
115.7490 2.9115 0.0241
115.7690 2.8982 0.0135
115.7890 2.8848 0.0256
115.8090 2.8715 0.0217
115.8290 2.8582 0.0090
115.8490 2.8448 0.0253
115.8690 2.8315 0.0181
115.8890 2.8181 0.0106
115.9090 2.8048 0.0263
115.9290 2.7915 0.0132
115.9490 2.7782 0.0067
115.9690 2.7648 0.0291
115.9890 2.7515 0.0152
116.0090 2.7382 0.0066
116.0290 2.7249 0.0203
116.0490 2.7115 0.0099
116.0690 2.6982 0.0082
116.0890 2.6849 0.0212
116.1090 2.6715 0.0065
116.1290 2.6582 0.0074
116.1490 2.6448 0.0179
116.1690 2.6315 0.0052
116.1890 2.6182 0.0088
116.2090 2.6048 0.0168
116.2290 2.5915 0.0032
116.2490 2.5781 0.0065
116.2690 2.5648 0.0131
116.2890 2.5515 0.0027
116.3090 2.5382 0.0103
116.3290 2.5249 0.0059
116.3490 2.5115 0.0003
116.3690 2.4982 0.0115
116.3890 2.4849 0.0052
116.4090 2.4715 0.0031
116.4290 2.4582 0.0115
116.4490 2.4448 0.0027
116.4690 2.4315 -0.0011
116.4890 2.4182 0.0043
116.5090 2.4048 0.0015
116.5290 2.3915 0.0037
116.5490 2.3781 0.0051
116.5690 2.3648 -0.0009
116.5890 2.3515 0.0018
116.6090 2.3381 -0.0007
116.6290 2.3248 0.0049
116.6490 2.3115 0.0070
116.6690 2.2982 -0.0053
116.6890 2.2849 0.0031
116.7090 2.2715 0.0050
116.7290 2.2582 -0.0073
116.7490 2.2449 0.0027
116.7690 2.2315 0.0018
116.7890 2.2182 -0.0067
116.8090 2.2048 0.0051
116.8290 2.1915 -0.0002
116.8490 2.1782 -0.0108
116.8690 2.1648 0.0054
116.8890 2.1515 -0.0007
116.9090 2.1382 -0.0051
116.9290 2.1248 0.0006
116.9490 2.1115 0.0024
116.9690 2.0981 -0.0074
116.9890 2.0848 0.0057
117.0090 2.0715 0.0031
117.0290 2.0582 -0.0083
117.0490 2.0449 0.0056
117.0690 2.0315 -0.0025
117.0890 2.0183 -0.0057
117.1090 2.0049 0.0010
117.1290 1.9916 -0.0033
117.1490 1.9782 -0.0036
117.1690 1.9649 0.0039
117.1890 1.9515 -0.0044
117.2090 1.9382 -0.0090
117.2290 1.9248 0.0028
117.2490 1.9115 0.0005
117.2690 1.8982 -0.0079
117.2890 1.8849 0.0034
117.3090 1.8715 -0.0039
117.3290 1.8581 -0.0075
117.3490 1.8448 0.0043
117.3690 1.8315 -0.0022
117.3890 1.8182 -0.0084
117.4090 1.8048 0.0037
117.4290 1.7915 -0.0003
117.4490 1.7782 -0.0079
117.4690 1.7649 0.0015
117.4890 1.7516 -0.0005
117.5090 1.7382 -0.0051
117.5290 1.7249 -0.0002
117.5490 1.7116 0.0005
117.5690 1.6982 -0.0088
117.5890 1.6848 0.0029
117.6090 1.6714 0.0036
117.6290 1.6581 -0.0079
117.6490 1.6448 0.0031
117.6690 1.6315 0.0017
117.6890 1.6181 -0.0074
117.7090 1.6048 0.0030
117.7290 1.5915 0.0022
117.7490 1.5782 -0.0096
117.7690 1.5649 0.0065
117.7890 1.5515 0.0038
117.8090 1.5382 -0.0115
117.8290 1.5249 0.0068
117.8490 1.5116 0.0015
117.8690 1.4982 -0.0116
117.8890 1.4848 0.0124
117.9090 1.4715 -0.0020
117.9290 1.4582 -0.0148
117.9490 1.4448 0.0119
117.9690 1.4315 -0.0002
117.9890 1.4182 -0.0123
118.0090 1.4049 0.0139
118.0290 1.3915 0.0017
118.0490 1.3781 -0.0105
118.0690 1.3648 0.0084
118.0890 1.3515 -0.0038
118.1090 1.3382 -0.0035
118.1290 1.3248 0.0070
118.1490 1.3115 -0.0009
118.1690 1.2982 -0.0031
118.1890 1.2849 0.0007
118.2090 1.2715 -0.0042
118.2290 1.2582 0.0014
118.2490 1.2449 0.0041
118.2690 1.2316 -0.0047
118.2890 1.2182 -0.0036
118.3090 1.2048 -0.0002
118.3290 1.1915 0.0021
118.3490 1.1782 -0.0002
118.3690 1.1649 -0.0040
118.3890 1.1515 0.0022
118.4090 1.1381 0.0022
118.4290 1.1248 -0.0064
118.4490 1.1115 0.0027
118.4690 1.0982 0.0010
118.4890 1.0848 -0.0035
118.5090 1.0715 0.0058
118.5290 1.0582 -0.0015
118.5490 1.0449 -0.0068
118.5690 1.0315 0.0040
118.5890 1.0182 0.0015
118.6090 1.0049 -0.0041
118.6290 0.9916 0.0052
118.6490 0.9782 -0.0055
118.6690 0.9649 -0.0044
118.6890 0.9515 0.0059
118.7090 0.9382 -0.0057
118.7290 0.9249 0.0002
118.7490 0.9115 -0.0017
118.7690 0.8981 -0.0064
118.7890 0.8848 -0.0005
118.8090 0.8715 -0.0004
118.8290 0.8582 -0.0051
118.8490 0.8449 0.0010
118.8690 0.8315 -0.0045
118.8890 0.8182 -0.0018
118.9090 0.8049 0.0017
118.9290 0.7916 -0.0038
118.9490 0.7782 0.0020
118.9690 0.7648 -0.0023
118.9890 0.7516 -0.0033
119.0090 0.7382 0.0049
119.0290 0.7248 -0.0107
119.0490 0.7115 -0.0001
119.0690 0.6981 0.0043
119.0890 0.6848 -0.0123
119.1090 0.6715 -0.0015
119.1290 0.6582 0.0063
119.1490 0.6448 -0.0122
119.1690 0.6315 0.0025
119.1890 0.6182 0.0003
119.2090 0.6048 -0.0122
119.2290 0.5915 0.0061
119.2490 0.5782 0.0003
119.2690 0.5649 -0.0114
119.2890 0.5516 0.0035
119.3090 0.5382 0.0033
119.3290 0.5248 -0.0118
119.3490 0.5115 0.0042
119.3690 0.4982 -0.0014
119.3890 0.4848 -0.0110
119.4090 0.4714 0.0068
119.4290 0.4581 -0.0020
119.4490 0.4448 -0.0060
119.4690 0.4315 0.0040
119.4890 0.4182 -0.0023
119.5090 0.4048 -0.0031
119.5290 0.3915 -0.0005
119.5490 0.3782 0.0011
119.5690 0.3648 -0.0059
119.5890 0.3515 0.0002
119.6090 0.3382 0.0038
119.6290 0.3249 -0.0046
119.6490 0.3116 -0.0017
119.6690 0.2982 0.0049
119.6890 0.2848 -0.0031
119.7090 0.2715 -0.0023
119.7290 0.2582 0.0016
119.7490 0.2448 -0.0033
119.7690 0.2315 0.0005
119.7890 0.2182 0.0016
119.8090 0.2048 -0.0041
119.8290 0.1915 0.0005
119.8490 0.1781 0.0017
119.8690 0.1648 -0.0045
119.8890 0.1515 -0.0011
119.9090 0.1382 0.0041
119.9290 0.1249 -0.0104
119.9490 0.1115 -0.0005
119.9690 0.0982 0.0077
119.9890 0.0849 -0.0101
120.0090 0.0716 -0.0007
120.0290 0.0582 0.0069
120.0490 0.0448 -0.0100
120.0690 0.0315 -0.0022
120.0890 0.0182 0.0038
120.1090 0.0049 -0.0093
120.1170 -0.0004 0.0062
