Raw Data
Time Displacement Force
(s) (mm) (N)
0.0000 0.0000 -0.0113
0.0200 0.0001 0.0065
0.0400 0.0020 0.0636
0.0600 0.0096 0.0644
0.0800 0.0214 -0.0151
0.1000 0.0340 -0.0230
0.1200 0.0466 0.0203
0.1400 0.0600 -0.0054
0.1600 0.0740 -0.0144
0.1800 0.0882 -0.0022
0.2000 0.1021 -0.0163
0.2200 0.1157 -0.0181
0.2400 0.1290 0.0023
0.2600 0.1423 -0.0144
0.2800 0.1556 -0.0073
0.3000 0.1690 -0.0003
0.3200 0.1824 -0.0148
0.3400 0.1957 -0.0025
0.3600 0.2091 -0.0040
0.3800 0.2224 -0.0107
0.4000 0.2358 -0.0063
0.4200 0.2491 -0.0018
0.4400 0.2624 -0.0075
0.4600 0.2757 -0.0063
0.4800 0.2891 0.0009
0.5000 0.3024 -0.0080
0.5200 0.3157 -0.0075
0.5400 0.3291 0.0039
0.5600 0.3424 -0.0098
0.5800 0.3558 -0.0088
0.6000 0.3691 0.0029
0.6200 0.3824 -0.0080
0.6400 0.3957 -0.0065
0.6600 0.4091 -0.0013
0.6800 0.4224 -0.0060
0.7000 0.4357 -0.0017
0.7200 0.4491 0.0003
0.7400 0.4624 -0.0096
0.7600 0.4758 -0.0023
0.7800 0.4891 0.0019
0.8000 0.5025 -0.0087
0.8200 0.5158 0.0001
0.8400 0.5292 -0.0018
0.8600 0.5425 -0.0074
0.8800 0.5558 0.0021
0.9000 0.5691 -0.0012
0.9200 0.5824 -0.0076
0.9400 0.5957 0.0020
0.9600 0.6090 -0.0007
0.9800 0.6223 -0.0056
1.0000 0.6357 0.0008
1.0200 0.6490 -0.0004
1.0400 0.6624 -0.0044
1.0600 0.6757 0.0002
1.0800 0.6891 0.0001
1.1000 0.7025 -0.0002
1.1200 0.7159 -0.0056
1.1400 0.7292 0.0031
1.1600 0.7425 0.0014
1.1800 0.7558 -0.0026
1.2000 0.7692 0.0050
1.2200 0.7825 -0.0013
1.2400 0.7958 -0.0084
1.2600 0.8091 0.0108
1.2800 0.8224 0.0006
1.3000 0.8358 -0.0061
1.3200 0.8491 0.0102
1.3400 0.8624 -0.0019
1.3600 0.8757 -0.0080
1.3800 0.8891 0.0135
1.4000 0.9024 -0.0048
1.4200 0.9157 -0.0015
1.4400 0.9290 0.0156
1.4600 0.9424 -0.0088
1.4800 0.9558 0.0006
1.5000 0.9692 0.0101
1.5200 0.9825 -0.0060
1.5400 0.9958 0.0025
1.5600 1.0091 0.0118
1.5800 1.0225 -0.0074
1.6000 1.0357 0.0032
1.6200 1.0491 0.0110
1.6400 1.0624 -0.0035
1.6600 1.0757 0.0051
1.6800 1.0891 0.0139
1.7000 1.1024 -0.0063
1.7200 1.1157 0.0072
1.7400 1.1291 0.0087
1.7600 1.1425 -0.0045
1.7800 1.1558 0.0072
1.8000 1.1691 0.0061
1.8200 1.1825 -0.0015
1.8400 1.1958 0.0063
1.8600 1.2091 0.0068
1.8800 1.2224 -0.0025
1.9000 1.2357 0.0044
1.9200 1.2491 0.0140
1.9400 1.2625 0.0002
1.9600 1.2758 0.0027
1.9800 1.2891 0.0151
2.0000 1.3025 0.0062
2.0200 1.3158 -0.0010
2.0400 1.3291 0.0138
2.0600 1.3424 0.0060
2.0800 1.3557 0.0051
2.1000 1.3691 0.0106
2.1200 1.3824 0.0057
2.1400 1.3957 0.0061
2.1600 1.4091 0.0082
2.1800 1.4224 0.0026
2.2000 1.4358 0.0034
2.2200 1.4492 0.0088
2.2400 1.4625 0.0061
2.2600 1.4758 0.0043
2.2800 1.4892 0.0149
2.3000 1.5025 0.0050
2.3200 1.5158 0.0019
2.3400 1.5291 0.0131
2.3600 1.5425 0.0023
2.3800 1.5558 0.0107
2.4000 1.5691 0.0125
2.4200 1.5824 0.0035
2.4400 1.5957 0.0099
2.4600 1.6091 0.0123
2.4800 1.6224 0.0064
2.5000 1.6358 0.0116
2.5200 1.6491 0.0126
2.5400 1.6624 0.0033
2.5600 1.6758 0.0149
2.5800 1.6892 0.0107
2.6000 1.7025 0.0090
2.6200 1.7158 0.0191
2.6400 1.7292 0.0102
2.6600 1.7425 0.0121
2.6800 1.7558 0.0163
2.7000 1.7691 0.0201
2.7200 1.7824 0.0157
2.7400 1.7958 0.0173
2.7600 1.8091 0.0163
2.7800 1.8224 0.0158
2.8000 1.8357 0.0225
2.8200 1.8491 0.0187
2.8400 1.8625 0.0194
2.8600 1.8758 0.0207
2.8800 1.8891 0.0245
2.9000 1.9024 0.0264
2.9200 1.9158 0.0204
2.9400 1.9292 0.0307
2.9600 1.9425 0.0281
2.9800 1.9558 0.0277
3.0000 1.9692 0.0363
3.0200 1.9825 0.0353
3.0400 1.9958 0.0322
3.0600 2.0091 0.0396
3.0800 2.0224 0.0435
3.1000 2.0358 0.0356
3.1200 2.0491 0.0477
3.1400 2.0624 0.0537
3.1600 2.0757 0.0459
3.1800 2.0891 0.0575
3.2000 2.1024 0.0572
3.2200 2.1157 0.0501
3.2400 2.1291 0.0607
3.2600 2.1424 0.0649
3.2800 2.1558 0.0589
3.3000 2.1692 0.0690
3.3200 2.1825 0.0741
3.3400 2.1958 0.0668
3.3600 2.2092 0.0814
3.3800 2.2225 0.0773
3.4000 2.2358 0.0768
3.4200 2.2491 0.0836
3.4400 2.2624 0.0897
3.4600 2.2758 0.0832
3.4800 2.2891 0.0913
3.5000 2.3024 0.1026
3.5200 2.3158 0.0853
3.5400 2.3291 0.0948
3.5600 2.3424 0.1054
3.5800 2.3557 0.1018
3.6000 2.3691 0.1032
3.6200 2.3824 0.1093
3.6400 2.3958 0.1042
3.6600 2.4092 0.1136
3.6800 2.4225 0.1197
3.7000 2.4358 0.1126
3.7200 2.4492 0.1234
3.7400 2.4625 0.1243
3.7600 2.4758 0.1209
3.7800 2.4891 0.1327
3.8000 2.5024 0.1320
3.8200 2.5158 0.1300
3.8400 2.5291 0.1341
3.8600 2.5424 0.1376
3.8800 2.5557 0.1427
3.9000 2.5691 0.1413
3.9200 2.5824 0.1443
3.9400 2.5958 0.1455
3.9600 2.6091 0.1547
3.9800 2.6224 0.1541
4.0000 2.6358 0.1521
4.0200 2.6492 0.1610
4.0400 2.6625 0.1560
4.0600 2.6758 0.1616
4.0800 2.6891 0.1658
4.1000 2.7025 0.1643
4.1200 2.7158 0.1725
4.1400 2.7291 0.1718
4.1600 2.7425 0.1657
4.1800 2.7558 0.1789
4.2000 2.7692 0.1765
4.2200 2.7824 0.1731
4.2400 2.7957 0.1859
4.2600 2.8090 0.1853
4.2800 2.8224 0.1799
4.3000 2.8357 0.1905
4.3200 2.8490 0.1892
4.3400 2.8624 0.1901
4.3600 2.8758 0.1954
4.3800 2.8892 0.1933
4.4000 2.9025 0.1978
4.4200 2.9158 0.2014
4.4400 2.9292 0.1982
4.4600 2.9425 0.2078
4.4800 2.9558 0.2059
4.5000 2.9691 0.2057
4.5200 2.9824 0.2125
4.5400 2.9958 0.2131
4.5600 3.0091 0.2156
4.5800 3.0224 0.2177
4.6000 3.0357 0.2186
4.6200 3.0490 0.2162
4.6400 3.0624 0.2220
4.6600 3.0757 0.2278
4.6800 3.0891 0.2235
4.7000 3.1024 0.2294
4.7200 3.1158 0.2329
4.7400 3.1292 0.2224
4.7600 3.1425 0.2355
4.7800 3.1558 0.2417
4.8000 3.1692 0.2291
4.8200 3.1825 0.2387
4.8400 3.1958 0.2452
4.8600 3.2091 0.2357
4.8800 3.2224 0.2468
4.9000 3.2357 0.2478
4.9200 3.2491 0.2423
4.9400 3.2624 0.2507
4.9600 3.2757 0.2566
4.9800 3.2890 0.2452
5.0000 3.3024 0.2606
5.0200 3.3158 0.2585
5.0400 3.3291 0.2526
5.0600 3.3424 0.2657
5.0800 3.3558 0.2627
5.1000 3.3692 0.2577
5.1200 3.3825 0.2677
5.1400 3.3958 0.2689
5.1600 3.4091 0.2656
5.1800 3.4225 0.2703
5.2000 3.4358 0.2741
5.2200 3.4491 0.2703
5.2400 3.4625 0.2734
5.2600 3.4758 0.2824
5.2800 3.4891 0.2761
5.3000 3.5024 0.2779
5.3200 3.5157 0.2930
5.3400 3.5290 0.2793
5.3600 3.5424 0.2814
5.3800 3.5558 0.2958
5.4000 3.5691 0.2849
5.4200 3.5824 0.2853
5.4400 3.5958 0.2995
5.4600 3.6092 0.2875
5.4800 3.6225 0.2914
5.5000 3.6358 0.3059
5.5200 3.6491 0.2942
5.5400 3.6625 0.2995
5.5600 3.6758 0.3074
5.5800 3.6891 0.2989
5.6000 3.7024 0.3069
5.6200 3.7157 0.3112
5.6400 3.7291 0.3007
5.6600 3.7424 0.3118
5.6800 3.7557 0.3143
5.7000 3.7691 0.3056
5.7200 3.7824 0.3170
5.7400 3.7958 0.3184
5.7600 3.8091 0.3084
5.7800 3.8224 0.3250
5.8000 3.8358 0.3202
5.8200 3.8491 0.3138
5.8400 3.8625 0.3286
5.8600 3.8758 0.3246
5.8800 3.8891 0.3175
5.9000 3.9025 0.3362
5.9200 3.9159 0.3224
5.9400 3.9292 0.3259
5.9600 3.9424 0.3430
5.9800 3.9558 0.3279
6.0000 3.9691 0.3308
6.0200 3.9824 0.3436
6.0400 3.9958 0.3292
6.0600 4.0091 0.3391
6.0800 4.0224 0.3469
6.1000 4.0358 0.3342
6.1200 4.0491 0.3431
6.1400 4.0624 0.3536
6.1600 4.0758 0.3386
6.1800 4.0892 0.3458
6.2000 4.1025 0.3555
6.2200 4.1158 0.3449
6.2400 4.1291 0.3539
6.2600 4.1425 0.3511
6.2800 4.1558 0.3534
6.3000 4.1691 0.3590
6.3200 4.1824 0.3554
6.3400 4.1958 0.3573
6.3600 4.2091 0.3582
6.3800 4.2225 0.3604
6.4000 4.2357 0.3657
6.4200 4.2490 0.3648
6.4400 4.2624 0.3630
6.4600 4.2757 0.3683
6.4800 4.2890 0.3688
6.5000 4.3024 0.3636
6.5200 4.3158 0.3725
6.5400 4.3292 0.3703
6.5600 4.3425 0.3686
6.5800 4.3559 0.3765
6.6000 4.3692 0.3724
6.6200 4.3825 0.3741
6.6400 4.3959 0.3808
6.6600 4.4091 0.3731
6.6800 4.4224 0.3777
6.7000 4.4357 0.3858
6.7200 4.4491 0.3797
6.7400 4.4624 0.3809
6.7600 4.4757 0.3895
6.7800 4.4891 0.3826
6.8000 4.5024 0.3839
6.8200 4.5158 0.3963
6.8400 4.5291 0.3914
6.8600 4.5424 0.3940
6.8800 4.5558 0.3921
6.9000 4.5692 0.3970
6.9200 4.5825 0.3957
6.9400 4.5958 0.3947
6.9600 4.6091 0.3972
6.9800 4.6225 0.3949
7.0000 4.6358 0.3985
7.0200 4.6491 0.4011
7.0400 4.6624 0.4044
7.0600 4.6758 0.4061
7.0800 4.6891 0.4052
7.1000 4.7024 0.4018
7.1200 4.7157 0.4068
7.1400 4.7290 0.4091
7.1600 4.7424 0.4083
7.1800 4.7558 0.4114
7.2000 4.7691 0.4090
7.2200 4.7824 0.4114
7.2400 4.7958 0.4132
7.2600 4.8092 0.4147
7.2800 4.8225 0.4165
7.3000 4.8358 0.4173
7.3200 4.8491 0.4167
7.3400 4.8625 0.4212
7.3600 4.8759 0.4216
7.3800 4.8892 0.4181
7.4000 4.9024 0.4243
7.4200 4.9158 0.4296
7.4400 4.9291 0.4220
7.4600 4.9424 0.4278
7.4800 4.9557 0.4315
7.5000 4.9690 0.4268
7.5200 4.9824 0.4326
7.5400 4.9957 0.4302
7.5600 5.0091 0.4288
7.5800 5.0224 0.4382
7.6000 5.0358 0.4359
7.6200 5.0492 0.4352
7.6400 5.0625 0.4411
7.6600 5.0758 0.4359
7.6800 5.0892 0.4387
7.7000 5.1025 0.4435
7.7200 5.1158 0.4372
7.7400 5.1291 0.4426
7.7600 5.1424 0.4493
7.7800 5.1558 0.4405
7.8000 5.1691 0.4449
7.8200 5.1824 0.4541
7.8400 5.1958 0.4434
7.8600 5.2091 0.4499
7.8800 5.2224 0.4509
7.9000 5.2358 0.4463
7.9200 5.2491 0.4543
7.9400 5.2624 0.4545
7.9600 5.2758 0.4522
7.9800 5.2892 0.4552
8.0000 5.3025 0.4585
8.0200 5.3158 0.4554
8.0400 5.3291 0.4629
8.0600 5.3425 0.4631
8.0800 5.3559 0.4571
8.1000 5.3692 0.4690
8.1200 5.3825 0.4609
8.1400 5.3958 0.4652
8.1600 5.4091 0.4686
8.1800 5.4224 0.4633
8.2000 5.4357 0.4700
8.2200 5.4490 0.4737
8.2400 5.4624 0.4679
8.2600 5.4757 0.4679
8.2800 5.4891 0.4806
8.3000 5.5024 0.4707
8.3200 5.5158 0.4741
8.3400 5.5292 0.4834
8.3600 5.5425 0.4726
8.3800 5.5558 0.4769
8.4000 5.5691 0.4809
8.4200 5.5825 0.4784
8.4400 5.5958 0.4794
8.4600 5.6091 0.4821
8.4800 5.6224 0.4858
8.5000 5.6358 0.4865
8.5200 5.6491 0.4830
8.5400 5.6624 0.4869
8.5600 5.6757 0.4921
8.5800 5.6890 0.4869
8.6000 5.7024 0.4908
8.6200 5.7157 0.4887
8.6400 5.7291 0.4883
8.6600 5.7424 0.4969
8.6800 5.7557 0.4903
8.7000 5.7691 0.4930
8.7200 5.7825 0.4996
8.7400 5.7958 0.4931
8.7600 5.8092 0.4958
8.7800 5.8225 0.5039
8.8000 5.8358 0.4963
8.8200 5.8491 0.4989
8.8400 5.8624 0.5061
8.8600 5.8757 0.4983
8.8800 5.8891 0.5031
8.9000 5.9024 0.5063
8.9200 5.9157 0.5004
8.9400 5.9291 0.5093
8.9600 5.9424 0.5079
8.9800 5.9558 0.5041
9.0000 5.9692 0.5100
9.0200 5.9825 0.5134
9.0400 5.9958 0.5059
9.0600 6.0091 0.5131
9.0800 6.0225 0.5103
9.1000 6.0358 0.5120
9.1200 6.0491 0.5188
9.1400 6.0624 0.5147
9.1600 6.0758 0.5137
9.1800 6.0892 0.5207
9.2000 6.1025 0.5209
9.2200 6.1158 0.5152
9.2400 6.1292 0.5203
9.2600 6.1425 0.5249
9.2800 6.1558 0.5203
9.3000 6.1691 0.5229
9.3200 6.1824 0.5307
9.3400 6.1958 0.5208
9.3600 6.2091 0.5222
9.3800 6.2224 0.5352
9.4000 6.2357 0.5227
9.4200 6.2491 0.5264
9.4400 6.2625 0.5351
9.4600 6.2758 0.5262
9.4800 6.2891 0.5320
9.5000 6.3025 0.5367
9.5200 6.3158 0.5244
9.5400 6.3292 0.5340
9.5600 6.3425 0.5432
9.5800 6.3558 0.5277
9.6000 6.3691 0.5359
9.6200 6.3825 0.5451
9.6400 6.3958 0.5273
9.6600 6.4091 0.5391
9.6800 6.4224 0.5490
9.7000 6.4357 0.5275
9.7200 6.4491 0.5478
9.7400 6.4624 0.5425
9.7600 6.4758 0.5324
9.7800 6.4891 0.5528
9.8000 6.5025 0.5473
9.8200 6.5158 0.5356
9.8400 6.5291 0.5522
9.8600 6.5425 0.5481
9.8800 6.5558 0.5429
9.9000 6.5692 0.5525
9.9200 6.5825 0.5502
9.9400 6.5958 0.5429
9.9600 6.6091 0.5562
9.9800 6.6224 0.5509
10.0000 6.6357 0.5500
10.0200 6.6490 0.5572
10.0400 6.6624 0.5555
10.0600 6.6758 0.5479
10.0800 6.6891 0.5617
10.1000 6.7024 0.5552
10.1200 6.7157 0.5503
10.1400 6.7291 0.5692
10.1600 6.7425 0.5553
10.1800 6.7558 0.5527
10.2000 6.7691 0.5728
10.2200 6.7825 0.5588
10.2400 6.7959 0.5540
10.2600 6.8092 0.5731
10.2800 6.8225 0.5600
10.3000 6.8358 0.5605
10.3200 6.8491 0.5752
10.3400 6.8625 0.5621
10.3600 6.8758 0.5644
10.3800 6.8891 0.5726
10.4000 6.9024 0.5640
10.4200 6.9157 0.5724
10.4400 6.9291 0.5744
10.4600 6.9424 0.5649
10.4800 6.9558 0.5725
10.5000 6.9691 0.5759
10.5200 6.9825 0.5681
10.5400 6.9958 0.5752
10.5600 7.0091 0.5766
10.5800 7.0225 0.5745
10.6000 7.0358 0.5778
10.6200 7.0492 0.5802
10.6400 7.0625 0.5762
10.6600 7.0758 0.5816
10.6800 7.0891 0.5800
10.7000 7.1025 0.5814
10.7200 7.1158 0.5822
10.7400 7.1291 0.5806
10.7600 7.1424 0.5874
10.7800 7.1558 0.5842
10.8000 7.1691 0.5806
10.8200 7.1824 0.5878
10.8400 7.1958 0.5922
10.8600 7.2091 0.5821
10.8800 7.2225 0.5910
10.9000 7.2358 0.5937
10.9200 7.2491 0.5830
10.9400 7.2625 0.5939
10.9600 7.2758 0.5935
10.9800 7.2892 0.5893
11.0000 7.3025 0.5985
11.0200 7.3158 0.5940
11.0400 7.3291 0.5941
11.0600 7.3424 0.6023
11.0800 7.3558 0.5926
11.1000 7.3691 0.5951
11.1200 7.3824 0.6072
11.1400 7.3957 0.5959
11.1600 7.4091 0.5960
11.1800 7.4224 0.6066
11.2000 7.4358 0.5994
11.2200 7.4491 0.6011
11.2400 7.4625 0.6035
11.2600 7.4758 0.5990
11.2800 7.4891 0.6084
11.3000 7.5024 0.6086
11.3200 7.5158 0.5993
11.3400 7.5291 0.6035
11.3600 7.5425 0.6150
11.3800 7.5558 0.6034
11.4000 7.5692 0.6086
11.4200 7.5825 0.6131
11.4400 7.5958 0.6079
11.4600 7.6091 0.6102
11.4800 7.6224 0.6119
11.5000 7.6357 0.6097
11.5200 7.6491 0.6143
11.5400 7.6624 0.6173
11.5600 7.6757 0.6113
11.5800 7.6891 0.6195
11.6000 7.7025 0.6176
11.6200 7.7159 0.6123
11.6400 7.7292 0.6205
11.6600 7.7425 0.6215
11.6800 7.7559 0.6151
11.7000 7.7692 0.6258
11.7200 7.7825 0.6231
11.7400 7.7958 0.6222
11.7600 7.8091 0.6265
11.7800 7.8225 0.6209
11.8000 7.8358 0.6247
11.8200 7.8491 0.6294
11.8400 7.8624 0.6258
11.8600 7.8757 0.6248
11.8800 7.8891 0.6285
11.9000 7.9024 0.6297
11.9200 7.9157 0.6268
11.9400 7.9291 0.6285
11.9600 7.9425 0.6310
11.9800 7.9558 0.6302
12.0000 7.9692 0.6306
12.0200 7.9825 0.6326
12.0400 7.9958 0.6300
12.0600 8.0092 0.6361
12.0800 8.0225 0.6335
12.1000 8.0358 0.6336
12.1200 8.0491 0.6386
12.1400 8.0624 0.6377
12.1600 8.0758 0.6309
12.1800 8.0891 0.6385
12.2000 8.1024 0.6371
12.2200 8.1157 0.6361
12.2400 8.1291 0.6418
12.2600 8.1424 0.6382
12.2800 8.1558 0.6400
12.3000 8.1691 0.6436
12.3200 8.1825 0.6411
12.3400 8.1958 0.6478
12.3600 8.2091 0.6453
12.3800 8.2224 0.6458
12.4000 8.2358 0.6491
12.4200 8.2492 0.6475
12.4400 8.2625 0.6435
12.4600 8.2758 0.6469
12.4800 8.2891 0.6491
12.5000 8.3025 0.6439
12.5200 8.3158 0.6552
12.5400 8.3291 0.6505
12.5600 8.3424 0.6486
12.5800 8.3557 0.6567
12.6000 8.3691 0.6507
12.6200 8.3824 0.6495
12.6400 8.3957 0.6589
12.6600 8.4091 0.6500
12.6800 8.4225 0.6534
12.7000 8.4358 0.6603
12.7200 8.4492 0.6531
12.7400 8.4625 0.6509
12.7600 8.4758 0.6632
12.7800 8.4892 0.6522
12.8000 8.5025 0.6556
12.8200 8.5158 0.6675
12.8400 8.5291 0.6583
12.8600 8.5424 0.6538
12.8800 8.5558 0.6684
12.9000 8.5691 0.6617
12.9200 8.5824 0.6612
12.9400 8.5957 0.6688
12.9600 8.6091 0.6625
12.9800 8.6224 0.6591
13.0000 8.6358 0.6686
13.0200 8.6491 0.6637
13.0400 8.6625 0.6640
13.0600 8.6758 0.6684
13.0800 8.6891 0.6669
13.1000 8.7025 0.6654
13.1200 8.7158 0.6708
13.1400 8.7292 0.6729
13.1600 8.7425 0.6648
13.1800 8.7558 0.6702
13.2000 8.7691 0.6732
13.2200 8.7824 0.6715
13.2400 8.7958 0.6757
13.2600 8.8091 0.6737
13.2800 8.8224 0.6713
13.3000 8.8357 0.6793
13.3200 8.8491 0.6771
13.3400 8.8624 0.6687
13.3600 8.8758 0.6804
13.3800 8.8891 0.6798
13.4000 8.9025 0.6668
13.4200 8.9158 0.6850
13.4400 8.9291 0.6815
13.4600 8.9425 0.6726
13.4800 8.9558 0.6864
13.5000 8.9692 0.6816
13.5200 8.9825 0.6766
13.5400 8.9958 0.6914
13.5600 9.0091 0.6814
13.5800 9.0225 0.6757
13.6000 9.0358 0.6933
13.6200 9.0491 0.6823
13.6400 9.0624 0.6798
13.6600 9.0757 0.6983
13.6800 9.0891 0.6834
13.7000 9.1024 0.6820
13.7200 9.1157 0.6986
13.7400 9.1291 0.6916
13.7600 9.1425 0.6845
13.7800 9.1559 0.6939
13.8000 9.1692 0.6862
13.8200 9.1825 0.6870
13.8400 9.1959 0.6975
13.8600 9.2092 0.6914
13.8800 9.2225 0.6904
13.9000 9.2358 0.6970
13.9200 9.2491 0.6960
13.9400 9.2624 0.6911
13.9600 9.2757 0.6978
13.9800 9.2890 0.6983
14.0000 9.3024 0.6946
14.0200 9.3157 0.6949
14.0400 9.3291 0.7026
14.0600 9.3424 0.6960
14.0800 9.3558 0.6979
14.1000 9.3691 0.7047
14.1200 9.3825 0.6966
14.1400 9.3958 0.7060
14.1600 9.4091 0.7048
14.1800 9.4225 0.6960
14.2000 9.4358 0.7114
14.2200 9.4492 0.7064
14.2400 9.4625 0.6949
14.2600 9.4758 0.7102
14.2800 9.4891 0.7105
14.3000 9.5024 0.6964
14.3200 9.5158 0.7123
14.3400 9.5291 0.7098
14.3600 9.5424 0.6988
14.3800 9.5557 0.7164
14.4000 9.5691 0.7136
14.4200 9.5825 0.7015
14.4400 9.5958 0.7211
14.4600 9.6091 0.7079
14.4800 9.6225 0.7033
14.5000 9.6358 0.7195
14.5200 9.6491 0.7140
14.5400 9.6625 0.7078
14.5600 9.6758 0.7191
14.5800 9.6892 0.7153
14.6000 9.7025 0.7072
14.6200 9.7158 0.7237
14.6400 9.7291 0.7156
14.6600 9.7425 0.7106
14.6800 9.7558 0.7235
14.7000 9.7691 0.7177
14.7200 9.7824 0.7157
14.7400 9.7957 0.7224
14.7600 9.8091 0.7204
14.7800 9.8224 0.7170
14.8000 9.8358 0.7215
14.8200 9.8491 0.7260
14.8400 9.8625 0.7132
14.8600 9.8758 0.7255
14.8800 9.8892 0.7240
14.9000 9.9025 0.7167
14.9200 9.9158 0.7304
14.9400 9.9291 0.7237
14.9600 9.9425 0.7173
14.9800 9.9558 0.7284
15.0000 9.9691 0.7258
15.0200 9.9824 0.7187
15.0400 9.9958 0.7316
15.0600 10.0091 0.7277
15.0800 10.0224 0.7182
15.1000 10.0357 0.7361
15.1200 10.0491 0.7258
15.1400 10.0624 0.7196
15.1600 10.0758 0.7377
15.1800 10.0891 0.7309
15.2000 10.1024 0.7230
15.2200 10.1158 0.7375
15.2400 10.1291 0.7309
15.2600 10.1425 0.7250
15.2800 10.1558 0.7412
15.3000 10.1692 0.7283
15.3200 10.1825 0.7277
15.3400 10.1958 0.7414
15.3600 10.2091 0.7303
15.3800 10.2224 0.7367
15.4000 10.2358 0.7427
15.4200 10.2491 0.7302
15.4400 10.2624 0.7384
15.4600 10.2757 0.7439
15.4800 10.2891 0.7321
15.5000 10.3024 0.7377
15.5200 10.3158 0.7434
15.5400 10.3291 0.7342
15.5600 10.3425 0.7432
15.5800 10.3559 0.7422
15.6000 10.3692 0.7348
15.6200 10.3825 0.7508
15.6400 10.3958 0.7443
15.6600 10.4092 0.7362
15.6800 10.4225 0.7465
15.7000 10.4358 0.7400
15.7200 10.4491 0.7467
15.7400 10.4624 0.7462
15.7600 10.4758 0.7452
15.7800 10.4891 0.7456
15.8000 10.5024 0.7439
15.8200 10.5157 0.7514
15.8400 10.5290 0.7487
15.8600 10.5424 0.7453
15.8800 10.5557 0.7511
15.9000 10.5691 0.7499
15.9200 10.5825 0.7502
15.9400 10.5958 0.7555
15.9600 10.6092 0.7528
15.9800 10.6225 0.7490
16.0000 10.6358 0.7581
16.0200 10.6492 0.7513
16.0400 10.6625 0.7458
16.0600 10.6758 0.7618
16.0800 10.6891 0.7551
16.1000 10.7024 0.7493
16.1200 10.7157 0.7615
16.1400 10.7291 0.7544
16.1600 10.7424 0.7572
16.1800 10.7557 0.7640
16.2000 10.7691 0.7541
16.2200 10.7825 0.7588
16.2400 10.7958 0.7661
16.2600 10.8091 0.7531
16.2800 10.8225 0.7581
16.3000 10.8358 0.7641
16.3200 10.8491 0.7585
16.3400 10.8624 0.7612
16.3600 10.8758 0.7684
16.3800 10.8891 0.7617
16.4000 10.9025 0.7631
16.4200 10.9158 0.7648
16.4400 10.9291 0.7658
16.4600 10.9425 0.7638
16.4800 10.9558 0.7688
16.5000 10.9691 0.7674
16.5200 10.9824 0.7647
16.5400 10.9957 0.7712
16.5600 11.0091 0.7665
16.5800 11.0224 0.7647
16.6000 11.0357 0.7719
16.6200 11.0491 0.7726
16.6400 11.0624 0.7654
16.6600 11.0758 0.7721
16.6800 11.0891 0.7691
16.7000 11.1025 0.7699
16.7200 11.1158 0.7755
16.7400 11.1292 0.7736
16.7600 11.1425 0.7705
16.7800 11.1558 0.7781
16.8000 11.1691 0.7757
16.8200 11.1825 0.7759
16.8400 11.1958 0.7806
16.8600 11.2091 0.7709
16.8800 11.2224 0.7751
16.9000 11.2357 0.7806
16.9200 11.2490 0.7761
16.9400 11.2624 0.7832
16.9600 11.2757 0.7780
16.9800 11.2891 0.7748
17.0000 11.3024 0.7868
17.0200 11.3158 0.7806
17.0400 11.3292 0.7753
17.0600 11.3425 0.7882
17.0800 11.3558 0.7822
17.1000 11.3692 0.7736
17.1200 11.3825 0.7910
17.1400 11.3958 0.7839
17.1600 11.4091 0.7799
17.1800 11.4224 0.7935
17.2000 11.4358 0.7830
17.2200 11.4491 0.7861
17.2400 11.4624 0.7929
17.2600 11.4757 0.7816
17.2800 11.4891 0.7903
17.3000 11.5025 0.7913
17.3200 11.5158 0.7824
17.3400 11.5291 0.7892
17.3600 11.5425 0.7975
17.3800 11.5558 0.7868
17.4000 11.5692 0.7889
17.4200 11.5825 0.7934
17.4400 11.5958 0.7925
17.4600 11.6092 0.7937
17.4800 11.6225 0.7900
17.5000 11.6358 0.7919
17.5200 11.6491 0.7951
17.5400 11.6624 0.7969
17.5600 11.6758 0.7959
17.5800 11.6891 0.7965
17.6000 11.7024 0.7977
17.6200 11.7157 0.7975
17.6400 11.7290 0.8006
17.6600 11.7424 0.7966
17.6800 11.7557 0.7965
17.7000 11.7691 0.8007
17.7200 11.7824 0.8008
17.7400 11.7958 0.8013
17.7600 11.8092 0.8003
17.7800 11.8225 0.8038
17.8000 11.8358 0.8042
17.8200 11.8491 0.8049
17.8400 11.8625 0.8077
17.8600 11.8758 0.8012
17.8800 11.8891 0.8044
17.9000 11.9024 0.8110
17.9200 11.9158 0.8065
17.9400 11.9291 0.8022
17.9600 11.9424 0.8115
17.9800 11.9558 0.8095
18.0000 11.9691 0.8000
18.0200 11.9824 0.8155
18.0400 11.9957 0.8049
18.0600 12.0091 0.8065
18.0800 12.0224 0.8173
18.1000 12.0358 0.8065
18.1200 12.0492 0.8065
18.1400 12.0625 0.8190
18.1600 12.0758 0.8072
18.1800 12.0892 0.8113
18.2000 12.1025 0.8196
18.2200 12.1158 0.8097
18.2400 12.1291 0.8144
18.2600 12.1424 0.8217
18.2800 12.1558 0.8071
18.3000 12.1691 0.8192
18.3200 12.1824 0.8205
18.3400 12.1957 0.8096
18.3600 12.2091 0.8222
18.3800 12.2224 0.8185
18.4000 12.2358 0.8097
18.4200 12.2491 0.8249
18.4400 12.2624 0.8192
18.4600 12.2758 0.8126
18.4800 12.2891 0.8208
18.5000 12.3025 0.8187
18.5200 12.3158 0.8184
18.5400 12.3291 0.8222
18.5600 12.3425 0.8219
18.5800 12.3558 0.8178
18.6000 12.3691 0.8236
18.6200 12.3825 0.8249
18.6400 12.3958 0.8242
18.6600 12.4092 0.8221
18.6800 12.4225 0.8222
18.7000 12.4357 0.8244
18.7200 12.4491 0.8265
18.7400 12.4624 0.8287
18.7600 12.4757 0.8269
18.7800 12.4890 0.8232
18.8000 12.5024 0.8299
18.8200 12.5158 0.8257
18.8400 12.5292 0.8225
18.8600 12.5425 0.8286
18.8800 12.5558 0.8286
18.9000 12.5692 0.8256
18.9200 12.5825 0.8283
18.9400 12.5959 0.8321
18.9600 12.6091 0.8278
18.9800 12.6224 0.8320
19.0000 12.6357 0.8352
19.0200 12.6491 0.8249
19.0400 12.6624 0.8340
19.0600 12.6757 0.8361
19.0800 12.6890 0.8287
19.1000 12.7024 0.8337
19.1200 12.7157 0.8356
19.1400 12.7291 0.8286
19.1600 12.7424 0.8385
19.1800 12.7558 0.8344
19.2000 12.7692 0.8294
19.2200 12.7825 0.8396
19.2400 12.7958 0.8362
19.2600 12.8092 0.8359
19.2800 12.8225 0.8393
19.3000 12.8358 0.8364
19.3200 12.8491 0.8378
19.3400 12.8624 0.8430
19.3600 12.8757 0.8389
19.3800 12.8891 0.8392
19.4000 12.9024 0.8420
19.4200 12.9157 0.8380
19.4400 12.9291 0.8458
19.4600 12.9424 0.8461
19.4800 12.9558 0.8358
19.5000 12.9691 0.8461
19.5200 12.9824 0.8462
19.5400 12.9958 0.8433
19.5600 13.0092 0.8424
19.5800 13.0225 0.8479
19.6000 13.0358 0.8470
19.6200 13.0491 0.8469
19.6400 13.0625 0.8504
19.6600 13.0758 0.8455
19.6800 13.0891 0.8458
19.7000 13.1025 0.8532
19.7200 13.1158 0.8493
19.7400 13.1291 0.8523
19.7600 13.1424 0.8525
19.7800 13.1557 0.8535
19.8000 13.1690 0.8509
19.8200 13.1824 0.8549
19.8400 13.1958 0.8522
19.8600 13.2091 0.8526
19.8800 13.2224 0.8584
19.9000 13.2358 0.8557
19.9200 13.2492 0.8486
19.9400 13.2625 0.8630
19.9600 13.2758 0.8569
19.9800 13.2891 0.8550
20.0000 13.3025 0.8617
20.0200 13.3158 0.8544
20.0400 13.3291 0.8591
20.0600 13.3424 0.8632
20.0800 13.3558 0.8576
20.1000 13.3691 0.8603
20.1200 13.3824 0.8654
20.1400 13.3957 0.8606
20.1600 13.4091 0.8637
20.1800 13.4224 0.8611
20.2000 13.4357 0.8583
20.2200 13.4491 0.8683
20.2400 13.4624 0.8640
20.2600 13.4758 0.8631
20.2800 13.4891 0.8700
20.3000 13.5025 0.8634
20.3200 13.5158 0.8657
20.3400 13.5291 0.8702
20.3600 13.5425 0.8668
20.3800 13.5559 0.8622
20.4000 13.5692 0.8748
20.4200 13.5825 0.8677
20.4400 13.5958 0.8695
20.4600 13.6091 0.8777
20.4800 13.6224 0.8644
20.5000 13.6357 0.8739
20.5200 13.6491 0.8742
20.5400 13.6624 0.8687
20.5600 13.6757 0.8730
20.5800 13.6891 0.8728
20.6000 13.7024 0.8740
20.6200 13.7158 0.8734
20.6400 13.7291 0.8765
20.6600 13.7425 0.8724
20.6800 13.7558 0.8730
20.7000 13.7691 0.8778
20.7200 13.7825 0.8788
20.7400 13.7958 0.8768
20.7600 13.8092 0.8785
20.7800 13.8225 0.8832
20.8000 13.8358 0.8746
20.8200 13.8491 0.8810
20.8400 13.8624 0.8838
20.8600 13.8757 0.8764
20.8800 13.8890 0.8848
20.9000 13.9024 0.8790
20.9200 13.9157 0.8765
20.9400 13.9290 0.8876
20.9600 13.9424 0.8785
20.9800 13.9558 0.8830
21.0000 13.9692 0.8810
21.0200 13.9826 0.8780
21.0400 13.9959 0.8844
21.0600 14.0092 0.8910
21.0800 14.0225 0.8811
21.1000 14.0359 0.8866
21.1200 14.0492 0.8898
21.1400 14.0624 0.8829
21.1600 14.0757 0.8883
21.1800 14.0891 0.8893
21.2000 14.1024 0.8831
21.2200 14.1157 0.8914
21.2400 14.1291 0.8860
21.2600 14.1424 0.8910
21.2800 14.1558 0.8923
21.3000 14.1691 0.8891
21.3200 14.1825 0.8863
21.3400 14.1958 0.8952
21.3600 14.2092 0.8908
21.3800 14.2225 0.8851
21.4000 14.2358 0.8976
21.4200 14.2491 0.8971
21.4400 14.2625 0.8885
21.4600 14.2758 0.8929
21.4800 14.2891 0.9002
21.5000 14.3024 0.8925
21.5200 14.3158 0.8933
21.5400 14.3291 0.9006
21.5600 14.3424 0.8934
21.5800 14.3557 0.8965
21.6000 14.3690 0.9036
21.6200 14.3824 0.8931
21.6400 14.3957 0.8993
21.6600 14.4091 0.9023
21.6800 14.4224 0.8935
21.7000 14.4358 0.9015
21.7200 14.4492 0.9046
21.7400 14.4625 0.8908
21.7600 14.4758 0.9040
21.7800 14.4891 0.9095
21.8000 14.5024 0.8970
21.8200 14.5158 0.9031
21.8400 14.5292 0.9074
21.8600 14.5425 0.8982
21.8800 14.5558 0.9038
21.9000 14.5691 0.9070
21.9200 14.5824 0.9001
21.9400 14.5957 0.9076
21.9600 14.6090 0.9031
21.9800 14.6224 0.9033
22.0000 14.6357 0.9093
22.0200 14.6491 0.9054
22.0400 14.6624 0.9094
22.0600 14.6758 0.9111
22.0800 14.6891 0.9078
22.1000 14.7025 0.9051
22.1200 14.7158 0.9120
22.1400 14.7292 0.9157
22.1600 14.7425 0.9072
22.1800 14.7558 0.9119
22.2000 14.7691 0.9119
22.2200 14.7824 0.9122
22.2400 14.7958 0.9179
22.2600 14.8091 0.9109
22.2800 14.8225 0.9129
22.3000 14.8358 0.9178
22.3200 14.8491 0.9127
22.3400 14.8624 0.9154
22.3600 14.8758 0.9202
22.3800 14.8891 0.9161
22.4000 14.9024 0.9152
22.4200 14.9158 0.9236
22.4400 14.9291 0.9146
22.4600 14.9425 0.9126
22.4800 14.9558 0.9242
22.5000 14.9691 0.9208
22.5200 14.9825 0.9146
22.5400 14.9959 0.9260
22.5600 15.0092 0.9200
22.5800 15.0225 0.9201
22.6000 15.0358 0.9282
22.6200 15.0491 0.9208
22.6400 15.0625 0.9201
22.6600 15.0758 0.9295
22.6800 15.0891 0.9194
22.7000 15.1024 0.9253
22.7200 15.1158 0.9306
22.7400 15.1291 0.9231
22.7600 15.1424 0.9263
22.7800 15.1558 0.9314
22.8000 15.1692 0.9238
22.8200 15.1825 0.9257
22.8400 15.1958 0.9312
22.8600 15.2091 0.9299
22.8800 15.2225 0.9290
22.9000 15.2359 0.9294
22.9200 15.2492 0.9324
22.9400 15.2625 0.9323
22.9600 15.2758 0.9358
22.9800 15.2891 0.9345
23.0000 15.3025 0.9316
23.0200 15.3158 0.9332
23.0400 15.3291 0.9395
23.0600 15.3424 0.9342
23.0800 15.3558 0.9339
23.1000 15.3691 0.9412
23.1200 15.3824 0.9324
23.1400 15.3958 0.9355
23.1600 15.4091 0.9401
23.1800 15.4225 0.9327
23.2000 15.4358 0.9410
23.2200 15.4492 0.9388
23.2400 15.4625 0.9382
23.2600 15.4758 0.9403
23.2800 15.4891 0.9434
23.3000 15.5024 0.9368
23.3200 15.5157 0.9414
23.3400 15.5291 0.9413
23.3600 15.5424 0.9358
23.3800 15.5557 0.9469
23.4000 15.5690 0.9404
23.4200 15.5824 0.9373
23.4400 15.5958 0.9517
23.4600 15.6091 0.9377
23.4800 15.6225 0.9452
23.5000 15.6358 0.9501
23.5200 15.6492 0.9423
23.5400 15.6625 0.9426
23.5600 15.6758 0.9516
23.5800 15.6891 0.9440
23.6000 15.7024 0.9444
23.6200 15.7158 0.9517
23.6400 15.7291 0.9417
23.6600 15.7425 0.9494
23.6800 15.7558 0.9530
23.7000 15.7691 0.9465
23.7200 15.7825 0.9529
23.7400 15.7958 0.9522
23.7600 15.8091 0.9486
23.7800 15.8224 0.9591
23.8000 15.8358 0.9511
23.8200 15.8491 0.9479
23.8400 15.8624 0.9573
23.8600 15.8757 0.9536
23.8800 15.8891 0.9526
23.9000 15.9025 0.9561
23.9200 15.9158 0.9500
23.9400 15.9291 0.9575
23.9600 15.9425 0.9574
23.9800 15.9558 0.9521
24.0000 15.9692 0.9605
24.0200 15.9825 0.9588
24.0400 15.9958 0.9564
24.0600 16.0091 0.9636
24.0800 16.0225 0.9612
24.1000 16.0358 0.9581
24.1200 16.0491 0.9597
24.1400 16.0624 0.9613
24.1600 16.0757 0.9596
24.1800 16.0891 0.9585
24.2000 16.1024 0.9619
24.2200 16.1158 0.9635
24.2400 16.1291 0.9621
24.2600 16.1425 0.9643
24.2800 16.1558 0.9611
24.3000 16.1691 0.9640
24.3200 16.1825 0.9658
24.3400 16.1958 0.9638
24.3600 16.2092 0.9614
24.3800 16.2225 0.9639
24.4000 16.2358 0.9713
24.4200 16.2491 0.9685
24.4400 16.2625 0.9681
24.4600 16.2758 0.9662
24.4800 16.2891 0.9630
24.5000 16.3024 0.9709
24.5200 16.3158 0.9704
24.5400 16.3291 0.9680
24.5600 16.3424 0.9691
24.5800 16.3558 0.9713
24.6000 16.3691 0.9704
24.6200 16.3825 0.9740
24.6400 16.3958 0.9744
24.6600 16.4092 0.9703
24.6800 16.4225 0.9757
24.7000 16.4358 0.9690
24.7200 16.4492 0.9761
24.7400 16.4625 0.9811
24.7600 16.4758 0.9734
24.7800 16.4891 0.9752
24.8000 16.5024 0.9778
24.8200 16.5158 0.9715
24.8400 16.5291 0.9783
24.8600 16.5424 0.9804
24.8800 16.5557 0.9739
24.9000 16.5691 0.9780
24.9200 16.5824 0.9807
24.9400 16.5957 0.9795
24.9600 16.6091 0.9803
24.9800 16.6225 0.9750
25.0000 16.6359 0.9801
25.0200 16.6492 0.9797
25.0400 16.6625 0.9782
25.0600 16.6758 0.9889
25.0800 16.6892 0.9804
25.1000 16.7025 0.9775
25.1200 16.7158 0.9909
25.1400 16.7291 0.9833
25.1600 16.7424 0.9778
25.1800 16.7558 0.9888
25.2000 16.7691 0.9863
25.2200 16.7824 0.9815
25.2400 16.7958 0.9905
25.2600 16.8091 0.9844
25.2800 16.8224 0.9838
25.3000 16.8358 0.9950
25.3200 16.8491 0.9825
25.3400 16.8625 0.9886
25.3600 16.8758 0.9959
25.3800 16.8892 0.9877
25.4000 16.9025 0.9913
25.4200 16.9158 0.9939
25.4400 16.9292 0.9859
25.4600 16.9425 0.9935
25.4800 16.9558 0.9999
25.5000 16.9691 0.9900
25.5200 16.9824 0.9906
25.5400 16.9958 0.9978
25.5600 17.0091 0.9915
25.5800 17.0224 0.9962
25.6000 17.0357 0.9968
25.6200 17.0491 0.9880
25.6400 17.0624 0.9995
25.6600 17.0757 0.9990
25.6800 17.0891 0.9906
25.7000 17.1025 1.0032
25.7200 17.1158 0.9990
25.7400 17.1291 0.9956
25.7600 17.1424 0.9997
25.7800 17.1558 1.0051
25.8000 17.1692 1.0005
25.8200 17.1825 1.0023
25.8400 17.1958 1.0081
25.8600 17.2091 0.9994
25.8800 17.2225 1.0032
25.9000 17.2358 1.0056
25.9200 17.2491 1.0047
25.9400 17.2624 1.0013
25.9600 17.2757 1.0050
25.9800 17.2891 1.0070
26.0000 17.3024 1.0084
26.0200 17.3157 1.0103
26.0400 17.3291 1.0052
26.0600 17.3425 1.0081
26.0800 17.3559 1.0108
26.1000 17.3692 1.0055
26.1200 17.3825 1.0139
26.1400 17.3958 1.0101
26.1600 17.4092 1.0045
26.1800 17.4225 1.0117
26.2000 17.4358 1.0167
26.2200 17.4491 1.0089
26.2400 17.4624 1.0122
26.2600 17.4758 1.0219
26.2800 17.4891 1.0074
26.3000 17.5024 1.0123
26.3200 17.5157 1.0186
26.3400 17.5291 1.0100
26.3600 17.5424 1.0154
26.3800 17.5557 1.0209
26.4000 17.5691 1.0148
26.4200 17.5825 1.0186
26.4400 17.5958 1.0197
26.4600 17.6092 1.0171
26.4800 17.6225 1.0239
26.5000 17.6358 1.0189
26.5200 17.6492 1.0198
26.5400 17.6625 1.0243
26.5600 17.6758 1.0236
26.5800 17.6891 1.0227
26.6000 17.7024 1.0289
26.6200 17.7158 1.0250
26.6400 17.7291 1.0226
26.6600 17.7424 1.0234
26.6800 17.7557 1.0279
26.7000 17.7691 1.0234
26.7200 17.7824 1.0232
26.7400 17.7958 1.0306
26.7600 17.8091 1.0253
26.7800 17.8225 1.0276
26.8000 17.8358 1.0279
26.8200 17.8492 1.0291
26.8400 17.8625 1.0329
26.8600 17.8758 1.0317
26.8800 17.8892 1.0311
26.9000 17.9025 1.0311
26.9200 17.9158 1.0341
26.9400 17.9291 1.0328
26.9600 17.9425 1.0352
26.9800 17.9558 1.0334
27.0000 17.9691 1.0363
27.0200 17.9824 1.0387
27.0400 17.9957 1.0332
27.0600 18.0091 1.0384
27.0800 18.0224 1.0347
27.1000 18.0358 1.0378
27.1200 18.0491 1.0391
27.1400 18.0625 1.0385
27.1600 18.0758 1.0381
27.1800 18.0892 1.0367
27.2000 18.1025 1.0399
27.2200 18.1158 1.0431
27.2400 18.1292 1.0331
27.2600 18.1425 1.0458
27.2800 18.1557 1.0464
27.3000 18.1691 1.0355
27.3200 18.1824 1.0483
27.3400 18.1958 1.0430
27.3600 18.2091 1.0394
27.3800 18.2224 1.0511
27.4000 18.2357 1.0474
27.4200 18.2491 1.0385
27.4400 18.2624 1.0506
27.4600 18.2757 1.0468
27.4800 18.2891 1.0432
27.5000 18.3025 1.0513
27.5200 18.3158 1.0481
27.5400 18.3292 1.0463
27.5600 18.3425 1.0549
27.5800 18.3558 1.0535
27.6000 18.3692 1.0458
27.6200 18.3825 1.0493
27.6400 18.3958 1.0541
27.6600 18.4091 1.0503
27.6800 18.4225 1.0513
27.7000 18.4358 1.0519
27.7200 18.4491 1.0517
27.7400 18.4624 1.0554
27.7600 18.4757 1.0553
27.7800 18.4891 1.0538
27.8000 18.5024 1.0566
27.8200 18.5158 1.0566
27.8400 18.5291 1.0535
27.8600 18.5424 1.0591
27.8800 18.5558 1.0593
27.9000 18.5691 1.0529
27.9200 18.5825 1.0579
27.9400 18.5958 1.0605
27.9600 18.6092 1.0569
27.9800 18.6225 1.0601
28.0000 18.6358 1.0651
28.0200 18.6491 1.0548
28.0400 18.6624 1.0662
28.0600 18.6758 1.0635
28.0800 18.6891 1.0566
28.1000 18.7024 1.0661
28.1200 18.7157 1.0663
28.1400 18.7291 1.0601
28.1600 18.7424 1.0673
28.1800 18.7557 1.0660
28.2000 18.7691 1.0644
28.2200 18.7825 1.0675
28.2400 18.7959 1.0626
28.2600 18.8092 1.0640
28.2800 18.8225 1.0706
28.3000 18.8358 1.0678
28.3200 18.8492 1.0658
28.3400 18.8625 1.0692
28.3600 18.8758 1.0707
28.3800 18.8891 1.0705
28.4000 18.9024 1.0704
28.4200 18.9157 1.0739
28.4400 18.9291 1.0713
28.4600 18.9424 1.0738
28.4800 18.9557 1.0731
28.5000 18.9691 1.0714
28.5200 18.9825 1.0726
28.5400 18.9958 1.0740
28.5600 19.0091 1.0764
28.5800 19.0225 1.0740
28.6000 19.0359 1.0781
28.6200 19.0492 1.0759
28.6400 19.0625 1.0760
28.6600 19.0758 1.0844
28.6800 19.0891 1.0739
28.7000 19.1025 1.0802
28.7200 19.1158 1.0818
28.7400 19.1291 1.0760
28.7600 19.1424 1.0832
28.7800 19.1558 1.0854
28.8000 19.1691 1.0789
28.8200 19.1824 1.0817
28.8400 19.1957 1.0861
28.8600 19.2091 1.0819
28.8800 19.2224 1.0824
28.9000 19.2358 1.0851
28.9200 19.2491 1.0817
28.9400 19.2625 1.0873
28.9600 19.2758 1.0863
28.9800 19.2892 1.0840
29.0000 19.3025 1.0874
29.0200 19.3158 1.0882
29.0400 19.3292 1.0889
29.0600 19.3425 1.0865
29.0800 19.3558 1.0882
29.1000 19.3691 1.0922
29.1200 19.3825 1.0933
29.1400 19.3958 1.0876
29.1600 19.4091 1.0947
29.1800 19.4224 1.0971
29.2000 19.4357 1.0878
29.2200 19.4491 1.0960
29.2400 19.4624 1.0924
29.2600 19.4758 1.0893
29.2800 19.4891 1.1022
29.3000 19.5025 1.0932
29.3200 19.5159 1.0941
29.3400 19.5292 1.0960
29.3600 19.5425 1.0956
29.3800 19.5558 1.0936
29.4000 19.5692 1.1021
29.4200 19.5825 1.0988
29.4400 19.5958 1.0942
29.4600 19.6091 1.1030
29.4800 19.6224 1.0985
29.5000 19.6358 1.0942
29.5200 19.6491 1.1087
29.5400 19.6624 1.0969
29.5600 19.6757 1.0969
29.5800 19.6891 1.1092
29.6000 19.7024 1.1041
29.6200 19.7157 1.1016
29.6400 19.7291 1.1092
29.6600 19.7424 1.1071
29.6800 19.7558 1.0994
29.7000 19.7691 1.1157
29.7200 19.7825 1.1098
29.7400 19.7958 1.0964
29.7600 19.8092 1.1139
29.7800 19.8225 1.1126
29.8000 19.8358 1.0981
29.8200 19.8491 1.1181
29.8400 19.8624 1.1167
29.8600 19.8758 1.0993
29.8800 19.8891 1.1160
29.9000 19.9024 1.1158
29.9200 19.9157 1.1061
29.9400 19.9291 1.1212
29.9600 19.9424 1.1175
29.9800 19.9558 1.1081
30.0000 19.9691 1.1199
30.0200 19.9825 1.1169
30.0400 19.9959 1.1049
30.0600 20.0092 1.1287
30.0800 20.0225 1.1164
30.1000 20.0358 1.1051
30.1200 20.0492 1.1282
30.1400 20.0625 1.1201
30.1600 20.0758 1.1096
30.1800 20.0891 1.1297
30.2000 20.1024 1.1213
30.2200 20.1158 1.1157
30.2400 20.1291 1.1272
30.2600 20.1424 1.1224
30.2800 20.1557 1.1177
30.3000 20.1690 1.1284
30.3200 20.1824 1.1207
30.3400 20.1957 1.1228
30.3600 20.2091 1.1341
30.3800 20.2225 1.1203
30.4000 20.2359 1.1222
30.4200 20.2492 1.1351
30.4400 20.2625 1.1202
30.4600 20.2758 1.1226
30.4800 20.2892 1.1332
30.5000 20.3025 1.1269
30.5200 20.3158 1.1239
30.5400 20.3291 1.1381
30.5600 20.3424 1.1262
30.5800 20.3557 1.1253
30.6000 20.3691 1.1402
30.6200 20.3824 1.1257
30.6400 20.3957 1.1297
30.6600 20.4091 1.1398
30.6800 20.4225 1.1266
30.7000 20.4358 1.1311
30.7200 20.4491 1.1426
30.7400 20.4625 1.1286
30.7600 20.4758 1.1353
30.7800 20.4892 1.1408
30.8000 20.5025 1.1295
30.8200 20.5158 1.1400
30.8400 20.5291 1.1387
30.8600 20.5425 1.1322
30.8800 20.5558 1.1428
30.9000 20.5691 1.1399
30.9200 20.5825 1.1372
30.9400 20.5958 1.1416
30.9600 20.6092 1.1410
30.9800 20.6224 1.1398
31.0000 20.6357 1.1438
31.0200 20.6491 1.1434
31.0400 20.6624 1.1419
31.0600 20.6757 1.1402
31.0800 20.6891 1.1453
31.1000 20.7024 1.1483
31.1200 20.7158 1.1406
31.1400 20.7291 1.1476
31.1600 20.7425 1.1484
31.1800 20.7558 1.1422
31.2000 20.7692 1.1487
31.2200 20.7825 1.1468
31.2400 20.7958 1.1481
31.2600 20.8091 1.1526
31.2800 20.8224 1.1504
31.3000 20.8358 1.1460
31.3200 20.8491 1.1541
31.3400 20.8624 1.1509
31.3600 20.8757 1.1485
31.3800 20.8890 1.1593
31.4000 20.9024 1.1445
31.4200 20.9157 1.1512
31.4400 20.9291 1.1602
31.4600 20.9424 1.1520
31.4800 20.9558 1.1515
31.5000 20.9692 1.1586
31.5200 20.9825 1.1544
31.5400 20.9958 1.1561
31.5600 21.0092 1.1591
31.5800 21.0225 1.1528
31.6000 21.0358 1.1583
31.6200 21.0491 1.1634
31.6400 21.0624 1.1523
31.6600 21.0758 1.1630
31.6800 21.0891 1.1617
31.7000 21.1024 1.1582
31.7200 21.1157 1.1651
31.7400 21.1291 1.1614
31.7600 21.1425 1.1577
31.7800 21.1558 1.1665
31.8000 21.1691 1.1624
31.8200 21.1824 1.1626
31.8400 21.1958 1.1689
31.8600 21.2091 1.1589
31.8800 21.2225 1.1631
31.9000 21.2358 1.1689
31.9200 21.2492 1.1623
31.9400 21.2625 1.1665
31.9600 21.2759 1.1686
31.9800 21.2891 1.1623
32.0000 21.3024 1.1740
32.0200 21.3158 1.1682
32.0400 21.3291 1.1636
32.0600 21.3424 1.1717
32.0800 21.3557 1.1721
32.1000 21.3690 1.1687
32.1200 21.3824 1.1735
32.1400 21.3958 1.1705
32.1600 21.4091 1.1725
32.1800 21.4224 1.1754
32.2000 21.4358 1.1735
32.2200 21.4492 1.1727
32.2400 21.4625 1.1779
32.2600 21.4758 1.1715
32.2800 21.4891 1.1744
32.3000 21.5025 1.1744
32.3200 21.5158 1.1715
32.3400 21.5291 1.1745
32.3600 21.5424 1.1785
32.3800 21.5558 1.1738
32.4000 21.5691 1.1787
32.4200 21.5825 1.1767
32.4400 21.5958 1.1754
32.4600 21.6091 1.1820
32.4800 21.6224 1.1760
32.5000 21.6358 1.1789
32.5200 21.6491 1.1833
32.5400 21.6624 1.1779
32.5600 21.6758 1.1840
32.5800 21.6892 1.1813
32.6000 21.7025 1.1810
32.6200 21.7158 1.1888
32.6400 21.7291 1.1852
32.6600 21.7425 1.1829
32.6800 21.7558 1.1871
32.7000 21.7691 1.1862
32.7200 21.7824 1.1859
32.7400 21.7957 1.1921
32.7600 21.8091 1.1938
32.7800 21.8224 1.1869
32.8000 21.8357 1.1937
32.8200 21.8491 1.1913
32.8400 21.8624 1.1891
32.8600 21.8758 1.1999
32.8800 21.8891 1.1916
32.9000 21.9024 1.1949
32.9200 21.9158 1.1970
32.9400 21.9291 1.1910
32.9600 21.9425 1.1963
32.9800 21.9558 1.2003
33.0000 21.9691 1.1918
33.0200 21.9825 1.1982
33.0400 21.9958 1.1956
33.0600 22.0091 1.1963
33.0800 22.0225 1.2001
33.1000 22.0358 1.2001
33.1200 22.0492 1.1970
33.1400 22.0625 1.1994
33.1600 22.0758 1.2011
33.1800 22.0891 1.2022
33.2000 22.1024 1.2019
33.2200 22.1157 1.2071
33.2400 22.1290 1.2004
33.2600 22.1424 1.2016
33.2800 22.1558 1.2063
33.3000 22.1692 1.2076
33.3200 22.1825 1.2027
33.3400 22.1958 1.2096
33.3600 22.2092 1.2127
33.3800 22.2225 1.1999
33.4000 22.2359 1.2124
33.4200 22.2492 1.2124
33.4400 22.2625 1.2034
33.4600 22.2758 1.2155
33.4800 22.2891 1.2082
33.5000 22.3024 1.2071
33.5200 22.3157 1.2169
33.5400 22.3290 1.2195
33.5600 22.3424 1.2038
33.5800 22.3557 1.2174
33.6000 22.3691 1.2190
33.6200 22.3824 1.2058
33.6400 22.3958 1.2237
33.6600 22.4092 1.2163
33.6800 22.4225 1.2095
33.7000 22.4358 1.2229
33.7200 22.4492 1.2154
33.7400 22.4625 1.2144
33.7600 22.4759 1.2235
33.7800 22.4892 1.2161
33.8000 22.5024 1.2140
33.8200 22.5158 1.2289
33.8400 22.5291 1.2154
33.8600 22.5424 1.2137
33.8800 22.5557 1.2312
33.9000 22.5690 1.2164
33.9200 22.5824 1.2232
33.9400 22.5958 1.2293
33.9600 22.6091 1.2216
33.9800 22.6224 1.2198
34.0000 22.6357 1.2299
34.0200 22.6491 1.2270
34.0400 22.6625 1.2206
34.0600 22.6758 1.2287
34.0800 22.6891 1.2309
34.1000 22.7025 1.2228
34.1200 22.7158 1.2311
34.1400 22.7291 1.2323
34.1600 22.7425 1.2245
34.1800 22.7558 1.2356
34.2000 22.7691 1.2317
34.2200 22.7824 1.2221
34.2400 22.7957 1.2358
34.2600 22.8090 1.2382
34.2800 22.8224 1.2292
34.3000 22.8358 1.2362
34.3200 22.8491 1.2388
34.3400 22.8624 1.2291
34.3600 22.8758 1.2402
34.3800 22.8892 1.2357
34.4000 22.9025 1.2354
34.4200 22.9158 1.2427
34.4400 22.9292 1.2375
34.4600 22.9425 1.2331
34.4800 22.9558 1.2424
34.5000 22.9691 1.2413
34.5200 22.9824 1.2357
34.5400 22.9957 1.2445
34.5600 23.0091 1.2391
34.5800 23.0224 1.2400
34.6000 23.0358 1.2484
34.6200 23.0491 1.2407
34.6400 23.0624 1.2435
34.6600 23.0757 1.2490
34.6800 23.0891 1.2425
34.7000 23.1024 1.2422
34.7200 23.1158 1.2551
34.7400 23.1292 1.2444
34.7600 23.1425 1.2437
34.7800 23.1558 1.2559
34.8000 23.1692 1.2428
34.8200 23.1825 1.2457
34.8400 23.1959 1.2575
34.8600 23.2092 1.2455
34.8800 23.2225 1.2490
34.9000 23.2358 1.2594
34.9200 23.2491 1.2497
34.9400 23.2624 1.2522
34.9600 23.2757 1.2642
34.9800 23.2891 1.2492
35.0000 23.3024 1.2533
35.0200 23.3157 1.2606
35.0400 23.3291 1.2531
35.0600 23.3424 1.2534
35.0800 23.3558 1.2661
35.1000 23.3691 1.2540
35.1200 23.3825 1.2528
35.1400 23.3958 1.2621
35.1600 23.4091 1.2553
35.1800 23.4225 1.2567
35.2000 23.4358 1.2628
35.2200 23.4491 1.2606
35.2400 23.4625 1.2559
35.2600 23.4758 1.2659
35.2800 23.4891 1.2638
35.3000 23.5024 1.2577
35.3200 23.5157 1.2740
35.3400 23.5290 1.2651
35.3600 23.5424 1.2632
35.3800 23.5557 1.2720
35.4000 23.5690 1.2661
35.4200 23.5824 1.2637
35.4400 23.5958 1.2753
35.4600 23.6092 1.2673
35.4800 23.6225 1.2649
35.5000 23.6359 1.2756
35.5200 23.6492 1.2702
35.5400 23.6625 1.2646
35.5600 23.6759 1.2738
35.5800 23.6892 1.2729
35.6000 23.7024 1.2711
35.6200 23.7157 1.2765
35.6400 23.7291 1.2718
35.6600 23.7424 1.2715
35.6800 23.7557 1.2823
35.7000 23.7691 1.2756
35.7200 23.7824 1.2732
35.7400 23.7958 1.2833
35.7600 23.8091 1.2744
35.7800 23.8225 1.2773
35.8000 23.8358 1.2834
35.8200 23.8492 1.2776
35.8400 23.8625 1.2777
35.8600 23.8758 1.2825
35.8800 23.8891 1.2775
35.9000 23.9025 1.2848
35.9200 23.9158 1.2904
35.9400 23.9291 1.2791
35.9600 23.9424 1.2855
35.9800 23.9558 1.2897
36.0000 23.9691 1.2829
36.0200 23.9824 1.2864
36.0400 23.9958 1.2912
36.0600 24.0091 1.2870
36.0800 24.0224 1.2835
36.1000 24.0358 1.2933
36.1200 24.0491 1.2889
36.1400 24.0625 1.2926
36.1600 24.0758 1.2965
36.1800 24.0892 1.2880
36.2000 24.1025 1.2888
36.2200 24.1158 1.2988
36.2400 24.1291 1.2894
36.2600 24.1425 1.2906
36.2800 24.1558 1.2980
36.3000 24.1692 1.2952
36.3200 24.1825 1.2912
36.3400 24.1958 1.3060
36.3600 24.2091 1.2943
36.3800 24.2224 1.2919
36.4000 24.2357 1.3025
36.4200 24.2491 1.2958
36.4400 24.2624 1.3004
36.4600 24.2757 1.3049
36.4800 24.2891 1.2971
36.5000 24.3024 1.2998
36.5200 24.3158 1.3067
36.5400 24.3291 1.3045
36.5600 24.3425 1.3030
36.5800 24.3558 1.3087
36.6000 24.3692 1.3035
36.6200 24.3825 1.3049
36.6400 24.3959 1.3121
36.6600 24.4092 1.3006
36.6800 24.4224 1.3068
36.7000 24.4357 1.3128
36.7200 24.4491 1.3032
36.7400 24.4624 1.3075
36.7600 24.4758 1.3128
36.7800 24.4891 1.3079
36.8000 24.5024 1.3097
36.8200 24.5157 1.3178
36.8400 24.5291 1.3073
36.8600 24.5424 1.3147
36.8800 24.5557 1.3180
36.9000 24.5691 1.3080
36.9200 24.5825 1.3170
36.9400 24.5958 1.3190
36.9600 24.6091 1.3122
36.9800 24.6225 1.3185
37.0000 24.6358 1.3189
37.0200 24.6492 1.3131
37.0400 24.6625 1.3214
37.0600 24.6758 1.3226
37.0800 24.6891 1.3128
37.1000 24.7024 1.3216
37.1200 24.7157 1.3243
37.1400 24.7290 1.3162
37.1600 24.7424 1.3300
37.1800 24.7558 1.3221
37.2000 24.7691 1.3163
37.2200 24.7824 1.3299
37.2400 24.7958 1.3221
37.2600 24.8092 1.3190
37.2800 24.8225 1.3348
37.3000 24.8359 1.3208
37.3200 24.8492 1.3247
37.3400 24.8625 1.3414
37.3600 24.8758 1.3206
37.3800 24.8892 1.3259
37.4000 24.9025 1.3386
37.4200 24.9157 1.3273
37.4400 24.9291 1.3308
37.4600 24.9424 1.3360
37.4800 24.9557 1.3271
37.5000 24.9690 1.3322
37.5200 24.9824 1.3358
37.5400 24.9957 1.3314
37.5600 25.0091 1.3362
37.5800 25.0224 1.3417
37.6000 25.0358 1.3317
37.6200 25.0491 1.3370
37.6400 25.0625 1.3432
37.6600 25.0758 1.3336
37.6800 25.0891 1.3397
37.7000 25.1025 1.3419
37.7200 25.1158 1.3359
37.7400 25.1292 1.3453
37.7600 25.1424 1.3449
37.7800 25.1557 1.3395
37.8000 25.1691 1.3432
37.8200 25.1824 1.3471
37.8400 25.1957 1.3414
37.8600 25.2091 1.3471
37.8800 25.2224 1.3480
37.9000 25.2358 1.3394
37.9200 25.2491 1.3482
37.9400 25.2625 1.3487
37.9600 25.2758 1.3470
37.9800 25.2892 1.3546
38.0000 25.3025 1.3502
38.0200 25.3158 1.3450
38.0400 25.3291 1.3502
38.0600 25.3424 1.3527
38.0800 25.3558 1.3521
38.1000 25.3691 1.3495
38.1200 25.3825 1.3568
38.1400 25.3958 1.3552
38.1600 25.4091 1.3575
38.1800 25.4225 1.3591
38.2000 25.4358 1.3560
38.2200 25.4491 1.3582
38.2400 25.4624 1.3637
38.2600 25.4757 1.3543
38.2800 25.4891 1.3545
38.3000 25.5024 1.3663
38.3200 25.5157 1.3601
38.3400 25.5291 1.3576
38.3600 25.5425 1.3726
38.3800 25.5558 1.3538
38.4000 25.5691 1.3604
38.4200 25.5825 1.3741
38.4400 25.5958 1.3593
38.4600 25.6092 1.3648
38.4800 25.6225 1.3709
38.5000 25.6358 1.3615
38.5200 25.6491 1.3680
38.5400 25.6625 1.3718
38.5600 25.6758 1.3650
38.5800 25.6891 1.3771
38.6000 25.7024 1.3728
38.6200 25.7157 1.3678
38.6400 25.7291 1.3767
38.6600 25.7424 1.3713
38.6800 25.7557 1.3699
38.7000 25.7691 1.3816
38.7200 25.7825 1.3739
38.7400 25.7958 1.3712
38.7600 25.8092 1.3791
38.7800 25.8225 1.3749
38.8000 25.8358 1.3774
38.8200 25.8492 1.3820
38.8400 25.8625 1.3790
38.8600 25.8758 1.3789
38.8800 25.8891 1.3821
38.9000 25.9025 1.3821
38.9200 25.9158 1.3813
38.9400 25.9291 1.3849
38.9600 25.9424 1.3861
38.9800 25.9558 1.3848
39.0000 25.9691 1.3792
39.0200 25.9824 1.3890
39.0400 25.9958 1.3865
39.0600 26.0091 1.3843
39.0800 26.0225 1.3912
39.1000 26.0358 1.3862
39.1200 26.0492 1.3844
39.1400 26.0625 1.3948
39.1600 26.0758 1.3891
39.1800 26.0892 1.3894
39.2000 26.1025 1.3959
39.2200 26.1158 1.3916
39.2400 26.1291 1.3906
39.2600 26.1425 1.3982
39.2800 26.1558 1.3903
39.3000 26.1691 1.3932
39.3200 26.1824 1.4033
39.3400 26.1957 1.3905
39.3600 26.2091 1.3912
39.3800 26.2224 1.4076
39.4000 26.2358 1.3917
39.4200 26.2491 1.3984
39.4400 26.2625 1.4104
39.4600 26.2758 1.3912
39.4800 26.2891 1.3991
39.5000 26.3025 1.4098
39.5200 26.3158 1.3963
39.5400 26.3292 1.4026
39.5600 26.3425 1.4074
39.5800 26.3558 1.3967
39.6000 26.3691 1.4084
39.6200 26.3824 1.4132
39.6400 26.3958 1.4004
39.6600 26.4091 1.4061
39.6800 26.4224 1.4097
39.7000 26.4358 1.4014
39.7200 26.4491 1.4090
39.7400 26.4624 1.4109
39.7600 26.4758 1.4041
39.7800 26.4891 1.4135
39.8000 26.5025 1.4148
39.8200 26.5158 1.4072
39.8400 26.5292 1.4152
39.8600 26.5425 1.4165
39.8800 26.5558 1.4145
39.9000 26.5692 1.4134
39.9200 26.5825 1.4210
39.9400 26.5958 1.4179
39.9600 26.6091 1.4167
39.9800 26.6224 1.4233
40.0000 26.6357 1.4181
40.0200 26.6490 1.4202
40.0400 26.6624 1.4248
40.0600 26.6757 1.4209
40.0800 26.6891 1.4214
40.1000 26.7025 1.4212
40.1200 26.7158 1.4232
40.1400 26.7291 1.4251
40.1600 26.7425 1.4241
40.1800 26.7558 1.4249
40.2000 26.7691 1.4265
40.2200 26.7824 1.4298
40.2400 26.7958 1.4274
40.2600 26.8092 1.4294
40.2800 26.8225 1.4285
40.3000 26.8358 1.4309
40.3200 26.8491 1.4354
40.3400 26.8625 1.4335
40.3600 26.8758 1.4336
40.3800 26.8891 1.4341
40.4000 26.9024 1.4389
40.4200 26.9157 1.4372
40.4400 26.9290 1.4394
40.4600 26.9424 1.4405
40.4800 26.9557 1.4344
40.5000 26.9691 1.4407
40.5200 26.9825 1.4381
40.5400 26.9959 1.4362
40.5600 27.0092 1.4434
40.5800 27.0225 1.4446
40.6000 27.0358 1.4369
40.6200 27.0492 1.4465
40.6400 27.0625 1.4472
40.6600 27.0758 1.4416
40.6800 27.0891 1.4482
40.7000 27.1024 1.4478
40.7200 27.1158 1.4467
40.7400 27.1290 1.4541
40.7600 27.1423 1.4482
40.7800 27.1557 1.4486
40.8000 27.1690 1.4556
40.8200 27.1824 1.4494
40.8400 27.1957 1.4455
40.8600 27.2091 1.4581
40.8800 27.2225 1.4541
40.9000 27.2358 1.4509
40.9200 27.2492 1.4614
40.9400 27.2625 1.4550
40.9600 27.2759 1.4592
40.9800 27.2892 1.4637
41.0000 27.3025 1.4544
41.0200 27.3158 1.4640
41.0400 27.3291 1.4639
41.0600 27.3424 1.4604
41.0800 27.3558 1.4600
41.1000 27.3691 1.4655
41.1200 27.3824 1.4618
41.1400 27.3957 1.4624
41.1600 27.4091 1.4673
41.1800 27.4224 1.4627
41.2000 27.4357 1.4679
41.2200 27.4491 1.4674
41.2400 27.4625 1.4699
41.2600 27.4758 1.4642
41.2800 27.4892 1.4708
41.3000 27.5025 1.4732
41.3200 27.5158 1.4662
41.3400 27.5292 1.4724
41.3600 27.5425 1.4757
41.3800 27.5558 1.4682
41.4000 27.5691 1.4774
41.4200 27.5825 1.4788
41.4400 27.5958 1.4718
41.4600 27.6091 1.4805
41.4800 27.6224 1.4784
41.5000 27.6357 1.4764
41.5200 27.6491 1.4843
41.5400 27.6624 1.4780
41.5600 27.6758 1.4807
41.5800 27.6891 1.4894
41.6000 27.7025 1.4805
41.6200 27.7159 1.4764
41.6400 27.7292 1.4930
41.6600 27.7425 1.4796
41.6800 27.7558 1.4820
41.7000 27.7692 1.4930
41.7200 27.7825 1.4806
41.7400 27.7958 1.4889
41.7600 27.8091 1.4961
41.7800 27.8224 1.4832
41.8000 27.8358 1.4921
41.8200 27.8491 1.5001
41.8400 27.8624 1.4833
41.8600 27.8758 1.4981
41.8800 27.8891 1.4996
41.9000 27.9024 1.4827
41.9200 27.9157 1.5004
41.9400 27.9291 1.4990
41.9600 27.9424 1.4919
41.9800 27.9558 1.5034
42.0000 27.9692 1.4976
42.0200 27.9825 1.4970
42.0400 27.9958 1.5042
42.0600 28.0092 1.5023
42.0800 28.0225 1.4982
42.1000 28.0358 1.5070
42.1200 28.0491 1.5025
42.1400 28.0624 1.5050
42.1600 28.0758 1.5101
42.1800 28.0891 1.4997
42.2000 28.1024 1.5080
42.2200 28.1157 1.5096
42.2400 28.1291 1.5031
42.2600 28.1424 1.5137
42.2800 28.1557 1.5059
42.3000 28.1691 1.5121
42.3200 28.1825 1.5133
42.3400 28.1958 1.5057
42.3600 28.2092 1.5161
42.3800 28.2225 1.5199
42.4000 28.2358 1.5112
42.4200 28.2491 1.5173
42.4400 28.2625 1.5148
42.4600 28.2758 1.5092
42.4800 28.2891 1.5238
42.5000 28.3025 1.5204
42.5200 28.3158 1.5122
42.5400 28.3291 1.5293
42.5600 28.3424 1.5179
42.5800 28.3557 1.5167
42.6000 28.3690 1.5342
42.6200 28.3824 1.5150
42.6400 28.3957 1.5250
42.6600 28.4091 1.5328
42.6800 28.4225 1.5183
42.7000 28.4359 1.5274
42.7200 28.4492 1.5345
42.7400 28.4625 1.5218
42.7600 28.4759 1.5250
42.7800 28.4892 1.5388
42.8000 28.5025 1.5205
42.8200 28.5158 1.5324
42.8400 28.5291 1.5406
42.8600 28.5424 1.5271
42.8800 28.5557 1.5392
42.9000 28.5691 1.5341
42.9200 28.5824 1.5313
42.9400 28.5957 1.5384
42.9600 28.6091 1.5409
42.9800 28.6225 1.5305
43.0000 28.6358 1.5405
43.0200 28.6491 1.5423
43.0400 28.6625 1.5380
43.0600 28.6758 1.5456
43.0800 28.6892 1.5403
43.1000 28.7025 1.5387
43.1200 28.7158 1.5460
43.1400 28.7291 1.5459
43.1600 28.7425 1.5451
43.1800 28.7558 1.5453
43.2000 28.7691 1.5490
43.2200 28.7824 1.5478
43.2400 28.7958 1.5466
43.2600 28.8091 1.5517
43.2800 28.8224 1.5499
43.3000 28.8357 1.5514
43.3200 28.8491 1.5589
43.3400 28.8624 1.5457
43.3600 28.8758 1.5546
43.3800 28.8891 1.5586
43.4000 28.9025 1.5511
43.4200 28.9158 1.5589
43.4400 28.9291 1.5613
43.4600 28.9425 1.5501
43.4800 28.9558 1.5676
43.5000 28.9692 1.5676
43.5200 28.9825 1.5463
43.5400 28.9958 1.5698
43.5600 29.0091 1.5697
43.5800 29.0225 1.5503
43.6000 29.0358 1.5705
43.6200 29.0491 1.5687
43.6400 29.0624 1.5568
43.6600 29.0757 1.5741
43.6800 29.0891 1.5688
43.7000 29.1024 1.5613
43.7200 29.1158 1.5754
43.7400 29.1291 1.5748
43.7600 29.1424 1.5666
43.7800 29.1558 1.5772
43.8000 29.1692 1.5729
43.8200 29.1825 1.5673
43.8400 29.1958 1.5790
43.8600 29.2092 1.5774
43.8800 29.2225 1.5748
43.9000 29.2358 1.5797
43.9200 29.2491 1.5818
43.9400 29.2624 1.5788
43.9600 29.2758 1.5826
43.9800 29.2891 1.5821
44.0000 29.3024 1.5791
44.0200 29.3157 1.5843
44.0400 29.3291 1.5892
44.0600 29.3424 1.5826
44.0800 29.3558 1.5824
44.1000 29.3691 1.5927
44.1200 29.3824 1.5844
44.1400 29.3958 1.5826
44.1600 29.4091 1.6003
44.1800 29.4225 1.5818
44.2000 29.4358 1.5896
44.2200 29.4492 1.5982
44.2400 29.4625 1.5840
44.2600 29.4758 1.5971
44.2800 29.4891 1.6004
44.3000 29.5024 1.5853
44.3200 29.5158 1.6001
44.3400 29.5291 1.5992
44.3600 29.5424 1.5926
44.3800 29.5557 1.6028
44.4000 29.5690 1.6067
44.4200 29.5824 1.5942
44.4400 29.5957 1.6048
44.4600 29.6091 1.6087
44.4800 29.6225 1.5995
44.5000 29.6359 1.6071
44.5200 29.6492 1.6061
44.5400 29.6625 1.6029
44.5600 29.6758 1.6091
44.5800 29.6891 1.6093
44.6000 29.7025 1.6082
44.6200 29.7158 1.6086
44.6400 29.7291 1.6136
44.6600 29.7424 1.6099
44.6800 29.7558 1.6142
44.7000 29.7691 1.6132
44.7200 29.7824 1.6113
44.7400 29.7957 1.6214
44.7600 29.8090 1.6158
44.7800 29.8224 1.6167
44.8000 29.8357 1.6149
44.8200 29.8491 1.6207
44.8400 29.8624 1.6223
44.8600 29.8758 1.6186
44.8800 29.8892 1.6211
44.9000 29.9025 1.6215
44.9200 29.9158 1.6244
44.9400 29.9292 1.6233
44.9600 29.9425 1.6234
44.9800 29.9558 1.6288
45.0000 29.9691 1.6315
45.0200 29.9824 1.6292
45.0400 29.9957 1.6306
45.0600 30.0091 1.6317
45.0800 30.0224 1.6252
45.1000 30.0357 1.6368
45.1200 30.0491 1.6302
45.1400 30.0625 1.6316
45.1600 30.0758 1.6366
45.1800 30.0891 1.6344
45.2000 30.1025 1.6362
45.2200 30.1158 1.6411
45.2400 30.1292 1.6346
45.2600 30.1425 1.6366
45.2800 30.1558 1.6446
45.3000 30.1691 1.6385
45.3200 30.1825 1.6403
45.3400 30.1958 1.6505
45.3600 30.2091 1.6398
45.3800 30.2225 1.6477
45.4000 30.2358 1.6502
45.4200 30.2492 1.6397
45.4400 30.2625 1.6498
45.4600 30.2758 1.6519
45.4800 30.2891 1.6476
45.5000 30.3024 1.6519
45.5200 30.3158 1.6525
45.5400 30.3291 1.6498
45.5600 30.3424 1.6543
45.5800 30.3558 1.6570
45.6000 30.3691 1.6509
45.6200 30.3825 1.6550
45.6400 30.3958 1.6623
45.6600 30.4091 1.6548
45.6800 30.4225 1.6606
45.7000 30.4358 1.6618
45.7200 30.4491 1.6614
45.7400 30.4624 1.6648
45.7600 30.4758 1.6646
45.7800 30.4891 1.6641
45.8000 30.5024 1.6681
45.8200 30.5157 1.6679
45.8400 30.5291 1.6652
45.8600 30.5424 1.6681
45.8800 30.5558 1.6702
45.9000 30.5691 1.6634
45.9200 30.5824 1.6739
45.9400 30.5958 1.6697
45.9600 30.6092 1.6673
45.9800 30.6225 1.6786
46.0000 30.6358 1.6751
46.0200 30.6491 1.6713
46.0400 30.6625 1.6798
46.0600 30.6758 1.6780
46.0800 30.6891 1.6739
46.1000 30.7024 1.6806
46.1200 30.7158 1.6798
46.1400 30.7291 1.6764
46.1600 30.7424 1.6848
46.1800 30.7557 1.6884
46.2000 30.7691 1.6803
46.2200 30.7824 1.6848
46.2400 30.7958 1.6886
46.2600 30.8091 1.6811
46.2800 30.8224 1.6887
46.3000 30.8358 1.6924
46.3200 30.8492 1.6845
46.3400 30.8625 1.6899
46.3600 30.8758 1.6939
46.3800 30.8892 1.6916
46.4000 30.9025 1.6927
46.4200 30.9158 1.6971
46.4400 30.9291 1.6939
46.4600 30.9425 1.6990
46.4800 30.9558 1.6994
46.5000 30.9691 1.6949
46.5200 30.9824 1.6981
46.5400 30.9957 1.7045
46.5600 31.0091 1.6998
46.5800 31.0224 1.7002
46.6000 31.0357 1.7031
46.6200 31.0491 1.7068
46.6400 31.0624 1.7068
46.6600 31.0758 1.7060
46.6800 31.0892 1.7039
46.7000 31.1025 1.7113
46.7200 31.1158 1.7110
46.7400 31.1291 1.7085
46.7600 31.1425 1.7096
46.7800 31.1558 1.7123
46.8000 31.1691 1.7113
46.8200 31.1825 1.7147
46.8400 31.1958 1.7140
46.8600 31.2091 1.7148
46.8800 31.2224 1.7186
46.9000 31.2357 1.7164
46.9200 31.2491 1.7213
46.9400 31.2624 1.7234
46.9600 31.2758 1.7169
46.9800 31.2891 1.7224
47.0000 31.3024 1.7270
47.0200 31.3158 1.7193
47.0400 31.3291 1.7238
47.0600 31.3425 1.7286
47.0800 31.3558 1.7200
47.1000 31.3691 1.7306
47.1200 31.3825 1.7308
47.1400 31.3958 1.7202
47.1600 31.4091 1.7326
47.1800 31.4224 1.7332
47.2000 31.4358 1.7299
47.2200 31.4491 1.7346
47.2400 31.4624 1.7384
47.2600 31.4757 1.7307
47.2800 31.4891 1.7341
47.3000 31.5024 1.7381
47.3200 31.5158 1.7342
47.3400 31.5291 1.7435
47.3600 31.5424 1.7430
47.3800 31.5558 1.7350
47.4000 31.5691 1.7439
47.4200 31.5824 1.7403
47.4400 31.5957 1.7400
47.4600 31.6091 1.7469
47.4800 31.6224 1.7479
47.5000 31.6358 1.7417
47.5200 31.6491 1.7495
47.5400 31.6625 1.7528
47.5600 31.6758 1.7456
47.5800 31.6892 1.7518
47.6000 31.7025 1.7515
47.6200 31.7158 1.7489
47.6400 31.7291 1.7580
47.6600 31.7424 1.7545
47.6800 31.7557 1.7571
47.7000 31.7690 1.7582
47.7200 31.7824 1.7574
47.7400 31.7958 1.7614
47.7600 31.8092 1.7607
47.7800 31.8225 1.7600
47.8000 31.8358 1.7623
47.8200 31.8492 1.7687
47.8400 31.8625 1.7628
47.8600 31.8759 1.7667
47.8800 31.8892 1.7650
47.9000 31.9025 1.7635
47.9200 31.9158 1.7725
47.9400 31.9291 1.7672
47.9600 31.9424 1.7692
47.9800 31.9557 1.7723
48.0000 31.9690 1.7701
48.0200 31.9824 1.7744
48.0400 31.9957 1.7734
48.0600 32.0091 1.7787
48.0800 32.0224 1.7766
48.1000 32.0358 1.7782
48.1200 32.0492 1.7758
48.1400 32.0625 1.7796
48.1600 32.0759 1.7781
48.1800 32.0892 1.7873
48.2000 32.1025 1.7842
48.2200 32.1159 1.7851
48.2400 32.1292 1.7867
48.2600 32.1424 1.7884
48.2800 32.1557 1.7918
48.3000 32.1691 1.7857
48.3200 32.1824 1.7906
48.3400 32.1957 1.7977
48.3600 32.2090 1.7861
48.3800 32.2224 1.7968
48.4000 32.2357 1.7997
48.4200 32.2491 1.7942
48.4400 32.2624 1.8003
48.4600 32.2758 1.7986
48.4800 32.2892 1.7972
48.5000 32.3025 1.7998
48.5200 32.3158 1.8026
48.5400 32.3291 1.8026
48.5600 32.3425 1.8042
48.5800 32.3558 1.8051
48.6000 32.3691 1.8053
48.6200 32.3825 1.8058
48.6400 32.3958 1.8096
48.6600 32.4091 1.8088
48.6800 32.4225 1.8086
48.7000 32.4357 1.8124
48.7200 32.4490 1.8142
48.7400 32.4624 1.8159
48.7600 32.4757 1.8105
48.7800 32.4891 1.8183
48.8000 32.5024 1.8184
48.8200 32.5158 1.8156
48.8400 32.5292 1.8196
48.8600 32.5425 1.8224
48.8800 32.5558 1.8206
48.9000 32.5691 1.8228
48.9200 32.5825 1.8265
48.9400 32.5958 1.8216
48.9600 32.6091 1.8298
48.9800 32.6224 1.8274
49.0000 32.6358 1.8244
49.0200 32.6491 1.8339
49.0400 32.6624 1.8291
49.0600 32.6758 1.8344
49.0800 32.6891 1.8386
49.1000 32.7024 1.8277
49.1200 32.7158 1.8405
49.1400 32.7291 1.8386
49.1600 32.7424 1.8336
49.1800 32.7558 1.8439
49.2000 32.7691 1.8418
49.2200 32.7825 1.8360
49.2400 32.7958 1.8456
49.2600 32.8091 1.8493
49.2800 32.8225 1.8453
49.3000 32.8359 1.8512
49.3200 32.8492 1.8484
49.3400 32.8625 1.8456
49.3600 32.8758 1.8536
49.3800 32.8891 1.8490
49.4000 32.9025 1.8495
49.4200 32.9158 1.8582
49.4400 32.9291 1.8540
49.4600 32.9424 1.8528
49.4800 32.9558 1.8602
49.5000 32.9691 1.8610
49.5200 32.9824 1.8575
49.5400 32.9958 1.8625
49.5600 33.0091 1.8620
49.5800 33.0225 1.8603
49.6000 33.0358 1.8628
49.6200 33.0491 1.8723
49.6400 33.0625 1.8692
49.6600 33.0758 1.8639
49.6800 33.0892 1.8698
49.7000 33.1025 1.8716
49.7200 33.1158 1.8717
49.7400 33.1291 1.8759
49.7600 33.1424 1.8750
49.7800 33.1557 1.8771
49.8000 33.1690 1.8769
49.8200 33.1823 1.8800
49.8400 33.1957 1.8768
49.8600 33.2090 1.8783
49.8800 33.2224 1.8820
49.9000 33.2357 1.8861
49.9200 33.2491 1.8828
49.9400 33.2625 1.8828
49.9600 33.2759 1.8841
49.9800 33.2892 1.8862
50.0000 33.3025 1.8906
50.0200 33.3159 1.8856
50.0400 33.3292 1.8918
50.0600 33.3424 1.8921
50.0800 33.3557 1.8899
50.1000 33.3691 1.8971
50.1200 33.3824 1.8965
50.1400 33.3957 1.8931
50.1600 33.4090 1.9042
50.1800 33.4224 1.8990
50.2000 33.4358 1.8926
50.2200 33.4491 1.9071
50.2400 33.4624 1.9063
50.2600 33.4758 1.8951
50.2800 33.4892 1.9153
50.3000 33.5025 1.9053
50.3200 33.5158 1.8982
50.3400 33.5291 1.9162
50.3600 33.5425 1.9096
50.3800 33.5558 1.9045
50.4000 33.5691 1.9187
50.4200 33.5824 1.9122
50.4400 33.5958 1.9107
50.4600 33.6091 1.9224
50.4800 33.6224 1.9156
50.5000 33.6358 1.9153
50.5200 33.6491 1.9257
50.5400 33.6624 1.9207
50.5600 33.6758 1.9199
50.5800 33.6891 1.9278
50.6000 33.7024 1.9243
50.6200 33.7158 1.9249
50.6400 33.7291 1.9300
50.6600 33.7425 1.9235
50.6800 33.7558 1.9265
50.7000 33.7691 1.9349
50.7200 33.7825 1.9309
50.7400 33.7958 1.9282
50.7600 33.8092 1.9378
50.7800 33.8225 1.9373
50.8000 33.8358 1.9334
50.8200 33.8491 1.9416
50.8400 33.8625 1.9395
50.8600 33.8758 1.9351
50.8800 33.8891 1.9445
50.9000 33.9024 1.9439
50.9200 33.9158 1.9394
50.9400 33.9291 1.9529
50.9600 33.9424 1.9450
50.9800 33.9558 1.9434
51.0000 33.9691 1.9571
51.0200 33.9825 1.9467
51.0400 33.9958 1.9480
51.0600 34.0091 1.9598
51.0800 34.0225 1.9511
51.1000 34.0358 1.9502
51.1200 34.0491 1.9604
51.1400 34.0624 1.9593
51.1600 34.0758 1.9538
51.1800 34.0891 1.9691
51.2000 34.1025 1.9611
51.2200 34.1158 1.9584
51.2400 34.1291 1.9736
51.2600 34.1424 1.9626
51.2800 34.1558 1.9658
51.3000 34.1691 1.9738
51.3200 34.1824 1.9653
51.3400 34.1957 1.9726
51.3600 34.2091 1.9778
51.3800 34.2225 1.9680
51.4000 34.2358 1.9720
51.4200 34.2491 1.9849
51.4400 34.2625 1.9737
51.4600 34.2758 1.9778
51.4800 34.2892 1.9843
51.5000 34.3025 1.9773
51.5200 34.3158 1.9852
51.5400 34.3291 1.9915
51.5600 34.3424 1.9853
51.5800 34.3557 1.9833
51.6000 34.3690 1.9956
51.6200 34.3824 1.9887
51.6400 34.3957 1.9867
51.6600 34.4091 2.0011
51.6800 34.4224 1.9898
51.7000 34.4358 1.9958
51.7200 34.4491 2.0015
51.7400 34.4625 1.9939
51.7600 34.4759 2.0009
51.7800 34.4892 2.0055
51.8000 34.5025 1.9964
51.8200 34.5158 2.0002
51.8400 34.5292 2.0077
51.8600 34.5425 2.0010
51.8800 34.5558 2.0108
51.9000 34.5691 2.0106
51.9200 34.5824 2.0090
51.9400 34.5958 2.0118
51.9600 34.6091 2.0130
51.9800 34.6224 2.0162
52.0000 34.6357 2.0167
52.0200 34.6491 2.0138
52.0400 34.6624 2.0144
52.0600 34.6757 2.0248
52.0800 34.6891 2.0206
52.1000 34.7025 2.0187
52.1200 34.7159 2.0251
52.1400 34.7292 2.0243
52.1600 34.7425 2.0305
52.1800 34.7558 2.0273
52.2000 34.7692 2.0270
52.2200 34.7825 2.0347
52.2400 34.7958 2.0324
52.2600 34.8091 2.0312
52.2800 34.8224 2.0354
52.3000 34.8357 2.0371
52.3200 34.8490 2.0361
52.3400 34.8624 2.0421
52.3600 34.8758 2.0345
52.3800 34.8892 2.0422
52.4000 34.9025 2.0477
52.4200 34.9158 2.0383
52.4400 34.9291 2.0499
52.4600 34.9425 2.0482
52.4800 34.9558 2.0407
52.5000 34.9691 2.0555
52.5200 34.9824 2.0550
52.5400 34.9958 2.0460
52.5600 35.0091 2.0582
52.5800 35.0225 2.0624
52.6000 35.0358 2.0500
52.6200 35.0491 2.0672
52.6400 35.0625 2.0600
52.6600 35.0758 2.0558
52.6800 35.0891 2.0680
52.7000 35.1024 2.0676
52.7200 35.1157 2.0599
52.7400 35.1291 2.0711
52.7600 35.1424 2.0662
52.7800 35.1557 2.0670
52.8000 35.1691 2.0757
52.8200 35.1825 2.0712
52.8400 35.1958 2.0733
52.8600 35.2091 2.0801
52.8800 35.2225 2.0777
52.9000 35.2358 2.0772
52.9200 35.2492 2.0828
52.9400 35.2625 2.0806
52.9600 35.2758 2.0824
52.9800 35.2891 2.0886
53.0000 35.3025 2.0894
53.0200 35.3158 2.0809
53.0400 35.3291 2.0940
53.0600 35.3424 2.0937
53.0800 35.3557 2.0861
53.1000 35.3691 2.0955
53.1200 35.3824 2.0976
53.1400 35.3957 2.0922
53.1600 35.4091 2.1005
53.1800 35.4225 2.0995
53.2000 35.4359 2.0990
53.2200 35.4492 2.1043
53.2400 35.4625 2.0993
53.2600 35.4758 2.1059
53.2800 35.4892 2.1101
53.3000 35.5025 2.1021
53.3200 35.5158 2.1058
53.3400 35.5291 2.1151
53.3600 35.5424 2.1118
53.3800 35.5558 2.1102
53.4000 35.5691 2.1217
53.4200 35.5824 2.1170
53.4400 35.5957 2.1196
53.4600 35.6091 2.1196
53.4800 35.6225 2.1230
53.5000 35.6358 2.1258
53.5200 35.6491 2.1248
53.5400 35.6625 2.1254
53.5600 35.6758 2.1270
53.5800 35.6892 2.1302
53.6000 35.7025 2.1306
53.6200 35.7158 2.1315
53.6400 35.7292 2.1352
53.6600 35.7425 2.1312
53.6800 35.7558 2.1359
53.7000 35.7691 2.1431
53.7200 35.7825 2.1369
53.7400 35.7958 2.1409
53.7600 35.8091 2.1447
53.7800 35.8224 2.1460
53.8000 35.8357 2.1452
53.8200 35.8491 2.1514
53.8400 35.8624 2.1474
53.8600 35.8758 2.1543
53.8800 35.8891 2.1547
53.9000 35.9025 2.1539
53.9200 35.9159 2.1586
53.9400 35.9292 2.1545
53.9600 35.9425 2.1573
53.9800 35.9558 2.1635
54.0000 35.9692 2.1604
54.0200 35.9825 2.1621
54.0400 35.9958 2.1674
54.0600 36.0091 2.1662
54.0800 36.0224 2.1660
54.1000 36.0358 2.1723
54.1200 36.0491 2.1679
54.1400 36.0624 2.1776
54.1600 36.0757 2.1738
54.1800 36.0891 2.1700
54.2000 36.1024 2.1789
54.2200 36.1157 2.1847
54.2400 36.1291 2.1780
54.2600 36.1425 2.1785
54.2800 36.1558 2.1865
54.3000 36.1691 2.1857
54.3200 36.1825 2.1862
54.3400 36.1958 2.1910
54.3600 36.2092 2.1888
54.3800 36.2225 2.1948
54.4000 36.2358 2.1943
54.4200 36.2491 2.1930
54.4400 36.2624 2.1969
54.4600 36.2758 2.2019
54.4800 36.2891 2.1953
54.5000 36.3024 2.2031
54.5200 36.3157 2.2079
54.5400 36.3291 2.2000
54.5600 36.3424 2.2117
54.5800 36.3558 2.2113
54.6000 36.3691 2.2051
54.6200 36.3824 2.2174
54.6400 36.3958 2.2179
54.6600 36.4091 2.2099
54.6800 36.4224 2.2211
54.7000 36.4358 2.2183
54.7200 36.4492 2.2191
54.7400 36.4625 2.2195
54.7600 36.4758 2.2250
54.7800 36.4891 2.2263
54.8000 36.5025 2.2246
54.8200 36.5159 2.2275
54.8400 36.5291 2.2314
54.8600 36.5424 2.2356
54.8800 36.5557 2.2349
54.9000 36.5691 2.2342
54.9200 36.5824 2.2379
54.9400 36.5957 2.2436
54.9600 36.6091 2.2361
54.9800 36.6225 2.2395
55.0000 36.6359 2.2522
55.0200 36.6492 2.2374
55.0400 36.6625 2.2492
55.0600 36.6758 2.2572
55.0800 36.6892 2.2436
55.1000 36.7025 2.2525
55.1200 36.7158 2.2601
55.1400 36.7291 2.2475
55.1600 36.7424 2.2605
55.1800 36.7558 2.2644
55.2000 36.7691 2.2541
55.2200 36.7824 2.2660
55.2400 36.7957 2.2700
55.2600 36.8091 2.2593
55.2800 36.8224 2.2640
55.3000 36.8357 2.2760
55.3200 36.8491 2.2647
55.3400 36.8625 2.2737
55.3600 36.8759 2.2804
55.3800 36.8892 2.2699
55.4000 36.9025 2.2808
55.4200 36.9158 2.2837
55.4400 36.9292 2.2780
55.4600 36.9425 2.2870
55.4800 36.9558 2.2881
55.5000 36.9691 2.2857
55.5200 36.9824 2.2937
55.5400 36.9958 2.2922
55.5600 37.0091 2.2842
55.5800 37.0224 2.3039
55.6000 37.0357 2.2972
55.6200 37.0491 2.2918
55.6400 37.0624 2.3069
55.6600 37.0758 2.3065
55.6800 37.0891 2.3001
55.7000 37.1025 2.3076
55.7200 37.1158 2.3155
55.7400 37.1292 2.3058
55.7600 37.1425 2.3090
55.7800 37.1558 2.3211
55.8000 37.1692 2.3141
55.8200 37.1825 2.3159
55.8400 37.1958 2.3257
55.8600 37.2091 2.3175
55.8800 37.2225 2.3247
55.9000 37.2358 2.3338
55.9200 37.2491 2.3186
55.9400 37.2624 2.3318
55.9600 37.2757 2.3382
55.9800 37.2891 2.3191
56.0000 37.3024 2.3398
56.0200 37.3158 2.3419
56.0400 37.3291 2.3290
56.0600 37.3425 2.3437
56.0800 37.3558 2.3442
56.1000 37.3692 2.3376
56.1200 37.3825 2.3488
56.1400 37.3958 2.3475
56.1600 37.4092 2.3430
56.1800 37.4225 2.3517
56.2000 37.4358 2.3575
56.2200 37.4491 2.3488
56.2400 37.4624 2.3623
56.2600 37.4758 2.3587
56.2800 37.4891 2.3534
56.3000 37.5024 2.3623
56.3200 37.5157 2.3634
56.3400 37.5291 2.3687
56.3600 37.5424 2.3660
56.3800 37.5557 2.3669
56.4000 37.5691 2.3711
56.4200 37.5824 2.3737
56.4400 37.5958 2.3748
56.4600 37.6091 2.3755
56.4800 37.6225 2.3790
56.5000 37.6358 2.3825
56.5200 37.6492 2.3831
56.5400 37.6625 2.3830
56.5600 37.6758 2.3902
56.5800 37.6891 2.3867
56.6000 37.7024 2.3923
56.6200 37.7158 2.3939
56.6400 37.7291 2.3927
56.6600 37.7424 2.3950
56.6800 37.7557 2.3986
56.7000 37.7691 2.4000
56.7200 37.7824 2.3984
56.7400 37.7957 2.4088
56.7600 37.8091 2.4028
56.7800 37.8224 2.4096
56.8000 37.8358 2.4091
56.8200 37.8491 2.4069
56.8400 37.8624 2.4163
56.8600 37.8758 2.4175
56.8800 37.8891 2.4145
56.9000 37.9025 2.4207
56.9200 37.9158 2.4230
56.9400 37.9291 2.4221
56.9600 37.9425 2.4224
56.9800 37.9558 2.4293
57.0000 37.9691 2.4317
57.0200 37.9824 2.4312
57.0400 37.9957 2.4324
57.0600 38.0090 2.4377
57.0800 38.0224 2.4339
57.1000 38.0357 2.4386
57.1200 38.0491 2.4451
57.1400 38.0624 2.4385
57.1600 38.0758 2.4485
57.1800 38.0892 2.4477
57.2000 38.1025 2.4444
57.2200 38.1159 2.4559
57.2400 38.1292 2.4529
57.2600 38.1425 2.4526
57.2800 38.1558 2.4622
57.3000 38.1691 2.4605
57.3200 38.1824 2.4599
57.3400 38.1957 2.4685
57.3600 38.2091 2.4635
57.3800 38.2224 2.4633
57.4000 38.2357 2.4763
57.4200 38.2491 2.4707
57.4400 38.2624 2.4682
57.4600 38.2758 2.4793
57.4800 38.2891 2.4760
57.5000 38.3025 2.4806
57.5200 38.3159 2.4822
57.5400 38.3292 2.4846
57.5600 38.3425 2.4865
57.5800 38.3558 2.4879
57.6000 38.3692 2.4932
57.6200 38.3825 2.4974
57.6400 38.3958 2.4942
57.6600 38.4091 2.4976
57.6800 38.4224 2.4984
57.7000 38.4358 2.4993
57.7200 38.4491 2.5059
57.7400 38.4624 2.5032
57.7600 38.4757 2.5064
57.7800 38.4891 2.5094
57.8000 38.5024 2.5136
57.8200 38.5158 2.5170
57.8400 38.5291 2.5145
57.8600 38.5424 2.5202
57.8800 38.5558 2.5230
57.9000 38.5692 2.5178
57.9200 38.5825 2.5269
57.9400 38.5958 2.5326
57.9600 38.6091 2.5269
57.9800 38.6225 2.5307
58.0000 38.6358 2.5387
58.0200 38.6491 2.5315
58.0400 38.6624 2.5431
58.0600 38.6758 2.5485
58.0800 38.6891 2.5349
58.1000 38.7024 2.5508
58.1200 38.7157 2.5506
58.1400 38.7291 2.5422
58.1600 38.7424 2.5527
58.1800 38.7557 2.5568
58.2000 38.7691 2.5524
58.2200 38.7824 2.5577
58.2400 38.7958 2.5650
58.2600 38.8092 2.5611
58.2800 38.8225 2.5671
58.3000 38.8358 2.5723
58.3200 38.8491 2.5611
58.3400 38.8625 2.5758
58.3600 38.8758 2.5772
58.3800 38.8891 2.5718
58.4000 38.9024 2.5861
58.4200 38.9158 2.5829
58.4400 38.9291 2.5795
58.4600 38.9424 2.5954
58.4800 38.9557 2.5875
58.5000 38.9691 2.5916
58.5200 38.9824 2.5986
58.5400 38.9958 2.5897
58.5600 39.0091 2.6002
58.5800 39.0224 2.6063
58.6000 39.0358 2.5949
58.6200 39.0492 2.6070
58.6400 39.0625 2.6132
58.6600 39.0758 2.6058
58.6800 39.0891 2.6171
58.7000 39.1025 2.6158
58.7200 39.1158 2.6119
58.7400 39.1291 2.6274
58.7600 39.1424 2.6268
58.7800 39.1558 2.6176
58.8000 39.1691 2.6347
58.8200 39.1824 2.6269
58.8400 39.1957 2.6246
58.8600 39.2091 2.6456
58.8800 39.2224 2.6353
58.9000 39.2358 2.6318
58.9200 39.2491 2.6515
58.9400 39.2625 2.6417
58.9600 39.2758 2.6428
58.9800 39.2892 2.6545
59.0000 39.3025 2.6528
59.0200 39.3158 2.6511
59.0400 39.3291 2.6631
59.0600 39.3425 2.6564
59.0800 39.3558 2.6609
59.1000 39.3691 2.6700
59.1200 39.3824 2.6679
59.1400 39.3958 2.6663
59.1600 39.4091 2.6726
59.1800 39.4224 2.6740
59.2000 39.4357 2.6731
59.2200 39.4491 2.6814
59.2400 39.4624 2.6838
59.2600 39.4757 2.6779
59.2800 39.4891 2.6897
59.3000 39.5024 2.6865
59.3200 39.5158 2.6886
59.3400 39.5292 2.6958
59.3600 39.5425 2.7014
59.3800 39.5558 2.6961
59.4000 39.5691 2.7028
59.4200 39.5825 2.7035
59.4400 39.5958 2.7028
59.4600 39.6091 2.7145
59.4800 39.6224 2.7142
59.5000 39.6357 2.7089
59.5200 39.6491 2.7198
59.5400 39.6624 2.7199
59.5600 39.6757 2.7169
59.5800 39.6891 2.7305
59.6000 39.7024 2.7235
59.6200 39.7158 2.7221
59.6400 39.7291 2.7381
59.6600 39.7425 2.7337
59.6800 39.7558 2.7299
59.7000 39.7692 2.7458
59.7200 39.7825 2.7399
59.7400 39.7958 2.7408
59.7600 39.8091 2.7525
59.7800 39.8225 2.7484
59.8000 39.8358 2.7475
59.8200 39.8491 2.7654
59.8400 39.8625 2.7524
59.8600 39.8758 2.7549
59.8800 39.8892 2.7723
59.9000 39.9025 2.7592
59.9200 39.9158 2.7644
59.9400 39.9291 2.7821
59.9600 39.9424 2.7649
59.9800 39.9558 2.7758
60.0000 39.9691 2.7859
60.0200 39.9824 2.7732
60.0400 39.9957 2.7770
60.0470 40.0003 2.7717
60.0480 40.0010 2.7700
60.0490 40.0016 2.7683
60.0690 40.0120 2.6817
60.0890 40.0141 2.6177
60.1090 40.0057 2.7246
60.1290 39.9928 2.7940
60.1490 39.9799 2.7600
60.1690 39.9670 2.7466
60.1890 39.9536 2.7596
60.2090 39.9396 2.7425
60.2290 39.9255 2.7450
60.2490 39.9118 2.7507
60.2690 39.8983 2.7221
60.2890 39.8850 2.7303
60.3090 39.8717 2.7232
60.3290 39.8584 2.7113
60.3490 39.8450 2.7097
60.3690 39.8316 2.7103
60.3890 39.8183 2.6965
60.4090 39.8049 2.7007
60.4290 39.7916 2.6935
60.4490 39.7782 2.6780
60.4690 39.7649 2.6886
60.4890 39.7515 2.6750
60.5090 39.7383 2.6699
60.5290 39.7249 2.6686
60.5490 39.7115 2.6656
60.5690 39.6982 2.6617
60.5890 39.6849 2.6499
60.6090 39.6715 2.6515
60.6290 39.6582 2.6471
60.6490 39.6449 2.6411
60.6690 39.6316 2.6347
60.6890 39.6183 2.6374
60.7090 39.6050 2.6230
60.7290 39.5916 2.6254
60.7490 39.5782 2.6259
60.7690 39.5649 2.6093
60.7890 39.5516 2.6163
60.8090 39.5383 2.6072
60.8290 39.5249 2.5976
60.8490 39.5115 2.6063
60.8690 39.4982 2.5977
60.8890 39.4849 2.5827
60.9090 39.4715 2.5952
60.9290 39.4582 2.5844
60.9490 39.4449 2.5765
60.9690 39.4316 2.5834
60.9890 39.4182 2.5660
61.0090 39.4049 2.5640
61.0290 39.3916 2.5708
61.0490 39.3783 2.5547
61.0690 39.3650 2.5568
61.0890 39.3516 2.5596
61.1090 39.3383 2.5439
61.1290 39.3250 2.5453
61.1490 39.3116 2.5443
61.1690 39.2982 2.5312
61.1890 39.2848 2.5355
61.2090 39.2715 2.5356
61.2290 39.2582 2.5188
61.2490 39.2449 2.5223
61.2690 39.2315 2.5216
61.2890 39.2182 2.5090
61.3090 39.2048 2.5124
61.3290 39.1915 2.5076
61.3490 39.1782 2.5015
61.3690 39.1648 2.5048
61.3890 39.1515 2.4935
61.4090 39.1382 2.4881
61.4290 39.1249 2.4971
61.4490 39.1116 2.4806
61.4690 39.0983 2.4766
61.4890 39.0850 2.4818
61.5090 39.0716 2.4721
61.5290 39.0582 2.4695
61.5490 39.0448 2.4697
61.5690 39.0315 2.4662
61.5890 39.0182 2.4564
61.6090 39.0049 2.4640
61.6290 38.9915 2.4518
61.6490 38.9782 2.4479
61.6690 38.9649 2.4534
61.6890 38.9515 2.4419
61.7090 38.9382 2.4390
61.7290 38.9248 2.4415
61.7490 38.9115 2.4362
61.7690 38.8982 2.4330
61.7890 38.8849 2.4277
61.8090 38.8715 2.4227
61.8290 38.8582 2.4221
61.8490 38.8449 2.4228
61.8690 38.8316 2.4108
61.8890 38.8182 2.4104
61.9090 38.8049 2.4099
61.9290 38.7915 2.4066
61.9490 38.7782 2.3994
61.9690 38.7648 2.4018
61.9890 38.7515 2.3964
62.0090 38.7381 2.3930
62.0290 38.7248 2.3911
62.0490 38.7116 2.3849
62.0690 38.6982 2.3825
62.0890 38.6849 2.3793
62.1090 38.6716 2.3793
62.1290 38.6583 2.3718
62.1490 38.6449 2.3694
62.1690 38.6315 2.3698
62.1890 38.6182 2.3608
62.2090 38.6049 2.3657
62.2290 38.5916 2.3572
62.2490 38.5782 2.3499
62.2690 38.5649 2.3571
62.2890 38.5516 2.3445
62.3090 38.5382 2.3439
62.3290 38.5249 2.3463
62.3490 38.5115 2.3344
62.3690 38.4982 2.3369
62.3890 38.4848 2.3381
62.4090 38.4715 2.3272
62.4290 38.4582 2.3284
62.4490 38.4448 2.3305
62.4690 38.4315 2.3208
62.4890 38.4182 2.3221
62.5090 38.4049 2.3213
62.5290 38.3916 2.3079
62.5490 38.3782 2.3169
62.5690 38.3649 2.3109
62.5890 38.3516 2.2988
62.6090 38.3382 2.3051
62.6290 38.3249 2.2994
62.6490 38.3115 2.2941
62.6690 38.2982 2.2967
62.6890 38.2849 2.2898
62.7090 38.2715 2.2840
62.7290 38.2582 2.2900
62.7490 38.2448 2.2840
62.7690 38.2315 2.2725
62.7890 38.2182 2.2771
62.8090 38.2048 2.2748
62.8290 38.1915 2.2674
62.8490 38.1782 2.2726
62.8690 38.1649 2.2666
62.8890 38.1515 2.2568
62.9090 38.1382 2.2614
62.9290 38.1249 2.2595
62.9490 38.1116 2.2494
62.9690 38.0982 2.2561
62.9890 38.0849 2.2501
63.0090 38.0715 2.2430
63.0290 38.0582 2.2508
63.0490 38.0448 2.2411
63.0690 38.0315 2.2333
63.0890 38.0181 2.2388
63.1090 38.0048 2.2312
63.1290 37.9915 2.2267
63.1490 37.9782 2.2297
63.1690 37.9649 2.2265
63.1890 37.9515 2.2154
63.2090 37.9383 2.2233
63.2290 37.9249 2.2157
63.2490 37.9116 2.2116
63.2690 37.8982 2.2174
63.2890 37.8849 2.2078
63.3090 37.8716 2.2047
63.3290 37.8582 2.2054
63.3490 37.8448 2.2034
63.3690 37.8315 2.1998
63.3890 37.8182 2.1953
63.4090 37.8049 2.1959
63.4290 37.7915 2.1865
63.4490 37.7782 2.1904
63.4690 37.7648 2.1882
63.4890 37.7515 2.1816
63.5090 37.7382 2.1835
63.5290 37.7249 2.1773
63.5490 37.7116 2.1740
63.5690 37.6983 2.1776
63.5890 37.6849 2.1744
63.6090 37.6716 2.1639
63.6290 37.6582 2.1715
63.6490 37.6449 2.1641
63.6690 37.6316 2.1606
63.6890 37.6183 2.1620
63.7090 37.6049 2.1547
63.7290 37.5915 2.1556
63.7490 37.5782 2.1511
63.7690 37.5649 2.1508
63.7890 37.5515 2.1504
63.8090 37.5381 2.1439
63.8290 37.5248 2.1430
63.8490 37.5115 2.1420
63.8690 37.4982 2.1395
63.8890 37.4849 2.1361
63.9090 37.4715 2.1392
63.9290 37.4582 2.1299
63.9490 37.4449 2.1299
63.9690 37.4315 2.1291
63.9890 37.4182 2.1221
64.0090 37.4049 2.1267
64.0290 37.3916 2.1202
64.0490 37.3783 2.1141
64.0690 37.3649 2.1157
64.0890 37.3515 2.1166
64.1090 37.3382 2.1109
64.1290 37.3249 2.1083
64.1490 37.3115 2.1047
64.1690 37.2981 2.1049
64.1890 37.2848 2.1059
64.2090 37.2715 2.0989
64.2290 37.2582 2.0971
64.2490 37.2449 2.0950
64.2690 37.2315 2.0928
64.2890 37.2182 2.0881
64.3090 37.2049 2.0909
64.3290 37.1916 2.0899
64.3490 37.1782 2.0830
64.3690 37.1649 2.0847
64.3890 37.1516 2.0775
64.4090 37.1382 2.0794
64.4290 37.1249 2.0776
64.4490 37.1115 2.0751
64.4690 37.0982 2.0682
64.4890 37.0849 2.0674
64.5090 37.0715 2.0720
64.5290 37.0582 2.0628
64.5490 37.0448 2.0621
64.5690 37.0315 2.0608
64.5890 37.0182 2.0530
64.6090 37.0048 2.0602
64.6290 36.9915 2.0549
64.6490 36.9782 2.0528
64.6690 36.9649 2.0528
64.6890 36.9516 2.0490
64.7090 36.9382 2.0419
64.7290 36.9249 2.0504
64.7490 36.9116 2.0404
64.7690 36.8983 2.0338
64.7890 36.8849 2.0387
64.8090 36.8715 2.0361
64.8290 36.8582 2.0302
64.8490 36.8449 2.0340
64.8690 36.8315 2.0296
64.8890 36.8181 2.0258
64.9090 36.8048 2.0285
64.9290 36.7915 2.0242
64.9490 36.7782 2.0220
64.9690 36.7649 2.0198
64.9890 36.7516 2.0133
65.0090 36.7383 2.0194
65.0290 36.7250 2.0175
65.0490 36.7116 2.0035
65.0690 36.6982 2.0072
65.0890 36.6849 2.0126
65.1090 36.6716 2.0017
65.1290 36.6582 1.9997
65.1490 36.6449 2.0049
65.1690 36.6315 1.9957
65.1890 36.6182 1.9947
65.2090 36.6049 1.9971
65.2290 36.5916 1.9897
65.2490 36.5782 1.9922
65.2690 36.5648 1.9918
65.2890 36.5515 1.9839
65.3090 36.5382 1.9848
65.3290 36.5249 1.9839
65.3490 36.5115 1.9827
65.3690 36.4982 1.9799
65.3890 36.4849 1.9774
65.4090 36.4716 1.9749
65.4290 36.4582 1.9703
65.4490 36.4449 1.9735
65.4690 36.4315 1.9715
65.4890 36.4182 1.9603
65.5090 36.4048 1.9706
65.5290 36.3915 1.9662
65.5490 36.3782 1.9608
65.5690 36.3649 1.9637
65.5890 36.3515 1.9621
65.6090 36.3382 1.9544
65.6290 36.3249 1.9569
65.6490 36.3115 1.9532
65.6690 36.2982 1.9456
65.6890 36.2849 1.9544
65.7090 36.2715 1.9467
65.7290 36.2582 1.9445
65.7490 36.2449 1.9496
65.7690 36.2316 1.9407
65.7890 36.2182 1.9385
65.8090 36.2049 1.9418
65.8290 36.1915 1.9364
65.8490 36.1782 1.9314
65.8690 36.1649 1.9393
65.8890 36.1515 1.9290
65.9090 36.1382 1.9306
65.9290 36.1249 1.9311
65.9490 36.1115 1.9216
65.9690 36.0982 1.9243
65.9890 36.0848 1.9223
66.0090 36.0715 1.9186
66.0290 36.0582 1.9196
66.0490 36.0449 1.9177
66.0690 36.0315 1.9125
66.0890 36.0182 1.9170
66.1090 36.0049 1.9075
66.1290 35.9916 1.9054
66.1490 35.9782 1.9110
66.1690 35.9649 1.9030
66.1890 35.9515 1.9054
66.2090 35.9382 1.9037
66.2290 35.9249 1.8969
66.2490 35.9115 1.9021
66.2690 35.8982 1.9003
66.2890 35.8849 1.8916
66.3090 35.8715 1.8952
66.3290 35.8582 1.8948
66.3490 35.8448 1.8845
66.3690 35.8315 1.8918
66.3890 35.8182 1.8849
66.4090 35.8049 1.8803
66.4290 35.7915 1.8877
66.4490 35.7783 1.8790
66.4690 35.7650 1.8774
66.4890 35.7516 1.8815
66.5090 35.7383 1.8673
66.5290 35.7249 1.8776
66.5490 35.7116 1.8737
66.5690 35.6983 1.8689
66.5890 35.6849 1.8690
66.6090 35.6715 1.8665
66.6290 35.6582 1.8645
66.6490 35.6449 1.8639
66.6690 35.6315 1.8618
66.6890 35.6182 1.8588
66.7090 35.6048 1.8623
66.7290 35.5915 1.8569
66.7490 35.5782 1.8567
66.7690 35.5649 1.8547
66.7890 35.5515 1.8513
66.8090 35.5382 1.8532
66.8290 35.5249 1.8482
66.8490 35.5116 1.8462
66.8690 35.4983 1.8490
66.8890 35.4849 1.8441
66.9090 35.4716 1.8441
66.9290 35.4583 1.8414
66.9490 35.4449 1.8365
66.9690 35.4315 1.8428
66.9890 35.4181 1.8340
67.0090 35.4048 1.8266
67.0290 35.3915 1.8393
67.0490 35.3782 1.8272
67.0690 35.3648 1.8264
67.0890 35.3515 1.8326
67.1090 35.3382 1.8226
67.1290 35.3249 1.8205
67.1490 35.3115 1.8288
67.1690 35.2982 1.8176
67.1890 35.2849 1.8179
67.2090 35.2716 1.8240
67.2290 35.2583 1.8101
67.2490 35.2449 1.8139
67.2690 35.2316 1.8194
67.2890 35.2182 1.8061
67.3090 35.2049 1.8096
67.3290 35.1915 1.8116
67.3490 35.1782 1.8057
67.3690 35.1649 1.8006
67.3890 35.1516 1.8067
67.4090 35.1382 1.7978
67.4290 35.1248 1.8001
67.4490 35.1115 1.8018
67.4690 35.0982 1.7916
67.4890 35.0849 1.7944
67.5090 35.0715 1.7932
67.5290 35.0582 1.7926
67.5490 35.0449 1.7866
67.5690 35.0316 1.7935
67.5890 35.0182 1.7869
67.6090 35.0049 1.7805
67.6290 34.9916 1.7876
67.6490 34.9782 1.7816
67.6690 34.9649 1.7749
67.6890 34.9515 1.7809
67.7090 34.9382 1.7769
67.7290 34.9249 1.7675
67.7490 34.9116 1.7761
67.7690 34.8982 1.7757
67.7890 34.8848 1.7592
67.8090 34.8715 1.7781
67.8290 34.8582 1.7664
67.8490 34.8449 1.7577
67.8690 34.8315 1.7722
67.8890 34.8182 1.7628
67.9090 34.8049 1.7551
67.9290 34.7916 1.7695
67.9490 34.7782 1.7571
67.9690 34.7649 1.7460
67.9890 34.7516 1.7692
68.0090 34.7383 1.7520
68.0290 34.7249 1.7416
68.0490 34.7116 1.7632
68.0690 34.6982 1.7460
68.0890 34.6849 1.7415
68.1090 34.6716 1.7571
68.1290 34.6582 1.7392
68.1490 34.6448 1.7428
68.1690 34.6315 1.7547
68.1890 34.6182 1.7343
68.2090 34.6049 1.7384
68.2290 34.5915 1.7484
68.2490 34.5782 1.7289
68.2690 34.5649 1.7340
68.2890 34.5516 1.7434
68.3090 34.5382 1.7235
68.3290 34.5249 1.7302
68.3490 34.5116 1.7404
68.3690 34.4982 1.7195
68.3890 34.4849 1.7265
68.4090 34.4715 1.7313
68.4290 34.4581 1.7222
68.4490 34.4448 1.7212
68.4690 34.4315 1.7219
68.4890 34.4182 1.7182
68.5090 34.4048 1.7178
68.5290 34.3915 1.7234
68.5490 34.3782 1.7126
68.5690 34.3649 1.7094
68.5890 34.3515 1.7194
68.6090 34.3382 1.7062
68.6290 34.3249 1.7068
68.6490 34.3116 1.7095
68.6690 34.2982 1.7059
68.6890 34.2849 1.7028
68.7090 34.2715 1.7050
68.7290 34.2582 1.7073
68.7490 34.2449 1.6969
68.7690 34.2315 1.7010
68.7890 34.2181 1.7024
68.8090 34.2048 1.6930
68.8290 34.1915 1.6948
68.8490 34.1782 1.6905
68.8690 34.1649 1.6908
68.8890 34.1515 1.6905
68.9090 34.1382 1.6903
68.9290 34.1249 1.6894
68.9490 34.1116 1.6871
68.9690 34.0982 1.6887
68.9890 34.0849 1.6818
69.0090 34.0716 1.6852
69.0290 34.0583 1.6849
69.0490 34.0449 1.6788
69.0690 34.0315 1.6816
69.0890 34.0182 1.6757
69.1090 34.0049 1.6734
69.1290 33.9915 1.6753
69.1490 33.9782 1.6724
69.1690 33.9649 1.6726
69.1890 33.9515 1.6675
69.2090 33.9382 1.6696
69.2290 33.9248 1.6676
69.2490 33.9115 1.6661
69.2690 33.8982 1.6662
69.2890 33.8849 1.6636
69.3090 33.8716 1.6612
69.3290 33.8582 1.6643
69.3490 33.8449 1.6606
69.3690 33.8316 1.6568
69.3890 33.8182 1.6636
69.4090 33.8049 1.6514
69.4290 33.7915 1.6526
69.4490 33.7782 1.6601
69.4690 33.7649 1.6437
69.4890 33.7515 1.6529
69.5090 33.7382 1.6559
69.5290 33.7248 1.6437
69.5490 33.7115 1.6467
69.5690 33.6982 1.6505
69.5890 33.6848 1.6345
69.6090 33.6715 1.6446
69.6290 33.6582 1.6481
69.6490 33.6449 1.6281
69.6690 33.6315 1.6444
69.6890 33.6182 1.6410
69.7090 33.6049 1.6257
69.7290 33.5916 1.6408
69.7490 33.5782 1.6374
69.7690 33.5649 1.6240
69.7890 33.5515 1.6379
69.8090 33.5382 1.6313
69.8290 33.5249 1.6254
69.8490 33.5115 1.6343
69.8690 33.4982 1.6233
69.8890 33.4849 1.6203
69.9090 33.4715 1.6301
69.9290 33.4582 1.6174
69.9490 33.4448 1.6187
69.9690 33.4315 1.6273
69.9890 33.4182 1.6178
70.0090 33.4049 1.6146
70.0290 33.3915 1.6196
70.0490 33.3782 1.6157
70.0690 33.3649 1.6123
70.0890 33.3516 1.6116
70.1090 33.3383 1.6112
70.1290 33.3249 1.6081
70.1490 33.3116 1.6071
70.1690 33.2983 1.6099
70.1890 33.2849 1.6031
70.2090 33.2716 1.6040
70.2290 33.2582 1.6074
70.2490 33.2448 1.6013
70.2690 33.2315 1.6024
70.2890 33.2182 1.5970
70.3090 33.2048 1.5969
70.3290 33.1914 1.5991
70.3490 33.1782 1.5927
70.3690 33.1649 1.5967
70.3890 33.1516 1.5950
70.4090 33.1382 1.5904
70.4290 33.1249 1.5912
70.4490 33.1116 1.5955
70.4690 33.0983 1.5835
70.4890 33.0849 1.5841
70.5090 33.0716 1.5924
70.5290 33.0582 1.5813
70.5490 33.0449 1.5792
70.5690 33.0315 1.5882
70.5890 33.0182 1.5792
70.6090 33.0048 1.5809
70.6290 32.9915 1.5817
70.6490 32.9782 1.5745
70.6690 32.9648 1.5748
70.6890 32.9515 1.5795
70.7090 32.9382 1.5730
70.7290 32.9249 1.5745
70.7490 32.9115 1.5742
70.7690 32.8982 1.5682
70.7890 32.8849 1.5733
70.8090 32.8716 1.5718
70.8290 32.8583 1.5634
70.8490 32.8449 1.5752
70.8690 32.8316 1.5672
70.8890 32.8182 1.5584
70.9090 32.8049 1.5638
70.9290 32.7915 1.5625
70.9490 32.7782 1.5564
70.9690 32.7648 1.5615
70.9890 32.7515 1.5576
71.0090 32.7382 1.5518
71.0290 32.7248 1.5546
71.0490 32.7115 1.5563
71.0690 32.6982 1.5528
71.0890 32.6849 1.5541
71.1090 32.6715 1.5503
71.1290 32.6582 1.5512
71.1490 32.6449 1.5527
71.1690 32.6316 1.5460
71.1890 32.6182 1.5461
71.2090 32.6049 1.5478
71.2290 32.5916 1.5434
71.2490 32.5783 1.5440
71.2690 32.5649 1.5464
71.2890 32.5516 1.5347
71.3090 32.5382 1.5395
71.3290 32.5249 1.5390
71.3490 32.5115 1.5313
71.3690 32.4982 1.5381
71.3890 32.4849 1.5362
71.4090 32.4715 1.5285
71.4290 32.4582 1.5339
71.4490 32.4449 1.5313
71.4690 32.4315 1.5286
71.4890 32.4182 1.5333
71.5090 32.4049 1.5275
71.5290 32.3916 1.5241
71.5490 32.3783 1.5308
71.5690 32.3649 1.5209
71.5890 32.3515 1.5239
71.6090 32.3382 1.5256
71.6290 32.3249 1.5173
71.6490 32.3116 1.5196
71.6690 32.2982 1.5189
71.6890 32.2849 1.5194
71.7090 32.2716 1.5150
71.7290 32.2582 1.5152
71.7490 32.2449 1.5120
71.7690 32.2315 1.5120
71.7890 32.2182 1.5153
71.8090 32.2048 1.5080
71.8290 32.1915 1.5107
71.8490 32.1782 1.5083
71.8690 32.1648 1.5091
71.8890 32.1516 1.5074
71.9090 32.1383 1.4996
71.9290 32.1249 1.5042
71.9490 32.1116 1.5096
71.9690 32.0983 1.4981
71.9890 32.0850 1.4990
72.0090 32.0716 1.5051
72.0290 32.0582 1.4968
72.0490 32.0448 1.4982
72.0690 32.0315 1.4957
72.0890 32.0182 1.4945
72.1090 32.0048 1.4929
72.1290 31.9915 1.4932
72.1490 31.9781 1.4922
72.1690 31.9649 1.4935
72.1890 31.9515 1.4855
72.2090 31.9382 1.4903
72.2290 31.9249 1.4932
72.2490 31.9116 1.4790
72.2690 31.8983 1.4905
72.2890 31.8849 1.4850
72.3090 31.8715 1.4816
72.3290 31.8582 1.4872
72.3490 31.8449 1.4749
72.3690 31.8316 1.4767
72.3890 31.8182 1.4848
72.4090 31.8048 1.4766
72.4290 31.7915 1.4756
72.4490 31.7782 1.4802
72.4690 31.7649 1.4705
72.4890 31.7515 1.4714
72.5090 31.7381 1.4776
72.5290 31.7248 1.4638
72.5490 31.7115 1.4704
72.5690 31.6982 1.4752
72.5890 31.6849 1.4625
72.6090 31.6716 1.4690
72.6290 31.6583 1.4701
72.6490 31.6449 1.4589
72.6690 31.6315 1.4681
72.6890 31.6182 1.4677
72.7090 31.6049 1.4588
72.7290 31.5915 1.4642
72.7490 31.5782 1.4631
72.7690 31.5648 1.4522
72.7890 31.5515 1.4638
72.8090 31.5382 1.4555
72.8290 31.5249 1.4548
72.8490 31.5115 1.4584
72.8690 31.4982 1.4535
72.8890 31.4849 1.4520
72.9090 31.4716 1.4532
72.9290 31.4582 1.4495
72.9490 31.4449 1.4523
72.9690 31.4316 1.4536
72.9890 31.4183 1.4429
73.0090 31.4049 1.4491
73.0290 31.3916 1.4514
73.0490 31.3782 1.4377
73.0690 31.3649 1.4493
73.0890 31.3516 1.4387
73.1090 31.3382 1.4364
73.1290 31.3248 1.4503
73.1490 31.3115 1.4388
73.1690 31.2982 1.4371
73.1890 31.2849 1.4408
73.2090 31.2715 1.4346
73.2290 31.2582 1.4364
73.2490 31.2449 1.4405
73.2690 31.2316 1.4307
73.2890 31.2182 1.4286
73.3090 31.2049 1.4358
73.3290 31.1916 1.4284
73.3490 31.1783 1.4291
73.3690 31.1649 1.4293
73.3890 31.1516 1.4274
73.4090 31.1382 1.4322
73.4290 31.1249 1.4254
73.4490 31.1116 1.4263
73.4690 31.0982 1.4218
73.4890 31.0848 1.4220
73.5090 31.0715 1.4211
73.5290 31.0582 1.4197
73.5490 31.0449 1.4209
73.5690 31.0315 1.4173
73.5890 31.0181 1.4166
73.6090 31.0048 1.4168
73.6290 30.9915 1.4162
73.6490 30.9782 1.4159
73.6690 30.9649 1.4142
73.6890 30.9516 1.4161
73.7090 30.9383 1.4081
73.7290 30.9249 1.4105
73.7490 30.9116 1.4117
73.7690 30.8982 1.4103
73.7890 30.8849 1.4098
73.8090 30.8716 1.4027
73.8290 30.8582 1.4022
73.8490 30.8448 1.4080
73.8690 30.8315 1.4006
73.8890 30.8182 1.4031
73.9090 30.8049 1.4021
73.9290 30.7915 1.4017
73.9490 30.7781 1.4007
73.9690 30.7648 1.3993
73.9890 30.7515 1.4009
74.0090 30.7382 1.3964
74.0290 30.7248 1.3977
74.0490 30.7116 1.3975
74.0690 30.6983 1.3953
74.0890 30.6849 1.3924
74.1090 30.6716 1.3977
74.1290 30.6582 1.3899
74.1490 30.6449 1.3868
74.1690 30.6316 1.3924
74.1890 30.6182 1.3868
74.2090 30.6048 1.3886
74.2290 30.5915 1.3888
74.2490 30.5782 1.3820
74.2690 30.5648 1.3885
74.2890 30.5515 1.3832
74.3090 30.5382 1.3810
74.3290 30.5249 1.3864
74.3490 30.5116 1.3786
74.3690 30.4982 1.3738
74.3890 30.4849 1.3824
74.4090 30.4716 1.3756
74.4290 30.4583 1.3726
74.4490 30.4450 1.3789
74.4690 30.4316 1.3726
74.4890 30.4182 1.3744
74.5090 30.4049 1.3751
74.5290 30.3916 1.3687
74.5490 30.3782 1.3703
74.5690 30.3648 1.3699
74.5890 30.3515 1.3689
74.6090 30.3382 1.3663
74.6290 30.3249 1.3698
74.6490 30.3115 1.3657
74.6690 30.2982 1.3633
74.6890 30.2849 1.3664
74.7090 30.2716 1.3606
74.7290 30.2582 1.3636
74.7490 30.2449 1.3653
74.7690 30.2315 1.3584
74.7890 30.2182 1.3589
74.8090 30.2049 1.3600
74.8290 30.1915 1.3567
74.8490 30.1782 1.3554
74.8690 30.1649 1.3623
74.8890 30.1516 1.3504
74.9090 30.1382 1.3518
74.9290 30.1248 1.3599
74.9490 30.1115 1.3474
74.9690 30.0982 1.3555
74.9890 30.0849 1.3518
75.0090 30.0715 1.3462
75.0290 30.0582 1.3548
75.0490 30.0448 1.3489
75.0690 30.0315 1.3449
75.0890 30.0182 1.3513
75.1090 30.0048 1.3418
75.1290 29.9915 1.3413
75.1490 29.9782 1.3519
75.1690 29.9649 1.3406
75.1890 29.9516 1.3372
75.2090 29.9382 1.3514
75.2290 29.9249 1.3364
75.2490 29.9116 1.3325
75.2690 29.8983 1.3462
75.2890 29.8849 1.3333
75.3090 29.8715 1.3330
75.3290 29.8582 1.3409
75.3490 29.8449 1.3302
75.3690 29.8315 1.3354
75.3890 29.8182 1.3396
75.4090 29.8049 1.3275
75.4290 29.7915 1.3302
75.4490 29.7782 1.3414
75.4690 29.7648 1.3227
75.4890 29.7515 1.3299
75.5090 29.7383 1.3379
75.5290 29.7249 1.3160
75.5490 29.7116 1.3253
75.5690 29.6982 1.3300
75.5890 29.6849 1.3168
75.6090 29.6716 1.3229
75.6290 29.6582 1.3292
75.6490 29.6448 1.3142
75.6690 29.6315 1.3258
75.6890 29.6182 1.3256
75.7090 29.6049 1.3122
75.7290 29.5915 1.3243
75.7490 29.5782 1.3208
75.7690 29.5648 1.3093
75.7890 29.5515 1.3187
75.8090 29.5382 1.3179
75.8290 29.5248 1.3077
75.8490 29.5115 1.3170
75.8690 29.4982 1.3192
75.8890 29.4849 1.3043
75.9090 29.4716 1.3141
75.9290 29.4582 1.3132
75.9490 29.4449 1.3047
75.9690 29.4316 1.3074
75.9890 29.4182 1.3050
76.0090 29.4048 1.3054
76.0290 29.3915 1.3076
76.0490 29.3782 1.3000
76.0690 29.3649 1.3037
76.0890 29.3515 1.3038
76.1090 29.3382 1.2997
76.1290 29.3249 1.3039
76.1490 29.3116 1.3029
76.1690 29.2982 1.2982
76.1890 29.2849 1.2991
76.2090 29.2716 1.2985
76.2290 29.2583 1.2966
76.2490 29.2449 1.2964
76.2690 29.2316 1.2899
76.2890 29.2182 1.2980
76.3090 29.2049 1.2924
76.3290 29.1916 1.2873
76.3490 29.1782 1.2947
76.3690 29.1648 1.2851
76.3890 29.1515 1.2884
76.4090 29.1382 1.2912
76.4290 29.1249 1.2831
76.4490 29.1115 1.2875
76.4690 29.0982 1.2922
76.4890 29.0848 1.2790
76.5090 29.0716 1.2860
76.5290 29.0582 1.2871
76.5490 29.0449 1.2778
76.5690 29.0316 1.2864
76.5890 29.0183 1.2824
76.6090 29.0049 1.2749
76.6290 28.9916 1.2810
76.6490 28.9782 1.2782
76.6690 28.9649 1.2688
76.6890 28.9515 1.2818
76.7090 28.9382 1.2729
76.7290 28.9249 1.2694
76.7490 28.9115 1.2808
76.7690 28.8982 1.2715
76.7890 28.8849 1.2706
76.8090 28.8715 1.2783
76.8290 28.8582 1.2699
76.8490 28.8448 1.2691
76.8690 28.8315 1.2696
76.8890 28.8182 1.2661
76.9090 28.8049 1.2638
76.9290 28.7915 1.2708
76.9490 28.7782 1.2662
76.9690 28.7649 1.2627
76.9890 28.7516 1.2676
77.0090 28.7382 1.2630
77.0290 28.7249 1.2628
77.0490 28.7116 1.2636
77.0690 28.6983 1.2574
77.0890 28.6849 1.2586
77.1090 28.6715 1.2631
77.1290 28.6582 1.2567
77.1490 28.6449 1.2529
77.1690 28.6315 1.2592
77.1890 28.6181 1.2573
77.2090 28.6048 1.2509
77.2290 28.5915 1.2573
77.2490 28.5782 1.2532
77.2690 28.5649 1.2529
77.2890 28.5515 1.2512
77.3090 28.5382 1.2503
77.3290 28.5249 1.2476
77.3490 28.5116 1.2524
77.3690 28.4982 1.2494
77.3890 28.4849 1.2476
77.4090 28.4716 1.2480
77.4290 28.4582 1.2432
77.4490 28.4449 1.2456
77.4690 28.4315 1.2440
77.4890 28.4182 1.2380
77.5090 28.4048 1.2450
77.5290 28.3915 1.2420
77.5490 28.3781 1.2401
77.5690 28.3648 1.2438
77.5890 28.3515 1.2363
77.6090 28.3382 1.2341
77.6290 28.3249 1.2387
77.6490 28.3115 1.2342
77.6690 28.2983 1.2368
77.6890 28.2850 1.2346
77.7090 28.2716 1.2365
77.7290 28.2582 1.2352
77.7490 28.2449 1.2311
77.7690 28.2316 1.2323
77.7890 28.2182 1.2300
77.8090 28.2049 1.2310
77.8290 28.1915 1.2294
77.8490 28.1782 1.2280
77.8690 28.1649 1.2277
77.8890 28.1515 1.2263
77.9090 28.1382 1.2285
77.9290 28.1248 1.2267
77.9490 28.1115 1.2247
77.9690 28.0982 1.2260
77.9890 28.0849 1.2245
78.0090 28.0715 1.2273
78.0290 28.0582 1.2209
78.0490 28.0449 1.2227
78.0690 28.0316 1.2202
78.0890 28.0182 1.2185
78.1090 28.0049 1.2222
78.1290 27.9916 1.2161
78.1490 27.9783 1.2136
78.1690 27.9649 1.2199
78.1890 27.9515 1.2132
78.2090 27.9382 1.2148
78.2290 27.9248 1.2147
78.2490 27.9115 1.2087
78.2690 27.8981 1.2133
78.2890 27.8848 1.2147
78.3090 27.8715 1.2081
78.3290 27.8582 1.2111
78.3490 27.8449 1.2088
78.3690 27.8315 1.2080
78.3890 27.8182 1.2135
78.4090 27.8049 1.2089
78.4290 27.7916 1.1994
78.4490 27.7782 1.2095
78.4690 27.7649 1.2038
78.4890 27.7516 1.1982
78.5090 27.7383 1.2098
78.5290 27.7249 1.1978
78.5490 27.7115 1.1981
78.5690 27.6982 1.2059
78.5890 27.6849 1.1961
78.6090 27.6715 1.1975
78.6290 27.6582 1.2069
78.6490 27.6448 1.1967
78.6690 27.6315 1.1951
78.6890 27.6182 1.1962
78.7090 27.6049 1.1931
78.7290 27.5915 1.1992
78.7490 27.5782 1.1956
78.7690 27.5649 1.1913
78.7890 27.5516 1.1958
78.8090 27.5382 1.1903
78.8290 27.5249 1.1907
78.8490 27.5116 1.1947
78.8690 27.4982 1.1852
78.8890 27.4849 1.1878
78.9090 27.4715 1.1989
78.9290 27.4582 1.1766
78.9490 27.4449 1.1904
78.9690 27.4316 1.1958
78.9890 27.4182 1.1759
79.0090 27.4048 1.1931
79.0290 27.3915 1.1903
79.0490 27.3782 1.1697
79.0690 27.3648 1.1918
79.0890 27.3515 1.1848
79.1090 27.3382 1.1705
79.1290 27.3249 1.1880
79.1490 27.3116 1.1815
79.1690 27.2982 1.1690
79.1890 27.2849 1.1869
79.2090 27.2716 1.1797
79.2290 27.2583 1.1660
79.2490 27.2449 1.1865
79.2690 27.2315 1.1731
79.2890 27.2182 1.1712
79.3090 27.2048 1.1833
79.3290 27.1915 1.1673
79.3490 27.1781 1.1716
79.3690 27.1648 1.1796
79.3890 27.1515 1.1662
79.4090 27.1382 1.1713
79.4290 27.1249 1.1703
79.4490 27.1115 1.1667
79.4690 27.0982 1.1688
79.4890 27.0849 1.1722
79.5090 27.0716 1.1657
79.5290 27.0582 1.1678
79.5490 27.0449 1.1655
79.5690 27.0316 1.1648
79.5890 27.0182 1.1627
79.6090 27.0049 1.1631
79.6290 26.9915 1.1681
79.6490 26.9782 1.1616
79.6690 26.9649 1.1603
79.6890 26.9515 1.1658
79.7090 26.9382 1.1519
79.7290 26.9248 1.1627
79.7490 26.9115 1.1631
79.7690 26.8982 1.1512
79.7890 26.8849 1.1600
79.8090 26.8716 1.1636
79.8290 26.8583 1.1501
79.8490 26.8449 1.1568
79.8690 26.8316 1.1574
79.8890 26.8182 1.1437
79.9090 26.8049 1.1600
79.9290 26.7915 1.1527
79.9490 26.7782 1.1414
79.9690 26.7649 1.1607
79.9890 26.7515 1.1486
80.0090 26.7382 1.1433
80.0290 26.7249 1.1597
80.0490 26.7115 1.1398
80.0690 26.6982 1.1436
80.0890 26.6848 1.1567
80.1090 26.6715 1.1370
80.1290 26.6582 1.1390
80.1490 26.6449 1.1561
80.1690 26.6315 1.1353
80.1890 26.6182 1.1417
80.2090 26.6049 1.1517
80.2290 26.5916 1.1345
80.2490 26.5782 1.1416
80.2690 26.5649 1.1471
80.2890 26.5516 1.1307
80.3090 26.5382 1.1407
80.3290 26.5249 1.1434
80.3490 26.5115 1.1323
80.3690 26.4982 1.1391
80.3890 26.4848 1.1410
80.4090 26.4715 1.1280
80.4290 26.4582 1.1381
80.4490 26.4448 1.1380
80.4690 26.4315 1.1304
80.4890 26.4182 1.1365
80.5090 26.4049 1.1335
80.5290 26.3915 1.1262
80.5490 26.3782 1.1373
80.5690 26.3649 1.1308
80.5890 26.3516 1.1247
80.6090 26.3382 1.1301
80.6290 26.3249 1.1316
80.6490 26.3116 1.1228
80.6690 26.2983 1.1236
80.6890 26.2849 1.1325
80.7090 26.2715 1.1184
80.7290 26.2582 1.1247
80.7490 26.2449 1.1269
80.7690 26.2315 1.1157
80.7890 26.2182 1.1238
80.8090 26.2048 1.1264
80.8290 26.1915 1.1191
80.8490 26.1782 1.1256
80.8690 26.1649 1.1225
80.8890 26.1515 1.1144
80.9090 26.1382 1.1273
80.9290 26.1250 1.1198
80.9490 26.1116 1.1112
80.9690 26.0983 1.1235
80.9890 26.0849 1.1100
81.0090 26.0716 1.1141
81.0290 26.0583 1.1191
81.0490 26.0449 1.1108
81.0690 26.0315 1.1117
81.0890 26.0182 1.1150
81.1090 26.0049 1.1053
81.1290 25.9915 1.1114
81.1490 25.9782 1.1122
81.1690 25.9648 1.1079
81.1890 25.9515 1.1105
81.2090 25.9382 1.1084
81.2290 25.9249 1.1058
81.2490 25.9115 1.1087
81.2690 25.8982 1.1068
81.2890 25.8849 1.1023
81.3090 25.8716 1.1054
81.3290 25.8583 1.1023
81.3490 25.8449 1.1059
81.3690 25.8316 1.1032
81.3890 25.8183 1.1009
81.4090 25.8049 1.0966
81.4290 25.7915 1.0996
81.4490 25.7781 1.1043
81.4690 25.7648 1.0969
81.4890 25.7515 1.0995
81.5090 25.7381 1.0993
81.5290 25.7248 1.0989
81.5490 25.7115 1.0995
81.5690 25.6982 1.0971
81.5890 25.6849 1.0946
81.6090 25.6716 1.0929
81.6290 25.6582 1.0989
81.6490 25.6450 1.0890
81.6690 25.6316 1.0925
81.6890 25.6183 1.0959
81.7090 25.6049 1.0872
81.7290 25.5915 1.0938
81.7490 25.5782 1.0921
81.7690 25.5649 1.0868
81.7890 25.5515 1.0903
81.8090 25.5382 1.0880
81.8290 25.5249 1.0900
81.8490 25.5115 1.0902
81.8690 25.4982 1.0882
81.8890 25.4848 1.0856
81.9090 25.4715 1.0888
81.9290 25.4582 1.0833
81.9490 25.4449 1.0872
81.9690 25.4315 1.0855
81.9890 25.4182 1.0826
82.0090 25.4049 1.0847
82.0290 25.3916 1.0811
82.0490 25.3782 1.0791
82.0690 25.3649 1.0825
82.0890 25.3516 1.0806
82.1090 25.3382 1.0791
82.1290 25.3249 1.0750
82.1490 25.3115 1.0786
82.1690 25.2982 1.0778
82.1890 25.2849 1.0733
82.2090 25.2716 1.0764
82.2290 25.2582 1.0757
82.2490 25.2448 1.0749
82.2690 25.2315 1.0767
82.2890 25.2182 1.0772
82.3090 25.2049 1.0690
82.3290 25.1915 1.0720
82.3490 25.1782 1.0754
82.3690 25.1649 1.0649
82.3890 25.1516 1.0719
82.4090 25.1383 1.0749
82.4290 25.1249 1.0651
82.4490 25.1116 1.0717
82.4690 25.0983 1.0697
82.4890 25.0850 1.0655
82.5090 25.0716 1.0637
82.5290 25.0582 1.0709
82.5490 25.0448 1.0618
82.5690 25.0315 1.0619
82.5890 25.0182 1.0679
82.6090 25.0048 1.0610
82.6290 24.9915 1.0629
82.6490 24.9782 1.0702
82.6690 24.9649 1.0568
82.6890 24.9515 1.0618
82.7090 24.9382 1.0658
82.7290 24.9249 1.0566
82.7490 24.9116 1.0534
82.7690 24.8983 1.0673
82.7890 24.8849 1.0546
82.8090 24.8716 1.0555
82.8290 24.8583 1.0642
82.8490 24.8449 1.0483
82.8690 24.8316 1.0546
82.8890 24.8182 1.0624
82.9090 24.8048 1.0480
82.9290 24.7915 1.0545
82.9490 24.7782 1.0557
82.9690 24.7648 1.0469
82.9890 24.7515 1.0552
83.0090 24.7382 1.0559
83.0290 24.7249 1.0447
83.0490 24.7115 1.0517
83.0690 24.6982 1.0552
83.0890 24.6849 1.0451
83.1090 24.6716 1.0468
83.1290 24.6583 1.0504
83.1490 24.6449 1.0431
83.1690 24.6315 1.0473
83.1890 24.6182 1.0525
83.2090 24.6049 1.0415
83.2290 24.5915 1.0427
83.2490 24.5781 1.0488
83.2690 24.5648 1.0428
83.2890 24.5515 1.0390
83.3090 24.5382 1.0439
83.3290 24.5248 1.0419
83.3490 24.5115 1.0382
83.3690 24.4982 1.0454
83.3890 24.4849 1.0424
83.4090 24.4716 1.0360
83.4290 24.4582 1.0473
83.4490 24.4449 1.0368
83.4690 24.4316 1.0365
83.4890 24.4182 1.0422
83.5090 24.4049 1.0367
83.5290 24.3915 1.0346
83.5490 24.3782 1.0379
83.5690 24.3649 1.0303
83.5890 24.3516 1.0302
83.6090 24.3382 1.0417
83.6290 24.3248 1.0263
83.6490 24.3115 1.0315
83.6690 24.2982 1.0389
83.6890 24.2848 1.0196
83.7090 24.2715 1.0292
83.7290 24.2582 1.0389
83.7490 24.2449 1.0174
83.7690 24.2316 1.0280
83.7890 24.2182 1.0389
83.8090 24.2049 1.0199
83.8290 24.1916 1.0266
83.8490 24.1783 1.0312
83.8690 24.1649 1.0205
83.8890 24.1515 1.0276
83.9090 24.1382 1.0271
83.9290 24.1249 1.0190
83.9490 24.1116 1.0238
83.9690 24.0982 1.0245
83.9890 24.0848 1.0179
84.0090 24.0715 1.0234
84.0290 24.0582 1.0182
84.0490 24.0449 1.0163
84.0690 24.0315 1.0177
84.0890 24.0182 1.0177
84.1090 24.0049 1.0214
84.1290 23.9915 1.0161
84.1490 23.9782 1.0157
84.1690 23.9649 1.0193
84.1890 23.9516 1.0125
84.2090 23.9383 1.0139
84.2290 23.9249 1.0154
84.2490 23.9116 1.0121
84.2690 23.8983 1.0114
84.2890 23.8849 1.0100
84.3090 23.8716 1.0115
84.3290 23.8582 1.0142
84.3490 23.8448 1.0075
84.3690 23.8315 1.0112
84.3890 23.8182 1.0111
84.4090 23.8048 1.0080
84.4290 23.7915 1.0063
84.4490 23.7782 1.0083
84.4690 23.7649 1.0087
84.4890 23.7515 1.0052
84.5090 23.7382 1.0094
84.5290 23.7249 1.0031
84.5490 23.7116 1.0014
84.5690 23.6982 1.0025
84.5890 23.6849 1.0059
84.6090 23.6715 1.0010
84.6290 23.6582 1.0047
84.6490 23.6449 1.0032
84.6690 23.6316 0.9950
84.6890 23.6182 0.9997
84.7090 23.6048 1.0015
84.7290 23.5915 0.9973
84.7490 23.5782 1.0009
84.7690 23.5648 0.9947
84.7890 23.5515 0.9958
84.8090 23.5382 0.9944
84.8290 23.5249 0.9998
84.8490 23.5115 0.9916
84.8690 23.4982 0.9972
84.8890 23.4849 0.9957
84.9090 23.4716 0.9885
84.9290 23.4583 0.9951
84.9490 23.4449 0.9939
84.9690 23.4315 0.9929
84.9890 23.4182 0.9946
85.0090 23.4049 0.9906
85.0290 23.3916 0.9887
85.0490 23.3782 0.9929
85.0690 23.3648 0.9895
85.0890 23.3515 0.9859
85.1090 23.3382 0.9925
85.1290 23.3248 0.9829
85.1490 23.3115 0.9870
85.1690 23.2982 0.9915
85.1890 23.2849 0.9806
85.2090 23.2715 0.9838
85.2290 23.2582 0.9867
85.2490 23.2449 0.9810
85.2690 23.2316 0.9821
85.2890 23.2183 0.9827
85.3090 23.2049 0.9745
85.3290 23.1916 0.9837
85.3490 23.1782 0.9821
85.3690 23.1649 0.9747
85.3890 23.1516 0.9777
85.4090 23.1382 0.9833
85.4290 23.1248 0.9761
85.4490 23.1115 0.9758
85.4690 23.0982 0.9811
85.4890 23.0848 0.9760
85.5090 23.0715 0.9716
85.5290 23.0582 0.9764
85.5490 23.0449 0.9717
85.5690 23.0315 0.9719
85.5890 23.0182 0.9742
85.6090 23.0049 0.9703
85.6290 22.9916 0.9704
85.6490 22.9782 0.9758
85.6690 22.9649 0.9665
85.6890 22.9515 0.9696
85.7090 22.9382 0.9763
85.7290 22.9249 0.9603
85.7490 22.9116 0.9640
85.7690 22.8982 0.9744
85.7890 22.8848 0.9639
85.8090 22.8715 0.9646
85.8290 22.8582 0.9679
85.8490 22.8449 0.9549
85.8690 22.8315 0.9646
85.8890 22.8181 0.9680
85.9090 22.8048 0.9563
85.9290 22.7915 0.9689
85.9490 22.7782 0.9656
85.9690 22.7649 0.9581
85.9890 22.7516 0.9653
86.0090 22.7383 0.9613
86.0290 22.7249 0.9547
86.0490 22.7115 0.9656
86.0690 22.6982 0.9576
86.0890 22.6849 0.9548
86.1090 22.6716 0.9624
86.1290 22.6582 0.9544
86.1490 22.6449 0.9577
86.1690 22.6316 0.9593
86.1890 22.6182 0.9515
86.2090 22.6049 0.9578
86.2290 22.5915 0.9579
86.2490 22.5782 0.9508
86.2690 22.5649 0.9570
86.2890 22.5515 0.9537
86.3090 22.5382 0.9493
86.3290 22.5248 0.9535
86.3490 22.5116 0.9530
86.3690 22.4983 0.9470
86.3890 22.4849 0.9526
86.4090 22.4716 0.9539
86.4290 22.4582 0.9472
86.4490 22.4449 0.9472
86.4690 22.4316 0.9511
86.4890 22.4182 0.9440
86.5090 22.4048 0.9470
86.5290 22.3915 0.9494
86.5490 22.3782 0.9428
86.5690 22.3648 0.9467
86.5890 22.3515 0.9462
86.6090 22.3381 0.9391
86.6290 22.3249 0.9446
86.6490 22.3116 0.9462
86.6690 22.2982 0.9376
86.6890 22.2849 0.9435
86.7090 22.2716 0.9441
86.7290 22.2583 0.9374
86.7490 22.2449 0.9393
86.7690 22.2315 0.9433
86.7890 22.2182 0.9372
86.8090 22.2049 0.9358
86.8290 22.1916 0.9410
86.8490 22.1782 0.9279
86.8690 22.1648 0.9387
86.8890 22.1515 0.9381
86.9090 22.1382 0.9252
86.9290 22.1249 0.9382
86.9490 22.1115 0.9361
86.9690 22.0982 0.9278
86.9890 22.0849 0.9364
87.0090 22.0715 0.9345
87.0290 22.0582 0.9232
87.0490 22.0449 0.9347
87.0690 22.0316 0.9348
87.0890 22.0183 0.9215
87.1090 22.0049 0.9317
87.1290 21.9915 0.9298
87.1490 21.9782 0.9214
87.1690 21.9649 0.9329
87.1890 21.9515 0.9230
87.2090 21.9382 0.9208
87.2290 21.9248 0.9249
87.2490 21.9115 0.9274
87.2690 21.8982 0.9163
87.2890 21.8849 0.9261
87.3090 21.8715 0.9238
87.3290 21.8582 0.9156
87.3490 21.8449 0.9264
87.3690 21.8316 0.9237
87.3890 21.8182 0.9183
87.4090 21.8049 0.9237
87.4290 21.7916 0.9211
87.4490 21.7783 0.9153
87.4690 21.7650 0.9213
87.4890 21.7516 0.9184
87.5090 21.7382 0.9139
87.5290 21.7249 0.9217
87.5490 21.7115 0.9162
87.5690 21.6982 0.9074
87.5890 21.6848 0.9224
87.6090 21.6715 0.9191
87.6290 21.6582 0.9060
87.6490 21.6449 0.9148
87.6690 21.6315 0.9137
87.6890 21.6182 0.9100
87.7090 21.6049 0.9169
87.7290 21.5916 0.9119
87.7490 21.5782 0.9051
87.7690 21.5649 0.9159
87.7890 21.5516 0.9133
87.8090 21.5383 0.9000
87.8290 21.5249 0.9110
87.8490 21.5116 0.9117
87.8690 21.4982 0.9010
87.8890 21.4849 0.9077
87.9090 21.4716 0.9091
87.9290 21.4582 0.9012
87.9490 21.4448 0.9115
87.9690 21.4315 0.9073
87.9890 21.4182 0.9008
88.0090 21.4049 0.9061
88.0290 21.3915 0.9016
88.0490 21.3781 0.9025
88.0690 21.3648 0.9067
88.0890 21.3515 0.8989
88.1090 21.3382 0.8978
88.1290 21.3249 0.9019
88.1490 21.3116 0.8979
88.1690 21.2983 0.8964
88.1890 21.2849 0.9012
88.2090 21.2716 0.8962
88.2290 21.2582 0.8959
88.2490 21.2449 0.9007
88.2690 21.2316 0.8935
88.2890 21.2182 0.8956
88.3090 21.2048 0.8939
88.3290 21.1915 0.8940
88.3490 21.1782 0.8960
88.3690 21.1649 0.8883
88.3890 21.1515 0.8948
88.4090 21.1381 0.8962
88.4290 21.1248 0.8893
88.4490 21.1115 0.8927
88.4690 21.0982 0.8904
88.4890 21.0848 0.8866
88.5090 21.0715 0.8931
88.5290 21.0583 0.8920
88.5490 21.0449 0.8854
88.5690 21.0316 0.8960
88.5890 21.0182 0.8883
88.6090 21.0049 0.8804
88.6290 20.9916 0.8930
88.6490 20.9782 0.8879
88.6690 20.9648 0.8802
88.6890 20.9515 0.8947
88.7090 20.9382 0.8820
88.7290 20.9248 0.8771
88.7490 20.9115 0.8919
88.7690 20.8981 0.8836
88.7890 20.8848 0.8772
88.8090 20.8715 0.8887
88.8290 20.8582 0.8771
88.8490 20.8449 0.8801
88.8690 20.8316 0.8894
88.8890 20.8183 0.8774
88.9090 20.8050 0.8802
88.9290 20.7916 0.8860
88.9490 20.7782 0.8718
88.9690 20.7649 0.8805
88.9890 20.7516 0.8827
89.0090 20.7382 0.8701
89.0290 20.7248 0.8800
89.0490 20.7115 0.8799
89.0690 20.6982 0.8714
89.0890 20.6849 0.8802
89.1090 20.6715 0.8819
89.1290 20.6582 0.8654
89.1490 20.6449 0.8774
89.1690 20.6316 0.8780
89.1890 20.6182 0.8695
89.2090 20.6049 0.8758
89.2290 20.5915 0.8744
89.2490 20.5783 0.8660
89.2690 20.5649 0.8744
89.2890 20.5516 0.8752
89.3090 20.5382 0.8669
89.3290 20.5249 0.8716
89.3490 20.5116 0.8770
89.3690 20.4982 0.8622
89.3890 20.4848 0.8717
89.4090 20.4715 0.8747
89.4290 20.4582 0.8625
89.4490 20.4449 0.8689
89.4690 20.4315 0.8685
89.4890 20.4182 0.8608
89.5090 20.4049 0.8702
89.5290 20.3915 0.8646
89.5490 20.3782 0.8592
89.5690 20.3648 0.8690
89.5890 20.3515 0.8643
89.6090 20.3382 0.8618
89.6290 20.3249 0.8669
89.6490 20.3116 0.8619
89.6690 20.2982 0.8598
89.6890 20.2849 0.8663
89.7090 20.2716 0.8613
89.7290 20.2583 0.8565
89.7490 20.2449 0.8620
89.7690 20.2315 0.8600
89.7890 20.2182 0.8599
89.8090 20.2049 0.8585
89.8290 20.1915 0.8562
89.8490 20.1782 0.8583
89.8690 20.1648 0.8560
89.8890 20.1515 0.8537
89.9090 20.1382 0.8512
89.9290 20.1249 0.8601
89.9490 20.1115 0.8548
89.9690 20.0982 0.8526
89.9890 20.0849 0.8565
90.0090 20.0716 0.8525
90.0290 20.0582 0.8533
90.0490 20.0449 0.8548
90.0690 20.0316 0.8448
90.0890 20.0182 0.8484
90.1090 20.0049 0.8545
90.1290 19.9915 0.8430
90.1490 19.9782 0.8487
90.1690 19.9649 0.8527
90.1890 19.9515 0.8396
90.2090 19.9382 0.8540
90.2290 19.9248 0.8499
90.2490 19.9115 0.8369
90.2690 19.8982 0.8509
90.2890 19.8849 0.8470
90.3090 19.8715 0.8398
90.3290 19.8582 0.8486
90.3490 19.8449 0.8413
90.3690 19.8316 0.8368
90.3890 19.8182 0.8474
90.4090 19.8049 0.8407
90.4290 19.7916 0.8378
90.4490 19.7782 0.8450
90.4690 19.7649 0.8337
90.4890 19.7515 0.8400
90.5090 19.7382 0.8445
90.5290 19.7249 0.8325
90.5490 19.7115 0.8337
90.5690 19.6982 0.8425
90.5890 19.6849 0.8365
90.6090 19.6715 0.8310
90.6290 19.6582 0.8373
90.6490 19.6449 0.8339
90.6690 19.6315 0.8378
90.6890 19.6182 0.8371
90.7090 19.6049 0.8305
90.7290 19.5916 0.8386
90.7490 19.5782 0.8367
90.7690 19.5649 0.8245
90.7890 19.5515 0.8357
90.8090 19.5382 0.8348
90.8290 19.5249 0.8265
90.8490 19.5115 0.8341
90.8690 19.4982 0.8272
90.8890 19.4849 0.8214
90.9090 19.4715 0.8360
90.9290 19.4582 0.8242
90.9490 19.4448 0.8235
90.9690 19.4316 0.8320
90.9890 19.4182 0.8219
91.0090 19.4049 0.8228
91.0290 19.3915 0.8347
91.0490 19.3782 0.8221
91.0690 19.3649 0.8235
91.0890 19.3516 0.8272
91.1090 19.3382 0.8209
91.1290 19.3248 0.8303
91.1490 19.3115 0.8225
91.1690 19.2982 0.8207
91.1890 19.2848 0.8248
91.2090 19.2715 0.8157
91.2290 19.2582 0.8251
91.2490 19.2449 0.8259
91.2690 19.2315 0.8116
91.2890 19.2182 0.8256
91.3090 19.2049 0.8220
91.3290 19.1916 0.8102
91.3490 19.1782 0.8220
91.3690 19.1649 0.8206
91.3890 19.1515 0.8109
91.4090 19.1382 0.8184
91.4290 19.1249 0.8183
91.4490 19.1116 0.8121
91.4690 19.0982 0.8161
91.4890 19.0849 0.8182
91.5090 19.0716 0.8078
91.5290 19.0582 0.8192
91.5490 19.0449 0.8120
91.5690 19.0315 0.8059
91.5890 19.0182 0.8177
91.6090 19.0049 0.8130
91.6290 18.9915 0.8020
91.6490 18.9782 0.8139
91.6690 18.9648 0.8145
91.6890 18.9515 0.8018
91.7090 18.9382 0.8091
91.7290 18.9249 0.8116
91.7490 18.9115 0.8002
91.7690 18.8982 0.8108
91.7890 18.8849 0.8058
91.8090 18.8716 0.8006
91.8290 18.8582 0.8063
91.8490 18.8449 0.8056
91.8690 18.8316 0.7984
91.8890 18.8182 0.8054
91.9090 18.8049 0.8071
91.9290 18.7915 0.7977
91.9490 18.7782 0.8051
91.9690 18.7649 0.8006
91.9890 18.7515 0.7945
92.0090 18.7381 0.8034
92.0290 18.7248 0.8073
92.0490 18.7115 0.7945
92.0690 18.6982 0.7993
92.0890 18.6849 0.8032
92.1090 18.6715 0.7940
92.1290 18.6583 0.7999
92.1490 18.6450 0.7988
92.1690 18.6316 0.7906
92.1890 18.6182 0.8041
92.2090 18.6049 0.7952
92.2290 18.5916 0.7911
92.2490 18.5782 0.8028
92.2690 18.5649 0.7894
92.2890 18.5515 0.7886
92.3090 18.5382 0.8025
92.3290 18.5249 0.7886
92.3490 18.5115 0.7876
92.3690 18.4982 0.8003
92.3890 18.4848 0.7856
92.4090 18.4715 0.7895
92.4290 18.4582 0.7956
92.4490 18.4449 0.7863
92.4690 18.4315 0.7905
92.4890 18.4182 0.7902
92.5090 18.4049 0.7872
92.5290 18.3916 0.7892
92.5490 18.3782 0.7919
92.5690 18.3649 0.7821
92.5890 18.3516 0.7818
92.6090 18.3382 0.7901
92.6290 18.3249 0.7833
92.6490 18.3115 0.7839
92.6690 18.2982 0.7884
92.6890 18.2848 0.7788
92.7090 18.2715 0.7860
92.7290 18.2582 0.7855
92.7490 18.2448 0.7750
92.7690 18.2315 0.7863
92.7890 18.2182 0.7861
92.8090 18.2049 0.7743
92.8290 18.1915 0.7788
92.8490 18.1782 0.7864
92.8690 18.1649 0.7763
92.8890 18.1516 0.7770
92.9090 18.1382 0.7780
92.9290 18.1249 0.7774
92.9490 18.1116 0.7773
92.9690 18.0983 0.7739
92.9890 18.0849 0.7712
93.0090 18.0715 0.7794
93.0290 18.0582 0.7724
93.0490 18.0449 0.7728
93.0690 18.0316 0.7734
93.0890 18.0182 0.7718
93.1090 18.0048 0.7734
93.1290 17.9915 0.7732
93.1490 17.9782 0.7707
93.1690 17.9649 0.7715
93.1890 17.9515 0.7726
93.2090 17.9382 0.7697
93.2290 17.9249 0.7699
93.2490 17.9116 0.7686
93.2690 17.8982 0.7645
93.2890 17.8849 0.7710
93.3090 17.8715 0.7680
93.3290 17.8582 0.7609
93.3490 17.8449 0.7691
93.3690 17.8315 0.7647
93.3890 17.8182 0.7640
93.4090 17.8049 0.7705
93.4290 17.7916 0.7600
93.4490 17.7782 0.7605
93.4690 17.7648 0.7698
93.4890 17.7515 0.7609
93.5090 17.7382 0.7589
93.5290 17.7248 0.7671
93.5490 17.7115 0.7594
93.5690 17.6982 0.7598
93.5890 17.6849 0.7636
93.6090 17.6716 0.7570
93.6290 17.6582 0.7595
93.6490 17.6449 0.7614
93.6690 17.6316 0.7595
93.6890 17.6183 0.7551
93.7090 17.6049 0.7538
93.7290 17.5915 0.7562
93.7490 17.5782 0.7571
93.7690 17.5648 0.7556
93.7890 17.5515 0.7566
93.8090 17.5381 0.7509
93.8290 17.5248 0.7552
93.8490 17.5115 0.7544
93.8690 17.4982 0.7524
93.8890 17.4849 0.7517
93.9090 17.4715 0.7527
93.9290 17.4582 0.7516
93.9490 17.4449 0.7534
93.9690 17.4316 0.7490
93.9890 17.4182 0.7469
94.0090 17.4049 0.7536
94.0290 17.3916 0.7455
94.0490 17.3782 0.7441
94.0690 17.3649 0.7536
94.0890 17.3515 0.7421
94.1090 17.3381 0.7421
94.1290 17.3248 0.7513
94.1490 17.3115 0.7418
94.1690 17.2982 0.7451
94.1890 17.2848 0.7485
94.2090 17.2715 0.7389
94.2290 17.2582 0.7466
94.2490 17.2449 0.7432
94.2690 17.2315 0.7421
94.2890 17.2182 0.7499
94.3090 17.2049 0.7362
94.3290 17.1916 0.7419
94.3490 17.1782 0.7460
94.3690 17.1649 0.7348
94.3890 17.1515 0.7440
94.4090 17.1382 0.7405
94.4290 17.1249 0.7278
94.4490 17.1115 0.7447
94.4690 17.0982 0.7392
94.4890 17.0849 0.7310
94.5090 17.0715 0.7415
94.5290 17.0582 0.7315
94.5490 17.0448 0.7327
94.5690 17.0315 0.7485
94.5890 17.0182 0.7292
94.6090 17.0049 0.7327
94.6290 16.9915 0.7420
94.6490 16.9782 0.7306
94.6690 16.9649 0.7300
94.6890 16.9516 0.7393
94.7090 16.9383 0.7322
94.7290 16.9249 0.7308
94.7490 16.9115 0.7323
94.7690 16.8982 0.7317
94.7890 16.8849 0.7278
94.8090 16.8715 0.7339
94.8290 16.8582 0.7317
94.8490 16.8448 0.7215
94.8690 16.8315 0.7313
94.8890 16.8182 0.7268
94.9090 16.8048 0.7239
94.9290 16.7915 0.7329
94.9490 16.7782 0.7265
94.9690 16.7649 0.7190
94.9890 16.7515 0.7291
95.0090 16.7382 0.7255
95.0290 16.7249 0.7213
95.0490 16.7116 0.7241
95.0690 16.6982 0.7228
95.0890 16.6849 0.7199
95.1090 16.6715 0.7270
95.1290 16.6582 0.7174
95.1490 16.6449 0.7184
95.1690 16.6315 0.7272
95.1890 16.6182 0.7187
95.2090 16.6048 0.7240
95.2290 16.5915 0.7225
95.2490 16.5782 0.7135
95.2690 16.5648 0.7159
95.2890 16.5515 0.7171
95.3090 16.5382 0.7145
95.3290 16.5249 0.7150
95.3490 16.5116 0.7174
95.3690 16.4982 0.7134
95.3890 16.4849 0.7126
95.4090 16.4716 0.7125
95.4290 16.4583 0.7158
95.4490 16.4449 0.7147
95.4690 16.4316 0.7120
95.4890 16.4182 0.7121
95.5090 16.4049 0.7113
95.5290 16.3915 0.7086
95.5490 16.3782 0.7112
95.5690 16.3649 0.7090
95.5890 16.3515 0.7066
95.6090 16.3382 0.7127
95.6290 16.3248 0.7068
95.6490 16.3115 0.7075
95.6690 16.2982 0.7097
95.6890 16.2849 0.7038
95.7090 16.2715 0.7089
95.7290 16.2582 0.7082
95.7490 16.2449 0.7014
95.7690 16.2316 0.7075
95.7890 16.2183 0.7079
95.8090 16.2049 0.6990
95.8290 16.1916 0.7047
95.8490 16.1783 0.7080
95.8690 16.1649 0.6954
95.8890 16.1515 0.7019
95.9090 16.1382 0.7108
95.9290 16.1248 0.6951
95.9490 16.1115 0.6961
95.9690 16.0982 0.7063
95.9890 16.0848 0.6957
96.0090 16.0715 0.6985
96.0290 16.0582 0.7047
96.0490 16.0449 0.6960
96.0690 16.0315 0.6986
96.0890 16.0182 0.7035
96.1090 16.0049 0.6981
96.1290 15.9916 0.6966
96.1490 15.9783 0.6939
96.1690 15.9649 0.6960
96.1890 15.9515 0.6967
96.2090 15.9382 0.6915
96.2290 15.9249 0.6930
96.2490 15.9115 0.6954
96.2690 15.8982 0.6913
96.2890 15.8849 0.6924
96.3090 15.8716 0.6926
96.3290 15.8582 0.6944
96.3490 15.8448 0.6911
96.3690 15.8315 0.6928
96.3890 15.8182 0.6890
96.4090 15.8049 0.6886
96.4290 15.7915 0.6936
96.4490 15.7782 0.6900
96.4690 15.7649 0.6851
96.4890 15.7516 0.6905
96.5090 15.7382 0.6900
96.5290 15.7249 0.6843
96.5490 15.7115 0.6916
96.5690 15.6982 0.6862
96.5890 15.6849 0.6757
96.6090 15.6715 0.6900
96.6290 15.6582 0.6844
96.6490 15.6449 0.6818
96.6690 15.6316 0.6864
96.6890 15.6182 0.6792
96.7090 15.6048 0.6829
96.7290 15.5915 0.6835
96.7490 15.5782 0.6813
96.7690 15.5649 0.6792
96.7890 15.5515 0.6841
96.8090 15.5382 0.6799
96.8290 15.5249 0.6755
96.8490 15.5116 0.6809
96.8690 15.4982 0.6780
96.8890 15.4849 0.6776
96.9090 15.4715 0.6783
96.9290 15.4582 0.6800
96.9490 15.4449 0.6735
96.9690 15.4316 0.6742
96.9890 15.4182 0.6809
97.0090 15.4049 0.6691
97.0290 15.3915 0.6750
97.0490 15.3782 0.6737
97.0690 15.3648 0.6694
97.0890 15.3515 0.6775
97.1090 15.3382 0.6740
97.1290 15.3249 0.6662
97.1490 15.3115 0.6720
97.1690 15.2982 0.6778
97.1890 15.2849 0.6661
97.2090 15.2716 0.6721
97.2290 15.2583 0.6703
97.2490 15.2449 0.6614
97.2690 15.2315 0.6751
97.2890 15.2182 0.6637
97.3090 15.2049 0.6626
97.3290 15.1916 0.6715
97.3490 15.1782 0.6609
97.3690 15.1648 0.6692
97.3890 15.1515 0.6664
97.4090 15.1382 0.6644
97.4290 15.1249 0.6695
97.4490 15.1115 0.6621
97.4690 15.0982 0.6605
97.4890 15.0849 0.6667
97.5090 15.0715 0.6616
97.5290 15.0582 0.6619
97.5490 15.0449 0.6606
97.5690 15.0316 0.6573
97.5890 15.0183 0.6587
97.6090 15.0049 0.6654
97.6290 14.9915 0.6550
97.6490 14.9782 0.6581
97.6690 14.9649 0.6590
97.6890 14.9515 0.6500
97.7090 14.9381 0.6613
97.7290 14.9248 0.6570
97.7490 14.9115 0.6507
97.7690 14.8982 0.6591
97.7890 14.8848 0.6511
97.8090 14.8715 0.6551
97.8290 14.8582 0.6584
97.8490 14.8449 0.6516
97.8690 14.8315 0.6495
97.8890 14.8182 0.6536
97.9090 14.8049 0.6494
97.9290 14.7916 0.6512
97.9490 14.7783 0.6532
97.9690 14.7649 0.6489
97.9890 14.7515 0.6537
98.0090 14.7382 0.6512
98.0290 14.7249 0.6440
98.0490 14.7116 0.6526
98.0690 14.6982 0.6477
98.0890 14.6848 0.6432
98.1090 14.6715 0.6483
98.1290 14.6582 0.6482
98.1490 14.6448 0.6423
98.1690 14.6315 0.6498
98.1890 14.6182 0.6447
98.2090 14.6049 0.6409
98.2290 14.5916 0.6463
98.2490 14.5782 0.6423
98.2690 14.5649 0.6456
98.2890 14.5516 0.6416
98.3090 14.5383 0.6396
98.3290 14.5249 0.6418
98.3490 14.5115 0.6424
98.3690 14.4982 0.6412
98.3890 14.4849 0.6321
98.4090 14.4715 0.6402
98.4290 14.4582 0.6388
98.4490 14.4448 0.6371
98.4690 14.4315 0.6412
98.4890 14.4182 0.6318
98.5090 14.4049 0.6334
98.5290 14.3915 0.6389
98.5490 14.3782 0.6347
98.5690 14.3649 0.6343
98.5890 14.3515 0.6409
98.6090 14.3382 0.6284
98.6290 14.3249 0.6360
98.6490 14.3116 0.6351
98.6690 14.2983 0.6304
98.6890 14.2849 0.6320
98.7090 14.2716 0.6294
98.7290 14.2583 0.6298
98.7490 14.2449 0.6329
98.7690 14.2316 0.6288
98.7890 14.2182 0.6287
98.8090 14.2048 0.6323
98.8290 14.1915 0.6307
98.8490 14.1782 0.6241
98.8690 14.1648 0.6284
98.8890 14.1515 0.6292
98.9090 14.1382 0.6247
98.9290 14.1248 0.6267
98.9490 14.1115 0.6225
98.9690 14.0982 0.6273
98.9890 14.0849 0.6279
99.0090 14.0716 0.6147
99.0290 14.0582 0.6208
99.0490 14.0449 0.6305
99.0690 14.0315 0.6183
99.0890 14.0182 0.6193
99.1090 14.0049 0.6246
99.1290 13.9916 0.6154
99.1490 13.9782 0.6185
99.1690 13.9648 0.6202
99.1890 13.9515 0.6159
99.2090 13.9382 0.6177
99.2290 13.9248 0.6184
99.2490 13.9115 0.6162
99.2690 13.8981 0.6157
99.2890 13.8849 0.6207
99.3090 13.8715 0.6145
99.3290 13.8582 0.6150
99.3490 13.8449 0.6142
99.3690 13.8316 0.6160
99.3890 13.8183 0.6086
99.4090 13.8049 0.6122
99.4290 13.7916 0.6165
99.4490 13.7782 0.6105
99.4690 13.7649 0.6111
99.4890 13.7516 0.6139
99.5090 13.7382 0.6081
99.5290 13.7248 0.6127
99.5490 13.7115 0.6108
99.5690 13.6982 0.6048
99.5890 13.6848 0.6161
99.6090 13.6715 0.6114
99.6290 13.6582 0.6038
99.6490 13.6449 0.6124
99.6690 13.6315 0.6057
99.6890 13.6182 0.6030
99.7090 13.6049 0.6134
99.7290 13.5916 0.5992
99.7490 13.5783 0.6021
99.7690 13.5649 0.6093
99.7890 13.5516 0.6032
99.8090 13.5382 0.6012
99.8290 13.5249 0.6066
99.8490 13.5116 0.5961
99.8690 13.4982 0.6054
99.8890 13.4848 0.6038
99.9090 13.4715 0.5984
99.9290 13.4582 0.5989
99.9490 13.4448 0.6015
99.9690 13.4315 0.5957
99.9890 13.4182 0.5997
100.0090 13.4049 0.6017
100.0290 13.3915 0.5958
100.0490 13.3782 0.5981
100.0690 13.3649 0.6023
100.0890 13.3516 0.5922
100.1090 13.3382 0.5992
100.1290 13.3249 0.5986
100.1490 13.3115 0.5917
100.1690 13.2982 0.5984
100.1890 13.2849 0.5967
100.2090 13.2716 0.5896
100.2290 13.2582 0.5953
100.2490 13.2448 0.5954
100.2690 13.2315 0.5883
100.2890 13.2182 0.5912
100.3090 13.2049 0.5940
100.3290 13.1915 0.5867
100.3490 13.1781 0.5930
100.3690 13.1648 0.5903
100.3890 13.1515 0.5846
100.4090 13.1382 0.5914
100.4290 13.1248 0.5879
100.4490 13.1116 0.5863
100.4690 13.0983 0.5885
100.4890 13.0849 0.5867
100.5090 13.0716 0.5859
100.5290 13.0582 0.5849
100.5490 13.0449 0.5809
100.5690 13.0316 0.5845
100.5890 13.0182 0.5828
100.6090 13.0048 0.5843
100.6290 12.9915 0.5783
100.6490 12.9782 0.5823
100.6690 12.9649 0.5817
100.6890 12.9515 0.5799
100.7090 12.9382 0.5798
100.7290 12.9249 0.5800
100.7490 12.9115 0.5760
100.7690 12.8982 0.5820
100.7890 12.8848 0.5751
100.8090 12.8715 0.5751
100.8290 12.8582 0.5806
100.8490 12.8449 0.5737
100.8690 12.8316 0.5740
100.8890 12.8182 0.5831
100.9090 12.8049 0.5750
100.9290 12.7916 0.5738
100.9490 12.7782 0.5731
100.9690 12.7649 0.5746
100.9890 12.7515 0.5731
101.0090 12.7382 0.5688
101.0290 12.7248 0.5698
101.0490 12.7115 0.5738
101.0690 12.6981 0.5696
101.0890 12.6848 0.5704
101.1090 12.6716 0.5712
101.1290 12.6582 0.5650
101.1490 12.6449 0.5708
101.1690 12.6316 0.5671
101.1890 12.6183 0.5603
101.2090 12.6050 0.5706
101.2290 12.5916 0.5627
101.2490 12.5782 0.5622
101.2690 12.5649 0.5742
101.2890 12.5516 0.5544
101.3090 12.5382 0.5651
101.3290 12.5248 0.5690
101.3490 12.5115 0.5560
101.3690 12.4982 0.5637
101.3890 12.4849 0.5694
101.4090 12.4715 0.5514
101.4290 12.4581 0.5673
101.4490 12.4448 0.5635
101.4690 12.4315 0.5514
101.4890 12.4182 0.5698
101.5090 12.4049 0.5578
101.5290 12.3916 0.5507
101.5490 12.3783 0.5760
101.5690 12.3649 0.5528
101.5890 12.3516 0.5496
101.6090 12.3382 0.5685
101.6290 12.3249 0.5524
101.6490 12.3115 0.5493
101.6690 12.2982 0.5642
101.6890 12.2848 0.5510
101.7090 12.2715 0.5529
101.7290 12.2582 0.5591
101.7490 12.2449 0.5450
101.7690 12.2315 0.5563
101.7890 12.2182 0.5547
101.8090 12.2049 0.5403
101.8290 12.1915 0.5557
101.8490 12.1782 0.5523
101.8690 12.1649 0.5412
101.8890 12.1516 0.5542
101.9090 12.1383 0.5434
101.9290 12.1249 0.5452
101.9490 12.1116 0.5515
101.9690 12.0982 0.5403
101.9890 12.0849 0.5477
102.0090 12.0716 0.5488
102.0290 12.0582 0.5375
102.0490 12.0448 0.5483
102.0690 12.0315 0.5486
102.0890 12.0182 0.5341
102.1090 12.0049 0.5416
102.1290 11.9915 0.5403
102.1490 11.9781 0.5358
102.1690 11.9648 0.5453
102.1890 11.9515 0.5378
102.2090 11.9382 0.5371
102.2290 11.9249 0.5449
102.2490 11.9116 0.5316
102.2690 11.8983 0.5394
102.2890 11.8849 0.5372
102.3090 11.8716 0.5334
102.3290 11.8582 0.5423
102.3490 11.8449 0.5293
102.3690 11.8316 0.5308
102.3890 11.8182 0.5367
102.4090 11.8048 0.5317
102.4290 11.7915 0.5301
102.4490 11.7782 0.5400
102.4690 11.7649 0.5256
102.4890 11.7515 0.5317
102.5090 11.7382 0.5387
102.5290 11.7248 0.5241
102.5490 11.7115 0.5316
102.5690 11.6982 0.5316
102.5890 11.6849 0.5251
102.6090 11.6716 0.5312
102.6290 11.6583 0.5263
102.6490 11.6450 0.5241
102.6690 11.6316 0.5288
102.6890 11.6182 0.5276
102.7090 11.6049 0.5202
102.7290 11.5916 0.5247
102.7490 11.5782 0.5256
102.7690 11.5648 0.5235
102.7890 11.5515 0.5261
102.8090 11.5382 0.5174
102.8290 11.5248 0.5232
102.8490 11.5115 0.5200
102.8690 11.4981 0.5221
102.8890 11.4848 0.5221
102.9090 11.4715 0.5152
102.9290 11.4582 0.5222
102.9490 11.4449 0.5206
102.9690 11.4315 0.5158
102.9890 11.4183 0.5222
103.0090 11.4049 0.5134
103.0290 11.3916 0.5128
103.0490 11.3782 0.5209
103.0690 11.3649 0.5117
103.0890 11.3516 0.5110
103.1090 11.3382 0.5223
103.1290 11.3248 0.5102
103.1490 11.3115 0.5106
103.1690 11.2982 0.5190
103.1890 11.2848 0.5083
103.2090 11.2715 0.5092
103.2290 11.2581 0.5216
103.2490 11.2448 0.5046
103.2690 11.2315 0.5057
103.2890 11.2182 0.5185
103.3090 11.2049 0.5054
103.3290 11.1916 0.5059
103.3490 11.1783 0.5154
103.3690 11.1650 0.4967
103.3890 11.1516 0.5028
103.4090 11.1382 0.5183
103.4290 11.1249 0.4953
103.4490 11.1116 0.5049
103.4690 11.0982 0.5066
103.4890 11.0848 0.4892
103.5090 11.0715 0.5079
103.5290 11.0582 0.5080
103.5490 11.0449 0.4917
103.5690 11.0315 0.5036
103.5890 11.0182 0.5054
103.6090 11.0049 0.4897
103.6290 10.9915 0.5021
103.6490 10.9782 0.5015
103.6690 10.9649 0.4871
103.6890 10.9515 0.5061
103.7090 10.9382 0.4979
103.7290 10.9249 0.4866
103.7490 10.9116 0.5016
103.7690 10.8982 0.5005
103.7890 10.8849 0.4834
103.8090 10.8716 0.4978
103.8290 10.8582 0.4972
103.8490 10.8448 0.4862
103.8690 10.8315 0.4937
103.8890 10.8182 0.4939
103.9090 10.8049 0.4824
103.9290 10.7915 0.4917
103.9490 10.7782 0.4910
103.9690 10.7649 0.4842
103.9890 10.7515 0.4961
104.0090 10.7382 0.4897
104.0290 10.7248 0.4819
104.0490 10.7115 0.4945
104.0690 10.6982 0.4805
104.0890 10.6849 0.4766
104.1090 10.6716 0.4956
104.1290 10.6582 0.4832
104.1490 10.6449 0.4781
104.1690 10.6316 0.4948
104.1890 10.6183 0.4812
104.2090 10.6049 0.4733
104.2290 10.5915 0.4921
104.2490 10.5782 0.4779
104.2690 10.5649 0.4763
104.2890 10.5515 0.4868
104.3090 10.5382 0.4759
104.3290 10.5248 0.4737
104.3490 10.5115 0.4851
104.3690 10.4982 0.4739
104.3890 10.4848 0.4757
104.4090 10.4715 0.4856
104.4290 10.4582 0.4646
104.4490 10.4449 0.4791
104.4690 10.4316 0.4826
104.4890 10.4182 0.4625
104.5090 10.4049 0.4750
104.5290 10.3916 0.4820
104.5490 10.3782 0.4714
104.5690 10.3648 0.4710
104.5890 10.3515 0.4745
104.6090 10.3382 0.4650
104.6290 10.3249 0.4722
104.6490 10.3115 0.4732
104.6690 10.2982 0.4640
104.6890 10.2848 0.4718
104.7090 10.2715 0.4678
104.7290 10.2582 0.4630
104.7490 10.2448 0.4682
104.7690 10.2315 0.4689
104.7890 10.2182 0.4562
104.8090 10.2049 0.4629
104.8290 10.1916 0.4677
104.8490 10.1782 0.4578
104.8690 10.1649 0.4652
104.8890 10.1515 0.4654
104.9090 10.1382 0.4527
104.9290 10.1248 0.4598
104.9490 10.1115 0.4694
104.9690 10.0982 0.4523
104.9890 10.0849 0.4593
105.0090 10.0715 0.4611
105.0290 10.0582 0.4508
105.0490 10.0449 0.4584
105.0690 10.0316 0.4590
105.0890 10.0182 0.4495
105.1090 10.0049 0.4566
105.1290 9.9916 0.4580
105.1490 9.9782 0.4441
105.1690 9.9649 0.4546
105.1890 9.9516 0.4544
105.2090 9.9382 0.4414
105.2290 9.9249 0.4605
105.2490 9.9116 0.4493
105.2690 9.8982 0.4426
105.2890 9.8849 0.4592
105.3090 9.8715 0.4440
105.3290 9.8582 0.4476
105.3490 9.8449 0.4536
105.3690 9.8315 0.4449
105.3890 9.8182 0.4437
105.4090 9.8048 0.4502
105.4290 9.7916 0.4444
105.4490 9.7783 0.4412
105.4690 9.7649 0.4462
105.4890 9.7516 0.4392
105.5090 9.7382 0.4423
105.5290 9.7249 0.4450
105.5490 9.7116 0.4424
105.5690 9.6982 0.4403
105.5890 9.6849 0.4438
105.6090 9.6715 0.4419
105.6290 9.6582 0.4342
105.6490 9.6448 0.4460
105.6690 9.6315 0.4404
105.6890 9.6182 0.4289
105.7090 9.6049 0.4402
105.7290 9.5916 0.4395
105.7490 9.5782 0.4304
105.7690 9.5648 0.4390
105.7890 9.5515 0.4376
105.8090 9.5382 0.4284
105.8290 9.5248 0.4404
105.8490 9.5115 0.4291
105.8690 9.4982 0.4288
105.8890 9.4849 0.4415
105.9090 9.4716 0.4273
105.9290 9.4582 0.4287
105.9490 9.4449 0.4413
105.9690 9.4316 0.4233
105.9890 9.4183 0.4263
106.0090 9.4049 0.4352
106.0290 9.3915 0.4235
106.0490 9.3782 0.4233
106.0690 9.3649 0.4336
106.0890 9.3515 0.4216
106.1090 9.3381 0.4224
106.1290 9.3248 0.4314
106.1490 9.3115 0.4186
106.1690 9.2982 0.4209
106.1890 9.2849 0.4305
106.2090 9.2715 0.4175
106.2290 9.2582 0.4211
106.2490 9.2449 0.4221
106.2690 9.2316 0.4182
106.2890 9.2182 0.4249
106.3090 9.2049 0.4204
106.3290 9.1916 0.4130
106.3490 9.1783 0.4229
106.3690 9.1649 0.4180
106.3890 9.1515 0.4079
106.4090 9.1382 0.4214
106.4290 9.1249 0.4184
106.4490 9.1115 0.4025
106.4690 9.0981 0.4196
106.4890 9.0848 0.4179
106.5090 9.0715 0.4068
106.5290 9.0582 0.4132
106.5490 9.0449 0.4133
106.5690 9.0315 0.4088
106.5890 9.0182 0.4102
106.6090 9.0049 0.4123
106.6290 8.9916 0.4060
106.6490 8.9782 0.4082
106.6690 8.9649 0.4086
106.6890 8.9516 0.4062
106.7090 8.9382 0.4047
106.7290 8.9249 0.4049
106.7490 8.9115 0.4042
106.7690 8.8982 0.4041
106.7890 8.8849 0.4031
106.8090 8.8715 0.4028
106.8290 8.8582 0.4031
106.8490 8.8448 0.4057
106.8690 8.8315 0.3993
106.8890 8.8182 0.3990
106.9090 8.8049 0.4022
106.9290 8.7915 0.3966
106.9490 8.7782 0.3944
106.9690 8.7649 0.4058
106.9890 8.7516 0.3917
107.0090 8.7382 0.3933
107.0290 8.7249 0.4030
107.0490 8.7116 0.3886
107.0690 8.6983 0.3908
107.0890 8.6849 0.4016
107.1090 8.6715 0.3876
107.1290 8.6582 0.3926
107.1490 8.6448 0.3990
107.1690 8.6315 0.3850
107.1890 8.6182 0.3907
107.2090 8.6048 0.3986
107.2290 8.5915 0.3831
107.2490 8.5782 0.3887
107.2690 8.5649 0.3934
107.2890 8.5515 0.3825
107.3090 8.5382 0.3882
107.3290 8.5249 0.3908
107.3490 8.5116 0.3837
107.3690 8.4982 0.3861
107.3890 8.4849 0.3890
107.4090 8.4716 0.3815
107.4290 8.4583 0.3863
107.4490 8.4449 0.3815
107.4690 8.4315 0.3826
107.4890 8.4182 0.3843
107.5090 8.4049 0.3785
107.5290 8.3915 0.3833
107.5490 8.3782 0.3773
107.5690 8.3648 0.3783
107.5890 8.3515 0.3828
107.6090 8.3382 0.3744
107.6290 8.3249 0.3805
107.6490 8.3115 0.3786
107.6690 8.2982 0.3744
107.6890 8.2849 0.3772
107.7090 8.2716 0.3736
107.7290 8.2582 0.3704
107.7490 8.2449 0.3785
107.7690 8.2315 0.3735
107.7890 8.2182 0.3671
107.8090 8.2049 0.3759
107.8290 8.1915 0.3707
107.8490 8.1782 0.3671
107.8690 8.1649 0.3744
107.8890 8.1516 0.3661
107.9090 8.1382 0.3638
107.9290 8.1248 0.3766
107.9490 8.1115 0.3670
107.9690 8.0982 0.3610
107.9890 8.0848 0.3752
108.0090 8.0715 0.3630
108.0290 8.0582 0.3569
108.0490 8.0449 0.3735
108.0690 8.0316 0.3607
108.0890 8.0182 0.3584
108.1090 8.0049 0.3706
108.1290 7.9916 0.3560
108.1490 7.9783 0.3567
108.1690 7.9649 0.3642
108.1890 7.9515 0.3498
108.2090 7.9382 0.3579
108.2290 7.9249 0.3623
108.2490 7.9115 0.3445
108.2690 7.8982 0.3585
108.2890 7.8848 0.3605
108.3090 7.8715 0.3447
108.3290 7.8582 0.3546
108.3490 7.8449 0.3547
108.3690 7.8315 0.3464
108.3890 7.8182 0.3538
108.4090 7.8049 0.3494
108.4290 7.7916 0.3426
108.4490 7.7782 0.3514
108.4690 7.7649 0.3490
108.4890 7.7515 0.3431
108.5090 7.7382 0.3495
108.5290 7.7249 0.3442
108.5490 7.7115 0.3406
108.5690 7.6982 0.3481
108.5890 7.6849 0.3402
108.6090 7.6715 0.3383
108.6290 7.6582 0.3451
108.6490 7.6448 0.3346
108.6690 7.6315 0.3395
108.6890 7.6182 0.3476
108.7090 7.6049 0.3349
108.7290 7.5915 0.3402
108.7490 7.5782 0.3378
108.7690 7.5649 0.3349
108.7890 7.5516 0.3395
108.8090 7.5382 0.3325
108.8290 7.5249 0.3352
108.8490 7.5115 0.3360
108.8690 7.4982 0.3302
108.8890 7.4849 0.3300
108.9090 7.4715 0.3354
108.9290 7.4581 0.3285
108.9490 7.4448 0.3329
108.9690 7.4315 0.3267
108.9890 7.4182 0.3238
109.0090 7.4049 0.3342
109.0290 7.3915 0.3231
109.0490 7.3782 0.3282
109.0690 7.3649 0.3270
109.0890 7.3515 0.3205
109.1090 7.3382 0.3309
109.1290 7.3249 0.3242
109.1490 7.3116 0.3199
109.1690 7.2982 0.3199
109.1890 7.2849 0.3230
109.2090 7.2715 0.3171
109.2290 7.2582 0.3231
109.2490 7.2449 0.3153
109.2690 7.2315 0.3153
109.2890 7.2182 0.3215
109.3090 7.2048 0.3132
109.3290 7.1915 0.3148
109.3490 7.1782 0.3204
109.3690 7.1648 0.3101
109.3890 7.1515 0.3137
109.4090 7.1382 0.3183
109.4290 7.1249 0.3077
109.4490 7.1116 0.3128
109.4690 7.0982 0.3182
109.4890 7.0849 0.3042
109.5090 7.0716 0.3094
109.5290 7.0583 0.3140
109.5490 7.0449 0.2988
109.5690 7.0315 0.3110
109.5890 7.0182 0.3099
109.6090 7.0049 0.2983
109.6290 6.9915 0.3103
109.6490 6.9782 0.3061
109.6690 6.9648 0.2975
109.6890 6.9515 0.3093
109.7090 6.9382 0.2975
109.7290 6.9248 0.2984
109.7490 6.9114 0.3092
109.7690 6.8981 0.2979
109.7890 6.8849 0.2958
109.8090 6.8715 0.3023
109.8290 6.8582 0.2959
109.8490 6.8449 0.2940
109.8690 6.8316 0.2989
109.8890 6.8183 0.2967
109.9090 6.8049 0.2939
109.9290 6.7916 0.2946
109.9490 6.7783 0.2953
109.9690 6.7649 0.2901
109.9890 6.7515 0.2931
110.0090 6.7382 0.3000
110.0290 6.7248 0.2830
110.0490 6.7115 0.2902
110.0690 6.6982 0.2926
110.0890 6.6848 0.2833
110.1090 6.6715 0.2895
110.1290 6.6582 0.2933
110.1490 6.6449 0.2787
110.1690 6.6315 0.2851
110.1890 6.6182 0.2940
110.2090 6.6049 0.2742
110.2290 6.5916 0.2867
110.2490 6.5783 0.2880
110.2690 6.5649 0.2717
110.2890 6.5516 0.2860
110.3090 6.5383 0.2814
110.3290 6.5249 0.2721
110.3490 6.5115 0.2820
110.3690 6.4981 0.2801
110.3890 6.4848 0.2703
110.4090 6.4715 0.2798
110.4290 6.4582 0.2795
110.4490 6.4448 0.2707
110.4690 6.4315 0.2769
110.4890 6.4182 0.2780
110.5090 6.4049 0.2649
110.5290 6.3915 0.2777
110.5490 6.3782 0.2796
110.5690 6.3649 0.2630
110.5890 6.3516 0.2733
110.6090 6.3383 0.2733
110.6290 6.3249 0.2640
110.6490 6.3115 0.2713
110.6690 6.2982 0.2725
110.6890 6.2849 0.2560
110.7090 6.2715 0.2672
110.7290 6.2582 0.2739
110.7490 6.2449 0.2590
110.7690 6.2316 0.2636
110.7890 6.2182 0.2717
110.8090 6.2049 0.2523
110.8290 6.1915 0.2614
110.8490 6.1782 0.2685
110.8690 6.1649 0.2534
110.8890 6.1515 0.2610
110.9090 6.1382 0.2655
110.9290 6.1249 0.2514
110.9490 6.1116 0.2576
110.9690 6.0982 0.2643
110.9890 6.0849 0.2502
111.0090 6.0715 0.2531
111.0290 6.0582 0.2599
111.0490 6.0449 0.2473
111.0690 6.0315 0.2489
111.0890 6.0182 0.2541
111.1090 6.0048 0.2496
111.1290 5.9915 0.2411
111.1490 5.9782 0.2585
111.1690 5.9648 0.2498
111.1890 5.9515 0.2382
111.2090 5.9382 0.2543
111.2290 5.9249 0.2465
111.2490 5.9115 0.2365
111.2690 5.8982 0.2519
111.2890 5.8848 0.2420
111.3090 5.8715 0.2388
111.3290 5.8582 0.2501
111.3490 5.8449 0.2354
111.3690 5.8316 0.2404
111.3890 5.8183 0.2460
111.4090 5.8050 0.2360
111.4290 5.7916 0.2347
111.4490 5.7782 0.2414
111.4690 5.7649 0.2323
111.4890 5.7515 0.2344
111.5090 5.7382 0.2397
111.5290 5.7249 0.2307
111.5490 5.7115 0.2317
111.5690 5.6982 0.2367
111.5890 5.6849 0.2264
111.6090 5.6715 0.2288
111.6290 5.6582 0.2359
111.6490 5.6449 0.2290
111.6690 5.6316 0.2250
111.6890 5.6183 0.2342
111.7090 5.6049 0.2195
111.7290 5.5915 0.2290
111.7490 5.5782 0.2323
111.7690 5.5649 0.2121
111.7890 5.5516 0.2254
111.8090 5.5382 0.2292
111.8290 5.5248 0.2143
111.8490 5.5115 0.2270
111.8690 5.4982 0.2242
111.8890 5.4849 0.2110
111.9090 5.4715 0.2282
111.9290 5.4582 0.2208
111.9490 5.4449 0.2109
111.9690 5.4315 0.2228
111.9890 5.4182 0.2138
112.0090 5.4049 0.2098
112.0290 5.3916 0.2199
112.0490 5.3783 0.2117
112.0690 5.3649 0.2084
112.0890 5.3515 0.2200
112.1090 5.3382 0.2110
112.1290 5.3249 0.2074
112.1490 5.3115 0.2116
112.1690 5.2982 0.2071
112.1890 5.2848 0.2071
112.2090 5.2715 0.2066
112.2290 5.2582 0.2052
112.2490 5.2449 0.2079
112.2690 5.2315 0.2056
112.2890 5.2182 0.2018
112.3090 5.2049 0.2051
112.3290 5.1916 0.1981
112.3490 5.1782 0.2017
112.3690 5.1649 0.1977
112.3890 5.1516 0.1992
112.4090 5.1383 0.1980
112.4290 5.1249 0.1940
112.4490 5.1115 0.1978
112.4690 5.0982 0.2007
112.4890 5.0849 0.1937
112.5090 5.0716 0.1930
112.5290 5.0582 0.1949
112.5490 5.0448 0.1920
112.5690 5.0315 0.1885
112.5890 5.0182 0.1947
112.6090 5.0048 0.1936
112.6290 4.9915 0.1862
112.6490 4.9782 0.1915
112.6690 4.9649 0.1880
112.6890 4.9516 0.1829
112.7090 4.9382 0.1889
112.7290 4.9249 0.1880
112.7490 4.9116 0.1820
112.7690 4.8983 0.1849
112.7890 4.8849 0.1871
112.8090 4.8715 0.1832
112.8290 4.8582 0.1818
112.8490 4.8449 0.1778
112.8690 4.8315 0.1757
112.8890 4.8182 0.1805
112.9090 4.8049 0.1750
112.9290 4.7916 0.1806
112.9490 4.7782 0.1757
112.9690 4.7649 0.1707
112.9890 4.7515 0.1758
113.0090 4.7382 0.1755
113.0290 4.7249 0.1721
113.0490 4.7115 0.1672
113.0690 4.6982 0.1738
113.0890 4.6849 0.1753
113.1090 4.6716 0.1641
113.1290 4.6583 0.1714
113.1490 4.6449 0.1735
113.1690 4.6316 0.1643
113.1890 4.6182 0.1645
113.2090 4.6049 0.1704
113.2290 4.5916 0.1578
113.2490 4.5782 0.1710
113.2690 4.5648 0.1619
113.2890 4.5515 0.1584
113.3090 4.5382 0.1699
113.3290 4.5248 0.1566
113.3490 4.5115 0.1558
113.3690 4.4982 0.1711
113.3890 4.4848 0.1522
113.4090 4.4715 0.1539
113.4290 4.4582 0.1674
113.4490 4.4449 0.1477
113.4690 4.4316 0.1466
113.4890 4.4183 0.1711
113.5090 4.4049 0.1539
113.5290 4.3915 0.1592
113.5490 4.3782 0.1801
113.5690 4.3649 0.1578
113.5890 4.3516 0.1641
113.6090 4.3382 0.1724
113.6290 4.3248 0.1556
113.6490 4.3115 0.1662
113.6690 4.2982 0.1668
113.6890 4.2848 0.1582
113.7090 4.2715 0.1725
113.7290 4.2581 0.1706
113.7490 4.2448 0.1597
113.7690 4.2315 0.1709
113.7890 4.2182 0.1682
113.8090 4.2049 0.1555
113.8290 4.1916 0.1678
113.8490 4.1783 0.1575
113.8690 4.1649 0.1528
113.8890 4.1516 0.1638
113.9090 4.1382 0.1580
113.9290 4.1249 0.1513
113.9490 4.1115 0.1582
113.9690 4.0982 0.1514
113.9890 4.0848 0.1484
114.0090 4.0715 0.1540
114.0290 4.0582 0.1480
114.0490 4.0448 0.1458
114.0690 4.0315 0.1520
114.0890 4.0182 0.1444
114.1090 4.0049 0.1449
114.1290 3.9915 0.1469
114.1490 3.9782 0.1433
114.1690 3.9649 0.1418
114.1890 3.9516 0.1412
114.2090 3.9383 0.1353
114.2290 3.9249 0.1413
114.2490 3.9116 0.1403
114.2690 3.8982 0.1328
114.2890 3.8849 0.1340
114.3090 3.8716 0.1387
114.3290 3.8582 0.1276
114.3490 3.8448 0.1333
114.3690 3.8315 0.1367
114.3890 3.8182 0.1238
114.4090 3.8048 0.1322
114.4290 3.7915 0.1338
114.4490 3.7782 0.1228
114.4690 3.7649 0.1264
114.4890 3.7515 0.1303
114.5090 3.7382 0.1202
114.5290 3.7249 0.1274
114.5490 3.7116 0.1281
114.5690 3.6983 0.1139
114.5890 3.6849 0.1214
114.6090 3.6715 0.1264
114.6290 3.6582 0.1073
114.6490 3.6449 0.1236
114.6690 3.6316 0.1248
114.6890 3.6182 0.1029
114.7090 3.6049 0.1193
114.7290 3.5915 0.1212
114.7490 3.5782 0.1038
114.7690 3.5649 0.1158
114.7890 3.5515 0.1170
114.8090 3.5381 0.0982
114.8290 3.5248 0.1158
114.8490 3.5115 0.1115
114.8690 3.4982 0.0942
114.8890 3.4848 0.1130
114.9090 3.4715 0.1024
114.9290 3.4582 0.0943
114.9490 3.4449 0.1087
114.9690 3.4315 0.0976
114.9890 3.4182 0.0968
115.0090 3.4049 0.1060
115.0290 3.3916 0.0962
115.0490 3.3782 0.0929
115.0690 3.3648 0.1031
115.0890 3.3515 0.0933
115.1090 3.3382 0.0880
115.1290 3.3249 0.0991
115.1490 3.3115 0.0944
115.1690 3.2981 0.0839
115.1890 3.2848 0.0943
115.2090 3.2715 0.0928
115.2290 3.2582 0.0880
115.2490 3.2448 0.0882
115.2690 3.2315 0.0876
115.2890 3.2183 0.0825
115.3090 3.2049 0.0812
115.3290 3.1916 0.0874
115.3490 3.1782 0.0825
115.3690 3.1649 0.0802
115.3890 3.1516 0.0829
115.4090 3.1382 0.0740
115.4290 3.1248 0.0771
115.4490 3.1115 0.0855
115.4690 3.0982 0.0705
115.4890 3.0848 0.0706
115.5090 3.0715 0.0813
115.5290 3.0581 0.0677
115.5490 3.0448 0.0770
115.5690 3.0315 0.0751
115.5890 3.0182 0.0593
115.6090 3.0049 0.0725
115.6290 2.9916 0.0745
115.6490 2.9783 0.0572
115.6690 2.9649 0.0671
115.6890 2.9516 0.0743
115.7090 2.9382 0.0559
115.7290 2.9249 0.0655
115.7490 2.9116 0.0694
115.7690 2.8982 0.0536
115.7890 2.8848 0.0649
115.8090 2.8715 0.0614
115.8290 2.8582 0.0509
115.8490 2.8449 0.0613
115.8690 2.8315 0.0575
115.8890 2.8182 0.0492
115.9090 2.8048 0.0536
115.9290 2.7915 0.0578
115.9490 2.7782 0.0483
115.9690 2.7649 0.0515
115.9890 2.7516 0.0544
116.0090 2.7383 0.0480
116.0290 2.7249 0.0444
116.0490 2.7116 0.0547
116.0690 2.6982 0.0479
116.0890 2.6849 0.0437
116.1090 2.6716 0.0473
116.1290 2.6582 0.0416
116.1490 2.6448 0.0418
116.1690 2.6315 0.0434
116.1890 2.6182 0.0369
116.2090 2.6049 0.0368
116.2290 2.5915 0.0412
116.2490 2.5782 0.0378
116.2690 2.5649 0.0331
116.2890 2.5516 0.0413
116.3090 2.5382 0.0326
116.3290 2.5249 0.0325
116.3490 2.5116 0.0345
116.3690 2.4983 0.0313
116.3890 2.4849 0.0263
116.4090 2.4716 0.0330
116.4290 2.4582 0.0289
116.4490 2.4449 0.0232
116.4690 2.4316 0.0326
116.4890 2.4182 0.0241
116.5090 2.4048 0.0154
116.5290 2.3915 0.0331
116.5490 2.3782 0.0208
116.5690 2.3648 0.0145
116.5890 2.3515 0.0272
116.6090 2.3381 0.0191
116.6290 2.3248 0.0127
116.6490 2.3115 0.0249
116.6690 2.2982 0.0197
116.6890 2.2849 0.0110
116.7090 2.2716 0.0238
116.7290 2.2583 0.0184
116.7490 2.2449 0.0109
116.7690 2.2316 0.0176
116.7890 2.2182 0.0173
116.8090 2.2049 0.0123
116.8290 2.1916 0.0173
116.8490 2.1782 0.0111
116.8690 2.1649 0.0104
116.8890 2.1515 0.0168
116.9090 2.1382 0.0122
116.9290 2.1249 0.0079
116.9490 2.1115 0.0131
116.9690 2.0981 0.0089
116.9890 2.0848 0.0108
117.0090 2.0715 0.0075
117.0290 2.0582 0.0139
117.0490 2.0449 0.0089
117.0690 2.0316 0.0089
117.0890 2.0183 0.0133
117.1090 2.0050 0.0076
117.1290 1.9916 0.0037
117.1490 1.9782 0.0100
117.1690 1.9649 0.0049
117.1890 1.9516 0.0045
117.2090 1.9382 0.0100
117.2290 1.9249 0.0028
117.2490 1.9115 0.0089
117.2690 1.8982 0.0135
117.2890 1.8849 0.0020
117.3090 1.8715 0.0082
117.3290 1.8582 0.0147
117.3490 1.8448 0.0030
117.3690 1.8315 0.0066
117.3890 1.8182 0.0122
117.4090 1.8049 0.0022
117.4290 1.7915 0.0088
117.4490 1.7782 0.0089
117.4690 1.7649 -0.0005
117.4890 1.7516 0.0102
117.5090 1.7382 0.0117
117.5290 1.7249 -0.0012
117.5490 1.7116 0.0105
117.5690 1.6982 0.0106
117.5890 1.6848 -0.0025
117.6090 1.6715 0.0147
117.6290 1.6581 0.0103
117.6490 1.6448 -0.0037
117.6690 1.6315 0.0084
117.6890 1.6181 0.0112
117.7090 1.6048 0.0033
117.7290 1.5915 0.0073
117.7490 1.5782 0.0105
117.7690 1.5649 0.0027
117.7890 1.5516 0.0107
117.8090 1.5383 0.0081
117.8290 1.5249 -0.0033
117.8490 1.5116 0.0107
117.8690 1.4982 0.0070
117.8890 1.4849 0.0018
117.9090 1.4716 0.0079
117.9290 1.4582 0.0095
117.9490 1.4448 -0.0002
117.9690 1.4315 0.0096
117.9890 1.4182 0.0087
118.0090 1.4049 -0.0008
118.0290 1.3915 0.0094
118.0490 1.3782 0.0114
118.0690 1.3648 0.0056
118.0890 1.3515 0.0069
118.1090 1.3382 0.0086
118.1290 1.3249 0.0045
118.1490 1.3115 0.0058
118.1690 1.2982 0.0101
118.1890 1.2849 0.0061
118.2090 1.2716 0.0026
118.2290 1.2582 0.0116
118.2490 1.2449 0.0051
118.2690 1.2316 0.0020
118.2890 1.2182 0.0103
118.3090 1.2049 0.0038
118.3290 1.1915 0.0046
118.3490 1.1782 0.0111
118.3690 1.1649 0.0002
118.3890 1.1515 0.0047
118.4090 1.1382 0.0116
118.4290 1.1248 0.0026
118.4490 1.1115 0.0070
118.4690 1.0982 0.0131
118.4890 1.0849 -0.0015
118.5090 1.0715 0.0055
118.5290 1.0582 0.0128
118.5490 1.0449 -0.0002
118.5690 1.0316 0.0033
118.5890 1.0182 0.0150
118.6090 1.0049 0.0029
118.6290 0.9916 0.0046
118.6490 0.9783 0.0105
118.6690 0.9649 0.0013
118.6890 0.9515 0.0036
118.7090 0.9382 0.0106
118.7290 0.9249 0.0008
118.7490 0.9115 0.0033
118.7690 0.8982 0.0100
118.7890 0.8848 0.0040
118.8090 0.8715 0.0058
118.8290 0.8582 0.0104
118.8490 0.8449 0.0039
118.8690 0.8315 0.0051
118.8890 0.8182 0.0096
118.9090 0.8049 0.0026
118.9290 0.7916 0.0021
118.9490 0.7782 0.0100
118.9690 0.7649 0.0046
118.9890 0.7516 0.0017
119.0090 0.7383 0.0119
119.0290 0.7249 0.0033
119.0490 0.7115 0.0024
119.0690 0.6982 0.0093
119.0890 0.6849 0.0032
119.1090 0.6715 0.0020
119.1290 0.6582 0.0131
119.1490 0.6448 0.0056
119.1690 0.6315 0.0006
119.1890 0.6182 0.0134
119.2090 0.6048 0.0079
119.2290 0.5915 -0.0008
119.2490 0.5782 0.0161
119.2690 0.5649 0.0049
119.2890 0.5516 -0.0040
119.3090 0.5382 0.0163
119.3290 0.5249 0.0045
119.3490 0.5115 -0.0014
119.3690 0.4982 0.0110
119.3890 0.4848 0.0025
119.4090 0.4715 0.0018
119.4290 0.4581 0.0159
119.4490 0.4449 0.0003
119.4690 0.4315 -0.0004
119.4890 0.4182 0.0164
119.5090 0.4049 -0.0004
119.5290 0.3916 0.0063
119.5490 0.3783 0.0169
119.5690 0.3649 0.0026
119.5890 0.3515 0.0041
119.6090 0.3382 0.0153
119.6290 0.3249 0.0042
119.6490 0.3116 0.0048
119.6690 0.2982 0.0116
119.6890 0.2849 -0.0016
119.7090 0.2716 0.0061
119.7290 0.2582 0.0095
119.7490 0.2449 0.0007
119.7690 0.2315 0.0100
119.7890 0.2182 0.0074
119.8090 0.2048 0.0018
119.8290 0.1915 0.0048
119.8490 0.1782 0.0066
119.8690 0.1648 0.0077
119.8890 0.1515 0.0015
119.9090 0.1382 0.0004
119.9290 0.1249 0.0052
119.9490 0.1116 0.0074
119.9690 0.0982 0.0061
119.9890 0.0849 0.0057
120.0090 0.0716 0.0037
120.0290 0.0582 0.0034
120.0490 0.0449 0.0068
120.0690 0.0315 0.0061
120.0890 0.0182 0.0037
120.1090 0.0049 0.0061
120.1170 -0.0004 0.0204
