Raw Data
Time Displacement Force
(s) (mm) (N)
0.0000 0.0000 0.0031
0.0200 0.0000 0.0023
0.0400 0.0009 0.0351
0.0600 0.0044 0.0396
0.0800 0.0100 -0.0015
0.1000 0.0158 -0.0002
0.1200 0.0218 0.0211
0.1400 0.0284 0.0117
0.1600 0.0358 0.0027
0.1800 0.0432 0.0091
0.2000 0.0505 -0.0055
0.2200 0.0573 0.0022
0.2400 0.0640 0.0100
0.2600 0.0706 0.0026
0.2800 0.0773 0.0046
0.3000 0.0840 0.0107
0.3200 0.0906 0.0044
0.3400 0.0973 0.0056
0.3600 0.1040 0.0147
0.3800 0.1107 0.0047
0.4000 0.1174 0.0077
0.4200 0.1241 0.0135
0.4400 0.1308 0.0083
0.4600 0.1375 0.0028
0.4800 0.1441 0.0143
0.5000 0.1506 0.0135
0.5200 0.1573 0.0074
0.5400 0.1640 0.0163
0.5600 0.1707 0.0136
0.5800 0.1774 0.0050
0.6000 0.1841 0.0193
0.6200 0.1908 0.0143
0.6400 0.1974 0.0105
0.6600 0.2040 0.0150
0.6800 0.2106 0.0137
0.7000 0.2173 0.0134
0.7200 0.2240 0.0205
0.7400 0.2307 0.0123
0.7600 0.2374 0.0117
0.7800 0.2440 0.0178
0.8000 0.2507 0.0166
0.8200 0.2574 0.0142
0.8400 0.2640 0.0151
0.8600 0.2706 0.0202
0.8800 0.2773 0.0163
0.9000 0.2840 0.0129
0.9200 0.2907 0.0176
0.9400 0.2973 0.0199
0.9600 0.3040 0.0163
0.9800 0.3107 0.0164
1.0000 0.3174 0.0153
1.0200 0.3241 0.0138
1.0400 0.3307 0.0166
1.0600 0.3373 0.0191
1.0800 0.3440 0.0088
1.1000 0.3507 0.0237
1.1200 0.3574 0.0155
1.1400 0.3641 0.0087
1.1600 0.3708 0.0250
1.1800 0.3774 0.0175
1.2000 0.3841 0.0117
1.2200 0.3907 0.0186
1.2400 0.3973 0.0147
1.2600 0.4040 0.0130
1.2800 0.4107 0.0178
1.3000 0.4174 0.0162
1.3200 0.4241 0.0102
1.3400 0.4308 0.0185
1.3600 0.4374 0.0169
1.3800 0.4441 0.0060
1.4000 0.4507 0.0217
1.4200 0.4573 0.0153
1.4400 0.4640 0.0065
1.4600 0.4707 0.0178
1.4800 0.4774 0.0159
1.5000 0.4840 0.0113
1.5200 0.4907 0.0173
1.5400 0.4974 0.0110
1.5600 0.5040 0.0109
1.5800 0.5106 0.0211
1.6000 0.5172 0.0148
1.6200 0.5239 0.0120
1.6400 0.5306 0.0157
1.6600 0.5374 0.0130
1.6800 0.5440 0.0130
1.7000 0.5507 0.0175
1.7200 0.5574 0.0131
1.7400 0.5640 0.0111
1.7600 0.5706 0.0122
1.7800 0.5773 0.0145
1.8000 0.5840 0.0152
1.8200 0.5907 0.0139
1.8400 0.5974 0.0098
1.8600 0.6041 0.0143
1.8800 0.6108 0.0133
1.9000 0.6175 0.0157
1.9200 0.6241 0.0147
1.9400 0.6307 0.0148
1.9600 0.6373 0.0189
1.9800 0.6440 0.0126
2.0000 0.6507 0.0112
2.0200 0.6574 0.0196
2.0400 0.6641 0.0135
2.0600 0.6707 0.0128
2.0800 0.6774 0.0187
2.1000 0.6840 0.0143
2.1200 0.6906 0.0148
2.1400 0.6973 0.0232
2.1600 0.7040 0.0183
2.1800 0.7107 0.0148
2.2000 0.7174 0.0230
2.2200 0.7241 0.0137
2.2400 0.7307 0.0195
2.2600 0.7374 0.0214
2.2800 0.7440 0.0186
2.3000 0.7507 0.0195
2.3200 0.7573 0.0210
2.3400 0.7640 0.0208
2.3600 0.7707 0.0236
2.3800 0.7774 0.0164
2.4000 0.7840 0.0186
2.4200 0.7907 0.0201
2.4400 0.7974 0.0184
2.4600 0.8041 0.0138
2.4800 0.8107 0.0230
2.5000 0.8173 0.0198
2.5200 0.8240 0.0159
2.5400 0.8307 0.0265
2.5600 0.8374 0.0127
2.5800 0.8441 0.0202
2.6000 0.8508 0.0278
2.6200 0.8574 0.0113
2.6400 0.8641 0.0162
2.6600 0.8707 0.0285
2.6800 0.8773 0.0165
2.7000 0.8840 0.0153
2.7200 0.8907 0.0249
2.7400 0.8974 0.0130
2.7600 0.9041 0.0149
2.7800 0.9108 0.0270
2.8000 0.9174 0.0117
2.8200 0.9241 0.0190
2.8400 0.9307 0.0209
2.8600 0.9373 0.0160
2.8800 0.9440 0.0178
2.9000 0.9507 0.0187
2.9200 0.9574 0.0122
2.9400 0.9640 0.0189
2.9600 0.9707 0.0249
2.9800 0.9774 0.0132
3.0000 0.9840 0.0187
3.0200 0.9907 0.0160
3.0400 0.9973 0.0173
3.0600 1.0039 0.0210
3.0800 1.0106 0.0183
3.1000 1.0174 0.0127
3.1200 1.0240 0.0201
3.1400 1.0307 0.0146
3.1600 1.0374 0.0195
3.1800 1.0441 0.0172
3.2000 1.0507 0.0144
3.2200 1.0573 0.0209
3.2400 1.0640 0.0174
3.2600 1.0707 0.0159
3.2800 1.0774 0.0221
3.3000 1.0841 0.0159
3.3200 1.0908 0.0190
3.3400 1.0974 0.0208
3.3600 1.1041 0.0152
3.3800 1.1107 0.0148
3.4000 1.1173 0.0237
3.4200 1.1240 0.0178
3.4400 1.1307 0.0163
3.4600 1.1374 0.0203
3.4800 1.1441 0.0157
3.5000 1.1508 0.0221
3.5200 1.1574 0.0198
3.5400 1.1641 0.0159
3.5600 1.1707 0.0234
3.5800 1.1773 0.0212
3.6000 1.1840 0.0119
3.6200 1.1907 0.0220
3.6400 1.1974 0.0177
3.6600 1.2041 0.0145
3.6800 1.2107 0.0207
3.7000 1.2174 0.0193
3.7200 1.2241 0.0160
3.7400 1.2307 0.0210
3.7600 1.2373 0.0171
3.7800 1.2439 0.0235
3.8000 1.2507 0.0198
3.8200 1.2574 0.0137
3.8400 1.2640 0.0187
3.8600 1.2707 0.0169
3.8800 1.2774 0.0185
3.9000 1.2840 0.0174
3.9200 1.2907 0.0156
3.9400 1.2973 0.0182
3.9600 1.3040 0.0217
3.9800 1.3107 0.0117
4.0000 1.3174 0.0215
4.0200 1.3241 0.0202
4.0400 1.3308 0.0105
4.0600 1.3375 0.0230
4.0800 1.3441 0.0174
4.1000 1.3507 0.0080
4.1200 1.3573 0.0259
4.1400 1.3640 0.0170
4.1600 1.3707 0.0133
4.1800 1.3774 0.0263
4.2000 1.3841 0.0189
4.2200 1.3908 0.0103
4.2400 1.3974 0.0299
4.2600 1.4041 0.0214
4.2800 1.4107 0.0112
4.3000 1.4173 0.0269
4.3200 1.4240 0.0128
4.3400 1.4307 0.0198
4.3600 1.4374 0.0302
4.3800 1.4440 0.0129
4.4000 1.4507 0.0190
4.4200 1.4574 0.0297
4.4400 1.4640 0.0193
4.4600 1.4707 0.0218
4.4800 1.4773 0.0231
4.5000 1.4839 0.0229
4.5200 1.4906 0.0251
4.5400 1.4974 0.0233
4.5600 1.5040 0.0194
4.5800 1.5107 0.0291
4.6000 1.5174 0.0203
4.6200 1.5241 0.0166
4.6400 1.5307 0.0252
4.6600 1.5373 0.0257
4.6800 1.5440 0.0183
4.7000 1.5507 0.0223
4.7200 1.5574 0.0154
4.7400 1.5641 0.0217
4.7600 1.5708 0.0227
4.7800 1.5774 0.0185
4.8000 1.5841 0.0217
4.8200 1.5907 0.0211
4.8400 1.5973 0.0166
4.8600 1.6040 0.0216
4.8800 1.6107 0.0211
4.9000 1.6174 0.0185
4.9200 1.6240 0.0241
4.9400 1.6307 0.0207
4.9600 1.6374 0.0213
4.9800 1.6441 0.0216
5.0000 1.6507 0.0194
5.0200 1.6574 0.0206
5.0400 1.6640 0.0265
5.0600 1.6707 0.0183
5.0800 1.6774 0.0225
5.1000 1.6840 0.0271
5.1200 1.6907 0.0204
5.1400 1.6974 0.0210
5.1600 1.7041 0.0224
5.1800 1.7107 0.0208
5.2000 1.7173 0.0229
5.2200 1.7239 0.0303
5.2400 1.7306 0.0174
5.2600 1.7374 0.0221
5.2800 1.7441 0.0259
5.3000 1.7507 0.0205
5.3200 1.7574 0.0179
5.3400 1.7640 0.0227
5.3600 1.7707 0.0248
5.3800 1.7773 0.0224
5.4000 1.7840 0.0251
5.4200 1.7906 0.0255
5.4400 1.7974 0.0150
5.4600 1.8041 0.0244
5.4800 1.8107 0.0248
5.5000 1.8174 0.0227
5.5200 1.8241 0.0213
5.5400 1.8308 0.0200
5.5600 1.8374 0.0213
5.5800 1.8440 0.0214
5.6000 1.8507 0.0199
5.6200 1.8574 0.0205
5.6400 1.8641 0.0227
5.6600 1.8708 0.0156
5.6800 1.8774 0.0200
5.7000 1.8841 0.0202
5.7200 1.8907 0.0168
5.7400 1.8973 0.0274
5.7600 1.9040 0.0248
5.7800 1.9107 0.0158
5.8000 1.9174 0.0256
5.8200 1.9241 0.0193
5.8400 1.9308 0.0170
5.8600 1.9374 0.0284
5.8800 1.9441 0.0235
5.9000 1.9507 0.0076
5.9200 1.9573 0.0274
5.9400 1.9639 0.0257
5.9600 1.9706 0.0181
5.9800 1.9773 0.0227
6.0000 1.9840 0.0231
6.0200 1.9907 0.0165
6.0400 1.9974 0.0229
6.0600 2.0041 0.0254
6.0800 2.0107 0.0180
6.1000 2.0173 0.0237
6.1200 2.0240 0.0250
6.1400 2.0307 0.0207
6.1600 2.0374 0.0198
6.1800 2.0441 0.0280
6.2000 2.0508 0.0235
6.2200 2.0575 0.0218
6.2400 2.0641 0.0228
6.2600 2.0707 0.0278
6.2800 2.0773 0.0214
6.3000 2.0840 0.0234
6.3200 2.0907 0.0249
6.3400 2.0974 0.0195
6.3600 2.1041 0.0255
6.3800 2.1108 0.0274
6.4000 2.1174 0.0117
6.4200 2.1241 0.0268
6.4400 2.1307 0.0301
6.4600 2.1373 0.0160
6.4800 2.1439 0.0264
6.5000 2.1506 0.0314
6.5200 2.1573 0.0148
6.5400 2.1640 0.0218
6.5600 2.1707 0.0270
6.5800 2.1774 0.0173
6.6000 2.1841 0.0295
6.6200 2.1907 0.0170
6.6400 2.1973 0.0138
6.6600 2.2039 0.0334
6.6800 2.2106 0.0257
6.7000 2.2173 0.0102
6.7200 2.2241 0.0318
6.7400 2.2308 0.0215
6.7600 2.2374 0.0206
6.7800 2.2441 0.0202
6.8000 2.2507 0.0176
6.8200 2.2573 0.0302
6.8400 2.2640 0.0260
6.8600 2.2707 0.0073
6.8800 2.2774 0.0298
6.9000 2.2841 0.0349
6.9200 2.2907 0.0044
6.9400 2.2974 0.0266
6.9600 2.3041 0.0307
6.9800 2.3108 0.0098
7.0000 2.3174 0.0249
7.0200 2.3240 0.0272
7.0400 2.3307 0.0174
7.0600 2.3374 0.0307
7.0800 2.3441 0.0204
7.1000 2.3507 0.0098
7.1200 2.3574 0.0316
7.1400 2.3641 0.0286
7.1600 2.3708 0.0128
7.1800 2.3774 0.0280
7.2000 2.3840 0.0237
7.2200 2.3906 0.0236
7.2400 2.3973 0.0237
7.2600 2.4040 0.0156
7.2800 2.4107 0.0291
7.3000 2.4174 0.0303
7.3200 2.4241 0.0157
7.3400 2.4307 0.0224
7.3600 2.4373 0.0242
7.3800 2.4439 0.0173
7.4000 2.4506 0.0274
7.4200 2.4573 0.0272
7.4400 2.4640 0.0257
7.4600 2.4707 0.0139
7.4800 2.4774 0.0178
7.5000 2.4841 0.0335
7.5200 2.4907 0.0290
7.5400 2.4973 0.0153
7.5600 2.5039 0.0238
7.5800 2.5106 0.0220
7.6000 2.5173 0.0286
7.6200 2.5241 0.0292
7.6400 2.5308 0.0255
7.6600 2.5375 0.0195
7.6800 2.5442 0.0180
7.7000 2.5508 0.0216
7.7200 2.5574 0.0300
7.7400 2.5640 0.0230
7.7600 2.5706 0.0167
7.7800 2.5774 0.0259
7.8000 2.5841 0.0225
7.8200 2.5908 0.0182
7.8400 2.5974 0.0257
7.8600 2.6041 0.0179
7.8800 2.6107 0.0193
7.9000 2.6173 0.0296
7.9200 2.6239 0.0183
7.9400 2.6306 0.0193
7.9600 2.6373 0.0220
7.9800 2.6441 0.0196
8.0000 2.6507 0.0245
8.0200 2.6574 0.0242
8.0400 2.6641 0.0188
8.0600 2.6707 0.0217
8.0800 2.6774 0.0200
8.1000 2.6840 0.0192
8.1200 2.6906 0.0192
8.1400 2.6973 0.0297
8.1600 2.7040 0.0262
8.1800 2.7107 0.0113
8.2000 2.7174 0.0079
8.2200 2.7240 0.0289
8.2400 2.7307 0.0299
8.2600 2.7373 0.0195
8.2800 2.7439 0.0172
8.3000 2.7506 0.0113
8.3200 2.7573 0.0175
8.3400 2.7641 0.0231
8.3600 2.7708 0.0366
8.3800 2.7774 0.0114
8.4000 2.7841 -0.0008
8.4200 2.7907 0.0216
8.4400 2.7973 0.0324
8.4600 2.8040 0.0237
8.4800 2.8107 0.0208
8.5000 2.8174 0.0094
8.5200 2.8241 0.0154
8.5400 2.8308 0.0273
8.5600 2.8374 0.0255
8.5800 2.8441 0.0153
8.6000 2.8508 0.0170
8.6200 2.8574 0.0210
8.6400 2.8640 0.0206
8.6600 2.8706 0.0264
8.6800 2.8773 0.0205
8.7000 2.8840 0.0124
8.7200 2.8907 0.0248
8.7400 2.8974 0.0315
8.7600 2.9041 0.0111
8.7800 2.9107 0.0177
8.8000 2.9173 0.0285
8.8200 2.9239 0.0254
8.8400 2.9306 0.0188
8.8600 2.9373 0.0215
8.8800 2.9440 0.0175
8.9000 2.9507 0.0253
8.9200 2.9574 0.0234
8.9400 2.9641 0.0130
8.9600 2.9707 0.0229
8.9800 2.9774 0.0288
9.0000 2.9840 0.0147
9.0200 2.9907 0.0237
9.0400 2.9974 0.0255
9.0600 3.0041 0.0127
9.0800 3.0107 0.0291
9.1000 3.0174 0.0279
9.1200 3.0241 0.0128
9.1400 3.0308 0.0177
9.1600 3.0374 0.0340
9.1800 3.0440 0.0216
9.2000 3.0506 0.0215
9.2200 3.0573 0.0269
9.2400 3.0640 0.0136
9.2600 3.0707 0.0221
9.2800 3.0774 0.0278
9.3000 3.0841 0.0169
9.3200 3.0908 0.0234
9.3400 3.0974 0.0205
9.3600 3.1040 0.0197
9.3800 3.1106 0.0279
9.4000 3.1174 0.0234
9.4200 3.1241 0.0087
9.4400 3.1308 0.0240
9.4600 3.1374 0.0306
9.4800 3.1441 0.0165
9.5000 3.1507 0.0211
9.5200 3.1574 0.0247
9.5400 3.1640 0.0200
9.5600 3.1706 0.0254
9.5800 3.1773 0.0268
9.6000 3.1840 0.0135
9.6200 3.1907 0.0190
9.6400 3.1974 0.0257
9.6600 3.2041 0.0192
9.6800 3.2107 0.0227
9.7000 3.2174 0.0280
9.7200 3.2240 0.0106
9.7400 3.2306 0.0241
9.7600 3.2373 0.0334
9.7800 3.2440 0.0149
9.8000 3.2508 0.0176
9.8200 3.2575 0.0266
9.8400 3.2642 0.0091
9.8600 3.2708 0.0224
9.8800 3.2774 0.0280
9.9000 3.2840 0.0132
9.9200 3.2906 0.0278
9.9400 3.2974 0.0213
9.9600 3.3041 0.0100
9.9800 3.3108 0.0245
10.0000 3.3174 0.0202
10.0200 3.3241 0.0133
10.0400 3.3308 0.0281
10.0600 3.3374 0.0195
10.0800 3.3440 0.0144
10.1000 3.3506 0.0221
10.1200 3.3573 0.0245
10.1400 3.3640 0.0130
10.1600 3.3707 0.0157
10.1800 3.3774 0.0248
10.2000 3.3841 0.0171
10.2200 3.3907 0.0121
10.2400 3.3974 0.0268
10.2600 3.4040 0.0179
10.2800 3.4106 0.0129
10.3000 3.4173 0.0258
10.3200 3.4240 0.0177
10.3400 3.4307 0.0162
10.3600 3.4374 0.0287
10.3800 3.4441 0.0116
10.4000 3.4507 0.0151
10.4200 3.4574 0.0293
10.4400 3.4640 0.0180
10.4600 3.4706 0.0169
10.4800 3.4773 0.0277
10.5000 3.4841 0.0159
10.5200 3.4908 0.0150
10.5400 3.4974 0.0293
10.5600 3.5041 0.0149
10.5800 3.5108 0.0175
10.6000 3.5174 0.0276
10.6200 3.5240 0.0204
10.6400 3.5307 0.0192
10.6600 3.5374 0.0181
10.6800 3.5440 0.0256
10.7000 3.5507 0.0283
10.7200 3.5574 0.0127
10.7400 3.5641 0.0158
10.7600 3.5708 0.0323
10.7800 3.5774 0.0190
10.8000 3.5840 0.0092
10.8200 3.5906 0.0317
10.8400 3.5973 0.0286
10.8600 3.6040 0.0074
10.8800 3.6107 0.0163
10.9000 3.6174 0.0266
10.9200 3.6241 0.0081
10.9400 3.6307 0.0186
10.9600 3.6374 0.0361
10.9800 3.6440 0.0118
11.0000 3.6506 0.0090
11.0200 3.6573 0.0279
11.0400 3.6640 0.0236
11.0600 3.6707 0.0108
11.0800 3.6774 0.0251
11.1000 3.6840 0.0159
11.1200 3.6907 0.0101
11.1400 3.6974 0.0237
11.1600 3.7040 0.0286
11.1800 3.7107 0.0139
11.2000 3.7173 0.0189
11.2200 3.7240 0.0182
11.2400 3.7307 0.0169
11.2600 3.7374 0.0348
11.2800 3.7441 0.0154
11.3000 3.7508 0.0025
11.3200 3.7574 0.0275
11.3400 3.7640 0.0218
11.3600 3.7706 0.0153
11.3800 3.7773 0.0329
11.4000 3.7840 0.0173
11.4200 3.7908 0.0101
11.4400 3.7974 0.0233
11.4600 3.8041 0.0253
11.4800 3.8108 0.0199
11.5000 3.8174 0.0184
11.5200 3.8240 0.0127
11.5400 3.8307 0.0245
11.5600 3.8373 0.0229
11.5800 3.8440 0.0109
11.6000 3.8507 0.0296
11.6200 3.8574 0.0180
11.6400 3.8641 0.0059
11.6600 3.8708 0.0306
11.6800 3.8774 0.0238
11.7000 3.8840 0.0085
11.7200 3.8906 0.0296
11.7400 3.8973 0.0175
11.7600 3.9040 0.0145
11.7800 3.9107 0.0270
11.8000 3.9174 0.0241
11.8200 3.9241 0.0196
11.8400 3.9308 0.0213
11.8600 3.9374 0.0167
11.8800 3.9440 0.0268
11.9000 3.9506 0.0192
11.9200 3.9573 0.0202
11.9400 3.9640 0.0266
11.9600 3.9708 0.0192
11.9800 3.9774 0.0119
12.0000 3.9841 0.0291
12.0200 3.9908 0.0335
12.0400 3.9974 0.0072
12.0600 4.0040 0.0206
12.0800 4.0107 0.0292
12.1000 4.0174 0.0229
12.1200 4.0241 0.0240
12.1400 4.0308 0.0210
12.1600 4.0374 0.0205
12.1800 4.0441 0.0281
12.2000 4.0508 0.0157
12.2200 4.0574 0.0230
12.2400 4.0640 0.0289
12.2600 4.0706 0.0172
12.2800 4.0773 0.0136
12.3000 4.0840 0.0283
12.3200 4.0907 0.0267
12.3400 4.0974 0.0234
12.3600 4.1041 0.0128
12.3800 4.1108 0.0204
12.4000 4.1174 0.0351
12.4200 4.1240 0.0127
12.4400 4.1306 0.0138
12.4600 4.1373 0.0424
12.4800 4.1440 0.0178
12.5000 4.1507 0.0041
12.5200 4.1574 0.0412
12.5400 4.1640 0.0264
12.5600 4.1707 0.0079
12.5800 4.1774 0.0284
12.6000 4.1840 0.0245
12.6200 4.1906 0.0171
12.6400 4.1973 0.0224
12.6600 4.2040 0.0224
12.6800 4.2107 0.0314
12.7000 4.2174 0.0214
12.7200 4.2241 0.0121
12.7400 4.2308 0.0272
12.7600 4.2374 0.0377
12.7800 4.2441 0.0070
12.8000 4.2507 0.0190
12.8200 4.2573 0.0386
12.8400 4.2640 0.0121
12.8600 4.2707 0.0202
12.8800 4.2774 0.0375
12.9000 4.2841 0.0207
12.9200 4.2908 0.0069
12.9400 4.2974 0.0240
12.9600 4.3040 0.0293
12.9800 4.3106 0.0248
13.0000 4.3173 0.0196
13.0200 4.3240 0.0215
13.0400 4.3307 0.0279
13.0600 4.3374 0.0217
13.0800 4.3441 0.0260
13.1000 4.3507 0.0343
13.1200 4.3574 0.0131
13.1400 4.3640 0.0236
13.1600 4.3706 0.0296
13.1800 4.3773 0.0238
13.2000 4.3840 0.0207
13.2200 4.3907 0.0242
13.2400 4.3973 0.0222
13.2600 4.4040 0.0266
13.2800 4.4107 0.0247
13.3000 4.4174 0.0191
13.3200 4.4240 0.0323
13.3400 4.4307 0.0305
13.3600 4.4373 0.0173
13.3800 4.4440 0.0309
13.4000 4.4507 0.0332
13.4200 4.4574 0.0108
13.4400 4.4641 0.0294
13.4600 4.4708 0.0343
13.4800 4.4775 0.0112
13.5000 4.4840 0.0246
13.5200 4.4906 0.0377
13.5400 4.4973 0.0156
13.5600 4.5040 0.0267
13.5800 4.5107 0.0317
13.6000 4.5174 0.0164
13.6200 4.5241 0.0309
13.6400 4.5307 0.0333
13.6600 4.5374 0.0126
13.6800 4.5440 0.0276
13.7000 4.5507 0.0280
13.7200 4.5573 0.0206
13.7400 4.5640 0.0317
13.7600 4.5707 0.0207
13.7800 4.5774 0.0195
13.8000 4.5841 0.0325
13.8200 4.5908 0.0157
13.8400 4.5974 0.0180
13.8600 4.6040 0.0377
13.8800 4.6106 0.0217
13.9000 4.6172 0.0163
13.9200 4.6239 0.0273
13.9400 4.6307 0.0303
13.9600 4.6374 0.0164
13.9800 4.6440 0.0280
14.0000 4.6507 0.0283
14.0200 4.6574 0.0205
14.0400 4.6640 0.0218
14.0600 4.6706 0.0206
14.0800 4.6773 0.0244
14.1000 4.6840 0.0246
14.1200 4.6907 0.0236
14.1400 4.6974 0.0221
14.1600 4.7041 0.0211
14.1800 4.7108 0.0292
14.2000 4.7175 0.0242
14.2200 4.7241 0.0232
14.2400 4.7307 0.0288
14.2600 4.7374 0.0199
14.2800 4.7440 0.0214
14.3000 4.7507 0.0313
14.3200 4.7574 0.0242
14.3400 4.7641 0.0173
14.3600 4.7708 0.0290
14.3800 4.7774 0.0202
14.4000 4.7841 0.0245
14.4200 4.7906 0.0283
14.4400 4.7973 0.0266
14.4600 4.8040 0.0241
14.4800 4.8107 0.0257
14.5000 4.8174 0.0235
14.5200 4.8240 0.0305
14.5400 4.8307 0.0267
14.5600 4.8374 0.0236
14.5800 4.8440 0.0258
14.6000 4.8506 0.0299
14.6200 4.8573 0.0219
14.6400 4.8640 0.0235
14.6600 4.8707 0.0276
14.6800 4.8774 0.0201
14.7000 4.8841 0.0245
14.7200 4.8907 0.0246
14.7400 4.8974 0.0231
14.7600 4.9041 0.0250
14.7800 4.9107 0.0256
14.8000 4.9173 0.0206
14.8200 4.9240 0.0262
14.8400 4.9307 0.0243
14.8600 4.9374 0.0269
14.8800 4.9441 0.0227
14.9000 4.9508 0.0219
14.9200 4.9575 0.0262
14.9400 4.9641 0.0208
14.9600 4.9707 0.0193
14.9800 4.9773 0.0305
15.0000 4.9840 0.0165
15.0200 4.9907 0.0244
15.0400 4.9974 0.0308
15.0600 5.0041 0.0087
15.0800 5.0108 0.0262
15.1000 5.0174 0.0313
15.1200 5.0240 0.0111
15.1400 5.0306 0.0209
15.1600 5.0373 0.0372
15.1800 5.0440 0.0074
15.2000 5.0507 0.0267
15.2200 5.0574 0.0346
15.2400 5.0641 0.0083
15.2600 5.0707 0.0294
15.2800 5.0774 0.0325
15.3000 5.0840 0.0053
15.3200 5.0906 0.0336
15.3400 5.0973 0.0282
15.3600 5.1039 0.0041
15.3800 5.1106 0.0366
15.4000 5.1173 0.0308
15.4200 5.1240 0.0051
15.4400 5.1307 0.0317
15.4600 5.1374 0.0293
15.4800 5.1441 0.0077
15.5000 5.1507 0.0383
15.5200 5.1573 0.0250
15.5400 5.1640 0.0133
15.5600 5.1707 0.0325
15.5800 5.1774 0.0273
15.6000 5.1841 0.0181
15.6200 5.1908 0.0331
15.6400 5.1974 0.0188
15.6600 5.2041 0.0194
15.6800 5.2107 0.0377
15.7000 5.2173 0.0257
15.7200 5.2240 0.0146
15.7400 5.2307 0.0354
15.7600 5.2374 0.0267
15.7800 5.2441 0.0148
15.8000 5.2508 0.0354
15.8200 5.2574 0.0303
15.8400 5.2641 0.0202
15.8600 5.2707 0.0321
15.8800 5.2773 0.0292
15.9000 5.2840 0.0210
15.9200 5.2907 0.0312
15.9400 5.2974 0.0309
15.9600 5.3041 0.0219
15.9800 5.3107 0.0290
16.0000 5.3174 0.0287
16.0200 5.3241 0.0278
16.0400 5.3306 0.0359
16.0600 5.3372 0.0285
16.0800 5.3439 0.0272
16.1000 5.3507 0.0297
16.1200 5.3574 0.0321
16.1400 5.3641 0.0261
16.1600 5.3707 0.0277
16.1800 5.3774 0.0349
16.2000 5.3840 0.0270
16.2200 5.3907 0.0274
16.2400 5.3973 0.0389
16.2600 5.4040 0.0237
16.2800 5.4107 0.0246
16.3000 5.4174 0.0376
16.3200 5.4241 0.0202
16.3400 5.4308 0.0254
16.3600 5.4375 0.0347
16.3800 5.4441 0.0269
16.4000 5.4507 0.0298
16.4200 5.4573 0.0323
16.4400 5.4640 0.0235
16.4600 5.4707 0.0275
16.4800 5.4774 0.0355
16.5000 5.4841 0.0266
16.5200 5.4908 0.0364
16.5400 5.4974 0.0342
16.5600 5.5041 0.0150
16.5800 5.5107 0.0400
16.6000 5.5173 0.0384
16.6200 5.5240 0.0253
16.6400 5.5307 0.0302
16.6600 5.5374 0.0254
16.6800 5.5441 0.0265
16.7000 5.5507 0.0371
16.7200 5.5574 0.0313
16.7400 5.5641 0.0244
16.7600 5.5707 0.0314
16.7800 5.5773 0.0329
16.8000 5.5839 0.0259
16.8200 5.5907 0.0333
16.8400 5.5974 0.0373
16.8600 5.6040 0.0228
16.8800 5.6107 0.0321
16.9000 5.6174 0.0389
16.9200 5.6241 0.0263
16.9400 5.6307 0.0286
16.9600 5.6373 0.0422
16.9800 5.6440 0.0201
17.0000 5.6507 0.0290
17.0200 5.6574 0.0445
17.0400 5.6641 0.0195
17.0600 5.6708 0.0341
17.0800 5.6774 0.0432
17.1000 5.6841 0.0138
17.1200 5.6907 0.0266
17.1400 5.6973 0.0549
17.1600 5.7040 0.0205
17.1800 5.7107 0.0265
17.2000 5.7174 0.0451
17.2200 5.7241 0.0166
17.2400 5.7308 0.0283
17.2600 5.7375 0.0445
17.2800 5.7441 0.0167
17.3000 5.7507 0.0383
17.3200 5.7573 0.0425
17.3400 5.7640 0.0075
17.3600 5.7707 0.0286
17.3800 5.7774 0.0550
17.4000 5.7840 0.0161
17.4200 5.7907 0.0295
17.4400 5.7974 0.0402
17.4600 5.8041 0.0074
17.4800 5.8107 0.0372
17.5000 5.8173 0.0525
17.5200 5.8240 0.0127
17.5400 5.8306 0.0280
17.5600 5.8374 0.0409
17.5800 5.8440 0.0174
17.6000 5.8507 0.0339
17.6200 5.8574 0.0396
17.6400 5.8641 0.0263
17.6600 5.8707 0.0257
17.6800 5.8773 0.0363
17.7000 5.8840 0.0267
17.7200 5.8907 0.0296
17.7400 5.8974 0.0311
17.7600 5.9041 0.0277
17.7800 5.9108 0.0216
17.8000 5.9174 0.0285
17.8200 5.9241 0.0261
17.8400 5.9307 0.0256
17.8600 5.9373 0.0405
17.8800 5.9440 0.0251
17.9000 5.9507 0.0174
17.9200 5.9574 0.0380
17.9400 5.9641 0.0293
17.9600 5.9708 0.0225
17.9800 5.9774 0.0335
18.0000 5.9841 0.0239
18.0200 5.9907 0.0220
18.0400 5.9973 0.0414
18.0600 6.0039 0.0278
18.0800 6.0106 0.0148
18.1000 6.0173 0.0379
18.1200 6.0240 0.0228
18.1400 6.0307 0.0218
18.1600 6.0374 0.0399
18.1800 6.0441 0.0208
18.2000 6.0507 0.0170
18.2200 6.0573 0.0374
18.2400 6.0639 0.0263
18.2600 6.0706 0.0252
18.2800 6.0774 0.0339
18.3000 6.0840 0.0191
18.3200 6.0907 0.0277
18.3400 6.0974 0.0388
18.3600 6.1041 0.0188
18.3800 6.1107 0.0267
18.4000 6.1173 0.0360
18.4200 6.1240 0.0163
18.4400 6.1307 0.0333
18.4600 6.1374 0.0342
18.4800 6.1441 0.0191
18.5000 6.1508 0.0313
18.5200 6.1575 0.0321
18.5400 6.1641 0.0205
18.5600 6.1707 0.0321
18.5800 6.1773 0.0292
18.6000 6.1840 0.0261
18.6200 6.1907 0.0305
18.6400 6.1974 0.0291
18.6600 6.2041 0.0215
18.6800 6.2108 0.0293
18.7000 6.2174 0.0306
18.7200 6.2241 0.0239
18.7400 6.2307 0.0271
18.7600 6.2373 0.0300
18.7800 6.2440 0.0299
18.8000 6.2507 0.0264
18.8200 6.2574 0.0257
18.8400 6.2640 0.0243
18.8600 6.2707 0.0310
18.8800 6.2774 0.0311
18.9000 6.2840 0.0318
18.9200 6.2907 0.0256
18.9400 6.2973 0.0239
18.9600 6.3039 0.0317
18.9800 6.3106 0.0292
19.0000 6.3173 0.0252
19.0200 6.3240 0.0318
19.0400 6.3307 0.0275
19.0600 6.3374 0.0255
19.0800 6.3441 0.0317
19.1000 6.3508 0.0290
19.1200 6.3573 0.0245
19.1400 6.3640 0.0362
19.1600 6.3707 0.0317
19.1800 6.3774 0.0223
19.2000 6.3841 0.0332
19.2200 6.3908 0.0298
19.2400 6.3975 0.0209
19.2600 6.4041 0.0346
19.2800 6.4107 0.0307
19.3000 6.4173 0.0198
19.3200 6.4240 0.0368
19.3400 6.4307 0.0289
19.3600 6.4374 0.0214
19.3800 6.4440 0.0353
19.4000 6.4507 0.0289
19.4200 6.4574 0.0202
19.4400 6.4641 0.0367
19.4600 6.4707 0.0243
19.4800 6.4774 0.0260
19.5000 6.4840 0.0381
19.5200 6.4907 0.0252
19.5400 6.4974 0.0276
19.5600 6.5040 0.0372
19.5800 6.5107 0.0245
19.6000 6.5174 0.0226
19.6200 6.5241 0.0369
19.6400 6.5307 0.0229
19.6600 6.5373 0.0263
19.6800 6.5439 0.0385
19.7000 6.5506 0.0236
19.7200 6.5573 0.0263
19.7400 6.5640 0.0373
19.7600 6.5707 0.0229
19.7800 6.5774 0.0241
19.8000 6.5841 0.0366
19.8200 6.5907 0.0292
19.8400 6.5973 0.0204
19.8600 6.6040 0.0396
19.8800 6.6107 0.0261
19.9000 6.6174 0.0242
19.9200 6.6241 0.0360
19.9400 6.6307 0.0271
19.9600 6.6374 0.0242
19.9800 6.6441 0.0394
20.0000 6.6507 0.0255
20.0200 6.6574 0.0212
20.0400 6.6640 0.0407
20.0600 6.6707 0.0237
20.0800 6.6774 0.0251
20.1000 6.6841 0.0365
20.1200 6.6908 0.0242
20.1400 6.6974 0.0265
20.1600 6.7041 0.0344
20.1800 6.7107 0.0223
20.2000 6.7173 0.0292
20.2200 6.7240 0.0389
20.2400 6.7306 0.0241
20.2600 6.7374 0.0296
20.2800 6.7441 0.0370
20.3000 6.7507 0.0219
20.3200 6.7574 0.0322
20.3400 6.7641 0.0310
20.3600 6.7707 0.0282
20.3800 6.7773 0.0315
20.4000 6.7840 0.0316
20.4200 6.7906 0.0285
20.4400 6.7973 0.0279
20.4600 6.8040 0.0324
20.4800 6.8107 0.0340
20.5000 6.8174 0.0247
20.5200 6.8241 0.0289
20.5400 6.8307 0.0395
20.5600 6.8373 0.0214
20.5800 6.8440 0.0309
20.6000 6.8506 0.0394
20.6200 6.8574 0.0233
20.6400 6.8641 0.0347
20.6600 6.8708 0.0377
20.6800 6.8775 0.0182
20.7000 6.8841 0.0372
20.7200 6.8908 0.0326
20.7400 6.8974 0.0194
20.7600 6.9040 0.0431
20.7800 6.9107 0.0356
20.8000 6.9174 0.0188
20.8200 6.9241 0.0396
20.8400 6.9308 0.0274
20.8600 6.9374 0.0271
20.8800 6.9441 0.0383
20.9000 6.9507 0.0270
20.9200 6.9573 0.0278
20.9400 6.9640 0.0409
20.9600 6.9706 0.0298
20.9800 6.9773 0.0245
21.0000 6.9840 0.0422
21.0200 6.9907 0.0267
21.0400 6.9974 0.0268
21.0600 7.0041 0.0350
21.0800 7.0107 0.0329
21.1000 7.0173 0.0316
21.1200 7.0239 0.0350
21.1400 7.0306 0.0290
21.1600 7.0373 0.0379
21.1800 7.0441 0.0275
21.2000 7.0507 0.0343
21.2200 7.0574 0.0361
21.2400 7.0641 0.0258
21.2600 7.0707 0.0325
21.2800 7.0773 0.0342
21.3000 7.0840 0.0298
21.3200 7.0906 0.0351
21.3400 7.0974 0.0312
21.3600 7.1041 0.0282
21.3800 7.1107 0.0382
21.4000 7.1174 0.0270
21.4200 7.1241 0.0286
21.4400 7.1308 0.0379
21.4600 7.1374 0.0294
21.4800 7.1440 0.0271
21.5000 7.1507 0.0438
21.5200 7.1574 0.0257
21.5400 7.1641 0.0289
21.5600 7.1707 0.0429
21.5800 7.1774 0.0256
21.6000 7.1841 0.0287
21.6200 7.1908 0.0401
21.6400 7.1974 0.0236
21.6600 7.2040 0.0326
21.6800 7.2106 0.0424
21.7000 7.2173 0.0254
21.7200 7.2240 0.0345
21.7400 7.2307 0.0376
21.7600 7.2374 0.0229
21.7800 7.2441 0.0331
21.8000 7.2507 0.0390
21.8200 7.2573 0.0193
21.8400 7.2639 0.0331
21.8600 7.2706 0.0409
21.8800 7.2773 0.0221
21.9000 7.2840 0.0274
21.9200 7.2907 0.0395
21.9400 7.2974 0.0243
21.9600 7.3040 0.0336
21.9800 7.3107 0.0314
22.0000 7.3174 0.0231
22.0200 7.3240 0.0351
22.0400 7.3307 0.0331
22.0600 7.3374 0.0211
22.0800 7.3441 0.0354
22.1000 7.3508 0.0354
22.1200 7.3574 0.0222
22.1400 7.3641 0.0312
22.1600 7.3708 0.0327
22.1800 7.3774 0.0225
22.2000 7.3840 0.0360
22.2200 7.3906 0.0283
22.2400 7.3973 0.0217
22.2600 7.4041 0.0371
22.2800 7.4108 0.0275
22.3000 7.4175 0.0259
22.3200 7.4241 0.0357
22.3400 7.4308 0.0311
22.3600 7.4374 0.0273
22.3800 7.4440 0.0325
22.4000 7.4506 0.0280
22.4200 7.4573 0.0299
22.4400 7.4641 0.0254
22.4600 7.4707 0.0267
22.4800 7.4774 0.0333
22.5000 7.4841 0.0255
22.5200 7.4907 0.0253
22.5400 7.4974 0.0296
22.5600 7.5040 0.0239
22.5800 7.5106 0.0320
22.6000 7.5173 0.0302
22.6200 7.5240 0.0221
22.6400 7.5307 0.0351
22.6600 7.5374 0.0304
22.6800 7.5440 0.0235
22.7000 7.5507 0.0303
22.7200 7.5573 0.0305
22.7400 7.5640 0.0209
22.7600 7.5706 0.0304
22.7800 7.5773 0.0280
22.8000 7.5841 0.0213
22.8200 7.5908 0.0356
22.8400 7.5974 0.0249
22.8600 7.6041 0.0218
22.8800 7.6108 0.0376
22.9000 7.6174 0.0254
22.9200 7.6240 0.0274
22.9400 7.6306 0.0337
22.9600 7.6374 0.0227
22.9800 7.6441 0.0250
23.0000 7.6508 0.0283
23.0200 7.6574 0.0291
23.0400 7.6641 0.0274
23.0600 7.6708 0.0289
23.0800 7.6774 0.0281
23.1000 7.6840 0.0270
23.1200 7.6906 0.0231
23.1400 7.6973 0.0316
23.1600 7.7040 0.0259
23.1800 7.7107 0.0262
23.2000 7.7174 0.0329
23.2200 7.7241 0.0219
23.2400 7.7307 0.0227
23.2600 7.7374 0.0325
23.2800 7.7439 0.0198
23.3000 7.7506 0.0267
23.3200 7.7573 0.0306
23.3400 7.7640 0.0199
23.3600 7.7707 0.0274
23.3800 7.7774 0.0345
23.4000 7.7841 0.0156
23.4200 7.7907 0.0237
23.4400 7.7974 0.0376
23.4600 7.8040 0.0179
23.4800 7.8106 0.0248
23.5000 7.8173 0.0334
23.5200 7.8241 0.0207
23.5400 7.8307 0.0260
23.5600 7.8374 0.0310
23.5800 7.8441 0.0185
23.6000 7.8508 0.0338
23.6200 7.8574 0.0331
23.6400 7.8640 0.0153
23.6600 7.8706 0.0311
23.6800 7.8773 0.0356
23.7000 7.8840 0.0163
23.7200 7.8907 0.0324
23.7400 7.8974 0.0349
23.7600 7.9041 0.0153
23.7800 7.9108 0.0308
23.8000 7.9174 0.0336
23.8200 7.9240 0.0174
23.8400 7.9306 0.0364
23.8600 7.9373 0.0352
23.8800 7.9441 0.0125
23.9000 7.9508 0.0351
23.9200 7.9574 0.0357
23.9400 7.9641 0.0160
23.9600 7.9707 0.0349
23.9800 7.9774 0.0416
24.0000 7.9840 0.0201
24.0200 7.9906 0.0332
24.0400 7.9973 0.0386
24.0600 8.0040 0.0213
24.0800 8.0107 0.0307
24.1000 8.0173 0.0366
24.1200 8.0240 0.0185
24.1400 8.0307 0.0268
24.1600 8.0374 0.0414
24.1800 8.0440 0.0226
24.2000 8.0506 0.0294
24.2200 8.0573 0.0430
24.2400 8.0640 0.0178
24.2600 8.0707 0.0286
24.2800 8.0774 0.0379
24.3000 8.0842 0.0237
24.3200 8.0908 0.0247
24.3400 8.0974 0.0377
24.3600 8.1040 0.0294
24.3800 8.1106 0.0250
24.4000 8.1173 0.0445
24.4200 8.1241 0.0245
24.4400 8.1308 0.0279
24.4600 8.1374 0.0403
24.4800 8.1441 0.0243
24.5000 8.1508 0.0262
24.5200 8.1574 0.0403
24.5400 8.1640 0.0272
24.5600 8.1706 0.0295
24.5800 8.1773 0.0397
24.6000 8.1840 0.0307
24.6200 8.1907 0.0243
24.6400 8.1974 0.0403
24.6600 8.2041 0.0270
24.6800 8.2108 0.0300
24.7000 8.2174 0.0406
24.7200 8.2240 0.0246
24.7400 8.2306 0.0322
24.7600 8.2373 0.0406
24.7800 8.2440 0.0268
24.8000 8.2507 0.0240
24.8200 8.2574 0.0407
24.8400 8.2640 0.0315
24.8600 8.2707 0.0293
24.8800 8.2774 0.0397
24.9000 8.2840 0.0320
24.9200 8.2906 0.0305
24.9400 8.2973 0.0435
24.9600 8.3040 0.0330
24.9800 8.3108 0.0274
25.0000 8.3174 0.0395
25.0200 8.3241 0.0372
25.0400 8.3308 0.0275
25.0600 8.3374 0.0409
25.0800 8.3440 0.0367
25.1000 8.3507 0.0352
25.1200 8.3574 0.0413
25.1400 8.3640 0.0317
25.1600 8.3707 0.0322
25.1800 8.3774 0.0400
25.2000 8.3841 0.0369
25.2200 8.3908 0.0292
25.2400 8.3974 0.0424
25.2600 8.4040 0.0366
25.2800 8.4106 0.0320
25.3000 8.4173 0.0406
25.3200 8.4240 0.0383
25.3400 8.4307 0.0255
25.3600 8.4374 0.0482
25.3800 8.4441 0.0375
25.4000 8.4508 0.0257
25.4200 8.4574 0.0449
25.4400 8.4640 0.0372
25.4600 8.4706 0.0258
25.4800 8.4773 0.0486
25.5000 8.4840 0.0362
25.5200 8.4907 0.0266
25.5400 8.4974 0.0440
25.5600 8.5040 0.0346
25.5800 8.5107 0.0320
25.6000 8.5174 0.0438
25.6200 8.5240 0.0363
25.6400 8.5307 0.0306
25.6600 8.5373 0.0421
25.6800 8.5440 0.0360
25.7000 8.5507 0.0331
25.7200 8.5574 0.0403
25.7400 8.5641 0.0326
25.7600 8.5708 0.0325
25.7800 8.5775 0.0411
25.8000 8.5840 0.0354
25.8200 8.5906 0.0371
25.8400 8.5973 0.0407
25.8600 8.6040 0.0331
25.8800 8.6107 0.0340
25.9000 8.6174 0.0388
25.9200 8.6241 0.0404
25.9400 8.6308 0.0313
25.9600 8.6374 0.0407
25.9800 8.6440 0.0414
26.0000 8.6506 0.0292
26.0200 8.6573 0.0352
26.0400 8.6640 0.0477
26.0600 8.6707 0.0291
26.0800 8.6774 0.0350
26.1000 8.6841 0.0429
26.1200 8.6907 0.0334
26.1400 8.6974 0.0329
26.1600 8.7040 0.0412
26.1800 8.7106 0.0323
26.2000 8.7173 0.0418
26.2200 8.7240 0.0402
26.2400 8.7307 0.0276
26.2600 8.7374 0.0383
26.2800 8.7441 0.0407
26.3000 8.7508 0.0295
26.3200 8.7574 0.0401
26.3400 8.7640 0.0389
26.3600 8.7706 0.0315
26.3800 8.7773 0.0409
26.4000 8.7840 0.0371
26.4200 8.7907 0.0290
26.4400 8.7975 0.0382
26.4600 8.8041 0.0347
26.4800 8.8108 0.0327
26.5000 8.8174 0.0388
26.5200 8.8240 0.0380
26.5400 8.8306 0.0340
26.5600 8.8373 0.0363
26.5800 8.8440 0.0387
26.6000 8.8508 0.0341
26.6200 8.8574 0.0338
26.6400 8.8641 0.0339
26.6600 8.8707 0.0364
26.6800 8.8774 0.0319
26.7000 8.8840 0.0354
26.7200 8.8906 0.0374
26.7400 8.8973 0.0293
26.7600 8.9040 0.0359
26.7800 8.9107 0.0352
26.8000 8.9174 0.0301
26.8200 8.9241 0.0389
26.8400 8.9307 0.0377
26.8600 8.9374 0.0224
26.8800 8.9440 0.0343
26.9000 8.9506 0.0366
26.9200 8.9573 0.0297
26.9400 8.9640 0.0367
26.9600 8.9707 0.0331
26.9800 8.9774 0.0270
27.0000 8.9841 0.0396
27.0200 8.9907 0.0292
27.0400 8.9974 0.0280
27.0600 9.0040 0.0391
27.0800 9.0106 0.0341
27.1000 9.0173 0.0280
27.1200 9.0240 0.0375
27.1400 9.0307 0.0334
27.1600 9.0374 0.0277
27.1800 9.0441 0.0350
27.2000 9.0508 0.0327
27.2200 9.0574 0.0268
27.2400 9.0641 0.0351
27.2600 9.0707 0.0313
27.2800 9.0773 0.0264
27.3000 9.0840 0.0405
27.3200 9.0907 0.0278
27.3400 9.0974 0.0273
27.3600 9.1041 0.0380
27.3800 9.1108 0.0279
27.4000 9.1175 0.0247
27.4200 9.1241 0.0346
27.4400 9.1306 0.0286
27.4600 9.1373 0.0282
27.4800 9.1440 0.0335
27.5000 9.1507 0.0291
27.5200 9.1574 0.0247
27.5400 9.1640 0.0365
27.5600 9.1707 0.0264
27.5800 9.1774 0.0310
27.6000 9.1840 0.0366
27.6200 9.1906 0.0298
27.6400 9.1973 0.0310
27.6600 9.2040 0.0345
27.6800 9.2107 0.0290
27.7000 9.2174 0.0260
27.7200 9.2240 0.0358
27.7400 9.2307 0.0312
27.7600 9.2374 0.0247
27.7800 9.2441 0.0320
27.8000 9.2507 0.0346
27.8200 9.2573 0.0262
27.8400 9.2640 0.0341
27.8600 9.2707 0.0288
27.8800 9.2774 0.0227
27.9000 9.2841 0.0345
27.9200 9.2908 0.0341
27.9400 9.2975 0.0225
27.9600 9.3041 0.0344
27.9800 9.3107 0.0310
28.0000 9.3173 0.0274
28.0200 9.3240 0.0352
28.0400 9.3307 0.0269
28.0600 9.3374 0.0216
28.0800 9.3441 0.0351
28.1000 9.3508 0.0281
28.1200 9.3574 0.0212
28.1400 9.3640 0.0377
28.1600 9.3707 0.0281
28.1800 9.3773 0.0245
28.2000 9.3840 0.0372
28.2200 9.3907 0.0264
28.2400 9.3974 0.0242
28.2600 9.4041 0.0363
28.2800 9.4107 0.0268
28.3000 9.4174 0.0272
28.3200 9.4240 0.0343
28.3400 9.4306 0.0322
28.3600 9.4373 0.0249
28.3800 9.4439 0.0301
28.4000 9.4506 0.0329
28.4200 9.4573 0.0287
28.4400 9.4640 0.0287
28.4600 9.4707 0.0354
28.4800 9.4774 0.0285
28.5000 9.4840 0.0233
28.5200 9.4906 0.0380
28.5400 9.4973 0.0286
28.5600 9.5040 0.0274
28.5800 9.5107 0.0391
28.6000 9.5174 0.0227
28.6200 9.5241 0.0287
28.6400 9.5308 0.0427
28.6600 9.5375 0.0187
28.6800 9.5441 0.0307
28.7000 9.5507 0.0402
28.7200 9.5574 0.0243
28.7400 9.5640 0.0317
28.7600 9.5707 0.0410
28.7800 9.5774 0.0202
28.8000 9.5841 0.0304
28.8200 9.5908 0.0429
28.8400 9.5974 0.0209
28.8600 9.6041 0.0338
28.8800 9.6107 0.0385
28.9000 9.6173 0.0195
28.9200 9.6239 0.0349
28.9400 9.6307 0.0392
28.9600 9.6374 0.0244
28.9800 9.6440 0.0393
29.0000 9.6507 0.0355
29.0200 9.6574 0.0227
29.0400 9.6640 0.0359
29.0600 9.6706 0.0390
29.0800 9.6773 0.0249
29.1000 9.6840 0.0399
29.1200 9.6907 0.0339
29.1400 9.6974 0.0282
29.1600 9.7041 0.0367
29.1800 9.7107 0.0369
29.2000 9.7174 0.0304
29.2200 9.7241 0.0375
29.2400 9.7307 0.0321
29.2600 9.7374 0.0320
29.2800 9.7440 0.0410
29.3000 9.7507 0.0332
29.3200 9.7574 0.0272
29.3400 9.7641 0.0352
29.3600 9.7708 0.0377
29.3800 9.7775 0.0303
29.4000 9.7841 0.0315
29.4200 9.7907 0.0389
29.4400 9.7973 0.0413
29.4600 9.8040 0.0338
29.4800 9.8107 0.0390
29.5000 9.8174 0.0337
29.5200 9.8241 0.0306
29.5400 9.8308 0.0374
29.5600 9.8374 0.0408
29.5800 9.8440 0.0306
29.6000 9.8506 0.0398
29.6200 9.8573 0.0377
29.6400 9.8640 0.0289
29.6600 9.8707 0.0384
29.6800 9.8774 0.0360
29.7000 9.8840 0.0286
29.7200 9.8907 0.0426
29.7400 9.8974 0.0314
29.7600 9.9040 0.0315
29.7800 9.9107 0.0451
29.8000 9.9173 0.0307
29.8200 9.9240 0.0356
29.8400 9.9306 0.0437
29.8600 9.9373 0.0291
29.8800 9.9440 0.0324
29.9000 9.9507 0.0436
29.9200 9.9574 0.0305
29.9400 9.9641 0.0373
29.9600 9.9707 0.0334
29.9800 9.9773 0.0355
30.0000 9.9840 0.0435
30.0200 9.9907 0.0320
30.0400 9.9974 0.0340
30.0600 10.0041 0.0415
30.0800 10.0108 0.0287
30.1000 10.0175 0.0379
30.1200 10.0241 0.0404
30.1400 10.0307 0.0318
30.1600 10.0373 0.0406
30.1800 10.0440 0.0418
30.2000 10.0507 0.0246
30.2200 10.0574 0.0424
30.2400 10.0641 0.0410
30.2600 10.0708 0.0256
30.2800 10.0774 0.0483
30.3000 10.0841 0.0328
30.3200 10.0907 0.0304
30.3400 10.0973 0.0502
30.3600 10.1040 0.0337
30.3800 10.1107 0.0326
30.4000 10.1174 0.0470
30.4200 10.1241 0.0279
30.4400 10.1308 0.0436
30.4600 10.1374 0.0438
30.4800 10.1441 0.0267
30.5000 10.1507 0.0416
30.5200 10.1572 0.0450
30.5400 10.1639 0.0289
30.5600 10.1706 0.0432
30.5800 10.1773 0.0446
30.6000 10.1840 0.0255
30.6200 10.1907 0.0490
30.6400 10.1974 0.0437
30.6600 10.2041 0.0289
30.6800 10.2107 0.0459
30.7000 10.2173 0.0406
30.7200 10.2240 0.0340
30.7400 10.2307 0.0430
30.7600 10.2374 0.0409
30.7800 10.2441 0.0372
30.8000 10.2508 0.0374
30.8200 10.2575 0.0385
30.8400 10.2642 0.0376
30.8600 10.2708 0.0394
30.8800 10.2774 0.0430
30.9000 10.2840 0.0383
30.9200 10.2907 0.0336
30.9400 10.2974 0.0446
30.9600 10.3041 0.0381
30.9800 10.3108 0.0305
31.0000 10.3174 0.0449
31.0200 10.3241 0.0365
31.0400 10.3307 0.0334
31.0600 10.3373 0.0450
31.0800 10.3440 0.0372
31.1000 10.3507 0.0367
31.1200 10.3574 0.0445
31.1400 10.3640 0.0329
31.1600 10.3707 0.0428
31.1800 10.3774 0.0444
31.2000 10.3841 0.0295
31.2200 10.3907 0.0362
31.2400 10.3973 0.0537
31.2600 10.4040 0.0295
31.2800 10.4107 0.0373
31.3000 10.4174 0.0448
31.3200 10.4240 0.0312
31.3400 10.4307 0.0405
31.3600 10.4374 0.0444
31.3800 10.4441 0.0320
31.4000 10.4507 0.0416
31.4200 10.4573 0.0440
31.4400 10.4639 0.0336
31.4600 10.4706 0.0431
31.4800 10.4774 0.0442
31.5000 10.4841 0.0341
31.5200 10.4908 0.0364
31.5400 10.4974 0.0426
31.5600 10.5041 0.0355
31.5800 10.5107 0.0374
31.6000 10.5173 0.0361
31.6200 10.5240 0.0408
31.6400 10.5307 0.0359
31.6600 10.5374 0.0422
31.6800 10.5441 0.0380
31.7000 10.5508 0.0336
31.7200 10.5574 0.0417
31.7400 10.5641 0.0412
31.7600 10.5707 0.0333
31.7800 10.5773 0.0395
31.8000 10.5840 0.0426
31.8200 10.5907 0.0333
31.8400 10.5974 0.0416
31.8600 10.6040 0.0406
31.8800 10.6107 0.0339
31.9000 10.6174 0.0448
31.9200 10.6241 0.0411
31.9400 10.6307 0.0319
31.9600 10.6373 0.0484
31.9800 10.6440 0.0395
32.0000 10.6506 0.0342
32.0200 10.6573 0.0473
32.0400 10.6640 0.0379
32.0600 10.6707 0.0318
32.0800 10.6774 0.0473
32.1000 10.6841 0.0348
32.1200 10.6907 0.0396
32.1400 10.6973 0.0481
32.1600 10.7040 0.0420
32.1800 10.7107 0.0358
32.2000 10.7174 0.0423
32.2200 10.7241 0.0408
32.2400 10.7308 0.0372
32.2600 10.7375 0.0465
32.2800 10.7441 0.0376
32.3000 10.7507 0.0411
32.3200 10.7573 0.0434
32.3400 10.7640 0.0413
32.3600 10.7707 0.0406
32.3800 10.7774 0.0413
32.4000 10.7841 0.0385
32.4200 10.7908 0.0411
32.4400 10.7974 0.0403
32.4600 10.8041 0.0418
32.4800 10.8107 0.0401
32.5000 10.8173 0.0397
32.5200 10.8239 0.0429
32.5400 10.8306 0.0431
32.5600 10.8373 0.0364
32.5800 10.8441 0.0430
32.6000 10.8508 0.0374
32.6200 10.8574 0.0373
32.6400 10.8641 0.0455
32.6600 10.8707 0.0363
32.6800 10.8773 0.0411
32.7000 10.8839 0.0450
32.7200 10.8906 0.0339
32.7400 10.8974 0.0404
32.7600 10.9040 0.0467
32.7800 10.9107 0.0308
32.8000 10.9174 0.0427
32.8200 10.9241 0.0474
32.8400 10.9307 0.0301
32.8600 10.9373 0.0393
32.8800 10.9440 0.0466
32.9000 10.9507 0.0309
32.9200 10.9574 0.0416
32.9400 10.9641 0.0446
32.9600 10.9708 0.0322
32.9800 10.9775 0.0457
33.0000 10.9841 0.0416
33.0200 10.9908 0.0288
33.0400 10.9973 0.0478
33.0600 11.0040 0.0423
33.0800 11.0107 0.0318
33.1000 11.0174 0.0474
33.1200 11.0241 0.0381
33.1400 11.0308 0.0381
33.1600 11.0375 0.0433
33.1800 11.0441 0.0376
33.2000 11.0507 0.0410
33.2200 11.0573 0.0442
33.2400 11.0639 0.0417
33.2600 11.0706 0.0427
33.2800 11.0774 0.0388
33.3000 11.0840 0.0422
33.3200 11.0907 0.0419
33.3400 11.0974 0.0415
33.3600 11.1041 0.0354
33.3800 11.1107 0.0451
33.4000 11.1173 0.0438
33.4200 11.1239 0.0404
33.4400 11.1306 0.0391
33.4600 11.1373 0.0424
33.4800 11.1440 0.0457
33.5000 11.1507 0.0372
33.5200 11.1574 0.0452
33.5400 11.1641 0.0459
33.5600 11.1708 0.0376
33.5800 11.1774 0.0453
33.6000 11.1840 0.0456
33.6200 11.1906 0.0399
33.6400 11.1974 0.0438
33.6600 11.2041 0.0417
33.6800 11.2107 0.0421
33.7000 11.2174 0.0414
33.7200 11.2241 0.0460
33.7400 11.2307 0.0371
33.7600 11.2373 0.0410
33.7800 11.2440 0.0462
33.8000 11.2507 0.0421
33.8200 11.2574 0.0387
33.8400 11.2641 0.0502
33.8600 11.2707 0.0397
33.8800 11.2774 0.0377
33.9000 11.2841 0.0489
33.9200 11.2908 0.0380
33.9400 11.2974 0.0413
33.9600 11.3040 0.0481
33.9800 11.3107 0.0377
34.0000 11.3174 0.0396
34.0200 11.3240 0.0455
34.0400 11.3307 0.0380
34.0600 11.3374 0.0432
34.0800 11.3441 0.0416
34.1000 11.3507 0.0361
34.1200 11.3573 0.0411
34.1400 11.3639 0.0492
34.1600 11.3706 0.0383
34.1800 11.3773 0.0408
34.2000 11.3840 0.0465
34.2200 11.3907 0.0364
34.2400 11.3974 0.0392
34.2600 11.4041 0.0494
34.2800 11.4107 0.0389
34.3000 11.4173 0.0437
34.3200 11.4240 0.0440
34.3400 11.4306 0.0400
34.3600 11.4374 0.0451
34.3800 11.4441 0.0455
34.4000 11.4507 0.0397
34.4200 11.4574 0.0428
34.4400 11.4641 0.0455
34.4600 11.4707 0.0354
34.4800 11.4774 0.0456
34.5000 11.4840 0.0431
34.5200 11.4907 0.0443
34.5400 11.4973 0.0423
34.5600 11.5041 0.0391
34.5800 11.5107 0.0474
34.6000 11.5174 0.0450
34.6200 11.5241 0.0358
34.6400 11.5308 0.0478
34.6600 11.5373 0.0460
34.6800 11.5440 0.0416
34.7000 11.5506 0.0472
34.7200 11.5574 0.0418
34.7400 11.5641 0.0432
34.7600 11.5708 0.0462
34.7800 11.5774 0.0365
34.8000 11.5841 0.0459
34.8200 11.5907 0.0478
34.8400 11.5973 0.0329
34.8600 11.6039 0.0483
34.8800 11.6106 0.0486
34.9000 11.6173 0.0350
34.9200 11.6240 0.0454
34.9400 11.6307 0.0452
34.9600 11.6374 0.0389
34.9800 11.6440 0.0493
35.0000 11.6507 0.0420
35.0200 11.6574 0.0362
35.0400 11.6640 0.0515
35.0600 11.6706 0.0450
35.0800 11.6773 0.0353
35.1000 11.6841 0.0485
35.1200 11.6908 0.0448
35.1400 11.6975 0.0382
35.1600 11.7041 0.0459
35.1800 11.7108 0.0464
35.2000 11.7174 0.0416
35.2200 11.7240 0.0458
35.2400 11.7307 0.0482
35.2600 11.7374 0.0398
35.2800 11.7441 0.0403
35.3000 11.7508 0.0502
35.3200 11.7574 0.0405
35.3400 11.7641 0.0437
35.3600 11.7707 0.0565
35.3800 11.7773 0.0400
35.4000 11.7840 0.0446
35.4200 11.7906 0.0511
35.4400 11.7973 0.0407
35.4600 11.8040 0.0437
35.4800 11.8107 0.0494
35.5000 11.8174 0.0415
35.5200 11.8241 0.0513
35.5400 11.8307 0.0496
35.5600 11.8373 0.0390
35.5800 11.8439 0.0483
35.6000 11.8506 0.0568
35.6200 11.8573 0.0361
35.6400 11.8640 0.0498
35.6600 11.8708 0.0489
35.6800 11.8774 0.0361
35.7000 11.8841 0.0492
35.7200 11.8907 0.0481
35.7400 11.8973 0.0393
35.7600 11.9040 0.0516
35.7800 11.9106 0.0531
35.8000 11.9173 0.0390
35.8200 11.9241 0.0488
35.8400 11.9307 0.0528
35.8600 11.9374 0.0409
35.8800 11.9441 0.0474
35.9000 11.9508 0.0576
35.9200 11.9574 0.0401
35.9400 11.9640 0.0492
35.9600 11.9707 0.0568
35.9800 11.9774 0.0412
36.0000 11.9841 0.0494
36.0200 11.9907 0.0544
36.0400 11.9974 0.0399
36.0600 12.0041 0.0510
36.0800 12.0108 0.0523
36.1000 12.0174 0.0400
36.1200 12.0240 0.0561
36.1400 12.0306 0.0521
36.1600 12.0373 0.0430
36.1800 12.0440 0.0530
36.2000 12.0507 0.0493
36.2200 12.0574 0.0392
36.2400 12.0641 0.0551
36.2600 12.0707 0.0504
36.2800 12.0773 0.0381
36.3000 12.0839 0.0523
36.3200 12.0906 0.0516
36.3400 12.0973 0.0380
36.3600 12.1040 0.0508
36.3800 12.1107 0.0485
36.4000 12.1173 0.0444
36.4200 12.1240 0.0487
36.4400 12.1307 0.0458
36.4600 12.1374 0.0418
36.4800 12.1440 0.0502
36.5000 12.1506 0.0445
36.5200 12.1573 0.0397
36.5400 12.1641 0.0507
36.5600 12.1708 0.0429
36.5800 12.1775 0.0449
36.6000 12.1841 0.0487
36.6200 12.1908 0.0413
36.6400 12.1974 0.0481
36.6600 12.2040 0.0483
36.6800 12.2106 0.0410
36.7000 12.2173 0.0469
36.7200 12.2240 0.0477
36.7400 12.2308 0.0455
36.7600 12.2374 0.0398
36.7800 12.2441 0.0453
36.8000 12.2508 0.0432
36.8200 12.2574 0.0451
36.8400 12.2640 0.0419
36.8600 12.2706 0.0437
36.8800 12.2773 0.0444
36.9000 12.2840 0.0407
36.9200 12.2907 0.0471
36.9400 12.2974 0.0470
36.9600 12.3041 0.0442
36.9800 12.3108 0.0466
37.0000 12.3174 0.0381
37.0200 12.3240 0.0436
37.0400 12.3306 0.0472
37.0600 12.3373 0.0410
37.0800 12.3440 0.0453
37.1000 12.3507 0.0472
37.1200 12.3574 0.0413
37.1400 12.3641 0.0405
37.1600 12.3707 0.0473
37.1800 12.3774 0.0394
37.2000 12.3840 0.0458
37.2200 12.3906 0.0431
37.2400 12.3973 0.0451
37.2600 12.4041 0.0458
37.2800 12.4108 0.0393
37.3000 12.4174 0.0418
37.3200 12.4241 0.0478
37.3400 12.4308 0.0410
37.3600 12.4374 0.0405
37.3800 12.4440 0.0486
37.4000 12.4506 0.0439
37.4200 12.4573 0.0462
37.4400 12.4641 0.0445
37.4600 12.4708 0.0433
37.4800 12.4774 0.0471
37.5000 12.4841 0.0431
37.5200 12.4907 0.0397
37.5400 12.4974 0.0485
37.5600 12.5040 0.0423
37.5800 12.5106 0.0436
37.6000 12.5173 0.0458
37.6200 12.5240 0.0483
37.6400 12.5307 0.0400
37.6600 12.5374 0.0487
37.6800 12.5441 0.0442
37.7000 12.5507 0.0448
37.7200 12.5574 0.0458
37.7400 12.5640 0.0454
37.7600 12.5706 0.0500
37.7800 12.5773 0.0481
37.8000 12.5840 0.0429
37.8200 12.5907 0.0473
37.8400 12.5974 0.0453
37.8600 12.6041 0.0483
37.8800 12.6107 0.0496
37.9000 12.6174 0.0420
37.9200 12.6240 0.0471
37.9400 12.6306 0.0476
37.9600 12.6373 0.0519
37.9800 12.6440 0.0487
38.0000 12.6507 0.0478
38.0200 12.6574 0.0469
38.0400 12.6641 0.0519
38.0600 12.6708 0.0471
38.0800 12.6774 0.0488
38.1000 12.6840 0.0563
38.1200 12.6906 0.0505
38.1400 12.6973 0.0509
38.1600 12.7040 0.0523
38.1800 12.7107 0.0512
38.2000 12.7174 0.0510
38.2200 12.7241 0.0480
38.2400 12.7308 0.0483
38.2600 12.7374 0.0532
38.2800 12.7440 0.0481
38.3000 12.7506 0.0568
38.3200 12.7573 0.0509
38.3400 12.7640 0.0506
38.3600 12.7708 0.0537
38.3800 12.7774 0.0528
38.4000 12.7841 0.0557
38.4200 12.7908 0.0538
38.4400 12.7974 0.0472
38.4600 12.8040 0.0546
38.4800 12.8106 0.0543
38.5000 12.8173 0.0529
38.5200 12.8240 0.0520
38.5400 12.8307 0.0467
38.5600 12.8374 0.0501
38.5800 12.8440 0.0597
38.6000 12.8507 0.0565
38.6200 12.8574 0.0480
38.6400 12.8640 0.0525
38.6600 12.8706 0.0514
38.6800 12.8773 0.0525
38.7000 12.8840 0.0545
38.7200 12.8907 0.0477
38.7400 12.8974 0.0501
38.7600 12.9041 0.0540
38.7800 12.9108 0.0501
38.8000 12.9174 0.0481
38.8200 12.9240 0.0568
38.8400 12.9306 0.0528
38.8600 12.9373 0.0432
38.8800 12.9441 0.0523
38.9000 12.9508 0.0533
38.9200 12.9575 0.0484
38.9400 12.9641 0.0457
38.9600 12.9708 0.0496
38.9800 12.9774 0.0449
39.0000 12.9840 0.0524
39.0200 12.9906 0.0514
39.0400 12.9973 0.0449
39.0600 13.0040 0.0539
39.0800 13.0107 0.0518
39.1000 13.0174 0.0416
39.1200 13.0240 0.0481
39.1400 13.0307 0.0534
39.1600 13.0374 0.0480
39.1800 13.0440 0.0504
39.2000 13.0506 0.0462
39.2200 13.0573 0.0483
39.2400 13.0640 0.0471
39.2600 13.0707 0.0481
39.2800 13.0774 0.0473
39.3000 13.0840 0.0503
39.3200 13.0907 0.0466
39.3400 13.0974 0.0466
39.3600 13.1040 0.0500
39.3800 13.1106 0.0534
39.4000 13.1173 0.0500
39.4200 13.1240 0.0401
39.4400 13.1307 0.0397
39.4600 13.1374 0.0587
39.4800 13.1441 0.0505
39.5000 13.1508 0.0316
39.5200 13.1574 0.0528
39.5400 13.1641 0.0525
39.5600 13.1707 0.0399
39.5800 13.1774 0.0505
39.6000 13.1841 0.0515
39.6200 13.1907 0.0415
39.6400 13.1974 0.0549
39.6600 13.2041 0.0483
39.6800 13.2108 0.0406
39.7000 13.2174 0.0541
39.7200 13.2240 0.0476
39.7400 13.2306 0.0363
39.7600 13.2373 0.0682
39.7800 13.2440 0.0503
39.8000 13.2507 0.0288
39.8200 13.2574 0.0627
39.8400 13.2641 0.0535
39.8600 13.2708 0.0360
39.8800 13.2774 0.0561
39.9000 13.2840 0.0403
39.9200 13.2906 0.0369
39.9400 13.2973 0.0742
39.9600 13.3040 0.0458
39.9800 13.3107 0.0302
40.0000 13.3174 0.0583
40.0200 13.3240 0.0466
40.0400 13.3307 0.0385
40.0600 13.3374 0.0666
40.0800 13.3440 0.0461
40.1000 13.3507 0.0308
40.1200 13.3573 0.0542
40.1400 13.3640 0.0505
40.1600 13.3707 0.0478
40.1800 13.3774 0.0589
40.2000 13.3841 0.0352
40.2200 13.3908 0.0430
40.2400 13.3974 0.0602
40.2600 13.4040 0.0456
40.2800 13.4106 0.0456
40.3000 13.4173 0.0559
40.3200 13.4240 0.0500
40.3400 13.4307 0.0447
40.3600 13.4374 0.0519
40.3800 13.4441 0.0490
40.4000 13.4508 0.0529
40.4200 13.4574 0.0441
40.4400 13.4640 0.0499
40.4600 13.4707 0.0557
40.4800 13.4773 0.0524
40.5000 13.4840 0.0472
40.5200 13.4907 0.0469
40.5400 13.4974 0.0498
40.5600 13.5041 0.0533
40.5800 13.5107 0.0469
40.6000 13.5174 0.0504
40.6200 13.5240 0.0497
40.6400 13.5306 0.0496
40.6600 13.5373 0.0431
40.6800 13.5439 0.0602
40.7000 13.5507 0.0620
40.7200 13.5574 0.0319
40.7400 13.5641 0.0406
40.7600 13.5708 0.0688
40.7800 13.5774 0.0426
40.8000 13.5840 0.0452
40.8200 13.5906 0.0703
40.8400 13.5973 0.0343
40.8600 13.6040 0.0434
40.8800 13.6108 0.0744
40.9000 13.6174 0.0445
40.9200 13.6241 0.0430
40.9400 13.6308 0.0596
40.9600 13.6374 0.0383
40.9800 13.6440 0.0541
41.0000 13.6507 0.0606
41.0200 13.6573 0.0524
41.0400 13.6640 0.0528
41.0600 13.6707 0.0486
41.0800 13.6774 0.0520
41.1000 13.6841 0.0614
41.1200 13.6908 0.0473
41.1400 13.6974 0.0526
41.1600 13.7040 0.0542
41.1800 13.7106 0.0441
41.2000 13.7173 0.0667
41.2200 13.7240 0.0546
41.2400 13.7307 0.0447
41.2600 13.7374 0.0642
41.2800 13.7441 0.0500
41.3000 13.7507 0.0455
41.3200 13.7574 0.0676
41.3400 13.7640 0.0466
41.3600 13.7706 0.0485
41.3800 13.7773 0.0663
41.4000 13.7840 0.0441
41.4200 13.7907 0.0533
41.4400 13.7974 0.0720
41.4600 13.8041 0.0392
41.4800 13.8107 0.0520
41.5000 13.8174 0.0669
41.5200 13.8240 0.0460
41.5400 13.8307 0.0558
41.5600 13.8373 0.0571
41.5800 13.8440 0.0461
41.6000 13.8507 0.0600
41.6200 13.8574 0.0581
41.6400 13.8641 0.0437
41.6600 13.8708 0.0611
41.6800 13.8774 0.0580
41.7000 13.8841 0.0509
41.7200 13.8907 0.0549
41.7400 13.8973 0.0513
41.7600 13.9040 0.0568
41.7800 13.9107 0.0605
41.8000 13.9174 0.0503
41.8200 13.9241 0.0575
41.8400 13.9308 0.0560
41.8600 13.9375 0.0526
41.8800 13.9441 0.0538
41.9000 13.9507 0.0575
41.9200 13.9573 0.0569
41.9400 13.9640 0.0543
41.9600 13.9707 0.0513
41.9800 13.9774 0.0593
42.0000 13.9841 0.0575
42.0200 13.9907 0.0518
42.0400 13.9974 0.0568
42.0600 14.0040 0.0579
42.0800 14.0106 0.0577
42.1000 14.0173 0.0568
42.1200 14.0240 0.0542
42.1400 14.0307 0.0592
42.1600 14.0374 0.0588
42.1800 14.0440 0.0513
42.2000 14.0507 0.0629
42.2200 14.0574 0.0554
42.2400 14.0640 0.0507
42.2600 14.0707 0.0600
42.2800 14.0773 0.0614
42.3000 14.0840 0.0518
42.3200 14.0907 0.0606
42.3400 14.0974 0.0602
42.3600 14.1041 0.0549
42.3800 14.1108 0.0640
42.4000 14.1175 0.0571
42.4200 14.1241 0.0520
42.4400 14.1307 0.0681
42.4600 14.1373 0.0608
42.4800 14.1440 0.0530
42.5000 14.1507 0.0649
42.5200 14.1574 0.0605
42.5400 14.1641 0.0552
42.5600 14.1707 0.0660
42.5800 14.1774 0.0587
42.6000 14.1840 0.0550
42.6200 14.1907 0.0690
42.6400 14.1973 0.0595
42.6600 14.2040 0.0571
42.6800 14.2107 0.0633
42.7000 14.2174 0.0648
42.7200 14.2241 0.0625
42.7400 14.2307 0.0612
42.7600 14.2374 0.0608
42.7800 14.2441 0.0674
42.8000 14.2507 0.0641
42.8200 14.2573 0.0662
42.8400 14.2639 0.0638
42.8600 14.2706 0.0652
42.8800 14.2774 0.0687
42.9000 14.2840 0.0599
42.9200 14.2907 0.0666
42.9400 14.2974 0.0673
42.9600 14.3040 0.0618
42.9800 14.3106 0.0658
43.0000 14.3173 0.0663
43.0200 14.3240 0.0634
43.0400 14.3307 0.0655
43.0600 14.3374 0.0642
43.0800 14.3441 0.0660
43.1000 14.3508 0.0670
43.1200 14.3575 0.0655
43.1400 14.3641 0.0614
43.1600 14.3707 0.0707
43.1800 14.3774 0.0617
43.2000 14.3840 0.0650
43.2200 14.3907 0.0738
43.2400 14.3974 0.0594
43.2600 14.4041 0.0697
43.2800 14.4108 0.0745
43.3000 14.4174 0.0571
43.3200 14.4241 0.0690
43.3400 14.4307 0.0741
43.3600 14.4373 0.0561
43.3800 14.4440 0.0795
43.4000 14.4507 0.0706
43.4200 14.4574 0.0495
43.4400 14.4641 0.0770
43.4600 14.4707 0.0740
43.4800 14.4774 0.0533
43.5000 14.4840 0.0818
43.5200 14.4906 0.0689
43.5400 14.4972 0.0522
43.5600 14.5039 0.0804
43.5800 14.5107 0.0743
43.6000 14.5174 0.0519
43.6200 14.5241 0.0802
43.6400 14.5307 0.0683
43.6600 14.5374 0.0595
43.6800 14.5441 0.0791
43.7000 14.5507 0.0624
43.7200 14.5573 0.0650
43.7400 14.5640 0.0823
43.7600 14.5707 0.0576
43.7800 14.5774 0.0668
43.8000 14.5841 0.0802
43.8200 14.5908 0.0579
43.8400 14.5975 0.0681
43.8600 14.6041 0.0679
43.8800 14.6107 0.0666
43.9000 14.6173 0.0737
43.9200 14.6240 0.0661
43.9400 14.6307 0.0671
43.9600 14.6374 0.0734
43.9800 14.6441 0.0586
44.0000 14.6508 0.0671
44.0200 14.6574 0.0758
44.0400 14.6641 0.0573
44.0600 14.6707 0.0706
44.0800 14.6773 0.0700
44.1000 14.6840 0.0659
44.1200 14.6907 0.0751
44.1400 14.6974 0.0568
44.1600 14.7041 0.0650
44.1800 14.7107 0.0769
44.2000 14.7174 0.0591
44.2200 14.7241 0.0650
44.2400 14.7307 0.0717
44.2600 14.7373 0.0616
44.2800 14.7440 0.0694
44.3000 14.7507 0.0713
44.3200 14.7574 0.0568
44.3400 14.7640 0.0740
44.3600 14.7707 0.0654
44.3800 14.7774 0.0587
44.4000 14.7841 0.0752
44.4200 14.7907 0.0636
44.4400 14.7973 0.0606
44.4600 14.8040 0.0779
44.4800 14.8107 0.0586
44.5000 14.8174 0.0637
44.5200 14.8241 0.0747
44.5400 14.8308 0.0575
44.5600 14.8375 0.0615
44.5800 14.8441 0.0784
44.6000 14.8507 0.0631
44.6200 14.8573 0.0597
44.6400 14.8640 0.0745
44.6600 14.8707 0.0635
44.6800 14.8774 0.0656
44.7000 14.8841 0.0685
44.7200 14.8908 0.0638
44.7400 14.8975 0.0659
44.7600 14.9041 0.0717
44.7800 14.9107 0.0658
44.8000 14.9173 0.0703
44.8200 14.9239 0.0673
44.8400 14.9306 0.0667
44.8600 14.9374 0.0684
44.8800 14.9441 0.0719
44.9000 14.9507 0.0685
44.9200 14.9574 0.0648
44.9400 14.9641 0.0692
44.9600 14.9707 0.0684
44.9800 14.9772 0.0669
45.0000 14.9839 0.0744
45.0200 14.9906 0.0708
45.0400 14.9974 0.0634
45.0600 15.0040 0.0711
45.0800 15.0107 0.0712
45.1000 15.0174 0.0628
45.1200 15.0241 0.0717
45.1400 15.0307 0.0729
45.1600 15.0373 0.0664
45.1800 15.0440 0.0782
45.2000 15.0507 0.0662
45.2200 15.0574 0.0653
45.2400 15.0641 0.0756
45.2600 15.0708 0.0698
45.2800 15.0775 0.0695
45.3000 15.0841 0.0738
45.3200 15.0907 0.0597
45.3400 15.0973 0.0693
45.3600 15.1040 0.0788
45.3800 15.1107 0.0632
45.4000 15.1174 0.0727
45.4200 15.1241 0.0719
45.4400 15.1308 0.0651
45.4600 15.1374 0.0709
45.4800 15.1441 0.0723
45.5000 15.1507 0.0610
45.5200 15.1573 0.0761
45.5400 15.1639 0.0790
45.5600 15.1707 0.0594
45.5800 15.1774 0.0629
45.6000 15.1841 0.0757
45.6200 15.1907 0.0711
45.6400 15.1974 0.0694
45.6600 15.2041 0.0701
45.6800 15.2107 0.0685
45.7000 15.2173 0.0642
45.7200 15.2240 0.0819
45.7400 15.2307 0.0681
45.7600 15.2374 0.0649
45.7800 15.2440 0.0760
45.8000 15.2507 0.0649
45.8200 15.2574 0.0658
45.8400 15.2641 0.0822
45.8600 15.2707 0.0654
45.8800 15.2773 0.0692
45.9000 15.2840 0.0808
45.9200 15.2907 0.0616
45.9400 15.2974 0.0734
45.9600 15.3041 0.0801
45.9800 15.3108 0.0627
46.0000 15.3174 0.0728
46.0200 15.3241 0.0776
46.0400 15.3307 0.0628
46.0600 15.3373 0.0798
46.0800 15.3440 0.0732
46.1000 15.3507 0.0668
46.1200 15.3574 0.0756
46.1400 15.3641 0.0680
46.1600 15.3708 0.0700
46.1800 15.3775 0.0775
46.2000 15.3841 0.0653
46.2200 15.3907 0.0699
46.2400 15.3973 0.0726
46.2600 15.4040 0.0690
46.2800 15.4107 0.0775
46.3000 15.4174 0.0672
46.3200 15.4240 0.0690
46.3400 15.4307 0.0771
46.3600 15.4374 0.0690
46.3800 15.4441 0.0672
46.4000 15.4507 0.0756
46.4200 15.4573 0.0682
46.4400 15.4639 0.0715
46.4600 15.4706 0.0744
46.4800 15.4773 0.0695
46.5000 15.4840 0.0720
46.5200 15.4907 0.0739
46.5400 15.4974 0.0655
46.5600 15.5041 0.0759
46.5800 15.5107 0.0711
46.6000 15.5173 0.0622
46.6200 15.5240 0.0745
46.6400 15.5307 0.0722
46.6600 15.5374 0.0626
46.6800 15.5441 0.0697
46.7000 15.5508 0.0744
46.7200 15.5575 0.0655
46.7400 15.5641 0.0738
46.7600 15.5707 0.0681
46.7800 15.5773 0.0684
46.8000 15.5840 0.0771
46.8200 15.5907 0.0733
46.8400 15.5974 0.0657
46.8600 15.6041 0.0727
46.8800 15.6108 0.0627
46.9000 15.6174 0.0687
46.9200 15.6241 0.0782
46.9400 15.6308 0.0638
46.9600 15.6374 0.0637
46.9800 15.6440 0.0773
47.0000 15.6506 0.0659
47.0200 15.6573 0.0709
47.0400 15.6640 0.0721
47.0600 15.6707 0.0639
47.0800 15.6774 0.0713
47.1000 15.6841 0.0638
47.1200 15.6907 0.0651
47.1400 15.6973 0.0732
47.1600 15.7039 0.0625
47.1800 15.7106 0.0674
47.2000 15.7173 0.0729
47.2200 15.7240 0.0596
47.2400 15.7307 0.0707
47.2600 15.7374 0.0751
47.2800 15.7440 0.0598
47.3000 15.7507 0.0654
47.3200 15.7573 0.0751
47.3400 15.7640 0.0640
47.3600 15.7706 0.0700
47.3800 15.7774 0.0681
47.4000 15.7841 0.0625
47.4200 15.7908 0.0732
47.4400 15.7975 0.0688
47.4600 15.8041 0.0601
47.4800 15.8108 0.0681
47.5000 15.8174 0.0729
47.5200 15.8240 0.0653
47.5400 15.8307 0.0715
47.5600 15.8374 0.0674
47.5800 15.8441 0.0614
47.6000 15.8507 0.0715
47.6200 15.8574 0.0686
47.6400 15.8641 0.0636
47.6600 15.8707 0.0710
47.6800 15.8773 0.0649
47.7000 15.8839 0.0681
47.7200 15.8906 0.0676
47.7400 15.8973 0.0702
47.7600 15.9040 0.0642
47.7800 15.9107 0.0701
47.8000 15.9174 0.0677
47.8200 15.9240 0.0657
47.8400 15.9307 0.0742
47.8600 15.9373 0.0733
47.8800 15.9439 0.0645
47.9000 15.9506 0.0714
47.9200 15.9573 0.0747
47.9400 15.9640 0.0706
47.9600 15.9707 0.0673
47.9800 15.9774 0.0751
48.0000 15.9841 0.0717
48.0200 15.9908 0.0677
48.0400 15.9974 0.0750
48.0600 16.0040 0.0662
48.0800 16.0106 0.0751
48.1000 16.0173 0.0730
48.1200 16.0241 0.0658
48.1400 16.0308 0.0774
48.1600 16.0374 0.0746
48.1800 16.0441 0.0641
48.2000 16.0508 0.0761
48.2200 16.0573 0.0747
48.2400 16.0640 0.0682
48.2600 16.0706 0.0780
48.2800 16.0773 0.0743
48.3000 16.0841 0.0704
48.3200 16.0907 0.0806
48.3400 16.0974 0.0690
48.3600 16.1041 0.0702
48.3800 16.1108 0.0798
48.4000 16.1174 0.0704
48.4200 16.1240 0.0714
48.4400 16.1307 0.0781
48.4600 16.1373 0.0762
48.4800 16.1440 0.0712
48.5000 16.1507 0.0809
48.5200 16.1574 0.0724
48.5400 16.1641 0.0734
48.5600 16.1708 0.0757
48.5800 16.1773 0.0739
48.6000 16.1839 0.0732
48.6200 16.1906 0.0755
48.6400 16.1973 0.0771
48.6600 16.2040 0.0749
48.6800 16.2107 0.0731
48.7000 16.2174 0.0797
48.7200 16.2241 0.0717
48.7400 16.2307 0.0739
48.7600 16.2373 0.0808
48.7800 16.2440 0.0738
48.8000 16.2506 0.0772
48.8200 16.2574 0.0781
48.8400 16.2641 0.0716
48.8600 16.2707 0.0740
48.8800 16.2774 0.0806
48.9000 16.2841 0.0668
48.9200 16.2908 0.0766
48.9400 16.2974 0.0824
48.9600 16.3040 0.0706
48.9800 16.3107 0.0798
49.0000 16.3173 0.0843
49.0200 16.3241 0.0656
49.0400 16.3307 0.0764
49.0600 16.3374 0.0779
49.0800 16.3441 0.0705
49.1000 16.3508 0.0798
49.1200 16.3574 0.0791
49.1400 16.3640 0.0733
49.1600 16.3706 0.0821
49.1800 16.3773 0.0775
49.2000 16.3841 0.0743
49.2200 16.3908 0.0779
49.2400 16.3974 0.0728
49.2600 16.4041 0.0763
49.2800 16.4107 0.0783
49.3000 16.4173 0.0757
49.3200 16.4239 0.0742
49.3400 16.4306 0.0813
49.3600 16.4373 0.0737
49.3800 16.4440 0.0733
49.4000 16.4507 0.0799
49.4200 16.4574 0.0748
49.4400 16.4640 0.0742
49.4600 16.4707 0.0795
49.4800 16.4774 0.0746
49.5000 16.4840 0.0809
49.5200 16.4906 0.0716
49.5400 16.4973 0.0775
49.5600 16.5041 0.0793
49.5800 16.5108 0.0749
49.6000 16.5174 0.0783
49.6200 16.5241 0.0761
49.6400 16.5308 0.0733
49.6600 16.5374 0.0827
49.6800 16.5440 0.0787
49.7000 16.5507 0.0755
49.7200 16.5574 0.0835
49.7400 16.5641 0.0754
49.7600 16.5708 0.0739
49.7800 16.5774 0.0822
49.8000 16.5841 0.0793
49.8200 16.5907 0.0763
49.8400 16.5974 0.0862
49.8600 16.6040 0.0779
49.8800 16.6106 0.0768
49.9000 16.6173 0.0845
49.9200 16.6240 0.0782
49.9400 16.6307 0.0760
49.9600 16.6374 0.0866
49.9800 16.6441 0.0784
50.0000 16.6507 0.0802
50.0200 16.6574 0.0850
50.0400 16.6640 0.0725
50.0600 16.6706 0.0845
50.0800 16.6773 0.0876
50.1000 16.6840 0.0725
50.1200 16.6907 0.0893
50.1400 16.6974 0.0867
50.1600 16.7041 0.0711
50.1800 16.7108 0.0824
50.2000 16.7174 0.0859
50.2200 16.7240 0.0772
50.2400 16.7306 0.0851
50.2600 16.7373 0.0840
50.2800 16.7440 0.0718
50.3000 16.7507 0.0925
50.3200 16.7574 0.0839
50.3400 16.7641 0.0786
50.3600 16.7708 0.0918
50.3800 16.7774 0.0801
50.4000 16.7840 0.0833
50.4200 16.7907 0.0881
50.4400 16.7973 0.0813
50.4600 16.8041 0.0834
50.4800 16.8108 0.0854
50.5000 16.8174 0.0836
50.5200 16.8241 0.0886
50.5400 16.8308 0.0868
50.5600 16.8374 0.0821
50.5800 16.8440 0.0903
50.6000 16.8506 0.0890
50.6200 16.8573 0.0833
50.6400 16.8640 0.0948
50.6600 16.8707 0.0791
50.6800 16.8774 0.0875
50.7000 16.8841 0.0918
50.7200 16.8907 0.0822
50.7400 16.8973 0.0897
50.7600 16.9039 0.0922
50.7800 16.9106 0.0854
50.8000 16.9173 0.0861
50.8200 16.9240 0.0924
50.8400 16.9307 0.0838
50.8600 16.9374 0.0876
50.8800 16.9440 0.0897
50.9000 16.9507 0.0855
50.9200 16.9574 0.0893
50.9400 16.9640 0.0897
50.9600 16.9706 0.0841
50.9800 16.9773 0.0892
51.0000 16.9840 0.0888
51.0200 16.9908 0.0874
51.0400 16.9974 0.0871
51.0600 17.0041 0.0887
51.0800 17.0108 0.0887
51.1000 17.0174 0.0864
51.1200 17.0240 0.0877
51.1400 17.0306 0.0938
51.1600 17.0373 0.0811
51.1800 17.0440 0.0908
51.2000 17.0508 0.0882
51.2200 17.0574 0.0825
51.2400 17.0641 0.0933
51.2600 17.0708 0.0920
51.2800 17.0774 0.0801
51.3000 17.0840 0.0957
51.3200 17.0906 0.0945
51.3400 17.0973 0.0791
51.3600 17.1040 0.0942
51.3800 17.1107 0.0911
51.4000 17.1174 0.0810
51.4200 17.1241 0.0967
51.4400 17.1308 0.0902
51.4600 17.1374 0.0785
51.4800 17.1440 0.0968
51.5000 17.1506 0.0843
51.5200 17.1573 0.0821
51.5400 17.1640 0.0986
51.5600 17.1707 0.0837
51.5800 17.1774 0.0787
51.6000 17.1840 0.0952
51.6200 17.1907 0.0841
51.6400 17.1974 0.0832
51.6600 17.2040 0.0933
51.6800 17.2106 0.0881
51.7000 17.2173 0.0839
51.7200 17.2241 0.0879
51.7400 17.2308 0.0920
51.7600 17.2375 0.0816
51.7800 17.2441 0.0896
51.8000 17.2508 0.0878
51.8200 17.2574 0.0851
51.8400 17.2640 0.0907
51.8600 17.2706 0.0886
51.8800 17.2773 0.0844
51.9000 17.2841 0.0953
51.9200 17.2908 0.0860
51.9400 17.2974 0.0888
51.9600 17.3041 0.0940
51.9800 17.3107 0.0888
52.0000 17.3174 0.0844
52.0200 17.3240 0.0943
52.0400 17.3306 0.0914
52.0600 17.3373 0.0851
52.0800 17.3440 0.0941
52.1000 17.3507 0.0918
52.1200 17.3574 0.0840
52.1400 17.3641 0.0971
52.1600 17.3707 0.0960
52.1800 17.3774 0.0843
52.2000 17.3840 0.0947
52.2200 17.3906 0.0956
52.2400 17.3973 0.0850
52.2600 17.4040 0.0983
52.2800 17.4107 0.0968
52.3000 17.4174 0.0797
52.3200 17.4241 0.0954
52.3400 17.4308 0.0985
52.3600 17.4374 0.0839
52.3800 17.4440 0.0985
52.4000 17.4506 0.0980
52.4200 17.4573 0.0809
52.4400 17.4640 0.1006
52.4600 17.4707 0.0968
52.4800 17.4774 0.0866
52.5000 17.4841 0.1001
52.5200 17.4908 0.0948
52.5400 17.4974 0.0798
52.5600 17.5040 0.1036
52.5800 17.5106 0.0967
52.6000 17.5173 0.0822
52.6200 17.5240 0.1059
52.6400 17.5307 0.0915
52.6600 17.5374 0.0894
52.6800 17.5441 0.1030
52.7000 17.5508 0.0920
52.7200 17.5574 0.0886
52.7400 17.5640 0.1042
52.7600 17.5706 0.0935
52.7800 17.5773 0.0941
52.8000 17.5840 0.1030
52.8200 17.5907 0.0885
52.8400 17.5974 0.0944
52.8600 17.6041 0.1007
52.8800 17.6107 0.0874
52.9000 17.6174 0.1001
52.9200 17.6240 0.0944
52.9400 17.6306 0.0940
52.9600 17.6373 0.0981
52.9800 17.6440 0.0930
53.0000 17.6507 0.0923
53.0200 17.6574 0.0951
53.0400 17.6640 0.0958
53.0600 17.6707 0.0983
53.0800 17.6774 0.0955
53.1000 17.6840 0.0867
53.1200 17.6906 0.1019
53.1400 17.6973 0.1009
53.1600 17.7040 0.0888
53.1800 17.7107 0.0961
53.2000 17.7174 0.0956
53.2200 17.7242 0.0898
53.2400 17.7308 0.1009
53.2600 17.7375 0.0956
53.2800 17.7440 0.0916
53.3000 17.7506 0.0993
53.3200 17.7573 0.0960
53.3400 17.7640 0.0873
53.3600 17.7708 0.1045
53.3800 17.7775 0.0934
53.4000 17.7841 0.0896
53.4200 17.7908 0.1034
53.4400 17.7974 0.0922
53.4600 17.8040 0.0923
53.4800 17.8106 0.1049
53.5000 17.8173 0.0952
53.5200 17.8240 0.0933
53.5400 17.8307 0.1062
53.5600 17.8374 0.0911
53.5800 17.8440 0.0966
53.6000 17.8507 0.1048
53.6200 17.8574 0.0914
53.6400 17.8640 0.0975
53.6600 17.8706 0.1039
53.6800 17.8772 0.0933
53.7000 17.8839 0.0978
53.7200 17.8907 0.1025
53.7400 17.8973 0.0929
53.7600 17.9040 0.0975
53.7800 17.9107 0.1005
53.8000 17.9174 0.0949
53.8200 17.9240 0.1001
53.8400 17.9306 0.0973
53.8600 17.9373 0.0952
53.8800 17.9440 0.1010
53.9000 17.9507 0.0980
53.9200 17.9574 0.1024
53.9400 17.9641 0.0969
53.9600 17.9708 0.0942
53.9800 17.9775 0.1005
54.0000 17.9841 0.1002
54.0200 17.9907 0.0963
54.0400 17.9973 0.1018
54.0600 18.0040 0.0964
54.0800 18.0107 0.1032
54.1000 18.0174 0.0995
54.1200 18.0241 0.0940
54.1400 18.0308 0.0998
54.1600 18.0375 0.1013
54.1800 18.0441 0.0950
54.2000 18.0506 0.1023
54.2200 18.0573 0.1027
54.2400 18.0640 0.0961
54.2600 18.0707 0.0997
54.2800 18.0774 0.1016
54.3000 18.0841 0.0917
54.3200 18.0907 0.1041
54.3400 18.0974 0.1024
54.3600 18.1040 0.0941
54.3800 18.1106 0.1034
54.4000 18.1173 0.0970
54.4200 18.1240 0.0984
54.4400 18.1307 0.1059
54.4600 18.1374 0.1002
54.4800 18.1440 0.0960
54.5000 18.1507 0.1029
54.5200 18.1574 0.0982
54.5400 18.1641 0.0967
54.5600 18.1707 0.1027
54.5800 18.1773 0.1022
54.6000 18.1840 0.0981
54.6200 18.1907 0.0978
54.6400 18.1974 0.1027
54.6600 18.2041 0.0987
54.6800 18.2108 0.1000
54.7000 18.2175 0.1053
54.7200 18.2241 0.0947
54.7400 18.2307 0.0970
54.7600 18.2373 0.1069
54.7800 18.2440 0.0964
54.8000 18.2507 0.0961
54.8200 18.2574 0.1028
54.8400 18.2641 0.0987
54.8600 18.2708 0.0969
54.8800 18.2774 0.1096
54.9000 18.2840 0.0915
54.9200 18.2907 0.0982
54.9400 18.2973 0.1112
54.9600 18.3040 0.0916
54.9800 18.3107 0.0999
55.0000 18.3174 0.1065
55.0200 18.3241 0.0903
55.0400 18.3307 0.0996
55.0600 18.3374 0.1066
55.0800 18.3440 0.0904
55.1000 18.3506 0.1033
55.1200 18.3573 0.1079
55.1400 18.3639 0.0896
55.1600 18.3707 0.0985
55.1800 18.3774 0.1084
55.2000 18.3841 0.0921
55.2200 18.3908 0.0978
55.2400 18.3974 0.1026
55.2600 18.4040 0.0918
55.2800 18.4106 0.0950
55.3000 18.4173 0.1075
55.3200 18.4240 0.0939
55.3400 18.4307 0.0967
55.3600 18.4375 0.1070
55.3800 18.4441 0.0889
55.4000 18.4508 0.0937
55.4200 18.4574 0.1099
55.4400 18.4641 0.0906
55.4600 18.4707 0.0946
55.4800 18.4773 0.1073
55.5000 18.4840 0.0952
55.5200 18.4907 0.0952
55.5400 18.4974 0.1031
55.5600 18.5041 0.0936
55.5800 18.5107 0.0966
55.6000 18.5174 0.1054
55.6200 18.5241 0.0873
55.6400 18.5306 0.0940
55.6600 18.5373 0.1059
55.6800 18.5439 0.0897
55.7000 18.5507 0.0924
55.7200 18.5574 0.1064
55.7400 18.5640 0.0929
55.7600 18.5707 0.0912
55.7800 18.5774 0.1013
55.8000 18.5841 0.0949
55.8200 18.5907 0.0928
55.8400 18.5973 0.1045
55.8600 18.6040 0.0916
55.8800 18.6107 0.0975
55.9000 18.6174 0.1085
55.9200 18.6241 0.0904
55.9400 18.6307 0.0960
55.9600 18.6374 0.1057
55.9800 18.6440 0.0901
56.0000 18.6507 0.0959
56.0200 18.6573 0.1044
56.0400 18.6640 0.0935
56.0600 18.6707 0.0975
56.0800 18.6774 0.1020
56.1000 18.6841 0.0955
56.1200 18.6908 0.0960
56.1400 18.6975 0.1070
56.1600 18.7041 0.0895
56.1800 18.7107 0.0979
56.2000 18.7173 0.1079
56.2200 18.7240 0.0966
56.2400 18.7307 0.0944
56.2600 18.7374 0.1074
56.2800 18.7441 0.0956
56.3000 18.7508 0.0965
56.3200 18.7575 0.1058
56.3400 18.7641 0.0962
56.3600 18.7707 0.0970
56.3800 18.7773 0.1092
56.4000 18.7840 0.0986
56.4200 18.7907 0.0975
56.4400 18.7974 0.1122
56.4600 18.8041 0.0986
56.4800 18.8107 0.0942
56.5000 18.8174 0.1137
56.5200 18.8240 0.1031
56.5400 18.8306 0.0974
56.5600 18.8373 0.1162
56.5800 18.8439 0.1008
56.6000 18.8507 0.1018
56.6200 18.8574 0.1175
56.6400 18.8640 0.0972
56.6600 18.8707 0.0992
56.6800 18.8774 0.1144
56.7000 18.8841 0.1019
56.7200 18.8907 0.1035
56.7400 18.8973 0.1171
56.7600 18.9040 0.1042
56.7800 18.9107 0.1026
56.8000 18.9174 0.1126
56.8200 18.9241 0.1088
56.8400 18.9308 0.1091
56.8600 18.9375 0.1132
56.8800 18.9441 0.1059
56.9000 18.9507 0.1099
56.9200 18.9573 0.1128
56.9400 18.9640 0.1090
56.9600 18.9707 0.1082
56.9800 18.9774 0.1174
57.0000 18.9841 0.1072
57.0200 18.9908 0.1094
57.0400 18.9974 0.1164
57.0600 19.0041 0.1130
57.0800 19.0107 0.1044
57.1000 19.0173 0.1156
57.1200 19.0240 0.1153
57.1400 19.0307 0.1082
57.1600 19.0374 0.1184
57.1800 19.0441 0.1156
57.2000 19.0507 0.1088
57.2200 19.0574 0.1189
57.2400 19.0641 0.1182
57.2600 19.0707 0.1098
57.2800 19.0773 0.1184
57.3000 19.0839 0.1186
57.3200 19.0906 0.1107
57.3400 19.0973 0.1183
57.3600 19.1040 0.1190
57.3800 19.1107 0.1084
57.4000 19.1174 0.1190
57.4200 19.1240 0.1161
57.4400 19.1307 0.1080
57.4600 19.1373 0.1205
57.4800 19.1440 0.1162
57.5000 19.1507 0.1015
57.5200 19.1574 0.1225
57.5400 19.1641 0.1138
57.5600 19.1708 0.1086
57.5800 19.1775 0.1190
57.6000 19.1841 0.1130
57.6200 19.1907 0.1138
57.6400 19.1974 0.1164
57.6600 19.2040 0.1145
57.6800 19.2107 0.1139
57.7000 19.2174 0.1140
57.7200 19.2241 0.1122
57.7400 19.2308 0.1148
57.7600 19.2375 0.1163
57.7800 19.2441 0.1121
57.8000 19.2507 0.1120
57.8200 19.2573 0.1187
57.8400 19.2639 0.1137
57.8600 19.2706 0.1154
57.8800 19.2774 0.1139
57.9000 19.2840 0.1188
57.9200 19.2907 0.1181
57.9400 19.2974 0.1091
57.9600 19.3040 0.1110
57.9800 19.3106 0.1224
58.0000 19.3173 0.1180
58.0200 19.3240 0.1039
58.0400 19.3307 0.1214
58.0600 19.3374 0.1195
58.0800 19.3441 0.1057
58.1000 19.3507 0.1150
58.1200 19.3574 0.1238
58.1400 19.3641 0.1067
58.1600 19.3707 0.1086
58.1800 19.3773 0.1105
58.2000 19.3840 0.1220
58.2200 19.3907 0.1124
58.2400 19.3974 0.1011
58.2600 19.4041 0.1212
58.2800 19.4108 0.1236
58.3000 19.4175 0.0983
58.3200 19.4241 0.1133
58.3400 19.4307 0.1225
58.3600 19.4373 0.1047
58.3800 19.4439 0.1138
58.4000 19.4507 0.1164
58.4200 19.4574 0.1057
58.4400 19.4641 0.1170
58.4600 19.4708 0.1093
58.4800 19.4774 0.1051
58.5000 19.4841 0.1215
58.5200 19.4907 0.1074
58.5400 19.4973 0.1062
58.5600 19.5039 0.1209
58.5800 19.5107 0.1055
58.6000 19.5174 0.1074
58.6200 19.5241 0.1192
58.6400 19.5307 0.1013
58.6600 19.5374 0.1129
58.6800 19.5441 0.1172
58.7000 19.5507 0.0990
58.7200 19.5573 0.1083
58.7400 19.5639 0.1241
58.7600 19.5706 0.1029
58.7800 19.5773 0.1041
58.8000 19.5840 0.1147
58.8200 19.5907 0.1147
58.8400 19.5974 0.1033
58.8600 19.6041 0.1104
58.8800 19.6107 0.1153
58.9000 19.6173 0.1077
58.9200 19.6239 0.1096
58.9400 19.6307 0.1109
58.9600 19.6374 0.1109
58.9800 19.6441 0.1164
59.0000 19.6508 0.1158
59.0200 19.6574 0.1073
59.0400 19.6641 0.1147
59.0600 19.6707 0.1152
59.0800 19.6773 0.1076
59.1000 19.6840 0.1148
59.1200 19.6907 0.1192
59.1400 19.6974 0.1096
59.1600 19.7041 0.1152
59.1800 19.7108 0.1126
59.2000 19.7174 0.1158
59.2200 19.7241 0.1146
59.2400 19.7307 0.1139
59.2600 19.7373 0.1166
59.2800 19.7440 0.1200
59.3000 19.7506 0.1234
59.3200 19.7574 0.1155
59.3400 19.7641 0.1172
59.3600 19.7708 0.1191
59.3800 19.7774 0.1209
59.4000 19.7841 0.1117
59.4200 19.7907 0.1193
59.4400 19.7973 0.1242
59.4600 19.8039 0.1193
59.4800 19.8106 0.1206
59.5000 19.8173 0.1253
59.5200 19.8240 0.1158
59.5400 19.8307 0.1274
59.5600 19.8374 0.1201
59.5800 19.8441 0.1162
59.6000 19.8507 0.1312
59.6200 19.8573 0.1234
59.6400 19.8640 0.1120
59.6600 19.8707 0.1305
59.6800 19.8774 0.1259
59.7000 19.8841 0.1142
59.7200 19.8908 0.1326
59.7400 19.8975 0.1182
59.7600 19.9041 0.1180
59.7800 19.9108 0.1361
59.8000 19.9174 0.1129
59.8200 19.9240 0.1247
59.8400 19.9307 0.1383
59.8600 19.9374 0.1104
59.8800 19.9441 0.1271
59.9000 19.9508 0.1360
59.9200 19.9574 0.1126
59.9400 19.9641 0.1238
59.9600 19.9707 0.1354
59.9800 19.9773 0.1127
60.0000 19.9839 0.1362
60.0200 19.9906 0.1346
60.0400 19.9974 0.1082
60.0490 20.0003 0.1078
