Raw Data
Time Displacement Force
(s) (mm) (N)
0.0000 0.0000 -0.0067
0.0200 0.0000 0.0052
0.0400 0.0009 0.0437
0.0600 0.0044 0.0342
0.0800 0.0099 -0.0071
0.1000 0.0157 0.0021
0.1200 0.0217 0.0176
0.1400 0.0284 0.0073
0.1600 0.0358 0.0039
0.1800 0.0432 0.0031
0.2000 0.0504 -0.0122
0.2200 0.0573 0.0054
0.2400 0.0640 0.0088
0.2600 0.0706 -0.0058
0.2800 0.0773 0.0098
0.3000 0.0839 0.0051
0.3200 0.0906 -0.0071
0.3400 0.0973 0.0219
0.3600 0.1040 -0.0003
0.3800 0.1107 -0.0029
0.4000 0.1174 0.0192
0.4200 0.1241 -0.0002
0.4400 0.1308 -0.0001
0.4600 0.1374 0.0172
0.4800 0.1440 0.0016
0.5000 0.1506 0.0061
0.5200 0.1573 0.0133
0.5400 0.1640 -0.0007
0.5600 0.1707 0.0097
0.5800 0.1774 0.0179
0.6000 0.1841 -0.0018
0.6200 0.1908 0.0066
0.6400 0.1974 0.0208
0.6600 0.2040 -0.0019
0.6800 0.2106 0.0143
0.7000 0.2173 0.0147
0.7200 0.2240 0.0068
0.7400 0.2307 0.0094
0.7600 0.2374 0.0127
0.7800 0.2440 0.0129
0.8000 0.2507 0.0100
0.8200 0.2574 0.0064
0.8400 0.2640 0.0114
0.8600 0.2706 0.0140
0.8800 0.2773 0.0110
0.9000 0.2840 0.0075
0.9200 0.2907 0.0140
0.9400 0.2973 0.0122
0.9600 0.3040 0.0126
0.9800 0.3107 0.0087
1.0000 0.3174 0.0126
1.0200 0.3240 0.0118
1.0400 0.3306 0.0062
1.0600 0.3373 0.0198
1.0800 0.3440 0.0118
1.1000 0.3507 0.0074
1.1200 0.3574 0.0057
1.1400 0.3641 0.0178
1.1600 0.3708 0.0096
1.1800 0.3774 0.0081
1.2000 0.3841 0.0130
1.2200 0.3907 0.0059
1.2400 0.3973 0.0124
1.2600 0.4040 0.0140
1.2800 0.4107 0.0036
1.3000 0.4174 0.0157
1.3200 0.4241 0.0195
1.3400 0.4307 0.0008
1.3600 0.4374 0.0094
1.3800 0.4440 0.0167
1.4000 0.4506 0.0038
1.4200 0.4573 0.0128
1.4400 0.4639 0.0189
1.4600 0.4707 -0.0009
1.4800 0.4774 0.0149
1.5000 0.4841 0.0200
1.5200 0.4907 0.0017
1.5400 0.4974 0.0140
1.5600 0.5040 0.0140
1.5800 0.5106 0.0014
1.6000 0.5172 0.0201
1.6200 0.5239 0.0159
1.6400 0.5306 0.0011
1.6600 0.5373 0.0146
1.6800 0.5440 0.0125
1.7000 0.5507 0.0037
1.7200 0.5574 0.0241
1.7400 0.5640 0.0090
1.7600 0.5706 -0.0021
1.7800 0.5773 0.0227
1.8000 0.5840 0.0126
1.8200 0.5907 -0.0022
1.8400 0.5974 0.0233
1.8600 0.6041 0.0118
1.8800 0.6108 -0.0042
1.9000 0.6174 0.0217
1.9200 0.6241 0.0093
1.9400 0.6307 0.0042
1.9600 0.6373 0.0219
1.9800 0.6440 0.0056
2.0000 0.6507 0.0053
2.0200 0.6574 0.0230
2.0400 0.6641 0.0093
2.0600 0.6707 0.0067
2.0800 0.6774 0.0123
2.1000 0.6840 0.0149
2.1200 0.6906 0.0063
2.1400 0.6973 0.0177
2.1600 0.7040 0.0129
2.1800 0.7107 0.0074
2.2000 0.7174 0.0096
2.2200 0.7240 0.0127
2.2400 0.7307 0.0140
2.2600 0.7374 0.0084
2.2800 0.7440 0.0141
2.3000 0.7506 0.0119
2.3200 0.7573 0.0083
2.3400 0.7640 0.0152
2.3600 0.7707 0.0145
2.3800 0.7774 0.0049
2.4000 0.7840 0.0206
2.4200 0.7907 0.0097
2.4400 0.7974 0.0102
2.4600 0.8040 0.0186
2.4800 0.8107 0.0138
2.5000 0.8173 0.0109
2.5200 0.8240 0.0229
2.5400 0.8307 0.0103
2.5600 0.8374 0.0103
2.5800 0.8441 0.0191
2.6000 0.8508 0.0150
2.6200 0.8574 0.0066
2.6400 0.8641 0.0217
2.6600 0.8707 0.0093
2.6800 0.8773 0.0126
2.7000 0.8840 0.0219
2.7200 0.8907 0.0077
2.7400 0.8974 0.0125
2.7600 0.9041 0.0163
2.7800 0.9108 0.0116
2.8000 0.9174 0.0121
2.8200 0.9241 0.0180
2.8400 0.9307 0.0090
2.8600 0.9373 0.0163
2.8800 0.9440 0.0152
2.9000 0.9507 0.0090
2.9200 0.9574 0.0141
2.9400 0.9640 0.0183
2.9600 0.9707 0.0113
2.9800 0.9774 0.0090
3.0000 0.9840 0.0140
3.0200 0.9906 0.0142
3.0400 0.9973 0.0087
3.0600 1.0039 0.0157
3.0800 1.0106 0.0122
3.1000 1.0173 0.0064
3.1200 1.0240 0.0191
3.1400 1.0307 0.0172
3.1600 1.0374 0.0062
3.1800 1.0440 0.0162
3.2000 1.0507 0.0166
3.2200 1.0573 0.0075
3.2400 1.0640 0.0224
3.2600 1.0707 0.0129
3.2800 1.0774 0.0076
3.3000 1.0841 0.0151
3.3200 1.0908 0.0130
3.3400 1.0974 0.0089
3.3600 1.1041 0.0170
3.3800 1.1107 0.0092
3.4000 1.1173 0.0064
3.4200 1.1240 0.0170
3.4400 1.1307 0.0153
3.4600 1.1374 0.0071
3.4800 1.1441 0.0148
3.5000 1.1508 0.0111
3.5200 1.1574 0.0098
3.5400 1.1641 0.0173
3.5600 1.1707 0.0149
3.5800 1.1773 0.0139
3.6000 1.1839 0.0111
3.6200 1.1906 0.0193
3.6400 1.1974 0.0083
3.6600 1.2041 0.0104
3.6800 1.2107 0.0209
3.7000 1.2174 0.0076
3.7200 1.2241 0.0085
3.7400 1.2307 0.0238
3.7600 1.2373 0.0096
3.7800 1.2439 0.0116
3.8000 1.2506 0.0224
3.8200 1.2574 0.0148
3.8400 1.2640 0.0085
3.8600 1.2707 0.0251
3.8800 1.2774 0.0064
3.9000 1.2840 0.0141
3.9200 1.2907 0.0301
3.9400 1.2973 0.0072
3.9600 1.3040 0.0144
3.9800 1.3107 0.0272
4.0000 1.3174 0.0070
4.0200 1.3241 0.0146
4.0400 1.3308 0.0291
4.0600 1.3375 0.0069
4.0800 1.3441 0.0177
4.1000 1.3507 0.0259
4.1200 1.3573 0.0082
4.1400 1.3640 0.0207
4.1600 1.3707 0.0210
4.1800 1.3774 0.0098
4.2000 1.3841 0.0191
4.2200 1.3908 0.0195
4.2400 1.3974 0.0138
4.2600 1.4041 0.0186
4.2800 1.4107 0.0249
4.3000 1.4173 0.0099
4.3200 1.4240 0.0152
4.3400 1.4307 0.0281
4.3600 1.4373 0.0125
4.3800 1.4440 0.0128
4.4000 1.4507 0.0233
4.4200 1.4574 0.0162
4.4400 1.4640 0.0146
4.4600 1.4707 0.0228
4.4800 1.4773 0.0131
4.5000 1.4839 0.0192
4.5200 1.4906 0.0248
4.5400 1.4973 0.0123
4.5600 1.5040 0.0185
4.5800 1.5107 0.0255
4.6000 1.5175 0.0037
4.6200 1.5241 0.0178
4.6400 1.5307 0.0243
4.6600 1.5373 0.0073
4.6800 1.5440 0.0120
4.7000 1.5507 0.0292
4.7200 1.5574 0.0070
4.7400 1.5641 0.0149
4.7600 1.5708 0.0333
4.7800 1.5774 0.0026
4.8000 1.5841 0.0125
4.8200 1.5907 0.0293
4.8400 1.5973 0.0101
4.8600 1.6040 0.0139
4.8800 1.6107 0.0256
4.9000 1.6173 0.0086
4.9200 1.6240 0.0153
4.9400 1.6307 0.0239
4.9600 1.6374 0.0115
4.9800 1.6441 0.0179
5.0000 1.6507 0.0238
5.0200 1.6573 0.0084
5.0400 1.6640 0.0185
5.0600 1.6707 0.0181
5.0800 1.6773 0.0146
5.1000 1.6840 0.0153
5.1200 1.6907 0.0162
5.1400 1.6974 0.0187
5.1600 1.7041 0.0182
5.1800 1.7107 0.0141
5.2000 1.7173 0.0203
5.2200 1.7239 0.0148
5.2400 1.7306 0.0160
5.2600 1.7374 0.0161
5.2800 1.7441 0.0153
5.3000 1.7507 0.0167
5.3200 1.7574 0.0172
5.3400 1.7640 0.0137
5.3600 1.7707 0.0170
5.3800 1.7773 0.0173
5.4000 1.7840 0.0148
5.4200 1.7906 0.0192
5.4400 1.7973 0.0138
5.4600 1.8040 0.0118
5.4800 1.8107 0.0217
5.5000 1.8174 0.0164
5.5200 1.8241 0.0072
5.5400 1.8307 0.0237
5.5600 1.8374 0.0152
5.5800 1.8440 0.0047
5.6000 1.8507 0.0284
5.6200 1.8574 0.0190
5.6400 1.8641 0.0003
5.6600 1.8707 0.0283
5.6800 1.8774 0.0216
5.7000 1.8841 0.0016
5.7200 1.8907 0.0251
5.7400 1.8973 0.0204
5.7600 1.9039 0.0043
5.7800 1.9107 0.0253
5.8000 1.9174 0.0140
5.8200 1.9241 0.0001
5.8400 1.9307 0.0342
5.8600 1.9374 0.0131
5.8800 1.9441 -0.0023
5.9000 1.9507 0.0299
5.9200 1.9573 0.0163
5.9400 1.9639 0.0021
5.9600 1.9706 0.0323
5.9800 1.9773 0.0138
6.0000 1.9840 0.0045
6.0200 1.9907 0.0340
6.0400 1.9974 0.0098
6.0600 2.0041 -0.0017
6.0800 2.0107 0.0328
6.1000 2.0173 0.0188
6.1200 2.0240 -0.0006
6.1400 2.0306 0.0201
6.1600 2.0374 0.0263
6.1800 2.0441 0.0091
6.2000 2.0508 0.0102
6.2200 2.0575 0.0212
6.2400 2.0641 0.0141
6.2600 2.0707 0.0095
6.2800 2.0773 0.0187
6.3000 2.0840 0.0142
6.3200 2.0907 0.0165
6.3400 2.0974 0.0237
6.3600 2.1041 0.0004
6.3800 2.1108 0.0088
6.4000 2.1174 0.0328
6.4200 2.1241 0.0115
6.4400 2.1307 -0.0053
6.4600 2.1373 0.0305
6.4800 2.1440 0.0225
6.5000 2.1506 0.0023
6.5200 2.1573 0.0190
6.5400 2.1640 0.0161
6.5600 2.1707 0.0174
6.5800 2.1774 0.0139
6.6000 2.1841 -0.0009
6.6200 2.1907 0.0247
6.6400 2.1973 0.0238
6.6600 2.2039 -0.0016
6.6800 2.2106 0.0239
6.7000 2.2173 0.0242
6.7200 2.2240 0.0000
6.7400 2.2307 0.0195
6.7600 2.2374 0.0186
6.7800 2.2441 0.0051
6.8000 2.2507 0.0252
6.8200 2.2573 0.0098
6.8400 2.2640 0.0076
6.8600 2.2707 0.0237
6.8800 2.2774 0.0185
6.9000 2.2841 0.0029
6.9200 2.2907 0.0153
6.9400 2.2974 0.0227
6.9600 2.3041 0.0079
6.9800 2.3108 0.0103
7.0000 2.3174 0.0206
7.0200 2.3240 0.0089
7.0400 2.3307 0.0146
7.0600 2.3374 0.0198
7.0800 2.3441 0.0063
7.1000 2.3507 0.0178
7.1200 2.3574 0.0193
7.1400 2.3641 0.0022
7.1600 2.3708 0.0175
7.1800 2.3774 0.0222
7.2000 2.3840 -0.0011
7.2200 2.3906 0.0212
7.2400 2.3973 0.0164
7.2600 2.4040 0.0055
7.2800 2.4107 0.0240
7.3000 2.4174 0.0113
7.3200 2.4241 0.0061
7.3400 2.4307 0.0208
7.3600 2.4373 0.0168
7.3800 2.4439 0.0108
7.4000 2.4506 0.0204
7.4200 2.4573 0.0146
7.4400 2.4640 0.0111
7.4600 2.4707 0.0209
7.4800 2.4774 0.0096
7.5000 2.4840 0.0189
7.5200 2.4907 0.0214
7.5400 2.4973 0.0056
7.5600 2.5039 0.0191
7.5800 2.5106 0.0244
7.6000 2.5173 0.0113
7.6200 2.5241 0.0105
7.6400 2.5308 0.0277
7.6600 2.5374 0.0109
7.6800 2.5441 0.0148
7.7000 2.5508 0.0240
7.7200 2.5574 0.0172
7.7400 2.5640 0.0180
7.7600 2.5706 0.0213
7.7800 2.5774 0.0134
7.8000 2.5841 0.0189
7.8200 2.5907 0.0248
7.8400 2.5974 0.0152
7.8600 2.6041 0.0173
7.8800 2.6107 0.0237
7.9000 2.6173 0.0178
7.9200 2.6239 0.0181
7.9400 2.6306 0.0282
7.9600 2.6373 0.0174
7.9800 2.6440 0.0163
8.0000 2.6507 0.0258
8.0200 2.6574 0.0207
8.0400 2.6641 0.0137
8.0600 2.6707 0.0180
8.0800 2.6774 0.0219
8.1000 2.6840 0.0200
8.1200 2.6906 0.0200
8.1400 2.6973 0.0253
8.1600 2.7040 0.0193
8.1800 2.7107 0.0184
8.2000 2.7173 0.0257
8.2200 2.7240 0.0234
8.2400 2.7307 0.0161
8.2600 2.7373 0.0226
8.2800 2.7439 0.0211
8.3000 2.7506 0.0193
8.3200 2.7573 0.0281
8.3400 2.7641 0.0206
8.3600 2.7707 0.0168
8.3800 2.7774 0.0241
8.4000 2.7841 0.0175
8.4200 2.7907 0.0159
8.4400 2.7973 0.0278
8.4600 2.8040 0.0141
8.4800 2.8106 0.0173
8.5000 2.8174 0.0246
8.5200 2.8241 0.0168
8.5400 2.8308 0.0154
8.5600 2.8374 0.0227
8.5800 2.8441 0.0196
8.6000 2.8507 0.0154
8.6200 2.8573 0.0237
8.6400 2.8640 0.0220
8.6600 2.8706 0.0232
8.6800 2.8773 0.0178
8.7000 2.8840 0.0150
8.7200 2.8907 0.0215
8.7400 2.8974 0.0186
8.7600 2.9041 0.0153
8.7800 2.9107 0.0240
8.8000 2.9173 0.0170
8.8200 2.9239 0.0185
8.8400 2.9306 0.0213
8.8600 2.9373 0.0163
8.8800 2.9440 0.0205
8.9000 2.9507 0.0162
8.9200 2.9574 0.0116
8.9400 2.9641 0.0244
8.9600 2.9707 0.0136
8.9800 2.9774 0.0129
9.0000 2.9840 0.0231
9.0200 2.9906 0.0158
9.0400 2.9973 0.0115
9.0600 3.0040 0.0214
9.0800 3.0107 0.0136
9.1000 3.0174 0.0168
9.1200 3.0241 0.0207
9.1400 3.0308 0.0095
9.1600 3.0374 0.0164
9.1800 3.0440 0.0163
9.2000 3.0506 0.0133
9.2200 3.0573 0.0199
9.2400 3.0640 0.0211
9.2600 3.0707 0.0055
9.2800 3.0774 0.0178
9.3000 3.0841 0.0134
9.3200 3.0908 0.0155
9.3400 3.0974 0.0159
9.3600 3.1040 0.0125
9.3800 3.1106 0.0118
9.4000 3.1174 0.0184
9.4200 3.1241 0.0109
9.4400 3.1308 0.0139
9.4600 3.1374 0.0167
9.4800 3.1441 0.0160
9.5000 3.1507 0.0111
9.5200 3.1574 0.0137
9.5400 3.1640 0.0141
9.5600 3.1706 0.0163
9.5800 3.1773 0.0109
9.6000 3.1840 0.0147
9.6200 3.1907 0.0154
9.6400 3.1974 0.0085
9.6600 3.2040 0.0163
9.6800 3.2107 0.0146
9.7000 3.2173 0.0116
9.7200 3.2239 0.0170
9.7400 3.2306 0.0091
9.7600 3.2373 0.0097
9.7800 3.2440 0.0222
9.8000 3.2507 0.0103
9.8200 3.2575 0.0083
9.8400 3.2642 0.0207
9.8600 3.2708 0.0125
9.8800 3.2774 0.0066
9.9000 3.2840 0.0226
9.9200 3.2906 0.0123
9.9400 3.2974 0.0099
9.9600 3.3041 0.0222
9.9800 3.3108 0.0056
10.0000 3.3174 0.0126
10.0200 3.3241 0.0227
10.0400 3.3308 0.0072
10.0600 3.3374 0.0085
10.0800 3.3440 0.0239
10.1000 3.3506 0.0089
10.1200 3.3573 0.0113
10.1400 3.3640 0.0194
10.1600 3.3707 0.0089
10.1800 3.3774 0.0099
10.2000 3.3841 0.0222
10.2200 3.3907 0.0105
10.2400 3.3974 0.0106
10.2600 3.4039 0.0167
10.2800 3.4106 0.0144
10.3000 3.4173 0.0143
10.3200 3.4240 0.0169
10.3400 3.4307 0.0146
10.3600 3.4374 0.0161
10.3800 3.4441 0.0103
10.4000 3.4507 0.0156
10.4200 3.4573 0.0131
10.4400 3.4640 0.0111
10.4600 3.4706 0.0202
10.4800 3.4773 0.0118
10.5000 3.4841 0.0121
10.5200 3.4908 0.0164
10.5400 3.4974 0.0075
10.5600 3.5041 0.0112
10.5800 3.5108 0.0275
10.6000 3.5174 0.0036
10.6200 3.5240 0.0104
10.6400 3.5307 0.0271
10.6600 3.5373 0.0065
10.6800 3.5440 0.0090
10.7000 3.5507 0.0261
10.7200 3.5574 0.0046
10.7400 3.5641 0.0130
10.7600 3.5708 0.0263
10.7800 3.5774 -0.0009
10.8000 3.5840 0.0127
10.8200 3.5906 0.0293
10.8400 3.5973 -0.0054
10.8600 3.6040 0.0162
10.8800 3.6107 0.0239
10.9000 3.6174 0.0010
10.9200 3.6241 0.0214
10.9400 3.6307 0.0198
10.9600 3.6374 0.0009
10.9800 3.6440 0.0205
11.0000 3.6506 0.0252
11.0200 3.6573 -0.0049
11.0400 3.6640 0.0221
11.0600 3.6707 0.0179
11.0800 3.6773 -0.0020
11.1000 3.6840 0.0228
11.1200 3.6907 0.0150
11.1400 3.6974 0.0004
11.1600 3.7040 0.0212
11.1800 3.7107 0.0204
11.2000 3.7173 0.0053
11.2200 3.7240 0.0217
11.2400 3.7307 0.0156
11.2600 3.7374 0.0057
11.2800 3.7441 0.0213
11.3000 3.7508 0.0154
11.3200 3.7574 0.0068
11.3400 3.7640 0.0228
11.3600 3.7706 0.0148
11.3800 3.7773 0.0111
11.4000 3.7840 0.0199
11.4200 3.7908 0.0138
11.4400 3.7974 0.0103
11.4600 3.8041 0.0239
11.4800 3.8108 0.0097
11.5000 3.8174 0.0133
11.5200 3.8240 0.0188
11.5400 3.8307 0.0159
11.5600 3.8373 0.0124
11.5800 3.8441 0.0177
11.6000 3.8507 0.0191
11.6200 3.8574 0.0127
11.6400 3.8641 0.0166
11.6600 3.8707 0.0180
11.6800 3.8774 0.0143
11.7000 3.8840 0.0132
11.7200 3.8906 0.0244
11.7400 3.8972 0.0168
11.7600 3.9040 0.0138
11.7800 3.9107 0.0249
11.8000 3.9174 0.0104
11.8200 3.9241 0.0115
11.8400 3.9307 0.0290
11.8600 3.9374 0.0136
11.8800 3.9440 0.0089
11.9000 3.9506 0.0264
11.9200 3.9573 0.0175
11.9400 3.9640 0.0086
11.9600 3.9707 0.0290
11.9800 3.9774 0.0148
12.0000 3.9841 0.0147
12.0200 3.9908 0.0257
12.0400 3.9974 0.0118
12.0600 4.0040 0.0163
12.0800 4.0106 0.0253
12.1000 4.0173 0.0154
12.1200 4.0241 0.0180
12.1400 4.0308 0.0220
12.1600 4.0374 0.0135
12.1800 4.0441 0.0213
12.2000 4.0508 0.0200
12.2200 4.0574 0.0132
12.2400 4.0640 0.0241
12.2600 4.0706 0.0209
12.2800 4.0773 0.0051
12.3000 4.0840 0.0254
12.3200 4.0907 0.0195
12.3400 4.0974 0.0118
12.3600 4.1041 0.0208
12.3800 4.1108 0.0203
12.4000 4.1174 0.0148
12.4200 4.1240 0.0196
12.4400 4.1306 0.0148
12.4600 4.1373 0.0264
12.4800 4.1440 0.0185
12.5000 4.1507 0.0128
12.5200 4.1574 0.0237
12.5400 4.1640 0.0182
12.5600 4.1707 0.0168
12.5800 4.1774 0.0275
12.6000 4.1840 0.0157
12.6200 4.1906 0.0178
12.6400 4.1973 0.0318
12.6600 4.2040 0.0133
12.6800 4.2107 0.0234
12.7000 4.2174 0.0310
12.7200 4.2241 0.0100
12.7400 4.2308 0.0226
12.7600 4.2374 0.0296
12.7800 4.2440 0.0099
12.8000 4.2506 0.0224
12.8200 4.2573 0.0287
12.8400 4.2640 0.0142
12.8600 4.2707 0.0229
12.8800 4.2774 0.0245
12.9000 4.2841 0.0127
12.9200 4.2908 0.0306
12.9400 4.2974 0.0183
12.9600 4.3040 0.0175
12.9800 4.3106 0.0334
13.0000 4.3173 0.0174
13.0200 4.3240 0.0181
13.0400 4.3307 0.0308
13.0600 4.3374 0.0188
13.0800 4.3441 0.0149
13.1000 4.3507 0.0325
13.1200 4.3574 0.0143
13.1400 4.3640 0.0223
13.1600 4.3706 0.0330
13.1800 4.3773 0.0135
13.2000 4.3840 0.0257
13.2200 4.3907 0.0260
13.2400 4.3973 0.0158
13.2600 4.4040 0.0261
13.2800 4.4107 0.0227
13.3000 4.4174 0.0222
13.3200 4.4240 0.0207
13.3400 4.4306 0.0264
13.3600 4.4373 0.0241
13.3800 4.4440 0.0211
13.4000 4.4507 0.0219
13.4200 4.4574 0.0239
13.4400 4.4641 0.0193
13.4600 4.4708 0.0181
13.4800 4.4774 0.0299
13.5000 4.4840 0.0150
13.5200 4.4906 0.0182
13.5400 4.4973 0.0295
13.5600 4.5040 0.0156
13.5800 4.5107 0.0221
13.6000 4.5174 0.0325
13.6200 4.5241 0.0098
13.6400 4.5307 0.0175
13.6600 4.5374 0.0332
13.6800 4.5440 0.0193
13.7000 4.5506 0.0148
13.7200 4.5573 0.0344
13.7400 4.5640 0.0148
13.7600 4.5707 0.0121
13.7800 4.5774 0.0321
13.8000 4.5841 0.0271
13.8200 4.5908 0.0122
13.8400 4.5974 0.0306
13.8600 4.6040 0.0211
13.8800 4.6106 0.0119
13.9000 4.6172 0.0472
13.9200 4.6239 0.0118
13.9400 4.6307 0.0066
13.9600 4.6374 0.0534
13.9800 4.6440 0.0147
14.0000 4.6507 0.0041
14.0200 4.6573 0.0500
14.0400 4.6640 0.0151
14.0600 4.6706 0.0103
14.0800 4.6773 0.0446
14.1000 4.6840 0.0133
14.1200 4.6907 0.0084
14.1400 4.6974 0.0463
14.1600 4.7041 0.0126
14.1800 4.7108 0.0101
14.2000 4.7174 0.0509
14.2200 4.7241 0.0073
14.2400 4.7307 0.0077
14.2600 4.7374 0.0500
14.2800 4.7441 0.0153
14.3000 4.7507 0.0110
14.3200 4.7574 0.0408
14.3400 4.7641 0.0084
14.3600 4.7708 0.0188
14.3800 4.7774 0.0400
14.4000 4.7840 0.0025
14.4200 4.7906 0.0263
14.4400 4.7973 0.0400
14.4600 4.8040 0.0000
14.4800 4.8107 0.0325
14.5000 4.8174 0.0342
14.5200 4.8240 0.0055
14.5400 4.8307 0.0271
14.5600 4.8374 0.0316
14.5800 4.8440 0.0106
14.6000 4.8506 0.0232
14.6200 4.8573 0.0265
14.6400 4.8640 0.0196
14.6600 4.8707 0.0232
14.6800 4.8774 0.0207
14.7000 4.8840 0.0218
14.7200 4.8907 0.0246
14.7400 4.8974 0.0169
14.7600 4.9041 0.0193
14.7800 4.9107 0.0289
14.8000 4.9173 0.0152
14.8200 4.9240 0.0204
14.8400 4.9307 0.0216
14.8600 4.9374 0.0245
14.8800 4.9441 0.0228
14.9000 4.9508 0.0141
14.9200 4.9574 0.0289
14.9400 4.9641 0.0246
14.9600 4.9707 0.0055
14.9800 4.9773 0.0303
15.0000 4.9840 0.0266
15.0200 4.9907 0.0070
15.0400 4.9974 0.0285
15.0600 5.0041 0.0272
15.0800 5.0108 0.0092
15.1000 5.0174 0.0299
15.1200 5.0240 0.0234
15.1400 5.0306 0.0076
15.1600 5.0373 0.0326
15.1800 5.0440 0.0245
15.2000 5.0507 0.0052
15.2200 5.0574 0.0343
15.2400 5.0640 0.0263
15.2600 5.0707 0.0079
15.2800 5.0774 0.0349
15.3000 5.0840 0.0209
15.3200 5.0906 0.0087
15.3400 5.0973 0.0376
15.3600 5.1039 0.0283
15.3800 5.1106 0.0044
15.4000 5.1173 0.0390
15.4200 5.1240 0.0288
15.4400 5.1307 0.0046
15.4600 5.1374 0.0347
15.4800 5.1441 0.0321
15.5000 5.1507 0.0070
15.5200 5.1573 0.0366
15.5400 5.1640 0.0333
15.5600 5.1707 0.0076
15.5800 5.1774 0.0319
15.6000 5.1841 0.0339
15.6200 5.1908 0.0128
15.6400 5.1974 0.0297
15.6600 5.2040 0.0311
15.6800 5.2107 0.0184
15.7000 5.2173 0.0297
15.7200 5.2240 0.0297
15.7400 5.2307 0.0248
15.7600 5.2374 0.0232
15.7800 5.2441 0.0315
15.8000 5.2508 0.0218
15.8200 5.2574 0.0232
15.8400 5.2641 0.0293
15.8600 5.2707 0.0267
15.8800 5.2773 0.0212
15.9000 5.2840 0.0306
15.9200 5.2907 0.0243
15.9400 5.2974 0.0219
15.9600 5.3041 0.0303
15.9800 5.3107 0.0284
16.0000 5.3174 0.0168
16.0200 5.3240 0.0328
16.0400 5.3306 0.0280
16.0600 5.3372 0.0199
16.0800 5.3439 0.0371
16.1000 5.3507 0.0218
16.1200 5.3574 0.0163
16.1400 5.3641 0.0381
16.1600 5.3707 0.0264
16.1800 5.3774 0.0179
16.2000 5.3841 0.0351
16.2200 5.3907 0.0194
16.2400 5.3973 0.0231
16.2600 5.4040 0.0392
16.2800 5.4107 0.0186
16.3000 5.4174 0.0214
16.3200 5.4241 0.0369
16.3400 5.4308 0.0144
16.3600 5.4375 0.0260
16.3800 5.4441 0.0347
16.4000 5.4507 0.0188
16.4200 5.4573 0.0287
16.4400 5.4640 0.0358
16.4600 5.4707 0.0155
16.4800 5.4774 0.0297
16.5000 5.4841 0.0372
16.5200 5.4908 0.0104
16.5400 5.4974 0.0287
16.5600 5.5041 0.0274
16.5800 5.5107 0.0198
16.6000 5.5173 0.0317
16.6200 5.5240 0.0314
16.6400 5.5307 0.0218
16.6600 5.5374 0.0277
16.6800 5.5440 0.0233
16.7000 5.5507 0.0256
16.7200 5.5574 0.0265
16.7400 5.5640 0.0243
16.7600 5.5707 0.0218
16.7800 5.5773 0.0260
16.8000 5.5840 0.0342
16.8200 5.5907 0.0219
16.8400 5.5974 0.0222
16.8600 5.6040 0.0322
16.8800 5.6107 0.0197
16.9000 5.6174 0.0232
16.9200 5.6241 0.0292
16.9400 5.6307 0.0212
16.9600 5.6373 0.0240
16.9800 5.6440 0.0319
17.0000 5.6507 0.0156
17.0200 5.6574 0.0240
17.0400 5.6641 0.0375
17.0600 5.6708 0.0130
17.0800 5.6774 0.0279
17.1000 5.6841 0.0248
17.1200 5.6907 0.0189
17.1400 5.6973 0.0313
17.1600 5.7040 0.0268
17.1800 5.7107 0.0209
17.2000 5.7174 0.0268
17.2200 5.7241 0.0200
17.2400 5.7308 0.0214
17.2600 5.7374 0.0287
17.2800 5.7441 0.0258
17.3000 5.7507 0.0175
17.3200 5.7573 0.0258
17.3400 5.7640 0.0286
17.3600 5.7707 0.0216
17.3800 5.7774 0.0269
17.4000 5.7840 0.0265
17.4200 5.7907 0.0237
17.4400 5.7974 0.0226
17.4600 5.8041 0.0267
17.4800 5.8107 0.0213
17.5000 5.8173 0.0239
17.5200 5.8239 0.0284
17.5400 5.8306 0.0199
17.5600 5.8373 0.0218
17.5800 5.8440 0.0317
17.6000 5.8507 0.0210
17.6200 5.8574 0.0205
17.6400 5.8641 0.0290
17.6600 5.8707 0.0256
17.6800 5.8773 0.0197
17.7000 5.8840 0.0302
17.7200 5.8907 0.0232
17.7400 5.8974 0.0151
17.7600 5.9041 0.0349
17.7800 5.9108 0.0223
17.8000 5.9174 0.0192
17.8200 5.9241 0.0286
17.8400 5.9307 0.0222
17.8600 5.9373 0.0158
17.8800 5.9440 0.0318
17.9000 5.9507 0.0239
17.9200 5.9574 0.0165
17.9400 5.9641 0.0271
17.9600 5.9708 0.0236
17.9800 5.9774 0.0191
18.0000 5.9841 0.0262
18.0200 5.9907 0.0281
18.0400 5.9973 0.0187
18.0600 6.0039 0.0231
18.0800 6.0106 0.0285
18.1000 6.0173 0.0157
18.1200 6.0240 0.0252
18.1400 6.0307 0.0306
18.1600 6.0374 0.0134
18.1800 6.0441 0.0235
18.2000 6.0507 0.0288
18.2200 6.0573 0.0188
18.2400 6.0639 0.0241
18.2600 6.0706 0.0270
18.2800 6.0773 0.0175
18.3000 6.0840 0.0210
18.3200 6.0907 0.0267
18.3400 6.0974 0.0210
18.3600 6.1040 0.0212
18.3800 6.1107 0.0314
18.4000 6.1173 0.0177
18.4200 6.1240 0.0248
18.4400 6.1307 0.0273
18.4600 6.1374 0.0208
18.4800 6.1441 0.0228
18.5000 6.1508 0.0306
18.5200 6.1574 0.0184
18.5400 6.1641 0.0194
18.5600 6.1707 0.0305
18.5800 6.1773 0.0161
18.6000 6.1840 0.0241
18.6200 6.1907 0.0293
18.6400 6.1974 0.0139
18.6600 6.2041 0.0246
18.6800 6.2108 0.0261
18.7000 6.2174 0.0179
18.7200 6.2241 0.0282
18.7400 6.2307 0.0182
18.7600 6.2373 0.0255
18.7800 6.2439 0.0281
18.8000 6.2506 0.0218
18.8200 6.2574 0.0216
18.8400 6.2640 0.0258
18.8600 6.2707 0.0235
18.8800 6.2774 0.0263
18.9000 6.2840 0.0203
18.9200 6.2907 0.0193
18.9400 6.2973 0.0315
18.9600 6.3039 0.0228
18.9800 6.3106 0.0202
19.0000 6.3173 0.0289
19.0200 6.3240 0.0188
19.0400 6.3307 0.0187
19.0600 6.3374 0.0236
19.0800 6.3441 0.0193
19.1000 6.3507 0.0245
19.1200 6.3573 0.0224
19.1400 6.3640 0.0201
19.1600 6.3707 0.0210
19.1800 6.3774 0.0268
19.2000 6.3841 0.0232
19.2200 6.3908 0.0227
19.2400 6.3975 0.0232
19.2600 6.4041 0.0211
19.2800 6.4107 0.0227
19.3000 6.4173 0.0226
19.3200 6.4240 0.0221
19.3400 6.4307 0.0244
19.3600 6.4374 0.0213
19.3800 6.4440 0.0203
19.4000 6.4507 0.0243
19.4200 6.4574 0.0272
19.4400 6.4641 0.0205
19.4600 6.4707 0.0195
19.4800 6.4773 0.0254
19.5000 6.4840 0.0239
19.5200 6.4907 0.0245
19.5400 6.4974 0.0224
19.5600 6.5040 0.0181
19.5800 6.5107 0.0206
19.6000 6.5174 0.0234
19.6200 6.5241 0.0158
19.6400 6.5307 0.0258
19.6600 6.5373 0.0219
19.6800 6.5439 0.0194
19.7000 6.5506 0.0244
19.7200 6.5573 0.0244
19.7400 6.5640 0.0164
19.7600 6.5707 0.0223
19.7800 6.5774 0.0208
19.8000 6.5841 0.0152
19.8200 6.5907 0.0196
19.8400 6.5973 0.0261
19.8600 6.6040 0.0175
19.8800 6.6106 0.0222
19.9000 6.6174 0.0239
19.9200 6.6241 0.0156
19.9400 6.6307 0.0241
19.9600 6.6374 0.0224
19.9800 6.6441 0.0168
20.0000 6.6507 0.0170
20.0200 6.6574 0.0231
20.0400 6.6640 0.0143
20.0600 6.6707 0.0223
20.0800 6.6774 0.0231
20.1000 6.6841 0.0113
20.1200 6.6908 0.0205
20.1400 6.6975 0.0262
20.1600 6.7041 0.0133
20.1800 6.7107 0.0188
20.2000 6.7173 0.0261
20.2200 6.7239 0.0198
20.2400 6.7306 0.0197
20.2600 6.7374 0.0216
20.2800 6.7441 0.0197
20.3000 6.7507 0.0215
20.3200 6.7574 0.0223
20.3400 6.7641 0.0144
20.3600 6.7707 0.0238
20.3800 6.7773 0.0210
20.4000 6.7839 0.0133
20.4200 6.7906 0.0243
20.4400 6.7973 0.0244
20.4600 6.8040 0.0092
20.4800 6.8107 0.0217
20.5000 6.8174 0.0238
20.5200 6.8240 0.0182
20.5400 6.8307 0.0192
20.5600 6.8373 0.0284
20.5800 6.8440 0.0172
20.6000 6.8506 0.0189
20.6200 6.8573 0.0248
20.6400 6.8641 0.0176
20.6600 6.8708 0.0195
20.6800 6.8775 0.0219
20.7000 6.8841 0.0189
20.7200 6.8907 0.0202
20.7400 6.8973 0.0221
20.7600 6.9040 0.0197
20.7800 6.9107 0.0216
20.8000 6.9174 0.0241
20.8200 6.9241 0.0178
20.8400 6.9308 0.0206
20.8600 6.9374 0.0246
20.8800 6.9441 0.0165
20.9000 6.9507 0.0241
20.9200 6.9573 0.0234
20.9400 6.9639 0.0219
20.9600 6.9706 0.0172
20.9800 6.9773 0.0248
21.0000 6.9840 0.0209
21.0200 6.9907 0.0182
21.0400 6.9974 0.0246
21.0600 7.0041 0.0191
21.0800 7.0107 0.0138
21.1000 7.0173 0.0260
21.1200 7.0239 0.0225
21.1400 7.0306 0.0186
21.1600 7.0373 0.0296
21.1800 7.0441 0.0155
21.2000 7.0507 0.0149
21.2200 7.0574 0.0325
21.2400 7.0641 0.0195
21.2600 7.0707 0.0151
21.2800 7.0773 0.0318
21.3000 7.0839 0.0169
21.3200 7.0906 0.0181
21.3400 7.0974 0.0291
21.3600 7.1041 0.0148
21.3800 7.1107 0.0204
21.4000 7.1174 0.0303
21.4200 7.1241 0.0108
21.4400 7.1308 0.0220
21.4600 7.1374 0.0338
21.4800 7.1440 0.0145
21.5000 7.1507 0.0232
21.5200 7.1573 0.0328
21.5400 7.1640 0.0121
21.5600 7.1707 0.0215
21.5800 7.1774 0.0260
21.6000 7.1841 0.0186
21.6200 7.1908 0.0268
21.6400 7.1974 0.0216
21.6600 7.2040 0.0199
21.6800 7.2106 0.0266
21.7000 7.2173 0.0262
21.7200 7.2240 0.0206
21.7400 7.2307 0.0227
21.7600 7.2374 0.0251
21.7800 7.2441 0.0224
21.8000 7.2507 0.0193
21.8200 7.2573 0.0262
21.8400 7.2639 0.0271
21.8600 7.2706 0.0237
21.8800 7.2773 0.0223
21.9000 7.2840 0.0233
21.9200 7.2907 0.0150
21.9400 7.2973 0.0305
21.9600 7.3040 0.0233
21.9800 7.3107 0.0138
22.0000 7.3173 0.0289
22.0200 7.3240 0.0256
22.0400 7.3306 0.0195
22.0600 7.3374 0.0246
22.0800 7.3441 0.0270
22.1000 7.3508 0.0170
22.1200 7.3574 0.0279
22.1400 7.3641 0.0242
22.1600 7.3708 0.0174
22.1800 7.3774 0.0258
22.2000 7.3840 0.0256
22.2200 7.3906 0.0184
22.2400 7.3973 0.0312
22.2600 7.4041 0.0234
22.2800 7.4108 0.0187
22.3000 7.4174 0.0340
22.3200 7.4241 0.0203
22.3400 7.4308 0.0193
22.3600 7.4374 0.0361
22.3800 7.4440 0.0151
22.4000 7.4506 0.0236
22.4200 7.4573 0.0309
22.4400 7.4640 0.0188
22.4600 7.4707 0.0242
22.4800 7.4774 0.0311
22.5000 7.4841 0.0174
22.5200 7.4907 0.0245
22.5400 7.4974 0.0262
22.5600 7.5040 0.0195
22.5800 7.5106 0.0321
22.6000 7.5173 0.0220
22.6200 7.5240 0.0229
22.6400 7.5307 0.0311
22.6600 7.5374 0.0253
22.6800 7.5440 0.0218
22.7000 7.5507 0.0310
22.7200 7.5573 0.0228
22.7400 7.5639 0.0244
22.7600 7.5706 0.0302
22.7800 7.5773 0.0228
22.8000 7.5841 0.0240
22.8200 7.5908 0.0297
22.8400 7.5975 0.0209
22.8600 7.6041 0.0234
22.8800 7.6107 0.0317
22.9000 7.6174 0.0262
22.9200 7.6240 0.0234
22.9400 7.6306 0.0284
22.9600 7.6373 0.0290
22.9800 7.6441 0.0198
23.0000 7.6508 0.0288
23.0200 7.6574 0.0220
23.0400 7.6641 0.0213
23.0600 7.6708 0.0225
23.0800 7.6774 0.0243
23.1000 7.6840 0.0259
23.1200 7.6906 0.0239
23.1400 7.6973 0.0255
23.1600 7.7040 0.0226
23.1800 7.7107 0.0234
23.2000 7.7174 0.0265
23.2200 7.7241 0.0256
23.2400 7.7307 0.0199
23.2600 7.7373 0.0189
23.2800 7.7439 0.0299
23.3000 7.7506 0.0224
23.3200 7.7573 0.0194
23.3400 7.7640 0.0264
23.3600 7.7707 0.0224
23.3800 7.7774 0.0217
23.4000 7.7841 0.0241
23.4200 7.7907 0.0269
23.4400 7.7974 0.0189
23.4600 7.8040 0.0245
23.4800 7.8106 0.0227
23.5000 7.8173 0.0202
23.5200 7.8241 0.0263
23.5400 7.8307 0.0176
23.5600 7.8374 0.0207
23.5800 7.8441 0.0256
23.6000 7.8508 0.0219
23.6200 7.8574 0.0204
23.6400 7.8640 0.0207
23.6600 7.8706 0.0257
23.6800 7.8773 0.0256
23.7000 7.8840 0.0235
23.7200 7.8907 0.0206
23.7400 7.8974 0.0268
23.7600 7.9041 0.0231
23.7800 7.9108 0.0188
23.8000 7.9174 0.0237
23.8200 7.9240 0.0233
23.8400 7.9306 0.0280
23.8600 7.9373 0.0231
23.8800 7.9441 0.0192
23.9000 7.9508 0.0264
23.9200 7.9574 0.0221
23.9400 7.9641 0.0202
23.9600 7.9707 0.0276
23.9800 7.9774 0.0222
24.0000 7.9840 0.0228
24.0200 7.9906 0.0233
24.0400 7.9973 0.0224
24.0600 8.0040 0.0233
24.0800 8.0107 0.0335
24.1000 8.0173 0.0159
24.1200 8.0240 0.0242
24.1400 8.0307 0.0311
24.1600 8.0373 0.0157
24.1800 8.0439 0.0259
24.2000 8.0506 0.0318
24.2200 8.0573 0.0163
24.2400 8.0640 0.0240
24.2600 8.0707 0.0332
24.2800 8.0774 0.0196
24.3000 8.0842 0.0297
24.3200 8.0908 0.0214
24.3400 8.0974 0.0179
24.3600 8.1040 0.0308
24.3800 8.1106 0.0241
24.4000 8.1173 0.0197
24.4200 8.1241 0.0353
24.4400 8.1308 0.0191
24.4600 8.1374 0.0203
24.4800 8.1441 0.0346
24.5000 8.1508 0.0254
24.5200 8.1574 0.0260
24.5400 8.1640 0.0302
24.5600 8.1706 0.0217
24.5800 8.1773 0.0240
24.6000 8.1840 0.0292
24.6200 8.1907 0.0282
24.6400 8.1974 0.0317
24.6600 8.2040 0.0252
24.6800 8.2107 0.0257
24.7000 8.2174 0.0319
24.7200 8.2240 0.0257
24.7400 8.2306 0.0263
24.7600 8.2372 0.0312
24.7800 8.2440 0.0211
24.8000 8.2507 0.0296
24.8200 8.2574 0.0261
24.8400 8.2641 0.0217
24.8600 8.2707 0.0292
24.8800 8.2774 0.0258
24.9000 8.2840 0.0256
24.9200 8.2906 0.0303
24.9400 8.2973 0.0237
24.9600 8.3040 0.0286
24.9800 8.3108 0.0315
25.0000 8.3174 0.0218
25.0200 8.3241 0.0262
25.0400 8.3308 0.0331
25.0600 8.3374 0.0198
25.0800 8.3440 0.0291
25.1000 8.3507 0.0356
25.1200 8.3574 0.0217
25.1400 8.3641 0.0312
25.1600 8.3707 0.0267
25.1800 8.3774 0.0283
25.2000 8.3841 0.0322
25.2200 8.3908 0.0228
25.2400 8.3974 0.0207
25.2600 8.4040 0.0323
25.2800 8.4106 0.0250
25.3000 8.4173 0.0240
25.3200 8.4240 0.0340
25.3400 8.4307 0.0230
25.3600 8.4374 0.0269
25.3800 8.4441 0.0344
25.4000 8.4507 0.0204
25.4200 8.4574 0.0334
25.4400 8.4640 0.0304
25.4600 8.4706 0.0209
25.4800 8.4773 0.0318
25.5000 8.4840 0.0328
25.5200 8.4907 0.0208
25.5400 8.4974 0.0304
25.5600 8.5040 0.0312
25.5800 8.5107 0.0237
25.6000 8.5174 0.0348
25.6200 8.5240 0.0262
25.6400 8.5307 0.0271
25.6600 8.5373 0.0304
25.6800 8.5440 0.0257
25.7000 8.5507 0.0288
25.7200 8.5574 0.0296
25.7400 8.5641 0.0247
25.7600 8.5708 0.0311
25.7800 8.5774 0.0217
25.8000 8.5840 0.0276
25.8200 8.5906 0.0358
25.8400 8.5973 0.0261
25.8600 8.6040 0.0315
25.8800 8.6107 0.0287
25.9000 8.6174 0.0261
25.9200 8.6241 0.0281
25.9400 8.6308 0.0305
25.9600 8.6374 0.0242
25.9800 8.6440 0.0373
26.0000 8.6507 0.0287
26.0200 8.6573 0.0206
26.0400 8.6640 0.0399
26.0600 8.6707 0.0295
26.0800 8.6774 0.0191
26.1000 8.6840 0.0371
26.1200 8.6907 0.0319
26.1400 8.6974 0.0211
26.1600 8.7040 0.0338
26.1800 8.7106 0.0364
26.2000 8.7172 0.0250
26.2200 8.7240 0.0383
26.2400 8.7307 0.0275
26.2600 8.7374 0.0295
26.2800 8.7441 0.0382
26.3000 8.7507 0.0247
26.3200 8.7574 0.0285
26.3400 8.7640 0.0369
26.3600 8.7706 0.0299
26.3800 8.7773 0.0291
26.4000 8.7840 0.0333
26.4200 8.7907 0.0312
26.4400 8.7975 0.0296
26.4600 8.8041 0.0327
26.4800 8.8108 0.0288
26.5000 8.8174 0.0270
26.5200 8.8240 0.0331
26.5400 8.8306 0.0290
26.5600 8.8373 0.0357
26.5800 8.8440 0.0323
26.6000 8.8507 0.0305
26.6200 8.8574 0.0306
26.6400 8.8641 0.0345
26.6600 8.8707 0.0293
26.6800 8.8774 0.0319
26.7000 8.8840 0.0328
26.7200 8.8906 0.0301
26.7400 8.8973 0.0289
26.7600 8.9040 0.0334
26.7800 8.9107 0.0299
26.8000 8.9173 0.0312
26.8200 8.9240 0.0332
26.8400 8.9307 0.0308
26.8600 8.9374 0.0295
26.8800 8.9440 0.0311
26.9000 8.9506 0.0346
26.9200 8.9573 0.0305
26.9400 8.9640 0.0317
26.9600 8.9707 0.0257
26.9800 8.9774 0.0309
27.0000 8.9840 0.0357
27.0200 8.9907 0.0273
27.0400 8.9974 0.0246
27.0600 9.0040 0.0328
27.0800 9.0106 0.0286
27.1000 9.0173 0.0252
27.1200 9.0240 0.0336
27.1400 9.0307 0.0295
27.1600 9.0374 0.0238
27.1800 9.0441 0.0273
27.2000 9.0508 0.0291
27.2200 9.0574 0.0281
27.2400 9.0641 0.0248
27.2600 9.0707 0.0268
27.2800 9.0773 0.0306
27.3000 9.0840 0.0248
27.3200 9.0907 0.0303
27.3400 9.0974 0.0285
27.3600 9.1041 0.0293
27.3800 9.1108 0.0275
27.4000 9.1174 0.0267
27.4200 9.1240 0.0232
27.4400 9.1306 0.0322
27.4600 9.1373 0.0296
27.4800 9.1440 0.0257
27.5000 9.1507 0.0300
27.5200 9.1574 0.0236
27.5400 9.1641 0.0281
27.5600 9.1707 0.0349
27.5800 9.1774 0.0241
27.6000 9.1840 0.0249
27.6200 9.1906 0.0295
27.6400 9.1972 0.0298
27.6600 9.2040 0.0229
27.6800 9.2107 0.0283
27.7000 9.2173 0.0293
27.7200 9.2240 0.0257
27.7400 9.2307 0.0300
27.7600 9.2374 0.0238
27.7800 9.2441 0.0307
27.8000 9.2507 0.0248
27.8200 9.2573 0.0253
27.8400 9.2640 0.0306
27.8600 9.2707 0.0260
27.8800 9.2774 0.0267
27.9000 9.2841 0.0283
27.9200 9.2908 0.0279
27.9400 9.2975 0.0220
27.9600 9.3041 0.0265
27.9800 9.3106 0.0276
28.0000 9.3173 0.0287
28.0200 9.3240 0.0283
28.0400 9.3307 0.0212
28.0600 9.3374 0.0296
28.0800 9.3441 0.0268
28.1000 9.3508 0.0271
28.1200 9.3574 0.0261
28.1400 9.3640 0.0258
28.1600 9.3706 0.0261
28.1800 9.3773 0.0265
28.2000 9.3840 0.0295
28.2200 9.3907 0.0193
28.2400 9.3974 0.0285
28.2600 9.4041 0.0236
28.2800 9.4107 0.0226
28.3000 9.4174 0.0278
28.3200 9.4240 0.0254
28.3400 9.4306 0.0254
28.3600 9.4372 0.0276
28.3800 9.4439 0.0256
28.4000 9.4506 0.0306
28.4200 9.4573 0.0271
28.4400 9.4640 0.0243
28.4600 9.4707 0.0220
28.4800 9.4774 0.0253
28.5000 9.4840 0.0288
28.5200 9.4906 0.0292
28.5400 9.4973 0.0227
28.5600 9.5039 0.0238
28.5800 9.5107 0.0314
28.6000 9.5174 0.0237
28.6200 9.5241 0.0234
28.6400 9.5308 0.0318
28.6600 9.5375 0.0250
28.6800 9.5441 0.0161
28.7000 9.5507 0.0316
28.7200 9.5573 0.0263
28.7400 9.5640 0.0267
28.7600 9.5707 0.0293
28.7800 9.5774 0.0265
28.8000 9.5841 0.0236
28.8200 9.5908 0.0297
28.8400 9.5974 0.0228
28.8600 9.6041 0.0240
28.8800 9.6106 0.0346
28.9000 9.6173 0.0223
28.9200 9.6239 0.0282
28.9400 9.6307 0.0296
28.9600 9.6374 0.0210
28.9800 9.6440 0.0344
29.0000 9.6507 0.0269
29.0200 9.6574 0.0197
29.0400 9.6640 0.0330
29.0600 9.6706 0.0274
29.0800 9.6773 0.0236
29.1000 9.6840 0.0326
29.1200 9.6907 0.0234
29.1400 9.6974 0.0239
29.1600 9.7041 0.0306
29.1800 9.7107 0.0227
29.2000 9.7174 0.0325
29.2200 9.7241 0.0277
29.2400 9.7307 0.0190
29.2600 9.7373 0.0333
29.2800 9.7440 0.0286
29.3000 9.7507 0.0196
29.3200 9.7574 0.0336
29.3400 9.7641 0.0249
29.3600 9.7708 0.0220
29.3800 9.7775 0.0338
29.4000 9.7841 0.0236
29.4200 9.7907 0.0264
29.4400 9.7973 0.0366
29.4600 9.8040 0.0239
29.4800 9.8107 0.0269
29.5000 9.8174 0.0330
29.5200 9.8241 0.0234
29.5400 9.8308 0.0318
29.5600 9.8374 0.0288
29.5800 9.8440 0.0222
29.6000 9.8506 0.0306
29.6200 9.8573 0.0329
29.6400 9.8639 0.0191
29.6600 9.8707 0.0349
29.6800 9.8774 0.0305
29.7000 9.8841 0.0231
29.7200 9.8907 0.0346
29.7400 9.8974 0.0275
29.7600 9.9041 0.0273
29.7800 9.9107 0.0317
29.8000 9.9173 0.0256
29.8200 9.9239 0.0293
29.8400 9.9306 0.0334
29.8600 9.9373 0.0258
29.8800 9.9440 0.0271
29.9000 9.9507 0.0287
29.9200 9.9574 0.0316
29.9400 9.9641 0.0249
29.9600 9.9707 0.0327
29.9800 9.9773 0.0306
30.0000 9.9840 0.0311
30.0200 9.9907 0.0280
30.0400 9.9974 0.0279
30.0600 10.0041 0.0341
30.0800 10.0108 0.0259
30.1000 10.0174 0.0264
30.1200 10.0241 0.0281
30.1400 10.0307 0.0278
30.1600 10.0373 0.0359
30.1800 10.0440 0.0259
30.2000 10.0507 0.0260
30.2200 10.0574 0.0355
30.2400 10.0641 0.0278
30.2600 10.0708 0.0285
30.2800 10.0774 0.0387
30.3000 10.0841 0.0248
30.3200 10.0907 0.0279
30.3400 10.0973 0.0381
30.3600 10.1040 0.0180
30.3800 10.1107 0.0368
30.4000 10.1174 0.0346
30.4200 10.1241 0.0165
30.4400 10.1308 0.0337
30.4600 10.1374 0.0324
30.4800 10.1441 0.0191
30.5000 10.1506 0.0358
30.5200 10.1572 0.0338
30.5400 10.1639 0.0228
30.5600 10.1706 0.0333
30.5800 10.1774 0.0300
30.6000 10.1840 0.0261
30.6200 10.1907 0.0393
30.6400 10.1974 0.0310
30.6600 10.2040 0.0261
30.6800 10.2107 0.0366
30.7000 10.2173 0.0266
30.7200 10.2240 0.0322
30.7400 10.2307 0.0345
30.7600 10.2374 0.0300
30.7800 10.2441 0.0340
30.8000 10.2508 0.0345
30.8200 10.2575 0.0271
30.8400 10.2641 0.0304
30.8600 10.2707 0.0351
30.8800 10.2774 0.0302
30.9000 10.2840 0.0268
30.9200 10.2907 0.0362
30.9400 10.2974 0.0336
30.9600 10.3041 0.0313
30.9800 10.3108 0.0251
31.0000 10.3174 0.0395
31.0200 10.3241 0.0305
31.0400 10.3307 0.0281
31.0600 10.3373 0.0390
31.0800 10.3440 0.0294
31.1000 10.3507 0.0327
31.1200 10.3574 0.0372
31.1400 10.3640 0.0259
31.1600 10.3707 0.0322
31.1800 10.3774 0.0419
31.2000 10.3840 0.0221
31.2200 10.3907 0.0336
31.2400 10.3973 0.0456
31.2600 10.4040 0.0215
31.2800 10.4107 0.0340
31.3000 10.4174 0.0392
31.3200 10.4240 0.0194
31.3400 10.4307 0.0428
31.3600 10.4374 0.0389
31.3800 10.4441 0.0201
31.4000 10.4507 0.0395
31.4200 10.4573 0.0388
31.4400 10.4639 0.0238
31.4600 10.4706 0.0418
31.4800 10.4774 0.0332
31.5000 10.4841 0.0228
31.5200 10.4907 0.0427
31.5400 10.4974 0.0284
31.5600 10.5041 0.0287
31.5800 10.5107 0.0426
31.6000 10.5173 0.0254
31.6200 10.5240 0.0290
31.6400 10.5307 0.0440
31.6600 10.5374 0.0234
31.6800 10.5441 0.0318
31.7000 10.5508 0.0350
31.7200 10.5574 0.0278
31.7400 10.5641 0.0320
31.7600 10.5707 0.0348
31.7800 10.5773 0.0288
31.8000 10.5840 0.0377
31.8200 10.5907 0.0326
31.8400 10.5974 0.0314
31.8600 10.6040 0.0351
31.8800 10.6107 0.0358
31.9000 10.6174 0.0301
31.9200 10.6241 0.0344
31.9400 10.6307 0.0372
31.9600 10.6373 0.0272
31.9800 10.6439 0.0363
32.0000 10.6506 0.0383
32.0200 10.6573 0.0350
32.0400 10.6640 0.0352
32.0600 10.6707 0.0370
32.0800 10.6774 0.0341
32.1000 10.6841 0.0344
32.1200 10.6907 0.0310
32.1400 10.6973 0.0339
32.1600 10.7040 0.0354
32.1800 10.7107 0.0363
32.2000 10.7174 0.0321
32.2200 10.7241 0.0375
32.2400 10.7308 0.0333
32.2600 10.7374 0.0265
32.2800 10.7441 0.0380
32.3000 10.7507 0.0348
32.3200 10.7573 0.0274
32.3400 10.7640 0.0338
32.3600 10.7707 0.0375
32.3800 10.7774 0.0302
32.4000 10.7841 0.0332
32.4200 10.7908 0.0319
32.4400 10.7974 0.0306
32.4600 10.8041 0.0358
32.4800 10.8107 0.0306
32.5000 10.8173 0.0322
32.5200 10.8239 0.0416
32.5400 10.8306 0.0248
32.5600 10.8373 0.0297
32.5800 10.8440 0.0383
32.6000 10.8507 0.0284
32.6200 10.8574 0.0274
32.6400 10.8641 0.0353
32.6600 10.8707 0.0327
32.6800 10.8773 0.0313
32.7000 10.8839 0.0325
32.7200 10.8906 0.0344
32.7400 10.8973 0.0299
32.7600 10.9040 0.0331
32.7800 10.9107 0.0300
32.8000 10.9174 0.0340
32.8200 10.9240 0.0327
32.8400 10.9307 0.0241
32.8600 10.9373 0.0361
32.8800 10.9440 0.0361
32.9000 10.9507 0.0294
32.9200 10.9574 0.0298
32.9400 10.9641 0.0311
32.9600 10.9707 0.0318
32.9800 10.9774 0.0321
33.0000 10.9841 0.0325
33.0200 10.9907 0.0302
33.0400 10.9973 0.0282
33.0600 11.0040 0.0345
33.0800 11.0107 0.0293
33.1000 11.0174 0.0343
33.1200 11.0241 0.0347
33.1400 11.0308 0.0320
33.1600 11.0374 0.0312
33.1800 11.0441 0.0340
33.2000 11.0507 0.0301
33.2200 11.0573 0.0351
33.2400 11.0639 0.0378
33.2600 11.0706 0.0259
33.2800 11.0773 0.0337
33.3000 11.0840 0.0379
33.3200 11.0907 0.0269
33.3400 11.0974 0.0338
33.3600 11.1041 0.0357
33.3800 11.1107 0.0276
33.4000 11.1173 0.0368
33.4200 11.1239 0.0340
33.4400 11.1306 0.0320
33.4600 11.1373 0.0372
33.4800 11.1440 0.0366
33.5000 11.1507 0.0254
33.5200 11.1574 0.0408
33.5400 11.1641 0.0328
33.5600 11.1707 0.0241
33.5800 11.1773 0.0387
33.6000 11.1840 0.0348
33.6200 11.1906 0.0292
33.6400 11.1974 0.0377
33.6600 11.2041 0.0354
33.6800 11.2107 0.0249
33.7000 11.2174 0.0375
33.7200 11.2241 0.0345
33.7400 11.2307 0.0313
33.7600 11.2373 0.0406
33.7800 11.2440 0.0347
33.8000 11.2507 0.0318
33.8200 11.2574 0.0359
33.8400 11.2641 0.0325
33.8600 11.2707 0.0354
33.8800 11.2774 0.0354
33.9000 11.2841 0.0345
33.9200 11.2908 0.0279
33.9400 11.2974 0.0369
33.9600 11.3040 0.0348
33.9800 11.3107 0.0328
34.0000 11.3173 0.0354
34.0200 11.3240 0.0356
34.0400 11.3307 0.0333
34.0600 11.3374 0.0326
34.0800 11.3441 0.0355
34.1000 11.3507 0.0336
34.1200 11.3573 0.0334
34.1400 11.3639 0.0364
34.1600 11.3706 0.0364
34.1800 11.3773 0.0339
34.2000 11.3840 0.0393
34.2200 11.3907 0.0352
34.2400 11.3974 0.0359
34.2600 11.4041 0.0381
34.2800 11.4107 0.0379
34.3000 11.4173 0.0304
34.3200 11.4240 0.0423
34.3400 11.4306 0.0357
34.3600 11.4374 0.0324
34.3800 11.4441 0.0466
34.4000 11.4507 0.0362
34.4200 11.4574 0.0303
34.4400 11.4641 0.0434
34.4600 11.4707 0.0357
34.4800 11.4774 0.0330
34.5000 11.4840 0.0435
34.5200 11.4906 0.0403
34.5400 11.4973 0.0271
34.5600 11.5040 0.0416
34.5800 11.5107 0.0395
34.6000 11.5174 0.0313
34.6200 11.5241 0.0468
34.6400 11.5307 0.0340
34.6600 11.5373 0.0318
34.6800 11.5440 0.0469
34.7000 11.5506 0.0365
34.7200 11.5574 0.0335
34.7400 11.5641 0.0469
34.7600 11.5708 0.0325
34.7800 11.5774 0.0377
34.8000 11.5841 0.0400
34.8200 11.5907 0.0334
34.8400 11.5973 0.0360
34.8600 11.6039 0.0414
34.8800 11.6106 0.0364
34.9000 11.6173 0.0431
34.9200 11.6240 0.0400
34.9400 11.6307 0.0331
34.9600 11.6373 0.0397
34.9800 11.6440 0.0394
35.0000 11.6507 0.0351
35.0200 11.6573 0.0398
35.0400 11.6640 0.0367
35.0600 11.6706 0.0382
35.0800 11.6773 0.0389
35.1000 11.6841 0.0385
35.1200 11.6907 0.0372
35.1400 11.6974 0.0393
35.1600 11.7041 0.0376
35.1800 11.7108 0.0383
35.2000 11.7174 0.0406
35.2200 11.7240 0.0377
35.2400 11.7307 0.0449
35.2600 11.7374 0.0297
35.2800 11.7441 0.0421
35.3000 11.7508 0.0416
35.3200 11.7574 0.0328
35.3400 11.7641 0.0401
35.3600 11.7707 0.0418
35.3800 11.7773 0.0363
35.4000 11.7840 0.0413
35.4200 11.7906 0.0419
35.4400 11.7973 0.0339
35.4600 11.8040 0.0440
35.4800 11.8107 0.0374
35.5000 11.8174 0.0317
35.5200 11.8241 0.0473
35.5400 11.8307 0.0356
35.5600 11.8373 0.0338
35.5800 11.8439 0.0483
35.6000 11.8506 0.0370
35.6200 11.8573 0.0368
35.6400 11.8640 0.0435
35.6600 11.8707 0.0335
35.6800 11.8774 0.0351
35.7000 11.8841 0.0497
35.7200 11.8907 0.0295
35.7400 11.8974 0.0374
35.7600 11.9040 0.0504
35.7800 11.9106 0.0318
35.8000 11.9173 0.0397
35.8200 11.9240 0.0468
35.8400 11.9307 0.0350
35.8600 11.9374 0.0378
35.8800 11.9441 0.0408
35.9000 11.9508 0.0387
35.9200 11.9574 0.0407
35.9400 11.9640 0.0425
35.9600 11.9706 0.0340
35.9800 11.9773 0.0413
36.0000 11.9840 0.0451
36.0200 11.9907 0.0307
36.0400 11.9974 0.0479
36.0600 12.0041 0.0381
36.0800 12.0108 0.0338
36.1000 12.0174 0.0453
36.1200 12.0240 0.0401
36.1400 12.0306 0.0381
36.1600 12.0373 0.0476
36.1800 12.0440 0.0355
36.2000 12.0507 0.0349
36.2200 12.0574 0.0443
36.2400 12.0641 0.0370
36.2600 12.0707 0.0388
36.2800 12.0773 0.0457
36.3000 12.0839 0.0391
36.3200 12.0906 0.0462
36.3400 12.0973 0.0413
36.3600 12.1040 0.0357
36.3800 12.1107 0.0470
36.4000 12.1173 0.0391
36.4200 12.1240 0.0350
36.4400 12.1307 0.0486
36.4600 12.1374 0.0435
36.4800 12.1440 0.0331
36.5000 12.1506 0.0507
36.5200 12.1573 0.0429
36.5400 12.1640 0.0421
36.5600 12.1708 0.0494
36.5800 12.1774 0.0382
36.6000 12.1841 0.0371
36.6200 12.1908 0.0468
36.6400 12.1974 0.0412
36.6600 12.2040 0.0446
36.6800 12.2106 0.0470
36.7000 12.2173 0.0402
36.7200 12.2241 0.0390
36.7400 12.2308 0.0455
36.7600 12.2374 0.0426
36.7800 12.2441 0.0398
36.8000 12.2508 0.0487
36.8200 12.2573 0.0383
36.8400 12.2640 0.0428
36.8600 12.2706 0.0507
36.8800 12.2773 0.0387
36.9000 12.2840 0.0432
36.9200 12.2907 0.0483
36.9400 12.2974 0.0417
36.9600 12.3041 0.0442
36.9800 12.3108 0.0408
37.0000 12.3174 0.0455
37.0200 12.3240 0.0457
37.0400 12.3306 0.0480
37.0600 12.3373 0.0404
37.0800 12.3440 0.0468
37.1000 12.3507 0.0498
37.1200 12.3574 0.0442
37.1400 12.3640 0.0415
37.1600 12.3707 0.0470
37.1800 12.3773 0.0487
37.2000 12.3840 0.0427
37.2200 12.3906 0.0482
37.2400 12.3973 0.0477
37.2600 12.4041 0.0430
37.2800 12.4108 0.0474
37.3000 12.4174 0.0474
37.3200 12.4241 0.0429
37.3400 12.4307 0.0531
37.3600 12.4374 0.0412
37.3800 12.4440 0.0484
37.4000 12.4506 0.0524
37.4200 12.4573 0.0426
37.4400 12.4641 0.0435
37.4600 12.4708 0.0556
37.4800 12.4774 0.0441
37.5000 12.4841 0.0446
37.5200 12.4908 0.0506
37.5400 12.4974 0.0471
37.5600 12.5040 0.0440
37.5800 12.5106 0.0471
37.6000 12.5173 0.0462
37.6200 12.5240 0.0491
37.6400 12.5307 0.0486
37.6600 12.5374 0.0448
37.6800 12.5441 0.0465
37.7000 12.5507 0.0465
37.7200 12.5574 0.0498
37.7400 12.5639 0.0489
37.7600 12.5706 0.0443
37.7800 12.5773 0.0516
37.8000 12.5840 0.0518
37.8200 12.5907 0.0407
37.8400 12.5974 0.0503
37.8600 12.6041 0.0509
37.8800 12.6107 0.0416
37.9000 12.6174 0.0521
37.9200 12.6240 0.0547
37.9400 12.6306 0.0415
37.9600 12.6373 0.0550
37.9800 12.6440 0.0510
38.0000 12.6507 0.0384
38.0200 12.6574 0.0582
38.0400 12.6641 0.0479
38.0600 12.6708 0.0406
38.0800 12.6774 0.0575
38.1000 12.6840 0.0445
38.1200 12.6906 0.0422
38.1400 12.6973 0.0643
38.1600 12.7040 0.0424
38.1800 12.7107 0.0428
38.2000 12.7174 0.0627
38.2200 12.7241 0.0427
38.2400 12.7308 0.0402
38.2600 12.7374 0.0680
38.2800 12.7440 0.0400
38.3000 12.7506 0.0481
38.3200 12.7573 0.0626
38.3400 12.7640 0.0400
38.3600 12.7708 0.0494
38.3800 12.7774 0.0617
38.4000 12.7841 0.0352
38.4200 12.7907 0.0522
38.4400 12.7974 0.0594
38.4600 12.8040 0.0354
38.4800 12.8106 0.0552
38.5000 12.8173 0.0569
38.5200 12.8240 0.0341
38.5400 12.8307 0.0531
38.5600 12.8374 0.0540
38.5800 12.8440 0.0370
38.6000 12.8507 0.0538
38.6200 12.8574 0.0517
38.6400 12.8640 0.0442
38.6600 12.8706 0.0520
38.6800 12.8773 0.0544
38.7000 12.8840 0.0444
38.7200 12.8907 0.0488
38.7400 12.8974 0.0539
38.7600 12.9041 0.0464
38.7800 12.9108 0.0501
38.8000 12.9174 0.0484
38.8200 12.9240 0.0428
38.8400 12.9306 0.0523
38.8600 12.9373 0.0573
38.8800 12.9440 0.0419
38.9000 12.9508 0.0410
38.9200 12.9575 0.0555
38.9400 12.9641 0.0430
38.9600 12.9708 0.0432
38.9800 12.9774 0.0579
39.0000 12.9840 0.0410
39.0200 12.9906 0.0462
39.0400 12.9973 0.0529
39.0600 13.0040 0.0417
39.0800 13.0107 0.0463
39.1000 13.0173 0.0531
39.1200 13.0240 0.0356
39.1400 13.0307 0.0480
39.1600 13.0374 0.0532
39.1800 13.0440 0.0375
39.2000 13.0506 0.0480
39.2200 13.0572 0.0523
39.2400 13.0639 0.0342
39.2600 13.0707 0.0489
39.2800 13.0774 0.0502
39.3000 13.0841 0.0434
39.3200 13.0907 0.0460
39.3400 13.0974 0.0478
39.3600 13.1040 0.0405
39.3800 13.1106 0.0462
39.4000 13.1173 0.0518
39.4200 13.1240 0.0441
39.4400 13.1307 0.0445
39.4600 13.1374 0.0441
39.4800 13.1441 0.0511
39.5000 13.1508 0.0456
39.5200 13.1574 0.0420
39.5400 13.1640 0.0540
39.5600 13.1707 0.0452
39.5800 13.1773 0.0453
39.6000 13.1840 0.0535
39.6200 13.1907 0.0405
39.6400 13.1974 0.0482
39.6600 13.2041 0.0512
39.6800 13.2108 0.0388
39.7000 13.2174 0.0487
39.7200 13.2240 0.0574
39.7400 13.2306 0.0409
39.7600 13.2373 0.0470
39.7800 13.2440 0.0570
39.8000 13.2507 0.0422
39.8200 13.2574 0.0502
39.8400 13.2641 0.0562
39.8600 13.2707 0.0402
39.8800 13.2774 0.0557
39.9000 13.2840 0.0521
39.9200 13.2906 0.0401
39.9400 13.2972 0.0568
39.9600 13.3040 0.0502
39.9800 13.3107 0.0402
40.0000 13.3174 0.0557
40.0200 13.3240 0.0550
40.0400 13.3307 0.0410
40.0600 13.3374 0.0559
40.0800 13.3440 0.0513
40.1000 13.3507 0.0461
40.1200 13.3573 0.0585
40.1400 13.3640 0.0515
40.1600 13.3707 0.0465
40.1800 13.3774 0.0550
40.2000 13.3841 0.0495
40.2200 13.3908 0.0490
40.2400 13.3974 0.0521
40.2600 13.4040 0.0509
40.2800 13.4106 0.0498
40.3000 13.4173 0.0495
40.3200 13.4240 0.0569
40.3400 13.4307 0.0478
40.3600 13.4374 0.0483
40.3800 13.4441 0.0551
40.4000 13.4508 0.0511
40.4200 13.4574 0.0446
40.4400 13.4640 0.0627
40.4600 13.4706 0.0506
40.4800 13.4773 0.0451
40.5000 13.4840 0.0605
40.5200 13.4907 0.0475
40.5400 13.4974 0.0419
40.5600 13.5041 0.0656
40.5800 13.5107 0.0467
40.6000 13.5174 0.0427
40.6200 13.5240 0.0596
40.6400 13.5306 0.0425
40.6600 13.5372 0.0476
40.6800 13.5439 0.0607
40.7000 13.5506 0.0426
40.7200 13.5574 0.0494
40.7400 13.5640 0.0630
40.7600 13.5707 0.0441
40.7800 13.5774 0.0500
40.8000 13.5840 0.0592
40.8200 13.5906 0.0455
40.8400 13.5973 0.0511
40.8600 13.6040 0.0585
40.8800 13.6107 0.0429
40.9000 13.6174 0.0468
40.9200 13.6241 0.0577
40.9400 13.6308 0.0508
40.9600 13.6374 0.0441
40.9800 13.6440 0.0531
41.0000 13.6507 0.0503
41.0200 13.6573 0.0492
41.0400 13.6640 0.0543
41.0600 13.6707 0.0518
41.0800 13.6774 0.0466
41.1000 13.6841 0.0537
41.1200 13.6908 0.0535
41.1400 13.6974 0.0434
41.1600 13.7040 0.0624
41.1800 13.7106 0.0502
41.2000 13.7173 0.0425
41.2200 13.7240 0.0633
41.2400 13.7307 0.0475
41.2600 13.7374 0.0443
41.2800 13.7440 0.0634
41.3000 13.7507 0.0488
41.3200 13.7574 0.0458
41.3400 13.7640 0.0586
41.3600 13.7706 0.0537
41.3800 13.7773 0.0469
41.4000 13.7840 0.0630
41.4200 13.7907 0.0480
41.4400 13.7974 0.0496
41.4600 13.8040 0.0646
41.4800 13.8107 0.0476
41.5000 13.8174 0.0504
41.5200 13.8240 0.0653
41.5400 13.8306 0.0474
41.5600 13.8373 0.0508
41.5800 13.8440 0.0642
41.6000 13.8507 0.0478
41.6200 13.8574 0.0509
41.6400 13.8641 0.0617
41.6600 13.8708 0.0528
41.6800 13.8774 0.0520
41.7000 13.8841 0.0633
41.7200 13.8907 0.0491
41.7400 13.8973 0.0524
41.7600 13.9040 0.0616
41.7800 13.9107 0.0560
41.8000 13.9174 0.0464
41.8200 13.9241 0.0630
41.8400 13.9308 0.0514
41.8600 13.9375 0.0473
41.8800 13.9441 0.0615
41.9000 13.9507 0.0535
41.9200 13.9573 0.0522
41.9400 13.9640 0.0596
41.9600 13.9707 0.0562
41.9800 13.9774 0.0521
42.0000 13.9840 0.0593
42.0200 13.9907 0.0522
42.0400 13.9974 0.0451
42.0600 14.0040 0.0594
42.0800 14.0106 0.0551
42.1000 14.0173 0.0479
42.1200 14.0240 0.0639
42.1400 14.0307 0.0507
42.1600 14.0373 0.0466
42.1800 14.0440 0.0649
42.2000 14.0507 0.0569
42.2200 14.0574 0.0452
42.2400 14.0640 0.0653
42.2600 14.0707 0.0556
42.2800 14.0773 0.0499
42.3000 14.0840 0.0662
42.3200 14.0907 0.0541
42.3400 14.0974 0.0474
42.3600 14.1041 0.0623
42.3800 14.1108 0.0533
42.4000 14.1175 0.0458
42.4200 14.1241 0.0627
42.4400 14.1307 0.0562
42.4600 14.1373 0.0471
42.4800 14.1440 0.0620
42.5000 14.1507 0.0590
42.5200 14.1574 0.0436
42.5400 14.1641 0.0644
42.5600 14.1708 0.0580
42.5800 14.1774 0.0440
42.6000 14.1840 0.0631
42.6200 14.1906 0.0620
42.6400 14.1973 0.0472
42.6600 14.2040 0.0667
42.6800 14.2107 0.0560
42.7000 14.2174 0.0529
42.7200 14.2241 0.0675
42.7400 14.2307 0.0553
42.7600 14.2374 0.0493
42.7800 14.2440 0.0697
42.8000 14.2506 0.0547
42.8200 14.2572 0.0552
42.8400 14.2639 0.0699
42.8600 14.2706 0.0576
42.8800 14.2773 0.0585
42.9000 14.2840 0.0601
42.9200 14.2907 0.0611
42.9400 14.2974 0.0577
42.9600 14.3040 0.0578
42.9800 14.3106 0.0572
43.0000 14.3172 0.0587
43.0200 14.3239 0.0588
43.0400 14.3307 0.0615
43.0600 14.3374 0.0556
43.0800 14.3441 0.0531
43.1000 14.3508 0.0616
43.1200 14.3575 0.0566
43.1400 14.3641 0.0548
43.1600 14.3707 0.0695
43.1800 14.3774 0.0572
43.2000 14.3840 0.0543
43.2200 14.3907 0.0698
43.2400 14.3974 0.0560
43.2600 14.4041 0.0599
43.2800 14.4108 0.0683
43.3000 14.4174 0.0499
43.3200 14.4241 0.0625
43.3400 14.4307 0.0662
43.3600 14.4373 0.0541
43.3800 14.4439 0.0653
43.4000 14.4506 0.0616
43.4200 14.4574 0.0528
43.4400 14.4640 0.0613
43.4600 14.4707 0.0649
43.4800 14.4774 0.0543
43.5000 14.4840 0.0598
43.5200 14.4906 0.0653
43.5400 14.4972 0.0576
43.5600 14.5039 0.0565
43.5800 14.5107 0.0658
43.6000 14.5174 0.0552
43.6200 14.5241 0.0570
43.6400 14.5307 0.0641
43.6600 14.5374 0.0581
43.6800 14.5441 0.0576
43.7000 14.5507 0.0629
43.7200 14.5573 0.0537
43.7400 14.5640 0.0594
43.7600 14.5707 0.0646
43.7800 14.5774 0.0562
43.8000 14.5841 0.0597
43.8200 14.5908 0.0620
43.8400 14.5975 0.0568
43.8600 14.6041 0.0544
43.8800 14.6107 0.0641
43.9000 14.6173 0.0604
43.9200 14.6239 0.0578
43.9400 14.6307 0.0609
43.9600 14.6374 0.0578
43.9800 14.6441 0.0545
44.0000 14.6508 0.0631
44.0200 14.6574 0.0573
44.0400 14.6641 0.0515
44.0600 14.6707 0.0642
44.0800 14.6773 0.0573
44.1000 14.6839 0.0491
44.1200 14.6907 0.0692
44.1400 14.6974 0.0590
44.1600 14.7040 0.0500
44.1800 14.7107 0.0594
44.2000 14.7174 0.0581
44.2200 14.7240 0.0488
44.2400 14.7307 0.0596
44.2600 14.7373 0.0640
44.2800 14.7440 0.0444
44.3000 14.7507 0.0617
44.3200 14.7573 0.0602
44.3400 14.7640 0.0496
44.3600 14.7707 0.0634
44.3800 14.7774 0.0632
44.4000 14.7841 0.0445
44.4200 14.7907 0.0615
44.4400 14.7973 0.0651
44.4600 14.8040 0.0466
44.4800 14.8107 0.0636
44.5000 14.8174 0.0642
44.5200 14.8241 0.0412
44.5400 14.8308 0.0625
44.5600 14.8374 0.0620
44.5800 14.8441 0.0415
44.6000 14.8507 0.0672
44.6200 14.8573 0.0617
44.6400 14.8640 0.0460
44.6600 14.8707 0.0681
44.6800 14.8774 0.0602
44.7000 14.8841 0.0462
44.7200 14.8908 0.0675
44.7400 14.8974 0.0528
44.7600 14.9041 0.0547
44.7800 14.9107 0.0682
44.8000 14.9173 0.0567
44.8200 14.9239 0.0560
44.8400 14.9306 0.0662
44.8600 14.9374 0.0531
44.8800 14.9440 0.0571
44.9000 14.9507 0.0591
44.9200 14.9574 0.0596
44.9400 14.9641 0.0563
44.9600 14.9706 0.0600
44.9800 14.9772 0.0620
45.0000 14.9839 0.0609
45.0200 14.9906 0.0583
45.0400 14.9973 0.0614
45.0600 15.0040 0.0610
45.0800 15.0107 0.0524
45.1000 15.0174 0.0652
45.1200 15.0241 0.0603
45.1400 15.0307 0.0554
45.1600 15.0373 0.0683
45.1800 15.0440 0.0569
45.2000 15.0507 0.0561
45.2200 15.0574 0.0732
45.2400 15.0641 0.0592
45.2600 15.0708 0.0585
45.2800 15.0775 0.0668
45.3000 15.0841 0.0617
45.3200 15.0907 0.0580
45.3400 15.0973 0.0723
45.3600 15.1040 0.0564
45.3800 15.1107 0.0582
45.4000 15.1174 0.0719
45.4200 15.1241 0.0530
45.4400 15.1307 0.0629
45.4600 15.1374 0.0678
45.4800 15.1441 0.0566
45.5000 15.1507 0.0638
45.5200 15.1573 0.0686
45.5400 15.1639 0.0577
45.5600 15.1706 0.0618
45.5800 15.1774 0.0654
45.6000 15.1841 0.0580
45.6200 15.1907 0.0583
45.6400 15.1974 0.0662
45.6600 15.2041 0.0588
45.6800 15.2107 0.0628
45.7000 15.2173 0.0618
45.7200 15.2240 0.0655
45.7400 15.2307 0.0602
45.7600 15.2374 0.0658
45.7800 15.2440 0.0649
45.8000 15.2507 0.0584
45.8200 15.2574 0.0670
45.8400 15.2641 0.0645
45.8600 15.2707 0.0559
45.8800 15.2773 0.0729
45.9000 15.2840 0.0654
45.9200 15.2906 0.0577
45.9400 15.2974 0.0691
45.9600 15.3041 0.0641
45.9800 15.3108 0.0556
46.0000 15.3174 0.0696
46.0200 15.3241 0.0654
46.0400 15.3307 0.0549
46.0600 15.3373 0.0740
46.0800 15.3440 0.0592
46.1000 15.3507 0.0605
46.1200 15.3574 0.0795
46.1400 15.3641 0.0600
46.1600 15.3708 0.0607
46.1800 15.3774 0.0755
46.2000 15.3841 0.0588
46.2200 15.3907 0.0630
46.2400 15.3973 0.0720
46.2600 15.4040 0.0622
46.2800 15.4107 0.0646
46.3000 15.4174 0.0686
46.3200 15.4240 0.0638
46.3400 15.4307 0.0663
46.3600 15.4374 0.0662
46.3800 15.4441 0.0640
46.4000 15.4507 0.0622
46.4200 15.4573 0.0703
46.4400 15.4639 0.0691
46.4600 15.4706 0.0585
46.4800 15.4773 0.0738
46.5000 15.4840 0.0684
46.5200 15.4907 0.0594
46.5400 15.4974 0.0747
46.5600 15.5041 0.0718
46.5800 15.5107 0.0580
46.6000 15.5173 0.0745
46.6200 15.5240 0.0741
46.6400 15.5307 0.0601
46.6600 15.5374 0.0728
46.6800 15.5441 0.0762
46.7000 15.5508 0.0547
46.7200 15.5575 0.0734
46.7400 15.5641 0.0732
46.7600 15.5707 0.0552
46.7800 15.5773 0.0792
46.8000 15.5840 0.0817
46.8200 15.5907 0.0571
46.8400 15.5974 0.0718
46.8600 15.6041 0.0775
46.8800 15.6108 0.0572
46.9000 15.6174 0.0761
46.9200 15.6241 0.0681
46.9400 15.6307 0.0583
46.9600 15.6373 0.0754
46.9800 15.6439 0.0753
47.0000 15.6506 0.0611
47.0200 15.6573 0.0781
47.0400 15.6640 0.0728
47.0600 15.6707 0.0584
47.0800 15.6774 0.0766
47.1000 15.6841 0.0709
47.1200 15.6907 0.0568
47.1400 15.6973 0.0773
47.1600 15.7039 0.0689
47.1800 15.7106 0.0633
47.2000 15.7173 0.0781
47.2200 15.7240 0.0665
47.2400 15.7307 0.0610
47.2600 15.7374 0.0787
47.2800 15.7440 0.0664
47.3000 15.7507 0.0623
47.3200 15.7573 0.0776
47.3400 15.7640 0.0642
47.3600 15.7706 0.0671
47.3800 15.7773 0.0747
47.4000 15.7840 0.0632
47.4200 15.7907 0.0671
47.4400 15.7974 0.0735
47.4600 15.8041 0.0636
47.4800 15.8108 0.0694
47.5000 15.8174 0.0678
47.5200 15.8240 0.0668
47.5400 15.8307 0.0697
47.5600 15.8374 0.0686
47.5800 15.8441 0.0608
47.6000 15.8507 0.0685
47.6200 15.8574 0.0707
47.6400 15.8641 0.0641
47.6600 15.8707 0.0698
47.6800 15.8773 0.0679
47.7000 15.8839 0.0683
47.7200 15.8906 0.0633
47.7400 15.8973 0.0705
47.7600 15.9040 0.0719
47.7800 15.9107 0.0630
47.8000 15.9174 0.0696
47.8200 15.9240 0.0702
47.8400 15.9307 0.0656
47.8600 15.9373 0.0736
47.8800 15.9439 0.0682
47.9000 15.9506 0.0664
47.9200 15.9573 0.0700
47.9400 15.9640 0.0686
47.9600 15.9707 0.0640
47.9800 15.9774 0.0734
48.0000 15.9841 0.0693
48.0200 15.9908 0.0632
48.0400 15.9974 0.0766
48.0600 16.0040 0.0704
48.0800 16.0106 0.0680
48.1000 16.0173 0.0735
48.1200 16.0240 0.0683
48.1400 16.0307 0.0714
48.1600 16.0374 0.0735
48.1800 16.0441 0.0728
48.2000 16.0507 0.0722
48.2200 16.0573 0.0720
48.2400 16.0640 0.0737
48.2600 16.0706 0.0731
48.2800 16.0773 0.0736
48.3000 16.0840 0.0691
48.3200 16.0907 0.0785
48.3400 16.0974 0.0682
48.3600 16.1041 0.0691
48.3800 16.1108 0.0761
48.4000 16.1174 0.0686
48.4200 16.1240 0.0726
48.4400 16.1306 0.0794
48.4600 16.1373 0.0663
48.4800 16.1440 0.0731
48.5000 16.1507 0.0802
48.5200 16.1574 0.0645
48.5400 16.1641 0.0703
48.5600 16.1707 0.0777
48.5800 16.1773 0.0661
48.6000 16.1839 0.0762
48.6200 16.1906 0.0777
48.6400 16.1973 0.0660
48.6600 16.2040 0.0773
48.6800 16.2107 0.0720
48.7000 16.2174 0.0680
48.7200 16.2241 0.0751
48.7400 16.2307 0.0761
48.7600 16.2373 0.0686
48.7800 16.2440 0.0767
48.8000 16.2506 0.0766
48.8200 16.2573 0.0698
48.8400 16.2640 0.0750
48.8600 16.2707 0.0725
48.8800 16.2774 0.0731
48.9000 16.2841 0.0742
48.9200 16.2908 0.0693
48.9400 16.2974 0.0747
48.9600 16.3040 0.0765
48.9800 16.3107 0.0746
49.0000 16.3173 0.0729
49.0200 16.3240 0.0710
49.0400 16.3307 0.0805
49.0600 16.3374 0.0682
49.0800 16.3441 0.0729
49.1000 16.3508 0.0780
49.1200 16.3574 0.0693
49.1400 16.3640 0.0698
49.1600 16.3706 0.0847
49.1800 16.3773 0.0699
49.2000 16.3841 0.0718
49.2200 16.3907 0.0803
49.2400 16.3974 0.0695
49.2600 16.4041 0.0733
49.2800 16.4107 0.0847
49.3000 16.4173 0.0597
49.3200 16.4239 0.0798
49.3400 16.4306 0.0842
49.3600 16.4373 0.0613
49.3800 16.4440 0.0783
49.4000 16.4507 0.0803
49.4200 16.4574 0.0633
49.4400 16.4640 0.0780
49.4600 16.4707 0.0812
49.4800 16.4774 0.0610
49.5000 16.4840 0.0799
49.5200 16.4906 0.0800
49.5400 16.4973 0.0615
49.5600 16.5040 0.0836
49.5800 16.5107 0.0808
49.6000 16.5174 0.0663
49.6200 16.5241 0.0814
49.6400 16.5308 0.0696
49.6600 16.5374 0.0687
49.6800 16.5440 0.0800
49.7000 16.5506 0.0768
49.7200 16.5574 0.0684
49.7400 16.5641 0.0801
49.7600 16.5708 0.0756
49.7800 16.5774 0.0656
49.8000 16.5841 0.0798
49.8200 16.5907 0.0794
49.8400 16.5974 0.0660
49.8600 16.6040 0.0749
49.8800 16.6106 0.0812
49.9000 16.6173 0.0672
49.9200 16.6240 0.0756
49.9400 16.6307 0.0834
49.9600 16.6374 0.0671
49.9800 16.6441 0.0744
50.0000 16.6507 0.0821
50.0200 16.6574 0.0668
50.0400 16.6639 0.0812
50.0600 16.6706 0.0852
50.0800 16.6773 0.0720
50.1000 16.6840 0.0782
50.1200 16.6907 0.0877
50.1400 16.6974 0.0715
50.1600 16.7041 0.0776
50.1800 16.7108 0.0857
50.2000 16.7174 0.0699
50.2200 16.7239 0.0770
50.2400 16.7306 0.0889
50.2600 16.7373 0.0716
50.2800 16.7440 0.0772
50.3000 16.7507 0.0868
50.3200 16.7574 0.0718
50.3400 16.7641 0.0829
50.3600 16.7708 0.0846
50.3800 16.7774 0.0733
50.4000 16.7840 0.0778
50.4200 16.7907 0.0914
50.4400 16.7973 0.0767
50.4600 16.8040 0.0805
50.4800 16.8107 0.0964
50.5000 16.8174 0.0717
50.5200 16.8241 0.0800
50.5400 16.8308 0.0952
50.5600 16.8374 0.0683
50.5800 16.8440 0.0845
50.6000 16.8506 0.0954
50.6200 16.8573 0.0705
50.6400 16.8640 0.0825
50.6600 16.8707 0.0937
50.6800 16.8774 0.0711
50.7000 16.8841 0.0821
50.7200 16.8907 0.0865
50.7400 16.8973 0.0745
50.7600 16.9039 0.0872
50.7800 16.9106 0.0865
50.8000 16.9173 0.0765
50.8200 16.9240 0.0828
50.8400 16.9307 0.0856
50.8600 16.9373 0.0783
50.8800 16.9440 0.0811
50.9000 16.9507 0.0823
50.9200 16.9573 0.0813
50.9400 16.9640 0.0800
50.9600 16.9706 0.0843
50.9800 16.9773 0.0819
51.0000 16.9840 0.0812
51.0200 16.9907 0.0828
51.0400 16.9974 0.0820
51.0600 17.0041 0.0773
51.0800 17.0108 0.0850
51.1000 17.0174 0.0823
51.1200 17.0240 0.0762
51.1400 17.0306 0.0887
51.1600 17.0373 0.0807
51.1800 17.0440 0.0723
51.2000 17.0508 0.0906
51.2200 17.0574 0.0854
51.2400 17.0641 0.0725
51.2600 17.0708 0.0887
51.2800 17.0774 0.0842
51.3000 17.0840 0.0747
51.3200 17.0906 0.0897
51.3400 17.0973 0.0868
51.3600 17.1040 0.0722
51.3800 17.1107 0.0924
51.4000 17.1174 0.0812
51.4200 17.1241 0.0770
51.4400 17.1307 0.0915
51.4600 17.1374 0.0782
51.4800 17.1440 0.0803
51.5000 17.1506 0.0958
51.5200 17.1573 0.0795
51.5400 17.1640 0.0839
51.5600 17.1707 0.0915
51.5800 17.1774 0.0825
51.6000 17.1840 0.0839
51.6200 17.1907 0.0883
51.6400 17.1974 0.0844
51.6600 17.2040 0.0825
51.6800 17.2106 0.0889
51.7000 17.2173 0.0839
51.7200 17.2240 0.0827
51.7400 17.2307 0.0852
51.7600 17.2374 0.0856
51.7800 17.2441 0.0855
51.8000 17.2508 0.0889
51.8200 17.2574 0.0857
51.8400 17.2640 0.0842
51.8600 17.2706 0.0884
51.8800 17.2773 0.0930
51.9000 17.2841 0.0801
51.9200 17.2908 0.0854
51.9400 17.2974 0.0898
51.9600 17.3041 0.0834
51.9800 17.3107 0.0868
52.0000 17.3174 0.0876
52.0200 17.3240 0.0826
52.0400 17.3306 0.0860
52.0600 17.3373 0.0883
52.0800 17.3440 0.0818
52.1000 17.3507 0.0919
52.1200 17.3574 0.0820
52.1400 17.3640 0.0838
52.1600 17.3707 0.0884
52.1800 17.3774 0.0850
52.2000 17.3840 0.0861
52.2200 17.3906 0.0887
52.2400 17.3973 0.0889
52.2600 17.4040 0.0876
52.2800 17.4107 0.0858
52.3000 17.4174 0.0896
52.3200 17.4241 0.0862
52.3400 17.4308 0.0862
52.3600 17.4374 0.0899
52.3800 17.4440 0.0870
52.4000 17.4506 0.0835
52.4200 17.4573 0.0943
52.4400 17.4640 0.0933
52.4600 17.4707 0.0836
52.4800 17.4774 0.0956
52.5000 17.4841 0.0904
52.5200 17.4908 0.0834
52.5400 17.4974 0.0915
52.5600 17.5040 0.0904
52.5800 17.5106 0.0832
52.6000 17.5173 0.0977
52.6200 17.5240 0.0898
52.6400 17.5307 0.0840
52.6600 17.5374 0.0982
52.6800 17.5441 0.0876
52.7000 17.5508 0.0814
52.7200 17.5574 0.0955
52.7400 17.5640 0.0902
52.7600 17.5706 0.0868
52.7800 17.5773 0.0953
52.8000 17.5840 0.0899
52.8200 17.5907 0.0839
52.8400 17.5974 0.0942
52.8600 17.6041 0.0897
52.8800 17.6107 0.0867
52.9000 17.6174 0.0935
52.9200 17.6240 0.0854
52.9400 17.6306 0.0887
52.9600 17.6372 0.0963
52.9800 17.6440 0.0895
53.0000 17.6507 0.0834
53.0200 17.6573 0.0958
53.0400 17.6640 0.0870
53.0600 17.6707 0.0881
53.0800 17.6774 0.0947
53.1000 17.6840 0.0871
53.1200 17.6906 0.0876
53.1400 17.6973 0.0951
53.1600 17.7040 0.0897
53.1800 17.7107 0.0822
53.2000 17.7174 0.0917
53.2200 17.7241 0.0951
53.2400 17.7308 0.0789
53.2600 17.7375 0.0918
53.2800 17.7440 0.0902
53.3000 17.7506 0.0818
53.3200 17.7573 0.0947
53.3400 17.7640 0.0914
53.3600 17.7708 0.0812
53.3800 17.7775 0.0932
53.4000 17.7841 0.0916
53.4200 17.7908 0.0816
53.4400 17.7974 0.0959
53.4600 17.8040 0.0930
53.4800 17.8106 0.0829
53.5000 17.8173 0.0939
53.5200 17.8240 0.0938
53.5400 17.8307 0.0812
53.5600 17.8373 0.0987
53.5800 17.8440 0.0945
53.6000 17.8507 0.0799
53.6200 17.8574 0.0966
53.6400 17.8640 0.0911
53.6600 17.8706 0.0809
53.6800 17.8772 0.1050
53.7000 17.8839 0.0881
53.7200 17.8907 0.0789
53.7400 17.8974 0.1033
53.7600 17.9040 0.0877
53.7800 17.9107 0.0847
53.8000 17.9174 0.1046
53.8200 17.9240 0.0848
53.8400 17.9306 0.0862
53.8600 17.9373 0.1022
53.8800 17.9440 0.0840
53.9000 17.9507 0.0904
53.9200 17.9574 0.0960
53.9400 17.9641 0.0874
53.9600 17.9708 0.0881
53.9800 17.9774 0.0946
54.0000 17.9841 0.0876
54.0200 17.9907 0.0927
54.0400 17.9973 0.0952
54.0600 18.0040 0.0889
54.0800 18.0107 0.0868
54.1000 18.0174 0.0911
54.1200 18.0241 0.0947
54.1400 18.0308 0.0857
54.1600 18.0374 0.0880
54.1800 18.0440 0.0949
54.2000 18.0506 0.0858
54.2200 18.0573 0.0921
54.2400 18.0640 0.1002
54.2600 18.0707 0.0824
54.2800 18.0774 0.0927
54.3000 18.0841 0.0936
54.3200 18.0907 0.0851
54.3400 18.0974 0.0889
54.3600 18.1040 0.0928
54.3800 18.1106 0.0826
54.4000 18.1172 0.0931
54.4200 18.1240 0.0984
54.4400 18.1307 0.0815
54.4600 18.1374 0.0946
54.4800 18.1440 0.0990
54.5000 18.1507 0.0811
54.5200 18.1574 0.0924
54.5400 18.1641 0.0963
54.5600 18.1707 0.0849
54.5800 18.1773 0.0913
54.6000 18.1840 0.0947
54.6200 18.1907 0.0840
54.6400 18.1974 0.0927
54.6600 18.2041 0.0901
54.6800 18.2108 0.0867
54.7000 18.2175 0.0953
54.7200 18.2241 0.0862
54.7400 18.2307 0.0828
54.7600 18.2373 0.0927
54.7800 18.2440 0.0960
54.8000 18.2507 0.0807
54.8200 18.2574 0.0889
54.8400 18.2641 0.0923
54.8600 18.2708 0.0850
54.8800 18.2774 0.0877
54.9000 18.2841 0.0932
54.9200 18.2907 0.0841
54.9400 18.2973 0.0931
54.9600 18.3040 0.0877
54.9800 18.3107 0.0821
55.0000 18.3174 0.0884
55.0200 18.3241 0.0919
55.0400 18.3307 0.0819
55.0600 18.3374 0.0817
55.0800 18.3440 0.0901
55.1000 18.3506 0.0879
55.1200 18.3572 0.0861
55.1400 18.3639 0.0937
55.1600 18.3707 0.0888
55.1800 18.3774 0.0827
55.2000 18.3841 0.0906
55.2200 18.3908 0.0891
55.2400 18.3974 0.0834
55.2600 18.4040 0.0901
55.2800 18.4106 0.0883
55.3000 18.4173 0.0843
55.3200 18.4240 0.0935
55.3400 18.4307 0.0868
55.3600 18.4374 0.0812
55.3800 18.4441 0.0912
55.4000 18.4508 0.0860
55.4200 18.4574 0.0829
55.4400 18.4641 0.0884
55.4600 18.4707 0.0867
55.4800 18.4773 0.0856
55.5000 18.4840 0.0868
55.5200 18.4907 0.0852
55.5400 18.4974 0.0809
55.5600 18.5041 0.0895
55.5800 18.5107 0.0886
55.6000 18.5174 0.0777
55.6200 18.5240 0.0927
55.6400 18.5306 0.0902
55.6600 18.5373 0.0862
55.6800 18.5439 0.0892
55.7000 18.5507 0.0874
55.7200 18.5574 0.0806
55.7400 18.5641 0.0890
55.7600 18.5707 0.0927
55.7800 18.5774 0.0785
55.8000 18.5840 0.0885
55.8200 18.5906 0.0880
55.8400 18.5973 0.0819
55.8600 18.6040 0.0937
55.8800 18.6107 0.0871
55.9000 18.6174 0.0811
55.9200 18.6241 0.0888
55.9400 18.6307 0.0856
55.9600 18.6374 0.0845
55.9800 18.6440 0.0888
56.0000 18.6506 0.0894
56.0200 18.6573 0.0810
56.0400 18.6640 0.0906
56.0600 18.6707 0.0875
56.0800 18.6774 0.0814
56.1000 18.6841 0.0921
56.1200 18.6907 0.0885
56.1400 18.6974 0.0774
56.1600 18.7041 0.0914
56.1800 18.7107 0.0884
56.2000 18.7173 0.0860
56.2200 18.7240 0.0926
56.2400 18.7307 0.0864
56.2600 18.7374 0.0851
56.2800 18.7441 0.0951
56.3000 18.7508 0.0882
56.3200 18.7575 0.0852
56.3400 18.7641 0.0952
56.3600 18.7707 0.0873
56.3800 18.7773 0.0868
56.4000 18.7840 0.0928
56.4200 18.7907 0.0927
56.4400 18.7974 0.0849
56.4600 18.8040 0.0931
56.4800 18.8107 0.0880
56.5000 18.8174 0.0863
56.5200 18.8240 0.0907
56.5400 18.8306 0.0957
56.5600 18.8373 0.0912
56.5800 18.8439 0.0962
56.6000 18.8507 0.0952
56.6200 18.8573 0.0869
56.6400 18.8640 0.0969
56.6600 18.8707 0.0976
56.6800 18.8774 0.0849
56.7000 18.8840 0.0954
56.7200 18.8907 0.1004
56.7400 18.8973 0.0910
56.7600 18.9040 0.0943
56.7800 18.9107 0.0973
56.8000 18.9174 0.0927
56.8200 18.9241 0.0993
56.8400 18.9308 0.0986
56.8600 18.9375 0.0926
56.8800 18.9441 0.0966
56.9000 18.9507 0.1028
56.9200 18.9573 0.0981
56.9400 18.9640 0.0930
56.9600 18.9707 0.1042
56.9800 18.9774 0.0977
57.0000 18.9841 0.0961
57.0200 18.9908 0.0995
57.0400 18.9974 0.0992
57.0600 19.0041 0.0937
57.0800 19.0107 0.1049
57.1000 19.0173 0.1000
57.1200 19.0240 0.0947
57.1400 19.0307 0.1052
57.1600 19.0374 0.0995
57.1800 19.0440 0.0876
57.2000 19.0507 0.1129
57.2200 19.0574 0.1021
57.2400 19.0641 0.0861
57.2600 19.0707 0.1093
57.2800 19.0772 0.1012
57.3000 19.0839 0.0925
57.3200 19.0906 0.1154
57.3400 19.0973 0.0969
57.3600 19.1040 0.0908
57.3800 19.1107 0.1150
57.4000 19.1174 0.0924
57.4200 19.1240 0.0970
57.4400 19.1306 0.1119
57.4600 19.1373 0.0900
57.4800 19.1440 0.0960
57.5000 19.1507 0.1162
57.5200 19.1574 0.0897
57.5400 19.1641 0.0973
57.5600 19.1708 0.1152
57.5800 19.1774 0.0856
57.6000 19.1841 0.0994
57.6200 19.1907 0.1139
57.6400 19.1974 0.0912
57.6600 19.2040 0.1024
57.6800 19.2107 0.1105
57.7000 19.2174 0.0884
57.7200 19.2241 0.1052
57.7400 19.2308 0.1081
57.7600 19.2374 0.0848
57.7800 19.2441 0.1010
57.8000 19.2507 0.1124
57.8200 19.2573 0.0852
57.8400 19.2640 0.1069
57.8600 19.2706 0.1080
57.8800 19.2774 0.0866
57.9000 19.2840 0.1027
57.9200 19.2907 0.1064
57.9400 19.2974 0.0891
57.9600 19.3040 0.1019
57.9800 19.3106 0.1016
58.0000 19.3173 0.0919
58.0200 19.3239 0.1071
58.0400 19.3307 0.1034
58.0600 19.3374 0.0863
58.0800 19.3441 0.1064
58.1000 19.3507 0.0969
58.1200 19.3574 0.0904
58.1400 19.3640 0.1059
58.1600 19.3707 0.0969
58.1800 19.3773 0.0989
58.2000 19.3840 0.1015
58.2200 19.3907 0.0959
58.2400 19.3974 0.0970
58.2600 19.4041 0.1071
58.2800 19.4107 0.0919
58.3000 19.4174 0.0952
58.3200 19.4241 0.1078
58.3400 19.4307 0.0959
58.3600 19.4373 0.0989
58.3800 19.4439 0.1075
58.4000 19.4507 0.1016
58.4200 19.4574 0.0998
58.4400 19.4641 0.1015
58.4600 19.4708 0.1004
58.4800 19.4774 0.1027
58.5000 19.4840 0.1013
58.5200 19.4907 0.1023
58.5400 19.4973 0.1038
58.5600 19.5040 0.1058
58.5800 19.5107 0.0996
58.6000 19.5174 0.1066
58.6200 19.5241 0.0982
58.6400 19.5307 0.1077
58.6600 19.5374 0.1060
58.6800 19.5440 0.0973
58.7000 19.5507 0.1030
58.7200 19.5573 0.1062
58.7400 19.5639 0.0998
58.7600 19.5706 0.1037
58.7800 19.5773 0.1007
58.8000 19.5840 0.1077
58.8200 19.5907 0.1041
58.8400 19.5974 0.1018
58.8600 19.6041 0.1041
58.8800 19.6107 0.1044
58.9000 19.6173 0.1057
58.9200 19.6240 0.1037
58.9400 19.6307 0.1052
58.9600 19.6374 0.1037
58.9800 19.6441 0.1017
59.0000 19.6508 0.1020
59.0200 19.6574 0.1094
59.0400 19.6641 0.1037
59.0600 19.6707 0.1011
59.0800 19.6773 0.1098
59.1000 19.6839 0.1112
59.1200 19.6907 0.1006
59.1400 19.6974 0.1136
59.1600 19.7041 0.1056
59.1800 19.7108 0.1033
59.2000 19.7174 0.1177
59.2200 19.7241 0.1057
59.2400 19.7307 0.0998
59.2600 19.7373 0.1226
59.2800 19.7439 0.1077
59.3000 19.7506 0.1040
59.3200 19.7573 0.1197
59.3400 19.7641 0.1103
59.3600 19.7707 0.1072
59.3800 19.7774 0.1168
59.4000 19.7841 0.1099
59.4200 19.7907 0.1083
59.4400 19.7973 0.1228
59.4600 19.8039 0.1083
59.4800 19.8106 0.1082
59.5000 19.8173 0.1212
59.5200 19.8240 0.1127
59.5400 19.8307 0.1086
59.5600 19.8374 0.1237
59.5800 19.8441 0.1077
59.6000 19.8507 0.1089
59.6200 19.8573 0.1249
59.6400 19.8640 0.1068
59.6600 19.8707 0.1054
59.6800 19.8774 0.1245
59.7000 19.8841 0.1072
59.7200 19.8908 0.1057
59.7400 19.8975 0.1258
59.7600 19.9041 0.1046
59.7800 19.9108 0.1063
59.8000 19.9174 0.1257
59.8200 19.9240 0.1047
59.8400 19.9307 0.1079
59.8600 19.9374 0.1253
59.8800 19.9441 0.1049
59.9000 19.9508 0.1095
59.9200 19.9574 0.1198
59.9400 19.9641 0.1078
59.9600 19.9707 0.1086
59.9800 19.9773 0.1212
60.0000 19.9839 0.1138
60.0200 19.9906 0.1109
60.0400 19.9973 0.1133
60.0490 20.0003 0.1043
