Raw Data
Time Displacement Force
(s) (mm) (N)
0.0000 0.0000 0.0002
0.0200 0.0000 0.0036
0.0400 0.0008 0.0310
0.0600 0.0040 0.0476
0.0800 0.0095 -0.0014
0.1000 0.0153 -0.0100
0.1200 0.0212 0.0246
0.1400 0.0277 0.0098
0.1600 0.0349 -0.0058
0.1800 0.0424 0.0136
0.2000 0.0498 -0.0095
0.2200 0.0567 -0.0035
0.2400 0.0634 0.0096
0.2600 0.0700 0.0024
0.2800 0.0767 0.0012
0.3000 0.0833 0.0119
0.3200 0.0900 -0.0030
0.3400 0.0967 0.0084
0.3600 0.1034 0.0112
0.3800 0.1101 -0.0070
0.4000 0.1168 0.0110
0.4200 0.1235 0.0098
0.4400 0.1302 -0.0057
0.4600 0.1368 0.0105
0.4800 0.1434 0.0073
0.5000 0.1500 -0.0019
0.5200 0.1567 0.0129
0.5400 0.1634 0.0045
0.5600 0.1701 0.0007
0.5800 0.1768 0.0115
0.6000 0.1835 0.0083
0.6200 0.1901 0.0012
0.6400 0.1968 0.0100
0.6600 0.2034 0.0056
0.6800 0.2100 0.0075
0.7000 0.2167 0.0108
0.7200 0.2234 0.0070
0.7400 0.2301 0.0063
0.7600 0.2368 0.0067
0.7800 0.2435 0.0013
0.8000 0.2501 0.0103
0.8200 0.2568 0.0075
0.8400 0.2634 -0.0018
0.8600 0.2700 0.0045
0.8800 0.2767 0.0120
0.9000 0.2834 0.0016
0.9200 0.2901 0.0022
0.9400 0.2968 0.0122
0.9600 0.3034 0.0062
0.9800 0.3101 0.0011
1.0000 0.3168 0.0083
1.0200 0.3235 0.0041
1.0400 0.3301 0.0065
1.0600 0.3367 0.0139
1.0800 0.3434 0.0009
1.1000 0.3501 0.0020
1.1200 0.3568 0.0062
1.1400 0.3635 0.0021
1.1600 0.3702 0.0075
1.1800 0.3768 0.0103
1.2000 0.3835 -0.0032
1.2200 0.3901 0.0094
1.2400 0.3967 0.0087
1.2600 0.4034 0.0087
1.2800 0.4101 0.0027
1.3000 0.4168 0.0070
1.3200 0.4235 0.0048
1.3400 0.4302 0.0096
1.3600 0.4368 0.0046
1.3800 0.4435 -0.0020
1.4000 0.4501 0.0087
1.4200 0.4567 0.0054
1.4400 0.4634 0.0019
1.4600 0.4701 0.0077
1.4800 0.4768 -0.0001
1.5000 0.4835 0.0022
1.5200 0.4902 0.0109
1.5400 0.4968 0.0039
1.5600 0.5034 -0.0017
1.5800 0.5100 0.0102
1.6000 0.5166 0.0079
1.6200 0.5233 -0.0014
1.6400 0.5301 0.0129
1.6600 0.5368 0.0021
1.6800 0.5435 -0.0016
1.7000 0.5501 0.0100
1.7200 0.5568 0.0099
1.7400 0.5634 -0.0017
1.7600 0.5701 0.0082
1.7800 0.5767 0.0044
1.8000 0.5834 -0.0021
1.8200 0.5901 0.0057
1.8400 0.5968 0.0070
1.8600 0.6035 0.0013
1.8800 0.6102 0.0029
1.9000 0.6169 0.0084
1.9200 0.6235 -0.0002
1.9400 0.6301 0.0096
1.9600 0.6367 0.0135
1.9800 0.6434 -0.0080
2.0000 0.6501 0.0076
2.0200 0.6568 0.0138
2.0400 0.6635 -0.0032
2.0600 0.6702 0.0113
2.0800 0.6768 0.0093
2.1000 0.6834 -0.0014
2.1200 0.6901 0.0096
2.1400 0.6967 0.0159
2.1600 0.7034 -0.0030
2.1800 0.7101 0.0115
2.2000 0.7168 0.0107
2.2200 0.7235 -0.0052
2.2400 0.7301 0.0126
2.2600 0.7368 0.0070
2.2800 0.7434 -0.0040
2.3000 0.7500 0.0229
2.3200 0.7567 0.0062
2.3400 0.7634 -0.0018
2.3600 0.7701 0.0192
2.3800 0.7768 0.0050
2.4000 0.7834 -0.0006
2.4200 0.7901 0.0219
2.4400 0.7968 0.0071
2.4600 0.8034 -0.0003
2.4800 0.8101 0.0202
2.5000 0.8167 0.0050
2.5200 0.8234 0.0100
2.5400 0.8301 0.0149
2.5600 0.8368 0.0017
2.5800 0.8435 0.0145
2.6000 0.8502 0.0156
2.6200 0.8568 0.0029
2.6400 0.8635 0.0113
2.6600 0.8701 0.0151
2.6800 0.8767 0.0119
2.7000 0.8834 0.0105
2.7200 0.8901 0.0162
2.7400 0.8968 0.0017
2.7600 0.9035 0.0134
2.7800 0.9102 0.0139
2.8000 0.9168 0.0127
2.8200 0.9235 0.0106
2.8400 0.9301 0.0105
2.8600 0.9367 0.0147
2.8800 0.9434 0.0116
2.9000 0.9501 0.0094
2.9200 0.9568 0.0127
2.9400 0.9634 0.0129
2.9600 0.9701 0.0057
2.9800 0.9768 0.0143
3.0000 0.9834 0.0189
3.0200 0.9901 0.0028
3.0400 0.9967 0.0122
3.0600 1.0033 0.0151
3.0800 1.0100 0.0114
3.1000 1.0167 0.0110
3.1200 1.0234 0.0024
3.1400 1.0301 0.0196
3.1600 1.0368 0.0127
3.1800 1.0434 -0.0006
3.2000 1.0501 0.0171
3.2200 1.0567 0.0255
3.2400 1.0634 -0.0033
3.2600 1.0701 0.0082
3.2800 1.0768 0.0237
3.3000 1.0835 0.0076
3.3200 1.0902 0.0091
3.3400 1.0969 0.0144
3.3600 1.1035 0.0103
3.3800 1.1101 0.0140
3.4000 1.1167 0.0103
3.4200 1.1234 0.0145
3.4400 1.1301 0.0198
3.4600 1.1368 0.0077
3.4800 1.1435 0.0069
3.5000 1.1502 0.0186
3.5200 1.1568 0.0144
3.5400 1.1635 0.0030
3.5600 1.1701 0.0170
3.5800 1.1767 0.0172
3.6000 1.1834 0.0063
3.6200 1.1900 0.0150
3.6400 1.1968 0.0140
3.6600 1.2035 0.0079
3.6800 1.2102 0.0134
3.7000 1.2168 0.0055
3.7200 1.2235 0.0137
3.7400 1.2301 0.0153
3.7600 1.2367 0.0098
3.7800 1.2433 0.0070
3.8000 1.2500 0.0159
3.8200 1.2568 0.0036
3.8400 1.2634 0.0124
3.8600 1.2701 0.0150
3.8800 1.2768 0.0034
3.9000 1.2834 0.0138
3.9200 1.2901 0.0087
3.9400 1.2967 0.0022
3.9600 1.3034 0.0204
3.9800 1.3101 0.0100
4.0000 1.3168 0.0039
4.0200 1.3235 0.0195
4.0400 1.3302 0.0101
4.0600 1.3369 0.0012
4.0800 1.3435 0.0164
4.1000 1.3501 0.0140
4.1200 1.3567 0.0053
4.1400 1.3634 0.0133
4.1600 1.3701 0.0078
4.1800 1.3768 0.0117
4.2000 1.3835 0.0073
4.2200 1.3902 0.0116
4.2400 1.3968 0.0152
4.2600 1.4035 0.0138
4.2800 1.4101 -0.0005
4.3000 1.4167 0.0181
4.3200 1.4234 0.0131
4.3400 1.4301 0.0037
4.3600 1.4368 0.0198
4.3800 1.4434 0.0155
4.4000 1.4501 0.0029
4.4200 1.4568 0.0171
4.4400 1.4634 0.0190
4.4600 1.4701 0.0070
4.4800 1.4767 0.0152
4.5000 1.4833 0.0138
4.5200 1.4900 0.0113
4.5400 1.4968 0.0152
4.5600 1.5035 0.0094
4.5800 1.5101 0.0110
4.6000 1.5168 0.0213
4.6200 1.5235 0.0060
4.6400 1.5301 0.0094
4.6600 1.5367 0.0262
4.6800 1.5434 0.0172
4.7000 1.5501 0.0021
4.7200 1.5568 0.0201
4.7400 1.5635 0.0190
4.7600 1.5702 0.0100
4.7800 1.5768 0.0095
4.8000 1.5835 0.0186
4.8200 1.5901 0.0164
4.8400 1.5967 0.0095
4.8600 1.6034 0.0116
4.8800 1.6101 0.0200
4.9000 1.6168 0.0157
4.9200 1.6234 0.0069
4.9400 1.6301 0.0157
4.9600 1.6368 0.0168
4.9800 1.6435 0.0044
5.0000 1.6501 0.0126
5.0200 1.6568 0.0162
5.0400 1.6634 0.0155
5.0600 1.6701 0.0129
5.0800 1.6768 0.0061
5.1000 1.6834 0.0162
5.1200 1.6901 0.0176
5.1400 1.6968 0.0110
5.1600 1.7035 0.0107
5.1800 1.7101 0.0146
5.2000 1.7167 0.0075
5.2200 1.7233 0.0187
5.2400 1.7300 0.0133
5.2600 1.7368 0.0103
5.2800 1.7434 0.0145
5.3000 1.7501 0.0146
5.3200 1.7567 0.0077
5.3400 1.7634 0.0169
5.3600 1.7701 0.0113
5.3800 1.7767 0.0120
5.4000 1.7834 0.0237
5.4200 1.7900 0.0091
5.4400 1.7967 0.0092
5.4600 1.8034 0.0255
5.4800 1.8101 0.0084
5.5000 1.8168 0.0088
5.5200 1.8235 0.0273
5.5400 1.8301 0.0121
5.5600 1.8368 0.0110
5.5800 1.8434 0.0258
5.6000 1.8501 0.0094
5.6200 1.8568 0.0102
5.6400 1.8635 0.0264
5.6600 1.8702 0.0086
5.6800 1.8768 0.0195
5.7000 1.8835 0.0227
5.7200 1.8901 0.0068
5.7400 1.8967 0.0163
5.7600 1.9034 0.0251
5.7800 1.9101 0.0081
5.8000 1.9168 0.0178
5.8200 1.9235 0.0193
5.8400 1.9301 0.0121
5.8600 1.9368 0.0196
5.8800 1.9435 0.0196
5.9000 1.9501 0.0090
5.9200 1.9567 0.0191
5.9400 1.9633 0.0244
5.9600 1.9700 0.0158
5.9800 1.9767 0.0143
6.0000 1.9834 0.0227
6.0200 1.9901 0.0185
6.0400 1.9968 0.0105
6.0600 2.0035 0.0214
6.0800 2.0101 0.0208
6.1000 2.0167 0.0134
6.1200 2.0234 0.0203
6.1400 2.0301 0.0201
6.1600 2.0368 0.0193
6.1800 2.0435 0.0256
6.2000 2.0502 0.0155
6.2200 2.0569 0.0159
6.2400 2.0635 0.0245
6.2600 2.0701 0.0178
6.2800 2.0767 0.0126
6.3000 2.0834 0.0312
6.3200 2.0901 0.0131
6.3400 2.0968 0.0128
6.3600 2.1035 0.0300
6.3800 2.1102 0.0156
6.4000 2.1168 0.0104
6.4200 2.1235 0.0300
6.4400 2.1301 0.0127
6.4600 2.1367 0.0137
6.4800 2.1434 0.0279
6.5000 2.1500 0.0131
6.5200 2.1567 0.0151
6.5400 2.1634 0.0251
6.5600 2.1701 0.0152
6.5800 2.1768 0.0215
6.6000 2.1835 0.0211
6.6200 2.1901 0.0138
6.6400 2.1967 0.0198
6.6600 2.2033 0.0240
6.6800 2.2100 0.0195
6.7000 2.2167 0.0171
6.7200 2.2234 0.0241
6.7400 2.2301 0.0144
6.7600 2.2368 0.0218
6.7800 2.2435 0.0229
6.8000 2.2501 0.0148
6.8200 2.2567 0.0220
6.8400 2.2634 0.0246
6.8600 2.2701 0.0102
6.8800 2.2768 0.0292
6.9000 2.2835 0.0204
6.9200 2.2901 0.0099
6.9400 2.2968 0.0287
6.9600 2.3035 0.0296
6.9800 2.3102 0.0021
7.0000 2.3168 0.0252
7.0200 2.3234 0.0288
7.0400 2.3301 0.0176
7.0600 2.3368 0.0266
7.0800 2.3435 0.0076
7.1000 2.3501 0.0209
7.1200 2.3568 0.0435
7.1400 2.3635 0.0079
7.1600 2.3702 0.0095
7.1800 2.3768 0.0486
7.2000 2.3834 0.0105
7.2200 2.3900 0.0045
7.2400 2.3967 0.0350
7.2600 2.4034 0.0199
7.2800 2.4101 0.0173
7.3000 2.4168 0.0208
7.3200 2.4235 0.0077
7.3400 2.4301 0.0419
7.3600 2.4367 0.0188
7.3800 2.4433 -0.0039
7.4000 2.4500 0.0433
7.4200 2.4567 0.0284
7.4400 2.4634 -0.0024
7.4600 2.4701 0.0324
7.4800 2.4767 0.0182
7.5000 2.4834 0.0147
7.5200 2.4901 0.0317
7.5400 2.4967 0.0038
7.5600 2.5034 0.0206
7.5800 2.5100 0.0369
7.6000 2.5167 0.0012
7.6200 2.5235 0.0197
7.6400 2.5302 0.0335
7.6600 2.5368 0.0022
7.6800 2.5435 0.0224
7.7000 2.5502 0.0242
7.7200 2.5568 0.0164
7.7400 2.5634 0.0307
7.7600 2.5700 0.0109
7.7800 2.5768 0.0072
7.8000 2.5835 0.0360
7.8200 2.5902 0.0120
7.8400 2.5968 0.0084
7.8600 2.6035 0.0246
7.8800 2.6101 0.0146
7.9000 2.6167 0.0142
7.9200 2.6233 0.0230
7.9400 2.6300 0.0165
7.9600 2.6367 0.0200
7.9800 2.6435 0.0143
8.0000 2.6501 0.0147
8.0200 2.6568 0.0271
8.0400 2.6635 0.0144
8.0600 2.6701 0.0141
8.0800 2.6768 0.0249
8.1000 2.6834 0.0157
8.1200 2.6900 0.0170
8.1400 2.6967 0.0222
8.1600 2.7034 0.0145
8.1800 2.7101 0.0180
8.2000 2.7167 0.0156
8.2200 2.7234 0.0116
8.2400 2.7301 0.0189
8.2600 2.7367 0.0163
8.2800 2.7433 0.0122
8.3000 2.7500 0.0207
8.3200 2.7567 0.0191
8.3400 2.7635 0.0146
8.3600 2.7702 0.0156
8.3800 2.7768 0.0194
8.4000 2.7835 0.0126
8.4200 2.7902 0.0174
8.4400 2.7968 0.0125
8.4600 2.8034 0.0161
8.4800 2.8100 0.0221
8.5000 2.8168 0.0120
8.5200 2.8235 0.0125
8.5400 2.8302 0.0189
8.5600 2.8368 0.0133
8.5800 2.8435 0.0160
8.6000 2.8501 0.0153
8.6200 2.8568 0.0157
8.6400 2.8634 0.0159
8.6600 2.8700 0.0153
8.6800 2.8767 0.0154
8.7000 2.8834 0.0134
8.7200 2.8901 0.0139
8.7400 2.8968 0.0182
8.7600 2.9035 0.0139
8.7800 2.9101 0.0120
8.8000 2.9168 0.0169
8.8200 2.9233 0.0128
8.8400 2.9300 0.0142
8.8600 2.9367 0.0215
8.8800 2.9434 0.0084
8.9000 2.9501 0.0119
8.9200 2.9568 0.0231
8.9400 2.9635 0.0089
8.9600 2.9701 0.0139
8.9800 2.9768 0.0141
9.0000 2.9834 0.0161
9.0200 2.9900 0.0159
9.0400 2.9967 0.0197
9.0600 3.0034 0.0089
9.0800 3.0101 0.0144
9.1000 3.0168 0.0207
9.1200 3.0235 0.0062
9.1400 3.0302 0.0182
9.1600 3.0368 0.0184
9.1800 3.0434 0.0121
9.2000 3.0500 0.0167
9.2200 3.0567 0.0214
9.2400 3.0634 0.0102
9.2600 3.0701 0.0138
9.2800 3.0768 0.0241
9.3000 3.0835 0.0108
9.3200 3.0902 0.0112
9.3400 3.0968 0.0209
9.3600 3.1034 0.0153
9.3800 3.1100 0.0167
9.4000 3.1168 0.0189
9.4200 3.1235 0.0119
9.4400 3.1302 0.0140
9.4600 3.1368 0.0191
9.4800 3.1435 0.0075
9.5000 3.1501 0.0258
9.5200 3.1568 0.0154
9.5400 3.1634 0.0015
9.5600 3.1700 0.0267
9.5800 3.1767 0.0185
9.6000 3.1834 0.0024
9.6200 3.1901 0.0250
9.6400 3.1968 0.0165
9.6600 3.2034 0.0060
9.6800 3.2101 0.0218
9.7000 3.2168 0.0171
9.7200 3.2234 0.0086
9.7400 3.2300 0.0187
9.7600 3.2367 0.0152
9.7800 3.2434 0.0126
9.8000 3.2502 0.0189
9.8200 3.2569 0.0086
9.8400 3.2636 0.0168
9.8600 3.2702 0.0222
9.8800 3.2768 0.0085
9.9000 3.2834 0.0099
9.9200 3.2900 0.0284
9.9400 3.2968 0.0119
9.9600 3.3035 0.0104
9.9800 3.3102 0.0206
10.0000 3.3168 0.0173
10.0200 3.3235 0.0136
10.0400 3.3302 0.0137
10.0600 3.3368 0.0151
10.0800 3.3434 0.0177
10.1000 3.3500 0.0162
10.1200 3.3567 0.0111
10.1400 3.3634 0.0187
10.1600 3.3701 0.0185
10.1800 3.3768 0.0145
10.2000 3.3835 0.0145
10.2200 3.3901 0.0186
10.2400 3.3968 0.0146
10.2600 3.4034 0.0132
10.2800 3.4100 0.0165
10.3000 3.4167 0.0182
10.3200 3.4234 0.0087
10.3400 3.4301 0.0138
10.3600 3.4368 0.0199
10.3800 3.4435 0.0142
10.4000 3.4501 0.0080
10.4200 3.4568 0.0198
10.4400 3.4634 0.0107
10.4600 3.4700 0.0125
10.4800 3.4767 0.0208
10.5000 3.4835 0.0110
10.5200 3.4902 0.0115
10.5400 3.4968 0.0179
10.5600 3.5035 0.0092
10.5800 3.5102 0.0148
10.6000 3.5168 0.0185
10.6200 3.5234 0.0098
10.6400 3.5301 0.0165
10.6600 3.5368 0.0163
10.6800 3.5434 0.0106
10.7000 3.5501 0.0123
10.7200 3.5568 0.0189
10.7400 3.5635 0.0121
10.7600 3.5702 0.0099
10.7800 3.5768 0.0171
10.8000 3.5834 0.0174
10.8200 3.5900 0.0129
10.8400 3.5967 0.0241
10.8600 3.6034 0.0161
10.8800 3.6101 0.0118
10.9000 3.6168 0.0206
10.9200 3.6235 0.0168
10.9400 3.6301 0.0102
10.9600 3.6368 0.0220
10.9800 3.6434 0.0163
11.0000 3.6500 0.0156
11.0200 3.6567 0.0210
11.0400 3.6634 0.0159
11.0600 3.6701 0.0113
11.0800 3.6768 0.0236
11.1000 3.6834 0.0150
11.1200 3.6901 0.0135
11.1400 3.6968 0.0256
11.1600 3.7034 0.0104
11.1800 3.7100 0.0167
11.2000 3.7167 0.0261
11.2200 3.7234 0.0094
11.2400 3.7301 0.0164
11.2600 3.7368 0.0285
11.2800 3.7435 0.0095
11.3000 3.7502 0.0141
11.3200 3.7568 0.0228
11.3400 3.7634 0.0111
11.3600 3.7700 0.0175
11.3800 3.7767 0.0259
11.4000 3.7834 0.0148
11.4200 3.7902 0.0145
11.4400 3.7968 0.0187
11.4600 3.8035 0.0180
11.4800 3.8102 0.0122
11.5000 3.8168 0.0220
11.5200 3.8234 0.0153
11.5400 3.8300 0.0109
11.5600 3.8367 0.0225
11.5800 3.8434 0.0156
11.6000 3.8501 0.0128
11.6200 3.8568 0.0221
11.6400 3.8635 0.0181
11.6600 3.8702 0.0105
11.6800 3.8768 0.0228
11.7000 3.8834 0.0145
11.7200 3.8900 0.0110
11.7400 3.8966 0.0256
11.7600 3.9034 0.0156
11.7800 3.9101 0.0071
11.8000 3.9168 0.0250
11.8200 3.9235 0.0185
11.8400 3.9302 0.0097
11.8600 3.9368 0.0192
11.8800 3.9434 0.0177
11.9000 3.9500 0.0096
11.9200 3.9567 0.0279
11.9400 3.9634 0.0111
11.9600 3.9702 0.0115
11.9800 3.9768 0.0239
12.0000 3.9835 0.0139
12.0200 3.9902 0.0128
12.0400 3.9968 0.0242
12.0600 4.0034 0.0177
12.0800 4.0101 0.0157
12.1000 4.0167 0.0195
12.1200 4.0235 0.0170
12.1400 4.0302 0.0179
12.1600 4.0368 0.0226
12.1800 4.0435 0.0146
12.2000 4.0502 0.0185
12.2200 4.0568 0.0223
12.2400 4.0634 0.0167
12.2600 4.0700 0.0186
12.2800 4.0767 0.0153
12.3000 4.0834 0.0230
12.3200 4.0901 0.0207
12.3400 4.0968 0.0178
12.3600 4.1035 0.0182
12.3800 4.1102 0.0203
12.4000 4.1168 0.0179
12.4200 4.1234 0.0175
12.4400 4.1300 0.0176
12.4600 4.1367 0.0232
12.4800 4.1434 0.0204
12.5000 4.1501 0.0196
12.5200 4.1568 0.0194
12.5400 4.1634 0.0254
12.5600 4.1701 0.0174
12.5800 4.1768 0.0181
12.6000 4.1834 0.0245
12.6200 4.1900 0.0168
12.6400 4.1967 0.0214
12.6600 4.2034 0.0228
12.6800 4.2101 0.0186
12.7000 4.2168 0.0222
12.7200 4.2235 0.0223
12.7400 4.2302 0.0198
12.7600 4.2368 0.0223
12.7800 4.2434 0.0199
12.8000 4.2501 0.0252
12.8200 4.2567 0.0225
12.8400 4.2634 0.0218
12.8600 4.2701 0.0241
12.8800 4.2768 0.0203
12.9000 4.2835 0.0182
12.9200 4.2902 0.0256
12.9400 4.2968 0.0197
12.9600 4.3034 0.0238
12.9800 4.3100 0.0236
13.0000 4.3167 0.0236
13.0200 4.3234 0.0249
13.0400 4.3301 0.0237
13.0600 4.3368 0.0180
13.0800 4.3435 0.0270
13.1000 4.3501 0.0224
13.1200 4.3568 0.0165
13.1400 4.3634 0.0285
13.1600 4.3700 0.0220
13.1800 4.3767 0.0155
13.2000 4.3834 0.0291
13.2200 4.3901 0.0220
13.2400 4.3967 0.0175
13.2600 4.4034 0.0332
13.2800 4.4101 0.0161
13.3000 4.4168 0.0210
13.3200 4.4234 0.0318
13.3400 4.4300 0.0173
13.3600 4.4367 0.0148
13.3800 4.4434 0.0310
13.4000 4.4501 0.0150
13.4200 4.4568 0.0190
13.4400 4.4635 0.0271
13.4600 4.4702 0.0190
13.4800 4.4768 0.0174
13.5000 4.4834 0.0267
13.5200 4.4900 0.0176
13.5400 4.4967 0.0266
13.5600 4.5034 0.0230
13.5800 4.5101 0.0146
13.6000 4.5168 0.0230
13.6200 4.5235 0.0223
13.6400 4.5301 0.0177
13.6600 4.5368 0.0248
13.6800 4.5434 0.0197
13.7000 4.5500 0.0214
13.7200 4.5567 0.0213
13.7400 4.5634 0.0199
13.7600 4.5701 0.0229
13.7800 4.5768 0.0166
13.8000 4.5835 0.0235
13.8200 4.5901 0.0303
13.8400 4.5968 0.0144
13.8600 4.6034 0.0162
13.8800 4.6100 0.0370
13.9000 4.6166 0.0135
13.9200 4.6233 0.0222
13.9400 4.6301 0.0308
13.9600 4.6367 0.0131
13.9800 4.6434 0.0225
14.0000 4.6501 0.0277
14.0200 4.6568 0.0104
14.0400 4.6634 0.0231
14.0600 4.6700 0.0252
14.0800 4.6767 0.0148
14.1000 4.6834 0.0225
14.1200 4.6901 0.0266
14.1400 4.6968 0.0140
14.1600 4.7035 0.0188
14.1800 4.7102 0.0285
14.2000 4.7169 0.0149
14.2200 4.7235 0.0228
14.2400 4.7301 0.0271
14.2600 4.7368 0.0178
14.2800 4.7435 0.0200
14.3000 4.7502 0.0304
14.3200 4.7568 0.0170
14.3400 4.7635 0.0153
14.3600 4.7702 0.0261
14.3800 4.7768 0.0203
14.4000 4.7835 0.0156
14.4200 4.7901 0.0321
14.4400 4.7967 0.0141
14.4600 4.8034 0.0203
14.4800 4.8101 0.0265
14.5000 4.8168 0.0155
14.5200 4.8234 0.0212
14.5400 4.8301 0.0269
14.5600 4.8368 0.0102
14.5800 4.8434 0.0207
14.6000 4.8500 0.0314
14.6200 4.8567 0.0098
14.6400 4.8634 0.0229
14.6600 4.8701 0.0253
14.6800 4.8768 0.0112
14.7000 4.8835 0.0220
14.7200 4.8901 0.0209
14.7400 4.8968 0.0120
14.7600 4.9035 0.0190
14.7800 4.9101 0.0195
14.8000 4.9167 0.0098
14.8200 4.9234 0.0212
14.8400 4.9301 0.0268
14.8600 4.9368 0.0090
14.8800 4.9435 0.0223
14.9000 4.9502 0.0197
14.9200 4.9569 0.0136
14.9400 4.9635 0.0206
14.9600 4.9700 0.0217
14.9800 4.9767 0.0157
15.0000 4.9834 0.0198
15.0200 4.9901 0.0154
15.0400 4.9968 0.0148
15.0600 5.0035 0.0185
15.0800 5.0102 0.0194
15.1000 5.0168 0.0131
15.1200 5.0234 0.0168
15.1400 5.0300 0.0213
15.1600 5.0367 0.0192
15.1800 5.0434 0.0169
15.2000 5.0501 0.0193
15.2200 5.0568 0.0223
15.2400 5.0635 0.0123
15.2600 5.0701 0.0191
15.2800 5.0768 0.0232
15.3000 5.0834 0.0153
15.3200 5.0900 0.0210
15.3400 5.0967 0.0216
15.3600 5.1034 0.0117
15.3800 5.1101 0.0292
15.4000 5.1167 0.0157
15.4200 5.1234 0.0086
15.4400 5.1301 0.0270
15.4600 5.1368 0.0222
15.4800 5.1435 0.0056
15.5000 5.1501 0.0299
15.5200 5.1567 0.0229
15.5400 5.1634 0.0136
15.5600 5.1701 0.0250
15.5800 5.1768 0.0181
15.6000 5.1835 0.0198
15.6200 5.1902 0.0283
15.6400 5.1968 0.0185
15.6600 5.2035 0.0172
15.6800 5.2101 0.0287
15.7000 5.2167 0.0230
15.7200 5.2234 0.0189
15.7400 5.2301 0.0269
15.7600 5.2368 0.0216
15.7800 5.2435 0.0160
15.8000 5.2502 0.0297
15.8200 5.2568 0.0190
15.8400 5.2635 0.0162
15.8600 5.2701 0.0265
15.8800 5.2767 0.0225
15.9000 5.2834 0.0121
15.9200 5.2901 0.0319
15.9400 5.2968 0.0261
15.9600 5.3035 0.0127
15.9800 5.3101 0.0319
16.0000 5.3168 0.0250
16.0200 5.3235 0.0089
16.0400 5.3300 0.0342
16.0600 5.3366 0.0232
16.0800 5.3433 0.0140
16.1000 5.3500 0.0335
16.1200 5.3568 0.0194
16.1400 5.3634 0.0158
16.1600 5.3701 0.0357
16.1800 5.3768 0.0171
16.2000 5.3835 0.0117
16.2200 5.3901 0.0356
16.2400 5.3967 0.0189
16.2600 5.4034 0.0147
16.2800 5.4101 0.0333
16.3000 5.4168 0.0216
16.3200 5.4235 0.0135
16.3400 5.4302 0.0307
16.3600 5.4369 0.0218
16.3800 5.4435 0.0172
16.4000 5.4501 0.0306
16.4200 5.4567 0.0210
16.4400 5.4634 0.0221
16.4600 5.4701 0.0332
16.4800 5.4768 0.0226
16.5000 5.4835 0.0239
16.5200 5.4902 0.0278
16.5400 5.4968 0.0244
16.5600 5.5035 0.0174
16.5800 5.5101 0.0305
16.6000 5.5167 0.0283
16.6200 5.5234 0.0211
16.6400 5.5301 0.0300
16.6600 5.5368 0.0274
16.6800 5.5434 0.0228
16.7000 5.5501 0.0306
16.7200 5.5568 0.0277
16.7400 5.5634 0.0199
16.7600 5.5701 0.0321
16.7800 5.5767 0.0250
16.8000 5.5834 0.0243
16.8200 5.5901 0.0323
16.8400 5.5968 0.0250
16.8600 5.6034 0.0177
16.8800 5.6101 0.0353
16.9000 5.6168 0.0257
16.9200 5.6235 0.0170
16.9400 5.6301 0.0315
16.9600 5.6367 0.0302
16.9800 5.6434 0.0184
17.0000 5.6501 0.0238
17.0200 5.6568 0.0303
17.0400 5.6635 0.0229
17.0600 5.6702 0.0263
17.0800 5.6768 0.0264
17.1000 5.6835 0.0191
17.1200 5.6901 0.0279
17.1400 5.6967 0.0280
17.1600 5.7034 0.0229
17.1800 5.7101 0.0272
17.2000 5.7168 0.0276
17.2200 5.7235 0.0204
17.2400 5.7302 0.0276
17.2600 5.7368 0.0261
17.2800 5.7435 0.0201
17.3000 5.7501 0.0329
17.3200 5.7567 0.0235
17.3400 5.7634 0.0219
17.3600 5.7701 0.0281
17.3800 5.7768 0.0254
17.4000 5.7834 0.0200
17.4200 5.7901 0.0294
17.4400 5.7968 0.0267
17.4600 5.8035 0.0235
17.4800 5.8101 0.0229
17.5000 5.8167 0.0286
17.5200 5.8233 0.0247
17.5400 5.8300 0.0245
17.5600 5.8367 0.0261
17.5800 5.8434 0.0255
17.6000 5.8501 0.0207
17.6200 5.8568 0.0272
17.6400 5.8635 0.0254
17.6600 5.8701 0.0215
17.6800 5.8767 0.0320
17.7000 5.8834 0.0223
17.7200 5.8901 0.0218
17.7400 5.8968 0.0299
17.7600 5.9035 0.0205
17.7800 5.9102 0.0210
17.8000 5.9168 0.0362
17.8200 5.9235 0.0188
17.8400 5.9301 0.0185
17.8600 5.9367 0.0329
17.8800 5.9434 0.0240
17.9000 5.9501 0.0187
17.9200 5.9568 0.0323
17.9400 5.9635 0.0168
17.9600 5.9702 0.0225
17.9800 5.9768 0.0305
18.0000 5.9835 0.0162
18.0200 5.9901 0.0229
18.0400 5.9967 0.0301
18.0600 6.0033 0.0173
18.0800 6.0100 0.0238
18.1000 6.0167 0.0282
18.1200 6.0234 0.0189
18.1400 6.0301 0.0216
18.1600 6.0368 0.0266
18.1800 6.0435 0.0179
18.2000 6.0501 0.0172
18.2200 6.0567 0.0301
18.2400 6.0633 0.0179
18.2600 6.0700 0.0219
18.2800 6.0768 0.0280
18.3000 6.0834 0.0173
18.3200 6.0901 0.0196
18.3400 6.0968 0.0294
18.3600 6.1034 0.0183
18.3800 6.1101 0.0210
18.4000 6.1167 0.0245
18.4200 6.1234 0.0230
18.4400 6.1301 0.0246
18.4600 6.1368 0.0277
18.4800 6.1435 0.0142
18.5000 6.1502 0.0227
18.5200 6.1569 0.0254
18.5400 6.1635 0.0220
18.5600 6.1701 0.0216
18.5800 6.1767 0.0265
18.6000 6.1834 0.0175
18.6200 6.1901 0.0191
18.6400 6.1968 0.0293
18.6600 6.2035 0.0212
18.6800 6.2102 0.0141
18.7000 6.2168 0.0276
18.7200 6.2235 0.0203
18.7400 6.2301 0.0131
18.7600 6.2367 0.0287
18.7800 6.2433 0.0230
18.8000 6.2500 0.0150
18.8200 6.2568 0.0245
18.8400 6.2634 0.0252
18.8600 6.2701 0.0126
18.8800 6.2768 0.0294
18.9000 6.2834 0.0208
18.9200 6.2901 0.0132
18.9400 6.2967 0.0278
18.9600 6.3033 0.0200
18.9800 6.3100 0.0180
19.0000 6.3167 0.0228
19.0200 6.3234 0.0167
19.0400 6.3301 0.0223
19.0600 6.3368 0.0198
19.0800 6.3435 0.0210
19.1000 6.3501 0.0205
19.1200 6.3567 0.0198
19.1400 6.3634 0.0215
19.1600 6.3701 0.0231
19.1800 6.3768 0.0179
19.2000 6.3835 0.0240
19.2200 6.3902 0.0245
19.2400 6.3968 0.0185
19.2600 6.4035 0.0287
19.2800 6.4101 0.0213
19.3000 6.4167 0.0125
19.3200 6.4234 0.0300
19.3400 6.4301 0.0217
19.3600 6.4368 0.0125
19.3800 6.4435 0.0304
19.4000 6.4501 0.0189
19.4200 6.4568 0.0164
19.4400 6.4635 0.0290
19.4600 6.4701 0.0202
19.4800 6.4768 0.0163
19.5000 6.4834 0.0362
19.5200 6.4901 0.0142
19.5400 6.4968 0.0176
19.5600 6.5034 0.0313
19.5800 6.5101 0.0148
19.6000 6.5168 0.0198
19.6200 6.5235 0.0277
19.6400 6.5301 0.0161
19.6600 6.5367 0.0270
19.6800 6.5433 0.0234
19.7000 6.5500 0.0143
19.7200 6.5567 0.0283
19.7400 6.5634 0.0195
19.7600 6.5701 0.0150
19.7800 6.5768 0.0314
19.8000 6.5834 0.0226
19.8200 6.5901 0.0142
19.8400 6.5967 0.0331
19.8600 6.6034 0.0180
19.8800 6.6100 0.0225
19.9000 6.6168 0.0240
19.9200 6.6235 0.0229
19.9400 6.6301 0.0219
19.9600 6.6368 0.0241
19.9800 6.6435 0.0219
20.0000 6.6501 0.0210
20.0200 6.6568 0.0276
20.0400 6.6634 0.0206
20.0600 6.6701 0.0211
20.0800 6.6768 0.0274
20.1000 6.6835 0.0210
20.1200 6.6902 0.0238
20.1400 6.6968 0.0213
20.1600 6.7035 0.0249
20.1800 6.7101 0.0252
20.2000 6.7167 0.0181
20.2200 6.7233 0.0270
20.2400 6.7300 0.0255
20.2600 6.7368 0.0179
20.2800 6.7435 0.0268
20.3000 6.7501 0.0277
20.3200 6.7568 0.0162
20.3400 6.7635 0.0240
20.3600 6.7701 0.0307
20.3800 6.7767 0.0136
20.4000 6.7834 0.0254
20.4200 6.7900 0.0299
20.4400 6.7967 0.0091
20.4600 6.8034 0.0298
20.4800 6.8101 0.0252
20.5000 6.8167 0.0150
20.5200 6.8234 0.0322
20.5400 6.8301 0.0254
20.5600 6.8367 0.0116
20.5800 6.8434 0.0298
20.6000 6.8500 0.0261
20.6200 6.8568 0.0130
20.6400 6.8635 0.0298
20.6600 6.8702 0.0270
20.6800 6.8769 0.0154
20.7000 6.8835 0.0300
20.7200 6.8902 0.0247
20.7400 6.8968 0.0206
20.7600 6.9034 0.0341
20.7800 6.9101 0.0240
20.8000 6.9168 0.0174
20.8200 6.9235 0.0287
20.8400 6.9301 0.0247
20.8600 6.9368 0.0151
20.8800 6.9435 0.0320
20.9000 6.9501 0.0206
20.9200 6.9567 0.0191
20.9400 6.9634 0.0276
20.9600 6.9700 0.0263
20.9800 6.9767 0.0150
21.0000 6.9834 0.0269
21.0200 6.9901 0.0266
21.0400 6.9968 0.0163
21.0600 7.0035 0.0261
21.0800 7.0101 0.0288
21.1000 7.0167 0.0132
21.1200 7.0233 0.0315
21.1400 7.0300 0.0332
21.1600 7.0367 0.0143
21.1800 7.0434 0.0277
21.2000 7.0501 0.0305
21.2200 7.0568 0.0096
21.2400 7.0635 0.0338
21.2600 7.0701 0.0317
21.2800 7.0767 0.0083
21.3000 7.0834 0.0375
21.3200 7.0900 0.0303
21.3400 7.0968 0.0061
21.3600 7.1035 0.0387
21.3800 7.1101 0.0324
21.4000 7.1168 0.0047
21.4200 7.1235 0.0402
21.4400 7.1302 0.0232
21.4600 7.1368 0.0143
21.4800 7.1434 0.0347
21.5000 7.1501 0.0294
21.5200 7.1568 0.0166
21.5400 7.1635 0.0320
21.5600 7.1701 0.0229
21.5800 7.1768 0.0190
21.6000 7.1835 0.0331
21.6200 7.1902 0.0212
21.6400 7.1968 0.0166
21.6600 7.2034 0.0328
21.6800 7.2100 0.0220
21.7000 7.2167 0.0223
21.7200 7.2234 0.0319
21.7400 7.2301 0.0204
21.7600 7.2368 0.0195
21.7800 7.2435 0.0264
21.8000 7.2501 0.0231
21.8200 7.2567 0.0242
21.8400 7.2633 0.0243
21.8600 7.2700 0.0228
21.8800 7.2767 0.0272
21.9000 7.2834 0.0168
21.9200 7.2901 0.0269
21.9400 7.2968 0.0291
21.9600 7.3035 0.0160
21.9800 7.3101 0.0242
22.0000 7.3168 0.0286
22.0200 7.3234 0.0188
22.0400 7.3300 0.0301
22.0600 7.3368 0.0233
22.0800 7.3435 0.0201
22.1000 7.3502 0.0338
22.1200 7.3568 0.0208
22.1400 7.3635 0.0185
22.1600 7.3702 0.0365
22.1800 7.3768 0.0177
22.2000 7.3834 0.0252
22.2200 7.3900 0.0386
22.2400 7.3967 0.0127
22.2600 7.4035 0.0281
22.2800 7.4102 0.0359
22.3000 7.4168 0.0101
22.3200 7.4235 0.0384
22.3400 7.4302 0.0322
22.3600 7.4368 0.0012
22.3800 7.4434 0.0444
22.4000 7.4500 0.0358
22.4200 7.4567 0.0073
22.4400 7.4634 0.0370
22.4600 7.4701 0.0308
22.4800 7.4768 0.0144
22.5000 7.4835 0.0374
22.5200 7.4901 0.0171
22.5400 7.4968 0.0271
22.5600 7.5034 0.0343
22.5800 7.5101 0.0147
22.6000 7.5167 0.0268
22.6200 7.5234 0.0301
22.6400 7.5301 0.0167
22.6600 7.5367 0.0347
22.6800 7.5434 0.0195
22.7000 7.5501 0.0116
22.7200 7.5567 0.0344
22.7400 7.5634 0.0166
22.7600 7.5700 0.0245
22.7800 7.5767 0.0373
22.8000 7.5834 0.0083
22.8200 7.5902 0.0249
22.8400 7.5968 0.0323
22.8600 7.6035 0.0089
22.8800 7.6102 0.0380
22.9000 7.6168 0.0261
22.9200 7.6234 0.0072
22.9400 7.6300 0.0398
22.9600 7.6368 0.0241
22.9800 7.6435 0.0069
23.0000 7.6502 0.0403
23.0200 7.6568 0.0160
23.0400 7.6635 0.0113
23.0600 7.6702 0.0388
23.0800 7.6768 0.0184
23.1000 7.6834 0.0216
23.1200 7.6900 0.0399
23.1400 7.6967 0.0151
23.1600 7.7034 0.0214
23.1800 7.7101 0.0372
23.2000 7.7168 0.0150
23.2200 7.7234 0.0172
23.2400 7.7301 0.0324
23.2600 7.7367 0.0172
23.2800 7.7433 0.0237
23.3000 7.7500 0.0285
23.3200 7.7567 0.0198
23.3400 7.7634 0.0280
23.3600 7.7701 0.0251
23.3800 7.7768 0.0227
23.4000 7.7835 0.0269
23.4200 7.7901 0.0273
23.4400 7.7968 0.0211
23.4600 7.8034 0.0272
23.4800 7.8100 0.0259
23.5000 7.8167 0.0236
23.5200 7.8235 0.0266
23.5400 7.8301 0.0271
23.5600 7.8368 0.0265
23.5800 7.8435 0.0240
23.6000 7.8502 0.0281
23.6200 7.8568 0.0314
23.6400 7.8634 0.0186
23.6600 7.8700 0.0342
23.6800 7.8767 0.0303
23.7000 7.8834 0.0188
23.7200 7.8901 0.0335
23.7400 7.8968 0.0298
23.7600 7.9035 0.0232
23.7800 7.9102 0.0249
23.8000 7.9168 0.0303
23.8200 7.9234 0.0249
23.8400 7.9300 0.0275
23.8600 7.9367 0.0243
23.8800 7.9435 0.0268
23.9000 7.9502 0.0306
23.9200 7.9568 0.0231
23.9400 7.9635 0.0252
23.9600 7.9701 0.0371
23.9800 7.9768 0.0182
24.0000 7.9834 0.0273
24.0200 7.9900 0.0326
24.0400 7.9967 0.0265
24.0600 8.0034 0.0274
24.0800 8.0101 0.0286
24.1000 8.0167 0.0237
24.1200 8.0234 0.0334
24.1400 8.0301 0.0240
24.1600 8.0368 0.0222
24.1800 8.0434 0.0342
24.2000 8.0500 0.0221
24.2200 8.0567 0.0240
24.2400 8.0634 0.0316
24.2600 8.0701 0.0164
24.2800 8.0769 0.0299
24.3000 8.0836 0.0301
24.3200 8.0902 0.0145
24.3400 8.0968 0.0359
24.3600 8.1034 0.0342
24.3800 8.1100 0.0153
24.4000 8.1167 0.0339
24.4200 8.1235 0.0312
24.4400 8.1302 0.0125
24.4600 8.1368 0.0361
24.4800 8.1435 0.0243
24.5000 8.1502 0.0199
24.5200 8.1568 0.0378
24.5400 8.1634 0.0194
24.5600 8.1700 0.0166
24.5800 8.1767 0.0434
24.6000 8.1834 0.0183
24.6200 8.1901 0.0221
24.6400 8.1967 0.0454
24.6600 8.2034 0.0194
24.6800 8.2101 0.0173
24.7000 8.2168 0.0423
24.7200 8.2234 0.0151
24.7400 8.2300 0.0244
24.7600 8.2366 0.0396
24.7800 8.2434 0.0136
24.8000 8.2501 0.0264
24.8200 8.2568 0.0334
24.8400 8.2634 0.0161
24.8600 8.2701 0.0288
24.8800 8.2768 0.0315
24.9000 8.2834 0.0200
24.9200 8.2900 0.0338
24.9400 8.2967 0.0298
24.9600 8.3035 0.0178
24.9800 8.3102 0.0306
25.0000 8.3168 0.0370
25.0200 8.3235 0.0172
25.0400 8.3302 0.0275
25.0600 8.3368 0.0305
25.0800 8.3435 0.0246
25.1000 8.3501 0.0266
25.1200 8.3568 0.0307
25.1400 8.3635 0.0272
25.1600 8.3701 0.0267
25.1800 8.3768 0.0264
25.2000 8.3835 0.0281
25.2200 8.3902 0.0216
25.2400 8.3968 0.0313
25.2600 8.4034 0.0323
25.2800 8.4100 0.0226
25.3000 8.4167 0.0306
25.3200 8.4234 0.0289
25.3400 8.4301 0.0214
25.3600 8.4368 0.0306
25.3800 8.4435 0.0362
25.4000 8.4502 0.0182
25.4200 8.4568 0.0287
25.4400 8.4634 0.0326
25.4600 8.4700 0.0240
25.4800 8.4767 0.0329
25.5000 8.4834 0.0337
25.5200 8.4901 0.0196
25.5400 8.4968 0.0310
25.5600 8.5034 0.0325
25.5800 8.5101 0.0235
25.6000 8.5168 0.0289
25.6200 8.5234 0.0331
25.6400 8.5301 0.0194
25.6600 8.5367 0.0330
25.6800 8.5434 0.0298
25.7000 8.5501 0.0177
25.7200 8.5568 0.0338
25.7400 8.5635 0.0306
25.7600 8.5702 0.0180
25.7800 8.5769 0.0291
25.8000 8.5834 0.0346
25.8200 8.5900 0.0226
25.8400 8.5967 0.0306
25.8600 8.6034 0.0305
25.8800 8.6101 0.0240
25.9000 8.6168 0.0320
25.9200 8.6235 0.0334
25.9400 8.6302 0.0221
25.9600 8.6368 0.0351
25.9800 8.6434 0.0296
26.0000 8.6501 0.0233
26.0200 8.6567 0.0310
26.0400 8.6634 0.0315
26.0600 8.6701 0.0215
26.0800 8.6768 0.0353
26.1000 8.6834 0.0319
26.1200 8.6901 0.0233
26.1400 8.6968 0.0345
26.1600 8.7034 0.0267
26.1800 8.7100 0.0251
26.2000 8.7167 0.0395
26.2200 8.7234 0.0328
26.2400 8.7301 0.0230
26.2600 8.7368 0.0335
26.2800 8.7435 0.0334
26.3000 8.7502 0.0228
26.3200 8.7568 0.0360
26.3400 8.7634 0.0333
26.3600 8.7700 0.0263
26.3800 8.7767 0.0388
26.4000 8.7834 0.0321
26.4200 8.7901 0.0240
26.4400 8.7968 0.0393
26.4600 8.8035 0.0342
26.4800 8.8102 0.0245
26.5000 8.8168 0.0404
26.5200 8.8234 0.0288
26.5400 8.8300 0.0280
26.5600 8.8367 0.0405
26.5800 8.8434 0.0321
26.6000 8.8501 0.0302
26.6200 8.8568 0.0400
26.6400 8.8635 0.0269
26.6600 8.8701 0.0342
26.6800 8.8768 0.0431
26.7000 8.8834 0.0203
26.7200 8.8900 0.0332
26.7400 8.8967 0.0454
26.7600 8.9034 0.0291
26.7800 8.9101 0.0290
26.8000 8.9168 0.0367
26.8200 8.9234 0.0308
26.8400 8.9301 0.0380
26.8600 8.9368 0.0277
26.8800 8.9434 0.0341
26.9000 8.9500 0.0367
26.9200 8.9567 0.0219
26.9400 8.9634 0.0388
26.9600 8.9701 0.0386
26.9800 8.9768 0.0170
27.0000 8.9835 0.0454
27.0200 8.9901 0.0308
27.0400 8.9968 0.0178
27.0600 9.0034 0.0497
27.0800 9.0100 0.0265
27.1000 9.0167 0.0209
27.1200 9.0234 0.0544
27.1400 9.0301 0.0183
27.1600 9.0368 0.0201
27.1800 9.0435 0.0499
27.2000 9.0502 0.0169
27.2200 9.0568 0.0263
27.2400 9.0635 0.0525
27.2600 9.0701 0.0148
27.2800 9.0767 0.0290
27.3000 9.0834 0.0511
27.3200 9.0901 0.0120
27.3400 9.0968 0.0329
27.3600 9.1035 0.0460
27.3800 9.1102 0.0131
27.4000 9.1169 0.0310
27.4200 9.1234 0.0417
27.4400 9.1300 0.0189
27.4600 9.1367 0.0344
27.4800 9.1434 0.0383
27.5000 9.1501 0.0216
27.5200 9.1568 0.0353
27.5400 9.1634 0.0368
27.5600 9.1701 0.0169
27.5800 9.1768 0.0339
27.6000 9.1834 0.0354
27.6200 9.1900 0.0247
27.6400 9.1967 0.0271
27.6600 9.2034 0.0352
27.6800 9.2101 0.0279
27.7000 9.2168 0.0248
27.7200 9.2234 0.0348
27.7400 9.2301 0.0282
27.7600 9.2368 0.0187
27.7800 9.2434 0.0348
27.8000 9.2501 0.0316
27.8200 9.2567 0.0185
27.8400 9.2634 0.0388
27.8600 9.2701 0.0269
27.8800 9.2768 0.0190
27.9000 9.2835 0.0408
27.9200 9.2902 0.0274
27.9400 9.2969 0.0167
27.9600 9.3035 0.0409
27.9800 9.3101 0.0262
28.0000 9.3167 0.0190
28.0200 9.3234 0.0341
28.0400 9.3301 0.0276
28.0600 9.3368 0.0175
28.0800 9.3435 0.0421
28.1000 9.3501 0.0233
28.1200 9.3568 0.0146
28.1400 9.3634 0.0393
28.1600 9.3701 0.0281
28.1800 9.3767 0.0215
28.2000 9.3834 0.0377
28.2200 9.3901 0.0221
28.2400 9.3968 0.0185
28.2600 9.4035 0.0404
28.2800 9.4101 0.0253
28.3000 9.4168 0.0174
28.3200 9.4234 0.0384
28.3400 9.4300 0.0281
28.3600 9.4366 0.0211
28.3800 9.4433 0.0380
28.4000 9.4500 0.0249
28.4200 9.4568 0.0223
28.4400 9.4634 0.0359
28.4600 9.4701 0.0243
28.4800 9.4768 0.0197
28.5000 9.4834 0.0398
28.5200 9.4900 0.0252
28.5400 9.4967 0.0248
28.5600 9.5034 0.0388
28.5800 9.5101 0.0282
28.6000 9.5168 0.0213
28.6200 9.5235 0.0357
28.6400 9.5302 0.0297
28.6600 9.5368 0.0244
28.6800 9.5435 0.0311
28.7000 9.5501 0.0274
28.7200 9.5568 0.0296
28.7400 9.5634 0.0284
28.7600 9.5701 0.0243
28.7800 9.5768 0.0269
28.8000 9.5835 0.0286
28.8200 9.5902 0.0320
28.8400 9.5968 0.0297
28.8600 9.6034 0.0269
28.8800 9.6101 0.0335
28.9000 9.6167 0.0255
28.9200 9.6234 0.0295
28.9400 9.6301 0.0321
28.9600 9.6368 0.0250
28.9800 9.6434 0.0267
29.0000 9.6501 0.0340
29.0200 9.6568 0.0259
29.0400 9.6634 0.0319
29.0600 9.6700 0.0373
29.0800 9.6767 0.0276
29.1000 9.6834 0.0218
29.1200 9.6901 0.0421
29.1400 9.6968 0.0260
29.1600 9.7035 0.0249
29.1800 9.7101 0.0425
29.2000 9.7168 0.0250
29.2200 9.7235 0.0291
29.2400 9.7301 0.0390
29.2600 9.7367 0.0255
29.2800 9.7434 0.0315
29.3000 9.7501 0.0412
29.3200 9.7568 0.0244
29.3400 9.7635 0.0311
29.3600 9.7702 0.0404
29.3800 9.7768 0.0292
29.4000 9.7835 0.0280
29.4200 9.7901 0.0396
29.4400 9.7967 0.0279
29.4600 9.8034 0.0301
29.4800 9.8101 0.0333
29.5000 9.8168 0.0291
29.5200 9.8235 0.0322
29.5400 9.8301 0.0374
29.5600 9.8368 0.0277
29.5800 9.8434 0.0312
29.6000 9.8501 0.0380
29.6200 9.8567 0.0312
29.6400 9.8634 0.0295
29.6600 9.8701 0.0384
29.6800 9.8768 0.0319
29.7000 9.8834 0.0314
29.7200 9.8901 0.0367
29.7400 9.8968 0.0319
29.7600 9.9035 0.0323
29.7800 9.9101 0.0325
29.8000 9.9167 0.0372
29.8200 9.9233 0.0306
29.8400 9.9300 0.0361
29.8600 9.9367 0.0319
29.8800 9.9434 0.0326
29.9000 9.9501 0.0370
29.9200 9.9568 0.0343
29.9400 9.9635 0.0316
29.9600 9.9701 0.0326
29.9800 9.9767 0.0354
30.0000 9.9834 0.0336
30.0200 9.9901 0.0345
30.0400 9.9968 0.0360
30.0600 10.0035 0.0288
30.0800 10.0102 0.0381
30.1000 10.0168 0.0378
30.1200 10.0235 0.0310
30.1400 10.0301 0.0370
30.1600 10.0367 0.0403
30.1800 10.0434 0.0301
30.2000 10.0501 0.0352
30.2200 10.0568 0.0383
30.2400 10.0635 0.0345
30.2600 10.0701 0.0348
30.2800 10.0768 0.0391
30.3000 10.0835 0.0329
30.3200 10.0901 0.0347
30.3400 10.0967 0.0369
30.3600 10.1034 0.0303
30.3800 10.1100 0.0414
30.4000 10.1168 0.0373
30.4200 10.1235 0.0302
30.4400 10.1302 0.0391
30.4600 10.1368 0.0396
30.4800 10.1435 0.0286
30.5000 10.1501 0.0365
30.5200 10.1566 0.0405
30.5400 10.1633 0.0381
30.5600 10.1700 0.0316
30.5800 10.1767 0.0413
30.6000 10.1834 0.0329
30.6200 10.1901 0.0335
30.6400 10.1968 0.0413
30.6600 10.2034 0.0342
30.6800 10.2101 0.0367
30.7000 10.2167 0.0400
30.7200 10.2234 0.0294
30.7400 10.2301 0.0345
30.7600 10.2368 0.0441
30.7800 10.2435 0.0327
30.8000 10.2502 0.0368
30.8200 10.2569 0.0376
30.8400 10.2635 0.0350
30.8600 10.2702 0.0372
30.8800 10.2768 0.0420
30.9000 10.2834 0.0338
30.9200 10.2901 0.0397
30.9400 10.2968 0.0365
30.9600 10.3035 0.0347
30.9800 10.3102 0.0342
31.0000 10.3168 0.0384
31.0200 10.3235 0.0367
31.0400 10.3301 0.0340
31.0600 10.3367 0.0403
31.0800 10.3434 0.0398
31.1000 10.3501 0.0353
31.1200 10.3568 0.0411
31.1400 10.3635 0.0365
31.1600 10.3701 0.0348
31.1800 10.3768 0.0417
31.2000 10.3835 0.0375
31.2200 10.3901 0.0316
31.2400 10.3967 0.0447
31.2600 10.4034 0.0409
31.2800 10.4101 0.0299
31.3000 10.4168 0.0490
31.3200 10.4234 0.0359
31.3400 10.4301 0.0381
31.3600 10.4368 0.0467
31.3800 10.4435 0.0377
31.4000 10.4501 0.0308
31.4200 10.4567 0.0476
31.4400 10.4633 0.0385
31.4600 10.4700 0.0292
31.4800 10.4768 0.0522
31.5000 10.4835 0.0354
31.5200 10.4901 0.0285
31.5400 10.4968 0.0511
31.5600 10.5035 0.0293
31.5800 10.5101 0.0392
31.6000 10.5167 0.0485
31.6200 10.5234 0.0310
31.6400 10.5301 0.0365
31.6600 10.5368 0.0548
31.6800 10.5435 0.0325
31.7000 10.5502 0.0343
31.7200 10.5568 0.0551
31.7400 10.5635 0.0269
31.7600 10.5701 0.0374
31.7800 10.5767 0.0515
31.8000 10.5834 0.0285
31.8200 10.5901 0.0381
31.8400 10.5968 0.0488
31.8600 10.6034 0.0338
31.8800 10.6101 0.0378
31.9000 10.6168 0.0420
31.9200 10.6235 0.0360
31.9400 10.6301 0.0360
31.9600 10.6367 0.0484
31.9800 10.6433 0.0360
32.0000 10.6500 0.0367
32.0200 10.6567 0.0433
32.0400 10.6634 0.0413
32.0600 10.6701 0.0312
32.0800 10.6768 0.0468
32.1000 10.6835 0.0444
32.1200 10.6901 0.0311
32.1400 10.6967 0.0444
32.1600 10.7034 0.0472
32.1800 10.7101 0.0294
32.2000 10.7168 0.0441
32.2200 10.7235 0.0491
32.2400 10.7302 0.0295
32.2600 10.7368 0.0430
32.2800 10.7435 0.0465
32.3000 10.7501 0.0327
32.3200 10.7567 0.0471
32.3400 10.7634 0.0501
32.3600 10.7701 0.0326
32.3800 10.7768 0.0436
32.4000 10.7835 0.0426
32.4200 10.7902 0.0403
32.4400 10.7968 0.0450
32.4600 10.8035 0.0471
32.4800 10.8101 0.0370
32.5000 10.8167 0.0459
32.5200 10.8233 0.0487
32.5400 10.8300 0.0363
32.5600 10.8367 0.0456
32.5800 10.8434 0.0451
32.6000 10.8501 0.0353
32.6200 10.8568 0.0456
32.6400 10.8635 0.0422
32.6600 10.8701 0.0389
32.6800 10.8767 0.0480
32.7000 10.8833 0.0439
32.7200 10.8900 0.0426
32.7400 10.8967 0.0507
32.7600 10.9034 0.0432
32.7800 10.9101 0.0346
32.8000 10.9168 0.0577
32.8200 10.9234 0.0425
32.8400 10.9301 0.0348
32.8600 10.9367 0.0467
32.8800 10.9434 0.0432
32.9000 10.9500 0.0428
32.9200 10.9568 0.0461
32.9400 10.9635 0.0368
32.9600 10.9702 0.0449
32.9800 10.9768 0.0469
33.0000 10.9835 0.0361
33.0200 10.9902 0.0404
33.0400 10.9967 0.0498
33.0600 11.0034 0.0406
33.0800 11.0101 0.0408
33.1000 11.0168 0.0411
33.1200 11.0235 0.0442
33.1400 11.0302 0.0434
33.1600 11.0368 0.0430
33.1800 11.0435 0.0430
33.2000 11.0501 0.0362
33.2200 11.0567 0.0488
33.2400 11.0633 0.0445
33.2600 11.0700 0.0376
33.2800 11.0768 0.0471
33.3000 11.0834 0.0436
33.3200 11.0901 0.0373
33.3400 11.0968 0.0507
33.3600 11.1034 0.0427
33.3800 11.1101 0.0386
33.4000 11.1167 0.0480
33.4200 11.1233 0.0422
33.4400 11.1300 0.0373
33.4600 11.1367 0.0474
33.4800 11.1434 0.0404
33.5000 11.1501 0.0364
33.5200 11.1568 0.0475
33.5400 11.1635 0.0421
33.5600 11.1702 0.0349
33.5800 11.1768 0.0520
33.6000 11.1834 0.0465
33.6200 11.1901 0.0345
33.6400 11.1968 0.0516
33.6600 11.2035 0.0451
33.6800 11.2101 0.0364
33.7000 11.2168 0.0486
33.7200 11.2235 0.0442
33.7400 11.2301 0.0346
33.7600 11.2367 0.0478
33.7800 11.2434 0.0402
33.8000 11.2501 0.0387
33.8200 11.2568 0.0443
33.8400 11.2635 0.0424
33.8600 11.2701 0.0348
33.8800 11.2768 0.0450
33.9000 11.2835 0.0422
33.9200 11.2902 0.0393
33.9400 11.2968 0.0448
33.9600 11.3034 0.0456
33.9800 11.3101 0.0441
34.0000 11.3167 0.0461
34.0200 11.3234 0.0421
34.0400 11.3301 0.0464
34.0600 11.3368 0.0394
34.0800 11.3435 0.0431
34.1000 11.3501 0.0426
34.1200 11.3567 0.0394
34.1400 11.3633 0.0502
34.1600 11.3700 0.0428
34.1800 11.3767 0.0424
34.2000 11.3834 0.0478
34.2200 11.3901 0.0426
34.2400 11.3968 0.0390
34.2600 11.4034 0.0519
34.2800 11.4101 0.0382
34.3000 11.4167 0.0412
34.3200 11.4234 0.0501
34.3400 11.4300 0.0431
34.3600 11.4367 0.0344
34.3800 11.4434 0.0520
34.4000 11.4501 0.0393
34.4200 11.4568 0.0408
34.4400 11.4635 0.0457
34.4600 11.4702 0.0419
34.4800 11.4768 0.0456
34.5000 11.4834 0.0461
34.5200 11.4901 0.0388
34.5400 11.4967 0.0454
34.5600 11.5035 0.0473
34.5800 11.5101 0.0379
34.6000 11.5168 0.0463
34.6200 11.5235 0.0476
34.6400 11.5302 0.0400
34.6600 11.5368 0.0442
34.6800 11.5434 0.0438
34.7000 11.5500 0.0407
34.7200 11.5567 0.0442
34.7400 11.5635 0.0399
34.7600 11.5702 0.0464
34.7800 11.5768 0.0401
34.8000 11.5835 0.0412
34.8200 11.5901 0.0435
34.8400 11.5967 0.0402
34.8600 11.6033 0.0413
34.8800 11.6100 0.0500
34.9000 11.6167 0.0381
34.9200 11.6234 0.0460
34.9400 11.6301 0.0445
34.9600 11.6367 0.0371
34.9800 11.6434 0.0479
35.0000 11.6501 0.0434
35.0200 11.6568 0.0370
35.0400 11.6634 0.0495
35.0600 11.6700 0.0446
35.0800 11.6767 0.0373
35.1000 11.6834 0.0511
35.1200 11.6901 0.0397
35.1400 11.6968 0.0383
35.1600 11.7035 0.0518
35.1800 11.7102 0.0360
35.2000 11.7168 0.0425
35.2200 11.7234 0.0515
35.2400 11.7301 0.0413
35.2600 11.7368 0.0441
35.2800 11.7435 0.0428
35.3000 11.7502 0.0420
35.3200 11.7568 0.0454
35.3400 11.7635 0.0473
35.3600 11.7701 0.0447
35.3800 11.7768 0.0427
35.4000 11.7834 0.0382
35.4200 11.7900 0.0481
35.4400 11.7967 0.0431
35.4600 11.8034 0.0446
35.4800 11.8101 0.0463
35.5000 11.8168 0.0401
35.5200 11.8235 0.0450
35.5400 11.8301 0.0448
35.5600 11.8368 0.0407
35.5800 11.8433 0.0454
35.6000 11.8500 0.0484
35.6200 11.8567 0.0400
35.6400 11.8634 0.0403
35.6600 11.8701 0.0498
35.6800 11.8768 0.0442
35.7000 11.8835 0.0432
35.7200 11.8901 0.0486
35.7400 11.8968 0.0424
35.7600 11.9034 0.0462
35.7800 11.9100 0.0475
35.8000 11.9168 0.0433
35.8200 11.9235 0.0425
35.8400 11.9301 0.0486
35.8600 11.9368 0.0378
35.8800 11.9435 0.0449
35.9000 11.9501 0.0492
35.9200 11.9568 0.0383
35.9400 11.9634 0.0434
35.9600 11.9701 0.0522
35.9800 11.9768 0.0343
36.0000 11.9835 0.0468
36.0200 11.9902 0.0465
36.0400 11.9968 0.0375
36.0600 12.0035 0.0458
36.0800 12.0102 0.0417
36.1000 12.0168 0.0382
36.1200 12.0234 0.0510
36.1400 12.0300 0.0464
36.1600 12.0367 0.0426
36.1800 12.0434 0.0415
36.2000 12.0501 0.0430
36.2200 12.0568 0.0452
36.2400 12.0635 0.0396
36.2600 12.0702 0.0411
36.2800 12.0768 0.0448
36.3000 12.0833 0.0396
36.3200 12.0900 0.0402
36.3400 12.0967 0.0489
36.3600 12.1034 0.0344
36.3800 12.1101 0.0475
36.4000 12.1168 0.0479
36.4200 12.1234 0.0307
36.4400 12.1301 0.0458
36.4600 12.1368 0.0478
36.4800 12.1434 0.0308
36.5000 12.1500 0.0472
36.5200 12.1567 0.0459
36.5400 12.1634 0.0286
36.5600 12.1702 0.0487
36.5800 12.1768 0.0456
36.6000 12.1835 0.0293
36.6200 12.1902 0.0498
36.6400 12.1968 0.0413
36.6600 12.2034 0.0271
36.6800 12.2100 0.0514
36.7000 12.2167 0.0397
36.7200 12.2235 0.0281
36.7400 12.2302 0.0451
36.7600 12.2368 0.0398
36.7800 12.2435 0.0269
36.8000 12.2502 0.0472
36.8200 12.2568 0.0375
36.8400 12.2634 0.0309
36.8600 12.2700 0.0460
36.8800 12.2767 0.0401
36.9000 12.2834 0.0267
36.9200 12.2901 0.0481
36.9400 12.2968 0.0370
36.9600 12.3035 0.0324
36.9800 12.3102 0.0413
37.0000 12.3168 0.0328
37.0200 12.3234 0.0325
37.0400 12.3300 0.0476
37.0600 12.3367 0.0362
37.0800 12.3434 0.0323
37.1000 12.3501 0.0465
37.1200 12.3568 0.0301
37.1400 12.3634 0.0369
37.1600 12.3701 0.0434
37.1800 12.3768 0.0339
37.2000 12.3834 0.0354
37.2200 12.3900 0.0459
37.2400 12.3967 0.0319
37.2600 12.4034 0.0315
37.2800 12.4101 0.0415
37.3000 12.4168 0.0349
37.3200 12.4235 0.0297
37.3400 12.4302 0.0422
37.3600 12.4368 0.0346
37.3800 12.4434 0.0357
37.4000 12.4500 0.0434
37.4200 12.4567 0.0378
37.4400 12.4635 0.0319
37.4600 12.4702 0.0389
37.4800 12.4768 0.0351
37.5000 12.4835 0.0359
37.5200 12.4902 0.0384
37.5400 12.4968 0.0326
37.5600 12.5034 0.0336
37.5800 12.5100 0.0428
37.6000 12.5167 0.0346
37.6200 12.5234 0.0356
37.6400 12.5301 0.0481
37.6600 12.5368 0.0311
37.6800 12.5435 0.0315
37.7000 12.5501 0.0427
37.7200 12.5568 0.0334
37.7400 12.5634 0.0330
37.7600 12.5700 0.0493
37.7800 12.5767 0.0274
37.8000 12.5834 0.0384
37.8200 12.5901 0.0483
37.8400 12.5968 0.0271
37.8600 12.6035 0.0381
37.8800 12.6101 0.0484
37.9000 12.6168 0.0289
37.9200 12.6234 0.0391
37.9400 12.6300 0.0489
37.9600 12.6367 0.0339
37.9800 12.6434 0.0388
38.0000 12.6501 0.0452
38.0200 12.6568 0.0337
38.0400 12.6635 0.0463
38.0600 12.6702 0.0460
38.0800 12.6768 0.0284
38.1000 12.6834 0.0477
38.1200 12.6900 0.0440
38.1400 12.6967 0.0357
38.1600 12.7034 0.0481
38.1800 12.7101 0.0404
38.2000 12.7168 0.0394
38.2200 12.7235 0.0480
38.2400 12.7302 0.0337
38.2600 12.7368 0.0464
38.2800 12.7434 0.0484
38.3000 12.7500 0.0365
38.3200 12.7567 0.0486
38.3400 12.7635 0.0511
38.3600 12.7702 0.0275
38.3800 12.7768 0.0538
38.4000 12.7835 0.0473
38.4200 12.7901 0.0312
38.4400 12.7968 0.0557
38.4600 12.8034 0.0459
38.4800 12.8100 0.0319
38.5000 12.8167 0.0544
38.5200 12.8234 0.0431
38.5400 12.8301 0.0376
38.5600 12.8368 0.0508
38.5800 12.8434 0.0416
38.6000 12.8501 0.0410
38.6200 12.8568 0.0503
38.6400 12.8634 0.0381
38.6600 12.8700 0.0425
38.6800 12.8767 0.0494
38.7000 12.8834 0.0410
38.7200 12.8901 0.0442
38.7400 12.8968 0.0421
38.7600 12.9035 0.0429
38.7800 12.9102 0.0411
38.8000 12.9169 0.0434
38.8200 12.9234 0.0429
38.8400 12.9301 0.0474
38.8600 12.9367 0.0387
38.8800 12.9435 0.0374
38.9000 12.9502 0.0450
38.9200 12.9568 0.0462
38.9400 12.9635 0.0385
38.9600 12.9702 0.0441
38.9800 12.9768 0.0385
39.0000 12.9834 0.0459
39.0200 12.9900 0.0406
39.0400 12.9967 0.0383
39.0600 13.0034 0.0467
39.0800 13.0101 0.0383
39.1000 13.0167 0.0409
39.1200 13.0234 0.0437
39.1400 13.0301 0.0410
39.1600 13.0368 0.0376
39.1800 13.0434 0.0425
39.2000 13.0500 0.0356
39.2200 13.0566 0.0437
39.2400 13.0633 0.0435
39.2600 13.0701 0.0358
39.2800 13.0768 0.0458
39.3000 13.0835 0.0407
39.3200 13.0901 0.0343
39.3400 13.0968 0.0479
39.3600 13.1034 0.0406
39.3800 13.1100 0.0385
39.4000 13.1167 0.0482
39.4200 13.1234 0.0331
39.4400 13.1302 0.0400
39.4600 13.1368 0.0467
39.4800 13.1435 0.0366
39.5000 13.1502 0.0456
39.5200 13.1568 0.0437
39.5400 13.1635 0.0379
39.5600 13.1701 0.0461
39.5800 13.1767 0.0427
39.6000 13.1834 0.0406
39.6200 13.1901 0.0471
39.6400 13.1968 0.0443
39.6600 13.2035 0.0348
39.6800 13.2102 0.0487
39.7000 13.2169 0.0423
39.7200 13.2235 0.0389
39.7400 13.2300 0.0483
39.7600 13.2367 0.0462
39.7800 13.2434 0.0417
39.8000 13.2501 0.0453
39.8200 13.2568 0.0431
39.8400 13.2635 0.0470
39.8600 13.2702 0.0420
39.8800 13.2768 0.0449
39.9000 13.2834 0.0467
39.9200 13.2900 0.0501
39.9400 13.2967 0.0442
39.9600 13.3034 0.0433
39.9800 13.3101 0.0476
40.0000 13.3168 0.0493
40.0200 13.3234 0.0480
40.0400 13.3301 0.0442
40.0600 13.3368 0.0452
40.0800 13.3434 0.0474
40.1000 13.3501 0.0427
40.1200 13.3567 0.0488
40.1400 13.3634 0.0465
40.1600 13.3701 0.0426
40.1800 13.3768 0.0550
40.2000 13.3835 0.0455
40.2200 13.3902 0.0477
40.2400 13.3969 0.0479
40.2600 13.4034 0.0458
40.2800 13.4100 0.0450
40.3000 13.4167 0.0507
40.3200 13.4234 0.0467
40.3400 13.4301 0.0504
40.3600 13.4368 0.0471
40.3800 13.4435 0.0444
40.4000 13.4502 0.0449
40.4200 13.4568 0.0508
40.4400 13.4634 0.0448
40.4600 13.4701 0.0485
40.4800 13.4767 0.0534
40.5000 13.4834 0.0427
40.5200 13.4901 0.0473
40.5400 13.4968 0.0483
40.5600 13.5035 0.0446
40.5800 13.5101 0.0474
40.6000 13.5168 0.0485
40.6200 13.5234 0.0424
40.6400 13.5300 0.0511
40.6600 13.5367 0.0499
40.6800 13.5433 0.0414
40.7000 13.5501 0.0497
40.7200 13.5568 0.0498
40.7400 13.5635 0.0397
40.7600 13.5701 0.0460
40.7800 13.5768 0.0463
40.8000 13.5834 0.0451
40.8200 13.5900 0.0472
40.8400 13.5967 0.0493
40.8600 13.6034 0.0444
40.8800 13.6101 0.0479
40.9000 13.6168 0.0447
40.9200 13.6235 0.0456
40.9400 13.6302 0.0501
40.9600 13.6368 0.0399
40.9800 13.6435 0.0456
41.0000 13.6501 0.0478
41.0200 13.6567 0.0432
41.0400 13.6634 0.0461
41.0600 13.6701 0.0482
41.0800 13.6768 0.0423
41.1000 13.6835 0.0458
41.1200 13.6902 0.0460
41.1400 13.6968 0.0422
41.1600 13.7034 0.0445
41.1800 13.7100 0.0467
41.2000 13.7167 0.0391
41.2200 13.7234 0.0517
41.2400 13.7301 0.0418
41.2600 13.7368 0.0410
41.2800 13.7434 0.0540
41.3000 13.7501 0.0394
41.3200 13.7568 0.0426
41.3400 13.7634 0.0516
41.3600 13.7700 0.0428
41.3800 13.7767 0.0449
41.4000 13.7834 0.0446
41.4200 13.7901 0.0450
41.4400 13.7968 0.0452
41.4600 13.8035 0.0497
41.4800 13.8101 0.0395
41.5000 13.8168 0.0435
41.5200 13.8234 0.0496
41.5400 13.8301 0.0407
41.5600 13.8367 0.0431
41.5800 13.8434 0.0457
41.6000 13.8501 0.0446
41.6200 13.8568 0.0402
41.6400 13.8635 0.0502
41.6600 13.8702 0.0447
41.6800 13.8768 0.0432
41.7000 13.8835 0.0482
41.7200 13.8901 0.0451
41.7400 13.8967 0.0463
41.7600 13.9034 0.0456
41.7800 13.9101 0.0398
41.8000 13.9168 0.0576
41.8200 13.9235 0.0450
41.8400 13.9302 0.0418
41.8600 13.9369 0.0500
41.8800 13.9435 0.0469
41.9000 13.9501 0.0430
41.9200 13.9567 0.0568
41.9400 13.9634 0.0473
41.9600 13.9701 0.0404
41.9800 13.9768 0.0537
42.0000 13.9834 0.0539
42.0200 13.9901 0.0478
42.0400 13.9968 0.0507
42.0600 14.0034 0.0511
42.0800 14.0101 0.0542
42.1000 14.0167 0.0538
42.1200 14.0234 0.0420
42.1400 14.0301 0.0617
42.1600 14.0368 0.0525
42.1800 14.0434 0.0429
42.2000 14.0501 0.0607
42.2200 14.0568 0.0584
42.2400 14.0634 0.0366
42.2600 14.0701 0.0632
42.2800 14.0767 0.0603
42.3000 14.0834 0.0386
42.3200 14.0901 0.0625
42.3400 14.0968 0.0597
42.3600 14.1035 0.0467
42.3800 14.1102 0.0656
42.4000 14.1169 0.0512
42.4200 14.1235 0.0503
42.4400 14.1301 0.0728
42.4600 14.1367 0.0535
42.4800 14.1434 0.0506
42.5000 14.1501 0.0712
42.5200 14.1568 0.0466
42.5400 14.1635 0.0549
42.5600 14.1701 0.0721
42.5800 14.1768 0.0401
42.6000 14.1834 0.0579
42.6200 14.1901 0.0707
42.6400 14.1967 0.0461
42.6600 14.2034 0.0619
42.6800 14.2101 0.0691
42.7000 14.2168 0.0429
42.7200 14.2234 0.0664
42.7400 14.2301 0.0577
42.7600 14.2368 0.0444
42.7800 14.2435 0.0730
42.8000 14.2501 0.0546
42.8200 14.2567 0.0428
42.8400 14.2633 0.0744
42.8600 14.2700 0.0541
42.8800 14.2768 0.0499
42.9000 14.2834 0.0684
42.9200 14.2901 0.0539
42.9400 14.2968 0.0567
42.9600 14.3034 0.0664
42.9800 14.3100 0.0515
43.0000 14.3167 0.0581
43.0200 14.3234 0.0665
43.0400 14.3301 0.0496
43.0600 14.3368 0.0596
43.0800 14.3435 0.0672
43.1000 14.3502 0.0519
43.1200 14.3569 0.0581
43.1400 14.3635 0.0639
43.1600 14.3701 0.0490
43.1800 14.3767 0.0657
43.2000 14.3834 0.0591
43.2200 14.3901 0.0502
43.2400 14.3968 0.0634
43.2600 14.4035 0.0602
43.2800 14.4102 0.0533
43.3000 14.4168 0.0641
43.3200 14.4235 0.0605
43.3400 14.4301 0.0537
43.3600 14.4367 0.0626
43.3800 14.4433 0.0576
43.4000 14.4500 0.0557
43.4200 14.4568 0.0685
43.4400 14.4634 0.0514
43.4600 14.4701 0.0570
43.4800 14.4768 0.0681
43.5000 14.4834 0.0553
43.5200 14.4900 0.0619
43.5400 14.4967 0.0614
43.5600 14.5033 0.0555
43.5800 14.5101 0.0633
43.6000 14.5168 0.0596
43.6200 14.5235 0.0534
43.6400 14.5301 0.0695
43.6600 14.5368 0.0560
43.6800 14.5435 0.0545
43.7000 14.5501 0.0682
43.7200 14.5567 0.0569
43.7400 14.5634 0.0553
43.7600 14.5701 0.0671
43.7800 14.5768 0.0534
43.8000 14.5835 0.0617
43.8200 14.5902 0.0612
43.8400 14.5968 0.0522
43.8600 14.6035 0.0610
43.8800 14.6101 0.0595
43.9000 14.6167 0.0521
43.9200 14.6233 0.0653
43.9400 14.6301 0.0566
43.9600 14.6368 0.0543
43.9800 14.6435 0.0665
44.0000 14.6502 0.0493
44.0200 14.6568 0.0576
44.0400 14.6635 0.0606
44.0600 14.6701 0.0528
44.0800 14.6767 0.0600
44.1000 14.6834 0.0572
44.1200 14.6901 0.0528
44.1400 14.6968 0.0619
44.1600 14.7035 0.0515
44.1800 14.7101 0.0568
44.2000 14.7168 0.0618
44.2200 14.7235 0.0533
44.2400 14.7301 0.0522
44.2600 14.7367 0.0642
44.2800 14.7434 0.0514
44.3000 14.7501 0.0571
44.3200 14.7568 0.0584
44.3400 14.7634 0.0499
44.3600 14.7701 0.0606
44.3800 14.7768 0.0561
44.4000 14.7835 0.0443
44.4200 14.7901 0.0605
44.4400 14.7967 0.0594
44.4600 14.8034 0.0477
44.4800 14.8101 0.0596
44.5000 14.8168 0.0514
44.5200 14.8235 0.0499
44.5400 14.8302 0.0594
44.5600 14.8368 0.0513
44.5800 14.8435 0.0497
44.6000 14.8501 0.0604
44.6200 14.8567 0.0508
44.6400 14.8634 0.0506
44.6600 14.8701 0.0558
44.6800 14.8768 0.0497
44.7000 14.8835 0.0509
44.7200 14.8902 0.0546
44.7400 14.8968 0.0494
44.7600 14.9035 0.0559
44.7800 14.9101 0.0498
44.8000 14.9167 0.0507
44.8200 14.9234 0.0584
44.8400 14.9300 0.0513
44.8600 14.9367 0.0496
44.8800 14.9434 0.0563
44.9000 14.9501 0.0475
44.9200 14.9568 0.0495
44.9400 14.9635 0.0559
44.9600 14.9701 0.0472
44.9800 14.9767 0.0595
45.0000 14.9833 0.0546
45.0200 14.9900 0.0472
45.0400 14.9967 0.0572
45.0600 15.0034 0.0555
45.0800 15.0101 0.0484
45.1000 15.0168 0.0566
45.1200 15.0235 0.0488
45.1400 15.0301 0.0524
45.1600 15.0367 0.0577
45.1800 15.0434 0.0526
45.2000 15.0501 0.0508
45.2200 15.0568 0.0578
45.2400 15.0635 0.0507
45.2600 15.0701 0.0600
45.2800 15.0768 0.0562
45.3000 15.0835 0.0486
45.3200 15.0901 0.0599
45.3400 15.0967 0.0569
45.3600 15.1034 0.0513
45.3800 15.1101 0.0649
45.4000 15.1168 0.0557
45.4200 15.1235 0.0512
45.4400 15.1301 0.0635
45.4600 15.1368 0.0557
45.4800 15.1435 0.0511
45.5000 15.1501 0.0629
45.5200 15.1567 0.0549
45.5400 15.1633 0.0563
45.5600 15.1700 0.0638
45.5800 15.1768 0.0519
45.6000 15.1835 0.0566
45.6200 15.1901 0.0608
45.6400 15.1968 0.0582
45.6600 15.2035 0.0568
45.6800 15.2101 0.0604
45.7000 15.2167 0.0571
45.7200 15.2233 0.0631
45.7400 15.2300 0.0556
45.7600 15.2368 0.0576
45.7800 15.2434 0.0653
45.8000 15.2501 0.0578
45.8200 15.2568 0.0537
45.8400 15.2635 0.0696
45.8600 15.2701 0.0616
45.8800 15.2767 0.0563
45.9000 15.2834 0.0650
45.9200 15.2900 0.0617
45.9400 15.2968 0.0638
45.9600 15.3035 0.0596
45.9800 15.3102 0.0598
46.0000 15.3168 0.0647
46.0200 15.3235 0.0641
46.0400 15.3301 0.0539
46.0600 15.3367 0.0657
46.0800 15.3434 0.0647
46.1000 15.3501 0.0550
46.1200 15.3568 0.0596
46.1400 15.3635 0.0618
46.1600 15.3702 0.0595
46.1800 15.3768 0.0667
46.2000 15.3835 0.0539
46.2200 15.3901 0.0621
46.2400 15.3967 0.0620
46.2600 15.4034 0.0639
46.2800 15.4101 0.0626
46.3000 15.4168 0.0648
46.3200 15.4234 0.0627
46.3400 15.4301 0.0593
46.3600 15.4368 0.0640
46.3800 15.4435 0.0598
46.4000 15.4501 0.0626
46.4200 15.4567 0.0656
46.4400 15.4633 0.0570
46.4600 15.4700 0.0617
46.4800 15.4767 0.0675
46.5000 15.4834 0.0569
46.5200 15.4901 0.0606
46.5400 15.4968 0.0652
46.5600 15.5035 0.0588
46.5800 15.5101 0.0542
46.6000 15.5167 0.0684
46.6200 15.5234 0.0550
46.6400 15.5301 0.0590
46.6600 15.5368 0.0667
46.6800 15.5435 0.0559
46.7000 15.5502 0.0570
46.7200 15.5568 0.0654
46.7400 15.5635 0.0546
46.7600 15.5701 0.0598
46.7800 15.5767 0.0635
46.8000 15.5834 0.0563
46.8200 15.5901 0.0588
46.8400 15.5968 0.0596
46.8600 15.6035 0.0539
46.8800 15.6102 0.0631
46.9000 15.6168 0.0610
46.9200 15.6235 0.0495
46.9400 15.6301 0.0633
46.9600 15.6367 0.0636
46.9800 15.6434 0.0521
47.0000 15.6500 0.0611
47.0200 15.6567 0.0634
47.0400 15.6634 0.0475
47.0600 15.6701 0.0626
47.0800 15.6768 0.0612
47.1000 15.6835 0.0490
47.1200 15.6901 0.0574
47.1400 15.6967 0.0622
47.1600 15.7033 0.0512
47.1800 15.7100 0.0614
47.2000 15.7167 0.0563
47.2200 15.7234 0.0544
47.2400 15.7301 0.0606
47.2600 15.7368 0.0585
47.2800 15.7434 0.0491
47.3000 15.7501 0.0659
47.3200 15.7567 0.0611
47.3400 15.7634 0.0476
47.3600 15.7700 0.0661
47.3800 15.7768 0.0600
47.4000 15.7835 0.0509
47.4200 15.7902 0.0633
47.4400 15.7968 0.0573
47.4600 15.8035 0.0523
47.4800 15.8102 0.0652
47.5000 15.8168 0.0570
47.5200 15.8234 0.0569
47.5400 15.8301 0.0625
47.5600 15.8368 0.0542
47.5800 15.8435 0.0533
47.6000 15.8502 0.0716
47.6200 15.8568 0.0528
47.6400 15.8635 0.0569
47.6600 15.8701 0.0627
47.6800 15.8767 0.0550
47.7000 15.8833 0.0615
47.7200 15.8900 0.0679
47.7400 15.8967 0.0550
47.7600 15.9034 0.0616
47.7800 15.9101 0.0639
47.8000 15.9168 0.0549
47.8200 15.9234 0.0624
47.8400 15.9301 0.0656
47.8600 15.9367 0.0540
47.8800 15.9433 0.0601
47.9000 15.9500 0.0655
47.9200 15.9567 0.0570
47.9400 15.9634 0.0644
47.9600 15.9701 0.0654
47.9800 15.9768 0.0619
48.0000 15.9835 0.0596
48.0200 15.9901 0.0632
48.0400 15.9968 0.0615
48.0600 16.0034 0.0629
48.0800 16.0100 0.0675
48.1000 16.0168 0.0587
48.1200 16.0235 0.0582
48.1400 16.0302 0.0688
48.1600 16.0368 0.0569
48.1800 16.0435 0.0584
48.2000 16.0501 0.0630
48.2200 16.0567 0.0634
48.2400 16.0634 0.0605
48.2600 16.0700 0.0666
48.2800 16.0768 0.0599
48.3000 16.0835 0.0571
48.3200 16.0901 0.0653
48.3400 16.0968 0.0562
48.3600 16.1035 0.0635
48.3800 16.1102 0.0672
48.4000 16.1168 0.0559
48.4200 16.1234 0.0594
48.4400 16.1301 0.0673
48.4600 16.1368 0.0568
48.4800 16.1434 0.0590
48.5000 16.1501 0.0660
48.5200 16.1568 0.0600
48.5400 16.1635 0.0582
48.5600 16.1701 0.0677
48.5800 16.1767 0.0599
48.6000 16.1833 0.0635
48.6200 16.1900 0.0656
48.6400 16.1967 0.0638
48.6600 16.2034 0.0595
48.6800 16.2101 0.0628
48.7000 16.2168 0.0616
48.7200 16.2234 0.0621
48.7400 16.2301 0.0640
48.7600 16.2367 0.0599
48.7800 16.2434 0.0634
48.8000 16.2500 0.0684
48.8200 16.2567 0.0607
48.8400 16.2634 0.0615
48.8600 16.2701 0.0686
48.8800 16.2768 0.0659
48.9000 16.2835 0.0582
48.9200 16.2902 0.0648
48.9400 16.2968 0.0631
48.9600 16.3034 0.0562
48.9800 16.3100 0.0684
49.0000 16.3167 0.0634
49.0200 16.3235 0.0640
49.0400 16.3301 0.0665
49.0600 16.3368 0.0600
49.0800 16.3435 0.0620
49.1000 16.3502 0.0676
49.1200 16.3568 0.0595
49.1400 16.3634 0.0601
49.1600 16.3700 0.0677
49.1800 16.3767 0.0658
49.2000 16.3835 0.0634
49.2200 16.3902 0.0643
49.2400 16.3968 0.0632
49.2600 16.4035 0.0638
49.2800 16.4101 0.0594
49.3000 16.4167 0.0636
49.3200 16.4233 0.0674
49.3400 16.4300 0.0634
49.3600 16.4367 0.0639
49.3800 16.4434 0.0652
49.4000 16.4501 0.0646
49.4200 16.4568 0.0658
49.4400 16.4634 0.0688
49.4600 16.4701 0.0609
49.4800 16.4767 0.0650
49.5000 16.4834 0.0711
49.5200 16.4900 0.0638
49.5400 16.4967 0.0594
49.5600 16.5034 0.0772
49.5800 16.5101 0.0623
49.6000 16.5168 0.0690
49.6200 16.5235 0.0661
49.6400 16.5302 0.0669
49.6600 16.5368 0.0677
49.6800 16.5434 0.0678
49.7000 16.5500 0.0656
49.7200 16.5568 0.0697
49.7400 16.5635 0.0678
49.7600 16.5702 0.0686
49.7800 16.5768 0.0662
49.8000 16.5835 0.0735
49.8200 16.5901 0.0687
49.8400 16.5968 0.0648
49.8600 16.6034 0.0675
49.8800 16.6100 0.0757
49.9000 16.6167 0.0700
49.9200 16.6234 0.0679
49.9400 16.6301 0.0727
49.9600 16.6368 0.0670
49.9800 16.6435 0.0764
50.0000 16.6501 0.0653
50.0200 16.6568 0.0672
50.0400 16.6634 0.0779
50.0600 16.6700 0.0669
50.0800 16.6767 0.0679
50.1000 16.6834 0.0767
50.1200 16.6901 0.0653
50.1400 16.6968 0.0726
50.1600 16.7035 0.0748
50.1800 16.7101 0.0644
50.2000 16.7168 0.0718
50.2200 16.7234 0.0800
50.2400 16.7300 0.0667
50.2600 16.7367 0.0754
50.2800 16.7434 0.0770
50.3000 16.7501 0.0660
50.3200 16.7568 0.0752
50.3400 16.7635 0.0724
50.3600 16.7702 0.0701
50.3800 16.7768 0.0717
50.4000 16.7834 0.0735
50.4200 16.7901 0.0683
50.4400 16.7967 0.0738
50.4600 16.8034 0.0708
50.4800 16.8101 0.0697
50.5000 16.8168 0.0736
50.5200 16.8235 0.0706
50.5400 16.8302 0.0705
50.5600 16.8368 0.0712
50.5800 16.8434 0.0701
50.6000 16.8500 0.0799
50.6200 16.8567 0.0641
50.6400 16.8634 0.0679
50.6600 16.8701 0.0783
50.6800 16.8768 0.0679
50.7000 16.8835 0.0689
50.7200 16.8901 0.0753
50.7400 16.8967 0.0734
50.7600 16.9033 0.0767
50.7800 16.9100 0.0712
50.8000 16.9167 0.0704
50.8200 16.9234 0.0790
50.8400 16.9301 0.0721
50.8600 16.9367 0.0693
50.8800 16.9434 0.0789
50.9000 16.9501 0.0772
50.9200 16.9568 0.0719
50.9400 16.9634 0.0754
50.9600 16.9700 0.0694
50.9800 16.9767 0.0794
51.0000 16.9834 0.0708
51.0200 16.9901 0.0688
51.0400 16.9968 0.0761
51.0600 17.0035 0.0748
51.0800 17.0102 0.0652
51.1000 17.0168 0.0770
51.1200 17.0234 0.0718
51.1400 17.0300 0.0705
51.1600 17.0367 0.0745
51.1800 17.0434 0.0727
51.2000 17.0501 0.0691
51.2200 17.0568 0.0756
51.2400 17.0635 0.0748
51.2600 17.0702 0.0689
51.2800 17.0768 0.0760
51.3000 17.0834 0.0761
51.3200 17.0900 0.0732
51.3400 17.0967 0.0749
51.3600 17.1034 0.0774
51.3800 17.1101 0.0705
51.4000 17.1168 0.0742
51.4200 17.1234 0.0762
51.4400 17.1301 0.0708
51.4600 17.1368 0.0691
51.4800 17.1434 0.0762
51.5000 17.1500 0.0735
51.5200 17.1567 0.0732
51.5400 17.1634 0.0676
51.5600 17.1701 0.0736
51.5800 17.1768 0.0710
51.6000 17.1834 0.0724
51.6200 17.1901 0.0744
51.6400 17.1968 0.0685
51.6600 17.2034 0.0689
51.6800 17.2100 0.0745
51.7000 17.2167 0.0713
51.7200 17.2234 0.0697
51.7400 17.2302 0.0710
51.7600 17.2369 0.0697
51.7800 17.2435 0.0741
51.8000 17.2502 0.0701
51.8200 17.2568 0.0693
51.8400 17.2634 0.0777
51.8600 17.2700 0.0707
51.8800 17.2767 0.0679
51.9000 17.2835 0.0781
51.9200 17.2902 0.0665
51.9400 17.2968 0.0699
51.9600 17.3035 0.0795
51.9800 17.3101 0.0743
52.0000 17.3168 0.0682
52.0200 17.3234 0.0795
52.0400 17.3301 0.0680
52.0600 17.3367 0.0696
52.0800 17.3434 0.0824
52.1000 17.3501 0.0647
52.1200 17.3568 0.0718
52.1400 17.3634 0.0798
52.1600 17.3701 0.0615
52.1800 17.3768 0.0749
52.2000 17.3834 0.0782
52.2200 17.3900 0.0654
52.2400 17.3967 0.0803
52.2600 17.4034 0.0739
52.2800 17.4101 0.0675
52.3000 17.4168 0.0774
52.3200 17.4235 0.0758
52.3400 17.4302 0.0711
52.3600 17.4368 0.0803
52.3800 17.4434 0.0682
52.4000 17.4501 0.0792
52.4200 17.4567 0.0815
52.4400 17.4634 0.0644
52.4600 17.4701 0.0806
52.4800 17.4768 0.0845
52.5000 17.4835 0.0679
52.5200 17.4902 0.0819
52.5400 17.4968 0.0755
52.5600 17.5034 0.0719
52.5800 17.5101 0.0815
52.6000 17.5167 0.0796
52.6200 17.5234 0.0766
52.6400 17.5301 0.0775
52.6600 17.5368 0.0753
52.6800 17.5435 0.0785
52.7000 17.5502 0.0833
52.7200 17.5568 0.0788
52.7400 17.5634 0.0812
52.7600 17.5700 0.0794
52.7800 17.5767 0.0852
52.8000 17.5834 0.0831
52.8200 17.5901 0.0769
52.8400 17.5968 0.0859
52.8600 17.6035 0.0833
52.8800 17.6101 0.0767
52.9000 17.6168 0.0897
52.9200 17.6234 0.0835
52.9400 17.6300 0.0837
52.9600 17.6367 0.0825
52.9800 17.6434 0.0852
53.0000 17.6501 0.0848
53.0200 17.6568 0.0835
53.0400 17.6634 0.0916
53.0600 17.6701 0.0871
53.0800 17.6768 0.0835
53.1000 17.6834 0.0869
53.1200 17.6900 0.0899
53.1400 17.6967 0.0821
53.1600 17.7034 0.0849
53.1800 17.7101 0.0886
53.2000 17.7168 0.0830
53.2200 17.7235 0.0886
53.2400 17.7302 0.0870
53.2600 17.7369 0.0805
53.2800 17.7434 0.0920
53.3000 17.7500 0.0903
53.3200 17.7567 0.0780
53.3400 17.7634 0.0919
53.3600 17.7702 0.0966
53.3800 17.7768 0.0742
53.4000 17.7835 0.0903
53.4200 17.7902 0.0912
53.4400 17.7968 0.0769
53.4600 17.8034 0.0912
53.4800 17.8101 0.0938
53.5000 17.8167 0.0793
53.5200 17.8234 0.0881
53.5400 17.8301 0.0911
53.5600 17.8367 0.0851
53.5800 17.8434 0.0857
53.6000 17.8501 0.0882
53.6200 17.8568 0.0855
53.6400 17.8634 0.0823
53.6600 17.8700 0.0878
53.6800 17.8766 0.0889
53.7000 17.8833 0.0876
53.7200 17.8901 0.0858
53.7400 17.8968 0.0833
53.7600 17.9034 0.0852
53.7800 17.9101 0.0921
53.8000 17.9168 0.0852
53.8200 17.9234 0.0818
53.8400 17.9300 0.0858
53.8600 17.9367 0.0882
53.8800 17.9434 0.0773
53.9000 17.9501 0.0917
53.9200 17.9568 0.0855
53.9400 17.9635 0.0786
53.9600 17.9702 0.0891
53.9800 17.9768 0.0924
54.0000 17.9835 0.0750
54.0200 17.9901 0.0888
54.0400 17.9968 0.0912
54.0600 18.0034 0.0764
54.0800 18.0101 0.0902
54.1000 18.0168 0.0912
54.1200 18.0235 0.0795
54.1400 18.0302 0.0884
54.1600 18.0368 0.0887
54.1800 18.0434 0.0804
54.2000 18.0500 0.0892
54.2200 18.0567 0.0913
54.2400 18.0634 0.0815
54.2600 18.0701 0.0887
54.2800 18.0768 0.0871
54.3000 18.0835 0.0801
54.3200 18.0902 0.0987
54.3400 18.0968 0.0863
54.3600 18.1034 0.0725
54.3800 18.1100 0.0919
54.4000 18.1166 0.0852
54.4200 18.1234 0.0745
54.4400 18.1301 0.0873
54.4600 18.1368 0.0735
54.4800 18.1434 0.0787
54.5000 18.1501 0.0901
54.5200 18.1568 0.0712
54.5400 18.1635 0.0783
54.5600 18.1701 0.0871
54.5800 18.1767 0.0748
54.6000 18.1834 0.0737
54.6200 18.1901 0.0903
54.6400 18.1968 0.0771
54.6600 18.2035 0.0770
54.6800 18.2102 0.0823
54.7000 18.2169 0.0814
54.7200 18.2235 0.0813
54.7400 18.2301 0.0836
54.7600 18.2367 0.0790
54.7800 18.2434 0.0834
54.8000 18.2501 0.0807
54.8200 18.2568 0.0856
54.8400 18.2635 0.0825
54.8600 18.2702 0.0845
54.8800 18.2768 0.0848
54.9000 18.2835 0.0804
54.9200 18.2901 0.0827
54.9400 18.2967 0.0864
54.9600 18.3034 0.0838
54.9800 18.3101 0.0822
55.0000 18.3168 0.0855
55.0200 18.3235 0.0817
55.0400 18.3301 0.0875
55.0600 18.3368 0.0897
55.0800 18.3434 0.0801
55.1000 18.3500 0.0902
55.1200 18.3567 0.0902
55.1400 18.3633 0.0780
55.1600 18.3701 0.0920
55.1800 18.3768 0.0892
55.2000 18.3835 0.0831
55.2200 18.3901 0.0908
55.2400 18.3968 0.0828
55.2600 18.4035 0.0804
55.2800 18.4101 0.0950
55.3000 18.4167 0.0858
55.3200 18.4234 0.0872
55.3400 18.4301 0.0930
55.3600 18.4368 0.0866
55.3800 18.4435 0.0817
55.4000 18.4502 0.0950
55.4200 18.4568 0.0842
55.4400 18.4635 0.0845
55.4600 18.4701 0.0936
55.4800 18.4767 0.0901
55.5000 18.4834 0.0840
55.5200 18.4901 0.0895
55.5400 18.4968 0.0881
55.5600 18.5035 0.0859
55.5800 18.5101 0.0945
55.6000 18.5168 0.0857
55.6200 18.5234 0.0872
55.6400 18.5300 0.0916
55.6600 18.5367 0.0946
55.6800 18.5434 0.0876
55.7000 18.5501 0.0924
55.7200 18.5568 0.0918
55.7400 18.5635 0.0867
55.7600 18.5701 0.0903
55.7800 18.5768 0.0936
55.8000 18.5835 0.0872
55.8200 18.5900 0.0930
55.8400 18.5967 0.0895
55.8600 18.6034 0.0903
55.8800 18.6101 0.0915
55.9000 18.6168 0.0918
55.9200 18.6235 0.0882
55.9400 18.6301 0.0910
55.9600 18.6368 0.0913
55.9800 18.6434 0.0870
56.0000 18.6501 0.0925
56.0200 18.6567 0.0925
56.0400 18.6634 0.0892
56.0600 18.6701 0.0926
56.0800 18.6768 0.0915
56.1000 18.6835 0.0876
56.1200 18.6902 0.0956
56.1400 18.6968 0.0910
56.1600 18.7035 0.0878
56.1800 18.7101 0.0938
56.2000 18.7167 0.0970
56.2200 18.7234 0.0897
56.2400 18.7301 0.0926
56.2600 18.7368 0.0938
56.2800 18.7435 0.0915
56.3000 18.7502 0.0886
56.3200 18.7569 0.0946
56.3400 18.7635 0.0933
56.3600 18.7701 0.0889
56.3800 18.7767 0.0927
56.4000 18.7834 0.0912
56.4200 18.7901 0.0843
56.4400 18.7968 0.0975
56.4600 18.8034 0.0908
56.4800 18.8101 0.0844
56.5000 18.8168 0.0923
56.5200 18.8234 0.0881
56.5400 18.8301 0.0877
56.5600 18.8367 0.0958
56.5800 18.8433 0.0898
56.6000 18.8501 0.0879
56.6200 18.8568 0.0933
56.6400 18.8634 0.0907
56.6600 18.8701 0.0892
56.6800 18.8768 0.0917
56.7000 18.8835 0.0915
56.7200 18.8901 0.0870
56.7400 18.8967 0.0984
56.7600 18.9034 0.0895
56.7800 18.9101 0.0859
56.8000 18.9168 0.0949
56.8200 18.9235 0.0910
56.8400 18.9302 0.0848
56.8600 18.9369 0.0954
56.8800 18.9435 0.0892
56.9000 18.9501 0.0868
56.9200 18.9567 0.0972
56.9400 18.9634 0.0933
56.9600 18.9701 0.0837
56.9800 18.9768 0.0956
57.0000 18.9835 0.0910
57.0200 18.9902 0.0854
57.0400 18.9968 0.0974
57.0600 19.0035 0.0845
57.0800 19.0101 0.0869
57.1000 19.0167 0.0957
57.1200 19.0234 0.0940
57.1400 19.0301 0.0856
57.1600 19.0368 0.0967
57.1800 19.0435 0.0893
57.2000 19.0501 0.0869
57.2200 19.0568 0.0968
57.2400 19.0635 0.0936
57.2600 19.0701 0.0833
57.2800 19.0767 0.0995
57.3000 19.0833 0.0926
57.3200 19.0900 0.0872
57.3400 19.0967 0.0998
57.3600 19.1034 0.0909
57.3800 19.1101 0.0817
57.4000 19.1168 0.0985
57.4200 19.1234 0.0998
57.4400 19.1301 0.0788
57.4600 19.1367 0.0968
57.4800 19.1434 0.1022
57.5000 19.1501 0.0782
57.5200 19.1568 0.0927
57.5400 19.1635 0.1054
57.5600 19.1702 0.0824
57.5800 19.1768 0.0885
57.6000 19.1835 0.1027
57.6200 19.1901 0.0889
57.6400 19.1968 0.0869
57.6600 19.2034 0.1067
57.6800 19.2101 0.0883
57.7000 19.2168 0.0868
57.7200 19.2235 0.1013
57.7400 19.2302 0.0888
57.7600 19.2368 0.0890
57.7800 19.2435 0.1000
57.8000 19.2501 0.0927
57.8200 19.2567 0.0897
57.8400 19.2633 0.0937
57.8600 19.2700 0.0961
57.8800 19.2768 0.0889
57.9000 19.2834 0.0962
57.9200 19.2901 0.0908
57.9400 19.2968 0.0868
57.9600 19.3034 0.0979
57.9800 19.3101 0.0874
58.0000 19.3167 0.0906
58.0200 19.3234 0.1006
58.0400 19.3301 0.0870
58.0600 19.3368 0.0844
58.0800 19.3435 0.1009
58.1000 19.3501 0.0892
58.1200 19.3568 0.0903
58.1400 19.3635 0.0955
58.1600 19.3701 0.0870
58.1800 19.3767 0.0896
58.2000 19.3834 0.0949
58.2200 19.3901 0.0877
58.2400 19.3968 0.0927
58.2600 19.4035 0.0940
58.2800 19.4102 0.0920
58.3000 19.4168 0.0941
58.3200 19.4235 0.0924
58.3400 19.4301 0.0909
58.3600 19.4367 0.0996
58.3800 19.4433 0.0902
58.4000 19.4501 0.0887
58.4200 19.4568 0.1005
58.4400 19.4635 0.0936
58.4600 19.4701 0.0945
58.4800 19.4768 0.0951
58.5000 19.4835 0.0979
58.5200 19.4901 0.0943
58.5400 19.4967 0.0938
58.5600 19.5034 0.0978
58.5800 19.5101 0.0964
58.6000 19.5168 0.0898
58.6200 19.5235 0.0978
58.6400 19.5301 0.0975
58.6600 19.5368 0.0981
58.6800 19.5435 0.0994
58.7000 19.5501 0.0959
58.7200 19.5567 0.0948
58.7400 19.5633 0.1045
58.7600 19.5700 0.1009
58.7800 19.5767 0.0862
58.8000 19.5834 0.1066
58.8200 19.5901 0.1016
58.8400 19.5968 0.0885
58.8600 19.6035 0.1084
58.8800 19.6101 0.1021
58.9000 19.6167 0.0906
58.9200 19.6233 0.1074
58.9400 19.6301 0.0971
58.9600 19.6368 0.0931
58.9800 19.6435 0.1049
59.0000 19.6502 0.0966
59.0200 19.6568 0.0903
59.0400 19.6635 0.1131
59.0600 19.6701 0.0887
59.0800 19.6767 0.0943
59.1000 19.6834 0.1119
59.1200 19.6901 0.0908
59.1400 19.6968 0.0886
59.1600 19.7035 0.1095
59.1800 19.7101 0.0894
59.2000 19.7168 0.0931
59.2200 19.7235 0.1037
59.2400 19.7301 0.0878
59.2600 19.7367 0.0961
59.2800 19.7434 0.1032
59.3000 19.7500 0.0912
59.3200 19.7568 0.0960
59.3400 19.7635 0.1032
59.3600 19.7702 0.0909
59.3800 19.7768 0.0956
59.4000 19.7835 0.0973
59.4200 19.7901 0.0946
59.4400 19.7967 0.0959
59.4600 19.8033 0.0983
59.4800 19.8100 0.0988
59.5000 19.8167 0.0925
59.5200 19.8234 0.0941
59.5400 19.8301 0.1036
59.5600 19.8368 0.0925
59.5800 19.8435 0.0984
59.6000 19.8501 0.0996
59.6200 19.8567 0.0928
59.6400 19.8634 0.0951
59.6600 19.8701 0.1045
59.6800 19.8768 0.0917
59.7000 19.8835 0.0947
59.7200 19.8902 0.1031
59.7400 19.8969 0.0946
59.7600 19.9035 0.0992
59.7800 19.9102 0.0972
59.8000 19.9168 0.0926
59.8200 19.9234 0.1024
59.8400 19.9301 0.0976
59.8600 19.9368 0.0894
59.8800 19.9435 0.1025
59.9000 19.9502 0.0962
59.9200 19.9568 0.0922
59.9400 19.9635 0.1014
59.9600 19.9701 0.0979
59.9800 19.9767 0.0922
60.0000 19.9833 0.1081
60.0200 19.9900 0.0933
60.0400 19.9968 0.0922
60.0500 20.0001 0.0889
