Raw Data
Time Displacement Force
(s) (mm) (N)
0.0000 0.0000 -0.1629
0.0200 0.0000 -0.1594
0.0400 0.0008 -0.1095
0.0600 0.0039 -0.0922
0.0800 0.0094 -0.0910
0.1000 0.0152 -0.0609
0.1200 0.0211 -0.0222
0.1400 0.0277 -0.0085
0.1600 0.0349 0.0019
0.1800 0.0423 0.0123
0.2000 0.0496 0.0343
0.2200 0.0565 0.0421
0.2400 0.0632 0.0620
0.2600 0.0698 0.0837
0.2800 0.0765 0.0858
0.3000 0.0832 0.0920
0.3200 0.0899 0.1023
0.3400 0.0966 0.0951
0.3600 0.1032 0.0966
0.3800 0.1099 0.0946
0.4000 0.1166 0.0766
0.4200 0.1233 0.0809
0.4400 0.1300 0.0831
0.4600 0.1367 0.0818
0.4800 0.1434 0.0797
0.5000 0.1500 0.0804
0.5200 0.1566 0.0841
0.5400 0.1632 0.0805
0.5600 0.1699 0.0786
0.5800 0.1766 0.0924
0.6000 0.1834 0.0756
0.6200 0.1900 0.0752
0.6400 0.1967 0.0950
0.6600 0.2034 0.0748
0.6800 0.2100 0.0794
0.7000 0.2166 0.0974
0.7200 0.2232 0.0731
0.7400 0.2299 0.0783
0.7600 0.2366 0.0961
0.7800 0.2433 0.0819
0.8000 0.2500 0.0814
0.8200 0.2566 0.0934
0.8400 0.2633 0.0738
0.8600 0.2700 0.0875
0.8800 0.2766 0.0943
0.9000 0.2832 0.0734
0.9200 0.2898 0.0911
0.9400 0.2966 0.0891
0.9600 0.3033 0.0782
0.9800 0.3100 0.0868
1.0000 0.3166 0.0926
1.0200 0.3233 0.0836
1.0400 0.3300 0.0800
1.0600 0.3366 0.0901
1.0800 0.3432 0.0896
1.1000 0.3499 0.0829
1.1200 0.3567 0.0881
1.1400 0.3634 0.0865
1.1600 0.3700 0.0829
1.1800 0.3767 0.0883
1.2000 0.3834 0.0872
1.2200 0.3900 0.0787
1.2400 0.3966 0.0882
1.2600 0.4032 0.0911
1.2800 0.4099 0.0772
1.3000 0.4166 0.0903
1.3200 0.4233 0.0860
1.3400 0.4300 0.0747
1.3600 0.4367 0.0899
1.3800 0.4434 0.0861
1.4000 0.4500 0.0752
1.4200 0.4566 0.0923
1.4400 0.4632 0.0822
1.4600 0.4699 0.0737
1.4800 0.4766 0.0948
1.5000 0.4833 0.0813
1.5200 0.4900 0.0705
1.5400 0.4967 0.1005
1.5600 0.5034 0.0771
1.5800 0.5100 0.0720
1.6000 0.5166 0.0977
1.6200 0.5232 0.0782
1.6400 0.5298 0.0761
1.6600 0.5366 0.0913
1.6800 0.5433 0.0764
1.7000 0.5499 0.0737
1.7200 0.5566 0.0958
1.7400 0.5633 0.0789
1.7600 0.5699 0.0731
1.7800 0.5766 0.0881
1.8000 0.5832 0.0830
1.8200 0.5899 0.0765
1.8400 0.5966 0.0903
1.8600 0.6033 0.0798
1.8800 0.6100 0.0794
1.9000 0.6167 0.0878
1.9200 0.6234 0.0793
1.9400 0.6301 0.0753
1.9600 0.6366 0.0889
1.9800 0.6432 0.0805
2.0000 0.6499 0.0774
2.0200 0.6566 0.0892
2.0400 0.6633 0.0815
2.0600 0.6700 0.0769
2.0800 0.6767 0.0890
2.1000 0.6834 0.0831
2.1200 0.6900 0.0774
2.1400 0.6966 0.0883
2.1600 0.7032 0.0840
2.1800 0.7099 0.0827
2.2000 0.7166 0.0824
2.2200 0.7233 0.0854
2.2400 0.7299 0.0784
2.2600 0.7366 0.0849
2.2800 0.7433 0.0897
2.3000 0.7500 0.0792
2.3200 0.7566 0.0789
2.3400 0.7632 0.0890
2.3600 0.7699 0.0783
2.3800 0.7766 0.0831
2.4000 0.7833 0.0948
2.4200 0.7900 0.0732
2.4400 0.7967 0.0828
2.4600 0.8034 0.0900
2.4800 0.8100 0.0728
2.5000 0.8167 0.0876
2.5200 0.8233 0.0995
2.5400 0.8299 0.0632
2.5600 0.8366 0.0831
2.5800 0.8433 0.1056
2.6000 0.8500 0.0683
2.6200 0.8567 0.0868
2.6400 0.8634 0.0982
2.6600 0.8700 0.0635
2.6800 0.8766 0.0989
2.7000 0.8832 0.0964
2.7200 0.8899 0.0552
2.7400 0.8966 0.0985
2.7600 0.9033 0.1049
2.7800 0.9100 0.0557
2.8000 0.9167 0.0847
2.8200 0.9233 0.1005
2.8400 0.9300 0.0634
2.8600 0.9367 0.0900
2.8800 0.9433 0.0909
2.9000 0.9499 0.0704
2.9200 0.9566 0.0972
2.9400 0.9633 0.0817
2.9600 0.9700 0.0638
2.9800 0.9767 0.1028
3.0000 0.9834 0.0926
3.0200 0.9900 0.0658
3.0400 0.9966 0.0906
3.0600 1.0032 0.0899
3.0800 1.0099 0.0751
3.1000 1.0166 0.0875
3.1200 1.0233 0.0872
3.1400 1.0300 0.0788
3.1600 1.0367 0.0828
3.1800 1.0433 0.0851
3.2000 1.0500 0.0863
3.2200 1.0566 0.0808
3.2400 1.0632 0.0789
3.2600 1.0699 0.0873
3.2800 1.0766 0.0821
3.3000 1.0833 0.0845
3.3200 1.0900 0.0861
3.3400 1.0967 0.0745
3.3600 1.1034 0.0832
3.3800 1.1100 0.0846
3.4000 1.1167 0.0770
3.4200 1.1233 0.0930
3.4400 1.1299 0.0830
3.4600 1.1366 0.0687
3.4800 1.1433 0.0956
3.5000 1.1500 0.0864
3.5200 1.1567 0.0709
3.5400 1.1634 0.0983
3.5600 1.1700 0.0796
3.5800 1.1767 0.0648
3.6000 1.1832 0.1013
3.6200 1.1899 0.0842
3.6400 1.1966 0.0684
3.6600 1.2033 0.0951
3.6800 1.2100 0.0762
3.7000 1.2167 0.0749
3.7200 1.2233 0.1052
3.7400 1.2300 0.0697
3.7600 1.2366 0.0753
3.7800 1.2433 0.1026
3.8000 1.2499 0.0665
3.8200 1.2566 0.0823
3.8400 1.2633 0.0986
3.8600 1.2699 0.0688
3.8800 1.2766 0.0849
3.9000 1.2833 0.0947
3.9200 1.2900 0.0636
3.9400 1.2966 0.0888
3.9600 1.3032 0.0963
3.9800 1.3099 0.0683
4.0000 1.3166 0.0899
4.0200 1.3233 0.0875
4.0400 1.3300 0.0683
4.0600 1.3367 0.0881
4.0800 1.3434 0.0855
4.1000 1.3501 0.0740
4.1200 1.3567 0.0861
4.1400 1.3633 0.0863
4.1600 1.3699 0.0785
4.1800 1.3766 0.0827
4.2000 1.3833 0.0853
4.2200 1.3900 0.0798
4.2400 1.3967 0.0838
4.2600 1.4033 0.0883
4.2800 1.4100 0.0791
4.3000 1.4166 0.0794
4.3200 1.4232 0.0921
4.3400 1.4299 0.0788
4.3600 1.4366 0.0794
4.3800 1.4433 0.0950
4.4000 1.4500 0.0730
4.4200 1.4566 0.0827
4.4400 1.4633 0.0918
4.4600 1.4700 0.0779
4.4800 1.4767 0.0783
4.5000 1.4832 0.0916
4.5200 1.4898 0.0782
4.5400 1.4965 0.0789
4.5600 1.5033 0.0903
4.5800 1.5100 0.0791
4.6000 1.5167 0.0785
4.6200 1.5234 0.0863
4.6400 1.5300 0.0803
4.6600 1.5367 0.0786
4.6800 1.5433 0.0863
4.7000 1.5499 0.0862
4.7200 1.5566 0.0827
4.7400 1.5633 0.0840
4.7600 1.5700 0.0810
4.7800 1.5767 0.0823
4.8000 1.5834 0.0880
4.8200 1.5900 0.0778
4.8400 1.5967 0.0790
4.8600 1.6033 0.0882
4.8800 1.6099 0.0835
4.9000 1.6166 0.0778
4.9200 1.6233 0.0901
4.9400 1.6300 0.0818
4.9600 1.6367 0.0786
4.9800 1.6434 0.0917
5.0000 1.6501 0.0791
5.0200 1.6567 0.0778
5.0400 1.6633 0.0946
5.0600 1.6699 0.0817
5.0800 1.6766 0.0788
5.1000 1.6833 0.0924
5.1200 1.6900 0.0804
5.1400 1.6967 0.0814
5.1600 1.7033 0.0890
5.1800 1.7100 0.0791
5.2000 1.7166 0.0846
5.2200 1.7232 0.0922
5.2400 1.7299 0.0799
5.2600 1.7365 0.0893
5.2800 1.7433 0.0830
5.3000 1.7500 0.0753
5.3200 1.7566 0.0897
5.3400 1.7633 0.0853
5.3600 1.7700 0.0754
5.3800 1.7767 0.0891
5.4000 1.7833 0.0814
5.4200 1.7899 0.0852
5.4400 1.7966 0.0900
5.4600 1.8033 0.0804
5.4800 1.8100 0.0847
5.5000 1.8167 0.0831
5.5200 1.8234 0.0806
5.5400 1.8301 0.0877
5.5600 1.8367 0.0887
5.5800 1.8433 0.0694
5.6000 1.8499 0.0931
5.6200 1.8566 0.0946
5.6400 1.8633 0.0680
5.6600 1.8700 0.0878
5.6800 1.8767 0.0876
5.7000 1.8834 0.0726
5.7200 1.8900 0.0889
5.7400 1.8967 0.0878
5.7600 1.9033 0.0801
5.7800 1.9099 0.0912
5.8000 1.9166 0.0848
5.8200 1.9233 0.0785
5.8400 1.9300 0.0923
5.8600 1.9367 0.0771
5.8800 1.9433 0.0810
5.9000 1.9500 0.0963
5.9200 1.9567 0.0815
5.9400 1.9633 0.0726
5.9600 1.9699 0.0876
5.9800 1.9766 0.0957
6.0000 1.9833 0.0770
6.0200 1.9899 0.0816
6.0400 1.9966 0.0898
6.0600 2.0033 0.0811
6.0800 2.0100 0.0907
6.1000 2.0166 0.0875
6.1200 2.0233 0.0688
6.1400 2.0299 0.0912
6.1600 2.0366 0.0973
6.1800 2.0433 0.0696
6.2000 2.0500 0.0874
6.2200 2.0567 0.0898
6.2400 2.0634 0.0787
6.2600 2.0700 0.0930
6.2800 2.0767 0.0755
6.3000 2.0833 0.0798
6.3200 2.0899 0.1048
6.3400 2.0966 0.0670
6.3600 2.1033 0.0813
6.3800 2.1100 0.0981
6.4000 2.1167 0.0704
6.4200 2.1234 0.0804
6.4400 2.1300 0.0966
6.4600 2.1367 0.0754
6.4800 2.1433 0.0873
6.5000 2.1499 0.0860
6.5200 2.1566 0.0740
6.5400 2.1632 0.0877
6.5600 2.1699 0.0876
6.5800 2.1766 0.0753
6.6000 2.1833 0.0864
6.6200 2.1900 0.0808
6.6400 2.1967 0.0789
6.6600 2.2033 0.0883
6.6800 2.2099 0.0811
6.7000 2.2165 0.0779
6.7200 2.2233 0.0823
6.7400 2.2300 0.0853
6.7600 2.2367 0.0830
6.7800 2.2433 0.0801
6.8000 2.2500 0.0814
6.8200 2.2567 0.0795
6.8400 2.2633 0.0835
6.8600 2.2699 0.0910
6.8800 2.2766 0.0810
6.9000 2.2833 0.0766
6.9200 2.2900 0.0851
6.9400 2.2967 0.0865
6.9600 2.3033 0.0757
6.9800 2.3100 0.0847
7.0000 2.3167 0.0861
7.0200 2.3233 0.0789
7.0400 2.3299 0.0872
7.0600 2.3365 0.0851
7.0800 2.3432 0.0805
7.1000 2.3499 0.0847
7.1200 2.3567 0.0888
7.1400 2.3634 0.0748
7.1600 2.3700 0.0854
7.1800 2.3767 0.0845
7.2000 2.3833 0.0837
7.2200 2.3899 0.0863
7.2400 2.3966 0.0842
7.2600 2.4033 0.0854
7.2800 2.4100 0.0871
7.3000 2.4167 0.0817
7.3200 2.4234 0.0762
7.3400 2.4300 0.0929
7.3600 2.4367 0.0902
7.3800 2.4433 0.0762
7.4000 2.4499 0.0903
7.4200 2.4565 0.0905
7.4400 2.4632 0.0792
7.4600 2.4700 0.0849
7.4800 2.4766 0.0884
7.5000 2.4833 0.0841
7.5200 2.4900 0.0817
7.5400 2.4967 0.0885
7.5600 2.5033 0.0847
7.5800 2.5099 0.0868
7.6000 2.5165 0.0857
7.6200 2.5232 0.0817
7.6400 2.5300 0.0913
7.6600 2.5367 0.0870
7.6800 2.5434 0.0788
7.7000 2.5501 0.0878
7.7200 2.5568 0.0920
7.7400 2.5634 0.0773
7.7600 2.5699 0.0799
7.7800 2.5766 0.0940
7.8000 2.5833 0.0761
7.8200 2.5900 0.0827
7.8400 2.5967 0.0979
7.8600 2.6034 0.0745
7.8800 2.6101 0.0806
7.9000 2.6167 0.0901
7.9200 2.6233 0.0841
7.9400 2.6299 0.0849
7.9600 2.6366 0.0939
7.9800 2.6433 0.0835
8.0000 2.6499 0.0700
8.0200 2.6566 0.0958
8.0400 2.6633 0.0894
8.0600 2.6700 0.0735
8.0800 2.6767 0.0888
8.1000 2.6833 0.0808
8.1200 2.6899 0.0795
8.1400 2.6965 0.0949
8.1600 2.7032 0.0891
8.1800 2.7099 0.0740
8.2000 2.7166 0.0892
8.2200 2.7233 0.0889
8.2400 2.7300 0.0760
8.2600 2.7367 0.0932
8.2800 2.7433 0.0820
8.3000 2.7499 0.0725
8.3200 2.7565 0.0943
8.3400 2.7633 0.0936
8.3600 2.7700 0.0704
8.3800 2.7767 0.0896
8.4000 2.7834 0.0855
8.4200 2.7900 0.0718
8.4400 2.7967 0.0939
8.4600 2.8034 0.0864
8.4800 2.8100 0.0731
8.5000 2.8166 0.0905
8.5200 2.8233 0.0875
8.5400 2.8300 0.0759
8.5600 2.8367 0.0897
8.5800 2.8434 0.0931
8.6000 2.8500 0.0718
8.6200 2.8567 0.0860
8.6400 2.8633 0.0892
8.6600 2.8699 0.0778
8.6800 2.8765 0.0928
8.7000 2.8832 0.0831
8.7200 2.8899 0.0763
8.7400 2.8966 0.0891
8.7600 2.9033 0.0830
8.7800 2.9100 0.0738
8.8000 2.9167 0.0971
8.8200 2.9233 0.0752
8.8400 2.9299 0.0734
8.8600 2.9365 0.1012
8.8800 2.9432 0.0783
8.9000 2.9499 0.0734
8.9200 2.9566 0.0971
8.9400 2.9633 0.0825
8.9600 2.9700 0.0763
8.9800 2.9767 0.0954
9.0000 2.9833 0.0736
9.0200 2.9899 0.0801
9.0400 2.9966 0.0975
9.0600 3.0032 0.0741
9.0800 3.0100 0.0821
9.1000 3.0167 0.0940
9.1200 3.0233 0.0721
9.1400 3.0300 0.0824
9.1600 3.0367 0.0932
9.1800 3.0433 0.0749
9.2000 3.0499 0.0794
9.2200 3.0565 0.0974
9.2400 3.0632 0.0778
9.2600 3.0700 0.0794
9.2800 3.0767 0.0866
9.3000 3.0834 0.0824
9.3200 3.0900 0.0814
9.3400 3.0967 0.0856
9.3600 3.1033 0.0870
9.3800 3.1099 0.0803
9.4000 3.1166 0.0842
9.4200 3.1233 0.0857
9.4400 3.1300 0.0809
9.4600 3.1367 0.0847
9.4800 3.1433 0.0827
9.5000 3.1500 0.0774
9.5200 3.1567 0.0908
9.5400 3.1633 0.0884
9.5600 3.1699 0.0713
9.5800 3.1765 0.0854
9.6000 3.1832 0.0936
9.6200 3.1899 0.0655
9.6400 3.1966 0.0925
9.6600 3.2033 0.0925
9.6800 3.2100 0.0686
9.7000 3.2167 0.0934
9.7200 3.2233 0.0847
9.7400 3.2299 0.0768
9.7600 3.2365 0.0923
9.7800 3.2432 0.0901
9.8000 3.2500 0.0761
9.8200 3.2567 0.0853
9.8400 3.2634 0.0900
9.8600 3.2701 0.0796
9.8800 3.2767 0.0812
9.9000 3.2834 0.0878
9.9200 3.2899 0.0821
9.9400 3.2966 0.0872
9.9600 3.3033 0.0879
9.9800 3.3100 0.0827
10.0000 3.3167 0.0826
10.0200 3.3233 0.0889
10.0400 3.3300 0.0814
10.0600 3.3367 0.0824
10.0800 3.3433 0.0909
10.1000 3.3499 0.0813
10.1200 3.3566 0.0834
10.1400 3.3632 0.0890
10.1600 3.3699 0.0857
10.1800 3.3766 0.0825
10.2000 3.3833 0.0853
10.2200 3.3900 0.0797
10.2400 3.3967 0.0875
10.2600 3.4033 0.0900
10.2800 3.4099 0.0838
10.3000 3.4165 0.0859
10.3200 3.4232 0.0901
10.3400 3.4299 0.0810
10.3600 3.4366 0.0921
10.3800 3.4433 0.0869
10.4000 3.4500 0.0818
10.4200 3.4567 0.0875
10.4400 3.4633 0.0868
10.4600 3.4699 0.0864
10.4800 3.4766 0.0840
10.5000 3.4832 0.0887
10.5200 3.4900 0.0826
10.5400 3.4967 0.0834
10.5600 3.5034 0.0906
10.5800 3.5100 0.0865
10.6000 3.5167 0.0825
10.6200 3.5234 0.0875
10.6400 3.5300 0.0869
10.6600 3.5366 0.0877
10.6800 3.5433 0.0907
10.7000 3.5500 0.0826
10.7200 3.5567 0.0836
10.7400 3.5634 0.0925
10.7600 3.5701 0.0814
10.7800 3.5767 0.0843
10.8000 3.5834 0.0908
10.8200 3.5900 0.0805
10.8400 3.5966 0.0869
10.8600 3.6032 0.0923
10.8800 3.6099 0.0849
10.9000 3.6166 0.0843
10.9200 3.6233 0.0856
10.9400 3.6300 0.0875
10.9600 3.6367 0.0875
10.9800 3.6433 0.0816
11.0000 3.6499 0.0869
11.0200 3.6566 0.0875
11.0400 3.6632 0.0826
11.0600 3.6699 0.0879
11.0800 3.6766 0.0899
11.1000 3.6833 0.0775
11.1200 3.6900 0.0882
11.1400 3.6967 0.0872
11.1600 3.7033 0.0785
11.1800 3.7100 0.0890
11.2000 3.7166 0.0848
11.2200 3.7232 0.0850
11.2400 3.7299 0.0875
11.2600 3.7367 0.0833
11.2800 3.7434 0.0816
11.3000 3.7500 0.0921
11.3200 3.7567 0.0860
11.3400 3.7634 0.0779
11.3600 3.7700 0.0913
11.3800 3.7766 0.0831
11.4000 3.7832 0.0842
11.4200 3.7899 0.0949
11.4400 3.7967 0.0766
11.4600 3.8034 0.0857
11.4800 3.8100 0.0914
11.5000 3.8167 0.0792
11.5200 3.8233 0.0825
11.5400 3.8300 0.0955
11.5600 3.8366 0.0761
11.5800 3.8433 0.0834
11.6000 3.8500 0.0943
11.6200 3.8567 0.0782
11.6400 3.8633 0.0867
11.6600 3.8700 0.0898
11.6800 3.8767 0.0809
11.7000 3.8833 0.0832
11.7200 3.8900 0.0909
11.7400 3.8965 0.0855
11.7600 3.9032 0.0843
11.7800 3.9099 0.0932
11.8000 3.9166 0.0872
11.8200 3.9233 0.0799
11.8400 3.9300 0.0900
11.8600 3.9366 0.0851
11.8800 3.9433 0.0787
11.9000 3.9499 0.0905
11.9200 3.9565 0.0882
11.9400 3.9632 0.0784
11.9600 3.9699 0.0923
11.9800 3.9767 0.0834
12.0000 3.9834 0.0789
12.0200 3.9900 0.0941
12.0400 3.9967 0.0782
12.0600 4.0034 0.0799
12.0800 4.0100 0.0938
12.1000 4.0166 0.0797
12.1200 4.0233 0.0818
12.1400 4.0300 0.0923
12.1600 4.0367 0.0756
12.1800 4.0434 0.0894
12.2000 4.0500 0.0890
12.2200 4.0567 0.0766
12.2400 4.0634 0.0859
12.2600 4.0700 0.0892
12.2800 4.0766 0.0811
12.3000 4.0832 0.0909
12.3200 4.0899 0.0864
12.3400 4.0966 0.0837
12.3600 4.1033 0.0832
12.3800 4.1100 0.0830
12.4000 4.1167 0.0882
12.4200 4.1233 0.0815
12.4400 4.1299 0.0841
12.4600 4.1365 0.0862
12.4800 4.1432 0.0808
12.5000 4.1499 0.0824
12.5200 4.1566 0.0877
12.5400 4.1633 0.0781
12.5600 4.1700 0.0840
12.5800 4.1766 0.0861
12.6000 4.1833 0.0777
12.6200 4.1900 0.0894
12.6400 4.1966 0.0859
12.6600 4.2033 0.0705
12.6800 4.2100 0.0903
12.7000 4.2167 0.0868
12.7200 4.2233 0.0761
12.7400 4.2300 0.0886
12.7600 4.2367 0.0849
12.7800 4.2434 0.0736
12.8000 4.2500 0.0912
12.8200 4.2566 0.0844
12.8400 4.2632 0.0775
12.8600 4.2699 0.0936
12.8800 4.2766 0.0807
12.9000 4.2834 0.0763
12.9200 4.2900 0.0934
12.9400 4.2967 0.0809
12.9600 4.3034 0.0738
12.9800 4.3100 0.0917
13.0000 4.3166 0.0804
13.0200 4.3232 0.0790
13.0400 4.3299 0.0924
13.0600 4.3366 0.0772
13.0800 4.3433 0.0799
13.1000 4.3500 0.0894
13.1200 4.3567 0.0779
13.1400 4.3633 0.0822
13.1600 4.3700 0.0870
13.1800 4.3766 0.0824
13.2000 4.3832 0.0808
13.2200 4.3899 0.0861
13.2400 4.3966 0.0872
13.2600 4.4033 0.0752
13.2800 4.4100 0.0891
13.3000 4.4167 0.0872
13.3200 4.4234 0.0759
13.3400 4.4300 0.0858
13.3600 4.4366 0.0856
13.3800 4.4432 0.0787
13.4000 4.4499 0.0953
13.4200 4.4566 0.0815
13.4400 4.4634 0.0777
13.4600 4.4700 0.0906
13.4800 4.4767 0.0787
13.5000 4.4834 0.0829
13.5200 4.4900 0.0970
13.5400 4.4966 0.0732
13.5600 4.5032 0.0840
13.5800 4.5099 0.1035
13.6000 4.5167 0.0754
13.6200 4.5233 0.0878
13.6400 4.5300 0.0952
13.6600 4.5367 0.0726
13.6800 4.5434 0.0922
13.7000 4.5500 0.0944
13.7200 4.5566 0.0677
13.7400 4.5632 0.0953
13.7600 4.5699 0.0950
13.7800 4.5766 0.0691
13.8000 4.5833 0.0963
13.8200 4.5900 0.0906
13.8400 4.5967 0.0764
13.8600 4.6034 0.0937
13.8800 4.6100 0.0865
13.9000 4.6166 0.0833
13.9200 4.6232 0.0878
13.9400 4.6299 0.0907
13.9600 4.6366 0.0826
13.9800 4.6433 0.0900
14.0000 4.6500 0.0863
14.0200 4.6566 0.0810
14.0400 4.6633 0.0935
14.0600 4.6700 0.0880
14.0800 4.6766 0.0838
14.1000 4.6832 0.0830
14.1200 4.6899 0.0933
14.1400 4.6966 0.0816
14.1600 4.7033 0.0877
14.1800 4.7100 0.0962
14.2000 4.7167 0.0846
14.2200 4.7234 0.0876
14.2400 4.7301 0.0863
14.2600 4.7367 0.0839
14.2800 4.7433 0.0938
14.3000 4.7499 0.0843
14.3200 4.7566 0.0857
14.3400 4.7633 0.0891
14.3600 4.7700 0.0920
14.3800 4.7767 0.0904
14.4000 4.7834 0.0817
14.4200 4.7900 0.0885
14.4400 4.7966 0.0908
14.4600 4.8032 0.0889
14.4800 4.8099 0.0839
14.5000 4.8166 0.0889
14.5200 4.8233 0.0852
14.5400 4.8300 0.0860
14.5600 4.8367 0.0892
14.5800 4.8433 0.0797
14.6000 4.8500 0.0955
14.6200 4.8566 0.0900
14.6400 4.8632 0.0752
14.6600 4.8699 0.0985
14.6800 4.8766 0.0882
14.7000 4.8833 0.0756
14.7200 4.8900 0.0942
14.7400 4.8966 0.0882
14.7600 4.9033 0.0830
14.7800 4.9100 0.0870
14.8000 4.9166 0.0843
14.8200 4.9232 0.0798
14.8400 4.9299 0.0916
14.8600 4.9366 0.0858
14.8800 4.9433 0.0852
14.9000 4.9500 0.0834
14.9200 4.9567 0.0793
14.9400 4.9634 0.0878
14.9600 4.9700 0.0896
14.9800 4.9766 0.0748
15.0000 4.9832 0.0949
15.0200 4.9899 0.0895
15.0400 4.9966 0.0705
15.0600 5.0034 0.0949
15.0800 5.0100 0.0931
15.1000 5.0167 0.0745
15.1200 5.0234 0.0933
15.1400 5.0300 0.0819
15.1600 5.0366 0.0784
15.1800 5.0432 0.1012
15.2000 5.0499 0.0759
15.2200 5.0566 0.0807
15.2400 5.0633 0.0978
15.2600 5.0700 0.0760
15.2800 5.0767 0.0891
15.3000 5.0833 0.0872
15.3200 5.0900 0.0797
15.3400 5.0966 0.0972
15.3600 5.1032 0.0829
15.3800 5.1099 0.0768
15.4000 5.1166 0.1036
15.4200 5.1233 0.0801
15.4400 5.1300 0.0729
15.4600 5.1366 0.1008
15.4800 5.1433 0.0830
15.5000 5.1500 0.0803
15.5200 5.1566 0.0917
15.5400 5.1632 0.0766
15.5600 5.1699 0.0937
15.5800 5.1767 0.0886
15.6000 5.1834 0.0790
15.6200 5.1901 0.0971
15.6400 5.1967 0.0782
15.6600 5.2034 0.0817
15.6800 5.2100 0.0978
15.7000 5.2166 0.0732
15.7200 5.2232 0.0875
15.7400 5.2299 0.0989
15.7600 5.2366 0.0731
15.7800 5.2433 0.0821
15.8000 5.2500 0.0998
15.8200 5.2567 0.0762
15.8400 5.2634 0.0843
15.8600 5.2700 0.0912
15.8800 5.2766 0.0828
15.9000 5.2832 0.0928
15.9200 5.2899 0.0808
15.9400 5.2966 0.0791
15.9600 5.3033 0.0942
15.9800 5.3100 0.0828
16.0000 5.3167 0.0741
16.0200 5.3234 0.0970
16.0400 5.3300 0.0846
16.0600 5.3366 0.0783
16.0800 5.3432 0.0955
16.1000 5.3498 0.0793
16.1200 5.3566 0.0859
16.1400 5.3633 0.0988
16.1600 5.3700 0.0718
16.1800 5.3766 0.0892
16.2000 5.3833 0.0963
16.2200 5.3900 0.0658
16.2400 5.3966 0.0932
16.2600 5.4032 0.0987
16.2800 5.4099 0.0709
16.3000 5.4166 0.0921
16.3200 5.4233 0.0917
16.3400 5.4300 0.0720
16.3600 5.4367 0.0947
16.3800 5.4434 0.0918
16.4000 5.4501 0.0730
16.4200 5.4567 0.0929
16.4400 5.4633 0.0838
16.4600 5.4699 0.0791
16.4800 5.4766 0.1001
16.5000 5.4833 0.0802
16.5200 5.4900 0.0803
16.5400 5.4967 0.0941
16.5600 5.5034 0.0826
16.5800 5.5100 0.0853
16.6000 5.5166 0.0889
16.6200 5.5232 0.0828
16.6400 5.5299 0.0879
16.6600 5.5366 0.0833
16.6800 5.5433 0.0788
16.7000 5.5499 0.0880
16.7200 5.5566 0.0858
16.7400 5.5633 0.0879
16.7600 5.5700 0.0856
16.7800 5.5766 0.0803
16.8000 5.5832 0.0875
16.8200 5.5899 0.0901
16.8400 5.5966 0.0804
16.8600 5.6033 0.0927
16.8800 5.6100 0.0830
16.9000 5.6167 0.0832
16.9200 5.6234 0.0901
16.9400 5.6301 0.0744
16.9600 5.6367 0.0856
16.9800 5.6433 0.0972
17.0000 5.6499 0.0763
17.0200 5.6566 0.0814
17.0400 5.6633 0.0909
17.0600 5.6700 0.0781
17.0800 5.6767 0.0855
17.1000 5.6834 0.0864
17.1200 5.6900 0.0770
17.1400 5.6967 0.0907
17.1600 5.7033 0.0819
17.1800 5.7099 0.0775
17.2000 5.7166 0.0986
17.2200 5.7233 0.0781
17.2400 5.7300 0.0779
17.2600 5.7367 0.0909
17.2800 5.7434 0.0811
17.3000 5.7500 0.0819
17.3200 5.7567 0.0880
17.3400 5.7633 0.0772
17.3600 5.7699 0.0863
17.3800 5.7766 0.0870
17.4000 5.7833 0.0755
17.4200 5.7900 0.0891
17.4400 5.7966 0.0859
17.4600 5.8033 0.0738
17.4800 5.8100 0.0901
17.5000 5.8166 0.0828
17.5200 5.8232 0.0829
17.5400 5.8298 0.0914
17.5600 5.8365 0.0749
17.5800 5.8433 0.0848
17.6000 5.8500 0.0901
17.6200 5.8567 0.0757
17.6400 5.8633 0.0791
17.6600 5.8700 0.0908
17.6800 5.8766 0.0758
17.7000 5.8832 0.0846
17.7200 5.8899 0.0865
17.7400 5.8966 0.0729
17.7600 5.9033 0.0887
17.7800 5.9100 0.0844
17.8000 5.9167 0.0774
17.8200 5.9234 0.0900
17.8400 5.9300 0.0801
17.8600 5.9367 0.0732
17.8800 5.9433 0.0865
17.9000 5.9499 0.0854
17.9200 5.9566 0.0809
17.9400 5.9633 0.0850
17.9600 5.9700 0.0810
17.9800 5.9767 0.0753
18.0000 5.9834 0.0881
18.0200 5.9901 0.0786
18.0400 5.9967 0.0772
18.0600 6.0033 0.0844
18.0800 6.0099 0.0824
18.1000 6.0166 0.0753
18.1200 6.0233 0.0843
18.1400 6.0300 0.0837
18.1600 6.0367 0.0768
18.1800 6.0433 0.0834
18.2000 6.0500 0.0825
18.2200 6.0566 0.0749
18.2400 6.0632 0.0906
18.2600 6.0699 0.0814
18.2800 6.0766 0.0700
18.3000 6.0833 0.0925
18.3200 6.0899 0.0798
18.3400 6.0966 0.0731
18.3600 6.1033 0.0902
18.3800 6.1100 0.0760
18.4000 6.1166 0.0771
18.4200 6.1233 0.0893
18.4400 6.1299 0.0733
18.4600 6.1366 0.0840
18.4800 6.1433 0.0904
18.5000 6.1500 0.0713
18.5200 6.1567 0.0809
18.5400 6.1634 0.0910
18.5600 6.1701 0.0747
18.5800 6.1767 0.0796
18.6000 6.1833 0.0912
18.6200 6.1899 0.0785
18.6400 6.1966 0.0747
18.6600 6.2033 0.0845
18.6800 6.2100 0.0865
18.7000 6.2167 0.0760
18.7200 6.2234 0.0856
18.7400 6.2300 0.0881
18.7600 6.2366 0.0762
18.7800 6.2433 0.0849
18.8000 6.2499 0.0927
18.8200 6.2566 0.0710
18.8400 6.2633 0.0864
18.8600 6.2700 0.0881
18.8800 6.2766 0.0714
18.9000 6.2833 0.0887
18.9200 6.2900 0.0861
18.9400 6.2967 0.0703
18.9600 6.3033 0.0923
18.9800 6.3099 0.0880
19.0000 6.3165 0.0709
19.0200 6.3232 0.0971
19.0400 6.3300 0.0790
19.0600 6.3367 0.0708
19.0800 6.3434 0.1008
19.1000 6.3500 0.0779
19.1200 6.3567 0.0715
19.1400 6.3633 0.1025
19.1600 6.3699 0.0779
19.1800 6.3766 0.0807
19.2000 6.3833 0.0938
19.2200 6.3900 0.0719
19.2400 6.3967 0.0837
19.2600 6.4034 0.1035
19.2800 6.4100 0.0703
19.3000 6.4167 0.0758
19.3200 6.4233 0.1020
19.3400 6.4299 0.0779
19.3600 6.4366 0.0818
19.3800 6.4433 0.1011
19.4000 6.4500 0.0687
19.4200 6.4567 0.0883
19.4400 6.4634 0.1003
19.4600 6.4701 0.0658
19.4800 6.4767 0.0885
19.5000 6.4833 0.0993
19.5200 6.4899 0.0681
19.5400 6.4966 0.0908
19.5600 6.5033 0.0991
19.5800 6.5100 0.0686
19.6000 6.5167 0.0933
19.6200 6.5233 0.0902
19.6400 6.5300 0.0734
19.6600 6.5366 0.0998
19.6800 6.5433 0.0821
19.7000 6.5499 0.0722
19.7200 6.5565 0.1011
19.7400 6.5632 0.0859
19.7600 6.5699 0.0783
19.7800 6.5766 0.0982
19.8000 6.5833 0.0755
19.8200 6.5900 0.0849
19.8400 6.5966 0.0956
19.8600 6.6033 0.0758
19.8800 6.6099 0.0931
19.9000 6.6166 0.0952
19.9200 6.6233 0.0729
19.9400 6.6300 0.0948
19.9600 6.6367 0.0888
19.9800 6.6434 0.0768
20.0000 6.6501 0.0954
20.0200 6.6567 0.0840
20.0400 6.6633 0.0722
20.0600 6.6699 0.0986
20.0800 6.6766 0.0839
20.1000 6.6833 0.0786
20.1200 6.6900 0.0944
20.1400 6.6967 0.0806
20.1600 6.7034 0.0836
20.1800 6.7100 0.0939
20.2000 6.7167 0.0781
20.2200 6.7233 0.0870
20.2400 6.7299 0.0933
20.2600 6.7366 0.0782
20.2800 6.7433 0.0890
20.3000 6.7500 0.0839
20.3200 6.7567 0.0829
20.3400 6.7633 0.0936
20.3600 6.7700 0.0821
20.3800 6.7767 0.0802
20.4000 6.7833 0.0915
20.4200 6.7899 0.0829
20.4400 6.7966 0.0845
20.4600 6.8032 0.0903
20.4800 6.8099 0.0831
20.5000 6.8166 0.0816
20.5200 6.8233 0.0907
20.5400 6.8300 0.0837
20.5600 6.8367 0.0833
20.5800 6.8433 0.0888
20.6000 6.8499 0.0811
20.6200 6.8565 0.0858
20.6400 6.8633 0.0909
20.6600 6.8700 0.0791
20.6800 6.8767 0.0803
20.7000 6.8834 0.0920
20.7200 6.8900 0.0796
20.7400 6.8967 0.0860
20.7600 6.9033 0.0912
20.7800 6.9099 0.0780
20.8000 6.9166 0.0867
20.8200 6.9233 0.0942
20.8400 6.9300 0.0800
20.8600 6.9367 0.0888
20.8800 6.9434 0.0889
20.9000 6.9500 0.0794
20.9200 6.9567 0.0880
20.9400 6.9633 0.0882
20.9600 6.9699 0.0807
20.9800 6.9766 0.0878
21.0000 6.9832 0.0882
21.0200 6.9899 0.0759
21.0400 6.9966 0.0922
21.0600 7.0033 0.0874
21.0800 7.0100 0.0833
21.1000 7.0167 0.0866
21.1200 7.0233 0.0835
21.1400 7.0299 0.0865
21.1600 7.0365 0.0928
21.1800 7.0432 0.0821
21.2000 7.0500 0.0883
21.2200 7.0567 0.0917
21.2400 7.0633 0.0825
21.2600 7.0700 0.0832
21.2800 7.0767 0.0918
21.3000 7.0833 0.0850
21.3200 7.0899 0.0836
21.3400 7.0966 0.0893
21.3600 7.1033 0.0839
21.3800 7.1100 0.0896
21.4000 7.1167 0.0874
21.4200 7.1233 0.0823
21.4400 7.1300 0.0916
21.4600 7.1367 0.0855
21.4800 7.1433 0.0810
21.5000 7.1499 0.0908
21.5200 7.1565 0.0860
21.5400 7.1632 0.0885
21.5600 7.1700 0.0922
21.5800 7.1767 0.0814
21.6000 7.1834 0.0880
21.6200 7.1900 0.0882
21.6400 7.1967 0.0809
21.6600 7.2033 0.0910
21.6800 7.2099 0.0912
21.7000 7.2166 0.0809
21.7200 7.2233 0.0892
21.7400 7.2300 0.0833
21.7600 7.2367 0.0803
21.7800 7.2434 0.0949
21.8000 7.2500 0.0837
21.8200 7.2567 0.0793
21.8400 7.2633 0.0930
21.8600 7.2699 0.0839
21.8800 7.2766 0.0829
21.9000 7.2832 0.0960
21.9200 7.2899 0.0810
21.9400 7.2966 0.0801
21.9600 7.3033 0.0966
21.9800 7.3100 0.0801
22.0000 7.3167 0.0817
22.0200 7.3233 0.0910
22.0400 7.3299 0.0795
22.0600 7.3365 0.0796
22.0800 7.3432 0.0948
22.1000 7.3500 0.0793
22.1200 7.3567 0.0821
22.1400 7.3634 0.0908
22.1600 7.3701 0.0763
22.1800 7.3768 0.0858
22.2000 7.3834 0.0910
22.2200 7.3899 0.0774
22.2400 7.3966 0.0825
22.2600 7.4033 0.0907
22.2800 7.4100 0.0775
22.3000 7.4167 0.0822
22.3200 7.4234 0.0889
22.3400 7.4300 0.0852
22.3600 7.4367 0.0857
22.3800 7.4433 0.0792
22.4000 7.4499 0.0856
22.4200 7.4566 0.0954
22.4400 7.4632 0.0758
22.4600 7.4699 0.0772
22.4800 7.4766 0.0933
22.5000 7.4833 0.0831
22.5200 7.4900 0.0819
22.5400 7.4967 0.0858
22.5600 7.5033 0.0832
22.5800 7.5099 0.0830
22.6000 7.5165 0.0897
22.6200 7.5232 0.0843
22.6400 7.5299 0.0851
22.6600 7.5366 0.0813
22.6800 7.5433 0.0889
22.7000 7.5500 0.0860
22.7200 7.5567 0.0820
22.7400 7.5633 0.0867
22.7600 7.5699 0.0843
22.7800 7.5765 0.0824
22.8000 7.5832 0.0889
22.8200 7.5900 0.0824
22.8400 7.5967 0.0822
22.8600 7.6034 0.0890
22.8800 7.6100 0.0884
22.9000 7.6167 0.0798
22.9200 7.6234 0.0847
22.9400 7.6300 0.0865
22.9600 7.6366 0.0822
22.9800 7.6433 0.0849
23.0000 7.6500 0.0847
23.0200 7.6566 0.0850
23.0400 7.6633 0.0866
23.0600 7.6700 0.0874
23.0800 7.6767 0.0832
23.1000 7.6834 0.0850
23.1200 7.6900 0.0842
23.1400 7.6966 0.0867
23.1600 7.7032 0.0878
23.1800 7.7099 0.0831
23.2000 7.7166 0.0820
23.2200 7.7233 0.0923
23.2400 7.7300 0.0813
23.2600 7.7367 0.0860
23.2800 7.7433 0.0835
23.3000 7.7499 0.0853
23.3200 7.7565 0.0931
23.3400 7.7632 0.0845
23.3600 7.7699 0.0845
23.3800 7.7766 0.0877
23.4000 7.7833 0.0830
23.4200 7.7900 0.0897
23.4400 7.7967 0.0892
23.4600 7.8033 0.0798
23.4800 7.8099 0.0855
23.5000 7.8166 0.0890
23.5200 7.8233 0.0903
23.5400 7.8300 0.0851
23.5600 7.8367 0.0858
23.5800 7.8434 0.0908
23.6000 7.8501 0.0873
23.6200 7.8567 0.0820
23.6400 7.8634 0.0974
23.6600 7.8699 0.0835
23.6800 7.8766 0.0821
23.7000 7.8832 0.0984
23.7200 7.8900 0.0837
23.7400 7.8967 0.0847
23.7600 7.9034 0.0921
23.7800 7.9100 0.0831
23.8000 7.9167 0.0872
23.8200 7.9233 0.0924
23.8400 7.9299 0.0807
23.8600 7.9366 0.0931
23.8800 7.9433 0.0878
23.9000 7.9500 0.0796
23.9200 7.9567 0.0967
23.9400 7.9633 0.0888
23.9600 7.9700 0.0778
23.9800 7.9767 0.0967
24.0000 7.9833 0.0869
24.0200 7.9899 0.0792
24.0400 7.9965 0.0968
24.0600 8.0032 0.0834
24.0800 8.0099 0.0809
24.1000 8.0166 0.1002
24.1200 8.0233 0.0787
24.1400 8.0300 0.0836
24.1600 8.0367 0.0960
24.1800 8.0433 0.0784
24.2000 8.0499 0.0896
24.2200 8.0566 0.0924
24.2400 8.0632 0.0794
24.2600 8.0699 0.0905
24.2800 8.0767 0.0916
24.3000 8.0834 0.0740
24.3200 8.0901 0.0915
24.3400 8.0967 0.0924
24.3600 8.1034 0.0808
24.3800 8.1100 0.0892
24.4000 8.1166 0.0854
24.4200 8.1233 0.0837
24.4400 8.1300 0.0939
24.4600 8.1367 0.0821
24.4800 8.1433 0.0843
24.5000 8.1500 0.0879
24.5200 8.1567 0.0813
24.5400 8.1633 0.0881
24.5600 8.1699 0.0892
24.5800 8.1765 0.0856
24.6000 8.1832 0.0860
24.6200 8.1899 0.0920
24.6400 8.1966 0.0825
24.6600 8.2033 0.0834
24.6800 8.2100 0.0910
24.7000 8.2167 0.0842
24.7200 8.2233 0.0825
24.7400 8.2299 0.0869
24.7600 8.2365 0.0853
24.7800 8.2432 0.0845
24.8000 8.2499 0.0897
24.8200 8.2566 0.0880
24.8400 8.2633 0.0812
24.8600 8.2700 0.0852
24.8800 8.2767 0.0882
24.9000 8.2833 0.0815
24.9200 8.2899 0.0886
24.9400 8.2966 0.0911
24.9600 8.3032 0.0831
24.9800 8.3099 0.0834
25.0000 8.3167 0.0933
25.0200 8.3234 0.0819
25.0400 8.3300 0.0910
25.0600 8.3367 0.0916
25.0800 8.3434 0.0820
25.1000 8.3500 0.0882
25.1200 8.3566 0.0913
25.1400 8.3632 0.0846
25.1600 8.3699 0.0884
25.1800 8.3767 0.0928
25.2000 8.3834 0.0863
25.2200 8.3901 0.0847
25.2400 8.3967 0.0958
25.2600 8.4034 0.0817
25.2800 8.4100 0.0909
25.3000 8.4166 0.0982
25.3200 8.4232 0.0815
25.3400 8.4299 0.0934
25.3600 8.4366 0.0938
25.3800 8.4433 0.0815
25.4000 8.4500 0.0889
25.4200 8.4567 0.0982
25.4400 8.4633 0.0840
25.4600 8.4700 0.0837
25.4800 8.4766 0.0964
25.5000 8.4832 0.0861
25.5200 8.4899 0.0905
25.5400 8.4966 0.0966
25.5600 8.5033 0.0828
25.5800 8.5100 0.0937
25.6000 8.5166 0.0938
25.6200 8.5233 0.0815
25.6400 8.5300 0.0934
25.6600 8.5366 0.0967
25.6800 8.5433 0.0819
25.7000 8.5499 0.0874
25.7200 8.5567 0.0977
25.7400 8.5633 0.0852
25.7600 8.5700 0.0890
25.7800 8.5767 0.0948
25.8000 8.5834 0.0845
25.8200 8.5900 0.0833
25.8400 8.5966 0.0987
25.8600 8.6032 0.0889
25.8800 8.6099 0.0847
25.9000 8.6167 0.0934
25.9200 8.6234 0.0907
25.9400 8.6300 0.0824
25.9600 8.6367 0.0993
25.9800 8.6434 0.0860
26.0000 8.6500 0.0818
26.0200 8.6566 0.0989
26.0400 8.6632 0.0882
26.0600 8.6699 0.0832
26.0800 8.6766 0.0968
26.1000 8.6833 0.0908
26.1200 8.6900 0.0753
26.1400 8.6967 0.0983
26.1600 8.7034 0.0865
26.1800 8.7100 0.0787
26.2000 8.7166 0.1038
26.2200 8.7232 0.0876
26.2400 8.7299 0.0801
26.2600 8.7366 0.1010
26.2800 8.7433 0.0887
26.3000 8.7500 0.0811
26.3200 8.7566 0.0971
26.3400 8.7633 0.0889
26.3600 8.7699 0.0865
26.3800 8.7765 0.1001
26.4000 8.7832 0.0851
26.4200 8.7899 0.0840
26.4400 8.7966 0.0967
26.4600 8.8034 0.0800
26.4800 8.8100 0.0889
26.5000 8.8167 0.0956
26.5200 8.8234 0.0813
26.5400 8.8301 0.0880
26.5600 8.8367 0.0994
26.5800 8.8433 0.0791
26.6000 8.8500 0.0951
26.6200 8.8567 0.0945
26.6400 8.8634 0.0752
26.6600 8.8701 0.0949
26.6800 8.8767 0.0932
26.7000 8.8834 0.0807
26.7200 8.8900 0.0928
26.7400 8.8966 0.0853
26.7600 8.9032 0.0844
26.7800 8.9099 0.0961
26.8000 8.9166 0.0878
26.8200 8.9233 0.0824
26.8400 8.9300 0.0918
26.8600 8.9366 0.0835
26.8800 8.9433 0.0856
26.9000 8.9499 0.0958
26.9200 8.9566 0.0853
26.9400 8.9632 0.0889
26.9600 8.9699 0.0868
26.9800 8.9766 0.0878
27.0000 8.9833 0.0885
27.0200 8.9900 0.0897
27.0400 8.9967 0.0854
27.0600 9.0033 0.0828
27.0800 9.0100 0.0845
27.1000 9.0166 0.0902
27.1200 9.0233 0.0855
27.1400 9.0299 0.0860
27.1600 9.0367 0.0868
27.1800 9.0434 0.0848
27.2000 9.0500 0.0867
27.2200 9.0567 0.0843
27.2400 9.0634 0.0836
27.2600 9.0700 0.0904
27.2800 9.0766 0.0851
27.3000 9.0832 0.0826
27.3200 9.0899 0.0906
27.3400 9.0966 0.0797
27.3600 9.1034 0.0825
27.3800 9.1100 0.0889
27.4000 9.1167 0.0847
27.4200 9.1233 0.0858
27.4400 9.1300 0.0880
27.4600 9.1366 0.0808
27.4800 9.1432 0.0886
27.5000 9.1499 0.0881
27.5200 9.1566 0.0790
27.5400 9.1633 0.0839
27.5600 9.1700 0.0851
27.5800 9.1766 0.0839
27.6000 9.1833 0.0879
27.6200 9.1900 0.0788
27.6400 9.1966 0.0840
27.6600 9.2032 0.0885
27.6800 9.2099 0.0797
27.7000 9.2166 0.0866
27.7200 9.2233 0.0857
27.7400 9.2300 0.0779
27.7600 9.2367 0.0829
27.7800 9.2434 0.0906
27.8000 9.2500 0.0798
27.8200 9.2566 0.0850
27.8400 9.2632 0.0862
27.8600 9.2699 0.0799
27.8800 9.2766 0.0857
27.9000 9.2834 0.0876
27.9200 9.2901 0.0803
27.9400 9.2967 0.0864
27.9600 9.3034 0.0834
27.9800 9.3100 0.0802
28.0000 9.3166 0.0861
28.0200 9.3232 0.0877
28.0400 9.3299 0.0828
28.0600 9.3366 0.0817
28.0800 9.3433 0.0835
28.1000 9.3500 0.0864
28.1200 9.3567 0.0845
28.1400 9.3634 0.0827
28.1600 9.3700 0.0878
28.1800 9.3766 0.0871
28.2000 9.3832 0.0832
28.2200 9.3899 0.0852
28.2400 9.3966 0.0855
28.2600 9.4033 0.0848
28.2800 9.4100 0.0904
28.3000 9.4167 0.0833
28.3200 9.4234 0.0833
28.3400 9.4300 0.0870
28.3600 9.4366 0.0818
28.3800 9.4432 0.0882
28.4000 9.4498 0.0890
28.4200 9.4566 0.0844
28.4400 9.4633 0.0905
28.4600 9.4700 0.0876
28.4800 9.4766 0.0858
28.5000 9.4833 0.0885
28.5200 9.4900 0.0847
28.5400 9.4966 0.0869
28.5600 9.5032 0.0921
28.5800 9.5099 0.0888
28.6000 9.5166 0.0839
28.6200 9.5233 0.0886
28.6400 9.5300 0.0823
28.6600 9.5367 0.0891
28.6800 9.5434 0.0889
28.7000 9.5501 0.0838
28.7200 9.5567 0.0897
28.7400 9.5633 0.0875
28.7600 9.5699 0.0869
28.7800 9.5766 0.0909
28.8000 9.5833 0.0860
28.8200 9.5900 0.0838
28.8400 9.5967 0.0941
28.8600 9.6034 0.0844
28.8800 9.6100 0.0839
28.9000 9.6166 0.0922
28.9200 9.6232 0.0837
28.9400 9.6299 0.0853
28.9600 9.6366 0.0950
28.9800 9.6433 0.0820
29.0000 9.6500 0.0884
29.0200 9.6567 0.0928
29.0400 9.6633 0.0839
29.0600 9.6700 0.0848
29.0800 9.6766 0.0961
29.1000 9.6832 0.0813
29.1200 9.6899 0.0907
29.1400 9.6966 0.0908
29.1600 9.7033 0.0758
29.1800 9.7100 0.0910
29.2000 9.7166 0.0934
29.2200 9.7233 0.0797
29.2400 9.7300 0.0912
29.2600 9.7366 0.0870
29.2800 9.7432 0.0801
29.3000 9.7499 0.0959
29.3200 9.7566 0.0837
29.3400 9.7633 0.0806
29.3600 9.7700 0.0969
29.3800 9.7767 0.0799
29.4000 9.7834 0.0817
29.4200 9.7900 0.0970
29.4400 9.7966 0.0777
29.4600 9.8032 0.0855
29.4800 9.8099 0.0948
29.5000 9.8166 0.0836
29.5200 9.8233 0.0851
29.5400 9.8300 0.0907
29.5600 9.8367 0.0828
29.5800 9.8434 0.0848
29.6000 9.8500 0.0895
29.6200 9.8567 0.0805
29.6400 9.8633 0.0841
29.6600 9.8699 0.0924
29.6800 9.8766 0.0793
29.7000 9.8833 0.0854
29.7200 9.8900 0.0920
29.7400 9.8966 0.0817
29.7600 9.9033 0.0872
29.7800 9.9100 0.0856
29.8000 9.9166 0.0860
29.8200 9.9232 0.0865
29.8400 9.9299 0.0899
29.8600 9.9366 0.0798
29.8800 9.9433 0.0889
29.9000 9.9500 0.0935
29.9200 9.9567 0.0817
29.9400 9.9634 0.0863
29.9600 9.9700 0.0894
29.9800 9.9766 0.0816
30.0000 9.9832 0.0876
30.0200 9.9899 0.0885
30.0400 9.9966 0.0855
30.0600 10.0034 0.0883
30.0800 10.0100 0.0828
30.1000 10.0167 0.0872
30.1200 10.0234 0.0899
30.1400 10.0300 0.0849
30.1600 10.0367 0.0880
30.1800 10.0433 0.0894
30.2000 10.0499 0.0817
30.2200 10.0566 0.0896
30.2400 10.0633 0.0873
30.2600 10.0700 0.0853
30.2800 10.0767 0.0917
30.3000 10.0834 0.0802
30.3200 10.0900 0.0862
30.3400 10.0967 0.0924
30.3600 10.1032 0.0801
30.3800 10.1099 0.0883
30.4000 10.1166 0.0944
30.4200 10.1233 0.0825
30.4400 10.1300 0.0847
30.4600 10.1367 0.0933
30.4800 10.1433 0.0803
30.5000 10.1500 0.0879
30.5200 10.1566 0.0911
30.5400 10.1632 0.0795
30.5600 10.1699 0.0954
30.5800 10.1766 0.0859
30.6000 10.1833 0.0779
30.6200 10.1900 0.0920
30.6400 10.1966 0.0883
30.6600 10.2033 0.0763
30.6800 10.2100 0.0933
30.7000 10.2166 0.0886
30.7200 10.2233 0.0818
30.7400 10.2299 0.0912
30.7600 10.2366 0.0874
30.7800 10.2433 0.0807
30.8000 10.2500 0.0925
30.8200 10.2567 0.0866
30.8400 10.2634 0.0822
30.8600 10.2701 0.0905
30.8800 10.2767 0.0772
30.9000 10.2833 0.0860
30.9200 10.2899 0.0942
30.9400 10.2966 0.0844
30.9600 10.3033 0.0805
30.9800 10.3100 0.0921
31.0000 10.3167 0.0834
31.0200 10.3234 0.0824
31.0400 10.3300 0.0892
31.0600 10.3366 0.0840
31.0800 10.3432 0.0829
31.1000 10.3499 0.0918
31.1200 10.3566 0.0867
31.1400 10.3633 0.0810
31.1600 10.3699 0.0870
31.1800 10.3766 0.0944
31.2000 10.3833 0.0780
31.2200 10.3900 0.0895
31.2400 10.3966 0.0884
31.2600 10.4032 0.0783
31.2800 10.4099 0.0919
31.3000 10.4165 0.0872
31.3200 10.4233 0.0848
31.3400 10.4300 0.0901
31.3600 10.4367 0.0860
31.3800 10.4434 0.0802
31.4000 10.4500 0.0907
31.4200 10.4567 0.0881
31.4400 10.4633 0.0769
31.4600 10.4699 0.0906
31.4800 10.4766 0.0877
31.5000 10.4833 0.0822
31.5200 10.4900 0.0967
31.5400 10.4967 0.0818
31.5600 10.5034 0.0801
31.5800 10.5100 0.0928
31.6000 10.5167 0.0810
31.6200 10.5233 0.0870
31.6400 10.5299 0.0979
31.6600 10.5366 0.0852
31.6800 10.5433 0.0796
31.7000 10.5500 0.0909
31.7200 10.5567 0.0915
31.7400 10.5634 0.0865
31.7600 10.5700 0.0875
31.7800 10.5767 0.0870
31.8000 10.5833 0.0878
31.8200 10.5899 0.0885
31.8400 10.5966 0.0876
31.8600 10.6033 0.0876
31.8800 10.6100 0.0865
31.9000 10.6167 0.0921
31.9200 10.6234 0.0839
31.9400 10.6300 0.0899
31.9600 10.6367 0.0914
31.9800 10.6433 0.0863
32.0000 10.6499 0.0920
32.0200 10.6565 0.0884
32.0400 10.6633 0.0879
32.0600 10.6700 0.0901
32.0800 10.6767 0.0902
32.1000 10.6833 0.0832
32.1200 10.6900 0.0952
32.1400 10.6966 0.0898
32.1600 10.7033 0.0863
32.1800 10.7099 0.0880
32.2000 10.7166 0.0936
32.2200 10.7233 0.0852
32.2400 10.7300 0.0931
32.2600 10.7367 0.0941
32.2800 10.7434 0.0877
32.3000 10.7500 0.0866
32.3200 10.7567 0.0920
32.3400 10.7633 0.0888
32.3600 10.7699 0.0921
32.3800 10.7766 0.0914
32.4000 10.7833 0.0849
32.4200 10.7900 0.0890
32.4400 10.7967 0.0929
32.4600 10.8034 0.0902
32.4800 10.8101 0.0900
32.5000 10.8167 0.0891
32.5200 10.8233 0.0879
32.5400 10.8299 0.0909
32.5600 10.8366 0.0876
32.5800 10.8433 0.0882
32.6000 10.8500 0.0922
32.6200 10.8567 0.0912
32.6400 10.8634 0.0871
32.6600 10.8700 0.0879
32.6800 10.8767 0.0916
32.7000 10.8833 0.0925
32.7200 10.8899 0.0847
32.7400 10.8966 0.0968
32.7600 10.9033 0.0925
32.7800 10.9099 0.0844
32.8000 10.9166 0.0961
32.8200 10.9233 0.0895
32.8400 10.9300 0.0836
32.8600 10.9367 0.0946
32.8800 10.9433 0.0877
32.9000 10.9499 0.0856
32.9200 10.9566 0.0936
32.9400 10.9633 0.0878
32.9600 10.9700 0.0860
32.9800 10.9767 0.0929
33.0000 10.9834 0.0910
33.0200 10.9901 0.0825
33.0400 10.9967 0.0944
33.0600 11.0033 0.0908
33.0800 11.0099 0.0899
33.1000 11.0166 0.0907
33.1200 11.0233 0.0860
33.1400 11.0300 0.0912
33.1600 11.0367 0.0899
33.1800 11.0433 0.0870
33.2000 11.0500 0.0861
33.2200 11.0567 0.0868
33.2400 11.0633 0.0923
33.2600 11.0699 0.0897
33.2800 11.0766 0.0899
33.3000 11.0833 0.0924
33.3200 11.0900 0.0860
33.3400 11.0966 0.0869
33.3600 11.1033 0.0902
33.3800 11.1100 0.0905
33.4000 11.1167 0.0863
33.4200 11.1233 0.0868
33.4400 11.1299 0.0885
33.4600 11.1365 0.0957
33.4800 11.1432 0.0873
33.5000 11.1500 0.0870
33.5200 11.1567 0.0904
33.5400 11.1634 0.0884
33.5600 11.1700 0.0890
33.5800 11.1767 0.0889
33.6000 11.1833 0.0868
33.6200 11.1899 0.0911
33.6400 11.1966 0.0904
33.6600 11.2033 0.0839
33.6800 11.2100 0.0926
33.7000 11.2167 0.0888
33.7200 11.2234 0.0877
33.7400 11.2300 0.0874
33.7600 11.2367 0.0872
33.7800 11.2433 0.0889
33.8000 11.2499 0.0882
33.8200 11.2566 0.0842
33.8400 11.2633 0.0938
33.8600 11.2700 0.0905
33.8800 11.2767 0.0823
33.9000 11.2834 0.0905
33.9200 11.2900 0.0895
33.9400 11.2967 0.0813
33.9600 11.3033 0.0903
33.9800 11.3099 0.0881
34.0000 11.3165 0.0849
34.0200 11.3232 0.0920
34.0400 11.3300 0.0852
34.0600 11.3367 0.0833
34.0800 11.3433 0.0940
34.1000 11.3500 0.0867
34.1200 11.3567 0.0867
34.1400 11.3633 0.0937
34.1600 11.3699 0.0871
34.1800 11.3765 0.0809
34.2000 11.3832 0.0946
34.2200 11.3899 0.0921
34.2400 11.3966 0.0757
34.2600 11.4033 0.0981
34.2800 11.4100 0.0838
34.3000 11.4167 0.0808
34.3200 11.4233 0.0967
34.3400 11.4299 0.0875
34.3600 11.4366 0.0773
34.3800 11.4433 0.0952
34.4000 11.4500 0.0851
34.4200 11.4567 0.0818
34.4400 11.4634 0.0969
34.4600 11.4701 0.0841
34.4800 11.4767 0.0770
34.5000 11.4833 0.0955
34.5200 11.4899 0.0867
34.5400 11.4966 0.0834
34.5600 11.5033 0.1001
34.5800 11.5100 0.0818
34.6000 11.5167 0.0802
34.6200 11.5234 0.0961
34.6400 11.5301 0.0852
34.6600 11.5367 0.0797
34.6800 11.5433 0.0955
34.7000 11.5499 0.0817
34.7200 11.5565 0.0832
34.7400 11.5633 0.0959
34.7600 11.5700 0.0841
34.7800 11.5766 0.0824
34.8000 11.5833 0.0966
34.8200 11.5900 0.0826
34.8400 11.5967 0.0849
34.8600 11.6033 0.0972
34.8800 11.6099 0.0794
34.9000 11.6166 0.0839
34.9200 11.6232 0.0938
34.9400 11.6300 0.0814
34.9600 11.6366 0.0858
34.9800 11.6433 0.1011
35.0000 11.6500 0.0749
35.0200 11.6567 0.0857
35.0400 11.6633 0.0993
35.0600 11.6699 0.0833
35.0800 11.6766 0.0889
35.1000 11.6833 0.0940
35.1200 11.6900 0.0797
35.1400 11.6967 0.0864
35.1600 11.7034 0.0971
35.1800 11.7101 0.0828
35.2000 11.7167 0.0859
35.2200 11.7233 0.0948
35.2400 11.7299 0.0842
35.2600 11.7366 0.0885
35.2800 11.7433 0.0926
35.3000 11.7500 0.0887
35.3200 11.7567 0.0837
35.3400 11.7634 0.0879
35.3600 11.7700 0.0930
35.3800 11.7767 0.0822
35.4000 11.7833 0.0892
35.4200 11.7899 0.0913
35.4400 11.7966 0.0838
35.4600 11.8032 0.0887
35.4800 11.8099 0.0938
35.5000 11.8166 0.0820
35.5200 11.8233 0.0894
35.5400 11.8300 0.0926
35.5600 11.8367 0.0774
35.5800 11.8433 0.0939
35.6000 11.8499 0.0950
35.6200 11.8565 0.0764
35.6400 11.8632 0.0918
35.6600 11.8700 0.0893
35.6800 11.8767 0.0790
35.7000 11.8833 0.0996
35.7200 11.8900 0.0858
35.7400 11.8967 0.0756
35.7600 11.9033 0.0953
35.7800 11.9099 0.0863
35.8000 11.9166 0.0817
35.8200 11.9233 0.0997
35.8400 11.9300 0.0876
35.8600 11.9366 0.0796
35.8800 11.9433 0.0934
35.9000 11.9500 0.0895
35.9200 11.9567 0.0836
35.9400 11.9634 0.0928
35.9600 11.9699 0.0819
35.9800 11.9766 0.0893
36.0000 11.9832 0.0908
36.0200 11.9899 0.0893
36.0400 11.9966 0.0853
36.0600 12.0033 0.0844
36.0800 12.0100 0.0956
36.1000 12.0167 0.0797
36.1200 12.0233 0.0830
36.1400 12.0299 0.0968
36.1600 12.0366 0.0861
36.1800 12.0433 0.0828
36.2000 12.0500 0.0948
36.2200 12.0567 0.0832
36.2400 12.0634 0.0881
36.2600 12.0700 0.0912
36.2800 12.0767 0.0856
36.3000 12.0833 0.0915
36.3200 12.0899 0.0924
36.3400 12.0965 0.0845
36.3600 12.1032 0.0923
36.3800 12.1099 0.0877
36.4000 12.1166 0.0873
36.4200 12.1233 0.0906
36.4400 12.1300 0.0878
36.4600 12.1367 0.0868
36.4800 12.1433 0.0928
36.5000 12.1499 0.0878
36.5200 12.1566 0.0834
36.5400 12.1632 0.0952
36.5600 12.1699 0.0872
36.5800 12.1767 0.0834
36.6000 12.1834 0.0899
36.6200 12.1901 0.0944
36.6400 12.1968 0.0794
36.6600 12.2034 0.0834
36.6800 12.2100 0.0969
36.7000 12.2166 0.0876
36.7200 12.2233 0.0869
36.7400 12.2300 0.0914
36.7600 12.2367 0.0803
36.7800 12.2434 0.0887
36.8000 12.2501 0.0935
36.8200 12.2567 0.0850
36.8400 12.2633 0.0859
36.8600 12.2699 0.0928
36.8800 12.2766 0.0893
36.9000 12.2832 0.0863
36.9200 12.2899 0.0925
36.9400 12.2966 0.0856
36.9600 12.3033 0.0876
36.9800 12.3100 0.0904
37.0000 12.3167 0.0875
37.0200 12.3233 0.0904
37.0400 12.3299 0.0904
37.0600 12.3365 0.0865
37.0800 12.3432 0.0949
37.1000 12.3499 0.0912
37.1200 12.3566 0.0880
37.1400 12.3633 0.0883
37.1600 12.3700 0.0923
37.1800 12.3767 0.0872
37.2000 12.3833 0.0906
37.2200 12.3899 0.0911
37.2400 12.3966 0.0840
37.2600 12.4032 0.0940
37.2800 12.4100 0.0939
37.3000 12.4167 0.0854
37.3200 12.4234 0.0859
37.3400 12.4300 0.0967
37.3600 12.4367 0.0852
37.3800 12.4434 0.0875
37.4000 12.4500 0.0969
37.4200 12.4566 0.0868
37.4400 12.4633 0.0856
37.4600 12.4700 0.0960
37.4800 12.4767 0.0886
37.5000 12.4834 0.0864
37.5200 12.4900 0.0911
37.5400 12.4967 0.0912
37.5600 12.5034 0.0865
37.5800 12.5100 0.0943
37.6000 12.5166 0.0896
37.6200 12.5232 0.0896
37.6400 12.5299 0.0964
37.6600 12.5366 0.0882
37.6800 12.5433 0.0862
37.7000 12.5500 0.0994
37.7200 12.5567 0.0884
37.7400 12.5633 0.0812
37.7600 12.5699 0.0987
37.7800 12.5765 0.0895
37.8000 12.5832 0.0923
37.8200 12.5899 0.0919
37.8400 12.5966 0.0900
37.8600 12.6033 0.0929
37.8800 12.6100 0.0929
37.9000 12.6167 0.0875
37.9200 12.6233 0.0924
37.9400 12.6300 0.0918
37.9600 12.6366 0.0892
37.9800 12.6432 0.0892
38.0000 12.6499 0.0946
38.0200 12.6566 0.0992
38.0400 12.6633 0.0905
38.0600 12.6700 0.0884
38.0800 12.6768 0.0920
38.1000 12.6834 0.0933
38.1200 12.6900 0.0940
38.1400 12.6966 0.0929
38.1600 12.7032 0.0891
38.1800 12.7099 0.0882
38.2000 12.7167 0.0936
38.2200 12.7234 0.0940
38.2400 12.7300 0.0862
38.2600 12.7367 0.0925
38.2800 12.7433 0.0882
38.3000 12.7500 0.0890
38.3200 12.7566 0.0920
38.3400 12.7633 0.0931
38.3600 12.7700 0.0850
38.3800 12.7767 0.0914
38.4000 12.7833 0.0946
38.4200 12.7900 0.0905
38.4400 12.7967 0.0915
38.4600 12.8033 0.0923
38.4800 12.8099 0.0894
38.5000 12.8165 0.0925
38.5200 12.8232 0.0965
38.5400 12.8299 0.0886
38.5600 12.8366 0.0921
38.5800 12.8433 0.0917
38.6000 12.8500 0.0898
38.6200 12.8567 0.0910
38.6400 12.8633 0.0928
38.6600 12.8700 0.0906
38.6800 12.8766 0.0952
38.7000 12.8832 0.0902
38.7200 12.8899 0.0884
38.7400 12.8967 0.0942
38.7600 12.9034 0.0926
38.7800 12.9101 0.0861
38.8000 12.9167 0.0937
38.8200 12.9234 0.0914
38.8400 12.9300 0.0872
38.8600 12.9366 0.0908
38.8800 12.9433 0.0948
38.9000 12.9500 0.0867
38.9200 12.9567 0.0925
38.9400 12.9633 0.0968
38.9600 12.9700 0.0842
38.9800 12.9767 0.0939
39.0000 12.9833 0.0932
39.0200 12.9899 0.0893
39.0400 12.9966 0.0920
39.0600 13.0032 0.0993
39.0800 13.0099 0.0854
39.1000 13.0166 0.0929
39.1200 13.0233 0.0967
39.1400 13.0300 0.0876
39.1600 13.0367 0.0953
39.1800 13.0434 0.0962
39.2000 13.0500 0.0876
39.2200 13.0566 0.0944
39.2400 13.0632 0.0975
39.2600 13.0699 0.0863
39.2800 13.0766 0.0960
39.3000 13.0833 0.0924
39.3200 13.0900 0.0894
39.3400 13.0967 0.0971
39.3600 13.1033 0.0982
39.3800 13.1100 0.0926
39.4000 13.1166 0.0955
39.4200 13.1232 0.0958
39.4400 13.1299 0.0908
39.4600 13.1367 0.0891
39.4800 13.1433 0.0962
39.5000 13.1500 0.0972
39.5200 13.1567 0.0891
39.5400 13.1634 0.0901
39.5600 13.1700 0.0921
39.5800 13.1766 0.0911
39.6000 13.1833 0.0964
39.6200 13.1899 0.0895
39.6400 13.1967 0.0938
39.6600 13.2034 0.0972
39.6800 13.2101 0.0964
39.7000 13.2167 0.0900
39.7200 13.2234 0.0877
39.7400 13.2300 0.0943
39.7600 13.2366 0.0950
39.7800 13.2432 0.0950
39.8000 13.2499 0.0911
39.8200 13.2566 0.0952
39.8400 13.2633 0.0888
39.8600 13.2700 0.0930
39.8800 13.2767 0.0961
39.9000 13.2833 0.0882
39.9200 13.2900 0.0870
39.9400 13.2966 0.0924
39.9600 13.3032 0.0949
39.9800 13.3099 0.0946
40.0000 13.3166 0.0892
40.0200 13.3233 0.0877
40.0400 13.3300 0.0908
40.0600 13.3366 0.0933
40.0800 13.3433 0.0983
40.1000 13.3500 0.0792
40.1200 13.3566 0.0873
40.1400 13.3633 0.1016
40.1600 13.3699 0.0961
40.1800 13.3766 0.0782
40.2000 13.3833 0.0880
40.2200 13.3900 0.1008
40.2400 13.3967 0.0839
40.2600 13.4034 0.0831
40.2800 13.4100 0.0980
40.3000 13.4166 0.0906
40.3200 13.4232 0.0958
40.3400 13.4299 0.0881
40.3600 13.4367 0.0826
40.3800 13.4434 0.1001
40.4000 13.4500 0.0884
40.4200 13.4567 0.0888
40.4400 13.4634 0.0971
40.4600 13.4700 0.0859
40.4800 13.4766 0.0951
40.5000 13.4832 0.0963
40.5200 13.4899 0.0841
40.5400 13.4966 0.1005
40.5600 13.5033 0.0929
40.5800 13.5100 0.0819
40.6000 13.5167 0.0982
40.6200 13.5234 0.0973
40.6400 13.5300 0.0813
40.6600 13.5366 0.0912
40.6800 13.5432 0.0917
40.7000 13.5499 0.0939
40.7200 13.5566 0.0948
40.7400 13.5633 0.0898
40.7600 13.5700 0.0882
40.7800 13.5767 0.0946
40.8000 13.5833 0.0927
40.8200 13.5899 0.0946
40.8400 13.5965 0.0970
40.8600 13.6032 0.0890
40.8800 13.6099 0.0873
40.9000 13.6166 0.0968
40.9200 13.6233 0.0959
40.9400 13.6300 0.0857
40.9600 13.6367 0.0977
40.9800 13.6434 0.0899
41.0000 13.6500 0.0887
41.0200 13.6567 0.1013
41.0400 13.6633 0.0922
41.0600 13.6700 0.0823
41.0800 13.6767 0.0937
41.1000 13.6833 0.0934
41.1200 13.6900 0.0891
41.1400 13.6967 0.0991
41.1600 13.7034 0.0872
41.1800 13.7100 0.0867
41.2000 13.7166 0.0954
41.2200 13.7232 0.0880
41.2400 13.7299 0.0947
41.2600 13.7366 0.0924
41.2800 13.7433 0.0893
41.3000 13.7500 0.0959
41.3200 13.7567 0.0857
41.3400 13.7633 0.0882
41.3600 13.7700 0.0971
41.3800 13.7766 0.0865
41.4000 13.7832 0.0886
41.4200 13.7899 0.1000
41.4400 13.7966 0.0836
41.4600 13.8033 0.0882
41.4800 13.8100 0.0971
41.5000 13.8167 0.0893
41.5200 13.8233 0.0923
41.5400 13.8300 0.0921
41.5600 13.8366 0.0826
41.5800 13.8433 0.1007
41.6000 13.8499 0.0946
41.6200 13.8566 0.0837
41.6400 13.8633 0.0939
41.6600 13.8700 0.0875
41.6800 13.8767 0.0862
41.7000 13.8834 0.0985
41.7200 13.8900 0.0872
41.7400 13.8966 0.0857
41.7600 13.9032 0.0993
41.7800 13.9099 0.0862
41.8000 13.9166 0.0924
41.8200 13.9234 0.1002
41.8400 13.9300 0.0842
41.8600 13.9367 0.0883
41.8800 13.9434 0.0960
41.9000 13.9500 0.0869
41.9200 13.9566 0.0932
41.9400 13.9632 0.0953
41.9600 13.9699 0.0876
41.9800 13.9766 0.0900
42.0000 13.9833 0.0933
42.0200 13.9900 0.0885
42.0400 13.9966 0.0909
42.0600 14.0033 0.0967
42.0800 14.0100 0.0879
42.1000 14.0166 0.0896
42.1200 14.0232 0.0917
42.1400 14.0299 0.0952
42.1600 14.0366 0.0903
42.1800 14.0433 0.0871
42.2000 14.0500 0.0925
42.2200 14.0566 0.0943
42.2400 14.0633 0.0858
42.2600 14.0700 0.0942
42.2800 14.0766 0.0944
42.3000 14.0832 0.0820
42.3200 14.0899 0.0926
42.3400 14.0966 0.0962
42.3600 14.1034 0.0857
42.3800 14.1101 0.0934
42.4000 14.1167 0.0929
42.4200 14.1234 0.0875
42.4400 14.1300 0.0876
42.4600 14.1366 0.0918
42.4800 14.1432 0.0929
42.5000 14.1499 0.0896
42.5200 14.1566 0.0880
42.5400 14.1634 0.0895
42.5600 14.1700 0.0968
42.5800 14.1767 0.0870
42.6000 14.1834 0.0920
42.6200 14.1900 0.0943
42.6400 14.1966 0.0889
42.6600 14.2032 0.0858
42.6800 14.2099 0.0947
42.7000 14.2166 0.0938
42.7200 14.2233 0.0906
42.7400 14.2300 0.0851
42.7600 14.2367 0.0997
42.7800 14.2434 0.0939
42.8000 14.2500 0.0842
42.8200 14.2566 0.0990
42.8400 14.2632 0.0916
42.8600 14.2698 0.0840
42.8800 14.2765 0.1021
42.9000 14.2833 0.0904
42.9200 14.2900 0.0890
42.9400 14.2966 0.0985
42.9600 14.3033 0.0882
42.9800 14.3100 0.0930
43.0000 14.3166 0.0970
43.0200 14.3233 0.0901
43.0400 14.3299 0.0955
43.0600 14.3366 0.0974
43.0800 14.3433 0.0864
43.1000 14.3500 0.0991
43.1200 14.3567 0.0950
43.1400 14.3634 0.0830
43.1600 14.3701 0.0972
43.1800 14.3767 0.0979
43.2000 14.3833 0.0857
43.2200 14.3899 0.1014
43.2400 14.3966 0.0906
43.2600 14.4033 0.0891
43.2800 14.4100 0.1018
43.3000 14.4167 0.0890
43.3200 14.4234 0.0904
43.3400 14.4300 0.0994
43.3600 14.4366 0.0887
43.3800 14.4432 0.0942
43.4000 14.4499 0.1025
43.4200 14.4566 0.0863
43.4400 14.4633 0.0975
43.4600 14.4700 0.0992
43.4800 14.4767 0.0859
43.5000 14.4833 0.0988
43.5200 14.4900 0.0955
43.5400 14.4966 0.1000
43.5600 14.5032 0.0986
43.5800 14.5099 0.0839
43.6000 14.5166 0.1096
43.6200 14.5233 0.1021
43.6400 14.5300 0.0791
43.6600 14.5366 0.1130
43.6800 14.5433 0.0974
43.7000 14.5500 0.0776
43.7200 14.5566 0.1160
43.7400 14.5633 0.0936
43.7600 14.5699 0.0830
43.7800 14.5766 0.1247
43.8000 14.5833 0.0768
43.8200 14.5900 0.0816
43.8400 14.5967 0.1353
43.8600 14.6034 0.0667
43.8800 14.6100 0.0904
43.9000 14.6166 0.1335
43.9200 14.6232 0.0621
43.9400 14.6299 0.1048
43.9600 14.6366 0.1218
43.9800 14.6433 0.0602
44.0000 14.6500 0.1180
44.0200 14.6567 0.1165
44.0400 14.6634 0.0507
44.0600 14.6700 0.1176
44.0800 14.6767 0.1113
44.1000 14.6833 0.0685
44.1200 14.6899 0.1226
44.1400 14.6966 0.0977
44.1600 14.7033 0.0727
44.1800 14.7100 0.1159
44.2000 14.7166 0.0896
44.2200 14.7233 0.0941
44.2400 14.7300 0.1146
44.2600 14.7366 0.0788
44.2800 14.7432 0.0934
44.3000 14.7499 0.1157
44.3200 14.7565 0.0863
44.3400 14.7633 0.0933
44.3600 14.7700 0.1083
44.3800 14.7767 0.0877
44.4000 14.7833 0.1011
44.4200 14.7900 0.0989
44.4400 14.7966 0.0930
44.4600 14.8032 0.1034
44.4800 14.8099 0.0938
44.5000 14.8166 0.0915
44.5200 14.8233 0.1011
44.5400 14.8300 0.0939
44.5600 14.8367 0.0905
44.5800 14.8434 0.0994
44.6000 14.8500 0.0923
44.6200 14.8567 0.0980
44.6400 14.8633 0.0982
44.6600 14.8699 0.0943
44.6800 14.8766 0.1026
44.7000 14.8833 0.0960
44.7200 14.8900 0.0911
44.7400 14.8967 0.1045
44.7600 14.9034 0.0926
44.7800 14.9101 0.0928
44.8000 14.9167 0.0967
44.8200 14.9233 0.0929
44.8400 14.9299 0.0997
44.8600 14.9365 0.1055
44.8800 14.9433 0.0897
44.9000 14.9500 0.0971
44.9200 14.9567 0.1003
44.9400 14.9634 0.0926
44.9600 14.9700 0.0978
44.9800 14.9766 0.1019
45.0000 14.9832 0.0889
45.0200 14.9899 0.0952
45.0400 14.9965 0.1057
45.0600 15.0033 0.0869
45.0800 15.0100 0.0969
45.1000 15.0166 0.1051
45.1200 15.0233 0.0887
45.1400 15.0300 0.0991
45.1600 15.0366 0.1074
45.1800 15.0433 0.0850
45.2000 15.0499 0.1015
45.2200 15.0566 0.1023
45.2400 15.0633 0.0870
45.2600 15.0700 0.1009
45.2800 15.0767 0.1044
45.3000 15.0834 0.0840
45.3200 15.0901 0.1037
45.3400 15.0967 0.1058
45.3600 15.1033 0.0798
45.3800 15.1099 0.1045
45.4000 15.1166 0.1083
45.4200 15.1233 0.0852
45.4400 15.1300 0.1016
45.4600 15.1367 0.1033
45.4800 15.1434 0.0852
45.5000 15.1500 0.1035
45.5200 15.1566 0.1036
45.5400 15.1632 0.0861
45.5600 15.1699 0.1027
45.5800 15.1766 0.1026
45.6000 15.1833 0.0832
45.6200 15.1900 0.1074
45.6400 15.1966 0.1037
45.6600 15.2033 0.0896
45.6800 15.2100 0.0978
45.7000 15.2166 0.1047
45.7200 15.2232 0.0946
45.7400 15.2299 0.0989
45.7600 15.2366 0.1036
45.7800 15.2433 0.0911
45.8000 15.2500 0.0966
45.8200 15.2567 0.1017
45.8400 15.2634 0.0915
45.8600 15.2701 0.0997
45.8800 15.2767 0.1052
45.9000 15.2833 0.0867
45.9200 15.2899 0.0982
45.9400 15.2966 0.1104
45.9600 15.3033 0.0870
45.9800 15.3100 0.0911
46.0000 15.3167 0.1119
46.0200 15.3234 0.0865
46.0400 15.3301 0.0950
46.0600 15.3367 0.1080
46.0800 15.3433 0.0903
46.1000 15.3499 0.0946
46.1200 15.3566 0.1071
46.1400 15.3633 0.0884
46.1600 15.3700 0.0974
46.1800 15.3767 0.1088
46.2000 15.3833 0.0881
46.2200 15.3900 0.0940
46.2400 15.3967 0.1031
46.2600 15.4033 0.0925
46.2800 15.4099 0.0948
46.3000 15.4166 0.1016
46.3200 15.4233 0.0922
46.3400 15.4300 0.0953
46.3600 15.4366 0.1049
46.3800 15.4433 0.0930
46.4000 15.4500 0.0899
46.4200 15.4567 0.1052
46.4400 15.4633 0.0889
46.4600 15.4699 0.0930
46.4800 15.4765 0.1088
46.5000 15.4832 0.0930
46.5200 15.4899 0.0859
46.5400 15.4966 0.1090
46.5600 15.5033 0.0983
46.5800 15.5100 0.0872
46.6000 15.5166 0.1067
46.6200 15.5233 0.0977
46.6400 15.5299 0.0856
46.6600 15.5366 0.1046
46.6800 15.5433 0.1007
46.7000 15.5500 0.0854
46.7200 15.5567 0.1065
46.7400 15.5633 0.0961
46.7600 15.5700 0.0891
46.7800 15.5767 0.1037
46.8000 15.5833 0.0977
46.8200 15.5899 0.0916
46.8400 15.5966 0.1059
46.8600 15.6033 0.0898
46.8800 15.6100 0.0883
46.9000 15.6167 0.1083
46.9200 15.6234 0.0891
46.9400 15.6300 0.0896
46.9600 15.6367 0.1092
46.9800 15.6433 0.0856
47.0000 15.6499 0.0932
47.0200 15.6566 0.1101
47.0400 15.6633 0.0902
47.0600 15.6700 0.0919
47.0800 15.6767 0.1023
47.1000 15.6833 0.0917
47.1200 15.6900 0.0964
47.1400 15.6967 0.1035
47.1600 15.7033 0.0884
47.1800 15.7099 0.0990
47.2000 15.7165 0.1022
47.2200 15.7232 0.0944
47.2400 15.7299 0.0945
47.2600 15.7366 0.0992
47.2800 15.7433 0.0989
47.3000 15.7500 0.0960
47.3200 15.7567 0.0955
47.3400 15.7633 0.0993
47.3600 15.7699 0.0958
47.3800 15.7766 0.0961
47.4000 15.7833 0.0976
47.4200 15.7900 0.0945
47.4400 15.7967 0.0964
47.4600 15.8034 0.1014
47.4800 15.8101 0.0945
47.5000 15.8167 0.0967
47.5200 15.8233 0.1074
47.5400 15.8299 0.0915
47.5600 15.8366 0.0996
47.5800 15.8433 0.1075
47.6000 15.8500 0.0850
47.6200 15.8567 0.1017
47.6400 15.8634 0.1087
47.6600 15.8700 0.0857
47.6800 15.8767 0.0985
47.7000 15.8833 0.1069
47.7200 15.8899 0.0866
47.7400 15.8966 0.1019
47.7600 15.9032 0.1112
47.7800 15.9099 0.0864
47.8000 15.9166 0.1026
47.8200 15.9233 0.1020
47.8400 15.9300 0.0910
47.8600 15.9367 0.1025
47.8800 15.9433 0.0978
47.9000 15.9499 0.0978
47.9200 15.9565 0.1032
47.9400 15.9632 0.0992
47.9600 15.9700 0.0962
47.9800 15.9767 0.1058
48.0000 15.9834 0.0957
48.0200 15.9900 0.1001
48.0400 15.9967 0.0978
48.0600 16.0033 0.0961
48.0800 16.0099 0.1046
48.1000 16.0166 0.1004
48.1200 16.0233 0.0923
48.1400 16.0300 0.1035
48.1600 16.0367 0.0977
48.1800 16.0433 0.0950
48.2000 16.0500 0.1028
48.2200 16.0567 0.0980
48.2400 16.0633 0.0970
48.2600 16.0700 0.1040
48.2800 16.0766 0.0959
48.3000 16.0833 0.1045
48.3200 16.0900 0.1070
48.3400 16.0967 0.0924
48.3600 16.1034 0.1032
48.3800 16.1100 0.1045
48.4000 16.1167 0.0939
48.4200 16.1233 0.1022
48.4400 16.1299 0.1033
48.4600 16.1365 0.0970
48.4800 16.1432 0.1046
48.5000 16.1500 0.0965
48.5200 16.1567 0.0991
48.5400 16.1634 0.1084
48.5600 16.1700 0.0959
48.5800 16.1767 0.0936
48.6000 16.1833 0.1078
48.6200 16.1899 0.1001
48.6400 16.1965 0.0942
48.6600 16.2032 0.1033
48.6800 16.2099 0.0981
48.7000 16.2166 0.0974
48.7200 16.2233 0.1019
48.7400 16.2300 0.0947
48.7600 16.2367 0.0963
48.7800 16.2433 0.1064
48.8000 16.2499 0.0960
48.8200 16.2566 0.1022
48.8400 16.2633 0.1044
48.8600 16.2700 0.0974
48.8800 16.2767 0.0949
48.9000 16.2834 0.1046
48.9200 16.2901 0.0984
48.9400 16.2967 0.0990
48.9600 16.3034 0.1020
48.9800 16.3100 0.0938
49.0000 16.3166 0.0992
49.0200 16.3233 0.1082
49.0400 16.3300 0.0961
49.0600 16.3367 0.0934
49.0800 16.3434 0.1037
49.1000 16.3500 0.0996
49.1200 16.3567 0.0919
49.1400 16.3633 0.1062
49.1600 16.3699 0.1048
49.1800 16.3765 0.0909
49.2000 16.3832 0.1055
49.2200 16.3900 0.0988
49.2400 16.3967 0.0952
49.2600 16.4033 0.1104
49.2800 16.4100 0.0978
49.3000 16.4167 0.0932
49.3200 16.4233 0.1098
49.3400 16.4299 0.0970
49.3600 16.4366 0.0937
49.3800 16.4432 0.1050
49.4000 16.4499 0.0965
49.4200 16.4566 0.0936
49.4400 16.4633 0.1070
49.4600 16.4700 0.0981
49.4800 16.4767 0.0952
49.5000 16.4833 0.1041
49.5200 16.4899 0.0971
49.5400 16.4966 0.0975
49.5600 16.5032 0.1071
49.5800 16.5100 0.1020
49.6000 16.5167 0.0883
49.6200 16.5234 0.0996
49.6400 16.5301 0.1113
49.6600 16.5367 0.0936
49.6800 16.5433 0.0950
49.7000 16.5499 0.1122
49.7200 16.5566 0.0947
49.7400 16.5633 0.0974
49.7600 16.5700 0.1127
49.7800 16.5767 0.0888
49.8000 16.5834 0.0958
49.8200 16.5900 0.1102
49.8400 16.5967 0.0852
49.8600 16.6033 0.1056
49.8800 16.6099 0.1080
49.9000 16.6166 0.0851
49.9200 16.6232 0.1089
49.9400 16.6299 0.1072
49.9600 16.6366 0.0857
49.9800 16.6433 0.1022
50.0000 16.6500 0.1098
50.0200 16.6567 0.0836
50.0400 16.6633 0.1018
50.0600 16.6699 0.1047
50.0800 16.6765 0.0937
50.1000 16.6832 0.1037
50.1200 16.6899 0.1052
50.1400 16.6966 0.0943
50.1600 16.7033 0.1035
50.1800 16.7100 0.1027
50.2000 16.7167 0.0929
50.2200 16.7233 0.0998
50.2400 16.7299 0.1038
50.2600 16.7366 0.0935
50.2800 16.7433 0.1064
50.3000 16.7500 0.1029
50.3200 16.7567 0.0907
50.3400 16.7633 0.1020
50.3600 16.7700 0.1032
50.3800 16.7767 0.0972
50.4000 16.7834 0.0987
50.4200 16.7900 0.1025
50.4400 16.7966 0.0979
50.4600 16.8032 0.1033
50.4800 16.8099 0.1029
50.5000 16.8166 0.0975
50.5200 16.8233 0.0995
50.5400 16.8300 0.1045
50.5600 16.8367 0.0955
50.5800 16.8434 0.1001
50.6000 16.8500 0.1026
50.6200 16.8566 0.0983
50.6400 16.8633 0.0930
50.6600 16.8700 0.1024
50.6800 16.8767 0.0997
50.7000 16.8834 0.0928
50.7200 16.8900 0.1073
50.7400 16.8967 0.1022
50.7600 16.9033 0.0901
50.7800 16.9099 0.1065
50.8000 16.9165 0.1026
50.8200 16.9232 0.0925
50.8400 16.9299 0.1083
50.8600 16.9366 0.0972
50.8800 16.9433 0.0921
50.9000 16.9500 0.1071
50.9200 16.9566 0.0985
50.9400 16.9633 0.0898
50.9600 16.9699 0.1118
50.9800 16.9766 0.0988
51.0000 16.9832 0.0924
51.0200 16.9899 0.1110
51.0400 16.9967 0.0962
51.0600 17.0034 0.0928
51.0800 17.0101 0.1094
51.1000 17.0168 0.0929
51.1200 17.0234 0.0935
51.1400 17.0300 0.1099
51.1600 17.0366 0.0971
51.1800 17.0433 0.0943
51.2000 17.0500 0.1047
51.2200 17.0567 0.0946
51.2400 17.0634 0.0976
51.2600 17.0700 0.1049
51.2800 17.0767 0.0967
51.3000 17.0834 0.0983
51.3200 17.0900 0.1004
51.3400 17.0966 0.0995
51.3600 17.1032 0.1002
51.3800 17.1099 0.1031
51.4000 17.1166 0.0969
51.4200 17.1233 0.0979
51.4400 17.1300 0.1021
51.4600 17.1367 0.0969
51.4800 17.1433 0.0969
51.5000 17.1499 0.1040
51.5200 17.1565 0.0958
51.5400 17.1632 0.1002
51.5600 17.1699 0.1085
51.5800 17.1766 0.0937
51.6000 17.1833 0.0950
51.6200 17.1900 0.1095
51.6400 17.1967 0.0944
51.6600 17.2033 0.0961
51.6800 17.2099 0.1133
51.7000 17.2165 0.0949
51.7200 17.2232 0.0935
51.7400 17.2299 0.1113
51.7600 17.2367 0.0950
51.7800 17.2434 0.0944
51.8000 17.2500 0.1136
51.8200 17.2567 0.0947
51.8400 17.2634 0.0949
51.8600 17.2700 0.1094
51.8800 17.2766 0.0943
51.9000 17.2833 0.0954
51.9200 17.2900 0.1120
51.9400 17.2967 0.0981
51.9600 17.3033 0.0946
51.9800 17.3100 0.1099
52.0000 17.3167 0.0992
52.0200 17.3234 0.0993
52.0400 17.3300 0.1053
52.0600 17.3366 0.0986
52.0800 17.3432 0.0968
52.1000 17.3499 0.1092
52.1200 17.3566 0.0977
52.1400 17.3633 0.0968
52.1600 17.3700 0.1076
52.1800 17.3767 0.0985
52.2000 17.3833 0.0970
52.2200 17.3899 0.1048
52.2400 17.3965 0.1011
52.2600 17.4032 0.0990
52.2800 17.4099 0.1037
52.3000 17.4166 0.0999
52.3200 17.4233 0.0997
52.3400 17.4300 0.1063
52.3600 17.4367 0.0998
52.3800 17.4433 0.0967
52.4000 17.4500 0.1047
52.4200 17.4566 0.1040
52.4400 17.4632 0.1000
52.4600 17.4699 0.1031
52.4800 17.4766 0.1007
52.5000 17.4833 0.0990
52.5200 17.4900 0.1052
52.5400 17.4967 0.1031
52.5600 17.5034 0.0989
52.5800 17.5100 0.1061
52.6000 17.5166 0.1082
52.6200 17.5232 0.0940
52.6400 17.5299 0.1039
52.6600 17.5367 0.1054
52.6800 17.5434 0.0953
52.7000 17.5500 0.1020
52.7200 17.5567 0.1085
52.7400 17.5634 0.0990
52.7600 17.5700 0.1037
52.7800 17.5766 0.1027
52.8000 17.5833 0.1005
52.8200 17.5900 0.1100
52.8400 17.5967 0.0965
52.8600 17.6033 0.1019
52.8800 17.6100 0.1115
52.9000 17.6167 0.0997
52.9200 17.6233 0.0982
52.9400 17.6300 0.1068
52.9600 17.6366 0.0976
52.9800 17.6432 0.1028
53.0000 17.6499 0.1077
53.0200 17.6566 0.1034
53.0400 17.6633 0.1020
53.0600 17.6700 0.1040
53.0800 17.6767 0.0988
53.1000 17.6834 0.1035
53.1200 17.6900 0.1042
53.1400 17.6966 0.1030
53.1600 17.7032 0.1066
53.1800 17.7099 0.0990
53.2000 17.7166 0.1000
53.2200 17.7234 0.1038
53.2400 17.7300 0.0966
53.2600 17.7367 0.1016
53.2800 17.7434 0.1027
53.3000 17.7500 0.0919
53.3200 17.7566 0.1047
53.3400 17.7633 0.1048
53.3600 17.7700 0.0989
53.3800 17.7767 0.1019
53.4000 17.7833 0.1019
53.4200 17.7900 0.0968
53.4400 17.7967 0.1086
53.4600 17.8034 0.0969
53.4800 17.8100 0.0945
53.5000 17.8166 0.1085
53.5200 17.8232 0.1021
53.5400 17.8299 0.0955
53.5600 17.8366 0.1028
53.5800 17.8433 0.0980
53.6000 17.8500 0.0956
53.6200 17.8567 0.1031
53.6400 17.8634 0.0936
53.6600 17.8700 0.1024
53.6800 17.8766 0.1087
53.7000 17.8832 0.0947
53.7200 17.8899 0.1024
53.7400 17.8966 0.1096
53.7600 17.9033 0.0937
53.7800 17.9100 0.1007
53.8000 17.9167 0.1076
53.8200 17.9233 0.1000
53.8400 17.9300 0.0941
53.8600 17.9366 0.1027
53.8800 17.9432 0.1015
53.9000 17.9499 0.0999
53.9200 17.9567 0.1052
53.9400 17.9634 0.0970
53.9600 17.9700 0.1025
53.9800 17.9767 0.1064
54.0000 17.9834 0.0950
54.0200 17.9900 0.0976
54.0400 17.9966 0.1062
54.0600 18.0032 0.1008
54.0800 18.0099 0.0985
54.1000 18.0166 0.1020
54.1200 18.0234 0.1011
54.1400 18.0301 0.1001
54.1600 18.0367 0.1076
54.1800 18.0434 0.0984
54.2000 18.0500 0.0960
54.2200 18.0566 0.1070
54.2400 18.0632 0.1017
54.2600 18.0699 0.0989
54.2800 18.0766 0.1076
54.3000 18.0833 0.1042
54.3200 18.0900 0.0994
54.3400 18.0966 0.1027
54.3600 18.1033 0.1043
54.3800 18.1100 0.1064
54.4000 18.1166 0.1020
54.4200 18.1232 0.1012
54.4400 18.1299 0.1080
54.4600 18.1366 0.1002
54.4800 18.1433 0.1031
54.5000 18.1499 0.1046
54.5200 18.1566 0.0970
54.5400 18.1633 0.1030
54.5600 18.1700 0.1039
54.5800 18.1766 0.1011
54.6000 18.1833 0.1036
54.6200 18.1899 0.1043
54.6400 18.1966 0.1004
54.6600 18.2033 0.1116
54.6800 18.2100 0.0998
54.7000 18.2167 0.0975
54.7200 18.2234 0.1110
54.7400 18.2300 0.1008
54.7600 18.2366 0.0990
54.7800 18.2432 0.1111
54.8000 18.2499 0.0974
54.8200 18.2566 0.1045
54.8400 18.2634 0.1120
54.8600 18.2700 0.0987
54.8800 18.2767 0.1014
54.9000 18.2834 0.1071
54.9200 18.2900 0.1044
54.9400 18.2966 0.1024
54.9600 18.3033 0.1126
54.9800 18.3099 0.0932
55.0000 18.3166 0.1015
55.0200 18.3233 0.1151
55.0400 18.3300 0.0983
55.0600 18.3366 0.1029
55.0800 18.3433 0.1056
55.1000 18.3500 0.0984
55.1200 18.3566 0.1079
55.1400 18.3632 0.1066
55.1600 18.3698 0.1020
55.1800 18.3766 0.1075
55.2000 18.3833 0.1015
55.2200 18.3900 0.0986
55.2400 18.3966 0.1105
55.2600 18.4033 0.1050
55.2800 18.4099 0.0980
55.3000 18.4165 0.1057
55.3200 18.4232 0.1053
55.3400 18.4299 0.1076
55.3600 18.4366 0.0988
55.3800 18.4433 0.1074
55.4000 18.4500 0.1022
55.4200 18.4567 0.0991
55.4400 18.4634 0.1096
55.4600 18.4701 0.0977
55.4800 18.4767 0.0991
55.5000 18.4833 0.1123
55.5200 18.4900 0.1001
55.5400 18.4967 0.1031
55.5600 18.5034 0.1090
55.5800 18.5100 0.1009
55.6000 18.5167 0.1032
55.6200 18.5234 0.1103
55.6400 18.5300 0.0917
55.6600 18.5366 0.1045
55.6800 18.5432 0.1154
55.7000 18.5499 0.0897
55.7200 18.5566 0.1071
55.7400 18.5633 0.1131
55.7600 18.5700 0.0916
55.7800 18.5767 0.1051
55.8000 18.5834 0.1105
55.8200 18.5900 0.0922
55.8400 18.5966 0.1049
55.8600 18.6032 0.1118
55.8800 18.6099 0.0948
55.9000 18.6166 0.1044
55.9200 18.6233 0.1099
55.9400 18.6300 0.0905
55.9600 18.6367 0.1043
55.9800 18.6433 0.1089
56.0000 18.6500 0.0990
56.0200 18.6566 0.1002
56.0400 18.6633 0.1079
56.0600 18.6699 0.1008
56.0800 18.6766 0.0963
56.1000 18.6833 0.1086
56.1200 18.6900 0.1013
56.1400 18.6967 0.0977
56.1600 18.7034 0.1099
56.1800 18.7101 0.0997
56.2000 18.7166 0.0939
56.2200 18.7232 0.1133
56.2400 18.7299 0.1052
56.2600 18.7366 0.0938
56.2800 18.7433 0.1112
56.3000 18.7500 0.1052
56.3200 18.7567 0.0945
56.3400 18.7634 0.1115
56.3600 18.7700 0.1022
56.3800 18.7766 0.0974
56.4000 18.7832 0.1153
56.4200 18.7899 0.1000
56.4400 18.7966 0.1003
56.4600 18.8033 0.1132
56.4800 18.8100 0.0972
56.5000 18.8167 0.0966
56.5200 18.8233 0.1146
56.5400 18.8300 0.0968
56.5600 18.8366 0.0984
56.5800 18.8432 0.1110
56.6000 18.8499 0.0976
56.6200 18.8566 0.1034
56.6400 18.8633 0.1128
56.6600 18.8700 0.0916
56.6800 18.8767 0.1099
56.7000 18.8834 0.1047
56.7200 18.8900 0.0916
56.7400 18.8967 0.1101
56.7600 18.9033 0.1094
56.7800 18.9099 0.0940
56.8000 18.9166 0.1063
56.8200 18.9233 0.1038
56.8400 18.9300 0.0987
56.8600 18.9367 0.1076
56.8800 18.9434 0.1036
56.9000 18.9500 0.0996
56.9200 18.9566 0.1069
56.9400 18.9632 0.1008
56.9600 18.9699 0.1030
56.9800 18.9766 0.1060
57.0000 18.9833 0.1020
57.0200 18.9900 0.1039
57.0400 18.9967 0.0965
57.0600 19.0034 0.1077
57.0800 19.0100 0.1027
57.1000 19.0166 0.0984
57.1200 19.0232 0.1076
57.1400 19.0299 0.1016
57.1600 19.0366 0.1023
57.1800 19.0433 0.1119
57.2000 19.0500 0.0983
57.2200 19.0567 0.1046
57.2400 19.0634 0.1097
57.2600 19.0700 0.0946
57.2800 19.0766 0.1022
57.3000 19.0832 0.1139
57.3200 19.0898 0.0994
57.3400 19.0965 0.1048
57.3600 19.1033 0.1096
57.3800 19.1100 0.0963
57.4000 19.1166 0.1100
57.4200 19.1233 0.1063
57.4400 19.1300 0.1017
57.4600 19.1366 0.1082
57.4800 19.1433 0.1073
57.5000 19.1499 0.1036
57.5200 19.1566 0.1053
57.5400 19.1633 0.1061
57.5600 19.1700 0.1092
57.5800 19.1767 0.1028
57.6000 19.1834 0.1068
57.6200 19.1901 0.1070
57.6400 19.1967 0.1021
57.6600 19.2033 0.1058
57.6800 19.2099 0.1096
57.7000 19.2166 0.1017
57.7200 19.2233 0.1039
57.7400 19.2300 0.1129
57.7600 19.2367 0.1020
57.7800 19.2434 0.1098
57.8000 19.2500 0.1050
57.8200 19.2566 0.0999
57.8400 19.2632 0.1070
57.8600 19.2699 0.1120
57.8800 19.2766 0.0990
57.9000 19.2833 0.1050
57.9200 19.2900 0.1122
57.9400 19.2967 0.0979
57.9600 19.3033 0.1093
57.9800 19.3100 0.1119
58.0000 19.3166 0.0969
58.0200 19.3232 0.1107
58.0400 19.3299 0.1082
58.0600 19.3366 0.1004
58.0800 19.3433 0.1124
58.1000 19.3500 0.1082
58.1200 19.3566 0.0967
58.1400 19.3633 0.1086
58.1600 19.3700 0.1077
58.1800 19.3767 0.0966
58.2000 19.3833 0.1116
58.2200 19.3899 0.1091
58.2400 19.3966 0.0988
58.2600 19.4033 0.1050
58.2800 19.4100 0.1066
58.3000 19.4167 0.1007
58.3200 19.4234 0.1047
58.3400 19.4300 0.1043
58.3600 19.4366 0.1009
58.3800 19.4433 0.1067
58.4000 19.4499 0.1080
58.4200 19.4566 0.1002
58.4400 19.4633 0.1069
58.4600 19.4700 0.1038
58.4800 19.4767 0.1009
58.5000 19.4834 0.1089
58.5200 19.4900 0.1049
58.5400 19.4967 0.1002
58.5600 19.5033 0.1029
58.5800 19.5099 0.1118
58.6000 19.5166 0.1029
58.6200 19.5233 0.1018
58.6400 19.5300 0.1085
58.6600 19.5366 0.0976
58.6800 19.5433 0.1019
58.7000 19.5500 0.1088
58.7200 19.5566 0.0978
58.7400 19.5632 0.1036
58.7600 19.5699 0.1049
58.7800 19.5765 0.1018
58.8000 19.5833 0.1038
58.8200 19.5900 0.1085
58.8400 19.5966 0.0973
58.8600 19.6033 0.1059
58.8800 19.6100 0.1117
58.9000 19.6166 0.0948
58.9200 19.6233 0.1020
58.9400 19.6299 0.1131
58.9600 19.6366 0.0952
58.9800 19.6433 0.1034
59.0000 19.6501 0.1128
59.0200 19.6567 0.0957
59.0400 19.6634 0.1081
59.0600 19.6700 0.1061
59.0800 19.6767 0.0980
59.1000 19.6833 0.1115
59.1200 19.6899 0.1055
59.1400 19.6966 0.1003
59.1600 19.7033 0.1098
59.1800 19.7100 0.1006
59.2000 19.7167 0.1044
59.2200 19.7234 0.1095
59.2400 19.7300 0.1024
59.2600 19.7367 0.1010
59.2800 19.7433 0.1090
59.3000 19.7499 0.1045
59.3200 19.7565 0.1095
59.3400 19.7633 0.1083
59.3600 19.7700 0.0997
59.3800 19.7767 0.1150
59.4000 19.7834 0.1108
59.4200 19.7901 0.1007
59.4400 19.7967 0.1152
59.4600 19.8033 0.1046
59.4800 19.8099 0.1007
59.5000 19.8165 0.1218
59.5200 19.8233 0.1002
59.5400 19.8300 0.1021
59.5600 19.8366 0.1180
59.5800 19.8433 0.1029
59.6000 19.8500 0.1040
59.6200 19.8566 0.1198
59.6400 19.8633 0.1030
59.6600 19.8699 0.1066
59.6800 19.8766 0.1173
59.7000 19.8833 0.0983
59.7200 19.8900 0.1084
59.7400 19.8967 0.1166
59.7600 19.9034 0.0973
59.7800 19.9101 0.1125
59.8000 19.9167 0.1146
59.8200 19.9233 0.0999
59.8400 19.9299 0.1120
59.8600 19.9366 0.1105
59.8800 19.9433 0.0999
59.9000 19.9500 0.1134
59.9200 19.9567 0.1113
59.9400 19.9634 0.1017
59.9600 19.9700 0.1112
59.9800 19.9767 0.1108
60.0000 19.9833 0.1043
60.0200 19.9899 0.1129
60.0400 19.9965 0.1081
60.0510 20.0002 0.0936
