Raw Data
Time Displacement Force
(s) (mm) (N)
0.0000 0.0001 -0.1163
0.0200 0.0001 -0.1140
0.0400 0.0008 -0.0772
0.0600 0.0041 -0.0487
0.0800 0.0096 -0.0628
0.1000 0.0154 -0.0449
0.1200 0.0213 0.0093
0.1400 0.0280 0.0085
0.1600 0.0352 0.0114
0.1800 0.0426 0.0369
0.2000 0.0498 0.0386
0.2200 0.0567 0.0551
0.2400 0.0634 0.0787
0.2600 0.0701 0.0801
0.2800 0.0767 0.0917
0.3000 0.0834 0.1104
0.3200 0.0901 0.0829
0.3400 0.0968 0.0851
0.3600 0.1034 0.0845
0.3800 0.1101 0.0691
0.4000 0.1168 0.0828
0.4200 0.1235 0.0776
0.4400 0.1302 0.0661
0.4600 0.1369 0.0851
0.4800 0.1436 0.0795
0.5000 0.1502 0.0739
0.5200 0.1568 0.0817
0.5400 0.1634 0.0818
0.5600 0.1701 0.0752
0.5800 0.1769 0.0843
0.6000 0.1836 0.0794
0.6200 0.1902 0.0786
0.6400 0.1969 0.0866
0.6600 0.2036 0.0777
0.6800 0.2102 0.0823
0.7000 0.2168 0.0847
0.7200 0.2235 0.0819
0.7400 0.2301 0.0834
0.7600 0.2368 0.0836
0.7800 0.2435 0.0867
0.8000 0.2502 0.0807
0.8200 0.2568 0.0831
0.8400 0.2635 0.0885
0.8600 0.2702 0.0772
0.8800 0.2768 0.0873
0.9000 0.2834 0.0891
0.9200 0.2901 0.0859
0.9400 0.2968 0.0884
0.9600 0.3035 0.0871
0.9800 0.3102 0.0837
1.0000 0.3168 0.0919
1.0200 0.3235 0.0878
1.0400 0.3301 0.0826
1.0600 0.3368 0.0904
1.0800 0.3434 0.0918
1.1000 0.3501 0.0842
1.1200 0.3569 0.0896
1.1400 0.3636 0.0924
1.1600 0.3703 0.0810
1.1800 0.3769 0.0908
1.2000 0.3836 0.0911
1.2200 0.3902 0.0839
1.2400 0.3968 0.0900
1.2600 0.4035 0.0935
1.2800 0.4101 0.0781
1.3000 0.4168 0.0933
1.3200 0.4235 0.0899
1.3400 0.4302 0.0798
1.3600 0.4369 0.0903
1.3800 0.4436 0.0904
1.4000 0.4503 0.0807
1.4200 0.4569 0.0952
1.4400 0.4635 0.0887
1.4600 0.4701 0.0853
1.4800 0.4768 0.0934
1.5000 0.4835 0.0893
1.5200 0.4902 0.0770
1.5400 0.4969 0.0931
1.5600 0.5036 0.0864
1.5800 0.5102 0.0801
1.6000 0.5168 0.0957
1.6200 0.5234 0.0875
1.6400 0.5301 0.0833
1.6600 0.5368 0.0922
1.6800 0.5435 0.0863
1.7000 0.5502 0.0815
1.7200 0.5568 0.0927
1.7400 0.5635 0.0848
1.7600 0.5702 0.0805
1.7800 0.5768 0.0932
1.8000 0.5834 0.0844
1.8200 0.5901 0.0793
1.8400 0.5968 0.0936
1.8600 0.6035 0.0816
1.8800 0.6102 0.0853
1.9000 0.6169 0.0920
1.9200 0.6236 0.0857
1.9400 0.6303 0.0824
1.9600 0.6369 0.0915
1.9800 0.6435 0.0876
2.0000 0.6501 0.0874
2.0200 0.6569 0.0907
2.0400 0.6636 0.0865
2.0600 0.6703 0.0895
2.0800 0.6769 0.0844
2.1000 0.6836 0.0875
2.1200 0.6902 0.0945
2.1400 0.6968 0.0918
2.1600 0.7034 0.0830
2.1800 0.7101 0.0917
2.2000 0.7168 0.0926
2.2200 0.7235 0.0905
2.2400 0.7302 0.0833
2.2600 0.7368 0.0924
2.2800 0.7435 0.0906
2.3000 0.7502 0.0886
2.3200 0.7568 0.0858
2.3400 0.7634 0.0897
2.3600 0.7701 0.0862
2.3800 0.7768 0.0968
2.4000 0.7835 0.0882
2.4200 0.7902 0.0774
2.4400 0.7969 0.0970
2.4600 0.8036 0.0987
2.4800 0.8103 0.0782
2.5000 0.8169 0.0888
2.5200 0.8235 0.0954
2.5400 0.8301 0.0845
2.5600 0.8368 0.0973
2.5800 0.8436 0.0882
2.6000 0.8503 0.0832
2.6200 0.8569 0.0988
2.6400 0.8636 0.0868
2.6600 0.8703 0.0801
2.6800 0.8769 0.0964
2.7000 0.8835 0.0852
2.7200 0.8901 0.0900
2.7400 0.8968 0.0975
2.7600 0.9035 0.0815
2.7800 0.9102 0.0830
2.8000 0.9169 0.1043
2.8200 0.9236 0.0810
2.8400 0.9303 0.0871
2.8600 0.9369 0.0996
2.8800 0.9435 0.0845
2.9000 0.9502 0.0868
2.9200 0.9568 0.0941
2.9400 0.9635 0.0845
2.9600 0.9702 0.0908
2.9800 0.9769 0.0908
3.0000 0.9836 0.0860
3.0200 0.9902 0.0887
3.0400 0.9968 0.0913
3.0600 1.0034 0.0880
3.0800 1.0101 0.0939
3.1000 1.0168 0.0896
3.1200 1.0235 0.0817
3.1400 1.0302 0.0930
3.1600 1.0369 0.0840
3.1800 1.0435 0.0885
3.2000 1.0502 0.0900
3.2200 1.0568 0.0890
3.2400 1.0635 0.0850
3.2600 1.0701 0.0956
3.2800 1.0768 0.0849
3.3000 1.0835 0.0835
3.3200 1.0902 0.0933
3.3400 1.0969 0.0919
3.3600 1.1036 0.0827
3.3800 1.1103 0.0896
3.4000 1.1169 0.0910
3.4200 1.1235 0.0850
3.4400 1.1301 0.0877
3.4600 1.1368 0.0912
3.4800 1.1435 0.0881
3.5000 1.1502 0.0888
3.5200 1.1569 0.0890
3.5400 1.1636 0.0830
3.5600 1.1703 0.0877
3.5800 1.1769 0.0891
3.6000 1.1835 0.0938
3.6200 1.1901 0.0853
3.6400 1.1968 0.0909
3.6600 1.2035 0.0897
3.6800 1.2102 0.0913
3.7000 1.2169 0.0867
3.7200 1.2236 0.0918
3.7400 1.2302 0.0899
3.7600 1.2369 0.0898
3.7800 1.2435 0.0921
3.8000 1.2501 0.0919
3.8200 1.2568 0.0860
3.8400 1.2635 0.0958
3.8600 1.2702 0.0918
3.8800 1.2768 0.0850
3.9000 1.2835 0.0919
3.9200 1.2902 0.0897
3.9400 1.2969 0.0835
3.9600 1.3035 0.1003
3.9800 1.3101 0.0921
4.0000 1.3168 0.0851
4.0200 1.3235 0.0946
4.0400 1.3302 0.0932
4.0600 1.3369 0.0887
4.0800 1.3436 0.0934
4.1000 1.3503 0.0892
4.1200 1.3569 0.0895
4.1400 1.3635 0.0971
4.1600 1.3701 0.0899
4.1800 1.3768 0.0959
4.2000 1.3835 0.0891
4.2200 1.3903 0.0889
4.2400 1.3969 0.0943
4.2600 1.4036 0.0917
4.2800 1.4102 0.0911
4.3000 1.4169 0.0966
4.3200 1.4235 0.0864
4.3400 1.4301 0.0978
4.3600 1.4368 0.0964
4.3800 1.4435 0.0844
4.4000 1.4502 0.0918
4.4200 1.4569 0.0968
4.4400 1.4636 0.0873
4.4600 1.4702 0.0925
4.4800 1.4769 0.0956
4.5000 1.4835 0.0858
4.5200 1.4901 0.0971
4.5400 1.4968 0.0913
4.5600 1.5035 0.0860
4.5800 1.5102 0.1000
4.6000 1.5169 0.0938
4.6200 1.5236 0.0883
4.6400 1.5302 0.0993
4.6600 1.5369 0.0892
4.6800 1.5435 0.0900
4.7000 1.5501 0.1024
4.7200 1.5568 0.0910
4.7400 1.5635 0.0872
4.7600 1.5702 0.0989
4.7800 1.5769 0.0906
4.8000 1.5836 0.0938
4.8200 1.5903 0.0957
4.8400 1.5969 0.0889
4.8600 1.6035 0.0910
4.8800 1.6101 0.0971
4.9000 1.6168 0.0921
4.9200 1.6235 0.0962
4.9400 1.6302 0.0936
4.9600 1.6369 0.0909
4.9800 1.6436 0.0947
5.0000 1.6503 0.0896
5.0200 1.6569 0.0919
5.0400 1.6635 0.0951
5.0600 1.6701 0.0938
5.0800 1.6768 0.0920
5.1000 1.6835 0.0925
5.1200 1.6902 0.0939
5.1400 1.6969 0.0976
5.1600 1.7036 0.0848
5.1800 1.7102 0.0935
5.2000 1.7169 0.0961
5.2200 1.7234 0.0872
5.2400 1.7301 0.0977
5.2600 1.7367 0.0981
5.2800 1.7435 0.0866
5.3000 1.7502 0.0968
5.3200 1.7569 0.0925
5.3400 1.7635 0.0895
5.3600 1.7702 0.1022
5.3800 1.7769 0.0902
5.4000 1.7835 0.0865
5.4200 1.7901 0.0993
5.4400 1.7968 0.0920
5.4600 1.8035 0.0923
5.4800 1.8102 0.0956
5.5000 1.8169 0.0916
5.5200 1.8236 0.0923
5.5400 1.8303 0.0932
5.5600 1.8369 0.0903
5.5800 1.8435 0.0910
5.6000 1.8501 0.1022
5.6200 1.8568 0.0895
5.6400 1.8635 0.0908
5.6600 1.8702 0.0957
5.6800 1.8769 0.0927
5.7000 1.8836 0.0934
5.7200 1.8903 0.0980
5.7400 1.8969 0.0911
5.7600 1.9035 0.0927
5.7800 1.9101 0.0988
5.8000 1.9168 0.0974
5.8200 1.9235 0.0909
5.8400 1.9302 0.0976
5.8600 1.9369 0.0949
5.8800 1.9435 0.0924
5.9000 1.9502 0.1015
5.9200 1.9569 0.0910
5.9400 1.9635 0.0938
5.9600 1.9701 0.0991
5.9800 1.9768 0.0949
6.0000 1.9835 0.0928
6.0200 1.9902 0.1001
6.0400 1.9968 0.0905
6.0600 2.0035 0.0926
6.0800 2.0102 0.0970
6.1000 2.0169 0.0931
6.1200 2.0235 0.0888
6.1400 2.0301 0.1031
6.1600 2.0368 0.0945
6.1800 2.0435 0.0864
6.2000 2.0502 0.1013
6.2200 2.0569 0.0947
6.2400 2.0636 0.0846
6.2600 2.0703 0.1053
6.2800 2.0769 0.0908
6.3000 2.0835 0.0863
6.3200 2.0901 0.1039
6.3400 2.0968 0.0922
6.3600 2.1035 0.0894
6.3800 2.1103 0.0990
6.4000 2.1169 0.0907
6.4200 2.1236 0.0844
6.4400 2.1302 0.1021
6.4600 2.1369 0.0908
6.4800 2.1435 0.0878
6.5000 2.1501 0.0994
6.5200 2.1568 0.0898
6.5400 2.1635 0.0848
6.5600 2.1702 0.1032
6.5800 2.1769 0.0872
6.6000 2.1835 0.0857
6.6200 2.1902 0.0973
6.6400 2.1969 0.0924
6.6600 2.2035 0.0828
6.6800 2.2101 0.1035
6.7000 2.2168 0.0923
6.7200 2.2235 0.0874
6.7400 2.2302 0.0991
6.7600 2.2369 0.0871
6.7800 2.2435 0.0908
6.8000 2.2502 0.0946
6.8200 2.2569 0.0871
6.8400 2.2635 0.0897
6.8600 2.2701 0.1020
6.8800 2.2768 0.0894
6.9000 2.2835 0.0893
6.9200 2.2902 0.0995
6.9400 2.2969 0.0938
6.9600 2.3036 0.0895
6.9800 2.3103 0.0966
7.0000 2.3169 0.0882
7.0200 2.3235 0.0941
7.0400 2.3301 0.0908
7.0600 2.3367 0.0924
7.0800 2.3434 0.0916
7.1000 2.3502 0.1003
7.1200 2.3569 0.0873
7.1400 2.3636 0.0903
7.1600 2.3703 0.1000
7.1800 2.3769 0.0891
7.2000 2.3835 0.0928
7.2200 2.3901 0.0969
7.2400 2.3968 0.0890
7.2600 2.4035 0.0953
7.2800 2.4102 0.0951
7.3000 2.4169 0.0903
7.3200 2.4236 0.0979
7.3400 2.4302 0.0958
7.3600 2.4369 0.0910
7.3800 2.4435 0.0959
7.4000 2.4501 0.0976
7.4200 2.4568 0.0909
7.4400 2.4635 0.1019
7.4600 2.4702 0.0933
7.4800 2.4768 0.0893
7.5000 2.4835 0.1002
7.5200 2.4902 0.0922
7.5400 2.4969 0.0908
7.5600 2.5035 0.0987
7.5800 2.5101 0.0929
7.6000 2.5168 0.0947
7.6200 2.5235 0.0928
7.6400 2.5302 0.0922
7.6600 2.5369 0.0938
7.6800 2.5436 0.0943
7.7000 2.5503 0.0927
7.7200 2.5570 0.0978
7.7400 2.5636 0.0931
7.7600 2.5702 0.0920
7.7800 2.5768 0.1024
7.8000 2.5835 0.0924
7.8200 2.5902 0.0932
7.8400 2.5969 0.0977
7.8600 2.6036 0.0956
7.8800 2.6103 0.0932
7.9000 2.6169 0.0997
7.9200 2.6236 0.0951
7.9400 2.6302 0.0911
7.9600 2.6368 0.0967
7.9800 2.6435 0.0997
8.0000 2.6502 0.0862
8.0200 2.6568 0.1012
8.0400 2.6635 0.0937
8.0600 2.6702 0.0897
8.0800 2.6769 0.0979
8.1000 2.6835 0.0970
8.1200 2.6901 0.0893
8.1400 2.6967 0.0994
8.1600 2.7034 0.0937
8.1800 2.7102 0.0861
8.2000 2.7169 0.1009
8.2200 2.7235 0.0966
8.2400 2.7302 0.0860
8.2600 2.7369 0.1029
8.2800 2.7435 0.0960
8.3000 2.7501 0.0866
8.3200 2.7568 0.1046
8.3400 2.7635 0.0932
8.3600 2.7702 0.0892
8.3800 2.7769 0.1020
8.4000 2.7836 0.0949
8.4200 2.7903 0.0854
8.4400 2.7969 0.1037
8.4600 2.8036 0.0885
8.4800 2.8102 0.0882
8.5000 2.8168 0.1048
8.5200 2.8235 0.0909
8.5400 2.8302 0.0876
8.5600 2.8369 0.1067
8.5800 2.8436 0.0880
8.6000 2.8503 0.0895
8.6200 2.8569 0.1024
8.6400 2.8636 0.0891
8.6600 2.8701 0.0897
8.6800 2.8768 0.1007
8.7000 2.8835 0.0915
8.7200 2.8902 0.0897
8.7400 2.8969 0.1009
8.7600 2.9035 0.0929
8.7800 2.9102 0.0929
8.8000 2.9169 0.0983
8.8200 2.9235 0.0909
8.8400 2.9301 0.0935
8.8600 2.9367 0.0976
8.8800 2.9434 0.0897
8.9000 2.9502 0.0913
8.9200 2.9569 0.0922
8.9400 2.9635 0.0959
8.9600 2.9702 0.0941
8.9800 2.9769 0.0933
9.0000 2.9835 0.0964
9.0200 2.9901 0.0919
9.0400 2.9968 0.0862
9.0600 3.0035 0.1050
9.0800 3.0102 0.0934
9.1000 3.0169 0.0882
9.1200 3.0236 0.1037
9.1400 3.0303 0.0888
9.1600 3.0369 0.0924
9.1800 3.0436 0.1031
9.2000 3.0501 0.0863
9.2200 3.0568 0.0943
9.2400 3.0635 0.1054
9.2600 3.0702 0.0826
9.2800 3.0769 0.0930
9.3000 3.0836 0.1037
9.3200 3.0903 0.0827
9.3400 3.0969 0.0905
9.3600 3.1035 0.1019
9.3800 3.1102 0.0826
9.4000 3.1168 0.0987
9.4200 3.1235 0.0995
9.4400 3.1302 0.0822
9.4600 3.1369 0.0998
9.4800 3.1435 0.1011
9.5000 3.1502 0.0817
9.5200 3.1569 0.0992
9.5400 3.1635 0.0983
9.5600 3.1701 0.0849
9.5800 3.1767 0.0983
9.6000 3.1834 0.0961
9.6200 3.1901 0.0858
9.6400 3.1968 0.0993
9.6600 3.2035 0.0941
9.6800 3.2102 0.0907
9.7000 3.2169 0.0965
9.7200 3.2235 0.0923
9.7400 3.2301 0.0944
9.7600 3.2368 0.0953
9.7800 3.2435 0.0961
9.8000 3.2502 0.0930
9.8200 3.2569 0.0932
9.8400 3.2636 0.0893
9.8600 3.2703 0.0956
9.8800 3.2769 0.0902
9.9000 3.2836 0.0938
9.9200 3.2902 0.0961
9.9400 3.2968 0.0929
9.9600 3.3035 0.0988
9.9800 3.3102 0.0903
10.0000 3.3169 0.0898
10.0200 3.3236 0.1054
10.0400 3.3302 0.0877
10.0600 3.3369 0.0873
10.0800 3.3435 0.1017
10.1000 3.3501 0.0874
10.1200 3.3568 0.0894
10.1400 3.3634 0.1021
10.1600 3.3701 0.0870
10.1800 3.3769 0.0934
10.2000 3.3835 0.1045
10.2200 3.3902 0.0806
10.2400 3.3969 0.0976
10.2600 3.4036 0.1031
10.2800 3.4102 0.0855
10.3000 3.4167 0.0971
10.3200 3.4234 0.1010
10.3400 3.4301 0.0896
10.3600 3.4369 0.0974
10.3800 3.4436 0.0919
10.4000 3.4502 0.0920
10.4200 3.4569 0.0991
10.4400 3.4635 0.0892
10.4600 3.4702 0.0887
10.4800 3.4768 0.1017
10.5000 3.4835 0.0909
10.5200 3.4902 0.0892
10.5400 3.4969 0.0958
10.5600 3.5036 0.0920
10.5800 3.5103 0.0942
10.6000 3.5169 0.0919
10.6200 3.5236 0.0954
10.6400 3.5302 0.0971
10.6600 3.5368 0.0886
10.6800 3.5435 0.0958
10.7000 3.5502 0.0991
10.7200 3.5569 0.0834
10.7400 3.5636 0.0970
10.7600 3.5703 0.0987
10.7800 3.5770 0.0874
10.8000 3.5836 0.0947
10.8200 3.5902 0.0964
10.8400 3.5968 0.0882
10.8600 3.6034 0.1044
10.8800 3.6102 0.0927
10.9000 3.6169 0.0901
10.9200 3.6235 0.1031
10.9400 3.6302 0.0864
10.9600 3.6369 0.0921
10.9800 3.6435 0.1012
11.0000 3.6502 0.0878
11.0200 3.6568 0.0962
11.0400 3.6634 0.0989
11.0600 3.6702 0.0916
11.0800 3.6768 0.0936
11.1000 3.6835 0.0956
11.1200 3.6902 0.0925
11.1400 3.6969 0.0927
11.1600 3.7035 0.0964
11.1800 3.7102 0.0900
11.2000 3.7168 0.0957
11.2200 3.7235 0.0947
11.2400 3.7301 0.0933
11.2600 3.7369 0.0957
11.2800 3.7436 0.0986
11.3000 3.7503 0.0911
11.3200 3.7570 0.0934
11.3400 3.7636 0.0966
11.3600 3.7702 0.0925
11.3800 3.7768 0.0922
11.4000 3.7835 0.0961
11.4200 3.7902 0.0963
11.4400 3.7969 0.0924
11.4600 3.8036 0.0944
11.4800 3.8102 0.0938
11.5000 3.8169 0.0935
11.5200 3.8236 0.0918
11.5400 3.8302 0.0950
11.5600 3.8368 0.0915
11.5800 3.8435 0.0967
11.6000 3.8502 0.0964
11.6200 3.8569 0.0876
11.6400 3.8635 0.0977
11.6600 3.8702 0.0988
11.6800 3.8769 0.0895
11.7000 3.8836 0.1001
11.7200 3.8902 0.0892
11.7400 3.8968 0.0884
11.7600 3.9034 0.1033
11.7800 3.9101 0.1010
11.8000 3.9168 0.0850
11.8200 3.9235 0.0998
11.8400 3.9302 0.0957
11.8600 3.9369 0.0857
11.8800 3.9435 0.0953
11.9000 3.9501 0.0946
11.9200 3.9567 0.0918
11.9400 3.9634 0.0980
11.9600 3.9701 0.0889
11.9800 3.9769 0.0965
12.0000 3.9836 0.1001
12.0200 3.9903 0.0862
12.0400 3.9970 0.0893
12.0600 4.0036 0.0950
12.0800 4.0102 0.0916
12.1000 4.0168 0.0953
12.1200 4.0235 0.0968
12.1400 4.0302 0.0887
12.1600 4.0369 0.1011
12.1800 4.0436 0.0861
12.2000 4.0503 0.0898
12.2200 4.0569 0.1048
12.2400 4.0636 0.0880
12.2600 4.0702 0.0922
12.2800 4.0768 0.1040
12.3000 4.0834 0.0864
12.3200 4.0901 0.0978
12.3400 4.0968 0.0991
12.3600 4.1035 0.0820
12.3800 4.1102 0.0997
12.4000 4.1169 0.0999
12.4200 4.1235 0.0776
12.4400 4.1302 0.1022
12.4600 4.1368 0.1001
12.4800 4.1434 0.0771
12.5000 4.1501 0.1062
12.5200 4.1569 0.0978
12.5400 4.1635 0.0820
12.5600 4.1702 0.1065
12.5800 4.1769 0.0917
12.6000 4.1835 0.0799
12.6200 4.1902 0.1087
12.6400 4.1968 0.0888
12.6600 4.2035 0.0849
12.6800 4.2102 0.1075
12.7000 4.2169 0.0877
12.7200 4.2236 0.0859
12.7400 4.2302 0.1067
12.7600 4.2369 0.0843
12.7800 4.2436 0.0909
12.8000 4.2502 0.1002
12.8200 4.2568 0.0856
12.8400 4.2634 0.0957
12.8600 4.2701 0.0982
12.8800 4.2769 0.0884
12.9000 4.2836 0.0926
12.9200 4.2902 0.0955
12.9400 4.2969 0.0935
12.9600 4.3036 0.0938
12.9800 4.3102 0.0945
13.0000 4.3168 0.0967
13.0200 4.3234 0.0905
13.0400 4.3301 0.0954
13.0600 4.3369 0.0951
13.0800 4.3435 0.0882
13.1000 4.3502 0.0908
13.1200 4.3569 0.0997
13.1400 4.3636 0.0821
13.1600 4.3702 0.1010
13.1800 4.3768 0.1012
13.2000 4.3834 0.0822
13.2200 4.3901 0.0970
13.2400 4.3968 0.1060
13.2600 4.4035 0.0819
13.2800 4.4102 0.0971
13.3000 4.4169 0.0972
13.3200 4.4236 0.0807
13.3400 4.4302 0.0960
13.3600 4.4368 0.0993
13.3800 4.4435 0.0850
13.4000 4.4501 0.0992
13.4200 4.4569 0.1013
13.4400 4.4636 0.0767
13.4600 4.4703 0.0996
13.4800 4.4769 0.1007
13.5000 4.4836 0.0764
13.5200 4.4902 0.1019
13.5400 4.4968 0.1036
13.5600 4.5035 0.0829
13.5800 4.5102 0.1021
13.6000 4.5169 0.0965
13.6200 4.5236 0.0829
13.6400 4.5302 0.1010
13.6600 4.5369 0.1028
13.6800 4.5436 0.0790
13.7000 4.5502 0.1039
13.7200 4.5568 0.0971
13.7400 4.5634 0.0842
13.7600 4.5701 0.1043
13.7800 4.5768 0.0963
13.8000 4.5835 0.0850
13.8200 4.5902 0.1028
13.8400 4.5969 0.0945
13.8600 4.6036 0.0897
13.8800 4.6102 0.0997
13.9000 4.6168 0.0949
13.9200 4.6234 0.0935
13.9400 4.6301 0.0987
13.9600 4.6368 0.0945
13.9800 4.6435 0.0960
14.0000 4.6502 0.0974
14.0200 4.6569 0.0935
14.0400 4.6635 0.1009
14.0600 4.6702 0.0933
14.0800 4.6768 0.0929
14.1000 4.6835 0.0953
14.1200 4.6901 0.0959
14.1400 4.6969 0.0962
14.1600 4.7035 0.0960
14.1800 4.7102 0.0854
14.2000 4.7169 0.0999
14.2200 4.7236 0.0958
14.2400 4.7303 0.0895
14.2600 4.7369 0.1001
14.2800 4.7435 0.0955
14.3000 4.7501 0.0849
14.3200 4.7568 0.1031
14.3400 4.7636 0.0958
14.3600 4.7702 0.0882
14.3800 4.7769 0.1093
14.4000 4.7836 0.0860
14.4200 4.7902 0.0920
14.4400 4.7968 0.1102
14.4600 4.8034 0.0888
14.4800 4.8101 0.0955
14.5000 4.8168 0.1055
14.5200 4.8235 0.0810
14.5400 4.8302 0.0980
14.5600 4.8369 0.1074
14.5800 4.8436 0.0826
14.6000 4.8502 0.0939
14.6200 4.8568 0.1084
14.6400 4.8635 0.0815
14.6600 4.8701 0.0987
14.6800 4.8768 0.1048
14.7000 4.8835 0.0865
14.7200 4.8902 0.0956
14.7400 4.8968 0.1058
14.7600 4.9035 0.0892
14.7800 4.9102 0.0944
14.8000 4.9168 0.1012
14.8200 4.9235 0.0892
14.8400 4.9301 0.0977
14.8600 4.9368 0.0982
14.8800 4.9435 0.0899
14.9000 4.9502 0.0955
14.9200 4.9569 0.0980
14.9400 4.9636 0.0912
14.9600 4.9702 0.0887
14.9800 4.9768 0.0983
15.0000 4.9834 0.0962
15.0200 4.9901 0.0906
15.0400 4.9969 0.0997
15.0600 5.0036 0.0911
15.0800 5.0103 0.0930
15.1000 5.0169 0.0925
15.1200 5.0236 0.0922
15.1400 5.0302 0.0921
15.1600 5.0368 0.0940
15.1800 5.0434 0.1001
15.2000 5.0501 0.0918
15.2200 5.0568 0.0936
15.2400 5.0635 0.1001
15.2600 5.0702 0.0917
15.2800 5.0769 0.0947
15.3000 5.0836 0.0969
15.3200 5.0902 0.0837
15.3400 5.0968 0.0987
15.3600 5.1034 0.0981
15.3800 5.1101 0.0910
15.4000 5.1168 0.0956
15.4200 5.1235 0.0928
15.4400 5.1302 0.0896
15.4600 5.1369 0.1038
15.4800 5.1435 0.0935
15.5000 5.1502 0.0880
15.5200 5.1568 0.0972
15.5400 5.1634 0.0971
15.5600 5.1701 0.0884
15.5800 5.1769 0.0973
15.6000 5.1836 0.0913
15.6200 5.1903 0.0930
15.6400 5.1969 0.0980
15.6600 5.2036 0.0980
15.6800 5.2102 0.0910
15.7000 5.2169 0.0984
15.7200 5.2235 0.0938
15.7400 5.2301 0.0913
15.7600 5.2368 0.1006
15.7800 5.2435 0.0958
15.8000 5.2502 0.0922
15.8200 5.2569 0.0931
15.8400 5.2636 0.0954
15.8600 5.2703 0.0905
15.8800 5.2769 0.0980
15.9000 5.2835 0.0961
15.9200 5.2901 0.0934
15.9400 5.2968 0.0927
15.9600 5.3035 0.0930
15.9800 5.3102 0.0909
16.0000 5.3169 0.0970
16.0200 5.3236 0.0957
16.0400 5.3302 0.0909
16.0600 5.3368 0.0911
16.0800 5.3434 0.0992
16.1000 5.3501 0.0944
16.1200 5.3568 0.0963
16.1400 5.3635 0.0926
16.1600 5.3702 0.0897
16.1800 5.3769 0.0954
16.2000 5.3835 0.0918
16.2200 5.3902 0.0919
16.2400 5.3968 0.0992
16.2600 5.4035 0.0896
16.2800 5.4101 0.0915
16.3000 5.4168 0.0982
16.3200 5.4235 0.0932
16.3400 5.4302 0.0937
16.3600 5.4369 0.0904
16.3800 5.4436 0.0945
16.4000 5.4503 0.0924
16.4200 5.4569 0.0943
16.4400 5.4635 0.0932
16.4600 5.4701 0.0986
16.4800 5.4768 0.0920
16.5000 5.4836 0.0932
16.5200 5.4903 0.0941
16.5400 5.4969 0.0928
16.5600 5.5036 0.0997
16.5800 5.5102 0.0924
16.6000 5.5168 0.0908
16.6200 5.5234 0.0963
16.6400 5.5301 0.0952
16.6600 5.5368 0.0911
16.6800 5.5435 0.0953
16.7000 5.5502 0.0927
16.7200 5.5568 0.0906
16.7400 5.5635 0.0985
16.7600 5.5702 0.0946
16.7800 5.5768 0.0862
16.8000 5.5834 0.0975
16.8200 5.5901 0.0925
16.8400 5.5968 0.0891
16.8600 5.6035 0.0925
16.8800 5.6102 0.0973
16.9000 5.6169 0.0873
16.9200 5.6236 0.0941
16.9400 5.6303 0.0960
16.9600 5.6369 0.0883
16.9800 5.6435 0.0938
17.0000 5.6501 0.0958
17.0200 5.6568 0.0896
17.0400 5.6635 0.0969
17.0600 5.6702 0.0951
17.0800 5.6769 0.0898
17.1000 5.6836 0.0941
17.1200 5.6903 0.0952
17.1400 5.6969 0.0871
17.1600 5.7035 0.0989
17.1800 5.7101 0.1003
17.2000 5.7168 0.0867
17.2200 5.7235 0.0962
17.2400 5.7302 0.0961
17.2600 5.7369 0.0840
17.2800 5.7436 0.0989
17.3000 5.7503 0.0974
17.3200 5.7569 0.0847
17.3400 5.7635 0.1010
17.3600 5.7701 0.0940
17.3800 5.7768 0.0866
17.4000 5.7835 0.0993
17.4200 5.7902 0.0960
17.4400 5.7969 0.0844
17.4600 5.8036 0.1020
17.4800 5.8102 0.0912
17.5000 5.8169 0.0830
17.5200 5.8234 0.1064
17.5400 5.8301 0.0951
17.5600 5.8368 0.0831
17.5800 5.8435 0.1014
17.6000 5.8502 0.0930
17.6200 5.8569 0.0846
17.6400 5.8635 0.0961
17.6600 5.8702 0.0936
17.6800 5.8768 0.0871
17.7000 5.8835 0.0978
17.7200 5.8901 0.0926
17.7400 5.8968 0.0915
17.7600 5.9035 0.0989
17.7800 5.9102 0.0869
17.8000 5.9169 0.0909
17.8200 5.9236 0.0954
17.8400 5.9303 0.0934
17.8600 5.9369 0.0897
17.8800 5.9435 0.0969
17.9000 5.9501 0.0935
17.9200 5.9568 0.0899
17.9400 5.9635 0.0919
17.9600 5.9702 0.0930
17.9800 5.9769 0.0929
18.0000 5.9836 0.0938
18.0200 5.9903 0.0870
18.0400 5.9969 0.0926
18.0600 6.0035 0.0925
18.0800 6.0101 0.0919
18.1000 6.0168 0.0896
18.1200 6.0235 0.0881
18.1400 6.0302 0.0947
18.1600 6.0369 0.0904
18.1800 6.0436 0.0874
18.2000 6.0502 0.0918
18.2200 6.0569 0.0934
18.2400 6.0635 0.0868
18.2600 6.0701 0.0962
18.2800 6.0768 0.0907
18.3000 6.0835 0.0864
18.3200 6.0902 0.0981
18.3400 6.0968 0.0941
18.3600 6.1035 0.0829
18.3800 6.1102 0.1027
18.4000 6.1169 0.0901
18.4200 6.1235 0.0881
18.4400 6.1301 0.0987
18.4600 6.1368 0.0888
18.4800 6.1435 0.0877
18.5000 6.1502 0.1042
18.5200 6.1569 0.0873
18.5400 6.1636 0.0863
18.5600 6.1703 0.1023
18.5800 6.1769 0.0841
18.6000 6.1835 0.0882
18.6200 6.1901 0.1028
18.6400 6.1968 0.0854
18.6600 6.2036 0.0893
18.6800 6.2103 0.1022
18.7000 6.2169 0.0863
18.7200 6.2236 0.0976
18.7400 6.2302 0.0947
18.7600 6.2369 0.0847
18.7800 6.2435 0.1024
18.8000 6.2501 0.0977
18.8200 6.2568 0.0824
18.8400 6.2635 0.1014
18.8600 6.2702 0.0976
18.8800 6.2769 0.0875
18.9000 6.2835 0.0931
18.9200 6.2902 0.0960
18.9400 6.2969 0.0904
18.9600 6.3035 0.0947
18.9800 6.3101 0.0968
19.0000 6.3167 0.0920
19.0200 6.3235 0.0958
19.0400 6.3302 0.0939
19.0600 6.3369 0.0907
19.0800 6.3436 0.0939
19.1000 6.3503 0.0948
19.1200 6.3569 0.0902
19.1400 6.3635 0.0929
19.1600 6.3701 0.0980
19.1800 6.3768 0.0886
19.2000 6.3835 0.0861
19.2200 6.3902 0.1001
19.2400 6.3969 0.0948
19.2600 6.4036 0.0929
19.2800 6.4103 0.0980
19.3000 6.4169 0.0939
19.3200 6.4235 0.0865
19.3400 6.4302 0.1003
19.3600 6.4368 0.0926
19.3800 6.4435 0.0902
19.4000 6.4502 0.0996
19.4200 6.4569 0.0949
19.4400 6.4636 0.0934
19.4600 6.4703 0.0978
19.4800 6.4769 0.0939
19.5000 6.4835 0.0895
19.5200 6.4901 0.1025
19.5400 6.4968 0.0896
19.5600 6.5035 0.0922
19.5800 6.5102 0.0989
19.6000 6.5169 0.0900
19.6200 6.5236 0.0930
19.6400 6.5302 0.0991
19.6600 6.5369 0.0868
19.6800 6.5435 0.0944
19.7000 6.5501 0.1021
19.7200 6.5567 0.0922
19.7400 6.5635 0.0892
19.7600 6.5702 0.1019
19.7800 6.5768 0.0907
19.8000 6.5835 0.0949
19.8200 6.5902 0.0982
19.8400 6.5969 0.0886
19.8600 6.6035 0.0912
19.8800 6.6101 0.1033
19.9000 6.6168 0.0915
19.9200 6.6235 0.0942
19.9400 6.6302 0.0997
19.9600 6.6369 0.0901
19.9800 6.6436 0.0924
20.0000 6.6503 0.0970
20.0200 6.6570 0.0892
20.0400 6.6635 0.0929
20.0600 6.6701 0.1000
20.0800 6.6768 0.0869
20.1000 6.6835 0.0974
20.1200 6.6902 0.0953
20.1400 6.6969 0.0904
20.1600 6.7036 0.0952
20.1800 6.7103 0.0929
20.2000 6.7169 0.0923
20.2200 6.7235 0.0928
20.2400 6.7301 0.0953
20.2600 6.7368 0.0961
20.2800 6.7435 0.0892
20.3000 6.7502 0.0925
20.3200 6.7569 0.0943
20.3400 6.7635 0.0928
20.3600 6.7702 0.0922
20.3800 6.7769 0.0960
20.4000 6.7835 0.0850
20.4200 6.7901 0.0966
20.4400 6.7968 0.1008
20.4600 6.8035 0.0859
20.4800 6.8102 0.0964
20.5000 6.8168 0.0996
20.5200 6.8235 0.0841
20.5400 6.8302 0.0977
20.5600 6.8369 0.0997
20.5800 6.8435 0.0825
20.6000 6.8501 0.1036
20.6200 6.8568 0.0938
20.6400 6.8635 0.0814
20.6600 6.8702 0.0999
20.6800 6.8769 0.0932
20.7000 6.8836 0.0824
20.7200 6.8903 0.1031
20.7400 6.8969 0.0903
20.7600 6.9035 0.0856
20.7800 6.9101 0.0975
20.8000 6.9168 0.0985
20.8200 6.9235 0.0885
20.8400 6.9302 0.0973
20.8600 6.9369 0.0931
20.8800 6.9436 0.0919
20.9000 6.9503 0.0947
20.9200 6.9569 0.0931
20.9400 6.9635 0.0936
20.9600 6.9701 0.0961
20.9800 6.9768 0.0947
21.0000 6.9835 0.0905
21.0200 6.9902 0.0976
21.0400 6.9969 0.0939
21.0600 7.0035 0.0939
21.0800 7.0102 0.0958
21.1000 7.0169 0.0939
21.1200 7.0235 0.0910
21.1400 7.0301 0.0970
21.1600 7.0367 0.0937
21.1800 7.0434 0.0937
21.2000 7.0502 0.0934
21.2200 7.0569 0.0960
21.2400 7.0636 0.0894
21.2600 7.0702 0.0917
21.2800 7.0769 0.0947
21.3000 7.0835 0.0931
21.3200 7.0902 0.0963
21.3400 7.0968 0.0945
21.3600 7.1035 0.0917
21.3800 7.1102 0.0939
21.4000 7.1169 0.0956
21.4200 7.1235 0.0918
21.4400 7.1302 0.0966
21.4600 7.1369 0.0934
21.4800 7.1435 0.0894
21.5000 7.1501 0.0914
21.5200 7.1568 0.0984
21.5400 7.1634 0.0927
21.5600 7.1702 0.0943
21.5800 7.1769 0.0973
21.6000 7.1836 0.0922
21.6200 7.1903 0.0921
21.6400 7.1969 0.0967
21.6600 7.2035 0.0906
21.6800 7.2101 0.0943
21.7000 7.2168 0.0976
21.7200 7.2235 0.0910
21.7400 7.2302 0.0906
21.7600 7.2369 0.0963
21.7800 7.2436 0.0911
21.8000 7.2502 0.0918
21.8200 7.2569 0.0945
21.8400 7.2635 0.0935
21.8600 7.2701 0.0887
21.8800 7.2768 0.0949
21.9000 7.2835 0.0933
21.9200 7.2902 0.0851
21.9400 7.2969 0.0989
21.9600 7.3035 0.0923
21.9800 7.3102 0.0886
22.0000 7.3169 0.0924
22.0200 7.3235 0.0919
22.0400 7.3301 0.0892
22.0600 7.3368 0.0958
22.0800 7.3435 0.0945
22.1000 7.3502 0.0829
22.1200 7.3569 0.0893
22.1400 7.3636 0.0912
22.1600 7.3703 0.0821
22.1800 7.3770 0.0959
22.2000 7.3836 0.0866
22.2200 7.3901 0.0843
22.2400 7.3968 0.0970
22.2600 7.4035 0.0883
22.2800 7.4102 0.0811
22.3000 7.4169 0.0984
22.3200 7.4236 0.0895
22.3400 7.4303 0.0800
22.3600 7.4369 0.0996
22.3800 7.4435 0.0864
22.4000 7.4501 0.0838
22.4200 7.4568 0.1005
22.4400 7.4635 0.0870
22.4600 7.4702 0.0820
22.4800 7.4768 0.0962
22.5000 7.4835 0.0857
22.5200 7.4902 0.0912
22.5400 7.4969 0.0902
22.5600 7.5035 0.0896
22.5800 7.5101 0.0882
22.6000 7.5167 0.0946
22.6200 7.5234 0.0899
22.6400 7.5301 0.0911
22.6600 7.5368 0.0885
22.6800 7.5435 0.0922
22.7000 7.5502 0.0911
22.7200 7.5569 0.0877
22.7400 7.5635 0.0926
22.7600 7.5701 0.0914
22.7800 7.5768 0.0897
22.8000 7.5835 0.0955
22.8200 7.5902 0.0873
22.8400 7.5969 0.0913
22.8600 7.6036 0.1005
22.8800 7.6103 0.0860
22.9000 7.6169 0.0893
22.9200 7.6236 0.0958
22.9400 7.6302 0.0881
22.9600 7.6368 0.0933
22.9800 7.6435 0.0988
23.0000 7.6502 0.0816
23.0200 7.6569 0.0948
23.0400 7.6636 0.0979
23.0600 7.6702 0.0846
23.0800 7.6769 0.0905
23.1000 7.6836 0.1016
23.1200 7.6902 0.0818
23.1400 7.6968 0.0938
23.1600 7.7034 0.1046
23.1800 7.7102 0.0810
23.2000 7.7169 0.0961
23.2200 7.7236 0.1036
23.2400 7.7302 0.0837
23.2600 7.7369 0.0966
23.2800 7.7435 0.1018
23.3000 7.7501 0.0806
23.3200 7.7567 0.0982
23.3400 7.7634 0.1008
23.3600 7.7702 0.0801
23.3800 7.7769 0.0948
23.4000 7.7835 0.0994
23.4200 7.7902 0.0828
23.4400 7.7969 0.1037
23.4600 7.8036 0.0917
23.4800 7.8102 0.0873
23.5000 7.8168 0.0999
23.5200 7.8235 0.0944
23.5400 7.8302 0.0881
23.5600 7.8369 0.0980
23.5800 7.8436 0.0917
23.6000 7.8503 0.0921
23.6200 7.8570 0.0947
23.6400 7.8636 0.0920
23.6600 7.8702 0.0953
23.6800 7.8768 0.0936
23.7000 7.8835 0.0946
23.7200 7.8902 0.0913
23.7400 7.8969 0.0907
23.7600 7.9036 0.0995
23.7800 7.9103 0.0913
23.8000 7.9169 0.0872
23.8200 7.9235 0.0990
23.8400 7.9302 0.0934
23.8600 7.9368 0.0883
23.8800 7.9435 0.1022
23.9000 7.9502 0.0939
23.9200 7.9569 0.0844
23.9400 7.9635 0.1004
23.9600 7.9702 0.0947
23.9800 7.9769 0.0852
24.0000 7.9836 0.1033
24.0200 7.9902 0.0916
24.0400 7.9968 0.0831
24.0600 8.0034 0.1053
24.0800 8.0101 0.0882
24.1000 8.0168 0.0849
24.1200 8.0235 0.1044
24.1400 8.0302 0.0880
24.1600 8.0369 0.0882
24.1800 8.0435 0.1010
24.2000 8.0502 0.0875
24.2200 8.0568 0.0881
24.2400 8.0634 0.1039
24.2600 8.0702 0.0829
24.2800 8.0769 0.0888
24.3000 8.0836 0.1034
24.3200 8.0903 0.0849
24.3400 8.0970 0.0886
24.3600 8.1036 0.1040
24.3800 8.1102 0.0868
24.4000 8.1168 0.0941
24.4200 8.1235 0.0948
24.4400 8.1302 0.0906
24.4600 8.1369 0.0891
24.4800 8.1436 0.0971
24.5000 8.1502 0.0920
24.5200 8.1569 0.0893
24.5400 8.1635 0.0916
24.5600 8.1701 0.0961
24.5800 8.1768 0.0910
24.6000 8.1834 0.0933
24.6200 8.1901 0.0958
24.6400 8.1968 0.0870
24.6600 8.2035 0.0926
24.6800 8.2102 0.0987
24.7000 8.2169 0.0855
24.7200 8.2236 0.0942
24.7400 8.2302 0.0924
24.7600 8.2368 0.0851
24.7800 8.2434 0.1016
24.8000 8.2501 0.0913
24.8200 8.2569 0.0840
24.8400 8.2636 0.0990
24.8600 8.2702 0.0960
24.8800 8.2769 0.0776
24.9000 8.2835 0.0979
24.9200 8.2902 0.0959
24.9400 8.2968 0.0839
24.9600 8.3035 0.1002
24.9800 8.3102 0.0912
25.0000 8.3169 0.0850
25.0200 8.3236 0.1023
25.0400 8.3302 0.0881
25.0600 8.3369 0.0868
25.0800 8.3436 0.0952
25.1000 8.3502 0.0927
25.1200 8.3568 0.0856
25.1400 8.3635 0.0982
25.1600 8.3702 0.0916
25.1800 8.3769 0.0859
25.2000 8.3836 0.0963
25.2200 8.3903 0.0868
25.2400 8.3969 0.0881
25.2600 8.4036 0.0944
25.2800 8.4102 0.0925
25.3000 8.4168 0.0875
25.3200 8.4235 0.0980
25.3400 8.4301 0.0946
25.3600 8.4368 0.0870
25.3800 8.4435 0.0941
25.4000 8.4502 0.0940
25.4200 8.4569 0.0851
25.4400 8.4635 0.0922
25.4600 8.4702 0.0946
25.4800 8.4768 0.0879
25.5000 8.4834 0.0919
25.5200 8.4901 0.0976
25.5400 8.4969 0.0814
25.5600 8.5035 0.0902
25.5800 8.5102 0.0969
25.6000 8.5168 0.0802
25.6200 8.5235 0.0944
25.6400 8.5302 0.1020
25.6600 8.5368 0.0817
25.6800 8.5435 0.0906
25.7000 8.5502 0.1031
25.7200 8.5569 0.0795
25.7400 8.5636 0.0901
25.7600 8.5702 0.1021
25.7800 8.5769 0.0809
25.8000 8.5836 0.0872
25.8200 8.5902 0.1031
25.8400 8.5968 0.0774
25.8600 8.6034 0.0967
25.8800 8.6102 0.0989
25.9000 8.6169 0.0804
25.9200 8.6236 0.0917
25.9400 8.6303 0.1002
25.9600 8.6369 0.0795
25.9800 8.6436 0.0962
26.0000 8.6502 0.0923
26.0200 8.6568 0.0831
26.0400 8.6635 0.0969
26.0600 8.6702 0.0939
26.0800 8.6769 0.0829
26.1000 8.6835 0.0949
26.1200 8.6902 0.0933
26.1400 8.6969 0.0838
26.1600 8.7036 0.0919
26.1800 8.7102 0.0855
26.2000 8.7168 0.0910
26.2200 8.7234 0.0935
26.2400 8.7301 0.0928
26.2600 8.7368 0.0872
26.2800 8.7435 0.0902
26.3000 8.7502 0.0906
26.3200 8.7569 0.0909
26.3400 8.7635 0.0900
26.3600 8.7701 0.0946
26.3800 8.7767 0.0924
26.4000 8.7834 0.0880
26.4200 8.7901 0.0928
26.4400 8.7969 0.0939
26.4600 8.8036 0.0841
26.4800 8.8102 0.0942
26.5000 8.8169 0.0890
26.5200 8.8236 0.0890
26.5400 8.8303 0.0980
26.5600 8.8369 0.0877
26.5800 8.8435 0.0887
26.6000 8.8502 0.0952
26.6200 8.8569 0.0889
26.6400 8.8636 0.0898
26.6600 8.8703 0.0963
26.6800 8.8770 0.0868
26.7000 8.8836 0.0884
26.7200 8.8902 0.0941
26.7400 8.8968 0.0905
26.7600 8.9034 0.0884
26.7800 8.9101 0.0960
26.8000 8.9168 0.0904
26.8200 8.9235 0.0901
26.8400 8.9302 0.0900
26.8600 8.9369 0.0927
26.8800 8.9435 0.0925
26.9000 8.9501 0.0920
26.9200 8.9568 0.0911
26.9400 8.9634 0.0921
26.9600 8.9701 0.0931
26.9800 8.9769 0.0908
27.0000 8.9835 0.0914
27.0200 8.9902 0.0918
27.0400 8.9969 0.1005
27.0600 9.0036 0.0902
27.0800 9.0102 0.0876
27.1000 9.0169 0.0990
27.1200 9.0235 0.0888
27.1400 9.0302 0.0867
27.1600 9.0369 0.1001
27.1800 9.0436 0.0875
27.2000 9.0503 0.0921
27.2200 9.0569 0.0986
27.2400 9.0636 0.0878
27.2600 9.0702 0.0928
27.2800 9.0768 0.0977
27.3000 9.0834 0.0848
27.3200 9.0901 0.0962
27.3400 9.0969 0.0951
27.3600 9.1036 0.0891
27.3800 9.1103 0.0966
27.4000 9.1169 0.0945
27.4200 9.1236 0.0835
27.4400 9.1302 0.0993
27.4600 9.1368 0.0941
27.4800 9.1434 0.0877
27.5000 9.1501 0.0983
27.5200 9.1569 0.0886
27.5400 9.1635 0.0897
27.5600 9.1702 0.1005
27.5800 9.1768 0.0923
27.6000 9.1835 0.0871
27.6200 9.1902 0.0974
27.6400 9.1968 0.0898
27.6600 9.2034 0.0907
27.6800 9.2101 0.0968
27.7000 9.2168 0.0936
27.7200 9.2235 0.0931
27.7400 9.2302 0.0925
27.7600 9.2369 0.0944
27.7800 9.2436 0.0939
27.8000 9.2502 0.0885
27.8200 9.2568 0.0942
27.8400 9.2635 0.0904
27.8600 9.2701 0.0954
27.8800 9.2769 0.0922
27.9000 9.2836 0.0905
27.9200 9.2903 0.0938
27.9400 9.2969 0.0931
27.9600 9.3036 0.0904
27.9800 9.3102 0.0906
28.0000 9.3168 0.0975
28.0200 9.3235 0.0923
28.0400 9.3301 0.0897
28.0600 9.3369 0.0966
28.0800 9.3436 0.0848
28.1000 9.3502 0.0924
28.1200 9.3569 0.0992
28.1400 9.3636 0.0872
28.1600 9.3702 0.0991
28.1800 9.3768 0.0953
28.2000 9.3834 0.0918
28.2200 9.3901 0.0940
28.2400 9.3968 0.0969
28.2600 9.4035 0.0933
28.2800 9.4102 0.0935
28.3000 9.4169 0.0911
28.3200 9.4236 0.0915
28.3400 9.4302 0.0918
28.3600 9.4368 0.0962
28.3800 9.4434 0.0915
28.4000 9.4501 0.0926
28.4200 9.4568 0.0914
28.4400 9.4635 0.0914
28.4600 9.4702 0.0934
28.4800 9.4769 0.0914
28.5000 9.4835 0.0927
28.5200 9.4902 0.0906
28.5400 9.4968 0.0928
28.5600 9.5035 0.0942
28.5800 9.5101 0.0934
28.6000 9.5169 0.0921
28.6200 9.5236 0.0955
28.6400 9.5302 0.0949
28.6600 9.5369 0.0931
28.6800 9.5436 0.0926
28.7000 9.5503 0.0888
28.7200 9.5569 0.0961
28.7400 9.5635 0.0983
28.7600 9.5701 0.0867
28.7800 9.5768 0.0973
28.8000 9.5836 0.0960
28.8200 9.5902 0.0896
28.8400 9.5969 0.0916
28.8600 9.6036 0.0960
28.8800 9.6102 0.0895
28.9000 9.6168 0.0911
28.9200 9.6234 0.1000
28.9400 9.6301 0.0869
28.9600 9.6368 0.0945
28.9800 9.6435 0.1002
29.0000 9.6502 0.0849
29.0200 9.6569 0.0980
29.0400 9.6636 0.1014
29.0600 9.6702 0.0818
29.0800 9.6768 0.0991
29.1000 9.6834 0.0954
29.1200 9.6901 0.0877
29.1400 9.6968 0.0979
29.1600 9.7035 0.0955
29.1800 9.7102 0.0859
29.2000 9.7168 0.1018
29.2200 9.7235 0.0921
29.2400 9.7302 0.0905
29.2600 9.7369 0.1002
29.2800 9.7435 0.0888
29.3000 9.7501 0.0910
29.3200 9.7568 0.1009
29.3400 9.7635 0.0894
29.3600 9.7702 0.0918
29.3800 9.7769 0.0992
29.4000 9.7836 0.0879
29.4200 9.7903 0.0915
29.4400 9.7969 0.1030
29.4600 9.8035 0.0912
29.4800 9.8101 0.0910
29.5000 9.8168 0.1032
29.5200 9.8236 0.0896
29.5400 9.8303 0.0907
29.5600 9.8369 0.0960
29.5800 9.8436 0.0968
29.6000 9.8503 0.0855
29.6200 9.8569 0.0965
29.6400 9.8635 0.0967
29.6600 9.8701 0.0890
29.6800 9.8768 0.0928
29.7000 9.8835 0.0963
29.7200 9.8902 0.0905
29.7400 9.8969 0.0994
29.7600 9.9036 0.0928
29.7800 9.9102 0.0857
29.8000 9.9168 0.0971
29.8200 9.9234 0.0968
29.8400 9.9301 0.0880
29.8600 9.9368 0.0956
29.8800 9.9435 0.1000
29.9000 9.9502 0.0835
29.9200 9.9569 0.0960
29.9400 9.9636 0.0947
29.9600 9.9702 0.0847
29.9800 9.9769 0.0978
30.0000 9.9835 0.0957
30.0200 9.9901 0.0897
30.0400 9.9969 0.0980
30.0600 10.0036 0.0905
30.0800 10.0103 0.0912
30.1000 10.0169 0.0971
30.1200 10.0236 0.0948
30.1400 10.0302 0.0856
30.1600 10.0369 0.0983
30.1800 10.0435 0.0937
30.2000 10.0501 0.0897
30.2200 10.0568 0.1009
30.2400 10.0635 0.0926
30.2600 10.0702 0.0881
30.2800 10.0769 0.0977
30.3000 10.0836 0.0898
30.3200 10.0903 0.0895
30.3400 10.0969 0.0969
30.3600 10.1035 0.0918
30.3800 10.1101 0.0894
30.4000 10.1168 0.0989
30.4200 10.1235 0.0906
30.4400 10.1302 0.0912
30.4600 10.1369 0.0951
30.4800 10.1436 0.0893
30.5000 10.1502 0.0886
30.5200 10.1568 0.0941
30.5400 10.1634 0.0968
30.5600 10.1701 0.0905
30.5800 10.1768 0.0928
30.6000 10.1835 0.0935
30.6200 10.1902 0.0933
30.6400 10.1969 0.0910
30.6600 10.2035 0.0944
30.6800 10.2102 0.0917
30.7000 10.2169 0.0933
30.7200 10.2235 0.0944
30.7400 10.2301 0.0894
30.7600 10.2368 0.0915
30.7800 10.2435 0.0983
30.8000 10.2502 0.0877
30.8200 10.2569 0.0899
30.8400 10.2636 0.1016
30.8600 10.2703 0.0875
30.8800 10.2769 0.0862
30.9000 10.2835 0.1019
30.9200 10.2901 0.0895
30.9400 10.2968 0.0909
30.9600 10.3036 0.1052
30.9800 10.3103 0.0879
31.0000 10.3169 0.0931
31.0200 10.3236 0.1017
31.0400 10.3302 0.0837
31.0600 10.3369 0.0941
31.0800 10.3435 0.1038
31.1000 10.3501 0.0855
31.1200 10.3568 0.0946
31.1400 10.3635 0.0960
31.1600 10.3702 0.0892
31.1800 10.3768 0.0973
31.2000 10.3835 0.0974
31.2200 10.3902 0.0895
31.2400 10.3968 0.0968
31.2600 10.4034 0.0948
31.2800 10.4101 0.0905
31.3000 10.4168 0.0962
31.3200 10.4235 0.0992
31.3400 10.4302 0.0911
31.3600 10.4369 0.0917
31.3800 10.4436 0.0959
31.4000 10.4503 0.0932
31.4200 10.4569 0.0921
31.4400 10.4635 0.0932
31.4600 10.4701 0.1030
31.4800 10.4768 0.0925
31.5000 10.4835 0.0933
31.5200 10.4902 0.0996
31.5400 10.4969 0.0899
31.5600 10.5036 0.0955
31.5800 10.5103 0.0985
31.6000 10.5169 0.0864
31.6200 10.5235 0.0968
31.6400 10.5301 0.0960
31.6600 10.5368 0.0938
31.6800 10.5435 0.0957
31.7000 10.5502 0.0950
31.7200 10.5569 0.0908
31.7400 10.5636 0.0968
31.7600 10.5703 0.0926
31.7800 10.5769 0.0878
31.8000 10.5835 0.0968
31.8200 10.5901 0.0966
31.8400 10.5968 0.0918
31.8600 10.6035 0.0948
31.8800 10.6102 0.0967
31.9000 10.6169 0.0896
31.9200 10.6236 0.0969
31.9400 10.6303 0.0952
31.9600 10.6369 0.0926
31.9800 10.6435 0.0955
32.0000 10.6501 0.0982
32.0200 10.6568 0.0889
32.0400 10.6635 0.0981
32.0600 10.6702 0.0930
32.0800 10.6769 0.0967
32.1000 10.6836 0.0967
32.1200 10.6902 0.0936
32.1400 10.6969 0.0942
32.1600 10.7035 0.0982
32.1800 10.7101 0.0908
32.2000 10.7168 0.0946
32.2200 10.7235 0.0961
32.2400 10.7302 0.0948
32.2600 10.7369 0.0930
32.2800 10.7436 0.0963
32.3000 10.7503 0.0910
32.3200 10.7569 0.0938
32.3400 10.7635 0.0985
32.3600 10.7701 0.0915
32.3800 10.7768 0.0938
32.4000 10.7835 0.0923
32.4200 10.7902 0.0932
32.4400 10.7969 0.0949
32.4600 10.8036 0.0947
32.4800 10.8103 0.0947
32.5000 10.8169 0.0952
32.5200 10.8235 0.0919
32.5400 10.8301 0.0965
32.5600 10.8368 0.0914
32.5800 10.8435 0.0957
32.6000 10.8502 0.0963
32.6200 10.8569 0.0929
32.6400 10.8636 0.0929
32.6600 10.8702 0.0972
32.6800 10.8769 0.0922
32.7000 10.8835 0.0939
32.7200 10.8901 0.1029
32.7400 10.8968 0.0895
32.7600 10.9035 0.0918
32.7800 10.9102 0.1017
32.8000 10.9168 0.0896
32.8200 10.9235 0.0939
32.8400 10.9302 0.1016
32.8600 10.9369 0.0836
32.8800 10.9435 0.0984
32.9000 10.9501 0.0991
32.9200 10.9568 0.0909
32.9400 10.9635 0.0963
32.9600 10.9702 0.0953
32.9800 10.9769 0.0882
33.0000 10.9836 0.1007
33.0200 10.9903 0.0921
33.0400 10.9969 0.0864
33.0600 11.0035 0.1016
33.0800 11.0101 0.0932
33.1000 11.0168 0.0890
33.1200 11.0235 0.0977
33.1400 11.0302 0.0908
33.1600 11.0369 0.0931
33.1800 11.0436 0.0917
33.2000 11.0502 0.0935
33.2200 11.0569 0.0949
33.2400 11.0635 0.0928
33.2600 11.0701 0.0898
33.2800 11.0768 0.0971
33.3000 11.0835 0.0936
33.3200 11.0902 0.0952
33.3400 11.0969 0.0992
33.3600 11.1036 0.0868
33.3800 11.1103 0.0967
33.4000 11.1169 0.1006
33.4200 11.1235 0.0854
33.4400 11.1301 0.1010
33.4600 11.1367 0.1008
33.4800 11.1434 0.0796
33.5000 11.1502 0.0995
33.5200 11.1569 0.0931
33.5400 11.1636 0.0885
33.5600 11.1703 0.0990
33.5800 11.1769 0.0890
33.6000 11.1835 0.0869
33.6200 11.1901 0.1058
33.6400 11.1968 0.0900
33.6600 11.2035 0.0864
33.6800 11.2102 0.1019
33.7000 11.2169 0.0876
33.7200 11.2236 0.0910
33.7400 11.2303 0.0972
33.7600 11.2369 0.0860
33.7800 11.2435 0.0938
33.8000 11.2501 0.0941
33.8200 11.2568 0.0935
33.8400 11.2635 0.0956
33.8600 11.2702 0.0903
33.8800 11.2769 0.0897
33.9000 11.2836 0.0916
33.9200 11.2903 0.0967
33.9400 11.2969 0.0892
33.9600 11.3035 0.0920
33.9800 11.3101 0.0908
34.0000 11.3168 0.0963
34.0200 11.3235 0.0891
34.0400 11.3302 0.0929
34.0600 11.3369 0.0982
34.0800 11.3436 0.0870
34.1000 11.3502 0.0962
34.1200 11.3569 0.0969
34.1400 11.3635 0.0836
34.1600 11.3701 0.0963
34.1800 11.3767 0.0963
34.2000 11.3834 0.0829
34.2200 11.3902 0.0989
34.2400 11.3968 0.0979
34.2600 11.4035 0.0869
34.2800 11.4102 0.0957
34.3000 11.4169 0.0936
34.3200 11.4235 0.0834
34.3400 11.4301 0.1026
34.3600 11.4368 0.0899
34.3800 11.4435 0.0847
34.4000 11.4502 0.1022
34.4200 11.4569 0.0861
34.4400 11.4636 0.0864
34.4600 11.4703 0.1050
34.4800 11.4769 0.0849
34.5000 11.4836 0.0874
34.5200 11.4902 0.0984
34.5400 11.4968 0.0913
34.5600 11.5035 0.0879
34.5800 11.5102 0.0962
34.6000 11.5169 0.0882
34.6200 11.5236 0.0897
34.6400 11.5302 0.0948
34.6600 11.5369 0.0951
34.6800 11.5435 0.0900
34.7000 11.5501 0.0926
34.7200 11.5568 0.0963
34.7400 11.5635 0.0918
34.7600 11.5702 0.0877
34.7800 11.5769 0.0963
34.8000 11.5835 0.0918
34.8200 11.5902 0.0893
34.8400 11.5969 0.1033
34.8600 11.6035 0.0840
34.8800 11.6101 0.0915
34.9000 11.6168 0.1013
34.9200 11.6235 0.0842
34.9400 11.6302 0.0872
34.9600 11.6369 0.1030
34.9800 11.6435 0.0821
35.0000 11.6502 0.0925
35.0200 11.6569 0.1003
35.0400 11.6635 0.0853
35.0600 11.6701 0.0933
35.0800 11.6768 0.1013
35.1000 11.6835 0.0821
35.1200 11.6902 0.0934
35.1400 11.6969 0.0962
35.1600 11.7036 0.0799
35.1800 11.7103 0.0938
35.2000 11.7169 0.0976
35.2200 11.7235 0.0834
35.2400 11.7301 0.0934
35.2600 11.7368 0.0968
35.2800 11.7435 0.0840
35.3000 11.7502 0.0944
35.3200 11.7569 0.0957
35.3400 11.7636 0.0888
35.3600 11.7702 0.0930
35.3800 11.7769 0.0949
35.4000 11.7835 0.0884
35.4200 11.7901 0.0947
35.4400 11.7968 0.0952
35.4600 11.8035 0.0881
35.4800 11.8102 0.0916
35.5000 11.8168 0.0968
35.5200 11.8235 0.0843
35.5400 11.8302 0.0938
35.5600 11.8369 0.0953
35.5800 11.8435 0.0866
35.6000 11.8501 0.0930
35.6200 11.8568 0.0957
35.6400 11.8635 0.0870
35.6600 11.8702 0.0916
35.6800 11.8769 0.0991
35.7000 11.8835 0.0836
35.7200 11.8902 0.0923
35.7400 11.8969 0.1022
35.7600 11.9035 0.0809
35.7800 11.9101 0.0911
35.8000 11.9168 0.1009
35.8200 11.9235 0.0849
35.8400 11.9302 0.0905
35.8600 11.9369 0.0949
35.8800 11.9436 0.0888
35.9000 11.9503 0.0873
35.9200 11.9569 0.1004
35.9400 11.9636 0.0857
35.9600 11.9702 0.0961
35.9800 11.9768 0.1008
36.0000 11.9835 0.0873
36.0200 11.9902 0.0894
36.0400 11.9969 0.0996
36.0600 12.0035 0.0870
36.0800 12.0102 0.0925
36.1000 12.0169 0.0947
36.1200 12.0236 0.0876
36.1400 12.0302 0.0893
36.1600 12.0368 0.1012
36.1800 12.0435 0.0889
36.2000 12.0502 0.0915
36.2200 12.0569 0.0986
36.2400 12.0636 0.0823
36.2600 12.0703 0.0922
36.2800 12.0769 0.1009
36.3000 12.0835 0.0852
36.3200 12.0901 0.0902
36.3400 12.0968 0.1026
36.3600 12.1034 0.0850
36.3800 12.1101 0.0938
36.4000 12.1168 0.0985
36.4200 12.1235 0.0823
36.4400 12.1302 0.0926
36.4600 12.1369 0.0988
36.4800 12.1435 0.0814
36.5000 12.1501 0.0978
36.5200 12.1568 0.0955
36.5400 12.1635 0.0830
36.5600 12.1702 0.0936
36.5800 12.1769 0.0934
36.6000 12.1836 0.0869
36.6200 12.1903 0.0983
36.6400 12.1970 0.0892
36.6600 12.2036 0.0869
36.6800 12.2102 0.0958
36.7000 12.2168 0.0903
36.7200 12.2235 0.0913
36.7400 12.2302 0.0928
36.7600 12.2369 0.0878
36.7800 12.2436 0.0913
36.8000 12.2503 0.0928
36.8200 12.2569 0.0889
36.8400 12.2636 0.0953
36.8600 12.2702 0.0850
36.8800 12.2768 0.0915
36.9000 12.2835 0.0937
36.9200 12.2901 0.0877
36.9400 12.2968 0.0937
36.9600 12.3035 0.0992
36.9800 12.3102 0.0826
37.0000 12.3169 0.0907
37.0200 12.3235 0.0945
37.0400 12.3301 0.0870
37.0600 12.3367 0.0921
37.0800 12.3434 0.0958
37.1000 12.3501 0.0854
37.1200 12.3568 0.0883
37.1400 12.3635 0.0970
37.1600 12.3702 0.0898
37.1800 12.3769 0.0839
37.2000 12.3835 0.0936
37.2200 12.3901 0.0935
37.2400 12.3968 0.0899
37.2600 12.4034 0.0956
37.2800 12.4102 0.0876
37.3000 12.4169 0.0876
37.3200 12.4236 0.0924
37.3400 12.4303 0.0876
37.3600 12.4369 0.0867
37.3800 12.4436 0.0951
37.4000 12.4502 0.0859
37.4200 12.4569 0.0895
37.4400 12.4635 0.0949
37.4600 12.4702 0.0896
37.4800 12.4769 0.0882
37.5000 12.4836 0.0933
37.5200 12.4902 0.0872
37.5400 12.4969 0.0919
37.5600 12.5036 0.0904
37.5800 12.5102 0.0882
37.6000 12.5168 0.0919
37.6200 12.5234 0.0872
37.6400 12.5301 0.0909
37.6600 12.5369 0.0926
37.6800 12.5435 0.0926
37.7000 12.5502 0.0891
37.7200 12.5569 0.0892
37.7400 12.5636 0.0912
37.7600 12.5702 0.0893
37.7800 12.5768 0.0906
37.8000 12.5834 0.0962
37.8200 12.5901 0.0867
37.8400 12.5969 0.0891
37.8600 12.6035 0.0911
37.8800 12.6102 0.0929
37.9000 12.6169 0.0867
37.9200 12.6236 0.0906
37.9400 12.6302 0.0904
37.9600 12.6368 0.0885
37.9800 12.6435 0.0892
38.0000 12.6502 0.0968
38.0200 12.6568 0.0852
38.0400 12.6636 0.0880
38.0600 12.6703 0.0952
38.0800 12.6770 0.0859
38.1000 12.6836 0.0913
38.1200 12.6902 0.0969
38.1400 12.6968 0.0874
38.1600 12.7035 0.0919
38.1800 12.7102 0.1010
38.2000 12.7169 0.0850
38.2200 12.7236 0.0906
38.2400 12.7303 0.0968
38.2600 12.7369 0.0882
38.2800 12.7436 0.0916
38.3000 12.7502 0.1000
38.3200 12.7568 0.0835
38.3400 12.7635 0.0954
38.3600 12.7702 0.0997
38.3800 12.7769 0.0862
38.4000 12.7836 0.0917
38.4200 12.7902 0.1013
38.4400 12.7969 0.0819
38.4600 12.8036 0.0930
38.4800 12.8102 0.1017
38.5000 12.8167 0.0857
38.5200 12.8234 0.0916
38.5400 12.8301 0.1029
38.5600 12.8368 0.0846
38.5800 12.8435 0.0915
38.6000 12.8502 0.1031
38.6200 12.8569 0.0836
38.6400 12.8636 0.0957
38.6600 12.8702 0.1011
38.6800 12.8768 0.0854
38.7000 12.8835 0.0932
38.7200 12.8902 0.0962
38.7400 12.8969 0.0864
38.7600 12.9036 0.0956
38.7800 12.9103 0.0967
38.8000 12.9169 0.0883
38.8200 12.9236 0.0929
38.8400 12.9302 0.0962
38.8600 12.9368 0.0867
38.8800 12.9435 0.1019
38.9000 12.9502 0.0915
38.9200 12.9569 0.0857
38.9400 12.9636 0.0944
38.9600 12.9702 0.0949
38.9800 12.9769 0.0905
39.0000 12.9836 0.0918
39.0200 12.9902 0.0927
39.0400 12.9968 0.0901
39.0600 13.0034 0.0951
39.0800 13.0101 0.0909
39.1000 13.0168 0.0876
39.1200 13.0235 0.0920
39.1400 13.0302 0.0915
39.1600 13.0369 0.0917
39.1800 13.0436 0.0963
39.2000 13.0502 0.0880
39.2200 13.0568 0.0952
39.2400 13.0634 0.0904
39.2600 13.0701 0.0930
39.2800 13.0768 0.0874
39.3000 13.0835 0.0867
39.3200 13.0902 0.0972
39.3400 13.0969 0.0893
39.3600 13.1035 0.0888
39.3800 13.1102 0.0986
39.4000 13.1168 0.0859
39.4200 13.1235 0.0890
39.4400 13.1302 0.0933
39.4600 13.1369 0.0870
39.4800 13.1436 0.0864
39.5000 13.1502 0.1002
39.5200 13.1569 0.0869
39.5400 13.1636 0.0915
39.5600 13.1702 0.0963
39.5800 13.1768 0.0822
39.6000 13.1835 0.0971
39.6200 13.1902 0.0978
39.6400 13.1969 0.0853
39.6600 13.2036 0.0945
39.6800 13.2103 0.0959
39.7000 13.2170 0.0805
39.7200 13.2236 0.0949
39.7400 13.2302 0.0966
39.7600 13.2368 0.0853
39.7800 13.2434 0.0939
39.8000 13.2501 0.0917
39.8200 13.2568 0.0873
39.8400 13.2635 0.0986
39.8600 13.2702 0.0880
39.8800 13.2769 0.0904
39.9000 13.2836 0.0938
39.9200 13.2902 0.0863
39.9400 13.2968 0.0899
39.9600 13.3034 0.0949
39.9800 13.3101 0.0876
40.0000 13.3168 0.0910
40.0200 13.3235 0.0888
40.0400 13.3302 0.0926
40.0600 13.3369 0.0905
40.0800 13.3436 0.0872
40.1000 13.3502 0.0930
40.1200 13.3568 0.0904
40.1400 13.3635 0.0897
40.1600 13.3701 0.0939
40.1800 13.3768 0.0911
40.2000 13.3835 0.0855
40.2200 13.3902 0.0994
40.2400 13.3969 0.0875
40.2600 13.4036 0.0853
40.2800 13.4102 0.1003
40.3000 13.4168 0.0869
40.3200 13.4234 0.0849
40.3400 13.4301 0.1011
40.3600 13.4369 0.0832
40.3800 13.4436 0.0868
40.4000 13.4503 0.0974
40.4200 13.4569 0.0874
40.4400 13.4636 0.0893
40.4600 13.4702 0.0983
40.4800 13.4768 0.0840
40.5000 13.4834 0.0884
40.5200 13.4901 0.1037
40.5400 13.4969 0.0849
40.5600 13.5035 0.0901
40.5800 13.5102 0.0980
40.6000 13.5169 0.0847
40.6200 13.5236 0.0876
40.6400 13.5302 0.0984
40.6600 13.5368 0.0862
40.6800 13.5434 0.0921
40.7000 13.5501 0.0938
40.7200 13.5568 0.0856
40.7400 13.5635 0.0945
40.7600 13.5702 0.0951
40.7800 13.5769 0.0811
40.8000 13.5835 0.0996
40.8200 13.5901 0.0882
40.8400 13.5967 0.0858
40.8600 13.6034 0.0979
40.8800 13.6101 0.0887
40.9000 13.6169 0.0866
40.9200 13.6236 0.0959
40.9400 13.6303 0.0855
40.9600 13.6369 0.0906
40.9800 13.6436 0.0961
41.0000 13.6503 0.0851
41.0200 13.6569 0.0922
41.0400 13.6635 0.0967
41.0600 13.6702 0.0862
41.0800 13.6769 0.0893
41.1000 13.6836 0.0903
41.1200 13.6902 0.0872
41.1400 13.6969 0.0958
41.1600 13.7036 0.0840
41.1800 13.7102 0.0890
41.2000 13.7168 0.0947
41.2200 13.7234 0.0858
41.2400 13.7301 0.0899
41.2600 13.7368 0.0925
41.2800 13.7435 0.0859
41.3000 13.7502 0.0918
41.3200 13.7569 0.0942
41.3400 13.7636 0.0879
41.3600 13.7702 0.0921
41.3800 13.7768 0.0978
41.4000 13.7834 0.0844
41.4200 13.7901 0.0927
41.4400 13.7969 0.0948
41.4600 13.8036 0.0880
41.4800 13.8102 0.0914
41.5000 13.8169 0.0936
41.5200 13.8236 0.0885
41.5400 13.8302 0.0914
41.5600 13.8368 0.0941
41.5800 13.8435 0.0901
41.6000 13.8502 0.0932
41.6200 13.8568 0.0909
41.6400 13.8635 0.0909
41.6600 13.8702 0.0907
41.6800 13.8769 0.0961
41.7000 13.8836 0.0887
41.7200 13.8903 0.0839
41.7400 13.8968 0.0924
41.7600 13.9034 0.0950
41.7800 13.9101 0.0843
41.8000 13.9168 0.0915
41.8200 13.9236 0.0907
41.8400 13.9303 0.0897
41.8600 13.9369 0.0921
41.8800 13.9436 0.0937
41.9000 13.9502 0.0917
41.9200 13.9568 0.0928
41.9400 13.9634 0.0916
41.9600 13.9701 0.0860
41.9800 13.9768 0.0944
42.0000 13.9836 0.0878
42.0200 13.9902 0.0877
42.0400 13.9969 0.0975
42.0600 14.0035 0.0911
42.0800 14.0102 0.0864
42.1000 14.0168 0.0973
42.1200 14.0234 0.0873
42.1400 14.0301 0.0925
42.1600 14.0368 0.0977
42.1800 14.0435 0.0857
42.2000 14.0502 0.0901
42.2200 14.0569 0.0988
42.2400 14.0636 0.0881
42.2600 14.0702 0.0957
42.2800 14.0768 0.0915
42.3000 14.0835 0.0885
42.3200 14.0901 0.0994
42.3400 14.0969 0.0891
42.3600 14.1036 0.0893
42.3800 14.1103 0.1006
42.4000 14.1170 0.0892
42.4200 14.1236 0.0894
42.4400 14.1302 0.0998
42.4600 14.1368 0.0885
42.4800 14.1435 0.0911
42.5000 14.1501 0.1040
42.5200 14.1569 0.0841
42.5400 14.1636 0.0941
42.5600 14.1703 0.1039
42.5800 14.1769 0.0816
42.6000 14.1836 0.0969
42.6200 14.1902 0.1033
42.6400 14.1969 0.0903
42.6600 14.2035 0.0937
42.6800 14.2101 0.1014
42.7000 14.2168 0.0893
42.7200 14.2235 0.0999
42.7400 14.2302 0.0920
42.7600 14.2369 0.0881
42.7800 14.2436 0.0974
42.8000 14.2502 0.0895
42.8200 14.2568 0.0894
42.8400 14.2634 0.1014
42.8600 14.2700 0.0898
42.8800 14.2768 0.0909
42.9000 14.2835 0.0974
42.9200 14.2902 0.0870
42.9400 14.2969 0.0938
42.9600 14.3035 0.1005
42.9800 14.3102 0.0837
43.0000 14.3169 0.0952
43.0200 14.3235 0.0988
43.0400 14.3301 0.0881
43.0600 14.3368 0.0967
43.0800 14.3435 0.0903
43.1000 14.3502 0.0937
43.1200 14.3569 0.0985
43.1400 14.3636 0.0911
43.1600 14.3703 0.0881
43.1800 14.3769 0.0980
43.2000 14.3835 0.0863
43.2200 14.3902 0.0956
43.2400 14.3969 0.0976
43.2600 14.4036 0.0868
43.2800 14.4102 0.0962
43.3000 14.4169 0.0931
43.3200 14.4236 0.0901
43.3400 14.4302 0.1024
43.3600 14.4368 0.0890
43.3800 14.4434 0.0910
43.4000 14.4501 0.1007
43.4200 14.4568 0.0884
43.4400 14.4635 0.0936
43.4600 14.4702 0.1021
43.4800 14.4769 0.0922
43.5000 14.4836 0.0947
43.5200 14.4902 0.0960
43.5400 14.4968 0.0897
43.5600 14.5034 0.0955
43.5800 14.5101 0.0978
43.6000 14.5168 0.0930
43.6200 14.5235 0.0960
43.6400 14.5302 0.0965
43.6600 14.5369 0.0873
43.6800 14.5435 0.0962
43.7000 14.5502 0.0953
43.7200 14.5569 0.0903
43.7400 14.5635 0.0951
43.7600 14.5701 0.1021
43.7800 14.5768 0.0914
43.8000 14.5835 0.0893
43.8200 14.5902 0.0983
43.8400 14.5969 0.0911
43.8600 14.6036 0.0903
43.8800 14.6102 0.1005
43.9000 14.6169 0.0913
43.9200 14.6235 0.0916
43.9400 14.6301 0.0997
43.9600 14.6368 0.0940
43.9800 14.6436 0.0898
44.0000 14.6503 0.0980
44.0200 14.6569 0.0942
44.0400 14.6636 0.0906
44.0600 14.6703 0.0980
44.0800 14.6769 0.0909
44.1000 14.6835 0.0972
44.1200 14.6901 0.0942
44.1400 14.6968 0.0916
44.1600 14.7035 0.0929
44.1800 14.7102 0.0980
44.2000 14.7169 0.0892
44.2200 14.7235 0.0952
44.2400 14.7302 0.0985
44.2600 14.7368 0.0885
44.2800 14.7434 0.0947
44.3000 14.7501 0.1028
44.3200 14.7568 0.0838
44.3400 14.7635 0.0930
44.3600 14.7702 0.1010
44.3800 14.7769 0.0851
44.4000 14.7836 0.0915
44.4200 14.7902 0.0992
44.4400 14.7968 0.0861
44.4600 14.8034 0.0907
44.4800 14.8101 0.0999
44.5000 14.8168 0.0823
44.5200 14.8236 0.0972
44.5400 14.8303 0.0956
44.5600 14.8369 0.0835
44.5800 14.8436 0.0996
44.6000 14.8502 0.0911
44.6200 14.8569 0.0864
44.6400 14.8635 0.1013
44.6600 14.8701 0.0881
44.6800 14.8768 0.0923
44.7000 14.8835 0.1017
44.7200 14.8902 0.0823
44.7400 14.8969 0.0898
44.7600 14.9036 0.1096
44.7800 14.9103 0.0805
44.8000 14.9169 0.0850
44.8200 14.9235 0.1046
44.8400 14.9301 0.0890
44.8600 14.9368 0.0892
44.8800 14.9435 0.1041
44.9000 14.9502 0.0836
44.9200 14.9569 0.0937
44.9400 14.9636 0.1056
44.9600 14.9702 0.0828
44.9800 14.9769 0.0885
45.0000 14.9834 0.0977
45.0200 14.9901 0.0895
45.0400 14.9968 0.0937
45.0600 15.0035 0.0982
45.0800 15.0102 0.0851
45.1000 15.0169 0.0970
45.1200 15.0235 0.0945
45.1400 15.0302 0.0917
45.1600 15.0369 0.0981
45.1800 15.0435 0.0920
45.2000 15.0501 0.0923
45.2200 15.0568 0.0980
45.2400 15.0635 0.0876
45.2600 15.0702 0.0993
45.2800 15.0769 0.0982
45.3000 15.0836 0.0879
45.3200 15.0903 0.0994
45.3400 15.0969 0.0933
45.3600 15.1035 0.0878
45.3800 15.1101 0.1038
45.4000 15.1168 0.0971
45.4200 15.1235 0.0890
45.4400 15.1303 0.0997
45.4600 15.1369 0.0906
45.4800 15.1436 0.0975
45.5000 15.1502 0.1007
45.5200 15.1569 0.0864
45.5400 15.1635 0.0998
45.5600 15.1701 0.1056
45.5800 15.1768 0.0822
45.6000 15.1835 0.1030
45.6200 15.1902 0.1024
45.6400 15.1968 0.0878
45.6600 15.2035 0.1021
45.6800 15.2102 0.1028
45.7000 15.2168 0.0833
45.7200 15.2235 0.1060
45.7400 15.2301 0.0994
45.7600 15.2368 0.0888
45.7800 15.2435 0.1034
45.8000 15.2502 0.0971
45.8200 15.2569 0.0850
45.8400 15.2636 0.1061
45.8600 15.2703 0.0982
45.8800 15.2769 0.0854
45.9000 15.2835 0.1061
45.9200 15.2901 0.0948
45.9400 15.2968 0.0912
45.9600 15.3035 0.1048
45.9800 15.3102 0.0903
46.0000 15.3169 0.0925
46.0200 15.3236 0.1034
46.0400 15.3303 0.0889
46.0600 15.3369 0.0999
46.0800 15.3435 0.0973
46.1000 15.3501 0.0956
46.1200 15.3568 0.0979
46.1400 15.3635 0.0937
46.1600 15.3702 0.0966
46.1800 15.3769 0.1011
46.2000 15.3835 0.0910
46.2200 15.3902 0.1001
46.2400 15.3969 0.1017
46.2600 15.4035 0.0932
46.2800 15.4102 0.0995
46.3000 15.4168 0.1024
46.3200 15.4235 0.0924
46.3400 15.4302 0.1030
46.3600 15.4369 0.0987
46.3800 15.4436 0.0949
46.4000 15.4503 0.1012
46.4200 15.4569 0.0967
46.4400 15.4635 0.0992
46.4600 15.4701 0.0972
46.4800 15.4767 0.0921
46.5000 15.4835 0.1022
46.5200 15.4902 0.1027
46.5400 15.4969 0.0825
46.5600 15.5035 0.1121
46.5800 15.5102 0.0994
46.6000 15.5169 0.0795
46.6200 15.5235 0.1167
46.6400 15.5301 0.0922
46.6600 15.5368 0.0810
46.6800 15.5435 0.1191
46.7000 15.5502 0.0882
46.7200 15.5569 0.0856
46.7400 15.5636 0.1180
46.7600 15.5703 0.0869
46.7800 15.5769 0.0882
46.8000 15.5835 0.1201
46.8200 15.5902 0.0855
46.8400 15.5968 0.0956
46.8600 15.6035 0.1125
46.8800 15.6102 0.0772
46.9000 15.6169 0.1072
46.9200 15.6236 0.1048
46.9400 15.6303 0.0787
46.9600 15.6369 0.1088
46.9800 15.6435 0.1008
47.0000 15.6501 0.0837
47.0200 15.6568 0.1152
47.0400 15.6635 0.0954
47.0600 15.6702 0.0849
47.0800 15.6769 0.1126
47.1000 15.6836 0.0926
47.1200 15.6902 0.0914
47.1400 15.6969 0.1154
47.1600 15.7035 0.0763
47.1800 15.7101 0.1052
47.2000 15.7168 0.1110
47.2200 15.7235 0.0741
47.2400 15.7302 0.1068
47.2600 15.7368 0.1052
47.2800 15.7435 0.0781
47.3000 15.7502 0.1099
47.3200 15.7569 0.0972
47.3400 15.7635 0.0797
47.3600 15.7701 0.1147
47.3800 15.7768 0.0923
47.4000 15.7835 0.0852
47.4200 15.7902 0.1164
47.4400 15.7969 0.0852
47.4600 15.8036 0.0916
47.4800 15.8103 0.1136
47.5000 15.8169 0.0768
47.5200 15.8235 0.0988
47.5400 15.8301 0.1072
47.5600 15.8368 0.0831
47.5800 15.8435 0.1029
47.6000 15.8502 0.1003
47.6200 15.8569 0.0824
47.6400 15.8636 0.1046
47.6600 15.8702 0.0955
47.6800 15.8769 0.0825
47.7000 15.8835 0.1121
47.7200 15.8901 0.0936
47.7400 15.8968 0.0818
47.7600 15.9035 0.1137
47.7800 15.9102 0.0910
47.8000 15.9169 0.0925
47.8200 15.9236 0.1105
47.8400 15.9302 0.0881
47.8600 15.9369 0.0946
47.8800 15.9435 0.1014
47.9000 15.9501 0.0919
47.9200 15.9567 0.0991
47.9400 15.9634 0.1039
47.9600 15.9702 0.0846
47.9800 15.9769 0.1029
48.0000 15.9836 0.1033
48.0200 15.9902 0.0924
48.0400 15.9969 0.0998
48.0600 16.0035 0.1011
48.0800 16.0101 0.0912
48.1000 16.0168 0.1014
48.1200 16.0235 0.0957
48.1400 16.0302 0.1018
48.1600 16.0369 0.0952
48.1800 16.0436 0.0977
48.2000 16.0502 0.1030
48.2200 16.0569 0.0927
48.2400 16.0635 0.0949
48.2600 16.0702 0.1037
48.2800 16.0768 0.0905
48.3000 16.0835 0.0979
48.3200 16.0902 0.1084
48.3400 16.0969 0.0854
48.3600 16.1036 0.1004
48.3800 16.1103 0.1045
48.4000 16.1169 0.0854
48.4200 16.1235 0.1060
48.4400 16.1301 0.1101
48.4600 16.1368 0.0821
48.4800 16.1434 0.1106
48.5000 16.1502 0.1000
48.5200 16.1569 0.0846
48.5400 16.1636 0.1126
48.5600 16.1703 0.1001
48.5800 16.1769 0.0848
48.6000 16.1835 0.1118
48.6200 16.1901 0.0916
48.6400 16.1967 0.0957
48.6600 16.2034 0.1114
48.6800 16.2102 0.0875
48.7000 16.2168 0.0909
48.7200 16.2235 0.1143
48.7400 16.2302 0.0883
48.7600 16.2369 0.0926
48.7800 16.2435 0.1123
48.8000 16.2502 0.0893
48.8200 16.2568 0.1000
48.8400 16.2635 0.1081
48.8600 16.2702 0.0974
48.8800 16.2769 0.0968
48.9000 16.2836 0.1035
48.9200 16.2903 0.0948
48.9400 16.2970 0.0999
48.9600 16.3036 0.0990
48.9800 16.3102 0.0972
49.0000 16.3168 0.1055
49.0200 16.3235 0.0970
49.0400 16.3302 0.0959
49.0600 16.3369 0.1067
49.0800 16.3436 0.0960
49.1000 16.3503 0.1021
49.1200 16.3569 0.0978
49.1400 16.3635 0.1018
49.1600 16.3701 0.0975
49.1800 16.3768 0.0977
49.2000 16.3835 0.1051
49.2200 16.3902 0.0953
49.2400 16.3969 0.0959
49.2600 16.4035 0.1012
49.2800 16.4102 0.1023
49.3000 16.4169 0.0924
49.3200 16.4235 0.1037
49.3400 16.4302 0.1018
49.3600 16.4368 0.0937
49.3800 16.4434 0.1035
49.4000 16.4501 0.1021
49.4200 16.4568 0.0958
49.4400 16.4635 0.1055
49.4600 16.4702 0.0918
49.4800 16.4769 0.0970
49.5000 16.4835 0.1114
49.5200 16.4901 0.0923
49.5400 16.4968 0.0958
49.5600 16.5035 0.1145
49.5800 16.5102 0.0901
49.6000 16.5169 0.0964
49.6200 16.5236 0.1111
49.6400 16.5303 0.0912
49.6600 16.5369 0.0957
49.6800 16.5436 0.1096
49.7000 16.5501 0.0923
49.7200 16.5568 0.1008
49.7400 16.5635 0.1068
49.7600 16.5702 0.0903
49.7800 16.5769 0.1025
49.8000 16.5836 0.1044
49.8200 16.5903 0.0899
49.8400 16.5969 0.1012
49.8600 16.6035 0.1012
49.8800 16.6101 0.0945
49.9000 16.6168 0.1067
49.9200 16.6235 0.0965
49.9400 16.6302 0.0951
49.9600 16.6368 0.1044
49.9800 16.6435 0.1029
50.0000 16.6502 0.0938
50.0200 16.6569 0.1044
50.0400 16.6635 0.0943
50.0600 16.6701 0.0993
50.0800 16.6767 0.1042
50.1000 16.6834 0.0969
50.1200 16.6901 0.0989
50.1400 16.6969 0.0945
50.1600 16.7035 0.0996
50.1800 16.7102 0.1041
50.2000 16.7169 0.0967
50.2200 16.7236 0.0977
50.2400 16.7302 0.1005
50.2600 16.7368 0.0943
50.2800 16.7435 0.1083
50.3000 16.7502 0.0969
50.3200 16.7569 0.0892
50.3400 16.7635 0.1065
50.3600 16.7702 0.1012
50.3800 16.7769 0.0905
50.4000 16.7836 0.1046
50.4200 16.7902 0.0938
50.4400 16.7968 0.0985
50.4600 16.8034 0.1064
50.4800 16.8101 0.0913
50.5000 16.8169 0.0978
50.5200 16.8236 0.1084
50.5400 16.8303 0.0904
50.5600 16.8370 0.0985
50.5800 16.8436 0.1021
50.6000 16.8502 0.0966
50.6200 16.8568 0.1007
50.6400 16.8635 0.0991
50.6600 16.8702 0.0963
50.6800 16.8769 0.1040
50.7000 16.8836 0.0947
50.7200 16.8902 0.0953
50.7400 16.8969 0.1069
50.7600 16.9035 0.0853
50.7800 16.9102 0.0941
50.8000 16.9168 0.1087
50.8200 16.9234 0.0944
50.8400 16.9301 0.0974
50.8600 16.9368 0.1010
50.8800 16.9435 0.0938
50.9000 16.9502 0.1090
50.9200 16.9569 0.0985
50.9400 16.9635 0.0949
50.9600 16.9701 0.1031
50.9800 16.9768 0.0989
51.0000 16.9834 0.1006
51.0200 16.9902 0.1038
51.0400 16.9969 0.0884
51.0600 17.0036 0.1036
51.0800 17.0103 0.1034
51.1000 17.0170 0.0853
51.1200 17.0236 0.1075
51.1400 17.0302 0.1036
51.1600 17.0368 0.0935
51.1800 17.0435 0.1039
51.2000 17.0502 0.0998
51.2200 17.0569 0.1020
51.2400 17.0636 0.0980
51.2600 17.0703 0.0958
51.2800 17.0769 0.1092
51.3000 17.0836 0.1016
51.3200 17.0902 0.0956
51.3400 17.0968 0.1025
51.3600 17.1035 0.1018
51.3800 17.1102 0.0936
51.4000 17.1168 0.1065
51.4200 17.1235 0.0981
51.4400 17.1302 0.1001
51.4600 17.1369 0.1061
51.4800 17.1436 0.0968
51.5000 17.1501 0.1010
51.5200 17.1567 0.1106
51.5400 17.1634 0.0975
51.5600 17.1701 0.0997
51.5800 17.1768 0.1064
51.6000 17.1835 0.0953
51.6200 17.1902 0.1019
51.6400 17.1969 0.1094
51.6600 17.2035 0.0968
51.6800 17.2102 0.1023
51.7000 17.2168 0.1070
51.7200 17.2235 0.0979
51.7400 17.2302 0.1055
51.7600 17.2369 0.0982
51.7800 17.2436 0.1031
51.8000 17.2502 0.1021
51.8200 17.2569 0.0992
51.8400 17.2636 0.1026
51.8600 17.2702 0.1037
51.8800 17.2768 0.1001
51.9000 17.2835 0.1030
51.9200 17.2902 0.1000
51.9400 17.2969 0.1051
51.9600 17.3036 0.0971
51.9800 17.3103 0.1039
52.0000 17.3170 0.1062
52.0200 17.3236 0.0978
52.0400 17.3302 0.0975
52.0600 17.3368 0.1059
52.0800 17.3434 0.1006
52.1000 17.3501 0.1027
52.1200 17.3568 0.1054
52.1400 17.3635 0.0999
52.1600 17.3702 0.1022
52.1800 17.3769 0.1067
52.2000 17.3836 0.0998
52.2200 17.3902 0.1011
52.2400 17.3968 0.1091
52.2600 17.4034 0.0984
52.2800 17.4101 0.1041
52.3000 17.4168 0.1045
52.3200 17.4235 0.0962
52.3400 17.4302 0.0997
52.3600 17.4369 0.1119
52.3800 17.4436 0.0974
52.4000 17.4502 0.0964
52.4200 17.4568 0.1105
52.4400 17.4635 0.1018
52.4600 17.4701 0.0992
52.4800 17.4768 0.1053
52.5000 17.4836 0.0973
52.5200 17.4902 0.1001
52.5400 17.4969 0.1074
52.5600 17.5036 0.0995
52.5800 17.5102 0.1011
52.6000 17.5168 0.1104
52.6200 17.5235 0.0983
52.6400 17.5302 0.1033
52.6600 17.5369 0.1107
52.6800 17.5436 0.0986
52.7000 17.5503 0.1006
52.7200 17.5569 0.1081
52.7400 17.5636 0.0979
52.7600 17.5702 0.0978
52.7800 17.5768 0.1129
52.8000 17.5835 0.0971
52.8200 17.5902 0.0990
52.8400 17.5969 0.1068
52.8600 17.6035 0.1004
52.8800 17.6102 0.0996
52.9000 17.6169 0.1053
52.9200 17.6236 0.0991
52.9400 17.6302 0.1051
52.9600 17.6368 0.1056
52.9800 17.6434 0.0986
53.0000 17.6501 0.1045
53.0200 17.6568 0.1062
53.0400 17.6635 0.1031
53.0600 17.6702 0.1012
53.0800 17.6769 0.1033
53.1000 17.6836 0.0986
53.1200 17.6902 0.1025
53.1400 17.6968 0.1035
53.1600 17.7034 0.1030
53.1800 17.7101 0.0970
53.2000 17.7169 0.1084
53.2200 17.7236 0.1018
53.2400 17.7303 0.0993
53.2600 17.7369 0.1082
53.2800 17.7436 0.1017
53.3000 17.7502 0.0924
53.3200 17.7568 0.1126
53.3400 17.7635 0.1007
53.3600 17.7702 0.0953
53.3800 17.7769 0.1075
53.4000 17.7836 0.0986
53.4200 17.7902 0.0949
53.4400 17.7969 0.1157
53.4600 17.8036 0.0979
53.4800 17.8102 0.0960
53.5000 17.8168 0.1173
53.5200 17.8234 0.0988
53.5400 17.8301 0.0973
53.5600 17.8368 0.1088
53.5800 17.8435 0.1001
53.6000 17.8502 0.0943
53.6200 17.8569 0.1132
53.6400 17.8636 0.0952
53.6600 17.8702 0.0959
53.6800 17.8768 0.1088
53.7000 17.8834 0.0998
53.7200 17.8901 0.0959
53.7400 17.8968 0.1037
53.7600 17.9035 0.1012
53.7800 17.9102 0.1011
53.8000 17.9169 0.1054
53.8200 17.9236 0.1068
53.8400 17.9302 0.0927
53.8600 17.9368 0.1084
53.8800 17.9435 0.1060
53.9000 17.9502 0.0964
53.9200 17.9569 0.1048
53.9400 17.9636 0.1029
53.9600 17.9703 0.0938
53.9800 17.9769 0.1061
54.0000 17.9836 0.1034
54.0200 17.9902 0.0954
54.0400 17.9968 0.1076
54.0600 18.0035 0.1026
54.0800 18.0101 0.0947
54.1000 18.0169 0.1083
54.1200 18.0236 0.1032
54.1400 18.0303 0.0912
54.1600 18.0369 0.1158
54.1800 18.0436 0.0969
54.2000 18.0502 0.0930
54.2200 18.0568 0.1143
54.2400 18.0634 0.1013
54.2600 18.0701 0.0959
54.2800 18.0768 0.1131
54.3000 18.0835 0.0975
54.3200 18.0902 0.0964
54.3400 18.0969 0.1100
54.3600 18.1035 0.0983
54.3800 18.1102 0.0980
54.4000 18.1168 0.1105
54.4200 18.1234 0.0972
54.4400 18.1301 0.1018
54.4600 18.1368 0.1081
54.4800 18.1435 0.0962
54.5000 18.1502 0.1015
54.5200 18.1568 0.1083
54.5400 18.1635 0.1049
54.5600 18.1702 0.0920
54.5800 18.1768 0.1098
54.6000 18.1835 0.1083
54.6200 18.1901 0.1021
54.6400 18.1968 0.1035
54.6600 18.2036 0.1041
54.6800 18.2102 0.1035
54.7000 18.2169 0.1022
54.7200 18.2236 0.1000
54.7400 18.2302 0.1017
54.7600 18.2368 0.1044
54.7800 18.2434 0.1076
54.8000 18.2501 0.0942
54.8200 18.2569 0.1111
54.8400 18.2636 0.1041
54.8600 18.2703 0.0941
54.8800 18.2769 0.1100
54.9000 18.2836 0.1050
54.9200 18.2902 0.0983
54.9400 18.2968 0.1070
54.9600 18.3035 0.1074
54.9800 18.3102 0.0952
55.0000 18.3169 0.1067
55.0200 18.3236 0.1074
55.0400 18.3302 0.0963
55.0600 18.3369 0.1122
55.0800 18.3436 0.1038
55.1000 18.3502 0.0977
55.1200 18.3568 0.1085
55.1400 18.3634 0.1035
55.1600 18.3701 0.0997
55.1800 18.3768 0.1083
55.2000 18.3835 0.1070
55.2200 18.3902 0.0992
55.2400 18.3969 0.1150
55.2600 18.4035 0.1075
55.2800 18.4102 0.0958
55.3000 18.4168 0.1107
55.3200 18.4234 0.1085
55.3400 18.4301 0.0977
55.3600 18.4368 0.1100
55.3800 18.4436 0.1057
55.4000 18.4502 0.0983
55.4200 18.4569 0.1087
55.4400 18.4636 0.1081
55.4600 18.4703 0.0982
55.4800 18.4769 0.1073
55.5000 18.4835 0.1078
55.5200 18.4902 0.1031
55.5400 18.4969 0.1130
55.5600 18.5036 0.1003
55.5800 18.5103 0.1054
55.6000 18.5169 0.1115
55.6200 18.5236 0.1057
55.6400 18.5302 0.0986
55.6600 18.5368 0.1119
55.6800 18.5434 0.1112
55.7000 18.5501 0.1015
55.7200 18.5568 0.1087
55.7400 18.5635 0.1130
55.7600 18.5702 0.0979
55.7800 18.5769 0.1107
55.8000 18.5835 0.1078
55.8200 18.5902 0.1002
55.8400 18.5968 0.1071
55.8600 18.6034 0.1030
55.8800 18.6101 0.1034
55.9000 18.6168 0.1116
55.9200 18.6236 0.1092
55.9400 18.6302 0.0991
55.9600 18.6369 0.1094
55.9800 18.6436 0.1103
56.0000 18.6502 0.0977
56.0200 18.6569 0.1086
56.0400 18.6635 0.1091
56.0600 18.6702 0.1006
56.0800 18.6769 0.1083
56.1000 18.6835 0.1040
56.1200 18.6902 0.1038
56.1400 18.6969 0.1061
56.1600 18.7036 0.1111
56.1800 18.7103 0.0980
56.2000 18.7169 0.1057
56.2200 18.7235 0.1123
56.2400 18.7301 0.1050
56.2600 18.7368 0.1067
56.2800 18.7435 0.1083
56.3000 18.7502 0.1025
56.3200 18.7569 0.1046
56.3400 18.7636 0.1064
56.3600 18.7702 0.1049
56.3800 18.7768 0.1059
56.4000 18.7834 0.1100
56.4200 18.7901 0.1039
56.4400 18.7968 0.1049
56.4600 18.8035 0.1080
56.4800 18.8102 0.1052
56.5000 18.8169 0.1077
56.5200 18.8236 0.1043
56.5400 18.8302 0.1083
56.5600 18.8368 0.1034
56.5800 18.8435 0.1097
56.6000 18.8501 0.1094
56.6200 18.8568 0.1037
56.6400 18.8635 0.1034
56.6600 18.8702 0.1124
56.6800 18.8769 0.1015
56.7000 18.8836 0.1006
56.7200 18.8903 0.1137
56.7400 18.8969 0.0989
56.7600 18.9035 0.1034
56.7800 18.9101 0.1142
56.8000 18.9168 0.1001
56.8200 18.9236 0.1057
56.8400 18.9303 0.1159
56.8600 18.9369 0.0986
56.8800 18.9436 0.1041
56.9000 18.9502 0.1143
56.9200 18.9568 0.0985
56.9400 18.9635 0.1050
56.9600 18.9701 0.1147
56.9800 18.9768 0.0919
57.0000 18.9836 0.1091
57.0200 18.9902 0.1071
57.0400 18.9969 0.0958
57.0600 19.0036 0.1095
57.0800 19.0103 0.1076
57.1000 19.0169 0.0965
57.1200 19.0235 0.1121
57.1400 19.0301 0.1054
57.1600 19.0368 0.1013
57.1800 19.0435 0.1090
57.2000 19.0502 0.1082
57.2200 19.0569 0.1008
57.2400 19.0636 0.1098
57.2600 19.0702 0.1070
57.2800 19.0768 0.1047
57.3000 19.0834 0.1098
57.3200 19.0901 0.1076
57.3400 19.0968 0.1060
57.3600 19.1035 0.1050
57.3800 19.1102 0.1070
57.4000 19.1169 0.1055
57.4200 19.1235 0.1003
57.4400 19.1302 0.1105
57.4600 19.1368 0.1128
57.4800 19.1435 0.1004
57.5000 19.1501 0.1141
57.5200 19.1568 0.1053
57.5400 19.1635 0.1045
57.5600 19.1702 0.1096
57.5800 19.1769 0.1079
57.6000 19.1836 0.1018
57.6200 19.1903 0.1071
57.6400 19.1969 0.1081
57.6600 19.2035 0.1042
57.6800 19.2101 0.1093
57.7000 19.2168 0.1103
57.7200 19.2235 0.1021
57.7400 19.2302 0.1119
57.7600 19.2369 0.1101
57.7800 19.2436 0.1018
57.8000 19.2503 0.1076
57.8200 19.2569 0.1089
57.8400 19.2635 0.1047
57.8600 19.2701 0.1111
57.8800 19.2768 0.1098
57.9000 19.2835 0.0989
57.9200 19.2902 0.1143
57.9400 19.2969 0.1106
57.9600 19.3035 0.1007
57.9800 19.3102 0.1111
58.0000 19.3168 0.1149
58.0200 19.3235 0.1013
58.0400 19.3301 0.1134
58.0600 19.3368 0.1133
58.0800 19.3435 0.1009
58.1000 19.3502 0.1134
58.1200 19.3569 0.1139
58.1400 19.3636 0.0966
58.1600 19.3702 0.1202
58.1800 19.3769 0.1090
58.2000 19.3835 0.1014
58.2200 19.3901 0.1178
58.2400 19.3968 0.1089
58.2600 19.4035 0.0998
58.2800 19.4102 0.1137
58.3000 19.4169 0.1135
58.3200 19.4236 0.0961
58.3400 19.4303 0.1183
58.3600 19.4369 0.1101
58.3800 19.4435 0.0982
58.4000 19.4501 0.1178
58.4200 19.4568 0.1079
58.4400 19.4635 0.0983
58.4600 19.4703 0.1166
58.4800 19.4769 0.1064
58.5000 19.4836 0.1017
58.5200 19.4903 0.1165
58.5400 19.4969 0.1073
58.5600 19.5035 0.1011
58.5800 19.5101 0.1231
58.6000 19.5168 0.1066
58.6200 19.5235 0.1024
58.6400 19.5302 0.1171
58.6600 19.5369 0.1067
58.6800 19.5435 0.1068
58.7000 19.5502 0.1156
58.7200 19.5569 0.1097
58.7400 19.5635 0.1027
58.7600 19.5701 0.1177
58.7800 19.5768 0.1114
58.8000 19.5835 0.1039
58.8200 19.5902 0.1170
58.8400 19.5969 0.1133
58.8600 19.6036 0.1026
58.8800 19.6102 0.1163
58.9000 19.6169 0.1082
58.9200 19.6235 0.1068
58.9400 19.6301 0.1163
58.9600 19.6368 0.1098
58.9800 19.6435 0.1017
59.0000 19.6503 0.1157
59.0200 19.6570 0.1079
59.0400 19.6636 0.1103
59.0600 19.6703 0.1182
59.0800 19.6769 0.1073
59.1000 19.6835 0.1081
59.1200 19.6901 0.1208
59.1400 19.6968 0.1083
59.1600 19.7035 0.1117
59.1800 19.7102 0.1114
59.2000 19.7169 0.1071
59.2200 19.7236 0.1119
59.2400 19.7303 0.1095
59.2600 19.7369 0.1115
59.2800 19.7435 0.1120
59.3000 19.7501 0.1149
59.3200 19.7568 0.1106
59.3400 19.7635 0.1085
59.3600 19.7702 0.1129
59.3800 19.7769 0.1164
59.4000 19.7836 0.1065
59.4200 19.7903 0.1100
59.4400 19.7969 0.1177
59.4600 19.8035 0.1047
59.4800 19.8101 0.1108
59.5000 19.8168 0.1237
59.5200 19.8235 0.0987
59.5400 19.8302 0.1131
59.5600 19.8369 0.1194
59.5800 19.8435 0.0968
59.6000 19.8502 0.1142
59.6200 19.8569 0.1198
59.6400 19.8635 0.1008
59.6600 19.8701 0.1171
59.6800 19.8768 0.1205
59.7000 19.8835 0.0984
59.7200 19.8902 0.1124
59.7400 19.8969 0.1224
59.7600 19.9036 0.0998
59.7800 19.9103 0.1135
59.8000 19.9169 0.1162
59.8200 19.9235 0.1018
59.8400 19.9301 0.1192
59.8600 19.9368 0.1151
59.8800 19.9435 0.1001
59.9000 19.9502 0.1175
59.9200 19.9569 0.1167
59.9400 19.9636 0.0996
59.9600 19.9703 0.1207
59.9800 19.9769 0.1149
60.0000 19.9835 0.1062
60.0200 19.9901 0.1163
60.0400 19.9968 0.1102
60.0500 20.0001 0.0963
