Raw Data
Time Displacement Force
(s) (mm) (N)
0.0000 0.0000 -0.1100
0.0200 0.0000 -0.1115
0.0400 0.0008 -0.0805
0.0600 0.0040 -0.0410
0.0800 0.0095 -0.0546
0.1000 0.0154 -0.0423
0.1200 0.0213 0.0149
0.1400 0.0279 0.0077
0.1600 0.0350 0.0141
0.1800 0.0424 0.0363
0.2000 0.0496 0.0386
0.2200 0.0566 0.0531
0.2400 0.0633 0.0803
0.2600 0.0699 0.0791
0.2800 0.0766 0.0923
0.3000 0.0833 0.1080
0.3200 0.0900 0.0946
0.3400 0.0966 0.0832
0.3600 0.1033 0.0790
0.3800 0.1100 0.0813
0.4000 0.1167 0.0730
0.4200 0.1234 0.0767
0.4400 0.1301 0.0842
0.4600 0.1368 0.0763
0.4800 0.1434 0.0745
0.5000 0.1500 0.0859
0.5200 0.1567 0.0764
0.5400 0.1633 0.0838
0.5600 0.1700 0.0800
0.5800 0.1767 0.0779
0.6000 0.1834 0.0846
0.6200 0.1901 0.0822
0.6400 0.1968 0.0769
0.6600 0.2034 0.0817
0.6800 0.2101 0.0815
0.7000 0.2167 0.0847
0.7200 0.2233 0.0836
0.7400 0.2300 0.0819
0.7600 0.2367 0.0832
0.7800 0.2434 0.0812
0.8000 0.2500 0.0865
0.8200 0.2567 0.0840
0.8400 0.2634 0.0830
0.8600 0.2700 0.0805
0.8800 0.2766 0.0848
0.9000 0.2832 0.0852
0.9200 0.2899 0.0870
0.9400 0.2966 0.0791
0.9600 0.3033 0.0858
0.9800 0.3100 0.0819
1.0000 0.3167 0.0844
1.0200 0.3234 0.0901
1.0400 0.3300 0.0842
1.0600 0.3366 0.0816
1.0800 0.3433 0.0901
1.1000 0.3500 0.0842
1.1200 0.3567 0.0861
1.1400 0.3634 0.0870
1.1600 0.3701 0.0852
1.1800 0.3768 0.0836
1.2000 0.3834 0.0870
1.2200 0.3901 0.0874
1.2400 0.3967 0.0844
1.2600 0.4033 0.0884
1.2800 0.4100 0.0854
1.3000 0.4167 0.0830
1.3200 0.4234 0.0839
1.3400 0.4301 0.0868
1.3600 0.4368 0.0822
1.3800 0.4434 0.0848
1.4000 0.4501 0.0883
1.4200 0.4567 0.0856
1.4400 0.4633 0.0845
1.4600 0.4699 0.0912
1.4800 0.4766 0.0856
1.5000 0.4833 0.0844
1.5200 0.4900 0.0872
1.5400 0.4967 0.0857
1.5600 0.5034 0.0865
1.5800 0.5100 0.0884
1.6000 0.5166 0.0879
1.6200 0.5232 0.0803
1.6400 0.5299 0.0932
1.6600 0.5366 0.0861
1.6800 0.5434 0.0797
1.7000 0.5500 0.0880
1.7200 0.5567 0.0911
1.7400 0.5634 0.0787
1.7600 0.5700 0.0916
1.7800 0.5766 0.0907
1.8000 0.5833 0.0847
1.8200 0.5900 0.0907
1.8400 0.5967 0.0888
1.8600 0.6034 0.0854
1.8800 0.6101 0.0936
1.9000 0.6168 0.0855
1.9200 0.6235 0.0852
1.9400 0.6301 0.0880
1.9600 0.6367 0.0855
1.9800 0.6433 0.0867
2.0000 0.6500 0.0925
2.0200 0.6567 0.0881
2.0400 0.6634 0.0825
2.0600 0.6701 0.0885
2.0800 0.6768 0.0851
2.1000 0.6834 0.0888
2.1200 0.6901 0.0905
2.1400 0.6967 0.0844
2.1600 0.7033 0.0919
2.1800 0.7100 0.0904
2.2000 0.7167 0.0796
2.2200 0.7233 0.0885
2.2400 0.7300 0.0955
2.2600 0.7366 0.0795
2.2800 0.7433 0.0838
2.3000 0.7500 0.0953
2.3200 0.7566 0.0756
2.3400 0.7633 0.0946
2.3600 0.7699 0.1010
2.3800 0.7766 0.0770
2.4000 0.7833 0.0853
2.4200 0.7900 0.1065
2.4400 0.7967 0.0803
2.4600 0.8034 0.0820
2.4800 0.8101 0.1022
2.5000 0.8167 0.0808
2.5200 0.8233 0.0829
2.5400 0.8300 0.1028
2.5600 0.8367 0.0835
2.5800 0.8434 0.0784
2.6000 0.8501 0.1002
2.6200 0.8568 0.0838
2.6400 0.8635 0.0854
2.6600 0.8701 0.0969
2.6800 0.8767 0.0838
2.7000 0.8833 0.0857
2.7200 0.8900 0.0973
2.7400 0.8967 0.0869
2.7600 0.9034 0.0868
2.7800 0.9101 0.0875
2.8000 0.9167 0.0908
2.8200 0.9234 0.0896
2.8400 0.9301 0.0912
2.8600 0.9367 0.0875
2.8800 0.9433 0.0844
2.9000 0.9500 0.0932
2.9200 0.9567 0.0880
2.9400 0.9634 0.0849
2.9600 0.9700 0.0909
2.9800 0.9767 0.0928
3.0000 0.9834 0.0794
3.0200 0.9901 0.0891
3.0400 0.9967 0.0933
3.0600 1.0033 0.0859
3.0800 1.0099 0.0888
3.1000 1.0166 0.0889
3.1200 1.0233 0.0849
3.1400 1.0300 0.0958
3.1600 1.0367 0.0862
3.1800 1.0434 0.0827
3.2000 1.0501 0.0901
3.2200 1.0567 0.0901
3.2400 1.0633 0.0856
3.2600 1.0700 0.0951
3.2800 1.0767 0.0885
3.3000 1.0834 0.0867
3.3200 1.0901 0.0957
3.3400 1.0967 0.0856
3.3600 1.1034 0.0827
3.3800 1.1101 0.0999
3.4000 1.1167 0.0905
3.4200 1.1233 0.0808
3.4400 1.1300 0.0881
3.4600 1.1366 0.0923
3.4800 1.1434 0.0895
3.5000 1.1501 0.0899
3.5200 1.1568 0.0904
3.5400 1.1635 0.0856
3.5600 1.1701 0.0888
3.5800 1.1767 0.0901
3.6000 1.1833 0.0927
3.6200 1.1899 0.0917
3.6400 1.1966 0.0874
3.6600 1.2034 0.0906
3.6800 1.2101 0.0914
3.7000 1.2167 0.0859
3.7200 1.2234 0.0945
3.7400 1.2301 0.0896
3.7600 1.2367 0.0905
3.7800 1.2433 0.0921
3.8000 1.2500 0.0900
3.8200 1.2566 0.0933
3.8400 1.2634 0.0925
3.8600 1.2700 0.0879
3.8800 1.2767 0.0945
3.9000 1.2834 0.0901
3.9200 1.2900 0.0869
3.9400 1.2967 0.0959
3.9600 1.3033 0.0912
3.9800 1.3100 0.0931
4.0000 1.3167 0.0898
4.0200 1.3234 0.0889
4.0400 1.3301 0.0917
4.0600 1.3368 0.0956
4.0800 1.3435 0.0879
4.1000 1.3501 0.0896
4.1200 1.3567 0.0909
4.1400 1.3633 0.0901
4.1600 1.3700 0.0974
4.1800 1.3767 0.0945
4.2000 1.3834 0.0881
4.2200 1.3901 0.0955
4.2400 1.3967 0.0918
4.2600 1.4034 0.0908
4.2800 1.4101 0.0944
4.3000 1.4167 0.0895
4.3200 1.4233 0.0915
4.3400 1.4300 0.0923
4.3600 1.4366 0.0903
4.3800 1.4433 0.0935
4.4000 1.4500 0.0881
4.4200 1.4567 0.0900
4.4400 1.4634 0.1001
4.4600 1.4701 0.0838
4.4800 1.4767 0.0853
4.5000 1.4833 0.1003
4.5200 1.4899 0.0904
4.5400 1.4966 0.0883
4.5600 1.5033 0.0962
4.5800 1.5101 0.0826
4.6000 1.5168 0.0908
4.6200 1.5234 0.0998
4.6400 1.5301 0.0862
4.6600 1.5367 0.0913
4.6800 1.5433 0.0971
4.7000 1.5500 0.0879
4.7200 1.5567 0.0915
4.7400 1.5634 0.0974
4.7600 1.5700 0.0860
4.7800 1.5767 0.0937
4.8000 1.5834 0.0974
4.8200 1.5901 0.0864
4.8400 1.5968 0.0911
4.8600 1.6034 0.0986
4.8800 1.6100 0.0882
4.9000 1.6167 0.0902
4.9200 1.6233 0.0938
4.9400 1.6300 0.0929
4.9600 1.6367 0.0910
4.9800 1.6434 0.0963
5.0000 1.6501 0.0911
5.0200 1.6568 0.0902
5.0400 1.6634 0.1000
5.0600 1.6700 0.0912
5.0800 1.6766 0.0900
5.1000 1.6833 0.0984
5.1200 1.6900 0.0911
5.1400 1.6967 0.0908
5.1600 1.7034 0.0984
5.1800 1.7101 0.0881
5.2000 1.7167 0.0920
5.2200 1.7233 0.1017
5.2400 1.7299 0.0949
5.2600 1.7366 0.0914
5.2800 1.7433 0.1016
5.3000 1.7500 0.0887
5.3200 1.7567 0.0895
5.3400 1.7634 0.1022
5.3600 1.7700 0.0896
5.3800 1.7767 0.0894
5.4000 1.7833 0.1006
5.4200 1.7900 0.0852
5.4400 1.7966 0.0955
5.4600 1.8034 0.0967
5.4800 1.8101 0.0881
5.5000 1.8168 0.0962
5.5200 1.8235 0.0952
5.5400 1.8301 0.0897
5.5600 1.8368 0.0891
5.5800 1.8434 0.0962
5.6000 1.8500 0.0942
5.6200 1.8566 0.1020
5.6400 1.8634 0.0916
5.6600 1.8701 0.0690
5.6800 1.8768 0.1141
5.7000 1.8834 0.1061
5.7200 1.8901 0.0707
5.7400 1.8967 0.0967
5.7600 1.9033 0.1117
5.7800 1.9100 0.0786
5.8000 1.9166 0.0951
5.8200 1.9234 0.1126
5.8400 1.9301 0.0644
5.8600 1.9367 0.1047
5.8800 1.9434 0.1278
5.9000 1.9501 0.0539
5.9200 1.9567 0.0910
5.9400 1.9634 0.1344
5.9600 1.9700 0.0677
5.9800 1.9766 0.0789
6.0000 1.9833 0.1307
6.0200 1.9900 0.0742
6.0400 1.9967 0.0777
6.0600 2.0034 0.1310
6.0800 2.0100 0.0760
6.1000 2.0167 0.0879
6.1200 2.0233 0.1177
6.1400 2.0300 0.0732
6.1600 2.0366 0.1003
6.1800 2.0434 0.1103
6.2000 2.0501 0.0752
6.2200 2.0568 0.0951
6.2400 2.0634 0.1103
6.2600 2.0701 0.0829
6.2800 2.0767 0.0961
6.3000 2.0833 0.0931
6.3200 2.0900 0.0891
6.3400 2.0966 0.1071
6.3600 2.1034 0.0839
6.3800 2.1101 0.0922
6.4000 2.1168 0.1011
6.4200 2.1234 0.0770
6.4400 2.1301 0.1083
6.4600 2.1367 0.1016
6.4800 2.1433 0.0775
6.5000 2.1500 0.1044
6.5200 2.1566 0.0972
6.5400 2.1633 0.0798
6.5600 2.1700 0.1097
6.5800 2.1767 0.0988
6.6000 2.1834 0.0755
6.6200 2.1901 0.1061
6.6400 2.1967 0.0921
6.6600 2.2033 0.0818
6.6800 2.2099 0.1113
6.7000 2.2166 0.0896
6.7200 2.2233 0.0861
6.7400 2.2301 0.1056
6.7600 2.2367 0.0867
6.7800 2.2434 0.0903
6.8000 2.2501 0.0996
6.8200 2.2567 0.0914
6.8400 2.2634 0.0905
6.8600 2.2700 0.0964
6.8800 2.2767 0.0893
6.9000 2.2834 0.0943
6.9200 2.2901 0.0972
6.9400 2.2967 0.0878
6.9600 2.3034 0.0942
6.9800 2.3101 0.0949
7.0000 2.3168 0.0925
7.0200 2.3234 0.0940
7.0400 2.3300 0.0907
7.0600 2.3366 0.0899
7.0800 2.3433 0.0993
7.1000 2.3500 0.0936
7.1200 2.3567 0.0886
7.1400 2.3634 0.0928
7.1600 2.3701 0.0952
7.1800 2.3768 0.0928
7.2000 2.3834 0.0949
7.2200 2.3900 0.0934
7.2400 2.3966 0.0924
7.2600 2.4033 0.0988
7.2800 2.4101 0.0908
7.3000 2.4167 0.0891
7.3200 2.4234 0.0977
7.3400 2.4301 0.0928
7.3600 2.4368 0.0910
7.3800 2.4434 0.0997
7.4000 2.4499 0.0925
7.4200 2.4566 0.0929
7.4400 2.4633 0.0958
7.4600 2.4700 0.0948
7.4800 2.4767 0.0952
7.5000 2.4834 0.0933
7.5200 2.4901 0.0895
7.5400 2.4967 0.0947
7.5600 2.5034 0.0925
7.5800 2.5100 0.0985
7.6000 2.5166 0.0898
7.6200 2.5233 0.0937
7.6400 2.5300 0.0963
7.6600 2.5368 0.0893
7.6800 2.5435 0.0980
7.7000 2.5502 0.0947
7.7200 2.5568 0.0804
7.7400 2.5634 0.1017
7.7600 2.5700 0.0957
7.7800 2.5766 0.0803
7.8000 2.5834 0.1090
7.8200 2.5901 0.0980
7.8400 2.5968 0.0814
7.8600 2.6034 0.1053
7.8800 2.6101 0.0897
7.9000 2.6168 0.0849
7.9200 2.6234 0.1043
7.9400 2.6300 0.0875
7.9600 2.6366 0.0941
7.9800 2.6433 0.1041
8.0000 2.6500 0.0825
8.0200 2.6567 0.0960
8.0400 2.6634 0.1037
8.0600 2.6701 0.0779
8.0800 2.6767 0.0986
8.1000 2.6833 0.0984
8.1200 2.6899 0.0802
8.1400 2.6966 0.1002
8.1600 2.7033 0.0977
8.1800 2.7100 0.0864
8.2000 2.7167 0.0964
8.2200 2.7234 0.0925
8.2400 2.7301 0.0953
8.2600 2.7367 0.0936
8.2800 2.7434 0.0896
8.3000 2.7500 0.0976
8.3200 2.7566 0.0946
8.3400 2.7633 0.0932
8.3600 2.7701 0.0925
8.3800 2.7768 0.0950
8.4000 2.7834 0.0935
8.4200 2.7901 0.0969
8.4400 2.7968 0.0916
8.4600 2.8034 0.0917
8.4800 2.8100 0.0934
8.5000 2.8167 0.0965
8.5200 2.8234 0.0966
8.5400 2.8301 0.0956
8.5600 2.8368 0.0949
8.5800 2.8434 0.0933
8.6000 2.8501 0.0938
8.6200 2.8568 0.1021
8.6400 2.8634 0.0875
8.6600 2.8700 0.0909
8.6800 2.8766 0.1048
8.7000 2.8833 0.0892
8.7200 2.8900 0.0925
8.7400 2.8967 0.0993
8.7600 2.9034 0.0903
8.7800 2.9101 0.0904
8.8000 2.9168 0.0955
8.8200 2.9234 0.0920
8.8400 2.9300 0.1008
8.8600 2.9366 0.0941
8.8800 2.9433 0.0857
8.9000 2.9500 0.1055
8.9200 2.9567 0.0917
8.9400 2.9634 0.0862
8.9600 2.9700 0.1006
8.9800 2.9767 0.0849
9.0000 2.9834 0.0959
9.0200 2.9900 0.1012
9.0400 2.9966 0.0902
9.0600 3.0033 0.0933
9.0800 3.0100 0.1009
9.1000 3.0167 0.0896
9.1200 3.0234 0.0934
9.1400 3.0301 0.1015
9.1600 3.0368 0.0830
9.1800 3.0434 0.0951
9.2000 3.0500 0.1007
9.2200 3.0566 0.0877
9.2400 3.0633 0.0982
9.2600 3.0700 0.0958
9.2800 3.0767 0.0858
9.3000 3.0834 0.0972
9.3200 3.0901 0.0947
9.3400 3.0967 0.0853
9.3600 3.1034 0.0995
9.3800 3.1100 0.0961
9.4000 3.1167 0.0876
9.4200 3.1233 0.0988
9.4400 3.1300 0.0906
9.4600 3.1367 0.0911
9.4800 3.1434 0.0998
9.5000 3.1501 0.0860
9.5200 3.1567 0.0911
9.5400 3.1634 0.0981
9.5600 3.1700 0.0875
9.5800 3.1766 0.0937
9.6000 3.1832 0.1002
9.6200 3.1900 0.0864
9.6400 3.1967 0.0956
9.6600 3.2034 0.0952
9.6800 3.2101 0.0904
9.7000 3.2168 0.0957
9.7200 3.2234 0.0966
9.7400 3.2300 0.0852
9.7600 3.2366 0.0944
9.7800 3.2433 0.0933
9.8000 3.2500 0.0880
9.8200 3.2568 0.0973
9.8400 3.2634 0.0901
9.8600 3.2701 0.0897
9.8800 3.2768 0.0969
9.9000 3.2834 0.0862
9.9200 3.2900 0.0984
9.9400 3.2967 0.0974
9.9600 3.3033 0.0850
9.9800 3.3101 0.0984
10.0000 3.3168 0.0935
10.0200 3.3234 0.0806
10.0400 3.3301 0.1016
10.0600 3.3368 0.0927
10.0800 3.3434 0.0816
10.1000 3.3500 0.1051
10.1200 3.3566 0.0910
10.1400 3.3633 0.0850
10.1600 3.3700 0.1100
10.1800 3.3767 0.0891
10.2000 3.3834 0.0799
10.2200 3.3901 0.1072
10.2400 3.3968 0.0895
10.2600 3.4034 0.0856
10.2800 3.4100 0.1022
10.3000 3.4166 0.0931
10.3200 3.4233 0.0880
10.3400 3.4300 0.1022
10.3600 3.4367 0.0872
10.3800 3.4434 0.0894
10.4000 3.4501 0.1030
10.4200 3.4567 0.0874
10.4400 3.4634 0.0872
10.4600 3.4700 0.1053
10.4800 3.4766 0.0915
10.5000 3.4833 0.0843
10.5200 3.4900 0.1014
10.5400 3.4967 0.0948
10.5600 3.5034 0.0887
10.5800 3.5101 0.1000
10.6000 3.5168 0.0947
10.6200 3.5234 0.0837
10.6400 3.5300 0.1045
10.6600 3.5367 0.0934
10.6800 3.5433 0.0905
10.7000 3.5500 0.1011
10.7200 3.5567 0.0906
10.7400 3.5634 0.0867
10.7600 3.5701 0.1045
10.7800 3.5768 0.0901
10.8000 3.5835 0.0839
10.8200 3.5900 0.1019
10.8400 3.5966 0.0919
10.8600 3.6033 0.0899
10.8800 3.6100 0.0989
10.9000 3.6167 0.0917
10.9200 3.6234 0.0931
10.9400 3.6301 0.0976
10.9600 3.6367 0.0950
10.9800 3.6434 0.0940
11.0000 3.6500 0.0927
11.0200 3.6566 0.0989
11.0400 3.6633 0.0939
11.0600 3.6700 0.0911
11.0800 3.6767 0.0977
11.1000 3.6833 0.0968
11.1200 3.6900 0.0890
11.1400 3.6967 0.1007
11.1600 3.7034 0.0882
11.1800 3.7100 0.0889
11.2000 3.7167 0.1005
11.2200 3.7233 0.0909
11.2400 3.7300 0.0929
11.2600 3.7367 0.1019
11.2800 3.7434 0.0855
11.3000 3.7501 0.0943
11.3200 3.7568 0.1021
11.3400 3.7635 0.0892
11.3600 3.7700 0.0920
11.3800 3.7766 0.1019
11.4000 3.7833 0.0924
11.4200 3.7900 0.0929
11.4400 3.7967 0.1039
11.4600 3.8034 0.0890
11.4800 3.8101 0.0917
11.5000 3.8168 0.1030
11.5200 3.8234 0.0927
11.5400 3.8300 0.0885
11.5600 3.8366 0.1061
11.5800 3.8433 0.0903
11.6000 3.8500 0.0894
11.6200 3.8567 0.1008
11.6400 3.8634 0.0970
11.6600 3.8701 0.0890
11.6800 3.8767 0.1013
11.7000 3.8834 0.0887
11.7200 3.8900 0.0864
11.7400 3.8966 0.1094
11.7600 3.9032 0.0997
11.7800 3.9099 0.0839
11.8000 3.9166 0.0981
11.8200 3.9233 0.0981
11.8400 3.9300 0.0942
11.8600 3.9367 0.0982
11.8800 3.9433 0.0892
11.9000 3.9500 0.1006
11.9200 3.9566 0.0981
11.9400 3.9633 0.0945
11.9600 3.9700 0.0948
11.9800 3.9767 0.0984
12.0000 3.9834 0.0939
12.0200 3.9901 0.0915
12.0400 3.9968 0.0985
12.0600 4.0035 0.1051
12.0800 4.0101 0.0874
12.1000 4.0167 0.0910
12.1200 4.0233 0.1054
12.1400 4.0300 0.0930
12.1600 4.0367 0.0962
12.1800 4.0434 0.0987
12.2000 4.0501 0.0884
12.2200 4.0568 0.1017
12.2400 4.0634 0.1065
12.2600 4.0701 0.0842
12.2800 4.0766 0.0975
12.3000 4.0833 0.1046
12.3200 4.0900 0.0904
12.3400 4.0967 0.0955
12.3600 4.1034 0.0972
12.3800 4.1101 0.0899
12.4000 4.1167 0.0929
12.4200 4.1234 0.0912
12.4400 4.1300 0.1006
12.4600 4.1366 0.1009
12.4800 4.1433 0.0895
12.5000 4.1500 0.0898
12.5200 4.1567 0.1056
12.5400 4.1634 0.0924
12.5600 4.1700 0.0937
12.5800 4.1767 0.0962
12.6000 4.1834 0.0908
12.6200 4.1901 0.0924
12.6400 4.1967 0.1014
12.6600 4.2033 0.0923
12.6800 4.2100 0.0839
12.7000 4.2167 0.0993
12.7200 4.2234 0.1007
12.7400 4.2301 0.0870
12.7600 4.2368 0.0970
12.7800 4.2435 0.0970
12.8000 4.2501 0.0894
12.8200 4.2567 0.1016
12.8400 4.2633 0.0958
12.8600 4.2700 0.0929
12.8800 4.2767 0.0957
12.9000 4.2834 0.0899
12.9200 4.2901 0.0928
12.9400 4.2968 0.1113
12.9600 4.3034 0.0876
12.9800 4.3100 0.0830
13.0000 4.3166 0.1059
13.0200 4.3233 0.0954
13.0400 4.3300 0.0924
13.0600 4.3367 0.1034
13.0800 4.3434 0.0875
13.1000 4.3500 0.0899
13.1200 4.3567 0.1039
13.1400 4.3634 0.0923
13.1600 4.3700 0.0967
13.1800 4.3766 0.0999
13.2000 4.3833 0.0950
13.2200 4.3900 0.0898
13.2400 4.3967 0.0989
13.2600 4.4034 0.0945
13.2800 4.4100 0.0913
13.3000 4.4167 0.0994
13.3200 4.4234 0.0966
13.3400 4.4301 0.0858
13.3600 4.4367 0.1018
13.3800 4.4433 0.1033
13.4000 4.4500 0.0883
13.4200 4.4567 0.0955
13.4400 4.4634 0.1017
13.4600 4.4701 0.0873
13.4800 4.4768 0.0989
13.5000 4.4834 0.0987
13.5200 4.4901 0.0889
13.5400 4.4967 0.1023
13.5600 4.5033 0.1016
13.5800 4.5100 0.0871
13.6000 4.5167 0.1028
13.6200 4.5234 0.0967
13.6400 4.5301 0.0853
13.6600 4.5368 0.1080
13.6800 4.5434 0.0945
13.7000 4.5501 0.0889
13.7200 4.5567 0.1034
13.7400 4.5633 0.0955
13.7600 4.5700 0.0890
13.7800 4.5767 0.1053
13.8000 4.5834 0.0933
13.8200 4.5901 0.0926
13.8400 4.5967 0.1032
13.8600 4.6034 0.0930
13.8800 4.6100 0.0937
13.9000 4.6166 0.0994
13.9200 4.6232 0.0968
13.9400 4.6299 0.1008
13.9600 4.6367 0.0977
13.9800 4.6434 0.0929
14.0000 4.6501 0.0993
14.0200 4.6567 0.0959
14.0400 4.6634 0.0943
14.0600 4.6700 0.0972
14.0800 4.6767 0.0922
14.1000 4.6833 0.0955
14.1200 4.6900 0.1019
14.1400 4.6967 0.0908
14.1600 4.7034 0.0993
14.1800 4.7101 0.0964
14.2000 4.7168 0.0926
14.2200 4.7235 0.0981
14.2400 4.7301 0.0960
14.2600 4.7367 0.0914
14.2800 4.7433 0.1023
14.3000 4.7500 0.0948
14.3200 4.7567 0.0946
14.3400 4.7634 0.0996
14.3600 4.7701 0.0936
14.3800 4.7768 0.0985
14.4000 4.7834 0.0976
14.4200 4.7901 0.0897
14.4400 4.7967 0.1018
14.4600 4.8033 0.0969
14.4800 4.8100 0.0882
14.5000 4.8167 0.1061
14.5200 4.8234 0.0947
14.5400 4.8300 0.0868
14.5600 4.8367 0.0998
14.5800 4.8434 0.1036
14.6000 4.8500 0.0921
14.6200 4.8567 0.0964
14.6400 4.8633 0.0985
14.6600 4.8700 0.0940
14.6800 4.8767 0.0982
14.7000 4.8834 0.0940
14.7200 4.8900 0.0894
14.7400 4.8967 0.1044
14.7600 4.9034 0.0922
14.7800 4.9101 0.0910
14.8000 4.9167 0.0977
14.8200 4.9233 0.0929
14.8400 4.9300 0.0968
14.8600 4.9367 0.0991
14.8800 4.9434 0.0916
14.9000 4.9501 0.0930
14.9200 4.9568 0.0970
14.9400 4.9634 0.0955
14.9600 4.9701 0.0922
14.9800 4.9767 0.0928
15.0000 4.9833 0.0956
15.0200 4.9900 0.0919
15.0400 4.9967 0.0927
15.0600 5.0034 0.0981
15.0800 5.0101 0.0920
15.1000 5.0168 0.0860
15.1200 5.0234 0.1012
15.1400 5.0301 0.0957
15.1600 5.0367 0.0930
15.1800 5.0433 0.0962
15.2000 5.0500 0.0918
15.2200 5.0567 0.0901
15.2400 5.0634 0.1006
15.2600 5.0700 0.0948
15.2800 5.0767 0.0864
15.3000 5.0834 0.1008
15.3200 5.0901 0.0911
15.3400 5.0967 0.0925
15.3600 5.1033 0.1044
15.3800 5.1099 0.0925
15.4000 5.1166 0.0883
15.4200 5.1233 0.1034
15.4400 5.1300 0.0957
15.4600 5.1367 0.0887
15.4800 5.1434 0.1043
15.5000 5.1501 0.1002
15.5200 5.1567 0.0825
15.5400 5.1633 0.1056
15.5600 5.1700 0.0993
15.5800 5.1767 0.0902
15.6000 5.1834 0.0996
15.6200 5.1901 0.0943
15.6400 5.1968 0.0879
15.6600 5.2034 0.1056
15.6800 5.2101 0.0940
15.7000 5.2167 0.0875
15.7200 5.2233 0.1033
15.7400 5.2300 0.0902
15.7600 5.2367 0.0940
15.7800 5.2434 0.1064
15.8000 5.2501 0.0899
15.8200 5.2568 0.0881
15.8400 5.2635 0.1023
15.8600 5.2701 0.0929
15.8800 5.2767 0.0985
15.9000 5.2833 0.1024
15.9200 5.2900 0.0892
15.9400 5.2966 0.0941
15.9600 5.3034 0.1017
15.9800 5.3101 0.0904
16.0000 5.3167 0.0994
16.0200 5.3234 0.0991
16.0400 5.3301 0.0868
16.0600 5.3367 0.0953
16.0800 5.3433 0.1042
16.1000 5.3499 0.0922
16.1200 5.3566 0.0956
16.1400 5.3634 0.0965
16.1600 5.3700 0.0895
16.1800 5.3767 0.0947
16.2000 5.3834 0.1007
16.2200 5.3900 0.0887
16.2400 5.3967 0.0933
16.2600 5.4033 0.1033
16.2800 5.4100 0.0881
16.3000 5.4167 0.0973
16.3200 5.4234 0.1015
16.3400 5.4301 0.0877
16.3600 5.4368 0.0934
16.3800 5.4435 0.1008
16.4000 5.4501 0.0884
16.4200 5.4568 0.1044
16.4400 5.4633 0.0975
16.4600 5.4700 0.0898
16.4800 5.4767 0.0999
16.5000 5.4834 0.0999
16.5200 5.4901 0.0889
16.5400 5.4968 0.1020
16.5600 5.5034 0.0943
16.5800 5.5101 0.0912
16.6000 5.5167 0.1018
16.6200 5.5233 0.0919
16.6400 5.5299 0.0942
16.6600 5.5367 0.1045
16.6800 5.5434 0.0922
16.7000 5.5500 0.0874
16.7200 5.5567 0.1011
16.7400 5.5633 0.0906
16.7600 5.5700 0.0894
16.7800 5.5767 0.0998
16.8000 5.5833 0.0942
16.8200 5.5899 0.0937
16.8400 5.5966 0.1010
16.8600 5.6033 0.0846
16.8800 5.6100 0.1007
16.9000 5.6167 0.0969
16.9200 5.6234 0.0840
16.9400 5.6301 0.1020
16.9600 5.6367 0.1019
16.9800 5.6433 0.0817
17.0000 5.6500 0.1060
17.0200 5.6566 0.0983
17.0400 5.6634 0.0835
17.0600 5.6701 0.1055
17.0800 5.6768 0.0915
17.1000 5.6835 0.0821
17.1200 5.6901 0.1029
17.1400 5.6967 0.0954
17.1600 5.7033 0.0901
17.1800 5.7100 0.1034
17.2000 5.7167 0.0893
17.2200 5.7234 0.0926
17.2400 5.7301 0.0979
17.2600 5.7367 0.0901
17.2800 5.7434 0.1004
17.3000 5.7501 0.0967
17.3200 5.7567 0.0804
17.3400 5.7634 0.1028
17.3600 5.7700 0.0969
17.3800 5.7767 0.0908
17.4000 5.7834 0.1044
17.4200 5.7900 0.0866
17.4400 5.7967 0.0883
17.4600 5.8034 0.1093
17.4800 5.8101 0.0875
17.5000 5.8167 0.0877
17.5200 5.8233 0.1012
17.5400 5.8299 0.0802
17.5600 5.8366 0.0980
17.5800 5.8433 0.1021
17.6000 5.8500 0.0873
17.6200 5.8567 0.0941
17.6400 5.8634 0.0930
17.6600 5.8700 0.0871
17.6800 5.8767 0.1057
17.7000 5.8833 0.0881
17.7200 5.8900 0.0873
17.7400 5.8966 0.1037
17.7600 5.9034 0.0896
17.7800 5.9101 0.0892
17.8000 5.9168 0.1018
17.8200 5.9234 0.0819
17.8400 5.9301 0.0932
17.8600 5.9367 0.1051
17.8800 5.9433 0.0815
17.9000 5.9500 0.0858
17.9200 5.9567 0.1084
17.9400 5.9633 0.0809
17.9600 5.9701 0.0894
17.9800 5.9767 0.1083
18.0000 5.9834 0.0820
18.0200 5.9901 0.0917
18.0400 5.9967 0.0977
18.0600 6.0033 0.0880
18.0800 6.0100 0.0970
18.1000 6.0167 0.0999
18.1200 6.0234 0.0818
18.1400 6.0301 0.0919
18.1600 6.0367 0.1018
18.1800 6.0434 0.0875
18.2000 6.0501 0.0923
18.2200 6.0567 0.0991
18.2400 6.0633 0.0855
18.2600 6.0699 0.0949
18.2800 6.0766 0.0998
18.3000 6.0833 0.0904
18.3200 6.0900 0.0914
18.3400 6.0967 0.0942
18.3600 6.1033 0.0885
18.3800 6.1100 0.0967
18.4000 6.1167 0.0937
18.4200 6.1233 0.0901
18.4400 6.1300 0.0955
18.4600 6.1366 0.0946
18.4800 6.1434 0.0942
18.5000 6.1501 0.0949
18.5200 6.1568 0.0979
18.5400 6.1635 0.0878
18.5600 6.1701 0.0948
18.5800 6.1768 0.0989
18.6000 6.1834 0.0865
18.6200 6.1900 0.0968
18.6400 6.1967 0.1007
18.6600 6.2034 0.0897
18.6800 6.2101 0.0977
18.7000 6.2168 0.0932
18.7200 6.2234 0.0917
18.7400 6.2301 0.0984
18.7600 6.2367 0.1002
18.7800 6.2433 0.0905
18.8000 6.2500 0.0969
18.8200 6.2566 0.0938
18.8400 6.2633 0.0841
18.8600 6.2700 0.1059
18.8800 6.2767 0.0946
18.9000 6.2834 0.0879
18.9200 6.2901 0.1023
18.9400 6.2967 0.0929
18.9600 6.3033 0.0922
18.9800 6.3099 0.1033
19.0000 6.3166 0.0926
19.0200 6.3233 0.0902
19.0400 6.3300 0.0976
19.0600 6.3367 0.0914
19.0800 6.3434 0.0941
19.1000 6.3501 0.1047
19.1200 6.3568 0.0894
19.1400 6.3634 0.0993
19.1600 6.3700 0.0988
19.1800 6.3766 0.0916
19.2000 6.3834 0.0966
19.2200 6.3901 0.0997
19.2400 6.3967 0.0938
19.2600 6.4034 0.0964
19.2800 6.4101 0.0940
19.3000 6.4168 0.0905
19.3200 6.4234 0.0987
19.3400 6.4300 0.0972
19.3600 6.4367 0.0955
19.3800 6.4433 0.0953
19.4000 6.4501 0.0904
19.4200 6.4567 0.1009
19.4400 6.4634 0.0972
19.4600 6.4701 0.0867
19.4800 6.4768 0.1052
19.5000 6.4834 0.0927
19.5200 6.4900 0.0884
19.5400 6.4966 0.1069
19.5600 6.5033 0.0951
19.5800 6.5100 0.0901
19.6000 6.5167 0.1055
19.6200 6.5234 0.0886
19.6400 6.5301 0.0960
19.6600 6.5367 0.1075
19.6800 6.5433 0.0861
19.7000 6.5499 0.0967
19.7200 6.5566 0.1087
19.7400 6.5633 0.0883
19.7600 6.5700 0.0935
19.7800 6.5767 0.1076
19.8000 6.5834 0.0872
19.8200 6.5900 0.0947
19.8400 6.5967 0.1022
19.8600 6.6033 0.0856
19.8800 6.6100 0.0969
19.9000 6.6166 0.1066
19.9200 6.6233 0.0831
19.9400 6.6301 0.0993
19.9600 6.6368 0.1023
19.9800 6.6434 0.0841
20.0000 6.6501 0.1026
20.0200 6.6568 0.1009
20.0400 6.6634 0.0850
20.0600 6.6700 0.0978
20.0800 6.6766 0.0955
20.1000 6.6833 0.0889
20.1200 6.6901 0.1008
20.1400 6.6968 0.0966
20.1600 6.7034 0.0875
20.1800 6.7101 0.0965
20.2000 6.7168 0.1007
20.2200 6.7233 0.0930
20.2400 6.7300 0.0951
20.2600 6.7366 0.0974
20.2800 6.7433 0.0960
20.3000 6.7501 0.0905
20.3200 6.7567 0.0994
20.3400 6.7634 0.0971
20.3600 6.7701 0.0901
20.3800 6.7768 0.0967
20.4000 6.7834 0.0914
20.4200 6.7900 0.0905
20.4400 6.7966 0.1029
20.4600 6.8033 0.0887
20.4800 6.8100 0.0914
20.5000 6.8167 0.0975
20.5200 6.8234 0.0938
20.5400 6.8300 0.0907
20.5600 6.8367 0.1011
20.5800 6.8433 0.0880
20.6000 6.8500 0.0966
20.6200 6.8566 0.0971
20.6400 6.8633 0.0866
20.6600 6.8701 0.0991
20.6800 6.8768 0.0976
20.7000 6.8834 0.0872
20.7200 6.8901 0.0989
20.7400 6.8968 0.0950
20.7600 6.9033 0.0912
20.7800 6.9100 0.1019
20.8000 6.9166 0.0946
20.8200 6.9234 0.0916
20.8400 6.9301 0.0970
20.8600 6.9368 0.0949
20.8800 6.9434 0.0905
20.9000 6.9501 0.0986
20.9200 6.9568 0.0940
20.9400 6.9634 0.0885
20.9600 6.9700 0.0939
20.9800 6.9766 0.0992
21.0000 6.9833 0.0905
21.0200 6.9900 0.0922
21.0400 6.9967 0.0994
21.0600 7.0034 0.0928
21.0800 7.0101 0.0922
21.1000 7.0167 0.0950
21.1200 7.0234 0.0886
21.1400 7.0299 0.0976
21.1600 7.0366 0.0957
21.1800 7.0433 0.0869
21.2000 7.0500 0.0974
21.2200 7.0567 0.0949
21.2400 7.0634 0.0889
21.2600 7.0701 0.0975
21.2800 7.0767 0.0951
21.3000 7.0834 0.0893
21.3200 7.0900 0.1015
21.3400 7.0967 0.0858
21.3600 7.1034 0.0938
21.3800 7.1101 0.1002
21.4000 7.1167 0.0862
21.4200 7.1234 0.0935
21.4400 7.1301 0.1018
21.4600 7.1368 0.0903
21.4800 7.1434 0.0942
21.5000 7.1500 0.0955
21.5200 7.1566 0.0935
21.5400 7.1633 0.0916
21.5600 7.1700 0.0950
21.5800 7.1767 0.0935
21.6000 7.1834 0.0888
21.6200 7.1901 0.0954
21.6400 7.1968 0.0965
21.6600 7.2034 0.0930
21.6800 7.2100 0.0951
21.7000 7.2166 0.0995
21.7200 7.2233 0.0876
21.7400 7.2301 0.0917
21.7600 7.2368 0.0938
21.7800 7.2434 0.0917
21.8000 7.2501 0.0935
21.8200 7.2568 0.0952
21.8400 7.2634 0.0905
21.8600 7.2700 0.0990
21.8800 7.2766 0.0941
21.9000 7.2833 0.0887
21.9200 7.2900 0.0960
21.9400 7.2967 0.0934
21.9600 7.3034 0.0920
21.9800 7.3101 0.0980
22.0000 7.3167 0.0945
22.0200 7.3234 0.0860
22.0400 7.3300 0.0938
22.0600 7.3366 0.0973
22.0800 7.3433 0.0899
22.1000 7.3500 0.0929
22.1200 7.3567 0.0949
22.1400 7.3635 0.0879
22.1600 7.3702 0.0953
22.1800 7.3768 0.0914
22.2000 7.3834 0.0883
22.2200 7.3900 0.0949
22.2400 7.3966 0.0915
22.2600 7.4033 0.0874
22.2800 7.4101 0.0983
22.3000 7.4168 0.0847
22.3200 7.4235 0.0888
22.3400 7.4301 0.0951
22.3600 7.4368 0.0903
22.3800 7.4434 0.0919
22.4000 7.4500 0.0963
22.4200 7.4566 0.0903
22.4400 7.4633 0.0948
22.4600 7.4700 0.0948
22.4800 7.4767 0.0888
22.5000 7.4834 0.0956
22.5200 7.4900 0.0963
22.5400 7.4967 0.0853
22.5600 7.5034 0.0914
22.5800 7.5100 0.0965
22.6000 7.5166 0.0901
22.6200 7.5233 0.0918
22.6400 7.5300 0.0959
22.6600 7.5367 0.0886
22.6800 7.5434 0.0917
22.7000 7.5501 0.0961
22.7200 7.5567 0.0898
22.7400 7.5634 0.0926
22.7600 7.5700 0.0945
22.7800 7.5766 0.0910
22.8000 7.5833 0.0905
22.8200 7.5901 0.0996
22.8400 7.5968 0.0892
22.8600 7.6034 0.0898
22.8800 7.6101 0.0941
22.9000 7.6168 0.0966
22.9200 7.6234 0.0927
22.9400 7.6300 0.0945
22.9600 7.6367 0.0918
22.9800 7.6434 0.0916
23.0000 7.6500 0.0995
23.0200 7.6567 0.0875
23.0400 7.6634 0.0913
23.0600 7.6701 0.0979
23.0800 7.6768 0.0905
23.1000 7.6834 0.0875
23.1200 7.6900 0.0992
23.1400 7.6966 0.0955
23.1600 7.7033 0.0915
23.1800 7.7100 0.0984
23.2000 7.7167 0.0954
23.2200 7.7234 0.0935
23.2400 7.7301 0.0987
23.2600 7.7368 0.0866
23.2800 7.7434 0.0946
23.3000 7.7500 0.0993
23.3200 7.7566 0.0911
23.3400 7.7633 0.0953
23.3600 7.7700 0.0959
23.3800 7.7767 0.0905
23.4000 7.7834 0.0913
23.4200 7.7900 0.0973
23.4400 7.7967 0.0908
23.4600 7.8034 0.0953
23.4800 7.8100 0.0959
23.5000 7.8167 0.0913
23.5200 7.8233 0.0935
23.5400 7.8300 0.0946
23.5600 7.8367 0.0894
23.5800 7.8434 0.0950
23.6000 7.8501 0.0958
23.6200 7.8568 0.0886
23.6400 7.8634 0.0892
23.6600 7.8700 0.0984
23.6800 7.8767 0.0924
23.7000 7.8833 0.0923
23.7200 7.8900 0.0981
23.7400 7.8967 0.0890
23.7600 7.9034 0.0877
23.7800 7.9101 0.1006
23.8000 7.9168 0.0915
23.8200 7.9234 0.0908
23.8400 7.9300 0.0983
23.8600 7.9366 0.0893
23.8800 7.9433 0.0890
23.9000 7.9500 0.0982
23.9200 7.9567 0.0925
23.9400 7.9634 0.0897
23.9600 7.9701 0.0975
23.9800 7.9767 0.0875
24.0000 7.9834 0.0928
24.0200 7.9900 0.0968
24.0400 7.9966 0.0919
24.0600 8.0033 0.0915
24.0800 8.0100 0.0977
24.1000 8.0167 0.0927
24.1200 8.0234 0.0911
24.1400 8.0300 0.0953
24.1600 8.0367 0.0926
24.1800 8.0434 0.0853
24.2000 8.0500 0.0964
24.2200 8.0566 0.0921
24.2400 8.0633 0.0899
24.2600 8.0700 0.0982
24.2800 8.0767 0.0880
24.3000 8.0834 0.0966
24.3200 8.0901 0.0972
24.3400 8.0968 0.0866
24.3600 8.1034 0.0926
24.3800 8.1100 0.0990
24.4000 8.1166 0.0863
24.4200 8.1233 0.0924
24.4400 8.1300 0.0992
24.4600 8.1367 0.0924
24.4800 8.1434 0.0881
24.5000 8.1501 0.0970
24.5200 8.1567 0.0846
24.5400 8.1634 0.0953
24.5600 8.1700 0.1006
24.5800 8.1766 0.0872
24.6000 8.1833 0.0937
24.6200 8.1900 0.1008
24.6400 8.1967 0.0877
24.6600 8.2034 0.0930
24.6800 8.2101 0.0992
24.7000 8.2167 0.0901
24.7200 8.2234 0.0969
24.7400 8.2300 0.0956
24.7600 8.2366 0.0839
24.7800 8.2433 0.0971
24.8000 8.2500 0.0960
24.8200 8.2567 0.0800
24.8400 8.2634 0.0972
24.8600 8.2701 0.0987
24.8800 8.2767 0.0834
24.9000 8.2834 0.0931
24.9200 8.2900 0.0975
24.9400 8.2966 0.0863
24.9600 8.3033 0.0968
24.9800 8.3100 0.0903
25.0000 8.3167 0.0901
25.0200 8.3234 0.0991
25.0400 8.3301 0.0924
25.0600 8.3368 0.0880
25.0800 8.3434 0.0968
25.1000 8.3501 0.0929
25.1200 8.3567 0.0887
25.1400 8.3633 0.0947
25.1600 8.3700 0.0959
25.1800 8.3767 0.0898
25.2000 8.3834 0.0924
25.2200 8.3901 0.0968
25.2400 8.3968 0.0887
25.2600 8.4035 0.0956
25.2800 8.4101 0.0914
25.3000 8.4166 0.0936
25.3200 8.4233 0.0948
25.3400 8.4300 0.0957
25.3600 8.4367 0.0919
25.3800 8.4434 0.0917
25.4000 8.4501 0.0975
25.4200 8.4567 0.0935
25.4400 8.4634 0.0891
25.4600 8.4700 0.0974
25.4800 8.4766 0.0943
25.5000 8.4833 0.0950
25.5200 8.4900 0.0953
25.5400 8.4967 0.0907
25.5600 8.5033 0.0907
25.5800 8.5100 0.0974
25.6000 8.5167 0.0934
25.6200 8.5234 0.0903
25.6400 8.5300 0.1004
25.6600 8.5367 0.0912
25.6800 8.5433 0.0907
25.7000 8.5500 0.1011
25.7200 8.5567 0.0925
25.7400 8.5634 0.0942
25.7600 8.5701 0.0999
25.7800 8.5768 0.0880
25.8000 8.5835 0.0948
25.8200 8.5901 0.0934
25.8400 8.5966 0.0905
25.8600 8.6033 0.0966
25.8800 8.6100 0.0999
25.9000 8.6167 0.0825
25.9200 8.6234 0.0961
25.9400 8.6301 0.0996
25.9600 8.6368 0.0833
25.9800 8.6434 0.0933
26.0000 8.6501 0.0970
26.0200 8.6567 0.0883
26.0400 8.6633 0.0967
26.0600 8.6700 0.0970
26.0800 8.6767 0.0866
26.1000 8.6834 0.0988
26.1200 8.6901 0.0954
26.1400 8.6968 0.0815
26.1600 8.7034 0.0965
26.1800 8.7100 0.0987
26.2000 8.7166 0.0844
26.2200 8.7233 0.0996
26.2400 8.7299 0.0945
26.2600 8.7367 0.0845
26.2800 8.7434 0.0966
26.3000 8.7500 0.0981
26.3200 8.7567 0.0822
26.3400 8.7633 0.0954
26.3600 8.7699 0.0934
26.3800 8.7766 0.0860
26.4000 8.7833 0.0955
26.4200 8.7900 0.0935
26.4400 8.7967 0.0870
26.4600 8.8034 0.0949
26.4800 8.8101 0.0907
26.5000 8.8168 0.0884
26.5200 8.8235 0.1011
26.5400 8.8301 0.0938
26.5600 8.8367 0.0894
26.5800 8.8434 0.0967
26.6000 8.8500 0.0977
26.6200 8.8567 0.0887
26.6400 8.8634 0.0938
26.6600 8.8701 0.0934
26.6800 8.8768 0.0947
26.7000 8.8835 0.0914
26.7200 8.8901 0.0897
26.7400 8.8967 0.0971
26.7600 8.9033 0.0902
26.7800 8.9099 0.0944
26.8000 8.9167 0.0996
26.8200 8.9234 0.0872
26.8400 8.9300 0.1017
26.8600 8.9367 0.0911
26.8800 8.9434 0.0874
26.9000 8.9500 0.0991
26.9200 8.9566 0.0884
26.9400 8.9633 0.0880
26.9600 8.9700 0.1018
26.9800 8.9767 0.0895
27.0000 8.9834 0.0858
27.0200 8.9901 0.0996
27.0400 8.9967 0.0856
27.0600 9.0034 0.0925
27.0800 9.0101 0.0984
27.1000 9.0167 0.0875
27.1200 9.0233 0.0954
27.1400 9.0300 0.0964
27.1600 9.0367 0.0853
27.1800 9.0434 0.0970
27.2000 9.0501 0.0926
27.2200 9.0568 0.0872
27.2400 9.0635 0.0971
27.2600 9.0701 0.0932
27.2800 9.0767 0.0897
27.3000 9.0833 0.0991
27.3200 9.0900 0.0945
27.3400 9.0967 0.0953
27.3600 9.1034 0.0923
27.3800 9.1101 0.0908
27.4000 9.1168 0.0954
27.4200 9.1234 0.0901
27.4400 9.1300 0.0929
27.4600 9.1366 0.0936
27.4800 9.1433 0.0911
27.5000 9.1500 0.0919
27.5200 9.1567 0.0944
27.5400 9.1634 0.0889
27.5600 9.1700 0.0931
27.5800 9.1767 0.0909
27.6000 9.1834 0.0932
27.6200 9.1900 0.0951
27.6400 9.1967 0.0903
27.6600 9.2033 0.0922
27.6800 9.2099 0.0949
27.7000 9.2166 0.0870
27.7200 9.2233 0.0927
27.7400 9.2300 0.0937
27.7600 9.2367 0.0898
27.7800 9.2434 0.0863
27.8000 9.2501 0.0936
27.8200 9.2567 0.0920
27.8400 9.2633 0.0949
27.8600 9.2700 0.0919
27.8800 9.2767 0.0906
27.9000 9.2834 0.0956
27.9200 9.2901 0.0862
27.9400 9.2968 0.0947
27.9600 9.3034 0.0916
27.9800 9.3101 0.0901
28.0000 9.3167 0.0925
28.0200 9.3233 0.0910
28.0400 9.3300 0.0930
28.0600 9.3367 0.0942
28.0800 9.3434 0.0877
28.1000 9.3501 0.0945
28.1200 9.3568 0.0915
28.1400 9.3634 0.0917
28.1600 9.3701 0.0950
28.1800 9.3767 0.0953
28.2000 9.3833 0.0873
28.2200 9.3900 0.0951
28.2400 9.3967 0.0941
28.2600 9.4034 0.0859
28.2800 9.4101 0.0992
28.3000 9.4167 0.0902
28.3200 9.4234 0.0846
28.3400 9.4301 0.0968
28.3600 9.4366 0.0913
28.3800 9.4432 0.0862
28.4000 9.4499 0.0987
28.4200 9.4567 0.0860
28.4400 9.4634 0.0847
28.4600 9.4700 0.0986
28.4800 9.4767 0.0897
28.5000 9.4834 0.0884
28.5200 9.4900 0.0989
28.5400 9.4967 0.0870
28.5600 9.5033 0.0915
28.5800 9.5100 0.0980
28.6000 9.5167 0.0891
28.6200 9.5234 0.0890
28.6400 9.5301 0.0963
28.6600 9.5368 0.0869
28.6800 9.5435 0.0908
28.7000 9.5501 0.0957
28.7200 9.5567 0.0857
28.7400 9.5633 0.0941
28.7600 9.5700 0.0926
28.7800 9.5767 0.0892
28.8000 9.5834 0.0984
28.8200 9.5901 0.0909
28.8400 9.5968 0.0885
28.8600 9.6034 0.0959
28.8800 9.6100 0.0824
28.9000 9.6166 0.0986
28.9200 9.6233 0.0937
28.9400 9.6299 0.0872
28.9600 9.6367 0.0964
28.9800 9.6434 0.0949
29.0000 9.6501 0.0839
29.0200 9.6567 0.0977
29.0400 9.6634 0.0914
29.0600 9.6701 0.0858
29.0800 9.6767 0.0972
29.1000 9.6833 0.0902
29.1200 9.6900 0.0875
29.1400 9.6967 0.1002
29.1600 9.7034 0.0859
29.1800 9.7100 0.0854
29.2000 9.7167 0.0962
29.2200 9.7234 0.0927
29.2400 9.7301 0.0879
29.2600 9.7367 0.0942
29.2800 9.7433 0.0897
29.3000 9.7500 0.0874
29.3200 9.7567 0.0944
29.3400 9.7634 0.0932
29.3600 9.7701 0.0916
29.3800 9.7768 0.0909
29.4000 9.7834 0.0901
29.4200 9.7901 0.0870
29.4400 9.7967 0.0939
29.4600 9.8033 0.0939
29.4800 9.8100 0.0918
29.5000 9.8167 0.0923
29.5200 9.8234 0.0917
29.5400 9.8301 0.0894
29.5600 9.8368 0.0917
29.5800 9.8434 0.0900
29.6000 9.8501 0.0860
29.6200 9.8567 0.0934
29.6400 9.8633 0.0974
29.6600 9.8700 0.0873
29.6800 9.8767 0.0936
29.7000 9.8834 0.0979
29.7200 9.8900 0.0806
29.7400 9.8967 0.0948
29.7600 9.9034 0.0932
29.7800 9.9101 0.0814
29.8000 9.9167 0.0951
29.8200 9.9233 0.0997
29.8400 9.9299 0.0852
29.8600 9.9366 0.0988
29.8800 9.9434 0.0909
29.9000 9.9501 0.0863
29.9200 9.9567 0.0981
29.9400 9.9634 0.0925
29.9600 9.9701 0.0877
29.9800 9.9767 0.0977
30.0000 9.9833 0.0905
30.0200 9.9900 0.0886
30.0400 9.9967 0.0951
30.0600 10.0034 0.0906
30.0800 10.0101 0.0913
30.1000 10.0168 0.0939
30.1200 10.0234 0.0916
30.1400 10.0301 0.0907
30.1600 10.0367 0.0941
30.1800 10.0433 0.0972
30.2000 10.0500 0.0901
30.2200 10.0567 0.0918
30.2400 10.0634 0.0965
30.2600 10.0701 0.0898
30.2800 10.0768 0.0913
30.3000 10.0834 0.0985
30.3200 10.0901 0.0883
30.3400 10.0967 0.0888
30.3600 10.1033 0.1035
30.3800 10.1099 0.0913
30.4000 10.1166 0.0938
30.4200 10.1233 0.0946
30.4400 10.1300 0.0838
30.4600 10.1367 0.0966
30.4800 10.1434 0.0973
30.5000 10.1501 0.0811
30.5200 10.1567 0.0958
30.5400 10.1633 0.0995
30.5600 10.1699 0.0813
30.5800 10.1766 0.0985
30.6000 10.1833 0.0954
30.6200 10.1900 0.0815
30.6400 10.1967 0.0960
30.6600 10.2034 0.0980
30.6800 10.2100 0.0859
30.7000 10.2167 0.0968
30.7200 10.2233 0.0932
30.7400 10.2300 0.0877
30.7600 10.2367 0.0972
30.7800 10.2434 0.0940
30.8000 10.2501 0.0870
30.8200 10.2567 0.0989
30.8400 10.2634 0.0884
30.8600 10.2701 0.0864
30.8800 10.2768 0.0958
30.9000 10.2834 0.0933
30.9200 10.2900 0.0880
30.9400 10.2967 0.0957
30.9600 10.3034 0.0918
30.9800 10.3101 0.0854
31.0000 10.3168 0.0973
31.0200 10.3234 0.0919
31.0400 10.3301 0.0845
31.0600 10.3367 0.0944
31.0800 10.3433 0.0940
31.1000 10.3499 0.0883
31.1200 10.3566 0.0955
31.1400 10.3633 0.0903
31.1600 10.3700 0.0847
31.1800 10.3767 0.0953
31.2000 10.3833 0.0945
31.2200 10.3900 0.0784
31.2400 10.3967 0.0964
31.2600 10.4033 0.0925
31.2800 10.4099 0.0871
31.3000 10.4166 0.0936
31.3200 10.4233 0.0872
31.3400 10.4300 0.0905
31.3600 10.4367 0.0940
31.3800 10.4434 0.0877
31.4000 10.4501 0.0887
31.4200 10.4567 0.0943
31.4400 10.4633 0.0920
31.4600 10.4700 0.0868
31.4800 10.4767 0.0931
31.5000 10.4834 0.0913
31.5200 10.4901 0.0887
31.5400 10.4968 0.0935
31.5600 10.5034 0.0879
31.5800 10.5101 0.0955
31.6000 10.5167 0.0882
31.6200 10.5233 0.0943
31.6400 10.5300 0.0933
31.6600 10.5367 0.0848
31.6800 10.5434 0.0924
31.7000 10.5501 0.0918
31.7200 10.5567 0.0874
31.7400 10.5634 0.0977
31.7600 10.5701 0.0878
31.7800 10.5768 0.0854
31.8000 10.5834 0.1037
31.8200 10.5900 0.0931
31.8400 10.5967 0.0846
31.8600 10.6034 0.1031
31.8800 10.6100 0.0900
31.9000 10.6167 0.0865
31.9200 10.6234 0.1032
31.9400 10.6301 0.0849
31.9600 10.6367 0.0877
31.9800 10.6433 0.1026
32.0000 10.6499 0.0909
32.0200 10.6566 0.0887
32.0400 10.6633 0.1055
32.0600 10.6700 0.0838
32.0800 10.6767 0.0882
32.1000 10.6834 0.0975
32.1200 10.6901 0.0880
32.1400 10.6967 0.0899
32.1600 10.7033 0.1060
32.1800 10.7100 0.0830
32.2000 10.7166 0.0932
32.2200 10.7234 0.0990
32.2400 10.7301 0.0890
32.2600 10.7367 0.0930
32.2800 10.7434 0.0938
32.3000 10.7501 0.0838
32.3200 10.7567 0.0921
32.3400 10.7633 0.0995
32.3600 10.7700 0.0873
32.3800 10.7767 0.0941
32.4000 10.7834 0.0918
32.4200 10.7901 0.0842
32.4400 10.7968 0.0953
32.4600 10.8034 0.0949
32.4800 10.8101 0.0858
32.5000 10.8168 0.0937
32.5200 10.8233 0.0904
32.5400 10.8300 0.0886
32.5600 10.8366 0.0957
32.5800 10.8434 0.0912
32.6000 10.8501 0.0843
32.6200 10.8568 0.0957
32.6400 10.8634 0.0915
32.6600 10.8701 0.0913
32.6800 10.8767 0.0945
32.7000 10.8833 0.0912
32.7200 10.8899 0.0916
32.7400 10.8966 0.0903
32.7600 10.9033 0.0935
32.7800 10.9100 0.0913
32.8000 10.9167 0.0911
32.8200 10.9233 0.0949
32.8400 10.9300 0.0883
32.8600 10.9367 0.0884
32.8800 10.9433 0.0944
32.9000 10.9500 0.0891
32.9200 10.9566 0.0953
32.9400 10.9634 0.0897
32.9600 10.9701 0.0876
32.9800 10.9768 0.0957
33.0000 10.9834 0.0934
33.0200 10.9901 0.0840
33.0400 10.9967 0.0936
33.0600 11.0033 0.0881
33.0800 11.0100 0.0915
33.1000 11.0167 0.0947
33.1200 11.0234 0.0873
33.1400 11.0301 0.0912
33.1600 11.0368 0.0946
33.1800 11.0434 0.0847
33.2000 11.0501 0.0944
33.2200 11.0567 0.0937
33.2400 11.0634 0.0848
33.2600 11.0700 0.0987
33.2800 11.0766 0.0902
33.3000 11.0833 0.0891
33.3200 11.0900 0.1006
33.3400 11.0967 0.0894
33.3600 11.1034 0.0933
33.3800 11.1101 0.0988
33.4000 11.1168 0.0804
33.4200 11.1234 0.0897
33.4400 11.1299 0.1002
33.4600 11.1366 0.0894
33.4800 11.1433 0.0881
33.5000 11.1500 0.0985
33.5200 11.1567 0.0843
33.5400 11.1634 0.0937
33.5600 11.1701 0.0986
33.5800 11.1767 0.0816
33.6000 11.1834 0.0907
33.6200 11.1900 0.1019
33.6400 11.1966 0.0797
33.6600 11.2034 0.0921
33.6800 11.2101 0.0983
33.7000 11.2167 0.0850
33.7200 11.2234 0.0877
33.7400 11.2301 0.0979
33.7600 11.2368 0.0841
33.7800 11.2434 0.0874
33.8000 11.2500 0.0985
33.8200 11.2566 0.0867
33.8400 11.2633 0.0890
33.8600 11.2700 0.0960
33.8800 11.2767 0.0857
33.9000 11.2834 0.0910
33.9200 11.2901 0.0994
33.9400 11.2968 0.0854
33.9600 11.3034 0.0897
33.9800 11.3100 0.0959
34.0000 11.3166 0.0870
34.0200 11.3233 0.0897
34.0400 11.3300 0.0952
34.0600 11.3367 0.0853
34.0800 11.3434 0.0887
34.1000 11.3501 0.0956
34.1200 11.3567 0.0900
34.1400 11.3633 0.0864
34.1600 11.3699 0.0948
34.1800 11.3766 0.0912
34.2000 11.3833 0.0840
34.2200 11.3900 0.0993
34.2400 11.3967 0.0871
34.2600 11.4033 0.0887
34.2800 11.4100 0.0966
34.3000 11.4167 0.0866
34.3200 11.4234 0.0843
34.3400 11.4300 0.1013
34.3600 11.4366 0.0883
34.3800 11.4433 0.0837
34.4000 11.4501 0.0958
34.4200 11.4568 0.0935
34.4400 11.4634 0.0828
34.4600 11.4701 0.1024
34.4800 11.4768 0.0899
34.5000 11.4834 0.0868
34.5200 11.4900 0.0990
34.5400 11.4966 0.0880
34.5600 11.5033 0.0844
34.5800 11.5101 0.0976
34.6000 11.5168 0.0874
34.6200 11.5234 0.0851
34.6400 11.5301 0.0975
34.6600 11.5368 0.0880
34.6800 11.5433 0.0834
34.7000 11.5500 0.0978
34.7200 11.5566 0.0901
34.7400 11.5633 0.0858
34.7600 11.5700 0.0946
34.7800 11.5767 0.0933
34.8000 11.5834 0.0877
34.8200 11.5900 0.0926
34.8400 11.5967 0.0937
34.8600 11.6034 0.0818
34.8800 11.6100 0.1012
34.9000 11.6166 0.0933
34.9200 11.6233 0.0844
34.9400 11.6300 0.0959
34.9600 11.6367 0.0917
34.9800 11.6434 0.0844
35.0000 11.6500 0.0974
35.0200 11.6567 0.0938
35.0400 11.6634 0.0845
35.0600 11.6700 0.0965
35.0800 11.6766 0.0938
35.1000 11.6833 0.0873
35.1200 11.6901 0.0974
35.1400 11.6968 0.0955
35.1600 11.7034 0.0854
35.1800 11.7101 0.0957
35.2000 11.7168 0.0940
35.2200 11.7234 0.0877
35.2400 11.7300 0.0940
35.2600 11.7367 0.0971
35.2800 11.7434 0.0870
35.3000 11.7501 0.0956
35.3200 11.7568 0.0945
35.3400 11.7634 0.0867
35.3600 11.7701 0.0951
35.3800 11.7768 0.0955
35.4000 11.7834 0.0842
35.4200 11.7900 0.0952
35.4400 11.7966 0.0984
35.4600 11.8033 0.0879
35.4800 11.8100 0.0922
35.5000 11.8167 0.0993
35.5200 11.8234 0.0875
35.5400 11.8301 0.0869
35.5600 11.8368 0.0998
35.5800 11.8434 0.0868
35.6000 11.8500 0.0915
35.6200 11.8566 0.1003
35.6400 11.8633 0.0886
35.6600 11.8700 0.0911
35.6800 11.8767 0.0975
35.7000 11.8834 0.0848
35.7200 11.8901 0.0946
35.7400 11.8967 0.0996
35.7600 11.9034 0.0852
35.7800 11.9100 0.0899
35.8000 11.9166 0.1050
35.8200 11.9233 0.0876
35.8400 11.9300 0.0920
35.8600 11.9367 0.1010
35.8800 11.9434 0.0885
35.9000 11.9501 0.0938
35.9200 11.9568 0.1034
35.9400 11.9634 0.0825
35.9600 11.9700 0.0959
35.9800 11.9766 0.1020
36.0000 11.9833 0.0864
36.0200 11.9900 0.0943
36.0400 11.9967 0.0990
36.0600 12.0034 0.0841
36.0800 12.0101 0.0975
36.1000 12.0168 0.0959
36.1200 12.0234 0.0844
36.1400 12.0300 0.1013
36.1600 12.0366 0.0980
36.1800 12.0433 0.0825
36.2000 12.0501 0.0971
36.2200 12.0568 0.0974
36.2400 12.0634 0.0833
36.2600 12.0701 0.0988
36.2800 12.0767 0.0933
36.3000 12.0834 0.0877
36.3200 12.0900 0.0951
36.3400 12.0966 0.0968
36.3600 12.1033 0.0864
36.3800 12.1100 0.0954
36.4000 12.1167 0.0969
36.4200 12.1234 0.0909
36.4400 12.1300 0.0982
36.4600 12.1367 0.0952
36.4800 12.1434 0.0913
36.5000 12.1500 0.0921
36.5200 12.1566 0.0969
36.5400 12.1633 0.0904
36.5600 12.1700 0.0903
36.5800 12.1767 0.0923
36.6000 12.1834 0.0955
36.6200 12.1901 0.0904
36.6400 12.1968 0.0920
36.6600 12.2034 0.0902
36.6800 12.2100 0.0874
36.7000 12.2167 0.1007
36.7200 12.2233 0.0958
36.7400 12.2301 0.0811
36.7600 12.2368 0.0984
36.7800 12.2435 0.0905
36.8000 12.2501 0.0877
36.8200 12.2568 0.1011
36.8400 12.2634 0.0903
36.8600 12.2700 0.0830
36.8800 12.2766 0.0984
36.9000 12.2833 0.0921
36.9200 12.2900 0.0889
36.9400 12.2967 0.1024
36.9600 12.3034 0.0876
36.9800 12.3101 0.0858
37.0000 12.3167 0.1000
37.0200 12.3234 0.0891
37.0400 12.3300 0.0871
37.0600 12.3366 0.1021
37.0800 12.3432 0.0868
37.1000 12.3500 0.0861
37.1200 12.3567 0.1013
37.1400 12.3634 0.0923
37.1600 12.3701 0.0872
37.1800 12.3767 0.1012
37.2000 12.3834 0.0864
37.2200 12.3900 0.0869
37.2400 12.3966 0.1009
37.2600 12.4033 0.0940
37.2800 12.4100 0.0839
37.3000 12.4168 0.0968
37.3200 12.4235 0.0944
37.3400 12.4301 0.0899
37.3600 12.4368 0.0950
37.3800 12.4434 0.0895
37.4000 12.4501 0.0941
37.4200 12.4567 0.0984
37.4400 12.4634 0.0902
37.4600 12.4701 0.0922
37.4800 12.4767 0.0966
37.5000 12.4834 0.0875
37.5200 12.4901 0.0921
37.5400 12.4968 0.0966
37.5600 12.5034 0.0916
37.5800 12.5100 0.0918
37.6000 12.5166 0.0953
37.6200 12.5233 0.0910
37.6400 12.5300 0.0980
37.6600 12.5367 0.0913
37.6800 12.5434 0.0939
37.7000 12.5501 0.0928
37.7200 12.5567 0.0920
37.7400 12.5634 0.0894
37.7600 12.5700 0.0947
37.7800 12.5766 0.0931
37.8000 12.5833 0.0922
37.8200 12.5900 0.0927
37.8400 12.5967 0.0877
37.8600 12.6034 0.0968
37.8800 12.6100 0.0907
37.9000 12.6167 0.0862
37.9200 12.6234 0.0956
37.9400 12.6300 0.0908
37.9600 12.6367 0.0908
37.9800 12.6433 0.0971
38.0000 12.6500 0.0896
38.0200 12.6567 0.0898
38.0400 12.6634 0.0936
38.0600 12.6701 0.0938
38.0800 12.6768 0.0875
38.1000 12.6835 0.0918
38.1200 12.6901 0.0898
38.1400 12.6966 0.0941
38.1600 12.7033 0.0913
38.1800 12.7100 0.0932
38.2000 12.7167 0.0933
38.2200 12.7234 0.0949
38.2400 12.7301 0.0886
38.2600 12.7368 0.0918
38.2800 12.7434 0.0952
38.3000 12.7500 0.0895
38.3200 12.7566 0.0947
38.3400 12.7633 0.0955
38.3600 12.7700 0.0915
38.3800 12.7767 0.0877
38.4000 12.7834 0.0965
38.4200 12.7901 0.0913
38.4400 12.7967 0.0902
38.4600 12.8034 0.0949
38.4800 12.8100 0.0933
38.5000 12.8166 0.0889
38.5200 12.8232 0.0989
38.5400 12.8299 0.0892
38.5600 12.8367 0.0890
38.5800 12.8434 0.0993
38.6000 12.8500 0.0891
38.6200 12.8567 0.0864
38.6400 12.8634 0.0967
38.6600 12.8700 0.0897
38.6800 12.8766 0.0873
38.7000 12.8833 0.0974
38.7200 12.8900 0.0926
38.7400 12.8967 0.0863
38.7600 12.9035 0.0977
38.7800 12.9101 0.0922
38.8000 12.9168 0.0855
38.8200 12.9234 0.0997
38.8400 12.9300 0.0899
38.8600 12.9366 0.0877
38.8800 12.9433 0.0923
38.9000 12.9500 0.0952
38.9200 12.9567 0.0877
38.9400 12.9634 0.0918
38.9600 12.9701 0.0909
38.9800 12.9768 0.0915
39.0000 12.9834 0.0895
39.0200 12.9900 0.0918
39.0400 12.9966 0.0903
39.0600 13.0033 0.0936
39.0800 13.0100 0.0921
39.1000 13.0167 0.0898
39.1200 13.0234 0.0925
39.1400 13.0301 0.0938
39.1600 13.0367 0.0911
39.1800 13.0434 0.0883
39.2000 13.0500 0.0887
39.2200 13.0566 0.0907
39.2400 13.0633 0.0904
39.2600 13.0700 0.0918
39.2800 13.0767 0.0895
39.3000 13.0834 0.0878
39.3200 13.0901 0.0949
39.3400 13.0967 0.0847
39.3600 13.1034 0.0900
39.3800 13.1100 0.0958
39.4000 13.1166 0.0860
39.4200 13.1233 0.0917
39.4400 13.1300 0.0975
39.4600 13.1367 0.0816
39.4800 13.1434 0.0928
39.5000 13.1501 0.0953
39.5200 13.1568 0.0821
39.5400 13.1635 0.0941
39.5600 13.1701 0.0932
39.5800 13.1767 0.0863
39.6000 13.1833 0.0963
39.6200 13.1900 0.0972
39.6400 13.1967 0.0859
39.6600 13.2034 0.0873
39.6800 13.2101 0.0935
39.7000 13.2168 0.0852
39.7200 13.2235 0.0874
39.7400 13.2301 0.1008
39.7600 13.2367 0.0819
39.7800 13.2433 0.0971
39.8000 13.2500 0.0983
39.8200 13.2567 0.0842
39.8400 13.2634 0.0941
39.8600 13.2701 0.0998
39.8800 13.2767 0.0830
39.9000 13.2834 0.0929
39.9200 13.2900 0.0973
39.9400 13.2966 0.0866
39.9600 13.3033 0.0922
39.9800 13.3100 0.0982
40.0000 13.3167 0.0859
40.0200 13.3234 0.0951
40.0400 13.3300 0.1006
40.0600 13.3367 0.0876
40.0800 13.3434 0.0919
40.1000 13.3501 0.1015
40.1200 13.3567 0.0825
40.1400 13.3633 0.0945
40.1600 13.3700 0.1018
40.1800 13.3767 0.0849
40.2000 13.3834 0.0924
40.2200 13.3901 0.0975
40.2400 13.3968 0.0866
40.2600 13.4035 0.0909
40.2800 13.4101 0.1047
40.3000 13.4167 0.0839
40.3200 13.4233 0.0910
40.3400 13.4300 0.1037
40.3600 13.4367 0.0829
40.3800 13.4434 0.0903
40.4000 13.4501 0.1079
40.4200 13.4568 0.0804
40.4400 13.4634 0.0896
40.4600 13.4701 0.1046
40.4800 13.4767 0.0853
40.5000 13.4833 0.0933
40.5200 13.4900 0.1020
40.5400 13.4967 0.0838
40.5600 13.5034 0.0918
40.5800 13.5101 0.1060
40.6000 13.5167 0.0845
40.6200 13.5234 0.0916
40.6400 13.5301 0.1051
40.6600 13.5367 0.0810
40.6800 13.5433 0.0945
40.7000 13.5499 0.1053
40.7200 13.5566 0.0834
40.7400 13.5634 0.0955
40.7600 13.5700 0.0991
40.7800 13.5767 0.0830
40.8000 13.5834 0.0911
40.8200 13.5900 0.1033
40.8400 13.5966 0.0810
40.8600 13.6032 0.0918
40.8800 13.6100 0.1006
40.9000 13.6167 0.0856
40.9200 13.6234 0.0919
40.9400 13.6301 0.0957
40.9600 13.6368 0.0895
40.9800 13.6434 0.0907
41.0000 13.6501 0.0986
41.0200 13.6567 0.0888
41.0400 13.6634 0.0931
41.0600 13.6700 0.0988
41.0800 13.6767 0.0852
41.1000 13.6834 0.0967
41.1200 13.6901 0.0990
41.1400 13.6968 0.0854
41.1600 13.7034 0.0946
41.1800 13.7101 0.0967
41.2000 13.7167 0.0894
41.2200 13.7233 0.0926
41.2400 13.7300 0.1007
41.2600 13.7367 0.0871
41.2800 13.7434 0.0919
41.3000 13.7500 0.0932
41.3200 13.7567 0.0921
41.3400 13.7634 0.0902
41.3600 13.7700 0.0911
41.3800 13.7766 0.0961
41.4000 13.7833 0.0919
41.4200 13.7900 0.0917
41.4400 13.7967 0.1009
41.4600 13.8034 0.0870
41.4800 13.8101 0.0915
41.5000 13.8167 0.0999
41.5200 13.8234 0.0884
41.5400 13.8301 0.0906
41.5600 13.8367 0.0982
41.5800 13.8433 0.0858
41.6000 13.8500 0.0927
41.6200 13.8567 0.1037
41.6400 13.8634 0.0824
41.6600 13.8701 0.1000
41.6800 13.8768 0.1037
41.7000 13.8834 0.0789
41.7200 13.8901 0.0982
41.7400 13.8967 0.1113
41.7600 13.9033 0.0788
41.7800 13.9100 0.1003
41.8000 13.9167 0.1061
41.8200 13.9234 0.0765
41.8400 13.9301 0.1020
41.8600 13.9368 0.1042
41.8800 13.9434 0.0789
41.9000 13.9501 0.1039
41.9200 13.9566 0.0973
41.9400 13.9633 0.0852
41.9600 13.9700 0.1090
41.9800 13.9767 0.0951
42.0000 13.9834 0.0825
42.0200 13.9901 0.1074
42.0400 13.9967 0.0975
42.0600 14.0034 0.0822
42.0800 14.0101 0.1103
42.1000 14.0167 0.0909
42.1200 14.0233 0.0834
42.1400 14.0300 0.1132
42.1600 14.0366 0.0950
42.1800 14.0433 0.0817
42.2000 14.0500 0.1103
42.2200 14.0567 0.0906
42.2400 14.0634 0.0901
42.2600 14.0701 0.1034
42.2800 14.0767 0.0881
42.3000 14.0833 0.0969
42.3200 14.0900 0.1072
42.3400 14.0967 0.0834
42.3600 14.1034 0.0992
42.3800 14.1101 0.1035
42.4000 14.1168 0.0890
42.4200 14.1234 0.0947
42.4400 14.1301 0.0973
42.4600 14.1367 0.0953
42.4800 14.1433 0.0921
42.5000 14.1500 0.0915
42.5200 14.1567 0.1001
42.5400 14.1634 0.0996
42.5600 14.1701 0.0873
42.5800 14.1768 0.0992
42.6000 14.1834 0.0994
42.6200 14.1901 0.0926
42.6400 14.1967 0.0963
42.6600 14.2033 0.0944
42.6800 14.2100 0.0958
42.7000 14.2167 0.0995
42.7200 14.2234 0.0850
42.7400 14.2301 0.1015
42.7600 14.2367 0.1041
42.7800 14.2434 0.0857
42.8000 14.2501 0.0942
42.8200 14.2567 0.1037
42.8400 14.2632 0.0897
42.8600 14.2699 0.0985
42.8800 14.2766 0.1024
42.9000 14.2833 0.0876
42.9200 14.2900 0.0957
42.9400 14.2967 0.0969
42.9600 14.3034 0.0890
42.9800 14.3101 0.0987
43.0000 14.3167 0.0942
43.0200 14.3233 0.0898
43.0400 14.3300 0.1038
43.0600 14.3367 0.0920
43.0800 14.3434 0.0941
43.1000 14.3501 0.0976
43.1200 14.3568 0.0947
43.1400 14.3635 0.0941
43.1600 14.3701 0.0953
43.1800 14.3767 0.0931
43.2000 14.3834 0.0983
43.2200 14.3900 0.0930
43.2400 14.3967 0.0978
43.2600 14.4034 0.0945
43.2800 14.4101 0.0898
43.3000 14.4168 0.0939
43.3200 14.4234 0.1000
43.3400 14.4301 0.0890
43.3600 14.4367 0.0930
43.3800 14.4433 0.1027
43.4000 14.4499 0.0882
43.4200 14.4567 0.0971
43.4400 14.4634 0.0976
43.4600 14.4701 0.0913
43.4800 14.4767 0.1017
43.5000 14.4834 0.0977
43.5200 14.4901 0.0881
43.5400 14.4967 0.1031
43.5600 14.5033 0.0905
43.5800 14.5100 0.0914
43.6000 14.5167 0.1066
43.6200 14.5234 0.0928
43.6400 14.5300 0.0889
43.6600 14.5367 0.1046
43.6800 14.5434 0.0924
43.7000 14.5501 0.0946
43.7200 14.5567 0.1024
43.7400 14.5633 0.0923
43.7600 14.5700 0.0960
43.7800 14.5766 0.0960
43.8000 14.5833 0.0943
43.8200 14.5900 0.1023
43.8400 14.5967 0.0920
43.8600 14.6034 0.0866
43.8800 14.6101 0.1037
43.9000 14.6167 0.0966
43.9200 14.6233 0.0943
43.9400 14.6300 0.0953
43.9600 14.6367 0.0963
43.9800 14.6434 0.0956
44.0000 14.6501 0.0951
44.0200 14.6568 0.0963
44.0400 14.6634 0.0992
44.0600 14.6701 0.0850
44.0800 14.6767 0.0960
44.1000 14.6833 0.1055
44.1200 14.6900 0.0889
44.1400 14.6967 0.0913
44.1600 14.7034 0.1014
44.1800 14.7100 0.0883
44.2000 14.7167 0.0978
44.2200 14.7234 0.1040
44.2400 14.7301 0.0881
44.2600 14.7367 0.0887
44.2800 14.7433 0.1072
44.3000 14.7499 0.0929
44.3200 14.7566 0.0919
44.3400 14.7633 0.1035
44.3600 14.7700 0.0833
44.3800 14.7767 0.0945
44.4000 14.7834 0.1005
44.4200 14.7901 0.0853
44.4400 14.7967 0.0949
44.4600 14.8033 0.1017
44.4800 14.8100 0.0822
44.5000 14.8167 0.1041
44.5200 14.8234 0.1019
44.5400 14.8301 0.0776
44.5600 14.8368 0.0961
44.5800 14.8434 0.1082
44.6000 14.8501 0.0834
44.6200 14.8567 0.0971
44.6400 14.8633 0.0986
44.6600 14.8699 0.0877
44.6800 14.8766 0.0958
44.7000 14.8834 0.0983
44.7200 14.8901 0.0995
44.7400 14.8968 0.0902
44.7600 14.9034 0.0980
44.7800 14.9101 0.0968
44.8000 14.9167 0.0913
44.8200 14.9233 0.0990
44.8400 14.9299 0.0992
44.8600 14.9366 0.0848
44.8800 14.9433 0.1021
44.9000 14.9501 0.1001
44.9200 14.9567 0.0822
44.9400 14.9634 0.1010
44.9600 14.9701 0.0955
44.9800 14.9767 0.0790
45.0000 14.9833 0.1135
45.0200 14.9899 0.0873
45.0400 14.9966 0.0839
45.0600 15.0033 0.1154
45.0800 15.0100 0.0810
45.1000 15.0167 0.0863
45.1200 15.0234 0.1138
45.1400 15.0300 0.0809
45.1600 15.0367 0.0933
45.1800 15.0433 0.1108
45.2000 15.0500 0.0788
45.2200 15.0566 0.1021
45.2400 15.0634 0.1037
45.2600 15.0701 0.0806
45.2800 15.0767 0.1064
45.3000 15.0834 0.1009
45.3200 15.0901 0.0781
45.3400 15.0968 0.1079
45.3600 15.1034 0.0957
45.3800 15.1100 0.0865
45.4000 15.1167 0.1048
45.4200 15.1234 0.0936
45.4400 15.1301 0.0911
45.4600 15.1368 0.1040
45.4800 15.1434 0.0983
45.5000 15.1501 0.0922
45.5200 15.1567 0.0909
45.5400 15.1633 0.1004
45.5600 15.1699 0.0951
45.5800 15.1766 0.0922
45.6000 15.1833 0.1002
45.6200 15.1900 0.0963
45.6400 15.1967 0.0883
45.6600 15.2033 0.0989
45.6800 15.2100 0.0983
45.7000 15.2167 0.0833
45.7200 15.2233 0.1056
45.7400 15.2299 0.1003
45.7600 15.2366 0.0893
45.7800 15.2433 0.1026
45.8000 15.2500 0.0944
45.8200 15.2567 0.0877
45.8400 15.2634 0.1039
45.8600 15.2701 0.0980
45.8800 15.2768 0.0886
45.9000 15.2834 0.0994
45.9200 15.2900 0.0978
45.9400 15.2967 0.0930
45.9600 15.3034 0.1013
45.9800 15.3101 0.0927
46.0000 15.3168 0.0947
46.0200 15.3235 0.0976
46.0400 15.3301 0.0935
46.0600 15.3368 0.0950
46.0800 15.3433 0.0984
46.1000 15.3500 0.0963
46.1200 15.3566 0.0921
46.1400 15.3634 0.1025
46.1600 15.3701 0.0958
46.1800 15.3767 0.0876
46.2000 15.3834 0.0992
46.2200 15.3901 0.0998
46.2400 15.3968 0.0892
46.2600 15.4034 0.0996
46.2800 15.4100 0.0963
46.3000 15.4166 0.0935
46.3200 15.4233 0.0973
46.3400 15.4300 0.0964
46.3600 15.4367 0.0978
46.3800 15.4434 0.0997
46.4000 15.4501 0.0893
46.4200 15.4568 0.0947
46.4400 15.4633 0.1020
46.4600 15.4699 0.0926
46.4800 15.4766 0.0963
46.5000 15.4833 0.0973
46.5200 15.4900 0.0887
46.5400 15.4967 0.0924
46.5600 15.5034 0.0996
46.5800 15.5100 0.0913
46.6000 15.5167 0.0898
46.6200 15.5233 0.0997
46.6400 15.5300 0.0956
46.6600 15.5366 0.0875
46.6800 15.5434 0.1028
46.7000 15.5501 0.0952
46.7200 15.5567 0.0858
46.7400 15.5634 0.0920
46.7600 15.5701 0.1013
46.7800 15.5768 0.0856
46.8000 15.5834 0.0984
46.8200 15.5900 0.1023
46.8400 15.5967 0.0821
46.8600 15.6033 0.1009
46.8800 15.6100 0.1044
46.9000 15.6167 0.0789
46.9200 15.6234 0.1017
46.9400 15.6301 0.1018
46.9600 15.6368 0.0835
46.9800 15.6434 0.1033
47.0000 15.6500 0.1003
47.0200 15.6566 0.0834
47.0400 15.6633 0.1017
47.0600 15.6701 0.0956
47.0800 15.6768 0.0860
47.1000 15.6834 0.1081
47.1200 15.6901 0.0918
47.1400 15.6967 0.0863
47.1600 15.7033 0.1068
47.1800 15.7100 0.0892
47.2000 15.7166 0.0883
47.2200 15.7233 0.1085
47.2400 15.7300 0.0841
47.2600 15.7367 0.0888
47.2800 15.7434 0.1035
47.3000 15.7500 0.0916
47.3200 15.7567 0.0934
47.3400 15.7634 0.0994
47.3600 15.7700 0.0895
47.3800 15.7766 0.0933
47.4000 15.7833 0.0950
47.4200 15.7901 0.0945
47.4400 15.7967 0.1001
47.4600 15.8034 0.0943
47.4800 15.8101 0.0914
47.5000 15.8168 0.0951
47.5200 15.8234 0.0957
47.5400 15.8300 0.0977
47.5600 15.8367 0.0966
47.5800 15.8434 0.0883
47.6000 15.8501 0.1030
47.6200 15.8568 0.0941
47.6400 15.8634 0.0899
47.6600 15.8701 0.1019
47.6800 15.8767 0.0982
47.7000 15.8833 0.0867
47.7200 15.8900 0.1002
47.7400 15.8966 0.0941
47.7600 15.9033 0.0925
47.7800 15.9100 0.1037
47.8000 15.9167 0.0899
47.8200 15.9234 0.0888
47.8400 15.9301 0.1047
47.8600 15.9367 0.0911
47.8800 15.9434 0.0890
47.9000 15.9500 0.1084
47.9200 15.9566 0.0883
47.9400 15.9633 0.0924
47.9600 15.9700 0.1048
47.9800 15.9767 0.0910
48.0000 15.9834 0.0942
48.0200 15.9901 0.1046
48.0400 15.9968 0.0864
48.0600 16.0034 0.1003
48.0800 16.0100 0.1036
48.1000 16.0166 0.0866
48.1200 16.0233 0.0987
48.1400 16.0301 0.1017
48.1600 16.0367 0.0867
48.1800 16.0434 0.0983
48.2000 16.0501 0.0987
48.2200 16.0568 0.0916
48.2400 16.0634 0.0974
48.2600 16.0700 0.0979
48.2800 16.0767 0.0923
48.3000 16.0833 0.1003
48.3200 16.0900 0.0957
48.3400 16.0967 0.0930
48.3600 16.1034 0.0966
48.3800 16.1101 0.0964
48.4000 16.1168 0.1002
48.4200 16.1234 0.0873
48.4400 16.1300 0.0999
48.4600 16.1366 0.1071
48.4800 16.1433 0.0953
48.5000 16.1500 0.0918
48.5200 16.1567 0.1013
48.5400 16.1634 0.0990
48.5600 16.1701 0.0955
48.5800 16.1767 0.0913
48.6000 16.1833 0.1003
48.6200 16.1899 0.0995
48.6400 16.1966 0.0957
48.6600 16.2033 0.0925
48.6800 16.2100 0.0985
48.7000 16.2167 0.1005
48.7200 16.2234 0.0936
48.7400 16.2301 0.0941
48.7600 16.2367 0.1080
48.7800 16.2434 0.0926
48.8000 16.2500 0.0901
48.8200 16.2567 0.1037
48.8400 16.2634 0.0984
48.8600 16.2701 0.0955
48.8800 16.2768 0.0995
48.9000 16.2834 0.0916
48.9200 16.2901 0.0960
48.9400 16.2968 0.1092
48.9600 16.3034 0.0880
48.9800 16.3100 0.0956
49.0000 16.3166 0.1061
49.0200 16.3233 0.0940
49.0400 16.3300 0.0924
49.0600 16.3367 0.1076
49.0800 16.3434 0.0921
49.1000 16.3501 0.0977
49.1200 16.3568 0.0989
49.1400 16.3634 0.0908
49.1600 16.3700 0.0982
49.1800 16.3766 0.1047
49.2000 16.3833 0.0858
49.2200 16.3900 0.0976
49.2400 16.3967 0.1059
49.2600 16.4034 0.0851
49.2800 16.4100 0.0962
49.3000 16.4167 0.1083
49.3200 16.4234 0.0912
49.3400 16.4300 0.0958
49.3600 16.4366 0.1002
49.3800 16.4433 0.0915
49.4000 16.4500 0.1038
49.4200 16.4567 0.0955
49.4400 16.4634 0.0901
49.4600 16.4700 0.1005
49.4800 16.4767 0.0974
49.5000 16.4833 0.0879
49.5200 16.4900 0.1029
49.5400 16.4966 0.0998
49.5600 16.5033 0.0927
49.5800 16.5100 0.1021
49.6000 16.5167 0.0976
49.6200 16.5234 0.0915
49.6400 16.5301 0.1009
49.6600 16.5368 0.0987
49.6800 16.5434 0.0932
49.7000 16.5500 0.1003
49.7200 16.5566 0.1041
49.7400 16.5633 0.0946
49.7600 16.5701 0.0998
49.7800 16.5768 0.0989
49.8000 16.5834 0.0963
49.8200 16.5901 0.1011
49.8400 16.5968 0.0997
49.8600 16.6034 0.0972
49.8800 16.6100 0.0908
49.9000 16.6166 0.1059
49.9200 16.6233 0.0958
49.9400 16.6300 0.0957
49.9600 16.6367 0.1070
49.9800 16.6434 0.0946
50.0000 16.6500 0.0903
50.0200 16.6567 0.1118
50.0400 16.6634 0.0948
50.0600 16.6700 0.0919
50.0800 16.6766 0.1129
50.1000 16.6833 0.0937
50.1200 16.6900 0.0924
50.1400 16.6967 0.1108
50.1600 16.7034 0.0935
50.1800 16.7101 0.0931
50.2000 16.7167 0.1106
50.2200 16.7234 0.0903
50.2400 16.7300 0.0926
50.2600 16.7367 0.1121
50.2800 16.7433 0.0927
50.3000 16.7500 0.0899
50.3200 16.7567 0.1111
50.3400 16.7634 0.0957
50.3600 16.7701 0.0959
50.3800 16.7768 0.1028
50.4000 16.7834 0.0906
50.4200 16.7900 0.1030
50.4400 16.7966 0.1111
50.4600 16.8033 0.0872
50.4800 16.8100 0.1020
50.5000 16.8167 0.1053
50.5200 16.8234 0.0876
50.5400 16.8301 0.1006
50.5600 16.8368 0.1095
50.5800 16.8434 0.0858
50.6000 16.8500 0.0968
50.6200 16.8566 0.1121
50.6400 16.8633 0.0899
50.6600 16.8700 0.0957
50.6800 16.8768 0.1073
50.7000 16.8834 0.0923
50.7200 16.8901 0.1017
50.7400 16.8968 0.1014
50.7600 16.9034 0.0889
50.7800 16.9100 0.1096
50.8000 16.9166 0.0975
50.8200 16.9233 0.0913
50.8400 16.9300 0.1145
50.8600 16.9367 0.0972
50.8800 16.9434 0.0854
50.9000 16.9500 0.1115
50.9200 16.9567 0.0940
50.9400 16.9634 0.0940
50.9600 16.9700 0.1084
50.9800 16.9766 0.0913
51.0000 16.9833 0.0991
51.0200 16.9900 0.1062
51.0400 16.9967 0.0844
51.0600 17.0034 0.1095
51.0800 17.0101 0.1028
51.1000 17.0168 0.0851
51.1200 17.0235 0.1102
51.1400 17.0301 0.0926
51.1600 17.0367 0.0945
51.1800 17.0433 0.1131
51.2000 17.0500 0.0900
51.2200 17.0568 0.0935
51.2400 17.0635 0.1191
51.2600 17.0701 0.0826
51.2800 17.0768 0.0994
51.3000 17.0834 0.1117
51.3200 17.0900 0.0874
51.3400 17.0967 0.1069
51.3600 17.1033 0.1036
51.3800 17.1100 0.0891
51.4000 17.1167 0.1129
51.4200 17.1234 0.0948
51.4400 17.1300 0.0920
51.4600 17.1367 0.1109
51.4800 17.1434 0.0938
51.5000 17.1500 0.0901
51.5200 17.1566 0.1144
51.5400 17.1632 0.0922
51.5600 17.1699 0.0945
51.5800 17.1767 0.1120
51.6000 17.1834 0.0916
51.6200 17.1901 0.1012
51.6400 17.1967 0.1031
51.6600 17.2034 0.0874
51.6800 17.2100 0.1078
51.7000 17.2166 0.1061
51.7200 17.2233 0.0844
51.7400 17.2300 0.1068
51.7600 17.2367 0.1041
51.7800 17.2434 0.0905
51.8000 17.2501 0.1048
51.8200 17.2568 0.0962
51.8400 17.2634 0.0930
51.8600 17.2701 0.1077
51.8800 17.2767 0.0927
51.9000 17.2833 0.1008
51.9200 17.2900 0.1084
51.9400 17.2967 0.0945
51.9600 17.3034 0.1014
51.9800 17.3101 0.1062
52.0000 17.3168 0.0920
52.0200 17.3235 0.1004
52.0400 17.3301 0.1060
52.0600 17.3366 0.0954
52.0800 17.3433 0.1066
52.1000 17.3500 0.1031
52.1200 17.3567 0.0902
52.1400 17.3634 0.1036
52.1600 17.3701 0.1073
52.1800 17.3767 0.0973
52.2000 17.3834 0.1009
52.2200 17.3900 0.0993
52.2400 17.3966 0.1034
52.2600 17.4033 0.1010
52.2800 17.4100 0.1032
52.3000 17.4167 0.0969
52.3200 17.4234 0.1003
52.3400 17.4300 0.1000
52.3600 17.4367 0.1016
52.3800 17.4434 0.0999
52.4000 17.4500 0.1028
52.4200 17.4567 0.1019
52.4400 17.4633 0.1013
52.4600 17.4700 0.1013
52.4800 17.4767 0.1031
52.5000 17.4834 0.1068
52.5200 17.4901 0.1009
52.5400 17.4968 0.0975
52.5600 17.5035 0.1111
52.5800 17.5101 0.1000
52.6000 17.5166 0.0993
52.6200 17.5233 0.1112
52.6400 17.5300 0.0960
52.6600 17.5367 0.0991
52.6800 17.5434 0.1059
52.7000 17.5501 0.1000
52.7200 17.5568 0.0955
52.7400 17.5634 0.1087
52.7600 17.5700 0.1030
52.7800 17.5767 0.1005
52.8000 17.5833 0.1100
52.8200 17.5900 0.1019
52.8400 17.5967 0.0944
52.8600 17.6034 0.1109
52.8800 17.6100 0.1078
52.9000 17.6167 0.0962
52.9200 17.6234 0.1029
52.9400 17.6300 0.1052
52.9600 17.6366 0.0962
52.9800 17.6432 0.1064
53.0000 17.6499 0.1091
53.0200 17.6566 0.0954
53.0400 17.6634 0.1072
53.0600 17.6701 0.1061
53.0800 17.6768 0.0938
53.1000 17.6834 0.1060
53.1200 17.6900 0.1040
53.1400 17.6966 0.0936
53.1600 17.7033 0.1146
53.1800 17.7100 0.1025
53.2000 17.7167 0.0954
53.2200 17.7234 0.1112
53.2400 17.7301 0.1051
53.2600 17.7368 0.0911
53.2800 17.7435 0.1119
53.3000 17.7501 0.1007
53.3200 17.7567 0.0934
53.3400 17.7633 0.1136
53.3600 17.7700 0.1045
53.3800 17.7767 0.0919
53.4000 17.7834 0.1124
53.4200 17.7901 0.1039
53.4400 17.7968 0.0966
53.4600 17.8034 0.1071
53.4800 17.8100 0.1012
53.5000 17.8166 0.0984
53.5200 17.8233 0.1083
53.5400 17.8300 0.1049
53.5600 17.8367 0.0942
53.5800 17.8434 0.1089
53.6000 17.8501 0.1041
53.6200 17.8568 0.0980
53.6400 17.8634 0.1021
53.6600 17.8700 0.1041
53.6800 17.8766 0.1020
53.7000 17.8833 0.1052
53.7200 17.8899 0.1058
53.7400 17.8967 0.1035
53.7600 17.9034 0.1013
53.7800 17.9101 0.1049
53.8000 17.9167 0.0997
53.8200 17.9234 0.1038
53.8400 17.9300 0.1055
53.8600 17.9367 0.0966
53.8800 17.9433 0.1046
53.9000 17.9500 0.1067
53.9200 17.9567 0.0925
53.9400 17.9634 0.1032
53.9600 17.9701 0.1107
53.9800 17.9768 0.0957
54.0000 17.9835 0.1007
54.0200 17.9901 0.1074
54.0400 17.9967 0.0964
54.0600 18.0033 0.1059
54.0800 18.0100 0.1079
54.1000 18.0167 0.0949
54.1200 18.0234 0.1103
54.1400 18.0301 0.1001
54.1600 18.0368 0.0992
54.1800 18.0435 0.1052
54.2000 18.0501 0.1004
54.2200 18.0566 0.0984
54.2400 18.0633 0.1099
54.2600 18.0699 0.1036
54.2800 18.0767 0.1000
54.3000 18.0834 0.1047
54.3200 18.0900 0.1015
54.3400 18.0967 0.0938
54.3600 18.1034 0.1045
54.3800 18.1100 0.1053
54.4000 18.1166 0.0977
54.4200 18.1233 0.0979
54.4400 18.1300 0.1056
54.4600 18.1367 0.1045
54.4800 18.1433 0.0972
54.5000 18.1500 0.1124
54.5200 18.1567 0.1011
54.5400 18.1634 0.0976
54.5600 18.1700 0.1111
54.5800 18.1767 0.1023
54.6000 18.1833 0.0927
54.6200 18.1900 0.1161
54.6400 18.1967 0.0988
54.6600 18.2034 0.0885
54.6800 18.2101 0.1182
54.7000 18.2168 0.1018
54.7200 18.2235 0.0917
54.7400 18.2301 0.1126
54.7600 18.2367 0.0986
54.7800 18.2433 0.1055
54.8000 18.2500 0.1039
54.8200 18.2567 0.0995
54.8400 18.2634 0.1067
54.8600 18.2701 0.1041
54.8800 18.2768 0.1040
54.9000 18.2834 0.1045
54.9200 18.2901 0.1070
54.9400 18.2967 0.1015
54.9600 18.3033 0.1036
54.9800 18.3100 0.1086
55.0000 18.3167 0.1070
55.0200 18.3234 0.0990
55.0400 18.3300 0.1070
55.0600 18.3367 0.1026
55.0800 18.3434 0.1032
55.1000 18.3501 0.1056
55.1200 18.3567 0.1051
55.1400 18.3632 0.1058
55.1600 18.3699 0.1086
55.1800 18.3766 0.1068
55.2000 18.3833 0.1002
55.2200 18.3900 0.1064
55.2400 18.3967 0.1072
55.2600 18.4034 0.1054
55.2800 18.4100 0.1024
55.3000 18.4166 0.1002
55.3200 18.4233 0.1073
55.3400 18.4299 0.1055
55.3600 18.4367 0.1036
55.3800 18.4434 0.1072
55.4000 18.4501 0.1031
55.4200 18.4568 0.1097
55.4400 18.4634 0.1009
55.4600 18.4701 0.1046
55.4800 18.4767 0.1101
55.5000 18.4834 0.1048
55.5200 18.4900 0.1004
55.5400 18.4967 0.1098
55.5600 18.5034 0.1054
55.5800 18.5101 0.1065
55.6000 18.5168 0.1036
55.6200 18.5234 0.1040
55.6400 18.5301 0.1056
55.6600 18.5367 0.1084
55.6800 18.5433 0.1038
55.7000 18.5499 0.1027
55.7200 18.5566 0.1061
55.7400 18.5634 0.1017
55.7600 18.5701 0.1058
55.7800 18.5767 0.1120
55.8000 18.5834 0.1038
55.8200 18.5900 0.0994
55.8400 18.5966 0.1108
55.8600 18.6033 0.1051
55.8800 18.6100 0.1069
55.9000 18.6167 0.1087
55.9200 18.6234 0.1020
55.9400 18.6301 0.1048
55.9600 18.6367 0.1080
55.9800 18.6434 0.1021
56.0000 18.6501 0.1081
56.0200 18.6567 0.1050
56.0400 18.6633 0.1042
56.0600 18.6700 0.1051
56.0800 18.6767 0.1080
56.1000 18.6834 0.1014
56.1200 18.6901 0.1074
56.1400 18.6968 0.1039
56.1600 18.7035 0.1002
56.1800 18.7101 0.1059
56.2000 18.7167 0.1023
56.2200 18.7233 0.1042
56.2400 18.7300 0.1055
56.2600 18.7367 0.1044
56.2800 18.7434 0.1030
56.3000 18.7501 0.1064
56.3200 18.7568 0.1021
56.3400 18.7634 0.1036
56.3600 18.7701 0.1031
56.3800 18.7767 0.1016
56.4000 18.7833 0.1072
56.4200 18.7900 0.1083
56.4400 18.7967 0.1009
56.4600 18.8034 0.1083
56.4800 18.8101 0.0995
56.5000 18.8167 0.1055
56.5200 18.8234 0.1073
56.5400 18.8301 0.0988
56.5600 18.8367 0.1061
56.5800 18.8433 0.1081
56.6000 18.8500 0.1040
56.6200 18.8566 0.1087
56.6400 18.8634 0.1018
56.6600 18.8700 0.1025
56.6800 18.8767 0.1111
56.7000 18.8834 0.1015
56.7200 18.8901 0.1035
56.7400 18.8967 0.1073
56.7600 18.9033 0.1021
56.7800 18.9100 0.1050
56.8000 18.9167 0.1112
56.8200 18.9234 0.0983
56.8400 18.9301 0.1070
56.8600 18.9368 0.1072
56.8800 18.9434 0.1060
56.9000 18.9501 0.1040
56.9200 18.9567 0.1063
56.9400 18.9633 0.1064
56.9600 18.9700 0.1062
56.9800 18.9767 0.1028
57.0000 18.9834 0.1135
57.0200 18.9901 0.1016
57.0400 18.9968 0.1080
57.0600 19.0034 0.1118
57.0800 19.0101 0.1005
57.1000 19.0167 0.1101
57.1200 19.0233 0.1114
57.1400 19.0299 0.1024
57.1600 19.0366 0.1085
57.1800 19.0434 0.1097
57.2000 19.0500 0.0968
57.2200 19.0567 0.1123
57.2400 19.0634 0.1138
57.2600 19.0701 0.0947
57.2800 19.0767 0.1118
57.3000 19.0833 0.1101
57.3200 19.0899 0.0988
57.3400 19.0966 0.1150
57.3600 19.1034 0.1073
57.3800 19.1101 0.0981
57.4000 19.1167 0.1141
57.4200 19.1234 0.1094
57.4400 19.1301 0.0946
57.4600 19.1367 0.1173
57.4800 19.1433 0.1073
57.5000 19.1500 0.0978
57.5200 19.1567 0.1191
57.5400 19.1634 0.1064
57.5600 19.1701 0.0971
57.5800 19.1768 0.1194
57.6000 19.1835 0.1047
57.6200 19.1901 0.0994
57.6400 19.1968 0.1144
57.6600 19.2033 0.1067
57.6800 19.2100 0.1027
57.7000 19.2167 0.1131
57.7200 19.2234 0.1108
57.7400 19.2301 0.1010
57.7600 19.2368 0.1144
57.7800 19.2434 0.1084
57.8000 19.2501 0.1033
57.8200 19.2567 0.1149
57.8400 19.2633 0.1086
57.8600 19.2700 0.1061
57.8800 19.2767 0.1157
57.9000 19.2834 0.1052
57.9200 19.2901 0.1040
57.9400 19.2967 0.1165
57.9600 19.3034 0.1089
57.9800 19.3101 0.0995
58.0000 19.3167 0.1168
58.0200 19.3233 0.1086
58.0400 19.3299 0.1044
58.0600 19.3366 0.1134
58.0800 19.3434 0.1070
58.1000 19.3500 0.1077
58.1200 19.3567 0.1106
58.1400 19.3634 0.1042
58.1600 19.3701 0.1087
58.1800 19.3767 0.1119
58.2000 19.3833 0.1044
58.2200 19.3900 0.1118
58.2400 19.3966 0.1115
58.2600 19.4034 0.1071
58.2800 19.4101 0.1076
58.3000 19.4167 0.1106
58.3200 19.4234 0.1052
58.3400 19.4301 0.1073
58.3600 19.4367 0.1062
58.3800 19.4433 0.1101
58.4000 19.4500 0.1075
58.4200 19.4567 0.1096
58.4400 19.4634 0.1012
58.4600 19.4701 0.1076
58.4800 19.4768 0.1124
58.5000 19.4834 0.1041
58.5200 19.4901 0.1067
58.5400 19.4967 0.1075
58.5600 19.5033 0.1052
58.5800 19.5100 0.1099
58.6000 19.5167 0.1078
58.6200 19.5233 0.1064
58.6400 19.5300 0.1103
58.6600 19.5367 0.1081
58.6800 19.5434 0.1096
58.7000 19.5501 0.1083
58.7200 19.5567 0.1081
58.7400 19.5633 0.1107
58.7600 19.5699 0.1128
58.7800 19.5766 0.1028
58.8000 19.5833 0.1082
58.8200 19.5900 0.1069
58.8400 19.5967 0.1080
58.8600 19.6034 0.1109
58.8800 19.6101 0.1089
58.9000 19.6167 0.1046
58.9200 19.6233 0.1110
58.9400 19.6299 0.1093
58.9600 19.6367 0.1107
58.9800 19.6434 0.1067
59.0000 19.6501 0.1114
59.0200 19.6568 0.1115
59.0400 19.6635 0.1075
59.0600 19.6701 0.1128
59.0800 19.6768 0.1067
59.1000 19.6833 0.1087
59.1200 19.6900 0.1165
59.1400 19.6966 0.1111
59.1600 19.7034 0.1058
59.1800 19.7101 0.1106
59.2000 19.7168 0.1082
59.2200 19.7234 0.1059
59.2400 19.7301 0.1126
59.2600 19.7367 0.1139
59.2800 19.7434 0.1060
59.3000 19.7500 0.1153
59.3200 19.7566 0.1112
59.3400 19.7633 0.1100
59.3600 19.7700 0.1104
59.3800 19.7767 0.1095
59.4000 19.7834 0.1108
59.4200 19.7901 0.1118
59.4400 19.7967 0.1058
59.4600 19.8033 0.1123
59.4800 19.8099 0.1140
59.5000 19.8166 0.1095
59.5200 19.8233 0.1088
59.5400 19.8301 0.1101
59.5600 19.8367 0.1087
59.5800 19.8434 0.1182
59.6000 19.8500 0.1120
59.6200 19.8567 0.1059
59.6400 19.8633 0.1184
59.6600 19.8700 0.1078
59.6800 19.8767 0.1094
59.7000 19.8834 0.1117
59.7200 19.8901 0.1119
59.7400 19.8968 0.1118
59.7600 19.9034 0.1087
59.7800 19.9101 0.1086
59.8000 19.9168 0.1126
59.8200 19.9234 0.1096
59.8400 19.9300 0.1143
59.8600 19.9366 0.1115
59.8800 19.9434 0.1082
59.9000 19.9501 0.1106
59.9200 19.9567 0.1152
59.9400 19.9634 0.1076
59.9600 19.9701 0.1147
59.9800 19.9767 0.1121
60.0000 19.9833 0.1081
60.0200 19.9899 0.1170
60.0400 19.9966 0.1094
60.0510 20.0002 0.0973
