Raw Data
Time Displacement Force
(s) (mm) (N)
0.0000 0.0001 0.5362
0.0200 0.0001 0.5498
0.0400 0.0009 0.5495
0.0600 0.0041 0.5726
0.0800 0.0096 0.5417
0.1000 0.0154 0.5121
0.1200 0.0213 0.5670
0.1400 0.0280 0.5502
0.1600 0.0353 0.5128
0.1800 0.0428 0.5511
0.2000 0.0499 0.5341
0.2200 0.0568 0.5206
0.2400 0.0635 0.5623
0.2600 0.0701 0.5371
0.2800 0.0768 0.5194
0.3000 0.0835 0.5611
0.3200 0.0902 0.5405
0.3400 0.0969 0.5305
0.3600 0.1036 0.5618
0.3800 0.1103 0.5345
0.4000 0.1169 0.5412
0.4200 0.1236 0.5603
0.4400 0.1303 0.5460
0.4600 0.1370 0.5543
0.4800 0.1436 0.5465
0.5000 0.1503 0.5455
0.5200 0.1570 0.5651
0.5400 0.1636 0.5508
0.5600 0.1702 0.5501
0.5800 0.1769 0.5633
0.6000 0.1836 0.5546
0.6200 0.1903 0.5635
0.6400 0.1970 0.5673
0.6600 0.2037 0.5526
0.6800 0.2103 0.5735
0.7000 0.2170 0.5688
0.7200 0.2236 0.5527
0.7400 0.2302 0.5837
0.7600 0.2369 0.5714
0.7800 0.2436 0.5619
0.8000 0.2503 0.5795
0.8200 0.2569 0.5736
0.8400 0.2636 0.5798
0.8600 0.2703 0.5800
0.8800 0.2770 0.5688
0.9000 0.2836 0.5865
0.9200 0.2902 0.5847
0.9400 0.2968 0.5801
0.9600 0.3035 0.5902
0.9800 0.3102 0.5755
1.0000 0.3169 0.5810
1.0200 0.3236 0.6008
1.0400 0.3303 0.5788
1.0600 0.3369 0.5778
1.0800 0.3436 0.5966
1.1000 0.3502 0.5756
1.1200 0.3568 0.5916
1.1400 0.3635 0.5995
1.1600 0.3703 0.5733
1.1800 0.3770 0.5889
1.2000 0.3837 0.5965
1.2200 0.3903 0.5766
1.2400 0.3970 0.5949
1.2600 0.4037 0.5899
1.2800 0.4103 0.5727
1.3000 0.4169 0.5958
1.3200 0.4236 0.5907
1.3400 0.4303 0.5749
1.3600 0.4370 0.5980
1.3800 0.4436 0.5827
1.4000 0.4503 0.5773
1.4200 0.4570 0.5925
1.4400 0.4636 0.5796
1.4600 0.4702 0.5814
1.4800 0.4768 0.5913
1.5000 0.4835 0.5753
1.5200 0.4902 0.5821
1.5400 0.4969 0.5859
1.5600 0.5036 0.5770
1.5800 0.5103 0.5776
1.6000 0.5170 0.5783
1.6200 0.5236 0.5774
1.6400 0.5302 0.5779
1.6600 0.5368 0.5770
1.6800 0.5435 0.5766
1.7000 0.5503 0.5750
1.7200 0.5570 0.5730
1.7400 0.5636 0.5779
1.7600 0.5703 0.5708
1.7800 0.5770 0.5740
1.8000 0.5836 0.5762
1.8200 0.5903 0.5686
1.8400 0.5969 0.5700
1.8600 0.6036 0.5780
1.8800 0.6103 0.5648
1.9000 0.6170 0.5698
1.9200 0.6236 0.5766
1.9400 0.6303 0.5704
1.9600 0.6370 0.5681
1.9800 0.6437 0.5719
2.0000 0.6503 0.5688
2.0200 0.6569 0.5740
2.0400 0.6635 0.5728
2.0600 0.6703 0.5667
2.0800 0.6770 0.5689
2.1000 0.6837 0.5722
2.1200 0.6903 0.5666
2.1400 0.6970 0.5718
2.1600 0.7036 0.5685
2.1800 0.7102 0.5692
2.2000 0.7168 0.5674
2.2200 0.7235 0.5730
2.2400 0.7303 0.5703
2.2600 0.7370 0.5665
2.2800 0.7436 0.5699
2.3000 0.7503 0.5676
2.3200 0.7569 0.5693
2.3400 0.7636 0.5691
2.3600 0.7702 0.5663
2.3800 0.7769 0.5691
2.4000 0.7835 0.5723
2.4200 0.7902 0.5656
2.4400 0.7969 0.5661
2.4600 0.8036 0.5720
2.4800 0.8103 0.5659
2.5000 0.8170 0.5649
2.5200 0.8237 0.5671
2.5400 0.8303 0.5703
2.5600 0.8369 0.5644
2.5800 0.8435 0.5647
2.6000 0.8503 0.5673
2.6200 0.8570 0.5621
2.6400 0.8637 0.5657
2.6600 0.8704 0.5689
2.6800 0.8770 0.5657
2.7000 0.8837 0.5603
2.7200 0.8903 0.5705
2.7400 0.8969 0.5641
2.7600 0.9036 0.5616
2.7800 0.9103 0.5657
2.8000 0.9170 0.5653
2.8200 0.9237 0.5594
2.8400 0.9303 0.5624
2.8600 0.9370 0.5638
2.8800 0.9437 0.5620
2.9000 0.9503 0.5614
2.9200 0.9569 0.5590
2.9400 0.9635 0.5598
2.9600 0.9702 0.5670
2.9800 0.9769 0.5576
3.0000 0.9836 0.5575
3.0200 0.9903 0.5621
3.0400 0.9970 0.5609
3.0600 1.0036 0.5560
3.0800 1.0102 0.5585
3.1000 1.0168 0.5610
3.1200 1.0235 0.5562
3.1400 1.0302 0.5573
3.1600 1.0369 0.5634
3.1800 1.0436 0.5544
3.2000 1.0503 0.5528
3.2200 1.0570 0.5586
3.2400 1.0637 0.5530
3.2600 1.0703 0.5617
3.2800 1.0769 0.5568
3.3000 1.0835 0.5515
3.3200 1.0903 0.5608
3.3400 1.0970 0.5582
3.3600 1.1037 0.5489
3.3800 1.1103 0.5555
3.4000 1.1170 0.5509
3.4200 1.1237 0.5496
3.4400 1.1303 0.5572
3.4600 1.1369 0.5497
3.4800 1.1436 0.5489
3.5000 1.1503 0.5617
3.5200 1.1570 0.5471
3.5400 1.1637 0.5516
3.5600 1.1703 0.5570
3.5800 1.1770 0.5444
3.6000 1.1837 0.5504
3.6200 1.1903 0.5573
3.6400 1.1969 0.5463
3.6600 1.2035 0.5600
3.6800 1.2102 0.5482
3.7000 1.2170 0.5457
3.7200 1.2236 0.5566
3.7400 1.2303 0.5502
3.7600 1.2370 0.5476
3.7800 1.2436 0.5557
3.8000 1.2503 0.5485
3.8200 1.2569 0.5510
3.8400 1.2635 0.5576
3.8600 1.2702 0.5468
3.8800 1.2769 0.5476
3.9000 1.2836 0.5539
3.9200 1.2903 0.5563
3.9400 1.2970 0.5450
3.9600 1.3037 0.5460
3.9800 1.3103 0.5566
4.0000 1.3169 0.5549
4.0200 1.3235 0.5435
4.0400 1.3302 0.5546
4.0600 1.3369 0.5562
4.0800 1.3436 0.5470
4.1000 1.3503 0.5542
4.1200 1.3570 0.5530
4.1400 1.3637 0.5481
4.1600 1.3703 0.5569
4.1800 1.3769 0.5497
4.2000 1.3835 0.5463
4.2200 1.3903 0.5588
4.2400 1.3970 0.5505
4.2600 1.4037 0.5449
4.2800 1.4103 0.5585
4.3000 1.4170 0.5487
4.3200 1.4237 0.5467
4.3400 1.4303 0.5609
4.3600 1.4369 0.5482
4.3800 1.4436 0.5489
4.4000 1.4502 0.5567
4.4200 1.4569 0.5447
4.4400 1.4636 0.5564
4.4600 1.4703 0.5542
4.4800 1.4770 0.5460
4.5000 1.4837 0.5506
4.5200 1.4903 0.5531
4.5400 1.4969 0.5489
4.5600 1.5035 0.5531
4.5800 1.5102 0.5483
4.6000 1.5169 0.5450
4.6200 1.5236 0.5555
4.6400 1.5303 0.5504
4.6600 1.5370 0.5438
4.6800 1.5437 0.5492
4.7000 1.5503 0.5502
4.7200 1.5569 0.5493
4.7400 1.5635 0.5482
4.7600 1.5703 0.5528
4.7800 1.5770 0.5494
4.8000 1.5837 0.5417
4.8200 1.5903 0.5471
4.8400 1.5970 0.5506
4.8600 1.6037 0.5435
4.8800 1.6103 0.5459
4.9000 1.6169 0.5521
4.9200 1.6236 0.5407
4.9400 1.6303 0.5485
4.9600 1.6370 0.5499
4.9800 1.6437 0.5367
5.0000 1.6503 0.5495
5.0200 1.6570 0.5524
5.0400 1.6637 0.5370
5.0600 1.6703 0.5469
5.0800 1.6769 0.5515
5.1000 1.6835 0.5412
5.1200 1.6902 0.5483
5.1400 1.6969 0.5484
5.1600 1.7036 0.5348
5.1800 1.7103 0.5504
5.2000 1.7170 0.5480
5.2200 1.7237 0.5382
5.2400 1.7303 0.5477
5.2600 1.7369 0.5479
5.2800 1.7435 0.5318
5.3000 1.7502 0.5484
5.3200 1.7569 0.5463
5.3400 1.7636 0.5332
5.3600 1.7703 0.5459
5.3800 1.7770 0.5456
5.4000 1.7836 0.5342
5.4200 1.7903 0.5441
5.4400 1.7969 0.5402
5.4600 1.8035 0.5365
5.4800 1.8102 0.5484
5.5000 1.8169 0.5402
5.5200 1.8237 0.5323
5.5400 1.8303 0.5450
5.5600 1.8370 0.5421
5.5800 1.8437 0.5330
5.6000 1.8503 0.5412
5.6200 1.8569 0.5406
5.6400 1.8635 0.5368
5.6600 1.8702 0.5402
5.6800 1.8769 0.5364
5.7000 1.8837 0.5355
5.7200 1.8903 0.5409
5.7400 1.8970 0.5356
5.7600 1.9037 0.5309
5.7800 1.9103 0.5364
5.8000 1.9169 0.5395
5.8200 1.9235 0.5313
5.8400 1.9302 0.5396
5.8600 1.9369 0.5381
5.8800 1.9436 0.5310
5.9000 1.9503 0.5378
5.9200 1.9569 0.5400
5.9400 1.9636 0.5252
5.9600 1.9703 0.5430
5.9800 1.9769 0.5396
6.0000 1.9835 0.5293
6.0200 1.9902 0.5401
6.0400 1.9969 0.5347
6.0600 2.0036 0.5289
6.0800 2.0103 0.5391
6.1000 2.0170 0.5337
6.1200 2.0237 0.5277
6.1400 2.0303 0.5376
6.1600 2.0369 0.5351
6.1800 2.0435 0.5284
6.2000 2.0502 0.5394
6.2200 2.0569 0.5299
6.2400 2.0636 0.5285
6.2600 2.0703 0.5377
6.2800 2.0770 0.5321
6.3000 2.0837 0.5343
6.3200 2.0903 0.5308
6.3400 2.0969 0.5314
6.3600 2.1035 0.5367
6.3800 2.1102 0.5302
6.4000 2.1169 0.5278
6.4200 2.1236 0.5313
6.4400 2.1303 0.5308
6.4600 2.1370 0.5328
6.4800 2.1436 0.5329
6.5000 2.1503 0.5233
6.5200 2.1570 0.5328
6.5400 2.1636 0.5328
6.5600 2.1703 0.5245
6.5800 2.1770 0.5391
6.6000 2.1836 0.5291
6.6200 2.1903 0.5206
6.6400 2.1970 0.5338
6.6600 2.2037 0.5236
6.6800 2.2103 0.5278
6.7000 2.2169 0.5404
6.7200 2.2235 0.5189
6.7400 2.2302 0.5293
6.7600 2.2369 0.5367
6.7800 2.2436 0.5176
6.8000 2.2503 0.5285
6.8200 2.2570 0.5358
6.8400 2.2637 0.5207
6.8600 2.2703 0.5299
6.8800 2.2769 0.5272
6.9000 2.2835 0.5216
6.9200 2.2902 0.5327
6.9400 2.2969 0.5233
6.9600 2.3036 0.5192
6.9800 2.3103 0.5321
7.0000 2.3170 0.5251
7.0200 2.3237 0.5182
7.0400 2.3303 0.5253
7.0600 2.3370 0.5281
7.0800 2.3436 0.5224
7.1000 2.3502 0.5206
7.1200 2.3569 0.5307
7.1400 2.3636 0.5243
7.1600 2.3703 0.5254
7.1800 2.3770 0.5232
7.2000 2.3837 0.5184
7.2200 2.3903 0.5238
7.2400 2.3969 0.5285
7.2600 2.4035 0.5199
7.2800 2.4102 0.5238
7.3000 2.4169 0.5264
7.3200 2.4236 0.5188
7.3400 2.4303 0.5235
7.3600 2.4370 0.5268
7.3800 2.4437 0.5201
7.4000 2.4503 0.5199
7.4200 2.4569 0.5179
7.4400 2.4635 0.5287
7.4600 2.4702 0.5223
7.4800 2.4769 0.5171
7.5000 2.4836 0.5217
7.5200 2.4903 0.5242
7.5400 2.4969 0.5204
7.5600 2.5036 0.5209
7.5800 2.5103 0.5201
7.6000 2.5169 0.5179
7.6200 2.5236 0.5238
7.6400 2.5302 0.5222
7.6600 2.5369 0.5194
7.6800 2.5436 0.5211
7.7000 2.5503 0.5141
7.7200 2.5570 0.5216
7.7400 2.5637 0.5214
7.7600 2.5704 0.5154
7.7800 2.5770 0.5215
7.8000 2.5836 0.5171
7.8200 2.5902 0.5181
7.8400 2.5969 0.5225
7.8600 2.6036 0.5221
7.8800 2.6103 0.5123
7.9000 2.6170 0.5207
7.9200 2.6237 0.5251
7.9400 2.6303 0.5097
7.9600 2.6369 0.5222
7.9800 2.6435 0.5230
8.0000 2.6502 0.5103
8.0200 2.6569 0.5174
8.0400 2.6636 0.5185
8.0600 2.6703 0.5122
8.0800 2.6770 0.5201
8.1000 2.6837 0.5193
8.1200 2.6903 0.5049
8.1400 2.6969 0.5150
8.1600 2.7035 0.5224
8.1800 2.7101 0.5104
8.2000 2.7169 0.5144
8.2200 2.7236 0.5172
8.2400 2.7303 0.5103
8.2600 2.7370 0.5177
8.2800 2.7437 0.5168
8.3000 2.7503 0.5068
8.3200 2.7569 0.5127
8.3400 2.7635 0.5201
8.3600 2.7702 0.5061
8.3800 2.7769 0.5133
8.4000 2.7836 0.5176
8.4200 2.7903 0.5096
8.4400 2.7970 0.5123
8.4600 2.8037 0.5147
8.4800 2.8103 0.5087
8.5000 2.8170 0.5135
8.5200 2.8236 0.5169
8.5400 2.8302 0.5064
8.5600 2.8369 0.5093
8.5800 2.8436 0.5170
8.6000 2.8503 0.5034
8.6200 2.8570 0.5104
8.6400 2.8637 0.5143
8.6600 2.8704 0.5060
8.6800 2.8770 0.5068
8.7000 2.8836 0.5168
8.7200 2.8902 0.5078
8.7400 2.8969 0.5067
8.7600 2.9036 0.5146
8.7800 2.9103 0.5060
8.8000 2.9170 0.5059
8.8200 2.9237 0.5129
8.8400 2.9303 0.5042
8.8600 2.9369 0.5026
8.8800 2.9435 0.5134
8.9000 2.9501 0.5090
8.9200 2.9568 0.5053
8.9400 2.9636 0.5117
8.9600 2.9702 0.5067
8.9800 2.9769 0.5038
9.0000 2.9836 0.5131
9.0200 2.9903 0.5070
9.0400 2.9969 0.5035
9.0600 3.0035 0.5117
9.0800 3.0102 0.5098
9.1000 3.0169 0.5021
9.1200 3.0236 0.5112
9.1400 3.0303 0.5078
9.1600 3.0370 0.4990
9.1800 3.0437 0.5097
9.2000 3.0504 0.5102
9.2200 3.0570 0.5001
9.2400 3.0636 0.5139
9.2600 3.0702 0.5128
9.2800 3.0769 0.5009
9.3000 3.0836 0.5078
9.3200 3.0903 0.5084
9.3400 3.0970 0.5013
9.3600 3.1037 0.5144
9.3800 3.1104 0.5021
9.4000 3.1170 0.4965
9.4200 3.1235 0.5137
9.4400 3.1302 0.5057
9.4600 3.1369 0.5045
9.4800 3.1436 0.5107
9.5000 3.1503 0.4998
9.5200 3.1570 0.4995
9.5400 3.1636 0.5164
9.5600 3.1703 0.5030
9.5800 3.1770 0.5012
9.6000 3.1836 0.5110
9.6200 3.1902 0.4983
9.6400 3.1969 0.5072
9.6600 3.2036 0.5093
9.6800 3.2103 0.4977
9.7000 3.2169 0.5080
9.7200 3.2236 0.5028
9.7400 3.2303 0.4985
9.7600 3.2369 0.5073
9.7800 3.2435 0.5064
9.8000 3.2502 0.4992
9.8200 3.2569 0.5070
9.8400 3.2636 0.5012
9.8600 3.2703 0.4971
9.8800 3.2770 0.5068
9.9000 3.2837 0.4983
9.9200 3.2904 0.5001
9.9400 3.2970 0.5075
9.9600 3.3036 0.4995
9.9800 3.3102 0.5028
10.0000 3.3169 0.5015
10.0200 3.3237 0.4984
10.0400 3.3304 0.5063
10.0600 3.3370 0.4986
10.0800 3.3437 0.4962
10.1000 3.3503 0.5035
10.1200 3.3570 0.4989
10.1400 3.3636 0.4950
10.1600 3.3702 0.5067
10.1800 3.3769 0.4978
10.2000 3.3836 0.4988
10.2200 3.3903 0.5051
10.2400 3.3969 0.4921
10.2600 3.4036 0.5054
10.2800 3.4103 0.5042
10.3000 3.4170 0.4868
10.3200 3.4235 0.5051
10.3400 3.4302 0.4996
10.3600 3.4368 0.4914
10.3800 3.4436 0.5049
10.4000 3.4503 0.4945
10.4200 3.4570 0.4916
10.4400 3.4637 0.5079
10.4600 3.4703 0.4908
10.4800 3.4770 0.4915
10.5000 3.4836 0.5072
10.5200 3.4902 0.4904
10.5400 3.4969 0.4929
10.5600 3.5036 0.5078
10.5800 3.5103 0.4870
10.6000 3.5170 0.4935
10.6200 3.5237 0.5030
10.6400 3.5304 0.4889
10.6600 3.5370 0.4906
10.6800 3.5436 0.5013
10.7000 3.5502 0.4866
10.7200 3.5569 0.4956
10.7400 3.5636 0.4956
10.7600 3.5703 0.4862
10.7800 3.5770 0.4954
10.8000 3.5837 0.4950
10.8200 3.5904 0.4891
10.8400 3.5970 0.4951
10.8600 3.6036 0.4915
10.8800 3.6102 0.5004
10.9000 3.6169 0.4916
10.9200 3.6236 0.4844
10.9400 3.6303 0.4956
10.9600 3.6370 0.4878
10.9800 3.6437 0.4891
11.0000 3.6503 0.4964
11.0200 3.6570 0.4892
11.0400 3.6636 0.4885
11.0600 3.6702 0.4959
11.0800 3.6768 0.4870
11.1000 3.6836 0.4927
11.1200 3.6903 0.4988
11.1400 3.6969 0.4807
11.1600 3.7036 0.4926
11.1800 3.7103 0.4996
11.2000 3.7169 0.4803
11.2200 3.7236 0.4918
11.2400 3.7302 0.4935
11.2600 3.7369 0.4871
11.2800 3.7436 0.4934
11.3000 3.7503 0.4899
11.3200 3.7570 0.4850
11.3400 3.7637 0.4982
11.3600 3.7704 0.4887
11.3800 3.7770 0.4816
11.4000 3.7836 0.4952
11.4200 3.7902 0.4904
11.4400 3.7969 0.4826
11.4600 3.8036 0.4912
11.4800 3.8104 0.4873
11.5000 3.8170 0.4898
11.5200 3.8237 0.4917
11.5400 3.8303 0.4854
11.5600 3.8370 0.4854
11.5800 3.8436 0.4903
11.6000 3.8502 0.4859
11.6200 3.8569 0.4864
11.6400 3.8636 0.4911
11.6600 3.8702 0.4867
11.6800 3.8769 0.4889
11.7000 3.8836 0.4886
11.7200 3.8903 0.4819
11.7400 3.8970 0.4911
11.7600 3.9036 0.4849
11.7800 3.9102 0.4850
11.8000 3.9168 0.4963
11.8200 3.9235 0.4795
11.8400 3.9302 0.4828
11.8600 3.9369 0.4932
11.8800 3.9436 0.4819
11.9000 3.9503 0.4843
11.9200 3.9570 0.4872
11.9400 3.9636 0.4818
11.9600 3.9702 0.4909
11.9800 3.9769 0.4870
12.0000 3.9836 0.4773
12.0200 3.9903 0.4871
12.0400 3.9970 0.4910
12.0600 4.0037 0.4691
12.0800 4.0103 0.4895
12.1000 4.0170 0.4895
12.1200 4.0236 0.4771
12.1400 4.0303 0.4875
12.1600 4.0369 0.4861
12.1800 4.0436 0.4768
12.2000 4.0503 0.4902
12.2200 4.0570 0.4818
12.2400 4.0637 0.4757
12.2600 4.0704 0.4914
12.2800 4.0770 0.4834
12.3000 4.0836 0.4759
12.3200 4.0902 0.4927
12.3400 4.0968 0.4810
12.3600 4.1036 0.4761
12.3800 4.1103 0.4861
12.4000 4.1170 0.4841
12.4200 4.1237 0.4783
12.4400 4.1303 0.4860
12.4600 4.1370 0.4814
12.4800 4.1436 0.4756
12.5000 4.1502 0.4865
12.5200 4.1568 0.4801
12.5400 4.1635 0.4796
12.5600 4.1703 0.4842
12.5800 4.1770 0.4781
12.6000 4.1836 0.4772
12.6200 4.1903 0.4828
12.6400 4.1970 0.4802
12.6600 4.2036 0.4750
12.6800 4.2102 0.4790
12.7000 4.2169 0.4866
12.7200 4.2236 0.4763
12.7400 4.2303 0.4787
12.7600 4.2370 0.4838
12.7800 4.2437 0.4764
12.8000 4.2504 0.4766
12.8200 4.2570 0.4820
12.8400 4.2636 0.4725
12.8600 4.2702 0.4811
12.8800 4.2769 0.4864
12.9000 4.2836 0.4759
12.9200 4.2903 0.4760
12.9400 4.2970 0.4847
12.9600 4.3037 0.4691
12.9800 4.3104 0.4780
13.0000 4.3170 0.4865
13.0200 4.3236 0.4694
13.0400 4.3302 0.4786
13.0600 4.3369 0.4849
13.0800 4.3436 0.4710
13.1000 4.3503 0.4751
13.1200 4.3570 0.4794
13.1400 4.3636 0.4715
13.1600 4.3703 0.4769
13.1800 4.3770 0.4795
13.2000 4.3836 0.4692
13.2200 4.3902 0.4782
13.2400 4.3968 0.4816
13.2600 4.4035 0.4708
13.2800 4.4102 0.4731
13.3000 4.4169 0.4811
13.3200 4.4236 0.4755
13.3400 4.4303 0.4694
13.3600 4.4370 0.4819
13.3800 4.4436 0.4720
13.4000 4.4502 0.4712
13.4200 4.4569 0.4865
13.4400 4.4636 0.4677
13.4600 4.4703 0.4731
13.4800 4.4770 0.4857
13.5000 4.4837 0.4632
13.5200 4.4904 0.4760
13.5400 4.4970 0.4824
13.5600 4.5036 0.4652
13.5800 4.5102 0.4707
13.6000 4.5169 0.4833
13.6200 4.5236 0.4652
13.6400 4.5303 0.4742
13.6600 4.5370 0.4803
13.6800 4.5436 0.4674
13.7000 4.5503 0.4754
13.7200 4.5570 0.4772
13.7400 4.5636 0.4627
13.7600 4.5702 0.4802
13.7800 4.5768 0.4773
13.8000 4.5835 0.4648
13.8200 4.5903 0.4736
13.8400 4.5970 0.4750
13.8600 4.6036 0.4642
13.8800 4.6103 0.4743
13.9000 4.6170 0.4716
13.9200 4.6236 0.4649
13.9400 4.6302 0.4769
13.9600 4.6368 0.4710
13.9800 4.6435 0.4663
14.0000 4.6503 0.4723
14.0200 4.6570 0.4719
14.0400 4.6636 0.4687
14.0600 4.6703 0.4692
14.0800 4.6770 0.4691
14.1000 4.6836 0.4701
14.1200 4.6902 0.4685
14.1400 4.6968 0.4707
14.1600 4.7035 0.4699
14.1800 4.7103 0.4661
14.2000 4.7170 0.4652
14.2200 4.7237 0.4713
14.2400 4.7304 0.4639
14.2600 4.7370 0.4693
14.2800 4.7437 0.4686
14.3000 4.7503 0.4641
14.3200 4.7569 0.4698
14.3400 4.7635 0.4708
14.3600 4.7703 0.4589
14.3800 4.7770 0.4717
14.4000 4.7837 0.4762
14.4200 4.7904 0.4580
14.4400 4.7971 0.4707
14.4600 4.8037 0.4725
14.4800 4.8103 0.4537
14.5000 4.8169 0.4762
14.5200 4.8235 0.4684
14.5400 4.8303 0.4507
14.5600 4.8370 0.4740
14.5800 4.8436 0.4667
14.6000 4.8503 0.4597
14.6200 4.8570 0.4782
14.6400 4.8636 0.4623
14.6600 4.8702 0.4546
14.6800 4.8768 0.4766
14.7000 4.8835 0.4681
14.7200 4.8902 0.4569
14.7400 4.8969 0.4693
14.7600 4.9036 0.4583
14.7800 4.9103 0.4599
14.8000 4.9170 0.4725
14.8200 4.9236 0.4591
14.8400 4.9303 0.4625
14.8600 4.9369 0.4683
14.8800 4.9436 0.4590
14.9000 4.9503 0.4578
14.9200 4.9570 0.4735
14.9400 4.9636 0.4587
14.9600 4.9704 0.4567
14.9800 4.9770 0.4661
15.0000 4.9837 0.4625
15.0200 4.9902 0.4567
15.0400 4.9968 0.4702
15.0600 5.0035 0.4581
15.0800 5.0103 0.4544
15.1000 5.0170 0.4666
15.1200 5.0237 0.4614
15.1400 5.0303 0.4593
15.1600 5.0370 0.4661
15.1800 5.0437 0.4587
15.2000 5.0503 0.4562
15.2200 5.0569 0.4657
15.2400 5.0636 0.4573
15.2600 5.0703 0.4592
15.2800 5.0770 0.4608
15.3000 5.0837 0.4554
15.3200 5.0903 0.4572
15.3400 5.0970 0.4601
15.3600 5.1036 0.4578
15.3800 5.1102 0.4558
15.4000 5.1168 0.4598
15.4200 5.1235 0.4566
15.4400 5.1302 0.4553
15.4600 5.1369 0.4558
15.4800 5.1436 0.4572
15.5000 5.1503 0.4559
15.5200 5.1570 0.4532
15.5400 5.1636 0.4573
15.5600 5.1702 0.4532
15.5800 5.1769 0.4568
15.6000 5.1836 0.4561
15.6200 5.1903 0.4523
15.6400 5.1970 0.4505
15.6600 5.2037 0.4567
15.6800 5.2103 0.4523
15.7000 5.2170 0.4544
15.7200 5.2237 0.4554
15.7400 5.2303 0.4472
15.7600 5.2369 0.4587
15.7800 5.2436 0.4567
15.8000 5.2503 0.4494
15.8200 5.2570 0.4538
15.8400 5.2637 0.4529
15.8600 5.2704 0.4512
15.8800 5.2770 0.4513
15.9000 5.2837 0.4542
15.9200 5.2902 0.4493
15.9400 5.2968 0.4543
15.9600 5.3035 0.4565
15.9800 5.3102 0.4496
16.0000 5.3170 0.4508
16.0200 5.3236 0.4521
16.0400 5.3303 0.4481
16.0600 5.3370 0.4552
16.0800 5.3436 0.4502
16.1000 5.3502 0.4516
16.1200 5.3568 0.4527
16.1400 5.3635 0.4514
16.1600 5.3703 0.4525
16.1800 5.3770 0.4515
16.2000 5.3836 0.4488
16.2200 5.3903 0.4509
16.2400 5.3970 0.4495
16.2600 5.4036 0.4494
16.2800 5.4103 0.4528
16.3000 5.4169 0.4445
16.3200 5.4236 0.4515
16.3400 5.4303 0.4499
16.3600 5.4370 0.4479
16.3800 5.4437 0.4521
16.4000 5.4503 0.4497
16.4200 5.4570 0.4486
16.4400 5.4637 0.4510
16.4600 5.4703 0.4480
16.4800 5.4769 0.4484
16.5000 5.4835 0.4540
16.5200 5.4903 0.4459
16.5400 5.4970 0.4448
16.5600 5.5037 0.4579
16.5800 5.5103 0.4439
16.6000 5.5170 0.4467
16.6200 5.5236 0.4530
16.6400 5.5302 0.4492
16.6600 5.5368 0.4493
16.6800 5.5435 0.4502
16.7000 5.5502 0.4500
16.7200 5.5569 0.4474
16.7400 5.5636 0.4428
16.7600 5.5702 0.4526
16.7800 5.5769 0.4501
16.8000 5.5836 0.4448
16.8200 5.5903 0.4477
16.8400 5.5969 0.4501
16.8600 5.6035 0.4453
16.8800 5.6102 0.4494
16.9000 5.6169 0.4446
16.9200 5.6236 0.4444
16.9400 5.6303 0.4497
16.9600 5.6370 0.4432
16.9800 5.6437 0.4426
17.0000 5.6503 0.4495
17.0200 5.6569 0.4421
17.0400 5.6635 0.4452
17.0600 5.6703 0.4495
17.0800 5.6770 0.4390
17.1000 5.6837 0.4454
17.1200 5.6904 0.4488
17.1400 5.6970 0.4406
17.1600 5.7037 0.4417
17.1800 5.7103 0.4507
17.2000 5.7169 0.4411
17.2200 5.7235 0.4425
17.2400 5.7303 0.4509
17.2600 5.7370 0.4397
17.2800 5.7437 0.4406
17.3000 5.7503 0.4495
17.3200 5.7570 0.4362
17.3400 5.7637 0.4419
17.3600 5.7703 0.4476
17.3800 5.7769 0.4372
17.4000 5.7835 0.4414
17.4200 5.7902 0.4521
17.4400 5.7969 0.4320
17.4600 5.8036 0.4375
17.4800 5.8103 0.4477
17.5000 5.8170 0.4365
17.5200 5.8236 0.4356
17.5400 5.8302 0.4441
17.5600 5.8368 0.4421
17.5800 5.8435 0.4416
17.6000 5.8502 0.4404
17.6200 5.8570 0.4313
17.6400 5.8636 0.4377
17.6600 5.8703 0.4466
17.6800 5.8770 0.4369
17.7000 5.8837 0.4329
17.7200 5.8903 0.4397
17.7400 5.8969 0.4405
17.7600 5.9036 0.4352
17.7800 5.9103 0.4378
17.8000 5.9170 0.4411
17.8200 5.9236 0.4300
17.8400 5.9303 0.4400
17.8600 5.9370 0.4389
17.8800 5.9437 0.4330
17.9000 5.9503 0.4404
17.9200 5.9569 0.4398
17.9400 5.9636 0.4331
17.9600 5.9703 0.4429
17.9800 5.9770 0.4356
18.0000 5.9837 0.4311
18.0200 5.9904 0.4389
18.0400 5.9970 0.4349
18.0600 6.0037 0.4272
18.0800 6.0103 0.4373
18.1000 6.0169 0.4371
18.1200 6.0235 0.4340
18.1400 6.0302 0.4369
18.1600 6.0370 0.4331
18.1800 6.0436 0.4284
18.2000 6.0503 0.4400
18.2200 6.0570 0.4340
18.2400 6.0637 0.4321
18.2600 6.0703 0.4331
18.2800 6.0769 0.4374
18.3000 6.0835 0.4282
18.3200 6.0902 0.4330
18.3400 6.0969 0.4397
18.3600 6.1036 0.4226
18.3800 6.1102 0.4376
18.4000 6.1170 0.4360
18.4200 6.1237 0.4237
18.4400 6.1303 0.4396
18.4600 6.1369 0.4293
18.4800 6.1435 0.4257
18.5000 6.1502 0.4393
18.5200 6.1569 0.4300
18.5400 6.1636 0.4250
18.5600 6.1703 0.4363
18.5800 6.1770 0.4252
18.6000 6.1837 0.4278
18.6200 6.1903 0.4341
18.6400 6.1969 0.4221
18.6600 6.2035 0.4352
18.6800 6.2103 0.4329
18.7000 6.2170 0.4220
18.7200 6.2237 0.4384
18.7400 6.2304 0.4314
18.7600 6.2370 0.4267
18.7800 6.2437 0.4330
18.8000 6.2503 0.4253
18.8200 6.2569 0.4281
18.8400 6.2635 0.4337
18.8600 6.2702 0.4224
18.8800 6.2769 0.4271
18.9000 6.2836 0.4386
18.9200 6.2903 0.4233
18.9400 6.2970 0.4235
18.9600 6.3037 0.4293
18.9800 6.3103 0.4235
19.0000 6.3169 0.4315
19.0200 6.3235 0.4300
19.0400 6.3302 0.4208
19.0600 6.3369 0.4331
19.0800 6.3436 0.4243
19.1000 6.3503 0.4258
19.1200 6.3570 0.4350
19.1400 6.3636 0.4262
19.1600 6.3703 0.4182
19.1800 6.3769 0.4276
19.2000 6.3835 0.4275
19.2200 6.3903 0.4235
19.2400 6.3970 0.4286
19.2600 6.4037 0.4224
19.2800 6.4104 0.4277
19.3000 6.4170 0.4305
19.3200 6.4237 0.4197
19.3400 6.4303 0.4263
19.3600 6.4369 0.4289
19.3800 6.4436 0.4222
19.4000 6.4502 0.4278
19.4200 6.4569 0.4268
19.4400 6.4636 0.4178
19.4600 6.4703 0.4292
19.4800 6.4770 0.4283
19.5000 6.4837 0.4178
19.5200 6.4903 0.4309
19.5400 6.4969 0.4204
19.5600 6.5035 0.4169
19.5800 6.5102 0.4319
19.6000 6.5169 0.4219
19.6200 6.5236 0.4217
19.6400 6.5303 0.4287
19.6600 6.5370 0.4211
19.6800 6.5437 0.4211
19.7000 6.5503 0.4232
19.7200 6.5569 0.4258
19.7400 6.5635 0.4233
19.7600 6.5702 0.4245
19.7800 6.5769 0.4198
19.8000 6.5836 0.4212
19.8200 6.5903 0.4217
19.8400 6.5969 0.4231
19.8600 6.6036 0.4239
19.8800 6.6103 0.4167
19.9000 6.6169 0.4241
19.9200 6.6235 0.4252
19.9400 6.6302 0.4193
19.9600 6.6369 0.4233
19.9800 6.6436 0.4195
20.0000 6.6503 0.4207
20.0200 6.6570 0.4192
20.0400 6.6637 0.4221
20.0600 6.6704 0.4182
20.0800 6.6770 0.4197
20.1000 6.6836 0.4254
20.1200 6.6902 0.4149
20.1400 6.6970 0.4249
20.1600 6.7037 0.4185
20.1800 6.7104 0.4143
20.2000 6.7170 0.4254
20.2200 6.7237 0.4179
20.2400 6.7303 0.4171
20.2600 6.7369 0.4269
20.2800 6.7435 0.4192
20.3000 6.7502 0.4108
20.3200 6.7569 0.4232
20.3400 6.7636 0.4179
20.3600 6.7703 0.4116
20.3800 6.7769 0.4261
20.4000 6.7836 0.4113
20.4200 6.7903 0.4129
20.4400 6.7969 0.4259
20.4600 6.8035 0.4107
20.4800 6.8102 0.4163
20.5000 6.8169 0.4281
20.5200 6.8236 0.4046
20.5400 6.8303 0.4169
20.5600 6.8370 0.4289
20.5800 6.8437 0.4066
20.6000 6.8503 0.4161
20.6200 6.8569 0.4227
20.6400 6.8636 0.4024
20.6600 6.8702 0.4241
20.6800 6.8769 0.4202
20.7000 6.8837 0.4035
20.7200 6.8903 0.4222
20.7400 6.8970 0.4138
20.7600 6.9037 0.4051
20.7800 6.9103 0.4232
20.8000 6.9169 0.4162
20.8200 6.9235 0.4055
20.8400 6.9302 0.4226
20.8600 6.9369 0.4120
20.8800 6.9436 0.4074
20.9000 6.9503 0.4235
20.9200 6.9570 0.4082
20.9400 6.9637 0.4117
20.9600 6.9703 0.4225
20.9800 6.9770 0.4068
21.0000 6.9836 0.4123
21.0200 6.9902 0.4163
21.0400 6.9969 0.4083
21.0600 7.0036 0.4123
21.0800 7.0103 0.4140
21.1000 7.0170 0.4095
21.1200 7.0237 0.4174
21.1400 7.0303 0.4121
21.1600 7.0369 0.4084
21.1800 7.0435 0.4141
21.2000 7.0502 0.4153
21.2200 7.0569 0.4083
21.2400 7.0636 0.4114
21.2600 7.0703 0.4082
21.2800 7.0769 0.4105
21.3000 7.0836 0.4106
21.3200 7.0903 0.4135
21.3400 7.0969 0.4116
21.3600 7.1035 0.4058
21.3800 7.1102 0.4127
21.4000 7.1169 0.4085
21.4200 7.1236 0.4087
21.4400 7.1303 0.4106
21.4600 7.1370 0.4037
21.4800 7.1437 0.4113
21.5000 7.1503 0.4037
21.5200 7.1570 0.4084
21.5400 7.1636 0.4103
21.5600 7.1702 0.4059
21.5800 7.1769 0.4080
21.6000 7.1836 0.4098
21.6200 7.1903 0.4061
21.6400 7.1970 0.4027
21.6600 7.2037 0.4111
21.6800 7.2104 0.4027
21.7000 7.2170 0.4064
21.7200 7.2235 0.4142
21.7400 7.2302 0.3978
21.7600 7.2369 0.4050
21.7800 7.2436 0.4100
21.8000 7.2503 0.3959
21.8200 7.2570 0.4096
21.8400 7.2637 0.4072
21.8600 7.2703 0.3999
21.8800 7.2769 0.4044
21.9000 7.2835 0.4095
21.9200 7.2902 0.4055
21.9400 7.2969 0.4044
21.9600 7.3036 0.3999
21.9800 7.3103 0.4022
22.0000 7.3169 0.4047
22.0200 7.3236 0.4043
22.0400 7.3303 0.4039
22.0600 7.3369 0.4042
22.0800 7.3435 0.4009
22.1000 7.3502 0.4069
22.1200 7.3569 0.4000
22.1400 7.3636 0.4028
22.1600 7.3703 0.4026
22.1800 7.3770 0.3988
22.2000 7.3837 0.4044
22.2200 7.3904 0.4038
22.2400 7.3970 0.3990
22.2600 7.4036 0.4078
22.2800 7.4102 0.4017
22.3000 7.4169 0.3946
22.3200 7.4237 0.4094
22.3400 7.4303 0.4011
22.3600 7.4370 0.3978
22.3800 7.4437 0.4089
22.4000 7.4503 0.3968
22.4200 7.4569 0.3987
22.4400 7.4636 0.4106
22.4600 7.4702 0.4003
22.4800 7.4769 0.3995
22.5000 7.4836 0.4041
22.5200 7.4903 0.3991
22.5400 7.4969 0.3973
22.5600 7.5036 0.4094
22.5800 7.5103 0.3955
22.6000 7.5169 0.3972
22.6200 7.5235 0.4050
22.6400 7.5302 0.4011
22.6600 7.5369 0.3997
22.6800 7.5436 0.4029
22.7000 7.5503 0.3980
22.7200 7.5570 0.4012
22.7400 7.5637 0.3992
22.7600 7.5703 0.3961
22.7800 7.5770 0.4014
22.8000 7.5836 0.4035
22.8200 7.5902 0.3958
22.8400 7.5969 0.4041
22.8600 7.6036 0.4036
22.8800 7.6103 0.3938
22.9000 7.6170 0.4025
22.9200 7.6237 0.4017
22.9400 7.6304 0.3937
22.9600 7.6370 0.4015
22.9800 7.6436 0.3970
23.0000 7.6502 0.3941
23.0200 7.6569 0.4007
23.0400 7.6636 0.3924
23.0600 7.6703 0.3970
23.0800 7.6770 0.4031
23.1000 7.6837 0.3943
23.1200 7.6904 0.3912
23.1400 7.6970 0.3971
23.1600 7.7036 0.3996
23.1800 7.7102 0.4020
23.2000 7.7169 0.3946
23.2200 7.7236 0.3993
23.2400 7.7303 0.3996
23.2600 7.7370 0.3942
23.2800 7.7437 0.3933
23.3000 7.7503 0.3960
23.3200 7.7569 0.3981
23.3400 7.7635 0.4002
23.3600 7.7702 0.3871
23.3800 7.7768 0.3955
23.4000 7.7836 0.4054
23.4200 7.7902 0.3860
23.4400 7.7969 0.3872
23.4600 7.8036 0.4013
23.4800 7.8103 0.3890
23.5000 7.8169 0.3950
23.5200 7.8235 0.3895
23.5400 7.8302 0.3886
23.5600 7.8369 0.3996
23.5800 7.8436 0.3930
23.6000 7.8503 0.3839
23.6200 7.8570 0.3966
23.6400 7.8637 0.3916
23.6600 7.8704 0.3886
23.6800 7.8770 0.3976
23.7000 7.8836 0.3868
23.7200 7.8902 0.3917
23.7400 7.8969 0.3977
23.7600 7.9036 0.3844
23.7800 7.9103 0.3875
23.8000 7.9170 0.3943
23.8200 7.9237 0.3869
23.8400 7.9304 0.3874
23.8600 7.9370 0.3870
23.8800 7.9436 0.3897
23.9000 7.9502 0.3895
23.9200 7.9569 0.3887
23.9400 7.9636 0.3899
23.9600 7.9703 0.3891
23.9800 7.9770 0.3838
24.0000 7.9837 0.3896
24.0200 7.9903 0.3910
24.0400 7.9970 0.3849
24.0600 8.0036 0.3877
24.0800 8.0102 0.3945
24.1000 8.0169 0.3837
24.1200 8.0236 0.3903
24.1400 8.0303 0.3926
24.1600 8.0369 0.3854
24.1800 8.0436 0.3870
24.2000 8.0503 0.3909
24.2200 8.0570 0.3833
24.2400 8.0636 0.3874
24.2600 8.0702 0.3911
24.2800 8.0769 0.3835
24.3000 8.0836 0.3895
24.3200 8.0903 0.3820
24.3400 8.0970 0.3782
24.3600 8.1037 0.3979
24.3800 8.1104 0.3877
24.4000 8.1170 0.3781
24.4200 8.1236 0.3905
24.4400 8.1302 0.3898
24.4600 8.1369 0.3820
24.4800 8.1436 0.3893
24.5000 8.1503 0.3846
24.5200 8.1570 0.3836
24.5400 8.1637 0.3922
24.5600 8.1704 0.3805
24.5800 8.1770 0.3871
24.6000 8.1836 0.3915
24.6200 8.1902 0.3808
24.6400 8.1969 0.3868
24.6600 8.2036 0.3860
24.6800 8.2103 0.3806
24.7000 8.2170 0.3916
24.7200 8.2236 0.3871
24.7400 8.2303 0.3811
24.7600 8.2370 0.3846
24.7800 8.2436 0.3866
24.8000 8.2502 0.3783
24.8200 8.2568 0.3903
24.8400 8.2636 0.3845
24.8600 8.2703 0.3790
24.8800 8.2770 0.3872
24.9000 8.2836 0.3850
24.9200 8.2903 0.3838
24.9400 8.2970 0.3853
24.9600 8.3036 0.3832
24.9800 8.3102 0.3829
25.0000 8.3169 0.3842
25.0200 8.3236 0.3811
25.0400 8.3303 0.3830
25.0600 8.3370 0.3874
25.0800 8.3437 0.3825
25.1000 8.3504 0.3809
25.1200 8.3570 0.3847
25.1400 8.3636 0.3794
25.1600 8.3702 0.3861
25.1800 8.3769 0.3817
25.2000 8.3836 0.3841
25.2200 8.3903 0.3823
25.2400 8.3970 0.3815
25.2600 8.4037 0.3849
25.2800 8.4104 0.3826
25.3000 8.4170 0.3785
25.3200 8.4236 0.3853
25.3400 8.4302 0.3805
25.3600 8.4369 0.3783
25.3800 8.4436 0.3864
25.4000 8.4503 0.3808
25.4200 8.4570 0.3782
25.4400 8.4637 0.3871
25.4600 8.4703 0.3784
25.4800 8.4770 0.3803
25.5000 8.4836 0.3802
25.5200 8.4902 0.3784
25.5400 8.4968 0.3799
25.5600 8.5035 0.3827
25.5800 8.5102 0.3764
25.6000 8.5169 0.3774
25.6200 8.5236 0.3845
25.6400 8.5303 0.3750
25.6600 8.5370 0.3776
25.6800 8.5436 0.3827
25.7000 8.5502 0.3787
25.7200 8.5568 0.3809
25.7400 8.5636 0.3778
25.7600 8.5703 0.3769
25.7800 8.5770 0.3787
25.8000 8.5837 0.3803
25.8200 8.5904 0.3736
25.8400 8.5970 0.3769
25.8600 8.6036 0.3801
25.8800 8.6102 0.3751
25.9000 8.6169 0.3832
25.9200 8.6236 0.3765
25.9400 8.6303 0.3725
25.9600 8.6370 0.3792
25.9800 8.6437 0.3763
26.0000 8.6504 0.3711
26.0200 8.6570 0.3774
26.0400 8.6636 0.3765
26.0600 8.6702 0.3720
26.0800 8.6769 0.3819
26.1000 8.6836 0.3773
26.1200 8.6903 0.3713
26.1400 8.6969 0.3815
26.1600 8.7036 0.3757
26.1800 8.7103 0.3750
26.2000 8.7170 0.3766
26.2200 8.7236 0.3729
26.2400 8.7302 0.3717
26.2600 8.7368 0.3802
26.2800 8.7435 0.3751
26.3000 8.7502 0.3704
26.3200 8.7569 0.3764
26.3400 8.7636 0.3781
26.3600 8.7703 0.3673
26.3800 8.7770 0.3748
26.4000 8.7836 0.3774
26.4200 8.7902 0.3679
26.4400 8.7969 0.3788
26.4600 8.8036 0.3748
26.4800 8.8103 0.3666
26.5000 8.8170 0.3792
26.5200 8.8237 0.3766
26.5400 8.8304 0.3669
26.5600 8.8370 0.3786
26.5800 8.8437 0.3767
26.6000 8.8503 0.3648
26.6200 8.8569 0.3798
26.6400 8.8636 0.3756
26.6600 8.8703 0.3647
26.6800 8.8770 0.3768
26.7000 8.8837 0.3745
26.7200 8.8904 0.3661
26.7400 8.8970 0.3776
26.7600 8.9037 0.3712
26.7800 8.9102 0.3660
26.8000 8.9169 0.3771
26.8200 8.9236 0.3691
26.8400 8.9303 0.3699
26.8600 8.9370 0.3736
26.8800 8.9436 0.3715
26.9000 8.9503 0.3708
26.9200 8.9570 0.3758
26.9400 8.9636 0.3646
26.9600 8.9702 0.3679
26.9800 8.9768 0.3766
27.0000 8.9835 0.3690
27.0200 8.9903 0.3677
27.0400 8.9969 0.3765
27.0600 9.0036 0.3668
27.0800 9.0103 0.3652
27.1000 9.0170 0.3746
27.1200 9.0236 0.3658
27.1400 9.0302 0.3647
27.1600 9.0369 0.3741
27.1800 9.0436 0.3677
27.2000 9.0503 0.3687
27.2200 9.0570 0.3703
27.2400 9.0637 0.3608
27.2600 9.0704 0.3675
27.2800 9.0770 0.3745
27.3000 9.0837 0.3639
27.3200 9.0902 0.3676
27.3400 9.0969 0.3724
27.3600 9.1036 0.3657
27.3800 9.1103 0.3673
27.4000 9.1170 0.3686
27.4200 9.1237 0.3675
27.4400 9.1304 0.3665
27.4600 9.1370 0.3677
27.4800 9.1436 0.3646
27.5000 9.1502 0.3661
27.5200 9.1569 0.3697
27.5400 9.1636 0.3692
27.5600 9.1703 0.3624
27.5800 9.1770 0.3670
27.6000 9.1836 0.3632
27.6200 9.1903 0.3656
27.6400 9.1970 0.3668
27.6600 9.2036 0.3623
27.6800 9.2102 0.3608
27.7000 9.2168 0.3681
27.7200 9.2235 0.3633
27.7400 9.2302 0.3631
27.7600 9.2369 0.3665
27.7800 9.2436 0.3614
27.8000 9.2503 0.3607
27.8200 9.2570 0.3645
27.8400 9.2636 0.3583
27.8600 9.2702 0.3620
27.8800 9.2769 0.3662
27.9000 9.2836 0.3607
27.9200 9.2903 0.3638
27.9400 9.2970 0.3628
27.9600 9.3037 0.3579
27.9800 9.3104 0.3591
28.0000 9.3170 0.3632
28.0200 9.3237 0.3625
28.0400 9.3302 0.3553
28.0600 9.3369 0.3643
28.0800 9.3436 0.3612
28.1000 9.3503 0.3514
28.1200 9.3570 0.3603
28.1400 9.3637 0.3674
28.1600 9.3703 0.3550
28.1800 9.3770 0.3588
28.2000 9.3836 0.3634
28.2200 9.3902 0.3512
28.2400 9.3968 0.3642
28.2600 9.4035 0.3640
28.2800 9.4102 0.3526
28.3000 9.4169 0.3619
28.3200 9.4236 0.3634
28.3400 9.4303 0.3520
28.3600 9.4370 0.3590
28.3800 9.4436 0.3611
28.4000 9.4502 0.3559
28.4200 9.4569 0.3588
28.4400 9.4635 0.3604
28.4600 9.4702 0.3556
28.4800 9.4770 0.3622
28.5000 9.4836 0.3570
28.5200 9.4903 0.3539
28.5400 9.4970 0.3613
28.5600 9.5036 0.3564
28.5800 9.5102 0.3566
28.6000 9.5169 0.3610
28.6200 9.5236 0.3565
28.6400 9.5303 0.3599
28.6600 9.5370 0.3587
28.6800 9.5437 0.3533
28.7000 9.5504 0.3587
28.7200 9.5570 0.3577
28.7400 9.5637 0.3533
28.7600 9.5703 0.3590
28.7800 9.5769 0.3585
28.8000 9.5836 0.3575
28.8200 9.5903 0.3556
28.8400 9.5970 0.3554
28.8600 9.6037 0.3613
28.8800 9.6104 0.3557
28.9000 9.6171 0.3531
28.9200 9.6237 0.3590
28.9400 9.6303 0.3559
28.9600 9.6369 0.3500
28.9800 9.6435 0.3665
29.0000 9.6502 0.3568
29.0200 9.6569 0.3526
29.0400 9.6636 0.3610
29.0600 9.6703 0.3553
29.0800 9.6770 0.3553
29.1000 9.6836 0.3605
29.1200 9.6902 0.3491
29.1400 9.6968 0.3597
29.1600 9.7035 0.3611
29.1800 9.7102 0.3482
29.2000 9.7169 0.3604
29.2200 9.7236 0.3559
29.2400 9.7303 0.3496
29.2600 9.7370 0.3583
29.2800 9.7436 0.3537
29.3000 9.7503 0.3538
29.3200 9.7569 0.3588
29.3400 9.7636 0.3551
29.3600 9.7703 0.3513
29.3800 9.7770 0.3582
29.4000 9.7837 0.3509
29.4200 9.7904 0.3545
29.4400 9.7970 0.3561
29.4600 9.8037 0.3485
29.4800 9.8103 0.3557
29.5000 9.8169 0.3582
29.5200 9.8235 0.3474
29.5400 9.8302 0.3549
29.5600 9.8370 0.3515
29.5800 9.8437 0.3507
29.6000 9.8504 0.3542
29.6200 9.8570 0.3504
29.6400 9.8637 0.3530
29.6600 9.8703 0.3523
29.6800 9.8769 0.3519
29.7000 9.8836 0.3516
29.7200 9.8903 0.3527
29.7400 9.8970 0.3507
29.7600 9.9036 0.3523
29.7800 9.9103 0.3506
29.8000 9.9170 0.3469
29.8200 9.9236 0.3474
29.8400 9.9302 0.3498
29.8600 9.9368 0.3500
29.8800 9.9435 0.3521
29.9000 9.9502 0.3524
29.9200 9.9569 0.3457
29.9400 9.9636 0.3469
29.9600 9.9703 0.3566
29.9800 9.9769 0.3438
30.0000 9.9836 0.3476
30.0200 9.9902 0.3507
30.0400 9.9969 0.3454
30.0600 10.0036 0.3481
30.0800 10.0103 0.3457
30.1000 10.0170 0.3460
30.1200 10.0237 0.3488
30.1400 10.0303 0.3433
30.1600 10.0370 0.3479
30.1800 10.0437 0.3466
30.2000 10.0503 0.3453
30.2200 10.0569 0.3481
30.2400 10.0636 0.3479
30.2600 10.0703 0.3437
30.2800 10.0770 0.3494
30.3000 10.0837 0.3427
30.3200 10.0903 0.3387
30.3400 10.0970 0.3522
30.3600 10.1037 0.3448
30.3800 10.1103 0.3457
30.4000 10.1169 0.3488
30.4200 10.1235 0.3382
30.4400 10.1302 0.3479
30.4600 10.1369 0.3455
30.4800 10.1436 0.3420
30.5000 10.1503 0.3494
30.5200 10.1570 0.3440
30.5400 10.1636 0.3399
30.5600 10.1702 0.3437
30.5800 10.1768 0.3497
30.6000 10.1835 0.3389
30.6200 10.1902 0.3461
30.6400 10.1970 0.3424
30.6600 10.2036 0.3371
30.6800 10.2103 0.3499
30.7000 10.2170 0.3411
30.7200 10.2237 0.3409
30.7400 10.2303 0.3492
30.7600 10.2369 0.3396
30.7800 10.2436 0.3443
30.8000 10.2503 0.3411
30.8200 10.2569 0.3432
30.8400 10.2636 0.3401
30.8600 10.2703 0.3402
30.8800 10.2770 0.3428
30.9000 10.2837 0.3425
30.9200 10.2903 0.3401
30.9400 10.2969 0.3405
30.9600 10.3035 0.3417
30.9800 10.3102 0.3413
31.0000 10.3170 0.3435
31.0200 10.3237 0.3403
31.0400 10.3303 0.3375
31.0600 10.3370 0.3477
31.0800 10.3437 0.3353
31.1000 10.3503 0.3377
31.1200 10.3569 0.3497
31.1400 10.3635 0.3364
31.1600 10.3702 0.3415
31.1800 10.3770 0.3411
31.2000 10.3836 0.3381
31.2200 10.3903 0.3403
31.2400 10.3970 0.3424
31.2600 10.4036 0.3368
31.2800 10.4103 0.3379
31.3000 10.4169 0.3444
31.3200 10.4235 0.3396
31.3400 10.4302 0.3393
31.3600 10.4369 0.3431
31.3800 10.4436 0.3373
31.4000 10.4503 0.3390
31.4200 10.4570 0.3377
31.4400 10.4637 0.3368
31.4600 10.4703 0.3373
31.4800 10.4769 0.3415
31.5000 10.4835 0.3369
31.5200 10.4902 0.3371
31.5400 10.4970 0.3408
31.5600 10.5037 0.3371
31.5800 10.5104 0.3362
31.6000 10.5170 0.3399
31.6200 10.5237 0.3338
31.6400 10.5303 0.3389
31.6600 10.5369 0.3416
31.6800 10.5436 0.3346
31.7000 10.5503 0.3377
31.7200 10.5570 0.3395
31.7400 10.5637 0.3303
31.7600 10.5703 0.3390
31.7800 10.5770 0.3424
31.8000 10.5837 0.3271
31.8200 10.5903 0.3350
31.8400 10.5969 0.3407
31.8600 10.6035 0.3282
31.8800 10.6102 0.3352
31.9000 10.6169 0.3384
31.9200 10.6236 0.3347
31.9400 10.6303 0.3310
31.9600 10.6370 0.3365
31.9800 10.6437 0.3327
32.0000 10.6503 0.3297
32.0200 10.6569 0.3332
32.0400 10.6635 0.3347
32.0600 10.6702 0.3321
32.0800 10.6769 0.3325
32.1000 10.6836 0.3351
32.1200 10.6903 0.3249
32.1400 10.6970 0.3327
32.1600 10.7037 0.3335
32.1800 10.7103 0.3246
32.2000 10.7169 0.3323
32.2200 10.7235 0.3337
32.2400 10.7302 0.3238
32.2600 10.7370 0.3343
32.2800 10.7437 0.3297
32.3000 10.7503 0.3253
32.3200 10.7570 0.3322
32.3400 10.7637 0.3289
32.3600 10.7703 0.3226
32.3800 10.7769 0.3303
32.4000 10.7836 0.3271
32.4200 10.7902 0.3279
32.4400 10.7970 0.3295
32.4600 10.8037 0.3215
32.4800 10.8103 0.3322
32.5000 10.8170 0.3318
32.5200 10.8237 0.3212
32.5400 10.8303 0.3301
32.5600 10.8369 0.3275
32.5800 10.8435 0.3229
32.6000 10.8502 0.3345
32.6200 10.8569 0.3279
32.6400 10.8637 0.3188
32.6600 10.8703 0.3323
32.6800 10.8770 0.3237
32.7000 10.8837 0.3167
32.7200 10.8903 0.3342
32.7400 10.8969 0.3263
32.7600 10.9035 0.3182
32.7800 10.9102 0.3309
32.8000 10.9169 0.3252
32.8200 10.9236 0.3214
32.8400 10.9303 0.3275
32.8600 10.9370 0.3181
32.8800 10.9436 0.3264
32.9000 10.9503 0.3284
32.9200 10.9569 0.3165
32.9400 10.9635 0.3225
32.9600 10.9702 0.3332
32.9800 10.9769 0.3180
33.0000 10.9836 0.3244
33.0200 10.9903 0.3246
33.0400 10.9970 0.3237
33.0600 11.0037 0.3220
33.0800 11.0103 0.3237
33.1000 11.0169 0.3209
33.1200 11.0235 0.3286
33.1400 11.0302 0.3258
33.1600 11.0370 0.3143
33.1800 11.0437 0.3244
33.2000 11.0504 0.3244
33.2200 11.0570 0.3200
33.2400 11.0637 0.3221
33.2600 11.0703 0.3208
33.2800 11.0769 0.3205
33.3000 11.0835 0.3257
33.3200 11.0902 0.3225
33.3400 11.0969 0.3191
33.3600 11.1036 0.3266
33.3800 11.1103 0.3194
33.4000 11.1170 0.3148
33.4200 11.1237 0.3286
33.4400 11.1303 0.3160
33.4600 11.1369 0.3184
33.4800 11.1435 0.3258
33.5000 11.1502 0.3170
33.5200 11.1569 0.3192
33.5400 11.1636 0.3225
33.5600 11.1703 0.3165
33.5800 11.1770 0.3210
33.6000 11.1837 0.3202
33.6200 11.1903 0.3190
33.6400 11.1969 0.3217
33.6600 11.2036 0.3221
33.6800 11.2102 0.3127
33.7000 11.2170 0.3202
33.7200 11.2237 0.3159
33.7400 11.2304 0.3124
33.7600 11.2370 0.3277
33.7800 11.2437 0.3155
33.8000 11.2503 0.3099
33.8200 11.2569 0.3288
33.8400 11.2636 0.3165
33.8600 11.2702 0.3149
33.8800 11.2769 0.3202
33.9000 11.2836 0.3136
33.9200 11.2903 0.3145
33.9400 11.2970 0.3201
33.9600 11.3037 0.3075
33.9800 11.3103 0.3204
34.0000 11.3169 0.3167
34.0200 11.3235 0.3095
34.0400 11.3302 0.3195
34.0600 11.3369 0.3167
34.0800 11.3436 0.3086
34.1000 11.3503 0.3148
34.1200 11.3570 0.3184
34.1400 11.3637 0.3106
34.1600 11.3703 0.3154
34.1800 11.3769 0.3137
34.2000 11.3835 0.3167
34.2200 11.3901 0.3168
34.2400 11.3969 0.3140
34.2600 11.4036 0.3183
34.2800 11.4103 0.3153
34.3000 11.4170 0.3112
34.3200 11.4236 0.3178
34.3400 11.4303 0.3086
34.3600 11.4369 0.3135
34.3800 11.4435 0.3190
34.4000 11.4502 0.3097
34.4200 11.4569 0.3132
34.4400 11.4636 0.3183
34.4600 11.4703 0.3085
34.4800 11.4770 0.3154
34.5000 11.4837 0.3122
34.5200 11.4904 0.3092
34.5400 11.4970 0.3152
34.5600 11.5036 0.3123
34.5800 11.5102 0.3091
34.6000 11.5169 0.3213
34.6200 11.5236 0.3092
34.6400 11.5303 0.3103
34.6600 11.5370 0.3144
34.6800 11.5437 0.3087
34.7000 11.5503 0.3126
34.7200 11.5569 0.3152
34.7400 11.5635 0.3061
34.7600 11.5702 0.3100
34.7800 11.5769 0.3132
34.8000 11.5836 0.3087
34.8200 11.5903 0.3122
34.8400 11.5969 0.3093
34.8600 11.6036 0.3125
34.8800 11.6103 0.3114
34.9000 11.6169 0.3036
34.9200 11.6235 0.3109
34.9400 11.6302 0.3176
34.9600 11.6369 0.3075
34.9800 11.6436 0.3065
35.0000 11.6503 0.3100
35.0200 11.6570 0.3058
35.0400 11.6637 0.3135
35.0600 11.6704 0.3067
35.0800 11.6770 0.3045
35.1000 11.6836 0.3166
35.1200 11.6902 0.3031
35.1400 11.6969 0.3034
35.1600 11.7036 0.3159
35.1800 11.7103 0.3117
35.2000 11.7170 0.2986
35.2200 11.7237 0.3135
35.2400 11.7303 0.3063
35.2600 11.7369 0.3033
35.2800 11.7436 0.3154
35.3000 11.7502 0.3045
35.3200 11.7569 0.3059
35.3400 11.7636 0.3108
35.3600 11.7703 0.3022
35.3800 11.7770 0.3026
35.4000 11.7837 0.3111
35.4200 11.7904 0.3041
35.4400 11.7970 0.3020
35.4600 11.8036 0.3124
35.4800 11.8102 0.3041
35.5000 11.8169 0.3020
35.5200 11.8236 0.3073
35.5400 11.8303 0.2989
35.5600 11.8370 0.3074
35.5800 11.8437 0.3056
35.6000 11.8503 0.2980
35.6200 11.8570 0.3037
35.6400 11.8635 0.3077
35.6600 11.8702 0.3037
35.6800 11.8769 0.3025
35.7000 11.8836 0.3019
35.7200 11.8903 0.3032
35.7400 11.8970 0.3074
35.7600 11.9036 0.3023
35.7800 11.9103 0.3008
35.8000 11.9169 0.3088
35.8200 11.9236 0.2982
35.8400 11.9302 0.3049
35.8600 11.9369 0.3066
35.8800 11.9436 0.3003
35.9000 11.9503 0.3018
35.9200 11.9570 0.3054
35.9400 11.9637 0.2997
35.9600 11.9703 0.3051
35.9800 11.9770 0.3005
36.0000 11.9836 0.2980
36.0200 11.9902 0.3065
36.0400 11.9969 0.3010
36.0600 12.0036 0.2994
36.0800 12.0103 0.3068
36.1000 12.0170 0.2984
36.1200 12.0237 0.2990
36.1400 12.0304 0.3013
36.1600 12.0370 0.2954
36.1800 12.0436 0.3019
36.2000 12.0502 0.3051
36.2200 12.0569 0.2970
36.2400 12.0636 0.2996
36.2600 12.0703 0.3010
36.2800 12.0770 0.2992
36.3000 12.0836 0.2973
36.3200 12.0903 0.3013
36.3400 12.0970 0.2978
36.3600 12.1036 0.2967
36.3800 12.1102 0.3012
36.4000 12.1169 0.2996
36.4200 12.1236 0.2989
36.4400 12.1302 0.3008
36.4600 12.1369 0.2987
36.4800 12.1436 0.2998
36.5000 12.1503 0.2982
36.5200 12.1570 0.2967
36.5400 12.1636 0.2997
36.5600 12.1702 0.2964
36.5800 12.1769 0.2969
36.6000 12.1836 0.2975
36.6200 12.1903 0.2972
36.6400 12.1970 0.2920
36.6600 12.2037 0.3000
36.6800 12.2104 0.2921
36.7000 12.2170 0.2921
36.7200 12.2236 0.2997
36.7400 12.2302 0.2959
36.7600 12.2369 0.2913
36.7800 12.2436 0.2924
36.8000 12.2503 0.2999
36.8200 12.2570 0.2953
36.8400 12.2637 0.2920
36.8600 12.2703 0.2974
36.8800 12.2769 0.2916
36.9000 12.2836 0.2999
36.9200 12.2902 0.2970
36.9400 12.2969 0.2893
36.9600 12.3036 0.2965
36.9800 12.3103 0.2938
37.0000 12.3170 0.2894
37.0200 12.3236 0.2930
37.0400 12.3303 0.2954
37.0600 12.3369 0.2881
37.0800 12.3435 0.2924
37.1000 12.3502 0.2914
37.1200 12.3568 0.2918
37.1400 12.3636 0.2964
37.1600 12.3703 0.2908
37.1800 12.3770 0.2867
37.2000 12.3837 0.2958
37.2200 12.3904 0.2933
37.2400 12.3970 0.2922
37.2600 12.4036 0.2913
37.2800 12.4102 0.2951
37.3000 12.4169 0.2932
37.3200 12.4236 0.2900
37.3400 12.4303 0.2898
37.3600 12.4370 0.2930
37.3800 12.4437 0.2896
37.4000 12.4504 0.2903
37.4200 12.4570 0.2894
37.4400 12.4636 0.2906
37.4600 12.4702 0.2908
37.4800 12.4769 0.2902
37.5000 12.4836 0.2898
37.5200 12.4903 0.2913
37.5400 12.4970 0.2848
37.5600 12.5037 0.2887
37.5800 12.5104 0.2919
37.6000 12.5170 0.2847
37.6200 12.5236 0.2878
37.6400 12.5302 0.2918
37.6600 12.5369 0.2872
37.6800 12.5436 0.2896
37.7000 12.5503 0.2864
37.7200 12.5570 0.2873
37.7400 12.5637 0.2902
37.7600 12.5703 0.2844
37.7800 12.5769 0.2859
37.8000 12.5835 0.2863
37.8200 12.5901 0.2859
37.8400 12.5968 0.2865
37.8600 12.6035 0.2897
37.8800 12.6102 0.2827
37.9000 12.6169 0.2828
37.9200 12.6236 0.2858
37.9400 12.6303 0.2864
37.9600 12.6370 0.2839
37.9800 12.6436 0.2865
38.0000 12.6502 0.2858
38.0200 12.6569 0.2833
38.0400 12.6636 0.2860
38.0600 12.6703 0.2858
38.0800 12.6770 0.2844
38.1000 12.6837 0.2854
38.1200 12.6904 0.2801
38.1400 12.6970 0.2877
38.1600 12.7036 0.2861
38.1800 12.7102 0.2829
38.2000 12.7169 0.2835
38.2200 12.7236 0.2841
38.2400 12.7303 0.2794
38.2600 12.7370 0.2816
38.2800 12.7437 0.2832
38.3000 12.7504 0.2821
38.3200 12.7570 0.2820
38.3400 12.7636 0.2823
38.3600 12.7702 0.2777
38.3800 12.7769 0.2877
38.4000 12.7836 0.2820
38.4200 12.7903 0.2801
38.4400 12.7970 0.2825
38.4600 12.8036 0.2792
38.4800 12.8103 0.2811
38.5000 12.8170 0.2772
38.5200 12.8236 0.2814
38.5400 12.8302 0.2808
38.5600 12.8369 0.2798
38.5800 12.8436 0.2772
38.6000 12.8503 0.2837
38.6200 12.8569 0.2779
38.6400 12.8636 0.2790
38.6600 12.8703 0.2779
38.6800 12.8769 0.2739
38.7000 12.8836 0.2822
38.7200 12.8902 0.2808
38.7400 12.8969 0.2767
38.7600 12.9036 0.2808
38.7800 12.9103 0.2734
38.8000 12.9170 0.2785
38.8200 12.9237 0.2804
38.8400 12.9304 0.2742
38.8600 12.9370 0.2752
38.8800 12.9436 0.2779
38.9000 12.9502 0.2713
38.9200 12.9569 0.2801
38.9400 12.9636 0.2820
38.9600 12.9703 0.2698
38.9800 12.9770 0.2802
39.0000 12.9837 0.2776
39.0200 12.9903 0.2695
39.0400 12.9970 0.2809
39.0600 13.0036 0.2770
39.0800 13.0102 0.2710
39.1000 13.0169 0.2785
39.1200 13.0236 0.2734
39.1400 13.0303 0.2697
39.1600 13.0370 0.2819
39.1800 13.0436 0.2722
39.2000 13.0503 0.2716
39.2200 13.0570 0.2783
39.2400 13.0636 0.2713
39.2600 13.0702 0.2693
39.2800 13.0768 0.2745
39.3000 13.0836 0.2728
39.3200 13.0903 0.2683
39.3400 13.0970 0.2749
39.3600 13.1037 0.2723
39.3800 13.1103 0.2696
39.4000 13.1170 0.2737
39.4200 13.1236 0.2694
39.4400 13.1302 0.2716
39.4600 13.1369 0.2720
39.4800 13.1436 0.2702
39.5000 13.1503 0.2726
39.5200 13.1570 0.2732
39.5400 13.1637 0.2679
39.5600 13.1703 0.2704
39.5800 13.1770 0.2684
39.6000 13.1836 0.2679
39.6200 13.1902 0.2738
39.6400 13.1969 0.2650
39.6600 13.2036 0.2705
39.6800 13.2103 0.2650
39.7000 13.2170 0.2673
39.7200 13.2237 0.2687
39.7400 13.2303 0.2607
39.7600 13.2370 0.2643
39.7800 13.2436 0.2725
39.8000 13.2502 0.2603
39.8200 13.2569 0.2657
39.8400 13.2636 0.2698
39.8600 13.2703 0.2581
39.8800 13.2770 0.2666
39.9000 13.2837 0.2675
39.9200 13.2904 0.2602
39.9400 13.2970 0.2670
39.9600 13.3036 0.2646
39.9800 13.3102 0.2583
40.0000 13.3169 0.2696
40.0200 13.3235 0.2679
40.0400 13.3303 0.2559
40.0600 13.3369 0.2662
40.0800 13.3436 0.2664
40.1000 13.3503 0.2563
40.1200 13.3570 0.2652
40.1400 13.3636 0.2636
40.1600 13.3702 0.2575
40.1800 13.3769 0.2666
40.2000 13.3836 0.2633
40.2200 13.3903 0.2555
40.2400 13.3970 0.2710
40.2600 13.4037 0.2601
40.2800 13.4104 0.2541
40.3000 13.4170 0.2663
40.3200 13.4236 0.2615
40.3400 13.4302 0.2566
40.3600 13.4369 0.2639
40.3800 13.4436 0.2578
40.4000 13.4503 0.2572
40.4200 13.4570 0.2597
40.4400 13.4637 0.2610
40.4600 13.4703 0.2560
40.4800 13.4770 0.2614
40.5000 13.4836 0.2566
40.5200 13.4902 0.2566
40.5400 13.4968 0.2631
40.5600 13.5036 0.2602
40.5800 13.5103 0.2556
40.6000 13.5170 0.2595
40.6200 13.5236 0.2596
40.6400 13.5303 0.2566
40.6600 13.5370 0.2592
40.6800 13.5436 0.2599
40.7000 13.5502 0.2540
40.7200 13.5568 0.2602
40.7400 13.5635 0.2599
40.7600 13.5702 0.2521
40.7800 13.5769 0.2606
40.8000 13.5836 0.2564
40.8200 13.5903 0.2511
40.8400 13.5970 0.2616
40.8600 13.6036 0.2578
40.8800 13.6102 0.2516
40.9000 13.6169 0.2579
40.9200 13.6236 0.2602
40.9400 13.6303 0.2538
40.9600 13.6370 0.2602
40.9800 13.6437 0.2558
41.0000 13.6504 0.2518
41.0200 13.6570 0.2660
41.0400 13.6637 0.2519
41.0600 13.6703 0.2523
41.0800 13.6769 0.2633
41.1000 13.6836 0.2535
41.1200 13.6902 0.2519
41.1400 13.6969 0.2593
41.1600 13.7036 0.2469
41.1800 13.7104 0.2531
41.2000 13.7171 0.2583
41.2200 13.7237 0.2481
41.2400 13.7303 0.2549
41.2600 13.7369 0.2601
41.2800 13.7435 0.2483
41.3000 13.7503 0.2541
41.3200 13.7569 0.2595
41.3400 13.7636 0.2479
41.3600 13.7703 0.2474
41.3800 13.7770 0.2595
41.4000 13.7836 0.2465
41.4200 13.7902 0.2526
41.4400 13.7968 0.2582
41.4600 13.8035 0.2428
41.4800 13.8103 0.2563
41.5000 13.8169 0.2556
41.5200 13.8236 0.2416
41.5400 13.8303 0.2526
41.5600 13.8370 0.2542
41.5800 13.8436 0.2389
41.6000 13.8502 0.2506
41.6200 13.8569 0.2580
41.6400 13.8636 0.2444
41.6600 13.8703 0.2497
41.6800 13.8769 0.2520
41.7000 13.8836 0.2437
41.7200 13.8903 0.2562
41.7400 13.8970 0.2484
41.7600 13.9037 0.2440
41.7800 13.9103 0.2527
41.8000 13.9169 0.2477
41.8200 13.9236 0.2440
41.8400 13.9303 0.2522
41.8600 13.9370 0.2481
41.8800 13.9437 0.2401
41.9000 13.9503 0.2483
41.9200 13.9570 0.2476
41.9400 13.9636 0.2444
41.9600 13.9702 0.2502
41.9800 13.9769 0.2460
42.0000 13.9836 0.2425
42.0200 13.9903 0.2461
42.0400 13.9970 0.2474
42.0600 14.0036 0.2461
42.0800 14.0103 0.2497
42.1000 14.0170 0.2368
42.1200 14.0236 0.2430
42.1400 14.0302 0.2505
42.1600 14.0368 0.2425
42.1800 14.0435 0.2442
42.2000 14.0502 0.2481
42.2200 14.0569 0.2399
42.2400 14.0636 0.2430
42.2600 14.0703 0.2461
42.2800 14.0770 0.2388
42.3000 14.0837 0.2418
42.3200 14.0903 0.2436
42.3400 14.0969 0.2356
42.3600 14.1036 0.2440
42.3800 14.1103 0.2429
42.4000 14.1170 0.2347
42.4200 14.1237 0.2417
42.4400 14.1304 0.2433
42.4600 14.1370 0.2342
42.4800 14.1437 0.2383
42.5000 14.1503 0.2458
42.5200 14.1569 0.2361
42.5400 14.1636 0.2380
42.5600 14.1703 0.2430
42.5800 14.1770 0.2369
42.6000 14.1837 0.2346
42.6200 14.1903 0.2419
42.6400 14.1970 0.2343
42.6600 14.2037 0.2377
42.6800 14.2102 0.2387
42.7000 14.2168 0.2355
42.7200 14.2235 0.2364
42.7400 14.2302 0.2394
42.7600 14.2369 0.2342
42.7800 14.2436 0.2336
42.8000 14.2503 0.2370
42.8200 14.2570 0.2308
42.8400 14.2637 0.2355
42.8600 14.2703 0.2379
42.8800 14.2769 0.2310
42.9000 14.2835 0.2372
42.9200 14.2902 0.2388
42.9400 14.2969 0.2284
42.9600 14.3036 0.2353
42.9800 14.3103 0.2366
43.0000 14.3170 0.2297
43.0200 14.3236 0.2370
43.0400 14.3303 0.2323
43.0600 14.3369 0.2337
43.0800 14.3436 0.2368
43.1000 14.3503 0.2282
43.1200 14.3570 0.2326
43.1400 14.3637 0.2355
43.1600 14.3703 0.2316
43.1800 14.3770 0.2342
43.2000 14.3837 0.2339
43.2200 14.3903 0.2294
43.2400 14.3969 0.2341
43.2600 14.4036 0.2333
43.2800 14.4103 0.2313
43.3000 14.4170 0.2300
43.3200 14.4237 0.2269
43.3400 14.4304 0.2313
43.3600 14.4371 0.2315
43.3800 14.4437 0.2286
43.4000 14.4503 0.2349
43.4200 14.4569 0.2241
43.4400 14.4635 0.2301
43.4600 14.4702 0.2359
43.4800 14.4769 0.2276
43.5000 14.4836 0.2256
43.5200 14.4902 0.2315
43.5400 14.4969 0.2267
43.5600 14.5036 0.2296
43.5800 14.5103 0.2343
43.6000 14.5169 0.2259
43.6200 14.5235 0.2257
43.6400 14.5303 0.2330
43.6600 14.5369 0.2224
43.6800 14.5436 0.2280
43.7000 14.5503 0.2362
43.7200 14.5570 0.2247
43.7400 14.5637 0.2239
43.7600 14.5703 0.2301
43.7800 14.5769 0.2239
43.8000 14.5835 0.2245
43.8200 14.5902 0.2317
43.8400 14.5970 0.2229
43.8600 14.6036 0.2230
43.8800 14.6103 0.2310
43.9000 14.6170 0.2242
43.9200 14.6237 0.2190
43.9400 14.6303 0.2336
43.9600 14.6369 0.2237
43.9800 14.6435 0.2191
44.0000 14.6503 0.2292
44.0200 14.6570 0.2261
44.0400 14.6637 0.2154
44.0600 14.6703 0.2261
44.0800 14.6770 0.2260
44.1000 14.6837 0.2177
44.1200 14.6903 0.2254
44.1400 14.6969 0.2285
44.1600 14.7035 0.2172
44.1800 14.7102 0.2279
44.2000 14.7169 0.2208
44.2200 14.7236 0.2170
44.2400 14.7303 0.2259
44.2600 14.7370 0.2221
44.2800 14.7437 0.2176
44.3000 14.7502 0.2223
44.3200 14.7568 0.2238
44.3400 14.7634 0.2210
44.3600 14.7702 0.2205
44.3800 14.7769 0.2208
44.4000 14.7836 0.2191
44.4200 14.7903 0.2233
44.4400 14.7970 0.2165
44.4600 14.8036 0.2196
44.4800 14.8102 0.2239
44.5000 14.8169 0.2198
44.5200 14.8235 0.2176
44.5400 14.8303 0.2206
44.5600 14.8370 0.2219
44.5800 14.8437 0.2143
44.6000 14.8503 0.2178
44.6200 14.8570 0.2230
44.6400 14.8637 0.2156
44.6600 14.8703 0.2191
44.6800 14.8769 0.2236
44.7000 14.8836 0.2139
44.7200 14.8903 0.2213
44.7400 14.8970 0.2199
44.7600 14.9037 0.2119
44.7800 14.9104 0.2179
44.8000 14.9170 0.2193
44.8200 14.9237 0.2094
44.8400 14.9303 0.2193
44.8600 14.9369 0.2168
44.8800 14.9435 0.2145
44.9000 14.9502 0.2210
44.9200 14.9569 0.2183
44.9400 14.9636 0.2136
44.9600 14.9703 0.2226
44.9800 14.9770 0.2154
45.0000 14.9836 0.2106
45.0200 14.9903 0.2151
45.0400 14.9969 0.2207
45.0600 15.0035 0.2126
45.0800 15.0102 0.2194
45.1000 15.0169 0.2110
45.1200 15.0236 0.2114
45.1400 15.0303 0.2227
45.1600 15.0369 0.2135
45.1800 15.0436 0.2076
45.2000 15.0503 0.2194
45.2200 15.0569 0.2127
45.2400 15.0636 0.2109
45.2600 15.0703 0.2170
45.2800 15.0770 0.2120
45.3000 15.0837 0.2143
45.3200 15.0903 0.2155
45.3400 15.0970 0.2081
45.3600 15.1037 0.2154
45.3800 15.1104 0.2139
45.4000 15.1169 0.2039
45.4200 15.1235 0.2157
45.4400 15.1302 0.2143
45.4600 15.1370 0.2089
45.4800 15.1437 0.2120
45.5000 15.1504 0.2145
45.5200 15.1570 0.2096
45.5400 15.1637 0.2101
45.5600 15.1703 0.2089
45.5800 15.1769 0.2116
45.6000 15.1835 0.2119
45.6200 15.1902 0.2094
45.6400 15.1970 0.2097
45.6600 15.2037 0.2116
45.6800 15.2103 0.2064
45.7000 15.2170 0.2071
45.7200 15.2237 0.2061
45.7400 15.2303 0.2094
45.7600 15.2369 0.2117
45.7800 15.2435 0.2020
45.8000 15.2502 0.2078
45.8200 15.2569 0.2098
45.8400 15.2636 0.2026
45.8600 15.2703 0.2082
45.8800 15.2770 0.2070
45.9000 15.2837 0.2049
45.9200 15.2903 0.2041
45.9400 15.2969 0.2084
45.9600 15.3035 0.2072
45.9800 15.3102 0.2068
46.0000 15.3170 0.2014
46.0200 15.3237 0.2032
46.0400 15.3304 0.2078
46.0600 15.3370 0.1991
46.0800 15.3437 0.2034
46.1000 15.3503 0.2035
46.1200 15.3569 0.2027
46.1400 15.3636 0.2049
46.1600 15.3702 0.2035
46.1800 15.3770 0.2011
46.2000 15.3837 0.2028
46.2200 15.3903 0.2017
46.2400 15.3970 0.1994
46.2600 15.4037 0.2033
46.2800 15.4103 0.2006
46.3000 15.4169 0.1979
46.3200 15.4235 0.2037
46.3400 15.4302 0.2026
46.3600 15.4369 0.1988
46.3800 15.4436 0.1975
46.4000 15.4503 0.2052
46.4200 15.4570 0.2004
46.4400 15.4637 0.1970
46.4600 15.4703 0.1977
46.4800 15.4769 0.1997
46.5000 15.4835 0.2015
46.5200 15.4902 0.2042
46.5400 15.4969 0.1930
46.5600 15.5036 0.1968
46.5800 15.5103 0.2016
46.6000 15.5170 0.1908
46.6200 15.5236 0.1989
46.6400 15.5303 0.1991
46.6600 15.5369 0.1892
46.6800 15.5435 0.1963
46.7000 15.5502 0.1993
46.7200 15.5569 0.1914
46.7400 15.5636 0.1967
46.7600 15.5703 0.2003
46.7800 15.5769 0.1925
46.8000 15.5837 0.1970
46.8200 15.5904 0.1915
46.8400 15.5970 0.1907
46.8600 15.6036 0.1988
46.8800 15.6103 0.1922
46.9000 15.6170 0.1923
46.9200 15.6237 0.1902
46.9400 15.6303 0.1919
46.9600 15.6370 0.1934
46.9800 15.6437 0.1933
47.0000 15.6503 0.1863
47.0200 15.6569 0.1931
47.0400 15.6635 0.1931
47.0600 15.6702 0.1902
47.0800 15.6769 0.1943
47.1000 15.6836 0.1887
47.1200 15.6903 0.1897
47.1400 15.6970 0.1918
47.1600 15.7037 0.1850
47.1800 15.7103 0.1967
47.2000 15.7169 0.1909
47.2200 15.7235 0.1867
47.2400 15.7302 0.1946
47.2600 15.7369 0.1878
47.2800 15.7436 0.1885
47.3000 15.7503 0.1913
47.3200 15.7570 0.1792
47.3400 15.7637 0.1862
47.3600 15.7703 0.1952
47.3800 15.7769 0.1821
47.4000 15.7836 0.1884
47.4200 15.7902 0.1970
47.4400 15.7969 0.1791
47.4600 15.8036 0.1890
47.4800 15.8103 0.1936
47.5000 15.8170 0.1763
47.5200 15.8237 0.1853
47.5400 15.8303 0.1882
47.5600 15.8369 0.1800
47.5800 15.8435 0.1918
47.6000 15.8502 0.1910
47.6200 15.8569 0.1735
47.6400 15.8637 0.1906
47.6600 15.8704 0.1888
47.6800 15.8771 0.1771
47.7000 15.8837 0.1915
47.7200 15.8904 0.1852
47.7400 15.8969 0.1761
47.7600 15.9036 0.1934
47.7800 15.9102 0.1864
47.8000 15.9169 0.1828
47.8200 15.9236 0.1858
47.8400 15.9303 0.1835
47.8600 15.9370 0.1777
47.8800 15.9437 0.1885
47.9000 15.9503 0.1890
47.9200 15.9569 0.1763
47.9400 15.9635 0.1828
47.9600 15.9702 0.1890
47.9800 15.9769 0.1798
48.0000 15.9836 0.1836
48.0200 15.9903 0.1847
48.0400 15.9970 0.1799
48.0600 16.0037 0.1852
48.0800 16.0103 0.1835
48.1000 16.0169 0.1770
48.1200 16.0236 0.1844
48.1400 16.0302 0.1857
48.1600 16.0370 0.1788
48.1800 16.0437 0.1813
48.2000 16.0504 0.1841
48.2200 16.0570 0.1808
48.2400 16.0637 0.1801
48.2600 16.0704 0.1829
48.2800 16.0770 0.1784
48.3000 16.0836 0.1799
48.3200 16.0902 0.1824
48.3400 16.0969 0.1808
48.3600 16.1036 0.1804
48.3800 16.1103 0.1801
48.4000 16.1170 0.1757
48.4200 16.1237 0.1792
48.4400 16.1304 0.1818
48.4600 16.1370 0.1794
48.4800 16.1435 0.1734
48.5000 16.1502 0.1822
48.5200 16.1569 0.1787
48.5400 16.1636 0.1754
48.5600 16.1703 0.1808
48.5800 16.1770 0.1786
48.6000 16.1837 0.1765
48.6200 16.1903 0.1773
48.6400 16.1969 0.1747
48.6600 16.2035 0.1759
48.6800 16.2102 0.1795
48.7000 16.2169 0.1756
48.7200 16.2236 0.1733
48.7400 16.2303 0.1769
48.7600 16.2369 0.1764
48.7800 16.2436 0.1748
48.8000 16.2503 0.1741
48.8200 16.2569 0.1778
48.8400 16.2636 0.1745
48.8600 16.2702 0.1754
48.8800 16.2769 0.1733
48.9000 16.2836 0.1767
48.9200 16.2903 0.1713
48.9400 16.2970 0.1736
48.9600 16.3037 0.1727
48.9800 16.3104 0.1749
49.0000 16.3170 0.1733
49.0200 16.3236 0.1724
49.0400 16.3302 0.1764
49.0600 16.3369 0.1707
49.0800 16.3436 0.1695
49.1000 16.3503 0.1738
49.1200 16.3570 0.1653
49.1400 16.3637 0.1749
49.1600 16.3703 0.1727
49.1800 16.3769 0.1599
49.2000 16.3835 0.1750
49.2200 16.3902 0.1763
49.2400 16.3969 0.1628
49.2600 16.4036 0.1694
49.2800 16.4102 0.1756
49.3000 16.4169 0.1668
49.3200 16.4236 0.1694
49.3400 16.4303 0.1633
49.3600 16.4369 0.1668
49.3800 16.4435 0.1743
49.4000 16.4502 0.1633
49.4200 16.4569 0.1649
49.4400 16.4636 0.1740
49.4600 16.4703 0.1591
49.4800 16.4770 0.1643
49.5000 16.4837 0.1693
49.5200 16.4903 0.1607
49.5400 16.4970 0.1686
49.5600 16.5036 0.1673
49.5800 16.5102 0.1579
49.6000 16.5169 0.1705
49.6200 16.5236 0.1656
49.6400 16.5303 0.1558
49.6600 16.5370 0.1691
49.6800 16.5437 0.1656
49.7000 16.5503 0.1594
49.7200 16.5570 0.1655
49.7400 16.5636 0.1619
49.7600 16.5702 0.1643
49.7800 16.5769 0.1667
49.8000 16.5836 0.1556
49.8200 16.5903 0.1661
49.8400 16.5970 0.1661
49.8600 16.6037 0.1523
49.8800 16.6104 0.1595
49.9000 16.6170 0.1668
49.9200 16.6236 0.1558
49.9400 16.6302 0.1580
49.9600 16.6369 0.1646
49.9800 16.6436 0.1557
50.0000 16.6503 0.1573
50.0200 16.6570 0.1649
50.0400 16.6637 0.1566
50.0600 16.6704 0.1549
50.0800 16.6770 0.1633
50.1000 16.6835 0.1599
50.1200 16.6902 0.1585
50.1400 16.6969 0.1619
50.1600 16.7036 0.1582
50.1800 16.7103 0.1604
50.2000 16.7170 0.1571
50.2200 16.7237 0.1571
50.2400 16.7303 0.1592
50.2600 16.7369 0.1616
50.2800 16.7435 0.1534
50.3000 16.7502 0.1567
50.3200 16.7569 0.1620
50.3400 16.7636 0.1583
50.3600 16.7703 0.1535
50.3800 16.7770 0.1597
50.4000 16.7837 0.1562
50.4200 16.7903 0.1539
50.4400 16.7970 0.1538
50.4600 16.8036 0.1548
50.4800 16.8102 0.1580
50.5000 16.8169 0.1517
50.5200 16.8236 0.1507
50.5400 16.8303 0.1569
50.5600 16.8370 0.1499
50.5800 16.8437 0.1548
50.6000 16.8504 0.1537
50.6200 16.8570 0.1468
50.6400 16.8636 0.1548
50.6600 16.8702 0.1535
50.6800 16.8769 0.1457
50.7000 16.8836 0.1542
50.7200 16.8903 0.1538
50.7400 16.8970 0.1440
50.7600 16.9037 0.1525
50.7800 16.9103 0.1483
50.8000 16.9170 0.1497
50.8200 16.9236 0.1509
50.8400 16.9302 0.1474
50.8600 16.9369 0.1509
50.8800 16.9436 0.1496
50.9000 16.9502 0.1435
50.9200 16.9569 0.1522
50.9400 16.9636 0.1502
50.9600 16.9703 0.1396
50.9800 16.9769 0.1502
51.0000 16.9836 0.1498
51.0200 16.9902 0.1421
51.0400 16.9969 0.1504
51.0600 17.0036 0.1401
51.0800 17.0103 0.1415
51.1000 17.0170 0.1531
51.1200 17.0237 0.1408
51.1400 17.0304 0.1405
51.1600 17.0370 0.1521
51.1800 17.0436 0.1426
51.2000 17.0502 0.1380
51.2200 17.0569 0.1468
51.2400 17.0636 0.1456
51.2600 17.0703 0.1384
51.2800 17.0770 0.1407
51.3000 17.0837 0.1443
51.3200 17.0903 0.1367
51.3400 17.0970 0.1412
51.3600 17.1036 0.1439
51.3800 17.1102 0.1406
51.4000 17.1169 0.1415
51.4200 17.1236 0.1357
51.4400 17.1303 0.1416
51.4600 17.1370 0.1477
51.4800 17.1436 0.1326
51.5000 17.1503 0.1405
51.5200 17.1570 0.1462
51.5400 17.1636 0.1346
51.5600 17.1702 0.1331
51.5800 17.1768 0.1501
51.6000 17.1836 0.1373
51.6200 17.1903 0.1261
51.6400 17.1970 0.1407
51.6600 17.2037 0.1415
51.6800 17.2103 0.1308
51.7000 17.2170 0.1314
51.7200 17.2236 0.1384
51.7400 17.2302 0.1330
51.7600 17.2369 0.1340
51.7800 17.2436 0.1330
51.8000 17.2503 0.1356
51.8200 17.2570 0.1339
51.8400 17.2637 0.1276
51.8600 17.2703 0.1349
51.8800 17.2770 0.1342
51.9000 17.2836 0.1259
51.9200 17.2902 0.1274
51.9400 17.2969 0.1384
51.9600 17.3036 0.1299
51.9800 17.3103 0.1271
52.0000 17.3170 0.1344
52.0200 17.3237 0.1278
52.0400 17.3304 0.1245
52.0600 17.3370 0.1331
52.0800 17.3436 0.1285
52.1000 17.3502 0.1251
52.1200 17.3569 0.1319
52.1400 17.3636 0.1247
52.1600 17.3703 0.1273
52.1800 17.3770 0.1299
52.2000 17.3836 0.1239
52.2200 17.3903 0.1227
52.2400 17.3970 0.1296
52.2600 17.4036 0.1219
52.2800 17.4102 0.1252
52.3000 17.4168 0.1297
52.3200 17.4235 0.1238
52.3400 17.4302 0.1208
52.3600 17.4369 0.1289
52.3800 17.4436 0.1260
52.4000 17.4503 0.1210
52.4200 17.4570 0.1268
52.4400 17.4636 0.1281
52.4600 17.4702 0.1228
52.4800 17.4769 0.1252
52.5000 17.4836 0.1220
52.5200 17.4903 0.1248
52.5400 17.4970 0.1238
52.5600 17.5037 0.1178
52.5800 17.5104 0.1192
52.6000 17.5170 0.1219
52.6200 17.5236 0.1173
52.6400 17.5302 0.1206
52.6600 17.5369 0.1260
52.6800 17.5436 0.1226
52.7000 17.5503 0.1148
52.7200 17.5570 0.1204
52.7400 17.5637 0.1233
52.7600 17.5704 0.1135
52.7800 17.5770 0.1218
52.8000 17.5836 0.1206
52.8200 17.5902 0.1145
52.8400 17.5969 0.1178
52.8600 17.6036 0.1236
52.8800 17.6103 0.1081
52.9000 17.6170 0.1149
52.9200 17.6236 0.1261
52.9400 17.6303 0.1081
52.9600 17.6370 0.1144
52.9800 17.6436 0.1243
53.0000 17.6502 0.1142
53.0200 17.6569 0.1185
53.0400 17.6636 0.1221
53.0600 17.6703 0.1103
53.0800 17.6769 0.1216
53.1000 17.6836 0.1193
53.1200 17.6903 0.1058
53.1400 17.6970 0.1210
53.1600 17.7036 0.1161
53.1800 17.7102 0.1113
53.2000 17.7169 0.1199
53.2200 17.7236 0.1175
53.2400 17.7303 0.1093
53.2600 17.7370 0.1170
53.2800 17.7437 0.1153
53.3000 17.7504 0.1066
53.3200 17.7570 0.1162
53.3400 17.7636 0.1177
53.3600 17.7702 0.1077
53.3800 17.7769 0.1157
53.4000 17.7836 0.1173
53.4200 17.7903 0.1146
53.4400 17.7970 0.1094
53.4600 17.8037 0.1137
53.4800 17.8104 0.1168
53.5000 17.8170 0.1118
53.5200 17.8236 0.1115
53.5400 17.8302 0.1092
53.5600 17.8369 0.1184
53.5800 17.8436 0.1115
53.6000 17.8503 0.1111
53.6200 17.8569 0.1172
53.6400 17.8636 0.1082
53.6600 17.8703 0.1131
53.6800 17.8770 0.1124
53.7000 17.8836 0.1040
53.7200 17.8902 0.1134
53.7400 17.8968 0.1137
53.7600 17.9035 0.1032
53.7800 17.9102 0.1131
53.8000 17.9169 0.1181
53.8200 17.9236 0.1036
53.8400 17.9303 0.1099
53.8600 17.9370 0.1098
53.8800 17.9436 0.1069
53.9000 17.9502 0.1148
53.9200 17.9569 0.1083
53.9400 17.9636 0.1053
53.9600 17.9703 0.1113
53.9800 17.9770 0.1085
54.0000 17.9837 0.1109
54.0200 17.9904 0.1071
54.0400 17.9970 0.1096
54.0600 18.0037 0.1070
54.0800 18.0102 0.1055
54.1000 18.0169 0.1066
54.1200 18.0235 0.1086
54.1400 18.0303 0.1046
54.1600 18.0370 0.1036
54.1800 18.0437 0.1085
54.2000 18.0503 0.1002
54.2200 18.0570 0.1047
54.2400 18.0636 0.1029
54.2600 18.0702 0.1001
54.2800 18.0769 0.1097
54.3000 18.0836 0.1013
54.3200 18.0903 0.0924
54.3400 18.0970 0.1071
54.3600 18.1037 0.1006
54.3800 18.1103 0.0980
54.4000 18.1170 0.1038
54.4200 18.1236 0.0997
54.4400 18.1302 0.0913
54.4600 18.1368 0.1068
54.4800 18.1435 0.0956
54.5000 18.1502 0.0914
54.5200 18.1569 0.1095
54.5400 18.1636 0.0900
54.5600 18.1703 0.0935
54.5800 18.1770 0.1035
54.6000 18.1836 0.0872
54.6200 18.1902 0.0970
54.6400 18.1969 0.1010
54.6600 18.2035 0.0846
54.6800 18.2103 0.0925
54.7000 18.2170 0.1027
54.7200 18.2237 0.0792
54.7400 18.2304 0.0988
54.7600 18.2371 0.0998
54.7800 18.2437 0.0768
54.8000 18.2503 0.0982
54.8200 18.2569 0.0999
54.8400 18.2636 0.0771
54.8600 18.2703 0.0980
54.8800 18.2770 0.0913
54.9000 18.2837 0.0768
54.9200 18.2904 0.0988
54.9400 18.2970 0.0925
54.9600 18.3036 0.0750
54.9800 18.3102 0.0972
55.0000 18.3169 0.0915
55.0200 18.3236 0.0775
55.0400 18.3303 0.0941
55.0600 18.3369 0.0883
55.0800 18.3436 0.0851
55.1000 18.3503 0.0914
55.1200 18.3570 0.0836
55.1400 18.3636 0.0796
55.1600 18.3702 0.0933
55.1800 18.3768 0.0822
55.2000 18.3835 0.0788
55.2200 18.3902 0.0923
55.2400 18.3969 0.0757
55.2600 18.4036 0.0806
55.2800 18.4103 0.0959
55.3000 18.4170 0.0743
55.3200 18.4236 0.0815
55.3400 18.4302 0.0903
55.3600 18.4369 0.0792
55.3800 18.4436 0.0785
55.4000 18.4503 0.0915
55.4200 18.4570 0.0793
55.4400 18.4637 0.0763
55.4600 18.4703 0.0823
55.4800 18.4770 0.0838
55.5000 18.4837 0.0815
55.5200 18.4903 0.0730
55.5400 18.4969 0.0822
55.5600 18.5036 0.0898
55.5800 18.5103 0.0699
55.6000 18.5170 0.0712
55.6200 18.5236 0.0939
55.6400 18.5303 0.0746
55.6600 18.5370 0.0612
55.6800 18.5437 0.0946
55.7000 18.5503 0.0732
55.7200 18.5569 0.0678
55.7400 18.5635 0.0833
55.7600 18.5703 0.0729
55.7800 18.5770 0.0760
55.8000 18.5836 0.0704
55.8200 18.5903 0.0716
55.8400 18.5970 0.0882
55.8600 18.6036 0.0657
55.8800 18.6102 0.0590
55.9000 18.6168 0.0870
55.9200 18.6235 0.0674
55.9400 18.6302 0.0653
55.9600 18.6369 0.0910
55.9800 18.6436 0.0565
56.0000 18.6503 0.0572
56.0200 18.6570 0.0963
56.0400 18.6636 0.0488
56.0600 18.6703 0.0675
56.0800 18.6769 0.0897
56.1000 18.6836 0.0457
56.1200 18.6903 0.0729
56.1400 18.6970 0.0807
56.1600 18.7037 0.0468
56.1800 18.7104 0.0899
56.2000 18.7170 0.0665
56.2200 18.7237 0.0406
56.2400 18.7303 0.0966
56.2600 18.7369 0.0654
56.2800 18.7436 0.0408
56.3000 18.7503 0.0968
56.3200 18.7570 0.0557
56.3400 18.7637 0.0455
56.3600 18.7704 0.0884
56.3800 18.7770 0.0518
56.4000 18.7837 0.0601
56.4200 18.7903 0.0838
56.4400 18.7969 0.0479
56.4600 18.8036 0.0618
56.4800 18.8103 0.0755
56.5000 18.8170 0.0528
56.5200 18.8236 0.0718
56.5400 18.8303 0.0625
56.5600 18.8370 0.0463
56.5800 18.8436 0.0728
56.6000 18.8502 0.0617
56.6200 18.8568 0.0522
56.6400 18.8635 0.0719
56.6600 18.8702 0.0546
56.6800 18.8769 0.0559
56.7000 18.8836 0.0653
56.7200 18.8903 0.0571
56.7400 18.8970 0.0619
56.7600 18.9037 0.0573
56.7800 18.9103 0.0473
56.8000 18.9169 0.0705
56.8200 18.9235 0.0535
56.8400 18.9303 0.0453
56.8600 18.9370 0.0642
56.8800 18.9437 0.0519
56.9000 18.9504 0.0526
56.9200 18.9570 0.0672
56.9400 18.9637 0.0448
56.9600 18.9703 0.0555
56.9800 18.9769 0.0622
57.0000 18.9836 0.0429
57.0200 18.9903 0.0577
57.0400 18.9970 0.0600
57.0600 19.0037 0.0422
57.0800 19.0103 0.0573
57.1000 19.0170 0.0560
57.1200 19.0236 0.0452
57.1400 19.0303 0.0585
57.1600 19.0369 0.0497
57.1800 19.0435 0.0437
57.2000 19.0502 0.0593
57.2200 19.0569 0.0456
57.2400 19.0636 0.0436
57.2600 19.0703 0.0596
57.2800 19.0770 0.0451
57.3000 19.0837 0.0410
57.3200 19.0903 0.0517
57.3400 19.0969 0.0467
57.3600 19.1035 0.0471
57.3800 19.1102 0.0518
57.4000 19.1169 0.0423
57.4200 19.1236 0.0468
57.4400 19.1303 0.0458
57.4600 19.1370 0.0469
57.4800 19.1436 0.0479
57.5000 19.1502 0.0417
57.5200 19.1569 0.0393
57.5400 19.1635 0.0559
57.5600 19.1703 0.0415
57.5800 19.1770 0.0333
57.6000 19.1837 0.0471
57.6200 19.1903 0.0423
57.6400 19.1970 0.0377
57.6600 19.2037 0.0376
57.6800 19.2103 0.0482
57.7000 19.2169 0.0361
57.7200 19.2235 0.0283
57.7400 19.2303 0.0567
57.7600 19.2370 0.0363
57.7800 19.2437 0.0188
57.8000 19.2504 0.0520
57.8200 19.2571 0.0420
57.8400 19.2637 0.0206
57.8600 19.2703 0.0453
57.8800 19.2769 0.0423
57.9000 19.2835 0.0306
57.9200 19.2902 0.0367
57.9400 19.2969 0.0373
57.9600 19.3036 0.0376
57.9800 19.3103 0.0265
58.0000 19.3170 0.0324
58.0200 19.3237 0.0453
58.0400 19.3303 0.0277
58.0600 19.3369 0.0216
58.0800 19.3435 0.0464
58.1000 19.3502 0.0310
58.1200 19.3569 0.0268
58.1400 19.3636 0.0426
58.1600 19.3703 0.0276
58.1800 19.3770 0.0198
58.2000 19.3836 0.0425
58.2200 19.3903 0.0280
58.2400 19.3969 0.0305
58.2600 19.4036 0.0331
58.2800 19.4102 0.0231
58.3000 19.4169 0.0338
58.3200 19.4236 0.0356
58.3400 19.4303 0.0142
58.3600 19.4370 0.0389
58.3800 19.4437 0.0331
58.4000 19.4503 0.0084
58.4200 19.4569 0.0454
58.4400 19.4635 0.0342
58.4600 19.4702 0.0099
58.4800 19.4770 0.0362
58.5000 19.4837 0.0291
58.5200 19.4903 0.0222
58.5400 19.4970 0.0329
58.5600 19.5037 0.0174
58.5800 19.5103 0.0290
58.6000 19.5169 0.0346
58.6200 19.5236 0.0134
58.6400 19.5303 0.0355
58.6600 19.5370 0.0265
58.6800 19.5436 0.0085
58.7000 19.5503 0.0362
58.7200 19.5570 0.0265
58.7400 19.5637 0.0072
58.7600 19.5703 0.0321
58.7800 19.5769 0.0252
58.8000 19.5835 0.0058
58.8200 19.5902 0.0285
58.8400 19.5969 0.0205
58.8600 19.6036 0.0165
58.8800 19.6103 0.0258
58.9000 19.6170 0.0140
58.9200 19.6236 0.0233
58.9400 19.6302 0.0196
58.9600 19.6369 0.0109
58.9800 19.6435 0.0291
59.0000 19.6502 0.0167
59.0200 19.6570 0.0076
59.0400 19.6637 0.0265
59.0600 19.6703 0.0157
59.0800 19.6770 0.0024
59.1000 19.6837 0.0297
59.1200 19.6903 0.0116
59.1400 19.6969 -0.0003
59.1600 19.7036 0.0197
59.1800 19.7103 0.0177
59.2000 19.7170 0.0060
59.2200 19.7237 0.0100
59.2400 19.7303 0.0144
59.2600 19.7370 0.0103
59.2800 19.7437 0.0046
59.3000 19.7502 -0.0037
