Raw Data
Time Displacement Force
(s) (mm) (N)
0.0000 0.0000 0.5376
0.0200 0.0000 0.5472
0.0400 0.0008 0.5821
0.0600 0.0039 0.6703
0.0800 0.0093 0.6764
0.1000 0.0150 0.6919
0.1200 0.0209 0.7537
0.1400 0.0275 0.7934
0.1600 0.0349 0.8192
0.1800 0.0424 0.8812
0.2000 0.0496 0.9244
0.2200 0.0564 0.9550
0.2400 0.0631 1.0146
0.2600 0.0698 1.0573
0.2800 0.0764 1.0829
0.3000 0.0831 1.1495
0.3200 0.0899 1.1908
0.3400 0.0966 1.2230
0.3600 0.1033 1.2826
0.3800 0.1099 1.3046
0.4000 0.1166 1.3052
0.4200 0.1233 1.3163
0.4400 0.1299 1.3101
0.4600 0.1366 1.3050
0.4800 0.1433 1.3167
0.5000 0.1500 1.3139
0.5200 0.1567 1.3113
0.5400 0.1633 1.3195
0.5600 0.1699 1.3169
0.5800 0.1765 1.3186
0.6000 0.1832 1.3219
0.6200 0.1899 1.3178
0.6400 0.1966 1.3269
0.6600 0.2033 1.3264
0.6800 0.2100 1.3273
0.7000 0.2167 1.3282
0.7200 0.2233 1.3297
0.7400 0.2299 1.3313
0.7600 0.2365 1.3414
0.7800 0.2432 1.3333
0.8000 0.2499 1.3356
0.8200 0.2566 1.3427
0.8400 0.2633 1.3404
0.8600 0.2699 1.3427
0.8800 0.2766 1.3416
0.9000 0.2833 1.3387
0.9200 0.2899 1.3570
0.9400 0.2965 1.3447
0.9600 0.3032 1.3412
0.9800 0.3099 1.3636
1.0000 0.3166 1.3499
1.0200 0.3232 1.3409
1.0400 0.3299 1.3682
1.0600 0.3366 1.3536
1.0800 0.3432 1.3466
1.1000 0.3498 1.3669
1.1200 0.3565 1.3549
1.1400 0.3632 1.3587
1.1600 0.3699 1.3673
1.1800 0.3766 1.3534
1.2000 0.3833 1.3583
1.2200 0.3900 1.3688
1.2400 0.3967 1.3537
1.2600 0.4033 1.3624
1.2800 0.4099 1.3654
1.3000 0.4166 1.3524
1.3200 0.4233 1.3589
1.3400 0.4299 1.3642
1.3600 0.4366 1.3500
1.3800 0.4433 1.3610
1.4000 0.4500 1.3587
1.4200 0.4567 1.3527
1.4400 0.4633 1.3562
1.4600 0.4699 1.3549
1.4800 0.4765 1.3548
1.5000 0.4832 1.3545
1.5200 0.4899 1.3473
1.5400 0.4966 1.3523
1.5600 0.5033 1.3514
1.5800 0.5099 1.3480
1.6000 0.5166 1.3510
1.6200 0.5232 1.3498
1.6400 0.5299 1.3450
1.6600 0.5365 1.3474
1.6800 0.5432 1.3481
1.7000 0.5499 1.3407
1.7200 0.5566 1.3446
1.7400 0.5633 1.3427
1.7600 0.5699 1.3389
1.7800 0.5766 1.3454
1.8000 0.5833 1.3392
1.8200 0.5899 1.3368
1.8400 0.5966 1.3417
1.8600 0.6032 1.3336
1.8800 0.6099 1.3326
1.9000 0.6166 1.3381
1.9200 0.6233 1.3315
1.9400 0.6300 1.3344
1.9600 0.6367 1.3348
1.9800 0.6433 1.3286
2.0000 0.6499 1.3330
2.0200 0.6565 1.3342
2.0400 0.6632 1.3288
2.0600 0.6699 1.3289
2.0800 0.6766 1.3294
2.1000 0.6833 1.3282
2.1200 0.6900 1.3317
2.1400 0.6967 1.3238
2.1600 0.7033 1.3362
2.1800 0.7099 1.3286
2.2000 0.7165 1.3250
2.2200 0.7232 1.3357
2.2400 0.7299 1.3276
2.2600 0.7366 1.3249
2.2800 0.7433 1.3347
2.3000 0.7499 1.3251
2.3200 0.7566 1.3267
2.3400 0.7633 1.3311
2.3600 0.7699 1.3266
2.3800 0.7765 1.3283
2.4000 0.7832 1.3331
2.4200 0.7899 1.3206
2.4400 0.7966 1.3308
2.4600 0.8033 1.3286
2.4800 0.8099 1.3196
2.5000 0.8167 1.3330
2.5200 0.8233 1.3231
2.5400 0.8299 1.3180
2.5600 0.8365 1.3347
2.5800 0.8432 1.3197
2.6000 0.8499 1.3199
2.6200 0.8566 1.3317
2.6400 0.8633 1.3190
2.6600 0.8700 1.3205
2.6800 0.8767 1.3331
2.7000 0.8833 1.3106
2.7200 0.8899 1.3204
2.7400 0.8965 1.3319
2.7600 0.9032 1.3085
2.7800 0.9099 1.3226
2.8000 0.9166 1.3246
2.8200 0.9233 1.3095
2.8400 0.9300 1.3242
2.8600 0.9367 1.3230
2.8800 0.9433 1.3068
2.9000 0.9499 1.3252
2.9200 0.9565 1.3161
2.9400 0.9632 1.3083
2.9600 0.9699 1.3242
2.9800 0.9766 1.3149
3.0000 0.9833 1.3083
3.0200 0.9900 1.3218
3.0400 0.9967 1.3066
3.0600 1.0033 1.3132
3.0800 1.0099 1.3175
3.1000 1.0165 1.3039
3.1200 1.0231 1.3206
3.1400 1.0299 1.3113
3.1600 1.0366 1.3031
3.1800 1.0433 1.3135
3.2000 1.0499 1.3053
3.2200 1.0566 1.3088
3.2400 1.0633 1.3084
3.2600 1.0699 1.2979
3.2800 1.0766 1.3089
3.3000 1.0832 1.3108
3.3200 1.0899 1.2935
3.3400 1.0966 1.3068
3.3600 1.1033 1.3102
3.3800 1.1100 1.2898
3.4000 1.1167 1.3126
3.4200 1.1234 1.3037
3.4400 1.1300 1.2929
3.4600 1.1366 1.3108
3.4800 1.1432 1.2972
3.5000 1.1499 1.2937
3.5200 1.1566 1.3071
3.5400 1.1633 1.2912
3.5600 1.1700 1.2955
3.5800 1.1767 1.3066
3.6000 1.1833 1.2852
3.6200 1.1899 1.2935
3.6400 1.1965 1.3070
3.6600 1.2032 1.2845
3.6800 1.2099 1.2972
3.7000 1.2166 1.2978
3.7200 1.2233 1.2818
3.7400 1.2300 1.3004
3.7600 1.2366 1.2960
3.7800 1.2433 1.2836
3.8000 1.2499 1.2975
3.8200 1.2565 1.2950
3.8400 1.2632 1.2898
3.8600 1.2699 1.2937
3.8800 1.2766 1.2919
3.9000 1.2833 1.2833
3.9200 1.2899 1.2919
3.9400 1.2966 1.2919
3.9600 1.3033 1.2902
3.9800 1.3099 1.2947
4.0000 1.3165 1.2898
4.0200 1.3232 1.2914
4.0400 1.3299 1.2921
4.0600 1.3366 1.2892
4.0800 1.3433 1.2924
4.1000 1.3500 1.2899
4.1200 1.3567 1.2898
4.1400 1.3633 1.2918
4.1600 1.3700 1.2883
4.1800 1.3766 1.2921
4.2000 1.3832 1.2931
4.2200 1.3899 1.2887
4.2400 1.3966 1.2903
4.2600 1.4033 1.2931
4.2800 1.4100 1.2871
4.3000 1.4167 1.2982
4.3200 1.4233 1.2933
4.3400 1.4300 1.2827
4.3600 1.4366 1.2991
4.3800 1.4432 1.2944
4.4000 1.4499 1.2857
4.4200 1.4566 1.2976
4.4400 1.4633 1.2921
4.4600 1.4700 1.2881
4.4800 1.4766 1.2940
4.5000 1.4833 1.2949
4.5200 1.4899 1.2849
4.5400 1.4965 1.2962
4.5600 1.5032 1.2867
4.5800 1.5099 1.2875
4.6000 1.5166 1.2965
4.6200 1.5233 1.2810
4.6400 1.5300 1.2857
4.6600 1.5366 1.2960
4.6800 1.5433 1.2822
4.7000 1.5499 1.2840
4.7200 1.5565 1.2959
4.7400 1.5632 1.2828
4.7600 1.5699 1.2864
4.7800 1.5767 1.2933
4.8000 1.5833 1.2771
4.8200 1.5900 1.2785
4.8400 1.5967 1.2909
4.8600 1.6033 1.2774
4.8800 1.6100 1.2772
4.9000 1.6165 1.2890
4.9200 1.6232 1.2778
4.9400 1.6299 1.2763
4.9600 1.6366 1.2876
4.9800 1.6433 1.2761
5.0000 1.6500 1.2736
5.0200 1.6567 1.2832
5.0400 1.6634 1.2740
5.0600 1.6700 1.2759
5.0800 1.6766 1.2794
5.1000 1.6832 1.2722
5.1200 1.6898 1.2729
5.1400 1.6966 1.2760
5.1600 1.7033 1.2712
5.1800 1.7100 1.2670
5.2000 1.7167 1.2748
5.2200 1.7234 1.2690
5.2400 1.7300 1.2651
5.2600 1.7365 1.2681
5.2800 1.7432 1.2714
5.3000 1.7498 1.2654
5.3200 1.7566 1.2688
5.3400 1.7633 1.2708
5.3600 1.7699 1.2661
5.3800 1.7766 1.2686
5.4000 1.7833 1.2656
5.4200 1.7899 1.2583
5.4400 1.7966 1.2678
5.4600 1.8032 1.2692
5.4800 1.8099 1.2562
5.5000 1.8166 1.2659
5.5200 1.8233 1.2662
5.5400 1.8300 1.2540
5.5600 1.8367 1.2627
5.5800 1.8434 1.2615
5.6000 1.8500 1.2537
5.6200 1.8566 1.2659
5.6400 1.8632 1.2564
5.6600 1.8699 1.2581
5.6800 1.8766 1.2589
5.7000 1.8833 1.2585
5.7200 1.8900 1.2542
5.7400 1.8967 1.2594
5.7600 1.9033 1.2594
5.7800 1.9099 1.2498
5.8000 1.9165 1.2601
5.8200 1.9232 1.2605
5.8400 1.9299 1.2472
5.8600 1.9366 1.2575
5.8800 1.9433 1.2560
5.9000 1.9499 1.2493
5.9200 1.9566 1.2518
5.9400 1.9633 1.2532
5.9600 1.9699 1.2508
5.9800 1.9765 1.2606
6.0000 1.9832 1.2466
6.0200 1.9898 1.2449
6.0400 1.9965 1.2603
6.0600 2.0033 1.2439
6.0800 2.0099 1.2456
6.1000 2.0166 1.2534
6.1200 2.0233 1.2424
6.1400 2.0300 1.2488
6.1600 2.0366 1.2474
6.1800 2.0432 1.2413
6.2000 2.0499 1.2502
6.2200 2.0566 1.2441
6.2400 2.0633 1.2407
6.2600 2.0700 1.2480
6.2800 2.0767 1.2453
6.3000 2.0833 1.2381
6.3200 2.0899 1.2480
6.3400 2.0965 1.2408
6.3600 2.1032 1.2436
6.3800 2.1099 1.2460
6.4000 2.1166 1.2354
6.4200 2.1233 1.2369
6.4400 2.1300 1.2494
6.4600 2.1367 1.2384
6.4800 2.1433 1.2360
6.5000 2.1500 1.2413
6.5200 2.1566 1.2376
6.5400 2.1632 1.2340
6.5600 2.1699 1.2428
6.5800 2.1766 1.2343
6.6000 2.1833 1.2328
6.6200 2.1900 1.2417
6.6400 2.1966 1.2316
6.6600 2.2033 1.2270
6.6800 2.2100 1.2404
6.7000 2.2166 1.2295
6.7200 2.2232 1.2285
6.7400 2.2298 1.2392
6.7600 2.2365 1.2285
6.7800 2.2433 1.2286
6.8000 2.2500 1.2367
6.8200 2.2566 1.2262
6.8400 2.2633 1.2270
6.8600 2.2700 1.2410
6.8800 2.2766 1.2263
6.9000 2.2832 1.2286
6.9200 2.2899 1.2367
6.9400 2.2966 1.2233
6.9600 2.3033 1.2265
6.9800 2.3099 1.2359
7.0000 2.3166 1.2239
7.0200 2.3233 1.2256
7.0400 2.3300 1.2338
7.0600 2.3366 1.2196
7.0800 2.3432 1.2285
7.1000 2.3499 1.2348
7.1200 2.3566 1.2169
7.1400 2.3632 1.2272
7.1600 2.3699 1.2290
7.1800 2.3766 1.2173
7.2000 2.3833 1.2259
7.2200 2.3900 1.2308
7.2400 2.3966 1.2138
7.2600 2.4032 1.2277
7.2800 2.4099 1.2270
7.3000 2.4166 1.2152
7.3200 2.4233 1.2284
7.3400 2.4300 1.2232
7.3600 2.4366 1.2172
7.3800 2.4433 1.2271
7.4000 2.4499 1.2208
7.4200 2.4566 1.2172
7.4400 2.4632 1.2269
7.4600 2.4698 1.2223
7.4800 2.4766 1.2211
7.5000 2.4832 1.2225
7.5200 2.4899 1.2167
7.5400 2.4966 1.2223
7.5600 2.5033 1.2239
7.5800 2.5099 1.2130
7.6000 2.5166 1.2213
7.6200 2.5232 1.2208
7.6400 2.5299 1.2117
7.6600 2.5366 1.2178
7.6800 2.5433 1.2194
7.7000 2.5500 1.2165
7.7200 2.5567 1.2183
7.7400 2.5634 1.2114
7.7600 2.5700 1.2175
7.7800 2.5766 1.2191
7.8000 2.5832 1.2116
7.8200 2.5899 1.2155
7.8400 2.5966 1.2196
7.8600 2.6033 1.2091
7.8800 2.6100 1.2154
7.9000 2.6166 1.2145
7.9200 2.6233 1.2087
7.9400 2.6299 1.2132
7.9600 2.6365 1.2144
7.9800 2.6432 1.2084
8.0000 2.6499 1.2175
8.0200 2.6566 1.2082
8.0400 2.6633 1.2041
8.0600 2.6700 1.2174
8.0800 2.6766 1.2071
8.1000 2.6833 1.2081
8.1200 2.6900 1.2132
8.1400 2.6966 1.2032
8.1600 2.7032 1.2086
8.1800 2.7098 1.2157
8.2000 2.7165 1.2067
8.2200 2.7233 1.2017
8.2400 2.7300 1.2091
8.2600 2.7367 1.2033
8.2800 2.7433 1.2025
8.3000 2.7500 1.2068
8.3200 2.7566 1.2011
8.3400 2.7632 1.2074
8.3600 2.7699 1.2061
8.3800 2.7766 1.2008
8.4000 2.7833 1.2058
8.4200 2.7900 1.2011
8.4400 2.7966 1.1991
8.4600 2.8033 1.2053
8.4800 2.8100 1.1956
8.5000 2.8166 1.1985
8.5200 2.8232 1.2028
8.5400 2.8299 1.1953
8.5600 2.8366 1.2005
8.5800 2.8433 1.2010
8.6000 2.8500 1.1904
8.6200 2.8567 1.2002
8.6400 2.8633 1.1927
8.6600 2.8700 1.1930
8.6800 2.8766 1.2002
8.7000 2.8832 1.1893
8.7200 2.8899 1.1951
8.7400 2.8965 1.2020
8.7600 2.9032 1.1853
8.7800 2.9099 1.1947
8.8000 2.9166 1.1999
8.8200 2.9233 1.1866
8.8400 2.9300 1.1940
8.8600 2.9366 1.1986
8.8800 2.9432 1.1810
8.9000 2.9498 1.2022
8.9200 2.9565 1.1913
8.9400 2.9632 1.1770
8.9600 2.9699 1.2043
8.9800 2.9766 1.1870
9.0000 2.9833 1.1813
9.0200 2.9899 1.1976
9.0400 2.9966 1.1843
9.0600 3.0032 1.1844
9.0800 3.0099 1.1991
9.1000 3.0166 1.1793
9.1200 3.0233 1.1842
9.1400 3.0300 1.1938
9.1600 3.0366 1.1755
9.1800 3.0433 1.1871
9.2000 3.0500 1.1926
9.2200 3.0567 1.1716
9.2400 3.0632 1.1913
9.2600 3.0699 1.1880
9.2800 3.0766 1.1766
9.3000 3.0833 1.1886
9.3200 3.0900 1.1842
9.3400 3.0967 1.1780
9.3600 3.1034 1.1932
9.3800 3.1100 1.1793
9.4000 3.1166 1.1802
9.4200 3.1232 1.1889
9.4400 3.1298 1.1798
9.4600 3.1366 1.1826
9.4800 3.1433 1.1874
9.5000 3.1500 1.1714
9.5200 3.1566 1.1844
9.5400 3.1633 1.1849
9.5600 3.1700 1.1727
9.5800 3.1766 1.1839
9.6000 3.1832 1.1770
9.6200 3.1899 1.1721
9.6400 3.1965 1.1898
9.6600 3.2032 1.1725
9.6800 3.2099 1.1732
9.7000 3.2166 1.1868
9.7200 3.2232 1.1684
9.7400 3.2299 1.1741
9.7600 3.2366 1.1860
9.7800 3.2432 1.1694
9.8000 3.2499 1.1766
9.8200 3.2566 1.1798
9.8400 3.2633 1.1637
9.8600 3.2700 1.1768
9.8800 3.2767 1.1757
9.9000 3.2834 1.1613
9.9200 3.2900 1.1819
9.9400 3.2966 1.1726
9.9600 3.3032 1.1569
9.9800 3.3099 1.1807
10.0000 3.3166 1.1711
10.0200 3.3233 1.1628
10.0400 3.3300 1.1755
10.0600 3.3367 1.1627
10.0800 3.3433 1.1655
10.1000 3.3500 1.1769
10.1200 3.3566 1.1622
10.1400 3.3632 1.1694
10.1600 3.3699 1.1727
10.1800 3.3765 1.1585
10.2000 3.3832 1.1643
10.2200 3.3899 1.1717
10.2400 3.3966 1.1597
10.2600 3.4033 1.1644
10.2800 3.4100 1.1639
10.3000 3.4166 1.1573
10.3200 3.4232 1.1660
10.3400 3.4298 1.1637
10.3600 3.4365 1.1557
10.3800 3.4432 1.1675
10.4000 3.4499 1.1657
10.4200 3.4566 1.1519
10.4400 3.4633 1.1665
10.4600 3.4700 1.1648
10.4800 3.4766 1.1557
10.5000 3.4832 1.1596
10.5200 3.4899 1.1600
10.5400 3.4966 1.1613
10.5600 3.5033 1.1595
10.5800 3.5100 1.1537
10.6000 3.5167 1.1556
10.6200 3.5233 1.1605
10.6400 3.5300 1.1499
10.6600 3.5367 1.1466
10.6800 3.5433 1.1626
10.7000 3.5499 1.1516
10.7200 3.5565 1.1525
10.7400 3.5632 1.1535
10.7600 3.5699 1.1514
10.7800 3.5766 1.1565
10.8000 3.5833 1.1501
10.8200 3.5900 1.1494
10.8400 3.5967 1.1543
10.8600 3.6033 1.1490
10.8800 3.6099 1.1461
10.9000 3.6165 1.1519
10.9200 3.6232 1.1486
10.9400 3.6300 1.1479
10.9600 3.6366 1.1488
10.9800 3.6433 1.1444
11.0000 3.6500 1.1494
11.0200 3.6566 1.1441
11.0400 3.6632 1.1435
11.0600 3.6698 1.1492
11.0800 3.6765 1.1428
11.1000 3.6832 1.1426
11.1200 3.6899 1.1478
11.1400 3.6966 1.1389
11.1600 3.7032 1.1449
11.1800 3.7099 1.1449
11.2000 3.7165 1.1386
11.2200 3.7232 1.1434
11.2400 3.7298 1.1465
11.2600 3.7365 1.1393
11.2800 3.7433 1.1392
11.3000 3.7500 1.1452
11.3200 3.7567 1.1382
11.3400 3.7634 1.1436
11.3600 3.7701 1.1442
11.3800 3.7767 1.1370
11.4000 3.7833 1.1392
11.4200 3.7899 1.1427
11.4400 3.7965 1.1323
11.4600 3.8033 1.1412
11.4800 3.8100 1.1440
11.5000 3.8167 1.1295
11.5200 3.8233 1.1356
11.5400 3.8300 1.1411
11.5600 3.8367 1.1292
11.5800 3.8433 1.1429
11.6000 3.8499 1.1370
11.6200 3.8565 1.1316
11.6400 3.8632 1.1428
11.6600 3.8699 1.1367
11.6800 3.8766 1.1274
11.7000 3.8833 1.1427
11.7200 3.8900 1.1318
11.7400 3.8966 1.1253
11.7600 3.9032 1.1403
11.7800 3.9098 1.1345
11.8000 3.9165 1.1290
11.8200 3.9232 1.1368
11.8400 3.9299 1.1289
11.8600 3.9366 1.1271
11.8800 3.9433 1.1342
11.9000 3.9500 1.1278
11.9200 3.9566 1.1255
11.9400 3.9632 1.1334
11.9600 3.9698 1.1292
11.9800 3.9765 1.1227
12.0000 3.9832 1.1368
12.0200 3.9899 1.1260
12.0400 3.9966 1.1188
12.0600 4.0033 1.1360
12.0800 4.0100 1.1255
12.1000 4.0167 1.1173
12.1200 4.0233 1.1386
12.1400 4.0299 1.1186
12.1600 4.0366 1.1167
12.1800 4.0433 1.1361
12.2000 4.0500 1.1168
12.2200 4.0566 1.1187
12.2400 4.0633 1.1335
12.2600 4.0700 1.1104
12.2800 4.0767 1.1177
12.3000 4.0833 1.1307
12.3200 4.0899 1.1133
12.3400 4.0965 1.1234
12.3600 4.1032 1.1276
12.3800 4.1099 1.1067
12.4000 4.1166 1.1206
12.4200 4.1233 1.1253
12.4400 4.1300 1.1134
12.4600 4.1366 1.1168
12.4800 4.1432 1.1222
12.5000 4.1498 1.1112
12.5200 4.1565 1.1193
12.5400 4.1632 1.1242
12.5600 4.1699 1.1118
12.5800 4.1766 1.1148
12.6000 4.1833 1.1172
12.6200 4.1900 1.1135
12.6400 4.1967 1.1158
12.6600 4.2033 1.1150
12.6800 4.2099 1.1116
12.7000 4.2165 1.1144
12.7200 4.2232 1.1136
12.7400 4.2299 1.1125
12.7600 4.2366 1.1111
12.7800 4.2433 1.1117
12.8000 4.2500 1.1110
12.8200 4.2567 1.1085
12.8400 4.2633 1.1097
12.8600 4.2699 1.1130
12.8800 4.2765 1.1069
12.9000 4.2833 1.1088
12.9200 4.2900 1.1104
12.9400 4.2967 1.1068
12.9600 4.3034 1.1098
12.9800 4.3100 1.1105
13.0000 4.3167 1.0993
13.0200 4.3233 1.1102
13.0400 4.3299 1.1085
13.0600 4.3365 1.1035
13.0800 4.3433 1.1134
13.1000 4.3500 1.1015
13.1200 4.3567 1.1000
13.1400 4.3633 1.1169
13.1600 4.3700 1.1005
13.1800 4.3766 1.0970
13.2000 4.3833 1.1111
13.2200 4.3899 1.1014
13.2400 4.3965 1.1026
13.2600 4.4032 1.1075
13.2800 4.4099 1.0950
13.3000 4.4166 1.1012
13.3200 4.4233 1.1115
13.3400 4.4300 1.0938
13.3600 4.4367 1.1034
13.3800 4.4433 1.1069
13.4000 4.4499 1.0921
13.4200 4.4565 1.1029
13.4400 4.4632 1.1090
13.4600 4.4700 1.0921
13.4800 4.4767 1.1034
13.5000 4.4834 1.1023
13.5200 4.4900 1.0929
13.5400 4.4967 1.1045
13.5600 4.5033 1.1031
13.5800 4.5098 1.0893
13.6000 4.5165 1.1060
13.6200 4.5232 1.1004
13.6400 4.5299 1.0928
13.6600 4.5366 1.1063
13.6800 4.5433 1.0964
13.7000 4.5500 1.0945
13.7200 4.5567 1.1033
13.7400 4.5633 1.0864
13.7600 4.5699 1.0923
13.7800 4.5765 1.1061
13.8000 4.5832 1.0911
13.8200 4.5899 1.0923
13.8400 4.5966 1.1028
13.8600 4.6033 1.0880
13.8800 4.6100 1.0973
13.9000 4.6167 1.0933
13.9200 4.6233 1.0894
13.9400 4.6299 1.0984
13.9600 4.6365 1.0893
13.9800 4.6432 1.0905
14.0000 4.6499 1.1001
14.0200 4.6566 1.0859
14.0400 4.6633 1.0880
14.0600 4.6700 1.0973
14.0800 4.6766 1.0870
14.1000 4.6833 1.0905
14.1200 4.6899 1.0969
14.1400 4.6965 1.0842
14.1600 4.7032 1.0923
14.1800 4.7099 1.0914
14.2000 4.7166 1.0807
14.2200 4.7233 1.0940
14.2400 4.7300 1.0859
14.2600 4.7367 1.0808
14.2800 4.7433 1.0904
14.3000 4.7499 1.0839
14.3200 4.7565 1.0815
14.3400 4.7632 1.0927
14.3600 4.7699 1.0799
14.3800 4.7766 1.0839
14.4000 4.7832 1.0908
14.4200 4.7899 1.0797
14.4400 4.7966 1.0850
14.4600 4.8033 1.0839
14.4800 4.8099 1.0773
14.5000 4.8166 1.0937
14.5200 4.8232 1.0834
14.5400 4.8299 1.0771
14.5600 4.8366 1.0880
14.5800 4.8433 1.0798
14.6000 4.8500 1.0781
14.6200 4.8566 1.0877
14.6400 4.8633 1.0767
14.6600 4.8699 1.0781
14.6800 4.8765 1.0843
14.7000 4.8832 1.0749
14.7200 4.8899 1.0791
14.7400 4.8966 1.0849
14.7600 4.9032 1.0729
14.7800 4.9099 1.0809
14.8000 4.9166 1.0820
14.8200 4.9233 1.0692
14.8400 4.9299 1.0827
14.8600 4.9366 1.0752
14.8800 4.9432 1.0711
14.9000 4.9499 1.0845
14.9200 4.9566 1.0742
14.9400 4.9633 1.0701
14.9600 4.9700 1.0837
14.9800 4.9767 1.0662
15.0000 4.9833 1.0678
15.0200 4.9899 1.0831
15.0400 4.9965 1.0703
15.0600 5.0032 1.0683
15.0800 5.0099 1.0764
15.1000 5.0167 1.0675
15.1200 5.0233 1.0765
15.1400 5.0300 1.0696
15.1600 5.0366 1.0651
15.1800 5.0433 1.0758
15.2000 5.0499 1.0677
15.2200 5.0565 1.0626
15.2400 5.0632 1.0740
15.2600 5.0699 1.0695
15.2800 5.0766 1.0690
15.3000 5.0833 1.0705
15.3200 5.0900 1.0650
15.3400 5.0967 1.0628
15.3600 5.1033 1.0717
15.3800 5.1099 1.0635
15.4000 5.1165 1.0650
15.4200 5.1232 1.0708
15.4400 5.1299 1.0609
15.4600 5.1366 1.0646
15.4800 5.1433 1.0643
15.5000 5.1499 1.0627
15.5200 5.1566 1.0653
15.5400 5.1633 1.0601
15.5600 5.1699 1.0600
15.5800 5.1765 1.0673
15.6000 5.1832 1.0603
15.6200 5.1899 1.0552
15.6400 5.1966 1.0630
15.6600 5.2033 1.0616
15.6800 5.2100 1.0536
15.7000 5.2167 1.0607
15.7200 5.2234 1.0545
15.7400 5.2300 1.0584
15.7600 5.2366 1.0585
15.7800 5.2433 1.0596
15.8000 5.2500 1.0513
15.8200 5.2567 1.0588
15.8400 5.2633 1.0611
15.8600 5.2700 1.0484
15.8800 5.2767 1.0584
15.9000 5.2833 1.0576
15.9200 5.2899 1.0468
15.9400 5.2965 1.0612
15.9600 5.3032 1.0539
15.9800 5.3099 1.0495
16.0000 5.3166 1.0603
16.0200 5.3232 1.0510
16.0400 5.3299 1.0482
16.0600 5.3366 1.0560
16.0800 5.3433 1.0500
16.1000 5.3499 1.0466
16.1200 5.3565 1.0593
16.1400 5.3632 1.0479
16.1600 5.3699 1.0460
16.1800 5.3766 1.0592
16.2000 5.3833 1.0434
16.2200 5.3899 1.0473
16.2400 5.3966 1.0550
16.2600 5.4033 1.0411
16.2800 5.4099 1.0450
16.3000 5.4166 1.0567
16.3200 5.4232 1.0433
16.3400 5.4299 1.0389
16.3600 5.4366 1.0527
16.3800 5.4433 1.0409
16.4000 5.4500 1.0448
16.4200 5.4567 1.0470
16.4400 5.4634 1.0443
16.4600 5.4699 1.0420
16.4800 5.4765 1.0459
16.5000 5.4832 1.0414
16.5200 5.4899 1.0477
16.5400 5.4966 1.0460
16.5600 5.5033 1.0379
16.5800 5.5100 1.0435
16.6000 5.5167 1.0479
16.6200 5.5233 1.0332
16.6400 5.5299 1.0426
16.6600 5.5365 1.0451
16.6800 5.5432 1.0417
16.7000 5.5499 1.0420
16.7200 5.5566 1.0384
16.7400 5.5633 1.0403
16.7600 5.5699 1.0446
16.7800 5.5766 1.0373
16.8000 5.5833 1.0403
16.8200 5.5899 1.0390
16.8400 5.5964 1.0367
16.8600 5.6031 1.0433
16.8800 5.6098 1.0383
16.9000 5.6166 1.0335
16.9200 5.6233 1.0410
16.9400 5.6300 1.0338
16.9600 5.6367 1.0362
16.9800 5.6434 1.0410
17.0000 5.6500 1.0314
17.0200 5.6565 1.0359
17.0400 5.6632 1.0407
17.0600 5.6699 1.0294
17.0800 5.6767 1.0327
17.1000 5.6834 1.0397
17.1200 5.6900 1.0262
17.1400 5.6967 1.0383
17.1600 5.7033 1.0331
17.1800 5.7099 1.0264
17.2000 5.7166 1.0370
17.2200 5.7232 1.0358
17.2400 5.7299 1.0285
17.2600 5.7366 1.0408
17.2800 5.7433 1.0253
17.3000 5.7500 1.0285
17.3200 5.7567 1.0365
17.3400 5.7633 1.0260
17.3600 5.7700 1.0306
17.3800 5.7766 1.0364
17.4000 5.7832 1.0197
17.4200 5.7899 1.0297
17.4400 5.7966 1.0287
17.4600 5.8033 1.0205
17.4800 5.8100 1.0312
17.5000 5.8167 1.0295
17.5200 5.8233 1.0163
17.5400 5.8299 1.0284
17.5600 5.8365 1.0319
17.5800 5.8431 1.0178
17.6000 5.8498 1.0320
17.6200 5.8566 1.0233
17.6400 5.8632 1.0144
17.6600 5.8699 1.0325
17.6800 5.8766 1.0234
17.7000 5.8833 1.0170
17.7200 5.8899 1.0310
17.7400 5.8966 1.0190
17.7600 5.9032 1.0163
17.7800 5.9099 1.0305
17.8000 5.9166 1.0229
17.8200 5.9233 1.0118
17.8400 5.9300 1.0247
17.8600 5.9367 1.0163
17.8800 5.9434 1.0187
17.9000 5.9500 1.0235
17.9200 5.9566 1.0128
17.9400 5.9632 1.0202
17.9600 5.9699 1.0224
17.9800 5.9766 1.0109
18.0000 5.9833 1.0230
18.0200 5.9900 1.0165
18.0400 5.9967 1.0126
18.0600 6.0033 1.0191
18.0800 6.0099 1.0155
18.1000 6.0165 1.0147
18.1200 6.0232 1.0187
18.1400 6.0299 1.0138
18.1600 6.0366 1.0179
18.1800 6.0433 1.0112
18.2000 6.0500 1.0090
18.2200 6.0566 1.0159
18.2400 6.0633 1.0080
18.2600 6.0700 1.0091
18.2800 6.0766 1.0133
18.3000 6.0832 1.0108
18.3200 6.0899 1.0050
18.3400 6.0966 1.0105
18.3600 6.1032 1.0058
18.3800 6.1099 1.0083
18.4000 6.1166 1.0158
18.4200 6.1233 1.0052
18.4400 6.1299 1.0059
18.4600 6.1365 1.0097
18.4800 6.1432 1.0013
18.5000 6.1499 1.0105
18.5200 6.1566 1.0036
18.5400 6.1633 0.9967
18.5600 6.1700 1.0098
18.5800 6.1767 1.0064
18.6000 6.1833 0.9939
18.6200 6.1899 1.0112
18.6400 6.1965 1.0005
18.6600 6.2032 0.9994
18.6800 6.2099 1.0094
18.7000 6.2166 0.9995
18.7200 6.2233 0.9972
18.7400 6.2300 1.0030
18.7600 6.2367 1.0004
18.7800 6.2433 0.9978
18.8000 6.2500 1.0006
18.8200 6.2566 0.9965
18.8400 6.2632 1.0014
18.8600 6.2699 0.9997
18.8800 6.2766 0.9926
18.9000 6.2833 1.0001
18.9200 6.2899 0.9958
18.9400 6.2966 0.9928
18.9600 6.3033 0.9962
18.9800 6.3099 0.9962
19.0000 6.3165 0.9940
19.0200 6.3232 0.9961
19.0400 6.3298 0.9938
19.0600 6.3365 0.9902
19.0800 6.3433 0.9965
19.1000 6.3499 0.9892
19.1200 6.3566 0.9954
19.1400 6.3633 0.9908
19.1600 6.3699 0.9909
19.1800 6.3765 0.9924
19.2000 6.3832 0.9878
19.2200 6.3899 0.9904
19.2400 6.3966 0.9896
19.2600 6.4033 0.9851
19.2800 6.4100 0.9912
19.3000 6.4167 0.9870
19.3200 6.4234 0.9846
19.3400 6.4300 0.9868
19.3600 6.4366 0.9886
19.3800 6.4432 0.9811
19.4000 6.4499 0.9950
19.4200 6.4566 0.9844
19.4400 6.4633 0.9809
19.4600 6.4700 0.9921
19.4800 6.4767 0.9841
19.5000 6.4833 0.9805
19.5200 6.4900 0.9865
19.5400 6.4966 0.9826
19.5600 6.5032 0.9859
19.5800 6.5098 0.9919
19.6000 6.5166 0.9806
19.6200 6.5233 0.9807
19.6400 6.5300 0.9891
19.6600 6.5367 0.9756
19.6800 6.5433 0.9759
19.7000 6.5500 0.9871
19.7200 6.5565 0.9786
19.7400 6.5631 0.9755
19.7600 6.5698 0.9831
19.7800 6.5765 0.9823
19.8000 6.5833 0.9701
19.8200 6.5899 0.9811
19.8400 6.5966 0.9783
19.8600 6.6033 0.9682
19.8800 6.6099 0.9806
19.9000 6.6165 0.9789
19.9200 6.6232 0.9745
19.9400 6.6299 0.9876
19.9600 6.6366 0.9732
19.9800 6.6433 0.9702
20.0000 6.6500 0.9815
20.0200 6.6567 0.9788
20.0400 6.6634 0.9705
20.0600 6.6700 0.9775
20.0800 6.6766 0.9720
20.1000 6.6832 0.9754
20.1200 6.6899 0.9732
20.1400 6.6966 0.9713
20.1600 6.7033 0.9713
20.1800 6.7100 0.9751
20.2000 6.7167 0.9685
20.2200 6.7233 0.9645
20.2400 6.7300 0.9785
20.2600 6.7366 0.9716
20.2800 6.7432 0.9653
20.3000 6.7499 0.9739
20.3200 6.7566 0.9734
20.3400 6.7633 0.9671
20.3600 6.7699 0.9730
20.3800 6.7766 0.9694
20.4000 6.7833 0.9651
20.4200 6.7899 0.9737
20.4400 6.7966 0.9669
20.4600 6.8032 0.9616
20.4800 6.8098 0.9730
20.5000 6.8166 0.9705
20.5200 6.8233 0.9615
20.5400 6.8300 0.9655
20.5600 6.8366 0.9653
20.5800 6.8433 0.9607
20.6000 6.8500 0.9641
20.6200 6.8566 0.9629
20.6400 6.8632 0.9632
20.6600 6.8699 0.9617
20.6800 6.8766 0.9571
20.7000 6.8833 0.9610
20.7200 6.8900 0.9637
20.7400 6.8967 0.9581
20.7600 6.9034 0.9631
20.7800 6.9100 0.9583
20.8000 6.9166 0.9591
20.8200 6.9232 0.9592
20.8400 6.9299 0.9617
20.8600 6.9366 0.9563
20.8800 6.9433 0.9588
20.9000 6.9500 0.9610
20.9200 6.9567 0.9533
20.9400 6.9633 0.9598
20.9600 6.9700 0.9573
20.9800 6.9766 0.9530
21.0000 6.9832 0.9611
21.0200 6.9899 0.9548
21.0400 6.9966 0.9531
21.0600 7.0033 0.9536
21.0800 7.0099 0.9581
21.1000 7.0166 0.9568
21.1200 7.0233 0.9499
21.1400 7.0300 0.9501
21.1600 7.0366 0.9532
21.1800 7.0432 0.9494
21.2000 7.0498 0.9511
21.2200 7.0565 0.9592
21.2400 7.0632 0.9458
21.2600 7.0699 0.9454
21.2800 7.0766 0.9540
21.3000 7.0833 0.9506
21.3200 7.0899 0.9524
21.3400 7.0966 0.9522
21.3600 7.1032 0.9438
21.3800 7.1098 0.9534
21.4000 7.1165 0.9488
21.4200 7.1233 0.9443
21.4400 7.1300 0.9543
21.4600 7.1366 0.9432
21.4800 7.1433 0.9411
21.5000 7.1500 0.9517
21.5200 7.1566 0.9424
21.5400 7.1632 0.9462
21.5600 7.1699 0.9486
21.5800 7.1766 0.9426
21.6000 7.1833 0.9497
21.6200 7.1900 0.9416
21.6400 7.1967 0.9362
21.6600 7.2034 0.9518
21.6800 7.2100 0.9406
21.7000 7.2166 0.9340
21.7200 7.2232 0.9483
21.7400 7.2298 0.9385
21.7600 7.2366 0.9370
21.7800 7.2433 0.9448
21.8000 7.2500 0.9344
21.8200 7.2566 0.9419
21.8400 7.2633 0.9405
21.8600 7.2700 0.9284
21.8800 7.2766 0.9409
21.9000 7.2832 0.9400
21.9200 7.2898 0.9373
21.9400 7.2965 0.9400
21.9600 7.3032 0.9372
21.9800 7.3099 0.9355
22.0000 7.3166 0.9399
22.0200 7.3233 0.9351
22.0400 7.3299 0.9341
22.0600 7.3366 0.9339
22.0800 7.3432 0.9382
22.1000 7.3499 0.9348
22.1200 7.3565 0.9284
22.1400 7.3633 0.9376
22.1600 7.3700 0.9373
22.1800 7.3767 0.9213
22.2000 7.3834 0.9368
22.2200 7.3900 0.9371
22.2400 7.3966 0.9219
22.2600 7.4032 0.9319
22.2800 7.4099 0.9364
22.3000 7.4166 0.9266
22.3200 7.4233 0.9340
22.3400 7.4300 0.9291
22.3600 7.4367 0.9217
22.3800 7.4433 0.9430
22.4000 7.4500 0.9229
22.4200 7.4566 0.9189
22.4400 7.4632 0.9412
22.4600 7.4698 0.9224
22.4800 7.4765 0.9252
22.5000 7.4832 0.9347
22.5200 7.4899 0.9208
22.5400 7.4966 0.9272
22.5600 7.5033 0.9360
22.5800 7.5100 0.9161
22.6000 7.5166 0.9278
22.6200 7.5232 0.9314
22.6400 7.5298 0.9182
22.6600 7.5365 0.9299
22.6800 7.5432 0.9270
22.7000 7.5500 0.9178
22.7200 7.5566 0.9251
22.7400 7.5633 0.9248
22.7600 7.5700 0.9151
22.7800 7.5766 0.9275
22.8000 7.5832 0.9173
22.8200 7.5899 0.9162
22.8400 7.5966 0.9277
22.8600 7.6033 0.9178
22.8800 7.6100 0.9163
22.9000 7.6166 0.9254
22.9200 7.6233 0.9178
22.9400 7.6300 0.9180
22.9600 7.6367 0.9175
22.9800 7.6433 0.9159
23.0000 7.6499 0.9216
23.0200 7.6566 0.9151
23.0400 7.6633 0.9168
23.0600 7.6700 0.9226
23.0800 7.6767 0.9142
23.1000 7.6833 0.9146
23.1200 7.6900 0.9168
23.1400 7.6967 0.9123
23.1600 7.7032 0.9147
23.1800 7.7099 0.9152
23.2000 7.7165 0.9094
23.2200 7.7232 0.9224
23.2400 7.7300 0.9137
23.2600 7.7366 0.9065
23.2800 7.7433 0.9196
23.3000 7.7500 0.9091
23.3200 7.7566 0.9074
23.3400 7.7632 0.9182
23.3600 7.7698 0.9073
23.3800 7.7765 0.9079
23.4000 7.7832 0.9198
23.4200 7.7899 0.9020
23.4400 7.7966 0.9108
23.4600 7.8032 0.9162
23.4800 7.8099 0.9029
23.5000 7.8166 0.9088
23.5200 7.8232 0.9152
23.5400 7.8299 0.9050
23.5600 7.8366 0.9102
23.5800 7.8433 0.9090
23.6000 7.8500 0.9050
23.6200 7.8566 0.9092
23.6400 7.8633 0.9061
23.6600 7.8700 0.9040
23.6800 7.8767 0.9051
23.7000 7.8833 0.9038
23.7200 7.8899 0.9085
23.7400 7.8965 0.9084
23.7600 7.9033 0.9048
23.7800 7.9100 0.9026
23.8000 7.9167 0.9044
23.8200 7.9234 0.8998
23.8400 7.9300 0.9039
23.8600 7.9366 0.9003
23.8800 7.9432 0.9000
23.9000 7.9498 0.9072
23.9200 7.9565 0.9027
23.9400 7.9633 0.8992
23.9600 7.9700 0.9037
23.9800 7.9766 0.8973
24.0000 7.9833 0.8981
24.0200 7.9900 0.9061
24.0400 7.9966 0.8932
24.0600 8.0033 0.9019
24.0800 8.0099 0.9014
24.1000 8.0165 0.8898
24.1200 8.0232 0.9006
24.1400 8.0299 0.9037
24.1600 8.0366 0.8924
24.1800 8.0433 0.8981
24.2000 8.0500 0.9001
24.2200 8.0566 0.8903
24.2400 8.0632 0.9001
24.2600 8.0699 0.8980
24.2800 8.0765 0.8919
24.3000 8.0833 0.9002
24.3200 8.0900 0.8901
24.3400 8.0967 0.8908
24.3600 8.1033 0.8987
24.3800 8.1100 0.8911
24.4000 8.1166 0.8872
24.4200 8.1232 0.8987
24.4400 8.1298 0.8900
24.4600 8.1365 0.8938
24.4800 8.1433 0.8962
24.5000 8.1500 0.8802
24.5200 8.1567 0.8930
24.5400 8.1633 0.8908
24.5600 8.1700 0.8841
24.5800 8.1766 0.8959
24.6000 8.1833 0.8881
24.6200 8.1899 0.8865
24.6400 8.1965 0.8875
24.6600 8.2032 0.8860
24.6800 8.2099 0.8880
24.7000 8.2166 0.8872
24.7200 8.2233 0.8841
24.7400 8.2300 0.8882
24.7600 8.2366 0.8863
24.7800 8.2432 0.8809
24.8000 8.2498 0.8882
24.8200 8.2565 0.8855
24.8400 8.2632 0.8804
24.8600 8.2699 0.8837
24.8800 8.2766 0.8818
24.9000 8.2833 0.8849
24.9200 8.2900 0.8849
24.9400 8.2966 0.8731
24.9600 8.3033 0.8837
24.9800 8.3099 0.8844
25.0000 8.3165 0.8770
25.0200 8.3232 0.8783
25.0400 8.3299 0.8816
25.0600 8.3366 0.8758
25.0800 8.3433 0.8772
25.1000 8.3500 0.8783
25.1200 8.3567 0.8761
25.1400 8.3633 0.8793
25.1600 8.3699 0.8833
25.1800 8.3765 0.8699
25.2000 8.3832 0.8764
25.2200 8.3899 0.8827
25.2400 8.3966 0.8700
25.2600 8.4033 0.8742
25.2800 8.4100 0.8818
25.3000 8.4167 0.8659
25.3200 8.4232 0.8766
25.3400 8.4298 0.8816
25.3600 8.4365 0.8664
25.3800 8.4432 0.8717
25.4000 8.4500 0.8694
25.4200 8.4567 0.8636
25.4400 8.4633 0.8746
25.4600 8.4700 0.8796
25.4800 8.4766 0.8570
25.5000 8.4832 0.8671
25.5200 8.4898 0.8758
25.5400 8.4965 0.8636
25.5600 8.5032 0.8744
25.5800 8.5099 0.8690
25.6000 8.5166 0.8550
25.6200 8.5232 0.8735
25.6400 8.5299 0.8658
25.6600 8.5366 0.8585
25.6800 8.5432 0.8759
25.7000 8.5499 0.8599
25.7200 8.5565 0.8517
25.7400 8.5632 0.8786
25.7600 8.5699 0.8538
25.7800 8.5767 0.8542
25.8000 8.5834 0.8708
25.8200 8.5900 0.8521
25.8400 8.5967 0.8589
25.8600 8.6033 0.8667
25.8800 8.6099 0.8422
25.9000 8.6166 0.8674
25.9200 8.6233 0.8668
25.9400 8.6300 0.8412
25.9600 8.6367 0.8617
25.9800 8.6434 0.8626
26.0000 8.6500 0.8459
26.0200 8.6567 0.8624
26.0400 8.6633 0.8516
26.0600 8.6699 0.8486
26.0800 8.6765 0.8618
26.1000 8.6832 0.8433
26.1200 8.6899 0.8517
26.1400 8.6966 0.8623
26.1600 8.7033 0.8410
26.1800 8.7100 0.8488
26.2000 8.7166 0.8588
26.2200 8.7232 0.8418
26.2400 8.7298 0.8506
26.2600 8.7365 0.8542
26.2800 8.7432 0.8404
26.3000 8.7499 0.8504
26.3200 8.7566 0.8521
26.3400 8.7632 0.8396
26.3600 8.7699 0.8532
26.3800 8.7766 0.8440
26.4000 8.7832 0.8397
26.4200 8.7899 0.8528
26.4400 8.7965 0.8490
26.4600 8.8032 0.8400
26.4800 8.8100 0.8476
26.5000 8.8167 0.8425
26.5200 8.8233 0.8421
26.5400 8.8300 0.8484
26.5600 8.8367 0.8417
26.5800 8.8433 0.8365
26.6000 8.8499 0.8469
26.6200 8.8566 0.8453
26.6400 8.8633 0.8421
26.6600 8.8700 0.8426
26.6800 8.8766 0.8414
26.7000 8.8833 0.8356
26.7200 8.8900 0.8395
26.7400 8.8967 0.8412
26.7600 8.9033 0.8346
26.7800 8.9099 0.8416
26.8000 8.9165 0.8427
26.8200 8.9232 0.8346
26.8400 8.9299 0.8389
26.8600 8.9366 0.8417
26.8800 8.9433 0.8345
26.9000 8.9500 0.8375
26.9200 8.9566 0.8365
26.9400 8.9633 0.8351
26.9600 8.9699 0.8331
26.9800 8.9765 0.8435
27.0000 8.9832 0.8309
27.0200 8.9899 0.8337
27.0400 8.9966 0.8405
27.0600 9.0033 0.8326
27.0800 9.0100 0.8303
27.1000 9.0166 0.8395
27.1200 9.0233 0.8320
27.1400 9.0299 0.8275
27.1600 9.0365 0.8424
27.1800 9.0432 0.8281
27.2000 9.0499 0.8262
27.2200 9.0566 0.8440
27.2400 9.0633 0.8240
27.2600 9.0700 0.8280
27.2800 9.0767 0.8396
27.3000 9.0833 0.8226
27.3200 9.0899 0.8347
27.3400 9.0965 0.8398
27.3600 9.1032 0.8203
27.3800 9.1100 0.8354
27.4000 9.1167 0.8318
27.4200 9.1233 0.8218
27.4400 9.1300 0.8341
27.4600 9.1367 0.8301
27.4800 9.1433 0.8203
27.5000 9.1499 0.8341
27.5200 9.1565 0.8281
27.5400 9.1632 0.8214
27.5600 9.1699 0.8330
27.5800 9.1766 0.8213
27.6000 9.1833 0.8268
27.6200 9.1900 0.8292
27.6400 9.1967 0.8244
27.6600 9.2033 0.8287
27.6800 9.2099 0.8244
27.7000 9.2165 0.8248
27.7200 9.2232 0.8295
27.7400 9.2299 0.8201
27.7600 9.2366 0.8264
27.7800 9.2433 0.8262
27.8000 9.2500 0.8143
27.8200 9.2566 0.8282
27.8400 9.2633 0.8220
27.8600 9.2699 0.8153
27.8800 9.2765 0.8279
27.9000 9.2832 0.8192
27.9200 9.2899 0.8163
27.9400 9.2967 0.8269
27.9600 9.3033 0.8205
27.9800 9.3100 0.8106
28.0000 9.3167 0.8295
28.0200 9.3233 0.8140
28.0400 9.3299 0.8082
28.0600 9.3366 0.8322
28.0800 9.3432 0.8153
28.1000 9.3500 0.8045
28.1200 9.3566 0.8284
28.1400 9.3633 0.8133
28.1600 9.3700 0.8091
28.1800 9.3767 0.8268
28.2000 9.3833 0.8036
28.2200 9.3899 0.8149
28.2400 9.3965 0.8251
28.2600 9.4032 0.8068
28.2800 9.4099 0.8146
28.3000 9.4166 0.8210
28.3200 9.4233 0.8049
28.3400 9.4300 0.8150
28.3600 9.4367 0.8177
28.3800 9.4433 0.8040
28.4000 9.4499 0.8160
28.4200 9.4565 0.8150
28.4400 9.4632 0.7996
28.4600 9.4699 0.8155
28.4800 9.4766 0.8141
28.5000 9.4833 0.8018
28.5200 9.4899 0.8103
28.5400 9.4966 0.8163
28.5600 9.5033 0.7999
28.5800 9.5099 0.8101
28.6000 9.5165 0.8127
28.6200 9.5232 0.8090
28.6400 9.5299 0.8085
28.6600 9.5366 0.8053
28.6800 9.5433 0.8044
28.7000 9.5500 0.8109
28.7200 9.5567 0.8047
28.7400 9.5633 0.8031
28.7600 9.5699 0.8072
28.7800 9.5766 0.8047
28.8000 9.5832 0.8042
28.8200 9.5899 0.8058
28.8400 9.5966 0.8049
28.8600 9.6033 0.8047
28.8800 9.6100 0.8035
28.9000 9.6167 0.8045
28.9200 9.6233 0.8064
28.9400 9.6299 0.7991
28.9600 9.6365 0.8102
28.9800 9.6432 0.8053
29.0000 9.6499 0.7992
29.0200 9.6566 0.8105
29.0400 9.6633 0.8004
29.0600 9.6699 0.7935
29.0800 9.6766 0.8110
29.1000 9.6833 0.7981
29.1200 9.6899 0.7942
29.1400 9.6965 0.8121
29.1600 9.7032 0.7995
29.1800 9.7099 0.7968
29.2000 9.7166 0.8057
29.2200 9.7233 0.7950
29.2400 9.7299 0.8021
29.2600 9.7366 0.8035
29.2800 9.7433 0.7876
29.3000 9.7499 0.7976
29.3200 9.7566 0.8037
29.3400 9.7632 0.7898
29.3600 9.7699 0.8027
29.3800 9.7766 0.7958
29.4000 9.7833 0.7889
29.4200 9.7900 0.7989
29.4400 9.7967 0.7943
29.4600 9.8033 0.7905
29.4800 9.8099 0.7991
29.5000 9.8165 0.7892
29.5200 9.8232 0.7883
29.5400 9.8299 0.7965
29.5600 9.8366 0.7947
29.5800 9.8433 0.7911
29.6000 9.8500 0.7929
29.6200 9.8567 0.7880
29.6400 9.8633 0.7929
29.6600 9.8699 0.7933
29.6800 9.8765 0.7855
29.7000 9.8832 0.7931
29.7200 9.8899 0.7858
29.7400 9.8966 0.7848
29.7600 9.9033 0.7907
29.7800 9.9099 0.7856
29.8000 9.9166 0.7833
29.8200 9.9233 0.7894
29.8400 9.9299 0.7791
29.8600 9.9365 0.7861
29.8800 9.9431 0.7878
29.9000 9.9499 0.7837
29.9200 9.9566 0.7808
29.9400 9.9633 0.7859
29.9600 9.9699 0.7835
29.9800 9.9766 0.7815
30.0000 9.9833 0.7815
30.0200 9.9899 0.7832
30.0400 9.9965 0.7850
30.0600 10.0032 0.7854
30.0800 10.0099 0.7785
30.1000 10.0166 0.7779
30.1200 10.0233 0.7775
30.1400 10.0300 0.7774
30.1600 10.0367 0.7780
30.1800 10.0433 0.7772
30.2000 10.0500 0.7763
30.2200 10.0566 0.7740
30.2400 10.0632 0.7752
30.2600 10.0699 0.7755
30.2800 10.0766 0.7746
30.3000 10.0833 0.7760
30.3200 10.0900 0.7729
30.3400 10.0967 0.7691
30.3600 10.1033 0.7764
30.3800 10.1099 0.7733
30.4000 10.1165 0.7690
30.4200 10.1232 0.7746
30.4400 10.1299 0.7744
30.4600 10.1366 0.7674
30.4800 10.1433 0.7800
30.5000 10.1499 0.7719
30.5200 10.1566 0.7667
30.5400 10.1633 0.7727
30.5600 10.1699 0.7718
30.5800 10.1765 0.7654
30.6000 10.1832 0.7750
30.6200 10.1899 0.7654
30.6400 10.1966 0.7639
30.6600 10.2033 0.7740
30.6800 10.2100 0.7626
30.7000 10.2166 0.7634
30.7200 10.2233 0.7730
30.7400 10.2300 0.7618
30.7600 10.2366 0.7712
30.7800 10.2432 0.7681
30.8000 10.2499 0.7583
30.8200 10.2566 0.7664
30.8400 10.2633 0.7653
30.8600 10.2700 0.7591
30.8800 10.2767 0.7697
30.9000 10.2834 0.7608
30.9200 10.2900 0.7577
30.9400 10.2965 0.7694
30.9600 10.3032 0.7624
30.9800 10.3099 0.7622
31.0000 10.3166 0.7655
31.0200 10.3233 0.7574
31.0400 10.3300 0.7599
31.0600 10.3366 0.7664
31.0800 10.3433 0.7556
31.1000 10.3499 0.7638
31.1200 10.3565 0.7581
31.1400 10.3632 0.7547
31.1600 10.3699 0.7686
31.1800 10.3766 0.7570
31.2000 10.3833 0.7554
31.2200 10.3899 0.7668
31.2400 10.3966 0.7475
31.2600 10.4033 0.7552
31.2800 10.4099 0.7646
31.3000 10.4166 0.7470
31.3200 10.4232 0.7542
31.3400 10.4299 0.7627
31.3600 10.4366 0.7398
31.3800 10.4433 0.7626
31.4000 10.4499 0.7610
31.4200 10.4566 0.7411
31.4400 10.4633 0.7560
31.4600 10.4699 0.7552
31.4800 10.4765 0.7409
31.5000 10.4832 0.7584
31.5200 10.4899 0.7543
31.5400 10.4966 0.7412
31.5600 10.5033 0.7534
31.5800 10.5100 0.7496
31.6000 10.5167 0.7447
31.6200 10.5234 0.7583
31.6400 10.5300 0.7499
31.6600 10.5366 0.7389
31.6800 10.5432 0.7513
31.7000 10.5499 0.7475
31.7200 10.5566 0.7424
31.7400 10.5633 0.7502
31.7600 10.5700 0.7467
31.7800 10.5767 0.7389
31.8000 10.5833 0.7466
31.8200 10.5900 0.7433
31.8400 10.5966 0.7402
31.8600 10.6032 0.7457
31.8800 10.6099 0.7448
31.9000 10.6166 0.7402
31.9200 10.6233 0.7379
31.9400 10.6300 0.7430
31.9600 10.6367 0.7374
31.9800 10.6433 0.7389
32.0000 10.6499 0.7425
32.0200 10.6565 0.7340
32.0400 10.6631 0.7416
32.0600 10.6698 0.7399
32.0800 10.6766 0.7346
32.1000 10.6833 0.7367
32.1200 10.6900 0.7430
32.1400 10.6966 0.7296
32.1600 10.7033 0.7349
32.1800 10.7100 0.7405
32.2000 10.7166 0.7244
32.2200 10.7232 0.7331
32.2400 10.7299 0.7425
32.2600 10.7366 0.7247
32.2800 10.7433 0.7309
32.3000 10.7500 0.7356
32.3200 10.7567 0.7229
32.3400 10.7634 0.7353
32.3600 10.7700 0.7337
32.3800 10.7766 0.7244
32.4000 10.7832 0.7336
32.4200 10.7899 0.7311
32.4400 10.7966 0.7252
32.4600 10.8033 0.7340
32.4800 10.8100 0.7298
32.5000 10.8167 0.7202
32.5200 10.8233 0.7283
32.5400 10.8299 0.7291
32.5600 10.8365 0.7210
32.5800 10.8432 0.7300
32.6000 10.8499 0.7315
32.6200 10.8566 0.7212
32.6400 10.8633 0.7231
32.6600 10.8700 0.7270
32.6800 10.8766 0.7231
32.7000 10.8833 0.7221
32.7200 10.8900 0.7208
32.7400 10.8966 0.7227
32.7600 10.9032 0.7187
32.7800 10.9099 0.7250
32.8000 10.9166 0.7201
32.8200 10.9233 0.7131
32.8400 10.9299 0.7269
32.8600 10.9366 0.7198
32.8800 10.9433 0.7141
32.9000 10.9500 0.7240
32.9200 10.9566 0.7157
32.9400 10.9632 0.7180
32.9600 10.9699 0.7249
32.9800 10.9766 0.7165
33.0000 10.9833 0.7161
33.0200 10.9900 0.7205
33.0400 10.9967 0.7110
33.0600 11.0033 0.7152
33.0800 11.0100 0.7243
33.1000 11.0166 0.7110
33.1200 11.0232 0.7185
33.1400 11.0299 0.7189
33.1600 11.0366 0.7085
33.1800 11.0433 0.7219
33.2000 11.0500 0.7186
33.2200 11.0567 0.7070
33.2400 11.0634 0.7185
33.2600 11.0700 0.7105
33.2800 11.0766 0.7087
33.3000 11.0832 0.7183
33.3200 11.0899 0.7094
33.3400 11.0966 0.7063
33.3600 11.1033 0.7145
33.3800 11.1099 0.7059
33.4000 11.1166 0.7097
33.4200 11.1233 0.7106
33.4400 11.1299 0.7019
33.4600 11.1366 0.7126
33.4800 11.1432 0.7063
33.5000 11.1498 0.7001
33.5200 11.1565 0.7128
33.5400 11.1633 0.6994
33.5600 11.1699 0.7026
33.5800 11.1766 0.7112
33.6000 11.1833 0.6982
33.6200 11.1900 0.7005
33.6400 11.1966 0.7124
33.6600 11.2032 0.6972
33.6800 11.2099 0.7030
33.7000 11.2166 0.7050
33.7200 11.2233 0.6920
33.7400 11.2300 0.7071
33.7600 11.2367 0.7076
33.7800 11.2434 0.6878
33.8000 11.2500 0.7035
33.8200 11.2566 0.7011
33.8400 11.2632 0.6901
33.8600 11.2699 0.7033
33.8800 11.2766 0.6968
33.9000 11.2833 0.6905
33.9200 11.2900 0.6970
33.9400 11.2966 0.6993
33.9600 11.3033 0.6905
33.9800 11.3100 0.6995
34.0000 11.3166 0.6989
34.0200 11.3232 0.6899
34.0400 11.3299 0.6966
34.0600 11.3366 0.6966
34.0800 11.3433 0.6909
34.1000 11.3499 0.6968
34.1200 11.3566 0.6955
34.1400 11.3633 0.6909
34.1600 11.3700 0.6918
34.1800 11.3766 0.6947
34.2000 11.3831 0.6895
34.2200 11.3898 0.6892
34.2400 11.3965 0.6918
34.2600 11.4033 0.6893
34.2800 11.4099 0.6851
34.3000 11.4166 0.6965
34.3200 11.4233 0.6846
34.3400 11.4299 0.6822
34.3600 11.4366 0.7009
34.3800 11.4432 0.6864
34.4000 11.4499 0.6797
34.4200 11.4566 0.6945
34.4400 11.4633 0.6837
34.4600 11.4700 0.6843
34.4800 11.4767 0.6924
34.5000 11.4834 0.6792
34.5200 11.4900 0.6841
34.5400 11.4966 0.6946
34.5600 11.5032 0.6823
34.5800 11.5099 0.6812
34.6000 11.5166 0.6964
34.6200 11.5233 0.6785
34.6400 11.5300 0.6812
34.6600 11.5367 0.6895
34.6800 11.5433 0.6777
34.7000 11.5500 0.6851
34.7200 11.5566 0.6860
34.7400 11.5632 0.6802
34.7600 11.5698 0.6848
34.7800 11.5766 0.6844
34.8000 11.5833 0.6783
34.8200 11.5899 0.6773
34.8400 11.5966 0.6843
34.8600 11.6033 0.6823
34.8800 11.6099 0.6787
34.9000 11.6166 0.6779
34.9200 11.6232 0.6846
34.9400 11.6298 0.6775
34.9600 11.6365 0.6777
34.9800 11.6433 0.6797
35.0000 11.6499 0.6767
35.0200 11.6566 0.6779
35.0400 11.6633 0.6800
35.0600 11.6700 0.6677
35.0800 11.6766 0.6788
35.1000 11.6832 0.6794
35.1200 11.6899 0.6704
35.1400 11.6966 0.6719
35.1600 11.7033 0.6786
35.1800 11.7100 0.6677
35.2000 11.7167 0.6730
35.2200 11.7234 0.6711
35.2400 11.7300 0.6660
35.2600 11.7366 0.6709
35.2800 11.7432 0.6718
35.3000 11.7499 0.6670
35.3200 11.7566 0.6725
35.3400 11.7633 0.6686
35.3600 11.7700 0.6620
35.3800 11.7766 0.6698
35.4000 11.7833 0.6674
35.4200 11.7900 0.6578
35.4400 11.7966 0.6661
35.4600 11.8033 0.6682
35.4800 11.8099 0.6604
35.5000 11.8166 0.6658
35.5200 11.8233 0.6671
35.5400 11.8299 0.6613
35.5600 11.8366 0.6635
35.5800 11.8433 0.6673
35.6000 11.8500 0.6598
35.6200 11.8566 0.6621
35.6400 11.8632 0.6692
35.6600 11.8698 0.6588
35.6800 11.8765 0.6570
35.7000 11.8832 0.6668
35.7200 11.8899 0.6585
35.7400 11.8966 0.6597
35.7600 11.9033 0.6645
35.7800 11.9100 0.6574
35.8000 11.9166 0.6532
35.8200 11.9232 0.6679
35.8400 11.9299 0.6555
35.8600 11.9366 0.6517
35.8800 11.9433 0.6646
35.9000 11.9499 0.6554
35.9200 11.9566 0.6529
35.9400 11.9633 0.6630
35.9600 11.9700 0.6542
35.9800 11.9766 0.6553
36.0000 11.9832 0.6611
36.0200 11.9899 0.6540
36.0400 11.9966 0.6600
36.0600 12.0033 0.6581
36.0800 12.0100 0.6499
36.1000 12.0167 0.6593
36.1200 12.0234 0.6561
36.1400 12.0300 0.6472
36.1600 12.0366 0.6611
36.1800 12.0432 0.6567
36.2000 12.0498 0.6509
36.2200 12.0565 0.6602
36.2400 12.0633 0.6508
36.2600 12.0700 0.6460
36.2800 12.0766 0.6590
36.3000 12.0833 0.6553
36.3200 12.0900 0.6452
36.3400 12.0966 0.6536
36.3600 12.1032 0.6523
36.3800 12.1098 0.6473
36.4000 12.1165 0.6561
36.4200 12.1232 0.6519
36.4400 12.1299 0.6456
36.4600 12.1366 0.6524
36.4800 12.1433 0.6507
36.5000 12.1500 0.6475
36.5200 12.1566 0.6493
36.5400 12.1632 0.6447
36.5600 12.1699 0.6451
36.5800 12.1766 0.6498
36.6000 12.1833 0.6537
36.6200 12.1900 0.6437
36.6400 12.1967 0.6464
36.6600 12.2034 0.6490
36.6800 12.2100 0.6376
36.7000 12.2166 0.6483
36.7200 12.2232 0.6530
36.7400 12.2299 0.6420
36.7600 12.2366 0.6438
36.7800 12.2433 0.6444
36.8000 12.2500 0.6390
36.8200 12.2567 0.6419
36.8400 12.2633 0.6441
36.8600 12.2700 0.6385
36.8800 12.2766 0.6381
36.9000 12.2832 0.6422
36.9200 12.2898 0.6376
36.9400 12.2965 0.6421
36.9600 12.3032 0.6417
36.9800 12.3099 0.6344
37.0000 12.3166 0.6356
37.0200 12.3233 0.6415
37.0400 12.3300 0.6335
37.0600 12.3366 0.6390
37.0800 12.3432 0.6369
37.1000 12.3498 0.6349
37.1200 12.3565 0.6370
37.1400 12.3632 0.6313
37.1600 12.3699 0.6303
37.1800 12.3766 0.6345
37.2000 12.3833 0.6285
37.2200 12.3900 0.6311
37.2400 12.3966 0.6303
37.2600 12.4032 0.6318
37.2800 12.4099 0.6287
37.3000 12.4166 0.6306
37.3200 12.4233 0.6320
37.3400 12.4300 0.6286
37.3600 12.4366 0.6270
37.3800 12.4433 0.6349
37.4000 12.4500 0.6255
37.4200 12.4567 0.6223
37.4400 12.4633 0.6365
37.4600 12.4699 0.6256
37.4800 12.4766 0.6209
37.5000 12.4833 0.6285
37.5200 12.4900 0.6230
37.5400 12.4966 0.6236
37.5600 12.5033 0.6292
37.5800 12.5100 0.6205
37.6000 12.5167 0.6220
37.6200 12.5232 0.6254
37.6400 12.5298 0.6225
37.6600 12.5365 0.6279
37.6800 12.5432 0.6218
37.7000 12.5499 0.6183
37.7200 12.5566 0.6280
37.7400 12.5633 0.6186
37.7600 12.5700 0.6192
37.7800 12.5766 0.6253
37.8000 12.5832 0.6145
37.8200 12.5898 0.6191
37.8400 12.5965 0.6269
37.8600 12.6032 0.6104
37.8800 12.6099 0.6195
37.9000 12.6166 0.6208
37.9200 12.6233 0.6096
37.9400 12.6299 0.6190
37.9600 12.6366 0.6175
37.9800 12.6432 0.6087
38.0000 12.6498 0.6192
38.0200 12.6565 0.6152
38.0400 12.6633 0.6111
38.0600 12.6700 0.6203
38.0800 12.6767 0.6079
38.1000 12.6834 0.6090
38.1200 12.6901 0.6212
38.1400 12.6967 0.6037
38.1600 12.7033 0.6128
38.1800 12.7099 0.6167
38.2000 12.7165 0.5983
38.2200 12.7232 0.6155
38.2400 12.7300 0.6195
38.2600 12.7367 0.6000
38.2800 12.7434 0.6162
38.3000 12.7500 0.6081
38.3200 12.7566 0.5977
38.3400 12.7632 0.6184
38.3600 12.7698 0.6060
38.3800 12.7765 0.6026
38.4000 12.7833 0.6096
38.4200 12.7900 0.6019
38.4400 12.7966 0.6026
38.4600 12.8033 0.6122
38.4800 12.8100 0.6014
38.5000 12.8166 0.6022
38.5200 12.8233 0.6033
38.5400 12.8299 0.5998
38.5600 12.8365 0.6039
38.5800 12.8432 0.6017
38.6000 12.8499 0.5946
38.6200 12.8566 0.6074
38.6400 12.8633 0.5946
38.6600 12.8699 0.6023
38.6800 12.8766 0.5993
38.7000 12.8832 0.5861
38.7200 12.8898 0.6019
38.7400 12.8965 0.5988
38.7600 12.9032 0.5921
38.7800 12.9099 0.6024
38.8000 12.9166 0.5958
38.8200 12.9233 0.5905
38.8400 12.9300 0.6046
38.8600 12.9366 0.5902
38.8800 12.9433 0.5923
38.9000 12.9499 0.6039
38.9200 12.9566 0.5884
38.9400 12.9633 0.5915
38.9600 12.9700 0.6009
38.9800 12.9767 0.5848
39.0000 12.9833 0.5913
39.0200 12.9900 0.6024
39.0400 12.9966 0.5847
39.0600 13.0033 0.5867
39.0800 13.0099 0.5989
39.1000 13.0165 0.5847
39.1200 13.0232 0.5907
39.1400 13.0299 0.5929
39.1600 13.0366 0.5793
39.1800 13.0433 0.5874
39.2000 13.0500 0.5910
39.2200 13.0566 0.5813
39.2400 13.0632 0.5872
39.2600 13.0698 0.5903
39.2800 13.0765 0.5830
39.3000 13.0832 0.5864
39.3200 13.0899 0.5871
39.3400 13.0966 0.5806
39.3600 13.1033 0.5890
39.3800 13.1100 0.5830
39.4000 13.1167 0.5793
39.4200 13.1233 0.5820
39.4400 13.1299 0.5865
39.4600 13.1365 0.5781
39.4800 13.1433 0.5811
39.5000 13.1500 0.5782
39.5200 13.1566 0.5790
39.5400 13.1633 0.5837
39.5600 13.1700 0.5789
39.5800 13.1766 0.5769
39.6000 13.1833 0.5748
39.6200 13.1899 0.5784
39.6400 13.1965 0.5758
39.6600 13.2032 0.5797
39.6800 13.2099 0.5749
39.7000 13.2166 0.5704
39.7200 13.2233 0.5670
39.7400 13.2300 0.5757
39.7600 13.2367 0.5749
39.7800 13.2433 0.5669
39.8000 13.2499 0.5723
39.8200 13.2565 0.5756
39.8400 13.2632 0.5632
39.8600 13.2700 0.5756
39.8800 13.2767 0.5741
39.9000 13.2833 0.5612
39.9200 13.2900 0.5743
39.9400 13.2967 0.5694
39.9600 13.3033 0.5575
39.9800 13.3099 0.5763
40.0000 13.3165 0.5678
40.0200 13.3232 0.5582
40.0400 13.3299 0.5680
40.0600 13.3366 0.5673
40.0800 13.3433 0.5561
40.1000 13.3499 0.5696
40.1200 13.3566 0.5586
40.1400 13.3632 0.5591
40.1600 13.3699 0.5667
40.1800 13.3765 0.5565
40.2000 13.3832 0.5607
40.2200 13.3899 0.5636
40.2400 13.3966 0.5549
40.2600 13.4033 0.5596
40.2800 13.4101 0.5612
40.3000 13.4167 0.5554
40.3200 13.4233 0.5598
40.3400 13.4299 0.5595
40.3600 13.4365 0.5565
40.3800 13.4432 0.5582
40.4000 13.4499 0.5610
40.4200 13.4566 0.5519
40.4400 13.4633 0.5540
40.4600 13.4700 0.5590
40.4800 13.4767 0.5507
40.5000 13.4833 0.5546
40.5200 13.4899 0.5622
40.5400 13.4965 0.5511
40.5600 13.5032 0.5554
40.5800 13.5099 0.5530
40.6000 13.5166 0.5454
40.6200 13.5233 0.5552
40.6400 13.5300 0.5614
40.6600 13.5367 0.5439
40.6800 13.5433 0.5470
40.7000 13.5499 0.5592
40.7200 13.5565 0.5480
40.7400 13.5632 0.5491
40.7600 13.5699 0.5555
40.7800 13.5766 0.5412
40.8000 13.5833 0.5515
40.8200 13.5899 0.5511
40.8400 13.5966 0.5391
40.8600 13.6032 0.5492
40.8800 13.6099 0.5543
40.9000 13.6165 0.5376
40.9200 13.6232 0.5516
40.9400 13.6300 0.5461
40.9600 13.6367 0.5369
40.9800 13.6433 0.5503
41.0000 13.6500 0.5446
41.0200 13.6567 0.5391
41.0400 13.6633 0.5482
41.0600 13.6699 0.5387
41.0800 13.6766 0.5426
41.1000 13.6833 0.5492
41.1200 13.6899 0.5316
41.1400 13.6966 0.5391
41.1600 13.7033 0.5418
41.1800 13.7100 0.5382
41.2000 13.7167 0.5413
41.2200 13.7233 0.5331
41.2400 13.7299 0.5363
41.2600 13.7365 0.5497
41.2800 13.7432 0.5324
41.3000 13.7499 0.5409
41.3200 13.7566 0.5423
41.3400 13.7633 0.5303
41.3600 13.7700 0.5399
41.3800 13.7767 0.5448
41.4000 13.7833 0.5280
41.4200 13.7899 0.5405
41.4400 13.7965 0.5351
41.4600 13.8032 0.5286
41.4800 13.8099 0.5443
41.5000 13.8166 0.5289
41.5200 13.8233 0.5286
41.5400 13.8299 0.5394
41.5600 13.8366 0.5259
41.5800 13.8433 0.5357
41.6000 13.8499 0.5324
41.6200 13.8565 0.5303
41.6400 13.8632 0.5355
41.6600 13.8699 0.5341
41.6800 13.8766 0.5243
41.7000 13.8833 0.5375
41.7200 13.8900 0.5306
41.7400 13.8967 0.5239
41.7600 13.9033 0.5366
41.7800 13.9099 0.5230
41.8000 13.9165 0.5294
41.8200 13.9232 0.5315
41.8400 13.9299 0.5195
41.8600 13.9367 0.5291
41.8800 13.9433 0.5313
41.9000 13.9500 0.5173
41.9200 13.9567 0.5252
41.9400 13.9633 0.5228
41.9600 13.9699 0.5180
41.9800 13.9765 0.5259
42.0000 13.9832 0.5211
42.0200 13.9899 0.5215
42.0400 13.9966 0.5260
42.0600 14.0033 0.5121
42.0800 14.0099 0.5215
42.1000 14.0167 0.5223
42.1200 14.0233 0.5145
42.1400 14.0299 0.5159
42.1600 14.0365 0.5219
42.1800 14.0432 0.5124
42.2000 14.0499 0.5161
42.2200 14.0566 0.5171
42.2400 14.0633 0.5145
42.2600 14.0699 0.5136
42.2800 14.0766 0.5128
42.3000 14.0833 0.5101
42.3200 14.0899 0.5147
42.3400 14.0965 0.5129
42.3600 14.1032 0.5125
42.3800 14.1099 0.5097
42.4000 14.1167 0.5087
42.4200 14.1233 0.5120
42.4400 14.1300 0.5091
42.4600 14.1367 0.5048
42.4800 14.1433 0.5094
42.5000 14.1499 0.5086
42.5200 14.1566 0.5017
42.5400 14.1632 0.5072
42.5600 14.1700 0.5029
42.5800 14.1766 0.5021
42.6000 14.1833 0.5102
42.6200 14.1900 0.5005
42.6400 14.1967 0.4984
42.6600 14.2033 0.5075
42.6800 14.2099 0.4949
42.7000 14.2165 0.5010
42.7200 14.2232 0.5102
42.7400 14.2299 0.4947
42.7600 14.2366 0.4993
42.7800 14.2433 0.5095
42.8000 14.2500 0.4871
42.8200 14.2566 0.5017
42.8400 14.2633 0.5059
42.8600 14.2699 0.4844
42.8800 14.2765 0.5033
42.9000 14.2832 0.5012
42.9200 14.2899 0.4821
42.9400 14.2966 0.5002
42.9600 14.3033 0.4998
42.9800 14.3100 0.4826
43.0000 14.3166 0.4967
43.0200 14.3233 0.4982
43.0400 14.3299 0.4827
43.0600 14.3365 0.4972
43.0800 14.3432 0.4946
43.1000 14.3499 0.4819
43.1200 14.3566 0.4901
43.1400 14.3633 0.4958
43.1600 14.3700 0.4840
43.1800 14.3767 0.4894
43.2000 14.3833 0.4956
43.2200 14.3899 0.4799
43.2400 14.3966 0.4888
43.2600 14.4032 0.4948
43.2800 14.4099 0.4805
43.3000 14.4166 0.4891
43.3200 14.4233 0.4920
43.3400 14.4300 0.4762
43.3600 14.4367 0.4847
43.3800 14.4433 0.4891
43.4000 14.4499 0.4794
43.4200 14.4565 0.4826
43.4400 14.4632 0.4911
43.4600 14.4699 0.4769
43.4800 14.4766 0.4772
43.5000 14.4833 0.4864
43.5200 14.4900 0.4805
43.5400 14.4966 0.4777
43.5600 14.5033 0.4835
43.5800 14.5099 0.4742
43.6000 14.5165 0.4750
43.6200 14.5231 0.4890
43.6400 14.5298 0.4804
43.6600 14.5365 0.4670
43.6800 14.5432 0.4878
43.7000 14.5499 0.4751
43.7200 14.5566 0.4673
43.7400 14.5633 0.4852
43.7600 14.5700 0.4735
43.7800 14.5766 0.4691
43.8000 14.5832 0.4859
43.8200 14.5899 0.4711
43.8400 14.5966 0.4639
43.8600 14.6033 0.4847
43.8800 14.6100 0.4681
43.9000 14.6167 0.4666
43.9200 14.6234 0.4790
43.9400 14.6299 0.4676
43.9600 14.6365 0.4670
43.9800 14.6432 0.4820
44.0000 14.6499 0.4659
44.0200 14.6566 0.4677
44.0400 14.6633 0.4761
44.0600 14.6700 0.4652
44.0800 14.6767 0.4680
44.1000 14.6833 0.4740
44.1200 14.6899 0.4609
44.1400 14.6965 0.4652
44.1600 14.7032 0.4680
44.1800 14.7099 0.4677
44.2000 14.7166 0.4670
44.2200 14.7233 0.4644
44.2400 14.7300 0.4640
44.2600 14.7367 0.4676
44.2800 14.7433 0.4616
44.3000 14.7499 0.4609
44.3200 14.7565 0.4666
44.3400 14.7631 0.4647
44.3600 14.7698 0.4565
44.3800 14.7766 0.4644
44.4000 14.7832 0.4599
44.4200 14.7899 0.4609
44.4400 14.7966 0.4575
44.4600 14.8032 0.4530
44.4800 14.8098 0.4665
44.5000 14.8165 0.4584
44.5200 14.8232 0.4545
44.5400 14.8299 0.4609
44.5600 14.8366 0.4510
44.5800 14.8433 0.4568
44.6000 14.8500 0.4611
44.6200 14.8567 0.4439
44.6400 14.8634 0.4559
44.6600 14.8700 0.4597
44.6800 14.8766 0.4453
44.7000 14.8833 0.4550
44.7200 14.8899 0.4588
44.7400 14.8966 0.4411
44.7600 14.9033 0.4530
44.7800 14.9100 0.4590
44.8000 14.9167 0.4429
44.8200 14.9234 0.4496
44.8400 14.9300 0.4502
44.8600 14.9366 0.4443
44.8800 14.9432 0.4544
44.9000 14.9498 0.4460
44.9200 14.9565 0.4396
44.9400 14.9632 0.4479
44.9600 14.9699 0.4506
44.9800 14.9766 0.4374
45.0000 14.9833 0.4442
45.0200 14.9899 0.4497
45.0400 14.9965 0.4360
45.0600 15.0032 0.4437
45.0800 15.0099 0.4491
45.1000 15.0166 0.4362
45.1200 15.0233 0.4426
45.1400 15.0299 0.4440
45.1600 15.0366 0.4372
45.1800 15.0433 0.4396
45.2000 15.0500 0.4409
45.2200 15.0566 0.4283
45.2400 15.0632 0.4425
45.2600 15.0699 0.4410
45.2800 15.0766 0.4227
45.3000 15.0833 0.4413
45.3200 15.0900 0.4444
45.3400 15.0967 0.4230
45.3600 15.1034 0.4334
45.3800 15.1100 0.4475
45.4000 15.1166 0.4209
45.4200 15.1232 0.4325
45.4400 15.1299 0.4443
45.4600 15.1366 0.4213
45.4800 15.1433 0.4327
45.5000 15.1500 0.4435
45.5200 15.1567 0.4167
45.5400 15.1633 0.4330
45.5600 15.1699 0.4359
45.5800 15.1765 0.4210
45.6000 15.1832 0.4352
45.6200 15.1899 0.4329
45.6400 15.1966 0.4219
45.6600 15.2033 0.4301
45.6800 15.2100 0.4315
45.7000 15.2166 0.4190
45.7200 15.2233 0.4312
45.7400 15.2299 0.4307
45.7600 15.2366 0.4168
45.7800 15.2432 0.4263
45.8000 15.2499 0.4296
45.8200 15.2566 0.4205
45.8400 15.2632 0.4189
45.8600 15.2699 0.4239
45.8800 15.2766 0.4206
45.9000 15.2833 0.4183
45.9200 15.2900 0.4206
45.9400 15.2966 0.4159
45.9600 15.3032 0.4217
45.9800 15.3099 0.4204
46.0000 15.3166 0.4173
46.0200 15.3233 0.4191
46.0400 15.3300 0.4160
46.0600 15.3367 0.4180
46.0800 15.3433 0.4178
46.1000 15.3500 0.4148
46.1200 15.3566 0.4108
46.1400 15.3632 0.4196
46.1600 15.3699 0.4181
46.1800 15.3766 0.4055
46.2000 15.3833 0.4187
46.2200 15.3900 0.4128
46.2400 15.3967 0.4134
46.2600 15.4033 0.4127
46.2800 15.4100 0.4068
46.3000 15.4166 0.4118
46.3200 15.4232 0.4139
46.3400 15.4299 0.4044
46.3600 15.4366 0.4102
46.3800 15.4433 0.4134
46.4000 15.4500 0.4052
46.4200 15.4566 0.4065
46.4400 15.4633 0.4084
46.4600 15.4700 0.4002
46.4800 15.4765 0.4092
46.5000 15.4831 0.4051
46.5200 15.4898 0.3993
46.5400 15.4965 0.4046
46.5600 15.5033 0.4014
46.5800 15.5099 0.4002
46.6000 15.5166 0.4034
46.6200 15.5233 0.3998
46.6400 15.5299 0.3972
46.6600 15.5366 0.4013
46.6800 15.5432 0.4026
46.7000 15.5499 0.3983
46.7200 15.5566 0.3999
46.7400 15.5633 0.3981
46.7600 15.5700 0.3934
46.7800 15.5767 0.4028
46.8000 15.5834 0.3900
46.8200 15.5900 0.3907
46.8400 15.5966 0.3999
46.8600 15.6032 0.3924
46.8800 15.6099 0.3932
46.9000 15.6166 0.4010
46.9200 15.6233 0.3827
46.9400 15.6300 0.3896
46.9600 15.6367 0.3980
46.9800 15.6434 0.3837
47.0000 15.6500 0.3864
47.0200 15.6566 0.4006
47.0400 15.6632 0.3784
47.0600 15.6698 0.3909
47.0800 15.6766 0.3924
47.1000 15.6833 0.3731
47.1200 15.6900 0.3878
47.1400 15.6966 0.3898
47.1600 15.7033 0.3718
47.1800 15.7100 0.3880
47.2000 15.7166 0.3903
47.2200 15.7232 0.3734
47.2400 15.7299 0.3892
47.2600 15.7366 0.3860
47.2800 15.7433 0.3698
47.3000 15.7499 0.3858
47.3200 15.7566 0.3812
47.3400 15.7633 0.3721
47.3600 15.7700 0.3825
47.3800 15.7766 0.3801
47.4000 15.7832 0.3698
47.4200 15.7899 0.3806
47.4400 15.7966 0.3766
47.4600 15.8033 0.3664
47.4800 15.8100 0.3793
47.5000 15.8167 0.3745
47.5200 15.8233 0.3664
47.5400 15.8300 0.3723
47.5600 15.8366 0.3718
47.5800 15.8432 0.3697
47.6000 15.8499 0.3725
47.6200 15.8566 0.3712
47.6400 15.8633 0.3667
47.6600 15.8700 0.3680
47.6800 15.8767 0.3741
47.7000 15.8833 0.3655
47.7200 15.8900 0.3639
47.7400 15.8966 0.3684
47.7600 15.9032 0.3673
47.7800 15.9099 0.3630
47.8000 15.9166 0.3677
47.8200 15.9233 0.3622
47.8400 15.9299 0.3611
47.8600 15.9366 0.3664
47.8800 15.9433 0.3631
47.9000 15.9500 0.3550
47.9200 15.9566 0.3677
47.9400 15.9632 0.3569
47.9600 15.9698 0.3581
47.9800 15.9765 0.3673
48.0000 15.9832 0.3571
48.0200 15.9899 0.3534
48.0400 15.9966 0.3653
48.0600 16.0033 0.3517
48.0800 16.0100 0.3539
48.1000 16.0166 0.3618
48.1200 16.0232 0.3487
48.1400 16.0299 0.3537
48.1600 16.0366 0.3635
48.1800 16.0433 0.3494
48.2000 16.0500 0.3519
48.2200 16.0567 0.3603
48.2400 16.0633 0.3463
48.2600 16.0700 0.3562
48.2800 16.0766 0.3530
48.3000 16.0832 0.3493
48.3200 16.0899 0.3534
48.3400 16.0966 0.3528
48.3600 16.1033 0.3484
48.3800 16.1100 0.3517
48.4000 16.1167 0.3480
48.4200 16.1234 0.3480
48.4400 16.1300 0.3511
48.4600 16.1366 0.3411
48.4800 16.1432 0.3494
48.5000 16.1498 0.3508
48.5200 16.1565 0.3390
48.5400 16.1632 0.3491
48.5600 16.1699 0.3419
48.5800 16.1766 0.3403
48.6000 16.1833 0.3500
48.6200 16.1900 0.3341
48.6400 16.1966 0.3363
48.6600 16.2032 0.3548
48.6800 16.2098 0.3347
48.7000 16.2165 0.3396
48.7200 16.2233 0.3494
48.7400 16.2299 0.3339
48.7600 16.2366 0.3405
48.7800 16.2433 0.3463
48.8000 16.2500 0.3275
48.8200 16.2566 0.3409
48.8400 16.2632 0.3452
48.8600 16.2699 0.3272
48.8800 16.2766 0.3424
48.9000 16.2833 0.3403
48.9200 16.2900 0.3235
48.9400 16.2967 0.3413
48.9600 16.3034 0.3377
48.9800 16.3100 0.3197
49.0000 16.3166 0.3457
49.0200 16.3232 0.3313
49.0400 16.3299 0.3158
49.0600 16.3366 0.3435
49.0800 16.3433 0.3328
49.1000 16.3500 0.3157
49.1200 16.3567 0.3415
49.1400 16.3633 0.3248
49.1600 16.3700 0.3195
49.1800 16.3766 0.3361
49.2000 16.3832 0.3186
49.2200 16.3898 0.3260
49.2400 16.3965 0.3383
49.2600 16.4033 0.3115
49.2800 16.4099 0.3239
49.3000 16.4166 0.3397
49.3200 16.4233 0.3104
49.3400 16.4299 0.3240
49.3600 16.4366 0.3282
49.3800 16.4432 0.3120
49.4000 16.4498 0.3270
49.4200 16.4565 0.3190
49.4400 16.4632 0.3168
49.4600 16.4699 0.3240
49.4800 16.4766 0.3136
49.5000 16.4833 0.3175
49.5200 16.4900 0.3234
49.5400 16.4966 0.3079
49.5600 16.5032 0.3115
49.5800 16.5099 0.3229
49.6000 16.5166 0.3063
49.6200 16.5233 0.3126
49.6400 16.5300 0.3142
49.6600 16.5367 0.3083
49.6800 16.5433 0.3155
49.7000 16.5500 0.3119
49.7200 16.5566 0.3073
49.7400 16.5632 0.3153
49.7600 16.5699 0.3038
49.7800 16.5766 0.3086
49.8000 16.5833 0.3146
49.8200 16.5900 0.3032
49.8400 16.5966 0.3049
49.8600 16.6033 0.3116
49.8800 16.6100 0.2977
49.9000 16.6166 0.3060
49.9200 16.6233 0.3096
49.9400 16.6299 0.3017
49.9600 16.6366 0.3031
49.9800 16.6433 0.3051
50.0000 16.6499 0.2968
50.0200 16.6566 0.3029
50.0400 16.6633 0.3017
50.0600 16.6700 0.2946
50.0800 16.6766 0.2973
50.1000 16.6832 0.2955
50.1200 16.6898 0.3002
50.1400 16.6965 0.2954
50.1600 16.7032 0.2911
50.1800 16.7099 0.2991
50.2000 16.7166 0.2929
50.2200 16.7233 0.2898
50.2400 16.7300 0.2953
50.2600 16.7366 0.2904
50.2800 16.7432 0.2913
50.3000 16.7499 0.2952
50.3200 16.7566 0.2883
50.3400 16.7633 0.2888
50.3600 16.7700 0.2934
50.3800 16.7766 0.2850
50.4000 16.7833 0.2906
50.4200 16.7900 0.2860
50.4400 16.7966 0.2826
50.4600 16.8033 0.2886
50.4800 16.8099 0.2845
50.5000 16.8166 0.2772
50.5200 16.8233 0.2854
50.5400 16.8300 0.2810
50.5600 16.8367 0.2789
50.5800 16.8433 0.2889
50.6000 16.8500 0.2796
50.6200 16.8566 0.2728
50.6400 16.8632 0.2815
50.6600 16.8699 0.2802
50.6800 16.8766 0.2774
50.7000 16.8833 0.2778
50.7200 16.8900 0.2773
50.7400 16.8967 0.2732
50.7600 16.9033 0.2764
50.7800 16.9100 0.2709
50.8000 16.9166 0.2732
50.8200 16.9232 0.2805
50.8400 16.9298 0.2685
50.8600 16.9365 0.2682
50.8800 16.9432 0.2777
50.9000 16.9499 0.2685
50.9200 16.9566 0.2630
50.9400 16.9633 0.2777
50.9600 16.9699 0.2681
50.9800 16.9766 0.2621
51.0000 16.9832 0.2732
51.0200 16.9898 0.2644
51.0400 16.9965 0.2633
51.0600 17.0032 0.2747
51.0800 17.0100 0.2605
51.1000 17.0166 0.2615
51.1200 17.0233 0.2704
51.1400 17.0300 0.2607
51.1600 17.0367 0.2629
51.1800 17.0432 0.2683
51.2000 17.0499 0.2587
51.2200 17.0566 0.2626
51.2400 17.0633 0.2603
51.2600 17.0700 0.2581
51.2800 17.0766 0.2586
51.3000 17.0833 0.2639
51.3200 17.0900 0.2559
51.3400 17.0966 0.2524
51.3600 17.1032 0.2608
51.3800 17.1099 0.2580
51.4000 17.1165 0.2545
51.4200 17.1232 0.2565
51.4400 17.1299 0.2532
51.4600 17.1366 0.2544
51.4800 17.1433 0.2535
51.5000 17.1500 0.2522
51.5200 17.1566 0.2495
51.5400 17.1632 0.2516
51.5600 17.1698 0.2504
51.5800 17.1765 0.2488
51.6000 17.1832 0.2502
51.6200 17.1899 0.2422
51.6400 17.1966 0.2454
51.6600 17.2033 0.2511
51.6800 17.2100 0.2478
51.7000 17.2166 0.2396
51.7200 17.2232 0.2434
51.7400 17.2299 0.2468
51.7600 17.2365 0.2424
51.7800 17.2432 0.2426
51.8000 17.2499 0.2388
51.8200 17.2566 0.2394
51.8400 17.2633 0.2433
51.8600 17.2700 0.2372
51.8800 17.2767 0.2352
51.9000 17.2833 0.2382
51.9200 17.2899 0.2373
51.9400 17.2966 0.2279
51.9600 17.3033 0.2364
51.9800 17.3100 0.2361
52.0000 17.3167 0.2295
52.0200 17.3233 0.2297
52.0400 17.3300 0.2344
52.0600 17.3367 0.2255
52.0800 17.3433 0.2282
52.1000 17.3499 0.2339
52.1200 17.3565 0.2227
52.1400 17.3632 0.2235
52.1600 17.3699 0.2315
52.1800 17.3766 0.2205
52.2000 17.3833 0.2278
52.2200 17.3900 0.2299
52.2400 17.3966 0.2137
52.2600 17.4032 0.2212
52.2800 17.4098 0.2299
52.3000 17.4165 0.2156
52.3200 17.4232 0.2169
52.3400 17.4299 0.2257
52.3600 17.4365 0.2108
52.3800 17.4432 0.2187
52.4000 17.4499 0.2234
52.4200 17.4566 0.2085
52.4400 17.4633 0.2194
52.4600 17.4699 0.2231
52.4800 17.4765 0.2060
52.5000 17.4832 0.2172
52.5200 17.4900 0.2181
52.5400 17.4966 0.2085
52.5600 17.5033 0.2154
52.5800 17.5100 0.2176
52.6000 17.5167 0.2029
52.6200 17.5233 0.2130
52.6400 17.5299 0.2129
52.6600 17.5365 0.2083
52.6800 17.5432 0.2144
52.7000 17.5500 0.2039
52.7200 17.5567 0.2060
52.7400 17.5633 0.2128
52.7600 17.5700 0.2025
52.7800 17.5767 0.2053
52.8000 17.5833 0.2105
52.8200 17.5899 0.2038
52.8400 17.5965 0.2010
52.8600 17.6032 0.2062
52.8800 17.6100 0.1979
52.9000 17.6166 0.2029
52.9200 17.6233 0.2030
52.9400 17.6300 0.1996
52.9600 17.6366 0.2039
52.9800 17.6433 0.1986
53.0000 17.6499 0.1970
53.0200 17.6565 0.2034
53.0400 17.6632 0.1920
53.0600 17.6699 0.1932
53.0800 17.6766 0.2013
53.1000 17.6833 0.1933
53.1200 17.6899 0.1901
53.1400 17.6966 0.1918
53.1600 17.7033 0.1940
53.1800 17.7099 0.1934
53.2000 17.7165 0.1924
53.2200 17.7232 0.1873
53.2400 17.7300 0.1899
53.2600 17.7367 0.1889
53.2800 17.7433 0.1841
53.3000 17.7500 0.1893
53.3200 17.7567 0.1866
53.3400 17.7633 0.1818
53.3600 17.7699 0.1882
53.3800 17.7765 0.1841
53.4000 17.7833 0.1857
53.4200 17.7900 0.1785
53.4400 17.7967 0.1811
53.4600 17.8033 0.1828
53.4800 17.8100 0.1809
53.5000 17.8167 0.1763
53.5200 17.8233 0.1840
53.5400 17.8299 0.1744
53.5600 17.8365 0.1717
53.5800 17.8432 0.1802
53.6000 17.8499 0.1742
53.6200 17.8566 0.1741
53.6400 17.8633 0.1752
53.6600 17.8699 0.1708
53.6800 17.8766 0.1738
53.7000 17.8833 0.1708
53.7200 17.8899 0.1684
53.7400 17.8965 0.1730
53.7600 17.9032 0.1687
53.7800 17.9099 0.1669
53.8000 17.9166 0.1695
53.8200 17.9233 0.1640
53.8400 17.9300 0.1653
53.8600 17.9366 0.1709
53.8800 17.9433 0.1571
53.9000 17.9499 0.1611
53.9200 17.9565 0.1630
53.9400 17.9632 0.1556
53.9600 17.9699 0.1609
53.9800 17.9766 0.1644
54.0000 17.9833 0.1488
54.0200 17.9900 0.1597
54.0400 17.9967 0.1603
54.0600 18.0033 0.1510
54.0800 18.0099 0.1557
54.1000 18.0165 0.1611
54.1200 18.0232 0.1514
54.1400 18.0299 0.1529
54.1600 18.0366 0.1549
54.1800 18.0433 0.1482
54.2000 18.0500 0.1575
54.2200 18.0567 0.1454
54.2400 18.0633 0.1434
54.2600 18.0699 0.1530
54.2800 18.0765 0.1460
54.3000 18.0832 0.1461
54.3200 18.0900 0.1468
54.3400 18.0966 0.1432
54.3600 18.1033 0.1398
54.3800 18.1100 0.1463
54.4000 18.1167 0.1448
54.4200 18.1233 0.1384
54.4400 18.1299 0.1439
54.4600 18.1365 0.1438
54.4800 18.1432 0.1346
54.5000 18.1499 0.1357
54.5200 18.1566 0.1396
54.5400 18.1632 0.1310
54.5600 18.1699 0.1354
54.5800 18.1766 0.1384
54.6000 18.1833 0.1292
54.6200 18.1899 0.1340
54.6400 18.1965 0.1380
54.6600 18.2032 0.1274
54.6800 18.2099 0.1321
54.7000 18.2166 0.1315
54.7200 18.2233 0.1253
54.7400 18.2301 0.1281
54.7600 18.2367 0.1309
54.7800 18.2433 0.1174
54.8000 18.2499 0.1309
54.8200 18.2565 0.1249
54.8400 18.2632 0.1243
54.8600 18.2699 0.1242
54.8800 18.2767 0.1242
54.9000 18.2833 0.1213
54.9200 18.2900 0.1172
54.9400 18.2967 0.1203
54.9600 18.3033 0.1182
54.9800 18.3099 0.1166
55.0000 18.3165 0.1196
55.0200 18.3232 0.1163
55.0400 18.3299 0.1131
55.0600 18.3366 0.1161
55.0800 18.3433 0.1194
55.1000 18.3500 0.1096
55.1200 18.3566 0.1113
55.1400 18.3633 0.1159
55.1600 18.3699 0.1063
55.1800 18.3765 0.1158
55.2000 18.3831 0.1128
55.2200 18.3899 0.1042
55.2400 18.3966 0.1093
55.2600 18.4033 0.1108
55.2800 18.4099 0.0994
55.3000 18.4166 0.1076
55.3200 18.4233 0.1076
55.3400 18.4299 0.1005
55.3600 18.4365 0.1075
55.3800 18.4432 0.1075
55.4000 18.4500 0.0931
55.4200 18.4567 0.1066
55.4400 18.4633 0.1029
55.4600 18.4700 0.0952
55.4800 18.4767 0.1008
55.5000 18.4833 0.0949
55.5200 18.4899 0.0895
55.5400 18.4966 0.1009
55.5600 18.5032 0.0938
55.5800 18.5099 0.0875
55.6000 18.5166 0.0983
55.6200 18.5233 0.0895
55.6400 18.5300 0.0863
55.6600 18.5367 0.0988
55.6800 18.5433 0.0790
55.7000 18.5499 0.0865
55.7200 18.5565 0.0950
55.7400 18.5632 0.0796
55.7600 18.5699 0.0802
55.7800 18.5766 0.0874
55.8000 18.5833 0.0768
55.8200 18.5900 0.0781
55.8400 18.5966 0.0843
55.8600 18.6033 0.0739
55.8800 18.6099 0.0753
55.9000 18.6165 0.0815
55.9200 18.6232 0.0712
55.9400 18.6299 0.0747
55.9600 18.6366 0.0765
55.9800 18.6433 0.0666
56.0000 18.6499 0.0711
56.0200 18.6566 0.0725
56.0400 18.6633 0.0663
56.0600 18.6699 0.0677
56.0800 18.6765 0.0709
56.1000 18.6832 0.0662
56.1200 18.6899 0.0662
56.1400 18.6966 0.0656
56.1600 18.7033 0.0615
56.1800 18.7100 0.0622
56.2000 18.7167 0.0658
56.2200 18.7234 0.0601
56.2400 18.7299 0.0604
56.2600 18.7365 0.0651
56.2800 18.7432 0.0627
56.3000 18.7499 0.0521
56.3200 18.7566 0.0622
56.3400 18.7633 0.0545
56.3600 18.7700 0.0516
56.3800 18.7767 0.0568
56.4000 18.7833 0.0521
56.4200 18.7899 0.0538
56.4400 18.7965 0.0569
56.4600 18.8032 0.0511
56.4800 18.8099 0.0496
56.5000 18.8166 0.0543
56.5200 18.8233 0.0455
56.5400 18.8299 0.0404
56.5600 18.8366 0.0541
56.5800 18.8433 0.0422
56.6000 18.8499 0.0368
56.6200 18.8565 0.0510
56.6400 18.8631 0.0429
56.6600 18.8698 0.0408
56.6800 18.8766 0.0422
56.7000 18.8833 0.0417
56.7200 18.8899 0.0363
56.7400 18.8966 0.0404
56.7600 18.9033 0.0404
56.7800 18.9099 0.0335
56.8000 18.9165 0.0438
56.8200 18.9232 0.0394
56.8400 18.9299 0.0269
56.8600 18.9366 0.0401
56.8800 18.9433 0.0349
56.9000 18.9500 0.0253
56.9200 18.9567 0.0338
56.9400 18.9633 0.0317
56.9600 18.9699 0.0233
56.9800 18.9765 0.0340
57.0000 18.9832 0.0239
57.0200 18.9899 0.0216
57.0400 18.9966 0.0326
57.0600 19.0033 0.0180
57.0800 19.0100 0.0219
57.1000 19.0167 0.0275
57.1200 19.0233 0.0182
57.1400 19.0299 0.0176
57.1600 19.0365 0.0239
57.1800 19.0432 0.0174
57.2000 19.0499 0.0140
57.2200 19.0566 0.0205
57.2400 19.0633 0.0122
57.2600 19.0700 0.0102
57.2800 19.0766 0.0210
57.3000 19.0833 0.0085
57.3200 19.0899 0.0118
57.3400 19.0965 0.0141
57.3600 19.1032 0.0089
57.3800 19.1099 0.0092
57.4000 19.1166 0.0103
57.4200 19.1233 0.0046
57.4400 19.1299 0.0046
57.4600 19.1366 0.0046
57.4800 19.1433 0.0019
57.5000 19.1499 -0.0010
57.5200 19.1565 0.0040
57.5400 19.1632 0.0011
57.5600 19.1699 -0.0030
57.5800 19.1766 -0.0067
57.6000 19.1833 -0.0016
57.6200 19.1900 -0.0067
57.6400 19.1967 -0.0047
57.6600 19.2033 -0.0066
57.6800 19.2100 -0.0102
57.7000 19.2166 -0.0063
57.7200 19.2232 -0.0109
57.7400 19.2299 -0.0099
57.7600 19.2366 -0.0127
57.7800 19.2433 -0.0173
57.8000 19.2500 -0.0118
57.8200 19.2567 -0.0196
57.8400 19.2634 -0.0197
57.8600 19.2700 -0.0170
57.8800 19.2765 -0.0156
57.9000 19.2832 -0.0248
57.9200 19.2899 -0.0226
57.9400 19.2966 -0.0198
57.9600 19.3033 -0.0269
57.9800 19.3100 -0.0234
58.0000 19.3166 -0.0265
58.0200 19.3233 -0.0327
58.0400 19.3299 -0.0245
58.0600 19.3365 -0.0321
58.0800 19.3432 -0.0281
58.1000 19.3499 -0.0257
58.1200 19.3566 -0.0384
58.1400 19.3633 -0.0323
58.1600 19.3699 -0.0277
58.1800 19.3766 -0.0381
58.2000 19.3833 -0.0396
58.2200 19.3899 -0.0305
58.2400 19.3966 -0.0425
58.2600 19.4032 -0.0393
58.2800 19.4099 -0.0375
58.3000 19.4166 -0.0480
58.3200 19.4233 -0.0411
58.3400 19.4300 -0.0418
58.3600 19.4367 -0.0516
58.3800 19.4434 -0.0432
58.4000 19.4500 -0.0448
58.4200 19.4565 -0.0508
58.4400 19.4632 -0.0467
58.4600 19.4699 -0.0474
58.4800 19.4766 -0.0584
58.5000 19.4833 -0.0491
58.5200 19.4900 -0.0520
58.5400 19.4967 -0.0573
58.5600 19.5033 -0.0533
58.5800 19.5099 -0.0553
58.6000 19.5166 -0.0579
58.6200 19.5232 -0.0554
58.6400 19.5299 -0.0627
58.6600 19.5366 -0.0621
58.6800 19.5433 -0.0629
58.7000 19.5500 -0.0638
58.7200 19.5566 -0.0631
58.7400 19.5633 -0.0691
58.7600 19.5699 -0.0665
58.7800 19.5765 -0.0635
58.8000 19.5831 -0.0740
58.8200 19.5898 -0.0670
58.8400 19.5966 -0.0668
58.8600 19.6032 -0.0788
58.8800 19.6099 -0.0692
58.9000 19.6166 -0.0722
58.9200 19.6233 -0.0849
58.9400 19.6299 -0.0754
58.9600 19.6365 -0.0767
58.9800 19.6432 -0.0862
59.0000 19.6499 -0.0760
59.0200 19.6566 -0.0839
59.0400 19.6633 -0.0886
59.0600 19.6700 -0.0783
59.0800 19.6767 -0.0866
59.1000 19.6833 -0.0946
59.1200 19.6900 -0.0815
59.1400 19.6966 -0.0939
59.1600 19.7032 -0.0953
59.1800 19.7099 -0.0817
59.2000 19.7166 -0.0962
59.2200 19.7233 -0.0974
59.2400 19.7300 -0.0888
59.2600 19.7367 -0.1017
59.2800 19.7433 -0.0978
59.3000 19.7499 -0.1048
59.3010 19.7502 -0.1066
