Raw Data
Time Displacement Force
(s) (mm) (N)
0.0000 0.0000 0.5885
0.0200 0.0000 0.5844
0.0400 0.0008 0.6081
0.0600 0.0040 0.6303
0.0800 0.0095 0.5838
0.1000 0.0152 0.5753
0.1200 0.0211 0.6115
0.1400 0.0278 0.5936
0.1600 0.0351 0.5855
0.1800 0.0425 0.5926
0.2000 0.0497 0.5807
0.2200 0.0565 0.5870
0.2400 0.0632 0.5928
0.2600 0.0699 0.5886
0.2800 0.0766 0.5952
0.3000 0.0833 0.5944
0.3200 0.0900 0.5845
0.3400 0.0967 0.6018
0.3600 0.1034 0.5921
0.3800 0.1100 0.5924
0.4000 0.1167 0.6038
0.4200 0.1234 0.5926
0.4400 0.1301 0.5967
0.4600 0.1367 0.6012
0.4800 0.1434 0.5955
0.5000 0.1501 0.6049
0.5200 0.1568 0.5996
0.5400 0.1634 0.5989
0.5600 0.1700 0.6098
0.5800 0.1766 0.6056
0.6000 0.1833 0.6011
0.6200 0.1900 0.6161
0.6400 0.1967 0.6022
0.6600 0.2034 0.6063
0.6800 0.2101 0.6192
0.7000 0.2168 0.6011
0.7200 0.2234 0.6097
0.7400 0.2300 0.6193
0.7600 0.2366 0.6076
0.7800 0.2433 0.6141
0.8000 0.2500 0.6236
0.8200 0.2567 0.6098
0.8400 0.2634 0.6177
0.8600 0.2701 0.6213
0.8800 0.2768 0.6102
0.9000 0.2834 0.6160
0.9200 0.2900 0.6240
0.9400 0.2966 0.6136
0.9600 0.3033 0.6215
0.9800 0.3100 0.6235
1.0000 0.3167 0.6174
1.0200 0.3234 0.6227
1.0400 0.3300 0.6191
1.0600 0.3367 0.6186
1.0800 0.3434 0.6185
1.1000 0.3500 0.6170
1.1200 0.3566 0.6192
1.1400 0.3633 0.6146
1.1600 0.3700 0.6156
1.1800 0.3767 0.6182
1.2000 0.3834 0.6170
1.2200 0.3900 0.6179
1.2400 0.3968 0.6153
1.2600 0.4034 0.6066
1.2800 0.4101 0.6217
1.3000 0.4167 0.6218
1.3200 0.4234 0.6030
1.3400 0.4301 0.6123
1.3600 0.4367 0.6151
1.3800 0.4434 0.6103
1.4000 0.4501 0.6174
1.4200 0.4568 0.6072
1.4400 0.4634 0.6059
1.4600 0.4700 0.6121
1.4800 0.4766 0.6079
1.5000 0.4833 0.6116
1.5200 0.4900 0.6123
1.5400 0.4967 0.5994
1.5600 0.5034 0.6094
1.5800 0.5101 0.6073
1.6000 0.5167 0.6050
1.6200 0.5234 0.6127
1.6400 0.5300 0.5989
1.6600 0.5366 0.6044
1.6800 0.5433 0.6144
1.7000 0.5500 0.6047
1.7200 0.5567 0.6004
1.7400 0.5634 0.6048
1.7600 0.5700 0.5998
1.7800 0.5767 0.6126
1.8000 0.5834 0.6061
1.8200 0.5900 0.5937
1.8400 0.5967 0.6042
1.8600 0.6033 0.6077
1.8800 0.6100 0.5947
1.9000 0.6167 0.6095
1.9200 0.6234 0.6055
1.9400 0.6301 0.5926
1.9600 0.6368 0.6042
1.9800 0.6434 0.6041
2.0000 0.6500 0.6021
2.0200 0.6566 0.6078
2.0400 0.6633 0.5926
2.0600 0.6700 0.6004
2.0800 0.6767 0.6084
2.1000 0.6834 0.5970
2.1200 0.6901 0.6015
2.1400 0.6968 0.6061
2.1600 0.7034 0.5946
2.1800 0.7100 0.6007
2.2000 0.7166 0.6068
2.2200 0.7233 0.6023
2.2400 0.7300 0.6022
2.2600 0.7367 0.5988
2.2800 0.7434 0.5983
2.3000 0.7501 0.6053
2.3200 0.7567 0.6056
2.3400 0.7634 0.5942
2.3600 0.7700 0.6024
2.3800 0.7766 0.6033
2.4000 0.7833 0.5970
2.4200 0.7900 0.6008
2.4400 0.7967 0.6056
2.4600 0.8034 0.5985
2.4800 0.8101 0.5967
2.5000 0.8168 0.6018
2.5200 0.8234 0.6001
2.5400 0.8300 0.5991
2.5600 0.8366 0.5965
2.5800 0.8433 0.5981
2.6000 0.8500 0.5970
2.6200 0.8568 0.5930
2.6400 0.8634 0.5998
2.6600 0.8701 0.5952
2.6800 0.8768 0.5952
2.7000 0.8834 0.5963
2.7200 0.8900 0.5908
2.7400 0.8967 0.6033
2.7600 0.9033 0.5990
2.7800 0.9100 0.5892
2.8000 0.9167 0.5990
2.8200 0.9234 0.5957
2.8400 0.9301 0.5924
2.8600 0.9368 0.6004
2.8800 0.9434 0.5926
2.9000 0.9501 0.5889
2.9200 0.9567 0.5969
2.9400 0.9633 0.5938
2.9600 0.9700 0.5898
2.9800 0.9767 0.5926
3.0000 0.9834 0.5896
3.0200 0.9900 0.5881
3.0400 0.9968 0.5921
3.0600 1.0034 0.5880
3.0800 1.0100 0.5848
3.1000 1.0166 0.5921
3.1200 1.0232 0.5895
3.1400 1.0300 0.5886
3.1600 1.0367 0.5840
3.1800 1.0434 0.5890
3.2000 1.0501 0.5827
3.2200 1.0567 0.5839
3.2400 1.0634 0.5888
3.2600 1.0700 0.5834
3.2800 1.0767 0.5845
3.3000 1.0833 0.5915
3.3200 1.0900 0.5789
3.3400 1.0967 0.5851
3.3600 1.1034 0.5902
3.3800 1.1101 0.5811
3.4000 1.1168 0.5819
3.4200 1.1235 0.5860
3.4400 1.1301 0.5762
3.4600 1.1367 0.5867
3.4800 1.1433 0.5854
3.5000 1.1500 0.5766
3.5200 1.1567 0.5854
3.5400 1.1634 0.5845
3.5600 1.1701 0.5765
3.5800 1.1768 0.5820
3.6000 1.1834 0.5838
3.6200 1.1900 0.5748
3.6400 1.1966 0.5820
3.6600 1.2033 0.5852
3.6800 1.2100 0.5734
3.7000 1.2167 0.5830
3.7200 1.2234 0.5816
3.7400 1.2301 0.5740
3.7600 1.2368 0.5818
3.7800 1.2434 0.5792
3.8000 1.2500 0.5733
3.8200 1.2566 0.5810
3.8400 1.2633 0.5863
3.8600 1.2700 0.5770
3.8800 1.2767 0.5780
3.9000 1.2834 0.5840
3.9200 1.2900 0.5742
3.9400 1.2967 0.5773
3.9600 1.3034 0.5892
3.9800 1.3101 0.5718
4.0000 1.3167 0.5785
4.0200 1.3233 0.5871
4.0400 1.3300 0.5816
4.0600 1.3367 0.5761
4.0800 1.3434 0.5845
4.1000 1.3501 0.5779
4.1200 1.3568 0.5744
4.1400 1.3634 0.5837
4.1600 1.3701 0.5794
4.1800 1.3767 0.5751
4.2000 1.3833 0.5831
4.2200 1.3900 0.5777
4.2400 1.3967 0.5769
4.2600 1.4034 0.5829
4.2800 1.4101 0.5714
4.3000 1.4168 0.5761
4.3200 1.4235 0.5869
4.3400 1.4301 0.5701
4.3600 1.4367 0.5772
4.3800 1.4433 0.5846
4.4000 1.4500 0.5725
4.4200 1.4567 0.5747
4.4400 1.4634 0.5814
4.4600 1.4701 0.5763
4.4800 1.4767 0.5720
4.5000 1.4834 0.5776
4.5200 1.4901 0.5779
4.5400 1.4966 0.5768
4.5600 1.5033 0.5759
4.5800 1.5100 0.5722
4.6000 1.5167 0.5769
4.6200 1.5234 0.5786
4.6400 1.5301 0.5689
4.6600 1.5368 0.5734
4.6800 1.5434 0.5723
4.7000 1.5501 0.5742
4.7200 1.5566 0.5761
4.7400 1.5633 0.5785
4.7600 1.5700 0.5656
4.7800 1.5768 0.5736
4.8000 1.5835 0.5777
4.8200 1.5901 0.5676
4.8400 1.5968 0.5682
4.8600 1.6035 0.5788
4.8800 1.6101 0.5656
4.9000 1.6167 0.5654
4.9200 1.6233 0.5786
4.9400 1.6300 0.5700
4.9600 1.6367 0.5666
4.9800 1.6434 0.5675
5.0000 1.6501 0.5707
5.0200 1.6568 0.5728
5.0400 1.6634 0.5654
5.0600 1.6701 0.5678
5.0800 1.6767 0.5677
5.1000 1.6833 0.5650
5.1200 1.6900 0.5715
5.1400 1.6967 0.5711
5.1600 1.7034 0.5586
5.1800 1.7100 0.5727
5.2000 1.7168 0.5685
5.2200 1.7234 0.5554
5.2400 1.7301 0.5722
5.2600 1.7367 0.5678
5.2800 1.7433 0.5595
5.3000 1.7499 0.5631
5.3200 1.7567 0.5615
5.3400 1.7634 0.5674
5.3600 1.7700 0.5660
5.3800 1.7767 0.5539
5.4000 1.7834 0.5612
5.4200 1.7900 0.5697
5.4400 1.7966 0.5616
5.4600 1.8033 0.5546
5.4800 1.8100 0.5657
5.5000 1.8167 0.5596
5.5200 1.8234 0.5578
5.5400 1.8301 0.5618
5.5600 1.8368 0.5601
5.5800 1.8435 0.5568
5.6000 1.8501 0.5608
5.6200 1.8567 0.5618
5.6400 1.8633 0.5584
5.6600 1.8700 0.5639
5.6800 1.8767 0.5533
5.7000 1.8834 0.5558
5.7200 1.8901 0.5670
5.7400 1.8968 0.5564
5.7600 1.9034 0.5545
5.7800 1.9101 0.5548
5.8000 1.9167 0.5496
5.8200 1.9233 0.5653
5.8400 1.9300 0.5641
5.8600 1.9367 0.5443
5.8800 1.9434 0.5483
5.9000 1.9500 0.5647
5.9200 1.9567 0.5533
5.9400 1.9634 0.5555
5.9600 1.9700 0.5599
5.9800 1.9767 0.5475
6.0000 1.9833 0.5518
6.0200 1.9900 0.5614
6.0400 1.9967 0.5570
6.0600 2.0034 0.5516
6.0800 2.0101 0.5536
6.1000 2.0167 0.5539
6.1200 2.0234 0.5546
6.1400 2.0301 0.5566
6.1600 2.0367 0.5438
6.1800 2.0433 0.5483
6.2000 2.0500 0.5632
6.2200 2.0567 0.5490
6.2400 2.0634 0.5467
6.2600 2.0701 0.5591
6.2800 2.0768 0.5412
6.3000 2.0834 0.5514
6.3200 2.0901 0.5587
6.3400 2.0967 0.5430
6.3600 2.1033 0.5457
6.3800 2.1100 0.5595
6.4000 2.1167 0.5393
6.4200 2.1234 0.5511
6.4400 2.1301 0.5625
6.4600 2.1368 0.5385
6.4800 2.1434 0.5448
6.5000 2.1501 0.5596
6.5200 2.1567 0.5467
6.5400 2.1633 0.5501
6.5600 2.1700 0.5522
6.5800 2.1767 0.5388
6.6000 2.1834 0.5508
6.6200 2.1901 0.5550
6.6400 2.1968 0.5426
6.6600 2.2035 0.5434
6.6800 2.2101 0.5490
6.7000 2.2167 0.5351
6.7200 2.2233 0.5455
6.7400 2.2299 0.5547
6.7600 2.2366 0.5381
6.7800 2.2434 0.5376
6.8000 2.2501 0.5531
6.8200 2.2568 0.5422
6.8400 2.2634 0.5412
6.8600 2.2701 0.5429
6.8800 2.2767 0.5403
6.9000 2.2833 0.5449
6.9200 2.2900 0.5497
6.9400 2.2967 0.5359
6.9600 2.3034 0.5401
6.9800 2.3101 0.5486
7.0000 2.3168 0.5444
7.0200 2.3234 0.5417
7.0400 2.3301 0.5449
7.0600 2.3367 0.5397
7.0800 2.3433 0.5423
7.1000 2.3500 0.5494
7.1200 2.3567 0.5438
7.1400 2.3634 0.5422
7.1600 2.3701 0.5440
7.1800 2.3768 0.5393
7.2000 2.3835 0.5414
7.2200 2.3901 0.5471
7.2400 2.3967 0.5422
7.2600 2.4033 0.5359
7.2800 2.4100 0.5442
7.3000 2.4167 0.5435
7.3200 2.4234 0.5419
7.3400 2.4301 0.5433
7.3600 2.4368 0.5419
7.3800 2.4434 0.5350
7.4000 2.4501 0.5429
7.4200 2.4567 0.5453
7.4400 2.4633 0.5366
7.4600 2.4700 0.5480
7.4800 2.4767 0.5422
7.5000 2.4834 0.5312
7.5200 2.4900 0.5397
7.5400 2.4967 0.5438
7.5600 2.5034 0.5351
7.5800 2.5101 0.5422
7.6000 2.5167 0.5417
7.6200 2.5233 0.5324
7.6400 2.5300 0.5434
7.6600 2.5367 0.5419
7.6800 2.5434 0.5294
7.7000 2.5501 0.5492
7.7200 2.5568 0.5358
7.7400 2.5635 0.5278
7.7600 2.5701 0.5428
7.7800 2.5767 0.5388
7.8000 2.5833 0.5324
7.8200 2.5900 0.5436
7.8400 2.5967 0.5361
7.8600 2.6034 0.5334
7.8800 2.6101 0.5479
7.9000 2.6168 0.5315
7.9200 2.6234 0.5353
7.9400 2.6301 0.5422
7.9600 2.6367 0.5297
7.9800 2.6433 0.5363
8.0000 2.6500 0.5390
8.0200 2.6567 0.5340
8.0400 2.6634 0.5348
8.0600 2.6700 0.5342
8.0800 2.6767 0.5328
8.1000 2.6834 0.5366
8.1200 2.6901 0.5318
8.1400 2.6967 0.5302
8.1600 2.7033 0.5328
8.1800 2.7099 0.5317
8.2000 2.7166 0.5352
8.2200 2.7234 0.5303
8.2400 2.7301 0.5291
8.2600 2.7368 0.5367
8.2800 2.7435 0.5250
8.3000 2.7501 0.5265
8.3200 2.7567 0.5412
8.3400 2.7633 0.5287
8.3600 2.7700 0.5252
8.3800 2.7767 0.5336
8.4000 2.7834 0.5255
8.4200 2.7901 0.5257
8.4400 2.7967 0.5384
8.4600 2.8034 0.5187
8.4800 2.8101 0.5262
8.5000 2.8167 0.5329
8.5200 2.8233 0.5199
8.5400 2.8300 0.5294
8.5600 2.8367 0.5352
8.5800 2.8434 0.5170
8.6000 2.8501 0.5222
8.6200 2.8568 0.5369
8.6400 2.8635 0.5196
8.6600 2.8702 0.5267
8.6800 2.8768 0.5340
8.7000 2.8834 0.5133
8.7200 2.8900 0.5325
8.7400 2.8966 0.5329
8.7600 2.9034 0.5142
8.7800 2.9101 0.5296
8.8000 2.9167 0.5258
8.8200 2.9234 0.5142
8.8400 2.9301 0.5262
8.8600 2.9367 0.5252
8.8800 2.9433 0.5180
8.9000 2.9499 0.5275
8.9200 2.9566 0.5179
8.9400 2.9633 0.5206
8.9600 2.9700 0.5287
8.9800 2.9767 0.5207
9.0000 2.9834 0.5232
9.0200 2.9901 0.5245
9.0400 2.9967 0.5198
9.0600 3.0033 0.5286
9.0800 3.0100 0.5218
9.1000 3.0167 0.5175
9.1200 3.0234 0.5231
9.1400 3.0301 0.5220
9.1600 3.0368 0.5169
9.1800 3.0435 0.5273
9.2000 3.0501 0.5189
9.2200 3.0568 0.5220
9.2400 3.0634 0.5273
9.2600 3.0700 0.5196
9.2800 3.0767 0.5234
9.3000 3.0834 0.5240
9.3200 3.0901 0.5146
9.3400 3.0968 0.5236
9.3600 3.1035 0.5225
9.3800 3.1101 0.5164
9.4000 3.1167 0.5234
9.4200 3.1233 0.5197
9.4400 3.1300 0.5142
9.4600 3.1367 0.5269
9.4800 3.1434 0.5213
9.5000 3.1501 0.5167
9.5200 3.1567 0.5260
9.5400 3.1634 0.5207
9.5600 3.1701 0.5162
9.5800 3.1767 0.5242
9.6000 3.1834 0.5194
9.6200 3.1900 0.5219
9.6400 3.1967 0.5189
9.6600 3.2034 0.5165
9.6800 3.2100 0.5245
9.7000 3.2167 0.5173
9.7200 3.2234 0.5187
9.7400 3.2300 0.5173
9.7600 3.2367 0.5178
9.7800 3.2433 0.5186
9.8000 3.2500 0.5202
9.8200 3.2566 0.5179
9.8400 3.2634 0.5230
9.8600 3.2701 0.5187
9.8800 3.2768 0.5150
9.9000 3.2835 0.5172
9.9200 3.2901 0.5177
9.9400 3.2968 0.5134
9.9600 3.3033 0.5263
9.9800 3.3100 0.5166
10.0000 3.3167 0.5138
10.0200 3.3234 0.5232
10.0400 3.3301 0.5108
10.0600 3.3368 0.5156
10.0800 3.3434 0.5243
10.1000 3.3501 0.5092
10.1200 3.3567 0.5179
10.1400 3.3633 0.5223
10.1600 3.3700 0.5087
10.1800 3.3766 0.5147
10.2000 3.3833 0.5221
10.2200 3.3900 0.5058
10.2400 3.3967 0.5203
10.2600 3.4034 0.5215
10.2800 3.4101 0.5014
10.3000 3.4167 0.5238
10.3200 3.4233 0.5189
10.3400 3.4299 0.5050
10.3600 3.4366 0.5219
10.3800 3.4433 0.5154
10.4000 3.4501 0.5039
10.4200 3.4567 0.5218
10.4400 3.4634 0.5108
10.4600 3.4701 0.5032
10.4800 3.4767 0.5180
10.5000 3.4834 0.5099
10.5200 3.4900 0.5055
10.5400 3.4967 0.5184
10.5600 3.5034 0.5070
10.5800 3.5101 0.5081
10.6000 3.5168 0.5156
10.6200 3.5234 0.5090
10.6400 3.5301 0.5117
10.6600 3.5368 0.5101
10.6800 3.5434 0.5067
10.7000 3.5500 0.5136
10.7200 3.5566 0.5048
10.7400 3.5633 0.5073
10.7600 3.5701 0.5060
10.7800 3.5767 0.5005
10.8000 3.5834 0.5123
10.8200 3.5901 0.5098
10.8400 3.5968 0.4971
10.8600 3.6034 0.5155
10.8800 3.6100 0.5036
10.9000 3.6167 0.5000
10.9200 3.6234 0.5208
10.9400 3.6301 0.5023
10.9600 3.6367 0.4889
10.9800 3.6434 0.5192
11.0000 3.6501 0.5028
11.0200 3.6567 0.4974
11.0400 3.6633 0.5132
11.0600 3.6700 0.5007
11.0800 3.6766 0.4992
11.1000 3.6833 0.5196
11.1200 3.6900 0.4990
11.1400 3.6967 0.4927
11.1600 3.7034 0.5247
11.1800 3.7101 0.4972
11.2000 3.7167 0.4908
11.2200 3.7233 0.5196
11.2400 3.7300 0.4931
11.2600 3.7366 0.4927
11.2800 3.7434 0.5237
11.3000 3.7501 0.4962
11.3200 3.7568 0.4959
11.3400 3.7635 0.5149
11.3600 3.7702 0.4886
11.3800 3.7768 0.5003
11.4000 3.7834 0.5290
11.4200 3.7900 0.4877
11.4400 3.7967 0.4897
11.4600 3.8034 0.5196
11.4800 3.8101 0.5015
11.5000 3.8168 0.4933
11.5200 3.8235 0.5071
11.5400 3.8301 0.4922
11.5600 3.8368 0.5040
11.5800 3.8434 0.5141
11.6000 3.8500 0.4900
11.6200 3.8566 0.4981
11.6400 3.8633 0.5137
11.6600 3.8700 0.4936
11.6800 3.8767 0.5067
11.7000 3.8834 0.5072
11.7200 3.8901 0.4871
11.7400 3.8967 0.5008
11.7600 3.9033 0.5076
11.7800 3.9099 0.4951
11.8000 3.9166 0.4994
11.8200 3.9233 0.5034
11.8400 3.9300 0.4936
11.8600 3.9367 0.5026
11.8800 3.9434 0.5007
11.9000 3.9501 0.4910
11.9200 3.9567 0.4944
11.9400 3.9633 0.4975
11.9600 3.9700 0.4988
11.9800 3.9766 0.4998
12.0000 3.9834 0.4886
12.0200 3.9901 0.4981
12.0400 3.9968 0.4976
12.0600 4.0034 0.4972
12.0800 4.0101 0.4940
12.1000 4.0168 0.4914
12.1200 4.0234 0.4967
12.1400 4.0300 0.4986
12.1600 4.0367 0.4946
12.1800 4.0434 0.4949
12.2000 4.0501 0.4937
12.2200 4.0568 0.4950
12.2400 4.0634 0.4963
12.2600 4.0701 0.4982
12.2800 4.0768 0.4920
12.3000 4.0834 0.4933
12.3200 4.0900 0.4927
12.3400 4.0966 0.4960
12.3600 4.1033 0.4969
12.3800 4.1100 0.4941
12.4000 4.1167 0.4857
12.4200 4.1234 0.4917
12.4400 4.1301 0.4991
12.4600 4.1368 0.4920
12.4800 4.1434 0.4893
12.5000 4.1500 0.4957
12.5200 4.1566 0.4926
12.5400 4.1633 0.4912
12.5600 4.1700 0.4952
12.5800 4.1767 0.4901
12.6000 4.1834 0.4915
12.6200 4.1901 0.4960
12.6400 4.1968 0.4921
12.6600 4.2034 0.4871
12.6800 4.2100 0.4972
12.7000 4.2167 0.4906
12.7200 4.2233 0.4923
12.7400 4.2300 0.4881
12.7600 4.2367 0.4853
12.7800 4.2434 0.4936
12.8000 4.2501 0.4908
12.8200 4.2568 0.4831
12.8400 4.2634 0.4933
12.8600 4.2700 0.4907
12.8800 4.2767 0.4823
12.9000 4.2834 0.4927
12.9200 4.2901 0.4917
12.9400 4.2968 0.4795
12.9600 4.3034 0.4922
12.9800 4.3101 0.4883
13.0000 4.3168 0.4859
13.0200 4.3234 0.4916
13.0400 4.3300 0.4865
13.0600 4.3367 0.4883
13.0800 4.3434 0.4924
13.1000 4.3501 0.4836
13.1200 4.3568 0.4907
13.1400 4.3634 0.4861
13.1600 4.3701 0.4903
13.1800 4.3768 0.4864
13.2000 4.3834 0.4821
13.2200 4.3900 0.4886
13.2400 4.3966 0.4876
13.2600 4.4033 0.4781
13.2800 4.4100 0.4892
13.3000 4.4167 0.4879
13.3200 4.4234 0.4753
13.3400 4.4301 0.4911
13.3600 4.4368 0.4853
13.3800 4.4434 0.4751
13.4000 4.4500 0.4967
13.4200 4.4566 0.4835
13.4400 4.4633 0.4751
13.4600 4.4701 0.4972
13.4800 4.4768 0.4792
13.5000 4.4835 0.4772
13.5200 4.4901 0.4944
13.5400 4.4968 0.4785
13.5600 4.5034 0.4766
13.5800 4.5100 0.4947
13.6000 4.5167 0.4758
13.6200 4.5234 0.4799
13.6400 4.5301 0.4915
13.6600 4.5368 0.4699
13.6800 4.5434 0.4805
13.7000 4.5501 0.4906
13.7200 4.5567 0.4711
13.7400 4.5634 0.4846
13.7600 4.5699 0.4800
13.7800 4.5766 0.4745
13.8000 4.5833 0.4858
13.8200 4.5900 0.4751
13.8400 4.5967 0.4724
13.8600 4.6034 0.4845
13.8800 4.6101 0.4747
13.9000 4.6168 0.4739
13.9200 4.6234 0.4833
13.9400 4.6300 0.4705
13.9600 4.6366 0.4830
13.9800 4.6433 0.4812
14.0000 4.6500 0.4673
14.0200 4.6567 0.4875
14.0400 4.6634 0.4755
14.0600 4.6701 0.4660
14.0800 4.6767 0.4888
14.1000 4.6834 0.4752
14.1200 4.6900 0.4667
14.1400 4.6966 0.4900
14.1600 4.7033 0.4742
14.1800 4.7101 0.4634
14.2000 4.7167 0.4877
14.2200 4.7234 0.4716
14.2400 4.7301 0.4669
14.2600 4.7368 0.4869
14.2800 4.7434 0.4723
14.3000 4.7500 0.4680
14.3200 4.7567 0.4864
14.3400 4.7633 0.4716
14.3600 4.7700 0.4696
14.3800 4.7767 0.4765
14.4000 4.7834 0.4708
14.4200 4.7901 0.4745
14.4400 4.7968 0.4794
14.4600 4.8034 0.4653
14.4800 4.8100 0.4771
14.5000 4.8166 0.4776
14.5200 4.8233 0.4695
14.5400 4.8300 0.4765
14.5600 4.8367 0.4778
14.5800 4.8433 0.4655
14.6000 4.8500 0.4735
14.6200 4.8567 0.4777
14.6400 4.8634 0.4675
14.6600 4.8700 0.4756
14.6800 4.8766 0.4731
14.7000 4.8833 0.4634
14.7200 4.8900 0.4731
14.7400 4.8967 0.4745
14.7600 4.9034 0.4674
14.7800 4.9100 0.4710
14.8000 4.9167 0.4715
14.8200 4.9234 0.4688
14.8400 4.9300 0.4664
14.8600 4.9367 0.4732
14.8800 4.9433 0.4741
14.9000 4.9500 0.4684
14.9200 4.9567 0.4668
14.9400 4.9634 0.4754
14.9600 4.9701 0.4708
14.9800 4.9768 0.4648
15.0000 4.9834 0.4693
15.0200 4.9900 0.4738
15.0400 4.9966 0.4736
15.0600 5.0033 0.4618
15.0800 5.0100 0.4648
15.1000 5.0168 0.4771
15.1200 5.0234 0.4611
15.1400 5.0301 0.4612
15.1600 5.0368 0.4801
15.1800 5.0434 0.4569
15.2000 5.0500 0.4604
15.2200 5.0567 0.4833
15.2400 5.0633 0.4570
15.2600 5.0700 0.4635
15.2800 5.0767 0.4818
15.3000 5.0834 0.4555
15.3200 5.0901 0.4534
15.3400 5.0968 0.4818
15.3600 5.1034 0.4581
15.3800 5.1100 0.4615
15.4000 5.1166 0.4713
15.4200 5.1232 0.4573
15.4400 5.1300 0.4680
15.4600 5.1367 0.4721
15.4800 5.1434 0.4526
15.5000 5.1501 0.4730
15.5200 5.1567 0.4670
15.5400 5.1634 0.4484
15.5600 5.1700 0.4732
15.5800 5.1766 0.4699
15.6000 5.1833 0.4519
15.6200 5.1900 0.4620
15.6400 5.1968 0.4668
15.6600 5.2034 0.4535
15.6800 5.2101 0.4623
15.7000 5.2168 0.4699
15.7200 5.2235 0.4565
15.7400 5.2301 0.4572
15.7600 5.2367 0.4687
15.7800 5.2434 0.4604
15.8000 5.2501 0.4568
15.8200 5.2568 0.4652
15.8400 5.2634 0.4596
15.8600 5.2701 0.4544
15.8800 5.2768 0.4655
15.9000 5.2835 0.4551
15.9200 5.2900 0.4596
15.9400 5.2966 0.4658
15.9600 5.3033 0.4568
15.9800 5.3100 0.4560
16.0000 5.3167 0.4660
16.0200 5.3234 0.4550
16.0400 5.3301 0.4598
16.0600 5.3368 0.4628
16.0800 5.3434 0.4493
16.1000 5.3500 0.4584
16.1200 5.3566 0.4681
16.1400 5.3633 0.4549
16.1600 5.3700 0.4553
16.1800 5.3767 0.4577
16.2000 5.3834 0.4611
16.2200 5.3900 0.4557
16.2400 5.3967 0.4576
16.2600 5.4034 0.4583
16.2800 5.4101 0.4551
16.3000 5.4167 0.4596
16.3200 5.4233 0.4569
16.3400 5.4300 0.4579
16.3600 5.4367 0.4531
16.3800 5.4434 0.4572
16.4000 5.4501 0.4624
16.4200 5.4568 0.4533
16.4400 5.4635 0.4571
16.4600 5.4700 0.4549
16.4800 5.4766 0.4541
16.5000 5.4833 0.4588
16.5200 5.4900 0.4566
16.5400 5.4967 0.4577
16.5600 5.5034 0.4581
16.5800 5.5101 0.4564
16.6000 5.5168 0.4477
16.6200 5.5234 0.4616
16.6400 5.5300 0.4534
16.6600 5.5366 0.4511
16.6800 5.5433 0.4605
16.7000 5.5500 0.4545
16.7200 5.5567 0.4523
16.7400 5.5634 0.4541
16.7600 5.5701 0.4568
16.7800 5.5767 0.4524
16.8000 5.5834 0.4573
16.8200 5.5900 0.4566
16.8400 5.5967 0.4515
16.8600 5.6033 0.4571
16.8800 5.6100 0.4533
16.9000 5.6167 0.4529
16.9200 5.6234 0.4623
16.9400 5.6300 0.4579
16.9600 5.6367 0.4467
16.9800 5.6434 0.4601
17.0000 5.6500 0.4507
17.0200 5.6566 0.4507
17.0400 5.6633 0.4659
17.0600 5.6700 0.4459
17.0800 5.6768 0.4476
17.1000 5.6835 0.4648
17.1200 5.6901 0.4472
17.1400 5.6968 0.4492
17.1600 5.7034 0.4610
17.1800 5.7100 0.4441
17.2000 5.7167 0.4540
17.2200 5.7233 0.4636
17.2400 5.7300 0.4458
17.2600 5.7368 0.4530
17.2800 5.7434 0.4570
17.3000 5.7501 0.4443
17.3200 5.7568 0.4519
17.3400 5.7635 0.4533
17.3600 5.7701 0.4461
17.3800 5.7767 0.4507
17.4000 5.7833 0.4578
17.4200 5.7900 0.4436
17.4400 5.7967 0.4492
17.4600 5.8034 0.4566
17.4800 5.8101 0.4496
17.5000 5.8168 0.4477
17.5200 5.8234 0.4534
17.5400 5.8300 0.4490
17.5600 5.8366 0.4461
17.5800 5.8432 0.4544
17.6000 5.8499 0.4502
17.6200 5.8567 0.4459
17.6400 5.8634 0.4487
17.6600 5.8701 0.4509
17.6800 5.8767 0.4451
17.7000 5.8834 0.4392
17.7200 5.8901 0.4567
17.7400 5.8967 0.4470
17.7600 5.9033 0.4434
17.7800 5.9100 0.4535
17.8000 5.9167 0.4420
17.8200 5.9234 0.4435
17.8400 5.9301 0.4512
17.8600 5.9368 0.4432
17.8800 5.9435 0.4449
17.9000 5.9501 0.4468
17.9200 5.9567 0.4447
17.9400 5.9633 0.4491
17.9600 5.9700 0.4406
17.9800 5.9767 0.4489
18.0000 5.9834 0.4479
18.0200 5.9901 0.4378
18.0400 5.9968 0.4416
18.0600 6.0034 0.4550
18.0800 6.0101 0.4353
18.1000 6.0166 0.4362
18.1200 6.0233 0.4612
18.1400 6.0300 0.4400
18.1600 6.0367 0.4301
18.1800 6.0434 0.4523
18.2000 6.0501 0.4410
18.2200 6.0567 0.4380
18.2400 6.0634 0.4442
18.2600 6.0701 0.4377
18.2800 6.0767 0.4390
18.3000 6.0833 0.4491
18.3200 6.0900 0.4383
18.3400 6.0967 0.4409
18.3600 6.1034 0.4419
18.3800 6.1101 0.4415
18.4000 6.1167 0.4430
18.4200 6.1234 0.4374
18.4400 6.1301 0.4392
18.4600 6.1367 0.4407
18.4800 6.1433 0.4378
18.5000 6.1500 0.4410
18.5200 6.1567 0.4350
18.5400 6.1634 0.4416
18.5600 6.1701 0.4422
18.5800 6.1768 0.4299
18.6000 6.1835 0.4396
18.6200 6.1901 0.4449
18.6400 6.1967 0.4294
18.6600 6.2033 0.4372
18.6800 6.2100 0.4495
18.7000 6.2167 0.4279
18.7200 6.2234 0.4362
18.7400 6.2301 0.4442
18.7600 6.2368 0.4280
18.7800 6.2435 0.4427
18.8000 6.2501 0.4444
18.8200 6.2567 0.4208
18.8400 6.2633 0.4425
18.8600 6.2700 0.4458
18.8800 6.2767 0.4285
18.9000 6.2834 0.4390
18.9200 6.2900 0.4376
18.9400 6.2967 0.4287
18.9600 6.3034 0.4462
18.9800 6.3101 0.4327
19.0000 6.3167 0.4274
19.0200 6.3233 0.4473
19.0400 6.3299 0.4345
19.0600 6.3367 0.4232
19.0800 6.3434 0.4520
19.1000 6.3501 0.4347
19.1200 6.3567 0.4229
19.1400 6.3634 0.4422
19.1600 6.3701 0.4345
19.1800 6.3767 0.4250
19.2000 6.3833 0.4453
19.2200 6.3900 0.4314
19.2400 6.3968 0.4206
19.2600 6.4034 0.4474
19.2800 6.4101 0.4296
19.3000 6.4168 0.4253
19.3200 6.4235 0.4470
19.3400 6.4301 0.4309
19.3600 6.4367 0.4219
19.3800 6.4433 0.4441
19.4000 6.4500 0.4323
19.4200 6.4567 0.4269
19.4400 6.4634 0.4373
19.4600 6.4701 0.4282
19.4800 6.4768 0.4338
19.5000 6.4834 0.4373
19.5200 6.4901 0.4256
19.5400 6.4967 0.4305
19.5600 6.5033 0.4338
19.5800 6.5100 0.4312
19.6000 6.5167 0.4319
19.6200 6.5234 0.4258
19.6400 6.5301 0.4351
19.6600 6.5368 0.4342
19.6800 6.5434 0.4246
19.7000 6.5501 0.4359
19.7200 6.5566 0.4309
19.7400 6.5633 0.4283
19.7600 6.5699 0.4324
19.7800 6.5767 0.4339
19.8000 6.5834 0.4276
19.8200 6.5900 0.4380
19.8400 6.5967 0.4286
19.8600 6.6034 0.4234
19.8800 6.6100 0.4364
19.9000 6.6167 0.4262
19.9200 6.6233 0.4235
19.9400 6.6300 0.4416
19.9600 6.6367 0.4218
19.9800 6.6434 0.4257
20.0000 6.6501 0.4408
20.0200 6.6568 0.4238
20.0400 6.6635 0.4261
20.0600 6.6701 0.4354
20.0800 6.6767 0.4224
20.1000 6.6833 0.4288
20.1200 6.6900 0.4375
20.1400 6.6967 0.4212
20.1600 6.7034 0.4314
20.1800 6.7101 0.4296
20.2000 6.7168 0.4234
20.2200 6.7235 0.4309
20.2400 6.7301 0.4277
20.2600 6.7367 0.4298
20.2800 6.7433 0.4276
20.3000 6.7500 0.4219
20.3200 6.7567 0.4304
20.3400 6.7634 0.4263
20.3600 6.7700 0.4225
20.3800 6.7767 0.4337
20.4000 6.7834 0.4244
20.4200 6.7900 0.4215
20.4400 6.7967 0.4335
20.4600 6.8033 0.4193
20.4800 6.8099 0.4238
20.5000 6.8167 0.4342
20.5200 6.8234 0.4173
20.5400 6.8301 0.4267
20.5600 6.8367 0.4302
20.5800 6.8434 0.4120
20.6000 6.8501 0.4273
20.6200 6.8567 0.4299
20.6400 6.8633 0.4149
20.6600 6.8700 0.4292
20.6800 6.8767 0.4268
20.7000 6.8834 0.4155
20.7200 6.8901 0.4281
20.7400 6.8968 0.4222
20.7600 6.9035 0.4154
20.7800 6.9101 0.4272
20.8000 6.9167 0.4174
20.8200 6.9233 0.4161
20.8400 6.9300 0.4312
20.8600 6.9367 0.4199
20.8800 6.9434 0.4167
20.9000 6.9501 0.4285
20.9200 6.9567 0.4170
20.9400 6.9634 0.4181
20.9600 6.9701 0.4272
20.9800 6.9767 0.4155
21.0000 6.9834 0.4155
21.0200 6.9900 0.4292
21.0400 6.9967 0.4132
21.0600 7.0034 0.4154
21.0800 7.0101 0.4203
21.1000 7.0167 0.4179
21.1200 7.0234 0.4229
21.1400 7.0301 0.4122
21.1600 7.0367 0.4167
21.1800 7.0433 0.4231
21.2000 7.0499 0.4138
21.2200 7.0566 0.4187
21.2400 7.0633 0.4179
21.2600 7.0700 0.4112
21.2800 7.0767 0.4216
21.3000 7.0834 0.4164
21.3200 7.0900 0.4054
21.3400 7.0967 0.4291
21.3600 7.1033 0.4144
21.3800 7.1100 0.4124
21.4000 7.1167 0.4227
21.4200 7.1234 0.4079
21.4400 7.1301 0.4200
21.4600 7.1367 0.4206
21.4800 7.1434 0.3981
21.5000 7.1501 0.4206
21.5200 7.1567 0.4218
21.5400 7.1633 0.3984
21.5600 7.1700 0.4242
21.5800 7.1767 0.4180
21.6000 7.1834 0.3934
21.6200 7.1901 0.4211
21.6400 7.1968 0.4170
21.6600 7.2035 0.4035
21.6800 7.2101 0.4202
21.7000 7.2167 0.4062
21.7200 7.2233 0.4135
21.7400 7.2300 0.4209
21.7600 7.2367 0.4076
21.7800 7.2434 0.4096
21.8000 7.2501 0.4104
21.8200 7.2567 0.4081
21.8400 7.2634 0.4180
21.8600 7.2701 0.4053
21.8800 7.2767 0.4014
21.9000 7.2833 0.4210
21.9200 7.2900 0.4032
21.9400 7.2967 0.4035
21.9600 7.3034 0.4145
21.9800 7.3100 0.4064
22.0000 7.3167 0.4135
22.0200 7.3234 0.4061
22.0400 7.3301 0.4064
22.0600 7.3367 0.4151
22.0800 7.3433 0.4079
22.1000 7.3500 0.4005
22.1200 7.3567 0.4185
22.1400 7.3634 0.4064
22.1600 7.3701 0.3997
22.1800 7.3768 0.4186
22.2000 7.3835 0.4043
22.2200 7.3901 0.3995
22.2400 7.3967 0.4200
22.2600 7.4033 0.4037
22.2800 7.4100 0.4051
22.3000 7.4167 0.4164
22.3200 7.4234 0.4017
22.3400 7.4301 0.4015
22.3600 7.4368 0.4143
22.3800 7.4434 0.4012
22.4000 7.4501 0.4059
22.4200 7.4567 0.4126
22.4400 7.4633 0.3952
22.4600 7.4700 0.4131
22.4800 7.4767 0.4114
22.5000 7.4834 0.3925
22.5200 7.4900 0.4059
22.5400 7.4967 0.4172
22.5600 7.5034 0.3997
22.5800 7.5101 0.3990
22.6000 7.5167 0.4087
22.6200 7.5233 0.4074
22.6400 7.5299 0.3997
22.6600 7.5366 0.4024
22.6800 7.5433 0.4031
22.7000 7.5501 0.4018
22.7200 7.5568 0.4030
22.7400 7.5635 0.4013
22.7600 7.5701 0.3972
22.7800 7.5767 0.4097
22.8000 7.5833 0.3988
22.8200 7.5900 0.3935
22.8400 7.5967 0.4097
22.8600 7.6034 0.4048
22.8800 7.6101 0.3888
22.9000 7.6167 0.4047
22.9200 7.6234 0.4055
22.9400 7.6301 0.3978
22.9600 7.6368 0.3979
22.9800 7.6434 0.4001
23.0000 7.6500 0.4040
23.0200 7.6567 0.3973
23.0400 7.6634 0.3940
23.0600 7.6701 0.4034
23.0800 7.6768 0.4016
23.1000 7.6835 0.3926
23.1200 7.6901 0.3983
23.1400 7.6968 0.3988
23.1600 7.7034 0.3969
23.1800 7.7100 0.4007
23.2000 7.7167 0.3974
23.2200 7.7234 0.3953
23.2400 7.7301 0.3932
23.2600 7.7368 0.4035
23.2800 7.7434 0.3977
23.3000 7.7501 0.3806
23.3200 7.7567 0.4051
23.3400 7.7633 0.4051
23.3600 7.7699 0.3836
23.3800 7.7766 0.3983
23.4000 7.7833 0.4035
23.4200 7.7900 0.3911
23.4400 7.7967 0.3956
23.4600 7.8034 0.4007
23.4800 7.8101 0.3961
23.5000 7.8167 0.3956
23.5200 7.8233 0.3926
23.5400 7.8300 0.3950
23.5600 7.8367 0.4056
23.5800 7.8434 0.3917
23.6000 7.8501 0.3914
23.6200 7.8568 0.4012
23.6400 7.8635 0.3968
23.6600 7.8701 0.3908
23.6800 7.8768 0.3927
23.7000 7.8834 0.4005
23.7200 7.8900 0.3956
23.7400 7.8967 0.3948
23.7600 7.9034 0.3940
23.7800 7.9101 0.3942
23.8000 7.9168 0.3978
23.8200 7.9235 0.3940
23.8400 7.9301 0.3929
23.8600 7.9368 0.3989
23.8800 7.9433 0.3931
23.9000 7.9500 0.3914
23.9200 7.9567 0.3971
23.9400 7.9634 0.3941
23.9600 7.9701 0.3910
23.9800 7.9767 0.3906
24.0000 7.9834 0.3927
24.0200 7.9901 0.3964
24.0400 7.9968 0.3915
24.0600 8.0034 0.3904
24.0800 8.0100 0.3920
24.1000 8.0166 0.3969
24.1200 8.0233 0.3896
24.1400 8.0300 0.3908
24.1600 8.0367 0.3950
24.1800 8.0434 0.3959
24.2000 8.0501 0.3892
24.2200 8.0567 0.3916
24.2400 8.0633 0.3934
24.2600 8.0700 0.3925
24.2800 8.0766 0.3916
24.3000 8.0834 0.3938
24.3200 8.0901 0.3860
24.3400 8.0968 0.3916
24.3600 8.1035 0.3974
24.3800 8.1101 0.3856
24.4000 8.1167 0.3893
24.4200 8.1233 0.3965
24.4400 8.1300 0.3898
24.4600 8.1367 0.3935
24.4800 8.1434 0.3927
24.5000 8.1501 0.3861
24.5200 8.1568 0.3921
24.5400 8.1634 0.3922
24.5600 8.1701 0.3869
24.5800 8.1768 0.3888
24.6000 8.1834 0.3910
24.6200 8.1900 0.3892
24.6400 8.1966 0.3856
24.6600 8.2033 0.3934
24.6800 8.2100 0.3888
24.7000 8.2167 0.3842
24.7200 8.2234 0.3959
24.7400 8.2301 0.3841
24.7600 8.2368 0.3824
24.7800 8.2433 0.3958
24.8000 8.2499 0.3892
24.8200 8.2566 0.3831
24.8400 8.2633 0.3927
24.8600 8.2700 0.3893
24.8800 8.2767 0.3847
24.9000 8.2834 0.3949
24.9200 8.2901 0.3892
24.9400 8.2967 0.3865
24.9600 8.3034 0.3907
24.9800 8.3100 0.3841
25.0000 8.3167 0.3899
25.0200 8.3234 0.3869
25.0400 8.3301 0.3855
25.0600 8.3367 0.3859
25.0800 8.3434 0.3874
25.1000 8.3501 0.3837
25.1200 8.3568 0.3835
25.1400 8.3634 0.3866
25.1600 8.3700 0.3880
25.1800 8.3766 0.3822
25.2000 8.3833 0.3793
25.2200 8.3900 0.3905
25.2400 8.3967 0.3833
25.2600 8.4034 0.3780
25.2800 8.4101 0.3893
25.3000 8.4168 0.3783
25.3200 8.4234 0.3808
25.3400 8.4300 0.3886
25.3600 8.4366 0.3805
25.3800 8.4434 0.3834
25.4000 8.4501 0.3864
25.4200 8.4568 0.3820
25.4400 8.4634 0.3772
25.4600 8.4701 0.3910
25.4800 8.4768 0.3791
25.5000 8.4833 0.3766
25.5200 8.4899 0.3900
25.5400 8.4966 0.3778
25.5600 8.5033 0.3811
25.5800 8.5100 0.3894
25.6000 8.5167 0.3728
25.6200 8.5234 0.3795
25.6400 8.5301 0.3828
25.6600 8.5367 0.3788
25.6800 8.5434 0.3782
25.7000 8.5500 0.3866
25.7200 8.5566 0.3754
25.7400 8.5633 0.3770
25.7600 8.5701 0.3849
25.7800 8.5768 0.3739
25.8000 8.5835 0.3850
25.8200 8.5902 0.3806
25.8400 8.5968 0.3688
25.8600 8.6034 0.3828
25.8800 8.6100 0.3829
25.9000 8.6167 0.3762
25.9200 8.6234 0.3773
25.9400 8.6301 0.3800
25.9600 8.6368 0.3709
25.9800 8.6435 0.3788
26.0000 8.6501 0.3799
26.0200 8.6568 0.3735
26.0400 8.6634 0.3815
26.0600 8.6700 0.3761
26.0800 8.6766 0.3755
26.1000 8.6833 0.3793
26.1200 8.6900 0.3769
26.1400 8.6967 0.3696
26.1600 8.7034 0.3798
26.1800 8.7101 0.3785
26.2000 8.7167 0.3679
26.2200 8.7234 0.3787
26.2400 8.7299 0.3794
26.2600 8.7366 0.3698
26.2800 8.7433 0.3771
26.3000 8.7500 0.3762
26.3200 8.7567 0.3714
26.3400 8.7634 0.3754
26.3600 8.7701 0.3745
26.3800 8.7767 0.3720
26.4000 8.7834 0.3755
26.4200 8.7900 0.3795
26.4400 8.7966 0.3769
26.4600 8.8034 0.3752
26.4800 8.8101 0.3715
26.5000 8.8168 0.3711
26.5200 8.8234 0.3793
26.5400 8.8301 0.3700
26.5600 8.8368 0.3748
26.5800 8.8434 0.3761
26.6000 8.8500 0.3758
26.6200 8.8567 0.3690
26.6400 8.8634 0.3721
26.6600 8.8701 0.3791
26.6800 8.8767 0.3664
26.7000 8.8834 0.3717
26.7200 8.8901 0.3768
26.7400 8.8968 0.3676
26.7600 8.9034 0.3674
26.7800 8.9100 0.3789
26.8000 8.9166 0.3742
26.8200 8.9233 0.3695
26.8400 8.9300 0.3756
26.8600 8.9367 0.3728
26.8800 8.9434 0.3695
26.9000 8.9501 0.3785
26.9200 8.9568 0.3647
26.9400 8.9634 0.3676
26.9600 8.9700 0.3767
26.9800 8.9766 0.3690
27.0000 8.9833 0.3705
27.0200 8.9900 0.3781
27.0400 8.9967 0.3657
27.0600 9.0034 0.3757
27.0800 9.0101 0.3777
27.1000 9.0168 0.3637
27.1200 9.0234 0.3695
27.1400 9.0300 0.3807
27.1600 9.0366 0.3638
27.1800 9.0433 0.3729
27.2000 9.0500 0.3775
27.2200 9.0567 0.3692
27.2400 9.0634 0.3644
27.2600 9.0701 0.3719
27.2800 9.0768 0.3706
27.3000 9.0834 0.3662
27.3200 9.0900 0.3697
27.3400 9.0966 0.3721
27.3600 9.1033 0.3662
27.3800 9.1101 0.3657
27.4000 9.1168 0.3727
27.4200 9.1234 0.3636
27.4400 9.1301 0.3659
27.4600 9.1368 0.3693
27.4800 9.1434 0.3634
27.5000 9.1500 0.3690
27.5200 9.1566 0.3693
27.5400 9.1633 0.3637
27.5600 9.1701 0.3683
27.5800 9.1767 0.3659
27.6000 9.1834 0.3625
27.6200 9.1901 0.3670
27.6400 9.1968 0.3668
27.6600 9.2034 0.3551
27.6800 9.2100 0.3685
27.7000 9.2166 0.3709
27.7200 9.2233 0.3571
27.7400 9.2300 0.3678
27.7600 9.2367 0.3667
27.7800 9.2434 0.3578
27.8000 9.2501 0.3639
27.8200 9.2568 0.3622
27.8400 9.2634 0.3625
27.8600 9.2700 0.3622
27.8800 9.2766 0.3634
27.9000 9.2833 0.3570
27.9200 9.2901 0.3647
27.9400 9.2968 0.3608
27.9600 9.3035 0.3590
27.9800 9.3101 0.3649
28.0000 9.3168 0.3630
28.0200 9.3234 0.3550
28.0400 9.3300 0.3640
28.0600 9.3367 0.3657
28.0800 9.3434 0.3576
28.1000 9.3501 0.3590
28.1200 9.3568 0.3631
28.1400 9.3634 0.3592
28.1600 9.3701 0.3650
28.1800 9.3768 0.3602
28.2000 9.3834 0.3520
28.2200 9.3900 0.3668
28.2400 9.3966 0.3596
28.2600 9.4033 0.3573
28.2800 9.4100 0.3628
28.3000 9.4167 0.3552
28.3200 9.4234 0.3563
28.3400 9.4301 0.3647
28.3600 9.4368 0.3553
28.3800 9.4434 0.3636
28.4000 9.4500 0.3603
28.4200 9.4566 0.3505
28.4400 9.4633 0.3604
28.4600 9.4700 0.3631
28.4800 9.4767 0.3483
28.5000 9.4834 0.3639
28.5200 9.4901 0.3611
28.5400 9.4968 0.3473
28.5600 9.5034 0.3596
28.5800 9.5100 0.3609
28.6000 9.5166 0.3501
28.6200 9.5233 0.3586
28.6400 9.5300 0.3596
28.6600 9.5368 0.3517
28.6800 9.5434 0.3581
28.7000 9.5501 0.3607
28.7200 9.5568 0.3533
28.7400 9.5634 0.3578
28.7600 9.5700 0.3559
28.7800 9.5767 0.3544
28.8000 9.5833 0.3554
28.8200 9.5900 0.3577
28.8400 9.5967 0.3545
28.8600 9.6034 0.3594
28.8800 9.6101 0.3581
28.9000 9.6168 0.3552
28.9200 9.6234 0.3581
28.9400 9.6300 0.3587
28.9600 9.6366 0.3527
28.9800 9.6433 0.3571
29.0000 9.6500 0.3534
29.0200 9.6567 0.3537
29.0400 9.6634 0.3591
29.0600 9.6701 0.3497
29.0800 9.6767 0.3593
29.1000 9.6834 0.3585
29.1200 9.6900 0.3495
29.1400 9.6966 0.3536
29.1600 9.7033 0.3590
29.1800 9.7100 0.3513
29.2000 9.7167 0.3535
29.2200 9.7234 0.3523
29.2400 9.7300 0.3519
29.2600 9.7367 0.3596
29.2800 9.7434 0.3514
29.3000 9.7500 0.3481
29.3200 9.7567 0.3588
29.3400 9.7633 0.3524
29.3600 9.7700 0.3500
29.3800 9.7767 0.3538
29.4000 9.7834 0.3552
29.4200 9.7901 0.3481
29.4400 9.7968 0.3562
29.4600 9.8035 0.3499
29.4800 9.8100 0.3505
29.5000 9.8166 0.3582
29.5200 9.8233 0.3465
29.5400 9.8300 0.3531
29.5600 9.8367 0.3579
29.5800 9.8434 0.3488
29.6000 9.8501 0.3463
29.6200 9.8568 0.3614
29.6400 9.8634 0.3509
29.6600 9.8700 0.3429
29.6800 9.8767 0.3610
29.7000 9.8833 0.3549
29.7200 9.8900 0.3425
29.7400 9.8967 0.3535
29.7600 9.9034 0.3543
29.7800 9.9101 0.3492
29.8000 9.9167 0.3561
29.8200 9.9234 0.3473
29.8400 9.9300 0.3415
29.8600 9.9366 0.3653
29.8800 9.9432 0.3440
29.9000 9.9500 0.3430
29.9200 9.9567 0.3583
29.9400 9.9634 0.3442
29.9600 9.9700 0.3493
29.9800 9.9767 0.3585
30.0000 9.9834 0.3423
30.0200 9.9900 0.3493
30.0400 9.9966 0.3574
30.0600 10.0033 0.3456
30.0800 10.0100 0.3483
30.1000 10.0167 0.3510
30.1200 10.0234 0.3505
30.1400 10.0301 0.3551
30.1600 10.0368 0.3434
30.1800 10.0435 0.3452
30.2000 10.0501 0.3540
30.2200 10.0567 0.3466
30.2400 10.0634 0.3480
30.2600 10.0700 0.3537
30.2800 10.0767 0.3512
30.3000 10.0834 0.3502
30.3200 10.0901 0.3401
30.3400 10.0968 0.3449
30.3600 10.1035 0.3610
30.3800 10.1100 0.3372
30.4000 10.1166 0.3453
30.4200 10.1233 0.3632
30.4400 10.1300 0.3392
30.4600 10.1367 0.3518
30.4800 10.1434 0.3534
30.5000 10.1501 0.3336
30.5200 10.1568 0.3560
30.5400 10.1634 0.3525
30.5600 10.1700 0.3282
30.5800 10.1766 0.3552
30.6000 10.1833 0.3559
30.6200 10.1900 0.3308
30.6400 10.1967 0.3565
30.6600 10.2034 0.3454
30.6800 10.2101 0.3369
30.7000 10.2167 0.3522
30.7200 10.2234 0.3399
30.7400 10.2301 0.3410
30.7600 10.2367 0.3501
30.7800 10.2433 0.3364
30.8000 10.2500 0.3444
30.8200 10.2567 0.3511
30.8400 10.2634 0.3363
30.8600 10.2701 0.3427
30.8800 10.2768 0.3452
30.9000 10.2835 0.3369
30.9200 10.2901 0.3468
30.9400 10.2967 0.3426
30.9600 10.3033 0.3421
30.9800 10.3100 0.3457
31.0000 10.3167 0.3357
31.0200 10.3234 0.3457
31.0400 10.3301 0.3476
31.0600 10.3368 0.3309
31.0800 10.3434 0.3480
31.1000 10.3500 0.3419
31.1200 10.3566 0.3309
31.1400 10.3633 0.3504
31.1600 10.3700 0.3404
31.1800 10.3767 0.3325
31.2000 10.3834 0.3490
31.2200 10.3900 0.3382
31.2400 10.3967 0.3318
31.2600 10.4034 0.3517
31.2800 10.4101 0.3319
31.3000 10.4167 0.3330
31.3200 10.4233 0.3527
31.3400 10.4300 0.3338
31.3600 10.4367 0.3297
31.3800 10.4434 0.3452
31.4000 10.4501 0.3337
31.4200 10.4568 0.3385
31.4400 10.4634 0.3420
31.4600 10.4701 0.3309
31.4800 10.4767 0.3372
31.5000 10.4833 0.3475
31.5200 10.4900 0.3312
31.5400 10.4967 0.3369
31.5600 10.5034 0.3426
31.5800 10.5101 0.3297
31.6000 10.5168 0.3401
31.6200 10.5235 0.3399
31.6400 10.5301 0.3313
31.6600 10.5367 0.3315
31.6800 10.5433 0.3396
31.7000 10.5500 0.3365
31.7200 10.5567 0.3352
31.7400 10.5634 0.3357
31.7600 10.5701 0.3332
31.7800 10.5768 0.3415
31.8000 10.5835 0.3328
31.8200 10.5901 0.3334
31.8400 10.5967 0.3366
31.8600 10.6033 0.3360
31.8800 10.6100 0.3395
31.9000 10.6167 0.3309
31.9200 10.6234 0.3339
31.9400 10.6301 0.3395
31.9600 10.6368 0.3350
31.9800 10.6435 0.3307
32.0000 10.6501 0.3327
32.0200 10.6566 0.3365
32.0400 10.6632 0.3319
32.0600 10.6699 0.3364
32.0800 10.6767 0.3313
32.1000 10.6834 0.3351
32.1200 10.6900 0.3347
32.1400 10.6967 0.3252
32.1600 10.7034 0.3361
32.1800 10.7101 0.3345
32.2000 10.7167 0.3282
32.2200 10.7233 0.3343
32.2400 10.7300 0.3347
32.2600 10.7367 0.3258
32.2800 10.7434 0.3310
32.3000 10.7501 0.3329
32.3200 10.7568 0.3268
32.3400 10.7635 0.3328
32.3600 10.7701 0.3290
32.3800 10.7767 0.3335
32.4000 10.7833 0.3366
32.4200 10.7900 0.3249
32.4400 10.7967 0.3338
32.4600 10.8034 0.3276
32.4800 10.8101 0.3288
32.5000 10.8168 0.3374
32.5200 10.8234 0.3265
32.5400 10.8301 0.3254
32.5600 10.8366 0.3353
32.5800 10.8433 0.3273
32.6000 10.8500 0.3287
32.6200 10.8567 0.3356
32.6400 10.8634 0.3208
32.6600 10.8701 0.3309
32.6800 10.8767 0.3314
32.7000 10.8834 0.3203
32.7200 10.8901 0.3325
32.7400 10.8967 0.3312
32.7600 10.9033 0.3202
32.7800 10.9100 0.3328
32.8000 10.9167 0.3269
32.8200 10.9234 0.3219
32.8400 10.9300 0.3308
32.8600 10.9367 0.3293
32.8800 10.9434 0.3225
32.9000 10.9501 0.3302
32.9200 10.9567 0.3189
32.9400 10.9633 0.3294
32.9600 10.9700 0.3298
32.9800 10.9767 0.3219
33.0000 10.9834 0.3255
33.0200 10.9901 0.3260
33.0400 10.9968 0.3240
33.0600 11.0035 0.3226
33.0800 11.0101 0.3221
33.1000 11.0167 0.3250
33.1200 11.0233 0.3275
33.1400 11.0300 0.3226
33.1600 11.0367 0.3214
33.1800 11.0434 0.3233
33.2000 11.0501 0.3247
33.2200 11.0568 0.3223
33.2400 11.0635 0.3194
33.2600 11.0701 0.3222
33.2800 11.0767 0.3276
33.3000 11.0833 0.3148
33.3200 11.0900 0.3198
33.3400 11.0967 0.3240
33.3600 11.1034 0.3209
33.3800 11.1100 0.3215
33.4000 11.1167 0.3235
33.4200 11.1234 0.3158
33.4400 11.1301 0.3222
33.4600 11.1367 0.3225
33.4800 11.1433 0.3155
33.5000 11.1499 0.3269
33.5200 11.1566 0.3194
33.5400 11.1634 0.3134
33.5600 11.1700 0.3283
33.5800 11.1767 0.3183
33.6000 11.1834 0.3148
33.6200 11.1901 0.3201
33.6400 11.1967 0.3204
33.6600 11.2033 0.3176
33.6800 11.2100 0.3225
33.7000 11.2167 0.3170
33.7200 11.2235 0.3168
33.7400 11.2301 0.3201
33.7600 11.2368 0.3143
33.7800 11.2435 0.3163
33.8000 11.2501 0.3202
33.8200 11.2567 0.3137
33.8400 11.2633 0.3196
33.8600 11.2700 0.3176
33.8800 11.2767 0.3152
33.9000 11.2834 0.3147
33.9200 11.2901 0.3174
33.9400 11.2968 0.3174
33.9600 11.3035 0.3099
33.9800 11.3101 0.3190
34.0000 11.3167 0.3142
34.0200 11.3233 0.3157
34.0400 11.3299 0.3202
34.0600 11.3366 0.3170
34.0800 11.3434 0.3125
34.1000 11.3501 0.3145
34.1200 11.3568 0.3177
34.1400 11.3635 0.3105
34.1600 11.3701 0.3191
34.1800 11.3767 0.3132
34.2000 11.3833 0.3107
34.2200 11.3899 0.3224
34.2400 11.3966 0.3109
34.2600 11.4034 0.3133
34.2800 11.4101 0.3167
34.3000 11.4167 0.3135
34.3200 11.4234 0.3127
34.3400 11.4301 0.3164
34.3600 11.4367 0.3128
34.3800 11.4433 0.3098
34.4000 11.4500 0.3149
34.4200 11.4567 0.3128
34.4400 11.4634 0.3127
34.4600 11.4701 0.3149
34.4800 11.4768 0.3089
34.5000 11.4835 0.3109
34.5200 11.4901 0.3132
34.5400 11.4967 0.3109
34.5600 11.5033 0.3103
34.5800 11.5100 0.3165
34.6000 11.5167 0.3125
34.6200 11.5234 0.3093
34.6400 11.5301 0.3134
34.6600 11.5368 0.3091
34.6800 11.5435 0.3077
34.7000 11.5501 0.3128
34.7200 11.5567 0.3105
34.7400 11.5633 0.3037
34.7600 11.5700 0.3124
34.7800 11.5767 0.3124
34.8000 11.5834 0.3046
34.8200 11.5900 0.3109
34.8400 11.5967 0.3090
34.8600 11.6034 0.3054
34.8800 11.6101 0.3092
34.9000 11.6167 0.3062
34.9200 11.6233 0.3071
34.9400 11.6300 0.3104
34.9600 11.6367 0.3105
34.9800 11.6434 0.3026
35.0000 11.6501 0.3133
35.0200 11.6567 0.3086
35.0400 11.6634 0.2985
35.0600 11.6701 0.3118
35.0800 11.6767 0.3150
35.1000 11.6833 0.2997
35.1200 11.6900 0.3061
35.1400 11.6967 0.3121
35.1600 11.7034 0.2993
35.1800 11.7101 0.3045
35.2000 11.7168 0.3144
35.2200 11.7235 0.2943
35.2400 11.7301 0.3041
35.2600 11.7367 0.3116
35.2800 11.7433 0.2963
35.3000 11.7500 0.3072
35.3200 11.7567 0.3121
35.3400 11.7634 0.2940
35.3600 11.7701 0.3070
35.3800 11.7767 0.3103
35.4000 11.7834 0.2955
35.4200 11.7901 0.3034
35.4400 11.7968 0.3063
35.4600 11.8034 0.2990
35.4800 11.8100 0.3051
35.5000 11.8167 0.3047
35.5200 11.8234 0.2968
35.5400 11.8300 0.3077
35.5600 11.8367 0.3054
35.5800 11.8434 0.2962
35.6000 11.8501 0.3079
35.6200 11.8567 0.2993
35.6400 11.8633 0.2958
35.6600 11.8699 0.3124
35.6800 11.8766 0.3023
35.7000 11.8834 0.2957
35.7200 11.8901 0.3061
35.7400 11.8967 0.3031
35.7600 11.9034 0.2905
35.7800 11.9101 0.3152
35.8000 11.9167 0.2997
35.8200 11.9233 0.2896
35.8400 11.9300 0.3113
35.8600 11.9367 0.3016
35.8800 11.9434 0.2889
35.9000 11.9501 0.3118
35.9200 11.9567 0.2992
35.9400 11.9634 0.2903
35.9600 11.9701 0.3060
35.9800 11.9767 0.2959
36.0000 11.9834 0.2987
36.0200 11.9900 0.3040
36.0400 11.9967 0.2910
36.0600 12.0034 0.2988
36.0800 12.0101 0.3033
36.1000 12.0168 0.2954
36.1200 12.0235 0.2971
36.1400 12.0301 0.3006
36.1600 12.0367 0.2973
36.1800 12.0433 0.2947
36.2000 12.0499 0.3065
36.2200 12.0566 0.2958
36.2400 12.0634 0.2907
36.2600 12.0701 0.2994
36.2800 12.0768 0.2950
36.3000 12.0834 0.2934
36.3200 12.0901 0.2973
36.3400 12.0967 0.2935
36.3600 12.1033 0.2977
36.3800 12.1100 0.2966
36.4000 12.1166 0.2921
36.4200 12.1233 0.2920
36.4400 12.1300 0.2975
36.4600 12.1367 0.2893
36.4800 12.1434 0.2949
36.5000 12.1501 0.2984
36.5200 12.1567 0.2834
36.5400 12.1633 0.2909
36.5600 12.1700 0.2977
36.5800 12.1767 0.2845
36.6000 12.1834 0.2935
36.6200 12.1901 0.2907
36.6400 12.1968 0.2812
36.6600 12.2035 0.2920
36.6800 12.2101 0.2924
36.7000 12.2168 0.2806
36.7200 12.2234 0.2936
36.7400 12.2300 0.2902
36.7600 12.2367 0.2847
36.7800 12.2434 0.2922
36.8000 12.2501 0.2872
36.8200 12.2568 0.2859
36.8400 12.2634 0.2903
36.8600 12.2701 0.2846
36.8800 12.2767 0.2811
36.9000 12.2833 0.2904
36.9200 12.2899 0.2830
36.9400 12.2966 0.2846
36.9600 12.3033 0.2898
36.9800 12.3100 0.2806
37.0000 12.3167 0.2826
37.0200 12.3234 0.2888
37.0400 12.3301 0.2795
37.0600 12.3367 0.2826
37.0800 12.3433 0.2856
37.1000 12.3499 0.2841
37.1200 12.3566 0.2771
37.1400 12.3633 0.2856
37.1600 12.3700 0.2810
37.1800 12.3767 0.2817
37.2000 12.3834 0.2822
37.2200 12.3901 0.2811
37.2400 12.3967 0.2795
37.2600 12.4033 0.2824
37.2800 12.4100 0.2808
37.3000 12.4166 0.2824
37.3200 12.4234 0.2791
37.3400 12.4301 0.2796
37.3600 12.4368 0.2777
37.3800 12.4434 0.2779
37.4000 12.4501 0.2747
37.4200 12.4568 0.2814
37.4400 12.4634 0.2772
37.4600 12.4700 0.2791
37.4800 12.4767 0.2804
37.5000 12.4834 0.2781
37.5200 12.4901 0.2783
37.5400 12.4968 0.2758
37.5600 12.5034 0.2772
37.5800 12.5101 0.2772
37.6000 12.5168 0.2784
37.6200 12.5234 0.2728
37.6400 12.5300 0.2778
37.6600 12.5366 0.2766
37.6800 12.5433 0.2725
37.7000 12.5501 0.2759
37.7200 12.5567 0.2739
37.7400 12.5634 0.2766
37.7600 12.5701 0.2741
37.7800 12.5767 0.2713
37.8000 12.5833 0.2742
37.8200 12.5899 0.2761
37.8400 12.5966 0.2764
37.8600 12.6033 0.2713
37.8800 12.6100 0.2736
37.9000 12.6167 0.2695
37.9200 12.6234 0.2722
37.9400 12.6301 0.2734
37.9600 12.6367 0.2737
37.9800 12.6433 0.2727
38.0000 12.6500 0.2720
38.0200 12.6567 0.2740
38.0400 12.6634 0.2742
38.0600 12.6701 0.2709
38.0800 12.6768 0.2704
38.1000 12.6835 0.2713
38.1200 12.6902 0.2727
38.1400 12.6968 0.2699
38.1600 12.7034 0.2706
38.1800 12.7100 0.2723
38.2000 12.7166 0.2706
38.2200 12.7234 0.2654
38.2400 12.7301 0.2701
38.2600 12.7368 0.2708
38.2800 12.7435 0.2692
38.3000 12.7501 0.2655
38.3200 12.7568 0.2714
38.3400 12.7633 0.2710
38.3600 12.7699 0.2659
38.3800 12.7766 0.2710
38.4000 12.7833 0.2713
38.4200 12.7901 0.2660
38.4400 12.7967 0.2677
38.4600 12.8034 0.2714
38.4800 12.8101 0.2642
38.5000 12.8168 0.2687
38.5200 12.8234 0.2652
38.5400 12.8300 0.2678
38.5600 12.8366 0.2661
38.5800 12.8433 0.2683
38.6000 12.8500 0.2671
38.6200 12.8567 0.2641
38.6400 12.8634 0.2719
38.6600 12.8701 0.2689
38.6800 12.8768 0.2576
38.7000 12.8834 0.2731
38.7200 12.8900 0.2672
38.7400 12.8967 0.2668
38.7600 12.9034 0.2670
38.7800 12.9101 0.2706
38.8000 12.9168 0.2674
38.8200 12.9235 0.2627
38.8400 12.9301 0.2693
38.8600 12.9368 0.2651
38.8800 12.9433 0.2682
38.9000 12.9500 0.2682
38.9200 12.9566 0.2640
38.9400 12.9634 0.2742
38.9600 12.9701 0.2629
38.9800 12.9768 0.2616
39.0000 12.9835 0.2733
39.0200 12.9901 0.2690
39.0400 12.9968 0.2673
39.0600 13.0034 0.2701
39.0800 13.0100 0.2678
39.1000 13.0166 0.2612
39.1200 13.0233 0.2698
39.1400 13.0300 0.2675
39.1600 13.0367 0.2660
39.1800 13.0434 0.2663
39.2000 13.0501 0.2673
39.2200 13.0568 0.2652
39.2400 13.0634 0.2643
39.2600 13.0700 0.2708
39.2800 13.0766 0.2650
39.3000 13.0833 0.2626
39.3200 13.0900 0.2652
39.3400 13.0967 0.2633
39.3600 13.1034 0.2688
39.3800 13.1101 0.2603
39.4000 13.1167 0.2639
39.4200 13.1234 0.2718
39.4400 13.1300 0.2652
39.4600 13.1367 0.2597
39.4800 13.1434 0.2707
39.5000 13.1501 0.2664
39.5200 13.1568 0.2590
39.5400 13.1634 0.2672
39.5600 13.1701 0.2668
39.5800 13.1768 0.2612
39.6000 13.1834 0.2691
39.6200 13.1900 0.2612
39.6400 13.1966 0.2613
39.6600 13.2033 0.2685
39.6800 13.2101 0.2614
39.7000 13.2167 0.2606
39.7200 13.2234 0.2604
39.7400 13.2301 0.2593
39.7600 13.2368 0.2638
39.7800 13.2434 0.2588
39.8000 13.2500 0.2581
39.8200 13.2566 0.2643
39.8400 13.2633 0.2633
39.8600 13.2701 0.2576
39.8800 13.2768 0.2591
39.9000 13.2835 0.2615
39.9200 13.2901 0.2589
39.9400 13.2968 0.2552
39.9600 13.3034 0.2585
39.9800 13.3100 0.2612
40.0000 13.3166 0.2545
40.0200 13.3233 0.2577
40.0400 13.3300 0.2574
40.0600 13.3367 0.2573
40.0800 13.3434 0.2590
40.1000 13.3500 0.2593
40.1200 13.3567 0.2514
40.1400 13.3634 0.2619
40.1600 13.3700 0.2578
40.1800 13.3766 0.2482
40.2000 13.3833 0.2571
40.2200 13.3900 0.2596
40.2400 13.3967 0.2499
40.2600 13.4034 0.2561
40.2800 13.4102 0.2583
40.3000 13.4169 0.2536
40.3200 13.4235 0.2570
40.3400 13.4300 0.2540
40.3600 13.4367 0.2553
40.3800 13.4434 0.2566
40.4000 13.4501 0.2514
40.4200 13.4568 0.2573
40.4400 13.4634 0.2523
40.4600 13.4701 0.2486
40.4800 13.4768 0.2583
40.5000 13.4834 0.2499
40.5200 13.4900 0.2529
40.5400 13.4966 0.2621
40.5600 13.5033 0.2469
40.5800 13.5100 0.2524
40.6000 13.5167 0.2606
40.6200 13.5234 0.2473
40.6400 13.5301 0.2554
40.6600 13.5368 0.2571
40.6800 13.5434 0.2473
40.7000 13.5500 0.2555
40.7200 13.5566 0.2576
40.7400 13.5633 0.2417
40.7600 13.5700 0.2623
40.7800 13.5767 0.2538
40.8000 13.5834 0.2413
40.8200 13.5901 0.2589
40.8400 13.5967 0.2569
40.8600 13.6034 0.2427
40.8800 13.6100 0.2585
40.9000 13.6166 0.2553
40.9200 13.6233 0.2449
40.9400 13.6301 0.2561
40.9600 13.6368 0.2506
40.9800 13.6434 0.2436
41.0000 13.6501 0.2561
41.0200 13.6568 0.2462
41.0400 13.6634 0.2449
41.0600 13.6700 0.2520
41.0800 13.6767 0.2517
41.1000 13.6834 0.2492
41.1200 13.6901 0.2506
41.1400 13.6968 0.2504
41.1600 13.7034 0.2486
41.1800 13.7101 0.2525
41.2000 13.7168 0.2449
41.2200 13.7234 0.2510
41.2400 13.7300 0.2451
41.2600 13.7366 0.2463
41.2800 13.7433 0.2543
41.3000 13.7500 0.2488
41.3200 13.7567 0.2461
41.3400 13.7634 0.2450
41.3600 13.7701 0.2471
41.3800 13.7768 0.2442
41.4000 13.7834 0.2460
41.4200 13.7900 0.2453
41.4400 13.7966 0.2461
41.4600 13.8033 0.2445
41.4800 13.8100 0.2459
41.5000 13.8167 0.2430
41.5200 13.8234 0.2381
41.5400 13.8301 0.2448
41.5600 13.8368 0.2445
41.5800 13.8434 0.2423
41.6000 13.8500 0.2445
41.6200 13.8567 0.2414
41.6400 13.8633 0.2436
41.6600 13.8700 0.2511
41.6800 13.8767 0.2340
41.7000 13.8834 0.2420
41.7200 13.8901 0.2497
41.7400 13.8968 0.2378
41.7600 13.9034 0.2405
41.7800 13.9100 0.2458
41.8000 13.9166 0.2412
41.8200 13.9233 0.2476
41.8400 13.9300 0.2372
41.8600 13.9368 0.2308
41.8800 13.9434 0.2456
41.9000 13.9501 0.2433
41.9200 13.9568 0.2346
41.9400 13.9634 0.2367
41.9600 13.9700 0.2425
41.9800 13.9766 0.2400
42.0000 13.9833 0.2335
42.0200 13.9900 0.2351
42.0400 13.9967 0.2402
42.0600 14.0034 0.2389
42.0800 14.0101 0.2414
42.1000 14.0168 0.2304
42.1200 14.0234 0.2399
42.1400 14.0300 0.2432
42.1600 14.0366 0.2293
42.1800 14.0433 0.2400
42.2000 14.0500 0.2376
42.2200 14.0567 0.2306
42.2400 14.0634 0.2370
42.2600 14.0701 0.2338
42.2800 14.0768 0.2299
42.3000 14.0834 0.2379
42.3200 14.0900 0.2341
42.3400 14.0966 0.2298
42.3600 14.1033 0.2392
42.3800 14.1100 0.2359
42.4000 14.1167 0.2318
42.4200 14.1234 0.2319
42.4400 14.1301 0.2337
42.4600 14.1368 0.2335
42.4800 14.1435 0.2313
42.5000 14.1500 0.2349
42.5200 14.1567 0.2363
42.5400 14.1634 0.2325
42.5600 14.1701 0.2279
42.5800 14.1768 0.2322
42.6000 14.1834 0.2359
42.6200 14.1901 0.2303
42.6400 14.1968 0.2336
42.6600 14.2034 0.2299
42.6800 14.2100 0.2284
42.7000 14.2166 0.2377
42.7200 14.2233 0.2278
42.7400 14.2300 0.2270
42.7600 14.2367 0.2325
42.7800 14.2434 0.2288
42.8000 14.2501 0.2268
42.8200 14.2568 0.2328
42.8400 14.2634 0.2277
42.8600 14.2700 0.2279
42.8800 14.2766 0.2300
42.9000 14.2833 0.2297
42.9200 14.2900 0.2288
42.9400 14.2967 0.2298
42.9600 14.3034 0.2268
42.9800 14.3101 0.2262
43.0000 14.3168 0.2270
43.0200 14.3234 0.2310
43.0400 14.3300 0.2281
43.0600 14.3367 0.2278
43.0800 14.3433 0.2268
43.1000 14.3501 0.2300
43.1200 14.3567 0.2283
43.1400 14.3634 0.2276
43.1600 14.3701 0.2280
43.1800 14.3768 0.2312
43.2000 14.3835 0.2236
43.2200 14.3901 0.2264
43.2400 14.3967 0.2296
43.2600 14.4033 0.2252
43.2800 14.4100 0.2271
43.3000 14.4167 0.2291
43.3200 14.4234 0.2250
43.3400 14.4301 0.2235
43.3600 14.4368 0.2314
43.3800 14.4435 0.2226
43.4000 14.4500 0.2252
43.4200 14.4566 0.2330
43.4400 14.4633 0.2215
43.4600 14.4700 0.2253
43.4800 14.4767 0.2280
43.5000 14.4834 0.2203
43.5200 14.4901 0.2285
43.5400 14.4967 0.2233
43.5600 14.5034 0.2204
43.5800 14.5100 0.2226
43.6000 14.5166 0.2302
43.6200 14.5233 0.2230
43.6400 14.5300 0.2248
43.6600 14.5367 0.2271
43.6800 14.5434 0.2173
43.7000 14.5500 0.2241
43.7200 14.5567 0.2279
43.7400 14.5634 0.2211
43.7600 14.5700 0.2226
43.7800 14.5767 0.2250
43.8000 14.5833 0.2217
43.8200 14.5900 0.2209
43.8400 14.5967 0.2301
43.8600 14.6034 0.2184
43.8800 14.6101 0.2203
43.9000 14.6168 0.2287
43.9200 14.6235 0.2188
43.9400 14.6300 0.2162
43.9600 14.6366 0.2315
43.9800 14.6433 0.2176
44.0000 14.6500 0.2165
44.0200 14.6567 0.2301
44.0400 14.6634 0.2124
44.0600 14.6701 0.2164
44.0800 14.6768 0.2323
44.1000 14.6834 0.2137
44.1200 14.6900 0.2176
44.1400 14.6967 0.2284
44.1600 14.7033 0.2137
44.1800 14.7100 0.2205
44.2000 14.7167 0.2253
44.2200 14.7234 0.2118
44.2400 14.7301 0.2219
44.2600 14.7368 0.2258
44.2800 14.7434 0.2072
44.3000 14.7500 0.2207
44.3200 14.7566 0.2262
44.3400 14.7633 0.2122
44.3600 14.7700 0.2224
44.3800 14.7767 0.2217
44.4000 14.7834 0.2109
44.4200 14.7900 0.2239
44.4400 14.7967 0.2148
44.4600 14.8034 0.2102
44.4800 14.8100 0.2215
44.5000 14.8166 0.2186
44.5200 14.8233 0.2132
44.5400 14.8300 0.2188
44.5600 14.8367 0.2094
44.5800 14.8434 0.2180
44.6000 14.8501 0.2194
44.6200 14.8568 0.2127
44.6400 14.8635 0.2148
44.6600 14.8701 0.2191
44.6800 14.8767 0.2121
44.7000 14.8834 0.2167
44.7200 14.8901 0.2177
44.7400 14.8967 0.2112
44.7600 14.9034 0.2186
44.7800 14.9101 0.2212
44.8000 14.9168 0.2060
44.8200 14.9235 0.2173
44.8400 14.9301 0.2178
44.8600 14.9367 0.2105
44.8800 14.9433 0.2187
44.9000 14.9500 0.2149
44.9200 14.9567 0.2093
44.9400 14.9634 0.2153
44.9600 14.9700 0.2158
44.9800 14.9767 0.2124
45.0000 14.9834 0.2144
45.0200 14.9900 0.2123
45.0400 14.9966 0.2133
45.0600 15.0033 0.2124
45.0800 15.0100 0.2164
45.1000 15.0167 0.2104
45.1200 15.0234 0.2091
45.1400 15.0300 0.2193
45.1600 15.0367 0.2098
45.1800 15.0434 0.2084
45.2000 15.0501 0.2161
45.2200 15.0567 0.2056
45.2400 15.0634 0.2096
45.2600 15.0701 0.2137
45.2800 15.0767 0.2077
45.3000 15.0834 0.2109
45.3200 15.0901 0.2129
45.3400 15.0968 0.2025
45.3600 15.1035 0.2114
45.3800 15.1101 0.2129
45.4000 15.1167 0.2007
45.4200 15.1233 0.2126
45.4400 15.1300 0.2120
45.4600 15.1367 0.1954
45.4800 15.1434 0.2153
45.5000 15.1501 0.2063
45.5200 15.1568 0.1961
45.5400 15.1634 0.2134
45.5600 15.1700 0.2063
45.5800 15.1767 0.1998
45.6000 15.1833 0.2123
45.6200 15.1900 0.2049
45.6400 15.1967 0.2047
45.6600 15.2034 0.2064
45.6800 15.2101 0.2019
45.7000 15.2167 0.2041
45.7200 15.2234 0.2083
45.7400 15.2301 0.2042
45.7600 15.2367 0.2030
45.7800 15.2433 0.2053
45.8000 15.2500 0.2009
45.8200 15.2567 0.2014
45.8400 15.2634 0.2038
45.8600 15.2700 0.2043
45.8800 15.2767 0.2003
45.9000 15.2834 0.1983
45.9200 15.2901 0.2004
45.9400 15.2967 0.2067
45.9600 15.3033 0.2017
45.9800 15.3100 0.1991
46.0000 15.3167 0.2009
46.0200 15.3234 0.2006
46.0400 15.3301 0.1995
46.0600 15.3368 0.2017
46.0800 15.3435 0.1951
46.1000 15.3501 0.2030
46.1200 15.3567 0.1982
46.1400 15.3633 0.1978
46.1600 15.3700 0.2068
46.1800 15.3767 0.1954
46.2000 15.3834 0.1909
46.2200 15.3901 0.2054
46.2400 15.3968 0.1980
46.2600 15.4035 0.1904
46.2800 15.4101 0.1998
46.3000 15.4167 0.1939
46.3200 15.4233 0.1958
46.3400 15.4300 0.2014
46.3600 15.4367 0.1924
46.3800 15.4434 0.1920
46.4000 15.4501 0.2013
46.4200 15.4568 0.1902
46.4400 15.4634 0.1939
46.4600 15.4701 0.1984
46.4800 15.4767 0.1906
46.5000 15.4832 0.1973
46.5200 15.4899 0.2004
46.5400 15.4967 0.1886
46.5600 15.5034 0.1974
46.5800 15.5100 0.1943
46.6000 15.5167 0.1921
46.6200 15.5234 0.2006
46.6400 15.5301 0.1882
46.6600 15.5367 0.1838
46.6800 15.5433 0.2012
46.7000 15.5500 0.1899
46.7200 15.5567 0.1937
46.7400 15.5634 0.1955
46.7600 15.5701 0.1890
46.7800 15.5768 0.1912
46.8000 15.5835 0.1925
46.8200 15.5901 0.1900
46.8400 15.5967 0.1901
46.8600 15.6033 0.1959
46.8800 15.6100 0.1861
46.9000 15.6167 0.1875
46.9200 15.6235 0.1961
46.9400 15.6301 0.1823
46.9600 15.6368 0.1911
46.9800 15.6434 0.1910
47.0000 15.6501 0.1848
47.0200 15.6567 0.1897
47.0400 15.6633 0.1918
47.0600 15.6700 0.1836
47.0800 15.6767 0.1900
47.1000 15.6834 0.1911
47.1200 15.6901 0.1829
47.1400 15.6967 0.1925
47.1600 15.7034 0.1837
47.1800 15.7101 0.1827
47.2000 15.7167 0.1883
47.2200 15.7233 0.1836
47.2400 15.7300 0.1881
47.2600 15.7367 0.1880
47.2800 15.7434 0.1773
47.3000 15.7500 0.1885
47.3200 15.7567 0.1843
47.3400 15.7634 0.1815
47.3600 15.7701 0.1822
47.3800 15.7767 0.1839
47.4000 15.7833 0.1783
47.4200 15.7900 0.1915
47.4400 15.7967 0.1827
47.4600 15.8034 0.1765
47.4800 15.8101 0.1881
47.5000 15.8168 0.1818
47.5200 15.8234 0.1761
47.5400 15.8301 0.1878
47.5600 15.8367 0.1789
47.5800 15.8433 0.1790
47.6000 15.8500 0.1851
47.6200 15.8567 0.1794
47.6400 15.8634 0.1776
47.6600 15.8701 0.1826
47.6800 15.8768 0.1788
47.7000 15.8835 0.1839
47.7200 15.8901 0.1859
47.7400 15.8967 0.1770
47.7600 15.9033 0.1794
47.7800 15.9100 0.1847
47.8000 15.9167 0.1778
47.8200 15.9234 0.1792
47.8400 15.9301 0.1830
47.8600 15.9367 0.1732
47.8800 15.9434 0.1789
47.9000 15.9501 0.1849
47.9200 15.9567 0.1752
47.9400 15.9633 0.1782
47.9600 15.9699 0.1834
47.9800 15.9766 0.1751
48.0000 15.9834 0.1796
48.0200 15.9900 0.1810
48.0400 15.9967 0.1758
48.0600 16.0034 0.1787
48.0800 16.0101 0.1815
48.1000 16.0167 0.1724
48.1200 16.0233 0.1806
48.1400 16.0300 0.1837
48.1600 16.0367 0.1717
48.1800 16.0434 0.1725
48.2000 16.0501 0.1839
48.2200 16.0568 0.1717
48.2400 16.0635 0.1764
48.2600 16.0701 0.1808
48.2800 16.0767 0.1709
48.3000 16.0833 0.1751
48.3200 16.0900 0.1805
48.3400 16.0967 0.1698
48.3600 16.1034 0.1763
48.3800 16.1101 0.1766
48.4000 16.1168 0.1711
48.4200 16.1235 0.1753
48.4400 16.1301 0.1772
48.4600 16.1367 0.1671
48.4800 16.1433 0.1759
48.5000 16.1499 0.1778
48.5200 16.1566 0.1698
48.5400 16.1634 0.1798
48.5600 16.1700 0.1701
48.5800 16.1767 0.1662
48.6000 16.1834 0.1810
48.6200 16.1901 0.1639
48.6400 16.1967 0.1654
48.6600 16.2033 0.1837
48.6800 16.2099 0.1652
48.7000 16.2166 0.1687
48.7200 16.2234 0.1781
48.7400 16.2301 0.1628
48.7600 16.2367 0.1713
48.7800 16.2434 0.1743
48.8000 16.2501 0.1616
48.8200 16.2567 0.1734
48.8400 16.2633 0.1675
48.8600 16.2700 0.1629
48.8800 16.2767 0.1715
48.9000 16.2834 0.1698
48.9200 16.2901 0.1648
48.9400 16.2968 0.1720
48.9600 16.3035 0.1646
48.9800 16.3101 0.1674
49.0000 16.3167 0.1674
49.0200 16.3233 0.1641
49.0400 16.3300 0.1670
49.0600 16.3367 0.1692
49.0800 16.3434 0.1609
49.1000 16.3501 0.1673
49.1200 16.3568 0.1650
49.1400 16.3634 0.1604
49.1600 16.3701 0.1692
49.1800 16.3767 0.1629
49.2000 16.3833 0.1643
49.2200 16.3900 0.1676
49.2400 16.3967 0.1555
49.2600 16.4034 0.1645
49.2800 16.4100 0.1660
49.3000 16.4167 0.1572
49.3200 16.4234 0.1682
49.3400 16.4301 0.1593
49.3600 16.4367 0.1570
49.3800 16.4433 0.1666
49.4000 16.4499 0.1662
49.4200 16.4566 0.1574
49.4400 16.4633 0.1632
49.4600 16.4700 0.1602
49.4800 16.4767 0.1585
49.5000 16.4834 0.1641
49.5200 16.4901 0.1638
49.5400 16.4968 0.1551
49.5600 16.5033 0.1627
49.5800 16.5100 0.1584
49.6000 16.5167 0.1587
49.6200 16.5234 0.1579
49.6400 16.5301 0.1555
49.6600 16.5368 0.1580
49.6800 16.5434 0.1584
49.7000 16.5501 0.1539
49.7200 16.5567 0.1588
49.7400 16.5633 0.1549
49.7600 16.5700 0.1550
49.7800 16.5767 0.1606
49.8000 16.5834 0.1538
49.8200 16.5901 0.1546
49.8400 16.5968 0.1637
49.8600 16.6034 0.1484
49.8800 16.6101 0.1556
49.9000 16.6168 0.1590
49.9200 16.6234 0.1489
49.9400 16.6300 0.1611
49.9600 16.6367 0.1506
49.9800 16.6434 0.1498
50.0000 16.6501 0.1638
50.0200 16.6567 0.1474
50.0400 16.6634 0.1481
50.0600 16.6701 0.1613
50.0800 16.6767 0.1436
50.1000 16.6833 0.1519
50.1200 16.6899 0.1606
50.1400 16.6966 0.1444
50.1600 16.7033 0.1538
50.1800 16.7101 0.1596
50.2000 16.7167 0.1393
50.2200 16.7234 0.1578
50.2400 16.7301 0.1539
50.2600 16.7367 0.1424
50.2800 16.7433 0.1604
50.3000 16.7500 0.1547
50.3200 16.7566 0.1419
50.3400 16.7634 0.1603
50.3600 16.7701 0.1475
50.3800 16.7767 0.1432
50.4000 16.7834 0.1566
50.4200 16.7901 0.1433
50.4400 16.7968 0.1471
50.4600 16.8034 0.1606
50.4800 16.8100 0.1410
50.5000 16.8167 0.1469
50.5200 16.8234 0.1570
50.5400 16.8301 0.1380
50.5600 16.8368 0.1482
50.5800 16.8435 0.1571
50.6000 16.8501 0.1382
50.6200 16.8568 0.1465
50.6400 16.8633 0.1495
50.6600 16.8700 0.1420
50.6800 16.8767 0.1480
50.7000 16.8834 0.1457
50.7200 16.8901 0.1420
50.7400 16.8968 0.1496
50.7600 16.9034 0.1376
50.7800 16.9101 0.1443
50.8000 16.9167 0.1500
50.8200 16.9233 0.1383
50.8400 16.9300 0.1480
50.8600 16.9366 0.1485
50.8800 16.9433 0.1378
50.9000 16.9500 0.1437
50.9200 16.9567 0.1445
50.9400 16.9634 0.1397
50.9600 16.9701 0.1488
50.9800 16.9767 0.1394
51.0000 16.9833 0.1401
51.0200 16.9900 0.1442
51.0400 16.9966 0.1413
51.0600 17.0034 0.1408
51.0800 17.0101 0.1471
51.1000 17.0168 0.1367
51.1200 17.0235 0.1412
51.1400 17.0301 0.1444
51.1600 17.0368 0.1340
51.1800 17.0434 0.1437
51.2000 17.0500 0.1451
51.2200 17.0567 0.1351
51.2400 17.0634 0.1391
51.2600 17.0701 0.1362
51.2800 17.0767 0.1383
51.3000 17.0834 0.1394
51.3200 17.0901 0.1338
51.3400 17.0968 0.1371
51.3600 17.1034 0.1396
51.3800 17.1100 0.1335
51.4000 17.1166 0.1402
51.4200 17.1233 0.1390
51.4400 17.1300 0.1329
51.4600 17.1367 0.1390
51.4800 17.1434 0.1331
51.5000 17.1501 0.1387
51.5200 17.1567 0.1346
51.5400 17.1633 0.1315
51.5600 17.1699 0.1402
51.5800 17.1766 0.1382
51.6000 17.1833 0.1333
51.6200 17.1901 0.1332
51.6400 17.1968 0.1338
51.6600 17.2034 0.1304
51.6800 17.2101 0.1330
51.7000 17.2168 0.1337
51.7200 17.2233 0.1320
51.7400 17.2300 0.1389
51.7600 17.2366 0.1276
51.7800 17.2434 0.1343
51.8000 17.2500 0.1356
51.8200 17.2567 0.1294
51.8400 17.2634 0.1319
51.8600 17.2701 0.1313
51.8800 17.2768 0.1284
51.9000 17.2834 0.1334
51.9200 17.2900 0.1298
51.9400 17.2966 0.1287
51.9600 17.3033 0.1299
51.9800 17.3100 0.1300
52.0000 17.3167 0.1314
52.0200 17.3234 0.1277
52.0400 17.3301 0.1239
52.0600 17.3368 0.1325
52.0800 17.3434 0.1271
52.1000 17.3500 0.1282
52.1200 17.3567 0.1300
52.1400 17.3634 0.1247
52.1600 17.3701 0.1274
52.1800 17.3767 0.1287
52.2000 17.3834 0.1243
52.2200 17.3901 0.1251
52.2400 17.3967 0.1272
52.2600 17.4033 0.1246
52.2800 17.4099 0.1268
52.3000 17.4166 0.1316
52.3200 17.4233 0.1264
52.3400 17.4300 0.1242
52.3600 17.4367 0.1285
52.3800 17.4434 0.1225
52.4000 17.4501 0.1262
52.4200 17.4567 0.1245
52.4400 17.4634 0.1214
52.4600 17.4700 0.1238
52.4800 17.4766 0.1265
52.5000 17.4834 0.1192
52.5200 17.4901 0.1246
52.5400 17.4968 0.1240
52.5600 17.5034 0.1251
52.5800 17.5101 0.1234
52.6000 17.5168 0.1183
52.6200 17.5234 0.1205
52.6400 17.5300 0.1268
52.6600 17.5366 0.1218
52.6800 17.5434 0.1213
52.7000 17.5501 0.1215
52.7200 17.5568 0.1221
52.7400 17.5635 0.1238
52.7600 17.5701 0.1263
52.7800 17.5768 0.1218
52.8000 17.5834 0.1201
52.8200 17.5900 0.1219
52.8400 17.5966 0.1257
52.8600 17.6033 0.1239
52.8800 17.6101 0.1191
52.9000 17.6168 0.1197
52.9200 17.6234 0.1211
52.9400 17.6301 0.1194
52.9600 17.6368 0.1202
52.9800 17.6434 0.1180
53.0000 17.6500 0.1180
53.0200 17.6566 0.1240
53.0400 17.6633 0.1218
53.0600 17.6700 0.1202
53.0800 17.6767 0.1224
53.1000 17.6834 0.1194
53.1200 17.6901 0.1165
53.1400 17.6967 0.1240
53.1600 17.7034 0.1155
53.1800 17.7100 0.1182
53.2000 17.7166 0.1193
53.2200 17.7234 0.1161
53.2400 17.7301 0.1200
53.2600 17.7368 0.1185
53.2800 17.7434 0.1131
53.3000 17.7501 0.1177
53.3200 17.7568 0.1103
53.3400 17.7634 0.1179
53.3600 17.7700 0.1162
53.3800 17.7766 0.1179
53.4000 17.7834 0.1143
53.4200 17.7901 0.1126
53.4400 17.7968 0.1141
53.4600 17.8035 0.1128
53.4800 17.8101 0.1148
53.5000 17.8168 0.1119
53.5200 17.8234 0.1152
53.5400 17.8300 0.1161
53.5600 17.8366 0.1140
53.5800 17.8433 0.1129
53.6000 17.8500 0.1116
53.6200 17.8567 0.1123
53.6400 17.8634 0.1138
53.6600 17.8701 0.1140
53.6800 17.8767 0.1077
53.7000 17.8834 0.1123
53.7200 17.8900 0.1157
53.7400 17.8966 0.1077
53.7600 17.9033 0.1074
53.7800 17.9100 0.1129
53.8000 17.9167 0.1151
53.8200 17.9234 0.1069
53.8400 17.9301 0.1122
53.8600 17.9368 0.1110
53.8800 17.9434 0.1104
53.9000 17.9500 0.1061
53.9200 17.9566 0.1107
53.9400 17.9633 0.1109
53.9600 17.9700 0.1075
53.9800 17.9767 0.1051
54.0000 17.9834 0.1087
54.0200 17.9901 0.1067
54.0400 17.9968 0.1068
54.0600 18.0034 0.1005
54.0800 18.0100 0.1049
54.1000 18.0166 0.1079
54.1200 18.0233 0.1013
54.1400 18.0300 0.1033
54.1600 18.0367 0.1052
54.1800 18.0434 0.1010
54.2000 18.0501 0.1056
54.2200 18.0568 0.0994
54.2400 18.0634 0.0983
54.2600 18.0700 0.1044
54.2800 18.0767 0.1050
54.3000 18.0834 0.0973
54.3200 18.0901 0.0998
54.3400 18.0968 0.1014
54.3600 18.1034 0.0964
54.3800 18.1101 0.0984
54.4000 18.1168 0.0991
54.4200 18.1234 0.1002
54.4400 18.1300 0.0991
54.4600 18.1366 0.0957
54.4800 18.1433 0.0961
54.5000 18.1500 0.0976
54.5200 18.1567 0.0948
54.5400 18.1634 0.0961
54.5600 18.1701 0.0947
54.5800 18.1767 0.0950
54.6000 18.1834 0.0941
54.6200 18.1900 0.0929
54.6400 18.1966 0.0980
54.6600 18.2033 0.0956
54.6800 18.2100 0.0924
54.7000 18.2167 0.0965
54.7200 18.2235 0.0934
54.7400 18.2302 0.0898
54.7600 18.2368 0.0966
54.7800 18.2434 0.0944
54.8000 18.2500 0.0886
54.8200 18.2567 0.0990
54.8400 18.2634 0.0916
54.8600 18.2701 0.0878
54.8800 18.2768 0.0924
54.9000 18.2835 0.0898
54.9200 18.2901 0.0888
54.9400 18.2968 0.0939
54.9600 18.3034 0.0900
54.9800 18.3100 0.0850
55.0000 18.3166 0.0993
55.0200 18.3233 0.0887
55.0400 18.3300 0.0839
55.0600 18.3367 0.0989
55.0800 18.3434 0.0867
55.1000 18.3501 0.0813
55.1200 18.3568 0.0925
55.1400 18.3634 0.0852
55.1600 18.3700 0.0838
55.1800 18.3766 0.0918
55.2000 18.3833 0.0896
55.2200 18.3900 0.0808
55.2400 18.3967 0.0858
55.2600 18.4034 0.0874
55.2800 18.4100 0.0857
55.3000 18.4167 0.0851
55.3200 18.4234 0.0838
55.3400 18.4300 0.0827
55.3600 18.4366 0.0828
55.3800 18.4433 0.0854
55.4000 18.4501 0.0808
55.4200 18.4568 0.0808
55.4400 18.4634 0.0877
55.4600 18.4701 0.0800
55.4800 18.4768 0.0838
55.5000 18.4834 0.0784
55.5200 18.4901 0.0751
55.5400 18.4967 0.0884
55.5600 18.5034 0.0799
55.5800 18.5101 0.0753
55.6000 18.5167 0.0825
55.6200 18.5234 0.0753
55.6400 18.5301 0.0730
55.6600 18.5368 0.0821
55.6800 18.5435 0.0757
55.7000 18.5500 0.0735
55.7200 18.5566 0.0803
55.7400 18.5633 0.0672
55.7600 18.5700 0.0766
55.7800 18.5767 0.0822
55.8000 18.5834 0.0666
55.8200 18.5901 0.0747
55.8400 18.5968 0.0728
55.8600 18.6034 0.0693
55.8800 18.6100 0.0765
55.9000 18.6166 0.0655
55.9200 18.6233 0.0683
55.9400 18.6300 0.0787
55.9600 18.6367 0.0657
55.9800 18.6434 0.0683
56.0000 18.6501 0.0736
56.0200 18.6568 0.0622
56.0400 18.6634 0.0669
56.0600 18.6700 0.0727
56.0800 18.6767 0.0686
56.1000 18.6833 0.0667
56.1200 18.6900 0.0618
56.1400 18.6967 0.0670
56.1600 18.7034 0.0764
56.1800 18.7101 0.0691
56.2000 18.7168 0.0577
56.2200 18.7234 0.0657
56.2400 18.7300 0.0679
56.2600 18.7366 0.0659
56.2800 18.7433 0.0677
56.3000 18.7500 0.0679
56.3200 18.7568 0.0629
56.3400 18.7634 0.0662
56.3600 18.7701 0.0653
56.3800 18.7768 0.0628
56.4000 18.7834 0.0617
56.4200 18.7900 0.0636
56.4400 18.7967 0.0658
56.4600 18.8033 0.0653
56.4800 18.8100 0.0640
56.5000 18.8167 0.0589
56.5200 18.8234 0.0642
56.5400 18.8301 0.0698
56.5600 18.8367 0.0567
56.5800 18.8434 0.0607
56.6000 18.8500 0.0596
56.6200 18.8566 0.0603
56.6400 18.8632 0.0643
56.6600 18.8700 0.0653
56.6800 18.8767 0.0617
56.7000 18.8834 0.0583
56.7200 18.8901 0.0612
56.7400 18.8968 0.0593
56.7600 18.9034 0.0590
56.7800 18.9100 0.0614
56.8000 18.9167 0.0633
56.8200 18.9233 0.0587
56.8400 18.9300 0.0573
56.8600 18.9368 0.0551
56.8800 18.9435 0.0587
56.9000 18.9501 0.0636
56.9200 18.9568 0.0575
56.9400 18.9634 0.0520
56.9600 18.9701 0.0572
56.9800 18.9767 0.0605
57.0000 18.9833 0.0584
57.0200 18.9900 0.0585
57.0400 18.9968 0.0581
57.0600 19.0034 0.0499
57.0800 19.0101 0.0574
57.1000 19.0168 0.0625
57.1200 19.0234 0.0476
57.1400 19.0300 0.0568
57.1600 19.0366 0.0628
57.1800 19.0433 0.0429
57.2000 19.0500 0.0615
57.2200 19.0567 0.0563
57.2400 19.0634 0.0359
57.2600 19.0701 0.0669
57.2800 19.0768 0.0578
57.3000 19.0834 0.0332
57.3200 19.0900 0.0624
57.3400 19.0966 0.0528
57.3600 19.1033 0.0445
57.3800 19.1100 0.0613
57.4000 19.1167 0.0426
57.4200 19.1234 0.0426
57.4400 19.1301 0.0545
57.4600 19.1367 0.0448
57.4800 19.1434 0.0443
57.5000 19.1500 0.0557
57.5200 19.1567 0.0402
57.5400 19.1633 0.0452
57.5600 19.1700 0.0514
57.5800 19.1767 0.0418
57.6000 19.1834 0.0449
57.6200 19.1901 0.0472
57.6400 19.1968 0.0365
57.6600 19.2035 0.0469
57.6800 19.2101 0.0480
57.7000 19.2167 0.0372
57.7200 19.2233 0.0402
57.7400 19.2300 0.0460
57.7600 19.2367 0.0378
57.7800 19.2434 0.0400
57.8000 19.2501 0.0484
57.8200 19.2568 0.0387
57.8400 19.2635 0.0342
57.8600 19.2701 0.0457
57.8800 19.2767 0.0380
57.9000 19.2833 0.0416
57.9200 19.2900 0.0469
57.9400 19.2967 0.0304
57.9600 19.3034 0.0312
57.9800 19.3101 0.0407
58.0000 19.3167 0.0461
58.0200 19.3234 0.0296
58.0400 19.3300 0.0310
58.0600 19.3366 0.0327
58.0800 19.3433 0.0322
58.1000 19.3500 0.0467
58.1200 19.3567 0.0377
58.1400 19.3634 0.0197
58.1600 19.3700 0.0353
58.1800 19.3767 0.0365
58.2000 19.3834 0.0266
58.2200 19.3901 0.0412
58.2400 19.3967 0.0288
58.2600 19.4033 0.0129
58.2800 19.4100 0.0372
58.3000 19.4167 0.0356
58.3200 19.4234 0.0297
58.3400 19.4301 0.0410
58.3600 19.4368 0.0163
58.3800 19.4435 0.0200
58.4000 19.4501 0.0528
58.4200 19.4567 0.0167
58.4400 19.4633 0.0155
58.4600 19.4700 0.0424
58.4800 19.4767 0.0195
58.5000 19.4834 0.0234
58.5200 19.4901 0.0409
58.5400 19.4968 0.0139
58.5600 19.5034 0.0246
58.5800 19.5101 0.0251
58.6000 19.5167 0.0161
58.6200 19.5233 0.0419
58.6400 19.5300 0.0295
58.6600 19.5367 0.0071
58.6800 19.5434 0.0214
58.7000 19.5501 0.0208
58.7200 19.5567 0.0233
58.7400 19.5634 0.0320
58.7600 19.5701 0.0063
58.7800 19.5767 0.0180
58.8000 19.5833 0.0219
58.8200 19.5899 0.0084
58.8400 19.5967 0.0324
58.8600 19.6034 0.0184
58.8800 19.6100 0.0075
58.9000 19.6167 0.0184
58.9200 19.6234 0.0041
58.9400 19.6300 0.0245
58.9600 19.6366 0.0354
58.9800 19.6433 0.0003
59.0000 19.6500 0.0068
59.0200 19.6567 0.0282
59.0400 19.6634 0.0064
59.0600 19.6701 0.0225
59.0800 19.6768 0.0162
59.1000 19.6835 0.0013
59.1200 19.6901 0.0152
59.1400 19.6967 0.0147
59.1600 19.7034 0.0098
59.1800 19.7100 0.0172
59.2000 19.7167 0.0043
59.2200 19.7234 0.0110
59.2400 19.7301 0.0183
59.2600 19.7368 0.0015
59.2800 19.7434 0.0075
59.3000 19.7500 0.0014
