Raw Data
Time Displacement Force
(s) (mm) (N)
0.0000 0.0001 0.5635
0.0200 0.0001 0.5592
0.0400 0.0009 0.6258
0.0600 0.0042 0.6518
0.0800 0.0097 0.6424
0.1000 0.0154 0.6864
0.1200 0.0213 0.7457
0.1400 0.0280 0.7768
0.1600 0.0354 0.8189
0.1800 0.0428 0.8763
0.2000 0.0499 0.9189
0.2200 0.0568 0.9591
0.2400 0.0635 1.0120
0.2600 0.0701 1.0484
0.2800 0.0768 1.1010
0.3000 0.0835 1.1505
0.3200 0.0902 1.1849
0.3400 0.0970 1.2378
0.3600 0.1036 1.2812
0.3800 0.1103 1.2919
0.4000 0.1169 1.3004
0.4200 0.1236 1.3020
0.4400 0.1303 1.2971
0.4600 0.1370 1.3012
0.4800 0.1437 1.3077
0.5000 0.1504 1.3000
0.5200 0.1570 1.3043
0.5400 0.1637 1.3090
0.5600 0.1702 1.3034
0.5800 0.1769 1.3158
0.6000 0.1836 1.3131
0.6200 0.1903 1.3054
0.6400 0.1970 1.3170
0.6600 0.2037 1.3167
0.6800 0.2103 1.3171
0.7000 0.2170 1.3275
0.7200 0.2236 1.3150
0.7400 0.2303 1.3151
0.7600 0.2369 1.3391
0.7800 0.2436 1.3216
0.8000 0.2503 1.3184
0.8200 0.2570 1.3462
0.8400 0.2636 1.3257
0.8600 0.2703 1.3275
0.8800 0.2770 1.3474
0.9000 0.2836 1.3292
0.9200 0.2902 1.3390
0.9400 0.2968 1.3504
0.9600 0.3035 1.3352
0.9800 0.3102 1.3496
1.0000 0.3169 1.3562
1.0200 0.3236 1.3434
1.0400 0.3303 1.3528
1.0600 0.3370 1.3534
1.0800 0.3436 1.3423
1.1000 0.3502 1.3605
1.1200 0.3569 1.3558
1.1400 0.3636 1.3518
1.1600 0.3703 1.3623
1.1800 0.3770 1.3577
1.2000 0.3837 1.3564
1.2200 0.3903 1.3633
1.2400 0.3970 1.3660
1.2600 0.4037 1.3615
1.2800 0.4103 1.3613
1.3000 0.4170 1.3667
1.3200 0.4236 1.3605
1.3400 0.4303 1.3608
1.3600 0.4370 1.3600
1.3800 0.4437 1.3633
1.4000 0.4503 1.3637
1.4200 0.4570 1.3585
1.4400 0.4636 1.3589
1.4600 0.4702 1.3624
1.4800 0.4769 1.3634
1.5000 0.4835 1.3612
1.5200 0.4902 1.3546
1.5400 0.4969 1.3619
1.5600 0.5036 1.3591
1.5800 0.5103 1.3519
1.6000 0.5170 1.3543
1.6200 0.5236 1.3596
1.6400 0.5302 1.3556
1.6600 0.5368 1.3498
1.6800 0.5435 1.3560
1.7000 0.5503 1.3537
1.7200 0.5570 1.3486
1.7400 0.5637 1.3504
1.7600 0.5703 1.3548
1.7800 0.5770 1.3484
1.8000 0.5837 1.3463
1.8200 0.5903 1.3477
1.8400 0.5969 1.3486
1.8600 0.6036 1.3409
1.8800 0.6103 1.3465
1.9000 0.6170 1.3473
1.9200 0.6237 1.3409
1.9400 0.6304 1.3449
1.9600 0.6371 1.3390
1.9800 0.6437 1.3342
2.0000 0.6503 1.3453
2.0200 0.6569 1.3386
2.0400 0.6635 1.3344
2.0600 0.6703 1.3406
2.0800 0.6770 1.3393
2.1000 0.6837 1.3337
2.1200 0.6904 1.3337
2.1400 0.6970 1.3388
2.1600 0.7036 1.3363
2.1800 0.7102 1.3291
2.2000 0.7169 1.3334
2.2200 0.7236 1.3358
2.2400 0.7303 1.3282
2.2600 0.7370 1.3332
2.2800 0.7436 1.3288
2.3000 0.7503 1.3283
2.3200 0.7570 1.3383
2.3400 0.7636 1.3284
2.3600 0.7703 1.3265
2.3800 0.7769 1.3447
2.4000 0.7835 1.3267
2.4200 0.7902 1.3266
2.4400 0.7969 1.3314
2.4600 0.8036 1.3305
2.4800 0.8103 1.3331
2.5000 0.8170 1.3289
2.5200 0.8237 1.3205
2.5400 0.8303 1.3315
2.5600 0.8369 1.3284
2.5800 0.8436 1.3252
2.6000 0.8503 1.3302
2.6200 0.8570 1.3338
2.6400 0.8637 1.3201
2.6600 0.8704 1.3271
2.6800 0.8770 1.3236
2.7000 0.8837 1.3249
2.7200 0.8903 1.3330
2.7400 0.8969 1.3257
2.7600 0.9036 1.3148
2.7800 0.9103 1.3285
2.8000 0.9170 1.3292
2.8200 0.9237 1.3130
2.8400 0.9304 1.3237
2.8600 0.9370 1.3223
2.8800 0.9437 1.3120
2.9000 0.9503 1.3234
2.9200 0.9569 1.3197
2.9400 0.9635 1.3173
2.9600 0.9702 1.3214
2.9800 0.9770 1.3162
3.0000 0.9836 1.3122
3.0200 0.9903 1.3239
3.0400 0.9970 1.3193
3.0600 1.0037 1.3070
3.0800 1.0103 1.3126
3.1000 1.0168 1.3166
3.1200 1.0235 1.3161
3.1400 1.0302 1.3107
3.1600 1.0370 1.3127
3.1800 1.0436 1.3171
3.2000 1.0503 1.3050
3.2200 1.0570 1.3121
3.2400 1.0637 1.3139
3.2600 1.0703 1.3032
3.2800 1.0769 1.3139
3.3000 1.0836 1.3085
3.3200 1.0903 1.3013
3.3400 1.0970 1.3081
3.3600 1.1037 1.3068
3.3800 1.1104 1.3015
3.4000 1.1171 1.3115
3.4200 1.1237 1.2972
3.4400 1.1303 1.2974
3.4600 1.1369 1.3130
3.4800 1.1436 1.2984
3.5000 1.1503 1.2961
3.5200 1.1570 1.3084
3.5400 1.1637 1.2925
3.5600 1.1704 1.2985
3.5800 1.1770 1.3033
3.6000 1.1837 1.2915
3.6200 1.1903 1.3016
3.6400 1.1969 1.2986
3.6600 1.2035 1.2893
3.6800 1.2103 1.3076
3.7000 1.2170 1.2949
3.7200 1.2237 1.2868
3.7400 1.2303 1.3075
3.7600 1.2370 1.2939
3.7800 1.2437 1.2827
3.8000 1.2503 1.3079
3.8200 1.2569 1.2952
3.8400 1.2636 1.2851
3.8600 1.2703 1.3038
3.8800 1.2770 1.2916
3.9000 1.2836 1.2895
3.9200 1.2903 1.3041
3.9400 1.2970 1.2843
3.9600 1.3037 1.2885
3.9800 1.3103 1.3096
4.0000 1.3169 1.2880
4.0200 1.3235 1.2855
4.0400 1.3302 1.3044
4.0600 1.3369 1.2871
4.0800 1.3437 1.2896
4.1000 1.3503 1.3065
4.1200 1.3570 1.2800
4.1400 1.3637 1.2948
4.1600 1.3703 1.2994
4.1800 1.3769 1.2820
4.2000 1.3836 1.2943
4.2200 1.3903 1.3047
4.2400 1.3970 1.2848
4.2600 1.4037 1.2927
4.2800 1.4104 1.2992
4.3000 1.4170 1.2865
4.3200 1.4237 1.2932
4.3400 1.4303 1.2958
4.3600 1.4369 1.2857
4.3800 1.4436 1.2975
4.4000 1.4503 1.2954
4.4200 1.4570 1.2882
4.4400 1.4636 1.2927
4.4600 1.4703 1.2957
4.4800 1.4770 1.2917
4.5000 1.4837 1.2923
4.5200 1.4903 1.2940
4.5400 1.4969 1.2917
4.5600 1.5035 1.2971
4.5800 1.5102 1.2890
4.6000 1.5169 1.2878
4.6200 1.5236 1.2956
4.6400 1.5303 1.2916
4.6600 1.5370 1.2834
4.6800 1.5437 1.2915
4.7000 1.5503 1.2945
4.7200 1.5569 1.2889
4.7400 1.5636 1.2849
4.7600 1.5703 1.2915
4.7800 1.5770 1.2849
4.8000 1.5837 1.2914
4.8200 1.5904 1.2815
4.8400 1.5971 1.2816
4.8600 1.6037 1.2958
4.8800 1.6103 1.2772
4.9000 1.6169 1.2815
4.9200 1.6236 1.2915
4.9400 1.6303 1.2781
4.9600 1.6370 1.2880
4.9800 1.6437 1.2838
5.0000 1.6504 1.2628
5.0200 1.6570 1.2848
5.0400 1.6637 1.2969
5.0600 1.6703 1.2573
5.0800 1.6769 1.2750
5.1000 1.6835 1.2918
5.1200 1.6902 1.2688
5.1400 1.6969 1.2745
5.1600 1.7036 1.2820
5.1800 1.7103 1.2699
5.2000 1.7170 1.2773
5.2200 1.7237 1.2711
5.2400 1.7303 1.2620
5.2600 1.7369 1.2789
5.2800 1.7435 1.2763
5.3000 1.7502 1.2592
5.3200 1.7569 1.2694
5.3400 1.7636 1.2682
5.3600 1.7703 1.2648
5.3800 1.7770 1.2692
5.4000 1.7837 1.2618
5.4200 1.7903 1.2660
5.4400 1.7969 1.2660
5.4600 1.8035 1.2643
5.4800 1.8102 1.2642
5.5000 1.8170 1.2649
5.5200 1.8237 1.2580
5.5400 1.8304 1.2627
5.5600 1.8371 1.2580
5.5800 1.8437 1.2614
5.6000 1.8504 1.2637
5.6200 1.8570 1.2572
5.6400 1.8636 1.2573
5.6600 1.8703 1.2679
5.6800 1.8770 1.2518
5.7000 1.8837 1.2565
5.7200 1.8903 1.2646
5.7400 1.8970 1.2531
5.7600 1.9037 1.2546
5.7800 1.9103 1.2568
5.8000 1.9169 1.2507
5.8200 1.9235 1.2649
5.8400 1.9302 1.2531
5.8600 1.9369 1.2467
5.8800 1.9436 1.2616
5.9000 1.9503 1.2546
5.9200 1.9570 1.2458
5.9400 1.9636 1.2553
5.9600 1.9703 1.2533
5.9800 1.9769 1.2482
6.0000 1.9835 1.2565
6.0200 1.9902 1.2486
6.0400 1.9969 1.2483
6.0600 2.0036 1.2558
6.0800 2.0103 1.2422
6.1000 2.0170 1.2506
6.1200 2.0237 1.2547
6.1400 2.0303 1.2420
6.1600 2.0369 1.2496
6.1800 2.0436 1.2526
6.2000 2.0502 1.2429
6.2200 2.0570 1.2483
6.2400 2.0637 1.2526
6.2600 2.0704 1.2382
6.2800 2.0770 1.2478
6.3000 2.0837 1.2450
6.3200 2.0903 1.2413
6.3400 2.0969 1.2464
6.3600 2.1036 1.2427
6.3800 2.1102 1.2412
6.4000 2.1170 1.2419
6.4200 2.1237 1.2389
6.4400 2.1303 1.2444
6.4600 2.1370 1.2429
6.4800 2.1437 1.2384
6.5000 2.1504 1.2389
6.5200 2.1570 1.2401
6.5400 2.1636 1.2356
6.5600 2.1702 1.2416
6.5800 2.1769 1.2398
6.6000 2.1836 1.2387
6.6200 2.1903 1.2386
6.6400 2.1970 1.2313
6.6600 2.2037 1.2348
6.6800 2.2103 1.2425
6.7000 2.2169 1.2330
6.7200 2.2235 1.2342
6.7400 2.2302 1.2374
6.7600 2.2369 1.2327
6.7800 2.2436 1.2352
6.8000 2.2503 1.2359
6.8200 2.2570 1.2339
6.8400 2.2637 1.2325
6.8600 2.2703 1.2311
6.8800 2.2769 1.2298
6.9000 2.2836 1.2370
6.9200 2.2902 1.2348
6.9400 2.2969 1.2267
6.9600 2.3036 1.2338
6.9800 2.3103 1.2285
7.0000 2.3170 1.2242
7.0200 2.3237 1.2383
7.0400 2.3304 1.2248
7.0600 2.3370 1.2258
7.0800 2.3436 1.2359
7.1000 2.3502 1.2240
7.1200 2.3569 1.2259
7.1400 2.3636 1.2376
7.1600 2.3703 1.2212
7.1800 2.3770 1.2271
7.2000 2.3837 1.2334
7.2200 2.3904 1.2206
7.2400 2.3969 1.2278
7.2600 2.4035 1.2315
7.2800 2.4102 1.2179
7.3000 2.4169 1.2294
7.3200 2.4237 1.2280
7.3400 2.4303 1.2179
7.3600 2.4370 1.2322
7.3800 2.4437 1.2246
7.4000 2.4503 1.2169
7.4200 2.4569 1.2259
7.4400 2.4636 1.2249
7.4600 2.4702 1.2207
7.4800 2.4769 1.2254
7.5000 2.4836 1.2201
7.5200 2.4903 1.2206
7.5400 2.4970 1.2231
7.5600 2.5036 1.2163
7.5800 2.5103 1.2205
7.6000 2.5169 1.2224
7.6200 2.5236 1.2148
7.6400 2.5302 1.2237
7.6600 2.5369 1.2145
7.6800 2.5437 1.2192
7.7000 2.5504 1.2231
7.7200 2.5570 1.2131
7.7400 2.5637 1.2154
7.7600 2.5704 1.2186
7.7800 2.5770 1.2123
7.8000 2.5836 1.2162
7.8200 2.5902 1.2188
7.8400 2.5970 1.2093
7.8600 2.6037 1.2157
7.8800 2.6104 1.2141
7.9000 2.6170 1.2057
7.9200 2.6237 1.2203
7.9400 2.6303 1.2082
7.9600 2.6369 1.2055
7.9800 2.6436 1.2154
8.0000 2.6502 1.2074
8.0200 2.6569 1.2092
8.0400 2.6636 1.2148
8.0600 2.6703 1.2019
8.0800 2.6770 1.2127
8.1000 2.6837 1.2133
8.1200 2.6903 1.1999
8.1400 2.6970 1.2092
8.1600 2.7035 1.2097
8.1800 2.7102 1.2006
8.2000 2.7169 1.2111
8.2200 2.7236 1.2078
8.2400 2.7303 1.2012
8.2600 2.7370 1.2093
8.2800 2.7437 1.2023
8.3000 2.7504 1.1989
8.3200 2.7570 1.2049
8.3400 2.7636 1.2026
8.3600 2.7702 1.1972
8.3800 2.7769 1.2053
8.4000 2.7836 1.1998
8.4200 2.7903 1.1974
8.4400 2.7970 1.1993
8.4600 2.8037 1.2017
8.4800 2.8104 1.1949
8.5000 2.8170 1.1991
8.5200 2.8236 1.1991
8.5400 2.8302 1.1973
8.5600 2.8369 1.2028
8.5800 2.8437 1.1966
8.6000 2.8504 1.1938
8.6200 2.8570 1.2041
8.6400 2.8637 1.1928
8.6600 2.8704 1.1959
8.6800 2.8770 1.1966
8.7000 2.8836 1.1973
8.7200 2.8902 1.1941
8.7400 2.8969 1.2004
8.7600 2.9036 1.1881
8.7800 2.9103 1.1880
8.8000 2.9170 1.2011
8.8200 2.9237 1.1915
8.8400 2.9303 1.1897
8.8600 2.9369 1.1957
8.8800 2.9435 1.1873
8.9000 2.9502 1.1946
8.9200 2.9569 1.1938
8.9400 2.9636 1.1835
8.9600 2.9703 1.1921
8.9800 2.9769 1.1922
9.0000 2.9836 1.1857
9.0200 2.9903 1.1929
9.0400 2.9970 1.1914
9.0600 3.0036 1.1899
9.0800 3.0102 1.1879
9.1000 3.0169 1.1885
9.1200 3.0237 1.1880
9.1400 3.0303 1.1861
9.1600 3.0370 1.1916
9.1800 3.0437 1.1878
9.2000 3.0504 1.1883
9.2200 3.0570 1.1886
9.2400 3.0636 1.1846
9.2600 3.0702 1.1869
9.2800 3.0769 1.1956
9.3000 3.0837 1.1847
9.3200 3.0904 1.1853
9.3400 3.0970 1.1915
9.3600 3.1037 1.1837
9.3800 3.1104 1.1806
9.4000 3.1170 1.1926
9.4200 3.1236 1.1832
9.4400 3.1302 1.1801
9.4600 3.1369 1.1903
9.4800 3.1436 1.1822
9.5000 3.1503 1.1851
9.5200 3.1570 1.1882
9.5400 3.1637 1.1734
9.5600 3.1704 1.1860
9.5800 3.1770 1.1848
9.6000 3.1836 1.1751
9.6200 3.1902 1.1872
9.6400 3.1969 1.1880
9.6600 3.2036 1.1680
9.6800 3.2103 1.1839
9.7000 3.2170 1.1824
9.7200 3.2236 1.1764
9.7400 3.2303 1.1853
9.7600 3.2370 1.1780
9.7800 3.2436 1.1757
9.8000 3.2502 1.1824
9.8200 3.2569 1.1808
9.8400 3.2636 1.1777
9.8600 3.2704 1.1748
9.8800 3.2770 1.1754
9.9000 3.2837 1.1762
9.9200 3.2904 1.1760
9.9400 3.2970 1.1726
9.9600 3.3036 1.1740
9.9800 3.3102 1.1750
10.0000 3.3169 1.1749
10.0200 3.3237 1.1744
10.0400 3.3304 1.1706
10.0600 3.3370 1.1751
10.0800 3.3437 1.1715
10.1000 3.3504 1.1715
10.1200 3.3570 1.1694
10.1400 3.3636 1.1719
10.1600 3.3702 1.1718
10.1800 3.3769 1.1691
10.2000 3.3836 1.1704
10.2200 3.3903 1.1732
10.2400 3.3970 1.1670
10.2600 3.4037 1.1645
10.2800 3.4103 1.1724
10.3000 3.4170 1.1670
10.3200 3.4236 1.1664
10.3400 3.4302 1.1675
10.3600 3.4369 1.1611
10.3800 3.4436 1.1737
10.4000 3.4503 1.1674
10.4200 3.4570 1.1587
10.4400 3.4637 1.1666
10.4600 3.4703 1.1665
10.4800 3.4770 1.1572
10.5000 3.4836 1.1644
10.5200 3.4902 1.1665
10.5400 3.4969 1.1583
10.5600 3.5036 1.1601
10.5800 3.5103 1.1579
10.6000 3.5170 1.1623
10.6200 3.5237 1.1629
10.6400 3.5304 1.1595
10.6600 3.5370 1.1569
10.6800 3.5436 1.1591
10.7000 3.5502 1.1594
10.7200 3.5569 1.1626
10.7400 3.5636 1.1579
10.7600 3.5703 1.1500
10.7800 3.5770 1.1624
10.8000 3.5837 1.1575
10.8200 3.5904 1.1483
10.8400 3.5970 1.1587
10.8600 3.6036 1.1530
10.8800 3.6102 1.1491
10.9000 3.6169 1.1607
10.9200 3.6237 1.1601
10.9400 3.6304 1.1477
10.9600 3.6370 1.1563
10.9800 3.6437 1.1523
11.0000 3.6503 1.1515
11.0200 3.6570 1.1524
11.0400 3.6636 1.1492
11.0600 3.6702 1.1498
11.0800 3.6769 1.1536
11.1000 3.6836 1.1524
11.1200 3.6903 1.1481
11.1400 3.6969 1.1480
11.1600 3.7036 1.1478
11.1800 3.7103 1.1469
11.2000 3.7170 1.1506
11.2200 3.7236 1.1493
11.2400 3.7302 1.1500
11.2600 3.7369 1.1463
11.2800 3.7436 1.1475
11.3000 3.7503 1.1490
11.3200 3.7570 1.1465
11.3400 3.7637 1.1480
11.3600 3.7704 1.1406
11.3800 3.7771 1.1411
11.4000 3.7836 1.1482
11.4200 3.7902 1.1449
11.4400 3.7969 1.1429
11.4600 3.8036 1.1449
11.4800 3.8104 1.1384
11.5000 3.8171 1.1415
11.5200 3.8237 1.1456
11.5400 3.8304 1.1439
11.5600 3.8370 1.1414
11.5800 3.8436 1.1452
11.6000 3.8502 1.1399
11.6200 3.8569 1.1438
11.6400 3.8636 1.1448
11.6600 3.8703 1.1412
11.6800 3.8769 1.1360
11.7000 3.8836 1.1414
11.7200 3.8903 1.1384
11.7400 3.8970 1.1328
11.7600 3.9036 1.1411
11.7800 3.9102 1.1408
11.8000 3.9168 1.1325
11.8200 3.9235 1.1384
11.8400 3.9303 1.1335
11.8600 3.9370 1.1325
11.8800 3.9436 1.1393
11.9000 3.9503 1.1356
11.9200 3.9570 1.1329
11.9400 3.9636 1.1361
11.9600 3.9702 1.1330
11.9800 3.9769 1.1341
12.0000 3.9836 1.1361
12.0200 3.9903 1.1301
12.0400 3.9970 1.1277
12.0600 4.0037 1.1380
12.0800 4.0104 1.1276
12.1000 4.0170 1.1307
12.1200 4.0237 1.1366
12.1400 4.0303 1.1272
12.1600 4.0369 1.1264
12.1800 4.0436 1.1351
12.2000 4.0503 1.1229
12.2200 4.0570 1.1264
12.2400 4.0637 1.1354
12.2600 4.0704 1.1198
12.2800 4.0771 1.1252
12.3000 4.0837 1.1323
12.3200 4.0902 1.1216
12.3400 4.0969 1.1294
12.3600 4.1036 1.1273
12.3800 4.1103 1.1175
12.4000 4.1170 1.1303
12.4200 4.1237 1.1248
12.4400 4.1304 1.1175
12.4600 4.1370 1.1269
12.4800 4.1436 1.1202
12.5000 4.1502 1.1163
12.5200 4.1569 1.1340
12.5400 4.1636 1.1197
12.5600 4.1703 1.1184
12.5800 4.1770 1.1187
12.6000 4.1836 1.1213
12.6200 4.1903 1.1244
12.6400 4.1970 1.1157
12.6600 4.2036 1.1171
12.6800 4.2103 1.1289
12.7000 4.2169 1.1179
12.7200 4.2236 1.1166
12.7400 4.2303 1.1194
12.7600 4.2370 1.1179
12.7800 4.2437 1.1202
12.8000 4.2504 1.1167
12.8200 4.2571 1.1141
12.8400 4.2637 1.1198
12.8600 4.2703 1.1126
12.8800 4.2769 1.1187
12.9000 4.2836 1.1200
12.9200 4.2903 1.1132
12.9400 4.2970 1.1153
12.9600 4.3037 1.1142
12.9800 4.3104 1.1118
13.0000 4.3170 1.1156
13.0200 4.3236 1.1137
13.0400 4.3302 1.1118
13.0600 4.3369 1.1151
13.0800 4.3436 1.1136
13.1000 4.3503 1.1102
13.1200 4.3570 1.1097
13.1400 4.3637 1.1110
13.1600 4.3704 1.1118
13.1800 4.3770 1.1070
13.2000 4.3836 1.1081
13.2200 4.3902 1.1151
13.2400 4.3969 1.1058
13.2600 4.4035 1.1069
13.2800 4.4103 1.1140
13.3000 4.4169 1.1045
13.3200 4.4236 1.1084
13.3400 4.4304 1.1116
13.3600 4.4370 1.1007
13.3800 4.4436 1.1095
13.4000 4.4502 1.1106
13.4200 4.4569 1.1007
13.4400 4.4636 1.1065
13.4600 4.4703 1.1065
13.4800 4.4770 1.1014
13.5000 4.4837 1.1065
13.5200 4.4904 1.1026
13.5400 4.4970 1.1020
13.5600 4.5037 1.1004
13.5800 4.5103 1.1041
13.6000 4.5169 1.1058
13.6200 4.5236 1.1022
13.6400 4.5303 1.1006
13.6600 4.5370 1.0979
13.6800 4.5437 1.1033
13.7000 4.5503 1.1019
13.7200 4.5570 1.0964
13.7400 4.5636 1.0991
13.7600 4.5702 1.1022
13.7800 4.5769 1.1025
13.8000 4.5835 1.0927
13.8200 4.5902 1.0970
13.8400 4.5969 1.1009
13.8600 4.6036 1.0971
13.8800 4.6103 1.1023
13.9000 4.6170 1.0948
13.9200 4.6237 1.0871
13.9400 4.6303 1.0972
13.9600 4.6369 1.0993
13.9800 4.6436 1.0910
14.0000 4.6503 1.0983
14.0200 4.6570 1.0939
14.0400 4.6637 1.0869
14.0600 4.6703 1.0962
14.0800 4.6770 1.0952
14.1000 4.6836 1.0869
14.1200 4.6902 1.0983
14.1400 4.6969 1.0858
14.1600 4.7036 1.0868
14.1800 4.7103 1.0990
14.2000 4.7170 1.0845
14.2200 4.7237 1.0797
14.2400 4.7304 1.1004
14.2600 4.7370 1.0845
14.2800 4.7437 1.0821
14.3000 4.7503 1.0939
14.3200 4.7569 1.0852
14.3400 4.7636 1.0879
14.3600 4.7703 1.0937
14.3800 4.7770 1.0822
14.4000 4.7837 1.0876
14.4200 4.7904 1.0957
14.4400 4.7971 1.0766
14.4600 4.8037 1.0841
14.4800 4.8103 1.0932
14.5000 4.8169 1.0806
14.5200 4.8236 1.0847
14.5400 4.8303 1.0899
14.5600 4.8370 1.0773
14.5800 4.8436 1.0851
14.6000 4.8503 1.0917
14.6200 4.8570 1.0746
14.6400 4.8636 1.0812
14.6600 4.8702 1.0915
14.6800 4.8768 1.0759
14.7000 4.8835 1.0785
14.7200 4.8903 1.0868
14.7400 4.8970 1.0759
14.7600 4.9036 1.0762
14.7800 4.9103 1.0865
14.8000 4.9170 1.0765
14.8200 4.9237 1.0786
14.8400 4.9303 1.0836
14.8600 4.9369 1.0782
14.8800 4.9436 1.0758
14.9000 4.9503 1.0815
14.9200 4.9570 1.0740
14.9400 4.9637 1.0798
14.9600 4.9704 1.0809
14.9800 4.9771 1.0704
15.0000 4.9837 1.0728
15.0200 4.9903 1.0796
15.0400 4.9969 1.0771
15.0600 5.0036 1.0743
15.0800 5.0103 1.0754
15.1000 5.0170 1.0718
15.1200 5.0237 1.0728
15.1400 5.0304 1.0766
15.1600 5.0370 1.0712
15.1800 5.0437 1.0732
15.2000 5.0503 1.0713
15.2200 5.0569 1.0656
15.2400 5.0636 1.0755
15.2600 5.0703 1.0757
15.2800 5.0770 1.0617
15.3000 5.0837 1.0720
15.3200 5.0903 1.0725
15.3400 5.0970 1.0625
15.3600 5.1037 1.0701
15.3800 5.1103 1.0649
15.4000 5.1168 1.0593
15.4200 5.1235 1.0753
15.4400 5.1302 1.0684
15.4600 5.1369 1.0586
15.4800 5.1436 1.0680
15.5000 5.1503 1.0626
15.5200 5.1570 1.0636
15.5400 5.1637 1.0678
15.5600 5.1703 1.0634
15.5800 5.1769 1.0580
15.6000 5.1836 1.0685
15.6200 5.1903 1.0584
15.6400 5.1970 1.0624
15.6600 5.2037 1.0593
15.6800 5.2104 1.0620
15.7000 5.2170 1.0599
15.7200 5.2237 1.0558
15.7400 5.2303 1.0614
15.7600 5.2370 1.0629
15.7800 5.2437 1.0505
15.8000 5.2504 1.0602
15.8200 5.2570 1.0551
15.8400 5.2637 1.0505
15.8600 5.2704 1.0614
15.8800 5.2770 1.0588
15.9000 5.2837 1.0481
15.9200 5.2903 1.0554
15.9400 5.2969 1.0524
15.9600 5.3035 1.0509
15.9800 5.3102 1.0609
16.0000 5.3170 1.0492
16.0200 5.3236 1.0510
16.0400 5.3303 1.0563
16.0600 5.3370 1.0475
16.0800 5.3436 1.0537
16.1000 5.3502 1.0543
16.1200 5.3569 1.0461
16.1400 5.3636 1.0550
16.1600 5.3703 1.0497
16.1800 5.3770 1.0486
16.2000 5.3837 1.0530
16.2200 5.3903 1.0505
16.2400 5.3969 1.0447
16.2600 5.4036 1.0535
16.2800 5.4102 1.0538
16.3000 5.4169 1.0434
16.3200 5.4236 1.0532
16.3400 5.4303 1.0471
16.3600 5.4370 1.0459
16.3800 5.4437 1.0555
16.4000 5.4504 1.0425
16.4200 5.4571 1.0471
16.4400 5.4637 1.0450
16.4600 5.4703 1.0438
16.4800 5.4769 1.0513
16.5000 5.4836 1.0478
16.5200 5.4903 1.0400
16.5400 5.4970 1.0442
16.5600 5.5037 1.0480
16.5800 5.5104 1.0445
16.6000 5.5170 1.0447
16.6200 5.5237 1.0449
16.6400 5.5303 1.0423
16.6600 5.5369 1.0462
16.6800 5.5436 1.0460
16.7000 5.5503 1.0451
16.7200 5.5570 1.0389
16.7400 5.5637 1.0426
16.7600 5.5703 1.0464
16.7800 5.5770 1.0384
16.8000 5.5837 1.0411
16.8200 5.5903 1.0410
16.8400 5.5969 1.0433
16.8600 5.6035 1.0419
16.8800 5.6102 1.0384
16.9000 5.6169 1.0381
16.9200 5.6236 1.0408
16.9400 5.6303 1.0407
16.9600 5.6370 1.0386
16.9800 5.6437 1.0370
17.0000 5.6503 1.0387
17.0200 5.6569 1.0362
17.0400 5.6635 1.0414
17.0600 5.6702 1.0343
17.0800 5.6769 1.0360
17.1000 5.6837 1.0383
17.1200 5.6904 1.0330
17.1400 5.6971 1.0330
17.1600 5.7037 1.0389
17.1800 5.7103 1.0317
17.2000 5.7169 1.0357
17.2200 5.7236 1.0349
17.2400 5.7303 1.0292
17.2600 5.7370 1.0347
17.2800 5.7437 1.0354
17.3000 5.7504 1.0249
17.3200 5.7571 1.0346
17.3400 5.7637 1.0351
17.3600 5.7703 1.0255
17.3800 5.7769 1.0356
17.4000 5.7835 1.0341
17.4200 5.7902 1.0266
17.4400 5.7969 1.0312
17.4600 5.8036 1.0328
17.4800 5.8103 1.0245
17.5000 5.8170 1.0290
17.5200 5.8237 1.0288
17.5400 5.8303 1.0219
17.5600 5.8369 1.0316
17.5800 5.8435 1.0269
17.6000 5.8502 1.0214
17.6200 5.8569 1.0283
17.6400 5.8636 1.0208
17.6600 5.8703 1.0228
17.6800 5.8770 1.0258
17.7000 5.8837 1.0251
17.7200 5.8903 1.0166
17.7400 5.8969 1.0279
17.7600 5.9036 1.0259
17.7800 5.9103 1.0155
17.8000 5.9170 1.0217
17.8200 5.9237 1.0228
17.8400 5.9303 1.0182
17.8600 5.9370 1.0241
17.8800 5.9437 1.0209
17.9000 5.9503 1.0163
17.9200 5.9570 1.0189
17.9400 5.9636 1.0225
17.9600 5.9703 1.0146
17.9800 5.9770 1.0167
18.0000 5.9837 1.0214
18.0200 5.9904 1.0102
18.0400 5.9971 1.0138
18.0600 6.0037 1.0185
18.0800 6.0103 1.0065
18.1000 6.0169 1.0169
18.1200 6.0235 1.0168
18.1400 6.0302 1.0048
18.1600 6.0370 1.0145
18.1800 6.0437 1.0159
18.2000 6.0503 1.0050
18.2200 6.0570 1.0141
18.2400 6.0637 1.0153
18.2600 6.0703 1.0025
18.2800 6.0769 1.0150
18.3000 6.0836 1.0126
18.3200 6.0902 1.0034
18.3400 6.0969 1.0113
18.3600 6.1036 1.0097
18.3800 6.1103 1.0019
18.4000 6.1170 1.0121
18.4200 6.1237 1.0076
18.4400 6.1303 1.0004
18.4600 6.1369 1.0063
18.4800 6.1436 1.0076
18.5000 6.1502 1.0069
18.5200 6.1570 1.0070
18.5400 6.1637 1.0034
18.5600 6.1704 1.0055
18.5800 6.1770 1.0028
18.6000 6.1837 1.0087
18.6200 6.1903 0.9982
18.6400 6.1969 1.0040
18.6600 6.2035 1.0067
18.6800 6.2102 1.0010
18.7000 6.2170 0.9981
18.7200 6.2237 1.0074
18.7400 6.2304 1.0019
18.7600 6.2371 0.9992
18.7800 6.2437 1.0033
18.8000 6.2503 0.9964
18.8200 6.2569 0.9976
18.8400 6.2636 1.0082
18.8600 6.2703 0.9948
18.8800 6.2770 0.9960
18.9000 6.2836 1.0000
18.9200 6.2903 0.9943
18.9400 6.2970 0.9989
18.9600 6.3037 1.0000
18.9800 6.3103 0.9895
19.0000 6.3169 0.9974
19.0200 6.3235 1.0010
19.0400 6.3302 0.9862
19.0600 6.3369 1.0022
19.0800 6.3436 0.9968
19.1000 6.3503 0.9829
19.1200 6.3570 1.0000
19.1400 6.3637 0.9981
19.1600 6.3703 0.9844
19.1800 6.3769 0.9955
19.2000 6.3836 0.9926
19.2200 6.3903 0.9834
19.2400 6.3970 0.9942
19.2600 6.4037 0.9915
19.2800 6.4104 0.9844
19.3000 6.4171 0.9953
19.3200 6.4237 0.9887
19.3400 6.4304 0.9850
19.3600 6.4369 0.9923
19.3800 6.4436 0.9895
19.4000 6.4503 0.9835
19.4200 6.4570 0.9905
19.4400 6.4637 0.9832
19.4600 6.4703 0.9835
19.4800 6.4770 0.9869
19.5000 6.4837 0.9876
19.5200 6.4904 0.9816
19.5400 6.4970 0.9871
19.5600 6.5036 0.9862
19.5800 6.5102 0.9835
19.6000 6.5169 0.9875
19.6200 6.5236 0.9836
19.6400 6.5303 0.9827
19.6600 6.5370 0.9851
19.6800 6.5437 0.9822
19.7000 6.5503 0.9831
19.7200 6.5569 0.9798
19.7400 6.5635 0.9867
19.7600 6.5702 0.9844
19.7800 6.5769 0.9801
19.8000 6.5836 0.9818
19.8200 6.5903 0.9837
19.8400 6.5970 0.9784
19.8600 6.6036 0.9809
19.8800 6.6103 0.9792
19.9000 6.6169 0.9748
19.9200 6.6236 0.9864
19.9400 6.6302 0.9802
19.9600 6.6369 0.9727
19.9800 6.6436 0.9855
20.0000 6.6503 0.9758
20.0200 6.6570 0.9690
20.0400 6.6637 0.9892
20.0600 6.6704 0.9744
20.0800 6.6770 0.9724
20.1000 6.6836 0.9869
20.1200 6.6903 0.9725
20.1400 6.6970 0.9734
20.1600 6.7037 0.9856
20.1800 6.7104 0.9693
20.2000 6.7171 0.9752
20.2200 6.7237 0.9825
20.2400 6.7303 0.9625
20.2600 6.7369 0.9793
20.2800 6.7435 0.9810
20.3000 6.7502 0.9617
20.3200 6.7569 0.9800
20.3400 6.7637 0.9752
20.3600 6.7703 0.9637
20.3800 6.7770 0.9790
20.4000 6.7837 0.9734
20.4200 6.7903 0.9672
20.4400 6.7969 0.9742
20.4600 6.8035 0.9705
20.4800 6.8102 0.9662
20.5000 6.8169 0.9800
20.5200 6.8236 0.9641
20.5400 6.8303 0.9686
20.5600 6.8370 0.9735
20.5800 6.8437 0.9638
20.6000 6.8504 0.9698
20.6200 6.8570 0.9665
20.6400 6.8636 0.9630
20.6600 6.8702 0.9703
20.6800 6.8769 0.9633
20.7000 6.8837 0.9662
20.7200 6.8904 0.9703
20.7400 6.8971 0.9638
20.7600 6.9037 0.9615
20.7800 6.9104 0.9646
20.8000 6.9169 0.9596
20.8200 6.9236 0.9647
20.8400 6.9302 0.9673
20.8600 6.9369 0.9573
20.8800 6.9437 0.9609
20.9000 6.9503 0.9641
20.9200 6.9570 0.9571
20.9400 6.9637 0.9627
20.9600 6.9704 0.9613
20.9800 6.9770 0.9615
21.0000 6.9836 0.9598
21.0200 6.9903 0.9561
21.0400 6.9969 0.9618
21.0600 7.0036 0.9586
21.0800 7.0103 0.9561
21.1000 7.0170 0.9572
21.1200 7.0237 0.9593
21.1400 7.0304 0.9553
21.1600 7.0370 0.9553
21.1800 7.0435 0.9561
21.2000 7.0502 0.9551
21.2200 7.0569 0.9590
21.2400 7.0636 0.9510
21.2600 7.0703 0.9515
21.2800 7.0770 0.9595
21.3000 7.0836 0.9463
21.3200 7.0903 0.9531
21.3400 7.0969 0.9574
21.3600 7.1035 0.9454
21.3800 7.1102 0.9510
21.4000 7.1169 0.9552
21.4200 7.1236 0.9423
21.4400 7.1303 0.9547
21.4600 7.1370 0.9563
21.4800 7.1437 0.9395
21.5000 7.1504 0.9480
21.5200 7.1570 0.9549
21.5400 7.1636 0.9390
21.5600 7.1703 0.9494
21.5800 7.1769 0.9529
21.6000 7.1836 0.9376
21.6200 7.1903 0.9463
21.6400 7.1970 0.9489
21.6600 7.2037 0.9357
21.6800 7.2104 0.9525
21.7000 7.2170 0.9438
21.7200 7.2236 0.9312
21.7400 7.2302 0.9496
21.7600 7.2369 0.9482
21.7800 7.2437 0.9336
21.8000 7.2503 0.9495
21.8200 7.2570 0.9429
21.8400 7.2637 0.9291
21.8600 7.2703 0.9521
21.8800 7.2769 0.9392
21.9000 7.2835 0.9346
21.9200 7.2902 0.9543
21.9400 7.2969 0.9308
21.9600 7.3036 0.9315
21.9800 7.3103 0.9502
22.0000 7.3170 0.9334
22.0200 7.3236 0.9332
22.0400 7.3303 0.9425
22.0600 7.3370 0.9301
22.0800 7.3436 0.9329
22.1000 7.3502 0.9451
22.1200 7.3569 0.9314
22.1400 7.3636 0.9343
22.1600 7.3703 0.9379
22.1800 7.3770 0.9328
22.2000 7.3837 0.9312
22.2200 7.3904 0.9405
22.2400 7.3970 0.9317
22.2600 7.4036 0.9263
22.2800 7.4102 0.9357
22.3000 7.4170 0.9349
22.3200 7.4237 0.9259
22.3400 7.4304 0.9332
22.3600 7.4370 0.9358
22.3800 7.4437 0.9257
22.4000 7.4504 0.9287
22.4200 7.4570 0.9379
22.4400 7.4636 0.9198
22.4600 7.4702 0.9342
22.4800 7.4769 0.9405
22.5000 7.4836 0.9180
22.5200 7.4903 0.9334
22.5400 7.4970 0.9436
22.5600 7.5037 0.9171
22.5800 7.5103 0.9306
22.6000 7.5170 0.9312
22.6200 7.5236 0.9190
22.6400 7.5302 0.9357
22.6600 7.5369 0.9286
22.6800 7.5436 0.9168
22.7000 7.5503 0.9339
22.7200 7.5570 0.9219
22.7400 7.5637 0.9196
22.7600 7.5704 0.9311
22.7800 7.5770 0.9209
22.8000 7.5836 0.9215
22.8200 7.5902 0.9316
22.8400 7.5969 0.9213
22.8600 7.6036 0.9202
22.8800 7.6103 0.9269
22.9000 7.6170 0.9152
22.9200 7.6237 0.9265
22.9400 7.6304 0.9240
22.9600 7.6370 0.9178
22.9800 7.6436 0.9250
23.0000 7.6503 0.9199
23.0200 7.6569 0.9192
23.0400 7.6636 0.9230
23.0600 7.6703 0.9213
23.0800 7.6770 0.9211
23.1000 7.6837 0.9176
23.1200 7.6904 0.9208
23.1400 7.6970 0.9185
23.1600 7.7036 0.9145
23.1800 7.7102 0.9231
23.2000 7.7169 0.9254
23.2200 7.7236 0.9097
23.2400 7.7303 0.9212
23.2600 7.7370 0.9188
23.2800 7.7437 0.9115
23.3000 7.7503 0.9211
23.3200 7.7570 0.9149
23.3400 7.7635 0.9098
23.3600 7.7702 0.9212
23.3800 7.7769 0.9171
23.4000 7.7836 0.9110
23.4200 7.7903 0.9176
23.4400 7.7969 0.9118
23.4600 7.8036 0.9088
23.4800 7.8103 0.9188
23.5000 7.8169 0.9114
23.5200 7.8236 0.9059
23.5400 7.8302 0.9189
23.5600 7.8369 0.9112
23.5800 7.8436 0.9057
23.6000 7.8503 0.9109
23.6200 7.8570 0.9116
23.6400 7.8637 0.9057
23.6600 7.8704 0.9099
23.6800 7.8770 0.9060
23.7000 7.8836 0.9081
23.7200 7.8902 0.9131
23.7400 7.8969 0.9056
23.7600 7.9036 0.9008
23.7800 7.9104 0.9117
23.8000 7.9170 0.9052
23.8200 7.9237 0.9011
23.8400 7.9304 0.9092
23.8600 7.9370 0.9056
23.8800 7.9436 0.8988
23.9000 7.9502 0.9060
23.9200 7.9569 0.9040
23.9400 7.9636 0.9010
23.9600 7.9703 0.9028
23.9800 7.9770 0.9010
24.0000 7.9837 0.9025
24.0200 7.9904 0.9030
24.0400 7.9970 0.8941
24.0600 8.0036 0.9036
24.0800 8.0102 0.9017
24.1000 8.0169 0.8984
24.1200 8.0236 0.8984
24.1400 8.0303 0.9035
24.1600 8.0370 0.8985
24.1800 8.0436 0.8960
24.2000 8.0503 0.9012
24.2200 8.0570 0.8988
24.2400 8.0636 0.8946
24.2600 8.0702 0.8982
24.2800 8.0769 0.8996
24.3000 8.0836 0.8913
24.3200 8.0903 0.9009
24.3400 8.0970 0.8966
24.3600 8.1037 0.8924
24.3800 8.1104 0.8978
24.4000 8.1170 0.8941
24.4200 8.1236 0.8891
24.4400 8.1302 0.8987
24.4600 8.1369 0.8934
24.4800 8.1436 0.8937
24.5000 8.1504 0.8943
24.5200 8.1570 0.8902
24.5400 8.1637 0.8914
24.5600 8.1704 0.8922
24.5800 8.1770 0.8878
24.6000 8.1836 0.8951
24.6200 8.1902 0.8846
24.6400 8.1969 0.8888
24.6600 8.2036 0.8955
24.6800 8.2103 0.8856
24.7000 8.2170 0.8855
24.7200 8.2237 0.8937
24.7400 8.2303 0.8847
24.7600 8.2370 0.8825
24.7800 8.2436 0.8930
24.8000 8.2502 0.8814
24.8200 8.2569 0.8877
24.8400 8.2636 0.8944
24.8600 8.2703 0.8780
24.8800 8.2770 0.8851
24.9000 8.2837 0.8913
24.9200 8.2903 0.8799
24.9400 8.2970 0.8788
24.9600 8.3036 0.8903
24.9800 8.3102 0.8805
25.0000 8.3169 0.8809
25.0200 8.3236 0.8850
25.0400 8.3303 0.8788
25.0600 8.3370 0.8870
25.0800 8.3437 0.8842
25.1000 8.3504 0.8781
25.1200 8.3570 0.8788
25.1400 8.3636 0.8814
25.1600 8.3703 0.8797
25.1800 8.3769 0.8769
25.2000 8.3836 0.8802
25.2200 8.3903 0.8783
25.2400 8.3970 0.8735
25.2600 8.4037 0.8830
25.2800 8.4104 0.8768
25.3000 8.4170 0.8742
25.3200 8.4236 0.8798
25.3400 8.4302 0.8774
25.3600 8.4369 0.8718
25.3800 8.4436 0.8829
25.4000 8.4503 0.8760
25.4200 8.4570 0.8737
25.4400 8.4637 0.8802
25.4600 8.4704 0.8748
25.4800 8.4770 0.8639
25.5000 8.4836 0.8793
25.5200 8.4902 0.8750
25.5400 8.4968 0.8662
25.5600 8.5035 0.8764
25.5800 8.5102 0.8706
25.6000 8.5169 0.8654
25.6200 8.5236 0.8733
25.6400 8.5303 0.8700
25.6600 8.5370 0.8672
25.6800 8.5436 0.8705
25.7000 8.5502 0.8683
25.7200 8.5569 0.8657
25.7400 8.5636 0.8698
25.7600 8.5703 0.8680
25.7800 8.5770 0.8607
25.8000 8.5837 0.8677
25.8200 8.5904 0.8697
25.8400 8.5971 0.8596
25.8600 8.6036 0.8627
25.8800 8.6102 0.8694
25.9000 8.6169 0.8604
25.9200 8.6236 0.8686
25.9400 8.6304 0.8619
25.9600 8.6371 0.8574
25.9800 8.6437 0.8659
26.0000 8.6504 0.8591
26.0200 8.6570 0.8586
26.0400 8.6636 0.8696
26.0600 8.6702 0.8569
26.0800 8.6769 0.8535
26.1000 8.6836 0.8658
26.1200 8.6903 0.8611
26.1400 8.6970 0.8547
26.1600 8.7036 0.8670
26.1800 8.7103 0.8544
26.2000 8.7170 0.8530
26.2200 8.7236 0.8626
26.2400 8.7302 0.8568
26.2600 8.7368 0.8581
26.2800 8.7435 0.8658
26.3000 8.7503 0.8523
26.3200 8.7569 0.8536
26.3400 8.7636 0.8590
26.3600 8.7703 0.8556
26.3800 8.7770 0.8516
26.4000 8.7836 0.8560
26.4200 8.7902 0.8565
26.4400 8.7969 0.8562
26.4600 8.8036 0.8538
26.4800 8.8103 0.8567
26.5000 8.8170 0.8464
26.5200 8.8237 0.8593
26.5400 8.8304 0.8609
26.5600 8.8370 0.8430
26.5800 8.8437 0.8558
26.6000 8.8503 0.8593
26.6200 8.8569 0.8456
26.6400 8.8636 0.8525
26.6600 8.8703 0.8596
26.6800 8.8770 0.8407
26.7000 8.8837 0.8559
26.7200 8.8904 0.8528
26.7400 8.8971 0.8410
26.7600 8.9037 0.8573
26.7800 8.9102 0.8516
26.8000 8.9169 0.8377
26.8200 8.9236 0.8594
26.8400 8.9303 0.8484
26.8600 8.9370 0.8360
26.8800 8.9436 0.8584
26.9000 8.9503 0.8486
26.9200 8.9570 0.8393
26.9400 8.9636 0.8586
26.9600 8.9702 0.8430
26.9800 8.9769 0.8469
27.0000 8.9836 0.8557
27.0200 8.9903 0.8392
27.0400 8.9970 0.8452
27.0600 9.0036 0.8520
27.0800 9.0103 0.8351
27.1000 9.0170 0.8463
27.1200 9.0236 0.8496
27.1400 9.0302 0.8359
27.1600 9.0369 0.8448
27.1800 9.0436 0.8478
27.2000 9.0503 0.8360
27.2200 9.0570 0.8454
27.2400 9.0637 0.8445
27.2600 9.0704 0.8379
27.2800 9.0771 0.8421
27.3000 9.0837 0.8375
27.3200 9.0903 0.8400
27.3400 9.0969 0.8429
27.3600 9.1036 0.8372
27.3800 9.1103 0.8366
27.4000 9.1170 0.8406
27.4200 9.1237 0.8379
27.4400 9.1304 0.8373
27.4600 9.1370 0.8347
27.4800 9.1436 0.8360
27.5000 9.1503 0.8437
27.5200 9.1569 0.8377
27.5400 9.1636 0.8273
27.5600 9.1703 0.8400
27.5800 9.1770 0.8312
27.6000 9.1837 0.8297
27.6200 9.1903 0.8417
27.6400 9.1970 0.8312
27.6600 9.2036 0.8260
27.6800 9.2102 0.8400
27.7000 9.2168 0.8260
27.7200 9.2235 0.8291
27.7400 9.2302 0.8394
27.7600 9.2370 0.8230
27.7800 9.2437 0.8258
27.8000 9.2503 0.8338
27.8200 9.2570 0.8194
27.8400 9.2636 0.8293
27.8600 9.2702 0.8342
27.8800 9.2769 0.8232
27.9000 9.2836 0.8314
27.9200 9.2903 0.8273
27.9400 9.2970 0.8209
27.9600 9.3037 0.8317
27.9800 9.3104 0.8283
28.0000 9.3171 0.8152
28.0200 9.3237 0.8263
28.0400 9.3303 0.8235
28.0600 9.3369 0.8203
28.0800 9.3436 0.8276
28.1000 9.3503 0.8185
28.1200 9.3570 0.8195
28.1400 9.3637 0.8199
28.1600 9.3703 0.8238
28.1800 9.3770 0.8237
28.2000 9.3836 0.8145
28.2200 9.3902 0.8228
28.2400 9.3969 0.8192
28.2600 9.4035 0.8162
28.2800 9.4103 0.8239
28.3000 9.4170 0.8186
28.3200 9.4237 0.8139
28.3400 9.4303 0.8190
28.3600 9.4370 0.8148
28.3800 9.4436 0.8158
28.4000 9.4502 0.8207
28.4200 9.4569 0.8170
28.4400 9.4635 0.8096
28.4600 9.4703 0.8201
28.4800 9.4770 0.8115
28.5000 9.4837 0.8122
28.5200 9.4903 0.8213
28.5400 9.4970 0.8074
28.5600 9.5037 0.8108
28.5800 9.5103 0.8206
28.6000 9.5169 0.8123
28.6200 9.5236 0.8128
28.6400 9.5303 0.8152
28.6600 9.5370 0.8049
28.6800 9.5437 0.8120
28.7000 9.5504 0.8195
28.7200 9.5570 0.8066
28.7400 9.5637 0.8122
28.7600 9.5703 0.8155
28.7800 9.5769 0.8058
28.8000 9.5836 0.8103
28.8200 9.5903 0.8168
28.8400 9.5970 0.8072
28.8600 9.6037 0.8063
28.8800 9.6104 0.8116
28.9000 9.6171 0.8054
28.9200 9.6237 0.8101
28.9400 9.6303 0.8066
28.9600 9.6369 0.8053
28.9800 9.6435 0.8105
29.0000 9.6502 0.8009
29.0200 9.6569 0.8042
29.0400 9.6636 0.8124
29.0600 9.6703 0.8030
29.0800 9.6770 0.8003
29.1000 9.6837 0.8067
29.1200 9.6903 0.8029
29.1400 9.6969 0.7999
29.1600 9.7035 0.8070
29.1800 9.7102 0.8037
29.2000 9.7169 0.7997
29.2200 9.7236 0.7987
29.2400 9.7303 0.7999
29.2600 9.7370 0.8043
29.2800 9.7437 0.7961
29.3000 9.7503 0.7957
29.3200 9.7569 0.8067
29.3400 9.7636 0.7953
29.3600 9.7703 0.7948
29.3800 9.7770 0.8071
29.4000 9.7837 0.7963
29.4200 9.7904 0.7894
29.4400 9.7971 0.8064
29.4600 9.8037 0.7938
29.4800 9.8103 0.7942
29.5000 9.8169 0.8056
29.5200 9.8236 0.7855
29.5400 9.8303 0.7885
29.5600 9.8370 0.8064
29.5800 9.8437 0.7872
29.6000 9.8504 0.7868
29.6200 9.8570 0.8025
29.6400 9.8637 0.7843
29.6600 9.8703 0.7917
29.6800 9.8769 0.7989
29.7000 9.8836 0.7838
29.7200 9.8903 0.7901
29.7400 9.8970 0.7963
29.7600 9.9036 0.7819
29.7800 9.9103 0.7959
29.8000 9.9170 0.7969
29.8200 9.9237 0.7740
29.8400 9.9303 0.7885
29.8600 9.9368 0.7931
29.8800 9.9435 0.7820
29.9000 9.9502 0.7911
29.9200 9.9569 0.7818
29.9400 9.9636 0.7826
29.9600 9.9703 0.7869
29.9800 9.9770 0.7819
30.0000 9.9836 0.7844
30.0200 9.9903 0.7851
30.0400 9.9969 0.7833
30.0600 10.0036 0.7844
30.0800 10.0103 0.7779
30.1000 10.0170 0.7804
30.1200 10.0237 0.7897
30.1400 10.0303 0.7794
30.1600 10.0370 0.7776
30.1800 10.0437 0.7826
30.2000 10.0503 0.7780
30.2200 10.0570 0.7771
30.2400 10.0636 0.7801
30.2600 10.0703 0.7757
30.2800 10.0770 0.7805
30.3000 10.0837 0.7754
30.3200 10.0903 0.7714
30.3400 10.0970 0.7843
30.3600 10.1037 0.7712
30.3800 10.1103 0.7689
30.4000 10.1169 0.7865
30.4200 10.1235 0.7724
30.4400 10.1302 0.7725
30.4600 10.1370 0.7778
30.4800 10.1436 0.7740
30.5000 10.1503 0.7700
30.5200 10.1570 0.7787
30.5400 10.1637 0.7684
30.5600 10.1703 0.7710
30.5800 10.1769 0.7788
30.6000 10.1835 0.7715
30.6200 10.1903 0.7702
30.6400 10.1970 0.7753
30.6600 10.2037 0.7690
30.6800 10.2103 0.7678
30.7000 10.2170 0.7730
30.7200 10.2237 0.7716
30.7400 10.2303 0.7698
30.7600 10.2369 0.7694
30.7800 10.2436 0.7632
30.8000 10.2503 0.7742
30.8200 10.2570 0.7668
30.8400 10.2637 0.7646
30.8600 10.2704 0.7747
30.8800 10.2771 0.7649
30.9000 10.2837 0.7626
30.9200 10.2904 0.7704
30.9400 10.2969 0.7693
30.9600 10.3036 0.7663
30.9800 10.3103 0.7665
31.0000 10.3170 0.7704
31.0200 10.3237 0.7665
31.0400 10.3304 0.7597
31.0600 10.3370 0.7686
31.0800 10.3437 0.7665
31.1000 10.3503 0.7590
31.1200 10.3569 0.7672
31.1400 10.3635 0.7672
31.1600 10.3702 0.7602
31.1800 10.3770 0.7700
31.2000 10.3837 0.7616
31.2200 10.3903 0.7586
31.2400 10.3970 0.7643
31.2600 10.4037 0.7649
31.2800 10.4103 0.7537
31.3000 10.4169 0.7657
31.3200 10.4235 0.7653
31.3400 10.4302 0.7529
31.3600 10.4369 0.7693
31.3800 10.4436 0.7607
31.4000 10.4503 0.7573
31.4200 10.4570 0.7657
31.4400 10.4637 0.7553
31.4600 10.4703 0.7573
31.4800 10.4769 0.7613
31.5000 10.4836 0.7581
31.5200 10.4903 0.7590
31.5400 10.4970 0.7598
31.5600 10.5037 0.7530
31.5800 10.5104 0.7595
31.6000 10.5171 0.7593
31.6200 10.5237 0.7536
31.6400 10.5303 0.7616
31.6600 10.5369 0.7569
31.6800 10.5436 0.7529
31.7000 10.5503 0.7599
31.7200 10.5570 0.7512
31.7400 10.5637 0.7573
31.7600 10.5704 0.7553
31.7800 10.5771 0.7502
31.8000 10.5837 0.7549
31.8200 10.5903 0.7521
31.8400 10.5969 0.7554
31.8600 10.6036 0.7557
31.8800 10.6102 0.7511
31.9000 10.6170 0.7445
31.9200 10.6237 0.7579
31.9400 10.6303 0.7499
31.9600 10.6370 0.7523
31.9800 10.6437 0.7505
32.0000 10.6503 0.7428
32.0200 10.6569 0.7499
32.0400 10.6635 0.7511
32.0600 10.6702 0.7407
32.0800 10.6769 0.7563
32.1000 10.6836 0.7537
32.1200 10.6903 0.7346
32.1400 10.6970 0.7464
32.1600 10.7037 0.7557
32.1800 10.7103 0.7334
32.2000 10.7169 0.7508
32.2200 10.7236 0.7483
32.2400 10.7303 0.7331
32.2600 10.7370 0.7536
32.2800 10.7437 0.7406
32.3000 10.7503 0.7344
32.3200 10.7571 0.7529
32.3400 10.7637 0.7399
32.3600 10.7704 0.7352
32.3800 10.7770 0.7479
32.4000 10.7836 0.7439
32.4200 10.7903 0.7356
32.4400 10.7970 0.7483
32.4600 10.8037 0.7369
32.4800 10.8103 0.7338
32.5000 10.8170 0.7447
32.5200 10.8237 0.7336
32.5400 10.8303 0.7374
32.5600 10.8369 0.7409
32.5800 10.8435 0.7385
32.6000 10.8502 0.7332
32.6200 10.8570 0.7397
32.6400 10.8637 0.7402
32.6600 10.8703 0.7320
32.6800 10.8770 0.7361
32.7000 10.8837 0.7305
32.7200 10.8903 0.7326
32.7400 10.8969 0.7412
32.7600 10.9036 0.7279
32.7800 10.9103 0.7339
32.8000 10.9170 0.7385
32.8200 10.9236 0.7304
32.8400 10.9303 0.7298
32.8600 10.9370 0.7407
32.8800 10.9437 0.7288
32.9000 10.9503 0.7238
32.9200 10.9569 0.7354
32.9400 10.9636 0.7319
32.9600 10.9702 0.7226
32.9800 10.9769 0.7344
33.0000 10.9836 0.7309
33.0200 10.9903 0.7256
33.0400 10.9970 0.7290
33.0600 11.0037 0.7259
33.0800 11.0103 0.7242
33.1000 11.0169 0.7300
33.1200 11.0236 0.7237
33.1400 11.0302 0.7266
33.1600 11.0370 0.7272
33.1800 11.0437 0.7194
33.2000 11.0504 0.7253
33.2200 11.0570 0.7243
33.2400 11.0637 0.7175
33.2600 11.0704 0.7271
33.2800 11.0769 0.7251
33.3000 11.0836 0.7155
33.3200 11.0902 0.7233
33.3400 11.0969 0.7191
33.3600 11.1036 0.7204
33.3800 11.1103 0.7216
33.4000 11.1170 0.7175
33.4200 11.1237 0.7122
33.4400 11.1303 0.7240
33.4600 11.1369 0.7196
33.4800 11.1435 0.7095
33.5000 11.1502 0.7237
33.5200 11.1569 0.7177
33.5400 11.1636 0.7109
33.5600 11.1703 0.7215
33.5800 11.1770 0.7129
33.6000 11.1837 0.7105
33.6200 11.1903 0.7170
33.6400 11.1969 0.7137
33.6600 11.2036 0.7116
33.6800 11.2103 0.7160
33.7000 11.2170 0.7092
33.7200 11.2237 0.7095
33.7400 11.2304 0.7126
33.7600 11.2371 0.7031
33.7800 11.2437 0.7110
33.8000 11.2504 0.7121
33.8200 11.2569 0.7041
33.8400 11.2636 0.7101
33.8600 11.2702 0.7072
33.8800 11.2769 0.7048
33.9000 11.2836 0.7084
33.9200 11.2903 0.7070
33.9400 11.2970 0.7007
33.9600 11.3037 0.7050
33.9800 11.3104 0.7062
34.0000 11.3170 0.7008
34.0200 11.3236 0.7012
34.0400 11.3302 0.7073
34.0600 11.3369 0.7038
34.0800 11.3436 0.6978
34.1000 11.3503 0.7040
34.1200 11.3570 0.7018
34.1400 11.3637 0.7003
34.1600 11.3704 0.7014
34.1800 11.3769 0.6993
34.2000 11.3835 0.6995
34.2200 11.3902 0.7054
34.2400 11.3969 0.6938
34.2600 11.4036 0.7004
34.2800 11.4103 0.7025
34.3000 11.4170 0.6945
34.3200 11.4236 0.6990
34.3400 11.4303 0.7019
34.3600 11.4369 0.6994
34.3800 11.4436 0.6964
34.4000 11.4502 0.6963
34.4200 11.4570 0.6967
34.4400 11.4637 0.6950
34.4600 11.4704 0.6978
34.4800 11.4770 0.6943
34.5000 11.4837 0.6939
34.5200 11.4904 0.6925
34.5400 11.4970 0.6986
34.5600 11.5036 0.6993
34.5800 11.5102 0.6900
34.6000 11.5170 0.6978
34.6200 11.5237 0.6963
34.6400 11.5304 0.6910
34.6600 11.5370 0.6954
34.6800 11.5437 0.6922
34.7000 11.5503 0.6948
34.7200 11.5569 0.6954
34.7400 11.5635 0.6891
34.7600 11.5702 0.6942
34.7800 11.5769 0.6956
34.8000 11.5836 0.6851
34.8200 11.5903 0.6965
34.8400 11.5970 0.6947
34.8600 11.6036 0.6825
34.8800 11.6103 0.6972
34.9000 11.6169 0.6864
34.9200 11.6235 0.6861
34.9400 11.6302 0.6982
34.9600 11.6369 0.6827
34.9800 11.6436 0.6835
35.0000 11.6503 0.6970
35.0200 11.6570 0.6807
35.0400 11.6637 0.6845
35.0600 11.6704 0.6956
35.0800 11.6770 0.6806
35.1000 11.6836 0.6829
35.1200 11.6902 0.6954
35.1400 11.6969 0.6786
35.1600 11.7036 0.6838
35.1800 11.7103 0.6919
35.2000 11.7170 0.6786
35.2200 11.7237 0.6849
35.2400 11.7304 0.6853
35.2600 11.7370 0.6821
35.2800 11.7436 0.6870
35.3000 11.7502 0.6827
35.3200 11.7569 0.6803
35.3400 11.7637 0.6803
35.3600 11.7704 0.6760
35.3800 11.7770 0.6823
35.4000 11.7837 0.6807
35.4200 11.7904 0.6772
35.4400 11.7970 0.6836
35.4600 11.8036 0.6743
35.4800 11.8103 0.6753
35.5000 11.8169 0.6812
35.5200 11.8236 0.6731
35.5400 11.8303 0.6764
35.5600 11.8370 0.6789
35.5800 11.8437 0.6728
35.6000 11.8504 0.6772
35.6200 11.8570 0.6760
35.6400 11.8635 0.6694
35.6600 11.8702 0.6785
35.6800 11.8769 0.6739
35.7000 11.8836 0.6677
35.7200 11.8903 0.6760
35.7400 11.8970 0.6756
35.7600 11.9037 0.6639
35.7800 11.9103 0.6765
35.8000 11.9169 0.6698
35.8200 11.9236 0.6707
35.8400 11.9302 0.6765
35.8600 11.9369 0.6645
35.8800 11.9436 0.6733
35.9000 11.9503 0.6758
35.9200 11.9570 0.6604
35.9400 11.9637 0.6699
35.9600 11.9704 0.6716
35.9800 11.9770 0.6649
36.0000 11.9836 0.6709
36.0200 11.9902 0.6689
36.0400 11.9969 0.6648
36.0600 12.0036 0.6725
36.0800 12.0103 0.6583
36.1000 12.0170 0.6659
36.1200 12.0237 0.6764
36.1400 12.0304 0.6504
36.1600 12.0370 0.6660
36.1800 12.0436 0.6904
36.2000 12.0502 0.6423
36.2200 12.0569 0.6616
36.2400 12.0637 0.6879
36.2600 12.0703 0.6386
36.2800 12.0770 0.6638
36.3000 12.0837 0.6925
36.3200 12.0903 0.6353
36.3400 12.0970 0.6611
36.3600 12.1036 0.6995
36.3800 12.1102 0.6262
36.4000 12.1169 0.6559
36.4200 12.1236 0.6984
36.4400 12.1303 0.6326
36.4600 12.1369 0.6450
36.4800 12.1436 0.6981
36.5000 12.1503 0.6361
36.5200 12.1570 0.6480
36.5400 12.1636 0.6855
36.5600 12.1702 0.6442
36.5800 12.1769 0.6506
36.6000 12.1836 0.6755
36.6200 12.1903 0.6423
36.6400 12.1970 0.6584
36.6600 12.2037 0.6719
36.6800 12.2104 0.6380
36.7000 12.2170 0.6508
36.7200 12.2236 0.6718
36.7400 12.2302 0.6438
36.7600 12.2370 0.6498
36.7800 12.2437 0.6634
36.8000 12.2504 0.6457
36.8200 12.2570 0.6489
36.8400 12.2637 0.6632
36.8600 12.2703 0.6376
36.8800 12.2770 0.6504
36.9000 12.2836 0.6638
36.9200 12.2902 0.6307
36.9400 12.2969 0.6468
36.9600 12.3036 0.6608
36.9800 12.3103 0.6381
37.0000 12.3170 0.6460
37.0200 12.3237 0.6499
37.0400 12.3304 0.6400
37.0600 12.3370 0.6508
37.0800 12.3436 0.6470
37.1000 12.3502 0.6444
37.1200 12.3569 0.6521
37.1400 12.3636 0.6430
37.1600 12.3703 0.6418
37.1800 12.3770 0.6500
37.2000 12.3837 0.6388
37.2200 12.3904 0.6444
37.2400 12.3970 0.6433
37.2600 12.4036 0.6385
37.2800 12.4102 0.6446
37.3000 12.4169 0.6407
37.3200 12.4236 0.6397
37.3400 12.4303 0.6475
37.3600 12.4370 0.6345
37.3800 12.4437 0.6334
37.4000 12.4504 0.6461
37.4200 12.4570 0.6380
37.4400 12.4636 0.6344
37.4600 12.4703 0.6435
37.4800 12.4770 0.6332
37.5000 12.4837 0.6383
37.5200 12.4903 0.6416
37.5400 12.4970 0.6312
37.5600 12.5037 0.6406
37.5800 12.5104 0.6333
37.6000 12.5170 0.6343
37.6200 12.5236 0.6380
37.6400 12.5302 0.6308
37.6600 12.5369 0.6337
37.6800 12.5436 0.6356
37.7000 12.5503 0.6329
37.7200 12.5570 0.6288
37.7400 12.5637 0.6331
37.7600 12.5703 0.6324
37.7800 12.5770 0.6314
37.8000 12.5835 0.6308
37.8200 12.5902 0.6263
37.8400 12.5968 0.6347
37.8600 12.6036 0.6297
37.8800 12.6103 0.6253
37.9000 12.6169 0.6290
37.9200 12.6236 0.6270
37.9400 12.6303 0.6293
37.9600 12.6370 0.6317
37.9800 12.6436 0.6223
38.0000 12.6502 0.6269
38.0200 12.6569 0.6296
38.0400 12.6636 0.6251
38.0600 12.6703 0.6232
38.0800 12.6770 0.6280
38.1000 12.6837 0.6221
38.1200 12.6904 0.6230
38.1400 12.6971 0.6205
38.1600 12.7036 0.6228
38.1800 12.7102 0.6235
38.2000 12.7169 0.6173
38.2200 12.7236 0.6226
38.2400 12.7303 0.6172
38.2600 12.7370 0.6175
38.2800 12.7437 0.6269
38.3000 12.7504 0.6140
38.3200 12.7570 0.6122
38.3400 12.7636 0.6326
38.3600 12.7702 0.6118
38.3800 12.7769 0.6133
38.4000 12.7836 0.6326
38.4200 12.7903 0.6101
38.4400 12.7970 0.6127
38.4600 12.8037 0.6309
38.4800 12.8103 0.6037
38.5000 12.8170 0.6159
38.5200 12.8236 0.6280
38.5400 12.8302 0.5985
38.5600 12.8369 0.6156
38.5800 12.8436 0.6291
38.6000 12.8503 0.5950
38.6200 12.8570 0.6167
38.6400 12.8636 0.6285
38.6600 12.8703 0.6008
38.6800 12.8770 0.6069
38.7000 12.8836 0.6211
38.7200 12.8902 0.6061
38.7400 12.8969 0.6134
38.7600 12.9036 0.6105
38.7800 12.9103 0.6014
38.8000 12.9170 0.6131
38.8200 12.9237 0.6177
38.8400 12.9304 0.5991
38.8600 12.9370 0.6089
38.8800 12.9436 0.6137
38.9000 12.9502 0.6023
38.9200 12.9569 0.6034
38.9400 12.9636 0.6097
38.9600 12.9704 0.6072
38.9800 12.9770 0.6034
39.0000 12.9837 0.6012
39.0200 12.9904 0.6021
39.0400 12.9970 0.6116
39.0600 13.0036 0.6049
39.0800 13.0102 0.5933
39.1000 13.0169 0.6086
39.1200 13.0236 0.6072
39.1400 13.0303 0.5944
39.1600 13.0369 0.6021
39.1800 13.0436 0.6058
39.2000 13.0503 0.6004
39.2200 13.0570 0.5962
39.2400 13.0636 0.6029
39.2600 13.0702 0.6005
39.2800 13.0769 0.5983
39.3000 13.0836 0.5961
39.3200 13.0903 0.5966
39.3400 13.0970 0.5952
39.3600 13.1037 0.5982
39.3800 13.1104 0.5942
39.4000 13.1170 0.5914
39.4200 13.1236 0.5945
39.4400 13.1302 0.5936
39.4600 13.1369 0.5943
39.4800 13.1436 0.5957
39.5000 13.1503 0.5859
39.5200 13.1570 0.5946
39.5400 13.1637 0.5953
39.5600 13.1704 0.5891
39.5800 13.1770 0.5918
39.6000 13.1836 0.5957
39.6200 13.1902 0.5811
39.6400 13.1969 0.5860
39.6600 13.2036 0.5988
39.6800 13.2103 0.5867
39.7000 13.2170 0.5808
39.7200 13.2237 0.5949
39.7400 13.2304 0.5839
39.7600 13.2370 0.5833
39.7800 13.2436 0.5910
39.8000 13.2502 0.5874
39.8200 13.2569 0.5847
39.8400 13.2636 0.5874
39.8600 13.2703 0.5845
39.8800 13.2770 0.5796
39.9000 13.2837 0.5878
39.9200 13.2904 0.5821
39.9400 13.2970 0.5750
39.9600 13.3036 0.5883
39.9800 13.3102 0.5832
40.0000 13.3168 0.5773
40.0200 13.3235 0.5887
40.0400 13.3303 0.5785
40.0600 13.3370 0.5749
40.0800 13.3436 0.5847
40.1000 13.3503 0.5777
40.1200 13.3570 0.5705
40.1400 13.3636 0.5863
40.1600 13.3702 0.5772
40.1800 13.3769 0.5668
40.2000 13.3836 0.5824
40.2200 13.3903 0.5802
40.2400 13.3970 0.5653
40.2600 13.4037 0.5795
40.2800 13.4104 0.5727
40.3000 13.4171 0.5642
40.3200 13.4237 0.5808
40.3400 13.4303 0.5768
40.3600 13.4369 0.5650
40.3800 13.4436 0.5793
40.4000 13.4503 0.5731
40.4200 13.4570 0.5630
40.4400 13.4637 0.5749
40.4600 13.4704 0.5689
40.4800 13.4770 0.5606
40.5000 13.4836 0.5728
40.5200 13.4902 0.5658
40.5400 13.4969 0.5677
40.5600 13.5036 0.5783
40.5800 13.5103 0.5584
40.6000 13.5169 0.5642
40.6200 13.5236 0.5747
40.6400 13.5303 0.5554
40.6600 13.5370 0.5626
40.6800 13.5436 0.5722
40.7000 13.5502 0.5570
40.7200 13.5569 0.5598
40.7400 13.5635 0.5678
40.7600 13.5703 0.5580
40.7800 13.5770 0.5599
40.8000 13.5836 0.5650
40.8200 13.5903 0.5539
40.8400 13.5970 0.5606
40.8600 13.6036 0.5635
40.8800 13.6102 0.5588
40.9000 13.6169 0.5576
40.9200 13.6236 0.5613
40.9400 13.6303 0.5562
40.9600 13.6370 0.5554
40.9800 13.6437 0.5557
41.0000 13.6504 0.5561
41.0200 13.6570 0.5535
41.0400 13.6637 0.5548
41.0600 13.6703 0.5540
41.0800 13.6769 0.5520
41.1000 13.6836 0.5566
41.1200 13.6903 0.5566
41.1400 13.6970 0.5481
41.1600 13.7037 0.5594
41.1800 13.7104 0.5544
41.2000 13.7170 0.5487
41.2200 13.7237 0.5541
41.2400 13.7303 0.5528
41.2600 13.7369 0.5515
41.2800 13.7435 0.5538
41.3000 13.7503 0.5511
41.3200 13.7570 0.5499
41.3400 13.7636 0.5524
41.3600 13.7703 0.5441
41.3800 13.7770 0.5473
41.4000 13.7836 0.5489
41.4200 13.7902 0.5483
41.4400 13.7968 0.5500
41.4600 13.8035 0.5487
41.4800 13.8102 0.5464
41.5000 13.8169 0.5472
41.5200 13.8237 0.5456
41.5400 13.8304 0.5430
41.5600 13.8370 0.5443
41.5800 13.8437 0.5420
41.6000 13.8503 0.5402
41.6200 13.8569 0.5496
41.6400 13.8636 0.5413
41.6600 13.8703 0.5483
41.6800 13.8770 0.5446
41.7000 13.8837 0.5376
41.7200 13.8904 0.5411
41.7400 13.8971 0.5443
41.7600 13.9037 0.5304
41.7800 13.9103 0.5471
41.8000 13.9169 0.5412
41.8200 13.9236 0.5299
41.8400 13.9303 0.5444
41.8600 13.9370 0.5364
41.8800 13.9437 0.5337
41.9000 13.9504 0.5442
41.9200 13.9570 0.5299
41.9400 13.9637 0.5312
41.9600 13.9703 0.5481
41.9800 13.9769 0.5315
42.0000 13.9836 0.5296
42.0200 13.9903 0.5406
42.0400 13.9970 0.5289
42.0600 14.0037 0.5319
42.0800 14.0103 0.5377
42.1000 14.0170 0.5263
42.1200 14.0237 0.5308
42.1400 14.0303 0.5360
42.1600 14.0369 0.5253
42.1800 14.0435 0.5312
42.2000 14.0502 0.5318
42.2200 14.0569 0.5257
42.2400 14.0636 0.5271
42.2600 14.0703 0.5272
42.2800 14.0770 0.5306
42.3000 14.0836 0.5239
42.3200 14.0903 0.5240
42.3400 14.0969 0.5278
42.3600 14.1036 0.5264
42.3800 14.1103 0.5219
42.4000 14.1170 0.5251
42.4200 14.1237 0.5203
42.4400 14.1304 0.5261
42.4600 14.1371 0.5213
42.4800 14.1437 0.5195
42.5000 14.1503 0.5252
42.5200 14.1569 0.5261
42.5400 14.1636 0.5102
42.5600 14.1703 0.5241
42.5800 14.1770 0.5223
42.6000 14.1837 0.5125
42.6200 14.1904 0.5257
42.6400 14.1970 0.5150
42.6600 14.2037 0.5096
42.6800 14.2103 0.5257
42.7000 14.2169 0.5159
42.7200 14.2235 0.5086
42.7400 14.2302 0.5209
42.7600 14.2370 0.5145
42.7800 14.2436 0.5105
42.8000 14.2503 0.5207
42.8200 14.2570 0.5093
42.8400 14.2637 0.5074
42.8600 14.2703 0.5177
42.8800 14.2769 0.5116
42.9000 14.2835 0.5072
42.9200 14.2903 0.5105
42.9400 14.2970 0.5095
42.9600 14.3036 0.5080
42.9800 14.3103 0.5100
43.0000 14.3170 0.5077
43.0200 14.3237 0.5023
43.0400 14.3303 0.5079
43.0600 14.3369 0.5136
43.0800 14.3436 0.5001
43.1000 14.3503 0.5049
43.1200 14.3570 0.5116
43.1400 14.3637 0.5019
43.1600 14.3704 0.5041
43.1800 14.3771 0.5086
43.2000 14.3837 0.4950
43.2200 14.3903 0.5024
43.2400 14.3969 0.5063
43.2600 14.4036 0.4964
43.2800 14.4103 0.5034
43.3000 14.4170 0.5087
43.3200 14.4237 0.4897
43.3400 14.4304 0.4990
43.3600 14.4371 0.5109
43.3800 14.4437 0.4905
43.4000 14.4503 0.4993
43.4200 14.4569 0.5087
43.4400 14.4636 0.4904
43.4600 14.4703 0.4935
43.4800 14.4770 0.5035
43.5000 14.4836 0.4902
43.5200 14.4903 0.4944
43.5400 14.4970 0.5024
43.5600 14.5036 0.4880
43.5800 14.5103 0.4922
43.6000 14.5169 0.5001
43.6200 14.5235 0.4883
43.6400 14.5302 0.4942
43.6600 14.5369 0.4919
43.6800 14.5436 0.4850
43.7000 14.5503 0.4937
43.7200 14.5570 0.4916
43.7400 14.5637 0.4832
43.7600 14.5703 0.4930
43.7800 14.5769 0.4895
43.8000 14.5836 0.4812
43.8200 14.5902 0.4888
43.8400 14.5969 0.4876
43.8600 14.6036 0.4836
43.8800 14.6103 0.4865
43.9000 14.6171 0.4802
43.9200 14.6237 0.4822
43.9400 14.6303 0.4868
43.9600 14.6369 0.4823
43.9800 14.6436 0.4823
44.0000 14.6503 0.4862
44.0200 14.6570 0.4756
44.0400 14.6637 0.4808
44.0600 14.6704 0.4867
44.0800 14.6770 0.4789
44.1000 14.6837 0.4764
44.1200 14.6903 0.4810
44.1400 14.6969 0.4762
44.1600 14.7036 0.4777
44.1800 14.7102 0.4791
44.2000 14.7170 0.4743
44.2200 14.7237 0.4766
44.2400 14.7303 0.4809
44.2600 14.7370 0.4733
44.2800 14.7437 0.4723
44.3000 14.7503 0.4756
44.3200 14.7569 0.4777
44.3400 14.7635 0.4738
44.3600 14.7702 0.4711
44.3800 14.7769 0.4752
44.4000 14.7836 0.4676
44.4200 14.7903 0.4743
44.4400 14.7970 0.4711
44.4600 14.8036 0.4644
44.4800 14.8102 0.4705
44.5000 14.8169 0.4742
44.5200 14.8235 0.4656
44.5400 14.8303 0.4701
44.5600 14.8370 0.4689
44.5800 14.8437 0.4646
44.6000 14.8504 0.4682
44.6200 14.8570 0.4654
44.6400 14.8637 0.4625
44.6600 14.8703 0.4704
44.6800 14.8769 0.4654
44.7000 14.8836 0.4619
44.7200 14.8903 0.4664
44.7400 14.8970 0.4647
44.7600 14.9037 0.4636
44.7800 14.9104 0.4651
44.8000 14.9171 0.4589
44.8200 14.9237 0.4616
44.8400 14.9303 0.4580
44.8600 14.9369 0.4573
44.8800 14.9435 0.4646
44.9000 14.9502 0.4595
44.9200 14.9569 0.4579
44.9400 14.9636 0.4554
44.9600 14.9703 0.4529
44.9800 14.9770 0.4629
45.0000 14.9837 0.4542
45.0200 14.9903 0.4506
45.0400 14.9969 0.4634
45.0600 15.0036 0.4517
45.0800 15.0103 0.4494
45.1000 15.0170 0.4584
45.1200 15.0237 0.4517
45.1400 15.0303 0.4472
45.1600 15.0370 0.4631
45.1800 15.0437 0.4503
45.2000 15.0503 0.4459
45.2200 15.0570 0.4602
45.2400 15.0636 0.4473
45.2600 15.0703 0.4460
45.2800 15.0770 0.4596
45.3000 15.0837 0.4411
45.3200 15.0903 0.4479
45.3400 15.0970 0.4559
45.3600 15.1037 0.4422
45.3800 15.1103 0.4503
45.4000 15.1169 0.4507
45.4200 15.1235 0.4430
45.4400 15.1302 0.4511
45.4600 15.1370 0.4447
45.4800 15.1437 0.4372
45.5000 15.1504 0.4492
45.5200 15.1570 0.4447
45.5400 15.1637 0.4339
45.5600 15.1703 0.4494
45.5800 15.1769 0.4429
45.6000 15.1836 0.4369
45.6200 15.1903 0.4453
45.6400 15.1970 0.4406
45.6600 15.2037 0.4345
45.6800 15.2103 0.4416
45.7000 15.2170 0.4388
45.7200 15.2237 0.4347
45.7400 15.2303 0.4373
45.7600 15.2369 0.4393
45.7800 15.2436 0.4382
45.8000 15.2502 0.4334
45.8200 15.2569 0.4355
45.8400 15.2636 0.4344
45.8600 15.2703 0.4284
45.8800 15.2770 0.4360
45.9000 15.2837 0.4337
45.9200 15.2903 0.4238
45.9400 15.2969 0.4348
45.9600 15.3036 0.4347
45.9800 15.3102 0.4255
46.0000 15.3170 0.4286
46.0200 15.3237 0.4303
46.0400 15.3304 0.4234
46.0600 15.3370 0.4260
46.0800 15.3437 0.4335
46.1000 15.3503 0.4236
46.1200 15.3569 0.4237
46.1400 15.3636 0.4306
46.1600 15.3703 0.4203
46.1800 15.3770 0.4238
46.2000 15.3837 0.4242
46.2200 15.3904 0.4201
46.2400 15.3970 0.4221
46.2600 15.4037 0.4258
46.2800 15.4103 0.4158
46.3000 15.4169 0.4237
46.3200 15.4235 0.4255
46.3400 15.4302 0.4162
46.3600 15.4369 0.4210
46.3800 15.4437 0.4245
46.4000 15.4503 0.4168
46.4200 15.4570 0.4180
46.4400 15.4637 0.4181
46.4600 15.4703 0.4177
46.4800 15.4769 0.4184
46.5000 15.4835 0.4185
46.5200 15.4902 0.4166
46.5400 15.4969 0.4154
46.5600 15.5036 0.4140
46.5800 15.5103 0.4163
46.6000 15.5170 0.4118
46.6200 15.5237 0.4104
46.6400 15.5303 0.4168
46.6600 15.5369 0.4085
46.6800 15.5436 0.4096
46.7000 15.5502 0.4192
46.7200 15.5569 0.4045
46.7400 15.5636 0.4068
46.7600 15.5703 0.4139
46.7800 15.5770 0.4040
46.8000 15.5837 0.4087
46.8200 15.5904 0.4091
46.8400 15.5970 0.3983
46.8600 15.6036 0.4096
46.8800 15.6103 0.4100
46.9000 15.6170 0.3952
46.9200 15.6237 0.4072
46.9400 15.6304 0.4072
46.9600 15.6371 0.3934
46.9800 15.6437 0.4034
47.0000 15.6503 0.4045
47.0200 15.6569 0.3941
47.0400 15.6635 0.4025
47.0600 15.6702 0.4009
47.0800 15.6769 0.3951
47.1000 15.6837 0.4033
47.1200 15.6903 0.3974
47.1400 15.6970 0.3914
47.1600 15.7037 0.4003
47.1800 15.7103 0.3955
47.2000 15.7169 0.3881
47.2200 15.7236 0.4024
47.2400 15.7302 0.3977
47.2600 15.7369 0.3855
47.2800 15.7436 0.3960
47.3000 15.7503 0.3907
47.3200 15.7570 0.3891
47.3400 15.7637 0.3958
47.3600 15.7703 0.3848
47.3800 15.7770 0.3842
47.4000 15.7836 0.3928
47.4200 15.7902 0.3891
47.4400 15.7970 0.3793
47.4600 15.8037 0.3914
47.4800 15.8103 0.3877
47.5000 15.8170 0.3776
47.5200 15.8237 0.3894
47.5400 15.8303 0.3827
47.5600 15.8369 0.3787
47.5800 15.8435 0.3901
47.6000 15.8502 0.3788
47.6200 15.8570 0.3766
47.6400 15.8637 0.3844
47.6600 15.8704 0.3818
47.6800 15.8771 0.3722
47.7000 15.8837 0.3824
47.7200 15.8904 0.3776
47.7400 15.8970 0.3728
47.7600 15.9036 0.3798
47.7800 15.9102 0.3801
47.8000 15.9169 0.3719
47.8200 15.9236 0.3742
47.8400 15.9303 0.3789
47.8600 15.9370 0.3751
47.8800 15.9437 0.3775
47.9000 15.9503 0.3765
47.9200 15.9569 0.3660
47.9400 15.9635 0.3812
47.9600 15.9702 0.3750
47.9800 15.9769 0.3637
48.0000 15.9836 0.3733
48.0200 15.9903 0.3742
48.0400 15.9970 0.3601
48.0600 16.0037 0.3730
48.0800 16.0103 0.3732
48.1000 16.0169 0.3592
48.1200 16.0236 0.3712
48.1400 16.0303 0.3718
48.1600 16.0370 0.3586
48.1800 16.0437 0.3675
48.2000 16.0504 0.3686
48.2200 16.0570 0.3603
48.2400 16.0637 0.3705
48.2600 16.0704 0.3657
48.2800 16.0770 0.3524
48.3000 16.0836 0.3686
48.3200 16.0902 0.3666
48.3400 16.0969 0.3522
48.3600 16.1036 0.3712
48.3800 16.1103 0.3608
48.4000 16.1170 0.3546
48.4200 16.1237 0.3642
48.4400 16.1304 0.3614
48.4600 16.1370 0.3535
48.4800 16.1436 0.3680
48.5000 16.1502 0.3560
48.5200 16.1569 0.3510
48.5400 16.1636 0.3605
48.5600 16.1703 0.3543
48.5800 16.1770 0.3510
48.6000 16.1837 0.3566
48.6200 16.1904 0.3487
48.6400 16.1969 0.3528
48.6600 16.2035 0.3548
48.6800 16.2102 0.3531
48.7000 16.2169 0.3546
48.7200 16.2236 0.3518
48.7400 16.2303 0.3502
48.7600 16.2370 0.3522
48.7800 16.2437 0.3462
48.8000 16.2503 0.3476
48.8200 16.2570 0.3500
48.8400 16.2636 0.3447
48.8600 16.2702 0.3531
48.8800 16.2769 0.3446
48.9000 16.2836 0.3412
48.9200 16.2903 0.3497
48.9400 16.2970 0.3433
48.9600 16.3037 0.3379
48.9800 16.3104 0.3482
49.0000 16.3170 0.3369
49.0200 16.3236 0.3326
49.0400 16.3302 0.3492
49.0600 16.3369 0.3344
49.0800 16.3437 0.3333
49.1000 16.3504 0.3440
49.1200 16.3570 0.3294
49.1400 16.3637 0.3389
49.1600 16.3703 0.3430
49.1800 16.3769 0.3252
49.2000 16.3835 0.3364
49.2200 16.3902 0.3424
49.2400 16.3969 0.3234
49.2600 16.4036 0.3347
49.2800 16.4103 0.3361
49.3000 16.4169 0.3265
49.3200 16.4236 0.3348
49.3400 16.4303 0.3323
49.3600 16.4369 0.3211
49.3800 16.4436 0.3339
49.4000 16.4502 0.3302
49.4200 16.4569 0.3208
49.4400 16.4636 0.3258
49.4600 16.4703 0.3261
49.4800 16.4770 0.3188
49.5000 16.4837 0.3251
49.5200 16.4904 0.3217
49.5400 16.4970 0.3195
49.5600 16.5036 0.3261
49.5800 16.5102 0.3218
49.6000 16.5169 0.3210
49.6200 16.5237 0.3200
49.6400 16.5304 0.3151
49.6600 16.5370 0.3171
49.6800 16.5437 0.3157
49.7000 16.5504 0.3165
49.7200 16.5570 0.3213
49.7400 16.5636 0.3130
49.7600 16.5702 0.3165
49.7800 16.5769 0.3185
49.8000 16.5836 0.3082
49.8200 16.5903 0.3100
49.8400 16.5970 0.3216
49.8600 16.6037 0.3052
49.8800 16.6104 0.3087
49.9000 16.6170 0.3140
49.9200 16.6236 0.3057
49.9400 16.6303 0.3137
49.9600 16.6369 0.3106
49.9800 16.6436 0.3056
50.0000 16.6503 0.3143
50.0200 16.6570 0.3064
50.0400 16.6637 0.3030
50.0600 16.6704 0.3088
50.0800 16.6770 0.3011
50.1000 16.6836 0.3008
50.1200 16.6902 0.3080
50.1400 16.6969 0.2994
50.1600 16.7036 0.3023
50.1800 16.7103 0.3026
50.2000 16.7170 0.2956
50.2200 16.7237 0.2992
50.2400 16.7303 0.2997
50.2600 16.7370 0.2962
50.2800 16.7436 0.2992
50.3000 16.7502 0.2985
50.3200 16.7569 0.2951
50.3400 16.7636 0.2907
50.3600 16.7703 0.2911
50.3800 16.7770 0.2966
50.4000 16.7837 0.2877
50.4200 16.7904 0.2877
50.4400 16.7970 0.2911
50.4600 16.8036 0.2926
50.4800 16.8103 0.2844
50.5000 16.8169 0.2901
50.5200 16.8236 0.2910
50.5400 16.8303 0.2825
50.5600 16.8370 0.2889
50.5800 16.8437 0.2904
50.6000 16.8504 0.2778
50.6200 16.8570 0.2855
50.6400 16.8636 0.2870
50.6600 16.8702 0.2796
50.6800 16.8769 0.2813
50.7000 16.8836 0.2770
50.7200 16.8904 0.2768
50.7400 16.8970 0.2778
50.7600 16.9037 0.2772
50.7800 16.9103 0.2780
50.8000 16.9170 0.2759
50.8200 16.9236 0.2755
50.8400 16.9302 0.2784
50.8600 16.9369 0.2740
50.8800 16.9436 0.2695
50.9000 16.9503 0.2737
50.9200 16.9569 0.2741
50.9400 16.9636 0.2674
50.9600 16.9703 0.2747
50.9800 16.9770 0.2696
51.0000 16.9836 0.2662
51.0200 16.9902 0.2740
51.0400 16.9969 0.2694
51.0600 17.0036 0.2684
51.0800 17.0103 0.2714
51.1000 17.0170 0.2639
51.1200 17.0237 0.2690
51.1400 17.0304 0.2654
51.1600 17.0370 0.2596
51.1800 17.0436 0.2693
51.2000 17.0502 0.2701
51.2200 17.0569 0.2587
51.2400 17.0636 0.2663
51.2600 17.0703 0.2642
51.2800 17.0770 0.2574
51.3000 17.0837 0.2649
51.3200 17.0904 0.2599
51.3400 17.0970 0.2577
51.3600 17.1036 0.2678
51.3800 17.1102 0.2537
51.4000 17.1169 0.2577
51.4200 17.1236 0.2588
51.4400 17.1303 0.2580
51.4600 17.1370 0.2543
51.4800 17.1437 0.2578
51.5000 17.1504 0.2537
51.5200 17.1570 0.2565
51.5400 17.1636 0.2570
51.5600 17.1702 0.2520
51.5800 17.1769 0.2534
51.6000 17.1836 0.2515
51.6200 17.1903 0.2471
51.6400 17.1970 0.2563
51.6600 17.2037 0.2472
51.6800 17.2104 0.2432
51.7000 17.2170 0.2521
51.7200 17.2236 0.2434
51.7400 17.2302 0.2505
51.7600 17.2369 0.2502
51.7800 17.2436 0.2429
51.8000 17.2503 0.2434
51.8200 17.2570 0.2458
51.8400 17.2637 0.2424
51.8600 17.2704 0.2459
51.8800 17.2770 0.2368
51.9000 17.2836 0.2404
51.9200 17.2903 0.2411
51.9400 17.2969 0.2356
51.9600 17.3036 0.2398
51.9800 17.3103 0.2366
52.0000 17.3170 0.2363
52.0200 17.3237 0.2362
52.0400 17.3304 0.2309
52.0600 17.3370 0.2379
52.0800 17.3436 0.2344
52.1000 17.3502 0.2334
52.1200 17.3569 0.2253
52.1400 17.3636 0.2344
52.1600 17.3703 0.2293
52.1800 17.3770 0.2225
52.2000 17.3837 0.2372
52.2200 17.3903 0.2255
52.2400 17.3970 0.2188
52.2600 17.4036 0.2338
52.2800 17.4102 0.2219
52.3000 17.4169 0.2247
52.3200 17.4236 0.2286
52.3400 17.4303 0.2159
52.3600 17.4369 0.2251
52.3800 17.4436 0.2286
52.4000 17.4503 0.2104
52.4200 17.4570 0.2229
52.4400 17.4636 0.2243
52.4600 17.4702 0.2114
52.4800 17.4769 0.2252
52.5000 17.4836 0.2184
52.5200 17.4903 0.2053
52.5400 17.4970 0.2267
52.5600 17.5037 0.2141
52.5800 17.5104 0.2033
52.6000 17.5171 0.2224
52.6200 17.5237 0.2111
52.6400 17.5303 0.2049
52.6600 17.5369 0.2209
52.6800 17.5436 0.2096
52.7000 17.5503 0.2061
52.7200 17.5570 0.2149
52.7400 17.5637 0.2055
52.7600 17.5704 0.2099
52.7800 17.5770 0.2134
52.8000 17.5836 0.2059
52.8200 17.5902 0.2081
52.8400 17.5969 0.2138
52.8600 17.6036 0.2003
52.8800 17.6103 0.2079
52.9000 17.6170 0.2050
52.9200 17.6237 0.1998
52.9400 17.6303 0.2082
52.9600 17.6370 0.2012
52.9800 17.6436 0.1983
53.0000 17.6502 0.2076
53.0200 17.6569 0.1988
53.0400 17.6636 0.1995
53.0600 17.6703 0.2033
53.0800 17.6770 0.1922
53.1000 17.6836 0.1988
53.1200 17.6903 0.2015
53.1400 17.6970 0.1894
53.1600 17.7036 0.1984
53.1800 17.7102 0.1995
53.2000 17.7169 0.1856
53.2200 17.7236 0.1981
53.2400 17.7303 0.1928
53.2600 17.7370 0.1831
53.2800 17.7437 0.1997
53.3000 17.7504 0.1861
53.3200 17.7570 0.1824
53.3400 17.7636 0.2010
53.3600 17.7702 0.1850
53.3800 17.7769 0.1835
53.4000 17.7836 0.1954
53.4200 17.7904 0.1778
53.4400 17.7971 0.1803
53.4600 17.8037 0.1964
53.4800 17.8104 0.1757
53.5000 17.8170 0.1819
53.5200 17.8236 0.1869
53.5400 17.8302 0.1749
53.5600 17.8369 0.1877
53.5800 17.8436 0.1807
53.6000 17.8503 0.1705
53.6200 17.8569 0.1844
53.6400 17.8636 0.1762
53.6600 17.8703 0.1759
53.6800 17.8770 0.1771
53.7000 17.8836 0.1723
53.7200 17.8902 0.1753
53.7400 17.8969 0.1784
53.7600 17.9036 0.1667
53.7800 17.9103 0.1740
53.8000 17.9170 0.1737
53.8200 17.9237 0.1626
53.8400 17.9303 0.1740
53.8600 17.9370 0.1681
53.8800 17.9436 0.1646
53.9000 17.9502 0.1720
53.9200 17.9569 0.1658
53.9400 17.9636 0.1631
53.9600 17.9703 0.1674
53.9800 17.9770 0.1618
54.0000 17.9837 0.1597
54.0200 17.9904 0.1709
54.0400 17.9970 0.1615
54.0600 18.0037 0.1588
54.0800 18.0103 0.1674
54.1000 18.0169 0.1555
54.1200 18.0236 0.1648
54.1400 18.0303 0.1616
54.1600 18.0370 0.1514
54.1800 18.0437 0.1612
54.2000 18.0504 0.1575
54.2200 18.0571 0.1522
54.2400 18.0637 0.1605
54.2600 18.0703 0.1533
54.2800 18.0769 0.1525
54.3000 18.0836 0.1560
54.3200 18.0903 0.1501
54.3400 18.0970 0.1487
54.3600 18.1037 0.1523
54.3800 18.1103 0.1460
54.4000 18.1170 0.1494
54.4200 18.1236 0.1474
54.4400 18.1302 0.1477
54.4600 18.1369 0.1509
54.4800 18.1436 0.1407
54.5000 18.1503 0.1426
54.5200 18.1570 0.1495
54.5400 18.1636 0.1395
54.5600 18.1703 0.1386
54.5800 18.1770 0.1459
54.6000 18.1836 0.1376
54.6200 18.1902 0.1376
54.6400 18.1969 0.1421
54.6600 18.2036 0.1347
54.6800 18.2103 0.1398
54.7000 18.2170 0.1384
54.7200 18.2237 0.1321
54.7400 18.2304 0.1365
54.7600 18.2371 0.1320
54.7800 18.2437 0.1296
54.8000 18.2503 0.1401
54.8200 18.2569 0.1289
54.8400 18.2636 0.1260
54.8600 18.2703 0.1327
54.8800 18.2770 0.1287
54.9000 18.2837 0.1302
54.9200 18.2904 0.1300
54.9400 18.2970 0.1233
54.9600 18.3037 0.1296
54.9800 18.3103 0.1259
55.0000 18.3169 0.1244
55.0200 18.3236 0.1265
55.0400 18.3303 0.1184
55.0600 18.3370 0.1270
55.0800 18.3436 0.1249
55.1000 18.3503 0.1137
55.1200 18.3570 0.1176
55.1400 18.3636 0.1276
55.1600 18.3702 0.1107
55.1800 18.3768 0.1185
55.2000 18.3835 0.1261
55.2200 18.3902 0.1073
55.2400 18.3969 0.1195
55.2600 18.4036 0.1197
55.2800 18.4103 0.1042
55.3000 18.4170 0.1183
55.3200 18.4236 0.1051
55.3400 18.4302 0.1058
55.3600 18.4369 0.1223
55.3800 18.4436 0.1043
55.4000 18.4503 0.1042
55.4200 18.4570 0.1162
55.4400 18.4637 0.1011
55.4600 18.4704 0.1044
55.4800 18.4771 0.1098
55.5000 18.4837 0.0924
55.5200 18.4903 0.1070
55.5400 18.4969 0.1054
55.5600 18.5036 0.0891
55.5800 18.5103 0.1063
55.6000 18.5170 0.0992
55.6200 18.5237 0.0911
55.6400 18.5304 0.1035
55.6600 18.5370 0.0936
55.6800 18.5437 0.0896
55.7000 18.5503 0.1003
55.7200 18.5569 0.0925
55.7400 18.5636 0.0858
55.7600 18.5703 0.0953
55.7800 18.5770 0.0877
55.8000 18.5837 0.0852
55.8200 18.5903 0.0896
55.8400 18.5970 0.0819
55.8600 18.6036 0.0801
55.8800 18.6102 0.0859
55.9000 18.6169 0.0794
55.9200 18.6235 0.0837
55.9400 18.6303 0.0801
55.9600 18.6370 0.0746
55.9800 18.6436 0.0806
56.0000 18.6503 0.0808
56.0200 18.6570 0.0751
56.0400 18.6637 0.0741
56.0600 18.6703 0.0754
56.0800 18.6769 0.0766
56.1000 18.6836 0.0732
56.1200 18.6903 0.0714
56.1400 18.6970 0.0721
56.1600 18.7037 0.0717
56.1800 18.7104 0.0677
56.2000 18.7171 0.0652
56.2200 18.7237 0.0703
56.2400 18.7303 0.0648
56.2600 18.7369 0.0644
56.2800 18.7436 0.0650
56.3000 18.7503 0.0625
56.3200 18.7570 0.0631
56.3400 18.7637 0.0580
56.3600 18.7704 0.0591
56.3800 18.7770 0.0631
56.4000 18.7837 0.0513
56.4200 18.7903 0.0584
56.4400 18.7969 0.0594
56.4600 18.8036 0.0492
56.4800 18.8103 0.0571
56.5000 18.8170 0.0553
56.5200 18.8237 0.0482
56.5400 18.8303 0.0541
56.5600 18.8370 0.0448
56.5800 18.8436 0.0469
56.6000 18.8503 0.0485
56.6200 18.8568 0.0482
56.6400 18.8635 0.0448
56.6600 18.8702 0.0466
56.6800 18.8769 0.0401
56.7000 18.8836 0.0397
56.7200 18.8903 0.0456
56.7400 18.8970 0.0372
56.7600 18.9037 0.0354
56.7800 18.9103 0.0370
56.8000 18.9169 0.0395
56.8200 18.9236 0.0343
56.8400 18.9303 0.0321
56.8600 18.9370 0.0345
56.8800 18.9437 0.0298
56.9000 18.9504 0.0354
56.9200 18.9571 0.0290
56.9400 18.9637 0.0253
56.9600 18.9703 0.0271
56.9800 18.9769 0.0261
57.0000 18.9836 0.0232
57.0200 18.9903 0.0228
57.0400 18.9970 0.0264
57.0600 19.0037 0.0190
57.0800 19.0103 0.0192
57.1000 19.0170 0.0256
57.1200 19.0237 0.0131
57.1400 19.0303 0.0119
57.1600 19.0369 0.0258
57.1800 19.0435 0.0129
57.2000 19.0502 0.0121
57.2200 19.0569 0.0183
57.2400 19.0636 0.0086
57.2600 19.0703 0.0049
57.2800 19.0770 0.0205
57.3000 19.0837 -0.0019
57.3200 19.0903 0.0051
57.3400 19.0969 0.0183
57.3600 19.1035 -0.0031
57.3800 19.1102 0.0082
57.4000 19.1170 0.0088
57.4200 19.1236 -0.0094
57.4400 19.1303 0.0074
57.4600 19.1370 0.0055
57.4800 19.1436 -0.0112
57.5000 19.1503 0.0027
57.5200 19.1569 0.0031
57.5400 19.1636 -0.0112
57.5600 19.1703 -0.0009
57.5800 19.1770 -0.0047
57.6000 19.1837 -0.0102
57.6200 19.1904 -0.0060
57.6400 19.1970 -0.0105
57.6600 19.2037 -0.0082
57.6800 19.2103 -0.0065
57.7000 19.2169 -0.0107
57.7200 19.2236 -0.0118
57.7400 19.2303 -0.0101
57.7600 19.2370 -0.0139
57.7800 19.2437 -0.0170
57.8000 19.2504 -0.0124
57.8200 19.2571 -0.0140
57.8400 19.2637 -0.0245
57.8600 19.2703 -0.0156
57.8800 19.2769 -0.0158
57.9000 19.2835 -0.0207
57.9200 19.2902 -0.0195
57.9400 19.2970 -0.0210
57.9600 19.3036 -0.0219
57.9800 19.3103 -0.0233
58.0000 19.3170 -0.0223
58.0200 19.3237 -0.0319
58.0400 19.3303 -0.0302
58.0600 19.3369 -0.0250
58.0800 19.3435 -0.0313
58.1000 19.3502 -0.0293
58.1200 19.3570 -0.0357
58.1400 19.3636 -0.0303
58.1600 19.3703 -0.0354
58.1800 19.3770 -0.0324
58.2000 19.3837 -0.0397
58.2200 19.3903 -0.0398
58.2400 19.3969 -0.0367
58.2600 19.4036 -0.0429
58.2800 19.4103 -0.0412
58.3000 19.4170 -0.0377
58.3200 19.4236 -0.0481
58.3400 19.4303 -0.0461
58.3600 19.4371 -0.0401
58.3800 19.4437 -0.0474
58.4000 19.4503 -0.0564
58.4200 19.4569 -0.0405
58.4400 19.4636 -0.0494
58.4600 19.4703 -0.0519
58.4800 19.4770 -0.0468
58.5000 19.4837 -0.0566
58.5200 19.4904 -0.0528
58.5400 19.4970 -0.0496
58.5600 19.5037 -0.0590
58.5800 19.5103 -0.0594
58.6000 19.5169 -0.0477
58.6200 19.5236 -0.0597
58.6400 19.5303 -0.0609
58.6600 19.5370 -0.0549
58.6800 19.5436 -0.0667
58.7000 19.5503 -0.0616
58.7200 19.5570 -0.0560
58.7400 19.5637 -0.0703
58.7600 19.5703 -0.0656
58.7800 19.5769 -0.0605
58.8000 19.5835 -0.0749
58.8200 19.5902 -0.0711
58.8400 19.5969 -0.0635
58.8600 19.6036 -0.0793
58.8800 19.6103 -0.0692
58.9000 19.6170 -0.0706
58.9200 19.6236 -0.0815
58.9400 19.6303 -0.0748
58.9600 19.6369 -0.0719
58.9800 19.6435 -0.0830
59.0000 19.6502 -0.0782
59.0200 19.6570 -0.0776
59.0400 19.6637 -0.0929
59.0600 19.6704 -0.0821
59.0800 19.6770 -0.0797
59.1000 19.6837 -0.0952
59.1200 19.6903 -0.0832
59.1400 19.6970 -0.0887
59.1600 19.7036 -0.0949
59.1800 19.7103 -0.0902
59.2000 19.7170 -0.0937
59.2200 19.7237 -0.0982
59.2400 19.7304 -0.0979
59.2600 19.7370 -0.0980
59.2800 19.7437 -0.1038
59.3000 19.7502 -0.1130
