Raw Data
Time Displacement Force
(s) (mm) (N)
0.0000 0.0001 0.5388
0.0200 0.0002 0.5380
0.0400 0.0009 0.5921
0.0600 0.0043 0.6281
0.0800 0.0099 0.6174
0.1000 0.0157 0.6525
0.1200 0.0216 0.7125
0.1400 0.0283 0.7509
0.1600 0.0356 0.7949
0.1800 0.0430 0.8461
0.2000 0.0501 0.8874
0.2200 0.0569 0.9342
0.2400 0.0636 0.9720
0.2600 0.0703 1.0160
0.2800 0.0770 1.0617
0.3000 0.0837 1.1058
0.3200 0.0904 1.1515
0.3400 0.0971 1.2008
0.3600 0.1038 1.2418
0.3800 0.1104 1.2735
0.4000 0.1171 1.2875
0.4200 0.1238 1.2792
0.4400 0.1305 1.2885
0.4600 0.1371 1.2849
0.4800 0.1438 1.2795
0.5000 0.1505 1.2900
0.5200 0.1572 1.2858
0.5400 0.1638 1.2899
0.5600 0.1704 1.2894
0.5800 0.1770 1.2892
0.6000 0.1838 1.2997
0.6200 0.1905 1.2990
0.6400 0.1972 1.2930
0.6600 0.2038 1.2978
0.6800 0.2105 1.3079
0.7000 0.2172 1.2966
0.7200 0.2238 1.3052
0.7400 0.2304 1.3073
0.7600 0.2371 1.3053
0.7800 0.2437 1.3161
0.8000 0.2504 1.3038
0.8200 0.2571 1.3119
0.8400 0.2638 1.3225
0.8600 0.2705 1.3072
0.8800 0.2772 1.3155
0.9000 0.2838 1.3204
0.9200 0.2904 1.3154
0.9400 0.2970 1.3266
0.9600 0.3037 1.3208
0.9800 0.3104 1.3185
1.0000 0.3171 1.3360
1.0200 0.3238 1.3243
1.0400 0.3305 1.3183
1.0600 0.3371 1.3396
1.0800 0.3438 1.3250
1.1000 0.3504 1.3273
1.1200 0.3570 1.3361
1.1400 0.3637 1.3289
1.1600 0.3705 1.3359
1.1800 0.3772 1.3347
1.2000 0.3838 1.3243
1.2200 0.3905 1.3401
1.2400 0.3972 1.3404
1.2600 0.4039 1.3224
1.2800 0.4105 1.3374
1.3000 0.4171 1.3360
1.3200 0.4238 1.3282
1.3400 0.4305 1.3360
1.3600 0.4372 1.3263
1.3800 0.4438 1.3345
1.4000 0.4505 1.3417
1.4200 0.4572 1.3254
1.4400 0.4638 1.3283
1.4600 0.4704 1.3400
1.4800 0.4770 1.3292
1.5000 0.4837 1.3293
1.5200 0.4904 1.3318
1.5400 0.4971 1.3288
1.5600 0.5038 1.3354
1.5800 0.5105 1.3242
1.6000 0.5171 1.3199
1.6200 0.5238 1.3346
1.6400 0.5304 1.3254
1.6600 0.5370 1.3154
1.6800 0.5437 1.3340
1.7000 0.5504 1.3243
1.7200 0.5571 1.3175
1.7400 0.5638 1.3284
1.7600 0.5705 1.3214
1.7800 0.5772 1.3210
1.8000 0.5838 1.3258
1.8200 0.5904 1.3094
1.8400 0.5971 1.3202
1.8600 0.6038 1.3274
1.8800 0.6105 1.3096
1.9000 0.6172 1.3138
1.9200 0.6238 1.3216
1.9400 0.6305 1.3066
1.9600 0.6372 1.3170
1.9800 0.6439 1.3151
2.0000 0.6504 1.3096
2.0200 0.6571 1.3166
2.0400 0.6637 1.3125
2.0600 0.6705 1.3104
2.0800 0.6772 1.3154
2.1000 0.6838 1.3084
2.1200 0.6905 1.3113
2.1400 0.6972 1.3127
2.1600 0.7038 1.3075
2.1800 0.7104 1.3104
2.2000 0.7170 1.3089
2.2200 0.7237 1.3103
2.2400 0.7305 1.3130
2.2600 0.7372 1.2998
2.2800 0.7438 1.3048
2.3000 0.7505 1.3188
2.3200 0.7571 1.3009
2.3400 0.7638 1.3031
2.3600 0.7704 1.3126
2.3800 0.7771 1.3013
2.4000 0.7837 1.3057
2.4200 0.7904 1.3165
2.4400 0.7971 1.2941
2.4600 0.8038 1.3016
2.4800 0.8105 1.3125
2.5000 0.8172 1.2950
2.5200 0.8238 1.3015
2.5400 0.8305 1.3095
2.5600 0.8371 1.2956
2.5800 0.8437 1.3096
2.6000 0.8505 1.3026
2.6200 0.8572 1.2983
2.6400 0.8639 1.3059
2.6600 0.8705 1.2969
2.6800 0.8772 1.2988
2.7000 0.8838 1.3051
2.7200 0.8904 1.2922
2.7400 0.8971 1.3016
2.7600 0.9037 1.3058
2.7800 0.9105 1.2935
2.8000 0.9172 1.2932
2.8200 0.9239 1.3076
2.8400 0.9305 1.2954
2.8600 0.9372 1.2958
2.8800 0.9439 1.2976
2.9000 0.9505 1.2938
2.9200 0.9571 1.2949
2.9400 0.9637 1.2971
2.9600 0.9704 1.2971
2.9800 0.9771 1.2931
3.0000 0.9838 1.2924
3.0200 0.9905 1.2939
3.0400 0.9972 1.2964
3.0600 1.0038 1.2887
3.0800 1.0104 1.2918
3.1000 1.0170 1.2931
3.1200 1.0237 1.2914
3.1400 1.0304 1.2951
3.1600 1.0371 1.2890
3.1800 1.0438 1.2901
3.2000 1.0505 1.2966
3.2200 1.0572 1.2828
3.2400 1.0638 1.2866
3.2600 1.0704 1.2968
3.2800 1.0771 1.2841
3.3000 1.0837 1.2842
3.3200 1.0905 1.2908
3.3400 1.0972 1.2818
3.3600 1.1038 1.2855
3.3800 1.1105 1.2848
3.4000 1.1172 1.2795
3.4200 1.1239 1.2848
3.4400 1.1305 1.2875
3.4600 1.1371 1.2718
3.4800 1.1437 1.2884
3.5000 1.1504 1.2840
3.5200 1.1572 1.2739
3.5400 1.1639 1.2865
3.5600 1.1705 1.2793
3.5800 1.1772 1.2742
3.6000 1.1838 1.2839
3.6200 1.1904 1.2792
3.6400 1.1970 1.2785
3.6600 1.2037 1.2786
3.6800 1.2104 1.2786
3.7000 1.2172 1.2779
3.7200 1.2238 1.2754
3.7400 1.2305 1.2767
3.7600 1.2372 1.2751
3.7800 1.2438 1.2806
3.8000 1.2504 1.2674
3.8200 1.2571 1.2722
3.8400 1.2637 1.2827
3.8600 1.2704 1.2739
3.8800 1.2771 1.2717
3.9000 1.2838 1.2751
3.9200 1.2905 1.2794
3.9400 1.2972 1.2766
3.9600 1.3038 1.2683
3.9800 1.3105 1.2699
4.0000 1.3171 1.2800
4.0200 1.3237 1.2762
4.0400 1.3304 1.2613
4.0600 1.3371 1.2824
4.0800 1.3438 1.2766
4.1000 1.3505 1.2661
4.1200 1.3572 1.2803
4.1400 1.3638 1.2774
4.1600 1.3705 1.2715
4.1800 1.3771 1.2785
4.2000 1.3837 1.2712
4.2200 1.3905 1.2712
4.2400 1.3972 1.2842
4.2600 1.4039 1.2686
4.2800 1.4105 1.2706
4.3000 1.4172 1.2787
4.3200 1.4239 1.2688
4.3400 1.4305 1.2743
4.3600 1.4371 1.2738
4.3800 1.4437 1.2732
4.4000 1.4504 1.2783
4.4200 1.4571 1.2695
4.4400 1.4638 1.2728
4.4600 1.4705 1.2766
4.4800 1.4772 1.2692
4.5000 1.4838 1.2679
4.5200 1.4905 1.2726
4.5400 1.4971 1.2698
4.5600 1.5037 1.2766
4.5800 1.5104 1.2731
4.6000 1.5171 1.2647
4.6200 1.5238 1.2739
4.6400 1.5305 1.2680
4.6600 1.5372 1.2597
4.6800 1.5438 1.2751
4.7000 1.5505 1.2675
4.7200 1.5571 1.2602
4.7400 1.5637 1.2715
4.7600 1.5704 1.2680
4.7800 1.5772 1.2610
4.8000 1.5839 1.2678
4.8200 1.5905 1.2622
4.8400 1.5972 1.2610
4.8600 1.6039 1.2674
4.8800 1.6105 1.2586
4.9000 1.6171 1.2615
4.9200 1.6237 1.2695
4.9400 1.6304 1.2540
4.9600 1.6371 1.2598
4.9800 1.6438 1.2668
5.0000 1.6505 1.2561
5.0200 1.6572 1.2622
5.0400 1.6639 1.2607
5.0600 1.6705 1.2553
5.0800 1.6771 1.2574
5.1000 1.6837 1.2631
5.1200 1.6904 1.2567
5.1400 1.6971 1.2549
5.1600 1.7038 1.2576
5.1800 1.7105 1.2543
5.2000 1.7172 1.2570
5.2200 1.7239 1.2532
5.2400 1.7305 1.2516
5.2600 1.7370 1.2618
5.2800 1.7437 1.2504
5.3000 1.7504 1.2539
5.3200 1.7571 1.2547
5.3400 1.7638 1.2505
5.3600 1.7705 1.2525
5.3800 1.7771 1.2566
5.4000 1.7838 1.2430
5.4200 1.7905 1.2483
5.4400 1.7971 1.2531
5.4600 1.8037 1.2455
5.4800 1.8104 1.2491
5.5000 1.8171 1.2526
5.5200 1.8238 1.2411
5.5400 1.8305 1.2457
5.5600 1.8372 1.2504
5.5800 1.8439 1.2443
5.6000 1.8505 1.2434
5.6200 1.8571 1.2496
5.6400 1.8637 1.2425
5.6600 1.8704 1.2454
5.6800 1.8771 1.2485
5.7000 1.8838 1.2388
5.7200 1.8905 1.2417
5.7400 1.8972 1.2519
5.7600 1.9039 1.2367
5.7800 1.9105 1.2377
5.8000 1.9171 1.2531
5.8200 1.9237 1.2377
5.8400 1.9304 1.2350
5.8600 1.9371 1.2441
5.8800 1.9438 1.2376
5.9000 1.9504 1.2421
5.9200 1.9571 1.2479
5.9400 1.9638 1.2309
5.9600 1.9705 1.2409
5.9800 1.9771 1.2446
6.0000 1.9837 1.2332
6.0200 1.9904 1.2390
6.0400 1.9971 1.2379
6.0600 2.0038 1.2335
6.0800 2.0105 1.2379
6.1000 2.0172 1.2345
6.1200 2.0239 1.2420
6.1400 2.0305 1.2337
6.1600 2.0371 1.2300
6.1800 2.0437 1.2327
6.2000 2.0504 1.2379
6.2200 2.0571 1.2293
6.2400 2.0638 1.2368
6.2600 2.0705 1.2328
6.2800 2.0772 1.2295
6.3000 2.0839 1.2303
6.3200 2.0905 1.2271
6.3400 2.0971 1.2332
6.3600 2.1037 1.2319
6.3800 2.1104 1.2266
6.4000 2.1171 1.2283
6.4200 2.1238 1.2309
6.4400 2.1305 1.2290
6.4600 2.1372 1.2260
6.4800 2.1439 1.2285
6.5000 2.1505 1.2211
6.5200 2.1572 1.2231
6.5400 2.1638 1.2286
6.5600 2.1704 1.2218
6.5800 2.1771 1.2241
6.6000 2.1838 1.2250
6.6200 2.1905 1.2173
6.6400 2.1972 1.2245
6.6600 2.2039 1.2272
6.6800 2.2105 1.2186
6.7000 2.2171 1.2224
6.7200 2.2237 1.2299
6.7400 2.2303 1.2189
6.7600 2.2371 1.2159
6.7800 2.2438 1.2306
6.8000 2.2505 1.2170
6.8200 2.2572 1.2183
6.8400 2.2638 1.2259
6.8600 2.2705 1.2130
6.8800 2.2771 1.2220
6.9000 2.2837 1.2255
6.9200 2.2904 1.2114
6.9400 2.2971 1.2199
6.9600 2.3038 1.2214
6.9800 2.3105 1.2139
7.0000 2.3172 1.2128
7.0200 2.3239 1.2169
7.0400 2.3305 1.2142
7.0600 2.3371 1.2153
7.0800 2.3438 1.2159
7.1000 2.3504 1.2149
7.1200 2.3571 1.2180
7.1400 2.3638 1.2149
7.1600 2.3705 1.2175
7.1800 2.3772 1.2186
7.2000 2.3839 1.2074
7.2200 2.3905 1.2124
7.2400 2.3971 1.2183
7.2600 2.4037 1.2116
7.2800 2.4104 1.2132
7.3000 2.4171 1.2136
7.3200 2.4238 1.2054
7.3400 2.4305 1.2111
7.3600 2.4372 1.2158
7.3800 2.4439 1.2044
7.4000 2.4505 1.2099
7.4200 2.4571 1.2087
7.4400 2.4637 1.2090
7.4600 2.4704 1.2118
7.4800 2.4771 1.2061
7.5000 2.4838 1.2059
7.5200 2.4904 1.2107
7.5400 2.4971 1.2044
7.5600 2.5038 1.2055
7.5800 2.5105 1.2038
7.6000 2.5171 1.2044
7.6200 2.5237 1.2080
7.6400 2.5304 1.1997
7.6600 2.5371 1.2013
7.6800 2.5438 1.2104
7.7000 2.5505 1.1939
7.7200 2.5572 1.2075
7.7400 2.5639 1.2105
7.7600 2.5706 1.1919
7.7800 2.5771 1.2075
7.8000 2.5838 1.2083
7.8200 2.5904 1.1903
7.8400 2.5971 1.2069
7.8600 2.6038 1.2022
7.8800 2.6105 1.1904
7.9000 2.6172 1.2073
7.9200 2.6239 1.1941
7.9400 2.6305 1.1927
7.9600 2.6371 1.2082
7.9800 2.6437 1.1918
8.0000 2.6504 1.1957
8.0200 2.6571 1.2006
8.0400 2.6638 1.1880
8.0600 2.6705 1.1994
8.0800 2.6772 1.1972
8.1000 2.6838 1.1914
8.1200 2.6905 1.1956
8.1400 2.6971 1.1952
8.1600 2.7037 1.1895
8.1800 2.7103 1.2037
8.2000 2.7171 1.1923
8.2200 2.7238 1.1817
8.2400 2.7305 1.1938
8.2600 2.7372 1.1985
8.2800 2.7439 1.1847
8.3000 2.7505 1.1913
8.3200 2.7571 1.1950
8.3400 2.7637 1.1893
8.3600 2.7704 1.1900
8.3800 2.7771 1.1932
8.4000 2.7838 1.1834
8.4200 2.7905 1.1903
8.4400 2.7972 1.1911
8.4600 2.8039 1.1842
8.4800 2.8105 1.1876
8.5000 2.8172 1.1879
8.5200 2.8238 1.1825
8.5400 2.8304 1.1851
8.5600 2.8371 1.1868
8.5800 2.8438 1.1887
8.6000 2.8505 1.1846
8.6200 2.8572 1.1836
8.6400 2.8639 1.1832
8.6600 2.8706 1.1810
8.6800 2.8772 1.1813
8.7000 2.8838 1.1855
8.7200 2.8904 1.1817
8.7400 2.8971 1.1817
8.7600 2.9038 1.1837
8.7800 2.9105 1.1771
8.8000 2.9172 1.1862
8.8200 2.9238 1.1827
8.8400 2.9305 1.1754
8.8600 2.9371 1.1817
8.8800 2.9437 1.1771
8.9000 2.9503 1.1767
8.9200 2.9570 1.1900
8.9400 2.9638 1.1692
8.9600 2.9704 1.1765
8.9800 2.9771 1.1903
9.0000 2.9838 1.1704
9.0200 2.9905 1.1748
9.0400 2.9971 1.1871
9.0600 3.0037 1.1683
9.0800 3.0104 1.1778
9.1000 3.0171 1.1817
9.1200 3.0238 1.1712
9.1400 3.0305 1.1800
9.1600 3.0372 1.1809
9.1800 3.0439 1.1695
9.2000 3.0506 1.1810
9.2200 3.0572 1.1761
9.2400 3.0638 1.1724
9.2600 3.0704 1.1795
9.2800 3.0771 1.1770
9.3000 3.0838 1.1689
9.3200 3.0905 1.1766
9.3400 3.0972 1.1767
9.3600 3.1039 1.1699
9.3800 3.1105 1.1731
9.4000 3.1171 1.1721
9.4200 3.1237 1.1764
9.4400 3.1304 1.1727
9.4600 3.1371 1.1703
9.4800 3.1438 1.1734
9.5000 3.1505 1.1666
9.5200 3.1571 1.1712
9.5400 3.1638 1.1793
9.5600 3.1705 1.1653
9.5800 3.1772 1.1718
9.6000 3.1838 1.1767
9.6200 3.1904 1.1682
9.6400 3.1971 1.1676
9.6600 3.2038 1.1732
9.6800 3.2105 1.1632
9.7000 3.2171 1.1741
9.7200 3.2238 1.1700
9.7400 3.2305 1.1554
9.7600 3.2371 1.1725
9.7800 3.2437 1.1705
9.8000 3.2504 1.1528
9.8200 3.2571 1.1700
9.8400 3.2638 1.1708
9.8600 3.2705 1.1543
9.8800 3.2772 1.1668
9.9000 3.2839 1.1657
9.9200 3.2906 1.1564
9.9400 3.2972 1.1694
9.9600 3.3038 1.1593
9.9800 3.3104 1.1602
10.0000 3.3171 1.1711
10.0200 3.3238 1.1508
10.0400 3.3305 1.1542
10.0600 3.3372 1.1718
10.0800 3.3439 1.1521
10.1000 3.3505 1.1547
10.1200 3.3571 1.1661
10.1400 3.3638 1.1489
10.1600 3.3704 1.1615
10.1800 3.3771 1.1661
10.2000 3.3838 1.1397
10.2200 3.3904 1.1560
10.2400 3.3971 1.1679
10.2600 3.4038 1.1438
10.2800 3.4105 1.1569
10.3000 3.4171 1.1614
10.3200 3.4237 1.1421
10.3400 3.4304 1.1575
10.3600 3.4370 1.1606
10.3800 3.4438 1.1370
10.4000 3.4505 1.1596
10.4200 3.4571 1.1565
10.4400 3.4638 1.1346
10.4600 3.4705 1.1573
10.4800 3.4772 1.1595
10.5000 3.4838 1.1352
10.5200 3.4904 1.1599
10.5400 3.4971 1.1496
10.5600 3.5038 1.1374
10.5800 3.5105 1.1557
10.6000 3.5172 1.1462
10.6200 3.5239 1.1345
10.6400 3.5306 1.1585
10.6600 3.5372 1.1388
10.6800 3.5438 1.1390
10.7000 3.5504 1.1599
10.7200 3.5571 1.1339
10.7400 3.5638 1.1375
10.7600 3.5705 1.1559
10.7800 3.5772 1.1394
10.8000 3.5839 1.1381
10.8200 3.5905 1.1448
10.8400 3.5972 1.1367
10.8600 3.6038 1.1436
10.8800 3.6104 1.1437
10.9000 3.6171 1.1345
10.9200 3.6238 1.1414
10.9400 3.6305 1.1419
10.9600 3.6372 1.1326
10.9800 3.6439 1.1458
11.0000 3.6505 1.1418
11.0200 3.6571 1.1290
11.0400 3.6637 1.1368
11.0600 3.6704 1.1444
11.0800 3.6770 1.1372
11.1000 3.6837 1.1371
11.1200 3.6904 1.1329
11.1400 3.6971 1.1358
11.1600 3.7038 1.1385
11.1800 3.7105 1.1330
11.2000 3.7171 1.1363
11.2200 3.7238 1.1355
11.2400 3.7304 1.1358
11.2600 3.7371 1.1387
11.2800 3.7438 1.1305
11.3000 3.7505 1.1363
11.3200 3.7572 1.1325
11.3400 3.7639 1.1298
11.3600 3.7706 1.1331
11.3800 3.7772 1.1308
11.4000 3.7838 1.1312
11.4200 3.7904 1.1389
11.4400 3.7971 1.1315
11.4600 3.8038 1.1267
11.4800 3.8105 1.1349
11.5000 3.8172 1.1326
11.5200 3.8239 1.1241
11.5400 3.8305 1.1377
11.5600 3.8372 1.1246
11.5800 3.8438 1.1243
11.6000 3.8504 1.1398
11.6200 3.8571 1.1169
11.6400 3.8637 1.1256
11.6600 3.8704 1.1444
11.6800 3.8771 1.1181
11.7000 3.8838 1.1231
11.7200 3.8905 1.1408
11.7400 3.8972 1.1100
11.7600 3.9038 1.1260
11.7800 3.9104 1.1359
11.8000 3.9170 1.1155
11.8200 3.9237 1.1259
11.8400 3.9304 1.1272
11.8600 3.9371 1.1170
11.8800 3.9438 1.1325
11.9000 3.9505 1.1198
11.9200 3.9571 1.1146
11.9400 3.9638 1.1260
11.9600 3.9704 1.1195
11.9800 3.9771 1.1176
12.0000 3.9838 1.1248
12.0200 3.9905 1.1151
12.0400 3.9972 1.1161
12.0600 4.0039 1.1231
12.0800 4.0105 1.1166
12.1000 4.0172 1.1172
12.1200 4.0238 1.1172
12.1400 4.0304 1.1192
12.1600 4.0371 1.1187
12.1800 4.0438 1.1157
12.2000 4.0505 1.1195
12.2200 4.0572 1.1097
12.2400 4.0639 1.1124
12.2600 4.0706 1.1244
12.2800 4.0772 1.1087
12.3000 4.0838 1.1118
12.3200 4.0904 1.1212
12.3400 4.0970 1.1036
12.3600 4.1037 1.1173
12.3800 4.1105 1.1205
12.4000 4.1172 1.0970
12.4200 4.1238 1.1157
12.4400 4.1305 1.1142
12.4600 4.1372 1.1015
12.4800 4.1438 1.1151
12.5000 4.1504 1.1142
12.5200 4.1570 1.1030
12.5400 4.1637 1.1178
12.5600 4.1705 1.1039
12.5800 4.1771 1.1016
12.6000 4.1838 1.1221
12.6200 4.1905 1.1076
12.6400 4.1972 1.0949
12.6600 4.2038 1.1187
12.6800 4.2104 1.1201
12.7000 4.2171 1.0977
12.7200 4.2238 1.1036
12.7400 4.2305 1.1214
12.7600 4.2372 1.1056
12.7800 4.2439 1.0924
12.8000 4.2506 1.1089
12.8200 4.2572 1.1175
12.8400 4.2638 1.0956
12.8600 4.2704 1.0928
12.8800 4.2771 1.1184
12.9000 4.2838 1.1030
12.9200 4.2905 1.0860
12.9400 4.2972 1.1124
12.9600 4.3039 1.1060
12.9800 4.3105 1.0927
13.0000 4.3172 1.1063
13.0200 4.3238 1.1003
13.0400 4.3304 1.0980
13.0600 4.3371 1.1086
13.0800 4.3438 1.1035
13.1000 4.3505 1.0894
13.1200 4.3572 1.0980
13.1400 4.3638 1.1052
13.1600 4.3705 1.0937
13.1800 4.3772 1.0912
13.2000 4.3838 1.1081
13.2200 4.3904 1.0962
13.2400 4.3970 1.0889
13.2600 4.4037 1.1035
13.2800 4.4104 1.0948
13.3000 4.4171 1.0984
13.3200 4.4238 1.0987
13.3400 4.4305 1.0867
13.3600 4.4372 1.1052
13.3800 4.4438 1.0946
13.4000 4.4504 1.0854
13.4200 4.4570 1.1007
13.4400 4.4637 1.1007
13.4600 4.4705 1.0860
13.4800 4.4772 1.0923
13.5000 4.4839 1.0972
13.5200 4.4906 1.0909
13.5400 4.4972 1.0915
13.5600 4.5038 1.0884
13.5800 4.5104 1.0910
13.6000 4.5171 1.0951
13.6200 4.5238 1.0830
13.6400 4.5305 1.0916
13.6600 4.5372 1.0919
13.6800 4.5438 1.0832
13.7000 4.5505 1.0939
13.7200 4.5572 1.0901
13.7400 4.5638 1.0849
13.7600 4.5704 1.0901
13.7800 4.5770 1.0909
13.8000 4.5837 1.0873
13.8200 4.5905 1.0851
13.8400 4.5971 1.0900
13.8600 4.6038 1.0915
13.8800 4.6105 1.0805
13.9000 4.6172 1.0834
13.9200 4.6238 1.0904
13.9400 4.6304 1.0847
13.9600 4.6370 1.0806
13.9800 4.6437 1.0870
14.0000 4.6504 1.0852
14.0200 4.6571 1.0862
14.0400 4.6638 1.0818
14.0600 4.6705 1.0797
14.0800 4.6772 1.0894
14.1000 4.6838 1.0820
14.1200 4.6904 1.0761
14.1400 4.6970 1.0900
14.1600 4.7037 1.0787
14.1800 4.7105 1.0812
14.2000 4.7172 1.0878
14.2200 4.7238 1.0777
14.2400 4.7305 1.0828
14.2600 4.7372 1.0808
14.2800 4.7439 1.0733
14.3000 4.7505 1.0838
14.3200 4.7571 1.0804
14.3400 4.7638 1.0758
14.3600 4.7705 1.0811
14.3800 4.7772 1.0730
14.4000 4.7839 1.0781
14.4200 4.7906 1.0785
14.4400 4.7972 1.0718
14.4600 4.8039 1.0775
14.4800 4.8104 1.0757
14.5000 4.8171 1.0778
14.5200 4.8237 1.0774
14.5400 4.8304 1.0663
14.5600 4.8371 1.0768
14.5800 4.8438 1.0777
14.6000 4.8505 1.0671
14.6200 4.8571 1.0748
14.6400 4.8638 1.0716
14.6600 4.8704 1.0666
14.6800 4.8770 1.0800
14.7000 4.8837 1.0723
14.7200 4.8904 1.0648
14.7400 4.8971 1.0758
14.7600 4.9038 1.0684
14.7800 4.9105 1.0630
14.8000 4.9172 1.0807
14.8200 4.9238 1.0631
14.8400 4.9304 1.0638
14.8600 4.9371 1.0776
14.8800 4.9438 1.0659
14.9000 4.9505 1.0631
14.9200 4.9572 1.0768
14.9400 4.9638 1.0645
14.9600 4.9705 1.0628
14.9800 4.9772 1.0725
15.0000 4.9838 1.0581
15.0200 4.9904 1.0656
15.0400 4.9970 1.0732
15.0600 5.0037 1.0574
15.0800 5.0105 1.0683
15.1000 5.0172 1.0675
15.1200 5.0239 1.0559
15.1400 5.0305 1.0657
15.1600 5.0372 1.0664
15.1800 5.0439 1.0558
15.2000 5.0505 1.0653
15.2200 5.0571 1.0709
15.2400 5.0638 1.0552
15.2600 5.0705 1.0599
15.2800 5.0772 1.0678
15.3000 5.0838 1.0582
15.3200 5.0905 1.0539
15.3400 5.0972 1.0619
15.3600 5.1038 1.0570
15.3800 5.1104 1.0570
15.4000 5.1170 1.0514
15.4200 5.1237 1.0633
15.4400 5.1304 1.0613
15.4600 5.1371 1.0502
15.4800 5.1438 1.0510
15.5000 5.1505 1.0610
15.5200 5.1572 1.0606
15.5400 5.1638 1.0456
15.5600 5.1704 1.0489
15.5800 5.1770 1.0653
15.6000 5.1837 1.0500
15.6200 5.1905 1.0458
15.6400 5.1972 1.0614
15.6600 5.2039 1.0534
15.6800 5.2105 1.0443
15.7000 5.2172 1.0505
15.7200 5.2239 1.0515
15.7400 5.2305 1.0556
15.7600 5.2371 1.0469
15.7800 5.2438 1.0451
15.8000 5.2505 1.0554
15.8200 5.2571 1.0461
15.8400 5.2638 1.0472
15.8600 5.2705 1.0482
15.8800 5.2772 1.0435
15.9000 5.2839 1.0461
15.9200 5.2905 1.0616
15.9400 5.2971 1.0342
15.9600 5.3037 1.0456
15.9800 5.3104 1.0527
16.0000 5.3171 1.0366
16.0200 5.3238 1.0506
16.0400 5.3305 1.0462
16.0600 5.3372 1.0326
16.0800 5.3438 1.0505
16.1000 5.3504 1.0430
16.1200 5.3570 1.0376
16.1400 5.3637 1.0527
16.1600 5.3705 1.0387
16.1800 5.3772 1.0297
16.2000 5.3838 1.0534
16.2200 5.3905 1.0384
16.2400 5.3972 1.0362
16.2600 5.4038 1.0448
16.2800 5.4105 1.0328
16.3000 5.4171 1.0382
16.3200 5.4238 1.0497
16.3400 5.4305 1.0292
16.3600 5.4372 1.0344
16.3800 5.4439 1.0415
16.4000 5.4505 1.0356
16.4200 5.4572 1.0369
16.4400 5.4639 1.0399
16.4600 5.4705 1.0291
16.4800 5.4770 1.0362
16.5000 5.4837 1.0422
16.5200 5.4904 1.0339
16.5400 5.4972 1.0376
16.5600 5.5039 1.0354
16.5800 5.5105 1.0281
16.6000 5.5171 1.0334
16.6200 5.5238 1.0406
16.6400 5.5304 1.0239
16.6600 5.5370 1.0361
16.6800 5.5438 1.0326
16.7000 5.5505 1.0198
16.7200 5.5572 1.0333
16.7400 5.5638 1.0396
16.7600 5.5705 1.0237
16.7800 5.5772 1.0309
16.8000 5.5838 1.0365
16.8200 5.5905 1.0198
16.8400 5.5971 1.0345
16.8600 5.6037 1.0364
16.8800 5.6104 1.0225
16.9000 5.6171 1.0353
16.9200 5.6238 1.0273
16.9400 5.6305 1.0233
16.9600 5.6372 1.0366
16.9800 5.6439 1.0253
17.0000 5.6505 1.0213
17.0200 5.6571 1.0400
17.0400 5.6637 1.0233
17.0600 5.6704 1.0262
17.0800 5.6772 1.0339
17.1000 5.6839 1.0236
17.1200 5.6905 1.0262
17.1400 5.6972 1.0293
17.1600 5.7039 1.0202
17.1800 5.7105 1.0258
17.2000 5.7171 1.0262
17.2200 5.7237 1.0275
17.2400 5.7305 1.0327
17.2600 5.7372 1.0152
17.2800 5.7439 1.0194
17.3000 5.7505 1.0307
17.3200 5.7572 1.0241
17.3400 5.7639 1.0197
17.3600 5.7705 1.0215
17.3800 5.7771 1.0150
17.4000 5.7837 1.0317
17.4200 5.7903 1.0209
17.4400 5.7971 1.0155
17.4600 5.8038 1.0292
17.4800 5.8105 1.0155
17.5000 5.8172 1.0058
17.5200 5.8239 1.0358
17.5400 5.8305 1.0178
17.5600 5.8370 1.0072
17.5800 5.8437 1.0271
17.6000 5.8504 1.0150
17.6200 5.8571 1.0111
17.6400 5.8638 1.0288
17.6600 5.8705 1.0074
17.6800 5.8772 1.0101
17.7000 5.8838 1.0337
17.7200 5.8905 1.0034
17.7400 5.8971 1.0061
17.7600 5.9038 1.0290
17.7800 5.9105 1.0044
17.8000 5.9172 1.0104
17.8200 5.9238 1.0277
17.8400 5.9305 1.0033
17.8600 5.9372 1.0036
17.8800 5.9439 1.0191
17.9000 5.9505 1.0034
17.9200 5.9571 1.0075
17.9400 5.9637 1.0172
17.9600 5.9704 0.9974
17.9800 5.9772 1.0131
18.0000 5.9839 1.0192
18.0200 5.9906 0.9983
18.0400 5.9972 1.0032
18.0600 6.0039 1.0120
18.0800 6.0105 0.9988
18.1000 6.0171 1.0117
18.1200 6.0237 1.0111
18.1400 6.0304 0.9975
18.1600 6.0371 1.0091
18.1800 6.0438 1.0076
18.2000 6.0505 0.9991
18.2200 6.0571 1.0126
18.2400 6.0638 0.9993
18.2600 6.0705 0.9979
18.2800 6.0771 1.0108
18.3000 6.0837 0.9951
18.3200 6.0904 0.9958
18.3400 6.0971 1.0029
18.3600 6.1038 0.9968
18.3800 6.1105 1.0009
18.4000 6.1171 1.0026
18.4200 6.1238 0.9940
18.4400 6.1305 0.9989
18.4600 6.1371 1.0033
18.4800 6.1437 0.9936
18.5000 6.1504 1.0007
18.5200 6.1571 0.9996
18.5400 6.1638 0.9890
18.5600 6.1705 0.9978
18.5800 6.1772 0.9968
18.6000 6.1839 0.9923
18.6200 6.1905 0.9945
18.6400 6.1971 0.9945
18.6600 6.2037 0.9962
18.6800 6.2104 0.9989
18.7000 6.2172 0.9822
18.7200 6.2239 0.9952
18.7400 6.2305 0.9969
18.7600 6.2372 0.9904
18.7800 6.2439 0.9924
18.8000 6.2505 0.9840
18.8200 6.2571 0.9861
18.8400 6.2637 0.9959
18.8600 6.2704 0.9845
18.8800 6.2771 0.9902
18.9000 6.2838 0.9864
18.9200 6.2905 0.9838
18.9400 6.2972 0.9898
18.9600 6.3038 0.9869
18.9800 6.3105 0.9794
19.0000 6.3170 0.9919
19.0200 6.3237 0.9865
19.0400 6.3303 0.9769
19.0600 6.3371 0.9904
19.0800 6.3438 0.9836
19.1000 6.3505 0.9735
19.1200 6.3572 0.9921
19.1400 6.3638 0.9806
19.1600 6.3705 0.9745
19.1800 6.3771 0.9866
19.2000 6.3837 0.9794
19.2200 6.3904 0.9789
19.2400 6.3972 0.9847
19.2600 6.4039 0.9776
19.2800 6.4105 0.9809
19.3000 6.4172 0.9820
19.3200 6.4239 0.9702
19.3400 6.4305 0.9831
19.3600 6.4371 0.9812
19.3800 6.4437 0.9698
19.4000 6.4504 0.9828
19.4200 6.4571 0.9788
19.4400 6.4638 0.9692
19.4600 6.4705 0.9841
19.4800 6.4772 0.9764
19.5000 6.4839 0.9649
19.5200 6.4905 0.9827
19.5400 6.4971 0.9772
19.5600 6.5037 0.9691
19.5800 6.5104 0.9815
19.6000 6.5171 0.9693
19.6200 6.5238 0.9713
19.6400 6.5305 0.9793
19.6600 6.5372 0.9668
19.6800 6.5439 0.9656
19.7000 6.5505 0.9807
19.7200 6.5571 0.9661
19.7400 6.5637 0.9662
19.7600 6.5703 0.9793
19.7800 6.5771 0.9650
19.8000 6.5838 0.9648
19.8200 6.5905 0.9755
19.8400 6.5971 0.9670
19.8600 6.6038 0.9705
19.8800 6.6105 0.9714
19.9000 6.6171 0.9657
19.9200 6.6237 0.9681
19.9400 6.6304 0.9720
19.9600 6.6371 0.9704
19.9800 6.6438 0.9667
20.0000 6.6505 0.9683
20.0200 6.6572 0.9679
20.0400 6.6639 0.9664
20.0600 6.6706 0.9638
20.0800 6.6771 0.9681
20.1000 6.6838 0.9708
20.1200 6.6904 0.9606
20.1400 6.6971 0.9646
20.1600 6.7039 0.9699
20.1800 6.7105 0.9612
20.2000 6.7172 0.9624
20.2200 6.7239 0.9582
20.2400 6.7305 0.9660
20.2600 6.7371 0.9655
20.2800 6.7437 0.9578
20.3000 6.7504 0.9605
20.3200 6.7571 0.9679
20.3400 6.7638 0.9568
20.3600 6.7705 0.9620
20.3800 6.7771 0.9680
20.4000 6.7838 0.9517
20.4200 6.7905 0.9560
20.4400 6.7971 0.9685
20.4600 6.8037 0.9500
20.4800 6.8104 0.9606
20.5000 6.8171 0.9626
20.5200 6.8238 0.9504
20.5400 6.8305 0.9542
20.5600 6.8372 0.9671
20.5800 6.8439 0.9498
20.6000 6.8505 0.9518
20.6200 6.8571 0.9616
20.6400 6.8637 0.9507
20.6600 6.8704 0.9577
20.6800 6.8771 0.9611
20.7000 6.8838 0.9471
20.7200 6.8905 0.9533
20.7400 6.8972 0.9556
20.7600 6.9039 0.9469
20.7800 6.9105 0.9521
20.8000 6.9171 0.9561
20.8200 6.9237 0.9477
20.8400 6.9304 0.9497
20.8600 6.9371 0.9606
20.8800 6.9438 0.9435
20.9000 6.9505 0.9478
20.9200 6.9572 0.9543
20.9400 6.9639 0.9464
20.9600 6.9705 0.9424
20.9800 6.9772 0.9539
21.0000 6.9838 0.9517
21.0200 6.9904 0.9408
21.0400 6.9971 0.9476
21.0600 7.0038 0.9452
21.0800 7.0105 0.9406
21.1000 7.0172 0.9456
21.1200 7.0239 0.9420
21.1400 7.0305 0.9447
21.1600 7.0371 0.9424
21.1800 7.0437 0.9442
21.2000 7.0503 0.9491
21.2200 7.0570 0.9422
21.2400 7.0638 0.9350
21.2600 7.0705 0.9414
21.2800 7.0771 0.9409
21.3000 7.0838 0.9345
21.3200 7.0904 0.9444
21.3400 7.0971 0.9381
21.3600 7.1037 0.9356
21.3800 7.1104 0.9452
21.4000 7.1171 0.9361
21.4200 7.1238 0.9348
21.4400 7.1305 0.9439
21.4600 7.1372 0.9396
21.4800 7.1439 0.9321
21.5000 7.1505 0.9364
21.5200 7.1571 0.9408
21.5400 7.1638 0.9293
21.5600 7.1704 0.9364
21.5800 7.1771 0.9380
21.6000 7.1838 0.9321
21.6200 7.1905 0.9397
21.6400 7.1972 0.9349
21.6600 7.2039 0.9280
21.6800 7.2106 0.9334
21.7000 7.2171 0.9348
21.7200 7.2237 0.9317
21.7400 7.2304 0.9337
21.7600 7.2371 0.9361
21.7800 7.2438 0.9248
21.8000 7.2505 0.9295
21.8200 7.2572 0.9360
21.8400 7.2639 0.9291
21.8600 7.2705 0.9258
21.8800 7.2771 0.9348
21.9000 7.2837 0.9268
21.9200 7.2904 0.9336
21.9400 7.2971 0.9323
21.9600 7.3038 0.9222
21.9800 7.3104 0.9282
22.0000 7.3171 0.9283
22.0200 7.3238 0.9252
22.0400 7.3305 0.9254
22.0600 7.3371 0.9269
22.0800 7.3437 0.9243
22.1000 7.3504 0.9260
22.1200 7.3571 0.9299
22.1400 7.3638 0.9249
22.1600 7.3705 0.9252
22.1800 7.3772 0.9238
22.2000 7.3839 0.9255
22.2200 7.3906 0.9269
22.2400 7.3972 0.9200
22.2600 7.4038 0.9262
22.2800 7.4104 0.9212
22.3000 7.4171 0.9213
22.3200 7.4238 0.9290
22.3400 7.4305 0.9191
22.3600 7.4372 0.9203
22.3800 7.4439 0.9256
22.4000 7.4505 0.9178
22.4200 7.4571 0.9191
22.4400 7.4637 0.9265
22.4600 7.4704 0.9181
22.4800 7.4771 0.9188
22.5000 7.4838 0.9252
22.5200 7.4905 0.9156
22.5400 7.4972 0.9235
22.5600 7.5038 0.9213
22.5800 7.5105 0.9138
22.6000 7.5171 0.9244
22.6200 7.5237 0.9215
22.6400 7.5303 0.9135
22.6600 7.5370 0.9172
22.6800 7.5438 0.9159
22.7000 7.5505 0.9191
22.7200 7.5572 0.9184
22.7400 7.5639 0.9090
22.7600 7.5705 0.9125
22.7800 7.5771 0.9195
22.8000 7.5837 0.9145
22.8200 7.5904 0.9161
22.8400 7.5971 0.9162
22.8600 7.6038 0.9115
22.8800 7.6105 0.9078
22.9000 7.6172 0.9102
22.9200 7.6239 0.9147
22.9400 7.6306 0.9075
22.9600 7.6372 0.9071
22.9800 7.6438 0.9158
23.0000 7.6504 0.9088
23.0200 7.6571 0.9072
23.0400 7.6638 0.9144
23.0600 7.6705 0.9062
23.0800 7.6772 0.9092
23.1000 7.6839 0.9099
23.1200 7.6906 0.8993
23.1400 7.6972 0.9009
23.1600 7.7038 0.9129
23.1800 7.7104 0.9043
23.2000 7.7171 0.9071
23.2200 7.7238 0.9090
23.2400 7.7305 0.8998
23.2600 7.7372 0.9035
23.2800 7.7439 0.9093
23.3000 7.7505 0.8960
23.3200 7.7571 0.9034
23.3400 7.7637 0.9118
23.3600 7.7703 0.8961
23.3800 7.7770 0.9000
23.4000 7.7837 0.9089
23.4200 7.7904 0.8957
23.4400 7.7971 0.8988
23.4600 7.8038 0.9048
23.4800 7.8105 0.8945
23.5000 7.8171 0.9031
23.5200 7.8237 0.9024
23.5400 7.8304 0.8956
23.5600 7.8371 0.9002
23.5800 7.8438 0.8997
23.6000 7.8505 0.8906
23.6200 7.8572 0.8970
23.6400 7.8639 0.9023
23.6600 7.8706 0.8882
23.6800 7.8772 0.8976
23.7000 7.8838 0.9011
23.7200 7.8904 0.8891
23.7400 7.8971 0.8955
23.7600 7.9038 0.9022
23.7800 7.9105 0.8900
23.8000 7.9172 0.8891
23.8200 7.9239 0.9026
23.8400 7.9306 0.8854
23.8600 7.9372 0.8908
23.8800 7.9438 0.8997
23.9000 7.9504 0.8866
23.9200 7.9571 0.8888
23.9400 7.9638 0.9000
23.9600 7.9705 0.8863
23.9800 7.9771 0.8923
24.0000 7.9838 0.9005
24.0200 7.9905 0.8811
24.0400 7.9972 0.8885
24.0600 8.0038 0.9031
24.0800 8.0104 0.8806
24.1000 8.0171 0.8878
24.1200 8.0238 0.8989
24.1400 8.0305 0.8790
24.1600 8.0371 0.8897
24.1800 8.0438 0.8939
24.2000 8.0505 0.8799
24.2200 8.0571 0.8899
24.2400 8.0637 0.8918
24.2600 8.0704 0.8844
24.2800 8.0771 0.8885
24.3000 8.0838 0.8909
24.3200 8.0905 0.8797
24.3400 8.0972 0.8834
24.3600 8.1039 0.8922
24.3800 8.1105 0.8774
24.4000 8.1171 0.8822
24.4200 8.1237 0.8885
24.4400 8.1304 0.8813
24.4600 8.1371 0.8801
24.4800 8.1438 0.8868
24.5000 8.1505 0.8790
24.5200 8.1572 0.8826
24.5400 8.1639 0.8837
24.5600 8.1705 0.8775
24.5800 8.1772 0.8787
24.6000 8.1838 0.8843
24.6200 8.1904 0.8785
24.6400 8.1971 0.8774
24.6600 8.2038 0.8827
24.6800 8.2105 0.8822
24.7000 8.2171 0.8703
24.7200 8.2238 0.8814
24.7400 8.2305 0.8798
24.7600 8.2372 0.8667
24.7800 8.2438 0.8801
24.8000 8.2504 0.8805
24.8200 8.2570 0.8696
24.8400 8.2638 0.8757
24.8600 8.2705 0.8746
24.8800 8.2772 0.8657
24.9000 8.2838 0.8740
24.9200 8.2905 0.8766
24.9400 8.2972 0.8688
24.9600 8.3038 0.8721
24.9800 8.3104 0.8715
25.0000 8.3171 0.8682
25.0200 8.3238 0.8763
25.0400 8.3305 0.8671
25.0600 8.3372 0.8672
25.0800 8.3439 0.8709
25.1000 8.3506 0.8678
25.1200 8.3572 0.8606
25.1400 8.3638 0.8707
25.1600 8.3704 0.8693
25.1800 8.3770 0.8631
25.2000 8.3838 0.8663
25.2200 8.3905 0.8693
25.2400 8.3972 0.8636
25.2600 8.4039 0.8671
25.2800 8.4105 0.8641
25.3000 8.4172 0.8625
25.3200 8.4238 0.8647
25.3400 8.4304 0.8681
25.3600 8.4371 0.8613
25.3800 8.4438 0.8644
25.4000 8.4505 0.8668
25.4200 8.4572 0.8620
25.4400 8.4638 0.8646
25.4600 8.4705 0.8670
25.4800 8.4772 0.8580
25.5000 8.4838 0.8662
25.5200 8.4904 0.8594
25.5400 8.4970 0.8616
25.5600 8.5037 0.8643
25.5800 8.5104 0.8574
25.6000 8.5171 0.8584
25.6200 8.5238 0.8662
25.6400 8.5305 0.8579
25.6600 8.5372 0.8571
25.6800 8.5438 0.8644
25.7000 8.5504 0.8546
25.7200 8.5570 0.8574
25.7400 8.5638 0.8638
25.7600 8.5705 0.8546
25.7800 8.5772 0.8554
25.8000 8.5839 0.8618
25.8200 8.5906 0.8470
25.8400 8.5972 0.8536
25.8600 8.6038 0.8585
25.8800 8.6104 0.8545
25.9000 8.6171 0.8527
25.9200 8.6238 0.8554
25.9400 8.6305 0.8499
25.9600 8.6372 0.8501
25.9800 8.6439 0.8516
26.0000 8.6506 0.8516
26.0200 8.6572 0.8524
26.0400 8.6638 0.8517
26.0600 8.6704 0.8475
26.0800 8.6771 0.8564
26.1000 8.6838 0.8469
26.1200 8.6905 0.8494
26.1400 8.6971 0.8518
26.1600 8.7038 0.8447
26.1800 8.7105 0.8500
26.2000 8.7172 0.8517
26.2200 8.7238 0.8435
26.2400 8.7304 0.8523
26.2600 8.7370 0.8488
26.2800 8.7437 0.8422
26.3000 8.7504 0.8483
26.3200 8.7571 0.8455
26.3400 8.7638 0.8386
26.3600 8.7705 0.8460
26.3800 8.7772 0.8389
26.4000 8.7838 0.8454
26.4200 8.7904 0.8464
26.4400 8.7971 0.8392
26.4600 8.8038 0.8444
26.4800 8.8105 0.8435
26.5000 8.8172 0.8403
26.5200 8.8239 0.8375
26.5400 8.8306 0.8413
26.5600 8.8372 0.8373
26.5800 8.8438 0.8398
26.6000 8.8504 0.8390
26.6200 8.8571 0.8385
26.6400 8.8638 0.8421
26.6600 8.8705 0.8357
26.6800 8.8772 0.8352
26.7000 8.8839 0.8405
26.7200 8.8906 0.8323
26.7400 8.8972 0.8341
26.7600 8.9038 0.8343
26.7800 8.9104 0.8361
26.8000 8.9170 0.8342
26.8200 8.9237 0.8355
26.8400 8.9305 0.8276
26.8600 8.9372 0.8342
26.8800 8.9438 0.8349
26.9000 8.9505 0.8310
26.9200 8.9572 0.8363
26.9400 8.9638 0.8305
26.9600 8.9704 0.8266
26.9800 8.9770 0.8360
27.0000 8.9837 0.8298
27.0200 8.9904 0.8303
27.0400 8.9971 0.8303
27.0600 9.0038 0.8313
27.0800 9.0105 0.8261
27.1000 9.0172 0.8275
27.1200 9.0238 0.8301
27.1400 9.0304 0.8269
27.1600 9.0371 0.8301
27.1800 9.0437 0.8243
27.2000 9.0505 0.8255
27.2200 9.0571 0.8246
27.2400 9.0638 0.8309
27.2600 9.0706 0.8206
27.2800 9.0772 0.8248
27.3000 9.0838 0.8263
27.3200 9.0904 0.8212
27.3400 9.0971 0.8249
27.3600 9.1038 0.8253
27.3800 9.1105 0.8257
27.4000 9.1172 0.8216
27.4200 9.1239 0.8233
27.4400 9.1306 0.8270
27.4600 9.1372 0.8136
27.4800 9.1438 0.8246
27.5000 9.1504 0.8248
27.5200 9.1571 0.8181
27.5400 9.1638 0.8238
27.5600 9.1705 0.8244
27.5800 9.1772 0.8167
27.6000 9.1838 0.8214
27.6200 9.1905 0.8186
27.6400 9.1972 0.8184
27.6600 9.2038 0.8206
27.6800 9.2104 0.8153
27.7000 9.2170 0.8163
27.7200 9.2237 0.8228
27.7400 9.2304 0.8131
27.7600 9.2371 0.8183
27.7800 9.2438 0.8201
27.8000 9.2505 0.8116
27.8200 9.2572 0.8165
27.8400 9.2638 0.8119
27.8600 9.2704 0.8074
27.8800 9.2771 0.8198
27.9000 9.2837 0.8099
27.9200 9.2905 0.8053
27.9400 9.2972 0.8165
27.9600 9.3039 0.8103
27.9800 9.3106 0.8098
28.0000 9.3172 0.8166
28.0200 9.3238 0.8033
28.0400 9.3304 0.8037
28.0600 9.3371 0.8166
28.0800 9.3438 0.7981
28.1000 9.3505 0.8076
28.1200 9.3572 0.8114
28.1400 9.3638 0.8001
28.1600 9.3705 0.8094
28.1800 9.3772 0.8086
28.2000 9.3838 0.7946
28.2200 9.3904 0.8082
28.2400 9.3970 0.8119
28.2600 9.4037 0.7962
28.2800 9.4104 0.8045
28.3000 9.4171 0.8076
28.3200 9.4238 0.7989
28.3400 9.4305 0.8014
28.3600 9.4372 0.8002
28.3800 9.4438 0.8036
28.4000 9.4504 0.7975
28.4200 9.4570 0.8010
28.4400 9.4637 0.8048
28.4600 9.4704 0.7976
28.4800 9.4771 0.8009
28.5000 9.4838 0.7986
28.5200 9.4905 0.7974
28.5400 9.4972 0.8021
28.5600 9.5038 0.7967
28.5800 9.5104 0.7936
28.6000 9.5171 0.8027
28.6200 9.5237 0.7966
28.6400 9.5305 0.7917
28.6600 9.5372 0.8003
28.6800 9.5438 0.7965
28.7000 9.5505 0.7917
28.7200 9.5572 0.7995
28.7400 9.5639 0.7949
28.7600 9.5705 0.7917
28.7800 9.5771 0.8017
28.8000 9.5838 0.7943
28.8200 9.5905 0.7891
28.8400 9.5972 0.7987
28.8600 9.6039 0.7911
28.8800 9.6106 0.7940
28.9000 9.6172 0.7955
28.9200 9.6239 0.7926
28.9400 9.6304 0.7903
28.9600 9.6370 0.7970
28.9800 9.6437 0.7909
29.0000 9.6504 0.7923
29.0200 9.6571 0.7920
29.0400 9.6638 0.7889
29.0600 9.6705 0.7872
29.0800 9.6772 0.7922
29.1000 9.6838 0.7901
29.1200 9.6904 0.7849
29.1400 9.6970 0.7925
29.1600 9.7037 0.7922
29.1800 9.7104 0.7870
29.2000 9.7171 0.7871
29.2200 9.7238 0.7935
29.2400 9.7305 0.7858
29.2600 9.7372 0.7836
29.2800 9.7438 0.7925
29.3000 9.7505 0.7822
29.3200 9.7571 0.7910
29.3400 9.7638 0.7936
29.3600 9.7705 0.7758
29.3800 9.7772 0.7942
29.4000 9.7838 0.7870
29.4200 9.7905 0.7737
29.4400 9.7972 0.7926
29.4600 9.8039 0.7829
29.4800 9.8104 0.7711
29.5000 9.8170 0.7983
29.5200 9.8237 0.7800
29.5400 9.8305 0.7745
29.5600 9.8372 0.7921
29.5800 9.8439 0.7739
29.6000 9.8505 0.7745
29.6200 9.8572 0.7916
29.6400 9.8638 0.7720
29.6600 9.8704 0.7780
29.6800 9.8771 0.7876
29.7000 9.8837 0.7705
29.7200 9.8904 0.7814
29.7400 9.8971 0.7830
29.7600 9.9038 0.7651
29.7800 9.9105 0.7832
29.8000 9.9172 0.7821
29.8200 9.9238 0.7641
29.8400 9.9304 0.7781
29.8600 9.9370 0.7785
29.8800 9.9437 0.7692
29.9000 9.9504 0.7850
29.9200 9.9571 0.7720
29.9400 9.9638 0.7652
29.9600 9.9705 0.7810
29.9800 9.9772 0.7709
30.0000 9.9838 0.7660
30.0200 9.9904 0.7740
30.0400 9.9970 0.7708
30.0600 10.0037 0.7692
30.0800 10.0105 0.7734
30.1000 10.0172 0.7669
30.1200 10.0239 0.7747
30.1400 10.0305 0.7697
30.1600 10.0372 0.7673
30.1800 10.0439 0.7717
30.2000 10.0505 0.7684
30.2200 10.0571 0.7618
30.2400 10.0638 0.7729
30.2600 10.0705 0.7696
30.2800 10.0772 0.7592
30.3000 10.0838 0.7650
30.3200 10.0905 0.7683
30.3400 10.0972 0.7627
30.3600 10.1039 0.7682
30.3800 10.1105 0.7584
30.4000 10.1171 0.7625
30.4200 10.1237 0.7711
30.4400 10.1304 0.7586
30.4600 10.1371 0.7591
30.4800 10.1438 0.7702
30.5000 10.1505 0.7579
30.5200 10.1572 0.7598
30.5400 10.1638 0.7653
30.5600 10.1704 0.7510
30.5800 10.1770 0.7575
30.6000 10.1837 0.7668
30.6200 10.1904 0.7539
30.6400 10.1971 0.7497
30.6600 10.2038 0.7634
30.6800 10.2105 0.7567
30.7000 10.2172 0.7524
30.7200 10.2238 0.7555
30.7400 10.2305 0.7579
30.7600 10.2371 0.7584
30.7800 10.2438 0.7520
30.8000 10.2505 0.7495
30.8200 10.2572 0.7618
30.8400 10.2638 0.7534
30.8600 10.2705 0.7523
30.8800 10.2772 0.7593
30.9000 10.2839 0.7485
30.9200 10.2905 0.7444
30.9400 10.2971 0.7555
30.9600 10.3037 0.7538
30.9800 10.3104 0.7467
31.0000 10.3172 0.7548
31.0200 10.3239 0.7503
31.0400 10.3305 0.7434
31.0600 10.3372 0.7543
31.0800 10.3438 0.7537
31.1000 10.3504 0.7460
31.1200 10.3570 0.7489
31.1400 10.3637 0.7541
31.1600 10.3704 0.7497
31.1800 10.3772 0.7466
31.2000 10.3838 0.7537
31.2200 10.3905 0.7466
31.2400 10.3972 0.7494
31.2600 10.4038 0.7476
31.2800 10.4105 0.7397
31.3000 10.4171 0.7530
31.3200 10.4237 0.7510
31.3400 10.4304 0.7369
31.3600 10.4371 0.7501
31.3800 10.4438 0.7504
31.4000 10.4505 0.7378
31.4200 10.4572 0.7494
31.4400 10.4639 0.7452
31.4600 10.4705 0.7361
31.4800 10.4771 0.7503
31.5000 10.4837 0.7426
31.5200 10.4904 0.7386
31.5400 10.4972 0.7498
31.5600 10.5039 0.7418
31.5800 10.5106 0.7356
31.6000 10.5172 0.7427
31.6200 10.5239 0.7384
31.6400 10.5305 0.7449
31.6600 10.5371 0.7415
31.6800 10.5437 0.7357
31.7000 10.5504 0.7425
31.7200 10.5572 0.7445
31.7400 10.5638 0.7321
31.7600 10.5705 0.7436
31.7800 10.5772 0.7379
31.8000 10.5839 0.7312
31.8200 10.5905 0.7411
31.8400 10.5971 0.7364
31.8600 10.6037 0.7338
31.8800 10.6104 0.7409
31.9000 10.6171 0.7343
31.9200 10.6238 0.7342
31.9400 10.6305 0.7398
31.9600 10.6372 0.7342
31.9800 10.6439 0.7330
32.0000 10.6505 0.7363
32.0200 10.6570 0.7299
32.0400 10.6637 0.7398
32.0600 10.6704 0.7367
32.0800 10.6771 0.7257
32.1000 10.6838 0.7404
32.1200 10.6905 0.7331
32.1400 10.6972 0.7262
32.1600 10.7039 0.7351
32.1800 10.7105 0.7357
32.2000 10.7171 0.7305
32.2200 10.7237 0.7330
32.2400 10.7304 0.7358
32.2600 10.7372 0.7279
32.2800 10.7438 0.7325
32.3000 10.7505 0.7340
32.3200 10.7572 0.7253
32.3400 10.7639 0.7318
32.3600 10.7705 0.7286
32.3800 10.7771 0.7260
32.4000 10.7838 0.7292
32.4200 10.7904 0.7333
32.4400 10.7971 0.7238
32.4600 10.8038 0.7238
32.4800 10.8105 0.7316
32.5000 10.8172 0.7283
32.5200 10.8239 0.7247
32.5400 10.8305 0.7251
32.5600 10.8371 0.7228
32.5800 10.8437 0.7295
32.6000 10.8504 0.7289
32.6200 10.8571 0.7224
32.6400 10.8638 0.7228
32.6600 10.8705 0.7270
32.6800 10.8772 0.7160
32.7000 10.8838 0.7216
32.7200 10.8905 0.7265
32.7400 10.8971 0.7166
32.7600 10.9037 0.7205
32.7800 10.9104 0.7235
32.8000 10.9171 0.7162
32.8200 10.9238 0.7207
32.8400 10.9305 0.7245
32.8600 10.9371 0.7161
32.8800 10.9438 0.7173
32.9000 10.9505 0.7216
32.9200 10.9571 0.7129
32.9400 10.9637 0.7205
32.9600 10.9704 0.7271
32.9800 10.9771 0.7049
33.0000 10.9838 0.7170
33.0200 10.9905 0.7237
33.0400 10.9972 0.7064
33.0600 11.0039 0.7110
33.0800 11.0105 0.7220
33.1000 11.0171 0.7075
33.1200 11.0237 0.7168
33.1400 11.0304 0.7201
33.1600 11.0371 0.7050
33.1800 11.0438 0.7108
33.2000 11.0505 0.7210
33.2200 11.0572 0.7027
33.2400 11.0639 0.7141
33.2600 11.0705 0.7174
33.2800 11.0771 0.6998
33.3000 11.0837 0.7133
33.3200 11.0904 0.7194
33.3400 11.0971 0.6963
33.3600 11.1038 0.7114
33.3800 11.1105 0.7148
33.4000 11.1171 0.6942
33.4200 11.1238 0.7065
33.4400 11.1305 0.7116
33.4600 11.1371 0.6991
33.4800 11.1437 0.7081
33.5000 11.1504 0.7101
33.5200 11.1571 0.6985
33.5400 11.1638 0.7036
33.5600 11.1705 0.7122
33.5800 11.1772 0.6952
33.6000 11.1839 0.7026
33.6200 11.1905 0.7086
33.6400 11.1971 0.6942
33.6600 11.2037 0.7089
33.6800 11.2104 0.7144
33.7000 11.2172 0.6902
33.7200 11.2239 0.6971
33.7400 11.2306 0.7094
33.7600 11.2372 0.6903
33.7800 11.2439 0.6999
33.8000 11.2505 0.7016
33.8200 11.2571 0.6893
33.8400 11.2637 0.6988
33.8600 11.2704 0.7016
33.8800 11.2771 0.6920
33.9000 11.2838 0.7006
33.9200 11.2905 0.6986
33.9400 11.2972 0.6885
33.9600 11.3039 0.6961
33.9800 11.3105 0.7011
34.0000 11.3171 0.6872
34.0200 11.3237 0.6939
34.0400 11.3304 0.7003
34.0600 11.3371 0.6895
34.0800 11.3438 0.6863
34.1000 11.3505 0.7046
34.1200 11.3572 0.6946
34.1400 11.3639 0.6846
34.1600 11.3705 0.7005
34.1800 11.3771 0.6904
34.2000 11.3837 0.6849
34.2200 11.3903 0.7003
34.2400 11.3971 0.6899
34.2600 11.4038 0.6820
34.2800 11.4105 0.6953
34.3000 11.4171 0.6866
34.3200 11.4238 0.6878
34.3400 11.4305 0.6995
34.3600 11.4371 0.6804
34.3800 11.4437 0.6868
34.4000 11.4504 0.6982
34.4200 11.4571 0.6749
34.4400 11.4638 0.6905
34.4600 11.4705 0.6935
34.4800 11.4772 0.6785
34.5000 11.4839 0.6899
34.5200 11.4906 0.6872
34.5400 11.4972 0.6792
34.5600 11.5038 0.6895
34.5800 11.5104 0.6849
34.6000 11.5171 0.6794
34.6200 11.5238 0.6895
34.6400 11.5305 0.6811
34.6600 11.5372 0.6803
34.6800 11.5439 0.6902
34.7000 11.5505 0.6732
34.7200 11.5571 0.6827
34.7400 11.5637 0.6877
34.7600 11.5704 0.6754
34.7800 11.5771 0.6811
34.8000 11.5838 0.6818
34.8200 11.5905 0.6752
34.8400 11.5971 0.6772
34.8600 11.6038 0.6801
34.8800 11.6105 0.6810
34.9000 11.6171 0.6744
34.9200 11.6237 0.6768
34.9400 11.6304 0.6809
34.9600 11.6371 0.6805
34.9800 11.6438 0.6754
35.0000 11.6505 0.6738
35.0200 11.6572 0.6733
35.0400 11.6639 0.6725
35.0600 11.6705 0.6755
35.0800 11.6772 0.6702
35.1000 11.6838 0.6739
35.1200 11.6904 0.6744
35.1400 11.6971 0.6659
35.1600 11.7038 0.6732
35.1800 11.7105 0.6762
35.2000 11.7172 0.6641
35.2200 11.7239 0.6744
35.2400 11.7305 0.6706
35.2600 11.7371 0.6656
35.2800 11.7437 0.6717
35.3000 11.7504 0.6710
35.3200 11.7571 0.6625
35.3400 11.7638 0.6702
35.3600 11.7705 0.6673
35.3800 11.7772 0.6614
35.4000 11.7839 0.6728
35.4200 11.7905 0.6624
35.4400 11.7972 0.6605
35.4600 11.8038 0.6662
35.4800 11.8104 0.6612
35.5000 11.8171 0.6641
35.5200 11.8238 0.6593
35.5400 11.8305 0.6624
35.5600 11.8372 0.6628
35.5800 11.8438 0.6636
35.6000 11.8505 0.6627
35.6200 11.8571 0.6595
35.6400 11.8637 0.6638
35.6600 11.8704 0.6585
35.6800 11.8770 0.6604
35.7000 11.8838 0.6612
35.7200 11.8905 0.6611
35.7400 11.8972 0.6609
35.7600 11.9038 0.6553
35.7800 11.9105 0.6590
35.8000 11.9171 0.6582
35.8200 11.9237 0.6599
35.8400 11.9304 0.6629
35.8600 11.9371 0.6524
35.8800 11.9438 0.6555
35.9000 11.9505 0.6574
35.9200 11.9572 0.6542
35.9400 11.9639 0.6543
35.9600 11.9705 0.6560
35.9800 11.9771 0.6525
36.0000 11.9838 0.6601
36.0200 11.9904 0.6544
36.0400 11.9971 0.6498
36.0600 12.0038 0.6617
36.0800 12.0105 0.6517
36.1000 12.0172 0.6501
36.1200 12.0239 0.6628
36.1400 12.0305 0.6484
36.1600 12.0372 0.6527
36.1800 12.0438 0.6558
36.2000 12.0504 0.6446
36.2200 12.0571 0.6539
36.2400 12.0638 0.6548
36.2600 12.0705 0.6430
36.2800 12.0772 0.6552
36.3000 12.0838 0.6515
36.3200 12.0905 0.6415
36.3400 12.0971 0.6519
36.3600 12.1037 0.6523
36.3800 12.1104 0.6433
36.4000 12.1171 0.6556
36.4200 12.1238 0.6422
36.4400 12.1304 0.6449
36.4600 12.1371 0.6558
36.4800 12.1438 0.6414
36.5000 12.1505 0.6455
36.5200 12.1571 0.6492
36.5400 12.1638 0.6424
36.5600 12.1704 0.6435
36.5800 12.1771 0.6463
36.6000 12.1838 0.6390
36.6200 12.1905 0.6443
36.6400 12.1972 0.6423
36.6600 12.2039 0.6416
36.6800 12.2106 0.6445
36.7000 12.2172 0.6407
36.7200 12.2238 0.6409
36.7400 12.2304 0.6430
36.7600 12.2371 0.6404
36.7800 12.2438 0.6382
36.8000 12.2505 0.6396
36.8200 12.2572 0.6430
36.8400 12.2638 0.6352
36.8600 12.2705 0.6392
36.8800 12.2771 0.6337
36.9000 12.2837 0.6359
36.9200 12.2904 0.6383
36.9400 12.2971 0.6355
36.9600 12.3038 0.6322
36.9800 12.3105 0.6311
37.0000 12.3172 0.6349
37.0200 12.3239 0.6360
37.0400 12.3305 0.6322
37.0600 12.3372 0.6319
37.0800 12.3437 0.6347
37.1000 12.3503 0.6320
37.1200 12.3570 0.6363
37.1400 12.3638 0.6292
37.1600 12.3705 0.6293
37.1800 12.3772 0.6314
37.2000 12.3839 0.6281
37.2200 12.3905 0.6276
37.2400 12.3972 0.6317
37.2600 12.4038 0.6282
37.2800 12.4104 0.6256
37.3000 12.4171 0.6295
37.3200 12.4238 0.6293
37.3400 12.4305 0.6229
37.3600 12.4372 0.6285
37.3800 12.4439 0.6303
37.4000 12.4505 0.6223
37.4200 12.4572 0.6212
37.4400 12.4638 0.6288
37.4600 12.4704 0.6204
37.4800 12.4771 0.6248
37.5000 12.4838 0.6263
37.5200 12.4905 0.6160
37.5400 12.4972 0.6256
37.5600 12.5039 0.6237
37.5800 12.5106 0.6155
37.6000 12.5172 0.6276
37.6200 12.5238 0.6210
37.6400 12.5304 0.6152
37.6600 12.5370 0.6229
37.6800 12.5437 0.6221
37.7000 12.5505 0.6143
37.7200 12.5572 0.6255
37.7400 12.5638 0.6137
37.7600 12.5705 0.6147
37.7800 12.5771 0.6258
37.8000 12.5837 0.6085
37.8200 12.5904 0.6137
37.8400 12.5970 0.6262
37.8600 12.6037 0.6092
37.8800 12.6104 0.6145
37.9000 12.6171 0.6222
37.9200 12.6238 0.6093
37.9400 12.6305 0.6143
37.9600 12.6371 0.6181
37.9800 12.6438 0.6049
38.0000 12.6504 0.6128
38.0200 12.6571 0.6156
38.0400 12.6638 0.6075
38.0600 12.6705 0.6145
38.0800 12.6772 0.6102
38.1000 12.6839 0.6131
38.1200 12.6906 0.6107
38.1400 12.6972 0.6116
38.1600 12.7038 0.6105
38.1800 12.7104 0.6114
38.2000 12.7171 0.6063
38.2200 12.7238 0.6108
38.2400 12.7305 0.6102
38.2600 12.7372 0.6038
38.2800 12.7439 0.6112
38.3000 12.7506 0.6057
38.3200 12.7572 0.6036
38.3400 12.7638 0.6115
38.3600 12.7704 0.6024
38.3800 12.7771 0.6053
38.4000 12.7838 0.6082
38.4200 12.7905 0.5991
38.4400 12.7971 0.6012
38.4600 12.8038 0.6052
38.4800 12.8105 0.6003
38.5000 12.8171 0.6016
38.5200 12.8238 0.6063
38.5400 12.8304 0.5986
38.5600 12.8371 0.6040
38.5800 12.8438 0.6032
38.6000 12.8505 0.5944
38.6200 12.8571 0.6059
38.6400 12.8638 0.6009
38.6600 12.8705 0.5922
38.6800 12.8771 0.6017
38.7000 12.8838 0.5997
38.7200 12.8904 0.5963
38.7400 12.8971 0.6002
38.7600 12.9038 0.6015
38.7800 12.9105 0.5926
38.8000 12.9172 0.5978
38.8200 12.9239 0.5979
38.8400 12.9306 0.5895
38.8600 12.9372 0.5954
38.8800 12.9438 0.5958
38.9000 12.9504 0.5871
38.9200 12.9571 0.5971
38.9400 12.9638 0.5916
38.9600 12.9705 0.5895
38.9800 12.9772 0.5937
39.0000 12.9839 0.5906
39.0200 12.9905 0.5842
39.0400 12.9972 0.5922
39.0600 13.0038 0.5888
39.0800 13.0104 0.5902
39.1000 13.0171 0.5876
39.1200 13.0237 0.5857
39.1400 13.0304 0.5861
39.1600 13.0371 0.5849
39.1800 13.0438 0.5853
39.2000 13.0505 0.5858
39.2200 13.0572 0.5859
39.2400 13.0638 0.5814
39.2600 13.0704 0.5893
39.2800 13.0770 0.5875
39.3000 13.0837 0.5801
39.3200 13.0905 0.5864
39.3400 13.0972 0.5855
39.3600 13.1038 0.5760
39.3800 13.1105 0.5873
39.4000 13.1172 0.5806
39.4200 13.1238 0.5725
39.4400 13.1304 0.5873
39.4600 13.1371 0.5832
39.4800 13.1438 0.5664
39.5000 13.1505 0.5850
39.5200 13.1572 0.5823
39.5400 13.1638 0.5643
39.5600 13.1705 0.5786
39.5800 13.1772 0.5807
39.6000 13.1838 0.5639
39.6200 13.1904 0.5813
39.6400 13.1971 0.5707
39.6600 13.2038 0.5675
39.6800 13.2105 0.5789
39.7000 13.2172 0.5684
39.7200 13.2239 0.5683
39.7400 13.2305 0.5782
39.7600 13.2372 0.5673
39.7800 13.2438 0.5678
39.8000 13.2504 0.5719
39.8200 13.2571 0.5706
39.8400 13.2638 0.5691
39.8600 13.2705 0.5699
39.8800 13.2772 0.5632
39.9000 13.2839 0.5709
39.9200 13.2905 0.5681
39.9400 13.2972 0.5641
39.9600 13.3038 0.5690
39.9800 13.3104 0.5693
40.0000 13.3170 0.5669
40.0200 13.3237 0.5618
40.0400 13.3304 0.5658
40.0600 13.3371 0.5629
40.0800 13.3438 0.5641
40.1000 13.3504 0.5642
40.1200 13.3571 0.5633
40.1400 13.3638 0.5591
40.1600 13.3704 0.5617
40.1800 13.3770 0.5617
40.2000 13.3838 0.5590
40.2200 13.3905 0.5564
40.2400 13.3972 0.5627
40.2600 13.4039 0.5560
40.2800 13.4106 0.5556
40.3000 13.4173 0.5565
40.3200 13.4238 0.5593
40.3400 13.4304 0.5603
40.3600 13.4371 0.5567
40.3800 13.4438 0.5570
40.4000 13.4505 0.5589
40.4200 13.4572 0.5530
40.4400 13.4639 0.5534
40.4600 13.4705 0.5565
40.4800 13.4772 0.5552
40.5000 13.4838 0.5471
40.5200 13.4904 0.5561
40.5400 13.4970 0.5570
40.5600 13.5037 0.5512
40.5800 13.5104 0.5568
40.6000 13.5171 0.5525
40.6200 13.5238 0.5524
40.6400 13.5305 0.5514
40.6600 13.5372 0.5444
40.6800 13.5438 0.5498
40.7000 13.5504 0.5513
40.7200 13.5570 0.5471
40.7400 13.5637 0.5466
40.7600 13.5704 0.5492
40.7800 13.5771 0.5505
40.8000 13.5838 0.5445
40.8200 13.5905 0.5488
40.8400 13.5972 0.5448
40.8600 13.6038 0.5433
40.8800 13.6104 0.5456
40.9000 13.6170 0.5474
40.9200 13.6237 0.5429
40.9400 13.6305 0.5489
40.9600 13.6372 0.5400
40.9800 13.6438 0.5377
41.0000 13.6505 0.5500
41.0200 13.6572 0.5409
41.0400 13.6639 0.5335
41.0600 13.6705 0.5475
41.0800 13.6771 0.5402
41.1000 13.6838 0.5334
41.1200 13.6905 0.5415
41.1400 13.6972 0.5384
41.1600 13.7038 0.5366
41.1800 13.7105 0.5472
41.2000 13.7172 0.5318
41.2200 13.7238 0.5312
41.2400 13.7304 0.5461
41.2600 13.7370 0.5413
41.2800 13.7437 0.5320
41.3000 13.7504 0.5386
41.3200 13.7571 0.5361
41.3400 13.7638 0.5355
41.3600 13.7705 0.5365
41.3800 13.7772 0.5323
41.4000 13.7838 0.5368
41.4200 13.7904 0.5333
41.4400 13.7970 0.5282
41.4600 13.8037 0.5340
41.4800 13.8104 0.5345
41.5000 13.8171 0.5310
41.5200 13.8238 0.5301
41.5400 13.8305 0.5312
41.5600 13.8372 0.5301
41.5800 13.8438 0.5270
41.6000 13.8504 0.5292
41.6200 13.8571 0.5309
41.6400 13.8637 0.5289
41.6600 13.8704 0.5261
41.6800 13.8771 0.5303
41.7000 13.8838 0.5259
41.7200 13.8905 0.5288
41.7400 13.8972 0.5248
41.7600 13.9039 0.5215
41.7800 13.9104 0.5239
41.8000 13.9170 0.5284
41.8200 13.9237 0.5222
41.8400 13.9305 0.5206
41.8600 13.9372 0.5220
41.8800 13.9439 0.5230
41.9000 13.9506 0.5207
41.9200 13.9572 0.5213
41.9400 13.9638 0.5180
41.9600 13.9704 0.5224
41.9800 13.9771 0.5230
42.0000 13.9838 0.5155
42.0200 13.9905 0.5180
42.0400 13.9972 0.5245
42.0600 14.0038 0.5149
42.0800 14.0105 0.5138
42.1000 14.0172 0.5219
42.1200 14.0238 0.5172
42.1400 14.0304 0.5145
42.1600 14.0370 0.5184
42.1800 14.0437 0.5117
42.2000 14.0504 0.5220
42.2200 14.0571 0.5149
42.2400 14.0638 0.5037
42.2600 14.0705 0.5191
42.2800 14.0772 0.5114
42.3000 14.0838 0.5071
42.3200 14.0904 0.5160
42.3400 14.0971 0.5115
42.3600 14.1038 0.5081
42.3800 14.1105 0.5102
42.4000 14.1172 0.5031
42.4200 14.1239 0.5139
42.4400 14.1305 0.5122
42.4600 14.1372 0.4933
42.4800 14.1439 0.5082
42.5000 14.1505 0.5129
42.5200 14.1571 0.4985
42.5400 14.1638 0.5081
42.5600 14.1705 0.5055
42.5800 14.1772 0.4982
42.6000 14.1838 0.5051
42.6200 14.1905 0.5039
42.6400 14.1972 0.4965
42.6600 14.2038 0.5045
42.6800 14.2105 0.5029
42.7000 14.2171 0.4981
42.7200 14.2237 0.5070
42.7400 14.2304 0.5035
42.7600 14.2371 0.4978
42.7800 14.2438 0.4990
42.8000 14.2505 0.4980
42.8200 14.2572 0.4996
42.8400 14.2638 0.4957
42.8600 14.2704 0.4955
42.8800 14.2770 0.4978
42.9000 14.2837 0.4985
42.9200 14.2904 0.4953
42.9400 14.2971 0.4918
42.9600 14.3038 0.4921
42.9800 14.3105 0.4977
43.0000 14.3172 0.4934
43.0200 14.3238 0.4858
43.0400 14.3304 0.4964
43.0600 14.3371 0.4909
43.0800 14.3438 0.4876
43.1000 14.3505 0.4908
43.1200 14.3572 0.4864
43.1400 14.3638 0.4902
43.1600 14.3705 0.4899
43.1800 14.3772 0.4793
43.2000 14.3839 0.4867
43.2200 14.3905 0.4894
43.2400 14.3971 0.4841
43.2600 14.4038 0.4868
43.2800 14.4105 0.4884
43.3000 14.4172 0.4830
43.3200 14.4239 0.4885
43.3400 14.4306 0.4826
43.3600 14.4372 0.4796
43.3800 14.4439 0.4835
43.4000 14.4504 0.4796
43.4200 14.4570 0.4816
43.4400 14.4637 0.4860
43.4600 14.4704 0.4732
43.4800 14.4771 0.4806
43.5000 14.4838 0.4822
43.5200 14.4905 0.4713
43.5400 14.4972 0.4841
43.5600 14.5038 0.4835
43.5800 14.5104 0.4685
43.6000 14.5170 0.4828
43.6200 14.5237 0.4827
43.6400 14.5304 0.4711
43.6600 14.5371 0.4784
43.6800 14.5438 0.4770
43.7000 14.5505 0.4745
43.7200 14.5571 0.4760
43.7400 14.5638 0.4707
43.7600 14.5705 0.4757
43.7800 14.5771 0.4773
43.8000 14.5837 0.4708
43.8200 14.5904 0.4744
43.8400 14.5971 0.4751
43.8600 14.6038 0.4708
43.8800 14.6105 0.4710
43.9000 14.6172 0.4722
43.9200 14.6239 0.4662
43.9400 14.6305 0.4703
43.9600 14.6371 0.4716
43.9800 14.6437 0.4657
44.0000 14.6505 0.4679
44.0200 14.6572 0.4681
44.0400 14.6639 0.4673
44.0600 14.6705 0.4663
44.0800 14.6772 0.4662
44.1000 14.6838 0.4667
44.1200 14.6905 0.4642
44.1400 14.6971 0.4648
44.1600 14.7037 0.4660
44.1800 14.7104 0.4694
44.2000 14.7171 0.4586
44.2200 14.7238 0.4618
44.2400 14.7305 0.4683
44.2600 14.7372 0.4557
44.2800 14.7439 0.4601
44.3000 14.7505 0.4610
44.3200 14.7571 0.4582
44.3400 14.7637 0.4604
44.3600 14.7704 0.4626
44.3800 14.7771 0.4543
44.4000 14.7838 0.4590
44.4200 14.7905 0.4588
44.4400 14.7971 0.4473
44.4600 14.8038 0.4526
44.4800 14.8104 0.4623
44.5000 14.8170 0.4474
44.5200 14.8237 0.4568
44.5400 14.8304 0.4540
44.5600 14.8372 0.4462
44.5800 14.8439 0.4541
44.6000 14.8505 0.4559
44.6200 14.8572 0.4404
44.6400 14.8639 0.4526
44.6600 14.8705 0.4513
44.6800 14.8771 0.4396
44.7000 14.8838 0.4570
44.7200 14.8905 0.4492
44.7400 14.8972 0.4401
44.7600 14.9039 0.4510
44.7800 14.9105 0.4458
44.8000 14.9172 0.4386
44.8200 14.9239 0.4510
44.8400 14.9305 0.4453
44.8600 14.9371 0.4365
44.8800 14.9437 0.4517
44.9000 14.9504 0.4444
44.9200 14.9571 0.4366
44.9400 14.9638 0.4472
44.9600 14.9705 0.4403
44.9800 14.9772 0.4358
45.0000 14.9838 0.4428
45.0200 14.9904 0.4341
45.0400 14.9970 0.4401
45.0600 15.0037 0.4466
45.0800 15.0104 0.4364
45.1000 15.0171 0.4348
45.1200 15.0238 0.4427
45.1400 15.0305 0.4362
45.1600 15.0372 0.4321
45.1800 15.0439 0.4402
45.2000 15.0505 0.4383
45.2200 15.0571 0.4291
45.2400 15.0638 0.4351
45.2600 15.0705 0.4382
45.2800 15.0772 0.4279
45.3000 15.0838 0.4408
45.3200 15.0905 0.4326
45.3400 15.0972 0.4277
45.3600 15.1039 0.4397
45.3800 15.1105 0.4306
45.4000 15.1171 0.4262
45.4200 15.1237 0.4390
45.4400 15.1304 0.4301
45.4600 15.1372 0.4204
45.4800 15.1439 0.4388
45.5000 15.1505 0.4287
45.5200 15.1572 0.4220
45.5400 15.1639 0.4396
45.5600 15.1705 0.4178
45.5800 15.1771 0.4236
45.6000 15.1837 0.4429
45.6200 15.1904 0.4160
45.6400 15.1972 0.4178
45.6600 15.2039 0.4389
45.6800 15.2105 0.4137
45.7000 15.2172 0.4221
45.7200 15.2238 0.4350
45.7400 15.2305 0.4112
45.7600 15.2371 0.4250
45.7800 15.2437 0.4274
45.8000 15.2504 0.4101
45.8200 15.2571 0.4287
45.8400 15.2638 0.4245
45.8600 15.2705 0.4056
45.8800 15.2772 0.4279
45.9000 15.2839 0.4227
45.9200 15.2905 0.4051
45.9400 15.2971 0.4278
45.9600 15.3037 0.4211
45.9800 15.3104 0.4077
46.0000 15.3171 0.4260
46.0200 15.3239 0.4114
46.0400 15.3305 0.4107
46.0600 15.3372 0.4240
46.0800 15.3439 0.4066
46.1000 15.3505 0.4089
46.1200 15.3571 0.4168
46.1400 15.3637 0.4075
46.1600 15.3704 0.4108
46.1800 15.3772 0.4127
46.2000 15.3839 0.4022
46.2200 15.3905 0.4122
46.2400 15.3972 0.4145
46.2600 15.4039 0.3978
46.2800 15.4105 0.4125
46.3000 15.4171 0.4075
46.3200 15.4237 0.3971
46.3400 15.4304 0.4121
46.3600 15.4371 0.4061
46.3800 15.4438 0.4015
46.4000 15.4505 0.4050
46.4200 15.4572 0.4053
46.4400 15.4639 0.3997
46.4600 15.4705 0.4005
46.4800 15.4771 0.4031
46.5000 15.4837 0.3999
46.5200 15.4903 0.3973
46.5400 15.4971 0.3982
46.5600 15.5038 0.3992
46.5800 15.5105 0.3965
46.6000 15.5171 0.4003
46.6200 15.5238 0.4020
46.6400 15.5305 0.3861
46.6600 15.5371 0.4002
46.6800 15.5437 0.4001
46.7000 15.5504 0.3875
46.7200 15.5571 0.3974
46.7400 15.5638 0.3987
46.7600 15.5705 0.3861
46.7800 15.5772 0.3930
46.8000 15.5839 0.3928
46.8200 15.5906 0.3852
46.8400 15.5971 0.3928
46.8600 15.6038 0.3939
46.8800 15.6104 0.3819
46.9000 15.6171 0.3894
46.9200 15.6239 0.3877
46.9400 15.6305 0.3850
46.9600 15.6372 0.3863
46.9800 15.6439 0.3821
47.0000 15.6505 0.3837
47.0200 15.6571 0.3845
47.0400 15.6637 0.3817
47.0600 15.6704 0.3814
47.0800 15.6771 0.3781
47.1000 15.6838 0.3780
47.1200 15.6905 0.3805
47.1400 15.6972 0.3795
47.1600 15.7038 0.3811
47.1800 15.7105 0.3826
47.2000 15.7171 0.3743
47.2200 15.7237 0.3810
47.2400 15.7304 0.3844
47.2600 15.7371 0.3700
47.2800 15.7438 0.3813
47.3000 15.7505 0.3742
47.3200 15.7571 0.3721
47.3400 15.7638 0.3823
47.3600 15.7705 0.3663
47.3800 15.7771 0.3716
47.4000 15.7837 0.3824
47.4200 15.7904 0.3650
47.4400 15.7971 0.3742
47.4600 15.8038 0.3795
47.4800 15.8105 0.3621
47.5000 15.8172 0.3716
47.5200 15.8239 0.3755
47.5400 15.8305 0.3593
47.5600 15.8371 0.3787
47.5800 15.8437 0.3730
47.6000 15.8504 0.3575
47.6200 15.8571 0.3776
47.6400 15.8639 0.3701
47.6600 15.8705 0.3600
47.6800 15.8772 0.3773
47.7000 15.8839 0.3618
47.7200 15.8905 0.3578
47.7400 15.8971 0.3783
47.7600 15.9037 0.3611
47.7800 15.9104 0.3559
47.8000 15.9171 0.3758
47.8200 15.9238 0.3572
47.8400 15.9305 0.3610
47.8600 15.9372 0.3737
47.8800 15.9438 0.3507
47.9000 15.9505 0.3634
47.9200 15.9571 0.3681
47.9400 15.9637 0.3511
47.9600 15.9704 0.3651
47.9800 15.9771 0.3678
48.0000 15.9838 0.3484
48.0200 15.9905 0.3596
48.0400 15.9972 0.3600
48.0600 16.0039 0.3516
48.0800 16.0105 0.3606
48.1000 16.0171 0.3580
48.1200 16.0237 0.3499
48.1400 16.0304 0.3620
48.1600 16.0371 0.3514
48.1800 16.0439 0.3508
48.2000 16.0506 0.3560
48.2200 16.0572 0.3492
48.2400 16.0639 0.3483
48.2600 16.0705 0.3544
48.2800 16.0771 0.3467
48.3000 16.0837 0.3554
48.3200 16.0904 0.3481
48.3400 16.0971 0.3460
48.3600 16.1038 0.3550
48.3800 16.1105 0.3455
48.4000 16.1172 0.3405
48.4200 16.1239 0.3510
48.4400 16.1305 0.3439
48.4600 16.1371 0.3437
48.4800 16.1437 0.3469
48.5000 16.1504 0.3421
48.5200 16.1571 0.3466
48.5400 16.1638 0.3479
48.5600 16.1705 0.3362
48.5800 16.1772 0.3436
48.6000 16.1839 0.3454
48.6200 16.1905 0.3310
48.6400 16.1971 0.3455
48.6600 16.2037 0.3453
48.6800 16.2104 0.3345
48.7000 16.2171 0.3418
48.7200 16.2238 0.3340
48.7400 16.2305 0.3287
48.7600 16.2371 0.3446
48.7800 16.2438 0.3322
48.8000 16.2505 0.3311
48.8200 16.2571 0.3414
48.8400 16.2637 0.3320
48.8600 16.2704 0.3300
48.8800 16.2771 0.3385
48.9000 16.2838 0.3232
48.9200 16.2905 0.3313
48.9400 16.2972 0.3353
48.9600 16.3039 0.3232
48.9800 16.3106 0.3309
49.0000 16.3172 0.3335
49.0200 16.3238 0.3185
49.0400 16.3304 0.3295
49.0600 16.3371 0.3297
49.0800 16.3438 0.3209
49.1000 16.3505 0.3244
49.1200 16.3572 0.3259
49.1400 16.3639 0.3183
49.1600 16.3705 0.3240
49.1800 16.3771 0.3247
49.2000 16.3837 0.3156
49.2200 16.3904 0.3232
49.2400 16.3971 0.3235
49.2600 16.4038 0.3141
49.2800 16.4105 0.3200
49.3000 16.4171 0.3222
49.3200 16.4238 0.3118
49.3400 16.4305 0.3150
49.3600 16.4371 0.3164
49.3800 16.4437 0.3122
49.4000 16.4504 0.3176
49.4200 16.4571 0.3108
49.4400 16.4638 0.3102
49.4600 16.4705 0.3160
49.4800 16.4772 0.3048
49.5000 16.4839 0.3115
49.5200 16.4905 0.3084
49.5400 16.4971 0.3068
49.5600 16.5037 0.3113
49.5800 16.5104 0.3091
49.6000 16.5171 0.3059
49.6200 16.5238 0.3116
49.6400 16.5305 0.3016
49.6600 16.5372 0.3010
49.6800 16.5439 0.3115
49.7000 16.5505 0.2960
49.7200 16.5571 0.3014
49.7400 16.5637 0.3091
49.7600 16.5704 0.2931
49.7800 16.5771 0.3053
49.8000 16.5838 0.3028
49.8200 16.5905 0.2911
49.8400 16.5972 0.3048
49.8600 16.6039 0.3012
49.8800 16.6106 0.2884
49.9000 16.6172 0.3035
49.9200 16.6238 0.2995
49.9400 16.6304 0.2907
49.9600 16.6371 0.3057
49.9800 16.6438 0.2899
50.0000 16.6505 0.2926
50.0200 16.6572 0.2990
50.0400 16.6639 0.2876
50.0600 16.6705 0.2948
50.0800 16.6772 0.2965
50.1000 16.6837 0.2832
50.1200 16.6904 0.2912
50.1400 16.6970 0.2917
50.1600 16.7038 0.2856
50.1800 16.7105 0.2911
50.2000 16.7172 0.2854
50.2200 16.7238 0.2800
50.2400 16.7305 0.2886
50.2600 16.7371 0.2867
50.2800 16.7437 0.2832
50.3000 16.7504 0.2850
50.3200 16.7571 0.2845
50.3400 16.7638 0.2777
50.3600 16.7705 0.2873
50.3800 16.7772 0.2807
50.4000 16.7838 0.2768
50.4200 16.7905 0.2820
50.4400 16.7972 0.2781
50.4600 16.8038 0.2764
50.4800 16.8104 0.2837
50.5000 16.8171 0.2738
50.5200 16.8238 0.2754
50.5400 16.8305 0.2777
50.5600 16.8372 0.2673
50.5800 16.8439 0.2759
50.6000 16.8506 0.2762
50.6200 16.8572 0.2701
50.6400 16.8638 0.2724
50.6600 16.8704 0.2724
50.6800 16.8771 0.2678
50.7000 16.8838 0.2731
50.7200 16.8905 0.2661
50.7400 16.8972 0.2639
50.7600 16.9038 0.2734
50.7800 16.9105 0.2635
50.8000 16.9171 0.2649
50.8200 16.9237 0.2707
50.8400 16.9304 0.2575
50.8600 16.9371 0.2624
50.8800 16.9438 0.2645
50.9000 16.9504 0.2605
50.9200 16.9571 0.2630
50.9400 16.9638 0.2602
50.9600 16.9705 0.2517
50.9800 16.9771 0.2638
51.0000 16.9838 0.2586
51.0200 16.9904 0.2492
51.0400 16.9971 0.2632
51.0600 17.0038 0.2581
51.0800 17.0105 0.2486
51.1000 17.0172 0.2629
51.1200 17.0239 0.2501
51.1400 17.0305 0.2518
51.1600 17.0372 0.2554
51.1800 17.0438 0.2499
51.2000 17.0504 0.2501
51.2200 17.0571 0.2559
51.2400 17.0638 0.2437
51.2600 17.0705 0.2444
51.2800 17.0772 0.2531
51.3000 17.0839 0.2444
51.3200 17.0905 0.2443
51.3400 17.0972 0.2511
51.3600 17.1038 0.2442
51.3800 17.1104 0.2473
51.4000 17.1171 0.2429
51.4200 17.1238 0.2428
51.4400 17.1305 0.2473
51.4600 17.1372 0.2396
51.4800 17.1438 0.2402
51.5000 17.1505 0.2435
51.5200 17.1572 0.2381
51.5400 17.1638 0.2394
51.5600 17.1704 0.2446
51.5800 17.1770 0.2373
51.6000 17.1837 0.2408
51.6200 17.1905 0.2344
51.6400 17.1972 0.2305
51.6600 17.2039 0.2471
51.6800 17.2105 0.2341
51.7000 17.2172 0.2305
51.7200 17.2238 0.2415
51.7400 17.2304 0.2335
51.7600 17.2371 0.2345
51.7800 17.2438 0.2363
51.8000 17.2505 0.2317
51.8200 17.2572 0.2301
51.8400 17.2638 0.2347
51.8600 17.2705 0.2256
51.8800 17.2772 0.2305
51.9000 17.2838 0.2321
51.9200 17.2904 0.2265
51.9400 17.2971 0.2268
51.9600 17.3038 0.2279
51.9800 17.3105 0.2246
52.0000 17.3172 0.2261
52.0200 17.3239 0.2218
52.0400 17.3306 0.2259
52.0600 17.3372 0.2189
52.0800 17.3438 0.2214
52.1000 17.3504 0.2230
52.1200 17.3570 0.2208
52.1400 17.3638 0.2202
52.1600 17.3705 0.2178
52.1800 17.3772 0.2175
52.2000 17.3838 0.2181
52.2200 17.3905 0.2138
52.2400 17.3972 0.2103
52.2600 17.4038 0.2194
52.2800 17.4104 0.2162
52.3000 17.4170 0.2098
52.3200 17.4237 0.2183
52.3400 17.4304 0.2103
52.3600 17.4371 0.2045
52.3800 17.4438 0.2167
52.4000 17.4505 0.2090
52.4200 17.4571 0.2086
52.4400 17.4638 0.2102
52.4600 17.4704 0.2087
52.4800 17.4771 0.2080
52.5000 17.4838 0.2106
52.5200 17.4905 0.2022
52.5400 17.4972 0.2077
52.5600 17.5039 0.2036
52.5800 17.5105 0.2022
52.6000 17.5172 0.2077
52.6200 17.5238 0.2044
52.6400 17.5304 0.1985
52.6600 17.5371 0.2084
52.6800 17.5438 0.1978
52.7000 17.5505 0.1957
52.7200 17.5572 0.2110
52.7400 17.5639 0.1913
52.7600 17.5706 0.1962
52.7800 17.5772 0.2038
52.8000 17.5838 0.1875
52.8200 17.5904 0.1991
52.8400 17.5971 0.1985
52.8600 17.6038 0.1893
52.8800 17.6105 0.2010
52.9000 17.6172 0.1991
52.9200 17.6238 0.1814
52.9400 17.6305 0.1981
52.9600 17.6372 0.1974
52.9800 17.6438 0.1733
53.0000 17.6504 0.2044
53.0200 17.6571 0.1937
53.0400 17.6638 0.1766
53.0600 17.6705 0.2000
53.0800 17.6771 0.1855
53.1000 17.6838 0.1751
53.1200 17.6905 0.2021
53.1400 17.6972 0.1789
53.1600 17.7038 0.1765
53.1800 17.7104 0.1953
53.2000 17.7171 0.1761
53.2200 17.7238 0.1765
53.2400 17.7305 0.1902
53.2600 17.7372 0.1721
53.2800 17.7439 0.1788
53.3000 17.7506 0.1832
53.3200 17.7572 0.1684
53.3400 17.7638 0.1838
53.3600 17.7704 0.1774
53.3800 17.7771 0.1694
53.4000 17.7838 0.1813
53.4200 17.7905 0.1711
53.4400 17.7972 0.1673
53.4600 17.8039 0.1758
53.4800 17.8105 0.1703
53.5000 17.8172 0.1686
53.5200 17.8238 0.1728
53.5400 17.8304 0.1660
53.5600 17.8371 0.1685
53.5800 17.8437 0.1728
53.6000 17.8504 0.1565
53.6200 17.8571 0.1707
53.6400 17.8638 0.1618
53.6600 17.8705 0.1619
53.6800 17.8772 0.1676
53.7000 17.8838 0.1548
53.7200 17.8904 0.1610
53.7400 17.8970 0.1659
53.7600 17.9037 0.1606
53.7800 17.9104 0.1594
53.8000 17.9171 0.1583
53.8200 17.9238 0.1579
53.8400 17.9305 0.1563
53.8600 17.9372 0.1576
53.8800 17.9438 0.1540
53.9000 17.9504 0.1590
53.9200 17.9571 0.1469
53.9400 17.9638 0.1566
53.9600 17.9705 0.1552
53.9800 17.9772 0.1448
54.0000 17.9838 0.1525
54.0200 17.9905 0.1522
54.0400 17.9972 0.1432
54.0600 18.0038 0.1485
54.0800 18.0104 0.1458
54.1000 18.0170 0.1498
54.1200 18.0237 0.1497
54.1400 18.0304 0.1402
54.1600 18.0372 0.1346
54.1800 18.0438 0.1457
54.2000 18.0505 0.1396
54.2200 18.0572 0.1354
54.2400 18.0638 0.1450
54.2600 18.0704 0.1341
54.2800 18.0771 0.1382
54.3000 18.0838 0.1400
54.3200 18.0905 0.1324
54.3400 18.0972 0.1352
54.3600 18.1039 0.1355
54.3800 18.1105 0.1254
54.4000 18.1172 0.1335
54.4200 18.1238 0.1358
54.4400 18.1304 0.1251
54.4600 18.1370 0.1294
54.4800 18.1437 0.1350
54.5000 18.1504 0.1246
54.5200 18.1571 0.1281
54.5400 18.1638 0.1284
54.5600 18.1705 0.1197
54.5800 18.1772 0.1263
54.6000 18.1838 0.1255
54.6200 18.1904 0.1173
54.6400 18.1970 0.1274
54.6600 18.2037 0.1218
54.6800 18.2105 0.1202
54.7000 18.2172 0.1178
54.7200 18.2239 0.1191
54.7400 18.2306 0.1210
54.7600 18.2372 0.1168
54.7800 18.2439 0.1120
54.8000 18.2504 0.1217
54.8200 18.2571 0.1161
54.8400 18.2638 0.1102
54.8600 18.2705 0.1207
54.8800 18.2772 0.1077
54.9000 18.2839 0.1107
54.9200 18.2906 0.1211
54.9400 18.2972 0.1069
54.9600 18.3038 0.1092
54.9800 18.3104 0.1121
55.0000 18.3170 0.1061
55.0200 18.3237 0.1083
55.0400 18.3304 0.1091
55.0600 18.3371 0.1028
55.0800 18.3438 0.1038
55.1000 18.3505 0.1030
55.1200 18.3572 0.1007
55.1400 18.3638 0.1056
55.1600 18.3704 0.1010
55.1800 18.3770 0.1043
55.2000 18.3837 0.1008
55.2200 18.3904 0.0947
55.2400 18.3971 0.0987
55.2600 18.4038 0.1037
55.2800 18.4105 0.0940
55.3000 18.4171 0.0953
55.3200 18.4238 0.0970
55.3400 18.4304 0.0899
55.3600 18.4370 0.0989
55.3800 18.4438 0.0968
55.4000 18.4505 0.0878
55.4200 18.4572 0.0928
55.4400 18.4639 0.0897
55.4600 18.4705 0.0892
55.4800 18.4772 0.0879
55.5000 18.4839 0.0861
55.5200 18.4905 0.0846
55.5400 18.4971 0.0839
55.5600 18.5038 0.0824
55.5800 18.5105 0.0852
55.6000 18.5172 0.0847
55.6200 18.5238 0.0821
55.6400 18.5305 0.0804
55.6600 18.5372 0.0797
55.6800 18.5439 0.0789
55.7000 18.5504 0.0758
55.7200 18.5570 0.0782
55.7400 18.5637 0.0778
55.7600 18.5704 0.0705
55.7800 18.5771 0.0727
55.8000 18.5838 0.0803
55.8200 18.5905 0.0679
55.8400 18.5972 0.0687
55.8600 18.6038 0.0723
55.8800 18.6104 0.0710
55.9000 18.6170 0.0691
55.9200 18.6237 0.0691
55.9400 18.6304 0.0642
55.9600 18.6371 0.0630
55.9800 18.6438 0.0690
56.0000 18.6505 0.0620
56.0200 18.6572 0.0627
56.0400 18.6638 0.0631
56.0600 18.6705 0.0572
56.0800 18.6771 0.0639
56.1000 18.6837 0.0626
56.1200 18.6905 0.0541
56.1400 18.6971 0.0591
56.1600 18.7038 0.0625
56.1800 18.7105 0.0534
56.2000 18.7172 0.0558
56.2200 18.7239 0.0578
56.2400 18.7304 0.0495
56.2600 18.7371 0.0546
56.2800 18.7437 0.0570
56.3000 18.7505 0.0452
56.3200 18.7572 0.0504
56.3400 18.7639 0.0535
56.3600 18.7705 0.0452
56.3800 18.7772 0.0472
56.4000 18.7838 0.0529
56.4200 18.7904 0.0412
56.4400 18.7971 0.0451
56.4600 18.8038 0.0525
56.4800 18.8105 0.0402
56.5000 18.8172 0.0417
56.5200 18.8238 0.0487
56.5400 18.8305 0.0399
56.5600 18.8372 0.0389
56.5800 18.8438 0.0451
56.6000 18.8504 0.0358
56.6200 18.8570 0.0363
56.6400 18.8637 0.0424
56.6600 18.8704 0.0355
56.6800 18.8771 0.0336
56.7000 18.8838 0.0373
56.7200 18.8905 0.0331
56.7400 18.8972 0.0391
56.7600 18.9038 0.0314
56.7800 18.9104 0.0326
56.8000 18.9171 0.0298
56.8200 18.9237 0.0302
56.8400 18.9305 0.0309
56.8600 18.9372 0.0223
56.8800 18.9439 0.0308
56.9000 18.9506 0.0268
56.9200 18.9572 0.0128
56.9400 18.9639 0.0271
56.9600 18.9705 0.0297
56.9800 18.9771 0.0194
57.0000 18.9838 0.0188
57.0200 18.9905 0.0248
57.0400 18.9972 0.0110
57.0600 19.0038 0.0214
57.0800 19.0105 0.0257
57.1000 19.0172 0.0079
57.1200 19.0238 0.0230
57.1400 19.0304 0.0134
57.1600 19.0370 0.0048
57.1800 19.0437 0.0251
57.2000 19.0504 0.0155
57.2200 19.0571 -0.0034
57.2400 19.0638 0.0144
57.2600 19.0705 0.0078
57.2800 19.0772 0.0017
57.3000 19.0838 0.0170
57.3200 19.0904 0.0004
57.3400 19.0970 0.0020
57.3600 19.1037 0.0141
57.3800 19.1104 -0.0061
57.4000 19.1171 0.0018
57.4200 19.1238 0.0079
57.4400 19.1305 -0.0051
57.4600 19.1372 -0.0039
57.4800 19.1438 -0.0029
57.5000 19.1504 -0.0063
57.5200 19.1571 -0.0041
57.5400 19.1637 -0.0084
57.5600 19.1705 -0.0108
57.5800 19.1772 -0.0034
57.6000 19.1838 -0.0112
57.6200 19.1905 -0.0160
57.6400 19.1972 -0.0031
57.6600 19.2039 -0.0173
57.6800 19.2105 -0.0138
57.7000 19.2171 -0.0160
57.7200 19.2238 -0.0170
57.7400 19.2305 -0.0158
57.7600 19.2372 -0.0206
57.7800 19.2439 -0.0216
57.8000 19.2506 -0.0208
57.8200 19.2572 -0.0225
57.8400 19.2639 -0.0236
57.8600 19.2705 -0.0318
57.8800 19.2771 -0.0248
57.9000 19.2837 -0.0282
57.9200 19.2904 -0.0300
57.9400 19.2971 -0.0338
57.9600 19.3038 -0.0289
57.9800 19.3105 -0.0348
58.0000 19.3172 -0.0344
58.0200 19.3238 -0.0358
58.0400 19.3305 -0.0386
58.0600 19.3370 -0.0367
58.0800 19.3437 -0.0404
58.1000 19.3504 -0.0440
58.1200 19.3571 -0.0416
58.1400 19.3638 -0.0407
58.1600 19.3704 -0.0443
58.1800 19.3771 -0.0443
58.2000 19.3838 -0.0468
58.2200 19.3905 -0.0478
58.2400 19.3971 -0.0484
58.2600 19.4037 -0.0483
58.2800 19.4104 -0.0461
58.3000 19.4171 -0.0481
58.3200 19.4238 -0.0543
58.3400 19.4305 -0.0439
58.3600 19.4372 -0.0552
58.3800 19.4439 -0.0587
58.4000 19.4505 -0.0505
58.4200 19.4571 -0.0576
58.4400 19.4637 -0.0587
58.4600 19.4704 -0.0511
58.4800 19.4771 -0.0641
58.5000 19.4839 -0.0617
58.5200 19.4905 -0.0544
58.5400 19.4972 -0.0646
58.5600 19.5039 -0.0643
58.5800 19.5105 -0.0640
58.6000 19.5171 -0.0655
58.6200 19.5237 -0.0644
58.6400 19.5304 -0.0723
58.6600 19.5371 -0.0683
58.6800 19.5438 -0.0675
58.7000 19.5505 -0.0722
58.7200 19.5572 -0.0680
58.7400 19.5638 -0.0735
58.7600 19.5705 -0.0744
58.7800 19.5771 -0.0702
58.8000 19.5837 -0.0756
58.8200 19.5904 -0.0811
58.8400 19.5971 -0.0703
58.8600 19.6038 -0.0815
58.8800 19.6105 -0.0828
58.9000 19.6171 -0.0765
58.9200 19.6238 -0.0835
58.9400 19.6304 -0.0842
58.9600 19.6370 -0.0822
58.9800 19.6437 -0.0901
59.0000 19.6504 -0.0874
59.0200 19.6572 -0.0871
59.0400 19.6639 -0.0954
59.0600 19.6705 -0.0875
59.0800 19.6772 -0.0866
59.1000 19.6839 -0.1038
59.1200 19.6905 -0.0890
59.1400 19.6971 -0.0898
59.1600 19.7038 -0.1053
59.1800 19.7105 -0.0941
59.2000 19.7172 -0.0957
59.2200 19.7239 -0.1153
59.2400 19.7305 -0.0951
59.2600 19.7372 -0.0971
59.2800 19.7439 -0.1159
59.2990 19.7501 -0.1128
