Raw Data
Time Displacement Force
(s) (mm) (N)
0.0000 0.0000 0.5631
0.0200 0.0000 0.5611
0.0400 0.0008 0.5950
0.0600 0.0040 0.6145
0.0800 0.0095 0.5744
0.1000 0.0152 0.5737
0.1200 0.0211 0.6033
0.1400 0.0277 0.5941
0.1600 0.0350 0.5815
0.1800 0.0425 0.5875
0.2000 0.0497 0.5834
0.2200 0.0565 0.5781
0.2400 0.0632 0.5951
0.2600 0.0699 0.5888
0.2800 0.0766 0.5826
0.3000 0.0833 0.5967
0.3200 0.0900 0.5868
0.3400 0.0967 0.5819
0.3600 0.1034 0.5971
0.3800 0.1100 0.5901
0.4000 0.1167 0.5869
0.4200 0.1234 0.5998
0.4400 0.1301 0.5954
0.4600 0.1367 0.5869
0.4800 0.1434 0.6017
0.5000 0.1501 0.6001
0.5200 0.1568 0.5866
0.5400 0.1634 0.6040
0.5600 0.1700 0.6031
0.5800 0.1766 0.5915
0.6000 0.1833 0.6077
0.6200 0.1900 0.6033
0.6400 0.1968 0.5902
0.6600 0.2034 0.6106
0.6800 0.2101 0.6118
0.7000 0.2168 0.5856
0.7200 0.2234 0.6137
0.7400 0.2300 0.6165
0.7600 0.2366 0.5900
0.7800 0.2433 0.6141
0.8000 0.2500 0.6130
0.8200 0.2567 0.5949
0.8400 0.2634 0.6181
0.8600 0.2701 0.6095
0.8800 0.2768 0.5958
0.9000 0.2834 0.6191
0.9200 0.2900 0.6112
0.9400 0.2966 0.5954
0.9600 0.3033 0.6225
0.9800 0.3100 0.6099
1.0000 0.3167 0.6017
1.0200 0.3234 0.6185
1.0400 0.3300 0.6072
1.0600 0.3367 0.6024
1.0800 0.3434 0.6188
1.1000 0.3500 0.6039
1.1200 0.3566 0.6084
1.1400 0.3633 0.6198
1.1600 0.3700 0.6096
1.1800 0.3767 0.6011
1.2000 0.3834 0.6135
1.2200 0.3901 0.6137
1.2400 0.3968 0.6006
1.2600 0.4035 0.6082
1.2800 0.4101 0.6098
1.3000 0.4167 0.6049
1.3200 0.4234 0.6086
1.3400 0.4300 0.6026
1.3600 0.4367 0.6009
1.3800 0.4434 0.6148
1.4000 0.4501 0.6012
1.4200 0.4567 0.5932
1.4400 0.4634 0.6079
1.4600 0.4700 0.6047
1.4800 0.4766 0.5989
1.5000 0.4833 0.6104
1.5200 0.4900 0.5989
1.5400 0.4967 0.5985
1.5600 0.5034 0.6026
1.5800 0.5101 0.5951
1.6000 0.5168 0.5948
1.6200 0.5234 0.6035
1.6400 0.5300 0.5962
1.6600 0.5366 0.5993
1.6800 0.5433 0.6081
1.7000 0.5500 0.5896
1.7200 0.5567 0.5901
1.7400 0.5634 0.6048
1.7600 0.5700 0.5963
1.7800 0.5767 0.5958
1.8000 0.5834 0.5919
1.8200 0.5900 0.5940
1.8400 0.5967 0.5961
1.8600 0.6033 0.5939
1.8800 0.6100 0.5934
1.9000 0.6167 0.5959
1.9200 0.6234 0.5924
1.9400 0.6301 0.5954
1.9600 0.6368 0.5929
1.9800 0.6434 0.5873
2.0000 0.6500 0.5974
2.0200 0.6566 0.5976
2.0400 0.6633 0.5881
2.0600 0.6700 0.5960
2.0800 0.6767 0.5951
2.1000 0.6834 0.5879
2.1200 0.6901 0.6017
2.1400 0.6968 0.5860
2.1600 0.7034 0.5837
2.1800 0.7100 0.6038
2.2000 0.7166 0.5836
2.2200 0.7233 0.5867
2.2400 0.7300 0.5989
2.2600 0.7367 0.5799
2.2800 0.7434 0.5943
2.3000 0.7501 0.5980
2.3200 0.7567 0.5772
2.3400 0.7634 0.5906
2.3600 0.7700 0.5975
2.3800 0.7766 0.5794
2.4000 0.7833 0.5989
2.4200 0.7900 0.5896
2.4400 0.7967 0.5756
2.4600 0.8034 0.6010
2.4800 0.8101 0.5863
2.5000 0.8168 0.5793
2.5200 0.8234 0.6008
2.5400 0.8300 0.5803
2.5600 0.8366 0.5805
2.5800 0.8433 0.5981
2.6000 0.8500 0.5772
2.6200 0.8568 0.5787
2.6400 0.8635 0.5988
2.6600 0.8701 0.5734
2.6800 0.8768 0.5846
2.7000 0.8834 0.5881
2.7200 0.8900 0.5731
2.7400 0.8967 0.5935
2.7600 0.9033 0.5823
2.7800 0.9100 0.5713
2.8000 0.9168 0.5907
2.8200 0.9234 0.5826
2.8400 0.9301 0.5742
2.8600 0.9368 0.5878
2.8800 0.9434 0.5800
2.9000 0.9500 0.5759
2.9200 0.9567 0.5867
2.9400 0.9633 0.5740
2.9600 0.9700 0.5784
2.9800 0.9767 0.5826
3.0000 0.9834 0.5719
3.0200 0.9901 0.5784
3.0400 0.9968 0.5812
3.0600 1.0034 0.5749
3.0800 1.0100 0.5732
3.1000 1.0166 0.5832
3.1200 1.0233 0.5726
3.1400 1.0300 0.5766
3.1600 1.0367 0.5794
3.1800 1.0434 0.5699
3.2000 1.0500 0.5802
3.2200 1.0567 0.5772
3.2400 1.0634 0.5670
3.2600 1.0700 0.5785
3.2800 1.0766 0.5813
3.3000 1.0833 0.5677
3.3200 1.0900 0.5762
3.3400 1.0967 0.5799
3.3600 1.1034 0.5672
3.3800 1.1101 0.5764
3.4000 1.1168 0.5761
3.4200 1.1235 0.5645
3.4400 1.1301 0.5732
3.4600 1.1367 0.5786
3.4800 1.1433 0.5633
3.5000 1.1500 0.5712
3.5200 1.1567 0.5804
3.5400 1.1634 0.5654
3.5600 1.1701 0.5695
3.5800 1.1768 0.5779
3.6000 1.1834 0.5652
3.6200 1.1900 0.5675
3.6400 1.1966 0.5789
3.6600 1.2033 0.5656
3.6800 1.2100 0.5678
3.7000 1.2167 0.5751
3.7200 1.2234 0.5651
3.7400 1.2301 0.5699
3.7600 1.2367 0.5682
3.7800 1.2434 0.5660
3.8000 1.2500 0.5747
3.8200 1.2567 0.5675
3.8400 1.2633 0.5685
3.8600 1.2700 0.5775
3.8800 1.2767 0.5642
3.9000 1.2834 0.5657
3.9200 1.2900 0.5792
3.9400 1.2967 0.5575
3.9600 1.3034 0.5694
3.9800 1.3101 0.5753
4.0000 1.3167 0.5617
4.0200 1.3233 0.5705
4.0400 1.3300 0.5777
4.0600 1.3367 0.5619
4.0800 1.3434 0.5690
4.1000 1.3501 0.5732
4.1200 1.3568 0.5649
4.1400 1.3634 0.5687
4.1600 1.3701 0.5663
4.1800 1.3767 0.5643
4.2000 1.3833 0.5723
4.2200 1.3900 0.5701
4.2400 1.3967 0.5626
4.2600 1.4034 0.5689
4.2800 1.4101 0.5675
4.3000 1.4168 0.5626
4.3200 1.4235 0.5730
4.3400 1.4301 0.5685
4.3600 1.4367 0.5675
4.3800 1.4433 0.5686
4.4000 1.4500 0.5667
4.4200 1.4567 0.5713
4.4400 1.4634 0.5662
4.4600 1.4701 0.5677
4.4800 1.4768 0.5668
4.5000 1.4834 0.5630
4.5200 1.4901 0.5688
4.5400 1.4967 0.5688
4.5600 1.5033 0.5656
4.5800 1.5100 0.5714
4.6000 1.5167 0.5699
4.6200 1.5234 0.5636
4.6400 1.5301 0.5675
4.6600 1.5368 0.5726
4.6800 1.5434 0.5607
4.7000 1.5501 0.5621
4.7200 1.5566 0.5695
4.7400 1.5633 0.5676
4.7600 1.5700 0.5617
4.7800 1.5768 0.5653
4.8000 1.5835 0.5662
4.8200 1.5901 0.5613
4.8400 1.5968 0.5635
4.8600 1.6035 0.5664
4.8800 1.6101 0.5586
4.9000 1.6166 0.5659
4.9200 1.6233 0.5638
4.9400 1.6300 0.5622
4.9600 1.6367 0.5668
4.9800 1.6434 0.5564
5.0000 1.6501 0.5565
5.0200 1.6568 0.5721
5.0400 1.6635 0.5555
5.0600 1.6701 0.5541
5.0800 1.6767 0.5709
5.1000 1.6833 0.5566
5.1200 1.6900 0.5568
5.1400 1.6967 0.5658
5.1600 1.7034 0.5558
5.1800 1.7101 0.5585
5.2000 1.7168 0.5602
5.2200 1.7235 0.5531
5.2400 1.7301 0.5635
5.2600 1.7367 0.5572
5.2800 1.7433 0.5466
5.3000 1.7500 0.5642
5.3200 1.7567 0.5629
5.3400 1.7634 0.5452
5.3600 1.7700 0.5577
5.3800 1.7767 0.5600
5.4000 1.7834 0.5499
5.4200 1.7900 0.5561
5.4400 1.7967 0.5564
5.4600 1.8033 0.5442
5.4800 1.8100 0.5621
5.5000 1.8167 0.5627
5.5200 1.8234 0.5362
5.5400 1.8301 0.5554
5.5600 1.8368 0.5662
5.5800 1.8435 0.5433
5.6000 1.8501 0.5435
5.6200 1.8567 0.5622
5.6400 1.8633 0.5590
5.6600 1.8700 0.5477
5.6800 1.8767 0.5503
5.7000 1.8834 0.5470
5.7200 1.8901 0.5569
5.7400 1.8968 0.5575
5.7600 1.9035 0.5419
5.7800 1.9101 0.5508
5.8000 1.9167 0.5561
5.8200 1.9233 0.5476
5.8400 1.9300 0.5510
5.8600 1.9367 0.5470
5.8800 1.9434 0.5533
5.9000 1.9500 0.5556
5.9200 1.9567 0.5329
5.9400 1.9634 0.5540
5.9600 1.9700 0.5586
5.9800 1.9767 0.5298
6.0000 1.9833 0.5539
6.0200 1.9900 0.5589
6.0400 1.9967 0.5358
6.0600 2.0034 0.5509
6.0800 2.0101 0.5467
6.1000 2.0168 0.5368
6.1200 2.0235 0.5612
6.1400 2.0301 0.5406
6.1600 2.0367 0.5288
6.1800 2.0433 0.5587
6.2000 2.0500 0.5438
6.2200 2.0567 0.5371
6.2400 2.0634 0.5528
6.2600 2.0701 0.5388
6.2800 2.0768 0.5433
6.3000 2.0835 0.5498
6.3200 2.0901 0.5314
6.3400 2.0967 0.5462
6.3600 2.1033 0.5550
6.3800 2.1100 0.5266
6.4000 2.1167 0.5450
6.4200 2.1234 0.5510
6.4400 2.1301 0.5309
6.4600 2.1368 0.5413
6.4800 2.1435 0.5447
6.5000 2.1501 0.5393
6.5200 2.1567 0.5418
6.5400 2.1633 0.5459
6.5600 2.1700 0.5317
6.5800 2.1767 0.5414
6.6000 2.1834 0.5501
6.6200 2.1901 0.5333
6.6400 2.1968 0.5430
6.6600 2.2035 0.5406
6.6800 2.2101 0.5364
6.7000 2.2167 0.5397
6.7200 2.2233 0.5447
6.7400 2.2299 0.5390
6.7600 2.2366 0.5359
6.7800 2.2434 0.5468
6.8000 2.2501 0.5380
6.8200 2.2568 0.5364
6.8400 2.2634 0.5502
6.8600 2.2701 0.5394
6.8800 2.2767 0.5336
6.9000 2.2833 0.5423
6.9200 2.2900 0.5424
6.9400 2.2967 0.5365
6.9600 2.3034 0.5449
6.9800 2.3101 0.5336
7.0000 2.3168 0.5414
7.0200 2.3234 0.5437
7.0400 2.3301 0.5305
7.0600 2.3367 0.5384
7.0800 2.3433 0.5439
7.1000 2.3500 0.5360
7.1200 2.3567 0.5394
7.1400 2.3634 0.5399
7.1600 2.3701 0.5372
7.1800 2.3768 0.5369
7.2000 2.3835 0.5390
7.2200 2.3901 0.5336
7.2400 2.3967 0.5424
7.2600 2.4033 0.5356
7.2800 2.4100 0.5325
7.3000 2.4167 0.5405
7.3200 2.4234 0.5369
7.3400 2.4301 0.5354
7.3600 2.4368 0.5357
7.3800 2.4434 0.5313
7.4000 2.4501 0.5386
7.4200 2.4567 0.5356
7.4400 2.4633 0.5324
7.4600 2.4700 0.5398
7.4800 2.4767 0.5311
7.5000 2.4833 0.5249
7.5200 2.4900 0.5386
7.5400 2.4967 0.5348
7.5600 2.5034 0.5266
7.5800 2.5101 0.5397
7.6000 2.5167 0.5222
7.6200 2.5233 0.5285
7.6400 2.5300 0.5439
7.6600 2.5367 0.5233
7.6800 2.5434 0.5247
7.7000 2.5501 0.5405
7.7200 2.5568 0.5260
7.7400 2.5635 0.5217
7.7600 2.5701 0.5298
7.7800 2.5767 0.5276
7.8000 2.5833 0.5205
7.8200 2.5900 0.5341
7.8400 2.5967 0.5221
7.8600 2.6034 0.5260
7.8800 2.6101 0.5327
7.9000 2.6168 0.5243
7.9200 2.6234 0.5258
7.9400 2.6301 0.5282
7.9600 2.6367 0.5206
7.9800 2.6433 0.5242
8.0000 2.6500 0.5326
8.0200 2.6567 0.5213
8.0400 2.6634 0.5154
8.0600 2.6700 0.5323
8.0800 2.6767 0.5133
8.1000 2.6834 0.5209
8.1200 2.6901 0.5302
8.1400 2.6967 0.5127
8.1600 2.7033 0.5214
8.1800 2.7099 0.5277
8.2000 2.7166 0.5168
8.2200 2.7234 0.5183
8.2400 2.7301 0.5282
8.2600 2.7368 0.5146
8.2800 2.7434 0.5162
8.3000 2.7501 0.5253
8.3200 2.7567 0.5151
8.3400 2.7633 0.5210
8.3600 2.7699 0.5260
8.3800 2.7767 0.5114
8.4000 2.7834 0.5209
8.4200 2.7901 0.5240
8.4400 2.7968 0.5093
8.4600 2.8034 0.5202
8.4800 2.8101 0.5261
8.5000 2.8167 0.5073
8.5200 2.8233 0.5174
8.5400 2.8300 0.5255
8.5600 2.8367 0.5089
8.5800 2.8434 0.5186
8.6000 2.8501 0.5219
8.6200 2.8568 0.5072
8.6400 2.8635 0.5192
8.6600 2.8701 0.5185
8.6800 2.8768 0.5120
8.7000 2.8834 0.5181
8.7200 2.8900 0.5201
8.7400 2.8967 0.5106
8.7600 2.9034 0.5169
8.7800 2.9101 0.5178
8.8000 2.9167 0.5109
8.8200 2.9234 0.5166
8.8400 2.9301 0.5206
8.8600 2.9367 0.5116
8.8800 2.9433 0.5170
8.9000 2.9499 0.5188
8.9200 2.9566 0.5152
8.9400 2.9633 0.5113
8.9600 2.9700 0.5196
8.9800 2.9767 0.5160
9.0000 2.9834 0.5122
9.0200 2.9901 0.5204
9.0400 2.9967 0.5128
9.0600 3.0033 0.5143
9.0800 3.0100 0.5197
9.1000 3.0167 0.5181
9.1200 3.0234 0.5115
9.1400 3.0301 0.5208
9.1600 3.0368 0.5160
9.1800 3.0435 0.5116
9.2000 3.0501 0.5238
9.2200 3.0568 0.5111
9.2400 3.0634 0.5123
9.2600 3.0700 0.5231
9.2800 3.0767 0.5090
9.3000 3.0834 0.5160
9.3200 3.0901 0.5194
9.3400 3.0968 0.5089
9.3600 3.1035 0.5183
9.3800 3.1101 0.5204
9.4000 3.1167 0.5073
9.4200 3.1233 0.5169
9.4400 3.1300 0.5222
9.4600 3.1367 0.5090
9.4800 3.1434 0.5159
9.5000 3.1501 0.5206
9.5200 3.1567 0.5086
9.5400 3.1634 0.5206
9.5600 3.1701 0.5219
9.5800 3.1768 0.5094
9.6000 3.1834 0.5160
9.6200 3.1900 0.5182
9.6400 3.1967 0.5109
9.6600 3.2034 0.5160
9.6800 3.2100 0.5167
9.7000 3.2167 0.5112
9.7200 3.2234 0.5153
9.7400 3.2300 0.5169
9.7600 3.2367 0.5101
9.7800 3.2433 0.5138
9.8000 3.2499 0.5171
9.8200 3.2567 0.5124
9.8400 3.2634 0.5123
9.8600 3.2701 0.5083
9.8800 3.2768 0.5122
9.9000 3.2835 0.5127
9.9200 3.2901 0.5140
9.9400 3.2967 0.5097
9.9600 3.3033 0.5086
9.9800 3.3100 0.5158
10.0000 3.3167 0.5165
10.0200 3.3234 0.5079
10.0400 3.3301 0.5096
10.0600 3.3368 0.5172
10.0800 3.3435 0.5041
10.1000 3.3501 0.5056
10.1200 3.3567 0.5192
10.1400 3.3633 0.5001
10.1600 3.3700 0.5079
10.1800 3.3766 0.5200
10.2000 3.3833 0.5051
10.2200 3.3900 0.5051
10.2400 3.3967 0.5173
10.2600 3.4034 0.5052
10.2800 3.4101 0.5008
10.3000 3.4167 0.5089
10.3200 3.4233 0.5053
10.3400 3.4299 0.5068
10.3600 3.4366 0.5092
10.3800 3.4433 0.5006
10.4000 3.4500 0.5039
10.4200 3.4567 0.5090
10.4400 3.4634 0.5047
10.4600 3.4701 0.5032
10.4800 3.4767 0.5095
10.5000 3.4834 0.5019
10.5200 3.4900 0.4969
10.5400 3.4966 0.5147
10.5600 3.5034 0.5082
10.5800 3.5101 0.4969
10.6000 3.5167 0.5064
10.6200 3.5234 0.5034
10.6400 3.5301 0.4999
10.6600 3.5368 0.5083
10.6800 3.5434 0.4971
10.7000 3.5500 0.5000
10.7200 3.5567 0.5088
10.7400 3.5633 0.5001
10.7600 3.5701 0.4955
10.7800 3.5767 0.5122
10.8000 3.5834 0.4936
10.8200 3.5901 0.4975
10.8400 3.5968 0.5104
10.8600 3.6034 0.4985
10.8800 3.6100 0.5010
10.9000 3.6167 0.5082
10.9200 3.6234 0.4916
10.9400 3.6301 0.5060
10.9600 3.6368 0.5020
10.9800 3.6434 0.4922
11.0000 3.6501 0.5089
11.0200 3.6567 0.5003
11.0400 3.6633 0.4939
11.0600 3.6699 0.5080
11.0800 3.6766 0.4920
11.1000 3.6833 0.4987
11.1200 3.6900 0.5103
11.1400 3.6967 0.4845
11.1600 3.7034 0.4998
11.1800 3.7101 0.5063
11.2000 3.7167 0.4869
11.2200 3.7233 0.5016
11.2400 3.7300 0.5021
11.2600 3.7366 0.4891
11.2800 3.7433 0.5032
11.3000 3.7501 0.5003
11.3200 3.7568 0.4945
11.3400 3.7635 0.5065
11.3600 3.7702 0.4925
11.3800 3.7768 0.4903
11.4000 3.7834 0.5062
11.4200 3.7900 0.4909
11.4400 3.7967 0.4937
11.4600 3.8034 0.5018
11.4800 3.8101 0.4861
11.5000 3.8168 0.4995
11.5200 3.8235 0.5046
11.5400 3.8301 0.4887
11.5600 3.8368 0.5026
11.5800 3.8434 0.4963
11.6000 3.8500 0.4888
11.6200 3.8566 0.5003
11.6400 3.8633 0.4940
11.6600 3.8700 0.4852
11.6800 3.8767 0.5048
11.7000 3.8834 0.4897
11.7200 3.8901 0.4883
11.7400 3.8967 0.5052
11.7600 3.9033 0.4829
11.7800 3.9099 0.4914
11.8000 3.9166 0.5021
11.8200 3.9233 0.4829
11.8400 3.9300 0.4919
11.8600 3.9367 0.4948
11.8800 3.9434 0.4864
11.9000 3.9501 0.4924
11.9200 3.9567 0.4877
11.9400 3.9634 0.4884
11.9600 3.9700 0.4959
11.9800 3.9766 0.4929
12.0000 3.9834 0.4845
12.0200 3.9901 0.4914
12.0400 3.9968 0.4856
12.0600 4.0034 0.4869
12.0800 4.0101 0.4928
12.1000 4.0168 0.4889
12.1200 4.0234 0.4888
12.1400 4.0300 0.4888
12.1600 4.0367 0.4873
12.1800 4.0434 0.4941
12.2000 4.0501 0.4858
12.2200 4.0567 0.4862
12.2400 4.0634 0.4920
12.2600 4.0701 0.4824
12.2800 4.0768 0.4866
12.3000 4.0834 0.4919
12.3200 4.0900 0.4786
12.3400 4.0966 0.4862
12.3600 4.1033 0.4898
12.3800 4.1100 0.4813
12.4000 4.1167 0.4924
12.4200 4.1234 0.4895
12.4400 4.1301 0.4784
12.4600 4.1368 0.4892
12.4800 4.1434 0.4834
12.5000 4.1500 0.4826
12.5200 4.1566 0.4853
12.5400 4.1633 0.4845
12.5600 4.1700 0.4798
12.5800 4.1767 0.4877
12.6000 4.1834 0.4883
12.6200 4.1901 0.4776
12.6400 4.1968 0.4885
12.6600 4.2034 0.4839
12.6800 4.2100 0.4762
12.7000 4.2167 0.4891
12.7200 4.2233 0.4826
12.7400 4.2300 0.4764
12.7600 4.2367 0.4823
12.7800 4.2434 0.4837
12.8000 4.2501 0.4764
12.8200 4.2568 0.4811
12.8400 4.2634 0.4877
12.8600 4.2700 0.4781
12.8800 4.2766 0.4839
12.9000 4.2833 0.4824
12.9200 4.2901 0.4764
12.9400 4.2968 0.4797
12.9600 4.3035 0.4810
12.9800 4.3101 0.4755
13.0000 4.3168 0.4824
13.0200 4.3234 0.4771
13.0400 4.3300 0.4800
13.0600 4.3367 0.4842
13.0800 4.3434 0.4793
13.1000 4.3501 0.4755
13.1200 4.3567 0.4802
13.1400 4.3634 0.4793
13.1600 4.3701 0.4758
13.1800 4.3768 0.4771
13.2000 4.3834 0.4755
13.2200 4.3900 0.4766
13.2400 4.3966 0.4773
13.2600 4.4033 0.4788
13.2800 4.4100 0.4785
13.3000 4.4167 0.4738
13.3200 4.4234 0.4800
13.3400 4.4301 0.4719
13.3600 4.4368 0.4739
13.3800 4.4434 0.4764
13.4000 4.4500 0.4776
13.4200 4.4566 0.4751
13.4400 4.4633 0.4752
13.4600 4.4701 0.4786
13.4800 4.4768 0.4737
13.5000 4.4835 0.4772
13.5200 4.4901 0.4750
13.5400 4.4968 0.4743
13.5600 4.5034 0.4757
13.5800 4.5100 0.4737
13.6000 4.5167 0.4784
13.6200 4.5234 0.4735
13.6400 4.5301 0.4708
13.6600 4.5368 0.4777
13.6800 4.5434 0.4686
13.7000 4.5501 0.4756
13.7200 4.5567 0.4779
13.7400 4.5634 0.4733
13.7600 4.5700 0.4695
13.7800 4.5766 0.4753
13.8000 4.5833 0.4707
13.8200 4.5900 0.4712
13.8400 4.5967 0.4713
13.8600 4.6034 0.4752
13.8800 4.6101 0.4698
13.9000 4.6168 0.4702
13.9200 4.6234 0.4750
13.9400 4.6300 0.4747
13.9600 4.6366 0.4730
13.9800 4.6433 0.4711
14.0000 4.6500 0.4737
14.0200 4.6567 0.4690
14.0400 4.6634 0.4712
14.0600 4.6700 0.4729
14.0800 4.6767 0.4689
14.1000 4.6834 0.4712
14.1200 4.6900 0.4692
14.1400 4.6966 0.4758
14.1600 4.7034 0.4741
14.1800 4.7101 0.4699
14.2000 4.7168 0.4719
14.2200 4.7234 0.4715
14.2400 4.7301 0.4692
14.2600 4.7368 0.4681
14.2800 4.7435 0.4703
14.3000 4.7501 0.4680
14.3200 4.7567 0.4709
14.3400 4.7633 0.4739
14.3600 4.7700 0.4700
14.3800 4.7767 0.4666
14.4000 4.7835 0.4770
14.4200 4.7902 0.4678
14.4400 4.7968 0.4635
14.4600 4.8034 0.4760
14.4800 4.8100 0.4700
14.5000 4.8166 0.4670
14.5200 4.8233 0.4777
14.5400 4.8300 0.4624
14.5600 4.8367 0.4683
14.5800 4.8434 0.4768
14.6000 4.8500 0.4637
14.6200 4.8567 0.4697
14.6400 4.8634 0.4757
14.6600 4.8700 0.4609
14.6800 4.8766 0.4702
14.7000 4.8833 0.4703
14.7200 4.8900 0.4628
14.7400 4.8967 0.4697
14.7600 4.9034 0.4731
14.7800 4.9100 0.4608
14.8000 4.9167 0.4699
14.8200 4.9234 0.4682
14.8400 4.9300 0.4653
14.8600 4.9367 0.4751
14.8800 4.9433 0.4647
14.9000 4.9500 0.4631
14.9200 4.9567 0.4712
14.9400 4.9634 0.4632
14.9600 4.9701 0.4645
14.9800 4.9768 0.4703
15.0000 4.9834 0.4584
15.0200 4.9900 0.4633
15.0400 4.9966 0.4732
15.0600 5.0033 0.4630
15.0800 5.0100 0.4682
15.1000 5.0167 0.4685
15.1200 5.0234 0.4562
15.1400 5.0301 0.4687
15.1600 5.0368 0.4674
15.1800 5.0434 0.4587
15.2000 5.0500 0.4666
15.2200 5.0567 0.4652
15.2400 5.0633 0.4563
15.2600 5.0700 0.4702
15.2800 5.0767 0.4689
15.3000 5.0834 0.4541
15.3200 5.0901 0.4642
15.3400 5.0968 0.4617
15.3600 5.1034 0.4530
15.3800 5.1100 0.4693
15.4000 5.1166 0.4588
15.4200 5.1233 0.4562
15.4400 5.1300 0.4698
15.4600 5.1367 0.4583
15.4800 5.1434 0.4543
15.5000 5.1500 0.4720
15.5200 5.1567 0.4569
15.5400 5.1634 0.4551
15.5600 5.1700 0.4666
15.5800 5.1766 0.4573
15.6000 5.1833 0.4583
15.6200 5.1900 0.4685
15.6400 5.1967 0.4485
15.6600 5.2034 0.4564
15.6800 5.2101 0.4701
15.7000 5.2168 0.4506
15.7200 5.2235 0.4573
15.7400 5.2301 0.4663
15.7600 5.2367 0.4554
15.7800 5.2434 0.4561
15.8000 5.2501 0.4621
15.8200 5.2568 0.4532
15.8400 5.2634 0.4551
15.8600 5.2701 0.4634
15.8800 5.2768 0.4508
15.9000 5.2834 0.4577
15.9200 5.2900 0.4678
15.9400 5.2966 0.4548
15.9600 5.3033 0.4591
15.9800 5.3100 0.4618
16.0000 5.3167 0.4532
16.0200 5.3234 0.4554
16.0400 5.3301 0.4631
16.0600 5.3368 0.4508
16.0800 5.3434 0.4545
16.1000 5.3500 0.4651
16.1200 5.3566 0.4543
16.1400 5.3633 0.4601
16.1600 5.3700 0.4627
16.1800 5.3768 0.4508
16.2000 5.3834 0.4525
16.2200 5.3901 0.4614
16.2400 5.3967 0.4552
16.2600 5.4034 0.4519
16.2800 5.4101 0.4613
16.3000 5.4167 0.4501
16.3200 5.4234 0.4548
16.3400 5.4300 0.4623
16.3600 5.4367 0.4525
16.3800 5.4434 0.4538
16.4000 5.4501 0.4625
16.4200 5.4568 0.4517
16.4400 5.4634 0.4482
16.4600 5.4701 0.4596
16.4800 5.4767 0.4520
16.5000 5.4833 0.4523
16.5200 5.4900 0.4623
16.5400 5.4968 0.4480
16.5600 5.5034 0.4569
16.5800 5.5101 0.4585
16.6000 5.5168 0.4520
16.6200 5.5234 0.4583
16.6400 5.5300 0.4525
16.6600 5.5366 0.4561
16.6800 5.5433 0.4530
16.7000 5.5500 0.4545
16.7200 5.5567 0.4509
16.7400 5.5634 0.4491
16.7600 5.5701 0.4557
16.7800 5.5767 0.4572
16.8000 5.5834 0.4557
16.8200 5.5901 0.4478
16.8400 5.5967 0.4561
16.8600 5.6033 0.4535
16.8800 5.6100 0.4446
16.9000 5.6167 0.4568
16.9200 5.6233 0.4502
16.9400 5.6301 0.4509
16.9600 5.6368 0.4511
16.9800 5.6435 0.4486
17.0000 5.6501 0.4546
17.0200 5.6567 0.4573
17.0400 5.6633 0.4478
17.0600 5.6700 0.4509
17.0800 5.6767 0.4540
17.1000 5.6834 0.4439
17.1200 5.6901 0.4506
17.1400 5.6968 0.4566
17.1600 5.7034 0.4445
17.1800 5.7100 0.4466
17.2000 5.7167 0.4517
17.2200 5.7233 0.4497
17.2400 5.7300 0.4521
17.2600 5.7367 0.4498
17.2800 5.7434 0.4445
17.3000 5.7501 0.4513
17.3200 5.7568 0.4457
17.3400 5.7635 0.4432
17.3600 5.7701 0.4514
17.3800 5.7767 0.4443
17.4000 5.7833 0.4448
17.4200 5.7900 0.4501
17.4400 5.7967 0.4451
17.4600 5.8034 0.4393
17.4800 5.8101 0.4507
17.5000 5.8168 0.4444
17.5200 5.8234 0.4460
17.5400 5.8300 0.4463
17.5600 5.8366 0.4440
17.5800 5.8432 0.4481
17.6000 5.8500 0.4475
17.6200 5.8567 0.4430
17.6400 5.8634 0.4397
17.6600 5.8701 0.4489
17.6800 5.8767 0.4440
17.7000 5.8834 0.4398
17.7200 5.8901 0.4462
17.7400 5.8967 0.4439
17.7600 5.9033 0.4405
17.7800 5.9100 0.4390
17.8000 5.9167 0.4436
17.8200 5.9234 0.4408
17.8400 5.9301 0.4392
17.8600 5.9368 0.4412
17.8800 5.9435 0.4450
17.9000 5.9501 0.4418
17.9200 5.9567 0.4365
17.9400 5.9633 0.4421
17.9600 5.9700 0.4424
17.9800 5.9767 0.4363
18.0000 5.9834 0.4427
18.0200 5.9901 0.4361
18.0400 5.9968 0.4374
18.0600 6.0034 0.4423
18.0800 6.0101 0.4314
18.1000 6.0166 0.4442
18.1200 6.0233 0.4430
18.1400 6.0300 0.4325
18.1600 6.0367 0.4397
18.1800 6.0434 0.4388
18.2000 6.0501 0.4321
18.2200 6.0568 0.4425
18.2400 6.0634 0.4368
18.2600 6.0701 0.4335
18.2800 6.0767 0.4403
18.3000 6.0833 0.4368
18.3200 6.0900 0.4382
18.3400 6.0967 0.4407
18.3600 6.1034 0.4303
18.3800 6.1100 0.4379
18.4000 6.1167 0.4365
18.4200 6.1234 0.4330
18.4400 6.1301 0.4380
18.4600 6.1367 0.4364
18.4800 6.1433 0.4309
18.5000 6.1500 0.4395
18.5200 6.1567 0.4381
18.5400 6.1634 0.4304
18.5600 6.1701 0.4423
18.5800 6.1768 0.4389
18.6000 6.1834 0.4280
18.6200 6.1901 0.4390
18.6400 6.1967 0.4343
18.6600 6.2033 0.4343
18.6800 6.2100 0.4371
18.7000 6.2167 0.4311
18.7200 6.2234 0.4348
18.7400 6.2301 0.4324
18.7600 6.2368 0.4352
18.7800 6.2435 0.4382
18.8000 6.2501 0.4261
18.8200 6.2567 0.4327
18.8400 6.2633 0.4389
18.8600 6.2700 0.4251
18.8800 6.2767 0.4338
18.9000 6.2834 0.4396
18.9200 6.2900 0.4285
18.9400 6.2967 0.4340
18.9600 6.3034 0.4403
18.9800 6.3101 0.4256
19.0000 6.3167 0.4384
19.0200 6.3233 0.4363
19.0400 6.3299 0.4230
19.0600 6.3367 0.4390
19.0800 6.3434 0.4350
19.1000 6.3501 0.4233
19.1200 6.3568 0.4389
19.1400 6.3634 0.4337
19.1600 6.3701 0.4252
19.1800 6.3767 0.4395
19.2000 6.3833 0.4359
19.2200 6.3900 0.4267
19.2400 6.3967 0.4385
19.2600 6.4034 0.4305
19.2800 6.4101 0.4306
19.3000 6.4168 0.4347
19.3200 6.4234 0.4298
19.3400 6.4301 0.4279
19.3600 6.4367 0.4338
19.3800 6.4433 0.4339
19.4000 6.4500 0.4296
19.4200 6.4567 0.4304
19.4400 6.4634 0.4297
19.4600 6.4701 0.4283
19.4800 6.4768 0.4297
19.5000 6.4835 0.4297
19.5200 6.4901 0.4296
19.5400 6.4967 0.4245
19.5600 6.5033 0.4347
19.5800 6.5100 0.4344
19.6000 6.5167 0.4223
19.6200 6.5234 0.4326
19.6400 6.5301 0.4342
19.6600 6.5368 0.4224
19.6800 6.5435 0.4247
19.7000 6.5501 0.4319
19.7200 6.5567 0.4262
19.7400 6.5633 0.4335
19.7600 6.5699 0.4271
19.7800 6.5767 0.4248
19.8000 6.5834 0.4368
19.8200 6.5900 0.4279
19.8400 6.5967 0.4218
19.8600 6.6034 0.4366
19.8800 6.6100 0.4194
19.9000 6.6167 0.4221
19.9200 6.6233 0.4364
19.9400 6.6300 0.4250
19.9600 6.6367 0.4221
19.9800 6.6434 0.4291
20.0000 6.6501 0.4225
20.0200 6.6568 0.4224
20.0400 6.6635 0.4356
20.0600 6.6701 0.4206
20.0800 6.6767 0.4207
20.1000 6.6833 0.4364
20.1200 6.6900 0.4182
20.1400 6.6967 0.4221
20.1600 6.7034 0.4338
20.1800 6.7101 0.4212
20.2000 6.7168 0.4225
20.2200 6.7235 0.4312
20.2400 6.7301 0.4211
20.2600 6.7367 0.4247
20.2800 6.7433 0.4306
20.3000 6.7500 0.4178
20.3200 6.7567 0.4227
20.3400 6.7634 0.4373
20.3600 6.7700 0.4147
20.3800 6.7767 0.4214
20.4000 6.7834 0.4349
20.4200 6.7901 0.4128
20.4400 6.7967 0.4248
20.4600 6.8033 0.4315
20.4800 6.8100 0.4163
20.5000 6.8167 0.4225
20.5200 6.8234 0.4259
20.5400 6.8301 0.4111
20.5600 6.8367 0.4288
20.5800 6.8434 0.4237
20.6000 6.8501 0.4096
20.6200 6.8567 0.4276
20.6400 6.8633 0.4255
20.6600 6.8700 0.4114
20.6800 6.8767 0.4303
20.7000 6.8834 0.4251
20.7200 6.8901 0.4123
20.7400 6.8968 0.4213
20.7600 6.9035 0.4204
20.7800 6.9101 0.4147
20.8000 6.9167 0.4258
20.8200 6.9233 0.4193
20.8400 6.9300 0.4162
20.8600 6.9367 0.4242
20.8800 6.9434 0.4228
20.9000 6.9501 0.4174
20.9200 6.9568 0.4206
20.9400 6.9635 0.4187
20.9600 6.9701 0.4160
20.9800 6.9767 0.4173
21.0000 6.9833 0.4208
21.0200 6.9900 0.4215
21.0400 6.9967 0.4116
21.0600 7.0034 0.4187
21.0800 7.0101 0.4233
21.1000 7.0168 0.4112
21.1200 7.0235 0.4233
21.1400 7.0301 0.4211
21.1600 7.0367 0.4096
21.1800 7.0433 0.4233
21.2000 7.0499 0.4169
21.2200 7.0566 0.4113
21.2400 7.0633 0.4206
21.2600 7.0700 0.4138
21.2800 7.0767 0.4096
21.3000 7.0834 0.4241
21.3200 7.0900 0.4128
21.3400 7.0967 0.4127
21.3600 7.1033 0.4256
21.3800 7.1100 0.4087
21.4000 7.1167 0.4074
21.4200 7.1234 0.4199
21.4400 7.1301 0.4075
21.4600 7.1367 0.4152
21.4800 7.1434 0.4179
21.5000 7.1501 0.4040
21.5200 7.1568 0.4150
21.5400 7.1634 0.4246
21.5600 7.1700 0.4050
21.5800 7.1767 0.4159
21.6000 7.1834 0.4162
21.6200 7.1901 0.4031
21.6400 7.1968 0.4145
21.6600 7.2035 0.4123
21.6800 7.2101 0.4054
21.7000 7.2167 0.4132
21.7200 7.2233 0.4100
21.7400 7.2300 0.4126
21.7600 7.2367 0.4167
21.7800 7.2434 0.4075
21.8000 7.2501 0.4076
21.8200 7.2568 0.4080
21.8400 7.2634 0.4107
21.8600 7.2701 0.4083
21.8800 7.2767 0.4070
21.9000 7.2833 0.4075
21.9200 7.2899 0.4136
21.9400 7.2966 0.4031
21.9600 7.3034 0.4103
21.9800 7.3100 0.4117
22.0000 7.3167 0.4039
22.0200 7.3234 0.4123
22.0400 7.3301 0.4037
22.0600 7.3367 0.4020
22.0800 7.3433 0.4155
22.1000 7.3500 0.4048
22.1200 7.3567 0.4071
22.1400 7.3634 0.4110
22.1600 7.3701 0.4052
22.1800 7.3768 0.4034
22.2000 7.3835 0.4073
22.2200 7.3901 0.4005
22.2400 7.3967 0.4012
22.2600 7.4033 0.4095
22.2800 7.4100 0.4047
22.3000 7.4167 0.4040
22.3200 7.4234 0.4077
22.3400 7.4301 0.4059
22.3600 7.4368 0.4066
22.3800 7.4434 0.4030
22.4000 7.4501 0.4054
22.4200 7.4567 0.4018
22.4400 7.4633 0.4055
22.4600 7.4700 0.4031
22.4800 7.4767 0.4026
22.5000 7.4834 0.4043
22.5200 7.4900 0.4003
22.5400 7.4967 0.4062
22.5600 7.5034 0.4065
22.5800 7.5101 0.4017
22.6000 7.5167 0.4005
22.6200 7.5233 0.4077
22.6400 7.5299 0.4055
22.6600 7.5366 0.3995
22.6800 7.5434 0.4080
22.7000 7.5501 0.4018
22.7200 7.5568 0.4023
22.7400 7.5635 0.4090
22.7600 7.5701 0.3959
22.7800 7.5767 0.4026
22.8000 7.5833 0.4107
22.8200 7.5900 0.4023
22.8400 7.5967 0.3996
22.8600 7.6034 0.4093
22.8800 7.6101 0.3978
22.9000 7.6167 0.3986
22.9200 7.6234 0.4049
22.9400 7.6301 0.4005
22.9600 7.6368 0.3987
22.9800 7.6434 0.4044
23.0000 7.6500 0.3983
23.0200 7.6567 0.4031
23.0400 7.6634 0.4029
23.0600 7.6701 0.3971
23.0800 7.6768 0.4007
23.1000 7.6835 0.4025
23.1200 7.6901 0.3948
23.1400 7.6968 0.4017
23.1600 7.7034 0.4029
23.1800 7.7100 0.3978
23.2000 7.7167 0.4025
23.2200 7.7234 0.3970
23.2400 7.7301 0.4025
23.2600 7.7368 0.4040
23.2800 7.7434 0.3950
23.3000 7.7501 0.4010
23.3200 7.7567 0.3989
23.3400 7.7633 0.3969
23.3600 7.7699 0.4010
23.3800 7.7766 0.3984
23.4000 7.7833 0.3907
23.4200 7.7900 0.4011
23.4400 7.7967 0.4058
23.4600 7.8034 0.3902
23.4800 7.8101 0.4044
23.5000 7.8167 0.4010
23.5200 7.8233 0.3881
23.5400 7.8300 0.3996
23.5600 7.8367 0.3987
23.5800 7.8434 0.3892
23.6000 7.8501 0.4010
23.6200 7.8568 0.3917
23.6400 7.8635 0.3931
23.6600 7.8701 0.4029
23.6800 7.8768 0.3922
23.7000 7.8834 0.3877
23.7200 7.8900 0.4015
23.7400 7.8967 0.3904
23.7600 7.9034 0.3933
23.7800 7.9101 0.3978
23.8000 7.9168 0.3853
23.8200 7.9235 0.3994
23.8400 7.9301 0.3979
23.8600 7.9368 0.3887
23.8800 7.9434 0.3975
23.9000 7.9500 0.3978
23.9200 7.9567 0.3923
23.9400 7.9634 0.3920
23.9600 7.9701 0.3929
23.9800 7.9767 0.3913
24.0000 7.9834 0.3916
24.0200 7.9901 0.3908
24.0400 7.9968 0.3935
24.0600 8.0034 0.3921
24.0800 8.0100 0.3921
24.1000 8.0166 0.3981
24.1200 8.0233 0.3884
24.1400 8.0300 0.3915
24.1600 8.0367 0.3955
24.1800 8.0434 0.3867
24.2000 8.0501 0.3910
24.2200 8.0567 0.3977
24.2400 8.0633 0.3823
24.2600 8.0700 0.3986
24.2800 8.0766 0.3979
24.3000 8.0834 0.3783
24.3200 8.0901 0.3963
24.3400 8.0968 0.3971
24.3600 8.1035 0.3836
24.3800 8.1101 0.3934
24.4000 8.1167 0.3913
24.4200 8.1233 0.3903
24.4400 8.1300 0.3920
24.4600 8.1367 0.3944
24.4800 8.1434 0.3850
24.5000 8.1501 0.3928
24.5200 8.1568 0.3980
24.5400 8.1635 0.3874
24.5600 8.1701 0.3915
24.5800 8.1768 0.3957
24.6000 8.1834 0.3853
24.6200 8.1900 0.3913
24.6400 8.1966 0.3938
24.6600 8.2033 0.3864
24.6800 8.2100 0.3905
24.7000 8.2167 0.3947
24.7200 8.2234 0.3884
24.7400 8.2301 0.3926
24.7600 8.2367 0.3947
24.7800 8.2433 0.3893
24.8000 8.2499 0.3892
24.8200 8.2566 0.3932
24.8400 8.2633 0.3923
24.8600 8.2700 0.3861
24.8800 8.2767 0.3915
24.9000 8.2834 0.3881
24.9200 8.2901 0.3878
24.9400 8.2967 0.3889
24.9600 8.3034 0.3886
24.9800 8.3100 0.3899
25.0000 8.3167 0.3878
25.0200 8.3234 0.3867
25.0400 8.3301 0.3882
25.0600 8.3367 0.3861
25.0800 8.3434 0.3891
25.1000 8.3501 0.3886
25.1200 8.3568 0.3894
25.1400 8.3634 0.3829
25.1600 8.3700 0.3913
25.1800 8.3766 0.3914
25.2000 8.3833 0.3830
25.2200 8.3900 0.3916
25.2400 8.3968 0.3878
25.2600 8.4034 0.3837
25.2800 8.4101 0.3854
25.3000 8.4168 0.3831
25.3200 8.4234 0.3857
25.3400 8.4300 0.3874
25.3600 8.4367 0.3895
25.3800 8.4434 0.3861
25.4000 8.4501 0.3882
25.4200 8.4568 0.3891
25.4400 8.4634 0.3849
25.4600 8.4701 0.3863
25.4800 8.4768 0.3888
25.5000 8.4834 0.3851
25.5200 8.4899 0.3839
25.5400 8.4966 0.3897
25.5600 8.5033 0.3821
25.5800 8.5100 0.3874
25.6000 8.5167 0.3904
25.6200 8.5234 0.3820
25.6400 8.5301 0.3864
25.6600 8.5367 0.3884
25.6800 8.5434 0.3778
25.7000 8.5500 0.3827
25.7200 8.5566 0.3942
25.7400 8.5633 0.3804
25.7600 8.5701 0.3758
25.7800 8.5768 0.3942
25.8000 8.5835 0.3777
25.8200 8.5902 0.3823
25.8400 8.5968 0.3934
25.8600 8.6034 0.3759
25.8800 8.6100 0.3811
25.9000 8.6166 0.3925
25.9200 8.6234 0.3755
25.9400 8.6301 0.3793
25.9600 8.6368 0.3912
25.9800 8.6435 0.3739
26.0000 8.6501 0.3789
26.0200 8.6568 0.3976
26.0400 8.6634 0.3763
26.0600 8.6700 0.3812
26.0800 8.6766 0.3865
26.1000 8.6833 0.3774
26.1200 8.6900 0.3851
26.1400 8.6967 0.3824
26.1600 8.7034 0.3749
26.1800 8.7101 0.3809
26.2000 8.7168 0.3846
26.2200 8.7234 0.3723
26.2400 8.7299 0.3813
26.2600 8.7366 0.3871
26.2800 8.7433 0.3766
26.3000 8.7500 0.3766
26.3200 8.7567 0.3795
26.3400 8.7634 0.3828
26.3600 8.7701 0.3804
26.3800 8.7767 0.3693
26.4000 8.7834 0.3799
26.4200 8.7900 0.3865
26.4400 8.7966 0.3782
26.4600 8.8033 0.3769
26.4800 8.8101 0.3816
26.5000 8.8168 0.3782
26.5200 8.8235 0.3813
26.5400 8.8301 0.3751
26.5600 8.8368 0.3790
26.5800 8.8434 0.3825
26.6000 8.8500 0.3687
26.6200 8.8567 0.3785
26.6400 8.8634 0.3859
26.6600 8.8701 0.3672
26.6800 8.8768 0.3804
26.7000 8.8834 0.3819
26.7200 8.8901 0.3698
26.7400 8.8968 0.3877
26.7600 8.9034 0.3761
26.7800 8.9100 0.3602
26.8000 8.9166 0.3884
26.8200 8.9233 0.3781
26.8400 8.9300 0.3559
26.8600 8.9367 0.3836
26.8800 8.9434 0.3810
26.9000 8.9501 0.3667
26.9200 8.9568 0.3787
26.9400 8.9634 0.3695
26.9600 8.9700 0.3781
26.9800 8.9766 0.3785
27.0000 8.9833 0.3667
27.0200 8.9900 0.3786
27.0400 8.9967 0.3792
27.0600 9.0034 0.3687
27.0800 9.0101 0.3730
27.1000 9.0168 0.3719
27.1200 9.0234 0.3733
27.1400 9.0300 0.3769
27.1600 9.0366 0.3697
27.1800 9.0433 0.3699
27.2000 9.0500 0.3739
27.2200 9.0567 0.3749
27.2400 9.0634 0.3679
27.2600 9.0701 0.3661
27.2800 9.0768 0.3767
27.3000 9.0834 0.3720
27.3200 9.0900 0.3633
27.3400 9.0966 0.3762
27.3600 9.1033 0.3719
27.3800 9.1101 0.3611
27.4000 9.1168 0.3729
27.4200 9.1235 0.3762
27.4400 9.1301 0.3625
27.4600 9.1368 0.3757
27.4800 9.1434 0.3706
27.5000 9.1500 0.3626
27.5200 9.1567 0.3768
27.5400 9.1634 0.3761
27.5600 9.1701 0.3587
27.5800 9.1767 0.3714
27.6000 9.1834 0.3756
27.6200 9.1901 0.3599
27.6400 9.1968 0.3702
27.6600 9.2034 0.3750
27.6800 9.2100 0.3621
27.7000 9.2166 0.3652
27.7200 9.2233 0.3780
27.7400 9.2300 0.3599
27.7600 9.2367 0.3647
27.7800 9.2434 0.3793
27.8000 9.2501 0.3608
27.8200 9.2568 0.3600
27.8400 9.2634 0.3756
27.8600 9.2700 0.3639
27.8800 9.2766 0.3589
27.9000 9.2833 0.3755
27.9200 9.2901 0.3662
27.9400 9.2968 0.3539
27.9600 9.3035 0.3781
27.9800 9.3102 0.3651
28.0000 9.3168 0.3567
28.0200 9.3234 0.3744
28.0400 9.3300 0.3651
28.0600 9.3367 0.3560
28.0800 9.3434 0.3756
28.1000 9.3501 0.3653
28.1200 9.3568 0.3560
28.1400 9.3634 0.3719
28.1600 9.3701 0.3651
28.1800 9.3768 0.3556
28.2000 9.3834 0.3702
28.2200 9.3900 0.3655
28.2400 9.3966 0.3591
28.2600 9.4033 0.3673
28.2800 9.4100 0.3673
28.3000 9.4167 0.3573
28.3200 9.4234 0.3640
28.3400 9.4301 0.3731
28.3600 9.4368 0.3594
28.3800 9.4434 0.3636
28.4000 9.4500 0.3751
28.4200 9.4566 0.3552
28.4400 9.4633 0.3666
28.4600 9.4700 0.3759
28.4800 9.4767 0.3523
28.5000 9.4834 0.3632
28.5200 9.4901 0.3695
28.5400 9.4968 0.3565
28.5600 9.5034 0.3632
28.5800 9.5100 0.3658
28.6000 9.5166 0.3623
28.6200 9.5233 0.3676
28.6400 9.5300 0.3602
28.6600 9.5367 0.3587
28.6800 9.5434 0.3669
28.7000 9.5501 0.3644
28.7200 9.5568 0.3580
28.7400 9.5635 0.3652
28.7600 9.5701 0.3611
28.7800 9.5767 0.3618
28.8000 9.5833 0.3614
28.8200 9.5900 0.3700
28.8400 9.5967 0.3610
28.8600 9.6034 0.3546
28.8800 9.6101 0.3689
28.9000 9.6168 0.3607
28.9200 9.6235 0.3510
28.9400 9.6300 0.3681
28.9600 9.6366 0.3649
28.9800 9.6433 0.3518
29.0000 9.6500 0.3606
29.0200 9.6567 0.3638
29.0400 9.6634 0.3610
29.0600 9.6700 0.3693
29.0800 9.6767 0.3471
29.1000 9.6834 0.3619
29.1200 9.6900 0.3722
29.1400 9.6966 0.3451
29.1600 9.7033 0.3598
29.1800 9.7100 0.3785
29.2000 9.7167 0.3433
29.2200 9.7234 0.3565
29.2400 9.7300 0.3752
29.2600 9.7367 0.3502
29.2800 9.7434 0.3599
29.3000 9.7501 0.3703
29.3200 9.7567 0.3460
29.3400 9.7633 0.3644
29.3600 9.7700 0.3685
29.3800 9.7767 0.3411
29.4000 9.7834 0.3666
29.4200 9.7901 0.3619
29.4400 9.7968 0.3447
29.4600 9.8034 0.3670
29.4800 9.8100 0.3657
29.5000 9.8166 0.3517
29.5200 9.8233 0.3637
29.5400 9.8300 0.3557
29.5600 9.8367 0.3511
29.5800 9.8434 0.3711
29.6000 9.8501 0.3498
29.6200 9.8568 0.3471
29.6400 9.8634 0.3684
29.6600 9.8700 0.3522
29.6800 9.8767 0.3524
29.7000 9.8833 0.3629
29.7200 9.8900 0.3482
29.7400 9.8967 0.3537
29.7600 9.9034 0.3600
29.7800 9.9101 0.3476
29.8000 9.9168 0.3626
29.8200 9.9234 0.3533
29.8400 9.9300 0.3461
29.8600 9.9366 0.3632
29.8800 9.9432 0.3534
29.9000 9.9500 0.3486
29.9200 9.9567 0.3641
29.9400 9.9634 0.3432
29.9600 9.9700 0.3495
29.9800 9.9767 0.3596
30.0000 9.9834 0.3456
30.0200 9.9900 0.3490
30.0400 9.9966 0.3578
30.0600 10.0033 0.3533
30.0800 10.0100 0.3508
30.1000 10.0167 0.3456
30.1200 10.0234 0.3550
30.1400 10.0301 0.3637
30.1600 10.0368 0.3396
30.1800 10.0435 0.3418
30.2000 10.0501 0.3651
30.2200 10.0567 0.3543
30.2400 10.0634 0.3346
30.2600 10.0700 0.3569
30.2800 10.0767 0.3620
30.3000 10.0834 0.3459
30.3200 10.0901 0.3438
30.3400 10.0968 0.3546
30.3600 10.1035 0.3538
30.3800 10.1101 0.3469
30.4000 10.1166 0.3424
30.4200 10.1233 0.3584
30.4400 10.1300 0.3535
30.4600 10.1367 0.3439
30.4800 10.1434 0.3439
30.5000 10.1501 0.3523
30.5200 10.1567 0.3555
30.5400 10.1634 0.3402
30.5600 10.1700 0.3431
30.5800 10.1766 0.3609
30.6000 10.1833 0.3471
30.6200 10.1900 0.3424
30.6400 10.1967 0.3490
30.6600 10.2034 0.3444
30.6800 10.2101 0.3503
30.7000 10.2168 0.3461
30.7200 10.2234 0.3385
30.7400 10.2301 0.3550
30.7600 10.2367 0.3524
30.7800 10.2433 0.3363
30.8000 10.2500 0.3496
30.8200 10.2567 0.3536
30.8400 10.2634 0.3384
30.8600 10.2701 0.3435
30.8800 10.2768 0.3509
30.9000 10.2835 0.3402
30.9200 10.2901 0.3461
30.9400 10.2967 0.3515
30.9600 10.3033 0.3419
30.9800 10.3100 0.3459
31.0000 10.3167 0.3481
31.0200 10.3234 0.3402
31.0400 10.3301 0.3434
31.0600 10.3368 0.3405
31.0800 10.3434 0.3460
31.1000 10.3500 0.3489
31.1200 10.3566 0.3430
31.1400 10.3633 0.3414
31.1600 10.3700 0.3576
31.1800 10.3767 0.3355
31.2000 10.3834 0.3352
31.2200 10.3901 0.3514
31.2400 10.3967 0.3452
31.2600 10.4034 0.3349
31.2800 10.4100 0.3343
31.3000 10.4167 0.3484
31.3200 10.4233 0.3510
31.3400 10.4300 0.3319
31.3600 10.4367 0.3424
31.3800 10.4434 0.3515
31.4000 10.4501 0.3361
31.4200 10.4568 0.3377
31.4400 10.4635 0.3505
31.4600 10.4701 0.3382
31.4800 10.4767 0.3383
31.5000 10.4833 0.3414
31.5200 10.4900 0.3404
31.5400 10.4967 0.3482
31.5600 10.5034 0.3365
31.5800 10.5101 0.3351
31.6000 10.5168 0.3500
31.6200 10.5235 0.3338
31.6400 10.5301 0.3358
31.6600 10.5367 0.3455
31.6800 10.5433 0.3341
31.7000 10.5500 0.3397
31.7200 10.5567 0.3384
31.7400 10.5634 0.3315
31.7600 10.5701 0.3453
31.7800 10.5768 0.3486
31.8000 10.5835 0.3221
31.8200 10.5901 0.3415
31.8400 10.5967 0.3524
31.8600 10.6033 0.3247
31.8800 10.6100 0.3356
31.9000 10.6167 0.3497
31.9200 10.6234 0.3224
31.9400 10.6301 0.3349
31.9600 10.6368 0.3406
31.9800 10.6434 0.3338
32.0000 10.6501 0.3362
32.0200 10.6566 0.3355
32.0400 10.6632 0.3337
32.0600 10.6699 0.3428
32.0800 10.6767 0.3291
32.1000 10.6834 0.3301
32.1200 10.6901 0.3376
32.1400 10.6967 0.3257
32.1600 10.7034 0.3337
32.1800 10.7101 0.3402
32.2000 10.7167 0.3246
32.2200 10.7233 0.3350
32.2400 10.7300 0.3353
32.2600 10.7367 0.3260
32.2800 10.7434 0.3357
32.3000 10.7501 0.3282
32.3200 10.7568 0.3315
32.3400 10.7635 0.3335
32.3600 10.7701 0.3198
32.3800 10.7767 0.3321
32.4000 10.7833 0.3372
32.4200 10.7900 0.3206
32.4400 10.7967 0.3321
32.4600 10.8034 0.3322
32.4800 10.8101 0.3195
32.5000 10.8168 0.3339
32.5200 10.8234 0.3311
32.5400 10.8301 0.3151
32.5600 10.8367 0.3377
32.5800 10.8433 0.3285
32.6000 10.8500 0.3201
32.6200 10.8567 0.3380
32.6400 10.8634 0.3261
32.6600 10.8701 0.3194
32.6800 10.8768 0.3374
32.7000 10.8834 0.3213
32.7200 10.8901 0.3167
32.7400 10.8967 0.3393
32.7600 10.9033 0.3246
32.7800 10.9100 0.3155
32.8000 10.9167 0.3343
32.8200 10.9234 0.3207
32.8400 10.9301 0.3269
32.8600 10.9367 0.3352
32.8800 10.9434 0.3187
32.9000 10.9501 0.3234
32.9200 10.9567 0.3290
32.9400 10.9633 0.3215
32.9600 10.9700 0.3261
32.9800 10.9767 0.3284
33.0000 10.9834 0.3207
33.0200 10.9901 0.3217
33.0400 10.9968 0.3281
33.0600 11.0034 0.3249
33.0800 11.0101 0.3215
33.1000 11.0167 0.3275
33.1200 11.0233 0.3260
33.1400 11.0300 0.3217
33.1600 11.0367 0.3220
33.1800 11.0434 0.3251
33.2000 11.0501 0.3238
33.2200 11.0568 0.3267
33.2400 11.0635 0.3152
33.2600 11.0701 0.3252
33.2800 11.0767 0.3303
33.3000 11.0833 0.3183
33.3200 11.0900 0.3245
33.3400 11.0967 0.3312
33.3600 11.1034 0.3139
33.3800 11.1101 0.3193
33.4000 11.1168 0.3252
33.4200 11.1234 0.3163
33.4400 11.1301 0.3197
33.4600 11.1367 0.3285
33.4800 11.1433 0.3138
33.5000 11.1500 0.3265
33.5200 11.1567 0.3254
33.5400 11.1634 0.3142
33.5600 11.1700 0.3245
33.5800 11.1767 0.3225
33.6000 11.1834 0.3170
33.6200 11.1901 0.3219
33.6400 11.1967 0.3179
33.6600 11.2033 0.3281
33.6800 11.2100 0.3300
33.7000 11.2167 0.3044
33.7200 11.2234 0.3188
33.7400 11.2301 0.3390
33.7600 11.2368 0.3111
33.7800 11.2435 0.3118
33.8000 11.2501 0.3265
33.8200 11.2567 0.3111
33.8400 11.2633 0.3288
33.8600 11.2700 0.3276
33.8800 11.2767 0.2966
33.9000 11.2834 0.3278
33.9200 11.2901 0.3349
33.9400 11.2968 0.2995
33.9600 11.3035 0.3241
33.9800 11.3101 0.3242
34.0000 11.3167 0.3089
34.0200 11.3233 0.3317
34.0400 11.3300 0.3098
34.0600 11.3366 0.3084
34.0800 11.3433 0.3415
34.1000 11.3500 0.3068
34.1200 11.3567 0.3150
34.1400 11.3635 0.3334
34.1600 11.3701 0.3034
34.1800 11.3767 0.3186
34.2000 11.3833 0.3310
34.2200 11.3899 0.3026
34.2400 11.3967 0.3244
34.2600 11.4034 0.3175
34.2800 11.4101 0.3022
34.3000 11.4167 0.3268
34.3200 11.4234 0.3108
34.3400 11.4301 0.3032
34.3600 11.4367 0.3289
34.3800 11.4433 0.3088
34.4000 11.4500 0.3106
34.4200 11.4567 0.3268
34.4400 11.4634 0.3068
34.4600 11.4701 0.3117
34.4800 11.4768 0.3248
34.5000 11.4835 0.3028
34.5200 11.4902 0.3093
34.5400 11.4968 0.3240
34.5600 11.5033 0.3052
34.5800 11.5100 0.3155
34.6000 11.5167 0.3144
34.6200 11.5234 0.3084
34.6400 11.5301 0.3177
34.6600 11.5368 0.3120
34.6800 11.5434 0.3114
34.7000 11.5501 0.3225
34.7200 11.5567 0.3036
34.7400 11.5633 0.3106
34.7600 11.5700 0.3201
34.7800 11.5767 0.3120
34.8000 11.5834 0.3108
34.8200 11.5900 0.3148
34.8400 11.5967 0.3098
34.8600 11.6034 0.3180
34.8800 11.6100 0.3081
34.9000 11.6167 0.3055
34.9200 11.6233 0.3189
34.9400 11.6299 0.3080
34.9600 11.6366 0.3027
34.9800 11.6434 0.3213
35.0000 11.6501 0.3043
35.0200 11.6568 0.3030
35.0400 11.6635 0.3218
35.0600 11.6701 0.3030
35.0800 11.6768 0.3062
35.1000 11.6833 0.3213
35.1200 11.6900 0.3024
35.1400 11.6967 0.3089
35.1600 11.7034 0.3198
35.1800 11.7101 0.3037
35.2000 11.7168 0.3052
35.2200 11.7235 0.3154
35.2400 11.7301 0.3121
35.2600 11.7367 0.3054
35.2800 11.7433 0.3123
35.3000 11.7500 0.3134
35.3200 11.7567 0.3110
35.3400 11.7634 0.3139
35.3600 11.7701 0.3078
35.3800 11.7768 0.3088
35.4000 11.7835 0.3076
35.4200 11.7901 0.3029
35.4400 11.7968 0.3061
35.4600 11.8034 0.3132
35.4800 11.8100 0.3079
35.5000 11.8167 0.3065
35.5200 11.8234 0.3145
35.5400 11.8300 0.3038
35.5600 11.8367 0.3132
35.5800 11.8434 0.3137
35.6000 11.8501 0.2965
35.6200 11.8567 0.3103
35.6400 11.8633 0.3115
35.6600 11.8699 0.2991
35.6800 11.8766 0.3177
35.7000 11.8833 0.3054
35.7200 11.8900 0.2968
35.7400 11.8967 0.3190
35.7600 11.9034 0.3112
35.7800 11.9101 0.2982
35.8000 11.9167 0.3132
35.8200 11.9233 0.3066
35.8400 11.9300 0.3003
35.8600 11.9367 0.3099
35.8800 11.9434 0.3068
35.9000 11.9501 0.3072
35.9200 11.9567 0.3078
35.9400 11.9634 0.3046
35.9600 11.9701 0.3088
35.9800 11.9768 0.3087
36.0000 11.9834 0.3038
36.0200 11.9900 0.3106
36.0400 11.9967 0.3059
36.0600 12.0034 0.2989
36.0800 12.0101 0.3090
36.1000 12.0168 0.3118
36.1200 12.0235 0.2950
36.1400 12.0301 0.3068
36.1600 12.0367 0.3074
36.1800 12.0433 0.2988
36.2000 12.0500 0.3073
36.2200 12.0567 0.3129
36.2400 12.0634 0.2969
36.2600 12.0701 0.3071
36.2800 12.0768 0.3057
36.3000 12.0834 0.2974
36.3200 12.0901 0.3108
36.3400 12.0967 0.2999
36.3600 12.1033 0.2903
36.3800 12.1100 0.3130
36.4000 12.1166 0.3009
36.4200 12.1233 0.2954
36.4400 12.1300 0.3103
36.4600 12.1367 0.3020
36.4800 12.1434 0.2885
36.5000 12.1501 0.3052
36.5200 12.1567 0.3018
36.5400 12.1633 0.2966
36.5600 12.1700 0.3094
36.5800 12.1767 0.2956
36.6000 12.1834 0.2932
36.6200 12.1901 0.3085
36.6400 12.1968 0.2990
36.6600 12.2035 0.2931
36.6800 12.2102 0.2994
36.7000 12.2168 0.3003
36.7200 12.2233 0.2974
36.7400 12.2300 0.2950
36.7600 12.2367 0.2988
36.7800 12.2434 0.2994
36.8000 12.2501 0.2956
36.8200 12.2568 0.2935
36.8400 12.2635 0.2989
36.8600 12.2701 0.3030
36.8800 12.2767 0.2910
36.9000 12.2833 0.2952
36.9200 12.2900 0.3067
36.9400 12.2966 0.2905
36.9600 12.3034 0.2905
36.9800 12.3101 0.3026
37.0000 12.3167 0.2956
37.0200 12.3234 0.2928
37.0400 12.3301 0.3005
37.0600 12.3367 0.2914
37.0800 12.3433 0.2900
37.1000 12.3499 0.2969
37.1200 12.3566 0.3055
37.1400 12.3633 0.2928
37.1600 12.3701 0.2846
37.1800 12.3768 0.2944
37.2000 12.3834 0.3015
37.2200 12.3901 0.2873
37.2400 12.3967 0.2904
37.2600 12.4033 0.3054
37.2800 12.4100 0.2926
37.3000 12.4167 0.2812
37.3200 12.4234 0.3045
37.3400 12.4300 0.3025
37.3600 12.4367 0.2790
37.3800 12.4434 0.2972
37.4000 12.4501 0.2970
37.4200 12.4568 0.2841
37.4400 12.4634 0.2966
37.4600 12.4700 0.2955
37.4800 12.4767 0.2869
37.5000 12.4834 0.2916
37.5200 12.4901 0.2928
37.5400 12.4967 0.2928
37.5600 12.5034 0.2951
37.5800 12.5101 0.2871
37.6000 12.5168 0.2916
37.6200 12.5234 0.2965
37.6400 12.5300 0.2851
37.6600 12.5367 0.2931
37.6800 12.5434 0.2969
37.7000 12.5501 0.2847
37.7200 12.5568 0.2872
37.7400 12.5634 0.3007
37.7600 12.5701 0.2908
37.7800 12.5767 0.2902
37.8000 12.5833 0.2899
37.8200 12.5899 0.2934
37.8400 12.5966 0.2928
37.8600 12.6033 0.2840
37.8800 12.6100 0.2858
37.9000 12.6167 0.2927
37.9200 12.6234 0.2875
37.9400 12.6301 0.2859
37.9600 12.6367 0.2897
37.9800 12.6434 0.2906
38.0000 12.6500 0.2952
38.0200 12.6567 0.2898
38.0400 12.6634 0.2824
38.0600 12.6701 0.2994
38.0800 12.6768 0.2902
38.1000 12.6834 0.2793
38.1200 12.6901 0.2943
38.1400 12.6968 0.2935
38.1600 12.7034 0.2802
38.1800 12.7100 0.2918
38.2000 12.7167 0.2956
38.2200 12.7234 0.2889
38.2400 12.7301 0.2851
38.2600 12.7368 0.2888
38.2800 12.7435 0.2880
38.3000 12.7501 0.2800
38.3200 12.7568 0.2902
38.3400 12.7633 0.2846
38.3600 12.7699 0.2859
38.3800 12.7766 0.2905
38.4000 12.7833 0.2897
38.4200 12.7901 0.2818
38.4400 12.7968 0.2903
38.4600 12.8034 0.2880
38.4800 12.8101 0.2861
38.5000 12.8168 0.2852
38.5200 12.8234 0.2736
38.5400 12.8300 0.2915
38.5600 12.8366 0.2969
38.5800 12.8433 0.2747
38.6000 12.8500 0.2815
38.6200 12.8567 0.2938
38.6400 12.8634 0.2814
38.6600 12.8701 0.2830
38.6800 12.8767 0.2894
38.7000 12.8833 0.2735
38.7200 12.8900 0.2826
38.7400 12.8966 0.2911
38.7600 12.9034 0.2718
38.7800 12.9101 0.2789
38.8000 12.9168 0.2894
38.8200 12.9235 0.2791
38.8400 12.9301 0.2772
38.8600 12.9368 0.2855
38.8800 12.9434 0.2802
38.9000 12.9500 0.2837
38.9200 12.9566 0.2840
38.9400 12.9634 0.2798
38.9600 12.9701 0.2813
38.9800 12.9768 0.2781
39.0000 12.9835 0.2786
39.0200 12.9901 0.2852
39.0400 12.9968 0.2746
39.0600 13.0034 0.2757
39.0800 13.0100 0.2807
39.1000 13.0166 0.2786
39.1200 13.0233 0.2848
39.1400 13.0300 0.2847
39.1600 13.0367 0.2733
39.1800 13.0434 0.2773
39.2000 13.0501 0.2772
39.2200 13.0568 0.2719
39.2400 13.0634 0.2809
39.2600 13.0700 0.2808
39.2800 13.0766 0.2687
39.3000 13.0833 0.2811
39.3200 13.0900 0.2802
39.3400 13.0967 0.2773
39.3600 13.1034 0.2770
39.3800 13.1101 0.2713
39.4000 13.1168 0.2776
39.4200 13.1234 0.2830
39.4400 13.1300 0.2662
39.4600 13.1367 0.2770
39.4800 13.1434 0.2796
39.5000 13.1501 0.2731
39.5200 13.1568 0.2768
39.5400 13.1634 0.2733
39.5600 13.1701 0.2714
39.5800 13.1768 0.2772
39.6000 13.1834 0.2738
39.6200 13.1900 0.2742
39.6400 13.1966 0.2771
39.6600 13.2033 0.2642
39.6800 13.2101 0.2718
39.7000 13.2167 0.2832
39.7200 13.2234 0.2686
39.7400 13.2301 0.2656
39.7600 13.2368 0.2710
39.7800 13.2434 0.2722
39.8000 13.2500 0.2805
39.8200 13.2566 0.2709
39.8400 13.2634 0.2628
39.8600 13.2701 0.2764
39.8800 13.2768 0.2710
39.9000 13.2835 0.2623
39.9200 13.2901 0.2783
39.9400 13.2968 0.2670
39.9600 13.3034 0.2610
39.9800 13.3100 0.2812
40.0000 13.3166 0.2708
40.0200 13.3233 0.2625
40.0400 13.3300 0.2771
40.0600 13.3367 0.2660
40.0800 13.3434 0.2649
40.1000 13.3501 0.2764
40.1200 13.3567 0.2624
40.1400 13.3634 0.2644
40.1600 13.3700 0.2815
40.1800 13.3766 0.2600
40.2000 13.3833 0.2682
40.2200 13.3900 0.2765
40.2400 13.3968 0.2581
40.2600 13.4035 0.2689
40.2800 13.4102 0.2752
40.3000 13.4168 0.2564
40.3200 13.4234 0.2641
40.3400 13.4300 0.2756
40.3600 13.4366 0.2579
40.3800 13.4434 0.2684
40.4000 13.4501 0.2717
40.4200 13.4568 0.2573
40.4400 13.4635 0.2708
40.4600 13.4701 0.2711
40.4800 13.4768 0.2581
40.5000 13.4834 0.2651
40.5200 13.4900 0.2719
40.5400 13.4966 0.2574
40.5600 13.5033 0.2638
40.5800 13.5100 0.2730
40.6000 13.5167 0.2563
40.6200 13.5234 0.2670
40.6400 13.5301 0.2653
40.6600 13.5368 0.2607
40.6800 13.5434 0.2685
40.7000 13.5500 0.2625
40.7200 13.5566 0.2561
40.7400 13.5633 0.2693
40.7600 13.5700 0.2581
40.7800 13.5767 0.2540
40.8000 13.5834 0.2709
40.8200 13.5900 0.2618
40.8400 13.5967 0.2538
40.8600 13.6034 0.2623
40.8800 13.6100 0.2662
40.9000 13.6166 0.2617
40.9200 13.6233 0.2556
40.9400 13.6301 0.2593
40.9600 13.6368 0.2604
40.9800 13.6435 0.2550
41.0000 13.6501 0.2572
41.0200 13.6568 0.2672
41.0400 13.6634 0.2503
41.0600 13.6700 0.2583
41.0800 13.6767 0.2704
41.1000 13.6834 0.2554
41.1200 13.6900 0.2570
41.1400 13.6967 0.2655
41.1600 13.7034 0.2504
41.1800 13.7101 0.2606
41.2000 13.7168 0.2666
41.2200 13.7234 0.2479
41.2400 13.7300 0.2579
41.2600 13.7366 0.2642
41.2800 13.7433 0.2570
41.3000 13.7500 0.2565
41.3200 13.7567 0.2616
41.3400 13.7634 0.2555
41.3600 13.7701 0.2567
41.3800 13.7767 0.2637
41.4000 13.7834 0.2539
41.4200 13.7900 0.2526
41.4400 13.7966 0.2555
41.4600 13.8033 0.2572
41.4800 13.8100 0.2608
41.5000 13.8167 0.2490
41.5200 13.8234 0.2512
41.5400 13.8301 0.2617
41.5600 13.8368 0.2563
41.5800 13.8434 0.2464
41.6000 13.8500 0.2623
41.6200 13.8566 0.2523
41.6400 13.8633 0.2445
41.6600 13.8700 0.2616
41.6800 13.8767 0.2514
41.7000 13.8834 0.2486
41.7200 13.8901 0.2554
41.7400 13.8968 0.2482
41.7600 13.9035 0.2563
41.7800 13.9100 0.2562
41.8000 13.9167 0.2467
41.8200 13.9233 0.2511
41.8400 13.9301 0.2524
41.8600 13.9368 0.2511
41.8800 13.9435 0.2539
41.9000 13.9501 0.2479
41.9200 13.9568 0.2437
41.9400 13.9634 0.2549
41.9600 13.9700 0.2489
41.9800 13.9766 0.2549
42.0000 13.9833 0.2549
42.0200 13.9901 0.2419
42.0400 13.9967 0.2516
42.0600 14.0034 0.2536
42.0800 14.0101 0.2391
42.1000 14.0168 0.2551
42.1200 14.0234 0.2535
42.1400 14.0300 0.2387
42.1600 14.0366 0.2530
42.1800 14.0433 0.2567
42.2000 14.0500 0.2430
42.2200 14.0567 0.2530
42.2400 14.0634 0.2470
42.2600 14.0701 0.2404
42.2800 14.0768 0.2549
42.3000 14.0834 0.2484
42.3200 14.0900 0.2347
42.3400 14.0966 0.2533
42.3600 14.1033 0.2522
42.3800 14.1100 0.2423
42.4000 14.1168 0.2486
42.4200 14.1234 0.2569
42.4400 14.1301 0.2372
42.4600 14.1368 0.2470
42.4800 14.1435 0.2572
42.5000 14.1501 0.2417
42.5200 14.1567 0.2459
42.5400 14.1634 0.2492
42.5600 14.1701 0.2408
42.5800 14.1768 0.2478
42.6000 14.1834 0.2555
42.6200 14.1901 0.2378
42.6400 14.1968 0.2406
42.6600 14.2034 0.2536
42.6800 14.2100 0.2422
42.7000 14.2166 0.2452
42.7200 14.2233 0.2506
42.7400 14.2300 0.2397
42.7600 14.2367 0.2464
42.7800 14.2434 0.2443
42.8000 14.2501 0.2420
42.8200 14.2568 0.2447
42.8400 14.2634 0.2489
42.8600 14.2700 0.2375
42.8800 14.2766 0.2466
42.9000 14.2833 0.2484
42.9200 14.2900 0.2404
42.9400 14.2967 0.2355
42.9600 14.3034 0.2471
42.9800 14.3101 0.2461
43.0000 14.3168 0.2361
43.0200 14.3234 0.2416
43.0400 14.3300 0.2464
43.0600 14.3366 0.2402
43.0800 14.3433 0.2495
43.1000 14.3501 0.2433
43.1200 14.3568 0.2332
43.1400 14.3634 0.2494
43.1600 14.3701 0.2344
43.1800 14.3768 0.2333
43.2000 14.3834 0.2527
43.2200 14.3900 0.2328
43.2400 14.3967 0.2336
43.2600 14.4033 0.2477
43.2800 14.4100 0.2407
43.3000 14.4168 0.2403
43.3200 14.4235 0.2482
43.3400 14.4301 0.2348
43.3600 14.4368 0.2324
43.3800 14.4435 0.2450
43.4000 14.4500 0.2365
43.4200 14.4566 0.2407
43.4400 14.4633 0.2418
43.4600 14.4700 0.2289
43.4800 14.4767 0.2403
43.5000 14.4834 0.2467
43.5200 14.4901 0.2331
43.5400 14.4967 0.2427
43.5600 14.5034 0.2391
43.5800 14.5100 0.2297
43.6000 14.5166 0.2380
43.6200 14.5233 0.2475
43.6400 14.5300 0.2306
43.6600 14.5367 0.2311
43.6800 14.5434 0.2449
43.7000 14.5500 0.2392
43.7200 14.5567 0.2322
43.7400 14.5634 0.2412
43.7600 14.5701 0.2358
43.7800 14.5767 0.2386
43.8000 14.5833 0.2401
43.8200 14.5900 0.2326
43.8400 14.5967 0.2329
43.8600 14.6034 0.2395
43.8800 14.6101 0.2294
43.9000 14.6168 0.2402
43.9200 14.6235 0.2379
43.9400 14.6301 0.2241
43.9600 14.6366 0.2384
43.9800 14.6433 0.2406
44.0000 14.6500 0.2360
44.0200 14.6567 0.2338
44.0400 14.6634 0.2361
44.0600 14.6701 0.2256
44.0800 14.6768 0.2396
44.1000 14.6835 0.2381
44.1200 14.6901 0.2239
44.1400 14.6967 0.2366
44.1600 14.7033 0.2410
44.1800 14.7100 0.2290
44.2000 14.7167 0.2385
44.2200 14.7234 0.2373
44.2400 14.7301 0.2297
44.2600 14.7368 0.2296
44.2800 14.7435 0.2387
44.3000 14.7501 0.2285
44.3200 14.7566 0.2306
44.3400 14.7633 0.2330
44.3600 14.7699 0.2326
44.3800 14.7767 0.2280
44.4000 14.7834 0.2346
44.4200 14.7900 0.2343
44.4400 14.7967 0.2313
44.4600 14.8034 0.2278
44.4800 14.8100 0.2259
44.5000 14.8166 0.2311
44.5200 14.8233 0.2362
44.5400 14.8300 0.2249
44.5600 14.8367 0.2247
44.5800 14.8434 0.2386
44.6000 14.8501 0.2268
44.6200 14.8568 0.2234
44.6400 14.8635 0.2374
44.6600 14.8701 0.2311
44.6800 14.8767 0.2194
44.7000 14.8834 0.2311
44.7200 14.8901 0.2298
44.7400 14.8968 0.2206
44.7600 14.9034 0.2280
44.7800 14.9101 0.2319
44.8000 14.9168 0.2228
44.8200 14.9234 0.2280
44.8400 14.9301 0.2269
44.8600 14.9367 0.2219
44.8800 14.9433 0.2308
44.9000 14.9500 0.2351
44.9200 14.9567 0.2114
44.9400 14.9634 0.2280
44.9600 14.9701 0.2356
44.9800 14.9767 0.2123
45.0000 14.9834 0.2254
45.0200 14.9900 0.2333
45.0400 14.9966 0.2113
45.0600 15.0033 0.2297
45.0800 15.0100 0.2326
45.1000 15.0167 0.2132
45.1200 15.0234 0.2297
45.1400 15.0301 0.2275
45.1600 15.0367 0.2101
45.1800 15.0434 0.2355
45.2000 15.0501 0.2226
45.2200 15.0567 0.2096
45.2400 15.0634 0.2357
45.2600 15.0700 0.2253
45.2800 15.0767 0.2092
45.3000 15.0834 0.2395
45.3200 15.0901 0.2179
45.3400 15.0968 0.2132
45.3600 15.1035 0.2365
45.3800 15.1101 0.2170
45.4000 15.1167 0.2176
45.4200 15.1233 0.2278
45.4400 15.1300 0.2164
45.4600 15.1367 0.2205
45.4800 15.1434 0.2227
45.5000 15.1501 0.2144
45.5200 15.1568 0.2211
45.5400 15.1635 0.2180
45.5600 15.1701 0.2131
45.5800 15.1767 0.2265
45.6000 15.1833 0.2186
45.6200 15.1900 0.2097
45.6400 15.1967 0.2212
45.6600 15.2034 0.2115
45.6800 15.2101 0.2204
45.7000 15.2167 0.2193
45.7200 15.2234 0.2120
45.7400 15.2301 0.2163
45.7600 15.2367 0.2207
45.7800 15.2433 0.2166
45.8000 15.2500 0.2194
45.8200 15.2567 0.2129
45.8400 15.2634 0.2151
45.8600 15.2701 0.2158
45.8800 15.2768 0.2101
45.9000 15.2834 0.2157
45.9200 15.2901 0.2202
45.9400 15.2967 0.2083
45.9600 15.3033 0.2129
45.9800 15.3100 0.2141
46.0000 15.3167 0.2130
46.0200 15.3234 0.2166
46.0400 15.3301 0.2089
46.0600 15.3368 0.2067
46.0800 15.3434 0.2126
46.1000 15.3501 0.2107
46.1200 15.3567 0.2067
46.1400 15.3633 0.2154
46.1600 15.3700 0.2131
46.1800 15.3767 0.2023
46.2000 15.3834 0.2121
46.2200 15.3901 0.2163
46.2400 15.3968 0.2104
46.2600 15.4035 0.2010
46.2800 15.4101 0.2089
46.3000 15.4167 0.2046
46.3200 15.4233 0.2023
46.3400 15.4300 0.2138
46.3600 15.4367 0.2024
46.3800 15.4434 0.2013
46.4000 15.4501 0.2122
46.4200 15.4568 0.2061
46.4400 15.4634 0.1981
46.4600 15.4701 0.2052
46.4800 15.4766 0.2057
46.5000 15.4833 0.2035
46.5200 15.4899 0.2087
46.5400 15.4967 0.2044
46.5600 15.5034 0.1900
46.5800 15.5101 0.2073
46.6000 15.5167 0.2069
46.6200 15.5234 0.1988
46.6400 15.5301 0.2019
46.6600 15.5367 0.2060
46.6800 15.5433 0.1967
46.7000 15.5500 0.2037
46.7200 15.5567 0.2022
46.7400 15.5634 0.1937
46.7600 15.5701 0.2017
46.7800 15.5768 0.2009
46.8000 15.5835 0.1955
46.8200 15.5901 0.2054
46.8400 15.5967 0.1958
46.8600 15.6033 0.1951
46.8800 15.6100 0.2087
46.9000 15.6167 0.1937
46.9200 15.6234 0.1913
46.9400 15.6301 0.2068
46.9600 15.6368 0.1998
46.9800 15.6435 0.1901
47.0000 15.6501 0.2037
47.0200 15.6567 0.1959
47.0400 15.6633 0.1923
47.0600 15.6700 0.2064
47.0800 15.6767 0.1982
47.1000 15.6834 0.1885
47.1200 15.6901 0.2059
47.1400 15.6967 0.1970
47.1600 15.7034 0.1935
47.1800 15.7101 0.2010
47.2000 15.7167 0.1910
47.2200 15.7233 0.1908
47.2400 15.7300 0.1983
47.2600 15.7367 0.1923
47.2800 15.7434 0.1972
47.3000 15.7501 0.1880
47.3200 15.7567 0.1967
47.3400 15.7634 0.2037
47.3600 15.7701 0.1867
47.3800 15.7767 0.1959
47.4000 15.7833 0.2022
47.4200 15.7900 0.1847
47.4400 15.7967 0.1929
47.4600 15.8034 0.1991
47.4800 15.8101 0.1898
47.5000 15.8168 0.1892
47.5200 15.8234 0.1929
47.5400 15.8301 0.1924
47.5600 15.8367 0.1992
47.5800 15.8433 0.1891
47.6000 15.8500 0.1880
47.6200 15.8567 0.2026
47.6400 15.8634 0.1867
47.6600 15.8701 0.1838
47.6800 15.8768 0.2001
47.7000 15.8835 0.1874
47.7200 15.8901 0.1877
47.7400 15.8967 0.1996
47.7600 15.9033 0.1839
47.7800 15.9100 0.1921
47.8000 15.9167 0.2036
47.8200 15.9234 0.1856
47.8400 15.9301 0.1886
47.8600 15.9367 0.2004
47.8800 15.9434 0.1813
47.9000 15.9501 0.1909
47.9200 15.9567 0.1963
47.9400 15.9633 0.1841
47.9600 15.9700 0.1917
47.9800 15.9766 0.1938
48.0000 15.9834 0.1847
48.0200 15.9901 0.1981
48.0400 15.9967 0.1941
48.0600 16.0034 0.1777
48.0800 16.0101 0.1890
48.1000 16.0167 0.1984
48.1200 16.0233 0.1796
48.1400 16.0300 0.1886
48.1600 16.0367 0.1896
48.1800 16.0435 0.1824
48.2000 16.0501 0.1877
48.2200 16.0568 0.1932
48.2400 16.0635 0.1881
48.2600 16.0701 0.1854
48.2800 16.0767 0.1847
48.3000 16.0833 0.1869
48.3200 16.0900 0.1860
48.3400 16.0967 0.1865
48.3600 16.1034 0.1814
48.3800 16.1101 0.1776
48.4000 16.1168 0.1927
48.4200 16.1235 0.1772
48.4400 16.1301 0.1732
48.4600 16.1367 0.1925
48.4800 16.1433 0.1832
48.5000 16.1499 0.1779
48.5200 16.1566 0.1879
48.5400 16.1634 0.1766
48.5600 16.1701 0.1804
48.5800 16.1767 0.1898
48.6000 16.1834 0.1693
48.6200 16.1901 0.1797
48.6400 16.1967 0.1893
48.6600 16.2033 0.1691
48.6800 16.2099 0.1837
48.7000 16.2166 0.1880
48.7200 16.2234 0.1685
48.7400 16.2301 0.1814
48.7600 16.2367 0.1834
48.7800 16.2434 0.1639
48.8000 16.2501 0.1813
48.8200 16.2567 0.1792
48.8400 16.2633 0.1709
48.8600 16.2700 0.1827
48.8800 16.2767 0.1727
48.9000 16.2834 0.1701
48.9200 16.2901 0.1858
48.9400 16.2968 0.1781
48.9600 16.3035 0.1703
48.9800 16.3101 0.1753
49.0000 16.3167 0.1721
49.0200 16.3233 0.1787
49.0400 16.3300 0.1723
49.0600 16.3367 0.1658
49.0800 16.3434 0.1795
49.1000 16.3501 0.1703
49.1200 16.3568 0.1728
49.1400 16.3634 0.1783
49.1600 16.3701 0.1700
49.1800 16.3767 0.1721
49.2000 16.3833 0.1764
49.2200 16.3900 0.1702
49.2400 16.3967 0.1725
49.2600 16.4034 0.1782
49.2800 16.4100 0.1570
49.3000 16.4167 0.1778
49.3200 16.4234 0.1780
49.3400 16.4301 0.1578
49.3600 16.4367 0.1671
49.3800 16.4433 0.1759
49.4000 16.4499 0.1702
49.4200 16.4566 0.1679
49.4400 16.4633 0.1579
49.4600 16.4700 0.1667
49.4800 16.4767 0.1785
49.5000 16.4834 0.1598
49.5200 16.4901 0.1593
49.5400 16.4968 0.1739
49.5600 16.5033 0.1601
49.5800 16.5100 0.1719
49.6000 16.5167 0.1738
49.6200 16.5234 0.1519
49.6400 16.5301 0.1683
49.6600 16.5368 0.1674
49.6800 16.5434 0.1521
49.7000 16.5501 0.1744
49.7200 16.5567 0.1615
49.7400 16.5633 0.1527
49.7600 16.5700 0.1749
49.7800 16.5767 0.1610
49.8000 16.5834 0.1538
49.8200 16.5901 0.1762
49.8400 16.5968 0.1549
49.8600 16.6034 0.1575
49.8800 16.6101 0.1730
49.9000 16.6168 0.1490
49.9200 16.6234 0.1591
49.9400 16.6300 0.1683
49.9600 16.6367 0.1498
49.9800 16.6434 0.1648
50.0000 16.6501 0.1638
50.0200 16.6568 0.1509
50.0400 16.6634 0.1661
50.0600 16.6701 0.1624
50.0800 16.6767 0.1472
50.1000 16.6833 0.1597
50.1200 16.6899 0.1623
50.1400 16.6966 0.1487
50.1600 16.7033 0.1600
50.1800 16.7101 0.1557
50.2000 16.7167 0.1557
50.2200 16.7234 0.1598
50.2400 16.7301 0.1503
50.2600 16.7367 0.1605
50.2800 16.7433 0.1604
50.3000 16.7500 0.1498
50.3200 16.7566 0.1556
50.3400 16.7634 0.1523
50.3600 16.7701 0.1553
50.3800 16.7768 0.1527
50.4000 16.7834 0.1523
50.4200 16.7901 0.1534
50.4400 16.7967 0.1595
50.4600 16.8033 0.1460
50.4800 16.8100 0.1488
50.5000 16.8166 0.1649
50.5200 16.8233 0.1467
50.5400 16.8301 0.1473
50.5600 16.8368 0.1555
50.5800 16.8435 0.1444
50.6000 16.8502 0.1538
50.6200 16.8568 0.1523
50.6400 16.8634 0.1402
50.6600 16.8700 0.1543
50.6800 16.8767 0.1578
50.7000 16.8834 0.1421
50.7200 16.8901 0.1518
50.7400 16.8968 0.1582
50.7600 16.9034 0.1396
50.7800 16.9101 0.1530
50.8000 16.9167 0.1538
50.8200 16.9233 0.1396
50.8400 16.9300 0.1535
50.8600 16.9367 0.1550
50.8800 16.9433 0.1404
50.9000 16.9500 0.1534
50.9200 16.9567 0.1529
50.9400 16.9634 0.1406
50.9600 16.9701 0.1565
50.9800 16.9767 0.1512
51.0000 16.9833 0.1393
51.0200 16.9900 0.1501
51.0400 16.9966 0.1444
51.0600 17.0034 0.1460
51.0800 17.0101 0.1509
51.1000 17.0168 0.1448
51.1200 17.0235 0.1474
51.1400 17.0301 0.1451
51.1600 17.0368 0.1429
51.1800 17.0434 0.1495
51.2000 17.0500 0.1524
51.2200 17.0567 0.1397
51.2400 17.0634 0.1449
51.2600 17.0701 0.1478
51.2800 17.0767 0.1423
51.3000 17.0834 0.1493
51.3200 17.0901 0.1439
51.3400 17.0967 0.1354
51.3600 17.1033 0.1479
51.3800 17.1100 0.1536
51.4000 17.1167 0.1436
51.4200 17.1234 0.1443
51.4400 17.1301 0.1439
51.4600 17.1367 0.1388
51.4800 17.1434 0.1476
51.5000 17.1501 0.1430
51.5200 17.1568 0.1388
51.5400 17.1634 0.1452
51.5600 17.1700 0.1407
51.5800 17.1766 0.1411
51.6000 17.1833 0.1524
51.6200 17.1901 0.1444
51.6400 17.1968 0.1344
51.6600 17.2034 0.1452
51.6800 17.2101 0.1421
51.7000 17.2167 0.1359
51.7200 17.2233 0.1453
51.7400 17.2300 0.1431
51.7600 17.2366 0.1398
51.7800 17.2434 0.1409
51.8000 17.2501 0.1451
51.8200 17.2567 0.1386
51.8400 17.2634 0.1445
51.8600 17.2701 0.1447
51.8800 17.2768 0.1313
51.9000 17.2834 0.1382
51.9200 17.2900 0.1466
51.9400 17.2967 0.1343
51.9600 17.3034 0.1423
51.9800 17.3101 0.1447
52.0000 17.3168 0.1312
52.0200 17.3235 0.1429
52.0400 17.3302 0.1444
52.0600 17.3368 0.1323
52.0800 17.3434 0.1459
52.1000 17.3500 0.1389
52.1200 17.3566 0.1259
52.1400 17.3633 0.1460
52.1600 17.3700 0.1350
52.1800 17.3767 0.1277
52.2000 17.3834 0.1462
52.2200 17.3901 0.1341
52.2400 17.3967 0.1267
52.2600 17.4033 0.1496
52.2800 17.4099 0.1329
52.3000 17.4166 0.1331
52.3200 17.4233 0.1492
52.3400 17.4300 0.1271
52.3600 17.4367 0.1348
52.3800 17.4434 0.1439
52.4000 17.4501 0.1235
52.4200 17.4567 0.1360
52.4400 17.4634 0.1376
52.4600 17.4700 0.1278
52.4800 17.4766 0.1371
52.5000 17.4833 0.1388
52.5200 17.4901 0.1285
52.5400 17.4968 0.1353
52.5600 17.5035 0.1342
52.5800 17.5101 0.1269
52.6000 17.5168 0.1322
52.6200 17.5234 0.1300
52.6400 17.5300 0.1290
52.6600 17.5367 0.1344
52.6800 17.5434 0.1299
52.7000 17.5501 0.1276
52.7200 17.5568 0.1327
52.7400 17.5635 0.1293
52.7600 17.5701 0.1325
52.7800 17.5768 0.1284
52.8000 17.5834 0.1219
52.8200 17.5900 0.1340
52.8400 17.5966 0.1260
52.8600 17.6034 0.1183
52.8800 17.6101 0.1315
52.9000 17.6167 0.1264
52.9200 17.6234 0.1250
52.9400 17.6301 0.1330
52.9600 17.6368 0.1233
52.9800 17.6434 0.1238
53.0000 17.6500 0.1309
53.0200 17.6566 0.1198
53.0400 17.6633 0.1273
53.0600 17.6700 0.1300
53.0800 17.6767 0.1144
53.1000 17.6834 0.1239
53.1200 17.6901 0.1330
53.1400 17.6967 0.1161
53.1600 17.7034 0.1259
53.1800 17.7100 0.1313
53.2000 17.7166 0.1159
53.2200 17.7234 0.1281
53.2400 17.7301 0.1278
53.2600 17.7368 0.1153
53.2800 17.7435 0.1271
53.3000 17.7501 0.1182
53.3200 17.7568 0.1123
53.3400 17.7634 0.1261
53.3600 17.7700 0.1283
53.3800 17.7767 0.1184
53.4000 17.7834 0.1252
53.4200 17.7901 0.1231
53.4400 17.7968 0.1185
53.4600 17.8035 0.1261
53.4800 17.8101 0.1184
53.5000 17.8168 0.1216
53.5200 17.8234 0.1201
53.5400 17.8300 0.1191
53.5600 17.8366 0.1245
53.5800 17.8433 0.1203
53.6000 17.8500 0.1200
53.6200 17.8567 0.1220
53.6400 17.8634 0.1181
53.6600 17.8701 0.1198
53.6800 17.8768 0.1197
53.7000 17.8834 0.1132
53.7200 17.8900 0.1150
53.7400 17.8966 0.1256
53.7600 17.9033 0.1100
53.7800 17.9100 0.1183
53.8000 17.9167 0.1196
53.8200 17.9234 0.1114
53.8400 17.9301 0.1183
53.8600 17.9367 0.1196
53.8800 17.9434 0.1103
53.9000 17.9500 0.1202
53.9200 17.9567 0.1164
53.9400 17.9633 0.1084
53.9600 17.9701 0.1166
53.9800 17.9767 0.1194
54.0000 17.9834 0.1042
54.0200 17.9901 0.1159
54.0400 17.9968 0.1128
54.0600 18.0034 0.1064
54.0800 18.0100 0.1216
54.1000 18.0166 0.1136
54.1200 18.0233 0.1095
54.1400 18.0300 0.1200
54.1600 18.0367 0.1046
54.1800 18.0434 0.1084
54.2000 18.0501 0.1169
54.2200 18.0568 0.1007
54.2400 18.0634 0.1056
54.2600 18.0700 0.1117
54.2800 18.0767 0.1062
54.3000 18.0834 0.1128
54.3200 18.0901 0.1148
54.3400 18.0968 0.0981
54.3600 18.1034 0.1069
54.3800 18.1101 0.1084
54.4000 18.1168 0.1032
54.4200 18.1234 0.1032
54.4400 18.1300 0.1063
54.4600 18.1366 0.1029
54.4800 18.1433 0.1031
54.5000 18.1500 0.1039
54.5200 18.1567 0.1053
54.5400 18.1634 0.1030
54.5600 18.1700 0.0997
54.5800 18.1767 0.0960
54.6000 18.1834 0.1013
54.6200 18.1900 0.0974
54.6400 18.1966 0.0996
54.6600 18.2033 0.0983
54.6800 18.2100 0.0982
54.7000 18.2168 0.0969
54.7200 18.2235 0.0981
54.7400 18.2302 0.1057
54.7600 18.2368 0.0946
54.7800 18.2435 0.0906
54.8000 18.2500 0.0966
54.8200 18.2567 0.0917
54.8400 18.2633 0.0987
54.8600 18.2701 0.0938
54.8800 18.2768 0.0926
54.9000 18.2834 0.0946
54.9200 18.2901 0.0896
54.9400 18.2968 0.0956
54.9600 18.3034 0.0948
54.9800 18.3100 0.0913
55.0000 18.3166 0.0946
55.0200 18.3233 0.0925
55.0400 18.3300 0.0925
55.0600 18.3367 0.0923
55.0800 18.3434 0.0865
55.1000 18.3501 0.0905
55.1200 18.3568 0.0926
55.1400 18.3634 0.0892
55.1600 18.3700 0.0882
55.1800 18.3766 0.0985
55.2000 18.3833 0.0896
55.2200 18.3900 0.0851
55.2400 18.3967 0.0877
55.2600 18.4034 0.0890
55.2800 18.4101 0.0899
55.3000 18.4167 0.0885
55.3200 18.4234 0.0847
55.3400 18.4300 0.0852
55.3600 18.4366 0.0921
55.3800 18.4433 0.0889
55.4000 18.4501 0.0838
55.4200 18.4568 0.0920
55.4400 18.4634 0.0771
55.4600 18.4701 0.0883
55.4800 18.4768 0.0888
55.5000 18.4834 0.0822
55.5200 18.4901 0.0834
55.5400 18.4967 0.0838
55.5600 18.5034 0.0809
55.5800 18.5101 0.0818
55.6000 18.5167 0.0865
55.6200 18.5234 0.0804
55.6400 18.5301 0.0821
55.6600 18.5368 0.0849
55.6800 18.5434 0.0741
55.7000 18.5500 0.0817
55.7200 18.5566 0.0832
55.7400 18.5633 0.0742
55.7600 18.5700 0.0815
55.7800 18.5767 0.0834
55.8000 18.5834 0.0706
55.8200 18.5901 0.0777
55.8400 18.5968 0.0866
55.8600 18.6034 0.0698
55.8800 18.6100 0.0778
55.9000 18.6166 0.0862
55.9200 18.6233 0.0691
55.9400 18.6300 0.0737
55.9600 18.6367 0.0841
55.9800 18.6434 0.0671
56.0000 18.6501 0.0773
56.0200 18.6568 0.0784
56.0400 18.6634 0.0683
56.0600 18.6700 0.0768
56.0800 18.6767 0.0790
56.1000 18.6833 0.0648
56.1200 18.6900 0.0798
56.1400 18.6967 0.0717
56.1600 18.7034 0.0647
56.1800 18.7101 0.0770
56.2000 18.7168 0.0752
56.2200 18.7234 0.0670
56.2400 18.7300 0.0721
56.2600 18.7366 0.0764
56.2800 18.7433 0.0703
56.3000 18.7500 0.0711
56.3200 18.7567 0.0721
56.3400 18.7634 0.0723
56.3600 18.7701 0.0683
56.3800 18.7768 0.0707
56.4000 18.7834 0.0675
56.4200 18.7900 0.0695
56.4400 18.7967 0.0713
56.4600 18.8033 0.0671
56.4800 18.8100 0.0672
56.5000 18.8167 0.0737
56.5200 18.8234 0.0697
56.5400 18.8301 0.0669
56.5600 18.8367 0.0704
56.5800 18.8434 0.0693
56.6000 18.8500 0.0639
56.6200 18.8566 0.0738
56.6400 18.8633 0.0682
56.6600 18.8700 0.0678
56.6800 18.8767 0.0680
56.7000 18.8834 0.0647
56.7200 18.8901 0.0673
56.7400 18.8968 0.0689
56.7600 18.9034 0.0626
56.7800 18.9100 0.0642
56.8000 18.9167 0.0714
56.8200 18.9233 0.0618
56.8400 18.9300 0.0651
56.8600 18.9368 0.0647
56.8800 18.9435 0.0634
56.9000 18.9501 0.0646
56.9200 18.9568 0.0650
56.9400 18.9635 0.0628
56.9600 18.9701 0.0587
56.9800 18.9767 0.0692
57.0000 18.9833 0.0633
57.0200 18.9900 0.0597
57.0400 18.9967 0.0631
57.0600 19.0034 0.0582
57.0800 19.0101 0.0530
57.1000 19.0168 0.0643
57.1200 19.0235 0.0610
57.1400 19.0301 0.0528
57.1600 19.0366 0.0660
57.1800 19.0433 0.0620
57.2000 19.0500 0.0580
57.2200 19.0567 0.0658
57.2400 19.0634 0.0553
57.2600 19.0701 0.0535
57.2800 19.0768 0.0601
57.3000 19.0834 0.0539
57.3200 19.0900 0.0572
57.3400 19.0966 0.0592
57.3600 19.1033 0.0527
57.3800 19.1100 0.0542
57.4000 19.1167 0.0615
57.4200 19.1234 0.0552
57.4400 19.1301 0.0576
57.4600 19.1367 0.0562
57.4800 19.1434 0.0499
57.5000 19.1500 0.0495
57.5200 19.1567 0.0567
57.5400 19.1633 0.0566
57.5600 19.1700 0.0473
57.5800 19.1767 0.0513
57.6000 19.1834 0.0544
57.6200 19.1901 0.0450
57.6400 19.1968 0.0539
57.6600 19.2035 0.0545
57.6800 19.2101 0.0430
57.7000 19.2167 0.0415
57.7200 19.2233 0.0481
57.7400 19.2300 0.0501
57.7600 19.2367 0.0431
57.7800 19.2434 0.0489
57.8000 19.2501 0.0471
57.8200 19.2568 0.0452
57.8400 19.2635 0.0438
57.8600 19.2701 0.0436
57.8800 19.2767 0.0480
57.9000 19.2833 0.0459
57.9200 19.2900 0.0370
57.9400 19.2967 0.0384
57.9600 19.3034 0.0366
57.9800 19.3100 0.0441
58.0000 19.3167 0.0443
58.0200 19.3234 0.0366
58.0400 19.3300 0.0360
58.0600 19.3366 0.0470
58.0800 19.3433 0.0396
58.1000 19.3500 0.0372
58.1200 19.3567 0.0402
58.1400 19.3634 0.0369
58.1600 19.3700 0.0392
58.1800 19.3767 0.0383
58.2000 19.3834 0.0369
58.2200 19.3901 0.0344
58.2400 19.3967 0.0371
58.2600 19.4033 0.0365
58.2800 19.4100 0.0299
58.3000 19.4167 0.0378
58.3200 19.4234 0.0400
58.3400 19.4301 0.0279
58.3600 19.4368 0.0340
58.3800 19.4435 0.0324
58.4000 19.4501 0.0275
58.4200 19.4567 0.0371
58.4400 19.4633 0.0306
58.4600 19.4700 0.0309
58.4800 19.4767 0.0296
58.5000 19.4834 0.0314
58.5200 19.4901 0.0302
58.5400 19.4968 0.0309
58.5600 19.5034 0.0330
58.5800 19.5101 0.0267
58.6000 19.5167 0.0283
58.6200 19.5233 0.0292
58.6400 19.5300 0.0260
58.6600 19.5367 0.0283
58.6800 19.5434 0.0281
58.7000 19.5501 0.0240
58.7200 19.5568 0.0280
58.7400 19.5634 0.0309
58.7600 19.5701 0.0235
58.7800 19.5766 0.0299
58.8000 19.5833 0.0276
58.8200 19.5899 0.0209
58.8400 19.5967 0.0271
58.8600 19.6033 0.0195
58.8800 19.6100 0.0274
58.9000 19.6167 0.0227
58.9200 19.6234 0.0186
58.9400 19.6300 0.0267
58.9600 19.6366 0.0256
58.9800 19.6433 0.0191
59.0000 19.6500 0.0258
59.0200 19.6567 0.0220
59.0400 19.6634 0.0127
59.0600 19.6701 0.0258
59.0800 19.6768 0.0198
59.1000 19.6835 0.0130
59.1200 19.6901 0.0286
59.1400 19.6967 0.0134
59.1600 19.7034 0.0187
59.1800 19.7100 0.0279
59.2000 19.7167 0.0080
59.2200 19.7234 0.0176
59.2400 19.7301 0.0233
59.2600 19.7368 0.0097
59.2800 19.7435 0.0111
59.3000 19.7500 0.0095
