Raw Data
Time Displacement Force
(s) (mm) (N)
0.0000 -105.5550 -0.0417
0.0200 -105.5549 -0.0235
0.0400 -105.5530 0.0355
0.0600 -105.5455 0.0326
0.0800 -105.5338 -0.0451
0.1000 -105.5214 -0.0451
0.1200 -105.5088 -0.0109
0.1400 -105.4954 -0.0380
0.1600 -105.4813 -0.0377
0.1800 -105.4671 -0.0379
0.2000 -105.4531 -0.0502
0.2200 -105.4394 -0.0382
0.2400 -105.4261 -0.0338
0.2600 -105.4128 -0.0442
0.2800 -105.3995 -0.0327
0.3000 -105.3861 -0.0339
0.3200 -105.3727 -0.0431
0.3400 -105.3594 -0.0265
0.3600 -105.3461 -0.0398
0.3800 -105.3328 -0.0413
0.4000 -105.3194 -0.0252
0.4200 -105.3061 -0.0444
0.4400 -105.2928 -0.0396
0.4600 -105.2795 -0.0301
0.4800 -105.2661 -0.0386
0.5000 -105.2528 -0.0406
0.5200 -105.2395 -0.0303
0.5400 -105.2261 -0.0379
0.5600 -105.2128 -0.0333
0.5800 -105.1994 -0.0287
0.6000 -105.1860 -0.0356
0.6200 -105.1727 -0.0382
0.6400 -105.1594 -0.0301
0.6600 -105.1460 -0.0355
0.6800 -105.1327 -0.0360
0.7000 -105.1194 -0.0293
0.7200 -105.1061 -0.0373
0.7400 -105.0928 -0.0369
0.7600 -105.0794 -0.0251
0.7800 -105.0661 -0.0375
0.8000 -105.0528 -0.0367
0.8200 -105.0395 -0.0248
0.8400 -105.0261 -0.0375
0.8600 -105.0127 -0.0326
0.8800 -104.9994 -0.0254
0.9000 -104.9861 -0.0380
0.9200 -104.9727 -0.0334
0.9400 -104.9593 -0.0274
0.9600 -104.9460 -0.0379
0.9800 -104.9327 -0.0291
1.0000 -104.9194 -0.0244
1.0200 -104.9060 -0.0390
1.0400 -104.8927 -0.0315
1.0600 -104.8794 -0.0237
1.0800 -104.8661 -0.0359
1.1000 -104.8528 -0.0258
1.1200 -104.8394 -0.0258
1.1400 -104.8261 -0.0388
1.1600 -104.8128 -0.0289
1.1800 -104.7995 -0.0232
1.2000 -104.7861 -0.0374
1.2200 -104.7728 -0.0274
1.2400 -104.7595 -0.0275
1.2600 -104.7461 -0.0369
1.2800 -104.7328 -0.0256
1.3000 -104.7194 -0.0214
1.3200 -104.7060 -0.0409
1.3400 -104.6927 -0.0256
1.3600 -104.6794 -0.0248
1.3800 -104.6660 -0.0383
1.4000 -104.6527 -0.0239
1.4200 -104.6394 -0.0294
1.4400 -104.6261 -0.0349
1.4600 -104.6128 -0.0248
1.4800 -104.5994 -0.0313
1.5000 -104.5861 -0.0297
1.5200 -104.5728 -0.0233
1.5400 -104.5595 -0.0317
1.5600 -104.5461 -0.0297
1.5800 -104.5327 -0.0241
1.6000 -104.5194 -0.0246
1.6200 -104.5061 -0.0303
1.6400 -104.4927 -0.0281
1.6600 -104.4794 -0.0247
1.6800 -104.4661 -0.0285
1.7000 -104.4528 -0.0279
1.7200 -104.4394 -0.0227
1.7400 -104.4261 -0.0276
1.7600 -104.4127 -0.0272
1.7800 -104.3994 -0.0222
1.8000 -104.3861 -0.0252
1.8200 -104.3727 -0.0219
1.8400 -104.3594 -0.0220
1.8600 -104.3460 -0.0305
1.8800 -104.3327 -0.0231
1.9000 -104.3194 -0.0186
1.9200 -104.3061 -0.0264
1.9400 -104.2928 -0.0216
1.9600 -104.2794 -0.0152
1.9800 -104.2661 -0.0268
2.0000 -104.2528 -0.0168
2.0200 -104.2394 -0.0163
2.0400 -104.2260 -0.0263
2.0600 -104.2127 -0.0142
2.0800 -104.1994 -0.0170
2.1000 -104.1860 -0.0236
2.1200 -104.1727 -0.0105
2.1400 -104.1594 -0.0197
2.1600 -104.1460 -0.0170
2.1800 -104.1327 -0.0129
2.2000 -104.1194 -0.0117
2.2200 -104.1060 -0.0166
2.2400 -104.0928 -0.0130
2.2600 -104.0794 -0.0057
2.2800 -104.0661 -0.0133
2.3000 -104.0528 -0.0068
2.3200 -104.0394 -0.0047
2.3400 -104.0260 -0.0092
2.3600 -104.0127 -0.0040
2.3800 -103.9993 -0.0051
2.4000 -103.9860 0.0016
2.4200 -103.9727 0.0029
2.4400 -103.9594 -0.0028
2.4600 -103.9460 0.0024
2.4800 -103.9327 0.0040
2.5000 -103.9194 0.0051
2.5200 -103.9062 0.0065
2.5400 -103.8928 0.0104
2.5600 -103.8795 0.0110
2.5800 -103.8661 0.0110
2.6000 -103.8528 0.0092
2.6200 -103.8395 0.0199
2.6400 -103.8261 0.0152
2.6600 -103.8127 0.0091
2.6800 -103.7994 0.0278
2.7000 -103.7861 0.0179
2.7200 -103.7728 0.0194
2.7400 -103.7594 0.0333
2.7600 -103.7460 0.0207
2.7800 -103.7327 0.0247
2.8000 -103.7194 0.0340
2.8200 -103.7060 0.0238
2.8400 -103.6927 0.0261
2.8600 -103.6793 0.0393
2.8800 -103.6660 0.0273
2.9000 -103.6527 0.0320
2.9200 -103.6394 0.0402
2.9400 -103.6261 0.0320
2.9600 -103.6128 0.0353
2.9800 -103.5995 0.0442
3.0000 -103.5862 0.0349
3.0200 -103.5728 0.0393
3.0400 -103.5594 0.0513
3.0600 -103.5461 0.0428
3.0800 -103.5328 0.0397
3.1000 -103.5194 0.0543
3.1200 -103.5060 0.0417
3.1400 -103.4927 0.0458
3.1600 -103.4794 0.0587
3.1800 -103.4660 0.0436
3.2000 -103.4527 0.0446
3.2200 -103.4394 0.0644
3.2400 -103.4261 0.0513
3.2600 -103.4128 0.0548
3.2800 -103.3994 0.0665
3.3000 -103.3861 0.0539
3.3200 -103.3727 0.0567
3.3400 -103.3594 0.0651
3.3600 -103.3461 0.0577
3.3800 -103.3328 0.0640
3.4000 -103.3194 0.0701
3.4200 -103.3061 0.0611
3.4400 -103.2928 0.0658
3.4600 -103.2794 0.0690
3.4800 -103.2660 0.0639
3.5000 -103.2527 0.0665
3.5200 -103.2394 0.0752
3.5400 -103.2260 0.0652
3.5600 -103.2127 0.0736
3.5800 -103.1994 0.0728
3.6000 -103.1861 0.0685
3.6200 -103.1728 0.0816
3.6400 -103.1594 0.0766
3.6600 -103.1461 0.0714
3.6800 -103.1328 0.0825
3.7000 -103.1195 0.0829
3.7200 -103.1061 0.0756
3.7400 -103.0928 0.0860
3.7600 -103.0794 0.0848
3.7800 -103.0661 0.0772
3.8000 -103.0528 0.0919
3.8200 -103.0394 0.0799
3.8400 -103.0260 0.0832
3.8600 -103.0127 0.0945
3.8800 -102.9994 0.0834
3.9000 -102.9861 0.0852
3.9200 -102.9727 0.0993
3.9400 -102.9594 0.0847
3.9600 -102.9460 0.0913
3.9800 -102.9327 0.1019
4.0000 -102.9194 0.0900
4.0200 -102.9060 0.0940
4.0400 -102.8927 0.1025
4.0600 -102.8795 0.0883
4.0800 -102.8662 0.0988
4.1000 -102.8528 0.1090
4.1200 -102.8395 0.0950
4.1400 -102.8262 0.1041
4.1600 -102.8128 0.1068
4.1800 -102.7994 0.1012
4.2000 -102.7860 0.1031
4.2200 -102.7727 0.1087
4.2400 -102.7593 0.1018
4.2600 -102.7460 0.1087
4.2800 -102.7326 0.1097
4.3000 -102.7193 0.1059
4.3200 -102.7060 0.1150
4.3400 -102.6927 0.1155
4.3600 -102.6794 0.1099
4.3800 -102.6661 0.1130
4.4000 -102.6528 0.1175
4.4200 -102.6395 0.1121
4.4400 -102.6262 0.1145
4.4600 -102.6128 0.1217
4.4800 -102.5995 0.1160
4.5000 -102.5861 0.1204
4.5200 -102.5728 0.1251
4.5400 -102.5594 0.1189
4.5600 -102.5460 0.1197
4.5800 -102.5327 0.1263
4.6000 -102.5193 0.1160
4.6200 -102.5060 0.1262
4.6400 -102.4927 0.1275
4.6600 -102.4793 0.1218
4.6800 -102.4660 0.1282
4.7000 -102.4528 0.1289
4.7200 -102.4394 0.1297
4.7400 -102.4261 0.1303
4.7600 -102.4127 0.1308
4.7800 -102.3994 0.1290
4.8000 -102.3861 0.1347
4.8200 -102.3728 0.1365
4.8400 -102.3594 0.1300
4.8600 -102.3461 0.1364
4.8800 -102.3328 0.1384
4.9000 -102.3195 0.1337
4.9200 -102.3061 0.1385
4.9400 -102.2928 0.1407
4.9600 -102.2794 0.1356
4.9800 -102.2661 0.1406
5.0000 -102.2527 0.1411
5.0200 -102.2394 0.1357
5.0400 -102.2260 0.1416
5.0600 -102.2127 0.1436
5.0800 -102.1994 0.1386
5.1000 -102.1860 0.1455
5.1200 -102.1727 0.1489
5.1400 -102.1594 0.1423
5.1600 -102.1462 0.1464
5.1800 -102.1328 0.1490
5.2000 -102.1194 0.1457
5.2200 -102.1061 0.1471
5.2400 -102.0927 0.1525
5.2600 -102.0794 0.1460
5.2800 -102.0660 0.1501
5.3000 -102.0527 0.1539
5.3200 -102.0394 0.1466
5.3400 -102.0260 0.1550
5.3600 -102.0127 0.1599
5.3800 -101.9994 0.1490
5.4000 -101.9861 0.1577
5.4200 -101.9728 0.1630
5.4400 -101.9594 0.1526
5.4600 -101.9461 0.1600
5.4800 -101.9327 0.1633
5.5000 -101.9194 0.1511
5.5200 -101.9061 0.1609
5.5400 -101.8928 0.1626
5.5600 -101.8794 0.1544
5.5800 -101.8661 0.1617
5.6000 -101.8528 0.1619
5.6200 -101.8394 0.1544
5.6400 -101.8261 0.1601
5.6600 -101.8127 0.1719
5.6800 -101.7994 0.1591
5.7000 -101.7860 0.1648
5.7200 -101.7727 0.1680
5.7400 -101.7593 0.1616
5.7600 -101.7460 0.1655
5.7800 -101.7327 0.1734
5.8000 -101.7194 0.1589
5.8200 -101.7061 0.1690
5.8400 -101.6927 0.1737
5.8600 -101.6794 0.1660
5.8800 -101.6661 0.1695
5.9000 -101.6528 0.1789
5.9200 -101.6394 0.1637
5.9400 -101.6261 0.1725
5.9600 -101.6128 0.1851
5.9800 -101.5994 0.1663
6.0000 -101.5860 0.1722
6.0200 -101.5727 0.1813
6.0400 -101.5594 0.1707
6.0600 -101.5461 0.1802
6.0800 -101.5327 0.1829
6.1000 -101.5194 0.1694
6.1200 -101.5060 0.1848
6.1400 -101.4927 0.1797
6.1600 -101.4794 0.1728
6.1800 -101.4660 0.1884
6.2000 -101.4527 0.1819
6.2200 -101.4394 0.1766
6.2400 -101.4261 0.1875
6.2600 -101.4128 0.1851
6.2800 -101.3995 0.1801
6.3000 -101.3861 0.1938
6.3200 -101.3728 0.1843
6.3400 -101.3594 0.1817
6.3600 -101.3460 0.1923
6.3800 -101.3326 0.1869
6.4000 -101.3193 0.1852
6.4200 -101.3060 0.1946
6.4400 -101.2927 0.1941
6.4600 -101.2793 0.1884
6.4800 -101.2660 0.1932
6.5000 -101.2528 0.1948
6.5200 -101.2395 0.1942
6.5400 -101.2261 0.1922
6.5600 -101.2128 0.1970
6.5800 -101.1995 0.1974
6.6000 -101.1861 0.1957
6.6200 -101.1728 0.1977
6.6400 -101.1594 0.1962
6.6600 -101.1461 0.2006
6.6800 -101.1327 0.2027
6.7000 -101.1194 0.1968
6.7200 -101.1060 0.2012
6.7400 -101.0927 0.2022
6.7600 -101.0794 0.1975
6.7800 -101.0660 0.2025
6.8000 -101.0527 0.2092
6.8200 -101.0394 0.1980
6.8400 -101.0261 0.2066
6.8600 -101.0127 0.2060
6.8800 -100.9994 0.2031
6.9000 -100.9861 0.2078
6.9200 -100.9728 0.2067
6.9400 -100.9594 0.2051
6.9600 -100.9461 0.2064
6.9800 -100.9328 0.2107
7.0000 -100.9194 0.2103
7.0200 -100.9061 0.2082
7.0400 -100.8928 0.2123
7.0600 -100.8794 0.2103
7.0800 -100.8660 0.2112
7.1000 -100.8527 0.2093
7.1200 -100.8394 0.2180
7.1400 -100.8260 0.2124
7.1600 -100.8127 0.2132
7.1800 -100.7993 0.2202
7.2000 -100.7860 0.2102
7.2200 -100.7727 0.2159
7.2400 -100.7594 0.2202
7.2600 -100.7461 0.2147
7.2800 -100.7327 0.2190
7.3000 -100.7195 0.2180
7.3200 -100.7062 0.2174
7.3400 -100.6929 0.2276
7.3600 -100.6795 0.2234
7.3800 -100.6661 0.2153
7.4000 -100.6528 0.2211
7.4200 -100.6394 0.2217
7.4400 -100.6260 0.2183
7.4600 -100.6127 0.2241
7.4800 -100.5993 0.2267
7.5000 -100.5860 0.2271
7.5200 -100.5727 0.2196
7.5400 -100.5593 0.2270
7.5600 -100.5460 0.2234
7.5800 -100.5327 0.2257
7.6000 -100.5194 0.2324
7.6200 -100.5061 0.2244
7.6400 -100.4927 0.2226
7.6600 -100.4794 0.2326
7.6800 -100.4661 0.2295
7.7000 -100.4528 0.2241
7.7200 -100.4394 0.2378
7.7400 -100.4261 0.2299
7.7600 -100.4128 0.2247
7.7800 -100.3994 0.2403
7.8000 -100.3861 0.2319
7.8200 -100.3727 0.2313
7.8400 -100.3594 0.2389
7.8600 -100.3461 0.2326
7.8800 -100.3327 0.2368
7.9000 -100.3193 0.2371
7.9200 -100.3060 0.2331
7.9400 -100.2927 0.2362
7.9600 -100.2794 0.2370
7.9800 -100.2661 0.2358
8.0000 -100.2527 0.2399
8.0200 -100.2394 0.2393
8.0400 -100.2261 0.2393
8.0600 -100.2128 0.2408
8.0800 -100.1995 0.2395
8.1000 -100.1861 0.2397
8.1200 -100.1728 0.2450
8.1400 -100.1594 0.2412
8.1600 -100.1460 0.2464
8.1800 -100.1327 0.2412
8.2000 -100.1193 0.2409
8.2200 -100.1060 0.2497
8.2400 -100.0927 0.2441
8.2600 -100.0794 0.2425
8.2800 -100.0660 0.2521
8.3000 -100.0527 0.2369
8.3200 -100.0394 0.2466
8.3400 -100.0261 0.2514
8.3600 -100.0127 0.2404
8.3800 -99.9994 0.2516
8.4000 -99.9862 0.2516
8.4200 -99.9728 0.2459
8.4400 -99.9595 0.2579
8.4600 -99.9461 0.2506
8.4800 -99.9328 0.2490
8.5000 -99.9195 0.2547
8.5200 -99.9061 0.2493
8.5400 -99.8927 0.2490
8.5600 -99.8794 0.2603
8.5800 -99.8660 0.2568
8.6000 -99.8527 0.2483
8.6200 -99.8394 0.2629
8.6400 -99.8260 0.2530
8.6600 -99.8127 0.2522
8.6800 -99.7994 0.2612
8.7000 -99.7861 0.2538
8.7200 -99.7728 0.2523
8.7400 -99.7595 0.2630
8.7600 -99.7461 0.2551
8.7800 -99.7328 0.2563
8.8000 -99.7194 0.2595
8.8200 -99.7060 0.2583
8.8400 -99.6927 0.2568
8.8600 -99.6794 0.2667
8.8800 -99.6660 0.2588
8.9000 -99.6527 0.2579
8.9200 -99.6394 0.2675
8.9400 -99.6261 0.2617
8.9600 -99.6128 0.2647
8.9800 -99.5994 0.2716
9.0000 -99.5861 0.2590
9.0200 -99.5727 0.2647
9.0400 -99.5594 0.2683
9.0600 -99.5460 0.2624
9.0800 -99.5327 0.2619
9.1000 -99.5194 0.2667
9.1200 -99.5061 0.2627
9.1400 -99.4928 0.2704
9.1600 -99.4794 0.2648
9.1800 -99.4661 0.2664
9.2000 -99.4528 0.2709
9.2200 -99.4394 0.2741
9.2400 -99.4261 0.2702
9.2600 -99.4127 0.2658
9.2800 -99.3994 0.2716
9.3000 -99.3861 0.2718
9.3200 -99.3727 0.2668
9.3400 -99.3594 0.2787
9.3600 -99.3460 0.2703
9.3800 -99.3327 0.2669
9.4000 -99.3194 0.2805
9.4200 -99.3061 0.2727
9.4400 -99.2927 0.2714
9.4600 -99.2794 0.2828
9.4800 -99.2661 0.2754
9.5000 -99.2528 0.2687
9.5200 -99.2395 0.2829
9.5400 -99.2261 0.2748
9.5600 -99.2128 0.2682
9.5800 -99.1994 0.2859
9.6000 -99.1861 0.2740
9.6200 -99.1727 0.2692
9.6400 -99.1593 0.2825
9.6600 -99.1460 0.2789
9.6800 -99.1327 0.2765
9.7000 -99.1193 0.2799
9.7200 -99.1060 0.2791
9.7400 -99.0927 0.2760
9.7600 -99.0794 0.2850
9.7800 -99.0661 0.2848
9.8000 -99.0528 0.2812
9.8200 -99.0394 0.2846
9.8400 -99.0261 0.2859
9.8600 -99.0128 0.2803
9.8800 -98.9994 0.2836
9.9000 -98.9861 0.2852
9.9200 -98.9728 0.2839
9.9400 -98.9594 0.2843
9.9600 -98.9461 0.2885
9.9800 -98.9327 0.2832
10.0000 -98.9194 0.2881
10.0200 -98.9061 0.2894
10.0400 -98.8927 0.2878
10.0600 -98.8793 0.2893
10.0800 -98.8660 0.2893
10.1000 -98.8527 0.2832
10.1200 -98.8394 0.2945
10.1400 -98.8261 0.2892
10.1600 -98.8127 0.2826
10.1800 -98.7994 0.2985
10.2000 -98.7861 0.2888
10.2200 -98.7728 0.2884
10.2400 -98.7595 0.3002
10.2600 -98.7461 0.2872
10.2800 -98.7328 0.2919
10.3000 -98.7194 0.3036
10.3200 -98.7061 0.2888
10.3400 -98.6927 0.2904
10.3600 -98.6793 0.3009
10.3800 -98.6660 0.2911
10.4000 -98.6527 0.2940
10.4200 -98.6394 0.3041
10.4400 -98.6260 0.2882
10.4600 -98.6127 0.2935
10.4800 -98.5994 0.3049
10.5000 -98.5861 0.2914
10.5200 -98.5727 0.3018
10.5400 -98.5594 0.3056
10.5600 -98.5461 0.2950
10.5800 -98.5328 0.3029
10.6000 -98.5194 0.3017
10.6200 -98.5061 0.2977
10.6400 -98.4928 0.3042
10.6600 -98.4794 0.3026
10.6800 -98.4661 0.3015
10.7000 -98.4527 0.2995
10.7200 -98.4394 0.3009
10.7400 -98.4261 0.3078
10.7600 -98.4127 0.3018
10.7800 -98.3994 0.3011
10.8000 -98.3860 0.3028
10.8200 -98.3727 0.3053
10.8400 -98.3594 0.3078
10.8600 -98.3461 0.3044
10.8800 -98.3328 0.2982
10.9000 -98.3194 0.3074
10.9200 -98.3061 0.3042
10.9400 -98.2928 0.3002
10.9600 -98.2795 0.3125
10.9800 -98.2661 0.3039
11.0000 -98.2528 0.3034
11.0200 -98.2394 0.3063
11.0400 -98.2261 0.3073
11.0600 -98.2127 0.3077
11.0800 -98.1994 0.3066
11.1000 -98.1861 0.3045
11.1200 -98.1728 0.3124
11.1400 -98.1594 0.3104
11.1600 -98.1460 0.3097
11.1800 -98.1327 0.3086
11.2000 -98.1194 0.3116
11.2200 -98.1060 0.3123
11.2400 -98.0927 0.3089
11.2600 -98.0794 0.3102
11.2800 -98.0661 0.3120
11.3000 -98.0528 0.3120
11.3200 -98.0395 0.3125
11.3400 -98.0261 0.3087
11.3600 -98.0128 0.3145
11.3800 -97.9995 0.3144
11.4000 -97.9861 0.3091
11.4200 -97.9727 0.3171
11.4400 -97.9593 0.3142
11.4600 -97.9460 0.3103
11.4800 -97.9327 0.3172
11.5000 -97.9193 0.3146
11.5200 -97.9060 0.3184
11.5400 -97.8927 0.3130
11.5600 -97.8794 0.3156
11.5800 -97.8661 0.3168
11.6000 -97.8527 0.3181
11.6200 -97.8394 0.3181
11.6400 -97.8261 0.3169
11.6600 -97.8128 0.3215
11.6800 -97.7995 0.3149
11.7000 -97.7861 0.3194
11.7200 -97.7728 0.3186
11.7400 -97.7595 0.3206
11.7600 -97.7461 0.3209
11.7800 -97.7327 0.3204
11.8000 -97.7193 0.3220
11.8200 -97.7060 0.3216
11.8400 -97.6927 0.3223
11.8600 -97.6794 0.3247
11.8800 -97.6660 0.3203
11.9000 -97.6527 0.3262
11.9200 -97.6394 0.3236
11.9400 -97.6261 0.3280
11.9600 -97.6128 0.3239
11.9800 -97.5994 0.3257
12.0000 -97.5861 0.3246
12.0200 -97.5728 0.3260
12.0400 -97.5595 0.3274
12.0600 -97.5461 0.3243
12.0800 -97.5328 0.3307
12.1000 -97.5194 0.3255
12.1200 -97.5061 0.3228
12.1400 -97.4928 0.3311
12.1600 -97.4794 0.3254
12.1800 -97.4661 0.3249
12.2000 -97.4527 0.3285
12.2200 -97.4394 0.3268
12.2400 -97.4260 0.3256
12.2600 -97.4127 0.3341
12.2800 -97.3994 0.3274
12.3000 -97.3861 0.3319
12.3200 -97.3727 0.3384
12.3400 -97.3594 0.3228
12.3600 -97.3461 0.3307
12.3800 -97.3328 0.3369
12.4000 -97.3195 0.3267
12.4200 -97.3061 0.3312
12.4400 -97.2928 0.3332
12.4600 -97.2794 0.3295
12.4800 -97.2661 0.3356
12.5000 -97.2527 0.3353
12.5200 -97.2393 0.3283
12.5400 -97.2260 0.3360
12.5600 -97.2127 0.3369
12.5800 -97.1994 0.3326
12.6000 -97.1860 0.3376
12.6200 -97.1727 0.3352
12.6400 -97.1594 0.3331
12.6600 -97.1461 0.3378
12.6800 -97.1328 0.3366
12.7000 -97.1194 0.3400
12.7200 -97.1061 0.3355
12.7400 -97.0928 0.3361
12.7600 -97.0795 0.3424
12.7800 -97.0661 0.3344
12.8000 -97.0528 0.3396
12.8200 -97.0395 0.3425
12.8400 -97.0261 0.3372
12.8600 -97.0127 0.3413
12.8800 -96.9994 0.3444
12.9000 -96.9860 0.3347
12.9200 -96.9727 0.3475
12.9400 -96.9594 0.3457
12.9600 -96.9460 0.3316
12.9800 -96.9327 0.3522
13.0000 -96.9194 0.3435
13.0200 -96.9061 0.3355
13.0400 -96.8927 0.3559
13.0600 -96.8794 0.3387
13.0800 -96.8661 0.3359
13.1000 -96.8528 0.3573
13.1200 -96.8395 0.3417
13.1400 -96.8261 0.3456
13.1600 -96.8128 0.3539
13.1800 -96.7994 0.3386
13.2000 -96.7861 0.3443
13.2200 -96.7727 0.3551
13.2400 -96.7594 0.3423
13.2600 -96.7460 0.3488
13.2800 -96.7327 0.3562
13.3000 -96.7194 0.3401
13.3200 -96.7060 0.3491
13.3400 -96.6927 0.3532
13.3600 -96.6794 0.3439
13.3800 -96.6661 0.3488
13.4000 -96.6527 0.3528
13.4200 -96.6394 0.3461
13.4400 -96.6261 0.3472
13.4600 -96.6128 0.3592
13.4800 -96.5995 0.3487
13.5000 -96.5861 0.3473
13.5200 -96.5728 0.3586
13.5400 -96.5595 0.3518
13.5600 -96.5461 0.3508
13.5800 -96.5327 0.3591
13.6000 -96.5193 0.3498
13.6200 -96.5060 0.3492
13.6400 -96.4926 0.3587
13.6600 -96.4793 0.3510
13.6800 -96.4660 0.3503
13.7000 -96.4527 0.3562
13.7200 -96.4394 0.3452
13.7400 -96.4261 0.3548
13.7600 -96.4128 0.3608
13.7800 -96.3995 0.3480
13.8000 -96.3862 0.3530
13.8200 -96.3728 0.3585
13.8400 -96.3595 0.3470
13.8600 -96.3461 0.3590
13.8800 -96.3327 0.3605
13.9000 -96.3194 0.3488
13.9200 -96.3061 0.3553
13.9400 -96.2927 0.3614
13.9600 -96.2793 0.3469
13.9800 -96.2660 0.3607
14.0000 -96.2527 0.3601
14.0200 -96.2394 0.3468
14.0400 -96.2261 0.3612
14.0600 -96.2127 0.3595
14.0800 -96.1994 0.3543
14.1000 -96.1861 0.3681
14.1200 -96.1728 0.3585
14.1400 -96.1594 0.3516
14.1600 -96.1461 0.3673
14.1800 -96.1328 0.3586
14.2000 -96.1195 0.3548
14.2200 -96.1061 0.3672
14.2400 -96.0928 0.3558
14.2600 -96.0794 0.3582
14.2800 -96.0661 0.3669
14.3000 -96.0527 0.3609
14.3200 -96.0394 0.3613
14.3400 -96.0260 0.3617
14.3600 -96.0127 0.3642
14.3800 -95.9994 0.3603
14.4000 -95.9860 0.3671
14.4200 -95.9727 0.3664
14.4400 -95.9594 0.3582
14.4600 -95.9461 0.3667
14.4800 -95.9327 0.3686
14.5000 -95.9194 0.3614
14.5200 -95.9061 0.3652
14.5400 -95.8928 0.3717
14.5600 -95.8795 0.3617
14.5800 -95.8661 0.3712
14.6000 -95.8528 0.3687
14.6200 -95.8394 0.3636
14.6400 -95.8261 0.3718
14.6600 -95.8127 0.3701
14.6800 -95.7994 0.3645
14.7000 -95.7860 0.3659
14.7200 -95.7727 0.3682
14.7400 -95.7594 0.3720
14.7600 -95.7460 0.3740
14.7800 -95.7327 0.3681
14.8000 -95.7194 0.3712
14.8200 -95.7061 0.3711
14.8400 -95.6928 0.3706
14.8600 -95.6794 0.3727
14.8800 -95.6661 0.3695
14.9000 -95.6528 0.3699
14.9200 -95.6395 0.3771
14.9400 -95.6261 0.3699
14.9600 -95.6128 0.3716
14.9800 -95.5994 0.3757
15.0000 -95.5861 0.3708
15.0200 -95.5728 0.3723
15.0400 -95.5594 0.3710
15.0600 -95.5460 0.3684
15.0800 -95.5327 0.3760
15.1000 -95.5194 0.3733
15.1200 -95.5060 0.3673
15.1400 -95.4927 0.3789
15.1600 -95.4793 0.3728
15.1800 -95.4660 0.3726
15.2000 -95.4527 0.3806
15.2200 -95.4394 0.3746
15.2400 -95.4261 0.3724
15.2600 -95.4128 0.3798
15.2800 -95.3995 0.3756
15.3000 -95.3861 0.3806
15.3200 -95.3728 0.3725
15.3400 -95.3594 0.3763
15.3600 -95.3461 0.3798
15.3800 -95.3327 0.3788
15.4000 -95.3193 0.3785
15.4200 -95.3060 0.3799
15.4400 -95.2927 0.3769
15.4600 -95.2794 0.3781
15.4800 -95.2660 0.3800
15.5000 -95.2527 0.3741
15.5200 -95.2393 0.3821
15.5400 -95.2261 0.3820
15.5600 -95.2128 0.3742
15.5800 -95.1994 0.3824
15.6000 -95.1861 0.3777
15.6200 -95.1728 0.3772
15.6400 -95.1595 0.3889
15.6600 -95.1461 0.3770
15.6800 -95.1328 0.3761
15.7000 -95.1194 0.3852
15.7200 -95.1061 0.3803
15.7400 -95.0928 0.3806
15.7600 -95.0794 0.3822
15.7800 -95.0660 0.3832
15.8000 -95.0527 0.3795
15.8200 -95.0394 0.3783
15.8400 -95.0260 0.3874
15.8600 -95.0127 0.3813
15.8800 -94.9994 0.3808
15.9000 -94.9861 0.3893
15.9200 -94.9728 0.3836
15.9400 -94.9594 0.3814
15.9600 -94.9461 0.3929
15.9800 -94.9328 0.3907
16.0000 -94.9195 0.3833
16.0200 -94.9061 0.3896
16.0400 -94.8927 0.3906
16.0600 -94.8794 0.3814
16.0800 -94.8661 0.3886
16.1000 -94.8527 0.3885
16.1200 -94.8394 0.3845
16.1400 -94.8260 0.3919
16.1600 -94.8127 0.3867
16.1800 -94.7994 0.3875
16.2000 -94.7861 0.3961
16.2200 -94.7727 0.3822
16.2400 -94.7594 0.3894
16.2600 -94.7460 0.3978
16.2800 -94.7327 0.3857
16.3000 -94.7194 0.3937
16.3200 -94.7060 0.3946
16.3400 -94.6927 0.3835
16.3600 -94.6794 0.3948
16.3800 -94.6661 0.4000
16.4000 -94.6528 0.3826
16.4200 -94.6394 0.3943
16.4400 -94.6261 0.3989
16.4600 -94.6128 0.3889
16.4800 -94.5994 0.3995
16.5000 -94.5861 0.3936
16.5200 -94.5727 0.3841
16.5400 -94.5594 0.4011
16.5600 -94.5461 0.3936
16.5800 -94.5327 0.3888
16.6000 -94.5194 0.4036
16.6200 -94.5061 0.3955
16.6400 -94.4927 0.3885
16.6600 -94.4794 0.4075
16.6800 -94.4660 0.3993
16.7000 -94.4527 0.3913
16.7200 -94.4394 0.4014
16.7400 -94.4261 0.4018
16.7600 -94.4128 0.3896
16.7800 -94.3995 0.3991
16.8000 -94.3861 0.4007
16.8200 -94.3727 0.3923
16.8400 -94.3594 0.4018
16.8600 -94.3460 0.3993
16.8800 -94.3327 0.3894
16.9000 -94.3194 0.4008
16.9200 -94.3060 0.3984
16.9400 -94.2927 0.3951
16.9600 -94.2794 0.4017
16.9800 -94.2661 0.4029
17.0000 -94.2528 0.3953
17.0200 -94.2394 0.4044
17.0400 -94.2261 0.4021
17.0600 -94.2127 0.3937
17.0800 -94.1994 0.4039
17.1000 -94.1861 0.4031
17.1200 -94.1727 0.3989
17.1400 -94.1594 0.4033
17.1600 -94.1461 0.4072
17.1800 -94.1327 0.3995
17.2000 -94.1194 0.4015
17.2200 -94.1060 0.4031
17.2400 -94.0927 0.4018
17.2600 -94.0794 0.4052
17.2800 -94.0660 0.4076
17.3000 -94.0527 0.3981
17.3200 -94.0393 0.4024
17.3400 -94.0261 0.4096
17.3600 -94.0127 0.4028
17.3800 -93.9994 0.4044
17.4000 -93.9861 0.4083
17.4200 -93.9728 0.4046
17.4400 -93.9595 0.4081
17.4600 -93.9462 0.4124
17.4800 -93.9328 0.4021
17.5000 -93.9195 0.4089
17.5200 -93.9061 0.4107
17.5400 -93.8928 0.4039
17.5600 -93.8794 0.4131
17.5800 -93.8660 0.4069
17.6000 -93.8527 0.4014
17.6200 -93.8394 0.4151
17.6400 -93.8261 0.4085
17.6600 -93.8127 0.4033
17.6800 -93.7994 0.4195
17.7000 -93.7861 0.4094
17.7200 -93.7728 0.4012
17.7400 -93.7594 0.4180
17.7600 -93.7461 0.4132
17.7800 -93.7327 0.4062
17.8000 -93.7194 0.4164
17.8200 -93.7061 0.4108
17.8400 -93.6928 0.4127
17.8600 -93.6794 0.4157
17.8800 -93.6661 0.4118
17.9000 -93.6528 0.4167
17.9200 -93.6394 0.4124
17.9400 -93.6260 0.4092
17.9600 -93.6127 0.4169
17.9800 -93.5994 0.4164
18.0000 -93.5860 0.4128
18.0200 -93.5727 0.4127
18.0400 -93.5594 0.4173
18.0600 -93.5461 0.4149
18.0800 -93.5328 0.4173
18.1000 -93.5194 0.4144
18.1200 -93.5061 0.4153
18.1400 -93.4928 0.4185
18.1600 -93.4795 0.4110
18.1800 -93.4661 0.4213
18.2000 -93.4528 0.4113
18.2200 -93.4394 0.4138
18.2400 -93.4261 0.4240
18.2600 -93.4128 0.4109
18.2800 -93.3994 0.4162
18.3000 -93.3861 0.4214
18.3200 -93.3727 0.4136
18.3400 -93.3594 0.4215
18.3600 -93.3461 0.4241
18.3800 -93.3327 0.4148
18.4000 -93.3194 0.4216
18.4200 -93.3061 0.4252
18.4400 -93.2927 0.4154
18.4600 -93.2794 0.4270
18.4800 -93.2660 0.4199
18.5000 -93.2527 0.4149
18.5200 -93.2394 0.4296
18.5400 -93.2261 0.4212
18.5600 -93.2128 0.4178
18.5800 -93.1995 0.4317
18.6000 -93.1862 0.4246
18.6200 -93.1728 0.4209
18.6400 -93.1594 0.4283
18.6600 -93.1460 0.4243
18.6800 -93.1327 0.4179
18.7000 -93.1193 0.4306
18.7200 -93.1060 0.4243
18.7400 -93.0927 0.4202
18.7600 -93.0793 0.4306
18.7800 -93.0660 0.4221
18.8000 -93.0527 0.4256
18.8200 -93.0394 0.4272
18.8400 -93.0261 0.4254
18.8600 -93.0128 0.4285
18.8800 -92.9995 0.4270
18.9000 -92.9862 0.4213
18.9200 -92.9728 0.4311
18.9400 -92.9594 0.4284
18.9600 -92.9461 0.4230
18.9800 -92.9328 0.4337
19.0000 -92.9194 0.4321
19.0200 -92.9060 0.4240
19.0400 -92.8927 0.4335
19.0600 -92.8793 0.4273
19.0800 -92.8660 0.4312
19.1000 -92.8527 0.4349
19.1200 -92.8393 0.4294
19.1400 -92.8260 0.4316
19.1600 -92.8128 0.4305
19.1800 -92.7994 0.4313
19.2000 -92.7861 0.4313
19.2200 -92.7728 0.4332
19.2400 -92.7594 0.4295
19.2600 -92.7461 0.4327
19.2800 -92.7328 0.4350
19.3000 -92.7194 0.4276
19.3200 -92.7061 0.4364
19.3400 -92.6928 0.4341
19.3600 -92.6794 0.4311
19.3800 -92.6661 0.4374
19.4000 -92.6527 0.4360
19.4200 -92.6394 0.4305
19.4400 -92.6261 0.4407
19.4600 -92.6127 0.4361
19.4800 -92.5993 0.4335
19.5000 -92.5860 0.4401
19.5200 -92.5727 0.4360
19.5400 -92.5594 0.4337
19.5600 -92.5461 0.4443
19.5800 -92.5327 0.4352
19.6000 -92.5194 0.4363
19.6200 -92.5061 0.4471
19.6400 -92.4928 0.4337
19.6600 -92.4795 0.4361
19.6800 -92.4661 0.4397
19.7000 -92.4528 0.4385
19.7200 -92.4394 0.4395
19.7400 -92.4260 0.4445
19.7600 -92.4127 0.4343
19.7800 -92.3994 0.4389
19.8000 -92.3861 0.4434
19.8200 -92.3727 0.4420
19.8400 -92.3594 0.4399
19.8600 -92.3460 0.4455
19.8800 -92.3327 0.4363
19.9000 -92.3194 0.4440
19.9200 -92.3061 0.4479
19.9400 -92.2927 0.4388
19.9600 -92.2794 0.4436
19.9800 -92.2661 0.4448
20.0000 -92.2528 0.4439
20.0200 -92.2394 0.4445
20.0400 -92.2261 0.4406
20.0600 -92.2128 0.4445
20.0800 -92.1994 0.4457
20.1000 -92.1861 0.4405
20.1200 -92.1727 0.4443
20.1400 -92.1594 0.4464
20.1600 -92.1461 0.4439
20.1800 -92.1327 0.4450
20.2000 -92.1193 0.4445
20.2200 -92.1060 0.4446
20.2400 -92.0927 0.4492
20.2600 -92.0794 0.4445
20.2800 -92.0661 0.4465
20.3000 -92.0528 0.4476
20.3200 -92.0394 0.4401
20.3400 -92.0261 0.4537
20.3600 -92.0128 0.4500
20.3800 -91.9994 0.4401
20.4000 -91.9861 0.4545
20.4200 -91.9728 0.4505
20.4400 -91.9595 0.4454
20.4600 -91.9461 0.4527
20.4800 -91.9327 0.4466
20.5000 -91.9194 0.4489
20.5200 -91.9061 0.4565
20.5400 -91.8927 0.4454
20.5600 -91.8794 0.4508
20.5800 -91.8660 0.4535
20.6000 -91.8527 0.4437
20.6200 -91.8394 0.4534
20.6400 -91.8260 0.4510
20.6600 -91.8127 0.4456
20.6800 -91.7994 0.4580
20.7000 -91.7861 0.4487
20.7200 -91.7728 0.4516
20.7400 -91.7595 0.4546
20.7600 -91.7461 0.4460
20.7800 -91.7328 0.4520
20.8000 -91.7194 0.4567
20.8200 -91.7060 0.4486
20.8400 -91.6926 0.4518
20.8600 -91.6793 0.4532
20.8800 -91.6660 0.4489
20.9000 -91.6526 0.4609
20.9200 -91.6393 0.4492
20.9400 -91.6260 0.4510
20.9600 -91.6127 0.4629
20.9800 -91.5995 0.4481
21.0000 -91.5862 0.4575
21.0200 -91.5728 0.4571
21.0400 -91.5595 0.4470
21.0600 -91.5462 0.4561
21.0800 -91.5328 0.4598
21.1000 -91.5194 0.4454
21.1200 -91.5061 0.4540
21.1400 -91.4927 0.4629
21.1600 -91.4794 0.4502
21.1800 -91.4660 0.4587
21.2000 -91.4526 0.4575
21.2200 -91.4393 0.4533
21.2400 -91.4260 0.4588
21.2600 -91.4127 0.4541
21.2800 -91.3994 0.4542
21.3000 -91.3860 0.4568
21.3200 -91.3727 0.4576
21.3400 -91.3594 0.4584
21.3600 -91.3461 0.4575
21.3800 -91.3328 0.4600
21.4000 -91.3195 0.4561
21.4200 -91.3062 0.4605
21.4400 -91.2928 0.4608
21.4600 -91.2795 0.4572
21.4800 -91.2661 0.4608
21.5000 -91.2528 0.4624
21.5200 -91.2394 0.4604
21.5400 -91.2260 0.4566
21.5600 -91.2127 0.4633
21.5800 -91.1994 0.4557
21.6000 -91.1861 0.4608
21.6200 -91.1727 0.4683
21.6400 -91.1594 0.4571
21.6600 -91.1460 0.4587
21.6800 -91.1327 0.4667
21.7000 -91.1194 0.4664
21.7200 -91.1061 0.4614
21.7400 -91.0927 0.4639
21.7600 -91.0794 0.4626
21.7800 -91.0662 0.4654
21.8000 -91.0528 0.4669
21.8200 -91.0395 0.4573
21.8400 -91.0261 0.4664
21.8600 -91.0128 0.4661
21.8800 -90.9994 0.4578
21.9000 -90.9861 0.4701
21.9200 -90.9727 0.4644
21.9400 -90.9593 0.4540
21.9600 -90.9460 0.4732
21.9800 -90.9327 0.4652
22.0000 -90.9193 0.4577
22.0200 -90.9060 0.4752
22.0400 -90.8927 0.4670
22.0600 -90.8794 0.4632
22.0800 -90.8661 0.4710
22.1000 -90.8527 0.4633
22.1200 -90.8394 0.4681
22.1400 -90.8261 0.4675
22.1600 -90.8128 0.4672
22.1800 -90.7994 0.4697
22.2000 -90.7861 0.4681
22.2200 -90.7728 0.4659
22.2400 -90.7594 0.4750
22.2600 -90.7461 0.4693
22.2800 -90.7327 0.4665
22.3000 -90.7194 0.4731
22.3200 -90.7061 0.4666
22.3400 -90.6927 0.4718
22.3600 -90.6793 0.4751
22.3800 -90.6660 0.4646
22.4000 -90.6527 0.4729
22.4200 -90.6394 0.4744
22.4400 -90.6261 0.4680
22.4600 -90.6127 0.4763
22.4800 -90.5994 0.4740
22.5000 -90.5861 0.4692
22.5200 -90.5728 0.4798
22.5400 -90.5594 0.4740
22.5600 -90.5461 0.4636
22.5800 -90.5328 0.4797
22.6000 -90.5194 0.4751
22.6200 -90.5060 0.4645
22.6400 -90.4927 0.4811
22.6600 -90.4793 0.4739
22.6800 -90.4660 0.4691
22.7000 -90.4527 0.4827
22.7200 -90.4393 0.4730
22.7400 -90.4260 0.4685
22.7600 -90.4127 0.4829
22.7800 -90.3994 0.4750
22.8000 -90.3861 0.4667
22.8200 -90.3727 0.4812
22.8400 -90.3594 0.4730
22.8600 -90.3461 0.4766
22.8800 -90.3328 0.4819
22.9000 -90.3195 0.4754
22.9200 -90.3061 0.4773
22.9400 -90.2928 0.4786
22.9600 -90.2794 0.4757
22.9800 -90.2661 0.4802
23.0000 -90.2527 0.4798
23.0200 -90.2394 0.4817
23.0400 -90.2260 0.4770
23.0600 -90.2127 0.4814
23.0800 -90.1994 0.4786
23.1000 -90.1860 0.4802
23.1200 -90.1727 0.4782
23.1400 -90.1594 0.4828
23.1600 -90.1461 0.4806
23.1800 -90.1328 0.4790
23.2000 -90.1195 0.4816
23.2200 -90.1061 0.4845
23.2400 -90.0928 0.4831
23.2600 -90.0794 0.4794
23.2800 -90.0661 0.4829
23.3000 -90.0527 0.4819
23.3200 -90.0394 0.4810
23.3400 -90.0261 0.4881
23.3600 -90.0127 0.4793
23.3800 -89.9994 0.4825
23.4000 -89.9861 0.4874
23.4200 -89.9728 0.4807
23.4400 -89.9594 0.4827
23.4600 -89.9461 0.4859
23.4800 -89.9327 0.4833
23.5000 -89.9194 0.4799
23.5200 -89.9060 0.4906
23.5400 -89.8927 0.4875
23.5600 -89.8794 0.4791
23.5800 -89.8661 0.4933
23.6000 -89.8528 0.4847
23.6200 -89.8394 0.4856
23.6400 -89.8261 0.4925
23.6600 -89.8128 0.4832
23.6800 -89.7995 0.4876
23.7000 -89.7861 0.4891
23.7200 -89.7727 0.4826
23.7400 -89.7594 0.4851
23.7600 -89.7460 0.4949
23.7800 -89.7327 0.4808
23.8000 -89.7194 0.4875
23.8200 -89.7060 0.4946
23.8400 -89.6927 0.4834
23.8600 -89.6794 0.4948
23.8800 -89.6661 0.4899
23.9000 -89.6527 0.4830
23.9200 -89.6394 0.4936
23.9400 -89.6261 0.4937
23.9600 -89.6128 0.4830
23.9800 -89.5994 0.4935
24.0000 -89.5861 0.4956
24.0200 -89.5728 0.4826
24.0400 -89.5594 0.4960
24.0600 -89.5461 0.4958
24.0800 -89.5327 0.4909
24.1000 -89.5193 0.4945
24.1200 -89.5060 0.4920
24.1400 -89.4927 0.4916
24.1600 -89.4794 0.4957
24.1800 -89.4660 0.4949
24.2000 -89.4528 0.4917
24.2200 -89.4395 0.4936
24.2400 -89.4261 0.4965
24.2600 -89.4128 0.4902
24.2800 -89.3994 0.4935
24.3000 -89.3861 0.4981
24.3200 -89.3728 0.5005
24.3400 -89.3594 0.4933
24.3600 -89.3461 0.4968
24.3800 -89.3327 0.5015
24.4000 -89.3194 0.4944
24.4200 -89.3061 0.5015
24.4400 -89.2927 0.4954
24.4600 -89.2794 0.4987
24.4800 -89.2661 0.4994
24.5000 -89.2527 0.4966
24.5200 -89.2394 0.4975
24.5400 -89.2260 0.5003
24.5600 -89.2127 0.4962
24.5800 -89.1994 0.5006
24.6000 -89.1861 0.5044
24.6200 -89.1728 0.4976
24.6400 -89.1594 0.5006
24.6600 -89.1461 0.5035
24.6800 -89.1328 0.5006
24.7000 -89.1195 0.5022
24.7200 -89.1061 0.4986
24.7400 -89.0928 0.5003
24.7600 -89.0794 0.5042
24.7800 -89.0661 0.5001
24.8000 -89.0527 0.5041
24.8200 -89.0393 0.5038
24.8400 -89.0260 0.5003
24.8600 -89.0127 0.5048
24.8800 -88.9994 0.4989
24.9000 -88.9860 0.5016
24.9200 -88.9727 0.5086
24.9400 -88.9594 0.5021
24.9600 -88.9461 0.5031
24.9800 -88.9327 0.5094
25.0000 -88.9194 0.5025
25.0200 -88.9061 0.5060
25.0400 -88.8928 0.5105
25.0600 -88.8794 0.5016
25.0800 -88.8661 0.5103
25.1000 -88.8528 0.5069
25.1200 -88.8394 0.5025
25.1400 -88.8261 0.5097
25.1600 -88.8127 0.5084
25.1800 -88.7993 0.5055
25.2000 -88.7860 0.5114
25.2200 -88.7727 0.5085
25.2400 -88.7594 0.5102
25.2600 -88.7460 0.5096
25.2800 -88.7327 0.5067
25.3000 -88.7194 0.5095
25.3200 -88.7061 0.5159
25.3400 -88.6928 0.5084
25.3600 -88.6794 0.5118
25.3800 -88.6661 0.5165
25.4000 -88.6528 0.5111
25.4200 -88.6395 0.5090
25.4400 -88.6261 0.5203
25.4600 -88.6128 0.5076
25.4800 -88.5994 0.5116
25.5000 -88.5861 0.5189
25.5200 -88.5728 0.5077
25.5400 -88.5594 0.5105
25.5600 -88.5461 0.5214
25.5800 -88.5328 0.5083
25.6000 -88.5194 0.5150
25.6200 -88.5060 0.5234
25.6400 -88.4927 0.5041
25.6600 -88.4794 0.5192
25.6800 -88.4660 0.5208
25.7000 -88.4527 0.5071
25.7200 -88.4394 0.5231
25.7400 -88.4261 0.5177
25.7600 -88.4128 0.5084
25.7800 -88.3995 0.5247
25.8000 -88.3861 0.5177
25.8200 -88.3728 0.5088
25.8400 -88.3595 0.5245
25.8600 -88.3462 0.5230
25.8800 -88.3327 0.5086
25.9000 -88.3193 0.5236
25.9200 -88.3060 0.5239
25.9400 -88.2927 0.5100
25.9600 -88.2794 0.5257
25.9800 -88.2660 0.5168
26.0000 -88.2527 0.5116
26.0200 -88.2394 0.5263
26.0400 -88.2261 0.5202
26.0600 -88.2127 0.5161
26.0800 -88.1994 0.5291
26.1000 -88.1861 0.5207
26.1200 -88.1728 0.5150
26.1400 -88.1595 0.5312
26.1600 -88.1461 0.5183
26.1800 -88.1328 0.5174
26.2000 -88.1194 0.5292
26.2200 -88.1061 0.5174
26.2400 -88.0927 0.5204
26.2600 -88.0793 0.5321
26.2800 -88.0660 0.5218
26.3000 -88.0527 0.5212
26.3200 -88.0394 0.5269
26.3400 -88.0260 0.5191
26.3600 -88.0127 0.5253
26.3800 -87.9994 0.5313
26.4000 -87.9861 0.5210
26.4200 -87.9728 0.5293
26.4400 -87.9594 0.5270
26.4600 -87.9461 0.5231
26.4800 -87.9328 0.5295
26.5000 -87.9194 0.5307
26.5200 -87.9061 0.5231
26.5400 -87.8927 0.5268
26.5600 -87.8794 0.5272
26.5800 -87.8661 0.5247
26.6000 -87.8527 0.5358
26.6200 -87.8394 0.5244
26.6400 -87.8260 0.5253
26.6600 -87.8127 0.5351
26.6800 -87.7994 0.5251
26.7000 -87.7860 0.5252
26.7200 -87.7727 0.5357
26.7400 -87.7594 0.5237
26.7600 -87.7461 0.5313
26.7800 -87.7327 0.5360
26.8000 -87.7194 0.5276
26.8200 -87.7061 0.5297
26.8400 -87.6928 0.5339
26.8600 -87.6795 0.5270
26.8800 -87.6661 0.5371
26.9000 -87.6528 0.5351
26.9200 -87.6394 0.5239
26.9400 -87.6261 0.5409
26.9600 -87.6127 0.5352
26.9800 -87.5993 0.5272
27.0000 -87.5860 0.5389
27.0200 -87.5727 0.5335
27.0400 -87.5594 0.5280
27.0600 -87.5460 0.5376
27.0800 -87.5327 0.5406
27.1000 -87.5194 0.5296
27.1200 -87.5061 0.5386
27.1400 -87.4928 0.5372
27.1600 -87.4794 0.5300
27.1800 -87.4661 0.5395
27.2000 -87.4528 0.5389
27.2200 -87.4395 0.5356
27.2400 -87.4261 0.5407
27.2600 -87.4128 0.5382
27.2800 -87.3995 0.5327
27.3000 -87.3861 0.5417
27.3200 -87.3727 0.5389
27.3400 -87.3594 0.5328
27.3600 -87.3460 0.5397
27.3800 -87.3327 0.5352
27.4000 -87.3194 0.5341
27.4200 -87.3060 0.5433
27.4400 -87.2926 0.5371
27.4600 -87.2793 0.5409
27.4800 -87.2660 0.5401
27.5000 -87.2527 0.5377
27.5200 -87.2394 0.5428
27.5400 -87.2261 0.5376
27.5600 -87.2128 0.5386
27.5800 -87.1994 0.5428
27.6000 -87.1861 0.5371
27.6200 -87.1728 0.5386
27.6400 -87.1594 0.5453
27.6600 -87.1461 0.5362
27.6800 -87.1328 0.5392
27.7000 -87.1194 0.5468
27.7200 -87.1060 0.5358
27.7400 -87.0927 0.5409
27.7600 -87.0794 0.5480
27.7800 -87.0660 0.5377
27.8000 -87.0527 0.5433
27.8200 -87.0394 0.5433
27.8400 -87.0261 0.5404
27.8600 -87.0127 0.5485
27.8800 -86.9994 0.5431
27.9000 -86.9861 0.5343
27.9200 -86.9728 0.5484
27.9400 -86.9595 0.5457
27.9600 -86.9461 0.5351
27.9800 -86.9328 0.5485
28.0000 -86.9195 0.5453
28.0200 -86.9061 0.5381
28.0400 -86.8928 0.5478
28.0600 -86.8794 0.5434
28.0800 -86.8660 0.5420
28.1000 -86.8526 0.5520
28.1200 -86.8393 0.5378
28.1400 -86.8260 0.5429
28.1600 -86.8127 0.5532
28.1800 -86.7994 0.5415
28.2000 -86.7861 0.5479
28.2200 -86.7728 0.5528
28.2400 -86.7595 0.5381
28.2600 -86.7461 0.5518
28.2800 -86.7328 0.5598
28.3000 -86.7195 0.5401
28.3200 -86.7061 0.5458
28.3400 -86.6927 0.5587
28.3600 -86.6794 0.5477
28.3800 -86.6661 0.5411
28.4000 -86.6527 0.5628
28.4200 -86.6393 0.5474
28.4400 -86.6260 0.5418
28.4600 -86.6127 0.5607
28.4800 -86.5994 0.5548
28.5000 -86.5861 0.5431
28.5200 -86.5727 0.5577
28.5400 -86.5594 0.5554
28.5600 -86.5461 0.5512
28.5800 -86.5328 0.5552
28.6000 -86.5194 0.5488
28.6200 -86.5061 0.5585
28.6400 -86.4928 0.5546
28.6600 -86.4795 0.5466
28.6800 -86.4661 0.5620
28.7000 -86.4528 0.5577
28.7200 -86.4394 0.5442
28.7400 -86.4261 0.5634
28.7600 -86.4127 0.5625
28.7800 -86.3994 0.5454
28.8000 -86.3860 0.5600
28.8200 -86.3727 0.5628
28.8400 -86.3594 0.5507
28.8600 -86.3460 0.5567
28.8800 -86.3327 0.5629
28.9000 -86.3193 0.5526
28.9200 -86.3060 0.5552
28.9400 -86.2927 0.5673
28.9600 -86.2794 0.5559
28.9800 -86.2660 0.5553
29.0000 -86.2528 0.5675
29.0200 -86.2395 0.5574
29.0400 -86.2262 0.5564
29.0600 -86.2128 0.5645
29.0800 -86.1994 0.5636
29.1000 -86.1861 0.5603
29.1200 -86.1727 0.5620
29.1400 -86.1594 0.5643
29.1600 -86.1460 0.5604
29.1800 -86.1327 0.5597
29.2000 -86.1194 0.5658
29.2200 -86.1060 0.5624
29.2400 -86.0927 0.5616
29.2600 -86.0794 0.5641
29.2800 -86.0661 0.5649
29.3000 -86.0527 0.5656
29.3200 -86.0394 0.5656
29.3400 -86.0261 0.5598
29.3600 -86.0128 0.5641
29.3800 -85.9995 0.5696
29.4000 -85.9861 0.5587
29.4200 -85.9728 0.5709
29.4400 -85.9594 0.5626
29.4600 -85.9461 0.5595
29.4800 -85.9328 0.5745
29.5000 -85.9194 0.5618
29.5200 -85.9061 0.5569
29.5400 -85.8927 0.5780
29.5600 -85.8794 0.5606
29.5800 -85.8660 0.5598
29.6000 -85.8527 0.5807
29.6200 -85.8393 0.5583
29.6400 -85.8260 0.5616
29.6600 -85.8127 0.5799
29.6800 -85.7994 0.5585
29.7000 -85.7861 0.5667
29.7200 -85.7728 0.5798
29.7400 -85.7595 0.5591
29.7600 -85.7461 0.5719
29.7800 -85.7328 0.5731
29.8000 -85.7194 0.5627
29.8200 -85.7061 0.5749
29.8400 -85.6927 0.5700
29.8600 -85.6794 0.5637
29.8800 -85.6660 0.5768
29.9000 -85.6527 0.5640
29.9200 -85.6394 0.5768
29.9400 -85.6260 0.5775
29.9600 -85.6127 0.5625
29.9800 -85.5994 0.5769
30.0000 -85.5861 0.5770
30.0200 -85.5728 0.5687
30.0400 -85.5594 0.5786
30.0600 -85.5461 0.5734
30.0800 -85.5328 0.5706
30.1000 -85.5194 0.5773
30.1200 -85.5061 0.5695
30.1400 -85.4928 0.5753
30.1600 -85.4794 0.5797
30.1800 -85.4661 0.5686
30.2000 -85.4528 0.5792
30.2200 -85.4394 0.5778
30.2400 -85.4260 0.5676
30.2600 -85.4127 0.5834
30.2800 -85.3994 0.5763
30.3000 -85.3860 0.5694
30.3200 -85.3727 0.5870
30.3400 -85.3594 0.5720
30.3600 -85.3461 0.5745
30.3800 -85.3328 0.5910
30.4000 -85.3195 0.5695
30.4200 -85.3061 0.5741
30.4400 -85.2928 0.5888
30.4600 -85.2795 0.5700
30.4800 -85.2661 0.5817
30.5000 -85.2527 0.5871
30.5200 -85.2393 0.5685
30.5400 -85.2260 0.5880
30.5600 -85.2127 0.5860
30.5800 -85.1994 0.5717
30.6000 -85.1860 0.5841
30.6200 -85.1727 0.5813
30.6400 -85.1594 0.5768
30.6600 -85.1461 0.5883
30.6800 -85.1328 0.5812
30.7000 -85.1194 0.5791
30.7200 -85.1060 0.5894
30.7400 -85.0927 0.5788
30.7600 -85.0794 0.5828
30.7800 -85.0660 0.5907
30.8000 -85.0527 0.5771
30.8200 -85.0394 0.5874
30.8400 -85.0261 0.5856
30.8600 -85.0128 0.5815
30.8800 -84.9995 0.5902
30.9000 -84.9861 0.5903
30.9200 -84.9728 0.5818
30.9400 -84.9594 0.5869
30.9600 -84.9461 0.5878
30.9800 -84.9327 0.5906
31.0000 -84.9194 0.5821
31.0200 -84.9061 0.5892
31.0400 -84.8927 0.5966
31.0600 -84.8793 0.5805
31.0800 -84.8660 0.5831
31.1000 -84.8527 0.6011
31.1200 -84.8394 0.5825
31.1400 -84.8260 0.5847
31.1600 -84.8127 0.5996
31.1800 -84.7995 0.5862
31.2000 -84.7862 0.5894
31.2200 -84.7728 0.5939
31.2400 -84.7595 0.5939
31.2600 -84.7461 0.5908
31.2800 -84.7328 0.5892
31.3000 -84.7194 0.5955
31.3200 -84.7060 0.5940
31.3400 -84.6927 0.5894
31.3600 -84.6794 0.5938
31.3800 -84.6660 0.5964
31.4000 -84.6527 0.5945
31.4200 -84.6394 0.5895
31.4400 -84.6261 0.6008
31.4600 -84.6128 0.5965
31.4800 -84.5994 0.5910
31.5000 -84.5861 0.5956
31.5200 -84.5728 0.5985
31.5400 -84.5595 0.5945
31.5600 -84.5461 0.5988
31.5800 -84.5328 0.5934
31.6000 -84.5194 0.5939
31.6200 -84.5061 0.5963
31.6400 -84.4927 0.5970
31.6600 -84.4794 0.5981
31.6800 -84.4660 0.5983
31.7000 -84.4527 0.5933
31.7200 -84.4394 0.6020
31.7400 -84.4260 0.5962
31.7600 -84.4127 0.5978
31.7800 -84.3993 0.5993
31.8000 -84.3860 0.5979
31.8200 -84.3727 0.6005
31.8400 -84.3594 0.6037
31.8600 -84.3461 0.5947
31.8800 -84.3328 0.5980
31.9000 -84.3195 0.6021
31.9200 -84.3061 0.5967
31.9400 -84.2928 0.6006
31.9600 -84.2794 0.6023
31.9800 -84.2661 0.5977
32.0000 -84.2528 0.6007
32.0200 -84.2394 0.5974
32.0400 -84.2260 0.5979
32.0600 -84.2127 0.5988
32.0800 -84.1994 0.5948
32.1000 -84.1861 0.6031
32.1200 -84.1727 0.6037
32.1400 -84.1594 0.5956
32.1600 -84.1461 0.6014
32.1800 -84.1328 0.6080
32.2000 -84.1194 0.5982
32.2200 -84.1061 0.6026
32.2400 -84.0927 0.6077
32.2600 -84.0794 0.6002
32.2800 -84.0661 0.5983
32.3000 -84.0528 0.6059
32.3200 -84.0394 0.6040
32.3400 -84.0261 0.6095
32.3600 -84.0128 0.5947
32.3800 -83.9994 0.6011
32.4000 -83.9860 0.6131
32.4200 -83.9727 0.6011
32.4400 -83.9594 0.6015
32.4600 -83.9461 0.6153
32.4800 -83.9327 0.6088
32.5000 -83.9194 0.5934
32.5200 -83.9061 0.6136
32.5400 -83.8928 0.6138
32.5600 -83.8794 0.5965
32.5800 -83.8661 0.6113
32.6000 -83.8528 0.6113
32.6200 -83.8394 0.6034
32.6400 -83.8261 0.6115
32.6600 -83.8128 0.6112
32.6800 -83.7994 0.6029
32.7000 -83.7861 0.6128
32.7200 -83.7728 0.6090
32.7400 -83.7594 0.6077
32.7600 -83.7461 0.6139
32.7800 -83.7327 0.5974
32.8000 -83.7194 0.6136
32.8200 -83.7061 0.6242
32.8400 -83.6927 0.5966
32.8600 -83.6794 0.6089
32.8800 -83.6660 0.6245
32.9000 -83.6527 0.6006
32.9200 -83.6394 0.6104
32.9400 -83.6260 0.6248
32.9600 -83.6127 0.6052
32.9800 -83.5994 0.6075
33.0000 -83.5861 0.6212
33.0200 -83.5728 0.6128
33.0400 -83.5595 0.6134
33.0600 -83.5462 0.6148
33.0800 -83.5328 0.6152
33.1000 -83.5195 0.6145
33.1200 -83.5060 0.6184
33.1400 -83.4927 0.6162
33.1600 -83.4793 0.6180
33.1800 -83.4660 0.6179
33.2000 -83.4527 0.6086
33.2200 -83.4393 0.6196
33.2400 -83.4260 0.6247
33.2600 -83.4127 0.6095
33.2800 -83.3994 0.6178
33.3000 -83.3861 0.6260
33.3200 -83.3727 0.6193
33.3400 -83.3595 0.6136
33.3600 -83.3462 0.6285
33.3800 -83.3328 0.6151
33.4000 -83.3195 0.6183
33.4200 -83.3061 0.6282
33.4400 -83.2928 0.6087
33.4600 -83.2794 0.6267
33.4800 -83.2660 0.6304
33.5000 -83.2527 0.6065
33.5200 -83.2393 0.6221
33.5400 -83.2260 0.6336
33.5600 -83.2127 0.6133
33.5800 -83.1993 0.6249
33.6000 -83.1860 0.6278
33.6200 -83.1727 0.6189
33.6400 -83.1594 0.6300
33.6600 -83.1461 0.6257
33.6800 -83.1327 0.6168
33.7000 -83.1194 0.6337
33.7200 -83.1061 0.6335
33.7400 -83.0928 0.6162
33.7600 -83.0794 0.6299
33.7800 -83.0661 0.6314
33.8000 -83.0528 0.6236
33.8200 -83.0394 0.6292
33.8400 -83.0261 0.6281
33.8600 -83.0127 0.6340
33.8800 -82.9994 0.6225
33.9000 -82.9861 0.6269
33.9200 -82.9727 0.6385
33.9400 -82.9594 0.6234
33.9600 -82.9460 0.6301
33.9800 -82.9327 0.6394
34.0000 -82.9194 0.6201
34.0200 -82.9061 0.6302
34.0400 -82.8927 0.6412
34.0600 -82.8794 0.6258
34.0800 -82.8661 0.6317
34.1000 -82.8528 0.6381
34.1200 -82.8394 0.6276
34.1400 -82.8261 0.6372
34.1600 -82.8128 0.6338
34.1800 -82.7994 0.6304
34.2000 -82.7860 0.6368
34.2200 -82.7727 0.6343
34.2400 -82.7594 0.6366
34.2600 -82.7460 0.6378
34.2800 -82.7327 0.6316
34.3000 -82.7194 0.6351
34.3200 -82.7060 0.6388
34.3400 -82.6928 0.6316
34.3600 -82.6795 0.6402
34.3800 -82.6661 0.6407
34.4000 -82.6527 0.6313
34.4200 -82.6394 0.6409
34.4400 -82.6261 0.6395
34.4600 -82.6128 0.6372
34.4800 -82.5994 0.6414
34.5000 -82.5861 0.6398
34.5200 -82.5728 0.6381
34.5400 -82.5594 0.6400
34.5600 -82.5461 0.6456
34.5800 -82.5327 0.6343
34.6000 -82.5194 0.6425
34.6200 -82.5060 0.6440
34.6400 -82.4927 0.6388
34.6600 -82.4793 0.6415
34.6800 -82.4660 0.6467
34.7000 -82.4527 0.6416
34.7200 -82.4394 0.6417
34.7400 -82.4261 0.6477
34.7600 -82.4127 0.6438
34.7800 -82.3994 0.6403
34.8000 -82.3861 0.6519
34.8200 -82.3728 0.6453
34.8400 -82.3595 0.6429
34.8600 -82.3461 0.6479
34.8800 -82.3328 0.6458
34.9000 -82.3194 0.6434
34.9200 -82.3061 0.6468
34.9400 -82.2927 0.6474
34.9600 -82.2794 0.6466
34.9800 -82.2661 0.6511
35.0000 -82.2527 0.6530
35.0200 -82.2394 0.6469
35.0400 -82.2260 0.6504
35.0600 -82.2127 0.6564
35.0800 -82.1994 0.6491
35.1000 -82.1861 0.6476
35.1200 -82.1727 0.6556
35.1400 -82.1594 0.6474
35.1600 -82.1461 0.6522
35.1800 -82.1328 0.6544
35.2000 -82.1195 0.6504
35.2200 -82.1061 0.6519
35.2400 -82.0928 0.6517
35.2600 -82.0795 0.6541
35.2800 -82.0661 0.6505
35.3000 -82.0527 0.6555
35.3200 -82.0393 0.6535
35.3400 -82.0260 0.6545
35.3600 -82.0127 0.6646
35.3800 -81.9993 0.6547
35.4000 -81.9860 0.6501
35.4200 -81.9727 0.6632
35.4400 -81.9595 0.6613
35.4600 -81.9461 0.6530
35.4800 -81.9328 0.6579
35.5000 -81.9195 0.6706
35.5200 -81.9061 0.6557
35.5400 -81.8928 0.6507
35.5600 -81.8794 0.6722
35.5800 -81.8661 0.6624
35.6000 -81.8527 0.6406
35.6200 -81.8394 0.6764
35.6400 -81.8260 0.6690
35.6600 -81.8126 0.6301
35.6800 -81.7993 0.6838
35.7000 -81.7860 0.6750
35.7200 -81.7727 0.6253
35.7400 -81.7594 0.6839
35.7600 -81.7460 0.6748
35.7800 -81.7327 0.6328
35.8000 -81.7194 0.6878
35.8200 -81.7061 0.6671
35.8400 -81.6927 0.6392
35.8600 -81.6794 0.6910
35.8800 -81.6661 0.6673
35.9000 -81.6528 0.6467
35.9200 -81.6394 0.6876
35.9400 -81.6261 0.6568
35.9600 -81.6127 0.6569
35.9800 -81.5994 0.6861
36.0000 -81.5860 0.6518
36.0200 -81.5727 0.6708
36.0400 -81.5593 0.6717
36.0600 -81.5460 0.6582
36.0800 -81.5327 0.6793
36.1000 -81.5193 0.6607
36.1200 -81.5060 0.6639
36.1400 -81.4927 0.6830
36.1600 -81.4794 0.6638
36.1800 -81.4661 0.6665
36.2000 -81.4527 0.6827
36.2200 -81.4394 0.6600
36.2400 -81.4261 0.6748
36.2600 -81.4128 0.6816
36.2800 -81.3995 0.6606
36.3000 -81.3861 0.6756
36.3200 -81.3728 0.6773
36.3400 -81.3594 0.6718
36.3600 -81.3461 0.6843
36.3800 -81.3327 0.6654
36.4000 -81.3193 0.6777
36.4200 -81.3060 0.6764
36.4400 -81.2927 0.6686
36.4600 -81.2794 0.6898
36.4800 -81.2660 0.6675
36.5000 -81.2527 0.6681
36.5200 -81.2394 0.6998
36.5400 -81.2261 0.6717
36.5600 -81.2127 0.6697
36.5800 -81.1994 0.6927
36.6000 -81.1861 0.6668
36.6200 -81.1728 0.6786
36.6400 -81.1594 0.6961
36.6600 -81.1461 0.6642
36.6800 -81.1328 0.6805
36.7000 -81.1194 0.6925
36.7200 -81.1061 0.6656
36.7400 -81.0927 0.6894
36.7600 -81.0794 0.6881
36.7800 -81.0660 0.6640
36.8000 -81.0527 0.6918
36.8200 -81.0393 0.6896
36.8400 -81.0260 0.6686
36.8600 -81.0127 0.6893
36.8800 -80.9994 0.6913
36.9000 -80.9861 0.6728
36.9200 -80.9728 0.6917
36.9400 -80.9594 0.6892
36.9600 -80.9461 0.6736
36.9800 -80.9328 0.6925
37.0000 -80.9195 0.6910
37.0200 -80.9061 0.6748
37.0400 -80.8928 0.6912
37.0600 -80.8794 0.6916
37.0800 -80.8660 0.6755
37.1000 -80.8527 0.6911
37.1200 -80.8393 0.6936
37.1400 -80.8260 0.6742
37.1600 -80.8127 0.6943
37.1800 -80.7993 0.6954
37.2000 -80.7860 0.6777
37.2200 -80.7727 0.6943
37.2400 -80.7594 0.6991
37.2600 -80.7461 0.6831
37.2800 -80.7328 0.6928
37.3000 -80.7194 0.7005
37.3200 -80.7061 0.6796
37.3400 -80.6928 0.6980
37.3600 -80.6795 0.6984
37.3800 -80.6661 0.6891
37.4000 -80.6528 0.6911
37.4200 -80.6394 0.6987
37.4400 -80.6261 0.6934
37.4600 -80.6127 0.6905
37.4800 -80.5993 0.6948
37.5000 -80.5860 0.6901
37.5200 -80.5727 0.6983
37.5400 -80.5594 0.7003
37.5600 -80.5460 0.6909
37.5800 -80.5327 0.6939
37.6000 -80.5194 0.7035
37.6200 -80.5061 0.6938
37.6400 -80.4928 0.6948
37.6600 -80.4794 0.7031
37.6800 -80.4661 0.6952
37.7000 -80.4528 0.6989
37.7200 -80.4394 0.7052
37.7400 -80.4260 0.6944
37.7600 -80.4127 0.7018
37.7800 -80.3994 0.7013
37.8000 -80.3860 0.6988
37.8200 -80.3727 0.7001
37.8400 -80.3594 0.7033
37.8600 -80.3461 0.6956
37.8800 -80.3328 0.7043
37.9000 -80.3195 0.7057
37.9200 -80.3061 0.6947
37.9400 -80.2927 0.7082
37.9600 -80.2794 0.7014
37.9800 -80.2661 0.7004
38.0000 -80.2527 0.7112
38.0200 -80.2394 0.6981
38.0400 -80.2261 0.7087
38.0600 -80.2128 0.7054
38.0800 -80.1994 0.7058
38.1000 -80.1861 0.7082
38.1200 -80.1728 0.6986
38.1400 -80.1595 0.7135
38.1600 -80.1461 0.7129
38.1800 -80.1327 0.7013
38.2000 -80.1194 0.7097
38.2200 -80.1061 0.7119
38.2400 -80.0927 0.7037
38.2600 -80.0794 0.7133
38.2800 -80.0660 0.7107
38.3000 -80.0527 0.6991
38.3200 -80.0394 0.7206
38.3400 -80.0261 0.7092
38.3600 -80.0127 0.7043
38.3800 -79.9994 0.7244
38.4000 -79.9861 0.7027
38.4200 -79.9728 0.7115
38.4400 -79.9595 0.7193
38.4600 -79.9461 0.7084
38.4800 -79.9328 0.7148
38.5000 -79.9194 0.7169
38.5200 -79.9061 0.7107
38.5400 -79.8927 0.7147
38.5600 -79.8793 0.7186
38.5800 -79.8660 0.7087
38.6000 -79.8527 0.7190
38.6200 -79.8394 0.7180
38.6400 -79.8260 0.7096
38.6600 -79.8127 0.7218
38.6800 -79.7994 0.7172
38.7000 -79.7861 0.7153
38.7200 -79.7728 0.7209
38.7400 -79.7594 0.7166
38.7600 -79.7461 0.7163
38.7800 -79.7328 0.7229
38.8000 -79.7194 0.7187
38.8200 -79.7061 0.7178
38.8400 -79.6927 0.7248
38.8600 -79.6794 0.7215
38.8800 -79.6661 0.7127
38.9000 -79.6527 0.7293
38.9200 -79.6394 0.7217
38.9400 -79.6260 0.7164
38.9600 -79.6127 0.7273
38.9800 -79.5994 0.7243
39.0000 -79.5860 0.7166
39.0200 -79.5727 0.7312
39.0400 -79.5594 0.7214
39.0600 -79.5461 0.7166
39.0800 -79.5327 0.7308
39.1000 -79.5194 0.7232
39.1200 -79.5061 0.7230
39.1400 -79.4928 0.7300
39.1600 -79.4795 0.7269
39.1800 -79.4661 0.7269
39.2000 -79.4528 0.7273
39.2200 -79.4394 0.7225
39.2400 -79.4261 0.7310
39.2600 -79.4127 0.7281
39.2800 -79.3993 0.7205
39.3000 -79.3860 0.7329
39.3200 -79.3727 0.7337
39.3400 -79.3594 0.7197
39.3600 -79.3460 0.7343
39.3800 -79.3327 0.7299
39.4000 -79.3194 0.7275
39.4200 -79.3061 0.7366
39.4400 -79.2928 0.7293
39.4600 -79.2794 0.7296
39.4800 -79.2661 0.7382
39.5000 -79.2528 0.7285
39.5200 -79.2394 0.7334
39.5400 -79.2261 0.7369
39.5600 -79.2128 0.7293
39.5800 -79.1994 0.7353
39.6000 -79.1861 0.7378
39.6200 -79.1727 0.7290
39.6400 -79.1593 0.7342
39.6600 -79.1460 0.7353
39.6800 -79.1327 0.7338
39.7000 -79.1194 0.7347
39.7200 -79.1060 0.7368
39.7400 -79.0927 0.7337
39.7600 -79.0794 0.7348
39.7800 -79.0661 0.7378
39.8000 -79.0528 0.7402
39.8200 -79.0394 0.7281
39.8400 -79.0261 0.7378
39.8600 -79.0128 0.7448
39.8800 -78.9995 0.7303
39.9000 -78.9861 0.7389
39.9200 -78.9727 0.7407
39.9400 -78.9594 0.7325
39.9600 -78.9461 0.7405
39.9800 -78.9327 0.7464
40.0000 -78.9194 0.7358
40.0200 -78.9061 0.7409
40.0400 -78.8927 0.7427
40.0600 -78.8794 0.7366
40.0800 -78.8661 0.7429
40.1000 -78.8527 0.7437
40.1200 -78.8394 0.7385
40.1400 -78.8260 0.7442
40.1600 -78.8127 0.7424
40.1800 -78.7993 0.7451
40.2000 -78.7861 0.7437
40.2200 -78.7728 0.7433
40.2400 -78.7595 0.7439
40.2600 -78.7461 0.7460
40.2800 -78.7328 0.7392
40.3000 -78.7195 0.7467
40.3200 -78.7062 0.7497
40.3400 -78.6927 0.7455
40.3600 -78.6793 0.7441
40.3800 -78.6660 0.7450
40.4000 -78.6527 0.7488
40.4200 -78.6394 0.7456
40.4400 -78.6260 0.7427
40.4600 -78.6127 0.7504
40.4800 -78.5994 0.7503
40.5000 -78.5861 0.7468
40.5200 -78.5728 0.7461
40.5400 -78.5594 0.7490
40.5600 -78.5461 0.7535
40.5800 -78.5328 0.7476
40.6000 -78.5195 0.7459
40.6200 -78.5062 0.7583
40.6400 -78.4928 0.7513
40.6600 -78.4794 0.7431
40.6800 -78.4661 0.7634
40.7000 -78.4527 0.7510
40.7200 -78.4393 0.7463
40.7400 -78.4260 0.7593
40.7600 -78.4127 0.7519
40.7800 -78.3994 0.7564
40.8000 -78.3860 0.7568
40.8200 -78.3727 0.7546
40.8400 -78.3594 0.7546
40.8600 -78.3461 0.7594
40.8800 -78.3328 0.7583
40.9000 -78.3194 0.7562
40.9200 -78.3061 0.7557
40.9400 -78.2928 0.7594
40.9600 -78.2795 0.7595
40.9800 -78.2661 0.7570
41.0000 -78.2528 0.7632
41.0200 -78.2394 0.7628
41.0400 -78.2261 0.7565
41.0600 -78.2128 0.7618
41.0800 -78.1994 0.7645
41.1000 -78.1861 0.7643
41.1200 -78.1727 0.7612
41.1400 -78.1594 0.7584
41.1600 -78.1460 0.7623
41.1800 -78.1327 0.7648
41.2000 -78.1194 0.7660
41.2200 -78.1061 0.7648
41.2400 -78.0927 0.7631
41.2600 -78.0794 0.7663
41.2800 -78.0661 0.7683
41.3000 -78.0528 0.7657
41.3200 -78.0395 0.7694
41.3400 -78.0261 0.7724
41.3600 -78.0128 0.7674
41.3800 -77.9994 0.7696
41.4000 -77.9861 0.7726
41.4200 -77.9727 0.7664
41.4400 -77.9593 0.7686
41.4600 -77.9460 0.7732
41.4800 -77.9327 0.7693
41.5000 -77.9194 0.7717
41.5200 -77.9060 0.7745
41.5400 -77.8927 0.7723
41.5600 -77.8794 0.7693
41.5800 -77.8661 0.7779
41.6000 -77.8528 0.7695
41.6200 -77.8394 0.7740
41.6400 -77.8261 0.7792
41.6600 -77.8128 0.7664
41.6800 -77.7994 0.7769
41.7000 -77.7861 0.7840
41.7200 -77.7728 0.7722
41.7400 -77.7595 0.7778
41.7600 -77.7461 0.7843
41.7800 -77.7328 0.7709
41.8000 -77.7194 0.7781
41.8200 -77.7060 0.7840
41.8400 -77.6927 0.7687
41.8600 -77.6794 0.7858
41.8800 -77.6660 0.7836
41.9000 -77.6527 0.7724
41.9200 -77.6394 0.7907
41.9400 -77.6261 0.7818
41.9600 -77.6127 0.7773
41.9800 -77.5994 0.7889
42.0000 -77.5861 0.7824
42.0200 -77.5728 0.7812
42.0400 -77.5595 0.7866
42.0600 -77.5461 0.7833
42.0800 -77.5328 0.7830
42.1000 -77.5194 0.7904
42.1200 -77.5061 0.7811
42.1400 -77.4928 0.7863
42.1600 -77.4794 0.7905
42.1800 -77.4660 0.7803
42.2000 -77.4527 0.7864
42.2200 -77.4394 0.7919
42.2400 -77.4261 0.7890
42.2600 -77.4127 0.7875
42.2800 -77.3994 0.7894
42.3000 -77.3861 0.7897
42.3200 -77.3727 0.7956
42.3400 -77.3594 0.7874
42.3600 -77.3461 0.7810
42.3800 -77.3328 0.7959
42.4000 -77.3195 0.7942
42.4200 -77.3062 0.7925
42.4400 -77.2928 0.7939
42.4600 -77.2795 0.7907
42.4800 -77.2661 0.7946
42.5000 -77.2527 0.7909
42.5200 -77.2393 0.7986
42.5400 -77.2260 0.7990
42.5600 -77.2126 0.7911
42.5800 -77.1993 0.7943
42.6000 -77.1860 0.8013
42.6200 -77.1727 0.7951
42.6400 -77.1594 0.8009
42.6600 -77.1461 0.7990
42.6800 -77.1328 0.7885
42.7000 -77.1195 0.8019
42.7200 -77.1061 0.8089
42.7400 -77.0928 0.7909
42.7600 -77.0795 0.8020
42.7800 -77.0661 0.7993
42.8000 -77.0527 0.7936
42.8200 -77.0394 0.8101
42.8400 -77.0261 0.8007
42.8600 -77.0127 0.7945
42.8800 -76.9994 0.8093
42.9000 -76.9860 0.8030
42.9200 -76.9727 0.7987
42.9400 -76.9594 0.8123
42.9600 -76.9461 0.8010
42.9800 -76.9327 0.8001
43.0000 -76.9194 0.8148
43.0200 -76.9061 0.7976
43.0400 -76.8928 0.8067
43.0600 -76.8794 0.8117
43.0800 -76.8661 0.7987
43.1000 -76.8528 0.8126
43.1200 -76.8395 0.8108
43.1400 -76.8261 0.8029
43.1600 -76.8128 0.8114
43.1800 -76.7994 0.8071
43.2000 -76.7861 0.8073
43.2200 -76.7727 0.8154
43.2400 -76.7594 0.8030
43.2600 -76.7460 0.8088
43.2800 -76.7327 0.8143
43.3000 -76.7194 0.8040
43.3200 -76.7060 0.8098
43.3400 -76.6927 0.8110
43.3600 -76.6793 0.8055
43.3800 -76.6660 0.8170
43.4000 -76.6527 0.8095
43.4200 -76.6394 0.8075
43.4400 -76.6260 0.8132
43.4600 -76.6128 0.8123
43.4800 -76.5995 0.8137
43.5000 -76.5862 0.8142
43.5200 -76.5728 0.8093
43.5400 -76.5594 0.8165
43.5600 -76.5461 0.8156
43.5800 -76.5328 0.8146
43.6000 -76.5194 0.8167
43.6200 -76.5060 0.8150
43.6400 -76.4927 0.8140
43.6600 -76.4794 0.8193
43.6800 -76.4660 0.8150
43.7000 -76.4527 0.8143
43.7200 -76.4394 0.8221
43.7400 -76.4261 0.8158
43.7600 -76.4128 0.8153
43.7800 -76.3994 0.8253
43.8000 -76.3861 0.8139
43.8200 -76.3728 0.8205
43.8400 -76.3595 0.8255
43.8600 -76.3461 0.8210
43.8800 -76.3328 0.8270
43.9000 -76.3194 0.8208
43.9200 -76.3061 0.8188
43.9400 -76.2928 0.8273
43.9600 -76.2794 0.8226
43.9800 -76.2661 0.8219
44.0000 -76.2527 0.8256
44.0200 -76.2394 0.8253
44.0400 -76.2260 0.8243
44.0600 -76.2127 0.8266
44.0800 -76.1993 0.8284
44.1000 -76.1860 0.8262
44.1200 -76.1727 0.8315
44.1400 -76.1594 0.8299
44.1600 -76.1461 0.8250
44.1800 -76.1328 0.8282
44.2000 -76.1195 0.8339
44.2200 -76.1062 0.8289
44.2400 -76.0928 0.8251
44.2600 -76.0795 0.8336
44.2800 -76.0661 0.8340
44.3000 -76.0527 0.8281
44.3200 -76.0394 0.8371
44.3400 -76.0260 0.8291
44.3600 -76.0127 0.8317
44.3800 -75.9994 0.8388
44.4000 -75.9860 0.8344
44.4200 -75.9727 0.8298
44.4400 -75.9594 0.8411
44.4600 -75.9461 0.8360
44.4800 -75.9328 0.8260
44.5000 -75.9194 0.8445
44.5200 -75.9061 0.8374
44.5400 -75.8928 0.8313
44.5600 -75.8795 0.8458
44.5800 -75.8661 0.8367
44.6000 -75.8528 0.8355
44.6200 -75.8394 0.8493
44.6400 -75.8261 0.8332
44.6600 -75.8128 0.8361
44.6800 -75.7994 0.8532
44.7000 -75.7860 0.8298
44.7200 -75.7727 0.8384
44.7400 -75.7594 0.8564
44.7600 -75.7460 0.8344
44.7800 -75.7327 0.8484
44.8000 -75.7194 0.8493
44.8200 -75.7061 0.8417
44.8400 -75.6928 0.8473
44.8600 -75.6795 0.8474
44.8800 -75.6661 0.8411
44.9000 -75.6528 0.8527
44.9200 -75.6395 0.8506
44.9400 -75.6261 0.8412
44.9600 -75.6127 0.8523
44.9800 -75.5994 0.8500
45.0000 -75.5860 0.8402
45.0200 -75.5727 0.8595
45.0400 -75.5594 0.8512
45.0600 -75.5460 0.8436
45.0800 -75.5327 0.8576
45.1000 -75.5194 0.8542
45.1200 -75.5061 0.8452
45.1400 -75.4928 0.8558
45.1600 -75.4794 0.8575
45.1800 -75.4660 0.8470
45.2000 -75.4527 0.8611
45.2200 -75.4394 0.8552
45.2400 -75.4260 0.8481
45.2600 -75.4127 0.8609
45.2800 -75.3994 0.8557
45.3000 -75.3861 0.8548
45.3200 -75.3727 0.8572
45.3400 -75.3594 0.8602
45.3600 -75.3461 0.8523
45.3800 -75.3328 0.8570
45.4000 -75.3194 0.8605
45.4200 -75.3061 0.8497
45.4400 -75.2927 0.8621
45.4600 -75.2794 0.8658
45.4800 -75.2661 0.8547
45.5000 -75.2527 0.8599
45.5200 -75.2394 0.8667
45.5400 -75.2261 0.8580
45.5600 -75.2128 0.8641
45.5800 -75.1994 0.8706
45.6000 -75.1861 0.8577
45.6200 -75.1727 0.8636
45.6400 -75.1594 0.8745
45.6600 -75.1461 0.8608
45.6800 -75.1328 0.8686
45.7000 -75.1194 0.8713
45.7200 -75.1061 0.8626
45.7400 -75.0928 0.8679
45.7600 -75.0794 0.8733
45.7800 -75.0660 0.8626
45.8000 -75.0527 0.8682
45.8200 -75.0394 0.8759
45.8400 -75.0260 0.8671
45.8600 -75.0127 0.8733
45.8800 -74.9994 0.8761
45.9000 -74.9861 0.8642
45.9200 -74.9728 0.8756
45.9400 -74.9594 0.8799
45.9600 -74.9461 0.8715
45.9800 -74.9327 0.8788
46.0000 -74.9195 0.8794
46.0200 -74.9061 0.8702
46.0400 -74.8928 0.8804
46.0600 -74.8794 0.8773
46.0800 -74.8661 0.8754
46.1000 -74.8528 0.8854
46.1200 -74.8394 0.8779
46.1400 -74.8261 0.8786
46.1600 -74.8127 0.8838
46.1800 -74.7994 0.8787
46.2000 -74.7860 0.8807
46.2200 -74.7727 0.8832
46.2400 -74.7593 0.8773
46.2600 -74.7460 0.8902
46.2800 -74.7327 0.8789
46.3000 -74.7194 0.8817
46.3200 -74.7060 0.8924
46.3400 -74.6927 0.8803
46.3600 -74.6794 0.8843
46.3800 -74.6661 0.8908
46.4000 -74.6528 0.8803
46.4200 -74.6395 0.8839
46.4400 -74.6261 0.8962
46.4600 -74.6128 0.8834
46.4800 -74.5994 0.8899
46.5000 -74.5860 0.8935
46.5200 -74.5727 0.8779
46.5400 -74.5594 0.8952
46.5600 -74.5461 0.8932
46.5800 -74.5327 0.8840
46.6000 -74.5193 0.8918
46.6200 -74.5060 0.8937
46.6400 -74.4927 0.8909
46.6600 -74.4794 0.8951
46.6800 -74.4661 0.8927
46.7000 -74.4527 0.8901
46.7200 -74.4394 0.9000
46.7400 -74.4261 0.8949
46.7600 -74.4128 0.8917
46.7800 -74.3994 0.9038
46.8000 -74.3861 0.8899
46.8200 -74.3728 0.8941
46.8400 -74.3594 0.9037
46.8600 -74.3460 0.8926
46.8800 -74.3327 0.8995
46.9000 -74.3194 0.9013
46.9200 -74.3061 0.8960
46.9400 -74.2927 0.9013
46.9600 -74.2794 0.9054
46.9800 -74.2661 0.8972
47.0000 -74.2527 0.9020
47.0200 -74.2394 0.9065
47.0400 -74.2261 0.8977
47.0600 -74.2128 0.9040
47.0800 -74.1995 0.9102
47.1000 -74.1861 0.8985
47.1200 -74.1728 0.9033
47.1400 -74.1594 0.9078
47.1600 -74.1461 0.9051
47.1800 -74.1328 0.9046
47.2000 -74.1194 0.9107
47.2200 -74.1061 0.9074
47.2400 -74.0927 0.9074
47.2600 -74.0794 0.9116
47.2800 -74.0661 0.9098
47.3000 -74.0527 0.9122
47.3200 -74.0394 0.9120
47.3400 -74.0260 0.9103
47.3600 -74.0127 0.9129
47.3800 -73.9994 0.9154
47.4000 -73.9860 0.9156
47.4200 -73.9727 0.9084
47.4400 -73.9594 0.9169
47.4600 -73.9461 0.9184
47.4800 -73.9328 0.9163
47.5000 -73.9195 0.9164
47.5200 -73.9062 0.9180
47.5400 -73.8928 0.9192
47.5600 -73.8795 0.9152
47.5800 -73.8660 0.9153
47.6000 -73.8527 0.9199
47.6200 -73.8393 0.9210
47.6400 -73.8260 0.9189
47.6600 -73.8127 0.9240
47.6800 -73.7993 0.9221
47.7000 -73.7860 0.9207
47.7200 -73.7727 0.9244
47.7400 -73.7594 0.9212
47.7600 -73.7461 0.9169
47.7800 -73.7327 0.9284
47.8000 -73.7194 0.9265
47.8200 -73.7061 0.9263
47.8400 -73.6928 0.9277
47.8600 -73.6795 0.9232
47.8800 -73.6661 0.9267
47.9000 -73.6528 0.9330
47.9200 -73.6394 0.9236
47.9400 -73.6260 0.9327
47.9600 -73.6127 0.9319
47.9800 -73.5993 0.9285
48.0000 -73.5860 0.9342
48.0200 -73.5727 0.9319
48.0400 -73.5593 0.9302
48.0600 -73.5460 0.9359
48.0800 -73.5327 0.9309
48.1000 -73.5194 0.9298
48.1200 -73.5061 0.9363
48.1400 -73.4927 0.9356
48.1600 -73.4794 0.9339
48.1800 -73.4661 0.9353
48.2000 -73.4528 0.9444
48.2200 -73.4394 0.9341
48.2400 -73.4261 0.9341
48.2600 -73.4128 0.9482
48.2800 -73.3994 0.9372
48.3000 -73.3861 0.9390
48.3200 -73.3727 0.9410
48.3400 -73.3594 0.9360
48.3600 -73.3461 0.9423
48.3800 -73.3327 0.9467
48.4000 -73.3194 0.9381
48.4200 -73.3060 0.9413
48.4400 -73.2927 0.9464
48.4600 -73.2794 0.9440
48.4800 -73.2661 0.9475
48.5000 -73.2527 0.9482
48.5200 -73.2394 0.9402
48.5400 -73.2261 0.9482
48.5600 -73.2128 0.9537
48.5800 -73.1994 0.9472
48.6000 -73.1861 0.9492
48.6200 -73.1728 0.9508
48.6400 -73.1594 0.9465
48.6600 -73.1460 0.9494
48.6800 -73.1327 0.9561
48.7000 -73.1194 0.9456
48.7200 -73.1060 0.9520
48.7400 -73.0927 0.9594
48.7600 -73.0794 0.9498
48.7800 -73.0660 0.9573
48.8000 -73.0527 0.9588
48.8200 -73.0394 0.9505
48.8400 -73.0261 0.9621
48.8600 -73.0127 0.9573
48.8800 -72.9994 0.9538
48.9000 -72.9861 0.9626
48.9200 -72.9728 0.9595
48.9400 -72.9594 0.9580
48.9600 -72.9461 0.9660
48.9800 -72.9328 0.9625
49.0000 -72.9194 0.9563
49.0200 -72.9061 0.9680
49.0400 -72.8927 0.9643
49.0600 -72.8793 0.9572
49.0800 -72.8660 0.9690
49.1000 -72.8527 0.9674
49.1200 -72.8393 0.9616
49.1400 -72.8260 0.9679
49.1600 -72.8127 0.9653
49.1800 -72.7994 0.9719
49.2000 -72.7861 0.9715
49.2200 -72.7727 0.9650
49.2400 -72.7594 0.9692
49.2600 -72.7461 0.9735
49.2800 -72.7328 0.9695
49.3000 -72.7194 0.9702
49.3200 -72.7061 0.9741
49.3400 -72.6928 0.9668
49.3600 -72.6794 0.9746
49.3800 -72.6661 0.9737
49.4000 -72.6527 0.9715
49.4200 -72.6394 0.9774
49.4400 -72.6261 0.9815
49.4600 -72.6127 0.9750
49.4800 -72.5994 0.9748
49.5000 -72.5860 0.9791
49.5200 -72.5727 0.9744
49.5400 -72.5594 0.9798
49.5600 -72.5461 0.9764
49.5800 -72.5327 0.9836
49.6000 -72.5194 0.9820
49.6200 -72.5061 0.9784
49.6400 -72.4928 0.9833
49.6600 -72.4795 0.9847
49.6800 -72.4662 0.9807
49.7000 -72.4528 0.9900
49.7200 -72.4395 0.9840
49.7400 -72.4261 0.9794
49.7600 -72.4127 0.9873
49.7800 -72.3993 0.9821
49.8000 -72.3860 0.9879
49.8200 -72.3727 0.9895
49.8400 -72.3593 0.9843
49.8600 -72.3460 0.9871
49.8800 -72.3327 0.9915
49.9000 -72.3195 0.9901
49.9200 -72.3061 0.9863
49.9400 -72.2928 0.9929
49.9600 -72.2795 0.9880
49.9800 -72.2662 0.9936
50.0000 -72.2528 0.9949
50.0200 -72.2395 0.9895
50.0400 -72.2261 0.9943
50.0600 -72.2128 0.9975
50.0800 -72.1994 0.9919
50.1000 -72.1860 0.9968
50.1200 -72.1727 0.9989
50.1400 -72.1593 0.9918
50.1600 -72.1460 0.9979
50.1800 -72.1327 1.0024
50.2000 -72.1194 0.9934
50.2200 -72.1060 1.0017
50.2400 -72.0927 1.0021
50.2600 -72.0794 0.9953
50.2800 -72.0661 1.0063
50.3000 -72.0527 0.9970
50.3200 -72.0394 1.0003
50.3400 -72.0261 1.0052
50.3600 -72.0128 1.0025
50.3800 -71.9994 0.9994
50.4000 -71.9861 1.0090
50.4200 -71.9727 1.0027
50.4400 -71.9594 1.0028
50.4600 -71.9460 1.0103
50.4800 -71.9327 1.0010
50.5000 -71.9193 1.0112
50.5200 -71.9060 1.0094
50.5400 -71.8927 1.0047
50.5600 -71.8793 1.0110
50.5800 -71.8660 1.0096
50.6000 -71.8527 1.0093
50.6200 -71.8394 1.0095
50.6400 -71.8261 1.0121
50.6600 -71.8127 1.0161
50.6800 -71.7994 1.0113
50.7000 -71.7861 1.0139
50.7200 -71.7728 1.0168
50.7400 -71.7595 1.0150
50.7600 -71.7461 1.0120
50.7800 -71.7328 1.0152
50.8000 -71.7194 1.0209
50.8200 -71.7061 1.0166
50.8400 -71.6927 1.0183
50.8600 -71.6793 1.0224
50.8800 -71.6660 1.0216
50.9000 -71.6527 1.0219
50.9200 -71.6394 1.0182
50.9400 -71.6260 1.0237
50.9600 -71.6127 1.0219
50.9800 -71.5994 1.0238
51.0000 -71.5861 1.0228
51.0200 -71.5727 1.0251
51.0400 -71.5594 1.0282
51.0600 -71.5461 1.0204
51.0800 -71.5328 1.0298
51.1000 -71.5194 1.0313
51.1200 -71.5061 1.0241
51.1400 -71.4928 1.0297
51.1600 -71.4794 1.0286
51.1800 -71.4661 1.0303
51.2000 -71.4527 1.0314
51.2200 -71.4394 1.0335
51.2400 -71.4261 1.0326
51.2600 -71.4127 1.0371
51.2800 -71.3994 1.0328
51.3000 -71.3860 1.0352
51.3200 -71.3727 1.0392
51.3400 -71.3594 1.0371
51.3600 -71.3461 1.0404
51.3800 -71.3328 1.0377
51.4000 -71.3194 1.0377
51.4200 -71.3061 1.0405
51.4400 -71.2928 1.0388
51.4600 -71.2795 1.0438
51.4800 -71.2661 1.0441
51.5000 -71.2528 1.0385
51.5200 -71.2394 1.0453
51.5400 -71.2261 1.0485
51.5600 -71.2127 1.0380
51.5800 -71.1993 1.0481
51.6000 -71.1860 1.0501
51.6200 -71.1727 1.0404
51.6400 -71.1594 1.0484
51.6600 -71.1460 1.0493
51.6800 -71.1327 1.0457
51.7000 -71.1194 1.0506
51.7200 -71.1061 1.0512
51.7400 -71.0928 1.0474
51.7600 -71.0794 1.0529
51.7800 -71.0661 1.0483
51.8000 -71.0528 1.0551
51.8200 -71.0395 1.0541
51.8400 -71.0261 1.0527
51.8600 -71.0128 1.0566
51.8800 -70.9994 1.0566
51.9000 -70.9861 1.0533
51.9200 -70.9727 1.0562
51.9400 -70.9593 1.0581
51.9600 -70.9460 1.0564
51.9800 -70.9327 1.0587
52.0000 -70.9193 1.0655
52.0200 -70.9060 1.0582
52.0400 -70.8927 1.0619
52.0600 -70.8794 1.0646
52.0800 -70.8661 1.0679
52.1000 -70.8528 1.0604
52.1200 -70.8394 1.0648
52.1400 -70.8261 1.0682
52.1600 -70.8128 1.0616
52.1800 -70.7994 1.0726
52.2000 -70.7860 1.0641
52.2200 -70.7727 1.0622
52.2400 -70.7594 1.0738
52.2600 -70.7461 1.0681
52.2800 -70.7327 1.0713
52.3000 -70.7194 1.0778
52.3200 -70.7061 1.0710
52.3400 -70.6928 1.0717
52.3600 -70.6795 1.0771
52.3800 -70.6661 1.0706
52.4000 -70.6527 1.0769
52.4200 -70.6394 1.0793
52.4400 -70.6261 1.0731
52.4600 -70.6127 1.0793
52.4800 -70.5993 1.0791
52.5000 -70.5861 1.0789
52.5200 -70.5728 1.0847
52.5400 -70.5594 1.0816
52.5600 -70.5461 1.0777
52.5800 -70.5328 1.0868
52.6000 -70.5194 1.0825
52.6200 -70.5061 1.0816
52.6400 -70.4927 1.0837
52.6600 -70.4794 1.0876
52.6800 -70.4661 1.0873
52.7000 -70.4527 1.0869
52.7200 -70.4394 1.0907
52.7400 -70.4260 1.0931
52.7600 -70.4127 1.0880
52.7800 -70.3994 1.0935
52.8000 -70.3861 1.0952
52.8200 -70.3727 1.0879
52.8400 -70.3594 1.0958
52.8600 -70.3461 1.0954
52.8800 -70.3328 1.0889
52.9000 -70.3195 1.1050
52.9200 -70.3061 1.0947
52.9400 -70.2928 1.0911
52.9600 -70.2794 1.1026
52.9800 -70.2661 1.0980
53.0000 -70.2527 1.0965
53.0200 -70.2393 1.1018
53.0400 -70.2260 1.1003
53.0600 -70.2127 1.0989
53.0800 -70.1994 1.1047
53.1000 -70.1860 1.0980
53.1200 -70.1727 1.1042
53.1400 -70.1594 1.1097
53.1600 -70.1461 1.1046
53.1800 -70.1328 1.1070
53.2000 -70.1194 1.1079
53.2200 -70.1061 1.1091
53.2400 -70.0928 1.1103
53.2600 -70.0794 1.1097
53.2800 -70.0661 1.1133
53.3000 -70.0527 1.1081
53.3200 -70.0394 1.1095
53.3400 -70.0261 1.1178
53.3600 -70.0127 1.1141
53.3800 -69.9994 1.1090
53.4000 -69.9860 1.1214
53.4200 -69.9727 1.1113
53.4400 -69.9594 1.1158
53.4600 -69.9460 1.1243
53.4800 -69.9327 1.1131
53.5000 -69.9194 1.1185
53.5200 -69.9061 1.1250
53.5400 -69.8927 1.1154
53.5600 -69.8794 1.1237
53.5800 -69.8661 1.1290
53.6000 -69.8528 1.1160
53.6200 -69.8395 1.1246
53.6400 -69.8261 1.1335
53.6600 -69.8128 1.1150
53.6800 -69.7994 1.1305
53.7000 -69.7861 1.1350
53.7200 -69.7727 1.1183
53.7400 -69.7593 1.1325
53.7600 -69.7460 1.1361
53.7800 -69.7327 1.1194
53.8000 -69.7194 1.1388
53.8200 -69.7060 1.1394
53.8400 -69.6927 1.1185
53.8600 -69.6794 1.1407
53.8800 -69.6661 1.1365
53.9000 -69.6528 1.1274
53.9200 -69.6394 1.1422
53.9400 -69.6261 1.1335
53.9600 -69.6128 1.1323
53.9800 -69.5994 1.1438
54.0000 -69.5861 1.1411
54.0200 -69.5728 1.1377
54.0400 -69.5594 1.1449
54.0600 -69.5461 1.1404
54.0800 -69.5327 1.1396
54.1000 -69.5194 1.1476
54.1200 -69.5060 1.1433
54.1400 -69.4927 1.1462
54.1600 -69.4794 1.1437
54.1800 -69.4660 1.1481
54.2000 -69.4527 1.1485
54.2200 -69.4394 1.1478
54.2400 -69.4261 1.1487
54.2600 -69.4128 1.1475
54.2800 -69.3994 1.1474
54.3000 -69.3861 1.1555
54.3200 -69.3728 1.1537
54.3400 -69.3595 1.1537
54.3600 -69.3461 1.1542
54.3800 -69.3327 1.1566
54.4000 -69.3194 1.1547
54.4200 -69.3061 1.1585
54.4400 -69.2927 1.1586
54.4600 -69.2794 1.1537
54.4800 -69.2661 1.1620
54.5000 -69.2528 1.1646
54.5200 -69.2394 1.1586
54.5400 -69.2261 1.1682
54.5600 -69.2127 1.1618
54.5800 -69.1994 1.1582
54.6000 -69.1860 1.1703
54.6200 -69.1727 1.1664
54.6400 -69.1593 1.1647
54.6600 -69.1460 1.1732
54.6800 -69.1328 1.1676
54.7000 -69.1195 1.1637
54.7200 -69.1061 1.1778
54.7400 -69.0928 1.1636
54.7600 -69.0795 1.1699
54.7800 -69.0662 1.1801
54.8000 -69.0528 1.1669
54.8200 -69.0394 1.1744
54.8400 -69.0260 1.1765
54.8600 -69.0127 1.1695
54.8800 -68.9994 1.1812
54.9000 -68.9860 1.1762
54.9200 -68.9727 1.1731
54.9400 -68.9594 1.1831
54.9600 -68.9461 1.1805
54.9800 -68.9328 1.1806
55.0000 -68.9194 1.1834
55.0200 -68.9061 1.1780
55.0400 -68.8928 1.1852
55.0600 -68.8795 1.1847
55.0800 -68.8661 1.1818
55.1000 -68.8528 1.1891
55.1200 -68.8395 1.1918
55.1400 -68.8261 1.1865
55.1600 -68.8127 1.1914
55.1800 -68.7994 1.1918
55.2000 -68.7860 1.1916
55.2200 -68.7727 1.1925
55.2400 -68.7594 1.1944
55.2600 -68.7460 1.1946
55.2800 -68.7327 1.1934
55.3000 -68.7194 1.1963
55.3200 -68.7061 1.2005
55.3400 -68.6928 1.1990
55.3600 -68.6794 1.1963
55.3800 -68.6661 1.2017
55.4000 -68.6528 1.1998
55.4200 -68.6395 1.2000
55.4400 -68.6261 1.2038
55.4600 -68.6128 1.2036
55.4800 -68.5994 1.2007
55.5000 -68.5861 1.2093
55.5200 -68.5727 1.2079
55.5400 -68.5594 1.2053
55.5600 -68.5460 1.2083
55.5800 -68.5327 1.2070
55.6000 -68.5194 1.2101
55.6200 -68.5061 1.2122
55.6400 -68.4927 1.2071
55.6600 -68.4794 1.2141
55.6800 -68.4660 1.2140
55.7000 -68.4527 1.2140
55.7200 -68.4394 1.2181
55.7400 -68.4261 1.2159
55.7600 -68.4128 1.2162
55.7800 -68.3995 1.2202
55.8000 -68.3862 1.2172
55.8200 -68.3728 1.2222
55.8400 -68.3594 1.2174
55.8600 -68.3461 1.2175
55.8800 -68.3327 1.2286
55.9000 -68.3194 1.2195
55.9200 -68.3060 1.2212
55.9400 -68.2927 1.2309
55.9600 -68.2794 1.2246
55.9800 -68.2660 1.2289
56.0000 -68.2527 1.2291
56.0200 -68.2394 1.2264
56.0400 -68.2261 1.2315
56.0600 -68.2128 1.2362
56.0800 -68.1994 1.2317
56.1000 -68.1861 1.2295
56.1200 -68.1727 1.2377
56.1400 -68.1594 1.2313
56.1600 -68.1461 1.2338
56.1800 -68.1328 1.2415
56.2000 -68.1195 1.2367
56.2200 -68.1061 1.2368
56.2400 -68.0928 1.2434
56.2600 -68.0794 1.2426
56.2800 -68.0660 1.2357
56.3000 -68.0527 1.2456
56.3200 -68.0394 1.2426
56.3400 -68.0260 1.2382
56.3600 -68.0127 1.2564
56.3800 -67.9994 1.2389
56.4000 -67.9860 1.2429
56.4200 -67.9727 1.2587
56.4400 -67.9594 1.2417
56.4600 -67.9461 1.2510
56.4800 -67.9328 1.2559
56.5000 -67.9194 1.2487
56.5200 -67.9061 1.2551
56.5400 -67.8928 1.2550
56.5600 -67.8795 1.2507
56.5800 -67.8661 1.2591
56.6000 -67.8528 1.2616
56.6200 -67.8394 1.2529
56.6400 -67.8261 1.2589
56.6600 -67.8128 1.2595
56.6800 -67.7994 1.2642
56.7000 -67.7861 1.2663
56.7200 -67.7727 1.2611
56.7400 -67.7594 1.2677
56.7600 -67.7460 1.2656
56.7800 -67.7327 1.2704
56.8000 -67.7194 1.2654
56.8200 -67.7061 1.2675
56.8400 -67.6928 1.2738
56.8600 -67.6795 1.2670
56.8800 -67.6662 1.2707
56.9000 -67.6528 1.2784
56.9200 -67.6395 1.2733
56.9400 -67.6261 1.2720
56.9600 -67.6128 1.2788
56.9800 -67.5994 1.2747
57.0000 -67.5860 1.2758
57.0200 -67.5726 1.2795
57.0400 -67.5593 1.2764
57.0600 -67.5460 1.2803
57.0800 -67.5327 1.2826
57.1000 -67.5194 1.2844
57.1200 -67.5061 1.2813
57.1400 -67.4928 1.2911
57.1600 -67.4795 1.2859
57.1800 -67.4661 1.2784
57.2000 -67.4528 1.2940
57.2200 -67.4395 1.2887
57.2400 -67.4261 1.2837
57.2600 -67.4127 1.3016
57.2800 -67.3994 1.2834
57.3000 -67.3861 1.2910
57.3200 -67.3727 1.3034
57.3400 -67.3593 1.2874
57.3600 -67.3460 1.2931
57.3800 -67.3327 1.3032
57.4000 -67.3194 1.2922
57.4200 -67.3060 1.3022
57.4400 -67.2927 1.3060
57.4600 -67.2794 1.2936
57.4800 -67.2661 1.3019
57.5000 -67.2528 1.3037
57.5200 -67.2394 1.2968
57.5400 -67.2261 1.3078
57.5600 -67.2128 1.3041
57.5800 -67.1995 1.3057
57.6000 -67.1861 1.3124
57.6200 -67.1728 1.3088
57.6400 -67.1594 1.3049
57.6600 -67.1461 1.3166
57.6800 -67.1328 1.3111
57.7000 -67.1194 1.3106
57.7200 -67.1060 1.3188
57.7400 -67.0927 1.3076
57.7600 -67.0794 1.3150
57.7800 -67.0660 1.3215
57.8000 -67.0527 1.3166
57.8200 -67.0393 1.3188
57.8400 -67.0260 1.3185
57.8600 -67.0127 1.3217
57.8800 -66.9994 1.3218
57.9000 -66.9861 1.3201
57.9200 -66.9728 1.3249
57.9400 -66.9595 1.3237
57.9600 -66.9462 1.3249
57.9800 -66.9328 1.3287
58.0000 -66.9194 1.3288
58.0200 -66.9061 1.3281
58.0400 -66.8928 1.3315
58.0600 -66.8794 1.3309
58.0800 -66.8660 1.3329
58.1000 -66.8527 1.3333
58.1200 -66.8394 1.3330
58.1400 -66.8260 1.3365
58.1600 -66.8127 1.3350
58.1800 -66.7994 1.3358
58.2000 -66.7861 1.3449
58.2200 -66.7728 1.3407
58.2400 -66.7594 1.3378
58.2600 -66.7461 1.3451
58.2800 -66.7327 1.3437
58.3000 -66.7194 1.3430
58.3200 -66.7061 1.3502
58.3400 -66.6928 1.3482
58.3600 -66.6794 1.3451
58.3800 -66.6661 1.3494
58.4000 -66.6528 1.3517
58.4200 -66.6394 1.3516
58.4400 -66.6260 1.3554
58.4600 -66.6127 1.3569
58.4800 -66.5994 1.3530
58.5000 -66.5861 1.3583
58.5200 -66.5727 1.3606
58.5400 -66.5593 1.3545
58.5600 -66.5460 1.3593
58.5800 -66.5328 1.3606
58.6000 -66.5194 1.3587
58.6200 -66.5061 1.3647
58.6400 -66.4928 1.3667
58.6600 -66.4795 1.3662
58.6800 -66.4661 1.3665
58.7000 -66.4528 1.3682
58.7200 -66.4394 1.3649
58.7400 -66.4261 1.3656
58.7600 -66.4127 1.3755
58.7800 -66.3994 1.3703
58.8000 -66.3860 1.3707
58.8200 -66.3727 1.3777
58.8400 -66.3594 1.3685
58.8600 -66.3460 1.3797
58.8800 -66.3327 1.3764
58.9000 -66.3193 1.3773
58.9200 -66.3060 1.3757
58.9400 -66.2928 1.3824
58.9600 -66.2795 1.3813
58.9800 -66.2661 1.3819
59.0000 -66.2528 1.3880
59.0200 -66.2395 1.3840
59.0400 -66.2261 1.3834
59.0600 -66.2128 1.3907
59.0800 -66.1994 1.3873
59.1000 -66.1861 1.3882
59.1200 -66.1728 1.3895
59.1400 -66.1594 1.3899
59.1600 -66.1460 1.3914
59.1800 -66.1327 1.3943
59.2000 -66.1194 1.3919
59.2200 -66.1060 1.3972
59.2400 -66.0927 1.3992
59.2600 -66.0794 1.3925
59.2800 -66.0661 1.4007
59.3000 -66.0528 1.3999
59.3200 -66.0395 1.4020
59.3400 -66.0261 1.4077
59.3600 -66.0128 1.4005
59.3800 -65.9995 1.4079
59.4000 -65.9861 1.4102
59.4200 -65.9728 1.4027
59.4400 -65.9594 1.4157
59.4600 -65.9461 1.4080
59.4800 -65.9327 1.4037
59.5000 -65.9194 1.4193
59.5200 -65.9060 1.4129
59.5400 -65.8927 1.4116
59.5600 -65.8794 1.4262
59.5800 -65.8661 1.4098
59.6000 -65.8528 1.4168
59.6200 -65.8394 1.4255
59.6400 -65.8260 1.4212
59.6600 -65.8127 1.4199
59.6800 -65.7994 1.4317
59.7000 -65.7860 1.4225
59.7200 -65.7727 1.4235
59.7400 -65.7594 1.4340
59.7600 -65.7461 1.4292
59.7800 -65.7328 1.4308
59.8000 -65.7194 1.4331
59.8200 -65.7061 1.4314
59.8400 -65.6928 1.4360
59.8600 -65.6794 1.4350
59.8800 -65.6661 1.4351
59.9000 -65.6527 1.4359
59.9200 -65.6394 1.4408
59.9400 -65.6261 1.4417
59.9600 -65.6127 1.4394
59.9800 -65.5993 1.4444
60.0000 -65.5860 1.4413
60.0200 -65.5727 1.4468
60.0400 -65.5594 1.4493
60.0600 -65.5460 1.4463
60.0800 -65.5327 1.4498
60.1000 -65.5194 1.4524
60.1200 -65.5061 1.4474
60.1400 -65.4928 1.4541
60.1600 -65.4794 1.4551
60.1800 -65.4661 1.4600
60.2000 -65.4528 1.4569
60.2200 -65.4394 1.4589
60.2400 -65.4260 1.4630
60.2600 -65.4127 1.4609
60.2800 -65.3994 1.4599
60.3000 -65.3860 1.4688
60.3200 -65.3727 1.4623
60.3400 -65.3594 1.4637
60.3600 -65.3461 1.4726
60.3800 -65.3328 1.4657
60.4000 -65.3195 1.4692
60.4200 -65.3061 1.4760
60.4400 -65.2927 1.4637
60.4600 -65.2794 1.4768
60.4800 -65.2661 1.4811
60.5000 -65.2528 1.4686
60.5200 -65.2394 1.4779
60.5400 -65.2261 1.4836
60.5600 -65.2127 1.4686
60.5800 -65.1994 1.4895
60.6000 -65.1861 1.4859
60.6200 -65.1727 1.4706
60.6400 -65.1594 1.4943
60.6600 -65.1460 1.4876
60.6800 -65.1327 1.4784
60.7000 -65.1193 1.4945
60.7200 -65.1060 1.4890
60.7400 -65.0927 1.4859
60.7600 -65.0794 1.4958
60.7800 -65.0661 1.4927
60.8000 -65.0528 1.4911
60.8200 -65.0395 1.5028
60.8400 -65.0262 1.4970
60.8600 -65.0128 1.4956
60.8800 -64.9995 1.5061
60.9000 -64.9861 1.5004
60.9200 -64.9728 1.5009
60.9400 -64.9594 1.5066
60.9600 -64.9460 1.5048
60.9800 -64.9327 1.4990
61.0000 -64.9194 1.5143
61.0200 -64.9061 1.5089
61.0400 -64.8927 1.5071
61.0600 -64.8793 1.5174
61.0800 -64.8660 1.5127
61.1000 -64.8527 1.5146
61.1200 -64.8394 1.5223
61.1400 -64.8261 1.5145
61.1600 -64.8127 1.5170
61.1800 -64.7994 1.5231
61.2000 -64.7861 1.5244
61.2200 -64.7728 1.5246
61.2400 -64.7594 1.5259
61.2600 -64.7461 1.5209
61.2800 -64.7328 1.5298
61.3000 -64.7194 1.5290
61.3200 -64.7060 1.5288
61.3400 -64.6927 1.5309
61.3600 -64.6794 1.5330
61.3800 -64.6660 1.5343
61.4000 -64.6527 1.5351
61.4200 -64.6393 1.5367
61.4400 -64.6260 1.5394
61.4600 -64.6127 1.5382
61.4800 -64.5994 1.5422
61.5000 -64.5861 1.5453
61.5200 -64.5728 1.5409
61.5400 -64.5594 1.5426
61.5600 -64.5461 1.5532
61.5800 -64.5328 1.5417
61.6000 -64.5194 1.5488
61.6200 -64.5061 1.5560
61.6400 -64.4928 1.5460
61.6600 -64.4794 1.5567
61.6800 -64.4661 1.5542
61.7000 -64.4527 1.5507
61.7200 -64.4394 1.5621
61.7400 -64.4261 1.5576
61.7600 -64.4127 1.5558
61.7800 -64.3994 1.5667
61.8000 -64.3860 1.5553
61.8200 -64.3727 1.5639
61.8400 -64.3594 1.5710
61.8600 -64.3460 1.5631
61.8800 -64.3327 1.5648
61.9000 -64.3194 1.5759
61.9200 -64.3061 1.5650
61.9400 -64.2928 1.5732
61.9600 -64.2795 1.5757
61.9800 -64.2662 1.5679
62.0000 -64.2529 1.5809
62.0200 -64.2395 1.5824
62.0400 -64.2261 1.5723
62.0600 -64.2127 1.5872
62.0800 -64.1993 1.5820
62.1000 -64.1860 1.5745
62.1200 -64.1727 1.5931
62.1400 -64.1593 1.5863
62.1600 -64.1460 1.5790
62.1800 -64.1327 1.5972
62.2000 -64.1194 1.5870
62.2200 -64.1061 1.5874
62.2400 -64.0927 1.5989
62.2600 -64.0794 1.5919
62.2800 -64.0661 1.5972
62.3000 -64.0528 1.6025
62.3200 -64.0395 1.5947
62.3400 -64.0261 1.6025
62.3600 -64.0128 1.6048
62.3800 -63.9994 1.6009
62.4000 -63.9861 1.6025
62.4200 -63.9727 1.6108
62.4400 -63.9593 1.6087
62.4600 -63.9460 1.6079
62.4800 -63.9327 1.6140
62.5000 -63.9193 1.6110
62.5200 -63.9060 1.6114
62.5400 -63.8927 1.6180
62.5600 -63.8794 1.6188
62.5800 -63.8661 1.6185
62.6000 -63.8527 1.6199
62.6200 -63.8394 1.6180
62.6400 -63.8261 1.6271
62.6600 -63.8128 1.6287
62.6800 -63.7994 1.6237
62.7000 -63.7861 1.6252
62.7200 -63.7728 1.6327
62.7400 -63.7594 1.6263
62.7600 -63.7461 1.6302
62.7800 -63.7327 1.6385
62.8000 -63.7194 1.6315
62.8200 -63.7061 1.6360
62.8400 -63.6927 1.6415
62.8600 -63.6794 1.6372
62.8800 -63.6660 1.6424
62.9000 -63.6527 1.6426
62.9200 -63.6394 1.6449
62.9400 -63.6261 1.6443
62.9600 -63.6127 1.6427
62.9800 -63.5994 1.6481
63.0000 -63.5861 1.6487
63.0200 -63.5728 1.6505
63.0400 -63.5595 1.6511
63.0600 -63.5461 1.6524
63.0800 -63.5328 1.6548
63.1000 -63.5194 1.6566
63.1200 -63.5061 1.6561
63.1400 -63.4927 1.6662
63.1600 -63.4793 1.6600
63.1800 -63.4660 1.6576
63.2000 -63.4527 1.6682
63.2200 -63.4394 1.6636
63.2400 -63.4260 1.6670
63.2600 -63.4127 1.6749
63.2800 -63.3994 1.6649
63.3000 -63.3861 1.6679
63.3200 -63.3727 1.6790
63.3400 -63.3594 1.6705
63.3600 -63.3461 1.6738
63.3800 -63.3328 1.6858
63.4000 -63.3195 1.6736
63.4200 -63.3061 1.6801
63.4400 -63.2928 1.6893
63.4600 -63.2794 1.6824
63.4800 -63.2661 1.6858
63.5000 -63.2527 1.6903
63.5200 -63.2393 1.6819
63.5400 -63.2260 1.6929
63.5600 -63.2127 1.6951
63.5800 -63.1993 1.6930
63.6000 -63.1860 1.6907
63.6200 -63.1727 1.7051
63.6400 -63.1594 1.6937
63.6600 -63.1461 1.6987
63.6800 -63.1327 1.7107
63.7000 -63.1194 1.6958
63.7200 -63.1061 1.7024
63.7400 -63.0928 1.7139
63.7600 -63.0795 1.7018
63.7800 -63.0661 1.7119
63.8000 -63.0528 1.7166
63.8200 -63.0394 1.7105
63.8400 -63.0261 1.7173
63.8600 -63.0127 1.7239
63.8800 -62.9994 1.7117
63.9000 -62.9861 1.7241
63.9200 -62.9727 1.7257
63.9400 -62.9594 1.7170
63.9600 -62.9460 1.7274
63.9800 -62.9327 1.7268
64.0000 -62.9194 1.7298
64.0200 -62.9061 1.7296
64.0400 -62.8927 1.7296
64.0600 -62.8794 1.7332
64.0800 -62.8661 1.7384
64.1000 -62.8528 1.7372
64.1200 -62.8395 1.7329
64.1400 -62.8261 1.7408
64.1600 -62.8128 1.7410
64.1800 -62.7994 1.7411
64.2000 -62.7861 1.7460
64.2200 -62.7727 1.7472
64.2400 -62.7593 1.7442
64.2600 -62.7460 1.7506
64.2800 -62.7327 1.7516
64.3000 -62.7193 1.7471
64.3200 -62.7060 1.7601
64.3400 -62.6927 1.7537
64.3600 -62.6794 1.7565
64.3800 -62.6661 1.7615
64.4000 -62.6528 1.7625
64.4200 -62.6395 1.7651
64.4400 -62.6262 1.7612
64.4600 -62.6128 1.7665
64.4800 -62.5994 1.7710
64.5000 -62.5860 1.7671
64.5200 -62.5727 1.7701
64.5400 -62.5594 1.7744
64.5600 -62.5460 1.7769
64.5800 -62.5327 1.7697
64.6000 -62.5193 1.7799
64.6200 -62.5060 1.7766
64.6400 -62.4927 1.7764
64.6600 -62.4794 1.7862
64.6800 -62.4660 1.7798
64.7000 -62.4527 1.7837
64.7200 -62.4394 1.7930
64.7400 -62.4261 1.7850
64.7600 -62.4128 1.7883
64.7800 -62.3994 1.7960
64.8000 -62.3861 1.7874
64.8200 -62.3728 1.7989
64.8400 -62.3595 1.7969
64.8600 -62.3461 1.7937
64.8800 -62.3328 1.8084
64.9000 -62.3194 1.8013
64.9200 -62.3061 1.8015
64.9400 -62.2927 1.8112
64.9600 -62.2794 1.8076
64.9800 -62.2660 1.8025
65.0000 -62.2527 1.8175
65.0200 -62.2394 1.8116
65.0400 -62.2260 1.8054
65.0600 -62.2127 1.8242
65.0800 -62.1994 1.8173
65.1000 -62.1861 1.8169
65.1200 -62.1727 1.8275
65.1400 -62.1594 1.8199
65.1600 -62.1461 1.8204
65.1800 -62.1328 1.8334
65.2000 -62.1195 1.8257
65.2200 -62.1061 1.8239
65.2400 -62.0928 1.8331
65.2600 -62.0794 1.8300
65.2800 -62.0661 1.8325
65.3000 -62.0527 1.8401
65.3200 -62.0393 1.8346
65.3400 -62.0260 1.8398
65.3600 -62.0127 1.8438
65.3800 -61.9993 1.8411
65.4000 -61.9860 1.8470
65.4200 -61.9727 1.8487
65.4400 -61.9594 1.8485
65.4600 -61.9461 1.8518
65.4800 -61.9327 1.8548
65.5000 -61.9194 1.8542
65.5200 -61.9061 1.8554
65.5400 -61.8928 1.8615
65.5600 -61.8795 1.8623
65.5800 -61.8661 1.8598
65.6000 -61.8527 1.8639
65.6200 -61.8394 1.8668
65.6400 -61.8261 1.8657
65.6600 -61.8127 1.8709
65.6800 -61.7994 1.8697
65.7000 -61.7861 1.8663
65.7200 -61.7727 1.8783
65.7400 -61.7594 1.8752
65.7600 -61.7460 1.8713
65.7800 -61.7327 1.8824
65.8000 -61.7194 1.8810
65.8200 -61.7061 1.8806
65.8400 -61.6927 1.8860
65.8600 -61.6794 1.8814
65.8800 -61.6661 1.8818
65.9000 -61.6528 1.8912
65.9200 -61.6395 1.8910
65.9400 -61.6261 1.8890
65.9600 -61.6128 1.8982
65.9800 -61.5994 1.8977
66.0000 -61.5861 1.8952
66.0180 -61.5740 1.8995
