Raw Data
Time Displacement Force
(s) (mm) (N)
0.0000 0.0000 -0.0833
0.0200 0.0001 -0.0741
0.0400 0.0022 -0.0229
0.0600 0.0100 -0.0048
0.0800 0.0219 -0.0938
0.1000 0.0344 -0.1052
0.1200 0.0471 -0.0488
0.1400 0.0606 -0.0828
0.1600 0.0746 -0.0931
0.1800 0.0888 -0.0766
0.2000 0.1027 -0.0904
0.2200 0.1163 -0.0872
0.2400 0.1296 -0.0789
0.2600 0.1429 -0.0890
0.2800 0.1563 -0.0740
0.3000 0.1696 -0.0805
0.3200 0.1830 -0.0885
0.3400 0.1964 -0.0717
0.3600 0.2097 -0.0872
0.3800 0.2230 -0.0819
0.4000 0.2364 -0.0807
0.4200 0.2497 -0.0865
0.4400 0.2630 -0.0741
0.4600 0.2763 -0.0850
0.4800 0.2897 -0.0829
0.5000 0.3030 -0.0764
0.5200 0.3163 -0.0857
0.5400 0.3297 -0.0830
0.5600 0.3430 -0.0764
0.5800 0.3564 -0.0872
0.6000 0.3697 -0.0884
0.6200 0.3830 -0.0775
0.6400 0.3964 -0.0889
0.6600 0.4098 -0.0891
0.6800 0.4231 -0.0788
0.7000 0.4364 -0.0916
0.7200 0.4497 -0.0811
0.7400 0.4631 -0.0865
0.7600 0.4764 -0.0928
0.7800 0.4898 -0.0761
0.8000 0.5031 -0.0841
0.8200 0.5164 -0.0972
0.8400 0.5297 -0.0825
0.8600 0.5431 -0.0829
0.8800 0.5564 -0.0953
0.9000 0.5696 -0.0828
0.9200 0.5830 -0.0860
0.9400 0.5963 -0.0973
0.9600 0.6097 -0.0845
0.9800 0.6230 -0.0820
1.0000 0.6363 -0.0931
1.0200 0.6497 -0.0836
1.0400 0.6631 -0.0904
1.0600 0.6764 -0.0966
1.0800 0.6897 -0.0867
1.1000 0.7031 -0.0873
1.1200 0.7164 -0.0933
1.1400 0.7297 -0.0930
1.1600 0.7430 -0.0889
1.1800 0.7564 -0.0865
1.2000 0.7697 -0.0937
1.2200 0.7830 -0.0910
1.2400 0.7964 -0.0898
1.2600 0.8097 -0.0923
1.2800 0.8230 -0.0909
1.3000 0.8364 -0.0919
1.3200 0.8497 -0.0999
1.3400 0.8630 -0.0859
1.3600 0.8763 -0.0925
1.3800 0.8897 -0.1028
1.4000 0.9031 -0.0925
1.4200 0.9164 -0.0943
1.4400 0.9297 -0.0977
1.4600 0.9431 -0.0945
1.4800 0.9564 -0.1070
1.5000 0.9698 -0.0968
1.5200 0.9831 -0.0980
1.5400 0.9964 -0.1130
1.5600 1.0097 -0.0970
1.5800 1.0230 -0.0947
1.6000 1.0363 -0.1136
1.6200 1.0496 -0.0981
1.6400 1.0630 -0.0974
1.6600 1.0763 -0.1095
1.6800 1.0897 -0.1035
1.7000 1.1030 -0.1038
1.7200 1.1164 -0.1060
1.7400 1.1298 -0.1015
1.7600 1.1431 -0.1081
1.7800 1.1565 -0.1128
1.8000 1.1698 -0.0988
1.8200 1.1831 -0.1081
1.8400 1.1964 -0.1077
1.8600 1.2098 -0.1065
1.8800 1.2231 -0.1129
1.9000 1.2364 -0.1094
1.9200 1.2497 -0.1082
1.9400 1.2631 -0.1132
1.9600 1.2764 -0.1067
1.9800 1.2897 -0.1087
2.0000 1.3030 -0.1176
2.0200 1.3163 -0.1070
2.0400 1.3297 -0.1100
2.0600 1.3430 -0.1182
2.0800 1.3564 -0.1058
2.1000 1.3697 -0.1121
2.1200 1.3831 -0.1138
2.1400 1.3965 -0.1134
2.1600 1.4098 -0.1135
2.1800 1.4231 -0.1096
2.2000 1.4364 -0.1140
2.2200 1.4497 -0.1204
2.2400 1.4630 -0.1116
2.2600 1.4763 -0.1105
2.2800 1.4896 -0.1206
2.3000 1.5030 -0.1160
2.3200 1.5163 -0.1146
2.3400 1.5297 -0.1217
2.3600 1.5430 -0.1105
2.3800 1.5564 -0.1167
2.4000 1.5697 -0.1198
2.4200 1.5831 -0.1118
2.4400 1.5964 -0.1162
2.4600 1.6097 -0.1235
2.4800 1.6231 -0.1142
2.5000 1.6364 -0.1165
2.5200 1.6497 -0.1180
2.5400 1.6630 -0.1151
2.5600 1.6764 -0.1213
2.5800 1.6898 -0.1194
2.6000 1.7031 -0.1119
2.6200 1.7164 -0.1236
2.6400 1.7297 -0.1197
2.6600 1.7431 -0.1121
2.6800 1.7564 -0.1196
2.7000 1.7697 -0.1184
2.7200 1.7830 -0.1173
2.7400 1.7964 -0.1218
2.7600 1.8097 -0.1233
2.7800 1.8230 -0.1175
2.8000 1.8363 -0.1214
2.8200 1.8497 -0.1207
2.8400 1.8631 -0.1245
2.8600 1.8764 -0.1243
2.8800 1.8897 -0.1175
2.9000 1.9031 -0.1241
2.9200 1.9164 -0.1268
2.9400 1.9298 -0.1157
2.9600 1.9431 -0.1259
2.9800 1.9564 -0.1296
3.0000 1.9697 -0.1164
3.0200 1.9831 -0.1260
3.0400 1.9964 -0.1324
3.0600 2.0097 -0.1213
3.0800 2.0230 -0.1290
3.1000 2.0363 -0.1264
3.1200 2.0497 -0.1175
3.1400 2.0630 -0.1348
3.1600 2.0764 -0.1354
3.1800 2.0897 -0.1079
3.2000 2.1031 -0.1354
3.2200 2.1165 -0.1343
3.2400 2.1298 -0.1176
3.2600 2.1431 -0.1337
3.2800 2.1564 -0.1328
3.3000 2.1698 -0.1229
3.3200 2.1831 -0.1281
3.3400 2.1964 -0.1258
3.3600 2.2097 -0.1312
3.3800 2.2230 -0.1325
3.4000 2.2364 -0.1258
3.4200 2.2497 -0.1268
3.4400 2.2630 -0.1320
3.4600 2.2764 -0.1288
3.4800 2.2897 -0.1290
3.5000 2.3030 -0.1300
3.5200 2.3164 -0.1310
3.5400 2.3297 -0.1296
3.5600 2.3431 -0.1310
3.5800 2.3564 -0.1354
3.6000 2.3698 -0.1324
3.6200 2.3831 -0.1352
3.6400 2.3964 -0.1303
3.6600 2.4098 -0.1289
3.6800 2.4231 -0.1363
3.7000 2.4364 -0.1338
3.7200 2.4497 -0.1302
3.7400 2.4631 -0.1354
3.7600 2.4764 -0.1371
3.7800 2.4897 -0.1258
3.8000 2.5030 -0.1399
3.8200 2.5163 -0.1336
3.8400 2.5297 -0.1289
3.8600 2.5430 -0.1441
3.8800 2.5563 -0.1299
3.9000 2.5697 -0.1250
3.9200 2.5831 -0.1446
3.9400 2.5965 -0.1415
3.9600 2.6098 -0.1278
3.9800 2.6231 -0.1422
4.0000 2.6364 -0.1322
4.0200 2.6497 -0.1330
4.0400 2.6631 -0.1469
4.0600 2.6764 -0.1354
4.0800 2.6897 -0.1347
4.1000 2.7030 -0.1491
4.1200 2.7164 -0.1287
4.1400 2.7297 -0.1338
4.1600 2.7430 -0.1524
4.1800 2.7563 -0.1328
4.2000 2.7697 -0.1362
4.2200 2.7830 -0.1485
4.2400 2.7963 -0.1343
4.2600 2.8097 -0.1437
4.2800 2.8231 -0.1520
4.3000 2.8364 -0.1287
4.3200 2.8498 -0.1476
4.3400 2.8631 -0.1542
4.3600 2.8764 -0.1286
4.3800 2.8898 -0.1489
4.4000 2.9031 -0.1520
4.4200 2.9164 -0.1327
4.4400 2.9297 -0.1502
4.4600 2.9430 -0.1438
4.4800 2.9564 -0.1371
4.5000 2.9697 -0.1524
4.5200 2.9830 -0.1447
4.5400 2.9963 -0.1352
4.5600 3.0097 -0.1494
4.5800 3.0230 -0.1447
4.6000 3.0364 -0.1326
4.6200 3.0497 -0.1502
4.6400 3.0630 -0.1470
4.6600 3.0764 -0.1325
4.6800 3.0897 -0.1452
4.7000 3.1030 -0.1492
4.7200 3.1164 -0.1392
4.7400 3.1297 -0.1436
4.7600 3.1431 -0.1494
4.7800 3.1564 -0.1395
4.8000 3.1698 -0.1450
4.8200 3.1831 -0.1520
4.8400 3.1965 -0.1431
4.8600 3.2097 -0.1446
4.8800 3.2230 -0.1518
4.9000 3.2363 -0.1374
4.9200 3.2496 -0.1432
4.9400 3.2630 -0.1530
4.9600 3.2763 -0.1390
4.9800 3.2897 -0.1467
5.0000 3.3031 -0.1532
5.0200 3.3165 -0.1457
5.0400 3.3298 -0.1462
5.0600 3.3431 -0.1536
5.0800 3.3565 -0.1419
5.1000 3.3698 -0.1394
5.1200 3.3831 -0.1586
5.1400 3.3964 -0.1457
5.1600 3.4097 -0.1398
5.1800 3.4230 -0.1567
5.2000 3.4364 -0.1453
5.2200 3.4497 -0.1448
5.2400 3.4630 -0.1592
5.2600 3.4763 -0.1483
5.2800 3.4897 -0.1453
5.3000 3.5030 -0.1626
5.3200 3.5164 -0.1459
5.3400 3.5297 -0.1439
5.3600 3.5431 -0.1627
5.3800 3.5564 -0.1451
5.4000 3.5698 -0.1471
5.4200 3.5831 -0.1592
5.4400 3.5964 -0.1425
5.4600 3.6098 -0.1533
5.4800 3.6231 -0.1584
5.5000 3.6364 -0.1418
5.5200 3.6497 -0.1567
5.5400 3.6630 -0.1566
5.5600 3.6764 -0.1481
5.5800 3.6897 -0.1543
5.6000 3.7030 -0.1528
5.6200 3.7163 -0.1540
5.6400 3.7297 -0.1545
5.6600 3.7431 -0.1566
5.6800 3.7564 -0.1553
5.7000 3.7697 -0.1538
5.7200 3.7831 -0.1541
5.7400 3.7964 -0.1569
5.7600 3.8098 -0.1574
5.7800 3.8231 -0.1591
5.8000 3.8364 -0.1579
5.8200 3.8498 -0.1478
5.8400 3.8631 -0.1610
5.8600 3.8764 -0.1619
5.8800 3.8897 -0.1512
5.9000 3.9031 -0.1610
5.9200 3.9164 -0.1609
5.9400 3.9297 -0.1586
5.9600 3.9430 -0.1569
5.9800 3.9563 -0.1524
6.0000 3.9697 -0.1666
6.0200 3.9830 -0.1572
6.0400 3.9963 -0.1487
6.0600 4.0097 -0.1620
6.0800 4.0231 -0.1613
6.1000 4.0365 -0.1521
6.1200 4.0498 -0.1624
6.1400 4.0631 -0.1609
6.1600 4.0764 -0.1589
6.1800 4.0898 -0.1616
6.2000 4.1031 -0.1521
6.2200 4.1164 -0.1600
6.2400 4.1297 -0.1625
6.2600 4.1430 -0.1555
6.2800 4.1564 -0.1586
6.3000 4.1697 -0.1619
6.3200 4.1830 -0.1633
6.3400 4.1963 -0.1539
6.3600 4.2097 -0.1590
6.3800 4.2230 -0.1662
6.4000 4.2363 -0.1577
6.4200 4.2497 -0.1574
6.4400 4.2631 -0.1615
6.4600 4.2764 -0.1677
6.4800 4.2898 -0.1632
6.5000 4.3031 -0.1604
6.5200 4.3164 -0.1622
6.5400 4.3298 -0.1625
6.5600 4.3431 -0.1649
6.5800 4.3564 -0.1616
6.6000 4.3697 -0.1640
6.6200 4.3830 -0.1624
6.6400 4.3964 -0.1659
6.6600 4.4097 -0.1659
6.6800 4.4230 -0.1620
6.7000 4.4363 -0.1696
6.7200 4.4497 -0.1580
6.7400 4.4630 -0.1662
6.7600 4.4763 -0.1645
6.7800 4.4897 -0.1599
6.8000 4.5030 -0.1664
6.8200 4.5164 -0.1648
6.8400 4.5297 -0.1677
6.8600 4.5430 -0.1662
6.8800 4.5564 -0.1649
6.9000 4.5697 -0.1665
6.9200 4.5831 -0.1678
6.9400 4.5964 -0.1625
6.9600 4.6097 -0.1667
6.9800 4.6230 -0.1742
7.0000 4.6364 -0.1622
7.0200 4.6497 -0.1682
7.0400 4.6630 -0.1715
7.0600 4.6763 -0.1639
7.0800 4.6896 -0.1703
7.1000 4.7030 -0.1720
7.1200 4.7163 -0.1667
7.1400 4.7297 -0.1687
7.1600 4.7431 -0.1716
7.1800 4.7565 -0.1733
7.2000 4.7698 -0.1733
7.2200 4.7831 -0.1700
7.2400 4.7965 -0.1666
7.2600 4.8098 -0.1718
7.2800 4.8231 -0.1712
7.3000 4.8364 -0.1707
7.3200 4.8497 -0.1691
7.3400 4.8630 -0.1661
7.3600 4.8763 -0.1713
7.3800 4.8897 -0.1711
7.4000 4.9030 -0.1711
7.4200 4.9164 -0.1675
7.4400 4.9297 -0.1695
7.4600 4.9431 -0.1646
7.4800 4.9564 -0.1693
7.5000 4.9697 -0.1713
7.5200 4.9831 -0.1661
7.5400 4.9965 -0.1719
7.5600 5.0098 -0.1723
7.5800 5.0231 -0.1651
7.6000 5.0364 -0.1720
7.6200 5.0498 -0.1681
7.6400 5.0631 -0.1643
7.6600 5.0764 -0.1727
7.6800 5.0897 -0.1699
7.7000 5.1030 -0.1619
7.7200 5.1164 -0.1770
7.7400 5.1297 -0.1743
7.7600 5.1430 -0.1673
7.7800 5.1563 -0.1723
7.8000 5.1697 -0.1624
7.8200 5.1830 -0.1706
7.8400 5.1964 -0.1769
7.8600 5.2097 -0.1660
7.8800 5.2231 -0.1673
7.9000 5.2364 -0.1726
7.9200 5.2498 -0.1711
7.9400 5.2631 -0.1666
7.9600 5.2764 -0.1790
7.9800 5.2898 -0.1704
8.0000 5.3031 -0.1647
8.0200 5.3164 -0.1711
8.0400 5.3297 -0.1699
8.0600 5.3430 -0.1682
8.0800 5.3564 -0.1754
8.1000 5.3697 -0.1704
8.1200 5.3830 -0.1638
8.1400 5.3963 -0.1776
8.1600 5.4097 -0.1688
8.1800 5.4230 -0.1701
8.2000 5.4364 -0.1784
8.2200 5.4497 -0.1750
8.2400 5.4630 -0.1694
8.2600 5.4764 -0.1741
8.2800 5.4898 -0.1746
8.3000 5.5031 -0.1685
8.3200 5.5164 -0.1738
8.3400 5.5297 -0.1726
8.3600 5.5431 -0.1699
8.3800 5.5564 -0.1782
8.4000 5.5697 -0.1756
8.4200 5.5830 -0.1724
8.4400 5.5964 -0.1761
8.4600 5.6097 -0.1789
8.4800 5.6230 -0.1738
8.5000 5.6363 -0.1790
8.5200 5.6497 -0.1782
8.5400 5.6630 -0.1749
8.5600 5.6764 -0.1793
8.5800 5.6897 -0.1792
8.6000 5.7030 -0.1723
8.6200 5.7164 -0.1765
8.6400 5.7298 -0.1796
8.6600 5.7431 -0.1780
8.6800 5.7564 -0.1786
8.7000 5.7698 -0.1823
8.7200 5.7831 -0.1751
8.7400 5.7965 -0.1745
8.7600 5.8097 -0.1843
8.7800 5.8230 -0.1728
8.8000 5.8364 -0.1765
8.8200 5.8497 -0.1839
8.8400 5.8630 -0.1737
8.8600 5.8763 -0.1777
8.8800 5.8897 -0.1846
8.9000 5.9030 -0.1758
8.9200 5.9164 -0.1788
8.9400 5.9297 -0.1862
8.9600 5.9431 -0.1716
8.9800 5.9564 -0.1761
9.0000 5.9698 -0.1897
9.0200 5.9831 -0.1746
9.0400 5.9964 -0.1784
9.0600 6.0097 -0.1867
9.0800 6.0231 -0.1738
9.1000 6.0364 -0.1799
9.1200 6.0497 -0.1826
9.1400 6.0630 -0.1776
9.1600 6.0763 -0.1787
9.1800 6.0897 -0.1845
9.2000 6.1030 -0.1774
9.2200 6.1163 -0.1792
9.2400 6.1296 -0.1818
9.2600 6.1430 -0.1751
9.2800 6.1563 -0.1840
9.3000 6.1697 -0.1814
9.3200 6.1830 -0.1757
9.3400 6.1964 -0.1856
9.3600 6.2098 -0.1879
9.3800 6.2231 -0.1821
9.4000 6.2364 -0.1834
9.4200 6.2498 -0.1848
9.4400 6.2631 -0.1813
9.4600 6.2764 -0.1832
9.4800 6.2897 -0.1907
9.5000 6.3030 -0.1834
9.5200 6.3163 -0.1819
9.5400 6.3297 -0.1888
9.5600 6.3430 -0.1806
9.5800 6.3563 -0.1867
9.6000 6.3697 -0.1910
9.6200 6.3831 -0.1782
9.6400 6.3964 -0.1868
9.6600 6.4097 -0.1935
9.6800 6.4231 -0.1820
9.7000 6.4364 -0.1869
9.7200 6.4498 -0.1911
9.7400 6.4631 -0.1802
9.7600 6.4764 -0.1863
9.7800 6.4897 -0.1945
9.8000 6.5031 -0.1827
9.8200 6.5164 -0.1915
9.8400 6.5297 -0.1918
9.8600 6.5431 -0.1819
9.8800 6.5564 -0.1900
9.9000 6.5698 -0.1946
9.9200 6.5831 -0.1795
9.9400 6.5963 -0.1909
9.9600 6.6097 -0.1912
9.9800 6.6230 -0.1837
10.0000 6.6364 -0.1935
10.0200 6.6497 -0.1886
10.0400 6.6630 -0.1799
10.0600 6.6764 -0.1926
10.0800 6.6897 -0.1908
10.1000 6.7031 -0.1797
10.1200 6.7164 -0.1902
10.1400 6.7297 -0.1908
10.1600 6.7431 -0.1851
10.1800 6.7565 -0.1906
10.2000 6.7698 -0.1876
10.2200 6.7831 -0.1881
10.2400 6.7964 -0.1874
10.2600 6.8097 -0.1817
10.2800 6.8231 -0.1895
10.3000 6.8364 -0.1925
10.3200 6.8497 -0.1818
10.3400 6.8630 -0.1945
10.3600 6.8763 -0.1865
10.3800 6.8897 -0.1878
10.4000 6.9030 -0.1931
10.4200 6.9164 -0.1811
10.4400 6.9298 -0.1947
10.4600 6.9431 -0.1906
10.4800 6.9564 -0.1843
10.5000 6.9697 -0.1910
10.5200 6.9831 -0.1899
10.5400 6.9964 -0.1868
10.5600 7.0097 -0.1898
10.5800 7.0230 -0.1885
10.6000 7.0364 -0.1891
10.6200 7.0497 -0.1954
10.6400 7.0630 -0.1870
10.6600 7.0763 -0.1895
10.6800 7.0897 -0.1950
10.7000 7.1030 -0.1850
10.7200 7.1164 -0.1939
10.7400 7.1297 -0.1930
10.7600 7.1430 -0.1886
10.7800 7.1564 -0.1915
10.8000 7.1697 -0.1910
10.8200 7.1831 -0.1893
10.8400 7.1964 -0.1898
10.8600 7.2097 -0.1887
10.8800 7.2231 -0.1913
10.9000 7.2365 -0.1937
10.9200 7.2498 -0.1911
10.9400 7.2630 -0.1890
10.9600 7.2764 -0.1966
10.9800 7.2897 -0.1875
11.0000 7.3030 -0.1910
11.0200 7.3163 -0.1969
11.0400 7.3296 -0.1922
11.0600 7.3430 -0.1921
11.0800 7.3563 -0.1960
11.1000 7.3697 -0.1930
11.1200 7.3830 -0.1938
11.1400 7.3964 -0.1963
11.1600 7.4098 -0.1940
11.1800 7.4231 -0.1989
11.2000 7.4364 -0.1948
11.2200 7.4497 -0.1903
11.2400 7.4631 -0.1982
11.2600 7.4765 -0.1952
11.2800 7.4898 -0.1913
11.3000 7.5031 -0.1986
11.3200 7.5164 -0.1997
11.3400 7.5297 -0.1894
11.3600 7.5431 -0.2011
11.3800 7.5564 -0.1968
11.4000 7.5697 -0.1932
11.4200 7.5830 -0.2023
11.4400 7.5964 -0.1978
11.4600 7.6097 -0.1921
11.4800 7.6230 -0.1964
11.5000 7.6364 -0.2001
11.5200 7.6498 -0.1953
11.5400 7.6631 -0.2037
11.5600 7.6764 -0.1958
11.5800 7.6897 -0.1908
11.6000 7.7031 -0.1970
11.6200 7.7164 -0.1994
11.6400 7.7297 -0.1940
11.6600 7.7430 -0.1999
11.6800 7.7563 -0.1947
11.7000 7.7697 -0.1985
11.7200 7.7830 -0.1997
11.7400 7.7963 -0.1973
11.7600 7.8097 -0.1946
11.7800 7.8230 -0.1954
11.8000 7.8364 -0.2003
11.8200 7.8497 -0.1953
11.8400 7.8630 -0.1981
11.8600 7.8763 -0.1984
11.8800 7.8897 -0.1953
11.9000 7.9030 -0.1986
11.9200 7.9164 -0.1998
11.9400 7.9297 -0.1917
11.9600 7.9431 -0.1989
11.9800 7.9564 -0.1984
12.0000 7.9698 -0.1938
12.0200 7.9831 -0.1990
12.0400 7.9964 -0.1929
12.0600 8.0098 -0.1950
12.0800 8.0231 -0.2026
12.1000 8.0364 -0.1938
12.1200 8.0496 -0.1901
12.1400 8.0630 -0.2029
12.1600 8.0763 -0.1948
12.1800 8.0896 -0.1931
12.2000 8.1030 -0.2037
12.2200 8.1164 -0.1929
12.2400 8.1298 -0.1950
12.2600 8.1432 -0.2051
12.2800 8.1565 -0.1944
12.3000 8.1698 -0.1957
12.3200 8.1831 -0.2069
12.3400 8.1965 -0.1947
12.3600 8.2098 -0.1990
12.3800 8.2230 -0.2001
12.4000 8.2363 -0.1996
12.4200 8.2497 -0.1947
12.4400 8.2630 -0.2011
12.4600 8.2763 -0.2026
12.4800 8.2896 -0.1950
12.5000 8.3030 -0.2025
12.5200 8.3163 -0.2024
12.5400 8.3297 -0.1908
12.5600 8.3430 -0.2014
12.5800 8.3564 -0.1951
12.6000 8.3698 -0.1985
12.6200 8.3831 -0.1984
12.6400 8.3965 -0.2029
12.6600 8.4098 -0.1921
12.6800 8.4231 -0.2020
12.7000 8.4364 -0.2041
12.7200 8.4498 -0.1921
12.7400 8.4630 -0.2047
12.7600 8.4763 -0.2001
12.7800 8.4897 -0.1939
12.8000 8.5030 -0.2013
12.8200 8.5163 -0.1998
12.8400 8.5296 -0.1947
12.8600 8.5430 -0.2052
12.8800 8.5564 -0.2036
12.9000 8.5697 -0.1946
12.9200 8.5831 -0.2115
12.9400 8.5964 -0.1970
12.9600 8.6098 -0.1992
12.9800 8.6231 -0.2105
13.0000 8.6364 -0.1968
13.0200 8.6497 -0.1999
13.0400 8.6631 -0.2089
13.0600 8.6765 -0.2020
13.0800 8.6898 -0.2041
13.1000 8.7031 -0.2076
13.1200 8.7164 -0.1962
13.1400 8.7298 -0.2041
13.1600 8.7431 -0.2084
13.1800 8.7563 -0.1965
13.2000 8.7696 -0.2090
13.2200 8.7830 -0.2047
13.2400 8.7964 -0.2018
13.2600 8.8097 -0.2113
13.2800 8.8230 -0.1983
13.3000 8.8364 -0.2041
13.3200 8.8498 -0.2083
13.3400 8.8631 -0.2020
13.3600 8.8764 -0.2083
13.3800 8.8898 -0.2114
13.4000 8.9031 -0.1981
13.4200 8.9164 -0.2147
13.4400 8.9298 -0.2097
13.4600 8.9430 -0.2012
13.4800 8.9563 -0.2175
13.5000 8.9697 -0.2076
13.5200 8.9830 -0.2011
13.5400 8.9964 -0.2192
13.5600 9.0097 -0.2041
13.5800 9.0230 -0.2077
13.6000 9.0364 -0.2155
13.6200 9.0497 -0.2019
13.6400 9.0630 -0.2092
13.6600 9.0763 -0.2162
13.6800 9.0897 -0.2068
13.7000 9.1031 -0.2119
13.7200 9.1164 -0.2136
13.7400 9.1298 -0.2019
13.7600 9.1431 -0.2154
13.7800 9.1565 -0.2162
13.8000 9.1698 -0.2082
13.8200 9.1831 -0.2111
13.8400 9.1964 -0.2089
13.8600 9.2097 -0.2122
13.8800 9.2230 -0.2113
13.9000 9.2364 -0.2113
13.9200 9.2497 -0.2097
13.9400 9.2630 -0.2094
13.9600 9.2764 -0.2135
13.9800 9.2897 -0.2090
14.0000 9.3030 -0.2139
14.0200 9.3164 -0.2102
14.0400 9.3297 -0.2102
14.0600 9.3431 -0.2163
14.0800 9.3564 -0.2122
14.1000 9.3697 -0.2087
14.1200 9.3830 -0.2166
14.1400 9.3964 -0.2116
14.1600 9.4098 -0.2112
14.1800 9.4231 -0.2129
14.2000 9.4364 -0.2110
14.2200 9.4497 -0.2108
14.2400 9.4631 -0.2138
14.2600 9.4764 -0.2138
14.2800 9.4896 -0.2060
14.3000 9.5029 -0.2163
14.3200 9.5163 -0.2149
14.3400 9.5296 -0.2066
14.3600 9.5430 -0.2191
14.3800 9.5563 -0.2099
14.4000 9.5697 -0.2131
14.4200 9.5831 -0.2175
14.4400 9.5965 -0.2113
14.4600 9.6098 -0.2108
14.4800 9.6231 -0.2142
14.5000 9.6365 -0.2162
14.5200 9.6498 -0.2098
14.5400 9.6630 -0.2152
14.5600 9.6763 -0.2121
14.5800 9.6896 -0.2089
14.6000 9.7030 -0.2152
14.6200 9.7163 -0.2166
14.6400 9.7297 -0.2071
14.6600 9.7430 -0.2130
14.6800 9.7564 -0.2159
14.7000 9.7697 -0.2100
14.7200 9.7831 -0.2118
14.7400 9.7964 -0.2134
14.7600 9.8098 -0.2082
14.7800 9.8231 -0.2157
14.8000 9.8364 -0.2093
14.8200 9.8498 -0.2046
14.8400 9.8631 -0.2117
14.8600 9.8764 -0.2095
14.8800 9.8897 -0.2075
14.9000 9.9030 -0.2137
14.9200 9.9164 -0.2079
14.9400 9.9297 -0.2116
14.9600 9.9430 -0.2135
14.9800 9.9564 -0.2040
15.0000 9.9697 -0.2094
15.0200 9.9830 -0.2140
15.0400 9.9964 -0.2017
15.0600 10.0097 -0.2135
15.0800 10.0230 -0.2114
15.1000 10.0364 -0.2045
15.1200 10.0497 -0.2152
15.1400 10.0631 -0.2121
15.1600 10.0764 -0.2046
15.1800 10.0897 -0.2132
15.2000 10.1031 -0.2123
15.2200 10.1164 -0.2005
15.2400 10.1298 -0.2178
15.2600 10.1431 -0.2094
15.2800 10.1564 -0.2036
15.3000 10.1697 -0.2179
15.3200 10.1831 -0.2049
15.3400 10.1964 -0.2107
15.3600 10.2097 -0.2149
15.3800 10.2230 -0.1975
15.4000 10.2363 -0.2151
15.4200 10.2497 -0.2214
15.4400 10.2630 -0.1948
15.4600 10.2764 -0.2124
15.4800 10.2897 -0.2174
15.5000 10.3031 -0.1980
15.5200 10.3165 -0.2207
15.5400 10.3298 -0.2147
15.5600 10.3431 -0.2024
15.5800 10.3564 -0.2163
15.6000 10.3698 -0.2160
15.6200 10.3831 -0.2056
15.6400 10.3964 -0.2179
15.6600 10.4097 -0.2089
15.6800 10.4230 -0.2079
15.7000 10.4364 -0.2173
15.7200 10.4497 -0.2070
15.7400 10.4630 -0.2118
15.7600 10.4763 -0.2161
15.7800 10.4897 -0.2142
15.8000 10.5030 -0.2097
15.8200 10.5163 -0.2105
15.8400 10.5297 -0.2149
15.8600 10.5430 -0.2113
15.8800 10.5564 -0.2141
15.9000 10.5697 -0.2106
15.9200 10.5831 -0.2104
15.9400 10.5964 -0.2127
15.9600 10.6098 -0.2154
15.9800 10.6231 -0.2115
16.0000 10.6364 -0.2062
16.0200 10.6497 -0.2168
16.0400 10.6630 -0.2142
16.0600 10.6764 -0.2117
16.0800 10.6897 -0.2126
16.1000 10.7030 -0.2162
16.1200 10.7163 -0.2129
16.1400 10.7297 -0.2114
16.1600 10.7430 -0.2117
16.1800 10.7564 -0.2145
16.2000 10.7697 -0.2095
16.2200 10.7831 -0.2132
16.2400 10.7965 -0.2122
16.2600 10.8098 -0.2122
16.2800 10.8231 -0.2114
16.3000 10.8364 -0.2131
16.3200 10.8498 -0.2136
16.3400 10.8631 -0.2159
16.3600 10.8764 -0.2094
16.3800 10.8897 -0.2126
16.4000 10.9031 -0.2130
16.4200 10.9164 -0.2166
16.4400 10.9297 -0.2147
16.4600 10.9430 -0.2138
16.4800 10.9563 -0.2142
16.5000 10.9697 -0.2092
16.5200 10.9830 -0.2183
16.5400 10.9963 -0.2150
16.5600 11.0097 -0.2086
16.5800 11.0231 -0.2227
16.6000 11.0364 -0.2118
16.6200 11.0498 -0.2091
16.6400 11.0631 -0.2195
16.6600 11.0764 -0.2138
16.6800 11.0898 -0.2120
16.7000 11.1031 -0.2207
16.7200 11.1163 -0.2092
16.7400 11.1297 -0.2104
16.7600 11.1430 -0.2196
16.7800 11.1563 -0.2075
16.8000 11.1697 -0.2137
16.8200 11.1830 -0.2174
16.8400 11.1964 -0.2112
16.8600 11.2098 -0.2146
16.8800 11.2231 -0.2156
16.9000 11.2364 -0.2122
16.9200 11.2497 -0.2153
16.9400 11.2631 -0.2159
16.9600 11.2764 -0.2114
16.9800 11.2897 -0.2137
17.0000 11.3030 -0.2173
17.0200 11.3164 -0.2127
17.0400 11.3298 -0.2146
17.0600 11.3431 -0.2173
17.0800 11.3564 -0.2151
17.1000 11.3697 -0.2100
17.1200 11.3831 -0.2219
17.1400 11.3964 -0.2134
17.1600 11.4097 -0.2135
17.1800 11.4230 -0.2204
17.2000 11.4364 -0.2091
17.2200 11.4497 -0.2245
17.2400 11.4630 -0.2181
17.2600 11.4763 -0.2129
17.2800 11.4897 -0.2237
17.3000 11.5031 -0.2224
17.3200 11.5164 -0.2162
17.3400 11.5297 -0.2161
17.3600 11.5431 -0.2252
17.3800 11.5564 -0.2101
17.4000 11.5698 -0.2157
17.4200 11.5831 -0.2257
17.4400 11.5964 -0.2101
17.4600 11.6097 -0.2220
17.4800 11.6231 -0.2221
17.5000 11.6364 -0.2132
17.5200 11.6497 -0.2194
17.5400 11.6630 -0.2247
17.5600 11.6763 -0.2136
17.5800 11.6897 -0.2171
17.6000 11.7030 -0.2281
17.6200 11.7163 -0.2087
17.6400 11.7297 -0.2199
17.6600 11.7431 -0.2284
17.6800 11.7564 -0.2113
17.7000 11.7698 -0.2190
17.7200 11.7831 -0.2247
17.7400 11.7964 -0.2097
17.7600 11.8098 -0.2199
17.7800 11.8231 -0.2328
17.8000 11.8364 -0.1984
17.8200 11.8497 -0.2164
17.8400 11.8630 -0.2276
17.8600 11.8764 -0.2012
17.8800 11.8897 -0.2232
17.9000 11.9030 -0.2251
17.9200 11.9164 -0.2055
17.9400 11.9297 -0.2209
17.9600 11.9431 -0.2200
17.9800 11.9564 -0.2096
18.0000 11.9697 -0.2169
18.0200 11.9831 -0.2185
18.0400 11.9964 -0.2097
18.0600 12.0097 -0.2183
18.0800 12.0231 -0.2180
18.1000 12.0364 -0.2096
18.1200 12.0498 -0.2205
18.1400 12.0631 -0.2193
18.1600 12.0764 -0.2126
18.1800 12.0897 -0.2145
18.2000 12.1031 -0.2215
18.2200 12.1164 -0.2149
18.2400 12.1297 -0.2166
18.2600 12.1430 -0.2190
18.2800 12.1563 -0.2125
18.3000 12.1697 -0.2202
18.3200 12.1830 -0.2213
18.3400 12.1964 -0.2064
18.3600 12.2097 -0.2196
18.3800 12.2231 -0.2262
18.4000 12.2365 -0.2094
18.4200 12.2498 -0.2120
18.4400 12.2631 -0.2246
18.4600 12.2764 -0.2061
18.4800 12.2898 -0.2163
18.5000 12.3031 -0.2218
18.5200 12.3164 -0.2093
18.5400 12.3297 -0.2170
18.5600 12.3430 -0.2200
18.5800 12.3564 -0.2117
18.6000 12.3697 -0.2231
18.6200 12.3830 -0.2172
18.6400 12.3964 -0.2040
18.6600 12.4097 -0.2211
18.6800 12.4230 -0.2217
18.7000 12.4364 -0.2095
18.7200 12.4497 -0.2193
18.7400 12.4631 -0.2181
18.7600 12.4764 -0.2106
18.7800 12.4897 -0.2196
18.8000 12.5031 -0.2214
18.8200 12.5164 -0.2109
18.8400 12.5298 -0.2179
18.8600 12.5431 -0.2221
18.8800 12.5564 -0.2079
18.9000 12.5697 -0.2203
18.9200 12.5830 -0.2268
18.9400 12.5964 -0.2089
18.9600 12.6097 -0.2213
18.9800 12.6230 -0.2293
19.0000 12.6363 -0.2124
19.0200 12.6497 -0.2295
19.0400 12.6630 -0.2222
19.0600 12.6763 -0.2089
19.0800 12.6897 -0.2297
19.1000 12.7030 -0.2267
19.1200 12.7164 -0.2146
19.1400 12.7297 -0.2347
19.1600 12.7430 -0.2302
19.1800 12.7564 -0.2139
19.2000 12.7698 -0.2272
19.2200 12.7831 -0.2314
19.2400 12.7964 -0.2133
19.2600 12.8097 -0.2269
19.2800 12.8231 -0.2279
19.3000 12.8364 -0.2161
19.3200 12.8497 -0.2304
19.3400 12.8630 -0.2242
19.3600 12.8763 -0.2158
19.3800 12.8896 -0.2298
19.4000 12.9030 -0.2227
19.4200 12.9163 -0.2186
19.4400 12.9297 -0.2254
19.4600 12.9430 -0.2250
19.4800 12.9564 -0.2205
19.5000 12.9698 -0.2255
19.5200 12.9831 -0.2233
19.5400 12.9965 -0.2213
19.5600 13.0098 -0.2247
19.5800 13.0232 -0.2236
19.6000 13.0364 -0.2174
19.6200 13.0497 -0.2240
19.6400 13.0630 -0.2197
19.6600 13.0764 -0.2204
19.6800 13.0897 -0.2229
19.7000 13.1030 -0.2207
19.7200 13.1163 -0.2200
19.7400 13.1297 -0.2263
19.7600 13.1430 -0.2204
19.7800 13.1563 -0.2209
19.8000 13.1697 -0.2191
19.8200 13.1831 -0.2205
19.8400 13.1964 -0.2219
19.8600 13.2098 -0.2174
19.8800 13.2231 -0.2205
19.9000 13.2364 -0.2203
19.9200 13.2498 -0.2187
19.9400 13.2631 -0.2202
19.9600 13.2764 -0.2188
19.9800 13.2897 -0.2157
20.0000 13.3031 -0.2248
20.0200 13.3164 -0.2176
20.0400 13.3297 -0.2154
20.0600 13.3430 -0.2234
20.0800 13.3563 -0.2166
20.1000 13.3697 -0.2176
20.1200 13.3830 -0.2233
20.1400 13.3964 -0.2174
20.1600 13.4097 -0.2192
20.1800 13.4231 -0.2254
20.2000 13.4364 -0.2124
20.2200 13.4498 -0.2212
20.2400 13.4631 -0.2221
20.2600 13.4764 -0.2157
20.2800 13.4897 -0.2258
20.3000 13.5031 -0.2253
20.3200 13.5164 -0.2151
20.3400 13.5297 -0.2252
20.3600 13.5431 -0.2269
20.3800 13.5564 -0.2146
20.4000 13.5697 -0.2277
20.4200 13.5830 -0.2224
20.4400 13.5963 -0.2197
20.4600 13.6097 -0.2284
20.4800 13.6230 -0.2193
20.5000 13.6364 -0.2248
20.5200 13.6497 -0.2261
20.5400 13.6631 -0.2235
20.5600 13.6764 -0.2255
20.5800 13.6898 -0.2223
20.6000 13.7031 -0.2237
20.6200 13.7164 -0.2248
20.6400 13.7298 -0.2250
20.6600 13.7431 -0.2243
20.6800 13.7564 -0.2299
20.7000 13.7697 -0.2211
20.7200 13.7830 -0.2221
20.7400 13.7964 -0.2302
20.7600 13.8097 -0.2197
20.7800 13.8230 -0.2259
20.8000 13.8363 -0.2248
20.8200 13.8497 -0.2202
20.8400 13.8630 -0.2270
20.8600 13.8763 -0.2253
20.8800 13.8897 -0.2210
20.9000 13.9030 -0.2271
20.9200 13.9164 -0.2224
20.9400 13.9298 -0.2212
20.9600 13.9431 -0.2260
20.9800 13.9564 -0.2248
21.0000 13.9698 -0.2194
21.0200 13.9831 -0.2264
21.0400 13.9964 -0.2267
21.0600 14.0098 -0.2208
21.0800 14.0231 -0.2289
21.1000 14.0364 -0.2227
21.1200 14.0497 -0.2214
21.1400 14.0630 -0.2247
21.1600 14.0763 -0.2194
21.1800 14.0897 -0.2251
21.2000 14.1030 -0.2220
21.2200 14.1163 -0.2212
21.2400 14.1297 -0.2184
21.2600 14.1430 -0.2211
21.2800 14.1564 -0.2234
21.3000 14.1698 -0.2217
21.3200 14.1831 -0.2218
21.3400 14.1964 -0.2233
21.3600 14.2098 -0.2204
21.3800 14.2231 -0.2191
21.4000 14.2364 -0.2219
21.4200 14.2497 -0.2204
21.4400 14.2630 -0.2152
21.4600 14.2764 -0.2200
21.4800 14.2897 -0.2217
21.5000 14.3030 -0.2160
21.5200 14.3163 -0.2205
21.5400 14.3296 -0.2191
21.5600 14.3430 -0.2175
21.5800 14.3563 -0.2182
21.6000 14.3697 -0.2188
21.6200 14.3830 -0.2186
21.6400 14.3964 -0.2226
21.6600 14.4098 -0.2171
21.6800 14.4231 -0.2172
21.7000 14.4365 -0.2210
21.7200 14.4498 -0.2168
21.7400 14.4631 -0.2196
21.7600 14.4764 -0.2207
21.7800 14.4897 -0.2139
21.8000 14.5030 -0.2202
21.8200 14.5163 -0.2217
21.8400 14.5297 -0.2172
21.8600 14.5430 -0.2202
21.8800 14.5563 -0.2212
21.9000 14.5697 -0.2159
21.9200 14.5830 -0.2249
21.9400 14.5964 -0.2241
21.9600 14.6097 -0.2223
21.9800 14.6231 -0.2204
22.0000 14.6364 -0.2243
22.0200 14.6498 -0.2215
22.0400 14.6631 -0.2210
22.0600 14.6764 -0.2231
22.0800 14.6897 -0.2256
22.1000 14.7031 -0.2257
22.1200 14.7164 -0.2204
22.1400 14.7297 -0.2249
22.1600 14.7430 -0.2251
22.1800 14.7564 -0.2228
22.2000 14.7697 -0.2261
22.2200 14.7830 -0.2250
22.2400 14.7963 -0.2240
22.2600 14.8097 -0.2283
22.2800 14.8230 -0.2250
22.3000 14.8364 -0.2220
22.3200 14.8497 -0.2256
22.3400 14.8631 -0.2241
22.3600 14.8765 -0.2202
22.3800 14.8898 -0.2289
22.4000 14.9031 -0.2246
22.4200 14.9164 -0.2225
22.4400 14.9298 -0.2277
22.4600 14.9431 -0.2259
22.4800 14.9565 -0.2195
22.5000 14.9697 -0.2319
22.5200 14.9830 -0.2204
22.5400 14.9964 -0.2197
22.5600 15.0097 -0.2354
22.5800 15.0230 -0.2177
22.6000 15.0363 -0.2201
22.6200 15.0496 -0.2374
22.6400 15.0630 -0.2200
22.6600 15.0764 -0.2272
22.6800 15.0897 -0.2320
22.7000 15.1030 -0.2192
22.7200 15.1164 -0.2281
22.7400 15.1298 -0.2396
22.7600 15.1431 -0.2177
22.7800 15.1564 -0.2319
22.8000 15.1697 -0.2408
22.8200 15.1831 -0.2188
22.8400 15.1964 -0.2349
22.8600 15.2097 -0.2359
22.8800 15.2230 -0.2133
22.9000 15.2364 -0.2344
22.9200 15.2497 -0.2376
22.9400 15.2630 -0.2194
22.9600 15.2763 -0.2283
22.9800 15.2897 -0.2303
23.0000 15.3030 -0.2209
23.0200 15.3164 -0.2354
23.0400 15.3297 -0.2315
23.0600 15.3430 -0.2191
23.0800 15.3564 -0.2314
23.1000 15.3698 -0.2339
23.1200 15.3831 -0.2235
23.1400 15.3964 -0.2328
23.1600 15.4098 -0.2320
23.1800 15.4231 -0.2254
23.2000 15.4365 -0.2348
23.2200 15.4497 -0.2268
23.2400 15.4630 -0.2327
23.2600 15.4764 -0.2347
23.2800 15.4897 -0.2277
23.3000 15.5030 -0.2344
23.3200 15.5163 -0.2269
23.3400 15.5296 -0.2303
23.3600 15.5430 -0.2341
23.3800 15.5564 -0.2269
23.4000 15.5697 -0.2372
23.4200 15.5830 -0.2338
23.4400 15.5964 -0.2268
23.4600 15.6098 -0.2369
23.4800 15.6231 -0.2358
23.5000 15.6364 -0.2216
23.5200 15.6498 -0.2340
23.5400 15.6631 -0.2359
23.5600 15.6765 -0.2259
23.5800 15.6897 -0.2374
23.6000 15.7030 -0.2321
23.6200 15.7164 -0.2226
23.6400 15.7297 -0.2384
23.6600 15.7430 -0.2262
23.6800 15.7563 -0.2248
23.7000 15.7697 -0.2376
23.7200 15.7830 -0.2230
23.7400 15.7963 -0.2297
23.7600 15.8097 -0.2337
23.7800 15.8230 -0.2250
23.8000 15.8364 -0.2310
23.8200 15.8498 -0.2344
23.8400 15.8631 -0.2252
23.8600 15.8764 -0.2276
23.8800 15.8897 -0.2336
23.9000 15.9031 -0.2247
23.9200 15.9164 -0.2286
23.9400 15.9297 -0.2329
23.9600 15.9430 -0.2252
23.9800 15.9563 -0.2223
24.0000 15.9697 -0.2326
24.0200 15.9830 -0.2275
24.0400 15.9963 -0.2244
24.0600 16.0097 -0.2311
24.0800 16.0230 -0.2235
24.1000 16.0364 -0.2249
24.1200 16.0497 -0.2281
24.1400 16.0631 -0.2316
24.1600 16.0764 -0.2237
24.1800 16.0897 -0.2292
24.2000 16.1031 -0.2320
24.2200 16.1164 -0.2220
24.2400 16.1297 -0.2359
24.2600 16.1431 -0.2306
24.2800 16.1564 -0.2228
24.3000 16.1697 -0.2337
24.3200 16.1830 -0.2284
24.3400 16.1964 -0.2186
24.3600 16.2098 -0.2331
24.3800 16.2231 -0.2295
24.4000 16.2364 -0.2186
24.4200 16.2497 -0.2339
24.4400 16.2630 -0.2305
24.4600 16.2764 -0.2179
24.4800 16.2897 -0.2354
24.5000 16.3030 -0.2242
24.5200 16.3164 -0.2224
24.5400 16.3297 -0.2364
24.5600 16.3431 -0.2268
24.5800 16.3564 -0.2247
24.6000 16.3697 -0.2387
24.6200 16.3831 -0.2177
24.6400 16.3965 -0.2264
24.6600 16.4098 -0.2397
24.6800 16.4231 -0.2163
24.7000 16.4364 -0.2263
24.7200 16.4498 -0.2356
24.7400 16.4631 -0.2166
24.7600 16.4764 -0.2362
24.7800 16.4897 -0.2361
24.8000 16.5030 -0.2207
24.8200 16.5163 -0.2340
24.8400 16.5297 -0.2341
24.8600 16.5430 -0.2215
24.8800 16.5564 -0.2357
24.9000 16.5698 -0.2342
24.9200 16.5831 -0.2255
24.9400 16.5964 -0.2350
24.9600 16.6098 -0.2359
24.9800 16.6231 -0.2283
25.0000 16.6365 -0.2380
25.0200 16.6497 -0.2342
25.0400 16.6630 -0.2273
25.0600 16.6764 -0.2336
25.0800 16.6897 -0.2324
25.1000 16.7030 -0.2322
25.1200 16.7163 -0.2359
25.1400 16.7296 -0.2347
25.1600 16.7430 -0.2362
25.1800 16.7564 -0.2387
25.2000 16.7697 -0.2331
25.2200 16.7830 -0.2338
25.2400 16.7964 -0.2344
25.2600 16.8097 -0.2326
25.2800 16.8231 -0.2342
25.3000 16.8364 -0.2322
25.3200 16.8498 -0.2292
25.3400 16.8631 -0.2350
25.3600 16.8765 -0.2315
25.3800 16.8898 -0.2348
25.4000 16.9031 -0.2340
25.4200 16.9164 -0.2344
25.4400 16.9297 -0.2249
25.4600 16.9430 -0.2320
25.4800 16.9563 -0.2282
25.5000 16.9696 -0.2300
25.5200 16.9830 -0.2333
25.5400 16.9963 -0.2296
25.5600 17.0096 -0.2328
25.5800 17.0230 -0.2305
25.6000 17.0364 -0.2283
25.6200 17.0498 -0.2370
25.6400 17.0631 -0.2315
25.6600 17.0764 -0.2291
25.6800 17.0897 -0.2329
25.7000 17.1031 -0.2319
25.7200 17.1164 -0.2334
25.7400 17.1297 -0.2361
25.7600 17.1430 -0.2321
25.7800 17.1564 -0.2338
25.8000 17.1697 -0.2306
25.8200 17.1831 -0.2302
25.8400 17.1964 -0.2354
25.8600 17.2097 -0.2340
25.8800 17.2230 -0.2331
25.9000 17.2363 -0.2344
25.9200 17.2497 -0.2313
25.9400 17.2630 -0.2374
25.9600 17.2764 -0.2344
25.9800 17.2898 -0.2332
26.0000 17.3031 -0.2351
26.0200 17.3164 -0.2376
26.0400 17.3298 -0.2340
26.0600 17.3431 -0.2351
26.0800 17.3565 -0.2378
26.1000 17.3697 -0.2352
26.1200 17.3830 -0.2296
26.1400 17.3963 -0.2381
26.1600 17.4097 -0.2368
26.1800 17.4230 -0.2379
26.2000 17.4363 -0.2375
26.2200 17.4497 -0.2309
26.2400 17.4630 -0.2455
26.2600 17.4764 -0.2289
26.2800 17.4897 -0.2312
26.3000 17.5031 -0.2398
26.3200 17.5164 -0.2283
26.3400 17.5297 -0.2341
26.3600 17.5431 -0.2393
26.3800 17.5564 -0.2318
26.4000 17.5697 -0.2332
26.4200 17.5831 -0.2364
26.4400 17.5964 -0.2323
26.4600 17.6098 -0.2377
26.4800 17.6231 -0.2335
26.5000 17.6364 -0.2288
26.5200 17.6498 -0.2360
26.5400 17.6631 -0.2302
26.5600 17.6764 -0.2321
26.5800 17.6896 -0.2318
26.6000 17.7029 -0.2308
26.6200 17.7163 -0.2397
26.6400 17.7296 -0.2314
26.6600 17.7430 -0.2292
26.6800 17.7564 -0.2387
26.7000 17.7698 -0.2315
26.7200 17.7831 -0.2351
26.7400 17.7964 -0.2386
26.7600 17.8098 -0.2293
26.7800 17.8231 -0.2347
26.8000 17.8365 -0.2369
26.8200 17.8498 -0.2328
26.8400 17.8631 -0.2406
26.8600 17.8764 -0.2337
26.8800 17.8897 -0.2338
26.9000 17.9030 -0.2424
26.9200 17.9163 -0.2340
26.9400 17.9296 -0.2380
26.9600 17.9430 -0.2416
26.9800 17.9563 -0.2346
27.0000 17.9697 -0.2388
27.0200 17.9830 -0.2426
27.0400 17.9964 -0.2350
27.0600 18.0097 -0.2381
27.0800 18.0231 -0.2432
27.1000 18.0364 -0.2355
27.1200 18.0498 -0.2406
27.1400 18.0631 -0.2401
27.1600 18.0764 -0.2381
27.1800 18.0898 -0.2418
27.2000 18.1031 -0.2440
27.2200 18.1164 -0.2327
27.2400 18.1297 -0.2334
27.2600 18.1431 -0.2411
27.2800 18.1564 -0.2360
27.3000 18.1697 -0.2367
27.3200 18.1830 -0.2392
27.3400 18.1964 -0.2426
27.3600 18.2097 -0.2383
27.3800 18.2230 -0.2373
27.4000 18.2364 -0.2382
27.4200 18.2497 -0.2356
27.4400 18.2631 -0.2360
27.4600 18.2764 -0.2438
27.4800 18.2897 -0.2385
27.5000 18.3031 -0.2322
27.5200 18.3164 -0.2457
27.5400 18.3298 -0.2363
27.5600 18.3431 -0.2340
27.5800 18.3564 -0.2461
27.6000 18.3697 -0.2303
27.6200 18.3831 -0.2370
27.6400 18.3964 -0.2468
27.6600 18.4097 -0.2283
27.6800 18.4230 -0.2329
27.7000 18.4364 -0.2457
27.7200 18.4497 -0.2285
27.7400 18.4630 -0.2337
27.7600 18.4764 -0.2443
27.7800 18.4898 -0.2259
27.8000 18.5031 -0.2387
27.8200 18.5164 -0.2428
27.8400 18.5298 -0.2228
27.8600 18.5431 -0.2363
27.8800 18.5564 -0.2429
27.9000 18.5697 -0.2237
27.9200 18.5830 -0.2361
27.9400 18.5963 -0.2366
27.9600 18.6097 -0.2228
27.9800 18.6231 -0.2401
28.0000 18.6364 -0.2268
28.0200 18.6497 -0.2229
28.0400 18.6630 -0.2371
28.0600 18.6764 -0.2266
28.0800 18.6897 -0.2243
28.1000 18.7030 -0.2311
28.1200 18.7163 -0.2263
28.1400 18.7297 -0.2215
28.1600 18.7431 -0.2301
28.1800 18.7564 -0.2257
28.2000 18.7697 -0.2238
28.2200 18.7831 -0.2242
28.2400 18.7965 -0.2220
28.2600 18.8098 -0.2280
28.2800 18.8231 -0.2203
28.3000 18.8364 -0.2224
28.3200 18.8497 -0.2248
28.3400 18.8631 -0.2178
28.3600 18.8764 -0.2262
28.3800 18.8897 -0.2233
28.4000 18.9030 -0.2167
28.4200 18.9163 -0.2267
28.4400 18.9297 -0.2256
28.4600 18.9430 -0.2228
28.4800 18.9564 -0.2264
28.5000 18.9697 -0.2233
28.5200 18.9831 -0.2235
28.5400 18.9964 -0.2281
28.5600 19.0097 -0.2270
28.5800 19.0231 -0.2215
28.6000 19.0364 -0.2277
28.6200 19.0498 -0.2259
28.6400 19.0631 -0.2211
28.6600 19.0764 -0.2290
28.6800 19.0897 -0.2236
28.7000 19.1031 -0.2246
28.7200 19.1164 -0.2284
28.7400 19.1297 -0.2288
28.7600 19.1429 -0.2190
28.7800 19.1563 -0.2319
28.8000 19.1696 -0.2300
28.8200 19.1830 -0.2155
28.8400 19.1963 -0.2303
28.8600 19.2097 -0.2194
28.8800 19.2231 -0.2216
28.9000 19.2365 -0.2327
28.9200 19.2498 -0.2202
28.9400 19.2631 -0.2224
28.9600 19.2765 -0.2301
28.9800 19.2898 -0.2233
29.0000 19.3031 -0.2240
29.0200 19.3163 -0.2284
29.0400 19.3297 -0.2199
29.0600 19.3430 -0.2272
29.0800 19.3563 -0.2290
29.1000 19.3697 -0.2245
29.1200 19.3830 -0.2282
29.1400 19.3964 -0.2295
29.1600 19.4097 -0.2283
29.1800 19.4231 -0.2331
29.2000 19.4364 -0.2280
29.2200 19.4497 -0.2313
29.2400 19.4631 -0.2354
29.2600 19.4764 -0.2288
29.2800 19.4897 -0.2319
29.3000 19.5030 -0.2329
29.3200 19.5164 -0.2265
29.3400 19.5297 -0.2335
29.3600 19.5430 -0.2318
29.3800 19.5564 -0.2296
29.4000 19.5697 -0.2342
29.4200 19.5830 -0.2346
29.4400 19.5964 -0.2291
29.4600 19.6097 -0.2338
29.4800 19.6230 -0.2306
29.5000 19.6364 -0.2260
29.5200 19.6497 -0.2382
29.5400 19.6630 -0.2279
29.5600 19.6764 -0.2326
29.5800 19.6897 -0.2375
29.6000 19.7031 -0.2335
29.6200 19.7164 -0.2277
29.6400 19.7297 -0.2423
29.6600 19.7430 -0.2308
29.6800 19.7564 -0.2321
29.7000 19.7698 -0.2395
29.7200 19.7831 -0.2315
29.7400 19.7964 -0.2347
29.7600 19.8097 -0.2403
29.7800 19.8231 -0.2274
29.8000 19.8364 -0.2390
29.8200 19.8497 -0.2395
29.8400 19.8630 -0.2257
29.8600 19.8763 -0.2382
29.8800 19.8897 -0.2391
29.9000 19.9030 -0.2282
29.9200 19.9164 -0.2374
29.9400 19.9297 -0.2352
29.9600 19.9431 -0.2307
29.9800 19.9565 -0.2413
30.0000 19.9698 -0.2361
30.0200 19.9831 -0.2317
30.0400 19.9964 -0.2372
30.0600 20.0098 -0.2388
30.0800 20.0230 -0.2328
30.1000 20.0364 -0.2378
30.1200 20.0497 -0.2369
30.1400 20.0631 -0.2318
30.1600 20.0764 -0.2358
30.1800 20.0897 -0.2388
30.2000 20.1030 -0.2348
30.2200 20.1164 -0.2351
30.2400 20.1297 -0.2405
30.2600 20.1430 -0.2365
30.2800 20.1563 -0.2357
30.3000 20.1697 -0.2345
30.3200 20.1831 -0.2307
30.3400 20.1964 -0.2373
30.3600 20.2097 -0.2323
30.3800 20.2231 -0.2286
30.4000 20.2364 -0.2343
30.4200 20.2498 -0.2336
30.4400 20.2631 -0.2223
30.4600 20.2764 -0.2338
30.4800 20.2897 -0.2299
30.5000 20.3030 -0.2251
30.5200 20.3164 -0.2187
30.5400 20.3297 -0.1553
30.5600 20.3430 -0.0815
30.5800 20.3563 -0.0312
30.6000 20.3697 0.0067
30.6200 20.3830 0.0356
30.6400 20.3964 0.0769
30.6600 20.4097 0.1269
30.6800 20.4231 0.1604
30.7000 20.4365 0.1966
30.7200 20.4498 0.2377
30.7400 20.4631 0.2745
30.7600 20.4764 0.2946
30.7800 20.4898 0.2852
30.8000 20.5031 0.2768
30.8200 20.5164 0.2765
30.8400 20.5297 0.2778
30.8600 20.5430 0.2743
30.8800 20.5564 0.2773
30.9000 20.5697 0.2854
30.9200 20.5830 0.2783
30.9400 20.5963 0.2783
30.9600 20.6097 0.2853
30.9800 20.6230 0.2774
31.0000 20.6363 0.2787
31.0200 20.6497 0.2859
31.0400 20.6631 0.2786
31.0600 20.6764 0.2758
31.0800 20.6898 0.2862
31.1000 20.7031 0.2827
31.1200 20.7164 0.2776
31.1400 20.7298 0.2830
31.1600 20.7431 0.2823
31.1800 20.7563 0.2856
31.2000 20.7697 0.2840
31.2200 20.7830 0.2800
31.2400 20.7964 0.2794
31.2600 20.8097 0.2838
31.2800 20.8230 0.2802
31.3000 20.8364 0.2789
31.3200 20.8497 0.2851
31.3400 20.8631 0.2757
31.3600 20.8764 0.2806
31.3800 20.8897 0.2847
31.4000 20.9031 0.2747
31.4200 20.9164 0.2842
31.4400 20.9297 0.2807
31.4600 20.9430 0.2778
31.4800 20.9564 0.2819
31.5000 20.9697 0.2730
31.5200 20.9831 0.2748
31.5400 20.9964 0.2846
31.5600 21.0097 0.2744
31.5800 21.0231 0.2743
31.6000 21.0364 0.2810
31.6200 21.0497 0.2734
31.6400 21.0630 0.2752
31.6600 21.0764 0.2792
31.6800 21.0897 0.2727
31.7000 21.1030 0.2694
31.7200 21.1163 0.2755
31.7400 21.1297 0.2728
31.7600 21.1430 0.2722
31.7800 21.1564 0.2705
31.8000 21.1697 0.2718
31.8200 21.1831 0.2710
31.8400 21.1964 0.2722
31.8600 21.2098 0.2734
31.8800 21.2231 0.2703
31.9000 21.2364 0.2704
31.9200 21.2497 0.2791
31.9400 21.2631 0.2624
31.9600 21.2764 0.2716
31.9800 21.2897 0.2754
32.0000 21.3030 0.2624
32.0200 21.3163 0.2719
32.0400 21.3297 0.2694
32.0600 21.3430 0.2623
32.0800 21.3563 0.2737
32.1000 21.3697 0.2650
32.1200 21.3831 0.2644
32.1400 21.3964 0.2726
32.1600 21.4098 0.2633
32.1800 21.4231 0.2631
32.2000 21.4364 0.2716
32.2200 21.4498 0.2663
32.2400 21.4631 0.2648
32.2600 21.4764 0.2696
32.2800 21.4897 0.2640
32.3000 21.5030 0.2660
32.3200 21.5164 0.2645
32.3400 21.5297 0.2655
32.3600 21.5430 0.2658
32.3800 21.5563 0.2629
32.4000 21.5697 0.2698
32.4200 21.5830 0.2613
32.4400 21.5964 0.2603
32.4600 21.6097 0.2696
32.4800 21.6230 0.2580
32.5000 21.6364 0.2641
32.5200 21.6497 0.2707
32.5400 21.6631 0.2557
32.5600 21.6764 0.2620
32.5800 21.6898 0.2699
32.6000 21.7031 0.2509
32.6200 21.7164 0.2686
32.6400 21.7297 0.2695
32.6600 21.7430 0.2475
32.6800 21.7564 0.2661
32.7000 21.7697 0.2620
32.7200 21.7830 0.2523
32.7400 21.7963 0.2667
32.7600 21.8097 0.2600
32.7800 21.8230 0.2535
32.8000 21.8363 0.2608
32.8200 21.8497 0.2617
32.8400 21.8631 0.2551
32.8600 21.8765 0.2623
32.8800 21.8898 0.2564
32.9000 21.9031 0.2551
32.9200 21.9164 0.2654
32.9400 21.9298 0.2575
32.9600 21.9431 0.2582
32.9800 21.9564 0.2606
33.0000 21.9697 0.2587
33.0200 21.9831 0.2528
33.0400 21.9964 0.2621
33.0600 22.0097 0.2584
33.0800 22.0231 0.2529
33.1000 22.0364 0.2638
33.1200 22.0497 0.2558
33.1400 22.0630 0.2545
33.1600 22.0763 0.2540
33.1800 22.0897 0.2590
33.2000 22.1031 0.2562
33.2200 22.1164 0.2530
33.2400 22.1298 0.2572
33.2600 22.1431 0.2518
33.2800 22.1564 0.2563
33.3000 22.1698 0.2572
33.3200 22.1831 0.2512
33.3400 22.1964 0.2501
33.3600 22.2097 0.2597
33.3800 22.2230 0.2536
33.4000 22.2364 0.2517
33.4200 22.2497 0.2590
33.4400 22.2630 0.2524
33.4600 22.2763 0.2514
33.4800 22.2897 0.2601
33.5000 22.3030 0.2473
33.5200 22.3164 0.2518
33.5400 22.3297 0.2605
33.5600 22.3430 0.2444
33.5800 22.3564 0.2559
33.6000 22.3697 0.2583
33.6200 22.3830 0.2423
33.6400 22.3964 0.2536
33.6600 22.4097 0.2583
33.6800 22.4231 0.2420
33.7000 22.4364 0.2540
33.7200 22.4497 0.2552
33.7400 22.4631 0.2442
33.7600 22.4764 0.2506
33.7800 22.4898 0.2562
33.8000 22.5030 0.2448
33.8200 22.5163 0.2490
33.8400 22.5296 0.2574
33.8600 22.5430 0.2384
33.8800 22.5563 0.2493
33.9000 22.5697 0.2565
33.9200 22.5831 0.2394
33.9400 22.5965 0.2467
33.9600 22.6098 0.2533
33.9800 22.6231 0.2455
34.0000 22.6365 0.2452
34.0200 22.6498 0.2499
34.0400 22.6632 0.2440
34.0600 22.6765 0.2419
34.0800 22.6897 0.2517
34.1000 22.7030 0.2396
34.1200 22.7164 0.2486
34.1400 22.7297 0.2496
34.1600 22.7430 0.2385
34.1800 22.7563 0.2518
34.2000 22.7696 0.2482
34.2200 22.7830 0.2399
34.2400 22.7964 0.2438
34.2600 22.8097 0.2488
34.2800 22.8231 0.2375
34.3000 22.8364 0.2394
34.3200 22.8498 0.2489
34.3400 22.8631 0.2391
34.3600 22.8764 0.2457
34.3800 22.8898 0.2516
34.4000 22.9031 0.2356
34.4200 22.9164 0.2438
34.4400 22.9297 0.2508
34.4600 22.9430 0.2345
34.4800 22.9564 0.2402
34.5000 22.9697 0.2493
34.5200 22.9830 0.2376
34.5400 22.9963 0.2424
34.5600 23.0097 0.2475
34.5800 23.0230 0.2340
34.6000 23.0363 0.2427
34.6200 23.0497 0.2412
34.6400 23.0630 0.2352
34.6600 23.0764 0.2431
34.6800 23.0898 0.2378
34.7000 23.1031 0.2343
34.7200 23.1164 0.2484
34.7400 23.1297 0.2381
34.7600 23.1431 0.2302
34.7800 23.1564 0.2425
34.8000 23.1697 0.2379
34.8200 23.1831 0.2326
34.8400 23.1964 0.2418
34.8600 23.2097 0.2339
34.8800 23.2230 0.2355
34.9000 23.2363 0.2373
34.9200 23.2497 0.2359
34.9400 23.2630 0.2330
34.9600 23.2764 0.2358
34.9800 23.2897 0.2400
35.0000 23.3031 0.2292
35.0200 23.3164 0.2340
35.0400 23.3298 0.2376
35.0600 23.3431 0.2292
35.0800 23.3564 0.2354
35.1000 23.3697 0.2380
35.1200 23.3831 0.2269
35.1400 23.3964 0.2306
35.1600 23.4097 0.2393
35.1800 23.4230 0.2280
35.2000 23.4364 0.2313
35.2200 23.4497 0.2383
35.2400 23.4630 0.2270
35.2600 23.4763 0.2313
35.2800 23.4897 0.2398
35.3000 23.5030 0.2249
35.3200 23.5163 0.2334
35.3400 23.5297 0.2319
35.3600 23.5430 0.2272
35.3800 23.5564 0.2293
35.4000 23.5698 0.2287
35.4200 23.5831 0.2278
35.4400 23.5964 0.2324
35.4600 23.6098 0.2310
35.4800 23.6231 0.2281
35.5000 23.6365 0.2335
35.5200 23.6498 0.2290
35.5400 23.6630 0.2300
35.5600 23.6764 0.2328
35.5800 23.6897 0.2268
35.6000 23.7030 0.2237
35.6200 23.7163 0.2315
35.6400 23.7297 0.2248
35.6600 23.7430 0.2268
35.6800 23.7564 0.2296
35.7000 23.7697 0.2226
35.7200 23.7830 0.2286
35.7400 23.7964 0.2302
35.7600 23.8098 0.2185
35.7800 23.8231 0.2289
35.8000 23.8364 0.2282
35.8200 23.8497 0.2210
35.8400 23.8631 0.2267
35.8600 23.8764 0.2258
35.8800 23.8897 0.2229
35.9000 23.9030 0.2312
35.9200 23.9164 0.2211
35.9400 23.9297 0.2253
35.9600 23.9430 0.2221
35.9800 23.9563 0.2234
36.0000 23.9696 0.2299
36.0200 23.9830 0.2211
36.0400 23.9963 0.2191
36.0600 24.0097 0.2252
36.0800 24.0230 0.2223
36.1000 24.0364 0.2229
36.1200 24.0498 0.2241
36.1400 24.0632 0.2207
36.1600 24.0765 0.2191
36.1800 24.0898 0.2269
36.2000 24.1031 0.2145
36.2200 24.1164 0.2215
36.2400 24.1297 0.2228
36.2600 24.1430 0.2138
36.2800 24.1563 0.2250
36.3000 24.1697 0.2180
36.3200 24.1830 0.2134
36.3400 24.1963 0.2228
36.3600 24.2097 0.2161
36.3800 24.2230 0.2135
36.4000 24.2364 0.2256
36.4200 24.2497 0.2147
36.4400 24.2631 0.2139
36.4600 24.2765 0.2220
36.4800 24.2898 0.2137
36.5000 24.3031 0.2162
36.5200 24.3164 0.2231
36.5400 24.3297 0.2091
36.5600 24.3431 0.2178
36.5800 24.3564 0.2199
36.6000 24.3697 0.2102
36.6200 24.3830 0.2196
36.6400 24.3964 0.2180
36.6600 24.4097 0.2105
36.6800 24.4230 0.2195
36.7000 24.4363 0.2176
36.7200 24.4497 0.2127
36.7400 24.4630 0.2213
36.7600 24.4764 0.2118
36.7800 24.4897 0.2064
36.8000 24.5030 0.2213
36.8200 24.5164 0.2130
36.8400 24.5298 0.2114
36.8600 24.5431 0.2210
36.8800 24.5564 0.2163
36.9000 24.5697 0.2155
36.9200 24.5831 0.2189
36.9400 24.5964 0.2135
36.9600 24.6097 0.2179
36.9800 24.6230 0.2184
37.0000 24.6364 0.2155
37.0200 24.6497 0.2129
37.0400 24.6630 0.2163
37.0600 24.6763 0.2156
37.0800 24.6897 0.2098
37.1000 24.7030 0.2215
37.1200 24.7164 0.2137
37.1400 24.7297 0.2118
37.1600 24.7430 0.2183
37.1800 24.7564 0.2134
37.2000 24.7698 0.2095
37.2200 24.7831 0.2185
37.2400 24.7964 0.2091
37.2600 24.8097 0.2127
37.2800 24.8231 0.2196
37.3000 24.8364 0.2077
37.3200 24.8497 0.2149
37.3400 24.8630 0.2173
37.3600 24.8764 0.2050
37.3800 24.8897 0.2145
37.4000 24.9030 0.2116
37.4200 24.9164 0.2076
37.4400 24.9297 0.2088
37.4600 24.9430 0.2152
37.4800 24.9564 0.2044
37.5000 24.9697 0.2101
37.5200 24.9830 0.2114
37.5400 24.9964 0.2039
37.5600 25.0097 0.2103
37.5800 25.0231 0.2075
37.6000 25.0364 0.2080
37.6200 25.0497 0.2113
37.6400 25.0631 0.2056
37.6600 25.0764 0.2053
37.6800 25.0898 0.2066
37.7000 25.1031 0.2073
37.7200 25.1164 0.2035
37.7400 25.1297 0.2005
37.7600 25.1430 0.2084
37.7800 25.1563 0.1998
37.8000 25.1696 0.2052
37.8200 25.1830 0.2060
37.8400 25.1963 0.2017
37.8600 25.2097 0.2025
37.8800 25.2230 0.2045
37.9000 25.2364 0.2052
37.9200 25.2498 0.1974
37.9400 25.2631 0.2048
37.9600 25.2764 0.2017
37.9800 25.2898 0.1999
38.0000 25.3031 0.2036
38.0200 25.3165 0.1936
38.0400 25.3298 0.2017
38.0600 25.3430 0.2015
38.0800 25.3564 0.1971
38.1000 25.3697 0.2017
38.1200 25.3830 0.1966
38.1400 25.3963 0.1994
38.1600 25.4096 0.2026
38.1800 25.4230 0.1951
38.2000 25.4363 0.1993
38.2200 25.4497 0.1948
38.2400 25.4630 0.1930
38.2600 25.4763 0.2060
38.2800 25.4897 0.1937
38.3000 25.5031 0.1880
38.3200 25.5164 0.2055
38.3400 25.5298 0.1916
38.3600 25.5431 0.1919
38.3800 25.5564 0.2005
38.4000 25.5697 0.1933
38.4200 25.5830 0.1928
38.4400 25.5963 0.1969
38.4600 25.6097 0.1900
38.4800 25.6230 0.2008
38.5000 25.6363 0.1963
38.5200 25.6497 0.1862
38.5400 25.6631 0.1982
38.5600 25.6764 0.1899
38.5800 25.6897 0.1867
38.6000 25.7031 0.1970
38.6200 25.7164 0.1873
38.6400 25.7297 0.1890
38.6600 25.7431 0.1967
38.6800 25.7564 0.1885
38.7000 25.7697 0.1952
38.7200 25.7831 0.1897
38.7400 25.7964 0.1875
38.7600 25.8098 0.1898
38.7800 25.8231 0.1920
38.8000 25.8364 0.1892
38.8200 25.8498 0.1931
38.8400 25.8631 0.1913
38.8600 25.8764 0.1944
38.8800 25.8897 0.1945
38.9000 25.9030 0.1871
38.9200 25.9164 0.1973
38.9400 25.9297 0.1895
38.9600 25.9430 0.1870
38.9800 25.9563 0.1965
39.0000 25.9697 0.1925
39.0200 25.9831 0.1859
39.0400 25.9964 0.1955
39.0600 26.0097 0.1931
39.0800 26.0230 0.1859
39.1000 26.0364 0.2027
39.1200 26.0497 0.1899
39.1400 26.0631 0.1869
39.1600 26.0764 0.1983
39.1800 26.0897 0.1859
39.2000 26.1031 0.1832
39.2200 26.1164 0.1984
39.2400 26.1297 0.1867
39.2600 26.1430 0.1827
39.2800 26.1563 0.1973
39.3000 26.1697 0.1829
39.3200 26.1830 0.1850
39.3400 26.1964 0.2015
39.3600 26.2098 0.1772
39.3800 26.2231 0.1839
39.4000 26.2364 0.1942
39.4200 26.2498 0.1768
39.4400 26.2631 0.1902
39.4600 26.2764 0.1886
39.4800 26.2897 0.1763
39.5000 26.3030 0.1926
39.5200 26.3164 0.1858
39.5400 26.3297 0.1750
39.5600 26.3430 0.1853
39.5800 26.3563 0.1851
39.6000 26.3696 0.1777
39.6200 26.3830 0.1832
39.6400 26.3964 0.1838
39.6600 26.4097 0.1760
39.6800 26.4230 0.1850
39.7000 26.4364 0.1818
39.7200 26.4497 0.1774
39.7400 26.4631 0.1848
39.7600 26.4764 0.1784
39.7800 26.4897 0.1840
39.8000 26.5031 0.1859
39.8200 26.5165 0.1787
39.8400 26.5298 0.1806
39.8600 26.5431 0.1824
39.8800 26.5564 0.1780
39.9000 26.5697 0.1765
39.9200 26.5830 0.1805
39.9400 26.5963 0.1778
39.9600 26.6096 0.1820
39.9800 26.6230 0.1798
40.0000 26.6363 0.1796
40.0200 26.6497 0.1811
40.0400 26.6630 0.1751
40.0600 26.6764 0.1798
40.0800 26.6898 0.1771
40.1000 26.7031 0.1757
40.1200 26.7164 0.1826
40.1400 26.7297 0.1795
40.1600 26.7431 0.1744
40.1800 26.7564 0.1823
40.2000 26.7697 0.1801
40.2200 26.7830 0.1750
40.2400 26.7964 0.1808
40.2600 26.8097 0.1798
40.2800 26.8231 0.1769
40.3000 26.8364 0.1808
40.3200 26.8497 0.1749
40.3400 26.8630 0.1794
40.3600 26.8763 0.1773
40.3800 26.8897 0.1714
40.4000 26.9030 0.1741
40.4200 26.9164 0.1799
40.4400 26.9298 0.1729
40.4600 26.9431 0.1738
40.4800 26.9564 0.1738
40.5000 26.9697 0.1793
40.5200 26.9831 0.1769
40.5400 26.9964 0.1734
40.5600 27.0098 0.1761
40.5800 27.0231 0.1730
40.6000 27.0364 0.1735
40.6200 27.0497 0.1706
40.6400 27.0630 0.1746
40.6600 27.0764 0.1761
40.6800 27.0897 0.1698
40.7000 27.1030 0.1713
40.7200 27.1164 0.1760
40.7400 27.1297 0.1690
40.7600 27.1430 0.1715
40.7800 27.1564 0.1757
40.8000 27.1697 0.1662
40.8200 27.1831 0.1681
40.8400 27.1964 0.1743
40.8600 27.2097 0.1675
40.8800 27.2230 0.1712
40.9000 27.2364 0.1726
40.9200 27.2498 0.1625
40.9400 27.2631 0.1708
40.9600 27.2764 0.1738
40.9800 27.2898 0.1600
41.0000 27.3031 0.1720
41.0200 27.3164 0.1690
41.0400 27.3297 0.1630
41.0600 27.3430 0.1721
41.0800 27.3563 0.1671
41.1000 27.3697 0.1627
41.1200 27.3830 0.1728
41.1400 27.3963 0.1681
41.1600 27.4097 0.1636
41.1800 27.4231 0.1713
41.2000 27.4365 0.1589
41.2200 27.4498 0.1584
41.2400 27.4631 0.1712
41.2600 27.4765 0.1656
41.2800 27.4898 0.1577
41.3000 27.5031 0.1722
41.3200 27.5164 0.1645
41.3400 27.5297 0.1615
41.3600 27.5430 0.1702
41.3800 27.5563 0.1584
41.4000 27.5696 0.1659
41.4200 27.5830 0.1683
41.4400 27.5963 0.1581
41.4600 27.6097 0.1648
41.4800 27.6230 0.1665
41.5000 27.6364 0.1594
41.5200 27.6497 0.1640
41.5400 27.6631 0.1658
41.5600 27.6765 0.1646
41.5800 27.6898 0.1614
41.6000 27.7031 0.1628
41.6200 27.7164 0.1654
41.6400 27.7298 0.1593
41.6600 27.7430 0.1607
41.6800 27.7563 0.1620
41.7000 27.7697 0.1641
41.7200 27.7830 0.1614
41.7400 27.7963 0.1626
41.7600 27.8096 0.1620
41.7800 27.8230 0.1652
41.8000 27.8363 0.1571
41.8200 27.8497 0.1560
41.8400 27.8631 0.1666
41.8600 27.8764 0.1577
41.8800 27.8897 0.1577
41.9000 27.9031 0.1627
41.9200 27.9164 0.1579
41.9400 27.9297 0.1649
41.9600 27.9431 0.1613
41.9800 27.9564 0.1540
42.0000 27.9698 0.1655
42.0200 27.9831 0.1587
42.0400 27.9964 0.1587
42.0600 28.0097 0.1652
42.0800 28.0231 0.1594
42.1000 28.0364 0.1565
42.1200 28.0497 0.1667
42.1400 28.0630 0.1575
42.1600 28.0763 0.1546
42.1800 28.0897 0.1648
42.2000 28.1030 0.1569
42.2200 28.1164 0.1597
42.2400 28.1298 0.1598
42.2600 28.1431 0.1562
42.2800 28.1565 0.1553
42.3000 28.1698 0.1580
42.3200 28.1831 0.1594
42.3400 28.1964 0.1534
42.3600 28.2097 0.1576
42.3800 28.2230 0.1591
42.4000 28.2363 0.1528
42.4200 28.2497 0.1583
42.4400 28.2631 0.1562
42.4600 28.2764 0.1515
42.4800 28.2897 0.1545
42.5000 28.3030 0.1588
42.5200 28.3164 0.1482
42.5400 28.3297 0.1565
42.5600 28.3430 0.1553
42.5800 28.3563 0.1480
42.6000 28.3697 0.1589
42.6200 28.3831 0.1545
42.6400 28.3964 0.1483
42.6600 28.4097 0.1590
42.6800 28.4231 0.1514
42.7000 28.4364 0.1444
42.7200 28.4498 0.1570
42.7400 28.4631 0.1509
42.7600 28.4764 0.1484
42.7800 28.4897 0.1526
42.8000 28.5031 0.1493
42.8200 28.5164 0.1488
42.8400 28.5297 0.1569
42.8600 28.5430 0.1494
42.8800 28.5563 0.1522
42.9000 28.5697 0.1532
42.9200 28.5830 0.1492
42.9400 28.5964 0.1511
42.9600 28.6097 0.1569
42.9800 28.6231 0.1452
43.0000 28.6364 0.1407
43.0200 28.6497 0.1557
43.0400 28.6631 0.1569
43.0600 28.6764 0.1447
43.0800 28.6898 0.1531
43.1000 28.7031 0.1521
43.1200 28.7164 0.1438
43.1400 28.7297 0.1482
43.1600 28.7431 0.1472
43.1800 28.7564 0.1473
43.2000 28.7697 0.1539
43.2200 28.7830 0.1507
43.2400 28.7963 0.1455
43.2600 28.8096 0.1519
43.2800 28.8230 0.1452
43.3000 28.8363 0.1442
43.3200 28.8497 0.1527
43.3400 28.8631 0.1456
43.3600 28.8765 0.1462
43.3800 28.8898 0.1474
43.4000 28.9032 0.1478
43.4200 28.9165 0.1441
43.4400 28.9298 0.1464
43.4600 28.9431 0.1415
43.4800 28.9563 0.1463
43.5000 28.9696 0.1479
43.5200 28.9830 0.1439
43.5400 28.9963 0.1454
43.5600 29.0097 0.1419
43.5800 29.0230 0.1463
43.6000 29.0364 0.1428
43.6200 29.0497 0.1401
43.6400 29.0631 0.1443
43.6600 29.0764 0.1455
43.6800 29.0898 0.1398
43.7000 29.1031 0.1455
43.7200 29.1165 0.1374
43.7400 29.1298 0.1411
43.7600 29.1431 0.1442
43.7800 29.1564 0.1379
43.8000 29.1698 0.1448
43.8200 29.1831 0.1437
43.8400 29.1964 0.1400
43.8600 29.2097 0.1403
43.8800 29.2230 0.1356
43.9000 29.2364 0.1361
43.9200 29.2497 0.1405
43.9400 29.2630 0.1387
43.9600 29.2763 0.1382
43.9800 29.2897 0.1385
44.0000 29.3030 0.1390
44.0200 29.3164 0.1383
44.0400 29.3297 0.1351
44.0600 29.3431 0.1411
44.0800 29.3564 0.1355
44.1000 29.3697 0.1352
44.1200 29.3831 0.1464
44.1400 29.3964 0.1340
44.1600 29.4098 0.1365
44.1800 29.4231 0.1452
44.2000 29.4364 0.1302
44.2200 29.4497 0.1366
44.2400 29.4630 0.1422
44.2600 29.4764 0.1305
44.2800 29.4897 0.1369
44.3000 29.5030 0.1412
44.3200 29.5163 0.1343
44.3400 29.5297 0.1371
44.3600 29.5430 0.1361
44.3800 29.5563 0.1289
44.4000 29.5697 0.1357
44.4200 29.5831 0.1353
44.4400 29.5964 0.1327
44.4600 29.6098 0.1348
44.4800 29.6231 0.1337
44.5000 29.6364 0.1368
44.5200 29.6498 0.1388
44.5400 29.6631 0.1316
44.5600 29.6764 0.1356
44.5800 29.6897 0.1389
44.6000 29.7031 0.1340
44.6200 29.7164 0.1316
44.6400 29.7297 0.1357
44.6600 29.7430 0.1380
44.6800 29.7563 0.1291
44.7000 29.7697 0.1360
44.7200 29.7830 0.1336
44.7400 29.7964 0.1271
44.7600 29.8097 0.1323
44.7800 29.8231 0.1335
44.8000 29.8364 0.1287
44.8200 29.8497 0.1349
44.8400 29.8631 0.1326
44.8600 29.8764 0.1264
44.8800 29.8898 0.1366
44.9000 29.9031 0.1280
44.9200 29.9164 0.1258
44.9400 29.9297 0.1345
44.9600 29.9430 0.1300
44.9800 29.9564 0.1235
45.0000 29.9697 0.1325
45.0200 29.9830 0.1278
45.0400 29.9963 0.1226
45.0600 30.0097 0.1347
45.0800 30.0230 0.1267
45.1000 30.0364 0.1227
45.1200 30.0497 0.1325
45.1400 30.0631 0.1216
45.1600 30.0765 0.1254
45.1800 30.0898 0.1363
45.2000 30.1031 0.1196
45.2200 30.1164 0.1254
45.2400 30.1298 0.1313
45.2600 30.1431 0.1220
45.2800 30.1564 0.1290
45.3000 30.1697 0.1322
45.3200 30.1830 0.1224
45.3400 30.1964 0.1259
45.3600 30.2097 0.1264
45.3800 30.2230 0.1185
45.4000 30.2363 0.1264
45.4200 30.2497 0.1268
45.4400 30.2630 0.1168
45.4600 30.2763 0.1230
45.4800 30.2897 0.1303
45.5000 30.3031 0.1147
45.5200 30.3165 0.1225
45.5400 30.3298 0.1251
45.5600 30.3431 0.1186
45.5800 30.3564 0.1256
45.6000 30.3698 0.1167
45.6200 30.3831 0.1194
45.6400 30.3964 0.1246
45.6600 30.4097 0.1214
45.6800 30.4230 0.1161
45.7000 30.4363 0.1233
45.7200 30.4497 0.1230
45.7400 30.4630 0.1220
45.7600 30.4763 0.1274
45.7800 30.4897 0.1189
45.8000 30.5031 0.1215
45.8200 30.5164 0.1249
45.8400 30.5297 0.1180
45.8600 30.5431 0.1234
45.8800 30.5564 0.1215
45.9000 30.5697 0.1163
45.9200 30.5830 0.1296
45.9400 30.5964 0.1206
45.9600 30.6097 0.1214
45.9800 30.6231 0.1226
46.0000 30.6364 0.1210
46.0200 30.6497 0.1249
46.0400 30.6631 0.1224
46.0600 30.6764 0.1179
46.0800 30.6897 0.1262
46.1000 30.7030 0.1180
46.1200 30.7163 0.1168
46.1400 30.7297 0.1244
46.1600 30.7430 0.1194
46.1800 30.7563 0.1167
46.2000 30.7697 0.1236
46.2200 30.7830 0.1144
46.2400 30.7964 0.1214
46.2600 30.8097 0.1221
46.2800 30.8231 0.1105
46.3000 30.8364 0.1221
46.3200 30.8498 0.1233
46.3400 30.8631 0.1076
46.3600 30.8764 0.1192
46.3800 30.8897 0.1216
46.4000 30.9031 0.1119
46.4200 30.9164 0.1193
46.4400 30.9297 0.1184
46.4600 30.9430 0.1100
46.4800 30.9563 0.1226
46.5000 30.9697 0.1129
46.5200 30.9830 0.1120
46.5400 30.9963 0.1201
46.5600 31.0097 0.1152
46.5800 31.0231 0.1122
46.6000 31.0364 0.1130
46.6200 31.0498 0.1131
46.6400 31.0631 0.1175
46.6600 31.0764 0.1144
46.6800 31.0898 0.1109
46.7000 31.1031 0.1161
46.7200 31.1164 0.1122
46.7400 31.1297 0.1137
46.7600 31.1430 0.1153
46.7800 31.1564 0.1146
46.8000 31.1697 0.1109
46.8200 31.1830 0.1130
46.8400 31.1963 0.1144
46.8600 31.2097 0.1145
46.8800 31.2231 0.1104
46.9000 31.2364 0.1092
46.9200 31.2497 0.1142
46.9400 31.2631 0.1149
46.9600 31.2764 0.1051
46.9800 31.2897 0.1150
47.0000 31.3031 0.1103
47.0200 31.3164 0.1138
47.0400 31.3298 0.1150
47.0600 31.3431 0.1026
47.0800 31.3564 0.1142
47.1000 31.3697 0.1167
47.1200 31.3830 0.1042
47.1400 31.3964 0.1139
47.1600 31.4097 0.1138
47.1800 31.4230 0.1057
47.2000 31.4363 0.1136
47.2200 31.4496 0.1125
47.2400 31.4630 0.1054
47.2600 31.4763 0.1158
47.2800 31.4897 0.1134
47.3000 31.5031 0.1020
47.3200 31.5164 0.1116
47.3400 31.5298 0.1109
47.3600 31.5431 0.0993
47.3800 31.5564 0.1127
47.4000 31.5697 0.1147
47.4200 31.5831 0.1005
47.4400 31.5964 0.1069
47.4600 31.6097 0.1102
47.4800 31.6230 0.1025
47.5000 31.6364 0.1077
47.5200 31.6497 0.1096
47.5400 31.6630 0.0971
47.5600 31.6764 0.1112
47.5800 31.6897 0.1116
47.6000 31.7030 0.1026
47.6200 31.7164 0.1045
47.6400 31.7297 0.1106
47.6600 31.7431 0.1008
47.6800 31.7564 0.1054
47.7000 31.7698 0.1114
47.7200 31.7831 0.1007
47.7400 31.7964 0.1078
47.7600 31.8098 0.1085
47.7800 31.8231 0.1027
47.8000 31.8364 0.1093
47.8200 31.8497 0.1057
47.8400 31.8630 0.1029
47.8600 31.8764 0.1008
47.8800 31.8897 0.1061
47.9000 31.9030 0.1001
47.9200 31.9163 0.1015
47.9400 31.9297 0.1054
47.9600 31.9430 0.0979
47.9800 31.9563 0.1047
48.0000 31.9697 0.1010
48.0200 31.9830 0.1010
48.0400 31.9964 0.1022
48.0600 32.0097 0.0997
48.0800 32.0230 0.0988
48.1000 32.0364 0.1036
48.1200 32.0497 0.0980
48.1400 32.0631 0.0988
48.1600 32.0764 0.1009
48.1800 32.0897 0.0991
48.2000 32.1031 0.0995
48.2200 32.1164 0.1027
48.2400 32.1298 0.1008
48.2600 32.1430 0.0997
48.2800 32.1563 0.1045
48.3000 32.1696 0.0981
48.3200 32.1830 0.0977
48.3400 32.1963 0.1034
48.3600 32.2097 0.0954
48.3800 32.2230 0.0958
48.4000 32.2364 0.1021
48.4200 32.2498 0.1046
48.4400 32.2631 0.0907
48.4600 32.2764 0.1066
48.4800 32.2898 0.1011
48.5000 32.3031 0.0908
48.5200 32.3164 0.1016
48.5400 32.3297 0.1030
48.5600 32.3430 0.0948
48.5800 32.3564 0.0960
48.6000 32.3697 0.0989
48.6200 32.3830 0.0986
48.6400 32.3963 0.0996
48.6600 32.4097 0.0987
48.6800 32.4230 0.0921
48.7000 32.4363 0.0999
48.7200 32.4497 0.1003
48.7400 32.4631 0.0904
48.7600 32.4764 0.0992
48.7800 32.4898 0.0973
48.8000 32.5031 0.0900
48.8200 32.5164 0.0949
48.8400 32.5298 0.0999
48.8600 32.5431 0.0889
48.8800 32.5564 0.0974
48.9000 32.5697 0.0978
48.9200 32.5830 0.0884
48.9400 32.5964 0.0974
48.9600 32.6097 0.0926
48.9800 32.6230 0.0897
49.0000 32.6363 0.0989
49.0200 32.6497 0.0963
49.0400 32.6630 0.0854
49.0600 32.6764 0.0970
49.0800 32.6897 0.0993
49.1000 32.7030 0.0907
49.1200 32.7164 0.0974
49.1400 32.7298 0.0923
49.1600 32.7431 0.0906
49.1800 32.7564 0.0961
49.2000 32.7697 0.0931
49.2200 32.7831 0.0873
49.2400 32.7964 0.1001
49.2600 32.8097 0.0896
49.2800 32.8231 0.0876
49.3000 32.8364 0.1023
49.3200 32.8497 0.0881
49.3400 32.8630 0.0860
49.3600 32.8763 0.1035
49.3800 32.8896 0.0869
49.4000 32.9030 0.0849
49.4200 32.9164 0.0965
49.4400 32.9297 0.0878
49.4600 32.9431 0.0850
49.4800 32.9564 0.0970
49.5000 32.9698 0.0869
49.5200 32.9831 0.0888
49.5400 32.9964 0.0967
49.5600 33.0097 0.0898
49.5800 33.0231 0.0880
49.6000 33.0364 0.0908
49.6200 33.0497 0.0907
49.6400 33.0630 0.0858
49.6600 33.0764 0.0925
49.6800 33.0897 0.0853
49.7000 33.1030 0.0850
49.7200 33.1163 0.0975
49.7400 33.1297 0.0839
49.7600 33.1430 0.0822
49.7800 33.1563 0.0950
49.8000 33.1697 0.0852
49.8200 33.1830 0.0850
49.8400 33.1964 0.0960
49.8600 33.2098 0.0794
49.8800 33.2231 0.0820
49.9000 33.2364 0.0951
49.9200 33.2498 0.0813
49.9400 33.2631 0.0900
49.9600 33.2765 0.0915
49.9800 33.2898 0.0811
50.0000 33.3031 0.0887
50.0200 33.3164 0.0911
50.0400 33.3297 0.0859
50.0600 33.3430 0.0840
50.0800 33.3563 0.0863
50.1000 33.3697 0.0872
50.1200 33.3830 0.0842
50.1400 33.3964 0.0889
50.1600 33.4097 0.0890
50.1800 33.4230 0.0835
50.2000 33.4364 0.0903
50.2200 33.4497 0.0807
50.2400 33.4631 0.0890
50.2600 33.4764 0.0912
50.2800 33.4897 0.0784
50.3000 33.5031 0.0845
50.3200 33.5164 0.0887
50.3400 33.5297 0.0790
50.3600 33.5431 0.0826
50.3800 33.5564 0.0912
50.4000 33.5698 0.0785
50.4200 33.5831 0.0856
50.4400 33.5963 0.0863
50.4600 33.6096 0.0757
50.4800 33.6230 0.0867
50.5000 33.6363 0.0867
50.5200 33.6496 0.0735
50.5400 33.6630 0.0859
50.5600 33.6764 0.0881
50.5800 33.6898 0.0775
50.6000 33.7031 0.0819
50.6200 33.7165 0.0815
50.6400 33.7298 0.0819
50.6600 33.7431 0.0809
50.6800 33.7564 0.0803
50.7000 33.7697 0.0749
50.7200 33.7830 0.0820
50.7400 33.7963 0.0879
50.7600 33.8097 0.0735
50.7800 33.8230 0.0790
50.8000 33.8363 0.0872
50.8200 33.8497 0.0789
50.8400 33.8631 0.0750
50.8600 33.8764 0.0818
50.8800 33.8897 0.0843
50.9000 33.9031 0.0731
50.9200 33.9164 0.0801
50.9400 33.9298 0.0797
50.9600 33.9431 0.0779
50.9800 33.9564 0.0799
51.0000 33.9697 0.0794
51.0200 33.9830 0.0807
51.0400 33.9964 0.0734
51.0600 34.0097 0.0790
51.0800 34.0230 0.0806
51.1000 34.0364 0.0766
51.1200 34.0497 0.0790
51.1400 34.0630 0.0749
51.1600 34.0763 0.0776
51.1800 34.0896 0.0749
51.2000 34.1030 0.0785
51.2200 34.1164 0.0802
51.2400 34.1297 0.0722
51.2600 34.1431 0.0817
51.2800 34.1564 0.0769
51.3000 34.1698 0.0726
51.3200 34.1831 0.0780
51.3400 34.1964 0.0791
51.3600 34.2097 0.0739
51.3800 34.2231 0.0795
51.4000 34.2365 0.0786
51.4200 34.2498 0.0700
51.4400 34.2631 0.0812
51.4600 34.2764 0.0754
51.4800 34.2898 0.0716
51.5000 34.3031 0.0826
51.5200 34.3163 0.0703
51.5400 34.3296 0.0740
51.5600 34.3430 0.0782
51.5800 34.3563 0.0737
51.6000 34.3697 0.0732
51.6200 34.3830 0.0763
51.6400 34.3964 0.0727
51.6600 34.4098 0.0740
51.6800 34.4231 0.0706
51.7000 34.4365 0.0705
51.7200 34.4498 0.0747
51.7400 34.4631 0.0707
51.7600 34.4764 0.0732
51.7800 34.4897 0.0722
51.8000 34.5030 0.0729
51.8200 34.5164 0.0750
51.8400 34.5297 0.0672
51.8600 34.5431 0.0719
51.8800 34.5564 0.0740
51.9000 34.5697 0.0661
51.9200 34.5830 0.0726
51.9400 34.5964 0.0753
51.9600 34.6097 0.0672
51.9800 34.6230 0.0713
52.0000 34.6363 0.0747
52.0200 34.6497 0.0635
52.0400 34.6630 0.0688
52.0600 34.6764 0.0717
52.0800 34.6897 0.0654
52.1000 34.7031 0.0665
52.1200 34.7165 0.0739
52.1400 34.7298 0.0640
52.1600 34.7431 0.0685
52.1800 34.7564 0.0760
52.2000 34.7697 0.0654
52.2200 34.7830 0.0642
52.2400 34.7963 0.0708
52.2600 34.8096 0.0680
52.2800 34.8230 0.0625
52.3000 34.8364 0.0692
52.3200 34.8497 0.0677
52.3400 34.8630 0.0661
52.3600 34.8764 0.0717
52.3800 34.8898 0.0627
52.4000 34.9031 0.0631
52.4200 34.9164 0.0656
52.4400 34.9297 0.0685
52.4600 34.9431 0.0642
52.4800 34.9564 0.0646
52.5000 34.9698 0.0669
52.5200 34.9831 0.0604
52.5400 34.9964 0.0644
52.5600 35.0097 0.0702
52.5800 35.0230 0.0605
52.6000 35.0363 0.0652
52.6200 35.0496 0.0641
52.6400 35.0630 0.0647
52.6600 35.0763 0.0708
52.6800 35.0897 0.0583
52.7000 35.1030 0.0670
52.7200 35.1164 0.0681
52.7400 35.1298 0.0603
52.7600 35.1431 0.0593
52.7800 35.1564 0.0730
52.8000 35.1698 0.0600
52.8200 35.1831 0.0578
52.8400 35.1964 0.0708
52.8600 35.2097 0.0560
52.8800 35.2230 0.0609
52.9000 35.2363 0.0688
52.9200 35.2497 0.0561
52.9400 35.2630 0.0648
52.9600 35.2763 0.0688
52.9800 35.2897 0.0568
53.0000 35.3030 0.0674
53.0200 35.3164 0.0662
53.0400 35.3298 0.0533
53.0600 35.3431 0.0628
53.0800 35.3564 0.0601
53.1000 35.3698 0.0580
53.1200 35.3831 0.0685
53.1400 35.3964 0.0585
53.1600 35.4097 0.0582
53.1800 35.4230 0.0658
53.2000 35.4364 0.0535
53.2200 35.4497 0.0572
53.2400 35.4631 0.0635
53.2600 35.4764 0.0587
53.2800 35.4898 0.0597
53.3000 35.5031 0.0611
53.3200 35.5164 0.0570
53.3400 35.5297 0.0629
53.3600 35.5430 0.0629
53.3800 35.5563 0.0531
53.4000 35.5697 0.0644
53.4200 35.5830 0.0603
53.4400 35.5963 0.0549
53.4600 35.6097 0.0623
53.4800 35.6231 0.0572
53.5000 35.6364 0.0538
53.5200 35.6497 0.0621
53.5400 35.6631 0.0573
53.5600 35.6764 0.0589
53.5800 35.6898 0.0572
53.6000 35.7031 0.0558
53.6200 35.7164 0.0604
53.6400 35.7297 0.0568
53.6600 35.7431 0.0517
53.6800 35.7564 0.0630
53.7000 35.7697 0.0506
53.7200 35.7830 0.0541
53.7400 35.7963 0.0602
53.7600 35.8097 0.0479
53.7800 35.8230 0.0581
53.8000 35.8364 0.0576
53.8200 35.8497 0.0500
53.8400 35.8631 0.0575
53.8600 35.8764 0.0578
53.8800 35.8898 0.0512
53.9000 35.9031 0.0562
53.9200 35.9165 0.0532
53.9400 35.9298 0.0518
53.9600 35.9430 0.0578
53.9800 35.9563 0.0486
54.0000 35.9697 0.0545
54.0200 35.9830 0.0586
54.0400 35.9964 0.0504
54.0600 36.0097 0.0570
54.0800 36.0230 0.0577
54.1000 36.0364 0.0509
54.1200 36.0497 0.0558
54.1400 36.0630 0.0525
54.1600 36.0764 0.0509
54.1800 36.0897 0.0557
54.2000 36.1031 0.0529
54.2200 36.1164 0.0483
54.2400 36.1297 0.0556
54.2600 36.1431 0.0520
54.2800 36.1565 0.0488
54.3000 36.1698 0.0566
54.3200 36.1831 0.0465
54.3400 36.1964 0.0535
54.3600 36.2097 0.0491
54.3800 36.2231 0.0441
54.4000 36.2364 0.0507
54.4200 36.2497 0.0513
54.4400 36.2630 0.0450
54.4600 36.2763 0.0501
54.4800 36.2897 0.0490
54.5000 36.3030 0.0448
54.5200 36.3164 0.0493
54.5400 36.3298 0.0479
54.5600 36.3431 0.0474
54.5800 36.3564 0.0467
54.6000 36.3698 0.0438
54.6200 36.3831 0.0492
54.6400 36.3964 0.0453
54.6600 36.4098 0.0437
54.6800 36.4230 0.0544
54.7000 36.4364 0.0476
54.7200 36.4497 0.0425
54.7400 36.4630 0.0505
54.7600 36.4764 0.0456
54.7800 36.4897 0.0411
54.8000 36.5030 0.0545
54.8200 36.5164 0.0423
54.8400 36.5297 0.0398
54.8600 36.5430 0.0593
54.8800 36.5564 0.0387
54.9000 36.5697 0.0447
54.9200 36.5831 0.0513
54.9400 36.5964 0.0347
54.9600 36.6097 0.0467
54.9800 36.6231 0.0475
55.0000 36.6364 0.0386
55.0200 36.6497 0.0481
55.0400 36.6630 0.0469
55.0600 36.6763 0.0382
55.0800 36.6897 0.0532
55.1000 36.7030 0.0393
55.1200 36.7163 0.0416
55.1400 36.7296 0.0489
55.1600 36.7430 0.0404
55.1800 36.7563 0.0395
55.2000 36.7697 0.0484
55.2200 36.7830 0.0402
55.2400 36.7964 0.0397
55.2600 36.8097 0.0425
55.2800 36.8231 0.0417
55.3000 36.8364 0.0411
55.3200 36.8497 0.0424
55.3400 36.8630 0.0415
55.3600 36.8764 0.0445
55.3800 36.8898 0.0390
55.4000 36.9031 0.0440
55.4200 36.9164 0.0405
55.4400 36.9298 0.0404
55.4600 36.9431 0.0425
55.4800 36.9564 0.0371
55.5000 36.9697 0.0398
55.5200 36.9830 0.0423
55.5400 36.9963 0.0386
55.5600 37.0096 0.0390
55.5800 37.0230 0.0365
55.6000 37.0363 0.0364
55.6200 37.0497 0.0416
55.6400 37.0631 0.0365
55.6600 37.0765 0.0314
55.6800 37.0898 0.0429
55.7000 37.1031 0.0344
55.7200 37.1165 0.0352
55.7400 37.1298 0.0432
55.7600 37.1431 0.0297
55.7800 37.1564 0.0409
55.8000 37.1697 0.0415
55.8200 37.1830 0.0289
55.8400 37.1963 0.0440
55.8600 37.2096 0.0437
55.8800 37.2230 0.0260
55.9000 37.2363 0.0403
55.9200 37.2497 0.0375
55.9400 37.2630 0.0245
55.9600 37.2763 0.0453
55.9800 37.2897 0.0371
56.0000 37.3031 0.0252
56.0200 37.3165 0.0445
56.0400 37.3298 0.0297
56.0600 37.3431 0.0305
56.0800 37.3564 0.0452
56.1000 37.3698 0.0288
56.1200 37.3831 0.0308
56.1400 37.3964 0.0411
56.1600 37.4097 0.0292
56.1800 37.4231 0.0323
56.2000 37.4364 0.0362
56.2200 37.4497 0.0312
56.2400 37.4630 0.0312
56.2600 37.4763 0.0338
56.2800 37.4897 0.0276
56.3000 37.5030 0.0324
56.3200 37.5164 0.0325
56.3400 37.5297 0.0329
56.3600 37.5431 0.0308
56.3800 37.5564 0.0321
56.4000 37.5697 0.0334
56.4200 37.5831 0.0308
56.4400 37.5964 0.0335
56.4600 37.6097 0.0338
56.4800 37.6231 0.0264
56.5000 37.6364 0.0348
56.5200 37.6497 0.0338
56.5400 37.6631 0.0273
56.5600 37.6764 0.0354
56.5800 37.6897 0.0308
56.6000 37.7030 0.0347
56.6200 37.7163 0.0346
56.6400 37.7297 0.0296
56.6600 37.7430 0.0308
56.6800 37.7564 0.0318
56.7000 37.7697 0.0297
56.7200 37.7831 0.0336
56.7400 37.7965 0.0280
56.7600 37.8098 0.0296
56.7800 37.8231 0.0342
56.8000 37.8364 0.0281
56.8200 37.8498 0.0322
56.8400 37.8631 0.0302
56.8600 37.8764 0.0271
56.8800 37.8897 0.0313
56.9000 37.9030 0.0316
56.9200 37.9164 0.0284
56.9400 37.9297 0.0298
56.9600 37.9430 0.0314
56.9800 37.9563 0.0268
57.0000 37.9697 0.0320
57.0200 37.9830 0.0388
57.0400 37.9964 0.0261
57.0600 38.0097 0.0286
57.0800 38.0231 0.0338
57.1000 38.0365 0.0186
57.1200 38.0498 0.0331
57.1400 38.0631 0.0345
57.1600 38.0764 0.0228
57.1800 38.0898 0.0320
57.2000 38.1031 0.0313
57.2200 38.1164 0.0236
57.2400 38.1297 0.0341
57.2600 38.1430 0.0306
57.2800 38.1564 0.0196
57.3000 38.1697 0.0317
57.3200 38.1830 0.0249
57.3400 38.1963 0.0243
57.3600 38.2097 0.0289
57.3800 38.2230 0.0242
57.4000 38.2364 0.0229
57.4200 38.2497 0.0289
57.4400 38.2631 0.0224
57.4600 38.2764 0.0266
57.4800 38.2897 0.0236
57.5000 38.3030 0.0188
57.5200 38.3164 0.0287
57.5400 38.3298 0.0236
57.5600 38.3431 0.0188
57.5800 38.3564 0.0245
57.6000 38.3697 0.0232
57.6200 38.3831 0.0210
57.6400 38.3964 0.0261
57.6600 38.4097 0.0167
57.6800 38.4230 0.0222
57.7000 38.4363 0.0260
57.7200 38.4497 0.0096
57.7400 38.4630 0.0290
57.7600 38.4763 0.0210
57.7800 38.4897 0.0096
57.8000 38.5031 0.0308
57.8200 38.5165 0.0198
57.8400 38.5298 0.0076
57.8600 38.5431 0.0288
57.8800 38.5565 0.0174
57.9000 38.5698 0.0120
57.9200 38.5831 0.0298
57.9400 38.5964 0.0142
57.9600 38.6096 0.0159
57.9800 38.6230 0.0324
58.0000 38.6363 0.0109
58.0200 38.6497 0.0142
58.0400 38.6630 0.0322
58.0600 38.6763 0.0110
58.0800 38.6897 0.0161
58.1000 38.7031 0.0299
58.1200 38.7164 0.0088
58.1400 38.7298 0.0204
58.1600 38.7431 0.0288
58.1800 38.7565 -0.0012
58.2000 38.7698 0.0244
58.2200 38.7831 0.0269
58.2400 38.7964 0.0057
58.2600 38.8098 0.0196
58.2800 38.8231 0.0160
58.3000 38.8364 0.0080
58.3200 38.8497 0.0208
58.3400 38.8630 0.0155
58.3600 38.8764 0.0068
58.3800 38.8897 0.0199
58.4000 38.9030 0.0153
58.4200 38.9163 0.0094
58.4400 38.9297 0.0189
58.4600 38.9431 0.0118
58.4800 38.9564 0.0118
58.5000 38.9697 0.0180
58.5200 38.9831 0.0130
58.5400 38.9964 0.0112
58.5600 39.0097 0.0155
58.5800 39.0231 0.0112
58.6000 39.0364 0.0117
58.6200 39.0498 0.0146
58.6400 39.0631 0.0135
58.6600 39.0764 0.0100
58.6800 39.0897 0.0165
58.7000 39.1030 0.0127
58.7200 39.1164 0.0084
58.7400 39.1297 0.0148
58.7600 39.1430 0.0111
58.7800 39.1563 0.0097
58.8000 39.1697 0.0105
58.8200 39.1830 0.0125
58.8400 39.1964 0.0111
58.8600 39.2097 0.0105
58.8800 39.2231 0.0107
58.9000 39.2364 0.0049
58.9200 39.2498 0.0122
58.9400 39.2631 0.0128
58.9600 39.2764 0.0039
58.9800 39.2898 0.0129
59.0000 39.3031 0.0094
59.0200 39.3164 0.0039
59.0400 39.3297 0.0112
59.0600 39.3430 0.0107
59.0800 39.3564 0.0029
59.1000 39.3697 0.0119
59.1200 39.3830 0.0092
59.1400 39.3963 0.0014
59.1600 39.4097 0.0079
59.1800 39.4230 0.0076
59.2000 39.4363 0.0054
59.2200 39.4497 0.0073
59.2400 39.4630 0.0042
59.2600 39.4764 0.0033
59.2800 39.4897 0.0059
59.3000 39.5031 0.0053
59.3200 39.5164 0.0047
59.3400 39.5298 0.0090
59.3600 39.5431 0.0061
59.3800 39.5564 0.0005
59.4000 39.5697 0.0063
59.4200 39.5830 0.0055
59.4400 39.5964 0.0023
59.4600 39.6097 0.0039
59.4800 39.6230 0.0056
59.5000 39.6363 0.0030
59.5200 39.6497 0.0038
59.5400 39.6630 0.0015
59.5600 39.6763 0.0047
59.5800 39.6897 0.0024
59.6000 39.7031 0.0003
59.6200 39.7165 0.0005
59.6400 39.7298 0.0021
59.6600 39.7431 0.0034
59.6800 39.7564 0.0007
59.7000 39.7698 0.0020
59.7200 39.7831 0.0034
59.7400 39.7964 -0.0017
59.7600 39.8097 -0.0033
59.7800 39.8230 0.0045
59.8000 39.8364 -0.0021
59.8200 39.8497 -0.0047
59.8400 39.8630 0.0082
59.8600 39.8763 -0.0070
59.8800 39.8897 -0.0013
59.9000 39.9030 0.0021
59.9200 39.9163 -0.0040
59.9400 39.9297 0.0000
59.9600 39.9431 0.0000
59.9800 39.9564 -0.0085
60.0000 39.9698 0.0037
60.0200 39.9831 -0.0042
60.0400 39.9964 -0.0165
60.0460 40.0003 -0.0254
