Raw Data
Time Displacement Force
(s) (mm) (N)
0.0000 0.0000 -0.1669
0.0200 0.0001 -0.1552
0.0400 0.0021 -0.0930
0.0600 0.0098 -0.0956
0.0800 0.0215 -0.1760
0.1000 0.0339 -0.1705
0.1200 0.0467 -0.1346
0.1400 0.0602 -0.1718
0.1600 0.0743 -0.1568
0.1800 0.0885 -0.1594
0.2000 0.1024 -0.1817
0.2200 0.1160 -0.1551
0.2400 0.1293 -0.1570
0.2600 0.1426 -0.1736
0.2800 0.1560 -0.1473
0.3000 0.1694 -0.1596
0.3200 0.1827 -0.1744
0.3400 0.1961 -0.1472
0.3600 0.2094 -0.1662
0.3800 0.2227 -0.1674
0.4000 0.2361 -0.1554
0.4200 0.2494 -0.1735
0.4400 0.2627 -0.1588
0.4600 0.2760 -0.1629
0.4800 0.2894 -0.1706
0.5000 0.3027 -0.1667
0.5200 0.3161 -0.1668
0.5400 0.3294 -0.1712
0.5600 0.3427 -0.1686
0.5800 0.3561 -0.1698
0.6000 0.3694 -0.1711
0.6200 0.3828 -0.1743
0.6400 0.3961 -0.1762
0.6600 0.4095 -0.1736
0.6800 0.4228 -0.1743
0.7000 0.4361 -0.1756
0.7200 0.4494 -0.1733
0.7400 0.4628 -0.1817
0.7600 0.4761 -0.1742
0.7800 0.4895 -0.1733
0.8000 0.5028 -0.1879
0.8200 0.5161 -0.1723
0.8400 0.5294 -0.1740
0.8600 0.5428 -0.1847
0.8800 0.5561 -0.1760
0.9000 0.5693 -0.1746
0.9200 0.5827 -0.1846
0.9400 0.5960 -0.1751
0.9600 0.6094 -0.1859
0.9800 0.6227 -0.1858
1.0000 0.6361 -0.1757
1.0200 0.6494 -0.1895
1.0400 0.6628 -0.1916
1.0600 0.6761 -0.1814
1.0800 0.6895 -0.1928
1.1000 0.7028 -0.1896
1.1200 0.7161 -0.1822
1.1400 0.7294 -0.1976
1.1600 0.7427 -0.1903
1.1800 0.7560 -0.1821
1.2000 0.7694 -0.1947
1.2200 0.7828 -0.1894
1.2400 0.7961 -0.1875
1.2600 0.8094 -0.2027
1.2800 0.8227 -0.1935
1.3000 0.8361 -0.1895
1.3200 0.8494 -0.2000
1.3400 0.8627 -0.1942
1.3600 0.8760 -0.1937
1.3800 0.8894 -0.2028
1.4000 0.9028 -0.1938
1.4200 0.9161 -0.2028
1.4400 0.9294 -0.2017
1.4600 0.9428 -0.1970
1.4800 0.9561 -0.2048
1.5000 0.9695 -0.2103
1.5200 0.9828 -0.1999
1.5400 0.9961 -0.2095
1.5600 1.0094 -0.2098
1.5800 1.0227 -0.2014
1.6000 1.0360 -0.2129
1.6200 1.0493 -0.2110
1.6400 1.0627 -0.2070
1.6600 1.0760 -0.2141
1.6800 1.0894 -0.2100
1.7000 1.1027 -0.2158
1.7200 1.1161 -0.2181
1.7400 1.1295 -0.2093
1.7600 1.1428 -0.2227
1.7800 1.1562 -0.2189
1.8000 1.1695 -0.2094
1.8200 1.1828 -0.2225
1.8400 1.1961 -0.2187
1.8600 1.2095 -0.2177
1.8800 1.2228 -0.2278
1.9000 1.2361 -0.2158
1.9200 1.2494 -0.2217
1.9400 1.2628 -0.2306
1.9600 1.2761 -0.2194
1.9800 1.2894 -0.2237
2.0000 1.3027 -0.2280
2.0200 1.3161 -0.2221
2.0400 1.3294 -0.2273
2.0600 1.3427 -0.2272
2.0800 1.3561 -0.2207
2.1000 1.3694 -0.2298
2.1200 1.3828 -0.2263
2.1400 1.3962 -0.2252
2.1600 1.4095 -0.2378
2.1800 1.4228 -0.2274
2.2000 1.4361 -0.2257
2.2200 1.4494 -0.2342
2.2400 1.4627 -0.2280
2.2600 1.4760 -0.2255
2.2800 1.4894 -0.2343
2.3000 1.5027 -0.2316
2.3200 1.5160 -0.2307
2.3400 1.5294 -0.2369
2.3600 1.5427 -0.2315
2.3800 1.5561 -0.2353
2.4000 1.5695 -0.2396
2.4200 1.5828 -0.2328
2.4400 1.5961 -0.2391
2.4600 1.6094 -0.2424
2.4800 1.6228 -0.2379
2.5000 1.6361 -0.2418
2.5200 1.6494 -0.2470
2.5400 1.6627 -0.2248
2.5600 1.6761 -0.2395
2.5800 1.6895 -0.2466
2.6000 1.7028 -0.2328
2.6200 1.7161 -0.2422
2.6400 1.7295 -0.2463
2.6600 1.7428 -0.2364
2.6800 1.7561 -0.2500
2.7000 1.7694 -0.2435
2.7200 1.7827 -0.2353
2.7400 1.7961 -0.2520
2.7600 1.8094 -0.2474
2.7800 1.8227 -0.2388
2.8000 1.8360 -0.2554
2.8200 1.8494 -0.2507
2.8400 1.8628 -0.2358
2.8600 1.8761 -0.2528
2.8800 1.8894 -0.2510
2.9000 1.9028 -0.2441
2.9200 1.9161 -0.2592
2.9400 1.9295 -0.2515
2.9600 1.9428 -0.2495
2.9800 1.9561 -0.2598
3.0000 1.9694 -0.2510
3.0200 1.9828 -0.2509
3.0400 1.9961 -0.2594
3.0600 2.0094 -0.2545
3.0800 2.0227 -0.2541
3.1000 2.0360 -0.2587
3.1200 2.0494 -0.2569
3.1400 2.0627 -0.2585
3.1600 2.0761 -0.2592
3.1800 2.0894 -0.2577
3.2000 2.1028 -0.2587
3.2200 2.1162 -0.2582
3.2400 2.1295 -0.2642
3.2600 2.1428 -0.2640
3.2800 2.1562 -0.2532
3.3000 2.1695 -0.2678
3.3200 2.1828 -0.2647
3.3400 2.1961 -0.2583
3.3600 2.2094 -0.2703
3.3800 2.2228 -0.2590
3.4000 2.2361 -0.2641
3.4200 2.2494 -0.2732
3.4400 2.2627 -0.2598
3.4600 2.2761 -0.2641
3.4800 2.2894 -0.2726
3.5000 2.3027 -0.2605
3.5200 2.3161 -0.2633
3.5400 2.3294 -0.2748
3.5600 2.3428 -0.2645
3.5800 2.3561 -0.2673
3.6000 2.3695 -0.2770
3.6200 2.3828 -0.2657
3.6400 2.3962 -0.2717
3.6600 2.4095 -0.2771
3.6800 2.4228 -0.2666
3.7000 2.4361 -0.2732
3.7200 2.4494 -0.2768
3.7400 2.4628 -0.2697
3.7600 2.4761 -0.2738
3.7800 2.4894 -0.2772
3.8000 2.5027 -0.2693
3.8200 2.5160 -0.2697
3.8400 2.5294 -0.2739
3.8600 2.5427 -0.2685
3.8800 2.5560 -0.2786
3.9000 2.5694 -0.2770
3.9200 2.5828 -0.2728
3.9400 2.5962 -0.2773
3.9600 2.6095 -0.2823
3.9800 2.6228 -0.2669
4.0000 2.6361 -0.2785
4.0200 2.6495 -0.2857
4.0400 2.6628 -0.2741
4.0600 2.6761 -0.2807
4.0800 2.6894 -0.2842
4.1000 2.7028 -0.2738
4.1200 2.7161 -0.2804
4.1400 2.7294 -0.2874
4.1600 2.7427 -0.2721
4.1800 2.7560 -0.2862
4.2000 2.7694 -0.2877
4.2200 2.7827 -0.2755
4.2400 2.7960 -0.2870
4.2600 2.8094 -0.2883
4.2800 2.8228 -0.2794
4.3000 2.8362 -0.2916
4.3200 2.8495 -0.2910
4.3400 2.8628 -0.2808
4.3600 2.8761 -0.2936
4.3800 2.8895 -0.2906
4.4000 2.9028 -0.2847
4.4200 2.9161 -0.2973
4.4400 2.9294 -0.2871
4.4600 2.9427 -0.2872
4.4800 2.9561 -0.2901
4.5000 2.9694 -0.2880
4.5200 2.9827 -0.2869
4.5400 2.9961 -0.2912
4.5600 3.0094 -0.2894
4.5800 3.0227 -0.2900
4.6000 3.0361 -0.2907
4.6200 3.0494 -0.2905
4.6400 3.0627 -0.2904
4.6600 3.0761 -0.2930
4.6800 3.0894 -0.2915
4.7000 3.1027 -0.2938
4.7200 3.1161 -0.2889
4.7400 3.1295 -0.2911
4.7600 3.1428 -0.2946
4.7800 3.1561 -0.2937
4.8000 3.1695 -0.2891
4.8200 3.1828 -0.2945
4.8400 3.1961 -0.2931
4.8600 3.2094 -0.2963
4.8800 3.2227 -0.2971
4.9000 3.2360 -0.2918
4.9200 3.2493 -0.2969
4.9400 3.2627 -0.3024
4.9600 3.2760 -0.2941
4.9800 3.2894 -0.3038
5.0000 3.3028 -0.3040
5.0200 3.3162 -0.2959
5.0400 3.3295 -0.3014
5.0600 3.3428 -0.3028
5.0800 3.3561 -0.3005
5.1000 3.3695 -0.3036
5.1200 3.3828 -0.3065
5.1400 3.3961 -0.3002
5.1600 3.4094 -0.3099
5.1800 3.4227 -0.2982
5.2000 3.4361 -0.3013
5.2200 3.4494 -0.3116
5.2400 3.4627 -0.3007
5.2600 3.4760 -0.3038
5.2800 3.4894 -0.3105
5.3000 3.5027 -0.3060
5.3200 3.5161 -0.3076
5.3400 3.5294 -0.3084
5.3600 3.5428 -0.3087
5.3800 3.5562 -0.3085
5.4000 3.5695 -0.3117
5.4200 3.5828 -0.3139
5.4400 3.5961 -0.3112
5.4600 3.6095 -0.3096
5.4800 3.6228 -0.3165
5.5000 3.6361 -0.3104
5.5200 3.6494 -0.3095
5.5400 3.6627 -0.3157
5.5600 3.6761 -0.3138
5.5800 3.6894 -0.3134
5.6000 3.7027 -0.3159
5.6200 3.7160 -0.3087
5.6400 3.7294 -0.3168
5.6600 3.7428 -0.3183
5.6800 3.7561 -0.3117
5.7000 3.7694 -0.3169
5.7200 3.7828 -0.3215
5.7400 3.7961 -0.3152
5.7600 3.8095 -0.3176
5.7800 3.8228 -0.3183
5.8000 3.8361 -0.3148
5.8200 3.8495 -0.3215
5.8400 3.8628 -0.3164
5.8600 3.8761 -0.3190
5.8800 3.8894 -0.3220
5.9000 3.9028 -0.3140
5.9200 3.9161 -0.3192
5.9400 3.9294 -0.3195
5.9600 3.9427 -0.3153
5.9800 3.9560 -0.3189
6.0000 3.9694 -0.3238
6.0200 3.9828 -0.3185
6.0400 3.9961 -0.3209
6.0600 4.0094 -0.3246
6.0800 4.0228 -0.3183
6.1000 4.0362 -0.3249
6.1200 4.0495 -0.3195
6.1400 4.0628 -0.3202
6.1600 4.0761 -0.3263
6.1800 4.0895 -0.3217
6.2000 4.1028 -0.3224
6.2200 4.1161 -0.3271
6.2400 4.1294 -0.3209
6.2600 4.1427 -0.3238
6.2800 4.1561 -0.3290
6.3000 4.1694 -0.3211
6.3200 4.1827 -0.3274
6.3400 4.1961 -0.3261
6.3600 4.2094 -0.3255
6.3800 4.2227 -0.3305
6.4000 4.2360 -0.3291
6.4200 4.2494 -0.3284
6.4400 4.2627 -0.3297
6.4600 4.2761 -0.3268
6.4800 4.2895 -0.3244
6.5000 4.3028 -0.3352
6.5200 4.3161 -0.3283
6.5400 4.3295 -0.3272
6.5600 4.3428 -0.3349
6.5800 4.3561 -0.3278
6.6000 4.3694 -0.3279
6.6200 4.3828 -0.3375
6.6400 4.3961 -0.3347
6.6600 4.4094 -0.3279
6.6800 4.4227 -0.3383
6.7000 4.4360 -0.3338
6.7200 4.4494 -0.3298
6.7400 4.4627 -0.3386
6.7600 4.4761 -0.3360
6.7800 4.4894 -0.3297
6.8000 4.5027 -0.3381
6.8200 4.5161 -0.3417
6.8400 4.5294 -0.3322
6.8600 4.5428 -0.3381
6.8800 4.5561 -0.3410
6.9000 4.5695 -0.3297
6.9200 4.5828 -0.3434
6.9400 4.5961 -0.3371
6.9600 4.6094 -0.3290
6.9800 4.6227 -0.3445
7.0000 4.6361 -0.3378
7.0200 4.6494 -0.3370
7.0400 4.6627 -0.3427
7.0600 4.6760 -0.3375
7.0800 4.6893 -0.3334
7.1000 4.7027 -0.3443
7.1200 4.7160 -0.3431
7.1400 4.7294 -0.3267
7.1600 4.7428 -0.3393
7.1800 4.7562 -0.3425
7.2000 4.7695 -0.3329
7.2200 4.7829 -0.3413
7.2400 4.7962 -0.3409
7.2600 4.8095 -0.3334
7.2800 4.8228 -0.3485
7.3000 4.8361 -0.3399
7.3200 4.8494 -0.3329
7.3400 4.8627 -0.3433
7.3600 4.8760 -0.3392
7.3800 4.8894 -0.3337
7.4000 4.9027 -0.3442
7.4200 4.9161 -0.3415
7.4400 4.9294 -0.3406
7.4600 4.9428 -0.3416
7.4800 4.9561 -0.3402
7.5000 4.9694 -0.3458
7.5200 4.9828 -0.3386
7.5400 4.9962 -0.3439
7.5600 5.0095 -0.3490
7.5800 5.0228 -0.3391
7.6000 5.0361 -0.3445
7.6200 5.0495 -0.3474
7.6400 5.0628 -0.3456
7.6600 5.0761 -0.3476
7.6800 5.0894 -0.3491
7.7000 5.1027 -0.3441
7.7200 5.1161 -0.3535
7.7400 5.1294 -0.3483
7.7600 5.1427 -0.3421
7.7800 5.1560 -0.3529
7.8000 5.1694 -0.3409
7.8200 5.1827 -0.3453
7.8400 5.1961 -0.3581
7.8600 5.2094 -0.3486
7.8800 5.2228 -0.3461
7.9000 5.2361 -0.3581
7.9200 5.2495 -0.3523
7.9400 5.2628 -0.3449
7.9600 5.2761 -0.3561
7.9800 5.2895 -0.3450
8.0000 5.3028 -0.3451
8.0200 5.3161 -0.3629
8.0400 5.3294 -0.3441
8.0600 5.3427 -0.3485
8.0800 5.3561 -0.3580
8.1000 5.3694 -0.3442
8.1200 5.3827 -0.3515
8.1400 5.3960 -0.3620
8.1600 5.4094 -0.3417
8.1800 5.4227 -0.3511
8.2000 5.4361 -0.3546
8.2200 5.4494 -0.3476
8.2400 5.4627 -0.3525
8.2600 5.4761 -0.3548
8.2800 5.4895 -0.3527
8.3000 5.5028 -0.3528
8.3200 5.5161 -0.3550
8.3400 5.5295 -0.3547
8.3600 5.5428 -0.3601
8.3800 5.5561 -0.3531
8.4000 5.5694 -0.3459
8.4200 5.5827 -0.3559
8.4400 5.5961 -0.3621
8.4600 5.6094 -0.3543
8.4800 5.6227 -0.3537
8.5000 5.6361 -0.3585
8.5200 5.6494 -0.3605
8.5400 5.6628 -0.3508
8.5600 5.6761 -0.3591
8.5800 5.6894 -0.3581
8.6000 5.7027 -0.3487
8.6200 5.7161 -0.3626
8.6400 5.7295 -0.3574
8.6600 5.7428 -0.3500
8.6800 5.7561 -0.3649
8.7000 5.7695 -0.3548
8.7200 5.7828 -0.3478
8.7400 5.7962 -0.3642
8.7600 5.8095 -0.3593
8.7800 5.8228 -0.3493
8.8000 5.8361 -0.3663
8.8200 5.8494 -0.3619
8.8400 5.8627 -0.3548
8.8600 5.8760 -0.3698
8.8800 5.8894 -0.3599
8.9000 5.9027 -0.3530
8.9200 5.9161 -0.3679
8.9400 5.9294 -0.3569
8.9600 5.9428 -0.3635
8.9800 5.9562 -0.3654
9.0000 5.9695 -0.3572
9.0200 5.9828 -0.3650
9.0400 5.9961 -0.3624
9.0600 6.0095 -0.3595
9.0800 6.0228 -0.3699
9.1000 6.0361 -0.3667
9.1200 6.0494 -0.3611
9.1400 6.0627 -0.3716
9.1600 6.0761 -0.3644
9.1800 6.0894 -0.3654
9.2000 6.1027 -0.3740
9.2200 6.1160 -0.3621
9.2400 6.1293 -0.3670
9.2600 6.1427 -0.3716
9.2800 6.1561 -0.3596
9.3000 6.1694 -0.3737
9.3200 6.1828 -0.3729
9.3400 6.1961 -0.3640
9.3600 6.2095 -0.3752
9.3800 6.2228 -0.3752
9.4000 6.2361 -0.3637
9.4200 6.2495 -0.3749
9.4400 6.2628 -0.3725
9.4600 6.2761 -0.3696
9.4800 6.2894 -0.3782
9.5000 6.3027 -0.3701
9.5200 6.3160 -0.3691
9.5400 6.3294 -0.3827
9.5600 6.3427 -0.3722
9.5800 6.3560 -0.3658
9.6000 6.3694 -0.3742
9.6200 6.3828 -0.3815
9.6400 6.3961 -0.3770
9.6600 6.4094 -0.3751
9.6800 6.4228 -0.3782
9.7000 6.4361 -0.3779
9.7200 6.4495 -0.3797
9.7400 6.4628 -0.3787
9.7600 6.4761 -0.3768
9.7800 6.4894 -0.3811
9.8000 6.5028 -0.3782
9.8200 6.5161 -0.3764
9.8400 6.5295 -0.3818
9.8600 6.5428 -0.3756
9.8800 6.5561 -0.3790
9.9000 6.5695 -0.3814
9.9200 6.5828 -0.3776
9.9400 6.5961 -0.3754
9.9600 6.6094 -0.3785
9.9800 6.6227 -0.3797
10.0000 6.6361 -0.3767
10.0200 6.6494 -0.3764
10.0400 6.6627 -0.3802
10.0600 6.6761 -0.3799
10.0800 6.6895 -0.3772
10.1000 6.7028 -0.3823
10.1200 6.7161 -0.3773
10.1400 6.7295 -0.3798
10.1600 6.7428 -0.3860
10.1800 6.7562 -0.3731
10.2000 6.7695 -0.3783
10.2200 6.7828 -0.3764
10.2400 6.7961 -0.3757
10.2600 6.8094 -0.3783
10.2800 6.8228 -0.3816
10.3000 6.8361 -0.3739
10.3200 6.8494 -0.3814
10.3400 6.8627 -0.3775
10.3600 6.8761 -0.3741
10.3800 6.8894 -0.3845
10.4000 6.9027 -0.3789
10.4200 6.9161 -0.3729
10.4400 6.9295 -0.3872
10.4600 6.9428 -0.3794
10.4800 6.9561 -0.3821
10.5000 6.9695 -0.3856
10.5200 6.9828 -0.3765
10.5400 6.9961 -0.3796
10.5600 7.0094 -0.3881
10.5800 7.0227 -0.3775
10.6000 7.0361 -0.3778
10.6200 7.0494 -0.3918
10.6400 7.0627 -0.3742
10.6600 7.0760 -0.3801
10.6800 7.0894 -0.3904
10.7000 7.1028 -0.3768
10.7200 7.1161 -0.3861
10.7400 7.1294 -0.3870
10.7600 7.1427 -0.3745
10.7800 7.1561 -0.3877
10.8000 7.1694 -0.3861
10.8200 7.1828 -0.3783
10.8400 7.1961 -0.3906
10.8600 7.2095 -0.3845
10.8800 7.2228 -0.3786
10.9000 7.2362 -0.3923
10.9200 7.2495 -0.3876
10.9400 7.2628 -0.3806
10.9600 7.2761 -0.3906
10.9800 7.2894 -0.3805
11.0000 7.3027 -0.3866
11.0200 7.3160 -0.3938
11.0400 7.3293 -0.3806
11.0600 7.3427 -0.3890
11.0800 7.3561 -0.3914
11.1000 7.3694 -0.3847
11.1200 7.3828 -0.3929
11.1400 7.3961 -0.3894
11.1600 7.4095 -0.3855
11.1800 7.4228 -0.3962
11.2000 7.4361 -0.3885
11.2200 7.4494 -0.3911
11.2400 7.4628 -0.3935
11.2600 7.4762 -0.3933
11.2800 7.4895 -0.3956
11.3000 7.5028 -0.3938
11.3200 7.5161 -0.3906
11.3400 7.5294 -0.3966
11.3600 7.5428 -0.3941
11.3800 7.5561 -0.3927
11.4000 7.5694 -0.4002
11.4200 7.5827 -0.3921
11.4400 7.5961 -0.3933
11.4600 7.6094 -0.3963
11.4800 7.6227 -0.3943
11.5000 7.6361 -0.4025
11.5200 7.6495 -0.4006
11.5400 7.6628 -0.3919
11.5600 7.6761 -0.4025
11.5800 7.6895 -0.3958
11.6000 7.7028 -0.3988
11.6200 7.7162 -0.3991
11.6400 7.7295 -0.3902
11.6600 7.7427 -0.4016
11.6800 7.7561 -0.3976
11.7000 7.7694 -0.3957
11.7200 7.7827 -0.4029
11.7400 7.7960 -0.3978
11.7600 7.8094 -0.3976
11.7800 7.8227 -0.4049
11.8000 7.8361 -0.4000
11.8200 7.8494 -0.3980
11.8400 7.8627 -0.4063
11.8600 7.8761 -0.3903
11.8800 7.8894 -0.3988
11.9000 7.9028 -0.4069
11.9200 7.9161 -0.3948
11.9400 7.9294 -0.3977
11.9600 7.9428 -0.4073
11.9800 7.9562 -0.3933
12.0000 7.9695 -0.3966
12.0200 7.9828 -0.4080
12.0400 7.9961 -0.3967
12.0600 8.0095 -0.3918
12.0800 8.0228 -0.4096
12.1000 8.0361 -0.3968
12.1200 8.0494 -0.3934
12.1400 8.0627 -0.4092
12.1600 8.0760 -0.3906
12.1800 8.0893 -0.3936
12.2000 8.1027 -0.4095
12.2200 8.1161 -0.3925
12.2400 8.1295 -0.3976
12.2600 8.1429 -0.4096
12.2800 8.1562 -0.3933
12.3000 8.1695 -0.3975
12.3200 8.1828 -0.4053
12.3400 8.1962 -0.3946
12.3600 8.2095 -0.4023
12.3800 8.2228 -0.4091
12.4000 8.2361 -0.3943
12.4200 8.2494 -0.3995
12.4400 8.2627 -0.4114
12.4600 8.2760 -0.3944
12.4800 8.2893 -0.3975
12.5000 8.3027 -0.4078
12.5200 8.3160 -0.3997
12.5400 8.3294 -0.4031
12.5600 8.3427 -0.4056
12.5800 8.3561 -0.3998
12.6000 8.3695 -0.4043
12.6200 8.3829 -0.4054
12.6400 8.3962 -0.3965
12.6600 8.4095 -0.4027
12.6800 8.4228 -0.4026
12.7000 8.4362 -0.3996
12.7200 8.4495 -0.4006
12.7400 8.4628 -0.4054
12.7600 8.4761 -0.4027
12.7800 8.4894 -0.4014
12.8000 8.5027 -0.4075
12.8200 8.5160 -0.4044
12.8400 8.5293 -0.4024
12.8600 8.5427 -0.4075
12.8800 8.5561 -0.4055
12.9000 8.5694 -0.4035
12.9200 8.5828 -0.4095
12.9400 8.5961 -0.4025
12.9600 8.6095 -0.4057
12.9800 8.6228 -0.4159
13.0000 8.6361 -0.4020
13.0200 8.6495 -0.4062
13.0400 8.6628 -0.4163
13.0600 8.6762 -0.4051
13.0800 8.6895 -0.4048
13.1000 8.7028 -0.4187
13.1200 8.7161 -0.4053
13.1400 8.7295 -0.4079
13.1600 8.7428 -0.4189
13.1800 8.7561 -0.4048
13.2000 8.7694 -0.4120
13.2200 8.7827 -0.4172
13.2400 8.7961 -0.4037
13.2600 8.8094 -0.4132
13.2800 8.8227 -0.4190
13.3000 8.8361 -0.4072
13.3200 8.8495 -0.4147
13.3400 8.8628 -0.4199
13.3600 8.8761 -0.4056
13.3800 8.8895 -0.4146
13.4000 8.9028 -0.4160
13.4200 8.9162 -0.4131
13.4400 8.9295 -0.4197
13.4600 8.9428 -0.4127
13.4800 8.9561 -0.4172
13.5000 8.9694 -0.4174
13.5200 8.9828 -0.4158
13.5400 8.9961 -0.4157
13.5600 9.0094 -0.4197
13.5800 9.0227 -0.4177
13.6000 9.0361 -0.4171
13.6200 9.0494 -0.4163
13.6400 9.0627 -0.4210
13.6600 9.0760 -0.4198
13.6800 9.0894 -0.4158
13.7000 9.1028 -0.4206
13.7200 9.1161 -0.4231
13.7400 9.1295 -0.4163
13.7600 9.1428 -0.4220
13.7800 9.1562 -0.4243
13.8000 9.1695 -0.4166
13.8200 9.1828 -0.4238
13.8400 9.1961 -0.4194
13.8600 9.2094 -0.4168
13.8800 9.2228 -0.4278
13.9000 9.2361 -0.4189
13.9200 9.2494 -0.4197
13.9400 9.2627 -0.4263
13.9600 9.2761 -0.4178
13.9800 9.2894 -0.4196
14.0000 9.3027 -0.4243
14.0200 9.3161 -0.4194
14.0400 9.3294 -0.4213
14.0600 9.3428 -0.4268
14.0800 9.3561 -0.4203
14.1000 9.3694 -0.4243
14.1200 9.3828 -0.4211
14.1400 9.3961 -0.4220
14.1600 9.4095 -0.4246
14.1800 9.4228 -0.4199
14.2000 9.4361 -0.4242
14.2200 9.4495 -0.4251
14.2400 9.4628 -0.4213
14.2600 9.4761 -0.4262
14.2800 9.4894 -0.4248
14.3000 9.5027 -0.4226
14.3200 9.5160 -0.4255
14.3400 9.5293 -0.4285
14.3600 9.5427 -0.4207
14.3800 9.5561 -0.4236
14.4000 9.5695 -0.4309
14.4200 9.5828 -0.4224
14.4400 9.5962 -0.4227
14.4600 9.6095 -0.4356
14.4800 9.6228 -0.4215
14.5000 9.6362 -0.4267
14.5200 9.6495 -0.4326
14.5400 9.6627 -0.4186
14.5600 9.6760 -0.4297
14.5800 9.6893 -0.4300
14.6000 9.7027 -0.4231
14.6200 9.7160 -0.4259
14.6400 9.7294 -0.4300
14.6600 9.7427 -0.4223
14.6800 9.7561 -0.4254
14.7000 9.7694 -0.4313
14.7200 9.7828 -0.4193
14.7400 9.7961 -0.4305
14.7600 9.8095 -0.4298
14.7800 9.8228 -0.4190
14.8000 9.8362 -0.4310
14.8200 9.8495 -0.4253
14.8400 9.8628 -0.4195
14.8600 9.8761 -0.4328
14.8800 9.8895 -0.4238
14.9000 9.9027 -0.4185
14.9200 9.9161 -0.4326
14.9400 9.9294 -0.4224
14.9600 9.9427 -0.4258
14.9800 9.9561 -0.4316
15.0000 9.9694 -0.4191
15.0200 9.9827 -0.4288
15.0400 9.9961 -0.4322
15.0600 10.0094 -0.4204
15.0800 10.0227 -0.4300
15.1000 10.0361 -0.4291
15.1200 10.0494 -0.4233
15.1400 10.0628 -0.4319
15.1600 10.0761 -0.4322
15.1800 10.0895 -0.4219
15.2000 10.1028 -0.4315
15.2200 10.1161 -0.4210
15.2400 10.1295 -0.4289
15.2600 10.1428 -0.4328
15.2800 10.1561 -0.4221
15.3000 10.1694 -0.4306
15.3200 10.1828 -0.4306
15.3400 10.1961 -0.4253
15.3600 10.2094 -0.4336
15.3800 10.2227 -0.4299
15.4000 10.2360 -0.4267
15.4200 10.2494 -0.4339
15.4400 10.2627 -0.4250
15.4600 10.2761 -0.4295
15.4800 10.2894 -0.4354
15.5000 10.3028 -0.4183
15.5200 10.3162 -0.4311
15.5400 10.3295 -0.4351
15.5600 10.3428 -0.4204
15.5800 10.3562 -0.4327
15.6000 10.3695 -0.4331
15.6200 10.3828 -0.4216
15.6400 10.3961 -0.4317
15.6600 10.4094 -0.4336
15.6800 10.4228 -0.4190
15.7000 10.4361 -0.4304
15.7200 10.4494 -0.4334
15.7400 10.4627 -0.4240
15.7600 10.4760 -0.4274
15.7800 10.4894 -0.4386
15.8000 10.5027 -0.4217
15.8200 10.5160 -0.4268
15.8400 10.5294 -0.4410
15.8600 10.5428 -0.4198
15.8800 10.5561 -0.4253
15.9000 10.5694 -0.4397
15.9200 10.5828 -0.4215
15.9400 10.5961 -0.4280
15.9600 10.6095 -0.4360
15.9800 10.6228 -0.4253
16.0000 10.6361 -0.4241
16.0200 10.6494 -0.4369
16.0400 10.6628 -0.4265
16.0600 10.6761 -0.4300
16.0800 10.6894 -0.4344
16.1000 10.7027 -0.4274
16.1200 10.7160 -0.4243
16.1400 10.7294 -0.4373
16.1600 10.7427 -0.4303
16.1800 10.7561 -0.4205
16.2000 10.7694 -0.4398
16.2200 10.7828 -0.4300
16.2400 10.7962 -0.4207
16.2600 10.8095 -0.4425
16.2800 10.8228 -0.4294
16.3000 10.8361 -0.4238
16.3200 10.8495 -0.4400
16.3400 10.8628 -0.4248
16.3600 10.8761 -0.4306
16.3800 10.8894 -0.4439
16.4000 10.9028 -0.4236
16.4200 10.9161 -0.4311
16.4400 10.9294 -0.4415
16.4600 10.9427 -0.4266
16.4800 10.9560 -0.4373
16.5000 10.9694 -0.4380
16.5200 10.9827 -0.4251
16.5400 10.9960 -0.4336
16.5600 11.0094 -0.4390
16.5800 11.0228 -0.4281
16.6000 11.0361 -0.4422
16.6200 11.0495 -0.4373
16.6400 11.0628 -0.4256
16.6600 11.0762 -0.4413
16.6800 11.0895 -0.4387
16.7000 11.1028 -0.4301
16.7200 11.1160 -0.4365
16.7400 11.1294 -0.4382
16.7600 11.1427 -0.4313
16.7800 11.1561 -0.4376
16.8000 11.1694 -0.4409
16.8200 11.1827 -0.4302
16.8400 11.1961 -0.4362
16.8600 11.2095 -0.4370
16.8800 11.2228 -0.4317
16.9000 11.2361 -0.4369
16.9200 11.2494 -0.4367
16.9400 11.2628 -0.4323
16.9600 11.2761 -0.4327
16.9800 11.2894 -0.4403
17.0000 11.3027 -0.4348
17.0200 11.3161 -0.4316
17.0400 11.3295 -0.4399
17.0600 11.3428 -0.4328
17.0800 11.3561 -0.4334
17.1000 11.3694 -0.4385
17.1200 11.3828 -0.4345
17.1400 11.3961 -0.4339
17.1600 11.4094 -0.4408
17.1800 11.4227 -0.4343
17.2000 11.4361 -0.4342
17.2200 11.4494 -0.4478
17.2400 11.4627 -0.4348
17.2600 11.4760 -0.4367
17.2800 11.4894 -0.4414
17.3000 11.5028 -0.4390
17.3200 11.5161 -0.4400
17.3400 11.5294 -0.4407
17.3600 11.5428 -0.4351
17.3800 11.5561 -0.4417
17.4000 11.5695 -0.4475
17.4200 11.5828 -0.4385
17.4400 11.5961 -0.4470
17.4600 11.6094 -0.4454
17.4800 11.6228 -0.4363
17.5000 11.6361 -0.4490
17.5200 11.6494 -0.4445
17.5400 11.6627 -0.4401
17.5600 11.6760 -0.4498
17.5800 11.6894 -0.4440
17.6000 11.7027 -0.4419
17.6200 11.7160 -0.4515
17.6400 11.7294 -0.4469
17.6600 11.7428 -0.4435
17.6800 11.7561 -0.4507
17.7000 11.7695 -0.4450
17.7200 11.7828 -0.4435
17.7400 11.7961 -0.4474
17.7600 11.8095 -0.4439
17.7800 11.8228 -0.4468
17.8000 11.8361 -0.4442
17.8200 11.8494 -0.4415
17.8400 11.8627 -0.4440
17.8600 11.8761 -0.4494
17.8800 11.8894 -0.4407
17.9000 11.9027 -0.4443
17.9200 11.9161 -0.4448
17.9400 11.9294 -0.4427
17.9600 11.9428 -0.4447
17.9800 11.9561 -0.4433
18.0000 11.9694 -0.4440
18.0200 11.9828 -0.4424
18.0400 11.9961 -0.4410
18.0600 12.0095 -0.4421
18.0800 12.0228 -0.4439
18.1000 12.0361 -0.4413
18.1200 12.0495 -0.4442
18.1400 12.0628 -0.4419
18.1600 12.0761 -0.4438
18.1800 12.0894 -0.4447
18.2000 12.1028 -0.4423
18.2200 12.1161 -0.4442
18.2400 12.1294 -0.4479
18.2600 12.1427 -0.4381
18.2800 12.1560 -0.4427
18.3000 12.1694 -0.4477
18.3200 12.1827 -0.4409
18.3400 12.1961 -0.4462
18.3600 12.2094 -0.4432
18.3800 12.2228 -0.4433
18.4000 12.2362 -0.4495
18.4200 12.2495 -0.4434
18.4400 12.2628 -0.4488
18.4600 12.2761 -0.4472
18.4800 12.2895 -0.4450
18.5000 12.3028 -0.4468
18.5200 12.3161 -0.4478
18.5400 12.3294 -0.4439
18.5600 12.3427 -0.4456
18.5800 12.3561 -0.4473
18.6000 12.3694 -0.4428
18.6200 12.3828 -0.4528
18.6400 12.3961 -0.4529
18.6600 12.4094 -0.4410
18.6800 12.4227 -0.4531
18.7000 12.4361 -0.4533
18.7200 12.4494 -0.4426
18.7400 12.4628 -0.4571
18.7600 12.4762 -0.4569
18.7800 12.4895 -0.4446
18.8000 12.5028 -0.4535
18.8200 12.5161 -0.4565
18.8400 12.5295 -0.4436
18.8600 12.5428 -0.4609
18.8800 12.5561 -0.4544
18.9000 12.5694 -0.4396
18.9200 12.5827 -0.4585
18.9400 12.5961 -0.4557
18.9600 12.6094 -0.4459
18.9800 12.6227 -0.4575
19.0000 12.6360 -0.4527
19.0200 12.6494 -0.4505
19.0400 12.6627 -0.4597
19.0600 12.6761 -0.4555
19.0800 12.6894 -0.4499
19.1000 12.7027 -0.4551
19.1200 12.7161 -0.4546
19.1400 12.7294 -0.4554
19.1600 12.7427 -0.4597
19.1800 12.7561 -0.4536
19.2000 12.7695 -0.4537
19.2200 12.7828 -0.4643
19.2400 12.7961 -0.4512
19.2600 12.8095 -0.4566
19.2800 12.8228 -0.4616
19.3000 12.8361 -0.4539
19.3200 12.8495 -0.4586
19.3400 12.8627 -0.4620
19.3600 12.8760 -0.4529
19.3800 12.8894 -0.4594
19.4000 12.9027 -0.4636
19.4200 12.9160 -0.4601
19.4400 12.9294 -0.4557
19.4600 12.9428 -0.4651
19.4800 12.9562 -0.4602
19.5000 12.9695 -0.4539
19.5200 12.9828 -0.4619
19.5400 12.9961 -0.4581
19.5600 13.0095 -0.4550
19.5800 13.0229 -0.4609
19.6000 13.0362 -0.4602
19.6200 13.0494 -0.4542
19.6400 13.0627 -0.4584
19.6600 13.0761 -0.4564
19.6800 13.0894 -0.4514
19.7000 13.1027 -0.4610
19.7200 13.1160 -0.4579
19.7400 13.1294 -0.4504
19.7600 13.1427 -0.4618
19.7800 13.1560 -0.4554
19.8000 13.1694 -0.4501
19.8200 13.1828 -0.4667
19.8400 13.1962 -0.4546
19.8600 13.2095 -0.4485
19.8800 13.2228 -0.4635
19.9000 13.2361 -0.4525
19.9200 13.2495 -0.4528
19.9400 13.2628 -0.4612
19.9600 13.2761 -0.4530
19.9800 13.2894 -0.4493
20.0000 13.3028 -0.4634
20.0200 13.3161 -0.4561
20.0400 13.3294 -0.4502
20.0600 13.3427 -0.4609
20.0800 13.3560 -0.4543
20.1000 13.3694 -0.4478
20.1200 13.3828 -0.4636
20.1400 13.3961 -0.4590
20.1600 13.4094 -0.4521
20.1800 13.4228 -0.4604
20.2000 13.4361 -0.4577
20.2200 13.4495 -0.4524
20.2400 13.4628 -0.4604
20.2600 13.4761 -0.4580
20.2800 13.4895 -0.4511
20.3000 13.5028 -0.4594
20.3200 13.5161 -0.4546
20.3400 13.5294 -0.4541
20.3600 13.5428 -0.4594
20.3800 13.5561 -0.4586
20.4000 13.5694 -0.4555
20.4200 13.5827 -0.4612
20.4400 13.5960 -0.4582
20.4600 13.6094 -0.4580
20.4800 13.6227 -0.4606
20.5000 13.6361 -0.4578
20.5200 13.6494 -0.4581
20.5400 13.6628 -0.4606
20.5600 13.6762 -0.4604
20.5800 13.6895 -0.4605
20.6000 13.7028 -0.4617
20.6200 13.7161 -0.4614
20.6400 13.7295 -0.4535
20.6600 13.7428 -0.4625
20.6800 13.7561 -0.4690
20.7000 13.7694 -0.4535
20.7200 13.7827 -0.4613
20.7400 13.7961 -0.4706
20.7600 13.8094 -0.4525
20.7800 13.8227 -0.4633
20.8000 13.8360 -0.4698
20.8200 13.8494 -0.4518
20.8400 13.8627 -0.4667
20.8600 13.8761 -0.4692
20.8800 13.8894 -0.4497
20.9000 13.9028 -0.4676
20.9200 13.9161 -0.4698
20.9400 13.9295 -0.4516
20.9600 13.9428 -0.4682
20.9800 13.9561 -0.4656
21.0000 13.9695 -0.4494
21.0200 13.9829 -0.4704
21.0400 13.9962 -0.4625
21.0600 14.0094 -0.4529
21.0800 14.0227 -0.4667
21.1000 14.0361 -0.4568
21.1200 14.0494 -0.4563
21.1400 14.0627 -0.4684
21.1600 14.0760 -0.4628
21.1800 14.0894 -0.4561
21.2000 14.1027 -0.4712
21.2200 14.1161 -0.4623
21.2400 14.1294 -0.4526
21.2600 14.1427 -0.4672
21.2800 14.1561 -0.4638
21.3000 14.1695 -0.4577
21.3200 14.1828 -0.4671
21.3400 14.1961 -0.4623
21.3600 14.2095 -0.4554
21.3800 14.2228 -0.4700
21.4000 14.2361 -0.4614
21.4200 14.2494 -0.4516
21.4400 14.2628 -0.4712
21.4600 14.2761 -0.4590
21.4800 14.2894 -0.4570
21.5000 14.3027 -0.4665
21.5200 14.3160 -0.4654
21.5400 14.3293 -0.4577
21.5600 14.3427 -0.4694
21.5800 14.3560 -0.4648
21.6000 14.3693 -0.4578
21.6200 14.3827 -0.4695
21.6400 14.3961 -0.4637
21.6600 14.4095 -0.4619
21.6800 14.4229 -0.4702
21.7000 14.4362 -0.4583
21.7200 14.4495 -0.4621
21.7400 14.4628 -0.4725
21.7600 14.4761 -0.4614
21.7800 14.4894 -0.4593
21.8000 14.5027 -0.4710
21.8200 14.5160 -0.4616
21.8400 14.5294 -0.4646
21.8600 14.5427 -0.4706
21.8800 14.5560 -0.4639
21.9000 14.5694 -0.4693
21.9200 14.5827 -0.4735
21.9400 14.5961 -0.4619
21.9600 14.6094 -0.4678
21.9800 14.6228 -0.4712
22.0000 14.6361 -0.4667
22.0200 14.6495 -0.4685
22.0400 14.6628 -0.4689
22.0600 14.6761 -0.4670
22.0800 14.6894 -0.4684
22.1000 14.7028 -0.4715
22.1200 14.7161 -0.4699
22.1400 14.7294 -0.4702
22.1600 14.7427 -0.4703
22.1800 14.7561 -0.4742
22.2000 14.7694 -0.4683
22.2200 14.7827 -0.4743
22.2400 14.7961 -0.4782
22.2600 14.8094 -0.4593
22.2800 14.8228 -0.4765
22.3000 14.8361 -0.4825
22.3200 14.8494 -0.4607
22.3400 14.8628 -0.4775
22.3600 14.8762 -0.4801
22.3800 14.8895 -0.4645
22.4000 14.9028 -0.4750
22.4200 14.9161 -0.4747
22.4400 14.9295 -0.4658
22.4600 14.9428 -0.4792
22.4800 14.9562 -0.4741
22.5000 14.9694 -0.4671
22.5200 14.9827 -0.4795
22.5400 14.9961 -0.4717
22.5600 15.0094 -0.4719
22.5800 15.0227 -0.4824
22.6000 15.0360 -0.4703
22.6200 15.0494 -0.4726
22.6400 15.0627 -0.4763
22.6600 15.0761 -0.4776
22.6800 15.0894 -0.4703
22.7000 15.1027 -0.4733
22.7200 15.1161 -0.4809
22.7400 15.1295 -0.4714
22.7600 15.1428 -0.4756
22.7800 15.1561 -0.4754
22.8000 15.1694 -0.4703
22.8200 15.1828 -0.4763
22.8400 15.1961 -0.4782
22.8600 15.2094 -0.4639
22.8800 15.2227 -0.4801
22.9000 15.2361 -0.4749
22.9200 15.2494 -0.4657
22.9400 15.2627 -0.4827
22.9600 15.2761 -0.4742
22.9800 15.2894 -0.4654
23.0000 15.3027 -0.4821
23.0200 15.3161 -0.4755
23.0400 15.3294 -0.4712
23.0600 15.3427 -0.4813
23.0800 15.3561 -0.4726
23.1000 15.3695 -0.4726
23.1200 15.3828 -0.4744
23.1400 15.3961 -0.4716
23.1600 15.4094 -0.4758
23.1800 15.4228 -0.4790
23.2000 15.4362 -0.4785
23.2200 15.4495 -0.4748
23.2400 15.4628 -0.4791
23.2600 15.4761 -0.4806
23.2800 15.4894 -0.4755
23.3000 15.5027 -0.4808
23.3200 15.5160 -0.4791
23.3400 15.5293 -0.4754
23.3600 15.5427 -0.4802
23.3800 15.5561 -0.4762
23.4000 15.5694 -0.4744
23.4200 15.5828 -0.4797
23.4400 15.5961 -0.4749
23.4600 15.6095 -0.4803
23.4800 15.6228 -0.4799
23.5000 15.6361 -0.4746
23.5200 15.6495 -0.4867
23.5400 15.6628 -0.4729
23.5600 15.6762 -0.4775
23.5800 15.6895 -0.4818
23.6000 15.7028 -0.4760
23.6200 15.7161 -0.4785
23.6400 15.7294 -0.4807
23.6600 15.7427 -0.4762
23.6800 15.7560 -0.4757
23.7000 15.7694 -0.4783
23.7200 15.7827 -0.4771
23.7400 15.7960 -0.4800
23.7600 15.8094 -0.4749
23.7800 15.8227 -0.4787
23.8000 15.8361 -0.4756
23.8200 15.8495 -0.4740
23.8400 15.8628 -0.4813
23.8600 15.8761 -0.4782
23.8800 15.8894 -0.4723
23.9000 15.9028 -0.4782
23.9200 15.9161 -0.4766
23.9400 15.9294 -0.4787
23.9600 15.9427 -0.4756
23.9800 15.9561 -0.4762
24.0000 15.9694 -0.4780
24.0200 15.9827 -0.4759
24.0400 15.9960 -0.4720
24.0600 16.0094 -0.4713
24.0800 16.0227 -0.4782
24.1000 16.0361 -0.4703
24.1200 16.0494 -0.4760
24.1400 16.0628 -0.4772
24.1600 16.0761 -0.4770
24.1800 16.0895 -0.4729
24.2000 16.1028 -0.4728
24.2200 16.1161 -0.4816
24.2400 16.1294 -0.4761
24.2600 16.1428 -0.4740
24.2800 16.1561 -0.4806
24.3000 16.1695 -0.4772
24.3200 16.1828 -0.4753
24.3400 16.1961 -0.4772
24.3600 16.2095 -0.4789
24.3800 16.2228 -0.4818
24.4000 16.2361 -0.4796
24.4200 16.2494 -0.4743
24.4400 16.2627 -0.4874
24.4600 16.2761 -0.4793
24.4800 16.2894 -0.4775
24.5000 16.3027 -0.4838
24.5200 16.3161 -0.4780
24.5400 16.3295 -0.4838
24.5600 16.3428 -0.4832
24.5800 16.3561 -0.4742
24.6000 16.3694 -0.4877
24.6200 16.3828 -0.4818
24.6400 16.3962 -0.4797
24.6600 16.4095 -0.4873
24.6800 16.4228 -0.4814
24.7000 16.4361 -0.4791
24.7200 16.4495 -0.4870
24.7400 16.4628 -0.4839
24.7600 16.4761 -0.4789
24.7800 16.4894 -0.4897
24.8000 16.5027 -0.4770
24.8200 16.5161 -0.4800
24.8400 16.5294 -0.4894
24.8600 16.5427 -0.4771
24.8800 16.5561 -0.4803
24.9000 16.5695 -0.4908
24.9200 16.5828 -0.4822
24.9400 16.5962 -0.4838
24.9600 16.6095 -0.4896
24.9800 16.6228 -0.4800
25.0000 16.6362 -0.4827
25.0200 16.6495 -0.4878
25.0400 16.6628 -0.4796
25.0600 16.6761 -0.4872
25.0800 16.6894 -0.4843
25.1000 16.7027 -0.4817
25.1200 16.7160 -0.4838
25.1400 16.7294 -0.4862
25.1600 16.7427 -0.4824
25.1800 16.7561 -0.4823
25.2000 16.7694 -0.4881
25.2200 16.7827 -0.4880
25.2400 16.7961 -0.4767
25.2600 16.8094 -0.4918
25.2800 16.8228 -0.4863
25.3000 16.8361 -0.4808
25.3200 16.8495 -0.4865
25.3400 16.8628 -0.4925
25.3600 16.8762 -0.4774
25.3800 16.8895 -0.4870
25.4000 16.9028 -0.4962
25.4200 16.9161 -0.4718
25.4400 16.9294 -0.4902
25.4600 16.9427 -0.4987
25.4800 16.9560 -0.4762
25.5000 16.9693 -0.4919
25.5200 16.9827 -0.4948
25.5400 16.9960 -0.4834
25.5600 17.0094 -0.4955
25.5800 17.0227 -0.4936
25.6000 17.0361 -0.4801
25.6200 17.0495 -0.5001
25.6400 17.0628 -0.4970
25.6600 17.0761 -0.4805
25.6800 17.0894 -0.4975
25.7000 17.1028 -0.4920
25.7200 17.1161 -0.4862
25.7400 17.1295 -0.5024
25.7600 17.1428 -0.4916
25.7800 17.1561 -0.4919
25.8000 17.1694 -0.4965
25.8200 17.1828 -0.4933
25.8400 17.1961 -0.4946
25.8600 17.2094 -0.4986
25.8800 17.2227 -0.4977
25.9000 17.2361 -0.4983
25.9200 17.2494 -0.5016
25.9400 17.2627 -0.4978
25.9600 17.2761 -0.4982
25.9800 17.2895 -0.5012
26.0000 17.3028 -0.5013
26.0200 17.3161 -0.4952
26.0400 17.3295 -0.5013
26.0600 17.3428 -0.5011
26.0800 17.3562 -0.4965
26.1000 17.3695 -0.5009
26.1200 17.3828 -0.4994
26.1400 17.3961 -0.4976
26.1600 17.4094 -0.5044
26.1800 17.4227 -0.4999
26.2000 17.4360 -0.4988
26.2200 17.4494 -0.5026
26.2400 17.4627 -0.4992
26.2600 17.4761 -0.4959
26.2800 17.4894 -0.5018
26.3000 17.5028 -0.5015
26.3200 17.5161 -0.4918
26.3400 17.5294 -0.5010
26.3600 17.5428 -0.5019
26.3800 17.5561 -0.4957
26.4000 17.5694 -0.5019
26.4200 17.5828 -0.4968
26.4400 17.5961 -0.4981
26.4600 17.6095 -0.4986
26.4800 17.6228 -0.4992
26.5000 17.6361 -0.5006
26.5200 17.6495 -0.4979
26.5400 17.6628 -0.5072
26.5600 17.6761 -0.5009
26.5800 17.6894 -0.4992
26.6000 17.7027 -0.5002
26.6200 17.7160 -0.4997
26.6400 17.7293 -0.5009
26.6600 17.7427 -0.5069
26.6800 17.7561 -0.5004
26.7000 17.7695 -0.5016
26.7200 17.7828 -0.5097
26.7400 17.7962 -0.5015
26.7600 17.8095 -0.5002
26.7800 17.8228 -0.5125
26.8000 17.8362 -0.5011
26.8200 17.8495 -0.5028
26.8400 17.8628 -0.5095
26.8600 17.8761 -0.5016
26.8800 17.8894 -0.5073
26.9000 17.9027 -0.5072
26.9200 17.9160 -0.5018
26.9400 17.9293 -0.5079
26.9600 17.9427 -0.5052
26.9800 17.9560 -0.5042
27.0000 17.9694 -0.5095
27.0200 17.9827 -0.5042
27.0400 17.9961 -0.5010
27.0600 18.0095 -0.5122
27.0800 18.0228 -0.5090
27.1000 18.0362 -0.5035
27.1200 18.0495 -0.5091
27.1400 18.0628 -0.5062
27.1600 18.0762 -0.5060
27.1800 18.0895 -0.5150
27.2000 18.1028 -0.5098
27.2200 18.1161 -0.5025
27.2400 18.1294 -0.5063
27.2600 18.1428 -0.5145
27.2800 18.1561 -0.5088
27.3000 18.1694 -0.5087
27.3200 18.1827 -0.5134
27.3400 18.1961 -0.5097
27.3600 18.2094 -0.5118
27.3800 18.2227 -0.5135
27.4000 18.2361 -0.5119
27.4200 18.2494 -0.5108
27.4400 18.2628 -0.5155
27.4600 18.2761 -0.5066
27.4800 18.2894 -0.5148
27.5000 18.3028 -0.5193
27.5200 18.3162 -0.5072
27.5400 18.3295 -0.5138
27.5600 18.3428 -0.5125
27.5800 18.3561 -0.5092
27.6000 18.3694 -0.5128
27.6200 18.3828 -0.5138
27.6400 18.3961 -0.5089
27.6600 18.4094 -0.5134
27.6800 18.4227 -0.5083
27.7000 18.4361 -0.5054
27.7200 18.4494 -0.5172
27.7400 18.4627 -0.5082
27.7600 18.4761 -0.5083
27.7800 18.4895 -0.5125
27.8000 18.5028 -0.5118
27.8200 18.5162 -0.5124
27.8400 18.5295 -0.5080
27.8600 18.5428 -0.5089
27.8800 18.5561 -0.5136
27.9000 18.5695 -0.5043
27.9200 18.5827 -0.5101
27.9400 18.5961 -0.5075
27.9600 18.6094 -0.5057
27.9800 18.6228 -0.5129
28.0000 18.6361 -0.5027
28.0200 18.6494 -0.5030
28.0400 18.6627 -0.5088
28.0600 18.6761 -0.5020
28.0800 18.6894 -0.4995
28.1000 18.7027 -0.5061
28.1200 18.7160 -0.5004
28.1400 18.7294 -0.4946
28.1600 18.7428 -0.5040
28.1800 18.7561 -0.4959
28.2000 18.7695 -0.4955
28.2200 18.7828 -0.4961
28.2400 18.7962 -0.4922
28.2600 18.8095 -0.4957
28.2800 18.8228 -0.4888
28.3000 18.8361 -0.4917
28.3200 18.8494 -0.4932
28.3400 18.8628 -0.4940
28.3600 18.8761 -0.4916
28.3800 18.8894 -0.4891
28.4000 18.9027 -0.4924
28.4200 18.9160 -0.4925
28.4400 18.9294 -0.4900
28.4600 18.9427 -0.4933
28.4800 18.9561 -0.4928
28.5000 18.9694 -0.4914
28.5200 18.9828 -0.4920
28.5400 18.9961 -0.5024
28.5600 19.0094 -0.4921
28.5800 19.0228 -0.4906
28.6000 19.0361 -0.5017
28.6200 19.0495 -0.4971
28.6400 19.0628 -0.4971
28.6600 19.0761 -0.5011
28.6800 19.0894 -0.4976
28.7000 19.1028 -0.4959
28.7200 19.1161 -0.5055
28.7400 19.1294 -0.5027
28.7600 19.1427 -0.4943
28.7800 19.1560 -0.5066
28.8000 19.1693 -0.5044
28.8200 19.1827 -0.4931
28.8400 19.1961 -0.5099
28.8600 19.2094 -0.5078
28.8800 19.2228 -0.4993
28.9000 19.2362 -0.5106
28.9200 19.2495 -0.5111
28.9400 19.2628 -0.4966
28.9600 19.2762 -0.5142
28.9800 19.2895 -0.5129
29.0000 19.3028 -0.4988
29.0200 19.3161 -0.5192
29.0400 19.3294 -0.5112
29.0600 19.3427 -0.5013
29.0800 19.3561 -0.5176
29.1000 19.3694 -0.5110
29.1200 19.3827 -0.5066
29.1400 19.3961 -0.5191
29.1600 19.4094 -0.5140
29.1800 19.4228 -0.5068
29.2000 19.4361 -0.5223
29.2200 19.4494 -0.5110
29.2400 19.4628 -0.5071
29.2600 19.4761 -0.5232
29.2800 19.4894 -0.5123
29.3000 19.5028 -0.5094
29.3200 19.5161 -0.5235
29.3400 19.5294 -0.5162
29.3600 19.5427 -0.5112
29.3800 19.5561 -0.5168
29.4000 19.5694 -0.5135
29.4200 19.5828 -0.5076
29.4400 19.5961 -0.5212
29.4600 19.6094 -0.5143
29.4800 19.6227 -0.5063
29.5000 19.6361 -0.5176
29.5200 19.6494 -0.5218
29.5400 19.6627 -0.5059
29.5600 19.6761 -0.5173
29.5800 19.6894 -0.5180
29.6000 19.7028 -0.5117
29.6200 19.7161 -0.5201
29.6400 19.7294 -0.5156
29.6600 19.7427 -0.5101
29.6800 19.7561 -0.5265
29.7000 19.7695 -0.5172
29.7200 19.7828 -0.5111
29.7400 19.7961 -0.5255
29.7600 19.8094 -0.5118
29.7800 19.8228 -0.5137
29.8000 19.8361 -0.5233
29.8200 19.8494 -0.5104
29.8400 19.8627 -0.5133
29.8600 19.8760 -0.5210
29.8800 19.8894 -0.5092
29.9000 19.9027 -0.5160
29.9200 19.9161 -0.5233
29.9400 19.9294 -0.5094
29.9600 19.9428 -0.5146
29.9800 19.9562 -0.5178
30.0000 19.9695 -0.5098
30.0200 19.9828 -0.5126
30.0400 19.9961 -0.5180
30.0600 20.0095 -0.5132
30.0800 20.0228 -0.5093
30.1000 20.0361 -0.5118
30.1200 20.0494 -0.5145
30.1400 20.0628 -0.5141
30.1600 20.0761 -0.5169
30.1800 20.0894 -0.5159
30.2000 20.1027 -0.5120
30.2200 20.1161 -0.5202
30.2400 20.1294 -0.5174
30.2600 20.1427 -0.5121
30.2800 20.1560 -0.5172
30.3000 20.1694 -0.5162
30.3200 20.1828 -0.5160
30.3400 20.1961 -0.5225
30.3600 20.2094 -0.5262
30.3800 20.2228 -0.5145
30.4000 20.2361 -0.5209
30.4200 20.2495 -0.5248
30.4400 20.2628 -0.5188
30.4600 20.2761 -0.5271
30.4800 20.2894 -0.5205
30.5000 20.3028 -0.4779
30.5200 20.3161 -0.3969
30.5400 20.3294 -0.2863
30.5600 20.3427 -0.1849
30.5800 20.3560 -0.1159
30.6000 20.3694 -0.0521
30.6200 20.3827 -0.0044
30.6400 20.3961 0.0172
30.6600 20.4095 0.0628
30.6800 20.4228 0.1159
30.7000 20.4362 0.1565
30.7200 20.4495 0.2011
30.7400 20.4628 0.2438
30.7600 20.4761 0.2793
30.7800 20.4895 0.3186
30.8000 20.5028 0.3666
30.8200 20.5161 0.4043
30.8400 20.5294 0.4495
30.8600 20.5427 0.4832
30.8800 20.5561 0.4751
30.9000 20.5694 0.4669
30.9200 20.5827 0.4685
30.9400 20.5960 0.4694
30.9600 20.6094 0.4665
30.9800 20.6227 0.4709
31.0000 20.6360 0.4755
31.0200 20.6494 0.4677
31.0400 20.6628 0.4736
31.0600 20.6762 0.4755
31.0800 20.6895 0.4703
31.1000 20.7028 0.4766
31.1200 20.7161 0.4789
31.1400 20.7295 0.4676
31.1600 20.7428 0.4787
31.1800 20.7561 0.4769
31.2000 20.7694 0.4656
31.2200 20.7827 0.4774
31.2400 20.7960 0.4758
31.2600 20.8094 0.4636
31.2800 20.8227 0.4774
31.3000 20.8361 0.4723
31.3200 20.8495 0.4613
31.3400 20.8628 0.4758
31.3600 20.8761 0.4710
31.3800 20.8894 0.4651
31.4000 20.9028 0.4755
31.4200 20.9161 0.4629
31.4400 20.9294 0.4658
31.4600 20.9427 0.4734
31.4800 20.9561 0.4621
31.5000 20.9694 0.4641
31.5200 20.9828 0.4682
31.5400 20.9961 0.4567
31.5600 21.0094 0.4618
31.5800 21.0228 0.4641
31.6000 21.0361 0.4539
31.6200 21.0494 0.4603
31.6400 21.0627 0.4630
31.6600 21.0761 0.4544
31.6800 21.0894 0.4572
31.7000 21.1027 0.4581
31.7200 21.1160 0.4568
31.7400 21.1294 0.4509
31.7600 21.1428 0.4548
31.7800 21.1561 0.4519
31.8000 21.1695 0.4522
31.8200 21.1828 0.4539
31.8400 21.1961 0.4501
31.8600 21.2095 0.4518
31.8800 21.2228 0.4480
31.9000 21.2361 0.4507
31.9200 21.2494 0.4450
31.9400 21.2628 0.4486
31.9600 21.2761 0.4512
31.9800 21.2894 0.4472
32.0000 21.3027 0.4464
32.0200 21.3160 0.4475
32.0400 21.3294 0.4480
32.0600 21.3427 0.4446
32.0800 21.3561 0.4452
32.1000 21.3694 0.4500
32.1200 21.3828 0.4375
32.1400 21.3961 0.4414
32.1600 21.4095 0.4442
32.1800 21.4228 0.4427
32.2000 21.4361 0.4423
32.2200 21.4495 0.4404
32.2400 21.4628 0.4416
32.2600 21.4761 0.4435
32.2800 21.4894 0.4393
32.3000 21.5027 0.4443
32.3200 21.5161 0.4382
32.3400 21.5294 0.4387
32.3600 21.5427 0.4435
32.3800 21.5560 0.4310
32.4000 21.5694 0.4356
32.4200 21.5828 0.4442
32.4400 21.5961 0.4270
32.4600 21.6094 0.4379
32.4800 21.6227 0.4423
32.5000 21.6361 0.4244
32.5200 21.6494 0.4356
32.5400 21.6628 0.4401
32.5600 21.6761 0.4236
32.5800 21.6895 0.4357
32.6000 21.7028 0.4373
32.6200 21.7161 0.4202
32.6400 21.7294 0.4354
32.6600 21.7428 0.4319
32.6800 21.7561 0.4254
32.7000 21.7694 0.4367
32.7200 21.7827 0.4291
32.7400 21.7960 0.4228
32.7600 21.8094 0.4336
32.7800 21.8227 0.4292
32.8000 21.8361 0.4251
32.8200 21.8494 0.4298
32.8400 21.8628 0.4228
32.8600 21.8762 0.4225
32.8800 21.8895 0.4277
32.9000 21.9028 0.4253
32.9200 21.9161 0.4274
32.9400 21.9295 0.4228
32.9600 21.9428 0.4221
32.9800 21.9561 0.4221
33.0000 21.9694 0.4256
33.0200 21.9828 0.4193
33.0400 21.9961 0.4210
33.0600 22.0094 0.4259
33.0800 22.0228 0.4192
33.1000 22.0361 0.4265
33.1200 22.0494 0.4251
33.1400 22.0627 0.4135
33.1600 22.0761 0.4248
33.1800 22.0894 0.4199
33.2000 22.1028 0.4132
33.2200 22.1162 0.4232
33.2400 22.1295 0.4178
33.2600 22.1428 0.4127
33.2800 22.1561 0.4167
33.3000 22.1695 0.4169
33.3200 22.1828 0.4092
33.3400 22.1961 0.4131
33.3600 22.2094 0.4171
33.3800 22.2227 0.4102
33.4000 22.2361 0.4134
33.4200 22.2494 0.4135
33.4400 22.2627 0.4060
33.4600 22.2761 0.4064
33.4800 22.2894 0.4137
33.5000 22.3027 0.4069
33.5200 22.3161 0.4032
33.5400 22.3294 0.4135
33.5600 22.3427 0.4037
33.5800 22.3561 0.4040
33.6000 22.3694 0.4089
33.6200 22.3827 0.4078
33.6400 22.3961 0.4044
33.6600 22.4094 0.4084
33.6800 22.4228 0.4029
33.7000 22.4361 0.4065
33.7200 22.4495 0.4080
33.7400 22.4628 0.4045
33.7600 22.4761 0.4034
33.7800 22.4895 0.4106
33.8000 22.5027 0.4009
33.8200 22.5160 0.4017
33.8400 22.5293 0.4091
33.8600 22.5427 0.3989
33.8800 22.5560 0.4034
33.9000 22.5694 0.4094
33.9200 22.5828 0.3965
33.9400 22.5962 0.4001
33.9600 22.6095 0.4067
33.9800 22.6228 0.3926
34.0000 22.6362 0.3974
34.0200 22.6495 0.4020
34.0400 22.6629 0.3886
34.0600 22.6762 0.3955
34.0800 22.6895 0.4015
34.1000 22.7027 0.3890
34.1200 22.7161 0.3959
34.1400 22.7294 0.3968
34.1600 22.7427 0.3843
34.1800 22.7560 0.3950
34.2000 22.7694 0.3979
34.2200 22.7827 0.3802
34.2400 22.7961 0.3923
34.2600 22.8094 0.3962
34.2800 22.8228 0.3789
34.3000 22.8361 0.3906
34.3200 22.8495 0.3914
34.3400 22.8628 0.3789
34.3600 22.8762 0.3945
34.3800 22.8895 0.3874
34.4000 22.9028 0.3783
34.4200 22.9161 0.3861
34.4400 22.9294 0.3874
34.4600 22.9427 0.3778
34.4800 22.9561 0.3876
34.5000 22.9694 0.3807
34.5200 22.9827 0.3815
34.5400 22.9960 0.3830
34.5600 23.0094 0.3806
34.5800 23.0227 0.3783
34.6000 23.0361 0.3774
34.6200 23.0494 0.3822
34.6400 23.0627 0.3802
34.6600 23.0761 0.3759
34.6800 23.0894 0.3808
34.7000 23.1028 0.3749
34.7200 23.1161 0.3745
34.7400 23.1295 0.3754
34.7600 23.1428 0.3733
34.7800 23.1561 0.3751
34.8000 23.1694 0.3741
34.8200 23.1828 0.3706
34.8400 23.1961 0.3727
34.8600 23.2094 0.3761
34.8800 23.2227 0.3639
34.9000 23.2360 0.3731
34.9200 23.2494 0.3785
34.9400 23.2627 0.3643
34.9600 23.2761 0.3680
34.9800 23.2894 0.3759
35.0000 23.3028 0.3611
35.0200 23.3162 0.3680
35.0400 23.3295 0.3737
35.0600 23.3428 0.3665
35.0800 23.3561 0.3680
35.1000 23.3695 0.3693
35.1200 23.3828 0.3609
35.1400 23.3961 0.3688
35.1600 23.4094 0.3688
35.1800 23.4227 0.3640
35.2000 23.4361 0.3638
35.2200 23.4494 0.3654
35.2400 23.4627 0.3614
35.2600 23.4761 0.3611
35.2800 23.4894 0.3664
35.3000 23.5027 0.3597
35.3200 23.5161 0.3555
35.3400 23.5294 0.3657
35.3600 23.5427 0.3586
35.3800 23.5561 0.3535
35.4000 23.5695 0.3642
35.4200 23.5828 0.3519
35.4400 23.5961 0.3549
35.4600 23.6095 0.3628
35.4800 23.6229 0.3555
35.5000 23.6362 0.3555
35.5200 23.6495 0.3583
35.5400 23.6628 0.3539
35.5600 23.6761 0.3521
35.5800 23.6894 0.3596
35.6000 23.7027 0.3504
35.6200 23.7161 0.3450
35.6400 23.7294 0.3570
35.6600 23.7427 0.3491
35.6800 23.7561 0.3482
35.7000 23.7694 0.3534
35.7200 23.7827 0.3495
35.7400 23.7961 0.3452
35.7600 23.8095 0.3524
35.7800 23.8228 0.3462
35.8000 23.8361 0.3462
35.8200 23.8495 0.3516
35.8400 23.8628 0.3419
35.8600 23.8761 0.3446
35.8800 23.8894 0.3522
35.9000 23.9028 0.3449
35.9200 23.9161 0.3400
35.9400 23.9294 0.3489
35.9600 23.9427 0.3435
35.9800 23.9560 0.3416
36.0000 23.9693 0.3468
36.0200 23.9827 0.3368
36.0400 23.9960 0.3413
36.0600 24.0094 0.3455
36.0800 24.0227 0.3379
36.1000 24.0361 0.3401
36.1200 24.0495 0.3424
36.1400 24.0629 0.3344
36.1600 24.0762 0.3397
36.1800 24.0895 0.3379
36.2000 24.1028 0.3360
36.2200 24.1161 0.3375
36.2400 24.1294 0.3361
36.2600 24.1427 0.3392
36.2800 24.1560 0.3332
36.3000 24.1694 0.3342
36.3200 24.1827 0.3332
36.3400 24.1960 0.3299
36.3600 24.2094 0.3319
36.3800 24.2228 0.3340
36.4000 24.2361 0.3293
36.4200 24.2494 0.3347
36.4400 24.2628 0.3342
36.4600 24.2761 0.3248
36.4800 24.2895 0.3336
36.5000 24.3028 0.3265
36.5200 24.3161 0.3253
36.5400 24.3295 0.3312
36.5600 24.3428 0.3230
36.5800 24.3561 0.3271
36.6000 24.3694 0.3284
36.6200 24.3827 0.3209
36.6400 24.3961 0.3263
36.6600 24.4094 0.3265
36.6800 24.4227 0.3198
36.7000 24.4360 0.3247
36.7200 24.4494 0.3278
36.7400 24.4627 0.3220
36.7600 24.4761 0.3190
36.7800 24.4894 0.3301
36.8000 24.5027 0.3172
36.8200 24.5161 0.3191
36.8400 24.5295 0.3253
36.8600 24.5428 0.3152
36.8800 24.5561 0.3244
36.9000 24.5695 0.3211
36.9200 24.5828 0.3175
36.9400 24.5962 0.3210
36.9600 24.6095 0.3173
36.9800 24.6228 0.3168
37.0000 24.6361 0.3204
37.0200 24.6494 0.3216
37.0400 24.6627 0.3183
37.0600 24.6760 0.3213
37.0800 24.6894 0.3150
37.1000 24.7027 0.3182
37.1200 24.7161 0.3229
37.1400 24.7294 0.3095
37.1600 24.7427 0.3185
37.1800 24.7561 0.3203
37.2000 24.7695 0.3077
37.2200 24.7828 0.3191
37.2400 24.7961 0.3176
37.2600 24.8095 0.3096
37.2800 24.8228 0.3167
37.3000 24.8361 0.3136
37.3200 24.8494 0.3062
37.3400 24.8627 0.3125
37.3600 24.8761 0.3116
37.3800 24.8894 0.3064
37.4000 24.9028 0.3136
37.4200 24.9161 0.3072
37.4400 24.9294 0.3036
37.4600 24.9427 0.3098
37.4800 24.9561 0.3031
37.5000 24.9694 0.3060
37.5200 24.9827 0.3041
37.5400 24.9961 0.3019
37.5600 25.0095 0.3042
37.5800 25.0228 0.2984
37.6000 25.0361 0.3022
37.6200 25.0494 0.3014
37.6400 25.0628 0.2959
37.6600 25.0762 0.3003
37.6800 25.0895 0.2995
37.7000 25.1028 0.2902
37.7200 25.1161 0.3083
37.7400 25.1294 0.3047
37.7600 25.1427 0.2881
37.7800 25.1560 0.3090
37.8000 25.1693 0.2932
37.8200 25.1827 0.2897
37.8400 25.1960 0.3090
37.8600 25.2094 0.2932
37.8800 25.2228 0.2915
37.9000 25.2361 0.3018
37.9200 25.2495 0.2876
37.9400 25.2628 0.2896
37.9600 25.2761 0.3040
37.9800 25.2895 0.2860
38.0000 25.3028 0.2930
38.0200 25.3162 0.2970
38.0400 25.3295 0.2815
38.0600 25.3428 0.2946
38.0800 25.3561 0.2939
38.1000 25.3694 0.2856
38.1200 25.3827 0.2872
38.1400 25.3960 0.2901
38.1600 25.4094 0.2856
38.1800 25.4227 0.2833
38.2000 25.4360 0.2844
38.2200 25.4494 0.2863
38.2400 25.4627 0.2831
38.2600 25.4761 0.2828
38.2800 25.4895 0.2817
38.3000 25.5028 0.2810
38.3200 25.5161 0.2834
38.3400 25.5295 0.2837
38.3600 25.5428 0.2807
38.3800 25.5561 0.2807
38.4000 25.5694 0.2815
38.4200 25.5827 0.2766
38.4400 25.5960 0.2828
38.4600 25.6094 0.2803
38.4800 25.6227 0.2727
38.5000 25.6360 0.2823
38.5200 25.6494 0.2787
38.5400 25.6628 0.2717
38.5600 25.6761 0.2814
38.5800 25.6895 0.2750
38.6000 25.7028 0.2680
38.6200 25.7161 0.2817
38.6400 25.7294 0.2763
38.6600 25.7428 0.2673
38.6800 25.7561 0.2773
38.7000 25.7694 0.2751
38.7200 25.7828 0.2651
38.7400 25.7961 0.2818
38.7600 25.8095 0.2715
38.7800 25.8228 0.2643
38.8000 25.8361 0.2834
38.8200 25.8495 0.2713
38.8400 25.8628 0.2641
38.8600 25.8761 0.2822
38.8800 25.8894 0.2769
38.9000 25.9027 0.2648
38.9200 25.9161 0.2792
38.9400 25.9294 0.2743
38.9600 25.9427 0.2682
38.9800 25.9561 0.2802
39.0000 25.9694 0.2699
39.0200 25.9828 0.2647
39.0400 25.9961 0.2791
39.0600 26.0094 0.2666
39.0800 26.0228 0.2690
39.1000 26.0361 0.2779
39.1200 26.0494 0.2680
39.1400 26.0628 0.2691
39.1600 26.0761 0.2773
39.1800 26.0895 0.2702
39.2000 26.1028 0.2656
39.2200 26.1161 0.2744
39.2400 26.1294 0.2655
39.2600 26.1427 0.2609
39.2800 26.1560 0.2716
39.3000 26.1694 0.2630
39.3200 26.1827 0.2601
39.3400 26.1961 0.2694
39.3600 26.2095 0.2595
39.3800 26.2228 0.2579
39.4000 26.2362 0.2698
39.4200 26.2495 0.2579
39.4400 26.2628 0.2560
39.4600 26.2762 0.2693
39.4800 26.2894 0.2555
39.5000 26.3027 0.2581
39.5200 26.3161 0.2709
39.5400 26.3294 0.2528
39.5600 26.3428 0.2503
39.5800 26.3561 0.2650
39.6000 26.3694 0.2495
39.6200 26.3827 0.2531
39.6400 26.3961 0.2620
39.6600 26.4094 0.2467
39.6800 26.4228 0.2474
39.7000 26.4361 0.2584
39.7200 26.4494 0.2477
39.7400 26.4628 0.2512
39.7600 26.4761 0.2570
39.7800 26.4895 0.2446
39.8000 26.5028 0.2474
39.8200 26.5162 0.2603
39.8400 26.5295 0.2429
39.8600 26.5428 0.2496
39.8800 26.5561 0.2607
39.9000 26.5694 0.2403
39.9200 26.5827 0.2478
39.9400 26.5960 0.2579
39.9600 26.6093 0.2421
39.9800 26.6227 0.2465
40.0000 26.6360 0.2570
40.0200 26.6494 0.2344
40.0400 26.6627 0.2449
40.0600 26.6761 0.2571
40.0800 26.6895 0.2370
40.1000 26.7028 0.2447
40.1200 26.7161 0.2565
40.1400 26.7294 0.2382
40.1600 26.7428 0.2432
40.1800 26.7561 0.2530
40.2000 26.7695 0.2364
40.2200 26.7828 0.2393
40.2400 26.7961 0.2528
40.2600 26.8094 0.2379
40.2800 26.8228 0.2407
40.3000 26.8361 0.2455
40.3200 26.8494 0.2365
40.3400 26.8627 0.2382
40.3600 26.8761 0.2514
40.3800 26.8894 0.2376
40.4000 26.9027 0.2355
40.4200 26.9161 0.2455
40.4400 26.9295 0.2387
40.4600 26.9428 0.2344
40.4800 26.9561 0.2455
40.5000 26.9694 0.2394
40.5200 26.9828 0.2292
40.5400 26.9962 0.2424
40.5600 27.0095 0.2371
40.5800 27.0228 0.2282
40.6000 27.0361 0.2465
40.6200 27.0494 0.2312
40.6400 27.0628 0.2328
40.6600 27.0761 0.2414
40.6800 27.0894 0.2322
40.7000 27.1027 0.2288
40.7200 27.1161 0.2408
40.7400 27.1294 0.2307
40.7600 27.1428 0.2271
40.7800 27.1561 0.2357
40.8000 27.1694 0.2306
40.8200 27.1828 0.2247
40.8400 27.1961 0.2332
40.8600 27.2094 0.2252
40.8800 27.2228 0.2257
40.9000 27.2361 0.2358
40.9200 27.2495 0.2222
40.9400 27.2628 0.2218
40.9600 27.2761 0.2364
40.9800 27.2895 0.2167
41.0000 27.3028 0.2221
41.0200 27.3161 0.2340
41.0400 27.3294 0.2178
41.0600 27.3427 0.2207
41.0800 27.3560 0.2322
41.1000 27.3694 0.2192
41.1200 27.3827 0.2174
41.1400 27.3961 0.2327
41.1600 27.4095 0.2159
41.1800 27.4229 0.2201
41.2000 27.4362 0.2274
41.2200 27.4495 0.2138
41.2400 27.4628 0.2173
41.2600 27.4762 0.2279
41.2800 27.4895 0.2150
41.3000 27.5028 0.2195
41.3200 27.5161 0.2280
41.3400 27.5294 0.2135
41.3600 27.5427 0.2164
41.3800 27.5560 0.2255
41.4000 27.5693 0.2137
41.4200 27.5827 0.2190
41.4400 27.5961 0.2224
41.4600 27.6094 0.2143
41.4800 27.6227 0.2146
41.5000 27.6361 0.2249
41.5200 27.6494 0.2157
41.5400 27.6628 0.2126
41.5600 27.6762 0.2198
41.5800 27.6895 0.2109
41.6000 27.7028 0.2158
41.6200 27.7161 0.2170
41.6400 27.7295 0.2087
41.6600 27.7428 0.2146
41.6800 27.7561 0.2201
41.7000 27.7694 0.2125
41.7200 27.7827 0.2112
41.7400 27.7961 0.2188
41.7600 27.8094 0.2080
41.7800 27.8227 0.2090
41.8000 27.8361 0.2112
41.8200 27.8494 0.2076
41.8400 27.8628 0.2142
41.8600 27.8761 0.2072
41.8800 27.8894 0.2095
41.9000 27.9028 0.2093
41.9200 27.9161 0.2011
41.9400 27.9295 0.2158
41.9600 27.9428 0.2106
41.9800 27.9562 0.2014
42.0000 27.9695 0.2189
42.0200 27.9828 0.2053
42.0400 27.9961 0.2063
42.0600 28.0094 0.2125
42.0800 28.0228 0.2051
42.1000 28.0361 0.2014
42.1200 28.0494 0.2100
42.1400 28.0627 0.2030
42.1600 28.0760 0.2037
42.1800 28.0894 0.2095
42.2000 28.1027 0.1977
42.2200 28.1161 0.2029
42.2400 28.1295 0.2026
42.2600 28.1428 0.1983
42.2800 28.1562 0.2058
42.3000 28.1695 0.1970
42.3200 28.1828 0.2048
42.3400 28.1961 0.2001
42.3600 28.2095 0.1942
42.3800 28.2228 0.2040
42.4000 28.2361 0.1938
42.4200 28.2494 0.1932
42.4400 28.2628 0.1988
42.4600 28.2761 0.1913
42.4800 28.2894 0.1919
42.5000 28.3027 0.1974
42.5200 28.3161 0.1865
42.5400 28.3294 0.1948
42.5600 28.3427 0.1929
42.5800 28.3560 0.1879
42.6000 28.3694 0.1939
42.6200 28.3828 0.1909
42.6400 28.3961 0.1824
42.6600 28.4095 0.1984
42.6800 28.4228 0.1849
42.7000 28.4362 0.1849
42.7200 28.4495 0.1953
42.7400 28.4628 0.1863
42.7600 28.4761 0.1810
42.7800 28.4894 0.1917
42.8000 28.5028 0.1896
42.8200 28.5161 0.1833
42.8400 28.5294 0.1892
42.8600 28.5427 0.1897
42.8800 28.5560 0.1813
42.9000 28.5694 0.1837
42.9200 28.5827 0.1841
42.9400 28.5961 0.1836
42.9600 28.6094 0.1832
42.9800 28.6228 0.1824
43.0000 28.6361 0.1808
43.0200 28.6494 0.1835
43.0400 28.6628 0.1831
43.0600 28.6761 0.1788
43.0800 28.6895 0.1852
43.1000 28.7028 0.1839
43.1200 28.7161 0.1805
43.1400 28.7294 0.1800
43.1600 28.7428 0.1850
43.1800 28.7561 0.1789
43.2000 28.7694 0.1782
43.2200 28.7827 0.1837
43.2400 28.7960 0.1798
43.2600 28.8093 0.1780
43.2800 28.8227 0.1821
43.3000 28.8360 0.1822
43.3200 28.8494 0.1773
43.3400 28.8628 0.1749
43.3600 28.8762 0.1808
43.3800 28.8895 0.1811
43.4000 28.9029 0.1744
43.4200 28.9162 0.1757
43.4400 28.9295 0.1738
43.4600 28.9428 0.1781
43.4800 28.9561 0.1756
43.5000 28.9693 0.1757
43.5200 28.9827 0.1810
43.5400 28.9960 0.1726
43.5600 29.0094 0.1720
43.5800 29.0227 0.1779
43.6000 29.0361 0.1734
43.6200 29.0494 0.1635
43.6400 29.0628 0.1776
43.6600 29.0761 0.1726
43.6800 29.0895 0.1652
43.7000 29.1029 0.1739
43.7200 29.1162 0.1692
43.7400 29.1295 0.1652
43.7600 29.1428 0.1762
43.7800 29.1561 0.1675
43.8000 29.1695 0.1621
43.8200 29.1828 0.1706
43.8400 29.1961 0.1710
43.8600 29.2094 0.1637
43.8800 29.2227 0.1719
43.9000 29.2361 0.1664
43.9200 29.2494 0.1616
43.9400 29.2627 0.1723
43.9600 29.2760 0.1669
43.9800 29.2894 0.1628
44.0000 29.3027 0.1705
44.0200 29.3161 0.1642
44.0400 29.3294 0.1638
44.0600 29.3428 0.1721
44.0800 29.3561 0.1615
44.1000 29.3694 0.1663
44.1200 29.3828 0.1683
44.1400 29.3961 0.1562
44.1600 29.4095 0.1634
44.1800 29.4228 0.1725
44.2000 29.4361 0.1589
44.2200 29.4494 0.1638
44.2400 29.4628 0.1681
44.2600 29.4761 0.1568
44.2800 29.4894 0.1602
44.3000 29.5027 0.1631
44.3200 29.5160 0.1598
44.3400 29.5294 0.1604
44.3600 29.5427 0.1556
44.3800 29.5561 0.1588
44.4000 29.5694 0.1591
44.4200 29.5828 0.1567
44.4400 29.5962 0.1570
44.4600 29.6095 0.1549
44.4800 29.6228 0.1538
44.5000 29.6361 0.1637
44.5200 29.6495 0.1528
44.5400 29.6628 0.1506
44.5600 29.6761 0.1587
44.5800 29.6894 0.1534
44.6000 29.7028 0.1490
44.6200 29.7161 0.1545
44.6400 29.7294 0.1479
44.6600 29.7427 0.1514
44.6800 29.7561 0.1573
44.7000 29.7694 0.1464
44.7200 29.7827 0.1521
44.7400 29.7960 0.1565
44.7600 29.8094 0.1390
44.7800 29.8228 0.1522
44.8000 29.8361 0.1563
44.8200 29.8495 0.1388
44.8400 29.8628 0.1534
44.8600 29.8761 0.1510
44.8800 29.8895 0.1352
44.9000 29.9028 0.1528
44.9200 29.9161 0.1528
44.9400 29.9294 0.1351
44.9600 29.9427 0.1516
44.9800 29.9561 0.1488
45.0000 29.9694 0.1320
45.0200 29.9827 0.1549
45.0400 29.9960 0.1475
45.0600 30.0094 0.1368
45.0800 30.0227 0.1517
45.1000 30.0361 0.1413
45.1200 30.0494 0.1357
45.1400 30.0628 0.1452
45.1600 30.0762 0.1426
45.1800 30.0895 0.1333
45.2000 30.1028 0.1467
45.2200 30.1161 0.1398
45.2400 30.1295 0.1308
45.2600 30.1428 0.1450
45.2800 30.1561 0.1395
45.3000 30.1694 0.1362
45.3200 30.1827 0.1424
45.3400 30.1961 0.1390
45.3600 30.2094 0.1371
45.3800 30.2227 0.1392
45.4000 30.2360 0.1396
45.4200 30.2494 0.1321
45.4400 30.2627 0.1382
45.4600 30.2761 0.1379
45.4800 30.2894 0.1310
45.5000 30.3028 0.1411
45.5200 30.3162 0.1335
45.5400 30.3295 0.1297
45.5600 30.3428 0.1354
45.5800 30.3561 0.1372
45.6000 30.3695 0.1290
45.6200 30.3828 0.1321
45.6400 30.3961 0.1388
45.6600 30.4094 0.1315
45.6800 30.4227 0.1292
45.7000 30.4360 0.1375
45.7200 30.4494 0.1303
45.7400 30.4627 0.1290
45.7600 30.4761 0.1333
45.7800 30.4894 0.1298
45.8000 30.5028 0.1294
45.8200 30.5161 0.1369
45.8400 30.5294 0.1244
45.8600 30.5428 0.1323
45.8800 30.5561 0.1352
45.9000 30.5694 0.1260
45.9200 30.5827 0.1321
45.9400 30.5961 0.1294
45.9600 30.6094 0.1293
45.9800 30.6228 0.1308
46.0000 30.6361 0.1311
46.0200 30.6494 0.1306
46.0400 30.6628 0.1279
46.0600 30.6761 0.1267
46.0800 30.6894 0.1244
46.1000 30.7027 0.1294
46.1200 30.7160 0.1291
46.1400 30.7294 0.1255
46.1600 30.7427 0.1255
46.1800 30.7560 0.1223
46.2000 30.7694 0.1309
46.2200 30.7827 0.1227
46.2400 30.7961 0.1194
46.2600 30.8095 0.1227
46.2800 30.8228 0.1240
46.3000 30.8361 0.1213
46.3200 30.8495 0.1198
46.3400 30.8628 0.1210
46.3600 30.8761 0.1249
46.3800 30.8895 0.1223
46.4000 30.9028 0.1186
46.4200 30.9161 0.1250
46.4400 30.9295 0.1221
46.4600 30.9428 0.1147
46.4800 30.9561 0.1241
46.5000 30.9694 0.1225
46.5200 30.9827 0.1172
46.5400 30.9960 0.1134
46.5600 31.0094 0.1200
46.5800 31.0228 0.1175
46.6000 31.0361 0.1184
46.6200 31.0495 0.1159
46.6400 31.0628 0.1166
46.6600 31.0761 0.1201
46.6800 31.0895 0.1155
46.7000 31.1028 0.1123
46.7200 31.1161 0.1191
46.7400 31.1294 0.1143
46.7600 31.1428 0.1135
46.7800 31.1561 0.1178
46.8000 31.1694 0.1082
46.8200 31.1827 0.1133
46.8400 31.1961 0.1163
46.8600 31.2094 0.1070
46.8800 31.2228 0.1122
46.9000 31.2361 0.1130
46.9200 31.2494 0.1071
46.9400 31.2628 0.1105
46.9600 31.2761 0.1119
46.9800 31.2895 0.1039
47.0000 31.3028 0.1084
47.0200 31.3161 0.1085
47.0400 31.3295 0.1055
47.0600 31.3428 0.1111
47.0800 31.3561 0.1001
47.1000 31.3694 0.1093
47.1200 31.3828 0.1071
47.1400 31.3961 0.1005
47.1600 31.4094 0.1094
47.1800 31.4227 0.1048
47.2000 31.4360 0.1028
47.2200 31.4494 0.1035
47.2400 31.4627 0.1050
47.2600 31.4761 0.1016
47.2800 31.4894 0.1001
47.3000 31.5028 0.1036
47.3200 31.5161 0.0999
47.3400 31.5295 0.1030
47.3600 31.5428 0.1014
47.3800 31.5561 0.0993
47.4000 31.5694 0.1014
47.4200 31.5828 0.0977
47.4400 31.5961 0.1001
47.4600 31.6094 0.1035
47.4800 31.6227 0.0987
47.5000 31.6361 0.0982
47.5200 31.6494 0.1058
47.5400 31.6627 0.0946
47.5600 31.6761 0.0982
47.5800 31.6894 0.1063
47.6000 31.7027 0.0873
47.6200 31.7161 0.1009
47.6400 31.7294 0.1030
47.6600 31.7428 0.0876
47.6800 31.7561 0.0986
47.7000 31.7695 0.0953
47.7200 31.7828 0.0879
47.7400 31.7961 0.0955
47.7600 31.8095 0.1008
47.7800 31.8228 0.0850
47.8000 31.8361 0.0965
47.8200 31.8494 0.1016
47.8400 31.8627 0.0827
47.8600 31.8761 0.0971
47.8800 31.8894 0.0978
47.9000 31.9027 0.0824
47.9200 31.9161 0.0945
47.9400 31.9294 0.0930
47.9600 31.9427 0.0853
47.9800 31.9561 0.0913
48.0000 31.9694 0.0938
48.0200 31.9827 0.0836
48.0400 31.9961 0.0875
48.0600 32.0094 0.0904
48.0800 32.0227 0.0853
48.1000 32.0361 0.0899
48.1200 32.0494 0.0848
48.1400 32.0628 0.0838
48.1600 32.0761 0.0818
48.1800 32.0894 0.0865
48.2000 32.1028 0.0876
48.2200 32.1162 0.0794
48.2400 32.1295 0.0854
48.2600 32.1427 0.0830
48.2800 32.1560 0.0801
48.3000 32.1693 0.0840
48.3200 32.1827 0.0799
48.3400 32.1960 0.0783
48.3600 32.2093 0.0810
48.3800 32.2227 0.0809
48.4000 32.2361 0.0779
48.4200 32.2495 0.0813
48.4400 32.2628 0.0809
48.4600 32.2761 0.0782
48.4800 32.2895 0.0825
48.5000 32.3028 0.0811
48.5200 32.3162 0.0765
48.5400 32.3294 0.0846
48.5600 32.3427 0.0765
48.5800 32.3561 0.0777
48.6000 32.3694 0.0808
48.6200 32.3827 0.0787
48.6400 32.3960 0.0750
48.6600 32.4094 0.0838
48.6800 32.4227 0.0745
48.7000 32.4361 0.0766
48.7200 32.4494 0.0884
48.7400 32.4627 0.0705
48.7600 32.4761 0.0768
48.7800 32.4895 0.0860
48.8000 32.5028 0.0671
48.8200 32.5162 0.0825
48.8400 32.5295 0.0843
48.8600 32.5428 0.0718
48.8800 32.5561 0.0764
48.9000 32.5694 0.0777
48.9200 32.5827 0.0742
48.9400 32.5961 0.0870
48.9600 32.6094 0.0703
48.9800 32.6227 0.0714
49.0000 32.6360 0.0851
49.0200 32.6494 0.0612
49.0400 32.6627 0.0741
49.0600 32.6761 0.0798
49.0800 32.6894 0.0618
49.1000 32.7027 0.0770
49.1200 32.7161 0.0722
49.1400 32.7295 0.0653
49.1600 32.7428 0.0820
49.1800 32.7561 0.0665
49.2000 32.7694 0.0667
49.2200 32.7828 0.0823
49.2400 32.7961 0.0634
49.2600 32.8094 0.0689
49.2800 32.8228 0.0785
49.3000 32.8361 0.0561
49.3200 32.8494 0.0717
49.3400 32.8627 0.0716
49.3600 32.8760 0.0601
49.3800 32.8894 0.0770
49.4000 32.9027 0.0674
49.4200 32.9161 0.0540
49.4400 32.9294 0.0754
49.4600 32.9428 0.0658
49.4800 32.9561 0.0545
49.5000 32.9695 0.0729
49.5200 32.9828 0.0592
49.5400 32.9961 0.0604
49.5600 33.0095 0.0762
49.5800 33.0228 0.0563
49.6000 33.0361 0.0585
49.6200 33.0494 0.0654
49.6400 33.0627 0.0644
49.6600 33.0761 0.0608
49.6800 33.0894 0.0658
49.7000 33.1027 0.0615
49.7200 33.1160 0.0587
49.7400 33.1294 0.0637
49.7600 33.1427 0.0593
49.7800 33.1561 0.0592
49.8000 33.1694 0.0632
49.8200 33.1827 0.0591
49.8400 33.1961 0.0557
49.8600 33.2095 0.0596
49.8800 33.2228 0.0575
49.9000 33.2361 0.0551
49.9200 33.2495 0.0621
49.9400 33.2628 0.0573
49.9600 33.2762 0.0547
49.9800 33.2895 0.0665
50.0000 33.3028 0.0607
50.0200 33.3161 0.0571
50.0400 33.3294 0.0587
50.0600 33.3428 0.0594
50.0800 33.3561 0.0570
50.1000 33.3694 0.0569
50.1200 33.3827 0.0594
50.1400 33.3961 0.0554
50.1600 33.4094 0.0560
50.1800 33.4227 0.0578
50.2000 33.4361 0.0498
50.2200 33.4495 0.0552
50.2400 33.4628 0.0553
50.2600 33.4761 0.0479
50.2800 33.4894 0.0531
50.3000 33.5028 0.0570
50.3200 33.5161 0.0419
50.3400 33.5294 0.0544
50.3600 33.5428 0.0589
50.3800 33.5561 0.0444
50.4000 33.5695 0.0506
50.4200 33.5828 0.0513
50.4400 33.5960 0.0410
50.4600 33.6093 0.0572
50.4800 33.6227 0.0488
50.5000 33.6360 0.0437
50.5200 33.6494 0.0532
50.5400 33.6627 0.0454
50.5600 33.6761 0.0418
50.5800 33.6895 0.0538
50.6000 33.7029 0.0406
50.6200 33.7162 0.0439
50.6400 33.7295 0.0519
50.6600 33.7428 0.0356
50.6800 33.7561 0.0455
50.7000 33.7694 0.0497
50.7200 33.7827 0.0369
50.7400 33.7960 0.0446
50.7600 33.8094 0.0465
50.7800 33.8227 0.0380
50.8000 33.8360 0.0422
50.8200 33.8494 0.0416
50.8400 33.8628 0.0376
50.8600 33.8761 0.0404
50.8800 33.8894 0.0384
50.9000 33.9028 0.0410
50.9200 33.9161 0.0407
50.9400 33.9295 0.0336
50.9600 33.9428 0.0425
50.9800 33.9561 0.0381
51.0000 33.9694 0.0359
51.0200 33.9828 0.0427
51.0400 33.9961 0.0350
51.0600 34.0094 0.0340
51.0800 34.0227 0.0453
51.1000 34.0361 0.0271
51.1200 34.0494 0.0365
51.1400 34.0628 0.0467
51.1600 34.0761 0.0235
51.1800 34.0894 0.0373
51.2000 34.1027 0.0386
51.2200 34.1161 0.0244
51.2400 34.1294 0.0417
51.2600 34.1428 0.0399
51.2800 34.1561 0.0263
51.3000 34.1695 0.0408
51.3200 34.1828 0.0365
51.3400 34.1961 0.0263
51.3600 34.2094 0.0441
51.3800 34.2228 0.0326
51.4000 34.2362 0.0280
51.4200 34.2495 0.0414
51.4400 34.2628 0.0319
51.4600 34.2761 0.0286
51.4800 34.2894 0.0350
51.5000 34.3028 0.0308
51.5200 34.3160 0.0231
51.5400 34.3293 0.0395
51.5600 34.3427 0.0254
51.5800 34.3561 0.0257
51.6000 34.3694 0.0372
51.6200 34.3827 0.0250
51.6400 34.3961 0.0258
51.6600 34.4095 0.0326
51.6800 34.4228 0.0224
51.7000 34.4361 0.0211
51.7200 34.4495 0.0321
51.7400 34.4628 0.0191
51.7600 34.4761 0.0212
51.7800 34.4894 0.0335
51.8000 34.5027 0.0178
51.8200 34.5160 0.0270
51.8400 34.5294 0.0270
51.8600 34.5427 0.0168
51.8800 34.5561 0.0248
51.9000 34.5694 0.0269
51.9200 34.5827 0.0190
51.9400 34.5961 0.0197
51.9600 34.6094 0.0254
51.9800 34.6227 0.0149
52.0000 34.6360 0.0177
52.0200 34.6494 0.0234
52.0400 34.6628 0.0142
52.0600 34.6761 0.0178
52.0800 34.6894 0.0234
52.1000 34.7028 0.0168
52.1200 34.7162 0.0161
52.1400 34.7295 0.0203
52.1600 34.7428 0.0183
52.1800 34.7561 0.0157
52.2000 34.7694 0.0192
52.2200 34.7827 0.0173
52.2400 34.7960 0.0174
52.2600 34.8094 0.0190
52.2800 34.8227 0.0138
52.3000 34.8361 0.0169
52.3200 34.8494 0.0170
52.3400 34.8627 0.0132
52.3600 34.8761 0.0149
52.3800 34.8895 0.0167
52.4000 34.9028 0.0107
52.4200 34.9161 0.0159
52.4400 34.9294 0.0158
52.4600 34.9428 0.0070
52.4800 34.9562 0.0143
52.5000 34.9695 0.0107
52.5200 34.9828 0.0097
52.5400 34.9961 0.0163
52.5600 35.0094 0.0112
52.5800 35.0228 0.0060
52.6000 35.0361 0.0146
52.6200 35.0494 0.0083
52.6400 35.0627 0.0056
52.6600 35.0761 0.0119
52.6800 35.0894 0.0052
52.7000 35.1027 0.0070
52.7200 35.1161 0.0129
52.7400 35.1295 0.0092
52.7600 35.1428 0.0031
52.7800 35.1561 0.0058
52.8000 35.1695 0.0092
52.8200 35.1828 0.0078
52.8400 35.1961 0.0086
52.8600 35.2094 0.0016
52.8800 35.2227 0.0084
52.9000 35.2360 0.0071
52.9200 35.2494 -0.0015
52.9400 35.2627 0.0078
52.9600 35.2760 0.0070
52.9800 35.2894 0.0049
53.0000 35.3028 0.0053
53.0200 35.3161 0.0058
53.0400 35.3295 0.0030
53.0600 35.3428 0.0006
53.0800 35.3561 0.0090
53.1000 35.3695 0.0002
53.1200 35.3828 -0.0002
53.1400 35.3961 0.0068
53.1600 35.4094 -0.0005
53.1800 35.4228 -0.0017
53.2000 35.4361 0.0036
53.2200 35.4495 0.0033
53.2400 35.4628 -0.0049
53.2600 35.4761 0.0071
53.2800 35.4894 0.0016
53.3000 35.5028 -0.0043
53.3200 35.5161 0.0034
53.3400 35.5294 -0.0034
53.3600 35.5427 -0.0076
53.3800 35.5561 0.0018
53.4000 35.5694 -0.0030
53.4200 35.5827 -0.0085
53.4400 35.5961 0.0032
53.4600 35.6094 -0.0070
53.4800 35.6228 -0.0111
53.5000 35.6361 0.0004
53.5200 35.6494 -0.0065
53.5400 35.6628 -0.0067
53.5600 35.6761 -0.0024
53.5800 35.6895 -0.0057
53.6000 35.7028 -0.0090
53.6200 35.7161 0.0010
53.6400 35.7295 -0.0076
53.6600 35.7428 -0.0133
53.6800 35.7561 0.0037
53.7000 35.7694 -0.0120
53.7200 35.7827 -0.0093
53.7400 35.7961 -0.0013
53.7600 35.8094 -0.0116
53.7800 35.8227 -0.0095
53.8000 35.8361 -0.0055
53.8200 35.8494 -0.0116
53.8400 35.8628 -0.0130
53.8600 35.8761 -0.0081
53.8800 35.8895 -0.0142
53.9000 35.9028 -0.0152
53.9200 35.9162 -0.0085
53.9400 35.9295 -0.0138
53.9600 35.9427 -0.0145
53.9800 35.9561 -0.0077
54.0000 35.9694 -0.0148
54.0200 35.9827 -0.0176
54.0400 35.9961 -0.0061
54.0600 36.0094 -0.0144
54.0800 36.0227 -0.0214
54.1000 36.0361 -0.0107
54.1200 36.0494 -0.0197
54.1400 36.0628 -0.0197
54.1600 36.0761 -0.0089
54.1800 36.0895 -0.0192
54.2000 36.1028 -0.0209
54.2200 36.1161 -0.0118
54.2400 36.1295 -0.0175
54.2600 36.1428 -0.0229
54.2800 36.1562 -0.0134
54.3000 36.1695 -0.0216
54.3200 36.1828 -0.0227
54.3400 36.1961 -0.0131
54.3600 36.2094 -0.0195
54.3800 36.2228 -0.0222
54.4000 36.2361 -0.0219
54.4200 36.2494 -0.0194
54.4400 36.2627 -0.0220
54.4600 36.2761 -0.0235
54.4800 36.2894 -0.0227
54.5000 36.3027 -0.0239
54.5200 36.3161 -0.0250
54.5400 36.3295 -0.0224
54.5600 36.3428 -0.0277
54.5800 36.3562 -0.0255
54.6000 36.3695 -0.0229
54.6200 36.3828 -0.0274
54.6400 36.3961 -0.0214
54.6600 36.4095 -0.0245
54.6800 36.4227 -0.0295
54.7000 36.4360 -0.0268
54.7200 36.4494 -0.0263
54.7400 36.4627 -0.0335
54.7600 36.4761 -0.0274
54.7800 36.4894 -0.0274
54.8000 36.5027 -0.0359
54.8200 36.5161 -0.0229
54.8400 36.5294 -0.0297
54.8600 36.5427 -0.0340
54.8800 36.5561 -0.0259
54.9000 36.5694 -0.0307
54.9200 36.5828 -0.0394
54.9400 36.5961 -0.0242
54.9600 36.6094 -0.0328
54.9800 36.6228 -0.0365
55.0000 36.6361 -0.0278
55.0200 36.6495 -0.0404
55.0400 36.6628 -0.0317
55.0600 36.6760 -0.0249
55.0800 36.6894 -0.0393
55.1000 36.7027 -0.0342
55.1200 36.7160 -0.0298
55.1400 36.7294 -0.0357
55.1600 36.7427 -0.0310
55.1800 36.7560 -0.0366
55.2000 36.7694 -0.0409
55.2200 36.7827 -0.0354
55.2400 36.7961 -0.0382
55.2600 36.8094 -0.0380
55.2800 36.8228 -0.0343
55.3000 36.8361 -0.0416
55.3200 36.8494 -0.0391
55.3400 36.8627 -0.0361
55.3600 36.8761 -0.0422
55.3800 36.8895 -0.0383
55.4000 36.9028 -0.0393
55.4200 36.9161 -0.0468
55.4400 36.9295 -0.0356
55.4600 36.9428 -0.0458
55.4800 36.9561 -0.0440
55.5000 36.9694 -0.0353
55.5200 36.9827 -0.0427
55.5400 36.9960 -0.0445
55.5600 37.0093 -0.0425
55.5800 37.0227 -0.0441
55.6000 37.0360 -0.0457
55.6200 37.0494 -0.0407
55.6400 37.0628 -0.0494
55.6600 37.0762 -0.0447
55.6800 37.0895 -0.0431
55.7000 37.1028 -0.0513
55.7200 37.1162 -0.0449
55.7400 37.1295 -0.0442
55.7600 37.1428 -0.0473
55.7800 37.1561 -0.0429
55.8000 37.1694 -0.0461
55.8200 37.1828 -0.0500
55.8400 37.1961 -0.0470
55.8600 37.2094 -0.0490
55.8800 37.2227 -0.0495
55.9000 37.2360 -0.0465
55.9200 37.2494 -0.0543
55.9400 37.2627 -0.0502
55.9600 37.2761 -0.0495
55.9800 37.2894 -0.0550
56.0000 37.3028 -0.0480
56.0200 37.3162 -0.0528
56.0400 37.3295 -0.0580
56.0600 37.3428 -0.0445
56.0800 37.3562 -0.0536
56.1000 37.3695 -0.0578
56.1200 37.3828 -0.0453
56.1400 37.3961 -0.0543
56.1600 37.4094 -0.0565
56.1800 37.4228 -0.0484
56.2000 37.4361 -0.0613
56.2200 37.4494 -0.0513
56.2400 37.4627 -0.0526
56.2600 37.4761 -0.0636
56.2800 37.4894 -0.0545
56.3000 37.5028 -0.0510
56.3200 37.5161 -0.0628
56.3400 37.5294 -0.0561
56.3600 37.5428 -0.0565
56.3800 37.5561 -0.0629
56.4000 37.5694 -0.0561
56.4200 37.5828 -0.0593
56.4400 37.5961 -0.0596
56.4600 37.6095 -0.0593
56.4800 37.6228 -0.0612
56.5000 37.6361 -0.0584
56.5200 37.6494 -0.0640
56.5400 37.6628 -0.0619
56.5600 37.6761 -0.0646
56.5800 37.6894 -0.0667
56.6000 37.7027 -0.0641
56.6200 37.7160 -0.0602
56.6400 37.7294 -0.0646
56.6600 37.7427 -0.0630
56.6800 37.7561 -0.0641
56.7000 37.7694 -0.0677
56.7200 37.7828 -0.0641
56.7400 37.7962 -0.0689
56.7600 37.8095 -0.0639
56.7800 37.8228 -0.0713
56.8000 37.8361 -0.0718
56.8200 37.8495 -0.0691
56.8400 37.8628 -0.0728
56.8600 37.8761 -0.0640
56.8800 37.8894 -0.0709
56.9000 37.9028 -0.0729
56.9200 37.9161 -0.0688
56.9400 37.9294 -0.0755
56.9600 37.9427 -0.0665
56.9800 37.9561 -0.0696
57.0000 37.9694 -0.0743
57.0200 37.9827 -0.0720
57.0400 37.9961 -0.0712
57.0600 38.0094 -0.0785
57.0800 38.0228 -0.0700
57.1000 38.0362 -0.0778
57.1200 38.0495 -0.0841
57.1400 38.0628 -0.0685
57.1600 38.0762 -0.0782
57.1800 38.0895 -0.0818
57.2000 38.1028 -0.0708
57.2200 38.1161 -0.0811
57.2400 38.1294 -0.0825
57.2600 38.1427 -0.0744
57.2800 38.1561 -0.0805
57.3000 38.1694 -0.0824
57.3200 38.1827 -0.0713
57.3400 38.1960 -0.0846
57.3600 38.2094 -0.0864
57.3800 38.2227 -0.0737
57.4000 38.2361 -0.0857
57.4200 38.2494 -0.0832
57.4400 38.2628 -0.0785
57.4600 38.2761 -0.0888
57.4800 38.2894 -0.0845
57.5000 38.3028 -0.0769
57.5200 38.3161 -0.0872
57.5400 38.3295 -0.0902
57.5600 38.3428 -0.0779
57.5800 38.3561 -0.0868
57.6000 38.3694 -0.0896
57.6200 38.3828 -0.0770
57.6400 38.3961 -0.0897
57.6600 38.4094 -0.0926
57.6800 38.4227 -0.0816
57.7000 38.4360 -0.0863
57.7200 38.4494 -0.0968
57.7400 38.4627 -0.0836
57.7600 38.4760 -0.0880
57.7800 38.4894 -0.0971
57.8000 38.5028 -0.0841
57.8200 38.5162 -0.0947
57.8400 38.5295 -0.0943
57.8600 38.5428 -0.0821
57.8800 38.5562 -0.0967
57.9000 38.5695 -0.0977
57.9200 38.5828 -0.0848
57.9400 38.5961 -0.0942
57.9600 38.6094 -0.0930
57.9800 38.6227 -0.0873
58.0000 38.6360 -0.1003
58.0200 38.6494 -0.1005
58.0400 38.6627 -0.0901
58.0600 38.6761 -0.1024
58.0800 38.6894 -0.0994
58.1000 38.7028 -0.0914
58.1200 38.7161 -0.1040
58.1400 38.7295 -0.0992
58.1600 38.7428 -0.0917
58.1800 38.7562 -0.1048
58.2000 38.7695 -0.0992
58.2200 38.7828 -0.0960
58.2400 38.7961 -0.1048
58.2600 38.8095 -0.1032
58.2800 38.8228 -0.0968
58.3000 38.8361 -0.1059
58.3200 38.8494 -0.1015
58.3400 38.8628 -0.1008
58.3600 38.8761 -0.1082
58.3800 38.8894 -0.1011
58.4000 38.9027 -0.1016
58.4200 38.9160 -0.1081
58.4400 38.9294 -0.1046
58.4600 38.9428 -0.1042
58.4800 38.9561 -0.1047
58.5000 38.9695 -0.1054
58.5200 38.9828 -0.1024
58.5400 38.9962 -0.1055
58.5600 39.0095 -0.1089
58.5800 39.0228 -0.1039
58.6000 39.0361 -0.1078
58.6200 39.0495 -0.1126
58.6400 39.0628 -0.1008
58.6600 39.0761 -0.1100
58.6800 39.0894 -0.1156
58.7000 39.1027 -0.1043
58.7200 39.1161 -0.1095
58.7400 39.1294 -0.1156
58.7600 39.1427 -0.1046
58.7800 39.1560 -0.1103
58.8000 39.1694 -0.1173
58.8200 39.1827 -0.1069
58.8400 39.1961 -0.1162
58.8600 39.2094 -0.1153
58.8800 39.2228 -0.1121
58.9000 39.2362 -0.1180
58.9200 39.2495 -0.1194
58.9400 39.2628 -0.1140
58.9600 39.2761 -0.1195
58.9800 39.2895 -0.1219
59.0000 39.3028 -0.1149
59.0200 39.3161 -0.1188
59.0400 39.3294 -0.1268
59.0600 39.3427 -0.1169
59.0800 39.3561 -0.1214
59.1000 39.3694 -0.1270
59.1200 39.3827 -0.1171
59.1400 39.3960 -0.1215
59.1600 39.4094 -0.1289
59.1800 39.4227 -0.1197
59.2000 39.4361 -0.1226
59.2200 39.4494 -0.1305
59.2400 39.4627 -0.1196
59.2600 39.4761 -0.1262
59.2800 39.4894 -0.1315
59.3000 39.5028 -0.1191
59.3200 39.5161 -0.1310
59.3400 39.5295 -0.1352
59.3600 39.5428 -0.1261
59.3800 39.5561 -0.1298
59.4000 39.5694 -0.1359
59.4200 39.5827 -0.1236
59.4400 39.5961 -0.1333
59.4600 39.6094 -0.1438
59.4800 39.6227 -0.1213
59.5000 39.6360 -0.1302
59.5200 39.6494 -0.1419
59.5400 39.6627 -0.1258
59.5600 39.6760 -0.1345
59.5800 39.6894 -0.1468
59.6000 39.7028 -0.1305
59.6200 39.7162 -0.1372
59.6400 39.7295 -0.1466
59.6600 39.7428 -0.1288
59.6800 39.7561 -0.1437
59.7000 39.7695 -0.1477
59.7200 39.7828 -0.1325
59.7400 39.7961 -0.1428
59.7600 39.8094 -0.1395
59.7800 39.8227 -0.1358
59.8000 39.8361 -0.1474
59.8200 39.8494 -0.1443
59.8400 39.8627 -0.1379
59.8600 39.8760 -0.1457
59.8800 39.8894 -0.1451
59.9000 39.9027 -0.1408
59.9200 39.9160 -0.1446
59.9400 39.9294 -0.1444
59.9600 39.9428 -0.1436
59.9800 39.9562 -0.1491
60.0000 39.9695 -0.1492
60.0200 39.9828 -0.1479
60.0400 39.9961 -0.1548
60.0470 40.0006 -0.1725
