Raw Data
Time Displacement Force
(s) (mm) (N)
0.0000 0.0000 -0.1554
0.0200 0.0001 -0.1475
0.0400 0.0021 -0.0881
0.0600 0.0098 -0.0813
0.0800 0.0217 -0.1675
0.1000 0.0342 -0.1678
0.1200 0.0469 -0.1272
0.1400 0.0602 -0.1581
0.1600 0.0742 -0.1543
0.1800 0.0884 -0.1418
0.2000 0.1024 -0.1664
0.2200 0.1160 -0.1577
0.2400 0.1293 -0.1468
0.2600 0.1426 -0.1588
0.2800 0.1559 -0.1470
0.3000 0.1693 -0.1500
0.3200 0.1827 -0.1617
0.3400 0.1960 -0.1476
0.3600 0.2094 -0.1558
0.3800 0.2227 -0.1576
0.4000 0.2361 -0.1540
0.4200 0.2494 -0.1584
0.4400 0.2626 -0.1541
0.4600 0.2760 -0.1635
0.4800 0.2893 -0.1542
0.5000 0.3027 -0.1537
0.5200 0.3160 -0.1659
0.5400 0.3293 -0.1595
0.5600 0.3426 -0.1574
0.5800 0.3560 -0.1622
0.6000 0.3694 -0.1641
0.6200 0.3827 -0.1588
0.6400 0.3961 -0.1639
0.6600 0.4094 -0.1663
0.6800 0.4228 -0.1593
0.7000 0.4361 -0.1712
0.7200 0.4494 -0.1644
0.7400 0.4627 -0.1658
0.7600 0.4761 -0.1660
0.7800 0.4894 -0.1669
0.8000 0.5027 -0.1691
0.8200 0.5160 -0.1626
0.8400 0.5294 -0.1673
0.8600 0.5427 -0.1715
0.8800 0.5560 -0.1635
0.9000 0.5693 -0.1649
0.9200 0.5826 -0.1718
0.9400 0.5960 -0.1659
0.9600 0.6093 -0.1704
0.9800 0.6226 -0.1768
1.0000 0.6360 -0.1664
1.0200 0.6493 -0.1765
1.0400 0.6627 -0.1792
1.0600 0.6761 -0.1679
1.0800 0.6894 -0.1800
1.1000 0.7027 -0.1822
1.1200 0.7161 -0.1717
1.1400 0.7294 -0.1839
1.1600 0.7427 -0.1837
1.1800 0.7560 -0.1769
1.2000 0.7694 -0.1874
1.2200 0.7827 -0.1861
1.2400 0.7960 -0.1773
1.2600 0.8093 -0.1871
1.2800 0.8226 -0.1862
1.3000 0.8360 -0.1790
1.3200 0.8493 -0.1887
1.3400 0.8627 -0.1854
1.3600 0.8760 -0.1851
1.3800 0.8893 -0.1923
1.4000 0.9027 -0.1916
1.4200 0.9160 -0.1895
1.4400 0.9294 -0.1958
1.4600 0.9427 -0.1897
1.4800 0.9561 -0.1935
1.5000 0.9694 -0.1995
1.5200 0.9827 -0.1957
1.5400 0.9960 -0.1949
1.5600 1.0093 -0.2028
1.5800 1.0227 -0.2002
1.6000 1.0360 -0.1976
1.6200 1.0493 -0.2046
1.6400 1.0626 -0.2023
1.6600 1.0760 -0.1997
1.6800 1.0893 -0.2062
1.7000 1.1027 -0.2020
1.7200 1.1160 -0.2034
1.7400 1.1294 -0.2118
1.7600 1.1428 -0.2041
1.7800 1.1561 -0.2059
1.8000 1.1694 -0.2164
1.8200 1.1827 -0.2051
1.8400 1.1961 -0.2080
1.8600 1.2094 -0.2177
1.8800 1.2227 -0.2101
1.9000 1.2360 -0.2087
1.9200 1.2493 -0.2155
1.9400 1.2627 -0.2166
1.9600 1.2760 -0.2134
1.9800 1.2893 -0.2203
2.0000 1.3026 -0.2173
2.0200 1.3160 -0.2130
2.0400 1.3293 -0.2189
2.0600 1.3427 -0.2185
2.0800 1.3560 -0.2162
2.1000 1.3694 -0.2211
2.1200 1.3828 -0.2200
2.1400 1.3961 -0.2187
2.1600 1.4094 -0.2248
2.1800 1.4227 -0.2230
2.2000 1.4361 -0.2207
2.2200 1.4494 -0.2286
2.2400 1.4627 -0.2197
2.2600 1.4760 -0.2232
2.2800 1.4893 -0.2281
2.3000 1.5026 -0.2207
2.3200 1.5160 -0.2259
2.3400 1.5293 -0.2316
2.3600 1.5427 -0.2232
2.3800 1.5560 -0.2251
2.4000 1.5694 -0.2322
2.4200 1.5827 -0.2296
2.4400 1.5960 -0.2263
2.4600 1.6094 -0.2332
2.4800 1.6227 -0.2312
2.5000 1.6360 -0.2260
2.5200 1.6493 -0.2327
2.5400 1.6626 -0.2323
2.5600 1.6760 -0.2254
2.5800 1.6894 -0.2360
2.6000 1.7027 -0.2374
2.6200 1.7161 -0.2241
2.6400 1.7294 -0.2356
2.6600 1.7428 -0.2410
2.6800 1.7561 -0.2254
2.7000 1.7694 -0.2327
2.7200 1.7827 -0.2405
2.7400 1.7960 -0.2312
2.7600 1.8093 -0.2321
2.7800 1.8226 -0.2415
2.8000 1.8360 -0.2320
2.8200 1.8493 -0.2389
2.8400 1.8627 -0.2443
2.8600 1.8761 -0.2320
2.8800 1.8894 -0.2437
2.9000 1.9027 -0.2402
2.9200 1.9161 -0.2385
2.9400 1.9294 -0.2449
2.9600 1.9427 -0.2430
2.9800 1.9560 -0.2364
3.0000 1.9694 -0.2466
3.0200 1.9827 -0.2478
3.0400 1.9961 -0.2416
3.0600 2.0093 -0.2500
3.0800 2.0226 -0.2498
3.1000 2.0360 -0.2420
3.1200 2.0493 -0.2529
3.1400 2.0627 -0.2542
3.1600 2.0760 -0.2453
3.1800 2.0894 -0.2512
3.2000 2.1027 -0.2565
3.2200 2.1161 -0.2466
3.2400 2.1294 -0.2464
3.2600 2.1428 -0.2556
3.2800 2.1561 -0.2531
3.3000 2.1694 -0.2532
3.3200 2.1827 -0.2534
3.3400 2.1960 -0.2508
3.3600 2.2093 -0.2581
3.3800 2.2227 -0.2562
3.4000 2.2360 -0.2509
3.4200 2.2493 -0.2606
3.4400 2.2626 -0.2592
3.4600 2.2760 -0.2540
3.4800 2.2894 -0.2646
3.5000 2.3027 -0.2593
3.5200 2.3160 -0.2578
3.5400 2.3294 -0.2633
3.5600 2.3427 -0.2589
3.5800 2.3561 -0.2596
3.6000 2.3694 -0.2693
3.6200 2.3827 -0.2599
3.6400 2.3961 -0.2601
3.6600 2.4094 -0.2700
3.6800 2.4228 -0.2638
3.7000 2.4361 -0.2654
3.7200 2.4494 -0.2696
3.7400 2.4627 -0.2640
3.7600 2.4760 -0.2590
3.7800 2.4893 -0.2705
3.8000 2.5026 -0.2713
3.8200 2.5159 -0.2587
3.8400 2.5293 -0.2725
3.8600 2.5426 -0.2732
3.8800 2.5560 -0.2603
3.9000 2.5693 -0.2672
3.9200 2.5827 -0.2702
3.9400 2.5961 -0.2684
3.9600 2.6094 -0.2606
3.9800 2.6227 -0.2665
4.0000 2.6360 -0.2648
4.0200 2.6494 -0.2705
4.0400 2.6627 -0.2721
4.0600 2.6760 -0.2631
4.0800 2.6894 -0.2774
4.1000 2.7027 -0.2745
4.1200 2.7160 -0.2660
4.1400 2.7293 -0.2723
4.1600 2.7427 -0.2730
4.1800 2.7560 -0.2738
4.2000 2.7693 -0.2712
4.2200 2.7826 -0.2773
4.2400 2.7960 -0.2741
4.2600 2.8093 -0.2720
4.2800 2.8227 -0.2737
4.3000 2.8361 -0.2734
4.3200 2.8494 -0.2770
4.3400 2.8627 -0.2717
4.3600 2.8761 -0.2775
4.3800 2.8894 -0.2766
4.4000 2.9027 -0.2757
4.4200 2.9160 -0.2781
4.4400 2.9293 -0.2757
4.4600 2.9427 -0.2773
4.4800 2.9560 -0.2764
4.5000 2.9693 -0.2780
4.5200 2.9826 -0.2771
4.5400 2.9960 -0.2766
4.5600 3.0093 -0.2856
4.5800 3.0227 -0.2801
4.6000 3.0360 -0.2735
4.6200 3.0493 -0.2830
4.6400 3.0627 -0.2797
4.6600 3.0760 -0.2774
4.6800 3.0893 -0.2827
4.7000 3.1027 -0.2753
4.7200 3.1160 -0.2866
4.7400 3.1294 -0.2877
4.7600 3.1428 -0.2702
4.7800 3.1561 -0.2895
4.8000 3.1694 -0.2915
4.8200 3.1828 -0.2667
4.8400 3.1961 -0.2903
4.8600 3.2094 -0.2944
4.8800 3.2226 -0.2743
4.9000 3.2359 -0.2910
4.9200 3.2493 -0.2943
4.9400 3.2626 -0.2782
4.9600 3.2760 -0.2934
4.9800 3.2893 -0.2892
5.0000 3.3027 -0.2785
5.0200 3.3161 -0.3008
5.0400 3.3294 -0.2887
5.0600 3.3428 -0.2820
5.0800 3.3561 -0.3047
5.1000 3.3695 -0.2881
5.1200 3.3828 -0.2890
5.1400 3.3960 -0.3034
5.1600 3.4093 -0.2916
5.1800 3.4227 -0.2872
5.2000 3.4360 -0.3028
5.2200 3.4493 -0.2962
5.2400 3.4626 -0.2921
5.2600 3.4760 -0.3000
5.2800 3.4893 -0.2960
5.3000 3.5027 -0.2948
5.3200 3.5160 -0.3055
5.3400 3.5293 -0.2963
5.3600 3.5427 -0.2951
5.3800 3.5561 -0.3057
5.4000 3.5694 -0.2932
5.4200 3.5827 -0.2966
5.4400 3.5961 -0.3063
5.4600 3.6094 -0.2949
5.4800 3.6228 -0.3007
5.5000 3.6360 -0.3052
5.5200 3.6493 -0.2920
5.5400 3.6627 -0.3042
5.5600 3.6760 -0.3075
5.5800 3.6893 -0.2939
5.6000 3.7026 -0.3025
5.6200 3.7160 -0.3067
5.6400 3.7293 -0.2969
5.6600 3.7427 -0.3067
5.6800 3.7560 -0.3066
5.7000 3.7694 -0.3008
5.7200 3.7827 -0.3035
5.7400 3.7961 -0.3075
5.7600 3.8094 -0.3042
5.7800 3.8227 -0.3059
5.8000 3.8361 -0.3090
5.8200 3.8494 -0.3070
5.8400 3.8628 -0.3040
5.8600 3.8761 -0.3058
5.8800 3.8894 -0.3043
5.9000 3.9027 -0.3029
5.9200 3.9160 -0.3140
5.9400 3.9293 -0.3115
5.9600 3.9426 -0.3029
5.9800 3.9560 -0.3123
6.0000 3.9693 -0.3068
6.0200 3.9827 -0.3027
6.0400 3.9960 -0.3141
6.0600 4.0093 -0.3058
6.0800 4.0227 -0.3051
6.1000 4.0361 -0.3151
6.1200 4.0494 -0.3030
6.1400 4.0627 -0.3122
6.1600 4.0761 -0.3162
6.1800 4.0894 -0.3051
6.2000 4.1027 -0.3114
6.2200 4.1160 -0.3199
6.2400 4.1293 -0.3054
6.2600 4.1427 -0.3068
6.2800 4.1560 -0.3245
6.3000 4.1694 -0.3072
6.3200 4.1827 -0.3139
6.3400 4.1960 -0.3194
6.3600 4.2093 -0.3069
6.3800 4.2227 -0.3175
6.4000 4.2360 -0.3208
6.4200 4.2493 -0.3053
6.4400 4.2627 -0.3201
6.4600 4.2761 -0.3204
6.4800 4.2894 -0.3108
6.5000 4.3027 -0.3237
6.5200 4.3160 -0.3188
6.5400 4.3294 -0.3145
6.5600 4.3428 -0.3260
6.5800 4.3561 -0.3142
6.6000 4.3694 -0.3153
6.6200 4.3827 -0.3209
6.6400 4.3960 -0.3170
6.6600 4.4094 -0.3183
6.6800 4.4227 -0.3281
6.7000 4.4360 -0.3147
6.7200 4.4493 -0.3182
6.7400 4.4626 -0.3213
6.7600 4.4760 -0.3171
6.7800 4.4893 -0.3244
6.8000 4.5027 -0.3184
6.8200 4.5161 -0.3190
6.8400 4.5294 -0.3251
6.8600 4.5427 -0.3204
6.8800 4.5560 -0.3174
6.9000 4.5694 -0.3251
6.9200 4.5827 -0.3213
6.9400 4.5960 -0.3227
6.9600 4.6094 -0.3228
6.9800 4.6227 -0.3218
7.0000 4.6360 -0.3275
7.0200 4.6494 -0.3273
7.0400 4.6626 -0.3211
7.0600 4.6759 -0.3251
7.0800 4.6893 -0.3288
7.1000 4.7026 -0.3220
7.1200 4.7160 -0.3289
7.1400 4.7293 -0.3289
7.1600 4.7427 -0.3238
7.1800 4.7561 -0.3318
7.2000 4.7695 -0.3255
7.2200 4.7828 -0.3262
7.2400 4.7961 -0.3318
7.2600 4.8095 -0.3241
7.2800 4.8228 -0.3270
7.3000 4.8360 -0.3338
7.3200 4.8493 -0.3220
7.3400 4.8626 -0.3263
7.3600 4.8760 -0.3280
7.3800 4.8893 -0.3266
7.4000 4.9026 -0.3324
7.4200 4.9160 -0.3224
7.4400 4.9294 -0.3283
7.4600 4.9427 -0.3373
7.4800 4.9561 -0.3250
7.5000 4.9694 -0.3327
7.5200 4.9827 -0.3316
7.5400 4.9961 -0.3274
7.5600 5.0094 -0.3339
7.5800 5.0227 -0.3301
7.6000 5.0361 -0.3294
7.6200 5.0494 -0.3369
7.6400 5.0627 -0.3350
7.6600 5.0760 -0.3284
7.6800 5.0893 -0.3376
7.7000 5.1027 -0.3370
7.7200 5.1160 -0.3317
7.7400 5.1294 -0.3390
7.7600 5.1427 -0.3387
7.7800 5.1560 -0.3336
7.8000 5.1693 -0.3396
7.8200 5.1827 -0.3405
7.8400 5.1960 -0.3328
7.8600 5.2093 -0.3455
7.8800 5.2227 -0.3409
7.9000 5.2361 -0.3318
7.9200 5.2494 -0.3474
7.9400 5.2627 -0.3380
7.9600 5.2760 -0.3319
7.9800 5.2894 -0.3445
8.0000 5.3028 -0.3472
8.0200 5.3161 -0.3351
8.0400 5.3294 -0.3422
8.0600 5.3427 -0.3424
8.0800 5.3560 -0.3357
8.1000 5.3694 -0.3472
8.1200 5.3827 -0.3409
8.1400 5.3960 -0.3321
8.1600 5.4093 -0.3465
8.1800 5.4227 -0.3423
8.2000 5.4360 -0.3348
8.2200 5.4493 -0.3438
8.2400 5.4627 -0.3433
8.2600 5.4761 -0.3327
8.2800 5.4894 -0.3467
8.3000 5.5028 -0.3491
8.3200 5.5161 -0.3375
8.3400 5.5294 -0.3396
8.3600 5.5427 -0.3492
8.3800 5.5560 -0.3365
8.4000 5.5693 -0.3442
8.4200 5.5827 -0.3488
8.4400 5.5960 -0.3383
8.4600 5.6094 -0.3465
8.4800 5.6227 -0.3469
8.5000 5.6360 -0.3360
8.5200 5.6493 -0.3451
8.5400 5.6627 -0.3537
8.5600 5.6760 -0.3366
8.5800 5.6893 -0.3466
8.6000 5.7027 -0.3560
8.6200 5.7161 -0.3364
8.6400 5.7294 -0.3521
8.6600 5.7427 -0.3553
8.6800 5.7560 -0.3365
8.7000 5.7694 -0.3502
8.7200 5.7828 -0.3505
8.7400 5.7961 -0.3396
8.7600 5.8094 -0.3518
8.7800 5.8227 -0.3528
8.8000 5.8360 -0.3365
8.8200 5.8493 -0.3560
8.8400 5.8626 -0.3564
8.8600 5.8759 -0.3414
8.8800 5.8893 -0.3556
8.9000 5.9027 -0.3535
8.9200 5.9160 -0.3457
8.9400 5.9294 -0.3557
8.9600 5.9427 -0.3550
8.9800 5.9561 -0.3497
9.0000 5.9694 -0.3592
9.0200 5.9827 -0.3565
9.0400 5.9960 -0.3469
9.0600 6.0094 -0.3609
9.0800 6.0228 -0.3587
9.1000 6.0361 -0.3506
9.1200 6.0494 -0.3596
9.1400 6.0626 -0.3537
9.1600 6.0760 -0.3543
9.1800 6.0893 -0.3607
9.2000 6.1027 -0.3621
9.2200 6.1160 -0.3584
9.2400 6.1293 -0.3591
9.2600 6.1426 -0.3635
9.2800 6.1560 -0.3570
9.3000 6.1693 -0.3635
9.3200 6.1827 -0.3633
9.3400 6.1961 -0.3607
9.3600 6.2094 -0.3633
9.3800 6.2228 -0.3605
9.4000 6.2361 -0.3624
9.4200 6.2494 -0.3625
9.4400 6.2627 -0.3686
9.4600 6.2760 -0.3599
9.4800 6.2893 -0.3662
9.5000 6.3026 -0.3665
9.5200 6.3160 -0.3617
9.5400 6.3293 -0.3719
9.5600 6.3427 -0.3661
9.5800 6.3560 -0.3616
9.6000 6.3693 -0.3718
9.6200 6.3827 -0.3627
9.6400 6.3961 -0.3653
9.6600 6.4094 -0.3723
9.6800 6.4227 -0.3652
9.7000 6.4361 -0.3630
9.7200 6.4494 -0.3715
9.7400 6.4627 -0.3711
9.7600 6.4760 -0.3629
9.7800 6.4893 -0.3758
9.8000 6.5027 -0.3690
9.8200 6.5161 -0.3683
9.8400 6.5294 -0.3737
9.8600 6.5427 -0.3641
9.8800 6.5561 -0.3722
9.9000 6.5694 -0.3728
9.9200 6.5827 -0.3708
9.9400 6.5960 -0.3654
9.9600 6.6093 -0.3737
9.9800 6.6227 -0.3694
10.0000 6.6360 -0.3675
10.0200 6.6493 -0.3733
10.0400 6.6626 -0.3660
10.0600 6.6760 -0.3744
10.0800 6.6894 -0.3706
10.1000 6.7027 -0.3699
10.1200 6.7161 -0.3717
10.1400 6.7294 -0.3648
10.1600 6.7428 -0.3680
10.1800 6.7561 -0.3733
10.2000 6.7694 -0.3689
10.2200 6.7827 -0.3659
10.2400 6.7960 -0.3681
10.2600 6.8094 -0.3690
10.2800 6.8227 -0.3671
10.3000 6.8360 -0.3711
10.3200 6.8493 -0.3675
10.3400 6.8626 -0.3629
10.3600 6.8760 -0.3710
10.3800 6.8893 -0.3685
10.4000 6.9027 -0.3608
10.4200 6.9160 -0.3707
10.4400 6.9294 -0.3658
10.4600 6.9427 -0.3652
10.4800 6.9561 -0.3700
10.5000 6.9694 -0.3659
10.5200 6.9827 -0.3689
10.5400 6.9961 -0.3726
10.5600 7.0094 -0.3655
10.5800 7.0227 -0.3694
10.6000 7.0360 -0.3705
10.6200 7.0494 -0.3664
10.6400 7.0627 -0.3751
10.6600 7.0760 -0.3726
10.6800 7.0893 -0.3644
10.7000 7.1027 -0.3766
10.7200 7.1160 -0.3747
10.7400 7.1294 -0.3633
10.7600 7.1427 -0.3775
10.7800 7.1560 -0.3780
10.8000 7.1694 -0.3671
10.8200 7.1827 -0.3787
10.8400 7.1961 -0.3759
10.8600 7.2094 -0.3706
10.8800 7.2228 -0.3793
10.9000 7.2361 -0.3780
10.9200 7.2494 -0.3733
10.9400 7.2627 -0.3780
10.9600 7.2760 -0.3800
10.9800 7.2894 -0.3734
11.0000 7.3027 -0.3834
11.0200 7.3160 -0.3793
11.0400 7.3293 -0.3739
11.0600 7.3426 -0.3855
11.0800 7.3560 -0.3785
11.1000 7.3693 -0.3769
11.1200 7.3827 -0.3831
11.1400 7.3961 -0.3840
11.1600 7.4095 -0.3816
11.1800 7.4228 -0.3810
11.2000 7.4361 -0.3881
11.2200 7.4494 -0.3763
11.2400 7.4627 -0.3781
11.2600 7.4761 -0.3902
11.2800 7.4894 -0.3815
11.3000 7.5027 -0.3811
11.3200 7.5160 -0.3872
11.3400 7.5294 -0.3799
11.3600 7.5427 -0.3861
11.3800 7.5560 -0.3891
11.4000 7.5693 -0.3834
11.4200 7.5827 -0.3853
11.4400 7.5960 -0.3917
11.4600 7.6093 -0.3824
11.4800 7.6227 -0.3845
11.5000 7.6360 -0.3901
11.5200 7.6494 -0.3835
11.5400 7.6627 -0.3859
11.5600 7.6761 -0.3926
11.5800 7.6894 -0.3772
11.6000 7.7027 -0.3882
11.6200 7.7161 -0.3923
11.6400 7.7294 -0.3798
11.6600 7.7427 -0.3887
11.6800 7.7560 -0.3913
11.7000 7.7693 -0.3802
11.7200 7.7827 -0.3902
11.7400 7.7960 -0.3927
11.7600 7.8093 -0.3775
11.7800 7.8226 -0.3926
11.8000 7.8360 -0.3924
11.8200 7.8493 -0.3794
11.8400 7.8627 -0.3927
11.8600 7.8760 -0.3924
11.8800 7.8894 -0.3812
11.9000 7.9027 -0.3902
11.9200 7.9160 -0.3931
11.9400 7.9293 -0.3755
11.9600 7.9427 -0.3916
11.9800 7.9561 -0.3936
12.0000 7.9694 -0.3767
12.0200 7.9827 -0.3922
12.0400 7.9961 -0.3900
12.0600 8.0094 -0.3826
12.0800 8.0227 -0.3892
12.1000 8.0360 -0.3887
12.1200 8.0493 -0.3836
12.1400 8.0626 -0.3911
12.1600 8.0759 -0.3894
12.1800 8.0893 -0.3837
12.2000 8.1026 -0.3890
12.2200 8.1160 -0.3890
12.2400 8.1294 -0.3851
12.2600 8.1428 -0.3938
12.2800 8.1561 -0.3859
12.3000 8.1694 -0.3871
12.3200 8.1828 -0.3935
12.3400 8.1961 -0.3886
12.3600 8.2094 -0.3855
12.3800 8.2227 -0.3917
12.4000 8.2360 -0.3871
12.4200 8.2493 -0.3880
12.4400 8.2627 -0.3917
12.4600 8.2760 -0.3879
12.4800 8.2893 -0.3904
12.5000 8.3026 -0.3916
12.5200 8.3160 -0.3915
12.5400 8.3293 -0.3896
12.5600 8.3427 -0.3903
12.5800 8.3560 -0.3890
12.6000 8.3694 -0.3897
12.6200 8.3828 -0.3915
12.6400 8.3961 -0.3907
12.6600 8.4094 -0.3895
12.6800 8.4228 -0.3918
12.7000 8.4361 -0.3889
12.7200 8.4494 -0.3906
12.7400 8.4627 -0.3925
12.7600 8.4760 -0.3895
12.7800 8.4893 -0.3916
12.8000 8.5027 -0.3937
12.8200 8.5160 -0.3936
12.8400 8.5293 -0.3883
12.8600 8.5426 -0.3918
12.8800 8.5560 -0.3921
12.9000 8.5694 -0.3890
12.9200 8.5827 -0.3973
12.9400 8.5960 -0.3947
12.9600 8.6094 -0.3942
12.9800 8.6228 -0.4004
13.0000 8.6361 -0.3960
13.0200 8.6494 -0.3944
13.0400 8.6627 -0.3983
13.0600 8.6761 -0.3946
13.0800 8.6894 -0.3957
13.1000 8.7027 -0.3965
13.1200 8.7161 -0.3971
13.1400 8.7294 -0.3955
13.1600 8.7427 -0.4004
13.1800 8.7560 -0.3965
13.2000 8.7693 -0.3966
13.2200 8.7826 -0.4028
13.2400 8.7960 -0.3941
13.2600 8.8093 -0.3992
13.2800 8.8227 -0.4039
13.3000 8.8360 -0.3968
13.3200 8.8494 -0.3985
13.3400 8.8628 -0.4092
13.3600 8.8761 -0.3968
13.3800 8.8894 -0.4018
13.4000 8.9027 -0.4069
13.4200 8.9161 -0.3964
13.4400 8.9294 -0.4013
13.4600 8.9427 -0.4102
13.4800 8.9560 -0.3960
13.5000 8.9693 -0.4059
13.5200 8.9827 -0.4120
13.5400 8.9960 -0.3963
13.5600 9.0093 -0.4090
13.5800 9.0227 -0.4084
13.6000 9.0360 -0.3937
13.6200 9.0493 -0.4099
13.6400 9.0626 -0.4057
13.6600 9.0760 -0.3970
13.6800 9.0894 -0.4118
13.7000 9.1027 -0.4041
13.7200 9.1161 -0.4013
13.7400 9.1294 -0.4138
13.7600 9.1428 -0.4044
13.7800 9.1561 -0.4063
13.8000 9.1694 -0.4127
13.8200 9.1827 -0.4084
13.8400 9.1960 -0.4028
13.8600 9.2094 -0.4128
13.8800 9.2227 -0.4069
13.9000 9.2360 -0.4082
13.9200 9.2493 -0.4098
13.9400 9.2626 -0.4055
13.9600 9.2760 -0.4121
13.9800 9.2893 -0.4119
14.0000 9.3027 -0.4091
14.0200 9.3160 -0.4127
14.0400 9.3294 -0.4096
14.0600 9.3427 -0.4116
14.0800 9.3561 -0.4132
14.1000 9.3694 -0.4099
14.1200 9.3827 -0.4175
14.1400 9.3961 -0.4125
14.1600 9.4094 -0.4128
14.1800 9.4227 -0.4160
14.2000 9.4360 -0.4094
14.2200 9.4494 -0.4173
14.2400 9.4627 -0.4212
14.2600 9.4760 -0.4062
14.2800 9.4893 -0.4168
14.3000 9.5026 -0.4165
14.3200 9.5159 -0.4105
14.3400 9.5293 -0.4213
14.3600 9.5426 -0.4174
14.3800 9.5560 -0.4096
14.4000 9.5694 -0.4227
14.4200 9.5828 -0.4139
14.4400 9.5961 -0.4125
14.4600 9.6094 -0.4191
14.4800 9.6228 -0.4141
14.5000 9.6361 -0.4103
14.5200 9.6494 -0.4195
14.5400 9.6626 -0.4124
14.5600 9.6759 -0.4092
14.5800 9.6893 -0.4215
14.6000 9.7026 -0.4160
14.6200 9.7160 -0.4059
14.6400 9.7293 -0.4191
14.6600 9.7427 -0.4124
14.6800 9.7560 -0.4095
14.7000 9.7694 -0.4216
14.7200 9.7827 -0.4082
14.7400 9.7960 -0.4122
14.7600 9.8094 -0.4168
14.7800 9.8228 -0.4091
14.8000 9.8361 -0.4175
14.8200 9.8494 -0.4157
14.8400 9.8627 -0.4110
14.8600 9.8761 -0.4202
14.8800 9.8894 -0.4228
14.9000 9.9027 -0.4050
14.9200 9.9160 -0.4164
14.9400 9.9293 -0.4206
14.9600 9.9427 -0.4120
14.9800 9.9560 -0.4196
15.0000 9.9693 -0.4160
15.0200 9.9826 -0.4184
15.0400 9.9960 -0.4153
15.0600 10.0093 -0.4182
15.0800 10.0227 -0.4182
15.1000 10.0360 -0.4139
15.1200 10.0494 -0.4189
15.1400 10.0627 -0.4188
15.1600 10.0761 -0.4197
15.1800 10.0894 -0.4243
15.2000 10.1027 -0.4195
15.2200 10.1161 -0.4181
15.2400 10.1294 -0.4249
15.2600 10.1427 -0.4199
15.2800 10.1560 -0.4204
15.3000 10.1694 -0.4232
15.3200 10.1827 -0.4202
15.3400 10.1960 -0.4258
15.3600 10.2093 -0.4166
15.3800 10.2226 -0.4200
15.4000 10.2360 -0.4233
15.4200 10.2493 -0.4259
15.4400 10.2627 -0.4255
15.4600 10.2760 -0.4191
15.4800 10.2894 -0.4225
15.5000 10.3027 -0.4250
15.5200 10.3161 -0.4209
15.5400 10.3294 -0.4233
15.5600 10.3427 -0.4222
15.5800 10.3561 -0.4235
15.6000 10.3694 -0.4293
15.6200 10.3827 -0.4210
15.6400 10.3960 -0.4204
15.6600 10.4093 -0.4227
15.6800 10.4227 -0.4221
15.7000 10.4360 -0.4213
15.7200 10.4493 -0.4246
15.7400 10.4626 -0.4222
15.7600 10.4760 -0.4167
15.7800 10.4893 -0.4240
15.8000 10.5027 -0.4210
15.8200 10.5160 -0.4183
15.8400 10.5293 -0.4228
15.8600 10.5427 -0.4217
15.8800 10.5560 -0.4204
15.9000 10.5694 -0.4176
15.9200 10.5827 -0.4227
15.9400 10.5961 -0.4213
15.9600 10.6094 -0.4259
15.9800 10.6228 -0.4244
16.0000 10.6360 -0.4159
16.0200 10.6494 -0.4234
16.0400 10.6627 -0.4250
16.0600 10.6760 -0.4098
16.0800 10.6893 -0.4275
16.1000 10.7026 -0.4227
16.1200 10.7160 -0.4164
16.1400 10.7293 -0.4345
16.1600 10.7426 -0.4245
16.1800 10.7560 -0.4157
16.2000 10.7694 -0.4333
16.2200 10.7828 -0.4272
16.2400 10.7961 -0.4166
16.2600 10.8094 -0.4352
16.2800 10.8227 -0.4227
16.3000 10.8361 -0.4157
16.3200 10.8494 -0.4304
16.3400 10.8627 -0.4221
16.3600 10.8760 -0.4233
16.3800 10.8893 -0.4321
16.4000 10.9027 -0.4241
16.4200 10.9160 -0.4222
16.4400 10.9293 -0.4272
16.4600 10.9426 -0.4266
16.4800 10.9560 -0.4186
16.5000 10.9693 -0.4307
16.5200 10.9827 -0.4264
16.5400 10.9960 -0.4199
16.5600 11.0094 -0.4299
16.5800 11.0227 -0.4219
16.6000 11.0361 -0.4291
16.6200 11.0494 -0.4323
16.6400 11.0627 -0.4188
16.6600 11.0761 -0.4242
16.6800 11.0894 -0.4302
16.7000 11.1027 -0.4198
16.7200 11.1160 -0.4271
16.7400 11.1293 -0.4299
16.7600 11.1426 -0.4164
16.7800 11.1560 -0.4328
16.8000 11.1693 -0.4240
16.8200 11.1827 -0.4232
16.8400 11.1960 -0.4279
16.8600 11.2094 -0.4199
16.8800 11.2227 -0.4278
16.9000 11.2360 -0.4291
16.9200 11.2494 -0.4206
16.9400 11.2627 -0.4281
16.9600 11.2760 -0.4331
16.9800 11.2893 -0.4208
17.0000 11.3027 -0.4280
17.0200 11.3160 -0.4359
17.0400 11.3294 -0.4245
17.0600 11.3427 -0.4285
17.0800 11.3561 -0.4315
17.1000 11.3694 -0.4244
17.1200 11.3827 -0.4276
17.1400 11.3961 -0.4373
17.1600 11.4094 -0.4246
17.1800 11.4227 -0.4293
17.2000 11.4360 -0.4378
17.2200 11.4493 -0.4269
17.2400 11.4627 -0.4351
17.2600 11.4760 -0.4345
17.2800 11.4893 -0.4324
17.3000 11.5027 -0.4347
17.3200 11.5161 -0.4376
17.3400 11.5294 -0.4334
17.3600 11.5427 -0.4339
17.3800 11.5560 -0.4376
17.4000 11.5694 -0.4331
17.4200 11.5827 -0.4379
17.4400 11.5960 -0.4399
17.4600 11.6094 -0.4368
17.4800 11.6227 -0.4297
17.5000 11.6361 -0.4357
17.5200 11.6494 -0.4390
17.5400 11.6626 -0.4314
17.5600 11.6760 -0.4430
17.5800 11.6893 -0.4400
17.6000 11.7027 -0.4342
17.6200 11.7160 -0.4461
17.6400 11.7293 -0.4361
17.6600 11.7427 -0.4351
17.6800 11.7561 -0.4479
17.7000 11.7694 -0.4347
17.7200 11.7827 -0.4379
17.7400 11.7961 -0.4462
17.7600 11.8094 -0.4314
17.7800 11.8227 -0.4353
17.8000 11.8360 -0.4483
17.8200 11.8493 -0.4279
17.8400 11.8627 -0.4417
17.8600 11.8760 -0.4427
17.8800 11.8893 -0.4287
17.9000 11.9026 -0.4408
17.9200 11.9160 -0.4406
17.9400 11.9294 -0.4335
17.9600 11.9427 -0.4409
17.9800 11.9560 -0.4372
18.0000 11.9694 -0.4331
18.0200 11.9827 -0.4408
18.0400 11.9961 -0.4404
18.0600 12.0094 -0.4292
18.0800 12.0227 -0.4400
18.1000 12.0361 -0.4352
18.1200 12.0494 -0.4346
18.1400 12.0628 -0.4480
18.1600 12.0760 -0.4348
18.1800 12.0894 -0.4263
18.2000 12.1027 -0.4437
18.2200 12.1160 -0.4372
18.2400 12.1293 -0.4330
18.2600 12.1426 -0.4385
18.2800 12.1560 -0.4370
18.3000 12.1693 -0.4328
18.3200 12.1827 -0.4442
18.3400 12.1960 -0.4383
18.3600 12.2094 -0.4293
18.3800 12.2227 -0.4463
18.4000 12.2361 -0.4346
18.4200 12.2494 -0.4345
18.4400 12.2627 -0.4436
18.4600 12.2760 -0.4445
18.4800 12.2894 -0.4352
18.5000 12.3027 -0.4410
18.5200 12.3160 -0.4471
18.5400 12.3293 -0.4358
18.5600 12.3427 -0.4462
18.5800 12.3560 -0.4419
18.6000 12.3694 -0.4394
18.6200 12.3827 -0.4479
18.6400 12.3960 -0.4412
18.6600 12.4094 -0.4446
18.6800 12.4227 -0.4437
18.7000 12.4360 -0.4439
18.7200 12.4493 -0.4441
18.7400 12.4627 -0.4433
18.7600 12.4761 -0.4519
18.7800 12.4894 -0.4495
18.8000 12.5027 -0.4402
18.8200 12.5161 -0.4531
18.8400 12.5294 -0.4432
18.8600 12.5427 -0.4464
18.8800 12.5560 -0.4613
18.9000 12.5693 -0.4377
18.9200 12.5827 -0.4437
18.9400 12.5960 -0.4584
18.9600 12.6093 -0.4411
18.9800 12.6226 -0.4488
19.0000 12.6360 -0.4604
19.0200 12.6493 -0.4375
19.0400 12.6627 -0.4487
19.0600 12.6760 -0.4541
19.0800 12.6893 -0.4404
19.1000 12.7027 -0.4489
19.1200 12.7160 -0.4552
19.1400 12.7294 -0.4425
19.1600 12.7427 -0.4511
19.1800 12.7560 -0.4533
19.2000 12.7694 -0.4441
19.2200 12.7827 -0.4573
19.2400 12.7961 -0.4456
19.2600 12.8094 -0.4453
19.2800 12.8227 -0.4580
19.3000 12.8361 -0.4460
19.3200 12.8494 -0.4492
19.3400 12.8627 -0.4574
19.3600 12.8760 -0.4502
19.3800 12.8893 -0.4462
19.4000 12.9026 -0.4566
19.4200 12.9160 -0.4532
19.4400 12.9293 -0.4498
19.4600 12.9427 -0.4496
19.4800 12.9561 -0.4488
19.5000 12.9694 -0.4548
19.5200 12.9828 -0.4558
19.5400 12.9961 -0.4457
19.5600 13.0094 -0.4571
19.5800 13.0228 -0.4572
19.6000 13.0361 -0.4440
19.6200 13.0494 -0.4540
19.6400 13.0627 -0.4530
19.6600 13.0760 -0.4465
19.6800 13.0893 -0.4541
19.7000 13.1026 -0.4539
19.7200 13.1159 -0.4473
19.7400 13.1293 -0.4557
19.7600 13.1427 -0.4519
19.7800 13.1560 -0.4481
19.8000 13.1693 -0.4531
19.8200 13.1827 -0.4508
19.8400 13.1961 -0.4553
19.8600 13.2094 -0.4493
19.8800 13.2227 -0.4477
19.9000 13.2361 -0.4554
19.9200 13.2494 -0.4481
19.9400 13.2628 -0.4547
19.9600 13.2761 -0.4494
19.9800 13.2894 -0.4463
20.0000 13.3027 -0.4532
20.0200 13.3160 -0.4549
20.0400 13.3294 -0.4493
20.0600 13.3427 -0.4572
20.0800 13.3560 -0.4481
20.1000 13.3693 -0.4493
20.1200 13.3827 -0.4635
20.1400 13.3960 -0.4491
20.1600 13.4094 -0.4512
20.1800 13.4227 -0.4577
20.2000 13.4361 -0.4512
20.2200 13.4494 -0.4559
20.2400 13.4627 -0.4513
20.2600 13.4760 -0.4490
20.2800 13.4894 -0.4574
20.3000 13.5027 -0.4560
20.3200 13.5161 -0.4506
20.3400 13.5294 -0.4606
20.3600 13.5427 -0.4497
20.3800 13.5560 -0.4503
20.4000 13.5694 -0.4637
20.4200 13.5826 -0.4502
20.4400 13.5960 -0.4517
20.4600 13.6093 -0.4617
20.4800 13.6227 -0.4490
20.5000 13.6360 -0.4540
20.5200 13.6494 -0.4624
20.5400 13.6627 -0.4522
20.5600 13.6761 -0.4591
20.5800 13.6894 -0.4636
20.6000 13.7028 -0.4475
20.6200 13.7161 -0.4531
20.6400 13.7294 -0.4654
20.6600 13.7427 -0.4537
20.6800 13.7560 -0.4524
20.7000 13.7693 -0.4581
20.7200 13.7826 -0.4547
20.7400 13.7960 -0.4548
20.7600 13.8094 -0.4609
20.7800 13.8227 -0.4522
20.8000 13.8360 -0.4561
20.8200 13.8493 -0.4581
20.8400 13.8627 -0.4584
20.8600 13.8760 -0.4577
20.8800 13.8893 -0.4566
20.9000 13.9027 -0.4550
20.9200 13.9161 -0.4596
20.9400 13.9294 -0.4610
20.9600 13.9427 -0.4557
20.9800 13.9561 -0.4558
21.0000 13.9694 -0.4573
21.0200 13.9828 -0.4540
21.0400 13.9961 -0.4589
21.0600 14.0094 -0.4628
21.0800 14.0227 -0.4520
21.1000 14.0360 -0.4571
21.1200 14.0494 -0.4621
21.1400 14.0627 -0.4528
21.1600 14.0760 -0.4608
21.1800 14.0893 -0.4591
21.2000 14.1027 -0.4557
21.2200 14.1160 -0.4550
21.2400 14.1293 -0.4570
21.2600 14.1427 -0.4588
21.2800 14.1561 -0.4587
21.3000 14.1694 -0.4541
21.3200 14.1827 -0.4531
21.3400 14.1960 -0.4541
21.3600 14.2094 -0.4539
21.3800 14.2227 -0.4618
21.4000 14.2361 -0.4548
21.4200 14.2494 -0.4562
21.4400 14.2627 -0.4540
21.4600 14.2760 -0.4522
21.4800 14.2894 -0.4580
21.5000 14.3026 -0.4539
21.5200 14.3159 -0.4482
21.5400 14.3293 -0.4570
21.5600 14.3426 -0.4567
21.5800 14.3559 -0.4491
21.6000 14.3693 -0.4627
21.6200 14.3827 -0.4545
21.6400 14.3961 -0.4501
21.6600 14.4095 -0.4652
21.6800 14.4228 -0.4521
21.7000 14.4361 -0.4502
21.7200 14.4494 -0.4650
21.7400 14.4628 -0.4584
21.7600 14.4761 -0.4507
21.7800 14.4893 -0.4627
21.8000 14.5026 -0.4551
21.8200 14.5160 -0.4553
21.8400 14.5293 -0.4637
21.8600 14.5426 -0.4575
21.8800 14.5560 -0.4569
21.9000 14.5693 -0.4674
21.9200 14.5827 -0.4580
21.9400 14.5960 -0.4573
21.9600 14.6094 -0.4701
21.9800 14.6227 -0.4576
22.0000 14.6361 -0.4596
22.0200 14.6494 -0.4737
22.0400 14.6627 -0.4614
22.0600 14.6760 -0.4610
22.0800 14.6894 -0.4691
22.1000 14.7027 -0.4643
22.1200 14.7161 -0.4637
22.1400 14.7294 -0.4707
22.1600 14.7427 -0.4650
22.1800 14.7560 -0.4603
22.2000 14.7693 -0.4751
22.2200 14.7827 -0.4650
22.2400 14.7960 -0.4630
22.2600 14.8093 -0.4757
22.2800 14.8227 -0.4659
22.3000 14.8360 -0.4656
22.3200 14.8494 -0.4759
22.3400 14.8627 -0.4635
22.3600 14.8761 -0.4669
22.3800 14.8894 -0.4731
22.4000 14.9027 -0.4640
22.4200 14.9161 -0.4637
22.4400 14.9294 -0.4739
22.4600 14.9428 -0.4635
22.4800 14.9561 -0.4689
22.5000 14.9694 -0.4760
22.5200 14.9827 -0.4645
22.5400 14.9960 -0.4655
22.5600 15.0094 -0.4780
22.5800 15.0227 -0.4695
22.6000 15.0360 -0.4683
22.6200 15.0493 -0.4737
22.6400 15.0627 -0.4659
22.6600 15.0760 -0.4715
22.6800 15.0893 -0.4676
22.7000 15.1027 -0.4656
22.7200 15.1160 -0.4686
22.7400 15.1294 -0.4699
22.7600 15.1428 -0.4663
22.7800 15.1561 -0.4614
22.8000 15.1694 -0.4714
22.8200 15.1827 -0.4745
22.8400 15.1960 -0.4641
22.8600 15.2093 -0.4661
22.8800 15.2227 -0.4733
22.9000 15.2360 -0.4651
22.9200 15.2494 -0.4655
22.9400 15.2627 -0.4749
22.9600 15.2760 -0.4631
22.9800 15.2893 -0.4676
23.0000 15.3027 -0.4759
23.0200 15.3160 -0.4625
23.0400 15.3293 -0.4721
23.0600 15.3427 -0.4715
23.0800 15.3560 -0.4598
23.1000 15.3694 -0.4769
23.1200 15.3827 -0.4741
23.1400 15.3960 -0.4589
23.1600 15.4094 -0.4748
23.1800 15.4228 -0.4722
23.2000 15.4361 -0.4622
23.2200 15.4494 -0.4833
23.2400 15.4627 -0.4695
23.2600 15.4760 -0.4612
23.2800 15.4893 -0.4824
23.3000 15.5027 -0.4693
23.3200 15.5160 -0.4685
23.3400 15.5293 -0.4817
23.3600 15.5426 -0.4653
23.3800 15.5560 -0.4738
23.4000 15.5693 -0.4764
23.4200 15.5827 -0.4670
23.4400 15.5961 -0.4804
23.4600 15.6094 -0.4735
23.4800 15.6228 -0.4629
23.5000 15.6361 -0.4803
23.5200 15.6494 -0.4707
23.5400 15.6628 -0.4674
23.5600 15.6761 -0.4778
23.5800 15.6894 -0.4664
23.6000 15.7027 -0.4698
23.6200 15.7160 -0.4753
23.6400 15.7294 -0.4664
23.6600 15.7427 -0.4749
23.6800 15.7560 -0.4707
23.7000 15.7693 -0.4617
23.7200 15.7826 -0.4801
23.7400 15.7960 -0.4709
23.7600 15.8093 -0.4685
23.7800 15.8227 -0.4749
23.8000 15.8360 -0.4717
23.8200 15.8494 -0.4696
23.8400 15.8628 -0.4727
23.8600 15.8761 -0.4729
23.8800 15.8894 -0.4690
23.9000 15.9027 -0.4737
23.9200 15.9160 -0.4738
23.9400 15.9293 -0.4702
23.9600 15.9426 -0.4732
23.9800 15.9560 -0.4758
24.0000 15.9693 -0.4754
24.0200 15.9827 -0.4717
24.0400 15.9960 -0.4774
24.0600 16.0093 -0.4671
24.0800 16.0227 -0.4745
24.1000 16.0360 -0.4804
24.1200 16.0494 -0.4656
24.1400 16.0627 -0.4750
24.1600 16.0760 -0.4791
24.1800 16.0894 -0.4661
24.2000 16.1027 -0.4797
24.2200 16.1160 -0.4789
24.2400 16.1293 -0.4692
24.2600 16.1427 -0.4791
24.2800 16.1561 -0.4766
24.3000 16.1694 -0.4674
24.3200 16.1827 -0.4865
24.3400 16.1960 -0.4759
24.3600 16.2094 -0.4651
24.3800 16.2227 -0.4887
24.4000 16.2360 -0.4744
24.4200 16.2493 -0.4739
24.4400 16.2627 -0.4894
24.4600 16.2760 -0.4697
24.4800 16.2893 -0.4738
24.5000 16.3026 -0.4857
24.5200 16.3160 -0.4752
24.5400 16.3294 -0.4787
24.5600 16.3427 -0.4873
24.5800 16.3561 -0.4731
24.6000 16.3694 -0.4757
24.6200 16.3827 -0.4885
24.6400 16.3961 -0.4801
24.6600 16.4094 -0.4762
24.6800 16.4227 -0.4848
24.7000 16.4361 -0.4829
24.7200 16.4494 -0.4766
24.7400 16.4627 -0.4846
24.7600 16.4760 -0.4821
24.7800 16.4893 -0.4772
24.8000 16.5026 -0.4851
24.8200 16.5160 -0.4845
24.8400 16.5293 -0.4802
24.8600 16.5427 -0.4913
24.8800 16.5560 -0.4791
24.9000 16.5694 -0.4792
24.9200 16.5828 -0.4926
24.9400 16.5961 -0.4844
24.9600 16.6094 -0.4785
24.9800 16.6228 -0.4881
25.0000 16.6361 -0.4844
25.0200 16.6494 -0.4840
25.0400 16.6627 -0.4865
25.0600 16.6760 -0.4862
25.0800 16.6894 -0.4810
25.1000 16.7027 -0.4911
25.1200 16.7160 -0.4852
25.1400 16.7293 -0.4777
25.1600 16.7427 -0.4943
25.1800 16.7560 -0.4851
25.2000 16.7693 -0.4801
25.2200 16.7826 -0.4946
25.2400 16.7960 -0.4789
25.2600 16.8094 -0.4809
25.2800 16.8227 -0.4907
25.3000 16.8361 -0.4805
25.3200 16.8494 -0.4774
25.3400 16.8628 -0.4932
25.3600 16.8761 -0.4844
25.3800 16.8894 -0.4837
25.4000 16.9027 -0.4917
25.4200 16.9160 -0.4785
25.4400 16.9294 -0.4875
25.4600 16.9427 -0.4900
25.4800 16.9560 -0.4840
25.5000 16.9693 -0.4874
25.5200 16.9826 -0.4899
25.5400 16.9959 -0.4891
25.5600 17.0093 -0.4929
25.5800 17.0226 -0.4903
25.6000 17.0360 -0.4886
25.6200 17.0494 -0.4912
25.6400 17.0628 -0.4931
25.6600 17.0761 -0.4892
25.6800 17.0894 -0.4929
25.7000 17.1027 -0.4932
25.7200 17.1161 -0.4948
25.7400 17.1294 -0.4920
25.7600 17.1427 -0.4896
25.7800 17.1560 -0.4945
25.8000 17.1694 -0.4926
25.8200 17.1827 -0.4931
25.8400 17.1960 -0.4946
25.8600 17.2093 -0.4940
25.8800 17.2227 -0.4925
25.9000 17.2360 -0.4920
25.9200 17.2493 -0.4975
25.9400 17.2627 -0.4964
25.9600 17.2760 -0.4922
25.9800 17.2894 -0.4972
26.0000 17.3028 -0.4955
26.0200 17.3161 -0.4986
26.0400 17.3294 -0.4971
26.0600 17.3428 -0.4971
26.0800 17.3561 -0.4987
26.1000 17.3694 -0.4935
26.1200 17.3827 -0.4962
26.1400 17.3960 -0.4970
26.1600 17.4093 -0.4976
26.1800 17.4227 -0.4970
26.2000 17.4360 -0.4940
26.2200 17.4493 -0.4943
26.2400 17.4627 -0.4936
26.2600 17.4760 -0.4997
26.2800 17.4894 -0.4960
26.3000 17.5027 -0.4914
26.3200 17.5160 -0.4929
26.3400 17.5294 -0.4973
26.3600 17.5427 -0.4885
26.3800 17.5560 -0.4956
26.4000 17.5693 -0.4964
26.4200 17.5827 -0.4897
26.4400 17.5961 -0.4963
26.4600 17.6094 -0.4963
26.4800 17.6227 -0.4905
26.5000 17.6361 -0.5013
26.5200 17.6494 -0.5001
26.5400 17.6627 -0.4925
26.5600 17.6760 -0.5009
26.5800 17.6893 -0.4976
26.6000 17.7026 -0.4948
26.6200 17.7159 -0.5041
26.6400 17.7293 -0.4964
26.6600 17.7426 -0.4966
26.6800 17.7560 -0.5068
26.7000 17.7694 -0.4963
26.7200 17.7828 -0.4995
26.7400 17.7961 -0.5057
26.7600 17.8094 -0.4969
26.7800 17.8228 -0.4996
26.8000 17.8361 -0.5036
26.8200 17.8494 -0.4979
26.8400 17.8627 -0.5039
26.8600 17.8760 -0.4985
26.8800 17.8893 -0.5019
26.9000 17.9027 -0.5035
26.9200 17.9160 -0.4962
26.9400 17.9293 -0.5043
26.9600 17.9426 -0.5029
26.9800 17.9560 -0.4999
27.0000 17.9693 -0.5015
27.0200 17.9826 -0.5028
27.0400 17.9960 -0.5038
27.0600 18.0094 -0.4999
27.0800 18.0228 -0.5080
27.1000 18.0361 -0.5040
27.1200 18.0494 -0.5042
27.1400 18.0627 -0.5042
27.1600 18.0761 -0.5045
27.1800 18.0894 -0.5007
27.2000 18.1027 -0.5059
27.2200 18.1160 -0.5048
27.2400 18.1294 -0.5015
27.2600 18.1427 -0.5112
27.2800 18.1560 -0.5071
27.3000 18.1693 -0.5001
27.3200 18.1826 -0.5098
27.3400 18.1960 -0.5041
27.3600 18.2094 -0.5080
27.3800 18.2227 -0.5048
27.4000 18.2360 -0.5067
27.4200 18.2494 -0.5131
27.4400 18.2627 -0.5112
27.4600 18.2761 -0.5066
27.4800 18.2894 -0.5051
27.5000 18.3027 -0.5112
27.5200 18.3161 -0.5079
27.5400 18.3294 -0.5084
27.5600 18.3427 -0.5107
27.5800 18.3561 -0.5079
27.6000 18.3694 -0.5087
27.6200 18.3827 -0.5087
27.6400 18.3960 -0.5093
27.6600 18.4093 -0.5107
27.6800 18.4226 -0.5074
27.7000 18.4360 -0.5050
27.7200 18.4494 -0.5129
27.7400 18.4627 -0.5090
27.7600 18.4760 -0.5023
27.7800 18.4894 -0.5137
27.8000 18.5028 -0.5126
27.8200 18.5161 -0.5095
27.8400 18.5294 -0.5113
27.8600 18.5427 -0.5075
27.8800 18.5561 -0.5092
27.9000 18.5694 -0.5139
27.9200 18.5827 -0.5046
27.9400 18.5960 -0.5031
27.9600 18.6093 -0.5090
27.9800 18.6227 -0.5066
28.0000 18.6360 -0.5040
28.0200 18.6493 -0.5086
28.0400 18.6627 -0.5029
28.0600 18.6760 -0.5011
28.0800 18.6893 -0.5035
28.1000 18.7027 -0.5063
28.1200 18.7160 -0.4980
28.1400 18.7294 -0.5017
28.1600 18.7427 -0.5043
28.1800 18.7561 -0.4933
28.2000 18.7694 -0.5025
28.2200 18.7827 -0.5053
28.2400 18.7961 -0.4946
28.2600 18.8094 -0.5021
28.2800 18.8227 -0.5015
28.3000 18.8360 -0.4913
28.3200 18.8494 -0.5024
28.3400 18.8627 -0.4990
28.3600 18.8760 -0.4891
28.3800 18.8893 -0.5057
28.4000 18.9026 -0.4926
28.4200 18.9160 -0.4879
28.4400 18.9293 -0.5090
28.4600 18.9427 -0.4908
28.4800 18.9560 -0.4885
28.5000 18.9694 -0.5117
28.5200 18.9827 -0.4917
28.5400 18.9960 -0.4910
28.5600 19.0094 -0.5119
28.5800 19.0227 -0.4913
28.6000 19.0361 -0.4976
28.6200 19.0494 -0.5104
28.6400 19.0627 -0.4869
28.6600 19.0760 -0.5021
28.6800 19.0894 -0.5114
28.7000 19.1027 -0.4936
28.7200 19.1160 -0.5092
28.7400 19.1293 -0.5108
28.7600 19.1426 -0.4949
28.7800 19.1559 -0.5066
28.8000 19.1693 -0.5109
28.8200 19.1826 -0.4969
28.8400 19.1960 -0.5067
28.8600 19.2094 -0.5148
28.8800 19.2228 -0.5022
28.9000 19.2361 -0.5041
28.9200 19.2495 -0.5145
28.9400 19.2628 -0.5013
28.9600 19.2761 -0.5039
28.9800 19.2894 -0.5150
29.0000 19.3027 -0.5031
29.0200 19.3160 -0.5066
29.0400 19.3293 -0.5181
29.0600 19.3427 -0.5027
29.0800 19.3560 -0.5113
29.1000 19.3693 -0.5209
29.1200 19.3827 -0.5011
29.1400 19.3960 -0.5116
29.1600 19.4094 -0.5189
29.1800 19.4227 -0.5054
29.2000 19.4360 -0.5122
29.2200 19.4494 -0.5195
29.2400 19.4627 -0.5050
29.2600 19.4761 -0.5093
29.2800 19.4894 -0.5171
29.3000 19.5027 -0.5106
29.3200 19.5161 -0.5089
29.3400 19.5294 -0.5194
29.3600 19.5427 -0.5068
29.3800 19.5560 -0.5076
29.4000 19.5693 -0.5171
29.4200 19.5827 -0.5125
29.4400 19.5960 -0.5099
29.4600 19.6093 -0.5212
29.4800 19.6227 -0.5105
29.5000 19.6360 -0.5096
29.5200 19.6493 -0.5311
29.5400 19.6627 -0.5043
29.5600 19.6760 -0.5134
29.5800 19.6894 -0.5321
29.6000 19.7027 -0.5065
29.6200 19.7160 -0.5129
29.6400 19.7293 -0.5296
29.6600 19.7427 -0.5109
29.6800 19.7560 -0.5116
29.7000 19.7694 -0.5275
29.7200 19.7827 -0.5113
29.7400 19.7960 -0.5151
29.7600 19.8093 -0.5246
29.7800 19.8227 -0.5147
29.8000 19.8360 -0.5180
29.8200 19.8493 -0.5266
29.8400 19.8626 -0.5124
29.8600 19.8760 -0.5174
29.8800 19.8893 -0.5235
29.9000 19.9027 -0.5116
29.9200 19.9160 -0.5152
29.9400 19.9294 -0.5234
29.9600 19.9428 -0.5184
29.9800 19.9561 -0.5203
30.0000 19.9694 -0.5239
30.0200 19.9827 -0.5141
30.0400 19.9961 -0.5244
30.0600 20.0094 -0.5253
30.0800 20.0227 -0.5210
30.1000 20.0360 -0.5219
30.1200 20.0493 -0.5275
30.1400 20.0627 -0.5237
30.1600 20.0760 -0.5288
30.1800 20.0893 -0.5316
30.2000 20.1027 -0.5252
30.2200 20.1160 -0.5308
30.2400 20.1293 -0.5304
30.2600 20.1427 -0.5308
30.2800 20.1560 -0.5305
30.3000 20.1693 -0.5309
30.3200 20.1827 -0.5337
30.3400 20.1961 -0.5253
30.3600 20.2094 -0.5319
30.3800 20.2227 -0.5293
30.4000 20.2361 -0.5274
30.4200 20.2494 -0.5253
30.4400 20.2628 -0.5265
30.4600 20.2760 -0.5285
30.4800 20.2894 -0.5135
30.5000 20.3027 -0.4550
30.5200 20.3160 -0.3608
30.5400 20.3293 -0.2573
30.5600 20.3426 -0.1737
30.5800 20.3560 -0.0969
30.6000 20.3693 -0.0392
30.6200 20.3827 -0.0127
30.6400 20.3960 0.0117
30.6600 20.4094 0.0622
30.6800 20.4228 0.1144
30.7000 20.4361 0.1577
30.7200 20.4494 0.1952
30.7400 20.4627 0.2263
30.7600 20.4760 0.2712
30.7800 20.4894 0.3218
30.8000 20.5027 0.3526
30.8200 20.5160 0.4033
30.8400 20.5293 0.4505
30.8600 20.5427 0.4748
30.8800 20.5560 0.4885
30.9000 20.5693 0.4792
30.9200 20.5826 0.4698
30.9400 20.5960 0.4770
30.9600 20.6093 0.4728
30.9800 20.6226 0.4689
31.0000 20.6360 0.4791
31.0200 20.6493 0.4753
31.0400 20.6627 0.4690
31.0600 20.6761 0.4808
31.0800 20.6894 0.4785
31.1000 20.7027 0.4715
31.1200 20.7161 0.4784
31.1400 20.7294 0.4761
31.1600 20.7427 0.4722
31.1800 20.7560 0.4791
31.2000 20.7693 0.4821
31.2200 20.7826 0.4746
31.2400 20.7960 0.4793
31.2600 20.8093 0.4782
31.2800 20.8226 0.4676
31.3000 20.8360 0.4816
31.3200 20.8494 0.4804
31.3400 20.8627 0.4623
31.3600 20.8760 0.4784
31.3800 20.8894 0.4789
31.4000 20.9027 0.4646
31.4200 20.9161 0.4734
31.4400 20.9294 0.4763
31.4600 20.9427 0.4637
31.4800 20.9560 0.4771
31.5000 20.9694 0.4717
31.5200 20.9827 0.4624
31.5400 20.9961 0.4771
31.5600 21.0094 0.4695
31.5800 21.0227 0.4613
31.6000 21.0361 0.4696
31.6200 21.0494 0.4707
31.6400 21.0627 0.4581
31.6600 21.0760 0.4686
31.6800 21.0893 0.4709
31.7000 21.1027 0.4546
31.7200 21.1160 0.4638
31.7400 21.1293 0.4713
31.7600 21.1427 0.4564
31.7800 21.1561 0.4612
31.8000 21.1694 0.4604
31.8200 21.1827 0.4595
31.8400 21.1960 0.4638
31.8600 21.2094 0.4560
31.8800 21.2227 0.4537
31.9000 21.2360 0.4608
31.9200 21.2494 0.4580
31.9400 21.2627 0.4547
31.9600 21.2760 0.4521
31.9800 21.2893 0.4526
32.0000 21.3026 0.4604
32.0200 21.3160 0.4553
32.0400 21.3293 0.4457
32.0600 21.3427 0.4593
32.0800 21.3560 0.4488
32.1000 21.3694 0.4485
32.1200 21.3827 0.4529
32.1400 21.3961 0.4459
32.1600 21.4094 0.4533
32.1800 21.4227 0.4515
32.2000 21.4361 0.4384
32.2200 21.4494 0.4563
32.2400 21.4627 0.4499
32.2600 21.4760 0.4362
32.2800 21.4893 0.4470
32.3000 21.5027 0.4534
32.3200 21.5160 0.4362
32.3400 21.5293 0.4447
32.3600 21.5426 0.4451
32.3800 21.5560 0.4398
32.4000 21.5693 0.4491
32.4200 21.5827 0.4388
32.4400 21.5960 0.4321
32.4600 21.6093 0.4478
32.4800 21.6227 0.4350
32.5000 21.6361 0.4323
32.5200 21.6494 0.4471
32.5400 21.6627 0.4380
32.5600 21.6761 0.4297
32.5800 21.6894 0.4426
32.6000 21.7028 0.4401
32.6200 21.7161 0.4260
32.6400 21.7294 0.4464
32.6600 21.7427 0.4308
32.6800 21.7560 0.4257
32.7000 21.7693 0.4448
32.7200 21.7826 0.4320
32.7400 21.7960 0.4203
32.7600 21.8093 0.4452
32.7800 21.8227 0.4278
32.8000 21.8360 0.4170
32.8200 21.8493 0.4453
32.8400 21.8627 0.4265
32.8600 21.8761 0.4198
32.8800 21.8894 0.4413
32.9000 21.9027 0.4148
32.9200 21.9160 0.4262
32.9400 21.9294 0.4403
32.9600 21.9427 0.4147
32.9800 21.9560 0.4254
33.0000 21.9694 0.4338
33.0200 21.9827 0.4174
33.0400 21.9961 0.4285
33.0600 22.0094 0.4232
33.0800 22.0227 0.4159
33.1000 22.0360 0.4256
33.1200 22.0493 0.4229
33.1400 22.0627 0.4181
33.1600 22.0760 0.4248
33.1800 22.0893 0.4174
33.2000 22.1027 0.4198
33.2200 22.1161 0.4221
33.2400 22.1294 0.4126
33.2600 22.1427 0.4229
33.2800 22.1560 0.4188
33.3000 22.1694 0.4115
33.3200 22.1827 0.4211
33.3400 22.1960 0.4152
33.3600 22.2093 0.4088
33.3800 22.2227 0.4258
33.4000 22.2360 0.4110
33.4200 22.2493 0.4019
33.4400 22.2626 0.4265
33.4600 22.2760 0.4059
33.4800 22.2893 0.4055
33.5000 22.3027 0.4245
33.5200 22.3160 0.4036
33.5400 22.3293 0.4100
33.5600 22.3427 0.4152
33.5800 22.3560 0.4032
33.6000 22.3694 0.4101
33.6200 22.3827 0.4144
33.6400 22.3960 0.3997
33.6600 22.4094 0.4075
33.6800 22.4227 0.4065
33.7000 22.4361 0.4049
33.7200 22.4494 0.4134
33.7400 22.4627 0.4016
33.7600 22.4761 0.3982
33.7800 22.4894 0.4089
33.8000 22.5027 0.3992
33.8200 22.5159 0.4046
33.8400 22.5293 0.4122
33.8600 22.5426 0.3949
33.8800 22.5559 0.4015
33.9000 22.5693 0.4091
33.9200 22.5827 0.3957
33.9400 22.5961 0.4031
33.9600 22.6095 0.4077
33.9800 22.6228 0.3911
34.0000 22.6361 0.4123
34.0200 22.6495 0.4041
34.0400 22.6628 0.3950
34.0600 22.6761 0.4042
34.0800 22.6894 0.4049
34.1000 22.7027 0.3994
34.1200 22.7160 0.4002
34.1400 22.7293 0.3957
34.1600 22.7426 0.4066
34.1800 22.7559 0.3951
34.2000 22.7693 0.3893
34.2200 22.7826 0.4041
34.2400 22.7960 0.3950
34.2600 22.8093 0.3919
34.2800 22.8227 0.4002
34.3000 22.8361 0.3869
34.3200 22.8494 0.3963
34.3400 22.8628 0.3958
34.3600 22.8761 0.3878
34.3800 22.8894 0.3938
34.4000 22.9028 0.3924
34.4200 22.9161 0.3855
34.4400 22.9293 0.3948
34.4600 22.9427 0.3878
34.4800 22.9560 0.3826
34.5000 22.9694 0.3928
34.5200 22.9827 0.3870
34.5400 22.9960 0.3820
34.5600 23.0093 0.3933
34.5800 23.0227 0.3838
34.6000 23.0360 0.3705
34.6200 23.0493 0.3873
34.6400 23.0627 0.3888
34.6600 23.0760 0.3775
34.6800 23.0894 0.3790
34.7000 23.1027 0.3744
34.7200 23.1160 0.3813
34.7400 23.1294 0.3798
34.7600 23.1427 0.3696
34.7800 23.1561 0.3731
34.8000 23.1694 0.3797
34.8200 23.1827 0.3741
34.8400 23.1961 0.3725
34.8600 23.2094 0.3795
34.8800 23.2227 0.3764
34.9000 23.2360 0.3723
34.9200 23.2493 0.3739
34.9400 23.2627 0.3768
34.9600 23.2760 0.3711
34.9800 23.2893 0.3706
35.0000 23.3027 0.3775
35.0200 23.3161 0.3703
35.0400 23.3294 0.3731
35.0600 23.3427 0.3713
35.0800 23.3561 0.3646
35.1000 23.3694 0.3754
35.1200 23.3827 0.3639
35.1400 23.3960 0.3669
35.1600 23.4093 0.3715
35.1800 23.4227 0.3648
35.2000 23.4360 0.3648
35.2200 23.4494 0.3613
35.2400 23.4627 0.3680
35.2600 23.4760 0.3627
35.2800 23.4893 0.3648
35.3000 23.5027 0.3683
35.3200 23.5160 0.3630
35.3400 23.5293 0.3602
35.3600 23.5427 0.3636
35.3800 23.5561 0.3617
35.4000 23.5694 0.3602
35.4200 23.5827 0.3651
35.4400 23.5961 0.3596
35.4600 23.6094 0.3592
35.4800 23.6228 0.3645
35.5000 23.6361 0.3579
35.5200 23.6494 0.3570
35.5400 23.6627 0.3639
35.5600 23.6760 0.3591
35.5800 23.6894 0.3557
35.6000 23.7027 0.3628
35.6200 23.7160 0.3506
35.6400 23.7293 0.3575
35.6600 23.7427 0.3596
35.6800 23.7560 0.3482
35.7000 23.7693 0.3576
35.7200 23.7827 0.3594
35.7400 23.7961 0.3458
35.7600 23.8094 0.3527
35.7800 23.8227 0.3574
35.8000 23.8361 0.3435
35.8200 23.8494 0.3534
35.8400 23.8627 0.3521
35.8600 23.8761 0.3470
35.8800 23.8894 0.3509
35.9000 23.9027 0.3447
35.9200 23.9160 0.3511
35.9400 23.9294 0.3469
35.9600 23.9427 0.3472
35.9800 23.9559 0.3489
36.0000 23.9693 0.3471
36.0200 23.9826 0.3437
36.0400 23.9960 0.3399
36.0600 24.0093 0.3446
36.0800 24.0227 0.3456
36.1000 24.0361 0.3410
36.1200 24.0495 0.3370
36.1400 24.0628 0.3429
36.1600 24.0761 0.3413
36.1800 24.0894 0.3372
36.2000 24.1028 0.3447
36.2200 24.1161 0.3364
36.2400 24.1293 0.3334
36.2600 24.1426 0.3416
36.2800 24.1560 0.3393
36.3000 24.1693 0.3359
36.3200 24.1826 0.3371
36.3400 24.1960 0.3369
36.3600 24.2093 0.3308
36.3800 24.2227 0.3368
36.4000 24.2360 0.3365
36.4200 24.2494 0.3297
36.4400 24.2627 0.3365
36.4600 24.2761 0.3317
36.4800 24.2894 0.3255
36.5000 24.3027 0.3354
36.5200 24.3160 0.3313
36.5400 24.3294 0.3273
36.5600 24.3427 0.3276
36.5800 24.3561 0.3326
36.6000 24.3694 0.3230
36.6200 24.3827 0.3331
36.6400 24.3960 0.3307
36.6600 24.4093 0.3238
36.6800 24.4227 0.3310
36.7000 24.4360 0.3240
36.7200 24.4493 0.3251
36.7400 24.4627 0.3298
36.7600 24.4760 0.3222
36.7800 24.4894 0.3230
36.8000 24.5027 0.3323
36.8200 24.5160 0.3247
36.8400 24.5294 0.3213
36.8600 24.5427 0.3294
36.8800 24.5561 0.3234
36.9000 24.5694 0.3250
36.9200 24.5827 0.3284
36.9400 24.5961 0.3220
36.9600 24.6094 0.3299
36.9800 24.6227 0.3263
37.0000 24.6360 0.3196
37.0200 24.6494 0.3307
37.0400 24.6627 0.3218
37.0600 24.6760 0.3230
37.0800 24.6893 0.3296
37.1000 24.7027 0.3176
37.1200 24.7160 0.3204
37.1400 24.7293 0.3292
37.1600 24.7427 0.3145
37.1800 24.7560 0.3234
37.2000 24.7694 0.3269
37.2200 24.7828 0.3086
37.2400 24.7961 0.3219
37.2600 24.8094 0.3237
37.2800 24.8227 0.3098
37.3000 24.8361 0.3261
37.3200 24.8494 0.3190
37.3400 24.8627 0.3077
37.3600 24.8760 0.3257
37.3800 24.8894 0.3130
37.4000 24.9027 0.3073
37.4200 24.9160 0.3234
37.4400 24.9293 0.3099
37.4600 24.9427 0.3024
37.4800 24.9560 0.3207
37.5000 24.9693 0.3084
37.5200 24.9826 0.3052
37.5400 24.9960 0.3216
37.5600 25.0094 0.3069
37.5800 25.0227 0.3059
37.6000 25.0360 0.3185
37.6200 25.0494 0.3014
37.6400 25.0627 0.3046
37.6600 25.0761 0.3130
37.6800 25.0894 0.3013
37.7000 25.1027 0.3014
37.7200 25.1160 0.3080
37.7400 25.1294 0.3019
37.7600 25.1427 0.3022
37.7800 25.1560 0.3033
37.8000 25.1693 0.2993
37.8200 25.1826 0.3015
37.8400 25.1960 0.3010
37.8600 25.2093 0.2968
37.8800 25.2227 0.3000
37.9000 25.2361 0.3034
37.9200 25.2494 0.2948
37.9400 25.2628 0.2912
37.9600 25.2761 0.3014
37.9800 25.2894 0.2954
38.0000 25.3028 0.2926
38.0200 25.3161 0.2962
38.0400 25.3294 0.2968
38.0600 25.3427 0.2940
38.0800 25.3560 0.2972
38.1000 25.3694 0.2899
38.1200 25.3827 0.2919
38.1400 25.3960 0.2982
38.1600 25.4093 0.2866
38.1800 25.4226 0.2931
38.2000 25.4360 0.2913
38.2200 25.4493 0.2870
38.2400 25.4626 0.2885
38.2600 25.4760 0.2918
38.2800 25.4894 0.2861
38.3000 25.5027 0.2866
38.3200 25.5161 0.2863
38.3400 25.5294 0.2852
38.3600 25.5428 0.2883
38.3800 25.5561 0.2859
38.4000 25.5694 0.2826
38.4200 25.5827 0.2818
38.4400 25.5960 0.2857
38.4600 25.6093 0.2865
38.4800 25.6227 0.2749
38.5000 25.6360 0.2785
38.5200 25.6493 0.2847
38.5400 25.6627 0.2772
38.5600 25.6761 0.2779
38.5800 25.6894 0.2768
38.6000 25.7027 0.2749
38.6200 25.7160 0.2771
38.6400 25.7294 0.2767
38.6600 25.7427 0.2694
38.6800 25.7560 0.2748
38.7000 25.7693 0.2788
38.7200 25.7827 0.2717
38.7400 25.7961 0.2722
38.7600 25.8094 0.2766
38.7800 25.8227 0.2731
38.8000 25.8360 0.2693
38.8200 25.8494 0.2751
38.8400 25.8627 0.2726
38.8600 25.8760 0.2724
38.8800 25.8893 0.2787
38.9000 25.9027 0.2673
38.9200 25.9160 0.2697
38.9400 25.9293 0.2850
38.9600 25.9426 0.2679
38.9800 25.9560 0.2637
39.0000 25.9694 0.2858
39.0200 25.9827 0.2688
39.0400 25.9960 0.2662
39.0600 26.0094 0.2798
39.0800 26.0227 0.2635
39.1000 26.0361 0.2677
39.1200 26.0494 0.2857
39.1400 26.0627 0.2618
39.1600 26.0760 0.2687
39.1800 26.0894 0.2806
39.2000 26.1027 0.2566
39.2200 26.1160 0.2707
39.2400 26.1293 0.2798
39.2600 26.1426 0.2552
39.2800 26.1560 0.2698
39.3000 26.1693 0.2706
39.3200 26.1827 0.2565
39.3400 26.1960 0.2721
39.3600 26.2094 0.2708
39.3800 26.2228 0.2558
39.4000 26.2361 0.2698
39.4200 26.2494 0.2650
39.4400 26.2628 0.2615
39.4600 26.2761 0.2653
39.4800 26.2894 0.2573
39.5000 26.3027 0.2571
39.5200 26.3160 0.2689
39.5400 26.3294 0.2604
39.5600 26.3427 0.2567
39.5800 26.3560 0.2606
39.6000 26.3693 0.2559
39.6200 26.3826 0.2626
39.6400 26.3960 0.2472
39.6600 26.4094 0.2562
39.6800 26.4227 0.2566
39.7000 26.4360 0.2500
39.7200 26.4494 0.2559
39.7400 26.4627 0.2508
39.7600 26.4761 0.2481
39.7800 26.4894 0.2577
39.8000 26.5027 0.2541
39.8200 26.5161 0.2456
39.8400 26.5294 0.2548
39.8600 26.5427 0.2537
39.8800 26.5560 0.2468
39.9000 26.5693 0.2563
39.9200 26.5827 0.2427
39.9400 26.5960 0.2500
39.9600 26.6093 0.2536
39.9800 26.6226 0.2438
40.0000 26.6360 0.2517
40.0200 26.6493 0.2524
40.0400 26.6627 0.2450
40.0600 26.6760 0.2479
40.0800 26.6894 0.2542
40.1000 26.7028 0.2398
40.1200 26.7161 0.2436
40.1400 26.7294 0.2544
40.1600 26.7427 0.2402
40.1800 26.7561 0.2487
40.2000 26.7694 0.2492
40.2200 26.7827 0.2453
40.2400 26.7960 0.2441
40.2600 26.8094 0.2471
40.2800 26.8227 0.2412
40.3000 26.8360 0.2432
40.3200 26.8493 0.2470
40.3400 26.8627 0.2381
40.3600 26.8760 0.2465
40.3800 26.8893 0.2389
40.4000 26.9027 0.2405
40.4200 26.9160 0.2482
40.4400 26.9294 0.2392
40.4600 26.9427 0.2387
40.4800 26.9561 0.2406
40.5000 26.9694 0.2373
40.5200 26.9827 0.2390
40.5400 26.9961 0.2400
40.5600 27.0094 0.2369
40.5800 27.0227 0.2379
40.6000 27.0360 0.2369
40.6200 27.0493 0.2379
40.6400 27.0627 0.2382
40.6600 27.0760 0.2336
40.6800 27.0893 0.2395
40.7000 27.1026 0.2343
40.7200 27.1160 0.2337
40.7400 27.1294 0.2399
40.7600 27.1427 0.2324
40.7800 27.1560 0.2303
40.8000 27.1694 0.2398
40.8200 27.1827 0.2266
40.8400 27.1960 0.2274
40.8600 27.2093 0.2385
40.8800 27.2227 0.2273
40.9000 27.2361 0.2310
40.9200 27.2494 0.2355
40.9400 27.2627 0.2247
40.9600 27.2761 0.2326
40.9800 27.2894 0.2309
41.0000 27.3028 0.2235
41.0200 27.3161 0.2306
41.0400 27.3293 0.2301
41.0600 27.3426 0.2204
41.0800 27.3560 0.2285
41.1000 27.3693 0.2272
41.1200 27.3826 0.2142
41.1400 27.3960 0.2318
41.1600 27.4094 0.2242
41.1800 27.4228 0.2152
41.2000 27.4361 0.2278
41.2200 27.4494 0.2215
41.2400 27.4628 0.2182
41.2600 27.4761 0.2279
41.2800 27.4894 0.2184
41.3000 27.5027 0.2178
41.3200 27.5160 0.2295
41.3400 27.5293 0.2174
41.3600 27.5427 0.2145
41.3800 27.5560 0.2271
41.4000 27.5693 0.2139
41.4200 27.5826 0.2184
41.4400 27.5960 0.2223
41.4600 27.6093 0.2138
41.4800 27.6226 0.2143
41.5000 27.6360 0.2238
41.5200 27.6494 0.2139
41.5400 27.6628 0.2141
41.5600 27.6761 0.2195
41.5800 27.6894 0.2123
41.6000 27.7027 0.2172
41.6200 27.7161 0.2204
41.6400 27.7294 0.2100
41.6600 27.7427 0.2153
41.6800 27.7560 0.2215
41.7000 27.7693 0.2111
41.7200 27.7827 0.2159
41.7400 27.7960 0.2186
41.7600 27.8093 0.2099
41.7800 27.8226 0.2126
41.8000 27.8360 0.2105
41.8200 27.8494 0.2077
41.8400 27.8627 0.2132
41.8600 27.8760 0.2116
41.8800 27.8894 0.2079
41.9000 27.9028 0.2096
41.9200 27.9161 0.2087
41.9400 27.9294 0.2080
41.9600 27.9427 0.2109
41.9800 27.9561 0.2064
42.0000 27.9694 0.2038
42.0200 27.9827 0.2115
42.0400 27.9960 0.2089
42.0600 28.0094 0.2098
42.0800 28.0227 0.2100
42.1000 28.0360 0.2067
42.1200 28.0493 0.2028
42.1400 28.0626 0.2081
42.1600 28.0760 0.2095
42.1800 28.0893 0.2009
42.2000 28.1027 0.2074
42.2200 28.1160 0.2043
42.2400 28.1294 0.1980
42.2600 28.1428 0.2088
42.2800 28.1561 0.2078
42.3000 28.1694 0.1942
42.3200 28.1827 0.2092
42.3400 28.1961 0.2022
42.3600 28.2094 0.1885
42.3800 28.2227 0.2084
42.4000 28.2360 0.1990
42.4200 28.2493 0.1902
42.4400 28.2627 0.2085
42.4600 28.2760 0.1950
42.4800 28.2893 0.1918
42.5000 28.3027 0.2035
42.5200 28.3160 0.2003
42.5400 28.3293 0.1861
42.5600 28.3426 0.1985
42.5800 28.3560 0.1970
42.6000 28.3693 0.1879
42.6200 28.3827 0.1946
42.6400 28.3961 0.1957
42.6600 28.4094 0.1914
42.6800 28.4227 0.1934
42.7000 28.4361 0.1950
42.7200 28.4495 0.1862
42.7400 28.4628 0.1911
42.7600 28.4760 0.1940
42.7800 28.4894 0.1818
42.8000 28.5027 0.1922
42.8200 28.5160 0.1940
42.8400 28.5293 0.1814
42.8600 28.5426 0.1897
42.8800 28.5560 0.1921
42.9000 28.5693 0.1825
42.9200 28.5827 0.1921
42.9400 28.5960 0.1902
42.9600 28.6094 0.1795
42.9800 28.6227 0.1941
43.0000 28.6361 0.1810
43.0200 28.6494 0.1807
43.0400 28.6627 0.1963
43.0600 28.6761 0.1847
43.0800 28.6894 0.1777
43.1000 28.7027 0.1890
43.1200 28.7160 0.1866
43.1400 28.7294 0.1804
43.1600 28.7427 0.1868
43.1800 28.7560 0.1799
43.2000 28.7693 0.1806
43.2200 28.7826 0.1879
43.2400 28.7959 0.1814
43.2600 28.8093 0.1845
43.2800 28.8226 0.1800
43.3000 28.8360 0.1840
43.3200 28.8494 0.1834
43.3400 28.8628 0.1771
43.3600 28.8761 0.1853
43.3800 28.8895 0.1789
43.4000 28.9028 0.1735
43.4200 28.9161 0.1835
43.4400 28.9295 0.1778
43.4600 28.9427 0.1722
43.4800 28.9560 0.1844
43.5000 28.9693 0.1752
43.5200 28.9826 0.1714
43.5400 28.9960 0.1809
43.5600 29.0093 0.1702
43.5800 29.0226 0.1736
43.6000 29.0360 0.1828
43.6200 29.0494 0.1635
43.6400 29.0627 0.1714
43.6600 29.0761 0.1784
43.6800 29.0894 0.1634
43.7000 29.1028 0.1727
43.7200 29.1161 0.1738
43.7400 29.1294 0.1639
43.7600 29.1427 0.1760
43.7800 29.1561 0.1719
43.8000 29.1694 0.1634
43.8200 29.1827 0.1666
43.8400 29.1960 0.1722
43.8600 29.2093 0.1644
43.8800 29.2227 0.1679
43.9000 29.2360 0.1648
43.9200 29.2493 0.1655
43.9400 29.2626 0.1686
43.9600 29.2760 0.1679
43.9800 29.2893 0.1622
44.0000 29.3027 0.1634
44.0200 29.3160 0.1713
44.0400 29.3294 0.1665
44.0600 29.3427 0.1635
44.0800 29.3561 0.1656
44.1000 29.3694 0.1626
44.1200 29.3827 0.1662
44.1400 29.3961 0.1706
44.1600 29.4094 0.1582
44.1800 29.4227 0.1645
44.2000 29.4360 0.1716
44.2200 29.4493 0.1569
44.2400 29.4627 0.1624
44.2600 29.4760 0.1707
44.2800 29.4893 0.1528
44.3000 29.5026 0.1634
44.3200 29.5160 0.1726
44.3400 29.5293 0.1495
44.3600 29.5427 0.1562
44.3800 29.5560 0.1717
44.4000 29.5693 0.1511
44.4200 29.5827 0.1630
44.4400 29.5961 0.1623
44.4600 29.6094 0.1469
44.4800 29.6227 0.1634
44.5000 29.6361 0.1626
44.5200 29.6494 0.1474
44.5400 29.6627 0.1639
44.5600 29.6760 0.1571
44.5800 29.6893 0.1480
44.6000 29.7027 0.1643
44.6200 29.7160 0.1545
44.6400 29.7293 0.1481
44.6600 29.7426 0.1674
44.6800 29.7560 0.1536
44.7000 29.7693 0.1478
44.7200 29.7827 0.1591
44.7400 29.7960 0.1535
44.7600 29.8093 0.1510
44.7800 29.8227 0.1549
44.8000 29.8361 0.1496
44.8200 29.8494 0.1534
44.8400 29.8627 0.1539
44.8600 29.8761 0.1491
44.8800 29.8894 0.1507
44.9000 29.9028 0.1505
44.9200 29.9161 0.1466
44.9400 29.9294 0.1538
44.9600 29.9427 0.1485
44.9800 29.9560 0.1501
45.0000 29.9693 0.1492
45.0200 29.9826 0.1463
45.0400 29.9960 0.1530
45.0600 30.0093 0.1441
45.0800 30.0227 0.1466
45.1000 30.0360 0.1495
45.1200 30.0494 0.1447
45.1400 30.0628 0.1446
45.1600 30.0761 0.1475
45.1800 30.0894 0.1402
45.2000 30.1027 0.1432
45.2200 30.1160 0.1435
45.2400 30.1294 0.1415
45.2600 30.1427 0.1510
45.2800 30.1560 0.1417
45.3000 30.1693 0.1331
45.3200 30.1827 0.1466
45.3400 30.1960 0.1383
45.3600 30.2093 0.1332
45.3800 30.2226 0.1454
45.4000 30.2359 0.1409
45.4200 30.2493 0.1383
45.4400 30.2626 0.1404
45.4600 30.2760 0.1351
45.4800 30.2893 0.1375
45.5000 30.3027 0.1381
45.5200 30.3161 0.1290
45.5400 30.3294 0.1366
45.5600 30.3427 0.1418
45.5800 30.3561 0.1279
45.6000 30.3694 0.1373
45.6200 30.3827 0.1381
45.6400 30.3960 0.1317
45.6600 30.4093 0.1343
45.6800 30.4226 0.1377
45.7000 30.4360 0.1278
45.7200 30.4493 0.1347
45.7400 30.4626 0.1395
45.7600 30.4760 0.1270
45.7800 30.4894 0.1342
45.8000 30.5027 0.1373
45.8200 30.5160 0.1266
45.8400 30.5294 0.1360
45.8600 30.5427 0.1371
45.8800 30.5561 0.1239
45.9000 30.5694 0.1384
45.9200 30.5827 0.1334
45.9400 30.5960 0.1280
45.9600 30.6094 0.1382
45.9800 30.6227 0.1307
46.0000 30.6361 0.1266
46.0200 30.6494 0.1363
46.0400 30.6627 0.1293
46.0600 30.6761 0.1274
46.0800 30.6894 0.1368
46.1000 30.7027 0.1296
46.1200 30.7160 0.1243
46.1400 30.7293 0.1310
46.1600 30.7427 0.1239
46.1800 30.7560 0.1299
46.2000 30.7693 0.1267
46.2200 30.7827 0.1229
46.2400 30.7961 0.1261
46.2600 30.8094 0.1247
46.2800 30.8227 0.1229
46.3000 30.8361 0.1242
46.3200 30.8494 0.1292
46.3400 30.8628 0.1224
46.3600 30.8761 0.1213
46.3800 30.8894 0.1264
46.4000 30.9027 0.1231
46.4200 30.9161 0.1225
46.4400 30.9294 0.1229
46.4600 30.9427 0.1211
46.4800 30.9560 0.1168
46.5000 30.9693 0.1210
46.5200 30.9826 0.1203
46.5400 30.9960 0.1155
46.5600 31.0093 0.1238
46.5800 31.0227 0.1152
46.6000 31.0361 0.1129
46.6200 31.0494 0.1186
46.6400 31.0627 0.1138
46.6600 31.0761 0.1100
46.6800 31.0894 0.1164
46.7000 31.1027 0.1148
46.7200 31.1160 0.1125
46.7400 31.1294 0.1176
46.7600 31.1427 0.1149
46.7800 31.1561 0.1116
46.8000 31.1694 0.1165
46.8200 31.1827 0.1139
46.8400 31.1960 0.1105
46.8600 31.2093 0.1165
46.8800 31.2227 0.1127
46.9000 31.2360 0.1039
46.9200 31.2493 0.1140
46.9400 31.2627 0.1154
46.9600 31.2761 0.1020
46.9800 31.2894 0.1148
47.0000 31.3027 0.1115
47.0200 31.3161 0.1053
47.0400 31.3294 0.1186
47.0600 31.3428 0.1027
47.0800 31.3561 0.1079
47.1000 31.3694 0.1130
47.1200 31.3827 0.1032
47.1400 31.3960 0.1051
47.1600 31.4093 0.1122
47.1800 31.4226 0.1019
47.2000 31.4359 0.1035
47.2200 31.4493 0.1084
47.2400 31.4627 0.1012
47.2600 31.4760 0.1032
47.2800 31.4893 0.1079
47.3000 31.5027 0.1046
47.3200 31.5161 0.1006
47.3400 31.5294 0.0996
47.3600 31.5427 0.1086
47.3800 31.5560 0.1045
47.4000 31.5694 0.0991
47.4200 31.5827 0.1058
47.4400 31.5960 0.0980
47.4600 31.6093 0.0994
47.4800 31.6227 0.1087
47.5000 31.6360 0.1006
47.5200 31.6494 0.0999
47.5400 31.6627 0.1096
47.5600 31.6760 0.0935
47.5800 31.6893 0.0987
47.6000 31.7027 0.1070
47.6200 31.7160 0.0911
47.6400 31.7293 0.0981
47.6600 31.7427 0.1045
47.6800 31.7561 0.0874
47.7000 31.7694 0.0966
47.7200 31.7827 0.1035
47.7400 31.7961 0.0922
47.7600 31.8094 0.0977
47.7800 31.8228 0.0982
47.8000 31.8361 0.0880
47.8200 31.8493 0.0996
47.8400 31.8627 0.0971
47.8600 31.8760 0.0878
47.8800 31.8893 0.0929
47.9000 31.9027 0.0956
47.9200 31.9160 0.0917
47.9400 31.9293 0.0927
47.9600 31.9427 0.0915
47.9800 31.9560 0.0899
48.0000 31.9693 0.0907
48.0200 31.9827 0.0869
48.0400 31.9960 0.0875
48.0600 32.0094 0.0885
48.0800 32.0227 0.0854
48.1000 32.0360 0.0875
48.1200 32.0494 0.0905
48.1400 32.0627 0.0856
48.1600 32.0761 0.0900
48.1800 32.0894 0.0825
48.2000 32.1027 0.0869
48.2200 32.1161 0.0860
48.2400 32.1294 0.0831
48.2600 32.1427 0.0893
48.2800 32.1560 0.0834
48.3000 32.1693 0.0773
48.3200 32.1826 0.0878
48.3400 32.1959 0.0846
48.3600 32.2093 0.0790
48.3800 32.2227 0.0865
48.4000 32.2361 0.0809
48.4200 32.2494 0.0765
48.4400 32.2628 0.0875
48.4600 32.2761 0.0792
48.4800 32.2894 0.0793
48.5000 32.3028 0.0832
48.5200 32.3161 0.0759
48.5400 32.3294 0.0772
48.5600 32.3427 0.0871
48.5800 32.3560 0.0785
48.6000 32.3693 0.0756
48.6200 32.3826 0.0883
48.6400 32.3959 0.0748
48.6600 32.4093 0.0781
48.6800 32.4227 0.0838
48.7000 32.4360 0.0738
48.7200 32.4493 0.0746
48.7400 32.4627 0.0806
48.7600 32.4761 0.0735
48.7800 32.4894 0.0793
48.8000 32.5028 0.0832
48.8200 32.5161 0.0699
48.8400 32.5294 0.0779
48.8600 32.5428 0.0811
48.8800 32.5561 0.0705
48.9000 32.5693 0.0836
48.9200 32.5827 0.0781
48.9400 32.5960 0.0744
48.9600 32.6094 0.0741
48.9800 32.6227 0.0776
49.0000 32.6360 0.0771
49.0200 32.6493 0.0697
49.0400 32.6627 0.0799
49.0600 32.6760 0.0724
49.0800 32.6894 0.0703
49.1000 32.7027 0.0803
49.1200 32.7161 0.0728
49.1400 32.7294 0.0670
49.1600 32.7427 0.0776
49.1800 32.7561 0.0714
49.2000 32.7694 0.0665
49.2200 32.7827 0.0735
49.2400 32.7961 0.0650
49.2600 32.8094 0.0689
49.2800 32.8227 0.0769
49.3000 32.8360 0.0622
49.3200 32.8494 0.0622
49.3400 32.8627 0.0740
49.3600 32.8759 0.0653
49.3800 32.8893 0.0642
49.4000 32.9027 0.0746
49.4200 32.9160 0.0658
49.4400 32.9293 0.0644
49.4600 32.9427 0.0711
49.4800 32.9561 0.0656
49.5000 32.9694 0.0626
49.5200 32.9827 0.0662
49.5400 32.9961 0.0605
49.5600 33.0094 0.0639
49.5800 33.0227 0.0610
49.6000 33.0361 0.0635
49.6200 33.0493 0.0592
49.6400 33.0626 0.0621
49.6600 33.0760 0.0626
49.6800 33.0894 0.0575
49.7000 33.1027 0.0611
49.7200 33.1160 0.0671
49.7400 33.1293 0.0645
49.7600 33.1427 0.0526
49.7800 33.1560 0.0624
49.8000 33.1693 0.0604
49.8200 33.1827 0.0530
49.8400 33.1960 0.0658
49.8600 33.2094 0.0547
49.8800 33.2228 0.0587
49.9000 33.2361 0.0647
49.9200 33.2494 0.0552
49.9400 33.2628 0.0611
49.9600 33.2761 0.0631
49.9800 33.2894 0.0520
50.0000 33.3027 0.0604
50.0200 33.3160 0.0604
50.0400 33.3294 0.0575
50.0600 33.3427 0.0654
50.0800 33.3560 0.0589
50.1000 33.3693 0.0540
50.1200 33.3827 0.0647
50.1400 33.3960 0.0552
50.1600 33.4093 0.0528
50.1800 33.4227 0.0615
50.2000 33.4360 0.0540
50.2200 33.4494 0.0510
50.2400 33.4627 0.0602
50.2600 33.4760 0.0583
50.2800 33.4894 0.0540
50.3000 33.5028 0.0553
50.3200 33.5161 0.0567
50.3400 33.5294 0.0556
50.3600 33.5427 0.0550
50.3800 33.5560 0.0573
50.4000 33.5694 0.0579
50.4200 33.5827 0.0476
50.4400 33.5960 0.0539
50.4600 33.6093 0.0523
50.4800 33.6226 0.0462
50.5000 33.6360 0.0549
50.5200 33.6493 0.0457
50.5400 33.6626 0.0519
50.5600 33.6760 0.0508
50.5800 33.6894 0.0427
50.6000 33.7028 0.0431
50.6200 33.7161 0.0499
50.6400 33.7294 0.0449
50.6600 33.7428 0.0407
50.6800 33.7561 0.0473
50.7000 33.7694 0.0506
50.7200 33.7826 0.0448
50.7400 33.7960 0.0468
50.7600 33.8093 0.0439
50.7800 33.8226 0.0431
50.8000 33.8360 0.0432
50.8200 33.8493 0.0424
50.8400 33.8627 0.0375
50.8600 33.8760 0.0448
50.8800 33.8894 0.0387
50.9000 33.9027 0.0372
50.9200 33.9161 0.0451
50.9400 33.9294 0.0382
50.9600 33.9427 0.0393
50.9800 33.9560 0.0393
51.0000 33.9693 0.0391
51.0200 33.9827 0.0389
51.0400 33.9960 0.0395
51.0600 34.0093 0.0395
51.0800 34.0227 0.0347
51.1000 34.0360 0.0408
51.1200 34.0494 0.0364
51.1400 34.0627 0.0345
51.1600 34.0760 0.0411
51.1800 34.0893 0.0369
51.2000 34.1027 0.0378
51.2200 34.1160 0.0372
51.2400 34.1294 0.0387
51.2600 34.1427 0.0352
51.2800 34.1561 0.0314
51.3000 34.1694 0.0297
51.3200 34.1827 0.0369
51.3400 34.1960 0.0383
51.3600 34.2094 0.0299
51.3800 34.2227 0.0314
51.4000 34.2361 0.0390
51.4200 34.2494 0.0280
51.4400 34.2627 0.0323
51.4600 34.2760 0.0335
51.4800 34.2894 0.0296
51.5000 34.3027 0.0273
51.5200 34.3160 0.0304
51.5400 34.3293 0.0308
51.5600 34.3426 0.0302
51.5800 34.3560 0.0239
51.6000 34.3693 0.0313
51.6200 34.3827 0.0279
51.6400 34.3960 0.0233
51.6600 34.4094 0.0356
51.6800 34.4228 0.0235
51.7000 34.4361 0.0244
51.7200 34.4494 0.0364
51.7400 34.4628 0.0248
51.7600 34.4761 0.0238
51.7800 34.4894 0.0349
51.8000 34.5027 0.0219
51.8200 34.5160 0.0229
51.8400 34.5294 0.0342
51.8600 34.5427 0.0226
51.8800 34.5560 0.0252
51.9000 34.5693 0.0293
51.9200 34.5827 0.0174
51.9400 34.5960 0.0244
51.9600 34.6093 0.0299
51.9800 34.6226 0.0226
52.0000 34.6360 0.0263
52.0200 34.6494 0.0254
52.0400 34.6627 0.0169
52.0600 34.6760 0.0251
52.0800 34.6894 0.0263
52.1000 34.7027 0.0179
52.1200 34.7161 0.0189
52.1400 34.7294 0.0274
52.1600 34.7427 0.0134
52.1800 34.7560 0.0202
52.2000 34.7693 0.0233
52.2200 34.7827 0.0166
52.2400 34.7960 0.0201
52.2600 34.8093 0.0216
52.2800 34.8226 0.0174
52.3000 34.8360 0.0171
52.3200 34.8493 0.0221
52.3400 34.8627 0.0173
52.3600 34.8761 0.0167
52.3800 34.8894 0.0197
52.4000 34.9028 0.0122
52.4200 34.9161 0.0123
52.4400 34.9294 0.0194
52.4600 34.9427 0.0128
52.4800 34.9561 0.0096
52.5000 34.9694 0.0234
52.5200 34.9827 0.0057
52.5400 34.9960 0.0068
52.5600 35.0094 0.0225
52.5800 35.0227 0.0086
52.6000 35.0360 0.0074
52.6200 35.0493 0.0140
52.6400 35.0626 0.0040
52.6600 35.0760 0.0108
52.6800 35.0893 0.0159
52.7000 35.1027 0.0045
52.7200 35.1160 0.0084
52.7400 35.1294 0.0125
52.7600 35.1428 0.0021
52.7800 35.1561 0.0115
52.8000 35.1694 0.0111
52.8200 35.1828 0.0000
52.8400 35.1961 0.0082
52.8600 35.2094 0.0091
52.8800 35.2226 0.0007
52.9000 35.2360 0.0065
52.9200 35.2493 0.0092
52.9400 35.2627 -0.0031
52.9600 35.2760 0.0068
52.9800 35.2893 0.0085
53.0000 35.3027 0.0006
53.0200 35.3161 0.0045
53.0400 35.3294 0.0018
53.0600 35.3427 -0.0024
53.0800 35.3561 0.0069
53.1000 35.3694 0.0024
53.1200 35.3827 -0.0051
53.1400 35.3960 -0.0005
53.1600 35.4094 0.0043
53.1800 35.4227 -0.0002
53.2000 35.4361 0.0012
53.2200 35.4494 -0.0033
53.2400 35.4627 -0.0008
53.2600 35.4760 -0.0075
53.2800 35.4894 0.0000
53.3000 35.5027 -0.0018
53.3200 35.5160 -0.0061
53.3400 35.5293 0.0017
53.3600 35.5426 -0.0020
53.3800 35.5560 -0.0070
53.4000 35.5693 -0.0020
53.4200 35.5826 -0.0002
53.4400 35.5960 -0.0085
53.4600 35.6094 -0.0035
53.4800 35.6227 -0.0008
53.5000 35.6361 -0.0121
53.5200 35.6494 0.0010
53.5400 35.6627 -0.0049
53.5600 35.6761 -0.0127
53.5800 35.6894 0.0013
53.6000 35.7027 -0.0075
53.6200 35.7160 -0.0137
53.6400 35.7294 -0.0016
53.6600 35.7427 -0.0086
53.6800 35.7560 -0.0101
53.7000 35.7693 -0.0022
53.7200 35.7826 -0.0083
53.7400 35.7960 -0.0136
53.7600 35.8093 -0.0034
53.7800 35.8227 -0.0127
53.8000 35.8360 -0.0109
53.8200 35.8494 -0.0059
53.8400 35.8627 -0.0188
53.8600 35.8761 -0.0050
53.8800 35.8894 -0.0078
53.9000 35.9027 -0.0112
53.9200 35.9161 -0.0091
53.9400 35.9294 -0.0121
53.9600 35.9427 -0.0103
53.9800 35.9560 -0.0107
54.0000 35.9693 -0.0091
54.0200 35.9827 -0.0115
54.0400 35.9960 -0.0126
54.0600 36.0093 -0.0078
54.0800 36.0226 -0.0144
54.1000 36.0360 -0.0146
54.1200 36.0494 -0.0131
54.1400 36.0627 -0.0156
54.1600 36.0760 -0.0163
54.1800 36.0894 -0.0150
54.2000 36.1027 -0.0145
54.2200 36.1160 -0.0174
54.2400 36.1294 -0.0158
54.2600 36.1427 -0.0149
54.2800 36.1561 -0.0198
54.3000 36.1694 -0.0136
54.3200 36.1827 -0.0170
54.3400 36.1960 -0.0186
54.3600 36.2094 -0.0159
54.3800 36.2227 -0.0213
54.4000 36.2360 -0.0180
54.4200 36.2493 -0.0148
54.4400 36.2626 -0.0226
54.4600 36.2760 -0.0218
54.4800 36.2893 -0.0165
54.5000 36.3027 -0.0242
54.5200 36.3160 -0.0208
54.5400 36.3294 -0.0210
54.5600 36.3428 -0.0225
54.5800 36.3561 -0.0261
54.6000 36.3694 -0.0245
54.6200 36.3827 -0.0202
54.6400 36.3961 -0.0269
54.6600 36.4094 -0.0299
54.6800 36.4227 -0.0213
54.7000 36.4360 -0.0246
54.7200 36.4493 -0.0251
54.7400 36.4627 -0.0233
54.7600 36.4760 -0.0297
54.7800 36.4893 -0.0250
54.8000 36.5027 -0.0273
54.8200 36.5160 -0.0301
54.8400 36.5293 -0.0280
54.8600 36.5427 -0.0270
54.8800 36.5560 -0.0311
54.9000 36.5694 -0.0263
54.9200 36.5827 -0.0258
54.9400 36.5961 -0.0378
54.9600 36.6094 -0.0264
54.9800 36.6227 -0.0327
55.0000 36.6361 -0.0358
55.0200 36.6494 -0.0278
55.0400 36.6627 -0.0370
55.0600 36.6760 -0.0328
55.0800 36.6893 -0.0326
55.1000 36.7027 -0.0378
55.1200 36.7160 -0.0374
55.1400 36.7293 -0.0339
55.1600 36.7426 -0.0382
55.1800 36.7560 -0.0337
55.2000 36.7693 -0.0361
55.2200 36.7827 -0.0430
55.2400 36.7960 -0.0354
55.2600 36.8094 -0.0379
55.2800 36.8227 -0.0437
55.3000 36.8360 -0.0343
55.3200 36.8493 -0.0417
55.3400 36.8627 -0.0397
55.3600 36.8761 -0.0317
55.3800 36.8894 -0.0453
55.4000 36.9027 -0.0415
55.4200 36.9161 -0.0329
55.4400 36.9294 -0.0479
55.4600 36.9428 -0.0397
55.4800 36.9561 -0.0323
55.5000 36.9693 -0.0490
55.5200 36.9826 -0.0416
55.5400 36.9959 -0.0365
55.5600 37.0093 -0.0521
55.5800 37.0226 -0.0382
55.6000 37.0360 -0.0408
55.6200 37.0494 -0.0512
55.6400 37.0628 -0.0392
55.6600 37.0761 -0.0455
55.6800 37.0894 -0.0468
55.7000 37.1028 -0.0376
55.7200 37.1161 -0.0469
55.7400 37.1294 -0.0508
55.7600 37.1427 -0.0435
55.7800 37.1560 -0.0488
55.8000 37.1693 -0.0507
55.8200 37.1827 -0.0443
55.8400 37.1960 -0.0488
55.8600 37.2093 -0.0508
55.8800 37.2226 -0.0475
55.9000 37.2360 -0.0532
55.9200 37.2493 -0.0469
55.9400 37.2627 -0.0524
55.9600 37.2760 -0.0513
55.9800 37.2894 -0.0518
56.0000 37.3027 -0.0548
56.0200 37.3161 -0.0497
56.0400 37.3294 -0.0544
56.0600 37.3427 -0.0544
56.0800 37.3561 -0.0511
56.1000 37.3694 -0.0579
56.1200 37.3827 -0.0591
56.1400 37.3960 -0.0517
56.1600 37.4094 -0.0547
56.1800 37.4227 -0.0603
56.2000 37.4360 -0.0533
56.2200 37.4493 -0.0608
56.2400 37.4626 -0.0591
56.2600 37.4760 -0.0539
56.2800 37.4894 -0.0637
56.3000 37.5027 -0.0612
56.3200 37.5160 -0.0573
56.3400 37.5294 -0.0663
56.3600 37.5427 -0.0617
56.3800 37.5561 -0.0559
56.4000 37.5694 -0.0659
56.4200 37.5827 -0.0610
56.4400 37.5961 -0.0609
56.4600 37.6094 -0.0631
56.4800 37.6227 -0.0631
56.5000 37.6360 -0.0616
56.5200 37.6494 -0.0609
56.5400 37.6627 -0.0667
56.5600 37.6760 -0.0661
56.5800 37.6893 -0.0617
56.6000 37.7026 -0.0689
56.6200 37.7160 -0.0644
56.6400 37.7293 -0.0668
56.6600 37.7427 -0.0703
56.6800 37.7560 -0.0611
56.7000 37.7694 -0.0676
56.7200 37.7827 -0.0709
56.7400 37.7961 -0.0628
56.7600 37.8094 -0.0718
56.7800 37.8227 -0.0725
56.8000 37.8361 -0.0600
56.8200 37.8494 -0.0695
56.8400 37.8627 -0.0809
56.8600 37.8760 -0.0585
56.8800 37.8893 -0.0722
56.9000 37.9027 -0.0735
56.9200 37.9160 -0.0608
56.9400 37.9293 -0.0757
56.9600 37.9427 -0.0721
56.9800 37.9560 -0.0659
57.0000 37.9693 -0.0779
57.0200 37.9827 -0.0754
57.0400 37.9960 -0.0683
57.0600 38.0094 -0.0780
57.0800 38.0227 -0.0790
57.1000 38.0361 -0.0722
57.1200 38.0494 -0.0806
57.1400 38.0627 -0.0748
57.1600 38.0761 -0.0695
57.1800 38.0895 -0.0893
57.2000 38.1028 -0.0761
57.2200 38.1160 -0.0712
57.2400 38.1293 -0.0887
57.2600 38.1427 -0.0780
57.2800 38.1560 -0.0749
57.3000 38.1693 -0.0885
57.3200 38.1826 -0.0802
57.3400 38.1960 -0.0787
57.3600 38.2093 -0.0884
57.3800 38.2226 -0.0808
57.4000 38.2360 -0.0843
57.4200 38.2493 -0.0868
57.4400 38.2627 -0.0828
57.4600 38.2761 -0.0879
57.4800 38.2894 -0.0848
57.5000 38.3027 -0.0884
57.5200 38.3161 -0.0867
57.5400 38.3294 -0.0845
57.5600 38.3428 -0.0915
57.5800 38.3561 -0.0841
57.6000 38.3694 -0.0891
57.6200 38.3827 -0.0923
57.6400 38.3960 -0.0820
57.6600 38.4093 -0.0962
57.6800 38.4226 -0.0922
57.7000 38.4359 -0.0793
57.7200 38.4493 -0.1010
57.7400 38.4626 -0.0922
57.7600 38.4760 -0.0806
57.7800 38.4893 -0.1023
57.8000 38.5027 -0.0898
57.8200 38.5161 -0.0866
57.8400 38.5294 -0.1046
57.8600 38.5428 -0.0932
57.8800 38.5561 -0.0842
57.9000 38.5694 -0.1044
57.9200 38.5827 -0.0921
57.9400 38.5960 -0.0893
57.9600 38.6093 -0.1024
57.9800 38.6226 -0.0927
58.0000 38.6360 -0.0955
58.0200 38.6493 -0.1015
58.0400 38.6626 -0.0933
58.0600 38.6760 -0.0948
58.0800 38.6894 -0.1013
58.1000 38.7027 -0.0961
58.1200 38.7160 -0.0949
58.1400 38.7294 -0.0973
58.1600 38.7428 -0.1005
58.1800 38.7561 -0.0965
58.2000 38.7694 -0.1023
58.2200 38.7827 -0.1033
58.2400 38.7960 -0.0938
58.2600 38.8094 -0.1074
58.2800 38.8227 -0.1152
58.3000 38.8360 -0.0892
58.3200 38.8494 -0.1091
58.3400 38.8627 -0.1103
58.3600 38.8760 -0.0975
58.3800 38.8893 -0.1025
58.4000 38.9026 -0.1108
58.4200 38.9160 -0.0945
58.4400 38.9294 -0.1080
58.4600 38.9427 -0.1168
58.4800 38.9560 -0.0959
58.5000 38.9694 -0.1079
58.5200 38.9828 -0.1153
58.5400 38.9961 -0.0999
58.5600 39.0094 -0.1112
58.5800 39.0227 -0.1151
58.6000 39.0361 -0.1024
58.6200 39.0494 -0.1124
58.6400 39.0627 -0.1145
58.6600 39.0760 -0.1089
58.6800 39.0893 -0.1135
58.7000 39.1027 -0.1153
58.7200 39.1160 -0.1092
58.7400 39.1293 -0.1174
58.7600 39.1426 -0.1096
58.7800 39.1560 -0.1056
58.8000 39.1693 -0.1192
58.8200 39.1827 -0.1127
58.8400 39.1960 -0.1128
58.8600 39.2093 -0.1222
58.8800 39.2227 -0.1142
58.9000 39.2361 -0.1166
58.9200 39.2494 -0.1249
58.9400 39.2627 -0.1230
58.9600 39.2761 -0.1194
58.9800 39.2894 -0.1205
59.0000 39.3027 -0.1295
59.0200 39.3160 -0.1213
59.0400 39.3293 -0.1172
59.0600 39.3427 -0.1250
59.0800 39.3560 -0.1177
59.1000 39.3694 -0.1223
59.1200 39.3827 -0.1264
59.1400 39.3960 -0.1249
59.1600 39.4093 -0.1210
59.1800 39.4227 -0.1299
59.2000 39.4360 -0.1255
59.2200 39.4493 -0.1225
59.2400 39.4627 -0.1306
59.2600 39.4761 -0.1257
59.2800 39.4894 -0.1293
59.3000 39.5027 -0.1299
59.3200 39.5161 -0.1223
59.3400 39.5294 -0.1352
59.3600 39.5428 -0.1313
59.3800 39.5561 -0.1217
59.4000 39.5693 -0.1353
59.4200 39.5827 -0.1272
59.4400 39.5960 -0.1245
59.4600 39.6093 -0.1357
59.4800 39.6226 -0.1245
59.5000 39.6360 -0.1273
59.5200 39.6493 -0.1394
59.5400 39.6627 -0.1280
59.5600 39.6760 -0.1329
59.5800 39.6893 -0.1394
59.6000 39.7027 -0.1402
59.6200 39.7161 -0.1433
59.6400 39.7294 -0.1273
59.6600 39.7427 -0.1483
59.6800 39.7561 -0.1340
59.7000 39.7694 -0.1305
59.7200 39.7828 -0.1436
59.7400 39.7961 -0.1365
59.7600 39.8093 -0.1368
59.7800 39.8227 -0.1456
59.8000 39.8360 -0.1372
59.8200 39.8494 -0.1418
59.8400 39.8627 -0.1533
59.8600 39.8760 -0.1403
59.8800 39.8893 -0.1483
59.9000 39.9027 -0.1507
59.9200 39.9160 -0.1415
59.9400 39.9293 -0.1516
59.9600 39.9427 -0.1502
59.9800 39.9561 -0.1465
60.0000 39.9694 -0.1527
60.0200 39.9827 -0.1490
60.0400 39.9960 -0.1514
60.0470 40.0006 -0.1701
