Raw Data
Time Displacement Force
(s) (mm) (N)
0.0000 0.0000 -0.0954
0.0200 0.0001 -0.0640
0.0400 0.0022 -0.0182
0.0600 0.0100 -0.0165
0.0800 0.0219 -0.0935
0.1000 0.0343 -0.1022
0.1200 0.0470 -0.0543
0.1400 0.0605 -0.0829
0.1600 0.0746 -0.0959
0.1800 0.0888 -0.0796
0.2000 0.1027 -0.0900
0.2200 0.1163 -0.0974
0.2400 0.1296 -0.0753
0.2600 0.1429 -0.0859
0.2800 0.1562 -0.0893
0.3000 0.1696 -0.0760
0.3200 0.1830 -0.0931
0.3400 0.1964 -0.0866
0.3600 0.2097 -0.0798
0.3800 0.2230 -0.0891
0.4000 0.2364 -0.0863
0.4200 0.2497 -0.0804
0.4400 0.2630 -0.0857
0.4600 0.2763 -0.0923
0.4800 0.2897 -0.0753
0.5000 0.3030 -0.0870
0.5200 0.3163 -0.0955
0.5400 0.3296 -0.0746
0.5600 0.3430 -0.0784
0.5800 0.3564 -0.0982
0.6000 0.3697 -0.0835
0.6200 0.3830 -0.0748
0.6400 0.3964 -0.0954
0.6600 0.4098 -0.0820
0.6800 0.4231 -0.0769
0.7000 0.4364 -0.0961
0.7200 0.4497 -0.0733
0.7400 0.4631 -0.0853
0.7600 0.4764 -0.0905
0.7800 0.4897 -0.0727
0.8000 0.5030 -0.0925
0.8200 0.5164 -0.0896
0.8400 0.5297 -0.0764
0.8600 0.5430 -0.0890
0.8800 0.5563 -0.0887
0.9000 0.5696 -0.0770
0.9200 0.5830 -0.0937
0.9400 0.5963 -0.0917
0.9600 0.6097 -0.0744
0.9800 0.6230 -0.0931
1.0000 0.6363 -0.0914
1.0200 0.6497 -0.0782
1.0400 0.6631 -0.0936
1.0600 0.6764 -0.0919
1.0800 0.6897 -0.0862
1.1000 0.7031 -0.0889
1.1200 0.7164 -0.0950
1.1400 0.7297 -0.0912
1.1600 0.7430 -0.0874
1.1800 0.7563 -0.0910
1.2000 0.7697 -0.0959
1.2200 0.7830 -0.0871
1.2400 0.7964 -0.0930
1.2600 0.8097 -0.0993
1.2800 0.8230 -0.0858
1.3000 0.8363 -0.0898
1.3200 0.8497 -0.1008
1.3400 0.8630 -0.0880
1.3600 0.8764 -0.0960
1.3800 0.8897 -0.0983
1.4000 0.9031 -0.0892
1.4200 0.9164 -0.1044
1.4400 0.9297 -0.0948
1.4600 0.9431 -0.0916
1.4800 0.9564 -0.1025
1.5000 0.9698 -0.0985
1.5200 0.9831 -0.0951
1.5400 0.9964 -0.1027
1.5600 1.0097 -0.1017
1.5800 1.0230 -0.0975
1.6000 1.0363 -0.1048
1.6200 1.0496 -0.1046
1.6400 1.0630 -0.1031
1.6600 1.0763 -0.1023
1.6800 1.0897 -0.1007
1.7000 1.1030 -0.1077
1.7200 1.1164 -0.0986
1.7400 1.1298 -0.1094
1.7600 1.1431 -0.1066
1.7800 1.1565 -0.1017
1.8000 1.1698 -0.1118
1.8200 1.1831 -0.1030
1.8400 1.1964 -0.1053
1.8600 1.2098 -0.1147
1.8800 1.2231 -0.1029
1.9000 1.2364 -0.1069
1.9200 1.2497 -0.1119
1.9400 1.2631 -0.1065
1.9600 1.2764 -0.1111
1.9800 1.2897 -0.1167
2.0000 1.3030 -0.0997
2.0200 1.3163 -0.1144
2.0400 1.3297 -0.1120
2.0600 1.3430 -0.1025
2.0800 1.3564 -0.1197
2.1000 1.3697 -0.1096
2.1200 1.3831 -0.1086
2.1400 1.3964 -0.1250
2.1600 1.4097 -0.1019
2.1800 1.4230 -0.1105
2.2000 1.4364 -0.1290
2.2200 1.4497 -0.1040
2.2400 1.4630 -0.1079
2.2600 1.4763 -0.1289
2.2800 1.4897 -0.1052
2.3000 1.5030 -0.1098
2.3200 1.5163 -0.1206
2.3400 1.5297 -0.1101
2.3600 1.5430 -0.1175
2.3800 1.5564 -0.1160
2.4000 1.5697 -0.1143
2.4200 1.5831 -0.1195
2.4400 1.5964 -0.1146
2.4600 1.6097 -0.1124
2.4800 1.6231 -0.1251
2.5000 1.6364 -0.1157
2.5200 1.6497 -0.1153
2.5400 1.6630 -0.1270
2.5600 1.6764 -0.1146
2.5800 1.6897 -0.1198
2.6000 1.7031 -0.1210
2.6200 1.7164 -0.1139
2.6400 1.7297 -0.1243
2.6600 1.7431 -0.1122
2.6800 1.7564 -0.1214
2.7000 1.7697 -0.1320
2.7200 1.7830 -0.1036
2.7400 1.7963 -0.1251
2.7600 1.8097 -0.1377
2.7800 1.8230 -0.1027
2.8000 1.8363 -0.1322
2.8200 1.8497 -0.1341
2.8400 1.8630 -0.0985
2.8600 1.8764 -0.1299
2.8800 1.8897 -0.1283
2.9000 1.9031 -0.1054
2.9200 1.9164 -0.1398
2.9400 1.9298 -0.1253
2.9600 1.9431 -0.1148
2.9800 1.9564 -0.1402
3.0000 1.9697 -0.1182
3.0200 1.9831 -0.1195
3.0400 1.9964 -0.1414
3.0600 2.0097 -0.1146
3.0800 2.0230 -0.1297
3.1000 2.0363 -0.1372
3.1200 2.0497 -0.1127
3.1400 2.0630 -0.1328
3.1600 2.0763 -0.1332
3.1800 2.0897 -0.1205
3.2000 2.1031 -0.1369
3.2200 2.1164 -0.1306
3.2400 2.1298 -0.1243
3.2600 2.1431 -0.1352
3.2800 2.1564 -0.1270
3.3000 2.1698 -0.1286
3.3200 2.1831 -0.1379
3.3400 2.1964 -0.1236
3.3600 2.2097 -0.1261
3.3800 2.2230 -0.1374
3.4000 2.2364 -0.1233
3.4200 2.2497 -0.1275
3.4400 2.2630 -0.1369
3.4600 2.2763 -0.1247
3.4800 2.2897 -0.1349
3.5000 2.3031 -0.1375
3.5200 2.3164 -0.1223
3.5400 2.3297 -0.1383
3.5600 2.3431 -0.1371
3.5800 2.3564 -0.1257
3.6000 2.3697 -0.1403
3.6200 2.3831 -0.1358
3.6400 2.3964 -0.1214
3.6600 2.4098 -0.1419
3.6800 2.4231 -0.1327
3.7000 2.4364 -0.1289
3.7200 2.4497 -0.1349
3.7400 2.4630 -0.1292
3.7600 2.4764 -0.1355
3.7800 2.4897 -0.1368
3.8000 2.5030 -0.1347
3.8200 2.5163 -0.1375
3.8400 2.5296 -0.1360
3.8600 2.5430 -0.1303
3.8800 2.5563 -0.1309
3.9000 2.5697 -0.1375
3.9200 2.5831 -0.1366
3.9400 2.5965 -0.1366
3.9600 2.6098 -0.1332
3.9800 2.6231 -0.1362
4.0000 2.6364 -0.1344
4.0200 2.6497 -0.1345
4.0400 2.6631 -0.1409
4.0600 2.6764 -0.1357
4.0800 2.6897 -0.1352
4.1000 2.7030 -0.1458
4.1200 2.7164 -0.1349
4.1400 2.7297 -0.1325
4.1600 2.7430 -0.1458
4.1800 2.7563 -0.1374
4.2000 2.7697 -0.1349
4.2200 2.7830 -0.1460
4.2400 2.7963 -0.1385
4.2600 2.8097 -0.1363
4.2800 2.8231 -0.1475
4.3000 2.8364 -0.1377
4.3200 2.8497 -0.1464
4.3400 2.8631 -0.1481
4.3600 2.8764 -0.1388
4.3800 2.8898 -0.1417
4.4000 2.9031 -0.1510
4.4200 2.9164 -0.1390
4.4400 2.9297 -0.1436
4.4600 2.9430 -0.1489
4.4800 2.9564 -0.1375
4.5000 2.9697 -0.1434
4.5200 2.9830 -0.1452
4.5400 2.9963 -0.1392
4.5600 3.0097 -0.1488
4.5800 3.0230 -0.1445
4.6000 3.0363 -0.1407
4.6200 3.0497 -0.1421
4.6400 3.0630 -0.1491
4.6600 3.0764 -0.1413
4.6800 3.0897 -0.1400
4.7000 3.1030 -0.1461
4.7200 3.1164 -0.1448
4.7400 3.1298 -0.1421
4.7600 3.1431 -0.1510
4.7800 3.1564 -0.1503
4.8000 3.1697 -0.1450
4.8200 3.1831 -0.1493
4.8400 3.1964 -0.1481
4.8600 3.2097 -0.1458
4.8800 3.2230 -0.1495
4.9000 3.2363 -0.1502
4.9200 3.2496 -0.1414
4.9400 3.2629 -0.1533
4.9600 3.2763 -0.1516
4.9800 3.2897 -0.1389
5.0000 3.3031 -0.1578
5.0200 3.3165 -0.1548
5.0400 3.3298 -0.1448
5.0600 3.3431 -0.1602
5.0800 3.3565 -0.1480
5.1000 3.3698 -0.1503
5.1200 3.3831 -0.1580
5.1400 3.3964 -0.1471
5.1600 3.4097 -0.1460
5.1800 3.4230 -0.1569
5.2000 3.4364 -0.1520
5.2200 3.4497 -0.1479
5.2400 3.4630 -0.1557
5.2600 3.4763 -0.1494
5.2800 3.4897 -0.1530
5.3000 3.5030 -0.1576
5.3200 3.5163 -0.1482
5.3400 3.5297 -0.1525
5.3600 3.5431 -0.1522
5.3800 3.5564 -0.1489
5.4000 3.5698 -0.1538
5.4200 3.5831 -0.1560
5.4400 3.5964 -0.1527
5.4600 3.6098 -0.1489
5.4800 3.6231 -0.1535
5.5000 3.6364 -0.1567
5.5200 3.6497 -0.1507
5.5400 3.6630 -0.1507
5.5600 3.6764 -0.1551
5.5800 3.6897 -0.1543
5.6000 3.7030 -0.1510
5.6200 3.7163 -0.1625
5.6400 3.7297 -0.1518
5.6600 3.7430 -0.1527
5.6800 3.7564 -0.1593
5.7000 3.7697 -0.1534
5.7200 3.7831 -0.1541
5.7400 3.7964 -0.1639
5.7600 3.8098 -0.1570
5.7800 3.8231 -0.1514
5.8000 3.8364 -0.1622
5.8200 3.8498 -0.1494
5.8400 3.8631 -0.1612
5.8600 3.8764 -0.1629
5.8800 3.8897 -0.1506
5.9000 3.9031 -0.1547
5.9200 3.9164 -0.1666
5.9400 3.9297 -0.1537
5.9600 3.9430 -0.1571
5.9800 3.9563 -0.1639
6.0000 3.9697 -0.1515
6.0200 3.9830 -0.1597
6.0400 3.9963 -0.1655
6.0600 4.0097 -0.1490
6.0800 4.0231 -0.1581
6.1000 4.0364 -0.1671
6.1200 4.0498 -0.1490
6.1400 4.0631 -0.1569
6.1600 4.0764 -0.1626
6.1800 4.0898 -0.1512
6.2000 4.1031 -0.1604
6.2200 4.1164 -0.1625
6.2400 4.1297 -0.1518
6.2600 4.1430 -0.1598
6.2800 4.1564 -0.1672
6.3000 4.1697 -0.1520
6.3200 4.1830 -0.1643
6.3400 4.1963 -0.1667
6.3600 4.2097 -0.1541
6.3800 4.2230 -0.1653
6.4000 4.2363 -0.1617
6.4200 4.2497 -0.1521
6.4400 4.2630 -0.1661
6.4600 4.2764 -0.1618
6.4800 4.2897 -0.1551
6.5000 4.3031 -0.1680
6.5200 4.3164 -0.1641
6.5400 4.3298 -0.1520
6.5600 4.3431 -0.1772
6.5800 4.3564 -0.1662
6.6000 4.3697 -0.1490
6.6200 4.3830 -0.1737
6.6400 4.3964 -0.1602
6.6600 4.4097 -0.1564
6.6800 4.4230 -0.1700
6.7000 4.4363 -0.1623
6.7200 4.4496 -0.1592
6.7400 4.4630 -0.1703
6.7600 4.4763 -0.1619
6.7800 4.4897 -0.1584
6.8000 4.5030 -0.1671
6.8200 4.5164 -0.1618
6.8400 4.5297 -0.1636
6.8600 4.5431 -0.1696
6.8800 4.5564 -0.1604
6.9000 4.5697 -0.1646
6.9200 4.5831 -0.1704
6.9400 4.5964 -0.1637
6.9600 4.6097 -0.1661
6.9800 4.6230 -0.1663
7.0000 4.6364 -0.1609
7.0200 4.6497 -0.1654
7.0400 4.6630 -0.1666
7.0600 4.6763 -0.1617
7.0800 4.6896 -0.1666
7.1000 4.7030 -0.1714
7.1200 4.7163 -0.1573
7.1400 4.7297 -0.1704
7.1600 4.7430 -0.1752
7.1800 4.7564 -0.1592
7.2000 4.7698 -0.1643
7.2200 4.7831 -0.1696
7.2400 4.7965 -0.1595
7.2600 4.8098 -0.1678
7.2800 4.8231 -0.1694
7.3000 4.8364 -0.1607
7.3200 4.8496 -0.1679
7.3400 4.8630 -0.1680
7.3600 4.8763 -0.1617
7.3800 4.8897 -0.1708
7.4000 4.9030 -0.1689
7.4200 4.9163 -0.1601
7.4400 4.9297 -0.1691
7.4600 4.9431 -0.1634
7.4800 4.9564 -0.1653
7.5000 4.9697 -0.1698
7.5200 4.9831 -0.1620
7.5400 4.9964 -0.1657
7.5600 5.0098 -0.1702
7.5800 5.0231 -0.1649
7.6000 5.0364 -0.1660
7.6200 5.0497 -0.1720
7.6400 5.0631 -0.1664
7.6600 5.0764 -0.1678
7.6800 5.0897 -0.1748
7.7000 5.1030 -0.1573
7.7200 5.1164 -0.1661
7.7400 5.1297 -0.1698
7.7600 5.1430 -0.1624
7.7800 5.1563 -0.1665
7.8000 5.1696 -0.1696
7.8200 5.1830 -0.1684
7.8400 5.1964 -0.1662
7.8600 5.2097 -0.1687
7.8800 5.2230 -0.1664
7.9000 5.2364 -0.1724
7.9200 5.2497 -0.1711
7.9400 5.2631 -0.1678
7.9600 5.2764 -0.1662
7.9800 5.2897 -0.1649
8.0000 5.3031 -0.1725
8.0200 5.3164 -0.1728
8.0400 5.3297 -0.1657
8.0600 5.3430 -0.1688
8.0800 5.3564 -0.1631
8.1000 5.3697 -0.1651
8.1200 5.3830 -0.1669
8.1400 5.3963 -0.1690
8.1600 5.4097 -0.1663
8.1800 5.4230 -0.1689
8.2000 5.4363 -0.1733
8.2200 5.4497 -0.1688
8.2400 5.4630 -0.1691
8.2600 5.4764 -0.1738
8.2800 5.4898 -0.1651
8.3000 5.5031 -0.1693
8.3200 5.5164 -0.1751
8.3400 5.5297 -0.1704
8.3600 5.5431 -0.1655
8.3800 5.5564 -0.1705
8.4000 5.5697 -0.1676
8.4200 5.5830 -0.1719
8.4400 5.5964 -0.1727
8.4600 5.6097 -0.1704
8.4800 5.6230 -0.1782
8.5000 5.6363 -0.1739
8.5200 5.6497 -0.1689
8.5400 5.6630 -0.1776
8.5600 5.6764 -0.1753
8.5800 5.6897 -0.1728
8.6000 5.7030 -0.1790
8.6200 5.7164 -0.1709
8.6400 5.7297 -0.1769
8.6600 5.7431 -0.1782
8.6800 5.7564 -0.1693
8.7000 5.7697 -0.1775
8.7200 5.7831 -0.1836
8.7400 5.7964 -0.1713
8.7600 5.8097 -0.1740
8.7800 5.8230 -0.1805
8.8000 5.8364 -0.1713
8.8200 5.8497 -0.1760
8.8400 5.8630 -0.1810
8.8600 5.8763 -0.1700
8.8800 5.8896 -0.1841
8.9000 5.9030 -0.1716
8.9200 5.9164 -0.1716
8.9400 5.9297 -0.1844
8.9600 5.9431 -0.1751
8.9800 5.9564 -0.1752
9.0000 5.9698 -0.1801
9.0200 5.9831 -0.1783
9.0400 5.9964 -0.1695
9.0600 6.0097 -0.1773
9.0800 6.0231 -0.1798
9.1000 6.0364 -0.1754
9.1200 6.0497 -0.1802
9.1400 6.0630 -0.1720
9.1600 6.0763 -0.1846
9.1800 6.0897 -0.1747
9.2000 6.1030 -0.1710
9.2200 6.1163 -0.1793
9.2400 6.1296 -0.1765
9.2600 6.1430 -0.1762
9.2800 6.1563 -0.1786
9.3000 6.1697 -0.1791
9.3200 6.1830 -0.1788
9.3400 6.1964 -0.1767
9.3600 6.2098 -0.1797
9.3800 6.2231 -0.1814
9.4000 6.2364 -0.1820
9.4200 6.2497 -0.1784
9.4400 6.2631 -0.1849
9.4600 6.2764 -0.1721
9.4800 6.2897 -0.1793
9.5000 6.3030 -0.1876
9.5200 6.3163 -0.1722
9.5400 6.3297 -0.1828
9.5600 6.3430 -0.1883
9.5800 6.3563 -0.1735
9.6000 6.3697 -0.1798
9.6200 6.3830 -0.1919
9.6400 6.3964 -0.1767
9.6600 6.4097 -0.1848
9.6800 6.4230 -0.1895
9.7000 6.4364 -0.1745
9.7200 6.4497 -0.1877
9.7400 6.4631 -0.1888
9.7600 6.4764 -0.1743
9.7800 6.4897 -0.1958
9.8000 6.5031 -0.1818
9.8200 6.5164 -0.1750
9.8400 6.5297 -0.1931
9.8600 6.5431 -0.1851
9.8800 6.5564 -0.1800
9.9000 6.5698 -0.1939
9.9200 6.5831 -0.1862
9.9400 6.5963 -0.1798
9.9600 6.6097 -0.1927
9.9800 6.6230 -0.1828
10.0000 6.6363 -0.1834
10.0200 6.6497 -0.1946
10.0400 6.6630 -0.1804
10.0600 6.6764 -0.1851
10.0800 6.6897 -0.1934
10.1000 6.7031 -0.1810
10.1200 6.7164 -0.1842
10.1400 6.7297 -0.1878
10.1600 6.7431 -0.1829
10.1800 6.7564 -0.1842
10.2000 6.7697 -0.1854
10.2200 6.7831 -0.1809
10.2400 6.7964 -0.1828
10.2600 6.8097 -0.1886
10.2800 6.8230 -0.1823
10.3000 6.8364 -0.1849
10.3200 6.8497 -0.1858
10.3400 6.8630 -0.1799
10.3600 6.8763 -0.1883
10.3800 6.8897 -0.1834
10.4000 6.9030 -0.1836
10.4200 6.9164 -0.1870
10.4400 6.9298 -0.1887
10.4600 6.9431 -0.1837
10.4800 6.9564 -0.1818
10.5000 6.9697 -0.1883
10.5200 6.9831 -0.1874
10.5400 6.9964 -0.1856
10.5600 7.0097 -0.1883
10.5800 7.0230 -0.1869
10.6000 7.0363 -0.1822
10.6200 7.0497 -0.1881
10.6400 7.0630 -0.1946
10.6600 7.0763 -0.1770
10.6800 7.0896 -0.1925
10.7000 7.1030 -0.1920
10.7200 7.1164 -0.1820
10.7400 7.1297 -0.1972
10.7600 7.1430 -0.1906
10.7800 7.1564 -0.1818
10.8000 7.1697 -0.1990
10.8200 7.1831 -0.1916
10.8400 7.1964 -0.1797
10.8600 7.2097 -0.1995
10.8800 7.2231 -0.1879
10.9000 7.2364 -0.1820
10.9200 7.2497 -0.2018
10.9400 7.2630 -0.1883
10.9600 7.2764 -0.1874
10.9800 7.2897 -0.1988
11.0000 7.3030 -0.1891
11.0200 7.3163 -0.1924
11.0400 7.3296 -0.1952
11.0600 7.3430 -0.1882
11.0800 7.3563 -0.1934
11.1000 7.3697 -0.1933
11.1200 7.3830 -0.1893
11.1400 7.3964 -0.1917
11.1600 7.4098 -0.1941
11.1800 7.4231 -0.1925
11.2000 7.4364 -0.1920
11.2200 7.4497 -0.1899
11.2400 7.4631 -0.1947
11.2600 7.4764 -0.1968
11.2800 7.4897 -0.1899
11.3000 7.5030 -0.1976
11.3200 7.5164 -0.1905
11.3400 7.5297 -0.1957
11.3600 7.5431 -0.1913
11.3800 7.5564 -0.1916
11.4000 7.5697 -0.1928
11.4200 7.5830 -0.1919
11.4400 7.5964 -0.1916
11.4600 7.6097 -0.1918
11.4800 7.6230 -0.1950
11.5000 7.6364 -0.1921
11.5200 7.6498 -0.1933
11.5400 7.6631 -0.1966
11.5600 7.6764 -0.1895
11.5800 7.6897 -0.1932
11.6000 7.7031 -0.1947
11.6200 7.7164 -0.1893
11.6400 7.7297 -0.1955
11.6600 7.7430 -0.1916
11.6800 7.7563 -0.1902
11.7000 7.7697 -0.1964
11.7200 7.7830 -0.1953
11.7400 7.7963 -0.1941
11.7600 7.8096 -0.1967
11.7800 7.8230 -0.1929
11.8000 7.8363 -0.1944
11.8200 7.8497 -0.1977
11.8400 7.8630 -0.1894
11.8600 7.8764 -0.1956
11.8800 7.8897 -0.2006
11.9000 7.9030 -0.1936
11.9200 7.9164 -0.2018
11.9400 7.9297 -0.1990
11.9600 7.9430 -0.1957
11.9800 7.9564 -0.2032
12.0000 7.9698 -0.1977
12.0200 7.9831 -0.1939
12.0400 7.9964 -0.2030
12.0600 8.0098 -0.1956
12.0800 8.0231 -0.1935
12.1000 8.0363 -0.1987
12.1200 8.0496 -0.1970
12.1400 8.0629 -0.1947
12.1600 8.0763 -0.2016
12.1800 8.0896 -0.1929
12.2000 8.1030 -0.1969
12.2200 8.1164 -0.1959
12.2400 8.1298 -0.1970
12.2600 8.1431 -0.2003
12.2800 8.1565 -0.1942
12.3000 8.1698 -0.1971
12.3200 8.1831 -0.1998
12.3400 8.1965 -0.1955
12.3600 8.2098 -0.1981
12.3800 8.2230 -0.1962
12.4000 8.2363 -0.1930
12.4200 8.2497 -0.1976
12.4400 8.2630 -0.1965
12.4600 8.2763 -0.1949
12.4800 8.2896 -0.1983
12.5000 8.3030 -0.1946
12.5200 8.3163 -0.1960
12.5400 8.3297 -0.2008
12.5600 8.3430 -0.1978
12.5800 8.3564 -0.1934
12.6000 8.3698 -0.2026
12.6200 8.3831 -0.1982
12.6400 8.3965 -0.1966
12.6600 8.4098 -0.2000
12.6800 8.4231 -0.2001
12.7000 8.4364 -0.1993
12.7200 8.4497 -0.1988
12.7400 8.4630 -0.1974
12.7600 8.4763 -0.1990
12.7800 8.4897 -0.1995
12.8000 8.5030 -0.1995
12.8200 8.5163 -0.1969
12.8400 8.5296 -0.1961
12.8600 8.5429 -0.1987
12.8800 8.5563 -0.1977
12.9000 8.5697 -0.2004
12.9200 8.5831 -0.2006
12.9400 8.5964 -0.1964
12.9600 8.6098 -0.1958
12.9800 8.6231 -0.2036
13.0000 8.6364 -0.1959
13.0200 8.6497 -0.1965
13.0400 8.6631 -0.2041
13.0600 8.6764 -0.2010
13.0800 8.6898 -0.1970
13.1000 8.7031 -0.2034
13.1200 8.7164 -0.1974
13.1400 8.7297 -0.2024
13.1600 8.7431 -0.2055
13.1800 8.7563 -0.1962
13.2000 8.7696 -0.2023
13.2200 8.7830 -0.2009
13.2400 8.7964 -0.2008
13.2600 8.8097 -0.2050
13.2800 8.8230 -0.2021
13.3000 8.8364 -0.2015
13.3200 8.8498 -0.2051
13.3400 8.8631 -0.2039
13.3600 8.8764 -0.2015
13.3800 8.8897 -0.2076
13.4000 8.9031 -0.2010
13.4200 8.9164 -0.2039
13.4400 8.9297 -0.2120
13.4600 8.9430 -0.2045
13.4800 8.9563 -0.2004
13.5000 8.9697 -0.2082
13.5200 8.9830 -0.2069
13.5400 8.9964 -0.2058
13.5600 9.0097 -0.2082
13.5800 9.0230 -0.2037
13.6000 9.0363 -0.2071
13.6200 9.0497 -0.2076
13.6400 9.0630 -0.2048
13.6600 9.0763 -0.2082
13.6800 9.0897 -0.2078
13.7000 9.1031 -0.2054
13.7200 9.1164 -0.2087
13.7400 9.1297 -0.2091
13.7600 9.1431 -0.2030
13.7800 9.1565 -0.2081
13.8000 9.1698 -0.2126
13.8200 9.1831 -0.2010
13.8400 9.1964 -0.2090
13.8600 9.2097 -0.2102
13.8800 9.2231 -0.2031
13.9000 9.2364 -0.2130
13.9200 9.2497 -0.2082
13.9400 9.2630 -0.2034
13.9600 9.2763 -0.2116
13.9800 9.2897 -0.2070
14.0000 9.3030 -0.2078
14.0200 9.3163 -0.2105
14.0400 9.3297 -0.2033
14.0600 9.3431 -0.2092
14.0800 9.3564 -0.2148
14.1000 9.3697 -0.2030
14.1200 9.3831 -0.2064
14.1400 9.3964 -0.2171
14.1600 9.4097 -0.2049
14.1800 9.4231 -0.2052
14.2000 9.4364 -0.2128
14.2200 9.4497 -0.2066
14.2400 9.4631 -0.2086
14.2600 9.4764 -0.2084
14.2800 9.4896 -0.2080
14.3000 9.5030 -0.2059
14.3200 9.5163 -0.2093
14.3400 9.5296 -0.2054
14.3600 9.5430 -0.2035
14.3800 9.5563 -0.2099
14.4000 9.5697 -0.2032
14.4200 9.5831 -0.2095
14.4400 9.5965 -0.2142
14.4600 9.6098 -0.1999
14.4800 9.6231 -0.2076
14.5000 9.6364 -0.2135
14.5200 9.6497 -0.2019
14.5400 9.6630 -0.2111
14.5600 9.6763 -0.2108
14.5800 9.6896 -0.2008
14.6000 9.7030 -0.2147
14.6200 9.7163 -0.2105
14.6400 9.7297 -0.1993
14.6600 9.7430 -0.2128
14.6800 9.7564 -0.2072
14.7000 9.7697 -0.2041
14.7200 9.7831 -0.2113
14.7400 9.7964 -0.2039
14.7600 9.8097 -0.2084
14.7800 9.8231 -0.2121
14.8000 9.8364 -0.2069
14.8200 9.8497 -0.2078
14.8400 9.8631 -0.2029
14.8600 9.8764 -0.2045
14.8800 9.8897 -0.2104
14.9000 9.9030 -0.2029
14.9200 9.9163 -0.2074
14.9400 9.9297 -0.2099
14.9600 9.9430 -0.2001
14.9800 9.9564 -0.2073
15.0000 9.9697 -0.2124
15.0200 9.9830 -0.2033
15.0400 9.9963 -0.2048
15.0600 10.0097 -0.2130
15.0800 10.0230 -0.2046
15.1000 10.0364 -0.2034
15.1200 10.0497 -0.2092
15.1400 10.0631 -0.2059
15.1600 10.0764 -0.2112
15.1800 10.0897 -0.2077
15.2000 10.1031 -0.2070
15.2200 10.1164 -0.2115
15.2400 10.1298 -0.2093
15.2600 10.1431 -0.2076
15.2800 10.1564 -0.2107
15.3000 10.1697 -0.2070
15.3200 10.1831 -0.2094
15.3400 10.1964 -0.2135
15.3600 10.2097 -0.2098
15.3800 10.2229 -0.2091
15.4000 10.2363 -0.2131
15.4200 10.2497 -0.2075
15.4400 10.2630 -0.2108
15.4600 10.2764 -0.2096
15.4800 10.2897 -0.2112
15.5000 10.3031 -0.2181
15.5200 10.3165 -0.2079
15.5400 10.3298 -0.2100
15.5600 10.3431 -0.2161
15.5800 10.3564 -0.2070
15.6000 10.3698 -0.2161
15.6200 10.3830 -0.2116
15.6400 10.3964 -0.2076
15.6600 10.4097 -0.2121
15.6800 10.4230 -0.2095
15.7000 10.4364 -0.2089
15.7200 10.4497 -0.2116
15.7400 10.4630 -0.2068
15.7600 10.4763 -0.2098
15.7800 10.4897 -0.2135
15.8000 10.5030 -0.2042
15.8200 10.5163 -0.2106
15.8400 10.5297 -0.2100
15.8600 10.5430 -0.2071
15.8800 10.5564 -0.2140
15.9000 10.5697 -0.2079
15.9200 10.5831 -0.2024
15.9400 10.5964 -0.2164
15.9600 10.6098 -0.2116
15.9800 10.6231 -0.1996
16.0000 10.6364 -0.2177
16.0200 10.6497 -0.2092
16.0400 10.6630 -0.1996
16.0600 10.6764 -0.2225
16.0800 10.6897 -0.2092
16.1000 10.7030 -0.2028
16.1200 10.7163 -0.2211
16.1400 10.7297 -0.2086
16.1600 10.7430 -0.2083
16.1800 10.7563 -0.2205
16.2000 10.7697 -0.2070
16.2200 10.7831 -0.2099
16.2400 10.7964 -0.2243
16.2600 10.8097 -0.2123
16.2800 10.8231 -0.2085
16.3000 10.8364 -0.2225
16.3200 10.8498 -0.2113
16.3400 10.8631 -0.2127
16.3600 10.8764 -0.2192
16.3800 10.8897 -0.2116
16.4000 10.9031 -0.2171
16.4200 10.9164 -0.2145
16.4400 10.9297 -0.2115
16.4600 10.9430 -0.2158
16.4800 10.9563 -0.2164
16.5000 10.9697 -0.2137
16.5200 10.9830 -0.2141
16.5400 10.9963 -0.2149
16.5600 11.0097 -0.2136
16.5800 11.0231 -0.2155
16.6000 11.0364 -0.2195
16.6200 11.0497 -0.2127
16.6400 11.0631 -0.2133
16.6600 11.0764 -0.2153
16.6800 11.0898 -0.2166
16.7000 11.1030 -0.2123
16.7200 11.1163 -0.2103
16.7400 11.1297 -0.2137
16.7600 11.1430 -0.2127
16.7800 11.1564 -0.2146
16.8000 11.1697 -0.2146
16.8200 11.1830 -0.2147
16.8400 11.1964 -0.2137
16.8600 11.2097 -0.2132
16.8800 11.2231 -0.2166
16.9000 11.2364 -0.2115
16.9200 11.2497 -0.2155
16.9400 11.2631 -0.2129
16.9600 11.2764 -0.2131
16.9800 11.2897 -0.2196
17.0000 11.3030 -0.2095
17.0200 11.3164 -0.2140
17.0400 11.3297 -0.2222
17.0600 11.3431 -0.2073
17.0800 11.3564 -0.2132
17.1000 11.3697 -0.2177
17.1200 11.3831 -0.2110
17.1400 11.3964 -0.2191
17.1600 11.4097 -0.2196
17.1800 11.4230 -0.2103
17.2000 11.4363 -0.2169
17.2200 11.4497 -0.2225
17.2400 11.4630 -0.2115
17.2600 11.4763 -0.2154
17.2800 11.4897 -0.2179
17.3000 11.5030 -0.2145
17.3200 11.5164 -0.2216
17.3400 11.5297 -0.2152
17.3600 11.5430 -0.2146
17.3800 11.5564 -0.2195
17.4000 11.5698 -0.2145
17.4200 11.5831 -0.2154
17.4400 11.5964 -0.2231
17.4600 11.6097 -0.2149
17.4800 11.6231 -0.2155
17.5000 11.6364 -0.2196
17.5200 11.6497 -0.2116
17.5400 11.6630 -0.2196
17.5600 11.6763 -0.2163
17.5800 11.6897 -0.2135
17.6000 11.7030 -0.2226
17.6200 11.7163 -0.2124
17.6400 11.7297 -0.2150
17.6600 11.7431 -0.2252
17.6800 11.7564 -0.2141
17.7000 11.7697 -0.2182
17.7200 11.7831 -0.2216
17.7400 11.7964 -0.2140
17.7600 11.8098 -0.2197
17.7800 11.8231 -0.2216
17.8000 11.8364 -0.2134
17.8200 11.8497 -0.2183
17.8400 11.8630 -0.2153
17.8600 11.8764 -0.2181
17.8800 11.8897 -0.2203
17.9000 11.9030 -0.2117
17.9200 11.9163 -0.2182
17.9400 11.9297 -0.2210
17.9600 11.9431 -0.2086
17.9800 11.9564 -0.2223
18.0000 11.9697 -0.2194
18.0200 11.9830 -0.2149
18.0400 11.9964 -0.2217
18.0600 12.0097 -0.2178
18.0800 12.0231 -0.2146
18.1000 12.0364 -0.2224
18.1200 12.0498 -0.2165
18.1400 12.0631 -0.2105
18.1600 12.0764 -0.2269
18.1800 12.0897 -0.2136
18.2000 12.1030 -0.2151
18.2200 12.1164 -0.2260
18.2400 12.1297 -0.2111
18.2600 12.1430 -0.2162
18.2800 12.1563 -0.2219
18.3000 12.1697 -0.2081
18.3200 12.1830 -0.2183
18.3400 12.1963 -0.2216
18.3600 12.2097 -0.2098
18.3800 12.2231 -0.2168
18.4000 12.2365 -0.2194
18.4200 12.2498 -0.2098
18.4400 12.2631 -0.2226
18.4600 12.2764 -0.2139
18.4800 12.2897 -0.2152
18.5000 12.3031 -0.2191
18.5200 12.3164 -0.2125
18.5400 12.3297 -0.2149
18.5600 12.3430 -0.2187
18.5800 12.3564 -0.2095
18.6000 12.3697 -0.2144
18.6200 12.3830 -0.2154
18.6400 12.3963 -0.2120
18.6600 12.4097 -0.2172
18.6800 12.4230 -0.2166
18.7000 12.4363 -0.2144
18.7200 12.4497 -0.2125
18.7400 12.4631 -0.2151
18.7600 12.4764 -0.2194
18.7800 12.4898 -0.2116
18.8000 12.5031 -0.2161
18.8200 12.5164 -0.2237
18.8400 12.5298 -0.2102
18.8600 12.5431 -0.2210
18.8800 12.5564 -0.2204
18.9000 12.5697 -0.2068
18.9200 12.5830 -0.2243
18.9400 12.5964 -0.2234
18.9600 12.6097 -0.2072
18.9800 12.6230 -0.2277
19.0000 12.6363 -0.2197
19.0200 12.6497 -0.2073
19.0400 12.6630 -0.2304
19.0600 12.6763 -0.2204
19.0800 12.6897 -0.2137
19.1000 12.7030 -0.2291
19.1200 12.7164 -0.2204
19.1400 12.7297 -0.2139
19.1600 12.7430 -0.2276
19.1800 12.7564 -0.2257
19.2000 12.7697 -0.2140
19.2200 12.7831 -0.2323
19.2400 12.7964 -0.2209
19.2600 12.8097 -0.2171
19.2800 12.8231 -0.2297
19.3000 12.8364 -0.2213
19.3200 12.8497 -0.2187
19.3400 12.8630 -0.2300
19.3600 12.8763 -0.2193
19.3800 12.8896 -0.2160
19.4000 12.9030 -0.2296
19.4200 12.9163 -0.2273
19.4400 12.9297 -0.2160
19.4600 12.9430 -0.2274
19.4800 12.9564 -0.2271
19.5000 12.9698 -0.2195
19.5200 12.9831 -0.2262
19.5400 12.9964 -0.2294
19.5600 13.0098 -0.2188
19.5800 13.0231 -0.2304
19.6000 13.0364 -0.2264
19.6200 13.0497 -0.2148
19.6400 13.0630 -0.2289
19.6600 13.0764 -0.2267
19.6800 13.0897 -0.2121
19.7000 13.1030 -0.2327
19.7200 13.1163 -0.2249
19.7400 13.1296 -0.2153
19.7600 13.1430 -0.2346
19.7800 13.1563 -0.2241
19.8000 13.1697 -0.2130
19.8200 13.1830 -0.2372
19.8400 13.1964 -0.2197
19.8600 13.2098 -0.2121
19.8800 13.2231 -0.2360
19.9000 13.2364 -0.2165
19.9200 13.2498 -0.2175
19.9400 13.2631 -0.2345
19.9600 13.2764 -0.2166
19.9800 13.2897 -0.2166
20.0000 13.3030 -0.2228
20.0200 13.3164 -0.2221
20.0400 13.3297 -0.2170
20.0600 13.3430 -0.2285
20.0800 13.3563 -0.2249
20.1000 13.3697 -0.2168
20.1200 13.3830 -0.2289
20.1400 13.3964 -0.2186
20.1600 13.4097 -0.2198
20.1800 13.4231 -0.2294
20.2000 13.4364 -0.2202
20.2200 13.4498 -0.2194
20.2400 13.4631 -0.2290
20.2600 13.4764 -0.2174
20.2800 13.4897 -0.2210
20.3000 13.5031 -0.2326
20.3200 13.5164 -0.2197
20.3400 13.5297 -0.2195
20.3600 13.5431 -0.2306
20.3800 13.5564 -0.2200
20.4000 13.5697 -0.2182
20.4200 13.5830 -0.2314
20.4400 13.5963 -0.2215
20.4600 13.6097 -0.2197
20.4800 13.6230 -0.2369
20.5000 13.6364 -0.2219
20.5200 13.6497 -0.2224
20.5400 13.6631 -0.2339
20.5600 13.6764 -0.2176
20.5800 13.6898 -0.2257
20.6000 13.7031 -0.2276
20.6200 13.7164 -0.2200
20.6400 13.7297 -0.2302
20.6600 13.7431 -0.2305
20.6800 13.7564 -0.2210
20.7000 13.7697 -0.2272
20.7200 13.7830 -0.2295
20.7400 13.7964 -0.2208
20.7600 13.8097 -0.2285
20.7800 13.8230 -0.2305
20.8000 13.8363 -0.2206
20.8200 13.8497 -0.2295
20.8400 13.8630 -0.2305
20.8600 13.8763 -0.2197
20.8800 13.8897 -0.2248
20.9000 13.9030 -0.2286
20.9200 13.9164 -0.2281
20.9400 13.9298 -0.2234
20.9600 13.9431 -0.2294
20.9800 13.9564 -0.2236
21.0000 13.9698 -0.2222
21.0200 13.9831 -0.2258
21.0400 13.9964 -0.2279
21.0600 14.0097 -0.2230
21.0800 14.0230 -0.2264
21.1000 14.0364 -0.2275
21.1200 14.0497 -0.2224
21.1400 14.0630 -0.2246
21.1600 14.0763 -0.2308
21.1800 14.0897 -0.2254
21.2000 14.1030 -0.2146
21.2200 14.1163 -0.2301
21.2400 14.1297 -0.2199
21.2600 14.1430 -0.2188
21.2800 14.1564 -0.2357
21.3000 14.1698 -0.2211
21.3200 14.1831 -0.2216
21.3400 14.1964 -0.2293
21.3600 14.2097 -0.2162
21.3800 14.2231 -0.2229
21.4000 14.2364 -0.2279
21.4200 14.2497 -0.2127
21.4400 14.2630 -0.2239
21.4600 14.2764 -0.2240
21.4800 14.2897 -0.2133
21.5000 14.3030 -0.2260
21.5200 14.3163 -0.2239
21.5400 14.3296 -0.2116
21.5600 14.3430 -0.2289
21.5800 14.3563 -0.2231
21.6000 14.3696 -0.2147
21.6200 14.3830 -0.2252
21.6400 14.3964 -0.2220
21.6600 14.4098 -0.2212
21.6800 14.4231 -0.2255
21.7000 14.4364 -0.2161
21.7200 14.4498 -0.2232
21.7400 14.4631 -0.2260
21.7600 14.4764 -0.2204
21.7800 14.4897 -0.2170
21.8000 14.5030 -0.2195
21.8200 14.5163 -0.2211
21.8400 14.5297 -0.2209
21.8600 14.5430 -0.2180
21.8800 14.5563 -0.2247
21.9000 14.5697 -0.2280
21.9200 14.5830 -0.2164
21.9400 14.5964 -0.2262
21.9600 14.6097 -0.2257
21.9800 14.6231 -0.2157
22.0000 14.6364 -0.2232
22.0200 14.6498 -0.2281
22.0400 14.6631 -0.2180
22.0600 14.6764 -0.2236
22.0800 14.6897 -0.2243
22.1000 14.7031 -0.2186
22.1200 14.7164 -0.2272
22.1400 14.7297 -0.2247
22.1600 14.7430 -0.2135
22.1800 14.7564 -0.2271
22.2000 14.7697 -0.2235
22.2200 14.7830 -0.2224
22.2400 14.7963 -0.2287
22.2600 14.8097 -0.2153
22.2800 14.8230 -0.2273
22.3000 14.8364 -0.2260
22.3200 14.8497 -0.2159
22.3400 14.8630 -0.2302
22.3600 14.8764 -0.2359
22.3800 14.8898 -0.2067
22.4000 14.9031 -0.2261
22.4200 14.9164 -0.2302
22.4400 14.9298 -0.2139
22.4600 14.9431 -0.2300
22.4800 14.9564 -0.2245
22.5000 14.9697 -0.2173
22.5200 14.9830 -0.2352
22.5400 14.9964 -0.2241
22.5600 15.0097 -0.2230
22.5800 15.0230 -0.2335
22.6000 15.0363 -0.2205
22.6200 15.0496 -0.2273
22.6400 15.0630 -0.2270
22.6600 15.0763 -0.2248
22.6800 15.0897 -0.2318
22.7000 15.1030 -0.2212
22.7200 15.1164 -0.2224
22.7400 15.1298 -0.2379
22.7600 15.1431 -0.2202
22.7800 15.1564 -0.2234
22.8000 15.1697 -0.2401
22.8200 15.1831 -0.2156
22.8400 15.1964 -0.2313
22.8600 15.2097 -0.2363
22.8800 15.2230 -0.2177
22.9000 15.2364 -0.2299
22.9200 15.2497 -0.2381
22.9400 15.2630 -0.2078
22.9600 15.2763 -0.2360
22.9800 15.2897 -0.2295
23.0000 15.3030 -0.2166
23.0200 15.3163 -0.2371
23.0400 15.3297 -0.2296
23.0600 15.3430 -0.2156
23.0800 15.3564 -0.2381
23.1000 15.3697 -0.2237
23.1200 15.3831 -0.2254
23.1400 15.3964 -0.2356
23.1600 15.4097 -0.2204
23.1800 15.4231 -0.2307
23.2000 15.4364 -0.2301
23.2200 15.4497 -0.2237
23.2400 15.4630 -0.2296
23.2600 15.4764 -0.2329
23.2800 15.4897 -0.2247
23.3000 15.5030 -0.2303
23.3200 15.5163 -0.2285
23.3400 15.5296 -0.2222
23.3600 15.5430 -0.2345
23.3800 15.5563 -0.2257
23.4000 15.5697 -0.2255
23.4200 15.5830 -0.2382
23.4400 15.5964 -0.2254
23.4600 15.6098 -0.2264
23.4800 15.6231 -0.2405
23.5000 15.6364 -0.2272
23.5200 15.6497 -0.2309
23.5400 15.6631 -0.2352
23.5600 15.6764 -0.2277
23.5800 15.6897 -0.2315
23.6000 15.7030 -0.2330
23.6200 15.7164 -0.2222
23.6400 15.7297 -0.2382
23.6600 15.7430 -0.2363
23.6800 15.7563 -0.2239
23.7000 15.7697 -0.2412
23.7200 15.7830 -0.2311
23.7400 15.7963 -0.2241
23.7600 15.8096 -0.2388
23.7800 15.8230 -0.2321
23.8000 15.8364 -0.2281
23.8200 15.8498 -0.2367
23.8400 15.8631 -0.2363
23.8600 15.8764 -0.2303
23.8800 15.8897 -0.2306
23.9000 15.9031 -0.2348
23.9200 15.9164 -0.2349
23.9400 15.9297 -0.2308
23.9600 15.9430 -0.2269
23.9800 15.9563 -0.2313
24.0000 15.9697 -0.2372
24.0200 15.9830 -0.2279
24.0400 15.9963 -0.2312
24.0600 16.0097 -0.2379
24.0800 16.0230 -0.2282
24.1000 16.0364 -0.2264
24.1200 16.0497 -0.2397
24.1400 16.0630 -0.2304
24.1600 16.0764 -0.2180
24.1800 16.0897 -0.2393
24.2000 16.1030 -0.2345
24.2200 16.1163 -0.2222
24.2400 16.1297 -0.2313
24.2600 16.1430 -0.2282
24.2800 16.1564 -0.2234
24.3000 16.1697 -0.2331
24.3200 16.1831 -0.2285
24.3400 16.1964 -0.2271
24.3600 16.2098 -0.2376
24.3800 16.2231 -0.2294
24.4000 16.2364 -0.2353
24.4200 16.2497 -0.2309
24.4400 16.2630 -0.2233
24.4600 16.2763 -0.2353
24.4800 16.2897 -0.2333
24.5000 16.3030 -0.2224
24.5200 16.3163 -0.2355
24.5400 16.3297 -0.2336
24.5600 16.3431 -0.2247
24.5800 16.3564 -0.2338
24.6000 16.3697 -0.2276
24.6200 16.3831 -0.2236
24.6400 16.3964 -0.2384
24.6600 16.4097 -0.2268
24.6800 16.4231 -0.2220
24.7000 16.4364 -0.2366
24.7200 16.4498 -0.2305
24.7400 16.4631 -0.2261
24.7600 16.4763 -0.2332
24.7800 16.4896 -0.2277
24.8000 16.5030 -0.2301
24.8200 16.5163 -0.2271
24.8400 16.5297 -0.2317
24.8600 16.5430 -0.2336
24.8800 16.5564 -0.2293
24.9000 16.5698 -0.2293
24.9200 16.5831 -0.2272
24.9400 16.5964 -0.2322
24.9600 16.6098 -0.2320
24.9800 16.6231 -0.2294
25.0000 16.6364 -0.2328
25.0200 16.6498 -0.2294
25.0400 16.6630 -0.2218
25.0600 16.6764 -0.2275
25.0800 16.6897 -0.2376
25.1000 16.7030 -0.2249
25.1200 16.7163 -0.2282
25.1400 16.7296 -0.2325
25.1600 16.7430 -0.2240
25.1800 16.7564 -0.2349
25.2000 16.7697 -0.2314
25.2200 16.7830 -0.2267
25.2400 16.7963 -0.2285
25.2600 16.8097 -0.2291
25.2800 16.8231 -0.2293
25.3000 16.8364 -0.2314
25.3200 16.8497 -0.2233
25.3400 16.8631 -0.2314
25.3600 16.8764 -0.2280
25.3800 16.8898 -0.2261
25.4000 16.9031 -0.2357
25.4200 16.9164 -0.2266
25.4400 16.9297 -0.2249
25.4600 16.9430 -0.2390
25.4800 16.9563 -0.2222
25.5000 16.9696 -0.2321
25.5200 16.9829 -0.2385
25.5400 16.9963 -0.2249
25.5600 17.0096 -0.2285
25.5800 17.0230 -0.2392
25.6000 17.0364 -0.2233
25.6200 17.0498 -0.2354
25.6400 17.0631 -0.2360
25.6600 17.0764 -0.2235
25.6800 17.0897 -0.2378
25.7000 17.1031 -0.2347
25.7200 17.1164 -0.2224
25.7400 17.1297 -0.2364
25.7600 17.1430 -0.2315
25.7800 17.1564 -0.2325
25.8000 17.1697 -0.2300
25.8200 17.1830 -0.2300
25.8400 17.1964 -0.2294
25.8600 17.2097 -0.2357
25.8800 17.2230 -0.2301
25.9000 17.2364 -0.2299
25.9200 17.2497 -0.2352
25.9400 17.2630 -0.2280
25.9600 17.2764 -0.2296
25.9800 17.2898 -0.2303
26.0000 17.3031 -0.2355
26.0200 17.3164 -0.2319
26.0400 17.3298 -0.2262
26.0600 17.3431 -0.2302
26.0800 17.3564 -0.2329
26.1000 17.3697 -0.2327
26.1200 17.3830 -0.2291
26.1400 17.3963 -0.2328
26.1600 17.4097 -0.2303
26.1800 17.4230 -0.2281
26.2000 17.4363 -0.2324
26.2200 17.4496 -0.2234
26.2400 17.4630 -0.2284
26.2600 17.4764 -0.2316
26.2800 17.4897 -0.2201
26.3000 17.5030 -0.2305
26.3200 17.5164 -0.2371
26.3400 17.5297 -0.2220
26.3600 17.5431 -0.2295
26.3800 17.5564 -0.2335
26.4000 17.5697 -0.2202
26.4200 17.5830 -0.2270
26.4400 17.5964 -0.2356
26.4600 17.6098 -0.2215
26.4800 17.6231 -0.2318
26.5000 17.6364 -0.2315
26.5200 17.6497 -0.2213
26.5400 17.6631 -0.2375
26.5600 17.6764 -0.2317
26.5800 17.6896 -0.2252
26.6000 17.7029 -0.2372
26.6200 17.7163 -0.2282
26.6400 17.7296 -0.2250
26.6600 17.7430 -0.2413
26.6800 17.7563 -0.2323
26.7000 17.7698 -0.2272
26.7200 17.7831 -0.2411
26.7400 17.7965 -0.2276
26.7600 17.8098 -0.2378
26.7800 17.8231 -0.2396
26.8000 17.8365 -0.2286
26.8200 17.8498 -0.2409
26.8400 17.8631 -0.2358
26.8600 17.8764 -0.2358
26.8800 17.8897 -0.2356
26.9000 17.9030 -0.2372
26.9200 17.9163 -0.2432
26.9400 17.9296 -0.2332
26.9600 17.9429 -0.2354
26.9800 17.9563 -0.2426
27.0000 17.9696 -0.2364
27.0200 17.9830 -0.2346
27.0400 17.9963 -0.2417
27.0600 18.0097 -0.2380
27.0800 18.0231 -0.2361
27.1000 18.0364 -0.2431
27.1200 18.0498 -0.2315
27.1400 18.0631 -0.2382
27.1600 18.0764 -0.2387
27.1800 18.0897 -0.2290
27.2000 18.1030 -0.2449
27.2200 18.1164 -0.2405
27.2400 18.1297 -0.2307
27.2600 18.1430 -0.2449
27.2800 18.1563 -0.2395
27.3000 18.1697 -0.2351
27.3200 18.1830 -0.2424
27.3400 18.1963 -0.2374
27.3600 18.2097 -0.2359
27.3800 18.2230 -0.2435
27.4000 18.2364 -0.2363
27.4200 18.2497 -0.2357
27.4400 18.2631 -0.2499
27.4600 18.2764 -0.2358
27.4800 18.2897 -0.2366
27.5000 18.3031 -0.2443
27.5200 18.3164 -0.2377
27.5400 18.3298 -0.2426
27.5600 18.3431 -0.2430
27.5800 18.3564 -0.2343
27.6000 18.3697 -0.2426
27.6200 18.3831 -0.2389
27.6400 18.3964 -0.2357
27.6600 18.4097 -0.2429
27.6800 18.4230 -0.2383
27.7000 18.4364 -0.2378
27.7200 18.4497 -0.2396
27.7400 18.4630 -0.2377
27.7600 18.4764 -0.2419
27.7800 18.4897 -0.2391
27.8000 18.5031 -0.2361
27.8200 18.5164 -0.2434
27.8400 18.5298 -0.2423
27.8600 18.5431 -0.2360
27.8800 18.5564 -0.2417
27.9000 18.5697 -0.2418
27.9200 18.5830 -0.2368
27.9400 18.5963 -0.2405
27.9600 18.6097 -0.2356
27.9800 18.6230 -0.2349
28.0000 18.6364 -0.2463
28.0200 18.6497 -0.2318
28.0400 18.6630 -0.2327
28.0600 18.6764 -0.2424
28.0800 18.6897 -0.2287
28.1000 18.7030 -0.2283
28.1200 18.7163 -0.2360
28.1400 18.7297 -0.2253
28.1600 18.7431 -0.2265
28.1800 18.7564 -0.2360
28.2000 18.7697 -0.2252
28.2200 18.7831 -0.2224
28.2400 18.7964 -0.2287
28.2600 18.8098 -0.2237
28.2800 18.8231 -0.2243
28.3000 18.8364 -0.2265
28.3200 18.8497 -0.2212
28.3400 18.8630 -0.2228
28.3600 18.8763 -0.2230
28.3800 18.8896 -0.2191
28.4000 18.9030 -0.2216
28.4200 18.9163 -0.2216
28.4400 18.9297 -0.2207
28.4600 18.9430 -0.2215
28.4800 18.9564 -0.2206
28.5000 18.9697 -0.2249
28.5200 18.9831 -0.2269
28.5400 18.9964 -0.2249
28.5600 19.0097 -0.2177
28.5800 19.0231 -0.2252
28.6000 19.0364 -0.2282
28.6200 19.0498 -0.2233
28.6400 19.0631 -0.2226
28.6600 19.0764 -0.2295
28.6800 19.0897 -0.2212
28.7000 19.1031 -0.2218
28.7200 19.1164 -0.2364
28.7400 19.1296 -0.2208
28.7600 19.1429 -0.2182
28.7800 19.1563 -0.2370
28.8000 19.1696 -0.2198
28.8200 19.1830 -0.2217
28.8400 19.1963 -0.2394
28.8600 19.2097 -0.2233
28.8800 19.2231 -0.2190
28.9000 19.2365 -0.2380
28.9200 19.2498 -0.2218
28.9400 19.2631 -0.2258
28.9600 19.2765 -0.2357
28.9800 19.2898 -0.2164
29.0000 19.3030 -0.2281
29.0200 19.3163 -0.2353
29.0400 19.3296 -0.2146
29.0600 19.3430 -0.2285
29.0800 19.3563 -0.2355
29.1000 19.3697 -0.2166
29.1200 19.3830 -0.2306
29.1400 19.3964 -0.2335
29.1600 19.4097 -0.2210
29.1800 19.4231 -0.2356
29.2000 19.4364 -0.2348
29.2200 19.4497 -0.2147
29.2400 19.4631 -0.2364
29.2600 19.4764 -0.2414
29.2800 19.4897 -0.2150
29.3000 19.5030 -0.2321
29.3200 19.5164 -0.2372
29.3400 19.5297 -0.2188
29.3600 19.5430 -0.2301
29.3800 19.5564 -0.2402
29.4000 19.5697 -0.2235
29.4200 19.5830 -0.2237
29.4400 19.5964 -0.2365
29.4600 19.6097 -0.2239
29.4800 19.6230 -0.2281
29.5000 19.6363 -0.2305
29.5200 19.6497 -0.2341
29.5400 19.6630 -0.2342
29.5600 19.6764 -0.2247
29.5800 19.6897 -0.2312
29.6000 19.7031 -0.2446
29.6200 19.7164 -0.2269
29.6400 19.7297 -0.2282
29.6600 19.7430 -0.2495
29.6800 19.7564 -0.2290
29.7000 19.7697 -0.2300
29.7200 19.7831 -0.2469
29.7400 19.7964 -0.2265
29.7600 19.8097 -0.2366
29.7800 19.8231 -0.2358
29.8000 19.8364 -0.2239
29.8200 19.8497 -0.2416
29.8400 19.8630 -0.2313
29.8600 19.8763 -0.2265
29.8800 19.8897 -0.2403
29.9000 19.9030 -0.2222
29.9200 19.9164 -0.2268
29.9400 19.9297 -0.2423
29.9600 19.9431 -0.2159
29.9800 19.9565 -0.2271
30.0000 19.9698 -0.2471
30.0200 19.9831 -0.2171
30.0400 19.9964 -0.2287
30.0600 20.0098 -0.2409
30.0800 20.0230 -0.2218
30.1000 20.0363 -0.2271
30.1200 20.0497 -0.2344
30.1400 20.0630 -0.2238
30.1600 20.0764 -0.2296
30.1800 20.0897 -0.2323
30.2000 20.1030 -0.2234
30.2200 20.1163 -0.2394
30.2400 20.1297 -0.2302
30.2600 20.1430 -0.2186
30.2800 20.1563 -0.2383
30.3000 20.1697 -0.2301
30.3200 20.1831 -0.2263
30.3400 20.1964 -0.2400
30.3600 20.2097 -0.2302
30.3800 20.2231 -0.2260
30.4000 20.2364 -0.2372
30.4200 20.2498 -0.2301
30.4400 20.2631 -0.2277
30.4600 20.2764 -0.2325
30.4800 20.2897 -0.2292
30.5000 20.3030 -0.2279
30.5200 20.3164 -0.2199
30.5400 20.3297 -0.1780
30.5600 20.3430 -0.0985
30.5800 20.3563 -0.0322
30.6000 20.3697 -0.0038
30.6200 20.3830 0.0249
30.6400 20.3964 0.0753
30.6600 20.4097 0.1258
30.6800 20.4231 0.1566
30.7000 20.4365 0.2008
30.7200 20.4498 0.2280
30.7400 20.4631 0.2617
30.7600 20.4764 0.2955
30.7800 20.4898 0.2812
30.8000 20.5031 0.2760
30.8200 20.5164 0.2822
30.8400 20.5297 0.2724
30.8600 20.5430 0.2747
30.8800 20.5564 0.2812
30.9000 20.5697 0.2718
30.9200 20.5830 0.2737
30.9400 20.5963 0.2847
30.9600 20.6097 0.2693
30.9800 20.6230 0.2811
31.0000 20.6363 0.2864
31.0200 20.6497 0.2741
31.0400 20.6631 0.2834
31.0600 20.6764 0.2872
31.0800 20.6898 0.2715
31.1000 20.7031 0.2822
31.1200 20.7164 0.2855
31.1400 20.7298 0.2740
31.1600 20.7431 0.2841
31.1800 20.7563 0.2840
31.2000 20.7697 0.2745
31.2200 20.7830 0.2891
31.2400 20.7963 0.2792
31.2600 20.8097 0.2754
31.2800 20.8230 0.2863
31.3000 20.8363 0.2754
31.3200 20.8497 0.2765
31.3400 20.8631 0.2815
31.3600 20.8764 0.2800
31.3800 20.8897 0.2747
31.4000 20.9031 0.2776
31.4200 20.9164 0.2811
31.4400 20.9297 0.2781
31.4600 20.9430 0.2755
31.4800 20.9564 0.2730
31.5000 20.9697 0.2772
31.5200 20.9831 0.2802
31.5400 20.9964 0.2755
31.5600 21.0097 0.2720
31.5800 21.0231 0.2714
31.6000 21.0364 0.2768
31.6200 21.0497 0.2663
31.6400 21.0630 0.2765
31.6600 21.0763 0.2769
31.6800 21.0897 0.2684
31.7000 21.1030 0.2734
31.7200 21.1163 0.2746
31.7400 21.1297 0.2721
31.7600 21.1430 0.2713
31.7800 21.1564 0.2702
31.8000 21.1697 0.2693
31.8200 21.1830 0.2757
31.8400 21.1964 0.2754
31.8600 21.2098 0.2557
31.8800 21.2231 0.2761
31.9000 21.2364 0.2696
31.9200 21.2497 0.2669
31.9400 21.2630 0.2750
31.9600 21.2764 0.2677
31.9800 21.2897 0.2645
32.0000 21.3030 0.2671
32.0200 21.3163 0.2700
32.0400 21.3297 0.2663
32.0600 21.3430 0.2698
32.0800 21.3564 0.2597
32.1000 21.3697 0.2619
32.1200 21.3831 0.2691
32.1400 21.3964 0.2640
32.1600 21.4097 0.2668
32.1800 21.4231 0.2707
32.2000 21.4364 0.2645
32.2200 21.4498 0.2606
32.2400 21.4631 0.2647
32.2600 21.4764 0.2702
32.2800 21.4897 0.2622
32.3000 21.5030 0.2616
32.3200 21.5164 0.2655
32.3400 21.5297 0.2664
32.3600 21.5430 0.2626
32.3800 21.5563 0.2623
32.4000 21.5697 0.2592
32.4200 21.5830 0.2667
32.4400 21.5963 0.2614
32.4600 21.6097 0.2573
32.4800 21.6230 0.2666
32.5000 21.6364 0.2593
32.5200 21.6497 0.2536
32.5400 21.6631 0.2644
32.5600 21.6764 0.2666
32.5800 21.6898 0.2555
32.6000 21.7031 0.2556
32.6200 21.7164 0.2680
32.6400 21.7297 0.2602
32.6600 21.7430 0.2517
32.6800 21.7564 0.2638
32.7000 21.7697 0.2645
32.7200 21.7830 0.2540
32.7400 21.7963 0.2638
32.7600 21.8097 0.2567
32.7800 21.8230 0.2559
32.8000 21.8363 0.2639
32.8200 21.8497 0.2540
32.8400 21.8631 0.2587
32.8600 21.8764 0.2610
32.8800 21.8898 0.2500
32.9000 21.9031 0.2595
32.9200 21.9164 0.2661
32.9400 21.9298 0.2480
32.9600 21.9431 0.2565
32.9800 21.9564 0.2646
33.0000 21.9697 0.2525
33.0200 21.9830 0.2568
33.0400 21.9964 0.2594
33.0600 22.0097 0.2521
33.0800 22.0230 0.2574
33.1000 22.0363 0.2549
33.1200 22.0497 0.2509
33.1400 22.0630 0.2598
33.1600 22.0763 0.2541
33.1800 22.0897 0.2508
33.2000 22.1031 0.2543
33.2200 22.1164 0.2522
33.2400 22.1297 0.2540
33.2600 22.1430 0.2532
33.2800 22.1564 0.2563
33.3000 22.1697 0.2520
33.3200 22.1831 0.2476
33.3400 22.1964 0.2562
33.3600 22.2097 0.2590
33.3800 22.2230 0.2497
33.4000 22.2364 0.2563
33.4200 22.2497 0.2552
33.4400 22.2630 0.2441
33.4600 22.2763 0.2575
33.4800 22.2897 0.2574
33.5000 22.3030 0.2445
33.5200 22.3163 0.2580
33.5400 22.3297 0.2488
33.5600 22.3430 0.2520
33.5800 22.3564 0.2566
33.6000 22.3697 0.2448
33.6200 22.3830 0.2505
33.6400 22.3964 0.2487
33.6600 22.4097 0.2446
33.6800 22.4231 0.2502
33.7000 22.4364 0.2574
33.7200 22.4497 0.2370
33.7400 22.4631 0.2615
33.7600 22.4764 0.2535
33.7800 22.4897 0.2342
33.8000 22.5030 0.2626
33.8200 22.5163 0.2469
33.8400 22.5296 0.2384
33.8600 22.5430 0.2597
33.8800 22.5563 0.2455
33.9000 22.5696 0.2473
33.9200 22.5830 0.2522
33.9400 22.5964 0.2457
33.9600 22.6098 0.2447
33.9800 22.6231 0.2512
34.0000 22.6365 0.2462
34.0200 22.6498 0.2505
34.0400 22.6632 0.2446
34.0600 22.6764 0.2453
34.0800 22.6897 0.2537
34.1000 22.7030 0.2460
34.1200 22.7163 0.2482
34.1400 22.7297 0.2495
34.1600 22.7430 0.2365
34.1800 22.7563 0.2471
34.2000 22.7696 0.2531
34.2200 22.7830 0.2417
34.2400 22.7963 0.2423
34.2600 22.8097 0.2459
34.2800 22.8230 0.2451
34.3000 22.8364 0.2448
34.3200 22.8498 0.2433
34.3400 22.8631 0.2425
34.3600 22.8764 0.2408
34.3800 22.8898 0.2408
34.4000 22.9031 0.2491
34.4200 22.9164 0.2400
34.4400 22.9297 0.2399
34.4600 22.9430 0.2479
34.4800 22.9564 0.2352
34.5000 22.9697 0.2443
34.5200 22.9830 0.2450
34.5400 22.9963 0.2307
34.5600 23.0097 0.2456
34.5800 23.0230 0.2440
34.6000 23.0363 0.2307
34.6200 23.0497 0.2459
34.6400 23.0630 0.2411
34.6600 23.0764 0.2299
34.6800 23.0897 0.2416
34.7000 23.1031 0.2355
34.7200 23.1164 0.2361
34.7400 23.1297 0.2442
34.7600 23.1431 0.2342
34.7800 23.1564 0.2327
34.8000 23.1697 0.2434
34.8200 23.1830 0.2313
34.8400 23.1964 0.2409
34.8600 23.2097 0.2387
34.8800 23.2230 0.2324
34.9000 23.2363 0.2359
34.9200 23.2497 0.2407
34.9400 23.2630 0.2378
34.9600 23.2764 0.2277
34.9800 23.2897 0.2387
35.0000 23.3031 0.2409
35.0200 23.3164 0.2314
35.0400 23.3298 0.2338
35.0600 23.3431 0.2399
35.0800 23.3564 0.2332
35.1000 23.3697 0.2346
35.1200 23.3831 0.2358
35.1400 23.3964 0.2253
35.1600 23.4097 0.2384
35.1800 23.4230 0.2380
35.2000 23.4364 0.2273
35.2200 23.4497 0.2385
35.2400 23.4630 0.2294
35.2600 23.4763 0.2260
35.2800 23.4897 0.2431
35.3000 23.5030 0.2295
35.3200 23.5163 0.2241
35.3400 23.5297 0.2422
35.3600 23.5430 0.2273
35.3800 23.5564 0.2266
35.4000 23.5698 0.2385
35.4200 23.5831 0.2201
35.4400 23.5964 0.2300
35.4600 23.6098 0.2368
35.4800 23.6231 0.2225
35.5000 23.6364 0.2316
35.5200 23.6497 0.2301
35.5400 23.6630 0.2269
35.5600 23.6764 0.2312
35.5800 23.6897 0.2296
35.6000 23.7030 0.2262
35.6200 23.7163 0.2306
35.6400 23.7297 0.2287
35.6600 23.7430 0.2275
35.6800 23.7563 0.2242
35.7000 23.7697 0.2249
35.7200 23.7830 0.2278
35.7400 23.7964 0.2233
35.7600 23.8098 0.2248
35.7800 23.8231 0.2290
35.8000 23.8364 0.2215
35.8200 23.8497 0.2323
35.8400 23.8631 0.2272
35.8600 23.8764 0.2236
35.8800 23.8897 0.2366
35.9000 23.9030 0.2220
35.9200 23.9164 0.2209
35.9400 23.9297 0.2359
35.9600 23.9430 0.2223
35.9800 23.9563 0.2190
36.0000 23.9696 0.2339
36.0200 23.9830 0.2187
36.0400 23.9963 0.2166
36.0600 24.0096 0.2324
36.0800 24.0230 0.2162
36.1000 24.0364 0.2188
36.1200 24.0498 0.2311
36.1400 24.0632 0.2104
36.1600 24.0765 0.2229
36.1800 24.0898 0.2264
36.2000 24.1031 0.2130
36.2200 24.1164 0.2226
36.2400 24.1297 0.2231
36.2600 24.1430 0.2119
36.2800 24.1563 0.2230
36.3000 24.1697 0.2189
36.3200 24.1830 0.2130
36.3400 24.1963 0.2268
36.3600 24.2097 0.2158
36.3800 24.2230 0.2123
36.4000 24.2364 0.2226
36.4200 24.2497 0.2071
36.4400 24.2631 0.2145
36.4600 24.2764 0.2209
36.4800 24.2898 0.2123
36.5000 24.3031 0.2149
36.5200 24.3164 0.2153
36.5400 24.3297 0.2124
36.5600 24.3431 0.2149
36.5800 24.3564 0.2088
36.6000 24.3697 0.2129
36.6200 24.3830 0.2189
36.6400 24.3963 0.2094
36.6600 24.4097 0.2114
36.6800 24.4230 0.2189
36.7000 24.4363 0.2062
36.7200 24.4497 0.2175
36.7400 24.4630 0.2182
36.7600 24.4764 0.2047
36.7800 24.4897 0.2149
36.8000 24.5030 0.2203
36.8200 24.5164 0.2138
36.8400 24.5298 0.2146
36.8600 24.5431 0.2139
36.8800 24.5564 0.2158
36.9000 24.5697 0.2177
36.9200 24.5831 0.2127
36.9400 24.5964 0.2167
36.9600 24.6097 0.2151
36.9800 24.6230 0.2122
37.0000 24.6364 0.2180
37.0200 24.6497 0.2150
37.0400 24.6630 0.2112
37.0600 24.6763 0.2181
37.0800 24.6896 0.2126
37.1000 24.7030 0.2156
37.1200 24.7163 0.2120
37.1400 24.7297 0.2070
37.1600 24.7430 0.2205
37.1800 24.7564 0.2166
37.2000 24.7698 0.2056
37.2200 24.7831 0.2184
37.2400 24.7964 0.2160
37.2600 24.8097 0.2034
37.2800 24.8231 0.2154
37.3000 24.8364 0.2100
37.3200 24.8497 0.2052
37.3400 24.8630 0.2150
37.3600 24.8764 0.2036
37.3800 24.8897 0.2071
37.4000 24.9030 0.2084
37.4200 24.9163 0.2049
37.4400 24.9297 0.2068
37.4600 24.9430 0.2065
37.4800 24.9564 0.2096
37.5000 24.9697 0.2040
37.5200 24.9830 0.2069
37.5400 24.9964 0.2071
37.5600 25.0097 0.2023
37.5800 25.0231 0.2044
37.6000 25.0364 0.2078
37.6200 25.0497 0.2038
37.6400 25.0631 0.2029
37.6600 25.0764 0.2064
37.6800 25.0897 0.1993
37.7000 25.1031 0.2046
37.7200 25.1164 0.2069
37.7400 25.1297 0.1921
37.7600 25.1430 0.2077
37.7800 25.1563 0.2076
37.8000 25.1696 0.1960
37.8200 25.1830 0.2079
37.8400 25.1963 0.2043
37.8600 25.2097 0.1964
37.8800 25.2230 0.2117
37.9000 25.2364 0.2035
37.9200 25.2498 0.1952
37.9400 25.2631 0.2055
37.9600 25.2764 0.2022
37.9800 25.2897 0.1990
38.0000 25.3031 0.2055
38.0200 25.3164 0.1988
38.0400 25.3297 0.1978
38.0600 25.3430 0.1996
38.0800 25.3564 0.2027
38.1000 25.3697 0.1945
38.1200 25.3830 0.1983
38.1400 25.3963 0.2008
38.1600 25.4096 0.1921
38.1800 25.4230 0.1935
38.2000 25.4363 0.1997
38.2200 25.4496 0.1924
38.2400 25.4630 0.1930
38.2600 25.4763 0.2005
38.2800 25.4897 0.1891
38.3000 25.5031 0.1902
38.3200 25.5164 0.2030
38.3400 25.5298 0.1858
38.3600 25.5431 0.1913
38.3800 25.5564 0.2022
38.4000 25.5697 0.1831
38.4200 25.5830 0.1981
38.4400 25.5963 0.1993
38.4600 25.6097 0.1829
38.4800 25.6230 0.1935
38.5000 25.6363 0.1940
38.5200 25.6497 0.1838
38.5400 25.6630 0.1967
38.5600 25.6764 0.1894
38.5800 25.6897 0.1833
38.6000 25.7030 0.1949
38.6200 25.7164 0.1919
38.6400 25.7297 0.1820
38.6600 25.7430 0.1955
38.6800 25.7563 0.1881
38.7000 25.7697 0.1838
38.7200 25.7830 0.1947
38.7400 25.7964 0.1895
38.7600 25.8098 0.1833
38.7800 25.8231 0.1933
38.8000 25.8364 0.1913
38.8200 25.8498 0.1858
38.8400 25.8631 0.1902
38.8600 25.8764 0.1931
38.8800 25.8897 0.1898
38.9000 25.9030 0.1913
38.9200 25.9163 0.1939
38.9400 25.9296 0.1850
38.9600 25.9430 0.1920
38.9800 25.9563 0.1920
39.0000 25.9697 0.1865
39.0200 25.9831 0.1932
39.0400 25.9964 0.1906
39.0600 26.0097 0.1872
39.0800 26.0231 0.1895
39.1000 26.0364 0.1883
39.1200 26.0497 0.1883
39.1400 26.0630 0.1909
39.1600 26.0764 0.1896
39.1800 26.0897 0.1881
39.2000 26.1031 0.1920
39.2200 26.1164 0.1874
39.2400 26.1296 0.1888
39.2600 26.1430 0.1887
39.2800 26.1563 0.1864
39.3000 26.1697 0.1878
39.3200 26.1830 0.1877
39.3400 26.1964 0.1854
39.3600 26.2097 0.1854
39.3800 26.2231 0.1826
39.4000 26.2364 0.1888
39.4200 26.2498 0.1829
39.4400 26.2631 0.1839
39.4600 26.2764 0.1855
39.4800 26.2897 0.1819
39.5000 26.3030 0.1859
39.5200 26.3163 0.1874
39.5400 26.3297 0.1815
39.5600 26.3430 0.1811
39.5800 26.3563 0.1874
39.6000 26.3696 0.1801
39.6200 26.3830 0.1804
39.6400 26.3964 0.1869
39.6600 26.4097 0.1792
39.6800 26.4230 0.1846
39.7000 26.4364 0.1830
39.7200 26.4497 0.1774
39.7400 26.4631 0.1832
39.7600 26.4764 0.1782
39.7800 26.4897 0.1765
39.8000 26.5031 0.1832
39.8200 26.5164 0.1794
39.8400 26.5298 0.1733
39.8600 26.5431 0.1844
39.8800 26.5564 0.1796
39.9000 26.5697 0.1734
39.9200 26.5830 0.1846
39.9400 26.5963 0.1762
39.9600 26.6096 0.1753
39.9800 26.6229 0.1869
40.0000 26.6363 0.1687
40.0200 26.6497 0.1707
40.0400 26.6630 0.1882
40.0600 26.6764 0.1767
40.0800 26.6898 0.1705
40.1000 26.7031 0.1817
40.1200 26.7164 0.1736
40.1400 26.7297 0.1771
40.1600 26.7431 0.1822
40.1800 26.7564 0.1672
40.2000 26.7697 0.1792
40.2200 26.7830 0.1801
40.2400 26.7964 0.1631
40.2600 26.8097 0.1825
40.2800 26.8230 0.1799
40.3000 26.8364 0.1636
40.3200 26.8497 0.1825
40.3400 26.8630 0.1778
40.3600 26.8763 0.1693
40.3800 26.8897 0.1767
40.4000 26.9030 0.1748
40.4200 26.9164 0.1734
40.4400 26.9297 0.1805
40.4600 26.9431 0.1700
40.4800 26.9564 0.1741
40.5000 26.9697 0.1773
40.5200 26.9831 0.1711
40.5400 26.9964 0.1768
40.5600 27.0098 0.1726
40.5800 27.0230 0.1730
40.6000 27.0364 0.1756
40.6200 27.0497 0.1725
40.6400 27.0630 0.1722
40.6600 27.0763 0.1720
40.6800 27.0897 0.1703
40.7000 27.1030 0.1699
40.7200 27.1164 0.1743
40.7400 27.1297 0.1677
40.7600 27.1430 0.1707
40.7800 27.1564 0.1742
40.8000 27.1697 0.1678
40.8200 27.1831 0.1710
40.8400 27.1964 0.1709
40.8600 27.2097 0.1712
40.8800 27.2230 0.1689
40.9000 27.2364 0.1700
40.9200 27.2498 0.1665
40.9400 27.2631 0.1702
40.9600 27.2764 0.1707
40.9800 27.2897 0.1680
41.0000 27.3031 0.1654
41.0200 27.3164 0.1660
41.0400 27.3297 0.1706
41.0600 27.3430 0.1675
41.0800 27.3563 0.1650
41.1000 27.3697 0.1703
41.1200 27.3830 0.1628
41.1400 27.3963 0.1612
41.1600 27.4097 0.1687
41.1800 27.4231 0.1600
41.2000 27.4365 0.1624
41.2200 27.4498 0.1708
41.2400 27.4631 0.1676
41.2600 27.4764 0.1596
41.2800 27.4898 0.1688
41.3000 27.5031 0.1646
41.3200 27.5164 0.1590
41.3400 27.5297 0.1702
41.3600 27.5430 0.1606
41.3800 27.5563 0.1600
41.4000 27.5696 0.1691
41.4200 27.5830 0.1617
41.4400 27.5963 0.1608
41.4600 27.6097 0.1688
41.4800 27.6230 0.1549
41.5000 27.6364 0.1631
41.5200 27.6497 0.1681
41.5400 27.6631 0.1552
41.5600 27.6764 0.1647
41.5800 27.6898 0.1713
41.6000 27.7031 0.1533
41.6200 27.7164 0.1691
41.6400 27.7298 0.1660
41.6600 27.7430 0.1588
41.6800 27.7563 0.1657
41.7000 27.7697 0.1626
41.7200 27.7830 0.1571
41.7400 27.7963 0.1678
41.7600 27.8096 0.1666
41.7800 27.8230 0.1603
41.8000 27.8363 0.1628
41.8200 27.8497 0.1596
41.8400 27.8630 0.1594
41.8600 27.8764 0.1621
41.8800 27.8897 0.1642
41.9000 27.9031 0.1595
41.9200 27.9164 0.1606
41.9400 27.9297 0.1607
41.9600 27.9431 0.1628
41.9800 27.9564 0.1582
42.0000 27.9698 0.1653
42.0200 27.9831 0.1603
42.0400 27.9964 0.1546
42.0600 28.0097 0.1658
42.0800 28.0231 0.1590
42.1000 28.0364 0.1569
42.1200 28.0497 0.1657
42.1400 28.0630 0.1592
42.1600 28.0763 0.1508
42.1800 28.0897 0.1680
42.2000 28.1030 0.1602
42.2200 28.1164 0.1518
42.2400 28.1297 0.1634
42.2600 28.1431 0.1553
42.2800 28.1564 0.1489
42.3000 28.1698 0.1631
42.3200 28.1831 0.1523
42.3400 28.1964 0.1523
42.3600 28.2097 0.1638
42.3800 28.2230 0.1487
42.4000 28.2363 0.1553
42.4200 28.2497 0.1611
42.4400 28.2630 0.1493
42.4600 28.2764 0.1527
42.4800 28.2897 0.1594
42.5000 28.3030 0.1528
42.5200 28.3164 0.1526
42.5400 28.3297 0.1551
42.5600 28.3430 0.1507
42.5800 28.3563 0.1558
42.6000 28.3697 0.1541
42.6200 28.3831 0.1479
42.6400 28.3964 0.1536
42.6600 28.4097 0.1498
42.6800 28.4231 0.1522
42.7000 28.4364 0.1497
42.7200 28.4498 0.1498
42.7400 28.4631 0.1539
42.7600 28.4764 0.1520
42.7800 28.4897 0.1481
42.8000 28.5030 0.1548
42.8200 28.5164 0.1502
42.8400 28.5297 0.1449
42.8600 28.5430 0.1501
42.8800 28.5563 0.1471
42.9000 28.5697 0.1497
42.9200 28.5830 0.1479
42.9400 28.5963 0.1453
42.9600 28.6097 0.1479
42.9800 28.6231 0.1530
43.0000 28.6364 0.1464
43.0200 28.6497 0.1471
43.0400 28.6630 0.1463
43.0600 28.6764 0.1443
43.0800 28.6897 0.1457
43.1000 28.7031 0.1493
43.1200 28.7164 0.1437
43.1400 28.7297 0.1487
43.1600 28.7431 0.1519
43.1800 28.7564 0.1440
43.2000 28.7697 0.1443
43.2200 28.7830 0.1476
43.2400 28.7963 0.1451
43.2600 28.8096 0.1439
43.2800 28.8230 0.1413
43.3000 28.8363 0.1449
43.3200 28.8497 0.1468
43.3400 28.8631 0.1461
43.3600 28.8765 0.1401
43.3800 28.8898 0.1477
43.4000 28.9031 0.1429
43.4200 28.9165 0.1402
43.4400 28.9298 0.1475
43.4600 28.9431 0.1453
43.4800 28.9563 0.1387
43.5000 28.9696 0.1480
43.5200 28.9830 0.1400
43.5400 28.9963 0.1412
43.5600 29.0096 0.1498
43.5800 29.0230 0.1404
43.6000 29.0363 0.1384
43.6200 29.0497 0.1454
43.6400 29.0631 0.1376
43.6600 29.0764 0.1406
43.6800 29.0898 0.1502
43.7000 29.1031 0.1309
43.7200 29.1165 0.1416
43.7400 29.1298 0.1454
43.7600 29.1431 0.1367
43.7800 29.1564 0.1417
43.8000 29.1698 0.1408
43.8200 29.1831 0.1430
43.8400 29.1964 0.1444
43.8600 29.2097 0.1359
43.8800 29.2230 0.1418
43.9000 29.2364 0.1421
43.9200 29.2496 0.1390
43.9400 29.2630 0.1429
43.9600 29.2763 0.1420
43.9800 29.2897 0.1343
44.0000 29.3030 0.1402
44.0200 29.3164 0.1388
44.0400 29.3297 0.1407
44.0600 29.3431 0.1387
44.0800 29.3564 0.1409
44.1000 29.3697 0.1373
44.1200 29.3831 0.1408
44.1400 29.3964 0.1399
44.1600 29.4098 0.1365
44.1800 29.4231 0.1373
44.2000 29.4364 0.1396
44.2200 29.4497 0.1365
44.2400 29.4630 0.1350
44.2600 29.4764 0.1383
44.2800 29.4897 0.1345
44.3000 29.5030 0.1358
44.3200 29.5163 0.1375
44.3400 29.5297 0.1346
44.3600 29.5430 0.1377
44.3800 29.5563 0.1339
44.4000 29.5697 0.1332
44.4200 29.5831 0.1343
44.4400 29.5964 0.1344
44.4600 29.6098 0.1324
44.4800 29.6231 0.1356
44.5000 29.6364 0.1344
44.5200 29.6497 0.1324
44.5400 29.6631 0.1325
44.5600 29.6764 0.1347
44.5800 29.6897 0.1379
44.6000 29.7030 0.1291
44.6200 29.7164 0.1377
44.6400 29.7297 0.1326
44.6600 29.7430 0.1249
44.6800 29.7563 0.1328
44.7000 29.7697 0.1352
44.7200 29.7830 0.1265
44.7400 29.7964 0.1376
44.7600 29.8097 0.1320
44.7800 29.8231 0.1245
44.8000 29.8364 0.1381
44.8200 29.8497 0.1282
44.8400 29.8631 0.1297
44.8600 29.8764 0.1380
44.8800 29.8898 0.1259
44.9000 29.9031 0.1283
44.9200 29.9164 0.1347
44.9400 29.9297 0.1257
44.9600 29.9430 0.1260
44.9800 29.9564 0.1333
45.0000 29.9697 0.1172
45.0200 29.9830 0.1314
45.0400 29.9963 0.1301
45.0600 30.0097 0.1223
45.0800 30.0230 0.1286
45.1000 30.0364 0.1347
45.1200 30.0497 0.1245
45.1400 30.0631 0.1243
45.1600 30.0765 0.1304
45.1800 30.0898 0.1214
45.2000 30.1031 0.1345
45.2200 30.1164 0.1276
45.2400 30.1298 0.1174
45.2600 30.1431 0.1323
45.2800 30.1564 0.1255
45.3000 30.1697 0.1173
45.3200 30.1830 0.1290
45.3400 30.1964 0.1271
45.3600 30.2097 0.1189
45.3800 30.2230 0.1273
45.4000 30.2363 0.1280
45.4200 30.2496 0.1174
45.4400 30.2630 0.1326
45.4600 30.2763 0.1224
45.4800 30.2897 0.1175
45.5000 30.3031 0.1300
45.5200 30.3165 0.1217
45.5400 30.3298 0.1157
45.5600 30.3431 0.1288
45.5800 30.3564 0.1231
45.6000 30.3698 0.1137
45.6200 30.3831 0.1306
45.6400 30.3964 0.1257
45.6600 30.4097 0.1103
45.6800 30.4230 0.1303
45.7000 30.4363 0.1178
45.7200 30.4497 0.1195
45.7400 30.4630 0.1318
45.7600 30.4763 0.1200
45.7800 30.4897 0.1138
45.8000 30.5031 0.1328
45.8200 30.5164 0.1188
45.8400 30.5297 0.1191
45.8600 30.5431 0.1300
45.8800 30.5564 0.1172
45.9000 30.5697 0.1171
45.9200 30.5830 0.1261
45.9400 30.5963 0.1186
45.9600 30.6097 0.1207
45.9800 30.6231 0.1260
46.0000 30.6364 0.1190
46.0200 30.6497 0.1207
46.0400 30.6631 0.1249
46.0600 30.6764 0.1175
46.0800 30.6897 0.1171
46.1000 30.7030 0.1286
46.1200 30.7163 0.1187
46.1400 30.7297 0.1208
46.1600 30.7430 0.1210
46.1800 30.7563 0.1161
46.2000 30.7697 0.1197
46.2200 30.7830 0.1215
46.2400 30.7964 0.1115
46.2600 30.8097 0.1223
46.2800 30.8231 0.1219
46.3000 30.8364 0.1130
46.3200 30.8498 0.1226
46.3400 30.8631 0.1190
46.3600 30.8764 0.1157
46.3800 30.8897 0.1193
46.4000 30.9031 0.1201
46.4200 30.9164 0.1158
46.4400 30.9297 0.1162
46.4600 30.9430 0.1193
46.4800 30.9563 0.1151
46.5000 30.9697 0.1152
46.5200 30.9830 0.1201
46.5400 30.9963 0.1152
46.5600 31.0097 0.1161
46.5800 31.0231 0.1201
46.6000 31.0364 0.1089
46.6200 31.0498 0.1169
46.6400 31.0631 0.1206
46.6600 31.0764 0.1110
46.6800 31.0897 0.1146
46.7000 31.1031 0.1140
46.7200 31.1164 0.1140
46.7400 31.1297 0.1144
46.7600 31.1430 0.1167
46.7800 31.1564 0.1098
46.8000 31.1697 0.1127
46.8200 31.1830 0.1164
46.8400 31.1963 0.1138
46.8600 31.2097 0.1142
46.8800 31.2230 0.1071
46.9000 31.2364 0.1095
46.9200 31.2497 0.1145
46.9400 31.2630 0.1088
46.9600 31.2764 0.1090
46.9800 31.2897 0.1147
47.0000 31.3031 0.1124
47.0200 31.3164 0.1069
47.0400 31.3298 0.1169
47.0600 31.3431 0.1037
47.0800 31.3564 0.1106
47.1000 31.3697 0.1161
47.1200 31.3830 0.1058
47.1400 31.3964 0.1115
47.1600 31.4097 0.1105
47.1800 31.4230 0.1030
47.2000 31.4363 0.1107
47.2200 31.4496 0.1107
47.2400 31.4630 0.0999
47.2600 31.4763 0.1120
47.2800 31.4897 0.1126
47.3000 31.5030 0.0970
47.3200 31.5164 0.1099
47.3400 31.5297 0.1085
47.3600 31.5431 0.1008
47.3800 31.5564 0.1144
47.4000 31.5697 0.1023
47.4200 31.5831 0.1050
47.4400 31.5964 0.1165
47.4600 31.6097 0.1045
47.4800 31.6230 0.1024
47.5000 31.6364 0.1148
47.5200 31.6497 0.1016
47.5400 31.6630 0.1036
47.5600 31.6763 0.1122
47.5800 31.6897 0.1046
47.6000 31.7030 0.1046
47.6200 31.7163 0.1093
47.6400 31.7297 0.1032
47.6600 31.7431 0.1037
47.6800 31.7564 0.1060
47.7000 31.7698 0.1032
47.7200 31.7831 0.1066
47.7400 31.7964 0.1050
47.7600 31.8098 0.1039
47.7800 31.8231 0.1040
47.8000 31.8364 0.1034
47.8200 31.8497 0.1089
47.8400 31.8630 0.1031
47.8600 31.8764 0.1020
47.8800 31.8897 0.1030
47.9000 31.9030 0.1012
47.9200 31.9163 0.1017
47.9400 31.9297 0.1044
47.9600 31.9430 0.0995
47.9800 31.9563 0.1008
48.0000 31.9697 0.1074
48.0200 31.9830 0.0976
48.0400 31.9964 0.0961
48.0600 32.0097 0.1080
48.0800 32.0230 0.0960
48.1000 32.0364 0.0994
48.1200 32.0497 0.1057
48.1400 32.0631 0.0948
48.1600 32.0764 0.0969
48.1800 32.0897 0.1086
48.2000 32.1031 0.0984
48.2200 32.1164 0.0940
48.2400 32.1297 0.1095
48.2600 32.1430 0.0961
48.2800 32.1563 0.1020
48.3000 32.1696 0.1064
48.3200 32.1829 0.0942
48.3400 32.1963 0.1062
48.3600 32.2096 0.1027
48.3800 32.2230 0.0930
48.4000 32.2364 0.1009
48.4200 32.2498 0.1020
48.4400 32.2631 0.0979
48.4600 32.2764 0.0981
48.4800 32.2898 0.1015
48.5000 32.3031 0.0946
48.5200 32.3164 0.1005
48.5400 32.3297 0.1013
48.5600 32.3430 0.0979
48.5800 32.3563 0.1022
48.6000 32.3697 0.0969
48.6200 32.3830 0.0942
48.6400 32.3963 0.1004
48.6600 32.4097 0.1036
48.6800 32.4230 0.0970
48.7000 32.4363 0.0919
48.7200 32.4497 0.1041
48.7400 32.4630 0.0939
48.7600 32.4764 0.0945
48.7800 32.4898 0.0995
48.8000 32.5031 0.0908
48.8200 32.5164 0.0985
48.8400 32.5298 0.1001
48.8600 32.5431 0.0902
48.8800 32.5564 0.0990
48.9000 32.5697 0.1019
48.9200 32.5830 0.0883
48.9400 32.5964 0.0943
48.9600 32.6097 0.1010
48.9800 32.6230 0.0907
49.0000 32.6363 0.1004
49.0200 32.6497 0.0970
49.0400 32.6630 0.0924
49.0600 32.6764 0.0915
49.0800 32.6897 0.0972
49.1000 32.7030 0.0959
49.1200 32.7164 0.0888
49.1400 32.7297 0.0997
49.1600 32.7431 0.0899
49.1800 32.7564 0.0912
49.2000 32.7697 0.1025
49.2200 32.7831 0.0915
49.2400 32.7964 0.0895
49.2600 32.8097 0.0974
49.2800 32.8230 0.0931
49.3000 32.8364 0.0903
49.3200 32.8497 0.1002
49.3400 32.8630 0.0891
49.3600 32.8763 0.0911
49.3800 32.8896 0.0995
49.4000 32.9030 0.0834
49.4200 32.9164 0.0965
49.4400 32.9297 0.0999
49.4600 32.9430 0.0832
49.4800 32.9564 0.0981
49.5000 32.9698 0.0906
49.5200 32.9831 0.0837
49.5400 32.9964 0.0956
49.5600 33.0097 0.0882
49.5800 33.0231 0.0905
49.6000 33.0364 0.0909
49.6200 33.0497 0.0879
49.6400 33.0630 0.0923
49.6600 33.0763 0.0883
49.6800 33.0897 0.0853
49.7000 33.1030 0.0869
49.7200 33.1163 0.0884
49.7400 33.1297 0.0879
49.7600 33.1430 0.0886
49.7800 33.1563 0.0809
49.8000 33.1697 0.0880
49.8200 33.1830 0.0881
49.8400 33.1964 0.0796
49.8600 33.2098 0.0876
49.8800 33.2231 0.0882
49.9000 33.2364 0.0799
49.9200 33.2498 0.0870
49.9400 33.2631 0.0850
49.9600 33.2765 0.0816
49.9800 33.2898 0.0870
50.0000 33.3031 0.0869
50.0200 33.3164 0.0806
50.0400 33.3297 0.0878
50.0600 33.3430 0.0840
50.0800 33.3563 0.0842
50.1000 33.3697 0.0825
50.1200 33.3830 0.0866
50.1400 33.3964 0.0841
50.1600 33.4097 0.0834
50.1800 33.4230 0.0826
50.2000 33.4364 0.0805
50.2200 33.4497 0.0809
50.2400 33.4631 0.0822
50.2600 33.4764 0.0866
50.2800 33.4897 0.0830
50.3000 33.5031 0.0806
50.3200 33.5164 0.0843
50.3400 33.5297 0.0803
50.3600 33.5430 0.0847
50.3800 33.5564 0.0841
50.4000 33.5697 0.0802
50.4200 33.5830 0.0834
50.4400 33.5963 0.0845
50.4600 33.6096 0.0792
50.4800 33.6230 0.0830
50.5000 33.6363 0.0828
50.5200 33.6496 0.0779
50.5400 33.6630 0.0890
50.5600 33.6764 0.0782
50.5800 33.6898 0.0794
50.6000 33.7031 0.0827
50.6200 33.7164 0.0778
50.6400 33.7298 0.0786
50.6600 33.7431 0.0852
50.6800 33.7564 0.0770
50.7000 33.7697 0.0777
50.7200 33.7830 0.0860
50.7400 33.7963 0.0783
50.7600 33.8097 0.0744
50.7800 33.8230 0.0852
50.8000 33.8363 0.0825
50.8200 33.8497 0.0757
50.8400 33.8630 0.0823
50.8600 33.8764 0.0775
50.8800 33.8897 0.0784
50.9000 33.9030 0.0831
50.9200 33.9164 0.0773
50.9400 33.9298 0.0772
50.9600 33.9431 0.0788
50.9800 33.9564 0.0766
51.0000 33.9697 0.0757
51.0200 33.9830 0.0869
51.0400 33.9964 0.0702
51.0600 34.0097 0.0780
51.0800 34.0230 0.0848
51.1000 34.0364 0.0712
51.1200 34.0497 0.0789
51.1400 34.0630 0.0791
51.1600 34.0763 0.0731
51.1800 34.0896 0.0804
51.2000 34.1030 0.0740
51.2200 34.1164 0.0709
51.2400 34.1297 0.0830
51.2600 34.1430 0.0713
51.2800 34.1564 0.0699
51.3000 34.1698 0.0816
51.3200 34.1831 0.0695
51.3400 34.1964 0.0775
51.3600 34.2097 0.0737
51.3800 34.2231 0.0707
51.4000 34.2364 0.0788
51.4200 34.2497 0.0673
51.4400 34.2630 0.0760
51.4600 34.2764 0.0804
51.4800 34.2897 0.0672
51.5000 34.3030 0.0785
51.5200 34.3163 0.0813
51.5400 34.3296 0.0653
51.5600 34.3430 0.0828
51.5800 34.3563 0.0768
51.6000 34.3697 0.0652
51.6200 34.3830 0.0807
51.6400 34.3964 0.0732
51.6600 34.4098 0.0668
51.6800 34.4231 0.0830
51.7000 34.4364 0.0723
51.7200 34.4498 0.0697
51.7400 34.4631 0.0771
51.7600 34.4764 0.0688
51.7800 34.4897 0.0726
51.8000 34.5030 0.0805
51.8200 34.5163 0.0691
51.8400 34.5297 0.0714
51.8600 34.5430 0.0764
51.8800 34.5564 0.0673
51.9000 34.5697 0.0738
51.9200 34.5830 0.0711
51.9400 34.5963 0.0707
51.9600 34.6097 0.0707
51.9800 34.6230 0.0707
52.0000 34.6363 0.0699
52.0200 34.6497 0.0691
52.0400 34.6630 0.0696
52.0600 34.6764 0.0673
52.0800 34.6897 0.0714
52.1000 34.7031 0.0698
52.1200 34.7164 0.0673
52.1400 34.7297 0.0677
52.1600 34.7430 0.0725
52.1800 34.7564 0.0692
52.2000 34.7697 0.0681
52.2200 34.7830 0.0652
52.2400 34.7963 0.0724
52.2600 34.8096 0.0697
52.2800 34.8230 0.0613
52.3000 34.8363 0.0689
52.3200 34.8497 0.0705
52.3400 34.8630 0.0677
52.3600 34.8764 0.0699
52.3800 34.8898 0.0689
52.4000 34.9031 0.0578
52.4200 34.9164 0.0730
52.4400 34.9297 0.0691
52.4600 34.9431 0.0596
52.4800 34.9564 0.0742
52.5000 34.9697 0.0623
52.5200 34.9830 0.0675
52.5400 34.9964 0.0756
52.5600 35.0097 0.0631
52.5800 35.0230 0.0675
52.6000 35.0363 0.0728
52.6200 35.0496 0.0624
52.6400 35.0630 0.0643
52.6600 35.0763 0.0717
52.6800 35.0897 0.0579
52.7000 35.1030 0.0712
52.7200 35.1164 0.0672
52.7400 35.1297 0.0560
52.7600 35.1431 0.0772
52.7800 35.1564 0.0663
52.8000 35.1697 0.0544
52.8200 35.1831 0.0702
52.8400 35.1964 0.0632
52.8600 35.2097 0.0556
52.8800 35.2230 0.0718
52.9000 35.2363 0.0604
52.9200 35.2496 0.0576
52.9400 35.2630 0.0697
52.9600 35.2763 0.0615
52.9800 35.2897 0.0575
53.0000 35.3030 0.0684
53.0200 35.3164 0.0569
53.0400 35.3297 0.0584
53.0600 35.3431 0.0684
53.0800 35.3564 0.0602
53.1000 35.3698 0.0573
53.1200 35.3831 0.0632
53.1400 35.3964 0.0594
53.1600 35.4097 0.0598
53.1800 35.4230 0.0612
53.2000 35.4364 0.0561
53.2200 35.4497 0.0637
53.2400 35.4630 0.0636
53.2600 35.4764 0.0588
53.2800 35.4897 0.0629
53.3000 35.5031 0.0616
53.3200 35.5164 0.0618
53.3400 35.5297 0.0574
53.3600 35.5430 0.0622
53.3800 35.5563 0.0616
53.4000 35.5697 0.0615
53.4200 35.5830 0.0645
53.4400 35.5963 0.0576
53.4600 35.6097 0.0609
53.4800 35.6231 0.0623
53.5000 35.6364 0.0589
53.5200 35.6497 0.0598
53.5400 35.6631 0.0644
53.5600 35.6764 0.0601
53.5800 35.6897 0.0526
53.6000 35.7031 0.0648
53.6200 35.7164 0.0577
53.6400 35.7297 0.0606
53.6600 35.7431 0.0609
53.6800 35.7564 0.0568
53.7000 35.7697 0.0614
53.7200 35.7830 0.0538
53.7400 35.7963 0.0589
53.7600 35.8097 0.0556
53.7800 35.8230 0.0487
53.8000 35.8364 0.0597
53.8200 35.8497 0.0600
53.8400 35.8631 0.0499
53.8600 35.8764 0.0604
53.8800 35.8897 0.0605
53.9000 35.9031 0.0536
53.9200 35.9164 0.0588
53.9400 35.9297 0.0532
53.9600 35.9430 0.0513
53.9800 35.9563 0.0605
54.0000 35.9697 0.0552
54.0200 35.9830 0.0493
54.0400 35.9963 0.0586
54.0600 36.0096 0.0548
54.0800 36.0230 0.0531
54.1000 36.0364 0.0576
54.1200 36.0497 0.0478
54.1400 36.0630 0.0542
54.1600 36.0764 0.0544
54.1800 36.0897 0.0506
54.2000 36.1031 0.0492
54.2200 36.1164 0.0518
54.2400 36.1297 0.0554
54.2600 36.1431 0.0507
54.2800 36.1564 0.0525
54.3000 36.1698 0.0585
54.3200 36.1831 0.0437
54.3400 36.1964 0.0510
54.3600 36.2097 0.0616
54.3800 36.2231 0.0453
54.4000 36.2364 0.0505
54.4200 36.2497 0.0586
54.4400 36.2630 0.0454
54.4600 36.2763 0.0549
54.4800 36.2897 0.0529
54.5000 36.3030 0.0443
54.5200 36.3164 0.0582
54.5400 36.3298 0.0483
54.5600 36.3431 0.0428
54.5800 36.3564 0.0550
54.6000 36.3697 0.0467
54.6200 36.3831 0.0412
54.6400 36.3964 0.0548
54.6600 36.4097 0.0459
54.6800 36.4230 0.0473
54.7000 36.4363 0.0520
54.7200 36.4497 0.0476
54.7400 36.4630 0.0450
54.7600 36.4764 0.0506
54.7800 36.4897 0.0478
54.8000 36.5030 0.0456
54.8200 36.5164 0.0496
54.8400 36.5297 0.0456
54.8600 36.5430 0.0417
54.8800 36.5564 0.0528
54.9000 36.5697 0.0502
54.9200 36.5831 0.0417
54.9400 36.5964 0.0502
54.9600 36.6097 0.0441
54.9800 36.6231 0.0418
55.0000 36.6364 0.0556
55.0200 36.6498 0.0466
55.0400 36.6630 0.0439
55.0600 36.6763 0.0483
55.0800 36.6896 0.0447
55.1000 36.7030 0.0481
55.1200 36.7163 0.0486
55.1400 36.7296 0.0412
55.1600 36.7430 0.0513
55.1800 36.7563 0.0458
55.2000 36.7697 0.0374
55.2200 36.7830 0.0510
55.2400 36.7964 0.0403
55.2600 36.8097 0.0457
55.2800 36.8230 0.0476
55.3000 36.8364 0.0367
55.3200 36.8497 0.0476
55.3400 36.8630 0.0406
55.3600 36.8764 0.0388
55.3800 36.8898 0.0463
55.4000 36.9031 0.0454
55.4200 36.9164 0.0368
55.4400 36.9298 0.0479
55.4600 36.9431 0.0449
55.4800 36.9564 0.0331
55.5000 36.9697 0.0528
55.5200 36.9830 0.0355
55.5400 36.9963 0.0374
55.5600 37.0096 0.0498
55.5800 37.0230 0.0318
55.6000 37.0363 0.0414
55.6200 37.0497 0.0520
55.6400 37.0631 0.0335
55.6600 37.0765 0.0415
55.6800 37.0898 0.0497
55.7000 37.1031 0.0359
55.7200 37.1165 0.0382
55.7400 37.1298 0.0498
55.7600 37.1431 0.0295
55.7800 37.1564 0.0396
55.8000 37.1697 0.0533
55.8200 37.1830 0.0311
55.8400 37.1964 0.0370
55.8600 37.2096 0.0486
55.8800 37.2230 0.0326
55.9000 37.2363 0.0430
55.9200 37.2497 0.0461
55.9400 37.2630 0.0277
55.9600 37.2763 0.0444
55.9800 37.2897 0.0420
56.0000 37.3031 0.0324
56.0200 37.3164 0.0429
56.0400 37.3298 0.0388
56.0600 37.3431 0.0334
56.0800 37.3564 0.0402
56.1000 37.3698 0.0382
56.1200 37.3831 0.0362
56.1400 37.3964 0.0382
56.1600 37.4097 0.0405
56.1800 37.4230 0.0308
56.2000 37.4364 0.0360
56.2200 37.4497 0.0415
56.2400 37.4630 0.0345
56.2600 37.4763 0.0319
56.2800 37.4897 0.0404
56.3000 37.5030 0.0319
56.3200 37.5163 0.0338
56.3400 37.5297 0.0417
56.3600 37.5431 0.0276
56.3800 37.5564 0.0337
56.4000 37.5697 0.0412
56.4200 37.5830 0.0291
56.4400 37.5964 0.0368
56.4600 37.6097 0.0379
56.4800 37.6231 0.0272
56.5000 37.6364 0.0388
56.5200 37.6497 0.0359
56.5400 37.6631 0.0317
56.5600 37.6764 0.0395
56.5800 37.6897 0.0325
56.6000 37.7030 0.0323
56.6200 37.7163 0.0323
56.6400 37.7297 0.0325
56.6600 37.7430 0.0318
56.6800 37.7564 0.0335
56.7000 37.7697 0.0312
56.7200 37.7831 0.0287
56.7400 37.7964 0.0333
56.7600 37.8098 0.0330
56.7800 37.8231 0.0286
56.8000 37.8364 0.0306
56.8200 37.8498 0.0346
56.8400 37.8631 0.0247
56.8600 37.8764 0.0331
56.8800 37.8897 0.0375
56.9000 37.9030 0.0276
56.9200 37.9164 0.0273
56.9400 37.9297 0.0348
56.9600 37.9430 0.0287
56.9800 37.9563 0.0284
57.0000 37.9697 0.0347
57.0200 37.9830 0.0247
57.0400 37.9963 0.0295
57.0600 38.0097 0.0342
57.0800 38.0231 0.0245
57.1000 38.0364 0.0285
57.1200 38.0498 0.0311
57.1400 38.0631 0.0282
57.1600 38.0764 0.0260
57.1800 38.0898 0.0329
57.2000 38.1031 0.0286
57.2200 38.1164 0.0276
57.2400 38.1297 0.0311
57.2600 38.1430 0.0281
57.2800 38.1563 0.0250
57.3000 38.1697 0.0339
57.3200 38.1830 0.0241
57.3400 38.1963 0.0237
57.3600 38.2097 0.0302
57.3800 38.2230 0.0264
57.4000 38.2364 0.0208
57.4200 38.2497 0.0302
57.4400 38.2631 0.0271
57.4600 38.2764 0.0200
57.4800 38.2897 0.0320
57.5000 38.3030 0.0272
57.5200 38.3164 0.0256
57.5400 38.3298 0.0253
57.5600 38.3431 0.0226
57.5800 38.3564 0.0268
57.6000 38.3697 0.0235
57.6200 38.3830 0.0250
57.6400 38.3964 0.0241
57.6600 38.4096 0.0226
57.6800 38.4229 0.0246
57.7000 38.4363 0.0247
57.7200 38.4496 0.0235
57.7400 38.4630 0.0256
57.7600 38.4763 0.0259
57.7800 38.4897 0.0200
57.8000 38.5031 0.0244
57.8200 38.5165 0.0226
57.8400 38.5298 0.0162
57.8600 38.5431 0.0266
57.8800 38.5565 0.0248
57.9000 38.5698 0.0162
57.9200 38.5831 0.0210
57.9400 38.5963 0.0202
57.9600 38.6096 0.0218
57.9800 38.6230 0.0237
58.0000 38.6363 0.0178
58.0200 38.6497 0.0200
58.0400 38.6630 0.0247
58.0600 38.6763 0.0172
58.0800 38.6897 0.0155
58.1000 38.7031 0.0251
58.1200 38.7164 0.0179
58.1400 38.7297 0.0151
58.1600 38.7431 0.0236
58.1800 38.7565 0.0150
58.2000 38.7698 0.0185
58.2200 38.7831 0.0257
58.2400 38.7964 0.0135
58.2600 38.8097 0.0165
58.2800 38.8231 0.0269
58.3000 38.8364 0.0178
58.3200 38.8497 0.0187
58.3400 38.8630 0.0204
58.3600 38.8764 0.0107
58.3800 38.8897 0.0145
58.4000 38.9030 0.0205
58.4200 38.9163 0.0173
58.4400 38.9297 0.0129
58.4600 38.9430 0.0197
58.4800 38.9564 0.0170
58.5000 38.9697 0.0147
58.5200 38.9831 0.0172
58.5400 38.9964 0.0132
58.5600 39.0097 0.0097
58.5800 39.0231 0.0155
58.6000 39.0364 0.0145
58.6200 39.0498 0.0122
58.6400 39.0631 0.0112
58.6600 39.0764 0.0163
58.6800 39.0897 0.0090
58.7000 39.1030 0.0110
58.7200 39.1164 0.0160
58.7400 39.1297 0.0069
58.7600 39.1430 0.0083
58.7800 39.1563 0.0155
58.8000 39.1697 0.0029
58.8200 39.1830 0.0104
58.8400 39.1963 0.0162
58.8600 39.2097 0.0032
58.8800 39.2231 0.0097
58.9000 39.2364 0.0149
58.9200 39.2498 -0.0028
58.9400 39.2631 0.0129
58.9600 39.2764 0.0157
58.9800 39.2897 -0.0025
59.0000 39.3031 0.0114
59.0200 39.3163 0.0121
59.0400 39.3297 -0.0009
59.0600 39.3430 0.0141
59.0800 39.3564 0.0070
59.1000 39.3697 -0.0009
59.1200 39.3830 0.0125
59.1400 39.3963 0.0075
59.1600 39.4097 -0.0004
59.1800 39.4230 0.0117
59.2000 39.4363 0.0058
59.2200 39.4497 -0.0017
59.2400 39.4630 0.0088
59.2600 39.4764 0.0051
59.2800 39.4897 0.0002
59.3000 39.5031 0.0097
59.3200 39.5164 0.0033
59.3400 39.5298 -0.0018
59.3600 39.5431 0.0088
59.3800 39.5564 0.0037
59.4000 39.5697 0.0030
59.4200 39.5830 0.0074
59.4400 39.5964 0.0061
59.4600 39.6097 -0.0042
59.4800 39.6230 0.0057
59.5000 39.6363 0.0106
59.5200 39.6497 0.0006
59.5400 39.6630 0.0023
59.5600 39.6763 0.0096
59.5800 39.6897 -0.0019
59.6000 39.7031 -0.0022
59.6200 39.7165 0.0127
59.6400 39.7298 -0.0091
59.6600 39.7431 -0.0007
59.6800 39.7564 0.0134
59.7000 39.7698 -0.0121
59.7200 39.7831 0.0010
59.7400 39.7964 0.0095
59.7600 39.8097 -0.0137
59.7800 39.8230 -0.0013
59.8000 39.8364 0.0119
59.8200 39.8497 -0.0173
59.8400 39.8630 -0.0009
59.8600 39.8763 0.0084
59.8800 39.8897 -0.0178
59.9000 39.9030 0.0044
59.9200 39.9163 0.0042
59.9400 39.9297 -0.0188
59.9600 39.9431 -0.0007
59.9800 39.9564 0.0027
60.0000 39.9698 -0.0198
60.0200 39.9831 0.0000
60.0400 39.9964 -0.0053
60.0460 40.0003 -0.0260
