Raw Data
Time Displacement Force
(s) (mm) (N)
0.0000 0.0000 -0.1742
0.0200 0.0001 -0.1552
0.0400 0.0022 -0.0857
0.0600 0.0101 -0.1004
0.0800 0.0221 -0.1796
0.1000 0.0346 -0.1688
0.1200 0.0473 -0.1379
0.1400 0.0607 -0.1733
0.1600 0.0748 -0.1621
0.1800 0.0889 -0.1560
0.2000 0.1028 -0.1808
0.2200 0.1164 -0.1614
0.2400 0.1297 -0.1566
0.2600 0.1430 -0.1772
0.2800 0.1564 -0.1519
0.3000 0.1698 -0.1587
0.3200 0.1831 -0.1775
0.3400 0.1965 -0.1478
0.3600 0.2098 -0.1627
0.3800 0.2232 -0.1698
0.4000 0.2365 -0.1558
0.4200 0.2498 -0.1660
0.4400 0.2631 -0.1714
0.4600 0.2764 -0.1581
0.4800 0.2898 -0.1706
0.5000 0.3031 -0.1729
0.5200 0.3164 -0.1594
0.5400 0.3297 -0.1682
0.5600 0.3431 -0.1734
0.5800 0.3564 -0.1598
0.6000 0.3698 -0.1722
0.6200 0.3832 -0.1778
0.6400 0.3965 -0.1615
0.6600 0.4099 -0.1763
0.6800 0.4232 -0.1784
0.7000 0.4366 -0.1671
0.7200 0.4499 -0.1809
0.7400 0.4632 -0.1776
0.7600 0.4766 -0.1673
0.7800 0.4899 -0.1843
0.8000 0.5032 -0.1795
0.8200 0.5165 -0.1695
0.8400 0.5298 -0.1874
0.8600 0.5432 -0.1808
0.8800 0.5564 -0.1768
0.9000 0.5697 -0.1863
0.9200 0.5831 -0.1798
0.9400 0.5964 -0.1772
0.9600 0.6098 -0.1920
0.9800 0.6231 -0.1800
1.0000 0.6364 -0.1789
1.0200 0.6498 -0.1873
1.0400 0.6632 -0.1887
1.0600 0.6765 -0.1828
1.0800 0.6898 -0.1875
1.1000 0.7032 -0.1893
1.1200 0.7165 -0.1826
1.1400 0.7298 -0.1906
1.1600 0.7431 -0.1869
1.1800 0.7565 -0.1828
1.2000 0.7698 -0.1954
1.2200 0.7832 -0.1909
1.2400 0.7965 -0.1890
1.2600 0.8098 -0.1948
1.2800 0.8231 -0.1912
1.3000 0.8365 -0.1944
1.3200 0.8498 -0.1998
1.3400 0.8631 -0.1955
1.3600 0.8765 -0.1948
1.3800 0.8898 -0.1998
1.4000 0.9032 -0.1989
1.4200 0.9165 -0.2041
1.4400 0.9298 -0.2004
1.4600 0.9432 -0.2039
1.4800 0.9565 -0.2034
1.5000 0.9699 -0.2037
1.5200 0.9832 -0.2051
1.5400 0.9965 -0.2035
1.5600 1.0098 -0.2091
1.5800 1.0231 -0.2108
1.6000 1.0364 -0.2082
1.6200 1.0497 -0.2111
1.6400 1.0631 -0.2139
1.6600 1.0764 -0.2119
1.6800 1.0898 -0.2143
1.7000 1.1031 -0.2191
1.7200 1.1165 -0.2101
1.7400 1.1299 -0.2148
1.7600 1.1432 -0.2207
1.7800 1.1566 -0.2190
1.8000 1.1699 -0.2163
1.8200 1.1832 -0.2200
1.8400 1.1965 -0.2234
1.8600 1.2099 -0.2183
1.8800 1.2232 -0.2229
1.9000 1.2365 -0.2241
1.9200 1.2498 -0.2182
1.9400 1.2632 -0.2287
1.9600 1.2765 -0.2282
1.9800 1.2898 -0.2158
2.0000 1.3031 -0.2287
2.0200 1.3164 -0.2341
2.0400 1.3298 -0.2121
2.0600 1.3431 -0.2267
2.0800 1.3565 -0.2399
2.1000 1.3698 -0.2176
2.1200 1.3832 -0.2285
2.1400 1.3966 -0.2379
2.1600 1.4099 -0.2177
2.1800 1.4232 -0.2310
2.2000 1.4365 -0.2422
2.2200 1.4499 -0.2212
2.2400 1.4631 -0.2241
2.2600 1.4764 -0.2409
2.2800 1.4898 -0.2368
2.3000 1.5031 -0.2180
2.3200 1.5164 -0.2356
2.3400 1.5297 -0.2378
2.3600 1.5431 -0.2171
2.3800 1.5565 -0.2427
2.4000 1.5699 -0.2441
2.4200 1.5832 -0.2268
2.4400 1.5965 -0.2414
2.4600 1.6098 -0.2454
2.4800 1.6232 -0.2262
2.5000 1.6365 -0.2380
2.5200 1.6498 -0.2480
2.5400 1.6631 -0.2266
2.5600 1.6765 -0.2384
2.5800 1.6899 -0.2511
2.6000 1.7032 -0.2284
2.6200 1.7165 -0.2369
2.6400 1.7299 -0.2462
2.6600 1.7432 -0.2356
2.6800 1.7565 -0.2461
2.7000 1.7698 -0.2470
2.7200 1.7831 -0.2369
2.7400 1.7965 -0.2524
2.7600 1.8098 -0.2411
2.7800 1.8231 -0.2396
2.8000 1.8364 -0.2551
2.8200 1.8498 -0.2405
2.8400 1.8632 -0.2439
2.8600 1.8765 -0.2569
2.8800 1.8898 -0.2380
2.9000 1.9032 -0.2451
2.9200 1.9165 -0.2564
2.9400 1.9299 -0.2428
2.9600 1.9432 -0.2541
2.9800 1.9565 -0.2585
3.0000 1.9698 -0.2389
3.0200 1.9832 -0.2571
3.0400 1.9965 -0.2636
3.0600 2.0098 -0.2412
3.0800 2.0231 -0.2554
3.1000 2.0364 -0.2593
3.1200 2.0498 -0.2481
3.1400 2.0631 -0.2622
3.1600 2.0765 -0.2592
3.1800 2.0898 -0.2490
3.2000 2.1032 -0.2596
3.2200 2.1166 -0.2654
3.2400 2.1299 -0.2508
3.2600 2.1432 -0.2555
3.2800 2.1566 -0.2706
3.3000 2.1699 -0.2509
3.3200 2.1832 -0.2591
3.3400 2.1965 -0.2692
3.3600 2.2098 -0.2572
3.3800 2.2232 -0.2626
3.4000 2.2365 -0.2706
3.4200 2.2498 -0.2615
3.4400 2.2631 -0.2632
3.4600 2.2765 -0.2719
3.4800 2.2898 -0.2620
3.5000 2.3032 -0.2687
3.5200 2.3165 -0.2749
3.5400 2.3298 -0.2600
3.5600 2.3432 -0.2702
3.5800 2.3565 -0.2741
3.6000 2.3699 -0.2563
3.6200 2.3832 -0.2759
3.6400 2.3965 -0.2740
3.6600 2.4099 -0.2651
3.6800 2.4232 -0.2724
3.7000 2.4365 -0.2745
3.7200 2.4498 -0.2694
3.7400 2.4632 -0.2757
3.7600 2.4765 -0.2740
3.7800 2.4898 -0.2710
3.8000 2.5031 -0.2735
3.8200 2.5164 -0.2712
3.8400 2.5298 -0.2803
3.8600 2.5431 -0.2748
3.8800 2.5564 -0.2723
3.9000 2.5698 -0.2785
3.9200 2.5832 -0.2669
3.9400 2.5966 -0.2768
3.9600 2.6099 -0.2825
3.9800 2.6232 -0.2639
4.0000 2.6365 -0.2763
4.0200 2.6499 -0.2806
4.0400 2.6632 -0.2669
4.0600 2.6765 -0.2842
4.0800 2.6898 -0.2826
4.1000 2.7032 -0.2709
4.1200 2.7165 -0.2875
4.1400 2.7298 -0.2837
4.1600 2.7431 -0.2694
4.1800 2.7564 -0.2925
4.2000 2.7698 -0.2816
4.2200 2.7831 -0.2719
4.2400 2.7964 -0.2926
4.2600 2.8098 -0.2810
4.2800 2.8232 -0.2780
4.3000 2.8365 -0.2930
4.3200 2.8499 -0.2829
4.3400 2.8632 -0.2842
4.3600 2.8765 -0.2954
4.3800 2.8899 -0.2862
4.4000 2.9032 -0.2815
4.4200 2.9165 -0.3002
4.4400 2.9298 -0.2801
4.4600 2.9431 -0.2841
4.4800 2.9565 -0.3019
4.5000 2.9698 -0.2815
4.5200 2.9831 -0.2859
4.5400 2.9965 -0.3046
4.5600 3.0098 -0.2849
4.5800 3.0231 -0.2877
4.6000 3.0365 -0.2982
4.6200 3.0498 -0.2834
4.6400 3.0631 -0.2938
4.6600 3.0765 -0.3002
4.6800 3.0898 -0.2896
4.7000 3.1031 -0.2951
4.7200 3.1165 -0.2992
4.7400 3.1299 -0.2903
4.7600 3.1432 -0.2970
4.7800 3.1565 -0.2985
4.8000 3.1699 -0.2907
4.8200 3.1832 -0.2953
4.8400 3.1965 -0.3015
4.8600 3.2098 -0.2945
4.8800 3.2231 -0.2966
4.9000 3.2364 -0.3043
4.9200 3.2498 -0.2924
4.9400 3.2631 -0.2942
4.9600 3.2764 -0.3104
4.9800 3.2898 -0.2989
5.0000 3.3032 -0.2970
5.0200 3.3166 -0.3103
5.0400 3.3299 -0.3019
5.0600 3.3432 -0.2935
5.0800 3.3566 -0.3142
5.1000 3.3699 -0.3039
5.1200 3.3832 -0.2975
5.1400 3.3965 -0.3161
5.1600 3.4098 -0.3009
5.1800 3.4231 -0.2966
5.2000 3.4365 -0.3145
5.2200 3.4498 -0.3009
5.2400 3.4631 -0.3027
5.2600 3.4764 -0.3137
5.2800 3.4898 -0.3046
5.3000 3.5031 -0.3026
5.3200 3.5164 -0.3128
5.3400 3.5298 -0.3060
5.3600 3.5432 -0.3083
5.3800 3.5566 -0.3166
5.4000 3.5699 -0.3062
5.4200 3.5832 -0.3110
5.4400 3.5965 -0.3102
5.4600 3.6099 -0.3064
5.4800 3.6232 -0.3083
5.5000 3.6365 -0.3071
5.5200 3.6498 -0.3094
5.5400 3.6631 -0.3140
5.5600 3.6765 -0.3123
5.5800 3.6898 -0.3145
5.6000 3.7031 -0.3102
5.6200 3.7164 -0.3098
5.6400 3.7298 -0.3207
5.6600 3.7431 -0.3080
5.6800 3.7565 -0.3136
5.7000 3.7698 -0.3205
5.7200 3.7832 -0.3075
5.7400 3.7965 -0.3172
5.7600 3.8099 -0.3222
5.7800 3.8232 -0.3022
5.8000 3.8365 -0.3136
5.8200 3.8499 -0.3289
5.8400 3.8632 -0.3057
5.8600 3.8765 -0.3136
5.8800 3.8898 -0.3296
5.9000 3.9032 -0.3026
5.9200 3.9165 -0.3138
5.9400 3.9298 -0.3344
5.9600 3.9431 -0.3072
5.9800 3.9564 -0.3148
6.0000 3.9698 -0.3326
6.0200 3.9831 -0.3091
6.0400 3.9965 -0.3198
6.0600 4.0098 -0.3226
6.0800 4.0232 -0.3107
6.1000 4.0366 -0.3281
6.1200 4.0499 -0.3183
6.1400 4.0632 -0.3167
6.1600 4.0765 -0.3266
6.1800 4.0899 -0.3170
6.2000 4.1032 -0.3228
6.2200 4.1165 -0.3275
6.2400 4.1298 -0.3172
6.2600 4.1431 -0.3238
6.2800 4.1565 -0.3268
6.3000 4.1698 -0.3215
6.3200 4.1831 -0.3274
6.3400 4.1965 -0.3210
6.3600 4.2098 -0.3222
6.3800 4.2231 -0.3287
6.4000 4.2364 -0.3235
6.4200 4.2498 -0.3299
6.4400 4.2631 -0.3293
6.4600 4.2765 -0.3246
6.4800 4.2899 -0.3369
6.5000 4.3032 -0.3297
6.5200 4.3165 -0.3237
6.5400 4.3299 -0.3376
6.5600 4.3432 -0.3329
6.5800 4.3565 -0.3239
6.6000 4.3698 -0.3403
6.6200 4.3831 -0.3275
6.6400 4.3965 -0.3294
6.6600 4.4098 -0.3393
6.6800 4.4231 -0.3302
6.7000 4.4364 -0.3331
6.7200 4.4498 -0.3369
6.7400 4.4631 -0.3276
6.7600 4.4764 -0.3346
6.7800 4.4898 -0.3321
6.8000 4.5032 -0.3312
6.8200 4.5165 -0.3375
6.8400 4.5299 -0.3347
6.8600 4.5432 -0.3383
6.8800 4.5565 -0.3351
6.9000 4.5698 -0.3339
6.9200 4.5832 -0.3368
6.9400 4.5965 -0.3394
6.9600 4.6098 -0.3327
6.9800 4.6231 -0.3358
7.0000 4.6365 -0.3385
7.0200 4.6498 -0.3335
7.0400 4.6631 -0.3375
7.0600 4.6764 -0.3354
7.0800 4.6897 -0.3371
7.1000 4.7031 -0.3383
7.1200 4.7164 -0.3372
7.1400 4.7298 -0.3345
7.1600 4.7432 -0.3393
7.1800 4.7566 -0.3380
7.2000 4.7699 -0.3319
7.2200 4.7833 -0.3468
7.2400 4.7966 -0.3434
7.2600 4.8099 -0.3321
7.2800 4.8232 -0.3500
7.3000 4.8365 -0.3444
7.3200 4.8498 -0.3290
7.3400 4.8631 -0.3521
7.3600 4.8764 -0.3410
7.3800 4.8898 -0.3314
7.4000 4.9031 -0.3550
7.4200 4.9165 -0.3399
7.4400 4.9298 -0.3380
7.4600 4.9432 -0.3586
7.4800 4.9565 -0.3397
7.5000 4.9698 -0.3389
7.5200 4.9832 -0.3554
7.5400 4.9966 -0.3383
7.5600 5.0099 -0.3449
7.5800 5.0232 -0.3586
7.6000 5.0365 -0.3425
7.6200 5.0499 -0.3412
7.6400 5.0632 -0.3604
7.6600 5.0765 -0.3443
7.6800 5.0898 -0.3407
7.7000 5.1031 -0.3587
7.7200 5.1165 -0.3452
7.7400 5.1298 -0.3450
7.7600 5.1431 -0.3576
7.7800 5.1564 -0.3438
7.8000 5.1698 -0.3472
7.8200 5.1831 -0.3558
7.8400 5.1965 -0.3480
7.8600 5.2098 -0.3462
7.8800 5.2232 -0.3581
7.9000 5.2365 -0.3526
7.9200 5.2499 -0.3433
7.9400 5.2632 -0.3586
7.9600 5.2765 -0.3537
7.9800 5.2899 -0.3459
8.0000 5.3032 -0.3587
8.0200 5.3165 -0.3509
8.0400 5.3298 -0.3449
8.0600 5.3431 -0.3589
8.0800 5.3565 -0.3556
8.1000 5.3698 -0.3412
8.1200 5.3831 -0.3577
8.1400 5.3964 -0.3551
8.1600 5.4098 -0.3412
8.1800 5.4231 -0.3620
8.2000 5.4365 -0.3559
8.2200 5.4498 -0.3421
8.2400 5.4631 -0.3616
8.2600 5.4765 -0.3561
8.2800 5.4899 -0.3447
8.3000 5.5032 -0.3625
8.3200 5.5165 -0.3533
8.3400 5.5298 -0.3455
8.3600 5.5432 -0.3645
8.3800 5.5565 -0.3525
8.4000 5.5698 -0.3429
8.4200 5.5831 -0.3675
8.4400 5.5965 -0.3533
8.4600 5.6098 -0.3450
8.4800 5.6231 -0.3706
8.5000 5.6364 -0.3551
8.5200 5.6498 -0.3487
8.5400 5.6631 -0.3667
8.5600 5.6765 -0.3488
8.5800 5.6898 -0.3530
8.6000 5.7032 -0.3697
8.6200 5.7165 -0.3522
8.6400 5.7299 -0.3552
8.6600 5.7432 -0.3722
8.6800 5.7565 -0.3508
8.7000 5.7699 -0.3574
8.7200 5.7832 -0.3695
8.7400 5.7966 -0.3550
8.7600 5.8099 -0.3546
8.7800 5.8232 -0.3666
8.8000 5.8365 -0.3602
8.8200 5.8498 -0.3538
8.8400 5.8631 -0.3652
8.8600 5.8764 -0.3607
8.8800 5.8898 -0.3518
8.9000 5.9031 -0.3720
8.9200 5.9165 -0.3648
8.9400 5.9298 -0.3572
8.9600 5.9432 -0.3702
8.9800 5.9566 -0.3652
9.0000 5.9699 -0.3599
9.0200 5.9832 -0.3751
9.0400 5.9965 -0.3621
9.0600 6.0099 -0.3578
9.0800 6.0232 -0.3754
9.1000 6.0365 -0.3689
9.1200 6.0498 -0.3593
9.1400 6.0631 -0.3773
9.1600 6.0765 -0.3654
9.1800 6.0898 -0.3633
9.2000 6.1031 -0.3786
9.2200 6.1164 -0.3703
9.2400 6.1298 -0.3654
9.2600 6.1431 -0.3771
9.2800 6.1565 -0.3682
9.3000 6.1698 -0.3633
9.3200 6.1831 -0.3775
9.3400 6.1965 -0.3647
9.3600 6.2099 -0.3720
9.3800 6.2232 -0.3739
9.4000 6.2365 -0.3652
9.4200 6.2499 -0.3707
9.4400 6.2632 -0.3788
9.4600 6.2765 -0.3706
9.4800 6.2898 -0.3663
9.5000 6.3031 -0.3771
9.5200 6.3164 -0.3673
9.5400 6.3298 -0.3716
9.5600 6.3431 -0.3821
9.5800 6.3564 -0.3656
9.6000 6.3698 -0.3732
9.6200 6.3832 -0.3799
9.6400 6.3965 -0.3722
9.6600 6.4099 -0.3726
9.6800 6.4232 -0.3803
9.7000 6.4365 -0.3653
9.7200 6.4499 -0.3771
9.7400 6.4632 -0.3873
9.7600 6.4765 -0.3670
9.7800 6.4898 -0.3799
9.8000 6.5032 -0.3846
9.8200 6.5165 -0.3688
9.8400 6.5299 -0.3774
9.8600 6.5432 -0.3854
9.8800 6.5565 -0.3718
9.9000 6.5699 -0.3818
9.9200 6.5832 -0.3831
9.9400 6.5965 -0.3710
9.9600 6.6098 -0.3855
9.9800 6.6231 -0.3840
10.0000 6.6365 -0.3730
10.0200 6.6498 -0.3852
10.0400 6.6631 -0.3767
10.0600 6.6765 -0.3794
10.0800 6.6899 -0.3865
10.1000 6.7032 -0.3769
10.1200 6.7165 -0.3744
10.1400 6.7299 -0.3853
10.1600 6.7432 -0.3753
10.1800 6.7565 -0.3829
10.2000 6.7699 -0.3843
10.2200 6.7832 -0.3716
10.2400 6.7965 -0.3816
10.2600 6.8099 -0.3843
10.2800 6.8232 -0.3758
10.3000 6.8365 -0.3877
10.3200 6.8498 -0.3735
10.3400 6.8631 -0.3746
10.3600 6.8765 -0.3891
10.3800 6.8898 -0.3746
10.4000 6.9031 -0.3809
10.4200 6.9165 -0.3824
10.4400 6.9299 -0.3754
10.4600 6.9432 -0.3854
10.4800 6.9565 -0.3811
10.5000 6.9699 -0.3750
10.5200 6.9832 -0.3867
10.5400 6.9965 -0.3836
10.5600 7.0098 -0.3788
10.5800 7.0231 -0.3877
10.6000 7.0365 -0.3817
10.6200 7.0498 -0.3807
10.6400 7.0631 -0.3881
10.6600 7.0764 -0.3817
10.6800 7.0898 -0.3802
10.7000 7.1032 -0.3876
10.7200 7.1165 -0.3844
10.7400 7.1298 -0.3852
10.7600 7.1431 -0.3852
10.7800 7.1565 -0.3808
10.8000 7.1698 -0.3894
10.8200 7.1832 -0.3881
10.8400 7.1965 -0.3854
10.8600 7.2099 -0.3883
10.8800 7.2232 -0.3851
10.9000 7.2366 -0.3849
10.9200 7.2499 -0.3928
10.9400 7.2632 -0.3875
10.9600 7.2765 -0.3837
10.9800 7.2898 -0.3901
11.0000 7.3031 -0.3915
11.0200 7.3164 -0.3870
11.0400 7.3297 -0.3918
11.0600 7.3431 -0.3845
11.0800 7.3565 -0.3931
11.1000 7.3698 -0.3936
11.1200 7.3832 -0.3868
11.1400 7.3965 -0.3944
11.1600 7.4099 -0.3958
11.1800 7.4232 -0.3898
11.2000 7.4365 -0.3938
11.2200 7.4499 -0.3946
11.2400 7.4632 -0.3897
11.2600 7.4766 -0.3966
11.2800 7.4899 -0.3946
11.3000 7.5032 -0.3889
11.3200 7.5165 -0.3957
11.3400 7.5298 -0.3927
11.3600 7.5432 -0.3982
11.3800 7.5565 -0.3962
11.4000 7.5698 -0.3918
11.4200 7.5831 -0.3993
11.4400 7.5965 -0.3965
11.4600 7.6098 -0.3982
11.4800 7.6231 -0.3996
11.5000 7.6365 -0.3978
11.5200 7.6499 -0.3963
11.5400 7.6632 -0.3962
11.5600 7.6765 -0.4000
11.5800 7.6899 -0.3976
11.6000 7.7032 -0.3982
11.6200 7.7166 -0.3968
11.6400 7.7299 -0.4012
11.6600 7.7431 -0.4000
11.6800 7.7565 -0.3944
11.7000 7.7698 -0.4014
11.7200 7.7831 -0.3978
11.7400 7.7964 -0.3953
11.7600 7.8098 -0.4018
11.7800 7.8231 -0.3996
11.8000 7.8365 -0.3955
11.8200 7.8498 -0.4029
11.8400 7.8631 -0.3970
11.8600 7.8765 -0.3988
11.8800 7.8898 -0.4071
11.9000 7.9032 -0.3957
11.9200 7.9165 -0.3977
11.9400 7.9298 -0.4000
11.9600 7.9432 -0.3944
11.9800 7.9566 -0.4000
12.0000 7.9699 -0.3994
12.0200 7.9832 -0.3950
12.0400 7.9965 -0.3974
12.0600 8.0099 -0.3988
12.0800 8.0232 -0.4000
12.1000 8.0365 -0.3967
12.1200 8.0498 -0.3977
12.1400 8.0631 -0.3978
12.1600 8.0764 -0.3918
12.1800 8.0897 -0.3964
12.2000 8.1031 -0.4021
12.2200 8.1165 -0.3961
12.2400 8.1299 -0.4011
12.2600 8.1432 -0.4052
12.2800 8.1566 -0.3948
12.3000 8.1699 -0.3960
12.3200 8.1832 -0.4036
12.3400 8.1966 -0.3963
12.3600 8.2099 -0.4001
12.3800 8.2232 -0.4023
12.4000 8.2365 -0.3918
12.4200 8.2498 -0.3993
12.4400 8.2631 -0.4037
12.4600 8.2764 -0.3924
12.4800 8.2897 -0.4016
12.5000 8.3031 -0.4034
12.5200 8.3165 -0.3921
12.5400 8.3298 -0.3962
12.5600 8.3431 -0.4017
12.5800 8.3565 -0.3906
12.6000 8.3699 -0.4071
12.6200 8.3832 -0.3988
12.6400 8.3965 -0.3899
12.6600 8.4099 -0.4105
12.6800 8.4232 -0.3981
12.7000 8.4366 -0.3923
12.7200 8.4499 -0.4110
12.7400 8.4632 -0.3943
12.7600 8.4765 -0.3960
12.7800 8.4898 -0.4085
12.8000 8.5031 -0.3980
12.8200 8.5164 -0.4019
12.8400 8.5297 -0.4124
12.8600 8.5431 -0.3949
12.8800 8.5565 -0.3979
12.9000 8.5698 -0.4178
12.9200 8.5832 -0.3912
12.9400 8.5965 -0.4043
12.9600 8.6099 -0.4191
12.9800 8.6232 -0.3955
13.0000 8.6365 -0.4072
13.0200 8.6499 -0.4191
13.0400 8.6632 -0.3976
13.0600 8.6765 -0.4092
13.0800 8.6899 -0.4165
13.1000 8.7032 -0.4010
13.1200 8.7165 -0.4127
13.1400 8.7299 -0.4165
13.1600 8.7432 -0.4040
13.1800 8.7564 -0.4128
13.2000 8.7697 -0.4106
13.2200 8.7831 -0.4072
13.2400 8.7965 -0.4171
13.2600 8.8098 -0.4126
13.2800 8.8232 -0.4075
13.3000 8.8365 -0.4131
13.3200 8.8499 -0.4103
13.3400 8.8632 -0.4165
13.3600 8.8765 -0.4104
13.3800 8.8899 -0.4108
13.4000 8.9032 -0.4182
13.4200 8.9165 -0.4124
13.4400 8.9299 -0.4145
13.4600 8.9431 -0.4201
13.4800 8.9564 -0.4067
13.5000 8.9698 -0.4162
13.5200 8.9831 -0.4184
13.5400 8.9965 -0.4056
13.5600 9.0098 -0.4202
13.5800 9.0231 -0.4203
13.6000 9.0365 -0.4112
13.6200 9.0498 -0.4213
13.6400 9.0631 -0.4183
13.6600 9.0764 -0.4132
13.6800 9.0898 -0.4224
13.7000 9.1032 -0.4162
13.7200 9.1165 -0.4126
13.7400 9.1299 -0.4206
13.7600 9.1432 -0.4205
13.7800 9.1566 -0.4148
13.8000 9.1699 -0.4214
13.8200 9.1832 -0.4176
13.8400 9.1965 -0.4127
13.8600 9.2098 -0.4203
13.8800 9.2232 -0.4190
13.9000 9.2365 -0.4127
13.9200 9.2498 -0.4192
13.9400 9.2631 -0.4183
13.9600 9.2765 -0.4168
13.9800 9.2898 -0.4200
14.0000 9.3031 -0.4194
14.0200 9.3165 -0.4119
14.0400 9.3298 -0.4189
14.0600 9.3432 -0.4218
14.0800 9.3565 -0.4202
14.1000 9.3698 -0.4204
14.1200 9.3832 -0.4226
14.1400 9.3965 -0.4163
14.1600 9.4099 -0.4220
14.1800 9.4232 -0.4203
14.2000 9.4365 -0.4162
14.2200 9.4498 -0.4248
14.2400 9.4632 -0.4206
14.2600 9.4765 -0.4142
14.2800 9.4897 -0.4206
14.3000 9.5031 -0.4207
14.3200 9.5164 -0.4210
14.3400 9.5298 -0.4220
14.3600 9.5431 -0.4226
14.3800 9.5565 -0.4182
14.4000 9.5699 -0.4221
14.4200 9.5832 -0.4275
14.4400 9.5966 -0.4173
14.4600 9.6099 -0.4211
14.4800 9.6232 -0.4265
14.5000 9.6366 -0.4206
14.5200 9.6499 -0.4235
14.5400 9.6631 -0.4266
14.5600 9.6764 -0.4138
14.5800 9.6897 -0.4259
14.6000 9.7031 -0.4328
14.6200 9.7164 -0.4175
14.6400 9.7298 -0.4229
14.6600 9.7431 -0.4289
14.6800 9.7565 -0.4187
14.7000 9.7698 -0.4260
14.7200 9.7832 -0.4255
14.7400 9.7965 -0.4218
14.7600 9.8099 -0.4280
14.7800 9.8232 -0.4242
14.8000 9.8366 -0.4223
14.8200 9.8499 -0.4272
14.8400 9.8632 -0.4225
14.8600 9.8765 -0.4214
14.8800 9.8899 -0.4298
14.9000 9.9031 -0.4257
14.9200 9.9165 -0.4218
14.9400 9.9298 -0.4282
14.9600 9.9432 -0.4284
14.9800 9.9565 -0.4266
15.0000 9.9698 -0.4257
15.0200 9.9831 -0.4236
15.0400 9.9965 -0.4196
15.0600 10.0098 -0.4305
15.0800 10.0231 -0.4290
15.1000 10.0365 -0.4273
15.1200 10.0499 -0.4269
15.1400 10.0632 -0.4275
15.1600 10.0765 -0.4299
15.1800 10.0899 -0.4227
15.2000 10.1032 -0.4290
15.2200 10.1165 -0.4272
15.2400 10.1299 -0.4278
15.2600 10.1432 -0.4311
15.2800 10.1565 -0.4264
15.3000 10.1698 -0.4282
15.3200 10.1832 -0.4319
15.3400 10.1965 -0.4278
15.3600 10.2098 -0.4292
15.3800 10.2231 -0.4282
15.4000 10.2364 -0.4296
15.4200 10.2498 -0.4319
15.4400 10.2631 -0.4322
15.4600 10.2765 -0.4269
15.4800 10.2898 -0.4291
15.5000 10.3032 -0.4293
15.5200 10.3166 -0.4302
15.5400 10.3299 -0.4327
15.5600 10.3432 -0.4297
15.5800 10.3566 -0.4313
15.6000 10.3699 -0.4301
15.6200 10.3832 -0.4286
15.6400 10.3965 -0.4326
15.6600 10.4098 -0.4329
15.6800 10.4232 -0.4287
15.7000 10.4365 -0.4262
15.7200 10.4498 -0.4327
15.7400 10.4631 -0.4301
15.7600 10.4764 -0.4244
15.7800 10.4898 -0.4347
15.8000 10.5031 -0.4295
15.8200 10.5164 -0.4254
15.8400 10.5298 -0.4335
15.8600 10.5432 -0.4265
15.8800 10.5565 -0.4328
15.9000 10.5698 -0.4291
15.9200 10.5832 -0.4262
15.9400 10.5965 -0.4304
15.9600 10.6099 -0.4318
15.9800 10.6232 -0.4242
16.0000 10.6365 -0.4328
16.0200 10.6498 -0.4322
16.0400 10.6631 -0.4243
16.0600 10.6765 -0.4356
16.0800 10.6898 -0.4264
16.1000 10.7031 -0.4307
16.1200 10.7164 -0.4362
16.1400 10.7298 -0.4276
16.1600 10.7431 -0.4287
16.1800 10.7565 -0.4333
16.2000 10.7698 -0.4277
16.2200 10.7832 -0.4308
16.2400 10.7966 -0.4333
16.2600 10.8099 -0.4286
16.2800 10.8232 -0.4302
16.3000 10.8365 -0.4314
16.3200 10.8499 -0.4292
16.3400 10.8632 -0.4364
16.3600 10.8765 -0.4331
16.3800 10.8898 -0.4280
16.4000 10.9032 -0.4338
16.4200 10.9165 -0.4329
16.4400 10.9298 -0.4277
16.4600 10.9431 -0.4334
16.4800 10.9564 -0.4369
16.5000 10.9698 -0.4275
16.5200 10.9831 -0.4348
16.5400 10.9965 -0.4371
16.5600 11.0098 -0.4273
16.5800 11.0232 -0.4359
16.6000 11.0366 -0.4387
16.6200 11.0499 -0.4286
16.6400 11.0632 -0.4312
16.6600 11.0765 -0.4341
16.6800 11.0899 -0.4356
16.7000 11.1032 -0.4301
16.7200 11.1164 -0.4356
16.7400 11.1298 -0.4350
16.7600 11.1431 -0.4299
16.7800 11.1565 -0.4384
16.8000 11.1698 -0.4338
16.8200 11.1831 -0.4310
16.8400 11.1965 -0.4406
16.8600 11.2099 -0.4364
16.8800 11.2232 -0.4333
16.9000 11.2365 -0.4356
16.9200 11.2498 -0.4382
16.9400 11.2632 -0.4362
16.9600 11.2765 -0.4408
16.9800 11.2898 -0.4353
17.0000 11.3031 -0.4345
17.0200 11.3165 -0.4430
17.0400 11.3299 -0.4346
17.0600 11.3432 -0.4381
17.0800 11.3565 -0.4427
17.1000 11.3698 -0.4300
17.1200 11.3832 -0.4374
17.1400 11.3965 -0.4448
17.1600 11.4098 -0.4356
17.1800 11.4231 -0.4428
17.2000 11.4365 -0.4426
17.2200 11.4498 -0.4343
17.2400 11.4631 -0.4419
17.2600 11.4764 -0.4429
17.2800 11.4898 -0.4363
17.3000 11.5032 -0.4411
17.3200 11.5165 -0.4420
17.3400 11.5298 -0.4405
17.3600 11.5432 -0.4390
17.3800 11.5565 -0.4439
17.4000 11.5699 -0.4470
17.4200 11.5832 -0.4414
17.4400 11.5965 -0.4432
17.4600 11.6098 -0.4480
17.4800 11.6232 -0.4384
17.5000 11.6365 -0.4455
17.5200 11.6498 -0.4479
17.5400 11.6631 -0.4408
17.5600 11.6764 -0.4477
17.5800 11.6898 -0.4448
17.6000 11.7031 -0.4446
17.6200 11.7164 -0.4476
17.6400 11.7298 -0.4418
17.6600 11.7432 -0.4422
17.6800 11.7566 -0.4521
17.7000 11.7699 -0.4457
17.7200 11.7832 -0.4359
17.7400 11.7965 -0.4527
17.7600 11.8099 -0.4421
17.7800 11.8232 -0.4423
17.8000 11.8365 -0.4469
17.8200 11.8498 -0.4433
17.8400 11.8631 -0.4421
17.8600 11.8765 -0.4438
17.8800 11.8898 -0.4474
17.9000 11.9031 -0.4400
17.9200 11.9164 -0.4414
17.9400 11.9298 -0.4484
17.9600 11.9432 -0.4402
17.9800 11.9565 -0.4462
18.0000 11.9698 -0.4438
18.0200 11.9832 -0.4409
18.0400 11.9965 -0.4471
18.0600 12.0098 -0.4422
18.0800 12.0232 -0.4403
18.1000 12.0365 -0.4455
18.1200 12.0499 -0.4437
18.1400 12.0632 -0.4358
18.1600 12.0765 -0.4503
18.1800 12.0898 -0.4428
18.2000 12.1032 -0.4422
18.2200 12.1165 -0.4493
18.2400 12.1298 -0.4440
18.2600 12.1431 -0.4421
18.2800 12.1564 -0.4453
18.3000 12.1698 -0.4456
18.3200 12.1831 -0.4503
18.3400 12.1965 -0.4477
18.3600 12.2098 -0.4429
18.3800 12.2232 -0.4485
18.4000 12.2366 -0.4502
18.4200 12.2499 -0.4468
18.4400 12.2632 -0.4495
18.4600 12.2765 -0.4494
18.4800 12.2899 -0.4470
18.5000 12.3032 -0.4475
18.5200 12.3165 -0.4513
18.5400 12.3298 -0.4516
18.5600 12.3431 -0.4481
18.5800 12.3565 -0.4527
18.6000 12.3698 -0.4531
18.6200 12.3832 -0.4463
18.6400 12.3965 -0.4567
18.6600 12.4098 -0.4553
18.6800 12.4231 -0.4488
18.7000 12.4365 -0.4541
18.7200 12.4498 -0.4511
18.7400 12.4632 -0.4505
18.7600 12.4765 -0.4567
18.7800 12.4898 -0.4534
18.8000 12.5032 -0.4494
18.8200 12.5165 -0.4591
18.8400 12.5299 -0.4554
18.8600 12.5432 -0.4499
18.8800 12.5565 -0.4609
18.9000 12.5698 -0.4556
18.9200 12.5831 -0.4494
18.9400 12.5965 -0.4568
18.9600 12.6098 -0.4574
18.9800 12.6231 -0.4551
19.0000 12.6364 -0.4582
19.0200 12.6498 -0.4525
19.0400 12.6631 -0.4583
19.0600 12.6765 -0.4614
19.0800 12.6898 -0.4529
19.1000 12.7031 -0.4546
19.1200 12.7165 -0.4640
19.1400 12.7298 -0.4588
19.1600 12.7431 -0.4556
19.1800 12.7565 -0.4638
19.2000 12.7698 -0.4580
19.2200 12.7832 -0.4594
19.2400 12.7965 -0.4583
19.2600 12.8098 -0.4561
19.2800 12.8232 -0.4644
19.3000 12.8366 -0.4609
19.3200 12.8499 -0.4572
19.3400 12.8631 -0.4619
19.3600 12.8764 -0.4617
19.3800 12.8898 -0.4662
19.4000 12.9031 -0.4627
19.4200 12.9164 -0.4609
19.4400 12.9298 -0.4621
19.4600 12.9432 -0.4592
19.4800 12.9566 -0.4612
19.5000 12.9699 -0.4632
19.5200 12.9832 -0.4628
19.5400 12.9966 -0.4615
19.5600 13.0099 -0.4616
19.5800 13.0232 -0.4615
19.6000 13.0365 -0.4614
19.6200 13.0498 -0.4635
19.6400 13.0631 -0.4616
19.6600 13.0765 -0.4612
19.6800 13.0898 -0.4646
19.7000 13.1031 -0.4564
19.7200 13.1164 -0.4596
19.7400 13.1298 -0.4637
19.7600 13.1431 -0.4586
19.7800 13.1565 -0.4607
19.8000 13.1698 -0.4619
19.8200 13.1832 -0.4555
19.8400 13.1965 -0.4606
19.8600 13.2099 -0.4633
19.8800 13.2232 -0.4577
19.9000 13.2365 -0.4621
19.9200 13.2499 -0.4632
19.9400 13.2632 -0.4567
19.9600 13.2765 -0.4653
19.9800 13.2898 -0.4628
20.0000 13.3031 -0.4526
20.0200 13.3165 -0.4621
20.0400 13.3298 -0.4634
20.0600 13.3431 -0.4551
20.0800 13.3564 -0.4624
20.1000 13.3698 -0.4626
20.1200 13.3832 -0.4608
20.1400 13.3965 -0.4647
20.1600 13.4098 -0.4581
20.1800 13.4232 -0.4603
20.2000 13.4365 -0.4700
20.2200 13.4499 -0.4565
20.2400 13.4632 -0.4617
20.2600 13.4765 -0.4658
20.2800 13.4899 -0.4561
20.3000 13.5032 -0.4664
20.3200 13.5165 -0.4601
20.3400 13.5298 -0.4566
20.3600 13.5432 -0.4664
20.3800 13.5565 -0.4598
20.4000 13.5698 -0.4594
20.4200 13.5831 -0.4621
20.4400 13.5964 -0.4511
20.4600 13.6098 -0.4650
20.4800 13.6231 -0.4666
20.5000 13.6365 -0.4558
20.5200 13.6498 -0.4644
20.5400 13.6632 -0.4654
20.5600 13.6766 -0.4553
20.5800 13.6899 -0.4678
20.6000 13.7032 -0.4657
20.6200 13.7165 -0.4551
20.6400 13.7299 -0.4675
20.6600 13.7432 -0.4666
20.6800 13.7565 -0.4559
20.7000 13.7698 -0.4681
20.7200 13.7831 -0.4629
20.7400 13.7965 -0.4575
20.7600 13.8098 -0.4682
20.7800 13.8231 -0.4631
20.8000 13.8365 -0.4606
20.8200 13.8498 -0.4689
20.8400 13.8631 -0.4646
20.8600 13.8765 -0.4585
20.8800 13.8898 -0.4679
20.9000 13.9032 -0.4644
20.9200 13.9165 -0.4621
20.9400 13.9299 -0.4703
20.9600 13.9432 -0.4653
20.9800 13.9565 -0.4653
21.0000 13.9699 -0.4664
21.0200 13.9833 -0.4625
21.0400 13.9966 -0.4682
21.0600 14.0098 -0.4633
21.0800 14.0231 -0.4598
21.1000 14.0365 -0.4692
21.1200 14.0498 -0.4658
21.1400 14.0631 -0.4653
21.1600 14.0764 -0.4686
21.1800 14.0898 -0.4615
21.2000 14.1031 -0.4666
21.2200 14.1165 -0.4630
21.2400 14.1298 -0.4625
21.2600 14.1431 -0.4705
21.2800 14.1565 -0.4632
21.3000 14.1699 -0.4593
21.3200 14.1832 -0.4743
21.3400 14.1965 -0.4625
21.3600 14.2099 -0.4576
21.3800 14.2232 -0.4740
21.4000 14.2365 -0.4611
21.4200 14.2498 -0.4611
21.4400 14.2632 -0.4724
21.4600 14.2765 -0.4591
21.4800 14.2898 -0.4621
21.5000 14.3031 -0.4726
21.5200 14.3164 -0.4573
21.5400 14.3297 -0.4604
21.5600 14.3431 -0.4760
21.5800 14.3564 -0.4591
21.6000 14.3698 -0.4656
21.6200 14.3831 -0.4745
21.6400 14.3965 -0.4613
21.6600 14.4099 -0.4665
21.6800 14.4233 -0.4733
21.7000 14.4366 -0.4581
21.7200 14.4499 -0.4652
21.7400 14.4632 -0.4700
21.7600 14.4765 -0.4639
21.7800 14.4898 -0.4696
21.8000 14.5031 -0.4705
21.8200 14.5164 -0.4638
21.8400 14.5298 -0.4686
21.8600 14.5431 -0.4703
21.8800 14.5564 -0.4644
21.9000 14.5698 -0.4725
21.9200 14.5832 -0.4694
21.9400 14.5965 -0.4705
21.9600 14.6098 -0.4714
21.9800 14.6232 -0.4690
22.0000 14.6365 -0.4698
22.0200 14.6499 -0.4707
22.0400 14.6632 -0.4768
22.0600 14.6765 -0.4692
22.0800 14.6898 -0.4693
22.1000 14.7032 -0.4767
22.1200 14.7165 -0.4710
22.1400 14.7298 -0.4695
22.1600 14.7431 -0.4745
22.1800 14.7565 -0.4708
22.2000 14.7698 -0.4684
22.2200 14.7831 -0.4784
22.2400 14.7965 -0.4797
22.2600 14.8098 -0.4712
22.2800 14.8232 -0.4825
22.3000 14.8365 -0.4760
22.3200 14.8498 -0.4653
22.3400 14.8632 -0.4814
22.3600 14.8765 -0.4785
22.3800 14.8899 -0.4712
22.4000 14.9032 -0.4805
22.4200 14.9165 -0.4775
22.4400 14.9299 -0.4675
22.4600 14.9432 -0.4826
22.4800 14.9566 -0.4829
22.5000 14.9698 -0.4682
22.5200 14.9831 -0.4848
22.5400 14.9965 -0.4791
22.5600 15.0098 -0.4748
22.5800 15.0231 -0.4830
22.6000 15.0364 -0.4757
22.6200 15.0498 -0.4736
22.6400 15.0631 -0.4831
22.6600 15.0765 -0.4758
22.6800 15.0898 -0.4781
22.7000 15.1031 -0.4862
22.7200 15.1165 -0.4733
22.7400 15.1299 -0.4758
22.7600 15.1432 -0.4860
22.7800 15.1565 -0.4743
22.8000 15.1698 -0.4817
22.8200 15.1832 -0.4834
22.8400 15.1965 -0.4760
22.8600 15.2098 -0.4783
22.8800 15.2231 -0.4818
22.9000 15.2365 -0.4799
22.9200 15.2498 -0.4795
22.9400 15.2631 -0.4798
22.9600 15.2764 -0.4808
22.9800 15.2898 -0.4808
23.0000 15.3031 -0.4787
23.0200 15.3165 -0.4820
23.0400 15.3298 -0.4755
23.0600 15.3431 -0.4854
23.0800 15.3565 -0.4808
23.1000 15.3699 -0.4764
23.1200 15.3832 -0.4856
23.1400 15.3965 -0.4794
23.1600 15.4099 -0.4709
23.1800 15.4232 -0.4859
23.2000 15.4366 -0.4860
23.2200 15.4499 -0.4699
23.2400 15.4632 -0.4848
23.2600 15.4765 -0.4850
23.2800 15.4898 -0.4692
23.3000 15.5031 -0.4875
23.3200 15.5164 -0.4817
23.3400 15.5298 -0.4722
23.3600 15.5431 -0.4838
23.3800 15.5565 -0.4834
23.4000 15.5698 -0.4727
23.4200 15.5832 -0.4803
23.4400 15.5966 -0.4807
23.4600 15.6099 -0.4741
23.4800 15.6232 -0.4807
23.5000 15.6365 -0.4812
23.5200 15.6499 -0.4704
23.5400 15.6632 -0.4835
23.5600 15.6766 -0.4788
23.5800 15.6898 -0.4640
23.6000 15.7031 -0.4831
23.6200 15.7165 -0.4787
23.6400 15.7298 -0.4644
23.6600 15.7431 -0.4869
23.6800 15.7564 -0.4801
23.7000 15.7698 -0.4675
23.7200 15.7831 -0.4818
23.7400 15.7964 -0.4750
23.7600 15.8098 -0.4633
23.7800 15.8231 -0.4794
23.8000 15.8365 -0.4787
23.8200 15.8499 -0.4631
23.8400 15.8632 -0.4822
23.8600 15.8765 -0.4776
23.8800 15.8899 -0.4643
23.9000 15.9032 -0.4805
23.9200 15.9165 -0.4781
23.9400 15.9298 -0.4684
23.9600 15.9431 -0.4766
23.9800 15.9564 -0.4751
24.0000 15.9698 -0.4713
24.0200 15.9831 -0.4758
24.0400 15.9964 -0.4797
24.0600 16.0098 -0.4712
24.0800 16.0232 -0.4762
24.1000 16.0365 -0.4798
24.1200 16.0498 -0.4738
24.1400 16.0632 -0.4796
24.1600 16.0765 -0.4768
24.1800 16.0898 -0.4738
24.2000 16.1032 -0.4848
24.2200 16.1165 -0.4751
24.2400 16.1298 -0.4722
24.2600 16.1432 -0.4815
24.2800 16.1565 -0.4787
24.3000 16.1698 -0.4726
24.3200 16.1832 -0.4807
24.3400 16.1965 -0.4794
24.3600 16.2099 -0.4761
24.3800 16.2232 -0.4813
24.4000 16.2365 -0.4763
24.4200 16.2498 -0.4778
24.4400 16.2631 -0.4822
24.4600 16.2765 -0.4739
24.4800 16.2898 -0.4779
24.5000 16.3031 -0.4785
24.5200 16.3165 -0.4766
24.5400 16.3299 -0.4793
24.5600 16.3432 -0.4793
24.5800 16.3565 -0.4784
24.6000 16.3699 -0.4780
24.6200 16.3832 -0.4770
24.6400 16.3966 -0.4789
24.6600 16.4099 -0.4795
24.6800 16.4232 -0.4772
24.7000 16.4365 -0.4815
24.7200 16.4499 -0.4776
24.7400 16.4632 -0.4830
24.7600 16.4765 -0.4836
24.7800 16.4898 -0.4772
24.8000 16.5031 -0.4847
24.8200 16.5165 -0.4828
24.8400 16.5298 -0.4758
24.8600 16.5431 -0.4892
24.8800 16.5565 -0.4851
24.9000 16.5699 -0.4821
24.9200 16.5832 -0.4896
24.9400 16.5965 -0.4809
24.9600 16.6099 -0.4859
24.9800 16.6232 -0.4906
25.0000 16.6366 -0.4833
25.0200 16.6499 -0.4911
25.0400 16.6631 -0.4910
25.0600 16.6765 -0.4805
25.0800 16.6898 -0.4874
25.1000 16.7031 -0.4913
25.1200 16.7164 -0.4827
25.1400 16.7298 -0.4932
25.1600 16.7431 -0.4870
25.1800 16.7565 -0.4871
25.2000 16.7698 -0.4951
25.2200 16.7831 -0.4815
25.2400 16.7965 -0.4868
25.2600 16.8098 -0.4911
25.2800 16.8232 -0.4846
25.3000 16.8365 -0.4871
25.3200 16.8499 -0.4921
25.3400 16.8632 -0.4864
25.3600 16.8766 -0.4849
25.3800 16.8899 -0.4922
25.4000 16.9032 -0.4855
25.4200 16.9165 -0.4923
25.4400 16.9298 -0.4898
25.4600 16.9431 -0.4877
25.4800 16.9564 -0.4907
25.5000 16.9697 -0.4900
25.5200 16.9831 -0.4899
25.5400 16.9964 -0.4853
25.5600 17.0098 -0.4957
25.5800 17.0231 -0.4924
25.6000 17.0365 -0.4881
25.6200 17.0499 -0.4977
25.6400 17.0632 -0.4948
25.6600 17.0765 -0.4892
25.6800 17.0898 -0.4954
25.7000 17.1032 -0.4921
25.7200 17.1166 -0.4890
25.7400 17.1299 -0.4985
25.7600 17.1432 -0.4916
25.7800 17.1565 -0.4866
25.8000 17.1698 -0.5059
25.8200 17.1832 -0.4923
25.8400 17.1965 -0.4892
25.8600 17.2098 -0.5039
25.8800 17.2231 -0.4904
25.9000 17.2365 -0.4924
25.9200 17.2498 -0.5066
25.9400 17.2631 -0.4926
25.9600 17.2765 -0.4930
25.9800 17.2899 -0.5083
26.0000 17.3032 -0.4934
26.0200 17.3166 -0.4976
26.0400 17.3299 -0.5038
26.0600 17.3432 -0.4868
26.0800 17.3566 -0.4987
26.1000 17.3698 -0.5096
26.1200 17.3831 -0.4877
26.1400 17.3965 -0.4980
26.1600 17.4098 -0.5125
26.1800 17.4231 -0.4885
26.2000 17.4364 -0.4942
26.2200 17.4498 -0.5074
26.2400 17.4631 -0.4931
26.2600 17.4765 -0.4975
26.2800 17.4898 -0.5003
26.3000 17.5032 -0.4926
26.3200 17.5165 -0.4962
26.3400 17.5298 -0.4949
26.3600 17.5432 -0.4938
26.3800 17.5565 -0.4950
26.4000 17.5698 -0.4896
26.4200 17.5832 -0.4937
26.4400 17.5965 -0.4902
26.4600 17.6099 -0.4975
26.4800 17.6232 -0.5006
26.5000 17.6365 -0.4899
26.5200 17.6499 -0.4997
26.5400 17.6632 -0.5039
26.5600 17.6765 -0.4900
26.5800 17.6897 -0.5005
26.6000 17.7031 -0.5009
26.6200 17.7164 -0.4887
26.6400 17.7298 -0.5019
26.6600 17.7431 -0.4993
26.6800 17.7565 -0.4952
26.7000 17.7699 -0.5088
26.7200 17.7832 -0.5029
26.7400 17.7966 -0.4911
26.7600 17.8099 -0.5128
26.7800 17.8232 -0.5037
26.8000 17.8366 -0.4921
26.8200 17.8499 -0.5150
26.8400 17.8632 -0.5038
26.8600 17.8765 -0.4918
26.8800 17.8898 -0.5159
26.9000 17.9031 -0.5085
26.9200 17.9164 -0.4893
26.9400 17.9297 -0.5156
26.9600 17.9431 -0.5094
26.9800 17.9564 -0.4938
27.0000 17.9698 -0.5196
27.0200 17.9831 -0.5021
27.0400 17.9965 -0.4995
27.0600 18.0099 -0.5153
27.0800 18.0232 -0.5058
27.1000 18.0366 -0.5020
27.1200 18.0499 -0.5166
27.1400 18.0632 -0.5038
27.1600 18.0766 -0.5039
27.1800 18.0899 -0.5195
27.2000 18.1032 -0.5047
27.2200 18.1165 -0.5066
27.2400 18.1298 -0.5170
27.2600 18.1432 -0.5025
27.2800 18.1564 -0.5108
27.3000 18.1698 -0.5113
27.3200 18.1831 -0.5088
27.3400 18.1965 -0.5121
27.3600 18.2098 -0.5145
27.3800 18.2231 -0.5112
27.4000 18.2365 -0.5086
27.4200 18.2498 -0.5169
27.4400 18.2632 -0.5143
27.4600 18.2765 -0.5069
27.4800 18.2898 -0.5177
27.5000 18.3032 -0.5113
27.5200 18.3166 -0.5126
27.5400 18.3299 -0.5198
27.5600 18.3432 -0.5066
27.5800 18.3565 -0.5101
27.6000 18.3699 -0.5159
27.6200 18.3832 -0.5066
27.6400 18.3965 -0.5101
27.6600 18.4098 -0.5167
27.6800 18.4231 -0.5075
27.7000 18.4365 -0.5152
27.7200 18.4498 -0.5161
27.7400 18.4631 -0.5079
27.7600 18.4765 -0.5156
27.7800 18.4899 -0.5156
27.8000 18.5032 -0.5100
27.8200 18.5166 -0.5176
27.8400 18.5299 -0.5135
27.8600 18.5432 -0.5084
27.8800 18.5565 -0.5101
27.9000 18.5698 -0.5122
27.9200 18.5831 -0.5090
27.9400 18.5964 -0.5067
27.9600 18.6098 -0.5089
27.9800 18.6232 -0.5106
28.0000 18.6365 -0.5063
28.0200 18.6498 -0.5101
28.0400 18.6631 -0.5053
28.0600 18.6765 -0.5065
28.0800 18.6898 -0.5094
28.1000 18.7031 -0.5029
28.1200 18.7165 -0.5090
28.1400 18.7298 -0.5025
28.1600 18.7432 -0.4988
28.1800 18.7565 -0.5071
28.2000 18.7699 -0.5009
28.2200 18.7832 -0.5005
28.2400 18.7966 -0.5009
28.2600 18.8099 -0.5001
28.2800 18.8232 -0.5038
28.3000 18.8365 -0.4963
28.3200 18.8498 -0.4957
28.3400 18.8632 -0.5064
28.3600 18.8765 -0.4959
28.3800 18.8898 -0.4915
28.4000 18.9031 -0.5035
28.4200 18.9164 -0.4925
28.4400 18.9298 -0.4947
28.4600 18.9431 -0.5105
28.4800 18.9565 -0.4906
28.5000 18.9698 -0.4951
28.5200 18.9832 -0.5147
28.5400 18.9965 -0.4907
28.5600 19.0098 -0.5004
28.5800 19.0232 -0.5141
28.6000 19.0365 -0.4889
28.6200 19.0499 -0.5053
28.6400 19.0632 -0.5152
28.6600 19.0765 -0.4845
28.6800 19.0898 -0.5084
28.7000 19.1032 -0.5134
28.7200 19.1165 -0.4842
28.7400 19.1298 -0.5089
28.7600 19.1431 -0.5094
28.7800 19.1564 -0.4894
28.8000 19.1697 -0.5119
28.8200 19.1831 -0.5039
28.8400 19.1964 -0.4915
28.8600 19.2098 -0.5141
28.8800 19.2232 -0.5049
28.9000 19.2366 -0.4986
28.9200 19.2499 -0.5162
28.9400 19.2632 -0.5022
28.9600 19.2766 -0.5001
28.9800 19.2899 -0.5167
29.0000 19.3032 -0.5028
29.0200 19.3164 -0.5078
29.0400 19.3298 -0.5117
29.0600 19.3431 -0.5060
29.0800 19.3565 -0.5090
29.1000 19.3698 -0.5129
29.1200 19.3831 -0.5069
29.1400 19.3965 -0.5088
29.1600 19.4098 -0.5146
29.1800 19.4232 -0.5104
29.2000 19.4365 -0.5105
29.2200 19.4499 -0.5131
29.2400 19.4632 -0.5137
29.2600 19.4765 -0.5125
29.2800 19.4898 -0.5118
29.3000 19.5032 -0.5134
29.3200 19.5165 -0.5097
29.3400 19.5298 -0.5197
29.3600 19.5431 -0.5079
29.3800 19.5565 -0.5141
29.4000 19.5698 -0.5174
29.4200 19.5832 -0.5095
29.4400 19.5965 -0.5185
29.4600 19.6098 -0.5107
29.4800 19.6231 -0.5080
29.5000 19.6365 -0.5179
29.5200 19.6498 -0.5122
29.5400 19.6631 -0.5090
29.5600 19.6765 -0.5150
29.5800 19.6898 -0.5081
29.6000 19.7032 -0.5126
29.6200 19.7165 -0.5183
29.6400 19.7298 -0.5099
29.6600 19.7431 -0.5138
29.6800 19.7565 -0.5138
29.7000 19.7699 -0.5131
29.7200 19.7832 -0.5183
29.7400 19.7965 -0.5098
29.7600 19.8098 -0.5053
29.7800 19.8232 -0.5183
29.8000 19.8365 -0.5111
29.8200 19.8498 -0.5053
29.8400 19.8631 -0.5200
29.8600 19.8764 -0.5069
29.8800 19.8898 -0.5128
29.9000 19.9031 -0.5172
29.9200 19.9165 -0.5073
29.9400 19.9298 -0.5097
29.9600 19.9432 -0.5191
29.9800 19.9566 -0.5041
30.0000 19.9699 -0.5154
30.0200 19.9832 -0.5190
30.0400 19.9965 -0.5094
30.0600 20.0099 -0.5190
30.0800 20.0232 -0.5159
30.1000 20.0365 -0.5061
30.1200 20.0498 -0.5201
30.1400 20.0632 -0.5140
30.1600 20.0765 -0.5141
30.1800 20.0898 -0.5235
30.2000 20.1031 -0.5091
30.2200 20.1165 -0.5175
30.2400 20.1298 -0.5233
30.2600 20.1431 -0.5089
30.2800 20.1564 -0.5212
30.3000 20.1698 -0.5153
30.3200 20.1832 -0.5112
30.3400 20.1965 -0.5228
30.3600 20.2098 -0.5119
30.3800 20.2232 -0.5084
30.4000 20.2365 -0.5210
30.4200 20.2499 -0.5096
30.4400 20.2632 -0.5131
30.4600 20.2765 -0.5235
30.4800 20.2898 -0.5026
30.5000 20.3032 -0.4785
30.5200 20.3165 -0.3933
30.5400 20.3298 -0.2686
30.5600 20.3431 -0.1897
30.5800 20.3564 -0.1070
30.6000 20.3698 -0.0337
30.6200 20.3831 -0.0127
30.6400 20.3965 0.0212
30.6600 20.4099 0.0790
30.6800 20.4232 0.1122
30.7000 20.4366 0.1671
30.7200 20.4499 0.2083
30.7400 20.4632 0.2343
30.7600 20.4765 0.2785
30.7800 20.4899 0.3117
30.8000 20.5032 0.3572
30.8200 20.5165 0.4060
30.8400 20.5298 0.4521
30.8600 20.5432 0.4789
30.8800 20.5565 0.4734
30.9000 20.5698 0.4690
30.9200 20.5831 0.4708
30.9400 20.5964 0.4673
30.9600 20.6098 0.4664
30.9800 20.6231 0.4711
31.0000 20.6364 0.4688
31.0200 20.6498 0.4682
31.0400 20.6632 0.4797
31.0600 20.6766 0.4682
31.0800 20.6899 0.4707
31.1000 20.7032 0.4815
31.1200 20.7165 0.4662
31.1400 20.7299 0.4791
31.1600 20.7432 0.4777
31.1800 20.7565 0.4687
31.2000 20.7698 0.4787
31.2200 20.7831 0.4801
31.2400 20.7965 0.4664
31.2600 20.8098 0.4766
31.2800 20.8231 0.4786
31.3000 20.8365 0.4681
31.3200 20.8498 0.4764
31.3400 20.8632 0.4719
31.3600 20.8765 0.4671
31.3800 20.8899 0.4749
31.4000 20.9032 0.4669
31.4200 20.9165 0.4693
31.4400 20.9298 0.4731
31.4600 20.9431 0.4674
31.4800 20.9565 0.4699
31.5000 20.9698 0.4705
31.5200 20.9832 0.4657
31.5400 20.9965 0.4633
31.5600 21.0098 0.4692
31.5800 21.0232 0.4603
31.6000 21.0365 0.4559
31.6200 21.0498 0.4635
31.6400 21.0631 0.4611
31.6600 21.0765 0.4557
31.6800 21.0898 0.4603
31.7000 21.1031 0.4603
31.7200 21.1164 0.4528
31.7400 21.1298 0.4597
31.7600 21.1432 0.4598
31.7800 21.1565 0.4500
31.8000 21.1698 0.4557
31.8200 21.1832 0.4563
31.8400 21.1965 0.4479
31.8600 21.2099 0.4534
31.8800 21.2232 0.4554
31.9000 21.2365 0.4440
31.9200 21.2498 0.4515
31.9400 21.2632 0.4553
31.9600 21.2765 0.4449
31.9800 21.2898 0.4511
32.0000 21.3031 0.4526
32.0200 21.3164 0.4427
32.0400 21.3298 0.4465
32.0600 21.3431 0.4505
32.0800 21.3565 0.4475
32.1000 21.3698 0.4455
32.1200 21.3832 0.4497
32.1400 21.3966 0.4423
32.1600 21.4099 0.4451
32.1800 21.4232 0.4487
32.2000 21.4365 0.4405
32.2200 21.4499 0.4431
32.2400 21.4632 0.4457
32.2600 21.4765 0.4429
32.2800 21.4898 0.4437
32.3000 21.5031 0.4406
32.3200 21.5165 0.4409
32.3400 21.5298 0.4410
32.3600 21.5431 0.4415
32.3800 21.5564 0.4381
32.4000 21.5698 0.4384
32.4200 21.5831 0.4373
32.4400 21.5965 0.4354
32.4600 21.6098 0.4360
32.4800 21.6231 0.4386
32.5000 21.6365 0.4321
32.5200 21.6498 0.4350
32.5400 21.6632 0.4364
32.5600 21.6765 0.4312
32.5800 21.6899 0.4331
32.6000 21.7032 0.4323
32.6200 21.7165 0.4328
32.6400 21.7298 0.4328
32.6600 21.7432 0.4336
32.6800 21.7565 0.4275
32.7000 21.7698 0.4311
32.7200 21.7831 0.4292
32.7400 21.7964 0.4249
32.7600 21.8098 0.4284
32.7800 21.8231 0.4264
32.8000 21.8365 0.4255
32.8200 21.8498 0.4257
32.8400 21.8632 0.4231
32.8600 21.8766 0.4237
32.8800 21.8899 0.4250
32.9000 21.9032 0.4227
32.9200 21.9165 0.4247
32.9400 21.9299 0.4250
32.9600 21.9432 0.4238
32.9800 21.9565 0.4269
33.0000 21.9698 0.4243
33.0200 21.9832 0.4235
33.0400 21.9965 0.4188
33.0600 22.0099 0.4216
33.0800 22.0232 0.4225
33.1000 22.0365 0.4231
33.1200 22.0498 0.4171
33.1400 22.0631 0.4216
33.1600 22.0765 0.4158
33.1800 22.0898 0.4198
33.2000 22.1032 0.4221
33.2200 22.1165 0.4136
33.2400 22.1299 0.4179
33.2600 22.1432 0.4237
33.2800 22.1565 0.4104
33.3000 22.1699 0.4164
33.3200 22.1832 0.4242
33.3400 22.1965 0.4089
33.3600 22.2098 0.4159
33.3800 22.2231 0.4172
33.4000 22.2365 0.4100
33.4200 22.2498 0.4142
33.4400 22.2631 0.4158
33.4600 22.2764 0.4093
33.4800 22.2898 0.4134
33.5000 22.3031 0.4107
33.5200 22.3165 0.4064
33.5400 22.3298 0.4115
33.5600 22.3431 0.4118
33.5800 22.3565 0.4042
33.6000 22.3698 0.4090
33.6200 22.3831 0.4117
33.6400 22.3965 0.4011
33.6600 22.4098 0.4107
33.6800 22.4232 0.4084
33.7000 22.4365 0.4032
33.7200 22.4499 0.4078
33.7400 22.4632 0.4037
33.7600 22.4765 0.3997
33.7800 22.4898 0.4067
33.8000 22.5031 0.4051
33.8200 22.5164 0.3980
33.8400 22.5298 0.4082
33.8600 22.5431 0.3985
33.8800 22.5564 0.3996
33.9000 22.5698 0.4060
33.9200 22.5832 0.3962
33.9400 22.5966 0.3950
33.9600 22.6099 0.3996
33.9800 22.6232 0.3954
34.0000 22.6366 0.3969
34.0200 22.6499 0.3965
34.0400 22.6633 0.3922
34.0600 22.6766 0.3946
34.0800 22.6898 0.3956
34.1000 22.7031 0.3920
34.1200 22.7165 0.3900
34.1400 22.7298 0.3885
34.1600 22.7431 0.3936
34.1800 22.7564 0.3909
34.2000 22.7698 0.3879
34.2200 22.7831 0.3931
34.2400 22.7964 0.3872
34.2600 22.8098 0.3874
34.2800 22.8232 0.3898
34.3000 22.8365 0.3809
34.3200 22.8499 0.3862
34.3400 22.8632 0.3890
34.3600 22.8766 0.3829
34.3800 22.8899 0.3878
34.4000 22.9032 0.3838
34.4200 22.9165 0.3817
34.4400 22.9298 0.3888
34.4600 22.9431 0.3852
34.4800 22.9565 0.3818
34.5000 22.9698 0.3829
34.5200 22.9831 0.3786
34.5400 22.9964 0.3797
34.5600 23.0098 0.3843
34.5800 23.0231 0.3794
34.6000 23.0365 0.3735
34.6200 23.0498 0.3799
34.6400 23.0631 0.3759
34.6600 23.0765 0.3771
34.6800 23.0898 0.3784
34.7000 23.1032 0.3741
34.7200 23.1165 0.3710
34.7400 23.1299 0.3732
34.7600 23.1432 0.3757
34.7800 23.1565 0.3701
34.8000 23.1698 0.3696
34.8200 23.1832 0.3727
34.8400 23.1965 0.3750
34.8600 23.2098 0.3653
34.8800 23.2231 0.3741
34.9000 23.2364 0.3712
34.9200 23.2498 0.3692
34.9400 23.2631 0.3665
34.9600 23.2765 0.3655
34.9800 23.2898 0.3708
35.0000 23.3032 0.3646
35.0200 23.3166 0.3637
35.0400 23.3299 0.3671
35.0600 23.3432 0.3650
35.0800 23.3565 0.3668
35.1000 23.3699 0.3630
35.1200 23.3832 0.3651
35.1400 23.3965 0.3607
35.1600 23.4098 0.3675
35.1800 23.4231 0.3661
35.2000 23.4365 0.3589
35.2200 23.4498 0.3633
35.2400 23.4631 0.3621
35.2600 23.4764 0.3604
35.2800 23.4898 0.3595
35.3000 23.5031 0.3586
35.3200 23.5165 0.3672
35.3400 23.5298 0.3556
35.3600 23.5431 0.3568
35.3800 23.5565 0.3604
35.4000 23.5699 0.3524
35.4200 23.5832 0.3554
35.4400 23.5965 0.3630
35.4600 23.6099 0.3506
35.4800 23.6232 0.3542
35.5000 23.6366 0.3540
35.5200 23.6499 0.3527
35.5400 23.6632 0.3567
35.5600 23.6765 0.3542
35.5800 23.6898 0.3509
35.6000 23.7031 0.3570
35.6200 23.7165 0.3524
35.6400 23.7298 0.3521
35.6600 23.7431 0.3520
35.6800 23.7565 0.3475
35.7000 23.7698 0.3510
35.7200 23.7832 0.3504
35.7400 23.7965 0.3485
35.7600 23.8099 0.3512
35.7800 23.8232 0.3472
35.8000 23.8365 0.3437
35.8200 23.8499 0.3483
35.8400 23.8632 0.3453
35.8600 23.8765 0.3450
35.8800 23.8898 0.3441
35.9000 23.9031 0.3441
35.9200 23.9165 0.3443
35.9400 23.9298 0.3471
35.9600 23.9431 0.3368
35.9800 23.9564 0.3469
36.0000 23.9697 0.3446
36.0200 23.9831 0.3349
36.0400 23.9964 0.3455
36.0600 24.0098 0.3442
36.0800 24.0231 0.3371
36.1000 24.0365 0.3412
36.1200 24.0499 0.3362
36.1400 24.0633 0.3381
36.1600 24.0766 0.3414
36.1800 24.0899 0.3380
36.2000 24.1032 0.3362
36.2200 24.1165 0.3409
36.2400 24.1298 0.3312
36.2600 24.1431 0.3388
36.2800 24.1564 0.3362
36.3000 24.1698 0.3287
36.3200 24.1831 0.3329
36.3400 24.1964 0.3326
36.3600 24.2098 0.3320
36.3800 24.2232 0.3336
36.4000 24.2365 0.3302
36.4200 24.2498 0.3305
36.4400 24.2632 0.3296
36.4600 24.2766 0.3257
36.4800 24.2899 0.3288
36.5000 24.3032 0.3249
36.5200 24.3165 0.3261
36.5400 24.3298 0.3274
36.5600 24.3432 0.3180
36.5800 24.3565 0.3233
36.6000 24.3698 0.3314
36.6200 24.3831 0.3179
36.6400 24.3965 0.3244
36.6600 24.4098 0.3355
36.6800 24.4231 0.3148
36.7000 24.4364 0.3284
36.7200 24.4498 0.3284
36.7400 24.4631 0.3152
36.7600 24.4765 0.3267
36.7800 24.4898 0.3269
36.8000 24.5032 0.3171
36.8200 24.5165 0.3290
36.8400 24.5299 0.3287
36.8600 24.5432 0.3150
36.8800 24.5565 0.3295
36.9000 24.5698 0.3239
36.9200 24.5832 0.3198
36.9400 24.5965 0.3259
36.9600 24.6098 0.3194
36.9800 24.6231 0.3214
37.0000 24.6365 0.3262
37.0200 24.6498 0.3176
37.0400 24.6631 0.3206
37.0600 24.6764 0.3227
37.0800 24.6898 0.3188
37.1000 24.7031 0.3188
37.1200 24.7165 0.3208
37.1400 24.7298 0.3220
37.1600 24.7431 0.3186
37.1800 24.7565 0.3116
37.2000 24.7699 0.3255
37.2200 24.7832 0.3198
37.2400 24.7965 0.3118
37.2600 24.8099 0.3210
37.2800 24.8232 0.3189
37.3000 24.8365 0.3120
37.3200 24.8498 0.3215
37.3400 24.8631 0.3122
37.3600 24.8765 0.3145
37.3800 24.8898 0.3197
37.4000 24.9032 0.3058
37.4200 24.9165 0.3117
37.4400 24.9298 0.3193
37.4600 24.9431 0.3063
37.4800 24.9565 0.3075
37.5000 24.9698 0.3163
37.5200 24.9831 0.2997
37.5400 24.9965 0.3103
37.5600 25.0099 0.3084
37.5800 25.0232 0.3052
37.6000 25.0365 0.3069
37.6200 25.0498 0.3089
37.6400 25.0632 0.2982
37.6600 25.0766 0.2992
37.6800 25.0899 0.3068
37.7000 25.1032 0.2989
37.7200 25.1165 0.3012
37.7400 25.1298 0.3005
37.7600 25.1431 0.2957
37.7800 25.1564 0.3003
37.8000 25.1697 0.3001
37.8200 25.1831 0.2964
37.8400 25.1964 0.2960
37.8600 25.2098 0.2965
37.8800 25.2231 0.3004
37.9000 25.2365 0.3017
37.9200 25.2499 0.2947
37.9400 25.2632 0.2909
37.9600 25.2765 0.3012
37.9800 25.2899 0.2900
38.0000 25.3032 0.2864
38.0200 25.3166 0.2958
38.0400 25.3299 0.2887
38.0600 25.3432 0.2916
38.0800 25.3565 0.2950
38.1000 25.3698 0.2879
38.1200 25.3832 0.2902
38.1400 25.3964 0.2901
38.1600 25.4097 0.2875
38.1800 25.4231 0.2896
38.2000 25.4364 0.2908
38.2200 25.4498 0.2866
38.2400 25.4631 0.2832
38.2600 25.4765 0.2851
38.2800 25.4899 0.2877
38.3000 25.5032 0.2830
38.3200 25.5165 0.2802
38.3400 25.5299 0.2824
38.3600 25.5432 0.2818
38.3800 25.5565 0.2739
38.4000 25.5698 0.2873
38.4200 25.5831 0.2774
38.4400 25.5964 0.2728
38.4600 25.6098 0.2788
38.4800 25.6231 0.2758
38.5000 25.6365 0.2833
38.5200 25.6498 0.2764
38.5400 25.6632 0.2786
38.5600 25.6765 0.2684
38.5800 25.6899 0.2754
38.6000 25.7032 0.2740
38.6200 25.7165 0.2699
38.6400 25.7299 0.2742
38.6600 25.7432 0.2736
38.6800 25.7565 0.2720
38.7000 25.7698 0.2733
38.7200 25.7832 0.2695
38.7400 25.7965 0.2673
38.7600 25.8099 0.2738
38.7800 25.8232 0.2729
38.8000 25.8365 0.2673
38.8200 25.8499 0.2738
38.8400 25.8632 0.2676
38.8600 25.8765 0.2693
38.8800 25.8898 0.2733
38.9000 25.9031 0.2713
38.9200 25.9165 0.2660
38.9400 25.9298 0.2714
38.9600 25.9431 0.2684
38.9800 25.9565 0.2669
39.0000 25.9698 0.2722
39.0200 25.9832 0.2631
39.0400 25.9965 0.2681
39.0600 26.0098 0.2737
39.0800 26.0232 0.2619
39.1000 26.0365 0.2680
39.1200 26.0498 0.2709
39.1400 26.0632 0.2760
39.1600 26.0765 0.2675
39.1800 26.0898 0.2624
39.2000 26.1032 0.2652
39.2200 26.1165 0.2648
39.2400 26.1298 0.2645
39.2600 26.1431 0.2665
39.2800 26.1564 0.2639
39.3000 26.1698 0.2684
39.3200 26.1831 0.2651
39.3400 26.1965 0.2613
39.3600 26.2099 0.2685
39.3800 26.2232 0.2637
39.4000 26.2366 0.2655
39.4200 26.2499 0.2667
39.4400 26.2632 0.2584
39.4600 26.2766 0.2614
39.4800 26.2898 0.2677
39.5000 26.3031 0.2581
39.5200 26.3165 0.2635
39.5400 26.3298 0.2614
39.5600 26.3432 0.2493
39.5800 26.3564 0.2652
39.6000 26.3698 0.2576
39.6200 26.3831 0.2494
39.6400 26.3965 0.2632
39.6600 26.4098 0.2524
39.6800 26.4232 0.2475
39.7000 26.4365 0.2651
39.7200 26.4499 0.2484
39.7400 26.4632 0.2506
39.7600 26.4765 0.2680
39.7800 26.4899 0.2428
39.8000 26.5032 0.2547
39.8200 26.5166 0.2604
39.8400 26.5299 0.2414
39.8600 26.5432 0.2572
39.8800 26.5565 0.2568
39.9000 26.5698 0.2429
39.9200 26.5832 0.2538
39.9400 26.5964 0.2500
39.9600 26.6097 0.2430
39.9800 26.6231 0.2543
40.0000 26.6364 0.2489
40.0200 26.6498 0.2390
40.0400 26.6631 0.2592
40.0600 26.6765 0.2485
40.0800 26.6899 0.2456
40.1000 26.7032 0.2502
40.1200 26.7165 0.2470
40.1400 26.7298 0.2403
40.1600 26.7432 0.2463
40.1800 26.7565 0.2465
40.2000 26.7698 0.2417
40.2200 26.7832 0.2508
40.2400 26.7965 0.2476
40.2600 26.8098 0.2313
40.2800 26.8232 0.2510
40.3000 26.8365 0.2458
40.3200 26.8498 0.2361
40.3400 26.8631 0.2512
40.3600 26.8765 0.2415
40.3800 26.8898 0.2367
40.4000 26.9031 0.2465
40.4200 26.9165 0.2399
40.4400 26.9299 0.2368
40.4600 26.9432 0.2442
40.4800 26.9565 0.2340
40.5000 26.9698 0.2380
40.5200 26.9832 0.2471
40.5400 26.9966 0.2336
40.5600 27.0099 0.2376
40.5800 27.0232 0.2473
40.6000 27.0365 0.2325
40.6200 27.0498 0.2397
40.6400 27.0632 0.2391
40.6600 27.0765 0.2330
40.6800 27.0898 0.2383
40.7000 27.1031 0.2335
40.7200 27.1165 0.2354
40.7400 27.1298 0.2318
40.7600 27.1432 0.2324
40.7800 27.1565 0.2365
40.8000 27.1698 0.2258
40.8200 27.1832 0.2255
40.8400 27.1965 0.2330
40.8600 27.2098 0.2282
40.8800 27.2232 0.2287
40.9000 27.2365 0.2377
40.9200 27.2499 0.2203
40.9400 27.2632 0.2294
40.9600 27.2765 0.2343
40.9800 27.2899 0.2210
41.0000 27.3032 0.2323
41.0200 27.3165 0.2292
41.0400 27.3298 0.2171
41.0600 27.3431 0.2275
41.0800 27.3564 0.2256
41.1000 27.3698 0.2207
41.1200 27.3831 0.2222
41.1400 27.3965 0.2253
41.1600 27.4099 0.2190
41.1800 27.4232 0.2231
41.2000 27.4366 0.2253
41.2200 27.4499 0.2182
41.2400 27.4632 0.2263
41.2600 27.4766 0.2222
41.2800 27.4899 0.2151
41.3000 27.5032 0.2223
41.3200 27.5165 0.2247
41.3400 27.5298 0.2104
41.3600 27.5431 0.2221
41.3800 27.5565 0.2228
41.4000 27.5698 0.2080
41.4200 27.5831 0.2240
41.4400 27.5964 0.2200
41.4600 27.6098 0.2072
41.4800 27.6231 0.2251
41.5000 27.6365 0.2201
41.5200 27.6499 0.2076
41.5400 27.6632 0.2223
41.5600 27.6766 0.2167
41.5800 27.6899 0.2072
41.6000 27.7032 0.2266
41.6200 27.7165 0.2176
41.6400 27.7299 0.2063
41.6600 27.7432 0.2259
41.6800 27.7565 0.2122
41.7000 27.7698 0.2085
41.7200 27.7831 0.2206
41.7400 27.7965 0.2097
41.7600 27.8098 0.2122
41.7800 27.8231 0.2111
41.8000 27.8365 0.2113
41.8200 27.8498 0.2119
41.8400 27.8632 0.2106
41.8600 27.8765 0.2088
41.8800 27.8898 0.2141
41.9000 27.9032 0.2106
41.9200 27.9165 0.2091
41.9400 27.9299 0.2126
41.9600 27.9432 0.2048
41.9800 27.9566 0.2095
42.0000 27.9699 0.2095
42.0200 27.9832 0.2086
42.0400 27.9965 0.2140
42.0600 28.0098 0.2039
42.0800 28.0232 0.2046
42.1000 28.0365 0.2087
42.1200 28.0498 0.1976
42.1400 28.0631 0.2072
42.1600 28.0764 0.2114
42.1800 28.0898 0.1900
42.2000 28.1031 0.2041
42.2200 28.1165 0.2141
42.2400 28.1299 0.1927
42.2600 28.1432 0.2059
42.2800 28.1566 0.2080
42.3000 28.1699 0.1949
42.3200 28.1832 0.2032
42.3400 28.1965 0.2053
42.3600 28.2099 0.1948
42.3800 28.2231 0.2047
42.4000 28.2364 0.2004
42.4200 28.2498 0.1944
42.4400 28.2631 0.1980
42.4600 28.2765 0.1966
42.4800 28.2898 0.1935
42.5000 28.3031 0.1968
42.5200 28.3165 0.1968
42.5400 28.3298 0.1931
42.5600 28.3431 0.1946
42.5800 28.3564 0.2032
42.6000 28.3698 0.1869
42.6200 28.3832 0.1947
42.6400 28.3965 0.1989
42.6600 28.4099 0.1871
42.6800 28.4232 0.1934
42.7000 28.4366 0.1933
42.7200 28.4499 0.1827
42.7400 28.4632 0.1961
42.7600 28.4765 0.1996
42.7800 28.4898 0.1828
42.8000 28.5032 0.1962
42.8200 28.5165 0.1895
42.8400 28.5298 0.1803
42.8600 28.5431 0.1937
42.8800 28.5565 0.1878
42.9000 28.5698 0.1830
42.9200 28.5831 0.1915
42.9400 28.5965 0.1846
42.9600 28.6098 0.1812
42.9800 28.6232 0.1926
43.0000 28.6365 0.1775
43.0200 28.6498 0.1828
43.0400 28.6632 0.1924
43.0600 28.6765 0.1769
43.0800 28.6899 0.1850
43.1000 28.7032 0.1856
43.1200 28.7165 0.1807
43.1400 28.7298 0.1803
43.1600 28.7432 0.1848
43.1800 28.7565 0.1819
43.2000 28.7698 0.1806
43.2200 28.7831 0.1798
43.2400 28.7964 0.1778
43.2600 28.8098 0.1851
43.2800 28.8231 0.1813
43.3000 28.8364 0.1757
43.3200 28.8498 0.1768
43.3400 28.8632 0.1811
43.3600 28.8766 0.1774
43.3800 28.8899 0.1770
43.4000 28.9033 0.1757
43.4200 28.9166 0.1771
43.4400 28.9299 0.1801
43.4600 28.9432 0.1744
43.4800 28.9564 0.1773
43.5000 28.9697 0.1774
43.5200 28.9831 0.1726
43.5400 28.9964 0.1764
43.5600 29.0098 0.1769
43.5800 29.0231 0.1725
43.6000 29.0365 0.1717
43.6200 29.0498 0.1694
43.6400 29.0632 0.1717
43.6600 29.0765 0.1721
43.6800 29.0899 0.1668
43.7000 29.1032 0.1689
43.7200 29.1166 0.1678
43.7400 29.1299 0.1668
43.7600 29.1432 0.1699
43.7800 29.1565 0.1702
43.8000 29.1699 0.1610
43.8200 29.1832 0.1671
43.8400 29.1965 0.1685
43.8600 29.2098 0.1616
43.8800 29.2231 0.1695
43.9000 29.2365 0.1667
43.9200 29.2498 0.1623
43.9400 29.2631 0.1717
43.9600 29.2764 0.1654
43.9800 29.2898 0.1605
44.0000 29.3031 0.1680
44.0200 29.3165 0.1655
44.0400 29.3298 0.1577
44.0600 29.3432 0.1720
44.0800 29.3565 0.1639
44.1000 29.3698 0.1597
44.1200 29.3832 0.1701
44.1400 29.3965 0.1590
44.1600 29.4099 0.1637
44.1800 29.4232 0.1657
44.2000 29.4365 0.1577
44.2200 29.4498 0.1650
44.2400 29.4632 0.1629
44.2600 29.4765 0.1556
44.2800 29.4898 0.1621
44.3000 29.5031 0.1667
44.3200 29.5164 0.1581
44.3400 29.5298 0.1578
44.3600 29.5431 0.1598
44.3800 29.5565 0.1549
44.4000 29.5698 0.1644
44.4200 29.5832 0.1580
44.4400 29.5966 0.1512
44.4600 29.6099 0.1538
44.4800 29.6232 0.1606
44.5000 29.6365 0.1516
44.5200 29.6499 0.1553
44.5400 29.6632 0.1577
44.5600 29.6765 0.1527
44.5800 29.6898 0.1573
44.6000 29.7031 0.1604
44.6200 29.7165 0.1498
44.6400 29.7298 0.1579
44.6600 29.7431 0.1529
44.6800 29.7564 0.1464
44.7000 29.7698 0.1543
44.7200 29.7831 0.1552
44.7400 29.7965 0.1481
44.7600 29.8098 0.1529
44.7800 29.8232 0.1514
44.8000 29.8365 0.1445
44.8200 29.8499 0.1504
44.8400 29.8632 0.1527
44.8600 29.8765 0.1426
44.8800 29.8899 0.1504
44.9000 29.9032 0.1503
44.9200 29.9165 0.1420
44.9400 29.9298 0.1504
44.9600 29.9432 0.1476
44.9800 29.9565 0.1460
45.0000 29.9698 0.1471
45.0200 29.9831 0.1450
45.0400 29.9964 0.1462
45.0600 30.0098 0.1460
45.0800 30.0231 0.1410
45.1000 30.0365 0.1426
45.1200 30.0498 0.1485
45.1400 30.0632 0.1391
45.1600 30.0766 0.1403
45.1800 30.0899 0.1470
45.2000 30.1032 0.1428
45.2200 30.1165 0.1387
45.2400 30.1299 0.1446
45.2600 30.1432 0.1396
45.2800 30.1565 0.1373
45.3000 30.1698 0.1409
45.3200 30.1831 0.1407
45.3400 30.1965 0.1391
45.3600 30.2098 0.1351
45.3800 30.2231 0.1410
45.4000 30.2364 0.1341
45.4200 30.2498 0.1372
45.4400 30.2631 0.1378
45.4600 30.2765 0.1357
45.4800 30.2898 0.1356
45.5000 30.3032 0.1378
45.5200 30.3166 0.1321
45.5400 30.3299 0.1362
45.5600 30.3432 0.1371
45.5800 30.3565 0.1297
45.6000 30.3699 0.1359
45.6200 30.3832 0.1368
45.6400 30.3965 0.1310
45.6600 30.4098 0.1392
45.6800 30.4231 0.1338
45.7000 30.4364 0.1282
45.7200 30.4498 0.1399
45.7400 30.4631 0.1343
45.7600 30.4765 0.1342
45.7800 30.4898 0.1357
45.8000 30.5032 0.1264
45.8200 30.5165 0.1374
45.8400 30.5298 0.1361
45.8600 30.5432 0.1330
45.8800 30.5565 0.1341
45.9000 30.5698 0.1289
45.9200 30.5831 0.1360
45.9400 30.5965 0.1355
45.9600 30.6098 0.1280
45.9800 30.6232 0.1370
46.0000 30.6365 0.1346
46.0200 30.6498 0.1240
46.0400 30.6632 0.1396
46.0600 30.6765 0.1318
46.0800 30.6898 0.1243
46.1000 30.7031 0.1377
46.1200 30.7165 0.1285
46.1400 30.7298 0.1194
46.1600 30.7431 0.1366
46.1800 30.7565 0.1279
46.2000 30.7698 0.1188
46.2200 30.7831 0.1382
46.2400 30.7965 0.1210
46.2600 30.8098 0.1138
46.2800 30.8232 0.1368
46.3000 30.8365 0.1155
46.3200 30.8499 0.1204
46.3400 30.8632 0.1351
46.3600 30.8765 0.1114
46.3800 30.8898 0.1199
46.4000 30.9032 0.1346
46.4200 30.9165 0.1127
46.4400 30.9299 0.1187
46.4600 30.9432 0.1305
46.4800 30.9565 0.1165
46.5000 30.9698 0.1176
46.5200 30.9831 0.1294
46.5400 30.9965 0.1123
46.5600 31.0098 0.1171
46.5800 31.0232 0.1264
46.6000 31.0366 0.1091
46.6200 31.0499 0.1189
46.6400 31.0632 0.1254
46.6600 31.0765 0.1122
46.6800 31.0899 0.1164
46.7000 31.1032 0.1232
46.7200 31.1165 0.1074
46.7400 31.1298 0.1178
46.7600 31.1432 0.1204
46.7800 31.1565 0.1101
46.8000 31.1698 0.1178
46.8200 31.1831 0.1202
46.8400 31.1965 0.1107
46.8600 31.2098 0.1130
46.8800 31.2232 0.1141
46.9000 31.2365 0.1128
46.9200 31.2498 0.1131
46.9400 31.2632 0.1166
46.9600 31.2765 0.1103
46.9800 31.2899 0.1070
47.0000 31.3032 0.1144
47.0200 31.3165 0.1101
47.0400 31.3299 0.1070
47.0600 31.3432 0.1144
47.0800 31.3565 0.1062
47.1000 31.3698 0.1072
47.1200 31.3832 0.1120
47.1400 31.3965 0.1082
47.1600 31.4098 0.1028
47.1800 31.4231 0.1114
47.2000 31.4364 0.1058
47.2200 31.4498 0.1071
47.2400 31.4631 0.1153
47.2600 31.4765 0.1054
47.2800 31.4898 0.1089
47.3000 31.5032 0.1094
47.3200 31.5165 0.1040
47.3400 31.5299 0.1082
47.3600 31.5432 0.1129
47.3800 31.5565 0.1012
47.4000 31.5699 0.1050
47.4200 31.5832 0.1099
47.4400 31.5965 0.0969
47.4600 31.6098 0.1097
47.4800 31.6231 0.1133
47.5000 31.6365 0.0954
47.5200 31.6498 0.1048
47.5400 31.6631 0.1110
47.5600 31.6765 0.0988
47.5800 31.6898 0.1041
47.6000 31.7031 0.1062
47.6200 31.7165 0.0949
47.6400 31.7298 0.1047
47.6600 31.7432 0.1022
47.6800 31.7566 0.0926
47.7000 31.7699 0.1054
47.7200 31.7832 0.0968
47.7400 31.7965 0.0948
47.7600 31.8099 0.1020
47.7800 31.8232 0.0979
47.8000 31.8365 0.0928
47.8200 31.8498 0.1009
47.8400 31.8631 0.0975
47.8600 31.8765 0.0884
47.8800 31.8898 0.0993
47.9000 31.9031 0.0971
47.9200 31.9164 0.0918
47.9400 31.9298 0.0966
47.9600 31.9431 0.0914
47.9800 31.9565 0.0954
48.0000 31.9698 0.0962
48.0200 31.9831 0.0901
48.0400 31.9965 0.0935
48.0600 32.0098 0.0909
48.0800 32.0231 0.0883
48.1000 32.0365 0.0960
48.1200 32.0498 0.0930
48.1400 32.0632 0.0869
48.1600 32.0765 0.0902
48.1800 32.0899 0.0907
48.2000 32.1032 0.0917
48.2200 32.1166 0.0879
48.2400 32.1299 0.0901
48.2600 32.1431 0.0917
48.2800 32.1564 0.0831
48.3000 32.1697 0.0936
48.3200 32.1831 0.0874
48.3400 32.1964 0.0871
48.3600 32.2098 0.0884
48.3800 32.2231 0.0853
48.4000 32.2365 0.0809
48.4200 32.2499 0.0881
48.4400 32.2632 0.0872
48.4600 32.2765 0.0835
48.4800 32.2899 0.0886
48.5000 32.3032 0.0834
48.5200 32.3165 0.0816
48.5400 32.3298 0.0864
48.5600 32.3431 0.0813
48.5800 32.3565 0.0850
48.6000 32.3698 0.0824
48.6200 32.3831 0.0766
48.6400 32.3964 0.0858
48.6600 32.4098 0.0815
48.6800 32.4231 0.0734
48.7000 32.4365 0.0827
48.7200 32.4498 0.0818
48.7400 32.4632 0.0781
48.7600 32.4765 0.0779
48.7800 32.4899 0.0767
48.8000 32.5032 0.0762
48.8200 32.5166 0.0770
48.8400 32.5299 0.0775
48.8600 32.5432 0.0811
48.8800 32.5565 0.0803
48.9000 32.5698 0.0763
48.9200 32.5831 0.0808
48.9400 32.5965 0.0797
48.9600 32.6098 0.0739
48.9800 32.6231 0.0782
49.0000 32.6364 0.0761
49.0200 32.6498 0.0745
49.0400 32.6631 0.0761
49.0600 32.6765 0.0687
49.0800 32.6898 0.0782
49.1000 32.7032 0.0714
49.1200 32.7165 0.0706
49.1400 32.7299 0.0754
49.1600 32.7432 0.0657
49.1800 32.7565 0.0734
49.2000 32.7699 0.0792
49.2200 32.7832 0.0664
49.2400 32.7965 0.0674
49.2600 32.8098 0.0805
49.2800 32.8232 0.0658
49.3000 32.8365 0.0722
49.3200 32.8498 0.0748
49.3400 32.8631 0.0587
49.3600 32.8764 0.0769
49.3800 32.8898 0.0684
49.4000 32.9031 0.0632
49.4200 32.9165 0.0721
49.4400 32.9298 0.0653
49.4600 32.9432 0.0644
49.4800 32.9565 0.0716
49.5000 32.9699 0.0650
49.5200 32.9832 0.0632
49.5400 32.9965 0.0707
49.5600 33.0099 0.0660
49.5800 33.0232 0.0663
49.6000 33.0365 0.0633
49.6200 33.0498 0.0649
49.6400 33.0631 0.0700
49.6600 33.0765 0.0662
49.6800 33.0898 0.0652
49.7000 33.1031 0.0666
49.7200 33.1164 0.0646
49.7400 33.1298 0.0697
49.7600 33.1431 0.0706
49.7800 33.1565 0.0591
49.8000 33.1698 0.0723
49.8200 33.1831 0.0652
49.8400 33.1965 0.0523
49.8600 33.2099 0.0697
49.8800 33.2232 0.0639
49.9000 33.2365 0.0541
49.9200 33.2499 0.0685
49.9400 33.2633 0.0643
49.9600 33.2766 0.0522
49.9800 33.2899 0.0698
50.0000 33.3032 0.0574
50.0200 33.3165 0.0565
50.0400 33.3298 0.0684
50.0600 33.3432 0.0484
50.0800 33.3564 0.0565
50.1000 33.3698 0.0681
50.1200 33.3831 0.0492
50.1400 33.3965 0.0564
50.1600 33.4098 0.0598
50.1800 33.4232 0.0489
50.2000 33.4365 0.0558
50.2200 33.4499 0.0616
50.2400 33.4632 0.0493
50.2600 33.4765 0.0544
50.2800 33.4898 0.0653
50.3000 33.5032 0.0469
50.3200 33.5165 0.0493
50.3400 33.5299 0.0624
50.3600 33.5432 0.0491
50.3800 33.5565 0.0486
50.4000 33.5699 0.0649
50.4200 33.5832 0.0403
50.4400 33.5964 0.0512
50.4600 33.6098 0.0597
50.4800 33.6231 0.0392
50.5000 33.6364 0.0543
50.5200 33.6497 0.0546
50.5400 33.6631 0.0363
50.5600 33.6765 0.0537
50.5800 33.6899 0.0459
50.6000 33.7033 0.0387
50.6200 33.7166 0.0566
50.6400 33.7299 0.0446
50.6600 33.7432 0.0409
50.6800 33.7565 0.0501
50.7000 33.7698 0.0425
50.7200 33.7831 0.0438
50.7400 33.7964 0.0499
50.7600 33.8098 0.0386
50.7800 33.8231 0.0415
50.8000 33.8364 0.0476
50.8200 33.8498 0.0375
50.8400 33.8631 0.0490
50.8600 33.8765 0.0417
50.8800 33.8898 0.0345
50.9000 33.9032 0.0455
50.9200 33.9165 0.0363
50.9400 33.9299 0.0415
50.9600 33.9432 0.0439
50.9800 33.9565 0.0329
51.0000 33.9698 0.0420
51.0200 33.9832 0.0405
51.0400 33.9965 0.0369
51.0600 34.0098 0.0390
51.0800 34.0231 0.0347
51.1000 34.0365 0.0373
51.1200 34.0498 0.0411
51.1400 34.0631 0.0291
51.1600 34.0764 0.0353
51.1800 34.0898 0.0433
51.2000 34.1031 0.0308
51.2200 34.1165 0.0358
51.2400 34.1298 0.0405
51.2600 34.1432 0.0304
51.2800 34.1565 0.0364
51.3000 34.1699 0.0401
51.3200 34.1832 0.0288
51.3400 34.1965 0.0330
51.3600 34.2098 0.0394
51.3800 34.2232 0.0280
51.4000 34.2366 0.0327
51.4200 34.2499 0.0371
51.4400 34.2632 0.0277
51.4600 34.2765 0.0365
51.4800 34.2898 0.0369
51.5000 34.3032 0.0241
51.5200 34.3164 0.0332
51.5400 34.3298 0.0356
51.5600 34.3431 0.0246
51.5800 34.3565 0.0345
51.6000 34.3698 0.0314
51.6200 34.3831 0.0220
51.6400 34.3965 0.0340
51.6600 34.4099 0.0318
51.6800 34.4232 0.0247
51.7000 34.4366 0.0337
51.7200 34.4499 0.0302
51.7400 34.4632 0.0201
51.7600 34.4766 0.0293
51.7800 34.4898 0.0290
51.8000 34.5031 0.0214
51.8200 34.5165 0.0268
51.8400 34.5298 0.0248
51.8600 34.5432 0.0207
51.8800 34.5565 0.0245
51.9000 34.5698 0.0263
51.9200 34.5831 0.0179
51.9400 34.5965 0.0244
51.9600 34.6098 0.0239
51.9800 34.6231 0.0150
52.0000 34.6365 0.0280
52.0200 34.6498 0.0200
52.0400 34.6632 0.0101
52.0600 34.6765 0.0253
52.0800 34.6898 0.0215
52.1000 34.7032 0.0135
52.1200 34.7166 0.0217
52.1400 34.7299 0.0110
52.1600 34.7432 0.0198
52.1800 34.7565 0.0174
52.2000 34.7698 0.0174
52.2200 34.7831 0.0200
52.2400 34.7964 0.0143
52.2600 34.8098 0.0162
52.2800 34.8231 0.0194
52.3000 34.8365 0.0084
52.3200 34.8498 0.0151
52.3400 34.8631 0.0222
52.3600 34.8765 0.0055
52.3800 34.8899 0.0161
52.4000 34.9032 0.0210
52.4200 34.9165 0.0049
52.4400 34.9298 0.0174
52.4600 34.9432 0.0160
52.4800 34.9565 0.0077
52.5000 34.9699 0.0129
52.5200 34.9832 0.0161
52.5400 34.9965 0.0089
52.5600 35.0098 0.0138
52.5800 35.0232 0.0124
52.6000 35.0365 0.0101
52.6200 35.0498 0.0132
52.6400 35.0631 0.0090
52.6600 35.0764 0.0127
52.6800 35.0898 0.0073
52.7000 35.1031 0.0123
52.7200 35.1165 0.0112
52.7400 35.1299 0.0070
52.7600 35.1432 0.0142
52.7800 35.1565 0.0089
52.8000 35.1699 0.0079
52.8200 35.1832 0.0123
52.8400 35.1965 0.0077
52.8600 35.2098 0.0083
52.8800 35.2231 0.0153
52.9000 35.2364 0.0086
52.9200 35.2498 0.0050
52.9400 35.2631 0.0127
52.9600 35.2764 0.0037
52.9800 35.2898 0.0086
53.0000 35.3032 0.0126
53.0200 35.3165 0.0030
53.0400 35.3299 0.0029
53.0600 35.3432 0.0086
53.0800 35.3565 0.0047
53.1000 35.3699 0.0048
53.1200 35.3832 0.0054
53.1400 35.3965 0.0020
53.1600 35.4098 0.0050
53.1800 35.4232 0.0049
53.2000 35.4365 0.0005
53.2200 35.4498 0.0004
53.2400 35.4632 0.0073
53.2600 35.4765 0.0006
53.2800 35.4899 -0.0053
53.3000 35.5032 0.0052
53.3200 35.5165 -0.0006
53.3400 35.5298 -0.0039
53.3600 35.5431 0.0058
53.3800 35.5564 -0.0044
53.4000 35.5698 -0.0044
53.4200 35.5831 0.0066
53.4400 35.5965 -0.0032
53.4600 35.6098 -0.0066
53.4800 35.6232 0.0023
53.5000 35.6365 -0.0100
53.5200 35.6499 -0.0027
53.5400 35.6632 0.0066
53.5600 35.6765 -0.0103
53.5800 35.6899 -0.0100
53.6000 35.7032 0.0034
53.6200 35.7165 -0.0116
53.6400 35.7299 -0.0061
53.6600 35.7432 0.0028
53.6800 35.7565 -0.0149
53.7000 35.7698 -0.0076
53.7200 35.7831 -0.0009
53.7400 35.7965 -0.0130
53.7600 35.8098 -0.0076
53.7800 35.8231 -0.0094
53.8000 35.8365 -0.0090
53.8200 35.8499 -0.0085
53.8400 35.8632 -0.0110
53.8600 35.8765 -0.0134
53.8800 35.8899 -0.0077
53.9000 35.9032 -0.0115
53.9200 35.9166 -0.0155
53.9400 35.9299 -0.0156
53.9600 35.9432 -0.0083
53.9800 35.9565 -0.0146
54.0000 35.9698 -0.0171
54.0200 35.9831 -0.0128
54.0400 35.9965 -0.0151
54.0600 36.0098 -0.0179
54.0800 36.0231 -0.0136
54.1000 36.0365 -0.0170
54.1200 36.0498 -0.0164
54.1400 36.0632 -0.0177
54.1600 36.0765 -0.0190
54.1800 36.0898 -0.0168
54.2000 36.1032 -0.0172
54.2200 36.1165 -0.0168
54.2400 36.1299 -0.0178
54.2600 36.1432 -0.0200
54.2800 36.1566 -0.0117
54.3000 36.1699 -0.0167
54.3200 36.1832 -0.0220
54.3400 36.1965 -0.0186
54.3600 36.2098 -0.0219
54.3800 36.2232 -0.0185
54.4000 36.2365 -0.0201
54.4200 36.2498 -0.0212
54.4400 36.2631 -0.0212
54.4600 36.2764 -0.0231
54.4800 36.2898 -0.0242
54.5000 36.3031 -0.0202
54.5200 36.3165 -0.0212
54.5400 36.3299 -0.0284
54.5600 36.3433 -0.0238
54.5800 36.3566 -0.0277
54.6000 36.3699 -0.0272
54.6200 36.3832 -0.0216
54.6400 36.3965 -0.0284
54.6600 36.4099 -0.0263
54.6800 36.4231 -0.0250
54.7000 36.4365 -0.0254
54.7200 36.4498 -0.0262
54.7400 36.4632 -0.0243
54.7600 36.4765 -0.0306
54.7800 36.4898 -0.0295
54.8000 36.5031 -0.0231
54.8200 36.5165 -0.0318
54.8400 36.5298 -0.0314
54.8600 36.5431 -0.0280
54.8800 36.5565 -0.0282
54.9000 36.5698 -0.0352
54.9200 36.5832 -0.0308
54.9400 36.5965 -0.0276
54.9600 36.6098 -0.0364
54.9800 36.6232 -0.0281
55.0000 36.6365 -0.0287
55.0200 36.6499 -0.0385
55.0400 36.6632 -0.0345
55.0600 36.6764 -0.0307
55.0800 36.6898 -0.0348
55.1000 36.7031 -0.0305
55.1200 36.7164 -0.0336
55.1400 36.7298 -0.0405
55.1600 36.7431 -0.0292
55.1800 36.7565 -0.0342
55.2000 36.7698 -0.0404
55.2200 36.7831 -0.0314
55.2400 36.7965 -0.0377
55.2600 36.8098 -0.0373
55.2800 36.8232 -0.0360
55.3000 36.8365 -0.0414
55.3200 36.8498 -0.0368
55.3400 36.8631 -0.0386
55.3600 36.8765 -0.0388
55.3800 36.8899 -0.0423
55.4000 36.9032 -0.0378
55.4200 36.9165 -0.0462
55.4400 36.9299 -0.0388
55.4600 36.9432 -0.0363
55.4800 36.9565 -0.0453
55.5000 36.9698 -0.0359
55.5200 36.9831 -0.0414
55.5400 36.9964 -0.0429
55.5600 37.0097 -0.0388
55.5800 37.0231 -0.0445
55.6000 37.0365 -0.0416
55.6200 37.0499 -0.0408
55.6400 37.0633 -0.0434
55.6600 37.0766 -0.0432
55.6800 37.0899 -0.0432
55.7000 37.1032 -0.0455
55.7200 37.1166 -0.0398
55.7400 37.1299 -0.0503
55.7600 37.1432 -0.0447
55.7800 37.1565 -0.0421
55.8000 37.1698 -0.0497
55.8200 37.1832 -0.0420
55.8400 37.1965 -0.0434
55.8600 37.2098 -0.0505
55.8800 37.2231 -0.0468
55.9000 37.2364 -0.0510
55.9200 37.2498 -0.0471
55.9400 37.2631 -0.0484
55.9600 37.2765 -0.0512
55.9800 37.2898 -0.0510
56.0000 37.3032 -0.0505
56.0200 37.3166 -0.0534
56.0400 37.3299 -0.0519
56.0600 37.3432 -0.0500
56.0800 37.3566 -0.0555
56.1000 37.3699 -0.0521
56.1200 37.3832 -0.0548
56.1400 37.3965 -0.0518
56.1600 37.4098 -0.0558
56.1800 37.4232 -0.0597
56.2000 37.4365 -0.0565
56.2200 37.4498 -0.0593
56.2400 37.4631 -0.0574
56.2600 37.4765 -0.0525
56.2800 37.4898 -0.0650
56.3000 37.5031 -0.0589
56.3200 37.5165 -0.0555
56.3400 37.5298 -0.0627
56.3600 37.5432 -0.0586
56.3800 37.5565 -0.0528
56.4000 37.5698 -0.0650
56.4200 37.5832 -0.0530
56.4400 37.5965 -0.0572
56.4600 37.6099 -0.0668
56.4800 37.6232 -0.0567
56.5000 37.6365 -0.0628
56.5200 37.6498 -0.0662
56.5400 37.6632 -0.0562
56.5600 37.6765 -0.0644
56.5800 37.6898 -0.0633
56.6000 37.7031 -0.0559
56.6200 37.7164 -0.0657
56.6400 37.7298 -0.0662
56.6600 37.7431 -0.0630
56.6800 37.7565 -0.0654
56.7000 37.7698 -0.0666
56.7200 37.7832 -0.0591
56.7400 37.7966 -0.0690
56.7600 37.8099 -0.0642
56.7800 37.8232 -0.0625
56.8000 37.8365 -0.0717
56.8200 37.8499 -0.0600
56.8400 37.8632 -0.0684
56.8600 37.8765 -0.0724
56.8800 37.8898 -0.0580
56.9000 37.9032 -0.0742
56.9200 37.9165 -0.0762
56.9400 37.9298 -0.0612
56.9600 37.9431 -0.0721
56.9800 37.9565 -0.0738
57.0000 37.9698 -0.0660
57.0200 37.9831 -0.0757
57.0400 37.9965 -0.0702
57.0600 38.0098 -0.0688
57.0800 38.0232 -0.0773
57.1000 38.0366 -0.0761
57.1200 38.0499 -0.0707
57.1400 38.0632 -0.0768
57.1600 38.0766 -0.0748
57.1800 38.0899 -0.0770
57.2000 38.1032 -0.0774
57.2200 38.1165 -0.0749
57.2400 38.1298 -0.0798
57.2600 38.1431 -0.0732
57.2800 38.1565 -0.0801
57.3000 38.1698 -0.0849
57.3200 38.1831 -0.0737
57.3400 38.1964 -0.0837
57.3600 38.2098 -0.0807
57.3800 38.2231 -0.0721
57.4000 38.2364 -0.0725
57.4200 38.2498 -0.0870
57.4400 38.2632 -0.0874
57.4600 38.2766 -0.0782
57.4800 38.2899 -0.0872
57.5000 38.3032 -0.0890
57.5200 38.3165 -0.0667
57.5400 38.3299 -0.0960
57.5600 38.3432 -0.0938
57.5800 38.3565 -0.0662
57.6000 38.3698 -0.0962
57.6200 38.3832 -0.0997
57.6400 38.3965 -0.0629
57.6600 38.4098 -0.0915
57.6800 38.4231 -0.1059
57.7000 38.4364 -0.0698
57.7200 38.4497 -0.0922
57.7400 38.4631 -0.0976
57.7600 38.4764 -0.0726
57.7800 38.4898 -0.0936
57.8000 38.5032 -0.1042
57.8200 38.5166 -0.0713
57.8400 38.5299 -0.0966
57.8600 38.5432 -0.1031
57.8800 38.5566 -0.0759
57.9000 38.5699 -0.1018
57.9200 38.5832 -0.1037
57.9400 38.5965 -0.0772
57.9600 38.6098 -0.1027
57.9800 38.6231 -0.0913
58.0000 38.6364 -0.0832
58.0200 38.6498 -0.1051
58.0400 38.6631 -0.0853
58.0600 38.6765 -0.0895
58.0800 38.6898 -0.1064
58.1000 38.7032 -0.0911
58.1200 38.7165 -0.0955
58.1400 38.7299 -0.1069
58.1600 38.7432 -0.0846
58.1800 38.7566 -0.1060
58.2000 38.7699 -0.1076
58.2200 38.7832 -0.0832
58.2400 38.7965 -0.1085
58.2600 38.8099 -0.1002
58.2800 38.8232 -0.0863
58.3000 38.8365 -0.1078
58.3200 38.8498 -0.0995
58.3400 38.8631 -0.0906
58.3600 38.8765 -0.1055
58.3800 38.8898 -0.0986
58.4000 38.9031 -0.0947
58.4200 38.9165 -0.1102
58.4400 38.9298 -0.0967
58.4600 38.9432 -0.0999
58.4800 38.9565 -0.1092
58.5000 38.9699 -0.1036
58.5200 38.9832 -0.0991
58.5400 38.9966 -0.1121
58.5600 39.0099 -0.1061
58.5800 39.0232 -0.1064
58.6000 39.0365 -0.1132
58.6200 39.0499 -0.1005
58.6400 39.0632 -0.1003
58.6600 39.0765 -0.1137
58.6800 39.0898 -0.1033
58.7000 39.1031 -0.1024
58.7200 39.1165 -0.1140
58.7400 39.1298 -0.1121
58.7600 39.1431 -0.1059
58.7800 39.1564 -0.1148
58.8000 39.1698 -0.1175
58.8200 39.1831 -0.1091
58.8400 39.1965 -0.1116
58.8600 39.2098 -0.1152
58.8800 39.2232 -0.1146
58.9000 39.2366 -0.1162
58.9200 39.2499 -0.1168
58.9400 39.2632 -0.1090
58.9600 39.2765 -0.1150
58.9800 39.2899 -0.1234
59.0000 39.3032 -0.1162
59.0200 39.3165 -0.1172
59.0400 39.3298 -0.1174
59.0600 39.3431 -0.1171
59.0800 39.3565 -0.1217
59.1000 39.3698 -0.1203
59.1200 39.3831 -0.1205
59.1400 39.3964 -0.1250
59.1600 39.4098 -0.1252
59.1800 39.4231 -0.1240
59.2000 39.4365 -0.1335
59.2200 39.4498 -0.1191
59.2400 39.4631 -0.1207
59.2600 39.4765 -0.1388
59.2800 39.4899 -0.1148
59.3000 39.5032 -0.1249
59.3200 39.5165 -0.1387
59.3400 39.5299 -0.1190
59.3600 39.5432 -0.1346
59.3800 39.5565 -0.1368
59.4000 39.5698 -0.1219
59.4200 39.5831 -0.1272
59.4400 39.5965 -0.1396
59.4600 39.6098 -0.1269
59.4800 39.6231 -0.1317
59.5000 39.6364 -0.1340
59.5200 39.6498 -0.1237
59.5400 39.6631 -0.1367
59.5600 39.6764 -0.1361
59.5800 39.6898 -0.1254
59.6000 39.7032 -0.1385
59.6200 39.7166 -0.1366
59.6400 39.7299 -0.1270
59.6600 39.7432 -0.1405
59.6800 39.7565 -0.1394
59.7000 39.7699 -0.1319
59.7200 39.7832 -0.1419
59.7400 39.7965 -0.1351
59.7600 39.8098 -0.1348
59.7800 39.8232 -0.1451
59.8000 39.8365 -0.1376
59.8200 39.8498 -0.1377
59.8400 39.8631 -0.1460
59.8600 39.8764 -0.1357
59.8800 39.8898 -0.1347
59.9000 39.9031 -0.1458
59.9200 39.9164 -0.1421
59.9400 39.9298 -0.1380
59.9600 39.9432 -0.1526
59.9800 39.9566 -0.1483
60.0000 39.9699 -0.1462
60.0200 39.9832 -0.1476
60.0400 39.9965 -0.1561
60.0460 40.0004 -0.1673
