Raw Data
Time Displacement Force
(s) (mm) (N)
0.0000 0.0000 0.4492
0.0200 0.0001 0.4645
0.0400 0.0021 0.5289
0.0600 0.0097 0.5184
0.0800 0.0214 0.4441
0.1000 0.0338 0.4522
0.1200 0.0465 0.4846
0.1400 0.0601 0.4515
0.1600 0.0742 0.4542
0.1800 0.0885 0.4562
0.2000 0.1024 0.4430
0.2200 0.1160 0.4603
0.2400 0.1293 0.4591
0.2600 0.1426 0.4492
0.2800 0.1559 0.4660
0.3000 0.1693 0.4527
0.3200 0.1827 0.4501
0.3400 0.1961 0.4669
0.3600 0.2094 0.4529
0.3800 0.2227 0.4486
0.4000 0.2361 0.4640
0.4200 0.2494 0.4454
0.4400 0.2627 0.4600
0.4600 0.2760 0.4595
0.4800 0.2893 0.4455
0.5000 0.3027 0.4559
0.5200 0.3160 0.4486
0.5400 0.3293 0.4435
0.5600 0.3427 0.4625
0.5800 0.3560 0.4476
0.6000 0.3694 0.4387
0.6200 0.3827 0.4535
0.6400 0.3961 0.4491
0.6600 0.4094 0.4360
0.6800 0.4228 0.4515
0.7000 0.4361 0.4471
0.7200 0.4494 0.4367
0.7400 0.4627 0.4486
0.7600 0.4761 0.4442
0.7800 0.4894 0.4426
0.8000 0.5027 0.4477
0.8200 0.5161 0.4412
0.8400 0.5294 0.4406
0.8600 0.5427 0.4414
0.8800 0.5560 0.4466
0.9000 0.5693 0.4401
0.9200 0.5826 0.4424
0.9400 0.5960 0.4405
0.9600 0.6093 0.4333
0.9800 0.6227 0.4434
1.0000 0.6360 0.4391
1.0200 0.6494 0.4364
1.0400 0.6628 0.4394
1.0600 0.6761 0.4382
1.0800 0.6894 0.4336
1.1000 0.7027 0.4360
1.1200 0.7161 0.4350
1.1400 0.7294 0.4379
1.1600 0.7427 0.4281
1.1800 0.7560 0.4309
1.2000 0.7694 0.4367
1.2200 0.7827 0.4232
1.2400 0.7960 0.4304
1.2600 0.8094 0.4299
1.2800 0.8227 0.4224
1.3000 0.8360 0.4312
1.3200 0.8494 0.4252
1.3400 0.8627 0.4186
1.3600 0.8760 0.4299
1.3800 0.8894 0.4244
1.4000 0.9028 0.4190
1.4200 0.9161 0.4272
1.4400 0.9294 0.4212
1.4600 0.9427 0.4238
1.4800 0.9561 0.4227
1.5000 0.9694 0.4199
1.5200 0.9827 0.4202
1.5400 0.9960 0.4236
1.5600 1.0094 0.4167
1.5800 1.0227 0.4211
1.6000 1.0360 0.4238
1.6200 1.0493 0.4123
1.6400 1.0626 0.4214
1.6600 1.0760 0.4203
1.6800 1.0893 0.4102
1.7000 1.1027 0.4154
1.7200 1.1160 0.4175
1.7400 1.1294 0.4105
1.7600 1.1428 0.4208
1.7800 1.1561 0.4135
1.8000 1.1694 0.4128
1.8200 1.1828 0.4142
1.8400 1.1961 0.4132
1.8600 1.2094 0.4126
1.8800 1.2227 0.4115
1.9000 1.2360 0.4126
1.9200 1.2494 0.4137
1.9400 1.2627 0.4110
1.9600 1.2760 0.4066
1.9800 1.2893 0.4106
2.0000 1.3027 0.4116
2.0200 1.3160 0.4080
2.0400 1.3294 0.4081
2.0600 1.3427 0.4055
2.0800 1.3560 0.4121
2.1000 1.3694 0.4017
2.1200 1.3828 0.4029
2.1400 1.3961 0.4084
2.1600 1.4094 0.3998
2.1800 1.4227 0.3981
2.2000 1.4361 0.4028
2.2200 1.4494 0.3998
2.2400 1.4627 0.3990
2.2600 1.4760 0.4063
2.2800 1.4893 0.3955
2.3000 1.5027 0.3972
2.3200 1.5160 0.4034
2.3400 1.5293 0.3899
2.3600 1.5427 0.4018
2.3800 1.5561 0.4001
2.4000 1.5694 0.3890
2.4200 1.5827 0.4017
2.4400 1.5961 0.3974
2.4600 1.6094 0.3891
2.4800 1.6227 0.3971
2.5000 1.6360 0.3995
2.5200 1.6493 0.3841
2.5400 1.6627 0.3999
2.5600 1.6760 0.3952
2.5800 1.6894 0.3815
2.6000 1.7028 0.4030
2.6200 1.7161 0.3907
2.6400 1.7294 0.3849
2.6600 1.7428 0.3976
2.6800 1.7561 0.3854
2.7000 1.7694 0.3934
2.7200 1.7827 0.3955
2.7400 1.7960 0.3823
2.7600 1.8094 0.3856
2.7800 1.8227 0.3954
2.8000 1.8360 0.3813
2.8200 1.8493 0.3866
2.8400 1.8627 0.3891
2.8600 1.8761 0.3817
2.8800 1.8894 0.3826
2.9000 1.9027 0.3910
2.9200 1.9161 0.3829
2.9400 1.9294 0.3861
2.9600 1.9428 0.3863
2.9800 1.9561 0.3811
3.0000 1.9694 0.3836
3.0200 1.9828 0.3821
3.0400 1.9961 0.3766
3.0600 2.0094 0.3823
3.0800 2.0227 0.3778
3.1000 2.0360 0.3752
3.1200 2.0493 0.3816
3.1400 2.0627 0.3743
3.1600 2.0760 0.3697
3.1800 2.0894 0.3811
3.2000 2.1028 0.3769
3.2200 2.1161 0.3681
3.2400 2.1295 0.3817
3.2600 2.1428 0.3740
3.2800 2.1561 0.3666
3.3000 2.1694 0.3814
3.3200 2.1827 0.3700
3.3400 2.1960 0.3612
3.3600 2.2094 0.3783
3.3800 2.2227 0.3634
3.4000 2.2360 0.3627
3.4200 2.2493 0.3761
3.4400 2.2626 0.3655
3.4600 2.2760 0.3629
3.4800 2.2894 0.3684
3.5000 2.3027 0.3588
3.5200 2.3160 0.3649
3.5400 2.3294 0.3668
3.5600 2.3427 0.3595
3.5800 2.3561 0.3617
3.6000 2.3694 0.3612
3.6200 2.3828 0.3599
3.6400 2.3961 0.3594
3.6600 2.4095 0.3623
3.6800 2.4228 0.3551
3.7000 2.4361 0.3551
3.7200 2.4494 0.3623
3.7400 2.4627 0.3562
3.7600 2.4760 0.3550
3.7800 2.4893 0.3600
3.8000 2.5026 0.3573
3.8200 2.5160 0.3543
3.8400 2.5293 0.3585
3.8600 2.5427 0.3545
3.8800 2.5560 0.3470
3.9000 2.5694 0.3612
3.9200 2.5828 0.3515
3.9400 2.5961 0.3433
3.9600 2.6094 0.3558
3.9800 2.6227 0.3507
4.0000 2.6361 0.3465
4.0200 2.6494 0.3529
4.0400 2.6627 0.3439
4.0600 2.6760 0.3437
4.0800 2.6894 0.3507
4.1000 2.7027 0.3476
4.1200 2.7160 0.3427
4.1400 2.7294 0.3502
4.1600 2.7427 0.3412
4.1800 2.7560 0.3448
4.2000 2.7693 0.3496
4.2200 2.7827 0.3443
4.2400 2.7960 0.3406
4.2600 2.8094 0.3446
4.2800 2.8227 0.3415
4.3000 2.8361 0.3385
4.3200 2.8494 0.3435
4.3400 2.8628 0.3380
4.3600 2.8761 0.3371
4.3800 2.8894 0.3394
4.4000 2.9028 0.3365
4.4200 2.9161 0.3380
4.4400 2.9294 0.3384
4.4600 2.9427 0.3401
4.4800 2.9561 0.3313
4.5000 2.9694 0.3367
4.5200 2.9827 0.3353
4.5400 2.9960 0.3303
4.5600 3.0094 0.3421
4.5800 3.0227 0.3311
4.6000 3.0360 0.3284
4.6200 3.0494 0.3383
4.6400 3.0627 0.3283
4.6600 3.0761 0.3310
4.6800 3.0894 0.3386
4.7000 3.1027 0.3277
4.7200 3.1160 0.3284
4.7400 3.1294 0.3383
4.7600 3.1428 0.3251
4.7800 3.1561 0.3246
4.8000 3.1694 0.3364
4.8200 3.1828 0.3237
4.8400 3.1961 0.3273
4.8600 3.2094 0.3325
4.8800 3.2227 0.3229
4.9000 3.2359 0.3270
4.9200 3.2493 0.3326
4.9400 3.2626 0.3208
4.9600 3.2760 0.3221
4.9800 3.2893 0.3349
5.0000 3.3027 0.3216
5.0200 3.3161 0.3209
5.0400 3.3295 0.3316
5.0600 3.3428 0.3234
5.0800 3.3561 0.3182
5.1000 3.3695 0.3263
5.1200 3.3828 0.3193
5.1400 3.3961 0.3207
5.1600 3.4094 0.3291
5.1800 3.4227 0.3125
5.2000 3.4361 0.3159
5.2200 3.4494 0.3257
5.2400 3.4627 0.3128
5.2600 3.4760 0.3163
5.2800 3.4893 0.3253
5.3000 3.5027 0.3092
5.3200 3.5160 0.3138
5.3400 3.5293 0.3207
5.3600 3.5427 0.3044
5.3800 3.5561 0.3100
5.4000 3.5695 0.3128
5.4200 3.5828 0.3051
5.4400 3.5961 0.3093
5.4600 3.6094 0.3144
5.4800 3.6228 0.3027
5.5000 3.6361 0.3065
5.5200 3.6494 0.3103
5.5400 3.6627 0.3021
5.5600 3.6760 0.3072
5.5800 3.6894 0.3047
5.6000 3.7027 0.3057
5.6200 3.7160 0.3056
5.6400 3.7294 0.2992
5.6600 3.7427 0.3024
5.6800 3.7560 0.3033
5.7000 3.7694 0.3035
5.7200 3.7827 0.3033
5.7400 3.7961 0.2974
5.7600 3.8094 0.3010
5.7800 3.8227 0.3087
5.8000 3.8361 0.2986
5.8200 3.8494 0.2985
5.8400 3.8628 0.3042
5.8600 3.8761 0.2955
5.8800 3.8894 0.2977
5.9000 3.9027 0.3029
5.9200 3.9161 0.2936
5.9400 3.9294 0.3011
5.9600 3.9427 0.3021
5.9800 3.9560 0.2999
6.0000 3.9693 0.3001
6.0200 3.9827 0.2982
6.0400 3.9960 0.2957
6.0600 4.0094 0.2982
6.0800 4.0227 0.2991
6.1000 4.0361 0.2931
6.1200 4.0494 0.2974
6.1400 4.0628 0.3004
6.1600 4.0761 0.2946
6.1800 4.0894 0.2928
6.2000 4.1028 0.2913
6.2200 4.1161 0.2988
6.2400 4.1294 0.2967
6.2600 4.1427 0.2943
6.2800 4.1561 0.2943
6.3000 4.1694 0.2938
6.3200 4.1827 0.2924
6.3400 4.1960 0.2945
6.3600 4.2093 0.2891
6.3800 4.2227 0.2904
6.4000 4.2360 0.2904
6.4200 4.2493 0.2834
6.4400 4.2627 0.2895
6.4600 4.2761 0.2856
6.4800 4.2894 0.2820
6.5000 4.3027 0.2876
6.5200 4.3161 0.2840
6.5400 4.3294 0.2824
6.5600 4.3428 0.2845
6.5800 4.3561 0.2810
6.6000 4.3694 0.2820
6.6200 4.3827 0.2879
6.6400 4.3961 0.2791
6.6600 4.4094 0.2759
6.6800 4.4227 0.2867
6.7000 4.4360 0.2758
6.7200 4.4493 0.2806
6.7400 4.4627 0.2823
6.7600 4.4760 0.2698
6.7800 4.4893 0.2810
6.8000 4.5027 0.2856
6.8200 4.5161 0.2699
6.8400 4.5294 0.2763
6.8600 4.5427 0.2790
6.8800 4.5561 0.2663
6.9000 4.5694 0.2798
6.9200 4.5828 0.2788
6.9400 4.5961 0.2668
6.9600 4.6094 0.2834
6.9800 4.6227 0.2768
7.0000 4.6361 0.2646
7.0200 4.6494 0.2789
7.0400 4.6627 0.2711
7.0600 4.6759 0.2642
7.0800 4.6893 0.2790
7.1000 4.7026 0.2666
7.1200 4.7160 0.2637
7.1400 4.7293 0.2761
7.1600 4.7427 0.2662
7.1800 4.7561 0.2634
7.2000 4.7695 0.2729
7.2200 4.7828 0.2623
7.2400 4.7961 0.2576
7.2600 4.8095 0.2744
7.2800 4.8228 0.2598
7.3000 4.8361 0.2595
7.3200 4.8493 0.2707
7.3400 4.8626 0.2552
7.3600 4.8760 0.2614
7.3800 4.8893 0.2703
7.4000 4.9027 0.2498
7.4200 4.9160 0.2614
7.4400 4.9294 0.2712
7.4600 4.9427 0.2434
7.4800 4.9561 0.2573
7.5000 4.9694 0.2656
7.5200 4.9828 0.2436
7.5400 4.9961 0.2597
7.5600 5.0095 0.2597
7.5800 5.0228 0.2446
7.6000 5.0361 0.2590
7.6200 5.0494 0.2586
7.6400 5.0628 0.2458
7.6600 5.0761 0.2568
7.6800 5.0894 0.2547
7.7000 5.1027 0.2463
7.7200 5.1160 0.2566
7.7400 5.1294 0.2455
7.7600 5.1427 0.2479
7.7800 5.1560 0.2589
7.8000 5.1693 0.2454
7.8200 5.1827 0.2494
7.8400 5.1960 0.2545
7.8600 5.2094 0.2410
7.8800 5.2227 0.2555
7.9000 5.2361 0.2475
7.9200 5.2494 0.2431
7.9400 5.2627 0.2552
7.9600 5.2761 0.2460
7.9800 5.2894 0.2452
8.0000 5.3028 0.2516
8.0200 5.3161 0.2477
8.0400 5.3294 0.2460
8.0600 5.3427 0.2520
8.0800 5.3561 0.2481
8.1000 5.3694 0.2486
8.1200 5.3827 0.2494
8.1400 5.3960 0.2423
8.1600 5.4093 0.2484
8.1800 5.4227 0.2446
8.2000 5.4360 0.2455
8.2200 5.4493 0.2481
8.2400 5.4627 0.2429
8.2600 5.4761 0.2395
8.2800 5.4895 0.2474
8.3000 5.5028 0.2403
8.3200 5.5161 0.2460
8.3400 5.5294 0.2447
8.3600 5.5428 0.2360
8.3800 5.5561 0.2424
8.4000 5.5694 0.2414
8.4200 5.5827 0.2359
8.4400 5.5961 0.2460
8.4600 5.6094 0.2417
8.4800 5.6227 0.2341
8.5000 5.6360 0.2494
8.5200 5.6493 0.2384
8.5400 5.6627 0.2377
8.5600 5.6760 0.2453
8.5800 5.6894 0.2325
8.6000 5.7027 0.2351
8.6200 5.7161 0.2410
8.6400 5.7294 0.2264
8.6600 5.7427 0.2395
8.6800 5.7561 0.2421
8.7000 5.7694 0.2288
8.7200 5.7828 0.2394
8.7400 5.7961 0.2385
8.7600 5.8094 0.2244
8.7800 5.8227 0.2376
8.8000 5.8360 0.2382
8.8200 5.8494 0.2282
8.8400 5.8627 0.2309
8.8600 5.8760 0.2271
8.8800 5.8893 0.2292
8.9000 5.9027 0.2290
8.9200 5.9160 0.2266
8.9400 5.9294 0.2300
8.9600 5.9427 0.2247
8.9800 5.9561 0.2268
9.0000 5.9695 0.2249
9.0200 5.9828 0.2263
9.0400 5.9961 0.2307
9.0600 6.0094 0.2241
9.0800 6.0228 0.2256
9.1000 6.0361 0.2273
9.1200 6.0494 0.2221
9.1400 6.0627 0.2269
9.1600 6.0760 0.2259
9.1800 6.0894 0.2199
9.2000 6.1027 0.2242
9.2200 6.1160 0.2274
9.2400 6.1293 0.2184
9.2600 6.1426 0.2220
9.2800 6.1560 0.2266
9.3000 6.1693 0.2167
9.3200 6.1827 0.2241
9.3400 6.1961 0.2240
9.3600 6.2095 0.2178
9.3800 6.2228 0.2178
9.4000 6.2361 0.2182
9.4200 6.2494 0.2222
9.4400 6.2628 0.2177
9.4600 6.2761 0.2165
9.4800 6.2893 0.2209
9.5000 6.3027 0.2140
9.5200 6.3160 0.2199
9.5400 6.3294 0.2186
9.5600 6.3427 0.2127
9.5800 6.3560 0.2160
9.6000 6.3694 0.2169
9.6200 6.3827 0.2078
9.6400 6.3961 0.2152
9.6600 6.4094 0.2172
9.6800 6.4227 0.2100
9.7000 6.4361 0.2181
9.7200 6.4494 0.2110
9.7400 6.4627 0.2048
9.7600 6.4760 0.2179
9.7800 6.4894 0.2080
9.8000 6.5027 0.2108
9.8200 6.5161 0.2150
9.8400 6.5294 0.2084
9.8600 6.5427 0.2065
9.8800 6.5561 0.2186
9.9000 6.5694 0.2096
9.9200 6.5827 0.1995
9.9400 6.5960 0.2175
9.9600 6.6093 0.2046
9.9800 6.6227 0.2046
10.0000 6.6360 0.2174
10.0200 6.6493 0.2023
10.0400 6.6627 0.1996
10.0600 6.6760 0.2122
10.0800 6.6894 0.2036
10.1000 6.7027 0.1990
10.1200 6.7161 0.2093
10.1400 6.7294 0.2028
10.1600 6.7428 0.2024
10.1800 6.7561 0.2035
10.2000 6.7694 0.2011
10.2200 6.7827 0.2059
10.2400 6.7961 0.1981
10.2600 6.8094 0.2019
10.2800 6.8227 0.1987
10.3000 6.8360 0.1988
10.3200 6.8493 0.2094
10.3400 6.8627 0.1938
10.3600 6.8760 0.1986
10.3800 6.8893 0.2032
10.4000 6.9027 0.1930
10.4200 6.9161 0.2016
10.4400 6.9294 0.2017
10.4600 6.9428 0.1958
10.4800 6.9561 0.1940
10.5000 6.9694 0.2027
10.5200 6.9828 0.1917
10.5400 6.9961 0.1999
10.5600 7.0094 0.2002
10.5800 7.0227 0.1886
10.6000 7.0360 0.1992
10.6200 7.0494 0.1954
10.6400 7.0627 0.1893
10.6600 7.0760 0.1992
10.6800 7.0893 0.1919
10.7000 7.1027 0.1877
10.7200 7.1161 0.1987
10.7400 7.1294 0.1935
10.7600 7.1427 0.1847
10.7800 7.1560 0.1977
10.8000 7.1694 0.1915
10.8200 7.1827 0.1840
10.8400 7.1961 0.1965
10.8600 7.2094 0.1915
10.8800 7.2228 0.1838
10.9000 7.2361 0.1897
10.9200 7.2494 0.1921
10.9400 7.2627 0.1886
10.9600 7.2760 0.1939
10.9800 7.2894 0.1917
11.0000 7.3027 0.1824
11.0200 7.3160 0.1902
11.0400 7.3293 0.1890
11.0600 7.3427 0.1830
11.0800 7.3560 0.1879
11.1000 7.3694 0.1849
11.1200 7.3827 0.1881
11.1400 7.3961 0.1874
11.1600 7.4095 0.1816
11.1800 7.4228 0.1824
11.2000 7.4361 0.1876
11.2200 7.4494 0.1802
11.2400 7.4628 0.1813
11.2600 7.4761 0.1848
11.2800 7.4894 0.1781
11.3000 7.5027 0.1816
11.3200 7.5160 0.1819
11.3400 7.5294 0.1752
11.3600 7.5427 0.1799
11.3800 7.5560 0.1754
11.4000 7.5694 0.1770
11.4200 7.5827 0.1779
11.4400 7.5960 0.1723
11.4600 7.6094 0.1776
11.4800 7.6227 0.1773
11.5000 7.6361 0.1718
11.5200 7.6494 0.1726
11.5400 7.6628 0.1749
11.5600 7.6761 0.1702
11.5800 7.6894 0.1742
11.6000 7.7028 0.1739
11.6200 7.7161 0.1689
11.6400 7.7294 0.1779
11.6600 7.7427 0.1715
11.6800 7.7560 0.1686
11.7000 7.7694 0.1757
11.7200 7.7827 0.1694
11.7400 7.7960 0.1720
11.7600 7.8093 0.1710
11.7800 7.8227 0.1692
11.8000 7.8360 0.1700
11.8200 7.8493 0.1721
11.8400 7.8627 0.1701
11.8600 7.8760 0.1689
11.8800 7.8894 0.1684
11.9000 7.9027 0.1650
11.9200 7.9160 0.1676
11.9400 7.9294 0.1721
11.9600 7.9427 0.1620
11.9800 7.9561 0.1626
12.0000 7.9694 0.1655
12.0200 7.9828 0.1658
12.0400 7.9961 0.1620
12.0600 8.0094 0.1652
12.0800 8.0228 0.1654
12.1000 8.0360 0.1585
12.1200 8.0493 0.1644
12.1400 8.0626 0.1628
12.1600 8.0759 0.1596
12.1800 8.0893 0.1648
12.2000 8.1026 0.1569
12.2200 8.1160 0.1602
12.2400 8.1294 0.1623
12.2600 8.1428 0.1587
12.2800 8.1561 0.1559
12.3000 8.1695 0.1592
12.3200 8.1828 0.1575
12.3400 8.1961 0.1572
12.3600 8.2094 0.1612
12.3800 8.2227 0.1572
12.4000 8.2360 0.1567
12.4200 8.2494 0.1549
12.4400 8.2627 0.1570
12.4600 8.2760 0.1577
12.4800 8.2893 0.1549
12.5000 8.3026 0.1542
12.5200 8.3160 0.1555
12.5400 8.3294 0.1550
12.5600 8.3427 0.1531
12.5800 8.3561 0.1570
12.6000 8.3694 0.1517
12.6200 8.3828 0.1478
12.6400 8.3961 0.1550
12.6600 8.4094 0.1504
12.6800 8.4228 0.1508
12.7000 8.4361 0.1548
12.7200 8.4494 0.1475
12.7400 8.4627 0.1436
12.7600 8.4760 0.1558
12.7800 8.4894 0.1454
12.8000 8.5027 0.1435
12.8200 8.5160 0.1537
12.8400 8.5293 0.1457
12.8600 8.5426 0.1424
12.8800 8.5560 0.1526
12.9000 8.5694 0.1433
12.9200 8.5827 0.1447
12.9400 8.5961 0.1538
12.9600 8.6094 0.1385
12.9800 8.6228 0.1445
13.0000 8.6361 0.1503
13.0200 8.6494 0.1422
13.0400 8.6628 0.1453
13.0600 8.6761 0.1480
13.0800 8.6894 0.1407
13.1000 8.7027 0.1441
13.1200 8.7161 0.1495
13.1400 8.7294 0.1379
13.1600 8.7427 0.1447
13.1800 8.7560 0.1441
13.2000 8.7693 0.1402
13.2200 8.7826 0.1465
13.2400 8.7960 0.1423
13.2600 8.8094 0.1405
13.2800 8.8227 0.1377
13.3000 8.8361 0.1462
13.3200 8.8494 0.1389
13.3400 8.8628 0.1365
13.3600 8.8761 0.1464
13.3800 8.8894 0.1343
13.4000 8.9028 0.1412
13.4200 8.9161 0.1429
13.4400 8.9294 0.1350
13.4600 8.9427 0.1421
13.4800 8.9560 0.1405
13.5000 8.9693 0.1288
13.5200 8.9827 0.1420
13.5400 8.9960 0.1392
13.5600 9.0093 0.1291
13.5800 9.0227 0.1418
13.6000 9.0360 0.1418
13.6200 9.0493 0.1321
13.6400 9.0626 0.1374
13.6600 9.0760 0.1409
13.6800 9.0894 0.1302
13.7000 9.1028 0.1399
13.7200 9.1161 0.1356
13.7400 9.1294 0.1264
13.7600 9.1428 0.1392
13.7800 9.1561 0.1323
13.8000 9.1695 0.1281
13.8200 9.1827 0.1347
13.8400 9.1960 0.1339
13.8600 9.2094 0.1258
13.8800 9.2227 0.1330
13.9000 9.2360 0.1350
13.9200 9.2493 0.1238
13.9400 9.2627 0.1368
13.9600 9.2760 0.1302
13.9800 9.2894 0.1231
14.0000 9.3027 0.1404
14.0200 9.3160 0.1298
14.0400 9.3294 0.1202
14.0600 9.3428 0.1331
14.0800 9.3561 0.1321
14.1000 9.3694 0.1218
14.1200 9.3827 0.1334
14.1400 9.3961 0.1267
14.1600 9.4094 0.1225
14.1800 9.4227 0.1298
14.2000 9.4360 0.1224
14.2200 9.4494 0.1231
14.2400 9.4627 0.1293
14.2600 9.4760 0.1175
14.2800 9.4893 0.1261
14.3000 9.5026 0.1302
14.3200 9.5160 0.1152
14.3400 9.5293 0.1217
14.3600 9.5426 0.1276
14.3800 9.5560 0.1141
14.4000 9.5694 0.1208
14.4200 9.5828 0.1213
14.4400 9.5961 0.1176
14.4600 9.6095 0.1224
14.4800 9.6228 0.1180
14.5000 9.6361 0.1142
14.5200 9.6494 0.1230
14.5400 9.6627 0.1188
14.5600 9.6760 0.1148
14.5800 9.6893 0.1195
14.6000 9.7027 0.1143
14.6200 9.7160 0.1171
14.6400 9.7293 0.1172
14.6600 9.7427 0.1121
14.6800 9.7561 0.1186
14.7000 9.7694 0.1150
14.7200 9.7827 0.1133
14.7400 9.7961 0.1150
14.7600 9.8094 0.1128
14.7800 9.8228 0.1138
14.8000 9.8361 0.1152
14.8200 9.8494 0.1109
14.8400 9.8627 0.1197
14.8600 9.8761 0.1163
14.8800 9.8894 0.1107
14.9000 9.9027 0.1201
14.9200 9.9160 0.1121
14.9400 9.9293 0.1112
14.9600 9.9427 0.1198
14.9800 9.9560 0.1114
15.0000 9.9693 0.1048
15.0200 9.9827 0.1187
15.0400 9.9960 0.1084
15.0600 10.0094 0.1099
15.0800 10.0227 0.1212
15.1000 10.0361 0.1035
15.1200 10.0494 0.1113
15.1400 10.0628 0.1151
15.1600 10.0761 0.0981
15.1800 10.0894 0.1140
15.2000 10.1027 0.1128
15.2200 10.1161 0.1033
15.2400 10.1295 0.1102
15.2600 10.1427 0.1084
15.2800 10.1560 0.1037
15.3000 10.1694 0.1157
15.3200 10.1827 0.1041
15.3400 10.1960 0.1044
15.3600 10.2093 0.1145
15.3800 10.2226 0.1010
15.4000 10.2360 0.1045
15.4200 10.2493 0.1127
15.4400 10.2627 0.0957
15.4600 10.2760 0.1045
15.4800 10.2894 0.1088
15.5000 10.3028 0.0993
15.5200 10.3161 0.1077
15.5400 10.3294 0.1072
15.5600 10.3428 0.0968
15.5800 10.3561 0.1077
15.6000 10.3694 0.1018
15.6200 10.3827 0.0949
15.6400 10.3960 0.1112
15.6600 10.4094 0.1001
15.6800 10.4227 0.0966
15.7000 10.4360 0.1082
15.7200 10.4493 0.0958
15.7400 10.4627 0.1010
15.7600 10.4760 0.1069
15.7800 10.4894 0.0929
15.8000 10.5027 0.1020
15.8200 10.5160 0.1009
15.8400 10.5294 0.0966
15.8600 10.5427 0.1002
15.8800 10.5561 0.0962
15.9000 10.5694 0.0994
15.9200 10.5827 0.1030
15.9400 10.5961 0.0922
15.9600 10.6095 0.0976
15.9800 10.6228 0.1007
16.0000 10.6361 0.0920
16.0200 10.6494 0.0973
16.0400 10.6627 0.0989
16.0600 10.6760 0.0875
16.0800 10.6893 0.0971
16.1000 10.7026 0.0941
16.1200 10.7160 0.0892
16.1400 10.7293 0.0964
16.1600 10.7427 0.0924
16.1800 10.7560 0.0899
16.2000 10.7694 0.0935
16.2200 10.7828 0.0879
16.2400 10.7961 0.0873
16.2600 10.8094 0.0924
16.2800 10.8227 0.0884
16.3000 10.8361 0.0884
16.3200 10.8494 0.0906
16.3400 10.8628 0.0844
16.3600 10.8761 0.0893
16.3800 10.8894 0.0844
16.4000 10.9027 0.0848
16.4200 10.9161 0.0904
16.4400 10.9294 0.0818
16.4600 10.9427 0.0855
16.4800 10.9560 0.0870
16.5000 10.9693 0.0806
16.5200 10.9827 0.0837
16.5400 10.9960 0.0822
16.5600 11.0094 0.0777
16.5800 11.0228 0.0874
16.6000 11.0361 0.0794
16.6200 11.0494 0.0772
16.6400 11.0628 0.0891
16.6600 11.0761 0.0778
16.6800 11.0894 0.0770
16.7000 11.1027 0.0903
16.7200 11.1160 0.0775
16.7400 11.1293 0.0779
16.7600 11.1427 0.0825
16.7800 11.1560 0.0700
16.8000 11.1693 0.0825
16.8200 11.1827 0.0786
16.8400 11.1960 0.0724
16.8600 11.2094 0.0820
16.8800 11.2228 0.0764
16.9000 11.2361 0.0700
16.9200 11.2494 0.0802
16.9400 11.2627 0.0783
16.9600 11.2761 0.0684
16.9800 11.2894 0.0777
17.0000 11.3027 0.0772
17.0200 11.3160 0.0691
17.0400 11.3294 0.0777
17.0600 11.3428 0.0731
17.0800 11.3561 0.0716
17.1000 11.3694 0.0768
17.1200 11.3828 0.0671
17.1400 11.3961 0.0694
17.1600 11.4094 0.0778
17.1800 11.4227 0.0653
17.2000 11.4360 0.0703
17.2200 11.4494 0.0778
17.2400 11.4627 0.0656
17.2600 11.4760 0.0698
17.2800 11.4893 0.0783
17.3000 11.5027 0.0639
17.3200 11.5161 0.0707
17.3400 11.5294 0.0737
17.3600 11.5427 0.0656
17.3800 11.5561 0.0727
17.4000 11.5694 0.0696
17.4200 11.5828 0.0696
17.4400 11.5961 0.0778
17.4600 11.6094 0.0678
17.4800 11.6228 0.0679
17.5000 11.6361 0.0709
17.5200 11.6494 0.0709
17.5400 11.6627 0.0654
17.5600 11.6760 0.0714
17.5800 11.6893 0.0696
17.6000 11.7027 0.0630
17.6200 11.7160 0.0684
17.6400 11.7294 0.0688
17.6600 11.7427 0.0655
17.6800 11.7561 0.0720
17.7000 11.7694 0.0641
17.7200 11.7828 0.0622
17.7400 11.7961 0.0675
17.7600 11.8095 0.0646
17.7800 11.8228 0.0632
17.8000 11.8361 0.0672
17.8200 11.8494 0.0626
17.8400 11.8627 0.0614
17.8600 11.8760 0.0661
17.8800 11.8893 0.0592
17.9000 11.9027 0.0613
17.9200 11.9160 0.0630
17.9400 11.9294 0.0567
17.9600 11.9427 0.0596
17.9800 11.9561 0.0620
18.0000 11.9694 0.0568
18.0200 11.9827 0.0625
18.0400 11.9961 0.0628
18.0600 12.0094 0.0537
18.0800 12.0227 0.0635
18.1000 12.0361 0.0617
18.1200 12.0494 0.0543
18.1400 12.0628 0.0648
18.1600 12.0761 0.0549
18.1800 12.0894 0.0555
18.2000 12.1027 0.0561
18.2200 12.1161 0.0582
18.2400 12.1294 0.0602
18.2600 12.1427 0.0557
18.2800 12.1560 0.0597
18.3000 12.1693 0.0519
18.3200 12.1827 0.0565
18.3400 12.1960 0.0572
18.3600 12.2094 0.0488
18.3800 12.2228 0.0591
18.4000 12.2361 0.0536
18.4200 12.2494 0.0503
18.4400 12.2627 0.0560
18.4600 12.2761 0.0584
18.4800 12.2894 0.0477
18.5000 12.3027 0.0506
18.5200 12.3160 0.0578
18.5400 12.3294 0.0478
18.5600 12.3427 0.0517
18.5800 12.3561 0.0555
18.6000 12.3694 0.0432
18.6200 12.3827 0.0468
18.6400 12.3960 0.0515
18.6600 12.4094 0.0453
18.6800 12.4227 0.0522
18.7000 12.4360 0.0501
18.7200 12.4494 0.0418
18.7400 12.4627 0.0464
18.7600 12.4761 0.0486
18.7800 12.4894 0.0367
18.8000 12.5027 0.0511
18.8200 12.5161 0.0439
18.8400 12.5294 0.0369
18.8600 12.5428 0.0508
18.8800 12.5560 0.0453
18.9000 12.5693 0.0363
18.9200 12.5827 0.0472
18.9400 12.5960 0.0366
18.9600 12.6094 0.0371
18.9800 12.6227 0.0429
19.0000 12.6360 0.0370
19.0200 12.6493 0.0350
19.0400 12.6627 0.0421
19.0600 12.6760 0.0339
19.0800 12.6893 0.0365
19.1000 12.7027 0.0419
19.1200 12.7161 0.0294
19.1400 12.7294 0.0324
19.1600 12.7427 0.0442
19.1800 12.7560 0.0288
19.2000 12.7694 0.0383
19.2200 12.7828 0.0387
19.2400 12.7961 0.0293
19.2600 12.8094 0.0397
19.2800 12.8228 0.0443
19.3000 12.8361 0.0295
19.3200 12.8494 0.0386
19.3400 12.8627 0.0400
19.3600 12.8760 0.0238
19.3800 12.8893 0.0381
19.4000 12.9026 0.0364
19.4200 12.9160 0.0278
19.4400 12.9293 0.0402
19.4600 12.9427 0.0330
19.4800 12.9561 0.0271
19.5000 12.9695 0.0403
19.5200 12.9828 0.0344
19.5400 12.9961 0.0275
19.5600 13.0095 0.0380
19.5800 13.0228 0.0328
19.6000 13.0361 0.0236
19.6200 13.0494 0.0406
19.6400 13.0627 0.0367
19.6600 13.0760 0.0267
19.6800 13.0893 0.0395
19.7000 13.1026 0.0294
19.7200 13.1160 0.0281
19.7400 13.1293 0.0396
19.7600 13.1427 0.0317
19.7800 13.1560 0.0267
19.8000 13.1694 0.0332
19.8200 13.1827 0.0291
19.8400 13.1961 0.0295
19.8600 13.2094 0.0332
19.8800 13.2228 0.0291
19.9000 13.2361 0.0331
19.9200 13.2494 0.0264
19.9400 13.2628 0.0285
19.9600 13.2761 0.0287
19.9800 13.2894 0.0287
20.0000 13.3027 0.0302
20.0200 13.3161 0.0202
20.0400 13.3294 0.0295
20.0600 13.3427 0.0330
20.0800 13.3560 0.0204
20.1000 13.3693 0.0219
20.1200 13.3827 0.0315
20.1400 13.3960 0.0203
20.1600 13.4094 0.0230
20.1800 13.4227 0.0312
20.2000 13.4361 0.0088
20.2200 13.4494 0.0221
20.2400 13.4627 0.0309
20.2600 13.4761 0.0063
20.2800 13.4894 0.0266
20.3000 13.5028 0.0253
20.3200 13.5161 0.0031
20.3400 13.5294 0.0283
20.3600 13.5427 0.0230
20.3800 13.5561 0.0034
20.4000 13.5694 0.0264
20.4200 13.5827 0.0170
20.4400 13.5960 0.0034
20.4600 13.6093 0.0259
20.4800 13.6227 0.0134
20.5000 13.6360 0.0054
20.5200 13.6494 0.0283
20.5400 13.6627 0.0088
20.5600 13.6761 0.0023
20.5800 13.6895 0.0284
20.6000 13.7028 0.0095
20.6200 13.7161 0.0076
20.6400 13.7294 0.0211
20.6600 13.7428 0.0091
20.6800 13.7561 0.0060
20.7000 13.7694 0.0181
20.7200 13.7827 0.0102
20.7400 13.7960 0.0068
20.7600 13.8094 0.0199
20.7800 13.8227 0.0041
20.8000 13.8360 0.0078
20.8200 13.8493 0.0168
20.8400 13.8627 0.0049
20.8600 13.8760 0.0053
20.8800 13.8894 0.0119
20.9000 13.9027 0.0105
20.9200 13.9161 0.0032
20.9400 13.9294 0.0104
20.9600 13.9428 0.0084
20.9800 13.9561 0.0042
21.0000 13.9695 0.0070
21.0200 13.9828 0.0057
21.0400 13.9961 0.0026
21.0600 14.0094 0.0085
21.0800 14.0227 0.0047
21.1000 14.0361 0.0000
21.1200 14.0494 0.0065
21.1400 14.0627 0.0046
21.1600 14.0760 -0.0014
21.1800 14.0893 0.0068
21.2000 14.1027 -0.0009
21.2200 14.1160 0.0002
21.2400 14.1294 0.0026
21.2600 14.1427 0.0026
21.2800 14.1561 -0.0013
21.3000 14.1694 0.0008
21.3200 14.1827 0.0035
21.3400 14.1961 0.0002
21.3600 14.2094 0.0044
21.3800 14.2228 -0.0022
21.4000 14.2361 -0.0020
21.4200 14.2494 0.0028
21.4400 14.2627 -0.0025
21.4600 14.2761 0.0055
21.4800 14.2894 0.0000
21.5000 14.3027 -0.0021
21.5200 14.3160 0.0011
21.5400 14.3293 -0.0043
21.5600 14.3426 -0.0040
21.5800 14.3560 0.0019
21.6000 14.3693 -0.0029
21.6200 14.3827 -0.0034
21.6400 14.3961 -0.0022
21.6600 14.4095 -0.0031
21.6800 14.4228 -0.0032
21.7000 14.4361 -0.0008
21.7200 14.4495 -0.0092
21.7400 14.4628 -0.0076
21.7600 14.4761 0.0016
21.7800 14.4893 -0.0097
21.8000 14.5026 -0.0013
21.8200 14.5160 -0.0053
21.8400 14.5293 -0.0119
21.8600 14.5427 -0.0063
21.8800 14.5560 -0.0079
21.9000 14.5693 -0.0080
21.9200 14.5827 -0.0059
21.9400 14.5960 -0.0130
21.9600 14.6094 -0.0084
21.9800 14.6227 -0.0051
22.0000 14.6361 -0.0160
22.0200 14.6495 -0.0091
22.0400 14.6628 -0.0026
22.0600 14.6761 -0.0209
22.0800 14.6894 -0.0050
22.1000 14.7027 -0.0056
22.1200 14.7161 -0.0220
22.1400 14.7294 -0.0048
22.1600 14.7427 -0.0093
22.1800 14.7560 -0.0232
22.2000 14.7694 -0.0034
22.2200 14.7827 -0.0100
22.2400 14.7960 -0.0211
22.2600 14.8094 -0.0014
22.2800 14.8227 -0.0140
22.3000 14.8361 -0.0200
22.3200 14.8494 -0.0020
22.3400 14.8627 -0.0120
22.3600 14.8761 -0.0170
22.3800 14.8895 -0.0127
22.4000 14.9028 -0.0151
22.4200 14.9161 -0.0106
22.4400 14.9294 -0.0097
22.4600 14.9428 -0.0190
22.4800 14.9561 -0.0146
22.5000 14.9694 -0.0147
22.5200 14.9827 -0.0178
22.5400 14.9961 -0.0099
22.5600 15.0094 -0.0178
22.5800 15.0227 -0.0164
22.6000 15.0360 -0.0118
22.6200 15.0493 -0.0167
22.6400 15.0627 -0.0193
22.6600 15.0760 -0.0110
22.6800 15.0894 -0.0254
22.7000 15.1027 -0.0160
22.7200 15.1161 -0.0132
22.7400 15.1294 -0.0274
22.7600 15.1428 -0.0168
22.7800 15.1561 -0.0170
22.8000 15.1694 -0.0221
22.8200 15.1828 -0.0176
22.8400 15.1961 -0.0192
22.8600 15.2094 -0.0226
22.8800 15.2227 -0.0218
22.9000 15.2360 -0.0193
22.9200 15.2494 -0.0277
22.9400 15.2627 -0.0221
22.9600 15.2760 -0.0217
22.9800 15.2893 -0.0269
23.0000 15.3027 -0.0212
23.0200 15.3160 -0.0274
23.0400 15.3294 -0.0272
23.0600 15.3427 -0.0265
23.0800 15.3561 -0.0277
23.1000 15.3694 -0.0273
23.1200 15.3827 -0.0288
23.1400 15.3961 -0.0258
23.1600 15.4094 -0.0278
23.1800 15.4228 -0.0349
23.2000 15.4361 -0.0301
23.2200 15.4494 -0.0280
23.2400 15.4627 -0.0349
23.2600 15.4760 -0.0321
23.2800 15.4894 -0.0347
23.3000 15.5027 -0.0403
23.3200 15.5160 -0.0271
23.3400 15.5293 -0.0397
23.3600 15.5427 -0.0377
23.3800 15.5560 -0.0305
23.4000 15.5694 -0.0418
23.4200 15.5827 -0.0351
23.4400 15.5961 -0.0307
23.4600 15.6095 -0.0472
23.4800 15.6228 -0.0363
23.5000 15.6361 -0.0367
23.5200 15.6494 -0.0480
23.5400 15.6628 -0.0367
23.5600 15.6761 -0.0359
23.5800 15.6894 -0.0476
23.6000 15.7027 -0.0445
23.6200 15.7160 -0.0364
23.6400 15.7294 -0.0453
23.6600 15.7427 -0.0391
23.6800 15.7560 -0.0419
23.7000 15.7693 -0.0454
23.7200 15.7827 -0.0381
23.7400 15.7960 -0.0460
23.7600 15.8093 -0.0432
23.7800 15.8227 -0.0428
23.8000 15.8361 -0.0445
23.8200 15.8495 -0.0436
23.8400 15.8628 -0.0478
23.8600 15.8761 -0.0390
23.8800 15.8894 -0.0434
23.9000 15.9027 -0.0475
23.9200 15.9161 -0.0448
23.9400 15.9293 -0.0446
23.9600 15.9427 -0.0451
23.9800 15.9560 -0.0459
24.0000 15.9694 -0.0465
24.0200 15.9827 -0.0500
24.0400 15.9960 -0.0465
24.0600 16.0093 -0.0458
24.0800 16.0227 -0.0506
24.1000 16.0361 -0.0420
24.1200 16.0494 -0.0525
24.1400 16.0627 -0.0525
24.1600 16.0761 -0.0388
24.1800 16.0894 -0.0508
24.2000 16.1027 -0.0544
24.2200 16.1160 -0.0423
24.2400 16.1293 -0.0568
24.2600 16.1427 -0.0551
24.2800 16.1561 -0.0461
24.3000 16.1694 -0.0552
24.3200 16.1827 -0.0534
24.3400 16.1961 -0.0459
24.3600 16.2094 -0.0533
24.3800 16.2228 -0.0549
24.4000 16.2360 -0.0469
24.4200 16.2493 -0.0567
24.4400 16.2627 -0.0599
24.4600 16.2760 -0.0508
24.4800 16.2893 -0.0583
24.5000 16.3027 -0.0515
24.5200 16.3160 -0.0532
24.5400 16.3294 -0.0612
24.5600 16.3428 -0.0567
24.5800 16.3561 -0.0564
24.6000 16.3694 -0.0593
24.6200 16.3828 -0.0558
24.6400 16.3961 -0.0604
24.6600 16.4094 -0.0585
24.6800 16.4227 -0.0588
24.7000 16.4361 -0.0631
24.7200 16.4494 -0.0586
24.7400 16.4627 -0.0633
24.7600 16.4760 -0.0564
24.7800 16.4893 -0.0594
24.8000 16.5027 -0.0626
24.8200 16.5160 -0.0568
24.8400 16.5294 -0.0609
24.8600 16.5427 -0.0685
24.8800 16.5561 -0.0548
24.9000 16.5694 -0.0600
24.9200 16.5828 -0.0689
24.9400 16.5961 -0.0543
24.9600 16.6094 -0.0623
24.9800 16.6228 -0.0739
25.0000 16.6361 -0.0553
25.0200 16.6494 -0.0695
25.0400 16.6627 -0.0732
25.0600 16.6760 -0.0556
25.0800 16.6894 -0.0684
25.1000 16.7027 -0.0781
25.1200 16.7160 -0.0565
25.1400 16.7293 -0.0675
25.1600 16.7427 -0.0736
25.1800 16.7560 -0.0648
25.2000 16.7694 -0.0711
25.2200 16.7827 -0.0788
25.2400 16.7960 -0.0652
25.2600 16.8094 -0.0729
25.2800 16.8228 -0.0802
25.3000 16.8361 -0.0665
25.3200 16.8494 -0.0752
25.3400 16.8628 -0.0770
25.3600 16.8761 -0.0681
25.3800 16.8895 -0.0766
25.4000 16.9027 -0.0754
25.4200 16.9160 -0.0680
25.4400 16.9294 -0.0767
25.4600 16.9427 -0.0789
25.4800 16.9560 -0.0708
25.5000 16.9693 -0.0766
25.5200 16.9826 -0.0805
25.5400 16.9960 -0.0722
25.5600 17.0093 -0.0788
25.5800 17.0227 -0.0807
25.6000 17.0360 -0.0711
25.6200 17.0494 -0.0777
25.6400 17.0628 -0.0825
25.6600 17.0761 -0.0724
25.6800 17.0894 -0.0784
25.7000 17.1027 -0.0821
25.7200 17.1161 -0.0756
25.7400 17.1294 -0.0781
25.7600 17.1427 -0.0830
25.7800 17.1561 -0.0760
25.8000 17.1694 -0.0781
25.8200 17.1827 -0.0866
25.8400 17.1961 -0.0838
25.8600 17.2094 -0.0772
25.8800 17.2227 -0.0864
25.9000 17.2360 -0.0808
25.9200 17.2494 -0.0820
25.9400 17.2627 -0.0882
25.9600 17.2761 -0.0800
25.9800 17.2895 -0.0808
26.0000 17.3028 -0.0904
26.0200 17.3161 -0.0799
26.0400 17.3294 -0.0826
26.0600 17.3428 -0.0950
26.0800 17.3561 -0.0815
26.1000 17.3694 -0.0899
26.1200 17.3827 -0.0947
26.1400 17.3960 -0.0831
26.1600 17.4094 -0.0921
26.1800 17.4227 -0.0970
26.2000 17.4360 -0.0848
26.2200 17.4493 -0.0909
26.2400 17.4627 -0.0960
26.2600 17.4760 -0.0870
26.2800 17.4894 -0.0962
26.3000 17.5027 -0.0967
26.3200 17.5160 -0.0845
26.3400 17.5294 -0.0965
26.3600 17.5427 -0.0962
26.3800 17.5560 -0.0910
26.4000 17.5694 -0.0981
26.4200 17.5827 -0.0965
26.4400 17.5961 -0.0901
26.4600 17.6094 -0.0982
26.4800 17.6228 -0.0986
26.5000 17.6361 -0.0881
26.5200 17.6494 -0.0971
26.5400 17.6627 -0.1024
26.5600 17.6760 -0.0867
26.5800 17.6893 -0.0983
26.6000 17.7026 -0.0996
26.6200 17.7160 -0.0947
26.6400 17.7293 -0.1010
26.6600 17.7426 -0.0990
26.6800 17.7560 -0.0937
26.7000 17.7694 -0.1059
26.7200 17.7828 -0.1033
26.7400 17.7961 -0.1020
26.7600 17.8094 -0.1028
26.7800 17.8228 -0.0961
26.8000 17.8361 -0.1067
26.8200 17.8495 -0.1066
26.8400 17.8627 -0.0994
26.8600 17.8760 -0.1083
26.8800 17.8893 -0.1066
26.9000 17.9027 -0.1001
26.9200 17.9160 -0.1066
26.9400 17.9293 -0.1051
26.9600 17.9426 -0.1026
26.9800 17.9560 -0.1070
27.0000 17.9693 -0.1073
27.0200 17.9827 -0.1102
27.0400 17.9960 -0.1107
27.0600 18.0094 -0.1073
27.0800 18.0228 -0.1137
27.1000 18.0361 -0.1124
27.1200 18.0494 -0.1080
27.1400 18.0628 -0.1128
27.1600 18.0761 -0.1148
27.1800 18.0894 -0.1072
27.2000 18.1027 -0.1153
27.2200 18.1160 -0.1132
27.2400 18.1294 -0.1109
27.2600 18.1427 -0.1171
27.2800 18.1560 -0.1173
27.3000 18.1693 -0.1110
27.3200 18.1827 -0.1171
27.3400 18.1960 -0.1147
27.3600 18.2094 -0.1153
27.3800 18.2227 -0.1189
27.4000 18.2360 -0.1193
27.4200 18.2494 -0.1153
27.4400 18.2628 -0.1226
27.4600 18.2761 -0.1204
27.4800 18.2894 -0.1152
27.5000 18.3027 -0.1211
27.5200 18.3161 -0.1184
27.5400 18.3294 -0.1160
27.5600 18.3428 -0.1222
27.5800 18.3561 -0.1152
27.6000 18.3694 -0.1199
27.6200 18.3827 -0.1242
27.6400 18.3960 -0.1150
27.6600 18.4093 -0.1246
27.6800 18.4227 -0.1263
27.7000 18.4360 -0.1198
27.7200 18.4494 -0.1292
27.7400 18.4627 -0.1280
27.7600 18.4760 -0.1221
27.7800 18.4894 -0.1272
27.8000 18.5028 -0.1256
27.8200 18.5161 -0.1242
27.8400 18.5294 -0.1287
27.8600 18.5428 -0.1274
27.8800 18.5561 -0.1254
27.9000 18.5694 -0.1309
27.9200 18.5827 -0.1290
27.9400 18.5960 -0.1271
27.9600 18.6094 -0.1322
27.9800 18.6227 -0.1315
28.0000 18.6360 -0.1314
28.0200 18.6494 -0.1328
28.0400 18.6627 -0.1342
28.0600 18.6760 -0.1355
28.0800 18.6894 -0.1337
28.1000 18.7027 -0.1359
28.1200 18.7160 -0.1367
28.1400 18.7294 -0.1311
28.1600 18.7428 -0.1406
28.1800 18.7561 -0.1361
28.2000 18.7694 -0.1340
28.2200 18.7828 -0.1467
28.2400 18.7961 -0.1372
28.2600 18.8095 -0.1375
28.2800 18.8228 -0.1447
28.3000 18.8361 -0.1374
28.3200 18.8494 -0.1348
28.3400 18.8627 -0.1477
28.3600 18.8760 -0.1453
28.3800 18.8893 -0.1416
28.4000 18.9026 -0.1464
28.4200 18.9160 -0.1468
28.4400 18.9294 -0.1469
28.4600 18.9427 -0.1518
28.4800 18.9560 -0.1436
28.5000 18.9694 -0.1457
28.5200 18.9828 -0.1538
28.5400 18.9961 -0.1428
28.5600 19.0094 -0.1513
28.5800 19.0227 -0.1480
28.6000 19.0361 -0.1493
28.6200 19.0494 -0.1491
28.6400 19.0628 -0.1475
28.6600 19.0761 -0.1514
28.6800 19.0894 -0.1487
28.7000 19.1027 -0.1507
28.7200 19.1160 -0.1512
28.7400 19.1293 -0.1509
28.7600 19.1426 -0.1527
28.7800 19.1560 -0.1491
28.8000 19.1693 -0.1526
28.8200 19.1826 -0.1530
28.8400 19.1960 -0.1542
28.8600 19.2094 -0.1532
28.8800 19.2228 -0.1555
28.9000 19.2362 -0.1577
28.9200 19.2495 -0.1495
28.9400 19.2628 -0.1604
28.9600 19.2761 -0.1557
28.9800 19.2895 -0.1552
29.0000 19.3027 -0.1615
29.0200 19.3160 -0.1526
29.0400 19.3293 -0.1542
29.0600 19.3427 -0.1647
29.0800 19.3560 -0.1551
29.1000 19.3693 -0.1596
29.1200 19.3827 -0.1675
29.1400 19.3961 -0.1513
29.1600 19.4094 -0.1654
29.1800 19.4227 -0.1694
29.2000 19.4361 -0.1522
29.2200 19.4494 -0.1685
29.2400 19.4628 -0.1686
29.2600 19.4761 -0.1583
29.2800 19.4894 -0.1729
29.3000 19.5027 -0.1731
29.3200 19.5161 -0.1581
29.3400 19.5294 -0.1788
29.3600 19.5427 -0.1698
29.3800 19.5560 -0.1596
29.4000 19.5694 -0.1850
29.4200 19.5827 -0.1701
29.4400 19.5960 -0.1644
29.4600 19.6093 -0.1893
29.4800 19.6227 -0.1644
29.5000 19.6360 -0.1724
29.5200 19.6494 -0.1876
29.5400 19.6627 -0.1663
29.5600 19.6760 -0.1781
29.5800 19.6894 -0.1857
29.6000 19.7028 -0.1711
29.6200 19.7161 -0.1828
29.6400 19.7294 -0.1838
29.6600 19.7427 -0.1734
29.6800 19.7561 -0.1805
29.7000 19.7694 -0.1893
29.7200 19.7827 -0.1805
29.7400 19.7960 -0.1826
29.7600 19.8094 -0.1905
29.7800 19.8227 -0.1818
29.8000 19.8361 -0.1863
29.8200 19.8493 -0.1877
29.8400 19.8626 -0.1848
29.8600 19.8760 -0.1874
29.8800 19.8894 -0.1897
29.9000 19.9027 -0.1858
29.9200 19.9160 -0.1889
29.9400 19.9294 -0.1912
29.9600 19.9428 -0.1889
29.9800 19.9561 -0.1953
30.0000 19.9694 -0.1904
30.0200 19.9828 -0.1886
30.0400 19.9961 -0.1972
30.0600 20.0094 -0.1942
30.0800 20.0227 -0.1947
30.1000 20.0360 -0.1927
30.1200 20.0494 -0.1992
30.1400 20.0627 -0.1932
30.1600 20.0761 -0.1976
30.1800 20.0894 -0.1990
30.2000 20.1027 -0.1944
30.2200 20.1160 -0.2015
30.2400 20.1294 -0.2031
30.2600 20.1427 -0.1988
30.2800 20.1560 -0.1983
30.3000 20.1694 -0.2029
30.3200 20.1827 -0.2019
30.3400 20.1961 -0.2027
30.3600 20.2094 -0.2078
30.3800 20.2227 -0.2002
30.4000 20.2361 -0.2062
30.4200 20.2495 -0.2050
30.4400 20.2628 -0.2058
30.4600 20.2761 -0.2079
30.4800 20.2894 -0.2065
30.5000 20.3027 -0.2049
30.5200 20.3160 -0.2088
30.5400 20.3293 -0.2138
30.5600 20.3426 -0.2062
30.5800 20.3560 -0.2139
30.6000 20.3693 -0.2136
30.6200 20.3827 -0.2110
30.6400 20.3960 -0.1976
30.6600 20.4094 -0.1341
30.6800 20.4228 -0.0532
30.7000 20.4361 0.0100
30.7200 20.4494 0.0391
30.7400 20.4628 0.0844
30.7600 20.4761 0.1375
30.7800 20.4894 0.1980
30.8000 20.5027 0.2610
30.8200 20.5160 0.3119
30.8400 20.5294 0.3782
30.8600 20.5427 0.4240
30.8800 20.5560 0.4644
30.9000 20.5693 0.5079
30.9200 20.5826 0.5509
30.9400 20.5960 0.5910
30.9600 20.6093 0.6296
30.9800 20.6227 0.6660
31.0000 20.6360 0.7004
31.0200 20.6494 0.7386
31.0400 20.6628 0.7695
31.0600 20.6761 0.7837
31.0800 20.6894 0.7922
31.1000 20.7028 0.7925
31.1200 20.7161 0.7948
31.1400 20.7294 0.7938
31.1600 20.7427 0.7994
31.1800 20.7560 0.8042
31.2000 20.7693 0.7983
31.2200 20.7827 0.8038
31.2400 20.7960 0.8072
31.2600 20.8093 0.8026
31.2800 20.8227 0.8093
31.3000 20.8360 0.8084
31.3200 20.8494 0.8091
31.3400 20.8628 0.8067
31.3600 20.8761 0.8131
31.3800 20.8894 0.8089
31.4000 20.9028 0.8058
31.4200 20.9161 0.8130
31.4400 20.9294 0.8112
31.4600 20.9427 0.8091
31.4800 20.9560 0.8187
31.5000 20.9694 0.8126
31.5200 20.9827 0.8084
31.5400 20.9961 0.8215
31.5600 21.0094 0.8154
31.5800 21.0228 0.8115
31.6000 21.0361 0.8252
31.6200 21.0494 0.8143
31.6400 21.0627 0.8137
31.6600 21.0760 0.8256
31.6800 21.0894 0.8182
31.7000 21.1027 0.8210
31.7200 21.1160 0.8255
31.7400 21.1293 0.8159
31.7600 21.1427 0.8218
31.7800 21.1561 0.8273
31.8000 21.1694 0.8138
31.8200 21.1827 0.8297
31.8400 21.1961 0.8301
31.8600 21.2094 0.8141
31.8800 21.2228 0.8271
31.9000 21.2361 0.8327
31.9200 21.2494 0.8142
31.9400 21.2627 0.8280
31.9600 21.2761 0.8316
31.9800 21.2894 0.8178
32.0000 21.3027 0.8335
32.0200 21.3160 0.8307
32.0400 21.3293 0.8185
32.0600 21.3427 0.8319
32.0800 21.3560 0.8295
32.1000 21.3694 0.8235
32.1200 21.3827 0.8342
32.1400 21.3961 0.8275
32.1600 21.4094 0.8231
32.1800 21.4227 0.8352
32.2000 21.4361 0.8284
32.2200 21.4494 0.8247
32.2400 21.4628 0.8336
32.2600 21.4761 0.8254
32.2800 21.4894 0.8281
32.3000 21.5027 0.8302
32.3200 21.5160 0.8287
32.3400 21.5293 0.8276
32.3600 21.5427 0.8278
32.3800 21.5560 0.8305
32.4000 21.5694 0.8256
32.4200 21.5827 0.8308
32.4400 21.5960 0.8290
32.4600 21.6094 0.8235
32.4800 21.6227 0.8300
32.5000 21.6361 0.8319
32.5200 21.6494 0.8256
32.5400 21.6627 0.8263
32.5600 21.6761 0.8365
32.5800 21.6894 0.8172
32.6000 21.7028 0.8308
32.6200 21.7161 0.8314
32.6400 21.7294 0.8234
32.6600 21.7427 0.8334
32.6800 21.7561 0.8309
32.7000 21.7694 0.8250
32.7200 21.7827 0.8315
32.7400 21.7960 0.8301
32.7600 21.8093 0.8195
32.7800 21.8227 0.8310
32.8000 21.8360 0.8332
32.8200 21.8494 0.8187
32.8400 21.8628 0.8334
32.8600 21.8761 0.8283
32.8800 21.8895 0.8193
32.9000 21.9028 0.8380
32.9200 21.9161 0.8274
32.9400 21.9294 0.8186
32.9600 21.9428 0.8319
32.9800 21.9561 0.8252
33.0000 21.9694 0.8253
33.0200 21.9827 0.8313
33.0400 21.9961 0.8248
33.0600 22.0094 0.8227
33.0800 22.0227 0.8341
33.1000 22.0360 0.8222
33.1200 22.0494 0.8270
33.1400 22.0627 0.8350
33.1600 22.0760 0.8157
33.1800 22.0894 0.8314
33.2000 22.1027 0.8311
33.2200 22.1161 0.8163
33.2400 22.1294 0.8257
33.2600 22.1427 0.8315
33.2800 22.1561 0.8147
33.3000 22.1694 0.8312
33.3200 22.1828 0.8290
33.3400 22.1961 0.8196
33.3600 22.2094 0.8313
33.3800 22.2227 0.8262
33.4000 22.2360 0.8236
33.4200 22.2494 0.8262
33.4400 22.2627 0.8183
33.4600 22.2760 0.8236
33.4800 22.2894 0.8245
33.5000 22.3027 0.8246
33.5200 22.3160 0.8249
33.5400 22.3294 0.8247
33.5600 22.3427 0.8247
33.5800 22.3561 0.8199
33.6000 22.3694 0.8281
33.6200 22.3827 0.8260
33.6400 22.3960 0.8277
33.6600 22.4094 0.8202
33.6800 22.4228 0.8188
33.7000 22.4361 0.8267
33.7200 22.4494 0.8203
33.7400 22.4628 0.8240
33.7600 22.4761 0.8221
33.7800 22.4894 0.8195
33.8000 22.5027 0.8220
33.8200 22.5160 0.8196
33.8400 22.5293 0.8243
33.8600 22.5426 0.8216
33.8800 22.5560 0.8194
33.9000 22.5693 0.8210
33.9200 22.5827 0.8204
33.9400 22.5961 0.8169
33.9600 22.6095 0.8221
33.9800 22.6228 0.8202
34.0000 22.6361 0.8113
34.0200 22.6495 0.8179
34.0400 22.6628 0.8219
34.0600 22.6761 0.8113
34.0800 22.6894 0.8173
34.1000 22.7027 0.8189
34.1200 22.7160 0.8121
34.1400 22.7293 0.8174
34.1600 22.7426 0.8163
34.1800 22.7560 0.8079
34.2000 22.7693 0.8179
34.2200 22.7827 0.8158
34.2400 22.7960 0.8110
34.2600 22.8094 0.8191
34.2800 22.8227 0.8176
34.3000 22.8361 0.8045
34.3200 22.8495 0.8164
34.3400 22.8628 0.8178
34.3600 22.8761 0.8106
34.3800 22.8895 0.8151
34.4000 22.9028 0.8104
34.4200 22.9161 0.8107
34.4400 22.9294 0.8160
34.4600 22.9427 0.8107
34.4800 22.9560 0.8064
34.5000 22.9694 0.8178
34.5200 22.9827 0.8126
34.5400 22.9960 0.8081
34.5600 23.0093 0.8167
34.5800 23.0227 0.8089
34.6000 23.0360 0.8078
34.6200 23.0493 0.8099
34.6400 23.0627 0.8107
34.6600 23.0761 0.8050
34.6800 23.0894 0.8049
34.7000 23.1027 0.8070
34.7200 23.1161 0.8041
34.7400 23.1294 0.8103
34.7600 23.1428 0.8063
34.7800 23.1561 0.8040
34.8000 23.1694 0.8043
34.8200 23.1827 0.8082
34.8400 23.1961 0.8020
34.8600 23.2094 0.8068
34.8800 23.2227 0.8062
34.9000 23.2360 0.7989
34.9200 23.2493 0.8070
34.9400 23.2627 0.8025
34.9600 23.2760 0.7977
34.9800 23.2894 0.8084
35.0000 23.3027 0.8005
35.0200 23.3161 0.7965
35.0400 23.3294 0.8066
35.0600 23.3428 0.8032
35.0800 23.3561 0.7946
35.1000 23.3694 0.8077
35.1200 23.3828 0.8038
35.1400 23.3961 0.7941
35.1600 23.4094 0.8091
35.1800 23.4227 0.8015
35.2000 23.4361 0.7952
35.2200 23.4494 0.8079
35.2400 23.4627 0.8033
35.2600 23.4760 0.7975
35.2800 23.4893 0.8053
35.3000 23.5027 0.8046
35.3200 23.5160 0.7927
35.3400 23.5294 0.8057
35.3600 23.5427 0.8019
35.3800 23.5561 0.7934
35.4000 23.5694 0.8072
35.4200 23.5828 0.7957
35.4400 23.5961 0.7923
35.4600 23.6094 0.8037
35.4800 23.6228 0.7970
35.5000 23.6361 0.7891
35.5200 23.6494 0.7989
35.5400 23.6627 0.7965
35.5600 23.6761 0.7884
35.5800 23.6894 0.7988
35.6000 23.7027 0.7951
35.6200 23.7160 0.7899
35.6400 23.7293 0.7935
35.6600 23.7427 0.7928
35.6800 23.7560 0.7828
35.7000 23.7694 0.7912
35.7200 23.7827 0.7933
35.7400 23.7961 0.7806
35.7600 23.8094 0.7893
35.7800 23.8227 0.7857
35.8000 23.8361 0.7831
35.8200 23.8494 0.7867
35.8400 23.8628 0.7858
35.8600 23.8761 0.7837
35.8800 23.8894 0.7855
35.9000 23.9027 0.7879
35.9200 23.9161 0.7766
35.9400 23.9294 0.7887
35.9600 23.9427 0.7882
35.9800 23.9560 0.7810
36.0000 23.9693 0.7890
36.0200 23.9826 0.7820
36.0400 23.9960 0.7798
36.0600 24.0093 0.7896
36.0800 24.0227 0.7832
36.1000 24.0361 0.7810
36.1200 24.0495 0.7835
36.1400 24.0628 0.7799
36.1600 24.0761 0.7815
36.1800 24.0895 0.7835
36.2000 24.1028 0.7829
36.2200 24.1161 0.7814
36.2400 24.1294 0.7788
36.2600 24.1426 0.7837
36.2800 24.1560 0.7814
36.3000 24.1693 0.7765
36.3200 24.1827 0.7812
36.3400 24.1960 0.7812
36.3600 24.2093 0.7737
36.3800 24.2227 0.7813
36.4000 24.2361 0.7748
36.4200 24.2494 0.7758
36.4400 24.2628 0.7817
36.4600 24.2761 0.7728
36.4800 24.2895 0.7714
36.5000 24.3028 0.7797
36.5200 24.3161 0.7709
36.5400 24.3294 0.7742
36.5600 24.3428 0.7809
36.5800 24.3561 0.7647
36.6000 24.3694 0.7741
36.6200 24.3827 0.7803
36.6400 24.3960 0.7640
36.6600 24.4094 0.7719
36.6800 24.4227 0.7777
36.7000 24.4360 0.7614
36.7200 24.4493 0.7700
36.7400 24.4627 0.7769
36.7600 24.4761 0.7619
36.7800 24.4894 0.7680
36.8000 24.5027 0.7739
36.8200 24.5161 0.7605
36.8400 24.5294 0.7658
36.8600 24.5428 0.7706
36.8800 24.5561 0.7625
36.9000 24.5694 0.7674
36.9200 24.5828 0.7670
36.9400 24.5961 0.7610
36.9600 24.6094 0.7694
36.9800 24.6227 0.7629
37.0000 24.6361 0.7627
37.0200 24.6494 0.7625
37.0400 24.6627 0.7596
37.0600 24.6760 0.7599
37.0800 24.6893 0.7636
37.1000 24.7027 0.7563
37.1200 24.7160 0.7592
37.1400 24.7294 0.7592
37.1600 24.7427 0.7588
37.1800 24.7561 0.7595
37.2000 24.7694 0.7568
37.2200 24.7828 0.7575
37.2400 24.7961 0.7566
37.2600 24.8094 0.7572
37.2800 24.8228 0.7606
37.3000 24.8361 0.7548
37.3200 24.8494 0.7575
37.3400 24.8627 0.7561
37.3600 24.8760 0.7521
37.3800 24.8894 0.7560
37.4000 24.9027 0.7564
37.4200 24.9160 0.7517
37.4400 24.9294 0.7557
37.4600 24.9427 0.7520
37.4800 24.9560 0.7510
37.5000 24.9694 0.7509
37.5200 24.9827 0.7535
37.5400 24.9960 0.7514
37.5600 25.0094 0.7488
37.5800 25.0227 0.7539
37.6000 25.0361 0.7515
37.6200 25.0494 0.7474
37.6400 25.0628 0.7516
37.6600 25.0761 0.7512
37.6800 25.0894 0.7481
37.7000 25.1027 0.7514
37.7200 25.1161 0.7485
37.7400 25.1294 0.7491
37.7600 25.1427 0.7475
37.7800 25.1560 0.7461
37.8000 25.1693 0.7491
37.8200 25.1827 0.7465
37.8400 25.1960 0.7409
37.8600 25.2093 0.7447
37.8800 25.2227 0.7439
37.9000 25.2361 0.7451
37.9200 25.2495 0.7487
37.9400 25.2628 0.7405
37.9600 25.2761 0.7437
37.9800 25.2894 0.7528
38.0000 25.3028 0.7359
38.0200 25.3161 0.7458
38.0400 25.3294 0.7500
38.0600 25.3427 0.7403
38.0800 25.3561 0.7491
38.1000 25.3694 0.7460
38.1200 25.3827 0.7402
38.1400 25.3960 0.7488
38.1600 25.4093 0.7432
38.1800 25.4226 0.7351
38.2000 25.4360 0.7519
38.2200 25.4493 0.7422
38.2400 25.4627 0.7351
38.2600 25.4760 0.7494
38.2800 25.4894 0.7392
38.3000 25.5028 0.7382
38.3200 25.5161 0.7461
38.3400 25.5294 0.7362
38.3600 25.5428 0.7389
38.3800 25.5561 0.7397
38.4000 25.5694 0.7361
38.4200 25.5827 0.7379
38.4400 25.5960 0.7435
38.4600 25.6094 0.7384
38.4800 25.6227 0.7298
38.5000 25.6360 0.7390
38.5200 25.6494 0.7394
38.5400 25.6627 0.7305
38.5600 25.6761 0.7390
38.5800 25.6894 0.7380
38.6000 25.7027 0.7314
38.6200 25.7161 0.7399
38.6400 25.7294 0.7369
38.6600 25.7427 0.7335
38.6800 25.7560 0.7430
38.7000 25.7693 0.7336
38.7200 25.7827 0.7323
38.7400 25.7961 0.7442
38.7600 25.8094 0.7364
38.7800 25.8228 0.7304
38.8000 25.8361 0.7396
38.8200 25.8494 0.7328
38.8400 25.8628 0.7313
38.8600 25.8760 0.7397
38.8800 25.8893 0.7324
38.9000 25.9027 0.7300
38.9200 25.9160 0.7379
38.9400 25.9293 0.7283
38.9600 25.9427 0.7318
38.9800 25.9560 0.7356
39.0000 25.9694 0.7203
39.0200 25.9827 0.7282
39.0400 25.9961 0.7336
39.0600 26.0094 0.7212
39.0800 26.0227 0.7273
39.1000 26.0361 0.7268
39.1200 26.0494 0.7197
39.1400 26.0627 0.7257
39.1600 26.0761 0.7213
39.1800 26.0894 0.7208
39.2000 26.1027 0.7205
39.2200 26.1160 0.7191
39.2400 26.1293 0.7215
39.2600 26.1426 0.7166
39.2800 26.1560 0.7202
39.3000 26.1693 0.7229
39.3200 26.1827 0.7114
39.3400 26.1960 0.7211
39.3600 26.2094 0.7215
39.3800 26.2228 0.7105
39.4000 26.2361 0.7230
39.4200 26.2494 0.7247
39.4400 26.2628 0.7078
39.4600 26.2761 0.7202
39.4800 26.2894 0.7234
39.5000 26.3027 0.7092
39.5200 26.3160 0.7189
39.5400 26.3294 0.7237
39.5600 26.3427 0.7043
39.5800 26.3560 0.7212
39.6000 26.3693 0.7244
39.6200 26.3827 0.7049
39.6400 26.3960 0.7164
39.6600 26.4094 0.7236
39.6800 26.4227 0.7031
39.7000 26.4361 0.7207
39.7200 26.4494 0.7195
39.7400 26.4628 0.7045
39.7600 26.4761 0.7203
39.7800 26.4894 0.7148
39.8000 26.5028 0.7052
39.8200 26.5161 0.7246
39.8400 26.5294 0.7100
39.8600 26.5427 0.7024
39.8800 26.5560 0.7231
39.9000 26.5694 0.7055
39.9200 26.5827 0.7036
39.9400 26.5960 0.7197
39.9600 26.6093 0.7055
39.9800 26.6226 0.7055
40.0000 26.6360 0.7149
40.0200 26.6493 0.7067
40.0400 26.6627 0.7087
40.0600 26.6760 0.7144
40.0800 26.6894 0.7078
40.1000 26.7028 0.7040
40.1200 26.7161 0.7124
40.1400 26.7294 0.7120
40.1600 26.7427 0.7018
40.1800 26.7561 0.7066
40.2000 26.7694 0.7126
40.2200 26.7827 0.7023
40.2400 26.7960 0.7060
40.2600 26.8094 0.7152
40.2800 26.8227 0.6973
40.3000 26.8361 0.7055
40.3200 26.8494 0.7136
40.3400 26.8627 0.6912
40.3600 26.8760 0.7130
40.3800 26.8893 0.7086
40.4000 26.9027 0.6899
40.4200 26.9160 0.7101
40.4400 26.9294 0.7030
40.4600 26.9428 0.6886
40.4800 26.9561 0.7101
40.5000 26.9694 0.7001
40.5200 26.9827 0.6842
40.5400 26.9961 0.7058
40.5600 27.0094 0.6938
40.5800 27.0227 0.6829
40.6000 27.0360 0.7057
40.6200 27.0494 0.6885
40.6400 27.0627 0.6827
40.6600 27.0760 0.6997
40.6800 27.0893 0.6874
40.7000 27.1027 0.6830
40.7200 27.1160 0.7030
40.7400 27.1294 0.6814
40.7600 27.1427 0.6810
40.7800 27.1560 0.7027
40.8000 27.1694 0.6775
40.8200 27.1827 0.6865
40.8400 27.1960 0.6938
40.8600 27.2094 0.6745
40.8800 27.2227 0.6861
40.9000 27.2361 0.6871
40.9200 27.2494 0.6736
40.9400 27.2628 0.6859
40.9600 27.2761 0.6864
40.9800 27.2894 0.6787
41.0000 27.3028 0.6831
41.0200 27.3161 0.6819
41.0400 27.3294 0.6776
41.0600 27.3427 0.6840
41.0800 27.3560 0.6760
41.1000 27.3693 0.6835
41.1200 27.3826 0.6835
41.1400 27.3960 0.6758
41.1600 27.4094 0.6792
41.1800 27.4228 0.6757
41.2000 27.4361 0.6761
41.2200 27.4495 0.6801
41.2400 27.4628 0.6728
41.2600 27.4761 0.6741
41.2800 27.4895 0.6785
41.3000 27.5027 0.6790
41.3200 27.5160 0.6744
41.3400 27.5294 0.6767
41.3600 27.5427 0.6748
41.3800 27.5560 0.6766
41.4000 27.5693 0.6768
41.4200 27.5826 0.6747
41.4400 27.5960 0.6814
41.4600 27.6093 0.6760
41.4800 27.6227 0.6754
41.5000 27.6360 0.6782
41.5200 27.6494 0.6782
41.5400 27.6628 0.6772
41.5600 27.6761 0.6776
41.5800 27.6894 0.6763
41.6000 27.7028 0.6771
41.6200 27.7161 0.6783
41.6400 27.7294 0.6783
41.6600 27.7427 0.6778
41.6800 27.7560 0.6807
41.7000 27.7694 0.6835
41.7200 27.7827 0.6737
41.7400 27.7960 0.6811
41.7600 27.8093 0.6859
41.7800 27.8227 0.6767
41.8000 27.8360 0.6806
41.8200 27.8494 0.6813
41.8400 27.8627 0.6819
41.8600 27.8760 0.6810
41.8800 27.8894 0.6800
41.9000 27.9028 0.6772
41.9200 27.9161 0.6809
41.9400 27.9294 0.6757
41.9600 27.9427 0.6796
41.9800 27.9561 0.6805
42.0000 27.9694 0.6744
42.0200 27.9828 0.6800
42.0400 27.9961 0.6787
42.0600 28.0094 0.6758
42.0800 28.0227 0.6792
42.1000 28.0361 0.6723
42.1200 28.0493 0.6711
42.1400 28.0626 0.6791
42.1600 28.0760 0.6702
42.1800 28.0894 0.6712
42.2000 28.1027 0.6743
42.2200 28.1160 0.6721
42.2400 28.1294 0.6680
42.2600 28.1428 0.6728
42.2800 28.1561 0.6707
42.3000 28.1694 0.6651
42.3200 28.1827 0.6664
42.3400 28.1961 0.6704
42.3600 28.2094 0.6632
42.3800 28.2227 0.6658
42.4000 28.2360 0.6694
42.4200 28.2493 0.6570
42.4400 28.2627 0.6623
42.4600 28.2761 0.6670
42.4800 28.2894 0.6591
42.5000 28.3027 0.6630
42.5200 28.3160 0.6653
42.5400 28.3294 0.6539
42.5600 28.3427 0.6595
42.5800 28.3560 0.6694
42.6000 28.3694 0.6480
42.6200 28.3827 0.6610
42.6400 28.3961 0.6607
42.6600 28.4094 0.6501
42.6800 28.4227 0.6624
42.7000 28.4361 0.6551
42.7200 28.4495 0.6492
42.7400 28.4628 0.6622
42.7600 28.4761 0.6545
42.7800 28.4894 0.6503
42.8000 28.5027 0.6561
42.8200 28.5160 0.6538
42.8400 28.5293 0.6502
42.8600 28.5427 0.6514
42.8800 28.5560 0.6535
42.9000 28.5694 0.6475
42.9200 28.5827 0.6485
42.9400 28.5960 0.6561
42.9600 28.6094 0.6462
42.9800 28.6227 0.6490
43.0000 28.6361 0.6516
43.0200 28.6494 0.6479
43.0400 28.6627 0.6507
43.0600 28.6761 0.6514
43.0800 28.6894 0.6471
43.1000 28.7028 0.6511
43.1200 28.7161 0.6505
43.1400 28.7294 0.6428
43.1600 28.7427 0.6516
43.1800 28.7560 0.6473
43.2000 28.7693 0.6391
43.2200 28.7826 0.6538
43.2400 28.7960 0.6491
43.2600 28.8093 0.6392
43.2800 28.8226 0.6566
43.3000 28.8360 0.6476
43.3200 28.8494 0.6407
43.3400 28.8628 0.6558
43.3600 28.8762 0.6487
43.3800 28.8895 0.6406
43.4000 28.9028 0.6550
43.4200 28.9161 0.6426
43.4400 28.9295 0.6396
43.4600 28.9427 0.6517
43.4800 28.9560 0.6493
43.5000 28.9693 0.6414
43.5200 28.9827 0.6514
43.5400 28.9960 0.6448
43.5600 29.0093 0.6424
43.5800 29.0227 0.6462
43.6000 29.0360 0.6443
43.6200 29.0494 0.6425
43.6400 29.0627 0.6410
43.6600 29.0761 0.6491
43.6800 29.0894 0.6453
43.7000 29.1028 0.6402
43.7200 29.1161 0.6475
43.7400 29.1294 0.6395
43.7600 29.1428 0.6424
43.7800 29.1561 0.6477
43.8000 29.1694 0.6415
43.8200 29.1827 0.6427
43.8400 29.1960 0.6454
43.8600 29.2094 0.6373
43.8800 29.2227 0.6440
43.9000 29.2360 0.6471
43.9200 29.2493 0.6311
43.9400 29.2627 0.6453
43.9600 29.2760 0.6476
43.9800 29.2894 0.6283
44.0000 29.3027 0.6440
44.0200 29.3160 0.6408
44.0400 29.3294 0.6294
44.0600 29.3428 0.6456
44.0800 29.3561 0.6391
44.1000 29.3694 0.6311
44.1200 29.3827 0.6461
44.1400 29.3961 0.6352
44.1600 29.4095 0.6276
44.1800 29.4228 0.6467
44.2000 29.4361 0.6310
44.2200 29.4494 0.6342
44.2400 29.4627 0.6399
44.2600 29.4760 0.6287
44.2800 29.4893 0.6293
44.3000 29.5026 0.6380
44.3200 29.5160 0.6303
44.3400 29.5293 0.6293
44.3600 29.5427 0.6358
44.3800 29.5560 0.6277
44.4000 29.5694 0.6277
44.4200 29.5827 0.6311
44.4400 29.5961 0.6285
44.4600 29.6094 0.6286
44.4800 29.6228 0.6278
44.5000 29.6361 0.6259
44.5200 29.6494 0.6278
44.5400 29.6627 0.6259
44.5600 29.6760 0.6251
44.5800 29.6894 0.6295
44.6000 29.7027 0.6225
44.6200 29.7161 0.6244
44.6400 29.7294 0.6226
44.6600 29.7427 0.6225
44.6800 29.7560 0.6237
44.7000 29.7694 0.6178
44.7200 29.7827 0.6240
44.7400 29.7960 0.6201
44.7600 29.8094 0.6120
44.7800 29.8227 0.6251
44.8000 29.8361 0.6183
44.8200 29.8494 0.6114
44.8400 29.8627 0.6245
44.8600 29.8761 0.6177
44.8800 29.8895 0.6134
44.9000 29.9028 0.6239
44.9200 29.9161 0.6128
44.9400 29.9294 0.6111
44.9600 29.9427 0.6229
44.9800 29.9560 0.6100
45.0000 29.9693 0.6123
45.0200 29.9827 0.6160
45.0400 29.9960 0.6128
45.0600 30.0093 0.6051
45.0800 30.0227 0.6156
45.1000 30.0360 0.6150
45.1200 30.0494 0.6043
45.1400 30.0628 0.6168
45.1600 30.0761 0.6074
45.1800 30.0894 0.6067
45.2000 30.1027 0.6150
45.2200 30.1161 0.6094
45.2400 30.1294 0.6106
45.2600 30.1428 0.6062
45.2800 30.1561 0.6085
45.3000 30.1694 0.6083
45.3200 30.1827 0.6092
45.3400 30.1960 0.6112
45.3600 30.2094 0.6074
45.3800 30.2227 0.6079
45.4000 30.2360 0.6051
45.4200 30.2493 0.6058
45.4400 30.2627 0.6066
45.4600 30.2760 0.6084
45.4800 30.2894 0.6042
45.5000 30.3027 0.6017
45.5200 30.3161 0.6080
45.5400 30.3294 0.6044
45.5600 30.3427 0.6046
45.5800 30.3561 0.6068
45.6000 30.3694 0.6003
45.6200 30.3827 0.6057
45.6400 30.3960 0.6027
45.6600 30.4093 0.6026
45.6800 30.4227 0.6021
45.7000 30.4360 0.6024
45.7200 30.4493 0.5972
45.7400 30.4627 0.5988
45.7600 30.4760 0.6062
45.7800 30.4894 0.5951
45.8000 30.5028 0.5998
45.8200 30.5161 0.6042
45.8400 30.5294 0.5933
45.8600 30.5427 0.6042
45.8800 30.5561 0.5975
45.9000 30.5694 0.5902
45.9200 30.5827 0.6016
45.9400 30.5960 0.5973
45.9600 30.6094 0.5915
45.9800 30.6228 0.5976
46.0000 30.6361 0.5951
46.0200 30.6494 0.5893
46.0400 30.6627 0.6011
46.0600 30.6761 0.5936
46.0800 30.6894 0.5895
46.1000 30.7027 0.6010
46.1200 30.7160 0.5903
46.1400 30.7294 0.5907
46.1600 30.7427 0.5981
46.1800 30.7560 0.5941
46.2000 30.7693 0.5908
46.2200 30.7827 0.5937
46.2400 30.7961 0.5866
46.2600 30.8094 0.5918
46.2800 30.8227 0.5975
46.3000 30.8361 0.5849
46.3200 30.8494 0.5947
46.3400 30.8628 0.5911
46.3600 30.8761 0.5825
46.3800 30.8894 0.5974
46.4000 30.9028 0.5879
46.4200 30.9161 0.5812
46.4400 30.9294 0.5963
46.4600 30.9427 0.5814
46.4800 30.9560 0.5817
46.5000 30.9693 0.5928
46.5200 30.9827 0.5792
46.5400 30.9960 0.5839
46.5600 31.0094 0.5919
46.5800 31.0227 0.5732
46.6000 31.0361 0.5866
46.6200 31.0494 0.5878
46.6400 31.0627 0.5712
46.6600 31.0761 0.5861
46.6800 31.0894 0.5843
46.7000 31.1028 0.5711
46.7200 31.1161 0.5846
46.7400 31.1294 0.5840
46.7600 31.1427 0.5739
46.7800 31.1561 0.5815
46.8000 31.1694 0.5848
46.8200 31.1827 0.5764
46.8400 31.1960 0.5839
46.8600 31.2094 0.5807
46.8800 31.2227 0.5724
46.9000 31.2361 0.5829
46.9200 31.2494 0.5800
46.9400 31.2627 0.5741
46.9600 31.2761 0.5849
46.9800 31.2894 0.5781
47.0000 31.3027 0.5744
47.0200 31.3161 0.5825
47.0400 31.3294 0.5814
47.0600 31.3428 0.5751
47.0800 31.3561 0.5841
47.1000 31.3694 0.5835
47.1200 31.3827 0.5754
47.1400 31.3960 0.5833
47.1600 31.4094 0.5805
47.1800 31.4227 0.5804
47.2000 31.4360 0.5832
47.2200 31.4493 0.5781
47.2400 31.4627 0.5805
47.2600 31.4760 0.5874
47.2800 31.4894 0.5802
47.3000 31.5027 0.5790
47.3200 31.5161 0.5786
47.3400 31.5294 0.5774
47.3600 31.5427 0.5800
47.3800 31.5560 0.5807
47.4000 31.5694 0.5815
47.4200 31.5827 0.5785
47.4400 31.5961 0.5772
47.4600 31.6094 0.5805
47.4800 31.6227 0.5756
47.5000 31.6360 0.5791
47.5200 31.6494 0.5757
47.5400 31.6627 0.5707
47.5600 31.6760 0.5757
47.5800 31.6894 0.5736
47.6000 31.7027 0.5702
47.6200 31.7160 0.5737
47.6400 31.7294 0.5724
47.6600 31.7427 0.5711
47.6800 31.7561 0.5709
47.7000 31.7695 0.5692
47.7200 31.7828 0.5697
47.7400 31.7961 0.5744
47.7600 31.8094 0.5659
47.7800 31.8228 0.5697
47.8000 31.8361 0.5746
47.8200 31.8494 0.5658
47.8400 31.8627 0.5723
47.8600 31.8760 0.5682
47.8800 31.8894 0.5668
47.9000 31.9027 0.5718
47.9200 31.9160 0.5682
47.9400 31.9294 0.5667
47.9600 31.9427 0.5702
47.9800 31.9560 0.5662
48.0000 31.9693 0.5649
48.0200 31.9827 0.5694
48.0400 31.9960 0.5649
48.0600 32.0094 0.5654
48.0800 32.0227 0.5715
48.1000 32.0360 0.5596
48.1200 32.0494 0.5623
48.1400 32.0628 0.5709
48.1600 32.0761 0.5596
48.1800 32.0894 0.5665
48.2000 32.1028 0.5710
48.2200 32.1161 0.5576
48.2400 32.1294 0.5627
48.2600 32.1427 0.5682
48.2800 32.1560 0.5596
48.3000 32.1693 0.5619
48.3200 32.1826 0.5665
48.3400 32.1960 0.5599
48.3600 32.2093 0.5611
48.3800 32.2227 0.5667
48.4000 32.2361 0.5577
48.4200 32.2495 0.5576
48.4400 32.2628 0.5688
48.4600 32.2761 0.5583
48.4800 32.2895 0.5569
48.5000 32.3028 0.5673
48.5200 32.3161 0.5532
48.5400 32.3294 0.5548
48.5600 32.3427 0.5650
48.5800 32.3560 0.5535
48.6000 32.3694 0.5516
48.6200 32.3827 0.5645
48.6400 32.3960 0.5529
48.6600 32.4093 0.5478
48.6800 32.4227 0.5619
48.7000 32.4360 0.5507
48.7200 32.4494 0.5475
48.7400 32.4627 0.5631
48.7600 32.4761 0.5442
48.7800 32.4895 0.5475
48.8000 32.5028 0.5597
48.8200 32.5161 0.5465
48.8400 32.5294 0.5462
48.8600 32.5428 0.5589
48.8800 32.5561 0.5409
48.9000 32.5694 0.5482
48.9200 32.5827 0.5593
48.9400 32.5960 0.5388
48.9600 32.6094 0.5455
48.9800 32.6227 0.5516
49.0000 32.6360 0.5415
49.0200 32.6493 0.5476
49.0400 32.6627 0.5507
49.0600 32.6760 0.5404
49.0800 32.6894 0.5469
49.1000 32.7027 0.5516
49.1200 32.7161 0.5402
49.1400 32.7294 0.5506
49.1600 32.7427 0.5504
49.1800 32.7561 0.5413
49.2000 32.7694 0.5518
49.2200 32.7828 0.5500
49.2400 32.7961 0.5435
49.2600 32.8094 0.5459
49.2800 32.8227 0.5532
49.3000 32.8361 0.5379
49.3200 32.8494 0.5493
49.3400 32.8627 0.5520
49.3600 32.8760 0.5437
49.3800 32.8893 0.5523
49.4000 32.9027 0.5493
49.4200 32.9160 0.5396
49.4400 32.9294 0.5521
49.4600 32.9427 0.5481
49.4800 32.9561 0.5378
49.5000 32.9695 0.5459
49.5200 32.9828 0.5466
49.5400 32.9961 0.5401
49.5600 33.0094 0.5480
49.5800 33.0228 0.5380
49.6000 33.0361 0.5402
49.6200 33.0494 0.5469
49.6400 33.0627 0.5383
49.6600 33.0760 0.5423
49.6800 33.0894 0.5392
49.7000 33.1027 0.5362
49.7200 33.1160 0.5426
49.7400 33.1293 0.5383
49.7600 33.1427 0.5376
49.7800 33.1560 0.5405
49.8000 33.1693 0.5365
49.8200 33.1827 0.5339
49.8400 33.1961 0.5369
49.8600 33.2094 0.5316
49.8800 33.2228 0.5348
49.9000 33.2361 0.5395
49.9200 33.2494 0.5302
49.9400 33.2628 0.5331
49.9600 33.2761 0.5347
49.9800 33.2894 0.5280
50.0000 33.3027 0.5366
50.0200 33.3161 0.5356
50.0400 33.3294 0.5298
50.0600 33.3427 0.5305
50.0800 33.3560 0.5330
50.1000 33.3693 0.5276
50.1200 33.3827 0.5283
50.1400 33.3960 0.5339
50.1600 33.4094 0.5201
50.1800 33.4227 0.5312
50.2000 33.4361 0.5281
50.2200 33.4494 0.5213
50.2400 33.4627 0.5316
50.2600 33.4761 0.5256
50.2800 33.4894 0.5222
50.3000 33.5028 0.5281
50.3200 33.5161 0.5221
50.3400 33.5294 0.5238
50.3600 33.5427 0.5318
50.3800 33.5561 0.5181
50.4000 33.5694 0.5190
50.4200 33.5827 0.5331
50.4400 33.5960 0.5145
50.4600 33.6093 0.5198
50.4800 33.6226 0.5262
50.5000 33.6360 0.5108
50.5200 33.6493 0.5190
50.5400 33.6627 0.5232
50.5600 33.6761 0.5084
50.5800 33.6895 0.5180
50.6000 33.7028 0.5188
50.6200 33.7161 0.5098
50.6400 33.7295 0.5219
50.6600 33.7428 0.5166
50.6800 33.7561 0.5073
50.7000 33.7694 0.5188
50.7200 33.7826 0.5143
50.7400 33.7960 0.5124
50.7600 33.8093 0.5146
50.7800 33.8227 0.5119
50.8000 33.8360 0.5105
50.8200 33.8493 0.5139
50.8400 33.8627 0.5109
50.8600 33.8761 0.5088
50.8800 33.8894 0.5157
50.9000 33.9027 0.5048
50.9200 33.9161 0.5094
50.9400 33.9295 0.5122
50.9600 33.9428 0.5091
50.9800 33.9561 0.5121
51.0000 33.9694 0.5115
51.0200 33.9827 0.5103
51.0400 33.9961 0.5085
51.0600 34.0094 0.5135
51.0800 34.0227 0.5175
51.1000 34.0360 0.5061
51.1200 34.0494 0.5111
51.1400 34.0627 0.5088
51.1600 34.0760 0.5097
51.1800 34.0893 0.5143
51.2000 34.1027 0.5133
51.2200 34.1160 0.5045
51.2400 34.1294 0.5092
51.2600 34.1427 0.5131
51.2800 34.1561 0.5043
51.3000 34.1694 0.5126
51.3200 34.1828 0.5118
51.3400 34.1961 0.5032
51.3600 34.2094 0.5062
51.3800 34.2228 0.5128
51.4000 34.2361 0.5007
51.4200 34.2494 0.5111
51.4400 34.2627 0.5144
51.4600 34.2761 0.4969
51.4800 34.2894 0.5135
51.5000 34.3027 0.5086
51.5200 34.3160 0.4985
51.5400 34.3293 0.5183
51.5600 34.3427 0.5032
51.5800 34.3560 0.4974
51.6000 34.3694 0.5128
51.6200 34.3827 0.5004
51.6400 34.3960 0.5049
51.6600 34.4094 0.5084
51.6800 34.4228 0.4970
51.7000 34.4361 0.5058
51.7200 34.4494 0.5050
51.7400 34.4628 0.4962
51.7600 34.4761 0.5044
51.7800 34.4894 0.5052
51.8000 34.5027 0.4943
51.8200 34.5160 0.5074
51.8400 34.5294 0.4951
51.8600 34.5427 0.4962
51.8800 34.5560 0.5055
51.9000 34.5694 0.4955
51.9200 34.5827 0.4998
51.9400 34.5960 0.4952
51.9600 34.6093 0.4931
51.9800 34.6227 0.4989
52.0000 34.6360 0.4935
52.0200 34.6494 0.4930
52.0400 34.6627 0.4943
52.0600 34.6760 0.4948
52.0800 34.6894 0.4947
52.1000 34.7028 0.4938
52.1200 34.7161 0.4862
52.1400 34.7294 0.4974
52.1600 34.7427 0.4938
52.1800 34.7560 0.4853
52.2000 34.7694 0.4992
52.2200 34.7827 0.4850
52.2400 34.7960 0.4865
52.2600 34.8093 0.4974
52.2800 34.8227 0.4844
52.3000 34.8360 0.4859
52.3200 34.8493 0.4931
52.3400 34.8627 0.4810
52.3600 34.8761 0.4855
52.3800 34.8895 0.4910
52.4000 34.9028 0.4834
52.4200 34.9161 0.4855
52.4400 34.9294 0.4903
52.4600 34.9428 0.4862
52.4800 34.9561 0.4909
52.5000 34.9694 0.4830
52.5200 34.9827 0.4877
52.5400 34.9960 0.4890
52.5600 35.0094 0.4821
52.5800 35.0227 0.4845
52.6000 35.0360 0.4921
52.6200 35.0493 0.4893
52.6400 35.0627 0.4859
52.6600 35.0760 0.4898
52.6800 35.0893 0.4897
52.7000 35.1027 0.4902
52.7200 35.1160 0.4874
52.7400 35.1294 0.4887
52.7600 35.1428 0.4858
52.7800 35.1561 0.4876
52.8000 35.1694 0.4930
52.8200 35.1828 0.4858
52.8400 35.1961 0.4853
52.8600 35.2094 0.4829
52.8800 35.2227 0.4920
52.9000 35.2360 0.4814
52.9200 35.2493 0.4842
52.9400 35.2627 0.4880
52.9600 35.2760 0.4778
52.9800 35.2894 0.4861
53.0000 35.3027 0.4772
53.0200 35.3161 0.4743
53.0400 35.3294 0.4884
53.0600 35.3427 0.4762
53.0800 35.3561 0.4722
53.1000 35.3694 0.4882
53.1200 35.3828 0.4741
53.1400 35.3961 0.4670
53.1600 35.4094 0.4889
53.1800 35.4227 0.4714
53.2000 35.4361 0.4666
53.2200 35.4494 0.4827
53.2400 35.4627 0.4684
53.2600 35.4761 0.4647
53.2800 35.4894 0.4823
53.3000 35.5028 0.4654
53.3200 35.5161 0.4608
53.3400 35.5293 0.4821
53.3600 35.5427 0.4658
53.3800 35.5560 0.4594
53.4000 35.5693 0.4721
53.4200 35.5827 0.4633
53.4400 35.5960 0.4605
53.4600 35.6094 0.4739
53.4800 35.6228 0.4548
53.5000 35.6361 0.4613
53.5200 35.6494 0.4807
53.5400 35.6627 0.4523
53.5600 35.6761 0.4583
53.5800 35.6894 0.4756
53.6000 35.7027 0.4522
53.6200 35.7161 0.4591
53.6400 35.7294 0.4778
53.6600 35.7427 0.4555
53.6800 35.7560 0.4601
53.7000 35.7693 0.4734
53.7200 35.7826 0.4510
53.7400 35.7960 0.4621
53.7600 35.8093 0.4724
53.7800 35.8227 0.4569
53.8000 35.8360 0.4569
53.8200 35.8494 0.4655
53.8400 35.8628 0.4608
53.8600 35.8761 0.4599
53.8800 35.8894 0.4608
53.9000 35.9028 0.4610
53.9200 35.9161 0.4626
53.9400 35.9294 0.4592
53.9600 35.9427 0.4532
53.9800 35.9560 0.4645
54.0000 35.9694 0.4694
54.0200 35.9827 0.4498
54.0400 35.9960 0.4550
54.0600 36.0093 0.4678
54.0800 36.0227 0.4579
54.1000 36.0361 0.4541
54.1200 36.0494 0.4666
54.1400 36.0627 0.4534
54.1600 36.0760 0.4525
54.1800 36.0894 0.4640
54.2000 36.1027 0.4479
54.2200 36.1161 0.4569
54.2400 36.1294 0.4595
54.2600 36.1428 0.4464
54.2800 36.1561 0.4486
54.3000 36.1695 0.4594
54.3200 36.1827 0.4483
54.3400 36.1960 0.4465
54.3600 36.2094 0.4570
54.3800 36.2227 0.4438
54.4000 36.2360 0.4444
54.4200 36.2493 0.4588
54.4400 36.2627 0.4412
54.4600 36.2760 0.4439
54.4800 36.2894 0.4587
54.5000 36.3027 0.4364
54.5200 36.3160 0.4428
54.5400 36.3294 0.4583
54.5600 36.3428 0.4368
54.5800 36.3561 0.4403
54.6000 36.3694 0.4598
54.6200 36.3828 0.4325
54.6400 36.3961 0.4430
54.6600 36.4094 0.4531
54.6800 36.4227 0.4320
54.7000 36.4360 0.4426
54.7200 36.4493 0.4464
54.7400 36.4627 0.4346
54.7600 36.4760 0.4433
54.7800 36.4894 0.4453
54.8000 36.5027 0.4318
54.8200 36.5160 0.4388
54.8400 36.5294 0.4477
54.8600 36.5427 0.4367
54.8800 36.5560 0.4384
54.9000 36.5694 0.4408
54.9200 36.5828 0.4369
54.9400 36.5961 0.4326
54.9600 36.6094 0.4435
54.9800 36.6227 0.4391
55.0000 36.6361 0.4332
55.0200 36.6494 0.4432
55.0400 36.6627 0.4396
55.0600 36.6760 0.4325
55.0800 36.6893 0.4367
55.1000 36.7027 0.4412
55.1200 36.7160 0.4253
55.1400 36.7293 0.4421
55.1600 36.7427 0.4392
55.1800 36.7560 0.4248
55.2000 36.7694 0.4373
55.2200 36.7827 0.4359
55.2400 36.7960 0.4309
55.2600 36.8094 0.4397
55.2800 36.8227 0.4320
55.3000 36.8360 0.4296
55.3200 36.8494 0.4392
55.3400 36.8627 0.4283
55.3600 36.8761 0.4310
55.3800 36.8894 0.4338
55.4000 36.9027 0.4298
55.4200 36.9161 0.4292
55.4400 36.9294 0.4339
55.4600 36.9428 0.4281
55.4800 36.9561 0.4336
55.5000 36.9693 0.4281
55.5200 36.9826 0.4319
55.5400 36.9960 0.4314
55.5600 37.0093 0.4268
55.5800 37.0227 0.4276
55.6000 37.0360 0.4312
55.6200 37.0494 0.4259
55.6400 37.0628 0.4273
55.6600 37.0761 0.4321
55.6800 37.0895 0.4282
55.7000 37.1028 0.4281
55.7200 37.1161 0.4316
55.7400 37.1295 0.4262
55.7600 37.1428 0.4254
55.7800 37.1561 0.4248
55.8000 37.1694 0.4359
55.8200 37.1827 0.4234
55.8400 37.1960 0.4208
55.8600 37.2093 0.4338
55.8800 37.2226 0.4291
55.9000 37.2360 0.4219
55.9200 37.2493 0.4312
55.9400 37.2627 0.4321
55.9600 37.2760 0.4258
55.9800 37.2894 0.4235
56.0000 37.3028 0.4283
56.0200 37.3161 0.4278
56.0400 37.3294 0.4228
56.0600 37.3428 0.4259
56.0800 37.3561 0.4261
56.1000 37.3695 0.4235
56.1200 37.3828 0.4279
56.1400 37.3961 0.4250
56.1600 37.4094 0.4142
56.1800 37.4227 0.4255
56.2000 37.4360 0.4270
56.2200 37.4493 0.4150
56.2400 37.4627 0.4206
56.2600 37.4760 0.4294
56.2800 37.4894 0.4150
56.3000 37.5027 0.4177
56.3200 37.5160 0.4121
56.3400 37.5294 0.4124
56.3600 37.5427 0.4235
56.3800 37.5561 0.4157
56.4000 37.5694 0.4112
56.4200 37.5827 0.4187
56.4400 37.5961 0.4144
56.4600 37.6094 0.4146
56.4800 37.6227 0.4119
56.5000 37.6361 0.4099
56.5200 37.6494 0.4152
56.5400 37.6627 0.4157
56.5600 37.6761 0.4006
56.5800 37.6893 0.4044
56.6000 37.7026 0.4186
56.6200 37.7160 0.4076
56.6400 37.7294 0.3973
56.6600 37.7427 0.4109
56.6800 37.7560 0.4075
56.7000 37.7694 0.4070
56.7200 37.7828 0.4096
56.7400 37.7961 0.4015
56.7600 37.8094 0.4065
56.7800 37.8228 0.4165
56.8000 37.8361 0.3964
56.8200 37.8494 0.3998
56.8400 37.8627 0.4159
56.8600 37.8760 0.4008
56.8800 37.8894 0.4008
56.9000 37.9027 0.4082
56.9200 37.9160 0.4021
56.9400 37.9294 0.4039
56.9600 37.9427 0.4035
56.9800 37.9560 0.3930
57.0000 37.9694 0.4010
57.0200 37.9827 0.4153
57.0400 37.9960 0.3997
57.0600 38.0094 0.3916
57.0800 38.0228 0.4027
57.1000 38.0361 0.3990
57.1200 38.0494 0.3933
57.1400 38.0628 0.4022
57.1600 38.0761 0.4057
57.1800 38.0895 0.3898
57.2000 38.1028 0.3939
57.2200 38.1161 0.3993
57.2400 38.1294 0.3863
57.2600 38.1427 0.3985
57.2800 38.1560 0.3938
57.3000 38.1694 0.3819
57.3200 38.1827 0.3973
57.3400 38.1960 0.3905
57.3600 38.2093 0.3873
57.3800 38.2227 0.3898
57.4000 38.2360 0.3805
57.4200 38.2494 0.3919
57.4400 38.2628 0.3843
57.4600 38.2761 0.3813
57.4800 38.2894 0.3905
57.5000 38.3027 0.3846
57.5200 38.3161 0.3803
57.5400 38.3295 0.3867
57.5600 38.3428 0.3824
57.5800 38.3561 0.3844
57.6000 38.3694 0.3906
57.6200 38.3827 0.3776
57.6400 38.3960 0.3826
57.6600 38.4093 0.3855
57.6800 38.4226 0.3743
57.7000 38.4360 0.3894
57.7200 38.4493 0.3774
57.7400 38.4626 0.3761
57.7600 38.4760 0.3903
57.7800 38.4894 0.3714
57.8000 38.5028 0.3770
57.8200 38.5161 0.3902
57.8400 38.5295 0.3668
57.8600 38.5428 0.3759
57.8800 38.5561 0.3821
57.9000 38.5695 0.3691
57.9200 38.5828 0.3734
57.9400 38.5960 0.3800
57.9600 38.6093 0.3674
57.9800 38.6227 0.3748
58.0000 38.6360 0.3734
58.0200 38.6493 0.3716
58.0400 38.6627 0.3744
58.0600 38.6760 0.3709
58.0800 38.6894 0.3629
58.1000 38.7027 0.3687
58.1200 38.7161 0.3684
58.1400 38.7294 0.3680
58.1600 38.7428 0.3654
58.1800 38.7561 0.3663
58.2000 38.7694 0.3672
58.2200 38.7827 0.3649
58.2400 38.7961 0.3650
58.2600 38.8094 0.3608
58.2800 38.8227 0.3618
58.3000 38.8361 0.3631
58.3200 38.8494 0.3593
58.3400 38.8627 0.3540
58.3600 38.8761 0.3623
58.3800 38.8894 0.3558
58.4000 38.9027 0.3550
58.4200 38.9160 0.3567
58.4400 38.9294 0.3531
58.4600 38.9427 0.3518
58.4800 38.9561 0.3587
58.5000 38.9694 0.3472
58.5200 38.9828 0.3494
58.5400 38.9961 0.3541
58.5600 39.0094 0.3470
58.5800 39.0227 0.3435
58.6000 39.0361 0.3541
58.6200 39.0494 0.3437
58.6400 39.0628 0.3460
58.6600 39.0761 0.3537
58.6800 39.0894 0.3441
58.7000 39.1027 0.3422
58.7200 39.1160 0.3519
58.7400 39.1293 0.3411
58.7600 39.1427 0.3429
58.7800 39.1560 0.3469
58.8000 39.1694 0.3417
58.8200 39.1827 0.3410
58.8400 39.1960 0.3464
58.8600 39.2094 0.3436
58.8800 39.2227 0.3423
58.9000 39.2361 0.3457
58.9200 39.2495 0.3382
58.9400 39.2628 0.3428
58.9600 39.2761 0.3462
58.9800 39.2894 0.3385
59.0000 39.3027 0.3454
59.0200 39.3160 0.3462
59.0400 39.3294 0.3371
59.0600 39.3427 0.3376
59.0800 39.3561 0.3453
59.1000 39.3694 0.3432
59.1200 39.3827 0.3292
59.1400 39.3960 0.3441
59.1600 39.4094 0.3404
59.1800 39.4227 0.3292
59.2000 39.4360 0.3464
59.2200 39.4493 0.3319
59.2400 39.4627 0.3266
59.2600 39.4761 0.3522
59.2800 39.4894 0.3317
59.3000 39.5027 0.3267
59.3200 39.5161 0.3514
59.3400 39.5295 0.3244
59.3600 39.5428 0.3339
59.3800 39.5561 0.3611
59.4000 39.5694 0.3119
59.4200 39.5827 0.3444
59.4400 39.5960 0.3598
59.4600 39.6094 0.3154
59.4800 39.6227 0.3505
59.5000 39.6360 0.3551
59.5200 39.6493 0.3211
59.5400 39.6627 0.3528
59.5600 39.6760 0.3487
59.5800 39.6894 0.3256
59.6000 39.7028 0.3558
59.6200 39.7161 0.3426
59.6400 39.7295 0.3282
59.6600 39.7428 0.3585
59.6800 39.7561 0.3350
59.7000 39.7694 0.3320
59.7200 39.7828 0.3537
59.7400 39.7961 0.3324
59.7600 39.8094 0.3395
59.7800 39.8227 0.3468
59.8000 39.8361 0.3249
59.8200 39.8494 0.3426
59.8400 39.8627 0.3396
59.8600 39.8760 0.3244
59.8800 39.8893 0.3417
59.9000 39.9027 0.3274
59.9200 39.9160 0.3273
59.9400 39.9294 0.3360
59.9600 39.9427 0.3210
59.9800 39.9561 0.3238
60.0000 39.9694 0.3312
60.0200 39.9828 0.3123
60.0400 39.9961 0.3195
60.0470 40.0006 0.3093
