Raw Data
Time Displacement Force
(s) (mm) (N)
0.0000 0.0000 0.4291
0.0200 0.0001 0.4487
0.0400 0.0022 0.5185
0.0600 0.0101 0.5085
0.0800 0.0221 0.4359
0.1000 0.0346 0.4433
0.1200 0.0473 0.4670
0.1400 0.0607 0.4365
0.1600 0.0748 0.4457
0.1800 0.0889 0.4433
0.2000 0.1028 0.4315
0.2200 0.1164 0.4460
0.2400 0.1297 0.4447
0.2600 0.1430 0.4446
0.2800 0.1564 0.4535
0.3000 0.1698 0.4457
0.3200 0.1831 0.4409
0.3400 0.1965 0.4579
0.3600 0.2098 0.4422
0.3800 0.2231 0.4429
0.4000 0.2365 0.4518
0.4200 0.2498 0.4415
0.4400 0.2631 0.4465
0.4600 0.2764 0.4514
0.4800 0.2898 0.4440
0.5000 0.3031 0.4475
0.5200 0.3165 0.4490
0.5400 0.3298 0.4411
0.5600 0.3431 0.4479
0.5800 0.3565 0.4500
0.6000 0.3698 0.4405
0.6200 0.3831 0.4439
0.6400 0.3965 0.4502
0.6600 0.4099 0.4373
0.6800 0.4232 0.4449
0.7000 0.4365 0.4474
0.7200 0.4498 0.4364
0.7400 0.4632 0.4392
0.7600 0.4765 0.4495
0.7800 0.4899 0.4350
0.8000 0.5032 0.4351
0.8200 0.5165 0.4414
0.8400 0.5298 0.4326
0.8600 0.5432 0.4313
0.8800 0.5564 0.4414
0.9000 0.5697 0.4331
0.9200 0.5831 0.4314
0.9400 0.5964 0.4332
0.9600 0.6098 0.4307
0.9800 0.6231 0.4316
1.0000 0.6364 0.4343
1.0200 0.6498 0.4270
1.0400 0.6632 0.4261
1.0600 0.6765 0.4281
1.0800 0.6898 0.4260
1.1000 0.7032 0.4267
1.1200 0.7165 0.4268
1.1400 0.7298 0.4191
1.1600 0.7431 0.4305
1.1800 0.7565 0.4262
1.2000 0.7698 0.4172
1.2200 0.7832 0.4289
1.2400 0.7965 0.4224
1.2600 0.8098 0.4192
1.2800 0.8231 0.4279
1.3000 0.8365 0.4214
1.3200 0.8498 0.4162
1.3400 0.8631 0.4247
1.3600 0.8765 0.4157
1.3800 0.8898 0.4205
1.4000 0.9032 0.4227
1.4200 0.9165 0.4130
1.4400 0.9298 0.4237
1.4600 0.9432 0.4183
1.4800 0.9565 0.4119
1.5000 0.9699 0.4240
1.5200 0.9832 0.4147
1.5400 0.9965 0.4132
1.5600 1.0098 0.4208
1.5800 1.0231 0.4118
1.6000 1.0364 0.4133
1.6200 1.0497 0.4195
1.6400 1.0631 0.4050
1.6600 1.0764 0.4113
1.6800 1.0898 0.4152
1.7000 1.1031 0.4051
1.7200 1.1165 0.4112
1.7400 1.1299 0.4117
1.7600 1.1432 0.4033
1.7800 1.1566 0.4143
1.8000 1.1699 0.4126
1.8200 1.1832 0.4049
1.8400 1.1965 0.4167
1.8600 1.2099 0.4097
1.8800 1.2232 0.4042
1.9000 1.2365 0.4143
1.9200 1.2498 0.4106
1.9400 1.2632 0.4037
1.9600 1.2765 0.4126
1.9800 1.2898 0.4119
2.0000 1.3031 0.3999
2.0200 1.3164 0.4112
2.0400 1.3298 0.4068
2.0600 1.3431 0.4007
2.0800 1.3565 0.4055
2.1000 1.3699 0.4049
2.1200 1.3832 0.3977
2.1400 1.3966 0.4036
2.1600 1.4099 0.4043
2.1800 1.4232 0.3943
2.2000 1.4365 0.4006
2.2200 1.4499 0.4021
2.2400 1.4631 0.3907
2.2600 1.4764 0.3956
2.2800 1.4898 0.4005
2.3000 1.5031 0.3863
2.3200 1.5164 0.3968
2.3400 1.5298 0.4002
2.3600 1.5431 0.3883
2.3800 1.5565 0.3943
2.4000 1.5699 0.3959
2.4200 1.5832 0.3861
2.4400 1.5965 0.3943
2.4600 1.6098 0.3972
2.4800 1.6232 0.3864
2.5000 1.6365 0.3919
2.5200 1.6498 0.3952
2.5400 1.6631 0.3841
2.5600 1.6765 0.3937
2.5800 1.6899 0.3922
2.6000 1.7032 0.3852
2.6200 1.7165 0.3883
2.6400 1.7298 0.3917
2.6600 1.7432 0.3850
2.6800 1.7565 0.3805
2.7000 1.7698 0.3941
2.7200 1.7831 0.3800
2.7400 1.7965 0.3762
2.7600 1.8098 0.3910
2.7800 1.8231 0.3773
2.8000 1.8364 0.3738
2.8200 1.8498 0.3922
2.8400 1.8632 0.3746
2.8600 1.8765 0.3737
2.8800 1.8898 0.3942
2.9000 1.9032 0.3702
2.9200 1.9165 0.3725
2.9400 1.9299 0.3916
2.9600 1.9432 0.3658
2.9800 1.9565 0.3810
3.0000 1.9698 0.3870
3.0200 1.9832 0.3640
3.0400 1.9965 0.3747
3.0600 2.0098 0.3900
3.0800 2.0231 0.3639
3.1000 2.0364 0.3769
3.1200 2.0498 0.3826
3.1400 2.0631 0.3574
3.1600 2.0765 0.3753
3.1800 2.0898 0.3772
3.2000 2.1032 0.3638
3.2200 2.1166 0.3795
3.2400 2.1299 0.3699
3.2600 2.1432 0.3664
3.2800 2.1565 0.3751
3.3000 2.1699 0.3715
3.3200 2.1832 0.3646
3.3400 2.1965 0.3727
3.3600 2.2098 0.3686
3.3800 2.2232 0.3627
3.4000 2.2365 0.3665
3.4200 2.2498 0.3643
3.4400 2.2631 0.3649
3.4600 2.2765 0.3661
3.4800 2.2898 0.3625
3.5000 2.3032 0.3653
3.5200 2.3165 0.3593
3.5400 2.3298 0.3684
3.5600 2.3432 0.3605
3.5800 2.3565 0.3565
3.6000 2.3699 0.3669
3.6200 2.3832 0.3527
3.6400 2.3966 0.3551
3.6600 2.4099 0.3637
3.6800 2.4232 0.3530
3.7000 2.4365 0.3504
3.7200 2.4498 0.3622
3.7400 2.4632 0.3490
3.7600 2.4765 0.3501
3.7800 2.4898 0.3616
3.8000 2.5031 0.3492
3.8200 2.5164 0.3527
3.8400 2.5298 0.3520
3.8600 2.5431 0.3474
3.8800 2.5564 0.3554
3.9000 2.5698 0.3516
3.9200 2.5832 0.3462
3.9400 2.5966 0.3538
3.9600 2.6099 0.3495
3.9800 2.6232 0.3405
4.0000 2.6365 0.3536
4.0200 2.6499 0.3479
4.0400 2.6632 0.3398
4.0600 2.6765 0.3494
4.0800 2.6898 0.3486
4.1000 2.7032 0.3418
4.1200 2.7165 0.3475
4.1400 2.7298 0.3448
4.1600 2.7431 0.3436
4.1800 2.7565 0.3453
4.2000 2.7698 0.3450
4.2200 2.7831 0.3438
4.2400 2.7964 0.3458
4.2600 2.8098 0.3424
4.2800 2.8232 0.3435
4.3000 2.8365 0.3385
4.3200 2.8499 0.3422
4.3400 2.8632 0.3432
4.3600 2.8765 0.3309
4.3800 2.8899 0.3471
4.4000 2.9032 0.3402
4.4200 2.9165 0.3348
4.4400 2.9298 0.3466
4.4600 2.9431 0.3349
4.4800 2.9565 0.3329
4.5000 2.9698 0.3435
4.5200 2.9831 0.3362
4.5400 2.9965 0.3338
4.5600 3.0098 0.3408
4.5800 3.0231 0.3301
4.6000 3.0365 0.3356
4.6200 3.0498 0.3395
4.6400 3.0631 0.3330
4.6600 3.0765 0.3338
4.6800 3.0898 0.3353
4.7000 3.1031 0.3273
4.7200 3.1165 0.3285
4.7400 3.1299 0.3334
4.7600 3.1432 0.3301
4.7800 3.1565 0.3282
4.8000 3.1699 0.3300
4.8200 3.1832 0.3265
4.8400 3.1965 0.3237
4.8600 3.2098 0.3254
4.8800 3.2231 0.3244
4.9000 3.2364 0.3241
4.9200 3.2497 0.3230
4.9400 3.2631 0.3254
4.9600 3.2764 0.3195
4.9800 3.2898 0.3238
5.0000 3.3032 0.3244
5.0200 3.3166 0.3155
5.0400 3.3299 0.3194
5.0600 3.3432 0.3254
5.0800 3.3566 0.3175
5.1000 3.3699 0.3165
5.1200 3.3832 0.3258
5.1400 3.3965 0.3145
5.1600 3.4098 0.3144
5.1800 3.4231 0.3280
5.2000 3.4365 0.3132
5.2200 3.4498 0.3162
5.2400 3.4631 0.3210
5.2600 3.4764 0.3128
5.2800 3.4898 0.3209
5.3000 3.5031 0.3166
5.3200 3.5164 0.3084
5.3400 3.5298 0.3157
5.3600 3.5432 0.3115
5.3800 3.5565 0.3017
5.4000 3.5699 0.3205
5.4200 3.5832 0.3100
5.4400 3.5965 0.3011
5.4600 3.6099 0.3157
5.4800 3.6232 0.3040
5.5000 3.6365 0.3019
5.5200 3.6498 0.3155
5.5400 3.6631 0.3009
5.5600 3.6765 0.2997
5.5800 3.6898 0.3128
5.6000 3.7031 0.2989
5.6200 3.7164 0.3016
5.6400 3.7298 0.3100
5.6600 3.7432 0.2959
5.6800 3.7565 0.3018
5.7000 3.7698 0.3036
5.7200 3.7832 0.2979
5.7400 3.7965 0.3041
5.7600 3.8099 0.2989
5.7800 3.8232 0.2980
5.8000 3.8365 0.3053
5.8200 3.8499 0.2962
5.8400 3.8632 0.2956
5.8600 3.8765 0.3060
5.8800 3.8898 0.2951
5.9000 3.9032 0.3012
5.9200 3.9165 0.3026
5.9400 3.9298 0.2938
5.9600 3.9431 0.2991
5.9800 3.9564 0.3039
6.0000 3.9698 0.2938
6.0200 3.9831 0.2983
6.0400 3.9965 0.3004
6.0600 4.0098 0.2908
6.0800 4.0232 0.3014
6.1000 4.0366 0.2990
6.1200 4.0499 0.2925
6.1400 4.0632 0.3000
6.1600 4.0765 0.2974
6.1800 4.0899 0.2910
6.2000 4.1032 0.2959
6.2200 4.1165 0.2984
6.2400 4.1298 0.2895
6.2600 4.1431 0.2972
6.2800 4.1565 0.2968
6.3000 4.1698 0.2896
6.3200 4.1831 0.2980
6.3400 4.1964 0.2934
6.3600 4.2098 0.2891
6.3800 4.2231 0.2974
6.4000 4.2364 0.2887
6.4200 4.2498 0.2887
6.4400 4.2632 0.2910
6.4600 4.2765 0.2847
6.4800 4.2899 0.2865
6.5000 4.3032 0.2901
6.5200 4.3165 0.2830
6.5400 4.3299 0.2867
6.5600 4.3432 0.2813
6.5800 4.3565 0.2845
6.6000 4.3698 0.2917
6.6200 4.3831 0.2779
6.6400 4.3965 0.2846
6.6600 4.4098 0.2850
6.6800 4.4231 0.2758
6.7000 4.4364 0.2872
6.7200 4.4498 0.2802
6.7400 4.4631 0.2716
6.7600 4.4764 0.2839
6.7800 4.4898 0.2714
6.8000 4.5031 0.2742
6.8200 4.5165 0.2852
6.8400 4.5299 0.2699
6.8600 4.5432 0.2762
6.8800 4.5565 0.2850
6.9000 4.5698 0.2689
6.9200 4.5832 0.2804
6.9400 4.5965 0.2816
6.9600 4.6098 0.2651
6.9800 4.6232 0.2756
7.0000 4.6365 0.2780
7.0200 4.6498 0.2625
7.0400 4.6631 0.2805
7.0600 4.6764 0.2745
7.0800 4.6897 0.2665
7.1000 4.7031 0.2772
7.1200 4.7164 0.2710
7.1400 4.7298 0.2668
7.1600 4.7432 0.2731
7.1800 4.7566 0.2676
7.2000 4.7699 0.2595
7.2200 4.7833 0.2724
7.2400 4.7966 0.2703
7.2600 4.8099 0.2553
7.2800 4.8232 0.2739
7.3000 4.8365 0.2702
7.3200 4.8498 0.2585
7.3400 4.8631 0.2701
7.3600 4.8764 0.2682
7.3800 4.8898 0.2608
7.4000 4.9031 0.2657
7.4200 4.9165 0.2634
7.4400 4.9298 0.2564
7.4600 4.9432 0.2644
7.4800 4.9565 0.2649
7.5000 4.9698 0.2540
7.5200 4.9832 0.2619
7.5400 4.9966 0.2609
7.5600 5.0099 0.2545
7.5800 5.0232 0.2607
7.6000 5.0365 0.2587
7.6200 5.0499 0.2520
7.6400 5.0632 0.2594
7.6600 5.0765 0.2600
7.6800 5.0898 0.2509
7.7000 5.1031 0.2586
7.7200 5.1165 0.2591
7.7400 5.1298 0.2518
7.7600 5.1431 0.2527
7.7800 5.1564 0.2550
7.8000 5.1698 0.2519
7.8200 5.1831 0.2518
7.8400 5.1965 0.2556
7.8600 5.2098 0.2517
7.8800 5.2232 0.2501
7.9000 5.2365 0.2591
7.9200 5.2499 0.2461
7.9400 5.2632 0.2505
7.9600 5.2765 0.2571
7.9800 5.2899 0.2459
8.0000 5.3032 0.2501
8.0200 5.3165 0.2568
8.0400 5.3298 0.2475
8.0600 5.3432 0.2505
8.0800 5.3565 0.2529
8.1000 5.3698 0.2421
8.1200 5.3831 0.2486
8.1400 5.3964 0.2523
8.1600 5.4098 0.2449
8.1800 5.4231 0.2452
8.2000 5.4365 0.2531
8.2200 5.4498 0.2427
8.2400 5.4631 0.2436
8.2600 5.4765 0.2516
8.2800 5.4899 0.2445
8.3000 5.5032 0.2361
8.3200 5.5165 0.2569
8.3400 5.5299 0.2432
8.3600 5.5432 0.2340
8.3800 5.5565 0.2524
8.4000 5.5698 0.2460
8.4200 5.5831 0.2361
8.4400 5.5965 0.2497
8.4600 5.6098 0.2440
8.4800 5.6231 0.2367
8.5000 5.6364 0.2520
8.5200 5.6498 0.2451
8.5400 5.6631 0.2328
8.5600 5.6765 0.2507
8.5800 5.6898 0.2404
8.6000 5.7031 0.2356
8.6200 5.7165 0.2490
8.6400 5.7299 0.2390
8.6600 5.7432 0.2330
8.6800 5.7565 0.2467
8.7000 5.7699 0.2353
8.7200 5.7832 0.2301
8.7400 5.7966 0.2400
8.7600 5.8099 0.2382
8.7800 5.8231 0.2320
8.8000 5.8365 0.2437
8.8200 5.8498 0.2268
8.8400 5.8631 0.2246
8.8600 5.8764 0.2408
8.8800 5.8898 0.2300
8.9000 5.9031 0.2271
8.9200 5.9165 0.2377
8.9400 5.9298 0.2348
8.9600 5.9432 0.2230
8.9800 5.9565 0.2360
9.0000 5.9699 0.2327
9.0200 5.9832 0.2254
9.0400 5.9965 0.2341
9.0600 6.0099 0.2301
9.0800 6.0232 0.2247
9.1000 6.0365 0.2344
9.1200 6.0498 0.2303
9.1400 6.0631 0.2239
9.1600 6.0765 0.2321
9.1800 6.0898 0.2291
9.2000 6.1031 0.2185
9.2200 6.1164 0.2325
9.2400 6.1297 0.2275
9.2600 6.1431 0.2166
9.2800 6.1564 0.2303
9.3000 6.1698 0.2286
9.3200 6.1831 0.2190
9.3400 6.1965 0.2292
9.3600 6.2099 0.2232
9.3800 6.2232 0.2177
9.4000 6.2365 0.2292
9.4200 6.2499 0.2225
9.4400 6.2632 0.2176
9.4600 6.2765 0.2250
9.4800 6.2898 0.2193
9.5000 6.3031 0.2210
9.5200 6.3164 0.2236
9.5400 6.3298 0.2192
9.5600 6.3431 0.2181
9.5800 6.3564 0.2210
9.6000 6.3698 0.2164
9.6200 6.3832 0.2156
9.6400 6.3965 0.2222
9.6600 6.4098 0.2173
9.6800 6.4232 0.2139
9.7000 6.4365 0.2192
9.7200 6.4499 0.2165
9.7400 6.4632 0.2091
9.7600 6.4765 0.2206
9.7800 6.4898 0.2150
9.8000 6.5032 0.2097
9.8200 6.5165 0.2185
9.8400 6.5299 0.2101
9.8600 6.5432 0.2136
9.8800 6.5565 0.2158
9.9000 6.5699 0.2062
9.9200 6.5832 0.2117
9.9400 6.5965 0.2138
9.9600 6.6098 0.2088
9.9800 6.6231 0.2070
10.0000 6.6365 0.2103
10.0200 6.6498 0.2093
10.0400 6.6631 0.2090
10.0600 6.6765 0.2061
10.0800 6.6898 0.2051
10.1000 6.7032 0.2063
10.1200 6.7165 0.2045
10.1400 6.7298 0.2037
10.1600 6.7432 0.2047
10.1800 6.7566 0.2036
10.2000 6.7699 0.2041
10.2200 6.7832 0.2019
10.2400 6.7965 0.2016
10.2600 6.8099 0.1990
10.2800 6.8232 0.2005
10.3000 6.8365 0.1992
10.3200 6.8498 0.2008
10.3400 6.8631 0.1994
10.3600 6.8765 0.1963
10.3800 6.8898 0.2033
10.4000 6.9031 0.2028
10.4200 6.9165 0.1943
10.4400 6.9299 0.1981
10.4600 6.9432 0.2025
10.4800 6.9565 0.1928
10.5000 6.9699 0.2026
10.5200 6.9832 0.1998
10.5400 6.9965 0.1862
10.5600 7.0098 0.2020
10.5800 7.0231 0.1997
10.6000 7.0365 0.1915
10.6200 7.0498 0.2023
10.6400 7.0631 0.1915
10.6600 7.0764 0.1933
10.6800 7.0898 0.2023
10.7000 7.1031 0.1937
10.7200 7.1165 0.1953
10.7400 7.1298 0.1952
10.7600 7.1431 0.1914
10.7800 7.1565 0.1925
10.8000 7.1698 0.1916
10.8200 7.1832 0.1942
10.8400 7.1965 0.1905
10.8600 7.2099 0.1867
10.8800 7.2232 0.1928
10.9000 7.2366 0.1923
10.9200 7.2499 0.1870
10.9400 7.2632 0.1919
10.9600 7.2765 0.1870
10.9800 7.2898 0.1876
11.0000 7.3031 0.1955
11.0200 7.3164 0.1828
11.0400 7.3297 0.1854
11.0600 7.3431 0.1956
11.0800 7.3564 0.1794
11.1000 7.3698 0.1856
11.1200 7.3831 0.1943
11.1400 7.3965 0.1784
11.1600 7.4099 0.1895
11.1800 7.4232 0.1879
11.2000 7.4365 0.1777
11.2200 7.4498 0.1880
11.2400 7.4632 0.1863
11.2600 7.4765 0.1733
11.2800 7.4899 0.1868
11.3000 7.5032 0.1838
11.3200 7.5165 0.1735
11.3400 7.5298 0.1814
11.3600 7.5432 0.1798
11.3800 7.5565 0.1743
11.4000 7.5698 0.1831
11.4200 7.5831 0.1750
11.4400 7.5965 0.1723
11.4600 7.6098 0.1864
11.4800 7.6231 0.1735
11.5000 7.6365 0.1668
11.5200 7.6499 0.1823
11.5400 7.6632 0.1710
11.5600 7.6765 0.1681
11.5800 7.6898 0.1807
11.6000 7.7032 0.1704
11.6200 7.7165 0.1691
11.6400 7.7299 0.1792
11.6600 7.7431 0.1692
11.6800 7.7565 0.1711
11.7000 7.7698 0.1725
11.7200 7.7831 0.1691
11.7400 7.7964 0.1678
11.7600 7.8098 0.1733
11.7800 7.8231 0.1674
11.8000 7.8365 0.1709
11.8200 7.8498 0.1715
11.8400 7.8631 0.1650
11.8600 7.8765 0.1726
11.8800 7.8898 0.1684
11.9000 7.9032 0.1680
11.9200 7.9165 0.1640
11.9400 7.9298 0.1673
11.9600 7.9432 0.1688
11.9800 7.9565 0.1669
12.0000 7.9699 0.1669
12.0200 7.9832 0.1651
12.0400 7.9965 0.1639
12.0600 8.0099 0.1670
12.0800 8.0232 0.1617
12.1000 8.0365 0.1651
12.1200 8.0498 0.1625
12.1400 8.0631 0.1667
12.1600 8.0764 0.1587
12.1800 8.0897 0.1617
12.2000 8.1031 0.1656
12.2200 8.1165 0.1562
12.2400 8.1299 0.1650
12.2600 8.1433 0.1604
12.2800 8.1566 0.1545
12.3000 8.1699 0.1625
12.3200 8.1833 0.1576
12.3400 8.1966 0.1596
12.3600 8.2099 0.1581
12.3800 8.2232 0.1560
12.4000 8.2365 0.1559
12.4200 8.2498 0.1592
12.4400 8.2631 0.1530
12.4600 8.2764 0.1545
12.4800 8.2897 0.1591
12.5000 8.3031 0.1549
12.5200 8.3164 0.1537
12.5400 8.3298 0.1560
12.5600 8.3431 0.1553
12.5800 8.3565 0.1577
12.6000 8.3699 0.1500
12.6200 8.3832 0.1520
12.6400 8.3966 0.1573
12.6600 8.4099 0.1519
12.6800 8.4232 0.1555
12.7000 8.4366 0.1509
12.7200 8.4499 0.1482
12.7400 8.4632 0.1543
12.7600 8.4765 0.1545
12.7800 8.4898 0.1463
12.8000 8.5031 0.1544
12.8200 8.5164 0.1521
12.8400 8.5297 0.1465
12.8600 8.5431 0.1586
12.8800 8.5565 0.1488
12.9000 8.5698 0.1432
12.9200 8.5832 0.1537
12.9400 8.5965 0.1495
12.9600 8.6099 0.1431
12.9800 8.6232 0.1523
13.0000 8.6365 0.1494
13.0200 8.6498 0.1417
13.0400 8.6632 0.1563
13.0600 8.6765 0.1486
13.0800 8.6899 0.1381
13.1000 8.7032 0.1517
13.1200 8.7165 0.1500
13.1400 8.7299 0.1409
13.1600 8.7432 0.1555
13.1800 8.7565 0.1503
13.2000 8.7697 0.1370
13.2200 8.7831 0.1543
13.2400 8.7965 0.1468
13.2600 8.8098 0.1361
13.2800 8.8232 0.1557
13.3000 8.8365 0.1434
13.3200 8.8499 0.1359
13.3400 8.8632 0.1475
13.3600 8.8765 0.1396
13.3800 8.8898 0.1401
13.4000 8.9032 0.1498
13.4200 8.9165 0.1375
13.4400 8.9299 0.1400
13.4600 8.9432 0.1484
13.4800 8.9565 0.1372
13.5000 8.9698 0.1382
13.5200 8.9832 0.1448
13.5400 8.9965 0.1399
13.5600 9.0098 0.1353
13.5800 9.0231 0.1459
13.6000 9.0365 0.1359
13.6200 9.0498 0.1368
13.6400 9.0631 0.1428
13.6600 9.0764 0.1353
13.6800 9.0898 0.1345
13.7000 9.1032 0.1396
13.7200 9.1165 0.1399
13.7400 9.1299 0.1285
13.7600 9.1432 0.1403
13.7800 9.1566 0.1382
13.8000 9.1699 0.1250
13.8200 9.1832 0.1412
13.8400 9.1965 0.1370
13.8600 9.2098 0.1269
13.8800 9.2232 0.1353
13.9000 9.2365 0.1315
13.9200 9.2498 0.1264
13.9400 9.2631 0.1375
13.9600 9.2765 0.1278
13.9800 9.2898 0.1254
14.0000 9.3031 0.1353
14.0200 9.3165 0.1264
14.0400 9.3298 0.1251
14.0600 9.3432 0.1335
14.0800 9.3565 0.1234
14.1000 9.3698 0.1222
14.1200 9.3832 0.1347
14.1400 9.3965 0.1240
14.1600 9.4099 0.1209
14.1800 9.4232 0.1291
14.2000 9.4365 0.1220
14.2200 9.4498 0.1201
14.2400 9.4632 0.1332
14.2600 9.4765 0.1184
14.2800 9.4898 0.1145
14.3000 9.5031 0.1304
14.3200 9.5164 0.1193
14.3400 9.5297 0.1160
14.3600 9.5431 0.1283
14.3800 9.5565 0.1202
14.4000 9.5699 0.1187
14.4200 9.5832 0.1227
14.4400 9.5966 0.1164
14.4600 9.6099 0.1174
14.4800 9.6232 0.1213
14.5000 9.6366 0.1174
14.5200 9.6499 0.1166
14.5400 9.6631 0.1195
14.5600 9.6764 0.1226
14.5800 9.6897 0.1133
14.6000 9.7031 0.1177
14.6200 9.7164 0.1225
14.6400 9.7298 0.1145
14.6600 9.7431 0.1147
14.6800 9.7565 0.1207
14.7000 9.7698 0.1136
14.7200 9.7832 0.1169
14.7400 9.7965 0.1199
14.7600 9.8099 0.1122
14.7800 9.8232 0.1140
14.8000 9.8366 0.1156
14.8200 9.8499 0.1120
14.8400 9.8632 0.1216
14.8600 9.8765 0.1158
14.8800 9.8898 0.1079
14.9000 9.9031 0.1192
14.9200 9.9165 0.1157
14.9400 9.9298 0.1145
14.9600 9.9432 0.1147
14.9800 9.9565 0.1118
15.0000 9.9698 0.1106
15.0200 9.9831 0.1185
15.0400 9.9965 0.1127
15.0600 10.0098 0.1165
15.0800 10.0232 0.1088
15.1000 10.0365 0.1091
15.1200 10.0499 0.1122
15.1400 10.0632 0.1085
15.1600 10.0765 0.1099
15.1800 10.0898 0.1108
15.2000 10.1032 0.1098
15.2200 10.1165 0.1095
15.2400 10.1299 0.1069
15.2600 10.1432 0.1062
15.2800 10.1565 0.1148
15.3000 10.1698 0.1053
15.3200 10.1832 0.1004
15.3400 10.1965 0.1151
15.3600 10.2098 0.1033
15.3800 10.2231 0.1043
15.4000 10.2364 0.1106
15.4200 10.2498 0.0967
15.4400 10.2631 0.1106
15.4600 10.2765 0.1067
15.4800 10.2898 0.0996
15.5000 10.3032 0.1100
15.5200 10.3166 0.1006
15.5400 10.3299 0.1046
15.5600 10.3432 0.1065
15.5800 10.3566 0.1006
15.6000 10.3699 0.1007
15.6200 10.3832 0.1060
15.6400 10.3965 0.0958
15.6600 10.4098 0.1050
15.6800 10.4232 0.1004
15.7000 10.4365 0.0954
15.7200 10.4498 0.1066
15.7400 10.4631 0.0933
15.7600 10.4765 0.0958
15.7800 10.4898 0.0994
15.8000 10.5031 0.0942
15.8200 10.5164 0.0984
15.8400 10.5298 0.1006
15.8600 10.5432 0.0874
15.8800 10.5565 0.1014
15.9000 10.5698 0.0964
15.9200 10.5832 0.0860
15.9400 10.5965 0.1007
15.9600 10.6099 0.0912
15.9800 10.6232 0.0832
16.0000 10.6365 0.0977
16.0200 10.6498 0.0906
16.0400 10.6632 0.0878
16.0600 10.6765 0.0972
16.0800 10.6898 0.0865
16.1000 10.7031 0.0844
16.1200 10.7164 0.0982
16.1400 10.7298 0.0858
16.1600 10.7431 0.0879
16.1800 10.7565 0.0931
16.2000 10.7698 0.0847
16.2200 10.7832 0.0898
16.2400 10.7966 0.0902
16.2600 10.8099 0.0870
16.2800 10.8232 0.0853
16.3000 10.8365 0.0915
16.3200 10.8499 0.0835
16.3400 10.8632 0.0813
16.3600 10.8765 0.0921
16.3800 10.8898 0.0863
16.4000 10.9032 0.0827
16.4200 10.9165 0.0882
16.4400 10.9298 0.0901
16.4600 10.9431 0.0811
16.4800 10.9564 0.0838
16.5000 10.9698 0.0867
16.5200 10.9831 0.0756
16.5400 10.9965 0.0828
16.5600 11.0098 0.0871
16.5800 11.0232 0.0807
16.6000 11.0366 0.0828
16.6200 11.0499 0.0836
16.6400 11.0632 0.0828
16.6600 11.0765 0.0790
16.6800 11.0899 0.0880
16.7000 11.1032 0.0751
16.7200 11.1164 0.0797
16.7400 11.1298 0.0834
16.7600 11.1431 0.0721
16.7800 11.1565 0.0776
16.8000 11.1698 0.0838
16.8200 11.1831 0.0756
16.8400 11.1965 0.0712
16.8600 11.2098 0.0854
16.8800 11.2232 0.0708
16.9000 11.2365 0.0759
16.9200 11.2498 0.0815
16.9400 11.2632 0.0662
16.9600 11.2765 0.0748
16.9800 11.2898 0.0773
17.0000 11.3031 0.0691
17.0200 11.3165 0.0769
17.0400 11.3298 0.0753
17.0600 11.3432 0.0683
17.0800 11.3565 0.0769
17.1000 11.3698 0.0753
17.1200 11.3832 0.0633
17.1400 11.3965 0.0761
17.1600 11.4098 0.0757
17.1800 11.4231 0.0646
17.2000 11.4364 0.0770
17.2200 11.4498 0.0709
17.2400 11.4631 0.0668
17.2600 11.4764 0.0746
17.2800 11.4898 0.0718
17.3000 11.5032 0.0682
17.3200 11.5165 0.0742
17.3400 11.5298 0.0706
17.3600 11.5432 0.0680
17.3800 11.5565 0.0724
17.4000 11.5699 0.0679
17.4200 11.5832 0.0661
17.4400 11.5965 0.0737
17.4600 11.6098 0.0661
17.4800 11.6232 0.0685
17.5000 11.6365 0.0673
17.5200 11.6498 0.0639
17.5400 11.6631 0.0699
17.5600 11.6764 0.0653
17.5800 11.6898 0.0684
17.6000 11.7031 0.0664
17.6200 11.7164 0.0627
17.6400 11.7298 0.0716
17.6600 11.7432 0.0675
17.6800 11.7565 0.0614
17.7000 11.7699 0.0629
17.7200 11.7832 0.0616
17.7400 11.7965 0.0607
17.7600 11.8099 0.0686
17.7800 11.8232 0.0613
17.8000 11.8365 0.0608
17.8200 11.8498 0.0670
17.8400 11.8631 0.0616
17.8600 11.8765 0.0630
17.8800 11.8898 0.0620
17.9000 11.9031 0.0620
17.9200 11.9165 0.0655
17.9400 11.9298 0.0595
17.9600 11.9432 0.0602
17.9800 11.9565 0.0595
18.0000 11.9698 0.0621
18.0200 11.9832 0.0572
18.0400 11.9965 0.0567
18.0600 12.0098 0.0577
18.0800 12.0232 0.0612
18.1000 12.0365 0.0575
18.1200 12.0499 0.0515
18.1400 12.0632 0.0607
18.1600 12.0765 0.0527
18.1800 12.0898 0.0574
18.2000 12.1032 0.0554
18.2200 12.1165 0.0532
18.2400 12.1298 0.0552
18.2600 12.1431 0.0543
18.2800 12.1564 0.0511
18.3000 12.1698 0.0563
18.3200 12.1831 0.0587
18.3400 12.1965 0.0439
18.3600 12.2098 0.0577
18.3800 12.2232 0.0561
18.4000 12.2366 0.0419
18.4200 12.2499 0.0557
18.4400 12.2632 0.0558
18.4600 12.2765 0.0412
18.4800 12.2899 0.0533
18.5000 12.3032 0.0559
18.5200 12.3165 0.0443
18.5400 12.3298 0.0525
18.5600 12.3431 0.0474
18.5800 12.3565 0.0431
18.6000 12.3698 0.0507
18.6200 12.3832 0.0478
18.6400 12.3965 0.0433
18.6600 12.4098 0.0506
18.6800 12.4231 0.0414
18.7000 12.4365 0.0400
18.7200 12.4498 0.0509
18.7400 12.4632 0.0421
18.7600 12.4765 0.0388
18.7800 12.4899 0.0469
18.8000 12.5032 0.0419
18.8200 12.5165 0.0371
18.8400 12.5299 0.0478
18.8600 12.5432 0.0406
18.8800 12.5565 0.0351
18.9000 12.5698 0.0379
18.9200 12.5831 0.0410
18.9400 12.5965 0.0335
18.9600 12.6098 0.0357
18.9800 12.6231 0.0400
19.0000 12.6364 0.0349
19.0200 12.6498 0.0351
19.0400 12.6631 0.0393
19.0600 12.6764 0.0330
19.0800 12.6898 0.0396
19.1000 12.7031 0.0389
19.1200 12.7165 0.0273
19.1400 12.7298 0.0348
19.1600 12.7431 0.0428
19.1800 12.7565 0.0317
19.2000 12.7699 0.0364
19.2200 12.7832 0.0377
19.2400 12.7965 0.0354
19.2600 12.8099 0.0375
19.2800 12.8232 0.0375
19.3000 12.8366 0.0334
19.3200 12.8499 0.0351
19.3400 12.8631 0.0410
19.3600 12.8764 0.0311
19.3800 12.8898 0.0347
19.4000 12.9031 0.0386
19.4200 12.9164 0.0290
19.4400 12.9298 0.0320
19.4600 12.9432 0.0417
19.4800 12.9566 0.0280
19.5000 12.9699 0.0321
19.5200 12.9832 0.0414
19.5400 12.9966 0.0240
19.5600 13.0099 0.0326
19.5800 13.0232 0.0389
19.6000 13.0365 0.0268
19.6200 13.0498 0.0361
19.6400 13.0631 0.0325
19.6600 13.0765 0.0253
19.6800 13.0898 0.0321
19.7000 13.1031 0.0329
19.7200 13.1164 0.0244
19.7400 13.1298 0.0344
19.7600 13.1431 0.0336
19.7800 13.1564 0.0179
19.8000 13.1698 0.0386
19.8200 13.1832 0.0336
19.8400 13.1965 0.0167
19.8600 13.2099 0.0386
19.8800 13.2232 0.0314
19.9000 13.2365 0.0213
19.9200 13.2499 0.0335
19.9400 13.2632 0.0279
19.9600 13.2765 0.0235
19.9800 13.2898 0.0338
20.0000 13.3031 0.0242
20.0200 13.3165 0.0229
20.0400 13.3298 0.0311
20.0600 13.3431 0.0262
20.0800 13.3564 0.0202
20.1000 13.3698 0.0284
20.1200 13.3831 0.0221
20.1400 13.3965 0.0197
20.1600 13.4098 0.0303
20.1800 13.4232 0.0207
20.2000 13.4365 0.0163
20.2200 13.4499 0.0258
20.2400 13.4632 0.0213
20.2600 13.4765 0.0171
20.2800 13.4898 0.0238
20.3000 13.5032 0.0208
20.3200 13.5165 0.0167
20.3400 13.5299 0.0233
20.3600 13.5432 0.0222
20.3800 13.5565 0.0145
20.4000 13.5698 0.0218
20.4200 13.5831 0.0187
20.4400 13.5964 0.0138
20.4600 13.6098 0.0214
20.4800 13.6231 0.0171
20.5000 13.6365 0.0133
20.5200 13.6498 0.0189
20.5400 13.6632 0.0148
20.5600 13.6766 0.0126
20.5800 13.6899 0.0166
20.6000 13.7032 0.0153
20.6200 13.7165 0.0137
20.6400 13.7299 0.0191
20.6600 13.7432 0.0140
20.6800 13.7565 0.0082
20.7000 13.7698 0.0157
20.7200 13.7831 0.0128
20.7400 13.7965 0.0076
20.7600 13.8098 0.0191
20.7800 13.8231 0.0115
20.8000 13.8364 0.0078
20.8200 13.8498 0.0200
20.8400 13.8631 0.0089
20.8600 13.8765 0.0039
20.8800 13.8898 0.0158
20.9000 13.9032 0.0037
20.9200 13.9165 0.0057
20.9400 13.9299 0.0123
20.9600 13.9432 0.0012
20.9800 13.9565 0.0099
21.0000 13.9699 0.0088
21.0200 13.9833 0.0054
21.0400 13.9966 0.0115
21.0600 14.0098 0.0086
21.0800 14.0231 0.0029
21.1000 14.0365 0.0089
21.1200 14.0498 0.0077
21.1400 14.0631 0.0013
21.1600 14.0764 0.0097
21.1800 14.0898 0.0067
21.2000 14.1031 -0.0006
21.2200 14.1164 0.0068
21.2400 14.1298 0.0055
21.2600 14.1431 0.0048
21.2800 14.1565 0.0040
21.3000 14.1699 0.0025
21.3200 14.1832 -0.0007
21.3400 14.1965 0.0060
21.3600 14.2099 0.0010
21.3800 14.2232 -0.0037
21.4000 14.2365 0.0082
21.4200 14.2498 -0.0046
21.4400 14.2632 -0.0032
21.4600 14.2765 0.0065
21.4800 14.2898 -0.0094
21.5000 14.3031 -0.0038
21.5200 14.3164 -0.0006
21.5400 14.3297 -0.0043
21.5600 14.3431 -0.0085
21.5800 14.3564 -0.0025
21.6000 14.3698 -0.0068
21.6200 14.3831 -0.0082
21.6400 14.3965 -0.0024
21.6600 14.4099 -0.0077
21.6800 14.4233 -0.0069
21.7000 14.4366 -0.0071
21.7200 14.4499 -0.0092
21.7400 14.4632 -0.0127
21.7600 14.4765 -0.0091
21.7800 14.4898 -0.0038
21.8000 14.5031 -0.0130
21.8200 14.5164 -0.0079
21.8400 14.5298 -0.0087
21.8600 14.5431 -0.0172
21.8800 14.5564 -0.0080
21.9000 14.5698 -0.0059
21.9200 14.5831 -0.0146
21.9400 14.5965 -0.0138
21.9600 14.6098 -0.0061
21.9800 14.6232 -0.0161
22.0000 14.6365 -0.0101
22.0200 14.6499 -0.0080
22.0400 14.6632 -0.0184
22.0600 14.6765 -0.0041
22.0800 14.6898 -0.0106
22.1000 14.7032 -0.0233
22.1200 14.7165 0.0002
22.1400 14.7298 -0.0113
22.1600 14.7431 -0.0234
22.1800 14.7565 -0.0008
22.2000 14.7698 -0.0158
22.2200 14.7831 -0.0223
22.2400 14.7964 0.0034
22.2600 14.8098 -0.0197
22.2800 14.8232 -0.0211
22.3000 14.8365 0.0011
22.3200 14.8498 -0.0190
22.3400 14.8632 -0.0219
22.3600 14.8766 -0.0048
22.3800 14.8899 -0.0234
22.4000 14.9032 -0.0226
22.4200 14.9165 -0.0036
22.4400 14.9299 -0.0194
22.4600 14.9432 -0.0193
22.4800 14.9566 -0.0082
22.5000 14.9699 -0.0229
22.5200 14.9832 -0.0197
22.5400 14.9965 -0.0076
22.5600 15.0098 -0.0254
22.5800 15.0231 -0.0211
22.6000 15.0364 -0.0120
22.6200 15.0498 -0.0273
22.6400 15.0631 -0.0254
22.6600 15.0765 -0.0113
22.6800 15.0898 -0.0281
22.7000 15.1031 -0.0218
22.7200 15.1165 -0.0194
22.7400 15.1299 -0.0260
22.7600 15.1432 -0.0204
22.7800 15.1565 -0.0174
22.8000 15.1698 -0.0284
22.8200 15.1832 -0.0270
22.8400 15.1965 -0.0234
22.8600 15.2098 -0.0232
22.8800 15.2231 -0.0278
22.9000 15.2365 -0.0254
22.9200 15.2498 -0.0286
22.9400 15.2631 -0.0277
22.9600 15.2765 -0.0306
22.9800 15.2898 -0.0242
23.0000 15.3031 -0.0290
23.0200 15.3165 -0.0325
23.0400 15.3298 -0.0248
23.0600 15.3431 -0.0353
23.0800 15.3565 -0.0280
23.1000 15.3699 -0.0264
23.1200 15.3832 -0.0391
23.1400 15.3965 -0.0268
23.1600 15.4098 -0.0254
23.1800 15.4232 -0.0395
23.2000 15.4366 -0.0320
23.2200 15.4499 -0.0278
23.2400 15.4632 -0.0393
23.2600 15.4765 -0.0330
23.2800 15.4898 -0.0330
23.3000 15.5031 -0.0386
23.3200 15.5164 -0.0325
23.3400 15.5297 -0.0352
23.3600 15.5431 -0.0364
23.3800 15.5565 -0.0346
23.4000 15.5698 -0.0352
23.4200 15.5832 -0.0390
23.4400 15.5965 -0.0376
23.4600 15.6099 -0.0342
23.4800 15.6232 -0.0402
23.5000 15.6365 -0.0401
23.5200 15.6499 -0.0341
23.5400 15.6632 -0.0423
23.5600 15.6766 -0.0408
23.5800 15.6898 -0.0348
23.6000 15.7031 -0.0385
23.6200 15.7165 -0.0421
23.6400 15.7298 -0.0410
23.6600 15.7431 -0.0388
23.6800 15.7564 -0.0406
23.7000 15.7698 -0.0434
23.7200 15.7831 -0.0458
23.7400 15.7964 -0.0413
23.7600 15.8098 -0.0442
23.7800 15.8231 -0.0472
23.8000 15.8365 -0.0418
23.8200 15.8499 -0.0487
23.8400 15.8632 -0.0465
23.8600 15.8765 -0.0407
23.8800 15.8898 -0.0521
23.9000 15.9032 -0.0522
23.9200 15.9165 -0.0462
23.9400 15.9298 -0.0477
23.9600 15.9431 -0.0503
23.9800 15.9564 -0.0489
24.0000 15.9698 -0.0551
24.0200 15.9831 -0.0512
24.0400 15.9964 -0.0492
24.0600 16.0098 -0.0539
24.0800 16.0232 -0.0503
24.1000 16.0365 -0.0522
24.1200 16.0498 -0.0523
24.1400 16.0632 -0.0454
24.1600 16.0765 -0.0553
24.1800 16.0898 -0.0519
24.2000 16.1031 -0.0549
24.2200 16.1165 -0.0517
24.2400 16.1298 -0.0511
24.2600 16.1432 -0.0566
24.2800 16.1565 -0.0516
24.3000 16.1698 -0.0500
24.3200 16.1832 -0.0552
24.3400 16.1965 -0.0548
24.3600 16.2099 -0.0516
24.3800 16.2232 -0.0576
24.4000 16.2365 -0.0574
24.4200 16.2498 -0.0481
24.4400 16.2631 -0.0585
24.4600 16.2765 -0.0543
24.4800 16.2898 -0.0499
24.5000 16.3031 -0.0565
24.5200 16.3165 -0.0592
24.5400 16.3298 -0.0547
24.5600 16.3432 -0.0599
24.5800 16.3565 -0.0605
24.6000 16.3698 -0.0550
24.6200 16.3832 -0.0567
24.6400 16.3966 -0.0621
24.6600 16.4099 -0.0578
24.6800 16.4232 -0.0553
24.7000 16.4365 -0.0618
24.7200 16.4499 -0.0581
24.7400 16.4632 -0.0626
24.7600 16.4765 -0.0625
24.7800 16.4898 -0.0570
24.8000 16.5031 -0.0627
24.8200 16.5165 -0.0671
24.8400 16.5298 -0.0558
24.8600 16.5431 -0.0646
24.8800 16.5565 -0.0652
24.9000 16.5699 -0.0600
24.9200 16.5832 -0.0693
24.9400 16.5965 -0.0677
24.9600 16.6099 -0.0586
24.9800 16.6232 -0.0714
25.0000 16.6366 -0.0674
25.0200 16.6499 -0.0612
25.0400 16.6632 -0.0702
25.0600 16.6765 -0.0682
25.0800 16.6898 -0.0624
25.1000 16.7031 -0.0744
25.1200 16.7164 -0.0644
25.1400 16.7298 -0.0647
25.1600 16.7431 -0.0717
25.1800 16.7565 -0.0721
25.2000 16.7698 -0.0697
25.2200 16.7831 -0.0724
25.2400 16.7965 -0.0686
25.2600 16.8098 -0.0733
25.2800 16.8232 -0.0762
25.3000 16.8365 -0.0710
25.3200 16.8499 -0.0731
25.3400 16.8632 -0.0752
25.3600 16.8766 -0.0779
25.3800 16.8899 -0.0744
25.4000 16.9032 -0.0717
25.4200 16.9165 -0.0805
25.4400 16.9298 -0.0777
25.4600 16.9431 -0.0778
25.4800 16.9564 -0.0823
25.5000 16.9697 -0.0746
25.5200 16.9831 -0.0779
25.5400 16.9964 -0.0834
25.5600 17.0097 -0.0758
25.5800 17.0231 -0.0788
25.6000 17.0365 -0.0876
25.6200 17.0499 -0.0759
25.6400 17.0632 -0.0805
25.6600 17.0765 -0.0889
25.6800 17.0898 -0.0737
25.7000 17.1032 -0.0826
25.7200 17.1165 -0.0900
25.7400 17.1299 -0.0741
25.7600 17.1432 -0.0839
25.7800 17.1565 -0.0852
25.8000 17.1698 -0.0786
25.8200 17.1832 -0.0861
25.8400 17.1965 -0.0850
25.8600 17.2098 -0.0813
25.8800 17.2231 -0.0839
25.9000 17.2365 -0.0891
25.9200 17.2498 -0.0885
25.9400 17.2631 -0.0875
25.9600 17.2765 -0.0850
25.9800 17.2899 -0.0893
26.0000 17.3032 -0.0869
26.0200 17.3165 -0.0835
26.0400 17.3299 -0.0923
26.0600 17.3432 -0.0889
26.0800 17.3566 -0.0907
26.1000 17.3699 -0.0899
26.1200 17.3831 -0.0897
26.1400 17.3965 -0.0912
26.1600 17.4098 -0.0954
26.1800 17.4231 -0.0909
26.2000 17.4364 -0.0885
26.2200 17.4498 -0.0980
26.2400 17.4631 -0.0861
26.2600 17.4765 -0.0934
26.2800 17.4898 -0.1034
26.3000 17.5032 -0.0852
26.3200 17.5165 -0.0926
26.3400 17.5298 -0.1036
26.3600 17.5432 -0.0875
26.3800 17.5565 -0.0958
26.4000 17.5698 -0.1035
26.4200 17.5832 -0.0866
26.4400 17.5965 -0.0979
26.4600 17.6099 -0.1049
26.4800 17.6232 -0.0868
26.5000 17.6365 -0.1043
26.5200 17.6499 -0.1043
26.5400 17.6632 -0.0903
26.5600 17.6765 -0.1087
26.5800 17.6897 -0.1033
26.6000 17.7031 -0.0913
26.6200 17.7164 -0.1135
26.6400 17.7297 -0.0988
26.6600 17.7431 -0.0949
26.6800 17.7565 -0.1107
26.7000 17.7699 -0.1055
26.7200 17.7832 -0.1004
26.7400 17.7966 -0.1119
26.7600 17.8099 -0.1043
26.7800 17.8232 -0.1018
26.8000 17.8366 -0.1132
26.8200 17.8499 -0.1059
26.8400 17.8632 -0.1040
26.8600 17.8765 -0.1111
26.8800 17.8898 -0.1079
26.9000 17.9031 -0.1043
26.9200 17.9164 -0.1075
26.9400 17.9297 -0.1127
26.9600 17.9431 -0.1064
26.9800 17.9564 -0.1096
27.0000 17.9697 -0.1158
27.0200 17.9831 -0.1080
27.0400 17.9965 -0.1085
27.0600 18.0099 -0.1176
27.0800 18.0232 -0.1104
27.1000 18.0366 -0.1089
27.1200 18.0499 -0.1176
27.1400 18.0632 -0.1015
27.1600 18.0765 -0.1147
27.1800 18.0899 -0.1208
27.2000 18.1032 -0.1050
27.2200 18.1165 -0.1120
27.2400 18.1298 -0.1190
27.2600 18.1432 -0.1033
27.2800 18.1565 -0.1135
27.3000 18.1698 -0.1184
27.3200 18.1831 -0.1062
27.3400 18.1965 -0.1138
27.3600 18.2098 -0.1250
27.3800 18.2231 -0.1062
27.4000 18.2365 -0.1160
27.4200 18.2498 -0.1229
27.4400 18.2632 -0.1087
27.4600 18.2765 -0.1156
27.4800 18.2898 -0.1206
27.5000 18.3032 -0.1099
27.5200 18.3165 -0.1176
27.5400 18.3299 -0.1174
27.5600 18.3432 -0.1118
27.5800 18.3565 -0.1221
27.6000 18.3699 -0.1216
27.6200 18.3832 -0.1182
27.6400 18.3965 -0.1244
27.6600 18.4098 -0.1220
27.6800 18.4231 -0.1185
27.7000 18.4365 -0.1217
27.7200 18.4498 -0.1247
27.7400 18.4631 -0.1245
27.7600 18.4765 -0.1205
27.7800 18.4899 -0.1266
27.8000 18.5032 -0.1296
27.8200 18.5165 -0.1221
27.8400 18.5299 -0.1274
27.8600 18.5432 -0.1301
27.8800 18.5565 -0.1200
27.9000 18.5699 -0.1318
27.9200 18.5831 -0.1281
27.9400 18.5964 -0.1234
27.9600 18.6098 -0.1340
27.9800 18.6231 -0.1323
28.0000 18.6365 -0.1248
28.0200 18.6498 -0.1358
28.0400 18.6631 -0.1312
28.0600 18.6765 -0.1267
28.0800 18.6898 -0.1404
28.1000 18.7031 -0.1270
28.1200 18.7164 -0.1295
28.1400 18.7298 -0.1386
28.1600 18.7432 -0.1283
28.1800 18.7565 -0.1363
28.2000 18.7699 -0.1444
28.2200 18.7832 -0.1265
28.2400 18.7966 -0.1363
28.2600 18.8099 -0.1505
28.2800 18.8232 -0.1231
28.3000 18.8365 -0.1405
28.3200 18.8498 -0.1521
28.3400 18.8632 -0.1260
28.3600 18.8765 -0.1438
28.3800 18.8898 -0.1493
28.4000 18.9031 -0.1316
28.4200 18.9164 -0.1421
28.4400 18.9298 -0.1530
28.4600 18.9431 -0.1357
28.4800 18.9565 -0.1440
28.5000 18.9698 -0.1513
28.5200 18.9832 -0.1345
28.5400 18.9965 -0.1466
28.5600 19.0098 -0.1535
28.5800 19.0232 -0.1400
28.6000 19.0365 -0.1491
28.6200 19.0499 -0.1537
28.6400 19.0632 -0.1418
28.6600 19.0765 -0.1467
28.6800 19.0898 -0.1562
28.7000 19.1032 -0.1434
28.7200 19.1165 -0.1502
28.7400 19.1298 -0.1570
28.7600 19.1431 -0.1434
28.7800 19.1564 -0.1545
28.8000 19.1697 -0.1605
28.8200 19.1831 -0.1455
28.8400 19.1964 -0.1560
28.8600 19.2098 -0.1602
28.8800 19.2232 -0.1499
28.9000 19.2366 -0.1592
28.9200 19.2499 -0.1621
28.9400 19.2632 -0.1484
28.9600 19.2766 -0.1575
28.9800 19.2899 -0.1630
29.0000 19.3032 -0.1529
29.0200 19.3164 -0.1605
29.0400 19.3298 -0.1608
29.0600 19.3431 -0.1566
29.0800 19.3564 -0.1611
29.1000 19.3698 -0.1607
29.1200 19.3831 -0.1611
29.1400 19.3965 -0.1588
29.1600 19.4098 -0.1648
29.1800 19.4232 -0.1594
29.2000 19.4365 -0.1600
29.2200 19.4499 -0.1702
29.2400 19.4632 -0.1611
29.2600 19.4765 -0.1640
29.2800 19.4898 -0.1686
29.3000 19.5031 -0.1675
29.3200 19.5165 -0.1639
29.3400 19.5298 -0.1721
29.3600 19.5431 -0.1670
29.3800 19.5565 -0.1684
29.4000 19.5698 -0.1725
29.4200 19.5832 -0.1696
29.4400 19.5965 -0.1717
29.4600 19.6098 -0.1769
29.4800 19.6231 -0.1722
29.5000 19.6364 -0.1766
29.5200 19.6498 -0.1779
29.5400 19.6631 -0.1780
29.5600 19.6765 -0.1772
29.5800 19.6898 -0.1748
29.6000 19.7032 -0.1842
29.6200 19.7165 -0.1765
29.6400 19.7298 -0.1773
29.6600 19.7431 -0.1863
29.6800 19.7565 -0.1801
29.7000 19.7699 -0.1801
29.7200 19.7832 -0.1882
29.7400 19.7965 -0.1819
29.7600 19.8098 -0.1809
29.7800 19.8232 -0.1940
29.8000 19.8365 -0.1770
29.8200 19.8498 -0.1827
29.8400 19.8631 -0.1934
29.8600 19.8764 -0.1774
29.8800 19.8898 -0.1891
29.9000 19.9031 -0.1997
29.9200 19.9165 -0.1802
29.9400 19.9298 -0.1898
29.9600 19.9432 -0.1998
29.9800 19.9566 -0.1831
30.0000 19.9699 -0.1951
30.0200 19.9832 -0.2018
30.0400 19.9965 -0.1839
30.0600 20.0099 -0.1994
30.0800 20.0231 -0.1963
30.1000 20.0364 -0.1896
30.1200 20.0498 -0.2012
30.1400 20.0632 -0.1992
30.1600 20.0765 -0.1893
30.1800 20.0898 -0.1998
30.2000 20.1031 -0.2008
30.2200 20.1165 -0.1897
30.2400 20.1298 -0.2035
30.2600 20.1431 -0.1998
30.2800 20.1565 -0.1925
30.3000 20.1698 -0.2014
30.3200 20.1832 -0.2014
30.3400 20.1965 -0.1990
30.3600 20.2099 -0.2024
30.3800 20.2232 -0.2018
30.4000 20.2365 -0.2004
30.4200 20.2499 -0.2005
30.4400 20.2632 -0.2073
30.4600 20.2765 -0.2014
30.4800 20.2898 -0.2037
30.5000 20.3031 -0.2070
30.5200 20.3165 -0.2064
30.5400 20.3298 -0.2057
30.5600 20.3431 -0.2116
30.5800 20.3564 -0.2095
30.6000 20.3698 -0.2083
30.6200 20.3831 -0.2114
30.6400 20.3965 -0.1911
30.6600 20.4099 -0.1132
30.6800 20.4232 -0.0456
30.7000 20.4366 -0.0028
30.7200 20.4499 0.0396
30.7400 20.4632 0.0775
30.7600 20.4765 0.1366
30.7800 20.4899 0.2039
30.8000 20.5032 0.2497
30.8200 20.5165 0.3078
30.8400 20.5298 0.3730
30.8600 20.5431 0.4074
30.8800 20.5565 0.4536
30.9000 20.5698 0.5053
30.9200 20.5831 0.5313
30.9400 20.5964 0.5757
30.9600 20.6098 0.6266
30.9800 20.6231 0.6503
31.0000 20.6364 0.6910
31.0200 20.6498 0.7306
31.0400 20.6632 0.7311
31.0600 20.6766 0.7400
31.0800 20.6899 0.7503
31.1000 20.7032 0.7366
31.1200 20.7165 0.7451
31.1400 20.7299 0.7591
31.1600 20.7432 0.7462
31.1800 20.7565 0.7560
31.2000 20.7698 0.7663
31.2200 20.7831 0.7541
31.2400 20.7965 0.7636
31.2600 20.8098 0.7670
31.2800 20.8231 0.7573
31.3000 20.8365 0.7684
31.3200 20.8498 0.7739
31.3400 20.8632 0.7612
31.3600 20.8765 0.7704
31.3800 20.8898 0.7731
31.4000 20.9032 0.7670
31.4200 20.9165 0.7744
31.4400 20.9298 0.7751
31.4600 20.9431 0.7725
31.4800 20.9565 0.7781
31.5000 20.9698 0.7780
31.5200 20.9832 0.7710
31.5400 20.9965 0.7771
31.5600 21.0098 0.7803
31.5800 21.0232 0.7702
31.6000 21.0366 0.7806
31.6200 21.0499 0.7811
31.6400 21.0631 0.7735
31.6600 21.0765 0.7821
31.6800 21.0898 0.7769
31.7000 21.1031 0.7757
31.7200 21.1164 0.7833
31.7400 21.1298 0.7818
31.7600 21.1431 0.7804
31.7800 21.1565 0.7809
31.8000 21.1698 0.7814
31.8200 21.1832 0.7799
31.8400 21.1965 0.7809
31.8600 21.2099 0.7798
31.8800 21.2232 0.7809
31.9000 21.2365 0.7846
31.9200 21.2498 0.7834
31.9400 21.2632 0.7843
31.9600 21.2765 0.7825
31.9800 21.2898 0.7899
32.0000 21.3031 0.7831
32.0200 21.3164 0.7833
32.0400 21.3298 0.7860
32.0600 21.3431 0.7876
32.0800 21.3565 0.7832
32.1000 21.3698 0.7884
32.1200 21.3832 0.7859
32.1400 21.3966 0.7812
32.1600 21.4099 0.7891
32.1800 21.4232 0.7884
32.2000 21.4365 0.7853
32.2200 21.4499 0.7910
32.2400 21.4632 0.7910
32.2600 21.4765 0.7845
32.2800 21.4898 0.7916
32.3000 21.5031 0.7913
32.3200 21.5165 0.7882
32.3400 21.5298 0.7882
32.3600 21.5431 0.7941
32.3800 21.5564 0.7868
32.4000 21.5698 0.7878
32.4200 21.5832 0.7933
32.4400 21.5965 0.7900
32.4600 21.6098 0.7922
32.4800 21.6231 0.7927
32.5000 21.6365 0.7908
32.5200 21.6498 0.7956
32.5400 21.6632 0.7935
32.5600 21.6765 0.7938
32.5800 21.6899 0.7917
32.6000 21.7032 0.7925
32.6200 21.7165 0.7928
32.6400 21.7298 0.8015
32.6600 21.7431 0.7905
32.6800 21.7565 0.7942
32.7000 21.7698 0.7992
32.7200 21.7831 0.7923
32.7400 21.7964 0.7900
32.7600 21.8098 0.7966
32.7800 21.8231 0.7974
32.8000 21.8365 0.7887
32.8200 21.8498 0.7975
32.8400 21.8632 0.7958
32.8600 21.8766 0.7891
32.8800 21.8899 0.7927
32.9000 21.9032 0.7960
32.9200 21.9165 0.7902
32.9400 21.9299 0.7913
32.9600 21.9432 0.7934
32.9800 21.9565 0.7881
33.0000 21.9698 0.7987
33.0200 21.9832 0.7933
33.0400 21.9965 0.7878
33.0600 22.0098 0.7948
33.0800 22.0232 0.7914
33.1000 22.0365 0.7914
33.1200 22.0498 0.7959
33.1400 22.0631 0.7898
33.1600 22.0765 0.7903
33.1800 22.0898 0.7982
33.2000 22.1032 0.7862
33.2200 22.1165 0.7887
33.2400 22.1299 0.7944
33.2600 22.1432 0.7896
33.2800 22.1565 0.7831
33.3000 22.1699 0.7922
33.3200 22.1832 0.7902
33.3400 22.1965 0.7842
33.3600 22.2098 0.7928
33.3800 22.2231 0.7905
33.4000 22.2365 0.7825
33.4200 22.2498 0.7942
33.4400 22.2631 0.7854
33.4600 22.2765 0.7861
33.4800 22.2898 0.7965
33.5000 22.3031 0.7910
33.5200 22.3165 0.7879
33.5400 22.3298 0.7926
33.5600 22.3431 0.7882
33.5800 22.3565 0.7899
33.6000 22.3698 0.7954
33.6200 22.3831 0.7886
33.6400 22.3965 0.7916
33.6600 22.4098 0.7933
33.6800 22.4232 0.7864
33.7000 22.4365 0.7991
33.7200 22.4499 0.7907
33.7400 22.4632 0.7879
33.7600 22.4766 0.7952
33.7800 22.4898 0.7816
33.8000 22.5031 0.7933
33.8200 22.5164 0.7965
33.8400 22.5297 0.7855
33.8600 22.5431 0.7918
33.8800 22.5564 0.7958
33.9000 22.5698 0.7843
33.9200 22.5832 0.7903
33.9400 22.5966 0.7959
33.9600 22.6099 0.7808
33.9800 22.6232 0.7900
34.0000 22.6366 0.7973
34.0200 22.6499 0.7777
34.0400 22.6633 0.7912
34.0600 22.6766 0.7864
34.0800 22.6898 0.7777
34.1000 22.7031 0.7884
34.1200 22.7165 0.7884
34.1400 22.7298 0.7862
34.1600 22.7431 0.7894
34.1800 22.7564 0.7876
34.2000 22.7698 0.7852
34.2200 22.7831 0.7870
34.2400 22.7965 0.7919
34.2600 22.8098 0.7851
34.2800 22.8232 0.7888
34.3000 22.8365 0.7892
34.3200 22.8499 0.7859
34.3400 22.8632 0.7828
34.3600 22.8765 0.7906
34.3800 22.8899 0.7831
34.4000 22.9032 0.7863
34.4200 22.9165 0.7890
34.4400 22.9298 0.7739
34.4600 22.9431 0.7876
34.4800 22.9565 0.7898
34.5000 22.9698 0.7736
34.5200 22.9831 0.7902
34.5400 22.9964 0.7844
34.5600 23.0098 0.7768
34.5800 23.0231 0.7842
34.6000 23.0364 0.7790
34.6200 23.0498 0.7787
34.6400 23.0631 0.7811
34.6600 23.0765 0.7840
34.6800 23.0899 0.7753
34.7000 23.1032 0.7818
34.7200 23.1165 0.7769
34.7400 23.1299 0.7753
34.7600 23.1432 0.7813
34.7800 23.1565 0.7748
34.8000 23.1698 0.7763
34.8200 23.1832 0.7818
34.8400 23.1965 0.7758
34.8600 23.2098 0.7775
34.8800 23.2231 0.7775
34.9000 23.2364 0.7808
34.9200 23.2498 0.7702
34.9400 23.2631 0.7788
34.9600 23.2765 0.7776
34.9800 23.2898 0.7724
35.0000 23.3032 0.7827
35.0200 23.3165 0.7750
35.0400 23.3299 0.7693
35.0600 23.3432 0.7767
35.0800 23.3565 0.7842
35.1000 23.3699 0.7686
35.1200 23.3832 0.7766
35.1400 23.3965 0.7864
35.1600 23.4098 0.7656
35.1800 23.4231 0.7758
35.2000 23.4365 0.7777
35.2200 23.4498 0.7704
35.2400 23.4631 0.7724
35.2600 23.4764 0.7749
35.2800 23.4898 0.7721
35.3000 23.5031 0.7738
35.3200 23.5164 0.7728
35.3400 23.5298 0.7692
35.3600 23.5431 0.7777
35.3800 23.5565 0.7686
35.4000 23.5699 0.7722
35.4200 23.5832 0.7733
35.4400 23.5965 0.7742
35.4600 23.6099 0.7733
35.4800 23.6232 0.7688
35.5000 23.6366 0.7688
35.5200 23.6499 0.7722
35.5400 23.6632 0.7754
35.5600 23.6765 0.7680
35.5800 23.6898 0.7711
35.6000 23.7031 0.7726
35.6200 23.7165 0.7674
35.6400 23.7298 0.7707
35.6600 23.7431 0.7638
35.6800 23.7565 0.7687
35.7000 23.7698 0.7673
35.7200 23.7831 0.7637
35.7400 23.7965 0.7677
35.7600 23.8099 0.7680
35.7800 23.8232 0.7623
35.8000 23.8365 0.7620
35.8200 23.8499 0.7701
35.8400 23.8632 0.7617
35.8600 23.8765 0.7670
35.8800 23.8898 0.7650
35.9000 23.9032 0.7642
35.9200 23.9165 0.7697
35.9400 23.9298 0.7614
35.9600 23.9431 0.7627
35.9800 23.9564 0.7708
36.0000 23.9697 0.7621
36.0200 23.9831 0.7591
36.0400 23.9964 0.7716
36.0600 24.0098 0.7635
36.0800 24.0231 0.7585
36.1000 24.0365 0.7725
36.1200 24.0499 0.7594
36.1400 24.0633 0.7585
36.1600 24.0766 0.7742
36.1800 24.0899 0.7584
36.2000 24.1032 0.7599
36.2200 24.1165 0.7721
36.2400 24.1298 0.7583
36.2600 24.1431 0.7615
36.2800 24.1564 0.7706
36.3000 24.1698 0.7590
36.3200 24.1831 0.7596
36.3400 24.1964 0.7663
36.3600 24.2098 0.7593
36.3800 24.2231 0.7611
36.4000 24.2365 0.7629
36.4200 24.2498 0.7594
36.4400 24.2632 0.7612
36.4600 24.2765 0.7659
36.4800 24.2899 0.7515
36.5000 24.3032 0.7587
36.5200 24.3165 0.7617
36.5400 24.3299 0.7515
36.5600 24.3432 0.7609
36.5800 24.3565 0.7582
36.6000 24.3698 0.7546
36.6200 24.3831 0.7571
36.6400 24.3965 0.7556
36.6600 24.4098 0.7504
36.6800 24.4231 0.7565
36.7000 24.4365 0.7516
36.7200 24.4498 0.7500
36.7400 24.4631 0.7560
36.7600 24.4765 0.7495
36.7800 24.4898 0.7521
36.8000 24.5031 0.7506
36.8200 24.5165 0.7482
36.8400 24.5299 0.7524
36.8600 24.5432 0.7470
36.8800 24.5565 0.7519
36.9000 24.5698 0.7488
36.9200 24.5832 0.7461
36.9400 24.5965 0.7517
36.9600 24.6098 0.7479
36.9800 24.6232 0.7395
37.0000 24.6365 0.7535
37.0200 24.6498 0.7439
37.0400 24.6631 0.7428
37.0600 24.6764 0.7566
37.0800 24.6898 0.7428
37.1000 24.7031 0.7411
37.1200 24.7165 0.7540
37.1400 24.7298 0.7384
37.1600 24.7431 0.7474
37.1800 24.7565 0.7526
37.2000 24.7699 0.7404
37.2200 24.7832 0.7445
37.2400 24.7965 0.7546
37.2600 24.8099 0.7406
37.2800 24.8232 0.7411
37.3000 24.8365 0.7518
37.3200 24.8498 0.7448
37.3400 24.8631 0.7400
37.3600 24.8765 0.7489
37.3800 24.8898 0.7397
37.4000 24.9032 0.7406
37.4200 24.9165 0.7472
37.4400 24.9298 0.7410
37.4600 24.9431 0.7389
37.4800 24.9565 0.7452
37.5000 24.9698 0.7435
37.5200 24.9831 0.7356
37.5400 24.9965 0.7442
37.5600 25.0099 0.7421
37.5800 25.0232 0.7368
37.6000 25.0365 0.7402
37.6200 25.0498 0.7415
37.6400 25.0632 0.7377
37.6600 25.0766 0.7377
37.6800 25.0899 0.7408
37.7000 25.1032 0.7335
37.7200 25.1165 0.7372
37.7400 25.1298 0.7444
37.7600 25.1431 0.7299
37.7800 25.1564 0.7388
37.8000 25.1697 0.7408
37.8200 25.1831 0.7259
37.8400 25.1964 0.7388
37.8600 25.2098 0.7449
37.8800 25.2231 0.7219
37.9000 25.2365 0.7351
37.9200 25.2499 0.7430
37.9400 25.2632 0.7230
37.9600 25.2765 0.7339
37.9800 25.2899 0.7420
38.0000 25.3032 0.7183
38.0200 25.3166 0.7361
38.0400 25.3299 0.7385
38.0600 25.3432 0.7226
38.0800 25.3565 0.7375
38.1000 25.3698 0.7347
38.1200 25.3832 0.7189
38.1400 25.3964 0.7366
38.1600 25.4097 0.7327
38.1800 25.4231 0.7212
38.2000 25.4364 0.7323
38.2200 25.4498 0.7292
38.2400 25.4631 0.7221
38.2600 25.4765 0.7302
38.2800 25.4898 0.7299
38.3000 25.5032 0.7204
38.3200 25.5165 0.7332
38.3400 25.5299 0.7257
38.3600 25.5432 0.7179
38.3800 25.5565 0.7304
38.4000 25.5698 0.7207
38.4200 25.5831 0.7230
38.4400 25.5964 0.7298
38.4600 25.6098 0.7202
38.4800 25.6231 0.7221
38.5000 25.6364 0.7246
38.5200 25.6498 0.7208
38.5400 25.6632 0.7224
38.5600 25.6765 0.7230
38.5800 25.6898 0.7177
38.6000 25.7032 0.7223
38.6200 25.7165 0.7197
38.6400 25.7298 0.7156
38.6600 25.7432 0.7172
38.6800 25.7565 0.7186
38.7000 25.7698 0.7180
38.7200 25.7832 0.7199
38.7400 25.7965 0.7152
38.7600 25.8099 0.7176
38.7800 25.8232 0.7186
38.8000 25.8365 0.7186
38.8200 25.8499 0.7178
38.8400 25.8632 0.7093
38.8600 25.8765 0.7147
38.8800 25.8898 0.7173
38.9000 25.9031 0.7100
38.9200 25.9165 0.7153
38.9400 25.9298 0.7150
38.9600 25.9431 0.7078
38.9800 25.9565 0.7109
39.0000 25.9698 0.7104
39.0200 25.9832 0.7097
39.0400 25.9965 0.7081
39.0600 26.0098 0.7094
39.0800 26.0232 0.7107
39.1000 26.0365 0.7060
39.1200 26.0499 0.7079
39.1400 26.0632 0.7113
39.1600 26.0765 0.7036
39.1800 26.0899 0.7067
39.2000 26.1032 0.7086
39.2200 26.1165 0.7036
39.2400 26.1298 0.7083
39.2600 26.1431 0.7075
39.2800 26.1564 0.7002
39.3000 26.1698 0.7103
39.3200 26.1831 0.7045
39.3400 26.1965 0.7014
39.3600 26.2099 0.7100
39.3800 26.2232 0.7094
39.4000 26.2365 0.7022
39.4200 26.2499 0.7110
39.4400 26.2632 0.7071
39.4600 26.2766 0.7031
39.4800 26.2899 0.7103
39.5000 26.3031 0.7096
39.5200 26.3165 0.7038
39.5400 26.3298 0.7118
39.5600 26.3431 0.7047
39.5800 26.3564 0.7048
39.6000 26.3698 0.7075
39.6200 26.3831 0.7082
39.6400 26.3965 0.7001
39.6600 26.4098 0.7068
39.6800 26.4232 0.7113
39.7000 26.4365 0.7007
39.7200 26.4498 0.7022
39.7400 26.4632 0.7033
39.7600 26.4765 0.7007
39.7800 26.4899 0.7032
39.8000 26.5032 0.7036
39.8200 26.5166 0.7018
39.8400 26.5299 0.7014
39.8600 26.5432 0.7026
39.8800 26.5565 0.7016
39.9000 26.5698 0.6988
39.9200 26.5831 0.7047
39.9400 26.5964 0.7004
39.9600 26.6097 0.6942
39.9800 26.6231 0.7057
40.0000 26.6364 0.7014
40.0200 26.6498 0.6908
40.0400 26.6631 0.7060
40.0600 26.6765 0.6989
40.0800 26.6899 0.6890
40.1000 26.7032 0.7084
40.1200 26.7165 0.6963
40.1400 26.7298 0.6892
40.1600 26.7432 0.7084
40.1800 26.7565 0.6925
40.2000 26.7698 0.6901
40.2200 26.7832 0.7082
40.2400 26.7965 0.6922
40.2600 26.8098 0.6859
40.2800 26.8232 0.7085
40.3000 26.8365 0.6876
40.3200 26.8498 0.6899
40.3400 26.8631 0.7057
40.3600 26.8764 0.6848
40.3800 26.8898 0.6926
40.4000 26.9031 0.7026
40.4200 26.9165 0.6814
40.4400 26.9299 0.6920
40.4600 26.9432 0.6957
40.4800 26.9565 0.6790
40.5000 26.9698 0.6910
40.5200 26.9832 0.6956
40.5400 26.9966 0.6817
40.5600 27.0099 0.6866
40.5800 27.0232 0.6911
40.6000 27.0365 0.6831
40.6200 27.0498 0.6871
40.6400 27.0632 0.6874
40.6600 27.0765 0.6828
40.6800 27.0898 0.6891
40.7000 27.1031 0.6808
40.7200 27.1165 0.6852
40.7400 27.1298 0.6823
40.7600 27.1431 0.6795
40.7800 27.1565 0.6854
40.8000 27.1698 0.6802
40.8200 27.1832 0.6783
40.8400 27.1965 0.6805
40.8600 27.2098 0.6779
40.8800 27.2231 0.6810
40.9000 27.2365 0.6757
40.9200 27.2499 0.6730
40.9400 27.2632 0.6789
40.9600 27.2765 0.6780
40.9800 27.2899 0.6725
41.0000 27.3032 0.6772
41.0200 27.3165 0.6763
41.0400 27.3298 0.6712
41.0600 27.3431 0.6779
41.0800 27.3564 0.6683
41.1000 27.3698 0.6670
41.1200 27.3831 0.6729
41.1400 27.3964 0.6716
41.1600 27.4098 0.6651
41.1800 27.4232 0.6712
41.2000 27.4366 0.6638
41.2200 27.4499 0.6639
41.2400 27.4632 0.6737
41.2600 27.4766 0.6662
41.2800 27.4899 0.6659
41.3000 27.5032 0.6712
41.3200 27.5165 0.6687
41.3400 27.5298 0.6634
41.3600 27.5431 0.6669
41.3800 27.5565 0.6678
41.4000 27.5698 0.6612
41.4200 27.5831 0.6709
41.4400 27.5964 0.6658
41.4600 27.6098 0.6559
41.4800 27.6231 0.6702
41.5000 27.6365 0.6693
41.5200 27.6498 0.6591
41.5400 27.6632 0.6683
41.5600 27.6766 0.6674
41.5800 27.6899 0.6589
41.6000 27.7032 0.6735
41.6200 27.7165 0.6672
41.6400 27.7299 0.6590
41.6600 27.7432 0.6758
41.6800 27.7565 0.6701
41.7000 27.7698 0.6608
41.7200 27.7831 0.6744
41.7400 27.7965 0.6667
41.7600 27.8098 0.6615
41.7800 27.8231 0.6708
41.8000 27.8365 0.6639
41.8200 27.8498 0.6589
41.8400 27.8631 0.6736
41.8600 27.8765 0.6638
41.8800 27.8898 0.6568
41.9000 27.9032 0.6698
41.9200 27.9165 0.6629
41.9400 27.9298 0.6626
41.9600 27.9432 0.6704
41.9800 27.9565 0.6573
42.0000 27.9699 0.6594
42.0200 27.9832 0.6683
42.0400 27.9965 0.6568
42.0600 28.0098 0.6588
42.0800 28.0232 0.6659
42.1000 28.0365 0.6567
42.1200 28.0498 0.6531
42.1400 28.0631 0.6679
42.1600 28.0764 0.6581
42.1800 28.0898 0.6509
42.2000 28.1031 0.6636
42.2200 28.1165 0.6552
42.2400 28.1299 0.6527
42.2600 28.1432 0.6637
42.2800 28.1566 0.6523
42.3000 28.1699 0.6507
42.3200 28.1832 0.6614
42.3400 28.1965 0.6475
42.3600 28.2098 0.6505
42.3800 28.2231 0.6601
42.4000 28.2365 0.6482
42.4200 28.2498 0.6496
42.4400 28.2632 0.6581
42.4600 28.2765 0.6464
42.4800 28.2898 0.6470
42.5000 28.3031 0.6556
42.5200 28.3165 0.6449
42.5400 28.3298 0.6437
42.5600 28.3431 0.6474
42.5800 28.3564 0.6490
42.6000 28.3698 0.6431
42.6200 28.3832 0.6481
42.6400 28.3965 0.6456
42.6600 28.4099 0.6432
42.6800 28.4232 0.6442
42.7000 28.4366 0.6433
42.7200 28.4499 0.6412
42.7400 28.4632 0.6481
42.7600 28.4765 0.6408
42.7800 28.4898 0.6425
42.8000 28.5032 0.6432
42.8200 28.5165 0.6365
42.8400 28.5298 0.6467
42.8600 28.5431 0.6421
42.8800 28.5565 0.6339
42.9000 28.5698 0.6431
42.9200 28.5831 0.6375
42.9400 28.5965 0.6363
42.9600 28.6098 0.6446
42.9800 28.6232 0.6326
43.0000 28.6365 0.6366
43.0200 28.6498 0.6377
43.0400 28.6632 0.6375
43.0600 28.6765 0.6336
43.0800 28.6899 0.6391
43.1000 28.7032 0.6366
43.1200 28.7165 0.6349
43.1400 28.7298 0.6382
43.1600 28.7432 0.6326
43.1800 28.7565 0.6348
43.2000 28.7698 0.6360
43.2200 28.7831 0.6328
43.2400 28.7964 0.6346
43.2600 28.8098 0.6286
43.2800 28.8231 0.6346
43.3000 28.8364 0.6320
43.3200 28.8498 0.6312
43.3400 28.8632 0.6314
43.3600 28.8766 0.6273
43.3800 28.8899 0.6335
43.4000 28.9032 0.6349
43.4200 28.9166 0.6294
43.4400 28.9299 0.6344
43.4600 28.9432 0.6350
43.4800 28.9564 0.6349
43.5000 28.9697 0.6382
43.5200 28.9831 0.6314
43.5400 28.9964 0.6359
43.5600 29.0098 0.6395
43.5800 29.0231 0.6320
43.6000 29.0365 0.6391
43.6200 29.0498 0.6384
43.6400 29.0632 0.6300
43.6600 29.0765 0.6400
43.6800 29.0899 0.6361
43.7000 29.1032 0.6338
43.7200 29.1166 0.6430
43.7400 29.1299 0.6312
43.7600 29.1432 0.6349
43.7800 29.1565 0.6423
43.8000 29.1699 0.6301
43.8200 29.1832 0.6397
43.8400 29.1965 0.6384
43.8600 29.2098 0.6294
43.8800 29.2231 0.6342
43.9000 29.2365 0.6368
43.9200 29.2498 0.6275
43.9400 29.2631 0.6332
43.9600 29.2764 0.6360
43.9800 29.2898 0.6271
44.0000 29.3031 0.6334
44.0200 29.3165 0.6292
44.0400 29.3298 0.6316
44.0600 29.3432 0.6268
44.0800 29.3565 0.6239
44.1000 29.3699 0.6333
44.1200 29.3832 0.6264
44.1400 29.3965 0.6251
44.1600 29.4099 0.6261
44.1800 29.4232 0.6273
44.2000 29.4365 0.6219
44.2200 29.4498 0.6289
44.2400 29.4632 0.6257
44.2600 29.4765 0.6182
44.2800 29.4898 0.6285
44.3000 29.5031 0.6177
44.3200 29.5164 0.6227
44.3400 29.5298 0.6239
44.3600 29.5431 0.6135
44.3800 29.5565 0.6189
44.4000 29.5698 0.6240
44.4200 29.5832 0.6173
44.4400 29.5966 0.6143
44.4600 29.6099 0.6233
44.4800 29.6232 0.6166
44.5000 29.6365 0.6095
44.5200 29.6499 0.6249
44.5400 29.6632 0.6131
44.5600 29.6765 0.6137
44.5800 29.6898 0.6220
44.6000 29.7032 0.6137
44.6200 29.7165 0.6124
44.6400 29.7298 0.6212
44.6600 29.7431 0.6140
44.6800 29.7564 0.6084
44.7000 29.7698 0.6211
44.7200 29.7831 0.6108
44.7400 29.7965 0.6057
44.7600 29.8098 0.6224
44.7800 29.8232 0.6091
44.8000 29.8365 0.6049
44.8200 29.8498 0.6160
44.8400 29.8632 0.6085
44.8600 29.8765 0.6077
44.8800 29.8899 0.6131
44.9000 29.9032 0.6054
44.9200 29.9165 0.6051
44.9400 29.9298 0.6201
44.9600 29.9431 0.6024
44.9800 29.9565 0.5992
45.0000 29.9698 0.6216
45.0200 29.9831 0.5990
45.0400 29.9964 0.6008
45.0600 30.0098 0.6211
45.0800 30.0231 0.5919
45.1000 30.0365 0.6054
45.1200 30.0498 0.6144
45.1400 30.0632 0.5929
45.1600 30.0766 0.6000
45.1800 30.0899 0.6130
45.2000 30.1032 0.5905
45.2200 30.1165 0.6016
45.2400 30.1299 0.6118
45.2600 30.1432 0.5912
45.2800 30.1565 0.5999
45.3000 30.1698 0.6088
45.3200 30.1831 0.5905
45.3400 30.1965 0.6042
45.3600 30.2098 0.6089
45.3800 30.2231 0.5939
45.4000 30.2364 0.6000
45.4200 30.2498 0.6055
45.4400 30.2631 0.5912
45.4600 30.2765 0.5989
45.4800 30.2898 0.6030
45.5000 30.3032 0.5918
45.5200 30.3165 0.5957
45.5400 30.3299 0.6040
45.5600 30.3432 0.5937
45.5800 30.3565 0.6007
45.6000 30.3699 0.6013
45.6200 30.3832 0.5956
45.6400 30.3965 0.5995
45.6600 30.4098 0.6028
45.6800 30.4231 0.5933
45.7000 30.4364 0.5934
45.7200 30.4498 0.5979
45.7400 30.4631 0.5938
45.7600 30.4765 0.5960
45.7800 30.4898 0.5993
45.8000 30.5032 0.5920
45.8200 30.5165 0.5919
45.8400 30.5298 0.5995
45.8600 30.5432 0.5924
45.8800 30.5565 0.5909
45.9000 30.5698 0.5965
45.9200 30.5831 0.5932
45.9400 30.5965 0.5878
45.9600 30.6098 0.6013
45.9800 30.6232 0.5892
46.0000 30.6365 0.5887
46.0200 30.6499 0.5958
46.0400 30.6632 0.5901
46.0600 30.6765 0.5911
46.0800 30.6898 0.5892
46.1000 30.7031 0.5895
46.1200 30.7165 0.5896
46.1400 30.7298 0.5908
46.1600 30.7431 0.5887
46.1800 30.7564 0.5860
46.2000 30.7698 0.5921
46.2200 30.7831 0.5843
46.2400 30.7965 0.5875
46.2600 30.8098 0.5863
46.2800 30.8232 0.5898
46.3000 30.8365 0.5870
46.3200 30.8499 0.5888
46.3400 30.8632 0.5807
46.3600 30.8765 0.5821
46.3800 30.8898 0.5963
46.4000 30.9032 0.5843
46.4200 30.9165 0.5800
46.4400 30.9299 0.5936
46.4600 30.9431 0.5820
46.4800 30.9564 0.5814
46.5000 30.9698 0.5929
46.5200 30.9831 0.5826
46.5400 30.9965 0.5775
46.5600 31.0098 0.5893
46.5800 31.0232 0.5810
46.6000 31.0365 0.5769
46.6200 31.0499 0.5880
46.6400 31.0632 0.5766
46.6600 31.0765 0.5835
46.6800 31.0899 0.5844
46.7000 31.1032 0.5768
46.7200 31.1165 0.5819
46.7400 31.1298 0.5820
46.7600 31.1431 0.5777
46.7800 31.1565 0.5839
46.8000 31.1698 0.5804
46.8200 31.1831 0.5736
46.8400 31.1964 0.5850
46.8600 31.2098 0.5839
46.8800 31.2232 0.5686
46.9000 31.2365 0.5820
46.9200 31.2498 0.5765
46.9400 31.2632 0.5712
46.9600 31.2765 0.5809
46.9800 31.2899 0.5752
47.0000 31.3032 0.5775
47.0200 31.3165 0.5796
47.0400 31.3299 0.5750
47.0600 31.3432 0.5754
47.0800 31.3565 0.5821
47.1000 31.3698 0.5769
47.1200 31.3832 0.5735
47.1400 31.3965 0.5808
47.1600 31.4098 0.5724
47.1800 31.4231 0.5772
47.2000 31.4364 0.5815
47.2200 31.4498 0.5709
47.2400 31.4631 0.5779
47.2600 31.4765 0.5804
47.2800 31.4898 0.5671
47.3000 31.5032 0.5762
47.3200 31.5165 0.5769
47.3400 31.5299 0.5689
47.3600 31.5432 0.5802
47.3800 31.5565 0.5742
47.4000 31.5698 0.5689
47.4200 31.5832 0.5780
47.4400 31.5965 0.5671
47.4600 31.6098 0.5680
47.4800 31.6231 0.5751
47.5000 31.6365 0.5671
47.5200 31.6498 0.5691
47.5400 31.6631 0.5706
47.5600 31.6765 0.5683
47.5800 31.6898 0.5671
47.6000 31.7031 0.5734
47.6200 31.7165 0.5697
47.6400 31.7298 0.5624
47.6600 31.7432 0.5693
47.6800 31.7565 0.5707
47.7000 31.7699 0.5634
47.7200 31.7832 0.5728
47.7400 31.7965 0.5636
47.7600 31.8099 0.5649
47.7800 31.8232 0.5691
47.8000 31.8365 0.5674
47.8200 31.8498 0.5628
47.8400 31.8631 0.5651
47.8600 31.8765 0.5687
47.8800 31.8898 0.5559
47.9000 31.9031 0.5742
47.9200 31.9165 0.5712
47.9400 31.9298 0.5589
47.9600 31.9431 0.5700
47.9800 31.9564 0.5659
48.0000 31.9698 0.5595
48.0200 31.9831 0.5694
48.0400 31.9965 0.5656
48.0600 32.0098 0.5565
48.0800 32.0231 0.5675
48.1000 32.0365 0.5695
48.1200 32.0498 0.5587
48.1400 32.0632 0.5663
48.1600 32.0765 0.5617
48.1800 32.0899 0.5584
48.2000 32.1032 0.5631
48.2200 32.1166 0.5608
48.2400 32.1299 0.5566
48.2600 32.1431 0.5636
48.2800 32.1564 0.5623
48.3000 32.1697 0.5580
48.3200 32.1831 0.5580
48.3400 32.1964 0.5625
48.3600 32.2098 0.5580
48.3800 32.2231 0.5586
48.4000 32.2365 0.5554
48.4200 32.2499 0.5548
48.4400 32.2632 0.5597
48.4600 32.2765 0.5585
48.4800 32.2899 0.5482
48.5000 32.3032 0.5577
48.5200 32.3166 0.5526
48.5400 32.3298 0.5484
48.5600 32.3431 0.5562
48.5800 32.3565 0.5507
48.6000 32.3698 0.5414
48.6200 32.3831 0.5549
48.6400 32.3964 0.5523
48.6600 32.4098 0.5381
48.6800 32.4231 0.5544
48.7000 32.4365 0.5482
48.7200 32.4498 0.5417
48.7400 32.4632 0.5523
48.7600 32.4765 0.5412
48.7800 32.4899 0.5395
48.8000 32.5032 0.5476
48.8200 32.5166 0.5408
48.8400 32.5299 0.5388
48.8600 32.5432 0.5497
48.8800 32.5565 0.5387
48.9000 32.5698 0.5415
48.9200 32.5831 0.5492
48.9400 32.5965 0.5402
48.9600 32.6098 0.5387
48.9800 32.6231 0.5476
49.0000 32.6364 0.5413
49.0200 32.6498 0.5357
49.0400 32.6631 0.5483
49.0600 32.6765 0.5400
49.0800 32.6898 0.5362
49.1000 32.7031 0.5498
49.1200 32.7165 0.5407
49.1400 32.7299 0.5342
49.1600 32.7432 0.5457
49.1800 32.7565 0.5404
49.2000 32.7698 0.5348
49.2200 32.7832 0.5444
49.2400 32.7965 0.5384
49.2600 32.8098 0.5341
49.2800 32.8232 0.5459
49.3000 32.8365 0.5410
49.3200 32.8498 0.5362
49.3400 32.8631 0.5463
49.3600 32.8764 0.5405
49.3800 32.8897 0.5351
49.4000 32.9031 0.5450
49.4200 32.9165 0.5365
49.4400 32.9298 0.5360
49.4600 32.9432 0.5431
49.4800 32.9565 0.5393
49.5000 32.9699 0.5323
49.5200 32.9832 0.5455
49.5400 32.9965 0.5410
49.5600 33.0098 0.5345
49.5800 33.0232 0.5444
49.6000 33.0365 0.5359
49.6200 33.0498 0.5374
49.6400 33.0631 0.5404
49.6600 33.0765 0.5385
49.6800 33.0898 0.5298
49.7000 33.1031 0.5395
49.7200 33.1165 0.5393
49.7400 33.1298 0.5293
49.7600 33.1431 0.5403
49.7800 33.1565 0.5337
49.8000 33.1698 0.5284
49.8200 33.1831 0.5367
49.8400 33.1965 0.5328
49.8600 33.2099 0.5303
49.8800 33.2232 0.5302
49.9000 33.2365 0.5344
49.9200 33.2499 0.5261
49.9400 33.2632 0.5326
49.9600 33.2766 0.5319
49.9800 33.2899 0.5257
50.0000 33.3032 0.5276
50.0200 33.3165 0.5286
50.0400 33.3298 0.5253
50.0600 33.3432 0.5271
50.0800 33.3565 0.5284
50.1000 33.3698 0.5248
50.1200 33.3831 0.5228
50.1400 33.3965 0.5278
50.1600 33.4098 0.5220
50.1800 33.4231 0.5259
50.2000 33.4365 0.5231
50.2200 33.4499 0.5196
50.2400 33.4632 0.5240
50.2600 33.4765 0.5196
50.2800 33.4898 0.5220
50.3000 33.5032 0.5237
50.3200 33.5165 0.5188
50.3400 33.5299 0.5207
50.3600 33.5432 0.5215
50.3800 33.5565 0.5132
50.4000 33.5699 0.5158
50.4200 33.5832 0.5201
50.4400 33.5964 0.5156
50.4600 33.6098 0.5143
50.4800 33.6231 0.5134
50.5000 33.6364 0.5148
50.5200 33.6498 0.5144
50.5400 33.6631 0.5148
50.5600 33.6765 0.5144
50.5800 33.6899 0.5128
50.6000 33.7033 0.5117
50.6200 33.7166 0.5104
50.6400 33.7299 0.5121
50.6600 33.7432 0.5104
50.6800 33.7565 0.5122
50.7000 33.7698 0.5078
50.7200 33.7831 0.5135
50.7400 33.7964 0.5129
50.7600 33.8098 0.5084
50.7800 33.8231 0.5125
50.8000 33.8364 0.5103
50.8200 33.8498 0.5111
50.8400 33.8632 0.5114
50.8600 33.8765 0.5049
50.8800 33.8898 0.5112
50.9000 33.9032 0.5103
50.9200 33.9165 0.5044
50.9400 33.9299 0.5063
50.9600 33.9432 0.5155
50.9800 33.9565 0.5022
51.0000 33.9698 0.5094
51.0200 33.9832 0.5123
51.0400 33.9965 0.5046
51.0600 34.0098 0.5130
51.0800 34.0231 0.5070
51.1000 34.0365 0.5083
51.1200 34.0498 0.5098
51.1400 34.0631 0.5038
51.1600 34.0764 0.4999
51.1800 34.0898 0.5093
51.2000 34.1031 0.5030
51.2200 34.1165 0.5029
51.2400 34.1298 0.5070
51.2600 34.1432 0.5024
51.2800 34.1565 0.5084
51.3000 34.1699 0.5046
51.3200 34.1832 0.4994
51.3400 34.1965 0.5074
51.3600 34.2098 0.5025
51.3800 34.2232 0.5054
51.4000 34.2366 0.5061
51.4200 34.2499 0.5011
51.4400 34.2632 0.5037
51.4600 34.2765 0.5010
51.4800 34.2899 0.4997
51.5000 34.3032 0.5083
51.5200 34.3165 0.5018
51.5400 34.3298 0.4994
51.5600 34.3431 0.5052
51.5800 34.3565 0.4957
51.6000 34.3698 0.4956
51.6200 34.3831 0.5064
51.6400 34.3965 0.4939
51.6600 34.4099 0.4979
51.6800 34.4232 0.5023
51.7000 34.4366 0.4906
51.7200 34.4499 0.5033
51.7400 34.4632 0.4996
51.7600 34.4765 0.4902
51.7800 34.4898 0.5008
51.8000 34.5031 0.4967
51.8200 34.5165 0.4885
51.8400 34.5298 0.4976
51.8600 34.5432 0.4958
51.8800 34.5565 0.4883
51.9000 34.5698 0.4966
51.9200 34.5831 0.4975
51.9400 34.5965 0.4808
51.9600 34.6098 0.4961
51.9800 34.6231 0.4953
52.0000 34.6364 0.4823
52.0200 34.6498 0.4965
52.0400 34.6632 0.4862
52.0600 34.6765 0.4802
52.0800 34.6898 0.4992
52.1000 34.7032 0.4868
52.1200 34.7166 0.4848
52.1400 34.7299 0.4954
52.1600 34.7432 0.4878
52.1800 34.7565 0.4830
52.2000 34.7698 0.4958
52.2200 34.7831 0.4860
52.2400 34.7964 0.4893
52.2600 34.8097 0.4915
52.2800 34.8231 0.4846
52.3000 34.8364 0.4867
52.3200 34.8498 0.4870
52.3400 34.8631 0.4843
52.3600 34.8765 0.4882
52.3800 34.8899 0.4870
52.4000 34.9032 0.4786
52.4200 34.9165 0.4856
52.4400 34.9298 0.4886
52.4600 34.9432 0.4788
52.4800 34.9565 0.4861
52.5000 34.9699 0.4850
52.5200 34.9832 0.4843
52.5400 34.9965 0.4843
52.5600 35.0098 0.4846
52.5800 35.0232 0.4838
52.6000 35.0365 0.4788
52.6200 35.0498 0.4848
52.6400 35.0631 0.4840
52.6600 35.0765 0.4802
52.6800 35.0898 0.4854
52.7000 35.1031 0.4836
52.7200 35.1165 0.4798
52.7400 35.1299 0.4826
52.7600 35.1432 0.4812
52.7800 35.1565 0.4834
52.8000 35.1699 0.4797
52.8200 35.1832 0.4786
52.8400 35.1965 0.4796
52.8600 35.2098 0.4844
52.8800 35.2231 0.4784
52.9000 35.2364 0.4837
52.9200 35.2498 0.4862
52.9400 35.2631 0.4727
52.9600 35.2764 0.4816
52.9800 35.2898 0.4808
53.0000 35.3031 0.4753
53.0200 35.3165 0.4794
53.0400 35.3299 0.4754
53.0600 35.3432 0.4770
53.0800 35.3565 0.4757
53.1000 35.3699 0.4737
53.1200 35.3832 0.4782
53.1400 35.3965 0.4750
53.1600 35.4098 0.4680
53.1800 35.4231 0.4763
53.2000 35.4365 0.4711
53.2200 35.4498 0.4649
53.2400 35.4632 0.4725
53.2600 35.4765 0.4693
53.2800 35.4899 0.4634
53.3000 35.5032 0.4699
53.3200 35.5165 0.4676
53.3400 35.5298 0.4651
53.3600 35.5431 0.4696
53.3800 35.5564 0.4594
53.4000 35.5697 0.4650
53.4200 35.5831 0.4700
53.4400 35.5964 0.4573
53.4600 35.6098 0.4645
53.4800 35.6232 0.4636
53.5000 35.6366 0.4574
53.5200 35.6499 0.4643
53.5400 35.6632 0.4647
53.5600 35.6765 0.4543
53.5800 35.6899 0.4634
53.6000 35.7032 0.4640
53.6200 35.7165 0.4540
53.6400 35.7299 0.4626
53.6600 35.7432 0.4625
53.6800 35.7565 0.4527
53.7000 35.7698 0.4582
53.7200 35.7831 0.4609
53.7400 35.7964 0.4514
53.7600 35.8098 0.4579
53.7800 35.8231 0.4594
53.8000 35.8365 0.4485
53.8200 35.8498 0.4560
53.8400 35.8632 0.4564
53.8600 35.8765 0.4510
53.8800 35.8899 0.4572
53.9000 35.9032 0.4527
53.9200 35.9166 0.4515
53.9400 35.9299 0.4528
53.9600 35.9432 0.4512
53.9800 35.9565 0.4497
54.0000 35.9698 0.4564
54.0200 35.9831 0.4468
54.0400 35.9965 0.4472
54.0600 36.0098 0.4575
54.0800 36.0231 0.4445
54.1000 36.0365 0.4467
54.1200 36.0498 0.4507
54.1400 36.0631 0.4450
54.1600 36.0765 0.4476
54.1800 36.0898 0.4467
54.2000 36.1032 0.4493
54.2200 36.1165 0.4457
54.2400 36.1299 0.4405
54.2600 36.1432 0.4474
54.2800 36.1566 0.4456
54.3000 36.1699 0.4397
54.3200 36.1832 0.4421
54.3400 36.1965 0.4515
54.3600 36.2098 0.4363
54.3800 36.2232 0.4442
54.4000 36.2365 0.4413
54.4200 36.2498 0.4372
54.4400 36.2631 0.4461
54.4600 36.2765 0.4416
54.4800 36.2898 0.4311
54.5000 36.3031 0.4440
54.5200 36.3165 0.4409
54.5400 36.3299 0.4343
54.5600 36.3432 0.4447
54.5800 36.3565 0.4361
54.6000 36.3699 0.4324
54.6200 36.3832 0.4410
54.6400 36.3965 0.4351
54.6600 36.4099 0.4393
54.6800 36.4232 0.4388
54.7000 36.4365 0.4323
54.7200 36.4498 0.4358
54.7400 36.4632 0.4327
54.7600 36.4765 0.4343
54.7800 36.4898 0.4355
54.8000 36.5031 0.4280
54.8200 36.5165 0.4331
54.8400 36.5298 0.4327
54.8600 36.5431 0.4246
54.8800 36.5565 0.4347
54.9000 36.5698 0.4255
54.9200 36.5832 0.4248
54.9400 36.5965 0.4357
54.9600 36.6098 0.4248
54.9800 36.6232 0.4251
55.0000 36.6365 0.4337
55.0200 36.6499 0.4187
55.0400 36.6632 0.4255
55.0600 36.6765 0.4334
55.0800 36.6898 0.4182
55.1000 36.7031 0.4277
55.1200 36.7164 0.4316
55.1400 36.7297 0.4157
55.1600 36.7431 0.4299
55.1800 36.7564 0.4275
55.2000 36.7698 0.4146
55.2200 36.7831 0.4297
55.2400 36.7965 0.4213
55.2600 36.8098 0.4118
55.2800 36.8232 0.4272
55.3000 36.8365 0.4185
55.3200 36.8498 0.4151
55.3400 36.8631 0.4263
55.3600 36.8765 0.4165
55.3800 36.8899 0.4118
55.4000 36.9032 0.4296
55.4200 36.9165 0.4167
55.4400 36.9299 0.4134
55.4600 36.9432 0.4267
55.4800 36.9565 0.4110
55.5000 36.9698 0.4169
55.5200 36.9831 0.4252
55.5400 36.9964 0.4116
55.5600 37.0097 0.4193
55.5800 37.0231 0.4249
55.6000 37.0364 0.4148
55.6200 37.0498 0.4195
55.6400 37.0632 0.4201
55.6600 37.0766 0.4146
55.6800 37.0899 0.4191
55.7000 37.1032 0.4204
55.7200 37.1166 0.4181
55.7400 37.1299 0.4197
55.7600 37.1432 0.4121
55.7800 37.1565 0.4247
55.8000 37.1698 0.4172
55.8200 37.1832 0.4133
55.8400 37.1965 0.4249
55.8600 37.2098 0.4159
55.8800 37.2231 0.4143
55.9000 37.2364 0.4210
55.9200 37.2498 0.4134
55.9400 37.2631 0.4156
55.9600 37.2764 0.4233
55.9800 37.2898 0.4071
56.0000 37.3032 0.4108
56.0200 37.3166 0.4256
56.0400 37.3299 0.4037
56.0600 37.3432 0.4182
56.0800 37.3566 0.4213
56.1000 37.3699 0.4025
56.1200 37.3832 0.4160
56.1400 37.3965 0.4160
56.1600 37.4098 0.4021
56.1800 37.4231 0.4125
56.2000 37.4365 0.4139
56.2200 37.4498 0.3975
56.2400 37.4631 0.4104
56.2600 37.4765 0.4092
56.2800 37.4898 0.3976
56.3000 37.5032 0.4108
56.3200 37.5165 0.4049
56.3400 37.5298 0.4001
56.3600 37.5432 0.4076
56.3800 37.5565 0.4032
56.4000 37.5698 0.4011
56.4200 37.5832 0.4061
56.4400 37.5965 0.4029
56.4600 37.6099 0.3982
56.4800 37.6232 0.4028
56.5000 37.6365 0.4006
56.5200 37.6498 0.3972
56.5400 37.6632 0.4015
56.5600 37.6765 0.3989
56.5800 37.6897 0.3955
56.6000 37.7030 0.4017
56.6200 37.7164 0.3970
56.6400 37.7298 0.4002
56.6600 37.7432 0.3993
56.6800 37.7565 0.3971
56.7000 37.7699 0.3962
56.7200 37.7832 0.3977
56.7400 37.7966 0.3964
56.7600 37.8099 0.3987
56.7800 37.8232 0.3955
56.8000 37.8365 0.3960
56.8200 37.8499 0.3948
56.8400 37.8632 0.3915
56.8600 37.8765 0.3989
56.8800 37.8898 0.3944
56.9000 37.9032 0.3907
56.9200 37.9165 0.4002
56.9400 37.9298 0.3920
56.9600 37.9431 0.3935
56.9800 37.9564 0.3990
57.0000 37.9698 0.3887
57.0200 37.9831 0.3904
57.0400 37.9965 0.3954
57.0600 38.0099 0.3839
57.0800 38.0232 0.3888
57.1000 38.0366 0.3929
57.1200 38.0499 0.3815
57.1400 38.0632 0.3936
57.1600 38.0766 0.3898
57.1800 38.0899 0.3842
57.2000 38.1032 0.3937
57.2200 38.1165 0.3869
57.2400 38.1298 0.3896
57.2600 38.1431 0.3909
57.2800 38.1565 0.3820
57.3000 38.1698 0.3854
57.3200 38.1831 0.3888
57.3400 38.1964 0.3847
57.3600 38.2098 0.3883
57.3800 38.2231 0.3857
57.4000 38.2364 0.3823
57.4200 38.2498 0.3878
57.4400 38.2632 0.3780
57.4600 38.2766 0.3833
57.4800 38.2899 0.3852
57.5000 38.3032 0.3755
57.5200 38.3165 0.3850
57.5400 38.3299 0.3802
57.5600 38.3432 0.3751
57.5800 38.3565 0.3814
57.6000 38.3698 0.3802
57.6200 38.3832 0.3812
57.6400 38.3965 0.3788
57.6600 38.4098 0.3795
57.6800 38.4231 0.3757
57.7000 38.4364 0.3819
57.7200 38.4497 0.3770
57.7400 38.4631 0.3753
57.7600 38.4764 0.3764
57.7800 38.4898 0.3798
57.8000 38.5032 0.3761
57.8200 38.5166 0.3670
57.8400 38.5299 0.3769
57.8600 38.5432 0.3722
57.8800 38.5566 0.3736
57.9000 38.5699 0.3698
57.9200 38.5832 0.3644
57.9400 38.5965 0.3719
57.9600 38.6098 0.3713
57.9800 38.6231 0.3672
58.0000 38.6364 0.3681
58.0200 38.6498 0.3649
58.0400 38.6631 0.3572
58.0600 38.6765 0.3671
58.0800 38.6898 0.3678
58.1000 38.7032 0.3528
58.1200 38.7165 0.3685
58.1400 38.7299 0.3618
58.1600 38.7432 0.3553
58.1800 38.7566 0.3618
58.2000 38.7699 0.3568
58.2200 38.7832 0.3549
58.2400 38.7965 0.3583
58.2600 38.8099 0.3561
58.2800 38.8232 0.3494
58.3000 38.8365 0.3571
58.3200 38.8498 0.3567
58.3400 38.8631 0.3463
58.3600 38.8765 0.3565
58.3800 38.8898 0.3505
58.4000 38.9031 0.3499
58.4200 38.9165 0.3524
58.4400 38.9298 0.3462
58.4600 38.9432 0.3510
58.4800 38.9565 0.3513
58.5000 38.9698 0.3447
58.5200 38.9832 0.3529
58.5400 38.9965 0.3460
58.5600 39.0098 0.3453
58.5800 39.0232 0.3526
58.6000 39.0365 0.3467
58.6200 39.0499 0.3455
58.6400 39.0632 0.3506
58.6600 39.0765 0.3404
58.6800 39.0898 0.3443
58.7000 39.1031 0.3573
58.7200 39.1165 0.3374
58.7400 39.1298 0.3478
58.7600 39.1431 0.3559
58.7800 39.1564 0.3378
58.8000 39.1698 0.3488
58.8200 39.1831 0.3512
58.8400 39.1965 0.3363
58.8600 39.2098 0.3566
58.8800 39.2232 0.3481
58.9000 39.2366 0.3358
58.9200 39.2499 0.3573
58.9400 39.2632 0.3516
58.9600 39.2765 0.3370
58.9800 39.2899 0.3616
59.0000 39.3032 0.3475
59.0200 39.3165 0.3414
59.0400 39.3298 0.3599
59.0600 39.3432 0.3438
59.0800 39.3565 0.3455
59.1000 39.3698 0.3554
59.1200 39.3831 0.3405
59.1400 39.3965 0.3479
59.1600 39.4098 0.3596
59.1800 39.4231 0.3402
59.2000 39.4365 0.3450
59.2200 39.4498 0.3522
59.2400 39.4631 0.3438
59.2600 39.4765 0.3449
59.2800 39.4898 0.3466
59.3000 39.5032 0.3475
59.3200 39.5165 0.3469
59.3400 39.5299 0.3447
59.3600 39.5432 0.3473
59.3800 39.5565 0.3470
59.4000 39.5698 0.3516
59.4200 39.5831 0.3493
59.4400 39.5965 0.3507
59.4600 39.6098 0.3494
59.4800 39.6231 0.3480
59.5000 39.6364 0.3469
59.5200 39.6498 0.3521
59.5400 39.6631 0.3466
59.5600 39.6764 0.3450
59.5800 39.6898 0.3523
59.6000 39.7032 0.3478
59.6200 39.7166 0.3433
59.6400 39.7299 0.3533
59.6600 39.7432 0.3415
59.6800 39.7565 0.3417
59.7000 39.7699 0.3489
59.7200 39.7832 0.3370
59.7400 39.7965 0.3460
59.7600 39.8098 0.3461
59.7800 39.8231 0.3360
59.8000 39.8365 0.3347
59.8200 39.8498 0.3379
59.8400 39.8631 0.3361
59.8600 39.8764 0.3277
59.8800 39.8898 0.3351
59.9000 39.9031 0.3294
59.9200 39.9164 0.3244
59.9400 39.9298 0.3271
59.9600 39.9432 0.3270
59.9800 39.9566 0.3193
60.0000 39.9699 0.3243
60.0200 39.9832 0.3211
60.0400 39.9965 0.3075
60.0460 40.0004 0.2962
