Raw Data
Time Displacement Force
(s) (mm) (N)
0.0000 0.0000 0.2565
0.0200 0.0001 0.2637
0.0400 0.0021 0.3274
0.0600 0.0098 0.3304
0.0800 0.0216 0.2372
0.1000 0.0341 0.2454
0.1200 0.0467 0.2858
0.1400 0.0601 0.2487
0.1600 0.0742 0.2494
0.1800 0.0884 0.2602
0.2000 0.1023 0.2432
0.2200 0.1159 0.2501
0.2400 0.1293 0.2587
0.2600 0.1426 0.2447
0.2800 0.1559 0.2608
0.3000 0.1693 0.2542
0.3200 0.1827 0.2398
0.3400 0.1960 0.2635
0.3600 0.2093 0.2473
0.3800 0.2227 0.2434
0.4000 0.2360 0.2588
0.4200 0.2493 0.2463
0.4400 0.2626 0.2499
0.4600 0.2759 0.2559
0.4800 0.2893 0.2464
0.5000 0.3027 0.2521
0.5200 0.3160 0.2500
0.5400 0.3293 0.2438
0.5600 0.3426 0.2574
0.5800 0.3560 0.2478
0.6000 0.3693 0.2409
0.6200 0.3827 0.2583
0.6400 0.3960 0.2428
0.6600 0.4094 0.2467
0.6800 0.4227 0.2590
0.7000 0.4361 0.2384
0.7200 0.4494 0.2472
0.7400 0.4627 0.2524
0.7600 0.4761 0.2403
0.7800 0.4894 0.2483
0.8000 0.5027 0.2523
0.8200 0.5160 0.2409
0.8400 0.5294 0.2464
0.8600 0.5427 0.2469
0.8800 0.5560 0.2380
0.9000 0.5692 0.2466
0.9200 0.5825 0.2462
0.9400 0.5959 0.2373
0.9600 0.6093 0.2445
0.9800 0.6226 0.2424
1.0000 0.6360 0.2417
1.0200 0.6493 0.2461
1.0400 0.6627 0.2366
1.0600 0.6760 0.2445
1.0800 0.6893 0.2456
1.1000 0.7027 0.2407
1.1200 0.7160 0.2438
1.1400 0.7293 0.2440
1.1600 0.7426 0.2373
1.1800 0.7560 0.2428
1.2000 0.7693 0.2431
1.2200 0.7827 0.2367
1.2400 0.7960 0.2445
1.2600 0.8093 0.2408
1.2800 0.8226 0.2404
1.3000 0.8360 0.2434
1.3200 0.8493 0.2398
1.3400 0.8626 0.2400
1.3600 0.8759 0.2445
1.3800 0.8893 0.2417
1.4000 0.9027 0.2385
1.4200 0.9160 0.2379
1.4400 0.9293 0.2419
1.4600 0.9427 0.2363
1.4800 0.9560 0.2380
1.5000 0.9694 0.2420
1.5200 0.9827 0.2379
1.5400 0.9960 0.2392
1.5600 1.0093 0.2375
1.5800 1.0226 0.2348
1.6000 1.0359 0.2430
1.6200 1.0492 0.2347
1.6400 1.0626 0.2364
1.6600 1.0759 0.2401
1.6800 1.0893 0.2342
1.7000 1.1026 0.2338
1.7200 1.1160 0.2419
1.7400 1.1294 0.2369
1.7600 1.1428 0.2363
1.7800 1.1561 0.2374
1.8000 1.1694 0.2357
1.8200 1.1827 0.2354
1.8400 1.1960 0.2431
1.8600 1.2094 0.2355
1.8800 1.2227 0.2323
1.9000 1.2360 0.2417
1.9200 1.2493 0.2366
1.9400 1.2627 0.2284
1.9600 1.2760 0.2426
1.9800 1.2893 0.2335
2.0000 1.3026 0.2277
2.0200 1.3159 0.2425
2.0400 1.3293 0.2294
2.0600 1.3426 0.2256
2.0800 1.3560 0.2398
2.1000 1.3694 0.2306
2.1200 1.3827 0.2234
2.1400 1.3961 0.2417
2.1600 1.4094 0.2259
2.1800 1.4227 0.2258
2.2000 1.4360 0.2433
2.2200 1.4494 0.2240
2.2400 1.4627 0.2241
2.2600 1.4760 0.2401
2.2800 1.4893 0.2249
2.3000 1.5026 0.2262
2.3200 1.5160 0.2364
2.3400 1.5293 0.2244
2.3600 1.5426 0.2234
2.3800 1.5560 0.2395
2.4000 1.5694 0.2248
2.4200 1.5827 0.2241
2.4400 1.5960 0.2337
2.4600 1.6093 0.2261
2.4800 1.6227 0.2185
2.5000 1.6359 0.2389
2.5200 1.6492 0.2221
2.5400 1.6626 0.2209
2.5600 1.6759 0.2395
2.5800 1.6893 0.2218
2.6000 1.7027 0.2231
2.6200 1.7160 0.2414
2.6400 1.7294 0.2251
2.6600 1.7427 0.2204
2.6800 1.7561 0.2329
2.7000 1.7693 0.2222
2.7200 1.7826 0.2221
2.7400 1.7960 0.2329
2.7600 1.8093 0.2212
2.7800 1.8226 0.2190
2.8000 1.8359 0.2310
2.8200 1.8493 0.2196
2.8400 1.8627 0.2210
2.8600 1.8760 0.2298
2.8800 1.8893 0.2196
2.9000 1.9027 0.2211
2.9200 1.9160 0.2291
2.9400 1.9294 0.2199
2.9600 1.9427 0.2187
2.9800 1.9560 0.2289
3.0000 1.9693 0.2209
3.0200 1.9827 0.2219
3.0400 1.9960 0.2242
3.0600 2.0093 0.2137
3.0800 2.0226 0.2233
3.1000 2.0359 0.2259
3.1200 2.0493 0.2181
3.1400 2.0626 0.2173
3.1600 2.0760 0.2245
3.1800 2.0893 0.2209
3.2000 2.1027 0.2164
3.2200 2.1161 0.2230
3.2400 2.1294 0.2197
3.2600 2.1427 0.2178
3.2800 2.1561 0.2208
3.3000 2.1694 0.2196
3.3200 2.1827 0.2175
3.3400 2.1960 0.2186
3.3600 2.2093 0.2232
3.3800 2.2227 0.2141
3.4000 2.2360 0.2234
3.4200 2.2493 0.2184
3.4400 2.2626 0.2103
3.4600 2.2760 0.2258
3.4800 2.2893 0.2108
3.5000 2.3027 0.2118
3.5200 2.3160 0.2208
3.5400 2.3293 0.2146
3.5600 2.3427 0.2100
3.5800 2.3560 0.2204
3.6000 2.3694 0.2132
3.6200 2.3827 0.2111
3.6400 2.3961 0.2192
3.6600 2.4094 0.2074
3.6800 2.4227 0.2122
3.7000 2.4360 0.2161
3.7200 2.4493 0.2073
3.7400 2.4627 0.2146
3.7600 2.4760 0.2160
3.7800 2.4893 0.2099
3.8000 2.5026 0.2125
3.8200 2.5159 0.2154
3.8400 2.5293 0.2079
3.8600 2.5426 0.2083
3.8800 2.5560 0.2133
3.9000 2.5693 0.2082
3.9200 2.5827 0.2049
3.9400 2.5961 0.2111
3.9600 2.6094 0.2091
3.9800 2.6227 0.2096
4.0000 2.6360 0.2089
4.0200 2.6494 0.2078
4.0400 2.6627 0.2100
4.0600 2.6760 0.2060
4.0800 2.6893 0.2105
4.1000 2.7027 0.2129
4.1200 2.7160 0.2020
4.1400 2.7293 0.2090
4.1600 2.7426 0.2082
4.1800 2.7559 0.1987
4.2000 2.7693 0.2082
4.2200 2.7826 0.2051
4.2400 2.7959 0.2054
4.2600 2.8093 0.2110
4.2800 2.8227 0.2027
4.3000 2.8360 0.2048
4.3200 2.8494 0.2116
4.3400 2.8627 0.2021
4.3600 2.8760 0.2029
4.3800 2.8894 0.2108
4.4000 2.9027 0.2036
4.4200 2.9160 0.2065
4.4400 2.9293 0.2094
4.4600 2.9426 0.2049
4.4800 2.9560 0.2062
4.5000 2.9693 0.2052
4.5200 2.9826 0.2045
4.5400 2.9959 0.2000
4.5600 3.0093 0.2044
4.5800 3.0226 0.2034
4.6000 3.0360 0.2018
4.6200 3.0493 0.2049
4.6400 3.0627 0.2048
4.6600 3.0760 0.1982
4.6800 3.0893 0.2051
4.7000 3.1026 0.2069
4.7200 3.1160 0.2003
4.7400 3.1294 0.2035
4.7600 3.1427 0.1996
4.7800 3.1561 0.1967
4.8000 3.1694 0.2063
4.8200 3.1827 0.2005
4.8400 3.1960 0.1978
4.8600 3.2093 0.2036
4.8800 3.2226 0.2027
4.9000 3.2359 0.1971
4.9200 3.2492 0.2070
4.9400 3.2625 0.2002
4.9600 3.2759 0.1956
4.9800 3.2893 0.2039
5.0000 3.3027 0.1975
5.0200 3.3161 0.1973
5.0400 3.3294 0.1989
5.0600 3.3428 0.2006
5.0800 3.3561 0.1944
5.1000 3.3694 0.1993
5.1200 3.3827 0.1985
5.1400 3.3960 0.1981
5.1600 3.4093 0.1997
5.1800 3.4226 0.1999
5.2000 3.4360 0.1945
5.2200 3.4493 0.1957
5.2400 3.4626 0.2022
5.2600 3.4759 0.1899
5.2800 3.4893 0.1978
5.3000 3.5026 0.1980
5.3200 3.5160 0.1859
5.3400 3.5293 0.2043
5.3600 3.5427 0.1924
5.3800 3.5560 0.1836
5.4000 3.5694 0.2004
5.4200 3.5827 0.1976
5.4400 3.5960 0.1832
5.4600 3.6094 0.1967
5.4800 3.6227 0.1945
5.5000 3.6360 0.1807
5.5200 3.6493 0.1988
5.5400 3.6626 0.1925
5.5600 3.6760 0.1834
5.5800 3.6893 0.2007
5.6000 3.7026 0.1895
5.6200 3.7159 0.1787
5.6400 3.7293 0.1964
5.6600 3.7427 0.1911
5.6800 3.7560 0.1762
5.7000 3.7693 0.1971
5.7200 3.7827 0.1937
5.7400 3.7961 0.1773
5.7600 3.8094 0.1975
5.7800 3.8227 0.1924
5.8000 3.8360 0.1827
5.8200 3.8494 0.1961
5.8400 3.8627 0.1910
5.8600 3.8760 0.1783
5.8800 3.8894 0.2003
5.9000 3.9027 0.1952
5.9200 3.9160 0.1772
5.9400 3.9293 0.1969
5.9600 3.9426 0.1936
5.9800 3.9559 0.1801
6.0000 3.9693 0.2001
6.0200 3.9826 0.1921
6.0400 3.9960 0.1828
6.0600 4.0093 0.2000
6.0800 4.0227 0.1906
6.1000 4.0361 0.1810
6.1200 4.0494 0.1981
6.1400 4.0627 0.1877
6.1600 4.0760 0.1822
6.1800 4.0894 0.1946
6.2000 4.1027 0.1865
6.2200 4.1160 0.1830
6.2400 4.1293 0.1961
6.2600 4.1426 0.1842
6.2800 4.1560 0.1842
6.3000 4.1693 0.1933
6.3200 4.1826 0.1877
6.3400 4.1959 0.1869
6.3600 4.2093 0.1892
6.3800 4.2226 0.1870
6.4000 4.2359 0.1871
6.4200 4.2493 0.1878
6.4400 4.2626 0.1892
6.4600 4.2760 0.1878
6.4800 4.2894 0.1800
6.5000 4.3027 0.1905
6.5200 4.3160 0.1900
6.5400 4.3294 0.1782
6.5600 4.3427 0.1883
6.5800 4.3561 0.1825
6.6000 4.3693 0.1835
6.6200 4.3827 0.1939
6.6400 4.3960 0.1796
6.6600 4.4093 0.1810
6.6800 4.4226 0.1874
6.7000 4.4359 0.1742
6.7200 4.4493 0.1858
6.7400 4.4626 0.1887
6.7600 4.4759 0.1755
6.7800 4.4893 0.1873
6.8000 4.5026 0.1889
6.8200 4.5160 0.1697
6.8400 4.5294 0.1827
6.8600 4.5427 0.1875
6.8800 4.5560 0.1723
6.9000 4.5693 0.1827
6.9200 4.5827 0.1792
6.9400 4.5960 0.1775
6.9600 4.6093 0.1829
6.9800 4.6227 0.1780
7.0000 4.6360 0.1758
7.0200 4.6493 0.1855
7.0400 4.6626 0.1779
7.0600 4.6759 0.1730
7.0800 4.6892 0.1823
7.1000 4.7026 0.1788
7.1200 4.7159 0.1712
7.1400 4.7293 0.1797
7.1600 4.7427 0.1818
7.1800 4.7561 0.1727
7.2000 4.7695 0.1760
7.2200 4.7828 0.1767
7.2400 4.7961 0.1738
7.2600 4.8094 0.1740
7.2800 4.8227 0.1768
7.3000 4.8360 0.1689
7.3200 4.8492 0.1790
7.3400 4.8625 0.1783
7.3600 4.8759 0.1688
7.3800 4.8893 0.1757
7.4000 4.9026 0.1749
7.4200 4.9160 0.1720
7.4400 4.9293 0.1740
7.4600 4.9427 0.1718
7.4800 4.9560 0.1722
7.5000 4.9694 0.1711
7.5200 4.9827 0.1730
7.5400 4.9961 0.1706
7.5600 5.0094 0.1720
7.5800 5.0227 0.1690
7.6000 5.0360 0.1717
7.6200 5.0494 0.1723
7.6400 5.0627 0.1710
7.6600 5.0760 0.1687
7.6800 5.0893 0.1700
7.7000 5.1026 0.1682
7.7200 5.1160 0.1677
7.7400 5.1293 0.1654
7.7600 5.1426 0.1712
7.7800 5.1559 0.1670
7.8000 5.1693 0.1671
7.8200 5.1826 0.1697
7.8400 5.1960 0.1656
7.8600 5.2093 0.1670
7.8800 5.2227 0.1690
7.9000 5.2360 0.1654
7.9200 5.2494 0.1661
7.9400 5.2627 0.1657
7.9600 5.2760 0.1699
7.9800 5.2894 0.1673
8.0000 5.3027 0.1639
8.0200 5.3160 0.1707
8.0400 5.3293 0.1691
8.0600 5.3427 0.1621
8.0800 5.3560 0.1700
8.1000 5.3693 0.1670
8.1200 5.3826 0.1620
8.1400 5.3959 0.1733
8.1600 5.4093 0.1653
8.1800 5.4226 0.1619
8.2000 5.4360 0.1715
8.2200 5.4493 0.1630
8.2400 5.4626 0.1665
8.2600 5.4760 0.1725
8.2800 5.4894 0.1617
8.3000 5.5027 0.1642
8.3200 5.5160 0.1694
8.3400 5.5294 0.1622
8.3600 5.5427 0.1682
8.3800 5.5560 0.1673
8.4000 5.5693 0.1583
8.4200 5.5827 0.1704
8.4400 5.5960 0.1653
8.4600 5.6093 0.1640
8.4800 5.6226 0.1680
8.5000 5.6359 0.1656
8.5200 5.6493 0.1613
8.5400 5.6626 0.1705
8.5600 5.6760 0.1644
8.5800 5.6893 0.1675
8.6000 5.7026 0.1664
8.6200 5.7160 0.1622
8.6400 5.7294 0.1678
8.6600 5.7427 0.1613
8.6800 5.7560 0.1601
8.7000 5.7694 0.1670
8.7200 5.7827 0.1597
8.7400 5.7961 0.1603
8.7600 5.8094 0.1669
8.7800 5.8227 0.1603
8.8000 5.8360 0.1604
8.8200 5.8493 0.1627
8.8400 5.8626 0.1573
8.8600 5.8759 0.1659
8.8800 5.8893 0.1610
8.9000 5.9026 0.1551
8.9200 5.9160 0.1649
8.9400 5.9293 0.1613
8.9600 5.9427 0.1564
8.9800 5.9561 0.1653
9.0000 5.9694 0.1575
9.0200 5.9827 0.1573
9.0400 5.9960 0.1660
9.0600 6.0094 0.1581
9.0800 6.0227 0.1598
9.1000 6.0360 0.1639
9.1200 6.0493 0.1593
9.1400 6.0626 0.1573
9.1600 6.0760 0.1683
9.1800 6.0893 0.1525
9.2000 6.1026 0.1562
9.2200 6.1159 0.1656
9.2400 6.1293 0.1546
9.2600 6.1426 0.1562
9.2800 6.1559 0.1582
9.3000 6.1693 0.1551
9.3200 6.1826 0.1517
9.3400 6.1960 0.1570
9.3600 6.2094 0.1541
9.3800 6.2227 0.1496
9.4000 6.2360 0.1615
9.4200 6.2494 0.1530
9.4400 6.2627 0.1478
9.4600 6.2760 0.1611
9.4800 6.2893 0.1513
9.5000 6.3026 0.1483
9.5200 6.3159 0.1626
9.5400 6.3293 0.1524
9.5600 6.3426 0.1485
9.5800 6.3560 0.1610
9.6000 6.3693 0.1514
9.6200 6.3827 0.1445
9.6400 6.3960 0.1624
9.6600 6.4093 0.1479
9.6800 6.4227 0.1463
9.7000 6.4360 0.1625
9.7200 6.4493 0.1425
9.7400 6.4626 0.1500
9.7600 6.4759 0.1590
9.7800 6.4893 0.1463
9.8000 6.5027 0.1469
9.8200 6.5160 0.1582
9.8400 6.5293 0.1491
9.8600 6.5427 0.1460
9.8800 6.5560 0.1562
9.9000 6.5694 0.1481
9.9200 6.5827 0.1422
9.9400 6.5960 0.1551
9.9600 6.6093 0.1498
9.9800 6.6226 0.1399
10.0000 6.6360 0.1567
10.0200 6.6493 0.1515
10.0400 6.6626 0.1356
10.0600 6.6760 0.1559
10.0800 6.6893 0.1474
10.1000 6.7027 0.1329
10.1200 6.7160 0.1591
10.1400 6.7293 0.1482
10.1600 6.7427 0.1325
10.1800 6.7561 0.1561
10.2000 6.7694 0.1458
10.2200 6.7827 0.1374
10.2400 6.7960 0.1601
10.2600 6.8094 0.1438
10.2800 6.8227 0.1357
10.3000 6.8360 0.1551
10.3200 6.8493 0.1402
10.3400 6.8626 0.1410
10.3600 6.8760 0.1555
10.3800 6.8893 0.1347
10.4000 6.9026 0.1433
10.4200 6.9160 0.1527
10.4400 6.9294 0.1370
10.4600 6.9427 0.1433
10.4800 6.9560 0.1459
10.5000 6.9694 0.1393
10.5200 6.9827 0.1409
10.5400 6.9960 0.1460
10.5600 7.0093 0.1433
10.5800 7.0226 0.1409
10.6000 7.0360 0.1474
10.6200 7.0493 0.1398
10.6400 7.0626 0.1392
10.6600 7.0759 0.1444
10.6800 7.0893 0.1447
10.7000 7.1026 0.1380
10.7200 7.1160 0.1492
10.7400 7.1293 0.1373
10.7600 7.1426 0.1405
10.7800 7.1560 0.1514
10.8000 7.1693 0.1410
10.8200 7.1827 0.1363
10.8400 7.1960 0.1488
10.8600 7.2094 0.1416
10.8800 7.2227 0.1379
10.9000 7.2361 0.1462
10.9200 7.2493 0.1390
10.9400 7.2626 0.1401
10.9600 7.2760 0.1475
10.9800 7.2893 0.1390
11.0000 7.3026 0.1386
11.0200 7.3159 0.1511
11.0400 7.3292 0.1403
11.0600 7.3426 0.1392
11.0800 7.3560 0.1451
11.1000 7.3693 0.1388
11.1200 7.3827 0.1421
11.1400 7.3960 0.1391
11.1600 7.4094 0.1360
11.1800 7.4227 0.1436
11.2000 7.4360 0.1382
11.2200 7.4493 0.1383
11.2400 7.4627 0.1433
11.2600 7.4760 0.1380
11.2800 7.4894 0.1334
11.3000 7.5027 0.1411
11.3200 7.5160 0.1365
11.3400 7.5293 0.1347
11.3600 7.5427 0.1420
11.3800 7.5560 0.1362
11.4000 7.5693 0.1361
11.4200 7.5826 0.1380
11.4400 7.5960 0.1321
11.4600 7.6093 0.1376
11.4800 7.6226 0.1358
11.5000 7.6360 0.1371
11.5200 7.6494 0.1315
11.5400 7.6627 0.1340
11.5600 7.6760 0.1375
11.5800 7.6894 0.1328
11.6000 7.7027 0.1344
11.6200 7.7161 0.1345
11.6400 7.7294 0.1317
11.6600 7.7426 0.1369
11.6800 7.7559 0.1326
11.7000 7.7693 0.1264
11.7200 7.7826 0.1347
11.7400 7.7959 0.1361
11.7600 7.8093 0.1271
11.7800 7.8226 0.1355
11.8000 7.8360 0.1297
11.8200 7.8493 0.1311
11.8400 7.8626 0.1352
11.8600 7.8760 0.1320
11.8800 7.8893 0.1304
11.9000 7.9027 0.1318
11.9200 7.9160 0.1319
11.9400 7.9293 0.1331
11.9600 7.9427 0.1328
11.9800 7.9560 0.1276
12.0000 7.9694 0.1302
12.0200 7.9827 0.1255
12.0400 7.9960 0.1286
12.0600 8.0094 0.1449
12.0800 8.0227 0.1277
12.1000 8.0360 0.1252
12.1200 8.0492 0.1376
12.1400 8.0625 0.1272
12.1600 8.0759 0.1312
12.1800 8.0892 0.1342
12.2000 8.1026 0.1280
12.2200 8.1160 0.1345
12.2400 8.1294 0.1316
12.2600 8.1428 0.1261
12.2800 8.1561 0.1331
12.3000 8.1694 0.1301
12.3200 8.1828 0.1283
12.3400 8.1961 0.1309
12.3600 8.2094 0.1304
12.3800 8.2227 0.1306
12.4000 8.2360 0.1313
12.4200 8.2493 0.1285
12.4400 8.2627 0.1334
12.4600 8.2760 0.1277
12.4800 8.2892 0.1272
12.5000 8.3026 0.1340
12.5200 8.3159 0.1215
12.5400 8.3293 0.1283
12.5600 8.3426 0.1341
12.5800 8.3560 0.1211
12.6000 8.3694 0.1252
12.6200 8.3827 0.1273
12.6400 8.3961 0.1199
12.6600 8.4094 0.1293
12.6800 8.4227 0.1271
12.7000 8.4361 0.1190
12.7200 8.4494 0.1304
12.7400 8.4627 0.1261
12.7600 8.4760 0.1182
12.7800 8.4893 0.1256
12.8000 8.5026 0.1241
12.8200 8.5159 0.1162
12.8400 8.5292 0.1231
12.8600 8.5426 0.1308
12.8800 8.5560 0.1145
12.9000 8.5693 0.1219
12.9200 8.5827 0.1272
12.9400 8.5960 0.1196
12.9600 8.6094 0.1194
12.9800 8.6227 0.1194
13.0000 8.6360 0.1202
13.0200 8.6493 0.1191
13.0400 8.6627 0.1216
13.0600 8.6760 0.1209
13.0800 8.6894 0.1211
13.1000 8.7027 0.1233
13.1200 8.7160 0.1165
13.1400 8.7294 0.1221
13.1600 8.7427 0.1216
13.1800 8.7560 0.1161
13.2000 8.7692 0.1225
13.2200 8.7826 0.1247
13.2400 8.7960 0.1184
13.2600 8.8093 0.1202
13.2800 8.8227 0.1242
13.3000 8.8360 0.1182
13.3200 8.8494 0.1255
13.3400 8.8628 0.1186
13.3600 8.8761 0.1170
13.3800 8.8894 0.1266
13.4000 8.9027 0.1196
13.4200 8.9160 0.1175
13.4400 8.9294 0.1240
13.4600 8.9427 0.1219
13.4800 8.9560 0.1171
13.5000 8.9693 0.1173
13.5200 8.9827 0.1224
13.5400 8.9960 0.1180
13.5600 9.0093 0.1194
13.5800 9.0226 0.1200
13.6000 9.0360 0.1181
13.6200 9.0493 0.1130
13.6400 9.0626 0.1205
13.6600 9.0759 0.1177
13.6800 9.0893 0.1078
13.7000 9.1027 0.1222
13.7200 9.1160 0.1165
13.7400 9.1294 0.1061
13.7600 9.1427 0.1289
13.7800 9.1561 0.1180
13.8000 9.1694 0.1046
13.8200 9.1827 0.1269
13.8400 9.1960 0.1171
13.8600 9.2093 0.1054
13.8800 9.2227 0.1236
13.9000 9.2360 0.1119
13.9200 9.2493 0.1075
13.9400 9.2626 0.1286
13.9600 9.2760 0.1066
13.9800 9.2893 0.1055
14.0000 9.3026 0.1282
14.0200 9.3160 0.1020
14.0400 9.3293 0.1112
14.0600 9.3427 0.1189
14.0800 9.3560 0.1026
14.1000 9.3693 0.1115
14.1200 9.3827 0.1209
14.1400 9.3960 0.1024
14.1600 9.4094 0.1108
14.1800 9.4227 0.1170
14.2000 9.4360 0.1014
14.2200 9.4493 0.1113
14.2400 9.4627 0.1161
14.2600 9.4760 0.1023
14.2800 9.4893 0.1125
14.3000 9.5026 0.1120
14.3200 9.5159 0.1017
14.3400 9.5293 0.1069
14.3600 9.5426 0.1146
14.3800 9.5560 0.1078
14.4000 9.5694 0.0996
14.4200 9.5827 0.1136
14.4400 9.5961 0.1069
14.4600 9.6094 0.1044
14.4800 9.6227 0.1113
14.5000 9.6361 0.1048
14.5200 9.6494 0.1074
14.5400 9.6626 0.1121
14.5600 9.6759 0.1087
14.5800 9.6892 0.1082
14.6000 9.7026 0.1064
14.6200 9.7159 0.1068
14.6400 9.7293 0.1031
14.6600 9.7426 0.1091
14.6800 9.7560 0.1071
14.7000 9.7694 0.0989
14.7200 9.7827 0.1123
14.7400 9.7960 0.1073
14.7600 9.8094 0.1043
14.7800 9.8228 0.1099
14.8000 9.8361 0.1031
14.8200 9.8494 0.1064
14.8400 9.8627 0.1102
14.8600 9.8760 0.1089
14.8800 9.8893 0.1016
14.9000 9.9026 0.1098
14.9200 9.9160 0.1052
14.9400 9.9293 0.1033
14.9600 9.9427 0.1089
14.9800 9.9560 0.1052
15.0000 9.9693 0.1049
15.0200 9.9826 0.1100
15.0400 9.9960 0.1056
15.0600 10.0093 0.1065
15.0800 10.0226 0.1108
15.1000 10.0360 0.1066
15.1200 10.0494 0.1028
15.1400 10.0627 0.1091
15.1600 10.0761 0.1069
15.1800 10.0894 0.1014
15.2000 10.1027 0.1087
15.2200 10.1160 0.1013
15.2400 10.1294 0.1033
15.2600 10.1427 0.1072
15.2800 10.1560 0.1070
15.3000 10.1693 0.1028
15.3200 10.1827 0.1060
15.3400 10.1960 0.1058
15.3600 10.2093 0.1020
15.3800 10.2226 0.1099
15.4000 10.2359 0.1063
15.4200 10.2493 0.0959
15.4400 10.2626 0.1063
15.4600 10.2760 0.1076
15.4800 10.2893 0.0976
15.5000 10.3027 0.1061
15.5200 10.3161 0.1065
15.5400 10.3294 0.0971
15.5600 10.3427 0.1042
15.5800 10.3561 0.1038
15.6000 10.3694 0.0953
15.6200 10.3827 0.1062
15.6400 10.3960 0.1035
15.6600 10.4093 0.0939
15.6800 10.4227 0.1068
15.7000 10.4360 0.0957
15.7200 10.4493 0.0966
15.7400 10.4626 0.1072
15.7600 10.4760 0.0951
15.7800 10.4893 0.0962
15.8000 10.5026 0.1021
15.8200 10.5159 0.0947
15.8400 10.5293 0.0947
15.8600 10.5427 0.0975
15.8800 10.5560 0.0968
15.9000 10.5693 0.0968
15.9200 10.5827 0.0924
15.9400 10.5960 0.0999
15.9600 10.6094 0.0966
15.9800 10.6227 0.0948
16.0000 10.6360 0.1018
16.0200 10.6493 0.0959
16.0400 10.6627 0.0895
16.0600 10.6760 0.1015
16.0800 10.6893 0.0996
16.1000 10.7026 0.0918
16.1200 10.7159 0.1032
16.1400 10.7293 0.0913
16.1600 10.7426 0.0889
16.1800 10.7560 0.1021
16.2000 10.7694 0.0877
16.2200 10.7827 0.0914
16.2400 10.7961 0.0990
16.2600 10.8094 0.0851
16.2800 10.8227 0.0916
16.3000 10.8360 0.1035
16.3200 10.8494 0.0835
16.3400 10.8627 0.0938
16.3600 10.8760 0.1005
16.3800 10.8893 0.0863
16.4000 10.9027 0.0950
16.4200 10.9160 0.0963
16.4400 10.9293 0.0850
16.4600 10.9426 0.0970
16.4800 10.9559 0.0950
16.5000 10.9693 0.0880
16.5200 10.9826 0.0935
16.5400 10.9960 0.0948
16.5600 11.0093 0.0805
16.5800 11.0227 0.0924
16.6000 11.0361 0.0940
16.6200 11.0494 0.0802
16.6400 11.0627 0.0892
16.6600 11.0760 0.0917
16.6800 11.0894 0.0900
16.7000 11.1027 0.0885
16.7200 11.1159 0.0929
16.7400 11.1293 0.0899
16.7600 11.1426 0.0879
16.7800 11.1560 0.0871
16.8000 11.1693 0.0855
16.8200 11.1826 0.0865
16.8400 11.1960 0.0880
16.8600 11.2094 0.0868
16.8800 11.2227 0.0878
16.9000 11.2360 0.0865
16.9200 11.2493 0.0872
16.9400 11.2627 0.0838
16.9600 11.2760 0.0926
16.9800 11.2893 0.0876
17.0000 11.3026 0.0823
17.0200 11.3160 0.0917
17.0400 11.3294 0.0883
17.0600 11.3427 0.0823
17.0800 11.3560 0.0936
17.1000 11.3693 0.0844
17.1200 11.3827 0.0841
17.1400 11.3960 0.0937
17.1600 11.4093 0.0849
17.1800 11.4226 0.0887
17.2000 11.4360 0.0961
17.2200 11.4493 0.0835
17.2400 11.4626 0.0840
17.2600 11.4759 0.0926
17.2800 11.4893 0.0863
17.3000 11.5027 0.0861
17.3200 11.5160 0.0912
17.3400 11.5293 0.0842
17.3600 11.5427 0.0858
17.3800 11.5560 0.0893
17.4000 11.5694 0.0839
17.4200 11.5827 0.0854
17.4400 11.5960 0.0878
17.4600 11.6093 0.0860
17.4800 11.6227 0.0848
17.5000 11.6360 0.0902
17.5200 11.6493 0.0868
17.5400 11.6626 0.0810
17.5600 11.6759 0.0870
17.5800 11.6893 0.0806
17.6000 11.7026 0.0826
17.6200 11.7160 0.0878
17.6400 11.7293 0.0806
17.6600 11.7427 0.0830
17.6800 11.7560 0.0846
17.7000 11.7694 0.0824
17.7200 11.7827 0.0790
17.7400 11.7961 0.0868
17.7600 11.8094 0.0810
17.7800 11.8227 0.0815
17.8000 11.8360 0.0871
17.8200 11.8493 0.0789
17.8400 11.8626 0.0782
17.8600 11.8760 0.0810
17.8800 11.8893 0.0796
17.9000 11.9026 0.0882
17.9200 11.9159 0.0760
17.9400 11.9293 0.0847
17.9600 11.9427 0.0800
17.9800 11.9560 0.0772
18.0000 11.9693 0.0868
18.0200 11.9827 0.0801
18.0400 11.9960 0.0799
18.0600 12.0093 0.0849
18.0800 12.0227 0.0785
18.1000 12.0360 0.0788
18.1200 12.0494 0.0864
18.1400 12.0627 0.0767
18.1600 12.0760 0.0747
18.1800 12.0893 0.0881
18.2000 12.1027 0.0714
18.2200 12.1160 0.0769
18.2400 12.1293 0.0850
18.2600 12.1426 0.0732
18.2800 12.1559 0.0788
18.3000 12.1693 0.0858
18.3200 12.1826 0.0704
18.3400 12.1960 0.0788
18.3600 12.2093 0.0856
18.3800 12.2227 0.0674
18.4000 12.2361 0.0784
18.4200 12.2494 0.0795
18.4400 12.2627 0.0699
18.4600 12.2760 0.0780
18.4800 12.2894 0.0782
18.5000 12.3027 0.0724
18.5200 12.3160 0.0779
18.5400 12.3293 0.0736
18.5600 12.3426 0.0745
18.5800 12.3560 0.0730
18.6000 12.3693 0.0772
18.6200 12.3826 0.0690
18.6400 12.3960 0.0723
18.6600 12.4093 0.0752
18.6800 12.4226 0.0749
18.7000 12.4360 0.0706
18.7200 12.4493 0.0759
18.7400 12.4627 0.0748
18.7600 12.4761 0.0618
18.7800 12.4894 0.0778
18.8000 12.5027 0.0772
18.8200 12.5160 0.0627
18.8400 12.5294 0.0762
18.8600 12.5427 0.0749
18.8800 12.5560 0.0645
18.9000 12.5693 0.0779
18.9200 12.5826 0.0712
18.9400 12.5960 0.0657
18.9600 12.6093 0.0780
18.9800 12.6226 0.0699
19.0000 12.6359 0.0662
19.0200 12.6493 0.0764
19.0400 12.6626 0.0632
19.0600 12.6760 0.0659
19.0800 12.6893 0.0773
19.1000 12.7026 0.0672
19.1200 12.7160 0.0636
19.1400 12.7293 0.0729
19.1600 12.7427 0.0682
19.1800 12.7560 0.0663
19.2000 12.7694 0.0709
19.2200 12.7827 0.0642
19.2400 12.7960 0.0652
19.2600 12.8094 0.0687
19.2800 12.8227 0.0655
19.3000 12.8361 0.0702
19.3200 12.8494 0.0689
19.3400 12.8626 0.0673
19.3600 12.8759 0.0642
19.3800 12.8892 0.0710
19.4000 12.9026 0.0688
19.4200 12.9159 0.0632
19.4400 12.9293 0.0740
19.4600 12.9427 0.0668
19.4800 12.9561 0.0591
19.5000 12.9694 0.0682
19.5200 12.9827 0.0730
19.5400 12.9961 0.0657
19.5600 13.0094 0.0731
19.5800 13.0228 0.0684
19.6000 13.0360 0.0563
19.6200 13.0493 0.0758
19.6400 13.0626 0.0693
19.6600 13.0760 0.0570
19.6800 13.0893 0.0736
19.7000 13.1026 0.0665
19.7200 13.1159 0.0572
19.7400 13.1293 0.0718
19.7600 13.1426 0.0696
19.7800 13.1559 0.0608
19.8000 13.1693 0.0733
19.8200 13.1827 0.0661
19.8400 13.1960 0.0618
19.8600 13.2094 0.0726
19.8800 13.2227 0.0658
19.9000 13.2360 0.0619
19.9200 13.2494 0.0733
19.9400 13.2627 0.0607
19.9600 13.2760 0.0591
19.9800 13.2893 0.0723
20.0000 13.3027 0.0654
20.0200 13.3160 0.0554
20.0400 13.3293 0.0688
20.0600 13.3426 0.0613
20.0800 13.3559 0.0626
20.1000 13.3693 0.0681
20.1200 13.3827 0.0579
20.1400 13.3960 0.0590
20.1600 13.4093 0.0690
20.1800 13.4227 0.0605
20.2000 13.4360 0.0577
20.2200 13.4494 0.0661
20.2400 13.4627 0.0647
20.2600 13.4760 0.0566
20.2800 13.4894 0.0611
20.3000 13.5027 0.0673
20.3200 13.5160 0.0562
20.3400 13.5293 0.0601
20.3600 13.5427 0.0663
20.3800 13.5560 0.0550
20.4000 13.5693 0.0588
20.4200 13.5826 0.0638
20.4400 13.5959 0.0562
20.4600 13.6093 0.0627
20.4800 13.6226 0.0648
20.5000 13.6360 0.0547
20.5200 13.6493 0.0619
20.5400 13.6627 0.0638
20.5600 13.6761 0.0510
20.5800 13.6894 0.0592
20.6000 13.7027 0.0643
20.6200 13.7160 0.0549
20.6400 13.7294 0.0596
20.6600 13.7427 0.0597
20.6800 13.7560 0.0522
20.7000 13.7693 0.0660
20.7200 13.7826 0.0607
20.7400 13.7960 0.0526
20.7600 13.8093 0.0641
20.7800 13.8226 0.0578
20.8000 13.8360 0.0541
20.8200 13.8493 0.0617
20.8400 13.8626 0.0581
20.8600 13.8759 0.0560
20.8800 13.8893 0.0573
20.9000 13.9026 0.0581
20.9200 13.9160 0.0556
20.9400 13.9294 0.0576
20.9600 13.9427 0.0596
20.9800 13.9560 0.0527
21.0000 13.9694 0.0537
21.0200 13.9828 0.0580
21.0400 13.9961 0.0493
21.0600 14.0093 0.0551
21.0800 14.0226 0.0588
21.1000 14.0360 0.0547
21.1200 14.0493 0.0525
21.1400 14.0626 0.0570
21.1600 14.0759 0.0559
21.1800 14.0893 0.0523
21.2000 14.1026 0.0558
21.2200 14.1160 0.0517
21.2400 14.1293 0.0521
21.2600 14.1426 0.0583
21.2800 14.1560 0.0488
21.3000 14.1694 0.0489
21.3200 14.1827 0.0591
21.3400 14.1960 0.0482
21.3600 14.2094 0.0502
21.3800 14.2227 0.0618
21.4000 14.2360 0.0466
21.4200 14.2493 0.0475
21.4400 14.2627 0.0649
21.4600 14.2760 0.0446
21.4800 14.2893 0.0493
21.5000 14.3026 0.0630
21.5200 14.3159 0.0445
21.5400 14.3292 0.0502
21.5600 14.3426 0.0587
21.5800 14.3559 0.0394
21.6000 14.3693 0.0549
21.6200 14.3826 0.0574
21.6400 14.3960 0.0367
21.6600 14.4094 0.0542
21.6800 14.4228 0.0592
21.7000 14.4361 0.0324
21.7200 14.4494 0.0591
21.7400 14.4627 0.0559
21.7600 14.4760 0.0358
21.7800 14.4893 0.0613
21.8000 14.5026 0.0554
21.8200 14.5159 0.0397
21.8400 14.5293 0.0571
21.8600 14.5426 0.0476
21.8800 14.5559 0.0425
21.9000 14.5693 0.0498
21.9200 14.5827 0.0467
21.9400 14.5960 0.0478
21.9600 14.6093 0.0516
21.9800 14.6227 0.0451
22.0000 14.6361 0.0500
22.0200 14.6494 0.0482
22.0400 14.6627 0.0432
22.0600 14.6760 0.0536
22.0800 14.6893 0.0452
22.1000 14.7027 0.0439
22.1200 14.7160 0.0497
22.1400 14.7293 0.0429
22.1600 14.7426 0.0500
22.1800 14.7560 0.0543
22.2000 14.7693 0.0383
22.2200 14.7826 0.0458
22.2400 14.7959 0.0534
22.2600 14.8093 0.0374
22.2800 14.8226 0.0487
22.3000 14.8360 0.0514
22.3200 14.8493 0.0379
22.3400 14.8627 0.0522
22.3600 14.8760 0.0485
22.3800 14.8894 0.0396
22.4000 14.9027 0.0536
22.4200 14.9160 0.0511
22.4400 14.9294 0.0368
22.4600 14.9428 0.0547
22.4800 14.9561 0.0468
22.5000 14.9694 0.0367
22.5200 14.9827 0.0592
22.5400 14.9960 0.0435
22.5600 15.0093 0.0371
22.5800 15.0226 0.0576
22.6000 15.0359 0.0411
22.6200 15.0493 0.0437
22.6400 15.0626 0.0540
22.6600 15.0760 0.0425
22.6800 15.0893 0.0417
22.7000 15.1026 0.0498
22.7200 15.1160 0.0411
22.7400 15.1294 0.0428
22.7600 15.1427 0.0470
22.7800 15.1560 0.0408
22.8000 15.1693 0.0468
22.8200 15.1827 0.0463
22.8400 15.1960 0.0381
22.8600 15.2093 0.0438
22.8800 15.2226 0.0463
22.9000 15.2360 0.0401
22.9200 15.2493 0.0425
22.9400 15.2626 0.0438
22.9600 15.2759 0.0427
22.9800 15.2893 0.0384
23.0000 15.3026 0.0435
23.0200 15.3160 0.0405
23.0400 15.3293 0.0375
23.0600 15.3426 0.0442
23.0800 15.3560 0.0417
23.1000 15.3694 0.0408
23.1200 15.3827 0.0407
23.1400 15.3960 0.0372
23.1600 15.4093 0.0436
23.1800 15.4227 0.0372
23.2000 15.4361 0.0352
23.2200 15.4494 0.0444
23.2400 15.4627 0.0405
23.2600 15.4760 0.0346
23.2800 15.4893 0.0445
23.3000 15.5026 0.0390
23.3200 15.5159 0.0361
23.3400 15.5292 0.0436
23.3600 15.5426 0.0362
23.3800 15.5560 0.0345
23.4000 15.5693 0.0426
23.4200 15.5827 0.0371
23.4400 15.5961 0.0331
23.4600 15.6094 0.0405
23.4800 15.6227 0.0327
23.5000 15.6360 0.0368
23.5200 15.6494 0.0383
23.5400 15.6627 0.0316
23.5600 15.6761 0.0404
23.5800 15.6894 0.0352
23.6000 15.7026 0.0301
23.6200 15.7160 0.0381
23.6400 15.7293 0.0382
23.6600 15.7426 0.0282
23.6800 15.7559 0.0346
23.7000 15.7693 0.0378
23.7200 15.7826 0.0280
23.7400 15.7959 0.0343
23.7600 15.8093 0.0380
23.7800 15.8226 0.0329
23.8000 15.8360 0.0347
23.8200 15.8494 0.0325
23.8400 15.8627 0.0311
23.8600 15.8760 0.0334
23.8800 15.8894 0.0309
23.9000 15.9027 0.0354
23.9200 15.9160 0.0308
23.9400 15.9293 0.0322
23.9600 15.9426 0.0338
23.9800 15.9559 0.0330
24.0000 15.9693 0.0282
24.0200 15.9826 0.0333
24.0400 15.9960 0.0262
24.0600 16.0093 0.0346
24.0800 16.0227 0.0271
24.1000 16.0360 0.0292
24.1200 16.0493 0.0330
24.1400 16.0627 0.0258
24.1600 16.0760 0.0316
24.1800 16.0893 0.0299
24.2000 16.1026 0.0245
24.2200 16.1159 0.0312
24.2400 16.1293 0.0287
24.2600 16.1427 0.0239
24.2800 16.1560 0.0301
24.3000 16.1694 0.0276
24.3200 16.1827 0.0276
24.3400 16.1960 0.0301
24.3600 16.2094 0.0249
24.3800 16.2227 0.0232
24.4000 16.2360 0.0340
24.4200 16.2493 0.0284
24.4400 16.2626 0.0238
24.4600 16.2760 0.0308
24.4800 16.2893 0.0248
24.5000 16.3026 0.0222
24.5200 16.3160 0.0300
24.5400 16.3293 0.0278
24.5600 16.3427 0.0197
24.5800 16.3560 0.0297
24.6000 16.3694 0.0261
24.6200 16.3827 0.0206
24.6400 16.3961 0.0292
24.6600 16.4094 0.0274
24.6800 16.4227 0.0209
24.7000 16.4360 0.0235
24.7200 16.4494 0.0298
24.7400 16.4627 0.0183
24.7600 16.4760 0.0258
24.7800 16.4893 0.0320
24.8000 16.5026 0.0165
24.8200 16.5159 0.0248
24.8400 16.5293 0.0316
24.8600 16.5426 0.0186
24.8800 16.5560 0.0265
24.9000 16.5694 0.0265
24.9200 16.5827 0.0219
24.9400 16.5960 0.0204
24.9600 16.6094 0.0283
24.9800 16.6227 0.0188
25.0000 16.6361 0.0213
25.0200 16.6494 0.0272
25.0400 16.6627 0.0175
25.0600 16.6760 0.0232
25.0800 16.6893 0.0254
25.1000 16.7026 0.0166
25.1200 16.7159 0.0225
25.1400 16.7293 0.0280
25.1600 16.7426 0.0140
25.1800 16.7560 0.0228
25.2000 16.7693 0.0260
25.2200 16.7826 0.0151
25.2400 16.7960 0.0253
25.2600 16.8093 0.0243
25.2800 16.8227 0.0166
25.3000 16.8360 0.0242
25.3200 16.8494 0.0265
25.3400 16.8627 0.0173
25.3600 16.8761 0.0202
25.3800 16.8894 0.0227
25.4000 16.9027 0.0180
25.4200 16.9160 0.0195
25.4400 16.9293 0.0211
25.4600 16.9426 0.0177
25.4800 16.9559 0.0198
25.5000 16.9692 0.0253
25.5200 16.9825 0.0172
25.5400 16.9959 0.0187
25.5600 17.0092 0.0224
25.5800 17.0226 0.0193
25.6000 17.0360 0.0161
25.6200 17.0494 0.0202
25.6400 17.0627 0.0149
25.6600 17.0760 0.0165
25.6800 17.0893 0.0229
25.7000 17.1027 0.0123
25.7200 17.1160 0.0200
25.7400 17.1293 0.0237
25.7600 17.1427 0.0067
25.7800 17.1560 0.0180
25.8000 17.1693 0.0207
25.8200 17.1827 0.0081
25.8400 17.1960 0.0178
25.8600 17.2093 0.0189
25.8800 17.2226 0.0061
25.9000 17.2360 0.0144
25.9200 17.2493 0.0198
25.9400 17.2626 0.0052
25.9600 17.2760 0.0124
25.9800 17.2894 0.0172
26.0000 17.3027 0.0059
26.0200 17.3160 0.0086
26.0400 17.3294 0.0148
26.0600 17.3427 0.0093
26.0800 17.3561 0.0115
26.1000 17.3694 0.0154
26.1200 17.3827 0.0054
26.1400 17.3960 0.0140
26.1600 17.4093 0.0148
26.1800 17.4226 0.0055
26.2000 17.4359 0.0143
26.2200 17.4493 0.0125
26.2400 17.4626 0.0083
26.2600 17.4760 0.0129
26.2800 17.4893 0.0116
26.3000 17.5027 0.0089
26.3200 17.5160 0.0124
26.3400 17.5293 0.0079
26.3600 17.5427 0.0082
26.3800 17.5560 0.0099
26.4000 17.5693 0.0121
26.4200 17.5827 0.0067
26.4400 17.5960 0.0061
26.4600 17.6094 0.0093
26.4800 17.6227 0.0076
26.5000 17.6360 0.0059
26.5200 17.6494 0.0086
26.5400 17.6627 0.0064
26.5600 17.6760 0.0047
26.5800 17.6892 0.0100
26.6000 17.7025 0.0072
26.6200 17.7159 -0.0021
26.6400 17.7292 0.0078
26.6600 17.7426 0.0052
26.6800 17.7560 0.0021
26.7000 17.7694 0.0108
26.7200 17.7827 -0.0012
26.7400 17.7961 -0.0014
26.7600 17.8094 0.0124
26.7800 17.8227 0.0017
26.8000 17.8361 0.0031
26.8200 17.8494 0.0112
26.8400 17.8627 -0.0050
26.8600 17.8760 0.0008
26.8800 17.8893 0.0114
26.9000 17.9026 -0.0040
26.9200 17.9159 -0.0005
26.9400 17.9292 0.0121
26.9600 17.9426 -0.0050
26.9800 17.9559 0.0030
27.0000 17.9693 0.0094
27.0200 17.9826 -0.0024
27.0400 17.9960 0.0037
27.0600 18.0094 0.0068
27.0800 18.0227 -0.0069
27.1000 18.0361 0.0035
27.1200 18.0494 0.0071
27.1400 18.0627 -0.0017
27.1600 18.0761 0.0036
27.1800 18.0894 0.0021
27.2000 18.1027 -0.0026
27.2200 18.1160 0.0036
27.2400 18.1293 -0.0030
27.2600 18.1427 -0.0013
27.2800 18.1560 0.0018
27.3000 18.1693 -0.0001
27.3200 18.1826 0.0016
27.3400 18.1960 0.0027
27.3600 18.2093 -0.0080
27.3800 18.2227 0.0004
27.4000 18.2360 -0.0022
27.4200 18.2494 -0.0036
27.4400 18.2627 -0.0002
27.4600 18.2760 -0.0059
27.4800 18.2894 -0.0023
27.5000 18.3027 -0.0022
27.5200 18.3161 -0.0073
27.5400 18.3294 -0.0028
27.5600 18.3427 -0.0045
27.5800 18.3560 -0.0095
27.6000 18.3694 -0.0006
27.6200 18.3827 -0.0068
27.6400 18.3960 -0.0106
27.6600 18.4093 0.0009
27.6800 18.4226 -0.0046
27.7000 18.4360 -0.0107
27.7200 18.4493 -0.0018
27.7400 18.4626 -0.0032
27.7600 18.4760 -0.0084
27.7800 18.4894 -0.0011
27.8000 18.5027 -0.0094
27.8200 18.5161 -0.0077
27.8400 18.5294 0.0009
27.8600 18.5427 -0.0070
27.8800 18.5560 -0.0081
27.9000 18.5693 -0.0068
27.9200 18.5826 -0.0088
27.9400 18.5960 -0.0095
27.9600 18.6093 -0.0052
27.9800 18.6227 -0.0136
28.0000 18.6360 -0.0088
28.0200 18.6493 -0.0074
28.0400 18.6626 -0.0139
28.0600 18.6760 -0.0108
28.0800 18.6893 -0.0087
28.1000 18.7026 -0.0111
28.1200 18.7160 -0.0074
28.1400 18.7293 -0.0091
28.1600 18.7427 -0.0109
28.1800 18.7561 -0.0117
28.2000 18.7694 -0.0098
28.2200 18.7827 -0.0068
28.2400 18.7961 -0.0120
28.2600 18.8094 -0.0154
28.2800 18.8227 -0.0072
28.3000 18.8360 -0.0139
28.3200 18.8493 -0.0141
28.3400 18.8627 -0.0113
28.3600 18.8760 -0.0134
28.3800 18.8893 -0.0108
28.4000 18.9026 -0.0118
28.4200 18.9159 -0.0134
28.4400 18.9293 -0.0116
28.4600 18.9426 -0.0123
28.4800 18.9560 -0.0171
28.5000 18.9693 -0.0136
28.5200 18.9827 -0.0125
28.5400 18.9960 -0.0193
28.5600 19.0093 -0.0182
28.5800 19.0227 -0.0146
28.6000 19.0360 -0.0180
28.6200 19.0494 -0.0183
28.6400 19.0627 -0.0178
28.6600 19.0760 -0.0187
28.6800 19.0893 -0.0153
28.7000 19.1027 -0.0170
28.7200 19.1160 -0.0197
28.7400 19.1293 -0.0192
28.7600 19.1426 -0.0148
28.7800 19.1559 -0.0214
28.8000 19.1692 -0.0253
28.8200 19.1826 -0.0162
28.8400 19.1960 -0.0198
28.8600 19.2094 -0.0217
28.8800 19.2228 -0.0188
28.9000 19.2361 -0.0234
28.9200 19.2494 -0.0196
28.9400 19.2627 -0.0203
28.9600 19.2761 -0.0204
28.9800 19.2894 -0.0206
29.0000 19.3027 -0.0229
29.0200 19.3159 -0.0168
29.0400 19.3292 -0.0214
29.0600 19.3426 -0.0212
29.0800 19.3559 -0.0180
29.1000 19.3693 -0.0222
29.1200 19.3826 -0.0240
29.1400 19.3960 -0.0193
29.1600 19.4093 -0.0310
29.1800 19.4227 -0.0235
29.2000 19.4360 -0.0180
29.2200 19.4494 -0.0275
29.2400 19.4627 -0.0216
29.2600 19.4761 -0.0222
29.2800 19.4893 -0.0293
29.3000 19.5027 -0.0192
29.3200 19.5160 -0.0166
29.3400 19.5293 -0.0314
29.3600 19.5427 -0.0204
29.3800 19.5560 -0.0186
29.4000 19.5693 -0.0277
29.4200 19.5827 -0.0267
29.4400 19.5960 -0.0199
29.4600 19.6093 -0.0293
29.4800 19.6226 -0.0235
29.5000 19.6360 -0.0212
29.5200 19.6493 -0.0304
29.5400 19.6626 -0.0267
29.5600 19.6760 -0.0211
29.5800 19.6893 -0.0324
29.6000 19.7027 -0.0308
29.6200 19.7160 -0.0242
29.6400 19.7293 -0.0310
29.6600 19.7426 -0.0288
29.6800 19.7560 -0.0234
29.7000 19.7693 -0.0339
29.7200 19.7827 -0.0311
29.7400 19.7960 -0.0257
29.7600 19.8093 -0.0351
29.7800 19.8227 -0.0292
29.8000 19.8360 -0.0271
29.8200 19.8493 -0.0365
29.8400 19.8626 -0.0318
29.8600 19.8759 -0.0282
29.8800 19.8893 -0.0366
29.9000 19.9026 -0.0331
29.9200 19.9160 -0.0207
29.9400 19.9293 -0.0383
29.9600 19.9427 -0.0354
29.9800 19.9561 -0.0269
30.0000 19.9694 -0.0445
30.0200 19.9827 -0.0318
30.0400 19.9961 -0.0285
30.0600 20.0094 -0.0465
30.0800 20.0227 -0.0330
30.1000 20.0359 -0.0275
30.1200 20.0493 -0.0476
30.1400 20.0627 -0.0288
30.1600 20.0760 -0.0337
30.1800 20.0893 -0.0512
30.2000 20.1026 -0.0269
30.2200 20.1160 -0.0402
30.2400 20.1293 -0.0478
30.2600 20.1426 -0.0304
30.2800 20.1559 -0.0402
30.3000 20.1693 -0.0480
30.3200 20.1827 -0.0351
30.3400 20.1960 -0.0442
30.3600 20.2093 -0.0445
30.3800 20.2227 -0.0340
30.4000 20.2360 -0.0462
30.4200 20.2494 -0.0463
30.4400 20.2627 -0.0388
30.4600 20.2760 -0.0454
30.4800 20.2893 -0.0445
30.5000 20.3027 -0.0388
30.5200 20.3160 -0.0455
30.5400 20.3293 -0.0428
30.5600 20.3426 -0.0441
30.5800 20.3559 -0.0431
30.6000 20.3693 -0.0468
30.6200 20.3826 -0.0435
30.6400 20.3960 -0.0426
30.6600 20.4094 -0.0451
30.6800 20.4227 -0.0457
30.7000 20.4361 -0.0454
30.7200 20.4494 -0.0245
30.7400 20.4627 0.0332
30.7600 20.4760 0.0912
30.7800 20.4894 0.1527
30.8000 20.5027 0.2074
30.8200 20.5160 0.2603
30.8400 20.5293 0.3083
30.8600 20.5426 0.3450
30.8800 20.5560 0.3794
30.9000 20.5693 0.4211
30.9200 20.5826 0.4428
30.9400 20.5959 0.4437
30.9600 20.6093 0.4463
30.9800 20.6226 0.4413
31.0000 20.6359 0.4505
31.0200 20.6493 0.4483
31.0400 20.6627 0.4459
31.0600 20.6761 0.4549
31.0800 20.6894 0.4526
31.1000 20.7027 0.4473
31.1200 20.7160 0.4623
31.1400 20.7294 0.4508
31.1600 20.7427 0.4531
31.1800 20.7560 0.4608
31.2000 20.7693 0.4500
31.2200 20.7826 0.4569
31.2400 20.7960 0.4632
31.2600 20.8093 0.4518
31.2800 20.8226 0.4600
31.3000 20.8360 0.4624
31.3200 20.8493 0.4538
31.3400 20.8627 0.4582
31.3600 20.8760 0.4604
31.3800 20.8894 0.4569
31.4000 20.9027 0.4590
31.4200 20.9160 0.4587
31.4400 20.9293 0.4609
31.4600 20.9426 0.4553
31.4800 20.9560 0.4593
31.5000 20.9693 0.4584
31.5200 20.9827 0.4525
31.5400 20.9960 0.4599
31.5600 21.0093 0.4614
31.5800 21.0227 0.4569
31.6000 21.0361 0.4580
31.6200 21.0494 0.4598
31.6400 21.0626 0.4543
31.6600 21.0760 0.4645
31.6800 21.0893 0.4600
31.7000 21.1026 0.4505
31.7200 21.1159 0.4625
31.7400 21.1293 0.4592
31.7600 21.1426 0.4538
31.7800 21.1560 0.4663
31.8000 21.1693 0.4601
31.8200 21.1827 0.4540
31.8400 21.1960 0.4663
31.8600 21.2094 0.4573
31.8800 21.2227 0.4560
31.9000 21.2360 0.4676
31.9200 21.2493 0.4576
31.9400 21.2627 0.4561
31.9600 21.2760 0.4666
31.9800 21.2893 0.4595
32.0000 21.3026 0.4604
32.0200 21.3159 0.4675
32.0400 21.3293 0.4578
32.0600 21.3426 0.4579
32.0800 21.3560 0.4641
32.1000 21.3693 0.4614
32.1200 21.3827 0.4540
32.1400 21.3960 0.4630
32.1600 21.4094 0.4613
32.1800 21.4227 0.4529
32.2000 21.4360 0.4647
32.2200 21.4494 0.4619
32.2400 21.4627 0.4490
32.2600 21.4760 0.4652
32.2800 21.4893 0.4606
32.3000 21.5026 0.4537
32.3200 21.5160 0.4624
32.3400 21.5293 0.4583
32.3600 21.5426 0.4541
32.3800 21.5559 0.4644
32.4000 21.5693 0.4514
32.4200 21.5826 0.4554
32.4400 21.5960 0.4684
32.4600 21.6093 0.4494
32.4800 21.6227 0.4586
32.5000 21.6360 0.4633
32.5200 21.6493 0.4533
32.5400 21.6627 0.4581
32.5600 21.6760 0.4602
32.5800 21.6894 0.4550
32.6000 21.7027 0.4566
32.6200 21.7160 0.4595
32.6400 21.7293 0.4536
32.6600 21.7427 0.4603
32.6800 21.7560 0.4605
32.7000 21.7693 0.4512
32.7200 21.7826 0.4623
32.7400 21.7959 0.4602
32.7600 21.8093 0.4538
32.7800 21.8226 0.4610
32.8000 21.8359 0.4556
32.8200 21.8493 0.4542
32.8400 21.8627 0.4616
32.8600 21.8761 0.4524
32.8800 21.8894 0.4540
32.9000 21.9027 0.4597
32.9200 21.9160 0.4538
32.9400 21.9294 0.4542
32.9600 21.9427 0.4575
32.9800 21.9560 0.4520
33.0000 21.9693 0.4579
33.0200 21.9827 0.4571
33.0400 21.9960 0.4493
33.0600 22.0094 0.4565
33.0800 22.0227 0.4545
33.1000 22.0360 0.4467
33.1200 22.0493 0.4574
33.1400 22.0626 0.4522
33.1600 22.0760 0.4473
33.1800 22.0893 0.4600
33.2000 22.1027 0.4490
33.2200 22.1160 0.4491
33.2400 22.1294 0.4583
33.2600 22.1427 0.4519
33.2800 22.1560 0.4495
33.3000 22.1694 0.4569
33.3200 22.1827 0.4509
33.3400 22.1960 0.4556
33.3600 22.2093 0.4527
33.3800 22.2226 0.4548
33.4000 22.2360 0.4526
33.4200 22.2493 0.4527
33.4400 22.2626 0.4512
33.4600 22.2759 0.4509
33.4800 22.2893 0.4558
33.5000 22.3026 0.4499
33.5200 22.3160 0.4478
33.5400 22.3293 0.4566
33.5600 22.3426 0.4516
33.5800 22.3560 0.4473
33.6000 22.3693 0.4541
33.6200 22.3826 0.4480
33.6400 22.3960 0.4464
33.6600 22.4094 0.4566
33.6800 22.4227 0.4457
33.7000 22.4361 0.4467
33.7200 22.4494 0.4545
33.7400 22.4627 0.4486
33.7600 22.4761 0.4460
33.7800 22.4893 0.4497
33.8000 22.5026 0.4457
33.8200 22.5159 0.4439
33.8400 22.5292 0.4487
33.8600 22.5426 0.4471
33.8800 22.5559 0.4463
33.9000 22.5693 0.4497
33.9200 22.5827 0.4457
33.9400 22.5961 0.4428
33.9600 22.6094 0.4492
33.9800 22.6227 0.4444
34.0000 22.6361 0.4447
34.0200 22.6494 0.4486
34.0400 22.6628 0.4444
34.0600 22.6761 0.4476
34.0800 22.6893 0.4504
34.1000 22.7026 0.4413
34.1200 22.7160 0.4463
34.1400 22.7293 0.4467
34.1600 22.7426 0.4456
34.1800 22.7559 0.4430
34.2000 22.7693 0.4454
34.2200 22.7826 0.4445
34.2400 22.7959 0.4420
34.2600 22.8093 0.4462
34.2800 22.8227 0.4454
34.3000 22.8361 0.4413
34.3200 22.8494 0.4424
34.3400 22.8627 0.4416
34.3600 22.8761 0.4468
34.3800 22.8894 0.4409
34.4000 22.9027 0.4426
34.4200 22.9160 0.4383
34.4400 22.9293 0.4447
34.4600 22.9426 0.4445
34.4800 22.9560 0.4404
34.5000 22.9693 0.4453
34.5200 22.9826 0.4397
34.5400 22.9959 0.4386
34.5600 23.0093 0.4424
34.5800 23.0226 0.4389
34.6000 23.0360 0.4371
34.6200 23.0493 0.4388
34.6400 23.0626 0.4372
34.6600 23.0760 0.4354
34.6800 23.0893 0.4370
34.7000 23.1027 0.4387
34.7200 23.1160 0.4409
34.7400 23.1294 0.4336
34.7600 23.1427 0.4370
34.7800 23.1560 0.4398
34.8000 23.1693 0.4347
34.8200 23.1827 0.4350
34.8400 23.1960 0.4355
34.8600 23.2093 0.4386
34.8800 23.2226 0.4359
34.9000 23.2359 0.4395
34.9200 23.2493 0.4354
34.9400 23.2626 0.4372
34.9600 23.2760 0.4378
34.9800 23.2893 0.4332
35.0000 23.3027 0.4380
35.0200 23.3160 0.4363
35.0400 23.3294 0.4277
35.0600 23.3427 0.4451
35.0800 23.3560 0.4366
35.1000 23.3694 0.4290
35.1200 23.3827 0.4393
35.1400 23.3960 0.4388
35.1600 23.4093 0.4300
35.1800 23.4226 0.4374
35.2000 23.4360 0.4368
35.2200 23.4493 0.4293
35.2400 23.4626 0.4405
35.2600 23.4759 0.4345
35.2800 23.4893 0.4293
35.3000 23.5026 0.4379
35.3200 23.5160 0.4333
35.3400 23.5293 0.4308
35.3600 23.5426 0.4388
35.3800 23.5560 0.4329
35.4000 23.5694 0.4277
35.4200 23.5827 0.4382
35.4400 23.5960 0.4280
35.4600 23.6094 0.4270
35.4800 23.6227 0.4379
35.5000 23.6361 0.4224
35.5200 23.6494 0.4294
35.5400 23.6627 0.4381
35.5600 23.6760 0.4140
35.5800 23.6893 0.4304
35.6000 23.7027 0.4405
35.6200 23.7160 0.4143
35.6400 23.7293 0.4299
35.6600 23.7426 0.4343
35.6800 23.7560 0.4133
35.7000 23.7693 0.4269
35.7200 23.7826 0.4332
35.7400 23.7960 0.4180
35.7600 23.8094 0.4311
35.7800 23.8227 0.4283
35.8000 23.8360 0.4151
35.8200 23.8493 0.4334
35.8400 23.8627 0.4271
35.8600 23.8760 0.4132
35.8800 23.8893 0.4363
35.9000 23.9027 0.4253
35.9200 23.9160 0.4215
35.9400 23.9293 0.4367
35.9600 23.9426 0.4232
35.9800 23.9559 0.4237
36.0000 23.9692 0.4318
36.0200 23.9826 0.4181
36.0400 23.9959 0.4263
36.0600 24.0093 0.4300
36.0800 24.0226 0.4211
36.1000 24.0360 0.4289
36.1200 24.0494 0.4274
36.1400 24.0628 0.4200
36.1600 24.0761 0.4310
36.1800 24.0894 0.4270
36.2000 24.1027 0.4189
36.2200 24.1160 0.4342
36.2400 24.1293 0.4228
36.2600 24.1426 0.4233
36.2800 24.1559 0.4323
36.3000 24.1693 0.4164
36.3200 24.1826 0.4198
36.3400 24.1959 0.4308
36.3600 24.2093 0.4142
36.3800 24.2227 0.4224
36.4000 24.2360 0.4281
36.4200 24.2494 0.4118
36.4400 24.2627 0.4216
36.4600 24.2761 0.4255
36.4800 24.2894 0.4161
36.5000 24.3027 0.4200
36.5200 24.3160 0.4193
36.5400 24.3293 0.4168
36.5600 24.3427 0.4212
36.5800 24.3560 0.4228
36.6000 24.3693 0.4132
36.6200 24.3826 0.4231
36.6400 24.3960 0.4175
36.6600 24.4093 0.4130
36.6800 24.4226 0.4221
36.7000 24.4359 0.4207
36.7200 24.4493 0.4129
36.7400 24.4627 0.4171
36.7600 24.4760 0.4178
36.7800 24.4893 0.4136
36.8000 24.5027 0.4206
36.8200 24.5160 0.4182
36.8400 24.5294 0.4107
36.8600 24.5427 0.4171
36.8800 24.5560 0.4172
36.9000 24.5693 0.4161
36.9200 24.5827 0.4166
36.9400 24.5961 0.4162
36.9600 24.6094 0.4160
36.9800 24.6227 0.4166
37.0000 24.6360 0.4165
37.0200 24.6493 0.4157
37.0400 24.6626 0.4138
37.0600 24.6759 0.4140
37.0800 24.6893 0.4168
37.1000 24.7026 0.4144
37.1200 24.7160 0.4168
37.1400 24.7293 0.4129
37.1600 24.7426 0.4118
37.1800 24.7560 0.4155
37.2000 24.7694 0.4097
37.2200 24.7827 0.4101
37.2400 24.7960 0.4198
37.2600 24.8094 0.4096
37.2800 24.8227 0.4070
37.3000 24.8360 0.4186
37.3200 24.8493 0.4050
37.3400 24.8626 0.4079
37.3600 24.8760 0.4158
37.3800 24.8893 0.3996
37.4000 24.9027 0.4108
37.4200 24.9160 0.4158
37.4400 24.9293 0.4040
37.4600 24.9426 0.4116
37.4800 24.9560 0.4076
37.5000 24.9693 0.4053
37.5200 24.9826 0.4100
37.5400 24.9960 0.4100
37.5600 25.0094 0.4059
37.5800 25.0227 0.4069
37.6000 25.0360 0.4103
37.6200 25.0494 0.4045
37.6400 25.0627 0.4050
37.6600 25.0761 0.4047
37.6800 25.0894 0.4061
37.7000 25.1027 0.4052
37.7200 25.1160 0.4078
37.7400 25.1293 0.4044
37.7600 25.1426 0.4053
37.7800 25.1559 0.4092
37.8000 25.1692 0.4042
37.8200 25.1826 0.4039
37.8400 25.1959 0.4116
37.8600 25.2093 0.4042
37.8800 25.2227 0.4048
37.9000 25.2360 0.4149
37.9200 25.2494 0.4043
37.9400 25.2627 0.4042
37.9600 25.2760 0.4130
37.9800 25.2894 0.4006
38.0000 25.3027 0.4080
38.0200 25.3161 0.4149
38.0400 25.3294 0.3949
38.0600 25.3427 0.4088
38.0800 25.3560 0.4118
38.1000 25.3693 0.3927
38.1200 25.3827 0.4066
38.1400 25.3959 0.4126
38.1600 25.4093 0.3918
38.1800 25.4226 0.4057
38.2000 25.4359 0.4078
38.2200 25.4493 0.3926
38.2400 25.4626 0.4059
38.2600 25.4760 0.3975
38.2800 25.4893 0.3927
38.3000 25.5027 0.4061
38.3200 25.5160 0.3964
38.3400 25.5293 0.3955
38.3600 25.5427 0.4004
38.3800 25.5560 0.3976
38.4000 25.5693 0.3991
38.4200 25.5826 0.3997
38.4400 25.5959 0.3966
38.4600 25.6093 0.3967
38.4800 25.6226 0.3969
38.5000 25.6360 0.3944
38.5200 25.6493 0.4010
38.5400 25.6627 0.3974
38.5600 25.6760 0.3900
38.5800 25.6894 0.4004
38.6000 25.7027 0.3970
38.6200 25.7160 0.3964
38.6400 25.7293 0.3971
38.6600 25.7427 0.3996
38.6800 25.7560 0.3990
38.7000 25.7693 0.3954
38.7200 25.7827 0.4017
38.7400 25.7960 0.3992
38.7600 25.8094 0.3924
38.7800 25.8227 0.3985
38.8000 25.8360 0.3994
38.8200 25.8494 0.3930
38.8400 25.8627 0.3971
38.8600 25.8760 0.3976
38.8800 25.8893 0.3925
38.9000 25.9026 0.3977
38.9200 25.9160 0.3953
38.9400 25.9293 0.3913
38.9600 25.9426 0.4022
38.9800 25.9560 0.3911
39.0000 25.9693 0.3916
39.0200 25.9827 0.3972
39.0400 25.9960 0.3969
39.0600 26.0093 0.3951
39.0800 26.0227 0.3959
39.1000 26.0360 0.3973
39.1200 26.0493 0.3908
39.1400 26.0627 0.3978
39.1600 26.0760 0.3963
39.1800 26.0893 0.3921
39.2000 26.1027 0.3980
39.2200 26.1160 0.3988
39.2400 26.1293 0.3918
39.2600 26.1426 0.3933
39.2800 26.1559 0.3985
39.3000 26.1693 0.3935
39.3200 26.1826 0.3971
39.3400 26.1960 0.3922
39.3600 26.2094 0.3929
39.3800 26.2227 0.3999
39.4000 26.2360 0.3893
39.4200 26.2494 0.3927
39.4400 26.2627 0.3973
39.4600 26.2761 0.3897
39.4800 26.2894 0.3869
39.5000 26.3026 0.3945
39.5200 26.3160 0.3942
39.5400 26.3293 0.3864
39.5600 26.3426 0.3891
39.5800 26.3559 0.3935
39.6000 26.3693 0.3908
39.6200 26.3826 0.3905
39.6400 26.3960 0.3856
39.6600 26.4093 0.3890
39.6800 26.4227 0.3854
39.7000 26.4360 0.3874
39.7200 26.4494 0.3881
39.7400 26.4627 0.3891
39.7600 26.4760 0.3884
39.7800 26.4893 0.3852
39.8000 26.5027 0.3911
39.8200 26.5161 0.3866
39.8400 26.5294 0.3822
39.8600 26.5427 0.3902
39.8800 26.5560 0.3858
39.9000 26.5693 0.3871
39.9200 26.5826 0.3853
39.9400 26.5959 0.3880
39.9600 26.6092 0.3825
39.9800 26.6226 0.3857
40.0000 26.6359 0.3873
40.0200 26.6493 0.3783
40.0400 26.6626 0.3883
40.0600 26.6760 0.3834
40.0800 26.6894 0.3815
40.1000 26.7027 0.3868
40.1200 26.7160 0.3819
40.1400 26.7293 0.3782
40.1600 26.7427 0.3847
40.1800 26.7560 0.3801
40.2000 26.7693 0.3805
40.2200 26.7826 0.3879
40.2400 26.7960 0.3795
40.2600 26.8093 0.3783
40.2800 26.8227 0.3878
40.3000 26.8360 0.3753
40.3200 26.8493 0.3771
40.3400 26.8626 0.3871
40.3600 26.8760 0.3781
40.3800 26.8893 0.3763
40.4000 26.9026 0.3878
40.4200 26.9160 0.3791
40.4400 26.9294 0.3796
40.4600 26.9427 0.3838
40.4800 26.9560 0.3736
40.5000 26.9693 0.3802
40.5200 26.9827 0.3840
40.5400 26.9961 0.3733
40.5600 27.0094 0.3801
40.5800 27.0227 0.3822
40.6000 27.0360 0.3732
40.6200 27.0493 0.3754
40.6400 27.0626 0.3833
40.6600 27.0760 0.3699
40.6800 27.0893 0.3779
40.7000 27.1026 0.3789
40.7200 27.1160 0.3712
40.7400 27.1293 0.3765
40.7600 27.1426 0.3779
40.7800 27.1560 0.3708
40.8000 27.1693 0.3759
40.8200 27.1827 0.3698
40.8400 27.1960 0.3729
40.8600 27.2093 0.3786
40.8800 27.2227 0.3731
40.9000 27.2360 0.3739
40.9200 27.2494 0.3696
40.9400 27.2627 0.3736
40.9600 27.2760 0.3748
40.9800 27.2894 0.3667
41.0000 27.3027 0.3680
41.0200 27.3160 0.3748
41.0400 27.3293 0.3707
41.0600 27.3426 0.3681
41.0800 27.3559 0.3719
41.1000 27.3692 0.3674
41.1200 27.3826 0.3664
41.1400 27.3959 0.3692
41.1600 27.4094 0.3647
41.1800 27.4227 0.3682
41.2000 27.4361 0.3686
41.2200 27.4494 0.3633
41.2400 27.4627 0.3680
41.2600 27.4761 0.3694
41.2800 27.4894 0.3621
41.3000 27.5027 0.3721
41.3200 27.5160 0.3679
41.3400 27.5293 0.3656
41.3600 27.5427 0.3747
41.3800 27.5560 0.3662
41.4000 27.5693 0.3668
41.4200 27.5826 0.3742
41.4400 27.5959 0.3677
41.4600 27.6093 0.3675
41.4800 27.6226 0.3738
41.5000 27.6360 0.3700
41.5200 27.6494 0.3631
41.5400 27.6627 0.3799
41.5600 27.6761 0.3701
41.5800 27.6894 0.3665
41.6000 27.7027 0.3783
41.6200 27.7160 0.3629
41.6400 27.7294 0.3675
41.6600 27.7427 0.3828
41.6800 27.7560 0.3657
41.7000 27.7693 0.3678
41.7200 27.7827 0.3773
41.7400 27.7960 0.3642
41.7600 27.8093 0.3726
41.7800 27.8226 0.3770
41.8000 27.8360 0.3662
41.8200 27.8493 0.3690
41.8400 27.8627 0.3713
41.8600 27.8760 0.3645
41.8800 27.8894 0.3757
41.9000 27.9027 0.3680
41.9200 27.9160 0.3624
41.9400 27.9293 0.3725
41.9600 27.9427 0.3726
41.9800 27.9560 0.3632
42.0000 27.9694 0.3682
42.0200 27.9827 0.3718
42.0400 27.9960 0.3596
42.0600 28.0093 0.3658
42.0800 28.0227 0.3697
42.1000 28.0360 0.3600
42.1200 28.0493 0.3668
42.1400 28.0626 0.3633
42.1600 28.0759 0.3610
42.1800 28.0893 0.3630
42.2000 28.1026 0.3652
42.2200 28.1160 0.3605
42.2400 28.1294 0.3604
42.2600 28.1427 0.3653
42.2800 28.1561 0.3592
42.3000 28.1694 0.3579
42.3200 28.1827 0.3671
42.3400 28.1960 0.3569
42.3600 28.2093 0.3558
42.3800 28.2226 0.3672
42.4000 28.2359 0.3536
42.4200 28.2493 0.3560
42.4400 28.2627 0.3671
42.4600 28.2760 0.3517
42.4800 28.2893 0.3557
42.5000 28.3027 0.3696
42.5200 28.3160 0.3506
42.5400 28.3293 0.3542
42.5600 28.3426 0.3691
42.5800 28.3559 0.3472
42.6000 28.3693 0.3565
42.6200 28.3827 0.3666
42.6400 28.3960 0.3471
42.6600 28.4094 0.3577
42.6800 28.4227 0.3636
42.7000 28.4361 0.3481
42.7200 28.4494 0.3599
42.7400 28.4627 0.3642
42.7600 28.4760 0.3516
42.7800 28.4893 0.3617
42.8000 28.5027 0.3592
42.8200 28.5160 0.3506
42.8400 28.5293 0.3596
42.8600 28.5426 0.3589
42.8800 28.5560 0.3521
42.9000 28.5693 0.3581
42.9200 28.5826 0.3596
42.9400 28.5960 0.3535
42.9600 28.6093 0.3580
42.9800 28.6227 0.3556
43.0000 28.6360 0.3548
43.0200 28.6493 0.3567
43.0400 28.6627 0.3582
43.0600 28.6760 0.3574
43.0800 28.6894 0.3548
43.1000 28.7027 0.3556
43.1200 28.7160 0.3573
43.1400 28.7293 0.3588
43.1600 28.7427 0.3576
43.1800 28.7560 0.3586
43.2000 28.7693 0.3561
43.2200 28.7826 0.3558
43.2400 28.7959 0.3575
43.2600 28.8093 0.3559
43.2800 28.8226 0.3566
43.3000 28.8359 0.3580
43.3200 28.8493 0.3574
43.3400 28.8627 0.3574
43.3600 28.8761 0.3556
43.3800 28.8894 0.3546
43.4000 28.9028 0.3621
43.4200 28.9161 0.3576
43.4400 28.9294 0.3510
43.4600 28.9427 0.3645
43.4800 28.9559 0.3551
43.5000 28.9692 0.3470
43.5200 28.9826 0.3690
43.5400 28.9959 0.3499
43.5600 29.0093 0.3520
43.5800 29.0226 0.3621
43.6000 29.0360 0.3543
43.6200 29.0494 0.3511
43.6400 29.0627 0.3591
43.6600 29.0760 0.3527
43.6800 29.0894 0.3503
43.7000 29.1027 0.3587
43.7200 29.1161 0.3497
43.7400 29.1294 0.3513
43.7600 29.1427 0.3608
43.7800 29.1560 0.3484
43.8000 29.1694 0.3524
43.8200 29.1827 0.3528
43.8400 29.1960 0.3527
43.8600 29.2093 0.3548
43.8800 29.2226 0.3564
43.9000 29.2360 0.3500
43.9200 29.2493 0.3509
43.9400 29.2626 0.3569
43.9600 29.2759 0.3453
43.9800 29.2893 0.3491
44.0000 29.3026 0.3588
44.0200 29.3160 0.3465
44.0400 29.3293 0.3531
44.0600 29.3427 0.3608
44.0800 29.3560 0.3462
44.1000 29.3694 0.3456
44.1200 29.3827 0.3569
44.1400 29.3960 0.3437
44.1600 29.4094 0.3481
44.1800 29.4227 0.3599
44.2000 29.4360 0.3383
44.2200 29.4493 0.3532
44.2400 29.4627 0.3610
44.2600 29.4760 0.3366
44.2800 29.4893 0.3517
44.3000 29.5026 0.3580
44.3200 29.5159 0.3369
44.3400 29.5293 0.3493
44.3600 29.5426 0.3564
44.3800 29.5560 0.3394
44.4000 29.5693 0.3481
44.4200 29.5827 0.3528
44.4400 29.5960 0.3385
44.4600 29.6094 0.3532
44.4800 29.6227 0.3489
44.5000 29.6360 0.3424
44.5200 29.6494 0.3521
44.5400 29.6627 0.3480
44.5600 29.6760 0.3421
44.5800 29.6893 0.3512
44.6000 29.7027 0.3477
44.6200 29.7160 0.3407
44.6400 29.7293 0.3460
44.6600 29.7426 0.3476
44.6800 29.7559 0.3377
44.7000 29.7693 0.3455
44.7200 29.7826 0.3457
44.7400 29.7960 0.3352
44.7600 29.8093 0.3446
44.7800 29.8227 0.3425
44.8000 29.8360 0.3285
44.8200 29.8493 0.3452
44.8400 29.8627 0.3387
44.8600 29.8760 0.3304
44.8800 29.8894 0.3432
44.9000 29.9027 0.3350
44.9200 29.9160 0.3333
44.9400 29.9293 0.3385
44.9600 29.9427 0.3334
44.9800 29.9560 0.3327
45.0000 29.9693 0.3374
45.0200 29.9826 0.3322
45.0400 29.9959 0.3336
45.0600 30.0093 0.3366
45.0800 30.0226 0.3306
45.1000 30.0360 0.3328
45.1200 30.0493 0.3360
45.1400 30.0627 0.3294
45.1600 30.0761 0.3325
45.1800 30.0894 0.3308
45.2000 30.1027 0.3364
45.2200 30.1160 0.3306
45.2400 30.1294 0.3318
45.2600 30.1427 0.3363
45.2800 30.1560 0.3311
45.3000 30.1693 0.3278
45.3200 30.1826 0.3386
45.3400 30.1960 0.3292
45.3600 30.2093 0.3331
45.3800 30.2226 0.3357
45.4000 30.2359 0.3291
45.4200 30.2493 0.3323
45.4400 30.2626 0.3369
45.4600 30.2760 0.3317
45.4800 30.2893 0.3296
45.5000 30.3027 0.3353
45.5200 30.3161 0.3258
45.5400 30.3294 0.3282
45.5600 30.3427 0.3305
45.5800 30.3560 0.3279
45.6000 30.3694 0.3281
45.6200 30.3827 0.3276
45.6400 30.3960 0.3269
45.6600 30.4093 0.3281
45.6800 30.4226 0.3327
45.7000 30.4359 0.3257
45.7200 30.4493 0.3257
45.7400 30.4626 0.3283
45.7600 30.4760 0.3243
45.7800 30.4893 0.3284
45.8000 30.5027 0.3241
45.8200 30.5160 0.3260
45.8400 30.5293 0.3269
45.8600 30.5427 0.3228
45.8800 30.5560 0.3269
45.9000 30.5693 0.3271
45.9200 30.5826 0.3237
45.9400 30.5960 0.3244
45.9600 30.6093 0.3301
45.9800 30.6227 0.3253
46.0000 30.6360 0.3219
46.0200 30.6494 0.3322
46.0400 30.6627 0.3249
46.0600 30.6761 0.3265
46.0800 30.6894 0.3261
46.1000 30.7026 0.3281
46.1200 30.7160 0.3234
46.1400 30.7293 0.3226
46.1600 30.7426 0.3290
46.1800 30.7559 0.3232
46.2000 30.7693 0.3266
46.2200 30.7826 0.3287
46.2400 30.7960 0.3203
46.2600 30.8093 0.3237
46.2800 30.8227 0.3298
46.3000 30.8360 0.3242
46.3200 30.8494 0.3244
46.3400 30.8627 0.3261
46.3600 30.8760 0.3217
46.3800 30.8894 0.3302
46.4000 30.9027 0.3274
46.4200 30.9160 0.3185
46.4400 30.9294 0.3267
46.4600 30.9426 0.3242
46.4800 30.9559 0.3254
46.5000 30.9693 0.3271
46.5200 30.9826 0.3223
46.5400 30.9959 0.3229
46.5600 31.0093 0.3224
46.5800 31.0227 0.3224
46.6000 31.0360 0.3213
46.6200 31.0494 0.3214
46.6400 31.0627 0.3228
46.6600 31.0760 0.3156
46.6800 31.0894 0.3225
46.7000 31.1027 0.3217
46.7200 31.1160 0.3190
46.7400 31.1293 0.3231
46.7600 31.1427 0.3232
46.7800 31.1560 0.3162
46.8000 31.1693 0.3208
46.8200 31.1826 0.3192
46.8400 31.1959 0.3163
46.8600 31.2093 0.3235
46.8800 31.2227 0.3248
46.9000 31.2360 0.3120
46.9200 31.2493 0.3251
46.9400 31.2627 0.3252
46.9600 31.2760 0.3186
46.9800 31.2894 0.3268
47.0000 31.3027 0.3228
47.0200 31.3160 0.3134
47.0400 31.3294 0.3309
47.0600 31.3427 0.3226
47.0800 31.3560 0.3183
47.1000 31.3693 0.3330
47.1200 31.3827 0.3193
47.1400 31.3960 0.3193
47.1600 31.4093 0.3321
47.1800 31.4226 0.3234
47.2000 31.4359 0.3219
47.2200 31.4493 0.3338
47.2400 31.4626 0.3197
47.2600 31.4760 0.3234
47.2800 31.4893 0.3323
47.3000 31.5027 0.3199
47.3200 31.5160 0.3238
47.3400 31.5294 0.3304
47.3600 31.5427 0.3213
47.3800 31.5560 0.3206
47.4000 31.5693 0.3290
47.4200 31.5827 0.3185
47.4400 31.5960 0.3202
47.4600 31.6093 0.3290
47.4800 31.6226 0.3180
47.5000 31.6360 0.3201
47.5200 31.6493 0.3248
47.5400 31.6626 0.3184
47.5600 31.6760 0.3171
47.5800 31.6893 0.3260
47.6000 31.7027 0.3184
47.6200 31.7160 0.3187
47.6400 31.7293 0.3237
47.6600 31.7427 0.3186
47.6800 31.7561 0.3123
47.7000 31.7694 0.3241
47.7200 31.7827 0.3201
47.7400 31.7960 0.3186
47.7600 31.8094 0.3170
47.7800 31.8227 0.3187
47.8000 31.8360 0.3195
47.8200 31.8493 0.3189
47.8400 31.8626 0.3198
47.8600 31.8760 0.3169
47.8800 31.8893 0.3210
47.9000 31.9026 0.3217
47.9200 31.9159 0.3163
47.9400 31.9293 0.3203
47.9600 31.9426 0.3181
47.9800 31.9560 0.3105
48.0000 31.9693 0.3207
48.0200 31.9826 0.3231
48.0400 31.9960 0.3081
48.0600 32.0093 0.3196
48.0800 32.0226 0.3177
48.1000 32.0360 0.3112
48.1200 32.0493 0.3244
48.1400 32.0627 0.3099
48.1600 32.0760 0.3125
48.1800 32.0894 0.3269
48.2000 32.1027 0.3107
48.2200 32.1161 0.3117
48.2400 32.1294 0.3244
48.2600 32.1426 0.3089
48.2800 32.1559 0.3133
48.3000 32.1692 0.3221
48.3200 32.1826 0.3091
48.3400 32.1959 0.3160
48.3600 32.2093 0.3143
48.3800 32.2226 0.3112
48.4000 32.2360 0.3131
48.4200 32.2494 0.3058
48.4400 32.2627 0.3149
48.4600 32.2760 0.3155
48.4800 32.2894 0.3093
48.5000 32.3028 0.3145
48.5200 32.3161 0.3110
48.5400 32.3293 0.3095
48.5600 32.3426 0.3162
48.5800 32.3560 0.3081
48.6000 32.3693 0.3115
48.6200 32.3826 0.3146
48.6400 32.3959 0.3050
48.6600 32.4093 0.3138
48.6800 32.4226 0.3132
48.7000 32.4360 0.3033
48.7200 32.4493 0.3125
48.7400 32.4626 0.3144
48.7600 32.4760 0.2994
48.7800 32.4894 0.3174
48.8000 32.5027 0.3100
48.8200 32.5161 0.2996
48.8400 32.5294 0.3160
48.8600 32.5427 0.3084
48.8800 32.5560 0.3020
48.9000 32.5693 0.3187
48.9200 32.5826 0.3055
48.9400 32.5960 0.3025
48.9600 32.6093 0.3178
48.9800 32.6226 0.3003
49.0000 32.6360 0.3079
49.0200 32.6493 0.3193
49.0400 32.6626 0.3010
49.0600 32.6760 0.3091
49.0800 32.6893 0.3080
49.1000 32.7027 0.3048
49.1200 32.7160 0.3111
49.1400 32.7294 0.3068
49.1600 32.7427 0.3003
49.1800 32.7560 0.3081
49.2000 32.7694 0.3088
49.2200 32.7827 0.3031
49.2400 32.7960 0.3106
49.2600 32.8093 0.3089
49.2800 32.8227 0.3043
49.3000 32.8360 0.3105
49.3200 32.8493 0.3026
49.3400 32.8626 0.3046
49.3600 32.8759 0.3116
49.3800 32.8892 0.3052
49.4000 32.9026 0.3033
49.4200 32.9160 0.3072
49.4400 32.9293 0.3078
49.4600 32.9427 0.3014
49.4800 32.9561 0.3059
49.5000 32.9694 0.3045
49.5200 32.9827 0.3046
49.5400 32.9960 0.3034
49.5600 33.0093 0.3058
49.5800 33.0227 0.3074
49.6000 33.0360 0.3042
49.6200 33.0493 0.3044
49.6400 33.0626 0.3107
49.6600 33.0760 0.3007
49.6800 33.0893 0.3098
49.7000 33.1026 0.3028
49.7200 33.1159 0.3004
49.7400 33.1293 0.3106
49.7600 33.1426 0.2983
49.7800 33.1560 0.3021
49.8000 33.1693 0.3128
49.8200 33.1826 0.2987
49.8400 33.1960 0.2990
49.8600 33.2094 0.3107
49.8800 33.2227 0.3016
49.9000 33.2360 0.2959
49.9200 33.2494 0.3053
49.9400 33.2627 0.2985
49.9600 33.2761 0.2990
49.9800 33.2894 0.3039
50.0000 33.3027 0.2940
50.0200 33.3160 0.2985
50.0400 33.3293 0.3002
50.0600 33.3427 0.2939
50.0800 33.3560 0.3042
50.1000 33.3693 0.2983
50.1200 33.3826 0.2947
50.1400 33.3960 0.3007
50.1600 33.4093 0.2955
50.1800 33.4226 0.2987
50.2000 33.4360 0.3049
50.2200 33.4494 0.2937
50.2400 33.4627 0.2952
50.2600 33.4760 0.3020
50.2800 33.4893 0.2909
50.3000 33.5027 0.2943
50.3200 33.5160 0.2972
50.3400 33.5294 0.2874
50.3600 33.5427 0.2973
50.3800 33.5560 0.2964
50.4000 33.5694 0.2830
50.4200 33.5827 0.2968
50.4400 33.5960 0.2901
50.4600 33.6093 0.2876
50.4800 33.6226 0.2949
50.5000 33.6359 0.2873
50.5200 33.6492 0.2858
50.5400 33.6626 0.2966
50.5600 33.6760 0.2871
50.5800 33.6894 0.2828
50.6000 33.7028 0.2938
50.6200 33.7161 0.2843
50.6400 33.7294 0.2843
50.6600 33.7427 0.2948
50.6800 33.7560 0.2871
50.7000 33.7693 0.2890
50.7200 33.7826 0.2956
50.7400 33.7959 0.2917
50.7600 33.8093 0.2840
50.7800 33.8226 0.2947
50.8000 33.8359 0.2915
50.8200 33.8493 0.2898
50.8400 33.8627 0.2907
50.8600 33.8760 0.2900
50.8800 33.8894 0.2895
50.9000 33.9027 0.2902
50.9200 33.9160 0.2896
50.9400 33.9294 0.2887
50.9600 33.9427 0.2878
50.9800 33.9560 0.2914
51.0000 33.9693 0.2930
51.0200 33.9826 0.2928
51.0400 33.9960 0.2863
51.0600 34.0093 0.2901
51.0800 34.0226 0.2959
51.1000 34.0360 0.2857
51.1200 34.0493 0.2874
51.1400 34.0626 0.2949
51.1600 34.0759 0.2922
51.1800 34.0892 0.2923
51.2000 34.1026 0.2931
51.2200 34.1160 0.2873
51.2400 34.1293 0.2922
51.2600 34.1427 0.2904
51.2800 34.1560 0.2892
51.3000 34.1694 0.2884
51.3200 34.1827 0.2900
51.3400 34.1960 0.2900
51.3600 34.2094 0.2905
51.3800 34.2227 0.2875
51.4000 34.2361 0.2929
51.4200 34.2494 0.2888
51.4400 34.2627 0.2855
51.4600 34.2760 0.2919
51.4800 34.2894 0.2869
51.5000 34.3027 0.2919
51.5200 34.3160 0.2939
51.5400 34.3293 0.2833
51.5600 34.3426 0.2920
51.5800 34.3560 0.2854
51.6000 34.3693 0.2818
51.6200 34.3826 0.2902
51.6400 34.3960 0.2859
51.6600 34.4094 0.2824
51.6800 34.4227 0.2853
51.7000 34.4361 0.2867
51.7200 34.4494 0.2866
51.7400 34.4627 0.2931
51.7600 34.4761 0.2876
51.7800 34.4893 0.2817
51.8000 34.5026 0.2921
51.8200 34.5160 0.2923
51.8400 34.5293 0.2843
51.8600 34.5427 0.2837
51.8800 34.5560 0.2932
51.9000 34.5693 0.2818
51.9200 34.5826 0.2832
51.9400 34.5960 0.2914
51.9600 34.6093 0.2868
51.9800 34.6226 0.2828
52.0000 34.6359 0.2911
52.0200 34.6493 0.2858
52.0400 34.6627 0.2837
52.0600 34.6760 0.2912
52.0800 34.6894 0.2858
52.1000 34.7027 0.2883
52.1200 34.7161 0.2889
52.1400 34.7294 0.2865
52.1600 34.7427 0.2860
52.1800 34.7560 0.2896
52.2000 34.7693 0.2850
52.2200 34.7826 0.2858
52.2400 34.7959 0.2905
52.2600 34.8093 0.2812
52.2800 34.8226 0.2858
52.3000 34.8360 0.2901
52.3200 34.8493 0.2807
52.3400 34.8626 0.2867
52.3600 34.8760 0.2895
52.3800 34.8894 0.2812
52.4000 34.9027 0.2834
52.4200 34.9160 0.2883
52.4400 34.9293 0.2805
52.4600 34.9427 0.2876
52.4800 34.9561 0.2886
52.5000 34.9694 0.2785
52.5200 34.9827 0.2894
52.5400 34.9960 0.2890
52.5600 35.0093 0.2756
52.5800 35.0227 0.2859
52.6000 35.0359 0.2856
52.6200 35.0493 0.2762
52.6400 35.0626 0.2948
52.6600 35.0760 0.2791
52.6800 35.0893 0.2776
52.7000 35.1026 0.2915
52.7200 35.1160 0.2750
52.7400 35.1294 0.2834
52.7600 35.1427 0.2854
52.7800 35.1560 0.2733
52.8000 35.1694 0.2891
52.8200 35.1827 0.2856
52.8400 35.1960 0.2738
52.8600 35.2093 0.2889
52.8800 35.2226 0.2814
52.9000 35.2359 0.2768
52.9200 35.2493 0.2870
52.9400 35.2626 0.2730
52.9600 35.2759 0.2835
52.9800 35.2893 0.2829
53.0000 35.3026 0.2726
53.0200 35.3160 0.2811
53.0400 35.3294 0.2786
53.0600 35.3427 0.2735
53.0800 35.3560 0.2863
53.1000 35.3694 0.2697
53.1200 35.3827 0.2719
53.1400 35.3960 0.2838
53.1600 35.4093 0.2690
53.1800 35.4226 0.2690
53.2000 35.4360 0.2829
53.2200 35.4493 0.2685
53.2400 35.4627 0.2709
53.2600 35.4760 0.2875
53.2800 35.4894 0.2629
53.3000 35.5027 0.2728
53.3200 35.5160 0.2805
53.3400 35.5293 0.2606
53.3600 35.5426 0.2763
53.3800 35.5560 0.2738
53.4000 35.5693 0.2631
53.4200 35.5826 0.2750
53.4400 35.5960 0.2686
53.4600 35.6093 0.2648
53.4800 35.6227 0.2738
53.5000 35.6360 0.2675
53.5200 35.6493 0.2682
53.5400 35.6627 0.2699
53.5600 35.6761 0.2655
53.5800 35.6894 0.2655
53.6000 35.7027 0.2748
53.6200 35.7160 0.2737
53.6400 35.7294 0.2623
53.6600 35.7427 0.2670
53.6800 35.7560 0.2702
53.7000 35.7693 0.2674
53.7200 35.7826 0.2671
53.7400 35.7959 0.2723
53.7600 35.8093 0.2658
53.7800 35.8226 0.2674
53.8000 35.8360 0.2668
53.8200 35.8493 0.2679
53.8400 35.8627 0.2630
53.8600 35.8760 0.2659
53.8800 35.8894 0.2649
53.9000 35.9027 0.2658
53.9200 35.9161 0.2653
53.9400 35.9294 0.2608
53.9600 35.9427 0.2656
53.9800 35.9560 0.2660
54.0000 35.9693 0.2593
54.0200 35.9827 0.2675
54.0400 35.9960 0.2651
54.0600 36.0093 0.2593
54.0800 36.0226 0.2657
54.1000 36.0360 0.2637
54.1200 36.0493 0.2613
54.1400 36.0626 0.2635
54.1600 36.0760 0.2608
54.1800 36.0893 0.2597
54.2000 36.1027 0.2626
54.2200 36.1160 0.2574
54.2400 36.1293 0.2593
54.2600 36.1427 0.2669
54.2800 36.1561 0.2565
54.3000 36.1694 0.2601
54.3200 36.1827 0.2630
54.3400 36.1960 0.2568
54.3600 36.2093 0.2641
54.3800 36.2227 0.2572
54.4000 36.2360 0.2524
54.4200 36.2493 0.2647
54.4400 36.2626 0.2572
54.4600 36.2760 0.2522
54.4800 36.2893 0.2608
54.5000 36.3026 0.2612
54.5200 36.3160 0.2586
54.5400 36.3294 0.2536
54.5600 36.3427 0.2594
54.5800 36.3561 0.2580
54.6000 36.3694 0.2522
54.6200 36.3827 0.2603
54.6400 36.3960 0.2623
54.6600 36.4094 0.2525
54.6800 36.4227 0.2608
54.7000 36.4360 0.2567
54.7200 36.4493 0.2562
54.7400 36.4627 0.2606
54.7600 36.4760 0.2539
54.7800 36.4893 0.2541
54.8000 36.5026 0.2629
54.8200 36.5160 0.2502
54.8400 36.5293 0.2536
54.8600 36.5426 0.2610
54.8800 36.5560 0.2495
54.9000 36.5693 0.2556
54.9200 36.5827 0.2569
54.9400 36.5960 0.2500
54.9600 36.6093 0.2595
54.9800 36.6227 0.2564
55.0000 36.6360 0.2482
55.0200 36.6494 0.2587
55.0400 36.6627 0.2557
55.0600 36.6760 0.2515
55.0800 36.6893 0.2596
55.1000 36.7026 0.2556
55.1200 36.7159 0.2534
55.1400 36.7292 0.2572
55.1600 36.7426 0.2559
55.1800 36.7560 0.2541
55.2000 36.7693 0.2532
55.2200 36.7826 0.2572
55.2400 36.7960 0.2538
55.2600 36.8093 0.2543
55.2800 36.8227 0.2572
55.3000 36.8360 0.2553
55.3200 36.8493 0.2543
55.3400 36.8626 0.2572
55.3600 36.8760 0.2507
55.3800 36.8894 0.2533
55.4000 36.9027 0.2587
55.4200 36.9160 0.2498
55.4400 36.9294 0.2548
55.4600 36.9427 0.2561
55.4800 36.9560 0.2447
55.5000 36.9693 0.2539
55.5200 36.9826 0.2565
55.5400 36.9959 0.2487
55.5600 37.0092 0.2498
55.5800 37.0226 0.2542
55.6000 37.0359 0.2493
55.6200 37.0493 0.2547
55.6400 37.0627 0.2554
55.6600 37.0761 0.2458
55.6800 37.0894 0.2575
55.7000 37.1027 0.2557
55.7200 37.1161 0.2488
55.7400 37.1294 0.2553
55.7600 37.1427 0.2555
55.7800 37.1560 0.2501
55.8000 37.1693 0.2561
55.8200 37.1827 0.2558
55.8400 37.1960 0.2501
55.8600 37.2093 0.2564
55.8800 37.2226 0.2530
55.9000 37.2359 0.2467
55.9200 37.2493 0.2547
55.9400 37.2626 0.2508
55.9600 37.2760 0.2483
55.9800 37.2893 0.2561
56.0000 37.3027 0.2513
56.0200 37.3161 0.2477
56.0400 37.3294 0.2506
56.0600 37.3427 0.2487
56.0800 37.3561 0.2497
56.1000 37.3694 0.2486
56.1200 37.3827 0.2460
56.1400 37.3960 0.2430
56.1600 37.4093 0.2461
56.1800 37.4227 0.2472
56.2000 37.4360 0.2417
56.2200 37.4493 0.2464
56.2400 37.4626 0.2485
56.2600 37.4759 0.2403
56.2800 37.4893 0.2443
56.3000 37.5026 0.2516
56.3200 37.5160 0.2424
56.3400 37.5293 0.2410
56.3600 37.5427 0.2494
56.3800 37.5560 0.2390
56.4000 37.5694 0.2434
56.4200 37.5827 0.2536
56.4400 37.5960 0.2384
56.4600 37.6094 0.2433
56.4800 37.6227 0.2509
56.5000 37.6360 0.2410
56.5200 37.6493 0.2421
56.5400 37.6627 0.2523
56.5600 37.6760 0.2397
56.5800 37.6893 0.2406
56.6000 37.7026 0.2516
56.6200 37.7159 0.2408
56.6400 37.7293 0.2421
56.6600 37.7426 0.2482
56.6800 37.7560 0.2409
56.7000 37.7693 0.2441
56.7200 37.7827 0.2446
56.7400 37.7960 0.2367
56.7600 37.8094 0.2425
56.7800 37.8227 0.2490
56.8000 37.8360 0.2353
56.8200 37.8494 0.2441
56.8400 37.8627 0.2418
56.8600 37.8760 0.2371
56.8800 37.8893 0.2405
56.9000 37.9027 0.2424
56.9200 37.9160 0.2363
56.9400 37.9293 0.2409
56.9600 37.9426 0.2405
56.9800 37.9560 0.2344
57.0000 37.9693 0.2423
57.0200 37.9826 0.2374
57.0400 37.9960 0.2343
57.0600 38.0093 0.2397
57.0800 38.0227 0.2380
57.1000 38.0361 0.2347
57.1200 38.0494 0.2358
57.1400 38.0627 0.2406
57.1600 38.0760 0.2358
57.1800 38.0894 0.2356
57.2000 38.1027 0.2388
57.2200 38.1160 0.2307
57.2400 38.1293 0.2346
57.2600 38.1427 0.2389
57.2800 38.1560 0.2320
57.3000 38.1693 0.2351
57.3200 38.1826 0.2342
57.3400 38.1959 0.2338
57.3600 38.2093 0.2296
57.3800 38.2226 0.2341
57.4000 38.2359 0.2353
57.4200 38.2493 0.2280
57.4400 38.2627 0.2356
57.4600 38.2760 0.2318
57.4800 38.2893 0.2300
57.5000 38.3027 0.2357
57.5200 38.3160 0.2358
57.5400 38.3294 0.2272
57.5600 38.3427 0.2332
57.5800 38.3560 0.2368
57.6000 38.3693 0.2312
57.6200 38.3827 0.2334
57.6400 38.3960 0.2336
57.6600 38.4093 0.2330
57.6800 38.4226 0.2346
57.7000 38.4359 0.2344
57.7200 38.4493 0.2319
57.7400 38.4626 0.2344
57.7600 38.4759 0.2336
57.7800 38.4893 0.2285
57.8000 38.5027 0.2352
57.8200 38.5161 0.2305
57.8400 38.5294 0.2243
57.8600 38.5427 0.2306
57.8800 38.5561 0.2293
57.9000 38.5694 0.2257
57.9200 38.5827 0.2338
57.9400 38.5959 0.2291
57.9600 38.6092 0.2249
57.9800 38.6226 0.2279
58.0000 38.6359 0.2231
58.0200 38.6493 0.2246
58.0400 38.6626 0.2282
58.0600 38.6760 0.2270
58.0800 38.6893 0.2236
58.1000 38.7027 0.2245
58.1200 38.7160 0.2257
58.1400 38.7294 0.2261
58.1600 38.7427 0.2219
58.1800 38.7561 0.2207
58.2000 38.7694 0.2238
58.2200 38.7827 0.2200
58.2400 38.7960 0.2203
58.2600 38.8094 0.2226
58.2800 38.8227 0.2183
58.3000 38.8360 0.2221
58.3200 38.8493 0.2213
58.3400 38.8627 0.2162
58.3600 38.8760 0.2211
58.3800 38.8893 0.2201
58.4000 38.9026 0.2124
58.4200 38.9160 0.2239
58.4400 38.9293 0.2167
58.4600 38.9427 0.2113
58.4800 38.9560 0.2203
58.5000 38.9693 0.2152
58.5200 38.9827 0.2108
58.5400 38.9961 0.2205
58.5600 39.0094 0.2076
58.5800 39.0227 0.2112
58.6000 39.0360 0.2186
58.6200 39.0494 0.2076
58.6400 39.0627 0.2096
58.6600 39.0760 0.2191
58.6800 39.0893 0.2089
58.7000 39.1026 0.2085
58.7200 39.1160 0.2129
58.7400 39.1293 0.2044
58.7600 39.1426 0.2111
58.7800 39.1559 0.2147
58.8000 39.1693 0.2025
58.8200 39.1826 0.2082
58.8400 39.1960 0.2120
58.8600 39.2093 0.2007
58.8800 39.2227 0.2090
58.9000 39.2361 0.2109
58.9200 39.2494 0.2033
58.9400 39.2627 0.2052
58.9600 39.2760 0.2123
58.9800 39.2894 0.2047
59.0000 39.3027 0.2035
59.0200 39.3160 0.2116
59.0400 39.3293 0.2068
59.0600 39.3427 0.2039
59.0800 39.3560 0.2087
59.1000 39.3693 0.2075
59.1200 39.3826 0.2097
59.1400 39.3959 0.2092
59.1600 39.4093 0.2075
59.1800 39.4226 0.2016
59.2000 39.4360 0.2133
59.2200 39.4493 0.2044
59.2400 39.4626 0.2074
59.2600 39.4760 0.2135
59.2800 39.4893 0.2062
59.3000 39.5027 0.2086
59.3200 39.5160 0.2101
59.3400 39.5294 0.2096
59.3600 39.5427 0.2085
59.3800 39.5560 0.2139
59.4000 39.5693 0.2111
59.4200 39.5826 0.2073
59.4400 39.5960 0.2151
59.4600 39.6093 0.2084
59.4800 39.6226 0.2093
59.5000 39.6359 0.2164
59.5200 39.6493 0.2134
59.5400 39.6626 0.2102
59.5600 39.6760 0.2179
59.5800 39.6893 0.2157
59.6000 39.7027 0.2114
59.6200 39.7161 0.2163
59.6400 39.7294 0.2147
59.6600 39.7427 0.2115
59.6800 39.7560 0.2157
59.7000 39.7694 0.2183
59.7200 39.7827 0.2072
59.7400 39.7960 0.2155
59.7600 39.8093 0.2173
59.7800 39.8227 0.2022
59.8000 39.8360 0.2116
59.8200 39.8493 0.2138
59.8400 39.8626 0.2030
59.8600 39.8759 0.2132
59.8800 39.8893 0.2076
59.9000 39.9026 0.1998
59.9200 39.9160 0.2120
59.9400 39.9293 0.2032
59.9600 39.9427 0.1961
59.9800 39.9561 0.2033
60.0000 39.9694 0.1945
60.0200 39.9827 0.1977
60.0400 39.9960 0.1968
60.0470 40.0005 0.1780
