Raw Data
Time Displacement Force
(s) (mm) (N)
0.0000 0.0000 0.4260
0.0200 0.0001 0.4402
0.0400 0.0021 0.5168
0.0600 0.0098 0.5176
0.0800 0.0216 0.4281
0.1000 0.0340 0.4460
0.1200 0.0467 0.4735
0.1400 0.0602 0.4388
0.1600 0.0743 0.4480
0.1800 0.0885 0.4500
0.2000 0.1025 0.4310
0.2200 0.1160 0.4470
0.2400 0.1294 0.4489
0.2600 0.1427 0.4392
0.2800 0.1560 0.4569
0.3000 0.1694 0.4471
0.3200 0.1828 0.4325
0.3400 0.1961 0.4589
0.3600 0.2094 0.4472
0.3800 0.2228 0.4385
0.4000 0.2361 0.4589
0.4200 0.2494 0.4469
0.4400 0.2628 0.4419
0.4600 0.2761 0.4514
0.4800 0.2894 0.4472
0.5000 0.3028 0.4386
0.5200 0.3161 0.4437
0.5400 0.3294 0.4471
0.5600 0.3427 0.4396
0.5800 0.3561 0.4430
0.6000 0.3694 0.4427
0.6200 0.3828 0.4378
0.6400 0.3962 0.4445
0.6600 0.4095 0.4438
0.6800 0.4229 0.4406
0.7000 0.4362 0.4390
0.7200 0.4495 0.4484
0.7400 0.4628 0.4329
0.7600 0.4762 0.4395
0.7800 0.4895 0.4436
0.8000 0.5028 0.4262
0.8200 0.5161 0.4385
0.8400 0.5295 0.4391
0.8600 0.5428 0.4252
0.8800 0.5561 0.4365
0.9000 0.5694 0.4369
0.9200 0.5827 0.4277
0.9400 0.5961 0.4347
0.9600 0.6094 0.4297
0.9800 0.6228 0.4259
1.0000 0.6361 0.4381
1.0200 0.6495 0.4226
1.0400 0.6628 0.4269
1.0600 0.6762 0.4366
1.0800 0.6895 0.4189
1.1000 0.7028 0.4250
1.1200 0.7162 0.4306
1.1400 0.7295 0.4173
1.1600 0.7428 0.4298
1.1800 0.7561 0.4255
1.2000 0.7694 0.4210
1.2200 0.7828 0.4318
1.2400 0.7961 0.4248
1.2600 0.8094 0.4186
1.2800 0.8228 0.4286
1.3000 0.8361 0.4226
1.3200 0.8494 0.4203
1.3400 0.8628 0.4241
1.3600 0.8761 0.4150
1.3800 0.8895 0.4240
1.4000 0.9028 0.4201
1.4200 0.9161 0.4141
1.4400 0.9295 0.4243
1.4600 0.9428 0.4182
1.4800 0.9562 0.4109
1.5000 0.9695 0.4224
1.5200 0.9828 0.4141
1.5400 0.9961 0.4131
1.5600 1.0094 0.4213
1.5800 1.0228 0.4110
1.6000 1.0361 0.4078
1.6200 1.0494 0.4196
1.6400 1.0627 0.4039
1.6600 1.0761 0.4143
1.6800 1.0894 0.4164
1.7000 1.1028 0.4019
1.7200 1.1161 0.4139
1.7400 1.1295 0.4097
1.7600 1.1429 0.4041
1.7800 1.1562 0.4141
1.8000 1.1695 0.4076
1.8200 1.1828 0.4084
1.8400 1.1962 0.4122
1.8600 1.2095 0.4080
1.8800 1.2228 0.4047
1.9000 1.2361 0.4095
1.9200 1.2494 0.4085
1.9400 1.2628 0.4016
1.9600 1.2761 0.4077
1.9800 1.2894 0.4047
2.0000 1.3027 0.4078
2.0200 1.3161 0.4026
2.0400 1.3294 0.4035
2.0600 1.3428 0.4009
2.0800 1.3561 0.4020
2.1000 1.3695 0.4027
2.1200 1.3829 0.3958
2.1400 1.3962 0.3991
2.1600 1.4095 0.4032
2.1800 1.4228 0.3932
2.2000 1.4362 0.4013
2.2200 1.4495 0.3968
2.2400 1.4628 0.3846
2.2600 1.4761 0.4010
2.2800 1.4894 0.3984
2.3000 1.5027 0.3895
2.3200 1.5161 0.4002
2.3400 1.5294 0.3910
2.3600 1.5428 0.3924
2.3800 1.5561 0.3972
2.4000 1.5695 0.3877
2.4200 1.5828 0.3847
2.4400 1.5961 0.3956
2.4600 1.6095 0.3882
2.4800 1.6228 0.3838
2.5000 1.6361 0.3947
2.5200 1.6494 0.3861
2.5400 1.6628 0.3869
2.5600 1.6761 0.3932
2.5800 1.6895 0.3812
2.6000 1.7029 0.3848
2.6200 1.7162 0.3935
2.6400 1.7295 0.3812
2.6600 1.7428 0.3847
2.6800 1.7562 0.3882
2.7000 1.7695 0.3792
2.7200 1.7828 0.3849
2.7400 1.7961 0.3867
2.7600 1.8094 0.3815
2.7800 1.8228 0.3845
2.8000 1.8361 0.3816
2.8200 1.8494 0.3813
2.8400 1.8628 0.3790
2.8600 1.8762 0.3813
2.8800 1.8895 0.3777
2.9000 1.9028 0.3781
2.9200 1.9162 0.3802
2.9400 1.9295 0.3760
2.9600 1.9428 0.3756
2.9800 1.9561 0.3789
3.0000 1.9695 0.3723
3.0200 1.9828 0.3754
3.0400 1.9961 0.3767
3.0600 2.0094 0.3707
3.0800 2.0227 0.3734
3.1000 2.0361 0.3801
3.1200 2.0494 0.3653
3.1400 2.0628 0.3762
3.1600 2.0761 0.3778
3.1800 2.0895 0.3672
3.2000 2.1028 0.3750
3.2200 2.1162 0.3758
3.2400 2.1295 0.3640
3.2600 2.1429 0.3724
3.2800 2.1562 0.3731
3.3000 2.1695 0.3622
3.3200 2.1828 0.3694
3.3400 2.1961 0.3755
3.3600 2.2094 0.3622
3.3800 2.2228 0.3647
3.4000 2.2361 0.3747
3.4200 2.2494 0.3743
3.4400 2.2627 0.3636
3.4600 2.2761 0.3632
3.4800 2.2895 0.3640
3.5000 2.3028 0.3587
3.5200 2.3161 0.3634
3.5400 2.3295 0.3636
3.5600 2.3428 0.3553
3.5800 2.3562 0.3626
3.6000 2.3695 0.3569
3.6200 2.3828 0.3538
3.6400 2.3962 0.3662
3.6600 2.4096 0.3521
3.6800 2.4229 0.3473
3.7000 2.4362 0.3640
3.7200 2.4495 0.3541
3.7400 2.4628 0.3458
3.7600 2.4761 0.3676
3.7800 2.4894 0.3519
3.8000 2.5027 0.3479
3.8200 2.5160 0.3646
3.8400 2.5294 0.3482
3.8600 2.5427 0.3453
3.8800 2.5561 0.3582
3.9000 2.5694 0.3468
3.9200 2.5828 0.3460
3.9400 2.5962 0.3561
3.9600 2.6095 0.3417
3.9800 2.6228 0.3467
4.0000 2.6362 0.3557
4.0200 2.6495 0.3396
4.0400 2.6628 0.3545
4.0600 2.6761 0.3508
4.0800 2.6894 0.3409
4.1000 2.7028 0.3501
4.1200 2.7161 0.3462
4.1400 2.7294 0.3441
4.1600 2.7428 0.3486
4.1800 2.7561 0.3432
4.2000 2.7694 0.3355
4.2200 2.7827 0.3491
4.2400 2.7961 0.3440
4.2600 2.8094 0.3351
4.2800 2.8228 0.3476
4.3000 2.8362 0.3346
4.3200 2.8495 0.3296
4.3400 2.8628 0.3460
4.3600 2.8762 0.3371
4.3800 2.8895 0.3336
4.4000 2.9028 0.3421
4.4200 2.9161 0.3337
4.4400 2.9294 0.3384
4.4600 2.9428 0.3440
4.4800 2.9561 0.3286
4.5000 2.9694 0.3346
4.5200 2.9827 0.3404
4.5400 2.9961 0.3286
4.5600 3.0094 0.3373
4.5800 3.0228 0.3357
4.6000 3.0361 0.3295
4.6200 3.0494 0.3364
4.6400 3.0628 0.3310
4.6600 3.0761 0.3310
4.6800 3.0895 0.3295
4.7000 3.1028 0.3312
4.7200 3.1161 0.3324
4.7400 3.1295 0.3298
4.7600 3.1429 0.3274
4.7800 3.1562 0.3305
4.8000 3.1695 0.3237
4.8200 3.1829 0.3252
4.8400 3.1962 0.3332
4.8600 3.2095 0.3235
4.8800 3.2228 0.3283
4.9000 3.2360 0.3275
4.9200 3.2494 0.3170
4.9400 3.2627 0.3295
4.9600 3.2761 0.3298
4.9800 3.2894 0.3161
5.0000 3.3028 0.3321
5.0200 3.3162 0.3242
5.0400 3.3296 0.3132
5.0600 3.3429 0.3258
5.0800 3.3562 0.3190
5.1000 3.3696 0.3143
5.1200 3.3829 0.3294
5.1400 3.3961 0.3181
5.1600 3.4094 0.3143
5.1800 3.4228 0.3274
5.2000 3.4361 0.3156
5.2200 3.4494 0.3136
5.2400 3.4627 0.3250
5.2600 3.4761 0.3132
5.2800 3.4894 0.3179
5.3000 3.5028 0.3129
5.3200 3.5161 0.3130
5.3400 3.5294 0.3182
5.3600 3.5428 0.3136
5.3800 3.5562 0.3089
5.4000 3.5695 0.3109
5.4200 3.5829 0.3108
5.4400 3.5962 0.3085
5.4600 3.6095 0.3069
5.4800 3.6229 0.3064
5.5000 3.6361 0.3098
5.5200 3.6494 0.3141
5.5400 3.6628 0.3018
5.5600 3.6761 0.3054
5.5800 3.6894 0.3127
5.6000 3.7027 0.2994
5.6200 3.7161 0.3004
5.6400 3.7294 0.3074
5.6600 3.7428 0.3061
5.6800 3.7561 0.3009
5.7000 3.7694 0.3091
5.7200 3.7828 0.2970
5.7400 3.7962 0.2970
5.7600 3.8095 0.3057
5.7800 3.8228 0.2921
5.8000 3.8362 0.3041
5.8200 3.8495 0.3050
5.8400 3.8629 0.2904
5.8600 3.8762 0.3063
5.8800 3.8895 0.3046
5.9000 3.9028 0.2911
5.9200 3.9162 0.3042
5.9400 3.9295 0.2992
5.9600 3.9428 0.2889
5.9800 3.9561 0.3077
6.0000 3.9694 0.3008
6.0200 3.9828 0.2929
6.0400 3.9961 0.3059
6.0600 4.0094 0.2962
6.0800 4.0228 0.2952
6.1000 4.0362 0.3075
6.1200 4.0495 0.2933
6.1400 4.0628 0.2958
6.1600 4.0762 0.3017
6.1800 4.0895 0.2936
6.2000 4.1028 0.2972
6.2200 4.1161 0.2991
6.2400 4.1294 0.2957
6.2600 4.1428 0.2985
6.2800 4.1561 0.2960
6.3000 4.1695 0.2891
6.3200 4.1828 0.2987
6.3400 4.1961 0.2958
6.3600 4.2094 0.2857
6.3800 4.2228 0.2970
6.4000 4.2361 0.2903
6.4200 4.2494 0.2927
6.4400 4.2628 0.2913
6.4600 4.2762 0.2848
6.4800 4.2895 0.2907
6.5000 4.3028 0.2855
6.5200 4.3161 0.2852
6.5400 4.3295 0.2926
6.5600 4.3429 0.2822
6.5800 4.3562 0.2842
6.6000 4.3695 0.2918
6.6200 4.3828 0.2819
6.6400 4.3961 0.2887
6.6600 4.4095 0.2818
6.6800 4.4228 0.2742
6.7000 4.4361 0.2872
6.7200 4.4494 0.2833
6.7400 4.4628 0.2737
6.7600 4.4761 0.2878
6.7800 4.4894 0.2774
6.8000 4.5028 0.2732
6.8200 4.5162 0.2838
6.8400 4.5295 0.2701
6.8600 4.5428 0.2727
6.8800 4.5561 0.2856
6.9000 4.5695 0.2646
6.9200 4.5828 0.2730
6.9400 4.5961 0.2801
6.9600 4.6095 0.2664
6.9800 4.6228 0.2775
7.0000 4.6362 0.2775
7.0200 4.6495 0.2594
7.0400 4.6627 0.2788
7.0600 4.6760 0.2741
7.0800 4.6894 0.2650
7.1000 4.7027 0.2751
7.1200 4.7161 0.2670
7.1400 4.7294 0.2604
7.1600 4.7428 0.2725
7.1800 4.7562 0.2624
7.2000 4.7696 0.2649
7.2200 4.7829 0.2729
7.2400 4.7962 0.2659
7.2600 4.8096 0.2615
7.2800 4.8229 0.2729
7.3000 4.8361 0.2612
7.3200 4.8494 0.2664
7.3400 4.8627 0.2689
7.3600 4.8761 0.2587
7.3800 4.8894 0.2625
7.4000 4.9027 0.2621
7.4200 4.9161 0.2638
7.4400 4.9295 0.2597
7.4600 4.9428 0.2625
7.4800 4.9562 0.2632
7.5000 4.9695 0.2578
7.5200 4.9828 0.2617
7.5400 4.9962 0.2598
7.5600 5.0095 0.2563
7.5800 5.0228 0.2578
7.6000 5.0362 0.2593
7.6200 5.0495 0.2604
7.6400 5.0629 0.2569
7.6600 5.0761 0.2572
7.6800 5.0894 0.2556
7.7000 5.1028 0.2636
7.7200 5.1161 0.2548
7.7400 5.1294 0.2538
7.7600 5.1428 0.2586
7.7800 5.1561 0.2502
7.8000 5.1694 0.2502
7.8200 5.1828 0.2560
7.8400 5.1961 0.2533
7.8600 5.2094 0.2466
7.8800 5.2228 0.2550
7.9000 5.2362 0.2557
7.9200 5.2495 0.2454
7.9400 5.2628 0.2530
7.9600 5.2762 0.2524
7.9800 5.2895 0.2446
8.0000 5.3029 0.2533
8.0200 5.3162 0.2517
8.0400 5.3295 0.2441
8.0600 5.3428 0.2578
8.0800 5.3561 0.2495
8.1000 5.3695 0.2378
8.1200 5.3828 0.2559
8.1400 5.3961 0.2524
8.1600 5.4094 0.2409
8.1800 5.4228 0.2510
8.2000 5.4361 0.2479
8.2200 5.4494 0.2441
8.2400 5.4628 0.2561
8.2600 5.4762 0.2461
8.2800 5.4895 0.2422
8.3000 5.5029 0.2508
8.3200 5.5162 0.2467
8.3400 5.5295 0.2420
8.3600 5.5428 0.2519
8.3800 5.5562 0.2422
8.4000 5.5695 0.2418
8.4200 5.5828 0.2530
8.4400 5.5961 0.2432
8.4600 5.6095 0.2398
8.4800 5.6228 0.2501
8.5000 5.6361 0.2389
8.5200 5.6494 0.2403
8.5400 5.6628 0.2458
8.5600 5.6761 0.2347
8.5800 5.6894 0.2377
8.6000 5.7028 0.2469
8.6200 5.7162 0.2329
8.6400 5.7295 0.2358
8.6600 5.7428 0.2436
8.6800 5.7561 0.2329
8.7000 5.7695 0.2362
8.7200 5.7829 0.2423
8.7400 5.7962 0.2266
8.7600 5.8095 0.2358
8.7800 5.8228 0.2418
8.8000 5.8361 0.2225
8.8200 5.8495 0.2349
8.8400 5.8628 0.2390
8.8600 5.8761 0.2229
8.8800 5.8894 0.2315
8.9000 5.9028 0.2390
8.9200 5.9161 0.2224
8.9400 5.9295 0.2317
8.9600 5.9428 0.2359
8.9800 5.9562 0.2207
9.0000 5.9696 0.2300
9.0200 5.9828 0.2355
9.0400 5.9961 0.2212
9.0600 6.0095 0.2318
9.0800 6.0229 0.2310
9.1000 6.0362 0.2176
9.1200 6.0495 0.2271
9.1400 6.0628 0.2367
9.1600 6.0761 0.2197
9.1800 6.0894 0.2272
9.2000 6.1027 0.2297
9.2200 6.1160 0.2194
9.2400 6.1294 0.2274
9.2600 6.1427 0.2248
9.2800 6.1561 0.2173
9.3000 6.1694 0.2238
9.3200 6.1828 0.2248
9.3400 6.1962 0.2202
9.3600 6.2095 0.2224
9.3800 6.2229 0.2250
9.4000 6.2362 0.2183
9.4200 6.2495 0.2215
9.4400 6.2628 0.2207
9.4600 6.2762 0.2193
9.4800 6.2894 0.2183
9.5000 6.3027 0.2224
9.5200 6.3161 0.2203
9.5400 6.3294 0.2130
9.5600 6.3428 0.2224
9.5800 6.3561 0.2162
9.6000 6.3694 0.2156
9.6200 6.3828 0.2184
9.6400 6.3962 0.2135
9.6600 6.4095 0.2194
9.6800 6.4228 0.2205
9.7000 6.4362 0.2120
9.7200 6.4495 0.2155
9.7400 6.4628 0.2152
9.7600 6.4761 0.2146
9.7800 6.4894 0.2131
9.8000 6.5028 0.2131
9.8200 6.5162 0.2045
9.8400 6.5295 0.2159
9.8600 6.5428 0.2125
9.8800 6.5562 0.2104
9.9000 6.5695 0.2083
9.9200 6.5828 0.2099
9.9400 6.5961 0.2098
9.9600 6.6094 0.2030
9.9800 6.6228 0.2058
10.0000 6.6361 0.2123
10.0200 6.6494 0.2035
10.0400 6.6627 0.2027
10.0600 6.6761 0.2090
10.0800 6.6895 0.1976
10.1000 6.7028 0.2000
10.1200 6.7162 0.2090
10.1400 6.7295 0.1934
10.1600 6.7429 0.2025
10.1800 6.7562 0.2105
10.2000 6.7695 0.1907
10.2200 6.7828 0.2063
10.2400 6.7962 0.2078
10.2600 6.8095 0.1892
10.2800 6.8228 0.2093
10.3000 6.8361 0.2015
10.3200 6.8494 0.1923
10.3400 6.8628 0.2092
10.3600 6.8761 0.1956
10.3800 6.8894 0.1941
10.4000 6.9028 0.2047
10.4200 6.9161 0.1964
10.4400 6.9295 0.1931
10.4600 6.9429 0.2027
10.4800 6.9562 0.1932
10.5000 6.9695 0.1952
10.5200 6.9828 0.2015
10.5400 6.9962 0.1906
10.5600 7.0095 0.1978
10.5800 7.0228 0.2022
10.6000 7.0361 0.1892
10.6200 7.0495 0.1979
10.6400 7.0628 0.1999
10.6600 7.0761 0.1938
10.6800 7.0894 0.1947
10.7000 7.1028 0.1978
10.7200 7.1161 0.1899
10.7400 7.1294 0.1945
10.7600 7.1428 0.1956
10.7800 7.1561 0.1946
10.8000 7.1695 0.1919
10.8200 7.1828 0.1941
10.8400 7.1962 0.1921
10.8600 7.2095 0.1915
10.8800 7.2229 0.1878
10.9000 7.2362 0.1918
10.9200 7.2495 0.1910
10.9400 7.2628 0.1885
10.9600 7.2761 0.1925
10.9800 7.2895 0.1902
11.0000 7.3028 0.1876
11.0200 7.3161 0.1874
11.0400 7.3294 0.1850
11.0600 7.3427 0.1897
11.0800 7.3561 0.1878
11.1000 7.3694 0.1841
11.1200 7.3828 0.1860
11.1400 7.3962 0.1856
11.1600 7.4095 0.1827
11.1800 7.4229 0.1839
11.2000 7.4362 0.1846
11.2200 7.4495 0.1807
11.2400 7.4628 0.1841
11.2600 7.4762 0.1758
11.2800 7.4895 0.1775
11.3000 7.5028 0.1864
11.3200 7.5161 0.1789
11.3400 7.5295 0.1707
11.3600 7.5428 0.1840
11.3800 7.5561 0.1769
11.4000 7.5694 0.1718
11.4200 7.5828 0.1779
11.4400 7.5961 0.1761
11.4600 7.6094 0.1721
11.4800 7.6228 0.1790
11.5000 7.6361 0.1732
11.5200 7.6495 0.1702
11.5400 7.6628 0.1795
11.5600 7.6762 0.1722
11.5800 7.6895 0.1703
11.6000 7.7028 0.1782
11.6200 7.7162 0.1733
11.6400 7.7295 0.1715
11.6600 7.7428 0.1741
11.6800 7.7561 0.1725
11.7000 7.7694 0.1678
11.7200 7.7828 0.1748
11.7400 7.7961 0.1725
11.7600 7.8094 0.1704
11.7800 7.8228 0.1715
11.8000 7.8361 0.1706
11.8200 7.8494 0.1690
11.8400 7.8628 0.1723
11.8600 7.8761 0.1714
11.8800 7.8895 0.1653
11.9000 7.9028 0.1682
11.9200 7.9161 0.1733
11.9400 7.9294 0.1641
11.9600 7.9428 0.1641
11.9800 7.9562 0.1733
12.0000 7.9695 0.1608
12.0200 7.9828 0.1612
12.0400 7.9962 0.1718
12.0600 8.0095 0.1643
12.0800 8.0228 0.1616
12.1000 8.0361 0.1682
12.1200 8.0494 0.1599
12.1400 8.0627 0.1669
12.1600 8.0760 0.1658
12.1800 8.0894 0.1634
12.2000 8.1027 0.1682
12.2200 8.1161 0.1611
12.2400 8.1295 0.1605
12.2600 8.1429 0.1631
12.2800 8.1562 0.1599
12.3000 8.1695 0.1607
12.3200 8.1829 0.1602
12.3400 8.1962 0.1600
12.3600 8.2095 0.1579
12.3800 8.2228 0.1606
12.4000 8.2361 0.1579
12.4200 8.2495 0.1582
12.4400 8.2628 0.1580
12.4600 8.2761 0.1600
12.4800 8.2894 0.1610
12.5000 8.3027 0.1548
12.5200 8.3161 0.1575
12.5400 8.3294 0.1556
12.5600 8.3428 0.1530
12.5800 8.3561 0.1591
12.6000 8.3695 0.1502
12.6200 8.3829 0.1524
12.6400 8.3962 0.1559
12.6600 8.4095 0.1524
12.6800 8.4229 0.1513
12.7000 8.4362 0.1556
12.7200 8.4495 0.1473
12.7400 8.4628 0.1496
12.7600 8.4761 0.1546
12.7800 8.4895 0.1410
12.8000 8.5028 0.1497
12.8200 8.5161 0.1569
12.8400 8.5294 0.1446
12.8600 8.5427 0.1447
12.8800 8.5561 0.1611
12.9000 8.5695 0.1408
12.9200 8.5828 0.1489
12.9400 8.5961 0.1592
12.9600 8.6095 0.1398
12.9800 8.6229 0.1441
13.0000 8.6362 0.1535
13.0200 8.6495 0.1389
13.0400 8.6628 0.1431
13.0600 8.6762 0.1527
13.0800 8.6895 0.1443
13.1000 8.7028 0.1431
13.1200 8.7162 0.1515
13.1400 8.7295 0.1425
13.1600 8.7428 0.1469
13.1800 8.7561 0.1470
13.2000 8.7694 0.1419
13.2200 8.7827 0.1464
13.2400 8.7961 0.1444
13.2600 8.8095 0.1422
13.2800 8.8228 0.1454
13.3000 8.8361 0.1432
13.3200 8.8495 0.1400
13.3400 8.8629 0.1412
13.3600 8.8762 0.1421
13.3800 8.8895 0.1387
13.4000 8.9028 0.1405
13.4200 8.9162 0.1414
13.4400 8.9295 0.1437
13.4600 8.9428 0.1439
13.4800 8.9561 0.1379
13.5000 8.9694 0.1411
13.5200 8.9828 0.1407
13.5400 8.9961 0.1353
13.5600 9.0094 0.1415
13.5800 9.0228 0.1384
13.6000 9.0361 0.1324
13.6200 9.0494 0.1381
13.6400 9.0627 0.1416
13.6600 9.0761 0.1361
13.6800 9.0895 0.1369
13.7000 9.1028 0.1404
13.7200 9.1162 0.1331
13.7400 9.1295 0.1393
13.7600 9.1428 0.1369
13.7800 9.1562 0.1310
13.8000 9.1695 0.1405
13.8200 9.1828 0.1332
13.8400 9.1961 0.1302
13.8600 9.2094 0.1422
13.8800 9.2228 0.1353
13.9000 9.2361 0.1224
13.9200 9.2494 0.1384
13.9400 9.2628 0.1380
13.9600 9.2761 0.1198
13.9800 9.2894 0.1392
14.0000 9.3028 0.1350
14.0200 9.3161 0.1245
14.0400 9.3295 0.1373
14.0600 9.3428 0.1304
14.0800 9.3562 0.1181
14.1000 9.3695 0.1395
14.1200 9.3828 0.1287
14.1400 9.3962 0.1178
14.1600 9.4095 0.1380
14.1800 9.4228 0.1270
14.2000 9.4361 0.1186
14.2200 9.4495 0.1334
14.2400 9.4628 0.1274
14.2600 9.4761 0.1158
14.2800 9.4894 0.1308
14.3000 9.5027 0.1200
14.3200 9.5161 0.1161
14.3400 9.5294 0.1360
14.3600 9.5427 0.1186
14.3800 9.5561 0.1145
14.4000 9.5695 0.1376
14.4200 9.5829 0.1140
14.4400 9.5962 0.1136
14.4600 9.6095 0.1318
14.4800 9.6229 0.1107
14.5000 9.6362 0.1172
14.5200 9.6495 0.1241
14.5400 9.6628 0.1148
14.5600 9.6760 0.1208
14.5800 9.6894 0.1239
14.6000 9.7027 0.1092
14.6200 9.7161 0.1196
14.6400 9.7294 0.1265
14.6600 9.7428 0.1080
14.6800 9.7561 0.1211
14.7000 9.7695 0.1174
14.7200 9.7828 0.1057
14.7400 9.7962 0.1241
14.7600 9.8095 0.1146
14.7800 9.8229 0.1102
14.8000 9.8362 0.1217
14.8200 9.8495 0.1151
14.8400 9.8628 0.1111
14.8600 9.8762 0.1154
14.8800 9.8895 0.1128
14.9000 9.9028 0.1120
14.9200 9.9161 0.1153
14.9400 9.9294 0.1101
14.9600 9.9428 0.1137
14.9800 9.9561 0.1095
15.0000 9.9694 0.1097
15.0200 9.9827 0.1131
15.0400 9.9961 0.1104
15.0600 10.0095 0.1086
15.0800 10.0228 0.1108
15.1000 10.0361 0.1139
15.1200 10.0495 0.1069
15.1400 10.0629 0.1133
15.1600 10.0762 0.1044
15.1800 10.0895 0.1060
15.2000 10.1028 0.1118
15.2200 10.1162 0.1070
15.2400 10.1295 0.1058
15.2600 10.1428 0.1092
15.2800 10.1561 0.1074
15.3000 10.1695 0.1101
15.3200 10.1828 0.1078
15.3400 10.1961 0.1034
15.3600 10.2094 0.1092
15.3800 10.2227 0.1063
15.4000 10.2361 0.1061
15.4200 10.2494 0.1155
15.4400 10.2628 0.1026
15.4600 10.2761 0.1033
15.4800 10.2895 0.1090
15.5000 10.3029 0.1037
15.5200 10.3162 0.1012
15.5400 10.3295 0.1087
15.5600 10.3428 0.1009
15.5800 10.3562 0.1013
15.6000 10.3695 0.1028
15.6200 10.3828 0.1043
15.6400 10.3961 0.1076
15.6600 10.4095 0.1011
15.6800 10.4228 0.0987
15.7000 10.4361 0.1056
15.7200 10.4494 0.0987
15.7400 10.4628 0.0983
15.7600 10.4761 0.1036
15.7800 10.4895 0.0956
15.8000 10.5028 0.0964
15.8200 10.5161 0.0988
15.8400 10.5294 0.0960
15.8600 10.5428 0.0948
15.8800 10.5561 0.0985
15.9000 10.5695 0.0922
15.9200 10.5828 0.0965
15.9400 10.5962 0.0937
15.9600 10.6095 0.0942
15.9800 10.6229 0.0935
16.0000 10.6361 0.0912
16.0200 10.6494 0.0933
16.0400 10.6628 0.0922
16.0600 10.6761 0.0902
16.0800 10.6894 0.0929
16.1000 10.7027 0.0899
16.1200 10.7161 0.0850
16.1400 10.7294 0.0908
16.1600 10.7428 0.0894
16.1800 10.7561 0.0832
16.2000 10.7695 0.0944
16.2200 10.7829 0.0840
16.2400 10.7962 0.0879
16.2600 10.8095 0.0925
16.2800 10.8228 0.0823
16.3000 10.8362 0.0886
16.3200 10.8495 0.0911
16.3400 10.8628 0.0836
16.3600 10.8761 0.0896
16.3800 10.8894 0.0899
16.4000 10.9028 0.0850
16.4200 10.9161 0.0853
16.4400 10.9294 0.0899
16.4600 10.9427 0.0829
16.4800 10.9561 0.0832
16.5000 10.9694 0.0895
16.5200 10.9828 0.0854
16.5400 10.9961 0.0806
16.5600 11.0095 0.0849
16.5800 11.0228 0.0876
16.6000 11.0362 0.0802
16.6200 11.0495 0.0826
16.6400 11.0628 0.0834
16.6600 11.0762 0.0858
16.6800 11.0895 0.0771
16.7000 11.1028 0.0797
16.7200 11.1161 0.0824
16.7400 11.1294 0.0777
16.7600 11.1428 0.0792
16.7800 11.1561 0.0769
16.8000 11.1694 0.0786
16.8200 11.1828 0.0794
16.8400 11.1961 0.0781
16.8600 11.2095 0.0743
16.8800 11.2228 0.0788
16.9000 11.2362 0.0791
16.9200 11.2495 0.0730
16.9400 11.2628 0.0823
16.9600 11.2762 0.0718
16.9800 11.2895 0.0729
17.0000 11.3028 0.0795
17.0200 11.3161 0.0691
17.0400 11.3295 0.0724
17.0600 11.3428 0.0789
17.0800 11.3562 0.0691
17.1000 11.3695 0.0725
17.1200 11.3828 0.0739
17.1400 11.3962 0.0656
17.1600 11.4095 0.0725
17.1800 11.4228 0.0777
17.2000 11.4361 0.0676
17.2200 11.4494 0.0727
17.2400 11.4628 0.0742
17.2600 11.4761 0.0677
17.2800 11.4894 0.0735
17.3000 11.5028 0.0733
17.3200 11.5162 0.0652
17.3400 11.5295 0.0708
17.3600 11.5428 0.0726
17.3800 11.5562 0.0631
17.4000 11.5695 0.0754
17.4200 11.5828 0.0713
17.4400 11.5962 0.0650
17.4600 11.6095 0.0768
17.4800 11.6228 0.0680
17.5000 11.6362 0.0640
17.5200 11.6495 0.0756
17.5400 11.6627 0.0729
17.5600 11.6761 0.0648
17.5800 11.6894 0.0727
17.6000 11.7028 0.0722
17.6200 11.7161 0.0612
17.6400 11.7294 0.0760
17.6600 11.7428 0.0643
17.6800 11.7562 0.0628
17.7000 11.7695 0.0752
17.7200 11.7828 0.0641
17.7400 11.7962 0.0616
17.7600 11.8095 0.0715
17.7800 11.8228 0.0610
17.8000 11.8361 0.0677
17.8200 11.8494 0.0690
17.8400 11.8628 0.0596
17.8600 11.8761 0.0663
17.8800 11.8894 0.0697
17.9000 11.9027 0.0609
17.9200 11.9161 0.0658
17.9400 11.9295 0.0635
17.9600 11.9428 0.0567
17.9800 11.9561 0.0658
18.0000 11.9695 0.0607
18.0200 11.9828 0.0583
18.0400 11.9962 0.0648
18.0600 12.0095 0.0563
18.0800 12.0228 0.0581
18.1000 12.0362 0.0635
18.1200 12.0495 0.0619
18.1400 12.0629 0.0574
18.1600 12.0762 0.0563
18.1800 12.0895 0.0597
18.2000 12.1028 0.0551
18.2200 12.1161 0.0583
18.2400 12.1295 0.0511
18.2600 12.1428 0.0649
18.2800 12.1561 0.0594
18.3000 12.1694 0.0448
18.3200 12.1828 0.0616
18.3400 12.1961 0.0552
18.3600 12.2095 0.0465
18.3800 12.2228 0.0594
18.4000 12.2362 0.0492
18.4200 12.2495 0.0480
18.4400 12.2628 0.0548
18.4600 12.2762 0.0501
18.4800 12.2895 0.0500
18.5000 12.3028 0.0535
18.5200 12.3161 0.0501
18.5400 12.3294 0.0519
18.5600 12.3428 0.0519
18.5800 12.3561 0.0440
18.6000 12.3695 0.0524
18.6200 12.3828 0.0438
18.6400 12.3961 0.0435
18.6600 12.4095 0.0549
18.6800 12.4228 0.0423
18.7000 12.4361 0.0454
18.7200 12.4495 0.0461
18.7400 12.4628 0.0399
18.7600 12.4762 0.0426
18.7800 12.4895 0.0419
18.8000 12.5028 0.0376
18.8200 12.5162 0.0410
18.8400 12.5295 0.0400
18.8600 12.5428 0.0447
18.8800 12.5561 0.0457
18.9000 12.5694 0.0354
18.9200 12.5828 0.0415
18.9400 12.5961 0.0372
18.9600 12.6094 0.0343
18.9800 12.6227 0.0428
19.0000 12.6361 0.0369
19.0200 12.6494 0.0371
19.0400 12.6628 0.0385
19.0600 12.6761 0.0352
19.0800 12.6894 0.0403
19.1000 12.7028 0.0389
19.1200 12.7161 0.0351
19.1400 12.7295 0.0364
19.1600 12.7428 0.0397
19.1800 12.7561 0.0369
19.2000 12.7695 0.0408
19.2200 12.7828 0.0334
19.2400 12.7962 0.0366
19.2600 12.8095 0.0439
19.2800 12.8228 0.0356
19.3000 12.8362 0.0392
19.3200 12.8495 0.0429
19.3400 12.8628 0.0303
19.3600 12.8761 0.0403
19.3800 12.8894 0.0393
19.4000 12.9027 0.0296
19.4200 12.9161 0.0446
19.4400 12.9294 0.0417
19.4600 12.9428 0.0300
19.4800 12.9562 0.0400
19.5000 12.9696 0.0366
19.5200 12.9829 0.0304
19.5400 12.9962 0.0390
19.5600 13.0096 0.0312
19.5800 13.0229 0.0218
19.6000 13.0362 0.0376
19.6200 13.0495 0.0364
19.6400 13.0628 0.0250
19.6600 13.0761 0.0382
19.6800 13.0894 0.0311
19.7000 13.1027 0.0299
19.7200 13.1160 0.0345
19.7400 13.1294 0.0273
19.7600 13.1428 0.0283
19.7800 13.1561 0.0309
19.8000 13.1694 0.0264
19.8200 13.1828 0.0267
19.8400 13.1962 0.0318
19.8600 13.2095 0.0280
19.8800 13.2228 0.0239
19.9000 13.2361 0.0316
19.9200 13.2495 0.0272
19.9400 13.2629 0.0202
19.9600 13.2762 0.0304
19.9800 13.2895 0.0270
20.0000 13.3028 0.0229
20.0200 13.3161 0.0279
20.0400 13.3295 0.0272
20.0600 13.3428 0.0189
20.0800 13.3561 0.0273
20.1000 13.3694 0.0309
20.1200 13.3828 0.0180
20.1400 13.3961 0.0242
20.1600 13.4095 0.0270
20.1800 13.4228 0.0177
20.2000 13.4362 0.0220
20.2200 13.4495 0.0221
20.2400 13.4628 0.0126
20.2600 13.4761 0.0288
20.2800 13.4895 0.0220
20.3000 13.5029 0.0126
20.3200 13.5162 0.0317
20.3400 13.5295 0.0165
20.3600 13.5428 0.0109
20.3800 13.5561 0.0279
20.4000 13.5695 0.0137
20.4200 13.5828 0.0144
20.4400 13.5961 0.0230
20.4600 13.6094 0.0154
20.4800 13.6228 0.0139
20.5000 13.6361 0.0187
20.5200 13.6494 0.0149
20.5400 13.6628 0.0141
20.5600 13.6762 0.0168
20.5800 13.6895 0.0120
20.6000 13.7029 0.0121
20.6200 13.7162 0.0157
20.6400 13.7295 0.0146
20.6600 13.7428 0.0058
20.6800 13.7561 0.0158
20.7000 13.7694 0.0170
20.7200 13.7828 0.0079
20.7400 13.7961 0.0149
20.7600 13.8095 0.0124
20.7800 13.8228 0.0034
20.8000 13.8361 0.0176
20.8200 13.8494 0.0141
20.8400 13.8628 0.0021
20.8600 13.8761 0.0110
20.8800 13.8894 0.0140
20.9000 13.9028 -0.0003
20.9200 13.9162 0.0136
20.9400 13.9295 0.0157
20.9600 13.9428 -0.0035
20.9800 13.9562 0.0128
21.0000 13.9695 0.0104
21.0200 13.9829 -0.0021
21.0400 13.9962 0.0115
21.0600 14.0095 0.0116
21.0800 14.0228 0.0008
21.1000 14.0361 0.0090
21.1200 14.0495 0.0060
21.1400 14.0628 -0.0009
21.1600 14.0761 0.0094
21.1800 14.0894 0.0058
21.2000 14.1028 0.0002
21.2200 14.1161 0.0054
21.2400 14.1294 0.0064
21.2600 14.1428 -0.0001
21.2800 14.1562 0.0020
21.3000 14.1695 0.0046
21.3200 14.1828 -0.0032
21.3400 14.1962 0.0030
21.3600 14.2095 0.0014
21.3800 14.2229 -0.0042
21.4000 14.2362 0.0027
21.4200 14.2495 0.0023
21.4400 14.2628 -0.0054
21.4600 14.2761 0.0010
21.4800 14.2895 -0.0020
21.5000 14.3028 -0.0076
21.5200 14.3160 -0.0030
21.5400 14.3294 -0.0034
21.5600 14.3427 -0.0101
21.5800 14.3560 -0.0013
21.6000 14.3694 -0.0069
21.6200 14.3828 -0.0082
21.6400 14.3962 -0.0025
21.6600 14.4096 -0.0085
21.6800 14.4229 -0.0102
21.7000 14.4362 -0.0037
21.7200 14.4495 -0.0053
21.7400 14.4629 -0.0134
21.7600 14.4762 -0.0075
21.7800 14.4894 -0.0053
21.8000 14.5027 -0.0133
21.8200 14.5161 -0.0122
21.8400 14.5294 -0.0086
21.8600 14.5427 -0.0134
21.8800 14.5561 -0.0098
21.9000 14.5694 -0.0121
21.9200 14.5828 -0.0117
21.9400 14.5961 -0.0108
21.9600 14.6095 -0.0109
21.9800 14.6228 -0.0146
22.0000 14.6362 -0.0146
22.0200 14.6495 -0.0101
22.0400 14.6628 -0.0134
22.0600 14.6761 -0.0140
22.0800 14.6895 -0.0120
22.1000 14.7028 -0.0132
22.1200 14.7161 -0.0128
22.1400 14.7294 -0.0139
22.1600 14.7428 -0.0104
22.1800 14.7561 -0.0199
22.2000 14.7695 -0.0151
22.2200 14.7828 -0.0155
22.2400 14.7961 -0.0118
22.2600 14.8094 -0.0086
22.2800 14.8228 -0.0204
22.3000 14.8361 -0.0171
22.3200 14.8495 -0.0153
22.3400 14.8628 -0.0145
22.3600 14.8762 -0.0166
22.3800 14.8895 -0.0162
22.4000 14.9028 -0.0151
22.4200 14.9162 -0.0203
22.4400 14.9295 -0.0153
22.4600 14.9429 -0.0196
22.4800 14.9562 -0.0181
22.5000 14.9695 -0.0197
22.5200 14.9828 -0.0209
22.5400 14.9961 -0.0196
22.5600 15.0095 -0.0217
22.5800 15.0228 -0.0195
22.6000 15.0361 -0.0173
22.6200 15.0494 -0.0217
22.6400 15.0628 -0.0230
22.6600 15.0761 -0.0204
22.6800 15.0894 -0.0240
22.7000 15.1028 -0.0193
22.7200 15.1161 -0.0194
22.7400 15.1295 -0.0287
22.7600 15.1429 -0.0183
22.7800 15.1562 -0.0210
22.8000 15.1695 -0.0286
22.8200 15.1828 -0.0191
22.8400 15.1961 -0.0235
22.8600 15.2094 -0.0266
22.8800 15.2228 -0.0198
22.9000 15.2361 -0.0288
22.9200 15.2495 -0.0270
22.9400 15.2628 -0.0239
22.9600 15.2761 -0.0301
22.9800 15.2894 -0.0281
23.0000 15.3028 -0.0252
23.0200 15.3161 -0.0374
23.0400 15.3294 -0.0306
23.0600 15.3428 -0.0273
23.0800 15.3561 -0.0365
23.1000 15.3695 -0.0272
23.1200 15.3828 -0.0318
23.1400 15.3961 -0.0351
23.1600 15.4095 -0.0304
23.1800 15.4229 -0.0351
23.2000 15.4362 -0.0342
23.2200 15.4495 -0.0308
23.2400 15.4628 -0.0344
23.2600 15.4761 -0.0320
23.2800 15.4894 -0.0307
23.3000 15.5028 -0.0403
23.3200 15.5161 -0.0337
23.3400 15.5294 -0.0286
23.3600 15.5428 -0.0389
23.3800 15.5561 -0.0336
23.4000 15.5694 -0.0342
23.4200 15.5828 -0.0384
23.4400 15.5962 -0.0352
23.4600 15.6095 -0.0370
23.4800 15.6229 -0.0377
23.5000 15.6362 -0.0357
23.5200 15.6495 -0.0331
23.5400 15.6629 -0.0372
23.5600 15.6762 -0.0359
23.5800 15.6895 -0.0368
23.6000 15.7028 -0.0388
23.6200 15.7161 -0.0354
23.6400 15.7295 -0.0379
23.6600 15.7428 -0.0411
23.6800 15.7561 -0.0312
23.7000 15.7694 -0.0399
23.7200 15.7828 -0.0469
23.7400 15.7961 -0.0375
23.7600 15.8094 -0.0367
23.7800 15.8227 -0.0474
23.8000 15.8361 -0.0360
23.8200 15.8495 -0.0457
23.8400 15.8629 -0.0482
23.8600 15.8762 -0.0375
23.8800 15.8895 -0.0464
23.9000 15.9028 -0.0472
23.9200 15.9161 -0.0355
23.9400 15.9294 -0.0509
23.9600 15.9427 -0.0468
23.9800 15.9561 -0.0386
24.0000 15.9694 -0.0529
24.0200 15.9828 -0.0439
24.0400 15.9961 -0.0444
24.0600 16.0094 -0.0538
24.0800 16.0228 -0.0479
24.1000 16.0362 -0.0470
24.1200 16.0495 -0.0515
24.1400 16.0628 -0.0484
24.1600 16.0761 -0.0488
24.1800 16.0895 -0.0579
24.2000 16.1028 -0.0514
24.2200 16.1161 -0.0501
24.2400 16.1294 -0.0571
24.2600 16.1428 -0.0515
24.2800 16.1562 -0.0509
24.3000 16.1695 -0.0545
24.3200 16.1828 -0.0496
24.3400 16.1962 -0.0531
24.3600 16.2095 -0.0593
24.3800 16.2228 -0.0507
24.4000 16.2361 -0.0529
24.4200 16.2494 -0.0539
24.4400 16.2628 -0.0520
24.4600 16.2761 -0.0553
24.4800 16.2894 -0.0582
24.5000 16.3028 -0.0545
24.5200 16.3161 -0.0570
24.5400 16.3295 -0.0613
24.5600 16.3428 -0.0555
24.5800 16.3561 -0.0592
24.6000 16.3695 -0.0604
24.6200 16.3829 -0.0498
24.6400 16.3962 -0.0638
24.6600 16.4095 -0.0614
24.6800 16.4228 -0.0510
24.7000 16.4362 -0.0616
24.7200 16.4495 -0.0641
24.7400 16.4628 -0.0577
24.7600 16.4761 -0.0640
24.7800 16.4894 -0.0609
24.8000 16.5027 -0.0565
24.8200 16.5161 -0.0667
24.8400 16.5294 -0.0655
24.8600 16.5428 -0.0586
24.8800 16.5561 -0.0669
24.9000 16.5695 -0.0674
24.9200 16.5829 -0.0624
24.9400 16.5962 -0.0672
24.9600 16.6095 -0.0644
24.9800 16.6229 -0.0662
25.0000 16.6362 -0.0712
25.0200 16.6495 -0.0652
25.0400 16.6628 -0.0647
25.0600 16.6761 -0.0715
25.0800 16.6894 -0.0671
25.1000 16.7028 -0.0679
25.1200 16.7161 -0.0702
25.1400 16.7294 -0.0699
25.1600 16.7428 -0.0690
25.1800 16.7561 -0.0801
25.2000 16.7695 -0.0689
25.2200 16.7828 -0.0732
25.2400 16.7961 -0.0721
25.2600 16.8095 -0.0712
25.2800 16.8228 -0.0742
25.3000 16.8361 -0.0745
25.3200 16.8495 -0.0715
25.3400 16.8629 -0.0780
25.3600 16.8762 -0.0769
25.3800 16.8895 -0.0715
25.4000 16.9028 -0.0817
25.4200 16.9161 -0.0738
25.4400 16.9295 -0.0691
25.4600 16.9428 -0.0839
25.4800 16.9561 -0.0725
25.5000 16.9694 -0.0744
25.5200 16.9827 -0.0810
25.5400 16.9961 -0.0751
25.5600 17.0094 -0.0806
25.5800 17.0227 -0.0815
25.6000 17.0361 -0.0714
25.6200 17.0495 -0.0839
25.6400 17.0629 -0.0857
25.6600 17.0762 -0.0728
25.6800 17.0895 -0.0814
25.7000 17.1028 -0.0792
25.7200 17.1162 -0.0759
25.7400 17.1295 -0.0864
25.7600 17.1428 -0.0782
25.7800 17.1561 -0.0768
25.8000 17.1695 -0.0884
25.8200 17.1828 -0.0780
25.8400 17.1961 -0.0799
25.8600 17.2095 -0.0882
25.8800 17.2228 -0.0822
25.9000 17.2361 -0.0841
25.9200 17.2494 -0.0923
25.9400 17.2628 -0.0793
25.9600 17.2761 -0.0870
25.9800 17.2895 -0.0887
26.0000 17.3029 -0.0851
26.0200 17.3162 -0.0887
26.0400 17.3295 -0.0875
26.0600 17.3429 -0.0870
26.0800 17.3562 -0.0892
26.1000 17.3695 -0.0944
26.1200 17.3828 -0.0902
26.1400 17.3961 -0.0869
26.1600 17.4094 -0.0970
26.1800 17.4228 -0.0912
26.2000 17.4361 -0.0849
26.2200 17.4494 -0.0946
26.2400 17.4628 -0.0958
26.2600 17.4761 -0.0847
26.2800 17.4895 -0.1007
26.3000 17.5028 -0.0907
26.3200 17.5161 -0.0878
26.3400 17.5295 -0.1020
26.3600 17.5428 -0.0905
26.3800 17.5561 -0.0874
26.4000 17.5694 -0.1020
26.4200 17.5828 -0.0922
26.4400 17.5962 -0.0876
26.4600 17.6095 -0.1017
26.4800 17.6228 -0.0947
26.5000 17.6362 -0.0879
26.5200 17.6495 -0.1028
26.5400 17.6628 -0.0978
26.5600 17.6761 -0.0889
26.5800 17.6894 -0.1012
26.6000 17.7027 -0.0947
26.6200 17.7160 -0.0945
26.6400 17.7294 -0.1057
26.6600 17.7427 -0.0997
26.6800 17.7561 -0.0972
26.7000 17.7695 -0.1045
26.7200 17.7829 -0.1044
26.7400 17.7962 -0.1025
26.7600 17.8095 -0.1072
26.7800 17.8229 -0.1014
26.8000 17.8362 -0.1003
26.8200 17.8495 -0.1176
26.8400 17.8628 -0.0976
26.8600 17.8761 -0.1031
26.8800 17.8894 -0.1177
26.9000 17.9028 -0.1036
26.9200 17.9161 -0.0973
26.9400 17.9294 -0.1226
26.9600 17.9427 -0.1057
26.9800 17.9561 -0.1000
27.0000 17.9694 -0.1228
27.0200 17.9827 -0.1045
27.0400 17.9961 -0.1017
27.0600 18.0095 -0.1263
27.0800 18.0229 -0.1091
27.1000 18.0362 -0.1065
27.1200 18.0495 -0.1206
27.1400 18.0628 -0.1064
27.1600 18.0762 -0.1109
27.1800 18.0895 -0.1241
27.2000 18.1028 -0.1094
27.2200 18.1161 -0.1096
27.2400 18.1295 -0.1212
27.2600 18.1428 -0.1099
27.2800 18.1561 -0.1140
27.3000 18.1694 -0.1214
27.3200 18.1827 -0.1077
27.3400 18.1961 -0.1151
27.3600 18.2095 -0.1221
27.3800 18.2228 -0.1113
27.4000 18.2361 -0.1210
27.4200 18.2495 -0.1215
27.4400 18.2629 -0.1126
27.4600 18.2762 -0.1189
27.4800 18.2895 -0.1242
27.5000 18.3028 -0.1156
27.5200 18.3162 -0.1200
27.5400 18.3295 -0.1232
27.5600 18.3428 -0.1238
27.5800 18.3562 -0.1205
27.6000 18.3695 -0.1224
27.6200 18.3828 -0.1249
27.6400 18.3961 -0.1205
27.6600 18.4094 -0.1224
27.6800 18.4227 -0.1258
27.7000 18.4361 -0.1204
27.7200 18.4495 -0.1298
27.7400 18.4628 -0.1242
27.7600 18.4761 -0.1208
27.7800 18.4895 -0.1291
27.8000 18.5029 -0.1276
27.8200 18.5162 -0.1271
27.8400 18.5295 -0.1263
27.8600 18.5428 -0.1269
27.8800 18.5562 -0.1300
27.9000 18.5695 -0.1204
27.9200 18.5828 -0.1306
27.9400 18.5961 -0.1298
27.9600 18.6094 -0.1276
27.9800 18.6228 -0.1349
28.0000 18.6361 -0.1282
28.0200 18.6494 -0.1320
28.0400 18.6628 -0.1348
28.0600 18.6761 -0.1285
28.0800 18.6894 -0.1333
28.1000 18.7028 -0.1396
28.1200 18.7161 -0.1302
28.1400 18.7295 -0.1338
28.1600 18.7429 -0.1406
28.1800 18.7562 -0.1357
28.2000 18.7695 -0.1341
28.2200 18.7828 -0.1400
28.2400 18.7962 -0.1361
28.2600 18.8095 -0.1394
28.2800 18.8228 -0.1416
28.3000 18.8361 -0.1361
28.3200 18.8495 -0.1367
28.3400 18.8628 -0.1467
28.3600 18.8761 -0.1383
28.3800 18.8894 -0.1380
28.4000 18.9027 -0.1448
28.4200 18.9161 -0.1457
28.4400 18.9294 -0.1394
28.4600 18.9428 -0.1459
28.4800 18.9561 -0.1439
28.5000 18.9695 -0.1393
28.5200 18.9828 -0.1499
28.5400 18.9962 -0.1476
28.5600 19.0095 -0.1443
28.5800 19.0228 -0.1495
28.6000 19.0362 -0.1477
28.6200 19.0495 -0.1478
28.6400 19.0628 -0.1487
28.6600 19.0761 -0.1528
28.6800 19.0895 -0.1470
28.7000 19.1028 -0.1472
28.7200 19.1161 -0.1558
28.7400 19.1294 -0.1520
28.7600 19.1427 -0.1492
28.7800 19.1560 -0.1542
28.8000 19.1694 -0.1533
28.8200 19.1827 -0.1528
28.8400 19.1961 -0.1575
28.8600 19.2095 -0.1539
28.8800 19.2229 -0.1551
28.9000 19.2362 -0.1583
28.9200 19.2496 -0.1570
28.9400 19.2629 -0.1554
28.9600 19.2762 -0.1666
28.9800 19.2895 -0.1560
29.0000 19.3028 -0.1562
29.0200 19.3161 -0.1619
29.0400 19.3294 -0.1542
29.0600 19.3428 -0.1619
29.0800 19.3561 -0.1641
29.1000 19.3694 -0.1584
29.1200 19.3828 -0.1627
29.1400 19.3961 -0.1671
29.1600 19.4095 -0.1612
29.1800 19.4228 -0.1623
29.2000 19.4361 -0.1698
29.2200 19.4495 -0.1588
29.2400 19.4629 -0.1622
29.2600 19.4762 -0.1748
29.2800 19.4895 -0.1630
29.3000 19.5028 -0.1623
29.3200 19.5161 -0.1752
29.3400 19.5295 -0.1669
29.3600 19.5428 -0.1668
29.3800 19.5561 -0.1794
29.4000 19.5694 -0.1660
29.4200 19.5828 -0.1679
29.4400 19.5961 -0.1803
29.4600 19.6094 -0.1680
29.4800 19.6227 -0.1721
29.5000 19.6361 -0.1799
29.5200 19.6495 -0.1719
29.5400 19.6628 -0.1762
29.5600 19.6761 -0.1847
29.5800 19.6895 -0.1726
29.6000 19.7028 -0.1793
29.6200 19.7162 -0.1852
29.6400 19.7295 -0.1711
29.6600 19.7428 -0.1819
29.6800 19.7561 -0.1836
29.7000 19.7695 -0.1746
29.7200 19.7828 -0.1814
29.7400 19.7961 -0.1824
29.7600 19.8095 -0.1760
29.7800 19.8228 -0.1849
29.8000 19.8361 -0.1845
29.8200 19.8494 -0.1809
29.8400 19.8627 -0.1876
29.8600 19.8761 -0.1806
29.8800 19.8894 -0.1815
29.9000 19.9028 -0.1953
29.9200 19.9161 -0.1845
29.9400 19.9295 -0.1797
29.9600 19.9428 -0.1956
29.9800 19.9562 -0.1868
30.0000 19.9695 -0.1894
30.0200 19.9828 -0.1943
30.0400 19.9962 -0.1925
30.0600 20.0095 -0.1916
30.0800 20.0228 -0.1934
30.1000 20.0361 -0.1929
30.1200 20.0494 -0.1919
30.1400 20.0628 -0.1984
30.1600 20.0761 -0.1913
30.1800 20.0895 -0.1947
30.2000 20.1028 -0.1983
30.2200 20.1161 -0.1937
30.2400 20.1294 -0.2002
30.2600 20.1428 -0.1955
30.2800 20.1561 -0.1960
30.3000 20.1695 -0.2004
30.3200 20.1828 -0.1988
30.3400 20.1962 -0.2022
30.3600 20.2095 -0.2038
30.3800 20.2228 -0.1984
30.4000 20.2362 -0.2031
30.4200 20.2495 -0.2081
30.4400 20.2629 -0.2038
30.4600 20.2762 -0.2046
30.4800 20.2895 -0.2085
30.5000 20.3028 -0.2020
30.5200 20.3161 -0.2164
30.5400 20.3294 -0.2106
30.5600 20.3427 -0.2031
30.5800 20.3561 -0.2171
30.6000 20.3694 -0.2113
30.6200 20.3828 -0.2061
30.6400 20.3961 -0.1958
30.6600 20.4095 -0.1177
30.6800 20.4229 -0.0420
30.7000 20.4362 -0.0080
30.7200 20.4495 0.0373
30.7400 20.4628 0.0793
30.7600 20.4762 0.1227
30.7800 20.4895 0.1978
30.8000 20.5028 0.2489
30.8200 20.5161 0.3007
30.8400 20.5294 0.3728
30.8600 20.5428 0.4116
30.8800 20.5561 0.4506
30.9000 20.5694 0.4995
30.9200 20.5827 0.5326
30.9400 20.5961 0.5741
30.9600 20.6094 0.6147
30.9800 20.6227 0.6485
31.0000 20.6361 0.6912
31.0200 20.6495 0.7214
31.0400 20.6628 0.7243
31.0600 20.6762 0.7331
31.0800 20.6895 0.7327
31.1000 20.7028 0.7337
31.1200 20.7162 0.7452
31.1400 20.7295 0.7418
31.1600 20.7428 0.7465
31.1800 20.7561 0.7467
31.2000 20.7694 0.7462
31.2200 20.7827 0.7582
31.2400 20.7961 0.7529
31.2600 20.8094 0.7520
31.2800 20.8227 0.7646
31.3000 20.8361 0.7513
31.3200 20.8495 0.7604
31.3400 20.8628 0.7633
31.3600 20.8762 0.7584
31.3800 20.8895 0.7623
31.4000 20.9029 0.7636
31.4200 20.9162 0.7574
31.4400 20.9295 0.7684
31.4600 20.9428 0.7678
31.4800 20.9561 0.7580
31.5000 20.9695 0.7725
31.5200 20.9828 0.7655
31.5400 20.9961 0.7627
31.5600 21.0095 0.7774
31.5800 21.0228 0.7661
31.6000 21.0362 0.7636
31.6200 21.0495 0.7725
31.6400 21.0628 0.7668
31.6600 21.0761 0.7668
31.6800 21.0894 0.7766
31.7000 21.1028 0.7697
31.7200 21.1161 0.7691
31.7400 21.1294 0.7783
31.7600 21.1428 0.7667
31.7800 21.1562 0.7735
31.8000 21.1695 0.7754
31.8200 21.1828 0.7712
31.8400 21.1961 0.7820
31.8600 21.2095 0.7699
31.8800 21.2228 0.7752
31.9000 21.2361 0.7816
31.9200 21.2495 0.7773
31.9400 21.2628 0.7734
31.9600 21.2761 0.7810
31.9800 21.2895 0.7786
32.0000 21.3028 0.7733
32.0200 21.3161 0.7850
32.0400 21.3294 0.7783
32.0600 21.3428 0.7803
32.0800 21.3561 0.7824
32.1000 21.3695 0.7811
32.1200 21.3828 0.7825
32.1400 21.3962 0.7788
32.1600 21.4095 0.7816
32.1800 21.4228 0.7819
32.2000 21.4362 0.7808
32.2200 21.4495 0.7821
32.2400 21.4628 0.7810
32.2600 21.4761 0.7819
32.2800 21.4894 0.7838
32.3000 21.5028 0.7820
32.3200 21.5161 0.7763
32.3400 21.5294 0.7855
32.3600 21.5427 0.7835
32.3800 21.5561 0.7780
32.4000 21.5694 0.7812
32.4200 21.5828 0.7849
32.4400 21.5961 0.7803
32.4600 21.6094 0.7848
32.4800 21.6228 0.7870
32.5000 21.6362 0.7817
32.5200 21.6495 0.7873
32.5400 21.6628 0.7845
32.5600 21.6762 0.7865
32.5800 21.6895 0.7839
32.6000 21.7029 0.7835
32.6200 21.7162 0.7890
32.6400 21.7295 0.7874
32.6600 21.7428 0.7864
32.6800 21.7561 0.7861
32.7000 21.7694 0.7875
32.7200 21.7827 0.7867
32.7400 21.7961 0.7870
32.7600 21.8094 0.7882
32.7800 21.8228 0.7843
32.8000 21.8361 0.7847
32.8200 21.8495 0.7863
32.8400 21.8628 0.7817
32.8600 21.8762 0.7843
32.8800 21.8895 0.7843
32.9000 21.9028 0.7844
32.9200 21.9162 0.7838
32.9400 21.9295 0.7840
32.9600 21.9429 0.7844
32.9800 21.9562 0.7828
33.0000 21.9695 0.7890
33.0200 21.9828 0.7847
33.0400 21.9962 0.7781
33.0600 22.0095 0.7817
33.0800 22.0228 0.7860
33.1000 22.0361 0.7768
33.1200 22.0494 0.7849
33.1400 22.0628 0.7838
33.1600 22.0761 0.7781
33.1800 22.0894 0.7844
33.2000 22.1028 0.7826
33.2200 22.1162 0.7782
33.2400 22.1295 0.7875
33.2600 22.1428 0.7782
33.2800 22.1561 0.7798
33.3000 22.1695 0.7865
33.3200 22.1828 0.7798
33.3400 22.1961 0.7876
33.3600 22.2094 0.7852
33.3800 22.2228 0.7799
33.4000 22.2361 0.7826
33.4200 22.2495 0.7881
33.4400 22.2628 0.7776
33.4600 22.2761 0.7895
33.4800 22.2894 0.7884
33.5000 22.3028 0.7773
33.5200 22.3161 0.7863
33.5400 22.3294 0.7875
33.5600 22.3428 0.7837
33.5800 22.3561 0.7841
33.6000 22.3695 0.7829
33.6200 22.3828 0.7823
33.6400 22.3961 0.7863
33.6600 22.4095 0.7846
33.6800 22.4228 0.7756
33.7000 22.4362 0.7867
33.7200 22.4495 0.7860
33.7400 22.4628 0.7824
33.7600 22.4762 0.7816
33.7800 22.4895 0.7814
33.8000 22.5028 0.7822
33.8200 22.5161 0.7827
33.8400 22.5294 0.7822
33.8600 22.5427 0.7849
33.8800 22.5561 0.7814
33.9000 22.5694 0.7835
33.9200 22.5828 0.7842
33.9400 22.5962 0.7811
33.9600 22.6095 0.7815
33.9800 22.6229 0.7798
34.0000 22.6362 0.7792
34.0200 22.6496 0.7813
34.0400 22.6629 0.7787
34.0600 22.6762 0.7823
34.0800 22.6895 0.7859
34.1000 22.7028 0.7808
34.1200 22.7161 0.7803
34.1400 22.7294 0.7854
34.1600 22.7427 0.7801
34.1800 22.7560 0.7815
34.2000 22.7694 0.7892
34.2200 22.7828 0.7774
34.2400 22.7961 0.7817
34.2600 22.8094 0.7850
34.2800 22.8228 0.7793
34.3000 22.8362 0.7837
34.3200 22.8496 0.7814
34.3400 22.8629 0.7783
34.3600 22.8762 0.7811
34.3800 22.8895 0.7772
34.4000 22.9029 0.7750
34.4200 22.9162 0.7779
34.4400 22.9295 0.7799
34.4600 22.9428 0.7746
34.4800 22.9561 0.7809
34.5000 22.9694 0.7761
34.5200 22.9827 0.7742
34.5400 22.9961 0.7743
34.5600 23.0094 0.7743
34.5800 23.0228 0.7726
34.6000 23.0361 0.7717
34.6200 23.0494 0.7752
34.6400 23.0628 0.7775
34.6600 23.0761 0.7651
34.6800 23.0895 0.7753
34.7000 23.1028 0.7747
34.7200 23.1162 0.7700
34.7400 23.1295 0.7780
34.7600 23.1429 0.7682
34.7800 23.1562 0.7698
34.8000 23.1695 0.7788
34.8200 23.1828 0.7686
34.8400 23.1962 0.7685
34.8600 23.2095 0.7750
34.8800 23.2228 0.7687
34.9000 23.2361 0.7662
34.9200 23.2494 0.7805
34.9400 23.2628 0.7634
34.9600 23.2761 0.7663
34.9800 23.2894 0.7838
35.0000 23.3028 0.7599
35.0200 23.3162 0.7687
35.0400 23.3295 0.7813
35.0600 23.3428 0.7626
35.0800 23.3562 0.7683
35.1000 23.3695 0.7785
35.1200 23.3828 0.7589
35.1400 23.3961 0.7726
35.1600 23.4094 0.7789
35.1800 23.4228 0.7562
35.2000 23.4361 0.7793
35.2200 23.4495 0.7723
35.2400 23.4628 0.7561
35.2600 23.4761 0.7765
35.2800 23.4894 0.7732
35.3000 23.5028 0.7583
35.3200 23.5161 0.7731
35.3400 23.5294 0.7738
35.3600 23.5428 0.7593
35.3800 23.5562 0.7730
35.4000 23.5695 0.7685
35.4200 23.5828 0.7595
35.4400 23.5962 0.7701
35.4600 23.6095 0.7691
35.4800 23.6229 0.7565
35.5000 23.6362 0.7662
35.5200 23.6495 0.7722
35.5400 23.6628 0.7527
35.5600 23.6761 0.7693
35.5800 23.6895 0.7735
35.6000 23.7028 0.7463
35.6200 23.7161 0.7619
35.6400 23.7294 0.7712
35.6600 23.7428 0.7497
35.6800 23.7561 0.7603
35.7000 23.7694 0.7662
35.7200 23.7828 0.7499
35.7400 23.7962 0.7594
35.7600 23.8095 0.7648
35.7800 23.8228 0.7463
35.8000 23.8362 0.7603
35.8200 23.8495 0.7625
35.8400 23.8628 0.7440
35.8600 23.8762 0.7614
35.8800 23.8895 0.7605
35.9000 23.9028 0.7488
35.9200 23.9161 0.7594
35.9400 23.9295 0.7570
35.9600 23.9428 0.7469
35.9800 23.9560 0.7606
36.0000 23.9694 0.7616
36.0200 23.9827 0.7480
36.0400 23.9961 0.7620
36.0600 24.0094 0.7598
36.0800 24.0228 0.7504
36.1000 24.0362 0.7549
36.1200 24.0496 0.7530
36.1400 24.0629 0.7536
36.1600 24.0762 0.7580
36.1800 24.0895 0.7546
36.2000 24.1029 0.7534
36.2200 24.1162 0.7566
36.2400 24.1294 0.7551
36.2600 24.1427 0.7561
36.2800 24.1561 0.7532
36.3000 24.1694 0.7530
36.3200 24.1827 0.7576
36.3400 24.1961 0.7552
36.3600 24.2094 0.7525
36.3800 24.2228 0.7558
36.4000 24.2361 0.7518
36.4200 24.2495 0.7483
36.4400 24.2628 0.7579
36.4600 24.2762 0.7499
36.4800 24.2896 0.7455
36.5000 24.3029 0.7578
36.5200 24.3162 0.7492
36.5400 24.3295 0.7470
36.5600 24.3428 0.7525
36.5800 24.3562 0.7438
36.6000 24.3694 0.7494
36.6200 24.3828 0.7482
36.6400 24.3961 0.7421
36.6600 24.4095 0.7507
36.6800 24.4228 0.7446
36.7000 24.4361 0.7420
36.7200 24.4494 0.7514
36.7400 24.4628 0.7486
36.7600 24.4761 0.7378
36.7800 24.4895 0.7496
36.8000 24.5028 0.7437
36.8200 24.5162 0.7463
36.8400 24.5295 0.7493
36.8600 24.5428 0.7379
36.8800 24.5562 0.7439
36.9000 24.5695 0.7491
36.9200 24.5828 0.7406
36.9400 24.5962 0.7424
36.9600 24.6095 0.7452
36.9800 24.6228 0.7394
37.0000 24.6361 0.7456
37.0200 24.6495 0.7438
37.0400 24.6628 0.7391
37.0600 24.6761 0.7449
37.0800 24.6894 0.7371
37.1000 24.7028 0.7388
37.1200 24.7161 0.7411
37.1400 24.7294 0.7357
37.1600 24.7428 0.7402
37.1800 24.7561 0.7364
37.2000 24.7695 0.7350
37.2200 24.7829 0.7378
37.2400 24.7962 0.7387
37.2600 24.8095 0.7335
37.2800 24.8228 0.7348
37.3000 24.8362 0.7356
37.3200 24.8494 0.7287
37.3400 24.8628 0.7401
37.3600 24.8761 0.7354
37.3800 24.8895 0.7267
37.4000 24.9028 0.7367
37.4200 24.9161 0.7293
37.4400 24.9294 0.7297
37.4600 24.9428 0.7441
37.4800 24.9561 0.7259
37.5000 24.9694 0.7300
37.5200 24.9827 0.7442
37.5400 24.9961 0.7240
37.5600 25.0095 0.7262
37.5800 25.0228 0.7369
37.6000 25.0361 0.7247
37.6200 25.0495 0.7269
37.6400 25.0629 0.7406
37.6600 25.0762 0.7189
37.6800 25.0895 0.7287
37.7000 25.1028 0.7342
37.7200 25.1161 0.7228
37.7400 25.1295 0.7299
37.7600 25.1428 0.7282
37.7800 25.1561 0.7273
37.8000 25.1694 0.7280
37.8200 25.1827 0.7284
37.8400 25.1961 0.7223
37.8600 25.2094 0.7254
37.8800 25.2228 0.7298
37.9000 25.2362 0.7251
37.9200 25.2495 0.7226
37.9400 25.2629 0.7239
37.9600 25.2762 0.7297
37.9800 25.2895 0.7176
38.0000 25.3029 0.7268
38.0200 25.3162 0.7245
38.0400 25.3295 0.7173
38.0600 25.3428 0.7282
38.0800 25.3561 0.7312
38.1000 25.3695 0.7189
38.1200 25.3828 0.7218
38.1400 25.3961 0.7219
38.1600 25.4094 0.7179
38.1800 25.4227 0.7250
38.2000 25.4361 0.7182
38.2200 25.4494 0.7186
38.2400 25.4627 0.7280
38.2600 25.4761 0.7199
38.2800 25.4895 0.7140
38.3000 25.5029 0.7292
38.3200 25.5162 0.7162
38.3400 25.5295 0.7172
38.3600 25.5429 0.7281
38.3800 25.5562 0.7124
38.4000 25.5695 0.7142
38.4200 25.5828 0.7230
38.4400 25.5961 0.7108
38.4600 25.6094 0.7155
38.4800 25.6228 0.7166
38.5000 25.6361 0.7102
38.5200 25.6494 0.7147
38.5400 25.6628 0.7168
38.5600 25.6762 0.7114
38.5800 25.6895 0.7087
38.6000 25.7028 0.7135
38.6200 25.7161 0.7157
38.6400 25.7295 0.7117
38.6600 25.7428 0.7126
38.6800 25.7561 0.7092
38.7000 25.7695 0.7141
38.7200 25.7828 0.7112
38.7400 25.7962 0.7149
38.7600 25.8095 0.7121
38.7800 25.8228 0.7088
38.8000 25.8362 0.7117
38.8200 25.8495 0.7043
38.8400 25.8628 0.7120
38.8600 25.8761 0.7119
38.8800 25.8894 0.7044
38.9000 25.9028 0.7088
38.9200 25.9161 0.7130
38.9400 25.9294 0.7064
38.9600 25.9428 0.7064
38.9800 25.9561 0.7105
39.0000 25.9695 0.7077
39.0200 25.9828 0.7039
39.0400 25.9961 0.7064
39.0600 26.0095 0.7072
39.0800 26.0228 0.7093
39.1000 26.0362 0.7026
39.1200 26.0495 0.7085
39.1400 26.0628 0.7077
39.1600 26.0761 0.7016
39.1800 26.0895 0.7042
39.2000 26.1028 0.7050
39.2200 26.1161 0.7044
39.2400 26.1294 0.7013
39.2600 26.1427 0.7048
39.2800 26.1561 0.7078
39.3000 26.1694 0.6976
39.3200 26.1828 0.7056
39.3400 26.1961 0.7070
39.3600 26.2095 0.6996
39.3800 26.2229 0.7023
39.4000 26.2362 0.7066
39.4200 26.2495 0.6954
39.4400 26.2629 0.7023
39.4600 26.2762 0.7070
39.4800 26.2895 0.6977
39.5000 26.3028 0.7037
39.5200 26.3161 0.7057
39.5400 26.3295 0.6977
39.5600 26.3428 0.7044
39.5800 26.3561 0.7024
39.6000 26.3694 0.7011
39.6200 26.3828 0.7032
39.6400 26.3961 0.6996
39.6600 26.4095 0.6998
39.6800 26.4228 0.6991
39.7000 26.4361 0.7066
39.7200 26.4495 0.6919
39.7400 26.4628 0.6975
39.7600 26.4762 0.7047
39.7800 26.4895 0.6967
39.8000 26.5029 0.6958
39.8200 26.5162 0.6986
39.8400 26.5295 0.6971
39.8600 26.5428 0.6916
39.8800 26.5561 0.7009
39.9000 26.5694 0.6949
39.9200 26.5828 0.6948
39.9400 26.5961 0.7036
39.9600 26.6094 0.6886
39.9800 26.6227 0.6936
40.0000 26.6361 0.6961
40.0200 26.6494 0.6876
40.0400 26.6628 0.6920
40.0600 26.6761 0.6971
40.0800 26.6895 0.6813
40.1000 26.7029 0.6876
40.1200 26.7162 0.6975
40.1400 26.7295 0.6813
40.1600 26.7428 0.6904
40.1800 26.7562 0.6944
40.2000 26.7695 0.6770
40.2200 26.7828 0.6871
40.2400 26.7961 0.6949
40.2600 26.8095 0.6827
40.2800 26.8228 0.6855
40.3000 26.8361 0.6924
40.3200 26.8494 0.6781
40.3400 26.8628 0.6855
40.3600 26.8761 0.6858
40.3800 26.8894 0.6804
40.4000 26.9028 0.6883
40.4200 26.9161 0.6842
40.4400 26.9295 0.6787
40.4600 26.9428 0.6804
40.4800 26.9562 0.6823
40.5000 26.9695 0.6791
40.5200 26.9828 0.6806
40.5400 26.9962 0.6824
40.5600 27.0095 0.6811
40.5800 27.0228 0.6731
40.6000 27.0361 0.6877
40.6200 27.0494 0.6852
40.6400 27.0628 0.6710
40.6600 27.0761 0.6843
40.6800 27.0894 0.6799
40.7000 27.1027 0.6686
40.7200 27.1161 0.6861
40.7400 27.1294 0.6770
40.7600 27.1428 0.6657
40.7800 27.1561 0.6842
40.8000 27.1695 0.6775
40.8200 27.1828 0.6628
40.8400 27.1961 0.6790
40.8600 27.2094 0.6738
40.8800 27.2228 0.6620
40.9000 27.2362 0.6821
40.9200 27.2495 0.6698
40.9400 27.2628 0.6654
40.9600 27.2762 0.6829
40.9800 27.2895 0.6634
41.0000 27.3029 0.6603
41.0200 27.3162 0.6799
41.0400 27.3295 0.6622
41.0600 27.3427 0.6634
41.0800 27.3561 0.6741
41.1000 27.3694 0.6554
41.1200 27.3827 0.6621
41.1400 27.3961 0.6728
41.1600 27.4095 0.6529
41.1800 27.4229 0.6616
41.2000 27.4362 0.6674
41.2200 27.4495 0.6547
41.2400 27.4629 0.6610
41.2600 27.4762 0.6699
41.2800 27.4895 0.6587
41.3000 27.5028 0.6576
41.3200 27.5161 0.6698
41.3400 27.5294 0.6594
41.3600 27.5428 0.6541
41.3800 27.5561 0.6717
41.4000 27.5694 0.6575
41.4200 27.5827 0.6561
41.4400 27.5961 0.6673
41.4600 27.6094 0.6618
41.4800 27.6227 0.6594
41.5000 27.6361 0.6704
41.5200 27.6495 0.6594
41.5400 27.6629 0.6595
41.5600 27.6762 0.6696
41.5800 27.6895 0.6615
41.6000 27.7028 0.6645
41.6200 27.7162 0.6690
41.6400 27.7295 0.6565
41.6600 27.7428 0.6674
41.6800 27.7561 0.6673
41.7000 27.7694 0.6640
41.7200 27.7828 0.6667
41.7400 27.7961 0.6678
41.7600 27.8094 0.6662
41.7800 27.8227 0.6605
41.8000 27.8361 0.6644
41.8200 27.8495 0.6655
41.8400 27.8628 0.6620
41.8600 27.8761 0.6656
41.8800 27.8895 0.6638
41.9000 27.9029 0.6597
41.9200 27.9162 0.6673
41.9400 27.9295 0.6606
41.9600 27.9428 0.6577
41.9800 27.9562 0.6689
42.0000 27.9695 0.6563
42.0200 27.9828 0.6620
42.0400 27.9961 0.6674
42.0600 28.0095 0.6564
42.0800 28.0228 0.6584
42.1000 28.0361 0.6594
42.1200 28.0494 0.6562
42.1400 28.0627 0.6554
42.1600 28.0761 0.6562
42.1800 28.0894 0.6527
42.2000 28.1028 0.6558
42.2200 28.1161 0.6540
42.2400 28.1295 0.6559
42.2600 28.1429 0.6508
42.2800 28.1562 0.6473
42.3000 28.1695 0.6533
42.3200 28.1828 0.6504
42.3400 28.1962 0.6502
42.3600 28.2095 0.6496
42.3800 28.2228 0.6421
42.4000 28.2361 0.6524
42.4200 28.2494 0.6473
42.4400 28.2628 0.6423
42.4600 28.2761 0.6531
42.4800 28.2894 0.6432
42.5000 28.3028 0.6452
42.5200 28.3161 0.6468
42.5400 28.3295 0.6419
42.5600 28.3428 0.6465
42.5800 28.3561 0.6482
42.6000 28.3694 0.6396
42.6200 28.3828 0.6426
42.6400 28.3962 0.6466
42.6600 28.4095 0.6388
42.6800 28.4228 0.6426
42.7000 28.4362 0.6462
42.7200 28.4496 0.6418
42.7400 28.4629 0.6428
42.7600 28.4761 0.6432
42.7800 28.4895 0.6465
42.8000 28.5028 0.6337
42.8200 28.5161 0.6425
42.8400 28.5294 0.6450
42.8600 28.5427 0.6333
42.8800 28.5561 0.6451
42.9000 28.5694 0.6360
42.9200 28.5828 0.6339
42.9400 28.5961 0.6451
42.9600 28.6095 0.6345
42.9800 28.6228 0.6376
43.0000 28.6362 0.6373
43.0200 28.6495 0.6311
43.0400 28.6628 0.6341
43.0600 28.6762 0.6400
43.0800 28.6895 0.6301
43.1000 28.7028 0.6375
43.1200 28.7161 0.6379
43.1400 28.7295 0.6228
43.1600 28.7428 0.6390
43.1800 28.7561 0.6363
43.2000 28.7694 0.6250
43.2200 28.7827 0.6337
43.2400 28.7961 0.6299
43.2600 28.8094 0.6264
43.2800 28.8227 0.6369
43.3000 28.8361 0.6260
43.3200 28.8495 0.6297
43.3400 28.8629 0.6338
43.3600 28.8762 0.6216
43.3800 28.8896 0.6333
43.4000 28.9029 0.6353
43.4200 28.9162 0.6198
43.4400 28.9296 0.6366
43.4600 28.9428 0.6318
43.4800 28.9561 0.6164
43.5000 28.9694 0.6376
43.5200 28.9827 0.6365
43.5400 28.9961 0.6238
43.5600 29.0094 0.6364
43.5800 29.0228 0.6249
43.6000 29.0361 0.6238
43.6200 29.0495 0.6376
43.6400 29.0628 0.6304
43.6600 29.0762 0.6281
43.6800 29.0895 0.6343
43.7000 29.1029 0.6239
43.7200 29.1162 0.6340
43.7400 29.1295 0.6294
43.7600 29.1428 0.6203
43.7800 29.1562 0.6344
43.8000 29.1695 0.6278
43.8200 29.1828 0.6224
43.8400 29.1961 0.6328
43.8600 29.2094 0.6229
43.8800 29.2228 0.6303
43.9000 29.2361 0.6285
43.9200 29.2494 0.6139
43.9400 29.2627 0.6328
43.9600 29.2761 0.6306
43.9800 29.2894 0.6102
44.0000 29.3028 0.6320
44.0200 29.3161 0.6287
44.0400 29.3295 0.6142
44.0600 29.3428 0.6340
44.0800 29.3562 0.6231
44.1000 29.3695 0.6131
44.1200 29.3828 0.6391
44.1400 29.3962 0.6129
44.1600 29.4095 0.6127
44.1800 29.4228 0.6389
44.2000 29.4361 0.6140
44.2200 29.4494 0.6182
44.2400 29.4628 0.6348
44.2600 29.4761 0.6124
44.2800 29.4894 0.6212
44.3000 29.5027 0.6328
44.3200 29.5161 0.6066
44.3400 29.5294 0.6188
44.3600 29.5428 0.6316
44.3800 29.5561 0.6062
44.4000 29.5694 0.6247
44.4200 29.5828 0.6273
44.4400 29.5962 0.6022
44.4600 29.6095 0.6244
44.4800 29.6228 0.6253
44.5000 29.6362 0.6036
44.5200 29.6495 0.6219
44.5400 29.6628 0.6206
44.5600 29.6761 0.6058
44.5800 29.6894 0.6207
44.6000 29.7028 0.6180
44.6200 29.7161 0.6046
44.6400 29.7294 0.6172
44.6600 29.7428 0.6184
44.6800 29.7561 0.6065
44.7000 29.7695 0.6124
44.7200 29.7828 0.6158
44.7400 29.7961 0.6071
44.7600 29.8094 0.6091
44.7800 29.8228 0.6132
44.8000 29.8362 0.6047
44.8200 29.8495 0.6063
44.8400 29.8628 0.6149
44.8600 29.8762 0.5977
44.8800 29.8895 0.6043
44.9000 29.9029 0.6109
44.9200 29.9162 0.5964
44.9400 29.9295 0.6052
44.9600 29.9428 0.6055
44.9800 29.9561 0.5932
45.0000 29.9694 0.6035
45.0200 29.9827 0.6052
45.0400 29.9961 0.5925
45.0600 30.0094 0.6074
45.0800 30.0228 0.6034
45.1000 30.0361 0.5866
45.1200 30.0495 0.6055
45.1400 30.0629 0.6050
45.1600 30.0762 0.5842
45.1800 30.0895 0.6032
45.2000 30.1028 0.6021
45.2200 30.1162 0.5849
45.2400 30.1295 0.6036
45.2600 30.1428 0.5968
45.2800 30.1561 0.5895
45.3000 30.1694 0.6029
45.3200 30.1828 0.5935
45.3400 30.1961 0.5906
45.3600 30.2094 0.6014
45.3800 30.2227 0.5896
45.4000 30.2361 0.5918
45.4200 30.2494 0.5991
45.4400 30.2628 0.5920
45.4600 30.2761 0.5909
45.4800 30.2894 0.5992
45.5000 30.3028 0.5928
45.5200 30.3162 0.5886
45.5400 30.3295 0.5949
45.5600 30.3428 0.5880
45.5800 30.3562 0.5942
45.6000 30.3695 0.5923
45.6200 30.3828 0.5886
45.6400 30.3961 0.5930
45.6600 30.4094 0.5918
45.6800 30.4227 0.5878
45.7000 30.4361 0.5933
45.7200 30.4494 0.5896
45.7400 30.4627 0.5889
45.7600 30.4761 0.5884
45.7800 30.4895 0.5853
45.8000 30.5028 0.5875
45.8200 30.5161 0.5907
45.8400 30.5295 0.5858
45.8600 30.5428 0.5857
45.8800 30.5562 0.5912
45.9000 30.5695 0.5820
45.9200 30.5828 0.5846
45.9400 30.5961 0.5887
45.9600 30.6095 0.5807
45.9800 30.6228 0.5861
46.0000 30.6362 0.5873
46.0200 30.6495 0.5837
46.0400 30.6628 0.5857
46.0600 30.6762 0.5838
46.0800 30.6895 0.5763
46.1000 30.7028 0.5883
46.1200 30.7161 0.5817
46.1400 30.7294 0.5756
46.1600 30.7428 0.5865
46.1800 30.7561 0.5823
46.2000 30.7694 0.5797
46.2200 30.7828 0.5843
46.2400 30.7961 0.5835
46.2600 30.8095 0.5783
46.2800 30.8228 0.5799
46.3000 30.8361 0.5803
46.3200 30.8495 0.5778
46.3400 30.8629 0.5816
46.3600 30.8762 0.5782
46.3800 30.8895 0.5799
46.4000 30.9028 0.5775
46.4200 30.9162 0.5791
46.4400 30.9295 0.5791
46.4600 30.9428 0.5718
46.4800 30.9561 0.5802
46.5000 30.9694 0.5726
46.5200 30.9827 0.5747
46.5400 30.9961 0.5749
46.5600 31.0094 0.5746
46.5800 31.0228 0.5745
46.6000 31.0362 0.5707
46.6200 31.0495 0.5739
46.6400 31.0628 0.5760
46.6600 31.0761 0.5719
46.6800 31.0895 0.5694
46.7000 31.1028 0.5731
46.7200 31.1161 0.5698
46.7400 31.1295 0.5709
46.7600 31.1428 0.5734
46.7800 31.1562 0.5671
46.8000 31.1695 0.5719
46.8200 31.1828 0.5723
46.8400 31.1961 0.5674
46.8600 31.2094 0.5707
46.8800 31.2228 0.5680
46.9000 31.2361 0.5664
46.9200 31.2494 0.5733
46.9400 31.2628 0.5692
46.9600 31.2762 0.5662
46.9800 31.2895 0.5709
47.0000 31.3028 0.5712
47.0200 31.3162 0.5681
47.0400 31.3295 0.5684
47.0600 31.3429 0.5719
47.0800 31.3562 0.5679
47.1000 31.3695 0.5728
47.1200 31.3828 0.5735
47.1400 31.3961 0.5682
47.1600 31.4094 0.5714
47.1800 31.4227 0.5708
47.2000 31.4361 0.5703
47.2200 31.4494 0.5694
47.2400 31.4628 0.5661
47.2600 31.4761 0.5694
47.2800 31.4894 0.5707
47.3000 31.5028 0.5713
47.3200 31.5162 0.5632
47.3400 31.5295 0.5713
47.3600 31.5428 0.5707
47.3800 31.5561 0.5653
47.4000 31.5695 0.5695
47.4200 31.5828 0.5683
47.4400 31.5961 0.5639
47.4600 31.6095 0.5692
47.4800 31.6228 0.5677
47.5000 31.6361 0.5679
47.5200 31.6495 0.5681
47.5400 31.6628 0.5681
47.5600 31.6761 0.5686
47.5800 31.6894 0.5661
47.6000 31.7028 0.5633
47.6200 31.7161 0.5637
47.6400 31.7294 0.5640
47.6600 31.7428 0.5609
47.6800 31.7562 0.5647
47.7000 31.7695 0.5645
47.7200 31.7828 0.5535
47.7400 31.7962 0.5660
47.7600 31.8095 0.5634
47.7800 31.8229 0.5564
47.8000 31.8362 0.5684
47.8200 31.8495 0.5653
47.8400 31.8628 0.5582
47.8600 31.8761 0.5637
47.8800 31.8895 0.5591
47.9000 31.9028 0.5613
47.9200 31.9161 0.5653
47.9400 31.9294 0.5598
47.9600 31.9428 0.5618
47.9800 31.9561 0.5603
48.0000 31.9694 0.5632
48.0200 31.9828 0.5551
48.0400 31.9961 0.5608
48.0600 32.0095 0.5627
48.0800 32.0228 0.5547
48.1000 32.0361 0.5598
48.1200 32.0495 0.5623
48.1400 32.0628 0.5547
48.1600 32.0761 0.5573
48.1800 32.0895 0.5613
48.2000 32.1028 0.5508
48.2200 32.1162 0.5544
48.2400 32.1295 0.5592
48.2600 32.1428 0.5484
48.2800 32.1561 0.5582
48.3000 32.1694 0.5602
48.3200 32.1827 0.5426
48.3400 32.1961 0.5543
48.3600 32.2094 0.5580
48.3800 32.2228 0.5457
48.4000 32.2362 0.5531
48.4200 32.2495 0.5550
48.4400 32.2629 0.5425
48.4600 32.2762 0.5546
48.4800 32.2895 0.5512
48.5000 32.3029 0.5439
48.5200 32.3162 0.5526
48.5400 32.3295 0.5486
48.5600 32.3428 0.5439
48.5800 32.3561 0.5531
48.6000 32.3694 0.5459
48.6200 32.3828 0.5418
48.6400 32.3961 0.5503
48.6600 32.4094 0.5457
48.6800 32.4228 0.5365
48.7000 32.4361 0.5486
48.7200 32.4494 0.5467
48.7400 32.4628 0.5373
48.7600 32.4762 0.5419
48.7800 32.4895 0.5424
48.8000 32.5029 0.5346
48.8200 32.5162 0.5440
48.8400 32.5295 0.5400
48.8600 32.5429 0.5342
48.8800 32.5562 0.5404
48.9000 32.5695 0.5446
48.9200 32.5828 0.5297
48.9400 32.5961 0.5356
48.9600 32.6095 0.5366
48.9800 32.6228 0.5278
49.0000 32.6361 0.5402
49.0200 32.6494 0.5377
49.0400 32.6628 0.5269
49.0600 32.6761 0.5373
49.0800 32.6894 0.5398
49.1000 32.7028 0.5233
49.1200 32.7162 0.5388
49.1400 32.7295 0.5372
49.1600 32.7428 0.5216
49.1800 32.7561 0.5402
49.2000 32.7695 0.5381
49.2200 32.7828 0.5296
49.2400 32.7962 0.5393
49.2600 32.8095 0.5332
49.2800 32.8228 0.5307
49.3000 32.8362 0.5371
49.3200 32.8495 0.5319
49.3400 32.8628 0.5310
49.3600 32.8760 0.5389
49.3800 32.8894 0.5303
49.4000 32.9028 0.5317
49.4200 32.9161 0.5360
49.4400 32.9295 0.5338
49.4600 32.9428 0.5314
49.4800 32.9562 0.5377
49.5000 32.9695 0.5322
49.5200 32.9828 0.5286
49.5400 32.9962 0.5339
49.5600 33.0095 0.5356
49.5800 33.0228 0.5275
49.6000 33.0362 0.5376
49.6200 33.0494 0.5329
49.6400 33.0628 0.5300
49.6600 33.0761 0.5333
49.6800 33.0895 0.5371
49.7000 33.1028 0.5298
49.7200 33.1161 0.5302
49.7400 33.1294 0.5378
49.7600 33.1428 0.5252
49.7800 33.1561 0.5266
49.8000 33.1694 0.5420
49.8200 33.1828 0.5212
49.8400 33.1961 0.5256
49.8600 33.2095 0.5392
49.8800 33.2228 0.5185
49.9000 33.2362 0.5249
49.9200 33.2495 0.5363
49.9400 33.2629 0.5183
49.9600 33.2762 0.5272
49.9800 33.2895 0.5334
50.0000 33.3028 0.5154
50.0200 33.3161 0.5260
50.0400 33.3295 0.5259
50.0600 33.3428 0.5136
50.0800 33.3561 0.5245
50.1000 33.3694 0.5238
50.1200 33.3828 0.5163
50.1400 33.3961 0.5234
50.1600 33.4095 0.5209
50.1800 33.4228 0.5153
50.2000 33.4361 0.5213
50.2200 33.4495 0.5187
50.2400 33.4628 0.5116
50.2600 33.4761 0.5210
50.2800 33.4895 0.5144
50.3000 33.5028 0.5147
50.3200 33.5162 0.5167
50.3400 33.5295 0.5117
50.3600 33.5428 0.5164
50.3800 33.5562 0.5119
50.4000 33.5695 0.5143
50.4200 33.5828 0.5161
50.4400 33.5961 0.5079
50.4600 33.6094 0.5174
50.4800 33.6227 0.5100
50.5000 33.6361 0.5056
50.5200 33.6494 0.5152
50.5400 33.6627 0.5107
50.5600 33.6761 0.4980
50.5800 33.6895 0.5168
50.6000 33.7029 0.5058
50.6200 33.7162 0.4973
50.6400 33.7295 0.5135
50.6600 33.7429 0.5031
50.6800 33.7562 0.4992
50.7000 33.7695 0.5134
50.7200 33.7827 0.4997
50.7400 33.7961 0.4990
50.7600 33.8094 0.5078
50.7800 33.8228 0.4993
50.8000 33.8361 0.5006
50.8200 33.8494 0.5089
50.8400 33.8628 0.4940
50.8600 33.8761 0.4993
50.8800 33.8895 0.5109
50.9000 33.9028 0.4945
50.9200 33.9162 0.5003
50.9400 33.9295 0.5092
50.9600 33.9428 0.5014
50.9800 33.9561 0.5059
51.0000 33.9694 0.5132
51.0200 33.9828 0.5003
51.0400 33.9961 0.5016
51.0600 34.0094 0.5121
51.0800 34.0228 0.5039
51.1000 34.0361 0.5003
51.1200 34.0494 0.5106
51.1400 34.0628 0.5006
51.1600 34.0761 0.4982
51.1800 34.0894 0.5104
51.2000 34.1028 0.5043
51.2200 34.1161 0.4978
51.2400 34.1295 0.5117
51.2600 34.1428 0.5058
51.2800 34.1562 0.4994
51.3000 34.1695 0.5059
51.3200 34.1828 0.5003
51.3400 34.1961 0.5025
51.3600 34.2095 0.5094
51.3800 34.2228 0.4978
51.4000 34.2362 0.5028
51.4200 34.2495 0.5096
51.4400 34.2628 0.4949
51.4600 34.2761 0.5024
51.4800 34.2895 0.5093
51.5000 34.3028 0.4935
51.5200 34.3161 0.5006
51.5400 34.3294 0.5036
51.5600 34.3427 0.4888
51.5800 34.3561 0.5049
51.6000 34.3694 0.5014
51.6200 34.3828 0.4900
51.6400 34.3961 0.5008
51.6600 34.4095 0.4951
51.6800 34.4229 0.4924
51.7000 34.4362 0.4986
51.7200 34.4495 0.4923
51.7400 34.4629 0.4892
51.7600 34.4762 0.4952
51.7800 34.4895 0.4892
51.8000 34.5028 0.4906
51.8200 34.5161 0.4965
51.8400 34.5295 0.4859
51.8600 34.5428 0.4941
51.8800 34.5561 0.4879
51.9000 34.5694 0.4897
51.9200 34.5828 0.4915
51.9400 34.5961 0.4849
51.9600 34.6094 0.4878
51.9800 34.6227 0.4912
52.0000 34.6361 0.4831
52.0200 34.6495 0.4835
52.0400 34.6628 0.4865
52.0600 34.6761 0.4850
52.0800 34.6895 0.4847
52.1000 34.7029 0.4886
52.1200 34.7162 0.4842
52.1400 34.7295 0.4829
52.1600 34.7428 0.4871
52.1800 34.7561 0.4864
52.2000 34.7695 0.4834
52.2200 34.7828 0.4819
52.2400 34.7961 0.4865
52.2600 34.8094 0.4819
52.2800 34.8227 0.4883
52.3000 34.8361 0.4827
52.3200 34.8494 0.4814
52.3400 34.8628 0.4867
52.3600 34.8762 0.4784
52.3800 34.8895 0.4794
52.4000 34.9029 0.4867
52.4200 34.9162 0.4783
52.4400 34.9295 0.4790
52.4600 34.9428 0.4850
52.4800 34.9562 0.4811
52.5000 34.9695 0.4751
52.5200 34.9828 0.4871
52.5400 34.9961 0.4833
52.5600 35.0095 0.4770
52.5800 35.0228 0.4819
52.6000 35.0361 0.4810
52.6200 35.0494 0.4805
52.6400 35.0627 0.4850
52.6600 35.0761 0.4818
52.6800 35.0894 0.4788
52.7000 35.1028 0.4865
52.7200 35.1161 0.4789
52.7400 35.1295 0.4784
52.7600 35.1429 0.4855
52.7800 35.1562 0.4766
52.8000 35.1695 0.4861
52.8200 35.1828 0.4820
52.8400 35.1962 0.4775
52.8600 35.2095 0.4819
52.8800 35.2228 0.4809
52.9000 35.2361 0.4770
52.9200 35.2494 0.4828
52.9400 35.2628 0.4791
52.9600 35.2761 0.4762
52.9800 35.2894 0.4803
53.0000 35.3028 0.4774
53.0200 35.3162 0.4773
53.0400 35.3295 0.4756
53.0600 35.3428 0.4748
53.0800 35.3562 0.4772
53.1000 35.3695 0.4740
53.1200 35.3828 0.4730
53.1400 35.3961 0.4743
53.1600 35.4095 0.4777
53.1800 35.4228 0.4735
53.2000 35.4361 0.4715
53.2200 35.4495 0.4746
53.2400 35.4628 0.4666
53.2600 35.4761 0.4728
53.2800 35.4895 0.4728
53.3000 35.5028 0.4650
53.3200 35.5161 0.4755
53.3400 35.5294 0.4636
53.3600 35.5427 0.4618
53.3800 35.5561 0.4735
53.4000 35.5694 0.4594
53.4200 35.5828 0.4621
53.4400 35.5961 0.4715
53.4600 35.6095 0.4579
53.4800 35.6228 0.4581
53.5000 35.6362 0.4755
53.5200 35.6495 0.4560
53.5400 35.6628 0.4616
53.5600 35.6762 0.4669
53.5800 35.6895 0.4536
53.6000 35.7028 0.4661
53.6200 35.7161 0.4670
53.6400 35.7295 0.4542
53.6600 35.7428 0.4636
53.6800 35.7561 0.4626
53.7000 35.7694 0.4536
53.7200 35.7827 0.4645
53.7400 35.7961 0.4617
53.7600 35.8094 0.4509
53.7800 35.8228 0.4600
53.8000 35.8361 0.4602
53.8200 35.8495 0.4531
53.8400 35.8628 0.4566
53.8600 35.8762 0.4639
53.8800 35.8895 0.4515
53.9000 35.9028 0.4545
53.9200 35.9162 0.4596
53.9400 35.9295 0.4534
53.9600 35.9428 0.4563
53.9800 35.9561 0.4604
54.0000 35.9695 0.4511
54.0200 35.9828 0.4501
54.0400 35.9961 0.4609
54.0600 36.0094 0.4501
54.0800 36.0227 0.4492
54.1000 36.0361 0.4602
54.1200 36.0495 0.4450
54.1400 36.0628 0.4409
54.1600 36.0761 0.4630
54.1800 36.0895 0.4461
54.2000 36.1028 0.4370
54.2200 36.1161 0.4619
54.2400 36.1295 0.4368
54.2600 36.1428 0.4467
54.2800 36.1562 0.4593
54.3000 36.1695 0.4310
54.3200 36.1828 0.4492
54.3400 36.1961 0.4548
54.3600 36.2095 0.4314
54.3800 36.2228 0.4461
54.4000 36.2361 0.4509
54.4200 36.2494 0.4314
54.4400 36.2627 0.4473
54.4600 36.2761 0.4464
54.4800 36.2894 0.4377
54.5000 36.3028 0.4476
54.5200 36.3161 0.4456
54.5400 36.3295 0.4375
54.5600 36.3429 0.4438
54.5800 36.3562 0.4479
54.6000 36.3695 0.4359
54.6200 36.3828 0.4459
54.6400 36.3962 0.4439
54.6600 36.4095 0.4375
54.6800 36.4228 0.4431
54.7000 36.4361 0.4431
54.7200 36.4494 0.4392
54.7400 36.4628 0.4370
54.7600 36.4761 0.4439
54.7800 36.4894 0.4357
54.8000 36.5028 0.4389
54.8200 36.5161 0.4410
54.8400 36.5294 0.4297
54.8600 36.5428 0.4378
54.8800 36.5561 0.4397
54.9000 36.5695 0.4322
54.9200 36.5828 0.4357
54.9400 36.5962 0.4395
54.9600 36.6095 0.4323
54.9800 36.6228 0.4340
55.0000 36.6362 0.4368
55.0200 36.6495 0.4308
55.0400 36.6628 0.4352
55.0600 36.6761 0.4304
55.0800 36.6894 0.4363
55.1000 36.7028 0.4405
55.1200 36.7161 0.4290
55.1400 36.7294 0.4356
55.1600 36.7427 0.4356
55.1800 36.7561 0.4360
55.2000 36.7694 0.4305
55.2200 36.7828 0.4356
55.2400 36.7961 0.4363
55.2600 36.8095 0.4328
55.2800 36.8228 0.4329
55.3000 36.8361 0.4306
55.3200 36.8494 0.4336
55.3400 36.8628 0.4278
55.3600 36.8762 0.4310
55.3800 36.8895 0.4281
55.4000 36.9028 0.4253
55.4200 36.9162 0.4330
55.4400 36.9295 0.4262
55.4600 36.9429 0.4277
55.4800 36.9562 0.4300
55.5000 36.9694 0.4287
55.5200 36.9827 0.4285
55.5400 36.9960 0.4282
55.5600 37.0094 0.4282
55.5800 37.0227 0.4253
55.6000 37.0361 0.4313
55.6200 37.0495 0.4241
55.6400 37.0629 0.4216
55.6600 37.0762 0.4279
55.6800 37.0896 0.4243
55.7000 37.1029 0.4253
55.7200 37.1162 0.4255
55.7400 37.1296 0.4196
55.7600 37.1428 0.4233
55.7800 37.1561 0.4235
55.8000 37.1695 0.4256
55.8200 37.1828 0.4226
55.8400 37.1961 0.4198
55.8600 37.2094 0.4239
55.8800 37.2227 0.4256
55.9000 37.2361 0.4231
55.9200 37.2494 0.4189
55.9400 37.2628 0.4166
55.9600 37.2761 0.4249
55.9800 37.2895 0.4177
56.0000 37.3028 0.4210
56.0200 37.3162 0.4194
56.0400 37.3295 0.4162
56.0600 37.3428 0.4220
56.0800 37.3562 0.4193
56.1000 37.3695 0.4170
56.1200 37.3828 0.4231
56.1400 37.3961 0.4187
56.1600 37.4095 0.4123
56.1800 37.4228 0.4212
56.2000 37.4361 0.4166
56.2200 37.4494 0.4081
56.2400 37.4627 0.4200
56.2600 37.4761 0.4090
56.2800 37.4894 0.4060
56.3000 37.5028 0.4162
56.3200 37.5161 0.4085
56.3400 37.5295 0.4086
56.3600 37.5428 0.4082
56.3800 37.5562 0.4066
56.4000 37.5695 0.4010
56.4200 37.5828 0.4080
56.4400 37.5962 0.4020
56.4600 37.6095 0.3997
56.4800 37.6228 0.4080
56.5000 37.6361 0.3967
56.5200 37.6495 0.3982
56.5400 37.6628 0.4044
56.5600 37.6761 0.3915
56.5800 37.6894 0.4038
56.6000 37.7027 0.4021
56.6200 37.7161 0.3941
56.6400 37.7294 0.3989
56.6600 37.7428 0.3999
56.6800 37.7561 0.3928
56.7000 37.7695 0.3984
56.7200 37.7829 0.3955
56.7400 37.7962 0.3906
56.7600 37.8095 0.3977
56.7800 37.8228 0.3955
56.8000 37.8362 0.3876
56.8200 37.8495 0.3979
56.8400 37.8628 0.3940
56.8600 37.8761 0.3883
56.8800 37.8894 0.3966
56.9000 37.9028 0.3910
56.9200 37.9161 0.3820
56.9400 37.9294 0.3973
56.9600 37.9428 0.3893
56.9800 37.9561 0.3807
57.0000 37.9694 0.4017
57.0200 37.9828 0.3867
57.0400 37.9961 0.3770
57.0600 38.0095 0.3968
57.0800 38.0229 0.3842
57.1000 38.0362 0.3770
57.1200 38.0495 0.3951
57.1400 38.0628 0.3851
57.1600 38.0762 0.3779
57.1800 38.0896 0.3939
57.2000 38.1029 0.3836
57.2200 38.1161 0.3791
57.2400 38.1294 0.3918
57.2600 38.1428 0.3809
57.2800 38.1561 0.3821
57.3000 38.1694 0.3916
57.3200 38.1827 0.3806
57.3400 38.1961 0.3835
57.3600 38.2094 0.3934
57.3800 38.2228 0.3815
57.4000 38.2361 0.3811
57.4200 38.2495 0.3880
57.4400 38.2628 0.3759
57.4600 38.2762 0.3787
57.4800 38.2895 0.3887
57.5000 38.3028 0.3770
57.5200 38.3162 0.3826
57.5400 38.3295 0.3792
57.5600 38.3429 0.3767
57.5800 38.3562 0.3824
57.6000 38.3695 0.3781
57.6200 38.3828 0.3797
57.6400 38.3961 0.3797
57.6600 38.4094 0.3777
57.6800 38.4227 0.3813
57.7000 38.4360 0.3771
57.7200 38.4494 0.3764
57.7400 38.4627 0.3815
57.7600 38.4761 0.3739
57.7800 38.4894 0.3753
57.8000 38.5028 0.3785
57.8200 38.5162 0.3685
57.8400 38.5295 0.3711
57.8600 38.5429 0.3830
57.8800 38.5562 0.3649
57.9000 38.5696 0.3705
57.9200 38.5828 0.3802
57.9400 38.5961 0.3596
57.9600 38.6094 0.3732
57.9800 38.6227 0.3701
58.0000 38.6361 0.3483
58.0200 38.6494 0.3966
58.0400 38.6627 0.3647
58.0600 38.6761 0.3491
58.0800 38.6895 0.3843
58.1000 38.7028 0.3553
58.1200 38.7162 0.3499
58.1400 38.7295 0.3778
58.1600 38.7429 0.3542
58.1800 38.7562 0.3531
58.2000 38.7695 0.3686
58.2200 38.7828 0.3527
58.2400 38.7962 0.3607
58.2600 38.8095 0.3624
58.2800 38.8228 0.3528
58.3000 38.8361 0.3620
58.3200 38.8495 0.3510
58.3400 38.8628 0.3550
58.3600 38.8761 0.3585
58.3800 38.8894 0.3510
58.4000 38.9028 0.3566
58.4200 38.9161 0.3574
58.4400 38.9295 0.3429
58.4600 38.9428 0.3568
58.4800 38.9561 0.3534
58.5000 38.9695 0.3447
58.5200 38.9829 0.3617
58.5400 38.9962 0.3446
58.5600 39.0095 0.3409
58.5800 39.0228 0.3597
58.6000 39.0362 0.3428
58.6200 39.0495 0.3421
58.6400 39.0629 0.3623
58.6600 39.0761 0.3365
58.6800 39.0894 0.3436
58.7000 39.1028 0.3625
58.7200 39.1161 0.3378
58.7400 39.1294 0.3477
58.7600 39.1427 0.3608
58.7800 39.1561 0.3306
58.8000 39.1694 0.3520
58.8200 39.1828 0.3540
58.8400 39.1961 0.3319
58.8600 39.2094 0.3541
58.8800 39.2228 0.3469
58.9000 39.2362 0.3325
58.9200 39.2495 0.3528
58.9400 39.2628 0.3466
58.9600 39.2762 0.3309
58.9800 39.2895 0.3483
59.0000 39.3028 0.3415
59.0200 39.3161 0.3328
59.0400 39.3294 0.3520
59.0600 39.3428 0.3352
59.0800 39.3561 0.3335
59.1000 39.3694 0.3452
59.1200 39.3828 0.3370
59.1400 39.3961 0.3380
59.1600 39.4094 0.3441
59.1800 39.4228 0.3368
59.2000 39.4361 0.3374
59.2200 39.4494 0.3437
59.2400 39.4628 0.3389
59.2600 39.4762 0.3425
59.2800 39.4895 0.3385
59.3000 39.5028 0.3393
59.3200 39.5162 0.3452
59.3400 39.5295 0.3410
59.3600 39.5429 0.3443
59.3800 39.5562 0.3415
59.4000 39.5695 0.3429
59.4200 39.5828 0.3469
59.4400 39.5961 0.3402
59.4600 39.6094 0.3495
59.4800 39.6227 0.3474
59.5000 39.6361 0.3441
59.5200 39.6494 0.3434
59.5400 39.6628 0.3504
59.5600 39.6761 0.3407
59.5800 39.6895 0.3402
59.6000 39.7028 0.3520
59.6200 39.7162 0.3400
59.6400 39.7295 0.3395
59.6600 39.7428 0.3519
59.6800 39.7562 0.3421
59.7000 39.7695 0.3408
59.7200 39.7829 0.3467
59.7400 39.7962 0.3406
59.7600 39.8095 0.3393
59.7800 39.8228 0.3445
59.8000 39.8361 0.3382
59.8200 39.8495 0.3346
59.8400 39.8628 0.3427
59.8600 39.8761 0.3321
59.8800 39.8894 0.3293
59.9000 39.9028 0.3390
59.9200 39.9161 0.3275
59.9400 39.9295 0.3268
59.9600 39.9428 0.3318
59.9800 39.9562 0.3211
60.0000 39.9695 0.3206
60.0200 39.9828 0.3293
60.0400 39.9961 0.3129
60.0460 40.0000 0.2970
