Raw Data
Time Displacement Force
(s) (mm) (N)
0.0000 0.0000 0.2447
0.0200 0.0001 0.2631
0.0400 0.0021 0.3239
0.0600 0.0099 0.3198
0.0800 0.0217 0.2393
0.1000 0.0341 0.2469
0.1200 0.0468 0.2746
0.1400 0.0603 0.2467
0.1600 0.0744 0.2549
0.1800 0.0886 0.2521
0.2000 0.1025 0.2403
0.2200 0.1161 0.2542
0.2400 0.1294 0.2563
0.2600 0.1427 0.2470
0.2800 0.1561 0.2613
0.3000 0.1695 0.2576
0.3200 0.1828 0.2474
0.3400 0.1962 0.2678
0.3600 0.2095 0.2528
0.3800 0.2229 0.2541
0.4000 0.2362 0.2641
0.4200 0.2495 0.2514
0.4400 0.2628 0.2634
0.4600 0.2761 0.2602
0.4800 0.2895 0.2547
0.5000 0.3028 0.2609
0.5200 0.3161 0.2557
0.5400 0.3294 0.2535
0.5600 0.3428 0.2626
0.5800 0.3561 0.2545
0.6000 0.3695 0.2544
0.6200 0.3829 0.2637
0.6400 0.3962 0.2526
0.6600 0.4096 0.2559
0.6800 0.4230 0.2644
0.7000 0.4363 0.2472
0.7200 0.4496 0.2567
0.7400 0.4629 0.2589
0.7600 0.4762 0.2494
0.7800 0.4896 0.2523
0.8000 0.5029 0.2560
0.8200 0.5162 0.2529
0.8400 0.5295 0.2543
0.8600 0.5429 0.2507
0.8800 0.5561 0.2505
0.9000 0.5694 0.2567
0.9200 0.5828 0.2537
0.9400 0.5961 0.2460
0.9600 0.6095 0.2530
0.9800 0.6228 0.2483
1.0000 0.6362 0.2490
1.0200 0.6495 0.2532
1.0400 0.6629 0.2456
1.0600 0.6762 0.2499
1.0800 0.6895 0.2528
1.1000 0.7029 0.2485
1.1200 0.7162 0.2517
1.1400 0.7295 0.2467
1.1600 0.7428 0.2521
1.1800 0.7562 0.2507
1.2000 0.7695 0.2442
1.2200 0.7829 0.2516
1.2400 0.7962 0.2486
1.2600 0.8095 0.2396
1.2800 0.8228 0.2530
1.3000 0.8362 0.2464
1.3200 0.8495 0.2390
1.3400 0.8628 0.2539
1.3600 0.8762 0.2439
1.3800 0.8895 0.2453
1.4000 0.9029 0.2551
1.4200 0.9162 0.2354
1.4400 0.9295 0.2479
1.4600 0.9429 0.2559
1.4800 0.9562 0.2328
1.5000 0.9696 0.2448
1.5200 0.9829 0.2530
1.5400 0.9962 0.2375
1.5600 1.0095 0.2454
1.5800 1.0228 0.2546
1.6000 1.0362 0.2342
1.6200 1.0495 0.2428
1.6400 1.0628 0.2509
1.6600 1.0761 0.2338
1.6800 1.0895 0.2464
1.7000 1.1028 0.2517
1.7200 1.1162 0.2336
1.7400 1.1296 0.2488
1.7600 1.1429 0.2463
1.7800 1.1563 0.2336
1.8000 1.1696 0.2483
1.8200 1.1829 0.2455
1.8400 1.1962 0.2374
1.8600 1.2096 0.2471
1.8800 1.2229 0.2438
1.9000 1.2362 0.2389
1.9200 1.2495 0.2443
1.9400 1.2629 0.2393
1.9600 1.2762 0.2354
1.9800 1.2895 0.2417
2.0000 1.3028 0.2408
2.0200 1.3161 0.2369
2.0400 1.3295 0.2407
2.0600 1.3428 0.2420
2.0800 1.3562 0.2344
2.1000 1.3695 0.2405
2.1200 1.3829 0.2365
2.1400 1.3963 0.2342
2.1600 1.4096 0.2374
2.1800 1.4229 0.2369
2.2000 1.4362 0.2337
2.2200 1.4496 0.2368
2.2400 1.4628 0.2350
2.2600 1.4761 0.2298
2.2800 1.4895 0.2395
2.3000 1.5028 0.2370
2.3200 1.5161 0.2296
2.3400 1.5295 0.2381
2.3600 1.5428 0.2393
2.3800 1.5562 0.2278
2.4000 1.5696 0.2366
2.4200 1.5829 0.2395
2.4400 1.5962 0.2316
2.4600 1.6095 0.2390
2.4800 1.6229 0.2342
2.5000 1.6362 0.2316
2.5200 1.6495 0.2464
2.5400 1.6628 0.2320
2.5600 1.6762 0.2302
2.5800 1.6896 0.2384
2.6000 1.7029 0.2290
2.6200 1.7162 0.2337
2.6400 1.7296 0.2390
2.6600 1.7429 0.2293
2.6800 1.7562 0.2332
2.7000 1.7695 0.2363
2.7200 1.7828 0.2299
2.7400 1.7962 0.2344
2.7600 1.8095 0.2354
2.7800 1.8228 0.2302
2.8000 1.8361 0.2322
2.8200 1.8495 0.2305
2.8400 1.8629 0.2292
2.8600 1.8762 0.2316
2.8800 1.8895 0.2285
2.9000 1.9029 0.2317
2.9200 1.9162 0.2323
2.9400 1.9296 0.2227
2.9600 1.9429 0.2257
2.9800 1.9562 0.2337
3.0000 1.9695 0.2238
3.0200 1.9829 0.2266
3.0400 1.9962 0.2268
3.0600 2.0095 0.2267
3.0800 2.0228 0.2241
3.1000 2.0361 0.2253
3.1200 2.0495 0.2315
3.1400 2.0628 0.2226
3.1600 2.0762 0.2275
3.1800 2.0895 0.2286
3.2000 2.1029 0.2219
3.2200 2.1163 0.2268
3.2400 2.1296 0.2273
3.2600 2.1429 0.2271
3.2800 2.1562 0.2230
3.3000 2.1696 0.2263
3.3200 2.1829 0.2225
3.3400 2.1962 0.2246
3.3600 2.2095 0.2266
3.3800 2.2229 0.2216
3.4000 2.2362 0.2221
3.4200 2.2495 0.2268
3.4400 2.2628 0.2222
3.4600 2.2761 0.2208
3.4800 2.2895 0.2240
3.5000 2.3028 0.2263
3.5200 2.3162 0.2188
3.5400 2.3295 0.2236
3.5600 2.3429 0.2243
3.5800 2.3562 0.2209
3.6000 2.3696 0.2172
3.6200 2.3829 0.2213
3.6400 2.3963 0.2193
3.6600 2.4096 0.2149
3.6800 2.4229 0.2187
3.7000 2.4362 0.2197
3.7200 2.4495 0.2178
3.7400 2.4629 0.2169
3.7600 2.4762 0.2157
3.7800 2.4895 0.2166
3.8000 2.5028 0.2177
3.8200 2.5161 0.2198
3.8400 2.5295 0.2141
3.8600 2.5428 0.2170
3.8800 2.5561 0.2190
3.9000 2.5695 0.2133
3.9200 2.5829 0.2153
3.9400 2.5963 0.2133
3.9600 2.6096 0.2154
3.9800 2.6229 0.2135
4.0000 2.6362 0.2192
4.0200 2.6496 0.2121
4.0400 2.6629 0.2142
4.0600 2.6762 0.2217
4.0800 2.6895 0.2094
4.1000 2.7028 0.2133
4.1200 2.7162 0.2174
4.1400 2.7295 0.2092
4.1600 2.7428 0.2160
4.1800 2.7561 0.2119
4.2000 2.7695 0.2133
4.2200 2.7828 0.2140
4.2400 2.7961 0.2116
4.2600 2.8095 0.2067
4.2800 2.8229 0.2159
4.3000 2.8362 0.2153
4.3200 2.8496 0.2026
4.3400 2.8629 0.2173
4.3600 2.8762 0.2140
4.3800 2.8896 0.2064
4.4000 2.9029 0.2097
4.4200 2.9162 0.2169
4.4400 2.9295 0.2072
4.4600 2.9428 0.2080
4.4800 2.9562 0.2128
4.5000 2.9695 0.2069
4.5200 2.9828 0.2130
4.5400 2.9961 0.2087
4.5600 3.0095 0.2044
4.5800 3.0228 0.2141
4.6000 3.0362 0.2070
4.6200 3.0495 0.2075
4.6400 3.0628 0.2114
4.6600 3.0762 0.2032
4.6800 3.0895 0.2080
4.7000 3.1028 0.2136
4.7200 3.1162 0.2077
4.7400 3.1296 0.2020
4.7600 3.1429 0.2056
4.7800 3.1562 0.2104
4.8000 3.1696 0.2093
4.8200 3.1829 0.2063
4.8400 3.1962 0.2046
4.8600 3.2095 0.2093
4.8800 3.2228 0.2010
4.9000 3.2361 0.2078
4.9200 3.2494 0.2093
4.9400 3.2628 0.2083
4.9600 3.2761 0.2053
4.9800 3.2895 0.2044
5.0000 3.3029 0.2081
5.0200 3.3163 0.2105
5.0400 3.3296 0.1930
5.0600 3.3429 0.2078
5.0800 3.3563 0.2148
5.1000 3.3696 0.1920
5.1200 3.3829 0.2021
5.1400 3.3962 0.2143
5.1600 3.4095 0.1944
5.1800 3.4228 0.2051
5.2000 3.4362 0.2090
5.2200 3.4495 0.1916
5.2400 3.4628 0.2080
5.2600 3.4761 0.2037
5.2800 3.4895 0.1896
5.3000 3.5028 0.2095
5.3200 3.5161 0.2064
5.3400 3.5295 0.1873
5.3600 3.5429 0.2086
5.3800 3.5562 0.2040
5.4000 3.5696 0.1885
5.4200 3.5829 0.2047
5.4400 3.5963 0.1984
5.4600 3.6096 0.1924
5.4800 3.6229 0.2032
5.5000 3.6362 0.1975
5.5200 3.6495 0.1972
5.5400 3.6628 0.2022
5.5600 3.6762 0.1915
5.5800 3.6895 0.1940
5.6000 3.7028 0.2030
5.6200 3.7161 0.1918
5.6400 3.7295 0.1890
5.6600 3.7428 0.1987
5.6800 3.7562 0.1951
5.7000 3.7695 0.1896
5.7200 3.7829 0.1993
5.7400 3.7962 0.1937
5.7600 3.8096 0.1920
5.7800 3.8229 0.1937
5.8000 3.8362 0.1942
5.8200 3.8496 0.1940
5.8400 3.8629 0.1928
5.8600 3.8762 0.1954
5.8800 3.8896 0.1964
5.9000 3.9029 0.1922
5.9200 3.9162 0.1957
5.9400 3.9295 0.1911
5.9600 3.9428 0.1960
5.9800 3.9561 0.1942
6.0000 3.9695 0.1901
6.0200 3.9828 0.1950
6.0400 3.9962 0.1951
6.0600 4.0095 0.1933
6.0800 4.0229 0.1903
6.1000 4.0363 0.1954
6.1200 4.0496 0.1854
6.1400 4.0629 0.1937
6.1600 4.0762 0.1978
6.1800 4.0896 0.1855
6.2000 4.1029 0.1959
6.2200 4.1162 0.1954
6.2400 4.1295 0.1802
6.2600 4.1428 0.1989
6.2800 4.1562 0.1883
6.3000 4.1695 0.1859
6.3200 4.1828 0.1982
6.3400 4.1961 0.1871
6.3600 4.2095 0.1857
6.3800 4.2228 0.1950
6.4000 4.2361 0.1833
6.4200 4.2495 0.1884
6.4400 4.2628 0.1953
6.4600 4.2762 0.1811
6.4800 4.2896 0.1911
6.5000 4.3029 0.1924
6.5200 4.3162 0.1792
6.5400 4.3296 0.1916
6.5600 4.3429 0.1850
6.5800 4.3562 0.1839
6.6000 4.3695 0.1917
6.6200 4.3829 0.1845
6.6400 4.3962 0.1821
6.6600 4.4095 0.1904
6.6800 4.4228 0.1831
6.7000 4.4361 0.1858
6.7200 4.4495 0.1910
6.7400 4.4628 0.1782
6.7600 4.4762 0.1839
6.7800 4.4895 0.1890
6.8000 4.5029 0.1801
6.8200 4.5162 0.1810
6.8400 4.5296 0.1879
6.8600 4.5429 0.1778
6.8800 4.5562 0.1797
6.9000 4.5695 0.1880
6.9200 4.5829 0.1772
6.9400 4.5962 0.1833
6.9600 4.6095 0.1878
6.9800 4.6229 0.1740
7.0000 4.6362 0.1854
7.0200 4.6495 0.1820
7.0400 4.6628 0.1790
7.0600 4.6761 0.1839
7.0800 4.6894 0.1850
7.1000 4.7028 0.1767
7.1200 4.7161 0.1844
7.1400 4.7295 0.1790
7.1600 4.7429 0.1781
7.1800 4.7563 0.1801
7.2000 4.7696 0.1779
7.2200 4.7830 0.1802
7.2400 4.7963 0.1836
7.2600 4.8096 0.1770
7.2800 4.8229 0.1810
7.3000 4.8362 0.1813
7.3200 4.8495 0.1741
7.3400 4.8628 0.1833
7.3600 4.8761 0.1789
7.3800 4.8895 0.1730
7.4000 4.9028 0.1845
7.4200 4.9162 0.1738
7.4400 4.9295 0.1759
7.4600 4.9429 0.1862
7.4800 4.9562 0.1691
7.5000 4.9695 0.1708
7.5200 4.9829 0.1848
7.5400 4.9963 0.1694
7.5600 5.0096 0.1726
7.5800 5.0229 0.1813
7.6000 5.0362 0.1726
7.6200 5.0496 0.1754
7.6400 5.0629 0.1741
7.6600 5.0762 0.1706
7.6800 5.0895 0.1798
7.7000 5.1028 0.1699
7.7200 5.1162 0.1683
7.7400 5.1295 0.1818
7.7600 5.1428 0.1672
7.7800 5.1561 0.1698
7.8000 5.1695 0.1824
7.8200 5.1828 0.1687
7.8400 5.1962 0.1617
7.8600 5.2095 0.1755
7.8800 5.2229 0.1774
7.9000 5.2362 0.1686
7.9200 5.2496 0.1701
7.9400 5.2629 0.1759
7.9600 5.2762 0.1702
7.9800 5.2896 0.1687
8.0000 5.3029 0.1710
8.0200 5.3162 0.1776
8.0400 5.3295 0.1710
8.0600 5.3428 0.1717
8.0800 5.3562 0.1739
8.1000 5.3695 0.1672
8.1200 5.3828 0.1748
8.1400 5.3961 0.1700
8.1600 5.4095 0.1705
8.1800 5.4228 0.1781
8.2000 5.4362 0.1647
8.2200 5.4495 0.1686
8.2400 5.4628 0.1821
8.2600 5.4762 0.1618
8.2800 5.4896 0.1664
8.3000 5.5029 0.1778
8.3200 5.5162 0.1597
8.3400 5.5296 0.1748
8.3600 5.5429 0.1794
8.3800 5.5562 0.1595
8.4000 5.5695 0.1747
8.4200 5.5828 0.1752
8.4400 5.5962 0.1595
8.4600 5.6095 0.1718
8.4800 5.6228 0.1721
8.5000 5.6362 0.1608
8.5200 5.6495 0.1763
8.5400 5.6628 0.1643
8.5600 5.6762 0.1626
8.5800 5.6895 0.1745
8.6000 5.7028 0.1654
8.6200 5.7162 0.1622
8.6400 5.7296 0.1721
8.6600 5.7429 0.1667
8.6800 5.7562 0.1631
8.7000 5.7696 0.1665
8.7200 5.7829 0.1628
8.7400 5.7963 0.1625
8.7600 5.8095 0.1669
8.7800 5.8228 0.1659
8.8000 5.8362 0.1617
8.8200 5.8495 0.1639
8.8400 5.8628 0.1685
8.8600 5.8761 0.1612
8.8800 5.8895 0.1618
8.9000 5.9028 0.1683
8.9200 5.9162 0.1614
8.9400 5.9295 0.1577
8.9600 5.9429 0.1698
8.9800 5.9563 0.1616
9.0000 5.9696 0.1561
9.0200 5.9829 0.1666
9.0400 5.9962 0.1609
9.0600 6.0095 0.1590
9.0800 6.0229 0.1661
9.1000 6.0362 0.1604
9.1200 6.0495 0.1614
9.1400 6.0628 0.1631
9.1600 6.0761 0.1622
9.1800 6.0895 0.1558
9.2000 6.1028 0.1656
9.2200 6.1161 0.1651
9.2400 6.1294 0.1554
9.2600 6.1428 0.1659
9.2800 6.1561 0.1546
9.3000 6.1695 0.1588
9.3200 6.1828 0.1678
9.3400 6.1962 0.1570
9.3600 6.2096 0.1521
9.3800 6.2229 0.1658
9.4000 6.2362 0.1540
9.4200 6.2496 0.1571
9.4400 6.2629 0.1673
9.4600 6.2762 0.1533
9.4800 6.2895 0.1590
9.5000 6.3028 0.1656
9.5200 6.3161 0.1483
9.5400 6.3295 0.1604
9.5600 6.3428 0.1622
9.5800 6.3561 0.1513
9.6000 6.3695 0.1625
9.6200 6.3828 0.1530
9.6400 6.3962 0.1554
9.6600 6.4096 0.1637
9.6800 6.4229 0.1480
9.7000 6.4363 0.1583
9.7200 6.4496 0.1578
9.7400 6.4629 0.1516
9.7600 6.4762 0.1548
9.7800 6.4895 0.1597
9.8000 6.5029 0.1535
9.8200 6.5162 0.1539
9.8400 6.5295 0.1548
9.8600 6.5429 0.1522
9.8800 6.5562 0.1562
9.9000 6.5696 0.1527
9.9200 6.5829 0.1502
9.9400 6.5962 0.1506
9.9600 6.6095 0.1492
9.9800 6.6228 0.1582
10.0000 6.6362 0.1427
10.0200 6.6495 0.1489
10.0400 6.6628 0.1562
10.0600 6.6762 0.1459
10.0800 6.6895 0.1468
10.1000 6.7029 0.1513
10.1200 6.7162 0.1509
10.1400 6.7296 0.1489
10.1600 6.7429 0.1543
10.1800 6.7563 0.1426
10.2000 6.7696 0.1521
10.2200 6.7829 0.1556
10.2400 6.7962 0.1407
10.2600 6.8095 0.1518
10.2800 6.8229 0.1533
10.3000 6.8362 0.1418
10.3200 6.8495 0.1523
10.3400 6.8628 0.1537
10.3600 6.8762 0.1413
10.3800 6.8895 0.1479
10.4000 6.9028 0.1565
10.4200 6.9162 0.1401
10.4400 6.9296 0.1514
10.4600 6.9429 0.1480
10.4800 6.9562 0.1381
10.5000 6.9696 0.1536
10.5200 6.9829 0.1470
10.5400 6.9962 0.1407
10.5600 7.0095 0.1499
10.5800 7.0228 0.1465
10.6000 7.0362 0.1390
10.6200 7.0495 0.1470
10.6400 7.0628 0.1475
10.6600 7.0762 0.1434
10.6800 7.0895 0.1463
10.7000 7.1028 0.1425
10.7200 7.1162 0.1392
10.7400 7.1295 0.1435
10.7600 7.1428 0.1430
10.7800 7.1562 0.1425
10.8000 7.1695 0.1401
10.8200 7.1829 0.1402
10.8400 7.1962 0.1430
10.8600 7.2096 0.1380
10.8800 7.2229 0.1445
10.9000 7.2363 0.1400
10.9200 7.2496 0.1389
10.9400 7.2629 0.1472
10.9600 7.2762 0.1376
10.9800 7.2895 0.1422
11.0000 7.3028 0.1432
11.0200 7.3161 0.1381
11.0400 7.3294 0.1394
11.0600 7.3428 0.1425
11.0800 7.3561 0.1385
11.1000 7.3695 0.1411
11.1200 7.3828 0.1400
11.1400 7.3962 0.1365
11.1600 7.4096 0.1433
11.1800 7.4229 0.1324
11.2000 7.4362 0.1420
11.2200 7.4496 0.1415
11.2400 7.4629 0.1321
11.2600 7.4763 0.1415
11.2800 7.4896 0.1364
11.3000 7.5029 0.1352
11.3200 7.5162 0.1437
11.3400 7.5295 0.1328
11.3600 7.5429 0.1360
11.3800 7.5562 0.1387
11.4000 7.5695 0.1312
11.4200 7.5828 0.1405
11.4400 7.5962 0.1394
11.4600 7.6095 0.1295
11.4800 7.6228 0.1400
11.5000 7.6362 0.1364
11.5200 7.6496 0.1307
11.5400 7.6629 0.1456
11.5600 7.6762 0.1323
11.5800 7.6896 0.1302
11.6000 7.7029 0.1394
11.6200 7.7163 0.1268
11.6400 7.7296 0.1360
11.6600 7.7428 0.1438
11.6800 7.7562 0.1277
11.7000 7.7695 0.1378
11.7200 7.7828 0.1378
11.7400 7.7961 0.1272
11.7600 7.8095 0.1430
11.7800 7.8228 0.1360
11.8000 7.8362 0.1249
11.8200 7.8495 0.1398
11.8400 7.8628 0.1310
11.8600 7.8762 0.1258
11.8800 7.8895 0.1378
11.9000 7.9029 0.1337
11.9200 7.9162 0.1271
11.9400 7.9295 0.1419
11.9600 7.9429 0.1281
11.9800 7.9562 0.1276
12.0000 7.9696 0.1439
12.0200 7.9829 0.1250
12.0400 7.9962 0.1263
12.0600 8.0096 0.1359
12.0800 8.0229 0.1269
12.1000 8.0362 0.1282
12.1200 8.0494 0.1335
12.1400 8.0628 0.1292
12.1600 8.0761 0.1282
12.1800 8.0894 0.1309
12.2000 8.1028 0.1253
12.2200 8.1162 0.1326
12.2400 8.1296 0.1289
12.2600 8.1430 0.1270
12.2800 8.1563 0.1336
12.3000 8.1696 0.1268
12.3200 8.1829 0.1232
12.3400 8.1963 0.1364
12.3600 8.2096 0.1299
12.3800 8.2229 0.1210
12.4000 8.2362 0.1336
12.4200 8.2495 0.1271
12.4400 8.2628 0.1248
12.4600 8.2761 0.1302
12.4800 8.2894 0.1258
12.5000 8.3028 0.1255
12.5200 8.3161 0.1294
12.5400 8.3295 0.1220
12.5600 8.3428 0.1256
12.5800 8.3562 0.1313
12.6000 8.3696 0.1191
12.6200 8.3829 0.1225
12.6400 8.3963 0.1296
12.6600 8.4096 0.1229
12.6800 8.4229 0.1208
12.7000 8.4363 0.1271
12.7200 8.4496 0.1224
12.7400 8.4629 0.1239
12.7600 8.4762 0.1208
12.7800 8.4895 0.1215
12.8000 8.5028 0.1204
12.8200 8.5161 0.1203
12.8400 8.5294 0.1265
12.8600 8.5428 0.1204
12.8800 8.5562 0.1202
12.9000 8.5695 0.1273
12.9200 8.5829 0.1141
12.9400 8.5962 0.1228
12.9600 8.6096 0.1248
12.9800 8.6229 0.1165
13.0000 8.6362 0.1240
13.0200 8.6496 0.1242
13.0400 8.6629 0.1141
13.0600 8.6763 0.1252
13.0800 8.6896 0.1239
13.1000 8.7029 0.1157
13.1200 8.7162 0.1299
13.1400 8.7296 0.1209
13.1600 8.7429 0.1127
13.1800 8.7562 0.1319
13.2000 8.7695 0.1171
13.2200 8.7828 0.1185
13.2400 8.7962 0.1291
13.2600 8.8095 0.1108
13.2800 8.8228 0.1201
13.3000 8.8362 0.1271
13.3200 8.8496 0.1123
13.3400 8.8629 0.1179
13.3600 8.8763 0.1247
13.3800 8.8896 0.1155
13.4000 8.9029 0.1220
13.4200 8.9162 0.1194
13.4400 8.9296 0.1073
13.4600 8.9428 0.1248
13.4800 8.9562 0.1238
13.5000 8.9695 0.1111
13.5200 8.9829 0.1250
13.5400 8.9962 0.1204
13.5600 9.0095 0.1155
13.5800 9.0228 0.1232
13.6000 9.0362 0.1168
13.6200 9.0495 0.1167
13.6400 9.0628 0.1241
13.6600 9.0761 0.1102
13.6800 9.0895 0.1181
13.7000 9.1029 0.1177
13.7200 9.1162 0.1104
13.7400 9.1296 0.1219
13.7600 9.1429 0.1137
13.7800 9.1563 0.1146
13.8000 9.1696 0.1239
13.8200 9.1829 0.1097
13.8400 9.1962 0.1167
13.8600 9.2095 0.1204
13.8800 9.2229 0.1077
13.9000 9.2362 0.1169
13.9200 9.2495 0.1278
13.9400 9.2628 0.1030
13.9600 9.2762 0.1188
13.9800 9.2895 0.1215
14.0000 9.3028 0.1002
14.0200 9.3162 0.1234
14.0400 9.3295 0.1152
14.0600 9.3429 0.1020
14.0800 9.3562 0.1212
14.1000 9.3695 0.1113
14.1200 9.3829 0.1055
14.1400 9.3962 0.1146
14.1600 9.4096 0.1100
14.1800 9.4229 0.1098
14.2000 9.4362 0.1163
14.2200 9.4495 0.1031
14.2400 9.4629 0.1107
14.2600 9.4762 0.1132
14.2800 9.4894 0.1045
14.3000 9.5028 0.1106
14.3200 9.5161 0.1075
14.3400 9.5295 0.1084
14.3600 9.5428 0.1088
14.3800 9.5562 0.1057
14.4000 9.5696 0.1073
14.4200 9.5829 0.1063
14.4400 9.5963 0.1029
14.4600 9.6096 0.1098
14.4800 9.6229 0.1060
14.5000 9.6363 0.1046
14.5200 9.6496 0.1104
14.5400 9.6628 0.1056
14.5600 9.6761 0.1083
14.5800 9.6894 0.1113
14.6000 9.7028 0.1027
14.6200 9.7161 0.1063
14.6400 9.7295 0.1093
14.6600 9.7428 0.1023
14.6800 9.7562 0.1083
14.7000 9.7695 0.1083
14.7200 9.7829 0.1020
14.7400 9.7962 0.1081
14.7600 9.8096 0.1046
14.7800 9.8229 0.1021
14.8000 9.8363 0.1067
14.8200 9.8496 0.1076
14.8400 9.8629 0.1014
14.8600 9.8762 0.1056
14.8800 9.8895 0.1067
14.9000 9.9028 0.1037
14.9200 9.9162 0.1117
14.9400 9.9295 0.1037
14.9600 9.9429 0.1041
14.9800 9.9562 0.1152
15.0000 9.9695 0.1035
15.0200 9.9828 0.1025
15.0400 9.9962 0.1101
15.0600 10.0095 0.1022
15.0800 10.0228 0.1056
15.1000 10.0362 0.1115
15.1200 10.0495 0.1019
15.1400 10.0629 0.1006
15.1600 10.0762 0.1071
15.1800 10.0896 0.1025
15.2000 10.1029 0.1091
15.2200 10.1162 0.1086
15.2400 10.1296 0.1014
15.2600 10.1429 0.1066
15.2800 10.1562 0.1035
15.3000 10.1695 0.1037
15.3200 10.1829 0.1049
15.3400 10.1962 0.1016
15.3600 10.2095 0.1014
15.3800 10.2228 0.1046
15.4000 10.2361 0.1036
15.4200 10.2495 0.0985
15.4400 10.2628 0.1047
15.4600 10.2762 0.0984
15.4800 10.2895 0.1018
15.5000 10.3029 0.1046
15.5200 10.3163 0.0992
15.5400 10.3296 0.1062
15.5600 10.3429 0.1011
15.5800 10.3563 0.0959
15.6000 10.3696 0.1052
15.6200 10.3829 0.0974
15.6400 10.3962 0.1008
15.6600 10.4095 0.1048
15.6800 10.4229 0.0952
15.7000 10.4362 0.0954
15.7200 10.4495 0.1066
15.7400 10.4628 0.0948
15.7600 10.4761 0.0972
15.7800 10.4895 0.1039
15.8000 10.5028 0.0912
15.8200 10.5161 0.1007
15.8400 10.5295 0.1069
15.8600 10.5429 0.0905
15.8800 10.5562 0.0981
15.9000 10.5695 0.1005
15.9200 10.5829 0.0914
15.9400 10.5962 0.0965
15.9600 10.6096 0.0991
15.9800 10.6229 0.0909
16.0000 10.6362 0.0984
16.0200 10.6495 0.0967
16.0400 10.6628 0.0895
16.0600 10.6762 0.0978
16.0800 10.6895 0.1002
16.1000 10.7028 0.0922
16.1200 10.7161 0.0946
16.1400 10.7295 0.0935
16.1600 10.7428 0.0933
16.1800 10.7562 0.0976
16.2000 10.7695 0.0919
16.2200 10.7829 0.0953
16.2400 10.7963 0.0950
16.2600 10.8096 0.0944
16.2800 10.8229 0.0961
16.3000 10.8362 0.0935
16.3200 10.8496 0.0944
16.3400 10.8629 0.0950
16.3600 10.8762 0.0929
16.3800 10.8895 0.0973
16.4000 10.9029 0.0916
16.4200 10.9162 0.0917
16.4400 10.9295 0.0973
16.4600 10.9428 0.0899
16.4800 10.9561 0.0904
16.5000 10.9695 0.0965
16.5200 10.9828 0.0895
16.5400 10.9962 0.0921
16.5600 11.0095 0.0936
16.5800 11.0229 0.0914
16.6000 11.0363 0.0906
16.6200 11.0496 0.0928
16.6400 11.0629 0.0861
16.6600 11.0762 0.0917
16.6800 11.0896 0.0935
16.7000 11.1029 0.0823
16.7200 11.1161 0.0905
16.7400 11.1295 0.0935
16.7600 11.1428 0.0846
16.7800 11.1562 0.0888
16.8000 11.1695 0.0931
16.8200 11.1828 0.0843
16.8400 11.1962 0.0888
16.8600 11.2096 0.0901
16.8800 11.2229 0.0824
16.9000 11.2362 0.0910
16.9200 11.2495 0.0877
16.9400 11.2629 0.0829
16.9600 11.2762 0.0918
16.9800 11.2895 0.0853
17.0000 11.3028 0.0860
17.0200 11.3162 0.0908
17.0400 11.3296 0.0838
17.0600 11.3429 0.0868
17.0800 11.3562 0.0888
17.1000 11.3696 0.0836
17.1200 11.3829 0.0883
17.1400 11.3962 0.0846
17.1600 11.4095 0.0855
17.1800 11.4228 0.0851
17.2000 11.4361 0.0890
17.2200 11.4495 0.0809
17.2400 11.4628 0.0876
17.2600 11.4761 0.0851
17.2800 11.4895 0.0866
17.3000 11.5029 0.0843
17.3200 11.5162 0.0828
17.3400 11.5295 0.0854
17.3600 11.5429 0.0817
17.3800 11.5562 0.0879
17.4000 11.5696 0.0816
17.4200 11.5829 0.0805
17.4400 11.5962 0.0846
17.4600 11.6095 0.0825
17.4800 11.6229 0.0839
17.5000 11.6362 0.0883
17.5200 11.6495 0.0853
17.5400 11.6628 0.0799
17.5600 11.6761 0.0878
17.5800 11.6895 0.0800
17.6000 11.7028 0.0827
17.6200 11.7162 0.0867
17.6400 11.7295 0.0736
17.6600 11.7429 0.0818
17.6800 11.7562 0.0842
17.7000 11.7696 0.0770
17.7200 11.7829 0.0799
17.7400 11.7962 0.0864
17.7600 11.8096 0.0765
17.7800 11.8229 0.0796
17.8000 11.8362 0.0837
17.8200 11.8495 0.0776
17.8400 11.8628 0.0830
17.8600 11.8762 0.0768
17.8800 11.8895 0.0788
17.9000 11.9028 0.0844
17.9200 11.9162 0.0737
17.9400 11.9295 0.0814
17.9600 11.9429 0.0796
17.9800 11.9562 0.0820
18.0000 11.9695 0.0794
18.0200 11.9829 0.0753
18.0400 11.9962 0.0820
18.0600 12.0095 0.0797
18.0800 12.0229 0.0740
18.1000 12.0362 0.0826
18.1200 12.0496 0.0798
18.1400 12.0629 0.0733
18.1600 12.0762 0.0806
18.1800 12.0895 0.0849
18.2000 12.1029 0.0737
18.2200 12.1162 0.0819
18.2400 12.1295 0.0855
18.2600 12.1428 0.0726
18.2800 12.1561 0.0869
18.3000 12.1695 0.0836
18.3200 12.1828 0.0704
18.3400 12.1962 0.0860
18.3600 12.2095 0.0791
18.3800 12.2229 0.0664
18.4000 12.2363 0.0858
18.4200 12.2496 0.0752
18.4400 12.2629 0.0707
18.4600 12.2762 0.0855
18.4800 12.2896 0.0706
18.5000 12.3029 0.0712
18.5200 12.3162 0.0859
18.5400 12.3295 0.0704
18.5600 12.3428 0.0721
18.5800 12.3562 0.0827
18.6000 12.3695 0.0723
18.6200 12.3829 0.0729
18.6400 12.3962 0.0809
18.6600 12.4095 0.0690
18.6800 12.4228 0.0706
18.7000 12.4362 0.0790
18.7200 12.4495 0.0708
18.7400 12.4629 0.0701
18.7600 12.4762 0.0755
18.7800 12.4896 0.0653
18.8000 12.5029 0.0719
18.8200 12.5162 0.0750
18.8400 12.5296 0.0674
18.8600 12.5429 0.0688
18.8800 12.5562 0.0755
18.9000 12.5695 0.0679
18.9200 12.5828 0.0642
18.9400 12.5962 0.0735
18.9600 12.6095 0.0682
18.9800 12.6228 0.0676
19.0000 12.6361 0.0750
19.0200 12.6495 0.0607
19.0400 12.6628 0.0671
19.0600 12.6762 0.0708
19.0800 12.6895 0.0625
19.1000 12.7028 0.0681
19.1200 12.7162 0.0714
19.1400 12.7295 0.0599
19.1600 12.7428 0.0664
19.1800 12.7562 0.0772
19.2000 12.7695 0.0608
19.2200 12.7829 0.0679
19.2400 12.7962 0.0729
19.2600 12.8095 0.0624
19.2800 12.8229 0.0679
19.3000 12.8363 0.0691
19.3200 12.8496 0.0665
19.3400 12.8628 0.0692
19.3600 12.8761 0.0701
19.3800 12.8895 0.0697
19.4000 12.9028 0.0655
19.4200 12.9161 0.0710
19.4400 12.9295 0.0728
19.4600 12.9429 0.0704
19.4800 12.9563 0.0674
19.5000 12.9696 0.0698
19.5200 12.9829 0.0698
19.5400 12.9963 0.0674
19.5600 13.0096 0.0709
19.5800 13.0229 0.0657
19.6000 13.0362 0.0675
19.6200 13.0495 0.0711
19.6400 13.0628 0.0622
19.6600 13.0762 0.0731
19.6800 13.0895 0.0729
19.7000 13.1028 0.0612
19.7200 13.1161 0.0668
19.7400 13.1295 0.0732
19.7600 13.1428 0.0596
19.7800 13.1562 0.0644
19.8000 13.1695 0.0781
19.8200 13.1829 0.0559
19.8400 13.1963 0.0694
19.8600 13.2096 0.0691
19.8800 13.2229 0.0570
19.9000 13.2362 0.0751
19.9200 13.2496 0.0674
19.9400 13.2629 0.0550
19.9600 13.2762 0.0654
19.9800 13.2895 0.0666
20.0000 13.3028 0.0526
20.0200 13.3162 0.0743
20.0400 13.3295 0.0672
20.0600 13.3428 0.0490
20.0800 13.3561 0.0732
20.1000 13.3695 0.0634
20.1200 13.3828 0.0529
20.1400 13.3962 0.0710
20.1600 13.4095 0.0596
20.1800 13.4229 0.0539
20.2000 13.4362 0.0697
20.2200 13.4496 0.0569
20.2400 13.4629 0.0545
20.2600 13.4762 0.0747
20.2800 13.4896 0.0570
20.3000 13.5029 0.0519
20.3200 13.5162 0.0718
20.3400 13.5295 0.0591
20.3600 13.5429 0.0557
20.3800 13.5562 0.0635
20.4000 13.5695 0.0580
20.4200 13.5828 0.0584
20.4400 13.5961 0.0670
20.4600 13.6095 0.0565
20.4800 13.6228 0.0586
20.5000 13.6362 0.0669
20.5200 13.6495 0.0519
20.5400 13.6629 0.0563
20.5600 13.6763 0.0659
20.5800 13.6896 0.0512
20.6000 13.7029 0.0571
20.6200 13.7162 0.0661
20.6400 13.7296 0.0576
20.6600 13.7429 0.0558
20.6800 13.7562 0.0649
20.7000 13.7695 0.0630
20.7200 13.7828 0.0582
20.7400 13.7962 0.0614
20.7600 13.8095 0.0594
20.7800 13.8228 0.0527
20.8000 13.8361 0.0626
20.8200 13.8495 0.0600
20.8400 13.8628 0.0545
20.8600 13.8761 0.0584
20.8800 13.8895 0.0609
20.9000 13.9029 0.0549
20.9200 13.9162 0.0574
20.9400 13.9296 0.0555
20.9600 13.9429 0.0495
20.9800 13.9562 0.0570
21.0000 13.9696 0.0568
21.0200 13.9830 0.0537
21.0400 13.9963 0.0577
21.0600 14.0095 0.0545
21.0800 14.0228 0.0534
21.1000 14.0362 0.0557
21.1200 14.0495 0.0537
21.1400 14.0628 0.0507
21.1600 14.0761 0.0524
21.1800 14.0895 0.0521
21.2000 14.1028 0.0531
21.2200 14.1161 0.0555
21.2400 14.1295 0.0519
21.2600 14.1428 0.0540
21.2800 14.1562 0.0543
21.3000 14.1696 0.0500
21.3200 14.1829 0.0517
21.3400 14.1962 0.0555
21.3600 14.2096 0.0502
21.3800 14.2229 0.0508
21.4000 14.2362 0.0555
21.4200 14.2495 0.0494
21.4400 14.2629 0.0519
21.4600 14.2762 0.0544
21.4800 14.2895 0.0546
21.5000 14.3028 0.0470
21.5200 14.3161 0.0543
21.5400 14.3294 0.0554
21.5600 14.3428 0.0436
21.5800 14.3561 0.0575
21.6000 14.3695 0.0545
21.6200 14.3828 0.0493
21.6400 14.3962 0.0525
21.6600 14.4096 0.0542
21.6800 14.4230 0.0467
21.7000 14.4363 0.0532
21.7200 14.4496 0.0531
21.7400 14.4629 0.0513
21.7600 14.4762 0.0537
21.7800 14.4895 0.0467
21.8000 14.5028 0.0499
21.8200 14.5161 0.0575
21.8400 14.5295 0.0474
21.8600 14.5428 0.0441
21.8800 14.5561 0.0578
21.9000 14.5695 0.0468
21.9200 14.5828 0.0462
21.9400 14.5962 0.0524
21.9600 14.6095 0.0490
21.9800 14.6229 0.0482
22.0000 14.6363 0.0491
22.0200 14.6496 0.0436
22.0400 14.6629 0.0476
22.0600 14.6762 0.0515
22.0800 14.6895 0.0412
22.1000 14.7029 0.0451
22.1200 14.7162 0.0516
22.1400 14.7295 0.0456
22.1600 14.7428 0.0517
22.1800 14.7562 0.0477
22.2000 14.7695 0.0429
22.2200 14.7828 0.0468
22.2400 14.7962 0.0508
22.2600 14.8095 0.0397
22.2800 14.8229 0.0452
22.3000 14.8362 0.0503
22.3200 14.8495 0.0389
22.3400 14.8629 0.0501
22.3600 14.8763 0.0455
22.3800 14.8896 0.0322
22.4000 14.9029 0.0492
22.4200 14.9162 0.0437
22.4400 14.9296 0.0370
22.4600 14.9429 0.0520
22.4800 14.9563 0.0397
22.5000 14.9695 0.0345
22.5200 14.9828 0.0547
22.5400 14.9962 0.0418
22.5600 15.0095 0.0330
22.5800 15.0228 0.0534
22.6000 15.0361 0.0387
22.6200 15.0494 0.0352
22.6400 15.0628 0.0552
22.6600 15.0762 0.0375
22.6800 15.0895 0.0402
22.7000 15.1028 0.0519
22.7200 15.1162 0.0323
22.7400 15.1296 0.0399
22.7600 15.1429 0.0505
22.7800 15.1562 0.0349
22.8000 15.1696 0.0409
22.8200 15.1829 0.0497
22.8400 15.1962 0.0324
22.8600 15.2095 0.0454
22.8800 15.2228 0.0455
22.9000 15.2362 0.0324
22.9200 15.2495 0.0494
22.9400 15.2628 0.0390
22.9600 15.2761 0.0334
22.9800 15.2895 0.0491
23.0000 15.3028 0.0380
23.0200 15.3162 0.0332
23.0400 15.3295 0.0448
23.0600 15.3428 0.0379
23.0800 15.3562 0.0337
23.1000 15.3696 0.0443
23.1200 15.3829 0.0377
23.1400 15.3962 0.0366
23.1600 15.4096 0.0427
23.1800 15.4229 0.0311
23.2000 15.4363 0.0406
23.2200 15.4496 0.0416
23.2400 15.4629 0.0289
23.2600 15.4762 0.0470
23.2800 15.4895 0.0325
23.3000 15.5028 0.0316
23.3200 15.5161 0.0475
23.3400 15.5294 0.0325
23.3600 15.5428 0.0364
23.3800 15.5562 0.0471
23.4000 15.5695 0.0257
23.4200 15.5829 0.0369
23.4400 15.5962 0.0459
23.4600 15.6096 0.0240
23.4800 15.6229 0.0432
23.5000 15.6362 0.0363
23.5200 15.6496 0.0260
23.5400 15.6629 0.0460
23.5600 15.6763 0.0300
23.5800 15.6896 0.0241
23.6000 15.7028 0.0479
23.6200 15.7162 0.0276
23.6400 15.7295 0.0225
23.6600 15.7428 0.0470
23.6800 15.7561 0.0272
23.7000 15.7695 0.0286
23.7200 15.7828 0.0435
23.7400 15.7961 0.0225
23.7600 15.8095 0.0344
23.7800 15.8228 0.0398
23.8000 15.8362 0.0223
23.8200 15.8496 0.0343
23.8400 15.8629 0.0361
23.8600 15.8762 0.0237
23.8800 15.8896 0.0384
23.9000 15.9029 0.0319
23.9200 15.9162 0.0228
23.9400 15.9295 0.0378
23.9600 15.9428 0.0331
23.9800 15.9561 0.0279
24.0000 15.9695 0.0364
24.0200 15.9828 0.0285
24.0400 15.9962 0.0261
24.0600 16.0095 0.0351
24.0800 16.0229 0.0320
24.1000 16.0362 0.0277
24.1200 16.0495 0.0285
24.1400 16.0629 0.0323
24.1600 16.0762 0.0286
24.1800 16.0895 0.0222
24.2000 16.1029 0.0312
24.2200 16.1162 0.0294
24.2400 16.1295 0.0236
24.2600 16.1429 0.0360
24.2800 16.1562 0.0226
24.3000 16.1696 0.0253
24.3200 16.1829 0.0384
24.3400 16.1962 0.0227
24.3600 16.2096 0.0238
24.3800 16.2229 0.0362
24.4000 16.2362 0.0196
24.4200 16.2495 0.0264
24.4400 16.2628 0.0338
24.4600 16.2762 0.0216
24.4800 16.2895 0.0268
24.5000 16.3028 0.0336
24.5200 16.3162 0.0199
24.5400 16.3295 0.0274
24.5600 16.3429 0.0259
24.5800 16.3562 0.0246
24.6000 16.3695 0.0287
24.6200 16.3829 0.0264
24.6400 16.3963 0.0212
24.6600 16.4096 0.0280
24.6800 16.4229 0.0266
24.7000 16.4362 0.0192
24.7200 16.4496 0.0243
24.7400 16.4629 0.0262
24.7600 16.4762 0.0270
24.7800 16.4895 0.0187
24.8000 16.5028 0.0244
24.8200 16.5161 0.0303
24.8400 16.5295 0.0177
24.8600 16.5428 0.0231
24.8800 16.5562 0.0267
24.9000 16.5696 0.0157
24.9200 16.5829 0.0231
24.9400 16.5962 0.0223
24.9600 16.6096 0.0213
24.9800 16.6229 0.0252
25.0000 16.6363 0.0150
25.0200 16.6496 0.0167
25.0400 16.6629 0.0258
25.0600 16.6762 0.0222
25.0800 16.6895 0.0192
25.1000 16.7028 0.0215
25.1200 16.7161 0.0184
25.1400 16.7295 0.0170
25.1600 16.7428 0.0291
25.1800 16.7562 0.0117
25.2000 16.7695 0.0202
25.2200 16.7828 0.0207
25.2400 16.7962 0.0093
25.2600 16.8095 0.0172
25.2800 16.8229 0.0247
25.3000 16.8362 0.0119
25.3200 16.8496 0.0217
25.3400 16.8629 0.0205
25.3600 16.8763 0.0086
25.3800 16.8896 0.0275
25.4000 16.9029 0.0191
25.4200 16.9162 0.0113
25.4400 16.9295 0.0245
25.4600 16.9429 0.0170
25.4800 16.9561 0.0159
25.5000 16.9694 0.0187
25.5200 16.9828 0.0204
25.5400 16.9961 0.0134
25.5600 17.0094 0.0177
25.5800 17.0228 0.0155
25.6000 17.0362 0.0181
25.6200 17.0496 0.0167
25.6400 17.0629 0.0100
25.6600 17.0762 0.0236
25.6800 17.0895 0.0141
25.7000 17.1029 0.0138
25.7200 17.1162 0.0223
25.7400 17.1295 0.0116
25.7600 17.1428 0.0184
25.7800 17.1562 0.0164
25.8000 17.1695 0.0140
25.8200 17.1829 0.0143
25.8400 17.1962 0.0108
25.8600 17.2095 0.0155
25.8800 17.2228 0.0133
25.9000 17.2362 0.0132
25.9200 17.2495 0.0136
25.9400 17.2628 0.0151
25.9600 17.2762 0.0111
25.9800 17.2896 0.0146
26.0000 17.3029 0.0181
26.0200 17.3162 0.0116
26.0400 17.3296 0.0075
26.0600 17.3429 0.0142
26.0800 17.3563 0.0122
26.1000 17.3696 0.0125
26.1200 17.3829 0.0184
26.1400 17.3962 0.0139
26.1600 17.4095 0.0069
26.1800 17.4228 0.0133
26.2000 17.4361 0.0112
26.2200 17.4495 0.0091
26.2400 17.4628 0.0141
26.2600 17.4762 0.0077
26.2800 17.4895 0.0056
26.3000 17.5029 0.0112
26.3200 17.5162 0.0106
26.3400 17.5295 0.0076
26.3600 17.5429 0.0127
26.3800 17.5562 0.0022
26.4000 17.5695 0.0095
26.4200 17.5829 0.0171
26.4400 17.5962 0.0033
26.4600 17.6096 0.0082
26.4800 17.6229 0.0153
26.5000 17.6362 -0.0001
26.5200 17.6496 0.0065
26.5400 17.6629 0.0155
26.5600 17.6762 -0.0005
26.5800 17.6895 0.0080
26.6000 17.7028 0.0144
26.6200 17.7161 0.0002
26.6400 17.7295 0.0105
26.6600 17.7428 0.0112
26.6800 17.7562 0.0002
26.7000 17.7696 0.0079
26.7200 17.7829 0.0064
26.7400 17.7963 0.0002
26.7600 17.8096 0.0132
26.7800 17.8229 0.0020
26.8000 17.8363 0.0017
26.8200 17.8496 0.0125
26.8400 17.8629 0.0038
26.8600 17.8762 0.0021
26.8800 17.8895 0.0137
26.9000 17.9028 0.0017
26.9200 17.9161 0.0009
26.9400 17.9294 0.0097
26.9600 17.9428 0.0002
26.9800 17.9561 -0.0005
27.0000 17.9695 0.0075
27.0200 17.9828 0.0025
27.0400 17.9962 0.0042
27.0600 18.0095 0.0043
27.0800 18.0229 -0.0026
27.1000 18.0363 0.0030
27.1200 18.0496 0.0048
27.1400 18.0629 0.0026
27.1600 18.0763 0.0031
27.1800 18.0896 0.0027
27.2000 18.1029 0.0044
27.2200 18.1162 0.0001
27.2400 18.1295 -0.0002
27.2600 18.1429 -0.0019
27.2800 18.1562 -0.0020
27.3000 18.1695 0.0063
27.3200 18.1828 0.0008
27.3400 18.1962 -0.0010
27.3600 18.2095 -0.0015
27.3800 18.2228 0.0043
27.4000 18.2362 -0.0038
27.4200 18.2495 -0.0016
27.4400 18.2629 -0.0006
27.4600 18.2762 -0.0021
27.4800 18.2896 0.0017
27.5000 18.3029 -0.0024
27.5200 18.3163 -0.0027
27.5400 18.3296 0.0009
27.5600 18.3429 -0.0054
27.5800 18.3562 -0.0032
27.6000 18.3696 -0.0055
27.6200 18.3829 -0.0015
27.6400 18.3962 -0.0056
27.6600 18.4095 -0.0074
27.6800 18.4228 0.0014
27.7000 18.4362 -0.0074
27.7200 18.4495 -0.0107
27.7400 18.4628 -0.0023
27.7600 18.4762 -0.0067
27.7800 18.4895 -0.0095
27.8000 18.5029 -0.0040
27.8200 18.5162 -0.0054
27.8400 18.5296 -0.0063
27.8600 18.5429 -0.0013
27.8800 18.5562 -0.0063
27.9000 18.5696 -0.0027
27.9200 18.5828 -0.0018
27.9400 18.5961 -0.0112
27.9600 18.6095 -0.0019
27.9800 18.6229 -0.0039
28.0000 18.6362 -0.0124
28.0200 18.6495 0.0030
28.0400 18.6628 -0.0050
28.0600 18.6762 -0.0089
28.0800 18.6895 0.0015
28.1000 18.7028 -0.0098
28.1200 18.7162 -0.0113
28.1400 18.7295 -0.0023
28.1600 18.7429 -0.0127
28.1800 18.7562 -0.0089
28.2000 18.7695 0.0008
28.2200 18.7829 -0.0134
28.2400 18.7963 -0.0094
28.2600 18.8096 -0.0027
28.2800 18.8229 -0.0151
28.3000 18.8362 -0.0064
28.3200 18.8495 -0.0030
28.3400 18.8629 -0.0148
28.3600 18.8762 -0.0085
28.3800 18.8895 -0.0089
28.4000 18.9028 -0.0130
28.4200 18.9161 -0.0099
28.4400 18.9295 -0.0081
28.4600 18.9428 -0.0122
28.4800 18.9562 -0.0093
28.5000 18.9695 -0.0128
28.5200 18.9829 -0.0149
28.5400 18.9962 -0.0106
28.5600 19.0095 -0.0106
28.5800 19.0229 -0.0145
28.6000 19.0362 -0.0142
28.6200 19.0496 -0.0130
28.6400 19.0629 -0.0189
28.6600 19.0762 -0.0123
28.6800 19.0895 -0.0109
28.7000 19.1029 -0.0176
28.7200 19.1162 -0.0158
28.7400 19.1295 -0.0165
28.7600 19.1428 -0.0117
28.7800 19.1561 -0.0153
28.8000 19.1694 -0.0179
28.8200 19.1828 -0.0157
28.8400 19.1961 -0.0153
28.8600 19.2095 -0.0162
28.8800 19.2229 -0.0168
28.9000 19.2363 -0.0203
28.9200 19.2496 -0.0168
28.9400 19.2629 -0.0173
28.9600 19.2763 -0.0206
28.9800 19.2896 -0.0146
29.0000 19.3029 -0.0188
29.0200 19.3161 -0.0193
29.0400 19.3295 -0.0124
29.0600 19.3428 -0.0199
29.0800 19.3562 -0.0220
29.1000 19.3695 -0.0136
29.1200 19.3828 -0.0271
29.1400 19.3962 -0.0215
29.1600 19.4095 -0.0141
29.1800 19.4229 -0.0279
29.2000 19.4362 -0.0202
29.2200 19.4495 -0.0169
29.2400 19.4629 -0.0285
29.2600 19.4762 -0.0226
29.2800 19.4895 -0.0190
29.3000 19.5029 -0.0277
29.3200 19.5162 -0.0258
29.3400 19.5295 -0.0201
29.3600 19.5428 -0.0314
29.3800 19.5562 -0.0218
29.4000 19.5695 -0.0194
29.4200 19.5829 -0.0284
29.4400 19.5962 -0.0283
29.4600 19.6095 -0.0212
29.4800 19.6228 -0.0235
29.5000 19.6361 -0.0289
29.5200 19.6495 -0.0247
29.5400 19.6628 -0.0271
29.5600 19.6762 -0.0312
29.5800 19.6895 -0.0261
29.6000 19.7029 -0.0252
29.6200 19.7162 -0.0293
29.6400 19.7295 -0.0272
29.6600 19.7429 -0.0288
29.6800 19.7562 -0.0307
29.7000 19.7696 -0.0258
29.7200 19.7829 -0.0312
29.7400 19.7962 -0.0342
29.7600 19.8095 -0.0221
29.7800 19.8229 -0.0311
29.8000 19.8362 -0.0390
29.8200 19.8495 -0.0249
29.8400 19.8628 -0.0294
29.8600 19.8761 -0.0382
29.8800 19.8895 -0.0270
29.9000 19.9028 -0.0317
29.9200 19.9162 -0.0355
29.9400 19.9295 -0.0266
29.9600 19.9429 -0.0364
29.9800 19.9563 -0.0366
30.0000 19.9696 -0.0277
30.0200 19.9829 -0.0375
30.0400 19.9962 -0.0362
30.0600 20.0096 -0.0263
30.0800 20.0229 -0.0365
30.1000 20.0362 -0.0369
30.1200 20.0495 -0.0310
30.1400 20.0629 -0.0355
30.1600 20.0762 -0.0387
30.1800 20.0895 -0.0311
30.2000 20.1028 -0.0346
30.2200 20.1162 -0.0402
30.2400 20.1295 -0.0289
30.2600 20.1428 -0.0397
30.2800 20.1561 -0.0368
30.3000 20.1695 -0.0306
30.3200 20.1829 -0.0397
30.3400 20.1962 -0.0365
30.3600 20.2095 -0.0369
30.3800 20.2229 -0.0364
30.4000 20.2362 -0.0378
30.4200 20.2496 -0.0377
30.4400 20.2629 -0.0375
30.4600 20.2762 -0.0393
30.4800 20.2895 -0.0345
30.5000 20.3029 -0.0402
30.5200 20.3162 -0.0407
30.5400 20.3295 -0.0380
30.5600 20.3428 -0.0435
30.5800 20.3561 -0.0427
30.6000 20.3695 -0.0409
30.6200 20.3828 -0.0415
30.6400 20.3962 -0.0478
30.6600 20.4095 -0.0410
30.6800 20.4229 -0.0453
30.7000 20.4363 -0.0442
30.7200 20.4496 0.0008
30.7400 20.4629 0.0623
30.7600 20.4762 0.1207
30.7800 20.4896 0.1818
30.8000 20.5029 0.2397
30.8200 20.5162 0.2766
30.8400 20.5295 0.3138
30.8600 20.5428 0.3536
30.8800 20.5562 0.3766
30.9000 20.5695 0.3930
30.9200 20.5828 0.3989
30.9400 20.5961 0.3853
30.9600 20.6095 0.3973
30.9800 20.6228 0.3998
31.0000 20.6361 0.3939
31.0200 20.6495 0.4055
31.0400 20.6629 0.4037
31.0600 20.6763 0.3989
31.0800 20.6896 0.4090
31.1000 20.7029 0.4079
31.1200 20.7162 0.4030
31.1400 20.7296 0.4109
31.1600 20.7429 0.4068
31.1800 20.7562 0.4129
31.2000 20.7695 0.4100
31.2200 20.7828 0.4114
31.2400 20.7962 0.4157
31.2600 20.8095 0.4102
31.2800 20.8228 0.4131
31.3000 20.8362 0.4140
31.3200 20.8496 0.4110
31.3400 20.8629 0.4122
31.3600 20.8762 0.4105
31.3800 20.8896 0.4113
31.4000 20.9029 0.4169
31.4200 20.9162 0.4112
31.4400 20.9295 0.4125
31.4600 20.9428 0.4190
31.4800 20.9562 0.4116
31.5000 20.9695 0.4164
31.5200 20.9829 0.4188
31.5400 20.9962 0.4113
31.5600 21.0095 0.4225
31.5800 21.0229 0.4192
31.6000 21.0362 0.4115
31.6200 21.0495 0.4176
31.6400 21.0628 0.4212
31.6600 21.0762 0.4165
31.6800 21.0895 0.4210
31.7000 21.1028 0.4177
31.7200 21.1161 0.4179
31.7400 21.1295 0.4222
31.7600 21.1429 0.4164
31.7800 21.1562 0.4211
31.8000 21.1695 0.4238
31.8200 21.1829 0.4179
31.8400 21.1962 0.4216
31.8600 21.2096 0.4224
31.8800 21.2229 0.4218
31.9000 21.2362 0.4232
31.9200 21.2495 0.4264
31.9400 21.2629 0.4240
31.9600 21.2762 0.4285
31.9800 21.2895 0.4235
32.0000 21.3028 0.4248
32.0200 21.3161 0.4286
32.0400 21.3295 0.4189
32.0600 21.3428 0.4282
32.0800 21.3562 0.4237
32.1000 21.3695 0.4234
32.1200 21.3829 0.4265
32.1400 21.3963 0.4206
32.1600 21.4096 0.4235
32.1800 21.4229 0.4295
32.2000 21.4362 0.4242
32.2200 21.4496 0.4221
32.2400 21.4629 0.4284
32.2600 21.4762 0.4241
32.2800 21.4895 0.4300
32.3000 21.5028 0.4333
32.3200 21.5162 0.4127
32.3400 21.5295 0.4366
32.3600 21.5428 0.4258
32.3800 21.5561 0.4198
32.4000 21.5695 0.4378
32.4200 21.5829 0.4223
32.4400 21.5962 0.4202
32.4600 21.6095 0.4353
32.4800 21.6229 0.4228
32.5000 21.6362 0.4266
32.5200 21.6495 0.4350
32.5400 21.6629 0.4201
32.5600 21.6762 0.4264
32.5800 21.6896 0.4356
32.6000 21.7029 0.4183
32.6200 21.7162 0.4321
32.6400 21.7295 0.4337
32.6600 21.7429 0.4207
32.6800 21.7562 0.4365
32.7000 21.7695 0.4243
32.7200 21.7828 0.4243
32.7400 21.7961 0.4321
32.7600 21.8095 0.4238
32.7800 21.8228 0.4296
32.8000 21.8361 0.4267
32.8200 21.8495 0.4258
32.8400 21.8629 0.4321
32.8600 21.8763 0.4219
32.8800 21.8896 0.4253
32.9000 21.9029 0.4275
32.9200 21.9162 0.4223
32.9400 21.9296 0.4286
32.9600 21.9429 0.4267
32.9800 21.9562 0.4183
33.0000 21.9695 0.4310
33.0200 21.9829 0.4260
33.0400 21.9962 0.4187
33.0600 22.0096 0.4284
33.0800 22.0229 0.4268
33.1000 22.0362 0.4273
33.1200 22.0495 0.4299
33.1400 22.0628 0.4234
33.1600 22.0762 0.4277
33.1800 22.0895 0.4293
33.2000 22.1029 0.4254
33.2200 22.1162 0.4271
33.2400 22.1296 0.4307
33.2600 22.1429 0.4249
33.2800 22.1562 0.4322
33.3000 22.1695 0.4312
33.3200 22.1829 0.4253
33.3400 22.1962 0.4315
33.3600 22.2095 0.4297
33.3800 22.2228 0.4305
33.4000 22.2362 0.4320
33.4200 22.2495 0.4306
33.4400 22.2628 0.4282
33.4600 22.2761 0.4302
33.4800 22.2895 0.4311
33.5000 22.3028 0.4254
33.5200 22.3162 0.4316
33.5400 22.3295 0.4339
33.5600 22.3428 0.4260
33.5800 22.3562 0.4316
33.6000 22.3695 0.4328
33.6200 22.3828 0.4262
33.6400 22.3962 0.4320
33.6600 22.4095 0.4268
33.6800 22.4229 0.4203
33.7000 22.4362 0.4371
33.7200 22.4496 0.4241
33.7400 22.4629 0.4240
33.7600 22.4763 0.4356
33.7800 22.4896 0.4186
33.8000 22.5028 0.4237
33.8200 22.5161 0.4382
33.8400 22.5294 0.4196
33.8600 22.5428 0.4205
33.8800 22.5561 0.4330
33.9000 22.5695 0.4200
33.9200 22.5829 0.4254
33.9400 22.5963 0.4310
33.9600 22.6096 0.4195
33.9800 22.6229 0.4247
34.0000 22.6363 0.4325
34.0200 22.6496 0.4196
34.0400 22.6630 0.4289
34.0600 22.6763 0.4338
34.0800 22.6895 0.4206
34.1000 22.7028 0.4347
34.1200 22.7162 0.4314
34.1400 22.7295 0.4199
34.1600 22.7428 0.4324
34.1800 22.7561 0.4290
34.2000 22.7694 0.4244
34.2200 22.7828 0.4309
34.2400 22.7961 0.4303
34.2600 22.8095 0.4232
34.2800 22.8229 0.4301
34.3000 22.8362 0.4312
34.3200 22.8496 0.4181
34.3400 22.8629 0.4249
34.3600 22.8763 0.4317
34.3800 22.8896 0.4194
34.4000 22.9029 0.4213
34.4200 22.9162 0.4308
34.4400 22.9295 0.4221
34.4600 22.9428 0.4221
34.4800 22.9562 0.4285
34.5000 22.9695 0.4214
34.5200 22.9828 0.4237
34.5400 22.9961 0.4277
34.5600 23.0095 0.4216
34.5800 23.0228 0.4223
34.6000 23.0361 0.4322
34.6200 23.0495 0.4224
34.6400 23.0628 0.4198
34.6600 23.0762 0.4305
34.6800 23.0896 0.4207
34.7000 23.1029 0.4170
34.7200 23.1162 0.4358
34.7400 23.1296 0.4217
34.7600 23.1429 0.4188
34.7800 23.1562 0.4336
34.8000 23.1695 0.4232
34.8200 23.1829 0.4173
34.8400 23.1962 0.4335
34.8600 23.2095 0.4218
34.8800 23.2228 0.4186
34.9000 23.2361 0.4338
34.9200 23.2495 0.4242
34.9400 23.2628 0.4184
34.9600 23.2762 0.4311
34.9800 23.2895 0.4228
35.0000 23.3029 0.4117
35.0200 23.3162 0.4390
35.0400 23.3296 0.4248
35.0600 23.3429 0.4114
35.0800 23.3562 0.4329
35.1000 23.3696 0.4183
35.1200 23.3829 0.4104
35.1400 23.3962 0.4329
35.1600 23.4095 0.4196
35.1800 23.4228 0.4154
35.2000 23.4362 0.4321
35.2200 23.4495 0.4131
35.2400 23.4628 0.4113
35.2600 23.4762 0.4341
35.2800 23.4895 0.4098
35.3000 23.5028 0.4135
35.3200 23.5161 0.4274
35.3400 23.5295 0.4152
35.3600 23.5428 0.4115
35.3800 23.5562 0.4258
35.4000 23.5696 0.4137
35.4200 23.5829 0.4144
35.4400 23.5962 0.4293
35.4600 23.6096 0.4128
35.4800 23.6229 0.4221
35.5000 23.6363 0.4222
35.5200 23.6496 0.4108
35.5400 23.6629 0.4210
35.5600 23.6762 0.4253
35.5800 23.6895 0.4227
35.6000 23.7029 0.4148
35.6200 23.7162 0.4206
35.6400 23.7295 0.4221
35.6600 23.7428 0.4164
35.6800 23.7562 0.4206
35.7000 23.7695 0.4196
35.7200 23.7828 0.4214
35.7400 23.7962 0.4190
35.7600 23.8096 0.4198
35.7800 23.8229 0.4152
35.8000 23.8362 0.4250
35.8200 23.8495 0.4201
35.8400 23.8629 0.4146
35.8600 23.8762 0.4267
35.8800 23.8895 0.4192
35.9000 23.9029 0.4161
35.9200 23.9162 0.4224
35.9400 23.9295 0.4176
35.9600 23.9428 0.4145
35.9800 23.9561 0.4252
36.0000 23.9694 0.4209
36.0200 23.9828 0.4141
36.0400 23.9961 0.4252
36.0600 24.0095 0.4135
36.0800 24.0228 0.4144
36.1000 24.0362 0.4223
36.1200 24.0496 0.4106
36.1400 24.0630 0.4131
36.1600 24.0763 0.4219
36.1800 24.0896 0.4147
36.2000 24.1029 0.4125
36.2200 24.1162 0.4234
36.2400 24.1295 0.4107
36.2600 24.1428 0.4100
36.2800 24.1561 0.4213
36.3000 24.1695 0.4091
36.3200 24.1828 0.4178
36.3400 24.1961 0.4168
36.3600 24.2095 0.4102
36.3800 24.2228 0.4141
36.4000 24.2362 0.4165
36.4200 24.2495 0.4105
36.4400 24.2629 0.4128
36.4600 24.2762 0.4151
36.4800 24.2896 0.4058
36.5000 24.3029 0.4119
36.5200 24.3162 0.4095
36.5400 24.3296 0.4050
36.5600 24.3429 0.4198
36.5800 24.3562 0.4086
36.6000 24.3695 0.4045
36.6200 24.3828 0.4159
36.6400 24.3962 0.4107
36.6600 24.4095 0.4094
36.6800 24.4228 0.4140
36.7000 24.4361 0.4069
36.7200 24.4495 0.4077
36.7400 24.4628 0.4090
36.7600 24.4762 0.4024
36.7800 24.4895 0.4152
36.8000 24.5028 0.4080
36.8200 24.5162 0.3999
36.8400 24.5296 0.4101
36.8600 24.5429 0.4057
36.8800 24.5562 0.4057
36.9000 24.5695 0.4132
36.9200 24.5829 0.4022
36.9400 24.5962 0.4041
36.9600 24.6095 0.4094
36.9800 24.6229 0.4071
37.0000 24.6362 0.4098
37.0200 24.6495 0.4082
37.0400 24.6628 0.3999
37.0600 24.6761 0.4089
37.0800 24.6895 0.4068
37.1000 24.7028 0.4040
37.1200 24.7162 0.4061
37.1400 24.7295 0.4026
37.1600 24.7428 0.4078
37.1800 24.7562 0.4053
37.2000 24.7696 0.4030
37.2200 24.7829 0.4083
37.2400 24.7962 0.4027
37.2600 24.8096 0.4017
37.2800 24.8229 0.4055
37.3000 24.8362 0.4047
37.3200 24.8495 0.4037
37.3400 24.8628 0.4072
37.3600 24.8762 0.4052
37.3800 24.8895 0.3996
37.4000 24.9029 0.4048
37.4200 24.9162 0.4072
37.4400 24.9295 0.3979
37.4600 24.9428 0.4048
37.4800 24.9562 0.4044
37.5000 24.9695 0.3954
37.5200 24.9828 0.4054
37.5400 24.9962 0.4047
37.5600 25.0096 0.3908
37.5800 25.0229 0.4037
37.6000 25.0362 0.4037
37.6200 25.0495 0.3898
37.6400 25.0629 0.4093
37.6600 25.0763 0.4001
37.6800 25.0896 0.3876
37.7000 25.1029 0.4102
37.7200 25.1162 0.4001
37.7400 25.1295 0.3859
37.7600 25.1428 0.4067
37.7800 25.1561 0.4005
37.8000 25.1695 0.3924
37.8200 25.1828 0.4033
37.8400 25.1961 0.3955
37.8600 25.2095 0.3938
37.8800 25.2228 0.4095
37.9000 25.2362 0.3920
37.9200 25.2496 0.3972
37.9400 25.2629 0.4070
37.9600 25.2762 0.3895
37.9800 25.2896 0.3998
38.0000 25.3029 0.4070
38.0200 25.3163 0.3860
38.0400 25.3296 0.4000
38.0600 25.3429 0.4032
38.0800 25.3562 0.3917
38.1000 25.3695 0.3976
38.1200 25.3829 0.4004
38.1400 25.3961 0.3951
38.1600 25.4094 0.3982
38.1800 25.4228 0.3977
38.2000 25.4361 0.3931
38.2200 25.4495 0.3928
38.2400 25.4628 0.3942
38.2600 25.4762 0.3928
38.2800 25.4895 0.3904
38.3000 25.5029 0.3912
38.3200 25.5162 0.3948
38.3400 25.5296 0.3867
38.3600 25.5429 0.3936
38.3800 25.5562 0.3958
38.4000 25.5695 0.3852
38.4200 25.5828 0.3975
38.4400 25.5961 0.3895
38.4600 25.6095 0.3872
38.4800 25.6228 0.3985
38.5000 25.6361 0.3901
38.5200 25.6495 0.3889
38.5400 25.6629 0.4011
38.5600 25.6762 0.3882
38.5800 25.6896 0.3895
38.6000 25.7029 0.4000
38.6200 25.7162 0.3919
38.6400 25.7295 0.3902
38.6600 25.7429 0.3986
38.6800 25.7562 0.3860
38.7000 25.7695 0.3947
38.7200 25.7829 0.3976
38.7400 25.7962 0.3877
38.7600 25.8096 0.3947
38.7800 25.8229 0.3899
38.8000 25.8362 0.3919
38.8200 25.8496 0.3958
38.8400 25.8629 0.3865
38.8600 25.8762 0.3942
38.8800 25.8895 0.3929
38.9000 25.9028 0.3842
38.9200 25.9162 0.3922
38.9400 25.9295 0.3917
38.9600 25.9428 0.3833
38.9800 25.9562 0.3963
39.0000 25.9695 0.3849
39.0200 25.9829 0.3829
39.0400 25.9962 0.4001
39.0600 26.0095 0.3865
39.0800 26.0229 0.3884
39.1000 26.0362 0.3980
39.1200 26.0495 0.3823
39.1400 26.0629 0.3892
39.1600 26.0762 0.3980
39.1800 26.0895 0.3843
39.2000 26.1029 0.3884
39.2200 26.1162 0.3983
39.2400 26.1295 0.3869
39.2600 26.1428 0.3881
39.2800 26.1561 0.3987
39.3000 26.1695 0.3856
39.3200 26.1828 0.3908
39.3400 26.1962 0.3971
39.3600 26.2096 0.3837
39.3800 26.2229 0.3901
39.4000 26.2363 0.3953
39.4200 26.2496 0.3820
39.4400 26.2629 0.3916
39.4600 26.2762 0.3941
39.4800 26.2895 0.3832
39.5000 26.3028 0.3903
39.5200 26.3162 0.3936
39.5400 26.3295 0.3807
39.5600 26.3428 0.3928
39.5800 26.3561 0.3928
39.6000 26.3695 0.3811
39.6200 26.3828 0.3902
39.6400 26.3962 0.3861
39.6600 26.4095 0.3810
39.6800 26.4229 0.3858
39.7000 26.4362 0.3868
39.7200 26.4495 0.3815
39.7400 26.4629 0.3857
39.7600 26.4762 0.3838
39.7800 26.4896 0.3846
39.8000 26.5029 0.3871
39.8200 26.5163 0.3811
39.8400 26.5296 0.3813
39.8600 26.5429 0.3846
39.8800 26.5562 0.3828
39.9000 26.5695 0.3831
39.9200 26.5828 0.3815
39.9400 26.5961 0.3802
39.9600 26.6094 0.3799
39.9800 26.6228 0.3838
40.0000 26.6361 0.3800
40.0200 26.6495 0.3716
40.0400 26.6628 0.3843
40.0600 26.6762 0.3813
40.0800 26.6896 0.3686
40.1000 26.7029 0.3823
40.1200 26.7162 0.3774
40.1400 26.7295 0.3778
40.1600 26.7429 0.3785
40.1800 26.7562 0.3738
40.2000 26.7696 0.3781
40.2200 26.7829 0.3827
40.2400 26.7962 0.3725
40.2600 26.8095 0.3783
40.2800 26.8229 0.3761
40.3000 26.8362 0.3762
40.3200 26.8495 0.3772
40.3400 26.8628 0.3772
40.3600 26.8762 0.3728
40.3800 26.8895 0.3730
40.4000 26.9028 0.3768
40.4200 26.9162 0.3753
40.4400 26.9296 0.3771
40.4600 26.9429 0.3706
40.4800 26.9562 0.3736
40.5000 26.9695 0.3734
40.5200 26.9829 0.3748
40.5400 26.9962 0.3730
40.5600 27.0096 0.3690
40.5800 27.0229 0.3778
40.6000 27.0362 0.3736
40.6200 27.0495 0.3690
40.6400 27.0629 0.3784
40.6600 27.0762 0.3707
40.6800 27.0895 0.3731
40.7000 27.1028 0.3731
40.7200 27.1162 0.3685
40.7400 27.1295 0.3707
40.7600 27.1429 0.3732
40.7800 27.1562 0.3667
40.8000 27.1695 0.3678
40.8200 27.1829 0.3671
40.8400 27.1962 0.3670
40.8600 27.2095 0.3679
40.8800 27.2228 0.3679
40.9000 27.2362 0.3680
40.9200 27.2496 0.3660
40.9400 27.2629 0.3632
40.9600 27.2762 0.3713
40.9800 27.2896 0.3643
41.0000 27.3029 0.3630
41.0200 27.3162 0.3670
41.0400 27.3295 0.3643
41.0600 27.3428 0.3660
41.0800 27.3561 0.3671
41.1000 27.3695 0.3587
41.1200 27.3828 0.3637
41.1400 27.3961 0.3654
41.1600 27.4096 0.3606
41.1800 27.4230 0.3616
41.2000 27.4363 0.3654
41.2200 27.4496 0.3575
41.2400 27.4629 0.3603
41.2600 27.4763 0.3640
41.2800 27.4896 0.3597
41.3000 27.5029 0.3642
41.3200 27.5162 0.3637
41.3400 27.5295 0.3622
41.3600 27.5428 0.3604
41.3800 27.5562 0.3661
41.4000 27.5695 0.3643
41.4200 27.5828 0.3627
41.4400 27.5961 0.3671
41.4600 27.6095 0.3614
41.4800 27.6228 0.3653
41.5000 27.6362 0.3695
41.5200 27.6495 0.3637
41.5400 27.6629 0.3664
41.5600 27.6763 0.3639
41.5800 27.6896 0.3666
41.6000 27.7029 0.3672
41.6200 27.7162 0.3663
41.6400 27.7296 0.3676
41.6600 27.7429 0.3711
41.6800 27.7562 0.3652
41.7000 27.7695 0.3678
41.7200 27.7829 0.3701
41.7400 27.7962 0.3658
41.7600 27.8095 0.3667
41.7800 27.8228 0.3706
41.8000 27.8362 0.3603
41.8200 27.8495 0.3690
41.8400 27.8629 0.3690
41.8600 27.8762 0.3600
41.8800 27.8895 0.3713
41.9000 27.9029 0.3694
41.9200 27.9162 0.3600
41.9400 27.9296 0.3661
41.9600 27.9429 0.3635
41.9800 27.9562 0.3564
42.0000 27.9696 0.3676
42.0200 27.9829 0.3603
42.0400 27.9962 0.3589
42.0600 28.0095 0.3674
42.0800 28.0229 0.3589
42.1000 28.0362 0.3598
42.1200 28.0495 0.3676
42.1400 28.0628 0.3529
42.1600 28.0761 0.3584
42.1800 28.0895 0.3658
42.2000 28.1028 0.3555
42.2200 28.1162 0.3606
42.2400 28.1296 0.3592
42.2600 28.1429 0.3524
42.2800 28.1563 0.3585
42.3000 28.1696 0.3606
42.3200 28.1829 0.3525
42.3400 28.1962 0.3612
42.3600 28.2096 0.3552
42.3800 28.2229 0.3538
42.4000 28.2362 0.3613
42.4200 28.2495 0.3544
42.4400 28.2628 0.3551
42.4600 28.2762 0.3575
42.4800 28.2895 0.3540
42.5000 28.3028 0.3534
42.5200 28.3162 0.3525
42.5400 28.3295 0.3546
42.5600 28.3428 0.3504
42.5800 28.3561 0.3498
42.6000 28.3695 0.3545
42.6200 28.3829 0.3496
42.6400 28.3962 0.3474
42.6600 28.4096 0.3551
42.6800 28.4229 0.3505
42.7000 28.4363 0.3447
42.7200 28.4496 0.3579
42.7400 28.4629 0.3501
42.7600 28.4762 0.3495
42.7800 28.4895 0.3563
42.8000 28.5029 0.3463
42.8200 28.5162 0.3491
42.8400 28.5295 0.3545
42.8600 28.5428 0.3491
42.8800 28.5561 0.3497
42.9000 28.5695 0.3554
42.9200 28.5828 0.3460
42.9400 28.5962 0.3501
42.9600 28.6095 0.3564
42.9800 28.6229 0.3463
43.0000 28.6362 0.3481
43.0200 28.6495 0.3534
43.0400 28.6629 0.3468
43.0600 28.6762 0.3496
43.0800 28.6896 0.3572
43.1000 28.7029 0.3512
43.1200 28.7162 0.3506
43.1400 28.7295 0.3541
43.1600 28.7429 0.3522
43.1800 28.7562 0.3504
43.2000 28.7695 0.3559
43.2200 28.7828 0.3537
43.2400 28.7961 0.3500
43.2600 28.8095 0.3511
43.2800 28.8228 0.3534
43.3000 28.8361 0.3496
43.3200 28.8495 0.3477
43.3400 28.8629 0.3538
43.3600 28.8763 0.3462
43.3800 28.8896 0.3508
43.4000 28.9030 0.3517
43.4200 28.9163 0.3503
43.4400 28.9296 0.3486
43.4600 28.9429 0.3527
43.4800 28.9561 0.3487
43.5000 28.9694 0.3511
43.5200 28.9828 0.3553
43.5400 28.9961 0.3470
43.5600 29.0095 0.3524
43.5800 29.0228 0.3579
43.6000 29.0362 0.3431
43.6200 29.0495 0.3517
43.6400 29.0629 0.3548
43.6600 29.0762 0.3411
43.6800 29.0896 0.3560
43.7000 29.1029 0.3499
43.7200 29.1163 0.3422
43.7400 29.1296 0.3553
43.7600 29.1429 0.3478
43.7800 29.1562 0.3432
43.8000 29.1696 0.3536
43.8200 29.1829 0.3494
43.8400 29.1962 0.3433
43.8600 29.2095 0.3552
43.8800 29.2228 0.3492
43.9000 29.2362 0.3422
43.9200 29.2495 0.3537
43.9400 29.2628 0.3474
43.9600 29.2761 0.3449
43.9800 29.2895 0.3501
44.0000 29.3028 0.3497
44.0200 29.3162 0.3445
44.0400 29.3295 0.3476
44.0600 29.3429 0.3477
44.0800 29.3562 0.3455
44.1000 29.3695 0.3459
44.1200 29.3829 0.3509
44.1400 29.3962 0.3446
44.1600 29.4096 0.3445
44.1800 29.4229 0.3489
44.2000 29.4362 0.3448
44.2200 29.4495 0.3454
44.2400 29.4629 0.3506
44.2600 29.4762 0.3424
44.2800 29.4895 0.3450
44.3000 29.5028 0.3516
44.3200 29.5161 0.3418
44.3400 29.5295 0.3407
44.3600 29.5428 0.3506
44.3800 29.5562 0.3435
44.4000 29.5695 0.3429
44.4200 29.5829 0.3502
44.4400 29.5963 0.3377
44.4600 29.6096 0.3401
44.4800 29.6229 0.3493
44.5000 29.6362 0.3383
44.5200 29.6496 0.3412
44.5400 29.6629 0.3492
44.5600 29.6762 0.3338
44.5800 29.6895 0.3417
44.6000 29.7029 0.3450
44.6200 29.7162 0.3369
44.6400 29.7295 0.3392
44.6600 29.7428 0.3451
44.6800 29.7561 0.3335
44.7000 29.7695 0.3362
44.7200 29.7828 0.3413
44.7400 29.7962 0.3330
44.7600 29.8095 0.3339
44.7800 29.8229 0.3456
44.8000 29.8362 0.3294
44.8200 29.8496 0.3335
44.8400 29.8629 0.3430
44.8600 29.8762 0.3296
44.8800 29.8896 0.3331
44.9000 29.9029 0.3392
44.9200 29.9162 0.3306
44.9400 29.9295 0.3286
44.9600 29.9428 0.3373
44.9800 29.9562 0.3267
45.0000 29.9695 0.3252
45.0200 29.9828 0.3414
45.0400 29.9961 0.3242
45.0600 30.0095 0.3257
45.0800 30.0228 0.3369
45.1000 30.0362 0.3233
45.1200 30.0496 0.3267
45.1400 30.0629 0.3323
45.1600 30.0763 0.3205
45.1800 30.0896 0.3300
45.2000 30.1029 0.3329
45.2200 30.1162 0.3223
45.2400 30.1296 0.3306
45.2600 30.1429 0.3333
45.2800 30.1562 0.3188
45.3000 30.1695 0.3283
45.3200 30.1828 0.3353
45.3400 30.1962 0.3181
45.3600 30.2095 0.3305
45.3800 30.2228 0.3340
45.4000 30.2361 0.3186
45.4200 30.2495 0.3338
45.4400 30.2628 0.3344
45.4600 30.2762 0.3166
45.4800 30.2895 0.3300
45.5000 30.3029 0.3328
45.5200 30.3163 0.3183
45.5400 30.3296 0.3324
45.5600 30.3429 0.3332
45.5800 30.3562 0.3190
45.6000 30.3696 0.3326
45.6200 30.3829 0.3297
45.6400 30.3962 0.3225
45.6600 30.4095 0.3280
45.6800 30.4228 0.3291
45.7000 30.4361 0.3262
45.7200 30.4495 0.3270
45.7400 30.4628 0.3272
45.7600 30.4762 0.3238
45.7800 30.4895 0.3262
45.8000 30.5029 0.3278
45.8200 30.5162 0.3257
45.8400 30.5295 0.3278
45.8600 30.5429 0.3267
45.8800 30.5562 0.3264
45.9000 30.5695 0.3283
45.9200 30.5828 0.3322
45.9400 30.5962 0.3239
45.9600 30.6095 0.3242
45.9800 30.6229 0.3317
46.0000 30.6362 0.3242
46.0200 30.6495 0.3271
46.0400 30.6629 0.3308
46.0600 30.6762 0.3248
46.0800 30.6896 0.3245
46.1000 30.7028 0.3269
46.1200 30.7162 0.3272
46.1400 30.7295 0.3232
46.1600 30.7428 0.3277
46.1800 30.7562 0.3242
46.2000 30.7695 0.3243
46.2200 30.7828 0.3307
46.2400 30.7962 0.3233
46.2600 30.8095 0.3259
46.2800 30.8229 0.3287
46.3000 30.8362 0.3243
46.3200 30.8496 0.3259
46.3400 30.8629 0.3289
46.3600 30.8762 0.3236
46.3800 30.8895 0.3271
46.4000 30.9029 0.3237
46.4200 30.9162 0.3233
46.4400 30.9296 0.3255
46.4600 30.9428 0.3223
46.4800 30.9561 0.3223
46.5000 30.9695 0.3215
46.5200 30.9828 0.3199
46.5400 30.9961 0.3201
46.5600 31.0095 0.3225
46.5800 31.0229 0.3206
46.6000 31.0363 0.3236
46.6200 31.0496 0.3189
46.6400 31.0629 0.3229
46.6600 31.0762 0.3236
46.6800 31.0896 0.3179
46.7000 31.1029 0.3189
46.7200 31.1162 0.3198
46.7400 31.1295 0.3184
46.7600 31.1429 0.3264
46.7800 31.1562 0.3195
46.8000 31.1695 0.3166
46.8200 31.1828 0.3272
46.8400 31.1961 0.3160
46.8600 31.2095 0.3161
46.8800 31.2229 0.3261
46.9000 31.2362 0.3163
46.9200 31.2495 0.3222
46.9400 31.2629 0.3241
46.9600 31.2762 0.3131
46.9800 31.2896 0.3209
47.0000 31.3029 0.3247
47.0200 31.3162 0.3157
47.0400 31.3296 0.3206
47.0600 31.3429 0.3205
47.0800 31.3562 0.3188
47.1000 31.3695 0.3237
47.1200 31.3829 0.3206
47.1400 31.3962 0.3204
47.1600 31.4095 0.3201
47.1800 31.4228 0.3213
47.2000 31.4361 0.3212
47.2200 31.4495 0.3207
47.2400 31.4628 0.3207
47.2600 31.4762 0.3195
47.2800 31.4895 0.3217
47.3000 31.5029 0.3224
47.3200 31.5162 0.3171
47.3400 31.5296 0.3173
47.3600 31.5429 0.3216
47.3800 31.5562 0.3166
47.4000 31.5695 0.3164
47.4200 31.5829 0.3243
47.4400 31.5962 0.3125
47.4600 31.6095 0.3152
47.4800 31.6228 0.3223
47.5000 31.6362 0.3101
47.5200 31.6495 0.3192
47.5400 31.6628 0.3194
47.5600 31.6762 0.3085
47.5800 31.6895 0.3196
47.6000 31.7028 0.3175
47.6200 31.7162 0.3138
47.6400 31.7295 0.3189
47.6600 31.7429 0.3172
47.6800 31.7563 0.3052
47.7000 31.7696 0.3212
47.7200 31.7829 0.3142
47.7400 31.7962 0.3062
47.7600 31.8096 0.3245
47.7800 31.8229 0.3084
47.8000 31.8362 0.3090
47.8200 31.8495 0.3272
47.8400 31.8628 0.3063
47.8600 31.8762 0.3125
47.8800 31.8895 0.3268
47.9000 31.9028 0.2995
47.9200 31.9161 0.3093
47.9400 31.9295 0.3308
47.9600 31.9428 0.3004
47.9800 31.9562 0.3141
48.0000 31.9695 0.3254
48.0200 31.9828 0.3000
48.0400 31.9962 0.3179
48.0600 32.0095 0.3235
48.0800 32.0228 0.2986
48.1000 32.0362 0.3233
48.1200 32.0495 0.3187
48.1400 32.0629 0.2974
48.1600 32.0762 0.3211
48.1800 32.0896 0.3185
48.2000 32.1029 0.2988
48.2200 32.1162 0.3222
48.2400 32.1296 0.3159
48.2600 32.1428 0.3004
48.2800 32.1561 0.3198
48.3000 32.1694 0.3115
48.3200 32.1828 0.2999
48.3400 32.1961 0.3173
48.3600 32.2095 0.3058
48.3800 32.2228 0.3012
48.4000 32.2362 0.3200
48.4200 32.2496 0.3015
48.4400 32.2629 0.3045
48.4600 32.2762 0.3135
48.4800 32.2896 0.3012
48.5000 32.3030 0.3041
48.5200 32.3163 0.3102
48.5400 32.3295 0.3049
48.5600 32.3428 0.3062
48.5800 32.3562 0.3066
48.6000 32.3695 0.3056
48.6200 32.3828 0.3017
48.6400 32.3961 0.3060
48.6600 32.4095 0.3064
48.6800 32.4228 0.3020
48.7000 32.4362 0.3025
48.7200 32.4495 0.3083
48.7400 32.4629 0.3021
48.7600 32.4762 0.2967
48.7800 32.4896 0.3061
48.8000 32.5029 0.2988
48.8200 32.5163 0.3046
48.8400 32.5296 0.3146
48.8600 32.5429 0.2958
48.8800 32.5562 0.3017
48.9000 32.5695 0.3093
48.9200 32.5828 0.3015
48.9400 32.5962 0.3060
48.9600 32.6095 0.3072
48.9800 32.6228 0.2946
49.0000 32.6361 0.3080
49.0200 32.6495 0.3097
49.0400 32.6628 0.2947
49.0600 32.6762 0.3097
49.0800 32.6895 0.3046
49.1000 32.7028 0.2934
49.1200 32.7162 0.3119
49.1400 32.7296 0.3061
49.1600 32.7429 0.2944
49.1800 32.7562 0.3125
49.2000 32.7696 0.3061
49.2200 32.7829 0.2945
49.2400 32.7962 0.3111
49.2600 32.8095 0.3117
49.2800 32.8228 0.2974
49.3000 32.8362 0.3112
49.3200 32.8495 0.3054
49.3400 32.8628 0.3001
49.3600 32.8761 0.3117
49.3800 32.8894 0.3035
49.4000 32.9028 0.2980
49.4200 32.9162 0.3052
49.4400 32.9295 0.3020
49.4600 32.9429 0.2980
49.4800 32.9562 0.3084
49.5000 32.9696 0.2999
49.5200 32.9829 0.2954
49.5400 32.9962 0.3048
49.5600 33.0096 0.3047
49.5800 33.0229 0.2954
49.6000 33.0362 0.3022
49.6200 33.0495 0.3046
49.6400 33.0628 0.2954
49.6600 33.0762 0.3064
49.6800 33.0895 0.3051
49.7000 33.1028 0.2908
49.7200 33.1161 0.3069
49.7400 33.1295 0.2991
49.7600 33.1428 0.2872
49.7800 33.1562 0.3071
49.8000 33.1695 0.3010
49.8200 33.1828 0.2867
49.8400 33.1962 0.3025
49.8600 33.2096 0.2947
49.8800 33.2229 0.2926
49.9000 33.2362 0.3025
49.9200 33.2496 0.2968
49.9400 33.2630 0.2899
49.9600 33.2763 0.3002
49.9800 33.2896 0.2924
50.0000 33.3029 0.2913
50.0200 33.3162 0.3011
50.0400 33.3296 0.2956
50.0600 33.3429 0.2913
50.0800 33.3562 0.2936
50.1000 33.3695 0.2929
50.1200 33.3828 0.2907
50.1400 33.3962 0.2918
50.1600 33.4095 0.2904
50.1800 33.4228 0.2875
50.2000 33.4362 0.2908
50.2200 33.4496 0.2905
50.2400 33.4629 0.2863
50.2600 33.4762 0.2892
50.2800 33.4895 0.2873
50.3000 33.5029 0.2836
50.3200 33.5162 0.2881
50.3400 33.5295 0.2916
50.3600 33.5429 0.2853
50.3800 33.5562 0.2837
50.4000 33.5696 0.2900
50.4200 33.5829 0.2823
50.4400 33.5962 0.2832
50.4600 33.6095 0.2879
50.4800 33.6228 0.2798
50.5000 33.6361 0.2822
50.5200 33.6494 0.2826
50.5400 33.6628 0.2780
50.5600 33.6762 0.2836
50.5800 33.6896 0.2849
50.6000 33.7030 0.2765
50.6200 33.7163 0.2809
50.6400 33.7296 0.2850
50.6600 33.7429 0.2807
50.6800 33.7562 0.2799
50.7000 33.7695 0.2873
50.7200 33.7828 0.2791
50.7400 33.7961 0.2834
50.7600 33.8095 0.2807
50.7800 33.8228 0.2774
50.8000 33.8361 0.2847
50.8200 33.8495 0.2843
50.8400 33.8629 0.2731
50.8600 33.8762 0.2848
50.8800 33.8895 0.2883
50.9000 33.9029 0.2758
50.9200 33.9162 0.2840
50.9400 33.9296 0.2921
50.9600 33.9429 0.2758
50.9800 33.9562 0.2863
51.0000 33.9695 0.2895
51.0200 33.9829 0.2762
51.0400 33.9962 0.2893
51.0600 34.0095 0.2868
51.0800 34.0228 0.2746
51.1000 34.0362 0.2935
51.1200 34.0495 0.2834
51.1400 34.0628 0.2800
51.1600 34.0761 0.2920
51.1800 34.0895 0.2838
51.2000 34.1028 0.2826
51.2200 34.1162 0.2893
51.2400 34.1295 0.2835
51.2600 34.1429 0.2814
51.2800 34.1562 0.2903
51.3000 34.1696 0.2795
51.3200 34.1829 0.2846
51.3400 34.1962 0.2861
51.3600 34.2095 0.2811
51.3800 34.2229 0.2837
51.4000 34.2363 0.2855
51.4200 34.2496 0.2846
51.4400 34.2629 0.2848
51.4600 34.2762 0.2822
51.4800 34.2896 0.2862
51.5000 34.3029 0.2836
51.5200 34.3161 0.2883
51.5400 34.3295 0.2840
51.5600 34.3428 0.2811
51.5800 34.3562 0.2805
51.6000 34.3695 0.2850
51.6200 34.3828 0.2815
51.6400 34.3962 0.2849
51.6600 34.4096 0.2840
51.6800 34.4229 0.2754
51.7000 34.4363 0.2824
51.7200 34.4496 0.2798
51.7400 34.4629 0.2779
51.7600 34.4762 0.2811
51.7800 34.4895 0.2800
51.8000 34.5028 0.2814
51.8200 34.5162 0.2741
51.8400 34.5295 0.2841
51.8600 34.5429 0.2749
51.8800 34.5562 0.2752
51.9000 34.5695 0.2823
51.9200 34.5828 0.2720
51.9400 34.5962 0.2794
51.9600 34.6095 0.2813
51.9800 34.6228 0.2766
52.0000 34.6361 0.2761
52.0200 34.6495 0.2816
52.0400 34.6629 0.2723
52.0600 34.6762 0.2749
52.0800 34.6895 0.2849
52.1000 34.7029 0.2708
52.1200 34.7163 0.2761
52.1400 34.7296 0.2874
52.1600 34.7429 0.2729
52.1800 34.7562 0.2840
52.2000 34.7695 0.2810
52.2200 34.7828 0.2731
52.2400 34.7961 0.2825
52.2600 34.8095 0.2801
52.2800 34.8228 0.2744
52.3000 34.8362 0.2795
52.3200 34.8495 0.2759
52.3400 34.8628 0.2786
52.3600 34.8762 0.2777
52.3800 34.8896 0.2780
52.4000 34.9029 0.2780
52.4200 34.9162 0.2802
52.4400 34.9295 0.2741
52.4600 34.9429 0.2802
52.4800 34.9562 0.2808
52.5000 34.9696 0.2720
52.5200 34.9829 0.2846
52.5400 34.9962 0.2773
52.5600 35.0095 0.2733
52.5800 35.0229 0.2836
52.6000 35.0362 0.2805
52.6200 35.0495 0.2755
52.6400 35.0628 0.2806
52.6600 35.0762 0.2781
52.6800 35.0895 0.2720
52.7000 35.1028 0.2858
52.7200 35.1162 0.2743
52.7400 35.1296 0.2757
52.7600 35.1429 0.2815
52.7800 35.1562 0.2716
52.8000 35.1696 0.2845
52.8200 35.1829 0.2799
52.8400 35.1962 0.2779
52.8600 35.2095 0.2763
52.8800 35.2228 0.2811
52.9000 35.2361 0.2764
52.9200 35.2495 0.2813
52.9400 35.2628 0.2806
52.9600 35.2761 0.2739
52.9800 35.2895 0.2813
53.0000 35.3029 0.2782
53.0200 35.3162 0.2759
53.0400 35.3296 0.2759
53.0600 35.3429 0.2713
53.0800 35.3562 0.2806
53.1000 35.3696 0.2706
53.1200 35.3829 0.2733
53.1400 35.3962 0.2777
53.1600 35.4095 0.2698
53.1800 35.4229 0.2713
53.2000 35.4362 0.2731
53.2200 35.4495 0.2680
53.2400 35.4629 0.2743
53.2600 35.4762 0.2733
53.2800 35.4896 0.2633
53.3000 35.5029 0.2708
53.3200 35.5162 0.2685
53.3400 35.5295 0.2629
53.3600 35.5428 0.2754
53.3800 35.5561 0.2642
53.4000 35.5695 0.2621
53.4200 35.5828 0.2751
53.4400 35.5962 0.2589
53.4600 35.6095 0.2634
53.4800 35.6229 0.2750
53.5000 35.6362 0.2579
53.5200 35.6495 0.2607
53.5400 35.6629 0.2786
53.5600 35.6762 0.2560
53.5800 35.6896 0.2625
53.6000 35.7029 0.2770
53.6200 35.7162 0.2544
53.6400 35.7295 0.2654
53.6600 35.7429 0.2747
53.6800 35.7562 0.2544
53.7000 35.7695 0.2725
53.7200 35.7828 0.2651
53.7400 35.7961 0.2544
53.7600 35.8095 0.2714
53.7800 35.8228 0.2668
53.8000 35.8362 0.2596
53.8200 35.8495 0.2712
53.8400 35.8629 0.2599
53.8600 35.8762 0.2583
53.8800 35.8896 0.2689
53.9000 35.9029 0.2616
53.9200 35.9163 0.2602
53.9400 35.9296 0.2672
53.9600 35.9428 0.2645
53.9800 35.9562 0.2614
54.0000 35.9695 0.2588
54.0200 35.9828 0.2621
54.0400 35.9962 0.2653
54.0600 36.0095 0.2593
54.0800 36.0228 0.2610
54.1000 36.0362 0.2628
54.1200 36.0495 0.2576
54.1400 36.0628 0.2607
54.1600 36.0762 0.2664
54.1800 36.0895 0.2541
54.2000 36.1029 0.2637
54.2200 36.1162 0.2651
54.2400 36.1295 0.2587
54.2600 36.1429 0.2643
54.2800 36.1563 0.2600
54.3000 36.1696 0.2575
54.3200 36.1829 0.2627
54.3400 36.1962 0.2647
54.3600 36.2095 0.2555
54.3800 36.2229 0.2653
54.4000 36.2362 0.2609
54.4200 36.2495 0.2509
54.4400 36.2628 0.2671
54.4600 36.2761 0.2601
54.4800 36.2895 0.2526
54.5000 36.3028 0.2586
54.5200 36.3162 0.2604
54.5400 36.3296 0.2513
54.5600 36.3430 0.2610
54.5800 36.3563 0.2642
54.6000 36.3696 0.2504
54.6200 36.3829 0.2599
54.6400 36.3962 0.2594
54.6600 36.4096 0.2483
54.6800 36.4229 0.2627
54.7000 36.4362 0.2622
54.7200 36.4495 0.2497
54.7400 36.4629 0.2615
54.7600 36.4762 0.2616
54.7800 36.4895 0.2472
54.8000 36.5028 0.2630
54.8200 36.5162 0.2612
54.8400 36.5295 0.2509
54.8600 36.5428 0.2643
54.8800 36.5562 0.2585
54.9000 36.5696 0.2503
54.9200 36.5829 0.2584
54.9400 36.5962 0.2603
54.9600 36.6095 0.2522
54.9800 36.6229 0.2621
55.0000 36.6362 0.2604
55.0200 36.6496 0.2500
55.0400 36.6628 0.2585
55.0600 36.6761 0.2612
55.0800 36.6895 0.2522
55.1000 36.7028 0.2588
55.1200 36.7161 0.2601
55.1400 36.7295 0.2554
55.1600 36.7428 0.2561
55.1800 36.7561 0.2593
55.2000 36.7695 0.2543
55.2200 36.7828 0.2588
55.2400 36.7962 0.2573
55.2600 36.8095 0.2513
55.2800 36.8229 0.2558
55.3000 36.8362 0.2567
55.3200 36.8495 0.2525
55.3400 36.8628 0.2617
55.3600 36.8762 0.2591
55.3800 36.8896 0.2497
55.4000 36.9029 0.2588
55.4200 36.9162 0.2562
55.4400 36.9296 0.2527
55.4600 36.9429 0.2592
55.4800 36.9562 0.2551
55.5000 36.9695 0.2513
55.5200 36.9828 0.2618
55.5400 36.9961 0.2539
55.5600 37.0094 0.2522
55.5800 37.0228 0.2640
55.6000 37.0361 0.2536
55.6200 37.0495 0.2551
55.6400 37.0629 0.2587
55.6600 37.0763 0.2552
55.6800 37.0896 0.2553
55.7000 37.1029 0.2546
55.7200 37.1163 0.2536
55.7400 37.1296 0.2586
55.7600 37.1429 0.2563
55.7800 37.1562 0.2587
55.8000 37.1695 0.2605
55.8200 37.1828 0.2492
55.8400 37.1962 0.2526
55.8600 37.2095 0.2561
55.8800 37.2228 0.2537
55.9000 37.2361 0.2557
55.9200 37.2495 0.2578
55.9400 37.2628 0.2477
55.9600 37.2762 0.2564
55.9800 37.2895 0.2556
56.0000 37.3029 0.2489
56.0200 37.3163 0.2489
56.0400 37.3296 0.2512
56.0600 37.3429 0.2498
56.0800 37.3563 0.2486
56.1000 37.3696 0.2496
56.1200 37.3829 0.2419
56.1400 37.3962 0.2511
56.1600 37.4095 0.2509
56.1800 37.4229 0.2392
56.2000 37.4362 0.2532
56.2200 37.4495 0.2424
56.2400 37.4628 0.2382
56.2600 37.4761 0.2493
56.2800 37.4895 0.2425
56.3000 37.5028 0.2386
56.3200 37.5162 0.2510
56.3400 37.5295 0.2386
56.3600 37.5429 0.2387
56.3800 37.5562 0.2487
56.4000 37.5696 0.2374
56.4200 37.5829 0.2452
56.4400 37.5962 0.2476
56.4600 37.6096 0.2348
56.4800 37.6229 0.2447
56.5000 37.6362 0.2422
56.5200 37.6495 0.2387
56.5400 37.6629 0.2418
56.5600 37.6762 0.2369
56.5800 37.6895 0.2376
56.6000 37.7028 0.2475
56.6200 37.7161 0.2372
56.6400 37.7295 0.2372
56.6600 37.7428 0.2454
56.6800 37.7562 0.2299
56.7000 37.7695 0.2453
56.7200 37.7829 0.2428
56.7400 37.7963 0.2371
56.7600 37.8096 0.2457
56.7800 37.8229 0.2380
56.8000 37.8362 0.2346
56.8200 37.8496 0.2438
56.8400 37.8629 0.2328
56.8600 37.8762 0.2387
56.8800 37.8895 0.2406
56.9000 37.9029 0.2344
56.9200 37.9162 0.2357
56.9400 37.9295 0.2391
56.9600 37.9428 0.2353
56.9800 37.9562 0.2372
57.0000 37.9695 0.2333
57.0200 37.9828 0.2366
57.0400 37.9962 0.2383
57.0600 38.0095 0.2300
57.0800 38.0229 0.2341
57.1000 38.0363 0.2336
57.1200 38.0496 0.2309
57.1400 38.0629 0.2383
57.1600 38.0763 0.2355
57.1800 38.0896 0.2324
57.2000 38.1029 0.2422
57.2200 38.1162 0.2297
57.2400 38.1295 0.2359
57.2600 38.1428 0.2400
57.2800 38.1562 0.2261
57.3000 38.1695 0.2381
57.3200 38.1828 0.2389
57.3400 38.1961 0.2288
57.3600 38.2095 0.2400
57.3800 38.2228 0.2376
57.4000 38.2361 0.2280
57.4200 38.2495 0.2392
57.4400 38.2629 0.2388
57.4600 38.2762 0.2279
57.4800 38.2895 0.2403
57.5000 38.3029 0.2357
57.5200 38.3162 0.2322
57.5400 38.3296 0.2395
57.5600 38.3429 0.2349
57.5800 38.3562 0.2347
57.6000 38.3695 0.2391
57.6200 38.3829 0.2292
57.6400 38.3962 0.2321
57.6600 38.4095 0.2413
57.6800 38.4228 0.2344
57.7000 38.4361 0.2301
57.7200 38.4495 0.2385
57.7400 38.4628 0.2341
57.7600 38.4761 0.2305
57.7800 38.4895 0.2366
57.8000 38.5029 0.2314
57.8200 38.5163 0.2300
57.8400 38.5296 0.2348
57.8600 38.5429 0.2322
57.8800 38.5563 0.2296
57.9000 38.5696 0.2357
57.9200 38.5829 0.2322
57.9400 38.5961 0.2258
57.9600 38.6094 0.2356
57.9800 38.6228 0.2334
58.0000 38.6362 0.2251
58.0200 38.6495 0.2288
58.0400 38.6628 0.2313
58.0600 38.6762 0.2286
58.0800 38.6895 0.2225
58.1000 38.7029 0.2299
58.1200 38.7162 0.2218
58.1400 38.7296 0.2231
58.1600 38.7429 0.2273
58.1800 38.7563 0.2178
58.2000 38.7696 0.2234
58.2200 38.7829 0.2263
58.2400 38.7962 0.2195
58.2600 38.8096 0.2217
58.2800 38.8229 0.2217
58.3000 38.8362 0.2169
58.3200 38.8495 0.2233
58.3400 38.8629 0.2202
58.3600 38.8762 0.2088
58.3800 38.8895 0.2201
58.4000 38.9028 0.2173
58.4200 38.9161 0.2121
58.4400 38.9295 0.2177
58.4600 38.9429 0.2145
58.4800 38.9562 0.2144
58.5000 38.9695 0.2155
58.5200 38.9829 0.2118
58.5400 38.9963 0.2084
58.5600 39.0096 0.2170
58.5800 39.0229 0.2140
58.6000 39.0362 0.2078
58.6200 39.0496 0.2138
58.6400 39.0629 0.2122
58.6600 39.0762 0.2096
58.6800 39.0895 0.2156
58.7000 39.1028 0.2169
58.7200 39.1162 0.2081
58.7400 39.1295 0.2121
58.7600 39.1428 0.2254
58.7800 39.1561 0.2117
58.8000 39.1695 0.2135
58.8200 39.1828 0.2163
58.8400 39.1962 0.2102
58.8600 39.2095 0.2153
58.8800 39.2229 0.2182
58.9000 39.2363 0.2080
58.9200 39.2496 0.2136
58.9400 39.2629 0.2208
58.9600 39.2762 0.2121
58.9800 39.2896 0.2129
59.0000 39.3029 0.2207
59.0200 39.3162 0.2077
59.0400 39.3295 0.2144
59.0600 39.3428 0.2202
59.0800 39.3562 0.2048
59.1000 39.3695 0.2147
59.1200 39.3828 0.2217
59.1400 39.3961 0.2052
59.1600 39.4095 0.2150
59.1800 39.4228 0.2172
59.2000 39.4362 0.2045
59.2200 39.4495 0.2150
59.2400 39.4628 0.2174
59.2600 39.4762 0.2097
59.2800 39.4895 0.2172
59.3000 39.5029 0.2192
59.3200 39.5162 0.2105
59.3400 39.5296 0.2208
59.3600 39.5429 0.2209
59.3800 39.5562 0.2087
59.4000 39.5695 0.2222
59.4200 39.5828 0.2197
59.4400 39.5962 0.2156
59.4600 39.6095 0.2235
59.4800 39.6228 0.2202
59.5000 39.6361 0.2129
59.5200 39.6495 0.2222
59.5400 39.6628 0.2212
59.5600 39.6762 0.2128
59.5800 39.6895 0.2209
59.6000 39.7029 0.2171
59.6200 39.7163 0.2051
59.6400 39.7296 0.2189
59.6600 39.7429 0.2196
59.6800 39.7562 0.2016
59.7000 39.7696 0.2168
59.7200 39.7829 0.2123
59.7400 39.7962 0.2045
59.7600 39.8095 0.2144
59.7800 39.8228 0.2134
59.8000 39.8362 0.2019
59.8200 39.8495 0.2062
59.8400 39.8628 0.2104
59.8600 39.8761 0.2010
59.8800 39.8895 0.2052
59.9000 39.9028 0.2071
59.9200 39.9162 0.2010
59.9400 39.9295 0.2012
59.9600 39.9429 0.2043
59.9800 39.9563 0.1999
60.0000 39.9696 0.1954
60.0200 39.9829 0.2040
60.0400 39.9962 0.1864
60.0460 40.0001 0.1735
