Raw Data
Time Displacement Force
(s) (mm) (N)
0.0000 0.0000 0.2450
0.0200 0.0001 0.2576
0.0400 0.0022 0.3235
0.0600 0.0101 0.3203
0.0800 0.0221 0.2302
0.1000 0.0346 0.2438
0.1200 0.0473 0.2761
0.1400 0.0607 0.2433
0.1600 0.0748 0.2499
0.1800 0.0889 0.2564
0.2000 0.1028 0.2337
0.2200 0.1164 0.2506
0.2400 0.1297 0.2608
0.2600 0.1430 0.2389
0.2800 0.1564 0.2590
0.3000 0.1698 0.2571
0.3200 0.1831 0.2390
0.3400 0.1965 0.2615
0.3600 0.2098 0.2527
0.3800 0.2231 0.2537
0.4000 0.2365 0.2604
0.4200 0.2498 0.2533
0.4400 0.2631 0.2584
0.4600 0.2764 0.2515
0.4800 0.2898 0.2534
0.5000 0.3031 0.2559
0.5200 0.3165 0.2531
0.5400 0.3298 0.2526
0.5600 0.3431 0.2575
0.5800 0.3565 0.2556
0.6000 0.3698 0.2497
0.6200 0.3832 0.2578
0.6400 0.3965 0.2515
0.6600 0.4099 0.2544
0.6800 0.4232 0.2576
0.7000 0.4365 0.2448
0.7200 0.4498 0.2594
0.7400 0.4632 0.2517
0.7600 0.4765 0.2519
0.7800 0.4899 0.2569
0.8000 0.5032 0.2535
0.8200 0.5165 0.2484
0.8400 0.5298 0.2583
0.8600 0.5432 0.2479
0.8800 0.5564 0.2464
0.9000 0.5697 0.2635
0.9200 0.5830 0.2452
0.9400 0.5964 0.2453
0.9600 0.6098 0.2581
0.9800 0.6231 0.2439
1.0000 0.6365 0.2484
1.0200 0.6498 0.2508
1.0400 0.6632 0.2449
1.0600 0.6765 0.2446
1.0800 0.6898 0.2524
1.1000 0.7032 0.2408
1.1200 0.7165 0.2461
1.1400 0.7298 0.2524
1.1600 0.7431 0.2371
1.1800 0.7565 0.2465
1.2000 0.7698 0.2524
1.2200 0.7832 0.2341
1.2400 0.7965 0.2467
1.2600 0.8098 0.2505
1.2800 0.8231 0.2366
1.3000 0.8364 0.2488
1.3200 0.8498 0.2469
1.3400 0.8631 0.2382
1.3600 0.8764 0.2470
1.3800 0.8898 0.2492
1.4000 0.9032 0.2376
1.4200 0.9165 0.2410
1.4400 0.9298 0.2500
1.4600 0.9432 0.2381
1.4800 0.9565 0.2435
1.5000 0.9699 0.2493
1.5200 0.9832 0.2362
1.5400 0.9965 0.2529
1.5600 1.0098 0.2465
1.5800 1.0231 0.2334
1.6000 1.0364 0.2514
1.6200 1.0498 0.2453
1.6400 1.0631 0.2297
1.6600 1.0764 0.2493
1.6800 1.0898 0.2458
1.7000 1.1031 0.2319
1.7200 1.1165 0.2509
1.7400 1.1299 0.2452
1.7600 1.1432 0.2322
1.7800 1.1566 0.2493
1.8000 1.1699 0.2454
1.8200 1.1832 0.2372
1.8400 1.1965 0.2474
1.8600 1.2099 0.2430
1.8800 1.2232 0.2361
1.9000 1.2365 0.2479
1.9200 1.2498 0.2419
1.9400 1.2632 0.2339
1.9600 1.2765 0.2464
1.9800 1.2898 0.2389
2.0000 1.3031 0.2328
2.0200 1.3164 0.2444
2.0400 1.3298 0.2358
2.0600 1.3431 0.2307
2.0800 1.3565 0.2437
2.1000 1.3698 0.2342
2.1200 1.3832 0.2290
2.1400 1.3966 0.2457
2.1600 1.4099 0.2357
2.1800 1.4232 0.2342
2.2000 1.4365 0.2421
2.2200 1.4498 0.2310
2.2400 1.4631 0.2351
2.2600 1.4764 0.2368
2.2800 1.4897 0.2324
2.3000 1.5031 0.2363
2.3200 1.5164 0.2345
2.3400 1.5298 0.2326
2.3600 1.5431 0.2374
2.3800 1.5565 0.2338
2.4000 1.5699 0.2339
2.4200 1.5832 0.2358
2.4400 1.5965 0.2333
2.4600 1.6098 0.2304
2.4800 1.6232 0.2332
2.5000 1.6365 0.2318
2.5200 1.6498 0.2317
2.5400 1.6631 0.2347
2.5600 1.6765 0.2321
2.5800 1.6899 0.2262
2.6000 1.7032 0.2310
2.6200 1.7165 0.2297
2.6400 1.7299 0.2328
2.6600 1.7432 0.2327
2.6800 1.7565 0.2292
2.7000 1.7698 0.2320
2.7200 1.7831 0.2280
2.7400 1.7965 0.2278
2.7600 1.8098 0.2304
2.7800 1.8231 0.2306
2.8000 1.8364 0.2268
2.8200 1.8498 0.2309
2.8400 1.8632 0.2289
2.8600 1.8765 0.2269
2.8800 1.8898 0.2272
2.9000 1.9032 0.2247
2.9200 1.9165 0.2260
2.9400 1.9299 0.2250
2.9600 1.9432 0.2279
2.9800 1.9565 0.2292
3.0000 1.9698 0.2207
3.0200 1.9832 0.2277
3.0400 1.9965 0.2271
3.0600 2.0098 0.2234
3.0800 2.0231 0.2277
3.1000 2.0364 0.2217
3.1200 2.0498 0.2199
3.1400 2.0631 0.2260
3.1600 2.0765 0.2202
3.1800 2.0898 0.2226
3.2000 2.1032 0.2253
3.2200 2.1166 0.2146
3.2400 2.1299 0.2237
3.2600 2.1432 0.2288
3.2800 2.1566 0.2117
3.3000 2.1699 0.2225
3.3200 2.1832 0.2235
3.3400 2.1965 0.2116
3.3600 2.2098 0.2270
3.3800 2.2231 0.2259
3.4000 2.2365 0.2131
3.4200 2.2498 0.2250
3.4400 2.2631 0.2222
3.4600 2.2764 0.2174
3.4800 2.2898 0.2172
3.5000 2.3032 0.2245
3.5200 2.3165 0.2147
3.5400 2.3298 0.2198
3.5600 2.3432 0.2191
3.5800 2.3565 0.2102
3.6000 2.3698 0.2231
3.6200 2.3832 0.2216
3.6400 2.3965 0.2164
3.6600 2.4099 0.2183
3.6800 2.4232 0.2195
3.7000 2.4365 0.2171
3.7200 2.4498 0.2167
3.7400 2.4632 0.2192
3.7600 2.4765 0.2180
3.7800 2.4898 0.2125
3.8000 2.5031 0.2176
3.8200 2.5164 0.2158
3.8400 2.5298 0.2105
3.8600 2.5431 0.2181
3.8800 2.5564 0.2159
3.9000 2.5698 0.2087
3.9200 2.5832 0.2198
3.9400 2.5966 0.2106
3.9600 2.6099 0.2110
3.9800 2.6232 0.2158
4.0000 2.6365 0.2101
4.0200 2.6499 0.2122
4.0400 2.6632 0.2242
4.0600 2.6765 0.2073
4.0800 2.6898 0.2106
4.1000 2.7032 0.2197
4.1200 2.7165 0.2089
4.1400 2.7298 0.2117
4.1600 2.7431 0.2146
4.1800 2.7564 0.2064
4.2000 2.7698 0.2138
4.2200 2.7831 0.2108
4.2400 2.7964 0.2076
4.2600 2.8098 0.2174
4.2800 2.8232 0.2120
4.3000 2.8365 0.2027
4.3200 2.8498 0.2145
4.3400 2.8632 0.2116
4.3600 2.8765 0.2080
4.3800 2.8899 0.2117
4.4000 2.9032 0.2111
4.4200 2.9165 0.2065
4.4400 2.9298 0.2129
4.4600 2.9431 0.2074
4.4800 2.9565 0.2100
4.5000 2.9698 0.2094
4.5200 2.9831 0.2105
4.5400 2.9965 0.2106
4.5600 3.0098 0.2028
4.5800 3.0231 0.2123
4.6000 3.0365 0.2083
4.6200 3.0498 0.2002
4.6400 3.0631 0.2140
4.6600 3.0765 0.2046
4.6800 3.0898 0.2011
4.7000 3.1031 0.2104
4.7200 3.1165 0.2035
4.7400 3.1299 0.2019
4.7600 3.1432 0.2092
4.7800 3.1565 0.2050
4.8000 3.1699 0.2038
4.8200 3.1832 0.2113
4.8400 3.1965 0.2043
4.8600 3.2098 0.2057
4.8800 3.2231 0.2110
4.9000 3.2364 0.2018
4.9200 3.2497 0.2039
4.9400 3.2631 0.2091
4.9600 3.2764 0.2024
4.9800 3.2898 0.2026
5.0000 3.3032 0.2064
5.0200 3.3166 0.2023
5.0400 3.3299 0.2013
5.0600 3.3432 0.2053
5.0800 3.3566 0.2028
5.1000 3.3699 0.2036
5.1200 3.3832 0.2033
5.1400 3.3965 0.2046
5.1600 3.4098 0.2002
5.1800 3.4231 0.1995
5.2000 3.4365 0.2041
5.2200 3.4498 0.1958
5.2400 3.4631 0.2008
5.2600 3.4764 0.2039
5.2800 3.4898 0.1929
5.3000 3.5031 0.2021
5.3200 3.5164 0.2002
5.3400 3.5298 0.1896
5.3600 3.5432 0.2017
5.3800 3.5566 0.1999
5.4000 3.5699 0.1859
5.4200 3.5832 0.2045
5.4400 3.5965 0.2003
5.4600 3.6099 0.1880
5.4800 3.6232 0.2018
5.5000 3.6365 0.1977
5.5200 3.6498 0.1899
5.5400 3.6631 0.2023
5.5600 3.6765 0.1898
5.5800 3.6898 0.1929
5.6000 3.7031 0.2059
5.6200 3.7164 0.1871
5.6400 3.7298 0.1917
5.6600 3.7431 0.2013
5.6800 3.7565 0.1887
5.7000 3.7698 0.1951
5.7200 3.7832 0.2012
5.7400 3.7965 0.1831
5.7600 3.8099 0.1978
5.7800 3.8232 0.1992
5.8000 3.8365 0.1828
5.8200 3.8499 0.1963
5.8400 3.8632 0.1939
5.8600 3.8765 0.1887
5.8800 3.8898 0.2016
5.9000 3.9032 0.1924
5.9200 3.9165 0.1876
5.9400 3.9298 0.1973
5.9600 3.9431 0.1919
5.9800 3.9564 0.1924
6.0000 3.9698 0.1968
6.0200 3.9832 0.1895
6.0400 3.9965 0.1940
6.0600 4.0098 0.1945
6.0800 4.0232 0.1873
6.1000 4.0366 0.1989
6.1200 4.0499 0.1937
6.1400 4.0632 0.1864
6.1600 4.0765 0.1963
6.1800 4.0899 0.1888
6.2000 4.1032 0.1897
6.2200 4.1165 0.1949
6.2400 4.1298 0.1894
6.2600 4.1431 0.1935
6.2800 4.1565 0.1900
6.3000 4.1698 0.1911
6.3200 4.1831 0.1919
6.3400 4.1964 0.1875
6.3600 4.2098 0.1918
6.3800 4.2231 0.1914
6.4000 4.2364 0.1869
6.4200 4.2498 0.1928
6.4400 4.2631 0.1878
6.4600 4.2765 0.1829
6.4800 4.2899 0.1951
6.5000 4.3032 0.1854
6.5200 4.3165 0.1829
6.5400 4.3299 0.1968
6.5600 4.3432 0.1830
6.5800 4.3565 0.1869
6.6000 4.3698 0.1921
6.6200 4.3831 0.1834
6.6400 4.3965 0.1850
6.6600 4.4098 0.1897
6.6800 4.4231 0.1835
6.7000 4.4364 0.1851
6.7200 4.4498 0.1907
6.7400 4.4631 0.1791
6.7600 4.4764 0.1804
6.7800 4.4898 0.1918
6.8000 4.5031 0.1769
6.8200 4.5165 0.1777
6.8400 4.5299 0.1896
6.8600 4.5432 0.1777
6.8800 4.5565 0.1802
6.9000 4.5699 0.1857
6.9200 4.5832 0.1735
6.9400 4.5965 0.1783
6.9600 4.6098 0.1894
6.9800 4.6232 0.1717
7.0000 4.6365 0.1816
7.0200 4.6498 0.1815
7.0400 4.6631 0.1688
7.0600 4.6764 0.1823
7.0800 4.6897 0.1856
7.1000 4.7031 0.1673
7.1200 4.7164 0.1815
7.1400 4.7298 0.1852
7.1600 4.7432 0.1655
7.1800 4.7566 0.1829
7.2000 4.7699 0.1793
7.2200 4.7833 0.1681
7.2400 4.7966 0.1802
7.2600 4.8099 0.1780
7.2800 4.8232 0.1699
7.3000 4.8365 0.1795
7.3200 4.8498 0.1816
7.3400 4.8631 0.1655
7.3600 4.8764 0.1809
7.3800 4.8898 0.1767
7.4000 4.9031 0.1650
7.4200 4.9165 0.1806
7.4400 4.9298 0.1808
7.4600 4.9432 0.1629
7.4800 4.9565 0.1798
7.5000 4.9698 0.1808
7.5200 4.9832 0.1671
7.5400 4.9966 0.1802
7.5600 5.0099 0.1758
7.5800 5.0232 0.1637
7.6000 5.0365 0.1834
7.6200 5.0499 0.1733
7.6400 5.0632 0.1628
7.6600 5.0765 0.1797
7.6800 5.0898 0.1750
7.7000 5.1031 0.1629
7.7200 5.1165 0.1809
7.7400 5.1298 0.1708
7.7600 5.1431 0.1629
7.7800 5.1564 0.1828
7.8000 5.1698 0.1699
7.8200 5.1831 0.1653
7.8400 5.1965 0.1781
7.8600 5.2098 0.1676
7.8800 5.2232 0.1688
7.9000 5.2365 0.1745
7.9200 5.2499 0.1677
7.9400 5.2632 0.1699
7.9600 5.2765 0.1728
7.9800 5.2899 0.1700
8.0000 5.3032 0.1683
8.0200 5.3165 0.1766
8.0400 5.3298 0.1718
8.0600 5.3431 0.1691
8.0800 5.3565 0.1708
8.1000 5.3698 0.1703
8.1200 5.3831 0.1698
8.1400 5.3964 0.1669
8.1600 5.4098 0.1761
8.1800 5.4231 0.1673
8.2000 5.4365 0.1648
8.2200 5.4498 0.1744
8.2400 5.4631 0.1665
8.2600 5.4765 0.1681
8.2800 5.4899 0.1726
8.3000 5.5032 0.1656
8.3200 5.5165 0.1693
8.3400 5.5299 0.1717
8.3600 5.5432 0.1625
8.3800 5.5565 0.1690
8.4000 5.5698 0.1762
8.4200 5.5831 0.1632
8.4400 5.5965 0.1668
8.4600 5.6098 0.1744
8.4800 5.6231 0.1586
8.5000 5.6364 0.1656
8.5200 5.6498 0.1740
8.5400 5.6631 0.1652
8.5600 5.6765 0.1637
8.5800 5.6898 0.1708
8.6000 5.7031 0.1610
8.6200 5.7165 0.1661
8.6400 5.7299 0.1720
8.6600 5.7432 0.1583
8.6800 5.7565 0.1690
8.7000 5.7699 0.1679
8.7200 5.7832 0.1625
8.7400 5.7966 0.1671
8.7600 5.8099 0.1670
8.7800 5.8232 0.1643
8.8000 5.8365 0.1615
8.8200 5.8498 0.1654
8.8400 5.8631 0.1599
8.8600 5.8764 0.1635
8.8800 5.8898 0.1670
8.9000 5.9031 0.1560
8.9200 5.9165 0.1649
8.9400 5.9298 0.1633
8.9600 5.9432 0.1583
8.9800 5.9566 0.1602
9.0000 5.9699 0.1638
9.0200 5.9832 0.1601
9.0400 5.9965 0.1565
9.0600 6.0098 0.1651
9.0800 6.0232 0.1585
9.1000 6.0365 0.1583
9.1200 6.0498 0.1609
9.1400 6.0631 0.1595
9.1600 6.0765 0.1628
9.1800 6.0898 0.1578
9.2000 6.1031 0.1588
9.2200 6.1164 0.1599
9.2400 6.1297 0.1595
9.2600 6.1431 0.1605
9.2800 6.1564 0.1576
9.3000 6.1698 0.1600
9.3200 6.1831 0.1592
9.3400 6.1965 0.1553
9.3600 6.2099 0.1560
9.3800 6.2232 0.1597
9.4000 6.2365 0.1558
9.4200 6.2499 0.1599
9.4400 6.2632 0.1543
9.4600 6.2765 0.1573
9.4800 6.2898 0.1558
9.5000 6.3031 0.1528
9.5200 6.3164 0.1531
9.5400 6.3298 0.1597
9.5600 6.3431 0.1507
9.5800 6.3565 0.1540
9.6000 6.3698 0.1587
9.6200 6.3832 0.1493
9.6400 6.3965 0.1563
9.6600 6.4098 0.1551
9.6800 6.4232 0.1540
9.7000 6.4365 0.1563
9.7200 6.4499 0.1512
9.7400 6.4632 0.1552
9.7600 6.4765 0.1557
9.7800 6.4898 0.1531
9.8000 6.5032 0.1526
9.8200 6.5165 0.1537
9.8400 6.5298 0.1497
9.8600 6.5432 0.1536
9.8800 6.5565 0.1531
9.9000 6.5699 0.1485
9.9200 6.5832 0.1530
9.9400 6.5965 0.1526
9.9600 6.6098 0.1488
9.9800 6.6231 0.1506
10.0000 6.6365 0.1493
10.0200 6.6498 0.1509
10.0400 6.6631 0.1513
10.0600 6.6765 0.1476
10.0800 6.6898 0.1503
10.1000 6.7032 0.1459
10.1200 6.7165 0.1522
10.1400 6.7299 0.1509
10.1600 6.7432 0.1433
10.1800 6.7566 0.1492
10.2000 6.7699 0.1517
10.2200 6.7832 0.1453
10.2400 6.7965 0.1485
10.2600 6.8098 0.1491
10.2800 6.8232 0.1458
10.3000 6.8365 0.1448
10.3200 6.8498 0.1457
10.3400 6.8631 0.1480
10.3600 6.8765 0.1506
10.3800 6.8898 0.1432
10.4000 6.9031 0.1512
10.4200 6.9165 0.1429
10.4400 6.9299 0.1436
10.4600 6.9432 0.1489
10.4800 6.9565 0.1441
10.5000 6.9699 0.1434
10.5200 6.9832 0.1480
10.5400 6.9965 0.1443
10.5600 7.0098 0.1449
10.5800 7.0231 0.1504
10.6000 7.0365 0.1467
10.6200 7.0498 0.1400
10.6400 7.0631 0.1449
10.6600 7.0764 0.1462
10.6800 7.0898 0.1426
10.7000 7.1031 0.1425
10.7200 7.1165 0.1487
10.7400 7.1298 0.1382
10.7600 7.1431 0.1458
10.7800 7.1565 0.1457
10.8000 7.1698 0.1330
10.8200 7.1832 0.1478
10.8400 7.1965 0.1457
10.8600 7.2099 0.1342
10.8800 7.2232 0.1493
10.9000 7.2366 0.1424
10.9200 7.2499 0.1324
10.9400 7.2632 0.1510
10.9600 7.2765 0.1402
10.9800 7.2898 0.1356
11.0000 7.3031 0.1530
11.0200 7.3164 0.1379
11.0400 7.3297 0.1369
11.0600 7.3431 0.1483
11.0800 7.3564 0.1331
11.1000 7.3698 0.1409
11.1200 7.3832 0.1493
11.1400 7.3965 0.1361
11.1600 7.4099 0.1383
11.1800 7.4232 0.1431
11.2000 7.4365 0.1368
11.2200 7.4498 0.1419
11.2400 7.4632 0.1417
11.2600 7.4765 0.1331
11.2800 7.4899 0.1400
11.3000 7.5032 0.1405
11.3200 7.5165 0.1369
11.3400 7.5298 0.1449
11.3600 7.5432 0.1382
11.3800 7.5565 0.1336
11.4000 7.5698 0.1340
11.4200 7.5831 0.1375
11.4400 7.5965 0.1360
11.4600 7.6098 0.1357
11.4800 7.6231 0.1398
11.5000 7.6365 0.1371
11.5200 7.6499 0.1298
11.5400 7.6632 0.1386
11.5600 7.6765 0.1369
11.5800 7.6898 0.1302
11.6000 7.7032 0.1407
11.6200 7.7165 0.1346
11.6400 7.7298 0.1298
11.6600 7.7431 0.1452
11.6800 7.7565 0.1348
11.7000 7.7698 0.1265
11.7200 7.7831 0.1432
11.7400 7.7964 0.1307
11.7600 7.8098 0.1303
11.7800 7.8231 0.1410
11.8000 7.8365 0.1250
11.8200 7.8498 0.1293
11.8400 7.8631 0.1376
11.8600 7.8764 0.1266
11.8800 7.8898 0.1301
11.9000 7.9031 0.1372
11.9200 7.9164 0.1217
11.9400 7.9298 0.1328
11.9600 7.9432 0.1383
11.9800 7.9566 0.1172
12.0000 7.9699 0.1323
12.0200 7.9832 0.1309
12.0400 7.9965 0.1207
12.0600 8.0099 0.1316
12.0800 8.0232 0.1322
12.1000 8.0365 0.1247
12.1200 8.0497 0.1319
12.1400 8.0631 0.1294
12.1600 8.0764 0.1255
12.1800 8.0897 0.1328
12.2000 8.1031 0.1273
12.2200 8.1165 0.1217
12.2400 8.1299 0.1302
12.2600 8.1432 0.1216
12.2800 8.1566 0.1264
12.3000 8.1699 0.1323
12.3200 8.1832 0.1278
12.3400 8.1966 0.1265
12.3600 8.2099 0.1295
12.3800 8.2232 0.1259
12.4000 8.2365 0.1236
12.4200 8.2498 0.1286
12.4400 8.2631 0.1241
12.4600 8.2764 0.1274
12.4800 8.2897 0.1258
12.5000 8.3031 0.1236
12.5200 8.3164 0.1253
12.5400 8.3298 0.1256
12.5600 8.3431 0.1217
12.5800 8.3565 0.1241
12.6000 8.3699 0.1219
12.6200 8.3832 0.1209
12.6400 8.3966 0.1280
12.6600 8.4099 0.1214
12.6800 8.4232 0.1199
12.7000 8.4365 0.1265
12.7200 8.4499 0.1195
12.7400 8.4632 0.1234
12.7600 8.4765 0.1238
12.7800 8.4898 0.1188
12.8000 8.5031 0.1188
12.8200 8.5164 0.1232
12.8400 8.5297 0.1139
12.8600 8.5431 0.1169
12.8800 8.5565 0.1215
12.9000 8.5698 0.1168
12.9200 8.5831 0.1197
12.9400 8.5965 0.1201
12.9600 8.6099 0.1184
12.9800 8.6232 0.1176
13.0000 8.6365 0.1194
13.0200 8.6498 0.1157
13.0400 8.6632 0.1168
13.0600 8.6765 0.1233
13.0800 8.6899 0.1152
13.1000 8.7032 0.1150
13.1200 8.7165 0.1249
13.1400 8.7299 0.1201
13.1600 8.7432 0.1099
13.1800 8.7565 0.1252
13.2000 8.7697 0.1186
13.2200 8.7831 0.1117
13.2400 8.7965 0.1271
13.2600 8.8098 0.1119
13.2800 8.8232 0.1121
13.3000 8.8365 0.1256
13.3200 8.8499 0.1122
13.3400 8.8632 0.1127
13.3600 8.8766 0.1248
13.3800 8.8899 0.1134
13.4000 8.9032 0.1170
13.4200 8.9165 0.1265
13.4400 8.9299 0.1130
13.4600 8.9431 0.1166
13.4800 8.9564 0.1215
13.5000 8.9698 0.1085
13.5200 8.9832 0.1172
13.5400 8.9965 0.1171
13.5600 9.0098 0.1151
13.5800 9.0231 0.1192
13.6000 9.0365 0.1134
13.6200 9.0498 0.1166
13.6400 9.0631 0.1151
13.6600 9.0764 0.1157
13.6800 9.0898 0.1162
13.7000 9.1032 0.1122
13.7200 9.1165 0.1163
13.7400 9.1299 0.1128
13.7600 9.1432 0.1115
13.7800 9.1566 0.1132
13.8000 9.1699 0.1151
13.8200 9.1832 0.1101
13.8400 9.1965 0.1163
13.8600 9.2098 0.1147
13.8800 9.2232 0.1101
13.9000 9.2365 0.1169
13.9200 9.2498 0.1125
13.9400 9.2631 0.1097
13.9600 9.2765 0.1108
13.9800 9.2898 0.1115
14.0000 9.3031 0.1106
14.0200 9.3165 0.1100
14.0400 9.3298 0.1102
14.0600 9.3432 0.1126
14.0800 9.3565 0.1100
14.1000 9.3698 0.1097
14.1200 9.3832 0.1117
14.1400 9.3965 0.1094
14.1600 9.4099 0.1144
14.1800 9.4232 0.1056
14.2000 9.4365 0.1065
14.2200 9.4498 0.1117
14.2400 9.4632 0.1011
14.2600 9.4765 0.1098
14.2800 9.4897 0.1130
14.3000 9.5030 0.1044
14.3200 9.5164 0.1089
14.3400 9.5297 0.1115
14.3600 9.5431 0.1049
14.3800 9.5565 0.1113
14.4000 9.5698 0.1073
14.4200 9.5832 0.1050
14.4400 9.5966 0.1145
14.4600 9.6099 0.1097
14.4800 9.6232 0.1007
14.5000 9.6366 0.1169
14.5200 9.6499 0.1070
14.5400 9.6631 0.1009
14.5600 9.6764 0.1138
14.5800 9.6897 0.1070
14.6000 9.7031 0.1026
14.6200 9.7164 0.1102
14.6400 9.7298 0.1013
14.6600 9.7431 0.1048
14.6800 9.7565 0.1071
14.7000 9.7698 0.1028
14.7200 9.7832 0.1022
14.7400 9.7965 0.1073
14.7600 9.8099 0.1053
14.7800 9.8232 0.1030
14.8000 9.8366 0.1064
14.8200 9.8499 0.1071
14.8400 9.8632 0.1040
14.8600 9.8765 0.1019
14.8800 9.8898 0.1078
14.9000 9.9031 0.1018
14.9200 9.9164 0.1081
14.9400 9.9298 0.1120
14.9600 9.9431 0.1026
14.9800 9.9565 0.1042
15.0000 9.9698 0.1128
15.0200 9.9831 0.1028
15.0400 9.9965 0.1036
15.0600 10.0098 0.1125
15.0800 10.0231 0.1050
15.1000 10.0365 0.1044
15.1200 10.0499 0.1105
15.1400 10.0632 0.1027
15.1600 10.0765 0.1055
15.1800 10.0898 0.1080
15.2000 10.1032 0.0990
15.2200 10.1165 0.1019
15.2400 10.1299 0.1106
15.2600 10.1432 0.0977
15.2800 10.1565 0.1031
15.3000 10.1698 0.1099
15.3200 10.1832 0.0987
15.3400 10.1965 0.1050
15.3600 10.2098 0.1075
15.3800 10.2231 0.0984
15.4000 10.2364 0.1060
15.4200 10.2498 0.1028
15.4400 10.2631 0.0979
15.4600 10.2765 0.1061
15.4800 10.2898 0.1068
15.5000 10.3032 0.0957
15.5200 10.3166 0.1055
15.5400 10.3299 0.1002
15.5600 10.3432 0.1006
15.5800 10.3566 0.1038
15.6000 10.3699 0.1022
15.6200 10.3832 0.1014
15.6400 10.3965 0.1042
15.6600 10.4098 0.1019
15.6800 10.4232 0.0961
15.7000 10.4365 0.0986
15.7200 10.4498 0.1010
15.7400 10.4631 0.0981
15.7600 10.4765 0.1006
15.7800 10.4898 0.0979
15.8000 10.5031 0.0945
15.8200 10.5164 0.0997
15.8400 10.5298 0.0952
15.8600 10.5432 0.0923
15.8800 10.5565 0.0974
15.9000 10.5698 0.0973
15.9200 10.5832 0.0908
15.9400 10.5965 0.0981
15.9600 10.6099 0.0978
15.9800 10.6232 0.0919
16.0000 10.6365 0.0969
16.0200 10.6498 0.0966
16.0400 10.6632 0.0914
16.0600 10.6765 0.0993
16.0800 10.6898 0.0988
16.1000 10.7031 0.0886
16.1200 10.7164 0.0964
16.1400 10.7298 0.0966
16.1600 10.7431 0.0881
16.1800 10.7565 0.0967
16.2000 10.7698 0.0987
16.2200 10.7832 0.0885
16.2400 10.7966 0.0934
16.2600 10.8099 0.0946
16.2800 10.8232 0.0908
16.3000 10.8365 0.0963
16.3200 10.8499 0.0939
16.3400 10.8632 0.0870
16.3600 10.8765 0.0992
16.3800 10.8898 0.0921
16.4000 10.9032 0.0860
16.4200 10.9165 0.0979
16.4400 10.9298 0.0891
16.4600 10.9431 0.0989
16.4800 10.9564 0.0968
16.5000 10.9698 0.0855
16.5200 10.9831 0.0958
16.5400 10.9965 0.0977
16.5600 11.0098 0.0862
16.5800 11.0232 0.0918
16.6000 11.0366 0.0927
16.6200 11.0499 0.0838
16.6400 11.0632 0.0928
16.6600 11.0765 0.0944
16.6800 11.0899 0.0880
16.7000 11.1031 0.0900
16.7200 11.1164 0.0924
16.7400 11.1298 0.0871
16.7600 11.1431 0.0937
16.7800 11.1565 0.0906
16.8000 11.1698 0.0875
16.8200 11.1831 0.0963
16.8400 11.1965 0.0884
16.8600 11.2099 0.0838
16.8800 11.2232 0.0937
16.9000 11.2365 0.0887
16.9200 11.2498 0.0861
16.9400 11.2632 0.0925
16.9600 11.2765 0.0899
16.9800 11.2898 0.0816
17.0000 11.3031 0.0926
17.0200 11.3165 0.0863
17.0400 11.3298 0.0839
17.0600 11.3432 0.0936
17.0800 11.3565 0.0837
17.1000 11.3699 0.0846
17.1200 11.3832 0.0950
17.1400 11.3965 0.0811
17.1600 11.4098 0.0875
17.1800 11.4231 0.0937
17.2000 11.4364 0.0775
17.2200 11.4498 0.0854
17.2400 11.4631 0.0934
17.2600 11.4764 0.0781
17.2800 11.4898 0.0870
17.3000 11.5032 0.0918
17.3200 11.5165 0.0763
17.3400 11.5298 0.0867
17.3600 11.5432 0.0898
17.3800 11.5565 0.0807
17.4000 11.5699 0.0842
17.4200 11.5832 0.0884
17.4400 11.5965 0.0803
17.4600 11.6098 0.0823
17.4800 11.6232 0.0869
17.5000 11.6365 0.0867
17.5200 11.6498 0.0821
17.5400 11.6631 0.0873
17.5600 11.6764 0.0839
17.5800 11.6898 0.0806
17.6000 11.7031 0.0863
17.6200 11.7165 0.0796
17.6400 11.7298 0.0786
17.6600 11.7432 0.0872
17.6800 11.7566 0.0739
17.7000 11.7699 0.0747
17.7200 11.7832 0.0921
17.7400 11.7965 0.0784
17.7600 11.8099 0.0738
17.7800 11.8232 0.0939
17.8000 11.8365 0.0749
17.8200 11.8498 0.0780
17.8400 11.8631 0.0929
17.8600 11.8765 0.0750
17.8800 11.8898 0.0798
17.9000 11.9031 0.0913
17.9200 11.9165 0.0739
17.9400 11.9298 0.0787
17.9600 11.9432 0.0847
17.9800 11.9565 0.0751
18.0000 11.9698 0.0816
18.0200 11.9832 0.0845
18.0400 11.9965 0.0770
18.0600 12.0098 0.0752
18.0800 12.0232 0.0816
18.1000 12.0365 0.0774
18.1200 12.0499 0.0785
18.1400 12.0632 0.0807
18.1600 12.0765 0.0782
18.1800 12.0898 0.0786
18.2000 12.1031 0.0813
18.2200 12.1165 0.0793
18.2400 12.1298 0.0728
18.2600 12.1431 0.0865
18.2800 12.1564 0.0789
18.3000 12.1698 0.0676
18.3200 12.1831 0.0865
18.3400 12.1965 0.0758
18.3600 12.2098 0.0703
18.3800 12.2232 0.0830
18.4000 12.2366 0.0768
18.4200 12.2499 0.0710
18.4400 12.2632 0.0839
18.4600 12.2765 0.0748
18.4800 12.2899 0.0718
18.5000 12.3032 0.0876
18.5200 12.3165 0.0738
18.5400 12.3298 0.0713
18.5600 12.3431 0.0865
18.5800 12.3565 0.0726
18.6000 12.3698 0.0727
18.6200 12.3832 0.0849
18.6400 12.3965 0.0717
18.6600 12.4098 0.0706
18.6800 12.4231 0.0840
18.7000 12.4365 0.0629
18.7200 12.4498 0.0731
18.7400 12.4632 0.0882
18.7600 12.4765 0.0579
18.7800 12.4899 0.0742
18.8000 12.5032 0.0860
18.8200 12.5165 0.0564
18.8400 12.5299 0.0719
18.8600 12.5432 0.0843
18.8800 12.5565 0.0588
18.9000 12.5698 0.0681
18.9200 12.5831 0.0815
18.9400 12.5965 0.0591
18.9600 12.6098 0.0687
18.9800 12.6231 0.0834
19.0000 12.6364 0.0587
19.0200 12.6498 0.0734
19.0400 12.6631 0.0774
19.0600 12.6764 0.0568
19.0800 12.6898 0.0686
19.1000 12.7031 0.0810
19.1200 12.7165 0.0615
19.1400 12.7298 0.0642
19.1600 12.7431 0.0770
19.1800 12.7565 0.0613
19.2000 12.7699 0.0650
19.2200 12.7832 0.0759
19.2400 12.7965 0.0614
19.2600 12.8099 0.0678
19.2800 12.8232 0.0766
19.3000 12.8365 0.0540
19.3200 12.8498 0.0708
19.3400 12.8631 0.0723
19.3600 12.8764 0.0584
19.3800 12.8897 0.0720
19.4000 12.9031 0.0668
19.4200 12.9164 0.0631
19.4400 12.9298 0.0754
19.4600 12.9432 0.0649
19.4800 12.9566 0.0643
19.5000 12.9699 0.0725
19.5200 12.9832 0.0607
19.5400 12.9966 0.0651
19.5600 13.0099 0.0733
19.5800 13.0233 0.0663
19.6000 13.0365 0.0694
19.6200 13.0498 0.0720
19.6400 13.0631 0.0695
19.6600 13.0765 0.0673
19.6800 13.0898 0.0671
19.7000 13.1031 0.0677
19.7200 13.1164 0.0710
19.7400 13.1297 0.0658
19.7600 13.1431 0.0660
19.7800 13.1564 0.0710
19.8000 13.1698 0.0624
19.8200 13.1832 0.0651
19.8400 13.1965 0.0729
19.8600 13.2099 0.0615
19.8800 13.2232 0.0662
19.9000 13.2365 0.0672
19.9200 13.2499 0.0623
19.9400 13.2632 0.0674
19.9600 13.2765 0.0660
19.9800 13.2898 0.0607
20.0000 13.3031 0.0714
20.0200 13.3165 0.0602
20.0400 13.3298 0.0574
20.0600 13.3431 0.0721
20.0800 13.3564 0.0585
20.1000 13.3698 0.0586
20.1200 13.3832 0.0731
20.1400 13.3965 0.0580
20.1600 13.4098 0.0618
20.1800 13.4232 0.0693
20.2000 13.4365 0.0553
20.2200 13.4499 0.0628
20.2400 13.4632 0.0645
20.2600 13.4765 0.0560
20.2800 13.4899 0.0671
20.3000 13.5032 0.0613
20.3200 13.5165 0.0565
20.3400 13.5298 0.0657
20.3600 13.5432 0.0601
20.3800 13.5565 0.0563
20.4000 13.5698 0.0668
20.4200 13.5831 0.0557
20.4400 13.5964 0.0569
20.4600 13.6098 0.0693
20.4800 13.6231 0.0497
20.5000 13.6365 0.0610
20.5200 13.6498 0.0691
20.5400 13.6632 0.0496
20.5600 13.6766 0.0642
20.5800 13.6899 0.0614
20.6000 13.7032 0.0478
20.6200 13.7165 0.0662
20.6400 13.7299 0.0592
20.6600 13.7432 0.0487
20.6800 13.7565 0.0657
20.7000 13.7698 0.0566
20.7200 13.7831 0.0494
20.7400 13.7965 0.0712
20.7600 13.8098 0.0521
20.7800 13.8231 0.0540
20.8000 13.8364 0.0697
20.8200 13.8498 0.0510
20.8400 13.8631 0.0574
20.8600 13.8765 0.0673
20.8800 13.8898 0.0512
20.9000 13.9032 0.0537
20.9200 13.9165 0.0620
20.9400 13.9299 0.0496
20.9600 13.9432 0.0555
20.9800 13.9565 0.0605
21.0000 13.9699 0.0425
21.0200 13.9833 0.0567
21.0400 13.9966 0.0610
21.0600 14.0098 0.0471
21.0800 14.0231 0.0587
21.1000 14.0365 0.0569
21.1200 14.0498 0.0456
21.1400 14.0631 0.0575
21.1600 14.0764 0.0579
21.1800 14.0898 0.0529
21.2000 14.1031 0.0500
21.2200 14.1164 0.0562
21.2400 14.1298 0.0495
21.2600 14.1431 0.0515
21.2800 14.1565 0.0600
21.3000 14.1699 0.0463
21.3200 14.1832 0.0492
21.3400 14.1965 0.0564
21.3600 14.2099 0.0482
21.3800 14.2232 0.0489
21.4000 14.2365 0.0587
21.4200 14.2498 0.0446
21.4400 14.2632 0.0500
21.4600 14.2765 0.0570
21.4800 14.2898 0.0454
21.5000 14.3031 0.0469
21.5200 14.3164 0.0546
21.5400 14.3297 0.0474
21.5600 14.3431 0.0445
21.5800 14.3564 0.0562
21.6000 14.3697 0.0467
21.6200 14.3831 0.0424
21.6400 14.3965 0.0568
21.6600 14.4099 0.0481
21.6800 14.4233 0.0419
21.7000 14.4366 0.0501
21.7200 14.4499 0.0476
21.7400 14.4632 0.0424
21.7600 14.4765 0.0507
21.7800 14.4898 0.0528
21.8000 14.5031 0.0406
21.8200 14.5164 0.0523
21.8400 14.5298 0.0549
21.8600 14.5431 0.0403
21.8800 14.5564 0.0535
21.9000 14.5698 0.0480
21.9200 14.5831 0.0395
21.9400 14.5965 0.0522
21.9600 14.6098 0.0505
21.9800 14.6232 0.0408
22.0000 14.6365 0.0501
22.0200 14.6499 0.0499
22.0400 14.6632 0.0377
22.0600 14.6765 0.0516
22.0800 14.6898 0.0484
22.1000 14.7032 0.0367
22.1200 14.7165 0.0493
22.1400 14.7298 0.0481
22.1600 14.7431 0.0388
22.1800 14.7565 0.0505
22.2000 14.7698 0.0423
22.2200 14.7831 0.0387
22.2400 14.7964 0.0511
22.2600 14.8098 0.0482
22.2800 14.8231 0.0366
22.3000 14.8365 0.0494
22.3200 14.8498 0.0474
22.3400 14.8632 0.0355
22.3600 14.8765 0.0503
22.3800 14.8899 0.0445
22.4000 14.9032 0.0365
22.4200 14.9165 0.0497
22.4400 14.9299 0.0423
22.4600 14.9432 0.0415
22.4800 14.9566 0.0471
22.5000 14.9699 0.0414
22.5200 14.9832 0.0403
22.5400 14.9965 0.0440
22.5600 15.0098 0.0439
22.5800 15.0231 0.0381
22.6000 15.0364 0.0430
22.6200 15.0498 0.0434
22.6400 15.0631 0.0378
22.6600 15.0765 0.0401
22.6800 15.0898 0.0465
22.7000 15.1031 0.0369
22.7200 15.1165 0.0408
22.7400 15.1299 0.0425
22.7600 15.1432 0.0327
22.7800 15.1565 0.0451
22.8000 15.1698 0.0462
22.8200 15.1832 0.0329
22.8400 15.1965 0.0446
22.8600 15.2098 0.0410
22.8800 15.2231 0.0366
22.9000 15.2365 0.0468
22.9200 15.2498 0.0390
22.9400 15.2631 0.0374
22.9600 15.2764 0.0434
22.9800 15.2898 0.0398
23.0000 15.3031 0.0373
23.0200 15.3165 0.0429
23.0400 15.3298 0.0385
23.0600 15.3431 0.0345
23.0800 15.3565 0.0435
23.1000 15.3698 0.0408
23.1200 15.3832 0.0380
23.1400 15.3965 0.0405
23.1600 15.4099 0.0381
23.1800 15.4232 0.0312
23.2000 15.4366 0.0446
23.2200 15.4499 0.0391
23.2400 15.4632 0.0361
23.2600 15.4765 0.0394
23.2800 15.4898 0.0384
23.3000 15.5031 0.0319
23.3200 15.5164 0.0384
23.3400 15.5297 0.0412
23.3600 15.5431 0.0318
23.3800 15.5565 0.0312
23.4000 15.5698 0.0431
23.4200 15.5832 0.0321
23.4400 15.5965 0.0354
23.4600 15.6099 0.0370
23.4800 15.6232 0.0304
23.5000 15.6365 0.0351
23.5200 15.6498 0.0325
23.5400 15.6632 0.0332
23.5600 15.6766 0.0349
23.5800 15.6899 0.0351
23.6000 15.7031 0.0319
23.6200 15.7165 0.0342
23.6400 15.7298 0.0321
23.6600 15.7431 0.0330
23.6800 15.7564 0.0352
23.7000 15.7698 0.0347
23.7200 15.7831 0.0317
23.7400 15.7964 0.0342
23.7600 15.8098 0.0307
23.7800 15.8231 0.0331
23.8000 15.8365 0.0336
23.8200 15.8499 0.0329
23.8400 15.8632 0.0319
23.8600 15.8765 0.0292
23.8800 15.8899 0.0357
23.9000 15.9032 0.0314
23.9200 15.9165 0.0263
23.9400 15.9298 0.0341
23.9600 15.9431 0.0275
23.9800 15.9564 0.0256
24.0000 15.9698 0.0325
24.0200 15.9831 0.0307
24.0400 15.9964 0.0239
24.0600 16.0098 0.0316
24.0800 16.0232 0.0303
24.1000 16.0365 0.0243
24.1200 16.0498 0.0299
24.1400 16.0632 0.0354
24.1600 16.0765 0.0235
24.1800 16.0898 0.0266
24.2000 16.1031 0.0349
24.2200 16.1164 0.0246
24.2400 16.1298 0.0265
24.2600 16.1432 0.0310
24.2800 16.1565 0.0220
24.3000 16.1699 0.0299
24.3200 16.1832 0.0306
24.3400 16.1965 0.0224
24.3600 16.2099 0.0248
24.3800 16.2232 0.0288
24.4000 16.2365 0.0288
24.4200 16.2498 0.0277
24.4400 16.2631 0.0269
24.4600 16.2765 0.0277
24.4800 16.2898 0.0231
24.5000 16.3031 0.0260
24.5200 16.3165 0.0281
24.5400 16.3298 0.0200
24.5600 16.3432 0.0268
24.5800 16.3565 0.0262
24.6000 16.3698 0.0249
24.6200 16.3832 0.0255
24.6400 16.3965 0.0242
24.6600 16.4099 0.0191
24.6800 16.4232 0.0297
24.7000 16.4365 0.0244
24.7200 16.4499 0.0216
24.7400 16.4632 0.0282
24.7600 16.4765 0.0247
24.7800 16.4898 0.0208
24.8000 16.5031 0.0276
24.8200 16.5164 0.0262
24.8400 16.5298 0.0220
24.8600 16.5431 0.0295
24.8800 16.5565 0.0208
24.9000 16.5699 0.0247
24.9200 16.5832 0.0274
24.9400 16.5965 0.0183
24.9600 16.6099 0.0245
24.9800 16.6232 0.0258
25.0000 16.6366 0.0173
25.0200 16.6499 0.0242
25.0400 16.6632 0.0232
25.0600 16.6765 0.0194
25.0800 16.6898 0.0233
25.1000 16.7031 0.0232
25.1200 16.7164 0.0211
25.1400 16.7298 0.0240
25.1600 16.7431 0.0257
25.1800 16.7565 0.0167
25.2000 16.7698 0.0214
25.2200 16.7831 0.0263
25.2400 16.7965 0.0164
25.2600 16.8098 0.0190
25.2800 16.8232 0.0238
25.3000 16.8365 0.0190
25.3200 16.8499 0.0148
25.3400 16.8632 0.0224
25.3600 16.8766 0.0141
25.3800 16.8899 0.0162
25.4000 16.9032 0.0233
25.4200 16.9165 0.0161
25.4400 16.9298 0.0164
25.4600 16.9431 0.0210
25.4800 16.9564 0.0124
25.5000 16.9697 0.0164
25.5200 16.9831 0.0221
25.5400 16.9964 0.0114
25.5600 17.0097 0.0112
25.5800 17.0231 0.0270
25.6000 17.0365 0.0153
25.6200 17.0499 0.0057
25.6400 17.0632 0.0200
25.6600 17.0765 0.0149
25.6800 17.0898 0.0082
25.7000 17.1032 0.0191
25.7200 17.1165 0.0138
25.7400 17.1298 0.0114
25.7600 17.1432 0.0173
25.7800 17.1565 0.0164
25.8000 17.1698 0.0096
25.8200 17.1832 0.0186
25.8400 17.1965 0.0113
25.8600 17.2098 0.0102
25.8800 17.2231 0.0164
25.9000 17.2365 0.0114
25.9200 17.2498 0.0114
25.9400 17.2631 0.0150
25.9600 17.2765 0.0112
25.9800 17.2899 0.0066
26.0000 17.3032 0.0175
26.0200 17.3165 0.0075
26.0400 17.3299 0.0035
26.0600 17.3432 0.0211
26.0800 17.3565 0.0045
26.1000 17.3698 0.0065
26.1200 17.3831 0.0187
26.1400 17.3965 0.0043
26.1600 17.4098 0.0068
26.1800 17.4231 0.0122
26.2000 17.4364 0.0061
26.2200 17.4498 0.0061
26.2400 17.4631 0.0160
26.2600 17.4765 -0.0011
26.2800 17.4898 0.0069
26.3000 17.5032 0.0140
26.3200 17.5165 -0.0037
26.3400 17.5298 0.0110
26.3600 17.5432 0.0118
26.3800 17.5565 0.0007
26.4000 17.5698 0.0141
26.4200 17.5831 0.0090
26.4400 17.5965 0.0025
26.4600 17.6099 0.0079
26.4800 17.6232 0.0119
26.5000 17.6365 0.0023
26.5200 17.6499 0.0070
26.5400 17.6632 0.0100
26.5600 17.6765 0.0046
26.5800 17.6897 0.0080
26.6000 17.7031 0.0076
26.6200 17.7164 -0.0019
26.6400 17.7297 0.0077
26.6600 17.7431 0.0038
26.6800 17.7565 0.0017
26.7000 17.7699 0.0108
26.7200 17.7832 0.0007
26.7400 17.7966 0.0032
26.7600 17.8099 0.0090
26.7800 17.8232 0.0003
26.8000 17.8366 0.0060
26.8200 17.8499 0.0044
26.8400 17.8632 0.0004
26.8600 17.8765 0.0047
26.8800 17.8898 0.0022
26.9000 17.9031 0.0008
26.9200 17.9164 0.0055
26.9400 17.9297 0.0037
26.9600 17.9431 -0.0037
26.9800 17.9564 0.0037
27.0000 17.9698 0.0033
27.0200 17.9831 -0.0002
27.0400 17.9965 0.0018
27.0600 18.0099 0.0030
27.0800 18.0232 -0.0028
27.1000 18.0366 0.0032
27.1200 18.0499 0.0003
27.1400 18.0632 0.0015
27.1600 18.0765 0.0078
27.1800 18.0899 -0.0025
27.2000 18.1032 -0.0008
27.2200 18.1165 0.0084
27.2400 18.1298 -0.0037
27.2600 18.1431 0.0018
27.2800 18.1565 0.0078
27.3000 18.1698 -0.0021
27.3200 18.1831 -0.0029
27.3400 18.1965 0.0100
27.3600 18.2098 -0.0051
27.3800 18.2231 -0.0016
27.4000 18.2365 0.0068
27.4200 18.2498 -0.0043
27.4400 18.2632 -0.0083
27.4600 18.2765 0.0092
27.4800 18.2899 -0.0068
27.5000 18.3032 -0.0079
27.5200 18.3165 0.0082
27.5400 18.3299 -0.0101
27.5600 18.3432 -0.0038
27.5800 18.3565 0.0057
27.6000 18.3699 -0.0125
27.6200 18.3832 -0.0085
27.6400 18.3965 0.0037
27.6600 18.4098 -0.0105
27.6800 18.4231 -0.0057
27.7000 18.4365 0.0045
27.7200 18.4498 -0.0140
27.7400 18.4631 -0.0052
27.7600 18.4765 0.0050
27.7800 18.4898 -0.0147
27.8000 18.5032 -0.0042
27.8200 18.5165 0.0007
27.8400 18.5299 -0.0140
27.8600 18.5432 -0.0049
27.8800 18.5565 0.0027
27.9000 18.5698 -0.0180
27.9200 18.5831 -0.0073
27.9400 18.5964 -0.0014
27.9600 18.6098 -0.0117
27.9800 18.6232 -0.0064
28.0000 18.6365 -0.0035
28.0200 18.6498 -0.0121
28.0400 18.6631 -0.0115
28.0600 18.6765 -0.0091
28.0800 18.6898 -0.0144
28.1000 18.7031 -0.0098
28.1200 18.7165 -0.0066
28.1400 18.7298 -0.0171
28.1600 18.7432 -0.0131
28.1800 18.7565 -0.0076
28.2000 18.7698 -0.0072
28.2200 18.7832 -0.0187
28.2400 18.7966 -0.0113
28.2600 18.8099 -0.0077
28.2800 18.8232 -0.0203
28.3000 18.8365 -0.0071
28.3200 18.8498 -0.0088
28.3400 18.8632 -0.0180
28.3600 18.8765 -0.0096
28.3800 18.8898 -0.0087
28.4000 18.9031 -0.0194
28.4200 18.9164 -0.0100
28.4400 18.9298 -0.0124
28.4600 18.9431 -0.0219
28.4800 18.9565 -0.0089
28.5000 18.9698 -0.0169
28.5200 18.9832 -0.0208
28.5400 18.9965 -0.0095
28.5600 19.0098 -0.0183
28.5800 19.0232 -0.0236
28.6000 19.0365 -0.0125
28.6200 19.0499 -0.0158
28.6400 19.0632 -0.0238
28.6600 19.0765 -0.0105
28.6800 19.0898 -0.0182
28.7000 19.1032 -0.0232
28.7200 19.1165 -0.0128
28.7400 19.1298 -0.0196
28.7600 19.1430 -0.0197
28.7800 19.1564 -0.0161
28.8000 19.1697 -0.0193
28.8200 19.1831 -0.0211
28.8400 19.1965 -0.0101
28.8600 19.2098 -0.0221
28.8800 19.2232 -0.0259
28.9000 19.2366 -0.0132
28.9200 19.2499 -0.0210
28.9400 19.2632 -0.0242
28.9600 19.2766 -0.0184
28.9800 19.2899 -0.0205
29.0000 19.3032 -0.0222
29.0200 19.3164 -0.0191
29.0400 19.3298 -0.0198
29.0600 19.3431 -0.0260
29.0800 19.3564 -0.0192
29.1000 19.3698 -0.0195
29.1200 19.3831 -0.0245
29.1400 19.3965 -0.0209
29.1600 19.4098 -0.0188
29.1800 19.4232 -0.0295
29.2000 19.4365 -0.0162
29.2200 19.4499 -0.0189
29.2400 19.4632 -0.0306
29.2600 19.4766 -0.0224
29.2800 19.4898 -0.0181
29.3000 19.5032 -0.0326
29.3200 19.5165 -0.0235
29.3400 19.5298 -0.0230
29.3600 19.5431 -0.0342
29.3800 19.5565 -0.0190
29.4000 19.5698 -0.0223
29.4200 19.5831 -0.0362
29.4400 19.5965 -0.0220
29.4600 19.6098 -0.0258
29.4800 19.6231 -0.0315
29.5000 19.6365 -0.0212
29.5200 19.6498 -0.0298
29.5400 19.6632 -0.0341
29.5600 19.6765 -0.0162
29.5800 19.6898 -0.0302
29.6000 19.7032 -0.0395
29.6200 19.7165 -0.0185
29.6400 19.7298 -0.0307
29.6600 19.7431 -0.0372
29.6800 19.7565 -0.0241
29.7000 19.7698 -0.0296
29.7200 19.7832 -0.0375
29.7400 19.7965 -0.0256
29.7600 19.8098 -0.0342
29.7800 19.8232 -0.0394
29.8000 19.8365 -0.0283
29.8200 19.8498 -0.0359
29.8400 19.8631 -0.0370
29.8600 19.8764 -0.0254
29.8800 19.8898 -0.0381
29.9000 19.9031 -0.0353
29.9200 19.9165 -0.0288
29.9400 19.9298 -0.0397
29.9600 19.9432 -0.0346
29.9800 19.9566 -0.0354
30.0000 19.9699 -0.0377
30.0200 19.9832 -0.0335
30.0400 19.9965 -0.0373
30.0600 20.0099 -0.0376
30.0800 20.0232 -0.0328
30.1000 20.0364 -0.0346
30.1200 20.0498 -0.0414
30.1400 20.0632 -0.0336
30.1600 20.0765 -0.0387
30.1800 20.0898 -0.0356
30.2000 20.1031 -0.0364
30.2200 20.1165 -0.0396
30.2400 20.1298 -0.0330
30.2600 20.1431 -0.0371
30.2800 20.1564 -0.0403
30.3000 20.1698 -0.0327
30.3200 20.1832 -0.0408
30.3400 20.1965 -0.0413
30.3600 20.2098 -0.0367
30.3800 20.2232 -0.0349
30.4000 20.2365 -0.0424
30.4200 20.2499 -0.0381
30.4400 20.2632 -0.0408
30.4600 20.2765 -0.0403
30.4800 20.2898 -0.0352
30.5000 20.3032 -0.0450
30.5200 20.3165 -0.0410
30.5400 20.3298 -0.0394
30.5600 20.3431 -0.0395
30.5800 20.3564 -0.0418
30.6000 20.3698 -0.0434
30.6200 20.3831 -0.0404
30.6400 20.3965 -0.0473
30.6600 20.4099 -0.0453
30.6800 20.4232 -0.0488
30.7000 20.4366 -0.0412
30.7200 20.4499 0.0064
30.7400 20.4632 0.0580
30.7600 20.4765 0.1233
30.7800 20.4899 0.1797
30.8000 20.5032 0.2332
30.8200 20.5165 0.2817
30.8400 20.5298 0.3122
30.8600 20.5431 0.3499
30.8800 20.5565 0.3801
30.9000 20.5698 0.3897
30.9200 20.5831 0.4015
30.9400 20.5964 0.3973
30.9600 20.6098 0.3992
30.9800 20.6231 0.4022
31.0000 20.6364 0.3999
31.0200 20.6498 0.4016
31.0400 20.6632 0.4111
31.0600 20.6766 0.4006
31.0800 20.6899 0.4056
31.1000 20.7032 0.4161
31.1200 20.7165 0.3998
31.1400 20.7299 0.4136
31.1600 20.7432 0.4164
31.1800 20.7564 0.4047
31.2000 20.7698 0.4174
31.2200 20.7831 0.4134
31.2400 20.7964 0.4083
31.2600 20.8098 0.4174
31.2800 20.8231 0.4111
31.3000 20.8365 0.4123
31.3200 20.8499 0.4190
31.3400 20.8632 0.4118
31.3600 20.8765 0.4115
31.3800 20.8898 0.4219
31.4000 20.9032 0.4173
31.4200 20.9165 0.4138
31.4400 20.9298 0.4204
31.4600 20.9431 0.4159
31.4800 20.9565 0.4131
31.5000 20.9698 0.4186
31.5200 20.9832 0.4192
31.5400 20.9965 0.4145
31.5600 21.0098 0.4257
31.5800 21.0232 0.4178
31.6000 21.0365 0.4111
31.6200 21.0498 0.4246
31.6400 21.0631 0.4199
31.6600 21.0765 0.4088
31.6800 21.0898 0.4204
31.7000 21.1031 0.4234
31.7200 21.1164 0.4123
31.7400 21.1298 0.4253
31.7600 21.1431 0.4216
31.7800 21.1565 0.4130
31.8000 21.1698 0.4241
31.8200 21.1832 0.4268
31.8400 21.1965 0.4120
31.8600 21.2099 0.4312
31.8800 21.2232 0.4270
31.9000 21.2365 0.4123
31.9200 21.2498 0.4366
31.9400 21.2632 0.4232
31.9600 21.2765 0.4132
31.9800 21.2898 0.4344
32.0000 21.3031 0.4211
32.0200 21.3164 0.4166
32.0400 21.3298 0.4325
32.0600 21.3431 0.4229
32.0800 21.3565 0.4144
32.1000 21.3698 0.4329
32.1200 21.3832 0.4242
32.1400 21.3965 0.4140
32.1600 21.4099 0.4299
32.1800 21.4232 0.4279
32.2000 21.4365 0.4211
32.2200 21.4499 0.4260
32.2400 21.4632 0.4289
32.2600 21.4765 0.4205
32.2800 21.4898 0.4258
32.3000 21.5031 0.4295
32.3200 21.5165 0.4204
32.3400 21.5298 0.4290
32.3600 21.5431 0.4343
32.3800 21.5564 0.4180
32.4000 21.5698 0.4268
32.4200 21.5831 0.4327
32.4400 21.5965 0.4205
32.4600 21.6098 0.4282
32.4800 21.6231 0.4333
32.5000 21.6365 0.4183
32.5200 21.6499 0.4266
32.5400 21.6632 0.4304
32.5600 21.6765 0.4225
32.5800 21.6899 0.4272
32.6000 21.7032 0.4284
32.6200 21.7165 0.4197
32.6400 21.7298 0.4294
32.6600 21.7431 0.4303
32.6800 21.7565 0.4234
32.7000 21.7698 0.4283
32.7200 21.7831 0.4331
32.7400 21.7964 0.4231
32.7600 21.8098 0.4229
32.7800 21.8231 0.4366
32.8000 21.8364 0.4238
32.8200 21.8498 0.4230
32.8400 21.8632 0.4343
32.8600 21.8766 0.4186
32.8800 21.8899 0.4286
32.9000 21.9032 0.4336
32.9200 21.9165 0.4221
32.9400 21.9299 0.4284
32.9600 21.9432 0.4330
32.9800 21.9565 0.4220
33.0000 21.9698 0.4292
33.0200 21.9832 0.4361
33.0400 21.9965 0.4187
33.0600 22.0098 0.4289
33.0800 22.0232 0.4324
33.1000 22.0365 0.4219
33.1200 22.0498 0.4317
33.1400 22.0631 0.4304
33.1600 22.0765 0.4244
33.1800 22.0898 0.4296
33.2000 22.1032 0.4295
33.2200 22.1165 0.4259
33.2400 22.1299 0.4284
33.2600 22.1432 0.4328
33.2800 22.1565 0.4237
33.3000 22.1699 0.4316
33.3200 22.1832 0.4343
33.3400 22.1965 0.4275
33.3600 22.2098 0.4305
33.3800 22.2231 0.4332
33.4000 22.2365 0.4262
33.4200 22.2498 0.4330
33.4400 22.2631 0.4348
33.4600 22.2764 0.4268
33.4800 22.2898 0.4329
33.5000 22.3031 0.4311
33.5200 22.3165 0.4289
33.5400 22.3298 0.4364
33.5600 22.3431 0.4300
33.5800 22.3565 0.4287
33.6000 22.3698 0.4340
33.6200 22.3831 0.4274
33.6400 22.3965 0.4344
33.6600 22.4098 0.4357
33.6800 22.4232 0.4231
33.7000 22.4365 0.4353
33.7200 22.4499 0.4291
33.7400 22.4632 0.4263
33.7600 22.4766 0.4381
33.7800 22.4898 0.4275
33.8000 22.5031 0.4274
33.8200 22.5164 0.4304
33.8400 22.5297 0.4303
33.8600 22.5431 0.4261
33.8800 22.5564 0.4346
33.9000 22.5698 0.4221
33.9200 22.5832 0.4279
33.9400 22.5966 0.4310
33.9600 22.6099 0.4236
33.9800 22.6232 0.4244
34.0000 22.6366 0.4315
34.0200 22.6499 0.4253
34.0400 22.6633 0.4229
34.0600 22.6766 0.4304
34.0800 22.6898 0.4281
34.1000 22.7031 0.4228
34.1200 22.7165 0.4308
34.1400 22.7298 0.4271
34.1600 22.7431 0.4264
34.1800 22.7564 0.4310
34.2000 22.7698 0.4260
34.2200 22.7831 0.4195
34.2400 22.7964 0.4352
34.2600 22.8098 0.4232
34.2800 22.8232 0.4181
34.3000 22.8366 0.4321
34.3200 22.8499 0.4228
34.3400 22.8632 0.4162
34.3600 22.8766 0.4344
34.3800 22.8899 0.4251
34.4000 22.9032 0.4160
34.4200 22.9165 0.4299
34.4400 22.9298 0.4203
34.4600 22.9431 0.4181
34.4800 22.9565 0.4301
34.5000 22.9698 0.4167
34.5200 22.9831 0.4179
34.5400 22.9964 0.4320
34.5600 23.0098 0.4172
34.5800 23.0231 0.4155
34.6000 23.0364 0.4301
34.6200 23.0498 0.4160
34.6400 23.0631 0.4167
34.6600 23.0765 0.4310
34.6800 23.0898 0.4166
34.7000 23.1032 0.4153
34.7200 23.1165 0.4304
34.7400 23.1299 0.4179
34.7600 23.1432 0.4169
34.7800 23.1565 0.4319
34.8000 23.1698 0.4121
34.8200 23.1832 0.4210
34.8400 23.1965 0.4296
34.8600 23.2098 0.4192
34.8800 23.2231 0.4227
34.9000 23.2364 0.4307
34.9200 23.2498 0.4178
34.9400 23.2631 0.4211
34.9600 23.2765 0.4283
34.9800 23.2898 0.4185
35.0000 23.3032 0.4203
35.0200 23.3165 0.4303
35.0400 23.3299 0.4175
35.0600 23.3432 0.4204
35.0800 23.3565 0.4276
35.1000 23.3698 0.4228
35.1200 23.3832 0.4175
35.1400 23.3965 0.4281
35.1600 23.4098 0.4209
35.1800 23.4231 0.4208
35.2000 23.4365 0.4297
35.2200 23.4498 0.4172
35.2400 23.4631 0.4203
35.2600 23.4764 0.4274
35.2800 23.4898 0.4203
35.3000 23.5031 0.4159
35.3200 23.5164 0.4245
35.3400 23.5298 0.4190
35.3600 23.5431 0.4187
35.3800 23.5565 0.4258
35.4000 23.5699 0.4183
35.4200 23.5832 0.4191
35.4400 23.5965 0.4271
35.4600 23.6099 0.4137
35.4800 23.6232 0.4222
35.5000 23.6366 0.4211
35.5200 23.6499 0.4156
35.5400 23.6632 0.4212
35.5600 23.6765 0.4211
35.5800 23.6898 0.4145
35.6000 23.7031 0.4205
35.6200 23.7165 0.4258
35.6400 23.7298 0.4148
35.6600 23.7431 0.4164
35.6800 23.7565 0.4257
35.7000 23.7698 0.4137
35.7200 23.7831 0.4209
35.7400 23.7965 0.4229
35.7600 23.8099 0.4123
35.7800 23.8232 0.4189
35.8000 23.8365 0.4236
35.8200 23.8499 0.4101
35.8400 23.8632 0.4197
35.8600 23.8765 0.4223
35.8800 23.8898 0.4109
35.9000 23.9032 0.4222
35.9200 23.9165 0.4206
35.9400 23.9298 0.4119
35.9600 23.9431 0.4226
35.9800 23.9564 0.4189
36.0000 23.9697 0.4151
36.0200 23.9831 0.4208
36.0400 23.9964 0.4190
36.0600 24.0098 0.4170
36.0800 24.0231 0.4178
36.1000 24.0365 0.4188
36.1200 24.0499 0.4177
36.1400 24.0633 0.4148
36.1600 24.0766 0.4199
36.1800 24.0899 0.4208
36.2000 24.1032 0.4169
36.2200 24.1165 0.4172
36.2400 24.1298 0.4209
36.2600 24.1431 0.4137
36.2800 24.1564 0.4180
36.3000 24.1698 0.4199
36.3200 24.1831 0.4061
36.3400 24.1964 0.4209
36.3600 24.2098 0.4193
36.3800 24.2232 0.4064
36.4000 24.2365 0.4173
36.4200 24.2498 0.4192
36.4400 24.2632 0.4091
36.4600 24.2765 0.4195
36.4800 24.2899 0.4120
36.5000 24.3032 0.4072
36.5200 24.3165 0.4220
36.5400 24.3298 0.4110
36.5600 24.3432 0.4048
36.5800 24.3565 0.4214
36.6000 24.3698 0.4077
36.6200 24.3831 0.4108
36.6400 24.3965 0.4211
36.6600 24.4098 0.4094
36.6800 24.4231 0.4088
36.7000 24.4364 0.4194
36.7200 24.4498 0.4089
36.7400 24.4631 0.4079
36.7600 24.4765 0.4164
36.7800 24.4898 0.4064
36.8000 24.5032 0.4092
36.8200 24.5165 0.4139
36.8400 24.5299 0.4088
36.8600 24.5432 0.4096
36.8800 24.5565 0.4114
36.9000 24.5698 0.4084
36.9200 24.5832 0.4099
36.9400 24.5965 0.4079
36.9600 24.6098 0.4094
36.9800 24.6231 0.4062
37.0000 24.6365 0.4092
37.0200 24.6498 0.4096
37.0400 24.6631 0.4068
37.0600 24.6764 0.4113
37.0800 24.6898 0.4058
37.1000 24.7031 0.4040
37.1200 24.7165 0.4102
37.1400 24.7298 0.4036
37.1600 24.7431 0.4040
37.1800 24.7565 0.4089
37.2000 24.7699 0.4033
37.2200 24.7832 0.4035
37.2400 24.7965 0.4112
37.2600 24.8099 0.3985
37.2800 24.8232 0.4041
37.3000 24.8365 0.4137
37.3200 24.8498 0.3959
37.3400 24.8631 0.4087
37.3600 24.8765 0.4128
37.3800 24.8898 0.3936
37.4000 24.9032 0.4131
37.4200 24.9165 0.4034
37.4400 24.9298 0.3954
37.4600 24.9431 0.4159
37.4800 24.9565 0.4022
37.5000 24.9698 0.3949
37.5200 24.9831 0.4146
37.5400 24.9965 0.4011
37.5600 25.0098 0.3970
37.5800 25.0232 0.4156
37.6000 25.0365 0.4013
37.6200 25.0498 0.4000
37.6400 25.0632 0.4141
37.6600 25.0765 0.3954
37.6800 25.0899 0.4048
37.7000 25.1032 0.4148
37.7200 25.1165 0.3947
37.7400 25.1298 0.4035
37.7600 25.1431 0.4137
37.7800 25.1564 0.3907
37.8000 25.1697 0.4047
37.8200 25.1831 0.4126
37.8400 25.1964 0.3898
37.8600 25.2098 0.4011
37.8800 25.2232 0.4130
37.9000 25.2365 0.3918
37.9200 25.2499 0.3994
37.9400 25.2632 0.4104
37.9600 25.2765 0.3932
37.9800 25.2898 0.4061
38.0000 25.3032 0.4058
38.0200 25.3166 0.3926
38.0400 25.3299 0.4007
38.0600 25.3432 0.4066
38.0800 25.3565 0.3946
38.1000 25.3698 0.3996
38.1200 25.3832 0.4013
38.1400 25.3964 0.3985
38.1600 25.4097 0.3980
38.1800 25.4231 0.4028
38.2000 25.4364 0.3968
38.2200 25.4498 0.3974
38.2400 25.4631 0.4018
38.2600 25.4765 0.3914
38.2800 25.4898 0.3964
38.3000 25.5032 0.4020
38.3200 25.5165 0.3930
38.3400 25.5299 0.4011
38.3600 25.5432 0.4057
38.3800 25.5565 0.3868
38.4000 25.5698 0.3989
38.4200 25.5831 0.4092
38.4400 25.5964 0.3858
38.4600 25.6098 0.4002
38.4800 25.6231 0.4048
38.5000 25.6364 0.3834
38.5200 25.6498 0.4040
38.5400 25.6632 0.3980
38.5600 25.6765 0.3865
38.5800 25.6898 0.4024
38.6000 25.7031 0.3992
38.6200 25.7165 0.3895
38.6400 25.7298 0.3997
38.6600 25.7431 0.4008
38.6800 25.7565 0.3908
38.7000 25.7698 0.3979
38.7200 25.7832 0.3954
38.7400 25.7965 0.3867
38.7600 25.8099 0.3956
38.7800 25.8232 0.3977
38.8000 25.8365 0.3861
38.8200 25.8499 0.3953
38.8400 25.8632 0.3953
38.8600 25.8765 0.3870
38.8800 25.8898 0.3963
38.9000 25.9031 0.3973
38.9200 25.9165 0.3876
38.9400 25.9298 0.3948
38.9600 25.9431 0.3950
38.9800 25.9565 0.3823
39.0000 25.9698 0.3947
39.0200 25.9832 0.3945
39.0400 25.9965 0.3864
39.0600 26.0098 0.3947
39.0800 26.0232 0.3913
39.1000 26.0365 0.3850
39.1200 26.0498 0.3942
39.1400 26.0632 0.3966
39.1600 26.0765 0.3893
39.1800 26.0898 0.3940
39.2000 26.1032 0.3925
39.2200 26.1165 0.3868
39.2400 26.1298 0.3954
39.2600 26.1431 0.3969
39.2800 26.1564 0.3842
39.3000 26.1698 0.3951
39.3200 26.1831 0.3958
39.3400 26.1965 0.3857
39.3600 26.2099 0.3926
39.3800 26.2232 0.3985
39.4000 26.2366 0.3849
39.4200 26.2499 0.3912
39.4400 26.2632 0.3966
39.4600 26.2765 0.3863
39.4800 26.2898 0.3885
39.5000 26.3031 0.3993
39.5200 26.3165 0.3825
39.5400 26.3298 0.3936
39.5600 26.3432 0.3907
39.5800 26.3565 0.3837
39.6000 26.3698 0.3955
39.6200 26.3831 0.3942
39.6400 26.3965 0.3847
39.6600 26.4098 0.3901
39.6800 26.4232 0.3928
39.7000 26.4365 0.3849
39.7200 26.4499 0.3886
39.7400 26.4632 0.3900
39.7600 26.4765 0.3796
39.7800 26.4899 0.3913
39.8000 26.5032 0.3919
39.8200 26.5166 0.3797
39.8400 26.5299 0.3889
39.8600 26.5432 0.3872
39.8800 26.5565 0.3833
39.9000 26.5698 0.3864
39.9200 26.5831 0.3876
39.9400 26.5964 0.3807
39.9600 26.6097 0.3862
39.9800 26.6231 0.3882
40.0000 26.6364 0.3793
40.0200 26.6498 0.3894
40.0400 26.6631 0.3857
40.0600 26.6765 0.3817
40.0800 26.6899 0.3838
40.1000 26.7032 0.3820
40.1200 26.7165 0.3769
40.1400 26.7298 0.3886
40.1600 26.7432 0.3830
40.1800 26.7565 0.3743
40.2000 26.7698 0.3844
40.2200 26.7831 0.3786
40.2400 26.7965 0.3802
40.2600 26.8098 0.3788
40.2800 26.8232 0.3777
40.3000 26.8365 0.3811
40.3200 26.8498 0.3793
40.3400 26.8631 0.3755
40.3600 26.8765 0.3798
40.3800 26.8898 0.3766
40.4000 26.9031 0.3758
40.4200 26.9165 0.3782
40.4400 26.9298 0.3745
40.4600 26.9432 0.3746
40.4800 26.9565 0.3798
40.5000 26.9698 0.3724
40.5200 26.9832 0.3749
40.5400 26.9965 0.3783
40.5600 27.0099 0.3678
40.5800 27.0232 0.3715
40.6000 27.0365 0.3776
40.6200 27.0498 0.3679
40.6400 27.0632 0.3721
40.6600 27.0765 0.3746
40.6800 27.0898 0.3680
40.7000 27.1031 0.3676
40.7200 27.1165 0.3778
40.7400 27.1298 0.3647
40.7600 27.1432 0.3663
40.7800 27.1565 0.3785
40.8000 27.1698 0.3656
40.8200 27.1832 0.3659
40.8400 27.1965 0.3748
40.8600 27.2098 0.3630
40.8800 27.2231 0.3658
40.9000 27.2365 0.3748
40.9200 27.2499 0.3644
40.9400 27.2632 0.3666
40.9600 27.2765 0.3746
40.9800 27.2899 0.3608
41.0000 27.3032 0.3626
41.0200 27.3165 0.3761
41.0400 27.3298 0.3612
41.0600 27.3431 0.3622
41.0800 27.3564 0.3771
41.1000 27.3698 0.3587
41.1200 27.3831 0.3647
41.1400 27.3964 0.3770
41.1600 27.4098 0.3523
41.1800 27.4232 0.3636
41.2000 27.4366 0.3783
41.2200 27.4499 0.3585
41.2400 27.4632 0.3688
41.2600 27.4766 0.3737
41.2800 27.4899 0.3580
41.3000 27.5032 0.3676
41.3200 27.5165 0.3711
41.3400 27.5298 0.3637
41.3600 27.5431 0.3664
41.3800 27.5564 0.3701
41.4000 27.5697 0.3660
41.4200 27.5831 0.3702
41.4400 27.5964 0.3733
41.4600 27.6098 0.3664
41.4800 27.6231 0.3724
41.5000 27.6365 0.3728
41.5200 27.6498 0.3622
41.5400 27.6632 0.3697
41.5600 27.6766 0.3767
41.5800 27.6899 0.3648
41.6000 27.7032 0.3688
41.6200 27.7166 0.3752
41.6400 27.7299 0.3660
41.6600 27.7432 0.3705
41.6800 27.7565 0.3722
41.7000 27.7698 0.3644
41.7200 27.7831 0.3679
41.7400 27.7964 0.3706
41.7600 27.8098 0.3656
41.7800 27.8231 0.3680
41.8000 27.8365 0.3723
41.8200 27.8498 0.3636
41.8400 27.8632 0.3687
41.8600 27.8765 0.3692
41.8800 27.8898 0.3658
41.9000 27.9032 0.3614
41.9200 27.9165 0.3681
41.9400 27.9299 0.3624
41.9600 27.9432 0.3612
41.9800 27.9565 0.3688
42.0000 27.9699 0.3629
42.0200 27.9832 0.3597
42.0400 27.9965 0.3654
42.0600 28.0098 0.3585
42.0800 28.0232 0.3586
42.1000 28.0365 0.3666
42.1200 28.0498 0.3599
42.1400 28.0631 0.3570
42.1600 28.0764 0.3653
42.1800 28.0898 0.3582
42.2000 28.1031 0.3582
42.2200 28.1165 0.3665
42.2400 28.1299 0.3559
42.2600 28.1432 0.3551
42.2800 28.1566 0.3682
42.3000 28.1699 0.3611
42.3200 28.1832 0.3566
42.3400 28.1965 0.3643
42.3600 28.2098 0.3564
42.3800 28.2231 0.3505
42.4000 28.2364 0.3681
42.4200 28.2498 0.3596
42.4400 28.2632 0.3506
42.4600 28.2765 0.3640
42.4800 28.2898 0.3565
42.5000 28.3031 0.3545
42.5200 28.3165 0.3644
42.5400 28.3298 0.3545
42.5600 28.3431 0.3506
42.5800 28.3564 0.3662
42.6000 28.3698 0.3510
42.6200 28.3832 0.3495
42.6400 28.3965 0.3649
42.6600 28.4099 0.3516
42.6800 28.4232 0.3519
42.7000 28.4366 0.3624
42.7200 28.4499 0.3478
42.7400 28.4632 0.3566
42.7600 28.4765 0.3646
42.7800 28.4898 0.3469
42.8000 28.5032 0.3523
42.8200 28.5165 0.3611
42.8400 28.5298 0.3485
42.8600 28.5431 0.3524
42.8800 28.5564 0.3612
42.9000 28.5698 0.3494
42.9200 28.5831 0.3500
42.9400 28.5965 0.3600
42.9600 28.6098 0.3485
42.9800 28.6232 0.3477
43.0000 28.6365 0.3535
43.0200 28.6498 0.3508
43.0400 28.6632 0.3471
43.0600 28.6765 0.3552
43.0800 28.6899 0.3525
43.1000 28.7032 0.3464
43.1200 28.7165 0.3521
43.1400 28.7298 0.3540
43.1600 28.7432 0.3491
43.1800 28.7565 0.3533
43.2000 28.7698 0.3533
43.2200 28.7831 0.3447
43.2400 28.7964 0.3520
43.2600 28.8097 0.3525
43.2800 28.8231 0.3454
43.3000 28.8364 0.3546
43.3200 28.8498 0.3479
43.3400 28.8632 0.3458
43.3600 28.8766 0.3525
43.3800 28.8899 0.3507
43.4000 28.9033 0.3485
43.4200 28.9166 0.3504
43.4400 28.9299 0.3487
43.4600 28.9432 0.3467
43.4800 28.9564 0.3555
43.5000 28.9697 0.3487
43.5200 28.9831 0.3457
43.5400 28.9964 0.3539
43.5600 29.0098 0.3478
43.5800 29.0231 0.3496
43.6000 29.0365 0.3548
43.6200 29.0498 0.3474
43.6400 29.0632 0.3526
43.6600 29.0765 0.3525
43.6800 29.0899 0.3492
43.7000 29.1033 0.3468
43.7200 29.1166 0.3520
43.7400 29.1299 0.3530
43.7600 29.1432 0.3458
43.7800 29.1565 0.3545
43.8000 29.1699 0.3501
43.8200 29.1832 0.3445
43.8400 29.1965 0.3532
43.8600 29.2098 0.3540
43.8800 29.2231 0.3444
43.9000 29.2365 0.3474
43.9200 29.2498 0.3499
43.9400 29.2631 0.3508
43.9600 29.2764 0.3495
43.9800 29.2898 0.3490
44.0000 29.3031 0.3487
44.0200 29.3165 0.3502
44.0400 29.3298 0.3492
44.0600 29.3432 0.3470
44.0800 29.3565 0.3458
44.1000 29.3699 0.3511
44.1200 29.3832 0.3468
44.1400 29.3965 0.3472
44.1600 29.4099 0.3503
44.1800 29.4232 0.3455
44.2000 29.4365 0.3440
44.2200 29.4498 0.3492
44.2400 29.4631 0.3516
44.2600 29.4765 0.3418
44.2800 29.4898 0.3469
44.3000 29.5031 0.3482
44.3200 29.5164 0.3440
44.3400 29.5298 0.3471
44.3600 29.5431 0.3430
44.3800 29.5564 0.3426
44.4000 29.5698 0.3496
44.4200 29.5832 0.3465
44.4400 29.5965 0.3367
44.4600 29.6099 0.3513
44.4800 29.6232 0.3424
44.5000 29.6365 0.3339
44.5200 29.6499 0.3490
44.5400 29.6632 0.3390
44.5600 29.6765 0.3345
44.5800 29.6898 0.3493
44.6000 29.7031 0.3359
44.6200 29.7165 0.3332
44.6400 29.7298 0.3445
44.6600 29.7431 0.3337
44.6800 29.7564 0.3308
44.7000 29.7698 0.3430
44.7200 29.7831 0.3316
44.7400 29.7965 0.3291
44.7600 29.8098 0.3417
44.7800 29.8232 0.3288
44.8000 29.8365 0.3319
44.8200 29.8499 0.3359
44.8400 29.8632 0.3299
44.8600 29.8765 0.3296
44.8800 29.8899 0.3324
44.9000 29.9032 0.3295
44.9200 29.9165 0.3298
44.9400 29.9298 0.3339
44.9600 29.9431 0.3290
44.9800 29.9565 0.3246
45.0000 29.9698 0.3302
45.0200 29.9831 0.3275
45.0400 29.9964 0.3276
45.0600 30.0098 0.3324
45.0800 30.0231 0.3260
45.1000 30.0365 0.3247
45.1200 30.0498 0.3341
45.1400 30.0632 0.3284
45.1600 30.0766 0.3225
45.1800 30.0899 0.3297
45.2000 30.1032 0.3295
45.2200 30.1165 0.3246
45.2400 30.1299 0.3307
45.2600 30.1432 0.3254
45.2800 30.1565 0.3218
45.3000 30.1698 0.3295
45.3200 30.1831 0.3272
45.3400 30.1965 0.3205
45.3600 30.2098 0.3279
45.3800 30.2231 0.3274
45.4000 30.2364 0.3184
45.4200 30.2498 0.3283
45.4400 30.2631 0.3266
45.4600 30.2765 0.3182
45.4800 30.2898 0.3281
45.5000 30.3032 0.3273
45.5200 30.3166 0.3150
45.5400 30.3299 0.3248
45.5600 30.3432 0.3264
45.5800 30.3565 0.3156
45.6000 30.3699 0.3231
45.6200 30.3832 0.3254
45.6400 30.3964 0.3160
45.6600 30.4098 0.3267
45.6800 30.4231 0.3247
45.7000 30.4365 0.3157
45.7200 30.4498 0.3299
45.7400 30.4631 0.3238
45.7600 30.4765 0.3191
45.7800 30.4898 0.3270
45.8000 30.5032 0.3219
45.8200 30.5165 0.3189
45.8400 30.5298 0.3248
45.8600 30.5432 0.3229
45.8800 30.5565 0.3238
45.9000 30.5698 0.3259
45.9200 30.5831 0.3171
45.9400 30.5965 0.3219
45.9600 30.6098 0.3243
45.9800 30.6232 0.3224
46.0000 30.6365 0.3218
46.0200 30.6498 0.3233
46.0400 30.6632 0.3246
46.0600 30.6766 0.3247
46.0800 30.6898 0.3214
46.1000 30.7031 0.3292
46.1200 30.7164 0.3244
46.1400 30.7298 0.3198
46.1600 30.7431 0.3285
46.1800 30.7564 0.3213
46.2000 30.7698 0.3188
46.2200 30.7831 0.3277
46.2400 30.7965 0.3229
46.2600 30.8098 0.3159
46.2800 30.8232 0.3349
46.3000 30.8365 0.3208
46.3200 30.8499 0.3158
46.3400 30.8632 0.3313
46.3600 30.8765 0.3249
46.3800 30.8898 0.3178
46.4000 30.9032 0.3302
46.4200 30.9165 0.3169
46.4400 30.9299 0.3173
46.4600 30.9431 0.3296
46.4800 30.9564 0.3177
46.5000 30.9698 0.3132
46.5200 30.9831 0.3306
46.5400 30.9964 0.3128
46.5600 31.0098 0.3229
46.5800 31.0232 0.3288
46.6000 31.0365 0.3079
46.6200 31.0499 0.3209
46.6400 31.0632 0.3294
46.6600 31.0765 0.3133
46.6800 31.0899 0.3253
46.7000 31.1032 0.3282
46.7200 31.1165 0.3106
46.7400 31.1298 0.3218
46.7600 31.1432 0.3305
46.7800 31.1565 0.3126
46.8000 31.1698 0.3209
46.8200 31.1831 0.3268
46.8400 31.1964 0.3126
46.8600 31.2098 0.3240
46.8800 31.2232 0.3254
46.9000 31.2365 0.3122
46.9200 31.2498 0.3237
46.9400 31.2632 0.3223
46.9600 31.2765 0.3142
46.9800 31.2899 0.3262
47.0000 31.3032 0.3167
47.0200 31.3165 0.3190
47.0400 31.3299 0.3200
47.0600 31.3432 0.3181
47.0800 31.3565 0.3185
47.1000 31.3698 0.3233
47.1200 31.3832 0.3233
47.1400 31.3965 0.3184
47.1600 31.4098 0.3190
47.1800 31.4231 0.3233
47.2000 31.4364 0.3181
47.2200 31.4498 0.3196
47.2400 31.4631 0.3211
47.2600 31.4764 0.3225
47.2800 31.4898 0.3161
47.3000 31.5032 0.3169
47.3200 31.5165 0.3210
47.3400 31.5299 0.3162
47.3600 31.5432 0.3195
47.3800 31.5565 0.3172
47.4000 31.5698 0.3193
47.4200 31.5832 0.3169
47.4400 31.5965 0.3144
47.4600 31.6098 0.3214
47.4800 31.6231 0.3141
47.5000 31.6365 0.3177
47.5200 31.6498 0.3194
47.5400 31.6631 0.3179
47.5600 31.6765 0.3170
47.5800 31.6898 0.3170
47.6000 31.7031 0.3140
47.6200 31.7164 0.3213
47.6400 31.7298 0.3154
47.6600 31.7432 0.3114
47.6800 31.7565 0.3164
47.7000 31.7699 0.3157
47.7200 31.7832 0.3136
47.7400 31.7965 0.3204
47.7600 31.8099 0.3128
47.7800 31.8232 0.3095
47.8000 31.8365 0.3193
47.8200 31.8498 0.3103
47.8400 31.8631 0.3153
47.8600 31.8765 0.3178
47.8800 31.8898 0.3096
47.9000 31.9031 0.3151
47.9200 31.9165 0.3206
47.9400 31.9298 0.3093
47.9600 31.9431 0.3135
47.9800 31.9565 0.3132
48.0000 31.9698 0.3152
48.0200 31.9831 0.3154
48.0400 31.9965 0.3098
48.0600 32.0098 0.3062
48.0800 32.0231 0.3115
48.1000 32.0365 0.3124
48.1200 32.0498 0.3075
48.1400 32.0632 0.3087
48.1600 32.0765 0.3132
48.1800 32.0899 0.3042
48.2000 32.1032 0.3060
48.2200 32.1165 0.3104
48.2400 32.1299 0.3044
48.2600 32.1431 0.3083
48.2800 32.1564 0.3152
48.3000 32.1697 0.3076
48.3200 32.1831 0.3046
48.3400 32.1964 0.3121
48.3600 32.2097 0.3086
48.3800 32.2231 0.2982
48.4000 32.2365 0.3112
48.4200 32.2499 0.3058
48.4400 32.2632 0.2999
48.4600 32.2765 0.3168
48.4800 32.2899 0.3016
48.5000 32.3032 0.3032
48.5200 32.3166 0.3139
48.5400 32.3298 0.2997
48.5600 32.3431 0.3033
48.5800 32.3565 0.3138
48.6000 32.3698 0.3003
48.6200 32.3831 0.3037
48.6400 32.3964 0.3120
48.6600 32.4098 0.3024
48.6800 32.4231 0.2994
48.7000 32.4365 0.3079
48.7200 32.4498 0.3005
48.7400 32.4632 0.3030
48.7600 32.4765 0.3060
48.7800 32.4899 0.3009
48.8000 32.5032 0.3043
48.8200 32.5166 0.3070
48.8400 32.5299 0.3035
48.8600 32.5432 0.3026
48.8800 32.5565 0.3084
48.9000 32.5698 0.3025
48.9200 32.5831 0.3012
48.9400 32.5965 0.3071
48.9600 32.6098 0.2947
48.9800 32.6231 0.3016
49.0000 32.6364 0.3103
49.0200 32.6498 0.2983
49.0400 32.6631 0.2991
49.0600 32.6765 0.3059
49.0800 32.6898 0.2975
49.1000 32.7031 0.3023
49.1200 32.7165 0.3065
49.1400 32.7299 0.3002
49.1600 32.7432 0.3010
49.1800 32.7565 0.3086
49.2000 32.7699 0.2966
49.2200 32.7832 0.3032
49.2400 32.7965 0.3070
49.2600 32.8098 0.2969
49.2800 32.8232 0.3068
49.3000 32.8365 0.3066
49.3200 32.8498 0.2994
49.3400 32.8631 0.3002
49.3600 32.8764 0.3055
49.3800 32.8897 0.3020
49.4000 32.9031 0.2987
49.4200 32.9165 0.3009
49.4400 32.9298 0.3034
49.4600 32.9432 0.2995
49.4800 32.9565 0.3022
49.5000 32.9699 0.2952
49.5200 32.9832 0.2965
49.5400 32.9965 0.3069
49.5600 33.0098 0.2968
49.5800 33.0232 0.2948
49.6000 33.0365 0.3059
49.6200 33.0498 0.2944
49.6400 33.0631 0.2965
49.6600 33.0765 0.3055
49.6800 33.0898 0.2929
49.7000 33.1031 0.2967
49.7200 33.1164 0.3042
49.7400 33.1298 0.2921
49.7600 33.1431 0.2961
49.7800 33.1564 0.3035
49.8000 33.1698 0.2977
49.8200 33.1831 0.2958
49.8400 33.1965 0.3019
49.8600 33.2099 0.2968
49.8800 33.2232 0.2955
49.9000 33.2365 0.3002
49.9200 33.2499 0.2994
49.9400 33.2633 0.2924
49.9600 33.2766 0.2989
49.9800 33.2899 0.2947
50.0000 33.3032 0.2986
50.0200 33.3165 0.3025
50.0400 33.3298 0.2938
50.0600 33.3432 0.2949
50.0800 33.3565 0.2977
50.1000 33.3698 0.2911
50.1200 33.3831 0.2988
50.1400 33.3965 0.2994
50.1600 33.4098 0.2921
50.1800 33.4231 0.2965
50.2000 33.4365 0.2940
50.2200 33.4499 0.2907
50.2400 33.4632 0.2940
50.2600 33.4765 0.2931
50.2800 33.4898 0.2902
50.3000 33.5032 0.2926
50.3200 33.5165 0.2897
50.3400 33.5298 0.2933
50.3600 33.5432 0.2936
50.3800 33.5565 0.2915
50.4000 33.5699 0.2898
50.4200 33.5832 0.2882
50.4400 33.5964 0.2907
50.4600 33.6098 0.2958
50.4800 33.6231 0.2864
50.5000 33.6364 0.2890
50.5200 33.6497 0.2924
50.5400 33.6631 0.2873
50.5600 33.6765 0.2891
50.5800 33.6899 0.2914
50.6000 33.7033 0.2841
50.6200 33.7166 0.2930
50.6400 33.7299 0.2906
50.6600 33.7432 0.2869
50.6800 33.7565 0.2912
50.7000 33.7698 0.2887
50.7200 33.7831 0.2858
50.7400 33.7964 0.2931
50.7600 33.8098 0.2852
50.7800 33.8231 0.2892
50.8000 33.8365 0.2937
50.8200 33.8498 0.2864
50.8400 33.8632 0.2877
50.8600 33.8765 0.2868
50.8800 33.8898 0.2864
50.9000 33.9032 0.2895
50.9200 33.9165 0.2903
50.9400 33.9299 0.2829
50.9600 33.9432 0.2877
50.9800 33.9565 0.2896
51.0000 33.9698 0.2869
51.0200 33.9832 0.2901
51.0400 33.9965 0.2843
51.0600 34.0098 0.2847
51.0800 34.0231 0.2930
51.1000 34.0365 0.2826
51.1200 34.0498 0.2863
51.1400 34.0631 0.2925
51.1600 34.0764 0.2831
51.1800 34.0898 0.2878
51.2000 34.1031 0.2895
51.2200 34.1165 0.2832
51.2400 34.1298 0.2904
51.2600 34.1432 0.2870
51.2800 34.1565 0.2851
51.3000 34.1699 0.2893
51.3200 34.1832 0.2847
51.3400 34.1965 0.2863
51.3600 34.2098 0.2886
51.3800 34.2232 0.2873
51.4000 34.2365 0.2839
51.4200 34.2499 0.2882
51.4400 34.2632 0.2921
51.4600 34.2765 0.2820
51.4800 34.2899 0.2886
51.5000 34.3032 0.2917
51.5200 34.3165 0.2815
51.5400 34.3298 0.2904
51.5600 34.3431 0.2910
51.5800 34.3565 0.2815
51.6000 34.3698 0.2919
51.6200 34.3831 0.2906
51.6400 34.3965 0.2834
51.6600 34.4099 0.2873
51.6800 34.4232 0.2864
51.7000 34.4365 0.2866
51.7200 34.4499 0.2902
51.7400 34.4632 0.2833
51.7600 34.4765 0.2828
51.7800 34.4898 0.2880
51.8000 34.5031 0.2845
51.8200 34.5165 0.2852
51.8400 34.5298 0.2842
51.8600 34.5432 0.2813
51.8800 34.5565 0.2827
51.9000 34.5698 0.2834
51.9200 34.5831 0.2826
51.9400 34.5965 0.2845
51.9600 34.6098 0.2824
51.9800 34.6231 0.2854
52.0000 34.6364 0.2814
52.0200 34.6498 0.2805
52.0400 34.6632 0.2861
52.0600 34.6765 0.2776
52.0800 34.6898 0.2815
52.1000 34.7032 0.2823
52.1200 34.7166 0.2706
52.1400 34.7299 0.2860
52.1600 34.7432 0.2831
52.1800 34.7565 0.2758
52.2000 34.7698 0.2867
52.2200 34.7831 0.2844
52.2400 34.7964 0.2720
52.2600 34.8098 0.2860
52.2800 34.8231 0.2845
52.3000 34.8365 0.2701
52.3200 34.8498 0.2864
52.3400 34.8631 0.2798
52.3600 34.8765 0.2729
52.3800 34.8899 0.2861
52.4000 34.9032 0.2767
52.4200 34.9165 0.2741
52.4400 34.9298 0.2859
52.4600 34.9432 0.2778
52.4800 34.9565 0.2733
52.5000 34.9699 0.2825
52.5200 34.9832 0.2820
52.5400 34.9965 0.2740
52.5600 35.0098 0.2817
52.5800 35.0231 0.2823
52.6000 35.0364 0.2759
52.6200 35.0498 0.2795
52.6400 35.0631 0.2857
52.6600 35.0765 0.2748
52.6800 35.0898 0.2820
52.7000 35.1031 0.2813
52.7200 35.1165 0.2723
52.7400 35.1299 0.2772
52.7600 35.1432 0.2816
52.7800 35.1565 0.2735
52.8000 35.1699 0.2830
52.8200 35.1832 0.2797
52.8400 35.1965 0.2712
52.8600 35.2098 0.2775
52.8800 35.2231 0.2805
52.9000 35.2364 0.2671
52.9200 35.2498 0.2796
52.9400 35.2631 0.2792
52.9600 35.2764 0.2661
52.9800 35.2898 0.2771
53.0000 35.3032 0.2753
53.0200 35.3165 0.2672
53.0400 35.3299 0.2778
53.0600 35.3432 0.2708
53.0800 35.3565 0.2691
53.1000 35.3699 0.2774
53.1200 35.3832 0.2685
53.1400 35.3965 0.2664
53.1600 35.4098 0.2770
53.1800 35.4231 0.2694
53.2000 35.4365 0.2639
53.2200 35.4498 0.2728
53.2400 35.4632 0.2701
53.2600 35.4765 0.2700
53.2800 35.4899 0.2688
53.3000 35.5032 0.2692
53.3200 35.5165 0.2680
53.3400 35.5298 0.2676
53.3600 35.5431 0.2718
53.3800 35.5564 0.2660
53.4000 35.5698 0.2667
53.4200 35.5831 0.2650
53.4400 35.5964 0.2636
53.4600 35.6098 0.2663
53.4800 35.6232 0.2695
53.5000 35.6365 0.2654
53.5200 35.6498 0.2639
53.5400 35.6632 0.2696
53.5600 35.6765 0.2647
53.5800 35.6899 0.2665
53.6000 35.7032 0.2694
53.6200 35.7165 0.2639
53.6400 35.7299 0.2667
53.6600 35.7432 0.2657
53.6800 35.7565 0.2644
53.7000 35.7698 0.2690
53.7200 35.7831 0.2640
53.7400 35.7964 0.2642
53.7600 35.8098 0.2626
53.7800 35.8231 0.2703
53.8000 35.8365 0.2622
53.8200 35.8498 0.2617
53.8400 35.8632 0.2707
53.8600 35.8765 0.2618
53.8800 35.8899 0.2609
53.9000 35.9032 0.2684
53.9200 35.9166 0.2561
53.9400 35.9299 0.2619
53.9600 35.9431 0.2695
53.9800 35.9565 0.2562
54.0000 35.9698 0.2625
54.0200 35.9831 0.2656
54.0400 35.9964 0.2567
54.0600 36.0098 0.2616
54.0800 36.0231 0.2644
54.1000 36.0365 0.2507
54.1200 36.0498 0.2600
54.1400 36.0631 0.2623
54.1600 36.0765 0.2525
54.1800 36.0898 0.2577
54.2000 36.1032 0.2625
54.2200 36.1165 0.2528
54.2400 36.1299 0.2587
54.2600 36.1432 0.2553
54.2800 36.1566 0.2515
54.3000 36.1699 0.2613
54.3200 36.1832 0.2549
54.3400 36.1965 0.2536
54.3600 36.2098 0.2590
54.3800 36.2232 0.2535
54.4000 36.2365 0.2549
54.4200 36.2498 0.2563
54.4400 36.2631 0.2570
54.4600 36.2764 0.2587
54.4800 36.2898 0.2558
54.5000 36.3031 0.2552
54.5200 36.3165 0.2575
54.5400 36.3299 0.2551
54.5600 36.3432 0.2541
54.5800 36.3566 0.2560
54.6000 36.3699 0.2531
54.6200 36.3832 0.2546
54.6400 36.3965 0.2543
54.6600 36.4099 0.2513
54.6800 36.4231 0.2558
54.7000 36.4365 0.2572
54.7200 36.4498 0.2470
54.7400 36.4631 0.2549
54.7600 36.4765 0.2539
54.7800 36.4898 0.2495
54.8000 36.5031 0.2529
54.8200 36.5164 0.2505
54.8400 36.5298 0.2540
54.8600 36.5431 0.2498
54.8800 36.5565 0.2494
54.9000 36.5698 0.2513
54.9200 36.5832 0.2458
54.9400 36.5965 0.2536
54.9600 36.6099 0.2468
54.9800 36.6232 0.2494
55.0000 36.6365 0.2495
55.0200 36.6499 0.2455
55.0400 36.6632 0.2492
55.0600 36.6764 0.2482
55.0800 36.6898 0.2518
55.1000 36.7031 0.2523
55.1200 36.7164 0.2489
55.1400 36.7298 0.2504
55.1600 36.7431 0.2473
55.1800 36.7564 0.2513
55.2000 36.7698 0.2438
55.2200 36.7831 0.2500
55.2400 36.7965 0.2507
55.2600 36.8098 0.2451
55.2800 36.8232 0.2498
55.3000 36.8365 0.2484
55.3200 36.8498 0.2442
55.3400 36.8631 0.2438
55.3600 36.8765 0.2522
55.3800 36.8899 0.2405
55.4000 36.9032 0.2489
55.4200 36.9165 0.2568
55.4400 36.9299 0.2382
55.4600 36.9432 0.2516
55.4800 36.9565 0.2507
55.5000 36.9698 0.2394
55.5200 36.9831 0.2539
55.5400 36.9964 0.2433
55.5600 37.0097 0.2459
55.5800 37.0231 0.2479
55.6000 37.0364 0.2453
55.6200 37.0498 0.2451
55.6400 37.0632 0.2498
55.6600 37.0766 0.2449
55.6800 37.0899 0.2423
55.7000 37.1032 0.2506
55.7200 37.1166 0.2446
55.7400 37.1299 0.2452
55.7600 37.1432 0.2516
55.7800 37.1565 0.2419
55.8000 37.1698 0.2518
55.8200 37.1832 0.2479
55.8400 37.1965 0.2492
55.8600 37.2098 0.2492
55.8800 37.2231 0.2487
55.9000 37.2364 0.2497
55.9200 37.2498 0.2462
55.9400 37.2631 0.2451
55.9600 37.2765 0.2511
55.9800 37.2898 0.2511
56.0000 37.3032 0.2405
56.0200 37.3165 0.2493
56.0400 37.3299 0.2471
56.0600 37.3432 0.2434
56.0800 37.3565 0.2521
56.1000 37.3699 0.2423
56.1200 37.3832 0.2443
56.1400 37.3965 0.2522
56.1600 37.4098 0.2369
56.1800 37.4232 0.2454
56.2000 37.4365 0.2513
56.2200 37.4498 0.2367
56.2400 37.4631 0.2375
56.2600 37.4764 0.2521
56.2800 37.4898 0.2360
56.3000 37.5031 0.2396
56.3200 37.5165 0.2507
56.3400 37.5298 0.2356
56.3600 37.5432 0.2418
56.3800 37.5565 0.2459
56.4000 37.5698 0.2335
56.4200 37.5832 0.2439
56.4400 37.5965 0.2477
56.4600 37.6099 0.2385
56.4800 37.6232 0.2430
56.5000 37.6365 0.2483
56.5200 37.6498 0.2360
56.5400 37.6632 0.2422
56.5600 37.6765 0.2432
56.5800 37.6898 0.2408
56.6000 37.7031 0.2444
56.6200 37.7164 0.2390
56.6400 37.7298 0.2397
56.6600 37.7431 0.2440
56.6800 37.7565 0.2398
56.7000 37.7698 0.2415
56.7200 37.7832 0.2414
56.7400 37.7966 0.2394
56.7600 37.8099 0.2407
56.7800 37.8232 0.2415
56.8000 37.8365 0.2411
56.8200 37.8499 0.2398
56.8400 37.8632 0.2377
56.8600 37.8765 0.2444
56.8800 37.8898 0.2392
56.9000 37.9032 0.2372
56.9200 37.9165 0.2439
56.9400 37.9298 0.2383
56.9600 37.9431 0.2367
56.9800 37.9564 0.2437
57.0000 37.9698 0.2376
57.0200 37.9831 0.2343
57.0400 37.9964 0.2399
57.0600 38.0098 0.2391
57.0800 38.0232 0.2359
57.1000 38.0366 0.2334
57.1200 38.0499 0.2393
57.1400 38.0632 0.2398
57.1600 38.0765 0.2365
57.1800 38.0899 0.2417
57.2000 38.1032 0.2383
57.2200 38.1165 0.2328
57.2400 38.1298 0.2448
57.2600 38.1431 0.2397
57.2800 38.1565 0.2350
57.3000 38.1698 0.2424
57.3200 38.1831 0.2347
57.3400 38.1964 0.2309
57.3600 38.2098 0.2418
57.3800 38.2231 0.2319
57.4000 38.2364 0.2288
57.4200 38.2498 0.2381
57.4400 38.2632 0.2281
57.4600 38.2765 0.2247
57.4800 38.2898 0.2415
57.5000 38.3032 0.2272
57.5200 38.3165 0.2297
57.5400 38.3299 0.2402
57.5600 38.3432 0.2253
57.5800 38.3565 0.2279
57.6000 38.3698 0.2364
57.6200 38.3832 0.2269
57.6400 38.3965 0.2263
57.6600 38.4098 0.2361
57.6800 38.4231 0.2261
57.7000 38.4364 0.2333
57.7200 38.4497 0.2358
57.7400 38.4631 0.2213
57.7600 38.4764 0.2333
57.7800 38.4898 0.2358
57.8000 38.5032 0.2204
57.8200 38.5166 0.2315
57.8400 38.5299 0.2318
57.8600 38.5432 0.2249
57.8800 38.5566 0.2302
57.9000 38.5699 0.2306
57.9200 38.5832 0.2269
57.9400 38.5964 0.2306
57.9600 38.6097 0.2263
57.9800 38.6231 0.2311
58.0000 38.6365 0.2289
58.0200 38.6498 0.2297
58.0400 38.6631 0.2300
58.0600 38.6765 0.2254
58.0800 38.6898 0.2238
58.1000 38.7032 0.2291
58.1200 38.7165 0.2227
58.1400 38.7299 0.2281
58.1600 38.7432 0.2269
58.1800 38.7566 0.2171
58.2000 38.7699 0.2218
58.2200 38.7832 0.2260
58.2400 38.7965 0.2131
58.2600 38.8099 0.2215
58.2800 38.8232 0.2266
58.3000 38.8365 0.2113
58.3200 38.8498 0.2217
58.3400 38.8631 0.2217
58.3600 38.8765 0.2088
58.3800 38.8898 0.2207
58.4000 38.9031 0.2220
58.4200 38.9165 0.2021
58.4400 38.9298 0.2206
58.4600 38.9432 0.2190
58.4800 38.9565 0.2009
58.5000 38.9698 0.2194
58.5200 38.9832 0.2175
58.5400 38.9966 0.1944
58.5600 39.0099 0.2238
58.5800 39.0232 0.2128
58.6000 39.0365 0.2001
58.6200 39.0499 0.2192
58.6400 39.0632 0.2081
58.6600 39.0765 0.2022
58.6800 39.0898 0.2179
58.7000 39.1031 0.2063
58.7200 39.1165 0.2017
58.7400 39.1298 0.2103
58.7600 39.1431 0.2093
58.7800 39.1564 0.2025
58.8000 39.1698 0.2108
58.8200 39.1831 0.2027
58.8400 39.1965 0.2027
58.8600 39.2098 0.2119
58.8800 39.2232 0.2087
58.9000 39.2366 0.2024
58.9200 39.2499 0.2103
58.9400 39.2632 0.2098
58.9600 39.2765 0.2006
58.9800 39.2899 0.2114
59.0000 39.3032 0.2181
59.0200 39.3165 0.2014
59.0400 39.3298 0.2105
59.0600 39.3431 0.2157
59.0800 39.3565 0.1978
59.1000 39.3698 0.2130
59.1200 39.3831 0.2183
59.1400 39.3964 0.1973
59.1600 39.4098 0.2091
59.1800 39.4231 0.2142
59.2000 39.4365 0.1963
59.2200 39.4498 0.2186
59.2400 39.4631 0.2118
59.2600 39.4765 0.1999
59.2800 39.4898 0.2162
59.3000 39.5032 0.2105
59.3200 39.5165 0.2043
59.3400 39.5299 0.2216
59.3600 39.5432 0.2086
59.3800 39.5565 0.2048
59.4000 39.5698 0.2221
59.4200 39.5831 0.2098
59.4400 39.5965 0.2078
59.4600 39.6098 0.2226
59.4800 39.6231 0.2090
59.5000 39.6364 0.2073
59.5200 39.6498 0.2215
59.5400 39.6631 0.2110
59.5600 39.6765 0.2089
59.5800 39.6898 0.2186
59.6000 39.7032 0.2107
59.6200 39.7166 0.2119
59.6400 39.7299 0.2150
59.6600 39.7432 0.2098
59.6800 39.7565 0.2075
59.7000 39.7699 0.2152
59.7200 39.7832 0.2088
59.7400 39.7965 0.2080
59.7600 39.8098 0.2128
59.7800 39.8232 0.2107
59.8000 39.8365 0.2064
59.8200 39.8498 0.2105
59.8400 39.8631 0.2105
59.8600 39.8764 0.2075
59.8800 39.8898 0.2087
59.9000 39.9031 0.2110
59.9200 39.9164 0.2042
59.9400 39.9298 0.2144
59.9600 39.9432 0.2112
59.9800 39.9566 0.1975
60.0000 39.9699 0.2129
60.0200 39.9832 0.2072
60.0400 39.9965 0.1968
60.0460 40.0004 0.1858
