Raw Data
Time Displacement Force
(s) (mm) (N)
0.0000 0.0000 0.3056
0.0200 0.0000 0.2982
0.0400 0.0008 0.3463
0.0600 0.0040 0.4334
0.0800 0.0094 0.3982
0.1000 0.0152 0.4208
0.1200 0.0211 0.4808
0.1400 0.0277 0.5104
0.1600 0.0350 0.5615
0.1800 0.0425 0.6153
0.2000 0.0496 0.6497
0.2200 0.0565 0.7076
0.2400 0.0632 0.7677
0.2600 0.0699 0.8042
0.2800 0.0765 0.8487
0.3000 0.0832 0.9021
0.3200 0.0900 0.9354
0.3400 0.0967 0.9804
0.3600 0.1034 1.0259
0.3800 0.1100 1.0735
0.4000 0.1166 1.1136
0.4200 0.1233 1.1448
0.4400 0.1300 1.1878
0.4600 0.1367 1.2310
0.4800 0.1434 1.2614
0.5000 0.1501 1.3072
0.5200 0.1568 1.3434
0.5400 0.1634 1.3895
0.5600 0.1700 1.4438
0.5800 0.1766 1.4870
0.6000 0.1833 1.5262
0.6200 0.1900 1.5765
0.6400 0.1967 1.6185
0.6600 0.2034 1.6682
0.6800 0.2101 1.7182
0.7000 0.2167 1.7535
0.7200 0.2234 1.7982
0.7400 0.2300 1.8262
0.7600 0.2366 1.8104
0.7800 0.2433 1.8203
0.8000 0.2500 1.8237
0.8200 0.2567 1.8116
0.8400 0.2633 1.8283
0.8600 0.2700 1.8259
0.8800 0.2767 1.8207
0.9000 0.2834 1.8355
0.9200 0.2899 1.8340
0.9400 0.2965 1.8211
0.9600 0.3032 1.8440
0.9800 0.3100 1.8354
1.0000 0.3166 1.8300
1.0200 0.3233 1.8415
1.0400 0.3300 1.8325
1.0600 0.3367 1.8471
1.0800 0.3433 1.8492
1.1000 0.3499 1.8255
1.1200 0.3566 1.8531
1.1400 0.3633 1.8534
1.1600 0.3700 1.8329
1.1800 0.3767 1.8554
1.2000 0.3834 1.8577
1.2200 0.3901 1.8354
1.2400 0.3968 1.8595
1.2600 0.4034 1.8566
1.2800 0.4100 1.8413
1.3000 0.4167 1.8652
1.3200 0.4233 1.8553
1.3400 0.4300 1.8412
1.3600 0.4367 1.8600
1.3800 0.4434 1.8571
1.4000 0.4501 1.8486
1.4200 0.4567 1.8611
1.4400 0.4634 1.8523
1.4600 0.4700 1.8517
1.4800 0.4766 1.8621
1.5000 0.4832 1.8518
1.5200 0.4899 1.8482
1.5400 0.4967 1.8588
1.5600 0.5034 1.8461
1.5800 0.5100 1.8497
1.6000 0.5167 1.8533
1.6200 0.5233 1.8391
1.6400 0.5299 1.8425
1.6600 0.5366 1.8554
1.6800 0.5433 1.8391
1.7000 0.5500 1.8439
1.7200 0.5567 1.8431
1.7400 0.5634 1.8333
1.7600 0.5700 1.8422
1.7800 0.5767 1.8439
1.8000 0.5834 1.8301
1.8200 0.5900 1.8396
1.8400 0.5966 1.8325
1.8600 0.6033 1.8263
1.8800 0.6100 1.8405
1.9000 0.6167 1.8274
1.9200 0.6234 1.8213
1.9400 0.6301 1.8302
1.9600 0.6368 1.8205
1.9800 0.6434 1.8194
2.0000 0.6500 1.8285
2.0200 0.6566 1.8190
2.0400 0.6633 1.8171
2.0600 0.6700 1.8170
2.0800 0.6767 1.8148
2.1000 0.6834 1.8159
2.1200 0.6901 1.8138
2.1400 0.6967 1.8086
2.1600 0.7034 1.8172
2.1800 0.7100 1.8061
2.2000 0.7166 1.8099
2.2200 0.7233 1.8091
2.2400 0.7300 1.8051
2.2600 0.7367 1.8033
2.2800 0.7434 1.8101
2.3000 0.7500 1.8057
2.3200 0.7567 1.8024
2.3400 0.7633 1.8033
2.3600 0.7700 1.7983
2.3800 0.7766 1.8045
2.4000 0.7832 1.7986
2.4200 0.7900 1.8000
2.4400 0.7967 1.7969
2.4600 0.8034 1.7948
2.4800 0.8101 1.7967
2.5000 0.8168 1.7961
2.5200 0.8234 1.7932
2.5400 0.8300 1.7921
2.5600 0.8366 1.7920
2.5800 0.8433 1.7934
2.6000 0.8500 1.7859
2.6200 0.8567 1.7918
2.6400 0.8634 1.7927
2.6600 0.8701 1.7849
2.6800 0.8768 1.7834
2.7000 0.8834 1.7930
2.7200 0.8900 1.7805
2.7400 0.8966 1.7838
2.7600 0.9033 1.7902
2.7800 0.9100 1.7781
2.8000 0.9167 1.7827
2.8200 0.9234 1.7871
2.8400 0.9301 1.7736
2.8600 0.9368 1.7791
2.8800 0.9434 1.7877
2.9000 0.9500 1.7747
2.9200 0.9566 1.7768
2.9400 0.9633 1.7870
2.9600 0.9700 1.7708
2.9800 0.9767 1.7712
3.0000 0.9834 1.7841
3.0200 0.9900 1.7694
3.0400 0.9967 1.7681
3.0600 1.0034 1.7802
3.0800 1.0100 1.7649
3.1000 1.0166 1.7661
3.1200 1.0232 1.7844
3.1400 1.0299 1.7656
3.1600 1.0367 1.7588
3.1800 1.0434 1.7728
3.2000 1.0500 1.7664
3.2200 1.0567 1.7599
3.2400 1.0634 1.7690
3.2600 1.0700 1.7549
3.2800 1.0766 1.7658
3.3000 1.0833 1.7657
3.3200 1.0900 1.7555
3.3400 1.0967 1.7584
3.3600 1.1034 1.7622
3.3800 1.1101 1.7542
3.4000 1.1168 1.7517
3.4200 1.1234 1.7566
3.4400 1.1301 1.7501
3.4600 1.1367 1.7506
3.4800 1.1433 1.7565
3.5000 1.1500 1.7513
3.5200 1.1567 1.7467
3.5400 1.1634 1.7503
3.5600 1.1701 1.7444
3.5800 1.1767 1.7522
3.6000 1.1834 1.7505
3.6200 1.1900 1.7438
3.6400 1.1966 1.7465
3.6600 1.2033 1.7501
3.6800 1.2100 1.7429
3.7000 1.2167 1.7407
3.7200 1.2234 1.7473
3.7400 1.2300 1.7465
3.7600 1.2367 1.7389
3.7800 1.2434 1.7446
3.8000 1.2500 1.7395
3.8200 1.2566 1.7417
3.8400 1.2633 1.7435
3.8600 1.2700 1.7381
3.8800 1.2767 1.7416
3.9000 1.2834 1.7423
3.9200 1.2900 1.7392
3.9400 1.2967 1.7398
3.9600 1.3034 1.7421
3.9800 1.3100 1.7404
4.0000 1.3166 1.7400
4.0200 1.3233 1.7403
4.0400 1.3300 1.7398
4.0600 1.3367 1.7377
4.0800 1.3434 1.7408
4.1000 1.3501 1.7355
4.1200 1.3567 1.7366
4.1400 1.3634 1.7400
4.1600 1.3700 1.7377
4.1800 1.3766 1.7351
4.2000 1.3833 1.7413
4.2200 1.3900 1.7371
4.2400 1.3967 1.7346
4.2600 1.4034 1.7371
4.2800 1.4101 1.7342
4.3000 1.4167 1.7357
4.3200 1.4234 1.7389
4.3400 1.4300 1.7339
4.3600 1.4366 1.7373
4.3800 1.4433 1.7400
4.4000 1.4500 1.7350
4.4200 1.4567 1.7246
4.4400 1.4634 1.7335
4.4600 1.4700 1.7356
4.4800 1.4767 1.7325
4.5000 1.4834 1.7307
4.5200 1.4900 1.7277
4.5400 1.4966 1.7314
4.5600 1.5032 1.7322
4.5800 1.5099 1.7262
4.6000 1.5167 1.7298
4.6200 1.5234 1.7291
4.6400 1.5300 1.7220
4.6600 1.5367 1.7240
4.6800 1.5434 1.7287
4.7000 1.5500 1.7203
4.7200 1.5566 1.7231
4.7400 1.5633 1.7278
4.7600 1.5700 1.7153
4.7800 1.5767 1.7224
4.8000 1.5834 1.7216
4.8200 1.5901 1.7206
4.8400 1.5968 1.7134
4.8600 1.6034 1.7167
4.8800 1.6100 1.7185
4.9000 1.6166 1.7103
4.9200 1.6233 1.7165
4.9400 1.6300 1.7152
4.9600 1.6367 1.7107
4.9800 1.6434 1.7059
5.0000 1.6501 1.7133
5.0200 1.6568 1.7094
5.0400 1.6634 1.6993
5.0600 1.6700 1.7158
5.0800 1.6766 1.7019
5.1000 1.6832 1.7042
5.1200 1.6899 1.7099
5.1400 1.6967 1.6963
5.1600 1.7034 1.7020
5.1800 1.7101 1.7042
5.2000 1.7167 1.7021
5.2200 1.7234 1.6936
5.2400 1.7300 1.7032
5.2600 1.7366 1.6995
5.2800 1.7432 1.6935
5.3000 1.7499 1.7002
5.3200 1.7567 1.6929
5.3400 1.7634 1.6905
5.3600 1.7700 1.6962
5.3800 1.7767 1.6900
5.4000 1.7834 1.6908
5.4200 1.7900 1.6896
5.4400 1.7966 1.6881
5.4600 1.8033 1.6902
5.4800 1.8100 1.6894
5.5000 1.8167 1.6834
5.5200 1.8234 1.6854
5.5400 1.8301 1.6876
5.5600 1.8368 1.6821
5.5800 1.8434 1.6828
5.6000 1.8501 1.6846
5.6200 1.8567 1.6836
5.6400 1.8633 1.6795
5.6600 1.8700 1.6817
5.6800 1.8767 1.6837
5.7000 1.8834 1.6728
5.7200 1.8901 1.6806
5.7400 1.8967 1.6808
5.7600 1.9034 1.6656
5.7800 1.9101 1.6814
5.8000 1.9167 1.6762
5.8200 1.9233 1.6679
5.8400 1.9299 1.6791
5.8600 1.9366 1.6760
5.8800 1.9433 1.6628
5.9000 1.9500 1.6755
5.9200 1.9567 1.6727
5.9400 1.9634 1.6656
5.9600 1.9700 1.6745
5.9800 1.9766 1.6714
6.0000 1.9832 1.6594
6.0200 1.9899 1.6757
6.0400 1.9966 1.6667
6.0600 2.0033 1.6608
6.0800 2.0100 1.6735
6.1000 2.0167 1.6634
6.1200 2.0234 1.6560
6.1400 2.0301 1.6665
6.1600 2.0367 1.6698
6.1800 2.0433 1.6560
6.2000 2.0500 1.6638
6.2200 2.0567 1.6627
6.2400 2.0634 1.6561
6.2600 2.0701 1.6629
6.2800 2.0767 1.6614
6.3000 2.0834 1.6577
6.3200 2.0900 1.6561
6.3400 2.0966 1.6564
6.3600 2.1033 1.6587
6.3800 2.1099 1.6557
6.4000 2.1167 1.6584
6.4200 2.1234 1.6477
6.4400 2.1301 1.6552
6.4600 2.1367 1.6587
6.4800 2.1434 1.6495
6.5000 2.1501 1.6474
6.5200 2.1567 1.6553
6.5400 2.1633 1.6450
6.5600 2.1700 1.6513
6.5800 2.1767 1.6553
6.6000 2.1834 1.6384
6.6200 2.1900 1.6476
6.6400 2.1967 1.6542
6.6600 2.2034 1.6374
6.6800 2.2101 1.6483
6.7000 2.2167 1.6477
6.7200 2.2232 1.6364
6.7400 2.2299 1.6520
6.7600 2.2366 1.6449
6.7800 2.2433 1.6370
6.8000 2.2500 1.6426
6.8200 2.2567 1.6420
6.8400 2.2634 1.6342
6.8600 2.2700 1.6463
6.8800 2.2767 1.6447
6.9000 2.2833 1.6322
6.9200 2.2900 1.6465
6.9400 2.2967 1.6423
6.9600 2.3034 1.6302
6.9800 2.3100 1.6471
7.0000 2.3167 1.6338
7.0200 2.3234 1.6308
7.0400 2.3301 1.6418
7.0600 2.3367 1.6360
7.0800 2.3433 1.6330
7.1000 2.3500 1.6422
7.1200 2.3567 1.6303
7.1400 2.3634 1.6325
7.1600 2.3700 1.6380
7.1800 2.3767 1.6314
7.2000 2.3834 1.6255
7.2200 2.3901 1.6299
7.2400 2.3967 1.6322
7.2600 2.4033 1.6302
7.2800 2.4099 1.6328
7.3000 2.4166 1.6318
7.3200 2.4234 1.6254
7.3400 2.4300 1.6287
7.3600 2.4367 1.6343
7.3800 2.4434 1.6177
7.4000 2.4500 1.6264
7.4200 2.4567 1.6261
7.4400 2.4633 1.6255
7.4600 2.4699 1.6272
7.4800 2.4766 1.6268
7.5000 2.4833 1.6177
7.5200 2.4900 1.6238
7.5400 2.4967 1.6240
7.5600 2.5034 1.6214
7.5800 2.5100 1.6276
7.6000 2.5167 1.6205
7.6200 2.5233 1.6143
7.6400 2.5300 1.6267
7.6600 2.5367 1.6176
7.6800 2.5434 1.6170
7.7000 2.5501 1.6224
7.7200 2.5567 1.6143
7.7400 2.5634 1.6146
7.7600 2.5701 1.6185
7.7800 2.5767 1.6164
7.8000 2.5833 1.6162
7.8200 2.5900 1.6179
7.8400 2.5967 1.6097
7.8600 2.6034 1.6138
7.8800 2.6101 1.6135
7.9000 2.6167 1.6152
7.9200 2.6234 1.6100
7.9400 2.6301 1.6088
7.9600 2.6367 1.6093
7.9800 2.6433 1.6103
8.0000 2.6499 1.6054
8.0200 2.6566 1.6103
8.0400 2.6633 1.6058
8.0600 2.6700 1.6062
8.0800 2.6767 1.6094
8.1000 2.6834 1.6046
8.1200 2.6901 1.5985
8.1400 2.6967 1.6058
8.1600 2.7032 1.5996
8.1800 2.7099 1.5997
8.2000 2.7166 1.6068
8.2200 2.7233 1.5963
8.2400 2.7301 1.5978
8.2600 2.7367 1.6039
8.2800 2.7434 1.5952
8.3000 2.7501 1.5931
8.3200 2.7567 1.6012
8.3400 2.7633 1.5951
8.3600 2.7699 1.5953
8.3800 2.7766 1.5938
8.4000 2.7834 1.5926
8.4200 2.7900 1.5911
8.4400 2.7967 1.5969
8.4600 2.8034 1.5828
8.4800 2.8101 1.5878
8.5000 2.8167 1.5962
8.5200 2.8233 1.5874
8.5400 2.8300 1.5831
8.5600 2.8366 1.5960
8.5800 2.8434 1.5802
8.6000 2.8501 1.5822
8.6200 2.8567 1.5932
8.6400 2.8634 1.5818
8.6600 2.8701 1.5814
8.6800 2.8767 1.5882
8.7000 2.8833 1.5790
8.7200 2.8899 1.5845
8.7400 2.8966 1.5816
8.7600 2.9033 1.5743
8.7800 2.9100 1.5848
8.8000 2.9167 1.5789
8.8200 2.9234 1.5745
8.8400 2.9301 1.5788
8.8600 2.9367 1.5756
8.8800 2.9432 1.5749
8.9000 2.9499 1.5793
8.9200 2.9566 1.5711
8.9400 2.9633 1.5727
8.9600 2.9700 1.5718
8.9800 2.9767 1.5728
9.0000 2.9834 1.5732
9.0200 2.9900 1.5681
9.0400 2.9967 1.5693
9.0600 3.0033 1.5756
9.0800 3.0100 1.5668
9.1000 3.0166 1.5668
9.1200 3.0234 1.5737
9.1400 3.0301 1.5682
9.1600 3.0367 1.5643
9.1800 3.0434 1.5723
9.2000 3.0501 1.5658
9.2200 3.0567 1.5656
9.2400 3.0633 1.5687
9.2600 3.0700 1.5617
9.2800 3.0766 1.5651
9.3000 3.0834 1.5658
9.3200 3.0901 1.5592
9.3400 3.0967 1.5588
9.3600 3.1034 1.5670
9.3800 3.1101 1.5569
9.4000 3.1167 1.5587
9.4200 3.1233 1.5691
9.4400 3.1299 1.5572
9.4600 3.1366 1.5568
9.4800 3.1434 1.5656
9.5000 3.1500 1.5520
9.5200 3.1567 1.5553
9.5400 3.1634 1.5623
9.5600 3.1701 1.5532
9.5800 3.1767 1.5499
9.6000 3.1833 1.5650
9.6200 3.1899 1.5484
9.6400 3.1966 1.5520
9.6600 3.2033 1.5619
9.6800 3.2100 1.5479
9.7000 3.2167 1.5493
9.7200 3.2233 1.5582
9.7400 3.2300 1.5460
9.7600 3.2367 1.5514
9.7800 3.2433 1.5557
9.8000 3.2499 1.5477
9.8200 3.2566 1.5536
9.8400 3.2634 1.5528
9.8600 3.2701 1.5424
9.8800 3.2768 1.5504
9.9000 3.2834 1.5514
9.9200 3.2901 1.5372
9.9400 3.2967 1.5508
9.9600 3.3033 1.5494
9.9800 3.3099 1.5415
10.0000 3.3166 1.5488
10.0200 3.3234 1.5437
10.0400 3.3301 1.5366
10.0600 3.3368 1.5499
10.0800 3.3434 1.5394
10.1000 3.3501 1.5381
10.1200 3.3567 1.5446
10.1400 3.3633 1.5422
10.1600 3.3699 1.5382
10.1800 3.3766 1.5439
10.2000 3.3833 1.5368
10.2200 3.3900 1.5383
10.2400 3.3967 1.5374
10.2600 3.4034 1.5340
10.2800 3.4100 1.5385
10.3000 3.4167 1.5360
10.3200 3.4233 1.5342
10.3400 3.4299 1.5335
10.3600 3.4366 1.5385
10.3800 3.4433 1.5356
10.4000 3.4500 1.5269
10.4200 3.4567 1.5294
10.4400 3.4634 1.5368
10.4600 3.4700 1.5283
10.4800 3.4767 1.5286
10.5000 3.4833 1.5341
10.5200 3.4900 1.5276
10.5400 3.4966 1.5259
10.5600 3.5033 1.5344
10.5800 3.5100 1.5226
10.6000 3.5167 1.5254
10.6200 3.5234 1.5305
10.6400 3.5301 1.5188
10.6600 3.5368 1.5189
10.6800 3.5434 1.5324
10.7000 3.5500 1.5163
10.7200 3.5566 1.5158
10.7400 3.5633 1.5299
10.7600 3.5700 1.5153
10.7800 3.5767 1.5175
10.8000 3.5834 1.5294
10.8200 3.5901 1.5068
10.8400 3.5967 1.5127
10.8600 3.6033 1.5278
10.8800 3.6100 1.5089
10.9000 3.6166 1.5157
10.9200 3.6233 1.5238
10.9400 3.6301 1.5044
10.9600 3.6367 1.5127
10.9800 3.6434 1.5231
11.0000 3.6501 1.5044
11.0200 3.6567 1.5134
11.0400 3.6633 1.5120
11.0600 3.6699 1.5075
11.0800 3.6766 1.5129
11.1000 3.6833 1.5178
11.1200 3.6900 1.5044
11.1400 3.6967 1.5106
11.1600 3.7033 1.5087
11.1800 3.7100 1.5037
11.2000 3.7167 1.5075
11.2200 3.7233 1.5069
11.2400 3.7299 1.5066
11.2600 3.7366 1.5041
11.2800 3.7433 1.5041
11.3000 3.7500 1.5051
11.3200 3.7567 1.4991
11.3400 3.7635 1.5040
11.3600 3.7701 1.5030
11.3800 3.7768 1.4999
11.4000 3.7833 1.5041
11.4200 3.7899 1.5005
11.4400 3.7966 1.4993
11.4600 3.8034 1.4993
11.4800 3.8101 1.4998
11.5000 3.8168 1.4910
11.5200 3.8234 1.4979
11.5400 3.8301 1.4974
11.5600 3.8367 1.4925
11.5800 3.8433 1.4932
11.6000 3.8499 1.4985
11.6200 3.8566 1.4874
11.6400 3.8633 1.4953
11.6600 3.8700 1.4938
11.6800 3.8767 1.4877
11.7000 3.8834 1.4916
11.7200 3.8900 1.4906
11.7400 3.8967 1.4837
11.7600 3.9033 1.4899
11.7800 3.9099 1.4886
11.8000 3.9166 1.4872
11.8200 3.9233 1.4920
11.8400 3.9300 1.4877
11.8600 3.9367 1.4810
11.8800 3.9434 1.4878
11.9000 3.9500 1.4837
11.9200 3.9567 1.4757
11.9400 3.9633 1.4882
11.9600 3.9699 1.4885
11.9800 3.9766 1.4740
12.0000 3.9833 1.4813
12.0200 3.9901 1.4838
12.0400 3.9967 1.4730
12.0600 4.0034 1.4815
12.0800 4.0101 1.4847
12.1000 4.0168 1.4741
12.1200 4.0234 1.4782
12.1400 4.0300 1.4833
12.1600 4.0367 1.4721
12.1800 4.0433 1.4827
12.2000 4.0500 1.4772
12.2200 4.0567 1.4713
12.2400 4.0634 1.4814
12.2600 4.0701 1.4744
12.2800 4.0768 1.4643
12.3000 4.0834 1.4796
12.3200 4.0900 1.4786
12.3400 4.0966 1.4674
12.3600 4.1033 1.4724
12.3800 4.1100 1.4728
12.4000 4.1167 1.4704
12.4200 4.1234 1.4666
12.4400 4.1301 1.4687
12.4600 4.1367 1.4709
12.4800 4.1433 1.4628
12.5000 4.1499 1.4676
12.5200 4.1566 1.4776
12.5400 4.1633 1.4627
12.5600 4.1700 1.4671
12.5800 4.1767 1.4662
12.6000 4.1834 1.4593
12.6200 4.1901 1.4701
12.6400 4.1967 1.4675
12.6600 4.2034 1.4527
12.6800 4.2100 1.4714
12.7000 4.2166 1.4581
12.7200 4.2233 1.4553
12.7400 4.2300 1.4674
12.7600 4.2367 1.4600
12.7800 4.2434 1.4531
12.8000 4.2501 1.4649
12.8200 4.2568 1.4567
12.8400 4.2634 1.4500
12.8600 4.2700 1.4652
12.8800 4.2766 1.4547
12.9000 4.2833 1.4493
12.9200 4.2901 1.4615
12.9400 4.2968 1.4534
12.9600 4.3034 1.4467
12.9800 4.3101 1.4605
13.0000 4.3167 1.4510
13.0200 4.3233 1.4506
13.0400 4.3300 1.4584
13.0600 4.3366 1.4483
13.0800 4.3433 1.4471
13.1000 4.3501 1.4519
13.1200 4.3567 1.4401
13.1400 4.3634 1.4533
13.1600 4.3701 1.4498
13.1800 4.3767 1.4439
13.2000 4.3834 1.4448
13.2200 4.3900 1.4490
13.2400 4.3966 1.4432
13.2600 4.4033 1.4470
13.2800 4.4100 1.4418
13.3000 4.4167 1.4406
13.3200 4.4234 1.4442
13.3400 4.4301 1.4388
13.3600 4.4368 1.4400
13.3800 4.4434 1.4406
13.4000 4.4500 1.4393
13.4200 4.4566 1.4424
13.4400 4.4633 1.4373
13.4600 4.4700 1.4370
13.4800 4.4768 1.4410
13.5000 4.4834 1.4296
13.5200 4.4901 1.4366
13.5400 4.4968 1.4393
13.5600 4.5034 1.4310
13.5800 4.5100 1.4323
13.6000 4.5166 1.4375
13.6200 4.5233 1.4290
13.6400 4.5301 1.4346
13.6600 4.5367 1.4351
13.6800 4.5434 1.4230
13.7000 4.5501 1.4336
13.7200 4.5567 1.4341
13.7400 4.5633 1.4192
13.7600 4.5699 1.4319
13.7800 4.5765 1.4324
13.8000 4.5832 1.4209
13.8200 4.5899 1.4225
13.8400 4.5967 1.4354
13.8600 4.6034 1.4236
13.8800 4.6101 1.4196
13.9000 4.6168 1.4254
13.9200 4.6234 1.4225
13.9400 4.6300 1.4254
13.9600 4.6366 1.4225
13.9800 4.6433 1.4180
14.0000 4.6500 1.4231
14.0200 4.6567 1.4233
14.0400 4.6634 1.4132
14.0600 4.6700 1.4151
14.0800 4.6767 1.4286
14.1000 4.6833 1.4185
14.1200 4.6900 1.4083
14.1400 4.6966 1.4278
14.1600 4.7033 1.4126
14.1800 4.7100 1.4144
14.2000 4.7167 1.4200
14.2200 4.7234 1.4077
14.2400 4.7301 1.4185
14.2600 4.7368 1.4204
14.2800 4.7434 1.3992
14.3000 4.7500 1.4181
14.3200 4.7566 1.4190
14.3400 4.7633 1.3999
14.3600 4.7700 1.4127
14.3800 4.7767 1.4183
14.4000 4.7834 1.3994
14.4200 4.7901 1.4120
14.4400 4.7968 1.4119
14.4600 4.8034 1.3945
14.4800 4.8100 1.4121
14.5000 4.8166 1.4151
14.5200 4.8233 1.3986
14.5400 4.8300 1.4057
14.5600 4.8367 1.4149
14.5800 4.8433 1.3948
14.6000 4.8500 1.4068
14.6200 4.8566 1.4090
14.6400 4.8633 1.3928
14.6600 4.8699 1.3977
14.6800 4.8766 1.4103
14.7000 4.8833 1.3948
14.7200 4.8900 1.4027
14.7400 4.8967 1.4027
14.7600 4.9033 1.3910
14.7800 4.9100 1.3997
14.8000 4.9167 1.4039
14.8200 4.9234 1.3852
14.8400 4.9300 1.3971
14.8600 4.9366 1.4035
14.8800 4.9433 1.3889
14.9000 4.9500 1.3936
14.9200 4.9567 1.4020
14.9400 4.9634 1.3851
14.9600 4.9701 1.3914
14.9800 4.9768 1.3999
15.0000 4.9834 1.3832
15.0200 4.9900 1.3917
15.0400 4.9966 1.4012
15.0600 5.0033 1.3846
15.0800 5.0100 1.3898
15.1000 5.0167 1.3948
15.1200 5.0234 1.3809
15.1400 5.0301 1.3928
15.1600 5.0368 1.3874
15.1800 5.0434 1.3799
15.2000 5.0500 1.3896
15.2200 5.0566 1.3875
15.2400 5.0633 1.3758
15.2600 5.0700 1.3850
15.2800 5.0767 1.3883
15.3000 5.0834 1.3792
15.3200 5.0901 1.3789
15.3400 5.0967 1.3821
15.3600 5.1034 1.3807
15.3800 5.1100 1.3795
15.4000 5.1165 1.3714
15.4200 5.1232 1.3816
15.4400 5.1299 1.3790
15.4600 5.1366 1.3731
15.4800 5.1433 1.3744
15.5000 5.1500 1.3747
15.5200 5.1567 1.3757
15.5400 5.1634 1.3734
15.5600 5.1700 1.3692
15.5800 5.1766 1.3738
15.6000 5.1833 1.3790
15.6200 5.1900 1.3628
15.6400 5.1967 1.3675
15.6600 5.2034 1.3789
15.6800 5.2101 1.3647
15.7000 5.2168 1.3645
15.7200 5.2234 1.3726
15.7400 5.2301 1.3581
15.7600 5.2367 1.3726
15.7800 5.2434 1.3698
15.8000 5.2501 1.3559
15.8200 5.2567 1.3655
15.8400 5.2634 1.3680
15.8600 5.2701 1.3567
15.8800 5.2768 1.3669
15.9000 5.2834 1.3637
15.9200 5.2900 1.3577
15.9400 5.2966 1.3666
15.9600 5.3033 1.3621
15.9800 5.3100 1.3560
16.0000 5.3167 1.3609
16.0200 5.3234 1.3568
16.0400 5.3300 1.3563
16.0600 5.3367 1.3582
16.0800 5.3434 1.3527
16.1000 5.3500 1.3574
16.1200 5.3566 1.3559
16.1400 5.3633 1.3555
16.1600 5.3700 1.3518
16.1800 5.3767 1.3501
16.2000 5.3833 1.3547
16.2200 5.3900 1.3513
16.2400 5.3966 1.3462
16.2600 5.4033 1.3593
16.2800 5.4100 1.3456
16.3000 5.4167 1.3459
16.3200 5.4234 1.3538
16.3400 5.4301 1.3428
16.3600 5.4367 1.3455
16.3800 5.4434 1.3584
16.4000 5.4501 1.3419
16.4200 5.4568 1.3434
16.4400 5.4634 1.3496
16.4600 5.4700 1.3412
16.4800 5.4766 1.3438
16.5000 5.4833 1.3503
16.5200 5.4900 1.3366
16.5400 5.4967 1.3402
16.5600 5.5034 1.3510
16.5800 5.5101 1.3327
16.6000 5.5167 1.3354
16.6200 5.5234 1.3508
16.6400 5.5300 1.3303
16.6600 5.5366 1.3334
16.6800 5.5433 1.3491
16.7000 5.5500 1.3307
16.7200 5.5567 1.3391
16.7400 5.5634 1.3409
16.7600 5.5700 1.3290
16.7800 5.5767 1.3372
16.8000 5.5834 1.3443
16.8200 5.5900 1.3249
16.8400 5.5966 1.3345
16.8600 5.6033 1.3365
16.8800 5.6099 1.3274
16.9000 5.6166 1.3307
16.9200 5.6233 1.3370
16.9400 5.6300 1.3299
16.9600 5.6367 1.3259
16.9800 5.6434 1.3318
17.0000 5.6500 1.3312
17.0200 5.6566 1.3293
17.0400 5.6632 1.3335
17.0600 5.6699 1.3273
17.0800 5.6767 1.3221
17.1000 5.6834 1.3328
17.1200 5.6901 1.3239
17.1400 5.6968 1.3177
17.1600 5.7035 1.3288
17.1800 5.7101 1.3250
17.2000 5.7167 1.3139
17.2200 5.7233 1.3341
17.2400 5.7300 1.3182
17.2600 5.7367 1.3135
17.2800 5.7434 1.3325
17.3000 5.7501 1.3163
17.3200 5.7568 1.3149
17.3400 5.7634 1.3366
17.3600 5.7701 1.3063
17.3800 5.7767 1.3154
17.4000 5.7833 1.3325
17.4200 5.7899 1.3080
17.4400 5.7967 1.3149
17.4600 5.8034 1.3308
17.4800 5.8101 1.3076
17.5000 5.8167 1.3162
17.5200 5.8234 1.3236
17.5400 5.8300 1.3082
17.5600 5.8366 1.3160
17.5800 5.8432 1.3181
17.6000 5.8499 1.3063
17.6200 5.8567 1.3137
17.6400 5.8634 1.3174
17.6600 5.8700 1.3101
17.6800 5.8767 1.3081
17.7000 5.8834 1.3118
17.7200 5.8900 1.3165
17.7400 5.8966 1.3060
17.7600 5.9033 1.3093
17.7800 5.9100 1.3125
17.8000 5.9167 1.3081
17.8200 5.9233 1.3052
17.8400 5.9300 1.3123
17.8600 5.9367 1.3023
17.8800 5.9434 1.3102
17.9000 5.9501 1.3056
17.9200 5.9567 1.2965
17.9400 5.9633 1.3030
17.9600 5.9700 1.3143
17.9800 5.9767 1.2926
18.0000 5.9834 1.3014
18.0200 5.9901 1.3153
18.0400 5.9968 1.2916
18.0600 6.0034 1.2989
18.0800 6.0100 1.3086
18.1000 6.0166 1.2893
18.1200 6.0232 1.3007
18.1400 6.0299 1.3043
18.1600 6.0367 1.2858
18.1800 6.0434 1.2959
18.2000 6.0500 1.3044
18.2200 6.0567 1.2849
18.2400 6.0634 1.2928
18.2600 6.0700 1.3029
18.2800 6.0766 1.2814
18.3000 6.0833 1.2958
18.3200 6.0900 1.2989
18.3400 6.0967 1.2796
18.3600 6.1033 1.2913
18.3800 6.1100 1.3026
18.4000 6.1167 1.2770
18.4200 6.1234 1.2926
18.4400 6.1300 1.2977
18.4600 6.1367 1.2739
18.4800 6.1433 1.2861
18.5000 6.1500 1.2975
18.5200 6.1567 1.2725
18.5400 6.1634 1.2889
18.5600 6.1701 1.2917
18.5800 6.1768 1.2718
18.6000 6.1834 1.2850
18.6200 6.1900 1.2894
18.6400 6.1966 1.2727
18.6600 6.2032 1.2849
18.6800 6.2100 1.2860
18.7000 6.2167 1.2706
18.7200 6.2234 1.2826
18.7400 6.2301 1.2819
18.7600 6.2368 1.2699
18.7800 6.2434 1.2800
18.8000 6.2501 1.2828
18.8200 6.2567 1.2661
18.8400 6.2633 1.2809
18.8600 6.2700 1.2803
18.8800 6.2767 1.2657
18.9000 6.2834 1.2750
18.9200 6.2900 1.2776
18.9400 6.2967 1.2675
18.9600 6.3034 1.2804
18.9800 6.3100 1.2610
19.0000 6.3166 1.2689
19.0200 6.3232 1.2782
19.0400 6.3299 1.2653
19.0600 6.3366 1.2658
19.0800 6.3433 1.2691
19.1000 6.3500 1.2633
19.1200 6.3567 1.2712
19.1400 6.3634 1.2696
19.1600 6.3700 1.2579
19.1800 6.3766 1.2643
19.2000 6.3833 1.2656
19.2200 6.3900 1.2635
19.2400 6.3967 1.2682
19.2600 6.4034 1.2601
19.2800 6.4101 1.2583
19.3000 6.4168 1.2695
19.3200 6.4234 1.2543
19.3400 6.4301 1.2633
19.3600 6.4367 1.2625
19.3800 6.4433 1.2491
19.4000 6.4500 1.2655
19.4200 6.4567 1.2637
19.4400 6.4634 1.2416
19.4600 6.4700 1.2671
19.4800 6.4767 1.2549
19.5000 6.4834 1.2463
19.5200 6.4901 1.2678
19.5400 6.4967 1.2496
19.5600 6.5033 1.2438
19.5800 6.5099 1.2691
19.6000 6.5166 1.2453
19.6200 6.5234 1.2474
19.6400 6.5301 1.2647
19.6600 6.5367 1.2411
19.6800 6.5434 1.2451
19.7000 6.5500 1.2634
19.7200 6.5566 1.2415
19.7400 6.5632 1.2449
19.7600 6.5699 1.2583
19.7800 6.5766 1.2381
19.8000 6.5833 1.2462
19.8200 6.5900 1.2524
19.8400 6.5967 1.2373
19.8600 6.6033 1.2446
19.8800 6.6100 1.2455
19.9000 6.6166 1.2323
19.9200 6.6233 1.2467
19.9400 6.6299 1.2404
19.9600 6.6367 1.2379
19.9800 6.6434 1.2412
20.0000 6.6501 1.2417
20.0200 6.6568 1.2336
20.0400 6.6635 1.2367
20.0600 6.6701 1.2351
20.0800 6.6767 1.2384
20.1000 6.6833 1.2364
20.1200 6.6900 1.2325
20.1400 6.6967 1.2371
20.1600 6.7034 1.2275
20.1800 6.7101 1.2301
20.2000 6.7168 1.2354
20.2200 6.7234 1.2261
20.2400 6.7301 1.2300
20.2600 6.7367 1.2328
20.2800 6.7433 1.2261
20.3000 6.7499 1.2297
20.3200 6.7566 1.2315
20.3400 6.7634 1.2252
20.3600 6.7700 1.2238
20.3800 6.7767 1.2293
20.4000 6.7834 1.2156
20.4200 6.7900 1.2281
20.4400 6.7966 1.2275
20.4600 6.8033 1.2157
20.4800 6.8099 1.2248
20.5000 6.8166 1.2268
20.5200 6.8233 1.2165
20.5400 6.8300 1.2271
20.5600 6.8367 1.2205
20.5800 6.8434 1.2146
20.6000 6.8501 1.2177
20.6200 6.8567 1.2208
20.6400 6.8633 1.2141
20.6600 6.8700 1.2192
20.6800 6.8767 1.2155
20.7000 6.8834 1.2118
20.7200 6.8901 1.2189
20.7400 6.8968 1.2199
20.7600 6.9034 1.2074
20.7800 6.9101 1.2119
20.8000 6.9167 1.2207
20.8200 6.9233 1.2067
20.8400 6.9299 1.2131
20.8600 6.9367 1.2181
20.8800 6.9434 1.2068
20.9000 6.9501 1.2070
20.9200 6.9567 1.2218
20.9400 6.9634 1.2023
20.9600 6.9701 1.2081
20.9800 6.9767 1.2175
21.0000 6.9833 1.2042
21.0200 6.9900 1.2024
21.0400 6.9967 1.2185
21.0600 7.0034 1.1956
21.0800 7.0100 1.2062
21.1000 7.0167 1.2141
21.1200 7.0234 1.1960
21.1400 7.0301 1.2007
21.1600 7.0367 1.2151
21.1800 7.0432 1.1963
21.2000 7.0499 1.2064
21.2200 7.0566 1.2111
21.2400 7.0633 1.1887
21.2600 7.0700 1.1990
21.2800 7.0767 1.2117
21.3000 7.0834 1.1882
21.3200 7.0900 1.1944
21.3400 7.0967 1.2081
21.3600 7.1033 1.1855
21.3800 7.1099 1.1968
21.4000 7.1166 1.2060
21.4200 7.1234 1.1845
21.4400 7.1301 1.1972
21.4600 7.1367 1.2033
21.4800 7.1434 1.1785
21.5000 7.1501 1.1993
21.5200 7.1567 1.1972
21.5400 7.1633 1.1856
21.5600 7.1700 1.1946
21.5800 7.1766 1.1972
21.6000 7.1834 1.1791
21.6200 7.1901 1.1947
21.6400 7.1967 1.1905
21.6600 7.2034 1.1720
21.6800 7.2101 1.1898
21.7000 7.2167 1.1894
21.7200 7.2233 1.1788
21.7400 7.2299 1.1907
21.7600 7.2366 1.1865
21.7800 7.2434 1.1773
21.8000 7.2501 1.1849
21.8200 7.2567 1.1838
21.8400 7.2634 1.1798
21.8600 7.2701 1.1832
21.8800 7.2767 1.1789
21.9000 7.2833 1.1739
21.9200 7.2899 1.1849
21.9400 7.2966 1.1760
21.9600 7.3033 1.1777
21.9800 7.3100 1.1710
22.0000 7.3167 1.1739
22.0200 7.3234 1.1763
22.0400 7.3300 1.1691
22.0600 7.3367 1.1736
22.0800 7.3433 1.1736
22.1000 7.3499 1.1693
22.1200 7.3566 1.1735
22.1400 7.3633 1.1682
22.1600 7.3700 1.1689
22.1800 7.3767 1.1712
22.2000 7.3834 1.1713
22.2200 7.3901 1.1625
22.2400 7.3967 1.1665
22.2600 7.4033 1.1697
22.2800 7.4100 1.1637
22.3000 7.4167 1.1703
22.3200 7.4234 1.1644
22.3400 7.4301 1.1645
22.3600 7.4367 1.1620
22.3800 7.4434 1.1628
22.4000 7.4501 1.1632
22.4200 7.4567 1.1660
22.4400 7.4633 1.1604
22.4600 7.4699 1.1604
22.4800 7.4766 1.1650
22.5000 7.4833 1.1565
22.5200 7.4900 1.1565
22.5400 7.4967 1.1676
22.5600 7.5034 1.1546
22.5800 7.5101 1.1539
22.6000 7.5167 1.1632
22.6200 7.5233 1.1525
22.6400 7.5299 1.1560
22.6600 7.5366 1.1621
22.6800 7.5433 1.1466
22.7000 7.5500 1.1560
22.7200 7.5567 1.1598
22.7400 7.5634 1.1455
22.7600 7.5701 1.1515
22.7800 7.5767 1.1558
22.8000 7.5833 1.1471
22.8200 7.5899 1.1492
22.8400 7.5966 1.1563
22.8600 7.6034 1.1469
22.8800 7.6100 1.1431
22.9000 7.6167 1.1501
22.9200 7.6234 1.1497
22.9400 7.6301 1.1417
22.9600 7.6367 1.1459
22.9800 7.6433 1.1494
23.0000 7.6500 1.1444
23.0200 7.6566 1.1475
23.0400 7.6633 1.1482
23.0600 7.6701 1.1382
23.0800 7.6768 1.1439
23.1000 7.6835 1.1431
23.1200 7.6901 1.1387
23.1400 7.6967 1.1407
23.1600 7.7033 1.1495
23.1800 7.7099 1.1354
23.2000 7.7166 1.1383
23.2200 7.7233 1.1456
23.2400 7.7300 1.1363
23.2600 7.7367 1.1377
23.2800 7.7434 1.1407
23.3000 7.7501 1.1283
23.3200 7.7567 1.1358
23.3400 7.7633 1.1401
23.3600 7.7699 1.1268
23.3800 7.7766 1.1376
23.4000 7.7833 1.1360
23.4200 7.7900 1.1248
23.4400 7.7967 1.1335
23.4600 7.8033 1.1332
23.4800 7.8100 1.1270
23.5000 7.8167 1.1341
23.5200 7.8233 1.1288
23.5400 7.8299 1.1280
23.5600 7.8366 1.1283
23.5800 7.8434 1.1277
23.6000 7.8501 1.1271
23.6200 7.8567 1.1260
23.6400 7.8634 1.1212
23.6600 7.8701 1.1280
23.6800 7.8767 1.1205
23.7000 7.8833 1.1217
23.7200 7.8900 1.1258
23.7400 7.8966 1.1228
23.7600 7.9034 1.1220
23.7800 7.9101 1.1196
23.8000 7.9168 1.1156
23.8200 7.9234 1.1207
23.8400 7.9301 1.1192
23.8600 7.9367 1.1129
23.8800 7.9433 1.1234
23.9000 7.9499 1.1193
23.9200 7.9566 1.1108
23.9400 7.9634 1.1152
23.9600 7.9700 1.1146
23.9800 7.9767 1.1098
24.0000 7.9834 1.1173
24.0200 7.9901 1.1119
24.0400 7.9967 1.1079
24.0600 8.0033 1.1079
24.0800 8.0100 1.1159
24.1000 8.0166 1.1121
24.1200 8.0233 1.1060
24.1400 8.0300 1.1066
24.1600 8.0367 1.1079
24.1800 8.0434 1.1086
24.2000 8.0500 1.1057
24.2200 8.0567 1.0998
24.2400 8.0633 1.1039
24.2600 8.0699 1.1032
24.2800 8.0766 1.1026
24.3000 8.0834 1.1031
24.3200 8.0901 1.1035
24.3400 8.0968 1.0952
24.3600 8.1034 1.1047
24.3800 8.1101 1.0984
24.4000 8.1167 1.0887
24.4200 8.1233 1.1074
24.4400 8.1299 1.0968
24.4600 8.1366 1.0889
24.4800 8.1434 1.0989
24.5000 8.1501 1.0972
24.5200 8.1568 1.0872
24.5400 8.1634 1.1001
24.5600 8.1701 1.0904
24.5800 8.1767 1.0855
24.6000 8.1833 1.0995
24.6200 8.1899 1.0895
24.6400 8.1966 1.0833
24.6600 8.2033 1.0998
24.6800 8.2100 1.0862
24.7000 8.2167 1.0809
24.7200 8.2234 1.0960
24.7400 8.2301 1.0853
24.7600 8.2367 1.0754
24.7800 8.2433 1.0939
24.8000 8.2499 1.0841
24.8200 8.2566 1.0787
24.8400 8.2633 1.0914
24.8600 8.2700 1.0769
24.8800 8.2767 1.0752
24.9000 8.2834 1.0905
24.9200 8.2900 1.0783
24.9400 8.2967 1.0721
24.9600 8.3033 1.0828
24.9800 8.3100 1.0753
25.0000 8.3166 1.0798
25.0200 8.3233 1.0808
25.0400 8.3300 1.0766
25.0600 8.3367 1.0701
25.0800 8.3434 1.0809
25.1000 8.3501 1.0746
25.1200 8.3567 1.0675
25.1400 8.3634 1.0767
25.1600 8.3700 1.0765
25.1800 8.3766 1.0626
25.2000 8.3833 1.0775
25.2200 8.3900 1.0699
25.2400 8.3967 1.0638
25.2600 8.4034 1.0761
25.2800 8.4101 1.0696
25.3000 8.4168 1.0590
25.3200 8.4233 1.0758
25.3400 8.4299 1.0697
25.3600 8.4366 1.0620
25.3800 8.4433 1.0763
25.4000 8.4500 1.0637
25.4200 8.4567 1.0572
25.4400 8.4634 1.0720
25.4600 8.4701 1.0634
25.4800 8.4767 1.0529
25.5000 8.4833 1.0703
25.5200 8.4899 1.0640
25.5400 8.4966 1.0543
25.5600 8.5033 1.0672
25.5800 8.5100 1.0616
25.6000 8.5167 1.0532
25.6200 8.5233 1.0639
25.6400 8.5300 1.0561
25.6600 8.5367 1.0559
25.6800 8.5433 1.0576
25.7000 8.5499 1.0629
25.7200 8.5566 1.0550
25.7400 8.5633 1.0540
25.7600 8.5700 1.0533
25.7800 8.5767 1.0506
25.8000 8.5834 1.0560
25.8200 8.5901 1.0565
25.8400 8.5968 1.0455
25.8600 8.6034 1.0479
25.8800 8.6100 1.0565
25.9000 8.6166 1.0434
25.9200 8.6233 1.0498
25.9400 8.6301 1.0565
25.9600 8.6368 1.0435
25.9800 8.6434 1.0476
26.0000 8.6501 1.0503
26.0200 8.6568 1.0399
26.0400 8.6634 1.0449
26.0600 8.6700 1.0515
26.0800 8.6766 1.0429
26.1000 8.6833 1.0412
26.1200 8.6900 1.0464
26.1400 8.6967 1.0386
26.1600 8.7034 1.0427
26.1800 8.7100 1.0462
26.2000 8.7167 1.0370
26.2200 8.7233 1.0294
26.2400 8.7299 1.0454
26.2600 8.7366 1.0404
26.2800 8.7433 1.0388
26.3000 8.7500 1.0344
26.3200 8.7567 1.0349
26.3400 8.7633 1.0314
26.3600 8.7700 1.0389
26.3800 8.7767 1.0370
26.4000 8.7833 1.0289
26.4200 8.7899 1.0394
26.4400 8.7966 1.0288
26.4600 8.8033 1.0256
26.4800 8.8101 1.0371
26.5000 8.8168 1.0235
26.5200 8.8234 1.0258
26.5400 8.8301 1.0384
26.5600 8.8368 1.0171
26.5800 8.8434 1.0215
26.6000 8.8500 1.0349
26.6200 8.8567 1.0233
26.6400 8.8633 1.0167
26.6600 8.8700 1.0312
26.6800 8.8767 1.0182
26.7000 8.8834 1.0163
26.7200 8.8901 1.0241
26.7400 8.8968 1.0180
26.7600 8.9034 1.0131
26.7800 8.9100 1.0240
26.8000 8.9166 1.0195
26.8200 8.9233 1.0158
26.8400 8.9300 1.0188
26.8600 8.9367 1.0095
26.8800 8.9434 1.0141
26.9000 8.9501 1.0221
26.9200 8.9567 1.0096
26.9400 8.9633 1.0071
26.9600 8.9699 1.0264
26.9800 8.9766 1.0099
27.0000 8.9833 1.0031
27.0200 8.9900 1.0193
27.0400 8.9967 1.0038
27.0600 9.0033 1.0041
27.0800 9.0100 1.0217
27.1000 9.0167 1.0024
27.1200 9.0234 1.0034
27.1400 9.0300 1.0132
27.1600 9.0366 1.0030
27.1800 9.0433 0.9991
27.2000 9.0500 1.0134
27.2200 9.0567 0.9957
27.2400 9.0634 0.9998
27.2600 9.0701 1.0075
27.2800 9.0768 0.9988
27.3000 9.0834 0.9969
27.3200 9.0900 1.0017
27.3400 9.0966 1.0002
27.3600 9.1033 0.9955
27.3800 9.1100 1.0000
27.4000 9.1167 0.9986
27.4200 9.1234 0.9929
27.4400 9.1301 0.9981
27.4600 9.1367 0.9973
27.4800 9.1434 0.9893
27.5000 9.1500 0.9950
27.5200 9.1566 0.9990
27.5400 9.1633 0.9858
27.5600 9.1700 0.9929
27.5800 9.1767 0.9975
27.6000 9.1834 0.9843
27.6200 9.1901 0.9925
27.6400 9.1967 0.9928
27.6600 9.2034 0.9832
27.6800 9.2100 0.9929
27.7000 9.2166 0.9906
27.7200 9.2233 0.9751
27.7400 9.2300 0.9907
27.7600 9.2367 0.9885
27.7800 9.2434 0.9800
27.8000 9.2500 0.9897
27.8200 9.2567 0.9847
27.8400 9.2634 0.9762
27.8600 9.2700 0.9882
27.8800 9.2766 0.9845
27.9000 9.2833 0.9771
27.9200 9.2900 0.9805
27.9400 9.2967 0.9794
27.9600 9.3034 0.9730
27.9800 9.3101 0.9792
28.0000 9.3168 0.9780
28.0200 9.3234 0.9677
28.0400 9.3300 0.9794
28.0600 9.3366 0.9772
28.0800 9.3433 0.9667
28.1000 9.3500 0.9759
28.1200 9.3567 0.9761
28.1400 9.3634 0.9682
28.1600 9.3701 0.9729
28.1800 9.3767 0.9717
28.2000 9.3834 0.9648
28.2200 9.3900 0.9672
28.2400 9.3966 0.9757
28.2600 9.4033 0.9588
28.2800 9.4100 0.9678
28.3000 9.4167 0.9770
28.3200 9.4234 0.9601
28.3400 9.4300 0.9605
28.3600 9.4367 0.9749
28.3800 9.4434 0.9504
28.4000 9.4500 0.9605
28.4200 9.4566 0.9714
28.4400 9.4633 0.9493
28.4600 9.4700 0.9619
28.4800 9.4767 0.9715
28.5000 9.4834 0.9466
28.5200 9.4900 0.9603
28.5400 9.4967 0.9681
28.5600 9.5034 0.9448
28.5800 9.5100 0.9568
28.6000 9.5166 0.9664
28.6200 9.5233 0.9430
28.6400 9.5300 0.9546
28.6600 9.5367 0.9585
28.6800 9.5434 0.9400
28.7000 9.5501 0.9611
28.7200 9.5568 0.9527
28.7400 9.5634 0.9406
28.7600 9.5700 0.9567
28.7800 9.5766 0.9565
28.8000 9.5833 0.9399
28.8200 9.5900 0.9534
28.8400 9.5967 0.9506
28.8600 9.6034 0.9412
28.8800 9.6101 0.9489
28.9000 9.6168 0.9459
28.9200 9.6234 0.9428
28.9400 9.6300 0.9480
28.9600 9.6366 0.9435
28.9800 9.6433 0.9398
29.0000 9.6500 0.9429
29.0200 9.6567 0.9438
29.0400 9.6634 0.9410
29.0600 9.6700 0.9403
29.0800 9.6767 0.9394
29.1000 9.6834 0.9394
29.1200 9.6900 0.9368
29.1400 9.6966 0.9410
29.1600 9.7033 0.9422
29.1800 9.7100 0.9289
29.2000 9.7167 0.9401
29.2200 9.7233 0.9366
29.2400 9.7300 0.9307
29.2600 9.7367 0.9406
29.2800 9.7434 0.9304
29.3000 9.7500 0.9205
29.3200 9.7567 0.9440
29.3400 9.7633 0.9314
29.3600 9.7700 0.9252
29.3800 9.7767 0.9386
29.4000 9.7834 0.9295
29.4200 9.7901 0.9249
29.4400 9.7968 0.9384
29.4600 9.8034 0.9231
29.4800 9.8100 0.9223
29.5000 9.8166 0.9324
29.5200 9.8233 0.9251
29.5400 9.8300 0.9243
29.5600 9.8367 0.9273
29.5800 9.8434 0.9201
29.6000 9.8501 0.9239
29.6200 9.8567 0.9260
29.6400 9.8634 0.9192
29.6600 9.8700 0.9252
29.6800 9.8766 0.9189
29.7000 9.8833 0.9174
29.7200 9.8900 0.9178
29.7400 9.8967 0.9214
29.7600 9.9034 0.9232
29.7800 9.9100 0.9146
29.8000 9.9167 0.9152
29.8200 9.9234 0.9227
29.8400 9.9300 0.9082
29.8600 9.9366 0.9198
29.8800 9.9432 0.9189
29.9000 9.9499 0.9075
29.9200 9.9566 0.9125
29.9400 9.9633 0.9155
29.9600 9.9700 0.9067
29.9800 9.9767 0.9098
30.0000 9.9833 0.9103
30.0200 9.9900 0.9009
30.0400 9.9966 0.9089
30.0600 10.0033 0.9101
30.0800 10.0100 0.9036
30.1000 10.0167 0.9047
30.1200 10.0234 0.9030
30.1400 10.0301 0.9005
30.1600 10.0368 0.9049
30.1800 10.0434 0.8983
30.2000 10.0501 0.8983
30.2200 10.0567 0.8995
30.2400 10.0633 0.9015
30.2600 10.0700 0.8971
30.2800 10.0767 0.8954
30.3000 10.0834 0.8993
30.3200 10.0901 0.9013
30.3400 10.0968 0.8875
30.3600 10.1034 0.8965
30.3800 10.1100 0.8911
30.4000 10.1166 0.8909
30.4200 10.1232 0.8961
30.4400 10.1299 0.8893
30.4600 10.1367 0.8839
30.4800 10.1433 0.8971
30.5000 10.1500 0.8881
30.5200 10.1567 0.8822
30.5400 10.1634 0.8950
30.5600 10.1700 0.8825
30.5800 10.1766 0.8789
30.6000 10.1833 0.8975
30.6200 10.1900 0.8758
30.6400 10.1967 0.8777
30.6600 10.2034 0.8928
30.6800 10.2100 0.8750
30.7000 10.2167 0.8812
30.7200 10.2234 0.8842
30.7400 10.2300 0.8680
30.7600 10.2366 0.8818
30.7800 10.2433 0.8842
30.8000 10.2500 0.8643
30.8200 10.2567 0.8840
30.8400 10.2634 0.8792
30.8600 10.2701 0.8662
30.8800 10.2768 0.8747
30.9000 10.2834 0.8794
30.9200 10.2901 0.8629
30.9400 10.2966 0.8756
30.9600 10.3033 0.8747
30.9800 10.3100 0.8698
31.0000 10.3167 0.8724
31.0200 10.3234 0.8697
31.0400 10.3301 0.8672
31.0600 10.3367 0.8646
31.0800 10.3434 0.8682
31.1000 10.3500 0.8671
31.1200 10.3566 0.8595
31.1400 10.3632 0.8689
31.1600 10.3700 0.8689
31.1800 10.3767 0.8566
31.2000 10.3834 0.8621
31.2200 10.3900 0.8651
31.2400 10.3967 0.8575
31.2600 10.4034 0.8595
31.2800 10.4100 0.8647
31.3000 10.4166 0.8524
31.3200 10.4233 0.8604
31.3400 10.4300 0.8605
31.3600 10.4367 0.8512
31.3800 10.4433 0.8618
31.4000 10.4500 0.8590
31.4200 10.4567 0.8410
31.4400 10.4634 0.8585
31.4600 10.4701 0.8542
31.4800 10.4766 0.8496
31.5000 10.4833 0.8592
31.5200 10.4900 0.8512
31.5400 10.4967 0.8431
31.5600 10.5034 0.8584
31.5800 10.5101 0.8494
31.6000 10.5168 0.8430
31.6200 10.5234 0.8591
31.6400 10.5301 0.8437
31.6600 10.5367 0.8403
31.6800 10.5433 0.8584
31.7000 10.5500 0.8407
31.7200 10.5567 0.8389
31.7400 10.5634 0.8522
31.7600 10.5701 0.8361
31.7800 10.5768 0.8437
31.8000 10.5834 0.8442
31.8200 10.5901 0.8354
31.8400 10.5967 0.8447
31.8600 10.6033 0.8415
31.8800 10.6100 0.8313
31.9000 10.6167 0.8438
31.9200 10.6234 0.8362
31.9400 10.6300 0.8353
31.9600 10.6367 0.8377
31.9800 10.6434 0.8355
32.0000 10.6500 0.8277
32.0200 10.6566 0.8362
32.0400 10.6632 0.8363
32.0600 10.6699 0.8319
32.0800 10.6767 0.8292
32.1000 10.6834 0.8279
32.1200 10.6901 0.8303
32.1400 10.6967 0.8270
32.1600 10.7034 0.8290
32.1800 10.7100 0.8255
32.2000 10.7166 0.8246
32.2200 10.7233 0.8272
32.2400 10.7300 0.8270
32.2600 10.7367 0.8188
32.2800 10.7434 0.8240
32.3000 10.7501 0.8251
32.3200 10.7568 0.8177
32.3400 10.7635 0.8241
32.3600 10.7701 0.8206
32.3800 10.7767 0.8118
32.4000 10.7833 0.8289
32.4200 10.7900 0.8124
32.4400 10.7967 0.8144
32.4600 10.8034 0.8230
32.4800 10.8101 0.8113
32.5000 10.8167 0.8101
32.5200 10.8234 0.8216
32.5400 10.8300 0.8091
32.5600 10.8366 0.8100
32.5800 10.8433 0.8212
32.6000 10.8500 0.8066
32.6200 10.8567 0.8107
32.6400 10.8634 0.8165
32.6600 10.8700 0.8032
32.6800 10.8767 0.8077
32.7000 10.8834 0.8093
32.7200 10.8900 0.8026
32.7400 10.8966 0.8101
32.7600 10.9033 0.8079
32.7800 10.9099 0.7996
32.8000 10.9167 0.8062
32.8200 10.9233 0.8067
32.8400 10.9300 0.7916
32.8600 10.9367 0.8109
32.8800 10.9434 0.7936
32.9000 10.9501 0.7946
32.9200 10.9567 0.8095
32.9400 10.9633 0.7930
32.9600 10.9700 0.7983
32.9800 10.9767 0.8054
33.0000 10.9834 0.7857
33.0200 10.9900 0.8023
33.0400 10.9967 0.8023
33.0600 11.0034 0.7806
33.0800 11.0101 0.7941
33.1000 11.0167 0.8003
33.1200 11.0233 0.7824
33.1400 11.0300 0.7971
33.1600 11.0367 0.7908
33.1800 11.0434 0.7803
33.2000 11.0501 0.7990
33.2200 11.0568 0.7857
33.2400 11.0634 0.7789
33.2600 11.0701 0.7959
33.2800 11.0767 0.7843
33.3000 11.0833 0.7791
33.3200 11.0900 0.7926
33.3400 11.0967 0.7801
33.3600 11.1034 0.7801
33.3800 11.1100 0.7865
33.4000 11.1167 0.7780
33.4200 11.1234 0.7749
33.4400 11.1300 0.7884
33.4600 11.1367 0.7708
33.4800 11.1433 0.7773
33.5000 11.1499 0.7829
33.5200 11.1566 0.7728
33.5400 11.1633 0.7745
33.5600 11.1700 0.7824
33.5800 11.1767 0.7659
33.6000 11.1834 0.7749
33.6200 11.1900 0.7793
33.6400 11.1967 0.7684
33.6600 11.2033 0.7759
33.6800 11.2100 0.7723
33.7000 11.2167 0.7647
33.7200 11.2234 0.7670
33.7400 11.2301 0.7747
33.7600 11.2368 0.7650
33.7800 11.2434 0.7654
33.8000 11.2501 0.7696
33.8200 11.2567 0.7632
33.8400 11.2633 0.7647
33.8600 11.2700 0.7733
33.8800 11.2767 0.7589
33.9000 11.2834 0.7638
33.9200 11.2901 0.7712
33.9400 11.2967 0.7603
33.9600 11.3034 0.7595
33.9800 11.3101 0.7701
34.0000 11.3167 0.7526
34.0200 11.3233 0.7592
34.0400 11.3299 0.7659
34.0600 11.3366 0.7562
34.0800 11.3433 0.7548
34.1000 11.3500 0.7618
34.1200 11.3567 0.7526
34.1400 11.3634 0.7542
34.1600 11.3701 0.7556
34.1800 11.3767 0.7513
34.2000 11.3832 0.7523
34.2200 11.3899 0.7584
34.2400 11.3966 0.7511
34.2600 11.4033 0.7442
34.2800 11.4100 0.7540
34.3000 11.4167 0.7486
34.3200 11.4234 0.7458
34.3400 11.4300 0.7482
34.3600 11.4366 0.7516
34.3800 11.4433 0.7417
34.4000 11.4500 0.7464
34.4200 11.4567 0.7477
34.4400 11.4634 0.7434
34.4600 11.4701 0.7415
34.4800 11.4768 0.7471
34.5000 11.4835 0.7366
34.5200 11.4901 0.7374
34.5400 11.4967 0.7447
34.5600 11.5033 0.7366
34.5800 11.5100 0.7350
34.6000 11.5167 0.7437
34.6200 11.5234 0.7340
34.6400 11.5301 0.7377
34.6600 11.5368 0.7396
34.6800 11.5434 0.7275
34.7000 11.5501 0.7343
34.7200 11.5567 0.7377
34.7400 11.5633 0.7261
34.7600 11.5699 0.7332
34.7800 11.5767 0.7389
34.8000 11.5834 0.7188
34.8200 11.5900 0.7329
34.8400 11.5967 0.7295
34.8600 11.6034 0.7204
34.8800 11.6100 0.7333
34.9000 11.6167 0.7233
34.9200 11.6233 0.7189
34.9400 11.6299 0.7312
34.9600 11.6366 0.7198
34.9800 11.6433 0.7145
35.0000 11.6500 0.7268
35.0200 11.6567 0.7233
35.0400 11.6634 0.7119
35.0600 11.6701 0.7216
35.0800 11.6767 0.7153
35.1000 11.6833 0.7170
35.1200 11.6900 0.7223
35.1400 11.6967 0.7110
35.1600 11.7034 0.7131
35.1800 11.7100 0.7193
35.2000 11.7167 0.7066
35.2200 11.7234 0.7063
35.2400 11.7301 0.7155
35.2600 11.7367 0.7090
35.2800 11.7433 0.7133
35.3000 11.7499 0.7072
35.3200 11.7567 0.7117
35.3400 11.7634 0.7124
35.3600 11.7701 0.7026
35.3800 11.7767 0.7069
35.4000 11.7834 0.7105
35.4200 11.7901 0.7001
35.4400 11.7967 0.7057
35.4600 11.8033 0.7067
35.4800 11.8100 0.7019
35.5000 11.8167 0.7042
35.5200 11.8233 0.7080
35.5400 11.8300 0.6906
35.5600 11.8367 0.7091
35.5800 11.8434 0.7027
35.6000 11.8501 0.6907
35.6200 11.8567 0.7077
35.6400 11.8633 0.6963
35.6600 11.8699 0.6916
35.6800 11.8766 0.7082
35.7000 11.8833 0.6910
35.7200 11.8900 0.6886
35.7400 11.8967 0.7104
35.7600 11.9034 0.6871
35.7800 11.9100 0.6896
35.8000 11.9167 0.7106
35.8200 11.9233 0.6885
35.8400 11.9299 0.6868
35.8600 11.9366 0.7042
35.8800 11.9433 0.6817
35.9000 11.9500 0.6887
35.9200 11.9567 0.7012
35.9400 11.9634 0.6824
35.9600 11.9701 0.6906
35.9800 11.9767 0.6999
36.0000 11.9833 0.6776
36.0200 11.9900 0.6905
36.0400 11.9966 0.6976
36.0600 12.0033 0.6771
36.0800 12.0100 0.6878
36.1000 12.0167 0.6967
36.1200 12.0234 0.6770
36.1400 12.0301 0.6857
36.1600 12.0367 0.6895
36.1800 12.0433 0.6729
36.2000 12.0499 0.6869
36.2200 12.0566 0.6866
36.2400 12.0634 0.6685
36.2600 12.0701 0.6813
36.2800 12.0767 0.6868
36.3000 12.0834 0.6703
36.3200 12.0901 0.6784
36.3400 12.0967 0.6758
36.3600 12.1033 0.6734
36.3800 12.1099 0.6804
36.4000 12.1166 0.6803
36.4200 12.1233 0.6717
36.4400 12.1300 0.6706
36.4600 12.1367 0.6766
36.4800 12.1434 0.6733
36.5000 12.1500 0.6656
36.5200 12.1567 0.6764
36.5400 12.1633 0.6678
36.5600 12.1699 0.6667
36.5800 12.1766 0.6717
36.6000 12.1833 0.6715
36.6200 12.1901 0.6582
36.6400 12.1968 0.6685
36.6600 12.2035 0.6689
36.6800 12.2101 0.6564
36.7000 12.2167 0.6657
36.7200 12.2233 0.6648
36.7400 12.2300 0.6523
36.7600 12.2367 0.6660
36.7800 12.2434 0.6588
36.8000 12.2501 0.6547
36.8200 12.2568 0.6633
36.8400 12.2634 0.6509
36.8600 12.2701 0.6488
36.8800 12.2767 0.6584
36.9000 12.2833 0.6514
36.9200 12.2899 0.6453
36.9400 12.2966 0.6553
36.9600 12.3033 0.6449
36.9800 12.3100 0.6525
37.0000 12.3167 0.6458
37.0200 12.3234 0.6440
37.0400 12.3301 0.6493
37.0600 12.3367 0.6465
37.0800 12.3433 0.6421
37.1000 12.3499 0.6496
37.1200 12.3566 0.6380
37.1400 12.3633 0.6392
37.1600 12.3700 0.6464
37.1800 12.3767 0.6365
37.2000 12.3834 0.6354
37.2200 12.3901 0.6451
37.2400 12.3967 0.6300
37.2600 12.4033 0.6308
37.2800 12.4099 0.6427
37.3000 12.4166 0.6321
37.3200 12.4233 0.6349
37.3400 12.4300 0.6303
37.3600 12.4367 0.6297
37.3800 12.4434 0.6317
37.4000 12.4501 0.6319
37.4200 12.4567 0.6236
37.4400 12.4634 0.6306
37.4600 12.4700 0.6269
37.4800 12.4767 0.6228
37.5000 12.4834 0.6271
37.5200 12.4900 0.6278
37.5400 12.4967 0.6159
37.5600 12.5034 0.6244
37.5800 12.5101 0.6291
37.6000 12.5168 0.6155
37.6200 12.5234 0.6249
37.6400 12.5300 0.6275
37.6600 12.5366 0.6084
37.6800 12.5433 0.6238
37.7000 12.5500 0.6185
37.7200 12.5567 0.6174
37.7400 12.5634 0.6225
37.7600 12.5701 0.6117
37.7800 12.5767 0.6164
37.8000 12.5833 0.6249
37.8200 12.5899 0.6070
37.8400 12.5966 0.6079
37.8600 12.6033 0.6269
37.8800 12.6100 0.6070
37.9000 12.6167 0.6098
37.9200 12.6233 0.6209
37.9400 12.6300 0.6060
37.9600 12.6367 0.6059
37.9800 12.6433 0.6180
38.0000 12.6500 0.6068
38.0200 12.6566 0.6100
38.0400 12.6633 0.6079
38.0600 12.6700 0.6020
38.0800 12.6767 0.6105
38.1000 12.6834 0.6141
38.1200 12.6901 0.5970
38.1400 12.6968 0.6062
38.1600 12.7034 0.6077
38.1800 12.7099 0.6004
38.2000 12.7166 0.6062
38.2200 12.7233 0.6102
38.2400 12.7300 0.5988
38.2600 12.7368 0.5998
38.2800 12.7434 0.6033
38.3000 12.7501 0.5962
38.3200 12.7567 0.6023
38.3400 12.7633 0.6026
38.3600 12.7699 0.5984
38.3800 12.7766 0.5956
38.4000 12.7833 0.5982
38.4200 12.7900 0.5966
38.4400 12.7967 0.5950
38.4600 12.8034 0.6007
38.4800 12.8101 0.5932
38.5000 12.8167 0.5833
38.5200 12.8233 0.5999
38.5400 12.8300 0.5935
38.5600 12.8366 0.5885
38.5800 12.8433 0.5928
38.6000 12.8500 0.5832
38.6200 12.8567 0.5854
38.6400 12.8633 0.5930
38.6600 12.8700 0.5788
38.6800 12.8767 0.5873
38.7000 12.8833 0.5861
38.7200 12.8899 0.5752
38.7400 12.8966 0.5793
38.7600 12.9033 0.5872
38.7800 12.9101 0.5781
38.8000 12.9168 0.5793
38.8200 12.9234 0.5777
38.8400 12.9301 0.5710
38.8600 12.9367 0.5804
38.8800 12.9433 0.5785
38.9000 12.9499 0.5713
38.9200 12.9566 0.5711
38.9400 12.9634 0.5727
38.9600 12.9701 0.5669
38.9800 12.9767 0.5690
39.0000 12.9834 0.5716
39.0200 12.9901 0.5698
39.0400 12.9967 0.5587
39.0600 13.0034 0.5702
39.0800 13.0100 0.5629
39.1000 13.0166 0.5647
39.1200 13.0233 0.5599
39.1400 13.0300 0.5586
39.1600 13.0367 0.5615
39.1800 13.0433 0.5625
39.2000 13.0500 0.5565
39.2200 13.0567 0.5488
39.2400 13.0633 0.5584
39.2600 13.0699 0.5614
39.2800 13.0766 0.5493
39.3000 13.0833 0.5558
39.3200 13.0900 0.5525
39.3400 13.0967 0.5498
39.3600 13.1034 0.5552
39.3800 13.1101 0.5482
39.4000 13.1167 0.5426
39.4200 13.1233 0.5492
39.4400 13.1300 0.5492
39.4600 13.1366 0.5403
39.4800 13.1434 0.5509
39.5000 13.1501 0.5453
39.5200 13.1567 0.5421
39.5400 13.1634 0.5476
39.5600 13.1701 0.5450
39.5800 13.1767 0.5372
39.6000 13.1834 0.5461
39.6200 13.1900 0.5405
39.6400 13.1966 0.5374
39.6600 13.2033 0.5421
39.6800 13.2100 0.5389
39.7000 13.2167 0.5320
39.7200 13.2234 0.5436
39.7400 13.2301 0.5324
39.7600 13.2367 0.5289
39.7800 13.2434 0.5414
39.8000 13.2500 0.5343
39.8200 13.2566 0.5270
39.8400 13.2633 0.5369
39.8600 13.2700 0.5319
39.8800 13.2768 0.5254
39.9000 13.2834 0.5365
39.9200 13.2901 0.5291
39.9400 13.2968 0.5265
39.9600 13.3034 0.5337
39.9800 13.3099 0.5253
40.0000 13.3166 0.5201
40.0200 13.3233 0.5334
40.0400 13.3300 0.5213
40.0600 13.3367 0.5191
40.0800 13.3433 0.5310
40.1000 13.3500 0.5202
40.1200 13.3567 0.5135
40.1400 13.3633 0.5301
40.1600 13.3699 0.5196
40.1800 13.3766 0.5135
40.2000 13.3833 0.5243
40.2200 13.3900 0.5185
40.2400 13.3967 0.5109
40.2600 13.4034 0.5215
40.2800 13.4101 0.5184
40.3000 13.4168 0.5109
40.3200 13.4234 0.5164
40.3400 13.4300 0.5114
40.3600 13.4366 0.5107
40.3800 13.4433 0.5194
40.4000 13.4500 0.5086
40.4200 13.4568 0.5042
40.4400 13.4634 0.5193
40.4600 13.4701 0.5079
40.4800 13.4767 0.5052
40.5000 13.4834 0.5080
40.5200 13.4900 0.5072
40.5400 13.4966 0.5051
40.5600 13.5033 0.5068
40.5800 13.5100 0.4951
40.6000 13.5166 0.5046
40.6200 13.5233 0.5069
40.6400 13.5300 0.4997
40.6600 13.5367 0.4999
40.6800 13.5434 0.4980
40.7000 13.5500 0.4980
40.7200 13.5566 0.5037
40.7400 13.5633 0.5001
40.7600 13.5700 0.4960
40.7800 13.5767 0.4989
40.8000 13.5833 0.4962
40.8200 13.5900 0.4892
40.8400 13.5967 0.4993
40.8600 13.6033 0.4904
40.8800 13.6099 0.4889
40.9000 13.6166 0.4945
40.9200 13.6233 0.4919
40.9400 13.6300 0.4878
40.9600 13.6367 0.4904
40.9800 13.6434 0.4873
41.0000 13.6501 0.4810
41.0200 13.6567 0.4914
41.0400 13.6634 0.4788
41.0600 13.6700 0.4870
41.0800 13.6767 0.4896
41.1000 13.6833 0.4761
41.1200 13.6900 0.4806
41.1400 13.6967 0.4845
41.1600 13.7034 0.4714
41.1800 13.7101 0.4835
41.2000 13.7168 0.4758
41.2200 13.7234 0.4708
41.2400 13.7300 0.4848
41.2600 13.7366 0.4793
41.2800 13.7433 0.4622
41.3000 13.7500 0.4795
41.3200 13.7567 0.4738
41.3400 13.7634 0.4631
41.3600 13.7701 0.4796
41.3800 13.7767 0.4700
41.4000 13.7833 0.4619
41.4200 13.7899 0.4748
41.4400 13.7965 0.4663
41.4600 13.8032 0.4618
41.4800 13.8100 0.4710
41.5000 13.8167 0.4592
41.5200 13.8234 0.4588
41.5400 13.8301 0.4660
41.5600 13.8368 0.4606
41.5800 13.8434 0.4519
41.6000 13.8500 0.4627
41.6200 13.8566 0.4558
41.6400 13.8633 0.4551
41.6600 13.8700 0.4585
41.6800 13.8767 0.4583
41.7000 13.8834 0.4476
41.7200 13.8901 0.4588
41.7400 13.8968 0.4569
41.7600 13.9034 0.4435
41.7800 13.9100 0.4559
41.8000 13.9166 0.4523
41.8200 13.9233 0.4394
41.8400 13.9300 0.4574
41.8600 13.9367 0.4504
41.8800 13.9434 0.4386
41.9000 13.9501 0.4531
41.9200 13.9568 0.4421
41.9400 13.9634 0.4365
41.9600 13.9700 0.4520
41.9800 13.9766 0.4419
42.0000 13.9833 0.4353
42.0200 13.9900 0.4482
42.0400 13.9967 0.4384
42.0600 14.0034 0.4351
42.0800 14.0101 0.4447
42.1000 14.0167 0.4377
42.1200 14.0234 0.4355
42.1400 14.0300 0.4459
42.1600 14.0366 0.4267
42.1800 14.0432 0.4336
42.2000 14.0499 0.4377
42.2200 14.0566 0.4289
42.2400 14.0633 0.4281
42.2600 14.0700 0.4339
42.2800 14.0767 0.4252
42.3000 14.0834 0.4274
42.3200 14.0900 0.4330
42.3400 14.0966 0.4282
42.3600 14.1033 0.4248
42.3800 14.1100 0.4240
42.4000 14.1167 0.4247
42.4200 14.1234 0.4233
42.4400 14.1301 0.4263
42.4600 14.1368 0.4212
42.4800 14.1434 0.4174
42.5000 14.1500 0.4209
42.5200 14.1566 0.4252
42.5400 14.1633 0.4152
42.5600 14.1700 0.4186
42.5800 14.1767 0.4192
42.6000 14.1834 0.4149
42.6200 14.1901 0.4060
42.6400 14.1968 0.4207
42.6600 14.2034 0.4100
42.6800 14.2100 0.4094
42.7000 14.2166 0.4149
42.7200 14.2233 0.3999
42.7400 14.2300 0.4079
42.7600 14.2367 0.4198
42.7800 14.2434 0.3974
42.8000 14.2501 0.4005
42.8200 14.2567 0.4123
42.8400 14.2634 0.3994
42.8600 14.2700 0.3971
42.8800 14.2766 0.4075
42.9000 14.2832 0.3913
42.9200 14.2900 0.4010
42.9400 14.2967 0.4083
42.9600 14.3034 0.3840
42.9800 14.3100 0.3981
43.0000 14.3167 0.4055
43.0200 14.3233 0.3867
43.0400 14.3300 0.3888
43.0600 14.3366 0.3950
43.0800 14.3433 0.3886
43.1000 14.3500 0.3970
43.1200 14.3567 0.3805
43.1400 14.3634 0.3832
43.1600 14.3701 0.3987
43.1800 14.3768 0.3859
43.2000 14.3834 0.3733
43.2200 14.3900 0.3921
43.2400 14.3966 0.3816
43.2600 14.4033 0.3828
43.2800 14.4100 0.3859
43.3000 14.4167 0.3726
43.3200 14.4234 0.3828
43.3400 14.4301 0.3854
43.3600 14.4368 0.3683
43.3800 14.4434 0.3772
43.4000 14.4500 0.3776
43.4200 14.4566 0.3667
43.4400 14.4633 0.3776
43.4600 14.4700 0.3710
43.4800 14.4767 0.3676
43.5000 14.4833 0.3766
43.5200 14.4900 0.3647
43.5400 14.4967 0.3702
43.5600 14.5034 0.3749
43.5800 14.5100 0.3535
43.6000 14.5166 0.3676
43.6200 14.5233 0.3691
43.6400 14.5300 0.3553
43.6600 14.5366 0.3638
43.6800 14.5433 0.3632
43.7000 14.5500 0.3514
43.7200 14.5567 0.3683
43.7400 14.5634 0.3579
43.7600 14.5700 0.3494
43.7800 14.5766 0.3612
43.8000 14.5833 0.3502
43.8200 14.5899 0.3500
43.8400 14.5966 0.3607
43.8600 14.6033 0.3488
43.8800 14.6100 0.3461
43.9000 14.6168 0.3519
43.9200 14.6234 0.3452
43.9400 14.6300 0.3470
43.9600 14.6366 0.3464
43.9800 14.6433 0.3446
44.0000 14.6500 0.3417
44.0200 14.6567 0.3424
44.0400 14.6634 0.3397
44.0600 14.6701 0.3462
44.0800 14.6767 0.3354
44.1000 14.6834 0.3419
44.1200 14.6900 0.3399
44.1400 14.6966 0.3341
44.1600 14.7033 0.3372
44.1800 14.7100 0.3426
44.2000 14.7167 0.3274
44.2200 14.7233 0.3348
44.2400 14.7300 0.3398
44.2600 14.7367 0.3292
44.2800 14.7434 0.3303
44.3000 14.7500 0.3329
44.3200 14.7566 0.3289
44.3400 14.7632 0.3287
44.3600 14.7699 0.3211
44.3800 14.7766 0.3272
44.4000 14.7833 0.3266
44.4200 14.7900 0.3180
44.4400 14.7967 0.3248
44.4600 14.8033 0.3229
44.4800 14.8100 0.3177
44.5000 14.8166 0.3238
44.5200 14.8233 0.3239
44.5400 14.8300 0.3109
44.5600 14.8367 0.3257
44.5800 14.8434 0.3122
44.6000 14.8501 0.3087
44.6200 14.8567 0.3243
44.6400 14.8634 0.3088
44.6600 14.8700 0.3102
44.6800 14.8766 0.3212
44.7000 14.8833 0.3052
44.7200 14.8900 0.3117
44.7400 14.8968 0.3147
44.7600 14.9034 0.3010
44.7800 14.9101 0.3084
44.8000 14.9168 0.3148
44.8200 14.9234 0.2953
44.8400 14.9301 0.3078
44.8600 14.9366 0.3123
44.8800 14.9433 0.2979
44.9000 14.9499 0.3119
44.9200 14.9566 0.3003
44.9400 14.9633 0.2964
44.9600 14.9700 0.3074
44.9800 14.9767 0.2980
45.0000 14.9834 0.2933
45.0200 14.9900 0.3014
45.0400 14.9966 0.2967
45.0600 15.0033 0.2968
45.0800 15.0100 0.2959
45.1000 15.0167 0.2917
45.1200 15.0234 0.2967
45.1400 15.0300 0.2967
45.1600 15.0367 0.2841
45.1800 15.0434 0.2975
45.2000 15.0500 0.2902
45.2200 15.0567 0.2834
45.2400 15.0633 0.2968
45.2600 15.0700 0.2865
45.2800 15.0767 0.2795
45.3000 15.0834 0.2904
45.3200 15.0901 0.2831
45.3400 15.0968 0.2780
45.3600 15.1035 0.2866
45.3800 15.1101 0.2829
45.4000 15.1167 0.2758
45.4200 15.1233 0.2865
45.4400 15.1299 0.2815
45.4600 15.1367 0.2708
45.4800 15.1434 0.2811
45.5000 15.1501 0.2729
45.5200 15.1568 0.2732
45.5400 15.1634 0.2760
45.5600 15.1701 0.2769
45.5800 15.1767 0.2662
45.6000 15.1833 0.2725
45.6200 15.1900 0.2724
45.6400 15.1967 0.2687
45.6600 15.2034 0.2649
45.6800 15.2100 0.2718
45.7000 15.2167 0.2639
45.7200 15.2234 0.2626
45.7400 15.2300 0.2670
45.7600 15.2366 0.2608
45.7800 15.2433 0.2628
45.8000 15.2499 0.2601
45.8200 15.2566 0.2600
45.8400 15.2633 0.2608
45.8600 15.2700 0.2549
45.8800 15.2767 0.2524
45.9000 15.2834 0.2619
45.9200 15.2900 0.2507
45.9400 15.2966 0.2514
45.9600 15.3033 0.2544
45.9800 15.3100 0.2492
46.0000 15.3167 0.2531
46.0200 15.3234 0.2487
46.0400 15.3301 0.2389
46.0600 15.3367 0.2494
46.0800 15.3434 0.2443
46.1000 15.3501 0.2419
46.1200 15.3567 0.2410
46.1400 15.3633 0.2421
46.1600 15.3700 0.2408
46.1800 15.3767 0.2394
46.2000 15.3834 0.2321
46.2200 15.3901 0.2408
46.2400 15.3968 0.2359
46.2600 15.4034 0.2299
46.2800 15.4100 0.2316
46.3000 15.4166 0.2322
46.3200 15.4233 0.2322
46.3400 15.4299 0.2298
46.3600 15.4367 0.2267
46.3800 15.4434 0.2289
46.4000 15.4501 0.2270
46.4200 15.4567 0.2211
46.4400 15.4634 0.2263
46.4600 15.4700 0.2220
46.4800 15.4766 0.2176
46.5000 15.4832 0.2241
46.5200 15.4899 0.2237
46.5400 15.4966 0.2129
46.5600 15.5034 0.2215
46.5800 15.5100 0.2166
46.6000 15.5167 0.2074
46.6200 15.5234 0.2193
46.6400 15.5300 0.2214
46.6600 15.5366 0.2026
46.6800 15.5433 0.2121
46.7000 15.5499 0.2152
46.7200 15.5567 0.2057
46.7400 15.5634 0.2099
46.7600 15.5700 0.2116
46.7800 15.5767 0.2002
46.8000 15.5834 0.2104
46.8200 15.5901 0.2007
46.8400 15.5967 0.1995
46.8600 15.6033 0.2144
46.8800 15.6100 0.1993
46.9000 15.6167 0.1954
46.9200 15.6234 0.2015
46.9400 15.6301 0.1985
46.9600 15.6368 0.1969
46.9800 15.6434 0.1972
47.0000 15.6501 0.1879
47.0200 15.6566 0.2049
47.0400 15.6632 0.1924
47.0600 15.6699 0.1888
47.0800 15.6766 0.1977
47.1000 15.6834 0.1902
47.1200 15.6900 0.1856
47.1400 15.6967 0.1882
47.1600 15.7034 0.1850
47.1800 15.7101 0.1902
47.2000 15.7167 0.1831
47.2200 15.7233 0.1847
47.2400 15.7300 0.1854
47.2600 15.7367 0.1824
47.2800 15.7434 0.1756
47.3000 15.7500 0.1868
47.3200 15.7567 0.1829
47.3400 15.7634 0.1748
47.3600 15.7701 0.1781
47.3800 15.7767 0.1740
47.4000 15.7833 0.1740
47.4200 15.7900 0.1785
47.4400 15.7967 0.1756
47.4600 15.8034 0.1696
47.4800 15.8101 0.1708
47.5000 15.8167 0.1656
47.5200 15.8234 0.1738
47.5400 15.8300 0.1696
47.5600 15.8366 0.1658
47.5800 15.8433 0.1671
47.6000 15.8499 0.1695
47.6200 15.8567 0.1578
47.6400 15.8634 0.1694
47.6600 15.8701 0.1670
47.6800 15.8768 0.1555
47.7000 15.8834 0.1652
47.7200 15.8901 0.1613
47.7400 15.8967 0.1504
47.7600 15.9033 0.1650
47.7800 15.9100 0.1616
47.8000 15.9167 0.1457
47.8200 15.9234 0.1624
47.8400 15.9300 0.1602
47.8600 15.9367 0.1468
47.8800 15.9434 0.1582
47.9000 15.9500 0.1496
47.9200 15.9566 0.1452
47.9400 15.9633 0.1551
47.9600 15.9699 0.1477
47.9800 15.9766 0.1463
48.0000 15.9834 0.1453
48.0200 15.9900 0.1430
48.0400 15.9967 0.1427
48.0600 16.0034 0.1467
48.0800 16.0101 0.1363
48.1000 16.0167 0.1408
48.1200 16.0233 0.1403
48.1400 16.0300 0.1429
48.1600 16.0367 0.1361
48.1800 16.0434 0.1300
48.2000 16.0501 0.1413
48.2200 16.0568 0.1378
48.2400 16.0634 0.1284
48.2600 16.0701 0.1356
48.2800 16.0767 0.1298
48.3000 16.0833 0.1252
48.3200 16.0900 0.1370
48.3400 16.0967 0.1269
48.3600 16.1034 0.1226
48.3800 16.1101 0.1275
48.4000 16.1167 0.1235
48.4200 16.1234 0.1213
48.4400 16.1301 0.1236
48.4600 16.1367 0.1200
48.4800 16.1433 0.1175
48.5000 16.1499 0.1196
48.5200 16.1566 0.1239
48.5400 16.1633 0.1120
48.5600 16.1700 0.1142
48.5800 16.1767 0.1173
48.6000 16.1834 0.1111
48.6200 16.1901 0.1037
48.6400 16.1967 0.1143
48.6600 16.2032 0.1064
48.6800 16.2099 0.1069
48.7000 16.2166 0.1105
48.7200 16.2233 0.1025
48.7400 16.2300 0.1013
48.7600 16.2367 0.1085
48.7800 16.2434 0.0951
48.8000 16.2500 0.0966
48.8200 16.2567 0.1066
48.8400 16.2633 0.0931
48.8600 16.2699 0.0961
48.8800 16.2766 0.1014
48.9000 16.2834 0.0888
48.9200 16.2901 0.0916
48.9400 16.2967 0.0949
48.9600 16.3034 0.0842
48.9800 16.3101 0.0911
49.0000 16.3167 0.0876
49.0200 16.3233 0.0839
49.0400 16.3300 0.0852
49.0600 16.3367 0.0911
49.0800 16.3434 0.0783
49.1000 16.3501 0.0797
49.1200 16.3567 0.0838
49.1400 16.3634 0.0753
49.1600 16.3700 0.0748
49.1800 16.3767 0.0779
49.2000 16.3833 0.0692
49.2200 16.3899 0.0769
49.2400 16.3966 0.0777
49.2600 16.4034 0.0672
49.2800 16.4100 0.0699
49.3000 16.4167 0.0751
49.3200 16.4233 0.0708
49.3400 16.4300 0.0623
49.3600 16.4367 0.0628
49.3800 16.4433 0.0645
49.4000 16.4499 0.0586
49.4200 16.4566 0.0601
49.4400 16.4633 0.0627
49.4600 16.4700 0.0579
49.4800 16.4767 0.0575
49.5000 16.4834 0.0497
49.5200 16.4901 0.0548
49.5400 16.4967 0.0564
49.5600 16.5033 0.0546
49.5800 16.5099 0.0413
49.6000 16.5167 0.0556
49.6200 16.5234 0.0504
49.6400 16.5301 0.0403
49.6600 16.5367 0.0507
49.6800 16.5434 0.0482
49.7000 16.5501 0.0311
49.7200 16.5567 0.0475
49.7400 16.5633 0.0462
49.7600 16.5700 0.0325
49.7800 16.5767 0.0453
49.8000 16.5834 0.0402
49.8200 16.5901 0.0251
49.8400 16.5967 0.0489
49.8600 16.6034 0.0376
49.8800 16.6101 0.0228
49.9000 16.6167 0.0413
49.9200 16.6233 0.0261
49.9400 16.6300 0.0280
49.9600 16.6366 0.0358
49.9800 16.6433 0.0181
50.0000 16.6500 0.0259
50.0200 16.6567 0.0360
50.0400 16.6634 0.0106
50.0600 16.6701 0.0242
50.0800 16.6767 0.0231
50.1000 16.6833 0.0068
50.1200 16.6899 0.0236
50.1400 16.6966 0.0195
50.1600 16.7033 0.0051
50.1800 16.7100 0.0212
50.2000 16.7167 0.0133
50.2200 16.7234 0.0039
50.2400 16.7300 0.0138
50.2600 16.7367 0.0125
50.2800 16.7433 -0.0007
50.3000 16.7499 0.0098
50.3200 16.7566 0.0067
50.3400 16.7634 -0.0014
50.3600 16.7701 0.0037
50.3800 16.7767 -0.0004
50.4000 16.7834 0.0028
50.4200 16.7901 -0.0038
50.4400 16.7967 -0.0026
50.4600 16.8033 -0.0020
50.4800 16.8100 -0.0088
50.5000 16.8166 -0.0038
50.5200 16.8233 -0.0039
50.5400 16.8301 -0.0154
50.5600 16.8367 -0.0063
50.5800 16.8434 -0.0140
50.6000 16.8501 -0.0177
50.6200 16.8567 -0.0085
50.6400 16.8633 -0.0211
50.6600 16.8700 -0.0172
50.6800 16.8766 -0.0076
50.7000 16.8834 -0.0328
50.7200 16.8901 -0.0153
50.7400 16.8967 -0.0134
50.7600 16.9034 -0.0415
50.7800 16.9100 -0.0223
50.8000 16.9167 -0.0139
50.8200 16.9233 -0.0391
50.8400 16.9299 -0.0212
50.8600 16.9366 -0.0245
50.8800 16.9433 -0.0441
50.9000 16.9500 -0.0171
50.9200 16.9567 -0.0303
50.9400 16.9633 -0.0453
50.9600 16.9700 -0.0284
50.9800 16.9767 -0.0384
51.0000 16.9833 -0.0437
51.0200 16.9899 -0.0274
51.0400 16.9966 -0.0444
51.0600 17.0033 -0.0422
51.0800 17.0100 -0.0411
51.1000 17.0167 -0.0446
51.1200 17.0234 -0.0454
51.1400 17.0301 -0.0423
51.1600 17.0367 -0.0531
51.1800 17.0433 -0.0470
51.2000 17.0500 -0.0453
51.2200 17.0566 -0.0529
51.2400 17.0634 -0.0505
51.2600 17.0701 -0.0531
51.2800 17.0767 -0.0516
51.3000 17.0834 -0.0579
51.3200 17.0901 -0.0601
51.3400 17.0967 -0.0513
51.3600 17.1033 -0.0591
51.3800 17.1099 -0.0617
51.4000 17.1166 -0.0609
51.4200 17.1233 -0.0654
51.4400 17.1300 -0.0653
51.4600 17.1367 -0.0620
51.4800 17.1434 -0.0704
51.5000 17.1501 -0.0714
51.5200 17.1567 -0.0574
51.5400 17.1633 -0.0827
51.5600 17.1699 -0.0662
51.5800 17.1766 -0.0655
51.6000 17.1833 -0.0879
51.6200 17.1900 -0.0742
51.6400 17.1967 -0.0714
51.6600 17.2034 -0.0845
51.6800 17.2101 -0.0732
51.7000 17.2167 -0.0804
51.7200 17.2233 -0.0949
51.7400 17.2299 -0.0715
51.7600 17.2366 -0.0806
51.7800 17.2433 -0.1004
51.8000 17.2500 -0.0800
51.8200 17.2567 -0.0897
51.8400 17.2634 -0.0899
51.8600 17.2701 -0.0832
51.8800 17.2767 -0.0964
51.9000 17.2834 -0.0942
51.9200 17.2900 -0.0920
51.9400 17.2966 -0.1024
51.9600 17.3033 -0.0931
51.9800 17.3100 -0.0910
52.0000 17.3167 -0.1133
52.0200 17.3234 -0.0980
52.0400 17.3301 -0.0982
52.0600 17.3368 -0.1083
52.0800 17.3434 -0.0993
52.1000 17.3500 -0.1060
52.1200 17.3566 -0.1154
52.1400 17.3633 -0.1023
52.1600 17.3700 -0.1145
52.1800 17.3767 -0.1162
52.2000 17.3834 -0.1102
52.2200 17.3901 -0.1178
52.2400 17.3967 -0.1206
52.2600 17.4033 -0.1131
52.2800 17.4099 -0.1243
52.3000 17.4166 -0.1186
52.3200 17.4233 -0.1129
52.3400 17.4300 -0.1278
52.3600 17.4366 -0.1233
52.3800 17.4433 -0.1181
52.4000 17.4500 -0.1341
52.4200 17.4567 -0.1274
52.4400 17.4633 -0.1243
52.4600 17.4700 -0.1343
52.4800 17.4766 -0.1277
52.5000 17.4833 -0.1370
52.5200 17.4900 -0.1361
52.5400 17.4967 -0.1313
52.5600 17.5034 -0.1352
52.5800 17.5101 -0.1412
52.6000 17.5168 -0.1369
52.6200 17.5234 -0.1377
52.6400 17.5300 -0.1414
52.6600 17.5366 -0.1410
52.6800 17.5433 -0.1438
52.7000 17.5501 -0.1446
52.7200 17.5567 -0.1472
52.7400 17.5634 -0.1494
52.7600 17.5701 -0.1425
52.7800 17.5767 -0.1544
52.8000 17.5833 -0.1531
52.8200 17.5899 -0.1474
52.8400 17.5966 -0.1532
52.8600 17.6033 -0.1563
52.8800 17.6100 -0.1544
52.9000 17.6167 -0.1563
52.9200 17.6234 -0.1594
52.9400 17.6300 -0.1605
52.9600 17.6367 -0.1617
52.9800 17.6434 -0.1628
53.0000 17.6500 -0.1628
53.0200 17.6566 -0.1705
53.0400 17.6633 -0.1685
53.0600 17.6700 -0.1646
53.0800 17.6767 -0.1741
53.1000 17.6834 -0.1690
53.1200 17.6900 -0.1733
53.1400 17.6967 -0.1787
53.1600 17.7033 -0.1775
53.1800 17.7100 -0.1704
53.2000 17.7166 -0.1816
53.2200 17.7233 -0.1757
53.2400 17.7300 -0.1826
53.2600 17.7367 -0.1874
53.2800 17.7434 -0.1752
53.3000 17.7501 -0.1856
53.3200 17.7568 -0.1899
53.3400 17.7634 -0.1822
53.3600 17.7700 -0.1946
53.3800 17.7766 -0.1942
53.4000 17.7833 -0.1835
53.4200 17.7901 -0.1980
53.4400 17.7968 -0.2005
53.4600 17.8034 -0.1926
53.4800 17.8101 -0.2012
53.5000 17.8167 -0.2015
53.5200 17.8233 -0.1940
53.5400 17.8300 -0.2027
53.5600 17.8366 -0.2035
53.5800 17.8433 -0.2035
53.6000 17.8500 -0.2069
53.6200 17.8567 -0.2067
53.6400 17.8633 -0.2035
53.6600 17.8700 -0.2165
53.6800 17.8767 -0.2105
53.7000 17.8833 -0.2089
53.7200 17.8899 -0.2112
53.7400 17.8966 -0.2128
53.7600 17.9033 -0.2103
53.7800 17.9100 -0.2247
53.8000 17.9167 -0.2179
53.8200 17.9234 -0.2134
53.8400 17.9300 -0.2215
53.8600 17.9367 -0.2219
53.8800 17.9434 -0.2216
53.9000 17.9500 -0.2240
53.9200 17.9566 -0.2270
53.9400 17.9633 -0.2219
53.9600 17.9700 -0.2283
53.9800 17.9767 -0.2345
54.0000 17.9834 -0.2298
54.0200 17.9901 -0.2316
54.0400 17.9968 -0.2381
54.0600 18.0034 -0.2310
54.0800 18.0100 -0.2401
54.1000 18.0166 -0.2397
54.1200 18.0233 -0.2381
54.1400 18.0300 -0.2394
54.1600 18.0367 -0.2450
54.1800 18.0434 -0.2442
54.2000 18.0501 -0.2472
54.2200 18.0568 -0.2477
54.2400 18.0634 -0.2460
54.2600 18.0700 -0.2479
54.2800 18.0766 -0.2525
54.3000 18.0833 -0.2548
54.3200 18.0900 -0.2522
54.3400 18.0967 -0.2534
54.3600 18.1034 -0.2593
54.3800 18.1101 -0.2557
54.4000 18.1167 -0.2650
54.4200 18.1233 -0.2617
54.4400 18.1299 -0.2539
54.4600 18.1366 -0.2681
54.4800 18.1433 -0.2679
54.5000 18.1500 -0.2636
54.5200 18.1567 -0.2736
54.5400 18.1633 -0.2743
54.5600 18.1700 -0.2638
54.5800 18.1767 -0.2820
54.6000 18.1833 -0.2782
54.6200 18.1900 -0.2721
54.6400 18.1966 -0.2854
54.6600 18.2033 -0.2818
54.6800 18.2100 -0.2772
54.7000 18.2167 -0.2950
54.7200 18.2234 -0.2835
54.7400 18.2301 -0.2765
54.7600 18.2368 -0.2959
54.7800 18.2434 -0.2919
54.8000 18.2500 -0.2801
54.8200 18.2566 -0.2979
54.8400 18.2633 -0.2962
54.8600 18.2701 -0.2881
54.8800 18.2768 -0.3055
54.9000 18.2834 -0.2955
54.9200 18.2901 -0.2964
54.9400 18.2968 -0.3055
54.9600 18.3034 -0.3002
54.9800 18.3100 -0.3000
55.0000 18.3166 -0.3130
55.0200 18.3233 -0.3023
55.0400 18.3300 -0.3085
55.0600 18.3367 -0.3176
55.0800 18.3433 -0.3064
55.1000 18.3500 -0.3165
55.1200 18.3567 -0.3232
55.1400 18.3634 -0.3103
55.1600 18.3700 -0.3222
55.1800 18.3766 -0.3218
55.2000 18.3832 -0.3194
55.2200 18.3900 -0.3233
55.2400 18.3966 -0.3294
55.2600 18.4033 -0.3186
55.2800 18.4100 -0.3276
55.3000 18.4167 -0.3361
55.3200 18.4233 -0.3283
55.3400 18.4300 -0.3343
55.3600 18.4366 -0.3351
55.3800 18.4433 -0.3314
55.4000 18.4500 -0.3433
55.4200 18.4567 -0.3405
55.4400 18.4634 -0.3351
55.4600 18.4701 -0.3469
55.4800 18.4768 -0.3427
55.5000 18.4834 -0.3433
55.5200 18.4900 -0.3520
55.5400 18.4967 -0.3464
55.5600 18.5033 -0.3470
55.5800 18.5100 -0.3593
55.6000 18.5167 -0.3472
55.6200 18.5234 -0.3530
55.6400 18.5301 -0.3634
55.6600 18.5368 -0.3597
55.6800 18.5434 -0.3524
55.7000 18.5500 -0.3683
55.7200 18.5566 -0.3640
55.7400 18.5633 -0.3609
55.7600 18.5700 -0.3669
55.7800 18.5767 -0.3716
55.8000 18.5834 -0.3670
55.8200 18.5901 -0.3728
55.8400 18.5967 -0.3754
55.8600 18.6034 -0.3788
55.8800 18.6100 -0.3736
55.9000 18.6166 -0.3748
55.9200 18.6232 -0.3763
55.9400 18.6300 -0.3804
55.9600 18.6367 -0.3930
55.9800 18.6434 -0.3786
56.0000 18.6500 -0.3793
56.0200 18.6567 -0.3935
56.0400 18.6634 -0.3935
56.0600 18.6700 -0.3810
56.0800 18.6766 -0.3938
56.1000 18.6833 -0.3960
56.1200 18.6900 -0.3887
56.1400 18.6967 -0.3920
56.1600 18.7034 -0.3997
56.1800 18.7101 -0.4005
56.2000 18.7168 -0.4022
56.2200 18.7234 -0.3972
56.2400 18.7300 -0.4016
56.2600 18.7366 -0.4083
56.2800 18.7433 -0.4066
56.3000 18.7500 -0.4038
56.3200 18.7567 -0.4101
56.3400 18.7634 -0.4146
56.3600 18.7701 -0.4150
56.3800 18.7768 -0.4113
56.4000 18.7834 -0.4147
56.4200 18.7900 -0.4220
56.4400 18.7966 -0.4144
56.4600 18.8033 -0.4195
56.4800 18.8100 -0.4247
56.5000 18.8167 -0.4282
56.5200 18.8234 -0.4291
56.5400 18.8300 -0.4251
56.5600 18.8367 -0.4175
56.5800 18.8434 -0.4431
56.6000 18.8500 -0.4320
56.6200 18.8566 -0.4220
56.6400 18.8632 -0.4440
56.6600 18.8699 -0.4366
56.6800 18.8767 -0.4268
56.7000 18.8834 -0.4467
56.7200 18.8900 -0.4391
56.7400 18.8967 -0.4387
56.7600 18.9034 -0.4578
56.7800 18.9100 -0.4366
56.8000 18.9166 -0.4402
56.8200 18.9233 -0.4663
56.8400 18.9300 -0.4434
56.8600 18.9367 -0.4512
56.8800 18.9434 -0.4651
56.9000 18.9501 -0.4474
56.9200 18.9568 -0.4571
56.9400 18.9634 -0.4689
56.9600 18.9700 -0.4554
56.9800 18.9766 -0.4637
57.0000 18.9833 -0.4748
57.0200 18.9900 -0.4519
57.0400 18.9967 -0.4724
57.0600 19.0034 -0.4815
57.0800 19.0101 -0.4620
57.1000 19.0167 -0.4726
57.1200 19.0234 -0.4867
57.1400 19.0300 -0.4712
57.1600 19.0366 -0.4768
57.1800 19.0432 -0.4828
57.2000 19.0500 -0.4808
57.2200 19.0567 -0.4873
57.2400 19.0634 -0.4870
57.2600 19.0700 -0.4846
57.2800 19.0767 -0.4943
57.3000 19.0834 -0.4894
57.3200 19.0900 -0.4937
57.3400 19.0966 -0.4963
57.3600 19.1032 -0.4911
57.3800 19.1099 -0.4992
57.4000 19.1167 -0.5055
57.4200 19.1234 -0.5039
57.4400 19.1300 -0.5048
57.4600 19.1367 -0.5049
57.4800 19.1434 -0.5070
57.5000 19.1500 -0.5101
57.5200 19.1566 -0.5073
57.5400 19.1633 -0.5157
57.5600 19.1700 -0.5136
57.5800 19.1767 -0.5122
57.6000 19.1834 -0.5174
57.6200 19.1901 -0.5218
57.6400 19.1967 -0.5143
57.6600 19.2034 -0.5305
57.6800 19.2100 -0.5218
57.7000 19.2167 -0.5153
57.7200 19.2233 -0.5318
57.7400 19.2300 -0.5314
57.7600 19.2367 -0.5271
57.7800 19.2434 -0.5348
57.8000 19.2501 -0.5295
57.8200 19.2568 -0.5344
57.8400 19.2634 -0.5381
57.8600 19.2700 -0.5349
57.8800 19.2766 -0.5430
57.9000 19.2833 -0.5419
57.9200 19.2900 -0.5412
57.9400 19.2967 -0.5459
57.9600 19.3034 -0.5492
57.9800 19.3100 -0.5493
58.0000 19.3167 -0.5522
58.0200 19.3234 -0.5481
58.0400 19.3300 -0.5593
58.0600 19.3366 -0.5515
58.0800 19.3432 -0.5568
58.1000 19.3499 -0.5676
58.1200 19.3567 -0.5619
58.1400 19.3633 -0.5597
58.1600 19.3700 -0.5750
58.1800 19.3767 -0.5634
58.2000 19.3834 -0.5712
58.2200 19.3900 -0.5754
58.2400 19.3966 -0.5703
58.2600 19.4033 -0.5741
58.2800 19.4100 -0.5819
58.3000 19.4167 -0.5802
58.3200 19.4234 -0.5846
58.3400 19.4301 -0.5905
58.3600 19.4368 -0.5819
58.3800 19.4434 -0.5886
58.4000 19.4500 -0.5991
58.4200 19.4566 -0.5915
58.4400 19.4633 -0.5975
58.4600 19.4700 -0.6037
58.4800 19.4767 -0.5979
58.5000 19.4834 -0.6086
58.5200 19.4901 -0.6082
58.5400 19.4968 -0.6052
58.5600 19.5034 -0.6098
58.5800 19.5100 -0.6188
58.6000 19.5166 -0.6088
58.6200 19.5233 -0.6203
58.6400 19.5300 -0.6242
58.6600 19.5367 -0.6187
58.6800 19.5434 -0.6262
58.7000 19.5500 -0.6291
58.7200 19.5567 -0.6235
58.7400 19.5634 -0.6373
58.7600 19.5700 -0.6348
58.7800 19.5766 -0.6286
58.8000 19.5832 -0.6391
58.8200 19.5899 -0.6428
58.8400 19.5966 -0.6357
58.8600 19.6033 -0.6464
58.8800 19.6100 -0.6456
58.9000 19.6167 -0.6417
58.9200 19.6233 -0.6578
58.9400 19.6300 -0.6548
58.9600 19.6366 -0.6466
58.9800 19.6433 -0.6619
59.0000 19.6500 -0.6592
59.0200 19.6567 -0.6517
59.0400 19.6634 -0.6715
59.0600 19.6701 -0.6664
59.0800 19.6768 -0.6608
59.1000 19.6834 -0.6743
59.1200 19.6901 -0.6714
59.1400 19.6967 -0.6629
59.1600 19.7033 -0.6858
59.1800 19.7100 -0.6735
59.2000 19.7167 -0.6758
59.2200 19.7234 -0.6891
59.2400 19.7301 -0.6772
59.2600 19.7368 -0.6799
59.2800 19.7434 -0.6957
59.3000 19.7500 -0.6553
59.3010 19.7503 -0.6524
