Raw Data
Time Displacement Force
(s) (mm) (N)
0.0000 0.0000 0.2184
0.0200 0.0000 0.2388
0.0400 0.0008 0.2881
0.0600 0.0039 0.3540
0.0800 0.0093 0.3803
0.1000 0.0150 0.4087
0.1200 0.0208 0.4586
0.1400 0.0275 0.4944
0.1600 0.0348 0.5328
0.1800 0.0423 0.5652
0.2000 0.0495 0.6099
0.2200 0.0564 0.6461
0.2400 0.0631 0.6831
0.2600 0.0698 0.7252
0.2800 0.0764 0.7608
0.3000 0.0831 0.7736
0.3200 0.0899 0.7803
0.3400 0.0966 0.7909
0.3600 0.1033 0.7803
0.3800 0.1099 0.7805
0.4000 0.1166 0.7884
0.4200 0.1233 0.7746
0.4400 0.1300 0.7839
0.4600 0.1366 0.7870
0.4800 0.1433 0.7799
0.5000 0.1500 0.7861
0.5200 0.1567 0.7849
0.5400 0.1633 0.7768
0.5600 0.1699 0.7919
0.5800 0.1765 0.7907
0.6000 0.1832 0.7761
0.6200 0.1899 0.7842
0.6400 0.1966 0.7856
0.6600 0.2033 0.7839
0.6800 0.2100 0.7880
0.7000 0.2167 0.7818
0.7200 0.2233 0.7876
0.7400 0.2299 0.7847
0.7600 0.2365 0.7837
0.7800 0.2432 0.7916
0.8000 0.2499 0.7797
0.8200 0.2566 0.7851
0.8400 0.2633 0.7927
0.8600 0.2699 0.7791
0.8800 0.2766 0.7894
0.9000 0.2833 0.7935
0.9200 0.2899 0.7783
0.9400 0.2965 0.7939
0.9600 0.3031 0.7923
0.9800 0.3099 0.7853
1.0000 0.3166 0.7916
1.0200 0.3232 0.7896
1.0400 0.3299 0.7839
1.0600 0.3366 0.7937
1.0800 0.3432 0.7883
1.1000 0.3499 0.7831
1.1200 0.3565 0.7888
1.1400 0.3632 0.7916
1.1600 0.3699 0.7850
1.1800 0.3766 0.7891
1.2000 0.3833 0.7897
1.2200 0.3900 0.7841
1.2400 0.3967 0.7871
1.2600 0.4033 0.7854
1.2800 0.4099 0.7866
1.3000 0.4166 0.7894
1.3200 0.4233 0.7843
1.3400 0.4299 0.7832
1.3600 0.4366 0.7839
1.3800 0.4433 0.7919
1.4000 0.4500 0.7871
1.4200 0.4567 0.7808
1.4400 0.4633 0.7887
1.4600 0.4699 0.7872
1.4800 0.4765 0.7842
1.5000 0.4831 0.7855
1.5200 0.4898 0.7888
1.5400 0.4965 0.7859
1.5600 0.5032 0.7841
1.5800 0.5099 0.7809
1.6000 0.5165 0.7832
1.6200 0.5232 0.7858
1.6400 0.5298 0.7793
1.6600 0.5365 0.7831
1.6800 0.5432 0.7922
1.7000 0.5499 0.7795
1.7200 0.5566 0.7808
1.7400 0.5633 0.7882
1.7600 0.5700 0.7803
1.7800 0.5767 0.7827
1.8000 0.5833 0.7896
1.8200 0.5899 0.7744
1.8400 0.5966 0.7816
1.8600 0.6032 0.7800
1.8800 0.6099 0.7731
1.9000 0.6166 0.7855
1.9200 0.6233 0.7787
1.9400 0.6300 0.7692
1.9600 0.6367 0.7818
1.9800 0.6433 0.7735
2.0000 0.6499 0.7735
2.0200 0.6565 0.7833
2.0400 0.6632 0.7712
2.0600 0.6699 0.7715
2.0800 0.6766 0.7807
2.1000 0.6833 0.7736
2.1200 0.6900 0.7681
2.1400 0.6966 0.7771
2.1600 0.7033 0.7708
2.1800 0.7099 0.7711
2.2000 0.7165 0.7736
2.2200 0.7232 0.7723
2.2400 0.7299 0.7712
2.2600 0.7366 0.7669
2.2800 0.7433 0.7733
2.3000 0.7499 0.7714
2.3200 0.7566 0.7661
2.3400 0.7633 0.7724
2.3600 0.7699 0.7659
2.3800 0.7765 0.7661
2.4000 0.7832 0.7703
2.4200 0.7899 0.7730
2.4400 0.7965 0.7581
2.4600 0.8032 0.7722
2.4800 0.8099 0.7673
2.5000 0.8167 0.7614
2.5200 0.8233 0.7729
2.5400 0.8299 0.7593
2.5600 0.8365 0.7579
2.5800 0.8432 0.7816
2.6000 0.8499 0.7580
2.6200 0.8566 0.7559
2.6400 0.8633 0.7751
2.6600 0.8700 0.7575
2.6800 0.8767 0.7559
2.7000 0.8833 0.7759
2.7200 0.8899 0.7614
2.7400 0.8965 0.7596
2.7600 0.9032 0.7722
2.7800 0.9099 0.7573
2.8000 0.9166 0.7623
2.8200 0.9233 0.7675
2.8400 0.9300 0.7543
2.8600 0.9367 0.7628
2.8800 0.9433 0.7611
2.9000 0.9499 0.7584
2.9200 0.9565 0.7669
2.9400 0.9632 0.7587
2.9600 0.9699 0.7594
2.9800 0.9766 0.7596
3.0000 0.9833 0.7569
3.0200 0.9900 0.7581
3.0400 0.9967 0.7576
3.0600 1.0033 0.7536
3.0800 1.0099 0.7585
3.1000 1.0165 0.7563
3.1200 1.0231 0.7584
3.1400 1.0299 0.7564
3.1600 1.0366 0.7485
3.1800 1.0433 0.7540
3.2000 1.0499 0.7527
3.2200 1.0566 0.7491
3.2400 1.0633 0.7561
3.2600 1.0699 0.7528
3.2800 1.0765 0.7456
3.3000 1.0832 0.7582
3.3200 1.0899 0.7549
3.3400 1.0966 0.7426
3.3600 1.1033 0.7560
3.3800 1.1100 0.7496
3.4000 1.1167 0.7451
3.4200 1.1234 0.7545
3.4400 1.1300 0.7414
3.4600 1.1366 0.7472
3.4800 1.1432 0.7566
3.5000 1.1499 0.7385
3.5200 1.1566 0.7407
3.5400 1.1633 0.7548
3.5600 1.1700 0.7369
3.5800 1.1767 0.7415
3.6000 1.1833 0.7505
3.6200 1.1899 0.7435
3.6400 1.1965 0.7441
3.6600 1.2032 0.7498
3.6800 1.2099 0.7353
3.7000 1.2166 0.7424
3.7200 1.2233 0.7502
3.7400 1.2299 0.7379
3.7600 1.2366 0.7439
3.7800 1.2433 0.7517
3.8000 1.2499 0.7324
3.8200 1.2565 0.7423
3.8400 1.2632 0.7482
3.8600 1.2699 0.7375
3.8800 1.2766 0.7451
3.9000 1.2833 0.7430
3.9200 1.2899 0.7376
3.9400 1.2966 0.7467
3.9600 1.3033 0.7404
3.9800 1.3099 0.7401
4.0000 1.3165 0.7445
4.0200 1.3232 0.7427
4.0400 1.3299 0.7441
4.0600 1.3366 0.7436
4.0800 1.3433 0.7397
4.1000 1.3500 0.7413
4.1200 1.3566 0.7409
4.1400 1.3633 0.7398
4.1600 1.3699 0.7467
4.1800 1.3766 0.7394
4.2000 1.3832 0.7398
4.2200 1.3899 0.7482
4.2400 1.3966 0.7363
4.2600 1.4033 0.7414
4.2800 1.4100 0.7462
4.3000 1.4167 0.7323
4.3200 1.4233 0.7434
4.3400 1.4299 0.7471
4.3600 1.4365 0.7338
4.3800 1.4432 0.7422
4.4000 1.4499 0.7405
4.4200 1.4566 0.7294
4.4400 1.4633 0.7438
4.4600 1.4699 0.7366
4.4800 1.4766 0.7367
4.5000 1.4833 0.7430
4.5200 1.4899 0.7328
4.5400 1.4965 0.7391
4.5600 1.5032 0.7469
4.5800 1.5098 0.7314
4.6000 1.5166 0.7373
4.6200 1.5233 0.7395
4.6400 1.5300 0.7301
4.6600 1.5366 0.7443
4.6800 1.5433 0.7368
4.7000 1.5499 0.7281
4.7200 1.5565 0.7402
4.7400 1.5632 0.7347
4.7600 1.5699 0.7319
4.7800 1.5766 0.7388
4.8000 1.5833 0.7357
4.8200 1.5900 0.7329
4.8400 1.5967 0.7337
4.8600 1.6033 0.7291
4.8800 1.6100 0.7343
4.9000 1.6165 0.7316
4.9200 1.6232 0.7300
4.9400 1.6298 0.7369
4.9600 1.6366 0.7260
4.9800 1.6433 0.7277
5.0000 1.6500 0.7300
5.0200 1.6567 0.7267
5.0400 1.6633 0.7217
5.0600 1.6700 0.7233
5.0800 1.6765 0.7296
5.1000 1.6831 0.7255
5.1200 1.6898 0.7240
5.1400 1.6965 0.7239
5.1600 1.7033 0.7236
5.1800 1.7100 0.7232
5.2000 1.7167 0.7202
5.2200 1.7233 0.7260
5.2400 1.7300 0.7202
5.2600 1.7365 0.7190
5.2800 1.7431 0.7230
5.3000 1.7498 0.7226
5.3200 1.7566 0.7197
5.3400 1.7633 0.7165
5.3600 1.7699 0.7198
5.3800 1.7766 0.7173
5.4000 1.7833 0.7122
5.4200 1.7899 0.7203
5.4400 1.7965 0.7191
5.4600 1.8032 0.7151
5.4800 1.8099 0.7193
5.5000 1.8166 0.7169
5.5200 1.8233 0.7062
5.5400 1.8300 0.7193
5.5600 1.8367 0.7202
5.5800 1.8434 0.7081
5.6000 1.8500 0.7188
5.6200 1.8566 0.7156
5.6400 1.8632 0.7089
5.6600 1.8699 0.7204
5.6800 1.8766 0.7119
5.7000 1.8833 0.7062
5.7200 1.8900 0.7208
5.7400 1.8966 0.7101
5.7600 1.9033 0.7055
5.7800 1.9099 0.7204
5.8000 1.9165 0.7100
5.8200 1.9232 0.7047
5.8400 1.9298 0.7200
5.8600 1.9366 0.7053
5.8800 1.9433 0.7033
5.9000 1.9499 0.7184
5.9200 1.9566 0.7060
5.9400 1.9633 0.7045
5.9600 1.9699 0.7191
5.9800 1.9766 0.7001
6.0000 1.9832 0.7081
6.0200 1.9898 0.7150
6.0400 1.9965 0.7006
6.0600 2.0032 0.7065
6.0800 2.0099 0.7085
6.1000 2.0166 0.6991
6.1200 2.0233 0.7104
6.1400 2.0300 0.7052
6.1600 2.0366 0.6983
6.1800 2.0432 0.7054
6.2000 2.0499 0.7041
6.2200 2.0566 0.7039
6.2400 2.0633 0.7062
6.2600 2.0700 0.7015
6.2800 2.0766 0.7033
6.3000 2.0833 0.7005
6.3200 2.0899 0.6965
6.3400 2.0965 0.7054
6.3600 2.1032 0.7048
6.3800 2.1099 0.6981
6.4000 2.1166 0.7017
6.4200 2.1233 0.6953
6.4400 2.1300 0.6959
6.4600 2.1366 0.7055
6.4800 2.1433 0.6973
6.5000 2.1500 0.6994
6.5200 2.1566 0.7020
6.5400 2.1632 0.6935
6.5600 2.1699 0.6952
6.5800 2.1766 0.7004
6.6000 2.1833 0.6954
6.6200 2.1899 0.6959
6.6400 2.1967 0.6954
6.6600 2.2034 0.6922
6.6800 2.2100 0.6932
6.7000 2.2166 0.6980
6.7200 2.2232 0.6913
6.7400 2.2298 0.6965
6.7600 2.2365 0.6924
6.7800 2.2432 0.6888
6.8000 2.2499 0.6933
6.8200 2.2566 0.6966
6.8400 2.2633 0.6834
6.8600 2.2699 0.6925
6.8800 2.2766 0.6953
6.9000 2.2832 0.6838
6.9200 2.2899 0.6945
6.9400 2.2966 0.6948
6.9600 2.3033 0.6851
6.9800 2.3099 0.6896
7.0000 2.3166 0.6916
7.0200 2.3233 0.6877
7.0400 2.3300 0.6863
7.0600 2.3366 0.6857
7.0800 2.3432 0.6891
7.1000 2.3499 0.6904
7.1200 2.3565 0.6885
7.1400 2.3633 0.6818
7.1600 2.3699 0.6882
7.1800 2.3767 0.6841
7.2000 2.3834 0.6847
7.2200 2.3900 0.6841
7.2400 2.3966 0.6835
7.2600 2.4032 0.6799
7.2800 2.4098 0.6920
7.3000 2.4166 0.6841
7.3200 2.4233 0.6795
7.3400 2.4300 0.6861
7.3600 2.4366 0.6850
7.3800 2.4433 0.6796
7.4000 2.4500 0.6820
7.4200 2.4566 0.6842
7.4400 2.4632 0.6819
7.4600 2.4698 0.6811
7.4800 2.4765 0.6849
7.5000 2.4832 0.6795
7.5200 2.4899 0.6811
7.5400 2.4966 0.6841
7.5600 2.5033 0.6770
7.5800 2.5099 0.6742
7.6000 2.5166 0.6890
7.6200 2.5232 0.6758
7.6400 2.5299 0.6753
7.6600 2.5366 0.6851
7.6800 2.5433 0.6751
7.7000 2.5500 0.6766
7.7200 2.5567 0.6817
7.7400 2.5633 0.6694
7.7600 2.5700 0.6743
7.7800 2.5766 0.6818
7.8000 2.5832 0.6692
7.8200 2.5899 0.6783
7.8400 2.5966 0.6828
7.8600 2.6033 0.6630
7.8800 2.6100 0.6740
7.9000 2.6166 0.6808
7.9200 2.6233 0.6683
7.9400 2.6300 0.6709
7.9600 2.6366 0.6759
7.9800 2.6432 0.6736
8.0000 2.6499 0.6707
8.0200 2.6566 0.6759
8.0400 2.6633 0.6652
8.0600 2.6699 0.6748
8.0800 2.6766 0.6731
8.1000 2.6833 0.6684
8.1200 2.6900 0.6676
8.1400 2.6966 0.6718
8.1600 2.7032 0.6680
8.1800 2.7098 0.6677
8.2000 2.7165 0.6725
8.2200 2.7232 0.6624
8.2400 2.7299 0.6635
8.2600 2.7366 0.6729
8.2800 2.7433 0.6597
8.3000 2.7500 0.6617
8.3200 2.7566 0.6703
8.3400 2.7632 0.6596
8.3600 2.7699 0.6559
8.3800 2.7766 0.6697
8.4000 2.7832 0.6619
8.4200 2.7899 0.6623
8.4400 2.7966 0.6660
8.4600 2.8033 0.6589
8.4800 2.8100 0.6601
8.5000 2.8166 0.6637
8.5200 2.8232 0.6584
8.5400 2.8299 0.6625
8.5600 2.8366 0.6632
8.5800 2.8433 0.6542
8.6000 2.8500 0.6612
8.6200 2.8567 0.6608
8.6400 2.8633 0.6560
8.6600 2.8700 0.6575
8.6800 2.8766 0.6609
8.7000 2.8832 0.6570
8.7200 2.8899 0.6598
8.7400 2.8965 0.6548
8.7600 2.9032 0.6560
8.7800 2.9099 0.6578
8.8000 2.9166 0.6584
8.8200 2.9233 0.6566
8.8400 2.9300 0.6552
8.8600 2.9366 0.6524
8.8800 2.9432 0.6606
8.9000 2.9498 0.6562
8.9200 2.9565 0.6514
8.9400 2.9632 0.6585
8.9600 2.9699 0.6579
8.9800 2.9766 0.6512
9.0000 2.9833 0.6574
9.0200 2.9899 0.6505
9.0400 2.9966 0.6510
9.0600 3.0032 0.6576
9.0800 3.0099 0.6471
9.1000 3.0166 0.6509
9.1200 3.0233 0.6600
9.1400 3.0300 0.6493
9.1600 3.0366 0.6472
9.1800 3.0433 0.6569
9.2000 3.0500 0.6473
9.2200 3.0566 0.6436
9.2400 3.0632 0.6535
9.2600 3.0699 0.6501
9.2800 3.0765 0.6483
9.3000 3.0833 0.6482
9.3200 3.0900 0.6440
9.3400 3.0966 0.6520
9.3600 3.1033 0.6487
9.3800 3.1100 0.6422
9.4000 3.1166 0.6500
9.4200 3.1232 0.6539
9.4400 3.1298 0.6429
9.4600 3.1365 0.6494
9.4800 3.1433 0.6424
9.5000 3.1500 0.6445
9.5200 3.1566 0.6483
9.5400 3.1633 0.6446
9.5600 3.1700 0.6418
9.5800 3.1766 0.6468
9.6000 3.1832 0.6475
9.6200 3.1898 0.6419
9.6400 3.1965 0.6433
9.6600 3.2032 0.6463
9.6800 3.2099 0.6417
9.7000 3.2166 0.6402
9.7200 3.2232 0.6470
9.7400 3.2299 0.6468
9.7600 3.2366 0.6380
9.7800 3.2432 0.6451
9.8000 3.2498 0.6448
9.8200 3.2565 0.6345
9.8400 3.2633 0.6470
9.8600 3.2700 0.6432
9.8800 3.2766 0.6347
9.9000 3.2833 0.6437
9.9200 3.2900 0.6413
9.9400 3.2966 0.6323
9.9600 3.3032 0.6444
9.9800 3.3099 0.6456
10.0000 3.3166 0.6280
10.0200 3.3233 0.6426
10.0400 3.3300 0.6439
10.0600 3.3367 0.6246
10.0800 3.3433 0.6460
10.1000 3.3500 0.6409
10.1200 3.3566 0.6292
10.1400 3.3632 0.6432
10.1600 3.3698 0.6408
10.1800 3.3765 0.6251
10.2000 3.3832 0.6416
10.2200 3.3899 0.6403
10.2400 3.3966 0.6256
10.2600 3.4033 0.6419
10.2800 3.4100 0.6398
10.3000 3.4166 0.6245
10.3200 3.4232 0.6433
10.3400 3.4298 0.6355
10.3600 3.4365 0.6233
10.3800 3.4432 0.6416
10.4000 3.4499 0.6337
10.4200 3.4566 0.6226
10.4400 3.4633 0.6445
10.4600 3.4699 0.6323
10.4800 3.4766 0.6213
10.5000 3.4832 0.6396
10.5200 3.4899 0.6312
10.5400 3.4966 0.6247
10.5600 3.5033 0.6356
10.5800 3.5099 0.6314
10.6000 3.5166 0.6229
10.6200 3.5233 0.6406
10.6400 3.5300 0.6311
10.6600 3.5367 0.6207
10.6800 3.5433 0.6349
10.7000 3.5499 0.6334
10.7200 3.5565 0.6202
10.7400 3.5632 0.6316
10.7600 3.5699 0.6289
10.7800 3.5766 0.6212
10.8000 3.5833 0.6302
10.8200 3.5900 0.6285
10.8400 3.5967 0.6185
10.8600 3.6033 0.6345
10.8800 3.6099 0.6288
10.9000 3.6165 0.6184
10.9200 3.6233 0.6294
10.9400 3.6300 0.6297
10.9600 3.6366 0.6153
10.9800 3.6433 0.6294
11.0000 3.6500 0.6246
11.0200 3.6566 0.6192
11.0400 3.6632 0.6280
11.0600 3.6698 0.6267
11.0800 3.6765 0.6232
11.1000 3.6832 0.6281
11.1200 3.6899 0.6189
11.1400 3.6965 0.6222
11.1600 3.7032 0.6250
11.1800 3.7099 0.6192
11.2000 3.7166 0.6192
11.2200 3.7232 0.6230
11.2400 3.7298 0.6199
11.2600 3.7365 0.6193
11.2800 3.7432 0.6251
11.3000 3.7499 0.6217
11.3200 3.7567 0.6231
11.3400 3.7634 0.6236
11.3600 3.7701 0.6175
11.3800 3.7767 0.6151
11.4000 3.7833 0.6215
11.4200 3.7899 0.6218
11.4400 3.7965 0.6188
11.4600 3.8033 0.6205
11.4800 3.8100 0.6218
11.5000 3.8167 0.6161
11.5200 3.8233 0.6204
11.5400 3.8300 0.6202
11.5600 3.8366 0.6168
11.5800 3.8433 0.6160
11.6000 3.8499 0.6212
11.6200 3.8565 0.6127
11.6400 3.8632 0.6171
11.6600 3.8699 0.6215
11.6800 3.8766 0.6119
11.7000 3.8833 0.6179
11.7200 3.8900 0.6193
11.7400 3.8966 0.6087
11.7600 3.9032 0.6135
11.7800 3.9098 0.6171
11.8000 3.9165 0.6121
11.8200 3.9232 0.6117
11.8400 3.9299 0.6135
11.8600 3.9366 0.6113
11.8800 3.9433 0.6141
11.9000 3.9500 0.6132
11.9200 3.9566 0.6092
11.9400 3.9632 0.6142
11.9600 3.9698 0.6102
11.9800 3.9765 0.6099
12.0000 3.9833 0.6090
12.0200 3.9900 0.6090
12.0400 3.9967 0.6093
12.0600 4.0033 0.6101
12.0800 4.0100 0.6095
12.1000 4.0167 0.6077
12.1200 4.0233 0.6072
12.1400 4.0299 0.6143
12.1600 4.0366 0.6017
12.1800 4.0433 0.6069
12.2000 4.0499 0.6132
12.2200 4.0566 0.6019
12.2400 4.0633 0.6033
12.2600 4.0700 0.6119
12.2800 4.0767 0.5972
12.3000 4.0833 0.6063
12.3200 4.0899 0.6134
12.3400 4.0965 0.5994
12.3600 4.1032 0.6054
12.3800 4.1099 0.6049
12.4000 4.1166 0.5951
12.4200 4.1233 0.6048
12.4400 4.1300 0.6047
12.4600 4.1366 0.5979
12.4800 4.1432 0.5999
12.5000 4.1498 0.6042
12.5200 4.1565 0.6034
12.5400 4.1632 0.6006
12.5600 4.1699 0.5971
12.5800 4.1766 0.5989
12.6000 4.1833 0.5984
12.6200 4.1900 0.5982
12.6400 4.1967 0.5992
12.6600 4.2033 0.5948
12.6800 4.2099 0.5999
12.7000 4.2165 0.5961
12.7200 4.2232 0.5948
12.7400 4.2299 0.6014
12.7600 4.2366 0.6012
12.7800 4.2433 0.5919
12.8000 4.2500 0.5997
12.8200 4.2567 0.5962
12.8400 4.2633 0.5928
12.8600 4.2699 0.5986
12.8800 4.2765 0.5980
12.9000 4.2832 0.5914
12.9200 4.2899 0.5999
12.9400 4.2966 0.5953
12.9600 4.3033 0.5907
12.9800 4.3100 0.5958
13.0000 4.3167 0.5922
13.0200 4.3233 0.5881
13.0400 4.3299 0.5972
13.0600 4.3365 0.5961
13.0800 4.3432 0.5939
13.1000 4.3499 0.5931
13.1200 4.3566 0.5925
13.1400 4.3633 0.5967
13.1600 4.3700 0.5914
13.1800 4.3767 0.5853
13.2000 4.3833 0.5934
13.2200 4.3899 0.5935
13.2400 4.3965 0.5858
13.2600 4.4032 0.5936
13.2800 4.4099 0.5866
13.3000 4.4166 0.5895
13.3200 4.4233 0.5999
13.3400 4.4300 0.5829
13.3600 4.4367 0.5859
13.3800 4.4433 0.5960
13.4000 4.4499 0.5822
13.4200 4.4565 0.5976
13.4400 4.4632 0.5923
13.4600 4.4699 0.5794
13.4800 4.4767 0.5960
13.5000 4.4834 0.5902
13.5200 4.4900 0.5768
13.5400 4.4967 0.5979
13.5600 4.5033 0.5840
13.5800 4.5099 0.5814
13.6000 4.5165 0.5969
13.6200 4.5232 0.5777
13.6400 4.5299 0.5808
13.6600 4.5366 0.5985
13.6800 4.5433 0.5778
13.7000 4.5500 0.5822
13.7200 4.5566 0.5905
13.7400 4.5633 0.5737
13.7600 4.5698 0.5877
13.7800 4.5765 0.5955
13.8000 4.5832 0.5748
13.8200 4.5899 0.5839
13.8400 4.5966 0.5868
13.8600 4.6033 0.5767
13.8800 4.6100 0.5868
13.9000 4.6167 0.5840
13.9200 4.6233 0.5798
13.9400 4.6299 0.5882
13.9600 4.6365 0.5821
13.9800 4.6432 0.5729
14.0000 4.6499 0.5877
14.0200 4.6566 0.5843
14.0400 4.6633 0.5740
14.0600 4.6700 0.5843
14.0800 4.6766 0.5817
14.1000 4.6833 0.5780
14.1200 4.6899 0.5831
14.1400 4.6965 0.5798
14.1600 4.7032 0.5789
14.1800 4.7099 0.5784
14.2000 4.7166 0.5807
14.2200 4.7233 0.5770
14.2400 4.7300 0.5785
14.2600 4.7367 0.5775
14.2800 4.7433 0.5769
14.3000 4.7499 0.5776
14.3200 4.7565 0.5845
14.3400 4.7632 0.5767
14.3600 4.7699 0.5728
14.3800 4.7766 0.5829
14.4000 4.7833 0.5774
14.4200 4.7900 0.5737
14.4400 4.7967 0.5855
14.4600 4.8033 0.5698
14.4800 4.8099 0.5755
14.5000 4.8165 0.5891
14.5200 4.8232 0.5732
14.5400 4.8299 0.5733
14.5600 4.8366 0.5830
14.5800 4.8432 0.5727
14.6000 4.8499 0.5739
14.6200 4.8566 0.5829
14.6400 4.8632 0.5687
14.6600 4.8699 0.5724
14.6800 4.8765 0.5823
14.7000 4.8832 0.5688
14.7200 4.8899 0.5759
14.7400 4.8966 0.5768
14.7600 4.9032 0.5668
14.7800 4.9099 0.5771
14.8000 4.9166 0.5749
14.8200 4.9233 0.5639
14.8400 4.9299 0.5702
14.8600 4.9366 0.5746
14.8800 4.9432 0.5687
14.9000 4.9499 0.5813
14.9200 4.9566 0.5688
14.9400 4.9633 0.5668
14.9600 4.9700 0.5738
14.9800 4.9767 0.5670
15.0000 4.9833 0.5718
15.0200 4.9899 0.5725
15.0400 4.9965 0.5696
15.0600 5.0032 0.5698
15.0800 5.0099 0.5650
15.1000 5.0166 0.5704
15.1200 5.0233 0.5727
15.1400 5.0300 0.5614
15.1600 5.0367 0.5668
15.1800 5.0433 0.5736
15.2000 5.0499 0.5581
15.2200 5.0565 0.5728
15.2400 5.0632 0.5726
15.2600 5.0699 0.5517
15.2800 5.0766 0.5696
15.3000 5.0833 0.5690
15.3200 5.0900 0.5503
15.3400 5.0967 0.5705
15.3600 5.1033 0.5641
15.3800 5.1099 0.5484
15.4000 5.1165 0.5751
15.4200 5.1231 0.5636
15.4400 5.1298 0.5524
15.4600 5.1366 0.5695
15.4800 5.1432 0.5581
15.5000 5.1499 0.5473
15.5200 5.1566 0.5727
15.5400 5.1633 0.5524
15.5600 5.1699 0.5473
15.5800 5.1765 0.5691
15.6000 5.1832 0.5535
15.6200 5.1899 0.5490
15.6400 5.1966 0.5679
15.6600 5.2033 0.5519
15.6800 5.2100 0.5530
15.7000 5.2167 0.5621
15.7200 5.2234 0.5476
15.7400 5.2300 0.5534
15.7600 5.2366 0.5673
15.7800 5.2433 0.5473
15.8000 5.2500 0.5508
15.8200 5.2567 0.5582
15.8400 5.2633 0.5484
15.8600 5.2700 0.5492
15.8800 5.2767 0.5549
15.9000 5.2833 0.5531
15.9200 5.2899 0.5503
15.9400 5.2965 0.5515
15.9600 5.3031 0.5526
15.9800 5.3098 0.5531
16.0000 5.3165 0.5518
16.0200 5.3232 0.5512
16.0400 5.3299 0.5472
16.0600 5.3366 0.5492
16.0800 5.3433 0.5542
16.1000 5.3499 0.5451
16.1200 5.3565 0.5493
16.1400 5.3632 0.5524
16.1600 5.3699 0.5442
16.1800 5.3766 0.5505
16.2000 5.3833 0.5469
16.2200 5.3899 0.5490
16.2400 5.3966 0.5453
16.2600 5.4033 0.5487
16.2800 5.4100 0.5457
16.3000 5.4166 0.5461
16.3200 5.4232 0.5483
16.3400 5.4299 0.5431
16.3600 5.4366 0.5493
16.3800 5.4433 0.5506
16.4000 5.4500 0.5429
16.4200 5.4567 0.5464
16.4400 5.4633 0.5454
16.4600 5.4699 0.5454
16.4800 5.4765 0.5464
16.5000 5.4832 0.5524
16.5200 5.4899 0.5413
16.5400 5.4966 0.5442
16.5600 5.5033 0.5520
16.5800 5.5100 0.5391
16.6000 5.5166 0.5459
16.6200 5.5233 0.5544
16.6400 5.5299 0.5369
16.6600 5.5365 0.5427
16.6800 5.5432 0.5581
16.7000 5.5499 0.5367
16.7200 5.5566 0.5431
16.7400 5.5633 0.5541
16.7600 5.5699 0.5382
16.7800 5.5766 0.5441
16.8000 5.5832 0.5502
16.8200 5.5898 0.5385
16.8400 5.5965 0.5484
16.8600 5.6031 0.5509
16.8800 5.6098 0.5380
16.9000 5.6166 0.5466
16.9200 5.6233 0.5473
16.9400 5.6300 0.5337
16.9600 5.6367 0.5453
16.9800 5.6433 0.5459
17.0000 5.6500 0.5364
17.0200 5.6566 0.5469
17.0400 5.6632 0.5454
17.0600 5.6699 0.5366
17.0800 5.6766 0.5440
17.1000 5.6833 0.5422
17.1200 5.6900 0.5402
17.1400 5.6967 0.5437
17.1600 5.7033 0.5410
17.1800 5.7099 0.5401
17.2000 5.7165 0.5438
17.2200 5.7232 0.5404
17.2400 5.7299 0.5411
17.2600 5.7366 0.5416
17.2800 5.7433 0.5393
17.3000 5.7500 0.5368
17.3200 5.7567 0.5438
17.3400 5.7633 0.5348
17.3600 5.7699 0.5391
17.3800 5.7765 0.5397
17.4000 5.7832 0.5342
17.4200 5.7899 0.5423
17.4400 5.7966 0.5368
17.4600 5.8033 0.5347
17.4800 5.8100 0.5412
17.5000 5.8167 0.5387
17.5200 5.8233 0.5315
17.5400 5.8299 0.5443
17.5600 5.8365 0.5363
17.5800 5.8431 0.5329
17.6000 5.8498 0.5406
17.6200 5.8565 0.5311
17.6400 5.8632 0.5321
17.6600 5.8699 0.5402
17.6800 5.8766 0.5243
17.7000 5.8833 0.5344
17.7200 5.8899 0.5408
17.7400 5.8966 0.5272
17.7600 5.9032 0.5312
17.7800 5.9099 0.5350
17.8000 5.9166 0.5270
17.8200 5.9233 0.5359
17.8400 5.9300 0.5291
17.8600 5.9367 0.5274
17.8800 5.9434 0.5353
17.9000 5.9500 0.5316
17.9200 5.9566 0.5277
17.9400 5.9632 0.5364
17.9600 5.9699 0.5302
17.9800 5.9766 0.5267
18.0000 5.9833 0.5298
18.0200 5.9900 0.5268
18.0400 5.9967 0.5292
18.0600 6.0033 0.5252
18.0800 6.0099 0.5265
18.1000 6.0165 0.5308
18.1200 6.0231 0.5295
18.1400 6.0299 0.5251
18.1600 6.0366 0.5246
18.1800 6.0433 0.5221
18.2000 6.0500 0.5284
18.2200 6.0566 0.5239
18.2400 6.0633 0.5175
18.2600 6.0699 0.5285
18.2800 6.0766 0.5220
18.3000 6.0832 0.5229
18.3200 6.0899 0.5325
18.3400 6.0966 0.5159
18.3600 6.1032 0.5187
18.3800 6.1099 0.5298
18.4000 6.1166 0.5162
18.4200 6.1233 0.5194
18.4400 6.1299 0.5294
18.4600 6.1365 0.5144
18.4800 6.1432 0.5224
18.5000 6.1499 0.5293
18.5200 6.1566 0.5169
18.5400 6.1633 0.5172
18.5600 6.1700 0.5268
18.5800 6.1767 0.5145
18.6000 6.1833 0.5193
18.6200 6.1899 0.5247
18.6400 6.1965 0.5137
18.6600 6.2032 0.5199
18.6800 6.2099 0.5246
18.7000 6.2166 0.5100
18.7200 6.2233 0.5165
18.7400 6.2300 0.5245
18.7600 6.2367 0.5143
18.7800 6.2433 0.5142
18.8000 6.2500 0.5247
18.8200 6.2566 0.5142
18.8400 6.2632 0.5166
18.8600 6.2699 0.5220
18.8800 6.2766 0.5090
18.9000 6.2833 0.5155
18.9200 6.2899 0.5214
18.9400 6.2966 0.5106
18.9600 6.3033 0.5124
18.9800 6.3099 0.5177
19.0000 6.3165 0.5118
19.0200 6.3231 0.5168
19.0400 6.3298 0.5194
19.0600 6.3365 0.5070
19.0800 6.3432 0.5099
19.1000 6.3499 0.5192
19.1200 6.3566 0.5026
19.1400 6.3633 0.5126
19.1600 6.3699 0.5199
19.1800 6.3765 0.5055
19.2000 6.3832 0.5117
19.2200 6.3899 0.5217
19.2400 6.3966 0.5051
19.2600 6.4033 0.5139
19.2800 6.4100 0.5108
19.3000 6.4167 0.5059
19.3200 6.4234 0.5121
19.3400 6.4300 0.5094
19.3600 6.4366 0.5056
19.3800 6.4432 0.5137
19.4000 6.4499 0.5070
19.4200 6.4566 0.5052
19.4400 6.4633 0.5153
19.4600 6.4700 0.5100
19.4800 6.4767 0.5068
19.5000 6.4833 0.5056
19.5200 6.4900 0.5053
19.5400 6.4966 0.5049
19.5600 6.5032 0.5111
19.5800 6.5098 0.5067
19.6000 6.5165 0.5014
19.6200 6.5233 0.5106
19.6400 6.5300 0.5030
19.6600 6.5367 0.5047
19.6800 6.5433 0.5091
19.7000 6.5500 0.5018
19.7200 6.5565 0.5023
19.7400 6.5631 0.5031
19.7600 6.5698 0.5058
19.7800 6.5765 0.4983
19.8000 6.5832 0.5036
19.8200 6.5899 0.5018
19.8400 6.5966 0.5015
19.8600 6.6033 0.5065
19.8800 6.6099 0.5012
19.9000 6.6166 0.4989
19.9200 6.6232 0.5120
19.9400 6.6299 0.4970
19.9600 6.6366 0.4971
19.9800 6.6433 0.5066
20.0000 6.6500 0.4946
20.0200 6.6567 0.4966
20.0400 6.6634 0.5075
20.0600 6.6700 0.4954
20.0800 6.6766 0.5036
20.1000 6.6832 0.5035
20.1200 6.6899 0.4933
20.1400 6.6966 0.4985
20.1600 6.7033 0.5042
20.1800 6.7100 0.4953
20.2000 6.7167 0.5004
20.2200 6.7233 0.4983
20.2400 6.7300 0.4913
20.2600 6.7366 0.5054
20.2800 6.7432 0.5011
20.3000 6.7498 0.4948
20.3200 6.7566 0.5000
20.3400 6.7633 0.4929
20.3600 6.7699 0.4926
20.3800 6.7766 0.5028
20.4000 6.7833 0.4901
20.4200 6.7899 0.4937
20.4400 6.7966 0.5001
20.4600 6.8032 0.4892
20.4800 6.8098 0.4985
20.5000 6.8165 0.4998
20.5200 6.8232 0.4856
20.5400 6.8299 0.4979
20.5600 6.8366 0.4918
20.5800 6.8433 0.4878
20.6000 6.8500 0.4968
20.6200 6.8566 0.4889
20.6400 6.8632 0.4870
20.6600 6.8699 0.4995
20.6800 6.8766 0.4852
20.7000 6.8833 0.4865
20.7200 6.8900 0.4971
20.7400 6.8967 0.4817
20.7600 6.9033 0.4814
20.7800 6.9100 0.4945
20.8000 6.9165 0.4814
20.8200 6.9232 0.4911
20.8400 6.9298 0.4936
20.8600 6.9366 0.4805
20.8800 6.9433 0.4903
20.9000 6.9500 0.4881
20.9200 6.9566 0.4823
20.9400 6.9633 0.4899
20.9600 6.9700 0.4857
20.9800 6.9766 0.4829
21.0000 6.9832 0.4898
21.0200 6.9899 0.4810
21.0400 6.9966 0.4835
21.0600 7.0033 0.4887
21.0800 7.0099 0.4800
21.1000 7.0166 0.4826
21.1200 7.0233 0.4836
21.1400 7.0300 0.4784
21.1600 7.0366 0.4785
21.1800 7.0431 0.4823
21.2000 7.0498 0.4840
21.2200 7.0565 0.4858
21.2400 7.0632 0.4828
21.2600 7.0699 0.4737
21.2800 7.0766 0.4853
21.3000 7.0832 0.4796
21.3200 7.0899 0.4768
21.3400 7.0965 0.4870
21.3600 7.1032 0.4778
21.3800 7.1098 0.4711
21.4000 7.1166 0.4840
21.4200 7.1233 0.4764
21.4400 7.1299 0.4783
21.4600 7.1366 0.4830
21.4800 7.1433 0.4702
21.5000 7.1500 0.4738
21.5200 7.1566 0.4810
21.5400 7.1632 0.4746
21.5600 7.1699 0.4774
21.5800 7.1766 0.4757
21.6000 7.1833 0.4753
21.6200 7.1899 0.4783
21.6400 7.1966 0.4703
21.6600 7.2033 0.4739
21.6800 7.2100 0.4775
21.7000 7.2166 0.4719
21.7200 7.2232 0.4755
21.7400 7.2299 0.4799
21.7600 7.2366 0.4668
21.7800 7.2433 0.4741
21.8000 7.2500 0.4736
21.8200 7.2566 0.4749
21.8400 7.2633 0.4750
21.8600 7.2700 0.4683
21.8800 7.2766 0.4688
21.9000 7.2832 0.4768
21.9200 7.2898 0.4680
21.9400 7.2965 0.4690
21.9600 7.3032 0.4742
21.9800 7.3099 0.4704
22.0000 7.3166 0.4715
22.0200 7.3233 0.4760
22.0400 7.3299 0.4632
22.0600 7.3366 0.4716
22.0800 7.3432 0.4736
22.1000 7.3499 0.4667
22.1200 7.3565 0.4720
22.1400 7.3633 0.4713
22.1600 7.3700 0.4647
22.1800 7.3766 0.4708
22.2000 7.3833 0.4695
22.2200 7.3900 0.4651
22.2400 7.3966 0.4727
22.2600 7.4032 0.4693
22.2800 7.4099 0.4622
22.3000 7.4166 0.4729
22.3200 7.4233 0.4660
22.3400 7.4300 0.4618
22.3600 7.4366 0.4755
22.3800 7.4433 0.4631
22.4000 7.4500 0.4603
22.4200 7.4566 0.4689
22.4400 7.4632 0.4652
22.4600 7.4698 0.4622
22.4800 7.4765 0.4693
22.5000 7.4832 0.4619
22.5200 7.4899 0.4623
22.5400 7.4966 0.4678
22.5600 7.5033 0.4608
22.5800 7.5100 0.4631
22.6000 7.5166 0.4655
22.6200 7.5232 0.4604
22.6400 7.5298 0.4620
22.6600 7.5365 0.4652
22.6800 7.5432 0.4587
22.7000 7.5500 0.4609
22.7200 7.5566 0.4645
22.7400 7.5633 0.4537
22.7600 7.5700 0.4655
22.7800 7.5766 0.4612
22.8000 7.5832 0.4581
22.8200 7.5899 0.4592
22.8400 7.5966 0.4599
22.8600 7.6033 0.4598
22.8800 7.6099 0.4583
22.9000 7.6166 0.4612
22.9200 7.6233 0.4614
22.9400 7.6300 0.4565
22.9600 7.6366 0.4585
22.9800 7.6433 0.4606
23.0000 7.6499 0.4601
23.0200 7.6566 0.4572
23.0400 7.6633 0.4574
23.0600 7.6700 0.4587
23.0800 7.6766 0.4588
23.1000 7.6833 0.4594
23.1200 7.6900 0.4534
23.1400 7.6967 0.4543
23.1600 7.7032 0.4544
23.1800 7.7098 0.4580
23.2000 7.7165 0.4572
23.2200 7.7232 0.4594
23.2400 7.7300 0.4539
23.2600 7.7366 0.4555
23.2800 7.7433 0.4547
23.3000 7.7500 0.4502
23.3200 7.7566 0.4590
23.3400 7.7632 0.4581
23.3600 7.7698 0.4456
23.3800 7.7765 0.4576
23.4000 7.7832 0.4549
23.4200 7.7899 0.4465
23.4400 7.7966 0.4580
23.4600 7.8032 0.4542
23.4800 7.8099 0.4449
23.5000 7.8166 0.4566
23.5200 7.8232 0.4498
23.5400 7.8299 0.4471
23.5600 7.8365 0.4585
23.5800 7.8432 0.4492
23.6000 7.8499 0.4454
23.6200 7.8566 0.4559
23.6400 7.8633 0.4525
23.6600 7.8700 0.4473
23.6800 7.8767 0.4509
23.7000 7.8832 0.4460
23.7200 7.8899 0.4494
23.7400 7.8965 0.4490
23.7600 7.9033 0.4443
23.7800 7.9100 0.4501
23.8000 7.9167 0.4462
23.8200 7.9234 0.4461
23.8400 7.9300 0.4513
23.8600 7.9366 0.4420
23.8800 7.9432 0.4474
23.9000 7.9498 0.4474
23.9200 7.9565 0.4433
23.9400 7.9633 0.4474
23.9600 7.9699 0.4487
23.9800 7.9766 0.4426
24.0000 7.9833 0.4460
24.0200 7.9900 0.4397
24.0400 7.9967 0.4440
24.0600 8.0033 0.4446
24.0800 8.0099 0.4436
24.1000 8.0165 0.4434
24.1200 8.0232 0.4435
24.1400 8.0299 0.4421
24.1600 8.0366 0.4462
24.1800 8.0433 0.4458
24.2000 8.0499 0.4375
24.2200 8.0566 0.4453
24.2400 8.0632 0.4440
24.2600 8.0698 0.4336
24.2800 8.0765 0.4423
24.3000 8.0833 0.4371
24.3200 8.0900 0.4344
24.3400 8.0967 0.4437
24.3600 8.1033 0.4368
24.3800 8.1100 0.4381
24.4000 8.1166 0.4408
24.4200 8.1232 0.4333
24.4400 8.1298 0.4368
24.4600 8.1365 0.4420
24.4800 8.1433 0.4340
24.5000 8.1500 0.4385
24.5200 8.1567 0.4387
24.5400 8.1633 0.4336
24.5600 8.1700 0.4393
24.5800 8.1766 0.4402
24.6000 8.1832 0.4306
24.6200 8.1899 0.4415
24.6400 8.1965 0.4351
24.6600 8.2032 0.4289
24.6800 8.2099 0.4380
24.7000 8.2166 0.4376
24.7200 8.2233 0.4272
24.7400 8.2300 0.4422
24.7600 8.2366 0.4291
24.7800 8.2432 0.4316
24.8000 8.2498 0.4390
24.8200 8.2565 0.4287
24.8400 8.2632 0.4354
24.8600 8.2699 0.4353
24.8800 8.2766 0.4260
24.9000 8.2833 0.4313
24.9200 8.2900 0.4370
24.9400 8.2966 0.4239
24.9600 8.3033 0.4305
24.9800 8.3099 0.4351
25.0000 8.3165 0.4255
25.0200 8.3232 0.4328
25.0400 8.3299 0.4288
25.0600 8.3366 0.4276
25.0800 8.3433 0.4355
25.1000 8.3500 0.4231
25.1200 8.3567 0.4285
25.1400 8.3633 0.4318
25.1600 8.3699 0.4258
25.1800 8.3765 0.4255
25.2000 8.3832 0.4295
25.2200 8.3899 0.4240
25.2400 8.3966 0.4230
25.2600 8.4033 0.4294
25.2800 8.4100 0.4255
25.3000 8.4167 0.4235
25.3200 8.4233 0.4316
25.3400 8.4299 0.4231
25.3600 8.4365 0.4229
25.3800 8.4432 0.4308
25.4000 8.4500 0.4215
25.4200 8.4566 0.4207
25.4400 8.4633 0.4294
25.4600 8.4700 0.4204
25.4800 8.4766 0.4213
25.5000 8.4832 0.4233
25.5200 8.4898 0.4193
25.5400 8.4965 0.4239
25.5600 8.5032 0.4201
25.5800 8.5099 0.4160
25.6000 8.5165 0.4228
25.6200 8.5232 0.4209
25.6400 8.5299 0.4193
25.6600 8.5366 0.4201
25.6800 8.5432 0.4162
25.7000 8.5499 0.4205
25.7200 8.5565 0.4227
25.7400 8.5632 0.4156
25.7600 8.5699 0.4163
25.7800 8.5766 0.4226
25.8000 8.5833 0.4117
25.8200 8.5900 0.4237
25.8400 8.5967 0.4176
25.8600 8.6033 0.4109
25.8800 8.6099 0.4227
25.9000 8.6165 0.4157
25.9200 8.6233 0.4113
25.9400 8.6300 0.4218
25.9600 8.6367 0.4110
25.9800 8.6433 0.4134
26.0000 8.6500 0.4200
26.0200 8.6567 0.4139
26.0400 8.6633 0.4148
26.0600 8.6699 0.4205
26.0800 8.6765 0.4095
26.1000 8.6832 0.4133
26.1200 8.6899 0.4140
26.1400 8.6966 0.4101
26.1600 8.7033 0.4140
26.1800 8.7100 0.4151
26.2000 8.7166 0.4087
26.2200 8.7232 0.4118
26.2400 8.7298 0.4146
26.2600 8.7365 0.4109
26.2800 8.7432 0.4078
26.3000 8.7499 0.4124
26.3200 8.7566 0.4092
26.3400 8.7632 0.4109
26.3600 8.7699 0.4128
26.3800 8.7766 0.4068
26.4000 8.7832 0.4077
26.4200 8.7898 0.4115
26.4400 8.7965 0.4104
26.4600 8.8032 0.4025
26.4800 8.8100 0.4119
26.5000 8.8167 0.4063
26.5200 8.8233 0.4010
26.5400 8.8300 0.4104
26.5600 8.8367 0.4073
26.5800 8.8433 0.4029
26.6000 8.8499 0.4067
26.6200 8.8566 0.4040
26.6400 8.8633 0.4023
26.6600 8.8699 0.4096
26.6800 8.8766 0.4015
26.7000 8.8833 0.3977
26.7200 8.8900 0.4122
26.7400 8.8967 0.3982
26.7600 8.9033 0.4050
26.7800 8.9099 0.4116
26.8000 8.9165 0.3966
26.8200 8.9232 0.4066
26.8400 8.9299 0.4052
26.8600 8.9366 0.3880
26.8800 8.9433 0.4039
26.9000 8.9500 0.4038
26.9200 8.9566 0.3910
26.9400 8.9632 0.4017
26.9600 8.9698 0.4054
26.9800 8.9765 0.3957
27.0000 8.9832 0.4025
27.0200 8.9899 0.4038
27.0400 8.9966 0.3950
27.0600 9.0033 0.4008
27.0800 9.0099 0.3993
27.1000 9.0166 0.3945
27.1200 9.0233 0.3975
27.1400 9.0299 0.4016
27.1600 9.0365 0.3967
27.1800 9.0432 0.4000
27.2000 9.0499 0.4011
27.2200 9.0566 0.3940
27.2400 9.0633 0.3952
27.2600 9.0700 0.3974
27.2800 9.0767 0.3933
27.3000 9.0833 0.3984
27.3200 9.0899 0.3966
27.3400 9.0965 0.3938
27.3600 9.1032 0.3958
27.3800 9.1099 0.3977
27.4000 9.1166 0.3905
27.4200 9.1233 0.3945
27.4400 9.1300 0.3973
27.4600 9.1367 0.3880
27.4800 9.1433 0.3918
27.5000 9.1499 0.3979
27.5200 9.1565 0.3931
27.5400 9.1632 0.3936
27.5600 9.1699 0.3963
27.5800 9.1766 0.3883
27.6000 9.1833 0.3865
27.6200 9.1900 0.3976
27.6400 9.1967 0.3867
27.6600 9.2033 0.3896
27.6800 9.2099 0.3959
27.7000 9.2165 0.3860
27.7200 9.2231 0.3903
27.7400 9.2299 0.3933
27.7600 9.2366 0.3863
27.7800 9.2433 0.3904
27.8000 9.2500 0.3875
27.8200 9.2566 0.3824
27.8400 9.2633 0.3882
27.8600 9.2699 0.3847
27.8800 9.2765 0.3884
27.9000 9.2832 0.3924
27.9200 9.2899 0.3831
27.9400 9.2966 0.3806
27.9600 9.3033 0.3880
27.9800 9.3100 0.3833
28.0000 9.3167 0.3831
28.0200 9.3233 0.3829
28.0400 9.3299 0.3812
28.0600 9.3366 0.3899
28.0800 9.3433 0.3835
28.1000 9.3500 0.3773
28.1200 9.3566 0.3863
28.1400 9.3633 0.3810
28.1600 9.3700 0.3798
28.1800 9.3766 0.3830
28.2000 9.3833 0.3812
28.2200 9.3899 0.3825
28.2400 9.3965 0.3857
28.2600 9.4032 0.3778
28.2800 9.4099 0.3792
28.3000 9.4166 0.3821
28.3200 9.4233 0.3753
28.3400 9.4300 0.3791
28.3600 9.4367 0.3790
28.3800 9.4433 0.3715
28.4000 9.4499 0.3845
28.4200 9.4565 0.3755
28.4400 9.4632 0.3730
28.4600 9.4699 0.3843
28.4800 9.4766 0.3713
28.5000 9.4833 0.3723
28.5200 9.4900 0.3805
28.5400 9.4966 0.3750
28.5600 9.5033 0.3703
28.5800 9.5099 0.3789
28.6000 9.5165 0.3746
28.6200 9.5232 0.3725
28.6400 9.5299 0.3796
28.6600 9.5366 0.3725
28.6800 9.5433 0.3703
28.7000 9.5500 0.3789
28.7200 9.5567 0.3665
28.7400 9.5633 0.3726
28.7600 9.5699 0.3748
28.7800 9.5766 0.3715
28.8000 9.5832 0.3699
28.8200 9.5899 0.3776
28.8400 9.5966 0.3739
28.8600 9.6033 0.3699
28.8800 9.6100 0.3709
28.9000 9.6167 0.3755
28.9200 9.6233 0.3687
28.9400 9.6299 0.3693
28.9600 9.6365 0.3743
28.9800 9.6432 0.3685
29.0000 9.6499 0.3739
29.0200 9.6566 0.3735
29.0400 9.6632 0.3686
29.0600 9.6699 0.3765
29.0800 9.6766 0.3718
29.1000 9.6833 0.3651
29.1200 9.6899 0.3743
29.1400 9.6965 0.3725
29.1600 9.7032 0.3652
29.1800 9.7099 0.3713
29.2000 9.7166 0.3708
29.2200 9.7232 0.3643
29.2400 9.7299 0.3762
29.2600 9.7366 0.3703
29.2800 9.7433 0.3657
29.3000 9.7499 0.3719
29.3200 9.7566 0.3677
29.3400 9.7632 0.3642
29.3600 9.7699 0.3744
29.3800 9.7766 0.3647
29.4000 9.7833 0.3679
29.4200 9.7900 0.3722
29.4400 9.7967 0.3605
29.4600 9.8033 0.3679
29.4800 9.8099 0.3709
29.5000 9.8165 0.3600
29.5200 9.8232 0.3703
29.5400 9.8299 0.3664
29.5600 9.8366 0.3599
29.5800 9.8433 0.3713
29.6000 9.8500 0.3642
29.6200 9.8567 0.3574
29.6400 9.8633 0.3705
29.6600 9.8699 0.3569
29.6800 9.8765 0.3590
29.7000 9.8832 0.3730
29.7200 9.8899 0.3562
29.7400 9.8966 0.3600
29.7600 9.9033 0.3720
29.7800 9.9099 0.3549
29.8000 9.9166 0.3581
29.8200 9.9233 0.3670
29.8400 9.9299 0.3567
29.8600 9.9365 0.3582
29.8800 9.9431 0.3682
29.9000 9.9498 0.3568
29.9200 9.9566 0.3577
29.9400 9.9633 0.3663
29.9600 9.9699 0.3537
29.9800 9.9766 0.3574
30.0000 9.9833 0.3553
30.0200 9.9899 0.3535
30.0400 9.9965 0.3591
30.0600 10.0032 0.3574
30.0800 10.0099 0.3512
30.1000 10.0166 0.3524
30.1200 10.0233 0.3533
30.1400 10.0300 0.3577
30.1600 10.0367 0.3556
30.1800 10.0433 0.3556
30.2000 10.0500 0.3530
30.2200 10.0566 0.3521
30.2400 10.0632 0.3512
30.2600 10.0699 0.3597
30.2800 10.0766 0.3502
30.3000 10.0833 0.3495
30.3200 10.0900 0.3529
30.3400 10.0967 0.3496
30.3600 10.1033 0.3529
30.3800 10.1099 0.3495
30.4000 10.1165 0.3486
30.4200 10.1231 0.3571
30.4400 10.1298 0.3534
30.4600 10.1366 0.3455
30.4800 10.1432 0.3565
30.5000 10.1499 0.3519
30.5200 10.1566 0.3426
30.5400 10.1633 0.3534
30.5600 10.1699 0.3491
30.5800 10.1765 0.3429
30.6000 10.1832 0.3574
30.6200 10.1899 0.3448
30.6400 10.1966 0.3446
30.6600 10.2033 0.3535
30.6800 10.2099 0.3415
30.7000 10.2166 0.3436
30.7200 10.2233 0.3535
30.7400 10.2299 0.3392
30.7600 10.2366 0.3464
30.7800 10.2432 0.3516
30.8000 10.2499 0.3386
30.8200 10.2566 0.3443
30.8400 10.2633 0.3511
30.8600 10.2700 0.3390
30.8800 10.2767 0.3488
30.9000 10.2834 0.3479
30.9200 10.2900 0.3378
30.9400 10.2965 0.3477
30.9600 10.3032 0.3465
30.9800 10.3099 0.3382
31.0000 10.3166 0.3513
31.0200 10.3233 0.3442
31.0400 10.3300 0.3363
31.0600 10.3366 0.3473
31.0800 10.3433 0.3441
31.1000 10.3499 0.3400
31.1200 10.3565 0.3482
31.1400 10.3632 0.3448
31.1600 10.3699 0.3395
31.1800 10.3766 0.3448
31.2000 10.3833 0.3438
31.2200 10.3899 0.3444
31.2400 10.3966 0.3431
31.2600 10.4033 0.3395
31.2800 10.4099 0.3380
31.3000 10.4165 0.3443
31.3200 10.4232 0.3405
31.3400 10.4298 0.3397
31.3600 10.4366 0.3429
31.3800 10.4433 0.3451
31.4000 10.4499 0.3400
31.4200 10.4566 0.3342
31.4400 10.4633 0.3385
31.4600 10.4700 0.3418
31.4800 10.4765 0.3335
31.5000 10.4832 0.3455
31.5200 10.4899 0.3353
31.5400 10.4966 0.3318
31.5600 10.5033 0.3439
31.5800 10.5100 0.3367
31.6000 10.5167 0.3314
31.6200 10.5233 0.3401
31.6400 10.5300 0.3348
31.6600 10.5366 0.3306
31.6800 10.5432 0.3408
31.7000 10.5499 0.3350
31.7200 10.5566 0.3268
31.7400 10.5633 0.3438
31.7600 10.5700 0.3342
31.7800 10.5767 0.3301
31.8000 10.5833 0.3370
31.8200 10.5900 0.3236
31.8400 10.5966 0.3361
31.8600 10.6032 0.3397
31.8800 10.6099 0.3243
31.9000 10.6166 0.3356
31.9200 10.6233 0.3376
31.9400 10.6300 0.3239
31.9600 10.6367 0.3329
31.9800 10.6433 0.3315
32.0000 10.6499 0.3236
32.0200 10.6565 0.3343
32.0400 10.6631 0.3356
32.0600 10.6698 0.3222
32.0800 10.6766 0.3345
32.1000 10.6833 0.3304
32.1200 10.6899 0.3220
32.1400 10.6966 0.3284
32.1600 10.7033 0.3306
32.1800 10.7099 0.3206
32.2000 10.7166 0.3277
32.2200 10.7232 0.3283
32.2400 10.7299 0.3237
32.2600 10.7366 0.3238
32.2800 10.7433 0.3264
32.3000 10.7500 0.3207
32.3200 10.7567 0.3253
32.3400 10.7634 0.3255
32.3600 10.7700 0.3193
32.3800 10.7766 0.3202
32.4000 10.7832 0.3302
32.4200 10.7899 0.3157
32.4400 10.7966 0.3248
32.4600 10.8033 0.3250
32.4800 10.8100 0.3144
32.5000 10.8166 0.3220
32.5200 10.8233 0.3200
32.5400 10.8299 0.3161
32.5600 10.8365 0.3206
32.5800 10.8431 0.3204
32.6000 10.8499 0.3156
32.6200 10.8566 0.3244
32.6400 10.8633 0.3143
32.6600 10.8700 0.3139
32.6800 10.8766 0.3199
32.7000 10.8833 0.3144
32.7200 10.8899 0.3126
32.7400 10.8966 0.3242
32.7600 10.9032 0.3163
32.7800 10.9099 0.3117
32.8000 10.9166 0.3176
32.8200 10.9233 0.3153
32.8400 10.9299 0.3137
32.8600 10.9366 0.3216
32.8800 10.9433 0.3124
32.9000 10.9500 0.3140
32.9200 10.9566 0.3177
32.9400 10.9632 0.3127
32.9600 10.9699 0.3125
32.9800 10.9766 0.3161
33.0000 10.9833 0.3084
33.0200 10.9900 0.3117
33.0400 10.9966 0.3116
33.0600 11.0033 0.3128
33.0800 11.0100 0.3126
33.1000 11.0166 0.3076
33.1200 11.0232 0.3098
33.1400 11.0299 0.3148
33.1600 11.0366 0.3104
33.1800 11.0433 0.3099
33.2000 11.0500 0.3112
33.2200 11.0567 0.3103
33.2400 11.0633 0.3069
33.2600 11.0700 0.3077
33.2800 11.0766 0.3111
33.3000 11.0832 0.3102
33.3200 11.0899 0.3107
33.3400 11.0966 0.3075
33.3600 11.1033 0.3062
33.3800 11.1099 0.3081
33.4000 11.1166 0.3078
33.4200 11.1233 0.3033
33.4400 11.1299 0.3099
33.4600 11.1366 0.3022
33.4800 11.1432 0.3039
33.5000 11.1498 0.3119
33.5200 11.1565 0.2997
33.5400 11.1632 0.3009
33.5600 11.1699 0.3098
33.5800 11.1766 0.2956
33.6000 11.1833 0.3015
33.6200 11.1899 0.3029
33.6400 11.1966 0.2987
33.6600 11.2032 0.3023
33.6800 11.2099 0.3027
33.7000 11.2166 0.2952
33.7200 11.2233 0.3032
33.7400 11.2300 0.3015
33.7600 11.2367 0.2936
33.7800 11.2434 0.3018
33.8000 11.2500 0.2992
33.8200 11.2566 0.2915
33.8400 11.2632 0.3029
33.8600 11.2698 0.2963
33.8800 11.2766 0.2941
33.9000 11.2833 0.3019
33.9200 11.2899 0.2945
33.9400 11.2966 0.2937
33.9600 11.3033 0.2995
33.9800 11.3100 0.2913
34.0000 11.3166 0.2954
34.0200 11.3232 0.2997
34.0400 11.3298 0.2900
34.0600 11.3365 0.3003
34.0800 11.3433 0.2939
34.1000 11.3500 0.2910
34.1200 11.3566 0.3005
34.1400 11.3633 0.2929
34.1600 11.3700 0.2899
34.1800 11.3766 0.2975
34.2000 11.3831 0.2918
34.2200 11.3898 0.2940
34.2400 11.3965 0.2961
34.2600 11.4033 0.2874
34.2800 11.4099 0.2908
34.3000 11.4166 0.2990
34.3200 11.4233 0.2825
34.3400 11.4299 0.2929
34.3600 11.4366 0.2975
34.3800 11.4432 0.2860
34.4000 11.4498 0.2927
34.4200 11.4566 0.2880
34.4400 11.4633 0.2870
34.4600 11.4700 0.2921
34.4800 11.4767 0.2887
34.5000 11.4834 0.2849
34.5200 11.4900 0.2927
34.5400 11.4966 0.2910
34.5600 11.5032 0.2857
34.5800 11.5099 0.2911
34.6000 11.5166 0.2868
34.6200 11.5233 0.2874
34.6400 11.5300 0.2842
34.6600 11.5367 0.2859
34.6800 11.5433 0.2910
34.7000 11.5500 0.2828
34.7200 11.5566 0.2865
34.7400 11.5632 0.2910
34.7600 11.5698 0.2872
34.7800 11.5766 0.2844
34.8000 11.5833 0.2907
34.8200 11.5899 0.2836
34.8400 11.5966 0.2875
34.8600 11.6033 0.2886
34.8800 11.6099 0.2819
34.9000 11.6166 0.2834
34.9200 11.6232 0.2885
34.9400 11.6298 0.2830
34.9600 11.6365 0.2836
34.9800 11.6432 0.2842
35.0000 11.6499 0.2850
35.0200 11.6566 0.2814
35.0400 11.6633 0.2838
35.0600 11.6700 0.2811
35.0800 11.6766 0.2817
35.1000 11.6832 0.2844
35.1200 11.6899 0.2826
35.1400 11.6966 0.2799
35.1600 11.7033 0.2795
35.1800 11.7100 0.2815
35.2000 11.7166 0.2834
35.2200 11.7233 0.2793
35.2400 11.7300 0.2818
35.2600 11.7366 0.2769
35.2800 11.7432 0.2789
35.3000 11.7498 0.2831
35.3200 11.7566 0.2745
35.3400 11.7633 0.2804
35.3600 11.7700 0.2790
35.3800 11.7766 0.2738
35.4000 11.7833 0.2794
35.4200 11.7900 0.2792
35.4400 11.7966 0.2740
35.4600 11.8033 0.2797
35.4800 11.8099 0.2750
35.5000 11.8166 0.2699
35.5200 11.8233 0.2758
35.5400 11.8299 0.2786
35.5600 11.8366 0.2725
35.5800 11.8433 0.2800
35.6000 11.8500 0.2714
35.6200 11.8566 0.2694
35.6400 11.8632 0.2778
35.6600 11.8698 0.2764
35.6800 11.8765 0.2674
35.7000 11.8832 0.2767
35.7200 11.8899 0.2717
35.7400 11.8966 0.2689
35.7600 11.9033 0.2760
35.7800 11.9099 0.2711
35.8000 11.9166 0.2683
35.8200 11.9232 0.2754
35.8400 11.9299 0.2695
35.8600 11.9365 0.2725
35.8800 11.9433 0.2712
35.9000 11.9499 0.2679
35.9200 11.9566 0.2714
35.9400 11.9633 0.2712
35.9600 11.9700 0.2649
35.9800 11.9766 0.2721
36.0000 11.9832 0.2710
36.0200 11.9899 0.2640
36.0400 11.9965 0.2730
36.0600 12.0033 0.2687
36.0800 12.0100 0.2627
36.1000 12.0166 0.2707
36.1200 12.0233 0.2672
36.1400 12.0300 0.2614
36.1600 12.0366 0.2725
36.1800 12.0432 0.2620
36.2000 12.0498 0.2643
36.2200 12.0565 0.2739
36.2400 12.0633 0.2609
36.2600 12.0700 0.2649
36.2800 12.0766 0.2742
36.3000 12.0833 0.2577
36.3200 12.0899 0.2654
36.3400 12.0966 0.2716
36.3600 12.1032 0.2619
36.3800 12.1098 0.2665
36.4000 12.1165 0.2673
36.4200 12.1232 0.2543
36.4400 12.1299 0.2718
36.4600 12.1366 0.2668
36.4800 12.1433 0.2536
36.5000 12.1500 0.2659
36.5200 12.1566 0.2658
36.5400 12.1632 0.2545
36.5600 12.1699 0.2689
36.5800 12.1766 0.2635
36.6000 12.1833 0.2533
36.6200 12.1900 0.2659
36.6400 12.1967 0.2590
36.6600 12.2034 0.2579
36.6800 12.2100 0.2661
36.7000 12.2166 0.2585
36.7200 12.2232 0.2564
36.7400 12.2299 0.2697
36.7600 12.2366 0.2601
36.7800 12.2433 0.2540
36.8000 12.2500 0.2606
36.8200 12.2566 0.2594
36.8400 12.2633 0.2547
36.8600 12.2700 0.2607
36.8800 12.2766 0.2545
36.9000 12.2832 0.2542
36.9200 12.2898 0.2652
36.9400 12.2965 0.2539
36.9600 12.3032 0.2504
36.9800 12.3099 0.2619
37.0000 12.3166 0.2505
37.0200 12.3233 0.2526
37.0400 12.3300 0.2554
37.0600 12.3366 0.2576
37.0800 12.3432 0.2514
37.1000 12.3498 0.2552
37.1200 12.3565 0.2607
37.1400 12.3632 0.2500
37.1600 12.3699 0.2513
37.1800 12.3766 0.2552
37.2000 12.3833 0.2534
37.2200 12.3900 0.2520
37.2400 12.3966 0.2509
37.2600 12.4032 0.2515
37.2800 12.4099 0.2540
37.3000 12.4166 0.2578
37.3200 12.4233 0.2441
37.3400 12.4300 0.2518
37.3600 12.4366 0.2484
37.3800 12.4433 0.2472
37.4000 12.4500 0.2566
37.4200 12.4566 0.2449
37.4400 12.4633 0.2542
37.4600 12.4699 0.2541
37.4800 12.4766 0.2444
37.5000 12.4833 0.2504
37.5200 12.4899 0.2495
37.5400 12.4966 0.2481
37.5600 12.5033 0.2507
37.5800 12.5100 0.2432
37.6000 12.5167 0.2415
37.6200 12.5233 0.2528
37.6400 12.5299 0.2488
37.6600 12.5365 0.2410
37.6800 12.5432 0.2548
37.7000 12.5499 0.2459
37.7200 12.5566 0.2454
37.7400 12.5633 0.2515
37.7600 12.5700 0.2443
37.7800 12.5766 0.2451
37.8000 12.5832 0.2493
37.8200 12.5898 0.2391
37.8400 12.5965 0.2486
37.8600 12.6032 0.2499
37.8800 12.6099 0.2386
37.9000 12.6166 0.2405
37.9200 12.6232 0.2508
37.9400 12.6299 0.2366
37.9600 12.6366 0.2413
37.9800 12.6432 0.2475
38.0000 12.6498 0.2406
38.0200 12.6565 0.2447
38.0400 12.6633 0.2461
38.0600 12.6700 0.2404
38.0800 12.6766 0.2432
38.1000 12.6833 0.2414
38.1200 12.6900 0.2376
38.1400 12.6967 0.2428
38.1600 12.7033 0.2453
38.1800 12.7099 0.2409
38.2000 12.7165 0.2406
38.2200 12.7232 0.2445
38.2400 12.7300 0.2395
38.2600 12.7366 0.2395
38.2800 12.7433 0.2414
38.3000 12.7500 0.2400
38.3200 12.7566 0.2408
38.3400 12.7632 0.2425
38.3600 12.7698 0.2372
38.3800 12.7765 0.2409
38.4000 12.7832 0.2404
38.4200 12.7899 0.2343
38.4400 12.7966 0.2415
38.4600 12.8033 0.2383
38.4800 12.8100 0.2330
38.5000 12.8166 0.2366
38.5200 12.8233 0.2366
38.5400 12.8299 0.2338
38.5600 12.8365 0.2358
38.5800 12.8432 0.2344
38.6000 12.8499 0.2323
38.6200 12.8566 0.2331
38.6400 12.8632 0.2357
38.6600 12.8699 0.2334
38.6800 12.8766 0.2299
38.7000 12.8832 0.2336
38.7200 12.8898 0.2372
38.7400 12.8965 0.2332
38.7600 12.9032 0.2297
38.7800 12.9099 0.2329
38.8000 12.9166 0.2274
38.8200 12.9233 0.2322
38.8400 12.9300 0.2335
38.8600 12.9367 0.2211
38.8800 12.9433 0.2324
38.9000 12.9499 0.2305
38.9200 12.9566 0.2264
38.9400 12.9633 0.2300
38.9600 12.9700 0.2252
38.9800 12.9767 0.2253
39.0000 12.9833 0.2313
39.0200 12.9900 0.2251
39.0400 12.9966 0.2267
39.0600 13.0033 0.2334
39.0800 13.0099 0.2202
39.1000 13.0165 0.2245
39.1200 13.0232 0.2338
39.1400 13.0299 0.2139
39.1600 13.0366 0.2251
39.1800 13.0433 0.2275
39.2000 13.0500 0.2140
39.2200 13.0566 0.2223
39.2400 13.0632 0.2256
39.2600 13.0698 0.2159
39.2800 13.0765 0.2239
39.3000 13.0832 0.2240
39.3200 13.0899 0.2165
39.3400 13.0966 0.2180
39.3600 13.1033 0.2240
39.3800 13.1100 0.2139
39.4000 13.1166 0.2119
39.4200 13.1233 0.2209
39.4400 13.1299 0.2145
39.4600 13.1365 0.2126
39.4800 13.1433 0.2227
39.5000 13.1500 0.2137
39.5200 13.1566 0.2110
39.5400 13.1633 0.2206
39.5600 13.1699 0.2132
39.5800 13.1766 0.2118
39.6000 13.1833 0.2177
39.6200 13.1899 0.2122
39.6400 13.1965 0.2145
39.6600 13.2032 0.2199
39.6800 13.2099 0.2046
39.7000 13.2166 0.2153
39.7200 13.2233 0.2164
39.7400 13.2300 0.2062
39.7600 13.2367 0.2111
39.7800 13.2433 0.2158
39.8000 13.2499 0.2045
39.8200 13.2565 0.2137
39.8400 13.2632 0.2100
39.8600 13.2699 0.2036
39.8800 13.2767 0.2136
39.9000 13.2833 0.2108
39.9200 13.2900 0.2024
39.9400 13.2967 0.2126
39.9600 13.3033 0.2096
39.9800 13.3098 0.2052
40.0000 13.3165 0.2135
40.0200 13.3232 0.2090
40.0400 13.3299 0.2009
40.0600 13.3366 0.2124
40.0800 13.3432 0.2099
40.1000 13.3499 0.2028
40.1200 13.3566 0.2083
40.1400 13.3632 0.2038
40.1600 13.3699 0.2067
40.1800 13.3765 0.2044
40.2000 13.3832 0.2080
40.2200 13.3899 0.2052
40.2400 13.3966 0.2070
40.2600 13.4033 0.2077
40.2800 13.4100 0.2064
40.3000 13.4167 0.2000
40.3200 13.4233 0.2043
40.3400 13.4299 0.2050
40.3600 13.4365 0.2003
40.3800 13.4432 0.2077
40.4000 13.4499 0.2053
40.4200 13.4566 0.1982
40.4400 13.4633 0.2041
40.4600 13.4700 0.1994
40.4800 13.4767 0.2003
40.5000 13.4833 0.2011
40.5200 13.4899 0.1989
40.5400 13.4965 0.2024
40.5600 13.5032 0.2038
40.5800 13.5099 0.1863
40.6000 13.5166 0.2021
40.6200 13.5233 0.2037
40.6400 13.5300 0.1902
40.6600 13.5366 0.2010
40.6800 13.5433 0.2004
40.7000 13.5498 0.1881
40.7200 13.5565 0.2064
40.7400 13.5632 0.1977
40.7600 13.5699 0.1858
40.7800 13.5766 0.2058
40.8000 13.5833 0.1943
40.8200 13.5900 0.1855
40.8400 13.5966 0.2038
40.8600 13.6033 0.1902
40.8800 13.6098 0.1922
40.9000 13.6165 0.2000
40.9200 13.6232 0.1880
40.9400 13.6299 0.1907
40.9600 13.6367 0.1952
40.9800 13.6433 0.1891
41.0000 13.6500 0.1937
41.0200 13.6567 0.1958
41.0400 13.6633 0.1845
41.0600 13.6699 0.1958
41.0800 13.6766 0.1920
41.1000 13.6832 0.1872
41.1200 13.6899 0.1910
41.1400 13.6966 0.1889
41.1600 13.7033 0.1831
41.1800 13.7100 0.1898
41.2000 13.7166 0.1854
41.2200 13.7233 0.1888
41.2400 13.7299 0.1866
41.2600 13.7365 0.1880
41.2800 13.7432 0.1832
41.3000 13.7499 0.1821
41.3200 13.7566 0.1921
41.3400 13.7633 0.1887
41.3600 13.7700 0.1789
41.3800 13.7766 0.1848
41.4000 13.7833 0.1848
41.4200 13.7899 0.1797
41.4400 13.7965 0.1860
41.4600 13.8032 0.1834
41.4800 13.8099 0.1804
41.5000 13.8166 0.1854
41.5200 13.8233 0.1792
41.5400 13.8300 0.1820
41.5600 13.8367 0.1874
41.5800 13.8433 0.1752
41.6000 13.8499 0.1808
41.6200 13.8565 0.1829
41.6400 13.8632 0.1781
41.6600 13.8699 0.1806
41.6800 13.8766 0.1809
41.7000 13.8833 0.1751
41.7200 13.8900 0.1813
41.7400 13.8967 0.1798
41.7600 13.9033 0.1718
41.7800 13.9099 0.1787
41.8000 13.9165 0.1798
41.8200 13.9232 0.1742
41.8400 13.9299 0.1773
41.8600 13.9366 0.1759
41.8800 13.9433 0.1764
41.9000 13.9500 0.1735
41.9200 13.9567 0.1764
41.9400 13.9633 0.1704
41.9600 13.9699 0.1744
41.9800 13.9765 0.1778
42.0000 13.9832 0.1727
42.0200 13.9899 0.1772
42.0400 13.9966 0.1729
42.0600 14.0033 0.1705
42.0800 14.0100 0.1769
42.1000 14.0167 0.1697
42.1200 14.0233 0.1722
42.1400 14.0299 0.1753
42.1600 14.0365 0.1694
42.1800 14.0431 0.1702
42.2000 14.0499 0.1751
42.2200 14.0566 0.1694
42.2400 14.0633 0.1670
42.2600 14.0700 0.1761
42.2800 14.0767 0.1631
42.3000 14.0833 0.1682
42.3200 14.0899 0.1738
42.3400 14.0965 0.1681
42.3600 14.1032 0.1672
42.3800 14.1099 0.1724
42.4000 14.1166 0.1639
42.4200 14.1233 0.1663
42.4400 14.1300 0.1733
42.4600 14.1367 0.1622
42.4800 14.1433 0.1641
42.5000 14.1499 0.1762
42.5200 14.1565 0.1592
42.5400 14.1632 0.1673
42.5600 14.1699 0.1751
42.5800 14.1766 0.1586
42.6000 14.1833 0.1653
42.6200 14.1900 0.1706
42.6400 14.1967 0.1594
42.6600 14.2033 0.1630
42.6800 14.2099 0.1712
42.7000 14.2165 0.1602
42.7200 14.2232 0.1629
42.7400 14.2299 0.1659
42.7600 14.2366 0.1593
42.7800 14.2433 0.1634
42.8000 14.2499 0.1617
42.8200 14.2566 0.1589
42.8400 14.2633 0.1621
42.8600 14.2699 0.1626
42.8800 14.2765 0.1642
42.9000 14.2832 0.1617
42.9200 14.2899 0.1584
42.9400 14.2966 0.1569
42.9600 14.3033 0.1578
42.9800 14.3100 0.1596
43.0000 14.3166 0.1604
43.0200 14.3233 0.1480
43.0400 14.3299 0.1614
43.0600 14.3365 0.1612
43.0800 14.3432 0.1500
43.1000 14.3499 0.1629
43.1200 14.3566 0.1586
43.1400 14.3633 0.1491
43.1600 14.3700 0.1640
43.1800 14.3767 0.1513
43.2000 14.3833 0.1491
43.2200 14.3899 0.1650
43.2400 14.3965 0.1510
43.2600 14.4032 0.1486
43.2800 14.4099 0.1673
43.3000 14.4166 0.1497
43.3200 14.4233 0.1462
43.3400 14.4300 0.1592
43.3600 14.4367 0.1510
43.3800 14.4433 0.1519
43.4000 14.4499 0.1549
43.4200 14.4565 0.1473
43.4400 14.4632 0.1566
43.4600 14.4699 0.1546
43.4800 14.4766 0.1456
43.5000 14.4833 0.1560
43.5200 14.4899 0.1514
43.5400 14.4966 0.1474
43.5600 14.5033 0.1482
43.5800 14.5099 0.1505
43.6000 14.5165 0.1534
43.6200 14.5231 0.1500
43.6400 14.5298 0.1439
43.6600 14.5366 0.1511
43.6800 14.5432 0.1453
43.7000 14.5499 0.1461
43.7200 14.5566 0.1533
43.7400 14.5633 0.1438
43.7600 14.5699 0.1427
43.7800 14.5766 0.1544
43.8000 14.5832 0.1396
43.8200 14.5899 0.1492
43.8400 14.5966 0.1512
43.8600 14.6033 0.1383
43.8800 14.6100 0.1428
43.9000 14.6167 0.1534
43.9200 14.6233 0.1332
43.9400 14.6299 0.1468
43.9600 14.6365 0.1552
43.9800 14.6432 0.1345
44.0000 14.6499 0.1449
44.0200 14.6566 0.1438
44.0400 14.6633 0.1364
44.0600 14.6700 0.1477
44.0800 14.6766 0.1430
44.1000 14.6833 0.1317
44.1200 14.6899 0.1465
44.1400 14.6965 0.1407
44.1600 14.7032 0.1316
44.1800 14.7099 0.1514
44.2000 14.7166 0.1367
44.2200 14.7233 0.1329
44.2400 14.7299 0.1456
44.2600 14.7366 0.1368
44.2800 14.7433 0.1353
44.3000 14.7499 0.1398
44.3200 14.7565 0.1359
44.3400 14.7631 0.1333
44.3600 14.7698 0.1401
44.3800 14.7765 0.1303
44.4000 14.7832 0.1371
44.4200 14.7899 0.1390
44.4400 14.7966 0.1299
44.4600 14.8032 0.1320
44.4800 14.8099 0.1386
44.5000 14.8165 0.1311
44.5200 14.8232 0.1354
44.5400 14.8299 0.1328
44.5600 14.8366 0.1327
44.5800 14.8433 0.1358
44.6000 14.8500 0.1270
44.6200 14.8567 0.1323
44.6400 14.8634 0.1357
44.6600 14.8700 0.1270
44.6800 14.8766 0.1322
44.7000 14.8832 0.1297
44.7200 14.8899 0.1266
44.7400 14.8966 0.1353
44.7600 14.9033 0.1300
44.7800 14.9100 0.1224
44.8000 14.9167 0.1336
44.8200 14.9233 0.1284
44.8400 14.9299 0.1230
44.8600 14.9365 0.1348
44.8800 14.9431 0.1262
44.9000 14.9498 0.1218
44.9200 14.9565 0.1268
44.9400 14.9632 0.1230
44.9600 14.9699 0.1221
44.9800 14.9766 0.1350
45.0000 14.9833 0.1132
45.0200 14.9899 0.1222
45.0400 14.9965 0.1357
45.0600 15.0032 0.1210
45.0800 15.0099 0.1218
45.1000 15.0166 0.1311
45.1200 15.0233 0.1159
45.1400 15.0299 0.1207
45.1600 15.0366 0.1285
45.1800 15.0433 0.1181
45.2000 15.0500 0.1183
45.2200 15.0566 0.1292
45.2400 15.0632 0.1171
45.2600 15.0699 0.1221
45.2800 15.0766 0.1261
45.3000 15.0833 0.1165
45.3200 15.0900 0.1173
45.3400 15.0967 0.1244
45.3600 15.1034 0.1156
45.3800 15.1100 0.1201
45.4000 15.1166 0.1229
45.4200 15.1232 0.1119
45.4400 15.1299 0.1199
45.4600 15.1366 0.1239
45.4800 15.1433 0.1148
45.5000 15.1500 0.1206
45.5200 15.1567 0.1182
45.5400 15.1633 0.1130
45.5600 15.1699 0.1166
45.5800 15.1765 0.1179
45.6000 15.1832 0.1164
45.6200 15.1899 0.1128
45.6400 15.1966 0.1199
45.6600 15.2033 0.1100
45.6800 15.2100 0.1170
45.7000 15.2166 0.1172
45.7200 15.2233 0.1072
45.7400 15.2299 0.1117
45.7600 15.2366 0.1161
45.7800 15.2432 0.1077
45.8000 15.2498 0.1137
45.8200 15.2565 0.1121
45.8400 15.2632 0.1092
45.8600 15.2699 0.1102
45.8800 15.2766 0.1097
45.9000 15.2833 0.1053
45.9200 15.2900 0.1068
45.9400 15.2966 0.1063
45.9600 15.3032 0.1067
45.9800 15.3099 0.1111
46.0000 15.3166 0.1051
46.0200 15.3233 0.0978
46.0400 15.3300 0.1112
46.0600 15.3366 0.1034
46.0800 15.3433 0.1018
46.1000 15.3500 0.1062
46.1200 15.3566 0.0985
46.1400 15.3632 0.1034
46.1600 15.3699 0.1068
46.1800 15.3766 0.0980
46.2000 15.3833 0.1022
46.2200 15.3900 0.0996
46.2400 15.3967 0.0958
46.2600 15.4033 0.0995
46.2800 15.4100 0.0986
46.3000 15.4166 0.0973
46.3200 15.4232 0.1013
46.3400 15.4298 0.0977
46.3600 15.4366 0.0907
46.3800 15.4433 0.1051
46.4000 15.4500 0.0919
46.4200 15.4567 0.0898
46.4400 15.4633 0.1008
46.4600 15.4699 0.0945
46.4800 15.4765 0.0903
46.5000 15.4831 0.1013
46.5200 15.4898 0.0914
46.5400 15.4965 0.0913
46.5600 15.5033 0.1021
46.5800 15.5099 0.0875
46.6000 15.5166 0.0902
46.6200 15.5233 0.1020
46.6400 15.5299 0.0823
46.6600 15.5366 0.0891
46.6800 15.5432 0.0990
46.7000 15.5499 0.0834
46.7200 15.5566 0.0906
46.7400 15.5633 0.0984
46.7600 15.5699 0.0814
46.7800 15.5766 0.0909
46.8000 15.5833 0.0912
46.8200 15.5900 0.0796
46.8400 15.5966 0.0928
46.8600 15.6032 0.0881
46.8800 15.6099 0.0800
46.9000 15.6166 0.0888
46.9200 15.6233 0.0821
46.9400 15.6300 0.0847
46.9600 15.6367 0.0877
46.9800 15.6433 0.0805
47.0000 15.6500 0.0883
47.0200 15.6566 0.0801
47.0400 15.6632 0.0859
47.0600 15.6699 0.0885
47.0800 15.6766 0.0790
47.1000 15.6833 0.0811
47.1200 15.6899 0.0865
47.1400 15.6966 0.0804
47.1600 15.7033 0.0853
47.1800 15.7100 0.0809
47.2000 15.7166 0.0724
47.2200 15.7232 0.0886
47.2400 15.7299 0.0841
47.2600 15.7366 0.0684
47.2800 15.7433 0.0885
47.3000 15.7499 0.0797
47.3200 15.7566 0.0727
47.3400 15.7633 0.0877
47.3600 15.7700 0.0760
47.3800 15.7766 0.0721
47.4000 15.7832 0.0841
47.4200 15.7899 0.0756
47.4400 15.7966 0.0719
47.4600 15.8033 0.0868
47.4800 15.8100 0.0724
47.5000 15.8167 0.0677
47.5200 15.8233 0.0825
47.5400 15.8300 0.0702
47.5600 15.8366 0.0724
47.5800 15.8432 0.0818
47.6000 15.8498 0.0657
47.6200 15.8566 0.0730
47.6400 15.8633 0.0793
47.6600 15.8700 0.0718
47.6800 15.8767 0.0735
47.7000 15.8833 0.0774
47.7200 15.8900 0.0647
47.7400 15.8966 0.0744
47.7600 15.9032 0.0766
47.7800 15.9099 0.0635
47.8000 15.9166 0.0713
47.8200 15.9233 0.0761
47.8400 15.9300 0.0624
47.8600 15.9366 0.0690
47.8800 15.9433 0.0743
47.9000 15.9500 0.0630
47.9200 15.9566 0.0668
47.9400 15.9632 0.0764
47.9600 15.9698 0.0660
47.9800 15.9765 0.0676
48.0000 15.9832 0.0726
48.0200 15.9899 0.0656
48.0400 15.9966 0.0662
48.0600 16.0033 0.0709
48.0800 16.0100 0.0653
48.1000 16.0166 0.0657
48.1200 16.0232 0.0718
48.1400 16.0299 0.0621
48.1600 16.0366 0.0600
48.1800 16.0433 0.0707
48.2000 16.0500 0.0646
48.2200 16.0567 0.0607
48.2400 16.0633 0.0680
48.2600 16.0700 0.0627
48.2800 16.0766 0.0628
48.3000 16.0832 0.0689
48.3200 16.0899 0.0615
48.3400 16.0966 0.0591
48.3600 16.1033 0.0648
48.3800 16.1100 0.0574
48.4000 16.1166 0.0603
48.4200 16.1233 0.0609
48.4400 16.1300 0.0612
48.4600 16.1366 0.0575
48.4800 16.1432 0.0604
48.5000 16.1498 0.0624
48.5200 16.1565 0.0571
48.5400 16.1632 0.0613
48.5600 16.1699 0.0600
48.5800 16.1767 0.0532
48.6000 16.1833 0.0589
48.6200 16.1900 0.0595
48.6400 16.1966 0.0501
48.6600 16.2032 0.0552
48.6800 16.2098 0.0616
48.7000 16.2165 0.0468
48.7200 16.2232 0.0566
48.7400 16.2299 0.0567
48.7600 16.2366 0.0461
48.7800 16.2433 0.0538
48.8000 16.2499 0.0553
48.8200 16.2566 0.0429
48.8400 16.2632 0.0590
48.8600 16.2699 0.0565
48.8800 16.2766 0.0429
48.9000 16.2833 0.0586
48.9200 16.2900 0.0501
48.9400 16.2966 0.0452
48.9600 16.3033 0.0557
48.9800 16.3100 0.0493
49.0000 16.3166 0.0421
49.0200 16.3232 0.0539
49.0400 16.3298 0.0461
49.0600 16.3366 0.0426
49.0800 16.3433 0.0569
49.1000 16.3500 0.0427
49.1200 16.3567 0.0410
49.1400 16.3633 0.0564
49.1600 16.3700 0.0402
49.1800 16.3766 0.0459
49.2000 16.3832 0.0545
49.2200 16.3898 0.0417
49.2400 16.3965 0.0470
49.2600 16.4032 0.0499
49.2800 16.4099 0.0346
49.3000 16.4166 0.0497
49.3200 16.4233 0.0518
49.3400 16.4299 0.0312
49.3600 16.4366 0.0486
49.3800 16.4432 0.0510
49.4000 16.4498 0.0358
49.4200 16.4565 0.0444
49.4400 16.4632 0.0442
49.4600 16.4699 0.0381
49.4800 16.4766 0.0462
49.5000 16.4833 0.0388
49.5200 16.4900 0.0380
49.5400 16.4966 0.0460
49.5600 16.5032 0.0327
49.5800 16.5099 0.0403
49.6000 16.5166 0.0493
49.6200 16.5233 0.0259
49.6400 16.5300 0.0383
49.6600 16.5367 0.0466
49.6800 16.5433 0.0261
49.7000 16.5500 0.0460
49.7200 16.5566 0.0464
49.7400 16.5632 0.0206
49.7600 16.5698 0.0475
49.7800 16.5766 0.0422
49.8000 16.5833 0.0267
49.8200 16.5900 0.0449
49.8400 16.5966 0.0358
49.8600 16.6033 0.0243
49.8800 16.6100 0.0470
49.9000 16.6166 0.0353
49.9200 16.6233 0.0282
49.9400 16.6299 0.0461
49.9600 16.6366 0.0290
49.9800 16.6433 0.0247
50.0000 16.6500 0.0455
50.0200 16.6566 0.0265
50.0400 16.6633 0.0295
50.0600 16.6700 0.0380
50.0800 16.6766 0.0205
50.1000 16.6832 0.0273
50.1200 16.6898 0.0386
50.1400 16.6965 0.0209
50.1600 16.7032 0.0334
50.1800 16.7099 0.0308
50.2000 16.7166 0.0175
50.2200 16.7233 0.0357
50.2400 16.7300 0.0263
50.2600 16.7366 0.0209
50.2800 16.7432 0.0319
50.3000 16.7499 0.0231
50.3200 16.7565 0.0249
50.3400 16.7633 0.0303
50.3600 16.7699 0.0215
50.3800 16.7766 0.0267
50.4000 16.7833 0.0220
50.4200 16.7900 0.0163
50.4400 16.7966 0.0266
50.4600 16.8032 0.0222
50.4800 16.8099 0.0137
50.5000 16.8165 0.0284
50.5200 16.8233 0.0192
50.5400 16.8300 0.0189
50.5600 16.8366 0.0297
50.5800 16.8433 0.0186
50.6000 16.8500 0.0167
50.6200 16.8566 0.0272
50.6400 16.8632 0.0124
50.6600 16.8698 0.0236
50.6800 16.8765 0.0253
50.7000 16.8833 0.0082
50.7200 16.8900 0.0206
50.7400 16.8966 0.0225
50.7600 16.9033 0.0122
50.7800 16.9100 0.0149
50.8000 16.9166 0.0214
50.8200 16.9232 0.0086
50.8400 16.9298 0.0132
50.8600 16.9365 0.0230
50.8800 16.9432 0.0044
50.9000 16.9499 0.0147
50.9200 16.9566 0.0173
50.9400 16.9632 0.0045
50.9600 16.9699 0.0177
50.9800 16.9766 0.0137
51.0000 16.9832 0.0023
51.0200 16.9898 0.0146
51.0400 16.9965 0.0131
51.0600 17.0032 0.0011
51.0800 17.0099 0.0131
51.1000 17.0167 0.0100
51.1200 17.0233 0.0029
51.1400 17.0300 0.0109
51.1600 17.0366 0.0072
51.1800 17.0432 0.0027
51.2000 17.0498 0.0117
51.2200 17.0565 0.0033
51.2400 17.0633 -0.0014
51.2600 17.0700 0.0039
51.2800 17.0766 0.0069
51.3000 17.0833 -0.0002
51.3200 17.0900 0.0007
51.3400 17.0966 0.0033
51.3600 17.1032 0.0008
51.3800 17.1098 -0.0020
51.4000 17.1165 0.0025
51.4200 17.1232 0.0021
51.4400 17.1299 -0.0006
51.4600 17.1366 0.0040
51.4800 17.1433 -0.0014
51.5000 17.1500 -0.0055
51.5200 17.1566 0.0057
51.5400 17.1632 -0.0015
51.5600 17.1698 -0.0017
51.5800 17.1765 0.0062
51.6000 17.1832 -0.0061
51.6200 17.1899 -0.0066
51.6400 17.1966 0.0000
51.6600 17.2033 -0.0035
51.6800 17.2100 -0.0031
51.7000 17.2166 -0.0004
51.7200 17.2232 -0.0088
51.7400 17.2298 0.0003
51.7600 17.2365 0.0025
51.7800 17.2432 -0.0142
51.8000 17.2499 -0.0038
51.8200 17.2566 0.0049
51.8400 17.2633 -0.0144
51.8600 17.2700 -0.0019
51.8800 17.2767 0.0007
51.9000 17.2833 -0.0129
51.9200 17.2899 -0.0070
51.9400 17.2965 -0.0018
51.9600 17.3033 -0.0152
51.9800 17.3100 -0.0071
52.0000 17.3166 -0.0014
52.0200 17.3233 -0.0148
52.0400 17.3300 -0.0086
52.0600 17.3367 -0.0031
52.0800 17.3433 -0.0155
52.1000 17.3499 -0.0075
52.1200 17.3565 -0.0063
52.1400 17.3632 -0.0176
52.1600 17.3699 -0.0130
52.1800 17.3766 -0.0115
52.2000 17.3833 -0.0163
52.2200 17.3900 -0.0074
52.2400 17.3966 -0.0107
52.2600 17.4032 -0.0238
52.2800 17.4098 -0.0082
52.3000 17.4165 -0.0104
52.3200 17.4232 -0.0237
52.3400 17.4299 -0.0156
52.3600 17.4366 -0.0153
52.3800 17.4432 -0.0213
52.4000 17.4499 -0.0163
52.4200 17.4566 -0.0186
52.4400 17.4632 -0.0218
52.4600 17.4699 -0.0211
52.4800 17.4765 -0.0154
52.5000 17.4832 -0.0254
52.5200 17.4900 -0.0278
52.5400 17.4966 -0.0184
52.5600 17.5033 -0.0229
52.5800 17.5100 -0.0271
52.6000 17.5167 -0.0212
52.6200 17.5233 -0.0307
52.6400 17.5299 -0.0279
52.6600 17.5365 -0.0204
52.6800 17.5432 -0.0331
52.7000 17.5500 -0.0299
52.7200 17.5566 -0.0201
52.7400 17.5633 -0.0409
52.7600 17.5700 -0.0292
52.7800 17.5767 -0.0206
52.8000 17.5833 -0.0360
52.8200 17.5898 -0.0299
52.8400 17.5965 -0.0231
52.8600 17.6032 -0.0348
52.8800 17.6099 -0.0307
52.9000 17.6166 -0.0310
52.9200 17.6233 -0.0386
52.9400 17.6300 -0.0325
52.9600 17.6366 -0.0352
52.9800 17.6433 -0.0383
53.0000 17.6499 -0.0320
53.0200 17.6565 -0.0328
53.0400 17.6632 -0.0410
53.0600 17.6699 -0.0370
53.0800 17.6766 -0.0382
53.1000 17.6833 -0.0358
53.1200 17.6899 -0.0397
53.1400 17.6966 -0.0407
53.1600 17.7033 -0.0389
53.1800 17.7099 -0.0404
53.2000 17.7165 -0.0400
53.2200 17.7232 -0.0385
53.2400 17.7300 -0.0486
53.2600 17.7367 -0.0400
53.2800 17.7433 -0.0394
53.3000 17.7500 -0.0469
53.3200 17.7567 -0.0506
53.3400 17.7633 -0.0381
53.3600 17.7699 -0.0431
53.3800 17.7765 -0.0510
53.4000 17.7832 -0.0443
53.4200 17.7900 -0.0453
53.4400 17.7967 -0.0505
53.4600 17.8033 -0.0413
53.4800 17.8100 -0.0507
53.5000 17.8167 -0.0524
53.5200 17.8233 -0.0426
53.5400 17.8299 -0.0539
53.5600 17.8365 -0.0508
53.5800 17.8432 -0.0391
53.6000 17.8499 -0.0546
53.6200 17.8566 -0.0531
53.6400 17.8633 -0.0448
53.6600 17.8699 -0.0506
53.6800 17.8766 -0.0513
53.7000 17.8832 -0.0500
53.7200 17.8898 -0.0528
53.7400 17.8965 -0.0561
53.7600 17.9032 -0.0478
53.7800 17.9099 -0.0539
53.8000 17.9166 -0.0587
53.8200 17.9233 -0.0492
53.8400 17.9299 -0.0537
53.8600 17.9366 -0.0633
53.8800 17.9433 -0.0530
53.9000 17.9499 -0.0538
53.9200 17.9565 -0.0605
53.9400 17.9632 -0.0525
53.9600 17.9699 -0.0522
53.9800 17.9766 -0.0696
54.0000 17.9833 -0.0554
54.0200 17.9900 -0.0518
54.0400 17.9967 -0.0673
54.0600 18.0033 -0.0534
54.0800 18.0099 -0.0573
54.1000 18.0165 -0.0735
54.1200 18.0232 -0.0497
54.1400 18.0299 -0.0589
54.1600 18.0366 -0.0721
54.1800 18.0433 -0.0519
54.2000 18.0500 -0.0584
54.2200 18.0567 -0.0750
54.2400 18.0633 -0.0502
54.2600 18.0699 -0.0623
54.2800 18.0765 -0.0742
54.3000 18.0832 -0.0473
54.3200 18.0900 -0.0725
54.3400 18.0966 -0.0746
54.3600 18.1033 -0.0513
54.3800 18.1100 -0.0741
54.4000 18.1167 -0.0719
54.4200 18.1233 -0.0511
54.4400 18.1299 -0.0793
54.4600 18.1365 -0.0710
54.4800 18.1432 -0.0553
54.5000 18.1499 -0.0772
54.5200 18.1566 -0.0697
54.5400 18.1632 -0.0573
54.5600 18.1699 -0.0796
54.5800 18.1766 -0.0715
54.6000 18.1833 -0.0653
54.6200 18.1899 -0.0798
54.6400 18.1965 -0.0750
54.6600 18.2032 -0.0665
54.6800 18.2099 -0.0848
54.7000 18.2166 -0.0771
54.7200 18.2233 -0.0697
54.7400 18.2300 -0.0814
54.7600 18.2367 -0.0780
54.7800 18.2433 -0.0720
54.8000 18.2499 -0.0811
54.8200 18.2565 -0.0757
54.8400 18.2632 -0.0739
54.8600 18.2700 -0.0816
54.8800 18.2767 -0.0867
54.9000 18.2833 -0.0782
54.9200 18.2900 -0.0805
54.9400 18.2967 -0.0867
54.9600 18.3033 -0.0805
54.9800 18.3099 -0.0808
55.0000 18.3165 -0.0878
55.0200 18.3232 -0.0837
55.0400 18.3299 -0.0857
55.0600 18.3366 -0.0933
55.0800 18.3432 -0.0770
55.1000 18.3499 -0.0847
55.1200 18.3566 -0.0946
55.1400 18.3633 -0.0840
55.1600 18.3699 -0.0880
55.1800 18.3765 -0.0955
55.2000 18.3831 -0.0813
55.2200 18.3899 -0.0941
55.2400 18.3966 -0.0989
55.2600 18.4032 -0.0868
55.2800 18.4099 -0.0924
55.3000 18.4166 -0.1009
55.3200 18.4233 -0.0879
55.3400 18.4299 -0.0946
55.3600 18.4365 -0.1057
55.3800 18.4432 -0.0862
55.4000 18.4499 -0.0956
55.4200 18.4566 -0.1100
55.4400 18.4633 -0.0896
55.4600 18.4700 -0.1003
55.4800 18.4767 -0.1070
55.5000 18.4833 -0.0951
55.5200 18.4899 -0.1010
55.5400 18.4966 -0.1045
55.5600 18.5032 -0.0996
55.5800 18.5099 -0.1077
55.6000 18.5166 -0.1094
55.6200 18.5233 -0.0959
55.6400 18.5300 -0.1087
55.6600 18.5367 -0.1154
55.6800 18.5433 -0.1004
55.7000 18.5499 -0.1076
55.7200 18.5565 -0.1180
55.7400 18.5632 -0.1015
55.7600 18.5699 -0.1065
55.7800 18.5766 -0.1209
55.8000 18.5833 -0.1059
55.8200 18.5900 -0.1075
55.8400 18.5966 -0.1224
55.8600 18.6033 -0.1014
55.8800 18.6099 -0.1151
55.9000 18.6165 -0.1235
55.9200 18.6232 -0.1073
55.9400 18.6299 -0.1145
55.9600 18.6366 -0.1292
55.9800 18.6433 -0.1038
56.0000 18.6499 -0.1155
56.0200 18.6566 -0.1266
56.0400 18.6633 -0.1106
56.0600 18.6699 -0.1205
56.0800 18.6765 -0.1252
56.1000 18.6832 -0.1102
56.1200 18.6899 -0.1216
56.1400 18.6966 -0.1218
56.1600 18.7033 -0.1097
56.1800 18.7100 -0.1256
56.2000 18.7167 -0.1292
56.2200 18.7233 -0.1183
56.2400 18.7299 -0.1227
56.2600 18.7365 -0.1254
56.2800 18.7432 -0.1170
56.3000 18.7499 -0.1255
56.3200 18.7566 -0.1285
56.3400 18.7633 -0.1243
56.3600 18.7700 -0.1255
56.3800 18.7767 -0.1292
56.4000 18.7833 -0.1264
56.4200 18.7899 -0.1291
56.4400 18.7965 -0.1272
56.4600 18.8032 -0.1238
56.4800 18.8099 -0.1259
56.5000 18.8166 -0.1294
56.5200 18.8233 -0.1265
56.5400 18.8299 -0.1303
56.5600 18.8366 -0.1326
56.5800 18.8433 -0.1365
56.6000 18.8499 -0.1244
56.6200 18.8565 -0.1261
56.6400 18.8631 -0.1362
56.6600 18.8698 -0.1284
56.6800 18.8766 -0.1297
56.7000 18.8833 -0.1411
56.7200 18.8899 -0.1310
56.7400 18.8966 -0.1313
56.7600 18.9033 -0.1407
56.7800 18.9099 -0.1396
56.8000 18.9165 -0.1331
56.8200 18.9232 -0.1355
56.8400 18.9299 -0.1380
56.8600 18.9366 -0.1452
56.8800 18.9433 -0.1352
56.9000 18.9500 -0.1372
56.9200 18.9567 -0.1502
56.9400 18.9633 -0.1459
56.9600 18.9699 -0.1329
56.9800 18.9765 -0.1457
57.0000 18.9832 -0.1452
57.0200 18.9899 -0.1331
57.0400 18.9966 -0.1532
57.0600 19.0033 -0.1505
57.0800 19.0100 -0.1374
57.1000 19.0167 -0.1461
57.1200 19.0233 -0.1557
57.1400 19.0299 -0.1464
57.1600 19.0365 -0.1479
57.1800 19.0431 -0.1527
57.2000 19.0498 -0.1458
57.2200 19.0566 -0.1534
57.2400 19.0633 -0.1576
57.2600 19.0700 -0.1462
57.2800 19.0766 -0.1582
57.3000 19.0833 -0.1605
57.3200 19.0899 -0.1537
57.3400 19.0965 -0.1553
57.3600 19.1032 -0.1613
57.3800 19.1099 -0.1557
57.4000 19.1166 -0.1635
57.4200 19.1233 -0.1609
57.4400 19.1299 -0.1572
57.4600 19.1366 -0.1671
57.4800 19.1433 -0.1659
57.5000 19.1499 -0.1595
57.5200 19.1565 -0.1655
57.5400 19.1632 -0.1667
57.5600 19.1699 -0.1691
57.5800 19.1766 -0.1648
57.6000 19.1833 -0.1712
57.6200 19.1900 -0.1743
57.6400 19.1967 -0.1612
57.6600 19.2033 -0.1787
57.6800 19.2099 -0.1749
57.7000 19.2166 -0.1627
57.7200 19.2232 -0.1745
57.7400 19.2299 -0.1761
57.7600 19.2366 -0.1656
57.7800 19.2433 -0.1802
57.8000 19.2500 -0.1746
57.8200 19.2567 -0.1721
57.8400 19.2634 -0.1882
57.8600 19.2699 -0.1730
57.8800 19.2765 -0.1762
57.9000 19.2832 -0.1897
57.9200 19.2899 -0.1677
57.9400 19.2966 -0.1839
57.9600 19.3033 -0.1925
57.9800 19.3099 -0.1748
58.0000 19.3166 -0.1831
58.0200 19.3233 -0.1900
58.0400 19.3299 -0.1738
58.0600 19.3365 -0.1861
58.0800 19.3432 -0.1881
58.1000 19.3499 -0.1801
58.1200 19.3566 -0.1858
58.1400 19.3632 -0.1883
58.1600 19.3699 -0.1823
58.1800 19.3766 -0.1876
58.2000 19.3833 -0.1948
58.2200 19.3899 -0.1874
58.2400 19.3966 -0.1926
58.2600 19.4032 -0.1963
58.2800 19.4099 -0.1863
58.3000 19.4166 -0.1937
58.3200 19.4233 -0.1998
58.3400 19.4300 -0.1906
58.3600 19.4367 -0.1969
58.3800 19.4434 -0.1993
58.4000 19.4499 -0.1970
58.4200 19.4565 -0.2002
58.4400 19.4632 -0.1993
58.4600 19.4699 -0.1961
58.4800 19.4766 -0.2023
58.5000 19.4833 -0.2020
58.5200 19.4900 -0.1994
58.5400 19.4967 -0.1993
58.5600 19.5033 -0.2099
58.5800 19.5099 -0.2083
58.6000 19.5165 -0.1964
58.6200 19.5232 -0.2056
58.6400 19.5299 -0.2130
58.6600 19.5366 -0.1947
58.6800 19.5433 -0.2071
58.7000 19.5500 -0.2154
58.7200 19.5566 -0.1977
58.7400 19.5633 -0.2153
58.7600 19.5699 -0.2185
58.7800 19.5765 -0.1938
58.8000 19.5831 -0.2185
58.8200 19.5898 -0.2168
58.8400 19.5965 -0.2014
58.8600 19.6032 -0.2234
58.8800 19.6099 -0.2147
58.9000 19.6166 -0.2059
58.9200 19.6233 -0.2203
58.9400 19.6299 -0.2141
58.9600 19.6365 -0.2119
58.9800 19.6432 -0.2231
59.0000 19.6499 -0.2134
59.0200 19.6566 -0.2077
59.0400 19.6633 -0.2254
59.0600 19.6700 -0.2229
59.0800 19.6767 -0.2130
59.1000 19.6833 -0.2216
59.1200 19.6900 -0.2232
59.1400 19.6966 -0.2136
59.1600 19.7032 -0.2195
59.1800 19.7099 -0.2291
59.2000 19.7166 -0.2183
59.2200 19.7233 -0.2252
59.2400 19.7300 -0.2263
59.2600 19.7367 -0.2203
59.2800 19.7433 -0.2313
59.3000 19.7499 -0.2403
59.3010 19.7502 -0.2409
