Raw Data
Time Displacement Force
(s) (mm) (N)
0.0000 0.0001 0.3268
0.0200 0.0002 0.3471
0.0400 0.0009 0.3836
0.0600 0.0043 0.4052
0.0800 0.0099 0.4084
0.1000 0.0157 0.4185
0.1200 0.0216 0.4769
0.1400 0.0283 0.5141
0.1600 0.0355 0.5351
0.1800 0.0430 0.5777
0.2000 0.0501 0.6213
0.2200 0.0569 0.6540
0.2400 0.0636 0.7007
0.2600 0.0703 0.7182
0.2800 0.0770 0.7241
0.3000 0.0837 0.7269
0.3200 0.0904 0.7204
0.3400 0.0971 0.7239
0.3600 0.1038 0.7265
0.3800 0.1104 0.7216
0.4000 0.1171 0.7294
0.4200 0.1238 0.7264
0.4400 0.1305 0.7286
0.4600 0.1372 0.7322
0.4800 0.1438 0.7245
0.5000 0.1505 0.7341
0.5200 0.1572 0.7338
0.5400 0.1638 0.7287
0.5600 0.1704 0.7401
0.5800 0.1770 0.7399
0.6000 0.1837 0.7340
0.6200 0.1905 0.7431
0.6400 0.1972 0.7394
0.6600 0.2039 0.7376
0.6800 0.2105 0.7494
0.7000 0.2172 0.7463
0.7200 0.2238 0.7383
0.7400 0.2304 0.7579
0.7600 0.2371 0.7483
0.7800 0.2437 0.7476
0.8000 0.2504 0.7585
0.8200 0.2571 0.7525
0.8400 0.2638 0.7536
0.8600 0.2705 0.7594
0.8800 0.2772 0.7564
0.9000 0.2838 0.7562
0.9200 0.2904 0.7642
0.9400 0.2970 0.7656
0.9600 0.3037 0.7611
0.9800 0.3104 0.7715
1.0000 0.3171 0.7684
1.0200 0.3238 0.7587
1.0400 0.3305 0.7676
1.0600 0.3371 0.7719
1.0800 0.3438 0.7655
1.1000 0.3504 0.7719
1.1200 0.3570 0.7703
1.1400 0.3637 0.7615
1.1600 0.3705 0.7736
1.1800 0.3772 0.7722
1.2000 0.3838 0.7587
1.2200 0.3905 0.7737
1.2400 0.3972 0.7699
1.2600 0.4039 0.7535
1.2800 0.4105 0.7788
1.3000 0.4171 0.7717
1.3200 0.4238 0.7555
1.3400 0.4305 0.7738
1.3600 0.4372 0.7683
1.3800 0.4438 0.7591
1.4000 0.4505 0.7785
1.4200 0.4572 0.7569
1.4400 0.4638 0.7522
1.4600 0.4704 0.7743
1.4800 0.4770 0.7585
1.5000 0.4837 0.7554
1.5200 0.4904 0.7690
1.5400 0.4971 0.7542
1.5600 0.5038 0.7561
1.5800 0.5105 0.7623
1.6000 0.5172 0.7542
1.6200 0.5238 0.7555
1.6400 0.5304 0.7594
1.6600 0.5370 0.7484
1.6800 0.5437 0.7532
1.7000 0.5505 0.7573
1.7200 0.5572 0.7433
1.7400 0.5638 0.7506
1.7600 0.5705 0.7506
1.7800 0.5771 0.7483
1.8000 0.5838 0.7482
1.8200 0.5904 0.7473
1.8400 0.5971 0.7463
1.8600 0.6037 0.7446
1.8800 0.6104 0.7451
1.9000 0.6171 0.7463
1.9200 0.6238 0.7439
1.9400 0.6305 0.7475
1.9600 0.6372 0.7457
1.9800 0.6439 0.7394
2.0000 0.6505 0.7452
2.0200 0.6570 0.7460
2.0400 0.6637 0.7340
2.0600 0.6705 0.7453
2.0800 0.6772 0.7425
2.1000 0.6839 0.7326
2.1200 0.6905 0.7441
2.1400 0.6972 0.7446
2.1600 0.7038 0.7337
2.1800 0.7104 0.7416
2.2000 0.7171 0.7395
2.2200 0.7237 0.7357
2.2400 0.7305 0.7393
2.2600 0.7371 0.7395
2.2800 0.7438 0.7280
2.3000 0.7505 0.7369
2.3200 0.7572 0.7407
2.3400 0.7638 0.7304
2.3600 0.7704 0.7383
2.3800 0.7771 0.7396
2.4000 0.7837 0.7327
2.4200 0.7904 0.7361
2.4400 0.7971 0.7359
2.4600 0.8038 0.7312
2.4800 0.8105 0.7358
2.5000 0.8172 0.7375
2.5200 0.8239 0.7253
2.5400 0.8305 0.7364
2.5600 0.8371 0.7389
2.5800 0.8437 0.7245
2.6000 0.8504 0.7367
2.6200 0.8572 0.7350
2.6400 0.8639 0.7233
2.6600 0.8705 0.7354
2.6800 0.8772 0.7348
2.7000 0.8838 0.7201
2.7200 0.8904 0.7364
2.7400 0.8971 0.7297
2.7600 0.9038 0.7188
2.7800 0.9105 0.7376
2.8000 0.9172 0.7289
2.8200 0.9239 0.7240
2.8400 0.9305 0.7342
2.8600 0.9372 0.7276
2.8800 0.9439 0.7233
2.9000 0.9505 0.7322
2.9200 0.9571 0.7241
2.9400 0.9637 0.7197
2.9600 0.9704 0.7356
2.9800 0.9771 0.7258
3.0000 0.9838 0.7200
3.0200 0.9905 0.7304
3.0400 0.9972 0.7203
3.0600 1.0038 0.7231
3.0800 1.0104 0.7285
3.1000 1.0170 0.7203
3.1200 1.0237 0.7289
3.1400 1.0304 0.7232
3.1600 1.0371 0.7149
3.1800 1.0438 0.7285
3.2000 1.0505 0.7235
3.2200 1.0572 0.7174
3.2400 1.0638 0.7240
3.2600 1.0705 0.7154
3.2800 1.0771 0.7178
3.3000 1.0837 0.7290
3.3200 1.0904 0.7107
3.3400 1.0971 0.7196
3.3600 1.1038 0.7236
3.3800 1.1105 0.7139
3.4000 1.1172 0.7167
3.4200 1.1239 0.7179
3.4400 1.1305 0.7113
3.4600 1.1371 0.7199
3.4800 1.1437 0.7153
3.5000 1.1504 0.7155
3.5200 1.1572 0.7185
3.5400 1.1638 0.7131
3.5600 1.1705 0.7134
3.5800 1.1772 0.7200
3.6000 1.1839 0.7097
3.6200 1.1905 0.7126
3.6400 1.1971 0.7155
3.6600 1.2037 0.7084
3.6800 1.2104 0.7154
3.7000 1.2172 0.7074
3.7200 1.2238 0.7086
3.7400 1.2305 0.7216
3.7600 1.2372 0.7107
3.7800 1.2438 0.7063
3.8000 1.2505 0.7156
3.8200 1.2571 0.7083
3.8400 1.2637 0.7103
3.8600 1.2704 0.7160
3.8800 1.2771 0.7077
3.9000 1.2838 0.7065
3.9200 1.2905 0.7123
3.9400 1.2972 0.7059
3.9600 1.3038 0.7134
3.9800 1.3105 0.7136
4.0000 1.3171 0.7017
4.0200 1.3237 0.7119
4.0400 1.3304 0.7141
4.0600 1.3371 0.6993
4.0800 1.3438 0.7153
4.1000 1.3505 0.7111
4.1200 1.3572 0.7010
4.1400 1.3639 0.7147
4.1600 1.3705 0.7117
4.1800 1.3771 0.7018
4.2000 1.3837 0.7205
4.2200 1.3905 0.7055
4.2400 1.3972 0.6984
4.2600 1.4039 0.7138
4.2800 1.4105 0.7047
4.3000 1.4172 0.7005
4.3200 1.4239 0.7180
4.3400 1.4305 0.7060
4.3600 1.4371 0.6971
4.3800 1.4437 0.7177
4.4000 1.4504 0.7043
4.4200 1.4571 0.6978
4.4400 1.4638 0.7126
4.4600 1.4705 0.7048
4.4800 1.4772 0.7042
4.5000 1.4839 0.7123
4.5200 1.4905 0.6980
4.5400 1.4971 0.7050
4.5600 1.5037 0.7135
4.5800 1.5104 0.7039
4.6000 1.5171 0.7011
4.6200 1.5238 0.7082
4.6400 1.5305 0.6993
4.6600 1.5372 0.7023
4.6800 1.5438 0.7042
4.7000 1.5505 0.6997
4.7200 1.5571 0.7031
4.7400 1.5637 0.7040
4.7600 1.5704 0.6989
4.7800 1.5772 0.7006
4.8000 1.5839 0.6968
4.8200 1.5905 0.7021
4.8400 1.5972 0.6941
4.8600 1.6039 0.7017
4.8800 1.6105 0.7053
4.9000 1.6171 0.6928
4.9200 1.6237 0.6964
4.9400 1.6304 0.6966
4.9600 1.6371 0.6964
4.9800 1.6438 0.7034
5.0000 1.6505 0.6945
5.0200 1.6572 0.6916
5.0400 1.6639 0.7020
5.0600 1.6705 0.6957
5.0800 1.6771 0.6917
5.1000 1.6837 0.6997
5.1200 1.6904 0.6935
5.1400 1.6971 0.6919
5.1600 1.7038 0.7020
5.1800 1.7105 0.6940
5.2000 1.7172 0.6912
5.2200 1.7239 0.6972
5.2400 1.7305 0.6902
5.2600 1.7371 0.6911
5.2800 1.7437 0.7032
5.3000 1.7504 0.6890
5.3200 1.7571 0.6853
5.3400 1.7638 0.6946
5.3600 1.7705 0.6913
5.3800 1.7771 0.6877
5.4000 1.7838 0.6958
5.4200 1.7905 0.6851
5.4400 1.7971 0.6823
5.4600 1.8037 0.6993
5.4800 1.8104 0.6882
5.5000 1.8171 0.6781
5.5200 1.8238 0.6935
5.5400 1.8305 0.6849
5.5600 1.8372 0.6836
5.5800 1.8439 0.6951
5.6000 1.8505 0.6875
5.6200 1.8571 0.6787
5.6400 1.8637 0.6912
5.6600 1.8704 0.6883
5.6800 1.8771 0.6762
5.7000 1.8838 0.6871
5.7200 1.8905 0.6827
5.7400 1.8972 0.6747
5.7600 1.9039 0.6888
5.7800 1.9105 0.6864
5.8000 1.9171 0.6688
5.8200 1.9237 0.6900
5.8400 1.9304 0.6850
5.8600 1.9371 0.6743
5.8800 1.9438 0.6886
5.9000 1.9505 0.6805
5.9200 1.9572 0.6689
5.9400 1.9639 0.6862
5.9600 1.9705 0.6812
5.9800 1.9771 0.6705
6.0000 1.9837 0.6821
6.0200 1.9904 0.6788
6.0400 1.9971 0.6717
6.0600 2.0038 0.6829
6.0800 2.0105 0.6728
6.1000 2.0172 0.6716
6.1200 2.0239 0.6821
6.1400 2.0305 0.6731
6.1600 2.0371 0.6736
6.1800 2.0437 0.6811
6.2000 2.0504 0.6698
6.2200 2.0571 0.6729
6.2400 2.0638 0.6751
6.2600 2.0705 0.6669
6.2800 2.0772 0.6738
6.3000 2.0839 0.6744
6.3200 2.0905 0.6703
6.3400 2.0971 0.6702
6.3600 2.1037 0.6783
6.3800 2.1104 0.6711
6.4000 2.1171 0.6665
6.4200 2.1238 0.6695
6.4400 2.1305 0.6729
6.4600 2.1372 0.6673
6.4800 2.1439 0.6708
6.5000 2.1505 0.6726
6.5200 2.1572 0.6691
6.5400 2.1638 0.6694
6.5600 2.1704 0.6719
6.5800 2.1771 0.6643
6.6000 2.1838 0.6697
6.6200 2.1905 0.6706
6.6400 2.1972 0.6634
6.6600 2.2039 0.6660
6.6800 2.2105 0.6754
6.7000 2.2171 0.6641
6.7200 2.2237 0.6689
6.7400 2.2304 0.6755
6.7600 2.2371 0.6640
6.7800 2.2438 0.6614
6.8000 2.2505 0.6748
6.8200 2.2572 0.6670
6.8400 2.2639 0.6618
6.8600 2.2705 0.6648
6.8800 2.2771 0.6719
6.9000 2.2837 0.6652
6.9200 2.2904 0.6648
6.9400 2.2971 0.6666
6.9600 2.3038 0.6649
6.9800 2.3105 0.6630
7.0000 2.3172 0.6634
7.0200 2.3239 0.6684
7.0400 2.3305 0.6666
7.0600 2.3371 0.6595
7.0800 2.3438 0.6643
7.1000 2.3504 0.6720
7.1200 2.3571 0.6627
7.1400 2.3638 0.6568
7.1600 2.3705 0.6689
7.1800 2.3772 0.6598
7.2000 2.3839 0.6545
7.2200 2.3905 0.6709
7.2400 2.3971 0.6625
7.2600 2.4037 0.6581
7.2800 2.4104 0.6660
7.3000 2.4171 0.6622
7.3200 2.4238 0.6600
7.3400 2.4305 0.6651
7.3600 2.4372 0.6538
7.3800 2.4438 0.6628
7.4000 2.4505 0.6665
7.4200 2.4571 0.6522
7.4400 2.4637 0.6634
7.4600 2.4704 0.6671
7.4800 2.4771 0.6501
7.5000 2.4838 0.6623
7.5200 2.4905 0.6599
7.5400 2.4971 0.6537
7.5600 2.5038 0.6613
7.5800 2.5105 0.6590
7.6000 2.5171 0.6564
7.6200 2.5238 0.6631
7.6400 2.5304 0.6548
7.6600 2.5371 0.6548
7.6800 2.5438 0.6662
7.7000 2.5505 0.6516
7.7200 2.5572 0.6564
7.7400 2.5639 0.6606
7.7600 2.5706 0.6532
7.7800 2.5772 0.6566
7.8000 2.5838 0.6597
7.8200 2.5904 0.6538
7.8400 2.5971 0.6515
7.8600 2.6038 0.6534
7.8800 2.6105 0.6619
7.9000 2.6172 0.6532
7.9200 2.6239 0.6468
7.9400 2.6305 0.6538
7.9600 2.6371 0.6565
7.9800 2.6437 0.6514
8.0000 2.6504 0.6565
8.0200 2.6571 0.6514
8.0400 2.6638 0.6434
8.0600 2.6705 0.6568
8.0800 2.6772 0.6552
8.1000 2.6838 0.6483
8.1200 2.6905 0.6557
8.1400 2.6971 0.6498
8.1600 2.7037 0.6483
8.1800 2.7103 0.6617
8.2000 2.7171 0.6483
8.2200 2.7238 0.6398
8.2400 2.7305 0.6590
8.2600 2.7372 0.6420
8.2800 2.7438 0.6386
8.3000 2.7505 0.6648
8.3200 2.7571 0.6437
8.3400 2.7638 0.6336
8.3600 2.7704 0.6604
8.3800 2.7771 0.6429
8.4000 2.7838 0.6385
8.4200 2.7905 0.6590
8.4400 2.7971 0.6383
8.4600 2.8038 0.6371
8.4800 2.8105 0.6506
8.5000 2.8171 0.6462
8.5200 2.8238 0.6420
8.5400 2.8304 0.6435
8.5600 2.8371 0.6434
8.5800 2.8438 0.6452
8.6000 2.8505 0.6367
8.6200 2.8572 0.6443
8.6400 2.8639 0.6444
8.6600 2.8706 0.6329
8.6800 2.8772 0.6402
8.7000 2.8838 0.6527
8.7200 2.8904 0.6285
8.7400 2.8971 0.6419
8.7600 2.9038 0.6444
8.7800 2.9105 0.6291
8.8000 2.9172 0.6382
8.8200 2.9238 0.6413
8.8400 2.9305 0.6330
8.8600 2.9371 0.6373
8.8800 2.9437 0.6415
8.9000 2.9503 0.6364
8.9200 2.9570 0.6338
8.9400 2.9637 0.6377
8.9600 2.9704 0.6375
8.9800 2.9771 0.6368
9.0000 2.9838 0.6315
9.0200 2.9905 0.6296
9.0400 2.9971 0.6385
9.0600 3.0037 0.6332
9.0800 3.0104 0.6291
9.1000 3.0171 0.6315
9.1200 3.0238 0.6354
9.1400 3.0305 0.6239
9.1600 3.0372 0.6343
9.1800 3.0439 0.6354
9.2000 3.0506 0.6262
9.2200 3.0572 0.6261
9.2400 3.0638 0.6346
9.2600 3.0704 0.6344
9.2800 3.0771 0.6299
9.3000 3.0838 0.6245
9.3200 3.0905 0.6336
9.3400 3.0972 0.6303
9.3600 3.1039 0.6303
9.3800 3.1106 0.6230
9.4000 3.1172 0.6265
9.4200 3.1237 0.6371
9.4400 3.1304 0.6254
9.4600 3.1371 0.6237
9.4800 3.1438 0.6327
9.5000 3.1505 0.6289
9.5200 3.1572 0.6186
9.5400 3.1638 0.6330
9.5600 3.1705 0.6288
9.5800 3.1772 0.6171
9.6000 3.1838 0.6280
9.6200 3.1904 0.6227
9.6400 3.1971 0.6306
9.6600 3.2038 0.6260
9.6800 3.2105 0.6193
9.7000 3.2171 0.6316
9.7200 3.2238 0.6253
9.7400 3.2305 0.6204
9.7600 3.2371 0.6234
9.7800 3.2437 0.6315
9.8000 3.2504 0.6195
9.8200 3.2571 0.6204
9.8400 3.2638 0.6270
9.8600 3.2705 0.6242
9.8800 3.2772 0.6263
9.9000 3.2839 0.6217
9.9200 3.2905 0.6171
9.9400 3.2972 0.6284
9.9600 3.3038 0.6183
9.9800 3.3104 0.6235
10.0000 3.3171 0.6196
10.0200 3.3239 0.6213
10.0400 3.3305 0.6190
10.0600 3.3372 0.6205
10.0800 3.3439 0.6220
10.1000 3.3505 0.6163
10.1200 3.3572 0.6205
10.1400 3.3638 0.6185
10.1600 3.3704 0.6214
10.1800 3.3771 0.6203
10.2000 3.3838 0.6173
10.2200 3.3904 0.6188
10.2400 3.3971 0.6203
10.2600 3.4038 0.6191
10.2800 3.4105 0.6116
10.3000 3.4171 0.6188
10.3200 3.4237 0.6169
10.3400 3.4303 0.6127
10.3600 3.4370 0.6247
10.3800 3.4438 0.6135
10.4000 3.4505 0.6083
10.4200 3.4572 0.6189
10.4400 3.4638 0.6164
10.4600 3.4705 0.6125
10.4800 3.4772 0.6181
10.5000 3.4838 0.6082
10.5200 3.4904 0.6117
10.5400 3.4971 0.6174
10.5600 3.5038 0.6059
10.5800 3.5105 0.6091
10.6000 3.5172 0.6183
10.6200 3.5239 0.6060
10.6400 3.5305 0.6123
10.6600 3.5372 0.6119
10.6800 3.5438 0.6053
10.7000 3.5504 0.6138
10.7200 3.5570 0.6104
10.7400 3.5638 0.6046
10.7600 3.5705 0.6176
10.7800 3.5772 0.6109
10.8000 3.5839 0.6032
10.8200 3.5906 0.6119
10.8400 3.5972 0.6063
10.8600 3.6038 0.6050
10.8800 3.6104 0.6099
10.9000 3.6171 0.6050
10.9200 3.6238 0.6061
10.9400 3.6305 0.6128
10.9600 3.6372 0.6004
10.9800 3.6439 0.6082
11.0000 3.6505 0.6102
11.0200 3.6571 0.5992
11.0400 3.6638 0.6081
11.0600 3.6704 0.6107
11.0800 3.6770 0.6002
11.1000 3.6838 0.6070
11.1200 3.6904 0.6036
11.1400 3.6971 0.6030
11.1600 3.7038 0.6106
11.1800 3.7105 0.6064
11.2000 3.7171 0.5990
11.2200 3.7237 0.6049
11.2400 3.7304 0.6054
11.2600 3.7371 0.6089
11.2800 3.7438 0.6039
11.3000 3.7505 0.6025
11.3200 3.7572 0.6038
11.3400 3.7639 0.6091
11.3600 3.7706 0.6036
11.3800 3.7772 0.5965
11.4000 3.7838 0.6105
11.4200 3.7904 0.6008
11.4400 3.7971 0.5950
11.4600 3.8038 0.6103
11.4800 3.8105 0.5988
11.5000 3.8172 0.5888
11.5200 3.8238 0.6087
11.5400 3.8305 0.6093
11.5600 3.8372 0.5885
11.5800 3.8438 0.5977
11.6000 3.8504 0.6082
11.6200 3.8571 0.5889
11.6400 3.8638 0.6040
11.6600 3.8705 0.6008
11.6800 3.8771 0.5865
11.7000 3.8838 0.6034
11.7200 3.8905 0.6056
11.7400 3.8972 0.5858
11.7600 3.9038 0.6017
11.7800 3.9104 0.6036
11.8000 3.9170 0.5839
11.8200 3.9237 0.5960
11.8400 3.9304 0.6046
11.8600 3.9371 0.5947
11.8800 3.9438 0.5896
11.9000 3.9505 0.5886
11.9200 3.9572 0.6058
11.9400 3.9638 0.5907
11.9600 3.9704 0.5842
11.9800 3.9771 0.6069
12.0000 3.9838 0.5974
12.0200 3.9905 0.5758
12.0400 3.9972 0.6015
12.0600 4.0039 0.5924
12.0800 4.0105 0.5816
12.1000 4.0172 0.6206
12.1200 4.0238 0.5742
12.1400 4.0304 0.5667
12.1600 4.0371 0.6427
12.1800 4.0438 0.5883
12.2000 4.0505 0.5389
12.2200 4.0572 0.6315
12.2400 4.0639 0.5973
12.2600 4.0706 0.5489
12.2800 4.0772 0.6193
12.3000 4.0838 0.5929
12.3200 4.0904 0.5616
12.3400 4.0970 0.6256
12.3600 4.1037 0.5684
12.3800 4.1105 0.5622
12.4000 4.1172 0.6391
12.4200 4.1239 0.5775
12.4400 4.1305 0.5468
12.4600 4.1372 0.6182
12.4800 4.1438 0.5980
12.5000 4.1504 0.5701
12.5200 4.1570 0.5903
12.5400 4.1638 0.5796
12.5600 4.1705 0.5900
12.5800 4.1771 0.6004
12.6000 4.1838 0.5631
12.6200 4.1905 0.5833
12.6400 4.1972 0.6053
12.6600 4.2038 0.5749
12.6800 4.2104 0.5783
12.7000 4.2171 0.5884
12.7200 4.2238 0.5765
12.7400 4.2305 0.5887
12.7600 4.2372 0.5871
12.7800 4.2439 0.5684
12.8000 4.2506 0.5897
12.8200 4.2572 0.5848
12.8400 4.2638 0.5673
12.8600 4.2704 0.5941
12.8800 4.2771 0.5880
12.9000 4.2838 0.5643
12.9200 4.2905 0.5784
12.9400 4.2972 0.5876
12.9600 4.3039 0.5865
12.9800 4.3105 0.5810
13.0000 4.3172 0.5667
13.0200 4.3238 0.5764
13.0400 4.3304 0.5932
13.0600 4.3371 0.5746
13.0800 4.3438 0.5740
13.1000 4.3505 0.5757
13.1200 4.3571 0.5846
13.1400 4.3638 0.5819
13.1600 4.3705 0.5705
13.1800 4.3772 0.5828
13.2000 4.3838 0.5884
13.2200 4.3904 0.5638
13.2400 4.3970 0.5710
13.2600 4.4037 0.5854
13.2800 4.4104 0.5823
13.3000 4.4171 0.5671
13.3200 4.4238 0.5733
13.3400 4.4305 0.5776
13.3600 4.4372 0.5800
13.3800 4.4438 0.5756
13.4000 4.4504 0.5722
13.4200 4.4571 0.5775
13.4400 4.4638 0.5806
13.4600 4.4705 0.5728
13.4800 4.4772 0.5680
13.5000 4.4839 0.5749
13.5200 4.4906 0.5859
13.5400 4.4972 0.5726
13.5600 4.5038 0.5636
13.5800 4.5104 0.5814
13.6000 4.5171 0.5775
13.6200 4.5238 0.5692
13.6400 4.5305 0.5782
13.6600 4.5372 0.5723
13.6800 4.5438 0.5702
13.7000 4.5505 0.5772
13.7200 4.5572 0.5674
13.7400 4.5638 0.5727
13.7600 4.5704 0.5777
13.7800 4.5770 0.5663
13.8000 4.5837 0.5704
13.8200 4.5904 0.5790
13.8400 4.5971 0.5622
13.8600 4.6038 0.5709
13.8800 4.6105 0.5764
13.9000 4.6172 0.5668
13.9200 4.6238 0.5684
13.9400 4.6304 0.5731
13.9600 4.6370 0.5634
13.9800 4.6437 0.5700
14.0000 4.6505 0.5743
14.0200 4.6572 0.5639
14.0400 4.6639 0.5652
14.0600 4.6705 0.5742
14.0800 4.6772 0.5676
14.1000 4.6838 0.5617
14.1200 4.6904 0.5726
14.1400 4.6971 0.5677
14.1600 4.7038 0.5642
14.1800 4.7105 0.5652
14.2000 4.7172 0.5667
14.2200 4.7238 0.5686
14.2400 4.7305 0.5696
14.2600 4.7372 0.5619
14.2800 4.7439 0.5658
14.3000 4.7505 0.5692
14.3200 4.7571 0.5656
14.3400 4.7637 0.5633
14.3600 4.7705 0.5656
14.3800 4.7772 0.5670
14.4000 4.7839 0.5641
14.4200 4.7906 0.5584
14.4400 4.7972 0.5665
14.4600 4.8039 0.5682
14.4800 4.8104 0.5552
14.5000 4.8170 0.5669
14.5200 4.8237 0.5717
14.5400 4.8304 0.5497
14.5600 4.8371 0.5626
14.5800 4.8438 0.5731
14.6000 4.8505 0.5547
14.6200 4.8572 0.5572
14.6400 4.8638 0.5713
14.6600 4.8704 0.5512
14.6800 4.8770 0.5611
14.7000 4.8837 0.5677
14.7200 4.8904 0.5567
14.7400 4.8970 0.5594
14.7600 4.9037 0.5621
14.7800 4.9104 0.5600
14.8000 4.9172 0.5656
14.8200 4.9239 0.5568
14.8400 4.9305 0.5542
14.8600 4.9371 0.5701
14.8800 4.9438 0.5545
14.9000 4.9505 0.5511
14.9200 4.9572 0.5613
14.9400 4.9638 0.5630
14.9600 4.9705 0.5598
14.9800 4.9772 0.5519
15.0000 4.9839 0.5540
15.0200 4.9904 0.5672
15.0400 4.9971 0.5528
15.0600 5.0037 0.5599
15.0800 5.0105 0.5660
15.1000 5.0172 0.5457
15.1200 5.0239 0.5549
15.1400 5.0305 0.5701
15.1600 5.0372 0.5438
15.1800 5.0438 0.5566
15.2000 5.0504 0.5701
15.2200 5.0571 0.5435
15.2400 5.0638 0.5532
15.2600 5.0705 0.5662
15.2800 5.0772 0.5515
15.3000 5.0838 0.5588
15.3200 5.0905 0.5514
15.3400 5.0972 0.5424
15.3600 5.1039 0.5669
15.3800 5.1104 0.5539
15.4000 5.1170 0.5423
15.4200 5.1237 0.5678
15.4400 5.1304 0.5493
15.4600 5.1371 0.5403
15.4800 5.1438 0.5648
15.5000 5.1505 0.5480
15.5200 5.1571 0.5398
15.5400 5.1637 0.5669
15.5600 5.1703 0.5505
15.5800 5.1770 0.5346
15.6000 5.1837 0.5665
15.6200 5.1905 0.5506
15.6400 5.1972 0.5348
15.6600 5.2039 0.5613
15.6800 5.2106 0.5473
15.7000 5.2172 0.5386
15.7200 5.2239 0.5577
15.7400 5.2305 0.5436
15.7600 5.2371 0.5427
15.7800 5.2438 0.5558
15.8000 5.2505 0.5410
15.8200 5.2572 0.5409
15.8400 5.2639 0.5575
15.8600 5.2706 0.5369
15.8800 5.2772 0.5404
15.9000 5.2839 0.5537
15.9200 5.2904 0.5425
15.9400 5.2970 0.5380
15.9600 5.3037 0.5501
15.9800 5.3104 0.5418
16.0000 5.3171 0.5454
16.0200 5.3238 0.5499
16.0400 5.3305 0.5379
16.0600 5.3372 0.5371
16.0800 5.3438 0.5462
16.1000 5.3504 0.5431
16.1200 5.3570 0.5455
16.1400 5.3637 0.5381
16.1600 5.3705 0.5426
16.1800 5.3772 0.5429
16.2000 5.3838 0.5356
16.2200 5.3905 0.5490
16.2400 5.3972 0.5374
16.2600 5.4038 0.5361
16.2800 5.4105 0.5457
16.3000 5.4171 0.5375
16.3200 5.4237 0.5363
16.3400 5.4304 0.5448
16.3600 5.4371 0.5317
16.3800 5.4438 0.5428
16.4000 5.4505 0.5497
16.4200 5.4573 0.5289
16.4400 5.4639 0.5314
16.4600 5.4705 0.5504
16.4800 5.4771 0.5355
16.5000 5.4837 0.5379
16.5200 5.4905 0.5482
16.5400 5.4972 0.5308
16.5600 5.5039 0.5309
16.5800 5.5105 0.5488
16.6000 5.5172 0.5391
16.6200 5.5238 0.5296
16.6400 5.5304 0.5357
16.6600 5.5371 0.5378
16.6800 5.5437 0.5342
16.7000 5.5505 0.5406
16.7200 5.5572 0.5412
16.7400 5.5638 0.5300
16.7600 5.5705 0.5366
16.7800 5.5772 0.5381
16.8000 5.5838 0.5299
16.8200 5.5905 0.5370
16.8400 5.5971 0.5425
16.8600 5.6037 0.5309
16.8800 5.6104 0.5352
16.9000 5.6171 0.5370
16.9200 5.6238 0.5331
16.9400 5.6305 0.5386
16.9600 5.6372 0.5370
16.9800 5.6439 0.5263
17.0000 5.6505 0.5315
17.0200 5.6571 0.5406
17.0400 5.6637 0.5328
17.0600 5.6705 0.5258
17.0800 5.6772 0.5369
17.1000 5.6839 0.5315
17.1200 5.6905 0.5272
17.1400 5.6971 0.5337
17.1600 5.7038 0.5350
17.1800 5.7104 0.5303
17.2000 5.7170 0.5332
17.2200 5.7238 0.5264
17.2400 5.7305 0.5287
17.2600 5.7372 0.5351
17.2800 5.7439 0.5234
17.3000 5.7505 0.5301
17.3200 5.7572 0.5350
17.3400 5.7639 0.5192
17.3600 5.7705 0.5311
17.3800 5.7771 0.5341
17.4000 5.7837 0.5260
17.4200 5.7904 0.5364
17.4400 5.7971 0.5246
17.4600 5.8038 0.5217
17.4800 5.8105 0.5327
17.5000 5.8172 0.5229
17.5200 5.8239 0.5168
17.5400 5.8305 0.5398
17.5600 5.8370 0.5273
17.5800 5.8437 0.5197
17.6000 5.8504 0.5337
17.6200 5.8571 0.5206
17.6400 5.8638 0.5205
17.6600 5.8705 0.5335
17.6800 5.8772 0.5159
17.7000 5.8838 0.5233
17.7200 5.8905 0.5266
17.7400 5.8971 0.5223
17.7600 5.9038 0.5219
17.7800 5.9104 0.5254
17.8000 5.9171 0.5202
17.8200 5.9238 0.5194
17.8400 5.9305 0.5246
17.8600 5.9372 0.5233
17.8800 5.9439 0.5186
17.9000 5.9505 0.5216
17.9200 5.9571 0.5234
17.9400 5.9637 0.5198
17.9600 5.9704 0.5212
17.9800 5.9771 0.5249
18.0000 5.9838 0.5155
18.0200 5.9906 0.5175
18.0400 5.9973 0.5170
18.0600 6.0039 0.5130
18.0800 6.0105 0.5169
18.1000 6.0171 0.5164
18.1200 6.0237 0.5200
18.1400 6.0304 0.5179
18.1600 6.0372 0.5141
18.1800 6.0438 0.5150
18.2000 6.0505 0.5178
18.2200 6.0572 0.5165
18.2400 6.0638 0.5172
18.2600 6.0705 0.5145
18.2800 6.0771 0.5148
18.3000 6.0837 0.5114
18.3200 6.0904 0.5181
18.3400 6.0971 0.5170
18.3600 6.1038 0.5153
18.3800 6.1105 0.5092
18.4000 6.1172 0.5163
18.4200 6.1239 0.5110
18.4400 6.1305 0.5084
18.4600 6.1371 0.5167
18.4800 6.1437 0.5099
18.5000 6.1504 0.5104
18.5200 6.1571 0.5186
18.5400 6.1638 0.5124
18.5600 6.1705 0.5088
18.5800 6.1772 0.5129
18.6000 6.1839 0.5080
18.6200 6.1905 0.5068
18.6400 6.1971 0.5185
18.6600 6.2037 0.5037
18.6800 6.2105 0.5114
18.7000 6.2172 0.5155
18.7200 6.2239 0.4986
18.7400 6.2305 0.5147
18.7600 6.2372 0.5145
18.7800 6.2438 0.4988
18.8000 6.2505 0.5072
18.8200 6.2571 0.5146
18.8400 6.2638 0.5041
18.8600 6.2705 0.5094
18.8800 6.2771 0.5057
18.9000 6.2838 0.5037
18.9200 6.2905 0.5106
18.9400 6.2972 0.5080
18.9600 6.3039 0.5060
18.9800 6.3105 0.5098
19.0000 6.3171 0.5005
19.0200 6.3237 0.5077
19.0400 6.3304 0.5050
19.0600 6.3371 0.5041
19.0800 6.3438 0.5083
19.1000 6.3505 0.5019
19.1200 6.3572 0.5006
19.1400 6.3638 0.5088
19.1600 6.3705 0.5010
19.1800 6.3771 0.5056
19.2000 6.3837 0.5111
19.2200 6.3904 0.4996
19.2400 6.3972 0.5021
19.2600 6.4039 0.5083
19.2800 6.4106 0.4950
19.3000 6.4172 0.5030
19.3200 6.4239 0.5110
19.3400 6.4305 0.4900
19.3600 6.4371 0.5042
19.3800 6.4437 0.5106
19.4000 6.4504 0.4898
19.4200 6.4571 0.5031
19.4400 6.4638 0.5098
19.4600 6.4705 0.4927
19.4800 6.4772 0.5030
19.5000 6.4839 0.5034
19.5200 6.4905 0.4958
19.5400 6.4971 0.5033
19.5600 6.5037 0.5053
19.5800 6.5104 0.4920
19.6000 6.5171 0.5079
19.6200 6.5238 0.5024
19.6400 6.5305 0.4897
19.6600 6.5372 0.5037
19.6800 6.5439 0.5016
19.7000 6.5505 0.4911
19.7200 6.5571 0.5082
19.7400 6.5637 0.4981
19.7600 6.5703 0.4970
19.7800 6.5771 0.5025
19.8000 6.5838 0.4936
19.8200 6.5905 0.4949
19.8400 6.5971 0.5064
19.8600 6.6038 0.4931
19.8800 6.6105 0.4911
19.9000 6.6171 0.5028
19.9200 6.6237 0.4927
19.9400 6.6304 0.4966
19.9600 6.6371 0.4974
19.9800 6.6438 0.4878
20.0000 6.6505 0.4983
20.0200 6.6572 0.4983
20.0400 6.6639 0.4901
20.0600 6.6706 0.4920
20.0800 6.6771 0.5008
20.1000 6.6838 0.4968
20.1200 6.6904 0.4897
20.1400 6.6972 0.4991
20.1600 6.7039 0.4904
20.1800 6.7105 0.4939
20.2000 6.7172 0.4945
20.2200 6.7239 0.4904
20.2400 6.7305 0.4950
20.2600 6.7371 0.4959
20.2800 6.7437 0.4913
20.3000 6.7504 0.4929
20.3200 6.7571 0.4950
20.3400 6.7638 0.4932
20.3600 6.7704 0.4892
20.3800 6.7771 0.4919
20.4000 6.7838 0.4888
20.4200 6.7905 0.4922
20.4400 6.7971 0.4901
20.4600 6.8037 0.4901
20.4800 6.8104 0.4890
20.5000 6.8171 0.4928
20.5200 6.8238 0.4807
20.5400 6.8305 0.4862
20.5600 6.8372 0.5017
20.5800 6.8439 0.4863
20.6000 6.8505 0.4739
20.6200 6.8572 0.4988
20.6400 6.8638 0.4967
20.6600 6.8704 0.4734
20.6800 6.8771 0.4915
20.7000 6.8838 0.4964
20.7200 6.8905 0.4743
20.7400 6.8972 0.4872
20.7600 6.9039 0.4886
20.7800 6.9105 0.4790
20.8000 6.9171 0.4994
20.8200 6.9237 0.4776
20.8400 6.9304 0.4831
20.8600 6.9371 0.4935
20.8800 6.9438 0.4675
20.9000 6.9505 0.4895
20.9200 6.9572 0.5005
20.9400 6.9639 0.4691
20.9600 6.9705 0.4877
20.9800 6.9772 0.4856
21.0000 6.9838 0.4699
21.0200 6.9904 0.4980
21.0400 6.9971 0.4971
21.0600 7.0038 0.4631
21.0800 7.0105 0.4823
21.1000 7.0172 0.4843
21.1200 7.0239 0.4829
21.1400 7.0305 0.4909
21.1600 7.0371 0.4784
21.1800 7.0437 0.4786
21.2000 7.0503 0.4852
21.2200 7.0570 0.4688
21.2400 7.0638 0.4857
21.2600 7.0705 0.4900
21.2800 7.0771 0.4659
21.3000 7.0838 0.4811
21.3200 7.0905 0.4916
21.3400 7.0971 0.4688
21.3600 7.1037 0.4827
21.3800 7.1104 0.4899
21.4000 7.1171 0.4666
21.4200 7.1238 0.4804
21.4400 7.1305 0.4812
21.4600 7.1372 0.4756
21.4800 7.1439 0.4806
21.5000 7.1505 0.4835
21.5200 7.1571 0.4742
21.5400 7.1638 0.4787
21.5600 7.1704 0.4751
21.5800 7.1771 0.4797
21.6000 7.1838 0.4811
21.6200 7.1905 0.4743
21.6400 7.1972 0.4692
21.6600 7.2039 0.4812
21.6800 7.2106 0.4771
21.7000 7.2172 0.4754
21.7200 7.2237 0.4794
21.7400 7.2304 0.4792
21.7600 7.2371 0.4711
21.7800 7.2438 0.4763
21.8000 7.2505 0.4764
21.8200 7.2572 0.4733
21.8400 7.2638 0.4763
21.8600 7.2705 0.4715
21.8800 7.2771 0.4663
21.9000 7.2837 0.4768
21.9200 7.2904 0.4817
21.9400 7.2971 0.4644
21.9600 7.3038 0.4742
21.9800 7.3104 0.4803
22.0000 7.3171 0.4663
22.0200 7.3238 0.4723
22.0400 7.3305 0.4812
22.0600 7.3371 0.4636
22.0800 7.3438 0.4745
22.1000 7.3504 0.4741
22.1200 7.3571 0.4648
22.1400 7.3638 0.4748
22.1600 7.3705 0.4690
22.1800 7.3772 0.4617
22.2000 7.3839 0.4729
22.2200 7.3906 0.4744
22.2400 7.3972 0.4645
22.2600 7.4038 0.4692
22.2800 7.4104 0.4693
22.3000 7.4171 0.4633
22.3200 7.4238 0.4745
22.3400 7.4305 0.4647
22.3600 7.4372 0.4652
22.3800 7.4439 0.4674
22.4000 7.4505 0.4682
22.4200 7.4571 0.4608
22.4400 7.4637 0.4731
22.4600 7.4704 0.4719
22.4800 7.4771 0.4597
22.5000 7.4838 0.4659
22.5200 7.4905 0.4724
22.5400 7.4971 0.4604
22.5600 7.5038 0.4671
22.5800 7.5105 0.4691
22.6000 7.5171 0.4599
22.6200 7.5237 0.4680
22.6400 7.5303 0.4682
22.6600 7.5370 0.4591
22.6800 7.5438 0.4619
22.7000 7.5505 0.4683
22.7200 7.5572 0.4589
22.7400 7.5639 0.4670
22.7600 7.5705 0.4671
22.7800 7.5771 0.4573
22.8000 7.5837 0.4612
22.8200 7.5904 0.4697
22.8400 7.5971 0.4540
22.8600 7.6038 0.4590
22.8800 7.6105 0.4692
22.9000 7.6172 0.4559
22.9200 7.6239 0.4590
22.9400 7.6305 0.4696
22.9600 7.6372 0.4588
22.9800 7.6438 0.4555
23.0000 7.6504 0.4643
23.0200 7.6571 0.4570
23.0400 7.6638 0.4572
23.0600 7.6705 0.4663
23.0800 7.6772 0.4521
23.1000 7.6839 0.4581
23.1200 7.6906 0.4637
23.1400 7.6972 0.4517
23.1600 7.7038 0.4558
23.1800 7.7104 0.4656
23.2000 7.7171 0.4516
23.2200 7.7238 0.4524
23.2400 7.7305 0.4637
23.2600 7.7372 0.4504
23.2800 7.7439 0.4577
23.3000 7.7505 0.4653
23.3200 7.7571 0.4489
23.3400 7.7637 0.4565
23.3600 7.7704 0.4615
23.3800 7.7770 0.4475
23.4000 7.7837 0.4546
23.4200 7.7904 0.4626
23.4400 7.7971 0.4459
23.4600 7.8038 0.4509
23.4800 7.8105 0.4626
23.5000 7.8171 0.4435
23.5200 7.8237 0.4549
23.5400 7.8304 0.4600
23.5600 7.8371 0.4416
23.5800 7.8438 0.4516
23.6000 7.8505 0.4599
23.6200 7.8572 0.4485
23.6400 7.8639 0.4536
23.6600 7.8706 0.4543
23.6800 7.8772 0.4393
23.7000 7.8838 0.4461
23.7200 7.8904 0.4613
23.7400 7.8971 0.4443
23.7600 7.9038 0.4485
23.7800 7.9105 0.4549
23.8000 7.9172 0.4403
23.8200 7.9239 0.4514
23.8400 7.9306 0.4589
23.8600 7.9372 0.4329
23.8800 7.9438 0.4508
23.9000 7.9504 0.4622
23.9200 7.9571 0.4358
23.9400 7.9638 0.4470
23.9600 7.9705 0.4537
23.9800 7.9771 0.4382
24.0000 7.9838 0.4428
24.0200 7.9905 0.4496
24.0400 7.9972 0.4415
24.0600 8.0038 0.4490
24.0800 8.0104 0.4404
24.1000 8.0171 0.4401
24.1200 8.0238 0.4490
24.1400 8.0304 0.4458
24.1600 8.0371 0.4391
24.1800 8.0438 0.4484
24.2000 8.0505 0.4408
24.2200 8.0572 0.4365
24.2400 8.0638 0.4457
24.2600 8.0704 0.4440
24.2800 8.0771 0.4385
24.3000 8.0838 0.4408
24.3200 8.0905 0.4432
24.3400 8.0972 0.4401
24.3600 8.1039 0.4414
24.3800 8.1105 0.4446
24.4000 8.1172 0.4319
24.4200 8.1238 0.4406
24.4400 8.1304 0.4499
24.4600 8.1371 0.4353
24.4800 8.1438 0.4375
24.5000 8.1505 0.4412
24.5200 8.1572 0.4379
24.5400 8.1639 0.4382
24.5600 8.1705 0.4476
24.5800 8.1772 0.4333
24.6000 8.1838 0.4330
24.6200 8.1904 0.4434
24.6400 8.1971 0.4347
24.6600 8.2037 0.4335
24.6800 8.2104 0.4416
24.7000 8.2171 0.4289
24.7200 8.2238 0.4308
24.7400 8.2305 0.4415
24.7600 8.2372 0.4339
24.7800 8.2438 0.4285
24.8000 8.2504 0.4418
24.8200 8.2570 0.4254
24.8400 8.2638 0.4322
24.8600 8.2705 0.4400
24.8800 8.2772 0.4267
24.9000 8.2838 0.4314
24.9200 8.2905 0.4345
24.9400 8.2972 0.4256
24.9600 8.3038 0.4295
24.9800 8.3104 0.4333
25.0000 8.3171 0.4267
25.0200 8.3238 0.4296
25.0400 8.3305 0.4296
25.0600 8.3371 0.4282
25.0800 8.3438 0.4314
25.1000 8.3505 0.4281
25.1200 8.3572 0.4283
25.1400 8.3638 0.4290
25.1600 8.3704 0.4291
25.1800 8.3771 0.4284
25.2000 8.3838 0.4257
25.2200 8.3905 0.4282
25.2400 8.3972 0.4295
25.2600 8.4039 0.4280
25.2800 8.4106 0.4251
25.3000 8.4172 0.4265
25.3200 8.4238 0.4288
25.3400 8.4304 0.4276
25.3600 8.4371 0.4232
25.3800 8.4438 0.4292
25.4000 8.4505 0.4277
25.4200 8.4572 0.4230
25.4400 8.4638 0.4246
25.4600 8.4705 0.4272
25.4800 8.4772 0.4210
25.5000 8.4838 0.4269
25.5200 8.4904 0.4223
25.5400 8.4970 0.4267
25.5600 8.5037 0.4274
25.5800 8.5104 0.4208
25.6000 8.5171 0.4266
25.6200 8.5238 0.4299
25.6400 8.5305 0.4217
25.6600 8.5372 0.4195
25.6800 8.5438 0.4191
25.7000 8.5504 0.4220
25.7200 8.5570 0.4211
25.7400 8.5638 0.4236
25.7600 8.5705 0.4259
25.7800 8.5772 0.4223
25.8000 8.5839 0.4225
25.8200 8.5906 0.4189
25.8400 8.5972 0.4175
25.8600 8.6038 0.4232
25.8800 8.6104 0.4223
25.9000 8.6171 0.4188
25.9200 8.6238 0.4241
25.9400 8.6305 0.4203
25.9600 8.6372 0.4198
25.9800 8.6439 0.4197
26.0000 8.6505 0.4181
26.0200 8.6572 0.4218
26.0400 8.6638 0.4203
26.0600 8.6704 0.4123
26.0800 8.6771 0.4220
26.1000 8.6838 0.4208
26.1200 8.6905 0.4121
26.1400 8.6971 0.4149
26.1600 8.7038 0.4210
26.1800 8.7105 0.4161
26.2000 8.7172 0.4165
26.2200 8.7238 0.4179
26.2400 8.7304 0.4112
26.2600 8.7370 0.4178
26.2800 8.7437 0.4177
26.3000 8.7504 0.4090
26.3200 8.7571 0.4166
26.3400 8.7638 0.4210
26.3600 8.7705 0.4049
26.3800 8.7772 0.4131
26.4000 8.7838 0.4212
26.4200 8.7904 0.4085
26.4400 8.7970 0.4144
26.4600 8.8038 0.4213
26.4800 8.8105 0.4041
26.5000 8.8172 0.4117
26.5200 8.8239 0.4165
26.5400 8.8305 0.4054
26.5600 8.8372 0.4151
26.5800 8.8439 0.4157
26.6000 8.8505 0.3993
26.6200 8.8571 0.4192
26.6400 8.8638 0.4143
26.6600 8.8705 0.3961
26.6800 8.8772 0.4203
26.7000 8.8839 0.4112
26.7200 8.8906 0.3957
26.7400 8.8972 0.4178
26.7600 8.9038 0.4088
26.7800 8.9104 0.4036
26.8000 8.9170 0.4177
26.8200 8.9237 0.4054
26.8400 8.9305 0.3966
26.8600 8.9372 0.4165
26.8800 8.9438 0.4027
26.9000 8.9505 0.3996
26.9200 8.9572 0.4141
26.9400 8.9638 0.4031
26.9600 8.9704 0.3998
26.9800 8.9770 0.4129
27.0000 8.9837 0.4036
27.0200 8.9905 0.3998
27.0400 8.9971 0.4102
27.0600 9.0038 0.4009
27.0800 9.0105 0.3987
27.1000 9.0172 0.4077
27.1200 9.0238 0.4027
27.1400 9.0304 0.3969
27.1600 9.0371 0.4084
27.1800 9.0437 0.4051
27.2000 9.0504 0.3956
27.2200 9.0571 0.4059
27.2400 9.0638 0.4049
27.2600 9.0705 0.3894
27.2800 9.0772 0.4067
27.3000 9.0838 0.4043
27.3200 9.0904 0.3920
27.3400 9.0971 0.4071
27.3600 9.1038 0.4008
27.3800 9.1105 0.3910
27.4000 9.1172 0.4081
27.4200 9.1239 0.3978
27.4400 9.1305 0.3957
27.4600 9.1372 0.4054
27.4800 9.1438 0.3995
27.5000 9.1504 0.3882
27.5200 9.1571 0.4070
27.5400 9.1638 0.4000
27.5600 9.1705 0.3858
27.5800 9.1772 0.4039
27.6000 9.1838 0.3987
27.6200 9.1905 0.3902
27.6400 9.1972 0.4057
27.6600 9.2038 0.3957
27.6800 9.2104 0.3914
27.7000 9.2170 0.4054
27.7200 9.2237 0.3952
27.7400 9.2304 0.3872
27.7600 9.2371 0.4050
27.7800 9.2438 0.3954
27.8000 9.2505 0.3893
27.8200 9.2572 0.3983
27.8400 9.2638 0.3920
27.8600 9.2704 0.3954
27.8800 9.2771 0.3961
27.9000 9.2838 0.3905
27.9200 9.2905 0.3920
27.9400 9.2972 0.3943
27.9600 9.3039 0.3899
27.9800 9.3106 0.3936
28.0000 9.3172 0.3925
28.0200 9.3238 0.3916
28.0400 9.3304 0.3907
28.0600 9.3371 0.3901
28.0800 9.3438 0.3929
28.1000 9.3505 0.3922
28.1200 9.3572 0.3876
28.1400 9.3638 0.3923
28.1600 9.3705 0.3897
28.1800 9.3772 0.3859
28.2000 9.3838 0.3940
28.2200 9.3904 0.3882
28.2400 9.3970 0.3823
28.2600 9.4037 0.3974
28.2800 9.4104 0.3883
28.3000 9.4171 0.3854
28.3200 9.4238 0.3900
28.3400 9.4305 0.3826
28.3600 9.4372 0.3859
28.3800 9.4438 0.3929
28.4000 9.4504 0.3822
28.4200 9.4570 0.3835
28.4400 9.4637 0.3928
28.4600 9.4704 0.3795
28.4800 9.4772 0.3850
28.5000 9.4838 0.3909
28.5200 9.4905 0.3792
28.5400 9.4972 0.3817
28.5600 9.5038 0.3892
28.5800 9.5104 0.3743
28.6000 9.5171 0.3858
28.6200 9.5237 0.3904
28.6400 9.5305 0.3770
28.6600 9.5372 0.3815
28.6800 9.5438 0.3837
28.7000 9.5505 0.3774
28.7200 9.5572 0.3828
28.7400 9.5639 0.3759
28.7600 9.5705 0.3764
28.7800 9.5771 0.3861
28.8000 9.5838 0.3784
28.8200 9.5905 0.3750
28.8400 9.5972 0.3813
28.8600 9.6039 0.3783
28.8800 9.6105 0.3793
28.9000 9.6172 0.3827
28.9200 9.6239 0.3773
28.9400 9.6305 0.3781
28.9600 9.6371 0.3826
28.9800 9.6437 0.3775
29.0000 9.6504 0.3806
29.0200 9.6571 0.3793
29.0400 9.6638 0.3771
29.0600 9.6705 0.3789
29.0800 9.6772 0.3730
29.1000 9.6838 0.3815
29.1200 9.6904 0.3799
29.1400 9.6970 0.3739
29.1600 9.7037 0.3795
29.1800 9.7104 0.3776
29.2000 9.7171 0.3693
29.2200 9.7238 0.3832
29.2400 9.7305 0.3759
29.2600 9.7372 0.3721
29.2800 9.7438 0.3746
29.3000 9.7505 0.3755
29.3200 9.7571 0.3749
29.3400 9.7638 0.3778
29.3600 9.7705 0.3735
29.3800 9.7772 0.3734
29.4000 9.7838 0.3773
29.4200 9.7905 0.3763
29.4400 9.7972 0.3674
29.4600 9.8039 0.3728
29.4800 9.8104 0.3763
29.5000 9.8171 0.3775
29.5200 9.8237 0.3730
29.5400 9.8304 0.3730
29.5600 9.8372 0.3708
29.5800 9.8439 0.3746
29.6000 9.8505 0.3738
29.6200 9.8572 0.3701
29.6400 9.8638 0.3734
29.6600 9.8705 0.3711
29.6800 9.8771 0.3686
29.7000 9.8838 0.3757
29.7200 9.8905 0.3737
29.7400 9.8971 0.3688
29.7600 9.9038 0.3676
29.7800 9.9105 0.3688
29.8000 9.9172 0.3706
29.8200 9.9238 0.3669
29.8400 9.9304 0.3714
29.8600 9.9370 0.3690
29.8800 9.9437 0.3694
29.9000 9.9504 0.3696
29.9200 9.9571 0.3658
29.9400 9.9638 0.3632
29.9600 9.9705 0.3669
29.9800 9.9771 0.3689
30.0000 9.9838 0.3645
30.0200 9.9904 0.3651
30.0400 9.9971 0.3713
30.0600 10.0037 0.3627
30.0800 10.0105 0.3679
30.1000 10.0172 0.3657
30.1200 10.0239 0.3643
30.1400 10.0305 0.3629
30.1600 10.0372 0.3633
30.1800 10.0439 0.3592
30.2000 10.0505 0.3612
30.2200 10.0571 0.3646
30.2400 10.0638 0.3545
30.2600 10.0705 0.3674
30.2800 10.0772 0.3639
30.3000 10.0838 0.3546
30.3200 10.0905 0.3676
30.3400 10.0972 0.3630
30.3600 10.1039 0.3527
30.3800 10.1105 0.3653
30.4000 10.1171 0.3580
30.4200 10.1237 0.3549
30.4400 10.1304 0.3676
30.4600 10.1371 0.3576
30.4800 10.1438 0.3459
30.5000 10.1505 0.3713
30.5200 10.1572 0.3557
30.5400 10.1638 0.3478
30.5600 10.1704 0.3658
30.5800 10.1770 0.3585
30.6000 10.1837 0.3522
30.6200 10.1904 0.3669
30.6400 10.1971 0.3556
30.6600 10.2038 0.3532
30.6800 10.2105 0.3601
30.7000 10.2172 0.3479
30.7200 10.2239 0.3506
30.7400 10.2305 0.3649
30.7600 10.2371 0.3494
30.7800 10.2438 0.3536
30.8000 10.2505 0.3648
30.8200 10.2572 0.3499
30.8400 10.2638 0.3515
30.8600 10.2705 0.3603
30.8800 10.2772 0.3520
30.9000 10.2839 0.3456
30.9200 10.2905 0.3569
30.9400 10.2971 0.3551
30.9600 10.3037 0.3492
30.9800 10.3104 0.3608
31.0000 10.3172 0.3504
31.0200 10.3239 0.3425
31.0400 10.3305 0.3589
31.0600 10.3372 0.3538
31.0800 10.3438 0.3436
31.1000 10.3504 0.3551
31.1200 10.3570 0.3518
31.1400 10.3637 0.3432
31.1600 10.3704 0.3575
31.1800 10.3771 0.3469
31.2000 10.3838 0.3407
31.2200 10.3905 0.3625
31.2400 10.3972 0.3456
31.2600 10.4038 0.3373
31.2800 10.4105 0.3592
31.3000 10.4171 0.3452
31.3200 10.4237 0.3371
31.3400 10.4304 0.3564
31.3600 10.4371 0.3481
31.3800 10.4438 0.3378
31.4000 10.4505 0.3585
31.4200 10.4572 0.3424
31.4400 10.4639 0.3386
31.4600 10.4705 0.3540
31.4800 10.4771 0.3434
31.5000 10.4837 0.3419
31.5200 10.4904 0.3513
31.5400 10.4971 0.3454
31.5600 10.5039 0.3376
31.5800 10.5105 0.3490
31.6000 10.5172 0.3439
31.6200 10.5239 0.3344
31.6400 10.5305 0.3470
31.6600 10.5371 0.3480
31.6800 10.5437 0.3345
31.7000 10.5504 0.3438
31.7200 10.5572 0.3434
31.7400 10.5639 0.3360
31.7600 10.5705 0.3427
31.7800 10.5772 0.3439
31.8000 10.5839 0.3320
31.8200 10.5905 0.3441
31.8400 10.5971 0.3400
31.8600 10.6037 0.3340
31.8800 10.6104 0.3401
31.9000 10.6171 0.3440
31.9200 10.6238 0.3271
31.9400 10.6305 0.3411
31.9600 10.6372 0.3403
31.9800 10.6439 0.3298
32.0000 10.6505 0.3367
32.0200 10.6570 0.3403
32.0400 10.6637 0.3321
32.0600 10.6704 0.3390
32.0800 10.6771 0.3357
32.1000 10.6838 0.3295
32.1200 10.6905 0.3368
32.1400 10.6972 0.3385
32.1600 10.7038 0.3291
32.1800 10.7105 0.3293
32.2000 10.7171 0.3384
32.2200 10.7237 0.3265
32.2400 10.7304 0.3298
32.2600 10.7371 0.3371
32.2800 10.7438 0.3336
32.3000 10.7505 0.3305
32.3200 10.7572 0.3345
32.3400 10.7639 0.3259
32.3600 10.7706 0.3284
32.3800 10.7771 0.3320
32.4000 10.7837 0.3295
32.4200 10.7904 0.3300
32.4400 10.7971 0.3303
32.4600 10.8038 0.3263
32.4800 10.8105 0.3296
32.5000 10.8172 0.3274
32.5200 10.8238 0.3254
32.5400 10.8305 0.3249
32.5600 10.8371 0.3266
32.5800 10.8437 0.3261
32.6000 10.8504 0.3282
32.6200 10.8571 0.3252
32.6400 10.8638 0.3245
32.6600 10.8705 0.3266
32.6800 10.8772 0.3248
32.7000 10.8839 0.3218
32.7200 10.8905 0.3258
32.7400 10.8971 0.3270
32.7600 10.9037 0.3203
32.7800 10.9104 0.3184
32.8000 10.9171 0.3288
32.8200 10.9238 0.3236
32.8400 10.9305 0.3159
32.8600 10.9371 0.3302
32.8800 10.9438 0.3228
32.9000 10.9505 0.3094
32.9200 10.9571 0.3232
32.9400 10.9637 0.3251
32.9600 10.9704 0.3133
32.9800 10.9771 0.3254
33.0000 10.9838 0.3159
33.0200 10.9905 0.3126
33.0400 10.9972 0.3261
33.0600 11.0039 0.3219
33.0800 11.0105 0.3110
33.1000 11.0171 0.3224
33.1200 11.0237 0.3163
33.1400 11.0304 0.3062
33.1600 11.0371 0.3208
33.1800 11.0439 0.3197
33.2000 11.0505 0.3046
33.2200 11.0572 0.3271
33.2400 11.0639 0.3168
33.2600 11.0705 0.3022
33.2800 11.0771 0.3222
33.3000 11.0837 0.3182
33.3200 11.0904 0.3029
33.3400 11.0971 0.3234
33.3600 11.1038 0.3149
33.3800 11.1105 0.3020
33.4000 11.1172 0.3245
33.4200 11.1238 0.3113
33.4400 11.1305 0.2985
33.4600 11.1371 0.3217
33.4800 11.1437 0.3096
33.5000 11.1504 0.3034
33.5200 11.1571 0.3205
33.5400 11.1638 0.3045
33.5600 11.1705 0.3043
33.5800 11.1772 0.3232
33.6000 11.1838 0.3059
33.6200 11.1905 0.3009
33.6400 11.1971 0.3204
33.6600 11.2037 0.3022
33.6800 11.2104 0.3035
33.7000 11.2172 0.3172
33.7200 11.2239 0.3010
33.7400 11.2305 0.3034
33.7600 11.2372 0.3152
33.7800 11.2439 0.2983
33.8000 11.2505 0.3050
33.8200 11.2571 0.3114
33.8400 11.2637 0.3004
33.8600 11.2704 0.3077
33.8800 11.2771 0.3095
33.9000 11.2838 0.2974
33.9200 11.2905 0.3064
33.9400 11.2972 0.3065
33.9600 11.3039 0.3018
33.9800 11.3105 0.3009
34.0000 11.3171 0.3073
34.0200 11.3237 0.3076
34.0400 11.3304 0.2992
34.0600 11.3371 0.3031
34.0800 11.3438 0.3080
34.1000 11.3505 0.3034
34.1200 11.3572 0.2962
34.1400 11.3639 0.3099
34.1600 11.3705 0.2971
34.1800 11.3771 0.2942
34.2000 11.3837 0.3131
34.2200 11.3903 0.3023
34.2400 11.3971 0.2940
34.2600 11.4038 0.3096
34.2800 11.4105 0.3006
34.3000 11.4171 0.2960
34.3200 11.4238 0.3090
34.3400 11.4305 0.2922
34.3600 11.4371 0.2968
34.3800 11.4437 0.3107
34.4000 11.4504 0.2889
34.4200 11.4571 0.3009
34.4400 11.4638 0.3042
34.4600 11.4705 0.2943
34.4800 11.4772 0.2983
34.5000 11.4839 0.3040
34.5200 11.4906 0.2901
34.5400 11.4972 0.2951
34.5600 11.5038 0.3010
34.5800 11.5104 0.2885
34.6000 11.5171 0.2981
34.6200 11.5238 0.2968
34.6400 11.5305 0.2881
34.6600 11.5372 0.2956
34.6800 11.5439 0.2978
34.7000 11.5505 0.2901
34.7200 11.5571 0.2902
34.7400 11.5637 0.2980
34.7600 11.5704 0.2915
34.7800 11.5771 0.2846
34.8000 11.5838 0.2958
34.8200 11.5905 0.2909
34.8400 11.5971 0.2839
34.8600 11.6038 0.2922
34.8800 11.6105 0.2915
34.9000 11.6171 0.2789
34.9200 11.6237 0.2941
34.9400 11.6304 0.2920
34.9600 11.6371 0.2831
34.9800 11.6438 0.2917
35.0000 11.6505 0.2871
35.0200 11.6572 0.2813
35.0400 11.6639 0.2957
35.0600 11.6705 0.2799
35.0800 11.6771 0.2827
35.1000 11.6838 0.2969
35.1200 11.6904 0.2830
35.1400 11.6971 0.2790
35.1600 11.7038 0.2936
35.1800 11.7105 0.2773
35.2000 11.7172 0.2752
35.2200 11.7239 0.2900
35.2400 11.7305 0.2795
35.2600 11.7371 0.2804
35.2800 11.7437 0.2903
35.3000 11.7504 0.2761
35.3200 11.7571 0.2807
35.3400 11.7638 0.2917
35.3600 11.7705 0.2700
35.3800 11.7772 0.2805
35.4000 11.7839 0.2894
35.4200 11.7906 0.2688
35.4400 11.7972 0.2799
35.4600 11.8038 0.2931
35.4800 11.8104 0.2732
35.5000 11.8171 0.2842
35.5200 11.8238 0.2847
35.5400 11.8305 0.2681
35.5600 11.8372 0.2804
35.5800 11.8439 0.2857
35.6000 11.8505 0.2699
35.6200 11.8571 0.2772
35.6400 11.8637 0.2823
35.6600 11.8704 0.2805
35.6800 11.8770 0.2742
35.7000 11.8838 0.2824
35.7200 11.8905 0.2740
35.7400 11.8972 0.2713
35.7600 11.9038 0.2806
35.7800 11.9105 0.2756
35.8000 11.9171 0.2707
35.8200 11.9237 0.2817
35.8400 11.9304 0.2748
35.8600 11.9371 0.2733
35.8800 11.9438 0.2850
35.9000 11.9505 0.2697
35.9200 11.9571 0.2693
35.9400 11.9639 0.2840
35.9600 11.9705 0.2719
35.9800 11.9772 0.2658
36.0000 11.9838 0.2798
36.0200 11.9904 0.2736
36.0400 11.9971 0.2694
36.0600 12.0038 0.2750
36.0800 12.0105 0.2735
36.1000 12.0172 0.2659
36.1200 12.0239 0.2777
36.1400 12.0306 0.2678
36.1600 12.0372 0.2655
36.1800 12.0437 0.2750
36.2000 12.0504 0.2708
36.2200 12.0571 0.2646
36.2400 12.0638 0.2727
36.2600 12.0705 0.2675
36.2800 12.0772 0.2618
36.3000 12.0838 0.2739
36.3200 12.0905 0.2752
36.3400 12.0971 0.2622
36.3600 12.1037 0.2750
36.3800 12.1104 0.2687
36.4000 12.1171 0.2653
36.4200 12.1238 0.2735
36.4400 12.1304 0.2623
36.4600 12.1371 0.2661
36.4800 12.1438 0.2694
36.5000 12.1505 0.2612
36.5200 12.1572 0.2665
36.5400 12.1638 0.2702
36.5600 12.1704 0.2636
36.5800 12.1771 0.2685
36.6000 12.1838 0.2666
36.6200 12.1905 0.2634
36.6400 12.1972 0.2660
36.6600 12.2039 0.2643
36.6800 12.2105 0.2610
36.7000 12.2172 0.2676
36.7200 12.2238 0.2621
36.7400 12.2304 0.2646
36.7600 12.2371 0.2662
36.7800 12.2439 0.2613
36.8000 12.2506 0.2598
36.8200 12.2572 0.2657
36.8400 12.2639 0.2587
36.8600 12.2705 0.2636
36.8800 12.2771 0.2582
36.9000 12.2837 0.2594
36.9200 12.2904 0.2686
36.9400 12.2971 0.2538
36.9600 12.3038 0.2546
36.9800 12.3105 0.2645
37.0000 12.3172 0.2490
37.0200 12.3238 0.2571
37.0400 12.3305 0.2602
37.0600 12.3371 0.2503
37.0800 12.3437 0.2610
37.1000 12.3503 0.2566
37.1200 12.3570 0.2502
37.1400 12.3637 0.2575
37.1600 12.3705 0.2572
37.1800 12.3772 0.2476
37.2000 12.3839 0.2549
37.2200 12.3905 0.2585
37.2400 12.3972 0.2491
37.2600 12.4037 0.2555
37.2800 12.4104 0.2605
37.3000 12.4171 0.2516
37.3200 12.4238 0.2512
37.3400 12.4305 0.2510
37.3600 12.4372 0.2527
37.3800 12.4439 0.2506
37.4000 12.4505 0.2541
37.4200 12.4572 0.2475
37.4400 12.4638 0.2520
37.4600 12.4704 0.2542
37.4800 12.4771 0.2509
37.5000 12.4838 0.2450
37.5200 12.4905 0.2527
37.5400 12.4972 0.2527
37.5600 12.5039 0.2399
37.5800 12.5106 0.2507
37.6000 12.5172 0.2571
37.6200 12.5238 0.2412
37.6400 12.5304 0.2526
37.6600 12.5371 0.2564
37.6800 12.5438 0.2417
37.7000 12.5505 0.2497
37.7200 12.5572 0.2494
37.7400 12.5639 0.2394
37.7600 12.5705 0.2511
37.7800 12.5771 0.2501
37.8000 12.5837 0.2411
37.8200 12.5903 0.2546
37.8400 12.5970 0.2476
37.8600 12.6037 0.2386
37.8800 12.6104 0.2535
37.9000 12.6171 0.2479
37.9200 12.6238 0.2376
37.9400 12.6305 0.2471
37.9600 12.6371 0.2454
37.9800 12.6438 0.2380
38.0000 12.6504 0.2516
38.0200 12.6571 0.2499
38.0400 12.6638 0.2314
38.0600 12.6705 0.2495
38.0800 12.6772 0.2475
38.1000 12.6839 0.2348
38.1200 12.6906 0.2489
38.1400 12.6972 0.2448
38.1600 12.7038 0.2291
38.1800 12.7104 0.2592
38.2000 12.7171 0.2411
38.2200 12.7238 0.2337
38.2400 12.7305 0.2527
38.2600 12.7372 0.2368
38.2800 12.7439 0.2309
38.3000 12.7505 0.2527
38.3200 12.7571 0.2388
38.3400 12.7637 0.2372
38.3600 12.7704 0.2470
38.3800 12.7771 0.2366
38.4000 12.7838 0.2372
38.4200 12.7905 0.2448
38.4400 12.7972 0.2332
38.4600 12.8038 0.2337
38.4800 12.8105 0.2457
38.5000 12.8172 0.2304
38.5200 12.8238 0.2386
38.5400 12.8304 0.2435
38.5600 12.8371 0.2344
38.5800 12.8438 0.2309
38.6000 12.8505 0.2394
38.6200 12.8571 0.2332
38.6400 12.8638 0.2345
38.6600 12.8705 0.2372
38.6800 12.8771 0.2338
38.7000 12.8838 0.2346
38.7200 12.8904 0.2373
38.7400 12.8971 0.2314
38.7600 12.9038 0.2335
38.7800 12.9105 0.2333
38.8000 12.9172 0.2354
38.8200 12.9239 0.2289
38.8400 12.9306 0.2323
38.8600 12.9372 0.2338
38.8800 12.9438 0.2300
38.9000 12.9504 0.2378
38.9200 12.9571 0.2332
38.9400 12.9638 0.2263
38.9600 12.9705 0.2325
38.9800 12.9772 0.2305
39.0000 12.9839 0.2241
39.0200 12.9905 0.2313
39.0400 12.9972 0.2302
39.0600 13.0038 0.2249
39.0800 13.0104 0.2314
39.1000 13.0170 0.2327
39.1200 13.0237 0.2243
39.1400 13.0304 0.2291
39.1600 13.0371 0.2245
39.1800 13.0438 0.2273
39.2000 13.0505 0.2267
39.2200 13.0572 0.2255
39.2400 13.0638 0.2217
39.2600 13.0704 0.2302
39.2800 13.0770 0.2273
39.3000 13.0838 0.2159
39.3200 13.0905 0.2235
39.3400 13.0972 0.2281
39.3600 13.1038 0.2218
39.3800 13.1105 0.2237
39.4000 13.1172 0.2201
39.4200 13.1238 0.2230
39.4400 13.1304 0.2257
39.4600 13.1371 0.2210
39.4800 13.1438 0.2101
39.5000 13.1505 0.2296
39.5200 13.1572 0.2221
39.5400 13.1638 0.2044
39.5600 13.1705 0.2292
39.5800 13.1772 0.2271
39.6000 13.1838 0.2075
39.6200 13.1904 0.2257
39.6400 13.1971 0.2228
39.6600 13.2037 0.2106
39.6800 13.2105 0.2232
39.7000 13.2172 0.2164
39.7200 13.2238 0.2148
39.7400 13.2305 0.2284
39.7600 13.2372 0.2073
39.7800 13.2438 0.2167
39.8000 13.2504 0.2320
39.8200 13.2571 0.2043
39.8400 13.2638 0.2186
39.8600 13.2705 0.2255
39.8800 13.2772 0.2075
39.9000 13.2838 0.2153
39.9200 13.2905 0.2237
39.9400 13.2972 0.2023
39.9600 13.3038 0.2229
39.9800 13.3104 0.2154
40.0000 13.3171 0.2035
40.0200 13.3238 0.2251
40.0400 13.3305 0.2086
40.0600 13.3371 0.2092
40.0800 13.3438 0.2255
40.1000 13.3505 0.2027
40.1200 13.3571 0.2109
40.1400 13.3638 0.2192
40.1600 13.3704 0.2046
40.1800 13.3770 0.2150
40.2000 13.3837 0.2221
40.2200 13.3905 0.1955
40.2400 13.3972 0.2145
40.2600 13.4039 0.2174
40.2800 13.4106 0.1947
40.3000 13.4173 0.2185
40.3200 13.4238 0.2091
40.3400 13.4304 0.2012
40.3600 13.4371 0.2175
40.3800 13.4438 0.2103
40.4000 13.4505 0.1990
40.4200 13.4572 0.2175
40.4400 13.4639 0.2050
40.4600 13.4705 0.1960
40.4800 13.4772 0.2188
40.5000 13.4838 0.2044
40.5200 13.4904 0.1971
40.5400 13.4970 0.2231
40.5600 13.5038 0.1953
40.5800 13.5105 0.1957
40.6000 13.5171 0.2141
40.6200 13.5238 0.1979
40.6400 13.5305 0.2020
40.6600 13.5372 0.2106
40.6800 13.5438 0.1945
40.7000 13.5504 0.2045
40.7200 13.5570 0.2060
40.7400 13.5636 0.1948
40.7600 13.5704 0.2031
40.7800 13.5771 0.2032
40.8000 13.5838 0.1912
40.8200 13.5905 0.2014
40.8400 13.5972 0.2005
40.8600 13.6038 0.1941
40.8800 13.6104 0.2070
40.9000 13.6170 0.1956
40.9200 13.6238 0.1942
40.9400 13.6305 0.1979
40.9600 13.6372 0.1890
40.9800 13.6439 0.1935
41.0000 13.6505 0.1990
41.0200 13.6572 0.1920
41.0400 13.6638 0.1988
41.0600 13.6705 0.1936
41.0800 13.6771 0.1909
41.1000 13.6838 0.1980
41.1200 13.6905 0.1903
41.1400 13.6972 0.1872
41.1600 13.7038 0.2013
41.1800 13.7105 0.1887
41.2000 13.7172 0.1882
41.2200 13.7239 0.1949
41.2400 13.7304 0.1895
41.2600 13.7370 0.1898
41.2800 13.7437 0.1954
41.3000 13.7504 0.1842
41.3200 13.7571 0.1939
41.3400 13.7638 0.1948
41.3600 13.7705 0.1833
41.3800 13.7772 0.1909
41.4000 13.7838 0.1952
41.4200 13.7904 0.1805
41.4400 13.7970 0.1919
41.4600 13.8037 0.1897
41.4800 13.8104 0.1826
41.5000 13.8171 0.1860
41.5200 13.8238 0.1909
41.5400 13.8304 0.1854
41.5600 13.8371 0.1846
41.5800 13.8438 0.1878
41.6000 13.8504 0.1797
41.6200 13.8571 0.1856
41.6400 13.8638 0.1966
41.6600 13.8705 0.1769
41.6800 13.8771 0.1801
41.7000 13.8838 0.1937
41.7200 13.8905 0.1763
41.7400 13.8972 0.1839
41.7600 13.9039 0.1903
41.7800 13.9104 0.1754
41.8000 13.9171 0.1796
41.8200 13.9238 0.1936
41.8400 13.9305 0.1743
41.8600 13.9372 0.1803
41.8800 13.9439 0.1928
41.9000 13.9506 0.1750
41.9200 13.9572 0.1736
41.9400 13.9638 0.1922
41.9600 13.9704 0.1733
41.9800 13.9771 0.1761
42.0000 13.9838 0.1876
42.0200 13.9905 0.1694
42.0400 13.9972 0.1796
42.0600 14.0038 0.1938
42.0800 14.0105 0.1688
42.1000 14.0172 0.1764
42.1200 14.0238 0.1869
42.1400 14.0304 0.1701
42.1600 14.0370 0.1779
42.1800 14.0437 0.1832
42.2000 14.0504 0.1688
42.2200 14.0571 0.1739
42.2400 14.0638 0.1819
42.2600 14.0705 0.1729
42.2800 14.0772 0.1792
42.3000 14.0838 0.1713
42.3200 14.0904 0.1633
42.3400 14.0970 0.1790
42.3600 14.1037 0.1845
42.3800 14.1104 0.1638
42.4000 14.1172 0.1733
42.4200 14.1239 0.1738
42.4400 14.1306 0.1718
42.4600 14.1373 0.1742
42.4800 14.1439 0.1720
42.5000 14.1505 0.1704
42.5200 14.1571 0.1706
42.5400 14.1638 0.1731
42.5600 14.1705 0.1704
42.5800 14.1772 0.1718
42.6000 14.1839 0.1758
42.6200 14.1905 0.1580
42.6400 14.1972 0.1681
42.6600 14.2038 0.1746
42.6800 14.2104 0.1662
42.7000 14.2170 0.1704
42.7200 14.2237 0.1716
42.7400 14.2304 0.1654
42.7600 14.2371 0.1655
42.7800 14.2438 0.1676
42.8000 14.2505 0.1648
42.8200 14.2572 0.1656
42.8400 14.2638 0.1641
42.8600 14.2704 0.1651
42.8800 14.2770 0.1644
42.9000 14.2837 0.1634
42.9200 14.2904 0.1684
42.9400 14.2971 0.1621
42.9600 14.3038 0.1573
42.9800 14.3105 0.1686
43.0000 14.3172 0.1537
43.0200 14.3238 0.1656
43.0400 14.3304 0.1691
43.0600 14.3371 0.1514
43.0800 14.3437 0.1637
43.1000 14.3505 0.1724
43.1200 14.3571 0.1481
43.1400 14.3638 0.1636
43.1600 14.3705 0.1723
43.1800 14.3772 0.1484
43.2000 14.3839 0.1605
43.2200 14.3905 0.1682
43.2400 14.3971 0.1494
43.2600 14.4038 0.1657
43.2800 14.4105 0.1548
43.3000 14.4172 0.1539
43.3200 14.4239 0.1658
43.3400 14.4306 0.1520
43.3600 14.4372 0.1492
43.3800 14.4439 0.1637
43.4000 14.4505 0.1553
43.4200 14.4571 0.1499
43.4400 14.4637 0.1662
43.4600 14.4704 0.1528
43.4800 14.4772 0.1474
43.5000 14.4838 0.1588
43.5200 14.4905 0.1537
43.5400 14.4972 0.1489
43.5600 14.5038 0.1566
43.5800 14.5104 0.1547
43.6000 14.5170 0.1497
43.6200 14.5237 0.1539
43.6400 14.5304 0.1571
43.6600 14.5371 0.1410
43.6800 14.5438 0.1588
43.7000 14.5505 0.1520
43.7200 14.5572 0.1458
43.7400 14.5638 0.1526
43.7600 14.5705 0.1502
43.7800 14.5771 0.1450
43.8000 14.5837 0.1528
43.8200 14.5904 0.1476
43.8400 14.5971 0.1452
43.8600 14.6038 0.1468
43.8800 14.6105 0.1523
43.9000 14.6172 0.1414
43.9200 14.6238 0.1481
43.9400 14.6304 0.1474
43.9600 14.6370 0.1427
43.9800 14.6437 0.1506
44.0000 14.6505 0.1456
44.0200 14.6572 0.1424
44.0400 14.6639 0.1478
44.0600 14.6705 0.1423
44.0800 14.6772 0.1430
44.1000 14.6838 0.1455
44.1200 14.6905 0.1414
44.1400 14.6971 0.1467
44.1600 14.7037 0.1407
44.1800 14.7104 0.1384
44.2000 14.7171 0.1400
44.2200 14.7238 0.1416
44.2400 14.7305 0.1369
44.2600 14.7372 0.1425
44.2800 14.7439 0.1366
44.3000 14.7505 0.1333
44.3200 14.7571 0.1454
44.3400 14.7637 0.1438
44.3600 14.7704 0.1319
44.3800 14.7771 0.1441
44.4000 14.7838 0.1352
44.4200 14.7905 0.1371
44.4400 14.7971 0.1379
44.4600 14.8038 0.1350
44.4800 14.8104 0.1400
44.5000 14.8170 0.1409
44.5200 14.8237 0.1314
44.5400 14.8304 0.1361
44.5600 14.8372 0.1397
44.5800 14.8439 0.1262
44.6000 14.8505 0.1380
44.6200 14.8572 0.1384
44.6400 14.8639 0.1227
44.6600 14.8705 0.1365
44.6800 14.8771 0.1358
44.7000 14.8838 0.1242
44.7200 14.8905 0.1365
44.7400 14.8971 0.1284
44.7600 14.9038 0.1233
44.7800 14.9105 0.1410
44.8000 14.9172 0.1254
44.8200 14.9239 0.1211
44.8400 14.9305 0.1417
44.8600 14.9371 0.1233
44.8800 14.9437 0.1241
44.9000 14.9504 0.1399
44.9200 14.9571 0.1214
44.9400 14.9638 0.1192
44.9600 14.9705 0.1351
44.9800 14.9772 0.1233
45.0000 14.9838 0.1203
45.0200 14.9904 0.1308
45.0400 14.9971 0.1241
45.0600 15.0037 0.1216
45.0800 15.0104 0.1311
45.1000 15.0171 0.1237
45.1200 15.0238 0.1219
45.1400 15.0305 0.1279
45.1600 15.0372 0.1218
45.1800 15.0439 0.1178
45.2000 15.0505 0.1243
45.2200 15.0571 0.1266
45.2400 15.0638 0.1188
45.2600 15.0704 0.1224
45.2800 15.0771 0.1236
45.3000 15.0838 0.1144
45.3200 15.0905 0.1252
45.3400 15.0972 0.1263
45.3600 15.1039 0.1101
45.3800 15.1105 0.1232
45.4000 15.1171 0.1267
45.4200 15.1237 0.1124
45.4400 15.1304 0.1208
45.4600 15.1371 0.1255
45.4800 15.1439 0.1111
45.5000 15.1505 0.1202
45.5200 15.1572 0.1220
45.5400 15.1638 0.1132
45.5600 15.1704 0.1193
45.5800 15.1770 0.1225
45.6000 15.1837 0.1117
45.6200 15.1904 0.1216
45.6400 15.1972 0.1179
45.6600 15.2039 0.1105
45.6800 15.2105 0.1191
45.7000 15.2172 0.1188
45.7200 15.2238 0.1043
45.7400 15.2305 0.1155
45.7600 15.2371 0.1227
45.7800 15.2437 0.1073
45.8000 15.2504 0.1137
45.8200 15.2571 0.1170
45.8400 15.2638 0.1049
45.8600 15.2705 0.1148
45.8800 15.2772 0.1148
45.9000 15.2839 0.1032
45.9200 15.2905 0.1108
45.9400 15.2971 0.1184
45.9600 15.3037 0.1070
45.9800 15.3104 0.1107
46.0000 15.3171 0.1160
46.0200 15.3238 0.1000
46.0400 15.3305 0.1140
46.0600 15.3372 0.1169
46.0800 15.3439 0.1033
46.1000 15.3505 0.1064
46.1200 15.3571 0.1150
46.1400 15.3638 0.1062
46.1600 15.3704 0.1075
46.1800 15.3772 0.1046
46.2000 15.3839 0.1036
46.2200 15.3905 0.1074
46.2400 15.3972 0.1108
46.2600 15.4039 0.1002
46.2800 15.4105 0.1055
46.3000 15.4171 0.1123
46.3200 15.4237 0.1024
46.3400 15.4304 0.1011
46.3600 15.4371 0.1093
46.3800 15.4438 0.0989
46.4000 15.4505 0.0958
46.4200 15.4572 0.1070
46.4400 15.4639 0.0988
46.4600 15.4705 0.0982
46.4800 15.4771 0.1082
46.5000 15.4837 0.0954
46.5200 15.4904 0.1024
46.5400 15.4971 0.1062
46.5600 15.5038 0.0900
46.5800 15.5105 0.0993
46.6000 15.5171 0.1039
46.6200 15.5238 0.0959
46.6400 15.5305 0.0966
46.6600 15.5371 0.1059
46.6800 15.5437 0.0981
46.7000 15.5504 0.0970
46.7200 15.5571 0.1010
46.7400 15.5638 0.0944
46.7600 15.5705 0.1000
46.7800 15.5772 0.0997
46.8000 15.5839 0.0901
46.8200 15.5906 0.0997
46.8400 15.5972 0.0978
46.8600 15.6038 0.0988
46.8800 15.6104 0.0896
46.9000 15.6171 0.0977
46.9200 15.6238 0.0933
46.9400 15.6305 0.0918
46.9600 15.6372 0.0990
46.9800 15.6439 0.0912
47.0000 15.6505 0.0915
47.0200 15.6571 0.0993
47.0400 15.6637 0.0897
47.0600 15.6704 0.0870
47.0800 15.6771 0.1038
47.1000 15.6838 0.0838
47.1200 15.6905 0.0847
47.1400 15.6972 0.1053
47.1600 15.7039 0.0851
47.1800 15.7105 0.0837
47.2000 15.7171 0.1044
47.2200 15.7237 0.0813
47.2400 15.7304 0.0834
47.2600 15.7371 0.1006
47.2800 15.7438 0.0800
47.3000 15.7505 0.0825
47.3200 15.7572 0.1027
47.3400 15.7639 0.0781
47.3600 15.7705 0.0862
47.3800 15.7771 0.0965
47.4000 15.7837 0.0802
47.4200 15.7904 0.0879
47.4400 15.7971 0.0921
47.4600 15.8038 0.0753
47.4800 15.8105 0.0877
47.5000 15.8172 0.0874
47.5200 15.8239 0.0776
47.5400 15.8305 0.0851
47.5600 15.8371 0.0885
47.5800 15.8437 0.0791
47.6000 15.8504 0.0844
47.6200 15.8571 0.0829
47.6400 15.8639 0.0788
47.6600 15.8705 0.0784
47.6800 15.8772 0.0833
47.7000 15.8839 0.0808
47.7200 15.8905 0.0803
47.7400 15.8971 0.0831
47.7600 15.9037 0.0777
47.7800 15.9104 0.0793
47.8000 15.9171 0.0818
47.8200 15.9238 0.0768
47.8400 15.9305 0.0755
47.8600 15.9372 0.0823
47.8800 15.9438 0.0751
47.9000 15.9505 0.0757
47.9200 15.9571 0.0809
47.9400 15.9637 0.0752
47.9600 15.9704 0.0736
47.9800 15.9771 0.0800
48.0000 15.9838 0.0753
48.0200 15.9905 0.0744
48.0400 15.9972 0.0738
48.0600 16.0038 0.0805
48.0800 16.0105 0.0677
48.1000 16.0171 0.0741
48.1200 16.0238 0.0749
48.1400 16.0304 0.0716
48.1600 16.0372 0.0753
48.1800 16.0439 0.0704
48.2000 16.0506 0.0722
48.2200 16.0572 0.0677
48.2400 16.0639 0.0727
48.2600 16.0705 0.0727
48.2800 16.0771 0.0658
48.3000 16.0838 0.0726
48.3200 16.0904 0.0653
48.3400 16.0971 0.0715
48.3600 16.1038 0.0705
48.3800 16.1105 0.0673
48.4000 16.1172 0.0654
48.4200 16.1239 0.0687
48.4400 16.1305 0.0698
48.4600 16.1371 0.0608
48.4800 16.1437 0.0690
48.5000 16.1504 0.0656
48.5200 16.1571 0.0656
48.5400 16.1638 0.0653
48.5600 16.1705 0.0642
48.5800 16.1772 0.0623
48.6000 16.1839 0.0683
48.6200 16.1905 0.0645
48.6400 16.1971 0.0629
48.6600 16.2037 0.0642
48.6800 16.2104 0.0610
48.7000 16.2171 0.0582
48.7200 16.2238 0.0639
48.7400 16.2305 0.0600
48.7600 16.2371 0.0589
48.7800 16.2438 0.0669
48.8000 16.2505 0.0590
48.8200 16.2571 0.0553
48.8400 16.2637 0.0662
48.8600 16.2704 0.0523
48.8800 16.2771 0.0507
48.9000 16.2838 0.0663
48.9200 16.2905 0.0520
48.9400 16.2972 0.0542
48.9600 16.3039 0.0672
48.9800 16.3106 0.0444
49.0000 16.3172 0.0562
49.0200 16.3238 0.0676
49.0400 16.3304 0.0436
49.0600 16.3371 0.0601
49.0800 16.3438 0.0605
49.1000 16.3505 0.0422
49.1200 16.3572 0.0571
49.1400 16.3639 0.0601
49.1600 16.3705 0.0440
49.1800 16.3771 0.0551
49.2000 16.3837 0.0581
49.2200 16.3904 0.0457
49.2400 16.3971 0.0542
49.2600 16.4038 0.0480
49.2800 16.4105 0.0460
49.3000 16.4171 0.0596
49.3200 16.4238 0.0459
49.3400 16.4305 0.0470
49.3600 16.4371 0.0453
49.3800 16.4437 0.0497
49.4000 16.4504 0.0462
49.4200 16.4571 0.0444
49.4400 16.4638 0.0483
49.4600 16.4705 0.0442
49.4800 16.4772 0.0463
49.5000 16.4839 0.0507
49.5200 16.4905 0.0453
49.5400 16.4972 0.0403
49.5600 16.5038 0.0473
49.5800 16.5104 0.0436
49.6000 16.5171 0.0366
49.6200 16.5238 0.0453
49.6400 16.5305 0.0447
49.6600 16.5372 0.0328
49.6800 16.5439 0.0461
49.7000 16.5505 0.0415
49.7200 16.5571 0.0342
49.7400 16.5637 0.0400
49.7600 16.5704 0.0464
49.7800 16.5771 0.0323
49.8000 16.5838 0.0378
49.8200 16.5905 0.0407
49.8400 16.5972 0.0304
49.8600 16.6039 0.0413
49.8800 16.6105 0.0387
49.9000 16.6172 0.0226
49.9200 16.6238 0.0400
49.9400 16.6304 0.0366
49.9600 16.6371 0.0290
49.9800 16.6438 0.0309
50.0000 16.6505 0.0376
50.0200 16.6572 0.0286
50.0400 16.6639 0.0323
50.0600 16.6706 0.0330
50.0800 16.6772 0.0232
50.1000 16.6837 0.0311
50.1200 16.6904 0.0345
50.1400 16.6970 0.0214
50.1600 16.7038 0.0292
50.1800 16.7105 0.0318
50.2000 16.7172 0.0239
50.2200 16.7238 0.0261
50.2400 16.7305 0.0337
50.2600 16.7371 0.0253
50.2800 16.7438 0.0222
50.3000 16.7504 0.0330
50.3200 16.7571 0.0164
50.3400 16.7638 0.0263
50.3600 16.7705 0.0277
50.3800 16.7772 0.0147
50.4000 16.7839 0.0271
50.4200 16.7905 0.0279
50.4400 16.7972 0.0091
50.4600 16.8038 0.0241
50.4800 16.8104 0.0306
50.5000 16.8171 0.0121
50.5200 16.8238 0.0215
50.5400 16.8305 0.0267
50.5600 16.8372 0.0099
50.5800 16.8439 0.0242
50.6000 16.8506 0.0178
50.6200 16.8572 0.0091
50.6400 16.8638 0.0204
50.6600 16.8704 0.0239
50.6800 16.8771 0.0026
50.7000 16.8838 0.0221
50.7200 16.8905 0.0241
50.7400 16.8972 -0.0004
50.7600 16.9038 0.0173
50.7800 16.9105 0.0206
50.8000 16.9171 0.0031
50.8200 16.9237 0.0159
50.8400 16.9304 0.0110
50.8600 16.9371 0.0022
50.8800 16.9438 0.0225
50.9000 16.9504 0.0023
50.9200 16.9571 -0.0029
50.9400 16.9638 0.0166
50.9600 16.9705 0.0078
50.9800 16.9771 -0.0042
51.0000 16.9838 0.0088
51.0200 16.9904 0.0049
51.0400 16.9971 0.0049
51.0600 17.0038 0.0169
51.0800 17.0105 0.0025
51.1000 17.0172 -0.0057
51.1200 17.0239 0.0079
51.1400 17.0306 0.0014
51.1600 17.0372 0.0023
51.1800 17.0438 0.0104
51.2000 17.0504 -0.0011
51.2200 17.0571 -0.0052
51.2400 17.0638 0.0047
51.2600 17.0705 0.0074
51.2800 17.0772 0.0006
51.3000 17.0838 -0.0028
51.3200 17.0905 -0.0025
51.3400 17.0972 -0.0021
51.3600 17.1038 0.0049
51.3800 17.1104 -0.0004
51.4000 17.1171 -0.0051
51.4200 17.1238 0.0002
51.4400 17.1305 0.0085
51.4600 17.1372 -0.0058
51.4800 17.1438 -0.0056
51.5000 17.1505 0.0015
51.5200 17.1572 -0.0093
51.5400 17.1638 0.0007
51.5600 17.1704 -0.0005
51.5800 17.1770 -0.0122
51.6000 17.1838 -0.0003
51.6200 17.1905 0.0007
51.6400 17.1972 -0.0096
51.6600 17.2039 -0.0017
51.6800 17.2105 -0.0080
51.7000 17.2172 -0.0114
51.7200 17.2238 0.0019
51.7400 17.2304 -0.0006
51.7600 17.2371 -0.0187
51.7800 17.2438 0.0007
51.8000 17.2505 -0.0073
51.8200 17.2572 -0.0107
51.8400 17.2639 -0.0022
51.8600 17.2705 -0.0130
51.8800 17.2772 -0.0135
51.9000 17.2838 -0.0041
51.9200 17.2904 -0.0145
51.9400 17.2971 -0.0124
51.9600 17.3038 -0.0073
51.9800 17.3105 -0.0116
52.0000 17.3172 -0.0144
52.0200 17.3239 -0.0097
52.0400 17.3306 -0.0174
52.0600 17.3372 -0.0092
52.0800 17.3438 -0.0103
52.1000 17.3504 -0.0169
52.1200 17.3571 -0.0115
52.1400 17.3638 -0.0165
52.1600 17.3705 -0.0157
52.1800 17.3772 -0.0132
52.2000 17.3839 -0.0126
52.2200 17.3905 -0.0157
52.2400 17.3972 -0.0130
52.2600 17.4037 -0.0209
52.2800 17.4103 -0.0155
52.3000 17.4170 -0.0113
52.3200 17.4237 -0.0213
52.3400 17.4304 -0.0201
52.3600 17.4371 -0.0127
52.3800 17.4438 -0.0278
52.4000 17.4505 -0.0160
52.4200 17.4571 -0.0161
52.4400 17.4638 -0.0234
52.4600 17.4704 -0.0181
52.4800 17.4771 -0.0108
52.5000 17.4838 -0.0291
52.5200 17.4905 -0.0221
52.5400 17.4972 -0.0160
52.5600 17.5039 -0.0289
52.5800 17.5106 -0.0238
52.6000 17.5172 -0.0193
52.6200 17.5238 -0.0283
52.6400 17.5304 -0.0213
52.6600 17.5371 -0.0246
52.6800 17.5438 -0.0250
52.7000 17.5505 -0.0190
52.7200 17.5572 -0.0283
52.7400 17.5639 -0.0306
52.7600 17.5706 -0.0267
52.7800 17.5772 -0.0252
52.8000 17.5838 -0.0305
52.8200 17.5904 -0.0236
52.8400 17.5971 -0.0296
52.8600 17.6038 -0.0318
52.8800 17.6105 -0.0286
52.9000 17.6172 -0.0295
52.9200 17.6238 -0.0300
52.9400 17.6305 -0.0281
52.9600 17.6372 -0.0308
52.9800 17.6438 -0.0341
53.0000 17.6504 -0.0270
53.0200 17.6571 -0.0241
53.0400 17.6638 -0.0388
53.0600 17.6705 -0.0299
53.0800 17.6771 -0.0259
53.1000 17.6838 -0.0346
53.1200 17.6905 -0.0385
53.1400 17.6972 -0.0291
53.1600 17.7038 -0.0375
53.1800 17.7104 -0.0359
53.2000 17.7171 -0.0276
53.2200 17.7238 -0.0410
53.2400 17.7305 -0.0366
53.2600 17.7372 -0.0299
53.2800 17.7439 -0.0476
53.3000 17.7506 -0.0373
53.3200 17.7572 -0.0321
53.3400 17.7638 -0.0513
53.3600 17.7704 -0.0374
53.3800 17.7771 -0.0306
53.4000 17.7838 -0.0481
53.4200 17.7905 -0.0402
53.4400 17.7972 -0.0345
53.4600 17.8039 -0.0538
53.4800 17.8105 -0.0378
53.5000 17.8172 -0.0401
53.5200 17.8238 -0.0530
53.5400 17.8304 -0.0402
53.5600 17.8371 -0.0399
53.5800 17.8437 -0.0488
53.6000 17.8504 -0.0445
53.6200 17.8571 -0.0476
53.6400 17.8638 -0.0447
53.6600 17.8705 -0.0506
53.6800 17.8772 -0.0485
53.7000 17.8838 -0.0520
53.7200 17.8904 -0.0454
53.7400 17.8970 -0.0466
53.7600 17.9037 -0.0451
53.7800 17.9104 -0.0521
53.8000 17.9171 -0.0523
53.8200 17.9238 -0.0539
53.8400 17.9305 -0.0590
53.8600 17.9372 -0.0489
53.8800 17.9438 -0.0503
53.9000 17.9504 -0.0604
53.9200 17.9571 -0.0546
53.9400 17.9638 -0.0507
53.9600 17.9705 -0.0598
53.9800 17.9772 -0.0554
54.0000 17.9838 -0.0503
54.0200 17.9905 -0.0628
54.0400 17.9972 -0.0586
54.0600 18.0038 -0.0502
54.0800 18.0104 -0.0666
54.1000 18.0171 -0.0515
54.1200 18.0237 -0.0591
54.1400 18.0305 -0.0657
54.1600 18.0372 -0.0536
54.1800 18.0438 -0.0674
54.2000 18.0505 -0.0660
54.2200 18.0572 -0.0492
54.2400 18.0638 -0.0673
54.2600 18.0704 -0.0644
54.2800 18.0771 -0.0550
54.3000 18.0838 -0.0650
54.3200 18.0905 -0.0686
54.3400 18.0972 -0.0575
54.3600 18.1039 -0.0695
54.3800 18.1105 -0.0663
54.4000 18.1172 -0.0633
54.4200 18.1238 -0.0666
54.4400 18.1304 -0.0623
54.4600 18.1370 -0.0665
54.4800 18.1437 -0.0697
54.5000 18.1504 -0.0679
54.5200 18.1571 -0.0700
54.5400 18.1638 -0.0679
54.5600 18.1705 -0.0659
54.5800 18.1771 -0.0743
54.6000 18.1838 -0.0746
54.6200 18.1904 -0.0640
54.6400 18.1970 -0.0704
54.6600 18.2037 -0.0740
54.6800 18.2105 -0.0682
54.7000 18.2172 -0.0761
54.7200 18.2239 -0.0736
54.7400 18.2306 -0.0729
54.7600 18.2372 -0.0775
54.7800 18.2439 -0.0748
54.8000 18.2505 -0.0707
54.8200 18.2571 -0.0779
54.8400 18.2638 -0.0742
54.8600 18.2705 -0.0785
54.8800 18.2772 -0.0819
54.9000 18.2839 -0.0735
54.9200 18.2906 -0.0763
54.9400 18.2972 -0.0847
54.9600 18.3038 -0.0809
54.9800 18.3104 -0.0789
55.0000 18.3171 -0.0773
55.0200 18.3237 -0.0806
55.0400 18.3304 -0.0853
55.0600 18.3371 -0.0825
55.0800 18.3438 -0.0776
55.1000 18.3505 -0.0917
55.1200 18.3572 -0.0795
55.1400 18.3638 -0.0759
55.1600 18.3704 -0.0914
55.1800 18.3770 -0.0842
55.2000 18.3837 -0.0823
55.2200 18.3904 -0.0913
55.2400 18.3971 -0.0879
55.2600 18.4038 -0.0853
55.2800 18.4105 -0.0924
55.3000 18.4172 -0.0879
55.3200 18.4238 -0.0883
55.3400 18.4304 -0.0886
55.3600 18.4370 -0.0880
55.3800 18.4438 -0.0930
55.4000 18.4505 -0.0974
55.4200 18.4572 -0.0881
55.4400 18.4639 -0.0964
55.4600 18.4705 -0.1000
55.4800 18.4772 -0.0888
55.5000 18.4839 -0.0912
55.5200 18.4905 -0.1079
55.5400 18.4971 -0.0933
55.5600 18.5038 -0.0959
55.5800 18.5105 -0.1017
55.6000 18.5172 -0.0974
55.6200 18.5238 -0.0982
55.6400 18.5305 -0.0999
55.6600 18.5372 -0.0963
55.6800 18.5439 -0.1005
55.7000 18.5505 -0.1055
55.7200 18.5571 -0.0971
55.7400 18.5637 -0.1021
55.7600 18.5704 -0.1032
55.7800 18.5771 -0.0985
55.8000 18.5838 -0.1080
55.8200 18.5905 -0.1039
55.8400 18.5972 -0.0937
55.8600 18.6038 -0.1086
55.8800 18.6104 -0.1108
55.9000 18.6170 -0.0951
55.9200 18.6237 -0.1059
55.9400 18.6304 -0.1157
55.9600 18.6371 -0.1022
55.9800 18.6438 -0.1052
56.0000 18.6505 -0.1136
56.0200 18.6572 -0.1035
56.0400 18.6638 -0.1067
56.0600 18.6705 -0.1113
56.0800 18.6771 -0.1076
56.1000 18.6838 -0.1114
56.1200 18.6905 -0.1087
56.1400 18.6971 -0.1137
56.1600 18.7038 -0.1086
56.1800 18.7105 -0.1204
56.2000 18.7172 -0.1152
56.2200 18.7239 -0.1116
56.2400 18.7305 -0.1170
56.2600 18.7371 -0.1198
56.2800 18.7437 -0.1126
56.3000 18.7505 -0.1143
56.3200 18.7572 -0.1246
56.3400 18.7639 -0.1178
56.3600 18.7705 -0.1144
56.3800 18.7772 -0.1269
56.4000 18.7838 -0.1196
56.4200 18.7904 -0.1188
56.4400 18.7971 -0.1247
56.4600 18.8038 -0.1262
56.4800 18.8105 -0.1225
56.5000 18.8172 -0.1230
56.5200 18.8238 -0.1294
56.5400 18.8305 -0.1157
56.5600 18.8372 -0.1281
56.5800 18.8438 -0.1325
56.6000 18.8504 -0.1249
56.6200 18.8570 -0.1229
56.6400 18.8637 -0.1293
56.6600 18.8704 -0.1272
56.6800 18.8771 -0.1312
56.7000 18.8838 -0.1308
56.7200 18.8905 -0.1243
56.7400 18.8972 -0.1342
56.7600 18.9038 -0.1362
56.7800 18.9104 -0.1222
56.8000 18.9171 -0.1379
56.8200 18.9237 -0.1366
56.8400 18.9305 -0.1276
56.8600 18.9372 -0.1344
56.8800 18.9439 -0.1355
56.9000 18.9506 -0.1288
56.9200 18.9572 -0.1414
56.9400 18.9639 -0.1350
56.9600 18.9705 -0.1281
56.9800 18.9771 -0.1429
57.0000 18.9838 -0.1349
57.0200 18.9905 -0.1307
57.0400 18.9972 -0.1447
57.0600 19.0038 -0.1342
57.0800 19.0105 -0.1348
57.1000 19.0172 -0.1435
57.1200 19.0238 -0.1340
57.1400 19.0304 -0.1385
57.1600 19.0370 -0.1444
57.1800 19.0437 -0.1406
57.2000 19.0504 -0.1395
57.2200 19.0571 -0.1436
57.2400 19.0638 -0.1385
57.2600 19.0705 -0.1394
57.2800 19.0772 -0.1456
57.3000 19.0838 -0.1458
57.3200 19.0904 -0.1425
57.3400 19.0970 -0.1461
57.3600 19.1037 -0.1444
57.3800 19.1104 -0.1440
57.4000 19.1171 -0.1441
57.4200 19.1238 -0.1491
57.4400 19.1305 -0.1411
57.4600 19.1372 -0.1489
57.4800 19.1438 -0.1512
57.5000 19.1504 -0.1472
57.5200 19.1571 -0.1496
57.5400 19.1637 -0.1522
57.5600 19.1704 -0.1490
57.5800 19.1772 -0.1527
57.6000 19.1838 -0.1510
57.6200 19.1905 -0.1508
57.6400 19.1972 -0.1569
57.6600 19.2039 -0.1527
57.6800 19.2105 -0.1518
57.7000 19.2171 -0.1576
57.7200 19.2238 -0.1518
57.7400 19.2305 -0.1512
57.7600 19.2372 -0.1643
57.7800 19.2439 -0.1518
57.8000 19.2506 -0.1513
57.8200 19.2572 -0.1604
57.8400 19.2639 -0.1558
57.8600 19.2705 -0.1579
57.8800 19.2771 -0.1592
57.9000 19.2837 -0.1520
57.9200 19.2904 -0.1580
57.9400 19.2971 -0.1624
57.9600 19.3038 -0.1575
57.9800 19.3105 -0.1575
58.0000 19.3172 -0.1683
58.0200 19.3238 -0.1576
58.0400 19.3305 -0.1645
58.0600 19.3371 -0.1663
58.0800 19.3437 -0.1583
58.1000 19.3504 -0.1644
58.1200 19.3571 -0.1670
58.1400 19.3638 -0.1630
58.1600 19.3704 -0.1663
58.1800 19.3771 -0.1684
58.2000 19.3838 -0.1699
58.2200 19.3905 -0.1711
58.2400 19.3971 -0.1698
58.2600 19.4038 -0.1704
58.2800 19.4104 -0.1653
58.3000 19.4171 -0.1764
58.3200 19.4238 -0.1753
58.3400 19.4305 -0.1689
58.3600 19.4372 -0.1769
58.3800 19.4439 -0.1769
58.4000 19.4505 -0.1717
58.4200 19.4571 -0.1828
58.4400 19.4637 -0.1795
58.4600 19.4704 -0.1662
58.4800 19.4772 -0.1858
58.5000 19.4839 -0.1895
58.5200 19.4905 -0.1644
58.5400 19.4972 -0.1875
58.5600 19.5039 -0.1897
58.5800 19.5105 -0.1747
58.6000 19.5171 -0.1877
58.6200 19.5237 -0.1895
58.6400 19.5304 -0.1748
58.6600 19.5371 -0.1924
58.6800 19.5438 -0.1872
58.7000 19.5505 -0.1782
58.7200 19.5572 -0.1995
58.7400 19.5638 -0.1912
58.7600 19.5705 -0.1850
58.7800 19.5771 -0.2002
58.8000 19.5837 -0.1874
58.8200 19.5904 -0.1890
58.8400 19.5971 -0.1998
58.8600 19.6038 -0.1892
58.8800 19.6105 -0.1908
58.9000 19.6172 -0.2015
58.9200 19.6238 -0.1934
58.9400 19.6304 -0.1953
58.9600 19.6371 -0.2022
58.9800 19.6437 -0.1907
59.0000 19.6504 -0.1990
59.0200 19.6571 -0.1999
59.0400 19.6639 -0.1978
59.0600 19.6705 -0.2035
59.0800 19.6772 -0.2022
59.1000 19.6839 -0.2023
59.1200 19.6905 -0.2031
59.1400 19.6971 -0.2042
59.1600 19.7038 -0.2057
59.1800 19.7105 -0.1997
59.2000 19.7172 -0.2116
59.2200 19.7239 -0.2077
59.2400 19.7305 -0.2052
59.2600 19.7372 -0.2155
59.2800 19.7439 -0.2115
59.2990 19.7501 -0.2161
