Raw Data
Time Displacement Force
(s) (mm) (N)
0.0000 0.0000 0.3511
0.0200 0.0001 0.3525
0.0400 0.0008 0.4008
0.0600 0.0040 0.4240
0.0800 0.0095 0.4123
0.1000 0.0153 0.4357
0.1200 0.0212 0.4818
0.1400 0.0278 0.5108
0.1600 0.0351 0.5462
0.1800 0.0425 0.5836
0.2000 0.0497 0.6219
0.2200 0.0565 0.6645
0.2400 0.0633 0.6992
0.2600 0.0699 0.7240
0.2800 0.0766 0.7387
0.3000 0.0833 0.7290
0.3200 0.0900 0.7219
0.3400 0.0967 0.7335
0.3600 0.1034 0.7402
0.3800 0.1100 0.7313
0.4000 0.1167 0.7364
0.4200 0.1234 0.7311
0.4400 0.1301 0.7326
0.4600 0.1368 0.7403
0.4800 0.1434 0.7363
0.5000 0.1501 0.7371
0.5200 0.1568 0.7420
0.5400 0.1634 0.7380
0.5600 0.1700 0.7402
0.5800 0.1766 0.7507
0.6000 0.1833 0.7435
0.6200 0.1901 0.7399
0.6400 0.1968 0.7492
0.6600 0.2034 0.7496
0.6800 0.2101 0.7556
0.7000 0.2168 0.7441
0.7200 0.2234 0.7463
0.7400 0.2300 0.7583
0.7600 0.2367 0.7480
0.7800 0.2433 0.7534
0.8000 0.2500 0.7594
0.8200 0.2567 0.7532
0.8400 0.2634 0.7547
0.8600 0.2701 0.7613
0.8800 0.2768 0.7580
0.9000 0.2834 0.7545
0.9200 0.2900 0.7585
0.9400 0.2966 0.7652
0.9600 0.3033 0.7646
0.9800 0.3100 0.7637
1.0000 0.3167 0.7598
1.0200 0.3234 0.7712
1.0400 0.3301 0.7611
1.0600 0.3367 0.7593
1.0800 0.3434 0.7671
1.1000 0.3500 0.7690
1.1200 0.3566 0.7650
1.1400 0.3633 0.7675
1.1600 0.3701 0.7670
1.1800 0.3768 0.7637
1.2000 0.3835 0.7623
1.2200 0.3901 0.7742
1.2400 0.3968 0.7690
1.2600 0.4035 0.7621
1.2800 0.4101 0.7683
1.3000 0.4167 0.7662
1.3200 0.4234 0.7627
1.3400 0.4301 0.7743
1.3600 0.4368 0.7613
1.3800 0.4434 0.7606
1.4000 0.4501 0.7777
1.4200 0.4568 0.7647
1.4400 0.4634 0.7621
1.4600 0.4700 0.7726
1.4800 0.4766 0.7602
1.5000 0.4833 0.7643
1.5200 0.4900 0.7724
1.5400 0.4967 0.7619
1.5600 0.5034 0.7583
1.5800 0.5101 0.7620
1.6000 0.5167 0.7612
1.6200 0.5234 0.7620
1.6400 0.5300 0.7657
1.6600 0.5366 0.7541
1.6800 0.5433 0.7567
1.7000 0.5500 0.7643
1.7200 0.5567 0.7540
1.7400 0.5634 0.7490
1.7600 0.5701 0.7632
1.7800 0.5768 0.7551
1.8000 0.5834 0.7479
1.8200 0.5901 0.7578
1.8400 0.5967 0.7522
1.8600 0.6034 0.7463
1.8800 0.6101 0.7537
1.9000 0.6167 0.7421
1.9200 0.6234 0.7455
1.9400 0.6301 0.7563
1.9600 0.6368 0.7405
1.9800 0.6435 0.7362
2.0000 0.6500 0.7526
2.0200 0.6566 0.7440
2.0400 0.6633 0.7415
2.0600 0.6701 0.7442
2.0800 0.6768 0.7389
2.1000 0.6835 0.7429
2.1200 0.6901 0.7438
2.1400 0.6968 0.7351
2.1600 0.7034 0.7390
2.1800 0.7100 0.7480
2.2000 0.7166 0.7403
2.2200 0.7233 0.7364
2.2400 0.7300 0.7403
2.2600 0.7367 0.7441
2.2800 0.7434 0.7312
2.3000 0.7501 0.7358
2.3200 0.7567 0.7408
2.3400 0.7634 0.7393
2.3600 0.7700 0.7322
2.3800 0.7767 0.7415
2.4000 0.7833 0.7373
2.4200 0.7900 0.7326
2.4400 0.7967 0.7413
2.4600 0.8034 0.7345
2.4800 0.8101 0.7291
2.5000 0.8168 0.7422
2.5200 0.8235 0.7265
2.5400 0.8301 0.7271
2.5600 0.8367 0.7444
2.5800 0.8433 0.7328
2.6000 0.8500 0.7285
2.6200 0.8568 0.7436
2.6400 0.8635 0.7263
2.6600 0.8702 0.7321
2.6800 0.8768 0.7416
2.7000 0.8834 0.7225
2.7200 0.8900 0.7311
2.7400 0.8967 0.7382
2.7600 0.9033 0.7267
2.7800 0.9101 0.7331
2.8000 0.9168 0.7365
2.8200 0.9234 0.7237
2.8400 0.9301 0.7306
2.8600 0.9368 0.7338
2.8800 0.9435 0.7232
2.9000 0.9501 0.7323
2.9200 0.9567 0.7335
2.9400 0.9633 0.7232
2.9600 0.9700 0.7338
2.9800 0.9767 0.7303
3.0000 0.9834 0.7161
3.0200 0.9901 0.7316
3.0400 0.9968 0.7313
3.0600 1.0034 0.7169
3.0800 1.0100 0.7329
3.1000 1.0166 0.7250
3.1200 1.0233 0.7187
3.1400 1.0300 0.7321
3.1600 1.0367 0.7275
3.1800 1.0434 0.7189
3.2000 1.0501 0.7246
3.2200 1.0568 0.7206
3.2400 1.0634 0.7220
3.2600 1.0700 0.7293
3.2800 1.0767 0.7237
3.3000 1.0833 0.7184
3.3200 1.0901 0.7253
3.3400 1.0968 0.7187
3.3600 1.1034 0.7223
3.3800 1.1101 0.7241
3.4000 1.1168 0.7204
3.4200 1.1235 0.7143
3.4400 1.1301 0.7162
3.4600 1.1367 0.7216
3.4800 1.1433 0.7196
3.5000 1.1500 0.7228
3.5200 1.1568 0.7202
3.5400 1.1635 0.7134
3.5600 1.1701 0.7128
3.5800 1.1768 0.7234
3.6000 1.1834 0.7131
3.6200 1.1900 0.7148
3.6400 1.1967 0.7193
3.6600 1.2033 0.7103
3.6800 1.2100 0.7186
3.7000 1.2167 0.7188
3.7200 1.2234 0.7085
3.7400 1.2301 0.7161
3.7600 1.2368 0.7204
3.7800 1.2434 0.7109
3.8000 1.2501 0.7090
3.8200 1.2567 0.7265
3.8400 1.2633 0.7125
3.8600 1.2700 0.7082
3.8800 1.2767 0.7127
3.9000 1.2834 0.7127
3.9200 1.2901 0.7167
3.9400 1.2967 0.7141
3.9600 1.3034 0.7095
3.9800 1.3101 0.7134
4.0000 1.3167 0.7168
4.0200 1.3233 0.7156
4.0400 1.3300 0.7154
4.0600 1.3367 0.7183
4.0800 1.3434 0.7161
4.1000 1.3501 0.7113
4.1200 1.3568 0.7112
4.1400 1.3635 0.7201
4.1600 1.3701 0.7158
4.1800 1.3767 0.7111
4.2000 1.3833 0.7178
4.2200 1.3900 0.7113
4.2400 1.3968 0.7121
4.2600 1.4035 0.7209
4.2800 1.4101 0.7126
4.3000 1.4168 0.7063
4.3200 1.4235 0.7154
4.3400 1.4301 0.7145
4.3600 1.4367 0.7172
4.3800 1.4433 0.7134
4.4000 1.4500 0.7103
4.4200 1.4567 0.7098
4.4400 1.4634 0.7153
4.4600 1.4701 0.7101
4.4800 1.4767 0.7132
4.5000 1.4834 0.7119
4.5200 1.4901 0.7088
4.5400 1.4967 0.7118
4.5600 1.5033 0.7118
4.5800 1.5100 0.7091
4.6000 1.5167 0.7056
4.6200 1.5234 0.7144
4.6400 1.5301 0.7074
4.6600 1.5368 0.7018
4.6800 1.5435 0.7138
4.7000 1.5501 0.7077
4.7200 1.5567 0.7011
4.7400 1.5633 0.7062
4.7600 1.5700 0.7142
4.7800 1.5768 0.7094
4.8000 1.5835 0.6980
4.8200 1.5901 0.7049
4.8400 1.5968 0.7107
4.8600 1.6035 0.7041
4.8800 1.6101 0.6921
4.9000 1.6167 0.7067
4.9200 1.6233 0.7100
4.9400 1.6300 0.6984
4.9600 1.6367 0.7006
4.9800 1.6434 0.7030
5.0000 1.6501 0.7068
5.0200 1.6568 0.6971
5.0400 1.6635 0.6975
5.0600 1.6701 0.6975
5.0800 1.6767 0.6929
5.1000 1.6833 0.7044
5.1200 1.6900 0.7017
5.1400 1.6967 0.6973
5.1600 1.7034 0.6930
5.1800 1.7101 0.6972
5.2000 1.7168 0.7026
5.2200 1.7235 0.7002
5.2400 1.7301 0.6929
5.2600 1.7366 0.6912
5.2800 1.7433 0.7046
5.3000 1.7500 0.6991
5.3200 1.7567 0.6844
5.3400 1.7634 0.7057
5.3600 1.7701 0.6909
5.3800 1.7767 0.6904
5.4000 1.7834 0.7005
5.4200 1.7901 0.6850
5.4400 1.7967 0.6896
5.4600 1.8034 0.7088
5.4800 1.8100 0.6818
5.5000 1.8167 0.6811
5.5200 1.8234 0.7112
5.5400 1.8301 0.6840
5.5600 1.8368 0.6812
5.5800 1.8435 0.7113
5.6000 1.8501 0.6779
5.6200 1.8567 0.6841
5.6400 1.8633 0.7052
5.6600 1.8700 0.6736
5.6800 1.8767 0.6931
5.7000 1.8834 0.7024
5.7200 1.8901 0.6700
5.7400 1.8968 0.6870
5.7600 1.9034 0.6977
5.7800 1.9101 0.6681
5.8000 1.9167 0.6925
5.8200 1.9233 0.6985
5.8400 1.9300 0.6739
5.8600 1.9367 0.6902
5.8800 1.9434 0.6910
5.9000 1.9501 0.6729
5.9200 1.9567 0.6903
5.9400 1.9634 0.6850
5.9600 1.9701 0.6807
5.9800 1.9767 0.6800
6.0000 1.9833 0.6849
6.0200 1.9900 0.6856
6.0400 1.9967 0.6800
6.0600 2.0034 0.6818
6.0800 2.0100 0.6827
6.1000 2.0167 0.6760
6.1200 2.0235 0.6794
6.1400 2.0301 0.6875
6.1600 2.0367 0.6732
6.1800 2.0433 0.6815
6.2000 2.0500 0.6803
6.2200 2.0567 0.6666
6.2400 2.0634 0.6889
6.2600 2.0701 0.6840
6.2800 2.0768 0.6606
6.3000 2.0835 0.6823
6.3200 2.0901 0.6817
6.3400 2.0967 0.6685
6.3600 2.1033 0.6840
6.3800 2.1100 0.6804
6.4000 2.1167 0.6667
6.4200 2.1234 0.6860
6.4400 2.1301 0.6744
6.4600 2.1368 0.6661
6.4800 2.1435 0.6887
6.5000 2.1501 0.6679
6.5200 2.1567 0.6628
6.5400 2.1634 0.6902
6.5600 2.1700 0.6712
6.5800 2.1767 0.6659
6.6000 2.1834 0.6800
6.6200 2.1901 0.6743
6.6400 2.1968 0.6677
6.6600 2.2035 0.6785
6.6800 2.2101 0.6677
6.7000 2.2167 0.6724
6.7200 2.2233 0.6764
6.7400 2.2300 0.6677
6.7600 2.2367 0.6733
6.7800 2.2434 0.6767
6.8000 2.2501 0.6646
6.8200 2.2568 0.6651
6.8400 2.2634 0.6733
6.8600 2.2701 0.6721
6.8800 2.2767 0.6700
6.9000 2.2833 0.6684
6.9200 2.2900 0.6682
6.9400 2.2967 0.6629
6.9600 2.3034 0.6710
6.9800 2.3101 0.6702
7.0000 2.3168 0.6643
7.0200 2.3235 0.6639
7.0400 2.3301 0.6657
7.0600 2.3367 0.6635
7.0800 2.3433 0.6691
7.1000 2.3500 0.6672
7.1200 2.3567 0.6599
7.1400 2.3634 0.6659
7.1600 2.3701 0.6738
7.1800 2.3768 0.6572
7.2000 2.3835 0.6692
7.2200 2.3901 0.6688
7.2400 2.3967 0.6543
7.2600 2.4033 0.6727
7.2800 2.4100 0.6714
7.3000 2.4167 0.6527
7.3200 2.4234 0.6743
7.3400 2.4301 0.6640
7.3600 2.4368 0.6593
7.3800 2.4435 0.6767
7.4000 2.4501 0.6591
7.4200 2.4567 0.6568
7.4400 2.4633 0.6766
7.4600 2.4700 0.6579
7.4800 2.4767 0.6611
7.5000 2.4834 0.6726
7.5200 2.4900 0.6498
7.5400 2.4967 0.6657
7.5600 2.5034 0.6694
7.5800 2.5101 0.6505
7.6000 2.5167 0.6662
7.6200 2.5233 0.6657
7.6400 2.5300 0.6527
7.6600 2.5367 0.6658
7.6800 2.5434 0.6647
7.7000 2.5501 0.6551
7.7200 2.5568 0.6649
7.7400 2.5635 0.6597
7.7600 2.5702 0.6498
7.7800 2.5768 0.6642
7.8000 2.5834 0.6564
7.8200 2.5900 0.6580
7.8400 2.5967 0.6623
7.8600 2.6034 0.6506
7.8800 2.6101 0.6547
7.9000 2.6168 0.6606
7.9200 2.6234 0.6526
7.9400 2.6301 0.6552
7.9600 2.6367 0.6557
7.9800 2.6433 0.6512
8.0000 2.6500 0.6549
8.0200 2.6567 0.6557
8.0400 2.6634 0.6514
8.0600 2.6701 0.6548
8.0800 2.6768 0.6494
8.1000 2.6834 0.6510
8.1200 2.6901 0.6559
8.1400 2.6967 0.6468
8.1600 2.7033 0.6503
8.1800 2.7099 0.6597
8.2000 2.7167 0.6475
8.2200 2.7234 0.6456
8.2400 2.7301 0.6538
8.2600 2.7368 0.6454
8.2800 2.7435 0.6483
8.3000 2.7501 0.6502
8.3200 2.7567 0.6408
8.3400 2.7633 0.6512
8.3600 2.7700 0.6497
8.3800 2.7767 0.6408
8.4000 2.7834 0.6526
8.4200 2.7901 0.6410
8.4400 2.7968 0.6406
8.4600 2.8034 0.6450
8.4800 2.8101 0.6438
8.5000 2.8167 0.6463
8.5200 2.8233 0.6439
8.5400 2.8300 0.6405
8.5600 2.8367 0.6433
8.5800 2.8434 0.6443
8.6000 2.8501 0.6398
8.6200 2.8568 0.6433
8.6400 2.8635 0.6437
8.6600 2.8702 0.6372
8.6800 2.8768 0.6462
8.7000 2.8834 0.6358
8.7200 2.8900 0.6455
8.7400 2.8967 0.6399
8.7600 2.9034 0.6302
8.7800 2.9101 0.6469
8.8000 2.9168 0.6422
8.8200 2.9234 0.6260
8.8400 2.9301 0.6436
8.8600 2.9367 0.6438
8.8800 2.9433 0.6293
8.9000 2.9499 0.6457
8.9200 2.9566 0.6395
8.9400 2.9633 0.6285
8.9600 2.9700 0.6465
8.9800 2.9767 0.6359
9.0000 2.9834 0.6223
9.0200 2.9901 0.6501
9.0400 2.9967 0.6421
9.0600 3.0033 0.6240
9.0800 3.0100 0.6446
9.1000 3.0167 0.6439
9.1200 3.0234 0.6261
9.1400 3.0301 0.6442
9.1600 3.0368 0.6427
9.1800 3.0435 0.6246
9.2000 3.0502 0.6432
9.2200 3.0568 0.6385
9.2400 3.0634 0.6254
9.2600 3.0700 0.6450
9.2800 3.0767 0.6359
9.3000 3.0834 0.6287
9.3200 3.0901 0.6405
9.3400 3.0968 0.6429
9.3600 3.1035 0.6260
9.3800 3.1102 0.6382
9.4000 3.1168 0.6346
9.4200 3.1234 0.6289
9.4400 3.1300 0.6418
9.4600 3.1367 0.6329
9.4800 3.1434 0.6272
9.5000 3.1501 0.6382
9.5200 3.1568 0.6379
9.5400 3.1634 0.6268
9.5600 3.1701 0.6347
9.5800 3.1768 0.6363
9.6000 3.1834 0.6280
9.6200 3.1900 0.6371
9.6400 3.1967 0.6357
9.6600 3.2034 0.6295
9.6800 3.2101 0.6348
9.7000 3.2167 0.6343
9.7200 3.2234 0.6304
9.7400 3.2301 0.6334
9.7600 3.2367 0.6338
9.7800 3.2433 0.6261
9.8000 3.2500 0.6365
9.8200 3.2567 0.6367
9.8400 3.2634 0.6256
9.8600 3.2701 0.6329
9.8800 3.2768 0.6312
9.9000 3.2835 0.6242
9.9200 3.2901 0.6361
9.9400 3.2968 0.6273
9.9600 3.3034 0.6256
9.9800 3.3100 0.6371
10.0000 3.3167 0.6323
10.0200 3.3234 0.6195
10.0400 3.3301 0.6323
10.0600 3.3368 0.6344
10.0800 3.3434 0.6204
10.1000 3.3501 0.6264
10.1200 3.3567 0.6345
10.1400 3.3633 0.6227
10.1600 3.3700 0.6286
10.1800 3.3767 0.6296
10.2000 3.3834 0.6244
10.2200 3.3901 0.6279
10.2400 3.3967 0.6227
10.2600 3.4034 0.6217
10.2800 3.4101 0.6274
10.3000 3.4168 0.6269
10.3200 3.4233 0.6218
10.3400 3.4299 0.6245
10.3600 3.4366 0.6263
10.3800 3.4434 0.6197
10.4000 3.4501 0.6212
10.4200 3.4568 0.6290
10.4400 3.4634 0.6213
10.4600 3.4701 0.6207
10.4800 3.4768 0.6227
10.5000 3.4834 0.6152
10.5200 3.4900 0.6217
10.5400 3.4967 0.6308
10.5600 3.5034 0.6085
10.5800 3.5101 0.6196
10.6000 3.5168 0.6244
10.6200 3.5234 0.6095
10.6400 3.5301 0.6187
10.6600 3.5368 0.6253
10.6800 3.5434 0.6113
10.7000 3.5500 0.6227
10.7200 3.5567 0.6180
10.7400 3.5634 0.6036
10.7600 3.5701 0.6285
10.7800 3.5768 0.6183
10.8000 3.5835 0.6045
10.8200 3.5902 0.6233
10.8400 3.5968 0.6096
10.8600 3.6034 0.6102
10.8800 3.6100 0.6202
10.9000 3.6167 0.6140
10.9200 3.6234 0.6085
10.9400 3.6301 0.6163
10.9600 3.6367 0.6094
10.9800 3.6434 0.6145
11.0000 3.6501 0.6160
11.0200 3.6568 0.6055
11.0400 3.6634 0.6145
11.0600 3.6700 0.6141
11.0800 3.6766 0.6095
11.1000 3.6833 0.6126
11.1200 3.6900 0.6106
11.1400 3.6967 0.6070
11.1600 3.7034 0.6093
11.1800 3.7101 0.6082
11.2000 3.7167 0.6083
11.2200 3.7233 0.6070
11.2400 3.7300 0.6058
11.2600 3.7367 0.6168
11.2800 3.7434 0.6110
11.3000 3.7501 0.6018
11.3200 3.7568 0.6140
11.3400 3.7635 0.6088
11.3600 3.7702 0.6057
11.3800 3.7768 0.6101
11.4000 3.7834 0.6092
11.4200 3.7900 0.6078
11.4400 3.7967 0.6148
11.4600 3.8034 0.6032
11.4800 3.8101 0.6052
11.5000 3.8168 0.6150
11.5200 3.8235 0.6022
11.5400 3.8301 0.6052
11.5600 3.8368 0.6133
11.5800 3.8434 0.5976
11.6000 3.8500 0.6057
11.6200 3.8567 0.6115
11.6400 3.8634 0.5980
11.6600 3.8700 0.6079
11.6800 3.8767 0.6065
11.7000 3.8834 0.5958
11.7200 3.8901 0.6050
11.7400 3.8967 0.6054
11.7600 3.9033 0.5976
11.7800 3.9099 0.6104
11.8000 3.9166 0.5971
11.8200 3.9233 0.6014
11.8400 3.9301 0.6058
11.8600 3.9368 0.5979
11.8800 3.9434 0.6043
11.9000 3.9501 0.6041
11.9200 3.9568 0.5918
11.9400 3.9634 0.6088
11.9600 3.9700 0.5997
11.9800 3.9767 0.5956
12.0000 3.9834 0.6020
12.0200 3.9901 0.5948
12.0400 3.9968 0.5970
12.0600 4.0035 0.6057
12.0800 4.0101 0.5910
12.1000 4.0168 0.6004
12.1200 4.0234 0.6023
12.1400 4.0300 0.5908
12.1600 4.0367 0.6040
12.1800 4.0434 0.6036
12.2000 4.0501 0.5930
12.2200 4.0568 0.6004
12.2400 4.0635 0.5936
12.2600 4.0702 0.5888
12.2800 4.0768 0.6050
12.3000 4.0834 0.5956
12.3200 4.0900 0.5900
12.3400 4.0966 0.6044
12.3600 4.1033 0.5944
12.3800 4.1100 0.5885
12.4000 4.1167 0.5995
12.4200 4.1234 0.5947
12.4400 4.1301 0.5923
12.4600 4.1368 0.5944
12.4800 4.1434 0.5952
12.5000 4.1500 0.5912
12.5200 4.1566 0.5942
12.5400 4.1633 0.5907
12.5600 4.1700 0.5932
12.5800 4.1767 0.5875
12.6000 4.1834 0.5961
12.6200 4.1901 0.5931
12.6400 4.1968 0.5858
12.6600 4.2034 0.5932
12.6800 4.2100 0.5917
12.7000 4.2167 0.5888
12.7200 4.2234 0.5912
12.7400 4.2301 0.5874
12.7600 4.2368 0.5911
12.7800 4.2435 0.5924
12.8000 4.2502 0.5926
12.8200 4.2568 0.5852
12.8400 4.2634 0.5888
12.8600 4.2700 0.5902
12.8800 4.2767 0.5864
12.9000 4.2834 0.5923
12.9200 4.2901 0.5899
12.9400 4.2968 0.5788
12.9600 4.3035 0.5911
12.9800 4.3101 0.5891
13.0000 4.3168 0.5785
13.0200 4.3234 0.5946
13.0400 4.3300 0.5836
13.0600 4.3367 0.5797
13.0800 4.3434 0.5878
13.1000 4.3501 0.5900
13.1200 4.3568 0.5782
13.1400 4.3634 0.5913
13.1600 4.3701 0.5883
13.1800 4.3768 0.5748
13.2000 4.3834 0.5868
13.2200 4.3900 0.5868
13.2400 4.3966 0.5816
13.2600 4.4033 0.5882
13.2800 4.4100 0.5811
13.3000 4.4167 0.5765
13.3200 4.4234 0.5856
13.3400 4.4301 0.5851
13.3600 4.4368 0.5731
13.3800 4.4434 0.5834
13.4000 4.4500 0.5818
13.4200 4.4567 0.5735
13.4400 4.4634 0.5886
13.4600 4.4701 0.5844
13.4800 4.4768 0.5695
13.5000 4.4835 0.5803
13.5200 4.4902 0.5797
13.5400 4.4968 0.5725
13.5600 4.5034 0.5896
13.5800 4.5100 0.5820
13.6000 4.5167 0.5694
13.6200 4.5234 0.5838
13.6400 4.5301 0.5757
13.6600 4.5368 0.5737
13.6800 4.5434 0.5855
13.7000 4.5501 0.5741
13.7200 4.5568 0.5712
13.7400 4.5634 0.5798
13.7600 4.5700 0.5779
13.7800 4.5766 0.5704
13.8000 4.5833 0.5771
13.8200 4.5900 0.5691
13.8400 4.5967 0.5732
13.8600 4.6034 0.5799
13.8800 4.6101 0.5685
13.9000 4.6168 0.5681
13.9200 4.6234 0.5748
13.9400 4.6300 0.5700
13.9600 4.6366 0.5700
13.9800 4.6433 0.5738
14.0000 4.6500 0.5696
14.0200 4.6567 0.5636
14.0400 4.6634 0.5775
14.0600 4.6701 0.5691
14.0800 4.6768 0.5644
14.1000 4.6834 0.5769
14.1200 4.6900 0.5668
14.1400 4.6966 0.5662
14.1600 4.7033 0.5759
14.1800 4.7100 0.5650
14.2000 4.7167 0.5661
14.2200 4.7234 0.5734
14.2400 4.7301 0.5613
14.2600 4.7368 0.5646
14.2800 4.7435 0.5760
14.3000 4.7501 0.5598
14.3200 4.7567 0.5655
14.3400 4.7634 0.5748
14.3600 4.7701 0.5614
14.3800 4.7768 0.5665
14.4000 4.7835 0.5682
14.4200 4.7902 0.5650
14.4400 4.7969 0.5600
14.4600 4.8035 0.5683
14.4800 4.8100 0.5630
14.5000 4.8167 0.5631
14.5200 4.8233 0.5702
14.5400 4.8300 0.5639
14.5600 4.8367 0.5597
14.5800 4.8434 0.5711
14.6000 4.8501 0.5596
14.6200 4.8568 0.5650
14.6400 4.8634 0.5710
14.6600 4.8700 0.5599
14.6800 4.8766 0.5624
14.7000 4.8833 0.5720
14.7200 4.8900 0.5553
14.7400 4.8967 0.5642
14.7600 4.9034 0.5730
14.7800 4.9101 0.5595
14.8000 4.9167 0.5619
14.8200 4.9234 0.5689
14.8400 4.9300 0.5578
14.8600 4.9367 0.5642
14.8800 4.9434 0.5709
14.9000 4.9501 0.5531
14.9200 4.9567 0.5614
14.9400 4.9634 0.5685
14.9600 4.9701 0.5549
14.9800 4.9768 0.5653
15.0000 4.9834 0.5678
15.0200 4.9900 0.5508
15.0400 4.9967 0.5710
15.0600 5.0034 0.5641
15.0800 5.0101 0.5537
15.1000 5.0168 0.5648
15.1200 5.0235 0.5630
15.1400 5.0301 0.5558
15.1600 5.0368 0.5600
15.1800 5.0434 0.5591
15.2000 5.0501 0.5559
15.2200 5.0567 0.5628
15.2400 5.0634 0.5544
15.2600 5.0701 0.5571
15.2800 5.0768 0.5671
15.3000 5.0834 0.5495
15.3200 5.0901 0.5580
15.3400 5.0968 0.5605
15.3600 5.1035 0.5503
15.3800 5.1100 0.5574
15.4000 5.1166 0.5621
15.4200 5.1233 0.5509
15.4400 5.1300 0.5594
15.4600 5.1367 0.5547
15.4800 5.1434 0.5456
15.5000 5.1501 0.5619
15.5200 5.1567 0.5557
15.5400 5.1634 0.5459
15.5600 5.1700 0.5597
15.5800 5.1766 0.5544
15.6000 5.1833 0.5467
15.6200 5.1901 0.5533
15.6400 5.1968 0.5486
15.6600 5.2035 0.5458
15.6800 5.2101 0.5553
15.7000 5.2168 0.5501
15.7200 5.2235 0.5436
15.7400 5.2301 0.5534
15.7600 5.2367 0.5529
15.7800 5.2433 0.5441
15.8000 5.2500 0.5491
15.8200 5.2568 0.5506
15.8400 5.2635 0.5454
15.8600 5.2702 0.5470
15.8800 5.2769 0.5456
15.9000 5.2835 0.5484
15.9200 5.2901 0.5467
15.9400 5.2966 0.5465
15.9600 5.3033 0.5431
15.9800 5.3100 0.5497
16.0000 5.3167 0.5436
16.0200 5.3234 0.5420
16.0400 5.3301 0.5453
16.0600 5.3368 0.5440
16.0800 5.3434 0.5443
16.1000 5.3500 0.5484
16.1200 5.3566 0.5458
16.1400 5.3633 0.5430
16.1600 5.3701 0.5459
16.1800 5.3768 0.5453
16.2000 5.3834 0.5405
16.2200 5.3901 0.5440
16.2400 5.3968 0.5437
16.2600 5.4034 0.5383
16.2800 5.4101 0.5415
16.3000 5.4167 0.5424
16.3200 5.4234 0.5387
16.3400 5.4301 0.5403
16.3600 5.4368 0.5475
16.3800 5.4435 0.5370
16.4000 5.4501 0.5393
16.4200 5.4568 0.5411
16.4400 5.4635 0.5403
16.4600 5.4701 0.5395
16.4800 5.4767 0.5448
16.5000 5.4833 0.5393
16.5200 5.4900 0.5395
16.5400 5.4967 0.5384
16.5600 5.5034 0.5429
16.5800 5.5101 0.5384
16.6000 5.5167 0.5407
16.6200 5.5234 0.5345
16.6400 5.5300 0.5393
16.6600 5.5367 0.5441
16.6800 5.5434 0.5441
16.7000 5.5501 0.5355
16.7200 5.5568 0.5354
16.7400 5.5634 0.5389
16.7600 5.5701 0.5371
16.7800 5.5768 0.5449
16.8000 5.5834 0.5398
16.8200 5.5901 0.5270
16.8400 5.5967 0.5430
16.8600 5.6033 0.5396
16.8800 5.6100 0.5308
16.9000 5.6167 0.5428
16.9200 5.6234 0.5377
16.9400 5.6301 0.5288
16.9600 5.6368 0.5404
16.9800 5.6435 0.5369
17.0000 5.6501 0.5274
17.0200 5.6567 0.5391
17.0400 5.6633 0.5377
17.0600 5.6701 0.5292
17.0800 5.6768 0.5371
17.1000 5.6835 0.5322
17.1200 5.6901 0.5299
17.1400 5.6968 0.5430
17.1600 5.7034 0.5282
17.1800 5.7101 0.5296
17.2000 5.7167 0.5370
17.2200 5.7233 0.5316
17.2400 5.7300 0.5286
17.2600 5.7368 0.5393
17.2800 5.7435 0.5310
17.3000 5.7501 0.5234
17.3200 5.7568 0.5404
17.3400 5.7635 0.5283
17.3600 5.7701 0.5232
17.3800 5.7767 0.5454
17.4000 5.7833 0.5267
17.4200 5.7900 0.5256
17.4400 5.7967 0.5376
17.4600 5.8034 0.5242
17.4800 5.8101 0.5279
17.5000 5.8168 0.5354
17.5200 5.8235 0.5214
17.5400 5.8301 0.5284
17.5600 5.8366 0.5377
17.5800 5.8433 0.5217
17.6000 5.8500 0.5292
17.6200 5.8567 0.5353
17.6400 5.8634 0.5176
17.6600 5.8701 0.5311
17.6800 5.8768 0.5292
17.7000 5.8834 0.5170
17.7200 5.8901 0.5362
17.7400 5.8967 0.5313
17.7600 5.9033 0.5220
17.7800 5.9100 0.5255
17.8000 5.9167 0.5300
17.8200 5.9234 0.5196
17.8400 5.9301 0.5293
17.8600 5.9368 0.5308
17.8800 5.9435 0.5202
17.9000 5.9501 0.5209
17.9200 5.9567 0.5275
17.9400 5.9634 0.5262
17.9600 5.9700 0.5245
17.9800 5.9768 0.5201
18.0000 5.9835 0.5165
18.0200 5.9901 0.5236
18.0400 5.9968 0.5292
18.0600 6.0035 0.5150
18.0800 6.0101 0.5240
18.1000 6.0167 0.5261
18.1200 6.0233 0.5201
18.1400 6.0300 0.5244
18.1600 6.0367 0.5257
18.1800 6.0434 0.5132
18.2000 6.0500 0.5197
18.2200 6.0567 0.5229
18.2400 6.0634 0.5149
18.2600 6.0701 0.5214
18.2800 6.0767 0.5224
18.3000 6.0833 0.5095
18.3200 6.0900 0.5213
18.3400 6.0967 0.5246
18.3600 6.1034 0.5101
18.3800 6.1101 0.5198
18.4000 6.1167 0.5179
18.4200 6.1234 0.5099
18.4400 6.1301 0.5175
18.4600 6.1367 0.5177
18.4800 6.1433 0.5116
18.5000 6.1500 0.5173
18.5200 6.1567 0.5129
18.5400 6.1634 0.5099
18.5600 6.1701 0.5156
18.5800 6.1768 0.5095
18.6000 6.1835 0.5095
18.6200 6.1901 0.5180
18.6400 6.1967 0.5081
18.6600 6.2033 0.5149
18.6800 6.2100 0.5172
18.7000 6.2168 0.5020
18.7200 6.2235 0.5116
18.7400 6.2301 0.5194
18.7600 6.2368 0.5047
18.7800 6.2435 0.5087
18.8000 6.2501 0.5105
18.8200 6.2567 0.5058
18.8400 6.2633 0.5149
18.8600 6.2700 0.5127
18.8800 6.2767 0.4989
18.9000 6.2834 0.5111
18.9200 6.2901 0.5093
18.9400 6.2968 0.5013
18.9600 6.3034 0.5116
18.9800 6.3100 0.5018
19.0000 6.3166 0.5080
19.0200 6.3233 0.5107
19.0400 6.3300 0.5037
19.0600 6.3367 0.5095
19.0800 6.3434 0.5064
19.1000 6.3501 0.5001
19.1200 6.3568 0.5061
19.1400 6.3634 0.5113
19.1600 6.3701 0.4982
19.1800 6.3767 0.5067
19.2000 6.3833 0.5131
19.2200 6.3900 0.4964
19.2400 6.3968 0.5110
19.2600 6.4035 0.5061
19.2800 6.4101 0.4955
19.3000 6.4168 0.5078
19.3200 6.4235 0.5066
19.3400 6.4301 0.4989
19.3600 6.4367 0.5109
19.3800 6.4433 0.5022
19.4000 6.4500 0.4955
19.4200 6.4567 0.5097
19.4400 6.4634 0.5064
19.4600 6.4701 0.4931
19.4800 6.4768 0.5069
19.5000 6.4835 0.5009
19.5200 6.4901 0.4961
19.5400 6.4967 0.5066
19.5600 6.5033 0.5007
19.5800 6.5100 0.4987
19.6000 6.5167 0.5045
19.6200 6.5234 0.4990
19.6400 6.5301 0.4937
19.6600 6.5368 0.5084
19.6800 6.5435 0.4954
19.7000 6.5501 0.4940
19.7200 6.5567 0.5043
19.7400 6.5633 0.4968
19.7600 6.5699 0.4960
19.7800 6.5767 0.5032
19.8000 6.5834 0.4935
19.8200 6.5901 0.4995
19.8400 6.5967 0.5003
19.8600 6.6034 0.4912
19.8800 6.6101 0.4970
19.9000 6.6167 0.5012
19.9200 6.6233 0.4934
19.9400 6.6300 0.5003
19.9600 6.6367 0.4918
19.9800 6.6434 0.4912
20.0000 6.6501 0.4982
20.0200 6.6568 0.4927
20.0400 6.6635 0.4871
20.0600 6.6702 0.4979
20.0800 6.6767 0.4927
20.1000 6.6834 0.4919
20.1200 6.6900 0.5025
20.1400 6.6967 0.4901
20.1600 6.7035 0.4889
20.1800 6.7101 0.4952
20.2000 6.7168 0.4904
20.2200 6.7235 0.4885
20.2400 6.7301 0.4910
20.2600 6.7367 0.4897
20.2800 6.7433 0.4889
20.3000 6.7500 0.4918
20.3200 6.7567 0.4896
20.3400 6.7634 0.4940
20.3600 6.7701 0.4869
20.3800 6.7767 0.4855
20.4000 6.7834 0.4907
20.4200 6.7901 0.4867
20.4400 6.7967 0.4884
20.4600 6.8033 0.4868
20.4800 6.8100 0.4927
20.5000 6.8167 0.4881
20.5200 6.8234 0.4822
20.5400 6.8301 0.4893
20.5600 6.8368 0.4901
20.5800 6.8435 0.4827
20.6000 6.8501 0.4878
20.6200 6.8567 0.4855
20.6400 6.8633 0.4832
20.6600 6.8700 0.4875
20.6800 6.8767 0.4865
20.7000 6.8834 0.4796
20.7200 6.8901 0.4920
20.7400 6.8968 0.4800
20.7600 6.9035 0.4750
20.7800 6.9101 0.4881
20.8000 6.9167 0.4786
20.8200 6.9233 0.4902
20.8400 6.9300 0.4885
20.8600 6.9367 0.4744
20.8800 6.9434 0.4866
20.9000 6.9501 0.4817
20.9200 6.9568 0.4746
20.9400 6.9635 0.4833
20.9600 6.9701 0.4818
20.9800 6.9768 0.4765
21.0000 6.9834 0.4801
21.0200 6.9900 0.4846
21.0400 6.9967 0.4777
21.0600 7.0034 0.4853
21.0800 7.0101 0.4758
21.1000 7.0168 0.4760
21.1200 7.0235 0.4829
21.1400 7.0301 0.4776
21.1600 7.0367 0.4721
21.1800 7.0433 0.4813
21.2000 7.0499 0.4777
21.2200 7.0566 0.4727
21.2400 7.0634 0.4762
21.2600 7.0701 0.4777
21.2800 7.0767 0.4724
21.3000 7.0834 0.4767
21.3200 7.0901 0.4737
21.3400 7.0967 0.4754
21.3600 7.1033 0.4716
21.3800 7.1100 0.4756
21.4000 7.1167 0.4707
21.4200 7.1234 0.4724
21.4400 7.1301 0.4780
21.4600 7.1368 0.4668
21.4800 7.1435 0.4687
21.5000 7.1501 0.4801
21.5200 7.1568 0.4698
21.5400 7.1634 0.4656
21.5600 7.1700 0.4756
21.5800 7.1767 0.4706
21.6000 7.1834 0.4663
21.6200 7.1901 0.4764
21.6400 7.1968 0.4662
21.6600 7.2035 0.4669
21.6800 7.2101 0.4718
21.7000 7.2167 0.4632
21.7200 7.2233 0.4705
21.7400 7.2300 0.4741
21.7600 7.2367 0.4630
21.7800 7.2434 0.4649
21.8000 7.2501 0.4722
21.8200 7.2568 0.4614
21.8400 7.2634 0.4712
21.8600 7.2701 0.4670
21.8800 7.2767 0.4595
21.9000 7.2833 0.4711
21.9200 7.2900 0.4638
21.9400 7.2967 0.4645
21.9600 7.3034 0.4734
21.9800 7.3100 0.4587
22.0000 7.3167 0.4659
22.0200 7.3234 0.4696
22.0400 7.3301 0.4586
22.0600 7.3367 0.4629
22.0800 7.3433 0.4676
22.1000 7.3500 0.4607
22.1200 7.3567 0.4675
22.1400 7.3634 0.4643
22.1600 7.3701 0.4577
22.1800 7.3768 0.4677
22.2000 7.3835 0.4639
22.2200 7.3902 0.4579
22.2400 7.3968 0.4686
22.2600 7.4034 0.4654
22.2800 7.4100 0.4577
22.3000 7.4167 0.4650
22.3200 7.4234 0.4605
22.3400 7.4301 0.4596
22.3600 7.4368 0.4650
22.3800 7.4434 0.4639
22.4000 7.4501 0.4612
22.4200 7.4567 0.4618
22.4400 7.4634 0.4590
22.4600 7.4700 0.4610
22.4800 7.4767 0.4615
22.5000 7.4834 0.4579
22.5200 7.4900 0.4631
22.5400 7.4967 0.4626
22.5600 7.5034 0.4548
22.5800 7.5101 0.4654
22.6000 7.5168 0.4594
22.6200 7.5233 0.4599
22.6400 7.5299 0.4658
22.6600 7.5366 0.4594
22.6800 7.5434 0.4568
22.7000 7.5501 0.4665
22.7200 7.5568 0.4568
22.7400 7.5635 0.4569
22.7600 7.5701 0.4655
22.7800 7.5767 0.4544
22.8000 7.5833 0.4606
22.8200 7.5900 0.4649
22.8400 7.5967 0.4535
22.8600 7.6034 0.4605
22.8800 7.6101 0.4598
22.9000 7.6168 0.4551
22.9200 7.6235 0.4599
22.9400 7.6302 0.4617
22.9600 7.6368 0.4517
22.9800 7.6434 0.4559
23.0000 7.6500 0.4625
23.0200 7.6567 0.4528
23.0400 7.6634 0.4607
23.0600 7.6701 0.4585
23.0800 7.6768 0.4500
23.1000 7.6835 0.4562
23.1200 7.6902 0.4553
23.1400 7.6968 0.4531
23.1600 7.7034 0.4568
23.1800 7.7100 0.4531
23.2000 7.7167 0.4544
23.2200 7.7234 0.4551
23.2400 7.7301 0.4565
23.2600 7.7368 0.4519
23.2800 7.7434 0.4529
23.3000 7.7501 0.4524
23.3200 7.7567 0.4513
23.3400 7.7633 0.4535
23.3600 7.7699 0.4550
23.3800 7.7766 0.4484
23.4000 7.7833 0.4496
23.4200 7.7900 0.4518
23.4400 7.7967 0.4507
23.4600 7.8034 0.4475
23.4800 7.8101 0.4518
23.5000 7.8167 0.4463
23.5200 7.8233 0.4508
23.5400 7.8300 0.4495
23.5600 7.8367 0.4479
23.5800 7.8434 0.4506
23.6000 7.8501 0.4460
23.6200 7.8568 0.4443
23.6400 7.8635 0.4499
23.6600 7.8702 0.4420
23.6800 7.8768 0.4432
23.7000 7.8834 0.4484
23.7200 7.8900 0.4473
23.7400 7.8967 0.4454
23.7600 7.9034 0.4445
23.7800 7.9101 0.4421
23.8000 7.9168 0.4422
23.8200 7.9235 0.4482
23.8400 7.9302 0.4416
23.8600 7.9368 0.4406
23.8800 7.9434 0.4458
23.9000 7.9500 0.4465
23.9200 7.9567 0.4419
23.9400 7.9634 0.4428
23.9600 7.9701 0.4446
23.9800 7.9767 0.4421
24.0000 7.9834 0.4397
24.0200 7.9901 0.4423
24.0400 7.9968 0.4365
24.0600 8.0034 0.4427
24.0800 8.0100 0.4392
24.1000 8.0167 0.4397
24.1200 8.0233 0.4420
24.1400 8.0300 0.4404
24.1600 8.0367 0.4348
24.1800 8.0434 0.4350
24.2000 8.0501 0.4438
24.2200 8.0568 0.4370
24.2400 8.0634 0.4370
24.2600 8.0700 0.4396
24.2800 8.0767 0.4361
24.3000 8.0834 0.4423
24.3200 8.0901 0.4347
24.3400 8.0968 0.4343
24.3600 8.1035 0.4427
24.3800 8.1101 0.4345
24.4000 8.1168 0.4308
24.4200 8.1234 0.4403
24.4400 8.1300 0.4392
24.4600 8.1367 0.4337
24.4800 8.1434 0.4416
24.5000 8.1501 0.4330
24.5200 8.1568 0.4369
24.5400 8.1635 0.4407
24.5600 8.1701 0.4320
24.5800 8.1768 0.4384
24.6000 8.1834 0.4352
24.6200 8.1900 0.4276
24.6400 8.1967 0.4446
24.6600 8.2033 0.4325
24.6800 8.2100 0.4262
24.7000 8.2167 0.4420
24.7200 8.2234 0.4339
24.7400 8.2301 0.4217
24.7600 8.2368 0.4455
24.7800 8.2434 0.4298
24.8000 8.2500 0.4243
24.8200 8.2566 0.4445
24.8400 8.2633 0.4302
24.8600 8.2701 0.4228
24.8800 8.2768 0.4400
24.9000 8.2834 0.4304
24.9200 8.2901 0.4244
24.9400 8.2967 0.4402
24.9600 8.3034 0.4275
24.9800 8.3100 0.4281
25.0000 8.3167 0.4367
25.0200 8.3234 0.4241
25.0400 8.3301 0.4274
25.0600 8.3367 0.4421
25.0800 8.3434 0.4256
25.1000 8.3501 0.4174
25.1200 8.3568 0.4392
25.1400 8.3634 0.4296
25.1600 8.3700 0.4233
25.1800 8.3767 0.4389
25.2000 8.3834 0.4237
25.2200 8.3901 0.4213
25.2400 8.3968 0.4364
25.2600 8.4035 0.4213
25.2800 8.4101 0.4228
25.3000 8.4168 0.4333
25.3200 8.4234 0.4154
25.3400 8.4300 0.4318
25.3600 8.4367 0.4287
25.3800 8.4434 0.4193
25.4000 8.4501 0.4297
25.4200 8.4568 0.4298
25.4400 8.4635 0.4231
25.4600 8.4701 0.4262
25.4800 8.4768 0.4221
25.5000 8.4834 0.4218
25.5200 8.4900 0.4295
25.5400 8.4966 0.4270
25.5600 8.5033 0.4211
25.5800 8.5100 0.4261
25.6000 8.5167 0.4214
25.6200 8.5234 0.4217
25.6400 8.5301 0.4243
25.6600 8.5367 0.4215
25.6800 8.5434 0.4212
25.7000 8.5500 0.4243
25.7200 8.5566 0.4238
25.7400 8.5634 0.4211
25.7600 8.5701 0.4193
25.7800 8.5768 0.4209
25.8000 8.5835 0.4226
25.8200 8.5902 0.4181
25.8400 8.5968 0.4244
25.8600 8.6034 0.4145
25.8800 8.6100 0.4198
25.9000 8.6167 0.4242
25.9200 8.6234 0.4139
25.9400 8.6301 0.4167
25.9600 8.6368 0.4239
25.9800 8.6435 0.4144
26.0000 8.6501 0.4155
26.0200 8.6568 0.4224
26.0400 8.6634 0.4103
26.0600 8.6700 0.4150
26.0800 8.6767 0.4275
26.1000 8.6834 0.4084
26.1200 8.6901 0.4168
26.1400 8.6967 0.4197
26.1600 8.7034 0.4064
26.1800 8.7101 0.4173
26.2000 8.7168 0.4204
26.2200 8.7234 0.4039
26.2400 8.7300 0.4155
26.2600 8.7366 0.4215
26.2800 8.7433 0.4042
26.3000 8.7500 0.4144
26.3200 8.7567 0.4187
26.3400 8.7634 0.4063
26.3600 8.7701 0.4161
26.3800 8.7768 0.4124
26.4000 8.7834 0.4067
26.4200 8.7900 0.4174
26.4400 8.7966 0.4131
26.4600 8.8034 0.4067
26.4800 8.8101 0.4120
26.5000 8.8168 0.4131
26.5200 8.8235 0.4056
26.5400 8.8301 0.4095
26.5600 8.8368 0.4122
26.5800 8.8435 0.4064
26.6000 8.8501 0.4083
26.6200 8.8567 0.4102
26.6400 8.8634 0.4076
26.6600 8.8701 0.4078
26.6800 8.8768 0.4058
26.7000 8.8835 0.4067
26.7200 8.8902 0.4102
26.7400 8.8968 0.4082
26.7600 8.9034 0.4023
26.7800 8.9100 0.4103
26.8000 8.9166 0.4073
26.8200 8.9233 0.4069
26.8400 8.9301 0.4077
26.8600 8.9367 0.4041
26.8800 8.9434 0.4067
26.9000 8.9501 0.4058
26.9200 8.9568 0.4007
26.9400 8.9634 0.4062
26.9600 8.9700 0.4056
26.9800 8.9766 0.4025
27.0000 8.9833 0.4062
27.0200 8.9900 0.4081
27.0400 8.9967 0.4051
27.0600 9.0034 0.4059
27.0800 9.0101 0.4020
27.1000 9.0168 0.4039
27.1200 9.0234 0.4072
27.1400 9.0300 0.4010
27.1600 9.0367 0.4081
27.1800 9.0433 0.4053
27.2000 9.0500 0.4014
27.2200 9.0567 0.4096
27.2400 9.0634 0.3951
27.2600 9.0702 0.4011
27.2800 9.0768 0.4054
27.3000 9.0835 0.3957
27.3200 9.0900 0.4009
27.3400 9.0967 0.4101
27.3600 9.1034 0.4008
27.3800 9.1101 0.3962
27.4000 9.1168 0.4090
27.4200 9.1235 0.3956
27.4400 9.1301 0.4047
27.4600 9.1368 0.3997
27.4800 9.1434 0.3921
27.5000 9.1500 0.4043
27.5200 9.1567 0.4043
27.5400 9.1634 0.3947
27.5600 9.1701 0.3987
27.5800 9.1768 0.4014
27.6000 9.1834 0.3943
27.6200 9.1901 0.3971
27.6400 9.1968 0.4033
27.6600 9.2034 0.3918
27.6800 9.2100 0.3952
27.7000 9.2166 0.3993
27.7200 9.2233 0.3921
27.7400 9.2300 0.3958
27.7600 9.2367 0.3967
27.7800 9.2434 0.3915
27.8000 9.2501 0.3930
27.8200 9.2568 0.3940
27.8400 9.2634 0.3909
27.8600 9.2700 0.3917
27.8800 9.2767 0.3937
27.9000 9.2833 0.3914
27.9200 9.2901 0.3914
27.9400 9.2968 0.3923
27.9600 9.3035 0.3867
27.9800 9.3102 0.3914
28.0000 9.3168 0.3841
28.0200 9.3234 0.3886
28.0400 9.3300 0.3902
28.0600 9.3367 0.3901
28.0800 9.3434 0.3863
28.1000 9.3501 0.3851
28.1200 9.3568 0.3889
28.1400 9.3634 0.3904
28.1600 9.3701 0.3819
28.1800 9.3768 0.3845
28.2000 9.3834 0.3858
28.2200 9.3900 0.3817
28.2400 9.3966 0.3838
28.2600 9.4033 0.3860
28.2800 9.4100 0.3780
28.3000 9.4167 0.3834
28.3200 9.4234 0.3864
28.3400 9.4301 0.3778
28.3600 9.4368 0.3798
28.3800 9.4434 0.3861
28.4000 9.4500 0.3781
28.4200 9.4566 0.3775
28.4400 9.4633 0.3872
28.4600 9.4700 0.3798
28.4800 9.4767 0.3796
28.5000 9.4834 0.3812
28.5200 9.4901 0.3759
28.5400 9.4968 0.3814
28.5600 9.5034 0.3784
28.5800 9.5100 0.3729
28.6000 9.5167 0.3806
28.6200 9.5233 0.3776
28.6400 9.5301 0.3761
28.6600 9.5368 0.3733
28.6800 9.5434 0.3781
28.7000 9.5501 0.3767
28.7200 9.5568 0.3713
28.7400 9.5635 0.3721
28.7600 9.5701 0.3741
28.7800 9.5767 0.3755
28.8000 9.5834 0.3756
28.8200 9.5901 0.3715
28.8400 9.5968 0.3733
28.8600 9.6034 0.3714
28.8800 9.6102 0.3756
28.9000 9.6168 0.3705
28.9200 9.6235 0.3699
28.9400 9.6301 0.3742
28.9600 9.6367 0.3734
28.9800 9.6433 0.3705
29.0000 9.6500 0.3756
29.0200 9.6567 0.3714
29.0400 9.6634 0.3741
29.0600 9.6701 0.3659
29.0800 9.6768 0.3690
29.1000 9.6834 0.3744
29.1200 9.6900 0.3640
29.1400 9.6966 0.3668
29.1600 9.7033 0.3759
29.1800 9.7100 0.3666
29.2000 9.7167 0.3686
29.2200 9.7234 0.3768
29.2400 9.7301 0.3680
29.2600 9.7368 0.3676
29.2800 9.7434 0.3710
29.3000 9.7501 0.3672
29.3200 9.7567 0.3670
29.3400 9.7633 0.3694
29.3600 9.7701 0.3649
29.3800 9.7768 0.3699
29.4000 9.7834 0.3685
29.4200 9.7901 0.3650
29.4400 9.7968 0.3683
29.4600 9.8035 0.3667
29.4800 9.8100 0.3608
29.5000 9.8167 0.3660
29.5200 9.8233 0.3700
29.5400 9.8300 0.3651
29.5600 9.8368 0.3650
29.5800 9.8435 0.3685
29.6000 9.8501 0.3609
29.6200 9.8568 0.3666
29.6400 9.8634 0.3656
29.6600 9.8701 0.3638
29.6800 9.8767 0.3630
29.7000 9.8834 0.3639
29.7200 9.8900 0.3653
29.7400 9.8967 0.3592
29.7600 9.9034 0.3645
29.7800 9.9101 0.3654
29.8000 9.9168 0.3587
29.8200 9.9234 0.3654
29.8400 9.9300 0.3612
29.8600 9.9366 0.3588
29.8800 9.9433 0.3669
29.9000 9.9500 0.3638
29.9200 9.9567 0.3577
29.9400 9.9634 0.3619
29.9600 9.9701 0.3603
29.9800 9.9768 0.3522
30.0000 9.9834 0.3699
30.0200 9.9900 0.3571
30.0400 9.9966 0.3540
30.0600 10.0033 0.3686
30.0800 10.0101 0.3528
30.1000 10.0168 0.3551
30.1200 10.0235 0.3667
30.1400 10.0301 0.3533
30.1600 10.0368 0.3527
30.1800 10.0435 0.3594
30.2000 10.0501 0.3559
30.2200 10.0567 0.3552
30.2400 10.0634 0.3589
30.2600 10.0701 0.3492
30.2800 10.0768 0.3560
30.3000 10.0834 0.3584
30.3200 10.0901 0.3505
30.3400 10.0968 0.3537
30.3600 10.1035 0.3558
30.3800 10.1101 0.3484
30.4000 10.1167 0.3564
30.4200 10.1233 0.3555
30.4400 10.1300 0.3494
30.4600 10.1367 0.3510
30.4800 10.1434 0.3516
30.5000 10.1501 0.3523
30.5200 10.1568 0.3539
30.5400 10.1634 0.3489
30.5600 10.1700 0.3482
30.5800 10.1766 0.3517
30.6000 10.1833 0.3486
30.6200 10.1900 0.3539
30.6400 10.1967 0.3485
30.6600 10.2034 0.3504
30.6800 10.2101 0.3519
30.7000 10.2168 0.3434
30.7200 10.2234 0.3500
30.7400 10.2301 0.3541
30.7600 10.2367 0.3450
30.7800 10.2434 0.3510
30.8000 10.2501 0.3467
30.8200 10.2567 0.3455
30.8400 10.2634 0.3482
30.8600 10.2701 0.3483
30.8800 10.2768 0.3382
30.9000 10.2835 0.3460
30.9200 10.2901 0.3490
30.9400 10.2967 0.3397
30.9600 10.3033 0.3496
30.9800 10.3100 0.3496
31.0000 10.3168 0.3366
31.0200 10.3235 0.3476
31.0400 10.3301 0.3446
31.0600 10.3368 0.3431
31.0800 10.3434 0.3457
31.1000 10.3500 0.3412
31.1200 10.3566 0.3427
31.1400 10.3633 0.3479
31.1600 10.3700 0.3463
31.1800 10.3767 0.3407
31.2000 10.3834 0.3412
31.2200 10.3901 0.3454
31.2400 10.3968 0.3421
31.2600 10.4034 0.3396
31.2800 10.4101 0.3462
31.3000 10.4167 0.3397
31.3200 10.4233 0.3380
31.3400 10.4300 0.3438
31.3600 10.4367 0.3403
31.3800 10.4434 0.3392
31.4000 10.4501 0.3431
31.4200 10.4568 0.3314
31.4400 10.4635 0.3404
31.4600 10.4701 0.3400
31.4800 10.4767 0.3355
31.5000 10.4833 0.3398
31.5200 10.4900 0.3421
31.5400 10.4968 0.3331
31.5600 10.5035 0.3396
31.5800 10.5101 0.3396
31.6000 10.5168 0.3351
31.6200 10.5235 0.3415
31.6400 10.5301 0.3371
31.6600 10.5367 0.3275
31.6800 10.5433 0.3434
31.7000 10.5500 0.3347
31.7200 10.5568 0.3303
31.7400 10.5634 0.3391
31.7600 10.5701 0.3325
31.7800 10.5768 0.3317
31.8000 10.5835 0.3347
31.8200 10.5901 0.3304
31.8400 10.5967 0.3357
31.8600 10.6033 0.3389
31.8800 10.6100 0.3276
31.9000 10.6167 0.3327
31.9200 10.6234 0.3343
31.9400 10.6301 0.3261
31.9600 10.6368 0.3344
31.9800 10.6435 0.3319
32.0000 10.6501 0.3234
32.0200 10.6567 0.3353
32.0400 10.6633 0.3288
32.0600 10.6700 0.3274
32.0800 10.6767 0.3350
32.1000 10.6834 0.3252
32.1200 10.6901 0.3238
32.1400 10.6967 0.3387
32.1600 10.7034 0.3226
32.1800 10.7101 0.3248
32.2000 10.7167 0.3321
32.2200 10.7234 0.3207
32.2400 10.7300 0.3263
32.2600 10.7367 0.3302
32.2800 10.7434 0.3159
32.3000 10.7501 0.3273
32.3200 10.7568 0.3288
32.3400 10.7635 0.3175
32.3600 10.7702 0.3286
32.3800 10.7767 0.3267
32.4000 10.7833 0.3158
32.4200 10.7900 0.3290
32.4400 10.7967 0.3213
32.4600 10.8034 0.3156
32.4800 10.8101 0.3286
32.5000 10.8168 0.3199
32.5200 10.8235 0.3173
32.5400 10.8301 0.3264
32.5600 10.8367 0.3178
32.5800 10.8433 0.3202
32.6000 10.8500 0.3271
32.6200 10.8567 0.3122
32.6400 10.8634 0.3186
32.6600 10.8701 0.3249
32.6800 10.8768 0.3108
32.7000 10.8834 0.3157
32.7200 10.8901 0.3229
32.7400 10.8967 0.3108
32.7600 10.9033 0.3184
32.7800 10.9100 0.3203
32.8000 10.9167 0.3131
32.8200 10.9234 0.3175
32.8400 10.9301 0.3129
32.8600 10.9368 0.3127
32.8800 10.9435 0.3191
32.9000 10.9501 0.3120
32.9200 10.9567 0.3171
32.9400 10.9633 0.3145
32.9600 10.9700 0.3129
32.9800 10.9767 0.3133
33.0000 10.9834 0.3149
33.0200 10.9901 0.3104
33.0400 10.9968 0.3136
33.0600 11.0035 0.3129
33.0800 11.0101 0.3072
33.1000 11.0167 0.3158
33.1200 11.0233 0.3101
33.1400 11.0300 0.3078
33.1600 11.0367 0.3182
33.1800 11.0435 0.3026
33.2000 11.0501 0.3089
33.2200 11.0568 0.3184
33.2400 11.0635 0.3030
33.2600 11.0701 0.3067
33.2800 11.0767 0.3138
33.3000 11.0833 0.3039
33.3200 11.0900 0.3091
33.3400 11.0967 0.3085
33.3600 11.1034 0.3029
33.3800 11.1101 0.3076
33.4000 11.1168 0.3068
33.4200 11.1234 0.3018
33.4400 11.1301 0.3053
33.4600 11.1367 0.3107
33.4800 11.1433 0.2992
33.5000 11.1500 0.3067
33.5200 11.1567 0.3085
33.5400 11.1634 0.3019
33.5600 11.1700 0.3028
33.5800 11.1767 0.3096
33.6000 11.1834 0.2993
33.6200 11.1901 0.3002
33.6400 11.1967 0.3090
33.6600 11.2034 0.2995
33.6800 11.2100 0.2981
33.7000 11.2168 0.3127
33.7200 11.2235 0.2945
33.7400 11.2302 0.2980
33.7600 11.2368 0.3100
33.7800 11.2435 0.2917
33.8000 11.2501 0.2937
33.8200 11.2567 0.3110
33.8400 11.2633 0.2945
33.8600 11.2700 0.2945
33.8800 11.2767 0.3078
33.9000 11.2834 0.2912
33.9200 11.2901 0.2938
33.9400 11.2968 0.3059
33.9600 11.3035 0.2890
33.9800 11.3101 0.2975
34.0000 11.3167 0.3071
34.0200 11.3233 0.2854
34.0400 11.3300 0.2998
34.0600 11.3367 0.3060
34.0800 11.3434 0.2883
34.1000 11.3501 0.2956
34.1200 11.3568 0.3020
34.1400 11.3635 0.2847
34.1600 11.3701 0.2987
34.1800 11.3767 0.2963
34.2000 11.3833 0.2852
34.2200 11.3899 0.2998
34.2400 11.3967 0.2972
34.2600 11.4034 0.2833
34.2800 11.4101 0.3000
34.3000 11.4167 0.2918
34.3200 11.4234 0.2888
34.3400 11.4301 0.2948
34.3600 11.4367 0.2951
34.3800 11.4433 0.2889
34.4000 11.4500 0.2948
34.4200 11.4567 0.2920
34.4400 11.4634 0.2901
34.4600 11.4701 0.2925
34.4800 11.4768 0.2963
34.5000 11.4835 0.2913
34.5200 11.4902 0.2882
34.5400 11.4968 0.2965
34.5600 11.5034 0.2949
34.5800 11.5100 0.2857
34.6000 11.5167 0.2959
34.6200 11.5234 0.2885
34.6400 11.5301 0.2819
34.6600 11.5368 0.2981
34.6800 11.5435 0.2888
34.7000 11.5501 0.2820
34.7200 11.5567 0.2982
34.7400 11.5633 0.2882
34.7600 11.5700 0.2820
34.7800 11.5767 0.3010
34.8000 11.5834 0.2833
34.8200 11.5901 0.2782
34.8400 11.5967 0.2990
34.8600 11.6034 0.2830
34.8800 11.6101 0.2809
34.9000 11.6167 0.2933
34.9200 11.6233 0.2797
34.9400 11.6300 0.2874
34.9600 11.6367 0.2919
34.9800 11.6434 0.2796
35.0000 11.6501 0.2815
35.0200 11.6568 0.2957
35.0400 11.6635 0.2777
35.0600 11.6701 0.2851
35.0800 11.6768 0.2960
35.1000 11.6834 0.2796
35.1200 11.6900 0.2828
35.1400 11.6967 0.2904
35.1600 11.7034 0.2769
35.1800 11.7101 0.2832
35.2000 11.7168 0.2866
35.2200 11.7234 0.2768
35.2400 11.7301 0.2814
35.2600 11.7367 0.2869
35.2800 11.7434 0.2769
35.3000 11.7500 0.2808
35.3200 11.7567 0.2876
35.3400 11.7634 0.2778
35.3600 11.7701 0.2827
35.3800 11.7768 0.2813
35.4000 11.7835 0.2795
35.4200 11.7902 0.2814
35.4400 11.7968 0.2778
35.4600 11.8034 0.2801
35.4800 11.8100 0.2816
35.5000 11.8167 0.2814
35.5200 11.8234 0.2778
35.5400 11.8301 0.2809
35.5600 11.8368 0.2828
35.5800 11.8435 0.2740
35.6000 11.8501 0.2765
35.6200 11.8567 0.2767
35.6400 11.8633 0.2788
35.6600 11.8699 0.2746
35.6800 11.8766 0.2763
35.7000 11.8834 0.2772
35.7200 11.8901 0.2725
35.7400 11.8967 0.2785
35.7600 11.9034 0.2729
35.7800 11.9101 0.2743
35.8000 11.9167 0.2795
35.8200 11.9233 0.2676
35.8400 11.9300 0.2803
35.8600 11.9367 0.2817
35.8800 11.9434 0.2621
35.9000 11.9501 0.2780
35.9200 11.9568 0.2759
35.9400 11.9635 0.2647
35.9600 11.9701 0.2770
35.9800 11.9767 0.2748
36.0000 11.9833 0.2660
36.0200 11.9900 0.2814
36.0400 11.9967 0.2697
36.0600 12.0034 0.2666
36.0800 12.0101 0.2786
36.1000 12.0168 0.2695
36.1200 12.0235 0.2674
36.1400 12.0301 0.2762
36.1600 12.0367 0.2592
36.1800 12.0433 0.2749
36.2000 12.0500 0.2765
36.2200 12.0567 0.2613
36.2400 12.0634 0.2709
36.2600 12.0701 0.2738
36.2800 12.0768 0.2561
36.3000 12.0834 0.2770
36.3200 12.0901 0.2722
36.3400 12.0967 0.2591
36.3600 12.1033 0.2759
36.3800 12.1100 0.2649
36.4000 12.1167 0.2615
36.4200 12.1234 0.2762
36.4400 12.1300 0.2614
36.4600 12.1367 0.2643
36.4800 12.1434 0.2677
36.5000 12.1501 0.2653
36.5200 12.1567 0.2643
36.5400 12.1634 0.2674
36.5600 12.1700 0.2656
36.5800 12.1767 0.2642
36.6000 12.1834 0.2713
36.6200 12.1901 0.2578
36.6400 12.1968 0.2643
36.6600 12.2035 0.2628
36.6800 12.2102 0.2567
36.7000 12.2168 0.2625
36.7200 12.2234 0.2620
36.7400 12.2300 0.2601
36.7600 12.2367 0.2608
36.7800 12.2434 0.2613
36.8000 12.2501 0.2581
36.8200 12.2568 0.2606
36.8400 12.2634 0.2628
36.8600 12.2701 0.2543
36.8800 12.2768 0.2577
36.9000 12.2834 0.2573
36.9200 12.2900 0.2622
36.9400 12.2967 0.2543
36.9600 12.3034 0.2554
36.9800 12.3101 0.2602
37.0000 12.3168 0.2471
37.0200 12.3234 0.2539
37.0400 12.3301 0.2615
37.0600 12.3367 0.2478
37.0800 12.3433 0.2550
37.1000 12.3499 0.2576
37.1200 12.3566 0.2487
37.1400 12.3634 0.2545
37.1600 12.3701 0.2566
37.1800 12.3768 0.2446
37.2000 12.3835 0.2549
37.2200 12.3901 0.2563
37.2400 12.3968 0.2398
37.2600 12.4033 0.2578
37.2800 12.4100 0.2546
37.3000 12.4167 0.2413
37.3200 12.4234 0.2563
37.3400 12.4301 0.2526
37.3600 12.4368 0.2404
37.3800 12.4435 0.2539
37.4000 12.4502 0.2479
37.4200 12.4568 0.2392
37.4400 12.4634 0.2563
37.4600 12.4700 0.2533
37.4800 12.4767 0.2361
37.5000 12.4834 0.2480
37.5200 12.4901 0.2517
37.5400 12.4968 0.2377
37.5600 12.5035 0.2492
37.5800 12.5101 0.2521
37.6000 12.5168 0.2334
37.6200 12.5234 0.2499
37.6400 12.5300 0.2509
37.6600 12.5367 0.2349
37.6800 12.5434 0.2531
37.7000 12.5501 0.2481
37.7200 12.5568 0.2324
37.7400 12.5634 0.2552
37.7600 12.5701 0.2441
37.7800 12.5767 0.2378
37.8000 12.5833 0.2537
37.8200 12.5900 0.2420
37.8400 12.5966 0.2366
37.8600 12.6033 0.2548
37.8800 12.6100 0.2400
37.9000 12.6167 0.2366
37.9200 12.6234 0.2564
37.9400 12.6301 0.2383
37.9600 12.6367 0.2318
37.9800 12.6434 0.2521
38.0000 12.6500 0.2405
38.0200 12.6567 0.2356
38.0400 12.6634 0.2491
38.0600 12.6701 0.2330
38.0800 12.6768 0.2376
38.1000 12.6835 0.2476
38.1200 12.6902 0.2379
38.1400 12.6968 0.2327
38.1600 12.7034 0.2432
38.1800 12.7100 0.2370
38.2000 12.7167 0.2352
38.2200 12.7234 0.2423
38.2400 12.7301 0.2392
38.2600 12.7368 0.2306
38.2800 12.7435 0.2422
38.3000 12.7502 0.2369
38.3200 12.7568 0.2300
38.3400 12.7634 0.2390
38.3600 12.7700 0.2373
38.3800 12.7766 0.2302
38.4000 12.7833 0.2338
38.4200 12.7901 0.2420
38.4400 12.7967 0.2298
38.4600 12.8034 0.2333
38.4800 12.8101 0.2375
38.5000 12.8168 0.2274
38.5200 12.8234 0.2338
38.5400 12.8300 0.2376
38.5600 12.8367 0.2277
38.5800 12.8434 0.2278
38.6000 12.8501 0.2382
38.6200 12.8567 0.2275
38.6400 12.8634 0.2309
38.6600 12.8701 0.2387
38.6800 12.8767 0.2168
38.7000 12.8834 0.2307
38.7200 12.8900 0.2393
38.7400 12.8966 0.2198
38.7600 12.9034 0.2310
38.7800 12.9101 0.2374
38.8000 12.9168 0.2160
38.8200 12.9235 0.2293
38.8400 12.9302 0.2324
38.8600 12.9368 0.2157
38.8800 12.9434 0.2337
38.9000 12.9500 0.2305
38.9200 12.9567 0.2148
38.9400 12.9634 0.2361
38.9600 12.9701 0.2266
38.9800 12.9768 0.2134
39.0000 12.9835 0.2305
39.0200 12.9901 0.2243
39.0400 12.9968 0.2164
39.0600 13.0034 0.2300
39.0800 13.0100 0.2228
39.1000 13.0167 0.2246
39.1200 13.0233 0.2240
39.1400 13.0300 0.2175
39.1600 13.0367 0.2183
39.1800 13.0434 0.2256
39.2000 13.0501 0.2198
39.2200 13.0567 0.2168
39.2400 13.0634 0.2228
39.2600 13.0700 0.2200
39.2800 13.0766 0.2214
39.3000 13.0834 0.2174
39.3200 13.0901 0.2173
39.3400 13.0968 0.2195
39.3600 13.1034 0.2174
39.3800 13.1101 0.2189
39.4000 13.1168 0.2201
39.4200 13.1234 0.2109
39.4400 13.1300 0.2187
39.4600 13.1367 0.2165
39.4800 13.1434 0.2122
39.5000 13.1501 0.2196
39.5200 13.1568 0.2194
39.5400 13.1634 0.2072
39.5600 13.1701 0.2202
39.5800 13.1768 0.2158
39.6000 13.1834 0.2115
39.6200 13.1900 0.2166
39.6400 13.1967 0.2116
39.6600 13.2034 0.2092
39.6800 13.2101 0.2189
39.7000 13.2168 0.2109
39.7200 13.2234 0.2119
39.7400 13.2301 0.2160
39.7600 13.2368 0.2079
39.7800 13.2434 0.2071
39.8000 13.2500 0.2203
39.8200 13.2567 0.2116
39.8400 13.2634 0.2097
39.8600 13.2701 0.2123
39.8800 13.2768 0.2066
39.9000 13.2835 0.2071
39.9200 13.2901 0.2123
39.9400 13.2968 0.2089
39.9600 13.3034 0.2025
39.9800 13.3100 0.2070
40.0000 13.3166 0.2127
40.0200 13.3233 0.2049
40.0400 13.3300 0.2057
40.0600 13.3367 0.2088
40.0800 13.3433 0.2045
40.1000 13.3500 0.2078
40.1200 13.3567 0.2037
40.1400 13.3634 0.2039
40.1600 13.3700 0.2070
40.1800 13.3766 0.2063
40.2000 13.3834 0.2000
40.2200 13.3901 0.2067
40.2400 13.3968 0.2036
40.2600 13.4035 0.2024
40.2800 13.4102 0.2007
40.3000 13.4169 0.2051
40.3200 13.4234 0.2015
40.3400 13.4300 0.2026
40.3600 13.4367 0.2053
40.3800 13.4434 0.1993
40.4000 13.4501 0.1978
40.4200 13.4568 0.2076
40.4400 13.4635 0.1962
40.4600 13.4701 0.1984
40.4800 13.4768 0.2029
40.5000 13.4834 0.1975
40.5200 13.4900 0.1975
40.5400 13.4966 0.2038
40.5600 13.5033 0.1997
40.5800 13.5100 0.1940
40.6000 13.5167 0.1993
40.6200 13.5234 0.1985
40.6400 13.5301 0.1989
40.6600 13.5368 0.1966
40.6800 13.5434 0.1960
40.7000 13.5500 0.1949
40.7200 13.5566 0.2046
40.7400 13.5633 0.1936
40.7600 13.5700 0.1895
40.7800 13.5767 0.2013
40.8000 13.5834 0.1944
40.8200 13.5901 0.1867
40.8400 13.5968 0.1986
40.8600 13.6034 0.1865
40.8800 13.6100 0.1906
40.9000 13.6166 0.1978
40.9200 13.6234 0.1876
40.9400 13.6301 0.1886
40.9600 13.6368 0.1957
40.9800 13.6434 0.1833
41.0000 13.6501 0.1925
41.0200 13.6568 0.1943
41.0400 13.6635 0.1807
41.0600 13.6701 0.1882
41.0800 13.6767 0.1949
41.1000 13.6834 0.1817
41.1200 13.6901 0.1894
41.1400 13.6968 0.1938
41.1600 13.7034 0.1813
41.1800 13.7101 0.1884
41.2000 13.7168 0.1869
41.2200 13.7235 0.1804
41.2400 13.7300 0.1890
41.2600 13.7366 0.1889
41.2800 13.7433 0.1820
41.3000 13.7500 0.1861
41.3200 13.7567 0.1868
41.3400 13.7634 0.1806
41.3600 13.7701 0.1804
41.3800 13.7768 0.1862
41.4000 13.7834 0.1789
41.4200 13.7900 0.1802
41.4400 13.7966 0.1839
41.4600 13.8033 0.1781
41.4800 13.8100 0.1788
41.5000 13.8167 0.1829
41.5200 13.8234 0.1760
41.5400 13.8301 0.1782
41.5600 13.8368 0.1822
41.5800 13.8434 0.1752
41.6000 13.8500 0.1734
41.6200 13.8567 0.1893
41.6400 13.8633 0.1719
41.6600 13.8700 0.1708
41.6800 13.8767 0.1831
41.7000 13.8834 0.1707
41.7200 13.8901 0.1724
41.7400 13.8968 0.1849
41.7600 13.9034 0.1698
41.7800 13.9100 0.1699
41.8000 13.9166 0.1859
41.8200 13.9233 0.1679
41.8400 13.9301 0.1666
41.8600 13.9368 0.1850
41.8800 13.9435 0.1611
41.9000 13.9502 0.1686
41.9200 13.9568 0.1797
41.9400 13.9634 0.1610
41.9600 13.9700 0.1700
41.9800 13.9767 0.1804
42.0000 13.9834 0.1635
42.0200 13.9901 0.1697
42.0400 13.9968 0.1782
42.0600 14.0034 0.1575
42.0800 14.0101 0.1698
42.1000 14.0168 0.1769
42.1200 14.0234 0.1601
42.1400 14.0300 0.1728
42.1600 14.0366 0.1690
42.1800 14.0433 0.1630
42.2000 14.0500 0.1731
42.2200 14.0567 0.1652
42.2400 14.0634 0.1708
42.2600 14.0701 0.1659
42.2800 14.0768 0.1624
42.3000 14.0834 0.1662
42.3200 14.0900 0.1636
42.3400 14.0967 0.1620
42.3600 14.1033 0.1719
42.3800 14.1101 0.1594
42.4000 14.1168 0.1567
42.4200 14.1235 0.1735
42.4400 14.1301 0.1624
42.4600 14.1368 0.1587
42.4800 14.1435 0.1669
42.5000 14.1501 0.1531
42.5200 14.1567 0.1659
42.5400 14.1634 0.1668
42.5600 14.1701 0.1533
42.5800 14.1768 0.1626
42.6000 14.1834 0.1639
42.6200 14.1901 0.1542
42.6400 14.1968 0.1652
42.6600 14.2035 0.1624
42.6800 14.2101 0.1535
42.7000 14.2167 0.1619
42.7200 14.2233 0.1542
42.7400 14.2300 0.1578
42.7600 14.2367 0.1638
42.7800 14.2434 0.1558
42.8000 14.2501 0.1528
42.8200 14.2568 0.1548
42.8400 14.2634 0.1580
42.8600 14.2700 0.1577
42.8800 14.2766 0.1593
42.9000 14.2833 0.1582
42.9200 14.2900 0.1483
42.9400 14.2967 0.1524
42.9600 14.3034 0.1557
42.9800 14.3101 0.1581
43.0000 14.3168 0.1533
43.0200 14.3234 0.1496
43.0400 14.3300 0.1483
43.0600 14.3367 0.1532
43.0800 14.3434 0.1542
43.1000 14.3501 0.1518
43.1200 14.3568 0.1508
43.1400 14.3634 0.1490
43.1600 14.3701 0.1478
43.1800 14.3768 0.1509
43.2000 14.3835 0.1504
43.2200 14.3901 0.1530
43.2400 14.3967 0.1496
43.2600 14.4033 0.1458
43.2800 14.4100 0.1502
43.3000 14.4168 0.1532
43.3200 14.4235 0.1467
43.3400 14.4302 0.1453
43.3600 14.4368 0.1447
43.3800 14.4434 0.1412
43.4000 14.4500 0.1530
43.4200 14.4566 0.1542
43.4400 14.4633 0.1459
43.4600 14.4701 0.1396
43.4800 14.4768 0.1445
43.5000 14.4834 0.1490
43.5200 14.4901 0.1496
43.5400 14.4967 0.1447
43.5600 14.5034 0.1413
43.5800 14.5100 0.1388
43.6000 14.5166 0.1429
43.6200 14.5233 0.1441
43.6400 14.5300 0.1488
43.6600 14.5367 0.1351
43.6800 14.5434 0.1415
43.7000 14.5500 0.1440
43.7200 14.5567 0.1336
43.7400 14.5634 0.1422
43.7600 14.5701 0.1439
43.7800 14.5767 0.1288
43.8000 14.5833 0.1451
43.8200 14.5900 0.1425
43.8400 14.5967 0.1267
43.8600 14.6034 0.1494
43.8800 14.6101 0.1400
43.9000 14.6168 0.1233
43.9200 14.6235 0.1489
43.9400 14.6301 0.1388
43.9600 14.6367 0.1251
43.9800 14.6433 0.1441
44.0000 14.6500 0.1351
44.0200 14.6568 0.1299
44.0400 14.6635 0.1445
44.0600 14.6701 0.1344
44.0800 14.6768 0.1270
44.1000 14.6834 0.1429
44.1200 14.6900 0.1321
44.1400 14.6967 0.1332
44.1600 14.7033 0.1406
44.1800 14.7100 0.1321
44.2000 14.7167 0.1232
44.2200 14.7234 0.1408
44.2400 14.7301 0.1340
44.2600 14.7368 0.1266
44.2800 14.7435 0.1350
44.3000 14.7501 0.1285
44.3200 14.7567 0.1242
44.3400 14.7633 0.1379
44.3600 14.7700 0.1322
44.3800 14.7767 0.1246
44.4000 14.7834 0.1340
44.4200 14.7901 0.1304
44.4400 14.7967 0.1230
44.4600 14.8034 0.1330
44.4800 14.8100 0.1309
44.5000 14.8166 0.1250
44.5200 14.8233 0.1311
44.5400 14.8300 0.1281
44.5600 14.8368 0.1209
44.5800 14.8435 0.1294
44.6000 14.8501 0.1307
44.6200 14.8568 0.1233
44.6400 14.8635 0.1287
44.6600 14.8701 0.1291
44.6800 14.8767 0.1194
44.7000 14.8834 0.1274
44.7200 14.8901 0.1309
44.7400 14.8968 0.1171
44.7600 14.9035 0.1257
44.7800 14.9101 0.1274
44.8000 14.9168 0.1205
44.8200 14.9235 0.1264
44.8400 14.9301 0.1288
44.8600 14.9367 0.1139
44.8800 14.9433 0.1282
44.9000 14.9500 0.1304
44.9200 14.9567 0.1108
44.9400 14.9634 0.1224
44.9600 14.9700 0.1293
44.9800 14.9767 0.1106
45.0000 14.9834 0.1241
45.0200 14.9900 0.1192
45.0400 14.9966 0.1176
45.0600 15.0033 0.1275
45.0800 15.0100 0.1187
45.1000 15.0168 0.1146
45.1200 15.0234 0.1261
45.1400 15.0301 0.1231
45.1600 15.0368 0.1144
45.1800 15.0435 0.1174
45.2000 15.0501 0.1215
45.2200 15.0567 0.1165
45.2400 15.0634 0.1129
45.2600 15.0700 0.1244
45.2800 15.0767 0.1144
45.3000 15.0834 0.1098
45.3200 15.0901 0.1215
45.3400 15.0968 0.1113
45.3600 15.1035 0.1159
45.3800 15.1101 0.1245
45.4000 15.1167 0.1048
45.4200 15.1233 0.1112
45.4400 15.1300 0.1202
45.4600 15.1368 0.1067
45.4800 15.1435 0.1099
45.5000 15.1501 0.1255
45.5200 15.1568 0.0988
45.5400 15.1635 0.1111
45.5600 15.1701 0.1209
45.5800 15.1767 0.1084
45.6000 15.1833 0.1160
45.6200 15.1900 0.1160
45.6400 15.1968 0.0978
45.6600 15.2034 0.1132
45.6800 15.2101 0.1167
45.7000 15.2167 0.1077
45.7200 15.2234 0.1092
45.7400 15.2301 0.1122
45.7600 15.2367 0.1020
45.7800 15.2433 0.1049
45.8000 15.2500 0.1176
45.8200 15.2567 0.1071
45.8400 15.2634 0.0984
45.8600 15.2701 0.1121
45.8800 15.2768 0.1043
45.9000 15.2835 0.0997
45.9200 15.2901 0.1098
45.9400 15.2967 0.1049
45.9600 15.3033 0.0968
45.9800 15.3100 0.1089
46.0000 15.3167 0.1010
46.0200 15.3234 0.0981
46.0400 15.3301 0.1081
46.0600 15.3368 0.1016
46.0800 15.3435 0.1011
46.1000 15.3501 0.1016
46.1200 15.3567 0.0948
46.1400 15.3633 0.1055
46.1600 15.3701 0.1108
46.1800 15.3768 0.0921
46.2000 15.3835 0.1008
46.2200 15.3901 0.1009
46.2400 15.3968 0.0907
46.2600 15.4035 0.0984
46.2800 15.4101 0.1096
46.3000 15.4167 0.0991
46.3200 15.4233 0.0924
46.3400 15.4300 0.0964
46.3600 15.4367 0.0949
46.3800 15.4434 0.0986
46.4000 15.4501 0.1058
46.4200 15.4568 0.0893
46.4400 15.4635 0.0842
46.4600 15.4701 0.0992
46.4800 15.4767 0.0994
46.5000 15.4833 0.0962
46.5200 15.4899 0.1004
46.5400 15.4967 0.0842
46.5600 15.5034 0.0861
46.5800 15.5101 0.0988
46.6000 15.5167 0.0930
46.6200 15.5234 0.0956
46.6400 15.5301 0.0921
46.6600 15.5367 0.0844
46.6800 15.5433 0.0894
46.7000 15.5500 0.0962
46.7200 15.5567 0.0913
46.7400 15.5634 0.0879
46.7600 15.5701 0.0920
46.7800 15.5768 0.0888
46.8000 15.5835 0.0839
46.8200 15.5902 0.0926
46.8400 15.5967 0.0909
46.8600 15.6034 0.0912
46.8800 15.6100 0.0854
46.9000 15.6167 0.0894
46.9200 15.6235 0.0818
46.9400 15.6301 0.0932
46.9600 15.6368 0.0910
46.9800 15.6435 0.0822
47.0000 15.6501 0.0867
47.0200 15.6567 0.0877
47.0400 15.6633 0.0796
47.0600 15.6700 0.0894
47.0800 15.6767 0.0916
47.1000 15.6834 0.0820
47.1200 15.6901 0.0852
47.1400 15.6968 0.0832
47.1600 15.7034 0.0800
47.1800 15.7101 0.0896
47.2000 15.7167 0.0868
47.2200 15.7233 0.0803
47.2400 15.7300 0.0862
47.2600 15.7367 0.0825
47.2800 15.7434 0.0770
47.3000 15.7501 0.0891
47.3200 15.7567 0.0851
47.3400 15.7634 0.0757
47.3600 15.7701 0.0818
47.3800 15.7767 0.0778
47.4000 15.7833 0.0802
47.4200 15.7900 0.0838
47.4400 15.7967 0.0835
47.4600 15.8034 0.0715
47.4800 15.8101 0.0778
47.5000 15.8168 0.0772
47.5200 15.8235 0.0777
47.5400 15.8301 0.0762
47.5600 15.8367 0.0796
47.5800 15.8433 0.0758
47.6000 15.8500 0.0734
47.6200 15.8567 0.0819
47.6400 15.8635 0.0764
47.6600 15.8701 0.0734
47.6800 15.8768 0.0763
47.7000 15.8835 0.0687
47.7200 15.8901 0.0737
47.7400 15.8967 0.0763
47.7600 15.9033 0.0776
47.7800 15.9100 0.0672
47.8000 15.9167 0.0780
47.8200 15.9234 0.0723
47.8400 15.9301 0.0702
47.8600 15.9368 0.0839
47.8800 15.9434 0.0678
47.9000 15.9501 0.0649
47.9200 15.9567 0.0781
47.9400 15.9633 0.0682
47.9600 15.9700 0.0649
47.9800 15.9767 0.0781
48.0000 15.9834 0.0655
48.0200 15.9901 0.0635
48.0400 15.9968 0.0776
48.0600 16.0035 0.0629
48.0800 16.0101 0.0644
48.1000 16.0167 0.0794
48.1200 16.0233 0.0665
48.1400 16.0300 0.0649
48.1600 16.0368 0.0720
48.1800 16.0435 0.0627
48.2000 16.0501 0.0598
48.2200 16.0568 0.0764
48.2400 16.0635 0.0613
48.2600 16.0701 0.0589
48.2800 16.0768 0.0722
48.3000 16.0834 0.0613
48.3200 16.0900 0.0604
48.3400 16.0967 0.0729
48.3600 16.1034 0.0571
48.3800 16.1101 0.0583
48.4000 16.1168 0.0714
48.4200 16.1235 0.0572
48.4400 16.1301 0.0567
48.4600 16.1367 0.0689
48.4800 16.1433 0.0561
48.5000 16.1500 0.0581
48.5200 16.1567 0.0724
48.5400 16.1634 0.0547
48.5600 16.1701 0.0523
48.5800 16.1768 0.0702
48.6000 16.1835 0.0503
48.6200 16.1901 0.0563
48.6400 16.1967 0.0654
48.6600 16.2033 0.0493
48.6800 16.2100 0.0595
48.7000 16.2167 0.0615
48.7200 16.2234 0.0541
48.7400 16.2301 0.0549
48.7600 16.2367 0.0605
48.7800 16.2434 0.0512
48.8000 16.2501 0.0539
48.8200 16.2567 0.0570
48.8400 16.2633 0.0541
48.8600 16.2700 0.0528
48.8800 16.2767 0.0572
48.9000 16.2834 0.0521
48.9200 16.2901 0.0545
48.9400 16.2968 0.0591
48.9600 16.3035 0.0499
48.9800 16.3102 0.0450
49.0000 16.3168 0.0590
49.0200 16.3234 0.0545
49.0400 16.3300 0.0473
49.0600 16.3367 0.0524
49.0800 16.3434 0.0531
49.1000 16.3501 0.0404
49.1200 16.3568 0.0538
49.1400 16.3635 0.0537
49.1600 16.3701 0.0395
49.1800 16.3767 0.0510
49.2000 16.3833 0.0548
49.2200 16.3900 0.0408
49.2400 16.3967 0.0533
49.2600 16.4034 0.0498
49.2800 16.4100 0.0310
49.3000 16.4167 0.0557
49.3200 16.4234 0.0571
49.3400 16.4301 0.0297
49.3600 16.4367 0.0424
49.3800 16.4433 0.0511
49.4000 16.4499 0.0357
49.4200 16.4566 0.0521
49.4400 16.4634 0.0536
49.4600 16.4701 0.0262
49.4800 16.4768 0.0381
49.5000 16.4835 0.0602
49.5200 16.4902 0.0340
49.5400 16.4968 0.0342
49.5600 16.5034 0.0495
49.5800 16.5100 0.0354
49.6000 16.5167 0.0325
49.6200 16.5234 0.0421
49.6400 16.5301 0.0327
49.6600 16.5368 0.0457
49.6800 16.5435 0.0426
49.7000 16.5501 0.0183
49.7200 16.5567 0.0273
49.7400 16.5633 0.0444
49.7600 16.5700 0.0420
49.7800 16.5767 0.0354
49.8000 16.5834 0.0265
49.8200 16.5901 0.0272
49.8400 16.5968 0.0314
49.8600 16.6035 0.0352
49.8800 16.6101 0.0367
49.9000 16.6168 0.0313
49.9200 16.6234 0.0255
49.9400 16.6300 0.0271
49.9600 16.6367 0.0269
49.9800 16.6434 0.0394
50.0000 16.6501 0.0381
50.0200 16.6568 0.0141
50.0400 16.6635 0.0249
50.0600 16.6701 0.0289
50.0800 16.6768 0.0215
50.1000 16.6833 0.0374
50.1200 16.6900 0.0345
50.1400 16.6967 0.0150
50.1600 16.7034 0.0270
50.1800 16.7101 0.0201
50.2000 16.7168 0.0236
50.2200 16.7234 0.0394
50.2400 16.7301 0.0191
50.2600 16.7367 0.0126
50.2800 16.7434 0.0338
50.3000 16.7500 0.0140
50.3200 16.7567 0.0227
50.3400 16.7634 0.0339
50.3600 16.7701 0.0087
50.3800 16.7767 0.0217
50.4000 16.7834 0.0224
50.4200 16.7901 0.0103
50.4400 16.7968 0.0279
50.4600 16.8034 0.0218
50.4800 16.8100 0.0066
50.5000 16.8167 0.0212
50.5200 16.8234 0.0167
50.5400 16.8301 0.0113
50.5600 16.8368 0.0236
50.5800 16.8435 0.0120
50.6000 16.8502 0.0091
50.6200 16.8568 0.0159
50.6400 16.8634 0.0091
50.6600 16.8700 0.0199
50.6800 16.8767 0.0133
50.7000 16.8834 0.0057
50.7200 16.8901 0.0159
50.7400 16.8968 0.0097
50.7600 16.9034 0.0080
50.7800 16.9101 0.0166
50.8000 16.9167 0.0103
50.8200 16.9234 0.0105
50.8400 16.9300 0.0128
50.8600 16.9367 0.0063
50.8800 16.9434 0.0053
50.9000 16.9500 0.0194
50.9200 16.9567 -0.0007
50.9400 16.9634 0.0066
50.9600 16.9701 0.0188
50.9800 16.9767 -0.0040
51.0000 16.9833 0.0089
51.0200 16.9900 0.0123
51.0400 16.9966 -0.0001
51.0600 17.0034 0.0042
51.0800 17.0101 0.0101
51.1000 17.0168 0.0007
51.1200 17.0235 0.0090
51.1400 17.0302 0.0079
51.1600 17.0368 -0.0046
51.1800 17.0434 0.0126
51.2000 17.0500 0.0046
51.2200 17.0567 -0.0018
51.2400 17.0634 0.0049
51.2600 17.0701 -0.0028
51.2800 17.0768 -0.0011
51.3000 17.0834 0.0044
51.3200 17.0901 -0.0012
51.3400 17.0968 -0.0029
51.3600 17.1034 -0.0001
51.3800 17.1100 -0.0009
51.4000 17.1167 0.0004
51.4200 17.1234 0.0016
51.4400 17.1301 -0.0015
51.4600 17.1367 -0.0023
51.4800 17.1434 -0.0024
51.5000 17.1501 -0.0053
51.5200 17.1568 -0.0008
51.5400 17.1634 -0.0065
51.5600 17.1700 0.0006
51.5800 17.1766 0.0003
51.6000 17.1834 -0.0074
51.6200 17.1901 -0.0016
51.6400 17.1968 -0.0068
51.6600 17.2035 -0.0072
51.6800 17.2101 0.0031
51.7000 17.2168 -0.0128
51.7200 17.2233 -0.0084
51.7400 17.2300 -0.0033
51.7600 17.2367 -0.0069
51.7800 17.2434 -0.0090
51.8000 17.2501 -0.0028
51.8200 17.2567 -0.0130
51.8400 17.2634 -0.0104
51.8600 17.2701 -0.0015
51.8800 17.2768 -0.0165
51.9000 17.2834 -0.0070
51.9200 17.2900 -0.0037
51.9400 17.2967 -0.0217
51.9600 17.3034 -0.0173
51.9800 17.3101 -0.0016
52.0000 17.3168 -0.0216
52.0200 17.3235 -0.0172
52.0400 17.3302 0.0009
52.0600 17.3368 -0.0211
52.0800 17.3434 -0.0185
52.1000 17.3500 -0.0008
52.1200 17.3566 -0.0227
52.1400 17.3634 -0.0132
52.1600 17.3701 -0.0066
52.1800 17.3768 -0.0239
52.2000 17.3834 -0.0211
52.2200 17.3901 -0.0052
52.2400 17.3967 -0.0269
52.2600 17.4033 -0.0181
52.2800 17.4099 -0.0068
52.3000 17.4166 -0.0303
52.3200 17.4233 -0.0200
52.3400 17.4300 -0.0124
52.3600 17.4367 -0.0293
52.3800 17.4434 -0.0149
52.4000 17.4501 -0.0148
52.4200 17.4567 -0.0343
52.4400 17.4634 -0.0185
52.4600 17.4700 -0.0139
52.4800 17.4767 -0.0285
52.5000 17.4834 -0.0232
52.5200 17.4901 -0.0187
52.5400 17.4968 -0.0243
52.5600 17.5035 -0.0325
52.5800 17.5102 -0.0257
52.6000 17.5168 -0.0222
52.6200 17.5234 -0.0333
52.6400 17.5300 -0.0229
52.6600 17.5367 -0.0239
52.6800 17.5434 -0.0383
52.7000 17.5501 -0.0212
52.7200 17.5568 -0.0212
52.7400 17.5635 -0.0431
52.7600 17.5701 -0.0257
52.7800 17.5768 -0.0278
52.8000 17.5834 -0.0382
52.8200 17.5900 -0.0188
52.8400 17.5967 -0.0243
52.8600 17.6034 -0.0427
52.8800 17.6101 -0.0222
52.9000 17.6168 -0.0329
52.9200 17.6234 -0.0427
52.9400 17.6301 -0.0222
52.9600 17.6368 -0.0334
52.9800 17.6434 -0.0473
53.0000 17.6500 -0.0211
53.0200 17.6567 -0.0363
53.0400 17.6633 -0.0388
53.0600 17.6701 -0.0211
53.0800 17.6767 -0.0397
53.1000 17.6834 -0.0419
53.1200 17.6901 -0.0258
53.1400 17.6968 -0.0480
53.1600 17.7034 -0.0431
53.1800 17.7100 -0.0269
53.2000 17.7167 -0.0458
53.2200 17.7234 -0.0451
53.2400 17.7301 -0.0304
53.2600 17.7368 -0.0462
53.2800 17.7435 -0.0416
53.3000 17.7501 -0.0344
53.3200 17.7568 -0.0514
53.3400 17.7634 -0.0432
53.3600 17.7700 -0.0362
53.3800 17.7767 -0.0470
53.4000 17.7834 -0.0479
53.4200 17.7901 -0.0386
53.4400 17.7968 -0.0515
53.4600 17.8035 -0.0484
53.4800 17.8101 -0.0421
53.5000 17.8168 -0.0484
53.5200 17.8234 -0.0544
53.5400 17.8300 -0.0417
53.5600 17.8367 -0.0477
53.5800 17.8433 -0.0573
53.6000 17.8500 -0.0482
53.6200 17.8567 -0.0462
53.6400 17.8634 -0.0586
53.6600 17.8701 -0.0413
53.6800 17.8768 -0.0546
53.7000 17.8834 -0.0651
53.7200 17.8900 -0.0423
53.7400 17.8966 -0.0512
53.7600 17.9033 -0.0669
53.7800 17.9101 -0.0486
53.8000 17.9167 -0.0514
53.8200 17.9234 -0.0647
53.8400 17.9301 -0.0505
53.8600 17.9368 -0.0597
53.8800 17.9434 -0.0666
53.9000 17.9500 -0.0497
53.9200 17.9567 -0.0598
53.9400 17.9634 -0.0701
53.9600 17.9701 -0.0515
53.9800 17.9768 -0.0597
54.0000 17.9834 -0.0699
54.0200 17.9901 -0.0525
54.0400 17.9968 -0.0622
54.0600 18.0034 -0.0742
54.0800 18.0100 -0.0567
54.1000 18.0166 -0.0672
54.1200 18.0233 -0.0681
54.1400 18.0300 -0.0570
54.1600 18.0368 -0.0719
54.1800 18.0434 -0.0689
54.2000 18.0501 -0.0548
54.2200 18.0568 -0.0750
54.2400 18.0634 -0.0677
54.2600 18.0700 -0.0648
54.2800 18.0767 -0.0724
54.3000 18.0834 -0.0699
54.3200 18.0901 -0.0651
54.3400 18.0968 -0.0763
54.3600 18.1035 -0.0678
54.3800 18.1101 -0.0666
54.4000 18.1168 -0.0760
54.4200 18.1234 -0.0670
54.4400 18.1300 -0.0693
54.4600 18.1366 -0.0758
54.4800 18.1433 -0.0668
54.5000 18.1500 -0.0729
54.5200 18.1567 -0.0735
54.5400 18.1634 -0.0711
54.5600 18.1700 -0.0761
54.5800 18.1767 -0.0714
54.6000 18.1834 -0.0740
54.6200 18.1900 -0.0755
54.6400 18.1966 -0.0800
54.6600 18.2033 -0.0723
54.6800 18.2100 -0.0775
54.7000 18.2168 -0.0819
54.7200 18.2235 -0.0776
54.7400 18.2302 -0.0776
54.7600 18.2368 -0.0803
54.7800 18.2435 -0.0763
54.8000 18.2500 -0.0792
54.8200 18.2567 -0.0789
54.8400 18.2634 -0.0821
54.8600 18.2701 -0.0794
54.8800 18.2768 -0.0856
54.9000 18.2835 -0.0846
54.9200 18.2902 -0.0814
54.9400 18.2968 -0.0866
54.9600 18.3034 -0.0793
54.9800 18.3100 -0.0810
55.0000 18.3166 -0.0877
55.0200 18.3233 -0.0779
55.0400 18.3300 -0.0902
55.0600 18.3367 -0.0873
55.0800 18.3434 -0.0827
55.1000 18.3501 -0.0944
55.1200 18.3568 -0.0859
55.1400 18.3634 -0.0810
55.1600 18.3700 -0.0928
55.1800 18.3766 -0.0827
55.2000 18.3833 -0.0876
55.2200 18.3900 -0.1005
55.2400 18.3967 -0.0809
55.2600 18.4034 -0.0934
55.2800 18.4101 -0.1021
55.3000 18.4168 -0.0817
55.3200 18.4234 -0.0925
55.3400 18.4300 -0.1027
55.3600 18.4366 -0.0824
55.3800 18.4433 -0.0927
55.4000 18.4501 -0.1027
55.4200 18.4568 -0.0918
55.4400 18.4635 -0.0983
55.4600 18.4701 -0.1032
55.4800 18.4768 -0.0872
55.5000 18.4835 -0.1061
55.5200 18.4901 -0.1019
55.5400 18.4967 -0.0924
55.5600 18.5034 -0.0990
55.5800 18.5101 -0.1040
55.6000 18.5168 -0.1001
55.6200 18.5234 -0.1015
55.6400 18.5301 -0.1070
55.6600 18.5368 -0.0997
55.6800 18.5435 -0.1045
55.7000 18.5500 -0.1139
55.7200 18.5566 -0.0986
55.7400 18.5633 -0.1015
55.7600 18.5700 -0.1129
55.7800 18.5767 -0.1008
55.8000 18.5834 -0.1066
55.8200 18.5901 -0.1199
55.8400 18.5968 -0.1046
55.8600 18.6034 -0.1054
55.8800 18.6100 -0.1221
55.9000 18.6166 -0.1057
55.9200 18.6233 -0.1047
55.9400 18.6300 -0.1202
55.9600 18.6367 -0.1087
55.9800 18.6434 -0.1097
56.0000 18.6501 -0.1229
56.0200 18.6568 -0.1088
56.0400 18.6634 -0.1151
56.0600 18.6701 -0.1224
56.0800 18.6767 -0.1111
56.1000 18.6834 -0.1140
56.1200 18.6901 -0.1278
56.1400 18.6967 -0.1042
56.1600 18.7034 -0.1171
56.1800 18.7101 -0.1285
56.2000 18.7168 -0.1122
56.2200 18.7235 -0.1218
56.2400 18.7300 -0.1282
56.2600 18.7367 -0.1084
56.2800 18.7433 -0.1216
56.3000 18.7500 -0.1269
56.3200 18.7568 -0.1150
56.3400 18.7635 -0.1233
56.3600 18.7701 -0.1312
56.3800 18.7768 -0.1209
56.4000 18.7834 -0.1222
56.4200 18.7900 -0.1305
56.4400 18.7967 -0.1211
56.4600 18.8034 -0.1291
56.4800 18.8101 -0.1261
56.5000 18.8168 -0.1165
56.5200 18.8234 -0.1333
56.5400 18.8301 -0.1276
56.5600 18.8368 -0.1199
56.5800 18.8434 -0.1357
56.6000 18.8500 -0.1317
56.6200 18.8566 -0.1216
56.6400 18.8633 -0.1334
56.6600 18.8700 -0.1332
56.6800 18.8767 -0.1230
56.7000 18.8834 -0.1371
56.7200 18.8901 -0.1308
56.7400 18.8968 -0.1273
56.7600 18.9034 -0.1372
56.7800 18.9100 -0.1357
56.8000 18.9167 -0.1300
56.8200 18.9233 -0.1335
56.8400 18.9301 -0.1367
56.8600 18.9368 -0.1360
56.8800 18.9435 -0.1326
56.9000 18.9502 -0.1410
56.9200 18.9568 -0.1368
56.9400 18.9635 -0.1371
56.9600 18.9701 -0.1420
56.9800 18.9767 -0.1371
57.0000 18.9834 -0.1364
57.0200 18.9901 -0.1467
57.0400 18.9968 -0.1408
57.0600 19.0034 -0.1347
57.0800 19.0101 -0.1515
57.1000 19.0168 -0.1404
57.1200 19.0235 -0.1382
57.1400 19.0301 -0.1516
57.1600 19.0366 -0.1421
57.1800 19.0433 -0.1434
57.2000 19.0500 -0.1492
57.2200 19.0567 -0.1435
57.2400 19.0634 -0.1497
57.2600 19.0701 -0.1480
57.2800 19.0768 -0.1485
57.3000 19.0835 -0.1533
57.3200 19.0901 -0.1562
57.3400 19.0966 -0.1514
57.3600 19.1033 -0.1496
57.3800 19.1100 -0.1531
57.4000 19.1167 -0.1557
57.4200 19.1234 -0.1523
57.4400 19.1301 -0.1569
57.4600 19.1367 -0.1543
57.4800 19.1434 -0.1570
57.5000 19.1500 -0.1585
57.5200 19.1567 -0.1582
57.5400 19.1633 -0.1600
57.5600 19.1700 -0.1642
57.5800 19.1767 -0.1578
57.6000 19.1834 -0.1594
57.6200 19.1901 -0.1605
57.6400 19.1968 -0.1581
57.6600 19.2035 -0.1593
57.6800 19.2101 -0.1693
57.7000 19.2167 -0.1656
57.7200 19.2234 -0.1611
57.7400 19.2300 -0.1681
57.7600 19.2368 -0.1661
57.7800 19.2435 -0.1648
57.8000 19.2502 -0.1723
57.8200 19.2569 -0.1667
57.8400 19.2635 -0.1623
57.8600 19.2701 -0.1759
57.8800 19.2767 -0.1670
57.9000 19.2833 -0.1636
57.9200 19.2900 -0.1727
57.9400 19.2967 -0.1708
57.9600 19.3034 -0.1653
57.9800 19.3101 -0.1752
58.0000 19.3168 -0.1700
58.0200 19.3234 -0.1701
58.0400 19.3300 -0.1766
58.0600 19.3367 -0.1693
58.0800 19.3433 -0.1713
58.1000 19.3500 -0.1849
58.1200 19.3567 -0.1730
58.1400 19.3634 -0.1777
58.1600 19.3701 -0.1781
58.1800 19.3767 -0.1771
58.2000 19.3834 -0.1783
58.2200 19.3901 -0.1786
58.2400 19.3967 -0.1777
58.2600 19.4033 -0.1799
58.2800 19.4100 -0.1818
58.3000 19.4167 -0.1806
58.3200 19.4234 -0.1873
58.3400 19.4301 -0.1819
58.3600 19.4368 -0.1847
58.3800 19.4435 -0.1887
58.4000 19.4501 -0.1797
58.4200 19.4567 -0.1841
58.4400 19.4633 -0.1880
58.4600 19.4700 -0.1846
58.4800 19.4767 -0.1876
58.5000 19.4835 -0.1906
58.5200 19.4901 -0.1866
58.5400 19.4968 -0.1919
58.5600 19.5035 -0.1957
58.5800 19.5101 -0.1837
58.6000 19.5167 -0.1931
58.6200 19.5233 -0.1937
58.6400 19.5300 -0.1883
58.6600 19.5367 -0.2026
58.6800 19.5434 -0.1998
58.7000 19.5501 -0.1901
58.7200 19.5568 -0.2057
58.7400 19.5634 -0.1994
58.7600 19.5701 -0.1933
58.7800 19.5766 -0.2024
58.8000 19.5833 -0.1951
58.8200 19.5899 -0.1953
58.8400 19.5967 -0.2086
58.8600 19.6034 -0.1983
58.8800 19.6101 -0.1991
58.9000 19.6168 -0.2122
58.9200 19.6234 -0.1998
58.9400 19.6300 -0.2009
58.9600 19.6367 -0.2146
58.9800 19.6433 -0.2043
59.0000 19.6500 -0.2046
59.0200 19.6568 -0.2076
59.0400 19.6635 -0.2112
59.0600 19.6701 -0.2125
59.0800 19.6768 -0.2106
59.1000 19.6835 -0.2105
59.1200 19.6901 -0.2149
59.1400 19.6967 -0.2144
59.1600 19.7034 -0.2121
59.1800 19.7101 -0.2150
59.2000 19.7168 -0.2142
59.2200 19.7235 -0.2197
59.2400 19.7301 -0.2129
59.2600 19.7368 -0.2183
59.2800 19.7435 -0.2232
59.3000 19.7500 -0.2278
