Raw Data
Time Displacement Force
(s) (mm) (N)
0.0000 0.0000 0.3005
0.0200 0.0000 0.3078
0.0400 0.0008 0.3584
0.0600 0.0040 0.4511
0.0800 0.0094 0.4322
0.1000 0.0152 0.4431
0.1200 0.0211 0.5105
0.1400 0.0277 0.5420
0.1600 0.0350 0.5817
0.1800 0.0425 0.6455
0.2000 0.0496 0.6842
0.2200 0.0565 0.7360
0.2400 0.0632 0.7982
0.2600 0.0699 0.8344
0.2800 0.0765 0.8822
0.3000 0.0832 0.9305
0.3200 0.0900 0.9559
0.3400 0.0967 1.0166
0.3600 0.1034 1.0650
0.3800 0.1100 1.0869
0.4000 0.1167 1.1448
0.4200 0.1233 1.1881
0.4400 0.1300 1.2056
0.4600 0.1367 1.2532
0.4800 0.1434 1.3003
0.5000 0.1501 1.3245
0.5200 0.1568 1.3721
0.5400 0.1634 1.4212
0.5600 0.1700 1.4545
0.5800 0.1766 1.5124
0.6000 0.1833 1.5491
0.6200 0.1900 1.5867
0.6400 0.1967 1.6434
0.6600 0.2034 1.6883
0.6800 0.2101 1.7310
0.7000 0.2168 1.7882
0.7200 0.2234 1.8217
0.7400 0.2300 1.8360
0.7600 0.2366 1.8553
0.7800 0.2433 1.8491
0.8000 0.2500 1.8421
0.8200 0.2567 1.8621
0.8400 0.2634 1.8504
0.8600 0.2700 1.8443
0.8800 0.2767 1.8647
0.9000 0.2834 1.8565
0.9200 0.2900 1.8548
0.9400 0.2966 1.8605
0.9600 0.3032 1.8608
0.9800 0.3100 1.8569
1.0000 0.3167 1.8732
1.0200 0.3233 1.8678
1.0400 0.3300 1.8595
1.0600 0.3367 1.8744
1.0800 0.3433 1.8715
1.1000 0.3499 1.8658
1.1200 0.3566 1.8814
1.1400 0.3633 1.8725
1.1600 0.3700 1.8712
1.1800 0.3767 1.8819
1.2000 0.3834 1.8825
1.2200 0.3901 1.8738
1.2400 0.3968 1.8882
1.2600 0.4034 1.8801
1.2800 0.4100 1.8772
1.3000 0.4167 1.8888
1.3200 0.4233 1.8874
1.3400 0.4300 1.8804
1.3600 0.4367 1.8857
1.3800 0.4434 1.8876
1.4000 0.4501 1.8815
1.4200 0.4568 1.8870
1.4400 0.4634 1.8841
1.4600 0.4700 1.8769
1.4800 0.4766 1.8904
1.5000 0.4832 1.8822
1.5200 0.4900 1.8748
1.5400 0.4967 1.8857
1.5600 0.5034 1.8823
1.5800 0.5100 1.8746
1.6000 0.5167 1.8810
1.6200 0.5234 1.8853
1.6400 0.5300 1.8666
1.6600 0.5366 1.8788
1.6800 0.5433 1.8738
1.7000 0.5500 1.8664
1.7200 0.5567 1.8714
1.7400 0.5634 1.8721
1.7600 0.5700 1.8548
1.7800 0.5767 1.8703
1.8000 0.5834 1.8681
1.8200 0.5900 1.8499
1.8400 0.5967 1.8642
1.8600 0.6033 1.8659
1.8800 0.6100 1.8458
1.9000 0.6167 1.8583
1.9200 0.6234 1.8588
1.9400 0.6301 1.8459
1.9600 0.6368 1.8539
1.9800 0.6434 1.8526
2.0000 0.6500 1.8424
2.0200 0.6566 1.8526
2.0400 0.6633 1.8498
2.0600 0.6700 1.8397
2.0800 0.6767 1.8457
2.1000 0.6834 1.8433
2.1200 0.6901 1.8336
2.1400 0.6967 1.8412
2.1600 0.7034 1.8423
2.1800 0.7100 1.8345
2.2000 0.7166 1.8363
2.2200 0.7233 1.8335
2.2400 0.7300 1.8318
2.2600 0.7367 1.8292
2.2800 0.7434 1.8352
2.3000 0.7500 1.8330
2.3200 0.7567 1.8290
2.3400 0.7634 1.8301
2.3600 0.7700 1.8250
2.3800 0.7766 1.8248
2.4000 0.7833 1.8399
2.4200 0.7900 1.8207
2.4400 0.7967 1.8184
2.4600 0.8034 1.8296
2.4800 0.8101 1.8233
2.5000 0.8168 1.8187
2.5200 0.8234 1.8281
2.5400 0.8300 1.8184
2.5600 0.8366 1.8249
2.5800 0.8433 1.8270
2.6000 0.8500 1.8086
2.6200 0.8567 1.8219
2.6400 0.8634 1.8233
2.6600 0.8701 1.8055
2.6800 0.8768 1.8182
2.7000 0.8834 1.8206
2.7200 0.8900 1.8073
2.7400 0.8966 1.8192
2.7600 0.9033 1.8106
2.7800 0.9100 1.8108
2.8000 0.9167 1.8182
2.8200 0.9234 1.8057
2.8400 0.9301 1.8076
2.8600 0.9368 1.8141
2.8800 0.9434 1.8022
2.9000 0.9500 1.8090
2.9200 0.9566 1.8081
2.9400 0.9633 1.8022
2.9600 0.9699 1.8059
2.9800 0.9767 1.8035
3.0000 0.9834 1.8009
3.0200 0.9901 1.8032
3.0400 0.9968 1.7965
3.0600 1.0034 1.8000
3.0800 1.0100 1.7991
3.1000 1.0166 1.7983
3.1200 1.0232 1.8004
3.1400 1.0299 1.7965
3.1600 1.0367 1.7861
3.1800 1.0433 1.7954
3.2000 1.0500 1.7966
3.2200 1.0567 1.7894
3.2400 1.0634 1.7905
3.2600 1.0700 1.7884
3.2800 1.0766 1.7872
3.3000 1.0833 1.7879
3.3200 1.0900 1.7872
3.3400 1.0967 1.7805
3.3600 1.1034 1.7901
3.3800 1.1101 1.7832
3.4000 1.1168 1.7779
3.4200 1.1235 1.7805
3.4400 1.1301 1.7814
3.4600 1.1367 1.7749
3.4800 1.1433 1.7832
3.5000 1.1500 1.7742
3.5200 1.1567 1.7748
3.5400 1.1634 1.7774
3.5600 1.1701 1.7715
3.5800 1.1768 1.7714
3.6000 1.1834 1.7826
3.6200 1.1900 1.7700
3.6400 1.1966 1.7681
3.6600 1.2033 1.7832
3.6800 1.2100 1.7694
3.7000 1.2167 1.7617
3.7200 1.2234 1.7758
3.7400 1.2300 1.7645
3.7600 1.2367 1.7674
3.7800 1.2434 1.7764
3.8000 1.2500 1.7606
3.8200 1.2566 1.7654
3.8400 1.2633 1.7765
3.8600 1.2700 1.7569
3.8800 1.2767 1.7626
3.9000 1.2834 1.7753
3.9200 1.2900 1.7565
3.9400 1.2967 1.7641
3.9600 1.3034 1.7707
3.9800 1.3100 1.7581
4.0000 1.3166 1.7613
4.0200 1.3233 1.7641
4.0400 1.3300 1.7615
4.0600 1.3367 1.7648
4.0800 1.3434 1.7554
4.1000 1.3501 1.7589
4.1200 1.3568 1.7696
4.1400 1.3634 1.7636
4.1600 1.3700 1.7530
4.1800 1.3766 1.7630
4.2000 1.3833 1.7641
4.2200 1.3900 1.7592
4.2400 1.3967 1.7618
4.2600 1.4034 1.7597
4.2800 1.4101 1.7557
4.3000 1.4168 1.7613
4.3200 1.4234 1.7550
4.3400 1.4300 1.7610
4.3600 1.4366 1.7678
4.3800 1.4433 1.7522
4.4000 1.4500 1.7497
4.4200 1.4567 1.7655
4.4400 1.4634 1.7557
4.4600 1.4700 1.7544
4.4800 1.4767 1.7591
4.5000 1.4834 1.7517
4.5200 1.4900 1.7539
4.5400 1.4966 1.7531
4.5600 1.5032 1.7490
4.5800 1.5099 1.7641
4.6000 1.5166 1.7579
4.6200 1.5234 1.7399
4.6400 1.5300 1.7601
4.6600 1.5367 1.7545
4.6800 1.5434 1.7446
4.7000 1.5500 1.7610
4.7200 1.5566 1.7426
4.7400 1.5633 1.7419
4.7600 1.5700 1.7635
4.7800 1.5767 1.7344
4.8000 1.5834 1.7405
4.8200 1.5901 1.7586
4.8400 1.5968 1.7345
4.8600 1.6034 1.7357
4.8800 1.6101 1.7578
4.9000 1.6167 1.7337
4.9200 1.6233 1.7399
4.9400 1.6300 1.7521
4.9600 1.6367 1.7277
4.9800 1.6434 1.7356
5.0000 1.6501 1.7508
5.0200 1.6568 1.7294
5.0400 1.6634 1.7363
5.0600 1.6701 1.7412
5.0800 1.6766 1.7275
5.1000 1.6833 1.7375
5.1200 1.6899 1.7407
5.1400 1.6967 1.7301
5.1600 1.7034 1.7293
5.1800 1.7100 1.7356
5.2000 1.7167 1.7264
5.2200 1.7234 1.7244
5.2400 1.7300 1.7310
5.2600 1.7366 1.7294
5.2800 1.7433 1.7189
5.3000 1.7499 1.7302
5.3200 1.7567 1.7216
5.3400 1.7633 1.7181
5.3600 1.7700 1.7319
5.3800 1.7767 1.7228
5.4000 1.7833 1.7061
5.4200 1.7900 1.7255
5.4400 1.7966 1.7263
5.4600 1.8033 1.7082
5.4800 1.8100 1.7258
5.5000 1.8167 1.7133
5.5200 1.8234 1.6984
5.5400 1.8301 1.7290
5.5600 1.8368 1.7094
5.5800 1.8435 1.7022
5.6000 1.8501 1.7220
5.6200 1.8567 1.7082
5.6400 1.8633 1.7056
5.6600 1.8700 1.7203
5.6800 1.8767 1.7022
5.7000 1.8834 1.6979
5.7200 1.8901 1.7183
5.7400 1.8968 1.6980
5.7600 1.9034 1.7000
5.7800 1.9100 1.7096
5.8000 1.9166 1.6982
5.8200 1.9233 1.7020
5.8400 1.9300 1.7044
5.8600 1.9367 1.6950
5.8800 1.9434 1.6982
5.9000 1.9500 1.7024
5.9200 1.9567 1.6923
5.9400 1.9634 1.6890
5.9600 1.9700 1.7027
5.9800 1.9766 1.6923
6.0000 1.9833 1.6906
6.0200 1.9899 1.6945
6.0400 1.9966 1.6932
6.0600 2.0034 1.6885
6.0800 2.0100 1.6922
6.1000 2.0167 1.6959
6.1200 2.0234 1.6839
6.1400 2.0301 1.6838
6.1600 2.0367 1.6937
6.1800 2.0433 1.6824
6.2000 2.0499 1.6899
6.2200 2.0567 1.6952
6.2400 2.0634 1.6791
6.2600 2.0701 1.6809
6.2800 2.0768 1.6928
6.3000 2.0834 1.6805
6.3200 2.0901 1.6807
6.3400 2.0967 1.6893
6.3600 2.1033 1.6707
6.3800 2.1100 1.6818
6.4000 2.1167 1.6855
6.4200 2.1234 1.6697
6.4400 2.1301 1.6803
6.4600 2.1367 1.6906
6.4800 2.1434 1.6661
6.5000 2.1501 1.6780
6.5200 2.1567 1.6821
6.5400 2.1633 1.6687
6.5600 2.1700 1.6862
6.5800 2.1767 1.6782
6.6000 2.1834 1.6576
6.6200 2.1900 1.6860
6.6400 2.1967 1.6784
6.6600 2.2034 1.6579
6.6800 2.2101 1.6838
6.7000 2.2167 1.6754
6.7200 2.2233 1.6581
6.7400 2.2299 1.6861
6.7600 2.2366 1.6708
6.7800 2.2434 1.6583
6.8000 2.2501 1.6811
6.8200 2.2567 1.6648
6.8400 2.2634 1.6560
6.8600 2.2700 1.6797
6.8800 2.2767 1.6669
6.9000 2.2833 1.6599
6.9200 2.2900 1.6773
6.9400 2.2967 1.6617
6.9600 2.3034 1.6592
6.9800 2.3100 1.6695
7.0000 2.3167 1.6658
7.0200 2.3234 1.6593
7.0400 2.3301 1.6653
7.0600 2.3367 1.6613
7.0800 2.3433 1.6590
7.1000 2.3500 1.6616
7.1200 2.3567 1.6667
7.1400 2.3634 1.6489
7.1600 2.3700 1.6589
7.1800 2.3767 1.6616
7.2000 2.3834 1.6541
7.2200 2.3901 1.6547
7.2400 2.3967 1.6643
7.2600 2.4033 1.6504
7.2800 2.4100 1.6556
7.3000 2.4167 1.6633
7.3200 2.4234 1.6464
7.3400 2.4301 1.6540
7.3600 2.4367 1.6578
7.3800 2.4434 1.6465
7.4000 2.4501 1.6497
7.4200 2.4567 1.6535
7.4400 2.4633 1.6495
7.4600 2.4700 1.6501
7.4800 2.4767 1.6487
7.5000 2.4834 1.6455
7.5200 2.4900 1.6437
7.5400 2.4967 1.6513
7.5600 2.5034 1.6408
7.5800 2.5100 1.6423
7.6000 2.5167 1.6496
7.6200 2.5233 1.6417
7.6400 2.5300 1.6399
7.6600 2.5367 1.6489
7.6800 2.5434 1.6348
7.7000 2.5501 1.6377
7.7200 2.5568 1.6467
7.7400 2.5635 1.6369
7.7600 2.5701 1.6299
7.7800 2.5767 1.6484
7.8000 2.5833 1.6307
7.8200 2.5900 1.6279
7.8400 2.5967 1.6493
7.8600 2.6034 1.6273
7.8800 2.6101 1.6277
7.9000 2.6168 1.6429
7.9200 2.6234 1.6199
7.9400 2.6301 1.6292
7.9600 2.6367 1.6417
7.9800 2.6433 1.6219
8.0000 2.6500 1.6277
8.0200 2.6567 1.6390
8.0400 2.6634 1.6194
8.0600 2.6700 1.6273
8.0800 2.6767 1.6365
8.1000 2.6834 1.6155
8.1200 2.6901 1.6255
8.1400 2.6967 1.6232
8.1600 2.7033 1.6201
8.1800 2.7099 1.6304
8.2000 2.7166 1.6260
8.2200 2.7233 1.6103
8.2400 2.7300 1.6248
8.2600 2.7367 1.6224
8.2800 2.7434 1.6126
8.3000 2.7501 1.6174
8.3200 2.7567 1.6210
8.3400 2.7633 1.6122
8.3600 2.7700 1.6139
8.3800 2.7767 1.6183
8.4000 2.7834 1.6158
8.4200 2.7900 1.6089
8.4400 2.7967 1.6207
8.4600 2.8034 1.6088
8.4800 2.8101 1.6068
8.5000 2.8167 1.6176
8.5200 2.8233 1.6084
8.5400 2.8300 1.6060
8.5600 2.8367 1.6133
8.5800 2.8434 1.6113
8.6000 2.8501 1.6052
8.6200 2.8567 1.6139
8.6400 2.8634 1.6091
8.6600 2.8701 1.5975
8.6800 2.8767 1.6087
8.7000 2.8834 1.6065
8.7200 2.8900 1.6009
8.7400 2.8967 1.6061
8.7600 2.9034 1.6012
8.7800 2.9100 1.5957
8.8000 2.9167 1.5993
8.8200 2.9234 1.6056
8.8400 2.9301 1.5941
8.8600 2.9367 1.6011
8.8800 2.9433 1.5963
8.9000 2.9499 1.5981
8.9200 2.9566 1.5976
8.9400 2.9633 1.5948
8.9600 2.9700 1.5894
8.9800 2.9767 1.6000
9.0000 2.9834 1.5931
9.0200 2.9900 1.5862
9.0400 2.9967 1.5933
9.0600 3.0033 1.5966
9.0800 3.0100 1.5862
9.1000 3.0167 1.5909
9.1200 3.0234 1.5887
9.1400 3.0301 1.5837
9.1600 3.0367 1.5927
9.1800 3.0434 1.5877
9.2000 3.0501 1.5812
9.2200 3.0567 1.5894
9.2400 3.0633 1.5875
9.2600 3.0700 1.5810
9.2800 3.0767 1.5871
9.3000 3.0834 1.5849
9.3200 3.0901 1.5752
9.3400 3.0967 1.5843
9.3600 3.1034 1.5872
9.3800 3.1101 1.5732
9.4000 3.1167 1.5840
9.4200 3.1233 1.5812
9.4400 3.1299 1.5762
9.4600 3.1366 1.5857
9.4800 3.1434 1.5837
9.5000 3.1501 1.5658
9.5200 3.1567 1.5841
9.5400 3.1634 1.5826
9.5600 3.1701 1.5718
9.5800 3.1767 1.5782
9.6000 3.1833 1.5791
9.6200 3.1900 1.5716
9.6400 3.1966 1.5811
9.6600 3.2033 1.5769
9.6800 3.2100 1.5682
9.7000 3.2167 1.5770
9.7200 3.2234 1.5736
9.7400 3.2300 1.5667
9.7600 3.2367 1.5771
9.7800 3.2433 1.5759
9.8000 3.2499 1.5659
9.8200 3.2566 1.5767
9.8400 3.2634 1.5677
9.8600 3.2701 1.5652
9.8800 3.2768 1.5712
9.9000 3.2834 1.5665
9.9200 3.2901 1.5671
9.9400 3.2967 1.5764
9.9600 3.3033 1.5634
9.9800 3.3100 1.5641
10.0000 3.3167 1.5684
10.0200 3.3234 1.5686
10.0400 3.3301 1.5625
10.0600 3.3368 1.5625
10.0800 3.3434 1.5648
10.1000 3.3501 1.5594
10.1200 3.3567 1.5591
10.1400 3.3633 1.5685
10.1600 3.3700 1.5596
10.1800 3.3766 1.5597
10.2000 3.3833 1.5621
10.2200 3.3900 1.5589
10.2400 3.3966 1.5585
10.2600 3.4033 1.5657
10.2800 3.4101 1.5529
10.3000 3.4167 1.5520
10.3200 3.4233 1.5650
10.3400 3.4299 1.5572
10.3600 3.4366 1.5484
10.3800 3.4433 1.5562
10.4000 3.4500 1.5562
10.4200 3.4567 1.5505
10.4400 3.4634 1.5573
10.4600 3.4701 1.5518
10.4800 3.4767 1.5464
10.5000 3.4833 1.5523
10.5200 3.4900 1.5564
10.5400 3.4967 1.5465
10.5600 3.5034 1.5508
10.5800 3.5100 1.5445
10.6000 3.5167 1.5417
10.6200 3.5234 1.5501
10.6400 3.5301 1.5498
10.6600 3.5368 1.5366
10.6800 3.5434 1.5438
10.7000 3.5500 1.5451
10.7200 3.5566 1.5419
10.7400 3.5633 1.5467
10.7600 3.5700 1.5442
10.7800 3.5767 1.5329
10.8000 3.5834 1.5434
10.8200 3.5901 1.5384
10.8400 3.5968 1.5318
10.8600 3.6034 1.5431
10.8800 3.6100 1.5389
10.9000 3.6166 1.5286
10.9200 3.6234 1.5393
10.9400 3.6301 1.5451
10.9600 3.6367 1.5243
10.9800 3.6434 1.5359
11.0000 3.6501 1.5371
11.0200 3.6567 1.5247
11.0400 3.6633 1.5358
11.0600 3.6699 1.5359
11.0800 3.6766 1.5220
11.1000 3.6833 1.5348
11.1200 3.6900 1.5308
11.1400 3.6967 1.5188
11.1600 3.7034 1.5305
11.1800 3.7101 1.5315
11.2000 3.7167 1.5089
11.2200 3.7233 1.5380
11.2400 3.7300 1.5276
11.2600 3.7366 1.5149
11.2800 3.7433 1.5300
11.3000 3.7501 1.5210
11.3200 3.7568 1.5136
11.3400 3.7635 1.5361
11.3600 3.7702 1.5194
11.3800 3.7768 1.5057
11.4000 3.7834 1.5283
11.4200 3.7900 1.5224
11.4400 3.7966 1.5128
11.4600 3.8034 1.5257
11.4800 3.8101 1.5103
11.5000 3.8168 1.5151
11.5200 3.8234 1.5238
11.5400 3.8301 1.5151
11.5600 3.8368 1.5180
11.5800 3.8434 1.5108
11.6000 3.8500 1.5130
11.6200 3.8566 1.5168
11.6400 3.8633 1.5158
11.6600 3.8700 1.5163
11.6800 3.8767 1.5141
11.7000 3.8834 1.5033
11.7200 3.8901 1.5170
11.7400 3.8967 1.5145
11.7600 3.9033 1.5070
11.7800 3.9099 1.5133
11.8000 3.9166 1.5061
11.8200 3.9233 1.5067
11.8400 3.9300 1.5195
11.8600 3.9366 1.5024
11.8800 3.9433 1.5039
11.9000 3.9500 1.5153
11.9200 3.9567 1.4951
11.9400 3.9633 1.5014
11.9600 3.9700 1.5247
11.9800 3.9766 1.4931
12.0000 3.9834 1.4988
12.0200 3.9901 1.5169
12.0400 3.9967 1.4907
12.0600 4.0034 1.5008
12.0800 4.0101 1.5165
12.1000 4.0168 1.4851
12.1200 4.0234 1.4997
12.1400 4.0300 1.5146
12.1600 4.0367 1.4860
12.1800 4.0434 1.4999
12.2000 4.0500 1.5084
12.2200 4.0567 1.4872
12.2400 4.0634 1.4957
12.2600 4.0701 1.5068
12.2800 4.0768 1.4811
12.3000 4.0834 1.4938
12.3200 4.0900 1.5020
12.3400 4.0966 1.4883
12.3600 4.1033 1.4934
12.3800 4.1100 1.4932
12.4000 4.1167 1.4861
12.4200 4.1234 1.4955
12.4400 4.1301 1.4927
12.4600 4.1367 1.4854
12.4800 4.1433 1.4867
12.5000 4.1499 1.4934
12.5200 4.1566 1.4917
12.5400 4.1633 1.4832
12.5600 4.1700 1.4883
12.5800 4.1767 1.4898
12.6000 4.1834 1.4761
12.6200 4.1901 1.4897
12.6400 4.1967 1.4882
12.6600 4.2033 1.4754
12.6800 4.2099 1.4885
12.7000 4.2166 1.4869
12.7200 4.2233 1.4746
12.7400 4.2301 1.4850
12.7600 4.2367 1.4833
12.7800 4.2434 1.4705
12.8000 4.2501 1.4893
12.8200 4.2568 1.4799
12.8400 4.2634 1.4699
12.8600 4.2700 1.4865
12.8800 4.2766 1.4737
12.9000 4.2833 1.4696
12.9200 4.2901 1.4832
12.9400 4.2968 1.4705
12.9600 4.3034 1.4694
12.9800 4.3101 1.4777
13.0000 4.3168 1.4699
13.0200 4.3234 1.4723
13.0400 4.3300 1.4768
13.0600 4.3366 1.4637
13.0800 4.3433 1.4724
13.1000 4.3501 1.4759
13.1200 4.3567 1.4672
13.1400 4.3634 1.4628
13.1600 4.3701 1.4685
13.1800 4.3767 1.4660
13.2000 4.3834 1.4657
13.2200 4.3900 1.4679
13.2400 4.3966 1.4665
13.2600 4.4033 1.4614
13.2800 4.4100 1.4629
13.3000 4.4167 1.4661
13.3200 4.4234 1.4613
13.3400 4.4301 1.4614
13.3600 4.4368 1.4605
13.3800 4.4434 1.4541
13.4000 4.4500 1.4638
13.4200 4.4566 1.4630
13.4400 4.4633 1.4477
13.4600 4.4700 1.4610
13.4800 4.4767 1.4647
13.5000 4.4834 1.4488
13.5200 4.4901 1.4547
13.5400 4.4968 1.4589
13.5600 4.5034 1.4449
13.5800 4.5100 1.4604
13.6000 4.5167 1.4612
13.6200 4.5234 1.4434
13.6400 4.5301 1.4569
13.6600 4.5367 1.4537
13.6800 4.5434 1.4419
13.7000 4.5501 1.4643
13.7200 4.5567 1.4454
13.7400 4.5634 1.4393
13.7600 4.5700 1.4580
13.7800 4.5766 1.4516
13.8000 4.5833 1.4498
13.8200 4.5900 1.4531
13.8400 4.5967 1.4400
13.8600 4.6034 1.4456
13.8800 4.6101 1.4526
13.9000 4.6168 1.4454
13.9200 4.6234 1.4409
13.9400 4.6300 1.4468
13.9600 4.6366 1.4389
13.9800 4.6433 1.4456
14.0000 4.6500 1.4432
14.0200 4.6567 1.4394
14.0400 4.6634 1.4413
14.0600 4.6701 1.4397
14.0800 4.6767 1.4424
14.1000 4.6834 1.4406
14.1200 4.6900 1.4409
14.1400 4.6966 1.4384
14.1600 4.7033 1.4326
14.1800 4.7100 1.4346
14.2000 4.7167 1.4420
14.2200 4.7234 1.4340
14.2400 4.7300 1.4289
14.2600 4.7367 1.4444
14.2800 4.7433 1.4341
14.3000 4.7499 1.4254
14.3200 4.7566 1.4490
14.3400 4.7633 1.4282
14.3600 4.7701 1.4284
14.3800 4.7768 1.4429
14.4000 4.7835 1.4250
14.4200 4.7902 1.4287
14.4400 4.7968 1.4354
14.4600 4.8034 1.4178
14.4800 4.8100 1.4293
14.5000 4.8166 1.4385
14.5200 4.8233 1.4182
14.5400 4.8300 1.4263
14.5600 4.8367 1.4371
14.5800 4.8434 1.4185
14.6000 4.8501 1.4242
14.6200 4.8567 1.4326
14.6400 4.8634 1.4155
14.6600 4.8700 1.4270
14.6800 4.8766 1.4259
14.7000 4.8833 1.4164
14.7200 4.8900 1.4262
14.7400 4.8967 1.4234
14.7600 4.9033 1.4137
14.7800 4.9100 1.4236
14.8000 4.9167 1.4209
14.8200 4.9234 1.4163
14.8400 4.9300 1.4175
14.8600 4.9366 1.4163
14.8800 4.9433 1.4165
14.9000 4.9500 1.4177
14.9200 4.9567 1.4110
14.9400 4.9634 1.4179
14.9600 4.9701 1.4122
14.9800 4.9768 1.4063
15.0000 4.9834 1.4143
15.0200 4.9900 1.4110
15.0400 4.9966 1.4086
15.0600 5.0033 1.4134
15.0800 5.0100 1.4047
15.1000 5.0167 1.4097
15.1200 5.0234 1.4121
15.1400 5.0301 1.4056
15.1600 5.0368 1.4079
15.1800 5.0434 1.4109
15.2000 5.0500 1.4052
15.2200 5.0567 1.4075
15.2400 5.0633 1.4107
15.2600 5.0700 1.3995
15.2800 5.0767 1.4096
15.3000 5.0834 1.4024
15.3200 5.0901 1.3984
15.3400 5.0967 1.4029
15.3600 5.1034 1.4048
15.3800 5.1100 1.3945
15.4000 5.1166 1.4021
15.4200 5.1233 1.4026
15.4400 5.1300 1.3956
15.4600 5.1367 1.4024
15.4800 5.1433 1.4000
15.5000 5.1500 1.3926
15.5200 5.1567 1.4042
15.5400 5.1633 1.3913
15.5600 5.1700 1.3952
15.5800 5.1766 1.4022
15.6000 5.1833 1.3935
15.6200 5.1900 1.3867
15.6400 5.1967 1.3946
15.6600 5.2034 1.3966
15.6800 5.2101 1.3911
15.7000 5.2168 1.3886
15.7200 5.2234 1.3920
15.7400 5.2301 1.3912
15.7600 5.2367 1.3916
15.7800 5.2434 1.3870
15.8000 5.2501 1.3865
15.8200 5.2568 1.3886
15.8400 5.2634 1.3892
15.8600 5.2701 1.3848
15.8800 5.2767 1.3827
15.9000 5.2834 1.3872
15.9200 5.2900 1.3785
15.9400 5.2966 1.3856
15.9600 5.3033 1.3824
15.9800 5.3100 1.3764
16.0000 5.3167 1.3791
16.0200 5.3234 1.3817
16.0400 5.3301 1.3775
16.0600 5.3367 1.3823
16.0800 5.3434 1.3787
16.1000 5.3500 1.3714
16.1200 5.3566 1.3774
16.1400 5.3633 1.3826
16.1600 5.3700 1.3665
16.1800 5.3767 1.3772
16.2000 5.3834 1.3788
16.2200 5.3900 1.3644
16.2400 5.3967 1.3738
16.2600 5.4034 1.3770
16.2800 5.4100 1.3644
16.3000 5.4167 1.3760
16.3200 5.4233 1.3807
16.3400 5.4300 1.3548
16.3600 5.4367 1.3739
16.3800 5.4434 1.3788
16.4000 5.4501 1.3548
16.4200 5.4568 1.3778
16.4400 5.4635 1.3724
16.4600 5.4700 1.3498
16.4800 5.4766 1.3780
16.5000 5.4833 1.3688
16.5200 5.4900 1.3563
16.5400 5.4967 1.3786
16.5600 5.5034 1.3649
16.5800 5.5101 1.3455
16.6000 5.5168 1.3748
16.6200 5.5234 1.3636
16.6400 5.5300 1.3546
16.6600 5.5366 1.3738
16.6800 5.5432 1.3569
16.7000 5.5499 1.3538
16.7200 5.5566 1.3719
16.7400 5.5633 1.3581
16.7600 5.5700 1.3551
16.7800 5.5768 1.3642
16.8000 5.5834 1.3602
16.8200 5.5901 1.3487
16.8400 5.5967 1.3612
16.8600 5.6033 1.3603
16.8800 5.6100 1.3561
16.9000 5.6167 1.3565
16.9200 5.6234 1.3578
16.9400 5.6300 1.3574
16.9600 5.6368 1.3508
16.9800 5.6434 1.3536
17.0000 5.6501 1.3529
17.0200 5.6566 1.3551
17.0400 5.6633 1.3569
17.0600 5.6700 1.3484
17.0800 5.6767 1.3481
17.1000 5.6834 1.3609
17.1200 5.6901 1.3427
17.1400 5.6968 1.3424
17.1600 5.7034 1.3570
17.1800 5.7100 1.3458
17.2000 5.7166 1.3386
17.2200 5.7233 1.3598
17.2400 5.7300 1.3451
17.2600 5.7367 1.3393
17.2800 5.7434 1.3506
17.3000 5.7501 1.3357
17.3200 5.7568 1.3427
17.3400 5.7634 1.3520
17.3600 5.7701 1.3312
17.3800 5.7766 1.3437
17.4000 5.7833 1.3489
17.4200 5.7899 1.3359
17.4400 5.7967 1.3358
17.4600 5.8034 1.3447
17.4800 5.8100 1.3351
17.5000 5.8167 1.3394
17.5200 5.8234 1.3380
17.5400 5.8300 1.3323
17.5600 5.8366 1.3382
17.5800 5.8432 1.3333
17.6000 5.8500 1.3355
17.6200 5.8567 1.3317
17.6400 5.8634 1.3310
17.6600 5.8700 1.3340
17.6800 5.8767 1.3277
17.7000 5.8834 1.3284
17.7200 5.8901 1.3347
17.7400 5.8967 1.3219
17.7600 5.9033 1.3263
17.7800 5.9100 1.3296
17.8000 5.9167 1.3245
17.8200 5.9234 1.3225
17.8400 5.9301 1.3296
17.8600 5.9368 1.3200
17.8800 5.9435 1.3189
17.9000 5.9501 1.3232
17.9200 5.9567 1.3220
17.9400 5.9633 1.3198
17.9600 5.9700 1.3243
17.9800 5.9767 1.3136
18.0000 5.9834 1.3181
18.0200 5.9901 1.3251
18.0400 5.9968 1.3153
18.0600 6.0034 1.3114
18.0800 6.0100 1.3206
18.1000 6.0166 1.3141
18.1200 6.0233 1.3128
18.1400 6.0300 1.3196
18.1600 6.0367 1.3075
18.1800 6.0434 1.3112
18.2000 6.0500 1.3184
18.2200 6.0567 1.3061
18.2400 6.0634 1.3099
18.2600 6.0700 1.3182
18.2800 6.0766 1.3069
18.3000 6.0832 1.3087
18.3200 6.0899 1.3199
18.3400 6.0966 1.3001
18.3600 6.1033 1.3071
18.3800 6.1100 1.3178
18.4000 6.1167 1.2953
18.4200 6.1234 1.3079
18.4400 6.1301 1.3088
18.4600 6.1367 1.2959
18.4800 6.1433 1.3046
18.5000 6.1500 1.3109
18.5200 6.1567 1.2948
18.5400 6.1634 1.3031
18.5600 6.1701 1.3058
18.5800 6.1768 1.2924
18.6000 6.1834 1.3048
18.6200 6.1901 1.3057
18.6400 6.1967 1.2911
18.6600 6.2033 1.3032
18.6800 6.2100 1.2973
18.7000 6.2167 1.2953
18.7200 6.2234 1.2959
18.7400 6.2301 1.2980
18.7600 6.2368 1.2956
18.7800 6.2434 1.2902
18.8000 6.2501 1.2971
18.8200 6.2567 1.2976
18.8400 6.2633 1.2975
18.8600 6.2700 1.2945
18.8800 6.2767 1.2992
18.9000 6.2834 1.2864
18.9200 6.2900 1.2939
18.9400 6.2967 1.2970
18.9600 6.3034 1.2837
18.9800 6.3100 1.2904
19.0000 6.3166 1.2925
19.0200 6.3233 1.2823
19.0400 6.3299 1.2925
19.0600 6.3366 1.2914
19.0800 6.3433 1.2833
19.1000 6.3500 1.2911
19.1200 6.3567 1.2892
19.1400 6.3633 1.2812
19.1600 6.3700 1.2890
19.1800 6.3766 1.2841
19.2000 6.3833 1.2793
19.2200 6.3900 1.2877
19.2400 6.3967 1.2852
19.2600 6.4034 1.2725
19.2800 6.4101 1.2893
19.3000 6.4168 1.2822
19.3200 6.4235 1.2731
19.3400 6.4301 1.2848
19.3600 6.4367 1.2828
19.3800 6.4433 1.2716
19.4000 6.4500 1.2834
19.4200 6.4567 1.2802
19.4400 6.4634 1.2688
19.4600 6.4701 1.2821
19.4800 6.4768 1.2801
19.5000 6.4834 1.2730
19.5200 6.4901 1.2748
19.5400 6.4967 1.2796
19.5600 6.5033 1.2679
19.5800 6.5099 1.2792
19.6000 6.5166 1.2709
19.6200 6.5234 1.2665
19.6400 6.5301 1.2771
19.6600 6.5367 1.2699
19.6800 6.5434 1.2681
19.7000 6.5500 1.2732
19.7200 6.5566 1.2635
19.7400 6.5632 1.2682
19.7600 6.5699 1.2702
19.7800 6.5766 1.2662
19.8000 6.5833 1.2606
19.8200 6.5900 1.2697
19.8400 6.5967 1.2636
19.8600 6.6033 1.2578
19.8800 6.6100 1.2660
19.9000 6.6166 1.2638
19.9200 6.6233 1.2569
19.9400 6.6300 1.2605
19.9600 6.6367 1.2583
19.9800 6.6434 1.2553
20.0000 6.6501 1.2611
20.0200 6.6568 1.2556
20.0400 6.6635 1.2537
20.0600 6.6701 1.2564
20.0800 6.6767 1.2546
20.1000 6.6833 1.2577
20.1200 6.6900 1.2553
20.1400 6.6967 1.2484
20.1600 6.7034 1.2509
20.1800 6.7101 1.2549
20.2000 6.7168 1.2559
20.2200 6.7235 1.2449
20.2400 6.7301 1.2523
20.2600 6.7367 1.2500
20.2800 6.7433 1.2457
20.3000 6.7499 1.2507
20.3200 6.7567 1.2549
20.3400 6.7634 1.2423
20.3600 6.7700 1.2434
20.3800 6.7767 1.2558
20.4000 6.7834 1.2456
20.4200 6.7900 1.2410
20.4400 6.7966 1.2505
20.4600 6.8033 1.2387
20.4800 6.8099 1.2410
20.5000 6.8166 1.2492
20.5200 6.8233 1.2373
20.5400 6.8300 1.2415
20.5600 6.8367 1.2448
20.5800 6.8434 1.2346
20.6000 6.8501 1.2403
20.6200 6.8567 1.2463
20.6400 6.8633 1.2285
20.6600 6.8700 1.2403
20.6800 6.8767 1.2374
20.7000 6.8834 1.2309
20.7200 6.8901 1.2418
20.7400 6.8968 1.2391
20.7600 6.9034 1.2322
20.7800 6.9101 1.2370
20.8000 6.9167 1.2347
20.8200 6.9233 1.2315
20.8400 6.9299 1.2342
20.8600 6.9367 1.2364
20.8800 6.9434 1.2221
20.9000 6.9501 1.2356
20.9200 6.9567 1.2308
20.9400 6.9634 1.2232
20.9600 6.9701 1.2300
20.9800 6.9767 1.2333
21.0000 6.9833 1.2205
21.0200 6.9900 1.2231
21.0400 6.9967 1.2338
21.0600 7.0034 1.2219
21.0800 7.0100 1.2211
21.1000 7.0167 1.2332
21.1200 7.0234 1.2183
21.1400 7.0301 1.2206
21.1600 7.0367 1.2284
21.1800 7.0433 1.2168
21.2000 7.0499 1.2220
21.2200 7.0566 1.2276
21.2400 7.0633 1.2122
21.2600 7.0700 1.2155
21.2800 7.0767 1.2267
21.3000 7.0834 1.2078
21.3200 7.0900 1.2165
21.3400 7.0967 1.2243
21.3600 7.1033 1.2084
21.3800 7.1099 1.2154
21.4000 7.1167 1.2204
21.4200 7.1234 1.2038
21.4400 7.1300 1.2167
21.4600 7.1367 1.2177
21.4800 7.1434 1.2026
21.5000 7.1501 1.2171
21.5200 7.1567 1.2129
21.5400 7.1633 1.1999
21.5600 7.1700 1.2176
21.5800 7.1767 1.2064
21.6000 7.1834 1.2032
21.6200 7.1901 1.2174
21.6400 7.1968 1.2037
21.6600 7.2035 1.2012
21.6800 7.2101 1.2155
21.7000 7.2167 1.1992
21.7200 7.2233 1.2017
21.7400 7.2299 1.2158
21.7600 7.2367 1.1935
21.7800 7.2434 1.2040
21.8000 7.2501 1.2041
21.8200 7.2567 1.1949
21.8400 7.2634 1.2067
21.8600 7.2701 1.1985
21.8800 7.2767 1.1955
21.9000 7.2833 1.2090
21.9200 7.2899 1.1903
21.9400 7.2966 1.1986
21.9600 7.3033 1.2014
21.9800 7.3100 1.1861
22.0000 7.3167 1.1971
22.0200 7.3234 1.2025
22.0400 7.3300 1.1794
22.0600 7.3367 1.1983
22.0800 7.3433 1.2004
22.1000 7.3499 1.1778
22.1200 7.3566 1.1981
22.1400 7.3633 1.1968
22.1600 7.3700 1.1766
22.1800 7.3767 1.1997
22.2000 7.3834 1.1911
22.2200 7.3901 1.1720
22.2400 7.3967 1.1951
22.2600 7.4033 1.1904
22.2800 7.4100 1.1779
22.3000 7.4167 1.1964
22.3200 7.4234 1.1807
22.3400 7.4301 1.1775
22.3600 7.4367 1.1944
22.3800 7.4434 1.1769
22.4000 7.4501 1.1795
22.4200 7.4567 1.1897
22.4400 7.4633 1.1738
22.4600 7.4699 1.1819
22.4800 7.4766 1.1894
22.5000 7.4833 1.1704
22.5200 7.4900 1.1866
22.5400 7.4967 1.1793
22.5600 7.5034 1.1692
22.5800 7.5101 1.1849
22.6000 7.5167 1.1772
22.6200 7.5233 1.1705
22.6400 7.5299 1.1833
22.6600 7.5366 1.1713
22.6800 7.5433 1.1661
22.7000 7.5500 1.1794
22.7200 7.5567 1.1714
22.7400 7.5634 1.1699
22.7600 7.5701 1.1754
22.7800 7.5767 1.1650
22.8000 7.5833 1.1712
22.8200 7.5900 1.1761
22.8400 7.5966 1.1647
22.8600 7.6034 1.1673
22.8800 7.6100 1.1685
22.9000 7.6167 1.1647
22.9200 7.6234 1.1707
22.9400 7.6301 1.1658
22.9600 7.6367 1.1564
22.9800 7.6433 1.1698
23.0000 7.6500 1.1622
23.0200 7.6567 1.1579
23.0400 7.6634 1.1676
23.0600 7.6701 1.1631
23.0800 7.6768 1.1555
23.1000 7.6834 1.1626
23.1200 7.6901 1.1629
23.1400 7.6968 1.1528
23.1600 7.7033 1.1592
23.1800 7.7099 1.1634
23.2000 7.7166 1.1502
23.2200 7.7233 1.1588
23.2400 7.7300 1.1547
23.2600 7.7367 1.1486
23.2800 7.7434 1.1578
23.3000 7.7501 1.1573
23.3200 7.7567 1.1447
23.3400 7.7633 1.1570
23.3600 7.7699 1.1513
23.3800 7.7766 1.1445
23.4000 7.7833 1.1549
23.4200 7.7900 1.1506
23.4400 7.7967 1.1353
23.4600 7.8034 1.1534
23.4800 7.8100 1.1482
23.5000 7.8167 1.1361
23.5200 7.8233 1.1517
23.5400 7.8299 1.1441
23.5600 7.8366 1.1442
23.5800 7.8434 1.1514
23.6000 7.8501 1.1375
23.6200 7.8568 1.1375
23.6400 7.8634 1.1498
23.6600 7.8701 1.1316
23.6800 7.8767 1.1333
23.7000 7.8833 1.1467
23.7200 7.8900 1.1347
23.7400 7.8966 1.1357
23.7600 7.9034 1.1435
23.7800 7.9101 1.1276
23.8000 7.9167 1.1382
23.8200 7.9234 1.1360
23.8400 7.9301 1.1319
23.8600 7.9367 1.1327
23.8800 7.9433 1.1354
23.9000 7.9500 1.1316
23.9200 7.9567 1.1316
23.9400 7.9634 1.1292
23.9600 7.9701 1.1305
23.9800 7.9767 1.1279
24.0000 7.9834 1.1272
24.0200 7.9901 1.1308
24.0400 7.9967 1.1253
24.0600 8.0033 1.1270
24.0800 8.0100 1.1307
24.1000 8.0166 1.1203
24.1200 8.0233 1.1255
24.1400 8.0300 1.1260
24.1600 8.0367 1.1219
24.1800 8.0434 1.1209
24.2000 8.0501 1.1236
24.2200 8.0567 1.1177
24.2400 8.0633 1.1191
24.2600 8.0699 1.1243
24.2800 8.0766 1.1131
24.3000 8.0834 1.1250
24.3200 8.0901 1.1195
24.3400 8.0968 1.1104
24.3600 8.1034 1.1175
24.3800 8.1101 1.1149
24.4000 8.1167 1.1085
24.4200 8.1233 1.1200
24.4400 8.1300 1.1127
24.4600 8.1366 1.1050
24.4800 8.1434 1.1145
24.5000 8.1501 1.1165
24.5200 8.1568 1.0982
24.5400 8.1634 1.1171
24.5600 8.1701 1.1174
24.5800 8.1767 1.0960
24.6000 8.1833 1.1077
24.6200 8.1900 1.1109
24.6400 8.1966 1.1005
24.6600 8.2033 1.1112
24.6800 8.2100 1.1030
24.7000 8.2167 1.0996
24.7200 8.2234 1.1139
24.7400 8.2301 1.0964
24.7600 8.2367 1.0937
24.7800 8.2433 1.1153
24.8000 8.2499 1.0981
24.8200 8.2566 1.0900
24.8400 8.2633 1.1106
24.8600 8.2700 1.0994
24.8800 8.2767 1.0862
24.9000 8.2834 1.1060
24.9200 8.2900 1.1019
24.9400 8.2967 1.0870
24.9600 8.3033 1.1025
24.9800 8.3100 1.0924
25.0000 8.3166 1.0918
25.0200 8.3234 1.0967
25.0400 8.3300 1.0872
25.0600 8.3367 1.0935
25.0800 8.3434 1.1058
25.1000 8.3501 1.0795
25.1200 8.3568 1.0852
25.1400 8.3634 1.0994
25.1600 8.3700 1.0833
25.1800 8.3766 1.0849
25.2000 8.3833 1.0924
25.2200 8.3900 1.0832
25.2400 8.3967 1.0840
25.2600 8.4034 1.0910
25.2800 8.4101 1.0844
25.3000 8.4168 1.0807
25.3200 8.4234 1.0818
25.3400 8.4300 1.0861
25.3600 8.4366 1.0820
25.3800 8.4433 1.0778
25.4000 8.4501 1.0845
25.4200 8.4567 1.0834
25.4400 8.4634 1.0742
25.4600 8.4701 1.0800
25.4800 8.4767 1.0841
25.5000 8.4833 1.0757
25.5200 8.4899 1.0725
25.5400 8.4966 1.0770
25.5600 8.5033 1.0796
25.5800 8.5100 1.0790
25.6000 8.5166 1.0665
25.6200 8.5233 1.0813
25.6400 8.5300 1.0812
25.6600 8.5367 1.0602
25.6800 8.5433 1.0763
25.7000 8.5499 1.0815
25.7200 8.5566 1.0614
25.7400 8.5633 1.0719
25.7600 8.5700 1.0733
25.7800 8.5768 1.0660
25.8000 8.5835 1.0697
25.8200 8.5901 1.0653
25.8400 8.5968 1.0628
25.8600 8.6034 1.0794
25.8800 8.6100 1.0608
25.9000 8.6166 1.0615
25.9200 8.6234 1.0760
25.9400 8.6301 1.0523
25.9600 8.6368 1.0541
25.9800 8.6434 1.0732
26.0000 8.6501 1.0534
26.0200 8.6568 1.0541
26.0400 8.6634 1.0721
26.0600 8.6700 1.0503
26.0800 8.6766 1.0586
26.1000 8.6833 1.0641
26.1200 8.6900 1.0449
26.1400 8.6967 1.0545
26.1600 8.7034 1.0636
26.1800 8.7101 1.0442
26.2000 8.7167 1.0625
26.2200 8.7233 1.0526
26.2400 8.7299 1.0416
26.2600 8.7366 1.0601
26.2800 8.7433 1.0536
26.3000 8.7500 1.0412
26.3200 8.7567 1.0579
26.3400 8.7633 1.0476
26.3600 8.7700 1.0389
26.3800 8.7767 1.0525
26.4000 8.7833 1.0452
26.4200 8.7899 1.0419
26.4400 8.7966 1.0554
26.4600 8.8033 1.0385
26.4800 8.8101 1.0431
26.5000 8.8168 1.0526
26.5200 8.8234 1.0357
26.5400 8.8301 1.0451
26.5600 8.8368 1.0424
26.5800 8.8434 1.0334
26.6000 8.8500 1.0397
26.6200 8.8567 1.0414
26.6400 8.8633 1.0339
26.6600 8.8700 1.0423
26.6800 8.8767 1.0373
26.7000 8.8834 1.0317
26.7200 8.8901 1.0399
26.7400 8.8968 1.0357
26.7600 8.9034 1.0269
26.7800 8.9100 1.0352
26.8000 8.9166 1.0388
26.8200 8.9233 1.0333
26.8400 8.9300 1.0261
26.8600 8.9367 1.0356
26.8800 8.9434 1.0292
26.9000 8.9501 1.0272
26.9200 8.9567 1.0341
26.9400 8.9633 1.0288
26.9600 8.9699 1.0235
26.9800 8.9766 1.0318
27.0000 8.9833 1.0247
27.0200 8.9900 1.0261
27.0400 8.9967 1.0358
27.0600 9.0033 1.0217
27.0800 9.0100 1.0190
27.1000 9.0167 1.0368
27.1200 9.0234 1.0138
27.1400 9.0300 1.0248
27.1600 9.0366 1.0341
27.1800 9.0433 1.0089
27.2000 9.0500 1.0225
27.2200 9.0567 1.0291
27.2400 9.0634 1.0090
27.2600 9.0701 1.0211
27.2800 9.0768 1.0257
27.3000 9.0834 1.0058
27.3200 9.0900 1.0179
27.3400 9.0966 1.0268
27.3600 9.1033 1.0065
27.3800 9.1100 1.0182
27.4000 9.1168 1.0210
27.4200 9.1234 1.0013
27.4400 9.1301 1.0179
27.4600 9.1368 1.0156
27.4800 9.1434 1.0038
27.5000 9.1500 1.0149
27.5200 9.1566 1.0127
27.5400 9.1633 0.9997
27.5600 9.1700 1.0118
27.5800 9.1767 1.0127
27.6000 9.1834 1.0004
27.6200 9.1901 1.0069
27.6400 9.1968 1.0075
27.6600 9.2034 0.9938
27.6800 9.2100 1.0050
27.7000 9.2166 1.0097
27.7200 9.2233 0.9970
27.7400 9.2300 1.0010
27.7600 9.2367 1.0058
27.7800 9.2434 0.9919
27.8000 9.2501 1.0028
27.8200 9.2567 1.0025
27.8400 9.2634 0.9866
27.8600 9.2700 0.9966
27.8800 9.2766 0.9969
27.9000 9.2833 0.9929
27.9200 9.2900 0.9951
27.9400 9.2968 0.9911
27.9600 9.3034 0.9860
27.9800 9.3101 0.9958
28.0000 9.3168 0.9920
28.0200 9.3234 0.9825
28.0400 9.3300 0.9859
28.0600 9.3366 0.9943
28.0800 9.3433 0.9838
28.1000 9.3500 0.9850
28.1200 9.3567 0.9901
28.1400 9.3634 0.9859
28.1600 9.3701 0.9829
28.1800 9.3768 0.9858
28.2000 9.3834 0.9776
28.2200 9.3900 0.9846
28.2400 9.3966 0.9872
28.2600 9.4033 0.9736
28.2800 9.4100 0.9765
28.3000 9.4167 0.9874
28.3200 9.4234 0.9738
28.3400 9.4301 0.9721
28.3600 9.4367 0.9848
28.3800 9.4434 0.9703
28.4000 9.4500 0.9722
28.4200 9.4566 0.9828
28.4400 9.4633 0.9679
28.4600 9.4700 0.9748
28.4800 9.4767 0.9792
28.5000 9.4834 0.9605
28.5200 9.4900 0.9777
28.5400 9.4967 0.9754
28.5600 9.5034 0.9577
28.5800 9.5100 0.9720
28.6000 9.5166 0.9799
28.6200 9.5233 0.9567
28.6400 9.5300 0.9683
28.6600 9.5367 0.9691
28.6800 9.5434 0.9598
28.7000 9.5501 0.9685
28.7200 9.5568 0.9675
28.7400 9.5634 0.9535
28.7600 9.5700 0.9698
28.7800 9.5767 0.9696
28.8000 9.5833 0.9511
28.8200 9.5900 0.9642
28.8400 9.5967 0.9668
28.8600 9.6034 0.9497
28.8800 9.6101 0.9622
28.9000 9.6168 0.9640
28.9200 9.6234 0.9494
28.9400 9.6300 0.9602
28.9600 9.6366 0.9599
28.9800 9.6433 0.9502
29.0000 9.6500 0.9596
29.0200 9.6567 0.9539
29.0400 9.6634 0.9455
29.0600 9.6701 0.9596
29.0800 9.6767 0.9556
29.1000 9.6834 0.9459
29.1200 9.6900 0.9522
29.1400 9.6966 0.9535
29.1600 9.7033 0.9478
29.1800 9.7100 0.9488
29.2000 9.7167 0.9465
29.2200 9.7233 0.9509
29.2400 9.7300 0.9475
29.2600 9.7367 0.9489
29.2800 9.7434 0.9355
29.3000 9.7500 0.9486
29.3200 9.7567 0.9461
29.3400 9.7633 0.9421
29.3600 9.7700 0.9418
29.3800 9.7767 0.9453
29.4000 9.7834 0.9441
29.4200 9.7901 0.9375
29.4400 9.7968 0.9440
29.4600 9.8034 0.9395
29.4800 9.8100 0.9362
29.5000 9.8166 0.9428
29.5200 9.8233 0.9427
29.5400 9.8300 0.9396
29.5600 9.8367 0.9370
29.5800 9.8434 0.9329
29.6000 9.8501 0.9342
29.6200 9.8568 0.9400
29.6400 9.8634 0.9336
29.6600 9.8700 0.9341
29.6800 9.8766 0.9396
29.7000 9.8833 0.9298
29.7200 9.8900 0.9363
29.7400 9.8967 0.9351
29.7600 9.9034 0.9343
29.7800 9.9101 0.9256
29.8000 9.9167 0.9331
29.8200 9.9234 0.9352
29.8400 9.9300 0.9261
29.8600 9.9366 0.9286
29.8800 9.9432 0.9324
29.9000 9.9499 0.9269
29.9200 9.9567 0.9304
29.9400 9.9634 0.9302
29.9600 9.9700 0.9239
29.9800 9.9767 0.9262
30.0000 9.9833 0.9256
30.0200 9.9900 0.9196
30.0400 9.9966 0.9340
30.0600 10.0033 0.9206
30.0800 10.0100 0.9194
30.1000 10.0167 0.9272
30.1200 10.0234 0.9175
30.1400 10.0301 0.9200
30.1600 10.0368 0.9253
30.1800 10.0434 0.9123
30.2000 10.0501 0.9131
30.2200 10.0567 0.9228
30.2400 10.0633 0.9168
30.2600 10.0700 0.9129
30.2800 10.0767 0.9158
30.3000 10.0834 0.9116
30.3200 10.0901 0.9107
30.3400 10.0968 0.9171
30.3600 10.1034 0.9075
30.3800 10.1100 0.9164
30.4000 10.1166 0.9063
30.4200 10.1233 0.9112
30.4400 10.1300 0.9072
30.4600 10.1367 0.9059
30.4800 10.1433 0.9090
30.5000 10.1500 0.9038
30.5200 10.1567 0.9011
30.5400 10.1634 0.9083
30.5600 10.1700 0.8966
30.5800 10.1766 0.9030
30.6000 10.1833 0.9126
30.6200 10.1900 0.8978
30.6400 10.1967 0.8978
30.6600 10.2034 0.9107
30.6800 10.2100 0.8903
30.7000 10.2167 0.8971
30.7200 10.2234 0.9058
30.7400 10.2300 0.8902
30.7600 10.2367 0.9011
30.7800 10.2433 0.9018
30.8000 10.2500 0.8870
30.8200 10.2567 0.8974
30.8400 10.2634 0.8991
30.8600 10.2701 0.8858
30.8800 10.2768 0.8958
30.9000 10.2834 0.8918
30.9200 10.2901 0.8845
30.9400 10.2966 0.8945
30.9600 10.3033 0.8905
30.9800 10.3100 0.8859
31.0000 10.3167 0.8954
31.0200 10.3234 0.8815
31.0400 10.3301 0.8884
31.0600 10.3367 0.8871
31.0800 10.3434 0.8820
31.1000 10.3500 0.8839
31.1200 10.3566 0.8859
31.1400 10.3633 0.8803
31.1600 10.3700 0.8885
31.1800 10.3767 0.8783
31.2000 10.3834 0.8797
31.2200 10.3900 0.8889
31.2400 10.3967 0.8736
31.2600 10.4034 0.8771
31.2800 10.4100 0.8852
31.3000 10.4166 0.8665
31.3200 10.4233 0.8788
31.3400 10.4300 0.8861
31.3600 10.4367 0.8650
31.3800 10.4433 0.8809
31.4000 10.4500 0.8782
31.4200 10.4567 0.8632
31.4400 10.4634 0.8753
31.4600 10.4701 0.8798
31.4800 10.4766 0.8606
31.5000 10.4833 0.8760
31.5200 10.4900 0.8771
31.5400 10.4967 0.8540
31.5600 10.5034 0.8749
31.5800 10.5101 0.8685
31.6000 10.5168 0.8524
31.6200 10.5234 0.8799
31.6400 10.5301 0.8606
31.6600 10.5367 0.8562
31.6800 10.5433 0.8743
31.7000 10.5500 0.8576
31.7200 10.5567 0.8543
31.7400 10.5634 0.8729
31.7600 10.5701 0.8555
31.7800 10.5768 0.8546
31.8000 10.5834 0.8673
31.8200 10.5901 0.8539
31.8400 10.5967 0.8537
31.8600 10.6033 0.8682
31.8800 10.6100 0.8558
31.9000 10.6167 0.8521
31.9200 10.6234 0.8642
31.9400 10.6301 0.8510
31.9600 10.6368 0.8486
31.9800 10.6434 0.8580
32.0000 10.6500 0.8525
32.0200 10.6566 0.8495
32.0400 10.6632 0.8600
32.0600 10.6699 0.8503
32.0800 10.6767 0.8489
32.1000 10.6834 0.8547
32.1200 10.6900 0.8519
32.1400 10.6967 0.8442
32.1600 10.7034 0.8474
32.1800 10.7100 0.8459
32.2000 10.7167 0.8439
32.2200 10.7233 0.8467
32.2400 10.7300 0.8466
32.2600 10.7367 0.8362
32.2800 10.7434 0.8463
32.3000 10.7501 0.8426
32.3200 10.7568 0.8360
32.3400 10.7635 0.8437
32.3600 10.7701 0.8412
32.3800 10.7767 0.8314
32.4000 10.7833 0.8466
32.4200 10.7900 0.8392
32.4400 10.7967 0.8289
32.4600 10.8034 0.8449
32.4800 10.8101 0.8379
32.5000 10.8167 0.8268
32.5200 10.8234 0.8427
32.5400 10.8300 0.8315
32.5600 10.8367 0.8282
32.5800 10.8433 0.8460
32.6000 10.8500 0.8229
32.6200 10.8567 0.8261
32.6400 10.8634 0.8414
32.6600 10.8700 0.8231
32.6800 10.8767 0.8245
32.7000 10.8834 0.8358
32.7200 10.8901 0.8214
32.7400 10.8967 0.8279
32.7600 10.9033 0.8355
32.7800 10.9100 0.8190
32.8000 10.9167 0.8233
32.8200 10.9233 0.8324
32.8400 10.9300 0.8110
32.8600 10.9367 0.8290
32.8800 10.9434 0.8224
32.9000 10.9501 0.8102
32.9200 10.9567 0.8265
32.9400 10.9633 0.8172
32.9600 10.9700 0.8101
32.9800 10.9767 0.8217
33.0000 10.9834 0.8132
33.0200 10.9901 0.8122
33.0400 10.9968 0.8194
33.0600 11.0034 0.8086
33.0800 11.0101 0.8092
33.1000 11.0167 0.8158
33.1200 11.0233 0.8051
33.1400 11.0300 0.8084
33.1600 11.0367 0.8105
33.1800 11.0434 0.8011
33.2000 11.0501 0.8130
33.2200 11.0568 0.8034
33.2400 11.0635 0.8052
33.2600 11.0701 0.8075
33.2800 11.0767 0.8014
33.3000 11.0833 0.8021
33.3200 11.0900 0.8071
33.3400 11.0967 0.7986
33.3600 11.1034 0.7990
33.3800 11.1100 0.8046
33.4000 11.1167 0.7981
33.4200 11.1234 0.7947
33.4400 11.1301 0.8041
33.4600 11.1367 0.7911
33.4800 11.1433 0.7950
33.5000 11.1499 0.8032
33.5200 11.1566 0.7885
33.5400 11.1633 0.7870
33.5600 11.1700 0.8026
33.5800 11.1767 0.7892
33.6000 11.1834 0.7856
33.6200 11.1900 0.8043
33.6400 11.1967 0.7825
33.6600 11.2033 0.7875
33.6800 11.2100 0.7979
33.7000 11.2167 0.7811
33.7200 11.2234 0.7847
33.7400 11.2301 0.7939
33.7600 11.2368 0.7798
33.7800 11.2435 0.7858
33.8000 11.2501 0.7876
33.8200 11.2567 0.7768
33.8400 11.2633 0.7870
33.8600 11.2700 0.7884
33.8800 11.2767 0.7721
33.9000 11.2834 0.7820
33.9200 11.2901 0.7866
33.9400 11.2967 0.7746
33.9600 11.3034 0.7783
33.9800 11.3101 0.7760
34.0000 11.3167 0.7740
34.0200 11.3233 0.7824
34.0400 11.3299 0.7707
34.0600 11.3366 0.7772
34.0800 11.3434 0.7772
34.1000 11.3501 0.7714
34.1200 11.3568 0.7733
34.1400 11.3634 0.7735
34.1600 11.3701 0.7668
34.1800 11.3766 0.7723
34.2000 11.3832 0.7710
34.2200 11.3899 0.7673
34.2400 11.3966 0.7735
34.2600 11.4033 0.7659
34.2800 11.4100 0.7671
34.3000 11.4167 0.7741
34.3200 11.4234 0.7603
34.3400 11.4300 0.7597
34.3600 11.4367 0.7697
34.3800 11.4433 0.7628
34.4000 11.4499 0.7643
34.4200 11.4567 0.7674
34.4400 11.4634 0.7586
34.4600 11.4701 0.7568
34.4800 11.4768 0.7666
34.5000 11.4835 0.7538
34.5200 11.4901 0.7559
34.5400 11.4967 0.7585
34.5600 11.5033 0.7522
34.5800 11.5100 0.7548
34.6000 11.5167 0.7585
34.6200 11.5234 0.7545
34.6400 11.5301 0.7513
34.6600 11.5368 0.7502
34.6800 11.5434 0.7488
34.7000 11.5501 0.7515
34.7200 11.5567 0.7526
34.7400 11.5633 0.7444
34.7600 11.5699 0.7494
34.7800 11.5766 0.7495
34.8000 11.5834 0.7414
34.8200 11.5900 0.7502
34.8400 11.5967 0.7468
34.8600 11.6034 0.7389
34.8800 11.6100 0.7398
34.9000 11.6167 0.7377
34.9200 11.6233 0.7433
34.9400 11.6299 0.7475
34.9600 11.6366 0.7328
34.9800 11.6433 0.7338
35.0000 11.6500 0.7421
35.0200 11.6567 0.7365
35.0400 11.6634 0.7311
35.0600 11.6701 0.7403
35.0800 11.6767 0.7324
35.1000 11.6833 0.7284
35.1200 11.6900 0.7355
35.1400 11.6967 0.7277
35.1600 11.7034 0.7276
35.1800 11.7101 0.7350
35.2000 11.7167 0.7269
35.2200 11.7234 0.7238
35.2400 11.7301 0.7283
35.2600 11.7367 0.7278
35.2800 11.7433 0.7185
35.3000 11.7500 0.7289
35.3200 11.7567 0.7218
35.3400 11.7634 0.7215
35.3600 11.7701 0.7233
35.3800 11.7767 0.7164
35.4000 11.7834 0.7218
35.4200 11.7901 0.7222
35.4400 11.7967 0.7146
35.4600 11.8033 0.7206
35.4800 11.8100 0.7184
35.5000 11.8167 0.7162
35.5200 11.8234 0.7199
35.5400 11.8300 0.7142
35.5600 11.8367 0.7136
35.5800 11.8434 0.7172
35.6000 11.8501 0.7125
35.6200 11.8567 0.7123
35.6400 11.8633 0.7177
35.6600 11.8699 0.7099
35.6800 11.8766 0.7124
35.7000 11.8833 0.7098
35.7200 11.8900 0.7125
35.7400 11.8967 0.7097
35.7600 11.9034 0.7064
35.7800 11.9100 0.7036
35.8000 11.9167 0.7105
35.8200 11.9233 0.7067
35.8400 11.9299 0.7061
35.8600 11.9366 0.7087
35.8800 11.9434 0.7062
35.9000 11.9500 0.7036
35.9200 11.9567 0.7068
35.9400 11.9634 0.7002
35.9600 11.9701 0.6977
35.9800 11.9767 0.7054
36.0000 11.9833 0.6999
36.0200 11.9900 0.6972
36.0400 11.9966 0.7071
36.0600 12.0033 0.6949
36.0800 12.0100 0.6913
36.1000 12.0167 0.7051
36.1200 12.0234 0.6933
36.1400 12.0301 0.6902
36.1600 12.0367 0.6982
36.1800 12.0433 0.6933
36.2000 12.0499 0.6952
36.2200 12.0566 0.6930
36.2400 12.0634 0.6913
36.2600 12.0701 0.6918
36.2800 12.0768 0.6906
36.3000 12.0834 0.6937
36.3200 12.0901 0.6895
36.3400 12.0967 0.6840
36.3600 12.1033 0.6878
36.3800 12.1099 0.6904
36.4000 12.1166 0.6803
36.4200 12.1233 0.6919
36.4400 12.1300 0.6841
36.4600 12.1367 0.6851
36.4800 12.1434 0.6915
36.5000 12.1501 0.6764
36.5200 12.1567 0.6811
36.5400 12.1633 0.6862
36.5600 12.1700 0.6723
36.5800 12.1767 0.6812
36.6000 12.1834 0.6806
36.6200 12.1901 0.6681
36.6400 12.1968 0.6798
36.6600 12.2034 0.6761
36.6800 12.2101 0.6673
36.7000 12.2167 0.6816
36.7200 12.2233 0.6706
36.7400 12.2300 0.6661
36.7600 12.2367 0.6743
36.7800 12.2434 0.6625
36.8000 12.2501 0.6623
36.8200 12.2568 0.6733
36.8400 12.2634 0.6669
36.8600 12.2701 0.6605
36.8800 12.2767 0.6726
36.9000 12.2833 0.6626
36.9200 12.2899 0.6595
36.9400 12.2966 0.6693
36.9600 12.3033 0.6588
36.9800 12.3100 0.6527
37.0000 12.3167 0.6646
37.0200 12.3234 0.6566
37.0400 12.3300 0.6534
37.0600 12.3367 0.6600
37.0800 12.3433 0.6564
37.1000 12.3499 0.6467
37.1200 12.3566 0.6592
37.1400 12.3633 0.6493
37.1600 12.3700 0.6480
37.1800 12.3767 0.6555
37.2000 12.3834 0.6487
37.2200 12.3901 0.6474
37.2400 12.3967 0.6508
37.2600 12.4033 0.6445
37.2800 12.4100 0.6493
37.3000 12.4167 0.6488
37.3200 12.4234 0.6452
37.3400 12.4301 0.6447
37.3600 12.4367 0.6414
37.3800 12.4434 0.6397
37.4000 12.4501 0.6438
37.4200 12.4568 0.6364
37.4400 12.4634 0.6387
37.4600 12.4700 0.6409
37.4800 12.4767 0.6321
37.5000 12.4834 0.6370
37.5200 12.4901 0.6374
37.5400 12.4967 0.6356
37.5600 12.5034 0.6363
37.5800 12.5101 0.6307
37.6000 12.5168 0.6341
37.6200 12.5233 0.6352
37.6400 12.5299 0.6269
37.6600 12.5366 0.6354
37.6800 12.5433 0.6284
37.7000 12.5500 0.6318
37.7200 12.5567 0.6245
37.7400 12.5634 0.6274
37.7600 12.5701 0.6278
37.7800 12.5767 0.6271
37.8000 12.5833 0.6219
37.8200 12.5899 0.6284
37.8400 12.5965 0.6233
37.8600 12.6032 0.6219
37.8800 12.6100 0.6264
37.9000 12.6167 0.6224
37.9200 12.6234 0.6211
37.9400 12.6301 0.6218
37.9600 12.6368 0.6129
37.9800 12.6434 0.6184
38.0000 12.6500 0.6219
38.0200 12.6566 0.6136
38.0400 12.6634 0.6140
38.0600 12.6701 0.6183
38.0800 12.6767 0.6113
38.1000 12.6834 0.6124
38.1200 12.6901 0.6200
38.1400 12.6968 0.6094
38.1600 12.7034 0.6094
38.1800 12.7100 0.6124
38.2000 12.7166 0.6074
38.2200 12.7233 0.6071
38.2400 12.7301 0.6062
38.2600 12.7368 0.6023
38.2800 12.7434 0.6077
38.3000 12.7501 0.6057
38.3200 12.7567 0.6079
38.3400 12.7633 0.6034
38.3600 12.7699 0.6024
38.3800 12.7766 0.6025
38.4000 12.7833 0.6009
38.4200 12.7901 0.5980
38.4400 12.7967 0.6012
38.4600 12.8034 0.5975
38.4800 12.8101 0.5978
38.5000 12.8167 0.6001
38.5200 12.8233 0.5914
38.5400 12.8300 0.6002
38.5600 12.8366 0.5964
38.5800 12.8433 0.5894
38.6000 12.8500 0.5956
38.6200 12.8567 0.5922
38.6400 12.8633 0.5905
38.6600 12.8700 0.5898
38.6800 12.8767 0.5821
38.7000 12.8833 0.5902
38.7200 12.8899 0.5887
38.7400 12.8966 0.5857
38.7600 12.9034 0.5861
38.7800 12.9101 0.5844
38.8000 12.9168 0.5795
38.8200 12.9234 0.5834
38.8400 12.9301 0.5835
38.8600 12.9367 0.5806
38.8800 12.9433 0.5796
38.9000 12.9500 0.5818
38.9200 12.9566 0.5757
38.9400 12.9634 0.5813
38.9600 12.9701 0.5769
38.9800 12.9768 0.5762
39.0000 12.9834 0.5778
39.0200 12.9901 0.5759
39.0400 12.9967 0.5663
39.0600 13.0034 0.5737
39.0800 13.0100 0.5752
39.1000 13.0166 0.5665
39.1200 13.0233 0.5726
39.1400 13.0300 0.5675
39.1600 13.0367 0.5628
39.1800 13.0434 0.5741
39.2000 13.0500 0.5680
39.2200 13.0567 0.5566
39.2400 13.0633 0.5674
39.2600 13.0699 0.5665
39.2800 13.0766 0.5564
39.3000 13.0833 0.5680
39.3200 13.0900 0.5624
39.3400 13.0967 0.5524
39.3600 13.1034 0.5655
39.3800 13.1101 0.5563
39.4000 13.1167 0.5516
39.4200 13.1234 0.5597
39.4400 13.1300 0.5542
39.4600 13.1366 0.5488
39.4800 13.1433 0.5623
39.5000 13.1501 0.5470
39.5200 13.1567 0.5458
39.5400 13.1634 0.5580
39.5600 13.1701 0.5417
39.5800 13.1768 0.5429
39.6000 13.1834 0.5530
39.6200 13.1900 0.5408
39.6400 13.1966 0.5484
39.6600 13.2033 0.5503
39.6800 13.2100 0.5402
39.7000 13.2167 0.5423
39.7200 13.2234 0.5444
39.7400 13.2301 0.5341
39.7600 13.2367 0.5437
39.7800 13.2433 0.5407
39.8000 13.2499 0.5340
39.8200 13.2566 0.5405
39.8400 13.2633 0.5383
39.8600 13.2701 0.5339
39.8800 13.2768 0.5375
39.9000 13.2834 0.5350
39.9200 13.2901 0.5316
39.9400 13.2968 0.5324
39.9600 13.3034 0.5285
39.9800 13.3100 0.5320
40.0000 13.3166 0.5302
40.0200 13.3233 0.5282
40.0400 13.3300 0.5287
40.0600 13.3367 0.5270
40.0800 13.3433 0.5269
40.1000 13.3500 0.5300
40.1200 13.3567 0.5208
40.1400 13.3633 0.5206
40.1600 13.3700 0.5263
40.1800 13.3766 0.5238
40.2000 13.3833 0.5163
40.2200 13.3900 0.5183
40.2400 13.3967 0.5166
40.2600 13.4034 0.5175
40.2800 13.4101 0.5163
40.3000 13.4168 0.5175
40.3200 13.4234 0.5085
40.3400 13.4300 0.5175
40.3600 13.4367 0.5138
40.3800 13.4434 0.5064
40.4000 13.4501 0.5183
40.4200 13.4568 0.5078
40.4400 13.4634 0.5047
40.4600 13.4701 0.5192
40.4800 13.4767 0.5066
40.5000 13.4834 0.5031
40.5200 13.4900 0.5142
40.5400 13.4966 0.5046
40.5600 13.5033 0.5017
40.5800 13.5100 0.5082
40.6000 13.5167 0.4994
40.6200 13.5233 0.5009
40.6400 13.5300 0.5074
40.6600 13.5367 0.4934
40.6800 13.5434 0.5018
40.7000 13.5500 0.5002
40.7200 13.5566 0.4950
40.7400 13.5633 0.4982
40.7600 13.5700 0.5002
40.7800 13.5767 0.4881
40.8000 13.5834 0.4988
40.8200 13.5901 0.4962
40.8400 13.5967 0.4881
40.8600 13.6033 0.4902
40.8800 13.6099 0.4931
40.9000 13.6166 0.4926
40.9200 13.6233 0.4886
40.9400 13.6300 0.4929
40.9600 13.6367 0.4878
40.9800 13.6434 0.4806
41.0000 13.6501 0.4897
41.0200 13.6568 0.4821
41.0400 13.6634 0.4843
41.0600 13.6700 0.4896
41.0800 13.6766 0.4799
41.1000 13.6833 0.4821
41.1200 13.6900 0.4885
41.1400 13.6967 0.4765
41.1600 13.7034 0.4780
41.1800 13.7101 0.4843
41.2000 13.7168 0.4749
41.2200 13.7234 0.4763
41.2400 13.7300 0.4793
41.2600 13.7366 0.4809
41.2800 13.7433 0.4747
41.3000 13.7500 0.4779
41.3200 13.7567 0.4720
41.3400 13.7634 0.4733
41.3600 13.7701 0.4712
41.3800 13.7767 0.4732
41.4000 13.7834 0.4701
41.4200 13.7899 0.4725
41.4400 13.7966 0.4704
41.4600 13.8033 0.4662
41.4800 13.8100 0.4663
41.5000 13.8167 0.4691
41.5200 13.8234 0.4658
41.5400 13.8301 0.4667
41.5600 13.8367 0.4613
41.5800 13.8434 0.4655
41.6000 13.8500 0.4652
41.6200 13.8566 0.4569
41.6400 13.8633 0.4611
41.6600 13.8700 0.4596
41.6800 13.8767 0.4558
41.7000 13.8834 0.4628
41.7200 13.8901 0.4551
41.7400 13.8968 0.4532
41.7600 13.9034 0.4563
41.7800 13.9100 0.4526
41.8000 13.9166 0.4547
41.8200 13.9233 0.4543
41.8400 13.9300 0.4510
41.8600 13.9367 0.4474
41.8800 13.9434 0.4510
41.9000 13.9501 0.4477
41.9200 13.9567 0.4503
41.9400 13.9634 0.4427
41.9600 13.9700 0.4463
41.9800 13.9767 0.4462
42.0000 13.9833 0.4431
42.0200 13.9901 0.4453
42.0400 13.9967 0.4457
42.0600 14.0034 0.4340
42.0800 14.0101 0.4478
42.1000 14.0167 0.4395
42.1200 14.0234 0.4351
42.1400 14.0300 0.4423
42.1600 14.0366 0.4376
42.1800 14.0433 0.4330
42.2000 14.0500 0.4414
42.2200 14.0567 0.4285
42.2400 14.0634 0.4334
42.2600 14.0701 0.4414
42.2800 14.0767 0.4236
42.3000 14.0834 0.4298
42.3200 14.0900 0.4352
42.3400 14.0966 0.4236
42.3600 14.1033 0.4304
42.3800 14.1100 0.4296
42.4000 14.1167 0.4185
42.4200 14.1234 0.4296
42.4400 14.1301 0.4232
42.4600 14.1368 0.4160
42.4800 14.1434 0.4282
42.5000 14.1500 0.4187
42.5200 14.1567 0.4137
42.5400 14.1633 0.4273
42.5600 14.1701 0.4126
42.5800 14.1767 0.4121
42.6000 14.1834 0.4221
42.6200 14.1901 0.4113
42.6400 14.1968 0.4078
42.6600 14.2034 0.4169
42.6800 14.2100 0.4078
42.7000 14.2166 0.4142
42.7200 14.2232 0.4143
42.7400 14.2300 0.4017
42.7600 14.2367 0.4110
42.7800 14.2434 0.4137
42.8000 14.2501 0.3990
42.8200 14.2568 0.4088
42.8400 14.2634 0.4043
42.8600 14.2700 0.3999
42.8800 14.2766 0.4117
42.9000 14.2833 0.3983
42.9200 14.2900 0.3992
42.9400 14.2967 0.4075
42.9600 14.3034 0.3937
42.9800 14.3101 0.3967
43.0000 14.3167 0.4020
43.0200 14.3234 0.3891
43.0400 14.3300 0.3983
43.0600 14.3366 0.3957
43.0800 14.3433 0.3924
43.1000 14.3500 0.3966
43.1200 14.3567 0.3911
43.1400 14.3634 0.3851
43.1600 14.3701 0.3998
43.1800 14.3768 0.3862
43.2000 14.3834 0.3805
43.2200 14.3900 0.3953
43.2400 14.3966 0.3836
43.2600 14.4033 0.3835
43.2800 14.4100 0.3909
43.3000 14.4167 0.3788
43.3200 14.4234 0.3822
43.3400 14.4301 0.3871
43.3600 14.4368 0.3763
43.3800 14.4434 0.3771
43.4000 14.4500 0.3846
43.4200 14.4566 0.3717
43.4400 14.4633 0.3775
43.4600 14.4700 0.3802
43.4800 14.4767 0.3695
43.5000 14.4833 0.3729
43.5200 14.4900 0.3758
43.5400 14.4967 0.3715
43.5600 14.5034 0.3729
43.5800 14.5100 0.3649
43.6000 14.5166 0.3655
43.6200 14.5233 0.3783
43.6400 14.5300 0.3631
43.6600 14.5367 0.3623
43.6800 14.5433 0.3759
43.7000 14.5500 0.3609
43.7200 14.5567 0.3577
43.7400 14.5634 0.3716
43.7600 14.5700 0.3568
43.7800 14.5767 0.3651
43.8000 14.5833 0.3658
43.8200 14.5900 0.3515
43.8400 14.5967 0.3648
43.8600 14.6034 0.3665
43.8800 14.6101 0.3432
43.9000 14.6168 0.3649
43.9200 14.6234 0.3586
43.9400 14.6300 0.3415
43.9600 14.6366 0.3671
43.9800 14.6433 0.3608
44.0000 14.6500 0.3413
44.0200 14.6567 0.3574
44.0400 14.6634 0.3495
44.0600 14.6701 0.3396
44.0800 14.6768 0.3558
44.1000 14.6834 0.3488
44.1200 14.6900 0.3417
44.1400 14.6966 0.3504
44.1600 14.7033 0.3445
44.1800 14.7100 0.3408
44.2000 14.7167 0.3445
44.2200 14.7233 0.3383
44.2400 14.7300 0.3413
44.2600 14.7367 0.3460
44.2800 14.7434 0.3363
44.3000 14.7500 0.3338
44.3200 14.7566 0.3433
44.3400 14.7632 0.3375
44.3600 14.7699 0.3351
44.3800 14.7767 0.3364
44.4000 14.7834 0.3363
44.4200 14.7900 0.3285
44.4400 14.7967 0.3299
44.4600 14.8034 0.3310
44.4800 14.8100 0.3316
44.5000 14.8166 0.3289
44.5200 14.8233 0.3317
44.5400 14.8300 0.3240
44.5600 14.8367 0.3270
44.5800 14.8434 0.3298
44.6000 14.8501 0.3212
44.6200 14.8568 0.3216
44.6400 14.8635 0.3305
44.6600 14.8701 0.3115
44.6800 14.8767 0.3180
44.7000 14.8833 0.3311
44.7200 14.8900 0.3124
44.7400 14.8967 0.3154
44.7600 14.9034 0.3258
44.7800 14.9101 0.3070
44.8000 14.9168 0.3127
44.8200 14.9234 0.3208
44.8400 14.9300 0.3055
44.8600 14.9366 0.3150
44.8800 14.9432 0.3181
44.9000 14.9499 0.3026
44.9200 14.9566 0.3097
44.9400 14.9633 0.3139
44.9600 14.9700 0.2982
44.9800 14.9767 0.3097
45.0000 14.9834 0.3087
45.0200 14.9900 0.2965
45.0400 14.9966 0.3064
45.0600 15.0033 0.3087
45.0800 15.0100 0.2928
45.1000 15.0167 0.3015
45.1200 15.0234 0.2985
45.1400 15.0300 0.2923
45.1600 15.0367 0.3037
45.1800 15.0434 0.2988
45.2000 15.0501 0.2861
45.2200 15.0567 0.3072
45.2400 15.0633 0.2914
45.2600 15.0700 0.2857
45.2800 15.0767 0.3010
45.3000 15.0834 0.2875
45.3200 15.0901 0.2833
45.3400 15.0968 0.2981
45.3600 15.1035 0.2835
45.3800 15.1101 0.2815
45.4000 15.1167 0.2934
45.4200 15.1233 0.2848
45.4400 15.1300 0.2802
45.4600 15.1367 0.2868
45.4800 15.1434 0.2762
45.5000 15.1501 0.2764
45.5200 15.1568 0.2873
45.5400 15.1634 0.2724
45.5600 15.1700 0.2754
45.5800 15.1766 0.2819
45.6000 15.1833 0.2720
45.6200 15.1900 0.2755
45.6400 15.1967 0.2788
45.6600 15.2034 0.2676
45.6800 15.2101 0.2696
45.7000 15.2167 0.2707
45.7200 15.2234 0.2683
45.7400 15.2300 0.2675
45.7600 15.2366 0.2731
45.7800 15.2433 0.2633
45.8000 15.2500 0.2613
45.8200 15.2567 0.2669
45.8400 15.2633 0.2637
45.8600 15.2700 0.2575
45.8800 15.2767 0.2655
45.9000 15.2834 0.2572
45.9200 15.2900 0.2527
45.9400 15.2966 0.2627
45.9600 15.3033 0.2586
45.9800 15.3100 0.2526
46.0000 15.3167 0.2583
46.0200 15.3234 0.2508
46.0400 15.3301 0.2489
46.0600 15.3368 0.2579
46.0800 15.3434 0.2492
46.1000 15.3501 0.2504
46.1200 15.3567 0.2507
46.1400 15.3633 0.2451
46.1600 15.3700 0.2466
46.1800 15.3767 0.2454
46.2000 15.3834 0.2431
46.2200 15.3901 0.2460
46.2400 15.3968 0.2358
46.2600 15.4034 0.2406
46.2800 15.4101 0.2350
46.3000 15.4167 0.2379
46.3200 15.4233 0.2420
46.3400 15.4300 0.2322
46.3600 15.4367 0.2329
46.3800 15.4434 0.2388
46.4000 15.4500 0.2273
46.4200 15.4567 0.2311
46.4400 15.4634 0.2334
46.4600 15.4700 0.2260
46.4800 15.4766 0.2274
46.5000 15.4832 0.2332
46.5200 15.4899 0.2216
46.5400 15.4966 0.2218
46.5600 15.5033 0.2285
46.5800 15.5100 0.2194
46.6000 15.5167 0.2232
46.6200 15.5234 0.2248
46.6400 15.5300 0.2133
46.6600 15.5366 0.2186
46.6800 15.5433 0.2227
46.7000 15.5499 0.2158
46.7200 15.5567 0.2184
46.7400 15.5633 0.2153
46.7600 15.5700 0.2095
46.7800 15.5767 0.2127
46.8000 15.5835 0.2135
46.8200 15.5901 0.2055
46.8400 15.5967 0.2130
46.8600 15.6033 0.2065
46.8800 15.6100 0.2035
46.9000 15.6167 0.2075
46.9200 15.6234 0.2032
46.9400 15.6301 0.2030
46.9600 15.6368 0.2022
46.9800 15.6434 0.1970
47.0000 15.6501 0.2056
47.0200 15.6566 0.1989
47.0400 15.6633 0.1961
47.0600 15.6700 0.2014
47.0800 15.6767 0.1964
47.1000 15.6834 0.1885
47.1200 15.6901 0.1986
47.1400 15.6967 0.1914
47.1600 15.7034 0.1900
47.1800 15.7101 0.1966
47.2000 15.7167 0.1818
47.2200 15.7233 0.1886
47.2400 15.7300 0.1918
47.2600 15.7367 0.1768
47.2800 15.7434 0.1894
47.3000 15.7500 0.1918
47.3200 15.7567 0.1655
47.3400 15.7634 0.1847
47.3600 15.7701 0.1853
47.3800 15.7767 0.1679
47.4000 15.7833 0.1811
47.4200 15.7900 0.1768
47.4400 15.7967 0.1635
47.4600 15.8034 0.1832
47.4800 15.8101 0.1697
47.5000 15.8167 0.1609
47.5200 15.8234 0.1810
47.5400 15.8300 0.1660
47.5600 15.8366 0.1623
47.5800 15.8433 0.1766
47.6000 15.8500 0.1643
47.6200 15.8567 0.1612
47.6400 15.8634 0.1679
47.6600 15.8701 0.1621
47.6800 15.8768 0.1592
47.7000 15.8834 0.1648
47.7200 15.8901 0.1548
47.7400 15.8967 0.1608
47.7600 15.9033 0.1599
47.7800 15.9100 0.1493
47.8000 15.9167 0.1572
47.8200 15.9234 0.1540
47.8400 15.9300 0.1517
47.8600 15.9367 0.1501
47.8800 15.9434 0.1483
47.9000 15.9501 0.1457
47.9200 15.9567 0.1500
47.9400 15.9633 0.1459
47.9600 15.9699 0.1517
47.9800 15.9766 0.1441
48.0000 15.9833 0.1434
48.0200 15.9900 0.1454
48.0400 15.9967 0.1429
48.0600 16.0034 0.1427
48.0800 16.0101 0.1376
48.1000 16.0167 0.1350
48.1200 16.0233 0.1403
48.1400 16.0300 0.1375
48.1600 16.0367 0.1365
48.1800 16.0434 0.1326
48.2000 16.0501 0.1327
48.2200 16.0568 0.1271
48.2400 16.0634 0.1352
48.2600 16.0701 0.1253
48.2800 16.0767 0.1273
48.3000 16.0833 0.1278
48.3200 16.0900 0.1252
48.3400 16.0967 0.1283
48.3600 16.1034 0.1236
48.3800 16.1101 0.1227
48.4000 16.1168 0.1194
48.4200 16.1234 0.1216
48.4400 16.1301 0.1188
48.4600 16.1367 0.1154
48.4800 16.1433 0.1174
48.5000 16.1499 0.1221
48.5200 16.1566 0.1124
48.5400 16.1633 0.1088
48.5600 16.1700 0.1205
48.5800 16.1767 0.1101
48.6000 16.1834 0.1056
48.6200 16.1901 0.1175
48.6400 16.1967 0.0984
48.6600 16.2033 0.1082
48.6800 16.2099 0.1152
48.7000 16.2166 0.0940
48.7200 16.2234 0.1061
48.7400 16.2300 0.1120
48.7600 16.2367 0.0921
48.7800 16.2434 0.1029
48.8000 16.2500 0.1044
48.8200 16.2567 0.0872
48.8400 16.2633 0.1003
48.8600 16.2700 0.1005
48.8800 16.2767 0.0865
48.9000 16.2834 0.0990
48.9200 16.2901 0.0959
48.9400 16.2967 0.0836
48.9600 16.3035 0.0964
48.9800 16.3101 0.0926
49.0000 16.3167 0.0759
49.0200 16.3233 0.0895
49.0400 16.3299 0.0929
49.0600 16.3366 0.0807
49.0800 16.3434 0.0845
49.1000 16.3501 0.0831
49.1200 16.3568 0.0733
49.1400 16.3634 0.0828
49.1600 16.3701 0.0865
49.1800 16.3767 0.0681
49.2000 16.3833 0.0782
49.2200 16.3899 0.0838
49.2400 16.3966 0.0699
49.2600 16.4033 0.0716
49.2800 16.4100 0.0753
49.3000 16.4167 0.0639
49.3200 16.4233 0.0731
49.3400 16.4300 0.0684
49.3600 16.4367 0.0595
49.3800 16.4433 0.0695
49.4000 16.4499 0.0679
49.4200 16.4566 0.0533
49.4400 16.4633 0.0736
49.4600 16.4700 0.0653
49.4800 16.4767 0.0500
49.5000 16.4834 0.0665
49.5200 16.4901 0.0567
49.5400 16.4967 0.0486
49.5600 16.5033 0.0655
49.5800 16.5100 0.0523
49.6000 16.5167 0.0481
49.6200 16.5234 0.0632
49.6400 16.5301 0.0489
49.6600 16.5368 0.0487
49.6800 16.5434 0.0560
49.7000 16.5501 0.0408
49.7200 16.5567 0.0464
49.7400 16.5633 0.0529
49.7600 16.5700 0.0415
49.7800 16.5767 0.0449
49.8000 16.5834 0.0418
49.8200 16.5901 0.0342
49.8400 16.5967 0.0405
49.8600 16.6034 0.0392
49.8800 16.6101 0.0346
49.9000 16.6168 0.0397
49.9200 16.6234 0.0348
49.9400 16.6300 0.0346
49.9600 16.6367 0.0353
49.9800 16.6433 0.0299
50.0000 16.6500 0.0319
50.0200 16.6567 0.0314
50.0400 16.6634 0.0222
50.0600 16.6701 0.0292
50.0800 16.6767 0.0260
50.1000 16.6833 0.0221
50.1200 16.6899 0.0251
50.1400 16.6966 0.0249
50.1600 16.7033 0.0169
50.1800 16.7101 0.0231
50.2000 16.7167 0.0193
50.2200 16.7234 0.0141
50.2400 16.7300 0.0210
50.2600 16.7367 0.0107
50.2800 16.7433 0.0152
50.3000 16.7499 0.0174
50.3200 16.7566 0.0064
50.3400 16.7633 0.0082
50.3600 16.7700 0.0158
50.3800 16.7767 0.0040
50.4000 16.7834 0.0066
50.4200 16.7901 0.0101
50.4400 16.7967 0.0006
50.4600 16.8033 0.0051
50.4800 16.8100 0.0074
50.5000 16.8166 -0.0026
50.5200 16.8233 -0.0006
50.5400 16.8301 0.0027
50.5600 16.8367 -0.0056
50.5800 16.8434 -0.0060
50.6000 16.8501 -0.0008
50.6200 16.8567 -0.0142
50.6400 16.8633 -0.0075
50.6600 16.8699 -0.0061
50.6800 16.8766 -0.0109
50.7000 16.8834 -0.0148
50.7200 16.8901 -0.0159
50.7400 16.8968 -0.0135
50.7600 16.9034 -0.0125
50.7800 16.9101 -0.0186
50.8000 16.9167 -0.0158
50.8200 16.9233 -0.0188
50.8400 16.9299 -0.0242
50.8600 16.9366 -0.0192
50.8800 16.9433 -0.0224
50.9000 16.9500 -0.0255
50.9200 16.9567 -0.0222
50.9400 16.9634 -0.0264
50.9600 16.9700 -0.0329
50.9800 16.9767 -0.0257
51.0000 16.9833 -0.0310
51.0200 16.9899 -0.0344
51.0400 16.9966 -0.0327
51.0600 17.0033 -0.0290
51.0800 17.0101 -0.0377
51.1000 17.0168 -0.0352
51.1200 17.0234 -0.0373
51.1400 17.0301 -0.0418
51.1600 17.0367 -0.0405
51.1800 17.0433 -0.0383
51.2000 17.0500 -0.0439
51.2200 17.0567 -0.0446
51.2400 17.0634 -0.0416
51.2600 17.0701 -0.0517
51.2800 17.0767 -0.0508
51.3000 17.0834 -0.0396
51.3200 17.0901 -0.0543
51.3400 17.0967 -0.0519
51.3600 17.1033 -0.0456
51.3800 17.1099 -0.0548
51.4000 17.1166 -0.0537
51.4200 17.1233 -0.0555
51.4400 17.1300 -0.0634
51.4600 17.1367 -0.0549
51.4800 17.1434 -0.0611
51.5000 17.1501 -0.0671
51.5200 17.1567 -0.0581
51.5400 17.1633 -0.0693
51.5600 17.1699 -0.0679
51.5800 17.1766 -0.0607
51.6000 17.1833 -0.0689
51.6200 17.1900 -0.0757
51.6400 17.1967 -0.0646
51.6600 17.2034 -0.0755
51.6800 17.2101 -0.0797
51.7000 17.2167 -0.0705
51.7200 17.2233 -0.0751
51.7400 17.2299 -0.0870
51.7600 17.2366 -0.0685
51.7800 17.2433 -0.0833
51.8000 17.2500 -0.0919
51.8200 17.2567 -0.0734
51.8400 17.2634 -0.0877
51.8600 17.2701 -0.0974
51.8800 17.2768 -0.0761
51.9000 17.2834 -0.0965
51.9200 17.2900 -0.0977
51.9400 17.2966 -0.0807
51.9600 17.3033 -0.1013
51.9800 17.3101 -0.0995
52.0000 17.3167 -0.0892
52.0200 17.3234 -0.1051
52.0400 17.3301 -0.1015
52.0600 17.3368 -0.0963
52.0800 17.3434 -0.1081
52.1000 17.3499 -0.1027
52.1200 17.3566 -0.1018
52.1400 17.3633 -0.1083
52.1600 17.3700 -0.1080
52.1800 17.3767 -0.1056
52.2000 17.3834 -0.1111
52.2200 17.3901 -0.1093
52.2400 17.3967 -0.1161
52.2600 17.4033 -0.1140
52.2800 17.4099 -0.1169
52.3000 17.4166 -0.1105
52.3200 17.4233 -0.1200
52.3400 17.4300 -0.1264
52.3600 17.4367 -0.1196
52.3800 17.4433 -0.1183
52.4000 17.4500 -0.1249
52.4200 17.4567 -0.1262
52.4400 17.4633 -0.1229
52.4600 17.4700 -0.1285
52.4800 17.4766 -0.1279
52.5000 17.4833 -0.1214
52.5200 17.4901 -0.1385
52.5400 17.4967 -0.1287
52.5600 17.5034 -0.1312
52.5800 17.5101 -0.1451
52.6000 17.5168 -0.1306
52.6200 17.5234 -0.1351
52.6400 17.5300 -0.1486
52.6600 17.5366 -0.1330
52.6800 17.5433 -0.1381
52.7000 17.5500 -0.1514
52.7200 17.5567 -0.1341
52.7400 17.5634 -0.1508
52.7600 17.5701 -0.1527
52.7800 17.5768 -0.1332
52.8000 17.5833 -0.1545
52.8200 17.5899 -0.1567
52.8400 17.5966 -0.1380
52.8600 17.6033 -0.1635
52.8800 17.6100 -0.1562
52.9000 17.6167 -0.1457
52.9200 17.6234 -0.1669
52.9400 17.6301 -0.1570
52.9600 17.6367 -0.1487
52.9800 17.6433 -0.1712
53.0000 17.6500 -0.1548
53.0200 17.6566 -0.1580
53.0400 17.6633 -0.1740
53.0600 17.6700 -0.1628
53.0800 17.6767 -0.1622
53.1000 17.6834 -0.1789
53.1200 17.6900 -0.1661
53.1400 17.6967 -0.1677
53.1600 17.7034 -0.1808
53.1800 17.7100 -0.1658
53.2000 17.7166 -0.1776
53.2200 17.7233 -0.1785
53.2400 17.7300 -0.1768
53.2600 17.7367 -0.1824
53.2800 17.7434 -0.1749
53.3000 17.7501 -0.1828
53.3200 17.7568 -0.1876
53.3400 17.7634 -0.1796
53.3600 17.7700 -0.1915
53.3800 17.7766 -0.1923
53.4000 17.7834 -0.1840
53.4200 17.7901 -0.1948
53.4400 17.7968 -0.1990
53.4600 17.8034 -0.1840
53.4800 17.8101 -0.1968
53.5000 17.8168 -0.1979
53.5200 17.8234 -0.1889
53.5400 17.8300 -0.2009
53.5600 17.8366 -0.2001
53.5800 17.8433 -0.1950
53.6000 17.8500 -0.2055
53.6200 17.8567 -0.2044
53.6400 17.8633 -0.1972
53.6600 17.8700 -0.2095
53.6800 17.8767 -0.2107
53.7000 17.8833 -0.2041
53.7200 17.8899 -0.2121
53.7400 17.8966 -0.2087
53.7600 17.9033 -0.2136
53.7800 17.9100 -0.2135
53.8000 17.9167 -0.2108
53.8200 17.9234 -0.2199
53.8400 17.9301 -0.2160
53.8600 17.9367 -0.2219
53.8800 17.9434 -0.2175
53.9000 17.9500 -0.2181
53.9200 17.9566 -0.2266
53.9400 17.9633 -0.2227
53.9600 17.9700 -0.2225
53.9800 17.9767 -0.2295
54.0000 17.9834 -0.2292
54.0200 17.9901 -0.2258
54.0400 17.9968 -0.2342
54.0600 18.0034 -0.2362
54.0800 18.0100 -0.2306
54.1000 18.0166 -0.2414
54.1200 18.0233 -0.2284
54.1400 18.0300 -0.2384
54.1600 18.0367 -0.2489
54.1800 18.0434 -0.2332
54.2000 18.0501 -0.2368
54.2200 18.0568 -0.2535
54.2400 18.0634 -0.2423
54.2600 18.0700 -0.2410
54.2800 18.0767 -0.2551
54.3000 18.0833 -0.2402
54.3200 18.0901 -0.2500
54.3400 18.0967 -0.2661
54.3600 18.1034 -0.2454
54.3800 18.1101 -0.2528
54.4000 18.1168 -0.2698
54.4200 18.1234 -0.2494
54.4400 18.1300 -0.2568
54.4600 18.1366 -0.2731
54.4800 18.1433 -0.2564
54.5000 18.1500 -0.2620
54.5200 18.1567 -0.2783
54.5400 18.1633 -0.2550
54.5600 18.1700 -0.2702
54.5800 18.1767 -0.2830
54.6000 18.1834 -0.2638
54.6200 18.1900 -0.2682
54.6400 18.1966 -0.2886
54.6600 18.2033 -0.2681
54.6800 18.2100 -0.2759
54.7000 18.2167 -0.2913
54.7200 18.2234 -0.2777
54.7400 18.2301 -0.2792
54.7600 18.2368 -0.2927
54.7800 18.2434 -0.2812
54.8000 18.2500 -0.2862
54.8200 18.2566 -0.2968
54.8400 18.2633 -0.2893
54.8600 18.2701 -0.2858
54.8800 18.2768 -0.3083
54.9000 18.2834 -0.2923
54.9200 18.2901 -0.2842
54.9400 18.2967 -0.3124
54.9600 18.3034 -0.2990
54.9800 18.3100 -0.2938
55.0000 18.3166 -0.3110
55.0200 18.3233 -0.2988
55.0400 18.3300 -0.3011
55.0600 18.3367 -0.3188
55.0800 18.3434 -0.3047
55.1000 18.3500 -0.3042
55.1200 18.3567 -0.3267
55.1400 18.3634 -0.3071
55.1600 18.3700 -0.3072
55.1800 18.3766 -0.3363
55.2000 18.3832 -0.3127
55.2200 18.3900 -0.3157
55.2400 18.3966 -0.3294
55.2600 18.4033 -0.3144
55.2800 18.4100 -0.3249
55.3000 18.4167 -0.3407
55.3200 18.4234 -0.3174
55.3400 18.4300 -0.3327
55.3600 18.4366 -0.3402
55.3800 18.4433 -0.3233
55.4000 18.4500 -0.3362
55.4200 18.4567 -0.3465
55.4400 18.4634 -0.3311
55.4600 18.4701 -0.3360
55.4800 18.4768 -0.3454
55.5000 18.4834 -0.3412
55.5200 18.4900 -0.3463
55.5400 18.4967 -0.3458
55.5600 18.5033 -0.3412
55.5800 18.5100 -0.3554
55.6000 18.5167 -0.3546
55.6200 18.5234 -0.3494
55.6400 18.5301 -0.3576
55.6600 18.5368 -0.3590
55.6800 18.5434 -0.3578
55.7000 18.5500 -0.3583
55.7200 18.5566 -0.3623
55.7400 18.5633 -0.3617
55.7600 18.5700 -0.3691
55.7800 18.5767 -0.3672
55.8000 18.5834 -0.3719
55.8200 18.5900 -0.3701
55.8400 18.5967 -0.3737
55.8600 18.6034 -0.3701
55.8800 18.6100 -0.3729
55.9000 18.6166 -0.3761
55.9200 18.6233 -0.3769
55.9400 18.6300 -0.3786
55.9600 18.6367 -0.3864
55.9800 18.6434 -0.3764
56.0000 18.6500 -0.3804
56.0200 18.6567 -0.3890
56.0400 18.6634 -0.3885
56.0600 18.6700 -0.3880
56.0800 18.6767 -0.3949
56.1000 18.6833 -0.3890
56.1200 18.6900 -0.3939
56.1400 18.6967 -0.4061
56.1600 18.7034 -0.3952
56.1800 18.7101 -0.3936
56.2000 18.7168 -0.4068
56.2200 18.7234 -0.4050
56.2400 18.7300 -0.4012
56.2600 18.7366 -0.4105
56.2800 18.7433 -0.4058
56.3000 18.7500 -0.4065
56.3200 18.7567 -0.4152
56.3400 18.7634 -0.4112
56.3600 18.7701 -0.4108
56.3800 18.7768 -0.4169
56.4000 18.7834 -0.4130
56.4200 18.7900 -0.4176
56.4400 18.7966 -0.4205
56.4600 18.8033 -0.4231
56.4800 18.8100 -0.4186
56.5000 18.8167 -0.4325
56.5200 18.8234 -0.4250
56.5400 18.8300 -0.4226
56.5600 18.8367 -0.4295
56.5800 18.8434 -0.4318
56.6000 18.8500 -0.4299
56.6200 18.8566 -0.4363
56.6400 18.8632 -0.4337
56.6600 18.8699 -0.4304
56.6800 18.8767 -0.4433
56.7000 18.8834 -0.4416
56.7200 18.8900 -0.4396
56.7400 18.8967 -0.4467
56.7600 18.9034 -0.4457
56.7800 18.9100 -0.4459
56.8000 18.9166 -0.4515
56.8200 18.9233 -0.4519
56.8400 18.9300 -0.4496
56.8600 18.9367 -0.4543
56.8800 18.9434 -0.4572
56.9000 18.9501 -0.4520
56.9200 18.9568 -0.4574
56.9400 18.9634 -0.4616
56.9600 18.9700 -0.4591
56.9800 18.9766 -0.4624
57.0000 18.9833 -0.4652
57.0200 18.9900 -0.4666
57.0400 18.9967 -0.4658
57.0600 19.0034 -0.4700
57.0800 19.0101 -0.4777
57.1000 19.0168 -0.4709
57.1200 19.0234 -0.4795
57.1400 19.0300 -0.4788
57.1600 19.0366 -0.4779
57.1800 19.0432 -0.4810
57.2000 19.0500 -0.4853
57.2200 19.0567 -0.4813
57.2400 19.0634 -0.4868
57.2600 19.0700 -0.4905
57.2800 19.0767 -0.4869
57.3000 19.0834 -0.5020
57.3200 19.0900 -0.4986
57.3400 19.0966 -0.4905
57.3600 19.1033 -0.4973
57.3800 19.1100 -0.5030
57.4000 19.1167 -0.5033
57.4200 19.1234 -0.5040
57.4400 19.1300 -0.5103
57.4600 19.1367 -0.5040
57.4800 19.1434 -0.5045
57.5000 19.1500 -0.5158
57.5200 19.1566 -0.5128
57.5400 19.1633 -0.5090
57.5600 19.1700 -0.5153
57.5800 19.1767 -0.5246
57.6000 19.1834 -0.5122
57.6200 19.1901 -0.5269
57.6400 19.1968 -0.5246
57.6600 19.2034 -0.5173
57.6800 19.2101 -0.5290
57.7000 19.2167 -0.5249
57.7200 19.2233 -0.5265
57.7400 19.2300 -0.5368
57.7600 19.2367 -0.5263
57.7800 19.2434 -0.5346
57.8000 19.2501 -0.5445
57.8200 19.2568 -0.5291
57.8400 19.2634 -0.5362
57.8600 19.2700 -0.5558
57.8800 19.2766 -0.5280
57.9000 19.2833 -0.5400
57.9200 19.2900 -0.5595
57.9400 19.2967 -0.5372
57.9600 19.3034 -0.5550
57.9800 19.3100 -0.5630
58.0000 19.3167 -0.5316
58.0200 19.3234 -0.5654
58.0400 19.3300 -0.5658
58.0600 19.3366 -0.5391
58.0800 19.3433 -0.5742
58.1000 19.3500 -0.5671
58.1200 19.3567 -0.5523
58.1400 19.3634 -0.5820
58.1600 19.3700 -0.5660
58.1800 19.3767 -0.5622
58.2000 19.3834 -0.5935
58.2200 19.3900 -0.5662
58.2400 19.3967 -0.5686
58.2600 19.4033 -0.5978
58.2800 19.4100 -0.5728
58.3000 19.4167 -0.5812
58.3200 19.4234 -0.6016
58.3400 19.4301 -0.5753
58.3600 19.4368 -0.5929
58.3800 19.4435 -0.6004
58.4000 19.4501 -0.5859
58.4200 19.4567 -0.6033
58.4400 19.4633 -0.6007
58.4600 19.4700 -0.5911
58.4800 19.4767 -0.6086
58.5000 19.4834 -0.6038
58.5200 19.4901 -0.6014
58.5400 19.4968 -0.6170
58.5600 19.5034 -0.6119
58.5800 19.5100 -0.6094
58.6000 19.5167 -0.6171
58.6200 19.5233 -0.6140
58.6400 19.5300 -0.6201
58.6600 19.5367 -0.6191
58.6800 19.5434 -0.6213
58.7000 19.5501 -0.6299
58.7200 19.5567 -0.6189
58.7400 19.5634 -0.6306
58.7600 19.5700 -0.6326
58.7800 19.5766 -0.6275
58.8000 19.5832 -0.6410
58.8200 19.5899 -0.6473
58.8400 19.5966 -0.6326
58.8600 19.6033 -0.6467
58.8800 19.6100 -0.6477
58.9000 19.6167 -0.6377
58.9200 19.6234 -0.6547
58.9400 19.6300 -0.6557
58.9600 19.6366 -0.6416
58.9800 19.6433 -0.6616
59.0000 19.6500 -0.6608
59.0200 19.6567 -0.6490
59.0400 19.6634 -0.6674
59.0600 19.6701 -0.6708
59.0800 19.6768 -0.6580
59.1000 19.6834 -0.6758
59.1200 19.6901 -0.6711
59.1400 19.6967 -0.6634
59.1600 19.7033 -0.6853
59.1800 19.7100 -0.6805
59.2000 19.7167 -0.6658
59.2200 19.7234 -0.6953
59.2400 19.7301 -0.6866
59.2600 19.7368 -0.6743
59.2800 19.7434 -0.6978
59.3000 19.7500 -0.6671
