Raw Data
Time Displacement Force
(s) (mm) (N)
0.0000 0.0000 0.0977
0.0200 0.0001 0.1364
0.0400 0.0022 0.1799
0.0600 0.0101 0.1711
0.0800 0.0221 0.1108
0.1000 0.0346 0.0949
0.1200 0.0473 0.1287
0.1400 0.0607 0.1268
0.1600 0.0748 0.0987
0.1800 0.0889 0.1125
0.2000 0.1028 0.1113
0.2200 0.1164 0.1005
0.2400 0.1297 0.1140
0.2600 0.1430 0.1143
0.2800 0.1564 0.1081
0.3000 0.1698 0.1103
0.3200 0.1832 0.1081
0.3400 0.1965 0.1076
0.3600 0.2098 0.1069
0.3800 0.2232 0.1127
0.4000 0.2365 0.1045
0.4200 0.2498 0.1103
0.4400 0.2631 0.1137
0.4600 0.2764 0.1060
0.4800 0.2898 0.1046
0.5000 0.3031 0.1094
0.5200 0.3165 0.1021
0.5400 0.3298 0.0986
0.5600 0.3431 0.1108
0.5800 0.3565 0.0995
0.6000 0.3698 0.0993
0.6200 0.3832 0.1064
0.6400 0.3965 0.0973
0.6600 0.4099 0.0924
0.6800 0.4232 0.1013
0.7000 0.4365 0.0931
0.7200 0.4499 0.0926
0.7400 0.4632 0.0950
0.7600 0.4765 0.0939
0.7800 0.4899 0.0850
0.8000 0.5032 0.0931
0.8200 0.5165 0.0880
0.8400 0.5298 0.0851
0.8600 0.5432 0.0834
0.8800 0.5564 0.0871
0.9000 0.5697 0.0826
0.9200 0.5831 0.0859
0.9400 0.5964 0.0857
0.9600 0.6098 0.0768
0.9800 0.6231 0.0801
1.0000 0.6365 0.0828
1.0200 0.6498 0.0726
1.0400 0.6632 0.0754
1.0600 0.6765 0.0794
1.0800 0.6899 0.0751
1.1000 0.7032 0.0723
1.1200 0.7165 0.0675
1.1400 0.7299 0.0748
1.1600 0.7432 0.0723
1.1800 0.7565 0.0732
1.2000 0.7698 0.0716
1.2200 0.7832 0.0666
1.2400 0.7965 0.0631
1.2600 0.8098 0.0757
1.2800 0.8231 0.0600
1.3000 0.8365 0.0654
1.3200 0.8498 0.0726
1.3400 0.8631 0.0561
1.3600 0.8765 0.0626
1.3800 0.8898 0.0755
1.4000 0.9032 0.0532
1.4200 0.9165 0.0590
1.4400 0.9298 0.0683
1.4600 0.9432 0.0509
1.4800 0.9565 0.0588
1.5000 0.9699 0.0631
1.5200 0.9832 0.0462
1.5400 0.9965 0.0609
1.5600 1.0098 0.0614
1.5800 1.0231 0.0453
1.6000 1.0365 0.0626
1.6200 1.0497 0.0517
1.6400 1.0631 0.0419
1.6600 1.0764 0.0538
1.6800 1.0898 0.0496
1.7000 1.1032 0.0461
1.7200 1.1165 0.0544
1.7400 1.1299 0.0394
1.7600 1.1432 0.0495
1.7800 1.1566 0.0519
1.8000 1.1699 0.0407
1.8200 1.1832 0.0481
1.8400 1.1965 0.0491
1.8600 1.2099 0.0307
1.8800 1.2232 0.0456
1.9000 1.2365 0.0500
1.9200 1.2498 0.0344
1.9400 1.2632 0.0422
1.9600 1.2765 0.0390
1.9800 1.2898 0.0301
2.0000 1.3031 0.0484
2.0200 1.3164 0.0383
2.0400 1.3298 0.0275
2.0600 1.3431 0.0413
2.0800 1.3565 0.0311
2.1000 1.3699 0.0315
2.1200 1.3833 0.0396
2.1400 1.3966 0.0266
2.1600 1.4099 0.0326
2.1800 1.4232 0.0330
2.2000 1.4365 0.0175
2.2200 1.4499 0.0384
2.2400 1.4631 0.0328
2.2600 1.4764 0.0199
2.2800 1.4898 0.0369
2.3000 1.5031 0.0306
2.3200 1.5164 0.0160
2.3400 1.5298 0.0325
2.3600 1.5431 0.0235
2.3800 1.5565 0.0198
2.4000 1.5699 0.0312
2.4200 1.5832 0.0196
2.4400 1.5965 0.0097
2.4600 1.6098 0.0317
2.4800 1.6232 0.0151
2.5000 1.6365 0.0191
2.5200 1.6498 0.0278
2.5400 1.6632 0.0071
2.5600 1.6765 0.0147
2.5800 1.6899 0.0289
2.6000 1.7032 0.0050
2.6200 1.7165 0.0141
2.6400 1.7298 0.0276
2.6600 1.7432 -0.0056
2.6800 1.7565 0.0082
2.7000 1.7698 0.0260
2.7200 1.7831 -0.0034
2.7400 1.7965 0.0067
2.7600 1.8098 0.0218
2.7800 1.8231 -0.0099
2.8000 1.8364 0.0133
2.8200 1.8498 0.0207
2.8400 1.8632 -0.0181
2.8600 1.8765 0.0071
2.8800 1.8899 0.0204
2.9000 1.9032 -0.0189
2.9200 1.9166 0.0124
2.9400 1.9299 0.0099
2.9600 1.9432 -0.0141
2.9800 1.9565 0.0056
3.0000 1.9698 0.0071
3.0200 1.9832 -0.0123
3.0400 1.9965 0.0032
3.0600 2.0098 -0.0017
3.0800 2.0231 -0.0102
3.1000 2.0364 0.0037
3.1200 2.0498 -0.0053
3.1400 2.0631 -0.0077
3.1600 2.0765 -0.0015
3.1800 2.0898 -0.0062
3.2000 2.1032 -0.0079
3.2200 2.1166 -0.0037
3.2400 2.1299 0.0002
3.2600 2.1432 -0.0096
3.2800 2.1566 -0.0156
3.3000 2.1699 0.0033
3.3200 2.1832 -0.0107
3.3400 2.1965 -0.0135
3.3600 2.2098 -0.0026
3.3800 2.2232 -0.0168
3.4000 2.2365 -0.0191
3.4200 2.2498 0.0001
3.4400 2.2631 -0.0242
3.4600 2.2765 -0.0172
3.4800 2.2898 -0.0056
3.5000 2.3032 -0.0263
3.5200 2.3165 -0.0145
3.5400 2.3298 -0.0073
3.5600 2.3432 -0.0287
3.5800 2.3565 -0.0181
3.6000 2.3699 -0.0187
3.6200 2.3832 -0.0239
3.6400 2.3966 -0.0205
3.6600 2.4099 -0.0191
3.6800 2.4232 -0.0233
3.7000 2.4365 -0.0208
3.7200 2.4498 -0.0204
3.7400 2.4632 -0.0253
3.7600 2.4765 -0.0249
3.7800 2.4898 -0.0230
3.8000 2.5031 -0.0229
3.8200 2.5164 -0.0308
3.8400 2.5298 -0.0206
3.8600 2.5431 -0.0280
3.8800 2.5565 -0.0337
3.9000 2.5698 -0.0233
3.9200 2.5832 -0.0250
3.9400 2.5966 -0.0361
3.9600 2.6099 -0.0245
3.9800 2.6232 -0.0266
4.0000 2.6365 -0.0331
4.0200 2.6499 -0.0248
4.0400 2.6632 -0.0265
4.0600 2.6765 -0.0398
4.0800 2.6898 -0.0247
4.1000 2.7032 -0.0321
4.1200 2.7165 -0.0420
4.1400 2.7298 -0.0276
4.1600 2.7431 -0.0361
4.1800 2.7564 -0.0458
4.2000 2.7698 -0.0301
4.2200 2.7831 -0.0363
4.2400 2.7964 -0.0445
4.2600 2.8098 -0.0377
4.2800 2.8232 -0.0415
4.3000 2.8366 -0.0417
4.3200 2.8499 -0.0425
4.3400 2.8632 -0.0440
4.3600 2.8765 -0.0456
4.3800 2.8899 -0.0419
4.4000 2.9032 -0.0468
4.4200 2.9165 -0.0465
4.4400 2.9298 -0.0426
4.4600 2.9431 -0.0464
4.4800 2.9565 -0.0513
4.5000 2.9698 -0.0475
4.5200 2.9831 -0.0467
4.5400 2.9965 -0.0500
4.5600 3.0098 -0.0515
4.5800 3.0232 -0.0489
4.6000 3.0365 -0.0544
4.6200 3.0498 -0.0521
4.6400 3.0632 -0.0476
4.6600 3.0765 -0.0605
4.6800 3.0898 -0.0509
4.7000 3.1031 -0.0453
4.7200 3.1165 -0.0654
4.7400 3.1299 -0.0524
4.7600 3.1432 -0.0425
4.7800 3.1565 -0.0629
4.8000 3.1699 -0.0602
4.8200 3.1832 -0.0505
4.8400 3.1965 -0.0570
4.8600 3.2098 -0.0597
4.8800 3.2231 -0.0585
4.9000 3.2364 -0.0607
4.9200 3.2498 -0.0502
4.9400 3.2631 -0.0713
4.9600 3.2764 -0.0619
4.9800 3.2898 -0.0454
5.0000 3.3032 -0.0674
5.0200 3.3166 -0.0705
5.0400 3.3299 -0.0488
5.0600 3.3432 -0.0707
5.0800 3.3566 -0.0662
5.1000 3.3699 -0.0564
5.1200 3.3832 -0.0747
5.1400 3.3965 -0.0606
5.1600 3.4098 -0.0648
5.1800 3.4231 -0.0729
5.2000 3.4365 -0.0548
5.2200 3.4498 -0.0705
5.2400 3.4631 -0.0746
5.2600 3.4764 -0.0638
5.2800 3.4898 -0.0713
5.3000 3.5031 -0.0657
5.3200 3.5165 -0.0668
5.3400 3.5298 -0.0794
5.3600 3.5432 -0.0678
5.3800 3.5566 -0.0665
5.4000 3.5699 -0.0805
5.4200 3.5832 -0.0688
5.4400 3.5965 -0.0733
5.4600 3.6099 -0.0796
5.4800 3.6232 -0.0773
5.5000 3.6365 -0.0739
5.5200 3.6498 -0.0797
5.5400 3.6631 -0.0755
5.5600 3.6765 -0.0769
5.5800 3.6898 -0.0845
5.6000 3.7031 -0.0769
5.6200 3.7164 -0.0734
5.6400 3.7298 -0.0920
5.6600 3.7432 -0.0773
5.6800 3.7565 -0.0741
5.7000 3.7698 -0.0909
5.7200 3.7832 -0.0830
5.7400 3.7965 -0.0767
5.7600 3.8099 -0.0923
5.7800 3.8232 -0.0780
5.8000 3.8365 -0.0780
5.8200 3.8499 -0.1002
5.8400 3.8632 -0.0793
5.8600 3.8765 -0.0766
5.8800 3.8899 -0.0931
5.9000 3.9032 -0.0823
5.9200 3.9165 -0.0773
5.9400 3.9298 -0.0958
5.9600 3.9431 -0.0840
5.9800 3.9564 -0.0827
6.0000 3.9698 -0.0901
6.0200 3.9832 -0.0843
6.0400 3.9965 -0.0880
6.0600 4.0098 -0.0948
6.0800 4.0232 -0.0809
6.1000 4.0366 -0.0863
6.1200 4.0499 -0.0984
6.1400 4.0632 -0.0866
6.1600 4.0765 -0.0861
6.1800 4.0899 -0.1000
6.2000 4.1032 -0.0889
6.2200 4.1165 -0.0908
6.2400 4.1298 -0.0958
6.2600 4.1431 -0.0931
6.2800 4.1565 -0.0942
6.3000 4.1698 -0.0973
6.3200 4.1831 -0.0905
6.3400 4.1965 -0.0955
6.3600 4.2098 -0.1016
6.3800 4.2231 -0.0929
6.4000 4.2364 -0.0963
6.4200 4.2498 -0.0987
6.4400 4.2632 -0.1034
6.4600 4.2766 -0.0926
6.4800 4.2899 -0.1023
6.5000 4.3032 -0.1046
6.5200 4.3165 -0.0939
6.5400 4.3299 -0.1014
6.5600 4.3432 -0.1105
6.5800 4.3565 -0.0921
6.6000 4.3698 -0.0985
6.6200 4.3832 -0.1088
6.6400 4.3965 -0.0962
6.6600 4.4098 -0.1045
6.6800 4.4231 -0.1145
6.7000 4.4364 -0.0870
6.7200 4.4498 -0.1072
6.7400 4.4631 -0.1167
6.7600 4.4765 -0.0946
6.7800 4.4898 -0.1082
6.8000 4.5032 -0.1135
6.8200 4.5166 -0.0970
6.8400 4.5299 -0.1092
6.8600 4.5432 -0.1142
6.8800 4.5565 -0.0990
6.9000 4.5699 -0.1117
6.9200 4.5832 -0.1147
6.9400 4.5965 -0.0947
6.9600 4.6098 -0.1148
6.9800 4.6232 -0.1090
7.0000 4.6365 -0.1005
7.0200 4.6498 -0.1130
7.0400 4.6631 -0.1099
7.0600 4.6764 -0.1046
7.0800 4.6897 -0.1071
7.1000 4.7031 -0.1124
7.1200 4.7164 -0.1046
7.1400 4.7298 -0.1143
7.1600 4.7432 -0.1101
7.1800 4.7566 -0.1125
7.2000 4.7699 -0.1109
7.2200 4.7833 -0.1076
7.2400 4.7966 -0.1144
7.2600 4.8099 -0.1154
7.2800 4.8233 -0.1083
7.3000 4.8365 -0.1159
7.3200 4.8498 -0.1105
7.3400 4.8631 -0.1118
7.3600 4.8765 -0.1153
7.3800 4.8898 -0.1110
7.4000 4.9031 -0.1181
7.4200 4.9165 -0.1140
7.4400 4.9298 -0.1134
7.4600 4.9432 -0.1246
7.4800 4.9565 -0.1139
7.5000 4.9698 -0.1175
7.5200 4.9832 -0.1251
7.5400 4.9966 -0.1143
7.5600 5.0099 -0.1178
7.5800 5.0232 -0.1318
7.6000 5.0365 -0.1136
7.6200 5.0499 -0.1159
7.6400 5.0632 -0.1374
7.6600 5.0765 -0.1099
7.6800 5.0898 -0.1171
7.7000 5.1031 -0.1318
7.7200 5.1165 -0.1183
7.7400 5.1298 -0.1247
7.7600 5.1431 -0.1213
7.7800 5.1564 -0.1184
7.8000 5.1698 -0.1332
7.8200 5.1831 -0.1233
7.8400 5.1965 -0.1170
7.8600 5.2098 -0.1353
7.8800 5.2232 -0.1216
7.9000 5.2365 -0.1201
7.9200 5.2499 -0.1336
7.9400 5.2632 -0.1235
7.9600 5.2765 -0.1345
7.9800 5.2899 -0.1190
8.0000 5.3032 -0.1256
8.0200 5.3165 -0.1436
8.0400 5.3298 -0.1193
8.0600 5.3432 -0.1312
8.0800 5.3565 -0.1367
8.1000 5.3698 -0.1179
8.1200 5.3831 -0.1412
8.1400 5.3964 -0.1370
8.1600 5.4098 -0.1164
8.1800 5.4231 -0.1464
8.2000 5.4365 -0.1344
8.2200 5.4498 -0.1139
8.2400 5.4632 -0.1441
8.2600 5.4765 -0.1428
8.2800 5.4899 -0.1240
8.3000 5.5032 -0.1509
8.3200 5.5165 -0.1230
8.3400 5.5299 -0.1393
8.3600 5.5432 -0.1501
8.3800 5.5565 -0.1237
8.4000 5.5698 -0.1468
8.4200 5.5831 -0.1444
8.4400 5.5965 -0.1244
8.4600 5.6098 -0.1475
8.4800 5.6231 -0.1474
8.5000 5.6365 -0.1325
8.5200 5.6498 -0.1480
8.5400 5.6632 -0.1450
8.5600 5.6765 -0.1354
8.5800 5.6898 -0.1567
8.6000 5.7032 -0.1418
8.6200 5.7165 -0.1396
8.6400 5.7299 -0.1556
8.6600 5.7432 -0.1387
8.6800 5.7565 -0.1458
8.7000 5.7699 -0.1508
8.7200 5.7832 -0.1429
8.7400 5.7966 -0.1497
8.7600 5.8099 -0.1508
8.7800 5.8232 -0.1431
8.8000 5.8365 -0.1553
8.8200 5.8498 -0.1475
8.8400 5.8631 -0.1475
8.8600 5.8764 -0.1603
8.8800 5.8898 -0.1472
8.9000 5.9031 -0.1463
8.9200 5.9165 -0.1631
8.9400 5.9298 -0.1461
8.9600 5.9432 -0.1514
8.9800 5.9566 -0.1633
9.0000 5.9699 -0.1477
9.0200 5.9832 -0.1517
9.0400 5.9965 -0.1616
9.0600 6.0099 -0.1467
9.0800 6.0232 -0.1584
9.1000 6.0365 -0.1628
9.1200 6.0498 -0.1466
9.1400 6.0631 -0.1616
9.1600 6.0765 -0.1615
9.1800 6.0898 -0.1504
9.2000 6.1031 -0.1596
9.2200 6.1164 -0.1633
9.2400 6.1297 -0.1541
9.2600 6.1431 -0.1644
9.2800 6.1565 -0.1573
9.3000 6.1698 -0.1589
9.3200 6.1832 -0.1641
9.3400 6.1965 -0.1620
9.3600 6.2099 -0.1634
9.3800 6.2232 -0.1620
9.4000 6.2365 -0.1638
9.4200 6.2499 -0.1642
9.4400 6.2632 -0.1623
9.4600 6.2765 -0.1701
9.4800 6.2898 -0.1642
9.5000 6.3031 -0.1651
9.5200 6.3164 -0.1658
9.5400 6.3298 -0.1696
9.5600 6.3431 -0.1713
9.5800 6.3564 -0.1675
9.6000 6.3698 -0.1633
9.6200 6.3832 -0.1710
9.6400 6.3965 -0.1714
9.6600 6.4099 -0.1633
9.6800 6.4232 -0.1742
9.7000 6.4366 -0.1678
9.7200 6.4499 -0.1648
9.7400 6.4632 -0.1781
9.7600 6.4765 -0.1721
9.7800 6.4898 -0.1667
9.8000 6.5032 -0.1784
9.8200 6.5166 -0.1708
9.8400 6.5299 -0.1638
9.8600 6.5432 -0.1810
9.8800 6.5565 -0.1703
9.9000 6.5699 -0.1634
9.9200 6.5832 -0.1843
9.9400 6.5965 -0.1673
9.9600 6.6098 -0.1655
9.9800 6.6231 -0.1776
10.0000 6.6365 -0.1715
10.0200 6.6498 -0.1690
10.0400 6.6631 -0.1775
10.0600 6.6765 -0.1672
10.0800 6.6899 -0.1717
10.1000 6.7032 -0.1767
10.1200 6.7165 -0.1694
10.1400 6.7299 -0.1754
10.1600 6.7432 -0.1758
10.1800 6.7566 -0.1664
10.2000 6.7699 -0.1800
10.2200 6.7832 -0.1722
10.2400 6.7965 -0.1697
10.2600 6.8099 -0.1835
10.2800 6.8232 -0.1718
10.3000 6.8365 -0.1731
10.3200 6.8498 -0.1808
10.3400 6.8631 -0.1705
10.3600 6.8765 -0.1772
10.3800 6.8898 -0.1817
10.4000 6.9031 -0.1658
10.4200 6.9165 -0.1859
10.4400 6.9299 -0.1757
10.4600 6.9432 -0.1690
10.4800 6.9565 -0.1875
10.5000 6.9699 -0.1768
10.5200 6.9832 -0.1708
10.5400 6.9965 -0.1904
10.5600 7.0098 -0.1731
10.5800 7.0231 -0.1747
10.6000 7.0365 -0.1864
10.6200 7.0498 -0.1748
10.6400 7.0631 -0.1763
10.6600 7.0765 -0.1924
10.6800 7.0898 -0.1695
10.7000 7.1032 -0.1797
10.7200 7.1165 -0.1909
10.7400 7.1298 -0.1718
10.7600 7.1431 -0.1793
10.7800 7.1565 -0.1881
10.8000 7.1698 -0.1813
10.8200 7.1832 -0.1806
10.8400 7.1965 -0.1879
10.8600 7.2099 -0.1847
10.8800 7.2232 -0.1792
10.9000 7.2366 -0.1902
10.9200 7.2499 -0.1831
10.9400 7.2632 -0.1818
10.9600 7.2765 -0.1925
10.9800 7.2898 -0.1865
11.0000 7.3031 -0.1822
11.0200 7.3164 -0.1871
11.0400 7.3297 -0.1908
11.0600 7.3431 -0.1805
11.0800 7.3565 -0.1986
11.1000 7.3698 -0.1902
11.1200 7.3832 -0.1863
11.1400 7.3965 -0.1973
11.1600 7.4099 -0.1934
11.1800 7.4232 -0.1883
11.2000 7.4365 -0.2004
11.2200 7.4499 -0.1942
11.2400 7.4632 -0.1901
11.2600 7.4766 -0.2042
11.2800 7.4899 -0.1924
11.3000 7.5032 -0.1938
11.3200 7.5165 -0.2094
11.3400 7.5299 -0.1911
11.3600 7.5432 -0.2006
11.3800 7.5565 -0.2080
11.4000 7.5698 -0.1882
11.4200 7.5831 -0.2060
11.4400 7.5965 -0.2092
11.4600 7.6098 -0.1918
11.4800 7.6231 -0.2024
11.5000 7.6365 -0.2092
11.5200 7.6499 -0.1964
11.5400 7.6632 -0.2115
11.5600 7.6765 -0.2058
11.5800 7.6899 -0.1968
11.6000 7.7032 -0.2119
11.6200 7.7166 -0.2096
11.6400 7.7299 -0.1985
11.6600 7.7432 -0.2119
11.6800 7.7565 -0.2090
11.7000 7.7698 -0.2062
11.7200 7.7831 -0.2116
11.7400 7.7964 -0.2079
11.7600 7.8098 -0.2089
11.7800 7.8231 -0.2117
11.8000 7.8365 -0.2036
11.8200 7.8498 -0.2164
11.8400 7.8631 -0.2121
11.8600 7.8765 -0.2050
11.8800 7.8898 -0.2150
11.9000 7.9032 -0.2104
11.9200 7.9165 -0.2081
11.9400 7.9298 -0.2116
11.9600 7.9432 -0.2066
11.9800 7.9565 -0.2102
12.0000 7.9699 -0.2132
12.0200 7.9832 -0.2065
12.0400 7.9965 -0.2081
12.0600 8.0099 -0.2113
12.0800 8.0232 -0.2089
12.1000 8.0365 -0.2074
12.1200 8.0498 -0.2148
12.1400 8.0631 -0.1996
12.1600 8.0764 -0.2096
12.1800 8.0898 -0.2142
12.2000 8.1031 -0.1969
12.2200 8.1165 -0.2050
12.2400 8.1299 -0.2134
12.2600 8.1433 -0.2030
12.2800 8.1566 -0.2062
12.3000 8.1699 -0.2083
12.3200 8.1832 -0.2042
12.3400 8.1966 -0.2053
12.3600 8.2099 -0.2142
12.3800 8.2232 -0.1995
12.4000 8.2365 -0.2086
12.4200 8.2498 -0.2104
12.4400 8.2631 -0.2017
12.4600 8.2764 -0.2046
12.4800 8.2897 -0.2137
12.5000 8.3031 -0.2048
12.5200 8.3165 -0.2024
12.5400 8.3298 -0.2127
12.5600 8.3431 -0.2031
12.5800 8.3565 -0.2096
12.6000 8.3699 -0.2104
12.6200 8.3833 -0.2075
12.6400 8.3966 -0.2128
12.6600 8.4099 -0.2105
12.6800 8.4232 -0.2050
12.7000 8.4366 -0.2159
12.7200 8.4499 -0.2117
12.7400 8.4632 -0.2069
12.7600 8.4765 -0.2153
12.7800 8.4898 -0.2165
12.8000 8.5032 -0.2078
12.8200 8.5165 -0.2221
12.8400 8.5298 -0.2138
12.8600 8.5431 -0.2102
12.8800 8.5565 -0.2224
12.9000 8.5698 -0.2222
12.9200 8.5832 -0.2107
12.9400 8.5965 -0.2206
12.9600 8.6099 -0.2219
12.9800 8.6232 -0.2138
13.0000 8.6365 -0.2210
13.0200 8.6499 -0.2203
13.0400 8.6632 -0.2131
13.0600 8.6766 -0.2273
13.0800 8.6899 -0.2223
13.1000 8.7032 -0.2113
13.1200 8.7165 -0.2268
13.1400 8.7299 -0.2214
13.1600 8.7432 -0.2148
13.1800 8.7565 -0.2299
13.2000 8.7698 -0.2209
13.2200 8.7831 -0.2130
13.2400 8.7965 -0.2329
13.2600 8.8098 -0.2210
13.2800 8.8232 -0.2141
13.3000 8.8365 -0.2307
13.3200 8.8499 -0.2216
13.3400 8.8632 -0.2150
13.3600 8.8766 -0.2374
13.3800 8.8899 -0.2205
13.4000 8.9032 -0.2195
13.4200 8.9166 -0.2368
13.4400 8.9299 -0.2258
13.4600 8.9431 -0.2199
13.4800 8.9565 -0.2361
13.5000 8.9698 -0.2249
13.5200 8.9832 -0.2262
13.5400 8.9965 -0.2358
13.5600 9.0098 -0.2274
13.5800 9.0231 -0.2252
13.6000 9.0365 -0.2333
13.6200 9.0498 -0.2305
13.6400 9.0631 -0.2304
13.6600 9.0765 -0.2323
13.6800 9.0899 -0.2302
13.7000 9.1032 -0.2316
13.7200 9.1165 -0.2350
13.7400 9.1299 -0.2301
13.7600 9.1432 -0.2283
13.7800 9.1566 -0.2365
13.8000 9.1699 -0.2355
13.8200 9.1832 -0.2313
13.8400 9.1965 -0.2346
13.8600 9.2098 -0.2370
13.8800 9.2232 -0.2264
13.9000 9.2365 -0.2393
13.9200 9.2498 -0.2369
13.9400 9.2631 -0.2290
13.9600 9.2765 -0.2380
13.9800 9.2898 -0.2430
14.0000 9.3031 -0.2255
14.0200 9.3165 -0.2395
14.0400 9.3298 -0.2441
14.0600 9.3432 -0.2326
14.0800 9.3565 -0.2432
14.1000 9.3698 -0.2380
14.1200 9.3832 -0.2296
14.1400 9.3965 -0.2476
14.1600 9.4099 -0.2412
14.1800 9.4232 -0.2331
14.2000 9.4365 -0.2471
14.2200 9.4499 -0.2412
14.2400 9.4632 -0.2379
14.2600 9.4765 -0.2505
14.2800 9.4898 -0.2447
14.3000 9.5031 -0.2378
14.3200 9.5164 -0.2544
14.3400 9.5298 -0.2411
14.3600 9.5431 -0.2469
14.3800 9.5565 -0.2497
14.4000 9.5699 -0.2450
14.4200 9.5832 -0.2476
14.4400 9.5966 -0.2517
14.4600 9.6099 -0.2411
14.4800 9.6232 -0.2508
14.5000 9.6366 -0.2528
14.5200 9.6499 -0.2428
14.5400 9.6631 -0.2532
14.5600 9.6764 -0.2506
14.5800 9.6898 -0.2405
14.6000 9.7031 -0.2587
14.6200 9.7164 -0.2472
14.6400 9.7298 -0.2438
14.6600 9.7431 -0.2625
14.6800 9.7565 -0.2438
14.7000 9.7699 -0.2445
14.7200 9.7832 -0.2628
14.7400 9.7965 -0.2436
14.7600 9.8099 -0.2502
14.7800 9.8232 -0.2679
14.8000 9.8366 -0.2415
14.8200 9.8499 -0.2494
14.8400 9.8632 -0.2663
14.8600 9.8766 -0.2402
14.8800 9.8899 -0.2571
14.9000 9.9032 -0.2620
14.9200 9.9165 -0.2374
14.9400 9.9298 -0.2589
14.9600 9.9432 -0.2574
14.9800 9.9565 -0.2442
15.0000 9.9698 -0.2603
15.0200 9.9831 -0.2576
15.0400 9.9965 -0.2382
15.0600 10.0098 -0.2628
15.0800 10.0232 -0.2538
15.1000 10.0365 -0.2455
15.1200 10.0499 -0.2703
15.1400 10.0632 -0.2516
15.1600 10.0765 -0.2430
15.1800 10.0899 -0.2673
15.2000 10.1032 -0.2535
15.2200 10.1166 -0.2451
15.2400 10.1299 -0.2643
15.2600 10.1432 -0.2617
15.2800 10.1565 -0.2413
15.3000 10.1698 -0.2620
15.3200 10.1832 -0.2625
15.3400 10.1965 -0.2429
15.3600 10.2098 -0.2655
15.3800 10.2231 -0.2583
15.4000 10.2364 -0.2444
15.4200 10.2498 -0.2649
15.4400 10.2631 -0.2649
15.4600 10.2765 -0.2414
15.4800 10.2899 -0.2697
15.5000 10.3032 -0.2577
15.5200 10.3166 -0.2412
15.5400 10.3299 -0.2664
15.5600 10.3432 -0.2634
15.5800 10.3566 -0.2455
15.6000 10.3699 -0.2653
15.6200 10.3832 -0.2525
15.6400 10.3965 -0.2488
15.6600 10.4098 -0.2675
15.6800 10.4232 -0.2527
15.7000 10.4365 -0.2503
15.7200 10.4498 -0.2756
15.7400 10.4631 -0.2456
15.7600 10.4765 -0.2545
15.7800 10.4898 -0.2659
15.8000 10.5031 -0.2518
15.8200 10.5164 -0.2635
15.8400 10.5298 -0.2546
15.8600 10.5432 -0.2520
15.8800 10.5565 -0.2674
15.9000 10.5698 -0.2483
15.9200 10.5832 -0.2570
15.9400 10.5965 -0.2735
15.9600 10.6099 -0.2451
15.9800 10.6232 -0.2681
16.0000 10.6365 -0.2682
16.0200 10.6498 -0.2427
16.0400 10.6632 -0.2737
16.0600 10.6765 -0.2662
16.0800 10.6898 -0.2411
16.1000 10.7031 -0.2814
16.1200 10.7165 -0.2596
16.1400 10.7298 -0.2460
16.1600 10.7431 -0.2825
16.1800 10.7565 -0.2573
16.2000 10.7699 -0.2532
16.2200 10.7832 -0.2817
16.2400 10.7966 -0.2497
16.2600 10.8099 -0.2692
16.2800 10.8232 -0.2792
16.3000 10.8365 -0.2411
16.3200 10.8499 -0.2782
16.3400 10.8632 -0.2801
16.3600 10.8765 -0.2362
16.3800 10.8898 -0.2805
16.4000 10.9032 -0.2752
16.4200 10.9165 -0.2455
16.4400 10.9298 -0.2813
16.4600 10.9431 -0.2659
16.4800 10.9564 -0.2514
16.5000 10.9698 -0.2829
16.5200 10.9831 -0.2649
16.5400 10.9965 -0.2566
16.5600 11.0098 -0.2879
16.5800 11.0232 -0.2601
16.6000 11.0366 -0.2631
16.6200 11.0499 -0.2798
16.6400 11.0632 -0.2619
16.6600 11.0766 -0.2658
16.6800 11.0899 -0.2738
16.7000 11.1032 -0.2672
16.7200 11.1165 -0.2704
16.7400 11.1298 -0.2698
16.7600 11.1431 -0.2703
16.7800 11.1565 -0.2747
16.8000 11.1698 -0.2712
16.8200 11.1831 -0.2710
16.8400 11.1965 -0.2766
16.8600 11.2099 -0.2678
16.8800 11.2232 -0.2781
16.9000 11.2365 -0.2720
16.9200 11.2499 -0.2692
16.9400 11.2632 -0.2806
16.9600 11.2765 -0.2743
16.9800 11.2898 -0.2714
17.0000 11.3032 -0.2804
17.0200 11.3165 -0.2749
17.0400 11.3299 -0.2676
17.0600 11.3432 -0.2782
17.0800 11.3565 -0.2745
17.1000 11.3698 -0.2712
17.1200 11.3832 -0.2776
17.1400 11.3965 -0.2785
17.1600 11.4098 -0.2728
17.1800 11.4231 -0.2720
17.2000 11.4364 -0.2795
17.2200 11.4498 -0.2804
17.2400 11.4631 -0.2713
17.2600 11.4765 -0.2833
17.2800 11.4898 -0.2756
17.3000 11.5032 -0.2700
17.3200 11.5165 -0.2849
17.3400 11.5299 -0.2827
17.3600 11.5432 -0.2623
17.3800 11.5565 -0.2889
17.4000 11.5699 -0.2844
17.4200 11.5832 -0.2674
17.4400 11.5965 -0.2828
17.4600 11.6098 -0.2778
17.4800 11.6232 -0.2696
17.5000 11.6365 -0.2870
17.5200 11.6498 -0.2763
17.5400 11.6631 -0.2693
17.5600 11.6764 -0.2822
17.5800 11.6898 -0.2713
17.6000 11.7031 -0.2696
17.6200 11.7165 -0.2886
17.6400 11.7298 -0.2734
17.6600 11.7432 -0.2698
17.6800 11.7565 -0.2895
17.7000 11.7699 -0.2713
17.7200 11.7832 -0.2747
17.7400 11.7966 -0.2834
17.7600 11.8099 -0.2756
17.7800 11.8232 -0.2793
17.8000 11.8365 -0.2856
17.8200 11.8498 -0.2730
17.8400 11.8632 -0.2851
17.8600 11.8765 -0.2817
17.8800 11.8898 -0.2745
17.9000 11.9031 -0.2874
17.9200 11.9165 -0.2797
17.9400 11.9298 -0.2739
17.9600 11.9432 -0.2918
17.9800 11.9565 -0.2762
18.0000 11.9698 -0.2805
18.0200 11.9832 -0.2897
18.0400 11.9965 -0.2749
18.0600 12.0099 -0.2816
18.0800 12.0232 -0.2916
18.1000 12.0365 -0.2765
18.1200 12.0499 -0.2879
18.1400 12.0632 -0.2878
18.1600 12.0765 -0.2792
18.1800 12.0898 -0.2923
18.2000 12.1032 -0.2819
18.2200 12.1165 -0.2825
18.2400 12.1298 -0.2917
18.2600 12.1431 -0.2845
18.2800 12.1564 -0.2810
18.3000 12.1698 -0.2945
18.3200 12.1831 -0.2797
18.3400 12.1965 -0.2836
18.3600 12.2098 -0.2928
18.3800 12.2232 -0.2828
18.4000 12.2366 -0.2906
18.4200 12.2499 -0.2939
18.4400 12.2632 -0.2837
18.4600 12.2765 -0.2905
18.4800 12.2899 -0.2926
18.5000 12.3032 -0.2841
18.5200 12.3165 -0.2909
18.5400 12.3298 -0.2929
18.5600 12.3432 -0.2805
18.5800 12.3565 -0.2954
18.6000 12.3698 -0.2921
18.6200 12.3831 -0.2857
18.6400 12.3965 -0.2955
18.6600 12.4098 -0.2880
18.6800 12.4231 -0.2907
18.7000 12.4365 -0.2944
18.7200 12.4498 -0.2871
18.7400 12.4632 -0.2943
18.7600 12.4766 -0.2954
18.7800 12.4899 -0.2902
18.8000 12.5032 -0.2971
18.8200 12.5165 -0.2961
18.8400 12.5299 -0.2927
18.8600 12.5432 -0.2962
18.8800 12.5565 -0.2954
18.9000 12.5698 -0.2873
18.9200 12.5831 -0.2971
18.9400 12.5965 -0.2947
18.9600 12.6098 -0.2963
18.9800 12.6231 -0.2915
19.0000 12.6364 -0.2926
19.0200 12.6498 -0.2972
19.0400 12.6631 -0.2972
19.0600 12.6765 -0.2966
19.0800 12.6898 -0.2989
19.1000 12.7031 -0.2975
19.1200 12.7165 -0.2989
19.1400 12.7298 -0.2968
19.1600 12.7431 -0.2976
19.1800 12.7565 -0.2975
19.2000 12.7699 -0.2948
19.2200 12.7832 -0.2971
19.2400 12.7965 -0.2986
19.2600 12.8099 -0.2948
19.2800 12.8232 -0.3018
19.3000 12.8366 -0.3045
19.3200 12.8499 -0.2883
19.3400 12.8631 -0.3040
19.3600 12.8765 -0.3075
19.3800 12.8898 -0.2887
19.4000 12.9031 -0.3015
19.4200 12.9164 -0.3075
19.4400 12.9298 -0.2875
19.4600 12.9432 -0.2991
19.4800 12.9566 -0.3028
19.5000 12.9699 -0.2979
19.5200 12.9832 -0.3032
19.5400 12.9966 -0.3030
19.5600 13.0099 -0.2926
19.5800 13.0232 -0.3060
19.6000 13.0365 -0.3007
19.6200 13.0498 -0.2895
19.6400 13.0631 -0.3068
19.6600 13.0765 -0.3025
19.6800 13.0898 -0.2939
19.7000 13.1031 -0.3079
19.7200 13.1164 -0.2985
19.7400 13.1298 -0.3014
19.7600 13.1431 -0.3077
19.7800 13.1565 -0.2985
19.8000 13.1698 -0.3001
19.8200 13.1832 -0.3099
19.8400 13.1966 -0.2997
19.8600 13.2099 -0.3003
19.8800 13.2232 -0.3074
19.9000 13.2365 -0.2983
19.9200 13.2499 -0.2978
19.9400 13.2632 -0.3046
19.9600 13.2765 -0.3013
19.9800 13.2898 -0.3031
20.0000 13.3031 -0.3054
20.0200 13.3165 -0.3000
20.0400 13.3298 -0.3079
20.0600 13.3431 -0.3032
20.0800 13.3564 -0.3020
20.1000 13.3698 -0.3092
20.1200 13.3832 -0.3080
20.1400 13.3965 -0.3005
20.1600 13.4098 -0.3096
20.1800 13.4232 -0.3092
20.2000 13.4365 -0.3053
20.2200 13.4499 -0.3037
20.2400 13.4632 -0.3149
20.2600 13.4765 -0.3032
20.2800 13.4899 -0.3071
20.3000 13.5032 -0.3102
20.3200 13.5165 -0.3044
20.3400 13.5298 -0.3126
20.3600 13.5432 -0.3113
20.3800 13.5565 -0.3069
20.4000 13.5698 -0.3124
20.4200 13.5831 -0.3092
20.4400 13.5964 -0.3063
20.4600 13.6098 -0.3180
20.4800 13.6231 -0.3111
20.5000 13.6365 -0.3083
20.5200 13.6498 -0.3131
20.5400 13.6632 -0.3155
20.5600 13.6766 -0.3153
20.5800 13.6899 -0.3109
20.6000 13.7032 -0.3107
20.6200 13.7165 -0.3189
20.6400 13.7299 -0.3107
20.6600 13.7432 -0.3103
20.6800 13.7565 -0.3213
20.7000 13.7698 -0.3129
20.7200 13.7831 -0.3065
20.7400 13.7965 -0.3206
20.7600 13.8098 -0.3114
20.7800 13.8231 -0.3132
20.8000 13.8365 -0.3170
20.8200 13.8498 -0.3063
20.8400 13.8632 -0.3173
20.8600 13.8765 -0.3125
20.8800 13.8898 -0.3037
20.9000 13.9032 -0.3209
20.9200 13.9166 -0.3133
20.9400 13.9299 -0.2972
20.9600 13.9432 -0.3243
20.9800 13.9566 -0.3134
21.0000 13.9699 -0.3019
21.0200 13.9833 -0.3243
21.0400 13.9966 -0.3076
21.0600 14.0098 -0.3007
21.0800 14.0231 -0.3216
21.1000 14.0365 -0.3076
21.1200 14.0498 -0.3087
21.1400 14.0631 -0.3181
21.1600 14.0764 -0.3063
21.1800 14.0898 -0.3076
21.2000 14.1031 -0.3185
21.2200 14.1165 -0.3011
21.2400 14.1298 -0.3121
21.2600 14.1432 -0.3197
21.2800 14.1566 -0.3093
21.3000 14.1699 -0.3119
21.3200 14.1832 -0.3163
21.3400 14.1965 -0.3036
21.3600 14.2099 -0.3132
21.3800 14.2232 -0.3180
21.4000 14.2365 -0.3047
21.4200 14.2498 -0.3081
21.4400 14.2632 -0.3195
21.4600 14.2765 -0.3050
21.4800 14.2898 -0.3092
21.5000 14.3031 -0.3199
21.5200 14.3164 -0.3041
21.5400 14.3297 -0.3069
21.5600 14.3431 -0.3218
21.5800 14.3564 -0.3042
21.6000 14.3698 -0.3090
21.6200 14.3831 -0.3182
21.6400 14.3965 -0.3054
21.6600 14.4099 -0.3118
21.6800 14.4233 -0.3117
21.7000 14.4366 -0.3108
21.7200 14.4499 -0.3171
21.7400 14.4632 -0.3120
21.7600 14.4765 -0.3067
21.7800 14.4898 -0.3186
21.8000 14.5031 -0.3061
21.8200 14.5165 -0.3145
21.8400 14.5298 -0.3225
21.8600 14.5431 -0.3060
21.8800 14.5564 -0.3133
21.9000 14.5698 -0.3216
21.9200 14.5831 -0.3060
21.9400 14.5965 -0.3203
21.9600 14.6098 -0.3208
21.9800 14.6232 -0.3077
22.0000 14.6365 -0.3183
22.0200 14.6499 -0.3189
22.0400 14.6632 -0.3112
22.0600 14.6765 -0.3160
22.0800 14.6898 -0.3210
22.1000 14.7032 -0.3167
22.1200 14.7165 -0.3193
22.1400 14.7298 -0.3205
22.1600 14.7431 -0.3173
22.1800 14.7565 -0.3182
22.2000 14.7698 -0.3218
22.2200 14.7831 -0.3178
22.2400 14.7965 -0.3235
22.2600 14.8098 -0.3186
22.2800 14.8232 -0.3260
22.3000 14.8365 -0.3209
22.3200 14.8498 -0.3183
22.3400 14.8632 -0.3222
22.3600 14.8766 -0.3212
22.3800 14.8899 -0.3193
22.4000 14.9032 -0.3275
22.4200 14.9165 -0.3182
22.4400 14.9299 -0.3188
22.4600 14.9432 -0.3274
22.4800 14.9566 -0.3222
22.5000 14.9699 -0.3224
22.5200 14.9831 -0.3284
22.5400 14.9965 -0.3131
22.5600 15.0098 -0.3242
22.5800 15.0231 -0.3266
22.6000 15.0364 -0.3143
22.6200 15.0498 -0.3280
22.6400 15.0631 -0.3260
22.6600 15.0765 -0.3146
22.6800 15.0898 -0.3295
22.7000 15.1032 -0.3263
22.7200 15.1165 -0.3144
22.7400 15.1299 -0.3347
22.7600 15.1432 -0.3204
22.7800 15.1565 -0.3146
22.8000 15.1699 -0.3349
22.8200 15.1832 -0.3282
22.8400 15.1965 -0.3164
22.8600 15.2098 -0.3342
22.8800 15.2231 -0.3221
22.9000 15.2365 -0.3221
22.9200 15.2498 -0.3317
22.9400 15.2632 -0.3293
22.9600 15.2765 -0.3191
22.9800 15.2898 -0.3304
23.0000 15.3031 -0.3268
23.0200 15.3165 -0.3300
23.0400 15.3298 -0.3280
23.0600 15.3431 -0.3301
23.0800 15.3565 -0.3242
23.1000 15.3699 -0.3288
23.1200 15.3832 -0.3292
23.1400 15.3965 -0.3275
23.1600 15.4099 -0.3281
23.1800 15.4232 -0.3364
23.2000 15.4366 -0.3270
23.2200 15.4499 -0.3233
23.2400 15.4632 -0.3431
23.2600 15.4765 -0.3332
23.2800 15.4898 -0.3245
23.3000 15.5031 -0.3376
23.3200 15.5164 -0.3372
23.3400 15.5298 -0.3300
23.3600 15.5431 -0.3399
23.3800 15.5565 -0.3328
23.4000 15.5698 -0.3303
23.4200 15.5832 -0.3427
23.4400 15.5966 -0.3363
23.4600 15.6099 -0.3276
23.4800 15.6232 -0.3476
23.5000 15.6365 -0.3369
23.5200 15.6499 -0.3293
23.5400 15.6632 -0.3472
23.5600 15.6766 -0.3391
23.5800 15.6899 -0.3371
23.6000 15.7032 -0.3468
23.6200 15.7165 -0.3322
23.6400 15.7298 -0.3420
23.6600 15.7431 -0.3482
23.6800 15.7564 -0.3352
23.7000 15.7698 -0.3440
23.7200 15.7831 -0.3495
23.7400 15.7964 -0.3349
23.7600 15.8098 -0.3456
23.7800 15.8231 -0.3484
23.8000 15.8365 -0.3354
23.8200 15.8499 -0.3531
23.8400 15.8632 -0.3475
23.8600 15.8765 -0.3341
23.8800 15.8899 -0.3536
23.9000 15.9032 -0.3536
23.9200 15.9165 -0.3366
23.9400 15.9298 -0.3519
23.9600 15.9431 -0.3469
23.9800 15.9564 -0.3381
24.0000 15.9698 -0.3535
24.0200 15.9831 -0.3493
24.0400 15.9964 -0.3375
24.0600 16.0098 -0.3555
24.0800 16.0232 -0.3431
24.1000 16.0365 -0.3390
24.1200 16.0498 -0.3512
24.1400 16.0632 -0.3458
24.1600 16.0765 -0.3385
24.1800 16.0899 -0.3480
24.2000 16.1032 -0.3480
24.2200 16.1165 -0.3418
24.2400 16.1298 -0.3511
24.2600 16.1432 -0.3437
24.2800 16.1565 -0.3461
24.3000 16.1699 -0.3493
24.3200 16.1832 -0.3437
24.3400 16.1965 -0.3464
24.3600 16.2099 -0.3466
24.3800 16.2232 -0.3512
24.4000 16.2365 -0.3472
24.4200 16.2498 -0.3447
24.4400 16.2631 -0.3520
24.4600 16.2765 -0.3434
24.4800 16.2898 -0.3525
24.5000 16.3031 -0.3439
24.5200 16.3165 -0.3486
24.5400 16.3299 -0.3474
24.5600 16.3432 -0.3484
24.5800 16.3565 -0.3469
24.6000 16.3699 -0.3511
24.6200 16.3832 -0.3467
24.6400 16.3966 -0.3487
24.6600 16.4099 -0.3545
24.6800 16.4232 -0.3449
24.7000 16.4365 -0.3468
24.7200 16.4499 -0.3573
24.7400 16.4632 -0.3467
24.7600 16.4765 -0.3490
24.7800 16.4898 -0.3551
24.8000 16.5031 -0.3486
24.8200 16.5165 -0.3512
24.8400 16.5298 -0.3605
24.8600 16.5431 -0.3473
24.8800 16.5565 -0.3494
24.9000 16.5699 -0.3639
24.9200 16.5832 -0.3471
24.9400 16.5965 -0.3538
24.9600 16.6099 -0.3653
24.9800 16.6232 -0.3443
25.0000 16.6366 -0.3582
25.0200 16.6499 -0.3679
25.0400 16.6631 -0.3446
25.0600 16.6765 -0.3614
25.0800 16.6898 -0.3665
25.1000 16.7031 -0.3487
25.1200 16.7164 -0.3641
25.1400 16.7298 -0.3692
25.1600 16.7431 -0.3450
25.1800 16.7565 -0.3735
25.2000 16.7698 -0.3620
25.2200 16.7831 -0.3460
25.2400 16.7965 -0.3743
25.2600 16.8098 -0.3638
25.2800 16.8232 -0.3451
25.3000 16.8365 -0.3767
25.3200 16.8499 -0.3575
25.3400 16.8632 -0.3501
25.3600 16.8766 -0.3776
25.3800 16.8899 -0.3554
25.4000 16.9032 -0.3511
25.4200 16.9165 -0.3769
25.4400 16.9298 -0.3567
25.4600 16.9431 -0.3585
25.4800 16.9564 -0.3751
25.5000 16.9697 -0.3571
25.5200 16.9831 -0.3586
25.5400 16.9964 -0.3705
25.5600 17.0098 -0.3588
25.5800 17.0231 -0.3609
25.6000 17.0365 -0.3734
25.6200 17.0499 -0.3610
25.6400 17.0632 -0.3656
25.6600 17.0765 -0.3695
25.6800 17.0899 -0.3625
25.7000 17.1032 -0.3633
25.7200 17.1166 -0.3762
25.7400 17.1299 -0.3667
25.7600 17.1432 -0.3662
25.7800 17.1565 -0.3713
25.8000 17.1698 -0.3666
25.8200 17.1832 -0.3622
25.8400 17.1965 -0.3754
25.8600 17.2098 -0.3710
25.8800 17.2231 -0.3664
25.9000 17.2365 -0.3758
25.9200 17.2498 -0.3728
25.9400 17.2631 -0.3671
25.9600 17.2765 -0.3806
25.9800 17.2899 -0.3702
26.0000 17.3032 -0.3650
26.0200 17.3165 -0.3792
26.0400 17.3299 -0.3665
26.0600 17.3432 -0.3704
26.0800 17.3566 -0.3784
26.1000 17.3699 -0.3711
26.1200 17.3832 -0.3691
26.1400 17.3965 -0.3793
26.1600 17.4098 -0.3718
26.1800 17.4231 -0.3713
26.2000 17.4364 -0.3788
26.2200 17.4498 -0.3698
26.2400 17.4631 -0.3666
26.2600 17.4765 -0.3783
26.2800 17.4898 -0.3690
26.3000 17.5032 -0.3742
26.3200 17.5165 -0.3793
26.3400 17.5299 -0.3664
26.3600 17.5432 -0.3677
26.3800 17.5565 -0.3801
26.4000 17.5698 -0.3640
26.4200 17.5832 -0.3673
26.4400 17.5965 -0.3766
26.4600 17.6099 -0.3675
26.4800 17.6232 -0.3685
26.5000 17.6365 -0.3745
26.5200 17.6499 -0.3687
26.5400 17.6632 -0.3685
26.5600 17.6765 -0.3724
26.5800 17.6898 -0.3703
26.6000 17.7031 -0.3722
26.6200 17.7164 -0.3690
26.6400 17.7298 -0.3668
26.6600 17.7431 -0.3685
26.6800 17.7565 -0.3760
26.7000 17.7699 -0.3679
26.7200 17.7833 -0.3751
26.7400 17.7966 -0.3708
26.7600 17.8099 -0.3695
26.7800 17.8232 -0.3654
26.8000 17.8366 -0.3748
26.8200 17.8499 -0.3728
26.8400 17.8632 -0.3673
26.8600 17.8765 -0.3733
26.8800 17.8898 -0.3739
26.9000 17.9031 -0.3720
26.9200 17.9164 -0.3813
26.9400 17.9297 -0.3799
26.9600 17.9431 -0.3701
26.9800 17.9564 -0.3752
27.0000 17.9698 -0.3856
27.0200 17.9831 -0.3744
27.0400 17.9965 -0.3795
27.0600 18.0099 -0.3852
27.0800 18.0232 -0.3827
27.1000 18.0366 -0.3829
27.1200 18.0499 -0.3824
27.1400 18.0632 -0.3847
27.1600 18.0766 -0.3877
27.1800 18.0899 -0.3869
27.2000 18.1032 -0.3872
27.2200 18.1165 -0.3874
27.2400 18.1298 -0.3868
27.2600 18.1431 -0.3935
27.2800 18.1564 -0.3874
27.3000 18.1698 -0.3888
27.3200 18.1831 -0.3901
27.3400 18.1965 -0.3837
27.3600 18.2098 -0.3950
27.3800 18.2232 -0.3974
27.4000 18.2365 -0.3838
27.4200 18.2499 -0.4018
27.4400 18.2632 -0.3882
27.4600 18.2765 -0.3856
27.4800 18.2898 -0.4044
27.5000 18.3032 -0.3906
27.5200 18.3166 -0.3784
27.5400 18.3299 -0.4054
27.5600 18.3432 -0.3860
27.5800 18.3565 -0.3835
27.6000 18.3699 -0.4101
27.6200 18.3832 -0.3791
27.6400 18.3965 -0.3873
27.6600 18.4098 -0.4122
27.6800 18.4231 -0.3820
27.7000 18.4365 -0.3943
27.7200 18.4498 -0.4083
27.7400 18.4632 -0.3824
27.7600 18.4765 -0.3955
27.7800 18.4899 -0.4042
27.8000 18.5032 -0.3871
27.8200 18.5166 -0.4035
27.8400 18.5299 -0.4032
27.8600 18.5432 -0.3803
27.8800 18.5565 -0.4094
27.9000 18.5699 -0.4091
27.9200 18.5831 -0.3900
27.9400 18.5964 -0.4048
27.9600 18.6098 -0.4076
27.9800 18.6232 -0.3907
28.0000 18.6365 -0.4124
28.0200 18.6498 -0.4046
28.0400 18.6631 -0.3962
28.0600 18.6765 -0.4119
28.0800 18.6898 -0.4033
28.1000 18.7031 -0.3972
28.1200 18.7165 -0.4154
28.1400 18.7298 -0.4094
28.1600 18.7432 -0.4002
28.1800 18.7566 -0.4095
28.2000 18.7699 -0.4087
28.2200 18.7832 -0.4041
28.2400 18.7966 -0.4092
28.2600 18.8099 -0.4040
28.2800 18.8232 -0.4001
28.3000 18.8365 -0.4144
28.3200 18.8498 -0.4031
28.3400 18.8632 -0.3982
28.3600 18.8765 -0.4075
28.3800 18.8898 -0.4094
28.4000 18.9031 -0.3930
28.4200 18.9164 -0.4082
28.4400 18.9298 -0.4044
28.4600 18.9431 -0.3949
28.4800 18.9565 -0.4117
28.5000 18.9698 -0.4060
28.5200 18.9832 -0.3951
28.5400 18.9965 -0.4108
28.5600 19.0098 -0.4004
28.5800 19.0232 -0.3966
28.6000 19.0366 -0.4068
28.6200 19.0499 -0.4052
28.6400 19.0632 -0.3905
28.6600 19.0765 -0.4090
28.6800 19.0898 -0.4050
28.7000 19.1032 -0.3995
28.7200 19.1165 -0.4117
28.7400 19.1298 -0.4010
28.7600 19.1431 -0.4009
28.7800 19.1564 -0.4153
28.8000 19.1698 -0.4050
28.8200 19.1831 -0.4060
28.8400 19.1965 -0.4148
28.8600 19.2098 -0.4082
28.8800 19.2232 -0.4094
28.9000 19.2366 -0.4151
28.9200 19.2499 -0.4104
28.9400 19.2633 -0.4081
28.9600 19.2766 -0.4124
28.9800 19.2899 -0.4118
29.0000 19.3032 -0.4223
29.0200 19.3165 -0.4099
29.0400 19.3298 -0.4131
29.0600 19.3431 -0.4166
29.0800 19.3565 -0.4169
29.1000 19.3698 -0.4168
29.1200 19.3831 -0.4181
29.1400 19.3965 -0.4192
29.1600 19.4098 -0.4139
29.1800 19.4232 -0.4176
29.2000 19.4365 -0.4238
29.2200 19.4499 -0.4168
29.2400 19.4632 -0.4149
29.2600 19.4765 -0.4238
29.2800 19.4898 -0.4227
29.3000 19.5032 -0.4165
29.3200 19.5165 -0.4219
29.3400 19.5298 -0.4241
29.3600 19.5431 -0.4165
29.3800 19.5565 -0.4247
29.4000 19.5698 -0.4263
29.4200 19.5832 -0.4221
29.4400 19.5965 -0.4274
29.4600 19.6098 -0.4322
29.4800 19.6231 -0.4208
29.5000 19.6365 -0.4250
29.5200 19.6498 -0.4376
29.5400 19.6632 -0.4258
29.5600 19.6765 -0.4344
29.5800 19.6898 -0.4394
29.6000 19.7032 -0.4219
29.6200 19.7165 -0.4402
29.6400 19.7298 -0.4389
29.6600 19.7432 -0.4267
29.6800 19.7565 -0.4374
29.7000 19.7699 -0.4416
29.7200 19.7832 -0.4293
29.7400 19.7965 -0.4400
29.7600 19.8098 -0.4425
29.7800 19.8232 -0.4285
29.8000 19.8365 -0.4410
29.8200 19.8498 -0.4446
29.8400 19.8631 -0.4346
29.8600 19.8764 -0.4474
29.8800 19.8898 -0.4396
29.9000 19.9031 -0.4317
29.9200 19.9165 -0.4500
29.9400 19.9298 -0.4416
29.9600 19.9432 -0.4365
29.9800 19.9566 -0.4487
30.0000 19.9699 -0.4381
30.0200 19.9832 -0.4351
30.0400 19.9966 -0.4520
30.0600 20.0099 -0.4328
30.0800 20.0232 -0.4428
30.1000 20.0365 -0.4445
30.1200 20.0498 -0.4297
30.1400 20.0632 -0.4473
30.1600 20.0765 -0.4513
30.1800 20.0898 -0.4295
30.2000 20.1031 -0.4446
30.2200 20.1165 -0.4489
30.2400 20.1298 -0.4389
30.2600 20.1432 -0.4522
30.2800 20.1565 -0.4490
30.3000 20.1698 -0.4347
30.3200 20.1832 -0.4552
30.3400 20.1965 -0.4519
30.3600 20.2098 -0.4403
30.3800 20.2232 -0.4592
30.4000 20.2365 -0.4495
30.4200 20.2499 -0.4473
30.4400 20.2632 -0.4616
30.4600 20.2765 -0.4507
30.4800 20.2898 -0.4498
30.5000 20.3032 -0.4592
30.5200 20.3165 -0.4480
30.5400 20.3298 -0.4126
30.5600 20.3431 -0.3271
30.5800 20.3564 -0.2182
30.6000 20.3698 -0.1249
30.6200 20.3831 -0.0496
30.6400 20.3965 -0.0081
30.6600 20.4099 0.0101
30.6800 20.4233 0.0625
30.7000 20.4366 0.1190
30.7200 20.4499 0.1663
30.7400 20.4632 0.1981
30.7600 20.4765 0.2262
30.7800 20.4899 0.2634
30.8000 20.5032 0.3107
30.8200 20.5165 0.3602
30.8400 20.5298 0.4096
30.8600 20.5432 0.4567
30.8800 20.5565 0.5060
30.9000 20.5698 0.5454
30.9200 20.5831 0.5781
30.9400 20.5964 0.5480
30.9600 20.6098 0.5083
30.9800 20.6231 0.5079
31.0000 20.6364 0.4929
31.0200 20.6498 0.4901
31.0400 20.6632 0.5004
31.0600 20.6766 0.5019
31.0800 20.6899 0.4997
31.1000 20.7032 0.5031
31.1200 20.7165 0.4934
31.1400 20.7299 0.4883
31.1600 20.7432 0.4981
31.1800 20.7565 0.4950
31.2000 20.7698 0.4953
31.2200 20.7831 0.4993
31.2400 20.7965 0.4863
31.2600 20.8098 0.4978
31.2800 20.8231 0.4925
31.3000 20.8365 0.4754
31.3200 20.8498 0.4888
31.3400 20.8632 0.4829
31.3600 20.8765 0.4672
31.3800 20.8899 0.4859
31.4000 20.9032 0.4831
31.4200 20.9166 0.4704
31.4400 20.9299 0.4877
31.4600 20.9432 0.4773
31.4800 20.9565 0.4687
31.5000 20.9699 0.4850
31.5200 20.9832 0.4711
31.5400 20.9965 0.4701
31.5600 21.0098 0.4848
31.5800 21.0232 0.4673
31.6000 21.0366 0.4762
31.6200 21.0499 0.4905
31.6400 21.0631 0.4707
31.6600 21.0765 0.4708
31.6800 21.0898 0.4785
31.7000 21.1031 0.4590
31.7200 21.1165 0.4671
31.7400 21.1298 0.4676
31.7600 21.1432 0.4586
31.7800 21.1565 0.4699
31.8000 21.1698 0.4651
31.8200 21.1832 0.4568
31.8400 21.1965 0.4716
31.8600 21.2099 0.4604
31.8800 21.2232 0.4602
31.9000 21.2365 0.4702
31.9200 21.2498 0.4576
31.9400 21.2632 0.4571
31.9600 21.2765 0.4658
31.9800 21.2898 0.4560
32.0000 21.3031 0.4585
32.0200 21.3164 0.4645
32.0400 21.3298 0.4555
32.0600 21.3431 0.4619
32.0800 21.3565 0.4590
32.1000 21.3698 0.4516
32.1200 21.3832 0.4587
32.1400 21.3966 0.4522
32.1600 21.4099 0.4471
32.1800 21.4232 0.4623
32.2000 21.4365 0.4594
32.2200 21.4499 0.4538
32.2400 21.4632 0.4504
32.2600 21.4765 0.4396
32.2800 21.4898 0.4362
32.3000 21.5031 0.4450
32.3200 21.5165 0.4292
32.3400 21.5298 0.4366
32.3600 21.5431 0.4440
32.3800 21.5564 0.4271
32.4000 21.5698 0.4423
32.4200 21.5832 0.4509
32.4400 21.5965 0.4348
32.4600 21.6098 0.4478
32.4800 21.6232 0.4380
32.5000 21.6365 0.4245
32.5200 21.6499 0.4363
32.5400 21.6632 0.4296
32.5600 21.6765 0.4134
32.5800 21.6899 0.4319
32.6000 21.7032 0.4248
32.6200 21.7165 0.4190
32.6400 21.7298 0.4285
32.6600 21.7432 0.4252
32.6800 21.7565 0.4234
32.7000 21.7698 0.4232
32.7200 21.7831 0.4270
32.7400 21.7964 0.4284
32.7600 21.8098 0.4226
32.7800 21.8231 0.4193
32.8000 21.8365 0.4278
32.8200 21.8498 0.4199
32.8400 21.8632 0.4152
32.8600 21.8766 0.4198
32.8800 21.8899 0.4143
32.9000 21.9032 0.4109
32.9200 21.9165 0.4219
32.9400 21.9299 0.4036
32.9600 21.9432 0.4075
32.9800 21.9565 0.4145
33.0000 21.9698 0.4015
33.0200 21.9832 0.4123
33.0400 21.9965 0.4150
33.0600 22.0099 0.3958
33.0800 22.0232 0.4141
33.1000 22.0365 0.4097
33.1200 22.0498 0.3988
33.1400 22.0631 0.4127
33.1600 22.0765 0.4050
33.1800 22.0898 0.3973
33.2000 22.1032 0.4147
33.2200 22.1166 0.3989
33.2400 22.1299 0.3998
33.2600 22.1432 0.4105
33.2800 22.1565 0.4013
33.3000 22.1699 0.4037
33.3200 22.1832 0.4039
33.3400 22.1965 0.4000
33.3600 22.2098 0.3979
33.3800 22.2231 0.4105
33.4000 22.2365 0.3953
33.4200 22.2498 0.3964
33.4400 22.2631 0.4013
33.4600 22.2765 0.3976
33.4800 22.2898 0.3984
33.5000 22.3032 0.3998
33.5200 22.3165 0.3960
33.5400 22.3298 0.3997
33.5600 22.3431 0.3967
33.5800 22.3565 0.3997
33.6000 22.3698 0.3987
33.6200 22.3831 0.4003
33.6400 22.3965 0.3922
33.6600 22.4099 0.3932
33.6800 22.4232 0.3931
33.7000 22.4365 0.3940
33.7200 22.4499 0.3948
33.7400 22.4632 0.3900
33.7600 22.4766 0.3945
33.7800 22.4899 0.3862
33.8000 22.5031 0.3880
33.8200 22.5164 0.3917
33.8400 22.5298 0.3849
33.8600 22.5431 0.3804
33.8800 22.5564 0.3872
33.9000 22.5698 0.3882
33.9200 22.5832 0.3798
33.9400 22.5966 0.3902
33.9600 22.6099 0.3875
33.9800 22.6232 0.3707
34.0000 22.6366 0.3921
34.0200 22.6499 0.3804
34.0400 22.6633 0.3718
34.0600 22.6766 0.3870
34.0800 22.6899 0.3790
34.1000 22.7031 0.3679
34.1200 22.7165 0.3870
34.1400 22.7298 0.3717
34.1600 22.7431 0.3642
34.1800 22.7564 0.3819
34.2000 22.7698 0.3670
34.2200 22.7831 0.3590
34.2400 22.7965 0.3812
34.2600 22.8098 0.3669
34.2800 22.8232 0.3661
34.3000 22.8366 0.3767
34.3200 22.8499 0.3632
34.3400 22.8632 0.3642
34.3600 22.8766 0.3743
34.3800 22.8899 0.3602
34.4000 22.9032 0.3602
34.4200 22.9165 0.3737
34.4400 22.9298 0.3591
34.4600 22.9431 0.3567
34.4800 22.9565 0.3772
34.5000 22.9698 0.3568
34.5200 22.9831 0.3436
34.5400 22.9964 0.3698
34.5600 23.0098 0.3603
34.5800 23.0231 0.3472
34.6000 23.0365 0.3647
34.6200 23.0498 0.3659
34.6400 23.0631 0.3440
34.6600 23.0765 0.3612
34.6800 23.0899 0.3598
34.7000 23.1032 0.3515
34.7200 23.1165 0.3569
34.7400 23.1299 0.3543
34.7600 23.1432 0.3560
34.7800 23.1565 0.3597
34.8000 23.1698 0.3499
34.8200 23.1832 0.3445
34.8400 23.1965 0.3575
34.8600 23.2099 0.3432
34.8800 23.2231 0.3367
34.9000 23.2364 0.3602
34.9200 23.2498 0.3463
34.9400 23.2631 0.3274
34.9600 23.2765 0.3530
34.9800 23.2898 0.3548
35.0000 23.3032 0.3418
35.0200 23.3166 0.3564
35.0400 23.3299 0.3618
35.0600 23.3432 0.3411
35.0800 23.3565 0.3498
35.1000 23.3699 0.3539
35.1200 23.3832 0.3414
35.1400 23.3965 0.3455
35.1600 23.4098 0.3522
35.1800 23.4231 0.3290
35.2000 23.4365 0.3421
35.2200 23.4498 0.3540
35.2400 23.4632 0.3390
35.2600 23.4765 0.3414
35.2800 23.4898 0.3450
35.3000 23.5031 0.3289
35.3200 23.5165 0.3402
35.3400 23.5298 0.3361
35.3600 23.5432 0.3253
35.3800 23.5565 0.3406
35.4000 23.5699 0.3338
35.4200 23.5832 0.3159
35.4400 23.5965 0.3371
35.4600 23.6099 0.3357
35.4800 23.6233 0.3148
35.5000 23.6366 0.3308
35.5200 23.6499 0.3305
35.5400 23.6632 0.3215
35.5600 23.6765 0.3261
35.5800 23.6898 0.3288
35.6000 23.7031 0.3189
35.6200 23.7165 0.3253
35.6400 23.7298 0.3225
35.6600 23.7431 0.3248
35.6800 23.7565 0.3159
35.7000 23.7698 0.3224
35.7200 23.7832 0.3208
35.7400 23.7965 0.3156
35.7600 23.8099 0.3185
35.7800 23.8232 0.3207
35.8000 23.8365 0.3161
35.8200 23.8499 0.3241
35.8400 23.8632 0.3197
35.8600 23.8765 0.3143
35.8800 23.8899 0.3260
35.9000 23.9032 0.3195
35.9200 23.9165 0.3098
35.9400 23.9298 0.3277
35.9600 23.9431 0.3115
35.9800 23.9564 0.3074
36.0000 23.9697 0.3261
36.0200 23.9831 0.3128
36.0400 23.9964 0.3052
36.0600 24.0098 0.3220
36.0800 24.0231 0.3126
36.1000 24.0365 0.3015
36.1200 24.0499 0.3224
36.1400 24.0633 0.3010
36.1600 24.0766 0.3090
36.1800 24.0899 0.3211
36.2000 24.1033 0.2993
36.2200 24.1166 0.3089
36.2400 24.1298 0.3213
36.2600 24.1431 0.2958
36.2800 24.1565 0.3150
36.3000 24.1698 0.3139
36.3200 24.1831 0.2964
36.3400 24.1964 0.3134
36.3600 24.2098 0.3114
36.3800 24.2232 0.2941
36.4000 24.2365 0.3182
36.4200 24.2498 0.3042
36.4400 24.2632 0.2915
36.4600 24.2765 0.3130
36.4800 24.2899 0.2973
36.5000 24.3032 0.2901
36.5200 24.3165 0.3182
36.5400 24.3299 0.2949
36.5600 24.3432 0.2908
36.5800 24.3565 0.3134
36.6000 24.3698 0.2916
36.6200 24.3831 0.2953
36.6400 24.3965 0.3090
36.6600 24.4098 0.2887
36.6800 24.4231 0.2917
36.7000 24.4365 0.3098
36.7200 24.4498 0.2866
36.7400 24.4632 0.2958
36.7600 24.4765 0.3030
36.7800 24.4898 0.2867
36.8000 24.5032 0.2917
36.8200 24.5165 0.3036
36.8400 24.5299 0.2806
36.8600 24.5432 0.2910
36.8800 24.5565 0.2964
36.9000 24.5699 0.2820
36.9200 24.5832 0.2851
36.9400 24.5966 0.2961
36.9600 24.6098 0.2794
36.9800 24.6231 0.2849
37.0000 24.6365 0.2913
37.0200 24.6498 0.2787
37.0400 24.6631 0.2844
37.0600 24.6764 0.2912
37.0800 24.6898 0.2783
37.1000 24.7031 0.2802
37.1200 24.7165 0.2885
37.1400 24.7298 0.2775
37.1600 24.7432 0.2794
37.1800 24.7565 0.2865
37.2000 24.7699 0.2745
37.2200 24.7832 0.2758
37.2400 24.7965 0.2887
37.2600 24.8099 0.2737
37.2800 24.8232 0.2769
37.3000 24.8365 0.2808
37.3200 24.8498 0.2737
37.3400 24.8631 0.2752
37.3600 24.8765 0.2835
37.3800 24.8898 0.2705
37.4000 24.9032 0.2770
37.4200 24.9165 0.2791
37.4400 24.9298 0.2767
37.4600 24.9432 0.2733
37.4800 24.9565 0.2758
37.5000 24.9698 0.2757
37.5200 24.9831 0.2767
37.5400 24.9965 0.2736
37.5600 25.0099 0.2728
37.5800 25.0232 0.2752
37.6000 25.0365 0.2808
37.6200 25.0498 0.2746
37.6400 25.0632 0.2720
37.6600 25.0766 0.2819
37.6800 25.0899 0.2690
37.7000 25.1032 0.2700
37.7200 25.1165 0.2872
37.7400 25.1298 0.2628
37.7600 25.1431 0.2673
37.7800 25.1564 0.2820
37.8000 25.1697 0.2628
37.8200 25.1831 0.2696
37.8400 25.1965 0.2820
37.8600 25.2098 0.2601
37.8800 25.2232 0.2646
37.9000 25.2365 0.2795
37.9200 25.2499 0.2560
37.9400 25.2632 0.2730
37.9600 25.2765 0.2745
37.9800 25.2899 0.2566
38.0000 25.3032 0.2665
38.0200 25.3166 0.2692
38.0400 25.3299 0.2550
38.0600 25.3432 0.2729
38.0800 25.3565 0.2625
38.1000 25.3699 0.2506
38.1200 25.3832 0.2702
38.1400 25.3964 0.2675
38.1600 25.4098 0.2485
38.1800 25.4231 0.2667
38.2000 25.4365 0.2641
38.2200 25.4498 0.2497
38.2400 25.4631 0.2624
38.2600 25.4765 0.2570
38.2800 25.4899 0.2536
38.3000 25.5032 0.2591
38.3200 25.5166 0.2609
38.3400 25.5299 0.2565
38.3600 25.5432 0.2546
38.3800 25.5565 0.2547
38.4000 25.5698 0.2556
38.4200 25.5831 0.2528
38.4400 25.5964 0.2648
38.4600 25.6098 0.2479
38.4800 25.6231 0.2433
38.5000 25.6364 0.2607
38.5200 25.6498 0.2514
38.5400 25.6632 0.2453
38.5600 25.6765 0.2581
38.5800 25.6899 0.2444
38.6000 25.7032 0.2431
38.6200 25.7165 0.2573
38.6400 25.7299 0.2412
38.6600 25.7432 0.2433
38.6800 25.7565 0.2590
38.7000 25.7698 0.2321
38.7200 25.7832 0.2479
38.7400 25.7966 0.2564
38.7600 25.8099 0.2228
38.7800 25.8232 0.2574
38.8000 25.8365 0.2544
38.8200 25.8499 0.2257
38.8400 25.8632 0.2527
38.8600 25.8765 0.2474
38.8800 25.8898 0.2289
38.9000 25.9031 0.2517
38.9200 25.9165 0.2429
38.9400 25.9298 0.2331
38.9600 25.9431 0.2500
38.9800 25.9565 0.2365
39.0000 25.9698 0.2337
39.0200 25.9832 0.2498
39.0400 25.9965 0.2294
39.0600 26.0098 0.2412
39.0800 26.0232 0.2395
39.1000 26.0365 0.2248
39.1200 26.0499 0.2381
39.1400 26.0632 0.2423
39.1600 26.0765 0.2253
39.1800 26.0899 0.2380
39.2000 26.1032 0.2363
39.2200 26.1165 0.2272
39.2400 26.1298 0.2392
39.2600 26.1431 0.2333
39.2800 26.1564 0.2227
39.3000 26.1698 0.2377
39.3200 26.1831 0.2272
39.3400 26.1965 0.2292
39.3600 26.2099 0.2359
39.3800 26.2232 0.2227
39.4000 26.2366 0.2266
39.4200 26.2499 0.2335
39.4400 26.2632 0.2249
39.4600 26.2766 0.2221
39.4800 26.2899 0.2329
39.5000 26.3031 0.2188
39.5200 26.3165 0.2293
39.5400 26.3298 0.2291
39.5600 26.3432 0.2160
39.5800 26.3565 0.2306
39.6000 26.3698 0.2283
39.6200 26.3831 0.2139
39.6400 26.3965 0.2312
39.6600 26.4098 0.2256
39.6800 26.4232 0.2192
39.7000 26.4365 0.2309
39.7200 26.4499 0.2197
39.7400 26.4632 0.2228
39.7600 26.4765 0.2312
39.7800 26.4899 0.2167
39.8000 26.5032 0.2278
39.8200 26.5166 0.2303
39.8400 26.5299 0.2159
39.8600 26.5432 0.2292
39.8800 26.5565 0.2296
39.9000 26.5698 0.2160
39.9200 26.5832 0.2307
39.9400 26.5964 0.2207
39.9600 26.6097 0.2179
39.9800 26.6231 0.2350
40.0000 26.6364 0.2160
40.0200 26.6498 0.2253
40.0400 26.6631 0.2229
40.0600 26.6765 0.2133
40.0800 26.6899 0.2219
40.1000 26.7032 0.2250
40.1200 26.7165 0.2128
40.1400 26.7299 0.2235
40.1600 26.7432 0.2189
40.1800 26.7566 0.2126
40.2000 26.7699 0.2200
40.2200 26.7832 0.2141
40.2400 26.7965 0.2157
40.2600 26.8098 0.2201
40.2800 26.8232 0.2038
40.3000 26.8365 0.2211
40.3200 26.8498 0.2189
40.3400 26.8631 0.1956
40.3600 26.8765 0.2163
40.3800 26.8898 0.2108
40.4000 26.9031 0.2024
40.4200 26.9165 0.2186
40.4400 26.9299 0.2109
40.4600 26.9432 0.1999
40.4800 26.9565 0.2163
40.5000 26.9698 0.2077
40.5200 26.9832 0.2012
40.5400 26.9966 0.2176
40.5600 27.0099 0.2044
40.5800 27.0232 0.1990
40.6000 27.0365 0.2188
40.6200 27.0498 0.2014
40.6400 27.0632 0.2036
40.6600 27.0765 0.2175
40.6800 27.0898 0.1998
40.7000 27.1031 0.2006
40.7200 27.1165 0.2158
40.7400 27.1298 0.1959
40.7600 27.1432 0.2055
40.7800 27.1565 0.2076
40.8000 27.1698 0.1973
40.8200 27.1832 0.2058
40.8400 27.1965 0.2026
40.8600 27.2098 0.1968
40.8800 27.2232 0.2111
40.9000 27.2365 0.1970
40.9200 27.2499 0.1954
40.9400 27.2632 0.2146
40.9600 27.2765 0.1928
40.9800 27.2899 0.1961
41.0000 27.3032 0.2114
41.0200 27.3165 0.1938
41.0400 27.3298 0.1981
41.0600 27.3431 0.2076
41.0800 27.3565 0.1908
41.1000 27.3698 0.2017
41.1200 27.3831 0.2076
41.1400 27.3965 0.1898
41.1600 27.4099 0.1965
41.1800 27.4233 0.2043
41.2000 27.4366 0.1856
41.2200 27.4499 0.2052
41.2400 27.4632 0.1980
41.2600 27.4766 0.1847
41.2800 27.4899 0.2030
41.3000 27.5032 0.1971
41.3200 27.5165 0.1897
41.3400 27.5298 0.2026
41.3600 27.5431 0.1935
41.3800 27.5565 0.1861
41.4000 27.5698 0.2003
41.4200 27.5831 0.1947
41.4400 27.5965 0.1841
41.4600 27.6098 0.2010
41.4800 27.6231 0.1884
41.5000 27.6365 0.1839
41.5200 27.6498 0.1952
41.5400 27.6632 0.1880
41.5600 27.6766 0.1868
41.5800 27.6899 0.1914
41.6000 27.7032 0.1882
41.6200 27.7166 0.1855
41.6400 27.7299 0.1863
41.6600 27.7432 0.1898
41.6800 27.7565 0.1864
41.7000 27.7698 0.1855
41.7200 27.7832 0.1904
41.7400 27.7965 0.1804
41.7600 27.8098 0.1840
41.7800 27.8231 0.1905
41.8000 27.8365 0.1818
41.8200 27.8498 0.1792
41.8400 27.8632 0.1913
41.8600 27.8765 0.1750
41.8800 27.8898 0.1844
41.9000 27.9032 0.1889
41.9200 27.9165 0.1717
41.9400 27.9299 0.1827
41.9600 27.9432 0.1897
41.9800 27.9566 0.1681
42.0000 27.9699 0.1812
42.0200 27.9832 0.1857
42.0400 27.9965 0.1716
42.0600 28.0098 0.1867
42.0800 28.0232 0.1806
42.1000 28.0365 0.1704
42.1200 28.0498 0.1890
42.1400 28.0631 0.1744
42.1600 28.0765 0.1709
42.1800 28.0898 0.1918
42.2000 28.1031 0.1655
42.2200 28.1165 0.1706
42.2400 28.1299 0.1911
42.2600 28.1432 0.1731
42.2800 28.1566 0.1685
42.3000 28.1699 0.1853
42.3200 28.1832 0.1736
42.3400 28.1965 0.1705
42.3600 28.2099 0.1763
42.3800 28.2232 0.1724
42.4000 28.2365 0.1716
42.4200 28.2498 0.1750
42.4400 28.2632 0.1653
42.4600 28.2765 0.1731
42.4800 28.2898 0.1705
42.5000 28.3031 0.1749
42.5200 28.3165 0.1721
42.5400 28.3298 0.1688
42.5600 28.3431 0.1710
42.5800 28.3565 0.1712
42.6000 28.3698 0.1724
42.6200 28.3832 0.1678
42.6400 28.3966 0.1677
42.6600 28.4099 0.1698
42.6800 28.4232 0.1701
42.7000 28.4366 0.1646
42.7200 28.4499 0.1691
42.7400 28.4632 0.1704
42.7600 28.4765 0.1553
42.7800 28.4898 0.1704
42.8000 28.5032 0.1755
42.8200 28.5165 0.1552
42.8400 28.5298 0.1713
42.8600 28.5431 0.1691
42.8800 28.5564 0.1553
42.9000 28.5698 0.1593
42.9200 28.5832 0.1740
42.9400 28.5965 0.1552
42.9600 28.6098 0.1633
42.9800 28.6232 0.1687
43.0000 28.6365 0.1542
43.0200 28.6498 0.1608
43.0400 28.6632 0.1641
43.0600 28.6765 0.1553
43.0800 28.6899 0.1623
43.1000 28.7032 0.1615
43.1200 28.7165 0.1555
43.1400 28.7298 0.1658
43.1600 28.7432 0.1602
43.1800 28.7565 0.1537
43.2000 28.7698 0.1628
43.2200 28.7831 0.1618
43.2400 28.7964 0.1536
43.2600 28.8098 0.1620
43.2800 28.8231 0.1605
43.3000 28.8364 0.1539
43.3200 28.8498 0.1551
43.3400 28.8632 0.1591
43.3600 28.8766 0.1515
43.3800 28.8899 0.1549
43.4000 28.9033 0.1619
43.4200 28.9166 0.1509
43.4400 28.9299 0.1485
43.4600 28.9432 0.1592
43.4800 28.9565 0.1443
43.5000 28.9698 0.1564
43.5200 28.9831 0.1559
43.5400 28.9965 0.1428
43.5600 29.0098 0.1524
43.5800 29.0231 0.1606
43.6000 29.0365 0.1391
43.6200 29.0498 0.1501
43.6400 29.0632 0.1565
43.6600 29.0765 0.1371
43.6800 29.0899 0.1519
43.7000 29.1033 0.1556
43.7200 29.1166 0.1411
43.7400 29.1299 0.1520
43.7600 29.1432 0.1493
43.7800 29.1565 0.1398
43.8000 29.1699 0.1497
43.8200 29.1832 0.1476
43.8400 29.1965 0.1410
43.8600 29.2098 0.1437
43.8800 29.2232 0.1480
43.9000 29.2365 0.1362
43.9200 29.2498 0.1451
43.9400 29.2631 0.1443
43.9600 29.2764 0.1393
43.9800 29.2898 0.1414
44.0000 29.3032 0.1464
44.0200 29.3165 0.1334
44.0400 29.3299 0.1449
44.0600 29.3432 0.1401
44.0800 29.3566 0.1364
44.1000 29.3699 0.1397
44.1200 29.3832 0.1407
44.1400 29.3965 0.1325
44.1600 29.4099 0.1348
44.1800 29.4232 0.1421
44.2000 29.4365 0.1340
44.2200 29.4498 0.1353
44.2400 29.4632 0.1407
44.2600 29.4765 0.1335
44.2800 29.4898 0.1389
44.3000 29.5031 0.1370
44.3200 29.5164 0.1336
44.3400 29.5298 0.1362
44.3600 29.5431 0.1359
44.3800 29.5565 0.1347
44.4000 29.5698 0.1325
44.4200 29.5832 0.1346
44.4400 29.5966 0.1323
44.4600 29.6099 0.1287
44.4800 29.6232 0.1328
44.5000 29.6365 0.1360
44.5200 29.6499 0.1251
44.5400 29.6632 0.1357
44.5600 29.6765 0.1366
44.5800 29.6898 0.1265
44.6000 29.7032 0.1321
44.6200 29.7165 0.1326
44.6400 29.7298 0.1267
44.6600 29.7431 0.1360
44.6800 29.7564 0.1299
44.7000 29.7698 0.1273
44.7200 29.7831 0.1308
44.7400 29.7965 0.1302
44.7600 29.8098 0.1225
44.7800 29.8232 0.1330
44.8000 29.8365 0.1281
44.8200 29.8499 0.1199
44.8400 29.8632 0.1350
44.8600 29.8765 0.1276
44.8800 29.8899 0.1158
44.9000 29.9032 0.1335
44.9200 29.9165 0.1279
44.9400 29.9298 0.1131
44.9600 29.9432 0.1318
44.9800 29.9565 0.1274
45.0000 29.9698 0.1155
45.0200 29.9831 0.1271
45.0400 29.9965 0.1273
45.0600 30.0098 0.1170
45.0800 30.0231 0.1320
45.1000 30.0365 0.1211
45.1200 30.0498 0.1159
45.1400 30.0632 0.1272
45.1600 30.0766 0.1173
45.1800 30.0899 0.1126
45.2000 30.1032 0.1296
45.2200 30.1165 0.1187
45.2400 30.1299 0.1116
45.2600 30.1432 0.1301
45.2800 30.1565 0.1325
45.3000 30.1698 0.0906
45.3200 30.1831 0.1259
45.3400 30.1965 0.1422
45.3600 30.2098 0.0980
45.3800 30.2231 0.1057
45.4000 30.2364 0.1332
45.4200 30.2498 0.1031
45.4400 30.2631 0.1097
45.4600 30.2765 0.1401
45.4800 30.2898 0.0842
45.5000 30.3032 0.1077
45.5200 30.3166 0.1478
45.5400 30.3299 0.0861
45.5600 30.3432 0.1021
45.5800 30.3566 0.1449
45.6000 30.3699 0.0875
45.6200 30.3832 0.1044
45.6400 30.3965 0.1358
45.6600 30.4098 0.0918
45.6800 30.4231 0.1083
45.7000 30.4365 0.1330
45.7200 30.4498 0.0851
45.7400 30.4631 0.1172
45.7600 30.4765 0.1261
45.7800 30.4898 0.0813
45.8000 30.5032 0.1152
45.8200 30.5165 0.1255
45.8400 30.5298 0.0870
45.8600 30.5432 0.1150
45.8800 30.5566 0.1120
45.9000 30.5699 0.0971
45.9200 30.5832 0.1175
45.9400 30.5965 0.1031
45.9600 30.6099 0.0991
45.9800 30.6232 0.1131
46.0000 30.6365 0.1058
46.0200 30.6499 0.1048
46.0400 30.6632 0.1123
46.0600 30.6766 0.0976
46.0800 30.6898 0.1056
46.1000 30.7031 0.1116
46.1200 30.7164 0.1010
46.1400 30.7298 0.1102
46.1600 30.7431 0.1025
46.1800 30.7565 0.0960
46.2000 30.7698 0.1131
46.2200 30.7832 0.1001
46.2400 30.7965 0.1023
46.2600 30.8099 0.1031
46.2800 30.8232 0.0998
46.3000 30.8365 0.1076
46.3200 30.8499 0.1078
46.3400 30.8632 0.0946
46.3600 30.8765 0.1020
46.3800 30.8899 0.1063
46.4000 30.9032 0.0978
46.4200 30.9166 0.1037
46.4400 30.9299 0.0982
46.4600 30.9431 0.0972
46.4800 30.9564 0.1063
46.5000 30.9698 0.0932
46.5200 30.9831 0.0985
46.5400 30.9965 0.1006
46.5600 31.0098 0.0944
46.5800 31.0232 0.1002
46.6000 31.0366 0.0937
46.6200 31.0499 0.0949
46.6400 31.0632 0.0985
46.6600 31.0765 0.0979
46.6800 31.0899 0.0879
46.7000 31.1032 0.0973
46.7200 31.1165 0.0988
46.7400 31.1298 0.0909
46.7600 31.1432 0.0984
46.7800 31.1565 0.0908
46.8000 31.1698 0.0933
46.8200 31.1831 0.0975
46.8400 31.1965 0.0892
46.8600 31.2098 0.0992
46.8800 31.2232 0.0892
46.9000 31.2365 0.0908
46.9200 31.2498 0.0898
46.9400 31.2632 0.0923
46.9600 31.2765 0.0950
46.9800 31.2899 0.0875
47.0000 31.3032 0.0875
47.0200 31.3165 0.0899
47.0400 31.3299 0.0974
47.0600 31.3432 0.0817
47.0800 31.3565 0.0842
47.1000 31.3698 0.0966
47.1200 31.3832 0.0791
47.1400 31.3965 0.0871
47.1600 31.4098 0.0949
47.1800 31.4231 0.0787
47.2000 31.4364 0.0876
47.2200 31.4498 0.0836
47.2400 31.4631 0.0811
47.2600 31.4765 0.0849
47.2800 31.4898 0.0868
47.3000 31.5032 0.0736
47.3200 31.5166 0.0830
47.3400 31.5299 0.0822
47.3600 31.5432 0.0758
47.3800 31.5565 0.0850
47.4000 31.5699 0.0863
47.4200 31.5832 0.0691
47.4400 31.5965 0.0812
47.4600 31.6098 0.0876
47.4800 31.6232 0.0743
47.5000 31.6365 0.0770
47.5200 31.6498 0.0866
47.5400 31.6631 0.0757
47.5600 31.6765 0.0763
47.5800 31.6898 0.0840
47.6000 31.7031 0.0681
47.6200 31.7165 0.0755
47.6400 31.7298 0.0824
47.6600 31.7432 0.0684
47.6800 31.7566 0.0709
47.7000 31.7699 0.0837
47.7200 31.7832 0.0648
47.7400 31.7965 0.0701
47.7600 31.8099 0.0924
47.7800 31.8232 0.0643
47.8000 31.8365 0.0649
47.8200 31.8498 0.0912
47.8400 31.8631 0.0554
47.8600 31.8765 0.0688
47.8800 31.8898 0.0841
47.9000 31.9031 0.0545
47.9200 31.9165 0.0667
47.9400 31.9298 0.0822
47.9600 31.9431 0.0506
47.9800 31.9565 0.0723
48.0000 31.9698 0.0736
48.0200 31.9831 0.0491
48.0400 31.9965 0.0692
48.0600 32.0098 0.0724
48.0800 32.0232 0.0510
48.1000 32.0365 0.0708
48.1200 32.0498 0.0714
48.1400 32.0632 0.0543
48.1600 32.0765 0.0654
48.1800 32.0898 0.0715
48.2000 32.1032 0.0619
48.2200 32.1166 0.0632
48.2400 32.1299 0.0673
48.2600 32.1432 0.0586
48.2800 32.1564 0.0613
48.3000 32.1698 0.0705
48.3200 32.1831 0.0586
48.3400 32.1964 0.0541
48.3600 32.2098 0.0722
48.3800 32.2231 0.0564
48.4000 32.2365 0.0537
48.4200 32.2499 0.0676
48.4400 32.2632 0.0565
48.4600 32.2766 0.0534
48.4800 32.2899 0.0735
48.5000 32.3032 0.0540
48.5200 32.3166 0.0578
48.5400 32.3298 0.0704
48.5600 32.3431 0.0528
48.5800 32.3565 0.0567
48.6000 32.3698 0.0700
48.6200 32.3831 0.0513
48.6400 32.3964 0.0550
48.6600 32.4098 0.0649
48.6800 32.4231 0.0515
48.7000 32.4365 0.0549
48.7200 32.4498 0.0625
48.7400 32.4632 0.0556
48.7600 32.4765 0.0528
48.7800 32.4899 0.0587
48.8000 32.5032 0.0566
48.8200 32.5166 0.0552
48.8400 32.5299 0.0537
48.8600 32.5433 0.0554
48.8800 32.5565 0.0509
48.9000 32.5698 0.0559
48.9200 32.5831 0.0532
48.9400 32.5965 0.0510
48.9600 32.6098 0.0558
48.9800 32.6231 0.0546
49.0000 32.6364 0.0509
49.0200 32.6498 0.0585
49.0400 32.6631 0.0484
49.0600 32.6765 0.0468
49.0800 32.6898 0.0587
49.1000 32.7032 0.0505
49.1200 32.7165 0.0425
49.1400 32.7299 0.0607
49.1600 32.7432 0.0461
49.1800 32.7565 0.0440
49.2000 32.7699 0.0578
49.2200 32.7832 0.0468
49.2400 32.7965 0.0475
49.2600 32.8099 0.0557
49.2800 32.8232 0.0406
49.3000 32.8365 0.0490
49.3200 32.8499 0.0571
49.3400 32.8631 0.0374
49.3600 32.8764 0.0497
49.3800 32.8897 0.0546
49.4000 32.9031 0.0341
49.4200 32.9165 0.0521
49.4400 32.9298 0.0571
49.4600 32.9432 0.0271
49.4800 32.9566 0.0551
49.5000 32.9699 0.0486
49.5200 32.9832 0.0352
49.5400 32.9965 0.0550
49.5600 33.0099 0.0467
49.5800 33.0232 0.0341
49.6000 33.0365 0.0547
49.6200 33.0498 0.0395
49.6400 33.0631 0.0379
49.6600 33.0765 0.0514
49.6800 33.0898 0.0380
49.7000 33.1031 0.0393
49.7200 33.1165 0.0512
49.7400 33.1298 0.0332
49.7600 33.1431 0.0433
49.7800 33.1565 0.0443
49.8000 33.1698 0.0379
49.8200 33.1831 0.0412
49.8400 33.1965 0.0427
49.8600 33.2099 0.0332
49.8800 33.2232 0.0420
49.9000 33.2365 0.0432
49.9200 33.2499 0.0321
49.9400 33.2633 0.0413
49.9600 33.2766 0.0336
49.9800 33.2899 0.0359
50.0000 33.3032 0.0433
50.0200 33.3165 0.0320
50.0400 33.3298 0.0367
50.0600 33.3432 0.0391
50.0800 33.3565 0.0281
50.1000 33.3698 0.0399
50.1200 33.3831 0.0366
50.1400 33.3965 0.0295
50.1600 33.4098 0.0343
50.1800 33.4232 0.0338
50.2000 33.4365 0.0276
50.2200 33.4499 0.0376
50.2400 33.4632 0.0296
50.2600 33.4765 0.0299
50.2800 33.4899 0.0341
50.3000 33.5032 0.0284
50.3200 33.5166 0.0262
50.3400 33.5299 0.0355
50.3600 33.5432 0.0263
50.3800 33.5565 0.0322
50.4000 33.5699 0.0350
50.4200 33.5831 0.0237
50.4400 33.5964 0.0363
50.4600 33.6098 0.0309
50.4800 33.6231 0.0208
50.5000 33.6364 0.0317
50.5200 33.6498 0.0293
50.5400 33.6631 0.0234
50.5600 33.6765 0.0311
50.5800 33.6899 0.0232
50.6000 33.7032 0.0231
50.6200 33.7166 0.0311
50.6400 33.7299 0.0223
50.6600 33.7432 0.0228
50.6800 33.7565 0.0273
50.7000 33.7698 0.0174
50.7200 33.7831 0.0326
50.7400 33.7965 0.0255
50.7600 33.8098 0.0180
50.7800 33.8231 0.0312
50.8000 33.8364 0.0211
50.8200 33.8498 0.0194
50.8400 33.8631 0.0317
50.8600 33.8765 0.0184
50.8800 33.8898 0.0184
50.9000 33.9032 0.0300
50.9200 33.9165 0.0174
50.9400 33.9299 0.0179
50.9600 33.9432 0.0319
50.9800 33.9565 0.0146
51.0000 33.9698 0.0204
51.0200 33.9832 0.0300
51.0400 33.9965 0.0132
51.0600 34.0098 0.0198
51.0800 34.0231 0.0260
51.1000 34.0365 0.0161
51.1200 34.0498 0.0213
51.1400 34.0631 0.0242
51.1600 34.0764 0.0116
51.1800 34.0898 0.0255
51.2000 34.1031 0.0216
51.2200 34.1165 0.0139
51.2400 34.1298 0.0206
51.2600 34.1432 0.0193
51.2800 34.1565 0.0120
51.3000 34.1699 0.0282
51.3200 34.1832 0.0178
51.3400 34.1965 0.0103
51.3600 34.2099 0.0184
51.3800 34.2232 0.0163
51.4000 34.2366 0.0114
51.4200 34.2499 0.0152
51.4400 34.2632 0.0168
51.4600 34.2765 0.0166
51.4800 34.2899 0.0115
51.5000 34.3032 0.0116
51.5200 34.3164 0.0178
51.5400 34.3298 0.0139
51.5600 34.3431 0.0143
51.5800 34.3565 0.0105
51.6000 34.3698 0.0099
51.6200 34.3831 0.0124
51.6400 34.3965 0.0111
51.6600 34.4099 0.0057
51.6800 34.4232 0.0105
51.7000 34.4366 0.0083
51.7200 34.4499 0.0079
51.7400 34.4632 0.0080
51.7600 34.4766 0.0101
51.7800 34.4898 0.0082
51.8000 34.5031 0.0055
51.8200 34.5165 0.0083
51.8400 34.5298 0.0054
51.8600 34.5432 -0.0023
51.8800 34.5565 0.0119
51.9000 34.5698 0.0050
51.9200 34.5831 -0.0016
51.9400 34.5965 0.0089
51.9600 34.6098 0.0077
51.9800 34.6231 -0.0076
52.0000 34.6365 0.0110
52.0200 34.6498 0.0001
52.0400 34.6632 -0.0044
52.0600 34.6765 0.0117
52.0800 34.6898 -0.0016
52.1000 34.7032 -0.0047
52.1200 34.7166 0.0111
52.1400 34.7299 -0.0035
52.1600 34.7432 -0.0036
52.1800 34.7565 0.0118
52.2000 34.7698 -0.0062
52.2200 34.7832 -0.0034
52.2400 34.7965 0.0078
52.2600 34.8098 -0.0095
52.2800 34.8231 -0.0039
52.3000 34.8365 0.0070
52.3200 34.8498 -0.0118
52.3400 34.8631 -0.0021
52.3600 34.8765 0.0088
52.3800 34.8899 -0.0099
52.4000 34.9032 -0.0102
52.4200 34.9165 0.0074
52.4400 34.9298 -0.0094
52.4600 34.9432 -0.0078
52.4800 34.9565 0.0067
52.5000 34.9699 -0.0122
52.5200 34.9832 -0.0093
52.5400 34.9965 0.0089
52.5600 35.0098 -0.0155
52.5800 35.0232 -0.0111
52.6000 35.0365 0.0091
52.6200 35.0498 -0.0157
52.6400 35.0631 -0.0168
52.6600 35.0765 0.0060
52.6800 35.0898 -0.0217
52.7000 35.1031 -0.0100
52.7200 35.1165 0.0093
52.7400 35.1299 -0.0262
52.7600 35.1432 -0.0118
52.7800 35.1565 0.0024
52.8000 35.1699 -0.0256
52.8200 35.1832 -0.0072
52.8400 35.1965 0.0040
52.8600 35.2098 -0.0327
52.8800 35.2231 -0.0034
52.9000 35.2364 0.0013
52.9200 35.2498 -0.0267
52.9400 35.2631 -0.0100
52.9600 35.2764 -0.0061
52.9800 35.2898 -0.0296
53.0000 35.3032 -0.0044
53.0200 35.3165 -0.0123
53.0400 35.3299 -0.0267
53.0600 35.3432 -0.0049
53.0800 35.3565 -0.0101
53.1000 35.3699 -0.0233
53.1200 35.3832 -0.0079
53.1400 35.3965 -0.0126
53.1600 35.4098 -0.0254
53.1800 35.4232 -0.0095
53.2000 35.4365 -0.0213
53.2200 35.4499 -0.0225
53.2400 35.4632 -0.0085
53.2600 35.4765 -0.0230
53.2800 35.4899 -0.0224
53.3000 35.5032 -0.0173
53.3200 35.5165 -0.0190
53.3400 35.5298 -0.0209
53.3600 35.5431 -0.0207
53.3800 35.5565 -0.0180
53.4000 35.5698 -0.0278
53.4200 35.5831 -0.0211
53.4400 35.5965 -0.0240
53.4600 35.6098 -0.0227
53.4800 35.6232 -0.0284
53.5000 35.6365 -0.0202
53.5200 35.6498 -0.0238
53.5400 35.6632 -0.0276
53.5600 35.6766 -0.0190
53.5800 35.6899 -0.0286
53.6000 35.7032 -0.0308
53.6200 35.7165 -0.0186
53.6400 35.7299 -0.0350
53.6600 35.7432 -0.0270
53.6800 35.7565 -0.0177
53.7000 35.7698 -0.0347
53.7200 35.7831 -0.0336
53.7400 35.7965 -0.0179
53.7600 35.8098 -0.0354
53.7800 35.8231 -0.0346
53.8000 35.8365 -0.0187
53.8200 35.8499 -0.0369
53.8400 35.8632 -0.0376
53.8600 35.8765 -0.0225
53.8800 35.8899 -0.0346
53.9000 35.9032 -0.0344
53.9200 35.9166 -0.0253
53.9400 35.9299 -0.0391
53.9600 35.9432 -0.0341
53.9800 35.9565 -0.0254
54.0000 35.9698 -0.0373
54.0200 35.9832 -0.0331
54.0400 35.9965 -0.0269
54.0600 36.0098 -0.0396
54.0800 36.0231 -0.0345
54.1000 36.0365 -0.0288
54.1200 36.0499 -0.0371
54.1400 36.0632 -0.0422
54.1600 36.0765 -0.0332
54.1800 36.0898 -0.0378
54.2000 36.1032 -0.0398
54.2200 36.1165 -0.0304
54.2400 36.1299 -0.0399
54.2600 36.1432 -0.0455
54.2800 36.1566 -0.0340
54.3000 36.1699 -0.0423
54.3200 36.1832 -0.0416
54.3400 36.1965 -0.0349
54.3600 36.2098 -0.0470
54.3800 36.2232 -0.0432
54.4000 36.2365 -0.0351
54.4200 36.2498 -0.0436
54.4400 36.2631 -0.0495
54.4600 36.2765 -0.0366
54.4800 36.2898 -0.0459
54.5000 36.3032 -0.0488
54.5200 36.3165 -0.0388
54.5400 36.3299 -0.0445
54.5600 36.3432 -0.0522
54.5800 36.3566 -0.0411
54.6000 36.3699 -0.0452
54.6200 36.3832 -0.0486
54.6400 36.3966 -0.0418
54.6600 36.4099 -0.0441
54.6800 36.4232 -0.0544
54.7000 36.4365 -0.0440
54.7200 36.4498 -0.0449
54.7400 36.4632 -0.0502
54.7600 36.4765 -0.0482
54.7800 36.4898 -0.0484
54.8000 36.5031 -0.0551
54.8200 36.5165 -0.0479
54.8400 36.5298 -0.0453
54.8600 36.5431 -0.0572
54.8800 36.5565 -0.0510
54.9000 36.5698 -0.0435
54.9200 36.5832 -0.0617
54.9400 36.5965 -0.0501
54.9600 36.6099 -0.0424
54.9800 36.6232 -0.0649
55.0000 36.6366 -0.0520
55.0200 36.6499 -0.0498
55.0400 36.6632 -0.0616
55.0600 36.6765 -0.0491
55.0800 36.6898 -0.0450
55.1000 36.7031 -0.0646
55.1200 36.7164 -0.0490
55.1400 36.7298 -0.0459
55.1600 36.7431 -0.0672
55.1800 36.7565 -0.0542
55.2000 36.7698 -0.0482
55.2200 36.7831 -0.0649
55.2400 36.7965 -0.0512
55.2600 36.8098 -0.0535
55.2800 36.8232 -0.0692
55.3000 36.8365 -0.0530
55.3200 36.8498 -0.0527
55.3400 36.8632 -0.0722
55.3600 36.8765 -0.0531
55.3800 36.8899 -0.0565
55.4000 36.9032 -0.0717
55.4200 36.9165 -0.0551
55.4400 36.9299 -0.0551
55.4600 36.9432 -0.0712
55.4800 36.9565 -0.0577
55.5000 36.9698 -0.0594
55.5200 36.9831 -0.0718
55.5400 36.9964 -0.0567
55.5600 37.0098 -0.0639
55.5800 37.0231 -0.0713
55.6000 37.0365 -0.0578
55.6200 37.0499 -0.0623
55.6400 37.0633 -0.0764
55.6600 37.0766 -0.0565
55.6800 37.0899 -0.0635
55.7000 37.1032 -0.0711
55.7200 37.1166 -0.0608
55.7400 37.1299 -0.0653
55.7600 37.1432 -0.0747
55.7800 37.1565 -0.0615
55.8000 37.1698 -0.0676
55.8200 37.1832 -0.0693
55.8400 37.1965 -0.0630
55.8600 37.2098 -0.0737
55.8800 37.2231 -0.0733
55.9000 37.2365 -0.0592
55.9200 37.2498 -0.0756
55.9400 37.2631 -0.0727
55.9600 37.2765 -0.0620
55.9800 37.2898 -0.0767
56.0000 37.3032 -0.0708
56.0200 37.3166 -0.0687
56.0400 37.3299 -0.0770
56.0600 37.3432 -0.0687
56.0800 37.3566 -0.0683
56.1000 37.3699 -0.0847
56.1200 37.3832 -0.0678
56.1400 37.3965 -0.0705
56.1600 37.4098 -0.0838
56.1800 37.4232 -0.0648
56.2000 37.4365 -0.0731
56.2200 37.4498 -0.0845
56.2400 37.4631 -0.0662
56.2600 37.4765 -0.0778
56.2800 37.4898 -0.0776
56.3000 37.5031 -0.0655
56.3200 37.5165 -0.0812
56.3400 37.5298 -0.0828
56.3600 37.5432 -0.0636
56.3800 37.5565 -0.0856
56.4000 37.5698 -0.0814
56.4200 37.5832 -0.0645
56.4400 37.5965 -0.0868
56.4600 37.6099 -0.0817
56.4800 37.6232 -0.0689
56.5000 37.6365 -0.0905
56.5200 37.6498 -0.0770
56.5400 37.6632 -0.0698
56.5600 37.6765 -0.0915
56.5800 37.6898 -0.0776
56.6000 37.7031 -0.0739
56.6200 37.7165 -0.0911
56.6400 37.7298 -0.0806
56.6600 37.7432 -0.0728
56.6800 37.7565 -0.0939
56.7000 37.7698 -0.0822
56.7200 37.7832 -0.0778
56.7400 37.7966 -0.0930
56.7600 37.8099 -0.0836
56.7800 37.8232 -0.0783
56.8000 37.8365 -0.0966
56.8200 37.8499 -0.0815
56.8400 37.8632 -0.0826
56.8600 37.8765 -0.0912
56.8800 37.8898 -0.0888
56.9000 37.9032 -0.0795
56.9200 37.9165 -0.0943
56.9400 37.9298 -0.0890
56.9600 37.9431 -0.0803
56.9800 37.9565 -0.0933
57.0000 37.9698 -0.0871
57.0200 37.9831 -0.0866
57.0400 37.9965 -0.0932
57.0600 38.0098 -0.0880
57.0800 38.0232 -0.0848
57.1000 38.0366 -0.0952
57.1200 38.0499 -0.0896
57.1400 38.0632 -0.0843
57.1600 38.0766 -0.0909
57.1800 38.0899 -0.0961
57.2000 38.1032 -0.0886
57.2200 38.1165 -0.0962
57.2400 38.1298 -0.0966
57.2600 38.1432 -0.0837
57.2800 38.1565 -0.0932
57.3000 38.1698 -0.0997
57.3200 38.1831 -0.0843
57.3400 38.1964 -0.0979
57.3600 38.2098 -0.1000
57.3800 38.2231 -0.0862
57.4000 38.2365 -0.0986
57.4200 38.2498 -0.1051
57.4400 38.2632 -0.0845
57.4600 38.2766 -0.1021
57.4800 38.2899 -0.1016
57.5000 38.3032 -0.0901
57.5200 38.3165 -0.1027
57.5400 38.3299 -0.1048
57.5600 38.3432 -0.0920
57.5800 38.3565 -0.1047
57.6000 38.3698 -0.1034
57.6200 38.3832 -0.0924
57.6400 38.3965 -0.1095
57.6600 38.4098 -0.1039
57.6800 38.4231 -0.0947
57.7000 38.4364 -0.1078
57.7200 38.4498 -0.1101
57.7400 38.4631 -0.0899
57.7600 38.4764 -0.1127
57.7800 38.4898 -0.1070
57.8000 38.5032 -0.0947
57.8200 38.5166 -0.1128
57.8400 38.5299 -0.1115
57.8600 38.5432 -0.0926
57.8800 38.5566 -0.1164
57.9000 38.5699 -0.1114
57.9200 38.5832 -0.1028
57.9400 38.5965 -0.1145
57.9600 38.6098 -0.1085
57.9800 38.6231 -0.1078
58.0000 38.6365 -0.1166
58.0200 38.6498 -0.1126
58.0400 38.6631 -0.1102
58.0600 38.6765 -0.1128
58.0800 38.6898 -0.1105
58.1000 38.7032 -0.1132
58.1200 38.7165 -0.1195
58.1400 38.7299 -0.1111
58.1600 38.7432 -0.1129
58.1800 38.7566 -0.1179
58.2000 38.7699 -0.1125
58.2200 38.7832 -0.1111
58.2400 38.7965 -0.1157
58.2600 38.8099 -0.1233
58.2800 38.8232 -0.1076
58.3000 38.8365 -0.1119
58.3200 38.8498 -0.1267
58.3400 38.8632 -0.1111
58.3600 38.8765 -0.1162
58.3800 38.8898 -0.1320
58.4000 38.9031 -0.1035
58.4200 38.9165 -0.1161
58.4400 38.9298 -0.1277
58.4600 38.9432 -0.1093
58.4800 38.9565 -0.1165
58.5000 38.9699 -0.1321
58.5200 38.9832 -0.1094
58.5400 38.9966 -0.1270
58.5600 39.0099 -0.1244
58.5800 39.0232 -0.1070
58.6000 39.0365 -0.1316
58.6200 39.0499 -0.1240
58.6400 39.0632 -0.1096
58.6600 39.0765 -0.1285
58.6800 39.0898 -0.1223
58.7000 39.1032 -0.1196
58.7200 39.1165 -0.1317
58.7400 39.1298 -0.1229
58.7600 39.1431 -0.1237
58.7800 39.1564 -0.1328
58.8000 39.1698 -0.1280
58.8200 39.1831 -0.1303
58.8400 39.1965 -0.1309
58.8600 39.2098 -0.1280
58.8800 39.2232 -0.1373
58.9000 39.2366 -0.1310
58.9200 39.2499 -0.1336
58.9400 39.2632 -0.1350
58.9600 39.2765 -0.1289
58.9800 39.2899 -0.1350
59.0000 39.3032 -0.1407
59.0200 39.3165 -0.1275
59.0400 39.3298 -0.1412
59.0600 39.3431 -0.1409
59.0800 39.3565 -0.1186
59.1000 39.3698 -0.1434
59.1200 39.3831 -0.1480
59.1400 39.3965 -0.1294
59.1600 39.4098 -0.1486
59.1800 39.4231 -0.1417
59.2000 39.4365 -0.1301
59.2200 39.4498 -0.1510
59.2400 39.4632 -0.1388
59.2600 39.4765 -0.1324
59.2800 39.4899 -0.1545
59.3000 39.5032 -0.1416
59.3200 39.5165 -0.1355
59.3400 39.5299 -0.1587
59.3600 39.5432 -0.1371
59.3800 39.5565 -0.1426
59.4000 39.5698 -0.1558
59.4200 39.5832 -0.1385
59.4400 39.5965 -0.1406
59.4600 39.6098 -0.1622
59.4800 39.6231 -0.1446
59.5000 39.6364 -0.1425
59.5200 39.6498 -0.1610
59.5400 39.6631 -0.1467
59.5600 39.6764 -0.1475
59.5800 39.6898 -0.1609
59.6000 39.7032 -0.1497
59.6200 39.7166 -0.1533
59.6400 39.7299 -0.1530
59.6600 39.7432 -0.1536
59.6800 39.7565 -0.1498
59.7000 39.7699 -0.1621
59.7200 39.7832 -0.1633
59.7400 39.7965 -0.1527
59.7600 39.8098 -0.1509
59.7800 39.8232 -0.1600
59.8000 39.8365 -0.1607
59.8200 39.8498 -0.1532
59.8400 39.8631 -0.1679
59.8600 39.8764 -0.1535
59.8800 39.8898 -0.1592
59.9000 39.9031 -0.1701
59.9200 39.9165 -0.1590
59.9400 39.9298 -0.1592
59.9600 39.9432 -0.1728
59.9800 39.9566 -0.1592
60.0000 39.9699 -0.1614
60.0200 39.9832 -0.1754
60.0400 39.9965 -0.1712
60.0460 40.0004 -0.1805
