Raw Data
Time Displacement Force
(s) (mm) (N)
0.0000 0.0000 0.1078
0.0200 0.0001 0.1230
0.0400 0.0022 0.1834
0.0600 0.0101 0.1788
0.0800 0.0221 0.1014
0.1000 0.0346 0.0995
0.1200 0.0473 0.1376
0.1400 0.0607 0.1155
0.1600 0.0747 0.1005
0.1800 0.0889 0.1230
0.2000 0.1028 0.0997
0.2200 0.1164 0.1032
0.2400 0.1297 0.1192
0.2600 0.1430 0.1048
0.2800 0.1563 0.1079
0.3000 0.1697 0.1192
0.3200 0.1831 0.1039
0.3400 0.1965 0.1084
0.3600 0.2098 0.1171
0.3800 0.2231 0.1070
0.4000 0.2365 0.1052
0.4200 0.2498 0.1164
0.4400 0.2631 0.1075
0.4600 0.2764 0.1034
0.4800 0.2898 0.1137
0.5000 0.3031 0.1045
0.5200 0.3164 0.0970
0.5400 0.3298 0.1089
0.5600 0.3431 0.1034
0.5800 0.3565 0.0953
0.6000 0.3698 0.1087
0.6200 0.3831 0.0956
0.6400 0.3965 0.0953
0.6600 0.4098 0.1024
0.6800 0.4232 0.0973
0.7000 0.4365 0.0849
0.7200 0.4498 0.0960
0.7400 0.4632 0.0885
0.7600 0.4765 0.0903
0.7800 0.4898 0.0940
0.8000 0.5031 0.0895
0.8200 0.5165 0.0887
0.8400 0.5298 0.0884
0.8600 0.5431 0.0838
0.8800 0.5564 0.0881
0.9000 0.5697 0.0905
0.9200 0.5830 0.0814
0.9400 0.5964 0.0838
0.9600 0.6098 0.0843
0.9800 0.6231 0.0814
1.0000 0.6364 0.0796
1.0200 0.6498 0.0799
1.0400 0.6632 0.0760
1.0600 0.6765 0.0712
1.0800 0.6898 0.0747
1.1000 0.7032 0.0769
1.1200 0.7165 0.0667
1.1400 0.7298 0.0768
1.1600 0.7431 0.0718
1.1800 0.7564 0.0641
1.2000 0.7698 0.0747
1.2200 0.7831 0.0666
1.2400 0.7965 0.0573
1.2600 0.8098 0.0750
1.2800 0.8231 0.0650
1.3000 0.8364 0.0606
1.3200 0.8498 0.0658
1.3400 0.8631 0.0660
1.3600 0.8764 0.0577
1.3800 0.8898 0.0669
1.4000 0.9032 0.0625
1.4200 0.9165 0.0603
1.4400 0.9298 0.0627
1.4600 0.9432 0.0599
1.4800 0.9565 0.0546
1.5000 0.9699 0.0573
1.5200 0.9832 0.0592
1.5400 0.9965 0.0518
1.5600 1.0098 0.0520
1.5800 1.0231 0.0548
1.6000 1.0364 0.0497
1.6200 1.0497 0.0507
1.6400 1.0631 0.0562
1.6600 1.0764 0.0402
1.6800 1.0898 0.0492
1.7000 1.1031 0.0540
1.7200 1.1165 0.0444
1.7400 1.1298 0.0445
1.7600 1.1432 0.0544
1.7800 1.1565 0.0390
1.8000 1.1698 0.0444
1.8200 1.1831 0.0487
1.8400 1.1965 0.0366
1.8600 1.2099 0.0430
1.8800 1.2232 0.0471
1.9000 1.2365 0.0331
1.9200 1.2498 0.0451
1.9400 1.2631 0.0420
1.9600 1.2765 0.0317
1.9800 1.2898 0.0379
2.0000 1.3031 0.0422
2.0200 1.3164 0.0299
2.0400 1.3298 0.0351
2.0600 1.3431 0.0362
2.0800 1.3565 0.0334
2.1000 1.3698 0.0304
2.1200 1.3832 0.0355
2.1400 1.3965 0.0302
2.1600 1.4098 0.0310
2.1800 1.4232 0.0339
2.2000 1.4365 0.0290
2.2200 1.4498 0.0326
2.2400 1.4631 0.0316
2.2600 1.4764 0.0307
2.2800 1.4897 0.0237
2.3000 1.5031 0.0333
2.3200 1.5164 0.0261
2.3400 1.5297 0.0175
2.3600 1.5431 0.0252
2.3800 1.5565 0.0233
2.4000 1.5698 0.0157
2.4200 1.5832 0.0211
2.4400 1.5965 0.0211
2.4600 1.6098 0.0134
2.4800 1.6232 0.0151
2.5000 1.6365 0.0169
2.5200 1.6498 0.0112
2.5400 1.6631 0.0200
2.5600 1.6765 0.0149
2.5800 1.6898 0.0063
2.6000 1.7032 0.0182
2.6200 1.7165 0.0156
2.6400 1.7298 0.0026
2.6600 1.7432 0.0092
2.6800 1.7565 0.0135
2.7000 1.7698 0.0053
2.7200 1.7831 0.0084
2.7400 1.7964 0.0090
2.7600 1.8098 0.0040
2.7800 1.8231 0.0094
2.8000 1.8364 0.0077
2.8200 1.8498 0.0021
2.8400 1.8631 0.0100
2.8600 1.8765 -0.0003
2.8800 1.8898 0.0011
2.9000 1.9032 0.0089
2.9200 1.9165 0.0040
2.9400 1.9299 -0.0055
2.9600 1.9432 0.0071
2.9800 1.9565 0.0011
3.0000 1.9698 -0.0089
3.0200 1.9832 0.0073
3.0400 1.9965 -0.0018
3.0600 2.0098 -0.0088
3.0800 2.0231 0.0053
3.1000 2.0364 -0.0031
3.1200 2.0498 -0.0077
3.1400 2.0631 0.0046
3.1600 2.0764 -0.0067
3.1800 2.0898 -0.0159
3.2000 2.1032 0.0050
3.2200 2.1165 -0.0124
3.2400 2.1299 -0.0161
3.2600 2.1432 0.0061
3.2800 2.1565 -0.0164
3.3000 2.1699 -0.0166
3.3200 2.1832 -0.0006
3.3400 2.1965 -0.0151
3.3600 2.2098 -0.0166
3.3800 2.2231 0.0046
3.4000 2.2365 -0.0217
3.4200 2.2498 -0.0180
3.4400 2.2631 0.0004
3.4600 2.2764 -0.0161
3.4800 2.2898 -0.0242
3.5000 2.3031 -0.0050
3.5200 2.3165 -0.0155
3.5400 2.3298 -0.0233
3.5600 2.3432 -0.0128
3.5800 2.3565 -0.0193
3.6000 2.3698 -0.0230
3.6200 2.3832 -0.0136
3.6400 2.3965 -0.0233
3.6600 2.4099 -0.0262
3.6800 2.4232 -0.0212
3.7000 2.4365 -0.0198
3.7200 2.4498 -0.0287
3.7400 2.4631 -0.0251
3.7600 2.4765 -0.0182
3.7800 2.4898 -0.0324
3.8000 2.5030 -0.0200
3.8200 2.5164 -0.0207
3.8400 2.5297 -0.0335
3.8600 2.5431 -0.0274
3.8800 2.5564 -0.0179
3.9000 2.5698 -0.0374
3.9200 2.5832 -0.0284
3.9400 2.5966 -0.0210
3.9600 2.6099 -0.0390
3.9800 2.6232 -0.0260
4.0000 2.6365 -0.0198
4.0200 2.6499 -0.0430
4.0400 2.6632 -0.0209
4.0600 2.6765 -0.0303
4.0800 2.6898 -0.0459
4.1000 2.7031 -0.0220
4.1200 2.7165 -0.0280
4.1400 2.7298 -0.0499
4.1600 2.7431 -0.0255
4.1800 2.7564 -0.0291
4.2000 2.7698 -0.0525
4.2200 2.7831 -0.0313
4.2400 2.7964 -0.0339
4.2600 2.8098 -0.0444
4.2800 2.8232 -0.0312
4.3000 2.8365 -0.0430
4.3200 2.8498 -0.0455
4.3400 2.8632 -0.0332
4.3600 2.8765 -0.0459
4.3800 2.8899 -0.0432
4.4000 2.9032 -0.0370
4.4200 2.9165 -0.0458
4.4400 2.9298 -0.0463
4.4600 2.9431 -0.0333
4.4800 2.9565 -0.0521
4.5000 2.9698 -0.0472
4.5200 2.9831 -0.0428
4.5400 2.9964 -0.0529
4.5600 3.0098 -0.0481
4.5800 3.0231 -0.0460
4.6000 3.0364 -0.0545
4.6200 3.0498 -0.0497
4.6400 3.0631 -0.0512
4.6600 3.0765 -0.0576
4.6800 3.0898 -0.0535
4.7000 3.1031 -0.0463
4.7200 3.1165 -0.0665
4.7400 3.1298 -0.0512
4.7600 3.1432 -0.0540
4.7800 3.1565 -0.0667
4.8000 3.1698 -0.0532
4.8200 3.1832 -0.0547
4.8400 3.1965 -0.0672
4.8600 3.2098 -0.0593
4.8800 3.2231 -0.0544
4.9000 3.2364 -0.0653
4.9200 3.2498 -0.0571
4.9400 3.2631 -0.0657
4.9600 3.2764 -0.0662
4.9800 3.2898 -0.0571
5.0000 3.3032 -0.0660
5.0200 3.3166 -0.0685
5.0400 3.3299 -0.0559
5.0600 3.3432 -0.0750
5.0800 3.3565 -0.0664
5.1000 3.3699 -0.0610
5.1200 3.3832 -0.0664
5.1400 3.3965 -0.0686
5.1600 3.4098 -0.0629
5.1800 3.4231 -0.0673
5.2000 3.4365 -0.0680
5.2200 3.4498 -0.0614
5.2400 3.4631 -0.0719
5.2600 3.4764 -0.0712
5.2800 3.4898 -0.0648
5.3000 3.5031 -0.0789
5.3200 3.5164 -0.0694
5.3400 3.5298 -0.0676
5.3600 3.5432 -0.0798
5.3800 3.5565 -0.0680
5.4000 3.5699 -0.0665
5.4200 3.5832 -0.0835
5.4400 3.5965 -0.0722
5.4600 3.6099 -0.0674
5.4800 3.6232 -0.0884
5.5000 3.6365 -0.0693
5.5200 3.6498 -0.0706
5.5400 3.6631 -0.0866
5.5600 3.6765 -0.0691
5.5800 3.6898 -0.0710
5.6000 3.7031 -0.0902
5.6200 3.7164 -0.0710
5.6400 3.7298 -0.0763
5.6600 3.7431 -0.0923
5.6800 3.7565 -0.0736
5.7000 3.7698 -0.0791
5.7200 3.7831 -0.0928
5.7400 3.7965 -0.0719
5.7600 3.8098 -0.0857
5.7800 3.8231 -0.0883
5.8000 3.8365 -0.0784
5.8200 3.8499 -0.0833
5.8400 3.8632 -0.0900
5.8600 3.8765 -0.0787
5.8800 3.8898 -0.0914
5.9000 3.9032 -0.0913
5.9200 3.9165 -0.0822
5.9400 3.9298 -0.0914
5.9600 3.9431 -0.0939
5.9800 3.9564 -0.0811
6.0000 3.9698 -0.0899
6.0200 3.9831 -0.0971
6.0400 3.9965 -0.0807
6.0600 4.0098 -0.0880
6.0800 4.0232 -0.0991
6.1000 4.0365 -0.0860
6.1200 4.0499 -0.0897
6.1400 4.0632 -0.1018
6.1600 4.0765 -0.0820
6.1800 4.0899 -0.0900
6.2000 4.1032 -0.1010
6.2200 4.1165 -0.0909
6.2400 4.1298 -0.0912
6.2600 4.1431 -0.1024
6.2800 4.1565 -0.0873
6.3000 4.1698 -0.0937
6.3200 4.1831 -0.1096
6.3400 4.1964 -0.0882
6.3600 4.2098 -0.0921
6.3800 4.2231 -0.1102
6.4000 4.2364 -0.0868
6.4200 4.2498 -0.0981
6.4400 4.2631 -0.1095
6.4600 4.2765 -0.0911
6.4800 4.2898 -0.1004
6.5000 4.3032 -0.1082
6.5200 4.3165 -0.0903
6.5400 4.3299 -0.0997
6.5600 4.3432 -0.1135
6.5800 4.3565 -0.0907
6.6000 4.3698 -0.1030
6.6200 4.3831 -0.1090
6.6400 4.3965 -0.0939
6.6600 4.4098 -0.1090
6.6800 4.4231 -0.1073
6.7000 4.4364 -0.0929
6.7200 4.4497 -0.1097
6.7400 4.4631 -0.1078
6.7600 4.4764 -0.1004
6.7800 4.4898 -0.1094
6.8000 4.5031 -0.1071
6.8200 4.5165 -0.1021
6.8400 4.5298 -0.1112
6.8600 4.5431 -0.1046
6.8800 4.5565 -0.1057
6.9000 4.5698 -0.1078
6.9200 4.5832 -0.1093
6.9400 4.5965 -0.1030
6.9600 4.6098 -0.1033
6.9800 4.6231 -0.1097
7.0000 4.6365 -0.1097
7.0200 4.6498 -0.1072
7.0400 4.6631 -0.1057
7.0600 4.6764 -0.1114
7.0800 4.6897 -0.1074
7.1000 4.7031 -0.1067
7.1200 4.7164 -0.1142
7.1400 4.7297 -0.1087
7.1600 4.7431 -0.1062
7.1800 4.7565 -0.1140
7.2000 4.7699 -0.1090
7.2200 4.7832 -0.1151
7.2400 4.7966 -0.1167
7.2600 4.8099 -0.1061
7.2800 4.8232 -0.1169
7.3000 4.8365 -0.1239
7.3200 4.8498 -0.1047
7.3400 4.8631 -0.1186
7.3600 4.8764 -0.1182
7.3800 4.8898 -0.1099
7.4000 4.9031 -0.1188
7.4200 4.9164 -0.1216
7.4400 4.9298 -0.1144
7.4600 4.9431 -0.1228
7.4800 4.9565 -0.1205
7.5000 4.9698 -0.1106
7.5200 4.9832 -0.1275
7.5400 4.9965 -0.1261
7.5600 5.0099 -0.1128
7.5800 5.0232 -0.1297
7.6000 5.0365 -0.1239
7.6200 5.0499 -0.1141
7.6400 5.0632 -0.1281
7.6600 5.0765 -0.1236
7.6800 5.0898 -0.1199
7.7000 5.1031 -0.1222
7.7200 5.1165 -0.1293
7.7400 5.1298 -0.1171
7.7600 5.1431 -0.1308
7.7800 5.1564 -0.1251
7.8000 5.1697 -0.1199
7.8200 5.1831 -0.1309
7.8400 5.1964 -0.1279
7.8600 5.2098 -0.1221
7.8800 5.2231 -0.1350
7.9000 5.2365 -0.1264
7.9200 5.2499 -0.1250
7.9400 5.2632 -0.1381
7.9600 5.2765 -0.1246
7.9800 5.2898 -0.1281
8.0000 5.3032 -0.1413
8.0200 5.3165 -0.1212
8.0400 5.3298 -0.1338
8.0600 5.3431 -0.1383
8.0800 5.3565 -0.1269
8.1000 5.3698 -0.1373
8.1200 5.3831 -0.1375
8.1400 5.3964 -0.1265
8.1600 5.4097 -0.1385
8.1800 5.4231 -0.1402
8.2000 5.4364 -0.1301
8.2200 5.4498 -0.1444
8.2400 5.4631 -0.1362
8.2600 5.4765 -0.1285
8.2800 5.4899 -0.1492
8.3000 5.5032 -0.1391
8.3200 5.5165 -0.1298
8.3400 5.5298 -0.1495
8.3600 5.5432 -0.1359
8.3800 5.5565 -0.1392
8.4000 5.5698 -0.1464
8.4200 5.5831 -0.1391
8.4400 5.5965 -0.1406
8.4600 5.6098 -0.1487
8.4800 5.6231 -0.1339
8.5000 5.6364 -0.1476
8.5200 5.6498 -0.1480
8.5400 5.6631 -0.1382
8.5600 5.6765 -0.1454
8.5800 5.6898 -0.1441
8.6000 5.7031 -0.1385
8.6200 5.7165 -0.1506
8.6400 5.7299 -0.1433
8.6600 5.7432 -0.1441
8.6800 5.7565 -0.1487
8.7000 5.7698 -0.1452
8.7200 5.7832 -0.1480
8.7400 5.7965 -0.1487
8.7600 5.8098 -0.1452
8.7800 5.8231 -0.1419
8.8000 5.8365 -0.1491
8.8200 5.8498 -0.1521
8.8400 5.8631 -0.1509
8.8600 5.8764 -0.1456
8.8800 5.8897 -0.1504
8.9000 5.9031 -0.1529
8.9200 5.9165 -0.1486
8.9400 5.9298 -0.1503
8.9600 5.9432 -0.1568
8.9800 5.9565 -0.1483
9.0000 5.9699 -0.1573
9.0200 5.9832 -0.1555
9.0400 5.9965 -0.1549
9.0600 6.0098 -0.1552
9.0800 6.0232 -0.1571
9.1000 6.0365 -0.1525
9.1200 6.0498 -0.1621
9.1400 6.0631 -0.1577
9.1600 6.0764 -0.1548
9.1800 6.0898 -0.1679
9.2000 6.1031 -0.1540
9.2200 6.1164 -0.1508
9.2400 6.1297 -0.1714
9.2600 6.1431 -0.1550
9.2800 6.1564 -0.1580
9.3000 6.1698 -0.1745
9.3200 6.1831 -0.1555
9.3400 6.1965 -0.1637
9.3600 6.2099 -0.1730
9.3800 6.2232 -0.1509
9.4000 6.2365 -0.1677
9.4200 6.2499 -0.1807
9.4400 6.2632 -0.1529
9.4600 6.2765 -0.1676
9.4800 6.2898 -0.1769
9.5000 6.3031 -0.1572
9.5200 6.3164 -0.1700
9.5400 6.3298 -0.1772
9.5600 6.3431 -0.1551
9.5800 6.3564 -0.1757
9.6000 6.3698 -0.1713
9.6200 6.3831 -0.1584
9.6400 6.3965 -0.1771
9.6600 6.4098 -0.1726
9.6800 6.4231 -0.1524
9.7000 6.4365 -0.1740
9.7200 6.4499 -0.1744
9.7400 6.4632 -0.1642
9.7600 6.4765 -0.1750
9.7800 6.4898 -0.1705
9.8000 6.5032 -0.1649
9.8200 6.5165 -0.1767
9.8400 6.5298 -0.1676
9.8600 6.5432 -0.1610
9.8800 6.5565 -0.1740
9.9000 6.5698 -0.1691
9.9200 6.5831 -0.1689
9.9400 6.5964 -0.1755
9.9600 6.6098 -0.1706
9.9800 6.6231 -0.1637
10.0000 6.6364 -0.1723
10.0200 6.6497 -0.1703
10.0400 6.6631 -0.1713
10.0600 6.6765 -0.1698
10.0800 6.6898 -0.1696
10.1000 6.7032 -0.1717
10.1200 6.7165 -0.1768
10.1400 6.7298 -0.1708
10.1600 6.7432 -0.1713
10.1800 6.7565 -0.1741
10.2000 6.7698 -0.1736
10.2200 6.7832 -0.1737
10.2400 6.7965 -0.1726
10.2600 6.8098 -0.1766
10.2800 6.8231 -0.1793
10.3000 6.8365 -0.1719
10.3200 6.8498 -0.1748
10.3400 6.8631 -0.1848
10.3600 6.8764 -0.1708
10.3800 6.8898 -0.1743
10.4000 6.9031 -0.1802
10.4200 6.9165 -0.1650
10.4400 6.9299 -0.1792
10.4600 6.9432 -0.1842
10.4800 6.9565 -0.1656
10.5000 6.9698 -0.1825
10.5200 6.9832 -0.1839
10.5400 6.9965 -0.1645
10.5600 7.0098 -0.1825
10.5800 7.0231 -0.1839
10.6000 7.0364 -0.1660
10.6200 7.0498 -0.1855
10.6400 7.0631 -0.1765
10.6600 7.0764 -0.1717
10.6800 7.0898 -0.1872
10.7000 7.1031 -0.1789
10.7200 7.1165 -0.1742
10.7400 7.1298 -0.1894
10.7600 7.1431 -0.1747
10.7800 7.1565 -0.1802
10.8000 7.1698 -0.1918
10.8200 7.1832 -0.1721
10.8400 7.1965 -0.1789
10.8600 7.2098 -0.1936
10.8800 7.2232 -0.1752
10.9000 7.2365 -0.1822
10.9200 7.2498 -0.1908
10.9400 7.2631 -0.1700
10.9600 7.2765 -0.1828
10.9800 7.2898 -0.1918
11.0000 7.3031 -0.1752
11.0200 7.3164 -0.1817
11.0400 7.3297 -0.1934
11.0600 7.3431 -0.1762
11.0800 7.3564 -0.1830
11.1000 7.3698 -0.1943
11.1200 7.3831 -0.1783
11.1400 7.3965 -0.1873
11.1600 7.4099 -0.1951
11.1800 7.4232 -0.1801
11.2000 7.4365 -0.1918
11.2200 7.4498 -0.1934
11.2400 7.4632 -0.1836
11.2600 7.4765 -0.1921
11.2800 7.4899 -0.1994
11.3000 7.5032 -0.1889
11.3200 7.5165 -0.1937
11.3400 7.5298 -0.1956
11.3600 7.5432 -0.1922
11.3800 7.5565 -0.1943
11.4000 7.5698 -0.1998
11.4200 7.5831 -0.1937
11.4400 7.5964 -0.2017
11.4600 7.6097 -0.1982
11.4800 7.6231 -0.1917
11.5000 7.6365 -0.2050
11.5200 7.6499 -0.2068
11.5400 7.6632 -0.1994
11.5600 7.6765 -0.2003
11.5800 7.6898 -0.2085
11.6000 7.7032 -0.1994
11.6200 7.7165 -0.2019
11.6400 7.7298 -0.2091
11.6600 7.7431 -0.2006
11.6800 7.7564 -0.2016
11.7000 7.7698 -0.2105
11.7200 7.7831 -0.1994
11.7400 7.7964 -0.2084
11.7600 7.8098 -0.2099
11.7800 7.8231 -0.1976
11.8000 7.8365 -0.2021
11.8200 7.8498 -0.2102
11.8400 7.8631 -0.2024
11.8600 7.8764 -0.2043
11.8800 7.8898 -0.2116
11.9000 7.9031 -0.2008
11.9200 7.9164 -0.1991
11.9400 7.9298 -0.2137
11.9600 7.9431 -0.2023
11.9800 7.9565 -0.1948
12.0000 7.9698 -0.2099
12.0200 7.9832 -0.2078
12.0400 7.9965 -0.1915
12.0600 8.0098 -0.2031
12.0800 8.0232 -0.2180
12.1000 8.0365 -0.1920
12.1200 8.0497 -0.2019
12.1400 8.0631 -0.2123
12.1600 8.0764 -0.1934
12.1800 8.0897 -0.1993
12.2000 8.1031 -0.2150
12.2200 8.1165 -0.1977
12.2400 8.1299 -0.2011
12.2600 8.1432 -0.2127
12.2800 8.1566 -0.2007
12.3000 8.1699 -0.2008
12.3200 8.1832 -0.2090
12.3400 8.1966 -0.2031
12.3600 8.2098 -0.2049
12.3800 8.2231 -0.2059
12.4000 8.2364 -0.2010
12.4200 8.2498 -0.2046
12.4400 8.2631 -0.2060
12.4600 8.2764 -0.2010
12.4800 8.2897 -0.2047
12.5000 8.3031 -0.2077
12.5200 8.3164 -0.1978
12.5400 8.3298 -0.2078
12.5600 8.3431 -0.2071
12.5800 8.3565 -0.1965
12.6000 8.3699 -0.2067
12.6200 8.3832 -0.2163
12.6400 8.3965 -0.1974
12.6600 8.4099 -0.2035
12.6800 8.4232 -0.2186
12.7000 8.4365 -0.2011
12.7200 8.4498 -0.1995
12.7400 8.4631 -0.2153
12.7600 8.4764 -0.2057
12.7800 8.4898 -0.2062
12.8000 8.5031 -0.2134
12.8200 8.5164 -0.2093
12.8400 8.5297 -0.2033
12.8600 8.5431 -0.2157
12.8800 8.5565 -0.2130
12.9000 8.5698 -0.2104
12.9200 8.5831 -0.2134
12.9400 8.5965 -0.2107
12.9600 8.6098 -0.2129
12.9800 8.6232 -0.2175
13.0000 8.6365 -0.2130
13.0200 8.6498 -0.2085
13.0400 8.6632 -0.2161
13.0600 8.6765 -0.2174
13.0800 8.6899 -0.2179
13.1000 8.7032 -0.2170
13.1200 8.7165 -0.2088
13.1400 8.7298 -0.2151
13.1600 8.7432 -0.2268
13.1800 8.7564 -0.2162
13.2000 8.7697 -0.2129
13.2200 8.7831 -0.2237
13.2400 8.7964 -0.2168
13.2600 8.8098 -0.2125
13.2800 8.8231 -0.2276
13.3000 8.8365 -0.2166
13.3200 8.8499 -0.2175
13.3400 8.8632 -0.2254
13.3600 8.8765 -0.2144
13.3800 8.8898 -0.2246
13.4000 8.9032 -0.2258
13.4200 8.9165 -0.2066
13.4400 8.9298 -0.2288
13.4600 8.9431 -0.2341
13.4800 8.9564 -0.2113
13.5000 8.9698 -0.2255
13.5200 8.9831 -0.2323
13.5400 8.9965 -0.2120
13.5600 9.0098 -0.2304
13.5800 9.0231 -0.2302
13.6000 9.0364 -0.2150
13.6200 9.0498 -0.2340
13.6400 9.0631 -0.2295
13.6600 9.0764 -0.2178
13.6800 9.0898 -0.2378
13.7000 9.1032 -0.2332
13.7200 9.1165 -0.2212
13.7400 9.1298 -0.2346
13.7600 9.1432 -0.2338
13.7800 9.1566 -0.2249
13.8000 9.1699 -0.2300
13.8200 9.1832 -0.2328
13.8400 9.1964 -0.2281
13.8600 9.2098 -0.2319
13.8800 9.2231 -0.2319
13.9000 9.2364 -0.2354
13.9200 9.2498 -0.2270
13.9400 9.2631 -0.2356
13.9600 9.2764 -0.2353
13.9800 9.2898 -0.2297
14.0000 9.3031 -0.2380
14.0200 9.3165 -0.2401
14.0400 9.3298 -0.2290
14.0600 9.3432 -0.2398
14.0800 9.3565 -0.2434
14.1000 9.3698 -0.2284
14.1200 9.3832 -0.2350
14.1400 9.3965 -0.2467
14.1600 9.4098 -0.2271
14.1800 9.4232 -0.2395
14.2000 9.4365 -0.2433
14.2200 9.4498 -0.2314
14.2400 9.4632 -0.2479
14.2600 9.4764 -0.2428
14.2800 9.4897 -0.2313
14.3000 9.5030 -0.2438
14.3200 9.5164 -0.2494
14.3400 9.5297 -0.2324
14.3600 9.5431 -0.2455
14.3800 9.5564 -0.2446
14.4000 9.5698 -0.2346
14.4200 9.5832 -0.2485
14.4400 9.5966 -0.2476
14.4600 9.6099 -0.2390
14.4800 9.6232 -0.2463
14.5000 9.6365 -0.2472
14.5200 9.6498 -0.2451
14.5400 9.6631 -0.2431
14.5600 9.6764 -0.2501
14.5800 9.6898 -0.2405
14.6000 9.7031 -0.2443
14.6200 9.7164 -0.2517
14.6400 9.7298 -0.2463
14.6600 9.7431 -0.2434
14.6800 9.7565 -0.2507
14.7000 9.7698 -0.2477
14.7200 9.7831 -0.2450
14.7400 9.7965 -0.2525
14.7600 9.8098 -0.2445
14.7800 9.8232 -0.2440
14.8000 9.8365 -0.2568
14.8200 9.8498 -0.2434
14.8400 9.8632 -0.2483
14.8600 9.8765 -0.2545
14.8800 9.8898 -0.2424
14.9000 9.9031 -0.2499
14.9200 9.9164 -0.2493
14.9400 9.9298 -0.2444
14.9600 9.9431 -0.2472
14.9800 9.9565 -0.2579
15.0000 9.9698 -0.2441
15.0200 9.9831 -0.2445
15.0400 9.9964 -0.2552
15.0600 10.0098 -0.2444
15.0800 10.0231 -0.2390
15.1000 10.0365 -0.2611
15.1200 10.0498 -0.2558
15.1400 10.0632 -0.2367
15.1600 10.0765 -0.2468
15.1800 10.0898 -0.2540
15.2000 10.1032 -0.2566
15.2200 10.1165 -0.2519
15.2400 10.1299 -0.2367
15.2600 10.1432 -0.2440
15.2800 10.1565 -0.2682
15.3000 10.1698 -0.2513
15.3200 10.1831 -0.2300
15.3400 10.1964 -0.2603
15.3600 10.2097 -0.2598
15.3800 10.2230 -0.2417
15.4000 10.2364 -0.2522
15.4200 10.2498 -0.2533
15.4400 10.2631 -0.2515
15.4600 10.2765 -0.2574
15.4800 10.2898 -0.2533
15.5000 10.3032 -0.2496
15.5200 10.3166 -0.2611
15.5400 10.3299 -0.2533
15.5600 10.3432 -0.2473
15.5800 10.3565 -0.2658
15.6000 10.3699 -0.2614
15.6200 10.3831 -0.2440
15.6400 10.3964 -0.2588
15.6600 10.4098 -0.2548
15.6800 10.4231 -0.2567
15.7000 10.4365 -0.2577
15.7200 10.4498 -0.2503
15.7400 10.4631 -0.2561
15.7600 10.4764 -0.2664
15.7800 10.4898 -0.2495
15.8000 10.5031 -0.2552
15.8200 10.5164 -0.2673
15.8400 10.5298 -0.2467
15.8600 10.5431 -0.2536
15.8800 10.5565 -0.2648
15.9000 10.5698 -0.2534
15.9200 10.5832 -0.2584
15.9400 10.5965 -0.2556
15.9600 10.6099 -0.2507
15.9800 10.6232 -0.2621
16.0000 10.6365 -0.2598
16.0200 10.6498 -0.2476
16.0400 10.6631 -0.2555
16.0600 10.6764 -0.2641
16.0800 10.6898 -0.2459
16.1000 10.7031 -0.2574
16.1200 10.7164 -0.2607
16.1400 10.7298 -0.2547
16.1600 10.7431 -0.2546
16.1800 10.7564 -0.2562
16.2000 10.7698 -0.2612
16.2200 10.7832 -0.2589
16.2400 10.7965 -0.2571
16.2600 10.8099 -0.2674
16.2800 10.8232 -0.2598
16.3000 10.8365 -0.2600
16.3200 10.8499 -0.2644
16.3400 10.8632 -0.2609
16.3600 10.8765 -0.2584
16.3800 10.8898 -0.2608
16.4000 10.9032 -0.2558
16.4200 10.9165 -0.2645
16.4400 10.9298 -0.2690
16.4600 10.9431 -0.2492
16.4800 10.9564 -0.2638
16.5000 10.9698 -0.2734
16.5200 10.9831 -0.2571
16.5400 10.9964 -0.2630
16.5600 11.0098 -0.2660
16.5800 11.0232 -0.2641
16.6000 11.0365 -0.2724
16.6200 11.0498 -0.2656
16.6400 11.0632 -0.2634
16.6600 11.0765 -0.2665
16.6800 11.0899 -0.2690
16.7000 11.1031 -0.2702
16.7200 11.1164 -0.2684
16.7400 11.1297 -0.2638
16.7600 11.1431 -0.2733
16.7800 11.1564 -0.2694
16.8000 11.1698 -0.2626
16.8200 11.1831 -0.2692
16.8400 11.1964 -0.2742
16.8600 11.2098 -0.2668
16.8800 11.2232 -0.2633
16.9000 11.2365 -0.2746
16.9200 11.2498 -0.2738
16.9400 11.2632 -0.2620
16.9600 11.2765 -0.2787
16.9800 11.2898 -0.2711
17.0000 11.3031 -0.2564
17.0200 11.3165 -0.2796
17.0400 11.3299 -0.2783
17.0600 11.3432 -0.2503
17.0800 11.3565 -0.2814
17.1000 11.3698 -0.2810
17.1200 11.3832 -0.2489
17.1400 11.3965 -0.2816
17.1600 11.4098 -0.2769
17.1800 11.4231 -0.2514
17.2000 11.4364 -0.2879
17.2200 11.4498 -0.2769
17.2400 11.4631 -0.2540
17.2600 11.4764 -0.2896
17.2800 11.4898 -0.2633
17.3000 11.5031 -0.2602
17.3200 11.5165 -0.2952
17.3400 11.5298 -0.2693
17.3600 11.5431 -0.2571
17.3800 11.5565 -0.2886
17.4000 11.5699 -0.2674
17.4200 11.5832 -0.2690
17.4400 11.5965 -0.2885
17.4600 11.6098 -0.2622
17.4800 11.6232 -0.2598
17.5000 11.6365 -0.2944
17.5200 11.6498 -0.2764
17.5400 11.6631 -0.2584
17.5600 11.6764 -0.2846
17.5800 11.6898 -0.2780
17.6000 11.7031 -0.2606
17.6200 11.7164 -0.2816
17.6400 11.7298 -0.2856
17.6600 11.7432 -0.2654
17.6800 11.7565 -0.2783
17.7000 11.7698 -0.2823
17.7200 11.7832 -0.2757
17.7400 11.7965 -0.2868
17.7600 11.8099 -0.2807
17.7800 11.8232 -0.2655
17.8000 11.8365 -0.2915
17.8200 11.8498 -0.2836
17.8400 11.8631 -0.2648
17.8600 11.8765 -0.2846
17.8800 11.8898 -0.2928
17.9000 11.9031 -0.2656
17.9200 11.9164 -0.2842
17.9400 11.9298 -0.2944
17.9600 11.9432 -0.2749
17.9800 11.9565 -0.2736
18.0000 11.9698 -0.2879
18.0200 11.9832 -0.2811
18.0400 11.9965 -0.2785
18.0600 12.0098 -0.2845
18.0800 12.0232 -0.2837
18.1000 12.0365 -0.2722
18.1200 12.0499 -0.2833
18.1400 12.0632 -0.2862
18.1600 12.0765 -0.2765
18.1800 12.0898 -0.2832
18.2000 12.1031 -0.2821
18.2200 12.1165 -0.2785
18.2400 12.1298 -0.2841
18.2600 12.1431 -0.2883
18.2800 12.1564 -0.2749
18.3000 12.1698 -0.2848
18.3200 12.1831 -0.2852
18.3400 12.1964 -0.2804
18.3600 12.2098 -0.2837
18.3800 12.2232 -0.2873
18.4000 12.2366 -0.2789
18.4200 12.2499 -0.2820
18.4400 12.2632 -0.2805
18.4600 12.2765 -0.2827
18.4800 12.2899 -0.2867
18.5000 12.3032 -0.2815
18.5200 12.3165 -0.2824
18.5400 12.3298 -0.2846
18.5600 12.3431 -0.2763
18.5800 12.3565 -0.2910
18.6000 12.3698 -0.2854
18.6200 12.3831 -0.2814
18.6400 12.3964 -0.2841
18.6600 12.4098 -0.2836
18.6800 12.4231 -0.2823
18.7000 12.4364 -0.2847
18.7200 12.4498 -0.2876
18.7400 12.4632 -0.2868
18.7600 12.4765 -0.2881
18.7800 12.4898 -0.2876
18.8000 12.5032 -0.2882
18.8200 12.5165 -0.2910
18.8400 12.5299 -0.2903
18.8600 12.5432 -0.2879
18.8800 12.5565 -0.2924
18.9000 12.5698 -0.2883
18.9200 12.5831 -0.2886
18.9400 12.5964 -0.2890
18.9600 12.6098 -0.2973
18.9800 12.6231 -0.2912
19.0000 12.6364 -0.2899
19.0200 12.6498 -0.2896
19.0400 12.6631 -0.2980
19.0600 12.6764 -0.2934
19.0800 12.6898 -0.2878
19.1000 12.7031 -0.2944
19.1200 12.7165 -0.2963
19.1400 12.7298 -0.2916
19.1600 12.7431 -0.2964
19.1800 12.7565 -0.2942
19.2000 12.7698 -0.2911
19.2200 12.7832 -0.3043
19.2400 12.7965 -0.2902
19.2600 12.8098 -0.2947
19.2800 12.8232 -0.3025
19.3000 12.8365 -0.2939
19.3200 12.8498 -0.2940
19.3400 12.8631 -0.3001
19.3600 12.8764 -0.2862
19.3800 12.8898 -0.3034
19.4000 12.9031 -0.3007
19.4200 12.9164 -0.2839
19.4400 12.9298 -0.2994
19.4600 12.9432 -0.3114
19.4800 12.9565 -0.2906
19.5000 12.9699 -0.3002
19.5200 12.9832 -0.3017
19.5400 12.9965 -0.2912
19.5600 13.0099 -0.3028
19.5800 13.0232 -0.3004
19.6000 13.0365 -0.2904
19.6200 13.0498 -0.3064
19.6400 13.0631 -0.2909
19.6600 13.0764 -0.2956
19.6800 13.0898 -0.3042
19.7000 13.1031 -0.2972
19.7200 13.1164 -0.2942
19.7400 13.1297 -0.2996
19.7600 13.1431 -0.3054
19.7800 13.1564 -0.2988
19.8000 13.1698 -0.2949
19.8200 13.1831 -0.3053
19.8400 13.1965 -0.3013
19.8600 13.2099 -0.2956
19.8800 13.2232 -0.3079
19.9000 13.2365 -0.2959
19.9200 13.2499 -0.3002
19.9400 13.2632 -0.3107
19.9600 13.2765 -0.2963
19.9800 13.2898 -0.3024
20.0000 13.3031 -0.3090
20.0200 13.3165 -0.2896
20.0400 13.3298 -0.3099
20.0600 13.3431 -0.3074
20.0800 13.3564 -0.2940
20.1000 13.3698 -0.3085
20.1200 13.3831 -0.3053
20.1400 13.3965 -0.2933
20.1600 13.4098 -0.3191
20.1800 13.4231 -0.3020
20.2000 13.4365 -0.2902
20.2200 13.4498 -0.3183
20.2400 13.4632 -0.3046
20.2600 13.4765 -0.2937
20.2800 13.4898 -0.3146
20.3000 13.5032 -0.3008
20.3200 13.5165 -0.2973
20.3400 13.5298 -0.3151
20.3600 13.5432 -0.3026
20.3800 13.5565 -0.3022
20.4000 13.5698 -0.3134
20.4200 13.5831 -0.2959
20.4400 13.5964 -0.3062
20.4600 13.6097 -0.3143
20.4800 13.6231 -0.2937
20.5000 13.6365 -0.3070
20.5200 13.6498 -0.3096
20.5400 13.6632 -0.3009
20.5600 13.6765 -0.3082
20.5800 13.6899 -0.3081
20.6000 13.7032 -0.3009
20.6200 13.7165 -0.3104
20.6400 13.7298 -0.3014
20.6600 13.7432 -0.3134
20.6800 13.7565 -0.3087
20.7000 13.7698 -0.2941
20.7200 13.7831 -0.3101
20.7400 13.7965 -0.3159
20.7600 13.8098 -0.2981
20.7800 13.8231 -0.3152
20.8000 13.8364 -0.3051
20.8200 13.8498 -0.2999
20.8400 13.8631 -0.3214
20.8600 13.8764 -0.3013
20.8800 13.8898 -0.3019
20.9000 13.9031 -0.3179
20.9200 13.9165 -0.3029
20.9400 13.9299 -0.3044
20.9600 13.9432 -0.3214
20.9800 13.9565 -0.2971
21.0000 13.9699 -0.3054
21.0200 13.9832 -0.3209
21.0400 13.9965 -0.2988
21.0600 14.0098 -0.3044
21.0800 14.0231 -0.3192
21.1000 14.0365 -0.2961
21.1200 14.0498 -0.3138
21.1400 14.0631 -0.3142
21.1600 14.0764 -0.3002
21.1800 14.0898 -0.3107
21.2000 14.1031 -0.3161
21.2200 14.1164 -0.2944
21.2400 14.1298 -0.3188
21.2600 14.1431 -0.3150
21.2800 14.1565 -0.2940
21.3000 14.1699 -0.3182
21.3200 14.1832 -0.3099
21.3400 14.1965 -0.2999
21.3600 14.2098 -0.3168
21.3800 14.2232 -0.3114
21.4000 14.2365 -0.3022
21.4200 14.2498 -0.3178
21.4400 14.2632 -0.3062
21.4600 14.2765 -0.3035
21.4800 14.2898 -0.3182
21.5000 14.3031 -0.3032
21.5200 14.3164 -0.3049
21.5400 14.3297 -0.3246
21.5600 14.3431 -0.3026
21.5800 14.3564 -0.3003
21.6000 14.3697 -0.3261
21.6200 14.3831 -0.3137
21.6400 14.3965 -0.2923
21.6600 14.4099 -0.3126
21.6800 14.4232 -0.3205
21.7000 14.4365 -0.3078
21.7200 14.4499 -0.3020
21.7400 14.4632 -0.3143
21.7600 14.4765 -0.3218
21.7800 14.4898 -0.2944
21.8000 14.5031 -0.3037
21.8200 14.5164 -0.3338
21.8400 14.5298 -0.3025
21.8600 14.5431 -0.2952
21.8800 14.5564 -0.3250
21.9000 14.5698 -0.3252
21.9200 14.5831 -0.3002
21.9400 14.5964 -0.3101
21.9600 14.6098 -0.3241
21.9800 14.6231 -0.3119
22.0000 14.6365 -0.3121
22.0200 14.6499 -0.3183
22.0400 14.6632 -0.3190
22.0600 14.6765 -0.3061
22.0800 14.6898 -0.3241
22.1000 14.7031 -0.3243
22.1200 14.7165 -0.3063
22.1400 14.7298 -0.3160
22.1600 14.7431 -0.3331
22.1800 14.7565 -0.3092
22.2000 14.7698 -0.3168
22.2200 14.7831 -0.3252
22.2400 14.7964 -0.3159
22.2600 14.8098 -0.3198
22.2800 14.8231 -0.3192
22.3000 14.8365 -0.3200
22.3200 14.8498 -0.3267
22.3400 14.8632 -0.3097
22.3600 14.8765 -0.3283
22.3800 14.8899 -0.3354
22.4000 14.9032 -0.3074
22.4200 14.9165 -0.3272
22.4400 14.9299 -0.3398
22.4600 14.9432 -0.3111
22.4800 14.9565 -0.3279
22.5000 14.9698 -0.3342
22.5200 14.9831 -0.3175
22.5400 14.9965 -0.3301
22.5600 15.0098 -0.3321
22.5800 15.0231 -0.3222
22.6000 15.0364 -0.3265
22.6200 15.0497 -0.3324
22.6400 15.0631 -0.3229
22.6600 15.0764 -0.3379
22.6800 15.0898 -0.3274
22.7000 15.1031 -0.3244
22.7200 15.1165 -0.3355
22.7400 15.1299 -0.3358
22.7600 15.1432 -0.3279
22.7800 15.1565 -0.3351
22.8000 15.1698 -0.3302
22.8200 15.1832 -0.3284
22.8400 15.1965 -0.3394
22.8600 15.2098 -0.3357
22.8800 15.2231 -0.3231
22.9000 15.2365 -0.3423
22.9200 15.2498 -0.3396
22.9400 15.2631 -0.3306
22.9600 15.2764 -0.3344
22.9800 15.2898 -0.3331
23.0000 15.3031 -0.3305
23.0200 15.3164 -0.3395
23.0400 15.3298 -0.3349
23.0600 15.3431 -0.3297
23.0800 15.3565 -0.3350
23.1000 15.3698 -0.3370
23.1200 15.3832 -0.3344
23.1400 15.3965 -0.3368
23.1600 15.4098 -0.3352
23.1800 15.4232 -0.3293
23.2000 15.4365 -0.3387
23.2200 15.4498 -0.3387
23.2400 15.4631 -0.3300
23.2600 15.4765 -0.3356
23.2800 15.4898 -0.3446
23.3000 15.5031 -0.3334
23.3200 15.5164 -0.3372
23.3400 15.5297 -0.3365
23.3600 15.5431 -0.3367
23.3800 15.5564 -0.3432
23.4000 15.5698 -0.3394
23.4200 15.5831 -0.3356
23.4400 15.5965 -0.3463
23.4600 15.6099 -0.3327
23.4800 15.6232 -0.3392
23.5000 15.6365 -0.3473
23.5200 15.6498 -0.3367
23.5400 15.6632 -0.3306
23.5600 15.6765 -0.3484
23.5800 15.6898 -0.3449
23.6000 15.7031 -0.3299
23.6200 15.7165 -0.3390
23.6400 15.7298 -0.3466
23.6600 15.7431 -0.3456
23.6800 15.7564 -0.3296
23.7000 15.7698 -0.3371
23.7200 15.7831 -0.3515
23.7400 15.7964 -0.3418
23.7600 15.8098 -0.3272
23.7800 15.8231 -0.3434
23.8000 15.8365 -0.3464
23.8200 15.8499 -0.3354
23.8400 15.8632 -0.3379
23.8600 15.8765 -0.3495
23.8800 15.8898 -0.3313
23.9000 15.9032 -0.3426
23.9200 15.9165 -0.3471
23.9400 15.9298 -0.3367
23.9600 15.9431 -0.3360
23.9800 15.9564 -0.3419
24.0000 15.9698 -0.3420
24.0200 15.9831 -0.3453
24.0400 15.9964 -0.3392
24.0600 16.0097 -0.3417
24.0800 16.0231 -0.3468
24.1000 16.0365 -0.3330
24.1200 16.0498 -0.3472
24.1400 16.0631 -0.3540
24.1600 16.0765 -0.3273
24.1800 16.0899 -0.3518
24.2000 16.1032 -0.3519
24.2200 16.1165 -0.3287
24.2400 16.1298 -0.3495
24.2600 16.1432 -0.3480
24.2800 16.1565 -0.3343
24.3000 16.1698 -0.3467
24.3200 16.1831 -0.3473
24.3400 16.1965 -0.3426
24.3600 16.2098 -0.3516
24.3800 16.2232 -0.3337
24.4000 16.2365 -0.3482
24.4200 16.2498 -0.3523
24.4400 16.2631 -0.3264
24.4600 16.2764 -0.3496
24.4800 16.2898 -0.3577
24.5000 16.3031 -0.3249
24.5200 16.3165 -0.3541
24.5400 16.3298 -0.3561
24.5600 16.3432 -0.3310
24.5800 16.3565 -0.3476
24.6000 16.3698 -0.3531
24.6200 16.3832 -0.3401
24.6400 16.3965 -0.3476
24.6600 16.4098 -0.3375
24.6800 16.4232 -0.3418
24.7000 16.4365 -0.3606
24.7200 16.4499 -0.3331
24.7400 16.4632 -0.3385
24.7600 16.4764 -0.3602
24.7800 16.4897 -0.3367
24.8000 16.5031 -0.3410
24.8200 16.5164 -0.3622
24.8400 16.5298 -0.3384
24.8600 16.5431 -0.3409
24.8800 16.5565 -0.3531
24.9000 16.5699 -0.3451
24.9200 16.5832 -0.3463
24.9400 16.5965 -0.3534
24.9600 16.6099 -0.3384
24.9800 16.6232 -0.3501
25.0000 16.6365 -0.3582
25.0200 16.6498 -0.3459
25.0400 16.6631 -0.3443
25.0600 16.6764 -0.3550
25.0800 16.6898 -0.3502
25.1000 16.7031 -0.3480
25.1200 16.7164 -0.3564
25.1400 16.7297 -0.3531
25.1600 16.7431 -0.3422
25.1800 16.7565 -0.3583
25.2000 16.7698 -0.3557
25.2200 16.7831 -0.3500
25.2400 16.7964 -0.3560
25.2600 16.8098 -0.3522
25.2800 16.8232 -0.3543
25.3000 16.8365 -0.3576
25.3200 16.8498 -0.3506
25.3400 16.8632 -0.3624
25.3600 16.8766 -0.3512
25.3800 16.8899 -0.3469
25.4000 16.9031 -0.3662
25.4200 16.9165 -0.3472
25.4400 16.9298 -0.3461
25.4600 16.9431 -0.3700
25.4800 16.9564 -0.3523
25.5000 16.9697 -0.3440
25.5200 16.9831 -0.3639
25.5400 16.9964 -0.3544
25.5600 17.0097 -0.3580
25.5800 17.0231 -0.3619
25.6000 17.0365 -0.3502
25.6200 17.0499 -0.3636
25.6400 17.0632 -0.3650
25.6600 17.0765 -0.3474
25.6800 17.0898 -0.3704
25.7000 17.1032 -0.3640
25.7200 17.1165 -0.3513
25.7400 17.1298 -0.3682
25.7600 17.1431 -0.3595
25.7800 17.1565 -0.3578
25.8000 17.1698 -0.3725
25.8200 17.1832 -0.3605
25.8400 17.1965 -0.3588
25.8600 17.2098 -0.3676
25.8800 17.2231 -0.3557
25.9000 17.2364 -0.3670
25.9200 17.2498 -0.3681
25.9400 17.2631 -0.3615
25.9600 17.2765 -0.3701
25.9800 17.2899 -0.3684
26.0000 17.3032 -0.3559
26.0200 17.3165 -0.3707
26.0400 17.3299 -0.3653
26.0600 17.3432 -0.3560
26.0800 17.3565 -0.3694
26.1000 17.3698 -0.3653
26.1200 17.3831 -0.3576
26.1400 17.3964 -0.3724
26.1600 17.4098 -0.3646
26.1800 17.4231 -0.3646
26.2000 17.4364 -0.3694
26.2200 17.4497 -0.3615
26.2400 17.4631 -0.3639
26.2600 17.4765 -0.3698
26.2800 17.4898 -0.3640
26.3000 17.5031 -0.3673
26.3200 17.5165 -0.3682
26.3400 17.5298 -0.3654
26.3600 17.5431 -0.3672
26.3800 17.5565 -0.3673
26.4000 17.5698 -0.3662
26.4200 17.5831 -0.3694
26.4400 17.5965 -0.3690
26.4600 17.6098 -0.3644
26.4800 17.6232 -0.3665
26.5000 17.6365 -0.3686
26.5200 17.6498 -0.3658
26.5400 17.6632 -0.3675
26.5600 17.6764 -0.3702
26.5800 17.6897 -0.3650
26.6000 17.7031 -0.3688
26.6200 17.7164 -0.3713
26.6400 17.7298 -0.3724
26.6600 17.7431 -0.3701
26.6800 17.7565 -0.3732
26.7000 17.7699 -0.3747
26.7200 17.7832 -0.3764
26.7400 17.7965 -0.3755
26.7600 17.8099 -0.3778
26.7800 17.8232 -0.3793
26.8000 17.8365 -0.3729
26.8200 17.8499 -0.3819
26.8400 17.8631 -0.3853
26.8600 17.8764 -0.3741
26.8800 17.8898 -0.3796
26.9000 17.9031 -0.3841
26.9200 17.9164 -0.3772
26.9400 17.9297 -0.3795
26.9600 17.9430 -0.3842
26.9800 17.9564 -0.3838
27.0000 17.9697 -0.3829
27.0200 17.9831 -0.3827
27.0400 17.9964 -0.3869
27.0600 18.0098 -0.3877
27.0800 18.0232 -0.3843
27.1000 18.0365 -0.3856
27.1200 18.0499 -0.3813
27.1400 18.0632 -0.3864
27.1600 18.0765 -0.3811
27.1800 18.0898 -0.3817
27.2000 18.1031 -0.3860
27.2200 18.1164 -0.3804
27.2400 18.1298 -0.3803
27.2600 18.1431 -0.3915
27.2800 18.1564 -0.3792
27.3000 18.1698 -0.3796
27.3200 18.1831 -0.3925
27.3400 18.1964 -0.3814
27.3600 18.2098 -0.3806
27.3800 18.2231 -0.3941
27.4000 18.2365 -0.3803
27.4200 18.2498 -0.3858
27.4400 18.2632 -0.3921
27.4600 18.2765 -0.3817
27.4800 18.2898 -0.3916
27.5000 18.3032 -0.3932
27.5200 18.3165 -0.3823
27.5400 18.3299 -0.3935
27.5600 18.3432 -0.3946
27.5800 18.3565 -0.3809
27.6000 18.3698 -0.3982
27.6200 18.3832 -0.3940
27.6400 18.3965 -0.3852
27.6600 18.4098 -0.4013
27.6800 18.4231 -0.3937
27.7000 18.4364 -0.3886
27.7200 18.4498 -0.4107
27.7400 18.4631 -0.3909
27.7600 18.4765 -0.3913
27.7800 18.4898 -0.4080
27.8000 18.5032 -0.3938
27.8200 18.5166 -0.3983
27.8400 18.5299 -0.4125
27.8600 18.5432 -0.3884
27.8800 18.5565 -0.4032
27.9000 18.5698 -0.4120
27.9200 18.5831 -0.3882
27.9400 18.5964 -0.4019
27.9600 18.6098 -0.4119
27.9800 18.6231 -0.3954
28.0000 18.6365 -0.4063
28.0200 18.6498 -0.4007
28.0400 18.6631 -0.4013
28.0600 18.6765 -0.4142
28.0800 18.6898 -0.4015
28.1000 18.7031 -0.4060
28.1200 18.7164 -0.4117
28.1400 18.7298 -0.3965
28.1600 18.7432 -0.4083
28.1800 18.7565 -0.4114
28.2000 18.7698 -0.3916
28.2200 18.7832 -0.4067
28.2400 18.7966 -0.4066
28.2600 18.8099 -0.3925
28.2800 18.8232 -0.4056
28.3000 18.8365 -0.4026
28.3200 18.8498 -0.3861
28.3400 18.8631 -0.4108
28.3600 18.8764 -0.3932
28.3800 18.8898 -0.3905
28.4000 18.9031 -0.4078
28.4200 18.9164 -0.3883
28.4400 18.9298 -0.3901
28.4600 18.9431 -0.4081
28.4800 18.9565 -0.3866
28.5000 18.9698 -0.3961
28.5200 18.9832 -0.4067
28.5400 18.9965 -0.3865
28.5600 19.0098 -0.3960
28.5800 19.0231 -0.4032
28.6000 19.0365 -0.3852
28.6200 19.0499 -0.4025
28.6400 19.0632 -0.4000
28.6600 19.0765 -0.3834
28.6800 19.0898 -0.4041
28.7000 19.1032 -0.3996
28.7200 19.1165 -0.3952
28.7400 19.1297 -0.4013
28.7600 19.1430 -0.4028
28.7800 19.1564 -0.3965
28.8000 19.1697 -0.4081
28.8200 19.1831 -0.3991
28.8400 19.1964 -0.4004
28.8600 19.2098 -0.4105
28.8800 19.2232 -0.4015
28.9000 19.2366 -0.4017
28.9200 19.2499 -0.4112
28.9400 19.2632 -0.4068
28.9600 19.2766 -0.4079
28.9800 19.2899 -0.4041
29.0000 19.3032 -0.4112
29.0200 19.3164 -0.4068
29.0400 19.3298 -0.4094
29.0600 19.3431 -0.4104
29.0800 19.3564 -0.4045
29.1000 19.3698 -0.4047
29.1200 19.3831 -0.4226
29.1400 19.3965 -0.4105
29.1600 19.4098 -0.4041
29.1800 19.4231 -0.4189
29.2000 19.4365 -0.4069
29.2200 19.4498 -0.4074
29.2400 19.4632 -0.4264
29.2600 19.4765 -0.4093
29.2800 19.4898 -0.4081
29.3000 19.5031 -0.4318
29.3200 19.5165 -0.4131
29.3400 19.5298 -0.4140
29.3600 19.5431 -0.4267
29.3800 19.5564 -0.4223
29.4000 19.5698 -0.4050
29.4200 19.5831 -0.4269
29.4400 19.5965 -0.4246
29.4600 19.6098 -0.4186
29.4800 19.6231 -0.4290
29.5000 19.6364 -0.4154
29.5200 19.6498 -0.4215
29.5400 19.6631 -0.4381
29.5600 19.6765 -0.4175
29.5800 19.6898 -0.4145
29.6000 19.7032 -0.4346
29.6200 19.7165 -0.4273
29.6400 19.7298 -0.4134
29.6600 19.7431 -0.4360
29.6800 19.7565 -0.4324
29.7000 19.7698 -0.4220
29.7200 19.7831 -0.4363
29.7400 19.7964 -0.4268
29.7600 19.8098 -0.4290
29.7800 19.8231 -0.4393
29.8000 19.8365 -0.4235
29.8200 19.8498 -0.4215
29.8400 19.8631 -0.4422
29.8600 19.8764 -0.4269
29.8800 19.8898 -0.4257
29.9000 19.9031 -0.4397
29.9200 19.9165 -0.4283
29.9400 19.9298 -0.4303
29.9600 19.9432 -0.4399
29.9800 19.9566 -0.4243
30.0000 19.9699 -0.4429
30.0200 19.9832 -0.4390
30.0400 19.9965 -0.4275
30.0600 20.0099 -0.4387
30.0800 20.0231 -0.4483
30.1000 20.0364 -0.4278
30.1200 20.0498 -0.4374
30.1400 20.0631 -0.4462
30.1600 20.0765 -0.4361
30.1800 20.0898 -0.4388
30.2000 20.1031 -0.4433
30.2200 20.1164 -0.4421
30.2400 20.1298 -0.4461
30.2600 20.1431 -0.4454
30.2800 20.1564 -0.4368
30.3000 20.1698 -0.4467
30.3200 20.1832 -0.4457
30.3400 20.1965 -0.4412
30.3600 20.2098 -0.4508
30.3800 20.2232 -0.4500
30.4000 20.2365 -0.4376
30.4200 20.2499 -0.4517
30.4400 20.2632 -0.4528
30.4600 20.2765 -0.4429
30.4800 20.2898 -0.4452
30.5000 20.3031 -0.4558
30.5200 20.3165 -0.4459
30.5400 20.3298 -0.4077
30.5600 20.3431 -0.3247
30.5800 20.3564 -0.2148
30.6000 20.3698 -0.1166
30.6200 20.3831 -0.0567
30.6400 20.3965 -0.0111
30.6600 20.4098 0.0193
30.6800 20.4232 0.0558
30.7000 20.4365 0.1237
30.7200 20.4498 0.1767
30.7400 20.4632 0.1988
30.7600 20.4765 0.2457
30.7800 20.4899 0.2796
30.8000 20.5032 0.3149
30.8200 20.5164 0.3748
30.8400 20.5298 0.4205
30.8600 20.5431 0.4555
30.8800 20.5565 0.5152
30.9000 20.5698 0.5590
30.9200 20.5831 0.5596
30.9400 20.5964 0.5471
30.9600 20.6098 0.5137
30.9800 20.6231 0.4936
31.0000 20.6364 0.5028
31.0200 20.6498 0.5031
31.0400 20.6632 0.4986
31.0600 20.6765 0.5127
31.0800 20.6899 0.5072
31.1000 20.7032 0.4979
31.1200 20.7165 0.5002
31.1400 20.7299 0.4993
31.1600 20.7432 0.4864
31.1800 20.7564 0.4968
31.2000 20.7697 0.4966
31.2200 20.7831 0.4913
31.2400 20.7964 0.4955
31.2600 20.8097 0.4940
31.2800 20.8231 0.4882
31.3000 20.8365 0.4885
31.3200 20.8498 0.4824
31.3400 20.8632 0.4788
31.3600 20.8765 0.4838
31.3800 20.8898 0.4801
31.4000 20.9032 0.4742
31.4200 20.9165 0.4842
31.4400 20.9298 0.4846
31.4600 20.9431 0.4799
31.4800 20.9565 0.4796
31.5000 20.9698 0.4792
31.5200 20.9832 0.4734
31.5400 20.9965 0.4710
31.5600 21.0098 0.4770
31.5800 21.0232 0.4701
31.6000 21.0365 0.4763
31.6200 21.0498 0.4771
31.6400 21.0631 0.4745
31.6600 21.0764 0.4691
31.6800 21.0898 0.4719
31.7000 21.1031 0.4651
31.7200 21.1164 0.4735
31.7400 21.1298 0.4655
31.7600 21.1431 0.4691
31.7800 21.1565 0.4645
31.8000 21.1698 0.4611
31.8200 21.1831 0.4606
31.8400 21.1965 0.4613
31.8600 21.2099 0.4597
31.8800 21.2232 0.4566
31.9000 21.2365 0.4610
31.9200 21.2498 0.4598
31.9400 21.2632 0.4573
31.9600 21.2765 0.4499
31.9800 21.2898 0.4550
32.0000 21.3031 0.4572
32.0200 21.3164 0.4507
32.0400 21.3298 0.4569
32.0600 21.3431 0.4609
32.0800 21.3564 0.4421
32.1000 21.3698 0.4516
32.1200 21.3832 0.4513
32.1400 21.3965 0.4400
32.1600 21.4099 0.4448
32.1800 21.4232 0.4421
32.2000 21.4365 0.4306
32.2200 21.4498 0.4513
32.2400 21.4632 0.4417
32.2600 21.4765 0.4359
32.2800 21.4898 0.4495
32.3000 21.5031 0.4380
32.3200 21.5165 0.4307
32.3400 21.5298 0.4433
32.3600 21.5431 0.4364
32.3800 21.5564 0.4381
32.4000 21.5698 0.4451
32.4200 21.5831 0.4463
32.4400 21.5965 0.4357
32.4600 21.6098 0.4498
32.4800 21.6231 0.4371
32.5000 21.6365 0.4240
32.5200 21.6498 0.4401
32.5400 21.6632 0.4254
32.5600 21.6765 0.4254
32.5800 21.6899 0.4324
32.6000 21.7032 0.4220
32.6200 21.7165 0.4252
32.6400 21.7298 0.4276
32.6600 21.7431 0.4233
32.6800 21.7565 0.4301
32.7000 21.7698 0.4228
32.7200 21.7831 0.4229
32.7400 21.7964 0.4286
32.7600 21.8097 0.4268
32.7800 21.8231 0.4172
32.8000 21.8364 0.4289
32.8200 21.8498 0.4167
32.8400 21.8632 0.4186
32.8600 21.8766 0.4275
32.8800 21.8899 0.4135
32.9000 21.9032 0.4140
32.9200 21.9165 0.4233
32.9400 21.9299 0.4088
32.9600 21.9432 0.4121
32.9800 21.9565 0.4255
33.0000 21.9698 0.4144
33.0200 21.9832 0.4114
33.0400 21.9965 0.4202
33.0600 22.0098 0.4044
33.0800 22.0231 0.4165
33.1000 22.0364 0.4235
33.1200 22.0498 0.3992
33.1400 22.0631 0.4163
33.1600 22.0764 0.4108
33.1800 22.0898 0.4014
33.2000 22.1032 0.4102
33.2200 22.1165 0.4108
33.2400 22.1298 0.3993
33.2600 22.1431 0.4105
33.2800 22.1565 0.4119
33.3000 22.1698 0.4012
33.3200 22.1832 0.4068
33.3400 22.1965 0.4113
33.3600 22.2098 0.4013
33.3800 22.2231 0.4065
33.4000 22.2365 0.4040
33.4200 22.2498 0.4031
33.4400 22.2631 0.4002
33.4600 22.2764 0.4003
33.4800 22.2898 0.3987
33.5000 22.3031 0.3989
33.5200 22.3164 0.4016
33.5400 22.3298 0.4009
33.5600 22.3431 0.3949
33.5800 22.3565 0.4068
33.6000 22.3698 0.3941
33.6200 22.3831 0.3906
33.6400 22.3965 0.4032
33.6600 22.4098 0.3882
33.6800 22.4232 0.3864
33.7000 22.4365 0.3954
33.7200 22.4498 0.3877
33.7400 22.4632 0.3908
33.7600 22.4765 0.3964
33.7800 22.4898 0.3835
33.8000 22.5031 0.3909
33.8200 22.5164 0.3918
33.8400 22.5298 0.3769
33.8600 22.5431 0.3853
33.8800 22.5564 0.3843
33.9000 22.5698 0.3717
33.9200 22.5831 0.3892
33.9400 22.5965 0.3799
33.9600 22.6099 0.3735
33.9800 22.6232 0.3868
34.0000 22.6365 0.3851
34.0200 22.6499 0.3672
34.0400 22.6632 0.3861
34.0600 22.6765 0.3801
34.0800 22.6898 0.3691
34.1000 22.7031 0.3826
34.1200 22.7164 0.3708
34.1400 22.7298 0.3687
34.1600 22.7431 0.3790
34.1800 22.7564 0.3652
34.2000 22.7697 0.3640
34.2200 22.7831 0.3799
34.2400 22.7964 0.3641
34.2600 22.8098 0.3679
34.2800 22.8231 0.3827
34.3000 22.8365 0.3672
34.3200 22.8499 0.3643
34.3400 22.8632 0.3728
34.3600 22.8765 0.3618
34.3800 22.8899 0.3674
34.4000 22.9032 0.3671
34.4200 22.9165 0.3599
34.4400 22.9298 0.3657
34.4600 22.9431 0.3675
34.4800 22.9565 0.3585
34.5000 22.9698 0.3638
34.5200 22.9831 0.3603
34.5400 22.9964 0.3579
34.5600 23.0098 0.3541
34.5800 23.0231 0.3631
34.6000 23.0364 0.3592
34.6200 23.0497 0.3555
34.6400 23.0631 0.3600
34.6600 23.0765 0.3584
34.6800 23.0898 0.3528
34.7000 23.1032 0.3611
34.7200 23.1165 0.3654
34.7400 23.1298 0.3470
34.7600 23.1432 0.3590
34.7800 23.1565 0.3611
34.8000 23.1698 0.3437
34.8200 23.1831 0.3569
34.8400 23.1965 0.3565
34.8600 23.2098 0.3386
34.8800 23.2231 0.3583
34.9000 23.2364 0.3478
34.9200 23.2498 0.3397
34.9400 23.2631 0.3551
34.9600 23.2765 0.3450
34.9800 23.2898 0.3431
35.0000 23.3032 0.3678
35.0200 23.3165 0.3483
35.0400 23.3299 0.3458
35.0600 23.3432 0.3646
35.0800 23.3565 0.3450
35.1000 23.3698 0.3424
35.1200 23.3832 0.3567
35.1400 23.3965 0.3374
35.1600 23.4098 0.3442
35.1800 23.4231 0.3517
35.2000 23.4365 0.3367
35.2200 23.4498 0.3486
35.2400 23.4631 0.3512
35.2600 23.4764 0.3374
35.2800 23.4898 0.3460
35.3000 23.5031 0.3468
35.3200 23.5164 0.3282
35.3400 23.5298 0.3461
35.3600 23.5431 0.3407
35.3800 23.5565 0.3311
35.4000 23.5699 0.3447
35.4200 23.5832 0.3335
35.4400 23.5965 0.3295
35.4600 23.6099 0.3439
35.4800 23.6232 0.3322
35.5000 23.6366 0.3297
35.5200 23.6498 0.3369
35.5400 23.6631 0.3357
35.5600 23.6765 0.3270
35.5800 23.6898 0.3361
35.6000 23.7031 0.3307
35.6200 23.7164 0.3287
35.6400 23.7298 0.3336
35.6600 23.7431 0.3298
35.6800 23.7565 0.3272
35.7000 23.7698 0.3297
35.7200 23.7831 0.3265
35.7400 23.7965 0.3244
35.7600 23.8099 0.3271
35.7800 23.8232 0.3301
35.8000 23.8365 0.3236
35.8200 23.8498 0.3244
35.8400 23.8632 0.3276
35.8600 23.8765 0.3251
35.8800 23.8898 0.3228
35.9000 23.9031 0.3206
35.9200 23.9165 0.3236
35.9400 23.9298 0.3180
35.9600 23.9431 0.3224
35.9800 23.9564 0.3189
36.0000 23.9697 0.3182
36.0200 23.9830 0.3214
36.0400 23.9964 0.3199
36.0600 24.0097 0.3112
36.0800 24.0231 0.3175
36.1000 24.0365 0.3187
36.1200 24.0499 0.3126
36.1400 24.0632 0.3127
36.1600 24.0765 0.3150
36.1800 24.0899 0.3110
36.2000 24.1032 0.3104
36.2200 24.1165 0.3148
36.2400 24.1298 0.3114
36.2600 24.1431 0.3058
36.2800 24.1564 0.3115
36.3000 24.1698 0.3102
36.3200 24.1831 0.3041
36.3400 24.1964 0.3123
36.3600 24.2098 0.3084
36.3800 24.2231 0.2964
36.4000 24.2365 0.3051
36.4200 24.2498 0.3074
36.4400 24.2632 0.2956
36.4600 24.2765 0.3116
36.4800 24.2899 0.3005
36.5000 24.3032 0.2930
36.5200 24.3165 0.3045
36.5400 24.3298 0.3022
36.5600 24.3432 0.2923
36.5800 24.3565 0.3092
36.6000 24.3698 0.2992
36.6200 24.3831 0.2949
36.6400 24.3964 0.3057
36.6600 24.4098 0.2960
36.6800 24.4231 0.2941
36.7000 24.4364 0.3043
36.7200 24.4498 0.2906
36.7400 24.4631 0.3007
36.7600 24.4765 0.2995
36.7800 24.4898 0.2858
36.8000 24.5031 0.2997
36.8200 24.5165 0.2994
36.8400 24.5299 0.2850
36.8600 24.5432 0.2957
36.8800 24.5565 0.2975
36.9000 24.5698 0.2833
36.9200 24.5832 0.2920
36.9400 24.5965 0.2877
36.9600 24.6098 0.2883
36.9800 24.6231 0.2921
37.0000 24.6365 0.2870
37.0200 24.6498 0.2864
37.0400 24.6631 0.2918
37.0600 24.6764 0.2829
37.0800 24.6897 0.2851
37.1000 24.7031 0.2866
37.1200 24.7165 0.2846
37.1400 24.7298 0.2793
37.1600 24.7431 0.2857
37.1800 24.7565 0.2786
37.2000 24.7699 0.2862
37.2200 24.7832 0.2840
37.2400 24.7965 0.2769
37.2600 24.8098 0.2861
37.2800 24.8232 0.2814
37.3000 24.8365 0.2741
37.3200 24.8498 0.2896
37.3400 24.8631 0.2871
37.3600 24.8765 0.2781
37.3800 24.8898 0.2819
37.4000 24.9031 0.2803
37.4200 24.9165 0.2745
37.4400 24.9298 0.2841
37.4600 24.9431 0.2791
37.4800 24.9565 0.2723
37.5000 24.9698 0.2887
37.5200 24.9831 0.2784
37.5400 24.9965 0.2720
37.5600 25.0098 0.2838
37.5800 25.0232 0.2800
37.6000 25.0365 0.2702
37.6200 25.0498 0.2824
37.6400 25.0632 0.2754
37.6600 25.0765 0.2752
37.6800 25.0898 0.2791
37.7000 25.1031 0.2715
37.7200 25.1165 0.2732
37.7400 25.1298 0.2780
37.7600 25.1431 0.2675
37.7800 25.1564 0.2681
37.8000 25.1697 0.2751
37.8200 25.1831 0.2717
37.8400 25.1964 0.2657
37.8600 25.2098 0.2732
37.8800 25.2231 0.2671
37.9000 25.2365 0.2651
37.9200 25.2499 0.2682
37.9400 25.2632 0.2630
37.9600 25.2765 0.2692
37.9800 25.2898 0.2658
38.0000 25.3032 0.2612
38.0200 25.3165 0.2656
38.0400 25.3298 0.2659
38.0600 25.3431 0.2628
38.0800 25.3565 0.2651
38.1000 25.3698 0.2628
38.1200 25.3831 0.2606
38.1400 25.3964 0.2575
38.1600 25.4097 0.2646
38.1800 25.4231 0.2589
38.2000 25.4364 0.2646
38.2200 25.4498 0.2561
38.2400 25.4631 0.2586
38.2600 25.4765 0.2597
38.2800 25.4899 0.2592
38.3000 25.5032 0.2517
38.3200 25.5165 0.2619
38.3400 25.5299 0.2587
38.3600 25.5432 0.2516
38.3800 25.5565 0.2622
38.4000 25.5698 0.2550
38.4200 25.5831 0.2511
38.4400 25.5964 0.2644
38.4600 25.6098 0.2473
38.4800 25.6231 0.2492
38.5000 25.6364 0.2584
38.5200 25.6497 0.2506
38.5400 25.6631 0.2520
38.5600 25.6765 0.2553
38.5800 25.6898 0.2511
38.6000 25.7031 0.2486
38.6200 25.7165 0.2565
38.6400 25.7298 0.2452
38.6600 25.7432 0.2520
38.6800 25.7565 0.2564
38.7000 25.7698 0.2471
38.7200 25.7832 0.2500
38.7400 25.7965 0.2488
38.7600 25.8099 0.2459
38.7800 25.8232 0.2538
38.8000 25.8365 0.2412
38.8200 25.8498 0.2458
38.8400 25.8632 0.2484
38.8600 25.8764 0.2414
38.8800 25.8898 0.2437
38.9000 25.9031 0.2531
38.9200 25.9164 0.2321
38.9400 25.9298 0.2467
38.9600 25.9431 0.2507
38.9800 25.9564 0.2359
39.0000 25.9698 0.2429
39.0200 25.9832 0.2477
39.0400 25.9965 0.2348
39.0600 26.0098 0.2473
39.0800 26.0232 0.2401
39.1000 26.0365 0.2303
39.1200 26.0498 0.2492
39.1400 26.0631 0.2374
39.1600 26.0765 0.2313
39.1800 26.0898 0.2484
39.2000 26.1031 0.2322
39.2200 26.1164 0.2275
39.2400 26.1297 0.2499
39.2600 26.1431 0.2273
39.2800 26.1564 0.2303
39.3000 26.1698 0.2421
39.3200 26.1831 0.2279
39.3400 26.1965 0.2348
39.3600 26.2099 0.2370
39.3800 26.2232 0.2242
39.4000 26.2365 0.2368
39.4200 26.2499 0.2334
39.4400 26.2632 0.2259
39.4600 26.2765 0.2297
39.4800 26.2898 0.2332
39.5000 26.3031 0.2221
39.5200 26.3164 0.2304
39.5400 26.3298 0.2292
39.5600 26.3431 0.2212
39.5800 26.3564 0.2315
39.6000 26.3697 0.2290
39.6200 26.3831 0.2245
39.6400 26.3965 0.2273
39.6600 26.4098 0.2266
39.6800 26.4231 0.2244
39.7000 26.4365 0.2309
39.7200 26.4498 0.2258
39.7400 26.4632 0.2272
39.7600 26.4765 0.2263
39.7800 26.4898 0.2246
39.8000 26.5032 0.2304
39.8200 26.5166 0.2234
39.8400 26.5299 0.2203
39.8600 26.5432 0.2369
39.8800 26.5565 0.2206
39.9000 26.5698 0.2210
39.9200 26.5831 0.2315
39.9400 26.5964 0.2220
39.9600 26.6097 0.2207
39.9800 26.6230 0.2286
40.0000 26.6364 0.2217
40.0200 26.6498 0.2199
40.0400 26.6631 0.2252
40.0600 26.6765 0.2175
40.0800 26.6899 0.2205
40.1000 26.7032 0.2263
40.1200 26.7165 0.2078
40.1400 26.7298 0.2244
40.1600 26.7432 0.2265
40.1800 26.7565 0.2053
40.2000 26.7698 0.2199
40.2200 26.7831 0.2234
40.2400 26.7965 0.2050
40.2600 26.8098 0.2163
40.2800 26.8231 0.2214
40.3000 26.8365 0.1990
40.3200 26.8498 0.2224
40.3400 26.8631 0.2170
40.3600 26.8764 0.2001
40.3800 26.8898 0.2212
40.4000 26.9031 0.2149
40.4200 26.9165 0.1961
40.4400 26.9298 0.2200
40.4600 26.9432 0.2106
40.4800 26.9565 0.1985
40.5000 26.9698 0.2209
40.5200 26.9832 0.2079
40.5400 26.9965 0.1973
40.5600 27.0099 0.2150
40.5800 27.0231 0.2031
40.6000 27.0364 0.2048
40.6200 27.0498 0.2102
40.6400 27.0631 0.2052
40.6600 27.0764 0.2010
40.6800 27.0898 0.2120
40.7000 27.1031 0.2024
40.7200 27.1165 0.1984
40.7400 27.1298 0.2071
40.7600 27.1431 0.2006
40.7800 27.1565 0.2013
40.8000 27.1698 0.2076
40.8200 27.1831 0.2018
40.8400 27.1964 0.1989
40.8600 27.2098 0.2101
40.8800 27.2231 0.1981
40.9000 27.2365 0.2044
40.9200 27.2498 0.2061
40.9400 27.2632 0.1981
40.9600 27.2765 0.2030
40.9800 27.2899 0.1979
41.0000 27.3032 0.1942
41.0200 27.3165 0.2011
41.0400 27.3298 0.2007
41.0600 27.3431 0.1987
41.0800 27.3564 0.1979
41.1000 27.3698 0.2059
41.1200 27.3831 0.1938
41.1400 27.3964 0.1954
41.1600 27.4098 0.1995
41.1800 27.4232 0.2036
41.2000 27.4366 0.1949
41.2200 27.4499 0.1949
41.2400 27.4632 0.2012
41.2600 27.4765 0.1940
41.2800 27.4899 0.1981
41.3000 27.5031 0.1973
41.3200 27.5164 0.1929
41.3400 27.5298 0.1993
41.3600 27.5431 0.1951
41.3800 27.5564 0.1920
41.4000 27.5697 0.1976
41.4200 27.5831 0.1903
41.4400 27.5964 0.1928
41.4600 27.6098 0.1914
41.4800 27.6231 0.1958
41.5000 27.6364 0.1900
41.5200 27.6498 0.1918
41.5400 27.6632 0.1888
41.5600 27.6765 0.1898
41.5800 27.6899 0.1861
41.6000 27.7032 0.1879
41.6200 27.7165 0.1879
41.6400 27.7298 0.1871
41.6600 27.7431 0.1834
41.6800 27.7564 0.1883
41.7000 27.7698 0.1855
41.7200 27.7831 0.1852
41.7400 27.7964 0.1880
41.7600 27.8097 0.1794
41.7800 27.8231 0.1842
41.8000 27.8365 0.1903
41.8200 27.8498 0.1760
41.8400 27.8631 0.1806
41.8600 27.8765 0.1889
41.8800 27.8898 0.1774
41.9000 27.9032 0.1808
41.9200 27.9165 0.1829
41.9400 27.9298 0.1779
41.9600 27.9432 0.1813
41.9800 27.9565 0.1811
42.0000 27.9699 0.1739
42.0200 27.9832 0.1814
42.0400 27.9965 0.1824
42.0600 28.0098 0.1741
42.0800 28.0232 0.1756
42.1000 28.0365 0.1862
42.1200 28.0498 0.1689
42.1400 28.0631 0.1769
42.1600 28.0764 0.1831
42.1800 28.0898 0.1719
42.2000 28.1031 0.1721
42.2200 28.1165 0.1886
42.2400 28.1298 0.1694
42.2600 28.1432 0.1686
42.2800 28.1566 0.1851
42.3000 28.1699 0.1671
42.3200 28.1832 0.1739
42.3400 28.1965 0.1875
42.3600 28.2098 0.1608
42.3800 28.2231 0.1687
42.4000 28.2364 0.1910
42.4200 28.2498 0.1647
42.4400 28.2631 0.1682
42.4600 28.2765 0.1832
42.4800 28.2898 0.1631
42.5000 28.3031 0.1713
42.5200 28.3164 0.1801
42.5400 28.3298 0.1593
42.5600 28.3431 0.1778
42.5800 28.3564 0.1753
42.6000 28.3698 0.1600
42.6200 28.3832 0.1733
42.6400 28.3965 0.1788
42.6600 28.4098 0.1562
42.6800 28.4232 0.1695
42.7000 28.4365 0.1726
42.7200 28.4499 0.1580
42.7400 28.4632 0.1660
42.7600 28.4765 0.1739
42.7800 28.4898 0.1601
42.8000 28.5031 0.1644
42.8200 28.5165 0.1714
42.8400 28.5298 0.1643
42.8600 28.5431 0.1620
42.8800 28.5564 0.1713
42.9000 28.5698 0.1641
42.9200 28.5831 0.1592
42.9400 28.5964 0.1686
42.9600 28.6098 0.1606
42.9800 28.6232 0.1588
43.0000 28.6365 0.1653
43.0200 28.6498 0.1624
43.0400 28.6631 0.1526
43.0600 28.6765 0.1668
43.0800 28.6898 0.1617
43.1000 28.7032 0.1515
43.1200 28.7165 0.1702
43.1400 28.7298 0.1583
43.1600 28.7432 0.1509
43.1800 28.7565 0.1690
43.2000 28.7697 0.1551
43.2200 28.7830 0.1546
43.2400 28.7964 0.1622
43.2600 28.8097 0.1536
43.2800 28.8231 0.1537
43.3000 28.8364 0.1618
43.3200 28.8498 0.1502
43.3400 28.8632 0.1524
43.3600 28.8766 0.1581
43.3800 28.8899 0.1466
43.4000 28.9032 0.1549
43.4200 28.9166 0.1606
43.4400 28.9299 0.1449
43.4600 28.9432 0.1519
43.4800 28.9564 0.1580
43.5000 28.9698 0.1524
43.5200 28.9831 0.1498
43.5400 28.9964 0.1521
43.5600 29.0098 0.1501
43.5800 29.0231 0.1424
43.6000 29.0364 0.1572
43.6200 29.0498 0.1462
43.6400 29.0631 0.1444
43.6600 29.0765 0.1554
43.6800 29.0898 0.1426
43.7000 29.1032 0.1449
43.7200 29.1166 0.1565
43.7400 29.1298 0.1397
43.7600 29.1432 0.1466
43.7800 29.1565 0.1529
43.8000 29.1699 0.1384
43.8200 29.1832 0.1453
43.8400 29.1965 0.1546
43.8600 29.2098 0.1361
43.8800 29.2231 0.1428
43.9000 29.2364 0.1481
43.9200 29.2498 0.1414
43.9400 29.2631 0.1406
43.9600 29.2764 0.1471
43.9800 29.2898 0.1434
44.0000 29.3031 0.1373
44.0200 29.3165 0.1444
44.0400 29.3298 0.1424
44.0600 29.3432 0.1358
44.0800 29.3565 0.1458
44.1000 29.3698 0.1403
44.1200 29.3832 0.1309
44.1400 29.3965 0.1486
44.1600 29.4099 0.1374
44.1800 29.4232 0.1264
44.2000 29.4365 0.1454
44.2200 29.4498 0.1408
44.2400 29.4631 0.1274
44.2600 29.4764 0.1491
44.2800 29.4897 0.1343
44.3000 29.5031 0.1275
44.3200 29.5164 0.1494
44.3400 29.5298 0.1283
44.3600 29.5431 0.1262
44.3800 29.5564 0.1453
44.4000 29.5698 0.1278
44.4200 29.5832 0.1293
44.4400 29.5965 0.1394
44.4600 29.6099 0.1288
44.4800 29.6232 0.1310
44.5000 29.6365 0.1365
44.5200 29.6498 0.1263
44.5400 29.6631 0.1317
44.5600 29.6764 0.1369
44.5800 29.6898 0.1282
44.6000 29.7031 0.1292
44.6200 29.7165 0.1346
44.6400 29.7298 0.1274
44.6600 29.7431 0.1249
44.6800 29.7564 0.1311
44.7000 29.7698 0.1287
44.7200 29.7831 0.1250
44.7400 29.7964 0.1294
44.7600 29.8098 0.1301
44.7800 29.8231 0.1233
44.8000 29.8365 0.1272
44.8200 29.8498 0.1283
44.8400 29.8632 0.1288
44.8600 29.8765 0.1234
44.8800 29.8899 0.1265
44.9000 29.9032 0.1236
44.9200 29.9165 0.1296
44.9400 29.9298 0.1278
44.9600 29.9431 0.1219
44.9800 29.9565 0.1249
45.0000 29.9698 0.1248
45.0200 29.9831 0.1223
45.0400 29.9964 0.1278
45.0600 30.0098 0.1245
45.0800 30.0231 0.1192
45.1000 30.0364 0.1234
45.1200 30.0498 0.1257
45.1400 30.0632 0.1220
45.1600 30.0766 0.1200
45.1800 30.0899 0.1254
45.2000 30.1032 0.1194
45.2200 30.1165 0.1210
45.2400 30.1299 0.1229
45.2600 30.1432 0.1207
45.2800 30.1565 0.1216
45.3000 30.1698 0.1238
45.3200 30.1831 0.1213
45.3400 30.1965 0.1117
45.3600 30.2098 0.1207
45.3800 30.2231 0.1242
45.4000 30.2364 0.1109
45.4200 30.2498 0.1228
45.4400 30.2631 0.1124
45.4600 30.2764 0.1139
45.4800 30.2898 0.1202
45.5000 30.3032 0.1125
45.5200 30.3166 0.1089
45.5400 30.3299 0.1224
45.5600 30.3432 0.1095
45.5800 30.3565 0.1113
45.6000 30.3699 0.1217
45.6200 30.3832 0.1077
45.6400 30.3964 0.1091
45.6600 30.4097 0.1187
45.6800 30.4231 0.1085
45.7000 30.4364 0.1072
45.7200 30.4498 0.1170
45.7400 30.4631 0.1029
45.7600 30.4764 0.1104
45.7800 30.4898 0.1128
45.8000 30.5032 0.0978
45.8200 30.5165 0.1059
45.8400 30.5298 0.1149
45.8600 30.5432 0.0978
45.8800 30.5565 0.1076
45.9000 30.5698 0.1089
45.9200 30.5831 0.1038
45.9400 30.5965 0.0986
45.9600 30.6098 0.1127
45.9800 30.6232 0.1007
46.0000 30.6365 0.0986
46.0200 30.6498 0.1102
46.0400 30.6632 0.1025
46.0600 30.6765 0.0974
46.0800 30.6898 0.1048
46.1000 30.7031 0.0969
46.1200 30.7164 0.0998
46.1400 30.7298 0.1078
46.1600 30.7431 0.0973
46.1800 30.7564 0.1002
46.2000 30.7698 0.1064
46.2200 30.7831 0.0967
46.2400 30.7965 0.1015
46.2600 30.8098 0.1042
46.2800 30.8231 0.0928
46.3000 30.8365 0.0991
46.3200 30.8499 0.1036
46.3400 30.8632 0.0941
46.3600 30.8765 0.1002
46.3800 30.8898 0.1048
46.4000 30.9032 0.0884
46.4200 30.9165 0.1033
46.4400 30.9298 0.1028
46.4600 30.9431 0.0963
46.4800 30.9564 0.1033
46.5000 30.9697 0.1006
46.5200 30.9831 0.0911
46.5400 30.9964 0.1024
46.5600 31.0098 0.1000
46.5800 31.0232 0.0904
46.6000 31.0365 0.0991
46.6200 31.0498 0.0985
46.6400 31.0632 0.0900
46.6600 31.0765 0.0992
46.6800 31.0898 0.0918
46.7000 31.1032 0.0928
46.7200 31.1165 0.0955
46.7400 31.1298 0.0928
46.7600 31.1431 0.0922
46.7800 31.1565 0.0975
46.8000 31.1698 0.0905
46.8200 31.1831 0.0879
46.8400 31.1964 0.1003
46.8600 31.2098 0.0909
46.8800 31.2232 0.0892
46.9000 31.2365 0.0960
46.9200 31.2498 0.0840
46.9400 31.2631 0.0870
46.9600 31.2765 0.0943
46.9800 31.2898 0.0800
47.0000 31.3032 0.0905
47.0200 31.3165 0.0955
47.0400 31.3299 0.0763
47.0600 31.3432 0.0841
47.0800 31.3565 0.0925
47.1000 31.3698 0.0780
47.1200 31.3831 0.0862
47.1400 31.3965 0.0873
47.1600 31.4098 0.0754
47.1800 31.4231 0.0851
47.2000 31.4364 0.0843
47.2200 31.4497 0.0766
47.2400 31.4631 0.0890
47.2600 31.4764 0.0788
47.2800 31.4898 0.0766
47.3000 31.5031 0.0868
47.3200 31.5165 0.0750
47.3400 31.5299 0.0732
47.3600 31.5431 0.0866
47.3800 31.5565 0.0732
47.4000 31.5698 0.0740
47.4200 31.5832 0.0907
47.4400 31.5965 0.0685
47.4600 31.6098 0.0749
47.4800 31.6231 0.0872
47.5000 31.6365 0.0706
47.5200 31.6498 0.0703
47.5400 31.6631 0.0867
47.5600 31.6764 0.0673
47.5800 31.6898 0.0739
47.6000 31.7031 0.0834
47.6200 31.7164 0.0691
47.6400 31.7298 0.0723
47.6600 31.7432 0.0803
47.6800 31.7565 0.0683
47.7000 31.7699 0.0757
47.7200 31.7832 0.0751
47.7400 31.7965 0.0674
47.7600 31.8099 0.0748
47.7800 31.8232 0.0769
47.8000 31.8365 0.0664
47.8200 31.8498 0.0717
47.8400 31.8631 0.0766
47.8600 31.8765 0.0667
47.8800 31.8898 0.0702
47.9000 31.9031 0.0741
47.9200 31.9164 0.0748
47.9400 31.9298 0.0650
47.9600 31.9431 0.0723
47.9800 31.9564 0.0712
48.0000 31.9698 0.0667
48.0200 31.9831 0.0722
48.0400 31.9965 0.0682
48.0600 32.0098 0.0617
48.0800 32.0231 0.0756
48.1000 32.0364 0.0660
48.1200 32.0498 0.0594
48.1400 32.0632 0.0736
48.1600 32.0765 0.0676
48.1800 32.0898 0.0580
48.2000 32.1032 0.0764
48.2200 32.1165 0.0649
48.2400 32.1298 0.0598
48.2600 32.1431 0.0755
48.2800 32.1564 0.0646
48.3000 32.1697 0.0616
48.3200 32.1831 0.0705
48.3400 32.1964 0.0630
48.3600 32.2098 0.0607
48.3800 32.2231 0.0705
48.4000 32.2365 0.0575
48.4200 32.2499 0.0592
48.4400 32.2632 0.0720
48.4600 32.2765 0.0667
48.4800 32.2899 0.0557
48.5000 32.3032 0.0715
48.5200 32.3165 0.0579
48.5400 32.3298 0.0570
48.5600 32.3431 0.0730
48.5800 32.3565 0.0597
48.6000 32.3698 0.0501
48.6200 32.3831 0.0692
48.6400 32.3964 0.0639
48.6600 32.4097 0.0550
48.6800 32.4231 0.0602
48.7000 32.4364 0.0592
48.7200 32.4498 0.0495
48.7400 32.4631 0.0644
48.7600 32.4765 0.0594
48.7800 32.4899 0.0478
48.8000 32.5032 0.0601
48.8200 32.5165 0.0582
48.8400 32.5299 0.0531
48.8600 32.5432 0.0622
48.8800 32.5565 0.0509
48.9000 32.5698 0.0486
48.9200 32.5831 0.0664
48.9400 32.5965 0.0480
48.9600 32.6098 0.0487
48.9800 32.6231 0.0615
49.0000 32.6364 0.0474
49.0200 32.6498 0.0442
49.0400 32.6631 0.0621
49.0600 32.6765 0.0482
49.0800 32.6898 0.0443
49.1000 32.7031 0.0582
49.1200 32.7165 0.0533
49.1400 32.7299 0.0405
49.1600 32.7432 0.0602
49.1800 32.7565 0.0507
49.2000 32.7698 0.0438
49.2200 32.7832 0.0564
49.2400 32.7965 0.0483
49.2600 32.8098 0.0445
49.2800 32.8231 0.0561
49.3000 32.8365 0.0470
49.3200 32.8498 0.0479
49.3400 32.8631 0.0497
49.3600 32.8764 0.0482
49.3800 32.8897 0.0491
49.4000 32.9031 0.0511
49.4200 32.9165 0.0439
49.4400 32.9298 0.0481
49.4600 32.9432 0.0533
49.4800 32.9565 0.0420
49.5000 32.9699 0.0460
49.5200 32.9832 0.0473
49.5400 32.9965 0.0418
49.5600 33.0098 0.0511
49.5800 33.0232 0.0470
49.6000 33.0365 0.0375
49.6200 33.0498 0.0490
49.6400 33.0631 0.0433
49.6600 33.0764 0.0408
49.6800 33.0898 0.0482
49.7000 33.1031 0.0404
49.7200 33.1164 0.0421
49.7400 33.1298 0.0479
49.7600 33.1431 0.0369
49.7800 33.1564 0.0443
49.8000 33.1698 0.0395
49.8200 33.1831 0.0325
49.8400 33.1965 0.0436
49.8600 33.2099 0.0385
49.8800 33.2232 0.0334
49.9000 33.2365 0.0424
49.9200 33.2499 0.0338
49.9400 33.2632 0.0368
49.9600 33.2766 0.0430
49.9800 33.2898 0.0258
50.0000 33.3031 0.0395
50.0200 33.3165 0.0417
50.0400 33.3298 0.0252
50.0600 33.3431 0.0362
50.0800 33.3564 0.0448
50.1000 33.3698 0.0226
50.1200 33.3831 0.0389
50.1400 33.3965 0.0364
50.1600 33.4098 0.0260
50.1800 33.4231 0.0341
50.2000 33.4365 0.0307
50.2200 33.4498 0.0234
50.2400 33.4632 0.0383
50.2600 33.4765 0.0263
50.2800 33.4898 0.0271
50.3000 33.5032 0.0346
50.3200 33.5165 0.0282
50.3400 33.5298 0.0263
50.3600 33.5431 0.0388
50.3800 33.5565 0.0244
50.4000 33.5698 0.0198
50.4200 33.5831 0.0367
50.4400 33.5964 0.0268
50.4600 33.6097 0.0239
50.4800 33.6231 0.0359
50.5000 33.6364 0.0263
50.5200 33.6497 0.0167
50.5400 33.6631 0.0369
50.5600 33.6765 0.0261
50.5800 33.6899 0.0171
50.6000 33.7032 0.0324
50.6200 33.7165 0.0264
50.6400 33.7299 0.0186
50.6600 33.7432 0.0330
50.6800 33.7565 0.0223
50.7000 33.7698 0.0216
50.7200 33.7831 0.0308
50.7400 33.7964 0.0229
50.7600 33.8098 0.0150
50.7800 33.8231 0.0364
50.8000 33.8364 0.0202
50.8200 33.8498 0.0161
50.8400 33.8631 0.0354
50.8600 33.8765 0.0162
50.8800 33.8898 0.0194
50.9000 33.9032 0.0335
50.9200 33.9165 0.0133
50.9400 33.9299 0.0231
50.9600 33.9432 0.0271
50.9800 33.9565 0.0120
51.0000 33.9698 0.0214
51.0200 33.9832 0.0275
51.0400 33.9965 0.0078
51.0600 34.0098 0.0234
51.0800 34.0231 0.0252
51.1000 34.0364 0.0065
51.1200 34.0498 0.0249
51.1400 34.0631 0.0231
51.1600 34.0764 0.0092
51.1800 34.0897 0.0232
51.2000 34.1031 0.0180
51.2200 34.1165 0.0117
51.2400 34.1298 0.0248
51.2600 34.1431 0.0130
51.2800 34.1565 0.0150
51.3000 34.1699 0.0217
51.3200 34.1832 0.0130
51.3400 34.1965 0.0107
51.3600 34.2098 0.0209
51.3800 34.2232 0.0092
51.4000 34.2366 0.0098
51.4200 34.2499 0.0199
51.4400 34.2631 0.0160
51.4600 34.2765 0.0104
51.4800 34.2898 0.0148
51.5000 34.3031 0.0054
51.5200 34.3164 0.0117
51.5400 34.3297 0.0153
51.5600 34.3431 0.0087
51.5800 34.3564 0.0114
51.6000 34.3698 0.0124
51.6200 34.3831 0.0066
51.6400 34.3965 0.0063
51.6600 34.4099 0.0180
51.6800 34.4232 0.0059
51.7000 34.4365 0.0004
51.7200 34.4499 0.0140
51.7400 34.4632 0.0048
51.7600 34.4765 0.0013
51.7800 34.4898 0.0155
51.8000 34.5031 0.0023
51.8200 34.5164 0.0003
51.8400 34.5298 0.0144
51.8600 34.5431 0.0008
51.8800 34.5564 0.0013
51.9000 34.5698 0.0132
51.9200 34.5831 -0.0041
51.9400 34.5965 0.0062
51.9600 34.6098 0.0111
51.9800 34.6231 -0.0031
52.0000 34.6364 0.0074
52.0200 34.6498 0.0092
52.0400 34.6631 -0.0096
52.0600 34.6765 0.0034
52.0800 34.6898 0.0089
52.1000 34.7032 -0.0086
52.1200 34.7166 0.0012
52.1400 34.7299 0.0051
52.1600 34.7432 -0.0068
52.1800 34.7565 -0.0018
52.2000 34.7698 0.0084
52.2200 34.7831 -0.0041
52.2400 34.7964 -0.0055
52.2600 34.8097 0.0007
52.2800 34.8231 -0.0041
52.3000 34.8364 -0.0114
52.3200 34.8498 0.0063
52.3400 34.8631 -0.0045
52.3600 34.8765 -0.0085
52.3800 34.8899 0.0021
52.4000 34.9032 -0.0078
52.4200 34.9165 -0.0123
52.4400 34.9298 0.0053
52.4600 34.9432 -0.0120
52.4800 34.9565 -0.0152
52.5000 34.9698 0.0032
52.5200 34.9831 -0.0110
52.5400 34.9965 -0.0159
52.5600 35.0098 -0.0007
52.5800 35.0231 -0.0086
52.6000 35.0364 -0.0133
52.6200 35.0497 -0.0055
52.6400 35.0631 -0.0083
52.6600 35.0764 -0.0149
52.6800 35.0898 -0.0106
52.7000 35.1031 -0.0063
52.7200 35.1165 -0.0184
52.7400 35.1299 -0.0109
52.7600 35.1432 -0.0084
52.7800 35.1565 -0.0171
52.8000 35.1698 -0.0114
52.8200 35.1832 -0.0102
52.8400 35.1965 -0.0184
52.8600 35.2098 -0.0076
52.8800 35.2231 -0.0166
52.9000 35.2364 -0.0220
52.9200 35.2498 0.0000
52.9400 35.2631 -0.0190
52.9600 35.2764 -0.0293
52.9800 35.2897 0.0017
53.0000 35.3031 -0.0193
53.0200 35.3165 -0.0307
53.0400 35.3299 0.0016
53.0600 35.3432 -0.0211
53.0800 35.3565 -0.0382
53.1000 35.3699 0.0082
53.1200 35.3832 -0.0246
53.1400 35.3965 -0.0473
53.1600 35.4098 0.0074
53.1800 35.4231 -0.0132
53.2000 35.4365 -0.0483
53.2200 35.4498 -0.0027
53.2400 35.4632 -0.0107
53.2600 35.4765 -0.0449
53.2800 35.4898 -0.0039
53.3000 35.5032 -0.0140
53.3200 35.5165 -0.0396
53.3400 35.5298 -0.0145
53.3600 35.5431 -0.0156
53.3800 35.5564 -0.0369
53.4000 35.5697 -0.0129
53.4200 35.5831 -0.0225
53.4400 35.5965 -0.0299
53.4600 35.6098 -0.0225
53.4800 35.6232 -0.0201
53.5000 35.6365 -0.0300
53.5200 35.6498 -0.0230
53.5400 35.6632 -0.0239
53.5600 35.6765 -0.0285
53.5800 35.6898 -0.0233
53.6000 35.7032 -0.0213
53.6200 35.7165 -0.0309
53.6400 35.7298 -0.0270
53.6600 35.7432 -0.0186
53.6800 35.7565 -0.0338
53.7000 35.7698 -0.0305
53.7200 35.7831 -0.0144
53.7400 35.7964 -0.0330
53.7600 35.8098 -0.0332
53.7800 35.8231 -0.0149
53.8000 35.8365 -0.0372
53.8200 35.8498 -0.0305
53.8400 35.8632 -0.0195
53.8600 35.8765 -0.0320
53.8800 35.8898 -0.0360
53.9000 35.9032 -0.0208
53.9200 35.9165 -0.0350
53.9400 35.9298 -0.0296
53.9600 35.9431 -0.0263
53.9800 35.9564 -0.0306
54.0000 35.9698 -0.0321
54.0200 35.9831 -0.0303
54.0400 35.9964 -0.0343
54.0600 36.0098 -0.0309
54.0800 36.0231 -0.0328
54.1000 36.0365 -0.0332
54.1200 36.0498 -0.0330
54.1400 36.0631 -0.0367
54.1600 36.0765 -0.0321
54.1800 36.0898 -0.0327
54.2000 36.1032 -0.0401
54.2200 36.1165 -0.0401
54.2400 36.1298 -0.0334
54.2600 36.1432 -0.0426
54.2800 36.1566 -0.0382
54.3000 36.1699 -0.0323
54.3200 36.1832 -0.0431
54.3400 36.1965 -0.0406
54.3600 36.2098 -0.0313
54.3800 36.2231 -0.0494
54.4000 36.2364 -0.0382
54.4200 36.2497 -0.0355
54.4400 36.2631 -0.0493
54.4600 36.2764 -0.0467
54.4800 36.2898 -0.0319
54.5000 36.3031 -0.0500
54.5200 36.3165 -0.0464
54.5400 36.3298 -0.0356
54.5600 36.3432 -0.0472
54.5800 36.3565 -0.0461
54.6000 36.3699 -0.0373
54.6200 36.3832 -0.0447
54.6400 36.3965 -0.0500
54.6600 36.4098 -0.0414
54.6800 36.4231 -0.0470
54.7000 36.4364 -0.0474
54.7200 36.4498 -0.0409
54.7400 36.4631 -0.0454
54.7600 36.4764 -0.0546
54.7800 36.4898 -0.0455
54.8000 36.5031 -0.0372
54.8200 36.5164 -0.0519
54.8400 36.5298 -0.0548
54.8600 36.5431 -0.0356
54.8800 36.5564 -0.0508
54.9000 36.5698 -0.0545
54.9200 36.5832 -0.0425
54.9400 36.5965 -0.0502
54.9600 36.6098 -0.0495
54.9800 36.6232 -0.0417
55.0000 36.6365 -0.0625
55.0200 36.6498 -0.0505
55.0400 36.6631 -0.0444
55.0600 36.6764 -0.0558
55.0800 36.6898 -0.0525
55.1000 36.7031 -0.0460
55.1200 36.7164 -0.0572
55.1400 36.7297 -0.0517
55.1600 36.7431 -0.0463
55.1800 36.7564 -0.0558
55.2000 36.7698 -0.0563
55.2200 36.7831 -0.0474
55.2400 36.7964 -0.0568
55.2600 36.8098 -0.0573
55.2800 36.8232 -0.0488
55.3000 36.8365 -0.0568
55.3200 36.8498 -0.0600
55.3400 36.8631 -0.0521
55.3600 36.8765 -0.0565
55.3800 36.8898 -0.0656
55.4000 36.9032 -0.0469
55.4200 36.9165 -0.0607
55.4400 36.9299 -0.0614
55.4600 36.9432 -0.0528
55.4800 36.9565 -0.0615
55.5000 36.9698 -0.0655
55.5200 36.9831 -0.0508
55.5400 36.9964 -0.0671
55.5600 37.0097 -0.0612
55.5800 37.0231 -0.0510
55.6000 37.0364 -0.0648
55.6200 37.0498 -0.0643
55.6400 37.0632 -0.0534
55.6600 37.0766 -0.0739
55.6800 37.0899 -0.0607
55.7000 37.1032 -0.0555
55.7200 37.1165 -0.0731
55.7400 37.1299 -0.0638
55.7600 37.1432 -0.0559
55.7800 37.1565 -0.0751
55.8000 37.1698 -0.0656
55.8200 37.1831 -0.0583
55.8400 37.1964 -0.0721
55.8600 37.2097 -0.0662
55.8800 37.2231 -0.0635
55.9000 37.2364 -0.0706
55.9200 37.2498 -0.0682
55.9400 37.2631 -0.0692
55.9600 37.2764 -0.0731
55.9800 37.2898 -0.0632
56.0000 37.3032 -0.0724
56.0200 37.3165 -0.0763
56.0400 37.3298 -0.0694
56.0600 37.3432 -0.0682
56.0800 37.3565 -0.0764
56.1000 37.3699 -0.0718
56.1200 37.3832 -0.0673
56.1400 37.3965 -0.0717
56.1600 37.4098 -0.0800
56.1800 37.4232 -0.0689
56.2000 37.4365 -0.0725
56.2200 37.4498 -0.0808
56.2400 37.4631 -0.0747
56.2600 37.4764 -0.0713
56.2800 37.4898 -0.0787
56.3000 37.5031 -0.0722
56.3200 37.5165 -0.0757
56.3400 37.5298 -0.0808
56.3600 37.5432 -0.0742
56.3800 37.5565 -0.0801
56.4000 37.5698 -0.0818
56.4200 37.5831 -0.0713
56.4400 37.5965 -0.0796
56.4600 37.6099 -0.0844
56.4800 37.6232 -0.0729
56.5000 37.6365 -0.0807
56.5200 37.6498 -0.0855
56.5400 37.6632 -0.0766
56.5600 37.6765 -0.0794
56.5800 37.6898 -0.0898
56.6000 37.7031 -0.0766
56.6200 37.7164 -0.0791
56.6400 37.7298 -0.0829
56.6600 37.7431 -0.0811
56.6800 37.7565 -0.0785
56.7000 37.7698 -0.0895
56.7200 37.7832 -0.0819
56.7400 37.7965 -0.0819
56.7600 37.8099 -0.0874
56.7800 37.8232 -0.0813
56.8000 37.8365 -0.0879
56.8200 37.8498 -0.0891
56.8400 37.8631 -0.0791
56.8600 37.8764 -0.0874
56.8800 37.8898 -0.0876
56.9000 37.9031 -0.0803
56.9200 37.9165 -0.0900
56.9400 37.9298 -0.0891
56.9600 37.9431 -0.0848
56.9800 37.9564 -0.0912
57.0000 37.9698 -0.0902
57.0200 37.9831 -0.0831
57.0400 37.9964 -0.0941
57.0600 38.0098 -0.0874
57.0800 38.0232 -0.0886
57.1000 38.0366 -0.0927
57.1200 38.0499 -0.0889
57.1400 38.0632 -0.0854
57.1600 38.0765 -0.0933
57.1800 38.0899 -0.0879
57.2000 38.1032 -0.0959
57.2200 38.1165 -0.0937
57.2400 38.1298 -0.0884
57.2600 38.1431 -0.0948
57.2800 38.1564 -0.0917
57.3000 38.1698 -0.0883
57.3200 38.1831 -0.0995
57.3400 38.1964 -0.0933
57.3600 38.2098 -0.0870
57.3800 38.2231 -0.0992
57.4000 38.2364 -0.0961
57.4200 38.2498 -0.0962
57.4400 38.2632 -0.1017
57.4600 38.2765 -0.0920
57.4800 38.2898 -0.0938
57.5000 38.3032 -0.1049
57.5200 38.3165 -0.0934
57.5400 38.3299 -0.1028
57.5600 38.3432 -0.1025
57.5800 38.3565 -0.0917
57.6000 38.3698 -0.1041
57.6200 38.3831 -0.1143
57.6400 38.3965 -0.0906
57.6600 38.4097 -0.1042
57.6800 38.4230 -0.1136
57.7000 38.4364 -0.0898
57.7200 38.4497 -0.1064
57.7400 38.4631 -0.1164
57.7600 38.4764 -0.0902
57.7800 38.4898 -0.1069
57.8000 38.5032 -0.1170
57.8200 38.5165 -0.0925
57.8400 38.5299 -0.1062
57.8600 38.5432 -0.1205
57.8800 38.5565 -0.0909
57.9000 38.5699 -0.1112
57.9200 38.5832 -0.1176
57.9400 38.5965 -0.0935
57.9600 38.6098 -0.1106
57.9800 38.6231 -0.1143
58.0000 38.6364 -0.1004
58.0200 38.6498 -0.1137
58.0400 38.6631 -0.1152
58.0600 38.6764 -0.0981
58.0800 38.6898 -0.1207
58.1000 38.7031 -0.1147
58.1200 38.7165 -0.1014
58.1400 38.7298 -0.1187
58.1600 38.7432 -0.1168
58.1800 38.7566 -0.1002
58.2000 38.7699 -0.1239
58.2200 38.7832 -0.1171
58.2400 38.7965 -0.1054
58.2600 38.8098 -0.1183
58.2800 38.8232 -0.1156
58.3000 38.8365 -0.1085
58.3200 38.8498 -0.1215
58.3400 38.8632 -0.1197
58.3600 38.8765 -0.1123
58.3800 38.8898 -0.1213
58.4000 38.9031 -0.1159
58.4200 38.9164 -0.1127
58.4400 38.9298 -0.1280
58.4600 38.9432 -0.1259
58.4800 38.9565 -0.1129
58.5000 38.9698 -0.1230
58.5200 38.9832 -0.1244
58.5400 38.9965 -0.1161
58.5600 39.0098 -0.1280
58.5800 39.0232 -0.1247
58.6000 39.0365 -0.1163
58.6200 39.0499 -0.1346
58.6400 39.0632 -0.1192
58.6600 39.0765 -0.1265
58.6800 39.0898 -0.1282
58.7000 39.1031 -0.1203
58.7200 39.1165 -0.1267
58.7400 39.1298 -0.1336
58.7600 39.1431 -0.1214
58.7800 39.1564 -0.1313
58.8000 39.1698 -0.1313
58.8200 39.1831 -0.1263
58.8400 39.1964 -0.1329
58.8600 39.2098 -0.1295
58.8800 39.2232 -0.1259
58.9000 39.2365 -0.1394
58.9200 39.2499 -0.1323
58.9400 39.2632 -0.1231
58.9600 39.2765 -0.1433
58.9800 39.2899 -0.1323
59.0000 39.3032 -0.1302
59.0200 39.3164 -0.1452
59.0400 39.3298 -0.1303
59.0600 39.3431 -0.1348
59.0800 39.3565 -0.1478
59.1000 39.3698 -0.1305
59.1200 39.3831 -0.1382
59.1400 39.3964 -0.1455
59.1600 39.4098 -0.1297
59.1800 39.4231 -0.1448
59.2000 39.4364 -0.1491
59.2200 39.4498 -0.1309
59.2400 39.4631 -0.1475
59.2600 39.4765 -0.1428
59.2800 39.4898 -0.1392
59.3000 39.5031 -0.1474
59.3200 39.5165 -0.1413
59.3400 39.5299 -0.1455
59.3600 39.5432 -0.1498
59.3800 39.5565 -0.1420
59.4000 39.5698 -0.1438
59.4200 39.5831 -0.1482
59.4400 39.5965 -0.1448
59.4600 39.6098 -0.1483
59.4800 39.6231 -0.1439
59.5000 39.6364 -0.1462
59.5200 39.6498 -0.1538
59.5400 39.6631 -0.1465
59.5600 39.6764 -0.1512
59.5800 39.6898 -0.1522
59.6000 39.7032 -0.1501
59.6200 39.7166 -0.1550
59.6400 39.7299 -0.1541
59.6600 39.7432 -0.1494
59.6800 39.7565 -0.1538
59.7000 39.7699 -0.1526
59.7200 39.7832 -0.1492
59.7400 39.7965 -0.1605
59.7600 39.8098 -0.1483
59.7800 39.8231 -0.1542
59.8000 39.8365 -0.1605
59.8200 39.8498 -0.1507
59.8400 39.8631 -0.1577
59.8600 39.8764 -0.1644
59.8800 39.8898 -0.1499
59.9000 39.9031 -0.1596
59.9200 39.9164 -0.1627
59.9400 39.9298 -0.1555
59.9600 39.9432 -0.1615
59.9800 39.9565 -0.1638
60.0000 39.9699 -0.1551
60.0200 39.9832 -0.1654
60.0400 39.9965 -0.1726
60.0460 40.0004 -0.1833
