Raw Data
Time Displacement Force
(s) (mm) (N)
0.0000 0.0000 0.1992
0.0200 0.0001 0.2363
0.0400 0.0022 0.2916
0.0600 0.0101 0.2759
0.0800 0.0220 0.2072
0.1000 0.0345 0.2057
0.1200 0.0472 0.2318
0.1400 0.0607 0.2117
0.1600 0.0747 0.2123
0.1800 0.0889 0.2127
0.2000 0.1028 0.1989
0.2200 0.1163 0.2079
0.2400 0.1297 0.2120
0.2600 0.1430 0.2032
0.2800 0.1563 0.2182
0.3000 0.1697 0.2120
0.3200 0.1831 0.2022
0.3400 0.1964 0.2182
0.3600 0.2097 0.2049
0.3800 0.2231 0.2003
0.4000 0.2364 0.2178
0.4200 0.2497 0.2004
0.4400 0.2630 0.2051
0.4600 0.2764 0.2121
0.4800 0.2897 0.1978
0.5000 0.3031 0.1978
0.5200 0.3164 0.2068
0.5400 0.3297 0.1939
0.5600 0.3430 0.1977
0.5800 0.3564 0.2004
0.6000 0.3698 0.1808
0.6200 0.3831 0.1920
0.6400 0.3965 0.1942
0.6600 0.4098 0.1749
0.6800 0.4232 0.1886
0.7000 0.4365 0.1816
0.7200 0.4498 0.1679
0.7400 0.4631 0.1822
0.7600 0.4765 0.1755
0.7800 0.4898 0.1606
0.8000 0.5031 0.1744
0.8200 0.5164 0.1772
0.8400 0.5298 0.1518
0.8600 0.5431 0.1709
0.8800 0.5564 0.1635
0.9000 0.5697 0.1537
0.9200 0.5830 0.1643
0.9400 0.5964 0.1576
0.9600 0.6097 0.1451
0.9800 0.6230 0.1548
1.0000 0.6364 0.1508
1.0200 0.6498 0.1461
1.0400 0.6631 0.1480
1.0600 0.6765 0.1407
1.0800 0.6898 0.1340
1.1000 0.7031 0.1459
1.1200 0.7165 0.1315
1.1400 0.7298 0.1319
1.1600 0.7431 0.1372
1.1800 0.7564 0.1286
1.2000 0.7698 0.1304
1.2200 0.7831 0.1273
1.2400 0.7964 0.1229
1.2600 0.8097 0.1233
1.2800 0.8230 0.1232
1.3000 0.8364 0.1186
1.3200 0.8497 0.1171
1.3400 0.8631 0.1195
1.3600 0.8764 0.1182
1.3800 0.8898 0.1147
1.4000 0.9031 0.1132
1.4200 0.9164 0.1110
1.4400 0.9298 0.1118
1.4600 0.9431 0.1089
1.4800 0.9565 0.1130
1.5000 0.9698 0.1025
1.5200 0.9831 0.1082
1.5400 0.9964 0.1075
1.5600 1.0097 0.0990
1.5800 1.0231 0.1026
1.6000 1.0364 0.1039
1.6200 1.0497 0.0924
1.6400 1.0630 0.1001
1.6600 1.0764 0.0950
1.6800 1.0897 0.0904
1.7000 1.1031 0.0938
1.7200 1.1164 0.0913
1.7400 1.1298 0.0828
1.7600 1.1432 0.0921
1.7800 1.1565 0.0838
1.8000 1.1698 0.0795
1.8200 1.1831 0.0922
1.8400 1.1965 0.0771
1.8600 1.2098 0.0716
1.8800 1.2231 0.0895
1.9000 1.2364 0.0775
1.9200 1.2498 0.0704
1.9400 1.2631 0.0829
1.9600 1.2764 0.0729
1.9800 1.2897 0.0686
2.0000 1.3030 0.0793
2.0200 1.3164 0.0700
2.0400 1.3297 0.0652
2.0600 1.3431 0.0751
2.0800 1.3564 0.0585
2.1000 1.3698 0.0637
2.1200 1.3832 0.0634
2.1400 1.3965 0.0594
2.1600 1.4098 0.0593
2.1800 1.4231 0.0585
2.2000 1.4365 0.0536
2.2200 1.4498 0.0542
2.2400 1.4631 0.0512
2.2600 1.4764 0.0491
2.2800 1.4897 0.0534
2.3000 1.5031 0.0470
2.3200 1.5164 0.0458
2.3400 1.5297 0.0474
2.3600 1.5430 0.0429
2.3800 1.5564 0.0415
2.4000 1.5698 0.0427
2.4200 1.5831 0.0360
2.4400 1.5964 0.0397
2.4600 1.6098 0.0368
2.4800 1.6231 0.0313
2.5000 1.6365 0.0298
2.5200 1.6498 0.0337
2.5400 1.6631 0.0289
2.5600 1.6764 0.0249
2.5800 1.6898 0.0249
2.6000 1.7031 0.0251
2.6200 1.7165 0.0240
2.6400 1.7298 0.0235
2.6600 1.7431 0.0232
2.6800 1.7564 0.0167
2.7000 1.7697 0.0213
2.7200 1.7831 0.0206
2.7400 1.7964 0.0108
2.7600 1.8097 0.0213
2.7800 1.8231 0.0127
2.8000 1.8364 0.0048
2.8200 1.8497 0.0198
2.8400 1.8631 0.0101
2.8600 1.8765 0.0002
2.8800 1.8898 0.0140
2.9000 1.9031 0.0057
2.9200 1.9165 -0.0050
2.9400 1.9298 0.0125
2.9600 1.9431 0.0018
2.9800 1.9564 -0.0041
3.0000 1.9698 0.0063
3.0200 1.9831 -0.0013
3.0400 1.9964 -0.0110
3.0600 2.0097 0.0056
3.0800 2.0230 -0.0018
3.1000 2.0364 -0.0119
3.1200 2.0497 -0.0040
3.1400 2.0631 -0.0078
3.1600 2.0764 -0.0171
3.1800 2.0898 -0.0034
3.2000 2.1031 -0.0138
3.2200 2.1165 -0.0198
3.2400 2.1298 -0.0121
3.2600 2.1431 -0.0203
3.2800 2.1565 -0.0265
3.3000 2.1698 -0.0134
3.3200 2.1831 -0.0228
3.3400 2.1964 -0.0289
3.3600 2.2098 -0.0162
3.3800 2.2231 -0.0274
3.4000 2.2364 -0.0329
3.4200 2.2497 -0.0205
3.4400 2.2630 -0.0274
3.4600 2.2764 -0.0347
3.4800 2.2898 -0.0228
3.5000 2.3031 -0.0240
3.5200 2.3164 -0.0412
3.5400 2.3298 -0.0317
3.5600 2.3431 -0.0301
3.5800 2.3565 -0.0481
3.6000 2.3698 -0.0303
3.6200 2.3831 -0.0334
3.6400 2.3965 -0.0466
3.6600 2.4098 -0.0415
3.6800 2.4232 -0.0326
3.7000 2.4365 -0.0496
3.7200 2.4498 -0.0437
3.7400 2.4631 -0.0431
3.7600 2.4764 -0.0517
3.7800 2.4897 -0.0464
3.8000 2.5030 -0.0510
3.8200 2.5163 -0.0569
3.8400 2.5297 -0.0480
3.8600 2.5430 -0.0504
3.8800 2.5564 -0.0634
3.9000 2.5697 -0.0509
3.9200 2.5831 -0.0521
3.9400 2.5965 -0.0672
3.9600 2.6098 -0.0544
3.9800 2.6231 -0.0518
4.0000 2.6365 -0.0716
4.0200 2.6498 -0.0551
4.0400 2.6631 -0.0572
4.0600 2.6764 -0.0692
4.0800 2.6897 -0.0618
4.1000 2.7031 -0.0582
4.1200 2.7164 -0.0746
4.1400 2.7297 -0.0634
4.1600 2.7431 -0.0646
4.1800 2.7564 -0.0775
4.2000 2.7697 -0.0681
4.2200 2.7830 -0.0677
4.2400 2.7964 -0.0804
4.2600 2.8097 -0.0687
4.2800 2.8231 -0.0769
4.3000 2.8365 -0.0852
4.3200 2.8498 -0.0769
4.3400 2.8631 -0.0752
4.3600 2.8765 -0.0923
4.3800 2.8898 -0.0784
4.4000 2.9031 -0.0790
4.4200 2.9164 -0.0969
4.4400 2.9297 -0.0762
4.4600 2.9431 -0.0851
4.4800 2.9564 -0.0965
4.5000 2.9697 -0.0832
4.5200 2.9830 -0.0886
4.5400 2.9964 -0.0988
4.5600 3.0098 -0.0833
4.5800 3.0231 -0.0956
4.6000 3.0364 -0.1019
4.6200 3.0497 -0.0888
4.6400 3.0631 -0.0989
4.6600 3.0764 -0.1089
4.6800 3.0897 -0.0901
4.7000 3.1031 -0.1031
4.7200 3.1164 -0.1093
4.7400 3.1298 -0.1041
4.7600 3.1431 -0.1077
4.7800 3.1565 -0.1105
4.8000 3.1698 -0.1015
4.8200 3.1832 -0.1137
4.8400 3.1965 -0.1111
4.8600 3.2098 -0.1065
4.8800 3.2231 -0.1114
4.9000 3.2364 -0.1150
4.9200 3.2497 -0.1114
4.9400 3.2631 -0.1194
4.9600 3.2764 -0.1181
4.9800 3.2897 -0.1166
5.0000 3.3031 -0.1214
5.0200 3.3165 -0.1192
5.0400 3.3298 -0.1213
5.0600 3.3432 -0.1225
5.0800 3.3565 -0.1214
5.1000 3.3698 -0.1213
5.1200 3.3831 -0.1240
5.1400 3.3964 -0.1240
5.1600 3.4097 -0.1234
5.1800 3.4231 -0.1242
5.2000 3.4364 -0.1294
5.2200 3.4497 -0.1272
5.2400 3.4630 -0.1270
5.2600 3.4764 -0.1299
5.2800 3.4897 -0.1314
5.3000 3.5031 -0.1330
5.3200 3.5164 -0.1369
5.3400 3.5297 -0.1312
5.3600 3.5431 -0.1366
5.3800 3.5565 -0.1424
5.4000 3.5698 -0.1382
5.4200 3.5831 -0.1362
5.4400 3.5965 -0.1454
5.4600 3.6098 -0.1355
5.4800 3.6232 -0.1427
5.5000 3.6364 -0.1472
5.5200 3.6497 -0.1378
5.5400 3.6631 -0.1513
5.5600 3.6764 -0.1491
5.5800 3.6897 -0.1407
5.6000 3.7030 -0.1502
5.6200 3.7164 -0.1552
5.6400 3.7297 -0.1448
5.6600 3.7431 -0.1539
5.6800 3.7564 -0.1572
5.7000 3.7698 -0.1494
5.7200 3.7831 -0.1586
5.7400 3.7965 -0.1620
5.7600 3.8098 -0.1501
5.7800 3.8231 -0.1620
5.8000 3.8365 -0.1567
5.8200 3.8498 -0.1580
5.8400 3.8632 -0.1638
5.8600 3.8765 -0.1611
5.8800 3.8898 -0.1557
5.9000 3.9031 -0.1661
5.9200 3.9165 -0.1652
5.9400 3.9298 -0.1670
5.9600 3.9431 -0.1624
5.9800 3.9564 -0.1635
6.0000 3.9697 -0.1730
6.0200 3.9831 -0.1686
6.0400 3.9964 -0.1674
6.0600 4.0098 -0.1778
6.0800 4.0231 -0.1675
6.1000 4.0365 -0.1687
6.1200 4.0498 -0.1810
6.1400 4.0631 -0.1690
6.1600 4.0765 -0.1728
6.1800 4.0898 -0.1798
6.2000 4.1031 -0.1752
6.2200 4.1164 -0.1771
6.2400 4.1297 -0.1841
6.2600 4.1431 -0.1782
6.2800 4.1564 -0.1853
6.3000 4.1698 -0.1853
6.3200 4.1831 -0.1794
6.3400 4.1964 -0.1867
6.3600 4.2097 -0.1904
6.3800 4.2231 -0.1839
6.4000 4.2364 -0.1925
6.4200 4.2497 -0.1839
6.4400 4.2631 -0.1900
6.4600 4.2765 -0.1972
6.4800 4.2898 -0.1898
6.5000 4.3031 -0.1887
6.5200 4.3165 -0.1995
6.5400 4.3298 -0.1920
6.5600 4.3432 -0.1942
6.5800 4.3565 -0.1993
6.6000 4.3697 -0.1940
6.6200 4.3831 -0.1955
6.6400 4.3964 -0.1997
6.6600 4.4098 -0.1919
6.6800 4.4231 -0.2034
6.7000 4.4364 -0.1990
6.7200 4.4497 -0.1958
6.7400 4.4631 -0.2112
6.7600 4.4764 -0.1974
6.7800 4.4897 -0.1955
6.8000 4.5031 -0.2098
6.8200 4.5165 -0.2004
6.8400 4.5298 -0.1981
6.8600 4.5431 -0.2132
6.8800 4.5564 -0.1970
6.9000 4.5698 -0.2071
6.9200 4.5831 -0.2151
6.9400 4.5964 -0.1940
6.9600 4.6098 -0.2089
6.9800 4.6231 -0.2143
7.0000 4.6364 -0.1916
7.0200 4.6497 -0.2126
7.0400 4.6630 -0.2116
7.0600 4.6763 -0.1935
7.0800 4.6897 -0.2118
7.1000 4.7030 -0.2153
7.1200 4.7164 -0.1990
7.1400 4.7297 -0.2129
7.1600 4.7431 -0.2188
7.1800 4.7565 -0.2025
7.2000 4.7699 -0.2166
7.2200 4.7832 -0.2173
7.2400 4.7965 -0.2037
7.2600 4.8099 -0.2197
7.2800 4.8232 -0.2206
7.3000 4.8365 -0.2070
7.3200 4.8497 -0.2195
7.3400 4.8631 -0.2183
7.3600 4.8764 -0.2163
7.3800 4.8897 -0.2191
7.4000 4.9031 -0.2281
7.4200 4.9164 -0.2133
7.4400 4.9298 -0.2182
7.4600 4.9431 -0.2235
7.4800 4.9564 -0.2134
7.5000 4.9698 -0.2252
7.5200 4.9831 -0.2295
7.5400 4.9965 -0.2149
7.5600 5.0098 -0.2337
7.5800 5.0231 -0.2333
7.6000 5.0365 -0.2162
7.6200 5.0498 -0.2317
7.6400 5.0631 -0.2362
7.6600 5.0764 -0.2239
7.6800 5.0897 -0.2293
7.7000 5.1031 -0.2381
7.7200 5.1164 -0.2263
7.7400 5.1297 -0.2376
7.7600 5.1431 -0.2418
7.7800 5.1564 -0.2309
7.8000 5.1697 -0.2386
7.8200 5.1831 -0.2411
7.8400 5.1964 -0.2315
7.8600 5.2097 -0.2452
7.8800 5.2231 -0.2417
7.9000 5.2365 -0.2376
7.9200 5.2498 -0.2460
7.9400 5.2631 -0.2467
7.9600 5.2765 -0.2407
7.9800 5.2898 -0.2525
8.0000 5.3032 -0.2479
8.0200 5.3165 -0.2464
8.0400 5.3298 -0.2480
8.0600 5.3431 -0.2525
8.0800 5.3564 -0.2445
8.1000 5.3698 -0.2534
8.1200 5.3830 -0.2560
8.1400 5.3964 -0.2461
8.1600 5.4097 -0.2504
8.1800 5.4231 -0.2596
8.2000 5.4364 -0.2507
8.2200 5.4497 -0.2529
8.2400 5.4631 -0.2635
8.2600 5.4765 -0.2478
8.2800 5.4898 -0.2541
8.3000 5.5032 -0.2652
8.3200 5.5165 -0.2458
8.3400 5.5298 -0.2584
8.3600 5.5431 -0.2692
8.3800 5.5564 -0.2441
8.4000 5.5697 -0.2627
8.4200 5.5831 -0.2697
8.4400 5.5964 -0.2498
8.4600 5.6098 -0.2667
8.4800 5.6231 -0.2728
8.5000 5.6364 -0.2493
8.5200 5.6497 -0.2688
8.5400 5.6631 -0.2700
8.5600 5.6764 -0.2609
8.5800 5.6897 -0.2714
8.6000 5.7031 -0.2697
8.6200 5.7165 -0.2638
8.6400 5.7298 -0.2778
8.6600 5.7431 -0.2733
8.6800 5.7564 -0.2704
8.7000 5.7698 -0.2753
8.7200 5.7832 -0.2792
8.7400 5.7965 -0.2750
8.7600 5.8098 -0.2759
8.7800 5.8231 -0.2821
8.8000 5.8364 -0.2799
8.8200 5.8498 -0.2767
8.8400 5.8631 -0.2796
8.8600 5.8764 -0.2833
8.8800 5.8897 -0.2793
8.9000 5.9031 -0.2920
8.9200 5.9164 -0.2800
8.9400 5.9298 -0.2807
8.9600 5.9431 -0.2918
8.9800 5.9565 -0.2889
9.0000 5.9698 -0.2829
9.0200 5.9831 -0.2991
9.0400 5.9964 -0.2845
9.0600 6.0098 -0.2845
9.0800 6.0231 -0.3023
9.1000 6.0365 -0.2912
9.1200 6.0498 -0.2855
9.1400 6.0630 -0.3084
9.1600 6.0764 -0.2907
9.1800 6.0897 -0.2901
9.2000 6.1030 -0.3082
9.2200 6.1164 -0.2939
9.2400 6.1297 -0.2925
9.2600 6.1431 -0.3117
9.2800 6.1564 -0.2979
9.3000 6.1697 -0.2976
9.3200 6.1831 -0.3120
9.3400 6.1965 -0.2995
9.3600 6.2098 -0.3068
9.3800 6.2232 -0.3143
9.4000 6.2365 -0.2992
9.4200 6.2498 -0.3030
9.4400 6.2631 -0.3162
9.4600 6.2764 -0.3058
9.4800 6.2897 -0.3117
9.5000 6.3030 -0.3088
9.5200 6.3164 -0.3111
9.5400 6.3297 -0.3125
9.5600 6.3430 -0.3097
9.5800 6.3564 -0.3152
9.6000 6.3697 -0.3128
9.6200 6.3831 -0.3105
9.6400 6.3964 -0.3196
9.6600 6.4098 -0.3112
9.6800 6.4231 -0.3177
9.7000 6.4365 -0.3192
9.7200 6.4498 -0.3146
9.7400 6.4631 -0.3190
9.7600 6.4765 -0.3222
9.7800 6.4898 -0.3144
9.8000 6.5031 -0.3177
9.8200 6.5165 -0.3266
9.8400 6.5298 -0.3124
9.8600 6.5431 -0.3182
9.8800 6.5564 -0.3253
9.9000 6.5698 -0.3116
9.9200 6.5831 -0.3242
9.9400 6.5964 -0.3257
9.9600 6.6097 -0.3121
9.9800 6.6231 -0.3278
10.0000 6.6364 -0.3269
10.0200 6.6497 -0.3136
10.0400 6.6631 -0.3230
10.0600 6.6764 -0.3276
10.0800 6.6898 -0.3130
10.1000 6.7031 -0.3257
10.1200 6.7164 -0.3239
10.1400 6.7298 -0.3190
10.1600 6.7432 -0.3216
10.1800 6.7565 -0.3278
10.2000 6.7698 -0.3194
10.2200 6.7831 -0.3206
10.2400 6.7964 -0.3258
10.2600 6.8098 -0.3226
10.2800 6.8231 -0.3245
10.3000 6.8364 -0.3249
10.3200 6.8497 -0.3223
10.3400 6.8631 -0.3237
10.3600 6.8764 -0.3246
10.3800 6.8897 -0.3293
10.4000 6.9031 -0.3204
10.4200 6.9164 -0.3292
10.4400 6.9298 -0.3301
10.4600 6.9431 -0.3204
10.4800 6.9565 -0.3312
10.5000 6.9698 -0.3258
10.5200 6.9831 -0.3280
10.5400 6.9965 -0.3297
10.5600 7.0098 -0.3322
10.5800 7.0231 -0.3241
10.6000 7.0364 -0.3314
10.6200 7.0498 -0.3318
10.6400 7.0631 -0.3244
10.6600 7.0764 -0.3377
10.6800 7.0897 -0.3354
10.7000 7.1031 -0.3272
10.7200 7.1164 -0.3447
10.7400 7.1298 -0.3299
10.7600 7.1431 -0.3307
10.7800 7.1564 -0.3473
10.8000 7.1698 -0.3300
10.8200 7.1831 -0.3301
10.8400 7.1965 -0.3496
10.8600 7.2098 -0.3343
10.8800 7.2232 -0.3382
10.9000 7.2365 -0.3559
10.9200 7.2498 -0.3312
10.9400 7.2631 -0.3398
10.9600 7.2764 -0.3558
10.9800 7.2898 -0.3368
11.0000 7.3031 -0.3463
11.0200 7.3164 -0.3521
11.0400 7.3297 -0.3434
11.0600 7.3430 -0.3511
11.0800 7.3564 -0.3515
11.1000 7.3697 -0.3508
11.1200 7.3831 -0.3525
11.1400 7.3965 -0.3562
11.1600 7.4098 -0.3490
11.1800 7.4232 -0.3545
11.2000 7.4365 -0.3565
11.2200 7.4498 -0.3586
11.2400 7.4632 -0.3551
11.2600 7.4765 -0.3607
11.2800 7.4898 -0.3628
11.3000 7.5031 -0.3588
11.3200 7.5164 -0.3652
11.3400 7.5298 -0.3653
11.3600 7.5431 -0.3573
11.3800 7.5564 -0.3716
11.4000 7.5697 -0.3688
11.4200 7.5831 -0.3608
11.4400 7.5964 -0.3797
11.4600 7.6097 -0.3694
11.4800 7.6231 -0.3641
11.5000 7.6364 -0.3787
11.5200 7.6498 -0.3747
11.5400 7.6631 -0.3674
11.5600 7.6765 -0.3769
11.5800 7.6898 -0.3744
11.6000 7.7032 -0.3681
11.6200 7.7165 -0.3817
11.6400 7.7298 -0.3816
11.6600 7.7431 -0.3662
11.6800 7.7564 -0.3861
11.7000 7.7697 -0.3753
11.7200 7.7831 -0.3716
11.7400 7.7964 -0.3871
11.7600 7.8097 -0.3839
11.7800 7.8231 -0.3687
11.8000 7.8364 -0.3874
11.8200 7.8497 -0.3811
11.8400 7.8631 -0.3766
11.8600 7.8764 -0.3890
11.8800 7.8898 -0.3792
11.9000 7.9031 -0.3741
11.9200 7.9164 -0.3919
11.9400 7.9297 -0.3747
11.9600 7.9431 -0.3795
11.9800 7.9565 -0.3917
12.0000 7.9698 -0.3770
12.0200 7.9831 -0.3797
12.0400 7.9965 -0.3878
12.0600 8.0098 -0.3801
12.0800 8.0231 -0.3790
12.1000 8.0364 -0.3882
12.1200 8.0497 -0.3805
12.1400 8.0630 -0.3863
12.1600 8.0764 -0.3847
12.1800 8.0897 -0.3890
12.2000 8.1030 -0.3804
12.2200 8.1164 -0.3867
12.2400 8.1298 -0.3906
12.2600 8.1432 -0.3808
12.2800 8.1565 -0.3857
12.3000 8.1698 -0.3890
12.3200 8.1832 -0.3752
12.3400 8.1965 -0.3918
12.3600 8.2098 -0.3945
12.3800 8.2231 -0.3787
12.4000 8.2364 -0.3886
12.4200 8.2497 -0.3943
12.4400 8.2631 -0.3777
12.4600 8.2764 -0.3917
12.4800 8.2897 -0.3974
12.5000 8.3030 -0.3772
12.5200 8.3164 -0.3938
12.5400 8.3297 -0.3977
12.5600 8.3431 -0.3753
12.5800 8.3564 -0.3943
12.6000 8.3698 -0.4002
12.6200 8.3832 -0.3754
12.6400 8.3965 -0.3955
12.6600 8.4098 -0.4031
12.6800 8.4232 -0.3801
12.7000 8.4365 -0.3995
12.7200 8.4498 -0.4001
12.7400 8.4631 -0.3778
12.7600 8.4764 -0.4051
12.7800 8.4897 -0.3996
12.8000 8.5031 -0.3862
12.8200 8.5164 -0.4059
12.8400 8.5297 -0.4006
12.8600 8.5430 -0.3868
12.8800 8.5564 -0.4093
12.9000 8.5698 -0.4003
12.9200 8.5831 -0.3925
12.9400 8.5964 -0.4060
12.9600 8.6098 -0.4030
12.9800 8.6232 -0.3957
13.0000 8.6365 -0.4147
13.0200 8.6498 -0.4047
13.0400 8.6631 -0.3963
13.0600 8.6765 -0.4131
13.0800 8.6898 -0.4070
13.1000 8.7031 -0.4023
13.1200 8.7165 -0.4159
13.1400 8.7298 -0.4086
13.1600 8.7431 -0.4018
13.1800 8.7564 -0.4174
13.2000 8.7697 -0.4113
13.2200 8.7830 -0.4082
13.2400 8.7964 -0.4201
13.2600 8.8098 -0.4169
13.2800 8.8231 -0.4043
13.3000 8.8364 -0.4207
13.3200 8.8498 -0.4247
13.3400 8.8632 -0.4102
13.3600 8.8765 -0.4155
13.3800 8.8898 -0.4259
13.4000 8.9031 -0.4131
13.4200 8.9165 -0.4246
13.4400 8.9298 -0.4223
13.4600 8.9431 -0.4194
13.4800 8.9564 -0.4183
13.5000 8.9697 -0.4273
13.5200 8.9831 -0.4168
13.5400 8.9964 -0.4284
13.5600 9.0097 -0.4313
13.5800 9.0231 -0.4126
13.6000 9.0364 -0.4242
13.6200 9.0497 -0.4357
13.6400 9.0630 -0.4166
13.6600 9.0764 -0.4257
13.6800 9.0898 -0.4393
13.7000 9.1032 -0.4179
13.7200 9.1165 -0.4297
13.7400 9.1298 -0.4375
13.7600 9.1431 -0.4197
13.7800 9.1565 -0.4308
13.8000 9.1698 -0.4383
13.8200 9.1831 -0.4138
13.8400 9.1964 -0.4388
13.8600 9.2097 -0.4409
13.8800 9.2231 -0.4185
13.9000 9.2364 -0.4386
13.9200 9.2497 -0.4411
13.9400 9.2630 -0.4203
13.9600 9.2764 -0.4397
13.9800 9.2897 -0.4433
14.0000 9.3031 -0.4282
14.0200 9.3164 -0.4381
14.0400 9.3298 -0.4422
14.0600 9.3431 -0.4323
14.0800 9.3565 -0.4449
14.1000 9.3698 -0.4432
14.1200 9.3831 -0.4312
14.1400 9.3965 -0.4413
14.1600 9.4098 -0.4472
14.1800 9.4231 -0.4317
14.2000 9.4364 -0.4386
14.2200 9.4498 -0.4505
14.2400 9.4631 -0.4349
14.2600 9.4764 -0.4417
14.2800 9.4897 -0.4499
14.3000 9.5030 -0.4401
14.3200 9.5164 -0.4454
14.3400 9.5297 -0.4505
14.3600 9.5430 -0.4385
14.3800 9.5564 -0.4513
14.4000 9.5698 -0.4521
14.4200 9.5832 -0.4463
14.4400 9.5965 -0.4525
14.4600 9.6098 -0.4499
14.4800 9.6232 -0.4451
14.5000 9.6365 -0.4543
14.5200 9.6498 -0.4500
14.5400 9.6631 -0.4514
14.5600 9.6764 -0.4557
14.5800 9.6897 -0.4529
14.6000 9.7031 -0.4514
14.6200 9.7164 -0.4604
14.6400 9.7297 -0.4547
14.6600 9.7431 -0.4533
14.6800 9.7564 -0.4603
14.7000 9.7698 -0.4565
14.7200 9.7831 -0.4584
14.7400 9.7964 -0.4619
14.7600 9.8098 -0.4590
14.7800 9.8232 -0.4610
14.8000 9.8365 -0.4608
14.8200 9.8498 -0.4611
14.8400 9.8631 -0.4661
14.8600 9.8765 -0.4576
14.8800 9.8898 -0.4629
14.9000 9.9031 -0.4655
14.9200 9.9164 -0.4588
14.9400 9.9297 -0.4649
14.9600 9.9431 -0.4705
14.9800 9.9564 -0.4622
15.0000 9.9697 -0.4637
15.0200 9.9830 -0.4675
15.0400 9.9964 -0.4669
15.0600 10.0098 -0.4649
15.0800 10.0231 -0.4730
15.1000 10.0364 -0.4609
15.1200 10.0498 -0.4693
15.1400 10.0631 -0.4737
15.1600 10.0765 -0.4634
15.1800 10.0898 -0.4707
15.2000 10.1031 -0.4761
15.2200 10.1165 -0.4626
15.2400 10.1298 -0.4720
15.2600 10.1431 -0.4831
15.2800 10.1564 -0.4663
15.3000 10.1698 -0.4723
15.3200 10.1831 -0.4787
15.3400 10.1964 -0.4688
15.3600 10.2097 -0.4715
15.3800 10.2230 -0.4816
15.4000 10.2364 -0.4683
15.4200 10.2497 -0.4772
15.4400 10.2631 -0.4769
15.4600 10.2764 -0.4685
15.4800 10.2898 -0.4789
15.5000 10.3032 -0.4790
15.5200 10.3165 -0.4688
15.5400 10.3298 -0.4821
15.5600 10.3432 -0.4760
15.5800 10.3565 -0.4749
15.6000 10.3698 -0.4804
15.6200 10.3831 -0.4760
15.6400 10.3964 -0.4825
15.6600 10.4097 -0.4720
15.6800 10.4231 -0.4708
15.7000 10.4364 -0.4845
15.7200 10.4497 -0.4779
15.7400 10.4630 -0.4727
15.7600 10.4764 -0.4781
15.7800 10.4898 -0.4805
15.8000 10.5031 -0.4785
15.8200 10.5164 -0.4770
15.8400 10.5297 -0.4742
15.8600 10.5431 -0.4816
15.8800 10.5564 -0.4917
15.9000 10.5698 -0.4676
15.9200 10.5831 -0.4758
15.9400 10.5965 -0.4931
15.9600 10.6098 -0.4791
15.9800 10.6231 -0.4721
16.0000 10.6364 -0.4851
16.0200 10.6498 -0.4805
16.0400 10.6631 -0.4797
16.0600 10.6764 -0.4805
16.0800 10.6897 -0.4788
16.1000 10.7030 -0.4826
16.1200 10.7164 -0.4885
16.1400 10.7297 -0.4717
16.1600 10.7431 -0.4842
16.1800 10.7564 -0.4950
16.2000 10.7698 -0.4800
16.2200 10.7832 -0.4842
16.2400 10.7965 -0.4944
16.2600 10.8098 -0.4849
16.2800 10.8231 -0.4888
16.3000 10.8365 -0.4875
16.3200 10.8498 -0.4831
16.3400 10.8631 -0.4941
16.3600 10.8764 -0.4935
16.3800 10.8898 -0.4783
16.4000 10.9031 -0.4960
16.4200 10.9164 -0.4980
16.4400 10.9297 -0.4789
16.4600 10.9430 -0.5004
16.4800 10.9564 -0.4961
16.5000 10.9697 -0.4844
16.5200 10.9831 -0.5007
16.5400 10.9964 -0.4983
16.5600 11.0098 -0.4850
16.5800 11.0231 -0.5080
16.6000 11.0365 -0.4923
16.6200 11.0498 -0.4883
16.6400 11.0631 -0.5098
16.6600 11.0765 -0.5012
16.6800 11.0898 -0.4916
16.7000 11.1031 -0.5113
16.7200 11.1164 -0.4968
16.7400 11.1297 -0.4979
16.7600 11.1431 -0.5088
16.7800 11.1564 -0.4990
16.8000 11.1697 -0.4999
16.8200 11.1830 -0.5067
16.8400 11.1964 -0.5037
16.8600 11.2098 -0.5006
16.8800 11.2231 -0.5093
16.9000 11.2364 -0.5064
16.9200 11.2498 -0.5032
16.9400 11.2631 -0.5043
16.9600 11.2765 -0.5095
16.9800 11.2898 -0.5080
17.0000 11.3031 -0.5089
17.0200 11.3164 -0.5085
17.0400 11.3298 -0.5071
17.0600 11.3431 -0.5046
17.0800 11.3565 -0.5184
17.1000 11.3698 -0.5029
17.1200 11.3831 -0.5092
17.1400 11.3965 -0.5200
17.1600 11.4097 -0.5015
17.1800 11.4230 -0.5066
17.2000 11.4364 -0.5225
17.2200 11.4497 -0.5042
17.2400 11.4631 -0.5138
17.2600 11.4764 -0.5196
17.2800 11.4897 -0.5015
17.3000 11.5031 -0.5176
17.3200 11.5164 -0.5222
17.3400 11.5298 -0.5054
17.3600 11.5431 -0.5192
17.3800 11.5565 -0.5205
17.4000 11.5698 -0.5079
17.4200 11.5831 -0.5233
17.4400 11.5964 -0.5181
17.4600 11.6098 -0.5085
17.4800 11.6231 -0.5252
17.5000 11.6365 -0.5243
17.5200 11.6497 -0.5080
17.5400 11.6630 -0.5270
17.5600 11.6764 -0.5205
17.5800 11.6897 -0.5172
17.6000 11.7030 -0.5245
17.6200 11.7164 -0.5238
17.6400 11.7298 -0.5158
17.6600 11.7431 -0.5259
17.6800 11.7565 -0.5244
17.7000 11.7698 -0.5225
17.7200 11.7831 -0.5219
17.7400 11.7965 -0.5270
17.7600 11.8098 -0.5235
17.7800 11.8231 -0.5233
17.8000 11.8364 -0.5312
17.8200 11.8497 -0.5204
17.8400 11.8631 -0.5175
17.8600 11.8764 -0.5341
17.8800 11.8897 -0.5227
17.9000 11.9031 -0.5203
17.9200 11.9164 -0.5327
17.9400 11.9298 -0.5239
17.9600 11.9431 -0.5242
17.9800 11.9564 -0.5360
18.0000 11.9698 -0.5288
18.0200 11.9831 -0.5223
18.0400 11.9964 -0.5365
18.0600 12.0098 -0.5257
18.0800 12.0231 -0.5306
18.1000 12.0365 -0.5353
18.1200 12.0498 -0.5278
18.1400 12.0632 -0.5286
18.1600 12.0765 -0.5381
18.1800 12.0898 -0.5207
18.2000 12.1031 -0.5329
18.2200 12.1164 -0.5386
18.2400 12.1297 -0.5254
18.2600 12.1430 -0.5335
18.2800 12.1564 -0.5378
18.3000 12.1697 -0.5263
18.3200 12.1831 -0.5378
18.3400 12.1964 -0.5378
18.3600 12.2098 -0.5301
18.3800 12.2231 -0.5404
18.4000 12.2365 -0.5388
18.4200 12.2498 -0.5327
18.4400 12.2631 -0.5401
18.4600 12.2765 -0.5356
18.4800 12.2898 -0.5350
18.5000 12.3031 -0.5431
18.5200 12.3164 -0.5351
18.5400 12.3297 -0.5417
18.5600 12.3431 -0.5450
18.5800 12.3565 -0.5393
18.6000 12.3698 -0.5373
18.6200 12.3831 -0.5486
18.6400 12.3964 -0.5405
18.6600 12.4097 -0.5394
18.6800 12.4231 -0.5460
18.7000 12.4364 -0.5480
18.7200 12.4497 -0.5416
18.7400 12.4631 -0.5439
18.7600 12.4765 -0.5502
18.7800 12.4898 -0.5503
18.8000 12.5031 -0.5411
18.8200 12.5165 -0.5493
18.8400 12.5298 -0.5516
18.8600 12.5431 -0.5490
18.8800 12.5564 -0.5487
18.9000 12.5697 -0.5496
18.9200 12.5831 -0.5504
18.9400 12.5964 -0.5514
18.9600 12.6097 -0.5493
18.9800 12.6230 -0.5474
19.0000 12.6364 -0.5585
19.0200 12.6497 -0.5517
19.0400 12.6631 -0.5521
19.0600 12.6764 -0.5609
19.0800 12.6897 -0.5518
19.1000 12.7031 -0.5502
19.1200 12.7164 -0.5640
19.1400 12.7298 -0.5507
19.1600 12.7431 -0.5565
19.1800 12.7564 -0.5623
19.2000 12.7698 -0.5542
19.2200 12.7831 -0.5586
19.2400 12.7965 -0.5654
19.2600 12.8098 -0.5568
19.2800 12.8231 -0.5603
19.3000 12.8365 -0.5630
19.3200 12.8498 -0.5581
19.3400 12.8631 -0.5633
19.3600 12.8764 -0.5639
19.3800 12.8897 -0.5584
19.4000 12.9031 -0.5663
19.4200 12.9164 -0.5653
19.4400 12.9297 -0.5645
19.4600 12.9431 -0.5635
19.4800 12.9565 -0.5726
19.5000 12.9698 -0.5719
19.5200 12.9832 -0.5630
19.5400 12.9965 -0.5676
19.5600 13.0099 -0.5700
19.5800 13.0232 -0.5688
19.6000 13.0365 -0.5656
19.6200 13.0497 -0.5694
19.6400 13.0631 -0.5685
19.6600 13.0764 -0.5720
19.6800 13.0897 -0.5671
19.7000 13.1030 -0.5698
19.7200 13.1163 -0.5734
19.7400 13.1297 -0.5738
19.7600 13.1431 -0.5617
19.7800 13.1564 -0.5710
19.8000 13.1697 -0.5738
19.8200 13.1831 -0.5709
19.8400 13.1965 -0.5716
19.8600 13.2098 -0.5785
19.8800 13.2231 -0.5685
19.9000 13.2365 -0.5690
19.9200 13.2498 -0.5761
19.9400 13.2632 -0.5721
19.9600 13.2765 -0.5753
19.9800 13.2898 -0.5760
20.0000 13.3031 -0.5728
20.0200 13.3164 -0.5732
20.0400 13.3297 -0.5826
20.0600 13.3430 -0.5773
20.0800 13.3564 -0.5721
20.1000 13.3697 -0.5792
20.1200 13.3831 -0.5793
20.1400 13.3964 -0.5735
20.1600 13.4097 -0.5810
20.1800 13.4231 -0.5811
20.2000 13.4365 -0.5751
20.2200 13.4498 -0.5796
20.2400 13.4631 -0.5810
20.2600 13.4764 -0.5755
20.2800 13.4898 -0.5884
20.3000 13.5031 -0.5807
20.3200 13.5165 -0.5750
20.3400 13.5298 -0.5845
20.3600 13.5431 -0.5881
20.3800 13.5564 -0.5753
20.4000 13.5697 -0.5898
20.4200 13.5830 -0.5895
20.4400 13.5964 -0.5768
20.4600 13.6097 -0.5873
20.4800 13.6231 -0.5919
20.5000 13.6364 -0.5813
20.5200 13.6498 -0.5909
20.5400 13.6631 -0.5914
20.5600 13.6765 -0.5800
20.5800 13.6898 -0.5947
20.6000 13.7031 -0.5945
20.6200 13.7165 -0.5809
20.6400 13.7298 -0.5917
20.6600 13.7431 -0.5973
20.6800 13.7564 -0.5805
20.7000 13.7697 -0.5981
20.7200 13.7831 -0.5946
20.7400 13.7964 -0.5831
20.7600 13.8098 -0.5945
20.7800 13.8231 -0.6008
20.8000 13.8364 -0.5785
20.8200 13.8497 -0.6018
20.8400 13.8631 -0.5981
20.8600 13.8764 -0.5822
20.8800 13.8898 -0.5991
20.9000 13.9031 -0.5968
20.9200 13.9165 -0.5869
20.9400 13.9298 -0.6105
20.9600 13.9431 -0.5995
20.9800 13.9565 -0.5819
21.0000 13.9698 -0.6070
21.0200 13.9832 -0.6009
21.0400 13.9965 -0.5858
21.0600 14.0098 -0.6076
21.0800 14.0231 -0.5966
21.1000 14.0364 -0.5829
21.1200 14.0498 -0.6097
21.1400 14.0631 -0.5997
21.1600 14.0764 -0.5881
21.1800 14.0897 -0.6102
21.2000 14.1031 -0.5941
21.2200 14.1164 -0.5870
21.2400 14.1297 -0.6146
21.2600 14.1431 -0.5965
21.2800 14.1565 -0.5848
21.3000 14.1698 -0.6139
21.3200 14.1831 -0.6024
21.3400 14.1965 -0.5846
21.3600 14.2098 -0.6195
21.3800 14.2232 -0.5988
21.4000 14.2365 -0.5874
21.4200 14.2498 -0.6148
21.4400 14.2631 -0.6027
21.4600 14.2764 -0.5896
21.4800 14.2898 -0.6173
21.5000 14.3030 -0.6025
21.5200 14.3163 -0.5918
21.5400 14.3297 -0.6204
21.5600 14.3430 -0.6029
21.5800 14.3563 -0.5906
21.6000 14.3697 -0.6255
21.6200 14.3831 -0.6009
21.6400 14.3965 -0.5938
21.6600 14.4098 -0.6233
21.6800 14.4232 -0.6051
21.7000 14.4365 -0.5936
21.7200 14.4498 -0.6203
21.7400 14.4632 -0.6104
21.7600 14.4765 -0.5944
21.7800 14.4898 -0.6238
21.8000 14.5031 -0.6046
21.8200 14.5164 -0.5977
21.8400 14.5297 -0.6232
21.8600 14.5430 -0.6082
21.8800 14.5564 -0.5981
21.9000 14.5697 -0.6293
21.9200 14.5831 -0.6040
21.9400 14.5964 -0.6030
21.9600 14.6097 -0.6307
21.9800 14.6231 -0.6119
22.0000 14.6365 -0.6083
22.0200 14.6498 -0.6299
22.0400 14.6631 -0.6095
22.0600 14.6764 -0.6134
22.0800 14.6898 -0.6230
22.1000 14.7031 -0.6138
22.1200 14.7165 -0.6152
22.1400 14.7298 -0.6214
22.1600 14.7431 -0.6188
22.1800 14.7564 -0.6200
22.2000 14.7697 -0.6261
22.2200 14.7831 -0.6184
22.2400 14.7964 -0.6149
22.2600 14.8097 -0.6276
22.2800 14.8231 -0.6221
22.3000 14.8364 -0.6180
22.3200 14.8498 -0.6291
22.3400 14.8631 -0.6222
22.3600 14.8765 -0.6180
22.3800 14.8898 -0.6252
22.4000 14.9031 -0.6297
22.4200 14.9165 -0.6233
22.4400 14.9298 -0.6260
22.4600 14.9432 -0.6254
22.4800 14.9565 -0.6258
22.5000 14.9698 -0.6253
22.5200 14.9831 -0.6290
22.5400 14.9964 -0.6290
22.5600 15.0097 -0.6274
22.5800 15.0230 -0.6316
22.6000 15.0363 -0.6273
22.6200 15.0497 -0.6242
22.6400 15.0631 -0.6403
22.6600 15.0764 -0.6253
22.6800 15.0897 -0.6291
22.7000 15.1031 -0.6405
22.7200 15.1165 -0.6200
22.7400 15.1298 -0.6287
22.7600 15.1432 -0.6404
22.7800 15.1565 -0.6245
22.8000 15.1698 -0.6352
22.8200 15.1831 -0.6376
22.8400 15.1964 -0.6274
22.8600 15.2097 -0.6366
22.8800 15.2231 -0.6400
22.9000 15.2364 -0.6288
22.9200 15.2498 -0.6328
22.9400 15.2631 -0.6422
22.9600 15.2764 -0.6251
22.9800 15.2897 -0.6433
23.0000 15.3031 -0.6423
23.0200 15.3164 -0.6316
23.0400 15.3297 -0.6392
23.0600 15.3431 -0.6421
23.0800 15.3564 -0.6350
23.1000 15.3698 -0.6416
23.1200 15.3831 -0.6494
23.1400 15.3964 -0.6363
23.1600 15.4098 -0.6413
23.1800 15.4232 -0.6518
23.2000 15.4365 -0.6356
23.2200 15.4498 -0.6417
23.2400 15.4631 -0.6533
23.2600 15.4764 -0.6396
23.2800 15.4897 -0.6456
23.3000 15.5030 -0.6479
23.3200 15.5164 -0.6365
23.3400 15.5297 -0.6484
23.3600 15.5431 -0.6513
23.3800 15.5564 -0.6361
23.4000 15.5697 -0.6488
23.4200 15.5831 -0.6492
23.4400 15.5965 -0.6412
23.4600 15.6099 -0.6523
23.4800 15.6232 -0.6539
23.5000 15.6365 -0.6424
23.5200 15.6498 -0.6529
23.5400 15.6631 -0.6509
23.5600 15.6765 -0.6539
23.5800 15.6898 -0.6546
23.6000 15.7031 -0.6514
23.6200 15.7164 -0.6512
23.6400 15.7298 -0.6605
23.6600 15.7431 -0.6534
23.6800 15.7564 -0.6550
23.7000 15.7697 -0.6593
23.7200 15.7831 -0.6571
23.7400 15.7964 -0.6618
23.7600 15.8097 -0.6581
23.7800 15.8230 -0.6614
23.8000 15.8364 -0.6657
23.8200 15.8498 -0.6617
23.8400 15.8632 -0.6593
23.8600 15.8765 -0.6737
23.8800 15.8898 -0.6597
23.9000 15.9031 -0.6590
23.9200 15.9164 -0.6740
23.9400 15.9297 -0.6632
23.9600 15.9430 -0.6555
23.9800 15.9564 -0.6740
24.0000 15.9697 -0.6627
24.0200 15.9831 -0.6598
24.0400 15.9964 -0.6728
24.0600 16.0097 -0.6606
24.0800 16.0231 -0.6633
24.1000 16.0364 -0.6751
24.1200 16.0498 -0.6578
24.1400 16.0631 -0.6618
24.1600 16.0764 -0.6760
24.1800 16.0898 -0.6584
24.2000 16.1031 -0.6651
24.2200 16.1164 -0.6780
24.2400 16.1298 -0.6569
24.2600 16.1431 -0.6662
24.2800 16.1565 -0.6760
24.3000 16.1698 -0.6589
24.3200 16.1831 -0.6669
24.3400 16.1965 -0.6717
24.3600 16.2098 -0.6642
24.3800 16.2231 -0.6705
24.4000 16.2364 -0.6745
24.4200 16.2497 -0.6627
24.4400 16.2631 -0.6694
24.4600 16.2764 -0.6726
24.4800 16.2897 -0.6709
24.5000 16.3031 -0.6676
24.5200 16.3164 -0.6771
24.5400 16.3298 -0.6648
24.5600 16.3431 -0.6714
24.5800 16.3565 -0.6800
24.6000 16.3698 -0.6695
24.6200 16.3832 -0.6723
24.6400 16.3965 -0.6796
24.6600 16.4098 -0.6672
24.6800 16.4231 -0.6720
24.7000 16.4365 -0.6836
24.7200 16.4498 -0.6748
24.7400 16.4631 -0.6712
24.7600 16.4764 -0.6854
24.7800 16.4897 -0.6731
24.8000 16.5030 -0.6757
24.8200 16.5164 -0.6891
24.8400 16.5297 -0.6753
24.8600 16.5431 -0.6781
24.8800 16.5564 -0.6852
24.9000 16.5698 -0.6784
24.9200 16.5831 -0.6804
24.9400 16.5965 -0.6895
24.9600 16.6098 -0.6776
24.9800 16.6232 -0.6815
25.0000 16.6365 -0.6899
25.0200 16.6498 -0.6831
25.0400 16.6631 -0.6851
25.0600 16.6764 -0.6897
25.0800 16.6897 -0.6786
25.1000 16.7031 -0.6921
25.1200 16.7164 -0.6895
25.1400 16.7297 -0.6884
25.1600 16.7431 -0.6902
25.1800 16.7564 -0.6916
25.2000 16.7697 -0.6868
25.2200 16.7831 -0.6921
25.2400 16.7964 -0.6894
25.2600 16.8098 -0.6937
25.2800 16.8231 -0.6915
25.3000 16.8365 -0.6907
25.3200 16.8498 -0.6957
25.3400 16.8631 -0.6939
25.3600 16.8765 -0.6966
25.3800 16.8898 -0.6964
25.4000 16.9031 -0.6899
25.4200 16.9164 -0.6958
25.4400 16.9298 -0.7020
25.4600 16.9431 -0.6896
25.4800 16.9564 -0.6993
25.5000 16.9697 -0.7023
25.5200 16.9830 -0.6912
25.5400 16.9964 -0.6990
25.5600 17.0097 -0.7042
25.5800 17.0231 -0.6891
25.6000 17.0364 -0.7050
25.6200 17.0498 -0.7032
25.6400 17.0632 -0.6955
25.6600 17.0765 -0.7041
25.6800 17.0898 -0.7032
25.7000 17.1031 -0.6918
25.7200 17.1165 -0.7118
25.7400 17.1298 -0.7102
25.7600 17.1431 -0.6920
25.7800 17.1564 -0.7154
25.8000 17.1698 -0.7119
25.8200 17.1831 -0.6938
25.8400 17.1964 -0.7185
25.8600 17.2097 -0.7068
25.8800 17.2230 -0.6970
25.9000 17.2364 -0.7227
25.9200 17.2497 -0.7101
25.9400 17.2631 -0.6986
25.9600 17.2765 -0.7242
25.9800 17.2898 -0.7094
26.0000 17.3032 -0.7024
26.0200 17.3165 -0.7272
26.0400 17.3298 -0.7080
26.0600 17.3431 -0.7054
26.0800 17.3565 -0.7237
26.1000 17.3698 -0.7067
26.1200 17.3831 -0.7078
26.1400 17.3964 -0.7282
26.1600 17.4097 -0.7055
26.1800 17.4231 -0.7166
26.2000 17.4364 -0.7264
26.2200 17.4497 -0.7120
26.2400 17.4631 -0.7183
26.2600 17.4764 -0.7304
26.2800 17.4898 -0.7115
26.3000 17.5031 -0.7207
26.3200 17.5164 -0.7250
26.3400 17.5298 -0.7173
26.3600 17.5431 -0.7237
26.3800 17.5564 -0.7284
26.4000 17.5698 -0.7142
26.4200 17.5831 -0.7259
26.4400 17.5965 -0.7241
26.4600 17.6098 -0.7205
26.4800 17.6231 -0.7256
26.5000 17.6364 -0.7223
26.5200 17.6498 -0.7268
26.5400 17.6631 -0.7249
26.5600 17.6764 -0.7234
26.5800 17.6897 -0.7294
26.6000 17.7030 -0.7283
26.6200 17.7164 -0.7260
26.6400 17.7297 -0.7303
26.6600 17.7430 -0.7250
26.6800 17.7564 -0.7326
26.7000 17.7698 -0.7309
26.7200 17.7832 -0.7254
26.7400 17.7965 -0.7365
26.7600 17.8098 -0.7367
26.7800 17.8232 -0.7279
26.8000 17.8365 -0.7395
26.8200 17.8498 -0.7385
26.8400 17.8631 -0.7319
26.8600 17.8764 -0.7374
26.8800 17.8897 -0.7433
26.9000 17.9031 -0.7340
26.9200 17.9164 -0.7443
26.9400 17.9297 -0.7403
26.9600 17.9430 -0.7353
26.9800 17.9564 -0.7484
27.0000 17.9697 -0.7434
27.0200 17.9831 -0.7421
27.0400 17.9964 -0.7532
27.0600 18.0098 -0.7467
27.0800 18.0232 -0.7469
27.1000 18.0365 -0.7572
27.1200 18.0498 -0.7504
27.1400 18.0631 -0.7512
27.1600 18.0765 -0.7529
27.1800 18.0898 -0.7530
27.2000 18.1031 -0.7490
27.2200 18.1164 -0.7567
27.2400 18.1298 -0.7596
27.2600 18.1431 -0.7518
27.2800 18.1564 -0.7539
27.3000 18.1697 -0.7609
27.3200 18.1830 -0.7532
27.3400 18.1964 -0.7554
27.3600 18.2098 -0.7664
27.3800 18.2231 -0.7509
27.4000 18.2364 -0.7539
27.4200 18.2498 -0.7697
27.4400 18.2631 -0.7507
27.4600 18.2765 -0.7630
27.4800 18.2898 -0.7670
27.5000 18.3031 -0.7485
27.5200 18.3165 -0.7683
27.5400 18.3298 -0.7692
27.5600 18.3432 -0.7502
27.5800 18.3565 -0.7652
27.6000 18.3698 -0.7688
27.6200 18.3831 -0.7545
27.6400 18.3964 -0.7731
27.6600 18.4097 -0.7658
27.6800 18.4230 -0.7560
27.7000 18.4364 -0.7751
27.7200 18.4498 -0.7707
27.7400 18.4631 -0.7541
27.7600 18.4764 -0.7780
27.7800 18.4898 -0.7703
27.8000 18.5032 -0.7619
27.8200 18.5165 -0.7772
27.8400 18.5298 -0.7696
27.8600 18.5431 -0.7619
27.8800 18.5565 -0.7825
27.9000 18.5698 -0.7691
27.9200 18.5831 -0.7717
27.9400 18.5964 -0.7843
27.9600 18.6097 -0.7731
27.9800 18.6231 -0.7765
28.0000 18.6364 -0.7840
28.0200 18.6497 -0.7801
28.0400 18.6631 -0.7813
28.0600 18.6764 -0.7855
28.0800 18.6897 -0.7819
28.1000 18.7031 -0.7882
28.1200 18.7164 -0.7815
28.1400 18.7298 -0.7887
28.1600 18.7432 -0.7892
28.1800 18.7565 -0.7839
28.2000 18.7698 -0.7806
28.2200 18.7831 -0.7903
28.2400 18.7965 -0.7864
28.2600 18.8098 -0.7895
28.2800 18.8231 -0.7871
28.3000 18.8364 -0.7854
28.3200 18.8498 -0.7860
28.3400 18.8631 -0.7890
28.3600 18.8764 -0.7855
28.3800 18.8897 -0.7908
28.4000 18.9030 -0.7868
28.4200 18.9164 -0.7874
28.4400 18.9297 -0.7884
28.4600 18.9431 -0.7907
28.4800 18.9564 -0.7920
28.5000 18.9698 -0.7945
28.5200 18.9831 -0.7864
28.5400 18.9965 -0.7964
28.5600 19.0098 -0.7906
28.5800 19.0231 -0.7939
28.6000 19.0365 -0.7988
28.6200 19.0498 -0.7933
28.6400 19.0631 -0.7934
28.6600 19.0764 -0.8006
28.6800 19.0898 -0.8007
28.7000 19.1031 -0.7932
28.7200 19.1164 -0.8009
28.7400 19.1297 -0.7977
28.7600 19.1430 -0.7963
28.7800 19.1563 -0.8042
28.8000 19.1697 -0.8020
28.8200 19.1830 -0.7974
28.8400 19.1964 -0.8051
28.8600 19.2098 -0.8011
28.8800 19.2232 -0.8067
28.9000 19.2365 -0.8073
28.9200 19.2498 -0.8045
28.9400 19.2632 -0.8142
28.9600 19.2765 -0.8156
28.9800 19.2898 -0.8049
29.0000 19.3031 -0.8211
29.0200 19.3164 -0.8172
29.0400 19.3297 -0.8151
29.0600 19.3431 -0.8249
29.0800 19.3564 -0.8199
29.1000 19.3697 -0.8201
29.1200 19.3831 -0.8293
29.1400 19.3964 -0.8235
29.1600 19.4098 -0.8303
29.1800 19.4231 -0.8409
29.2000 19.4364 -0.8240
29.2200 19.4498 -0.8296
29.2400 19.4632 -0.8472
29.2600 19.4765 -0.8312
29.2800 19.4898 -0.8387
29.3000 19.5031 -0.8513
29.3200 19.5164 -0.8341
29.3400 19.5298 -0.8489
29.3600 19.5431 -0.8500
29.3800 19.5564 -0.8434
29.4000 19.5697 -0.8513
29.4200 19.5831 -0.8593
29.4400 19.5964 -0.8432
29.4600 19.6097 -0.8613
29.4800 19.6230 -0.8599
29.5000 19.6364 -0.8459
29.5200 19.6497 -0.8600
29.5400 19.6631 -0.8614
29.5600 19.6764 -0.8515
29.5800 19.6898 -0.8659
29.6000 19.7031 -0.8587
29.6200 19.7165 -0.8535
29.6400 19.7298 -0.8622
29.6600 19.7431 -0.8543
29.6800 19.7564 -0.8547
29.7000 19.7698 -0.8617
29.7200 19.7831 -0.8589
29.7400 19.7964 -0.8523
29.7600 19.8097 -0.8587
29.7800 19.8231 -0.8610
29.8000 19.8364 -0.8614
29.8200 19.8497 -0.8606
29.8400 19.8630 -0.8636
29.8600 19.8764 -0.8595
29.8800 19.8897 -0.8579
29.9000 19.9031 -0.8701
29.9200 19.9164 -0.8682
29.9400 19.9298 -0.8575
29.9600 19.9432 -0.8757
29.9800 19.9565 -0.8631
30.0000 19.9698 -0.8639
30.0200 19.9832 -0.8766
30.0400 19.9965 -0.8644
30.0600 20.0098 -0.8649
30.0800 20.0231 -0.8799
30.1000 20.0364 -0.8647
30.1200 20.0497 -0.8719
30.1400 20.0631 -0.8774
30.1600 20.0764 -0.8685
30.1800 20.0897 -0.8753
30.2000 20.1031 -0.8817
30.2200 20.1164 -0.8701
30.2400 20.1298 -0.8805
30.2600 20.1431 -0.8865
30.2800 20.1564 -0.8713
30.3000 20.1697 -0.8802
30.3200 20.1831 -0.8888
30.3400 20.1965 -0.8790
30.3600 20.2098 -0.8859
30.3800 20.2231 -0.8917
30.4000 20.2365 -0.8790
30.4200 20.2498 -0.8929
30.4400 20.2631 -0.8930
30.4600 20.2764 -0.8838
30.4800 20.2898 -0.8326
30.5000 20.3031 -0.7198
30.5200 20.3164 -0.5821
30.5400 20.3297 -0.4613
30.5600 20.3430 -0.3490
30.5800 20.3564 -0.2419
30.6000 20.3697 -0.1526
30.6200 20.3831 -0.0785
30.6400 20.3964 -0.0304
30.6600 20.4098 0.0003
30.6800 20.4232 0.0234
30.7000 20.4365 0.0729
30.7200 20.4498 0.1415
30.7400 20.4631 0.1631
30.7600 20.4765 0.2060
30.7800 20.4898 0.2530
30.8000 20.5031 0.2881
30.8200 20.5164 0.3462
30.8400 20.5297 0.4012
30.8600 20.5431 0.4439
30.8800 20.5564 0.4929
30.9000 20.5697 0.5538
30.9200 20.5830 0.5927
30.9400 20.5964 0.6540
30.9600 20.6097 0.7098
30.9800 20.6230 0.7541
31.0000 20.6364 0.8091
31.0200 20.6497 0.8622
31.0400 20.6631 0.8971
31.0600 20.6765 0.9481
31.0800 20.6898 0.9850
31.1000 20.7031 0.9899
31.1200 20.7165 0.9702
31.1400 20.7298 0.9456
31.1600 20.7431 0.9183
31.1800 20.7564 0.9207
31.2000 20.7697 0.9213
31.2200 20.7831 0.9140
31.2400 20.7964 0.9188
31.2600 20.8097 0.9205
31.2800 20.8230 0.9077
31.3000 20.8364 0.9119
31.3200 20.8498 0.9221
31.3400 20.8631 0.9049
31.3600 20.8764 0.9104
31.3800 20.8898 0.9276
31.4000 20.9032 0.9099
31.4200 20.9165 0.9082
31.4400 20.9298 0.9171
31.4600 20.9431 0.8950
31.4800 20.9564 0.8982
31.5000 20.9698 0.8951
31.5200 20.9831 0.8720
31.5400 20.9964 0.8716
31.5600 21.0098 0.8934
31.5800 21.0231 0.8704
31.6000 21.0365 0.8740
31.6200 21.0498 0.8914
31.6400 21.0631 0.8643
31.6600 21.0764 0.8754
31.6800 21.0897 0.8851
31.7000 21.1031 0.8577
31.7200 21.1164 0.8727
31.7400 21.1297 0.8790
31.7600 21.1431 0.8616
31.7800 21.1565 0.8738
31.8000 21.1698 0.8782
31.8200 21.1831 0.8546
31.8400 21.1964 0.8703
31.8600 21.2098 0.8703
31.8800 21.2231 0.8490
31.9000 21.2364 0.8699
31.9200 21.2497 0.8646
31.9400 21.2631 0.8473
31.9600 21.2764 0.8537
31.9800 21.2897 0.8474
32.0000 21.3031 0.8342
32.0200 21.3164 0.8522
32.0400 21.3297 0.8361
32.0600 21.3431 0.8327
32.0800 21.3564 0.8433
32.1000 21.3698 0.8338
32.1200 21.3831 0.8253
32.1400 21.3965 0.8359
32.1600 21.4098 0.8310
32.1800 21.4231 0.8303
32.2000 21.4365 0.8340
32.2200 21.4498 0.8305
32.2400 21.4631 0.8229
32.2600 21.4764 0.8240
32.2800 21.4897 0.8214
32.3000 21.5031 0.8177
32.3200 21.5164 0.8110
32.3400 21.5297 0.8137
32.3600 21.5430 0.8099
32.3800 21.5564 0.8109
32.4000 21.5697 0.8146
32.4200 21.5831 0.8023
32.4400 21.5964 0.8108
32.4600 21.6098 0.8047
32.4800 21.6231 0.7968
32.5000 21.6364 0.7997
32.5200 21.6498 0.8060
32.5400 21.6631 0.7977
32.5600 21.6765 0.8048
32.5800 21.6898 0.8092
32.6000 21.7032 0.8016
32.6200 21.7165 0.7957
32.6400 21.7298 0.7986
32.6600 21.7431 0.7843
32.6800 21.7564 0.7907
32.7000 21.7697 0.7862
32.7200 21.7830 0.7788
32.7400 21.7964 0.7766
32.7600 21.8097 0.7812
32.7800 21.8230 0.7767
32.8000 21.8364 0.7751
32.8200 21.8497 0.7804
32.8400 21.8631 0.7680
32.8600 21.8765 0.7687
32.8800 21.8898 0.7790
32.9000 21.9031 0.7682
32.9200 21.9165 0.7677
32.9400 21.9298 0.7724
32.9600 21.9432 0.7605
32.9800 21.9565 0.7627
33.0000 21.9698 0.7662
33.0200 21.9831 0.7632
33.0400 21.9965 0.7558
33.0600 22.0098 0.7626
33.0800 22.0231 0.7615
33.1000 22.0364 0.7531
33.1200 22.0497 0.7551
33.1400 22.0631 0.7548
33.1600 22.0764 0.7450
33.1800 22.0897 0.7576
33.2000 22.1031 0.7522
33.2200 22.1165 0.7453
33.2400 22.1298 0.7537
33.2600 22.1431 0.7490
33.2800 22.1564 0.7356
33.3000 22.1698 0.7521
33.3200 22.1831 0.7407
33.3400 22.1964 0.7346
33.3600 22.2097 0.7530
33.3800 22.2231 0.7361
33.4000 22.2364 0.7325
33.4200 22.2497 0.7527
33.4400 22.2630 0.7324
33.4600 22.2764 0.7316
33.4800 22.2897 0.7477
33.5000 22.3031 0.7258
33.5200 22.3164 0.7339
33.5400 22.3297 0.7438
33.5600 22.3431 0.7234
33.5800 22.3564 0.7244
33.6000 22.3698 0.7367
33.6200 22.3831 0.7208
33.6400 22.3964 0.7279
33.6600 22.4098 0.7309
33.6800 22.4231 0.7186
33.7000 22.4364 0.7256
33.7200 22.4498 0.7361
33.7400 22.4632 0.7190
33.7600 22.4765 0.7175
33.7800 22.4898 0.7266
33.8000 22.5031 0.7145
33.8200 22.5164 0.7086
33.8400 22.5297 0.7203
33.8600 22.5431 0.7047
33.8800 22.5564 0.7120
33.9000 22.5697 0.7096
33.9200 22.5831 0.7002
33.9400 22.5965 0.7075
33.9600 22.6098 0.7084
33.9800 22.6232 0.6944
34.0000 22.6365 0.6966
34.0200 22.6498 0.7006
34.0400 22.6632 0.6886
34.0600 22.6765 0.6991
34.0800 22.6898 0.6946
34.1000 22.7031 0.6858
34.1200 22.7164 0.6938
34.1400 22.7297 0.6851
34.1600 22.7430 0.6848
34.1800 22.7563 0.6905
34.2000 22.7697 0.6769
34.2200 22.7831 0.6831
34.2400 22.7964 0.6783
34.2600 22.8097 0.6795
34.2800 22.8231 0.6767
34.3000 22.8365 0.6765
34.3200 22.8498 0.6672
34.3400 22.8632 0.6692
34.3600 22.8765 0.6778
34.3800 22.8898 0.6659
34.4000 22.9032 0.6730
34.4200 22.9165 0.6786
34.4400 22.9298 0.6637
34.4600 22.9431 0.6645
34.4800 22.9564 0.6676
34.5000 22.9697 0.6658
34.5200 22.9830 0.6620
34.5400 22.9964 0.6656
34.5600 23.0097 0.6599
34.5800 23.0231 0.6610
34.6000 23.0364 0.6624
34.6200 23.0497 0.6539
34.6400 23.0631 0.6525
34.6600 23.0764 0.6489
34.6800 23.0898 0.6480
34.7000 23.1031 0.6402
34.7200 23.1164 0.6493
34.7400 23.1298 0.6476
34.7600 23.1431 0.6436
34.7800 23.1565 0.6435
34.8000 23.1698 0.6451
34.8200 23.1831 0.6426
34.8400 23.1965 0.6502
34.8600 23.2098 0.6423
34.8800 23.2231 0.6429
34.9000 23.2364 0.6448
34.9200 23.2497 0.6394
34.9400 23.2631 0.6286
34.9600 23.2764 0.6337
34.9800 23.2897 0.6338
35.0000 23.3031 0.6272
35.0200 23.3165 0.6324
35.0400 23.3298 0.6238
35.0600 23.3432 0.6205
35.0800 23.3565 0.6268
35.1000 23.3698 0.6287
35.1200 23.3831 0.6260
35.1400 23.3964 0.6321
35.1600 23.4097 0.6354
35.1800 23.4231 0.6265
35.2000 23.4364 0.6266
35.2200 23.4498 0.6258
35.2400 23.4631 0.6180
35.2600 23.4764 0.6277
35.2800 23.4897 0.6113
35.3000 23.5031 0.6094
35.3200 23.5164 0.6206
35.3400 23.5297 0.6183
35.3600 23.5431 0.6145
35.3800 23.5565 0.6191
35.4000 23.5698 0.6097
35.4200 23.5832 0.6075
35.4400 23.5965 0.6092
35.4600 23.6098 0.5982
35.4800 23.6232 0.5980
35.5000 23.6365 0.6102
35.5200 23.6498 0.5927
35.5400 23.6631 0.5980
35.5600 23.6764 0.6041
35.5800 23.6898 0.5942
35.6000 23.7031 0.5913
35.6200 23.7164 0.5937
35.6400 23.7297 0.5857
35.6600 23.7431 0.5860
35.6800 23.7564 0.5887
35.7000 23.7697 0.5792
35.7200 23.7831 0.5831
35.7400 23.7965 0.5873
35.7600 23.8098 0.5760
35.7800 23.8231 0.5797
35.8000 23.8365 0.5843
35.8200 23.8498 0.5691
35.8400 23.8632 0.5735
35.8600 23.8765 0.5751
35.8800 23.8898 0.5712
35.9000 23.9031 0.5715
35.9200 23.9164 0.5791
35.9400 23.9298 0.5661
35.9600 23.9431 0.5723
35.9800 23.9563 0.5764
36.0000 23.9697 0.5586
36.0200 23.9830 0.5704
36.0400 23.9964 0.5739
36.0600 24.0097 0.5513
36.0800 24.0231 0.5652
36.1000 24.0365 0.5681
36.1200 24.0498 0.5495
36.1400 24.0632 0.5639
36.1600 24.0765 0.5669
36.1800 24.0898 0.5476
36.2000 24.1032 0.5617
36.2200 24.1165 0.5648
36.2400 24.1298 0.5403
36.2600 24.1431 0.5633
36.2800 24.1564 0.5590
36.3000 24.1697 0.5399
36.3200 24.1830 0.5565
36.3400 24.1964 0.5554
36.3600 24.2097 0.5378
36.3800 24.2231 0.5564
36.4000 24.2364 0.5424
36.4200 24.2498 0.5379
36.4400 24.2631 0.5517
36.4600 24.2765 0.5425
36.4800 24.2898 0.5359
36.5000 24.3031 0.5435
36.5200 24.3165 0.5367
36.5400 24.3298 0.5385
36.5600 24.3432 0.5362
36.5800 24.3565 0.5377
36.6000 24.3698 0.5282
36.6200 24.3831 0.5297
36.6400 24.3964 0.5353
36.6600 24.4097 0.5284
36.6800 24.4231 0.5259
36.7000 24.4364 0.5330
36.7200 24.4497 0.5217
36.7400 24.4631 0.5200
36.7600 24.4764 0.5269
36.7800 24.4898 0.5175
36.8000 24.5031 0.5195
36.8200 24.5165 0.5240
36.8400 24.5298 0.5104
36.8600 24.5431 0.5159
36.8800 24.5564 0.5258
36.9000 24.5698 0.5069
36.9200 24.5831 0.5156
36.9400 24.5965 0.5200
36.9600 24.6098 0.5053
36.9800 24.6231 0.5100
37.0000 24.6364 0.5176
37.0200 24.6498 0.5014
37.0400 24.6631 0.5072
37.0600 24.6764 0.5060
37.0800 24.6897 0.5027
37.1000 24.7031 0.5062
37.1200 24.7164 0.5038
37.1400 24.7297 0.4997
37.1600 24.7431 0.4996
37.1800 24.7564 0.4995
37.2000 24.7698 0.4909
37.2200 24.7832 0.4933
37.2400 24.7965 0.4968
37.2600 24.8098 0.4911
37.2800 24.8231 0.4922
37.3000 24.8365 0.4928
37.3200 24.8498 0.4937
37.3400 24.8631 0.4893
37.3600 24.8764 0.4933
37.3800 24.8898 0.4914
37.4000 24.9031 0.4875
37.4200 24.9164 0.4981
37.4400 24.9297 0.4876
37.4600 24.9431 0.4865
37.4800 24.9564 0.4843
37.5000 24.9697 0.4858
37.5200 24.9830 0.4822
37.5400 24.9964 0.4864
37.5600 25.0098 0.4814
37.5800 25.0231 0.4856
37.6000 25.0364 0.4878
37.6200 25.0498 0.4876
37.6400 25.0631 0.4876
37.6600 25.0765 0.4907
37.6800 25.0898 0.4830
37.7000 25.1031 0.4854
37.7200 25.1164 0.4870
37.7400 25.1298 0.4740
37.7600 25.1431 0.4779
37.7800 25.1564 0.4802
37.8000 25.1697 0.4640
37.8200 25.1830 0.4662
37.8400 25.1964 0.4680
37.8600 25.2097 0.4582
37.8800 25.2231 0.4631
37.9000 25.2365 0.4668
37.9200 25.2498 0.4570
37.9400 25.2632 0.4633
37.9600 25.2765 0.4652
37.9800 25.2898 0.4493
38.0000 25.3032 0.4639
38.0200 25.3165 0.4562
38.0400 25.3298 0.4504
38.0600 25.3431 0.4606
38.0800 25.3564 0.4585
38.1000 25.3698 0.4440
38.1200 25.3831 0.4604
38.1400 25.3964 0.4524
38.1600 25.4097 0.4470
38.1800 25.4230 0.4524
38.2000 25.4364 0.4542
38.2200 25.4497 0.4438
38.2400 25.4631 0.4493
38.2600 25.4764 0.4472
38.2800 25.4898 0.4380
38.3000 25.5032 0.4471
38.3200 25.5165 0.4394
38.3400 25.5298 0.4345
38.3600 25.5432 0.4443
38.3800 25.5565 0.4338
38.4000 25.5698 0.4326
38.4200 25.5831 0.4435
38.4400 25.5964 0.4279
38.4600 25.6097 0.4305
38.4800 25.6230 0.4378
38.5000 25.6364 0.4255
38.5200 25.6497 0.4293
38.5400 25.6631 0.4357
38.5600 25.6765 0.4160
38.5800 25.6898 0.4309
38.6000 25.7031 0.4266
38.6200 25.7164 0.4202
38.6400 25.7298 0.4280
38.6600 25.7431 0.4209
38.6800 25.7564 0.4129
38.7000 25.7698 0.4268
38.7200 25.7831 0.4207
38.7400 25.7965 0.4123
38.7600 25.8098 0.4145
38.7800 25.8231 0.4150
38.8000 25.8364 0.4133
38.8200 25.8498 0.4188
38.8400 25.8631 0.4094
38.8600 25.8764 0.4105
38.8800 25.8897 0.4152
38.9000 25.9031 0.4058
38.9200 25.9164 0.4118
38.9400 25.9297 0.4056
38.9600 25.9430 0.4059
38.9800 25.9564 0.4055
39.0000 25.9698 0.4046
39.0200 25.9831 0.4025
39.0400 25.9964 0.4000
39.0600 26.0098 0.4027
39.0800 26.0231 0.4038
39.1000 26.0365 0.3993
39.1200 26.0498 0.3989
39.1400 26.0631 0.3973
39.1600 26.0764 0.3964
39.1800 26.0898 0.3924
39.2000 26.1031 0.3945
39.2200 26.1164 0.3914
39.2400 26.1297 0.3938
39.2600 26.1430 0.3888
39.2800 26.1564 0.3932
39.3000 26.1697 0.3858
39.3200 26.1831 0.3857
39.3400 26.1964 0.3851
39.3600 26.2098 0.3808
39.3800 26.2232 0.3830
39.4000 26.2365 0.3827
39.4200 26.2498 0.3738
39.4400 26.2632 0.3818
39.4600 26.2765 0.3793
39.4800 26.2898 0.3744
39.5000 26.3031 0.3803
39.5200 26.3164 0.3776
39.5400 26.3298 0.3746
39.5600 26.3431 0.3753
39.5800 26.3564 0.3757
39.6000 26.3697 0.3716
39.6200 26.3831 0.3798
39.6400 26.3964 0.3665
39.6600 26.4098 0.3740
39.6800 26.4231 0.3741
39.7000 26.4364 0.3731
39.7200 26.4498 0.3715
39.7400 26.4631 0.3734
39.7600 26.4765 0.3688
39.7800 26.4898 0.3724
39.8000 26.5031 0.3713
39.8200 26.5165 0.3662
39.8400 26.5298 0.3724
39.8600 26.5431 0.3714
39.8800 26.5564 0.3610
39.9000 26.5698 0.3693
39.9200 26.5831 0.3696
39.9400 26.5964 0.3615
39.9600 26.6097 0.3652
39.9800 26.6230 0.3631
40.0000 26.6364 0.3601
40.0200 26.6497 0.3616
40.0400 26.6631 0.3619
40.0600 26.6764 0.3587
40.0800 26.6898 0.3640
40.1000 26.7032 0.3540
40.1200 26.7165 0.3560
40.1400 26.7298 0.3579
40.1600 26.7431 0.3551
40.1800 26.7565 0.3520
40.2000 26.7698 0.3527
40.2200 26.7831 0.3493
40.2400 26.7964 0.3536
40.2600 26.8097 0.3458
40.2800 26.8231 0.3448
40.3000 26.8364 0.3541
40.3200 26.8497 0.3444
40.3400 26.8630 0.3370
40.3600 26.8764 0.3523
40.3800 26.8897 0.3364
40.4000 26.9031 0.3382
40.4200 26.9164 0.3486
40.4400 26.9298 0.3348
40.4600 26.9432 0.3332
40.4800 26.9565 0.3432
40.5000 26.9698 0.3308
40.5200 26.9831 0.3313
40.5400 26.9965 0.3403
40.5600 27.0098 0.3276
40.5800 27.0231 0.3334
40.6000 27.0364 0.3409
40.6200 27.0497 0.3210
40.6400 27.0631 0.3293
40.6600 27.0764 0.3363
40.6800 27.0897 0.3212
40.7000 27.1031 0.3269
40.7200 27.1164 0.3289
40.7400 27.1298 0.3199
40.7600 27.1431 0.3267
40.7800 27.1564 0.3270
40.8000 27.1698 0.3155
40.8200 27.1831 0.3273
40.8400 27.1964 0.3219
40.8600 27.2097 0.3173
40.8800 27.2231 0.3239
40.9000 27.2365 0.3195
40.9200 27.2498 0.3140
40.9400 27.2631 0.3283
40.9600 27.2765 0.3180
40.9800 27.2898 0.3124
41.0000 27.3031 0.3256
41.0200 27.3164 0.3137
41.0400 27.3297 0.3119
41.0600 27.3431 0.3222
41.0800 27.3564 0.3117
41.1000 27.3698 0.3082
41.1200 27.3831 0.3120
41.1400 27.3964 0.3103
41.1600 27.4098 0.3092
41.1800 27.4232 0.3104
41.2000 27.4365 0.3087
41.2200 27.4498 0.3052
41.2400 27.4632 0.3146
41.2600 27.4765 0.3036
41.2800 27.4898 0.3012
41.3000 27.5031 0.3109
41.3200 27.5164 0.3055
41.3400 27.5297 0.2973
41.3600 27.5431 0.3069
41.3800 27.5564 0.3015
41.4000 27.5697 0.2983
41.4200 27.5830 0.3057
41.4400 27.5964 0.2983
41.4600 27.6097 0.2910
41.4800 27.6231 0.3067
41.5000 27.6364 0.2939
41.5200 27.6498 0.2866
41.5400 27.6632 0.3018
41.5600 27.6765 0.2922
41.5800 27.6898 0.2857
41.6000 27.7031 0.3012
41.6200 27.7165 0.2892
41.6400 27.7298 0.2816
41.6600 27.7431 0.2960
41.6800 27.7564 0.2871
41.7000 27.7698 0.2820
41.7200 27.7831 0.2882
41.7400 27.7964 0.2834
41.7600 27.8097 0.2808
41.7800 27.8230 0.2954
41.8000 27.8364 0.2764
41.8200 27.8498 0.2738
41.8400 27.8631 0.2911
41.8600 27.8764 0.2767
41.8800 27.8898 0.2758
41.9000 27.9032 0.2893
41.9200 27.9165 0.2697
41.9400 27.9298 0.2722
41.9600 27.9431 0.2803
41.9800 27.9565 0.2704
42.0000 27.9698 0.2729
42.0200 27.9831 0.2762
42.0400 27.9964 0.2672
42.0600 28.0098 0.2723
42.0800 28.0231 0.2705
42.1000 28.0364 0.2613
42.1200 28.0497 0.2709
42.1400 28.0630 0.2653
42.1600 28.0764 0.2637
42.1800 28.0897 0.2661
42.2000 28.1031 0.2658
42.2200 28.1164 0.2637
42.2400 28.1298 0.2637
42.2600 28.1432 0.2638
42.2800 28.1565 0.2677
42.3000 28.1698 0.2626
42.3200 28.1831 0.2596
42.3400 28.1965 0.2666
42.3600 28.2098 0.2613
42.3800 28.2231 0.2582
42.4000 28.2364 0.2669
42.4200 28.2497 0.2547
42.4400 28.2631 0.2594
42.4600 28.2764 0.2583
42.4800 28.2897 0.2561
42.5000 28.3031 0.2598
42.5200 28.3164 0.2543
42.5400 28.3297 0.2518
42.5600 28.3431 0.2566
42.5800 28.3564 0.2493
42.6000 28.3698 0.2510
42.6200 28.3831 0.2572
42.6400 28.3965 0.2445
42.6600 28.4098 0.2457
42.6800 28.4231 0.2484
42.7000 28.4365 0.2391
42.7200 28.4499 0.2454
42.7400 28.4632 0.2498
42.7600 28.4764 0.2357
42.7800 28.4897 0.2416
42.8000 28.5031 0.2444
42.8200 28.5164 0.2355
42.8400 28.5297 0.2409
42.8600 28.5430 0.2435
42.8800 28.5564 0.2306
42.9000 28.5697 0.2390
42.9200 28.5831 0.2324
42.9400 28.5964 0.2295
42.9600 28.6098 0.2339
42.9800 28.6231 0.2300
43.0000 28.6365 0.2256
43.0200 28.6498 0.2311
43.0400 28.6631 0.2284
43.0600 28.6765 0.2282
43.0800 28.6898 0.2252
43.1000 28.7031 0.2275
43.1200 28.7164 0.2241
43.1400 28.7298 0.2200
43.1600 28.7431 0.2256
43.1800 28.7564 0.2261
43.2000 28.7697 0.2185
43.2200 28.7830 0.2242
43.2400 28.7964 0.2220
43.2600 28.8097 0.2158
43.2800 28.8230 0.2215
43.3000 28.8364 0.2187
43.3200 28.8498 0.2165
43.3400 28.8632 0.2234
43.3600 28.8765 0.2162
43.3800 28.8899 0.2091
43.4000 28.9032 0.2279
43.4200 28.9165 0.2151
43.4400 28.9299 0.2093
43.4600 28.9431 0.2201
43.4800 28.9564 0.2144
43.5000 28.9697 0.2062
43.5200 28.9831 0.2199
43.5400 28.9964 0.2084
43.5600 29.0097 0.2112
43.5800 29.0230 0.2124
43.6000 29.0364 0.2068
43.6200 29.0498 0.2077
43.6400 29.0631 0.2147
43.6600 29.0765 0.2037
43.6800 29.0898 0.2041
43.7000 29.1032 0.2128
43.7200 29.1165 0.2012
43.7400 29.1298 0.2003
43.7600 29.1431 0.2071
43.7800 29.1565 0.1981
43.8000 29.1698 0.1958
43.8200 29.1831 0.2006
43.8400 29.1964 0.2012
43.8600 29.2097 0.1961
43.8800 29.2231 0.1955
43.9000 29.2364 0.1993
43.9200 29.2497 0.1944
43.9400 29.2630 0.1912
43.9600 29.2764 0.1922
43.9800 29.2897 0.1909
44.0000 29.3031 0.1932
44.0200 29.3164 0.1925
44.0400 29.3298 0.1870
44.0600 29.3431 0.1946
44.0800 29.3565 0.1840
44.1000 29.3698 0.1835
44.1200 29.3831 0.1913
44.1400 29.3965 0.1850
44.1600 29.4098 0.1775
44.1800 29.4231 0.1900
44.2000 29.4364 0.1794
44.2200 29.4497 0.1799
44.2400 29.4631 0.1849
44.2600 29.4764 0.1769
44.2800 29.4897 0.1781
44.3000 29.5030 0.1826
44.3200 29.5164 0.1714
44.3400 29.5297 0.1756
44.3600 29.5431 0.1767
44.3800 29.5564 0.1716
44.4000 29.5697 0.1729
44.4200 29.5831 0.1740
44.4400 29.5965 0.1689
44.4600 29.6098 0.1665
44.4800 29.6231 0.1763
44.5000 29.6365 0.1672
44.5200 29.6498 0.1656
44.5400 29.6631 0.1711
44.5600 29.6764 0.1675
44.5800 29.6897 0.1641
44.6000 29.7031 0.1674
44.6200 29.7164 0.1618
44.6400 29.7297 0.1607
44.6600 29.7431 0.1645
44.6800 29.7564 0.1595
44.7000 29.7697 0.1597
44.7200 29.7831 0.1648
44.7400 29.7964 0.1573
44.7600 29.8097 0.1575
44.7800 29.8231 0.1590
44.8000 29.8365 0.1572
44.8200 29.8498 0.1563
44.8400 29.8631 0.1572
44.8600 29.8765 0.1561
44.8800 29.8898 0.1528
44.9000 29.9032 0.1530
44.9200 29.9165 0.1565
44.9400 29.9297 0.1509
44.9600 29.9431 0.1521
44.9800 29.9564 0.1548
45.0000 29.9697 0.1437
45.0200 29.9830 0.1511
45.0400 29.9964 0.1485
45.0600 30.0097 0.1429
45.0800 30.0231 0.1458
45.1000 30.0364 0.1448
45.1200 30.0498 0.1409
45.1400 30.0632 0.1459
45.1600 30.0765 0.1405
45.1800 30.0898 0.1432
45.2000 30.1031 0.1414
45.2200 30.1164 0.1437
45.2400 30.1298 0.1402
45.2600 30.1431 0.1397
45.2800 30.1564 0.1431
45.3000 30.1697 0.1367
45.3200 30.1831 0.1354
45.3400 30.1964 0.1396
45.3600 30.2097 0.1354
45.3800 30.2230 0.1372
45.4000 30.2364 0.1359
45.4200 30.2497 0.1325
45.4400 30.2631 0.1320
45.4600 30.2764 0.1291
45.4800 30.2897 0.1321
45.5000 30.3031 0.1302
45.5200 30.3165 0.1335
45.5400 30.3298 0.1273
45.5600 30.3432 0.1260
45.5800 30.3565 0.1308
45.6000 30.3698 0.1237
45.6200 30.3831 0.1251
45.6400 30.3964 0.1263
45.6600 30.4097 0.1244
45.6800 30.4230 0.1212
45.7000 30.4364 0.1189
45.7200 30.4497 0.1248
45.7400 30.4630 0.1152
45.7600 30.4764 0.1213
45.7800 30.4898 0.1168
45.8000 30.5031 0.1146
45.8200 30.5164 0.1161
45.8400 30.5298 0.1187
45.8600 30.5431 0.1129
45.8800 30.5565 0.1103
45.9000 30.5698 0.1142
45.9200 30.5831 0.1127
45.9400 30.5964 0.1106
45.9600 30.6098 0.1140
45.9800 30.6232 0.1065
46.0000 30.6365 0.1103
46.0200 30.6498 0.1129
46.0400 30.6631 0.1049
46.0600 30.6765 0.1091
46.0800 30.6898 0.1084
46.1000 30.7031 0.1040
46.1200 30.7164 0.1068
46.1400 30.7297 0.1070
46.1600 30.7431 0.1029
46.1800 30.7564 0.1038
46.2000 30.7697 0.1043
46.2200 30.7831 0.1029
46.2400 30.7965 0.0974
46.2600 30.8098 0.1039
46.2800 30.8231 0.1000
46.3000 30.8365 0.1016
46.3200 30.8498 0.0999
46.3400 30.8632 0.1002
46.3600 30.8765 0.0973
46.3800 30.8898 0.1000
46.4000 30.9031 0.0969
46.4200 30.9165 0.0964
46.4400 30.9298 0.0979
46.4600 30.9431 0.0941
46.4800 30.9564 0.0979
46.5000 30.9697 0.0999
46.5200 30.9831 0.0892
46.5400 30.9964 0.0940
46.5600 31.0097 0.0940
46.5800 31.0231 0.0913
46.6000 31.0365 0.0902
46.6200 31.0498 0.0911
46.6400 31.0631 0.0898
46.6600 31.0765 0.0896
46.6800 31.0898 0.0915
46.7000 31.1031 0.0866
46.7200 31.1164 0.0881
46.7400 31.1298 0.0882
46.7600 31.1431 0.0862
46.7800 31.1565 0.0832
46.8000 31.1698 0.0887
46.8200 31.1831 0.0819
46.8400 31.1964 0.0835
46.8600 31.2097 0.0848
46.8800 31.2231 0.0804
46.9000 31.2364 0.0810
46.9200 31.2497 0.0805
46.9400 31.2631 0.0758
46.9600 31.2764 0.0817
46.9800 31.2898 0.0782
47.0000 31.3031 0.0710
47.0200 31.3165 0.0758
47.0400 31.3298 0.0759
47.0600 31.3432 0.0659
47.0800 31.3565 0.0765
47.1000 31.3698 0.0739
47.1200 31.3831 0.0644
47.1400 31.3964 0.0713
47.1600 31.4097 0.0669
47.1800 31.4230 0.0595
47.2000 31.4363 0.0714
47.2200 31.4497 0.0679
47.2400 31.4631 0.0623
47.2600 31.4764 0.0661
47.2800 31.4897 0.0621
47.3000 31.5031 0.0571
47.3200 31.5165 0.0621
47.3400 31.5298 0.0604
47.3600 31.5431 0.0542
47.3800 31.5564 0.0604
47.4000 31.5698 0.0548
47.4200 31.5831 0.0536
47.4400 31.5964 0.0568
47.4600 31.6098 0.0590
47.4800 31.6231 0.0469
47.5000 31.6364 0.0552
47.5200 31.6498 0.0536
47.5400 31.6631 0.0515
47.5600 31.6764 0.0481
47.5800 31.6897 0.0542
47.6000 31.7031 0.0479
47.6200 31.7164 0.0424
47.6400 31.7297 0.0522
47.6600 31.7431 0.0515
47.6800 31.7565 0.0419
47.7000 31.7698 0.0515
47.7200 31.7831 0.0426
47.7400 31.7965 0.0383
47.7600 31.8098 0.0512
47.7800 31.8232 0.0400
47.8000 31.8365 0.0315
47.8200 31.8497 0.0516
47.8400 31.8631 0.0409
47.8600 31.8764 0.0316
47.8800 31.8897 0.0487
47.9000 31.9031 0.0352
47.9200 31.9164 0.0326
47.9400 31.9297 0.0437
47.9600 31.9431 0.0301
47.9800 31.9564 0.0297
48.0000 31.9697 0.0412
48.0200 31.9831 0.0211
48.0400 31.9964 0.0245
48.0600 32.0098 0.0391
48.0800 32.0231 0.0247
48.1000 32.0364 0.0194
48.1200 32.0498 0.0390
48.1400 32.0631 0.0162
48.1600 32.0764 0.0229
48.1800 32.0898 0.0351
48.2000 32.1031 0.0194
48.2200 32.1165 0.0170
48.2400 32.1298 0.0301
48.2600 32.1431 0.0176
48.2800 32.1564 0.0188
48.3000 32.1697 0.0312
48.3200 32.1830 0.0164
48.3400 32.1964 0.0131
48.3600 32.2097 0.0288
48.3800 32.2231 0.0116
48.4000 32.2365 0.0152
48.4200 32.2498 0.0225
48.4400 32.2632 0.0076
48.4600 32.2765 0.0139
48.4800 32.2898 0.0202
48.5000 32.3032 0.0069
48.5200 32.3165 0.0109
48.5400 32.3298 0.0224
48.5600 32.3431 0.0032
48.5800 32.3564 0.0121
48.6000 32.3697 0.0222
48.6200 32.3830 0.0018
48.6400 32.3964 0.0072
48.6600 32.4097 0.0201
48.6800 32.4231 -0.0005
48.7000 32.4364 0.0057
48.7200 32.4497 0.0192
48.7400 32.4631 0.0017
48.7600 32.4765 0.0029
48.7800 32.4898 0.0153
48.8000 32.5032 -0.0065
48.8200 32.5165 0.0060
48.8400 32.5298 0.0092
48.8600 32.5432 -0.0067
48.8800 32.5565 0.0076
48.9000 32.5698 0.0035
48.9200 32.5831 -0.0078
48.9400 32.5964 0.0044
48.9600 32.6098 -0.0006
48.9800 32.6231 -0.0050
49.0000 32.6364 0.0067
49.0200 32.6497 -0.0007
49.0400 32.6631 -0.0074
49.0600 32.6764 0.0020
49.0800 32.6897 -0.0049
49.1000 32.7031 -0.0024
49.1200 32.7165 0.0011
49.1400 32.7298 -0.0096
49.1600 32.7431 -0.0003
49.1800 32.7564 -0.0037
49.2000 32.7698 -0.0109
49.2200 32.7831 -0.0021
49.2400 32.7965 -0.0054
49.2600 32.8098 -0.0125
49.2800 32.8231 -0.0033
49.3000 32.8365 -0.0083
49.3200 32.8498 -0.0089
49.3400 32.8631 -0.0086
49.3600 32.8764 -0.0107
49.3800 32.8897 -0.0190
49.4000 32.9031 -0.0076
49.4200 32.9164 -0.0206
49.4400 32.9298 -0.0113
49.4600 32.9431 -0.0100
49.4800 32.9565 -0.0221
49.5000 32.9698 -0.0166
49.5200 32.9832 -0.0110
49.5400 32.9965 -0.0211
49.5600 33.0098 -0.0166
49.5800 33.0231 -0.0181
49.6000 33.0365 -0.0270
49.6200 33.0497 -0.0156
49.6400 33.0630 -0.0145
49.6600 33.0764 -0.0267
49.6800 33.0897 -0.0242
49.7000 33.1031 -0.0157
49.7200 33.1164 -0.0290
49.7400 33.1297 -0.0266
49.7600 33.1431 -0.0163
49.7800 33.1564 -0.0340
49.8000 33.1697 -0.0309
49.8200 33.1831 -0.0157
49.8400 33.1965 -0.0334
49.8600 33.2098 -0.0301
49.8800 33.2231 -0.0233
49.9000 33.2365 -0.0348
49.9200 33.2498 -0.0299
49.9400 33.2632 -0.0215
49.9600 33.2765 -0.0457
49.9800 33.2898 -0.0323
50.0000 33.3031 -0.0263
50.0200 33.3164 -0.0422
50.0400 33.3298 -0.0367
50.0600 33.3431 -0.0328
50.0800 33.3564 -0.0402
50.1000 33.3697 -0.0355
50.1200 33.3831 -0.0420
50.1400 33.3964 -0.0434
50.1600 33.4097 -0.0379
50.1800 33.4231 -0.0464
50.2000 33.4364 -0.0528
50.2200 33.4498 -0.0390
50.2400 33.4631 -0.0459
50.2600 33.4764 -0.0490
50.2800 33.4898 -0.0394
50.3000 33.5031 -0.0484
50.3200 33.5165 -0.0512
50.3400 33.5298 -0.0433
50.3600 33.5431 -0.0453
50.3800 33.5564 -0.0522
50.4000 33.5698 -0.0482
50.4200 33.5831 -0.0521
50.4400 33.5964 -0.0508
50.4600 33.6097 -0.0487
50.4800 33.6230 -0.0505
50.5000 33.6364 -0.0578
50.5200 33.6497 -0.0499
50.5400 33.6630 -0.0537
50.5600 33.6764 -0.0585
50.5800 33.6898 -0.0536
50.6000 33.7032 -0.0570
50.6200 33.7165 -0.0575
50.6400 33.7298 -0.0579
50.6600 33.7432 -0.0562
50.6800 33.7565 -0.0543
50.7000 33.7698 -0.0633
50.7200 33.7831 -0.0560
50.7400 33.7964 -0.0614
50.7600 33.8097 -0.0661
50.7800 33.8231 -0.0627
50.8000 33.8364 -0.0593
50.8200 33.8497 -0.0671
50.8400 33.8631 -0.0672
50.8600 33.8764 -0.0661
50.8800 33.8898 -0.0720
50.9000 33.9031 -0.0642
50.9200 33.9165 -0.0656
50.9400 33.9298 -0.0808
50.9600 33.9431 -0.0629
50.9800 33.9564 -0.0671
51.0000 33.9698 -0.0790
51.0200 33.9831 -0.0641
51.0400 33.9964 -0.0712
51.0600 34.0097 -0.0858
51.0800 34.0231 -0.0691
51.1000 34.0364 -0.0628
51.1200 34.0498 -0.0932
51.1400 34.0631 -0.0677
51.1600 34.0764 -0.0723
51.1800 34.0897 -0.0885
51.2000 34.1031 -0.0707
51.2200 34.1164 -0.0763
51.2400 34.1298 -0.0872
51.2600 34.1431 -0.0739
51.2800 34.1565 -0.0833
51.3000 34.1698 -0.0908
51.3200 34.1831 -0.0719
51.3400 34.1965 -0.0832
51.3600 34.2098 -0.0940
51.3800 34.2232 -0.0732
51.4000 34.2365 -0.0916
51.4200 34.2498 -0.0925
51.4400 34.2631 -0.0766
51.4600 34.2764 -0.0931
51.4800 34.2898 -0.0952
51.5000 34.3031 -0.0874
51.5200 34.3164 -0.0883
51.5400 34.3297 -0.0938
51.5600 34.3430 -0.0900
51.5800 34.3564 -0.0948
51.6000 34.3697 -0.0969
51.6200 34.3831 -0.0949
51.6400 34.3964 -0.0984
51.6600 34.4098 -0.0919
51.6800 34.4232 -0.0983
51.7000 34.4365 -0.1023
51.7200 34.4498 -0.0948
51.7400 34.4632 -0.1033
51.7600 34.4765 -0.0938
51.7800 34.4898 -0.1005
51.8000 34.5031 -0.1004
51.8200 34.5164 -0.0996
51.8400 34.5298 -0.1028
51.8600 34.5431 -0.1061
51.8800 34.5564 -0.0984
51.9000 34.5697 -0.1060
51.9200 34.5831 -0.1126
51.9400 34.5964 -0.0990
51.9600 34.6097 -0.1106
51.9800 34.6230 -0.1135
52.0000 34.6364 -0.0983
52.0200 34.6497 -0.1153
52.0400 34.6631 -0.1153
52.0600 34.6764 -0.1000
52.0800 34.6898 -0.1185
52.1000 34.7032 -0.1134
52.1200 34.7165 -0.1027
52.1400 34.7298 -0.1198
52.1600 34.7431 -0.1171
52.1800 34.7564 -0.0998
52.2000 34.7697 -0.1254
52.2200 34.7831 -0.1212
52.2400 34.7964 -0.1084
52.2600 34.8097 -0.1266
52.2800 34.8231 -0.1182
52.3000 34.8364 -0.1075
52.3200 34.8497 -0.1355
52.3400 34.8631 -0.1138
52.3600 34.8764 -0.1081
52.3800 34.8898 -0.1353
52.4000 34.9032 -0.1233
52.4200 34.9165 -0.1104
52.4400 34.9298 -0.1346
52.4600 34.9431 -0.1200
52.4800 34.9565 -0.1176
52.5000 34.9698 -0.1396
52.5200 34.9831 -0.1205
52.5400 34.9964 -0.1204
52.5600 35.0098 -0.1389
52.5800 35.0231 -0.1262
52.6000 35.0364 -0.1251
52.6200 35.0497 -0.1409
52.6400 35.0630 -0.1319
52.6600 35.0764 -0.1262
52.6800 35.0897 -0.1422
52.7000 35.1031 -0.1374
52.7200 35.1164 -0.1260
52.7400 35.1298 -0.1411
52.7600 35.1432 -0.1397
52.7800 35.1565 -0.1304
52.8000 35.1698 -0.1361
52.8200 35.1831 -0.1489
52.8400 35.1965 -0.1262
52.8600 35.2098 -0.1413
52.8800 35.2230 -0.1459
52.9000 35.2364 -0.1261
52.9200 35.2497 -0.1460
52.9400 35.2630 -0.1517
52.9600 35.2764 -0.1286
52.9800 35.2897 -0.1495
53.0000 35.3031 -0.1481
53.0200 35.3165 -0.1346
53.0400 35.3298 -0.1521
53.0600 35.3431 -0.1496
53.0800 35.3565 -0.1332
53.1000 35.3698 -0.1559
53.1200 35.3832 -0.1544
53.1400 35.3965 -0.1374
53.1600 35.4098 -0.1569
53.1800 35.4231 -0.1560
53.2000 35.4365 -0.1438
53.2200 35.4498 -0.1599
53.2400 35.4631 -0.1550
53.2600 35.4764 -0.1476
53.2800 35.4898 -0.1594
53.3000 35.5031 -0.1563
53.3200 35.5164 -0.1506
53.3400 35.5297 -0.1560
53.3600 35.5430 -0.1634
53.3800 35.5564 -0.1550
53.4000 35.5697 -0.1615
53.4200 35.5830 -0.1637
53.4400 35.5964 -0.1609
53.4600 35.6098 -0.1623
53.4800 35.6231 -0.1664
53.5000 35.6365 -0.1595
53.5200 35.6498 -0.1613
53.5400 35.6631 -0.1695
53.5600 35.6765 -0.1711
53.5800 35.6898 -0.1635
53.6000 35.7031 -0.1753
53.6200 35.7164 -0.1671
53.6400 35.7298 -0.1676
53.6600 35.7431 -0.1780
53.6800 35.7564 -0.1745
53.7000 35.7697 -0.1684
53.7200 35.7830 -0.1811
53.7400 35.7964 -0.1741
53.7600 35.8097 -0.1688
53.7800 35.8231 -0.1920
53.8000 35.8364 -0.1668
53.8200 35.8498 -0.1719
53.8400 35.8632 -0.1952
53.8600 35.8765 -0.1710
53.8800 35.8898 -0.1769
53.9000 35.9032 -0.1947
53.9200 35.9165 -0.1700
53.9400 35.9298 -0.1782
53.9600 35.9431 -0.1973
53.9800 35.9564 -0.1732
54.0000 35.9697 -0.1819
54.0200 35.9831 -0.2002
54.0400 35.9964 -0.1747
54.0600 36.0097 -0.1861
54.0800 36.0231 -0.1958
54.1000 36.0364 -0.1799
54.1200 36.0498 -0.1886
54.1400 36.0631 -0.2013
54.1600 36.0764 -0.1806
54.1800 36.0898 -0.1912
54.2000 36.1031 -0.2009
54.2200 36.1165 -0.1828
54.2400 36.1298 -0.1931
54.2600 36.1431 -0.2021
54.2800 36.1565 -0.1871
54.3000 36.1698 -0.1965
54.3200 36.1831 -0.1989
54.3400 36.1964 -0.1936
54.3600 36.2098 -0.1984
54.3800 36.2231 -0.2049
54.4000 36.2364 -0.2011
54.4200 36.2497 -0.1958
54.4400 36.2630 -0.2053
54.4600 36.2764 -0.2023
54.4800 36.2897 -0.1971
54.5000 36.3031 -0.2083
54.5200 36.3164 -0.2098
54.5400 36.3298 -0.1986
54.5600 36.3432 -0.2110
54.5800 36.3565 -0.2114
54.6000 36.3698 -0.2046
54.6200 36.3831 -0.2119
54.6400 36.3965 -0.2120
54.6600 36.4098 -0.1982
54.6800 36.4231 -0.2132
54.7000 36.4364 -0.2133
54.7200 36.4497 -0.2058
54.7400 36.4631 -0.2183
54.7600 36.4764 -0.2199
54.7800 36.4897 -0.2043
54.8000 36.5030 -0.2221
54.8200 36.5164 -0.2194
54.8400 36.5297 -0.2077
54.8600 36.5431 -0.2207
54.8800 36.5564 -0.2225
54.9000 36.5698 -0.2127
54.9200 36.5831 -0.2250
54.9400 36.5965 -0.2286
54.9600 36.6098 -0.2116
54.9800 36.6231 -0.2277
55.0000 36.6365 -0.2271
55.0200 36.6498 -0.2182
55.0400 36.6631 -0.2284
55.0600 36.6764 -0.2289
55.0800 36.6897 -0.2204
55.1000 36.7031 -0.2327
55.1200 36.7164 -0.2306
55.1400 36.7297 -0.2208
55.1600 36.7430 -0.2345
55.1800 36.7564 -0.2352
55.2000 36.7697 -0.2250
55.2200 36.7831 -0.2350
55.2400 36.7964 -0.2352
55.2600 36.8098 -0.2320
55.2800 36.8231 -0.2371
55.3000 36.8364 -0.2422
55.3200 36.8497 -0.2349
55.3400 36.8631 -0.2402
55.3600 36.8765 -0.2396
55.3800 36.8898 -0.2442
55.4000 36.9031 -0.2447
55.4200 36.9164 -0.2419
55.4400 36.9298 -0.2391
55.4600 36.9431 -0.2450
55.4800 36.9565 -0.2499
55.5000 36.9698 -0.2429
55.5200 36.9831 -0.2477
55.5400 36.9964 -0.2496
55.5600 37.0097 -0.2477
55.5800 37.0230 -0.2480
55.6000 37.0364 -0.2522
55.6200 37.0498 -0.2536
55.6400 37.0632 -0.2546
55.6600 37.0765 -0.2557
55.6800 37.0898 -0.2536
55.7000 37.1032 -0.2573
55.7200 37.1165 -0.2587
55.7400 37.1298 -0.2530
55.7600 37.1431 -0.2601
55.7800 37.1564 -0.2569
55.8000 37.1698 -0.2565
55.8200 37.1831 -0.2639
55.8400 37.1964 -0.2606
55.8600 37.2097 -0.2625
55.8800 37.2230 -0.2650
55.9000 37.2364 -0.2599
55.9200 37.2497 -0.2684
55.9400 37.2631 -0.2675
55.9600 37.2764 -0.2649
55.9800 37.2898 -0.2714
56.0000 37.3031 -0.2712
56.0200 37.3165 -0.2647
56.0400 37.3298 -0.2708
56.0600 37.3432 -0.2703
56.0800 37.3565 -0.2677
56.1000 37.3699 -0.2817
56.1200 37.3831 -0.2700
56.1400 37.3964 -0.2721
56.1600 37.4097 -0.2772
56.1800 37.4231 -0.2736
56.2000 37.4364 -0.2803
56.2200 37.4497 -0.2791
56.2400 37.4630 -0.2733
56.2600 37.4764 -0.2874
56.2800 37.4897 -0.2782
56.3000 37.5031 -0.2764
56.3200 37.5164 -0.2872
56.3400 37.5298 -0.2818
56.3600 37.5431 -0.2820
56.3800 37.5565 -0.2907
56.4000 37.5698 -0.2821
56.4200 37.5831 -0.2826
56.4400 37.5965 -0.2943
56.4600 37.6098 -0.2860
56.4800 37.6231 -0.2879
56.5000 37.6364 -0.2965
56.5200 37.6498 -0.2880
56.5400 37.6631 -0.2957
56.5600 37.6764 -0.2994
56.5800 37.6897 -0.2905
56.6000 37.7030 -0.2963
56.6200 37.7164 -0.3044
56.6400 37.7297 -0.2929
56.6600 37.7431 -0.2984
56.6800 37.7564 -0.3068
56.7000 37.7698 -0.2977
56.7200 37.7832 -0.3028
56.7400 37.7965 -0.3044
56.7600 37.8098 -0.3067
56.7800 37.8231 -0.3000
56.8000 37.8365 -0.3079
56.8200 37.8498 -0.3092
56.8400 37.8631 -0.3070
56.8600 37.8764 -0.3114
56.8800 37.8897 -0.3082
56.9000 37.9031 -0.3073
56.9200 37.9164 -0.3213
56.9400 37.9297 -0.3085
56.9600 37.9430 -0.3062
56.9800 37.9564 -0.3231
57.0000 37.9697 -0.3168
57.0200 37.9831 -0.3070
57.0400 37.9964 -0.3236
57.0600 38.0098 -0.3194
57.0800 38.0232 -0.3137
57.1000 38.0365 -0.3226
57.1200 38.0498 -0.3190
57.1400 38.0631 -0.3168
57.1600 38.0765 -0.3258
57.1800 38.0899 -0.3215
57.2000 38.1032 -0.3205
57.2200 38.1164 -0.3221
57.2400 38.1297 -0.3262
57.2600 38.1431 -0.3228
57.2800 38.1564 -0.3280
57.3000 38.1697 -0.3297
57.3200 38.1830 -0.3214
57.3400 38.1964 -0.3283
57.3600 38.2097 -0.3331
57.3800 38.2231 -0.3266
57.4000 38.2364 -0.3332
57.4200 38.2498 -0.3395
57.4400 38.2631 -0.3209
57.4600 38.2765 -0.3360
57.4800 38.2898 -0.3399
57.5000 38.3031 -0.3293
57.5200 38.3165 -0.3354
57.5400 38.3298 -0.3469
57.5600 38.3431 -0.3306
57.5800 38.3564 -0.3355
57.6000 38.3698 -0.3475
57.6200 38.3831 -0.3320
57.6400 38.3964 -0.3379
57.6600 38.4097 -0.3513
57.6800 38.4230 -0.3357
57.7000 38.4363 -0.3370
57.7200 38.4497 -0.3548
57.7400 38.4630 -0.3374
57.7600 38.4764 -0.3367
57.7800 38.4897 -0.3594
57.8000 38.5031 -0.3399
57.8200 38.5165 -0.3457
57.8400 38.5298 -0.3614
57.8600 38.5432 -0.3398
57.8800 38.5565 -0.3499
57.9000 38.5698 -0.3639
57.9200 38.5831 -0.3422
57.9400 38.5964 -0.3481
57.9600 38.6097 -0.3676
57.9800 38.6231 -0.3396
58.0000 38.6364 -0.3582
58.0200 38.6497 -0.3681
58.0400 38.6630 -0.3408
58.0600 38.6764 -0.3644
58.0800 38.6898 -0.3747
58.1000 38.7031 -0.3449
58.1200 38.7164 -0.3693
58.1400 38.7298 -0.3689
58.1600 38.7432 -0.3537
58.1800 38.7565 -0.3734
58.2000 38.7698 -0.3740
58.2200 38.7831 -0.3519
58.2400 38.7964 -0.3780
58.2600 38.8098 -0.3790
58.2800 38.8231 -0.3623
58.3000 38.8364 -0.3773
58.3200 38.8497 -0.3795
58.3400 38.8631 -0.3649
58.3600 38.8764 -0.3774
58.3800 38.8897 -0.3840
58.4000 38.9030 -0.3697
58.4200 38.9164 -0.3852
58.4400 38.9298 -0.3888
58.4600 38.9431 -0.3722
58.4800 38.9564 -0.3847
58.5000 38.9698 -0.3916
58.5200 38.9832 -0.3783
58.5400 38.9965 -0.3871
58.5600 39.0098 -0.3932
58.5800 39.0231 -0.3807
58.6000 39.0365 -0.3906
58.6200 39.0498 -0.4032
58.6400 39.0632 -0.3823
58.6600 39.0764 -0.3988
58.6800 39.0897 -0.4026
58.7000 39.1031 -0.3869
58.7200 39.1164 -0.4018
58.7400 39.1297 -0.4082
58.7600 39.1430 -0.3870
58.7800 39.1564 -0.4077
58.8000 39.1697 -0.4088
58.8200 39.1831 -0.3969
58.8400 39.1964 -0.4117
58.8600 39.2098 -0.4140
58.8800 39.2231 -0.3996
58.9000 39.2365 -0.4133
58.9200 39.2498 -0.4146
58.9400 39.2631 -0.4033
58.9600 39.2765 -0.4150
58.9800 39.2898 -0.4171
59.0000 39.3031 -0.4078
59.0200 39.3164 -0.4183
59.0400 39.3297 -0.4190
59.0600 39.3431 -0.4139
59.0800 39.3564 -0.4227
59.1000 39.3698 -0.4243
59.1200 39.3831 -0.4157
59.1400 39.3964 -0.4202
59.1600 39.4097 -0.4310
59.1800 39.4231 -0.4195
59.2000 39.4364 -0.4273
59.2200 39.4497 -0.4310
59.2400 39.4631 -0.4217
59.2600 39.4765 -0.4314
59.2800 39.4898 -0.4342
59.3000 39.5031 -0.4223
59.3200 39.5165 -0.4342
59.3400 39.5298 -0.4410
59.3600 39.5432 -0.4288
59.3800 39.5565 -0.4392
59.4000 39.5698 -0.4461
59.4200 39.5831 -0.4296
59.4400 39.5964 -0.4477
59.4600 39.6097 -0.4448
59.4800 39.6231 -0.4409
59.5000 39.6364 -0.4494
59.5200 39.6497 -0.4463
59.5400 39.6631 -0.4473
59.5600 39.6764 -0.4550
59.5800 39.6897 -0.4507
59.6000 39.7031 -0.4504
59.6200 39.7165 -0.4576
59.6400 39.7298 -0.4564
59.6600 39.7431 -0.4529
59.6800 39.7565 -0.4633
59.7000 39.7698 -0.4541
59.7200 39.7832 -0.4560
59.7400 39.7965 -0.4636
59.7600 39.8098 -0.4514
59.7800 39.8231 -0.4652
59.8000 39.8364 -0.4668
59.8200 39.8498 -0.4626
59.8400 39.8631 -0.4640
59.8600 39.8764 -0.4709
59.8800 39.8897 -0.4663
59.9000 39.9031 -0.4718
59.9200 39.9164 -0.4698
59.9400 39.9297 -0.4694
59.9600 39.9431 -0.4740
59.9800 39.9565 -0.4760
60.0000 39.9698 -0.4744
60.0200 39.9831 -0.4754
60.0400 39.9964 -0.4849
60.0460 40.0003 -0.5004
