Raw Data
Time Displacement Force
(s) (mm) (N)
0.0000 0.0000 0.2068
0.0200 0.0001 0.2303
0.0400 0.0021 0.2924
0.0600 0.0098 0.2804
0.0800 0.0218 0.2072
0.1000 0.0343 0.2055
0.1200 0.0470 0.2369
0.1400 0.0603 0.2190
0.1600 0.0743 0.2150
0.1800 0.0884 0.2136
0.2000 0.1024 0.2079
0.2200 0.1160 0.2108
0.2400 0.1293 0.2097
0.2600 0.1426 0.2104
0.2800 0.1559 0.2150
0.3000 0.1693 0.2075
0.3200 0.1827 0.2048
0.3400 0.1960 0.2176
0.3600 0.2094 0.2022
0.3800 0.2227 0.2117
0.4000 0.2361 0.2096
0.4200 0.2494 0.1966
0.4400 0.2627 0.2080
0.4600 0.2760 0.2063
0.4800 0.2894 0.1931
0.5000 0.3027 0.2065
0.5200 0.3160 0.1918
0.5400 0.3293 0.1914
0.5600 0.3427 0.2010
0.5800 0.3560 0.1841
0.6000 0.3694 0.1801
0.6200 0.3827 0.1973
0.6400 0.3960 0.1812
0.6600 0.4094 0.1747
0.6800 0.4228 0.1874
0.7000 0.4361 0.1715
0.7200 0.4494 0.1727
0.7400 0.4628 0.1758
0.7600 0.4761 0.1643
0.7800 0.4894 0.1697
0.8000 0.5027 0.1658
0.8200 0.5161 0.1557
0.8400 0.5294 0.1648
0.8600 0.5427 0.1599
0.8800 0.5560 0.1511
0.9000 0.5693 0.1544
0.9200 0.5826 0.1605
0.9400 0.5960 0.1444
0.9600 0.6093 0.1481
0.9800 0.6227 0.1514
1.0000 0.6360 0.1448
1.0200 0.6494 0.1426
1.0400 0.6628 0.1459
1.0600 0.6761 0.1409
1.0800 0.6894 0.1392
1.1000 0.7027 0.1406
1.1200 0.7161 0.1366
1.1400 0.7294 0.1335
1.1600 0.7427 0.1357
1.1800 0.7560 0.1328
1.2000 0.7694 0.1256
1.2200 0.7827 0.1304
1.2400 0.7961 0.1295
1.2600 0.8094 0.1178
1.2800 0.8227 0.1213
1.3000 0.8360 0.1226
1.3200 0.8494 0.1146
1.3400 0.8627 0.1155
1.3600 0.8760 0.1183
1.3800 0.8894 0.1098
1.4000 0.9027 0.1139
1.4200 0.9161 0.1113
1.4400 0.9294 0.1068
1.4600 0.9427 0.1092
1.4800 0.9561 0.1018
1.5000 0.9695 0.1015
1.5200 0.9828 0.1023
1.5400 0.9960 0.1050
1.5600 1.0094 0.0941
1.5800 1.0227 0.0946
1.6000 1.0360 0.0936
1.6200 1.0493 0.0928
1.6400 1.0626 0.0917
1.6600 1.0760 0.0893
1.6800 1.0894 0.0876
1.7000 1.1027 0.0846
1.7200 1.1161 0.0858
1.7400 1.1294 0.0850
1.7600 1.1428 0.0775
1.7800 1.1561 0.0842
1.8000 1.1694 0.0771
1.8200 1.1827 0.0745
1.8400 1.1961 0.0845
1.8600 1.2095 0.0732
1.8800 1.2228 0.0701
1.9000 1.2361 0.0840
1.9200 1.2494 0.0736
1.9400 1.2627 0.0643
1.9600 1.2761 0.0801
1.9800 1.2894 0.0630
2.0000 1.3027 0.0673
2.0200 1.3160 0.0757
2.0400 1.3293 0.0542
2.0600 1.3427 0.0686
2.0800 1.3560 0.0701
2.1000 1.3694 0.0475
2.1200 1.3828 0.0613
2.1400 1.3961 0.0617
2.1600 1.4094 0.0452
2.1800 1.4228 0.0581
2.2000 1.4361 0.0566
2.2200 1.4494 0.0418
2.2400 1.4627 0.0564
2.2600 1.4760 0.0480
2.2800 1.4893 0.0417
2.3000 1.5027 0.0547
2.3200 1.5160 0.0449
2.3400 1.5293 0.0355
2.3600 1.5427 0.0520
2.3800 1.5561 0.0403
2.4000 1.5694 0.0330
2.4200 1.5827 0.0418
2.4400 1.5961 0.0333
2.4600 1.6094 0.0330
2.4800 1.6228 0.0369
2.5000 1.6361 0.0316
2.5200 1.6494 0.0277
2.5400 1.6627 0.0317
2.5600 1.6761 0.0269
2.5800 1.6894 0.0192
2.6000 1.7028 0.0264
2.6200 1.7161 0.0236
2.6400 1.7294 0.0196
2.6600 1.7428 0.0155
2.6800 1.7561 0.0141
2.7000 1.7694 0.0184
2.7200 1.7827 0.0063
2.7400 1.7960 0.0170
2.7600 1.8094 0.0100
2.7800 1.8227 0.0069
2.8000 1.8360 0.0130
2.8200 1.8493 0.0087
2.8400 1.8627 0.0048
2.8600 1.8761 0.0044
2.8800 1.8894 0.0009
2.9000 1.9027 0.0066
2.9200 1.9161 0.0054
2.9400 1.9294 0.0034
2.9600 1.9428 0.0019
2.9800 1.9561 -0.0018
3.0000 1.9694 -0.0005
3.0200 1.9827 -0.0021
3.0400 1.9961 -0.0067
3.0600 2.0094 -0.0018
3.0800 2.0227 -0.0032
3.1000 2.0360 -0.0121
3.1200 2.0494 -0.0020
3.1400 2.0627 -0.0078
3.1600 2.0760 -0.0161
3.1800 2.0894 -0.0060
3.2000 2.1028 -0.0114
3.2200 2.1161 -0.0222
3.2400 2.1294 -0.0090
3.2600 2.1428 -0.0165
3.2800 2.1561 -0.0201
3.3000 2.1695 -0.0114
3.3200 2.1828 -0.0168
3.3400 2.1960 -0.0237
3.3600 2.2094 -0.0166
3.3800 2.2227 -0.0226
3.4000 2.2361 -0.0248
3.4200 2.2494 -0.0214
3.4400 2.2627 -0.0239
3.4600 2.2760 -0.0291
3.4800 2.2894 -0.0248
3.5000 2.3027 -0.0298
3.5200 2.3161 -0.0312
3.5400 2.3294 -0.0246
3.5600 2.3428 -0.0344
3.5800 2.3561 -0.0397
3.6000 2.3694 -0.0260
3.6200 2.3828 -0.0394
3.6400 2.3961 -0.0400
3.6600 2.4095 -0.0331
3.6800 2.4228 -0.0425
3.7000 2.4361 -0.0462
3.7200 2.4494 -0.0363
3.7400 2.4627 -0.0471
3.7600 2.4761 -0.0543
3.7800 2.4893 -0.0427
3.8000 2.5026 -0.0521
3.8200 2.5160 -0.0552
3.8400 2.5293 -0.0481
3.8600 2.5427 -0.0549
3.8800 2.5560 -0.0610
3.9000 2.5694 -0.0480
3.9200 2.5828 -0.0554
3.9400 2.5961 -0.0565
3.9600 2.6095 -0.0590
3.9800 2.6227 -0.0602
4.0000 2.6361 -0.0603
4.0200 2.6494 -0.0663
4.0400 2.6628 -0.0620
4.0600 2.6761 -0.0623
4.0800 2.6894 -0.0682
4.1000 2.7027 -0.0644
4.1200 2.7161 -0.0668
4.1400 2.7294 -0.0679
4.1600 2.7427 -0.0710
4.1800 2.7560 -0.0697
4.2000 2.7693 -0.0752
4.2200 2.7827 -0.0773
4.2400 2.7960 -0.0717
4.2600 2.8094 -0.0756
4.2800 2.8227 -0.0784
4.3000 2.8361 -0.0788
4.3200 2.8494 -0.0776
4.3400 2.8627 -0.0821
4.3600 2.8761 -0.0827
4.3800 2.8895 -0.0853
4.4000 2.9028 -0.0893
4.4200 2.9161 -0.0848
4.4400 2.9294 -0.0918
4.4600 2.9427 -0.0904
4.4800 2.9560 -0.0872
4.5000 2.9694 -0.0948
4.5200 2.9827 -0.0861
4.5400 2.9960 -0.0944
4.5600 3.0094 -0.0964
4.5800 3.0227 -0.0982
4.6000 3.0360 -0.0953
4.6200 3.0494 -0.0998
4.6400 3.0627 -0.0982
4.6600 3.0761 -0.1110
4.6800 3.0894 -0.0998
4.7000 3.1027 -0.0920
4.7200 3.1161 -0.1071
4.7400 3.1294 -0.1035
4.7600 3.1428 -0.0968
4.7800 3.1561 -0.1163
4.8000 3.1694 -0.1041
4.8200 3.1828 -0.1002
4.8400 3.1961 -0.1135
4.8600 3.2094 -0.1111
4.8800 3.2227 -0.1033
4.9000 3.2360 -0.1128
4.9200 3.2493 -0.1105
4.9400 3.2627 -0.1095
4.9600 3.2760 -0.1225
4.9800 3.2894 -0.1129
5.0000 3.3028 -0.1090
5.0200 3.3162 -0.1238
5.0400 3.3295 -0.1158
5.0600 3.3428 -0.1108
5.0800 3.3561 -0.1253
5.1000 3.3695 -0.1168
5.1200 3.3828 -0.1121
5.1400 3.3961 -0.1280
5.1600 3.4094 -0.1215
5.1800 3.4227 -0.1164
5.2000 3.4361 -0.1363
5.2200 3.4494 -0.1217
5.2400 3.4627 -0.1227
5.2600 3.4760 -0.1427
5.2800 3.4893 -0.1269
5.3000 3.5027 -0.1182
5.3200 3.5160 -0.1488
5.3400 3.5294 -0.1323
5.3600 3.5428 -0.1273
5.3800 3.5561 -0.1537
5.4000 3.5695 -0.1364
5.4200 3.5828 -0.1327
5.4400 3.5961 -0.1547
5.4600 3.6095 -0.1332
5.4800 3.6228 -0.1422
5.5000 3.6361 -0.1553
5.5200 3.6494 -0.1265
5.5400 3.6627 -0.1413
5.5600 3.6760 -0.1647
5.5800 3.6894 -0.1371
5.6000 3.7027 -0.1411
5.6200 3.7160 -0.1660
5.6400 3.7293 -0.1434
5.6600 3.7427 -0.1484
5.6800 3.7561 -0.1621
5.7000 3.7694 -0.1430
5.7200 3.7827 -0.1475
5.7400 3.7961 -0.1695
5.7600 3.8094 -0.1504
5.7800 3.8227 -0.1574
5.8000 3.8361 -0.1653
5.8200 3.8494 -0.1492
5.8400 3.8628 -0.1631
5.8600 3.8761 -0.1748
5.8800 3.8894 -0.1402
5.9000 3.9027 -0.1601
5.9200 3.9161 -0.1724
5.9400 3.9294 -0.1543
5.9600 3.9427 -0.1690
5.9800 3.9560 -0.1698
6.0000 3.9693 -0.1545
6.0200 3.9827 -0.1774
6.0400 3.9960 -0.1722
6.0600 4.0094 -0.1556
6.0800 4.0228 -0.1764
6.1000 4.0361 -0.1741
6.1200 4.0495 -0.1568
6.1400 4.0628 -0.1808
6.1600 4.0761 -0.1741
6.1800 4.0894 -0.1667
6.2000 4.1028 -0.1818
6.2200 4.1161 -0.1766
6.2400 4.1294 -0.1735
6.2600 4.1427 -0.1773
6.2800 4.1561 -0.1775
6.3000 4.1694 -0.1779
6.3200 4.1827 -0.1839
6.3400 4.1960 -0.1745
6.3600 4.2093 -0.1864
6.3800 4.2227 -0.1837
6.4000 4.2360 -0.1845
6.4200 4.2494 -0.1851
6.4400 4.2627 -0.1841
6.4600 4.2761 -0.1919
6.4800 4.2894 -0.1875
6.5000 4.3027 -0.1767
6.5200 4.3161 -0.1979
6.5400 4.3295 -0.1899
6.5600 4.3428 -0.1867
6.5800 4.3561 -0.2014
6.6000 4.3694 -0.1895
6.6200 4.3827 -0.1831
6.6400 4.3960 -0.2046
6.6600 4.4094 -0.1908
6.6800 4.4227 -0.1897
6.7000 4.4360 -0.2035
6.7200 4.4493 -0.1865
6.7400 4.4627 -0.1946
6.7600 4.4760 -0.2078
6.7800 4.4893 -0.1904
6.8000 4.5027 -0.2030
6.8200 4.5161 -0.2093
6.8400 4.5295 -0.1950
6.8600 4.5428 -0.2043
6.8800 4.5561 -0.2031
6.9000 4.5694 -0.1988
6.9200 4.5828 -0.2080
6.9400 4.5961 -0.2018
6.9600 4.6094 -0.2003
6.9800 4.6227 -0.2165
7.0000 4.6361 -0.2085
7.0200 4.6494 -0.2065
7.0400 4.6627 -0.2178
7.0600 4.6760 -0.2074
7.0800 4.6893 -0.2066
7.1000 4.7026 -0.2171
7.1200 4.7160 -0.2038
7.1400 4.7293 -0.2166
7.1600 4.7427 -0.2148
7.1800 4.7561 -0.2156
7.2000 4.7695 -0.2162
7.2200 4.7828 -0.2172
7.2400 4.7961 -0.2214
7.2600 4.8095 -0.2182
7.2800 4.8228 -0.2186
7.3000 4.8361 -0.2217
7.3200 4.8494 -0.2186
7.3400 4.8627 -0.2244
7.3600 4.8760 -0.2242
7.3800 4.8893 -0.2210
7.4000 4.9027 -0.2300
7.4200 4.9160 -0.2252
7.4400 4.9294 -0.2208
7.4600 4.9427 -0.2301
7.4800 4.9561 -0.2298
7.5000 4.9694 -0.2221
7.5200 4.9828 -0.2286
7.5400 4.9961 -0.2314
7.5600 5.0095 -0.2321
7.5800 5.0228 -0.2325
7.6000 5.0361 -0.2310
7.6200 5.0494 -0.2316
7.6400 5.0628 -0.2393
7.6600 5.0761 -0.2280
7.6800 5.0894 -0.2311
7.7000 5.1027 -0.2392
7.7200 5.1160 -0.2350
7.7400 5.1294 -0.2313
7.7600 5.1427 -0.2469
7.7800 5.1560 -0.2331
7.8000 5.1693 -0.2315
7.8200 5.1827 -0.2497
7.8400 5.1960 -0.2399
7.8600 5.2094 -0.2347
7.8800 5.2227 -0.2479
7.9000 5.2361 -0.2388
7.9200 5.2494 -0.2408
7.9400 5.2628 -0.2486
7.9600 5.2761 -0.2410
7.9800 5.2894 -0.2486
8.0000 5.3028 -0.2509
8.0200 5.3161 -0.2377
8.0400 5.3294 -0.2530
8.0600 5.3427 -0.2519
8.0800 5.3561 -0.2401
8.1000 5.3694 -0.2559
8.1200 5.3827 -0.2524
8.1400 5.3960 -0.2443
8.1600 5.4093 -0.2598
8.1800 5.4227 -0.2584
8.2000 5.4360 -0.2500
8.2200 5.4494 -0.2649
8.2400 5.4627 -0.2567
8.2600 5.4761 -0.2499
8.2800 5.4895 -0.2648
8.3000 5.5028 -0.2636
8.3200 5.5161 -0.2529
8.3400 5.5294 -0.2633
8.3600 5.5428 -0.2599
8.3800 5.5561 -0.2613
8.4000 5.5694 -0.2650
8.4200 5.5827 -0.2588
8.4400 5.5961 -0.2634
8.4600 5.6094 -0.2685
8.4800 5.6227 -0.2580
8.5000 5.6360 -0.2641
8.5200 5.6493 -0.2673
8.5400 5.6627 -0.2648
8.5600 5.6760 -0.2645
8.5800 5.6894 -0.2646
8.6000 5.7027 -0.2685
8.6200 5.7161 -0.2706
8.6400 5.7294 -0.2687
8.6600 5.7427 -0.2638
8.6800 5.7561 -0.2727
8.7000 5.7694 -0.2728
8.7200 5.7828 -0.2690
8.7400 5.7961 -0.2690
8.7600 5.8094 -0.2730
8.7800 5.8227 -0.2759
8.8000 5.8361 -0.2740
8.8200 5.8494 -0.2742
8.8400 5.8627 -0.2837
8.8600 5.8760 -0.2807
8.8800 5.8893 -0.2749
8.9000 5.9027 -0.2746
8.9200 5.9161 -0.2886
8.9400 5.9294 -0.2791
8.9600 5.9428 -0.2859
8.9800 5.9561 -0.2806
9.0000 5.9695 -0.2860
9.0200 5.9828 -0.2983
9.0400 5.9961 -0.2851
9.0600 6.0094 -0.2829
9.0800 6.0228 -0.2939
9.1000 6.0361 -0.2895
9.1200 6.0494 -0.2981
9.1400 6.0627 -0.2871
9.1600 6.0760 -0.2879
9.1800 6.0894 -0.3078
9.2000 6.1027 -0.2956
9.2200 6.1160 -0.2806
9.2400 6.1293 -0.3116
9.2600 6.1427 -0.3009
9.2800 6.1560 -0.2859
9.3000 6.1694 -0.3077
9.3200 6.1827 -0.2944
9.3400 6.1961 -0.2984
9.3600 6.2095 -0.3125
9.3800 6.2228 -0.2908
9.4000 6.2361 -0.2982
9.4200 6.2494 -0.3167
9.4400 6.2628 -0.3013
9.4600 6.2761 -0.2978
9.4800 6.2894 -0.3131
9.5000 6.3027 -0.3094
9.5200 6.3160 -0.3031
9.5400 6.3293 -0.3105
9.5600 6.3427 -0.3057
9.5800 6.3560 -0.3137
9.6000 6.3693 -0.3093
9.6200 6.3827 -0.3071
9.6400 6.3961 -0.3121
9.6600 6.4094 -0.3141
9.6800 6.4227 -0.3172
9.7000 6.4361 -0.3112
9.7200 6.4494 -0.3148
9.7400 6.4628 -0.3236
9.7600 6.4761 -0.3149
9.7800 6.4894 -0.3168
9.8000 6.5028 -0.3220
9.8200 6.5161 -0.3145
9.8400 6.5294 -0.3152
9.8600 6.5427 -0.3272
9.8800 6.5561 -0.3164
9.9000 6.5694 -0.3209
9.9200 6.5827 -0.3306
9.9400 6.5960 -0.3110
9.9600 6.6094 -0.3199
9.9800 6.6227 -0.3288
10.0000 6.6360 -0.3154
10.0200 6.6493 -0.3121
10.0400 6.6627 -0.3275
10.0600 6.6760 -0.3180
10.0800 6.6894 -0.3195
10.1000 6.7028 -0.3278
10.1200 6.7161 -0.3177
10.1400 6.7294 -0.3198
10.1600 6.7428 -0.3275
10.1800 6.7561 -0.3131
10.2000 6.7694 -0.3218
10.2200 6.7827 -0.3256
10.2400 6.7961 -0.3134
10.2600 6.8094 -0.3217
10.2800 6.8227 -0.3288
10.3000 6.8360 -0.3151
10.3200 6.8493 -0.3205
10.3400 6.8627 -0.3286
10.3600 6.8760 -0.3162
10.3800 6.8894 -0.3221
10.4000 6.9027 -0.3274
10.4200 6.9161 -0.3180
10.4400 6.9294 -0.3218
10.4600 6.9428 -0.3276
10.4800 6.9561 -0.3228
10.5000 6.9694 -0.3209
10.5200 6.9828 -0.3305
10.5400 6.9961 -0.3310
10.5600 7.0094 -0.3231
10.5800 7.0227 -0.3283
10.6000 7.0360 -0.3306
10.6200 7.0494 -0.3274
10.6400 7.0627 -0.3317
10.6600 7.0760 -0.3309
10.6800 7.0894 -0.3261
10.7000 7.1027 -0.3363
10.7200 7.1161 -0.3299
10.7400 7.1294 -0.3314
10.7600 7.1427 -0.3364
10.7800 7.1560 -0.3321
10.8000 7.1694 -0.3259
10.8200 7.1827 -0.3389
10.8400 7.1961 -0.3353
10.8600 7.2094 -0.3279
10.8800 7.2228 -0.3361
10.9000 7.2361 -0.3415
10.9200 7.2494 -0.3359
10.9400 7.2627 -0.3378
10.9600 7.2760 -0.3365
10.9800 7.2894 -0.3371
11.0000 7.3027 -0.3421
11.0200 7.3160 -0.3365
11.0400 7.3293 -0.3390
11.0600 7.3427 -0.3435
11.0800 7.3560 -0.3474
11.1000 7.3694 -0.3418
11.1200 7.3827 -0.3412
11.1400 7.3961 -0.3563
11.1600 7.4095 -0.3522
11.1800 7.4228 -0.3425
11.2000 7.4361 -0.3530
11.2200 7.4494 -0.3556
11.2400 7.4628 -0.3497
11.2600 7.4761 -0.3572
11.2800 7.4894 -0.3585
11.3000 7.5027 -0.3471
11.3200 7.5161 -0.3681
11.3400 7.5294 -0.3580
11.3600 7.5427 -0.3554
11.3800 7.5560 -0.3712
11.4000 7.5694 -0.3611
11.4200 7.5827 -0.3574
11.4400 7.5960 -0.3754
11.4600 7.6094 -0.3659
11.4800 7.6227 -0.3640
11.5000 7.6361 -0.3756
11.5200 7.6494 -0.3667
11.5400 7.6628 -0.3670
11.5600 7.6761 -0.3847
11.5800 7.6894 -0.3661
11.6000 7.7028 -0.3721
11.6200 7.7161 -0.3797
11.6400 7.7294 -0.3668
11.6600 7.7427 -0.3704
11.6800 7.7560 -0.3805
11.7000 7.7694 -0.3702
11.7200 7.7827 -0.3753
11.7400 7.7960 -0.3822
11.7600 7.8093 -0.3643
11.7800 7.8227 -0.3812
11.8000 7.8360 -0.3815
11.8200 7.8494 -0.3640
11.8400 7.8627 -0.3791
11.8600 7.8760 -0.3835
11.8800 7.8894 -0.3701
11.9000 7.9027 -0.3791
11.9200 7.9160 -0.3760
11.9400 7.9294 -0.3719
11.9600 7.9427 -0.3869
11.9800 7.9561 -0.3754
12.0000 7.9694 -0.3659
12.0200 7.9827 -0.3874
12.0400 7.9961 -0.3774
12.0600 8.0094 -0.3762
12.0800 8.0228 -0.3819
12.1000 8.0360 -0.3740
12.1200 8.0493 -0.3771
12.1400 8.0626 -0.3857
12.1600 8.0760 -0.3740
12.1800 8.0893 -0.3764
12.2000 8.1027 -0.3848
12.2200 8.1160 -0.3744
12.2400 8.1295 -0.3819
12.2600 8.1428 -0.3861
12.2800 8.1561 -0.3813
12.3000 8.1695 -0.3817
12.3200 8.1828 -0.3797
12.3400 8.1961 -0.3783
12.3600 8.2094 -0.3891
12.3800 8.2227 -0.3806
12.4000 8.2360 -0.3808
12.4200 8.2494 -0.3859
12.4400 8.2627 -0.3873
12.4600 8.2760 -0.3854
12.4800 8.2893 -0.3873
12.5000 8.3026 -0.3872
12.5200 8.3160 -0.3906
12.5400 8.3294 -0.3844
12.5600 8.3427 -0.3838
12.5800 8.3561 -0.3893
12.6000 8.3694 -0.3883
12.6200 8.3828 -0.3844
12.6400 8.3961 -0.4006
12.6600 8.4095 -0.3858
12.6800 8.4228 -0.3836
12.7000 8.4361 -0.3936
12.7200 8.4494 -0.3849
12.7400 8.4627 -0.3870
12.7600 8.4760 -0.3947
12.7800 8.4894 -0.3857
12.8000 8.5027 -0.3909
12.8200 8.5160 -0.3922
12.8400 8.5293 -0.3906
12.8600 8.5427 -0.3954
12.8800 8.5560 -0.3924
12.9000 8.5694 -0.3893
12.9200 8.5827 -0.3983
12.9400 8.5961 -0.3924
12.9600 8.6094 -0.3855
12.9800 8.6228 -0.3994
13.0000 8.6361 -0.4006
13.0200 8.6494 -0.3890
13.0400 8.6628 -0.4002
13.0600 8.6761 -0.4013
13.0800 8.6895 -0.3914
13.1000 8.7028 -0.4043
13.1200 8.7161 -0.3938
13.1400 8.7294 -0.3970
13.1600 8.7427 -0.4071
13.1800 8.7560 -0.3945
13.2000 8.7693 -0.3985
13.2200 8.7826 -0.4098
13.2400 8.7960 -0.3929
13.2600 8.8094 -0.4072
13.2800 8.8227 -0.4090
13.3000 8.8361 -0.3972
13.3200 8.8495 -0.4098
13.3400 8.8628 -0.4105
13.3600 8.8761 -0.3983
13.3800 8.8894 -0.4158
13.4000 8.9028 -0.4099
13.4200 8.9161 -0.4089
13.4400 8.9294 -0.4186
13.4600 8.9427 -0.4097
13.4800 8.9560 -0.4104
13.5000 8.9694 -0.4234
13.5200 8.9827 -0.4093
13.5400 8.9960 -0.4150
13.5600 9.0094 -0.4255
13.5800 9.0227 -0.4095
13.6000 9.0360 -0.4200
13.6200 9.0493 -0.4272
13.6400 9.0627 -0.4140
13.6600 9.0760 -0.4226
13.6800 9.0894 -0.4310
13.7000 9.1028 -0.4152
13.7200 9.1161 -0.4239
13.7400 9.1294 -0.4258
13.7600 9.1428 -0.4189
13.7800 9.1561 -0.4242
13.8000 9.1695 -0.4318
13.8200 9.1828 -0.4213
13.8400 9.1960 -0.4283
13.8600 9.2094 -0.4361
13.8800 9.2227 -0.4245
13.9000 9.2360 -0.4251
13.9200 9.2493 -0.4367
13.9400 9.2627 -0.4232
13.9600 9.2760 -0.4294
13.9800 9.2894 -0.4373
14.0000 9.3027 -0.4269
14.0200 9.3160 -0.4307
14.0400 9.3294 -0.4404
14.0600 9.3428 -0.4287
14.0800 9.3561 -0.4325
14.1000 9.3694 -0.4420
14.1200 9.3828 -0.4331
14.1400 9.3961 -0.4371
14.1600 9.4094 -0.4384
14.1800 9.4227 -0.4313
14.2000 9.4361 -0.4341
14.2200 9.4494 -0.4451
14.2400 9.4628 -0.4315
14.2600 9.4760 -0.4380
14.2800 9.4893 -0.4474
14.3000 9.5026 -0.4329
14.3200 9.5160 -0.4397
14.3400 9.5293 -0.4534
14.3600 9.5426 -0.4362
14.3800 9.5560 -0.4370
14.4000 9.5694 -0.4511
14.4200 9.5828 -0.4443
14.4400 9.5961 -0.4411
14.4600 9.6095 -0.4505
14.4800 9.6228 -0.4355
14.5000 9.6361 -0.4501
14.5200 9.6494 -0.4566
14.5400 9.6627 -0.4393
14.5600 9.6760 -0.4461
14.5800 9.6893 -0.4530
14.6000 9.7027 -0.4421
14.6200 9.7160 -0.4449
14.6400 9.7293 -0.4499
14.6600 9.7427 -0.4451
14.6800 9.7561 -0.4507
14.7000 9.7694 -0.4538
14.7200 9.7827 -0.4505
14.7400 9.7961 -0.4517
14.7600 9.8094 -0.4575
14.7800 9.8228 -0.4531
14.8000 9.8361 -0.4508
14.8200 9.8494 -0.4576
14.8400 9.8627 -0.4498
14.8600 9.8761 -0.4505
14.8800 9.8894 -0.4640
14.9000 9.9027 -0.4531
14.9200 9.9160 -0.4568
14.9400 9.9294 -0.4569
14.9600 9.9427 -0.4581
14.9800 9.9560 -0.4564
15.0000 9.9693 -0.4602
15.0200 9.9827 -0.4561
15.0400 9.9960 -0.4594
15.0600 10.0094 -0.4586
15.0800 10.0227 -0.4562
15.1000 10.0361 -0.4610
15.1200 10.0494 -0.4678
15.1400 10.0628 -0.4593
15.1600 10.0761 -0.4642
15.1800 10.0894 -0.4664
15.2000 10.1027 -0.4632
15.2200 10.1161 -0.4609
15.2400 10.1294 -0.4654
15.2600 10.1428 -0.4631
15.2800 10.1561 -0.4625
15.3000 10.1694 -0.4686
15.3200 10.1827 -0.4648
15.3400 10.1960 -0.4656
15.3600 10.2093 -0.4686
15.3800 10.2226 -0.4662
15.4000 10.2360 -0.4683
15.4200 10.2493 -0.4725
15.4400 10.2627 -0.4604
15.4600 10.2760 -0.4636
15.4800 10.2894 -0.4749
15.5000 10.3028 -0.4681
15.5200 10.3161 -0.4658
15.5400 10.3295 -0.4805
15.5600 10.3428 -0.4670
15.5800 10.3561 -0.4676
15.6000 10.3695 -0.4767
15.6200 10.3827 -0.4678
15.6400 10.3960 -0.4669
15.6600 10.4094 -0.4759
15.6800 10.4227 -0.4675
15.7000 10.4360 -0.4697
15.7200 10.4494 -0.4825
15.7400 10.4627 -0.4732
15.7600 10.4760 -0.4670
15.7800 10.4894 -0.4862
15.8000 10.5027 -0.4705
15.8200 10.5160 -0.4694
15.8400 10.5294 -0.4824
15.8600 10.5427 -0.4716
15.8800 10.5561 -0.4691
15.9000 10.5694 -0.4837
15.9200 10.5827 -0.4739
15.9400 10.5961 -0.4720
15.9600 10.6095 -0.4878
15.9800 10.6228 -0.4730
16.0000 10.6361 -0.4719
16.0200 10.6494 -0.4851
16.0400 10.6627 -0.4774
16.0600 10.6760 -0.4743
16.0800 10.6893 -0.4850
16.1000 10.7027 -0.4784
16.1200 10.7160 -0.4718
16.1400 10.7294 -0.4886
16.1600 10.7427 -0.4812
16.1800 10.7560 -0.4741
16.2000 10.7694 -0.4903
16.2200 10.7828 -0.4798
16.2400 10.7961 -0.4771
16.2600 10.8094 -0.4902
16.2800 10.8227 -0.4804
16.3000 10.8361 -0.4760
16.3200 10.8495 -0.4955
16.3400 10.8628 -0.4825
16.3600 10.8761 -0.4768
16.3800 10.8894 -0.4947
16.4000 10.9027 -0.4874
16.4200 10.9161 -0.4824
16.4400 10.9294 -0.4934
16.4600 10.9427 -0.4818
16.4800 10.9560 -0.4892
16.5000 10.9694 -0.4929
16.5200 10.9827 -0.4830
16.5400 10.9960 -0.4945
16.5600 11.0094 -0.4961
16.5800 11.0228 -0.4876
16.6000 11.0361 -0.4945
16.6200 11.0494 -0.4963
16.6400 11.0628 -0.4900
16.6600 11.0761 -0.4969
16.6800 11.0894 -0.4942
16.7000 11.1027 -0.4953
16.7200 11.1160 -0.4949
16.7400 11.1293 -0.4954
16.7600 11.1427 -0.4997
16.7800 11.1560 -0.5014
16.8000 11.1693 -0.4899
16.8200 11.1827 -0.5048
16.8400 11.1960 -0.4998
16.8600 11.2094 -0.4942
16.8800 11.2227 -0.5100
16.9000 11.2361 -0.5017
16.9200 11.2494 -0.4925
16.9400 11.2628 -0.5114
16.9600 11.2761 -0.5016
16.9800 11.2894 -0.5030
17.0000 11.3027 -0.5065
17.0200 11.3161 -0.5010
17.0400 11.3294 -0.5078
17.0600 11.3428 -0.5067
17.0800 11.3561 -0.4963
17.1000 11.3694 -0.5107
17.1200 11.3827 -0.5120
17.1400 11.3961 -0.4967
17.1600 11.4094 -0.5095
17.1800 11.4227 -0.5103
17.2000 11.4360 -0.5018
17.2200 11.4494 -0.5091
17.2400 11.4627 -0.5107
17.2600 11.4760 -0.5077
17.2800 11.4894 -0.5102
17.3000 11.5027 -0.5092
17.3200 11.5161 -0.5127
17.3400 11.5294 -0.5075
17.3600 11.5427 -0.5114
17.3800 11.5561 -0.5124
17.4000 11.5694 -0.5133
17.4200 11.5828 -0.5146
17.4400 11.5961 -0.5183
17.4600 11.6094 -0.5098
17.4800 11.6228 -0.5143
17.5000 11.6361 -0.5198
17.5200 11.6494 -0.5121
17.5400 11.6627 -0.5114
17.5600 11.6760 -0.5187
17.5800 11.6893 -0.5149
17.6000 11.7027 -0.5174
17.6200 11.7160 -0.5228
17.6400 11.7294 -0.5167
17.6600 11.7428 -0.5178
17.6800 11.7561 -0.5233
17.7000 11.7694 -0.5117
17.7200 11.7828 -0.5224
17.7400 11.7961 -0.5217
17.7600 11.8095 -0.5103
17.7800 11.8228 -0.5244
17.8000 11.8361 -0.5202
17.8200 11.8494 -0.5162
17.8400 11.8627 -0.5245
17.8600 11.8760 -0.5281
17.8800 11.8894 -0.5141
17.9000 11.9027 -0.5222
17.9200 11.9160 -0.5256
17.9400 11.9294 -0.5204
17.9600 11.9427 -0.5231
17.9800 11.9561 -0.5268
18.0000 11.9694 -0.5275
18.0200 11.9827 -0.5184
18.0400 11.9961 -0.5270
18.0600 12.0094 -0.5320
18.0800 12.0227 -0.5118
18.1000 12.0361 -0.5328
18.1200 12.0495 -0.5280
18.1400 12.0628 -0.5092
18.1600 12.0761 -0.5328
18.1800 12.0894 -0.5263
18.2000 12.1027 -0.5155
18.2200 12.1161 -0.5422
18.2400 12.1294 -0.5292
18.2600 12.1427 -0.5157
18.2800 12.1560 -0.5438
18.3000 12.1693 -0.5256
18.3200 12.1827 -0.5179
18.3400 12.1960 -0.5440
18.3600 12.2094 -0.5249
18.3800 12.2228 -0.5192
18.4000 12.2361 -0.5531
18.4200 12.2495 -0.5261
18.4400 12.2628 -0.5240
18.4600 12.2761 -0.5535
18.4800 12.2894 -0.5284
18.5000 12.3028 -0.5246
18.5200 12.3161 -0.5510
18.5400 12.3294 -0.5228
18.5600 12.3427 -0.5341
18.5800 12.3561 -0.5525
18.6000 12.3694 -0.5251
18.6200 12.3827 -0.5351
18.6400 12.3960 -0.5544
18.6600 12.4094 -0.5261
18.6800 12.4227 -0.5426
18.7000 12.4360 -0.5539
18.7200 12.4494 -0.5258
18.7400 12.4628 -0.5446
18.7600 12.4761 -0.5561
18.7800 12.4894 -0.5300
18.8000 12.5027 -0.5489
18.8200 12.5161 -0.5536
18.8400 12.5294 -0.5302
18.8600 12.5428 -0.5525
18.8800 12.5561 -0.5550
18.9000 12.5693 -0.5308
18.9200 12.5827 -0.5495
18.9400 12.5960 -0.5509
18.9600 12.6094 -0.5369
18.9800 12.6227 -0.5578
19.0000 12.6360 -0.5510
19.0200 12.6494 -0.5435
19.0400 12.6627 -0.5559
19.0600 12.6760 -0.5548
19.0800 12.6893 -0.5408
19.1000 12.7027 -0.5571
19.1200 12.7161 -0.5516
19.1400 12.7294 -0.5484
19.1600 12.7427 -0.5532
19.1800 12.7561 -0.5582
19.2000 12.7694 -0.5534
19.2200 12.7828 -0.5515
19.2400 12.7961 -0.5563
19.2600 12.8094 -0.5572
19.2800 12.8228 -0.5505
19.3000 12.8361 -0.5640
19.3200 12.8494 -0.5551
19.3400 12.8627 -0.5502
19.3600 12.8760 -0.5641
19.3800 12.8893 -0.5606
19.4000 12.9027 -0.5528
19.4200 12.9160 -0.5693
19.4400 12.9293 -0.5551
19.4600 12.9427 -0.5544
19.4800 12.9561 -0.5725
19.5000 12.9695 -0.5593
19.5200 12.9828 -0.5538
19.5400 12.9961 -0.5699
19.5600 13.0095 -0.5605
19.5800 13.0228 -0.5567
19.6000 13.0361 -0.5756
19.6200 13.0494 -0.5592
19.6400 13.0627 -0.5516
19.6600 13.0760 -0.5761
19.6800 13.0893 -0.5671
19.7000 13.1026 -0.5556
19.7200 13.1160 -0.5826
19.7400 13.1293 -0.5621
19.7600 13.1427 -0.5585
19.7800 13.1560 -0.5809
19.8000 13.1694 -0.5702
19.8200 13.1827 -0.5611
19.8400 13.1961 -0.5798
19.8600 13.2095 -0.5653
19.8800 13.2228 -0.5668
19.9000 13.2361 -0.5819
19.9200 13.2495 -0.5665
19.9400 13.2628 -0.5624
19.9600 13.2761 -0.5847
19.9800 13.2894 -0.5661
20.0000 13.3027 -0.5663
20.0200 13.3161 -0.5842
20.0400 13.3294 -0.5672
20.0600 13.3427 -0.5613
20.0800 13.3560 -0.5828
20.1000 13.3693 -0.5662
20.1200 13.3827 -0.5650
20.1400 13.3960 -0.5889
20.1600 13.4094 -0.5668
20.1800 13.4227 -0.5689
20.2000 13.4361 -0.5853
20.2200 13.4494 -0.5724
20.2400 13.4627 -0.5687
20.2600 13.4761 -0.5884
20.2800 13.4894 -0.5675
20.3000 13.5028 -0.5724
20.3200 13.5161 -0.5896
20.3400 13.5294 -0.5736
20.3600 13.5427 -0.5751
20.3800 13.5561 -0.5868
20.4000 13.5694 -0.5735
20.4200 13.5827 -0.5791
20.4400 13.5960 -0.5831
20.4600 13.6093 -0.5729
20.4800 13.6227 -0.5771
20.5000 13.6360 -0.5850
20.5200 13.6494 -0.5754
20.5400 13.6627 -0.5840
20.5600 13.6761 -0.5867
20.5800 13.6895 -0.5768
20.6000 13.7028 -0.5841
20.6200 13.7161 -0.5806
20.6400 13.7294 -0.5798
20.6600 13.7428 -0.5806
20.6800 13.7561 -0.5864
20.7000 13.7694 -0.5800
20.7200 13.7827 -0.5821
20.7400 13.7960 -0.5857
20.7600 13.8094 -0.5832
20.7800 13.8227 -0.5815
20.8000 13.8360 -0.5905
20.8200 13.8494 -0.5817
20.8400 13.8627 -0.5821
20.8600 13.8760 -0.5868
20.8800 13.8894 -0.5889
20.9000 13.9027 -0.5809
20.9200 13.9161 -0.5921
20.9400 13.9295 -0.5900
20.9600 13.9428 -0.5873
20.9800 13.9561 -0.5887
21.0000 13.9695 -0.5900
21.0200 13.9828 -0.5848
21.0400 13.9961 -0.5884
21.0600 14.0094 -0.5913
21.0800 14.0227 -0.5841
21.1000 14.0360 -0.5867
21.1200 14.0494 -0.5973
21.1400 14.0627 -0.5861
21.1600 14.0760 -0.5894
21.1800 14.0893 -0.5926
21.2000 14.1027 -0.5877
21.2200 14.1160 -0.5907
21.2400 14.1293 -0.5940
21.2600 14.1427 -0.5856
21.2800 14.1561 -0.5928
21.3000 14.1694 -0.5959
21.3200 14.1828 -0.5844
21.3400 14.1961 -0.5940
21.3600 14.2094 -0.5926
21.3800 14.2228 -0.5893
21.4000 14.2361 -0.5933
21.4200 14.2494 -0.5909
21.4400 14.2627 -0.5873
21.4600 14.2761 -0.5943
21.4800 14.2894 -0.5903
21.5000 14.3027 -0.5899
21.5200 14.3160 -0.5897
21.5400 14.3293 -0.5984
21.5600 14.3426 -0.5967
21.5800 14.3560 -0.5920
21.6000 14.3693 -0.5966
21.6200 14.3827 -0.5958
21.6400 14.3961 -0.5865
21.6600 14.4095 -0.6006
21.6800 14.4228 -0.6009
21.7000 14.4361 -0.5843
21.7200 14.4495 -0.5981
21.7400 14.4628 -0.6047
21.7600 14.4761 -0.5881
21.7800 14.4894 -0.6060
21.8000 14.5027 -0.6014
21.8200 14.5160 -0.5897
21.8400 14.5293 -0.6082
21.8600 14.5427 -0.6023
21.8800 14.5560 -0.5987
21.9000 14.5693 -0.6112
21.9200 14.5827 -0.6022
21.9400 14.5961 -0.5992
21.9600 14.6094 -0.6154
21.9800 14.6227 -0.6039
22.0000 14.6361 -0.6018
22.0200 14.6495 -0.6183
22.0400 14.6628 -0.6063
22.0600 14.6761 -0.5995
22.0800 14.6894 -0.6207
22.1000 14.7028 -0.6037
22.1200 14.7161 -0.6055
22.1400 14.7294 -0.6196
22.1600 14.7427 -0.6074
22.1800 14.7560 -0.6067
22.2000 14.7694 -0.6221
22.2200 14.7827 -0.6066
22.2400 14.7960 -0.6150
22.2600 14.8093 -0.6241
22.2800 14.8227 -0.6083
22.3000 14.8361 -0.6168
22.3200 14.8494 -0.6233
22.3400 14.8628 -0.6132
22.3600 14.8761 -0.6182
22.3800 14.8895 -0.6253
22.4000 14.9028 -0.6149
22.4200 14.9161 -0.6178
22.4400 14.9294 -0.6218
22.4600 14.9428 -0.6154
22.4800 14.9561 -0.6162
22.5000 14.9694 -0.6232
22.5200 14.9827 -0.6201
22.5400 14.9961 -0.6144
22.5600 15.0094 -0.6178
22.5800 15.0227 -0.6268
22.6000 15.0360 -0.6160
22.6200 15.0493 -0.6186
22.6400 15.0627 -0.6270
22.6600 15.0760 -0.6213
22.6800 15.0894 -0.6177
22.7000 15.1027 -0.6327
22.7200 15.1161 -0.6148
22.7400 15.1294 -0.6233
22.7600 15.1428 -0.6336
22.7800 15.1561 -0.6133
22.8000 15.1694 -0.6299
22.8200 15.1828 -0.6423
22.8400 15.1961 -0.6173
22.8600 15.2094 -0.6290
22.8800 15.2227 -0.6418
22.9000 15.2360 -0.6201
22.9200 15.2494 -0.6353
22.9400 15.2627 -0.6380
22.9600 15.2760 -0.6169
22.9800 15.2893 -0.6399
23.0000 15.3027 -0.6443
23.0200 15.3161 -0.6218
23.0400 15.3294 -0.6411
23.0600 15.3427 -0.6462
23.0800 15.3561 -0.6236
23.1000 15.3694 -0.6440
23.1200 15.3827 -0.6504
23.1400 15.3961 -0.6204
23.1600 15.4094 -0.6426
23.1800 15.4228 -0.6434
23.2000 15.4361 -0.6307
23.2200 15.4494 -0.6446
23.2400 15.4627 -0.6472
23.2600 15.4760 -0.6331
23.2800 15.4894 -0.6527
23.3000 15.5027 -0.6456
23.3200 15.5160 -0.6309
23.3400 15.5293 -0.6542
23.3600 15.5427 -0.6493
23.3800 15.5560 -0.6317
23.4000 15.5694 -0.6527
23.4200 15.5827 -0.6530
23.4400 15.5961 -0.6374
23.4600 15.6095 -0.6548
23.4800 15.6228 -0.6593
23.5000 15.6361 -0.6368
23.5200 15.6494 -0.6581
23.5400 15.6628 -0.6593
23.5600 15.6761 -0.6395
23.5800 15.6894 -0.6610
23.6000 15.7027 -0.6530
23.6200 15.7160 -0.6438
23.6400 15.7294 -0.6679
23.6600 15.7427 -0.6586
23.6800 15.7560 -0.6496
23.7000 15.7693 -0.6656
23.7200 15.7827 -0.6627
23.7400 15.7960 -0.6465
23.7600 15.8093 -0.6641
23.7800 15.8227 -0.6651
23.8000 15.8361 -0.6517
23.8200 15.8495 -0.6631
23.8400 15.8628 -0.6619
23.8600 15.8761 -0.6629
23.8800 15.8894 -0.6657
23.9000 15.9028 -0.6702
23.9200 15.9161 -0.6581
23.9400 15.9294 -0.6644
23.9600 15.9427 -0.6667
23.9800 15.9560 -0.6565
24.0000 15.9694 -0.6684
24.0200 15.9827 -0.6672
24.0400 15.9960 -0.6602
24.0600 16.0093 -0.6661
24.0800 16.0227 -0.6712
24.1000 16.0361 -0.6630
24.1200 16.0494 -0.6658
24.1400 16.0627 -0.6693
24.1600 16.0761 -0.6609
24.1800 16.0894 -0.6724
24.2000 16.1027 -0.6722
24.2200 16.1160 -0.6595
24.2400 16.1294 -0.6727
24.2600 16.1427 -0.6645
24.2800 16.1561 -0.6687
24.3000 16.1694 -0.6677
24.3200 16.1827 -0.6681
24.3400 16.1961 -0.6664
24.3600 16.2094 -0.6625
24.3800 16.2227 -0.6718
24.4000 16.2360 -0.6705
24.4200 16.2494 -0.6582
24.4400 16.2627 -0.6770
24.4600 16.2760 -0.6735
24.4800 16.2894 -0.6598
24.5000 16.3027 -0.6771
24.5200 16.3160 -0.6783
24.5400 16.3294 -0.6578
24.5600 16.3428 -0.6804
24.5800 16.3561 -0.6753
24.6000 16.3694 -0.6600
24.6200 16.3828 -0.6855
24.6400 16.3961 -0.6799
24.6600 16.4094 -0.6553
24.6800 16.4227 -0.6829
24.7000 16.4361 -0.6789
24.7200 16.4494 -0.6675
24.7400 16.4627 -0.6845
24.7600 16.4760 -0.6716
24.7800 16.4893 -0.6735
24.8000 16.5027 -0.6868
24.8200 16.5160 -0.6737
24.8400 16.5294 -0.6767
24.8600 16.5427 -0.6923
24.8800 16.5561 -0.6685
24.9000 16.5694 -0.6791
24.9200 16.5828 -0.6936
24.9400 16.5961 -0.6752
24.9600 16.6094 -0.6846
24.9800 16.6228 -0.6880
25.0000 16.6361 -0.6774
25.0200 16.6494 -0.6937
25.0400 16.6627 -0.6879
25.0600 16.6760 -0.6752
25.0800 16.6894 -0.6882
25.1000 16.7027 -0.6976
25.1200 16.7160 -0.6752
25.1400 16.7293 -0.6914
25.1600 16.7427 -0.6934
25.1800 16.7561 -0.6856
25.2000 16.7694 -0.6869
25.2200 16.7827 -0.6928
25.2400 16.7960 -0.6910
25.2600 16.8094 -0.6901
25.2800 16.8228 -0.6894
25.3000 16.8361 -0.6885
25.3200 16.8494 -0.6911
25.3400 16.8628 -0.6918
25.3600 16.8761 -0.6878
25.3800 16.8894 -0.6939
25.4000 16.9027 -0.6931
25.4200 16.9160 -0.6898
25.4400 16.9294 -0.6988
25.4600 16.9427 -0.6939
25.4800 16.9560 -0.6881
25.5000 16.9693 -0.6926
25.5200 16.9826 -0.7015
25.5400 16.9960 -0.6932
25.5600 17.0093 -0.6900
25.5800 17.0227 -0.7091
25.6000 17.0361 -0.7028
25.6200 17.0495 -0.6895
25.6400 17.0628 -0.7143
25.6600 17.0761 -0.7027
25.6800 17.0894 -0.6943
25.7000 17.1028 -0.7040
25.7200 17.1161 -0.7135
25.7400 17.1294 -0.6987
25.7600 17.1427 -0.7071
25.7800 17.1560 -0.7094
25.8000 17.1694 -0.7034
25.8200 17.1827 -0.7170
25.8400 17.1961 -0.7062
25.8600 17.2094 -0.7010
25.8800 17.2227 -0.7182
25.9000 17.2360 -0.7067
25.9200 17.2494 -0.7038
25.9400 17.2627 -0.7209
25.9600 17.2761 -0.7173
25.9800 17.2895 -0.7057
26.0000 17.3028 -0.7177
26.0200 17.3161 -0.7198
26.0400 17.3294 -0.7098
26.0600 17.3428 -0.7245
26.0800 17.3561 -0.7159
26.1000 17.3694 -0.7083
26.1200 17.3827 -0.7230
26.1400 17.3960 -0.7209
26.1600 17.4094 -0.7138
26.1800 17.4227 -0.7265
26.2000 17.4360 -0.7176
26.2200 17.4493 -0.7187
26.2400 17.4627 -0.7279
26.2600 17.4761 -0.7215
26.2800 17.4894 -0.7148
26.3000 17.5027 -0.7294
26.3200 17.5161 -0.7222
26.3400 17.5294 -0.7174
26.3600 17.5428 -0.7326
26.3800 17.5561 -0.7272
26.4000 17.5694 -0.7167
26.4200 17.5827 -0.7351
26.4400 17.5961 -0.7248
26.4600 17.6094 -0.7221
26.4800 17.6227 -0.7304
26.5000 17.6361 -0.7251
26.5200 17.6494 -0.7218
26.5400 17.6627 -0.7313
26.5600 17.6760 -0.7339
26.5800 17.6893 -0.7248
26.6000 17.7026 -0.7287
26.6200 17.7160 -0.7310
26.6400 17.7293 -0.7344
26.6600 17.7427 -0.7262
26.6800 17.7560 -0.7333
26.7000 17.7694 -0.7331
26.7200 17.7828 -0.7344
26.7400 17.7961 -0.7356
26.7600 17.8094 -0.7332
26.7800 17.8228 -0.7365
26.8000 17.8361 -0.7428
26.8200 17.8494 -0.7367
26.8400 17.8627 -0.7372
26.8600 17.8760 -0.7384
26.8800 17.8894 -0.7426
26.9000 17.9027 -0.7419
26.9200 17.9160 -0.7409
26.9400 17.9293 -0.7404
26.9600 17.9426 -0.7471
26.9800 17.9560 -0.7498
27.0000 17.9693 -0.7427
27.0200 17.9827 -0.7461
27.0400 17.9960 -0.7484
27.0600 18.0094 -0.7422
27.0800 18.0228 -0.7529
27.1000 18.0361 -0.7526
27.1200 18.0494 -0.7487
27.1400 18.0628 -0.7514
27.1600 18.0761 -0.7568
27.1800 18.0894 -0.7496
27.2000 18.1027 -0.7505
27.2200 18.1160 -0.7603
27.2400 18.1294 -0.7436
27.2600 18.1427 -0.7577
27.2800 18.1560 -0.7615
27.3000 18.1693 -0.7563
27.3200 18.1827 -0.7567
27.3400 18.1960 -0.7638
27.3600 18.2094 -0.7573
27.3800 18.2227 -0.7625
27.4000 18.2360 -0.7677
27.4200 18.2494 -0.7562
27.4400 18.2628 -0.7571
27.4600 18.2761 -0.7755
27.4800 18.2894 -0.7608
27.5000 18.3028 -0.7607
27.5200 18.3161 -0.7739
27.5400 18.3295 -0.7630
27.5600 18.3428 -0.7568
27.5800 18.3561 -0.7800
27.6000 18.3694 -0.7692
27.6200 18.3828 -0.7586
27.6400 18.3961 -0.7884
27.6600 18.4093 -0.7733
27.6800 18.4227 -0.7617
27.7000 18.4360 -0.7880
27.7200 18.4494 -0.7730
27.7400 18.4627 -0.7676
27.7600 18.4760 -0.7878
27.7800 18.4894 -0.7723
27.8000 18.5028 -0.7668
27.8200 18.5161 -0.7942
27.8400 18.5294 -0.7721
27.8600 18.5428 -0.7626
27.8800 18.5561 -0.8053
27.9000 18.5694 -0.7733
27.9200 18.5827 -0.7638
27.9400 18.5960 -0.8012
27.9600 18.6093 -0.7735
27.9800 18.6227 -0.7647
28.0000 18.6360 -0.8027
28.0200 18.6494 -0.7759
28.0400 18.6627 -0.7652
28.0600 18.6760 -0.8049
28.0800 18.6894 -0.7770
28.1000 18.7027 -0.7688
28.1200 18.7160 -0.8086
28.1400 18.7294 -0.7747
28.1600 18.7428 -0.7732
28.1800 18.7561 -0.8049
28.2000 18.7694 -0.7758
28.2200 18.7828 -0.7832
28.2400 18.7961 -0.8007
28.2600 18.8095 -0.7818
28.2800 18.8228 -0.7867
28.3000 18.8361 -0.7949
28.3200 18.8494 -0.7790
28.3400 18.8627 -0.7918
28.3600 18.8760 -0.7933
28.3800 18.8893 -0.7773
28.4000 18.9027 -0.7919
28.4200 18.9160 -0.7967
28.4400 18.9294 -0.7840
28.4600 18.9427 -0.7990
28.4800 18.9560 -0.7933
28.5000 18.9694 -0.7936
28.5200 18.9828 -0.7939
28.5400 18.9961 -0.7941
28.5600 19.0094 -0.7960
28.5800 19.0227 -0.7911
28.6000 19.0361 -0.7858
28.6200 19.0494 -0.8062
28.6400 19.0628 -0.7954
28.6600 19.0761 -0.7910
28.6800 19.0894 -0.8092
28.7000 19.1028 -0.7964
28.7200 19.1161 -0.7916
28.7400 19.1293 -0.8132
28.7600 19.1426 -0.7948
28.7800 19.1560 -0.7935
28.8000 19.1693 -0.8180
28.8200 19.1826 -0.7907
28.8400 19.1960 -0.8049
28.8600 19.2094 -0.8244
28.8800 19.2228 -0.7896
28.9000 19.2361 -0.8143
28.9200 19.2495 -0.8316
28.9400 19.2628 -0.7913
28.9600 19.2761 -0.8232
28.9800 19.2895 -0.8284
29.0000 19.3028 -0.7993
29.0200 19.3160 -0.8247
29.0400 19.3294 -0.8333
29.0600 19.3427 -0.8062
29.0800 19.3560 -0.8349
29.1000 19.3694 -0.8292
29.1200 19.3827 -0.8124
29.1400 19.3961 -0.8402
29.1600 19.4094 -0.8320
29.1800 19.4227 -0.8187
29.2000 19.4360 -0.8480
29.2200 19.4494 -0.8329
29.2400 19.4628 -0.8288
29.2600 19.4761 -0.8477
29.2800 19.4894 -0.8364
29.3000 19.5027 -0.8344
29.3200 19.5161 -0.8492
29.3400 19.5294 -0.8393
29.3600 19.5427 -0.8412
29.3800 19.5560 -0.8493
29.4000 19.5694 -0.8392
29.4200 19.5827 -0.8509
29.4400 19.5960 -0.8520
29.4600 19.6093 -0.8448
29.4800 19.6227 -0.8492
29.5000 19.6360 -0.8561
29.5200 19.6494 -0.8433
29.5400 19.6627 -0.8504
29.5600 19.6760 -0.8555
29.5800 19.6894 -0.8457
29.6000 19.7028 -0.8474
29.6200 19.7161 -0.8633
29.6400 19.7294 -0.8510
29.6600 19.7427 -0.8489
29.6800 19.7561 -0.8603
29.7000 19.7694 -0.8635
29.7200 19.7827 -0.8503
29.7400 19.7960 -0.8646
29.7600 19.8094 -0.8644
29.7800 19.8227 -0.8517
29.8000 19.8361 -0.8672
29.8200 19.8493 -0.8662
29.8400 19.8627 -0.8574
29.8600 19.8760 -0.8713
29.8800 19.8894 -0.8729
29.9000 19.9027 -0.8636
29.9200 19.9160 -0.8708
29.9400 19.9294 -0.8760
29.9600 19.9428 -0.8659
29.9800 19.9561 -0.8744
30.0000 19.9695 -0.8869
30.0200 19.9828 -0.8688
30.0400 19.9961 -0.8796
30.0600 20.0094 -0.8874
30.0800 20.0227 -0.8734
30.1000 20.0360 -0.8808
30.1200 20.0493 -0.8926
30.1400 20.0627 -0.8703
30.1600 20.0761 -0.8852
30.1800 20.0894 -0.8929
30.2000 20.1027 -0.8786
30.2200 20.1160 -0.8878
30.2400 20.1294 -0.8964
30.2600 20.1427 -0.8802
30.2800 20.1560 -0.8939
30.3000 20.1694 -0.8920
30.3200 20.1827 -0.8945
30.3400 20.1961 -0.9049
30.3600 20.2094 -0.8883
30.3800 20.2227 -0.8940
30.4000 20.2361 -0.9036
30.4200 20.2495 -0.8953
30.4400 20.2628 -0.8976
30.4600 20.2761 -0.9012
30.4800 20.2894 -0.8638
30.5000 20.3027 -0.7787
30.5200 20.3160 -0.6478
30.5400 20.3293 -0.5178
30.5600 20.3427 -0.4119
30.5800 20.3560 -0.3055
30.6000 20.3694 -0.2100
30.6200 20.3827 -0.1405
30.6400 20.3960 -0.0589
30.6600 20.4094 -0.0181
30.6800 20.4228 0.0046
30.7000 20.4361 0.0412
30.7200 20.4494 0.0959
30.7400 20.4627 0.1411
30.7600 20.4761 0.2042
30.7800 20.4894 0.2468
30.8000 20.5028 0.2887
30.8200 20.5160 0.3492
30.8400 20.5294 0.3924
30.8600 20.5427 0.4400
30.8800 20.5561 0.5034
30.9000 20.5694 0.5483
30.9200 20.5827 0.5961
30.9400 20.5960 0.6597
30.9600 20.6093 0.6995
30.9800 20.6227 0.7431
31.0000 20.6360 0.8159
31.0200 20.6494 0.8509
31.0400 20.6628 0.8950
31.0600 20.6761 0.9539
31.0800 20.6894 0.9813
31.1000 20.7028 1.0026
31.1200 20.7161 0.9953
31.1400 20.7294 0.9539
31.1600 20.7427 0.9383
31.1800 20.7560 0.9471
31.2000 20.7693 0.9287
31.2200 20.7827 0.9444
31.2400 20.7960 0.9423
31.2600 20.8093 0.9269
31.2800 20.8227 0.9466
31.3000 20.8360 0.9356
31.3200 20.8494 0.9203
31.3400 20.8628 0.9405
31.3600 20.8761 0.9318
31.3800 20.8894 0.9285
31.4000 20.9028 0.9400
31.4200 20.9161 0.9277
31.4400 20.9294 0.9156
31.4600 20.9427 0.9299
31.4800 20.9561 0.9127
31.5000 20.9694 0.9050
31.5200 20.9828 0.9095
31.5400 20.9961 0.8927
31.5600 21.0094 0.8983
31.5800 21.0228 0.9043
31.6000 21.0361 0.8985
31.6200 21.0494 0.9003
31.6400 21.0627 0.8976
31.6600 21.0760 0.8932
31.6800 21.0894 0.8968
31.7000 21.1027 0.8904
31.7200 21.1160 0.8853
31.7400 21.1293 0.8892
31.7600 21.1427 0.8888
31.7800 21.1561 0.8802
31.8000 21.1694 0.8970
31.8200 21.1827 0.8829
31.8400 21.1961 0.8764
31.8600 21.2094 0.8785
31.8800 21.2228 0.8778
31.9000 21.2361 0.8757
31.9200 21.2494 0.8801
31.9400 21.2627 0.8672
31.9600 21.2761 0.8671
31.9800 21.2894 0.8633
32.0000 21.3027 0.8546
32.0200 21.3160 0.8602
32.0400 21.3293 0.8576
32.0600 21.3427 0.8465
32.0800 21.3560 0.8582
32.1000 21.3694 0.8548
32.1200 21.3828 0.8451
32.1400 21.3961 0.8477
32.1600 21.4094 0.8437
32.1800 21.4228 0.8475
32.2000 21.4361 0.8482
32.2200 21.4494 0.8476
32.2400 21.4628 0.8373
32.2600 21.4760 0.8380
32.2800 21.4894 0.8377
32.3000 21.5027 0.8311
32.3200 21.5160 0.8304
32.3400 21.5294 0.8330
32.3600 21.5427 0.8235
32.3800 21.5560 0.8314
32.4000 21.5694 0.8338
32.4200 21.5827 0.8214
32.4400 21.5960 0.8254
32.4600 21.6094 0.8295
32.4800 21.6227 0.8117
32.5000 21.6361 0.8215
32.5200 21.6494 0.8247
32.5400 21.6627 0.8146
32.5600 21.6761 0.8272
32.5800 21.6895 0.8322
32.6000 21.7028 0.8110
32.6200 21.7161 0.8245
32.6400 21.7294 0.8198
32.6600 21.7427 0.7971
32.6800 21.7561 0.8080
32.7000 21.7694 0.8063
32.7200 21.7827 0.7875
32.7400 21.7960 0.8028
32.7600 21.8093 0.8028
32.7800 21.8227 0.7872
32.8000 21.8360 0.8001
32.8200 21.8494 0.7944
32.8400 21.8628 0.7866
32.8600 21.8761 0.7949
32.8800 21.8895 0.7909
32.9000 21.9028 0.7822
32.9200 21.9161 0.7952
32.9400 21.9295 0.7815
32.9600 21.9428 0.7825
32.9800 21.9561 0.7880
33.0000 21.9694 0.7757
33.0200 21.9827 0.7769
33.0400 21.9961 0.7782
33.0600 22.0094 0.7736
33.0800 22.0227 0.7760
33.1000 22.0360 0.7734
33.1200 22.0494 0.7679
33.1400 22.0627 0.7671
33.1600 22.0760 0.7696
33.1800 22.0894 0.7613
33.2000 22.1027 0.7675
33.2200 22.1161 0.7646
33.2400 22.1294 0.7620
33.2600 22.1427 0.7667
33.2800 22.1561 0.7570
33.3000 22.1694 0.7555
33.3200 22.1828 0.7559
33.3400 22.1961 0.7531
33.3600 22.2094 0.7566
33.3800 22.2227 0.7566
33.4000 22.2360 0.7494
33.4200 22.2494 0.7564
33.4400 22.2627 0.7503
33.4600 22.2760 0.7452
33.4800 22.2894 0.7543
33.5000 22.3027 0.7406
33.5200 22.3160 0.7392
33.5400 22.3294 0.7550
33.5600 22.3427 0.7393
33.5800 22.3561 0.7395
33.6000 22.3694 0.7450
33.6200 22.3827 0.7387
33.6400 22.3960 0.7327
33.6600 22.4094 0.7422
33.6800 22.4228 0.7289
33.7000 22.4361 0.7337
33.7200 22.4494 0.7406
33.7400 22.4628 0.7317
33.7600 22.4761 0.7296
33.7800 22.4894 0.7274
33.8000 22.5027 0.7272
33.8200 22.5160 0.7277
33.8400 22.5293 0.7227
33.8600 22.5427 0.7186
33.8800 22.5560 0.7131
33.9000 22.5693 0.7193
33.9200 22.5827 0.7224
33.9400 22.5961 0.7046
33.9600 22.6095 0.7088
33.9800 22.6228 0.7140
34.0000 22.6361 0.7072
34.0200 22.6495 0.7064
34.0400 22.6628 0.7178
34.0600 22.6761 0.6970
34.0800 22.6894 0.7044
34.1000 22.7027 0.7087
34.1200 22.7160 0.6930
34.1400 22.7293 0.7010
34.1600 22.7426 0.7036
34.1800 22.7560 0.6791
34.2000 22.7693 0.7040
34.2200 22.7827 0.7016
34.2400 22.7960 0.6783
34.2600 22.8094 0.7028
34.2800 22.8227 0.6945
34.3000 22.8361 0.6687
34.3200 22.8495 0.6907
34.3400 22.8628 0.6831
34.3600 22.8761 0.6699
34.3800 22.8895 0.6929
34.4000 22.9028 0.6793
34.4200 22.9161 0.6773
34.4400 22.9294 0.6903
34.4600 22.9427 0.6717
34.4800 22.9560 0.6715
34.5000 22.9694 0.6788
34.5200 22.9827 0.6645
34.5400 22.9960 0.6759
34.5600 23.0093 0.6741
34.5800 23.0227 0.6649
34.6000 23.0360 0.6714
34.6200 23.0493 0.6660
34.6400 23.0627 0.6637
34.6600 23.0761 0.6681
34.6800 23.0894 0.6532
34.7000 23.1027 0.6576
34.7200 23.1161 0.6626
34.7400 23.1294 0.6525
34.7600 23.1428 0.6546
34.7800 23.1561 0.6621
34.8000 23.1694 0.6460
34.8200 23.1827 0.6541
34.8400 23.1961 0.6554
34.8600 23.2094 0.6495
34.8800 23.2227 0.6568
34.9000 23.2360 0.6461
34.9200 23.2493 0.6425
34.9400 23.2627 0.6422
34.9600 23.2760 0.6335
34.9800 23.2894 0.6398
35.0000 23.3027 0.6415
35.0200 23.3161 0.6250
35.0400 23.3295 0.6342
35.0600 23.3428 0.6315
35.0800 23.3561 0.6252
35.1000 23.3694 0.6364
35.1200 23.3828 0.6378
35.1400 23.3961 0.6303
35.1600 23.4094 0.6404
35.1800 23.4227 0.6377
35.2000 23.4361 0.6332
35.2200 23.4494 0.6297
35.2400 23.4627 0.6263
35.2600 23.4760 0.6265
35.2800 23.4894 0.6314
35.3000 23.5027 0.6196
35.3200 23.5160 0.6234
35.3400 23.5293 0.6247
35.3600 23.5427 0.6202
35.3800 23.5561 0.6276
35.4000 23.5695 0.6203
35.4200 23.5828 0.6159
35.4400 23.5961 0.6166
35.4600 23.6094 0.6098
35.4800 23.6228 0.6065
35.5000 23.6361 0.6131
35.5200 23.6494 0.6064
35.5400 23.6627 0.6028
35.5600 23.6761 0.6065
35.5800 23.6894 0.6012
35.6000 23.7027 0.6016
35.6200 23.7160 0.6018
35.6400 23.7293 0.5925
35.6600 23.7427 0.5953
35.6800 23.7560 0.5898
35.7000 23.7694 0.5873
35.7200 23.7827 0.5940
35.7400 23.7961 0.5881
35.7600 23.8094 0.5814
35.7800 23.8228 0.5901
35.8000 23.8361 0.5869
35.8200 23.8494 0.5816
35.8400 23.8628 0.5805
35.8600 23.8761 0.5784
35.8800 23.8894 0.5785
35.9000 23.9027 0.5823
35.9200 23.9161 0.5728
35.9400 23.9294 0.5747
35.9600 23.9427 0.5784
35.9800 23.9560 0.5745
36.0000 23.9693 0.5704
36.0200 23.9826 0.5734
36.0400 23.9960 0.5748
36.0600 24.0093 0.5636
36.0800 24.0227 0.5679
36.1000 24.0361 0.5680
36.1200 24.0495 0.5546
36.1400 24.0628 0.5648
36.1600 24.0761 0.5728
36.1800 24.0895 0.5525
36.2000 24.1028 0.5626
36.2200 24.1161 0.5646
36.2400 24.1294 0.5493
36.2600 24.1427 0.5650
36.2800 24.1560 0.5671
36.3000 24.1694 0.5378
36.3200 24.1827 0.5613
36.3400 24.1960 0.5576
36.3600 24.2093 0.5439
36.3800 24.2227 0.5563
36.4000 24.2361 0.5449
36.4200 24.2494 0.5378
36.4400 24.2627 0.5605
36.4600 24.2761 0.5419
36.4800 24.2895 0.5358
36.5000 24.3028 0.5584
36.5200 24.3161 0.5333
36.5400 24.3294 0.5341
36.5600 24.3428 0.5508
36.5800 24.3561 0.5350
36.6000 24.3694 0.5386
36.6200 24.3827 0.5403
36.6400 24.3960 0.5352
36.6600 24.4094 0.5380
36.6800 24.4227 0.5346
36.7000 24.4360 0.5333
36.7200 24.4493 0.5324
36.7400 24.4627 0.5304
36.7600 24.4761 0.5279
36.7800 24.4894 0.5271
36.8000 24.5027 0.5250
36.8200 24.5161 0.5303
36.8400 24.5295 0.5208
36.8600 24.5428 0.5260
36.8800 24.5561 0.5271
36.9000 24.5694 0.5198
36.9200 24.5828 0.5221
36.9400 24.5961 0.5224
36.9600 24.6094 0.5123
36.9800 24.6227 0.5260
37.0000 24.6360 0.5212
37.0200 24.6494 0.5028
37.0400 24.6627 0.5164
37.0600 24.6760 0.5178
37.0800 24.6893 0.5070
37.1000 24.7027 0.5168
37.1200 24.7160 0.5077
37.1400 24.7294 0.5028
37.1600 24.7427 0.5093
37.1800 24.7561 0.5040
37.2000 24.7695 0.5006
37.2200 24.7828 0.5008
37.2400 24.7961 0.5002
37.2600 24.8094 0.5072
37.2800 24.8228 0.5053
37.3000 24.8361 0.4940
37.3200 24.8494 0.5001
37.3400 24.8627 0.5001
37.3600 24.8760 0.4996
37.3800 24.8894 0.4957
37.4000 24.9027 0.4992
37.4200 24.9160 0.4968
37.4400 24.9294 0.4938
37.4600 24.9427 0.4929
37.4800 24.9560 0.4946
37.5000 24.9694 0.4909
37.5200 24.9827 0.4887
37.5400 24.9961 0.4905
37.5600 25.0094 0.4876
37.5800 25.0228 0.4885
37.6000 25.0361 0.4996
37.6200 25.0494 0.4905
37.6400 25.0628 0.4916
37.6600 25.0761 0.4985
37.6800 25.0894 0.4902
37.7000 25.1027 0.4923
37.7200 25.1160 0.4945
37.7400 25.1294 0.4801
37.7600 25.1427 0.4801
37.7800 25.1560 0.4790
37.8000 25.1693 0.4730
37.8200 25.1827 0.4728
37.8400 25.1960 0.4704
37.8600 25.2094 0.4627
37.8800 25.2227 0.4648
37.9000 25.2361 0.4674
37.9200 25.2495 0.4623
37.9400 25.2628 0.4600
37.9600 25.2761 0.4636
37.9800 25.2894 0.4604
38.0000 25.3028 0.4559
38.0200 25.3161 0.4678
38.0400 25.3294 0.4560
38.0600 25.3427 0.4622
38.0800 25.3560 0.4635
38.1000 25.3694 0.4553
38.1200 25.3827 0.4550
38.1400 25.3960 0.4609
38.1600 25.4093 0.4496
38.1800 25.4227 0.4589
38.2000 25.4360 0.4585
38.2200 25.4493 0.4469
38.2400 25.4627 0.4553
38.2600 25.4761 0.4518
38.2800 25.4894 0.4423
38.3000 25.5028 0.4500
38.3200 25.5161 0.4454
38.3400 25.5294 0.4375
38.3600 25.5428 0.4464
38.3800 25.5561 0.4380
38.4000 25.5694 0.4398
38.4200 25.5827 0.4493
38.4400 25.5960 0.4399
38.4600 25.6094 0.4318
38.4800 25.6227 0.4420
38.5000 25.6360 0.4396
38.5200 25.6493 0.4388
38.5400 25.6627 0.4307
38.5600 25.6761 0.4331
38.5800 25.6894 0.4294
38.6000 25.7027 0.4298
38.6200 25.7161 0.4295
38.6400 25.7294 0.4291
38.6600 25.7428 0.4214
38.6800 25.7561 0.4272
38.7000 25.7694 0.4236
38.7200 25.7828 0.4206
38.7400 25.7961 0.4261
38.7600 25.8094 0.4150
38.7800 25.8228 0.4166
38.8000 25.8361 0.4280
38.8200 25.8494 0.4085
38.8400 25.8627 0.4090
38.8600 25.8760 0.4204
38.8800 25.8893 0.4094
38.9000 25.9027 0.4146
38.9200 25.9160 0.4169
38.9400 25.9293 0.4074
38.9600 25.9427 0.4142
38.9800 25.9560 0.4097
39.0000 25.9694 0.4006
39.0200 25.9828 0.4146
39.0400 25.9961 0.4024
39.0600 26.0094 0.4023
39.0800 26.0228 0.4126
39.1000 26.0361 0.4014
39.1200 26.0494 0.4022
39.1400 26.0627 0.4109
39.1600 26.0761 0.3929
39.1800 26.0894 0.4001
39.2000 26.1027 0.4021
39.2200 26.1160 0.3857
39.2400 26.1293 0.3984
39.2600 26.1426 0.4032
39.2800 26.1560 0.3772
39.3000 26.1693 0.3943
39.3200 26.1827 0.3992
39.3400 26.1961 0.3802
39.3600 26.2094 0.3832
39.3800 26.2228 0.3930
39.4000 26.2361 0.3802
39.4200 26.2495 0.3841
39.4400 26.2628 0.3890
39.4600 26.2761 0.3743
39.4800 26.2894 0.3872
39.5000 26.3027 0.3845
39.5200 26.3160 0.3769
39.5400 26.3294 0.3837
39.5600 26.3427 0.3794
39.5800 26.3560 0.3743
39.6000 26.3693 0.3797
39.6200 26.3827 0.3722
39.6400 26.3961 0.3768
39.6600 26.4094 0.3803
39.6800 26.4227 0.3702
39.7000 26.4361 0.3761
39.7200 26.4494 0.3819
39.7400 26.4628 0.3703
39.7600 26.4761 0.3749
39.7800 26.4894 0.3741
39.8000 26.5028 0.3714
39.8200 26.5161 0.3696
39.8400 26.5295 0.3727
39.8600 26.5427 0.3697
39.8800 26.5560 0.3756
39.9000 26.5694 0.3695
39.9200 26.5827 0.3687
39.9400 26.5960 0.3749
39.9600 26.6093 0.3671
39.9800 26.6226 0.3662
40.0000 26.6360 0.3651
40.0200 26.6493 0.3616
40.0400 26.6627 0.3661
40.0600 26.6760 0.3652
40.0800 26.6894 0.3553
40.1000 26.7028 0.3639
40.1200 26.7161 0.3617
40.1400 26.7294 0.3568
40.1600 26.7428 0.3627
40.1800 26.7561 0.3511
40.2000 26.7694 0.3502
40.2200 26.7827 0.3583
40.2400 26.7961 0.3483
40.2600 26.8094 0.3519
40.2800 26.8227 0.3562
40.3000 26.8361 0.3494
40.3200 26.8494 0.3464
40.3400 26.8627 0.3535
40.3600 26.8760 0.3447
40.3800 26.8894 0.3518
40.4000 26.9027 0.3474
40.4200 26.9161 0.3387
40.4400 26.9294 0.3481
40.4600 26.9428 0.3446
40.4800 26.9561 0.3367
40.5000 26.9694 0.3441
40.5200 26.9828 0.3409
40.5400 26.9961 0.3361
40.5600 27.0094 0.3367
40.5800 27.0227 0.3403
40.6000 27.0360 0.3330
40.6200 27.0494 0.3325
40.6400 27.0627 0.3340
40.6600 27.0760 0.3308
40.6800 27.0893 0.3383
40.7000 27.1027 0.3308
40.7200 27.1160 0.3308
40.7400 27.1294 0.3324
40.7600 27.1427 0.3302
40.7800 27.1561 0.3256
40.8000 27.1694 0.3285
40.8200 27.1827 0.3243
40.8400 27.1961 0.3244
40.8600 27.2094 0.3255
40.8800 27.2227 0.3300
40.9000 27.2361 0.3231
40.9200 27.2494 0.3258
40.9400 27.2627 0.3225
40.9600 27.2761 0.3183
40.9800 27.2894 0.3245
41.0000 27.3028 0.3169
41.0200 27.3161 0.3113
41.0400 27.3294 0.3227
41.0600 27.3427 0.3185
41.0800 27.3560 0.3151
41.1000 27.3694 0.3177
41.1200 27.3827 0.3092
41.1400 27.3960 0.3179
41.1600 27.4094 0.3194
41.1800 27.4228 0.3076
41.2000 27.4361 0.3102
41.2200 27.4495 0.3171
41.2400 27.4628 0.3052
41.2600 27.4761 0.3125
41.2800 27.4894 0.3107
41.3000 27.5027 0.3069
41.3200 27.5160 0.3111
41.3400 27.5294 0.3105
41.3600 27.5427 0.3026
41.3800 27.5560 0.3111
41.4000 27.5693 0.3010
41.4200 27.5826 0.2980
41.4400 27.5960 0.3062
41.4600 27.6094 0.3031
41.4800 27.6227 0.2907
41.5000 27.6360 0.3028
41.5200 27.6494 0.2974
41.5400 27.6628 0.2942
41.5600 27.6761 0.2994
41.5800 27.6894 0.2966
41.6000 27.7028 0.2905
41.6200 27.7161 0.2924
41.6400 27.7295 0.2894
41.6600 27.7428 0.2848
41.6800 27.7560 0.2916
41.7000 27.7694 0.2874
41.7200 27.7827 0.2778
41.7400 27.7960 0.2893
41.7600 27.8093 0.2933
41.7800 27.8227 0.2795
41.8000 27.8360 0.2849
41.8200 27.8494 0.2846
41.8400 27.8627 0.2756
41.8600 27.8760 0.2809
41.8800 27.8894 0.2840
41.9000 27.9028 0.2705
41.9200 27.9161 0.2770
41.9400 27.9294 0.2788
41.9600 27.9428 0.2753
41.9800 27.9561 0.2809
42.0000 27.9694 0.2735
42.0200 27.9827 0.2641
42.0400 27.9961 0.2788
42.0600 28.0094 0.2708
42.0800 28.0227 0.2684
42.1000 28.0361 0.2734
42.1200 28.0493 0.2707
42.1400 28.0626 0.2692
42.1600 28.0760 0.2749
42.1800 28.0893 0.2713
42.2000 28.1027 0.2661
42.2200 28.1160 0.2649
42.2400 28.1294 0.2668
42.2600 28.1428 0.2658
42.2800 28.1561 0.2591
42.3000 28.1695 0.2665
42.3200 28.1828 0.2597
42.3400 28.1961 0.2583
42.3600 28.2094 0.2662
42.3800 28.2227 0.2592
42.4000 28.2360 0.2562
42.4200 28.2493 0.2636
42.4400 28.2627 0.2546
42.4600 28.2761 0.2527
42.4800 28.2894 0.2559
42.5000 28.3027 0.2557
42.5200 28.3160 0.2478
42.5400 28.3294 0.2564
42.5600 28.3427 0.2499
42.5800 28.3560 0.2496
42.6000 28.3694 0.2554
42.6200 28.3828 0.2443
42.6400 28.3961 0.2403
42.6600 28.4094 0.2533
42.6800 28.4228 0.2381
42.7000 28.4361 0.2378
42.7200 28.4495 0.2481
42.7400 28.4628 0.2410
42.7600 28.4761 0.2388
42.7800 28.4894 0.2456
42.8000 28.5027 0.2337
42.8200 28.5160 0.2349
42.8400 28.5294 0.2401
42.8600 28.5427 0.2294
42.8800 28.5560 0.2368
42.9000 28.5694 0.2343
42.9200 28.5827 0.2325
42.9400 28.5960 0.2362
42.9600 28.6094 0.2340
42.9800 28.6228 0.2243
43.0000 28.6361 0.2313
43.0200 28.6494 0.2296
43.0400 28.6627 0.2234
43.0600 28.6761 0.2273
43.0800 28.6894 0.2266
43.1000 28.7028 0.2230
43.1200 28.7161 0.2323
43.1400 28.7294 0.2236
43.1600 28.7427 0.2212
43.1800 28.7561 0.2270
43.2000 28.7693 0.2235
43.2200 28.7826 0.2195
43.2400 28.7960 0.2279
43.2600 28.8093 0.2157
43.2800 28.8226 0.2159
43.3000 28.8360 0.2220
43.3200 28.8494 0.2189
43.3400 28.8628 0.2159
43.3600 28.8762 0.2182
43.3800 28.8895 0.2173
43.4000 28.9028 0.2150
43.4200 28.9162 0.2152
43.4400 28.9295 0.2127
43.4600 28.9428 0.2179
43.4800 28.9560 0.2085
43.5000 28.9693 0.2082
43.5200 28.9827 0.2200
43.5400 28.9960 0.2089
43.5600 29.0093 0.2018
43.5800 29.0227 0.2142
43.6000 29.0360 0.2054
43.6200 29.0494 0.2053
43.6400 29.0627 0.2089
43.6600 29.0761 0.2054
43.6800 29.0894 0.1967
43.7000 29.1028 0.2075
43.7200 29.1161 0.2035
43.7400 29.1294 0.2012
43.7600 29.1427 0.2013
43.7800 29.1561 0.2020
43.8000 29.1694 0.1969
43.8200 29.1827 0.2017
43.8400 29.1960 0.1976
43.8600 29.2094 0.1960
43.8800 29.2227 0.2001
43.9000 29.2360 0.1953
43.9200 29.2493 0.1924
43.9400 29.2627 0.1967
43.9600 29.2760 0.1935
43.9800 29.2894 0.1866
44.0000 29.3027 0.1942
44.0200 29.3160 0.1899
44.0400 29.3294 0.1887
44.0600 29.3428 0.1963
44.0800 29.3561 0.1845
44.1000 29.3694 0.1819
44.1200 29.3827 0.1958
44.1400 29.3961 0.1809
44.1600 29.4094 0.1819
44.1800 29.4228 0.1902
44.2000 29.4361 0.1849
44.2200 29.4494 0.1817
44.2400 29.4627 0.1897
44.2600 29.4760 0.1797
44.2800 29.4893 0.1791
44.3000 29.5026 0.1877
44.3200 29.5160 0.1786
44.3400 29.5293 0.1754
44.3600 29.5427 0.1874
44.3800 29.5560 0.1798
44.4000 29.5694 0.1766
44.4200 29.5828 0.1836
44.4400 29.5961 0.1762
44.4600 29.6094 0.1703
44.4800 29.6228 0.1817
44.5000 29.6361 0.1698
44.5200 29.6494 0.1710
44.5400 29.6627 0.1748
44.5600 29.6760 0.1710
44.5800 29.6894 0.1733
44.6000 29.7027 0.1708
44.6200 29.7161 0.1697
44.6400 29.7294 0.1679
44.6600 29.7427 0.1698
44.6800 29.7560 0.1645
44.7000 29.7694 0.1642
44.7200 29.7827 0.1648
44.7400 29.7960 0.1645
44.7600 29.8094 0.1639
44.7800 29.8227 0.1653
44.8000 29.8361 0.1603
44.8200 29.8494 0.1583
44.8400 29.8627 0.1661
44.8600 29.8761 0.1653
44.8800 29.8895 0.1537
44.9000 29.9028 0.1627
44.9200 29.9161 0.1591
44.9400 29.9294 0.1532
44.9600 29.9427 0.1608
44.9800 29.9561 0.1572
45.0000 29.9694 0.1456
45.0200 29.9827 0.1626
45.0400 29.9960 0.1502
45.0600 30.0094 0.1466
45.0800 30.0227 0.1612
45.1000 30.0360 0.1452
45.1200 30.0494 0.1433
45.1400 30.0628 0.1545
45.1600 30.0761 0.1429
45.1800 30.0894 0.1467
45.2000 30.1027 0.1560
45.2200 30.1161 0.1352
45.2400 30.1294 0.1443
45.2600 30.1428 0.1513
45.2800 30.1561 0.1335
45.3000 30.1694 0.1444
45.3200 30.1827 0.1480
45.3400 30.1960 0.1283
45.3600 30.2094 0.1439
45.3800 30.2227 0.1428
45.4000 30.2360 0.1359
45.4200 30.2493 0.1393
45.4400 30.2627 0.1367
45.4600 30.2760 0.1340
45.4800 30.2894 0.1407
45.5000 30.3028 0.1314
45.5200 30.3161 0.1306
45.5400 30.3294 0.1331
45.5600 30.3428 0.1288
45.5800 30.3561 0.1285
45.6000 30.3695 0.1347
45.6200 30.3828 0.1200
45.6400 30.3960 0.1261
45.6600 30.4093 0.1330
45.6800 30.4227 0.1220
45.7000 30.4360 0.1212
45.7200 30.4493 0.1318
45.7400 30.4627 0.1162
45.7600 30.4760 0.1195
45.7800 30.4894 0.1253
45.8000 30.5027 0.1144
45.8200 30.5161 0.1249
45.8400 30.5294 0.1181
45.8600 30.5428 0.1129
45.8800 30.5561 0.1207
45.9000 30.5694 0.1163
45.9200 30.5827 0.1110
45.9400 30.5961 0.1225
45.9600 30.6094 0.1090
45.9800 30.6228 0.1154
46.0000 30.6361 0.1192
46.0200 30.6494 0.1062
46.0400 30.6627 0.1133
46.0600 30.6761 0.1179
46.0800 30.6894 0.1064
46.1000 30.7027 0.1124
46.1200 30.7160 0.1093
46.1400 30.7294 0.1019
46.1600 30.7427 0.1143
46.1800 30.7560 0.1142
46.2000 30.7693 0.0990
46.2200 30.7827 0.1119
46.2400 30.7961 0.1063
46.2600 30.8094 0.0984
46.2800 30.8227 0.1153
46.3000 30.8361 0.1025
46.3200 30.8495 0.0979
46.3400 30.8628 0.1099
46.3600 30.8761 0.1003
46.3800 30.8894 0.1010
46.4000 30.9028 0.1115
46.4200 30.9161 0.0926
46.4400 30.9294 0.1005
46.4600 30.9427 0.1070
46.4800 30.9560 0.0979
46.5000 30.9693 0.0970
46.5200 30.9827 0.1035
46.5400 30.9960 0.0916
46.5600 31.0094 0.1004
46.5800 31.0227 0.0967
46.6000 31.0361 0.0871
46.6200 31.0494 0.0960
46.6400 31.0627 0.0987
46.6600 31.0761 0.0853
46.6800 31.0894 0.0941
46.7000 31.1028 0.0947
46.7200 31.1161 0.0898
46.7400 31.1294 0.0922
46.7600 31.1427 0.0851
46.7800 31.1561 0.0847
46.8000 31.1694 0.0847
46.8200 31.1827 0.0816
46.8400 31.1960 0.0852
46.8600 31.2094 0.0843
46.8800 31.2227 0.0761
46.9000 31.2361 0.0872
46.9200 31.2494 0.0858
46.9400 31.2627 0.0754
46.9600 31.2761 0.0798
46.9800 31.2894 0.0754
47.0000 31.3027 0.0761
47.0200 31.3161 0.0808
47.0400 31.3294 0.0693
47.0600 31.3428 0.0723
47.0800 31.3561 0.0734
47.1000 31.3694 0.0744
47.1200 31.3827 0.0769
47.1400 31.3961 0.0749
47.1600 31.4094 0.0621
47.1800 31.4227 0.0698
47.2000 31.4360 0.0690
47.2200 31.4493 0.0659
47.2400 31.4627 0.0655
47.2600 31.4760 0.0682
47.2800 31.4894 0.0648
47.3000 31.5027 0.0670
47.3200 31.5161 0.0673
47.3400 31.5294 0.0684
47.3600 31.5427 0.0660
47.3800 31.5561 0.0571
47.4000 31.5694 0.0607
47.4200 31.5828 0.0659
47.4400 31.5961 0.0552
47.4600 31.6094 0.0601
47.4800 31.6227 0.0590
47.5000 31.6361 0.0523
47.5200 31.6494 0.0611
47.5400 31.6627 0.0558
47.5600 31.6760 0.0552
47.5800 31.6894 0.0510
47.6000 31.7027 0.0486
47.6200 31.7160 0.0477
47.6400 31.7294 0.0529
47.6600 31.7427 0.0491
47.6800 31.7561 0.0502
47.7000 31.7695 0.0484
47.7200 31.7828 0.0467
47.7400 31.7961 0.0513
47.7600 31.8094 0.0483
47.7800 31.8228 0.0395
47.8000 31.8361 0.0505
47.8200 31.8494 0.0421
47.8400 31.8627 0.0412
47.8600 31.8760 0.0470
47.8800 31.8894 0.0459
47.9000 31.9027 0.0419
47.9200 31.9160 0.0439
47.9400 31.9294 0.0446
47.9600 31.9427 0.0436
47.9800 31.9560 0.0393
48.0000 31.9693 0.0360
48.0200 31.9827 0.0414
48.0400 31.9960 0.0354
48.0600 32.0094 0.0352
48.0800 32.0227 0.0388
48.1000 32.0360 0.0401
48.1200 32.0494 0.0273
48.1400 32.0628 0.0375
48.1600 32.0761 0.0329
48.1800 32.0894 0.0363
48.2000 32.1027 0.0330
48.2200 32.1161 0.0234
48.2400 32.1294 0.0316
48.2600 32.1427 0.0340
48.2800 32.1560 0.0206
48.3000 32.1693 0.0301
48.3200 32.1827 0.0267
48.3400 32.1960 0.0194
48.3600 32.2093 0.0251
48.3800 32.2227 0.0259
48.4000 32.2361 0.0172
48.4200 32.2495 0.0209
48.4400 32.2628 0.0187
48.4600 32.2761 0.0200
48.4800 32.2895 0.0207
48.5000 32.3028 0.0177
48.5200 32.3161 0.0140
48.5400 32.3294 0.0190
48.5600 32.3427 0.0179
48.5800 32.3560 0.0149
48.6000 32.3694 0.0190
48.6200 32.3827 0.0074
48.6400 32.3960 0.0130
48.6600 32.4093 0.0166
48.6800 32.4227 0.0088
48.7000 32.4360 0.0090
48.7200 32.4493 0.0106
48.7400 32.4627 0.0071
48.7600 32.4761 0.0089
48.7800 32.4895 0.0080
48.8000 32.5028 0.0063
48.8200 32.5161 0.0028
48.8400 32.5295 0.0084
48.8600 32.5428 -0.0036
48.8800 32.5561 0.0025
48.9000 32.5694 0.0042
48.9200 32.5827 -0.0018
48.9400 32.5961 -0.0026
48.9600 32.6094 0.0062
48.9800 32.6227 -0.0004
49.0000 32.6360 -0.0030
49.0200 32.6493 0.0042
49.0400 32.6627 0.0010
49.0600 32.6761 -0.0048
49.0800 32.6894 0.0081
49.1000 32.7027 -0.0059
49.1200 32.7161 -0.0117
49.1400 32.7295 0.0020
49.1600 32.7428 -0.0057
49.1800 32.7561 -0.0070
49.2000 32.7694 0.0039
49.2200 32.7828 -0.0103
49.2400 32.7961 -0.0125
49.2600 32.8094 0.0032
49.2800 32.8227 -0.0130
49.3000 32.8361 -0.0102
49.3200 32.8494 -0.0017
49.3400 32.8627 -0.0187
49.3600 32.8760 -0.0072
49.3800 32.8893 0.0029
49.4000 32.9027 -0.0208
49.4200 32.9160 -0.0076
49.4400 32.9294 -0.0091
49.4600 32.9427 -0.0242
49.4800 32.9561 -0.0132
49.5000 32.9695 -0.0120
49.5200 32.9828 -0.0294
49.5400 32.9961 -0.0105
49.5600 33.0094 -0.0173
49.5800 33.0228 -0.0254
49.6000 33.0361 -0.0118
49.6200 33.0494 -0.0185
49.6400 33.0627 -0.0317
49.6600 33.0760 -0.0152
49.6800 33.0894 -0.0212
49.7000 33.1027 -0.0358
49.7200 33.1160 -0.0163
49.7400 33.1294 -0.0247
49.7600 33.1427 -0.0344
49.7800 33.1560 -0.0225
49.8000 33.1693 -0.0215
49.8200 33.1827 -0.0322
49.8400 33.1961 -0.0287
49.8600 33.2095 -0.0338
49.8800 33.2228 -0.0348
49.9000 33.2361 -0.0277
49.9200 33.2494 -0.0281
49.9400 33.2628 -0.0441
49.9600 33.2761 -0.0278
49.9800 33.2894 -0.0268
50.0000 33.3027 -0.0413
50.0200 33.3161 -0.0329
50.0400 33.3294 -0.0315
50.0600 33.3427 -0.0450
50.0800 33.3560 -0.0381
50.1000 33.3693 -0.0385
50.1200 33.3827 -0.0425
50.1400 33.3961 -0.0447
50.1600 33.4094 -0.0387
50.1800 33.4227 -0.0461
50.2000 33.4361 -0.0364
50.2200 33.4494 -0.0433
50.2400 33.4627 -0.0522
50.2600 33.4761 -0.0435
50.2800 33.4894 -0.0417
50.3000 33.5028 -0.0559
50.3200 33.5161 -0.0486
50.3400 33.5294 -0.0409
50.3600 33.5427 -0.0544
50.3800 33.5561 -0.0486
50.4000 33.5694 -0.0434
50.4200 33.5827 -0.0553
50.4400 33.5960 -0.0554
50.4600 33.6093 -0.0453
50.4800 33.6227 -0.0583
50.5000 33.6360 -0.0542
50.5200 33.6493 -0.0509
50.5400 33.6627 -0.0555
50.5600 33.6761 -0.0561
50.5800 33.6895 -0.0499
50.6000 33.7028 -0.0581
50.6200 33.7161 -0.0527
50.6400 33.7295 -0.0542
50.6600 33.7428 -0.0649
50.6800 33.7561 -0.0567
50.7000 33.7694 -0.0590
50.7200 33.7827 -0.0679
50.7400 33.7960 -0.0594
50.7600 33.8094 -0.0634
50.7800 33.8227 -0.0654
50.8000 33.8360 -0.0599
50.8200 33.8493 -0.0627
50.8400 33.8627 -0.0698
50.8600 33.8761 -0.0656
50.8800 33.8894 -0.0659
50.9000 33.9027 -0.0700
50.9200 33.9161 -0.0667
50.9400 33.9295 -0.0779
50.9600 33.9428 -0.0710
50.9800 33.9561 -0.0678
51.0000 33.9694 -0.0736
51.0200 33.9827 -0.0716
51.0400 33.9961 -0.0695
51.0600 34.0094 -0.0785
51.0800 34.0227 -0.0719
51.1000 34.0360 -0.0725
51.1200 34.0494 -0.0812
51.1400 34.0627 -0.0780
51.1600 34.0760 -0.0760
51.1800 34.0893 -0.0827
51.2000 34.1027 -0.0740
51.2200 34.1161 -0.0841
51.2400 34.1294 -0.0819
51.2600 34.1427 -0.0813
51.2800 34.1561 -0.0845
51.3000 34.1695 -0.0892
51.3200 34.1828 -0.0861
51.3400 34.1961 -0.0794
51.3600 34.2094 -0.0877
51.3800 34.2228 -0.0891
51.4000 34.2361 -0.0847
51.4200 34.2494 -0.0909
51.4400 34.2627 -0.0891
51.4600 34.2760 -0.0854
51.4800 34.2894 -0.0943
51.5000 34.3027 -0.0937
51.5200 34.3160 -0.0877
51.5400 34.3293 -0.0954
51.5600 34.3427 -0.0937
51.5800 34.3560 -0.0851
51.6000 34.3694 -0.1044
51.6200 34.3827 -0.0952
51.6400 34.3961 -0.0899
51.6600 34.4094 -0.1039
51.6800 34.4228 -0.0927
51.7000 34.4361 -0.0966
51.7200 34.4495 -0.1083
51.7400 34.4628 -0.0961
51.7600 34.4761 -0.1024
51.7800 34.4894 -0.1043
51.8000 34.5027 -0.1007
51.8200 34.5160 -0.1030
51.8400 34.5294 -0.1099
51.8600 34.5427 -0.1037
51.8800 34.5560 -0.1075
51.9000 34.5693 -0.1096
51.9200 34.5827 -0.1045
51.9400 34.5960 -0.1142
51.9600 34.6094 -0.1147
51.9800 34.6227 -0.1082
52.0000 34.6360 -0.1146
52.0200 34.6494 -0.1127
52.0400 34.6627 -0.1090
52.0600 34.6761 -0.1140
52.0800 34.6894 -0.1152
52.1000 34.7028 -0.1131
52.1200 34.7161 -0.1191
52.1400 34.7294 -0.1140
52.1600 34.7427 -0.1131
52.1800 34.7560 -0.1189
52.2000 34.7694 -0.1181
52.2200 34.7827 -0.1178
52.2400 34.7960 -0.1151
52.2600 34.8093 -0.1243
52.2800 34.8227 -0.1144
52.3000 34.8360 -0.1250
52.3200 34.8494 -0.1248
52.3400 34.8627 -0.1214
52.3600 34.8761 -0.1247
52.3800 34.8895 -0.1264
52.4000 34.9028 -0.1238
52.4200 34.9161 -0.1232
52.4400 34.9294 -0.1309
52.4600 34.9428 -0.1256
52.4800 34.9561 -0.1220
52.5000 34.9694 -0.1371
52.5200 34.9827 -0.1263
52.5400 34.9960 -0.1258
52.5600 35.0094 -0.1413
52.5800 35.0227 -0.1323
52.6000 35.0360 -0.1261
52.6200 35.0493 -0.1406
52.6400 35.0627 -0.1325
52.6600 35.0760 -0.1270
52.6800 35.0894 -0.1470
52.7000 35.1027 -0.1306
52.7200 35.1161 -0.1343
52.7400 35.1294 -0.1474
52.7600 35.1428 -0.1343
52.7800 35.1561 -0.1350
52.8000 35.1694 -0.1497
52.8200 35.1828 -0.1330
52.8400 35.1961 -0.1368
52.8600 35.2094 -0.1506
52.8800 35.2227 -0.1336
52.9000 35.2360 -0.1407
52.9200 35.2493 -0.1592
52.9400 35.2627 -0.1324
52.9600 35.2760 -0.1436
52.9800 35.2893 -0.1583
53.0000 35.3027 -0.1352
53.0200 35.3161 -0.1499
53.0400 35.3294 -0.1613
53.0600 35.3428 -0.1373
53.0800 35.3561 -0.1481
53.1000 35.3695 -0.1619
53.1200 35.3828 -0.1434
53.1400 35.3961 -0.1555
53.1600 35.4094 -0.1604
53.1800 35.4227 -0.1449
53.2000 35.4361 -0.1548
53.2200 35.4494 -0.1603
53.2400 35.4628 -0.1489
53.2600 35.4761 -0.1600
53.2800 35.4894 -0.1583
53.3000 35.5028 -0.1507
53.3200 35.5160 -0.1593
53.3400 35.5293 -0.1654
53.3600 35.5427 -0.1550
53.3800 35.5560 -0.1631
53.4000 35.5694 -0.1619
53.4200 35.5827 -0.1565
53.4400 35.5960 -0.1588
53.4600 35.6094 -0.1730
53.4800 35.6228 -0.1595
53.5000 35.6361 -0.1611
53.5200 35.6494 -0.1715
53.5400 35.6628 -0.1651
53.5600 35.6761 -0.1633
53.5800 35.6894 -0.1770
53.6000 35.7027 -0.1634
53.6200 35.7161 -0.1654
53.6400 35.7294 -0.1757
53.6600 35.7427 -0.1694
53.6800 35.7560 -0.1701
53.7000 35.7693 -0.1736
53.7200 35.7826 -0.1696
53.7400 35.7960 -0.1717
53.7600 35.8093 -0.1829
53.7800 35.8227 -0.1725
53.8000 35.8360 -0.1745
53.8200 35.8494 -0.1840
53.8400 35.8628 -0.1775
53.8600 35.8761 -0.1766
53.8800 35.8894 -0.1844
53.9000 35.9028 -0.1771
53.9200 35.9161 -0.1796
53.9400 35.9294 -0.1849
53.9600 35.9427 -0.1803
53.9800 35.9560 -0.1773
54.0000 35.9694 -0.1882
54.0200 35.9827 -0.1813
54.0400 35.9960 -0.1840
54.0600 36.0093 -0.1856
54.0800 36.0227 -0.1910
54.1000 36.0361 -0.1817
54.1200 36.0494 -0.1880
54.1400 36.0627 -0.1929
54.1600 36.0760 -0.1822
54.1800 36.0894 -0.1901
54.2000 36.1027 -0.1990
54.2200 36.1161 -0.1878
54.2400 36.1294 -0.1975
54.2600 36.1428 -0.1973
54.2800 36.1561 -0.1885
54.3000 36.1695 -0.1984
54.3200 36.1828 -0.1978
54.3400 36.1961 -0.1914
54.3600 36.2094 -0.2050
54.3800 36.2228 -0.2030
54.4000 36.2360 -0.1974
54.4200 36.2493 -0.2108
54.4400 36.2627 -0.1996
54.4600 36.2760 -0.2018
54.4800 36.2894 -0.2110
54.5000 36.3027 -0.2070
54.5200 36.3161 -0.1998
54.5400 36.3294 -0.2052
54.5600 36.3428 -0.2096
54.5800 36.3561 -0.2104
54.6000 36.3694 -0.2083
54.6200 36.3828 -0.2147
54.6400 36.3961 -0.2140
54.6600 36.4094 -0.2099
54.6800 36.4227 -0.2140
54.7000 36.4360 -0.2169
54.7200 36.4494 -0.2109
54.7400 36.4627 -0.2172
54.7600 36.4760 -0.2154
54.7800 36.4893 -0.2138
54.8000 36.5027 -0.2232
54.8200 36.5160 -0.2192
54.8400 36.5294 -0.2171
54.8600 36.5427 -0.2233
54.8800 36.5560 -0.2172
54.9000 36.5694 -0.2223
54.9200 36.5828 -0.2263
54.9400 36.5961 -0.2174
54.9600 36.6094 -0.2201
54.9800 36.6228 -0.2285
55.0000 36.6361 -0.2236
55.0200 36.6494 -0.2260
55.0400 36.6627 -0.2364
55.0600 36.6760 -0.2224
55.0800 36.6894 -0.2286
55.1000 36.7027 -0.2357
55.1200 36.7160 -0.2311
55.1400 36.7293 -0.2272
55.1600 36.7426 -0.2326
55.1800 36.7560 -0.2319
55.2000 36.7694 -0.2358
55.2200 36.7827 -0.2404
55.2400 36.7960 -0.2365
55.2600 36.8094 -0.2383
55.2800 36.8227 -0.2434
55.3000 36.8360 -0.2388
55.3200 36.8494 -0.2400
55.3400 36.8627 -0.2388
55.3600 36.8761 -0.2421
55.3800 36.8894 -0.2438
55.4000 36.9028 -0.2440
55.4200 36.9161 -0.2435
55.4400 36.9294 -0.2463
55.4600 36.9428 -0.2516
55.4800 36.9561 -0.2493
55.5000 36.9694 -0.2518
55.5200 36.9827 -0.2499
55.5400 36.9960 -0.2498
55.5600 37.0093 -0.2507
55.5800 37.0227 -0.2565
55.6000 37.0360 -0.2544
55.6200 37.0494 -0.2520
55.6400 37.0628 -0.2609
55.6600 37.0761 -0.2610
55.6800 37.0895 -0.2551
55.7000 37.1028 -0.2638
55.7200 37.1161 -0.2607
55.7400 37.1295 -0.2546
55.7600 37.1428 -0.2599
55.7800 37.1561 -0.2686
55.8000 37.1694 -0.2533
55.8200 37.1827 -0.2645
55.8400 37.1960 -0.2734
55.8600 37.2093 -0.2566
55.8800 37.2226 -0.2698
55.9000 37.2360 -0.2755
55.9200 37.2493 -0.2541
55.9400 37.2627 -0.2753
55.9600 37.2760 -0.2724
55.9800 37.2894 -0.2593
56.0000 37.3028 -0.2826
56.0200 37.3161 -0.2732
56.0400 37.3294 -0.2594
56.0600 37.3428 -0.2823
56.0800 37.3561 -0.2769
56.1000 37.3695 -0.2634
56.1200 37.3828 -0.2867
56.1400 37.3961 -0.2715
56.1600 37.4094 -0.2697
56.1800 37.4227 -0.2841
56.2000 37.4360 -0.2766
56.2200 37.4493 -0.2747
56.2400 37.4627 -0.2831
56.2600 37.4760 -0.2735
56.2800 37.4894 -0.2786
56.3000 37.5027 -0.2894
56.3200 37.5160 -0.2759
56.3400 37.5294 -0.2813
56.3600 37.5428 -0.2973
56.3800 37.5561 -0.2792
56.4000 37.5694 -0.2870
56.4200 37.5827 -0.2948
56.4400 37.5961 -0.2837
56.4600 37.6094 -0.2851
56.4800 37.6227 -0.2948
56.5000 37.6361 -0.2890
56.5200 37.6494 -0.2897
56.5400 37.6627 -0.2952
56.5600 37.6761 -0.2940
56.5800 37.6893 -0.2946
56.6000 37.7026 -0.2966
56.6200 37.7160 -0.2967
56.6400 37.7294 -0.2992
56.6600 37.7427 -0.2976
56.6800 37.7560 -0.2991
56.7000 37.7694 -0.2934
56.7200 37.7828 -0.3000
56.7400 37.7961 -0.3075
56.7600 37.8094 -0.2983
56.7800 37.8228 -0.3028
56.8000 37.8361 -0.3097
56.8200 37.8494 -0.3014
56.8400 37.8627 -0.3054
56.8600 37.8760 -0.3129
56.8800 37.8894 -0.2995
56.9000 37.9027 -0.3033
56.9200 37.9161 -0.3143
56.9400 37.9294 -0.3093
56.9600 37.9427 -0.3075
56.9800 37.9560 -0.3185
57.0000 37.9694 -0.3048
57.0200 37.9827 -0.3122
57.0400 37.9960 -0.3248
57.0600 38.0094 -0.3059
57.0800 38.0228 -0.3127
57.1000 38.0361 -0.3273
57.1200 38.0494 -0.3064
57.1400 38.0628 -0.3129
57.1600 38.0761 -0.3278
57.1800 38.0895 -0.3101
57.2000 38.1028 -0.3214
57.2200 38.1161 -0.3276
57.2400 38.1294 -0.3125
57.2600 38.1427 -0.3269
57.2800 38.1560 -0.3295
57.3000 38.1694 -0.3092
57.3200 38.1827 -0.3335
57.3400 38.1960 -0.3279
57.3600 38.2094 -0.3198
57.3800 38.2227 -0.3341
57.4000 38.2360 -0.3346
57.4200 38.2494 -0.3235
57.4400 38.2628 -0.3393
57.4600 38.2761 -0.3319
57.4800 38.2894 -0.3262
57.5000 38.3027 -0.3397
57.5200 38.3161 -0.3359
57.5400 38.3295 -0.3252
57.5600 38.3428 -0.3440
57.5800 38.3561 -0.3413
57.6000 38.3694 -0.3317
57.6200 38.3827 -0.3457
57.6400 38.3961 -0.3436
57.6600 38.4093 -0.3346
57.6800 38.4226 -0.3423
57.7000 38.4360 -0.3463
57.7200 38.4493 -0.3452
57.7400 38.4627 -0.3404
57.7600 38.4760 -0.3528
57.7800 38.4894 -0.3545
57.8000 38.5027 -0.3483
57.8200 38.5161 -0.3563
57.8400 38.5295 -0.3520
57.8600 38.5428 -0.3495
57.8800 38.5561 -0.3550
57.9000 38.5695 -0.3581
57.9200 38.5828 -0.3548
57.9400 38.5961 -0.3605
57.9600 38.6094 -0.3508
57.9800 38.6227 -0.3530
58.0000 38.6360 -0.3681
58.0200 38.6493 -0.3595
58.0400 38.6627 -0.3597
58.0600 38.6760 -0.3670
58.0800 38.6894 -0.3619
58.1000 38.7027 -0.3699
58.1200 38.7161 -0.3692
58.1400 38.7294 -0.3607
58.1600 38.7428 -0.3685
58.1800 38.7561 -0.3714
58.2000 38.7695 -0.3671
58.2200 38.7827 -0.3714
58.2400 38.7961 -0.3759
58.2600 38.8094 -0.3681
58.2800 38.8227 -0.3767
58.3000 38.8361 -0.3769
58.3200 38.8494 -0.3795
58.3400 38.8627 -0.3785
58.3600 38.8761 -0.3751
58.3800 38.8894 -0.3798
58.4000 38.9027 -0.3773
58.4200 38.9160 -0.3825
58.4400 38.9294 -0.3894
58.4600 38.9427 -0.3837
58.4800 38.9561 -0.3876
58.5000 38.9694 -0.3844
58.5200 38.9828 -0.3878
58.5400 38.9961 -0.3976
58.5600 39.0094 -0.3885
58.5800 39.0227 -0.3839
58.6000 39.0361 -0.3964
58.6200 39.0495 -0.3940
58.6400 39.0628 -0.3921
58.6600 39.0761 -0.4041
58.6800 39.0894 -0.3968
58.7000 39.1027 -0.3917
58.7200 39.1161 -0.4064
58.7400 39.1294 -0.3974
58.7600 39.1427 -0.4028
58.7800 39.1560 -0.4076
58.8000 39.1694 -0.3984
58.8200 39.1827 -0.4040
58.8400 39.1960 -0.4097
58.8600 39.2094 -0.4044
58.8800 39.2227 -0.4112
58.9000 39.2361 -0.4164
58.9200 39.2495 -0.4109
58.9400 39.2628 -0.4141
58.9600 39.2761 -0.4147
58.9800 39.2894 -0.4144
59.0000 39.3027 -0.4153
59.0200 39.3160 -0.4168
59.0400 39.3294 -0.4186
59.0600 39.3427 -0.4232
59.0800 39.3561 -0.4184
59.1000 39.3694 -0.4263
59.1200 39.3827 -0.4248
59.1400 39.3960 -0.4197
59.1600 39.4094 -0.4243
59.1800 39.4227 -0.4336
59.2000 39.4360 -0.4169
59.2200 39.4494 -0.4341
59.2400 39.4627 -0.4333
59.2600 39.4761 -0.4262
59.2800 39.4894 -0.4384
59.3000 39.5027 -0.4367
59.3200 39.5161 -0.4275
59.3400 39.5295 -0.4460
59.3600 39.5428 -0.4400
59.3800 39.5561 -0.4275
59.4000 39.5694 -0.4454
59.4200 39.5827 -0.4390
59.4400 39.5961 -0.4353
59.4600 39.6094 -0.4552
59.4800 39.6227 -0.4446
59.5000 39.6360 -0.4352
59.5200 39.6494 -0.4618
59.5400 39.6627 -0.4467
59.5600 39.6760 -0.4426
59.5800 39.6894 -0.4642
59.6000 39.7028 -0.4487
59.6200 39.7161 -0.4485
59.6400 39.7295 -0.4693
59.6600 39.7428 -0.4501
59.6800 39.7561 -0.4546
59.7000 39.7695 -0.4741
59.7200 39.7828 -0.4548
59.7400 39.7961 -0.4600
59.7600 39.8094 -0.4762
59.7800 39.8227 -0.4540
59.8000 39.8361 -0.4653
59.8200 39.8494 -0.4795
59.8400 39.8627 -0.4621
59.8600 39.8760 -0.4618
59.8800 39.8894 -0.4855
59.9000 39.9027 -0.4674
59.9200 39.9160 -0.4726
59.9400 39.9294 -0.4859
59.9600 39.9427 -0.4703
59.9800 39.9561 -0.4758
60.0000 39.9694 -0.4877
60.0200 39.9828 -0.4782
60.0400 39.9961 -0.4870
60.0470 40.0006 -0.5078
