Raw Data
Time Displacement Force
(s) (mm) (N)
0.0000 0.0000 0.1013
0.0200 0.0001 0.1253
0.0400 0.0021 0.1855
0.0600 0.0098 0.1744
0.0800 0.0218 0.1067
0.1000 0.0343 0.1003
0.1200 0.0469 0.1351
0.1400 0.0603 0.1155
0.1600 0.0743 0.1109
0.1800 0.0884 0.1144
0.2000 0.1024 0.1050
0.2200 0.1160 0.1094
0.2400 0.1293 0.1213
0.2600 0.1426 0.1037
0.2800 0.1559 0.1160
0.3000 0.1693 0.1201
0.3200 0.1827 0.1013
0.3400 0.1961 0.1189
0.3600 0.2094 0.1112
0.3800 0.2227 0.1012
0.4000 0.2361 0.1158
0.4200 0.2494 0.1053
0.4400 0.2627 0.1011
0.4600 0.2760 0.1115
0.4800 0.2894 0.1013
0.5000 0.3027 0.1018
0.5200 0.3160 0.1046
0.5400 0.3293 0.1035
0.5600 0.3426 0.0984
0.5800 0.3560 0.0987
0.6000 0.3694 0.0960
0.6200 0.3827 0.1032
0.6400 0.3961 0.0939
0.6600 0.4095 0.0909
0.6800 0.4228 0.1009
0.7000 0.4361 0.0849
0.7200 0.4494 0.0909
0.7400 0.4628 0.1019
0.7600 0.4761 0.0806
0.7800 0.4894 0.0877
0.8000 0.5027 0.0933
0.8200 0.5160 0.0837
0.8400 0.5294 0.0828
0.8600 0.5427 0.0913
0.8800 0.5560 0.0792
0.9000 0.5693 0.0835
0.9200 0.5826 0.0859
0.9400 0.5960 0.0780
0.9600 0.6093 0.0795
0.9800 0.6227 0.0833
1.0000 0.6360 0.0765
1.0200 0.6494 0.0697
1.0400 0.6628 0.0827
1.0600 0.6761 0.0749
1.0800 0.6894 0.0674
1.1000 0.7027 0.0802
1.1200 0.7161 0.0736
1.1400 0.7294 0.0624
1.1600 0.7427 0.0775
1.1800 0.7560 0.0678
1.2000 0.7694 0.0611
1.2200 0.7827 0.0722
1.2400 0.7960 0.0654
1.2600 0.8093 0.0588
1.2800 0.8227 0.0735
1.3000 0.8360 0.0574
1.3200 0.8494 0.0560
1.3400 0.8627 0.0715
1.3600 0.8760 0.0542
1.3800 0.8894 0.0524
1.4000 0.9027 0.0673
1.4200 0.9161 0.0497
1.4400 0.9294 0.0571
1.4600 0.9427 0.0661
1.4800 0.9561 0.0508
1.5000 0.9695 0.0557
1.5200 0.9828 0.0574
1.5400 0.9960 0.0463
1.5600 1.0094 0.0558
1.5800 1.0227 0.0520
1.6000 1.0360 0.0444
1.6200 1.0493 0.0535
1.6400 1.0626 0.0465
1.6600 1.0760 0.0462
1.6800 1.0894 0.0490
1.7000 1.1027 0.0475
1.7200 1.1160 0.0401
1.7400 1.1294 0.0424
1.7600 1.1428 0.0424
1.7800 1.1561 0.0423
1.8000 1.1694 0.0366
1.8200 1.1827 0.0417
1.8400 1.1961 0.0417
1.8600 1.2094 0.0351
1.8800 1.2227 0.0392
1.9000 1.2360 0.0409
1.9200 1.2494 0.0350
1.9400 1.2627 0.0390
1.9600 1.2760 0.0348
1.9800 1.2893 0.0318
2.0000 1.3027 0.0362
2.0200 1.3160 0.0316
2.0400 1.3294 0.0304
2.0600 1.3427 0.0354
2.0800 1.3560 0.0255
2.1000 1.3694 0.0289
2.1200 1.3828 0.0364
2.1400 1.3961 0.0156
2.1600 1.4095 0.0265
2.1800 1.4228 0.0334
2.2000 1.4361 0.0161
2.2200 1.4494 0.0227
2.2400 1.4627 0.0292
2.2600 1.4760 0.0167
2.2800 1.4893 0.0249
2.3000 1.5027 0.0203
2.3200 1.5160 0.0171
2.3400 1.5293 0.0213
2.3600 1.5427 0.0208
2.3800 1.5561 0.0106
2.4000 1.5694 0.0170
2.4200 1.5828 0.0135
2.4400 1.5961 0.0110
2.4600 1.6094 0.0128
2.4800 1.6228 0.0082
2.5000 1.6361 0.0095
2.5200 1.6494 0.0123
2.5400 1.6627 0.0069
2.5600 1.6761 0.0099
2.5800 1.6894 0.0099
2.6000 1.7028 0.0084
2.6200 1.7161 0.0077
2.6400 1.7294 0.0118
2.6600 1.7428 0.0061
2.6800 1.7561 0.0052
2.7000 1.7694 0.0104
2.7200 1.7827 0.0048
2.7400 1.7960 0.0044
2.7600 1.8093 0.0074
2.7800 1.8227 0.0053
2.8000 1.8360 0.0009
2.8200 1.8494 0.0065
2.8400 1.8627 -0.0028
2.8600 1.8761 0.0003
2.8800 1.8894 0.0026
2.9000 1.9027 0.0000
2.9200 1.9161 -0.0038
2.9400 1.9294 -0.0008
2.9600 1.9427 -0.0050
2.9800 1.9561 -0.0013
3.0000 1.9694 -0.0102
3.0200 1.9828 -0.0068
3.0400 1.9961 -0.0079
3.0600 2.0094 -0.0079
3.0800 2.0227 -0.0070
3.1000 2.0360 -0.0102
3.1200 2.0493 -0.0079
3.1400 2.0627 -0.0118
3.1600 2.0760 -0.0117
3.1800 2.0894 -0.0132
3.2000 2.1028 -0.0112
3.2200 2.1161 -0.0135
3.2400 2.1294 -0.0164
3.2600 2.1428 -0.0089
3.2800 2.1561 -0.0172
3.3000 2.1694 -0.0169
3.3200 2.1827 -0.0127
3.3400 2.1960 -0.0186
3.3600 2.2094 -0.0139
3.3800 2.2227 -0.0167
3.4000 2.2360 -0.0182
3.4200 2.2494 -0.0135
3.4400 2.2627 -0.0165
3.4600 2.2760 -0.0285
3.4800 2.2894 -0.0154
3.5000 2.3027 -0.0157
3.5200 2.3160 -0.0331
3.5400 2.3294 -0.0198
3.5600 2.3427 -0.0157
3.5800 2.3561 -0.0400
3.6000 2.3694 -0.0236
3.6200 2.3828 -0.0205
3.6400 2.3961 -0.0374
3.6600 2.4095 -0.0321
3.6800 2.4228 -0.0258
3.7000 2.4361 -0.0374
3.7200 2.4494 -0.0280
3.7400 2.4627 -0.0263
3.7600 2.4760 -0.0433
3.7800 2.4893 -0.0314
3.8000 2.5026 -0.0332
3.8200 2.5160 -0.0400
3.8400 2.5293 -0.0359
3.8600 2.5427 -0.0335
3.8800 2.5560 -0.0413
3.9000 2.5694 -0.0355
3.9200 2.5828 -0.0328
3.9400 2.5961 -0.0403
3.9600 2.6095 -0.0391
3.9800 2.6228 -0.0296
4.0000 2.6361 -0.0423
4.0200 2.6494 -0.0397
4.0400 2.6627 -0.0319
4.0600 2.6761 -0.0417
4.0800 2.6894 -0.0415
4.1000 2.7027 -0.0329
4.1200 2.7160 -0.0433
4.1400 2.7294 -0.0434
4.1600 2.7427 -0.0356
4.1800 2.7560 -0.0445
4.2000 2.7693 -0.0448
4.2200 2.7827 -0.0403
4.2400 2.7960 -0.0492
4.2600 2.8093 -0.0440
4.2800 2.8227 -0.0432
4.3000 2.8361 -0.0514
4.3200 2.8494 -0.0496
4.3400 2.8627 -0.0492
4.3600 2.8761 -0.0513
4.3800 2.8895 -0.0494
4.4000 2.9028 -0.0511
4.4200 2.9161 -0.0546
4.4400 2.9294 -0.0503
4.4600 2.9427 -0.0544
4.4800 2.9561 -0.0533
4.5000 2.9694 -0.0589
4.5200 2.9827 -0.0496
4.5400 2.9960 -0.0574
4.5600 3.0094 -0.0570
4.5800 3.0227 -0.0526
4.6000 3.0360 -0.0560
4.6200 3.0494 -0.0631
4.6400 3.0627 -0.0536
4.6600 3.0760 -0.0621
4.6800 3.0894 -0.0643
4.7000 3.1027 -0.0549
4.7200 3.1160 -0.0639
4.7400 3.1294 -0.0700
4.7600 3.1428 -0.0577
4.7800 3.1561 -0.0669
4.8000 3.1694 -0.0675
4.8200 3.1828 -0.0615
4.8400 3.1961 -0.0691
4.8600 3.2094 -0.0714
4.8800 3.2227 -0.0603
4.9000 3.2360 -0.0700
4.9200 3.2493 -0.0699
4.9400 3.2627 -0.0607
4.9600 3.2760 -0.0727
4.9800 3.2894 -0.0665
5.0000 3.3028 -0.0645
5.0200 3.3162 -0.0722
5.0400 3.3295 -0.0732
5.0600 3.3428 -0.0630
5.0800 3.3561 -0.0803
5.1000 3.3695 -0.0721
5.1200 3.3828 -0.0674
5.1400 3.3961 -0.0803
5.1600 3.4094 -0.0690
5.1800 3.4227 -0.0673
5.2000 3.4360 -0.0839
5.2200 3.4493 -0.0706
5.2400 3.4626 -0.0752
5.2600 3.4760 -0.0802
5.2800 3.4893 -0.0759
5.3000 3.5027 -0.0785
5.3200 3.5160 -0.0822
5.3400 3.5294 -0.0723
5.3600 3.5427 -0.0850
5.3800 3.5561 -0.0862
5.4000 3.5695 -0.0748
5.4200 3.5828 -0.0881
5.4400 3.5961 -0.0848
5.4600 3.6095 -0.0779
5.4800 3.6228 -0.0901
5.5000 3.6361 -0.0877
5.5200 3.6494 -0.0812
5.5400 3.6627 -0.0867
5.5600 3.6760 -0.0872
5.5800 3.6893 -0.0867
5.6000 3.7026 -0.0874
5.6200 3.7160 -0.0868
5.6400 3.7294 -0.0899
5.6600 3.7427 -0.0916
5.6800 3.7560 -0.0867
5.7000 3.7694 -0.0911
5.7200 3.7827 -0.0891
5.7400 3.7961 -0.0942
5.7600 3.8094 -0.0880
5.7800 3.8227 -0.0907
5.8000 3.8361 -0.0952
5.8200 3.8494 -0.0951
5.8400 3.8628 -0.0865
5.8600 3.8761 -0.0931
5.8800 3.8894 -0.0968
5.9000 3.9027 -0.0886
5.9200 3.9161 -0.0955
5.9400 3.9294 -0.0976
5.9600 3.9427 -0.0901
5.9800 3.9560 -0.0985
6.0000 3.9693 -0.0949
6.0200 3.9827 -0.0928
6.0400 3.9960 -0.1002
6.0600 4.0094 -0.0906
6.0800 4.0227 -0.0973
6.1000 4.0361 -0.0970
6.1200 4.0494 -0.0958
6.1400 4.0628 -0.0945
6.1600 4.0761 -0.1037
6.1800 4.0894 -0.0940
6.2000 4.1028 -0.0973
6.2200 4.1161 -0.1053
6.2400 4.1294 -0.0977
6.2600 4.1427 -0.0966
6.2800 4.1561 -0.1107
6.3000 4.1694 -0.0983
6.3200 4.1827 -0.1026
6.3400 4.1960 -0.1084
6.3600 4.2093 -0.1006
6.3800 4.2227 -0.1062
6.4000 4.2360 -0.1114
6.4200 4.2494 -0.1026
6.4400 4.2627 -0.1097
6.4600 4.2761 -0.1094
6.4800 4.2894 -0.1057
6.5000 4.3027 -0.1128
6.5200 4.3161 -0.1126
6.5400 4.3294 -0.1069
6.5600 4.3428 -0.1126
6.5800 4.3561 -0.1105
6.6000 4.3694 -0.1069
6.6200 4.3827 -0.1147
6.6400 4.3960 -0.1127
6.6600 4.4094 -0.1107
6.6800 4.4227 -0.1170
6.7000 4.4360 -0.1144
6.7200 4.4493 -0.1102
6.7400 4.4627 -0.1165
6.7600 4.4760 -0.1156
6.7800 4.4893 -0.1107
6.8000 4.5027 -0.1135
6.8200 4.5161 -0.1206
6.8400 4.5294 -0.1106
6.8600 4.5427 -0.1187
6.8800 4.5561 -0.1157
6.9000 4.5694 -0.1127
6.9200 4.5828 -0.1235
6.9400 4.5961 -0.1191
6.9600 4.6094 -0.1124
6.9800 4.6227 -0.1204
7.0000 4.6361 -0.1147
7.0200 4.6494 -0.1162
7.0400 4.6626 -0.1193
7.0600 4.6759 -0.1149
7.0800 4.6893 -0.1196
7.1000 4.7026 -0.1254
7.1200 4.7160 -0.1150
7.1400 4.7293 -0.1203
7.1600 4.7427 -0.1228
7.1800 4.7561 -0.1172
7.2000 4.7695 -0.1194
7.2200 4.7828 -0.1216
7.2400 4.7961 -0.1254
7.2600 4.8095 -0.1152
7.2800 4.8228 -0.1225
7.3000 4.8361 -0.1261
7.3200 4.8494 -0.1171
7.3400 4.8627 -0.1211
7.3600 4.8760 -0.1283
7.3800 4.8893 -0.1189
7.4000 4.9027 -0.1296
7.4200 4.9160 -0.1216
7.4400 4.9294 -0.1218
7.4600 4.9427 -0.1314
7.4800 4.9561 -0.1268
7.5000 4.9694 -0.1199
7.5200 4.9828 -0.1386
7.5400 4.9961 -0.1249
7.5600 5.0095 -0.1209
7.5800 5.0228 -0.1380
7.6000 5.0361 -0.1262
7.6200 5.0494 -0.1228
7.6400 5.0628 -0.1391
7.6600 5.0761 -0.1301
7.6800 5.0894 -0.1255
7.7000 5.1027 -0.1393
7.7200 5.1160 -0.1243
7.7400 5.1294 -0.1278
7.7600 5.1427 -0.1361
7.7800 5.1560 -0.1290
7.8000 5.1693 -0.1330
7.8200 5.1827 -0.1412
7.8400 5.1960 -0.1294
7.8600 5.2094 -0.1327
7.8800 5.2227 -0.1365
7.9000 5.2361 -0.1388
7.9200 5.2494 -0.1357
7.9400 5.2627 -0.1384
7.9600 5.2761 -0.1375
7.9800 5.2894 -0.1383
8.0000 5.3028 -0.1400
8.0200 5.3161 -0.1449
8.0400 5.3294 -0.1358
8.0600 5.3427 -0.1431
8.0800 5.3561 -0.1443
8.1000 5.3694 -0.1403
8.1200 5.3827 -0.1457
8.1400 5.3960 -0.1422
8.1600 5.4093 -0.1401
8.1800 5.4227 -0.1486
8.2000 5.4360 -0.1421
8.2200 5.4494 -0.1405
8.2400 5.4627 -0.1544
8.2600 5.4761 -0.1432
8.2800 5.4895 -0.1421
8.3000 5.5028 -0.1513
8.3200 5.5161 -0.1435
8.3400 5.5294 -0.1440
8.3600 5.5428 -0.1533
8.3800 5.5561 -0.1461
8.4000 5.5694 -0.1456
8.4200 5.5827 -0.1474
8.4400 5.5960 -0.1509
8.4600 5.6094 -0.1500
8.4800 5.6227 -0.1485
8.5000 5.6360 -0.1477
8.5200 5.6493 -0.1515
8.5400 5.6627 -0.1506
8.5600 5.6760 -0.1573
8.5800 5.6894 -0.1512
8.6000 5.7027 -0.1539
8.6200 5.7161 -0.1537
8.6400 5.7294 -0.1529
8.6600 5.7428 -0.1539
8.6800 5.7561 -0.1515
8.7000 5.7694 -0.1550
8.7200 5.7828 -0.1547
8.7400 5.7961 -0.1571
8.7600 5.8094 -0.1574
8.7800 5.8227 -0.1525
8.8000 5.8360 -0.1537
8.8200 5.8494 -0.1557
8.8400 5.8627 -0.1556
8.8600 5.8760 -0.1533
8.8800 5.8893 -0.1576
8.9000 5.9027 -0.1586
8.9200 5.9160 -0.1555
8.9400 5.9294 -0.1592
8.9600 5.9427 -0.1600
8.9800 5.9561 -0.1667
9.0000 5.9695 -0.1593
9.0200 5.9828 -0.1620
9.0400 5.9961 -0.1654
9.0600 6.0094 -0.1627
9.0800 6.0228 -0.1619
9.1000 6.0361 -0.1664
9.1200 6.0494 -0.1649
9.1400 6.0627 -0.1668
9.1600 6.0760 -0.1634
9.1800 6.0894 -0.1663
9.2000 6.1027 -0.1723
9.2200 6.1160 -0.1652
9.2400 6.1293 -0.1675
9.2600 6.1427 -0.1724
9.2800 6.1560 -0.1687
9.3000 6.1693 -0.1704
9.3200 6.1827 -0.1727
9.3400 6.1961 -0.1714
9.3600 6.2095 -0.1726
9.3800 6.2228 -0.1781
9.4000 6.2361 -0.1669
9.4200 6.2494 -0.1706
9.4400 6.2628 -0.1838
9.4600 6.2761 -0.1671
9.4800 6.2893 -0.1730
9.5000 6.3026 -0.1809
9.5200 6.3160 -0.1709
9.5400 6.3293 -0.1747
9.5600 6.3427 -0.1808
9.5800 6.3560 -0.1638
9.6000 6.3693 -0.1825
9.6200 6.3827 -0.1831
9.6400 6.3961 -0.1702
9.6600 6.4094 -0.1832
9.6800 6.4227 -0.1843
9.7000 6.4361 -0.1679
9.7200 6.4495 -0.1855
9.7400 6.4628 -0.1837
9.7600 6.4761 -0.1741
9.7800 6.4894 -0.1826
9.8000 6.5028 -0.1820
9.8200 6.5161 -0.1795
9.8400 6.5294 -0.1834
9.8600 6.5427 -0.1812
9.8800 6.5561 -0.1805
9.9000 6.5694 -0.1839
9.9200 6.5827 -0.1785
9.9400 6.5960 -0.1780
9.9600 6.6093 -0.1851
9.9800 6.6227 -0.1800
10.0000 6.6360 -0.1776
10.0200 6.6493 -0.1804
10.0400 6.6627 -0.1798
10.0600 6.6760 -0.1848
10.0800 6.6894 -0.1833
10.1000 6.7028 -0.1807
10.1200 6.7161 -0.1799
10.1400 6.7294 -0.1851
10.1600 6.7428 -0.1789
10.1800 6.7561 -0.1850
10.2000 6.7694 -0.1832
10.2200 6.7827 -0.1770
10.2400 6.7961 -0.1856
10.2600 6.8094 -0.1861
10.2800 6.8227 -0.1788
10.3000 6.8360 -0.1880
10.3200 6.8493 -0.1823
10.3400 6.8627 -0.1808
10.3600 6.8760 -0.1908
10.3800 6.8893 -0.1848
10.4000 6.9027 -0.1815
10.4200 6.9161 -0.1909
10.4400 6.9294 -0.1817
10.4600 6.9428 -0.1847
10.4800 6.9561 -0.1885
10.5000 6.9694 -0.1782
10.5200 6.9828 -0.1894
10.5400 6.9961 -0.1855
10.5600 7.0094 -0.1819
10.5800 7.0227 -0.1879
10.6000 7.0360 -0.1856
10.6200 7.0494 -0.1811
10.6400 7.0627 -0.1888
10.6600 7.0760 -0.1817
10.6800 7.0893 -0.1865
10.7000 7.1027 -0.1901
10.7200 7.1161 -0.1827
10.7400 7.1294 -0.1925
10.7600 7.1427 -0.1898
10.7800 7.1560 -0.1769
10.8000 7.1694 -0.1948
10.8200 7.1827 -0.1897
10.8400 7.1961 -0.1808
10.8600 7.2094 -0.1973
10.8800 7.2228 -0.1885
10.9000 7.2361 -0.1870
10.9200 7.2494 -0.1962
10.9400 7.2627 -0.1831
10.9600 7.2760 -0.1900
10.9800 7.2894 -0.1960
11.0000 7.3027 -0.1835
11.0200 7.3160 -0.1891
11.0400 7.3293 -0.1943
11.0600 7.3426 -0.1891
11.0800 7.3560 -0.1910
11.1000 7.3694 -0.2000
11.1200 7.3827 -0.1887
11.1400 7.3961 -0.1916
11.1600 7.4095 -0.1986
11.1800 7.4228 -0.1936
11.2000 7.4361 -0.1942
11.2200 7.4494 -0.2029
11.2400 7.4628 -0.1893
11.2600 7.4761 -0.2001
11.2800 7.4894 -0.2042
11.3000 7.5027 -0.1915
11.3200 7.5161 -0.1996
11.3400 7.5294 -0.2097
11.3600 7.5427 -0.1940
11.3800 7.5560 -0.2038
11.4000 7.5694 -0.2095
11.4200 7.5827 -0.1993
11.4400 7.5960 -0.2024
11.4600 7.6093 -0.2095
11.4800 7.6227 -0.1976
11.5000 7.6361 -0.2075
11.5200 7.6494 -0.2176
11.5400 7.6628 -0.1981
11.5600 7.6761 -0.2085
11.5800 7.6894 -0.2192
11.6000 7.7028 -0.1991
11.6200 7.7161 -0.2088
11.6400 7.7294 -0.2214
11.6600 7.7427 -0.1973
11.6800 7.7560 -0.2110
11.7000 7.7694 -0.2224
11.7200 7.7827 -0.2003
11.7400 7.7960 -0.2130
11.7600 7.8093 -0.2187
11.7800 7.8227 -0.2025
11.8000 7.8360 -0.2182
11.8200 7.8494 -0.2124
11.8400 7.8627 -0.2104
11.8600 7.8760 -0.2168
11.8800 7.8894 -0.2130
11.9000 7.9027 -0.2112
11.9200 7.9160 -0.2176
11.9400 7.9294 -0.2105
11.9600 7.9427 -0.2138
11.9800 7.9561 -0.2209
12.0000 7.9694 -0.2111
12.0200 7.9828 -0.2133
12.0400 7.9961 -0.2118
12.0600 8.0094 -0.2120
12.0800 8.0228 -0.2170
12.1000 8.0360 -0.2100
12.1200 8.0493 -0.2184
12.1400 8.0626 -0.2179
12.1600 8.0760 -0.2112
12.1800 8.0893 -0.2190
12.2000 8.1027 -0.2130
12.2200 8.1160 -0.2136
12.2400 8.1294 -0.2204
12.2600 8.1428 -0.2169
12.2800 8.1561 -0.2126
12.3000 8.1695 -0.2189
12.3200 8.1828 -0.2132
12.3400 8.1961 -0.2103
12.3600 8.2094 -0.2168
12.3800 8.2227 -0.2135
12.4000 8.2360 -0.2086
12.4200 8.2494 -0.2176
12.4400 8.2627 -0.2108
12.4600 8.2760 -0.2152
12.4800 8.2893 -0.2146
12.5000 8.3027 -0.2108
12.5200 8.3160 -0.2155
12.5400 8.3294 -0.2174
12.5600 8.3427 -0.2139
12.5800 8.3560 -0.2147
12.6000 8.3694 -0.2180
12.6200 8.3828 -0.2122
12.6400 8.3961 -0.2157
12.6600 8.4095 -0.2142
12.6800 8.4228 -0.2153
12.7000 8.4361 -0.2093
12.7200 8.4494 -0.2138
12.7400 8.4627 -0.2155
12.7600 8.4760 -0.2120
12.7800 8.4894 -0.2152
12.8000 8.5027 -0.2183
12.8200 8.5160 -0.2119
12.8400 8.5293 -0.2178
12.8600 8.5427 -0.2146
12.8800 8.5560 -0.2196
12.9000 8.5694 -0.2170
12.9200 8.5827 -0.2197
12.9400 8.5961 -0.2124
12.9600 8.6094 -0.2183
12.9800 8.6228 -0.2225
13.0000 8.6361 -0.2184
13.0200 8.6494 -0.2165
13.0400 8.6628 -0.2272
13.0600 8.6761 -0.2171
13.0800 8.6894 -0.2190
13.1000 8.7028 -0.2313
13.1200 8.7161 -0.2137
13.1400 8.7294 -0.2174
13.1600 8.7427 -0.2347
13.1800 8.7560 -0.2094
13.2000 8.7693 -0.2206
13.2200 8.7826 -0.2391
13.2400 8.7960 -0.2113
13.2600 8.8094 -0.2251
13.2800 8.8227 -0.2342
13.3000 8.8361 -0.2130
13.3200 8.8495 -0.2312
13.3400 8.8628 -0.2392
13.3600 8.8761 -0.2115
13.3800 8.8894 -0.2347
13.4000 8.9027 -0.2400
13.4200 8.9161 -0.2175
13.4400 8.9294 -0.2359
13.4600 8.9427 -0.2361
13.4800 8.9560 -0.2181
13.5000 8.9694 -0.2412
13.5200 8.9827 -0.2309
13.5400 8.9961 -0.2243
13.5600 9.0094 -0.2412
13.5800 9.0227 -0.2286
13.6000 9.0360 -0.2237
13.6200 9.0493 -0.2441
13.6400 9.0627 -0.2324
13.6600 9.0760 -0.2301
13.6800 9.0894 -0.2398
13.7000 9.1028 -0.2305
13.7200 9.1161 -0.2293
13.7400 9.1294 -0.2399
13.7600 9.1428 -0.2326
13.7800 9.1561 -0.2362
13.8000 9.1695 -0.2386
13.8200 9.1827 -0.2309
13.8400 9.1960 -0.2397
13.8600 9.2094 -0.2421
13.8800 9.2227 -0.2321
13.9000 9.2360 -0.2388
13.9200 9.2493 -0.2401
13.9400 9.2627 -0.2380
13.9600 9.2760 -0.2460
13.9800 9.2894 -0.2356
14.0000 9.3027 -0.2420
14.0200 9.3160 -0.2404
14.0400 9.3294 -0.2358
14.0600 9.3428 -0.2439
14.0800 9.3561 -0.2457
14.1000 9.3694 -0.2338
14.1200 9.3827 -0.2481
14.1400 9.3961 -0.2449
14.1600 9.4094 -0.2426
14.1800 9.4227 -0.2486
14.2000 9.4361 -0.2418
14.2200 9.4494 -0.2396
14.2400 9.4627 -0.2538
14.2600 9.4760 -0.2449
14.2800 9.4893 -0.2403
14.3000 9.5026 -0.2535
14.3200 9.5160 -0.2459
14.3400 9.5293 -0.2452
14.3600 9.5427 -0.2566
14.3800 9.5560 -0.2472
14.4000 9.5694 -0.2471
14.4200 9.5828 -0.2521
14.4400 9.5961 -0.2504
14.4600 9.6095 -0.2525
14.4800 9.6228 -0.2489
14.5000 9.6361 -0.2508
14.5200 9.6494 -0.2502
14.5400 9.6627 -0.2529
14.5600 9.6760 -0.2495
14.5800 9.6893 -0.2492
14.6000 9.7027 -0.2529
14.6200 9.7160 -0.2531
14.6400 9.7293 -0.2483
14.6600 9.7427 -0.2546
14.6800 9.7561 -0.2528
14.7000 9.7694 -0.2524
14.7200 9.7827 -0.2534
14.7400 9.7961 -0.2508
14.7600 9.8094 -0.2495
14.7800 9.8228 -0.2570
14.8000 9.8361 -0.2496
14.8200 9.8494 -0.2492
14.8400 9.8627 -0.2555
14.8600 9.8761 -0.2540
14.8800 9.8894 -0.2462
14.9000 9.9027 -0.2542
14.9200 9.9160 -0.2529
14.9400 9.9293 -0.2460
14.9600 9.9427 -0.2579
14.9800 9.9560 -0.2482
15.0000 9.9693 -0.2453
15.0200 9.9827 -0.2492
15.0400 9.9960 -0.2474
15.0600 10.0094 -0.2504
15.0800 10.0227 -0.2586
15.1000 10.0360 -0.2426
15.1200 10.0494 -0.2524
15.1400 10.0628 -0.2603
15.1600 10.0761 -0.2443
15.1800 10.0894 -0.2460
15.2000 10.1027 -0.2643
15.2200 10.1161 -0.2453
15.2400 10.1294 -0.2508
15.2600 10.1427 -0.2611
15.2800 10.1560 -0.2453
15.3000 10.1694 -0.2530
15.3200 10.1827 -0.2624
15.3400 10.1960 -0.2470
15.3600 10.2093 -0.2562
15.3800 10.2226 -0.2583
15.4000 10.2360 -0.2469
15.4200 10.2493 -0.2587
15.4400 10.2627 -0.2631
15.4600 10.2760 -0.2497
15.4800 10.2894 -0.2623
15.5000 10.3028 -0.2633
15.5200 10.3161 -0.2536
15.5400 10.3294 -0.2654
15.5600 10.3428 -0.2616
15.5800 10.3561 -0.2590
15.6000 10.3695 -0.2620
15.6200 10.3827 -0.2625
15.6400 10.3960 -0.2546
15.6600 10.4094 -0.2656
15.6800 10.4227 -0.2600
15.7000 10.4360 -0.2585
15.7200 10.4493 -0.2610
15.7400 10.4627 -0.2643
15.7600 10.4760 -0.2589
15.7800 10.4894 -0.2605
15.8000 10.5027 -0.2647
15.8200 10.5160 -0.2620
15.8400 10.5294 -0.2597
15.8600 10.5427 -0.2644
15.8800 10.5561 -0.2549
15.9000 10.5694 -0.2576
15.9200 10.5827 -0.2659
15.9400 10.5961 -0.2564
15.9600 10.6095 -0.2600
15.9800 10.6228 -0.2630
16.0000 10.6361 -0.2599
16.0200 10.6494 -0.2607
16.0400 10.6627 -0.2574
16.0600 10.6760 -0.2602
16.0800 10.6893 -0.2613
16.1000 10.7027 -0.2585
16.1200 10.7160 -0.2595
16.1400 10.7293 -0.2610
16.1600 10.7427 -0.2615
16.1800 10.7560 -0.2581
16.2000 10.7694 -0.2649
16.2200 10.7828 -0.2609
16.2400 10.7961 -0.2642
16.2600 10.8094 -0.2619
16.2800 10.8227 -0.2619
16.3000 10.8361 -0.2677
16.3200 10.8494 -0.2638
16.3400 10.8628 -0.2584
16.3600 10.8760 -0.2715
16.3800 10.8894 -0.2656
16.4000 10.9027 -0.2626
16.4200 10.9161 -0.2670
16.4400 10.9294 -0.2647
16.4600 10.9427 -0.2608
16.4800 10.9560 -0.2753
16.5000 10.9693 -0.2598
16.5200 10.9827 -0.2597
16.5400 10.9960 -0.2803
16.5600 11.0094 -0.2628
16.5800 11.0228 -0.2597
16.6000 11.0361 -0.2794
16.6200 11.0494 -0.2655
16.6400 11.0628 -0.2620
16.6600 11.0761 -0.2798
16.6800 11.0894 -0.2642
16.7000 11.1027 -0.2662
16.7200 11.1160 -0.2752
16.7400 11.1293 -0.2643
16.7600 11.1427 -0.2681
16.7800 11.1560 -0.2784
16.8000 11.1693 -0.2584
16.8200 11.1827 -0.2727
16.8400 11.1960 -0.2736
16.8600 11.2094 -0.2660
16.8800 11.2228 -0.2727
16.9000 11.2361 -0.2743
16.9200 11.2494 -0.2661
16.9400 11.2628 -0.2759
16.9600 11.2761 -0.2735
16.9800 11.2894 -0.2671
17.0000 11.3027 -0.2737
17.0200 11.3161 -0.2716
17.0400 11.3294 -0.2693
17.0600 11.3428 -0.2760
17.0800 11.3561 -0.2738
17.1000 11.3694 -0.2682
17.1200 11.3827 -0.2810
17.1400 11.3961 -0.2720
17.1600 11.4094 -0.2671
17.1800 11.4227 -0.2790
17.2000 11.4360 -0.2743
17.2200 11.4494 -0.2708
17.2400 11.4627 -0.2809
17.2600 11.4760 -0.2675
17.2800 11.4894 -0.2768
17.3000 11.5027 -0.2805
17.3200 11.5161 -0.2715
17.3400 11.5294 -0.2823
17.3600 11.5427 -0.2799
17.3800 11.5561 -0.2649
17.4000 11.5694 -0.2856
17.4200 11.5828 -0.2823
17.4400 11.5961 -0.2693
17.4600 11.6094 -0.2779
17.4800 11.6228 -0.2838
17.5000 11.6361 -0.2706
17.5200 11.6494 -0.2854
17.5400 11.6627 -0.2819
17.5600 11.6760 -0.2714
17.5800 11.6893 -0.2862
17.6000 11.7027 -0.2818
17.6200 11.7160 -0.2724
17.6400 11.7294 -0.2886
17.6600 11.7428 -0.2806
17.6800 11.7561 -0.2747
17.7000 11.7694 -0.2955
17.7200 11.7827 -0.2764
17.7400 11.7961 -0.2724
17.7600 11.8094 -0.2949
17.7800 11.8228 -0.2768
17.8000 11.8361 -0.2680
17.8200 11.8494 -0.3010
17.8400 11.8627 -0.2734
17.8600 11.8760 -0.2736
17.8800 11.8894 -0.3002
17.9000 11.9027 -0.2711
17.9200 11.9160 -0.2777
17.9400 11.9294 -0.3030
17.9600 11.9427 -0.2695
17.9800 11.9561 -0.2838
18.0000 11.9694 -0.3001
18.0200 11.9827 -0.2718
18.0400 11.9961 -0.2819
18.0600 12.0094 -0.3020
18.0800 12.0227 -0.2703
18.1000 12.0361 -0.2839
18.1200 12.0494 -0.3024
18.1400 12.0628 -0.2682
18.1600 12.0761 -0.2867
18.1800 12.0894 -0.3009
18.2000 12.1027 -0.2733
18.2200 12.1161 -0.2893
18.2400 12.1294 -0.2947
18.2600 12.1427 -0.2733
18.2800 12.1560 -0.2926
18.3000 12.1693 -0.2956
18.3200 12.1827 -0.2745
18.3400 12.1960 -0.2857
18.3600 12.2094 -0.2925
18.3800 12.2228 -0.2782
18.4000 12.2361 -0.2952
18.4200 12.2495 -0.2894
18.4400 12.2627 -0.2758
18.4600 12.2761 -0.2947
18.4800 12.2894 -0.2939
18.5000 12.3028 -0.2743
18.5200 12.3160 -0.2930
18.5400 12.3294 -0.2916
18.5600 12.3427 -0.2797
18.5800 12.3561 -0.2863
18.6000 12.3694 -0.2931
18.6200 12.3827 -0.2834
18.6400 12.3960 -0.2937
18.6600 12.4094 -0.2911
18.6800 12.4227 -0.2870
18.7000 12.4360 -0.2906
18.7200 12.4494 -0.2864
18.7400 12.4627 -0.2888
18.7600 12.4761 -0.2917
18.7800 12.4894 -0.2939
18.8000 12.5027 -0.2850
18.8200 12.5161 -0.2903
18.8400 12.5294 -0.2964
18.8600 12.5428 -0.2852
18.8800 12.5561 -0.2919
18.9000 12.5694 -0.2986
18.9200 12.5827 -0.2853
18.9400 12.5960 -0.2867
18.9600 12.6094 -0.2992
18.9800 12.6227 -0.2904
19.0000 12.6360 -0.2874
19.0200 12.6494 -0.3019
19.0400 12.6627 -0.2871
19.0600 12.6760 -0.2900
19.0800 12.6893 -0.3044
19.1000 12.7027 -0.2943
19.1200 12.7160 -0.2869
19.1400 12.7294 -0.3035
19.1600 12.7427 -0.2915
19.1800 12.7560 -0.2913
19.2000 12.7694 -0.2999
19.2200 12.7827 -0.2986
19.2400 12.7961 -0.2894
19.2600 12.8094 -0.3029
19.2800 12.8228 -0.2956
19.3000 12.8361 -0.2934
19.3200 12.8494 -0.3120
19.3400 12.8627 -0.2951
19.3600 12.8760 -0.2911
19.3800 12.8893 -0.3123
19.4000 12.9027 -0.2980
19.4200 12.9160 -0.2909
19.4400 12.9293 -0.3094
19.4600 12.9427 -0.3007
19.4800 12.9561 -0.2957
19.5000 12.9695 -0.3157
19.5200 12.9828 -0.2979
19.5400 12.9961 -0.2957
19.5600 13.0095 -0.3152
19.5800 13.0228 -0.2959
19.6000 13.0361 -0.3023
19.6200 13.0494 -0.3123
19.6400 13.0627 -0.3003
19.6600 13.0760 -0.3004
19.6800 13.0894 -0.3191
19.7000 13.1026 -0.2995
19.7200 13.1160 -0.3007
19.7400 13.1293 -0.3165
19.7600 13.1427 -0.2993
19.7800 13.1560 -0.3033
19.8000 13.1694 -0.3181
19.8200 13.1827 -0.2998
19.8400 13.1961 -0.3038
19.8600 13.2094 -0.3196
19.8800 13.2228 -0.3030
19.9000 13.2361 -0.3055
19.9200 13.2494 -0.3158
19.9400 13.2628 -0.3038
19.9600 13.2761 -0.3094
19.9800 13.2894 -0.3136
20.0000 13.3027 -0.2983
20.0200 13.3161 -0.3097
20.0400 13.3294 -0.3134
20.0600 13.3427 -0.3004
20.0800 13.3560 -0.3074
20.1000 13.3693 -0.3155
20.1200 13.3827 -0.2977
20.1400 13.3960 -0.3108
20.1600 13.4094 -0.3146
20.1800 13.4227 -0.3076
20.2000 13.4361 -0.3075
20.2200 13.4494 -0.3165
20.2400 13.4627 -0.3082
20.2600 13.4761 -0.3146
20.2800 13.4894 -0.3143
20.3000 13.5028 -0.3087
20.3200 13.5161 -0.3129
20.3400 13.5294 -0.3091
20.3600 13.5427 -0.3139
20.3800 13.5561 -0.3134
20.4000 13.5694 -0.3115
20.4200 13.5827 -0.3170
20.4400 13.5960 -0.3087
20.4600 13.6093 -0.3106
20.4800 13.6227 -0.3172
20.5000 13.6360 -0.3120
20.5200 13.6494 -0.3093
20.5400 13.6627 -0.3189
20.5600 13.6761 -0.3174
20.5800 13.6895 -0.3053
20.6000 13.7028 -0.3213
20.6200 13.7161 -0.3148
20.6400 13.7294 -0.3090
20.6600 13.7428 -0.3145
20.6800 13.7561 -0.3138
20.7000 13.7694 -0.3052
20.7200 13.7827 -0.3168
20.7400 13.7960 -0.3166
20.7600 13.8094 -0.3076
20.7800 13.8227 -0.3158
20.8000 13.8360 -0.3163
20.8200 13.8494 -0.3043
20.8400 13.8627 -0.3207
20.8600 13.8760 -0.3149
20.8800 13.8894 -0.3103
20.9000 13.9027 -0.3152
20.9200 13.9161 -0.3189
20.9400 13.9295 -0.3120
20.9600 13.9428 -0.3195
20.9800 13.9561 -0.3127
21.0000 13.9695 -0.3093
21.0200 13.9828 -0.3265
21.0400 13.9961 -0.3114
21.0600 14.0094 -0.3062
21.0800 14.0227 -0.3208
21.1000 14.0360 -0.3130
21.1200 14.0494 -0.3101
21.1400 14.0627 -0.3183
21.1600 14.0760 -0.3135
21.1800 14.0893 -0.3068
21.2000 14.1027 -0.3202
21.2200 14.1160 -0.3167
21.2400 14.1293 -0.3077
21.2600 14.1427 -0.3182
21.2800 14.1561 -0.3122
21.3000 14.1695 -0.3114
21.3200 14.1828 -0.3211
21.3400 14.1961 -0.3138
21.3600 14.2094 -0.3083
21.3800 14.2228 -0.3205
21.4000 14.2361 -0.3119
21.4200 14.2494 -0.3143
21.4400 14.2627 -0.3175
21.4600 14.2761 -0.3142
21.4800 14.2894 -0.3132
21.5000 14.3027 -0.3240
21.5200 14.3160 -0.3163
21.5400 14.3293 -0.3118
21.5600 14.3426 -0.3174
21.5800 14.3560 -0.3242
21.6000 14.3693 -0.3155
21.6200 14.3827 -0.3159
21.6400 14.3961 -0.3250
21.6600 14.4095 -0.3165
21.6800 14.4228 -0.3165
21.7000 14.4361 -0.3303
21.7200 14.4494 -0.3209
21.7400 14.4628 -0.3170
21.7600 14.4761 -0.3316
21.7800 14.4894 -0.3151
21.8000 14.5027 -0.3205
21.8200 14.5160 -0.3309
21.8400 14.5293 -0.3113
21.8600 14.5426 -0.3221
21.8800 14.5560 -0.3366
21.9000 14.5693 -0.3108
21.9200 14.5827 -0.3278
21.9400 14.5960 -0.3328
21.9600 14.6094 -0.3113
21.9800 14.6227 -0.3251
22.0000 14.6361 -0.3387
22.0200 14.6494 -0.3141
22.0400 14.6627 -0.3290
22.0600 14.6761 -0.3302
22.0800 14.6894 -0.3201
22.1000 14.7028 -0.3331
22.1200 14.7161 -0.3276
22.1400 14.7294 -0.3175
22.1600 14.7427 -0.3343
22.1800 14.7560 -0.3292
22.2000 14.7694 -0.3232
22.2200 14.7827 -0.3285
22.2400 14.7960 -0.3338
22.2600 14.8094 -0.3199
22.2800 14.8227 -0.3282
22.3000 14.8361 -0.3368
22.3200 14.8494 -0.3270
22.3400 14.8627 -0.3224
22.3600 14.8761 -0.3383
22.3800 14.8895 -0.3361
22.4000 14.9028 -0.3270
22.4200 14.9161 -0.3357
22.4400 14.9294 -0.3240
22.4600 14.9428 -0.3337
22.4800 14.9561 -0.3449
22.5000 14.9694 -0.3288
22.5200 14.9827 -0.3203
22.5400 14.9960 -0.3412
22.5600 15.0094 -0.3311
22.5800 15.0227 -0.3268
22.6000 15.0360 -0.3437
22.6200 15.0493 -0.3274
22.6400 15.0627 -0.3291
22.6600 15.0760 -0.3483
22.6800 15.0894 -0.3269
22.7000 15.1027 -0.3342
22.7200 15.1161 -0.3444
22.7400 15.1295 -0.3315
22.7600 15.1428 -0.3316
22.7800 15.1561 -0.3458
22.8000 15.1694 -0.3291
22.8200 15.1828 -0.3331
22.8400 15.1961 -0.3406
22.8600 15.2094 -0.3275
22.8800 15.2227 -0.3378
22.9000 15.2360 -0.3383
22.9200 15.2494 -0.3316
22.9400 15.2627 -0.3387
22.9600 15.2760 -0.3354
22.9800 15.2893 -0.3319
23.0000 15.3027 -0.3408
23.0200 15.3160 -0.3362
23.0400 15.3294 -0.3337
23.0600 15.3427 -0.3352
23.0800 15.3561 -0.3411
23.1000 15.3694 -0.3367
23.1200 15.3827 -0.3385
23.1400 15.3961 -0.3350
23.1600 15.4094 -0.3375
23.1800 15.4228 -0.3329
23.2000 15.4361 -0.3414
23.2200 15.4494 -0.3458
23.2400 15.4627 -0.3326
23.2600 15.4760 -0.3359
23.2800 15.4894 -0.3488
23.3000 15.5027 -0.3378
23.3200 15.5160 -0.3363
23.3400 15.5293 -0.3468
23.3600 15.5427 -0.3373
23.3800 15.5560 -0.3357
23.4000 15.5694 -0.3517
23.4200 15.5827 -0.3444
23.4400 15.5961 -0.3398
23.4600 15.6095 -0.3434
23.4800 15.6228 -0.3484
23.5000 15.6361 -0.3461
23.5200 15.6494 -0.3405
23.5400 15.6628 -0.3434
23.5600 15.6761 -0.3538
23.5800 15.6894 -0.3490
23.6000 15.7027 -0.3388
23.6200 15.7160 -0.3458
23.6400 15.7294 -0.3474
23.6600 15.7427 -0.3445
23.6800 15.7560 -0.3491
23.7000 15.7693 -0.3440
23.7200 15.7827 -0.3388
23.7400 15.7960 -0.3608
23.7600 15.8093 -0.3492
23.7800 15.8227 -0.3295
23.8000 15.8361 -0.3587
23.8200 15.8495 -0.3640
23.8400 15.8628 -0.3316
23.8600 15.8761 -0.3605
23.8800 15.8894 -0.3532
23.9000 15.9028 -0.3416
23.9200 15.9161 -0.3655
23.9400 15.9293 -0.3455
23.9600 15.9426 -0.3367
23.9800 15.9560 -0.3707
24.0000 15.9693 -0.3498
24.0200 15.9827 -0.3357
24.0400 15.9960 -0.3703
24.0600 16.0093 -0.3475
24.0800 16.0227 -0.3434
24.1000 16.0361 -0.3680
24.1200 16.0494 -0.3435
24.1400 16.0627 -0.3486
24.1600 16.0761 -0.3641
24.1800 16.0894 -0.3429
24.2000 16.1027 -0.3592
24.2200 16.1160 -0.3572
24.2400 16.1294 -0.3470
24.2600 16.1427 -0.3541
24.2800 16.1561 -0.3553
24.3000 16.1694 -0.3507
24.3200 16.1827 -0.3555
24.3400 16.1961 -0.3471
24.3600 16.2094 -0.3561
24.3800 16.2227 -0.3538
24.4000 16.2360 -0.3487
24.4200 16.2494 -0.3550
24.4400 16.2627 -0.3533
24.4600 16.2760 -0.3490
24.4800 16.2893 -0.3608
24.5000 16.3027 -0.3435
24.5200 16.3160 -0.3558
24.5400 16.3294 -0.3644
24.5600 16.3428 -0.3443
24.5800 16.3561 -0.3547
24.6000 16.3694 -0.3609
24.6200 16.3828 -0.3464
24.6400 16.3961 -0.3574
24.6600 16.4094 -0.3556
24.6800 16.4227 -0.3404
24.7000 16.4361 -0.3645
24.7200 16.4494 -0.3530
24.7400 16.4627 -0.3464
24.7600 16.4760 -0.3680
24.7800 16.4893 -0.3531
24.8000 16.5027 -0.3513
24.8200 16.5160 -0.3713
24.8400 16.5293 -0.3545
24.8600 16.5427 -0.3558
24.8800 16.5561 -0.3677
24.9000 16.5695 -0.3601
24.9200 16.5828 -0.3540
24.9400 16.5961 -0.3692
24.9600 16.6094 -0.3595
24.9800 16.6228 -0.3613
25.0000 16.6361 -0.3602
25.0200 16.6494 -0.3631
25.0400 16.6627 -0.3670
25.0600 16.6760 -0.3645
25.0800 16.6894 -0.3627
25.1000 16.7027 -0.3675
25.1200 16.7160 -0.3642
25.1400 16.7293 -0.3647
25.1600 16.7427 -0.3651
25.1800 16.7560 -0.3691
25.2000 16.7694 -0.3687
25.2200 16.7827 -0.3595
25.2400 16.7960 -0.3673
25.2600 16.8094 -0.3743
25.2800 16.8228 -0.3621
25.3000 16.8361 -0.3667
25.3200 16.8494 -0.3735
25.3400 16.8628 -0.3599
25.3600 16.8761 -0.3705
25.3800 16.8895 -0.3733
25.4000 16.9027 -0.3644
25.4200 16.9160 -0.3675
25.4400 16.9294 -0.3745
25.4600 16.9427 -0.3623
25.4800 16.9560 -0.3701
25.5000 16.9693 -0.3713
25.5200 16.9826 -0.3647
25.5400 16.9960 -0.3741
25.5600 17.0093 -0.3710
25.5800 17.0227 -0.3601
25.6000 17.0361 -0.3800
25.6200 17.0494 -0.3683
25.6400 17.0628 -0.3656
25.6600 17.0761 -0.3869
25.6800 17.0894 -0.3662
25.7000 17.1028 -0.3695
25.7200 17.1161 -0.3821
25.7400 17.1294 -0.3718
25.7600 17.1427 -0.3716
25.7800 17.1560 -0.3845
25.8000 17.1694 -0.3725
25.8200 17.1827 -0.3758
25.8400 17.1961 -0.3805
25.8600 17.2094 -0.3684
25.8800 17.2227 -0.3856
25.9000 17.2360 -0.3869
25.9200 17.2493 -0.3690
25.9400 17.2627 -0.3800
25.9600 17.2761 -0.3774
25.9800 17.2894 -0.3837
26.0000 17.3028 -0.3827
26.0200 17.3161 -0.3735
26.0400 17.3294 -0.3814
26.0600 17.3428 -0.3943
26.0800 17.3561 -0.3724
26.1000 17.3694 -0.3824
26.1200 17.3827 -0.3850
26.1400 17.3960 -0.3837
26.1600 17.4094 -0.3876
26.1800 17.4227 -0.3835
26.2000 17.4360 -0.3782
26.2200 17.4493 -0.3875
26.2400 17.4627 -0.3845
26.2600 17.4761 -0.3768
26.2800 17.4894 -0.3820
26.3000 17.5027 -0.3816
26.3200 17.5161 -0.3807
26.3400 17.5294 -0.3813
26.3600 17.5427 -0.3783
26.3800 17.5560 -0.3775
26.4000 17.5694 -0.3785
26.4200 17.5827 -0.3812
26.4400 17.5961 -0.3752
26.4600 17.6094 -0.3690
26.4800 17.6227 -0.3816
26.5000 17.6361 -0.3807
26.5200 17.6494 -0.3710
26.5400 17.6627 -0.3720
26.5600 17.6760 -0.3851
26.5800 17.6893 -0.3715
26.6000 17.7026 -0.3710
26.6200 17.7160 -0.3807
26.6400 17.7293 -0.3770
26.6600 17.7427 -0.3770
26.6800 17.7560 -0.3773
26.7000 17.7694 -0.3805
26.7200 17.7828 -0.3872
26.7400 17.7961 -0.3775
26.7600 17.8094 -0.3831
26.7800 17.8228 -0.3892
26.8000 17.8361 -0.3798
26.8200 17.8494 -0.3846
26.8400 17.8627 -0.3953
26.8600 17.8760 -0.3739
26.8800 17.8894 -0.3878
26.9000 17.9027 -0.3974
26.9200 17.9160 -0.3769
26.9400 17.9293 -0.3922
26.9600 17.9426 -0.3967
26.9800 17.9560 -0.3823
27.0000 17.9693 -0.3974
27.0200 17.9827 -0.3934
27.0400 17.9960 -0.3811
27.0600 18.0094 -0.4017
27.0800 18.0228 -0.3947
27.1000 18.0361 -0.3867
27.1200 18.0494 -0.4028
27.1400 18.0628 -0.3962
27.1600 18.0761 -0.3849
27.1800 18.0894 -0.4078
27.2000 18.1027 -0.3949
27.2200 18.1160 -0.3953
27.2400 18.1294 -0.4006
27.2600 18.1427 -0.3979
27.2800 18.1560 -0.3972
27.3000 18.1693 -0.4034
27.3200 18.1827 -0.3971
27.3400 18.1960 -0.3973
27.3600 18.2094 -0.4024
27.3800 18.2227 -0.4035
27.4000 18.2360 -0.4021
27.4200 18.2494 -0.3979
27.4400 18.2628 -0.4072
27.4600 18.2761 -0.4040
27.4800 18.2894 -0.3975
27.5000 18.3028 -0.4064
27.5200 18.3161 -0.4023
27.5400 18.3295 -0.3984
27.5600 18.3428 -0.4096
27.5800 18.3561 -0.4007
27.6000 18.3694 -0.4016
27.6200 18.3828 -0.4117
27.6400 18.3960 -0.4016
27.6600 18.4093 -0.4015
27.6800 18.4227 -0.4126
27.7000 18.4360 -0.4028
27.7200 18.4494 -0.4071
27.7400 18.4627 -0.4090
27.7600 18.4760 -0.4060
27.7800 18.4894 -0.4032
27.8000 18.5028 -0.4216
27.8200 18.5161 -0.4009
27.8400 18.5294 -0.4042
27.8600 18.5428 -0.4233
27.8800 18.5561 -0.4056
27.9000 18.5694 -0.4002
27.9200 18.5827 -0.4235
27.9400 18.5960 -0.4071
27.9600 18.6094 -0.4055
27.9800 18.6227 -0.4292
28.0000 18.6361 -0.4085
28.0200 18.6494 -0.4051
28.0400 18.6627 -0.4273
28.0600 18.6760 -0.4067
28.0800 18.6894 -0.4087
28.1000 18.7027 -0.4322
28.1200 18.7160 -0.4056
28.1400 18.7294 -0.4094
28.1600 18.7428 -0.4301
28.1800 18.7561 -0.4087
28.2000 18.7694 -0.4117
28.2200 18.7828 -0.4276
28.2400 18.7961 -0.4026
28.2600 18.8095 -0.4165
28.2800 18.8228 -0.4234
28.3000 18.8361 -0.4053
28.3200 18.8494 -0.4133
28.3400 18.8627 -0.4266
28.3600 18.8760 -0.4033
28.3800 18.8893 -0.4126
28.4000 18.9027 -0.4241
28.4200 18.9160 -0.4074
28.4400 18.9294 -0.4102
28.4600 18.9427 -0.4182
28.4800 18.9560 -0.4081
28.5000 18.9694 -0.4125
28.5200 18.9828 -0.4160
28.5400 18.9961 -0.4098
28.5600 19.0094 -0.4116
28.5800 19.0227 -0.4177
28.6000 19.0361 -0.4062
28.6200 19.0495 -0.4132
28.6400 19.0628 -0.4185
28.6600 19.0761 -0.4050
28.6800 19.0894 -0.4166
28.7000 19.1027 -0.4198
28.7200 19.1160 -0.4115
28.7400 19.1293 -0.4161
28.7600 19.1426 -0.4196
28.7800 19.1560 -0.4123
28.8000 19.1693 -0.4219
28.8200 19.1826 -0.4197
28.8400 19.1960 -0.4150
28.8600 19.2094 -0.4221
28.8800 19.2228 -0.4273
28.9000 19.2362 -0.4096
28.9200 19.2495 -0.4262
28.9400 19.2628 -0.4235
28.9600 19.2761 -0.4134
28.9800 19.2895 -0.4241
29.0000 19.3027 -0.4233
29.0200 19.3160 -0.4129
29.0400 19.3294 -0.4331
29.0600 19.3427 -0.4257
29.0800 19.3560 -0.4131
29.1000 19.3693 -0.4358
29.1200 19.3827 -0.4211
29.1400 19.3961 -0.4159
29.1600 19.4094 -0.4364
29.1800 19.4227 -0.4228
29.2000 19.4361 -0.4213
29.2200 19.4494 -0.4376
29.2400 19.4628 -0.4214
29.2600 19.4761 -0.4260
29.2800 19.4894 -0.4442
29.3000 19.5027 -0.4240
29.3200 19.5161 -0.4261
29.3400 19.5294 -0.4509
29.3600 19.5427 -0.4234
29.3800 19.5560 -0.4354
29.4000 19.5694 -0.4472
29.4200 19.5827 -0.4320
29.4400 19.5961 -0.4393
29.4600 19.6094 -0.4461
29.4800 19.6227 -0.4355
29.5000 19.6360 -0.4449
29.5200 19.6494 -0.4447
29.5400 19.6627 -0.4376
29.5600 19.6760 -0.4479
29.5800 19.6894 -0.4508
29.6000 19.7028 -0.4415
29.6200 19.7161 -0.4508
29.6400 19.7294 -0.4521
29.6600 19.7427 -0.4453
29.6800 19.7561 -0.4522
29.7000 19.7694 -0.4557
29.7200 19.7827 -0.4469
29.7400 19.7960 -0.4516
29.7600 19.8094 -0.4594
29.7800 19.8227 -0.4498
29.8000 19.8361 -0.4560
29.8200 19.8493 -0.4568
29.8400 19.8626 -0.4449
29.8600 19.8760 -0.4554
29.8800 19.8894 -0.4627
29.9000 19.9027 -0.4482
29.9200 19.9160 -0.4582
29.9400 19.9294 -0.4503
29.9600 19.9428 -0.4536
29.9800 19.9561 -0.4617
30.0000 19.9694 -0.4540
30.0200 19.9828 -0.4423
30.0400 19.9961 -0.4625
30.0600 20.0094 -0.4542
30.0800 20.0227 -0.4463
30.1000 20.0360 -0.4599
30.1200 20.0494 -0.4525
30.1400 20.0627 -0.4498
30.1600 20.0761 -0.4633
30.1800 20.0894 -0.4514
30.2000 20.1027 -0.4533
30.2200 20.1160 -0.4669
30.2400 20.1294 -0.4568
30.2600 20.1427 -0.4554
30.2800 20.1560 -0.4693
30.3000 20.1694 -0.4597
30.3200 20.1827 -0.4564
30.3400 20.1961 -0.4727
30.3600 20.2094 -0.4621
30.3800 20.2227 -0.4592
30.4000 20.2361 -0.4701
30.4200 20.2495 -0.4695
30.4400 20.2628 -0.4669
30.4600 20.2761 -0.4715
30.4800 20.2894 -0.4639
30.5000 20.3027 -0.4646
30.5200 20.3160 -0.4696
30.5400 20.3293 -0.4502
30.5600 20.3426 -0.3779
30.5800 20.3560 -0.2890
30.6000 20.3694 -0.1811
30.6200 20.3827 -0.0885
30.6400 20.3960 -0.0362
30.6600 20.4094 -0.0009
30.6800 20.4228 0.0376
30.7000 20.4361 0.0662
30.7200 20.4494 0.1272
30.7400 20.4627 0.1810
30.7600 20.4761 0.2147
30.7800 20.4894 0.2536
30.8000 20.5028 0.2964
30.8200 20.5160 0.3429
30.8400 20.5293 0.3983
30.8600 20.5427 0.4457
30.8800 20.5560 0.4910
30.9000 20.5693 0.5395
30.9200 20.5827 0.5755
30.9400 20.5960 0.5576
30.9600 20.6093 0.5208
30.9800 20.6227 0.5070
31.0000 20.6360 0.4992
31.0200 20.6494 0.4964
31.0400 20.6628 0.4984
31.0600 20.6761 0.5022
31.0800 20.6894 0.5031
31.1000 20.7028 0.4979
31.1200 20.7161 0.4962
31.1400 20.7294 0.4944
31.1600 20.7427 0.4877
31.1800 20.7560 0.4979
31.2000 20.7693 0.4908
31.2200 20.7827 0.4916
31.2400 20.7960 0.4912
31.2600 20.8093 0.4854
31.2800 20.8227 0.4802
31.3000 20.8360 0.4842
31.3200 20.8494 0.4751
31.3400 20.8628 0.4676
31.3600 20.8761 0.4739
31.3800 20.8894 0.4625
31.4000 20.9028 0.4710
31.4200 20.9161 0.4765
31.4400 20.9294 0.4662
31.4600 20.9427 0.4731
31.4800 20.9561 0.4788
31.5000 20.9694 0.4585
31.5200 20.9828 0.4690
31.5400 20.9961 0.4716
31.5600 21.0094 0.4568
31.5800 21.0227 0.4703
31.6000 21.0361 0.4735
31.6200 21.0494 0.4567
31.6400 21.0627 0.4796
31.6600 21.0760 0.4659
31.6800 21.0894 0.4541
31.7000 21.1027 0.4732
31.7200 21.1160 0.4637
31.7400 21.1293 0.4514
31.7600 21.1427 0.4712
31.7800 21.1561 0.4610
31.8000 21.1694 0.4454
31.8200 21.1827 0.4637
31.8400 21.1961 0.4569
31.8600 21.2094 0.4398
31.8800 21.2228 0.4631
31.9000 21.2361 0.4517
31.9200 21.2494 0.4405
31.9400 21.2627 0.4635
31.9600 21.2761 0.4429
31.9800 21.2894 0.4394
32.0000 21.3027 0.4621
32.0200 21.3160 0.4443
32.0400 21.3293 0.4379
32.0600 21.3427 0.4605
32.0800 21.3560 0.4357
32.1000 21.3694 0.4350
32.1200 21.3828 0.4496
32.1400 21.3961 0.4271
32.1600 21.4094 0.4281
32.1800 21.4227 0.4414
32.2000 21.4361 0.4218
32.2200 21.4494 0.4303
32.2400 21.4628 0.4357
32.2600 21.4760 0.4271
32.2800 21.4894 0.4255
32.3000 21.5027 0.4364
32.3200 21.5160 0.4202
32.3400 21.5293 0.4194
32.3600 21.5426 0.4318
32.3800 21.5560 0.4229
32.4000 21.5694 0.4247
32.4200 21.5827 0.4312
32.4400 21.5961 0.4307
32.4600 21.6094 0.4256
32.4800 21.6227 0.4222
32.5000 21.6361 0.4260
32.5200 21.6494 0.4135
32.5400 21.6627 0.4190
32.5600 21.6761 0.4191
32.5800 21.6895 0.4083
32.6000 21.7028 0.4169
32.6200 21.7161 0.4208
32.6400 21.7294 0.4153
32.6600 21.7427 0.4172
32.6800 21.7561 0.4234
32.7000 21.7694 0.4117
32.7200 21.7827 0.4216
32.7400 21.7960 0.4263
32.7600 21.8093 0.4069
32.7800 21.8227 0.4127
32.8000 21.8360 0.4212
32.8200 21.8494 0.3994
32.8400 21.8628 0.4103
32.8600 21.8761 0.4150
32.8800 21.8895 0.3995
32.9000 21.9028 0.4015
32.9200 21.9161 0.4126
32.9400 21.9294 0.3945
32.9600 21.9428 0.4014
32.9800 21.9561 0.4102
33.0000 21.9694 0.3913
33.0200 21.9827 0.4055
33.0400 21.9961 0.4069
33.0600 22.0094 0.3926
33.0800 22.0227 0.4087
33.1000 22.0360 0.4068
33.1200 22.0494 0.3877
33.1400 22.0627 0.4013
33.1600 22.0760 0.4017
33.1800 22.0894 0.3872
33.2000 22.1027 0.3988
33.2200 22.1161 0.3983
33.2400 22.1294 0.3886
33.2600 22.1427 0.4097
33.2800 22.1561 0.3917
33.3000 22.1694 0.3939
33.3200 22.1828 0.4046
33.3400 22.1961 0.3959
33.3600 22.2094 0.3892
33.3800 22.2227 0.4044
33.4000 22.2360 0.3962
33.4200 22.2494 0.3925
33.4400 22.2627 0.4011
33.4600 22.2760 0.3887
33.4800 22.2894 0.3827
33.5000 22.3027 0.3956
33.5200 22.3160 0.3828
33.5400 22.3294 0.3844
33.5600 22.3427 0.3901
33.5800 22.3561 0.3859
33.6000 22.3694 0.3803
33.6200 22.3827 0.3873
33.6400 22.3960 0.3846
33.6600 22.4094 0.3743
33.6800 22.4228 0.3770
33.7000 22.4361 0.3805
33.7200 22.4494 0.3759
33.7400 22.4628 0.3780
33.7600 22.4761 0.3793
33.7800 22.4894 0.3717
33.8000 22.5027 0.3788
33.8200 22.5160 0.3773
33.8400 22.5293 0.3680
33.8600 22.5427 0.3693
33.8800 22.5560 0.3736
33.9000 22.5693 0.3615
33.9200 22.5827 0.3706
33.9400 22.5961 0.3725
33.9600 22.6095 0.3609
33.9800 22.6228 0.3641
34.0000 22.6361 0.3744
34.0200 22.6495 0.3619
34.0400 22.6628 0.3641
34.0600 22.6761 0.3686
34.0800 22.6894 0.3592
34.1000 22.7027 0.3614
34.1200 22.7160 0.3687
34.1400 22.7294 0.3571
34.1600 22.7426 0.3611
34.1800 22.7560 0.3589
34.2000 22.7693 0.3469
34.2200 22.7827 0.3574
34.2400 22.7960 0.3639
34.2600 22.8094 0.3557
34.2800 22.8227 0.3549
34.3000 22.8361 0.3585
34.3200 22.8495 0.3536
34.3400 22.8628 0.3537
34.3600 22.8761 0.3562
34.3800 22.8895 0.3508
34.4000 22.9028 0.3486
34.4200 22.9161 0.3513
34.4400 22.9294 0.3510
34.4600 22.9427 0.3528
34.4800 22.9560 0.3508
34.5000 22.9694 0.3471
34.5200 22.9827 0.3405
34.5400 22.9960 0.3519
34.5600 23.0093 0.3448
34.5800 23.0227 0.3425
34.6000 23.0360 0.3490
34.6200 23.0493 0.3498
34.6400 23.0627 0.3360
34.6600 23.0761 0.3476
34.6800 23.0894 0.3431
34.7000 23.1027 0.3368
34.7200 23.1161 0.3525
34.7400 23.1294 0.3418
34.7600 23.1428 0.3373
34.7800 23.1561 0.3498
34.8000 23.1694 0.3408
34.8200 23.1827 0.3309
34.8400 23.1961 0.3467
34.8600 23.2094 0.3300
34.8800 23.2227 0.3328
34.9000 23.2360 0.3478
34.9200 23.2493 0.3225
34.9400 23.2627 0.3217
34.9600 23.2760 0.3432
34.9800 23.2894 0.3342
35.0000 23.3027 0.3381
35.0200 23.3161 0.3419
35.0400 23.3295 0.3316
35.0600 23.3428 0.3327
35.0800 23.3561 0.3410
35.1000 23.3694 0.3313
35.1200 23.3828 0.3357
35.1400 23.3961 0.3322
35.1600 23.4094 0.3295
35.1800 23.4227 0.3256
35.2000 23.4360 0.3340
35.2200 23.4494 0.3293
35.2400 23.4627 0.3254
35.2600 23.4760 0.3328
35.2800 23.4893 0.3248
35.3000 23.5027 0.3183
35.3200 23.5160 0.3288
35.3400 23.5294 0.3242
35.3600 23.5427 0.3118
35.3800 23.5561 0.3290
35.4000 23.5695 0.3237
35.4200 23.5828 0.3126
35.4400 23.5961 0.3243
35.4600 23.6094 0.3155
35.4800 23.6228 0.3111
35.5000 23.6361 0.3259
35.5200 23.6494 0.3104
35.5400 23.6627 0.3136
35.5600 23.6760 0.3209
35.5800 23.6894 0.3079
35.6000 23.7027 0.3101
35.6200 23.7160 0.3252
35.6400 23.7293 0.3087
35.6600 23.7427 0.3099
35.6800 23.7560 0.3208
35.7000 23.7694 0.3018
35.7200 23.7827 0.3075
35.7400 23.7961 0.3215
35.7600 23.8094 0.3026
35.7800 23.8227 0.3098
35.8000 23.8361 0.3145
35.8200 23.8494 0.2999
35.8400 23.8628 0.3117
35.8600 23.8761 0.3096
35.8800 23.8894 0.2980
35.9000 23.9027 0.3068
35.9200 23.9161 0.3028
35.9400 23.9294 0.2989
35.9600 23.9427 0.3043
35.9800 23.9560 0.2996
36.0000 23.9693 0.3025
36.0200 23.9826 0.3013
36.0400 23.9960 0.2937
36.0600 24.0093 0.3061
36.0800 24.0227 0.3003
36.1000 24.0361 0.2898
36.1200 24.0495 0.3036
36.1400 24.0628 0.2922
36.1600 24.0761 0.2939
36.1800 24.0895 0.3059
36.2000 24.1028 0.2876
36.2200 24.1161 0.2919
36.2400 24.1294 0.3051
36.2600 24.1427 0.2828
36.2800 24.1560 0.2962
36.3000 24.1694 0.3019
36.3200 24.1827 0.2808
36.3400 24.1960 0.2918
36.3600 24.2093 0.3025
36.3800 24.2227 0.2789
36.4000 24.2361 0.2918
36.4200 24.2494 0.2992
36.4400 24.2627 0.2775
36.4600 24.2761 0.2914
36.4800 24.2895 0.2976
36.5000 24.3028 0.2773
36.5200 24.3161 0.2891
36.5400 24.3294 0.2970
36.5600 24.3428 0.2704
36.5800 24.3561 0.2916
36.6000 24.3694 0.2901
36.6200 24.3827 0.2754
36.6400 24.3960 0.2876
36.6600 24.4094 0.2850
36.6800 24.4227 0.2717
36.7000 24.4360 0.2901
36.7200 24.4493 0.2816
36.7400 24.4627 0.2709
36.7600 24.4761 0.2821
36.7800 24.4894 0.2809
36.8000 24.5027 0.2702
36.8200 24.5161 0.2835
36.8400 24.5294 0.2740
36.8600 24.5428 0.2691
36.8800 24.5561 0.2839
36.9000 24.5694 0.2700
36.9200 24.5828 0.2725
36.9400 24.5961 0.2778
36.9600 24.6094 0.2665
36.9800 24.6227 0.2723
37.0000 24.6360 0.2768
37.0200 24.6494 0.2630
37.0400 24.6627 0.2737
37.0600 24.6760 0.2720
37.0800 24.6893 0.2641
37.1000 24.7027 0.2697
37.1200 24.7160 0.2673
37.1400 24.7294 0.2614
37.1600 24.7427 0.2746
37.1800 24.7561 0.2613
37.2000 24.7694 0.2613
37.2200 24.7828 0.2741
37.2400 24.7961 0.2619
37.2600 24.8094 0.2650
37.2800 24.8228 0.2712
37.3000 24.8361 0.2597
37.3200 24.8494 0.2663
37.3400 24.8627 0.2656
37.3600 24.8760 0.2647
37.3800 24.8894 0.2661
37.4000 24.9027 0.2682
37.4200 24.9160 0.2564
37.4400 24.9294 0.2675
37.4600 24.9427 0.2647
37.4800 24.9560 0.2592
37.5000 24.9694 0.2701
37.5200 24.9827 0.2623
37.5400 24.9960 0.2595
37.5600 25.0094 0.2620
37.5800 25.0227 0.2686
37.6000 25.0361 0.2666
37.6200 25.0494 0.2659
37.6400 25.0628 0.2626
37.6600 25.0761 0.2599
37.6800 25.0894 0.2682
37.7000 25.1027 0.2701
37.7200 25.1160 0.2566
37.7400 25.1294 0.2619
37.7600 25.1427 0.2601
37.7800 25.1560 0.2613
37.8000 25.1693 0.2611
37.8200 25.1826 0.2642
37.8400 25.1960 0.2540
37.8600 25.2093 0.2560
37.8800 25.2227 0.2592
37.9000 25.2361 0.2544
37.9200 25.2495 0.2583
37.9400 25.2628 0.2578
37.9600 25.2761 0.2470
37.9800 25.2894 0.2516
38.0000 25.3028 0.2597
38.0200 25.3161 0.2448
38.0400 25.3294 0.2471
38.0600 25.3427 0.2607
38.0800 25.3560 0.2470
38.1000 25.3694 0.2439
38.1200 25.3827 0.2582
38.1400 25.3960 0.2455
38.1600 25.4093 0.2458
38.1800 25.4227 0.2550
38.2000 25.4360 0.2423
38.2200 25.4493 0.2399
38.2400 25.4627 0.2540
38.2600 25.4760 0.2391
38.2800 25.4894 0.2368
38.3000 25.5028 0.2536
38.3200 25.5161 0.2405
38.3400 25.5294 0.2337
38.3600 25.5428 0.2550
38.3800 25.5561 0.2377
38.4000 25.5694 0.2371
38.4200 25.5827 0.2498
38.4400 25.5960 0.2422
38.4600 25.6093 0.2323
38.4800 25.6227 0.2479
38.5000 25.6360 0.2361
38.5200 25.6493 0.2332
38.5400 25.6627 0.2459
38.5600 25.6761 0.2360
38.5800 25.6894 0.2330
38.6000 25.7027 0.2476
38.6200 25.7161 0.2377
38.6400 25.7294 0.2306
38.6600 25.7428 0.2483
38.6800 25.7561 0.2352
38.7000 25.7694 0.2297
38.7200 25.7827 0.2460
38.7400 25.7961 0.2338
38.7600 25.8094 0.2318
38.7800 25.8227 0.2484
38.8000 25.8361 0.2252
38.8200 25.8494 0.2309
38.8400 25.8627 0.2428
38.8600 25.8760 0.2283
38.8800 25.8893 0.2266
38.9000 25.9027 0.2465
38.9200 25.9160 0.2223
38.9400 25.9293 0.2252
38.9600 25.9427 0.2368
38.9800 25.9560 0.2245
39.0000 25.9694 0.2282
39.0200 25.9828 0.2336
39.0400 25.9961 0.2240
39.0600 26.0094 0.2326
39.0800 26.0227 0.2334
39.1000 26.0361 0.2196
39.1200 26.0494 0.2297
39.1400 26.0627 0.2348
39.1600 26.0761 0.2192
39.1800 26.0894 0.2240
39.2000 26.1027 0.2317
39.2200 26.1160 0.2234
39.2400 26.1293 0.2233
39.2600 26.1426 0.2270
39.2800 26.1560 0.2218
39.3000 26.1693 0.2162
39.3200 26.1827 0.2232
39.3400 26.1961 0.2207
39.3600 26.2094 0.2149
39.3800 26.2228 0.2183
39.4000 26.2361 0.2177
39.4200 26.2494 0.2140
39.4400 26.2628 0.2254
39.4600 26.2761 0.2143
39.4800 26.2894 0.2111
39.5000 26.3027 0.2190
39.5200 26.3160 0.2197
39.5400 26.3294 0.2111
39.5600 26.3427 0.2232
39.5800 26.3560 0.2146
39.6000 26.3693 0.2162
39.6200 26.3827 0.2218
39.6400 26.3961 0.2132
39.6600 26.4094 0.2161
39.6800 26.4227 0.2197
39.7000 26.4360 0.2114
39.7200 26.4494 0.2137
39.7400 26.4628 0.2191
39.7600 26.4761 0.2151
39.7800 26.4894 0.2134
39.8000 26.5028 0.2157
39.8200 26.5161 0.2176
39.8400 26.5295 0.2163
39.8600 26.5427 0.2182
39.8800 26.5561 0.2166
39.9000 26.5694 0.2182
39.9200 26.5827 0.2125
39.9400 26.5960 0.2165
39.9600 26.6093 0.2149
39.9800 26.6226 0.2174
40.0000 26.6360 0.2159
40.0200 26.6493 0.2134
40.0400 26.6627 0.2138
40.0600 26.6761 0.2180
40.0800 26.6894 0.2094
40.1000 26.7028 0.2142
40.1200 26.7161 0.2122
40.1400 26.7294 0.2072
40.1600 26.7427 0.2169
40.1800 26.7561 0.2141
40.2000 26.7694 0.2064
40.2200 26.7827 0.2163
40.2400 26.7960 0.2122
40.2600 26.8094 0.2083
40.2800 26.8227 0.2093
40.3000 26.8361 0.2063
40.3200 26.8494 0.2052
40.3400 26.8627 0.2068
40.3600 26.8760 0.2058
40.3800 26.8893 0.2044
40.4000 26.9027 0.2066
40.4200 26.9160 0.2003
40.4400 26.9294 0.2038
40.4600 26.9428 0.2042
40.4800 26.9561 0.1992
40.5000 26.9694 0.2018
40.5200 26.9828 0.2087
40.5400 26.9961 0.1948
40.5600 27.0094 0.2051
40.5800 27.0227 0.2065
40.6000 27.0360 0.1995
40.6200 27.0494 0.2013
40.6400 27.0627 0.2043
40.6600 27.0760 0.1951
40.6800 27.0893 0.2046
40.7000 27.1027 0.1982
40.7200 27.1160 0.1955
40.7400 27.1294 0.2047
40.7600 27.1427 0.2005
40.7800 27.1560 0.1878
40.8000 27.1694 0.2069
40.8200 27.1827 0.1971
40.8400 27.1960 0.1929
40.8600 27.2093 0.2109
40.8800 27.2227 0.1817
40.9000 27.2361 0.1942
40.9200 27.2494 0.2130
40.9400 27.2627 0.1844
40.9600 27.2761 0.1871
40.9800 27.2894 0.2171
41.0000 27.3028 0.1792
41.0200 27.3161 0.1882
41.0400 27.3294 0.2135
41.0600 27.3427 0.1757
41.0800 27.3560 0.1928
41.1000 27.3693 0.2136
41.1200 27.3826 0.1629
41.1400 27.3960 0.2027
41.1600 27.4094 0.2076
41.1800 27.4228 0.1594
41.2000 27.4362 0.2053
41.2200 27.4495 0.2029
41.2400 27.4628 0.1633
41.2600 27.4761 0.2037
41.2800 27.4894 0.1907
41.3000 27.5027 0.1691
41.3200 27.5160 0.2125
41.3400 27.5294 0.1844
41.3600 27.5427 0.1681
41.3800 27.5560 0.2095
41.4000 27.5693 0.1792
41.4200 27.5826 0.1829
41.4400 27.5960 0.2019
41.4600 27.6093 0.1712
41.4800 27.6227 0.1912
41.5000 27.6360 0.1921
41.5200 27.6494 0.1760
41.5400 27.6628 0.1906
41.5600 27.6761 0.1899
41.5800 27.6894 0.1736
41.6000 27.7028 0.1850
41.6200 27.7161 0.1848
41.6400 27.7294 0.1802
41.6600 27.7427 0.1832
41.6800 27.7560 0.1741
41.7000 27.7693 0.1852
41.7200 27.7827 0.1822
41.7400 27.7960 0.1684
41.7600 27.8093 0.1885
41.7800 27.8227 0.1797
41.8000 27.8360 0.1691
41.8200 27.8494 0.1801
41.8400 27.8627 0.1807
41.8600 27.8761 0.1760
41.8800 27.8894 0.1796
41.9000 27.9028 0.1718
41.9200 27.9161 0.1697
41.9400 27.9294 0.1856
41.9600 27.9427 0.1705
41.9800 27.9561 0.1727
42.0000 27.9694 0.1818
42.0200 27.9828 0.1715
42.0400 27.9961 0.1714
42.0600 28.0094 0.1817
42.0800 28.0227 0.1707
42.1000 28.0361 0.1692
42.1200 28.0493 0.1858
42.1400 28.0627 0.1708
42.1600 28.0760 0.1677
42.1800 28.0894 0.1850
42.2000 28.1027 0.1587
42.2200 28.1160 0.1772
42.2400 28.1294 0.1844
42.2600 28.1428 0.1594
42.2800 28.1561 0.1714
42.3000 28.1694 0.1849
42.3200 28.1828 0.1576
42.3400 28.1961 0.1755
42.3600 28.2094 0.1804
42.3800 28.2227 0.1543
42.4000 28.2360 0.1759
42.4200 28.2493 0.1780
42.4400 28.2627 0.1552
42.4600 28.2760 0.1776
42.4800 28.2894 0.1739
42.5000 28.3027 0.1497
42.5200 28.3160 0.1752
42.5400 28.3294 0.1723
42.5600 28.3427 0.1512
42.5800 28.3560 0.1741
42.6000 28.3694 0.1696
42.6200 28.3828 0.1467
42.6400 28.3961 0.1741
42.6600 28.4094 0.1628
42.6800 28.4228 0.1552
42.7000 28.4361 0.1692
42.7200 28.4495 0.1625
42.7400 28.4628 0.1521
42.7600 28.4761 0.1677
42.7800 28.4894 0.1590
42.8000 28.5027 0.1549
42.8200 28.5160 0.1598
42.8400 28.5293 0.1596
42.8600 28.5426 0.1569
42.8800 28.5560 0.1603
42.9000 28.5694 0.1541
42.9200 28.5827 0.1542
42.9400 28.5960 0.1597
42.9600 28.6094 0.1631
42.9800 28.6228 0.1468
43.0000 28.6361 0.1547
43.0200 28.6494 0.1641
43.0400 28.6627 0.1448
43.0600 28.6761 0.1562
43.0800 28.6894 0.1614
43.1000 28.7028 0.1428
43.1200 28.7161 0.1482
43.1400 28.7294 0.1645
43.1600 28.7427 0.1425
43.1800 28.7561 0.1499
43.2000 28.7693 0.1604
43.2200 28.7826 0.1392
43.2400 28.7960 0.1580
43.2600 28.8093 0.1606
43.2800 28.8226 0.1342
43.3000 28.8360 0.1605
43.3200 28.8494 0.1523
43.3400 28.8628 0.1331
43.3600 28.8762 0.1580
43.3800 28.8895 0.1545
43.4000 28.9028 0.1327
43.4200 28.9162 0.1583
43.4400 28.9295 0.1464
43.4600 28.9428 0.1332
43.4800 28.9560 0.1614
43.5000 28.9693 0.1474
43.5200 28.9827 0.1375
43.5400 28.9960 0.1584
43.5600 29.0093 0.1416
43.5800 29.0227 0.1351
43.6000 29.0360 0.1576
43.6200 29.0494 0.1445
43.6400 29.0627 0.1356
43.6600 29.0761 0.1486
43.6800 29.0894 0.1465
43.7000 29.1028 0.1330
43.7200 29.1161 0.1494
43.7400 29.1294 0.1434
43.7600 29.1427 0.1337
43.7800 29.1561 0.1453
43.8000 29.1694 0.1424
43.8200 29.1827 0.1257
43.8400 29.1960 0.1499
43.8600 29.2094 0.1459
43.8800 29.2227 0.1235
43.9000 29.2360 0.1447
43.9200 29.2493 0.1468
43.9400 29.2627 0.1244
43.9600 29.2760 0.1475
43.9800 29.2894 0.1393
44.0000 29.3027 0.1290
44.0200 29.3160 0.1465
44.0400 29.3294 0.1346
44.0600 29.3428 0.1258
44.0800 29.3561 0.1478
44.1000 29.3694 0.1336
44.1200 29.3827 0.1236
44.1400 29.3961 0.1533
44.1600 29.4095 0.1288
44.1800 29.4228 0.1227
44.2000 29.4360 0.1487
44.2200 29.4494 0.1295
44.2400 29.4627 0.1230
44.2600 29.4760 0.1468
44.2800 29.4893 0.1244
44.3000 29.5026 0.1288
44.3200 29.5160 0.1427
44.3400 29.5293 0.1221
44.3600 29.5427 0.1270
44.3800 29.5560 0.1439
44.4000 29.5694 0.1208
44.4200 29.5828 0.1279
44.4400 29.5961 0.1372
44.4600 29.6094 0.1231
44.4800 29.6228 0.1291
44.5000 29.6361 0.1327
44.5200 29.6494 0.1230
44.5400 29.6627 0.1298
44.5600 29.6760 0.1282
44.5800 29.6894 0.1259
44.6000 29.7027 0.1284
44.6200 29.7161 0.1293
44.6400 29.7294 0.1278
44.6600 29.7427 0.1248
44.6800 29.7560 0.1297
44.7000 29.7694 0.1266
44.7200 29.7827 0.1236
44.7400 29.7960 0.1280
44.7600 29.8094 0.1232
44.7800 29.8227 0.1220
44.8000 29.8361 0.1280
44.8200 29.8494 0.1181
44.8400 29.8627 0.1249
44.8600 29.8761 0.1278
44.8800 29.8895 0.1175
44.9000 29.9028 0.1218
44.9200 29.9161 0.1319
44.9400 29.9294 0.1137
44.9600 29.9427 0.1229
44.9800 29.9561 0.1234
45.0000 29.9694 0.1163
45.0200 29.9827 0.1217
45.0400 29.9960 0.1221
45.0600 30.0094 0.1170
45.0800 30.0227 0.1228
45.1000 30.0360 0.1191
45.1200 30.0494 0.1168
45.1400 30.0628 0.1230
45.1600 30.0761 0.1142
45.1800 30.0894 0.1193
45.2000 30.1027 0.1230
45.2200 30.1161 0.1114
45.2400 30.1294 0.1232
45.2600 30.1428 0.1182
45.2800 30.1561 0.1087
45.3000 30.1694 0.1249
45.3200 30.1827 0.1131
45.3400 30.1960 0.1068
45.3600 30.2093 0.1235
45.3800 30.2226 0.1128
45.4000 30.2360 0.1052
45.4200 30.2493 0.1267
45.4400 30.2627 0.1076
45.4600 30.2760 0.1094
45.4800 30.2894 0.1208
45.5000 30.3028 0.1041
45.5200 30.3161 0.1099
45.5400 30.3295 0.1213
45.5600 30.3428 0.1029
45.5800 30.3561 0.1100
45.6000 30.3694 0.1159
45.6200 30.3827 0.1031
45.6400 30.3960 0.1125
45.6600 30.4093 0.1151
45.6800 30.4227 0.1034
45.7000 30.4360 0.1106
45.7200 30.4493 0.1133
45.7400 30.4627 0.1020
45.7600 30.4760 0.1106
45.7800 30.4894 0.1067
45.8000 30.5027 0.1007
45.8200 30.5161 0.1139
45.8400 30.5294 0.1071
45.8600 30.5427 0.1012
45.8800 30.5561 0.1104
45.9000 30.5694 0.0962
45.9200 30.5827 0.1053
45.9400 30.5961 0.1095
45.9600 30.6094 0.0958
45.9800 30.6228 0.1003
46.0000 30.6361 0.1087
46.0200 30.6494 0.0939
46.0400 30.6628 0.1039
46.0600 30.6761 0.1030
46.0800 30.6894 0.0930
46.1000 30.7027 0.1031
46.1200 30.7160 0.0979
46.1400 30.7294 0.0929
46.1600 30.7427 0.1042
46.1800 30.7560 0.0953
46.2000 30.7693 0.0963
46.2200 30.7827 0.1004
46.2400 30.7961 0.0924
46.2600 30.8094 0.0949
46.2800 30.8227 0.1013
46.3000 30.8361 0.0964
46.3200 30.8494 0.0920
46.3400 30.8628 0.0983
46.3600 30.8761 0.0966
46.3800 30.8894 0.0966
46.4000 30.9028 0.0966
46.4200 30.9161 0.0940
46.4400 30.9294 0.0926
46.4600 30.9427 0.0946
46.4800 30.9560 0.0968
46.5000 30.9693 0.0918
46.5200 30.9827 0.0902
46.5400 30.9960 0.0984
46.5600 31.0094 0.0867
46.5800 31.0227 0.0899
46.6000 31.0361 0.0960
46.6200 31.0494 0.0897
46.6400 31.0628 0.0866
46.6600 31.0761 0.0973
46.6800 31.0894 0.0898
46.7000 31.1028 0.0882
46.7200 31.1161 0.0942
46.7400 31.1294 0.0916
46.7600 31.1427 0.0831
46.7800 31.1561 0.0951
46.8000 31.1694 0.0914
46.8200 31.1827 0.0868
46.8400 31.1960 0.0931
46.8600 31.2094 0.0872
46.8800 31.2227 0.0885
46.9000 31.2361 0.0912
46.9200 31.2494 0.0882
46.9400 31.2627 0.0869
46.9600 31.2761 0.0920
46.9800 31.2894 0.0829
47.0000 31.3027 0.0842
47.0200 31.3161 0.0867
47.0400 31.3294 0.0871
47.0600 31.3428 0.0808
47.0800 31.3561 0.0871
47.1000 31.3694 0.0831
47.1200 31.3827 0.0856
47.1400 31.3961 0.0842
47.1600 31.4094 0.0839
47.1800 31.4226 0.0856
47.2000 31.4360 0.0811
47.2200 31.4493 0.0830
47.2400 31.4627 0.0884
47.2600 31.4760 0.0783
47.2800 31.4894 0.0806
47.3000 31.5027 0.0851
47.3200 31.5161 0.0794
47.3400 31.5294 0.0765
47.3600 31.5427 0.0794
47.3800 31.5560 0.0778
47.4000 31.5694 0.0754
47.4200 31.5827 0.0753
47.4400 31.5961 0.0793
47.4600 31.6094 0.0757
47.4800 31.6227 0.0717
47.5000 31.6360 0.0838
47.5200 31.6494 0.0735
47.5400 31.6627 0.0733
47.5600 31.6760 0.0845
47.5800 31.6894 0.0718
47.6000 31.7027 0.0668
47.6200 31.7160 0.0816
47.6400 31.7294 0.0678
47.6600 31.7427 0.0731
47.6800 31.7561 0.0785
47.7000 31.7695 0.0636
47.7200 31.7828 0.0713
47.7400 31.7961 0.0857
47.7600 31.8094 0.0603
47.7800 31.8228 0.0748
47.8000 31.8361 0.0787
47.8200 31.8494 0.0597
47.8400 31.8627 0.0776
47.8600 31.8760 0.0778
47.8800 31.8894 0.0586
47.9000 31.9027 0.0766
47.9200 31.9160 0.0720
47.9400 31.9294 0.0608
47.9600 31.9427 0.0752
47.9800 31.9560 0.0707
48.0000 31.9693 0.0598
48.0200 31.9827 0.0702
48.0400 31.9961 0.0657
48.0600 32.0094 0.0542
48.0800 32.0227 0.0753
48.1000 32.0360 0.0656
48.1200 32.0494 0.0579
48.1400 32.0628 0.0689
48.1600 32.0761 0.0643
48.1800 32.0894 0.0590
48.2000 32.1028 0.0674
48.2200 32.1161 0.0601
48.2400 32.1294 0.0578
48.2600 32.1427 0.0650
48.2800 32.1560 0.0654
48.3000 32.1693 0.0593
48.3200 32.1827 0.0681
48.3400 32.1960 0.0579
48.3600 32.2093 0.0571
48.3800 32.2227 0.0615
48.4000 32.2361 0.0563
48.4200 32.2495 0.0574
48.4400 32.2628 0.0606
48.4600 32.2761 0.0556
48.4800 32.2895 0.0568
48.5000 32.3028 0.0598
48.5200 32.3161 0.0555
48.5400 32.3294 0.0591
48.5600 32.3427 0.0556
48.5800 32.3560 0.0562
48.6000 32.3694 0.0585
48.6200 32.3827 0.0500
48.6400 32.3960 0.0533
48.6600 32.4093 0.0612
48.6800 32.4227 0.0494
48.7000 32.4360 0.0578
48.7200 32.4493 0.0545
48.7400 32.4627 0.0509
48.7600 32.4761 0.0553
48.7800 32.4895 0.0558
48.8000 32.5028 0.0485
48.8200 32.5161 0.0582
48.8400 32.5295 0.0502
48.8600 32.5428 0.0510
48.8800 32.5561 0.0517
48.9000 32.5694 0.0497
48.9200 32.5827 0.0491
48.9400 32.5960 0.0540
48.9600 32.6094 0.0476
48.9800 32.6227 0.0441
49.0000 32.6360 0.0530
49.0200 32.6493 0.0464
49.0400 32.6627 0.0468
49.0600 32.6760 0.0491
49.0800 32.6894 0.0468
49.1000 32.7027 0.0477
49.1200 32.7161 0.0479
49.1400 32.7294 0.0486
49.1600 32.7428 0.0447
49.1800 32.7561 0.0429
49.2000 32.7694 0.0498
49.2200 32.7828 0.0421
49.2400 32.7961 0.0486
49.2600 32.8094 0.0467
49.2800 32.8227 0.0438
49.3000 32.8361 0.0478
49.3200 32.8494 0.0433
49.3400 32.8627 0.0378
49.3600 32.8760 0.0519
49.3800 32.8893 0.0434
49.4000 32.9027 0.0428
49.4200 32.9160 0.0502
49.4400 32.9294 0.0375
49.4600 32.9427 0.0404
49.4800 32.9561 0.0529
49.5000 32.9695 0.0338
49.5200 32.9828 0.0445
49.5400 32.9961 0.0519
49.5600 33.0094 0.0362
49.5800 33.0228 0.0414
49.6000 33.0361 0.0518
49.6200 33.0494 0.0330
49.6400 33.0627 0.0470
49.6600 33.0760 0.0454
49.6800 33.0894 0.0310
49.7000 33.1027 0.0499
49.7200 33.1160 0.0389
49.7400 33.1293 0.0353
49.7600 33.1427 0.0498
49.7800 33.1560 0.0374
49.8000 33.1693 0.0332
49.8200 33.1827 0.0474
49.8400 33.1961 0.0321
49.8600 33.2094 0.0375
49.8800 33.2228 0.0430
49.9000 33.2361 0.0304
49.9200 33.2494 0.0328
49.9400 33.2628 0.0438
49.9600 33.2761 0.0215
49.9800 33.2894 0.0380
50.0000 33.3027 0.0426
50.0200 33.3161 0.0231
50.0400 33.3294 0.0347
50.0600 33.3427 0.0421
50.0800 33.3560 0.0204
50.1000 33.3693 0.0395
50.1200 33.3827 0.0327
50.1400 33.3960 0.0222
50.1600 33.4094 0.0385
50.1800 33.4227 0.0257
50.2000 33.4361 0.0252
50.2200 33.4494 0.0409
50.2400 33.4627 0.0205
50.2600 33.4761 0.0311
50.2800 33.4894 0.0416
50.3000 33.5028 0.0153
50.3200 33.5161 0.0312
50.3400 33.5294 0.0350
50.3600 33.5427 0.0193
50.3800 33.5561 0.0286
50.4000 33.5694 0.0321
50.4200 33.5827 0.0164
50.4400 33.5960 0.0348
50.4600 33.6093 0.0291
50.4800 33.6226 0.0177
50.5000 33.6360 0.0308
50.5200 33.6493 0.0263
50.5400 33.6627 0.0189
50.5600 33.6761 0.0302
50.5800 33.6894 0.0220
50.6000 33.7028 0.0240
50.6200 33.7161 0.0283
50.6400 33.7295 0.0177
50.6600 33.7428 0.0206
50.6800 33.7561 0.0331
50.7000 33.7694 0.0170
50.7200 33.7827 0.0241
50.7400 33.7960 0.0320
50.7600 33.8094 0.0125
50.7800 33.8227 0.0239
50.8000 33.8360 0.0241
50.8200 33.8494 0.0221
50.8400 33.8627 0.0246
50.8600 33.8761 0.0241
50.8800 33.8894 0.0202
50.9000 33.9027 0.0227
50.9200 33.9161 0.0194
50.9400 33.9294 0.0208
50.9600 33.9428 0.0199
50.9800 33.9561 0.0252
51.0000 33.9694 0.0209
51.0200 33.9827 0.0217
51.0400 33.9961 0.0196
51.0600 34.0094 0.0235
51.0800 34.0227 0.0150
51.1000 34.0360 0.0250
51.1200 34.0494 0.0198
51.1400 34.0627 0.0150
51.1600 34.0760 0.0271
51.1800 34.0893 0.0186
51.2000 34.1027 0.0148
51.2200 34.1161 0.0244
51.2400 34.1294 0.0150
51.2600 34.1427 0.0115
51.2800 34.1561 0.0232
51.3000 34.1695 0.0150
51.3200 34.1828 0.0070
51.3400 34.1961 0.0218
51.3600 34.2094 0.0136
51.3800 34.2228 0.0066
51.4000 34.2361 0.0161
51.4200 34.2494 0.0058
51.4400 34.2627 0.0125
51.4600 34.2761 0.0210
51.4800 34.2894 -0.0005
51.5000 34.3027 0.0094
51.5200 34.3160 0.0205
51.5400 34.3293 -0.0045
51.5600 34.3426 0.0102
51.5800 34.3560 0.0139
51.6000 34.3694 -0.0026
51.6200 34.3827 0.0067
51.6400 34.3961 0.0099
51.6600 34.4094 -0.0074
51.6800 34.4228 0.0146
51.7000 34.4361 0.0079
51.7200 34.4494 -0.0060
51.7400 34.4628 0.0099
51.7600 34.4761 0.0048
51.7800 34.4894 -0.0041
51.8000 34.5027 0.0104
51.8200 34.5160 0.0070
51.8400 34.5294 -0.0046
51.8600 34.5427 0.0102
51.8800 34.5560 0.0021
51.9000 34.5693 -0.0047
51.9200 34.5827 0.0134
51.9400 34.5960 -0.0006
51.9600 34.6093 -0.0083
51.9800 34.6227 0.0146
52.0000 34.6360 -0.0047
52.0200 34.6494 -0.0078
52.0400 34.6627 0.0114
52.0600 34.6760 -0.0019
52.0800 34.6894 -0.0075
52.1000 34.7028 0.0133
52.1200 34.7161 -0.0109
52.1400 34.7294 -0.0027
52.1600 34.7427 0.0101
52.1800 34.7560 -0.0128
52.2000 34.7694 -0.0002
52.2200 34.7827 0.0104
52.2400 34.7960 -0.0157
52.2600 34.8093 0.0022
52.2800 34.8227 0.0065
52.3000 34.8360 -0.0167
52.3200 34.8493 0.0040
52.3400 34.8627 0.0010
52.3600 34.8761 -0.0162
52.3800 34.8895 0.0034
52.4000 34.9028 -0.0076
52.4200 34.9161 -0.0159
52.4400 34.9294 0.0058
52.4600 34.9427 -0.0121
52.4800 34.9561 -0.0125
52.5000 34.9694 -0.0023
52.5200 34.9827 -0.0145
52.5400 34.9960 -0.0084
52.5600 35.0094 0.0017
52.5800 35.0227 -0.0234
52.6000 35.0360 -0.0038
52.6200 35.0493 -0.0057
52.6400 35.0627 -0.0219
52.6600 35.0760 -0.0046
52.6800 35.0893 -0.0049
52.7000 35.1027 -0.0196
52.7200 35.1160 -0.0029
52.7400 35.1294 -0.0101
52.7600 35.1428 -0.0220
52.7800 35.1561 -0.0053
52.8000 35.1694 -0.0132
52.8200 35.1828 -0.0236
52.8400 35.1961 -0.0065
52.8600 35.2094 -0.0175
52.8800 35.2227 -0.0182
52.9000 35.2360 -0.0065
52.9200 35.2493 -0.0180
52.9400 35.2627 -0.0175
52.9600 35.2760 -0.0104
52.9800 35.2893 -0.0175
53.0000 35.3027 -0.0147
53.0200 35.3161 -0.0127
53.0400 35.3294 -0.0211
53.0600 35.3427 -0.0145
53.0800 35.3561 -0.0150
53.1000 35.3695 -0.0183
53.1200 35.3828 -0.0145
53.1400 35.3961 -0.0152
53.1600 35.4094 -0.0186
53.1800 35.4227 -0.0110
53.2000 35.4361 -0.0193
53.2200 35.4494 -0.0214
53.2400 35.4627 -0.0166
53.2600 35.4761 -0.0161
53.2800 35.4894 -0.0259
53.3000 35.5028 -0.0158
53.3200 35.5160 -0.0199
53.3400 35.5293 -0.0233
53.3600 35.5427 -0.0183
53.3800 35.5560 -0.0228
53.4000 35.5693 -0.0210
53.4200 35.5827 -0.0191
53.4400 35.5960 -0.0238
53.4600 35.6094 -0.0247
53.4800 35.6228 -0.0197
53.5000 35.6361 -0.0288
53.5200 35.6494 -0.0251
53.5400 35.6628 -0.0205
53.5600 35.6761 -0.0282
53.5800 35.6894 -0.0306
53.6000 35.7027 -0.0174
53.6200 35.7161 -0.0309
53.6400 35.7294 -0.0284
53.6600 35.7428 -0.0263
53.6800 35.7560 -0.0329
53.7000 35.7693 -0.0307
53.7200 35.7826 -0.0249
53.7400 35.7960 -0.0375
53.7600 35.8094 -0.0298
53.7800 35.8227 -0.0279
53.8000 35.8360 -0.0385
53.8200 35.8494 -0.0304
53.8400 35.8628 -0.0257
53.8600 35.8761 -0.0396
53.8800 35.8894 -0.0312
53.9000 35.9028 -0.0304
53.9200 35.9161 -0.0384
53.9400 35.9294 -0.0323
53.9600 35.9427 -0.0291
53.9800 35.9560 -0.0392
54.0000 35.9694 -0.0325
54.0200 35.9827 -0.0295
54.0400 35.9960 -0.0382
54.0600 36.0093 -0.0310
54.0800 36.0227 -0.0351
54.1000 36.0361 -0.0457
54.1200 36.0494 -0.0353
54.1400 36.0627 -0.0304
54.1600 36.0760 -0.0471
54.1800 36.0894 -0.0362
54.2000 36.1027 -0.0352
54.2200 36.1161 -0.0444
54.2400 36.1294 -0.0373
54.2600 36.1428 -0.0343
54.2800 36.1561 -0.0469
54.3000 36.1695 -0.0377
54.3200 36.1827 -0.0382
54.3400 36.1960 -0.0420
54.3600 36.2094 -0.0376
54.3800 36.2227 -0.0360
54.4000 36.2360 -0.0454
54.4200 36.2493 -0.0386
54.4400 36.2627 -0.0375
54.4600 36.2760 -0.0443
54.4800 36.2894 -0.0426
54.5000 36.3027 -0.0442
54.5200 36.3161 -0.0466
54.5400 36.3294 -0.0451
54.5600 36.3428 -0.0424
54.5800 36.3561 -0.0478
54.6000 36.3694 -0.0478
54.6200 36.3828 -0.0407
54.6400 36.3961 -0.0457
54.6600 36.4094 -0.0509
54.6800 36.4227 -0.0410
54.7000 36.4360 -0.0487
54.7200 36.4494 -0.0511
54.7400 36.4627 -0.0451
54.7600 36.4760 -0.0513
54.7800 36.4893 -0.0555
54.8000 36.5027 -0.0399
54.8200 36.5160 -0.0567
54.8400 36.5294 -0.0529
54.8600 36.5427 -0.0432
54.8800 36.5560 -0.0607
54.9000 36.5694 -0.0525
54.9200 36.5828 -0.0468
54.9400 36.5961 -0.0613
54.9600 36.6094 -0.0525
54.9800 36.6227 -0.0498
55.0000 36.6361 -0.0572
55.0200 36.6494 -0.0572
55.0400 36.6627 -0.0492
55.0600 36.6760 -0.0586
55.0800 36.6893 -0.0532
55.1000 36.7027 -0.0501
55.1200 36.7160 -0.0617
55.1400 36.7293 -0.0544
55.1600 36.7427 -0.0542
55.1800 36.7560 -0.0607
55.2000 36.7694 -0.0583
55.2200 36.7827 -0.0568
55.2400 36.7960 -0.0605
55.2600 36.8094 -0.0634
55.2800 36.8227 -0.0581
55.3000 36.8360 -0.0575
55.3200 36.8494 -0.0628
55.3400 36.8627 -0.0606
55.3600 36.8761 -0.0616
55.3800 36.8894 -0.0597
55.4000 36.9027 -0.0641
55.4200 36.9161 -0.0628
55.4400 36.9294 -0.0619
55.4600 36.9428 -0.0618
55.4800 36.9561 -0.0666
55.5000 36.9694 -0.0607
55.5200 36.9826 -0.0630
55.5400 36.9960 -0.0639
55.5600 37.0093 -0.0677
55.5800 37.0227 -0.0638
55.6000 37.0360 -0.0639
55.6200 37.0494 -0.0705
55.6400 37.0628 -0.0635
55.6600 37.0761 -0.0670
55.6800 37.0895 -0.0707
55.7000 37.1028 -0.0605
55.7200 37.1161 -0.0717
55.7400 37.1295 -0.0744
55.7600 37.1428 -0.0582
55.7800 37.1561 -0.0743
55.8000 37.1694 -0.0702
55.8200 37.1827 -0.0573
55.8400 37.1960 -0.0737
55.8600 37.2093 -0.0734
55.8800 37.2226 -0.0624
55.9000 37.2360 -0.0751
55.9200 37.2493 -0.0689
55.9400 37.2627 -0.0664
55.9600 37.2760 -0.0769
55.9800 37.2894 -0.0700
56.0000 37.3028 -0.0633
56.0200 37.3161 -0.0820
56.0400 37.3294 -0.0712
56.0600 37.3428 -0.0646
56.0800 37.3561 -0.0776
56.1000 37.3694 -0.0749
56.1200 37.3827 -0.0679
56.1400 37.3960 -0.0823
56.1600 37.4094 -0.0766
56.1800 37.4227 -0.0719
56.2000 37.4360 -0.0833
56.2200 37.4493 -0.0752
56.2400 37.4627 -0.0704
56.2600 37.4760 -0.0823
56.2800 37.4894 -0.0789
56.3000 37.5027 -0.0743
56.3200 37.5160 -0.0838
56.3400 37.5294 -0.0770
56.3600 37.5428 -0.0804
56.3800 37.5561 -0.0840
56.4000 37.5694 -0.0820
56.4200 37.5827 -0.0783
56.4400 37.5961 -0.0849
56.4600 37.6094 -0.0814
56.4800 37.6227 -0.0839
56.5000 37.6361 -0.0847
56.5200 37.6494 -0.0824
56.5400 37.6627 -0.0836
56.5600 37.6761 -0.0891
56.5800 37.6893 -0.0858
56.6000 37.7026 -0.0820
56.6200 37.7160 -0.0873
56.6400 37.7294 -0.0865
56.6600 37.7427 -0.0850
56.6800 37.7560 -0.0904
56.7000 37.7694 -0.0855
56.7200 37.7828 -0.0906
56.7400 37.7961 -0.0895
56.7600 37.8094 -0.0854
56.7800 37.8228 -0.0864
56.8000 37.8361 -0.0900
56.8200 37.8494 -0.0891
56.8400 37.8627 -0.0886
56.8600 37.8760 -0.0917
56.8800 37.8893 -0.0877
56.9000 37.9027 -0.0885
56.9200 37.9160 -0.0916
56.9400 37.9294 -0.0931
56.9600 37.9427 -0.0867
56.9800 37.9560 -0.0888
57.0000 37.9694 -0.0911
57.0200 37.9827 -0.0908
57.0400 37.9960 -0.0906
57.0600 38.0094 -0.0886
57.0800 38.0228 -0.0924
57.1000 38.0361 -0.1013
57.1200 38.0494 -0.0903
57.1400 38.0628 -0.0939
57.1600 38.0761 -0.0980
57.1800 38.0895 -0.0927
57.2000 38.1028 -0.0921
57.2200 38.1161 -0.0994
57.2400 38.1293 -0.0933
57.2600 38.1427 -0.0921
57.2800 38.1560 -0.1005
57.3000 38.1693 -0.0933
57.3200 38.1827 -0.0986
57.3400 38.1960 -0.1063
57.3600 38.2094 -0.0937
57.3800 38.2227 -0.0985
57.4000 38.2360 -0.1058
57.4200 38.2494 -0.0968
57.4400 38.2628 -0.1037
57.4600 38.2761 -0.1092
57.4800 38.2894 -0.0973
57.5000 38.3027 -0.1049
57.5200 38.3161 -0.1054
57.5400 38.3295 -0.1035
57.5600 38.3428 -0.1132
57.5800 38.3561 -0.1014
57.6000 38.3694 -0.1062
57.6200 38.3827 -0.1122
57.6400 38.3961 -0.1035
57.6600 38.4093 -0.1045
57.6800 38.4226 -0.1143
57.7000 38.4360 -0.1048
57.7200 38.4493 -0.1094
57.7400 38.4626 -0.1144
57.7600 38.4759 -0.1054
57.7800 38.4893 -0.1108
57.8000 38.5027 -0.1164
57.8200 38.5161 -0.1050
57.8400 38.5295 -0.1164
57.8600 38.5428 -0.1130
57.8800 38.5562 -0.1106
57.9000 38.5695 -0.1130
57.9200 38.5828 -0.1161
57.9400 38.5960 -0.1090
57.9600 38.6093 -0.1099
57.9800 38.6227 -0.1184
58.0000 38.6360 -0.1123
58.0200 38.6493 -0.1184
58.0400 38.6627 -0.1183
58.0600 38.6760 -0.1110
58.0800 38.6894 -0.1151
58.1000 38.7027 -0.1233
58.1200 38.7161 -0.1108
58.1400 38.7294 -0.1178
58.1600 38.7428 -0.1265
58.1800 38.7561 -0.1110
58.2000 38.7694 -0.1184
58.2200 38.7827 -0.1230
58.2400 38.7961 -0.1117
58.2600 38.8094 -0.1234
58.2800 38.8228 -0.1216
58.3000 38.8361 -0.1166
58.3200 38.8494 -0.1207
58.3400 38.8627 -0.1234
58.3600 38.8761 -0.1190
58.3800 38.8894 -0.1270
58.4000 38.9027 -0.1211
58.4200 38.9160 -0.1216
58.4400 38.9294 -0.1346
58.4600 38.9427 -0.1224
58.4800 38.9561 -0.1210
58.5000 38.9694 -0.1334
58.5200 38.9828 -0.1261
58.5400 38.9961 -0.1295
58.5600 39.0094 -0.1353
58.5800 39.0227 -0.1229
58.6000 39.0361 -0.1296
58.6200 39.0494 -0.1327
58.6400 39.0628 -0.1297
58.6600 39.0761 -0.1337
58.6800 39.0894 -0.1311
58.7000 39.1027 -0.1272
58.7200 39.1160 -0.1375
58.7400 39.1293 -0.1292
58.7600 39.1427 -0.1369
58.7800 39.1560 -0.1370
58.8000 39.1693 -0.1320
58.8200 39.1827 -0.1381
58.8400 39.1960 -0.1356
58.8600 39.2094 -0.1359
58.8800 39.2228 -0.1394
58.9000 39.2361 -0.1365
58.9200 39.2495 -0.1326
58.9400 39.2628 -0.1455
58.9600 39.2761 -0.1379
58.9800 39.2894 -0.1319
59.0000 39.3027 -0.1446
59.0200 39.3160 -0.1344
59.0400 39.3294 -0.1361
59.0600 39.3427 -0.1424
59.0800 39.3560 -0.1358
59.1000 39.3694 -0.1393
59.1200 39.3827 -0.1432
59.1400 39.3960 -0.1352
59.1600 39.4094 -0.1378
59.1800 39.4227 -0.1464
59.2000 39.4360 -0.1408
59.2200 39.4494 -0.1390
59.2400 39.4627 -0.1449
59.2600 39.4761 -0.1430
59.2800 39.4894 -0.1387
59.3000 39.5027 -0.1506
59.3200 39.5161 -0.1450
59.3400 39.5295 -0.1404
59.3600 39.5428 -0.1554
59.3800 39.5561 -0.1496
59.4000 39.5694 -0.1362
59.4200 39.5827 -0.1623
59.4400 39.5961 -0.1452
59.4600 39.6094 -0.1416
59.4800 39.6227 -0.1650
59.5000 39.6360 -0.1492
59.5200 39.6494 -0.1441
59.5400 39.6627 -0.1700
59.5600 39.6760 -0.1484
59.5800 39.6894 -0.1488
59.6000 39.7028 -0.1685
59.6200 39.7161 -0.1496
59.6400 39.7295 -0.1545
59.6600 39.7427 -0.1692
59.6800 39.7561 -0.1512
59.7000 39.7694 -0.1612
59.7200 39.7828 -0.1689
59.7400 39.7961 -0.1521
59.7600 39.8094 -0.1620
59.7800 39.8227 -0.1633
59.8000 39.8361 -0.1578
59.8200 39.8494 -0.1645
59.8400 39.8627 -0.1682
59.8600 39.8760 -0.1557
59.8800 39.8893 -0.1687
59.9000 39.9027 -0.1660
59.9200 39.9160 -0.1641
59.9400 39.9294 -0.1666
59.9600 39.9427 -0.1654
59.9800 39.9561 -0.1756
60.0000 39.9695 -0.1658
60.0200 39.9828 -0.1645
60.0400 39.9961 -0.1867
60.0470 40.0006 -0.1995
