Raw Data
Time Displacement Force
(s) (mm) (N)
0.0000 0.0000 0.2161
0.0200 0.0001 0.2073
0.0400 0.0022 0.3053
0.0600 0.0100 0.2916
0.0800 0.0219 0.1882
0.1000 0.0344 0.2223
0.1200 0.0471 0.2457
0.1400 0.0605 0.1944
0.1600 0.0746 0.2240
0.1800 0.0888 0.2145
0.2000 0.1027 0.1880
0.2200 0.1163 0.2255
0.2400 0.1296 0.2222
0.2600 0.1429 0.1881
0.2800 0.1562 0.2356
0.3000 0.1696 0.2173
0.3200 0.1830 0.1868
0.3400 0.1963 0.2394
0.3600 0.2097 0.2092
0.3800 0.2230 0.1895
0.4000 0.2364 0.2303
0.4200 0.2497 0.1969
0.4400 0.2630 0.1976
0.4600 0.2763 0.2219
0.4800 0.2897 0.1953
0.5000 0.3030 0.1913
0.5200 0.3163 0.2131
0.5400 0.3296 0.1958
0.5600 0.3430 0.1845
0.5800 0.3563 0.2057
0.6000 0.3697 0.1856
0.6200 0.3830 0.1841
0.6400 0.3964 0.1966
0.6600 0.4097 0.1822
0.6800 0.4231 0.1787
0.7000 0.4364 0.1850
0.7200 0.4497 0.1766
0.7400 0.4630 0.1741
0.7600 0.4764 0.1818
0.7800 0.4897 0.1764
0.8000 0.5030 0.1567
0.8200 0.5163 0.1770
0.8400 0.5297 0.1648
0.8600 0.5430 0.1544
0.8800 0.5563 0.1681
0.9000 0.5696 0.1590
0.9200 0.5829 0.1487
0.9400 0.5963 0.1605
0.9600 0.6096 0.1518
0.9800 0.6230 0.1445
1.0000 0.6363 0.1555
1.0200 0.6497 0.1442
1.0400 0.6631 0.1390
1.0600 0.6764 0.1538
1.0800 0.6897 0.1299
1.1000 0.7030 0.1354
1.1200 0.7164 0.1448
1.1400 0.7297 0.1258
1.1600 0.7430 0.1304
1.1800 0.7563 0.1365
1.2000 0.7697 0.1284
1.2200 0.7830 0.1186
1.2400 0.7964 0.1331
1.2600 0.8097 0.1204
1.2800 0.8230 0.1167
1.3000 0.8363 0.1289
1.3200 0.8497 0.1127
1.3400 0.8630 0.1149
1.3600 0.8763 0.1252
1.3800 0.8897 0.1098
1.4000 0.9031 0.1101
1.4200 0.9164 0.1152
1.4400 0.9297 0.1095
1.4600 0.9430 0.1053
1.4800 0.9564 0.1131
1.5000 0.9697 0.1013
1.5200 0.9830 0.0993
1.5400 0.9963 0.1055
1.5600 1.0097 0.0974
1.5800 1.0230 0.0990
1.6000 1.0363 0.0962
1.6200 1.0496 0.0970
1.6400 1.0629 0.0917
1.6600 1.0763 0.0869
1.6800 1.0897 0.0926
1.7000 1.1030 0.0794
1.7200 1.1163 0.0829
1.7400 1.1297 0.0862
1.7600 1.1431 0.0771
1.7800 1.1564 0.0846
1.8000 1.1697 0.0802
1.8200 1.1830 0.0784
1.8400 1.1964 0.0809
1.8600 1.2097 0.0845
1.8800 1.2230 0.0713
1.9000 1.2363 0.0833
1.9200 1.2497 0.0827
1.9400 1.2630 0.0689
1.9600 1.2764 0.0778
1.9800 1.2896 0.0738
2.0000 1.3030 0.0696
2.0200 1.3163 0.0758
2.0400 1.3296 0.0675
2.0600 1.3430 0.0687
2.0800 1.3563 0.0678
2.1000 1.3697 0.0639
2.1200 1.3831 0.0583
2.1400 1.3964 0.0612
2.1600 1.4097 0.0589
2.1800 1.4231 0.0571
2.2000 1.4364 0.0550
2.2200 1.4497 0.0470
2.2400 1.4630 0.0560
2.2600 1.4763 0.0471
2.2800 1.4896 0.0441
2.3000 1.5030 0.0468
2.3200 1.5163 0.0452
2.3400 1.5296 0.0414
2.3600 1.5430 0.0467
2.3800 1.5563 0.0335
2.4000 1.5697 0.0389
2.4200 1.5830 0.0411
2.4400 1.5964 0.0282
2.4600 1.6097 0.0357
2.4800 1.6231 0.0408
2.5000 1.6364 0.0223
2.5200 1.6497 0.0343
2.5400 1.6630 0.0291
2.5600 1.6764 0.0234
2.5800 1.6897 0.0294
2.6000 1.7031 0.0250
2.6200 1.7164 0.0174
2.6400 1.7297 0.0255
2.6600 1.7431 0.0225
2.6800 1.7564 0.0084
2.7000 1.7697 0.0273
2.7200 1.7830 0.0163
2.7400 1.7963 0.0005
2.7600 1.8097 0.0200
2.7800 1.8230 0.0103
2.8000 1.8363 -0.0026
2.8200 1.8497 0.0174
2.8400 1.8630 0.0034
2.8600 1.8764 -0.0012
2.8800 1.8897 0.0100
2.9000 1.9030 -0.0010
2.9200 1.9164 -0.0031
2.9400 1.9297 0.0056
2.9600 1.9430 -0.0070
2.9800 1.9564 -0.0010
3.0000 1.9697 -0.0002
3.0200 1.9831 -0.0094
3.0400 1.9964 -0.0069
3.0600 2.0097 -0.0030
3.0800 2.0230 -0.0112
3.1000 2.0363 -0.0072
3.1200 2.0497 -0.0085
3.1400 2.0630 -0.0156
3.1600 2.0763 -0.0117
3.1800 2.0897 -0.0148
3.2000 2.1031 -0.0236
3.2200 2.1164 -0.0144
3.2400 2.1297 -0.0177
3.2600 2.1431 -0.0247
3.2800 2.1564 -0.0160
3.3000 2.1697 -0.0257
3.3200 2.1830 -0.0229
3.3400 2.1963 -0.0156
3.3600 2.2097 -0.0248
3.3800 2.2230 -0.0271
3.4000 2.2363 -0.0231
3.4200 2.2497 -0.0317
3.4400 2.2630 -0.0250
3.4600 2.2763 -0.0294
3.4800 2.2897 -0.0352
3.5000 2.3030 -0.0347
3.5200 2.3163 -0.0315
3.5400 2.3297 -0.0366
3.5600 2.3431 -0.0316
3.5800 2.3564 -0.0368
3.6000 2.3697 -0.0426
3.6200 2.3831 -0.0400
3.6400 2.3964 -0.0417
3.6600 2.4098 -0.0433
3.6800 2.4231 -0.0422
3.7000 2.4364 -0.0494
3.7200 2.4497 -0.0475
3.7400 2.4630 -0.0481
3.7600 2.4764 -0.0521
3.7800 2.4896 -0.0501
3.8000 2.5029 -0.0475
3.8200 2.5163 -0.0517
3.8400 2.5296 -0.0592
3.8600 2.5430 -0.0542
3.8800 2.5563 -0.0558
3.9000 2.5697 -0.0560
3.9200 2.5831 -0.0595
3.9400 2.5964 -0.0591
3.9600 2.6098 -0.0645
3.9800 2.6231 -0.0590
4.0000 2.6364 -0.0598
4.0200 2.6497 -0.0692
4.0400 2.6630 -0.0653
4.0600 2.6763 -0.0612
4.0800 2.6897 -0.0745
4.1000 2.7030 -0.0667
4.1200 2.7164 -0.0659
4.1400 2.7297 -0.0773
4.1600 2.7430 -0.0753
4.1800 2.7563 -0.0683
4.2000 2.7696 -0.0855
4.2200 2.7830 -0.0756
4.2400 2.7963 -0.0701
4.2600 2.8097 -0.0847
4.2800 2.8231 -0.0795
4.3000 2.8364 -0.0788
4.3200 2.8497 -0.0911
4.3400 2.8630 -0.0803
4.3600 2.8764 -0.0812
4.3800 2.8898 -0.0924
4.4000 2.9031 -0.0821
4.4200 2.9164 -0.0871
4.4400 2.9297 -0.0904
4.4600 2.9430 -0.0848
4.4800 2.9563 -0.0853
4.5000 2.9697 -0.1011
4.5200 2.9830 -0.0858
4.5400 2.9963 -0.0959
4.5600 3.0097 -0.1012
4.5800 3.0230 -0.0932
4.6000 3.0363 -0.0979
4.6200 3.0497 -0.1035
4.6400 3.0630 -0.0960
4.6600 3.0764 -0.1033
4.6800 3.0897 -0.1051
4.7000 3.1030 -0.1016
4.7200 3.1163 -0.1030
4.7400 3.1297 -0.1084
4.7600 3.1431 -0.1103
4.7800 3.1564 -0.1091
4.8000 3.1697 -0.1118
4.8200 3.1831 -0.1144
4.8400 3.1964 -0.1079
4.8600 3.2097 -0.1194
4.8800 3.2230 -0.1134
4.9000 3.2363 -0.1048
4.9200 3.2496 -0.1208
4.9400 3.2630 -0.1128
4.9600 3.2763 -0.1143
4.9800 3.2897 -0.1230
5.0000 3.3031 -0.1206
5.0200 3.3164 -0.1140
5.0400 3.3298 -0.1311
5.0600 3.3431 -0.1223
5.0800 3.3564 -0.1171
5.1000 3.3698 -0.1346
5.1200 3.3831 -0.1191
5.1400 3.3964 -0.1185
5.1600 3.4097 -0.1376
5.1800 3.4230 -0.1196
5.2000 3.4363 -0.1300
5.2200 3.4496 -0.1380
5.2400 3.4629 -0.1227
5.2600 3.4763 -0.1296
5.2800 3.4896 -0.1447
5.3000 3.5030 -0.1255
5.3200 3.5163 -0.1311
5.3400 3.5297 -0.1394
5.3600 3.5430 -0.1260
5.3800 3.5564 -0.1395
5.4000 3.5698 -0.1440
5.4200 3.5831 -0.1335
5.4400 3.5964 -0.1376
5.4600 3.6098 -0.1469
5.4800 3.6231 -0.1350
5.5000 3.6364 -0.1410
5.5200 3.6497 -0.1497
5.5400 3.6630 -0.1337
5.5600 3.6763 -0.1426
5.5800 3.6897 -0.1541
5.6000 3.7030 -0.1374
5.6200 3.7163 -0.1532
5.6400 3.7296 -0.1568
5.6600 3.7430 -0.1477
5.6800 3.7564 -0.1524
5.7000 3.7697 -0.1602
5.7200 3.7830 -0.1474
5.7400 3.7964 -0.1563
5.7600 3.8097 -0.1627
5.7800 3.8230 -0.1511
5.8000 3.8364 -0.1535
5.8200 3.8497 -0.1677
5.8400 3.8631 -0.1591
5.8600 3.8764 -0.1589
5.8800 3.8897 -0.1664
5.9000 3.9031 -0.1629
5.9200 3.9164 -0.1619
5.9400 3.9297 -0.1706
5.9600 3.9430 -0.1671
5.9800 3.9563 -0.1579
6.0000 3.9696 -0.1732
6.0200 3.9830 -0.1674
6.0400 3.9963 -0.1631
6.0600 4.0097 -0.1778
6.0800 4.0231 -0.1716
6.1000 4.0364 -0.1655
6.1200 4.0498 -0.1855
6.1400 4.0631 -0.1758
6.1600 4.0764 -0.1645
6.1800 4.0897 -0.1900
6.2000 4.1031 -0.1783
6.2200 4.1164 -0.1642
6.2400 4.1297 -0.1919
6.2600 4.1430 -0.1745
6.2800 4.1564 -0.1755
6.3000 4.1697 -0.1985
6.3200 4.1830 -0.1787
6.3400 4.1963 -0.1753
6.3600 4.2096 -0.2010
6.3800 4.2230 -0.1786
6.4000 4.2363 -0.1793
6.4200 4.2497 -0.2032
6.4400 4.2630 -0.1790
6.4600 4.2764 -0.1840
6.4800 4.2897 -0.2095
6.5000 4.3030 -0.1818
6.5200 4.3164 -0.1920
6.5400 4.3298 -0.2071
6.5600 4.3431 -0.1827
6.5800 4.3564 -0.1958
6.6000 4.3697 -0.2061
6.6200 4.3830 -0.1816
6.6400 4.3963 -0.1962
6.6600 4.4097 -0.2097
6.6800 4.4230 -0.1776
6.7000 4.4363 -0.2030
6.7200 4.4496 -0.2074
6.7400 4.4630 -0.1900
6.7600 4.4763 -0.2047
6.7800 4.4897 -0.2061
6.8000 4.5030 -0.1928
6.8200 4.5164 -0.2072
6.8400 4.5297 -0.2058
6.8600 4.5430 -0.1974
6.8800 4.5564 -0.2063
6.9000 4.5697 -0.2085
6.9200 4.5831 -0.2050
6.9400 4.5964 -0.2124
6.9600 4.6097 -0.2083
6.9800 4.6230 -0.2103
7.0000 4.6364 -0.2159
7.0200 4.6497 -0.2128
7.0400 4.6630 -0.2132
7.0600 4.6763 -0.2120
7.0800 4.6896 -0.2153
7.1000 4.7029 -0.2163
7.1200 4.7163 -0.2113
7.1400 4.7296 -0.2163
7.1600 4.7430 -0.2240
7.1800 4.7564 -0.2177
7.2000 4.7698 -0.2209
7.2200 4.7831 -0.2243
7.2400 4.7964 -0.2179
7.2600 4.8098 -0.2216
7.2800 4.8231 -0.2293
7.3000 4.8364 -0.2189
7.3200 4.8497 -0.2188
7.3400 4.8630 -0.2258
7.3600 4.8763 -0.2219
7.3800 4.8896 -0.2226
7.4000 4.9030 -0.2329
7.4200 4.9163 -0.2234
7.4400 4.9297 -0.2286
7.4600 4.9430 -0.2308
7.4800 4.9564 -0.2259
7.5000 4.9697 -0.2290
7.5200 4.9831 -0.2282
7.5400 4.9964 -0.2276
7.5600 5.0098 -0.2314
7.5800 5.0231 -0.2345
7.6000 5.0364 -0.2296
7.6200 5.0497 -0.2340
7.6400 5.0631 -0.2375
7.6600 5.0764 -0.2342
7.6800 5.0897 -0.2316
7.7000 5.1030 -0.2413
7.7200 5.1163 -0.2352
7.7400 5.1297 -0.2367
7.7600 5.1430 -0.2391
7.7800 5.1563 -0.2368
7.8000 5.1696 -0.2389
7.8200 5.1830 -0.2487
7.8400 5.1963 -0.2403
7.8600 5.2097 -0.2428
7.8800 5.2230 -0.2513
7.9000 5.2364 -0.2435
7.9200 5.2497 -0.2483
7.9400 5.2631 -0.2519
7.9600 5.2764 -0.2391
7.9800 5.2897 -0.2513
8.0000 5.3031 -0.2544
8.0200 5.3164 -0.2452
8.0400 5.3297 -0.2556
8.0600 5.3430 -0.2558
8.0800 5.3564 -0.2485
8.1000 5.3697 -0.2618
8.1200 5.3830 -0.2576
8.1400 5.3963 -0.2500
8.1600 5.4096 -0.2641
8.1800 5.4230 -0.2562
8.2000 5.4363 -0.2558
8.2200 5.4497 -0.2622
8.2400 5.4630 -0.2603
8.2600 5.4764 -0.2597
8.2800 5.4898 -0.2676
8.3000 5.5031 -0.2640
8.3200 5.5164 -0.2656
8.3400 5.5297 -0.2661
8.3600 5.5431 -0.2613
8.3800 5.5564 -0.2651
8.4000 5.5697 -0.2639
8.4200 5.5830 -0.2619
8.4400 5.5964 -0.2730
8.4600 5.6097 -0.2618
8.4800 5.6230 -0.2640
8.5000 5.6363 -0.2735
8.5200 5.6496 -0.2662
8.5400 5.6630 -0.2701
8.5600 5.6763 -0.2757
8.5800 5.6897 -0.2656
8.6000 5.7030 -0.2715
8.6200 5.7164 -0.2783
8.6400 5.7297 -0.2676
8.6600 5.7430 -0.2733
8.6800 5.7564 -0.2788
8.7000 5.7697 -0.2711
8.7200 5.7831 -0.2762
8.7400 5.7964 -0.2837
8.7600 5.8097 -0.2720
8.7800 5.8230 -0.2816
8.8000 5.8364 -0.2805
8.8200 5.8497 -0.2782
8.8400 5.8630 -0.2843
8.8600 5.8763 -0.2836
8.8800 5.8896 -0.2747
8.9000 5.9030 -0.2864
8.9200 5.9163 -0.2850
8.9400 5.9297 -0.2864
8.9600 5.9430 -0.2855
8.9800 5.9564 -0.2898
9.0000 5.9698 -0.2893
9.0200 5.9831 -0.2892
9.0400 5.9964 -0.2919
9.0600 6.0097 -0.2943
9.0800 6.0231 -0.2941
9.1000 6.0364 -0.2935
9.1200 6.0497 -0.2966
9.1400 6.0630 -0.2933
9.1600 6.0763 -0.3002
9.1800 6.0897 -0.2978
9.2000 6.1030 -0.2942
9.2200 6.1163 -0.3020
9.2400 6.1296 -0.2992
9.2600 6.1430 -0.2981
9.2800 6.1563 -0.3092
9.3000 6.1696 -0.2979
9.3200 6.1830 -0.2984
9.3400 6.1964 -0.3103
9.3600 6.2098 -0.3046
9.3800 6.2231 -0.3012
9.4000 6.2364 -0.3164
9.4200 6.2497 -0.3016
9.4400 6.2631 -0.3055
9.4600 6.2764 -0.3195
9.4800 6.2897 -0.3075
9.5000 6.3030 -0.3082
9.5200 6.3163 -0.3231
9.5400 6.3296 -0.3050
9.5600 6.3430 -0.3141
9.5800 6.3563 -0.3208
9.6000 6.3696 -0.3103
9.6200 6.3830 -0.3140
9.6400 6.3964 -0.3226
9.6600 6.4097 -0.3120
9.6800 6.4230 -0.3182
9.7000 6.4364 -0.3278
9.7200 6.4498 -0.3138
9.7400 6.4631 -0.3248
9.7600 6.4764 -0.3245
9.7800 6.4897 -0.3162
9.8000 6.5031 -0.3229
9.8200 6.5164 -0.3265
9.8400 6.5297 -0.3167
9.8600 6.5430 -0.3255
9.8800 6.5564 -0.3301
9.9000 6.5697 -0.3201
9.9200 6.5830 -0.3255
9.9400 6.5963 -0.3271
9.9600 6.6096 -0.3213
9.9800 6.6230 -0.3272
10.0000 6.6363 -0.3294
10.0200 6.6496 -0.3239
10.0400 6.6630 -0.3191
10.0600 6.6763 -0.3362
10.0800 6.6897 -0.3246
10.1000 6.7031 -0.3233
10.1200 6.7164 -0.3294
10.1400 6.7297 -0.3243
10.1600 6.7431 -0.3212
10.1800 6.7564 -0.3357
10.2000 6.7697 -0.3287
10.2200 6.7830 -0.3185
10.2400 6.7964 -0.3312
10.2600 6.8097 -0.3268
10.2800 6.8230 -0.3205
10.3000 6.8363 -0.3367
10.3200 6.8496 -0.3255
10.3400 6.8630 -0.3195
10.3600 6.8763 -0.3389
10.3800 6.8897 -0.3269
10.4000 6.9030 -0.3303
10.4200 6.9164 -0.3371
10.4400 6.9297 -0.3230
10.4600 6.9431 -0.3250
10.4800 6.9564 -0.3405
10.5000 6.9697 -0.3258
10.5200 6.9831 -0.3344
10.5400 6.9964 -0.3374
10.5600 7.0097 -0.3284
10.5800 7.0230 -0.3343
10.6000 7.0363 -0.3413
10.6200 7.0497 -0.3307
10.6400 7.0630 -0.3378
10.6600 7.0763 -0.3414
10.6800 7.0897 -0.3292
10.7000 7.1030 -0.3389
10.7200 7.1164 -0.3493
10.7400 7.1297 -0.3356
10.7600 7.1430 -0.3428
10.7800 7.1563 -0.3441
10.8000 7.1697 -0.3377
10.8200 7.1831 -0.3468
10.8400 7.1964 -0.3479
10.8600 7.2097 -0.3419
10.8800 7.2231 -0.3442
10.9000 7.2364 -0.3489
10.9200 7.2497 -0.3374
10.9400 7.2630 -0.3487
10.9600 7.2763 -0.3493
10.9800 7.2897 -0.3446
11.0000 7.3030 -0.3522
11.0200 7.3163 -0.3514
11.0400 7.3296 -0.3454
11.0600 7.3430 -0.3549
11.0800 7.3563 -0.3601
11.1000 7.3697 -0.3477
11.1200 7.3830 -0.3534
11.1400 7.3964 -0.3631
11.1600 7.4098 -0.3479
11.1800 7.4231 -0.3605
11.2000 7.4364 -0.3644
11.2200 7.4497 -0.3558
11.2400 7.4631 -0.3668
11.2600 7.4764 -0.3644
11.2800 7.4897 -0.3586
11.3000 7.5030 -0.3690
11.3200 7.5163 -0.3693
11.3400 7.5297 -0.3550
11.3600 7.5430 -0.3725
11.3800 7.5563 -0.3725
11.4000 7.5697 -0.3567
11.4200 7.5830 -0.3806
11.4400 7.5963 -0.3730
11.4600 7.6096 -0.3652
11.4800 7.6230 -0.3851
11.5000 7.6364 -0.3720
11.5200 7.6497 -0.3745
11.5400 7.6631 -0.3808
11.5600 7.6764 -0.3747
11.5800 7.6897 -0.3707
11.6000 7.7031 -0.3852
11.6200 7.7164 -0.3767
11.6400 7.7297 -0.3769
11.6600 7.7430 -0.3872
11.6800 7.7563 -0.3796
11.7000 7.7697 -0.3818
11.7200 7.7830 -0.3871
11.7400 7.7963 -0.3804
11.7600 7.8096 -0.3860
11.7800 7.8230 -0.3841
11.8000 7.8363 -0.3785
11.8200 7.8497 -0.3856
11.8400 7.8630 -0.3863
11.8600 7.8763 -0.3855
11.8800 7.8897 -0.3872
11.9000 7.9030 -0.3845
11.9200 7.9163 -0.3884
11.9400 7.9297 -0.3873
11.9600 7.9430 -0.3841
11.9800 7.9564 -0.3943
12.0000 7.9697 -0.3832
12.0200 7.9830 -0.3841
12.0400 7.9964 -0.3856
12.0600 8.0097 -0.3873
12.0800 8.0230 -0.3910
12.1000 8.0363 -0.3886
12.1200 8.0496 -0.3855
12.1400 8.0629 -0.3887
12.1600 8.0763 -0.3953
12.1800 8.0896 -0.3905
12.2000 8.1030 -0.3835
12.2200 8.1163 -0.3936
12.2400 8.1298 -0.3852
12.2600 8.1431 -0.3898
12.2800 8.1564 -0.3944
12.3000 8.1698 -0.3889
12.3200 8.1831 -0.3943
12.3400 8.1964 -0.3928
12.3600 8.2097 -0.3893
12.3800 8.2230 -0.3964
12.4000 8.2363 -0.3922
12.4200 8.2497 -0.3833
12.4400 8.2630 -0.3972
12.4600 8.2763 -0.3939
12.4800 8.2896 -0.3862
12.5000 8.3029 -0.3980
12.5200 8.3163 -0.3990
12.5400 8.3297 -0.3883
12.5600 8.3430 -0.4008
12.5800 8.3564 -0.3985
12.6000 8.3697 -0.3909
12.6200 8.3831 -0.4005
12.6400 8.3964 -0.3991
12.6600 8.4097 -0.3890
12.6800 8.4231 -0.4079
12.7000 8.4364 -0.3962
12.7200 8.4497 -0.3937
12.7400 8.4630 -0.4047
12.7600 8.4763 -0.4029
12.7800 8.4897 -0.4020
12.8000 8.5030 -0.4094
12.8200 8.5163 -0.4025
12.8400 8.5296 -0.4070
12.8600 8.5430 -0.4052
12.8800 8.5564 -0.4044
12.9000 8.5697 -0.4127
12.9200 8.5830 -0.4025
12.9400 8.5964 -0.4039
12.9600 8.6097 -0.4134
12.9800 8.6231 -0.4066
13.0000 8.6364 -0.4138
13.0200 8.6497 -0.4151
13.0400 8.6631 -0.4007
13.0600 8.6764 -0.4185
13.0800 8.6897 -0.4146
13.1000 8.7031 -0.4029
13.1200 8.7164 -0.4209
13.1400 8.7297 -0.4159
13.1600 8.7430 -0.4021
13.1800 8.7563 -0.4227
13.2000 8.7696 -0.4115
13.2200 8.7830 -0.4123
13.2400 8.7963 -0.4292
13.2600 8.8097 -0.4120
13.2800 8.8230 -0.4124
13.3000 8.8364 -0.4330
13.3200 8.8498 -0.4098
13.3400 8.8631 -0.4158
13.3600 8.8764 -0.4258
13.3800 8.8897 -0.4166
13.4000 8.9031 -0.4240
13.4200 8.9164 -0.4295
13.4400 8.9297 -0.4224
13.4600 8.9430 -0.4230
13.4800 8.9563 -0.4258
13.5000 8.9697 -0.4261
13.5200 8.9830 -0.4299
13.5400 8.9963 -0.4276
13.5600 9.0097 -0.4202
13.5800 9.0230 -0.4241
13.6000 9.0363 -0.4273
13.6200 9.0496 -0.4269
13.6400 9.0630 -0.4328
13.6600 9.0763 -0.4280
13.6800 9.0897 -0.4309
13.7000 9.1031 -0.4301
13.7200 9.1164 -0.4321
13.7400 9.1297 -0.4261
13.7600 9.1431 -0.4349
13.7800 9.1564 -0.4275
13.8000 9.1698 -0.4327
13.8200 9.1830 -0.4319
13.8400 9.1963 -0.4294
13.8600 9.2097 -0.4347
13.8800 9.2230 -0.4379
13.9000 9.2363 -0.4283
13.9200 9.2497 -0.4340
13.9400 9.2630 -0.4319
13.9600 9.2763 -0.4335
13.9800 9.2897 -0.4387
14.0000 9.3030 -0.4338
14.0200 9.3163 -0.4338
14.0400 9.3297 -0.4421
14.0600 9.3431 -0.4382
14.0800 9.3564 -0.4387
14.1000 9.3697 -0.4446
14.1200 9.3830 -0.4368
14.1400 9.3964 -0.4444
14.1600 9.4097 -0.4421
14.1800 9.4230 -0.4440
14.2000 9.4364 -0.4440
14.2200 9.4497 -0.4436
14.2400 9.4631 -0.4412
14.2600 9.4763 -0.4499
14.2800 9.4896 -0.4413
14.3000 9.5029 -0.4484
14.3200 9.5163 -0.4485
14.3400 9.5296 -0.4457
14.3600 9.5430 -0.4503
14.3800 9.5563 -0.4563
14.4000 9.5697 -0.4419
14.4200 9.5831 -0.4559
14.4400 9.5964 -0.4569
14.4600 9.6098 -0.4413
14.4800 9.6231 -0.4572
14.5000 9.6364 -0.4538
14.5200 9.6497 -0.4484
14.5400 9.6630 -0.4629
14.5600 9.6763 -0.4511
14.5800 9.6896 -0.4492
14.6000 9.7030 -0.4688
14.6200 9.7163 -0.4478
14.6400 9.7296 -0.4479
14.6600 9.7430 -0.4715
14.6800 9.7564 -0.4572
14.7000 9.7697 -0.4515
14.7200 9.7830 -0.4715
14.7400 9.7964 -0.4548
14.7600 9.8097 -0.4595
14.7800 9.8231 -0.4727
14.8000 9.8364 -0.4605
14.8200 9.8497 -0.4592
14.8400 9.8631 -0.4753
14.8600 9.8764 -0.4551
14.8800 9.8897 -0.4687
14.9000 9.9030 -0.4758
14.9200 9.9163 -0.4576
14.9400 9.9297 -0.4670
14.9600 9.9430 -0.4750
14.9800 9.9563 -0.4601
15.0000 9.9696 -0.4738
15.0200 9.9830 -0.4754
15.0400 9.9963 -0.4601
15.0600 10.0097 -0.4667
15.0800 10.0230 -0.4763
15.1000 10.0364 -0.4659
15.1200 10.0497 -0.4727
15.1400 10.0631 -0.4728
15.1600 10.0764 -0.4647
15.1800 10.0897 -0.4729
15.2000 10.1030 -0.4750
15.2200 10.1164 -0.4735
15.2400 10.1298 -0.4698
15.2600 10.1430 -0.4746
15.2800 10.1563 -0.4704
15.3000 10.1697 -0.4698
15.3200 10.1830 -0.4744
15.3400 10.1963 -0.4769
15.3600 10.2096 -0.4713
15.3800 10.2229 -0.4703
15.4000 10.2363 -0.4723
15.4200 10.2497 -0.4799
15.4400 10.2630 -0.4746
15.4600 10.2763 -0.4736
15.4800 10.2897 -0.4716
15.5000 10.3031 -0.4744
15.5200 10.3164 -0.4737
15.5400 10.3298 -0.4786
15.5600 10.3431 -0.4754
15.5800 10.3564 -0.4735
15.6000 10.3698 -0.4750
15.6200 10.3830 -0.4740
15.6400 10.3963 -0.4758
15.6600 10.4097 -0.4785
15.6800 10.4230 -0.4762
15.7000 10.4363 -0.4710
15.7200 10.4497 -0.4745
15.7400 10.4630 -0.4800
15.7600 10.4763 -0.4766
15.7800 10.4897 -0.4734
15.8000 10.5030 -0.4881
15.8200 10.5163 -0.4704
15.8400 10.5297 -0.4743
15.8600 10.5430 -0.4873
15.8800 10.5564 -0.4750
15.9000 10.5697 -0.4771
15.9200 10.5830 -0.4865
15.9400 10.5964 -0.4737
15.9600 10.6098 -0.4838
15.9800 10.6231 -0.4859
16.0000 10.6364 -0.4712
16.0200 10.6497 -0.4815
16.0400 10.6630 -0.4889
16.0600 10.6763 -0.4708
16.0800 10.6896 -0.4864
16.1000 10.7030 -0.4904
16.1200 10.7163 -0.4657
16.1400 10.7297 -0.4918
16.1600 10.7430 -0.4914
16.1800 10.7563 -0.4706
16.2000 10.7697 -0.4942
16.2200 10.7831 -0.4894
16.2400 10.7964 -0.4716
16.2600 10.8097 -0.4939
16.2800 10.8230 -0.4883
16.3000 10.8364 -0.4749
16.3200 10.8497 -0.4950
16.3400 10.8631 -0.4881
16.3600 10.8763 -0.4757
16.3800 10.8897 -0.4984
16.4000 10.9030 -0.4864
16.4200 10.9164 -0.4829
16.4400 10.9297 -0.4992
16.4600 10.9430 -0.4907
16.4800 10.9563 -0.4780
16.5000 10.9696 -0.5021
16.5200 10.9830 -0.4914
16.5400 10.9963 -0.4821
16.5600 11.0097 -0.5023
16.5800 11.0231 -0.4917
16.6000 11.0364 -0.4841
16.6200 11.0497 -0.5059
16.6400 11.0631 -0.4893
16.6600 11.0764 -0.4904
16.6800 11.0897 -0.5058
16.7000 11.1030 -0.4930
16.7200 11.1163 -0.4906
16.7400 11.1296 -0.5035
16.7600 11.1430 -0.4905
16.7800 11.1563 -0.4926
16.8000 11.1696 -0.5062
16.8200 11.1830 -0.4906
16.8400 11.1963 -0.4960
16.8600 11.2097 -0.5042
16.8800 11.2230 -0.4996
16.9000 11.2364 -0.4980
16.9200 11.2497 -0.4997
16.9400 11.2631 -0.4965
16.9600 11.2764 -0.4990
16.9800 11.2897 -0.5037
17.0000 11.3030 -0.5029
17.0200 11.3164 -0.5010
17.0400 11.3297 -0.5073
17.0600 11.3431 -0.5002
17.0800 11.3564 -0.5072
17.1000 11.3697 -0.5105
17.1200 11.3830 -0.5058
17.1400 11.3964 -0.4998
17.1600 11.4097 -0.5084
17.1800 11.4230 -0.5109
17.2000 11.4363 -0.5027
17.2200 11.4497 -0.5185
17.2400 11.4630 -0.5151
17.2600 11.4763 -0.5038
17.2800 11.4897 -0.5142
17.3000 11.5030 -0.5132
17.3200 11.5164 -0.5090
17.3400 11.5297 -0.5213
17.3600 11.5430 -0.5137
17.3800 11.5564 -0.5055
17.4000 11.5697 -0.5201
17.4200 11.5831 -0.5167
17.4400 11.5964 -0.5069
17.4600 11.6097 -0.5232
17.4800 11.6230 -0.5082
17.5000 11.6364 -0.5121
17.5200 11.6497 -0.5230
17.5400 11.6630 -0.5086
17.5600 11.6763 -0.5114
17.5800 11.6896 -0.5262
17.6000 11.7030 -0.5125
17.6200 11.7163 -0.5118
17.6400 11.7297 -0.5234
17.6600 11.7431 -0.5193
17.6800 11.7564 -0.5155
17.7000 11.7697 -0.5226
17.7200 11.7831 -0.5144
17.7400 11.7964 -0.5144
17.7600 11.8097 -0.5246
17.7800 11.8231 -0.5182
17.8000 11.8363 -0.5202
17.8200 11.8497 -0.5232
17.8400 11.8630 -0.5193
17.8600 11.8763 -0.5197
17.8800 11.8897 -0.5325
17.9000 11.9030 -0.5230
17.9200 11.9163 -0.5206
17.9400 11.9297 -0.5268
17.9600 11.9430 -0.5216
17.9800 11.9564 -0.5234
18.0000 11.9697 -0.5264
18.0200 11.9830 -0.5241
18.0400 11.9964 -0.5284
18.0600 12.0097 -0.5252
18.0800 12.0230 -0.5243
18.1000 12.0364 -0.5274
18.1200 12.0498 -0.5281
18.1400 12.0631 -0.5200
18.1600 12.0764 -0.5322
18.1800 12.0897 -0.5283
18.2000 12.1030 -0.5224
18.2200 12.1164 -0.5320
18.2400 12.1297 -0.5321
18.2600 12.1430 -0.5240
18.2800 12.1563 -0.5353
18.3000 12.1696 -0.5325
18.3200 12.1830 -0.5284
18.3400 12.1963 -0.5360
18.3600 12.2097 -0.5295
18.3800 12.2231 -0.5316
18.4000 12.2364 -0.5356
18.4200 12.2498 -0.5322
18.4400 12.2631 -0.5323
18.4600 12.2764 -0.5345
18.4800 12.2897 -0.5323
18.5000 12.3031 -0.5361
18.5200 12.3164 -0.5382
18.5400 12.3297 -0.5322
18.5600 12.3430 -0.5338
18.5800 12.3564 -0.5392
18.6000 12.3697 -0.5358
18.6200 12.3830 -0.5409
18.6400 12.3963 -0.5388
18.6600 12.4097 -0.5378
18.6800 12.4230 -0.5391
18.7000 12.4363 -0.5434
18.7200 12.4497 -0.5436
18.7400 12.4631 -0.5463
18.7600 12.4764 -0.5433
18.7800 12.4897 -0.5415
18.8000 12.5030 -0.5404
18.8200 12.5164 -0.5463
18.8400 12.5297 -0.5437
18.8600 12.5431 -0.5427
18.8800 12.5564 -0.5477
18.9000 12.5697 -0.5459
18.9200 12.5830 -0.5441
18.9400 12.5963 -0.5533
18.9600 12.6096 -0.5496
18.9800 12.6230 -0.5453
19.0000 12.6363 -0.5489
19.0200 12.6497 -0.5486
19.0400 12.6630 -0.5522
19.0600 12.6763 -0.5542
19.0800 12.6896 -0.5573
19.1000 12.7030 -0.5496
19.1200 12.7164 -0.5535
19.1400 12.7297 -0.5520
19.1600 12.7430 -0.5522
19.1800 12.7563 -0.5581
19.2000 12.7697 -0.5578
19.2200 12.7830 -0.5512
19.2400 12.7964 -0.5603
19.2600 12.8097 -0.5550
19.2800 12.8231 -0.5551
19.3000 12.8364 -0.5654
19.3200 12.8497 -0.5624
19.3400 12.8630 -0.5541
19.3600 12.8763 -0.5576
19.3800 12.8896 -0.5655
19.4000 12.9030 -0.5605
19.4200 12.9163 -0.5581
19.4400 12.9296 -0.5630
19.4600 12.9430 -0.5571
19.4800 12.9564 -0.5603
19.5000 12.9698 -0.5689
19.5200 12.9831 -0.5579
19.5400 12.9964 -0.5636
19.5600 13.0098 -0.5681
19.5800 13.0231 -0.5596
19.6000 13.0364 -0.5602
19.6200 13.0497 -0.5718
19.6400 13.0630 -0.5561
19.6600 13.0763 -0.5604
19.6800 13.0897 -0.5732
19.7000 13.1030 -0.5574
19.7200 13.1163 -0.5586
19.7400 13.1296 -0.5742
19.7600 13.1430 -0.5586
19.7800 13.1563 -0.5635
19.8000 13.1697 -0.5688
19.8200 13.1830 -0.5620
19.8400 13.1964 -0.5620
19.8600 13.2098 -0.5727
19.8800 13.2231 -0.5634
19.9000 13.2364 -0.5610
19.9200 13.2498 -0.5726
19.9400 13.2631 -0.5634
19.9600 13.2764 -0.5639
19.9800 13.2897 -0.5694
20.0000 13.3030 -0.5599
20.0200 13.3164 -0.5635
20.0400 13.3297 -0.5735
20.0600 13.3430 -0.5587
20.0800 13.3563 -0.5655
20.1000 13.3696 -0.5738
20.1200 13.3830 -0.5613
20.1400 13.3964 -0.5697
20.1600 13.4097 -0.5748
20.1800 13.4230 -0.5588
20.2000 13.4364 -0.5766
20.2200 13.4497 -0.5715
20.2400 13.4630 -0.5622
20.2600 13.4764 -0.5749
20.2800 13.4897 -0.5734
20.3000 13.5031 -0.5595
20.3200 13.5164 -0.5812
20.3400 13.5297 -0.5738
20.3600 13.5430 -0.5670
20.3800 13.5564 -0.5868
20.4000 13.5697 -0.5763
20.4200 13.5830 -0.5630
20.4400 13.5963 -0.5895
20.4600 13.6096 -0.5778
20.4800 13.6230 -0.5631
20.5000 13.6363 -0.5853
20.5200 13.6497 -0.5768
20.5400 13.6630 -0.5747
20.5600 13.6764 -0.5908
20.5800 13.6898 -0.5821
20.6000 13.7031 -0.5731
20.6200 13.7164 -0.5907
20.6400 13.7297 -0.5846
20.6600 13.7431 -0.5774
20.6800 13.7564 -0.5868
20.7000 13.7697 -0.5784
20.7200 13.7830 -0.5724
20.7400 13.7963 -0.5899
20.7600 13.8097 -0.5844
20.7800 13.8230 -0.5815
20.8000 13.8363 -0.5879
20.8200 13.8497 -0.5854
20.8400 13.8630 -0.5761
20.8600 13.8763 -0.5915
20.8800 13.8897 -0.5857
20.9000 13.9030 -0.5752
20.9200 13.9164 -0.5874
20.9400 13.9298 -0.5859
20.9600 13.9431 -0.5810
20.9800 13.9564 -0.5857
21.0000 13.9698 -0.5888
21.0200 13.9831 -0.5810
21.0400 13.9964 -0.5840
21.0600 14.0097 -0.5914
21.0800 14.0230 -0.5781
21.1000 14.0363 -0.5804
21.1200 14.0497 -0.5892
21.1400 14.0630 -0.5776
21.1600 14.0763 -0.5847
21.1800 14.0896 -0.5864
21.2000 14.1030 -0.5787
21.2200 14.1163 -0.5826
21.2400 14.1296 -0.5928
21.2600 14.1430 -0.5748
21.2800 14.1564 -0.5893
21.3000 14.1697 -0.5933
21.3200 14.1831 -0.5758
21.3400 14.1964 -0.5855
21.3600 14.2097 -0.5924
21.3800 14.2231 -0.5783
21.4000 14.2364 -0.5918
21.4200 14.2497 -0.5907
21.4400 14.2630 -0.5799
21.4600 14.2764 -0.5974
21.4800 14.2897 -0.5996
21.5000 14.3030 -0.5828
21.5200 14.3163 -0.5932
21.5400 14.3296 -0.5922
21.5600 14.3429 -0.5859
21.5800 14.3563 -0.5953
21.6000 14.3696 -0.5971
21.6200 14.3830 -0.5890
21.6400 14.3964 -0.5976
21.6600 14.4098 -0.5997
21.6800 14.4231 -0.5922
21.7000 14.4364 -0.6042
21.7200 14.4498 -0.6009
21.7400 14.4631 -0.5941
21.7600 14.4764 -0.6020
21.7800 14.4897 -0.6079
21.8000 14.5030 -0.5949
21.8200 14.5163 -0.5981
21.8400 14.5297 -0.6089
21.8600 14.5430 -0.6020
21.8800 14.5563 -0.5960
21.9000 14.5696 -0.6156
21.9200 14.5830 -0.6035
21.9400 14.5963 -0.6029
21.9600 14.6097 -0.6161
21.9800 14.6230 -0.6031
22.0000 14.6364 -0.6083
22.0200 14.6498 -0.6244
22.0400 14.6631 -0.6000
22.0600 14.6764 -0.6056
22.0800 14.6897 -0.6213
22.1000 14.7031 -0.6053
22.1200 14.7164 -0.6086
22.1400 14.7297 -0.6232
22.1600 14.7430 -0.6018
22.1800 14.7563 -0.6105
22.2000 14.7697 -0.6245
22.2200 14.7830 -0.6073
22.2400 14.7963 -0.6164
22.2600 14.8097 -0.6216
22.2800 14.8230 -0.6046
22.3000 14.8364 -0.6202
22.3200 14.8497 -0.6253
22.3400 14.8630 -0.6050
22.3600 14.8764 -0.6224
22.3800 14.8898 -0.6179
22.4000 14.9031 -0.6085
22.4200 14.9164 -0.6216
22.4400 14.9297 -0.6195
22.4600 14.9431 -0.6163
22.4800 14.9564 -0.6257
22.5000 14.9697 -0.6157
22.5200 14.9830 -0.6147
22.5400 14.9963 -0.6276
22.5600 15.0097 -0.6203
22.5800 15.0230 -0.6152
22.6000 15.0363 -0.6278
22.6200 15.0496 -0.6198
22.6400 15.0630 -0.6207
22.6600 15.0763 -0.6274
22.6800 15.0897 -0.6246
22.7000 15.1030 -0.6272
22.7200 15.1164 -0.6238
22.7400 15.1298 -0.6294
22.7600 15.1431 -0.6279
22.7800 15.1564 -0.6246
22.8000 15.1697 -0.6279
22.8200 15.1831 -0.6279
22.8400 15.1964 -0.6257
22.8600 15.2097 -0.6295
22.8800 15.2230 -0.6276
22.9000 15.2363 -0.6309
22.9200 15.2497 -0.6347
22.9400 15.2630 -0.6337
22.9600 15.2763 -0.6258
22.9800 15.2896 -0.6410
23.0000 15.3030 -0.6318
23.0200 15.3163 -0.6339
23.0400 15.3297 -0.6351
23.0600 15.3430 -0.6320
23.0800 15.3564 -0.6353
23.1000 15.3697 -0.6427
23.1200 15.3830 -0.6344
23.1400 15.3964 -0.6349
23.1600 15.4097 -0.6413
23.1800 15.4231 -0.6357
23.2000 15.4364 -0.6325
23.2200 15.4497 -0.6453
23.2400 15.4630 -0.6402
23.2600 15.4763 -0.6366
23.2800 15.4897 -0.6467
23.3000 15.5030 -0.6390
23.3200 15.5163 -0.6411
23.3400 15.5296 -0.6466
23.3600 15.5430 -0.6444
23.3800 15.5563 -0.6380
23.4000 15.5697 -0.6511
23.4200 15.5830 -0.6393
23.4400 15.5964 -0.6418
23.4600 15.6098 -0.6501
23.4800 15.6231 -0.6481
23.5000 15.6364 -0.6452
23.5200 15.6497 -0.6503
23.5400 15.6631 -0.6482
23.5600 15.6764 -0.6506
23.5800 15.6897 -0.6517
23.6000 15.7030 -0.6482
23.6200 15.7163 -0.6459
23.6400 15.7297 -0.6539
23.6600 15.7430 -0.6485
23.6800 15.7563 -0.6463
23.7000 15.7696 -0.6549
23.7200 15.7830 -0.6522
23.7400 15.7963 -0.6515
23.7600 15.8096 -0.6580
23.7800 15.8230 -0.6555
23.8000 15.8364 -0.6489
23.8200 15.8498 -0.6591
23.8400 15.8631 -0.6547
23.8600 15.8764 -0.6500
23.8800 15.8897 -0.6533
23.9000 15.9031 -0.6612
23.9200 15.9164 -0.6523
23.9400 15.9297 -0.6594
23.9600 15.9430 -0.6556
23.9800 15.9563 -0.6515
24.0000 15.9697 -0.6586
24.0200 15.9830 -0.6620
24.0400 15.9963 -0.6561
24.0600 16.0096 -0.6534
24.0800 16.0230 -0.6544
24.1000 16.0364 -0.6587
24.1200 16.0497 -0.6543
24.1400 16.0630 -0.6530
24.1600 16.0764 -0.6639
24.1800 16.0897 -0.6586
24.2000 16.1030 -0.6572
24.2200 16.1164 -0.6656
24.2400 16.1297 -0.6546
24.2600 16.1430 -0.6592
24.2800 16.1564 -0.6604
24.3000 16.1697 -0.6534
24.3200 16.1830 -0.6649
24.3400 16.1964 -0.6605
24.3600 16.2097 -0.6577
24.3800 16.2230 -0.6675
24.4000 16.2363 -0.6616
24.4200 16.2497 -0.6553
24.4400 16.2630 -0.6722
24.4600 16.2763 -0.6624
24.4800 16.2897 -0.6577
24.5000 16.3030 -0.6728
24.5200 16.3163 -0.6596
24.5400 16.3297 -0.6578
24.5600 16.3431 -0.6831
24.5800 16.3564 -0.6635
24.6000 16.3697 -0.6657
24.6200 16.3831 -0.6745
24.6400 16.3964 -0.6687
24.6600 16.4097 -0.6682
24.6800 16.4230 -0.6782
24.7000 16.4364 -0.6666
24.7200 16.4497 -0.6718
24.7400 16.4630 -0.6767
24.7600 16.4763 -0.6677
24.7800 16.4896 -0.6730
24.8000 16.5030 -0.6833
24.8200 16.5163 -0.6767
24.8400 16.5297 -0.6765
24.8600 16.5430 -0.6839
24.8800 16.5564 -0.6797
24.9000 16.5697 -0.6819
24.9200 16.5831 -0.6828
24.9400 16.5964 -0.6795
24.9600 16.6097 -0.6822
24.9800 16.6231 -0.6906
25.0000 16.6364 -0.6797
25.0200 16.6497 -0.6888
25.0400 16.6630 -0.6921
25.0600 16.6763 -0.6855
25.0800 16.6897 -0.6857
25.1000 16.7030 -0.6956
25.1200 16.7163 -0.6834
25.1400 16.7296 -0.6893
25.1600 16.7430 -0.6924
25.1800 16.7564 -0.6902
25.2000 16.7697 -0.6889
25.2200 16.7830 -0.6985
25.2400 16.7963 -0.6910
25.2600 16.8097 -0.6923
25.2800 16.8230 -0.7000
25.3000 16.8364 -0.6938
25.3200 16.8497 -0.6902
25.3400 16.8631 -0.7026
25.3600 16.8764 -0.6937
25.3800 16.8897 -0.6872
25.4000 16.9030 -0.7033
25.4200 16.9164 -0.6957
25.4400 16.9297 -0.6903
25.4600 16.9430 -0.7063
25.4800 16.9563 -0.7008
25.5000 16.9696 -0.6869
25.5200 16.9829 -0.7074
25.5400 16.9963 -0.6995
25.5600 17.0096 -0.6873
25.5800 17.0230 -0.7078
25.6000 17.0364 -0.7022
25.6200 17.0497 -0.6876
25.6400 17.0631 -0.7135
25.6600 17.0764 -0.7035
25.6800 17.0897 -0.6936
25.7000 17.1031 -0.7127
25.7200 17.1164 -0.7031
25.7400 17.1297 -0.6950
25.7600 17.1430 -0.7145
25.7800 17.1563 -0.7035
25.8000 17.1697 -0.6926
25.8200 17.1830 -0.7170
25.8400 17.1963 -0.7063
25.8600 17.2097 -0.6952
25.8800 17.2230 -0.7185
25.9000 17.2363 -0.7139
25.9200 17.2497 -0.6994
25.9400 17.2630 -0.7206
25.9600 17.2764 -0.7152
25.9800 17.2897 -0.7000
26.0000 17.3031 -0.7160
26.0200 17.3164 -0.7156
26.0400 17.3297 -0.7020
26.0600 17.3431 -0.7197
26.0800 17.3564 -0.7131
26.1000 17.3697 -0.7076
26.1200 17.3830 -0.7200
26.1400 17.3963 -0.7175
26.1600 17.4097 -0.7113
26.1800 17.4230 -0.7234
26.2000 17.4363 -0.7172
26.2200 17.4496 -0.7103
26.2400 17.4630 -0.7229
26.2600 17.4764 -0.7200
26.2800 17.4897 -0.7165
26.3000 17.5030 -0.7255
26.3200 17.5164 -0.7146
26.3400 17.5297 -0.7223
26.3600 17.5430 -0.7273
26.3800 17.5563 -0.7244
26.4000 17.5697 -0.7220
26.4200 17.5830 -0.7260
26.4400 17.5964 -0.7241
26.4600 17.6097 -0.7215
26.4800 17.6230 -0.7317
26.5000 17.6364 -0.7283
26.5200 17.6497 -0.7199
26.5400 17.6631 -0.7322
26.5600 17.6763 -0.7353
26.5800 17.6896 -0.7219
26.6000 17.7029 -0.7350
26.6200 17.7163 -0.7358
26.6400 17.7296 -0.7226
26.6600 17.7430 -0.7341
26.6800 17.7563 -0.7379
26.7000 17.7697 -0.7274
26.7200 17.7831 -0.7445
26.7400 17.7964 -0.7387
26.7600 17.8097 -0.7320
26.7800 17.8231 -0.7384
26.8000 17.8364 -0.7476
26.8200 17.8498 -0.7350
26.8400 17.8630 -0.7419
26.8600 17.8763 -0.7483
26.8800 17.8897 -0.7341
26.9000 17.9030 -0.7485
26.9200 17.9163 -0.7528
26.9400 17.9296 -0.7383
26.9600 17.9429 -0.7486
26.9800 17.9563 -0.7519
27.0000 17.9696 -0.7475
27.0200 17.9830 -0.7537
27.0400 17.9963 -0.7595
27.0600 18.0097 -0.7467
27.0800 18.0231 -0.7550
27.1000 18.0364 -0.7536
27.1200 18.0497 -0.7459
27.1400 18.0631 -0.7624
27.1600 18.0764 -0.7543
27.1800 18.0897 -0.7486
27.2000 18.1030 -0.7601
27.2200 18.1163 -0.7625
27.2400 18.1297 -0.7521
27.2600 18.1430 -0.7647
27.2800 18.1563 -0.7642
27.3000 18.1696 -0.7613
27.3200 18.1830 -0.7605
27.3400 18.1963 -0.7627
27.3600 18.2097 -0.7699
27.3800 18.2230 -0.7632
27.4000 18.2364 -0.7652
27.4200 18.2497 -0.7731
27.4400 18.2631 -0.7646
27.4600 18.2764 -0.7689
27.4800 18.2897 -0.7747
27.5000 18.3031 -0.7659
27.5200 18.3164 -0.7759
27.5400 18.3298 -0.7735
27.5600 18.3431 -0.7689
27.5800 18.3564 -0.7772
27.6000 18.3697 -0.7746
27.6200 18.3831 -0.7686
27.6400 18.3964 -0.7838
27.6600 18.4096 -0.7695
27.6800 18.4230 -0.7666
27.7000 18.4363 -0.7908
27.7200 18.4497 -0.7765
27.7400 18.4630 -0.7698
27.7600 18.4763 -0.7919
27.7800 18.4897 -0.7687
27.8000 18.5031 -0.7776
27.8200 18.5164 -0.7940
27.8400 18.5297 -0.7744
27.8600 18.5431 -0.7786
27.8800 18.5564 -0.7954
27.9000 18.5697 -0.7769
27.9200 18.5830 -0.7851
27.9400 18.5963 -0.7977
27.9600 18.6097 -0.7777
27.9800 18.6230 -0.7913
28.0000 18.6363 -0.7959
28.0200 18.6497 -0.7780
28.0400 18.6630 -0.7940
28.0600 18.6763 -0.8009
28.0800 18.6897 -0.7852
28.1000 18.7030 -0.7964
28.1200 18.7163 -0.7995
28.1400 18.7297 -0.7925
28.1600 18.7431 -0.7975
28.1800 18.7564 -0.8011
28.2000 18.7697 -0.7932
28.2200 18.7831 -0.7975
28.2400 18.7964 -0.7960
28.2600 18.8098 -0.8016
28.2800 18.8231 -0.7940
28.3000 18.8363 -0.7895
28.3200 18.8497 -0.7963
28.3400 18.8630 -0.7966
28.3600 18.8763 -0.7886
28.3800 18.8896 -0.7937
28.4000 18.9030 -0.7967
28.4200 18.9163 -0.7963
28.4400 18.9297 -0.7887
28.4600 18.9430 -0.7923
28.4800 18.9563 -0.7951
28.5000 18.9697 -0.7926
28.5200 18.9831 -0.7936
28.5400 18.9964 -0.7936
28.5600 19.0097 -0.7904
28.5800 19.0230 -0.7932
28.6000 19.0364 -0.7959
28.6200 19.0497 -0.7947
28.6400 19.0631 -0.7979
28.6600 19.0764 -0.7969
28.6800 19.0897 -0.8013
28.7000 19.1031 -0.8042
28.7200 19.1164 -0.8029
28.7400 19.1296 -0.8011
28.7600 19.1429 -0.8023
28.7800 19.1563 -0.8074
28.8000 19.1696 -0.8112
28.8200 19.1830 -0.8037
28.8400 19.1963 -0.8151
28.8600 19.2097 -0.8134
28.8800 19.2231 -0.8088
28.9000 19.2364 -0.8159
28.9200 19.2498 -0.8172
28.9400 19.2631 -0.8115
28.9600 19.2765 -0.8210
28.9800 19.2898 -0.8222
29.0000 19.3031 -0.8171
29.0200 19.3163 -0.8237
29.0400 19.3297 -0.8172
29.0600 19.3430 -0.8258
29.0800 19.3563 -0.8358
29.1000 19.3696 -0.8199
29.1200 19.3830 -0.8253
29.1400 19.3964 -0.8362
29.1600 19.4097 -0.8198
29.1800 19.4230 -0.8327
29.2000 19.4364 -0.8304
29.2200 19.4497 -0.8275
29.2400 19.4631 -0.8353
29.2600 19.4764 -0.8321
29.2800 19.4897 -0.8294
29.3000 19.5030 -0.8447
29.3200 19.5164 -0.8298
29.3400 19.5297 -0.8357
29.3600 19.5430 -0.8427
29.3800 19.5563 -0.8326
29.4000 19.5696 -0.8388
29.4200 19.5830 -0.8435
29.4400 19.5964 -0.8286
29.4600 19.6097 -0.8435
29.4800 19.6230 -0.8475
29.5000 19.6363 -0.8345
29.5200 19.6497 -0.8460
29.5400 19.6630 -0.8564
29.5600 19.6763 -0.8285
29.5800 19.6897 -0.8478
29.6000 19.7031 -0.8562
29.6200 19.7164 -0.8358
29.6400 19.7297 -0.8466
29.6600 19.7430 -0.8517
29.6800 19.7564 -0.8401
29.7000 19.7697 -0.8505
29.7200 19.7830 -0.8601
29.7400 19.7963 -0.8377
29.7600 19.8097 -0.8531
29.7800 19.8230 -0.8597
29.8000 19.8363 -0.8445
29.8200 19.8496 -0.8595
29.8400 19.8629 -0.8597
29.8600 19.8763 -0.8435
29.8800 19.8897 -0.8636
29.9000 19.9030 -0.8616
29.9200 19.9163 -0.8517
29.9400 19.9297 -0.8700
29.9600 19.9431 -0.8706
29.9800 19.9564 -0.8544
30.0000 19.9698 -0.8781
30.0200 19.9831 -0.8654
30.0400 19.9964 -0.8629
30.0600 20.0097 -0.8779
30.0800 20.0230 -0.8678
30.1000 20.0363 -0.8591
30.1200 20.0496 -0.8826
30.1400 20.0630 -0.8779
30.1600 20.0764 -0.8698
30.1800 20.0897 -0.8830
30.2000 20.1030 -0.8760
30.2200 20.1163 -0.8778
30.2400 20.1297 -0.8852
30.2600 20.1430 -0.8772
30.2800 20.1563 -0.8807
30.3000 20.1697 -0.8877
30.3200 20.1830 -0.8805
30.3400 20.1964 -0.8803
30.3600 20.2097 -0.8878
30.3800 20.2230 -0.8861
30.4000 20.2364 -0.8817
30.4200 20.2498 -0.8951
30.4400 20.2631 -0.8875
30.4600 20.2764 -0.8847
30.4800 20.2897 -0.8510
30.5000 20.3030 -0.7401
30.5200 20.3163 -0.6018
30.5400 20.3296 -0.4878
30.5600 20.3429 -0.3642
30.5800 20.3563 -0.2609
30.6000 20.3696 -0.1677
30.6200 20.3830 -0.0850
30.6400 20.3964 -0.0338
30.6600 20.4097 -0.0090
30.6800 20.4231 0.0216
30.7000 20.4364 0.0819
30.7200 20.4497 0.1334
30.7400 20.4630 0.1640
30.7600 20.4764 0.2208
30.7800 20.4897 0.2564
30.8000 20.5031 0.2818
30.8200 20.5163 0.3515
30.8400 20.5297 0.4057
30.8600 20.5430 0.4382
30.8800 20.5563 0.5004
30.9000 20.5696 0.5553
30.9200 20.5830 0.6056
30.9400 20.5963 0.6597
30.9600 20.6096 0.7014
30.9800 20.6230 0.7571
31.0000 20.6363 0.8150
31.0200 20.6497 0.8659
31.0400 20.6631 0.8938
31.0600 20.6764 0.9396
31.0800 20.6897 0.9880
31.1000 20.7031 1.0125
31.1200 20.7164 0.9667
31.1400 20.7297 0.9476
31.1600 20.7430 0.9405
31.1800 20.7563 0.9181
31.2000 20.7696 0.9216
31.2200 20.7830 0.9203
31.2400 20.7963 0.9172
31.2600 20.8096 0.9323
31.2800 20.8230 0.9140
31.3000 20.8363 0.9051
31.3200 20.8497 0.9223
31.3400 20.8631 0.9161
31.3600 20.8764 0.9103
31.3800 20.8897 0.9245
31.4000 20.9031 0.9211
31.4200 20.9164 0.9127
31.4400 20.9297 0.9198
31.4600 20.9430 0.9063
31.4800 20.9564 0.9089
31.5000 20.9697 0.8989
31.5200 20.9831 0.8819
31.5400 20.9964 0.8867
31.5600 21.0097 0.9001
31.5800 21.0231 0.8831
31.6000 21.0364 0.8883
31.6200 21.0497 0.8913
31.6400 21.0630 0.8807
31.6600 21.0763 0.8842
31.6800 21.0897 0.8824
31.7000 21.1030 0.8672
31.7200 21.1163 0.8818
31.7400 21.1297 0.8774
31.7600 21.1430 0.8729
31.7800 21.1564 0.8794
31.8000 21.1697 0.8698
31.8200 21.1830 0.8646
31.8400 21.1964 0.8755
31.8600 21.2097 0.8635
31.8800 21.2231 0.8575
31.9000 21.2364 0.8698
31.9200 21.2497 0.8523
31.9400 21.2630 0.8537
31.9600 21.2764 0.8631
31.9800 21.2897 0.8462
32.0000 21.3030 0.8432
32.0200 21.3163 0.8507
32.0400 21.3296 0.8461
32.0600 21.3430 0.8452
32.0800 21.3563 0.8406
32.1000 21.3697 0.8378
32.1200 21.3831 0.8302
32.1400 21.3964 0.8302
32.1600 21.4097 0.8384
32.1800 21.4231 0.8370
32.2000 21.4364 0.8305
32.2200 21.4497 0.8392
32.2400 21.4630 0.8242
32.2600 21.4763 0.8221
32.2800 21.4897 0.8294
32.3000 21.5030 0.8174
32.3200 21.5164 0.8135
32.3400 21.5297 0.8215
32.3600 21.5430 0.8049
32.3800 21.5563 0.8123
32.4000 21.5697 0.8252
32.4200 21.5830 0.8090
32.4400 21.5963 0.8105
32.4600 21.6097 0.8181
32.4800 21.6230 0.8001
32.5000 21.6364 0.8063
32.5200 21.6497 0.8139
32.5400 21.6630 0.7998
32.5600 21.6764 0.8148
32.5800 21.6898 0.8169
32.6000 21.7031 0.8064
32.6200 21.7164 0.8085
32.6400 21.7297 0.8140
32.6600 21.7430 0.7911
32.6800 21.7564 0.7950
32.7000 21.7697 0.7987
32.7200 21.7830 0.7883
32.7400 21.7963 0.7910
32.7600 21.8096 0.7893
32.7800 21.8230 0.7818
32.8000 21.8363 0.7886
32.8200 21.8497 0.7880
32.8400 21.8631 0.7741
32.8600 21.8764 0.7818
32.8800 21.8898 0.7905
32.9000 21.9031 0.7650
32.9200 21.9164 0.7752
32.9400 21.9297 0.7808
32.9600 21.9431 0.7662
32.9800 21.9564 0.7696
33.0000 21.9697 0.7679
33.0200 21.9830 0.7607
33.0400 21.9964 0.7669
33.0600 22.0097 0.7680
33.0800 22.0230 0.7532
33.1000 22.0363 0.7639
33.1200 22.0497 0.7614
33.1400 22.0630 0.7479
33.1600 22.0763 0.7597
33.1800 22.0897 0.7650
33.2000 22.1030 0.7415
33.2200 22.1164 0.7543
33.2400 22.1297 0.7577
33.2600 22.1430 0.7475
33.2800 22.1564 0.7498
33.3000 22.1697 0.7518
33.3200 22.1831 0.7346
33.3400 22.1964 0.7533
33.3600 22.2097 0.7439
33.3800 22.2230 0.7332
33.4000 22.2363 0.7537
33.4200 22.2497 0.7409
33.4400 22.2630 0.7297
33.4600 22.2763 0.7423
33.4800 22.2897 0.7393
33.5000 22.3030 0.7320
33.5200 22.3163 0.7424
33.5400 22.3297 0.7276
33.5600 22.3430 0.7294
33.5800 22.3564 0.7340
33.6000 22.3697 0.7271
33.6200 22.3830 0.7314
33.6400 22.3963 0.7309
33.6600 22.4097 0.7195
33.6800 22.4231 0.7302
33.7000 22.4364 0.7242
33.7200 22.4497 0.7229
33.7400 22.4631 0.7307
33.7600 22.4764 0.7178
33.7800 22.4897 0.7122
33.8000 22.5030 0.7204
33.8200 22.5163 0.7081
33.8400 22.5296 0.7154
33.8600 22.5430 0.7113
33.8800 22.5563 0.7101
33.9000 22.5696 0.7124
33.9200 22.5830 0.7034
33.9400 22.5964 0.6977
33.9600 22.6098 0.7102
33.9800 22.6231 0.6985
34.0000 22.6364 0.6898
34.0200 22.6498 0.7021
34.0400 22.6631 0.7081
34.0600 22.6764 0.6900
34.0800 22.6897 0.6907
34.1000 22.7030 0.7095
34.1200 22.7163 0.6925
34.1400 22.7297 0.6813
34.1600 22.7429 0.7005
34.1800 22.7563 0.6966
34.2000 22.7696 0.6729
34.2200 22.7830 0.6951
34.2400 22.7963 0.6837
34.2600 22.8097 0.6825
34.2800 22.8230 0.6874
34.3000 22.8364 0.6698
34.3200 22.8498 0.6691
34.3400 22.8631 0.6926
34.3600 22.8764 0.6624
34.3800 22.8898 0.6668
34.4000 22.9031 0.6993
34.4200 22.9164 0.6583
34.4400 22.9297 0.6680
34.4600 22.9430 0.6816
34.4800 22.9563 0.6541
34.5000 22.9697 0.6839
34.5200 22.9830 0.6724
34.5400 22.9963 0.6385
34.5600 23.0096 0.6754
34.5800 23.0230 0.6786
34.6000 23.0363 0.6430
34.6200 23.0496 0.6682
34.6400 23.0630 0.6649
34.6600 23.0764 0.6440
34.6800 23.0897 0.6635
34.7000 23.1030 0.6497
34.7200 23.1164 0.6587
34.7400 23.1297 0.6623
34.7600 23.1431 0.6329
34.7800 23.1564 0.6480
34.8000 23.1697 0.6719
34.8200 23.1830 0.6367
34.8400 23.1964 0.6386
34.8600 23.2097 0.6554
34.8800 23.2230 0.6525
34.9000 23.2363 0.6451
34.9200 23.2496 0.6421
34.9400 23.2630 0.6355
34.9600 23.2763 0.6403
34.9800 23.2897 0.6271
35.0000 23.3030 0.6328
35.0200 23.3164 0.6322
35.0400 23.3298 0.6194
35.0600 23.3431 0.6299
35.0800 23.3564 0.6269
35.1000 23.3697 0.6247
35.1200 23.3831 0.6434
35.1400 23.3964 0.6312
35.1600 23.4097 0.6275
35.1800 23.4230 0.6514
35.2000 23.4364 0.6256
35.2200 23.4497 0.6153
35.2400 23.4630 0.6394
35.2600 23.4763 0.6194
35.2800 23.4897 0.6169
35.3000 23.5030 0.6372
35.3200 23.5163 0.6043
35.3400 23.5296 0.6221
35.3600 23.5430 0.6369
35.3800 23.5564 0.6123
35.4000 23.5698 0.6140
35.4200 23.5831 0.6253
35.4400 23.5964 0.5987
35.4600 23.6097 0.6114
35.4800 23.6231 0.6088
35.5000 23.6364 0.5933
35.5200 23.6497 0.6049
35.5400 23.6630 0.6100
35.5600 23.6764 0.5882
35.5800 23.6897 0.5960
35.6000 23.7030 0.5998
35.6200 23.7163 0.5862
35.6400 23.7297 0.5965
35.6600 23.7430 0.5919
35.6800 23.7563 0.5815
35.7000 23.7697 0.5833
35.7200 23.7830 0.5865
35.7400 23.7964 0.5842
35.7600 23.8097 0.5892
35.7800 23.8230 0.5813
35.8000 23.8364 0.5800
35.8200 23.8497 0.5767
35.8400 23.8631 0.5806
35.8600 23.8764 0.5820
35.8800 23.8897 0.5674
35.9000 23.9030 0.5730
35.9200 23.9164 0.5776
35.9400 23.9297 0.5670
35.9600 23.9430 0.5857
35.9800 23.9563 0.5812
36.0000 23.9696 0.5589
36.0200 23.9829 0.5727
36.0400 23.9963 0.5803
36.0600 24.0096 0.5568
36.0800 24.0230 0.5724
36.1000 24.0364 0.5685
36.1200 24.0498 0.5483
36.1400 24.0631 0.5677
36.1600 24.0764 0.5692
36.1800 24.0898 0.5564
36.2000 24.1031 0.5623
36.2200 24.1164 0.5616
36.2400 24.1297 0.5471
36.2600 24.1430 0.5663
36.2800 24.1563 0.5598
36.3000 24.1697 0.5399
36.3200 24.1830 0.5577
36.3400 24.1963 0.5565
36.3600 24.2096 0.5399
36.3800 24.2230 0.5569
36.4000 24.2364 0.5484
36.4200 24.2497 0.5451
36.4400 24.2630 0.5457
36.4600 24.2764 0.5452
36.4800 24.2898 0.5390
36.5000 24.3031 0.5563
36.5200 24.3164 0.5401
36.5400 24.3297 0.5303
36.5600 24.3431 0.5487
36.5800 24.3564 0.5393
36.6000 24.3697 0.5312
36.6200 24.3830 0.5469
36.6400 24.3963 0.5338
36.6600 24.4097 0.5265
36.6800 24.4230 0.5374
36.7000 24.4363 0.5332
36.7200 24.4496 0.5237
36.7400 24.4630 0.5340
36.7600 24.4764 0.5254
36.7800 24.4897 0.5179
36.8000 24.5030 0.5361
36.8200 24.5164 0.5191
36.8400 24.5298 0.5171
36.8600 24.5431 0.5286
36.8800 24.5564 0.5203
36.9000 24.5697 0.5075
36.9200 24.5831 0.5316
36.9400 24.5964 0.5146
36.9600 24.6097 0.5104
36.9800 24.6230 0.5261
37.0000 24.6363 0.5090
37.0200 24.6497 0.5071
37.0400 24.6630 0.5228
37.0600 24.6763 0.5082
37.0800 24.6896 0.5011
37.1000 24.7030 0.5162
37.1200 24.7163 0.5074
37.1400 24.7297 0.5000
37.1600 24.7430 0.5145
37.1800 24.7564 0.4933
37.2000 24.7697 0.4990
37.2200 24.7831 0.5106
37.2400 24.7964 0.4972
37.2600 24.8097 0.5021
37.2800 24.8231 0.5042
37.3000 24.8364 0.4928
37.3200 24.8497 0.4950
37.3400 24.8630 0.5035
37.3600 24.8763 0.4941
37.3800 24.8897 0.4965
37.4000 24.9030 0.4966
37.4200 24.9163 0.4935
37.4400 24.9297 0.4965
37.4600 24.9430 0.4995
37.4800 24.9563 0.4890
37.5000 24.9697 0.4907
37.5200 24.9830 0.4936
37.5400 24.9963 0.4904
37.5600 25.0097 0.4879
37.5800 25.0230 0.4906
37.6000 25.0364 0.4926
37.6200 25.0497 0.4957
37.6400 25.0631 0.4866
37.6600 25.0764 0.4916
37.6800 25.0897 0.4929
37.7000 25.1030 0.4849
37.7200 25.1163 0.4868
37.7400 25.1297 0.4866
37.7600 25.1430 0.4798
37.7800 25.1563 0.4853
37.8000 25.1696 0.4725
37.8200 25.1830 0.4616
37.8400 25.1963 0.4770
37.8600 25.2097 0.4661
37.8800 25.2230 0.4572
37.9000 25.2364 0.4684
37.9200 25.2498 0.4601
37.9400 25.2631 0.4546
37.9600 25.2764 0.4710
37.9800 25.2897 0.4655
38.0000 25.3031 0.4576
38.0200 25.3164 0.4612
38.0400 25.3297 0.4589
38.0600 25.3430 0.4588
38.0800 25.3564 0.4669
38.1000 25.3697 0.4472
38.1200 25.3830 0.4484
38.1400 25.3963 0.4590
38.1600 25.4096 0.4576
38.1800 25.4230 0.4500
38.2000 25.4363 0.4487
38.2200 25.4496 0.4524
38.2400 25.4630 0.4216
38.2600 25.4764 0.4504
38.2800 25.4898 0.5054
38.3000 25.5031 0.4053
38.3200 25.5164 0.4368
38.3400 25.5297 0.4709
38.3600 25.5431 0.4104
38.3800 25.5564 0.4457
38.4000 25.5697 0.4562
38.4200 25.5830 0.4115
38.4400 25.5963 0.4496
38.4600 25.6097 0.4490
38.4800 25.6230 0.4062
38.5000 25.6363 0.4516
38.5200 25.6496 0.4355
38.5400 25.6630 0.4141
38.5600 25.6764 0.4502
38.5800 25.6897 0.4225
38.6000 25.7030 0.4125
38.6200 25.7164 0.4452
38.6400 25.7297 0.4201
38.6600 25.7431 0.4159
38.6800 25.7564 0.4315
38.7000 25.7697 0.4180
38.7200 25.7830 0.4125
38.7400 25.7964 0.4330
38.7600 25.8097 0.4110
38.7800 25.8230 0.4135
38.8000 25.8364 0.4220
38.8200 25.8497 0.4050
38.8400 25.8630 0.4159
38.8600 25.8763 0.4167
38.8800 25.8897 0.4068
38.9000 25.9030 0.4142
38.9200 25.9163 0.4138
38.9400 25.9296 0.4051
38.9600 25.9430 0.4082
38.9800 25.9563 0.4101
39.0000 25.9697 0.4075
39.0200 25.9830 0.4027
39.0400 25.9964 0.4001
39.0600 26.0097 0.4064
39.0800 26.0230 0.4006
39.1000 26.0364 0.3967
39.1200 26.0497 0.4101
39.1400 26.0630 0.3909
39.1600 26.0764 0.3940
39.1800 26.0897 0.4062
39.2000 26.1030 0.3884
39.2200 26.1163 0.3956
39.2400 26.1296 0.4050
39.2600 26.1430 0.3772
39.2800 26.1563 0.3906
39.3000 26.1696 0.4041
39.3200 26.1830 0.3759
39.3400 26.1964 0.3857
39.3600 26.2098 0.4014
39.3800 26.2231 0.3698
39.4000 26.2364 0.3803
39.4200 26.2497 0.4034
39.4400 26.2631 0.3694
39.4600 26.2764 0.3830
39.4800 26.2897 0.3925
39.5000 26.3030 0.3671
39.5200 26.3163 0.3867
39.5400 26.3297 0.3891
39.5600 26.3430 0.3606
39.5800 26.3563 0.3832
39.6000 26.3696 0.3857
39.6200 26.3830 0.3634
39.6400 26.3964 0.3792
39.6600 26.4097 0.3838
39.6800 26.4230 0.3638
39.7000 26.4364 0.3756
39.7200 26.4497 0.3773
39.7400 26.4631 0.3692
39.7600 26.4764 0.3728
39.7800 26.4897 0.3761
39.8000 26.5031 0.3637
39.8200 26.5164 0.3724
39.8400 26.5297 0.3762
39.8600 26.5430 0.3587
39.8800 26.5563 0.3666
39.9000 26.5697 0.3768
39.9200 26.5830 0.3613
39.9400 26.5963 0.3607
39.9600 26.6096 0.3720
39.9800 26.6229 0.3599
40.0000 26.6363 0.3618
40.0200 26.6496 0.3711
40.0400 26.6630 0.3595
40.0600 26.6763 0.3553
40.0800 26.6897 0.3687
40.1000 26.7031 0.3535
40.1200 26.7164 0.3566
40.1400 26.7297 0.3633
40.1600 26.7431 0.3441
40.1800 26.7564 0.3490
40.2000 26.7697 0.3647
40.2200 26.7830 0.3464
40.2400 26.7963 0.3509
40.2600 26.8097 0.3534
40.2800 26.8230 0.3416
40.3000 26.8363 0.3511
40.3200 26.8497 0.3531
40.3400 26.8630 0.3307
40.3600 26.8763 0.3462
40.3800 26.8896 0.3493
40.4000 26.9030 0.3307
40.4200 26.9163 0.3508
40.4400 26.9297 0.3417
40.4600 26.9431 0.3274
40.4800 26.9564 0.3465
40.5000 26.9697 0.3382
40.5200 26.9831 0.3304
40.5400 26.9964 0.3424
40.5600 27.0097 0.3273
40.5800 27.0230 0.3316
40.6000 27.0363 0.3396
40.6200 27.0497 0.3279
40.6400 27.0630 0.3319
40.6600 27.0763 0.3324
40.6800 27.0896 0.3188
40.7000 27.1030 0.3335
40.7200 27.1163 0.3318
40.7400 27.1297 0.3185
40.7600 27.1430 0.3334
40.7800 27.1563 0.3211
40.8000 27.1697 0.3205
40.8200 27.1830 0.3334
40.8400 27.1963 0.3162
40.8600 27.2097 0.3199
40.8800 27.2230 0.3297
40.9000 27.2364 0.3170
40.9200 27.2497 0.3124
40.9400 27.2630 0.3246
40.9600 27.2764 0.3142
40.9800 27.2897 0.3116
41.0000 27.3031 0.3230
41.0200 27.3164 0.3095
41.0400 27.3297 0.3160
41.0600 27.3430 0.3218
41.0800 27.3563 0.3017
41.1000 27.3697 0.3180
41.1200 27.3830 0.3221
41.1400 27.3963 0.2988
41.1600 27.4097 0.3156
41.1800 27.4231 0.3164
41.2000 27.4364 0.2957
41.2200 27.4497 0.3148
41.2400 27.4631 0.3205
41.2600 27.4764 0.2913
41.2800 27.4897 0.3166
41.3000 27.5030 0.3131
41.3200 27.5163 0.2931
41.3400 27.5297 0.3145
41.3600 27.5430 0.3102
41.3800 27.5563 0.2894
41.4000 27.5696 0.3143
41.4200 27.5829 0.3023
41.4400 27.5963 0.2883
41.4600 27.6096 0.3053
41.4800 27.6230 0.3007
41.5000 27.6363 0.2883
41.5200 27.6497 0.3068
41.5400 27.6631 0.2964
41.5600 27.6764 0.2817
41.5800 27.6897 0.3072
41.6000 27.7031 0.2909
41.6200 27.7164 0.2856
41.6400 27.7297 0.2950
41.6600 27.7430 0.2878
41.6800 27.7563 0.2838
41.7000 27.7697 0.2948
41.7200 27.7830 0.2817
41.7400 27.7963 0.2785
41.7600 27.8096 0.2912
41.7800 27.8230 0.2774
41.8000 27.8363 0.2750
41.8200 27.8497 0.2925
41.8400 27.8630 0.2723
41.8600 27.8764 0.2752
41.8800 27.8897 0.2821
41.9000 27.9031 0.2732
41.9200 27.9164 0.2753
41.9400 27.9297 0.2802
41.9600 27.9431 0.2718
41.9800 27.9564 0.2758
42.0000 27.9698 0.2730
42.0200 27.9831 0.2692
42.0400 27.9964 0.2770
42.0600 28.0097 0.2682
42.0800 28.0230 0.2672
42.1000 28.0363 0.2722
42.1200 28.0496 0.2654
42.1400 28.0630 0.2686
42.1600 28.0763 0.2733
42.1800 28.0897 0.2600
42.2000 28.1030 0.2676
42.2200 28.1164 0.2690
42.2400 28.1297 0.2599
42.2600 28.1431 0.2644
42.2800 28.1564 0.2627
42.3000 28.1697 0.2521
42.3200 28.1831 0.2682
42.3400 28.1964 0.2589
42.3600 28.2097 0.2507
42.3800 28.2230 0.2595
42.4000 28.2363 0.2647
42.4200 28.2496 0.2499
42.4400 28.2630 0.2583
42.4600 28.2764 0.2553
42.4800 28.2897 0.2462
42.5000 28.3030 0.2551
42.5200 28.3163 0.2526
42.5400 28.3297 0.2465
42.5600 28.3430 0.2502
42.5800 28.3563 0.2507
42.6000 28.3697 0.2436
42.6200 28.3831 0.2520
42.6400 28.3964 0.2474
42.6600 28.4097 0.2377
42.6800 28.4231 0.2495
42.7000 28.4364 0.2495
42.7200 28.4498 0.2344
42.7400 28.4631 0.2486
42.7600 28.4764 0.2436
42.7800 28.4897 0.2355
42.8000 28.5030 0.2440
42.8200 28.5163 0.2373
42.8400 28.5296 0.2297
42.8600 28.5430 0.2482
42.8800 28.5563 0.2327
42.9000 28.5697 0.2306
42.9200 28.5830 0.2425
42.9400 28.5963 0.2316
42.9600 28.6097 0.2256
42.9800 28.6231 0.2424
43.0000 28.6364 0.2232
43.0200 28.6497 0.2267
43.0400 28.6630 0.2391
43.0600 28.6764 0.2215
43.0800 28.6897 0.2234
43.1000 28.7031 0.2376
43.1200 28.7164 0.2227
43.1400 28.7297 0.2226
43.1600 28.7430 0.2304
43.1800 28.7564 0.2183
43.2000 28.7696 0.2223
43.2200 28.7829 0.2300
43.2400 28.7963 0.2179
43.2600 28.8096 0.2162
43.2800 28.8229 0.2261
43.3000 28.8363 0.2177
43.3200 28.8497 0.2148
43.3400 28.8631 0.2200
43.3600 28.8765 0.2172
43.3800 28.8898 0.2080
43.4000 28.9031 0.2219
43.4200 28.9165 0.2184
43.4400 28.9298 0.2066
43.4600 28.9431 0.2119
43.4800 28.9563 0.2202
43.5000 28.9696 0.2028
43.5200 28.9830 0.2162
43.5400 28.9963 0.2116
43.5600 29.0096 0.1959
43.5800 29.0230 0.2142
43.6000 29.0363 0.2146
43.6200 29.0497 0.1902
43.6400 29.0630 0.2135
43.6600 29.0764 0.2096
43.6800 29.0897 0.1890
43.7000 29.1031 0.2104
43.7200 29.1164 0.2023
43.7400 29.1297 0.1864
43.7600 29.1430 0.2063
43.7800 29.1564 0.2051
43.8000 29.1697 0.1830
43.8200 29.1830 0.2064
43.8400 29.1963 0.1985
43.8600 29.2097 0.1799
43.8800 29.2230 0.2049
43.9000 29.2363 0.1960
43.9200 29.2496 0.1785
43.9400 29.2630 0.2023
43.9600 29.2763 0.1899
43.9800 29.2897 0.1799
44.0000 29.3030 0.1928
44.0200 29.3163 0.1904
44.0400 29.3297 0.1788
44.0600 29.3431 0.1916
44.0800 29.3564 0.1841
44.1000 29.3697 0.1769
44.1200 29.3830 0.1925
44.1400 29.3964 0.1814
44.1600 29.4098 0.1700
44.1800 29.4231 0.1895
44.2000 29.4363 0.1774
44.2200 29.4497 0.1727
44.2400 29.4630 0.1913
44.2600 29.4764 0.1734
44.2800 29.4897 0.1698
44.3000 29.5030 0.1870
44.3200 29.5163 0.1749
44.3400 29.5296 0.1679
44.3600 29.5430 0.1843
44.3800 29.5563 0.1643
44.4000 29.5697 0.1687
44.4200 29.5831 0.1816
44.4400 29.5964 0.1631
44.4600 29.6097 0.1654
44.4800 29.6231 0.1799
44.5000 29.6364 0.1640
44.5200 29.6497 0.1656
44.5400 29.6630 0.1702
44.5600 29.6763 0.1659
44.5800 29.6897 0.1619
44.6000 29.7030 0.1672
44.6200 29.7164 0.1637
44.6400 29.7297 0.1624
44.6600 29.7430 0.1585
44.6800 29.7563 0.1629
44.7000 29.7697 0.1583
44.7200 29.7830 0.1553
44.7400 29.7963 0.1640
44.7600 29.8097 0.1524
44.7800 29.8230 0.1522
44.8000 29.8364 0.1615
44.8200 29.8497 0.1524
44.8400 29.8630 0.1557
44.8600 29.8764 0.1522
44.8800 29.8898 0.1513
44.9000 29.9031 0.1506
44.9200 29.9164 0.1514
44.9400 29.9297 0.1508
44.9600 29.9430 0.1504
44.9800 29.9564 0.1570
45.0000 29.9697 0.1418
45.0200 29.9830 0.1512
45.0400 29.9963 0.1542
45.0600 30.0097 0.1450
45.0800 30.0230 0.1512
45.1000 30.0363 0.1496
45.1200 30.0497 0.1444
45.1400 30.0631 0.1448
45.1600 30.0764 0.1475
45.1800 30.0897 0.1484
45.2000 30.1030 0.1434
45.2200 30.1164 0.1436
45.2400 30.1297 0.1424
45.2600 30.1431 0.1449
45.2800 30.1563 0.1435
45.3000 30.1696 0.1420
45.3200 30.1830 0.1376
45.3400 30.1963 0.1406
45.3600 30.2097 0.1426
45.3800 30.2230 0.1341
45.4000 30.2363 0.1380
45.4200 30.2496 0.1402
45.4400 30.2630 0.1315
45.4600 30.2763 0.1335
45.4800 30.2897 0.1385
45.5000 30.3030 0.1291
45.5200 30.3164 0.1318
45.5400 30.3298 0.1312
45.5600 30.3431 0.1262
45.5800 30.3564 0.1275
45.6000 30.3698 0.1336
45.6200 30.3831 0.1240
45.6400 30.3963 0.1261
45.6600 30.4096 0.1240
45.6800 30.4230 0.1247
45.7000 30.4363 0.1236
45.7200 30.4496 0.1281
45.7400 30.4630 0.1188
45.7600 30.4763 0.1196
45.7800 30.4897 0.1254
45.8000 30.5030 0.1158
45.8200 30.5164 0.1180
45.8400 30.5297 0.1197
45.8600 30.5431 0.1152
45.8800 30.5564 0.1159
45.9000 30.5697 0.1210
45.9200 30.5830 0.1116
45.9400 30.5964 0.1153
45.9600 30.6097 0.1158
45.9800 30.6231 0.1085
46.0000 30.6364 0.1150
46.0200 30.6497 0.1179
46.0400 30.6630 0.1033
46.0600 30.6764 0.1116
46.0800 30.6897 0.1072
46.1000 30.7030 0.1089
46.1200 30.7163 0.1134
46.1400 30.7297 0.1063
46.1600 30.7430 0.0985
46.1800 30.7563 0.1084
46.2000 30.7697 0.1094
46.2200 30.7830 0.1017
46.2400 30.7964 0.1061
46.2600 30.8097 0.1040
46.2800 30.8230 0.0983
46.3000 30.8364 0.1083
46.3200 30.8498 0.1036
46.3400 30.8631 0.0980
46.3600 30.8764 0.1011
46.3800 30.8897 0.1074
46.4000 30.9031 0.1014
46.4200 30.9164 0.0969
46.4400 30.9297 0.1067
46.4600 30.9430 0.0961
46.4800 30.9563 0.0998
46.5000 30.9696 0.1026
46.5200 30.9830 0.0940
46.5400 30.9963 0.0991
46.5600 31.0097 0.1035
46.5800 31.0231 0.0922
46.6000 31.0364 0.0944
46.6200 31.0497 0.1061
46.6400 31.0631 0.0891
46.6600 31.0764 0.0913
46.6800 31.0897 0.1069
46.7000 31.1031 0.0828
46.7200 31.1164 0.0903
46.7400 31.1297 0.0975
46.7600 31.1430 0.0825
46.7800 31.1564 0.0858
46.8000 31.1697 0.0940
46.8200 31.1830 0.0806
46.8400 31.1963 0.0885
46.8600 31.2097 0.0890
46.8800 31.2230 0.0748
46.9000 31.2363 0.0870
46.9200 31.2497 0.0904
46.9400 31.2630 0.0697
46.9600 31.2764 0.0825
46.9800 31.2897 0.0847
47.0000 31.3031 0.0660
47.0200 31.3164 0.0819
47.0400 31.3298 0.0835
47.0600 31.3431 0.0654
47.0800 31.3564 0.0753
47.1000 31.3697 0.0865
47.1200 31.3830 0.0607
47.1400 31.3964 0.0746
47.1600 31.4097 0.0807
47.1800 31.4229 0.0584
47.2000 31.4363 0.0687
47.2200 31.4496 0.0767
47.2400 31.4630 0.0536
47.2600 31.4763 0.0668
47.2800 31.4897 0.0739
47.3000 31.5030 0.0561
47.3200 31.5164 0.0593
47.3400 31.5297 0.0672
47.3600 31.5430 0.0577
47.3800 31.5564 0.0603
47.4000 31.5697 0.0637
47.4200 31.5831 0.0547
47.4400 31.5964 0.0538
47.4600 31.6097 0.0651
47.4800 31.6230 0.0588
47.5000 31.6363 0.0462
47.5200 31.6497 0.0604
47.5400 31.6630 0.0550
47.5600 31.6763 0.0471
47.5800 31.6897 0.0557
47.6000 31.7030 0.0507
47.6200 31.7163 0.0423
47.6400 31.7297 0.0578
47.6600 31.7430 0.0455
47.6800 31.7564 0.0427
47.7000 31.7698 0.0542
47.7200 31.7831 0.0421
47.7400 31.7964 0.0408
47.7600 31.8097 0.0566
47.7800 31.8231 0.0356
47.8000 31.8364 0.0422
47.8200 31.8497 0.0529
47.8400 31.8630 0.0365
47.8600 31.8763 0.0402
47.8800 31.8897 0.0505
47.9000 31.9030 0.0332
47.9200 31.9163 0.0366
47.9400 31.9297 0.0439
47.9600 31.9430 0.0363
47.9800 31.9563 0.0387
48.0000 31.9696 0.0401
48.0200 31.9830 0.0345
48.0400 31.9964 0.0326
48.0600 32.0097 0.0363
48.0800 32.0230 0.0295
48.1000 32.0363 0.0364
48.1200 32.0497 0.0358
48.1400 32.0630 0.0302
48.1600 32.0764 0.0310
48.1800 32.0897 0.0289
48.2000 32.1030 0.0290
48.2200 32.1164 0.0325
48.2400 32.1297 0.0247
48.2600 32.1430 0.0290
48.2800 32.1563 0.0247
48.3000 32.1696 0.0301
48.3200 32.1830 0.0225
48.3400 32.1963 0.0308
48.3600 32.2096 0.0288
48.3800 32.2230 0.0185
48.4000 32.2364 0.0229
48.4200 32.2498 0.0264
48.4400 32.2631 0.0250
48.4600 32.2764 0.0208
48.4800 32.2898 0.0180
48.5000 32.3031 0.0212
48.5200 32.3164 0.0211
48.5400 32.3297 0.0142
48.5600 32.3430 0.0204
48.5800 32.3563 0.0149
48.6000 32.3697 0.0103
48.6200 32.3830 0.0190
48.6400 32.3963 0.0170
48.6600 32.4096 0.0070
48.6800 32.4230 0.0156
48.7000 32.4363 0.0040
48.7200 32.4496 0.0100
48.7400 32.4630 0.0181
48.7600 32.4764 0.0048
48.7800 32.4898 -0.0004
48.8000 32.5031 0.0108
48.8200 32.5164 0.0038
48.8400 32.5298 0.0052
48.8600 32.5431 0.0086
48.8800 32.5564 -0.0003
48.9000 32.5697 0.0024
48.9200 32.5830 0.0069
48.9400 32.5963 -0.0035
48.9600 32.6097 0.0107
48.9800 32.6230 0.0014
49.0000 32.6363 -0.0041
49.0200 32.6497 0.0052
49.0400 32.6630 -0.0008
49.0600 32.6763 -0.0016
49.0800 32.6897 0.0009
49.1000 32.7030 -0.0034
49.1200 32.7164 -0.0057
49.1400 32.7297 -0.0016
49.1600 32.7431 -0.0016
49.1800 32.7564 -0.0024
49.2000 32.7697 -0.0059
49.2200 32.7831 0.0003
49.2400 32.7964 -0.0029
49.2600 32.8097 -0.0049
49.2800 32.8230 -0.0031
49.3000 32.8364 0.0001
49.3200 32.8497 -0.0102
49.3400 32.8630 -0.0017
49.3600 32.8763 -0.0025
49.3800 32.8896 -0.0135
49.4000 32.9030 -0.0042
49.4200 32.9163 -0.0079
49.4400 32.9297 -0.0143
49.4600 32.9430 -0.0012
49.4800 32.9564 -0.0102
49.5000 32.9698 -0.0227
49.5200 32.9831 -0.0001
49.5400 32.9964 -0.0101
49.5600 33.0097 -0.0280
49.5800 33.0231 -0.0023
49.6000 33.0364 -0.0171
49.6200 33.0497 -0.0273
49.6400 33.0630 -0.0074
49.6600 33.0763 -0.0216
49.6800 33.0897 -0.0234
49.7000 33.1030 -0.0171
49.7200 33.1163 -0.0221
49.7400 33.1296 -0.0266
49.7600 33.1430 -0.0173
49.7800 33.1563 -0.0289
49.8000 33.1697 -0.0255
49.8200 33.1830 -0.0159
49.8400 33.1964 -0.0310
49.8600 33.2098 -0.0325
49.8800 33.2231 -0.0234
49.9000 33.2364 -0.0335
49.9200 33.2497 -0.0286
49.9400 33.2631 -0.0296
49.9600 33.2764 -0.0344
49.9800 33.2897 -0.0357
50.0000 33.3030 -0.0288
50.0200 33.3164 -0.0385
50.0400 33.3297 -0.0329
50.0600 33.3430 -0.0320
50.0800 33.3563 -0.0435
50.1000 33.3696 -0.0391
50.1200 33.3830 -0.0353
50.1400 33.3963 -0.0444
50.1600 33.4097 -0.0421
50.1800 33.4230 -0.0332
50.2000 33.4364 -0.0427
50.2200 33.4497 -0.0462
50.2400 33.4630 -0.0419
50.2600 33.4764 -0.0426
50.2800 33.4897 -0.0450
50.3000 33.5031 -0.0424
50.3200 33.5164 -0.0526
50.3400 33.5297 -0.0458
50.3600 33.5430 -0.0420
50.3800 33.5564 -0.0464
50.4000 33.5697 -0.0515
50.4200 33.5830 -0.0423
50.4400 33.5963 -0.0511
50.4600 33.6096 -0.0547
50.4800 33.6230 -0.0427
50.5000 33.6363 -0.0495
50.5200 33.6496 -0.0599
50.5400 33.6630 -0.0447
50.5600 33.6764 -0.0564
50.5800 33.6898 -0.0664
50.6000 33.7031 -0.0458
50.6200 33.7164 -0.0543
50.6400 33.7298 -0.0648
50.6600 33.7431 -0.0503
50.6800 33.7564 -0.0591
50.7000 33.7697 -0.0594
50.7200 33.7830 -0.0479
50.7400 33.7963 -0.0663
50.7600 33.8097 -0.0662
50.7800 33.8230 -0.0523
50.8000 33.8363 -0.0654
50.8200 33.8497 -0.0624
50.8400 33.8630 -0.0586
50.8600 33.8764 -0.0721
50.8800 33.8897 -0.0653
50.9000 33.9030 -0.0596
50.9200 33.9164 -0.0693
50.9400 33.9298 -0.0708
50.9600 33.9431 -0.0615
50.9800 33.9564 -0.0699
51.0000 33.9697 -0.0702
51.0200 33.9830 -0.0652
51.0400 33.9964 -0.0701
51.0600 34.0097 -0.0681
51.0800 34.0230 -0.0666
51.1000 34.0363 -0.0755
51.1200 34.0497 -0.0711
51.1400 34.0630 -0.0750
51.1600 34.0763 -0.0745
51.1800 34.0896 -0.0743
51.2000 34.1030 -0.0734
51.2200 34.1163 -0.0766
51.2400 34.1297 -0.0765
51.2600 34.1430 -0.0760
51.2800 34.1564 -0.0792
51.3000 34.1698 -0.0787
51.3200 34.1831 -0.0820
51.3400 34.1964 -0.0770
51.3600 34.2097 -0.0827
51.3800 34.2231 -0.0805
51.4000 34.2364 -0.0843
51.4200 34.2497 -0.0851
51.4400 34.2630 -0.0822
51.4600 34.2763 -0.0836
51.4800 34.2897 -0.0948
51.5000 34.3030 -0.0833
51.5200 34.3163 -0.0868
51.5400 34.3296 -0.0919
51.5600 34.3430 -0.0831
51.5800 34.3563 -0.0864
51.6000 34.3697 -0.1005
51.6200 34.3830 -0.0908
51.6400 34.3964 -0.0929
51.6600 34.4097 -0.0998
51.6800 34.4231 -0.0862
51.7000 34.4364 -0.1038
51.7200 34.4498 -0.1034
51.7400 34.4631 -0.0892
51.7600 34.4764 -0.1037
51.7800 34.4897 -0.1033
51.8000 34.5030 -0.0833
51.8200 34.5163 -0.1138
51.8400 34.5297 -0.1050
51.8600 34.5430 -0.0898
51.8800 34.5563 -0.1094
51.9000 34.5696 -0.1005
51.9200 34.5830 -0.1014
51.9400 34.5963 -0.1167
51.9600 34.6096 -0.0985
51.9800 34.6230 -0.1032
52.0000 34.6363 -0.1138
52.0200 34.6497 -0.1039
52.0400 34.6630 -0.1036
52.0600 34.6764 -0.1155
52.0800 34.6897 -0.1072
52.1000 34.7031 -0.1136
52.1200 34.7164 -0.1106
52.1400 34.7297 -0.1072
52.1600 34.7430 -0.1223
52.1800 34.7563 -0.1121
52.2000 34.7697 -0.1127
52.2200 34.7830 -0.1189
52.2400 34.7963 -0.1077
52.2600 34.8096 -0.1190
52.2800 34.8230 -0.1218
52.3000 34.8363 -0.1150
52.3200 34.8497 -0.1245
52.3400 34.8630 -0.1134
52.3600 34.8764 -0.1152
52.3800 34.8898 -0.1309
52.4000 34.9031 -0.1231
52.4200 34.9164 -0.1138
52.4400 34.9297 -0.1320
52.4600 34.9431 -0.1186
52.4800 34.9564 -0.1258
52.5000 34.9697 -0.1333
52.5200 34.9830 -0.1182
52.5400 34.9963 -0.1277
52.5600 35.0097 -0.1326
52.5800 35.0230 -0.1209
52.6000 35.0363 -0.1336
52.6200 35.0496 -0.1346
52.6400 35.0630 -0.1253
52.6600 35.0763 -0.1369
52.6800 35.0897 -0.1371
52.7000 35.1030 -0.1217
52.7200 35.1163 -0.1378
52.7400 35.1297 -0.1421
52.7600 35.1431 -0.1251
52.7800 35.1564 -0.1449
52.8000 35.1697 -0.1392
52.8200 35.1831 -0.1271
52.8400 35.1964 -0.1457
52.8600 35.2097 -0.1385
52.8800 35.2230 -0.1320
52.9000 35.2363 -0.1512
52.9200 35.2496 -0.1370
52.9400 35.2630 -0.1382
52.9600 35.2763 -0.1521
52.9800 35.2896 -0.1392
53.0000 35.3030 -0.1379
53.0200 35.3164 -0.1581
53.0400 35.3297 -0.1387
53.0600 35.3431 -0.1425
53.0800 35.3564 -0.1531
53.1000 35.3698 -0.1462
53.1200 35.3831 -0.1485
53.1400 35.3964 -0.1566
53.1600 35.4097 -0.1418
53.1800 35.4230 -0.1497
53.2000 35.4364 -0.1593
53.2200 35.4497 -0.1484
53.2400 35.4631 -0.1533
53.2600 35.4764 -0.1558
53.2800 35.4897 -0.1502
53.3000 35.5030 -0.1605
53.3200 35.5163 -0.1547
53.3400 35.5296 -0.1531
53.3600 35.5430 -0.1618
53.3800 35.5563 -0.1622
53.4000 35.5696 -0.1538
53.4200 35.5830 -0.1611
53.4400 35.5963 -0.1691
53.4600 35.6097 -0.1547
53.4800 35.6231 -0.1687
53.5000 35.6364 -0.1701
53.5200 35.6497 -0.1634
53.5400 35.6630 -0.1664
53.5600 35.6764 -0.1721
53.5800 35.6897 -0.1635
53.6000 35.7030 -0.1699
53.6200 35.7164 -0.1753
53.6400 35.7297 -0.1632
53.6600 35.7430 -0.1722
53.6800 35.7563 -0.1837
53.7000 35.7696 -0.1615
53.7200 35.7830 -0.1743
53.7400 35.7963 -0.1793
53.7600 35.8097 -0.1691
53.7800 35.8230 -0.1789
53.8000 35.8363 -0.1801
53.8200 35.8497 -0.1701
53.8400 35.8631 -0.1901
53.8600 35.8764 -0.1793
53.8800 35.8897 -0.1697
53.9000 35.9031 -0.1972
53.9200 35.9164 -0.1778
53.9400 35.9297 -0.1734
53.9600 35.9430 -0.1999
53.9800 35.9563 -0.1790
54.0000 35.9697 -0.1719
54.0200 35.9830 -0.2038
54.0400 35.9963 -0.1791
54.0600 36.0096 -0.1758
54.0800 36.0230 -0.2027
54.1000 36.0364 -0.1833
54.1200 36.0497 -0.1823
54.1400 36.0630 -0.2032
54.1600 36.0764 -0.1876
54.1800 36.0897 -0.1924
54.2000 36.1030 -0.1970
54.2200 36.1164 -0.1925
54.2400 36.1297 -0.1979
54.2600 36.1431 -0.1978
54.2800 36.1564 -0.1927
54.3000 36.1698 -0.2014
54.3200 36.1830 -0.2003
54.3400 36.1964 -0.1970
54.3600 36.2097 -0.2005
54.3800 36.2230 -0.1998
54.4000 36.2363 -0.2068
54.4200 36.2496 -0.1980
54.4400 36.2630 -0.2043
54.4600 36.2763 -0.2115
54.4800 36.2897 -0.1970
54.5000 36.3030 -0.2075
54.5200 36.3164 -0.2128
54.5400 36.3297 -0.2001
54.5600 36.3431 -0.2108
54.5800 36.3564 -0.2158
54.6000 36.3697 -0.2060
54.6200 36.3831 -0.2077
54.6400 36.3964 -0.2190
54.6600 36.4097 -0.2083
54.6800 36.4230 -0.2149
54.7000 36.4363 -0.2154
54.7200 36.4497 -0.2105
54.7400 36.4630 -0.2132
54.7600 36.4763 -0.2207
54.7800 36.4896 -0.2127
54.8000 36.5030 -0.2107
54.8200 36.5163 -0.2225
54.8400 36.5297 -0.2156
54.8600 36.5430 -0.2093
54.8800 36.5563 -0.2257
54.9000 36.5697 -0.2187
54.9200 36.5831 -0.2140
54.9400 36.5964 -0.2278
54.9600 36.6097 -0.2199
54.9800 36.6231 -0.2191
55.0000 36.6364 -0.2302
55.0200 36.6497 -0.2237
55.0400 36.6630 -0.2193
55.0600 36.6763 -0.2349
55.0800 36.6896 -0.2197
55.1000 36.7030 -0.2263
55.1200 36.7163 -0.2358
55.1400 36.7296 -0.2222
55.1600 36.7430 -0.2258
55.1800 36.7563 -0.2390
55.2000 36.7697 -0.2281
55.2200 36.7830 -0.2318
55.2400 36.7963 -0.2391
55.2600 36.8097 -0.2361
55.2800 36.8230 -0.2311
55.3000 36.8363 -0.2384
55.3200 36.8497 -0.2377
55.3400 36.8630 -0.2367
55.3600 36.8764 -0.2382
55.3800 36.8897 -0.2401
55.4000 36.9031 -0.2364
55.4200 36.9164 -0.2441
55.4400 36.9297 -0.2376
55.4600 36.9431 -0.2432
55.4800 36.9564 -0.2473
55.5000 36.9697 -0.2345
55.5200 36.9830 -0.2459
55.5400 36.9963 -0.2525
55.5600 37.0096 -0.2434
55.5800 37.0230 -0.2460
55.6000 37.0363 -0.2558
55.6200 37.0497 -0.2421
55.6400 37.0631 -0.2531
55.6600 37.0765 -0.2565
55.6800 37.0898 -0.2395
55.7000 37.1031 -0.2483
55.7200 37.1164 -0.2609
55.7400 37.1298 -0.2428
55.7600 37.1431 -0.2547
55.7800 37.1563 -0.2563
55.8000 37.1697 -0.2494
55.8200 37.1830 -0.2547
55.8400 37.1963 -0.2571
55.8600 37.2096 -0.2513
55.8800 37.2229 -0.2585
55.9000 37.2363 -0.2593
55.9200 37.2497 -0.2511
55.9400 37.2630 -0.2607
55.9600 37.2763 -0.2627
55.9800 37.2897 -0.2551
56.0000 37.3031 -0.2598
56.0200 37.3164 -0.2634
56.0400 37.3297 -0.2633
56.0600 37.3431 -0.2640
56.0800 37.3564 -0.2653
56.1000 37.3698 -0.2692
56.1200 37.3831 -0.2645
56.1400 37.3964 -0.2738
56.1600 37.4097 -0.2656
56.1800 37.4230 -0.2643
56.2000 37.4363 -0.2744
56.2200 37.4496 -0.2714
56.2400 37.4630 -0.2670
56.2600 37.4763 -0.2755
56.2800 37.4897 -0.2716
56.3000 37.5030 -0.2742
56.3200 37.5163 -0.2752
56.3400 37.5297 -0.2773
56.3600 37.5431 -0.2762
56.3800 37.5564 -0.2823
56.4000 37.5697 -0.2735
56.4200 37.5830 -0.2860
56.4400 37.5964 -0.2813
56.4600 37.6097 -0.2779
56.4800 37.6230 -0.2870
56.5000 37.6364 -0.2816
56.5200 37.6497 -0.2833
56.5400 37.6630 -0.2874
56.5600 37.6764 -0.2860
56.5800 37.6896 -0.2829
56.6000 37.7029 -0.2920
56.6200 37.7163 -0.2836
56.6400 37.7297 -0.2948
56.6600 37.7430 -0.2919
56.6800 37.7563 -0.2882
56.7000 37.7697 -0.2984
56.7200 37.7831 -0.2943
56.7400 37.7964 -0.2930
56.7600 37.8098 -0.3057
56.7800 37.8231 -0.2938
56.8000 37.8364 -0.2972
56.8200 37.8497 -0.3048
56.8400 37.8630 -0.3000
56.8600 37.8763 -0.3003
56.8800 37.8897 -0.3075
56.9000 37.9030 -0.2972
56.9200 37.9164 -0.3113
56.9400 37.9297 -0.3116
56.9600 37.9430 -0.2982
56.9800 37.9563 -0.3121
57.0000 37.9697 -0.3124
57.0200 37.9830 -0.3042
57.0400 37.9963 -0.3137
57.0600 38.0097 -0.3135
57.0800 38.0231 -0.3098
57.1000 38.0364 -0.3233
57.1200 38.0497 -0.3122
57.1400 38.0631 -0.3100
57.1600 38.0764 -0.3223
57.1800 38.0898 -0.3131
57.2000 38.1031 -0.3141
57.2200 38.1164 -0.3245
57.2400 38.1297 -0.3096
57.2600 38.1430 -0.3222
57.2800 38.1563 -0.3270
57.3000 38.1697 -0.3164
57.3200 38.1830 -0.3242
57.3400 38.1963 -0.3221
57.3600 38.2096 -0.3191
57.3800 38.2230 -0.3345
57.4000 38.2363 -0.3203
57.4200 38.2497 -0.3297
57.4400 38.2631 -0.3380
57.4600 38.2764 -0.3262
57.4800 38.2897 -0.3304
57.5000 38.3030 -0.3390
57.5200 38.3164 -0.3269
57.5400 38.3298 -0.3340
57.5600 38.3431 -0.3420
57.5800 38.3564 -0.3273
57.6000 38.3697 -0.3448
57.6200 38.3830 -0.3429
57.6400 38.3964 -0.3326
57.6600 38.4096 -0.3467
57.6800 38.4229 -0.3444
57.7000 38.4363 -0.3325
57.7200 38.4496 -0.3498
57.7400 38.4630 -0.3462
57.7600 38.4763 -0.3366
57.7800 38.4897 -0.3492
57.8000 38.5031 -0.3524
57.8200 38.5164 -0.3442
57.8400 38.5298 -0.3565
57.8600 38.5431 -0.3454
57.8800 38.5564 -0.3450
57.9000 38.5698 -0.3591
57.9200 38.5831 -0.3494
57.9400 38.5963 -0.3452
57.9600 38.6096 -0.3621
57.9800 38.6230 -0.3502
58.0000 38.6363 -0.3514
58.0200 38.6496 -0.3610
58.0400 38.6630 -0.3540
58.0600 38.6763 -0.3602
58.0800 38.6897 -0.3609
58.1000 38.7030 -0.3550
58.1200 38.7164 -0.3660
58.1400 38.7297 -0.3678
58.1600 38.7431 -0.3625
58.1800 38.7564 -0.3677
58.2000 38.7697 -0.3695
58.2200 38.7831 -0.3668
58.2400 38.7964 -0.3727
58.2600 38.8097 -0.3707
58.2800 38.8231 -0.3719
58.3000 38.8364 -0.3775
58.3200 38.8497 -0.3668
58.3400 38.8630 -0.3786
58.3600 38.8764 -0.3800
58.3800 38.8897 -0.3764
58.4000 38.9030 -0.3797
58.4200 38.9163 -0.3826
58.4400 38.9297 -0.3766
58.4600 38.9430 -0.3937
58.4800 38.9564 -0.3829
58.5000 38.9697 -0.3799
58.5200 38.9831 -0.3945
58.5400 38.9964 -0.3875
58.5600 39.0097 -0.3838
58.5800 39.0230 -0.3972
58.6000 39.0364 -0.3911
58.6200 39.0497 -0.3865
58.6400 39.0631 -0.3975
58.6600 39.0764 -0.3927
58.6800 39.0897 -0.3910
58.7000 39.1030 -0.3997
58.7200 39.1164 -0.3971
58.7400 39.1296 -0.3955
58.7600 39.1430 -0.4037
58.7800 39.1563 -0.3979
58.8000 39.1697 -0.4020
58.8200 39.1830 -0.4047
58.8400 39.1963 -0.4072
58.8600 39.2097 -0.4051
58.8800 39.2231 -0.4164
58.9000 39.2364 -0.4065
58.9200 39.2498 -0.4064
58.9400 39.2631 -0.4169
58.9600 39.2764 -0.4142
58.9800 39.2897 -0.4091
59.0000 39.3030 -0.4208
59.0200 39.3163 -0.4169
59.0400 39.3297 -0.4086
59.0600 39.3430 -0.4236
59.0800 39.3564 -0.4228
59.1000 39.3697 -0.4116
59.1200 39.3830 -0.4309
59.1400 39.3963 -0.4252
59.1600 39.4097 -0.4155
59.1800 39.4230 -0.4353
59.2000 39.4363 -0.4280
59.2200 39.4496 -0.4211
59.2400 39.4630 -0.4388
59.2600 39.4764 -0.4265
59.2800 39.4897 -0.4234
59.3000 39.5030 -0.4412
59.3200 39.5164 -0.4231
59.3400 39.5298 -0.4382
59.3600 39.5431 -0.4426
59.3800 39.5564 -0.4281
59.4000 39.5697 -0.4377
59.4200 39.5830 -0.4502
59.4400 39.5963 -0.4318
59.4600 39.6097 -0.4446
59.4800 39.6230 -0.4475
59.5000 39.6363 -0.4366
59.5200 39.6497 -0.4481
59.5400 39.6630 -0.4509
59.5600 39.6763 -0.4423
59.5800 39.6897 -0.4537
59.6000 39.7031 -0.4506
59.6200 39.7164 -0.4467
59.6400 39.7298 -0.4593
59.6600 39.7431 -0.4565
59.6800 39.7564 -0.4469
59.7000 39.7697 -0.4618
59.7200 39.7831 -0.4616
59.7400 39.7964 -0.4556
59.7600 39.8097 -0.4663
59.7800 39.8230 -0.4636
59.8000 39.8364 -0.4619
59.8200 39.8497 -0.4654
59.8400 39.8630 -0.4673
59.8600 39.8763 -0.4668
59.8800 39.8896 -0.4713
59.9000 39.9030 -0.4723
59.9200 39.9163 -0.4704
59.9400 39.9297 -0.4741
59.9600 39.9430 -0.4817
59.9800 39.9564 -0.4769
60.0000 39.9697 -0.4808
60.0200 39.9831 -0.4846
60.0400 39.9964 -0.4908
60.0460 40.0003 -0.4996
