Raw Data
Time Displacement Force
(s) (mm) (N)
0.0000 0.0000 0.2038
0.0200 0.0001 0.2168
0.0400 0.0022 0.2817
0.0600 0.0101 0.2773
0.0800 0.0220 0.1869
0.1000 0.0345 0.1995
0.1200 0.0472 0.2385
0.1400 0.0607 0.1950
0.1600 0.0747 0.2082
0.1800 0.0889 0.2184
0.2000 0.1028 0.1850
0.2200 0.1163 0.2038
0.2400 0.1297 0.2156
0.2600 0.1430 0.1875
0.2800 0.1563 0.2072
0.3000 0.1697 0.2119
0.3200 0.1831 0.1868
0.3400 0.1964 0.2064
0.3600 0.2098 0.2046
0.3800 0.2231 0.1879
0.4000 0.2364 0.2008
0.4200 0.2498 0.1965
0.4400 0.2631 0.1897
0.4600 0.2764 0.1896
0.4800 0.2897 0.1916
0.5000 0.3031 0.1813
0.5200 0.3164 0.1814
0.5400 0.3297 0.1829
0.5600 0.3431 0.1733
0.5800 0.3564 0.1786
0.6000 0.3698 0.1771
0.6200 0.3831 0.1656
0.6400 0.3964 0.1726
0.6600 0.4098 0.1723
0.6800 0.4232 0.1614
0.7000 0.4365 0.1632
0.7200 0.4498 0.1686
0.7400 0.4631 0.1523
0.7600 0.4765 0.1625
0.7800 0.4898 0.1594
0.8000 0.5031 0.1490
0.8200 0.5164 0.1538
0.8400 0.5298 0.1485
0.8600 0.5431 0.1392
0.8800 0.5564 0.1511
0.9000 0.5697 0.1413
0.9200 0.5830 0.1389
0.9400 0.5964 0.1420
0.9600 0.6097 0.1318
0.9800 0.6231 0.1327
1.0000 0.6364 0.1388
1.0200 0.6498 0.1296
1.0400 0.6632 0.1280
1.0600 0.6765 0.1321
1.0800 0.6898 0.1263
1.1000 0.7031 0.1245
1.1200 0.7165 0.1265
1.1400 0.7298 0.1204
1.1600 0.7431 0.1218
1.1800 0.7564 0.1269
1.2000 0.7698 0.1165
1.2200 0.7831 0.1188
1.2400 0.7964 0.1204
1.2600 0.8097 0.1175
1.2800 0.8230 0.1137
1.3000 0.8364 0.1187
1.3200 0.8498 0.1131
1.3400 0.8631 0.1116
1.3600 0.8764 0.1179
1.3800 0.8898 0.1041
1.4000 0.9031 0.1060
1.4200 0.9165 0.1097
1.4400 0.9298 0.0957
1.4600 0.9431 0.1018
1.4800 0.9565 0.0958
1.5000 0.9698 0.0920
1.5200 0.9831 0.0941
1.5400 0.9964 0.0904
1.5600 1.0097 0.0883
1.5800 1.0231 0.0925
1.6000 1.0364 0.0876
1.6200 1.0497 0.0847
1.6400 1.0630 0.0848
1.6600 1.0764 0.0817
1.6800 1.0897 0.0817
1.7000 1.1031 0.0794
1.7200 1.1164 0.0775
1.7400 1.1298 0.0747
1.7600 1.1432 0.0743
1.7800 1.1565 0.0682
1.8000 1.1698 0.0742
1.8200 1.1831 0.0715
1.8400 1.1965 0.0679
1.8600 1.2098 0.0690
1.8800 1.2231 0.0619
1.9000 1.2364 0.0643
1.9200 1.2498 0.0665
1.9400 1.2631 0.0597
1.9600 1.2764 0.0615
1.9800 1.2897 0.0613
2.0000 1.3031 0.0626
2.0200 1.3164 0.0563
2.0400 1.3297 0.0570
2.0600 1.3431 0.0576
2.0800 1.3564 0.0539
2.1000 1.3698 0.0472
2.1200 1.3832 0.0516
2.1400 1.3965 0.0479
2.1600 1.4098 0.0433
2.1800 1.4231 0.0510
2.2000 1.4365 0.0452
2.2200 1.4498 0.0395
2.2400 1.4631 0.0454
2.2600 1.4764 0.0380
2.2800 1.4897 0.0380
2.3000 1.5031 0.0365
2.3200 1.5164 0.0371
2.3400 1.5297 0.0341
2.3600 1.5431 0.0385
2.3800 1.5564 0.0365
2.4000 1.5698 0.0261
2.4200 1.5831 0.0330
2.4400 1.5965 0.0279
2.4600 1.6098 0.0234
2.4800 1.6231 0.0293
2.5000 1.6365 0.0210
2.5200 1.6498 0.0253
2.5400 1.6631 0.0280
2.5600 1.6764 0.0186
2.5800 1.6898 0.0215
2.6000 1.7032 0.0193
2.6200 1.7165 0.0206
2.6400 1.7298 0.0170
2.6600 1.7432 0.0160
2.6800 1.7565 0.0111
2.7000 1.7698 0.0133
2.7200 1.7831 0.0130
2.7400 1.7964 0.0110
2.7600 1.8098 -0.0001
2.7800 1.8231 0.0070
2.8000 1.8364 0.0043
2.8200 1.8497 -0.0016
2.8400 1.8631 0.0051
2.8600 1.8765 0.0009
2.8800 1.8898 -0.0078
2.9000 1.9031 0.0068
2.9200 1.9165 -0.0012
2.9400 1.9298 -0.0091
2.9600 1.9431 0.0051
2.9800 1.9565 -0.0055
3.0000 1.9698 -0.0091
3.0200 1.9831 0.0022
3.0400 1.9965 -0.0115
3.0600 2.0098 -0.0133
3.0800 2.0231 0.0005
3.1000 2.0364 -0.0184
3.1200 2.0497 -0.0181
3.1400 2.0631 -0.0021
3.1600 2.0764 -0.0243
3.1800 2.0898 -0.0194
3.2000 2.1032 -0.0095
3.2200 2.1165 -0.0293
3.2400 2.1298 -0.0275
3.2600 2.1432 -0.0129
3.2800 2.1565 -0.0228
3.3000 2.1698 -0.0308
3.3200 2.1831 -0.0182
3.3400 2.1964 -0.0296
3.3600 2.2098 -0.0288
3.3800 2.2231 -0.0232
3.4000 2.2364 -0.0388
3.4200 2.2497 -0.0340
3.4400 2.2630 -0.0299
3.4600 2.2764 -0.0381
3.4800 2.2898 -0.0389
3.5000 2.3031 -0.0376
3.5200 2.3164 -0.0408
3.5400 2.3298 -0.0447
3.5600 2.3431 -0.0396
3.5800 2.3565 -0.0492
3.6000 2.3698 -0.0442
3.6200 2.3831 -0.0429
3.6400 2.3965 -0.0534
3.6600 2.4099 -0.0512
3.6800 2.4232 -0.0462
3.7000 2.4365 -0.0529
3.7200 2.4498 -0.0543
3.7400 2.4631 -0.0512
3.7600 2.4764 -0.0611
3.7800 2.4897 -0.0643
3.8000 2.5030 -0.0537
3.8200 2.5164 -0.0623
3.8400 2.5297 -0.0678
3.8600 2.5431 -0.0591
3.8800 2.5564 -0.0655
3.9000 2.5698 -0.0671
3.9200 2.5832 -0.0594
3.9400 2.5965 -0.0690
3.9600 2.6098 -0.0650
3.9800 2.6231 -0.0625
4.0000 2.6365 -0.0727
4.0200 2.6498 -0.0698
4.0400 2.6631 -0.0716
4.0600 2.6764 -0.0704
4.0800 2.6898 -0.0720
4.1000 2.7031 -0.0727
4.1200 2.7164 -0.0748
4.1400 2.7298 -0.0771
4.1600 2.7431 -0.0759
4.1800 2.7564 -0.0791
4.2000 2.7697 -0.0856
4.2200 2.7831 -0.0773
4.2400 2.7964 -0.0799
4.2600 2.8097 -0.0855
4.2800 2.8231 -0.0811
4.3000 2.8365 -0.0869
4.3200 2.8498 -0.0911
4.3400 2.8631 -0.0823
4.3600 2.8765 -0.0911
4.3800 2.8898 -0.0957
4.4000 2.9032 -0.0895
4.4200 2.9164 -0.0950
4.4400 2.9297 -0.0926
4.4600 2.9431 -0.0891
4.4800 2.9564 -0.0994
4.5000 2.9697 -0.0991
4.5200 2.9831 -0.0934
4.5400 2.9964 -0.1028
4.5600 3.0098 -0.1002
4.5800 3.0231 -0.0999
4.6000 3.0364 -0.1063
4.6200 3.0498 -0.1050
4.6400 3.0631 -0.0984
4.6600 3.0764 -0.1075
4.6800 3.0898 -0.1069
4.7000 3.1031 -0.1031
4.7200 3.1164 -0.1073
4.7400 3.1298 -0.1138
4.7600 3.1432 -0.1022
4.7800 3.1565 -0.1065
4.8000 3.1698 -0.1141
4.8200 3.1832 -0.1074
4.8400 3.1965 -0.1122
4.8600 3.2098 -0.1178
4.8800 3.2231 -0.1055
4.9000 3.2364 -0.1139
4.9200 3.2497 -0.1227
4.9400 3.2630 -0.1101
4.9600 3.2764 -0.1188
4.9800 3.2897 -0.1252
5.0000 3.3032 -0.1153
5.0200 3.3165 -0.1244
5.0400 3.3299 -0.1303
5.0600 3.3432 -0.1225
5.0800 3.3565 -0.1225
5.1000 3.3699 -0.1300
5.1200 3.3832 -0.1264
5.1400 3.3965 -0.1284
5.1600 3.4098 -0.1319
5.1800 3.4231 -0.1312
5.2000 3.4364 -0.1322
5.2200 3.4497 -0.1317
5.2400 3.4630 -0.1377
5.2600 3.4764 -0.1371
5.2800 3.4897 -0.1387
5.3000 3.5031 -0.1369
5.3200 3.5164 -0.1367
5.3400 3.5298 -0.1432
5.3600 3.5431 -0.1477
5.3800 3.5565 -0.1404
5.4000 3.5698 -0.1503
5.4200 3.5832 -0.1466
5.4400 3.5965 -0.1437
5.4600 3.6098 -0.1529
5.4800 3.6232 -0.1529
5.5000 3.6365 -0.1473
5.5200 3.6498 -0.1567
5.5400 3.6631 -0.1498
5.5600 3.6764 -0.1529
5.5800 3.6897 -0.1592
5.6000 3.7031 -0.1522
5.6200 3.7164 -0.1512
5.6400 3.7297 -0.1626
5.6600 3.7431 -0.1542
5.6800 3.7564 -0.1561
5.7000 3.7698 -0.1660
5.7200 3.7831 -0.1563
5.7400 3.7965 -0.1643
5.7600 3.8098 -0.1673
5.7800 3.8231 -0.1517
5.8000 3.8365 -0.1667
5.8200 3.8498 -0.1663
5.8400 3.8632 -0.1553
5.8600 3.8765 -0.1662
5.8800 3.8898 -0.1649
5.9000 3.9031 -0.1584
5.9200 3.9165 -0.1700
5.9400 3.9298 -0.1697
5.9600 3.9431 -0.1596
5.9800 3.9564 -0.1735
6.0000 3.9697 -0.1706
6.0200 3.9831 -0.1707
6.0400 3.9964 -0.1726
6.0600 4.0098 -0.1732
6.0800 4.0231 -0.1731
6.1000 4.0365 -0.1790
6.1200 4.0498 -0.1770
6.1400 4.0631 -0.1742
6.1600 4.0765 -0.1836
6.1800 4.0898 -0.1781
6.2000 4.1032 -0.1756
6.2200 4.1165 -0.1904
6.2400 4.1297 -0.1785
6.2600 4.1431 -0.1779
6.2800 4.1565 -0.1889
6.3000 4.1698 -0.1815
6.3200 4.1831 -0.1813
6.3400 4.1964 -0.1880
6.3600 4.2097 -0.1834
6.3800 4.2231 -0.1842
6.4000 4.2364 -0.1884
6.4200 4.2497 -0.1851
6.4400 4.2631 -0.1905
6.4600 4.2765 -0.1906
6.4800 4.2898 -0.1852
6.5000 4.3031 -0.1976
6.5200 4.3165 -0.1902
6.5400 4.3298 -0.1906
6.5600 4.3432 -0.2015
6.5800 4.3565 -0.1894
6.6000 4.3698 -0.1955
6.6200 4.3831 -0.2011
6.6400 4.3965 -0.1904
6.6600 4.4098 -0.2012
6.6800 4.4231 -0.2016
6.7000 4.4364 -0.1950
6.7200 4.4497 -0.2001
6.7400 4.4631 -0.2074
6.7600 4.4764 -0.2004
6.7800 4.4897 -0.2054
6.8000 4.5031 -0.2025
6.8200 4.5165 -0.2024
6.8400 4.5298 -0.2118
6.8600 4.5431 -0.2056
6.8800 4.5564 -0.2125
6.9000 4.5698 -0.2083
6.9200 4.5832 -0.2109
6.9400 4.5965 -0.2117
6.9600 4.6098 -0.2104
6.9800 4.6231 -0.2106
7.0000 4.6365 -0.2151
7.0200 4.6498 -0.2116
7.0400 4.6630 -0.2090
7.0600 4.6763 -0.2173
7.0800 4.6897 -0.2142
7.1000 4.7030 -0.2157
7.1200 4.7164 -0.2223
7.1400 4.7297 -0.2110
7.1600 4.7431 -0.2202
7.1800 4.7565 -0.2259
7.2000 4.7699 -0.2142
7.2200 4.7832 -0.2245
7.2400 4.7965 -0.2248
7.2600 4.8099 -0.2120
7.2800 4.8232 -0.2272
7.3000 4.8365 -0.2269
7.3200 4.8497 -0.2138
7.3400 4.8630 -0.2280
7.3600 4.8764 -0.2311
7.3800 4.8897 -0.2207
7.4000 4.9031 -0.2316
7.4200 4.9164 -0.2310
7.4400 4.9298 -0.2222
7.4600 4.9431 -0.2360
7.4800 4.9565 -0.2299
7.5000 4.9698 -0.2259
7.5200 4.9831 -0.2396
7.5400 4.9965 -0.2345
7.5600 5.0098 -0.2277
7.5800 5.0232 -0.2390
7.6000 5.0365 -0.2362
7.6200 5.0498 -0.2355
7.6400 5.0632 -0.2408
7.6600 5.0764 -0.2411
7.6800 5.0897 -0.2400
7.7000 5.1031 -0.2417
7.7200 5.1164 -0.2445
7.7400 5.1298 -0.2447
7.7600 5.1431 -0.2431
7.7800 5.1564 -0.2466
7.8000 5.1697 -0.2458
7.8200 5.1831 -0.2483
7.8400 5.1964 -0.2525
7.8600 5.2098 -0.2498
7.8800 5.2231 -0.2463
7.9000 5.2365 -0.2544
7.9200 5.2498 -0.2511
7.9400 5.2631 -0.2513
7.9600 5.2764 -0.2534
7.9800 5.2898 -0.2532
8.0000 5.3032 -0.2528
8.0200 5.3165 -0.2600
8.0400 5.3298 -0.2497
8.0600 5.3431 -0.2539
8.0800 5.3564 -0.2600
8.1000 5.3698 -0.2510
8.1200 5.3831 -0.2589
8.1400 5.3964 -0.2599
8.1600 5.4097 -0.2555
8.1800 5.4231 -0.2623
8.2000 5.4364 -0.2616
8.2200 5.4497 -0.2561
8.2400 5.4631 -0.2556
8.2600 5.4765 -0.2622
8.2800 5.4898 -0.2618
8.3000 5.5032 -0.2557
8.3200 5.5165 -0.2689
8.3400 5.5298 -0.2575
8.3600 5.5431 -0.2625
8.3800 5.5565 -0.2722
8.4000 5.5698 -0.2594
8.4200 5.5831 -0.2662
8.4400 5.5964 -0.2706
8.4600 5.6098 -0.2639
8.4800 5.6231 -0.2665
8.5000 5.6364 -0.2709
8.5200 5.6497 -0.2643
8.5400 5.6631 -0.2657
8.5600 5.6764 -0.2761
8.5800 5.6898 -0.2657
8.6000 5.7031 -0.2685
8.6200 5.7165 -0.2772
8.6400 5.7298 -0.2750
8.6600 5.7431 -0.2691
8.6800 5.7565 -0.2762
8.7000 5.7698 -0.2775
8.7200 5.7832 -0.2694
8.7400 5.7965 -0.2796
8.7600 5.8098 -0.2779
8.7800 5.8231 -0.2700
8.8000 5.8364 -0.2866
8.8200 5.8498 -0.2773
8.8400 5.8631 -0.2699
8.8600 5.8764 -0.2906
8.8800 5.8897 -0.2797
8.9000 5.9031 -0.2735
8.9200 5.9164 -0.2905
8.9400 5.9298 -0.2819
8.9600 5.9431 -0.2768
8.9800 5.9565 -0.2956
9.0000 5.9699 -0.2838
9.0200 5.9832 -0.2841
9.0400 5.9965 -0.2968
9.0600 6.0098 -0.2862
9.0800 6.0232 -0.2893
9.1000 6.0365 -0.3043
9.1200 6.0498 -0.2921
9.1400 6.0631 -0.2897
9.1600 6.0764 -0.3024
9.1800 6.0898 -0.2972
9.2000 6.1031 -0.2913
9.2200 6.1164 -0.3033
9.2400 6.1297 -0.3011
9.2600 6.1431 -0.2937
9.2800 6.1564 -0.3084
9.3000 6.1697 -0.3035
9.3200 6.1831 -0.2958
9.3400 6.1965 -0.3062
9.3600 6.2099 -0.3029
9.3800 6.2232 -0.2951
9.4000 6.2365 -0.3113
9.4200 6.2498 -0.3047
9.4400 6.2632 -0.3003
9.4600 6.2764 -0.3132
9.4800 6.2897 -0.3101
9.5000 6.3030 -0.3038
9.5200 6.3164 -0.3149
9.5400 6.3297 -0.3103
9.5600 6.3431 -0.3075
9.5800 6.3564 -0.3124
9.6000 6.3697 -0.3080
9.6200 6.3831 -0.3132
9.6400 6.3965 -0.3144
9.6600 6.4098 -0.3151
9.6800 6.4231 -0.3151
9.7000 6.4365 -0.3152
9.7200 6.4498 -0.3204
9.7400 6.4631 -0.3145
9.7600 6.4764 -0.3175
9.7800 6.4898 -0.3237
9.8000 6.5031 -0.3153
9.8200 6.5165 -0.3200
9.8400 6.5298 -0.3313
9.8600 6.5431 -0.3130
9.8800 6.5565 -0.3235
9.9000 6.5698 -0.3278
9.9200 6.5831 -0.3187
9.9400 6.5964 -0.3266
9.9600 6.6097 -0.3248
9.9800 6.6231 -0.3143
10.0000 6.6364 -0.3308
10.0200 6.6497 -0.3320
10.0400 6.6631 -0.3154
10.0600 6.6764 -0.3351
10.0800 6.6898 -0.3276
10.1000 6.7031 -0.3159
10.1200 6.7165 -0.3389
10.1400 6.7298 -0.3240
10.1600 6.7432 -0.3213
10.1800 6.7565 -0.3421
10.2000 6.7698 -0.3194
10.2200 6.7831 -0.3255
10.2400 6.7965 -0.3409
10.2600 6.8098 -0.3212
10.2800 6.8231 -0.3252
10.3000 6.8364 -0.3415
10.3200 6.8497 -0.3197
10.3400 6.8631 -0.3302
10.3600 6.8764 -0.3355
10.3800 6.8897 -0.3230
10.4000 6.9031 -0.3295
10.4200 6.9164 -0.3343
10.4400 6.9298 -0.3285
10.4600 6.9432 -0.3331
10.4800 6.9565 -0.3342
10.5000 6.9698 -0.3289
10.5200 6.9832 -0.3360
10.5400 6.9965 -0.3353
10.5600 7.0098 -0.3332
10.5800 7.0231 -0.3351
10.6000 7.0364 -0.3311
10.6200 7.0498 -0.3414
10.6400 7.0631 -0.3366
10.6600 7.0764 -0.3350
10.6800 7.0897 -0.3444
10.7000 7.1031 -0.3374
10.7200 7.1164 -0.3411
10.7400 7.1298 -0.3462
10.7600 7.1431 -0.3403
10.7800 7.1564 -0.3431
10.8000 7.1698 -0.3507
10.8200 7.1831 -0.3401
10.8400 7.1965 -0.3458
10.8600 7.2098 -0.3511
10.8800 7.2232 -0.3446
10.9000 7.2365 -0.3475
10.9200 7.2498 -0.3577
10.9400 7.2631 -0.3426
10.9600 7.2764 -0.3505
10.9800 7.2898 -0.3603
11.0000 7.3031 -0.3511
11.0200 7.3164 -0.3542
11.0400 7.3297 -0.3576
11.0600 7.3430 -0.3507
11.0800 7.3564 -0.3546
11.1000 7.3697 -0.3604
11.1200 7.3831 -0.3552
11.1400 7.3965 -0.3576
11.1600 7.4099 -0.3605
11.1800 7.4232 -0.3582
11.2000 7.4365 -0.3594
11.2200 7.4498 -0.3641
11.2400 7.4632 -0.3625
11.2600 7.4765 -0.3561
11.2800 7.4898 -0.3658
11.3000 7.5031 -0.3654
11.3200 7.5164 -0.3617
11.3400 7.5298 -0.3649
11.3600 7.5431 -0.3673
11.3800 7.5564 -0.3607
11.4000 7.5697 -0.3679
11.4200 7.5831 -0.3744
11.4400 7.5964 -0.3619
11.4600 7.6097 -0.3722
11.4800 7.6231 -0.3740
11.5000 7.6364 -0.3579
11.5200 7.6498 -0.3768
11.5400 7.6632 -0.3774
11.5600 7.6765 -0.3633
11.5800 7.6898 -0.3772
11.6000 7.7032 -0.3752
11.6200 7.7165 -0.3683
11.6400 7.7298 -0.3773
11.6600 7.7431 -0.3787
11.6800 7.7564 -0.3670
11.7000 7.7698 -0.3791
11.7200 7.7831 -0.3805
11.7400 7.7964 -0.3683
11.7600 7.8097 -0.3848
11.7800 7.8231 -0.3767
11.8000 7.8364 -0.3713
11.8200 7.8498 -0.3849
11.8400 7.8631 -0.3805
11.8600 7.8764 -0.3713
11.8800 7.8898 -0.3885
11.9000 7.9031 -0.3810
11.9200 7.9164 -0.3690
11.9400 7.9297 -0.3874
11.9600 7.9431 -0.3818
11.9800 7.9565 -0.3716
12.0000 7.9698 -0.3855
12.0200 7.9831 -0.3832
12.0400 7.9965 -0.3693
12.0600 8.0098 -0.3881
12.0800 8.0231 -0.3871
12.1000 8.0364 -0.3698
12.1200 8.0497 -0.3893
12.1400 8.0630 -0.3853
12.1600 8.0764 -0.3734
12.1800 8.0897 -0.3911
12.2000 8.1030 -0.3819
12.2200 8.1164 -0.3734
12.2400 8.1298 -0.3939
12.2600 8.1432 -0.3826
12.2800 8.1565 -0.3802
12.3000 8.1698 -0.3925
12.3200 8.1832 -0.3830
12.3400 8.1965 -0.3766
12.3600 8.2098 -0.3877
12.3800 8.2231 -0.3853
12.4000 8.2364 -0.3793
12.4200 8.2498 -0.3889
12.4400 8.2631 -0.3900
12.4600 8.2764 -0.3807
12.4800 8.2897 -0.3925
12.5000 8.3030 -0.3919
12.5200 8.3164 -0.3866
12.5400 8.3297 -0.3897
12.5600 8.3431 -0.3883
12.5800 8.3565 -0.3854
12.6000 8.3698 -0.3936
12.6200 8.3832 -0.3955
12.6400 8.3965 -0.3911
12.6600 8.4098 -0.3928
12.6800 8.4232 -0.3994
12.7000 8.4365 -0.3882
12.7200 8.4498 -0.3994
12.7400 8.4631 -0.3987
12.7600 8.4764 -0.3924
12.7800 8.4898 -0.4041
12.8000 8.5031 -0.4002
12.8200 8.5164 -0.3977
12.8400 8.5297 -0.4024
12.8600 8.5430 -0.4057
12.8800 8.5564 -0.4001
12.9000 8.5698 -0.4035
12.9200 8.5831 -0.4050
12.9400 8.5964 -0.4040
12.9600 8.6098 -0.4074
12.9800 8.6232 -0.4090
13.0000 8.6365 -0.4080
13.0200 8.6498 -0.4043
13.0400 8.6632 -0.4127
13.0600 8.6765 -0.4132
13.0800 8.6898 -0.4049
13.1000 8.7031 -0.4178
13.1200 8.7165 -0.4077
13.1400 8.7298 -0.4058
13.1600 8.7431 -0.4207
13.1800 8.7564 -0.4108
13.2000 8.7697 -0.4070
13.2200 8.7830 -0.4214
13.2400 8.7964 -0.4122
13.2600 8.8098 -0.4111
13.2800 8.8231 -0.4257
13.3000 8.8365 -0.4133
13.3200 8.8498 -0.4115
13.3400 8.8632 -0.4297
13.3600 8.8765 -0.4099
13.3800 8.8898 -0.4171
13.4000 8.9031 -0.4293
13.4200 8.9165 -0.4166
13.4400 8.9298 -0.4182
13.4600 8.9431 -0.4292
13.4800 8.9564 -0.4158
13.5000 8.9697 -0.4180
13.5200 8.9831 -0.4368
13.5400 8.9964 -0.4171
13.5600 9.0098 -0.4204
13.5800 9.0231 -0.4428
13.6000 9.0364 -0.4186
13.6200 9.0497 -0.4279
13.6400 9.0630 -0.4414
13.6600 9.0764 -0.4227
13.6800 9.0898 -0.4294
13.7000 9.1032 -0.4462
13.7200 9.1165 -0.4236
13.7400 9.1298 -0.4270
13.7600 9.1432 -0.4514
13.7800 9.1565 -0.4252
13.8000 9.1699 -0.4312
13.8200 9.1831 -0.4508
13.8400 9.1964 -0.4280
13.8600 9.2098 -0.4323
13.8800 9.2231 -0.4506
13.9000 9.2364 -0.4292
13.9200 9.2497 -0.4395
13.9400 9.2631 -0.4534
13.9600 9.2764 -0.4285
13.9800 9.2898 -0.4397
14.0000 9.3031 -0.4546
14.0200 9.3164 -0.4306
14.0400 9.3298 -0.4458
14.0600 9.3431 -0.4520
14.0800 9.3565 -0.4322
14.1000 9.3698 -0.4529
14.1200 9.3831 -0.4447
14.1400 9.3965 -0.4364
14.1600 9.4098 -0.4554
14.1800 9.4231 -0.4461
14.2000 9.4364 -0.4344
14.2200 9.4498 -0.4569
14.2400 9.4631 -0.4485
14.2600 9.4764 -0.4415
14.2800 9.4897 -0.4571
14.3000 9.5030 -0.4461
14.3200 9.5164 -0.4415
14.3400 9.5297 -0.4584
14.3600 9.5430 -0.4487
14.3800 9.5564 -0.4430
14.4000 9.5698 -0.4582
14.4200 9.5832 -0.4520
14.4400 9.5965 -0.4464
14.4600 9.6098 -0.4586
14.4800 9.6232 -0.4518
14.5000 9.6365 -0.4532
14.5200 9.6498 -0.4571
14.5400 9.6631 -0.4517
14.5600 9.6764 -0.4537
14.5800 9.6897 -0.4547
14.6000 9.7031 -0.4558
14.6200 9.7164 -0.4589
14.6400 9.7297 -0.4567
14.6600 9.7431 -0.4621
14.6800 9.7564 -0.4578
14.7000 9.7698 -0.4598
14.7200 9.7831 -0.4633
14.7400 9.7965 -0.4597
14.7600 9.8098 -0.4598
14.7800 9.8232 -0.4660
14.8000 9.8365 -0.4610
14.8200 9.8498 -0.4578
14.8400 9.8631 -0.4705
14.8600 9.8765 -0.4600
14.8800 9.8898 -0.4630
14.9000 9.9031 -0.4677
14.9200 9.9164 -0.4584
14.9400 9.9297 -0.4677
14.9600 9.9431 -0.4632
14.9800 9.9564 -0.4606
15.0000 9.9697 -0.4685
15.0200 9.9830 -0.4638
15.0400 9.9964 -0.4673
15.0600 10.0098 -0.4673
15.0800 10.0231 -0.4685
15.1000 10.0364 -0.4664
15.1200 10.0498 -0.4727
15.1400 10.0632 -0.4648
15.1600 10.0765 -0.4753
15.1800 10.0898 -0.4677
15.2000 10.1031 -0.4663
15.2200 10.1165 -0.4764
15.2400 10.1298 -0.4662
15.2600 10.1431 -0.4681
15.2800 10.1564 -0.4753
15.3000 10.1698 -0.4665
15.3200 10.1831 -0.4716
15.3400 10.1964 -0.4775
15.3600 10.2097 -0.4652
15.3800 10.2230 -0.4753
15.4000 10.2364 -0.4789
15.4200 10.2497 -0.4612
15.4400 10.2631 -0.4767
15.4600 10.2764 -0.4815
15.4800 10.2898 -0.4623
15.5000 10.3032 -0.4789
15.5200 10.3165 -0.4784
15.5400 10.3298 -0.4692
15.5600 10.3432 -0.4798
15.5800 10.3565 -0.4784
15.6000 10.3698 -0.4716
15.6200 10.3831 -0.4776
15.6400 10.3964 -0.4738
15.6600 10.4097 -0.4732
15.6800 10.4231 -0.4827
15.7000 10.4364 -0.4782
15.7200 10.4497 -0.4760
15.7400 10.4631 -0.4818
15.7600 10.4764 -0.4741
15.7800 10.4898 -0.4788
15.8000 10.5031 -0.4755
15.8200 10.5164 -0.4765
15.8400 10.5297 -0.4834
15.8600 10.5431 -0.4765
15.8800 10.5565 -0.4762
15.9000 10.5698 -0.4901
15.9200 10.5831 -0.4757
15.9400 10.5965 -0.4837
15.9600 10.6098 -0.4867
15.9800 10.6232 -0.4759
16.0000 10.6365 -0.4852
16.0200 10.6498 -0.4859
16.0400 10.6631 -0.4751
16.0600 10.6764 -0.4895
16.0800 10.6897 -0.4862
16.1000 10.7030 -0.4762
16.1200 10.7164 -0.4956
16.1400 10.7297 -0.4814
16.1600 10.7431 -0.4790
16.1800 10.7564 -0.4964
16.2000 10.7698 -0.4767
16.2200 10.7832 -0.4835
16.2400 10.7965 -0.4979
16.2600 10.8098 -0.4766
16.2800 10.8231 -0.4895
16.3000 10.8365 -0.4972
16.3200 10.8498 -0.4775
16.3400 10.8631 -0.4896
16.3600 10.8764 -0.4954
16.3800 10.8898 -0.4752
16.4000 10.9031 -0.4951
16.4200 10.9164 -0.4952
16.4400 10.9297 -0.4798
16.4600 10.9431 -0.4915
16.4800 10.9564 -0.4929
16.5000 10.9697 -0.4861
16.5200 10.9831 -0.4908
16.5400 10.9964 -0.4968
16.5600 11.0098 -0.4925
16.5800 11.0232 -0.4897
16.6000 11.0365 -0.4957
16.6200 11.0498 -0.4935
16.6400 11.0632 -0.4906
16.6600 11.0765 -0.4977
16.6800 11.0898 -0.4958
16.7000 11.1031 -0.4888
16.7200 11.1164 -0.4964
16.7400 11.1297 -0.4945
16.7600 11.1431 -0.4869
16.7800 11.1564 -0.5017
16.8000 11.1697 -0.4953
16.8200 11.1831 -0.4843
16.8400 11.1964 -0.5053
16.8600 11.2098 -0.4923
16.8800 11.2231 -0.4916
16.9000 11.2365 -0.5074
16.9200 11.2498 -0.4919
16.9400 11.2631 -0.4957
16.9600 11.2765 -0.5077
16.9800 11.2898 -0.4954
17.0000 11.3031 -0.4890
17.0200 11.3164 -0.5130
17.0400 11.3298 -0.5043
17.0600 11.3432 -0.4917
17.0800 11.3565 -0.5123
17.1000 11.3698 -0.5002
17.1200 11.3832 -0.4968
17.1400 11.3965 -0.5115
17.1600 11.4098 -0.5019
17.1800 11.4231 -0.5048
17.2000 11.4364 -0.5095
17.2200 11.4497 -0.5104
17.2400 11.4631 -0.5027
17.2600 11.4764 -0.5105
17.2800 11.4897 -0.5008
17.3000 11.5031 -0.5136
17.3200 11.5165 -0.5133
17.3400 11.5298 -0.5030
17.3600 11.5431 -0.5154
17.3800 11.5565 -0.5137
17.4000 11.5698 -0.5107
17.4200 11.5831 -0.5167
17.4400 11.5965 -0.5147
17.4600 11.6098 -0.5151
17.4800 11.6232 -0.5123
17.5000 11.6365 -0.5203
17.5200 11.6498 -0.5194
17.5400 11.6630 -0.5158
17.5600 11.6764 -0.5138
17.5800 11.6897 -0.5240
17.6000 11.7031 -0.5236
17.6200 11.7164 -0.5114
17.6400 11.7298 -0.5295
17.6600 11.7431 -0.5151
17.6800 11.7565 -0.5208
17.7000 11.7698 -0.5306
17.7200 11.7831 -0.5151
17.7400 11.7965 -0.5246
17.7600 11.8098 -0.5258
17.7800 11.8232 -0.5196
17.8000 11.8364 -0.5243
17.8200 11.8498 -0.5235
17.8400 11.8631 -0.5220
17.8600 11.8764 -0.5219
17.8800 11.8897 -0.5238
17.9000 11.9031 -0.5162
17.9200 11.9164 -0.5243
17.9400 11.9298 -0.5252
17.9600 11.9431 -0.5206
17.9800 11.9564 -0.5253
18.0000 11.9698 -0.5213
18.0200 11.9831 -0.5205
18.0400 11.9965 -0.5278
18.0600 12.0098 -0.5244
18.0800 12.0231 -0.5266
18.1000 12.0365 -0.5207
18.1200 12.0498 -0.5242
18.1400 12.0632 -0.5223
18.1600 12.0765 -0.5231
18.1800 12.0898 -0.5256
18.2000 12.1031 -0.5261
18.2200 12.1165 -0.5229
18.2400 12.1298 -0.5273
18.2600 12.1431 -0.5312
18.2800 12.1564 -0.5215
18.3000 12.1697 -0.5325
18.3200 12.1831 -0.5280
18.3400 12.1964 -0.5239
18.3600 12.2098 -0.5344
18.3800 12.2232 -0.5282
18.4000 12.2365 -0.5252
18.4200 12.2498 -0.5381
18.4400 12.2631 -0.5285
18.4600 12.2765 -0.5243
18.4800 12.2898 -0.5423
18.5000 12.3031 -0.5319
18.5200 12.3164 -0.5247
18.5400 12.3297 -0.5447
18.5600 12.3431 -0.5298
18.5800 12.3565 -0.5261
18.6000 12.3698 -0.5467
18.6200 12.3831 -0.5351
18.6400 12.3964 -0.5339
18.6600 12.4098 -0.5449
18.6800 12.4231 -0.5376
18.7000 12.4364 -0.5392
18.7200 12.4498 -0.5437
18.7400 12.4631 -0.5390
18.7600 12.4765 -0.5414
18.7800 12.4898 -0.5457
18.8000 12.5031 -0.5413
18.8200 12.5165 -0.5455
18.8400 12.5298 -0.5444
18.8600 12.5431 -0.5475
18.8800 12.5564 -0.5466
18.9000 12.5697 -0.5412
18.9200 12.5831 -0.5475
18.9400 12.5964 -0.5479
18.9600 12.6097 -0.5473
18.9800 12.6231 -0.5440
19.0000 12.6364 -0.5462
19.0200 12.6497 -0.5564
19.0400 12.6631 -0.5455
19.0600 12.6764 -0.5471
19.0800 12.6897 -0.5570
19.1000 12.7031 -0.5465
19.1200 12.7165 -0.5489
19.1400 12.7298 -0.5539
19.1600 12.7431 -0.5531
19.1800 12.7564 -0.5468
19.2000 12.7698 -0.5498
19.2200 12.7831 -0.5539
19.2400 12.7965 -0.5559
19.2600 12.8098 -0.5502
19.2800 12.8231 -0.5558
19.3000 12.8365 -0.5548
19.3200 12.8498 -0.5501
19.3400 12.8631 -0.5530
19.3600 12.8764 -0.5596
19.3800 12.8897 -0.5523
19.4000 12.9030 -0.5556
19.4200 12.9164 -0.5615
19.4400 12.9297 -0.5552
19.4600 12.9431 -0.5536
19.4800 12.9565 -0.5633
19.5000 12.9699 -0.5582
19.5200 12.9832 -0.5549
19.5400 12.9965 -0.5617
19.5600 13.0099 -0.5595
19.5800 13.0232 -0.5583
19.6000 13.0365 -0.5595
19.6200 13.0498 -0.5573
19.6400 13.0631 -0.5642
19.6600 13.0764 -0.5605
19.6800 13.0897 -0.5534
19.7000 13.1030 -0.5672
19.7200 13.1164 -0.5617
19.7400 13.1297 -0.5568
19.7600 13.1431 -0.5697
19.7800 13.1564 -0.5627
19.8000 13.1698 -0.5531
19.8200 13.1831 -0.5689
19.8400 13.1965 -0.5678
19.8600 13.2098 -0.5595
19.8800 13.2232 -0.5636
19.9000 13.2365 -0.5635
19.9200 13.2498 -0.5596
19.9400 13.2632 -0.5728
19.9600 13.2765 -0.5617
19.9800 13.2898 -0.5597
20.0000 13.3031 -0.5718
20.0200 13.3164 -0.5690
20.0400 13.3298 -0.5600
20.0600 13.3431 -0.5732
20.0800 13.3564 -0.5698
20.1000 13.3697 -0.5580
20.1200 13.3831 -0.5757
20.1400 13.3965 -0.5698
20.1600 13.4098 -0.5636
20.1800 13.4231 -0.5703
20.2000 13.4365 -0.5739
20.2200 13.4498 -0.5663
20.2400 13.4631 -0.5738
20.2600 13.4765 -0.5798
20.2800 13.4898 -0.5621
20.3000 13.5032 -0.5750
20.3200 13.5165 -0.5819
20.3400 13.5298 -0.5684
20.3600 13.5431 -0.5786
20.3800 13.5565 -0.5761
20.4000 13.5698 -0.5726
20.4200 13.5831 -0.5795
20.4400 13.5964 -0.5760
20.4600 13.6097 -0.5701
20.4800 13.6231 -0.5865
20.5000 13.6364 -0.5778
20.5200 13.6498 -0.5715
20.5400 13.6631 -0.5848
20.5600 13.6765 -0.5815
20.5800 13.6898 -0.5781
20.6000 13.7032 -0.5843
20.6200 13.7165 -0.5805
20.6400 13.7298 -0.5818
20.6600 13.7432 -0.5819
20.6800 13.7565 -0.5900
20.7000 13.7698 -0.5800
20.7200 13.7831 -0.5818
20.7400 13.7964 -0.5911
20.7600 13.8098 -0.5793
20.7800 13.8231 -0.5828
20.8000 13.8364 -0.5917
20.8200 13.8497 -0.5803
20.8400 13.8631 -0.5787
20.8600 13.8764 -0.5981
20.8800 13.8898 -0.5837
20.9000 13.9031 -0.5819
20.9200 13.9165 -0.5993
20.9400 13.9298 -0.5801
20.9600 13.9432 -0.5839
20.9800 13.9565 -0.5994
21.0000 13.9699 -0.5795
21.0200 13.9832 -0.5901
21.0400 13.9965 -0.5963
21.0600 14.0098 -0.5790
21.0800 14.0231 -0.5908
21.1000 14.0364 -0.5959
21.1200 14.0498 -0.5813
21.1400 14.0631 -0.5907
21.1600 14.0764 -0.5911
21.1800 14.0897 -0.5839
21.2000 14.1031 -0.5936
21.2200 14.1164 -0.5965
21.2400 14.1297 -0.5823
21.2600 14.1431 -0.5940
21.2800 14.1565 -0.5969
21.3000 14.1698 -0.5853
21.3200 14.1831 -0.5957
21.3400 14.1965 -0.5966
21.3600 14.2098 -0.5875
21.3800 14.2232 -0.5971
21.4000 14.2365 -0.5947
21.4200 14.2498 -0.5905
21.4400 14.2631 -0.5984
21.4600 14.2765 -0.5940
21.4800 14.2898 -0.5952
21.5000 14.3031 -0.5969
21.5200 14.3164 -0.5954
21.5400 14.3297 -0.5961
21.5600 14.3430 -0.5989
21.5800 14.3563 -0.5989
21.6000 14.3697 -0.5965
21.6200 14.3831 -0.6001
21.6400 14.3965 -0.6038
21.6600 14.4099 -0.6008
21.6800 14.4232 -0.6000
21.7000 14.4365 -0.6016
21.7200 14.4498 -0.6002
21.7400 14.4632 -0.6008
21.7600 14.4765 -0.6077
21.7800 14.4897 -0.5972
21.8000 14.5030 -0.6043
21.8200 14.5164 -0.6099
21.8400 14.5297 -0.5964
21.8600 14.5430 -0.6103
21.8800 14.5564 -0.6100
21.9000 14.5697 -0.5972
21.9200 14.5831 -0.6124
21.9400 14.5964 -0.6131
21.9600 14.6098 -0.6005
21.9800 14.6231 -0.6103
22.0000 14.6365 -0.6170
22.0200 14.6499 -0.6035
22.0400 14.6632 -0.6167
22.0600 14.6765 -0.6095
22.0800 14.6898 -0.6065
22.1000 14.7031 -0.6165
22.1200 14.7165 -0.6134
22.1400 14.7298 -0.6097
22.1600 14.7431 -0.6145
22.1800 14.7564 -0.6149
22.2000 14.7698 -0.6143
22.2200 14.7831 -0.6166
22.2400 14.7964 -0.6184
22.2600 14.8097 -0.6118
22.2800 14.8231 -0.6153
22.3000 14.8364 -0.6210
22.3200 14.8498 -0.6168
22.3400 14.8631 -0.6187
22.3600 14.8765 -0.6227
22.3800 14.8899 -0.6132
22.4000 14.9032 -0.6231
22.4200 14.9165 -0.6269
22.4400 14.9298 -0.6144
22.4600 14.9432 -0.6267
22.4800 14.9565 -0.6225
22.5000 14.9698 -0.6170
22.5200 14.9831 -0.6295
22.5400 14.9964 -0.6241
22.5600 15.0098 -0.6191
22.5800 15.0231 -0.6278
22.6000 15.0364 -0.6260
22.6200 15.0497 -0.6258
22.6400 15.0631 -0.6285
22.6600 15.0764 -0.6328
22.6800 15.0897 -0.6267
22.7000 15.1031 -0.6312
22.7200 15.1165 -0.6300
22.7400 15.1298 -0.6297
22.7600 15.1432 -0.6318
22.7800 15.1565 -0.6359
22.8000 15.1698 -0.6293
22.8200 15.1832 -0.6312
22.8400 15.1965 -0.6370
22.8600 15.2098 -0.6316
22.8800 15.2231 -0.6319
22.9000 15.2364 -0.6400
22.9200 15.2498 -0.6348
22.9400 15.2631 -0.6355
22.9600 15.2764 -0.6373
22.9800 15.2897 -0.6341
23.0000 15.3031 -0.6366
23.0200 15.3164 -0.6419
23.0400 15.3297 -0.6314
23.0600 15.3431 -0.6364
23.0800 15.3565 -0.6451
23.1000 15.3698 -0.6324
23.1200 15.3831 -0.6412
23.1400 15.3965 -0.6427
23.1600 15.4098 -0.6358
23.1800 15.4232 -0.6426
23.2000 15.4365 -0.6449
23.2200 15.4498 -0.6316
23.2400 15.4631 -0.6429
23.2600 15.4764 -0.6489
23.2800 15.4898 -0.6314
23.3000 15.5031 -0.6479
23.3200 15.5164 -0.6456
23.3400 15.5297 -0.6365
23.3600 15.5431 -0.6495
23.3800 15.5564 -0.6419
23.4000 15.5698 -0.6423
23.4200 15.5831 -0.6454
23.4400 15.5965 -0.6413
23.4600 15.6099 -0.6405
23.4800 15.6232 -0.6453
23.5000 15.6365 -0.6387
23.5200 15.6498 -0.6467
23.5400 15.6632 -0.6411
23.5600 15.6765 -0.6396
23.5800 15.6898 -0.6512
23.6000 15.7031 -0.6415
23.6200 15.7164 -0.6394
23.6400 15.7298 -0.6509
23.6600 15.7431 -0.6441
23.6800 15.7564 -0.6447
23.7000 15.7697 -0.6477
23.7200 15.7831 -0.6465
23.7400 15.7964 -0.6509
23.7600 15.8097 -0.6430
23.7800 15.8231 -0.6467
23.8000 15.8365 -0.6556
23.8200 15.8498 -0.6470
23.8400 15.8632 -0.6479
23.8600 15.8765 -0.6534
23.8800 15.8898 -0.6487
23.9000 15.9031 -0.6511
23.9200 15.9164 -0.6505
23.9400 15.9297 -0.6514
23.9600 15.9431 -0.6514
23.9800 15.9564 -0.6478
24.0000 15.9697 -0.6536
24.0200 15.9831 -0.6513
24.0400 15.9964 -0.6482
24.0600 16.0097 -0.6527
24.0800 16.0231 -0.6500
24.1000 16.0364 -0.6463
24.1200 16.0498 -0.6552
24.1400 16.0631 -0.6473
24.1600 16.0765 -0.6456
24.1800 16.0898 -0.6583
24.2000 16.1031 -0.6443
24.2200 16.1164 -0.6536
24.2400 16.1297 -0.6553
24.2600 16.1431 -0.6445
24.2800 16.1565 -0.6551
24.3000 16.1698 -0.6568
24.3200 16.1831 -0.6460
24.3400 16.1965 -0.6580
24.3600 16.2098 -0.6604
24.3800 16.2231 -0.6492
24.4000 16.2364 -0.6552
24.4200 16.2497 -0.6557
24.4400 16.2631 -0.6505
24.4600 16.2764 -0.6610
24.4800 16.2897 -0.6581
24.5000 16.3031 -0.6510
24.5200 16.3164 -0.6578
24.5400 16.3298 -0.6571
24.5600 16.3431 -0.6626
24.5800 16.3565 -0.6602
24.6000 16.3698 -0.6612
24.6200 16.3832 -0.6598
24.6400 16.3965 -0.6617
24.6600 16.4098 -0.6624
24.6800 16.4231 -0.6644
24.7000 16.4365 -0.6656
24.7200 16.4498 -0.6674
24.7400 16.4631 -0.6680
24.7600 16.4764 -0.6681
24.7800 16.4897 -0.6668
24.8000 16.5030 -0.6744
24.8200 16.5164 -0.6729
24.8400 16.5297 -0.6713
24.8600 16.5431 -0.6722
24.8800 16.5565 -0.6777
24.9000 16.5698 -0.6738
24.9200 16.5832 -0.6746
24.9400 16.5965 -0.6785
24.9600 16.6098 -0.6716
24.9800 16.6232 -0.6815
25.0000 16.6365 -0.6755
25.0200 16.6498 -0.6752
25.0400 16.6631 -0.6894
25.0600 16.6764 -0.6773
25.0800 16.6898 -0.6709
25.1000 16.7031 -0.6893
25.1200 16.7164 -0.6839
25.1400 16.7297 -0.6757
25.1600 16.7431 -0.6841
25.1800 16.7564 -0.6830
25.2000 16.7698 -0.6814
25.2200 16.7831 -0.6955
25.2400 16.7964 -0.6807
25.2600 16.8098 -0.6803
25.2800 16.8231 -0.6987
25.3000 16.8365 -0.6831
25.3200 16.8498 -0.6869
25.3400 16.8632 -0.6983
25.3600 16.8765 -0.6828
25.3800 16.8898 -0.6808
25.4000 16.9031 -0.7096
25.4200 16.9164 -0.6826
25.4400 16.9298 -0.6813
25.4600 16.9431 -0.7127
25.4800 16.9564 -0.6797
25.5000 16.9697 -0.6883
25.5200 16.9830 -0.7140
25.5400 16.9964 -0.6877
25.5600 17.0097 -0.6920
25.5800 17.0231 -0.7108
25.6000 17.0364 -0.6839
25.6200 17.0498 -0.6950
25.6400 17.0632 -0.7104
25.6600 17.0765 -0.6899
25.6800 17.0898 -0.6909
25.7000 17.1031 -0.7151
25.7200 17.1165 -0.6891
25.7400 17.1298 -0.6976
25.7600 17.1431 -0.7154
25.7800 17.1564 -0.6950
25.8000 17.1698 -0.6981
25.8200 17.1831 -0.7182
25.8400 17.1965 -0.7046
25.8600 17.2098 -0.6975
25.8800 17.2231 -0.7220
25.9000 17.2364 -0.7067
25.9200 17.2497 -0.7059
25.9400 17.2631 -0.7130
25.9600 17.2765 -0.7085
25.9800 17.2899 -0.7115
26.0000 17.3032 -0.7228
26.0200 17.3165 -0.7088
26.0400 17.3298 -0.7123
26.0600 17.3432 -0.7185
26.0800 17.3565 -0.7149
26.1000 17.3698 -0.7187
26.1200 17.3831 -0.7166
26.1400 17.3964 -0.7075
26.1600 17.4098 -0.7195
26.1800 17.4231 -0.7173
26.2000 17.4364 -0.7122
26.2200 17.4497 -0.7267
26.2400 17.4631 -0.7140
26.2600 17.4764 -0.7030
26.2800 17.4898 -0.7297
26.3000 17.5031 -0.7177
26.3200 17.5164 -0.7051
26.3400 17.5298 -0.7252
26.3600 17.5431 -0.7167
26.3800 17.5564 -0.7121
26.4000 17.5698 -0.7289
26.4200 17.5831 -0.7173
26.4400 17.5965 -0.7169
26.4600 17.6098 -0.7228
26.4800 17.6231 -0.7162
26.5000 17.6365 -0.7197
26.5200 17.6498 -0.7257
26.5400 17.6631 -0.7185
26.5600 17.6764 -0.7169
26.5800 17.6897 -0.7268
26.6000 17.7030 -0.7237
26.6200 17.7164 -0.7268
26.6400 17.7297 -0.7251
26.6600 17.7430 -0.7224
26.6800 17.7564 -0.7260
26.7000 17.7698 -0.7252
26.7200 17.7832 -0.7307
26.7400 17.7965 -0.7308
26.7600 17.8098 -0.7253
26.7800 17.8232 -0.7376
26.8000 17.8365 -0.7335
26.8200 17.8498 -0.7339
26.8400 17.8631 -0.7370
26.8600 17.8764 -0.7381
26.8800 17.8898 -0.7318
26.9000 17.9031 -0.7417
26.9200 17.9164 -0.7381
26.9400 17.9297 -0.7346
26.9600 17.9430 -0.7454
26.9800 17.9564 -0.7399
27.0000 17.9697 -0.7374
27.0200 17.9831 -0.7469
27.0400 17.9964 -0.7441
27.0600 18.0098 -0.7440
27.0800 18.0232 -0.7508
27.1000 18.0365 -0.7411
27.1200 18.0498 -0.7495
27.1400 18.0632 -0.7509
27.1600 18.0765 -0.7457
27.1800 18.0898 -0.7594
27.2000 18.1031 -0.7564
27.2200 18.1164 -0.7510
27.2400 18.1298 -0.7568
27.2600 18.1431 -0.7501
27.2800 18.1564 -0.7601
27.3000 18.1697 -0.7592
27.3200 18.1830 -0.7549
27.3400 18.1964 -0.7617
27.3600 18.2098 -0.7618
27.3800 18.2231 -0.7565
27.4000 18.2364 -0.7641
27.4200 18.2498 -0.7651
27.4400 18.2632 -0.7595
27.4600 18.2765 -0.7648
27.4800 18.2898 -0.7624
27.5000 18.3031 -0.7598
27.5200 18.3165 -0.7776
27.5400 18.3298 -0.7643
27.5600 18.3432 -0.7621
27.5800 18.3565 -0.7721
27.6000 18.3698 -0.7660
27.6200 18.3832 -0.7690
27.6400 18.3964 -0.7737
27.6600 18.4097 -0.7640
27.6800 18.4231 -0.7690
27.7000 18.4364 -0.7765
27.7200 18.4498 -0.7657
27.7400 18.4631 -0.7736
27.7600 18.4764 -0.7758
27.7800 18.4898 -0.7652
27.8000 18.5032 -0.7757
27.8200 18.5165 -0.7753
27.8400 18.5298 -0.7670
27.8600 18.5431 -0.7729
27.8800 18.5565 -0.7750
27.9000 18.5698 -0.7673
27.9200 18.5831 -0.7725
27.9400 18.5964 -0.7727
27.9600 18.6097 -0.7651
27.9800 18.6231 -0.7736
28.0000 18.6364 -0.7727
28.0200 18.6498 -0.7581
28.0400 18.6631 -0.7708
28.0600 18.6764 -0.7736
28.0800 18.6897 -0.7641
28.1000 18.7031 -0.7713
28.1200 18.7164 -0.7701
28.1400 18.7298 -0.7652
28.1600 18.7432 -0.7719
28.1800 18.7565 -0.7669
28.2000 18.7698 -0.7644
28.2200 18.7831 -0.7776
28.2400 18.7965 -0.7614
28.2600 18.8098 -0.7671
28.2800 18.8232 -0.7783
28.3000 18.8365 -0.7617
28.3200 18.8498 -0.7699
28.3400 18.8631 -0.7829
28.3600 18.8764 -0.7626
28.3800 18.8897 -0.7726
28.4000 18.9031 -0.7794
28.4200 18.9164 -0.7681
28.4400 18.9297 -0.7807
28.4600 18.9431 -0.7799
28.4800 18.9564 -0.7717
28.5000 18.9698 -0.7879
28.5200 18.9832 -0.7798
28.5400 18.9965 -0.7817
28.5600 19.0098 -0.7897
28.5800 19.0231 -0.7839
28.6000 19.0365 -0.7857
28.6200 19.0498 -0.7948
28.6400 19.0631 -0.7873
28.6600 19.0764 -0.7892
28.6800 19.0898 -0.7980
28.7000 19.1031 -0.7864
28.7200 19.1164 -0.7972
28.7400 19.1297 -0.8023
28.7600 19.1430 -0.7942
28.7800 19.1564 -0.8029
28.8000 19.1697 -0.8076
28.8200 19.1830 -0.7973
28.8400 19.1964 -0.8121
28.8600 19.2098 -0.8060
28.8800 19.2232 -0.7993
28.9000 19.2366 -0.8197
28.9200 19.2499 -0.8055
28.9400 19.2632 -0.8039
28.9600 19.2765 -0.8218
28.9800 19.2898 -0.8097
29.0000 19.3031 -0.8079
29.0200 19.3164 -0.8265
29.0400 19.3297 -0.8117
29.0600 19.3431 -0.8102
29.0800 19.3564 -0.8304
29.1000 19.3697 -0.8148
29.1200 19.3831 -0.8149
29.1400 19.3964 -0.8297
29.1600 19.4098 -0.8226
29.1800 19.4231 -0.8223
29.2000 19.4364 -0.8306
29.2200 19.4498 -0.8231
29.2400 19.4632 -0.8281
29.2600 19.4765 -0.8301
29.2800 19.4898 -0.8239
29.3000 19.5031 -0.8285
29.3200 19.5165 -0.8307
29.3400 19.5298 -0.8285
29.3600 19.5431 -0.8316
29.3800 19.5564 -0.8321
29.4000 19.5697 -0.8316
29.4200 19.5831 -0.8316
29.4400 19.5964 -0.8403
29.4600 19.6097 -0.8311
29.4800 19.6231 -0.8289
29.5000 19.6364 -0.8426
29.5200 19.6498 -0.8311
29.5400 19.6631 -0.8379
29.5600 19.6764 -0.8451
29.5800 19.6898 -0.8355
29.6000 19.7031 -0.8360
29.6200 19.7165 -0.8512
29.6400 19.7298 -0.8435
29.6600 19.7431 -0.8415
29.6800 19.7565 -0.8523
29.7000 19.7698 -0.8477
29.7200 19.7831 -0.8447
29.7400 19.7964 -0.8532
29.7600 19.8098 -0.8527
29.7800 19.8231 -0.8561
29.8000 19.8364 -0.8588
29.8200 19.8497 -0.8489
29.8400 19.8630 -0.8568
29.8600 19.8764 -0.8603
29.8800 19.8897 -0.8572
29.9000 19.9031 -0.8587
29.9200 19.9164 -0.8667
29.9400 19.9298 -0.8616
29.9600 19.9432 -0.8608
29.9800 19.9565 -0.8697
30.0000 19.9698 -0.8661
30.0200 19.9832 -0.8665
30.0400 19.9965 -0.8693
30.0600 20.0098 -0.8661
30.0800 20.0231 -0.8675
30.1000 20.0364 -0.8706
30.1200 20.0497 -0.8661
30.1400 20.0631 -0.8700
30.1600 20.0765 -0.8752
30.1800 20.0898 -0.8710
30.2000 20.1031 -0.8699
30.2200 20.1164 -0.8776
30.2400 20.1298 -0.8752
30.2600 20.1431 -0.8757
30.2800 20.1564 -0.8785
30.3000 20.1698 -0.8748
30.3200 20.1831 -0.8806
30.3400 20.1965 -0.8817
30.3600 20.2098 -0.8849
30.3800 20.2231 -0.8794
30.4000 20.2365 -0.8859
30.4200 20.2498 -0.8360
30.4400 20.2632 -0.7300
30.4600 20.2765 -0.6214
30.4800 20.2898 -0.5077
30.5000 20.3031 -0.4000
30.5200 20.3164 -0.3042
30.5400 20.3297 -0.2195
30.5600 20.3430 -0.1354
30.5800 20.3564 -0.0586
30.6000 20.3697 -0.0270
30.6200 20.3831 0.0088
30.6400 20.3964 0.0580
30.6600 20.4098 0.1089
30.6800 20.4232 0.1559
30.7000 20.4365 0.2015
30.7200 20.4498 0.2371
30.7400 20.4631 0.2723
30.7600 20.4765 0.3402
30.7800 20.4898 0.3702
30.8000 20.5031 0.3924
30.8200 20.5164 0.4628
30.8400 20.5297 0.4840
30.8600 20.5431 0.4632
30.8800 20.5564 0.4826
30.9000 20.5697 0.4838
30.9200 20.5830 0.4580
30.9400 20.5964 0.4736
30.9600 20.6097 0.4766
30.9800 20.6231 0.4635
31.0000 20.6364 0.4837
31.0200 20.6497 0.4782
31.0400 20.6631 0.4618
31.0600 20.6765 0.4784
31.0800 20.6898 0.4818
31.1000 20.7031 0.4686
31.1200 20.7165 0.4792
31.1400 20.7298 0.4774
31.1600 20.7431 0.4734
31.1800 20.7564 0.4783
31.2000 20.7697 0.4736
31.2200 20.7831 0.4784
31.2400 20.7964 0.4757
31.2600 20.8097 0.4656
31.2800 20.8231 0.4783
31.3000 20.8364 0.4746
31.3200 20.8498 0.4674
31.3400 20.8631 0.4748
31.3600 20.8765 0.4768
31.3800 20.8898 0.4636
31.4000 20.9032 0.4710
31.4200 20.9165 0.4712
31.4400 20.9298 0.4593
31.4600 20.9431 0.4754
31.4800 20.9564 0.4665
31.5000 20.9698 0.4535
31.5200 20.9831 0.4744
31.5400 20.9965 0.4626
31.5600 21.0098 0.4532
31.5800 21.0232 0.4740
31.6000 21.0365 0.4584
31.6200 21.0498 0.4488
31.6400 21.0631 0.4668
31.6600 21.0764 0.4591
31.6800 21.0898 0.4500
31.7000 21.1031 0.4633
31.7200 21.1164 0.4491
31.7400 21.1297 0.4444
31.7600 21.1431 0.4620
31.7800 21.1565 0.4538
31.8000 21.1698 0.4414
31.8200 21.1831 0.4565
31.8400 21.1965 0.4558
31.8600 21.2098 0.4484
31.8800 21.2232 0.4536
31.9000 21.2365 0.4503
31.9200 21.2498 0.4500
31.9400 21.2631 0.4490
31.9600 21.2764 0.4495
31.9800 21.2898 0.4498
32.0000 21.3031 0.4458
32.0200 21.3164 0.4520
32.0400 21.3297 0.4440
32.0600 21.3431 0.4454
32.0800 21.3564 0.4480
32.1000 21.3698 0.4396
32.1200 21.3831 0.4462
32.1400 21.3965 0.4455
32.1600 21.4098 0.4414
32.1800 21.4231 0.4403
32.2000 21.4365 0.4468
32.2200 21.4498 0.4384
32.2400 21.4631 0.4422
32.2600 21.4764 0.4441
32.2800 21.4898 0.4349
32.3000 21.5031 0.4442
32.3200 21.5164 0.4371
32.3400 21.5297 0.4339
32.3600 21.5430 0.4440
32.3800 21.5564 0.4344
32.4000 21.5698 0.4388
32.4200 21.5831 0.4420
32.4400 21.5964 0.4297
32.4600 21.6098 0.4346
32.4800 21.6231 0.4402
32.5000 21.6365 0.4311
32.5200 21.6498 0.4337
32.5400 21.6631 0.4384
32.5600 21.6765 0.4313
32.5800 21.6899 0.4351
32.6000 21.7032 0.4322
32.6200 21.7165 0.4342
32.6400 21.7298 0.4390
32.6600 21.7431 0.4258
32.6800 21.7565 0.4272
32.7000 21.7697 0.4339
32.7200 21.7830 0.4244
32.7400 21.7964 0.4307
32.7600 21.8097 0.4305
32.7800 21.8231 0.4258
32.8000 21.8364 0.4310
32.8200 21.8498 0.4248
32.8400 21.8631 0.4251
32.8600 21.8765 0.4242
32.8800 21.8898 0.4237
32.9000 21.9031 0.4251
32.9200 21.9165 0.4222
32.9400 21.9298 0.4215
32.9600 21.9432 0.4248
32.9800 21.9565 0.4199
33.0000 21.9698 0.4223
33.0200 21.9831 0.4260
33.0400 21.9965 0.4160
33.0600 22.0098 0.4213
33.0800 22.0231 0.4176
33.1000 22.0364 0.4151
33.1200 22.0498 0.4208
33.1400 22.0631 0.4134
33.1600 22.0764 0.4127
33.1800 22.0898 0.4208
33.2000 22.1031 0.4089
33.2200 22.1165 0.4116
33.2400 22.1298 0.4161
33.2600 22.1431 0.4060
33.2800 22.1565 0.4131
33.3000 22.1698 0.4126
33.3200 22.1832 0.4036
33.3400 22.1964 0.4148
33.3600 22.2097 0.4109
33.3800 22.2231 0.4029
33.4000 22.2364 0.4119
33.4200 22.2498 0.4051
33.4400 22.2631 0.4012
33.4600 22.2764 0.4095
33.4800 22.2898 0.4069
33.5000 22.3031 0.3974
33.5200 22.3164 0.4108
33.5400 22.3298 0.4102
33.5600 22.3431 0.3953
33.5800 22.3564 0.4075
33.6000 22.3698 0.4048
33.6200 22.3831 0.3948
33.6400 22.3964 0.4030
33.6600 22.4098 0.4054
33.6800 22.4232 0.3920
33.7000 22.4365 0.4014
33.7200 22.4498 0.4011
33.7400 22.4632 0.3955
33.7600 22.4765 0.4046
33.7800 22.4898 0.4002
33.8000 22.5031 0.3943
33.8200 22.5164 0.4008
33.8400 22.5297 0.3980
33.8600 22.5430 0.3934
33.8800 22.5564 0.4023
33.9000 22.5697 0.3924
33.9200 22.5831 0.3910
33.9400 22.5965 0.3995
33.9600 22.6099 0.3893
33.9800 22.6232 0.3945
34.0000 22.6365 0.3960
34.0200 22.6499 0.3859
34.0400 22.6632 0.3923
34.0600 22.6765 0.3925
34.0800 22.6898 0.3904
34.1000 22.7031 0.3878
34.1200 22.7164 0.3901
34.1400 22.7297 0.3884
34.1600 22.7430 0.3883
34.1800 22.7563 0.3850
34.2000 22.7697 0.3861
34.2200 22.7831 0.3874
34.2400 22.7964 0.3851
34.2600 22.8097 0.3894
34.2800 22.8231 0.3867
34.3000 22.8365 0.3823
34.3200 22.8499 0.3871
34.3400 22.8632 0.3840
34.3600 22.8765 0.3823
34.3800 22.8898 0.3866
34.4000 22.9032 0.3841
34.4200 22.9165 0.3788
34.4400 22.9298 0.3846
34.4600 22.9431 0.3825
34.4800 22.9564 0.3768
34.5000 22.9698 0.3878
34.5200 22.9831 0.3775
34.5400 22.9964 0.3706
34.5600 23.0097 0.3852
34.5800 23.0231 0.3779
34.6000 23.0364 0.3701
34.6200 23.0497 0.3852
34.6400 23.0631 0.3740
34.6600 23.0764 0.3721
34.6800 23.0898 0.3816
34.7000 23.1031 0.3703
34.7200 23.1165 0.3712
34.7400 23.1298 0.3740
34.7600 23.1432 0.3652
34.7800 23.1565 0.3740
34.8000 23.1698 0.3744
34.8200 23.1831 0.3632
34.8400 23.1965 0.3744
34.8600 23.2098 0.3691
34.8800 23.2231 0.3602
34.9000 23.2364 0.3786
34.9200 23.2497 0.3630
34.9400 23.2631 0.3593
34.9600 23.2764 0.3752
34.9800 23.2898 0.3602
35.0000 23.3031 0.3629
35.0200 23.3165 0.3700
35.0400 23.3298 0.3564
35.0600 23.3431 0.3630
35.0800 23.3565 0.3661
35.1000 23.3698 0.3551
35.1200 23.3832 0.3636
35.1400 23.3965 0.3591
35.1600 23.4098 0.3585
35.1800 23.4231 0.3655
35.2000 23.4365 0.3519
35.2200 23.4498 0.3550
35.2400 23.4631 0.3641
35.2600 23.4764 0.3475
35.2800 23.4897 0.3553
35.3000 23.5031 0.3611
35.3200 23.5164 0.3462
35.3400 23.5297 0.3591
35.3600 23.5431 0.3561
35.3800 23.5565 0.3465
35.4000 23.5698 0.3584
35.4200 23.5832 0.3529
35.4400 23.5965 0.3522
35.4600 23.6098 0.3556
35.4800 23.6232 0.3484
35.5000 23.6365 0.3504
35.5200 23.6498 0.3577
35.5400 23.6631 0.3467
35.5600 23.6764 0.3508
35.5800 23.6898 0.3562
35.6000 23.7031 0.3451
35.6200 23.7164 0.3522
35.6400 23.7297 0.3526
35.6600 23.7431 0.3422
35.6800 23.7564 0.3502
35.7000 23.7697 0.3495
35.7200 23.7831 0.3422
35.7400 23.7965 0.3460
35.7600 23.8098 0.3451
35.7800 23.8232 0.3446
35.8000 23.8365 0.3463
35.8200 23.8498 0.3421
35.8400 23.8632 0.3435
35.8600 23.8765 0.3496
35.8800 23.8898 0.3393
35.9000 23.9031 0.3462
35.9200 23.9165 0.3446
35.9400 23.9298 0.3349
35.9600 23.9431 0.3429
35.9800 23.9564 0.3425
36.0000 23.9697 0.3337
36.0200 23.9830 0.3421
36.0400 23.9964 0.3374
36.0600 24.0097 0.3324
36.0800 24.0231 0.3422
36.1000 24.0365 0.3368
36.1200 24.0499 0.3282
36.1400 24.0632 0.3392
36.1600 24.0765 0.3282
36.1800 24.0899 0.3328
36.2000 24.1032 0.3367
36.2200 24.1165 0.3253
36.2400 24.1297 0.3361
36.2600 24.1430 0.3352
36.2800 24.1564 0.3235
36.3000 24.1697 0.3298
36.3200 24.1831 0.3303
36.3400 24.1964 0.3272
36.3600 24.2097 0.3284
36.3800 24.2231 0.3287
36.4000 24.2364 0.3203
36.4200 24.2498 0.3316
36.4400 24.2631 0.3281
36.4600 24.2765 0.3165
36.4800 24.2899 0.3351
36.5000 24.3032 0.3169
36.5200 24.3165 0.3190
36.5400 24.3298 0.3330
36.5600 24.3432 0.3141
36.5800 24.3565 0.3235
36.6000 24.3698 0.3299
36.6200 24.3831 0.3124
36.6400 24.3964 0.3225
36.6600 24.4098 0.3262
36.6800 24.4231 0.3143
36.7000 24.4364 0.3215
36.7200 24.4497 0.3298
36.7400 24.4631 0.3090
36.7600 24.4764 0.3234
36.7800 24.4898 0.3271
36.8000 24.5031 0.3145
36.8200 24.5165 0.3200
36.8400 24.5298 0.3219
36.8600 24.5432 0.3135
36.8800 24.5565 0.3231
36.9000 24.5698 0.3191
36.9200 24.5832 0.3173
36.9400 24.5965 0.3176
36.9600 24.6098 0.3167
36.9800 24.6231 0.3238
37.0000 24.6364 0.3161
37.0200 24.6498 0.3158
37.0400 24.6631 0.3201
37.0600 24.6764 0.3143
37.0800 24.6897 0.3159
37.1000 24.7031 0.3242
37.1200 24.7164 0.3093
37.1400 24.7297 0.3141
37.1600 24.7431 0.3192
37.1800 24.7565 0.3066
37.2000 24.7698 0.3145
37.2200 24.7832 0.3169
37.2400 24.7965 0.3047
37.2600 24.8098 0.3128
37.2800 24.8232 0.3141
37.3000 24.8365 0.3026
37.3200 24.8498 0.3129
37.3400 24.8631 0.3132
37.3600 24.8764 0.2960
37.3800 24.8898 0.3074
37.4000 24.9031 0.3086
37.4200 24.9164 0.2985
37.4400 24.9297 0.3075
37.4600 24.9431 0.3046
37.4800 24.9564 0.2967
37.5000 24.9697 0.3066
37.5200 24.9831 0.3024
37.5400 24.9964 0.2993
37.5600 25.0098 0.3040
37.5800 25.0231 0.2995
37.6000 25.0364 0.3000
37.6200 25.0498 0.3000
37.6400 25.0632 0.2991
37.6600 25.0765 0.2950
37.6800 25.0898 0.2975
37.7000 25.1031 0.3019
37.7200 25.1164 0.3009
37.7400 25.1298 0.2951
37.7600 25.1431 0.2978
37.7800 25.1564 0.2972
37.8000 25.1697 0.2935
37.8200 25.1830 0.2976
37.8400 25.1964 0.2953
37.8600 25.2097 0.2912
37.8800 25.2231 0.3002
37.9000 25.2365 0.2913
37.9200 25.2499 0.2889
37.9400 25.2632 0.2957
37.9600 25.2765 0.2961
37.9800 25.2898 0.2827
38.0000 25.3032 0.2962
38.0200 25.3165 0.2885
38.0400 25.3298 0.2871
38.0600 25.3431 0.2912
38.0800 25.3564 0.2860
38.1000 25.3698 0.2865
38.1200 25.3831 0.2908
38.1400 25.3964 0.2849
38.1600 25.4097 0.2852
38.1800 25.4230 0.2835
38.2000 25.4364 0.2784
38.2200 25.4497 0.2855
38.2400 25.4631 0.2870
38.2600 25.4764 0.2772
38.2800 25.4898 0.2840
38.3000 25.5032 0.2845
38.3200 25.5165 0.2723
38.3400 25.5298 0.2846
38.3600 25.5432 0.2796
38.3800 25.5565 0.2719
38.4000 25.5698 0.2856
38.4200 25.5831 0.2793
38.4400 25.5964 0.2741
38.4600 25.6097 0.2776
38.4800 25.6231 0.2756
38.5000 25.6364 0.2753
38.5200 25.6497 0.2754
38.5400 25.6631 0.2727
38.5600 25.6765 0.2713
38.5800 25.6898 0.2748
38.6000 25.7031 0.2682
38.6200 25.7164 0.2744
38.6400 25.7298 0.2684
38.6600 25.7431 0.2719
38.6800 25.7564 0.2729
38.7000 25.7698 0.2701
38.7200 25.7831 0.2737
38.7400 25.7965 0.2726
38.7600 25.8098 0.2677
38.7800 25.8231 0.2673
38.8000 25.8365 0.2716
38.8200 25.8498 0.2744
38.8400 25.8631 0.2649
38.8600 25.8764 0.2726
38.8800 25.8897 0.2717
38.9000 25.9031 0.2621
38.9200 25.9164 0.2661
38.9400 25.9297 0.2726
38.9600 25.9431 0.2642
38.9800 25.9564 0.2711
39.0000 25.9698 0.2660
39.0200 25.9831 0.2645
39.0400 25.9965 0.2701
39.0600 26.0098 0.2646
39.0800 26.0231 0.2655
39.1000 26.0365 0.2687
39.1200 26.0498 0.2645
39.1400 26.0631 0.2633
39.1600 26.0765 0.2704
39.1800 26.0898 0.2601
39.2000 26.1031 0.2631
39.2200 26.1164 0.2696
39.2400 26.1297 0.2634
39.2600 26.1430 0.2628
39.2800 26.1564 0.2670
39.3000 26.1697 0.2568
39.3200 26.1831 0.2606
39.3400 26.1964 0.2633
39.3600 26.2098 0.2566
39.3800 26.2232 0.2594
39.4000 26.2365 0.2628
39.4200 26.2498 0.2554
39.4400 26.2632 0.2602
39.4600 26.2765 0.2565
39.4800 26.2898 0.2560
39.5000 26.3031 0.2585
39.5200 26.3164 0.2553
39.5400 26.3298 0.2571
39.5600 26.3431 0.2555
39.5800 26.3564 0.2545
39.6000 26.3697 0.2565
39.6200 26.3831 0.2531
39.6400 26.3965 0.2528
39.6600 26.4098 0.2543
39.6800 26.4231 0.2495
39.7000 26.4364 0.2553
39.7200 26.4498 0.2547
39.7400 26.4631 0.2424
39.7600 26.4765 0.2555
39.7800 26.4898 0.2507
39.8000 26.5032 0.2477
39.8200 26.5165 0.2570
39.8400 26.5298 0.2433
39.8600 26.5431 0.2475
39.8800 26.5564 0.2562
39.9000 26.5698 0.2447
39.9200 26.5831 0.2418
39.9400 26.5964 0.2514
39.9600 26.6097 0.2429
39.9800 26.6230 0.2471
40.0000 26.6364 0.2465
40.0200 26.6497 0.2424
40.0400 26.6631 0.2481
40.0600 26.6764 0.2418
40.0800 26.6898 0.2432
40.1000 26.7032 0.2443
40.1200 26.7165 0.2373
40.1400 26.7298 0.2446
40.1600 26.7431 0.2432
40.1800 26.7565 0.2372
40.2000 26.7698 0.2438
40.2200 26.7831 0.2473
40.2400 26.7964 0.2345
40.2600 26.8098 0.2498
40.2800 26.8231 0.2396
40.3000 26.8364 0.2306
40.3200 26.8497 0.2511
40.3400 26.8631 0.2330
40.3600 26.8764 0.2355
40.3800 26.8897 0.2477
40.4000 26.9031 0.2329
40.4200 26.9164 0.2356
40.4400 26.9298 0.2460
40.4600 26.9432 0.2315
40.4800 26.9565 0.2320
40.5000 26.9698 0.2472
40.5200 26.9831 0.2297
40.5400 26.9965 0.2301
40.5600 27.0098 0.2444
40.5800 27.0231 0.2275
40.6000 27.0364 0.2328
40.6200 27.0498 0.2413
40.6400 27.0631 0.2229
40.6600 27.0764 0.2317
40.6800 27.0897 0.2428
40.7000 27.1031 0.2211
40.7200 27.1164 0.2332
40.7400 27.1298 0.2372
40.7600 27.1431 0.2144
40.7800 27.1564 0.2333
40.8000 27.1698 0.2371
40.8200 27.1831 0.2124
40.8400 27.1964 0.2327
40.8600 27.2097 0.2333
40.8800 27.2231 0.2140
40.9000 27.2365 0.2274
40.9200 27.2498 0.2344
40.9400 27.2631 0.2129
40.9600 27.2765 0.2240
40.9800 27.2898 0.2282
41.0000 27.3032 0.2142
41.0200 27.3165 0.2257
41.0400 27.3298 0.2235
41.0600 27.3431 0.2131
41.0800 27.3564 0.2268
41.1000 27.3697 0.2183
41.1200 27.3830 0.2115
41.1400 27.3964 0.2278
41.1600 27.4098 0.2176
41.1800 27.4232 0.2088
41.2000 27.4365 0.2205
41.2200 27.4498 0.2167
41.2400 27.4632 0.2090
41.2600 27.4765 0.2189
41.2800 27.4898 0.2189
41.3000 27.5031 0.2086
41.3200 27.5164 0.2194
41.3400 27.5298 0.2181
41.3600 27.5431 0.2038
41.3800 27.5564 0.2185
41.4000 27.5697 0.2160
41.4200 27.5830 0.2069
41.4400 27.5964 0.2171
41.4600 27.6097 0.2179
41.4800 27.6231 0.2005
41.5000 27.6364 0.2158
41.5200 27.6498 0.2145
41.5400 27.6632 0.2029
41.5600 27.6765 0.2176
41.5800 27.6898 0.2119
41.6000 27.7031 0.2043
41.6200 27.7165 0.2197
41.6400 27.7298 0.2075
41.6600 27.7431 0.2095
41.6800 27.7564 0.2179
41.7000 27.7698 0.2066
41.7200 27.7831 0.2006
41.7400 27.7964 0.2234
41.7600 27.8097 0.2004
41.7800 27.8230 0.2029
41.8000 27.8364 0.2154
41.8200 27.8498 0.1991
41.8400 27.8631 0.2031
41.8600 27.8764 0.2115
41.8800 27.8898 0.2021
41.9000 27.9032 0.2003
41.9200 27.9165 0.2060
41.9400 27.9298 0.2005
41.9600 27.9431 0.1995
41.9800 27.9565 0.2061
42.0000 27.9698 0.2015
42.0200 27.9831 0.1980
42.0400 27.9965 0.2071
42.0600 28.0098 0.1994
42.0800 28.0231 0.2016
42.1000 28.0364 0.2000
42.1200 28.0497 0.2006
42.1400 28.0630 0.1980
42.1600 28.0764 0.2028
42.1800 28.0897 0.2002
42.2000 28.1031 0.1953
42.2200 28.1164 0.1993
42.2400 28.1298 0.1976
42.2600 28.1432 0.1927
42.2800 28.1565 0.1984
42.3000 28.1698 0.2016
42.3200 28.1831 0.1934
42.3400 28.1965 0.1960
42.3600 28.2098 0.2011
42.3800 28.2231 0.1870
42.4000 28.2364 0.1969
42.4200 28.2497 0.1964
42.4400 28.2631 0.1876
42.4600 28.2764 0.1977
42.4800 28.2897 0.1920
42.5000 28.3031 0.1890
42.5200 28.3164 0.1963
42.5400 28.3298 0.1878
42.5600 28.3431 0.1853
42.5800 28.3564 0.1965
42.6000 28.3698 0.1829
42.6200 28.3831 0.1844
42.6400 28.3965 0.1928
42.6600 28.4098 0.1829
42.6800 28.4231 0.1861
42.7000 28.4365 0.1922
42.7200 28.4499 0.1861
42.7400 28.4632 0.1833
42.7600 28.4765 0.1896
42.7800 28.4898 0.1875
42.8000 28.5031 0.1816
42.8200 28.5164 0.1863
42.8400 28.5297 0.1842
42.8600 28.5431 0.1870
42.8800 28.5564 0.1819
42.9000 28.5697 0.1812
42.9200 28.5831 0.1812
42.9400 28.5964 0.1809
42.9600 28.6098 0.1815
42.9800 28.6231 0.1810
43.0000 28.6365 0.1743
43.0200 28.6498 0.1832
43.0400 28.6631 0.1871
43.0600 28.6765 0.1700
43.0800 28.6898 0.1819
43.1000 28.7031 0.1786
43.1200 28.7164 0.1694
43.1400 28.7298 0.1803
43.1600 28.7431 0.1776
43.1800 28.7564 0.1718
43.2000 28.7697 0.1827
43.2200 28.7830 0.1744
43.2400 28.7964 0.1709
43.2600 28.8097 0.1819
43.2800 28.8230 0.1701
43.3000 28.8364 0.1727
43.3200 28.8498 0.1784
43.3400 28.8632 0.1698
43.3600 28.8765 0.1735
43.3800 28.8899 0.1770
43.4000 28.9032 0.1687
43.4200 28.9165 0.1738
43.4400 28.9299 0.1772
43.4600 28.9431 0.1656
43.4800 28.9564 0.1748
43.5000 28.9697 0.1729
43.5200 28.9831 0.1709
43.5400 28.9964 0.1698
43.5600 29.0097 0.1718
43.5800 29.0231 0.1687
43.6000 29.0364 0.1721
43.6200 29.0498 0.1650
43.6400 29.0631 0.1675
43.6600 29.0765 0.1711
43.6800 29.0898 0.1613
43.7000 29.1032 0.1653
43.7200 29.1165 0.1650
43.7400 29.1298 0.1619
43.7600 29.1431 0.1731
43.7800 29.1565 0.1619
43.8000 29.1698 0.1625
43.8200 29.1831 0.1726
43.8400 29.1964 0.1659
43.8600 29.2097 0.1535
43.8800 29.2231 0.1698
43.9000 29.2364 0.1645
43.9200 29.2497 0.1579
43.9400 29.2631 0.1716
43.9600 29.2764 0.1554
43.9800 29.2898 0.1618
44.0000 29.3031 0.1676
44.0200 29.3164 0.1518
44.0400 29.3298 0.1658
44.0600 29.3432 0.1659
44.0800 29.3565 0.1538
44.1000 29.3698 0.1601
44.1200 29.3831 0.1613
44.1400 29.3965 0.1543
44.1600 29.4098 0.1566
44.1800 29.4232 0.1616
44.2000 29.4364 0.1542
44.2200 29.4497 0.1615
44.2400 29.4631 0.1564
44.2600 29.4764 0.1564
44.2800 29.4897 0.1552
44.3000 29.5030 0.1580
44.3200 29.5164 0.1530
44.3400 29.5297 0.1496
44.3600 29.5431 0.1609
44.3800 29.5564 0.1531
44.4000 29.5698 0.1465
44.4200 29.5831 0.1546
44.4400 29.5965 0.1525
44.4600 29.6098 0.1493
44.4800 29.6231 0.1565
44.5000 29.6365 0.1509
44.5200 29.6498 0.1474
44.5400 29.6631 0.1541
44.5600 29.6764 0.1506
44.5800 29.6897 0.1463
44.6000 29.7031 0.1494
44.6200 29.7164 0.1486
44.6400 29.7298 0.1434
44.6600 29.7431 0.1520
44.6800 29.7564 0.1486
44.7000 29.7698 0.1410
44.7200 29.7831 0.1467
44.7400 29.7964 0.1492
44.7600 29.8098 0.1412
44.7800 29.8231 0.1496
44.8000 29.8365 0.1491
44.8200 29.8498 0.1414
44.8400 29.8631 0.1502
44.8600 29.8765 0.1440
44.8800 29.8899 0.1411
44.9000 29.9032 0.1501
44.9200 29.9165 0.1447
44.9400 29.9298 0.1396
44.9600 29.9431 0.1494
44.9800 29.9564 0.1431
45.0000 29.9697 0.1340
45.0200 29.9831 0.1488
45.0400 29.9964 0.1413
45.0600 30.0097 0.1281
45.0800 30.0231 0.1476
45.1000 30.0364 0.1368
45.1200 30.0498 0.1298
45.1400 30.0632 0.1459
45.1600 30.0765 0.1337
45.1800 30.0898 0.1275
45.2000 30.1031 0.1462
45.2200 30.1164 0.1360
45.2400 30.1298 0.1284
45.2600 30.1431 0.1383
45.2800 30.1564 0.1303
45.3000 30.1697 0.1249
45.3200 30.1831 0.1430
45.3400 30.1964 0.1277
45.3600 30.2097 0.1252
45.3800 30.2230 0.1400
45.4000 30.2364 0.1306
45.4200 30.2497 0.1273
45.4400 30.2631 0.1348
45.4600 30.2764 0.1324
45.4800 30.2898 0.1276
45.5000 30.3031 0.1318
45.5200 30.3165 0.1306
45.5400 30.3298 0.1271
45.5600 30.3432 0.1334
45.5800 30.3565 0.1298
45.6000 30.3698 0.1261
45.6200 30.3831 0.1343
45.6400 30.3964 0.1294
45.6600 30.4097 0.1262
45.6800 30.4230 0.1362
45.7000 30.4364 0.1316
45.7200 30.4497 0.1231
45.7400 30.4631 0.1348
45.7600 30.4764 0.1273
45.7800 30.4898 0.1243
45.8000 30.5031 0.1337
45.8200 30.5165 0.1254
45.8400 30.5298 0.1271
45.8600 30.5431 0.1337
45.8800 30.5565 0.1226
45.9000 30.5698 0.1272
45.9200 30.5831 0.1326
45.9400 30.5964 0.1208
45.9600 30.6098 0.1262
45.9800 30.6231 0.1339
46.0000 30.6365 0.1209
46.0200 30.6498 0.1261
46.0400 30.6631 0.1326
46.0600 30.6765 0.1171
46.0800 30.6898 0.1238
46.1000 30.7031 0.1311
46.1200 30.7164 0.1136
46.1400 30.7298 0.1240
46.1600 30.7431 0.1304
46.1800 30.7564 0.1129
46.2000 30.7697 0.1289
46.2200 30.7831 0.1277
46.2400 30.7965 0.1133
46.2600 30.8098 0.1211
46.2800 30.8231 0.1250
46.3000 30.8365 0.1156
46.3200 30.8498 0.1212
46.3400 30.8632 0.1225
46.3600 30.8765 0.1150
46.3800 30.8898 0.1202
46.4000 30.9031 0.1201
46.4200 30.9165 0.1136
46.4400 30.9298 0.1214
46.4600 30.9431 0.1176
46.4800 30.9564 0.1144
46.5000 30.9697 0.1205
46.5200 30.9831 0.1182
46.5400 30.9964 0.1112
46.5600 31.0098 0.1149
46.5800 31.0231 0.1140
46.6000 31.0365 0.1134
46.6200 31.0498 0.1177
46.6400 31.0631 0.1148
46.6600 31.0765 0.1120
46.6800 31.0898 0.1123
46.7000 31.1031 0.1120
46.7200 31.1165 0.1144
46.7400 31.1298 0.1048
46.7600 31.1431 0.1159
46.7800 31.1565 0.1105
46.8000 31.1698 0.1040
46.8200 31.1831 0.1112
46.8400 31.1964 0.1084
46.8600 31.2098 0.1032
46.8800 31.2231 0.1052
46.9000 31.2364 0.1098
46.9200 31.2498 0.1066
46.9400 31.2631 0.1046
46.9600 31.2765 0.1071
46.9800 31.2898 0.1051
47.0000 31.3031 0.1040
47.0200 31.3165 0.1062
47.0400 31.3298 0.1007
47.0600 31.3432 0.1017
47.0800 31.3565 0.1073
47.1000 31.3698 0.1041
47.1200 31.3831 0.0996
47.1400 31.3965 0.1089
47.1600 31.4098 0.0968
47.1800 31.4230 0.1032
47.2000 31.4364 0.1039
47.2200 31.4497 0.0955
47.2400 31.4631 0.1020
47.2600 31.4764 0.0976
47.2800 31.4898 0.0974
47.3000 31.5031 0.1019
47.3200 31.5165 0.0949
47.3400 31.5298 0.0972
47.3600 31.5431 0.0998
47.3800 31.5564 0.0949
47.4000 31.5698 0.0949
47.4200 31.5831 0.0993
47.4400 31.5965 0.0944
47.4600 31.6098 0.0967
47.4800 31.6231 0.0998
47.5000 31.6364 0.0910
47.5200 31.6498 0.0960
47.5400 31.6631 0.0976
47.5600 31.6764 0.0897
47.5800 31.6897 0.0964
47.6000 31.7031 0.0933
47.6200 31.7164 0.0935
47.6400 31.7297 0.0981
47.6600 31.7431 0.0878
47.6800 31.7565 0.0938
47.7000 31.7698 0.0923
47.7200 31.7831 0.0881
47.7400 31.7965 0.0967
47.7600 31.8098 0.0966
47.7800 31.8232 0.0815
47.8000 31.8365 0.0947
47.8200 31.8498 0.0960
47.8400 31.8631 0.0833
47.8600 31.8764 0.0954
47.8800 31.8898 0.0902
47.9000 31.9031 0.0773
47.9200 31.9164 0.0940
47.9400 31.9298 0.0904
47.9600 31.9431 0.0788
47.9800 31.9564 0.0902
48.0000 31.9697 0.0843
48.0200 31.9831 0.0803
48.0400 31.9964 0.0889
48.0600 32.0098 0.0874
48.0800 32.0231 0.0797
48.1000 32.0364 0.0865
48.1200 32.0498 0.0861
48.1400 32.0631 0.0753
48.1600 32.0765 0.0924
48.1800 32.0898 0.0815
48.2000 32.1031 0.0784
48.2200 32.1165 0.0903
48.2400 32.1298 0.0813
48.2600 32.1431 0.0761
48.2800 32.1564 0.0871
48.3000 32.1697 0.0843
48.3200 32.1830 0.0740
48.3400 32.1964 0.0839
48.3600 32.2097 0.0861
48.3800 32.2231 0.0715
48.4000 32.2365 0.0814
48.4200 32.2498 0.0847
48.4400 32.2632 0.0726
48.4600 32.2765 0.0806
48.4800 32.2898 0.0809
48.5000 32.3032 0.0755
48.5200 32.3165 0.0742
48.5400 32.3298 0.0842
48.5600 32.3431 0.0747
48.5800 32.3564 0.0764
48.6000 32.3698 0.0793
48.6200 32.3831 0.0718
48.6400 32.3964 0.0809
48.6600 32.4097 0.0835
48.6800 32.4231 0.0674
48.7000 32.4364 0.0757
48.7200 32.4497 0.0858
48.7400 32.4631 0.0673
48.7600 32.4765 0.0700
48.7800 32.4899 0.0839
48.8000 32.5032 0.0653
48.8200 32.5165 0.0776
48.8400 32.5298 0.0785
48.8600 32.5432 0.0657
48.8800 32.5565 0.0753
48.9000 32.5698 0.0765
48.9200 32.5831 0.0674
48.9400 32.5964 0.0743
48.9600 32.6098 0.0730
48.9800 32.6231 0.0671
49.0000 32.6364 0.0772
49.0200 32.6497 0.0726
49.0400 32.6631 0.0674
49.0600 32.6764 0.0712
49.0800 32.6898 0.0703
49.1000 32.7031 0.0681
49.1200 32.7165 0.0685
49.1400 32.7298 0.0701
49.1600 32.7431 0.0636
49.1800 32.7565 0.0690
49.2000 32.7698 0.0683
49.2200 32.7832 0.0657
49.2400 32.7965 0.0650
49.2600 32.8098 0.0685
49.2800 32.8231 0.0647
49.3000 32.8365 0.0607
49.3200 32.8498 0.0703
49.3400 32.8631 0.0608
49.3600 32.8764 0.0663
49.3800 32.8897 0.0650
49.4000 32.9031 0.0638
49.4200 32.9164 0.0609
49.4400 32.9298 0.0696
49.4600 32.9431 0.0646
49.4800 32.9565 0.0615
49.5000 32.9699 0.0648
49.5200 32.9832 0.0624
49.5400 32.9965 0.0594
49.5600 33.0098 0.0663
49.5800 33.0231 0.0594
49.6000 33.0365 0.0619
49.6200 33.0498 0.0636
49.6400 33.0631 0.0617
49.6600 33.0764 0.0579
49.6800 33.0898 0.0607
49.7000 33.1031 0.0607
49.7200 33.1164 0.0529
49.7400 33.1297 0.0644
49.7600 33.1431 0.0633
49.7800 33.1564 0.0523
49.8000 33.1697 0.0622
49.8200 33.1831 0.0565
49.8400 33.1965 0.0534
49.8600 33.2098 0.0586
49.8800 33.2232 0.0513
49.9000 33.2365 0.0603
49.9200 33.2498 0.0602
49.9400 33.2632 0.0526
49.9600 33.2765 0.0514
49.9800 33.2898 0.0585
50.0000 33.3031 0.0480
50.0200 33.3165 0.0486
50.0400 33.3298 0.0578
50.0600 33.3431 0.0528
50.0800 33.3564 0.0489
50.1000 33.3697 0.0545
50.1200 33.3831 0.0513
50.1400 33.3964 0.0493
50.1600 33.4098 0.0509
50.1800 33.4231 0.0473
50.2000 33.4364 0.0447
50.2200 33.4498 0.0537
50.2400 33.4631 0.0464
50.2600 33.4764 0.0450
50.2800 33.4898 0.0520
50.3000 33.5032 0.0472
50.3200 33.5165 0.0426
50.3400 33.5298 0.0490
50.3600 33.5431 0.0474
50.3800 33.5565 0.0403
50.4000 33.5698 0.0455
50.4200 33.5831 0.0492
50.4400 33.5964 0.0410
50.4600 33.6097 0.0483
50.4800 33.6231 0.0461
50.5000 33.6364 0.0399
50.5200 33.6497 0.0451
50.5400 33.6631 0.0485
50.5600 33.6765 0.0367
50.5800 33.6899 0.0470
50.6000 33.7032 0.0454
50.6200 33.7165 0.0369
50.6400 33.7298 0.0486
50.6600 33.7432 0.0441
50.6800 33.7565 0.0321
50.7000 33.7698 0.0465
50.7200 33.7831 0.0442
50.7400 33.7964 0.0317
50.7600 33.8097 0.0455
50.7800 33.8231 0.0398
50.8000 33.8364 0.0339
50.8200 33.8498 0.0427
50.8400 33.8631 0.0394
50.8600 33.8765 0.0307
50.8800 33.8898 0.0434
50.9000 33.9031 0.0355
50.9200 33.9165 0.0344
50.9400 33.9299 0.0377
50.9600 33.9432 0.0399
50.9800 33.9564 0.0337
51.0000 33.9698 0.0373
51.0200 33.9831 0.0402
51.0400 33.9964 0.0298
51.0600 34.0098 0.0350
51.0800 34.0231 0.0350
51.1000 34.0364 0.0332
51.1200 34.0498 0.0330
51.1400 34.0631 0.0343
51.1600 34.0764 0.0269
51.1800 34.0897 0.0295
51.2000 34.1031 0.0373
51.2200 34.1164 0.0266
51.2400 34.1298 0.0325
51.2600 34.1431 0.0370
51.2800 34.1565 0.0275
51.3000 34.1699 0.0303
51.3200 34.1832 0.0314
51.3400 34.1965 0.0248
51.3600 34.2098 0.0285
51.3800 34.2232 0.0297
51.4000 34.2365 0.0215
51.4200 34.2498 0.0315
51.4400 34.2631 0.0319
51.4600 34.2764 0.0213
51.4800 34.2898 0.0265
51.5000 34.3031 0.0318
51.5200 34.3164 0.0216
51.5400 34.3297 0.0279
51.5600 34.3431 0.0315
51.5800 34.3564 0.0210
51.6000 34.3698 0.0212
51.6200 34.3831 0.0324
51.6400 34.3965 0.0213
51.6600 34.4098 0.0255
51.6800 34.4232 0.0245
51.7000 34.4365 0.0181
51.7200 34.4498 0.0224
51.7400 34.4632 0.0264
51.7600 34.4765 0.0194
51.7800 34.4898 0.0167
51.8000 34.5031 0.0265
51.8200 34.5164 0.0183
51.8400 34.5298 0.0173
51.8600 34.5431 0.0244
51.8800 34.5564 0.0179
51.9000 34.5697 0.0158
51.9200 34.5831 0.0230
51.9400 34.5964 0.0172
51.9600 34.6098 0.0174
51.9800 34.6231 0.0181
52.0000 34.6364 0.0167
52.0200 34.6498 0.0144
52.0400 34.6631 0.0152
52.0600 34.6764 0.0165
52.0800 34.6898 0.0165
52.1000 34.7032 0.0156
52.1200 34.7165 0.0126
52.1400 34.7298 0.0188
52.1600 34.7431 0.0146
52.1800 34.7564 0.0140
52.2000 34.7698 0.0176
52.2200 34.7831 0.0097
52.2400 34.7964 0.0158
52.2600 34.8097 0.0144
52.2800 34.8231 0.0149
52.3000 34.8364 0.0137
52.3200 34.8497 0.0108
52.3400 34.8631 0.0118
52.3600 34.8765 0.0153
52.3800 34.8898 0.0115
52.4000 34.9032 0.0089
52.4200 34.9165 0.0147
52.4400 34.9298 0.0102
52.4600 34.9431 0.0073
52.4800 34.9565 0.0176
52.5000 34.9698 0.0037
52.5200 34.9831 0.0122
52.5400 34.9964 0.0105
52.5600 35.0098 0.0069
52.5800 35.0231 0.0121
52.6000 35.0364 0.0066
52.6200 35.0497 0.0084
52.6400 35.0630 0.0104
52.6600 35.0764 0.0045
52.6800 35.0897 0.0042
52.7000 35.1031 0.0089
52.7200 35.1164 0.0007
52.7400 35.1298 0.0065
52.7600 35.1432 0.0010
52.7800 35.1565 0.0041
52.8000 35.1698 0.0110
52.8200 35.1831 -0.0034
52.8400 35.1965 0.0059
52.8600 35.2098 0.0091
52.8800 35.2231 -0.0046
52.9000 35.2364 0.0116
52.9200 35.2497 0.0025
52.9400 35.2631 -0.0025
52.9600 35.2764 0.0149
52.9800 35.2897 -0.0022
53.0000 35.3031 -0.0044
53.0200 35.3165 0.0109
53.0400 35.3298 -0.0059
53.0600 35.3431 0.0002
53.0800 35.3565 0.0090
53.1000 35.3698 -0.0106
53.1200 35.3832 -0.0002
53.1400 35.3965 0.0056
53.1600 35.4098 -0.0115
53.1800 35.4231 0.0030
53.2000 35.4365 -0.0018
53.2200 35.4498 -0.0124
53.2400 35.4631 0.0031
53.2600 35.4764 -0.0016
53.2800 35.4898 -0.0124
53.3000 35.5031 0.0064
53.3200 35.5164 -0.0070
53.3400 35.5297 -0.0105
53.3600 35.5430 0.0041
53.3800 35.5564 -0.0135
53.4000 35.5697 -0.0095
53.4200 35.5831 0.0008
53.4400 35.5964 -0.0155
53.4600 35.6098 -0.0103
53.4800 35.6232 0.0000
53.5000 35.6365 -0.0184
53.5200 35.6498 -0.0101
53.5400 35.6631 0.0000
53.5600 35.6765 -0.0147
53.5800 35.6898 -0.0148
53.6000 35.7031 -0.0076
53.6200 35.7165 -0.0115
53.6400 35.7298 -0.0125
53.6600 35.7431 -0.0135
53.6800 35.7564 -0.0090
53.7000 35.7697 -0.0125
53.7200 35.7830 -0.0154
53.7400 35.7964 -0.0152
53.7600 35.8097 -0.0144
53.7800 35.8231 -0.0164
53.8000 35.8364 -0.0114
53.8200 35.8498 -0.0164
53.8400 35.8632 -0.0231
53.8600 35.8765 -0.0096
53.8800 35.8898 -0.0197
53.9000 35.9032 -0.0192
53.9200 35.9165 -0.0118
53.9400 35.9298 -0.0228
53.9600 35.9431 -0.0155
53.9800 35.9564 -0.0135
54.0000 35.9698 -0.0214
54.0200 35.9831 -0.0138
54.0400 35.9964 -0.0136
54.0600 36.0097 -0.0213
54.0800 36.0231 -0.0150
54.1000 36.0364 -0.0191
54.1200 36.0498 -0.0255
54.1400 36.0631 -0.0143
54.1600 36.0764 -0.0192
54.1800 36.0898 -0.0227
54.2000 36.1031 -0.0205
54.2200 36.1165 -0.0192
54.2400 36.1298 -0.0214
54.2600 36.1432 -0.0194
54.2800 36.1565 -0.0225
54.3000 36.1698 -0.0236
54.3200 36.1831 -0.0214
54.3400 36.1964 -0.0208
54.3600 36.2098 -0.0216
54.3800 36.2231 -0.0247
54.4000 36.2364 -0.0282
54.4200 36.2497 -0.0243
54.4400 36.2631 -0.0258
54.4600 36.2764 -0.0263
54.4800 36.2898 -0.0244
54.5000 36.3031 -0.0244
54.5200 36.3164 -0.0301
54.5400 36.3298 -0.0253
54.5600 36.3432 -0.0268
54.5800 36.3565 -0.0343
54.6000 36.3698 -0.0269
54.6200 36.3831 -0.0336
54.6400 36.3965 -0.0355
54.6600 36.4098 -0.0294
54.6800 36.4231 -0.0265
54.7000 36.4364 -0.0348
54.7200 36.4498 -0.0320
54.7400 36.4631 -0.0303
54.7600 36.4764 -0.0415
54.7800 36.4897 -0.0287
54.8000 36.5031 -0.0317
54.8200 36.5164 -0.0437
54.8400 36.5298 -0.0294
54.8600 36.5431 -0.0393
54.8800 36.5564 -0.0390
54.9000 36.5698 -0.0299
54.9200 36.5832 -0.0413
54.9400 36.5965 -0.0369
54.9600 36.6098 -0.0332
54.9800 36.6231 -0.0451
55.0000 36.6365 -0.0346
55.0200 36.6498 -0.0392
55.0400 36.6631 -0.0466
55.0600 36.6764 -0.0335
55.0800 36.6897 -0.0363
55.1000 36.7031 -0.0486
55.1200 36.7164 -0.0352
55.1400 36.7297 -0.0390
55.1600 36.7430 -0.0476
55.1800 36.7564 -0.0352
55.2000 36.7697 -0.0422
55.2200 36.7831 -0.0447
55.2400 36.7964 -0.0366
55.2600 36.8098 -0.0425
55.2800 36.8231 -0.0455
55.3000 36.8365 -0.0438
55.3200 36.8498 -0.0480
55.3400 36.8631 -0.0437
55.3600 36.8765 -0.0468
55.3800 36.8898 -0.0473
55.4000 36.9031 -0.0401
55.4200 36.9165 -0.0509
55.4400 36.9298 -0.0413
55.4600 36.9432 -0.0416
55.4800 36.9565 -0.0544
55.5000 36.9697 -0.0391
55.5200 36.9830 -0.0455
55.5400 36.9964 -0.0565
55.5600 37.0097 -0.0349
55.5800 37.0230 -0.0476
55.6000 37.0364 -0.0588
55.6200 37.0498 -0.0414
55.6400 37.0632 -0.0492
55.6600 37.0765 -0.0589
55.6800 37.0898 -0.0424
55.7000 37.1032 -0.0547
55.7200 37.1165 -0.0580
55.7400 37.1299 -0.0427
55.7600 37.1432 -0.0575
55.7800 37.1564 -0.0535
55.8000 37.1698 -0.0466
55.8200 37.1831 -0.0592
55.8400 37.1964 -0.0542
55.8600 37.2097 -0.0477
55.8800 37.2230 -0.0593
55.9000 37.2364 -0.0526
55.9200 37.2497 -0.0515
55.9400 37.2631 -0.0618
55.9600 37.2764 -0.0535
55.9800 37.2898 -0.0559
56.0000 37.3031 -0.0619
56.0200 37.3165 -0.0495
56.0400 37.3298 -0.0616
56.0600 37.3432 -0.0591
56.0800 37.3565 -0.0539
56.1000 37.3699 -0.0644
56.1200 37.3832 -0.0541
56.1400 37.3964 -0.0585
56.1600 37.4097 -0.0639
56.1800 37.4231 -0.0546
56.2000 37.4364 -0.0644
56.2200 37.4497 -0.0617
56.2400 37.4631 -0.0542
56.2600 37.4764 -0.0706
56.2800 37.4898 -0.0589
56.3000 37.5031 -0.0591
56.3200 37.5164 -0.0772
56.3400 37.5298 -0.0539
56.3600 37.5431 -0.0593
56.3800 37.5565 -0.0787
56.4000 37.5698 -0.0587
56.4200 37.5831 -0.0600
56.4400 37.5965 -0.0767
56.4600 37.6098 -0.0597
56.4800 37.6231 -0.0619
56.5000 37.6365 -0.0759
56.5200 37.6498 -0.0573
56.5400 37.6631 -0.0672
56.5600 37.6764 -0.0781
56.5800 37.6897 -0.0580
56.6000 37.7030 -0.0651
56.6200 37.7164 -0.0741
56.6400 37.7297 -0.0634
56.6600 37.7431 -0.0694
56.6800 37.7564 -0.0725
56.7000 37.7698 -0.0611
56.7200 37.7832 -0.0712
56.7400 37.7965 -0.0752
56.7600 37.8098 -0.0574
56.7800 37.8231 -0.0720
56.8000 37.8365 -0.0736
56.8200 37.8498 -0.0569
56.8400 37.8631 -0.0754
56.8600 37.8764 -0.0737
56.8800 37.8897 -0.0570
56.9000 37.9031 -0.0772
56.9200 37.9164 -0.0778
56.9400 37.9298 -0.0632
56.9600 37.9431 -0.0772
56.9800 37.9564 -0.0808
57.0000 37.9697 -0.0652
57.0200 37.9831 -0.0788
57.0400 37.9964 -0.0809
57.0600 38.0098 -0.0673
57.0800 38.0232 -0.0821
57.1000 38.0365 -0.0823
57.1200 38.0498 -0.0701
57.1400 38.0631 -0.0814
57.1600 38.0765 -0.0817
57.1800 38.0899 -0.0735
57.2000 38.1032 -0.0844
57.2200 38.1164 -0.0813
57.2400 38.1297 -0.0739
57.2600 38.1431 -0.0872
57.2800 38.1564 -0.0876
57.3000 38.1698 -0.0724
57.3200 38.1831 -0.0886
57.3400 38.1964 -0.0868
57.3600 38.2097 -0.0774
57.3800 38.2231 -0.0900
57.4000 38.2364 -0.0872
57.4200 38.2498 -0.0780
57.4400 38.2631 -0.0931
57.4600 38.2765 -0.0830
57.4800 38.2898 -0.0826
57.5000 38.3031 -0.0934
57.5200 38.3165 -0.0862
57.5400 38.3298 -0.0881
57.5600 38.3432 -0.0924
57.5800 38.3565 -0.0867
57.6000 38.3698 -0.0881
57.6200 38.3831 -0.0922
57.6400 38.3964 -0.0935
57.6600 38.4097 -0.0917
57.6800 38.4230 -0.0870
57.7000 38.4364 -0.0960
57.7200 38.4497 -0.0927
57.7400 38.4630 -0.0857
57.7600 38.4764 -0.1023
57.7800 38.4898 -0.0898
57.8000 38.5031 -0.0898
57.8200 38.5165 -0.1053
57.8400 38.5299 -0.0889
57.8600 38.5432 -0.0946
57.8800 38.5565 -0.1036
57.9000 38.5699 -0.0883
57.9200 38.5831 -0.0958
57.9400 38.5964 -0.1041
57.9600 38.6097 -0.0849
57.9800 38.6231 -0.0950
58.0000 38.6364 -0.1030
58.0200 38.6497 -0.0906
58.0400 38.6631 -0.0977
58.0600 38.6764 -0.1045
58.0800 38.6898 -0.0916
58.1000 38.7031 -0.1031
58.1200 38.7165 -0.0974
58.1400 38.7298 -0.0978
58.1600 38.7432 -0.1037
58.1800 38.7565 -0.0972
58.2000 38.7698 -0.0992
58.2200 38.7831 -0.1042
58.2400 38.7965 -0.0983
58.2600 38.8098 -0.1030
58.2800 38.8231 -0.1023
58.3000 38.8364 -0.1007
58.3200 38.8498 -0.1059
58.3400 38.8631 -0.0973
58.3600 38.8764 -0.1051
58.3800 38.8898 -0.1072
58.4000 38.9031 -0.1007
58.4200 38.9164 -0.1035
58.4400 38.9298 -0.1099
58.4600 38.9431 -0.1036
58.4800 38.9564 -0.1059
58.5000 38.9698 -0.1070
58.5200 38.9832 -0.1004
58.5400 38.9965 -0.1132
58.5600 39.0098 -0.1106
58.5800 39.0231 -0.1066
58.6000 39.0365 -0.1163
58.6200 39.0498 -0.1105
58.6400 39.0632 -0.1095
58.6600 39.0764 -0.1167
58.6800 39.0898 -0.1112
58.7000 39.1031 -0.1132
58.7200 39.1164 -0.1190
58.7400 39.1297 -0.1125
58.7600 39.1431 -0.1194
58.7800 39.1564 -0.1181
58.8000 39.1697 -0.1154
58.8200 39.1831 -0.1233
58.8400 39.1964 -0.1220
58.8600 39.2098 -0.1155
58.8800 39.2231 -0.1200
58.9000 39.2365 -0.1193
58.9200 39.2498 -0.1246
58.9400 39.2631 -0.1188
58.9600 39.2765 -0.1186
58.9800 39.2898 -0.1292
59.0000 39.3031 -0.1241
59.0200 39.3164 -0.1197
59.0400 39.3297 -0.1265
59.0600 39.3431 -0.1285
59.0800 39.3564 -0.1235
59.1000 39.3698 -0.1250
59.1200 39.3831 -0.1291
59.1400 39.3964 -0.1250
59.1600 39.4098 -0.1318
59.1800 39.4231 -0.1335
59.2000 39.4364 -0.1249
59.2200 39.4497 -0.1329
59.2400 39.4631 -0.1248
59.2600 39.4765 -0.1297
59.2800 39.4898 -0.1315
59.3000 39.5031 -0.1321
59.3200 39.5165 -0.1309
59.3400 39.5298 -0.1339
59.3600 39.5432 -0.1310
59.3800 39.5565 -0.1325
59.4000 39.5698 -0.1353
59.4200 39.5831 -0.1283
59.4400 39.5964 -0.1350
59.4600 39.6097 -0.1324
59.4800 39.6231 -0.1269
59.5000 39.6364 -0.1409
59.5200 39.6498 -0.1335
59.5400 39.6631 -0.1358
59.5600 39.6764 -0.1428
59.5800 39.6898 -0.1296
59.6000 39.7032 -0.1377
59.6200 39.7165 -0.1421
59.6400 39.7298 -0.1329
59.6600 39.7431 -0.1393
59.6800 39.7565 -0.1407
59.7000 39.7698 -0.1402
59.7200 39.7832 -0.1393
59.7400 39.7965 -0.1467
59.7600 39.8098 -0.1390
59.7800 39.8231 -0.1375
59.8000 39.8365 -0.1480
59.8200 39.8498 -0.1455
59.8400 39.8631 -0.1422
59.8600 39.8764 -0.1472
59.8800 39.8897 -0.1469
59.9000 39.9031 -0.1407
59.9200 39.9164 -0.1528
59.9400 39.9298 -0.1485
59.9600 39.9431 -0.1454
59.9800 39.9565 -0.1559
60.0000 39.9698 -0.1509
60.0200 39.9831 -0.1484
60.0400 39.9964 -0.1605
60.0460 40.0003 -0.1748
