Raw Data
Time Displacement Force
(s) (mm) (N)
0.0000 0.0000 0.1989
0.0200 0.0001 0.2156
0.0400 0.0021 0.2934
0.0600 0.0098 0.2720
0.0800 0.0215 0.1949
0.1000 0.0338 0.2106
0.1200 0.0465 0.2330
0.1400 0.0601 0.2007
0.1600 0.0742 0.2149
0.1800 0.0885 0.2101
0.2000 0.1024 0.1913
0.2200 0.1160 0.2081
0.2400 0.1293 0.2053
0.2600 0.1426 0.1961
0.2800 0.1559 0.2176
0.3000 0.1693 0.1993
0.3200 0.1827 0.1932
0.3400 0.1961 0.2093
0.3600 0.2094 0.1966
0.3800 0.2227 0.1916
0.4000 0.2361 0.1979
0.4200 0.2494 0.1947
0.4400 0.2627 0.1883
0.4600 0.2760 0.1888
0.4800 0.2894 0.1867
0.5000 0.3027 0.1845
0.5200 0.3160 0.1812
0.5400 0.3293 0.1806
0.5600 0.3427 0.1738
0.5800 0.3560 0.1740
0.6000 0.3694 0.1706
0.6200 0.3827 0.1674
0.6400 0.3961 0.1734
0.6600 0.4094 0.1690
0.6800 0.4228 0.1591
0.7000 0.4361 0.1694
0.7200 0.4494 0.1673
0.7400 0.4628 0.1526
0.7600 0.4761 0.1657
0.7800 0.4894 0.1602
0.8000 0.5027 0.1436
0.8200 0.5161 0.1635
0.8400 0.5294 0.1494
0.8600 0.5427 0.1390
0.8800 0.5560 0.1552
0.9000 0.5693 0.1408
0.9200 0.5826 0.1394
0.9400 0.5960 0.1490
0.9600 0.6093 0.1305
0.9800 0.6227 0.1365
1.0000 0.6360 0.1381
1.0200 0.6494 0.1259
1.0400 0.6628 0.1298
1.0600 0.6761 0.1379
1.0800 0.6894 0.1223
1.1000 0.7027 0.1267
1.1200 0.7161 0.1317
1.1400 0.7294 0.1127
1.1600 0.7427 0.1219
1.1800 0.7560 0.1284
1.2000 0.7694 0.1137
1.2200 0.7827 0.1199
1.2400 0.7960 0.1224
1.2600 0.8093 0.1179
1.2800 0.8227 0.1103
1.3000 0.8360 0.1184
1.3200 0.8494 0.1106
1.3400 0.8627 0.1038
1.3600 0.8760 0.1172
1.3800 0.8894 0.1031
1.4000 0.9028 0.1073
1.4200 0.9161 0.1110
1.4400 0.9294 0.0965
1.4600 0.9427 0.0975
1.4800 0.9561 0.1091
1.5000 0.9695 0.0932
1.5200 0.9828 0.0917
1.5400 0.9961 0.0981
1.5600 1.0094 0.0872
1.5800 1.0227 0.0884
1.6000 1.0360 0.0892
1.6200 1.0493 0.0802
1.6400 1.0626 0.0883
1.6600 1.0760 0.0825
1.6800 1.0894 0.0753
1.7000 1.1027 0.0769
1.7200 1.1161 0.0777
1.7400 1.1294 0.0742
1.7600 1.1428 0.0733
1.7800 1.1561 0.0695
1.8000 1.1694 0.0696
1.8200 1.1828 0.0697
1.8400 1.1961 0.0627
1.8600 1.2095 0.0631
1.8800 1.2228 0.0632
1.9000 1.2360 0.0606
1.9200 1.2494 0.0679
1.9400 1.2627 0.0592
1.9600 1.2761 0.0566
1.9800 1.2893 0.0599
2.0000 1.3027 0.0527
2.0200 1.3160 0.0620
2.0400 1.3294 0.0579
2.0600 1.3427 0.0506
2.0800 1.3560 0.0579
2.1000 1.3694 0.0519
2.1200 1.3828 0.0481
2.1400 1.3961 0.0547
2.1600 1.4094 0.0471
2.1800 1.4228 0.0416
2.2000 1.4361 0.0494
2.2200 1.4494 0.0409
2.2400 1.4627 0.0387
2.2600 1.4760 0.0452
2.2800 1.4893 0.0304
2.3000 1.5027 0.0401
2.3200 1.5160 0.0397
2.3400 1.5293 0.0270
2.3600 1.5427 0.0407
2.3800 1.5561 0.0340
2.4000 1.5694 0.0180
2.4200 1.5828 0.0382
2.4400 1.5961 0.0252
2.4600 1.6094 0.0148
2.4800 1.6227 0.0350
2.5000 1.6360 0.0205
2.5200 1.6493 0.0136
2.5400 1.6627 0.0333
2.5600 1.6760 0.0152
2.5800 1.6894 0.0150
2.6000 1.7028 0.0228
2.6200 1.7161 0.0053
2.6400 1.7294 0.0147
2.6600 1.7428 0.0199
2.6800 1.7561 0.0011
2.7000 1.7694 0.0166
2.7200 1.7827 0.0166
2.7400 1.7960 -0.0036
2.7600 1.8094 0.0125
2.7800 1.8227 0.0103
2.8000 1.8360 -0.0031
2.8200 1.8494 0.0091
2.8400 1.8627 0.0020
2.8600 1.8761 -0.0004
2.8800 1.8894 0.0004
2.9000 1.9027 -0.0020
2.9200 1.9161 -0.0004
2.9400 1.9294 -0.0063
2.9600 1.9428 -0.0060
2.9800 1.9561 -0.0005
3.0000 1.9694 -0.0101
3.0200 1.9828 -0.0086
3.0400 1.9961 -0.0080
3.0600 2.0094 -0.0151
3.0800 2.0227 -0.0123
3.1000 2.0360 -0.0129
3.1200 2.0493 -0.0184
3.1400 2.0627 -0.0161
3.1600 2.0760 -0.0162
3.1800 2.0894 -0.0256
3.2000 2.1028 -0.0156
3.2200 2.1161 -0.0249
3.2400 2.1295 -0.0334
3.2600 2.1428 -0.0177
3.2800 2.1561 -0.0310
3.3000 2.1695 -0.0345
3.3200 2.1828 -0.0208
3.3400 2.1960 -0.0350
3.3600 2.2094 -0.0373
3.3800 2.2227 -0.0214
3.4000 2.2361 -0.0431
3.4200 2.2494 -0.0393
3.4400 2.2627 -0.0252
3.4600 2.2760 -0.0531
3.4800 2.2894 -0.0420
3.5000 2.3027 -0.0338
3.5200 2.3160 -0.0476
3.5400 2.3294 -0.0393
3.5600 2.3428 -0.0400
3.5800 2.3561 -0.0525
3.6000 2.3694 -0.0467
3.6200 2.3828 -0.0433
3.6400 2.3961 -0.0565
3.6600 2.4095 -0.0457
3.6800 2.4228 -0.0509
3.7000 2.4361 -0.0591
3.7200 2.4494 -0.0502
3.7400 2.4627 -0.0522
3.7600 2.4761 -0.0556
3.7800 2.4893 -0.0542
3.8000 2.5026 -0.0561
3.8200 2.5160 -0.0551
3.8400 2.5293 -0.0633
3.8600 2.5427 -0.0558
3.8800 2.5560 -0.0576
3.9000 2.5694 -0.0648
3.9200 2.5828 -0.0563
3.9400 2.5961 -0.0642
3.9600 2.6094 -0.0703
3.9800 2.6227 -0.0603
4.0000 2.6361 -0.0653
4.0200 2.6494 -0.0742
4.0400 2.6627 -0.0608
4.0600 2.6761 -0.0741
4.0800 2.6894 -0.0777
4.1000 2.7027 -0.0637
4.1200 2.7161 -0.0778
4.1400 2.7294 -0.0763
4.1600 2.7427 -0.0664
4.1800 2.7560 -0.0828
4.2000 2.7693 -0.0784
4.2200 2.7827 -0.0716
4.2400 2.7960 -0.0821
4.2600 2.8094 -0.0842
4.2800 2.8228 -0.0768
4.3000 2.8361 -0.0886
4.3200 2.8494 -0.0896
4.3400 2.8628 -0.0793
4.3600 2.8761 -0.0897
4.3800 2.8895 -0.0860
4.4000 2.9028 -0.0865
4.4200 2.9161 -0.0920
4.4400 2.9294 -0.0869
4.4600 2.9427 -0.0900
4.4800 2.9561 -0.0935
4.5000 2.9694 -0.0997
4.5200 2.9827 -0.0839
4.5400 2.9960 -0.0982
4.5600 3.0094 -0.1013
4.5800 3.0227 -0.0885
4.6000 3.0360 -0.1064
4.6200 3.0494 -0.1003
4.6400 3.0627 -0.0932
4.6600 3.0761 -0.1104
4.6800 3.0894 -0.1041
4.7000 3.1027 -0.0973
4.7200 3.1160 -0.1127
4.7400 3.1294 -0.1049
4.7600 3.1428 -0.1044
4.7800 3.1561 -0.1125
4.8000 3.1694 -0.1021
4.8200 3.1828 -0.1113
4.8400 3.1961 -0.1129
4.8600 3.2094 -0.1050
4.8800 3.2227 -0.1203
4.9000 3.2360 -0.1119
4.9200 3.2493 -0.1130
4.9400 3.2626 -0.1224
4.9600 3.2760 -0.1178
4.9800 3.2893 -0.1143
5.0000 3.3028 -0.1241
5.0200 3.3162 -0.1208
5.0400 3.3295 -0.1241
5.0600 3.3428 -0.1253
5.0800 3.3561 -0.1199
5.1000 3.3695 -0.1257
5.1200 3.3828 -0.1320
5.1400 3.3961 -0.1217
5.1600 3.4094 -0.1340
5.1800 3.4227 -0.1287
5.2000 3.4361 -0.1364
5.2200 3.4494 -0.1394
5.2400 3.4627 -0.1274
5.2600 3.4760 -0.1378
5.2800 3.4893 -0.1448
5.3000 3.5027 -0.1318
5.3200 3.5160 -0.1401
5.3400 3.5294 -0.1494
5.3600 3.5427 -0.1384
5.3800 3.5561 -0.1428
5.4000 3.5695 -0.1502
5.4200 3.5828 -0.1392
5.4400 3.5961 -0.1478
5.4600 3.6095 -0.1498
5.4800 3.6228 -0.1415
5.5000 3.6361 -0.1485
5.5200 3.6494 -0.1490
5.5400 3.6627 -0.1439
5.5600 3.6760 -0.1590
5.5800 3.6894 -0.1507
5.6000 3.7027 -0.1497
5.6200 3.7160 -0.1540
5.6400 3.7294 -0.1508
5.6600 3.7427 -0.1539
5.6800 3.7561 -0.1545
5.7000 3.7694 -0.1555
5.7200 3.7827 -0.1511
5.7400 3.7961 -0.1604
5.7600 3.8094 -0.1503
5.7800 3.8227 -0.1580
5.8000 3.8361 -0.1638
5.8200 3.8495 -0.1551
5.8400 3.8628 -0.1607
5.8600 3.8761 -0.1587
5.8800 3.8894 -0.1571
5.9000 3.9027 -0.1666
5.9200 3.9161 -0.1605
5.9400 3.9294 -0.1624
5.9600 3.9427 -0.1704
5.9800 3.9560 -0.1654
6.0000 3.9694 -0.1602
6.0200 3.9827 -0.1794
6.0400 3.9960 -0.1692
6.0600 4.0094 -0.1663
6.0800 4.0228 -0.1801
6.1000 4.0361 -0.1680
6.1200 4.0495 -0.1734
6.1400 4.0628 -0.1822
6.1600 4.0761 -0.1657
6.1800 4.0894 -0.1770
6.2000 4.1028 -0.1867
6.2200 4.1161 -0.1708
6.2400 4.1294 -0.1760
6.2600 4.1427 -0.1882
6.2800 4.1560 -0.1768
6.3000 4.1693 -0.1820
6.3200 4.1826 -0.1865
6.3400 4.1960 -0.1756
6.3600 4.2094 -0.1866
6.3800 4.2227 -0.1880
6.4000 4.2360 -0.1837
6.4200 4.2494 -0.1850
6.4400 4.2627 -0.1884
6.4600 4.2761 -0.1869
6.4800 4.2894 -0.1890
6.5000 4.3027 -0.1912
6.5200 4.3161 -0.1949
6.5400 4.3295 -0.1889
6.5600 4.3428 -0.1998
6.5800 4.3561 -0.1930
6.6000 4.3694 -0.1899
6.6200 4.3827 -0.1971
6.6400 4.3961 -0.1986
6.6600 4.4094 -0.1928
6.6800 4.4227 -0.2040
6.7000 4.4360 -0.1958
6.7200 4.4493 -0.1908
6.7400 4.4627 -0.2063
6.7600 4.4760 -0.1983
6.7800 4.4894 -0.1968
6.8000 4.5027 -0.2110
6.8200 4.5161 -0.1993
6.8400 4.5294 -0.2017
6.8600 4.5427 -0.2144
6.8800 4.5561 -0.2010
6.9000 4.5694 -0.2056
6.9200 4.5828 -0.2152
6.9400 4.5961 -0.2020
6.9600 4.6094 -0.2088
6.9800 4.6227 -0.2186
7.0000 4.6361 -0.2021
7.0200 4.6494 -0.2111
7.0400 4.6626 -0.2182
7.0600 4.6759 -0.2097
7.0800 4.6893 -0.2176
7.1000 4.7026 -0.2196
7.1200 4.7160 -0.2099
7.1400 4.7293 -0.2200
7.1600 4.7427 -0.2190
7.1800 4.7561 -0.2173
7.2000 4.7695 -0.2198
7.2200 4.7828 -0.2201
7.2400 4.7961 -0.2187
7.2600 4.8095 -0.2266
7.2800 4.8228 -0.2207
7.3000 4.8361 -0.2262
7.3200 4.8493 -0.2266
7.3400 4.8626 -0.2193
7.3600 4.8760 -0.2264
7.3800 4.8893 -0.2267
7.4000 4.9027 -0.2257
7.4200 4.9160 -0.2277
7.4400 4.9294 -0.2203
7.4600 4.9428 -0.2297
7.4800 4.9561 -0.2301
7.5000 4.9694 -0.2217
7.5200 4.9828 -0.2272
7.5400 4.9961 -0.2328
7.5600 5.0095 -0.2261
7.5800 5.0228 -0.2320
7.6000 5.0361 -0.2351
7.6200 5.0494 -0.2276
7.6400 5.0628 -0.2335
7.6600 5.0761 -0.2359
7.6800 5.0894 -0.2301
7.7000 5.1027 -0.2346
7.7200 5.1160 -0.2397
7.7400 5.1294 -0.2354
7.7600 5.1427 -0.2348
7.7800 5.1560 -0.2459
7.8000 5.1693 -0.2363
7.8200 5.1827 -0.2417
7.8400 5.1960 -0.2477
7.8600 5.2094 -0.2418
7.8800 5.2227 -0.2436
7.9000 5.2361 -0.2523
7.9200 5.2494 -0.2427
7.9400 5.2628 -0.2428
7.9600 5.2761 -0.2597
7.9800 5.2894 -0.2399
8.0000 5.3028 -0.2480
8.0200 5.3161 -0.2605
8.0400 5.3294 -0.2392
8.0600 5.3427 -0.2514
8.0800 5.3561 -0.2636
8.1000 5.3694 -0.2405
8.1200 5.3827 -0.2572
8.1400 5.3960 -0.2623
8.1600 5.4093 -0.2435
8.1800 5.4227 -0.2598
8.2000 5.4360 -0.2671
8.2200 5.4493 -0.2415
8.2400 5.4627 -0.2575
8.2600 5.4761 -0.2650
8.2800 5.4895 -0.2455
8.3000 5.5028 -0.2663
8.3200 5.5161 -0.2624
8.3400 5.5294 -0.2438
8.3600 5.5428 -0.2640
8.3800 5.5561 -0.2646
8.4000 5.5694 -0.2546
8.4200 5.5827 -0.2605
8.4400 5.5961 -0.2681
8.4600 5.6094 -0.2550
8.4800 5.6227 -0.2645
8.5000 5.6360 -0.2679
8.5200 5.6493 -0.2560
8.5400 5.6627 -0.2700
8.5600 5.6760 -0.2671
8.5800 5.6894 -0.2613
8.6000 5.7027 -0.2727
8.6200 5.7161 -0.2704
8.6400 5.7294 -0.2630
8.6600 5.7428 -0.2690
8.6800 5.7561 -0.2749
8.7000 5.7694 -0.2624
8.7200 5.7828 -0.2775
8.7400 5.7961 -0.2787
8.7600 5.8094 -0.2643
8.7800 5.8227 -0.2766
8.8000 5.8361 -0.2770
8.8200 5.8494 -0.2689
8.8400 5.8627 -0.2791
8.8600 5.8760 -0.2812
8.8800 5.8893 -0.2702
8.9000 5.9027 -0.2823
8.9200 5.9160 -0.2815
8.9400 5.9294 -0.2750
8.9600 5.9427 -0.2873
8.9800 5.9561 -0.2833
9.0000 5.9695 -0.2786
9.0200 5.9828 -0.2897
9.0400 5.9961 -0.2825
9.0600 6.0094 -0.2854
9.0800 6.0228 -0.2925
9.1000 6.0361 -0.2877
9.1200 6.0494 -0.2883
9.1400 6.0627 -0.2968
9.1600 6.0760 -0.2896
9.1800 6.0894 -0.2914
9.2000 6.1027 -0.2967
9.2200 6.1160 -0.2936
9.2400 6.1293 -0.2943
9.2600 6.1427 -0.2974
9.2800 6.1560 -0.2977
9.3000 6.1694 -0.2957
9.3200 6.1827 -0.3014
9.3400 6.1961 -0.3019
9.3600 6.2095 -0.3020
9.3800 6.2228 -0.3034
9.4000 6.2361 -0.2975
9.4200 6.2494 -0.3039
9.4400 6.2628 -0.2996
9.4600 6.2761 -0.3026
9.4800 6.2894 -0.3083
9.5000 6.3027 -0.2987
9.5200 6.3160 -0.3047
9.5400 6.3294 -0.3095
9.5600 6.3427 -0.3014
9.5800 6.3560 -0.3086
9.6000 6.3693 -0.3086
9.6200 6.3827 -0.3030
9.6400 6.3961 -0.3141
9.6600 6.4094 -0.3114
9.6800 6.4227 -0.3074
9.7000 6.4361 -0.3157
9.7200 6.4494 -0.3139
9.7400 6.4627 -0.3117
9.7600 6.4761 -0.3185
9.7800 6.4894 -0.3162
9.8000 6.5027 -0.3160
9.8200 6.5161 -0.3202
9.8400 6.5294 -0.3147
9.8600 6.5427 -0.3178
9.8800 6.5561 -0.3201
9.9000 6.5694 -0.3220
9.9200 6.5828 -0.3221
9.9400 6.5960 -0.3208
9.9600 6.6093 -0.3204
9.9800 6.6227 -0.3254
10.0000 6.6360 -0.3212
10.0200 6.6493 -0.3252
10.0400 6.6627 -0.3230
10.0600 6.6761 -0.3191
10.0800 6.6894 -0.3285
10.1000 6.7027 -0.3251
10.1200 6.7161 -0.3211
10.1400 6.7294 -0.3268
10.1600 6.7428 -0.3233
10.1800 6.7561 -0.3235
10.2000 6.7694 -0.3267
10.2200 6.7827 -0.3275
10.2400 6.7961 -0.3202
10.2600 6.8094 -0.3280
10.2800 6.8227 -0.3243
10.3000 6.8360 -0.3280
10.3200 6.8493 -0.3269
10.3400 6.8627 -0.3287
10.3600 6.8760 -0.3313
10.3800 6.8894 -0.3255
10.4000 6.9027 -0.3275
10.4200 6.9161 -0.3337
10.4400 6.9294 -0.3293
10.4600 6.9428 -0.3293
10.4800 6.9561 -0.3331
10.5000 6.9694 -0.3261
10.5200 6.9828 -0.3300
10.5400 6.9961 -0.3381
10.5600 7.0094 -0.3283
10.5800 7.0227 -0.3341
10.6000 7.0360 -0.3369
10.6200 7.0494 -0.3304
10.6400 7.0627 -0.3391
10.6600 7.0760 -0.3411
10.6800 7.0893 -0.3343
10.7000 7.1027 -0.3380
10.7200 7.1161 -0.3394
10.7400 7.1294 -0.3358
10.7600 7.1427 -0.3446
10.7800 7.1560 -0.3393
10.8000 7.1694 -0.3374
10.8200 7.1828 -0.3491
10.8400 7.1961 -0.3388
10.8600 7.2094 -0.3446
10.8800 7.2228 -0.3543
10.9000 7.2361 -0.3418
10.9200 7.2494 -0.3486
10.9400 7.2627 -0.3482
10.9600 7.2761 -0.3474
10.9800 7.2894 -0.3562
11.0000 7.3027 -0.3526
11.0200 7.3160 -0.3479
11.0400 7.3293 -0.3602
11.0600 7.3427 -0.3519
11.0800 7.3560 -0.3558
11.1000 7.3694 -0.3559
11.1200 7.3827 -0.3533
11.1400 7.3961 -0.3595
11.1600 7.4095 -0.3618
11.1800 7.4228 -0.3568
11.2000 7.4361 -0.3617
11.2200 7.4494 -0.3626
11.2400 7.4628 -0.3572
11.2600 7.4761 -0.3671
11.2800 7.4894 -0.3634
11.3000 7.5027 -0.3643
11.3200 7.5161 -0.3656
11.3400 7.5294 -0.3614
11.3600 7.5427 -0.3693
11.3800 7.5560 -0.3671
11.4000 7.5694 -0.3635
11.4200 7.5827 -0.3738
11.4400 7.5960 -0.3680
11.4600 7.6094 -0.3670
11.4800 7.6227 -0.3757
11.5000 7.6361 -0.3665
11.5200 7.6494 -0.3690
11.5400 7.6628 -0.3826
11.5600 7.6761 -0.3628
11.5800 7.6894 -0.3674
11.6000 7.7028 -0.3804
11.6200 7.7161 -0.3695
11.6400 7.7294 -0.3714
11.6600 7.7427 -0.3752
11.6800 7.7560 -0.3669
11.7000 7.7694 -0.3779
11.7200 7.7827 -0.3763
11.7400 7.7960 -0.3715
11.7600 7.8093 -0.3736
11.7800 7.8227 -0.3809
11.8000 7.8360 -0.3728
11.8200 7.8494 -0.3744
11.8400 7.8627 -0.3827
11.8600 7.8760 -0.3757
11.8800 7.8894 -0.3755
11.9000 7.9027 -0.3834
11.9200 7.9160 -0.3775
11.9400 7.9294 -0.3735
11.9600 7.9427 -0.3826
11.9800 7.9561 -0.3739
12.0000 7.9694 -0.3782
12.0200 7.9828 -0.3832
12.0400 7.9961 -0.3755
12.0600 8.0094 -0.3748
12.0800 8.0228 -0.3866
12.1000 8.0360 -0.3732
12.1200 8.0493 -0.3785
12.1400 8.0626 -0.3890
12.1600 8.0760 -0.3721
12.1800 8.0893 -0.3822
12.2000 8.1027 -0.3846
12.2200 8.1160 -0.3717
12.2400 8.1295 -0.3838
12.2600 8.1428 -0.3887
12.2800 8.1561 -0.3757
12.3000 8.1695 -0.3864
12.3200 8.1828 -0.3902
12.3400 8.1962 -0.3767
12.3600 8.2094 -0.3879
12.3800 8.2227 -0.3897
12.4000 8.2360 -0.3822
12.4200 8.2494 -0.3876
12.4400 8.2627 -0.3897
12.4600 8.2760 -0.3896
12.4800 8.2893 -0.3911
12.5000 8.3026 -0.3883
12.5200 8.3160 -0.3948
12.5400 8.3294 -0.3946
12.5600 8.3427 -0.3903
12.5800 8.3561 -0.3940
12.6000 8.3694 -0.4015
12.6200 8.3828 -0.3936
12.6400 8.3961 -0.3960
12.6600 8.4094 -0.3948
12.6800 8.4228 -0.3985
12.7000 8.4362 -0.3991
12.7200 8.4495 -0.3944
12.7400 8.4627 -0.4031
12.7600 8.4760 -0.3931
12.7800 8.4894 -0.4008
12.8000 8.5027 -0.4024
12.8200 8.5160 -0.3967
12.8400 8.5293 -0.4001
12.8600 8.5427 -0.4024
12.8800 8.5560 -0.3984
12.9000 8.5694 -0.4027
12.9200 8.5827 -0.4062
12.9400 8.5961 -0.3989
12.9600 8.6094 -0.4060
12.9800 8.6228 -0.4071
13.0000 8.6361 -0.3990
13.0200 8.6494 -0.4123
13.0400 8.6628 -0.4072
13.0600 8.6761 -0.3999
13.0800 8.6894 -0.4136
13.1000 8.7028 -0.4105
13.1200 8.7161 -0.3983
13.1400 8.7294 -0.4158
13.1600 8.7428 -0.4118
13.1800 8.7560 -0.4046
13.2000 8.7693 -0.4131
13.2200 8.7827 -0.4164
13.2400 8.7960 -0.4083
13.2600 8.8094 -0.4149
13.2800 8.8227 -0.4172
13.3000 8.8361 -0.4120
13.3200 8.8495 -0.4174
13.3400 8.8628 -0.4192
13.3600 8.8761 -0.4145
13.3800 8.8894 -0.4184
13.4000 8.9028 -0.4168
13.4200 8.9161 -0.4180
13.4400 8.9294 -0.4250
13.4600 8.9427 -0.4210
13.4800 8.9560 -0.4137
13.5000 8.9694 -0.4232
13.5200 8.9827 -0.4247
13.5400 8.9961 -0.4174
13.5600 9.0094 -0.4225
13.5800 9.0227 -0.4293
13.6000 9.0360 -0.4213
13.6200 9.0493 -0.4226
13.6400 9.0627 -0.4322
13.6600 9.0760 -0.4213
13.6800 9.0894 -0.4251
13.7000 9.1028 -0.4327
13.7200 9.1161 -0.4214
13.7400 9.1294 -0.4295
13.7600 9.1428 -0.4349
13.7800 9.1561 -0.4215
13.8000 9.1695 -0.4381
13.8200 9.1827 -0.4327
13.8400 9.1960 -0.4227
13.8600 9.2094 -0.4349
13.8800 9.2227 -0.4341
13.9000 9.2360 -0.4273
13.9200 9.2493 -0.4376
13.9400 9.2627 -0.4311
13.9600 9.2760 -0.4288
13.9800 9.2894 -0.4428
14.0000 9.3027 -0.4350
14.0200 9.3160 -0.4242
14.0400 9.3294 -0.4441
14.0600 9.3428 -0.4352
14.0800 9.3561 -0.4346
14.1000 9.3694 -0.4454
14.1200 9.3827 -0.4351
14.1400 9.3961 -0.4396
14.1600 9.4094 -0.4419
14.1800 9.4227 -0.4394
14.2000 9.4361 -0.4405
14.2200 9.4494 -0.4409
14.2400 9.4628 -0.4399
14.2600 9.4761 -0.4445
14.2800 9.4893 -0.4415
14.3000 9.5026 -0.4394
14.3200 9.5160 -0.4500
14.3400 9.5293 -0.4436
14.3600 9.5427 -0.4416
14.3800 9.5560 -0.4504
14.4000 9.5694 -0.4444
14.4200 9.5828 -0.4429
14.4400 9.5961 -0.4516
14.4600 9.6095 -0.4456
14.4800 9.6228 -0.4437
14.5000 9.6361 -0.4571
14.5200 9.6494 -0.4459
14.5400 9.6627 -0.4449
14.5600 9.6760 -0.4528
14.5800 9.6893 -0.4504
14.6000 9.7027 -0.4525
14.6200 9.7160 -0.4535
14.6400 9.7293 -0.4478
14.6600 9.7427 -0.4562
14.6800 9.7561 -0.4545
14.7000 9.7694 -0.4545
14.7200 9.7827 -0.4532
14.7400 9.7961 -0.4558
14.7600 9.8094 -0.4561
14.7800 9.8228 -0.4579
14.8000 9.8361 -0.4555
14.8200 9.8494 -0.4581
14.8400 9.8628 -0.4582
14.8600 9.8761 -0.4511
14.8800 9.8894 -0.4670
14.9000 9.9027 -0.4569
14.9200 9.9160 -0.4518
14.9400 9.9294 -0.4667
14.9600 9.9427 -0.4580
14.9800 9.9560 -0.4544
15.0000 9.9693 -0.4693
15.0200 9.9827 -0.4604
15.0400 9.9960 -0.4588
15.0600 10.0094 -0.4643
15.0800 10.0227 -0.4589
15.1000 10.0361 -0.4633
15.1200 10.0494 -0.4672
15.1400 10.0628 -0.4624
15.1600 10.0761 -0.4620
15.1800 10.0894 -0.4639
15.2000 10.1027 -0.4662
15.2200 10.1161 -0.4639
15.2400 10.1295 -0.4673
15.2600 10.1428 -0.4676
15.2800 10.1561 -0.4653
15.3000 10.1694 -0.4626
15.3200 10.1827 -0.4732
15.3400 10.1961 -0.4628
15.3600 10.2093 -0.4643
15.3800 10.2226 -0.4726
15.4000 10.2360 -0.4627
15.4200 10.2494 -0.4716
15.4400 10.2627 -0.4705
15.4600 10.2760 -0.4626
15.4800 10.2894 -0.4765
15.5000 10.3028 -0.4654
15.5200 10.3161 -0.4688
15.5400 10.3295 -0.4754
15.5600 10.3428 -0.4637
15.5800 10.3561 -0.4679
15.6000 10.3695 -0.4757
15.6200 10.3827 -0.4630
15.6400 10.3960 -0.4717
15.6600 10.4094 -0.4737
15.6800 10.4227 -0.4632
15.7000 10.4360 -0.4766
15.7200 10.4494 -0.4742
15.7400 10.4627 -0.4651
15.7600 10.4760 -0.4795
15.7800 10.4894 -0.4775
15.8000 10.5027 -0.4630
15.8200 10.5160 -0.4847
15.8400 10.5294 -0.4728
15.8600 10.5427 -0.4658
15.8800 10.5561 -0.4893
15.9000 10.5694 -0.4678
15.9200 10.5827 -0.4673
15.9400 10.5961 -0.4891
15.9600 10.6095 -0.4697
15.9800 10.6228 -0.4701
16.0000 10.6361 -0.4879
16.0200 10.6494 -0.4676
16.0400 10.6627 -0.4733
16.0600 10.6760 -0.4917
16.0800 10.6893 -0.4661
16.1000 10.7027 -0.4782
16.1200 10.7160 -0.4867
16.1400 10.7294 -0.4722
16.1600 10.7427 -0.4761
16.1800 10.7560 -0.4829
16.2000 10.7694 -0.4771
16.2200 10.7828 -0.4773
16.2400 10.7961 -0.4852
16.2600 10.8094 -0.4754
16.2800 10.8227 -0.4771
16.3000 10.8361 -0.4859
16.3200 10.8494 -0.4812
16.3400 10.8628 -0.4834
16.3600 10.8761 -0.4850
16.3800 10.8894 -0.4803
16.4000 10.9027 -0.4830
16.4200 10.9161 -0.4880
16.4400 10.9294 -0.4845
16.4600 10.9427 -0.4831
16.4800 10.9560 -0.4875
16.5000 10.9693 -0.4885
16.5200 10.9827 -0.4823
16.5400 10.9960 -0.4926
16.5600 11.0094 -0.4887
16.5800 11.0228 -0.4812
16.6000 11.0361 -0.4984
16.6200 11.0494 -0.4886
16.6400 11.0628 -0.4853
16.6600 11.0761 -0.4994
16.6800 11.0895 -0.4890
16.7000 11.1027 -0.4871
16.7200 11.1160 -0.4974
16.7400 11.1293 -0.4915
16.7600 11.1427 -0.4887
16.7800 11.1560 -0.4956
16.8000 11.1693 -0.4910
16.8200 11.1827 -0.4884
16.8400 11.1960 -0.5011
16.8600 11.2094 -0.4929
16.8800 11.2227 -0.4959
16.9000 11.2361 -0.4977
16.9200 11.2494 -0.4898
16.9400 11.2628 -0.4966
16.9600 11.2761 -0.4971
16.9800 11.2894 -0.4933
17.0000 11.3027 -0.4980
17.0200 11.3160 -0.4996
17.0400 11.3294 -0.4985
17.0600 11.3428 -0.5016
17.0800 11.3561 -0.4991
17.1000 11.3694 -0.4969
17.1200 11.3828 -0.4960
17.1400 11.3961 -0.5044
17.1600 11.4094 -0.5018
17.1800 11.4227 -0.4953
17.2000 11.4360 -0.5084
17.2200 11.4494 -0.5085
17.2400 11.4627 -0.4935
17.2600 11.4760 -0.5136
17.2800 11.4894 -0.5054
17.3000 11.5027 -0.4979
17.3200 11.5161 -0.5163
17.3400 11.5294 -0.5018
17.3600 11.5427 -0.5030
17.3800 11.5561 -0.5176
17.4000 11.5694 -0.5087
17.4200 11.5828 -0.5052
17.4400 11.5961 -0.5186
17.4600 11.6094 -0.5062
17.4800 11.6227 -0.5096
17.5000 11.6361 -0.5220
17.5200 11.6494 -0.5035
17.5400 11.6627 -0.5203
17.5600 11.6760 -0.5183
17.5800 11.6893 -0.5079
17.6000 11.7027 -0.5240
17.6200 11.7160 -0.5161
17.6400 11.7294 -0.5101
17.6600 11.7428 -0.5216
17.6800 11.7561 -0.5192
17.7000 11.7694 -0.5144
17.7200 11.7828 -0.5214
17.7400 11.7961 -0.5193
17.7600 11.8095 -0.5164
17.7800 11.8228 -0.5202
17.8000 11.8361 -0.5131
17.8200 11.8494 -0.5184
17.8400 11.8627 -0.5204
17.8600 11.8761 -0.5142
17.8800 11.8894 -0.5163
17.9000 11.9027 -0.5186
17.9200 11.9160 -0.5199
17.9400 11.9294 -0.5169
17.9600 11.9427 -0.5222
17.9800 11.9561 -0.5170
18.0000 11.9694 -0.5244
18.0200 11.9827 -0.5215
18.0400 11.9961 -0.5165
18.0600 12.0094 -0.5232
18.0800 12.0227 -0.5195
18.1000 12.0361 -0.5216
18.1200 12.0495 -0.5266
18.1400 12.0628 -0.5212
18.1600 12.0761 -0.5191
18.1800 12.0894 -0.5248
18.2000 12.1027 -0.5251
18.2200 12.1161 -0.5200
18.2400 12.1294 -0.5283
18.2600 12.1427 -0.5198
18.2800 12.1560 -0.5186
18.3000 12.1694 -0.5288
18.3200 12.1827 -0.5202
18.3400 12.1960 -0.5220
18.3600 12.2094 -0.5314
18.3800 12.2228 -0.5208
18.4000 12.2361 -0.5215
18.4200 12.2494 -0.5355
18.4400 12.2627 -0.5208
18.4600 12.2761 -0.5233
18.4800 12.2894 -0.5367
18.5000 12.3028 -0.5243
18.5200 12.3161 -0.5282
18.5400 12.3294 -0.5327
18.5600 12.3427 -0.5275
18.5800 12.3561 -0.5350
18.6000 12.3694 -0.5388
18.6200 12.3827 -0.5300
18.6400 12.3960 -0.5364
18.6600 12.4094 -0.5425
18.6800 12.4227 -0.5315
18.7000 12.4360 -0.5372
18.7200 12.4494 -0.5393
18.7400 12.4628 -0.5348
18.7600 12.4761 -0.5413
18.7800 12.4894 -0.5409
18.8000 12.5027 -0.5390
18.8200 12.5161 -0.5414
18.8400 12.5294 -0.5432
18.8600 12.5428 -0.5469
18.8800 12.5561 -0.5419
18.9000 12.5694 -0.5479
18.9200 12.5827 -0.5430
18.9400 12.5960 -0.5423
18.9600 12.6093 -0.5473
18.9800 12.6227 -0.5439
19.0000 12.6360 -0.5449
19.0200 12.6494 -0.5494
19.0400 12.6627 -0.5484
19.0600 12.6760 -0.5449
19.0800 12.6893 -0.5456
19.1000 12.7027 -0.5474
19.1200 12.7161 -0.5469
19.1400 12.7294 -0.5511
19.1600 12.7427 -0.5477
19.1800 12.7561 -0.5470
19.2000 12.7694 -0.5531
19.2200 12.7828 -0.5523
19.2400 12.7961 -0.5444
19.2600 12.8094 -0.5499
19.2800 12.8228 -0.5495
19.3000 12.8361 -0.5491
19.3200 12.8494 -0.5527
19.3400 12.8627 -0.5500
19.3600 12.8760 -0.5504
19.3800 12.8893 -0.5537
19.4000 12.9026 -0.5493
19.4200 12.9160 -0.5525
19.4400 12.9293 -0.5558
19.4600 12.9427 -0.5502
19.4800 12.9561 -0.5509
19.5000 12.9695 -0.5602
19.5200 12.9828 -0.5479
19.5400 12.9961 -0.5536
19.5600 13.0095 -0.5615
19.5800 13.0228 -0.5480
19.6000 13.0361 -0.5595
19.6200 13.0494 -0.5562
19.6400 13.0627 -0.5498
19.6600 13.0760 -0.5581
19.6800 13.0894 -0.5541
19.7000 13.1027 -0.5519
19.7200 13.1160 -0.5573
19.7400 13.1293 -0.5580
19.7600 13.1427 -0.5527
19.7800 13.1560 -0.5547
19.8000 13.1694 -0.5588
19.8200 13.1827 -0.5531
19.8400 13.1961 -0.5570
19.8600 13.2094 -0.5591
19.8800 13.2228 -0.5543
19.9000 13.2361 -0.5600
19.9200 13.2494 -0.5538
19.9400 13.2628 -0.5604
19.9600 13.2761 -0.5600
19.9800 13.2894 -0.5528
20.0000 13.3027 -0.5599
20.0200 13.3160 -0.5608
20.0400 13.3294 -0.5581
20.0600 13.3427 -0.5665
20.0800 13.3560 -0.5563
20.1000 13.3694 -0.5591
20.1200 13.3827 -0.5670
20.1400 13.3961 -0.5593
20.1600 13.4094 -0.5626
20.1800 13.4227 -0.5658
20.2000 13.4361 -0.5627
20.2200 13.4494 -0.5668
20.2400 13.4627 -0.5633
20.2600 13.4761 -0.5660
20.2800 13.4894 -0.5696
20.3000 13.5028 -0.5656
20.3200 13.5161 -0.5672
20.3400 13.5294 -0.5706
20.3600 13.5427 -0.5615
20.3800 13.5561 -0.5710
20.4000 13.5694 -0.5730
20.4200 13.5827 -0.5628
20.4400 13.5960 -0.5689
20.4600 13.6093 -0.5687
20.4800 13.6227 -0.5689
20.5000 13.6360 -0.5697
20.5200 13.6494 -0.5717
20.5400 13.6628 -0.5680
20.5600 13.6761 -0.5736
20.5800 13.6895 -0.5704
20.6000 13.7028 -0.5677
20.6200 13.7161 -0.5709
20.6400 13.7294 -0.5726
20.6600 13.7428 -0.5751
20.6800 13.7561 -0.5723
20.7000 13.7694 -0.5679
20.7200 13.7827 -0.5776
20.7400 13.7961 -0.5739
20.7600 13.8094 -0.5720
20.7800 13.8227 -0.5730
20.8000 13.8360 -0.5745
20.8200 13.8494 -0.5713
20.8400 13.8627 -0.5781
20.8600 13.8760 -0.5726
20.8800 13.8894 -0.5754
20.9000 13.9027 -0.5821
20.9200 13.9161 -0.5729
20.9400 13.9295 -0.5741
20.9600 13.9428 -0.5879
20.9800 13.9561 -0.5728
21.0000 13.9695 -0.5766
21.0200 13.9828 -0.5863
21.0400 13.9961 -0.5726
21.0600 14.0094 -0.5807
21.0800 14.0227 -0.5862
21.1000 14.0361 -0.5736
21.1200 14.0494 -0.5837
21.1400 14.0627 -0.5847
21.1600 14.0760 -0.5768
21.1800 14.0893 -0.5819
21.2000 14.1027 -0.5867
21.2200 14.1160 -0.5774
21.2400 14.1293 -0.5817
21.2600 14.1427 -0.5846
21.2800 14.1561 -0.5762
21.3000 14.1695 -0.5866
21.3200 14.1828 -0.5846
21.3400 14.1961 -0.5812
21.3600 14.2094 -0.5867
21.3800 14.2228 -0.5863
21.4000 14.2361 -0.5818
21.4200 14.2494 -0.5858
21.4400 14.2627 -0.5856
21.4600 14.2761 -0.5883
21.4800 14.2894 -0.5819
21.5000 14.3027 -0.5869
21.5200 14.3160 -0.5854
21.5400 14.3293 -0.5819
21.5600 14.3426 -0.5899
21.5800 14.3560 -0.5874
21.6000 14.3693 -0.5849
21.6200 14.3827 -0.5942
21.6400 14.3961 -0.5853
21.6600 14.4095 -0.5851
21.6800 14.4228 -0.5943
21.7000 14.4361 -0.5857
21.7200 14.4495 -0.5907
21.7400 14.4628 -0.5965
21.7600 14.4761 -0.5861
21.7800 14.4894 -0.5931
21.8000 14.5027 -0.5967
21.8200 14.5160 -0.5903
21.8400 14.5293 -0.5945
21.8600 14.5427 -0.6014
21.8800 14.5560 -0.5879
21.9000 14.5693 -0.6006
21.9200 14.5827 -0.5990
21.9400 14.5961 -0.5911
21.9600 14.6094 -0.6043
21.9800 14.6227 -0.6000
22.0000 14.6361 -0.5987
22.0200 14.6495 -0.6083
22.0400 14.6628 -0.6022
22.0600 14.6761 -0.6019
22.0800 14.6894 -0.6054
22.1000 14.7028 -0.6031
22.1200 14.7161 -0.6066
22.1400 14.7294 -0.6116
22.1600 14.7427 -0.6046
22.1800 14.7560 -0.6083
22.2000 14.7694 -0.6147
22.2200 14.7827 -0.6030
22.2400 14.7960 -0.6154
22.2600 14.8093 -0.6117
22.2800 14.8227 -0.6068
22.3000 14.8361 -0.6192
22.3200 14.8494 -0.6136
22.3400 14.8627 -0.6074
22.3600 14.8761 -0.6238
22.3800 14.8895 -0.6142
22.4000 14.9028 -0.6159
22.4200 14.9161 -0.6246
22.4400 14.9294 -0.6139
22.4600 14.9428 -0.6163
22.4800 14.9561 -0.6244
22.5000 14.9694 -0.6191
22.5200 14.9827 -0.6243
22.5400 14.9960 -0.6258
22.5600 15.0094 -0.6182
22.5800 15.0227 -0.6258
22.6000 15.0360 -0.6254
22.6200 15.0493 -0.6193
22.6400 15.0627 -0.6275
22.6600 15.0760 -0.6246
22.6800 15.0894 -0.6236
22.7000 15.1027 -0.6295
22.7200 15.1161 -0.6300
22.7400 15.1295 -0.6314
22.7600 15.1428 -0.6330
22.7800 15.1561 -0.6221
22.8000 15.1694 -0.6321
22.8200 15.1828 -0.6378
22.8400 15.1961 -0.6271
22.8600 15.2094 -0.6307
22.8800 15.2227 -0.6332
22.9000 15.2360 -0.6299
22.9200 15.2494 -0.6388
22.9400 15.2627 -0.6350
22.9600 15.2760 -0.6307
22.9800 15.2893 -0.6405
23.0000 15.3027 -0.6404
23.0200 15.3160 -0.6359
23.0400 15.3294 -0.6353
23.0600 15.3427 -0.6427
23.0800 15.3561 -0.6329
23.1000 15.3694 -0.6383
23.1200 15.3827 -0.6419
23.1400 15.3961 -0.6449
23.1600 15.4094 -0.6372
23.1800 15.4228 -0.6429
23.2000 15.4361 -0.6457
23.2200 15.4494 -0.6373
23.2400 15.4627 -0.6434
23.2600 15.4760 -0.6465
23.2800 15.4894 -0.6365
23.3000 15.5027 -0.6447
23.3200 15.5160 -0.6432
23.3400 15.5293 -0.6393
23.3600 15.5427 -0.6498
23.3800 15.5560 -0.6455
23.4000 15.5694 -0.6388
23.4200 15.5827 -0.6481
23.4400 15.5961 -0.6489
23.4600 15.6095 -0.6386
23.4800 15.6228 -0.6488
23.5000 15.6361 -0.6467
23.5200 15.6494 -0.6404
23.5400 15.6628 -0.6505
23.5600 15.6761 -0.6469
23.5800 15.6894 -0.6385
23.6000 15.7027 -0.6533
23.6200 15.7160 -0.6410
23.6400 15.7294 -0.6403
23.6600 15.7427 -0.6535
23.6800 15.7560 -0.6433
23.7000 15.7693 -0.6415
23.7200 15.7827 -0.6542
23.7400 15.7960 -0.6436
23.7600 15.8093 -0.6419
23.7800 15.8227 -0.6540
23.8000 15.8361 -0.6449
23.8200 15.8495 -0.6455
23.8400 15.8628 -0.6498
23.8600 15.8761 -0.6445
23.8800 15.8894 -0.6453
23.9000 15.9028 -0.6469
23.9200 15.9161 -0.6492
23.9400 15.9294 -0.6439
23.9600 15.9427 -0.6432
23.9800 15.9560 -0.6487
24.0000 15.9694 -0.6522
24.0200 15.9827 -0.6422
24.0400 15.9960 -0.6472
24.0600 16.0093 -0.6496
24.0800 16.0227 -0.6409
24.1000 16.0361 -0.6494
24.1200 16.0494 -0.6504
24.1400 16.0627 -0.6423
24.1600 16.0761 -0.6526
24.1800 16.0894 -0.6530
24.2000 16.1027 -0.6389
24.2200 16.1160 -0.6516
24.2400 16.1294 -0.6486
24.2600 16.1427 -0.6453
24.2800 16.1561 -0.6512
24.3000 16.1694 -0.6520
24.3200 16.1828 -0.6459
24.3400 16.1961 -0.6546
24.3600 16.2094 -0.6496
24.3800 16.2228 -0.6473
24.4000 16.2360 -0.6584
24.4200 16.2494 -0.6534
24.4400 16.2627 -0.6541
24.4600 16.2760 -0.6591
24.4800 16.2893 -0.6532
24.5000 16.3027 -0.6561
24.5200 16.3160 -0.6594
24.5400 16.3294 -0.6574
24.5600 16.3428 -0.6581
24.5800 16.3561 -0.6612
24.6000 16.3694 -0.6593
24.6200 16.3828 -0.6594
24.6400 16.3961 -0.6643
24.6600 16.4094 -0.6666
24.6800 16.4227 -0.6624
24.7000 16.4361 -0.6621
24.7200 16.4494 -0.6721
24.7400 16.4627 -0.6673
24.7600 16.4760 -0.6655
24.7800 16.4893 -0.6766
24.8000 16.5027 -0.6666
24.8200 16.5160 -0.6691
24.8400 16.5294 -0.6773
24.8600 16.5427 -0.6705
24.8800 16.5561 -0.6702
24.9000 16.5694 -0.6776
24.9200 16.5828 -0.6728
24.9400 16.5961 -0.6710
24.9600 16.6094 -0.6795
24.9800 16.6228 -0.6716
25.0000 16.6361 -0.6803
25.0200 16.6494 -0.6801
25.0400 16.6627 -0.6755
25.0600 16.6760 -0.6762
25.0800 16.6894 -0.6818
25.1000 16.7027 -0.6798
25.1200 16.7160 -0.6796
25.1400 16.7293 -0.6834
25.1600 16.7427 -0.6834
25.1800 16.7561 -0.6807
25.2000 16.7694 -0.6878
25.2200 16.7827 -0.6830
25.2400 16.7960 -0.6794
25.2600 16.8094 -0.6853
25.2800 16.8228 -0.6844
25.3000 16.8361 -0.6832
25.3200 16.8494 -0.6905
25.3400 16.8628 -0.6901
25.3600 16.8761 -0.6816
25.3800 16.8894 -0.6918
25.4000 16.9027 -0.6930
25.4200 16.9160 -0.6833
25.4400 16.9294 -0.6962
25.4600 16.9427 -0.6908
25.4800 16.9560 -0.6872
25.5000 16.9693 -0.6987
25.5200 16.9826 -0.6883
25.5400 16.9960 -0.6955
25.5600 17.0093 -0.6975
25.5800 17.0227 -0.6920
25.6000 17.0361 -0.6982
25.6200 17.0494 -0.6977
25.6400 17.0628 -0.6933
25.6600 17.0761 -0.6972
25.6800 17.0894 -0.6979
25.7000 17.1028 -0.6912
25.7200 17.1161 -0.7010
25.7400 17.1294 -0.7020
25.7600 17.1427 -0.6884
25.7800 17.1560 -0.7067
25.8000 17.1694 -0.6957
25.8200 17.1827 -0.6968
25.8400 17.1961 -0.7037
25.8600 17.2094 -0.6990
25.8800 17.2227 -0.7082
25.9000 17.2360 -0.7036
25.9200 17.2494 -0.7007
25.9400 17.2627 -0.7131
25.9600 17.2761 -0.7076
25.9800 17.2895 -0.7045
26.0000 17.3028 -0.7154
26.0200 17.3161 -0.7081
26.0400 17.3294 -0.6985
26.0600 17.3428 -0.7206
26.0800 17.3561 -0.7064
26.1000 17.3694 -0.7043
26.1200 17.3827 -0.7175
26.1400 17.3960 -0.7022
26.1600 17.4094 -0.7125
26.1800 17.4227 -0.7191
26.2000 17.4360 -0.7040
26.2200 17.4493 -0.7128
26.2400 17.4627 -0.7156
26.2600 17.4761 -0.7033
26.2800 17.4894 -0.7160
26.3000 17.5027 -0.7157
26.3200 17.5161 -0.7058
26.3400 17.5294 -0.7202
26.3600 17.5427 -0.7114
26.3800 17.5561 -0.7057
26.4000 17.5694 -0.7247
26.4200 17.5827 -0.7119
26.4400 17.5961 -0.7067
26.4600 17.6094 -0.7267
26.4800 17.6228 -0.7131
26.5000 17.6361 -0.7099
26.5200 17.6494 -0.7301
26.5400 17.6628 -0.7128
26.5600 17.6760 -0.7180
26.5800 17.6893 -0.7385
26.6000 17.7026 -0.7144
26.6200 17.7160 -0.7179
26.6400 17.7293 -0.7404
26.6600 17.7427 -0.7230
26.6800 17.7560 -0.7244
26.7000 17.7694 -0.7386
26.7200 17.7828 -0.7287
26.7400 17.7961 -0.7324
26.7600 17.8094 -0.7364
26.7800 17.8228 -0.7288
26.8000 17.8361 -0.7295
26.8200 17.8495 -0.7418
26.8400 17.8628 -0.7330
26.8600 17.8760 -0.7325
26.8800 17.8894 -0.7450
26.9000 17.9027 -0.7344
26.9200 17.9160 -0.7376
26.9400 17.9293 -0.7487
26.9600 17.9426 -0.7363
26.9800 17.9560 -0.7354
27.0000 17.9693 -0.7502
27.0200 17.9827 -0.7345
27.0400 17.9960 -0.7398
27.0600 18.0094 -0.7582
27.0800 18.0228 -0.7363
27.1000 18.0361 -0.7395
27.1200 18.0494 -0.7594
27.1400 18.0628 -0.7365
27.1600 18.0761 -0.7461
27.1800 18.0894 -0.7609
27.2000 18.1027 -0.7347
27.2200 18.1160 -0.7522
27.2400 18.1294 -0.7572
27.2600 18.1427 -0.7400
27.2800 18.1560 -0.7557
27.3000 18.1693 -0.7577
27.3200 18.1827 -0.7394
27.3400 18.1960 -0.7553
27.3600 18.2094 -0.7661
27.3800 18.2227 -0.7432
27.4000 18.2361 -0.7601
27.4200 18.2494 -0.7615
27.4400 18.2628 -0.7471
27.4600 18.2761 -0.7678
27.4800 18.2894 -0.7597
27.5000 18.3028 -0.7529
27.5200 18.3161 -0.7686
27.5400 18.3295 -0.7655
27.5600 18.3428 -0.7496
27.5800 18.3561 -0.7693
27.6000 18.3694 -0.7720
27.6200 18.3828 -0.7540
27.6400 18.3961 -0.7725
27.6600 18.4093 -0.7720
27.6800 18.4227 -0.7664
27.7000 18.4360 -0.7725
27.7200 18.4494 -0.7754
27.7400 18.4627 -0.7665
27.7600 18.4760 -0.7771
27.7800 18.4894 -0.7797
27.8000 18.5028 -0.7669
27.8200 18.5161 -0.7745
27.8400 18.5294 -0.7843
27.8600 18.5428 -0.7680
27.8800 18.5561 -0.7717
27.9000 18.5694 -0.7852
27.9200 18.5827 -0.7680
27.9400 18.5960 -0.7719
27.9600 18.6094 -0.7850
27.9800 18.6227 -0.7693
28.0000 18.6361 -0.7722
28.0200 18.6494 -0.7848
28.0400 18.6627 -0.7691
28.0600 18.6760 -0.7711
28.0800 18.6894 -0.7829
28.1000 18.7027 -0.7673
28.1200 18.7160 -0.7761
28.1400 18.7294 -0.7777
28.1600 18.7428 -0.7679
28.1800 18.7561 -0.7800
28.2000 18.7694 -0.7807
28.2200 18.7828 -0.7684
28.2400 18.7961 -0.7773
28.2600 18.8095 -0.7790
28.2800 18.8228 -0.7739
28.3000 18.8361 -0.7774
28.3200 18.8494 -0.7809
28.3400 18.8627 -0.7737
28.3600 18.8761 -0.7822
28.3800 18.8894 -0.7855
28.4000 18.9027 -0.7771
28.4200 18.9160 -0.7833
28.4400 18.9294 -0.7862
28.4600 18.9427 -0.7809
28.4800 18.9560 -0.7823
28.5000 18.9694 -0.7925
28.5200 18.9828 -0.7835
28.5400 18.9961 -0.7877
28.5600 19.0094 -0.7916
28.5800 19.0227 -0.7875
28.6000 19.0361 -0.7913
28.6200 19.0494 -0.7938
28.6400 19.0628 -0.7893
28.6600 19.0761 -0.7937
28.6800 19.0894 -0.7992
28.7000 19.1027 -0.7933
28.7200 19.1161 -0.7951
28.7400 19.1293 -0.8032
28.7600 19.1426 -0.7923
28.7800 19.1560 -0.8034
28.8000 19.1693 -0.8039
28.8200 19.1827 -0.7917
28.8400 19.1960 -0.8071
28.8600 19.2094 -0.8029
28.8800 19.2228 -0.7947
28.9000 19.2362 -0.8121
28.9200 19.2495 -0.8066
28.9400 19.2628 -0.8015
28.9600 19.2762 -0.8155
28.9800 19.2895 -0.8029
29.0000 19.3027 -0.8098
29.0200 19.3160 -0.8219
29.0400 19.3293 -0.8023
29.0600 19.3427 -0.8186
29.0800 19.3560 -0.8229
29.1000 19.3693 -0.8060
29.1200 19.3827 -0.8232
29.1400 19.3961 -0.8178
29.1600 19.4094 -0.8096
29.1800 19.4227 -0.8252
29.2000 19.4361 -0.8169
29.2200 19.4494 -0.8174
29.2400 19.4628 -0.8278
29.2600 19.4761 -0.8152
29.2800 19.4894 -0.8232
29.3000 19.5027 -0.8256
29.3200 19.5161 -0.8191
29.3400 19.5294 -0.8290
29.3600 19.5427 -0.8276
29.3800 19.5560 -0.8241
29.4000 19.5694 -0.8298
29.4200 19.5827 -0.8287
29.4400 19.5960 -0.8278
29.4600 19.6093 -0.8302
29.4800 19.6227 -0.8264
29.5000 19.6360 -0.8326
29.5200 19.6494 -0.8405
29.5400 19.6627 -0.8282
29.5600 19.6760 -0.8398
29.5800 19.6894 -0.8409
29.6000 19.7028 -0.8354
29.6200 19.7161 -0.8482
29.6400 19.7294 -0.8410
29.6600 19.7427 -0.8368
29.6800 19.7561 -0.8492
29.7000 19.7694 -0.8393
29.7200 19.7827 -0.8440
29.7400 19.7960 -0.8529
29.7600 19.8094 -0.8410
29.7800 19.8227 -0.8482
29.8000 19.8361 -0.8541
29.8200 19.8493 -0.8498
29.8400 19.8626 -0.8548
29.8600 19.8760 -0.8584
29.8800 19.8894 -0.8491
29.9000 19.9027 -0.8630
29.9200 19.9160 -0.8618
29.9400 19.9294 -0.8549
29.9600 19.9428 -0.8606
29.9800 19.9561 -0.8640
30.0000 19.9695 -0.8680
30.0200 19.9828 -0.8668
30.0400 19.9961 -0.8593
30.0600 20.0094 -0.8724
30.0800 20.0227 -0.8693
30.1000 20.0360 -0.8638
30.1200 20.0493 -0.8740
30.1400 20.0627 -0.8708
30.1600 20.0761 -0.8723
30.1800 20.0894 -0.8811
30.2000 20.1027 -0.8708
30.2200 20.1160 -0.8781
30.2400 20.1294 -0.8829
30.2600 20.1427 -0.8702
30.2800 20.1560 -0.8837
30.3000 20.1694 -0.8895
30.3200 20.1827 -0.8819
30.3400 20.1961 -0.8850
30.3600 20.2094 -0.8897
30.3800 20.2227 -0.8888
30.4000 20.2361 -0.8931
30.4200 20.2495 -0.8578
30.4400 20.2628 -0.7641
30.4600 20.2761 -0.6588
30.4800 20.2894 -0.5469
30.5000 20.3027 -0.4298
30.5200 20.3160 -0.3395
30.5400 20.3293 -0.2464
30.5600 20.3426 -0.1586
30.5800 20.3560 -0.0916
30.6000 20.3694 -0.0345
30.6200 20.3827 0.0064
30.6400 20.3960 0.0299
30.6600 20.4094 0.0879
30.6800 20.4228 0.1464
30.7000 20.4362 0.1865
30.7200 20.4494 0.2358
30.7400 20.4627 0.2775
30.7600 20.4761 0.3133
30.7800 20.4894 0.3658
30.8000 20.5028 0.4152
30.8200 20.5160 0.4531
30.8400 20.5294 0.4902
30.8600 20.5427 0.4963
30.8800 20.5560 0.4774
30.9000 20.5693 0.4840
30.9200 20.5826 0.4844
30.9400 20.5960 0.4725
30.9600 20.6093 0.4835
30.9800 20.6227 0.4850
31.0000 20.6360 0.4744
31.0200 20.6494 0.4903
31.0400 20.6628 0.4833
31.0600 20.6761 0.4744
31.0800 20.6895 0.4911
31.1000 20.7028 0.4813
31.1200 20.7161 0.4746
31.1400 20.7294 0.4881
31.1600 20.7427 0.4809
31.1800 20.7560 0.4779
31.2000 20.7693 0.4922
31.2200 20.7827 0.4756
31.2400 20.7960 0.4744
31.2600 20.8093 0.4888
31.2800 20.8227 0.4733
31.3000 20.8360 0.4728
31.3200 20.8494 0.4855
31.3400 20.8628 0.4706
31.3600 20.8761 0.4743
31.3800 20.8894 0.4747
31.4000 20.9028 0.4739
31.4200 20.9161 0.4708
31.4400 20.9294 0.4720
31.4600 20.9427 0.4742
31.4800 20.9560 0.4726
31.5000 20.9694 0.4663
31.5200 20.9828 0.4713
31.5400 20.9961 0.4703
31.5600 21.0094 0.4639
31.5800 21.0228 0.4733
31.6000 21.0361 0.4598
31.6200 21.0494 0.4568
31.6400 21.0627 0.4765
31.6600 21.0760 0.4588
31.6800 21.0894 0.4573
31.7000 21.1027 0.4700
31.7200 21.1160 0.4545
31.7400 21.1294 0.4631
31.7600 21.1427 0.4733
31.7800 21.1561 0.4469
31.8000 21.1694 0.4543
31.8200 21.1827 0.4698
31.8400 21.1961 0.4436
31.8600 21.2094 0.4644
31.8800 21.2228 0.4641
31.9000 21.2361 0.4437
31.9200 21.2494 0.4619
31.9400 21.2627 0.4539
31.9600 21.2761 0.4436
31.9800 21.2894 0.4693
32.0000 21.3027 0.4565
32.0200 21.3160 0.4264
32.0400 21.3294 0.4613
32.0600 21.3427 0.4697
32.0800 21.3560 0.4380
32.1000 21.3694 0.4421
32.1200 21.3828 0.4571
32.1400 21.3961 0.4534
32.1600 21.4094 0.4475
32.1800 21.4228 0.4455
32.2000 21.4361 0.4309
32.2200 21.4495 0.4519
32.2400 21.4628 0.4587
32.2600 21.4761 0.4327
32.2800 21.4894 0.4343
32.3000 21.5027 0.4614
32.3200 21.5160 0.4422
32.3400 21.5294 0.4352
32.3600 21.5426 0.4499
32.3800 21.5560 0.4425
32.4000 21.5694 0.4421
32.4200 21.5827 0.4427
32.4400 21.5960 0.4341
32.4600 21.6094 0.4445
32.4800 21.6227 0.4444
32.5000 21.6361 0.4254
32.5200 21.6494 0.4381
32.5400 21.6628 0.4495
32.5600 21.6761 0.4269
32.5800 21.6895 0.4291
32.6000 21.7028 0.4428
32.6200 21.7161 0.4326
32.6400 21.7294 0.4415
32.6600 21.7427 0.4314
32.6800 21.7561 0.4197
32.7000 21.7694 0.4426
32.7200 21.7827 0.4324
32.7400 21.7960 0.4239
32.7600 21.8093 0.4421
32.7800 21.8227 0.4239
32.8000 21.8360 0.4268
32.8200 21.8494 0.4384
32.8400 21.8628 0.4235
32.8600 21.8761 0.4263
32.8800 21.8895 0.4332
32.9000 21.9028 0.4181
32.9200 21.9161 0.4286
32.9400 21.9294 0.4356
32.9600 21.9428 0.4188
32.9800 21.9561 0.4267
33.0000 21.9694 0.4250
33.0200 21.9827 0.4194
33.0400 21.9961 0.4282
33.0600 22.0094 0.4205
33.0800 22.0227 0.4204
33.1000 22.0360 0.4235
33.1200 22.0494 0.4220
33.1400 22.0627 0.4161
33.1600 22.0760 0.4203
33.1800 22.0894 0.4242
33.2000 22.1027 0.4118
33.2200 22.1161 0.4167
33.2400 22.1294 0.4173
33.2600 22.1427 0.4152
33.2800 22.1561 0.4242
33.3000 22.1694 0.4174
33.3200 22.1828 0.4095
33.3400 22.1961 0.4239
33.3600 22.2094 0.4190
33.3800 22.2227 0.4098
33.4000 22.2361 0.4182
33.4200 22.2494 0.4142
33.4400 22.2627 0.4089
33.4600 22.2760 0.4198
33.4800 22.2894 0.4116
33.5000 22.3027 0.4107
33.5200 22.3160 0.4171
33.5400 22.3294 0.4114
33.5600 22.3427 0.4105
33.5800 22.3561 0.4141
33.6000 22.3694 0.4088
33.6200 22.3827 0.4074
33.6400 22.3960 0.4105
33.6600 22.4094 0.4114
33.6800 22.4228 0.4033
33.7000 22.4361 0.4097
33.7200 22.4494 0.4102
33.7400 22.4628 0.4037
33.7600 22.4761 0.4079
33.7800 22.4894 0.4036
33.8000 22.5027 0.4025
33.8200 22.5160 0.4117
33.8400 22.5293 0.4050
33.8600 22.5427 0.3960
33.8800 22.5560 0.4082
33.9000 22.5693 0.4029
33.9200 22.5827 0.3966
33.9400 22.5961 0.4058
33.9600 22.6095 0.3959
33.9800 22.6228 0.3944
34.0000 22.6361 0.4107
34.0200 22.6495 0.3880
34.0400 22.6628 0.3904
34.0600 22.6761 0.4069
34.0800 22.6894 0.3920
34.1000 22.7027 0.3917
34.1200 22.7160 0.4049
34.1400 22.7294 0.3898
34.1600 22.7426 0.3870
34.1800 22.7560 0.4035
34.2000 22.7693 0.3846
34.2200 22.7827 0.3864
34.2400 22.7960 0.3986
34.2600 22.8094 0.3833
34.2800 22.8227 0.3908
34.3000 22.8361 0.3949
34.3200 22.8495 0.3803
34.3400 22.8628 0.3858
34.3600 22.8761 0.3961
34.3800 22.8895 0.3806
34.4000 22.9028 0.3864
34.4200 22.9161 0.3892
34.4400 22.9294 0.3847
34.4600 22.9427 0.3844
34.4800 22.9561 0.3880
34.5000 22.9694 0.3828
34.5200 22.9827 0.3780
34.5400 22.9960 0.3829
34.5600 23.0093 0.3864
34.5800 23.0227 0.3826
34.6000 23.0360 0.3724
34.6200 23.0493 0.3892
34.6400 23.0627 0.3825
34.6600 23.0761 0.3713
34.6800 23.0894 0.3839
34.7000 23.1027 0.3798
34.7200 23.1161 0.3722
34.7400 23.1294 0.3832
34.7600 23.1428 0.3761
34.7800 23.1561 0.3666
34.8000 23.1694 0.3815
34.8200 23.1827 0.3764
34.8400 23.1961 0.3652
34.8600 23.2094 0.3792
34.8800 23.2227 0.3705
34.9000 23.2360 0.3673
34.9200 23.2493 0.3784
34.9400 23.2627 0.3653
34.9600 23.2760 0.3679
34.9800 23.2894 0.3745
35.0000 23.3027 0.3623
35.0200 23.3161 0.3696
35.0400 23.3295 0.3677
35.0600 23.3428 0.3605
35.0800 23.3561 0.3648
35.1000 23.3694 0.3702
35.1200 23.3828 0.3596
35.1400 23.3961 0.3678
35.1600 23.4094 0.3632
35.1800 23.4227 0.3575
35.2000 23.4361 0.3652
35.2200 23.4494 0.3561
35.2400 23.4627 0.3610
35.2600 23.4760 0.3633
35.2800 23.4893 0.3574
35.3000 23.5027 0.3599
35.3200 23.5160 0.3609
35.3400 23.5293 0.3558
35.3600 23.5427 0.3597
35.3800 23.5561 0.3595
35.4000 23.5695 0.3507
35.4200 23.5828 0.3582
35.4400 23.5961 0.3645
35.4600 23.6094 0.3540
35.4800 23.6228 0.3619
35.5000 23.6361 0.3533
35.5200 23.6494 0.3566
35.5400 23.6627 0.3600
35.5600 23.6761 0.3524
35.5800 23.6894 0.3565
35.6000 23.7027 0.3523
35.6200 23.7160 0.3516
35.6400 23.7294 0.3585
35.6600 23.7427 0.3494
35.6800 23.7560 0.3496
35.7000 23.7694 0.3557
35.7200 23.7827 0.3487
35.7400 23.7961 0.3468
35.7600 23.8094 0.3538
35.7800 23.8228 0.3431
35.8000 23.8361 0.3467
35.8200 23.8494 0.3548
35.8400 23.8628 0.3387
35.8600 23.8761 0.3478
35.8800 23.8894 0.3537
35.9000 23.9027 0.3369
35.9200 23.9161 0.3479
35.9400 23.9294 0.3514
35.9600 23.9427 0.3351
35.9800 23.9560 0.3482
36.0000 23.9693 0.3508
36.0200 23.9826 0.3348
36.0400 23.9960 0.3443
36.0600 24.0093 0.3435
36.0800 24.0227 0.3344
36.1000 24.0361 0.3469
36.1200 24.0495 0.3378
36.1400 24.0628 0.3332
36.1600 24.0761 0.3426
36.1800 24.0895 0.3354
36.2000 24.1028 0.3314
36.2200 24.1161 0.3388
36.2400 24.1294 0.3323
36.2600 24.1427 0.3333
36.2800 24.1560 0.3338
36.3000 24.1694 0.3295
36.3200 24.1827 0.3325
36.3400 24.1960 0.3338
36.3600 24.2093 0.3293
36.3800 24.2227 0.3299
36.4000 24.2361 0.3321
36.4200 24.2494 0.3285
36.4400 24.2627 0.3283
36.4600 24.2761 0.3283
36.4800 24.2895 0.3242
36.5000 24.3028 0.3293
36.5200 24.3161 0.3283
36.5400 24.3294 0.3235
36.5600 24.3428 0.3304
36.5800 24.3561 0.3253
36.6000 24.3694 0.3233
36.6200 24.3827 0.3305
36.6400 24.3960 0.3246
36.6600 24.4094 0.3257
36.6800 24.4227 0.3269
36.7000 24.4360 0.3197
36.7200 24.4493 0.3283
36.7400 24.4627 0.3253
36.7600 24.4761 0.3183
36.7800 24.4894 0.3303
36.8000 24.5027 0.3233
36.8200 24.5161 0.3212
36.8400 24.5295 0.3293
36.8600 24.5428 0.3232
36.8800 24.5561 0.3250
36.9000 24.5694 0.3235
36.9200 24.5828 0.3245
36.9400 24.5961 0.3235
36.9600 24.6094 0.3258
36.9800 24.6227 0.3190
37.0000 24.6361 0.3241
37.0200 24.6494 0.3209
37.0400 24.6627 0.3146
37.0600 24.6760 0.3256
37.0800 24.6893 0.3201
37.1000 24.7027 0.3178
37.1200 24.7160 0.3214
37.1400 24.7294 0.3185
37.1600 24.7427 0.3203
37.1800 24.7561 0.3197
37.2000 24.7694 0.3121
37.2200 24.7828 0.3188
37.2400 24.7961 0.3157
37.2600 24.8094 0.3124
37.2800 24.8228 0.3155
37.3000 24.8361 0.3130
37.3200 24.8494 0.3171
37.3400 24.8627 0.3130
37.3600 24.8760 0.3085
37.3800 24.8894 0.3131
37.4000 24.9027 0.3133
37.4200 24.9160 0.3064
37.4400 24.9294 0.3097
37.4600 24.9427 0.3093
37.4800 24.9560 0.3037
37.5000 24.9694 0.3064
37.5200 24.9827 0.3092
37.5400 24.9961 0.3097
37.5600 25.0094 0.3012
37.5800 25.0227 0.3001
37.6000 25.0361 0.3040
37.6200 25.0494 0.3028
37.6400 25.0628 0.3003
37.6600 25.0761 0.3019
37.6800 25.0894 0.3000
37.7000 25.1027 0.2978
37.7200 25.1161 0.2968
37.7400 25.1294 0.2982
37.7600 25.1427 0.2969
37.7800 25.1560 0.2952
37.8000 25.1693 0.2947
37.8200 25.1827 0.2956
37.8400 25.1960 0.2952
37.8600 25.2093 0.2933
37.8800 25.2227 0.2940
37.9000 25.2361 0.2925
37.9200 25.2495 0.2911
37.9400 25.2628 0.2915
37.9600 25.2761 0.2944
37.9800 25.2894 0.2886
38.0000 25.3028 0.2922
38.0200 25.3161 0.2876
38.0400 25.3294 0.2877
38.0600 25.3427 0.2926
38.0800 25.3561 0.2894
38.1000 25.3694 0.2815
38.1200 25.3827 0.2886
38.1400 25.3960 0.2880
38.1600 25.4093 0.2825
38.1800 25.4227 0.2869
38.2000 25.4360 0.2862
38.2200 25.4493 0.2782
38.2400 25.4627 0.2907
38.2600 25.4760 0.2844
38.2800 25.4894 0.2822
38.3000 25.5028 0.2819
38.3200 25.5161 0.2812
38.3400 25.5294 0.2802
38.3600 25.5428 0.2807
38.3800 25.5561 0.2782
38.4000 25.5694 0.2786
38.4200 25.5827 0.2794
38.4400 25.5960 0.2760
38.4600 25.6094 0.2734
38.4800 25.6227 0.2808
38.5000 25.6360 0.2752
38.5200 25.6493 0.2750
38.5400 25.6627 0.2781
38.5600 25.6761 0.2757
38.5800 25.6894 0.2713
38.6000 25.7027 0.2776
38.6200 25.7161 0.2768
38.6400 25.7294 0.2665
38.6600 25.7427 0.2717
38.6800 25.7560 0.2782
38.7000 25.7694 0.2742
38.7200 25.7827 0.2714
38.7400 25.7961 0.2780
38.7600 25.8094 0.2729
38.7800 25.8228 0.2756
38.8000 25.8361 0.2744
38.8200 25.8494 0.2678
38.8400 25.8628 0.2735
38.8600 25.8761 0.2819
38.8800 25.8894 0.2638
38.9000 25.9027 0.2775
38.9200 25.9160 0.2766
38.9400 25.9293 0.2610
38.9600 25.9427 0.2800
38.9800 25.9560 0.2752
39.0000 25.9694 0.2612
39.0200 25.9828 0.2764
39.0400 25.9961 0.2697
39.0600 26.0094 0.2619
39.0800 26.0227 0.2778
39.1000 26.0361 0.2715
39.1200 26.0494 0.2602
39.1400 26.0627 0.2794
39.1600 26.0761 0.2678
39.1800 26.0894 0.2582
39.2000 26.1027 0.2765
39.2200 26.1160 0.2650
39.2400 26.1293 0.2600
39.2600 26.1426 0.2713
39.2800 26.1560 0.2632
39.3000 26.1693 0.2576
39.3200 26.1827 0.2680
39.3400 26.1961 0.2571
39.3600 26.2094 0.2541
39.3800 26.2228 0.2644
39.4000 26.2361 0.2561
39.4200 26.2494 0.2493
39.4400 26.2628 0.2611
39.4600 26.2761 0.2551
39.4800 26.2894 0.2588
39.5000 26.3027 0.2603
39.5200 26.3160 0.2527
39.5400 26.3294 0.2521
39.5600 26.3427 0.2530
39.5800 26.3560 0.2507
39.6000 26.3693 0.2530
39.6200 26.3827 0.2547
39.6400 26.3961 0.2488
39.6600 26.4094 0.2481
39.6800 26.4227 0.2534
39.7000 26.4361 0.2488
39.7200 26.4494 0.2425
39.7400 26.4628 0.2505
39.7600 26.4761 0.2484
39.7800 26.4894 0.2411
39.8000 26.5028 0.2516
39.8200 26.5161 0.2504
39.8400 26.5295 0.2382
39.8600 26.5427 0.2514
39.8800 26.5561 0.2502
39.9000 26.5694 0.2391
39.9200 26.5827 0.2522
39.9400 26.5960 0.2509
39.9600 26.6093 0.2395
39.9800 26.6226 0.2483
40.0000 26.6360 0.2480
40.0200 26.6493 0.2380
40.0400 26.6627 0.2494
40.0600 26.6760 0.2457
40.0800 26.6894 0.2307
40.1000 26.7028 0.2521
40.1200 26.7161 0.2490
40.1400 26.7294 0.2332
40.1600 26.7427 0.2562
40.1800 26.7561 0.2437
40.2000 26.7694 0.2300
40.2200 26.7827 0.2545
40.2400 26.7960 0.2465
40.2600 26.8094 0.2291
40.2800 26.8227 0.2502
40.3000 26.8361 0.2413
40.3200 26.8494 0.2275
40.3400 26.8627 0.2511
40.3600 26.8760 0.2399
40.3800 26.8894 0.2261
40.4000 26.9027 0.2493
40.4200 26.9160 0.2359
40.4400 26.9294 0.2290
40.4600 26.9428 0.2483
40.4800 26.9561 0.2326
40.5000 26.9694 0.2283
40.5200 26.9828 0.2467
40.5400 26.9961 0.2324
40.5600 27.0094 0.2246
40.5800 27.0227 0.2460
40.6000 27.0360 0.2300
40.6200 27.0494 0.2226
40.6400 27.0627 0.2428
40.6600 27.0760 0.2269
40.6800 27.0893 0.2261
40.7000 27.1027 0.2367
40.7200 27.1160 0.2248
40.7400 27.1294 0.2233
40.7600 27.1427 0.2373
40.7800 27.1561 0.2262
40.8000 27.1694 0.2273
40.8200 27.1827 0.2298
40.8400 27.1961 0.2222
40.8600 27.2094 0.2283
40.8800 27.2227 0.2280
40.9000 27.2361 0.2218
40.9200 27.2494 0.2236
40.9400 27.2628 0.2230
40.9600 27.2761 0.2240
40.9800 27.2895 0.2176
41.0000 27.3028 0.2232
41.0200 27.3161 0.2210
41.0400 27.3294 0.2175
41.0600 27.3427 0.2251
41.0800 27.3560 0.2249
41.1000 27.3693 0.2157
41.1200 27.3827 0.2240
41.1400 27.3960 0.2226
41.1600 27.4094 0.2119
41.1800 27.4228 0.2248
41.2000 27.4361 0.2243
41.2200 27.4495 0.2084
41.2400 27.4628 0.2250
41.2600 27.4761 0.2134
41.2800 27.4894 0.2094
41.3000 27.5027 0.2280
41.3200 27.5160 0.2123
41.3400 27.5294 0.2061
41.3600 27.5427 0.2220
41.3800 27.5560 0.2138
41.4000 27.5693 0.2164
41.4200 27.5826 0.2217
41.4400 27.5960 0.2072
41.4600 27.6094 0.2136
41.4800 27.6227 0.2155
41.5000 27.6360 0.2075
41.5200 27.6494 0.2157
41.5400 27.6628 0.2164
41.5600 27.6761 0.2065
41.5800 27.6894 0.2109
41.6000 27.7028 0.2151
41.6200 27.7161 0.2108
41.6400 27.7294 0.2091
41.6600 27.7427 0.2172
41.6800 27.7560 0.2067
41.7000 27.7694 0.2119
41.7200 27.7827 0.2154
41.7400 27.7960 0.2074
41.7600 27.8093 0.2093
41.7800 27.8227 0.2103
41.8000 27.8360 0.2009
41.8200 27.8494 0.2077
41.8400 27.8627 0.2070
41.8600 27.8761 0.2030
41.8800 27.8894 0.2101
41.9000 27.9028 0.2039
41.9200 27.9161 0.1973
41.9400 27.9294 0.2120
41.9600 27.9428 0.2028
41.9800 27.9561 0.1953
42.0000 27.9694 0.2042
42.0200 27.9827 0.1988
42.0400 27.9961 0.2015
42.0600 28.0094 0.2083
42.0800 28.0227 0.2032
42.1000 28.0361 0.2024
42.1200 28.0493 0.2028
42.1400 28.0627 0.1984
42.1600 28.0760 0.2001
42.1800 28.0894 0.1994
42.2000 28.1027 0.1946
42.2200 28.1161 0.2003
42.2400 28.1294 0.1987
42.2600 28.1428 0.1942
42.2800 28.1561 0.2002
42.3000 28.1694 0.1968
42.3200 28.1828 0.1976
42.3400 28.1961 0.1994
42.3600 28.2094 0.1890
42.3800 28.2227 0.1955
42.4000 28.2360 0.2033
42.4200 28.2494 0.1847
42.4400 28.2627 0.1935
42.4600 28.2761 0.1975
42.4800 28.2894 0.1864
42.5000 28.3027 0.1959
42.5200 28.3160 0.1954
42.5400 28.3294 0.1835
42.5600 28.3427 0.1964
42.5800 28.3560 0.1916
42.6000 28.3694 0.1800
42.6200 28.3828 0.1958
42.6400 28.3961 0.1858
42.6600 28.4094 0.1793
42.6800 28.4228 0.1903
42.7000 28.4361 0.1973
42.7200 28.4495 0.1795
42.7400 28.4628 0.1882
42.7600 28.4761 0.1933
42.7800 28.4894 0.1796
42.8000 28.5027 0.1894
42.8200 28.5160 0.1853
42.8400 28.5294 0.1779
42.8600 28.5427 0.1912
42.8800 28.5560 0.1798
42.9000 28.5694 0.1798
42.9200 28.5827 0.1864
42.9400 28.5960 0.1807
42.9600 28.6094 0.1793
42.9800 28.6228 0.1812
43.0000 28.6361 0.1854
43.0200 28.6494 0.1775
43.0400 28.6627 0.1797
43.0600 28.6761 0.1806
43.0800 28.6894 0.1839
43.1000 28.7028 0.1827
43.1200 28.7161 0.1785
43.1400 28.7294 0.1852
43.1600 28.7427 0.1774
43.1800 28.7561 0.1773
43.2000 28.7693 0.1804
43.2200 28.7826 0.1777
43.2400 28.7960 0.1793
43.2600 28.8093 0.1755
43.2800 28.8227 0.1764
43.3000 28.8360 0.1798
43.3200 28.8494 0.1736
43.3400 28.8628 0.1721
43.3600 28.8762 0.1792
43.3800 28.8895 0.1760
43.4000 28.9028 0.1752
43.4200 28.9162 0.1793
43.4400 28.9295 0.1715
43.4600 28.9427 0.1726
43.4800 28.9560 0.1752
43.5000 28.9693 0.1718
43.5200 28.9827 0.1712
43.5400 28.9960 0.1721
43.5600 29.0093 0.1690
43.5800 29.0227 0.1675
43.6000 29.0360 0.1718
43.6200 29.0494 0.1685
43.6400 29.0628 0.1677
43.6600 29.0761 0.1676
43.6800 29.0894 0.1789
43.7000 29.1028 0.1685
43.7200 29.1161 0.1617
43.7400 29.1294 0.1709
43.7600 29.1427 0.1676
43.7800 29.1561 0.1631
43.8000 29.1694 0.1734
43.8200 29.1827 0.1603
43.8400 29.1960 0.1647
43.8600 29.2094 0.1743
43.8800 29.2227 0.1603
43.9000 29.2360 0.1668
43.9200 29.2493 0.1679
43.9400 29.2626 0.1572
43.9600 29.2760 0.1676
43.9800 29.2894 0.1668
44.0000 29.3027 0.1593
44.0200 29.3161 0.1709
44.0400 29.3294 0.1700
44.0600 29.3428 0.1575
44.0800 29.3561 0.1714
44.1000 29.3694 0.1643
44.1200 29.3827 0.1508
44.1400 29.3961 0.1676
44.1600 29.4095 0.1635
44.1800 29.4228 0.1555
44.2000 29.4361 0.1633
44.2200 29.4494 0.1657
44.2400 29.4627 0.1536
44.2600 29.4760 0.1624
44.2800 29.4893 0.1633
44.3000 29.5026 0.1579
44.3200 29.5160 0.1600
44.3400 29.5294 0.1625
44.3600 29.5427 0.1555
44.3800 29.5560 0.1566
44.4000 29.5694 0.1635
44.4200 29.5828 0.1494
44.4400 29.5961 0.1557
44.4600 29.6094 0.1638
44.4800 29.6228 0.1487
44.5000 29.6361 0.1534
44.5200 29.6494 0.1642
44.5400 29.6627 0.1489
44.5600 29.6760 0.1485
44.5800 29.6894 0.1628
44.6000 29.7027 0.1462
44.6200 29.7160 0.1539
44.6400 29.7294 0.1604
44.6600 29.7427 0.1495
44.6800 29.7560 0.1547
44.7000 29.7694 0.1513
44.7200 29.7827 0.1457
44.7400 29.7960 0.1528
44.7600 29.8094 0.1484
44.7800 29.8227 0.1457
44.8000 29.8361 0.1532
44.8200 29.8494 0.1466
44.8400 29.8627 0.1480
44.8600 29.8761 0.1485
44.8800 29.8895 0.1479
44.9000 29.9028 0.1437
44.9200 29.9161 0.1489
44.9400 29.9294 0.1450
44.9600 29.9427 0.1466
44.9800 29.9560 0.1434
45.0000 29.9694 0.1435
45.0200 29.9827 0.1457
45.0400 29.9960 0.1365
45.0600 30.0094 0.1456
45.0800 30.0227 0.1434
45.1000 30.0360 0.1422
45.1200 30.0494 0.1422
45.1400 30.0628 0.1356
45.1600 30.0762 0.1387
45.1800 30.0895 0.1445
45.2000 30.1027 0.1373
45.2200 30.1161 0.1354
45.2400 30.1294 0.1421
45.2600 30.1428 0.1403
45.2800 30.1561 0.1424
45.3000 30.1694 0.1382
45.3200 30.1827 0.1353
45.3400 30.1961 0.1349
45.3600 30.2093 0.1341
45.3800 30.2227 0.1329
45.4000 30.2360 0.1354
45.4200 30.2493 0.1365
45.4400 30.2627 0.1303
45.4600 30.2760 0.1318
45.4800 30.2894 0.1350
45.5000 30.3027 0.1303
45.5200 30.3161 0.1289
45.5400 30.3295 0.1341
45.5600 30.3428 0.1297
45.5800 30.3561 0.1277
45.6000 30.3695 0.1319
45.6200 30.3828 0.1292
45.6400 30.3960 0.1258
45.6600 30.4093 0.1364
45.6800 30.4227 0.1296
45.7000 30.4360 0.1238
45.7200 30.4493 0.1325
45.7400 30.4627 0.1275
45.7600 30.4760 0.1246
45.7800 30.4894 0.1368
45.8000 30.5027 0.1238
45.8200 30.5161 0.1214
45.8400 30.5294 0.1353
45.8600 30.5428 0.1279
45.8800 30.5561 0.1249
45.9000 30.5694 0.1329
45.9200 30.5827 0.1225
45.9400 30.5960 0.1255
45.9600 30.6094 0.1373
45.9800 30.6228 0.1148
46.0000 30.6361 0.1292
46.0200 30.6494 0.1340
46.0400 30.6628 0.1101
46.0600 30.6761 0.1333
46.0800 30.6894 0.1303
46.1000 30.7027 0.1127
46.1200 30.7160 0.1322
46.1400 30.7294 0.1249
46.1600 30.7427 0.1186
46.1800 30.7560 0.1325
46.2000 30.7694 0.1231
46.2200 30.7827 0.1159
46.2400 30.7961 0.1317
46.2600 30.8094 0.1165
46.2800 30.8227 0.1177
46.3000 30.8361 0.1282
46.3200 30.8495 0.1135
46.3400 30.8628 0.1170
46.3600 30.8761 0.1264
46.3800 30.8894 0.1131
46.4000 30.9028 0.1211
46.4200 30.9161 0.1220
46.4400 30.9294 0.1141
46.4600 30.9427 0.1175
46.4800 30.9560 0.1263
46.5000 30.9693 0.1145
46.5200 30.9827 0.1165
46.5400 30.9960 0.1203
46.5600 31.0094 0.1125
46.5800 31.0227 0.1163
46.6000 31.0361 0.1184
46.6200 31.0494 0.1170
46.6400 31.0628 0.1111
46.6600 31.0761 0.1178
46.6800 31.0894 0.1155
46.7000 31.1028 0.1075
46.7200 31.1161 0.1188
46.7400 31.1294 0.1120
46.7600 31.1427 0.1112
46.7800 31.1561 0.1137
46.8000 31.1694 0.1088
46.8200 31.1827 0.1148
46.8400 31.1960 0.1166
46.8600 31.2094 0.1086
46.8800 31.2227 0.1065
46.9000 31.2361 0.1152
46.9200 31.2494 0.1094
46.9400 31.2627 0.1051
46.9600 31.2761 0.1169
46.9800 31.2894 0.1020
47.0000 31.3028 0.1037
47.0200 31.3161 0.1171
47.0400 31.3294 0.1033
47.0600 31.3428 0.1049
47.0800 31.3561 0.1092
47.1000 31.3694 0.1013
47.1200 31.3827 0.1067
47.1400 31.3961 0.1120
47.1600 31.4094 0.0992
47.1800 31.4227 0.1083
47.2000 31.4360 0.1094
47.2200 31.4493 0.0982
47.2400 31.4627 0.1051
47.2600 31.4760 0.1060
47.2800 31.4894 0.0963
47.3000 31.5027 0.1036
47.3200 31.5161 0.1046
47.3400 31.5294 0.0947
47.3600 31.5427 0.1040
47.3800 31.5561 0.1054
47.4000 31.5694 0.0958
47.4200 31.5828 0.1049
47.4400 31.5961 0.0974
47.4600 31.6094 0.0957
47.4800 31.6227 0.1040
47.5000 31.6360 0.0951
47.5200 31.6494 0.0963
47.5400 31.6627 0.1037
47.5600 31.6760 0.0931
47.5800 31.6894 0.0956
47.6000 31.7027 0.1001
47.6200 31.7160 0.0937
47.6400 31.7294 0.0966
47.6600 31.7427 0.0992
47.6800 31.7561 0.0917
47.7000 31.7695 0.0954
47.7200 31.7828 0.0991
47.7400 31.7961 0.0897
47.7600 31.8094 0.0919
47.7800 31.8228 0.0956
47.8000 31.8361 0.0926
47.8200 31.8494 0.0921
47.8400 31.8627 0.0927
47.8600 31.8760 0.0905
47.8800 31.8894 0.0890
47.9000 31.9027 0.0937
47.9200 31.9160 0.0923
47.9400 31.9294 0.0847
47.9600 31.9427 0.0911
47.9800 31.9560 0.0884
48.0000 31.9693 0.0824
48.0200 31.9827 0.0932
48.0400 31.9960 0.0888
48.0600 32.0094 0.0857
48.0800 32.0227 0.0859
48.1000 32.0360 0.0872
48.1200 32.0494 0.0850
48.1400 32.0628 0.0844
48.1600 32.0761 0.0887
48.1800 32.0894 0.0805
48.2000 32.1028 0.0882
48.2200 32.1161 0.0866
48.2400 32.1294 0.0763
48.2600 32.1427 0.0926
48.2800 32.1560 0.0845
48.3000 32.1693 0.0775
48.3200 32.1826 0.0840
48.3400 32.1960 0.0880
48.3600 32.2093 0.0744
48.3800 32.2227 0.0815
48.4000 32.2361 0.0852
48.4200 32.2495 0.0722
48.4400 32.2628 0.0811
48.4600 32.2761 0.0876
48.4800 32.2895 0.0697
48.5000 32.3028 0.0822
48.5200 32.3161 0.0823
48.5400 32.3294 0.0688
48.5600 32.3427 0.0796
48.5800 32.3560 0.0840
48.6000 32.3694 0.0686
48.6200 32.3827 0.0810
48.6400 32.3960 0.0824
48.6600 32.4093 0.0707
48.6800 32.4227 0.0795
48.7000 32.4360 0.0777
48.7200 32.4494 0.0699
48.7400 32.4627 0.0780
48.7600 32.4761 0.0748
48.7800 32.4895 0.0676
48.8000 32.5028 0.0795
48.8200 32.5161 0.0781
48.8400 32.5295 0.0671
48.8600 32.5428 0.0767
48.8800 32.5561 0.0778
48.9000 32.5694 0.0715
48.9200 32.5827 0.0717
48.9400 32.5960 0.0765
48.9600 32.6094 0.0706
48.9800 32.6227 0.0700
49.0000 32.6360 0.0776
49.0200 32.6493 0.0689
49.0400 32.6627 0.0682
49.0600 32.6760 0.0730
49.0800 32.6894 0.0740
49.1000 32.7027 0.0642
49.1200 32.7161 0.0745
49.1400 32.7295 0.0713
49.1600 32.7428 0.0624
49.1800 32.7561 0.0748
49.2000 32.7694 0.0700
49.2200 32.7828 0.0655
49.2400 32.7961 0.0727
49.2600 32.8094 0.0632
49.2800 32.8227 0.0655
49.3000 32.8361 0.0704
49.3200 32.8494 0.0624
49.3400 32.8627 0.0665
49.3600 32.8760 0.0676
49.3800 32.8893 0.0580
49.4000 32.9027 0.0649
49.4200 32.9160 0.0703
49.4400 32.9294 0.0624
49.4600 32.9427 0.0599
49.4800 32.9561 0.0670
49.5000 32.9695 0.0642
49.5200 32.9828 0.0627
49.5400 32.9961 0.0645
49.5600 33.0094 0.0642
49.5800 33.0228 0.0599
49.6000 33.0361 0.0631
49.6200 33.0494 0.0657
49.6400 33.0627 0.0611
49.6600 33.0760 0.0623
49.6800 33.0894 0.0644
49.7000 33.1027 0.0605
49.7200 33.1160 0.0657
49.7400 33.1294 0.0665
49.7600 33.1427 0.0561
49.7800 33.1560 0.0620
49.8000 33.1693 0.0642
49.8200 33.1827 0.0537
49.8400 33.1961 0.0629
49.8600 33.2094 0.0613
49.8800 33.2228 0.0537
49.9000 33.2361 0.0613
49.9200 33.2494 0.0627
49.9400 33.2628 0.0503
49.9600 33.2762 0.0563
49.9800 33.2894 0.0616
50.0000 33.3027 0.0481
50.0200 33.3161 0.0575
50.0400 33.3294 0.0571
50.0600 33.3427 0.0477
50.0800 33.3560 0.0548
50.1000 33.3693 0.0559
50.1200 33.3827 0.0496
50.1400 33.3960 0.0508
50.1600 33.4094 0.0540
50.1800 33.4227 0.0511
50.2000 33.4361 0.0553
50.2200 33.4494 0.0500
50.2400 33.4627 0.0451
50.2600 33.4761 0.0585
50.2800 33.4894 0.0508
50.3000 33.5028 0.0427
50.3200 33.5161 0.0547
50.3400 33.5294 0.0514
50.3600 33.5427 0.0453
50.3800 33.5561 0.0535
50.4000 33.5694 0.0465
50.4200 33.5827 0.0416
50.4400 33.5960 0.0527
50.4600 33.6093 0.0462
50.4800 33.6227 0.0433
50.5000 33.6360 0.0503
50.5200 33.6493 0.0501
50.5400 33.6627 0.0416
50.5600 33.6761 0.0470
50.5800 33.6895 0.0476
50.6000 33.7028 0.0371
50.6200 33.7161 0.0459
50.6400 33.7295 0.0449
50.6600 33.7428 0.0388
50.6800 33.7561 0.0456
50.7000 33.7694 0.0415
50.7200 33.7827 0.0383
50.7400 33.7960 0.0459
50.7600 33.8093 0.0393
50.7800 33.8227 0.0353
50.8000 33.8360 0.0453
50.8200 33.8494 0.0370
50.8400 33.8627 0.0333
50.8600 33.8761 0.0425
50.8800 33.8894 0.0333
50.9000 33.9027 0.0357
50.9200 33.9161 0.0418
50.9400 33.9295 0.0326
50.9600 33.9428 0.0333
50.9800 33.9561 0.0398
51.0000 33.9694 0.0320
51.0200 33.9827 0.0357
51.0400 33.9961 0.0359
51.0600 34.0094 0.0334
51.0800 34.0227 0.0364
51.1000 34.0360 0.0293
51.1200 34.0494 0.0350
51.1400 34.0627 0.0327
51.1600 34.0760 0.0307
51.1800 34.0893 0.0375
51.2000 34.1027 0.0278
51.2200 34.1161 0.0294
51.2400 34.1294 0.0291
51.2600 34.1427 0.0319
51.2800 34.1561 0.0309
51.3000 34.1695 0.0324
51.3200 34.1828 0.0251
51.3400 34.1961 0.0335
51.3600 34.2094 0.0311
51.3800 34.2228 0.0253
51.4000 34.2361 0.0341
51.4200 34.2494 0.0284
51.4400 34.2627 0.0259
51.4600 34.2761 0.0339
51.4800 34.2894 0.0286
51.5000 34.3027 0.0263
51.5200 34.3160 0.0280
51.5400 34.3293 0.0258
51.5600 34.3427 0.0260
51.5800 34.3560 0.0280
51.6000 34.3694 0.0259
51.6200 34.3827 0.0264
51.6400 34.3961 0.0244
51.6600 34.4094 0.0240
51.6800 34.4228 0.0241
51.7000 34.4361 0.0214
51.7200 34.4494 0.0243
51.7400 34.4628 0.0247
51.7600 34.4761 0.0222
51.7800 34.4894 0.0229
51.8000 34.5027 0.0231
51.8200 34.5160 0.0203
51.8400 34.5294 0.0239
51.8600 34.5427 0.0187
51.8800 34.5560 0.0226
51.9000 34.5694 0.0209
51.9200 34.5827 0.0199
51.9400 34.5960 0.0190
51.9600 34.6094 0.0189
51.9800 34.6227 0.0208
52.0000 34.6360 0.0187
52.0200 34.6494 0.0152
52.0400 34.6627 0.0219
52.0600 34.6760 0.0144
52.0800 34.6894 0.0178
52.1000 34.7028 0.0175
52.1200 34.7161 0.0151
52.1400 34.7294 0.0130
52.1600 34.7427 0.0165
52.1800 34.7560 0.0169
52.2000 34.7694 0.0083
52.2200 34.7827 0.0209
52.2400 34.7960 0.0118
52.2600 34.8093 0.0093
52.2800 34.8227 0.0211
52.3000 34.8360 0.0066
52.3200 34.8493 0.0065
52.3400 34.8627 0.0184
52.3600 34.8761 0.0068
52.3800 34.8895 0.0081
52.4000 34.9028 0.0147
52.4200 34.9161 0.0047
52.4400 34.9294 0.0083
52.4600 34.9427 0.0146
52.4800 34.9561 0.0034
52.5000 34.9694 0.0131
52.5200 34.9827 0.0159
52.5400 34.9960 -0.0003
52.5600 35.0094 0.0119
52.5800 35.0227 0.0153
52.6000 35.0360 -0.0017
52.6200 35.0493 0.0128
52.6400 35.0627 0.0091
52.6600 35.0760 0.0031
52.6800 35.0894 0.0095
52.7000 35.1027 0.0122
52.7200 35.1161 0.0028
52.7400 35.1294 0.0052
52.7600 35.1428 0.0014
52.7800 35.1561 0.0016
52.8000 35.1694 0.0091
52.8200 35.1828 0.0048
52.8400 35.1961 -0.0017
52.8600 35.2094 0.0064
52.8800 35.2227 0.0090
52.9000 35.2360 0.0015
52.9200 35.2493 0.0013
52.9400 35.2627 0.0055
52.9600 35.2760 -0.0016
52.9800 35.2893 -0.0011
53.0000 35.3027 0.0028
53.0200 35.3161 -0.0022
53.0400 35.3294 -0.0003
53.0600 35.3428 -0.0001
53.0800 35.3561 0.0006
53.1000 35.3695 -0.0020
53.1200 35.3828 -0.0038
53.1400 35.3961 -0.0019
53.1600 35.4094 -0.0001
53.1800 35.4227 -0.0063
53.2000 35.4361 -0.0022
53.2200 35.4494 -0.0012
53.2400 35.4627 -0.0079
53.2600 35.4761 -0.0048
53.2800 35.4894 -0.0035
53.3000 35.5028 -0.0091
53.3200 35.5160 -0.0057
53.3400 35.5293 -0.0040
53.3600 35.5427 -0.0012
53.3800 35.5560 -0.0083
53.4000 35.5694 -0.0094
53.4200 35.5827 -0.0023
53.4400 35.5960 -0.0066
53.4600 35.6094 -0.0094
53.4800 35.6228 -0.0036
53.5000 35.6361 -0.0133
53.5200 35.6494 -0.0040
53.5400 35.6627 -0.0017
53.5600 35.6761 -0.0130
53.5800 35.6894 -0.0089
53.6000 35.7027 -0.0038
53.6200 35.7161 -0.0111
53.6400 35.7294 -0.0089
53.6600 35.7428 -0.0030
53.6800 35.7561 -0.0120
53.7000 35.7693 -0.0123
53.7200 35.7827 -0.0056
53.7400 35.7960 -0.0159
53.7600 35.8094 -0.0142
53.7800 35.8227 -0.0038
53.8000 35.8361 -0.0147
53.8200 35.8494 -0.0190
53.8400 35.8628 -0.0038
53.8600 35.8761 -0.0211
53.8800 35.8894 -0.0180
53.9000 35.9028 -0.0052
53.9200 35.9161 -0.0260
53.9400 35.9294 -0.0120
53.9600 35.9427 -0.0090
53.9800 35.9560 -0.0231
54.0000 35.9694 -0.0166
54.0200 35.9827 -0.0121
54.0400 35.9960 -0.0248
54.0600 36.0093 -0.0176
54.0800 36.0227 -0.0122
54.1000 36.0361 -0.0202
54.1200 36.0494 -0.0236
54.1400 36.0627 -0.0179
54.1600 36.0761 -0.0191
54.1800 36.0894 -0.0271
54.2000 36.1028 -0.0176
54.2200 36.1161 -0.0161
54.2400 36.1294 -0.0296
54.2600 36.1428 -0.0151
54.2800 36.1561 -0.0216
54.3000 36.1695 -0.0282
54.3200 36.1827 -0.0190
54.3400 36.1960 -0.0192
54.3600 36.2094 -0.0325
54.3800 36.2227 -0.0203
54.4000 36.2360 -0.0239
54.4200 36.2493 -0.0318
54.4400 36.2627 -0.0129
54.4600 36.2760 -0.0276
54.4800 36.2894 -0.0325
54.5000 36.3027 -0.0179
54.5200 36.3161 -0.0294
54.5400 36.3295 -0.0315
54.5600 36.3428 -0.0233
54.5800 36.3561 -0.0305
54.6000 36.3694 -0.0317
54.6200 36.3827 -0.0232
54.6400 36.3961 -0.0336
54.6600 36.4094 -0.0332
54.6800 36.4227 -0.0242
54.7000 36.4360 -0.0387
54.7200 36.4494 -0.0273
54.7400 36.4627 -0.0268
54.7600 36.4760 -0.0389
54.7800 36.4894 -0.0302
54.8000 36.5027 -0.0348
54.8200 36.5160 -0.0364
54.8400 36.5294 -0.0294
54.8600 36.5427 -0.0409
54.8800 36.5560 -0.0362
54.9000 36.5694 -0.0349
54.9200 36.5828 -0.0431
54.9400 36.5961 -0.0341
54.9600 36.6094 -0.0325
54.9800 36.6227 -0.0433
55.0000 36.6361 -0.0305
55.0200 36.6494 -0.0383
55.0400 36.6627 -0.0447
55.0600 36.6760 -0.0250
55.0800 36.6893 -0.0413
55.1000 36.7027 -0.0456
55.1200 36.7160 -0.0293
55.1400 36.7293 -0.0443
55.1600 36.7427 -0.0408
55.1800 36.7560 -0.0308
55.2000 36.7694 -0.0480
55.2200 36.7827 -0.0394
55.2400 36.7960 -0.0346
55.2600 36.8094 -0.0518
55.2800 36.8227 -0.0418
55.3000 36.8361 -0.0359
55.3200 36.8494 -0.0553
55.3400 36.8627 -0.0414
55.3600 36.8761 -0.0385
55.3800 36.8894 -0.0517
55.4000 36.9027 -0.0385
55.4200 36.9161 -0.0418
55.4400 36.9294 -0.0489
55.4600 36.9428 -0.0451
55.4800 36.9561 -0.0419
55.5000 36.9694 -0.0507
55.5200 36.9827 -0.0433
55.5400 36.9960 -0.0413
55.5600 37.0093 -0.0558
55.5800 37.0226 -0.0402
55.6000 37.0360 -0.0448
55.6200 37.0494 -0.0554
55.6400 37.0628 -0.0463
55.6600 37.0761 -0.0523
55.6800 37.0895 -0.0500
55.7000 37.1028 -0.0493
55.7200 37.1161 -0.0491
55.7400 37.1295 -0.0515
55.7600 37.1428 -0.0540
55.7800 37.1561 -0.0483
55.8000 37.1694 -0.0483
55.8200 37.1827 -0.0574
55.8400 37.1960 -0.0512
55.8600 37.2093 -0.0534
55.8800 37.2226 -0.0540
55.9000 37.2360 -0.0503
55.9200 37.2493 -0.0533
55.9400 37.2627 -0.0592
55.9600 37.2760 -0.0495
55.9800 37.2894 -0.0596
56.0000 37.3028 -0.0598
56.0200 37.3161 -0.0481
56.0400 37.3294 -0.0606
56.0600 37.3428 -0.0594
56.0800 37.3561 -0.0516
56.1000 37.3695 -0.0641
56.1200 37.3828 -0.0585
56.1400 37.3961 -0.0518
56.1600 37.4094 -0.0576
56.1800 37.4227 -0.0631
56.2000 37.4360 -0.0564
56.2200 37.4493 -0.0617
56.2400 37.4627 -0.0622
56.2600 37.4760 -0.0583
56.2800 37.4894 -0.0654
56.3000 37.5027 -0.0669
56.3200 37.5160 -0.0631
56.3400 37.5294 -0.0602
56.3600 37.5427 -0.0664
56.3800 37.5561 -0.0627
56.4000 37.5694 -0.0603
56.4200 37.5827 -0.0662
56.4400 37.5961 -0.0656
56.4600 37.6094 -0.0587
56.4800 37.6227 -0.0625
56.5000 37.6361 -0.0668
56.5200 37.6494 -0.0647
56.5400 37.6627 -0.0647
56.5600 37.6761 -0.0733
56.5800 37.6894 -0.0611
56.6000 37.7027 -0.0662
56.6200 37.7160 -0.0692
56.6400 37.7294 -0.0659
56.6600 37.7427 -0.0722
56.6800 37.7560 -0.0681
56.7000 37.7694 -0.0672
56.7200 37.7828 -0.0752
56.7400 37.7961 -0.0684
56.7600 37.8095 -0.0717
56.7800 37.8228 -0.0742
56.8000 37.8361 -0.0748
56.8200 37.8494 -0.0677
56.8400 37.8627 -0.0746
56.8600 37.8760 -0.0736
56.8800 37.8894 -0.0738
56.9000 37.9027 -0.0766
56.9200 37.9161 -0.0798
56.9400 37.9294 -0.0715
56.9600 37.9427 -0.0794
56.9800 37.9560 -0.0761
57.0000 37.9694 -0.0739
57.0200 37.9827 -0.0826
57.0400 37.9960 -0.0739
57.0600 38.0094 -0.0770
57.0800 38.0228 -0.0821
57.1000 38.0361 -0.0763
57.1200 38.0494 -0.0808
57.1400 38.0628 -0.0812
57.1600 38.0761 -0.0768
57.1800 38.0895 -0.0835
57.2000 38.1028 -0.0821
57.2200 38.1161 -0.0765
57.2400 38.1294 -0.0871
57.2600 38.1427 -0.0909
57.2800 38.1560 -0.0773
57.3000 38.1694 -0.0849
57.3200 38.1827 -0.0830
57.3400 38.1960 -0.0778
57.3600 38.2094 -0.0869
57.3800 38.2227 -0.0898
57.4000 38.2360 -0.0833
57.4200 38.2494 -0.0866
57.4400 38.2628 -0.0859
57.4600 38.2761 -0.0887
57.4800 38.2894 -0.0885
57.5000 38.3027 -0.0893
57.5200 38.3161 -0.0919
57.5400 38.3295 -0.0885
57.5600 38.3428 -0.0864
57.5800 38.3561 -0.0959
57.6000 38.3694 -0.0880
57.6200 38.3827 -0.0893
57.6400 38.3961 -0.1006
57.6600 38.4093 -0.0841
57.6800 38.4226 -0.0899
57.7000 38.4360 -0.0986
57.7200 38.4493 -0.0838
57.7400 38.4627 -0.0963
57.7600 38.4760 -0.1032
57.7800 38.4894 -0.0830
57.8000 38.5028 -0.0961
57.8200 38.5161 -0.1068
57.8400 38.5295 -0.0849
57.8600 38.5428 -0.1015
57.8800 38.5561 -0.1024
57.9000 38.5695 -0.0839
57.9200 38.5828 -0.1083
57.9400 38.5960 -0.1019
57.9600 38.6093 -0.0795
57.9800 38.6227 -0.1029
58.0000 38.6360 -0.1059
58.0200 38.6493 -0.0875
58.0400 38.6627 -0.1084
58.0600 38.6760 -0.1030
58.0800 38.6894 -0.0916
58.1000 38.7027 -0.1103
58.1200 38.7161 -0.0986
58.1400 38.7294 -0.0908
58.1600 38.7428 -0.1133
58.1800 38.7561 -0.1031
58.2000 38.7694 -0.0983
58.2200 38.7827 -0.1086
58.2400 38.7961 -0.1055
58.2600 38.8094 -0.0970
58.2800 38.8228 -0.1071
58.3000 38.8361 -0.1085
58.3200 38.8494 -0.0972
58.3400 38.8627 -0.1074
58.3600 38.8761 -0.1145
58.3800 38.8894 -0.1010
58.4000 38.9027 -0.1075
58.4200 38.9160 -0.1118
58.4400 38.9294 -0.1020
58.4600 38.9427 -0.1093
58.4800 38.9561 -0.1132
58.5000 38.9694 -0.1040
58.5200 38.9828 -0.1125
58.5400 38.9961 -0.1199
58.5600 39.0094 -0.1055
58.5800 39.0227 -0.1115
58.6000 39.0361 -0.1233
58.6200 39.0495 -0.1111
58.6400 39.0628 -0.1077
58.6600 39.0761 -0.1231
58.6800 39.0894 -0.1083
58.7000 39.1027 -0.1151
58.7200 39.1161 -0.1241
58.7400 39.1294 -0.1143
58.7600 39.1427 -0.1141
58.7800 39.1560 -0.1245
58.8000 39.1693 -0.1143
58.8200 39.1827 -0.1199
58.8400 39.1960 -0.1293
58.8600 39.2094 -0.1116
58.8800 39.2228 -0.1208
58.9000 39.2361 -0.1309
58.9200 39.2495 -0.1172
58.9400 39.2628 -0.1200
58.9600 39.2761 -0.1328
58.9800 39.2894 -0.1207
59.0000 39.3027 -0.1188
59.0200 39.3160 -0.1331
59.0400 39.3294 -0.1204
59.0600 39.3427 -0.1206
59.0800 39.3561 -0.1346
59.1000 39.3694 -0.1261
59.1200 39.3827 -0.1226
59.1400 39.3960 -0.1413
59.1600 39.4094 -0.1270
59.1800 39.4227 -0.1269
59.2000 39.4360 -0.1410
59.2200 39.4494 -0.1230
59.2400 39.4627 -0.1400
59.2600 39.4761 -0.1302
59.2800 39.4894 -0.1282
59.3000 39.5027 -0.1336
59.3200 39.5161 -0.1331
59.3400 39.5295 -0.1280
59.3600 39.5428 -0.1343
59.3800 39.5561 -0.1363
59.4000 39.5694 -0.1273
59.4200 39.5827 -0.1304
59.4400 39.5960 -0.1430
59.4600 39.6094 -0.1295
59.4800 39.6227 -0.1331
59.5000 39.6360 -0.1411
59.5200 39.6494 -0.1321
59.5400 39.6627 -0.1325
59.5600 39.6760 -0.1434
59.5800 39.6894 -0.1310
59.6000 39.7028 -0.1360
59.6200 39.7161 -0.1462
59.6400 39.7295 -0.1324
59.6600 39.7428 -0.1404
59.6800 39.7561 -0.1453
59.7000 39.7694 -0.1364
59.7200 39.7828 -0.1444
59.7400 39.7961 -0.1441
59.7600 39.8094 -0.1372
59.7800 39.8227 -0.1427
59.8000 39.8361 -0.1461
59.8200 39.8494 -0.1443
59.8400 39.8627 -0.1480
59.8600 39.8760 -0.1455
59.8800 39.8893 -0.1443
59.9000 39.9027 -0.1542
59.9200 39.9160 -0.1483
59.9400 39.9294 -0.1459
59.9600 39.9427 -0.1515
59.9800 39.9561 -0.1521
60.0000 39.9695 -0.1552
60.0200 39.9828 -0.1486
60.0400 39.9961 -0.1615
60.0470 40.0006 -0.1803
