Raw Data
Time Displacement Force
(s) (mm) (N)
0.0000 0.0000 0.2018
0.0200 0.0001 0.2139
0.0400 0.0022 0.2906
0.0600 0.0101 0.2718
0.0800 0.0219 0.1910
0.1000 0.0344 0.2105
0.1200 0.0471 0.2258
0.1400 0.0606 0.1978
0.1600 0.0746 0.2114
0.1800 0.0888 0.2053
0.2000 0.1027 0.1921
0.2200 0.1163 0.2054
0.2400 0.1297 0.2063
0.2600 0.1429 0.1922
0.2800 0.1563 0.2136
0.3000 0.1697 0.1975
0.3200 0.1831 0.1914
0.3400 0.1964 0.2180
0.3600 0.2097 0.1914
0.3800 0.2231 0.1940
0.4000 0.2364 0.2074
0.4200 0.2497 0.1812
0.4400 0.2630 0.1936
0.4600 0.2763 0.1956
0.4800 0.2897 0.1850
0.5000 0.3031 0.1845
0.5200 0.3164 0.1833
0.5400 0.3297 0.1773
0.5600 0.3430 0.1823
0.5800 0.3564 0.1819
0.6000 0.3697 0.1678
0.6200 0.3830 0.1717
0.6400 0.3964 0.1751
0.6600 0.4098 0.1611
0.6800 0.4231 0.1687
0.7000 0.4365 0.1647
0.7200 0.4498 0.1570
0.7400 0.4631 0.1633
0.7600 0.4765 0.1602
0.7800 0.4898 0.1513
0.8000 0.5031 0.1576
0.8200 0.5164 0.1585
0.8400 0.5297 0.1426
0.8600 0.5431 0.1528
0.8800 0.5564 0.1528
0.9000 0.5696 0.1355
0.9200 0.5830 0.1445
0.9400 0.5963 0.1489
0.9600 0.6097 0.1283
0.9800 0.6230 0.1370
1.0000 0.6364 0.1410
1.0200 0.6497 0.1260
1.0400 0.6631 0.1292
1.0600 0.6764 0.1323
1.0800 0.6898 0.1195
1.1000 0.7031 0.1296
1.1200 0.7164 0.1243
1.1400 0.7298 0.1111
1.1600 0.7431 0.1259
1.1800 0.7564 0.1230
1.2000 0.7697 0.1124
1.2200 0.7831 0.1211
1.2400 0.7964 0.1173
1.2600 0.8097 0.1077
1.2800 0.8230 0.1168
1.3000 0.8364 0.1168
1.3200 0.8497 0.1013
1.3400 0.8630 0.1164
1.3600 0.8764 0.1045
1.3800 0.8897 0.0984
1.4000 0.9031 0.1094
1.4200 0.9164 0.0982
1.4400 0.9297 0.0945
1.4600 0.9431 0.1006
1.4800 0.9565 0.0937
1.5000 0.9698 0.0868
1.5200 0.9831 0.0933
1.5400 0.9964 0.0893
1.5600 1.0097 0.0854
1.5800 1.0231 0.0873
1.6000 1.0364 0.0888
1.6200 1.0497 0.0793
1.6400 1.0630 0.0827
1.6600 1.0764 0.0896
1.6800 1.0897 0.0755
1.7000 1.1030 0.0775
1.7200 1.1164 0.0837
1.7400 1.1298 0.0670
1.7600 1.1432 0.0763
1.7800 1.1565 0.0724
1.8000 1.1698 0.0672
1.8200 1.1831 0.0754
1.8400 1.1965 0.0706
1.8600 1.2098 0.0611
1.8800 1.2231 0.0695
1.9000 1.2364 0.0695
1.9200 1.2497 0.0593
1.9400 1.2631 0.0639
1.9600 1.2764 0.0614
1.9800 1.2897 0.0559
2.0000 1.3030 0.0619
2.0200 1.3164 0.0560
2.0400 1.3297 0.0538
2.0600 1.3430 0.0570
2.0800 1.3564 0.0477
2.1000 1.3698 0.0488
2.1200 1.3832 0.0498
2.1400 1.3965 0.0433
2.1600 1.4098 0.0476
2.1800 1.4231 0.0467
2.2000 1.4365 0.0394
2.2200 1.4498 0.0431
2.2400 1.4631 0.0407
2.2600 1.4763 0.0349
2.2800 1.4897 0.0430
2.3000 1.5030 0.0378
2.3200 1.5164 0.0263
2.3400 1.5297 0.0358
2.3600 1.5430 0.0335
2.3800 1.5564 0.0271
2.4000 1.5698 0.0310
2.4200 1.5831 0.0304
2.4400 1.5964 0.0251
2.4600 1.6098 0.0277
2.4800 1.6231 0.0213
2.5000 1.6364 0.0244
2.5200 1.6497 0.0239
2.5400 1.6630 0.0250
2.5600 1.6764 0.0135
2.5800 1.6898 0.0156
2.6000 1.7031 0.0204
2.6200 1.7164 0.0116
2.6400 1.7298 0.0093
2.6600 1.7431 0.0191
2.6800 1.7564 0.0018
2.7000 1.7697 0.0110
2.7200 1.7830 0.0111
2.7400 1.7964 0.0047
2.7600 1.8097 0.0085
2.7800 1.8230 0.0045
2.8000 1.8364 -0.0005
2.8200 1.8497 0.0063
2.8400 1.8631 0.0043
2.8600 1.8764 -0.0068
2.8800 1.8898 -0.0016
2.9000 1.9031 -0.0023
2.9200 1.9164 -0.0119
2.9400 1.9298 -0.0003
2.9600 1.9431 -0.0080
2.9800 1.9564 -0.0151
3.0000 1.9698 0.0000
3.0200 1.9831 -0.0122
3.0400 1.9964 -0.0158
3.0600 2.0097 -0.0064
3.0800 2.0230 -0.0154
3.1000 2.0363 -0.0142
3.1200 2.0497 -0.0105
3.1400 2.0630 -0.0206
3.1600 2.0764 -0.0147
3.1800 2.0898 -0.0145
3.2000 2.1031 -0.0240
3.2200 2.1165 -0.0193
3.2400 2.1298 -0.0220
3.2600 2.1431 -0.0247
3.2800 2.1565 -0.0188
3.3000 2.1698 -0.0288
3.3200 2.1831 -0.0319
3.3400 2.1964 -0.0247
3.3600 2.2097 -0.0286
3.3800 2.2231 -0.0344
3.4000 2.2364 -0.0345
3.4200 2.2497 -0.0332
3.4400 2.2630 -0.0380
3.4600 2.2764 -0.0417
3.4800 2.2897 -0.0382
3.5000 2.3031 -0.0439
3.5200 2.3164 -0.0450
3.5400 2.3297 -0.0390
3.5600 2.3431 -0.0481
3.5800 2.3565 -0.0481
3.6000 2.3698 -0.0428
3.6200 2.3831 -0.0497
3.6400 2.3965 -0.0497
3.6600 2.4098 -0.0434
3.6800 2.4231 -0.0536
3.7000 2.4364 -0.0573
3.7200 2.4497 -0.0469
3.7400 2.4631 -0.0598
3.7600 2.4764 -0.0573
3.7800 2.4897 -0.0455
3.8000 2.5030 -0.0637
3.8200 2.5163 -0.0547
3.8400 2.5297 -0.0549
3.8600 2.5430 -0.0647
3.8800 2.5564 -0.0605
3.9000 2.5697 -0.0560
3.9200 2.5831 -0.0700
3.9400 2.5965 -0.0644
3.9600 2.6098 -0.0580
3.9800 2.6231 -0.0723
4.0000 2.6364 -0.0652
4.0200 2.6498 -0.0630
4.0400 2.6631 -0.0757
4.0600 2.6764 -0.0672
4.0800 2.6897 -0.0658
4.1000 2.7031 -0.0733
4.1200 2.7164 -0.0797
4.1400 2.7297 -0.0675
4.1600 2.7430 -0.0770
4.1800 2.7564 -0.0796
4.2000 2.7697 -0.0707
4.2200 2.7830 -0.0851
4.2400 2.7963 -0.0824
4.2600 2.8097 -0.0691
4.2800 2.8231 -0.0891
4.3000 2.8365 -0.0857
4.3200 2.8498 -0.0750
4.3400 2.8631 -0.0954
4.3600 2.8765 -0.0904
4.3800 2.8898 -0.0770
4.4000 2.9031 -0.0986
4.4200 2.9164 -0.0939
4.4400 2.9297 -0.0820
4.4600 2.9431 -0.1015
4.4800 2.9564 -0.0937
4.5000 2.9697 -0.0905
4.5200 2.9830 -0.1035
4.5400 2.9964 -0.1009
4.5600 3.0097 -0.0900
4.5800 3.0231 -0.1088
4.6000 3.0364 -0.1006
4.6200 3.0497 -0.0963
4.6400 3.0631 -0.1105
4.6600 3.0764 -0.1058
4.6800 3.0897 -0.1003
4.7000 3.1030 -0.1077
4.7200 3.1164 -0.1045
4.7400 3.1298 -0.1056
4.7600 3.1431 -0.1067
4.7800 3.1565 -0.1092
4.8000 3.1698 -0.1083
4.8200 3.1831 -0.1115
4.8400 3.1964 -0.1092
4.8600 3.2097 -0.1136
4.8800 3.2230 -0.1135
4.9000 3.2363 -0.1128
4.9200 3.2497 -0.1200
4.9400 3.2630 -0.1163
4.9600 3.2763 -0.1168
4.9800 3.2897 -0.1281
5.0000 3.3031 -0.1180
5.0200 3.3165 -0.1264
5.0400 3.3298 -0.1240
5.0600 3.3432 -0.1260
5.0800 3.3565 -0.1285
5.1000 3.3698 -0.1247
5.1200 3.3831 -0.1295
5.1400 3.3964 -0.1357
5.1600 3.4097 -0.1298
5.1800 3.4231 -0.1297
5.2000 3.4364 -0.1407
5.2200 3.4497 -0.1316
5.2400 3.4630 -0.1328
5.2600 3.4763 -0.1406
5.2800 3.4897 -0.1371
5.3000 3.5030 -0.1384
5.3200 3.5164 -0.1451
5.3400 3.5297 -0.1381
5.3600 3.5431 -0.1450
5.3800 3.5565 -0.1474
5.4000 3.5698 -0.1407
5.4200 3.5831 -0.1475
5.4400 3.5965 -0.1497
5.4600 3.6098 -0.1415
5.4800 3.6231 -0.1591
5.5000 3.6364 -0.1489
5.5200 3.6497 -0.1432
5.5400 3.6631 -0.1613
5.5600 3.6764 -0.1515
5.5800 3.6897 -0.1481
5.6000 3.7030 -0.1590
5.6200 3.7163 -0.1537
5.6400 3.7297 -0.1525
5.6600 3.7431 -0.1607
5.6800 3.7564 -0.1542
5.7000 3.7697 -0.1574
5.7200 3.7831 -0.1604
5.7400 3.7965 -0.1526
5.7600 3.8098 -0.1620
5.7800 3.8231 -0.1636
5.8000 3.8364 -0.1523
5.8200 3.8498 -0.1635
5.8400 3.8631 -0.1645
5.8600 3.8764 -0.1577
5.8800 3.8898 -0.1643
5.9000 3.9031 -0.1615
5.9200 3.9164 -0.1673
5.9400 3.9297 -0.1701
5.9600 3.9430 -0.1586
5.9800 3.9563 -0.1697
6.0000 3.9697 -0.1707
6.0200 3.9831 -0.1663
6.0400 3.9964 -0.1738
6.0600 4.0097 -0.1732
6.0800 4.0231 -0.1679
6.1000 4.0365 -0.1808
6.1200 4.0498 -0.1698
6.1400 4.0631 -0.1735
6.1600 4.0764 -0.1872
6.1800 4.0898 -0.1712
6.2000 4.1031 -0.1795
6.2200 4.1164 -0.1908
6.2400 4.1297 -0.1724
6.2600 4.1431 -0.1818
6.2800 4.1564 -0.1912
6.3000 4.1697 -0.1779
6.3200 4.1830 -0.1900
6.3400 4.1964 -0.1889
6.3600 4.2097 -0.1791
6.3800 4.2230 -0.1960
6.4000 4.2364 -0.1895
6.4200 4.2497 -0.1829
6.4400 4.2631 -0.2028
6.4600 4.2764 -0.1832
6.4800 4.2898 -0.1909
6.5000 4.3031 -0.2039
6.5200 4.3164 -0.1829
6.5400 4.3298 -0.1966
6.5600 4.3432 -0.2065
6.5800 4.3565 -0.1799
6.6000 4.3697 -0.1994
6.6200 4.3831 -0.2064
6.6400 4.3964 -0.1847
6.6600 4.4097 -0.2037
6.6800 4.4230 -0.2052
6.7000 4.4363 -0.1853
6.7200 4.4497 -0.2094
6.7400 4.4630 -0.2040
6.7600 4.4764 -0.1925
6.7800 4.4897 -0.2118
6.8000 4.5031 -0.2005
6.8200 4.5164 -0.1927
6.8400 4.5298 -0.2170
6.8600 4.5431 -0.2013
6.8800 4.5564 -0.2023
6.9000 4.5698 -0.2163
6.9200 4.5831 -0.2026
6.9400 4.5964 -0.2089
6.9600 4.6097 -0.2178
6.9800 4.6231 -0.2074
7.0000 4.6364 -0.2136
7.0200 4.6497 -0.2164
7.0400 4.6630 -0.2131
7.0600 4.6763 -0.2176
7.0800 4.6896 -0.2142
7.1000 4.7030 -0.2156
7.1200 4.7163 -0.2200
7.1400 4.7297 -0.2163
7.1600 4.7431 -0.2203
7.1800 4.7565 -0.2206
7.2000 4.7698 -0.2234
7.2200 4.7832 -0.2246
7.2400 4.7965 -0.2229
7.2600 4.8098 -0.2239
7.2800 4.8232 -0.2273
7.3000 4.8364 -0.2245
7.3200 4.8497 -0.2244
7.3400 4.8630 -0.2334
7.3600 4.8764 -0.2225
7.3800 4.8897 -0.2295
7.4000 4.9030 -0.2337
7.4200 4.9164 -0.2254
7.4400 4.9297 -0.2353
7.4600 4.9431 -0.2327
7.4800 4.9564 -0.2260
7.5000 4.9698 -0.2375
7.5200 4.9831 -0.2357
7.5400 4.9965 -0.2273
7.5600 5.0098 -0.2417
7.5800 5.0231 -0.2444
7.6000 5.0364 -0.2269
7.6200 5.0498 -0.2451
7.6400 5.0631 -0.2465
7.6600 5.0764 -0.2298
7.6800 5.0897 -0.2459
7.7000 5.1030 -0.2422
7.7200 5.1164 -0.2364
7.7400 5.1297 -0.2550
7.7600 5.1430 -0.2423
7.7800 5.1563 -0.2339
7.8000 5.1697 -0.2558
7.8200 5.1830 -0.2424
7.8400 5.1964 -0.2419
7.8600 5.2097 -0.2558
7.8800 5.2231 -0.2486
7.9000 5.2365 -0.2445
7.9200 5.2498 -0.2548
7.9400 5.2631 -0.2512
7.9600 5.2764 -0.2490
7.9800 5.2898 -0.2559
8.0000 5.3031 -0.2548
8.0200 5.3165 -0.2504
8.0400 5.3297 -0.2564
8.0600 5.3431 -0.2536
8.0800 5.3564 -0.2498
8.1000 5.3697 -0.2582
8.1200 5.3830 -0.2623
8.1400 5.3963 -0.2496
8.1600 5.4097 -0.2583
8.1800 5.4230 -0.2602
8.2000 5.4364 -0.2538
8.2200 5.4497 -0.2629
8.2400 5.4630 -0.2646
8.2600 5.4764 -0.2553
8.2800 5.4898 -0.2661
8.3000 5.5031 -0.2634
8.3200 5.5164 -0.2534
8.3400 5.5298 -0.2667
8.3600 5.5431 -0.2713
8.3800 5.5564 -0.2555
8.4000 5.5697 -0.2676
8.4200 5.5831 -0.2687
8.4400 5.5964 -0.2637
8.4600 5.6097 -0.2721
8.4800 5.6231 -0.2703
8.5000 5.6364 -0.2602
8.5200 5.6497 -0.2681
8.5400 5.6630 -0.2735
8.5600 5.6764 -0.2635
8.5800 5.6897 -0.2735
8.6000 5.7031 -0.2774
8.6200 5.7164 -0.2650
8.6400 5.7298 -0.2756
8.6600 5.7431 -0.2804
8.6800 5.7564 -0.2613
8.7000 5.7698 -0.2767
8.7200 5.7832 -0.2807
8.7400 5.7965 -0.2626
8.7600 5.8098 -0.2802
8.7800 5.8231 -0.2806
8.8000 5.8364 -0.2657
8.8200 5.8497 -0.2853
8.8400 5.8630 -0.2781
8.8600 5.8763 -0.2704
8.8800 5.8897 -0.2859
8.9000 5.9030 -0.2801
8.9200 5.9164 -0.2782
8.9400 5.9297 -0.2882
8.9600 5.9431 -0.2788
8.9800 5.9565 -0.2866
9.0000 5.9698 -0.2933
9.0200 5.9831 -0.2831
9.0400 5.9964 -0.2905
9.0600 6.0098 -0.2889
9.0800 6.0231 -0.2849
9.1000 6.0365 -0.2938
9.1200 6.0497 -0.2885
9.1400 6.0630 -0.2903
9.1600 6.0764 -0.2952
9.1800 6.0897 -0.2919
9.2000 6.1030 -0.2980
9.2200 6.1163 -0.2936
9.2400 6.1297 -0.2946
9.2600 6.1430 -0.3044
9.2800 6.1564 -0.2964
9.3000 6.1697 -0.2965
9.3200 6.1831 -0.3075
9.3400 6.1964 -0.2978
9.3600 6.2098 -0.3037
9.3800 6.2231 -0.3072
9.4000 6.2364 -0.2952
9.4200 6.2498 -0.3016
9.4400 6.2631 -0.3138
9.4600 6.2764 -0.3003
9.4800 6.2897 -0.3035
9.5000 6.3030 -0.3071
9.5200 6.3163 -0.2971
9.5400 6.3297 -0.3155
9.5600 6.3430 -0.3111
9.5800 6.3564 -0.3021
9.6000 6.3697 -0.3134
9.6200 6.3831 -0.3150
9.6400 6.3964 -0.3111
9.6600 6.4098 -0.3161
9.6800 6.4231 -0.3148
9.7000 6.4365 -0.3150
9.7200 6.4498 -0.3173
9.7400 6.4631 -0.3161
9.7600 6.4764 -0.3194
9.7800 6.4897 -0.3173
9.8000 6.5031 -0.3195
9.8200 6.5164 -0.3186
9.8400 6.5298 -0.3188
9.8600 6.5431 -0.3222
9.8800 6.5564 -0.3200
9.9000 6.5698 -0.3222
9.9200 6.5831 -0.3249
9.9400 6.5964 -0.3195
9.9600 6.6097 -0.3206
9.9800 6.6230 -0.3245
10.0000 6.6364 -0.3188
10.0200 6.6497 -0.3235
10.0400 6.6630 -0.3258
10.0600 6.6764 -0.3276
10.0800 6.6898 -0.3252
10.1000 6.7031 -0.3298
10.1200 6.7164 -0.3234
10.1400 6.7298 -0.3259
10.1600 6.7431 -0.3277
10.1800 6.7565 -0.3273
10.2000 6.7698 -0.3304
10.2200 6.7831 -0.3277
10.2400 6.7964 -0.3245
10.2600 6.8098 -0.3311
10.2800 6.8231 -0.3307
10.3000 6.8364 -0.3298
10.3200 6.8497 -0.3298
10.3400 6.8630 -0.3305
10.3600 6.8764 -0.3333
10.3800 6.8897 -0.3351
10.4000 6.9030 -0.3274
10.4200 6.9164 -0.3300
10.4400 6.9298 -0.3373
10.4600 6.9431 -0.3296
10.4800 6.9564 -0.3334
10.5000 6.9698 -0.3340
10.5200 6.9831 -0.3299
10.5400 6.9964 -0.3359
10.5600 7.0097 -0.3327
10.5800 7.0230 -0.3334
10.6000 7.0364 -0.3377
10.6200 7.0497 -0.3336
10.6400 7.0631 -0.3364
10.6600 7.0764 -0.3406
10.6800 7.0897 -0.3315
10.7000 7.1031 -0.3392
10.7200 7.1164 -0.3443
10.7400 7.1297 -0.3322
10.7600 7.1430 -0.3518
10.7800 7.1564 -0.3436
10.8000 7.1698 -0.3384
10.8200 7.1831 -0.3489
10.8400 7.1964 -0.3484
10.8600 7.2098 -0.3414
10.8800 7.2231 -0.3493
10.9000 7.2365 -0.3507
10.9200 7.2498 -0.3447
10.9400 7.2631 -0.3472
10.9600 7.2764 -0.3527
10.9800 7.2898 -0.3535
11.0000 7.3031 -0.3484
11.0200 7.3164 -0.3539
11.0400 7.3297 -0.3573
11.0600 7.3430 -0.3469
11.0800 7.3564 -0.3617
11.1000 7.3697 -0.3587
11.1200 7.3831 -0.3525
11.1400 7.3964 -0.3611
11.1600 7.4098 -0.3592
11.1800 7.4231 -0.3565
11.2000 7.4364 -0.3644
11.2200 7.4498 -0.3630
11.2400 7.4631 -0.3583
11.2600 7.4765 -0.3725
11.2800 7.4898 -0.3600
11.3000 7.5031 -0.3582
11.3200 7.5164 -0.3767
11.3400 7.5297 -0.3581
11.3600 7.5431 -0.3626
11.3800 7.5564 -0.3744
11.4000 7.5697 -0.3618
11.4200 7.5830 -0.3673
11.4400 7.5964 -0.3722
11.4600 7.6097 -0.3673
11.4800 7.6230 -0.3649
11.5000 7.6364 -0.3774
11.5200 7.6498 -0.3702
11.5400 7.6631 -0.3650
11.5600 7.6764 -0.3756
11.5800 7.6898 -0.3658
11.6000 7.7031 -0.3681
11.6200 7.7165 -0.3796
11.6400 7.7298 -0.3687
11.6600 7.7431 -0.3668
11.6800 7.7564 -0.3768
11.7000 7.7697 -0.3734
11.7200 7.7831 -0.3671
11.7400 7.7964 -0.3803
11.7600 7.8097 -0.3753
11.7800 7.8230 -0.3700
11.8000 7.8364 -0.3851
11.8200 7.8497 -0.3719
11.8400 7.8630 -0.3695
11.8600 7.8764 -0.3877
11.8800 7.8897 -0.3719
11.9000 7.9031 -0.3702
11.9200 7.9164 -0.3908
11.9400 7.9297 -0.3704
11.9600 7.9431 -0.3712
11.9800 7.9564 -0.3933
12.0000 7.9698 -0.3749
12.0200 7.9831 -0.3712
12.0400 7.9964 -0.3919
12.0600 8.0098 -0.3712
12.0800 8.0231 -0.3788
12.1000 8.0364 -0.3969
12.1200 8.0497 -0.3730
12.1400 8.0630 -0.3744
12.1600 8.0763 -0.3955
12.1800 8.0897 -0.3763
12.2000 8.1030 -0.3804
12.2200 8.1164 -0.3940
12.2400 8.1298 -0.3769
12.2600 8.1432 -0.3883
12.2800 8.1565 -0.3955
12.3000 8.1698 -0.3773
12.3200 8.1832 -0.3908
12.3400 8.1965 -0.3929
12.3600 8.2098 -0.3857
12.3800 8.2231 -0.3907
12.4000 8.2364 -0.3959
12.4200 8.2497 -0.3860
12.4400 8.2631 -0.3903
12.4600 8.2763 -0.3965
12.4800 8.2896 -0.3865
12.5000 8.3030 -0.3952
12.5200 8.3164 -0.3972
12.5400 8.3297 -0.3884
12.5600 8.3430 -0.3954
12.5800 8.3564 -0.3959
12.6000 8.3698 -0.3881
12.6200 8.3832 -0.3987
12.6400 8.3965 -0.3983
12.6600 8.4098 -0.3887
12.6800 8.4231 -0.4003
12.7000 8.4365 -0.3977
12.7200 8.4498 -0.3942
12.7400 8.4631 -0.4027
12.7600 8.4764 -0.3974
12.7800 8.4897 -0.3937
12.8000 8.5030 -0.4084
12.8200 8.5163 -0.3965
12.8400 8.5297 -0.3988
12.8600 8.5430 -0.4104
12.8800 8.5564 -0.3980
12.9000 8.5698 -0.4037
12.9200 8.5831 -0.4072
12.9400 8.5964 -0.4023
12.9600 8.6098 -0.4095
12.9800 8.6231 -0.4145
13.0000 8.6365 -0.4029
13.0200 8.6498 -0.4081
13.0400 8.6631 -0.4110
13.0600 8.6765 -0.4057
13.0800 8.6898 -0.4129
13.1000 8.7031 -0.4142
13.1200 8.7164 -0.4040
13.1400 8.7298 -0.4146
13.1600 8.7431 -0.4173
13.1800 8.7564 -0.4096
13.2000 8.7697 -0.4118
13.2200 8.7830 -0.4156
13.2400 8.7964 -0.4102
13.2600 8.8097 -0.4159
13.2800 8.8231 -0.4176
13.3000 8.8364 -0.4113
13.3200 8.8498 -0.4192
13.3400 8.8632 -0.4180
13.3600 8.8765 -0.4128
13.3800 8.8898 -0.4221
13.4000 8.9031 -0.4184
13.4200 8.9165 -0.4151
13.4400 8.9298 -0.4256
13.4600 8.9431 -0.4202
13.4800 8.9564 -0.4189
13.5000 8.9697 -0.4237
13.5200 8.9831 -0.4232
13.5400 8.9964 -0.4227
13.5600 9.0097 -0.4313
13.5800 9.0230 -0.4237
13.6000 9.0364 -0.4216
13.6200 9.0497 -0.4367
13.6400 9.0630 -0.4261
13.6600 9.0764 -0.4290
13.6800 9.0898 -0.4313
13.7000 9.1031 -0.4317
13.7200 9.1165 -0.4354
13.7400 9.1298 -0.4309
13.7600 9.1431 -0.4350
13.7800 9.1565 -0.4317
13.8000 9.1698 -0.4363
13.8200 9.1831 -0.4367
13.8400 9.1964 -0.4326
13.8600 9.2097 -0.4369
13.8800 9.2231 -0.4380
13.9000 9.2364 -0.4380
13.9200 9.2497 -0.4353
13.9400 9.2630 -0.4387
13.9600 9.2764 -0.4355
13.9800 9.2897 -0.4382
14.0000 9.3031 -0.4402
14.0200 9.3164 -0.4322
14.0400 9.3297 -0.4419
14.0600 9.3431 -0.4412
14.0800 9.3564 -0.4354
14.1000 9.3698 -0.4419
14.1200 9.3831 -0.4428
14.1400 9.3965 -0.4404
14.1600 9.4098 -0.4447
14.1800 9.4231 -0.4411
14.2000 9.4364 -0.4368
14.2200 9.4498 -0.4476
14.2400 9.4631 -0.4414
14.2600 9.4764 -0.4412
14.2800 9.4897 -0.4452
14.3000 9.5030 -0.4428
14.3200 9.5163 -0.4399
14.3400 9.5297 -0.4478
14.3600 9.5430 -0.4491
14.3800 9.5564 -0.4434
14.4000 9.5698 -0.4427
14.4200 9.5831 -0.4570
14.4400 9.5965 -0.4440
14.4600 9.6098 -0.4480
14.4800 9.6231 -0.4580
14.5000 9.6365 -0.4445
14.5200 9.6498 -0.4493
14.5400 9.6630 -0.4588
14.5600 9.6763 -0.4483
14.5800 9.6897 -0.4470
14.6000 9.7030 -0.4609
14.6200 9.7164 -0.4469
14.6400 9.7297 -0.4503
14.6600 9.7430 -0.4670
14.6800 9.7564 -0.4427
14.7000 9.7698 -0.4560
14.7200 9.7831 -0.4620
14.7400 9.7964 -0.4444
14.7600 9.8098 -0.4640
14.7800 9.8232 -0.4667
14.8000 9.8365 -0.4469
14.8200 9.8498 -0.4606
14.8400 9.8631 -0.4689
14.8600 9.8764 -0.4485
14.8800 9.8898 -0.4634
14.9000 9.9031 -0.4669
14.9200 9.9164 -0.4510
14.9400 9.9297 -0.4601
14.9600 9.9431 -0.4667
14.9800 9.9564 -0.4539
15.0000 9.9697 -0.4653
15.0200 9.9830 -0.4676
15.0400 9.9964 -0.4599
15.0600 10.0097 -0.4628
15.0800 10.0231 -0.4689
15.1000 10.0364 -0.4646
15.1200 10.0498 -0.4651
15.1400 10.0631 -0.4686
15.1600 10.0765 -0.4676
15.1800 10.0898 -0.4639
15.2000 10.1031 -0.4717
15.2200 10.1165 -0.4673
15.2400 10.1298 -0.4669
15.2600 10.1431 -0.4741
15.2800 10.1564 -0.4674
15.3000 10.1697 -0.4660
15.3200 10.1831 -0.4814
15.3400 10.1964 -0.4690
15.3600 10.2097 -0.4673
15.3800 10.2230 -0.4816
15.4000 10.2363 -0.4638
15.4200 10.2497 -0.4674
15.4400 10.2630 -0.4825
15.4600 10.2764 -0.4599
15.4800 10.2898 -0.4711
15.5000 10.3031 -0.4816
15.5200 10.3165 -0.4621
15.5400 10.3298 -0.4744
15.5600 10.3431 -0.4767
15.5800 10.3565 -0.4664
15.6000 10.3698 -0.4788
15.6200 10.3831 -0.4751
15.6400 10.3964 -0.4663
15.6600 10.4097 -0.4866
15.6800 10.4231 -0.4777
15.7000 10.4364 -0.4649
15.7200 10.4497 -0.4849
15.7400 10.4630 -0.4779
15.7600 10.4764 -0.4679
15.7800 10.4897 -0.4856
15.8000 10.5030 -0.4785
15.8200 10.5163 -0.4637
15.8400 10.5297 -0.4835
15.8600 10.5431 -0.4821
15.8800 10.5564 -0.4659
15.9000 10.5698 -0.4862
15.9200 10.5831 -0.4783
15.9400 10.5965 -0.4729
15.9600 10.6098 -0.4842
15.9800 10.6231 -0.4794
16.0000 10.6364 -0.4750
16.0200 10.6497 -0.4885
16.0400 10.6631 -0.4784
16.0600 10.6764 -0.4803
16.0800 10.6897 -0.4882
16.1000 10.7030 -0.4772
16.1200 10.7164 -0.4872
16.1400 10.7297 -0.4872
16.1600 10.7430 -0.4782
16.1800 10.7564 -0.4905
16.2000 10.7698 -0.4868
16.2200 10.7831 -0.4832
16.2400 10.7965 -0.4948
16.2600 10.8098 -0.4836
16.2800 10.8231 -0.4853
16.3000 10.8364 -0.4914
16.3200 10.8498 -0.4873
16.3400 10.8631 -0.4855
16.3600 10.8764 -0.4912
16.3800 10.8897 -0.4842
16.4000 10.9031 -0.4888
16.4200 10.9164 -0.4929
16.4400 10.9297 -0.4866
16.4600 10.9430 -0.4886
16.4800 10.9563 -0.4926
16.5000 10.9697 -0.4878
16.5200 10.9830 -0.4928
16.5400 10.9964 -0.4901
16.5600 11.0097 -0.4888
16.5800 11.0231 -0.4956
16.6000 11.0365 -0.4932
16.6200 11.0498 -0.4903
16.6400 11.0631 -0.4982
16.6600 11.0765 -0.4926
16.6800 11.0898 -0.4925
16.7000 11.1031 -0.5009
16.7200 11.1163 -0.4946
16.7400 11.1297 -0.4924
16.7600 11.1430 -0.5013
16.7800 11.1564 -0.4951
16.8000 11.1697 -0.4970
16.8200 11.1830 -0.5017
16.8400 11.1964 -0.4953
16.8600 11.2098 -0.4996
16.8800 11.2231 -0.5048
16.9000 11.2364 -0.4979
16.9200 11.2498 -0.5044
16.9400 11.2631 -0.5035
16.9600 11.2764 -0.4937
16.9800 11.2897 -0.5068
17.0000 11.3031 -0.4990
17.0200 11.3164 -0.5020
17.0400 11.3298 -0.5085
17.0600 11.3431 -0.5061
17.0800 11.3564 -0.5019
17.1000 11.3698 -0.5095
17.1200 11.3831 -0.5066
17.1400 11.3964 -0.5073
17.1600 11.4097 -0.5050
17.1800 11.4230 -0.5071
17.2000 11.4364 -0.5053
17.2200 11.4497 -0.5093
17.2400 11.4630 -0.5138
17.2600 11.4764 -0.5094
17.2800 11.4897 -0.5092
17.3000 11.5031 -0.5165
17.3200 11.5164 -0.5106
17.3400 11.5298 -0.5128
17.3600 11.5431 -0.5186
17.3800 11.5564 -0.5072
17.4000 11.5698 -0.5172
17.4200 11.5831 -0.5199
17.4400 11.5964 -0.5101
17.4600 11.6097 -0.5242
17.4800 11.6231 -0.5211
17.5000 11.6364 -0.5154
17.5200 11.6497 -0.5208
17.5400 11.6630 -0.5171
17.5600 11.6763 -0.5185
17.5800 11.6897 -0.5267
17.6000 11.7030 -0.5202
17.6200 11.7164 -0.5200
17.6400 11.7297 -0.5215
17.6600 11.7431 -0.5222
17.6800 11.7565 -0.5235
17.7000 11.7698 -0.5283
17.7200 11.7831 -0.5253
17.7400 11.7965 -0.5206
17.7600 11.8098 -0.5279
17.7800 11.8231 -0.5226
17.8000 11.8364 -0.5218
17.8200 11.8497 -0.5236
17.8400 11.8631 -0.5230
17.8600 11.8764 -0.5205
17.8800 11.8897 -0.5254
17.9000 11.9030 -0.5227
17.9200 11.9164 -0.5230
17.9400 11.9297 -0.5238
17.9600 11.9431 -0.5218
17.9800 11.9564 -0.5231
18.0000 11.9697 -0.5251
18.0200 11.9831 -0.5225
18.0400 11.9964 -0.5274
18.0600 12.0098 -0.5218
18.0800 12.0231 -0.5211
18.1000 12.0364 -0.5276
18.1200 12.0498 -0.5248
18.1400 12.0631 -0.5217
18.1600 12.0764 -0.5259
18.1800 12.0897 -0.5234
18.2000 12.1031 -0.5206
18.2200 12.1164 -0.5302
18.2400 12.1297 -0.5201
18.2600 12.1430 -0.5261
18.2800 12.1563 -0.5312
18.3000 12.1697 -0.5218
18.3200 12.1830 -0.5298
18.3400 12.1964 -0.5384
18.3600 12.2097 -0.5204
18.3800 12.2231 -0.5372
18.4000 12.2365 -0.5361
18.4200 12.2498 -0.5252
18.4400 12.2631 -0.5418
18.4600 12.2764 -0.5356
18.4800 12.2898 -0.5282
18.5000 12.3031 -0.5391
18.5200 12.3164 -0.5396
18.5400 12.3297 -0.5356
18.5600 12.3431 -0.5397
18.5800 12.3564 -0.5430
18.6000 12.3697 -0.5346
18.6200 12.3831 -0.5419
18.6400 12.3964 -0.5392
18.6600 12.4097 -0.5447
18.6800 12.4230 -0.5449
18.7000 12.4364 -0.5449
18.7200 12.4497 -0.5450
18.7400 12.4631 -0.5426
18.7600 12.4765 -0.5484
18.7800 12.4898 -0.5481
18.8000 12.5031 -0.5384
18.8200 12.5164 -0.5508
18.8400 12.5298 -0.5478
18.8600 12.5431 -0.5442
18.8800 12.5564 -0.5503
18.9000 12.5697 -0.5492
18.9200 12.5830 -0.5451
18.9400 12.5964 -0.5484
18.9600 12.6097 -0.5509
18.9800 12.6230 -0.5475
19.0000 12.6364 -0.5532
19.0200 12.6497 -0.5534
19.0400 12.6631 -0.5505
19.0600 12.6764 -0.5549
19.0800 12.6897 -0.5554
19.1000 12.7030 -0.5513
19.1200 12.7164 -0.5593
19.1400 12.7297 -0.5560
19.1600 12.7431 -0.5555
19.1800 12.7564 -0.5614
19.2000 12.7698 -0.5540
19.2200 12.7831 -0.5581
19.2400 12.7964 -0.5662
19.2600 12.8098 -0.5534
19.2800 12.8231 -0.5624
19.3000 12.8365 -0.5644
19.3200 12.8498 -0.5553
19.3400 12.8630 -0.5632
19.3600 12.8763 -0.5638
19.3800 12.8897 -0.5564
19.4000 12.9030 -0.5599
19.4200 12.9163 -0.5645
19.4400 12.9297 -0.5578
19.4600 12.9431 -0.5596
19.4800 12.9565 -0.5649
19.5000 12.9698 -0.5610
19.5200 12.9831 -0.5605
19.5400 12.9965 -0.5599
19.5600 13.0098 -0.5676
19.5800 13.0232 -0.5558
19.6000 13.0364 -0.5612
19.6200 13.0497 -0.5694
19.6400 13.0631 -0.5546
19.6600 13.0764 -0.5652
19.6800 13.0897 -0.5671
19.7000 13.1030 -0.5546
19.7200 13.1163 -0.5683
19.7400 13.1297 -0.5663
19.7600 13.1430 -0.5608
19.7800 13.1564 -0.5753
19.8000 13.1697 -0.5627
19.8200 13.1831 -0.5609
19.8400 13.1965 -0.5779
19.8600 13.2098 -0.5636
19.8800 13.2231 -0.5648
19.9000 13.2365 -0.5777
19.9200 13.2498 -0.5622
19.9400 13.2631 -0.5672
19.9600 13.2764 -0.5795
19.9800 13.2897 -0.5665
20.0000 13.3030 -0.5638
20.0200 13.3164 -0.5812
20.0400 13.3297 -0.5652
20.0600 13.3430 -0.5715
20.0800 13.3563 -0.5817
20.1000 13.3697 -0.5685
20.1200 13.3831 -0.5748
20.1400 13.3964 -0.5790
20.1600 13.4097 -0.5665
20.1800 13.4231 -0.5757
20.2000 13.4365 -0.5800
20.2200 13.4498 -0.5726
20.2400 13.4631 -0.5749
20.2600 13.4764 -0.5794
20.2800 13.4898 -0.5727
20.3000 13.5031 -0.5786
20.3200 13.5164 -0.5817
20.3400 13.5298 -0.5745
20.3600 13.5431 -0.5769
20.3800 13.5564 -0.5814
20.4000 13.5697 -0.5794
20.4200 13.5830 -0.5759
20.4400 13.5963 -0.5847
20.4600 13.6097 -0.5764
20.4800 13.6231 -0.5753
20.5000 13.6364 -0.5883
20.5200 13.6497 -0.5796
20.5400 13.6631 -0.5773
20.5600 13.6765 -0.5898
20.5800 13.6898 -0.5781
20.6000 13.7031 -0.5821
20.6200 13.7164 -0.5914
20.6400 13.7298 -0.5759
20.6600 13.7431 -0.5784
20.6800 13.7564 -0.5937
20.7000 13.7697 -0.5743
20.7200 13.7830 -0.5830
20.7400 13.7964 -0.5941
20.7600 13.8097 -0.5794
20.7800 13.8230 -0.5854
20.8000 13.8364 -0.5944
20.8200 13.8497 -0.5805
20.8400 13.8631 -0.5836
20.8600 13.8764 -0.5881
20.8800 13.8897 -0.5854
20.9000 13.9031 -0.5873
20.9200 13.9165 -0.5871
20.9400 13.9298 -0.5939
20.9600 13.9431 -0.5872
20.9800 13.9565 -0.5879
21.0000 13.9698 -0.5993
21.0200 13.9832 -0.5835
21.0400 13.9965 -0.5913
21.0600 14.0097 -0.5985
21.0800 14.0231 -0.5826
21.1000 14.0364 -0.5944
21.1200 14.0497 -0.5999
21.1400 14.0631 -0.5860
21.1600 14.0764 -0.5976
21.1800 14.0897 -0.5973
21.2000 14.1030 -0.5866
21.2200 14.1164 -0.6008
21.2400 14.1297 -0.5970
21.2600 14.1431 -0.5852
21.2800 14.1564 -0.6018
21.3000 14.1698 -0.5900
21.3200 14.1831 -0.5878
21.3400 14.1964 -0.6041
21.3600 14.2098 -0.5912
21.3800 14.2231 -0.5975
21.4000 14.2364 -0.6006
21.4200 14.2497 -0.5947
21.4400 14.2631 -0.5990
21.4600 14.2764 -0.6011
21.4800 14.2898 -0.5947
21.5000 14.3030 -0.6033
21.5200 14.3163 -0.6009
21.5400 14.3296 -0.5955
21.5600 14.3430 -0.6078
21.5800 14.3563 -0.6025
21.6000 14.3697 -0.5968
21.6200 14.3830 -0.6124
21.6400 14.3964 -0.6031
21.6600 14.4098 -0.5985
21.6800 14.4232 -0.6125
21.7000 14.4365 -0.6036
21.7200 14.4498 -0.5963
21.7400 14.4631 -0.6122
21.7600 14.4764 -0.6048
21.7800 14.4897 -0.6061
21.8000 14.5030 -0.6038
21.8200 14.5163 -0.6049
21.8400 14.5297 -0.6113
21.8600 14.5430 -0.6068
21.8800 14.5563 -0.6093
21.9000 14.5697 -0.6104
21.9200 14.5831 -0.6135
21.9400 14.5964 -0.6146
21.9600 14.6097 -0.6082
21.9800 14.6231 -0.6135
22.0000 14.6365 -0.6146
22.0200 14.6498 -0.6097
22.0400 14.6631 -0.6151
22.0600 14.6764 -0.6182
22.0800 14.6898 -0.6103
22.1000 14.7031 -0.6157
22.1200 14.7164 -0.6196
22.1400 14.7297 -0.6121
22.1600 14.7430 -0.6183
22.1800 14.7564 -0.6169
22.2000 14.7697 -0.6176
22.2200 14.7831 -0.6164
22.2400 14.7964 -0.6140
22.2600 14.8097 -0.6192
22.2800 14.8231 -0.6197
22.3000 14.8364 -0.6171
22.3200 14.8497 -0.6197
22.3400 14.8631 -0.6223
22.3600 14.8765 -0.6201
22.3800 14.8898 -0.6220
22.4000 14.9031 -0.6240
22.4200 14.9164 -0.6224
22.4400 14.9298 -0.6267
22.4600 14.9432 -0.6246
22.4800 14.9565 -0.6203
22.5000 14.9698 -0.6290
22.5200 14.9831 -0.6256
22.5400 14.9964 -0.6204
22.5600 15.0097 -0.6294
22.5800 15.0230 -0.6299
22.6000 15.0363 -0.6259
22.6200 15.0497 -0.6334
22.6400 15.0630 -0.6291
22.6600 15.0764 -0.6281
22.6800 15.0897 -0.6324
22.7000 15.1031 -0.6280
22.7200 15.1164 -0.6300
22.7400 15.1298 -0.6351
22.7600 15.1431 -0.6320
22.7800 15.1564 -0.6340
22.8000 15.1698 -0.6307
22.8200 15.1831 -0.6361
22.8400 15.1964 -0.6367
22.8600 15.2097 -0.6292
22.8800 15.2230 -0.6366
22.9000 15.2364 -0.6424
22.9200 15.2497 -0.6281
22.9400 15.2631 -0.6381
22.9600 15.2764 -0.6383
22.9800 15.2897 -0.6291
23.0000 15.3030 -0.6429
23.0200 15.3164 -0.6389
23.0400 15.3297 -0.6336
23.0600 15.3430 -0.6455
23.0800 15.3564 -0.6398
23.1000 15.3698 -0.6354
23.1200 15.3831 -0.6456
23.1400 15.3964 -0.6435
23.1600 15.4098 -0.6399
23.1800 15.4231 -0.6426
23.2000 15.4365 -0.6420
23.2200 15.4498 -0.6445
23.2400 15.4631 -0.6457
23.2600 15.4764 -0.6437
23.2800 15.4897 -0.6470
23.3000 15.5030 -0.6444
23.3200 15.5163 -0.6484
23.3400 15.5297 -0.6457
23.3600 15.5430 -0.6484
23.3800 15.5564 -0.6551
23.4000 15.5697 -0.6417
23.4200 15.5831 -0.6448
23.4400 15.5965 -0.6600
23.4600 15.6098 -0.6435
23.4800 15.6231 -0.6500
23.5000 15.6364 -0.6596
23.5200 15.6498 -0.6432
23.5400 15.6631 -0.6471
23.5600 15.6765 -0.6578
23.5800 15.6898 -0.6410
23.6000 15.7031 -0.6529
23.6200 15.7164 -0.6509
23.6400 15.7298 -0.6408
23.6600 15.7431 -0.6604
23.6800 15.7564 -0.6567
23.7000 15.7697 -0.6412
23.7200 15.7830 -0.6565
23.7400 15.7964 -0.6559
23.7600 15.8097 -0.6451
23.7800 15.8230 -0.6574
23.8000 15.8364 -0.6553
23.8200 15.8498 -0.6452
23.8400 15.8631 -0.6616
23.8600 15.8764 -0.6506
23.8800 15.8898 -0.6498
23.9000 15.9031 -0.6639
23.9200 15.9164 -0.6466
23.9400 15.9297 -0.6478
23.9600 15.9430 -0.6592
23.9800 15.9564 -0.6463
24.0000 15.9697 -0.6522
24.0200 15.9830 -0.6595
24.0400 15.9963 -0.6440
24.0600 16.0097 -0.6479
24.0800 16.0231 -0.6565
24.1000 16.0364 -0.6453
24.1200 16.0497 -0.6481
24.1400 16.0631 -0.6570
24.1600 16.0764 -0.6480
24.1800 16.0898 -0.6491
24.2000 16.1031 -0.6526
24.2200 16.1164 -0.6506
24.2400 16.1297 -0.6509
24.2600 16.1431 -0.6497
24.2800 16.1564 -0.6524
24.3000 16.1698 -0.6501
24.3200 16.1831 -0.6492
24.3400 16.1964 -0.6553
24.3600 16.2098 -0.6511
24.3800 16.2231 -0.6565
24.4000 16.2364 -0.6559
24.4200 16.2497 -0.6563
24.4400 16.2630 -0.6591
24.4600 16.2764 -0.6533
24.4800 16.2897 -0.6522
24.5000 16.3030 -0.6647
24.5200 16.3164 -0.6619
24.5400 16.3298 -0.6499
24.5600 16.3431 -0.6657
24.5800 16.3564 -0.6642
24.6000 16.3698 -0.6586
24.6200 16.3831 -0.6650
24.6400 16.3965 -0.6676
24.6600 16.4098 -0.6662
24.6800 16.4231 -0.6628
24.7000 16.4364 -0.6696
24.7200 16.4498 -0.6697
24.7400 16.4631 -0.6758
24.7600 16.4764 -0.6718
24.7800 16.4897 -0.6681
24.8000 16.5030 -0.6777
24.8200 16.5164 -0.6829
24.8400 16.5297 -0.6681
24.8600 16.5430 -0.6749
24.8800 16.5564 -0.6857
24.9000 16.5698 -0.6771
24.9200 16.5831 -0.6781
24.9400 16.5965 -0.6826
24.9600 16.6098 -0.6781
24.9800 16.6231 -0.6809
25.0000 16.6365 -0.6883
25.0200 16.6498 -0.6780
25.0400 16.6631 -0.6798
25.0600 16.6764 -0.6879
25.0800 16.6897 -0.6826
25.1000 16.7031 -0.6844
25.1200 16.7163 -0.6883
25.1400 16.7297 -0.6860
25.1600 16.7430 -0.6839
25.1800 16.7564 -0.6919
25.2000 16.7697 -0.6926
25.2200 16.7830 -0.6881
25.2400 16.7964 -0.6928
25.2600 16.8098 -0.6914
25.2800 16.8231 -0.6895
25.3000 16.8364 -0.6937
25.3200 16.8498 -0.6913
25.3400 16.8631 -0.6903
25.3600 16.8765 -0.6982
25.3800 16.8898 -0.6945
25.4000 16.9031 -0.6895
25.4200 16.9164 -0.7040
25.4400 16.9297 -0.6928
25.4600 16.9431 -0.6924
25.4800 16.9563 -0.6987
25.5000 16.9696 -0.6983
25.5200 16.9830 -0.6985
25.5400 16.9963 -0.7012
25.5600 17.0097 -0.6957
25.5800 17.0230 -0.7003
25.6000 17.0364 -0.7038
25.6200 17.0498 -0.6971
25.6400 17.0632 -0.7071
25.6600 17.0765 -0.7015
25.6800 17.0898 -0.6952
25.7000 17.1031 -0.7029
25.7200 17.1165 -0.7023
25.7400 17.1298 -0.7016
25.7600 17.1431 -0.6971
25.7800 17.1564 -0.7052
25.8000 17.1697 -0.7013
25.8200 17.1831 -0.7018
25.8400 17.1964 -0.7098
25.8600 17.2097 -0.7021
25.8800 17.2231 -0.7045
25.9000 17.2364 -0.7106
25.9200 17.2497 -0.6999
25.9400 17.2630 -0.7066
25.9600 17.2764 -0.7085
25.9800 17.2898 -0.7027
26.0000 17.3032 -0.7092
26.0200 17.3165 -0.7077
26.0400 17.3298 -0.7045
26.0600 17.3431 -0.7089
26.0800 17.3565 -0.7078
26.1000 17.3698 -0.7061
26.1200 17.3831 -0.7062
26.1400 17.3964 -0.7086
26.1600 17.4097 -0.7111
26.1800 17.4230 -0.7049
26.2000 17.4364 -0.7066
26.2200 17.4497 -0.7110
26.2400 17.4630 -0.7045
26.2600 17.4764 -0.7100
26.2800 17.4898 -0.7138
26.3000 17.5031 -0.7093
26.3200 17.5164 -0.7105
26.3400 17.5298 -0.7115
26.3600 17.5431 -0.7098
26.3800 17.5564 -0.7131
26.4000 17.5697 -0.7148
26.4200 17.5831 -0.7049
26.4400 17.5964 -0.7164
26.4600 17.6098 -0.7159
26.4800 17.6231 -0.7112
26.5000 17.6364 -0.7210
26.5200 17.6498 -0.7152
26.5400 17.6631 -0.7181
26.5600 17.6764 -0.7254
26.5800 17.6897 -0.7148
26.6000 17.7030 -0.7204
26.6200 17.7163 -0.7224
26.6400 17.7297 -0.7253
26.6600 17.7430 -0.7256
26.6800 17.7564 -0.7207
26.7000 17.7698 -0.7270
26.7200 17.7832 -0.7280
26.7400 17.7965 -0.7227
26.7600 17.8098 -0.7223
26.7800 17.8231 -0.7305
26.8000 17.8365 -0.7276
26.8200 17.8498 -0.7295
26.8400 17.8631 -0.7340
26.8600 17.8764 -0.7279
26.8800 17.8897 -0.7349
26.9000 17.9030 -0.7362
26.9200 17.9163 -0.7293
26.9400 17.9296 -0.7379
26.9600 17.9430 -0.7357
26.9800 17.9563 -0.7358
27.0000 17.9697 -0.7336
27.0200 17.9830 -0.7389
27.0400 17.9964 -0.7389
27.0600 18.0098 -0.7406
27.0800 18.0231 -0.7417
27.1000 18.0365 -0.7417
27.1200 18.0498 -0.7381
27.1400 18.0631 -0.7433
27.1600 18.0765 -0.7532
27.1800 18.0898 -0.7377
27.2000 18.1031 -0.7388
27.2200 18.1164 -0.7551
27.2400 18.1297 -0.7433
27.2600 18.1431 -0.7507
27.2800 18.1564 -0.7564
27.3000 18.1697 -0.7459
27.3200 18.1830 -0.7558
27.3400 18.1964 -0.7559
27.3600 18.2097 -0.7537
27.3800 18.2231 -0.7605
27.4000 18.2364 -0.7554
27.4200 18.2498 -0.7506
27.4400 18.2631 -0.7733
27.4600 18.2764 -0.7615
27.4800 18.2898 -0.7490
27.5000 18.3031 -0.7798
27.5200 18.3165 -0.7570
27.5400 18.3298 -0.7579
27.5600 18.3431 -0.7825
27.5800 18.3564 -0.7571
27.6000 18.3698 -0.7659
27.6200 18.3831 -0.7850
27.6400 18.3964 -0.7623
27.6600 18.4097 -0.7716
27.6800 18.4230 -0.7816
27.7000 18.4364 -0.7648
27.7200 18.4497 -0.7810
27.7400 18.4631 -0.7814
27.7600 18.4764 -0.7641
27.7800 18.4898 -0.7825
27.8000 18.5031 -0.7813
27.8200 18.5165 -0.7684
27.8400 18.5298 -0.7847
27.8600 18.5431 -0.7763
27.8800 18.5565 -0.7733
27.9000 18.5698 -0.7906
27.9200 18.5831 -0.7765
27.9400 18.5964 -0.7727
27.9600 18.6097 -0.7896
27.9800 18.6231 -0.7761
28.0000 18.6364 -0.7780
28.0200 18.6497 -0.7885
28.0400 18.6630 -0.7765
28.0600 18.6764 -0.7759
28.0800 18.6897 -0.7866
28.1000 18.7030 -0.7762
28.1200 18.7164 -0.7799
28.1400 18.7297 -0.7863
28.1600 18.7431 -0.7756
28.1800 18.7565 -0.7826
28.2000 18.7698 -0.7843
28.2200 18.7831 -0.7761
28.2400 18.7965 -0.7777
28.2600 18.8098 -0.7873
28.2800 18.8231 -0.7739
28.3000 18.8364 -0.7759
28.3200 18.8497 -0.7882
28.3400 18.8631 -0.7728
28.3600 18.8764 -0.7778
28.3800 18.8897 -0.7889
28.4000 18.9030 -0.7724
28.4200 18.9164 -0.7833
28.4400 18.9297 -0.7914
28.4600 18.9431 -0.7783
28.4800 18.9564 -0.7839
28.5000 18.9697 -0.7932
28.5200 18.9831 -0.7791
28.5400 18.9964 -0.7938
28.5600 19.0097 -0.7935
28.5800 19.0231 -0.7836
28.6000 19.0364 -0.7965
28.6200 19.0498 -0.7931
28.6400 19.0631 -0.7900
28.6600 19.0764 -0.7982
28.6800 19.0898 -0.7963
28.7000 19.1031 -0.7987
28.7200 19.1164 -0.7985
28.7400 19.1297 -0.8041
28.7600 19.1430 -0.8022
28.7800 19.1563 -0.8007
28.8000 19.1697 -0.8048
28.8200 19.1830 -0.8055
28.8400 19.1964 -0.8045
28.8600 19.2098 -0.8071
28.8800 19.2232 -0.8062
28.9000 19.2365 -0.8027
28.9200 19.2498 -0.8076
28.9400 19.2632 -0.8091
28.9600 19.2765 -0.8055
28.9800 19.2898 -0.8068
29.0000 19.3031 -0.8179
29.0200 19.3164 -0.8070
29.0400 19.3297 -0.8131
29.0600 19.3430 -0.8154
29.0800 19.3564 -0.8099
29.1000 19.3697 -0.8181
29.1200 19.3830 -0.8211
29.1400 19.3964 -0.8143
29.1600 19.4098 -0.8173
29.1800 19.4231 -0.8244
29.2000 19.4364 -0.8223
29.2200 19.4498 -0.8193
29.2400 19.4631 -0.8286
29.2600 19.4765 -0.8240
29.2800 19.4898 -0.8219
29.3000 19.5031 -0.8300
29.3200 19.5164 -0.8276
29.3400 19.5298 -0.8236
29.3600 19.5431 -0.8332
29.3800 19.5564 -0.8275
29.4000 19.5697 -0.8245
29.4200 19.5831 -0.8390
29.4400 19.5964 -0.8320
29.4600 19.6097 -0.8267
29.4800 19.6230 -0.8418
29.5000 19.6364 -0.8297
29.5200 19.6497 -0.8338
29.5400 19.6631 -0.8465
29.5600 19.6764 -0.8311
29.5800 19.6897 -0.8374
29.6000 19.7031 -0.8499
29.6200 19.7164 -0.8355
29.6400 19.7297 -0.8404
29.6600 19.7431 -0.8543
29.6800 19.7564 -0.8357
29.7000 19.7698 -0.8508
29.7200 19.7831 -0.8597
29.7400 19.7964 -0.8392
29.7600 19.8097 -0.8567
29.7800 19.8231 -0.8612
29.8000 19.8364 -0.8468
29.8200 19.8497 -0.8599
29.8400 19.8630 -0.8618
29.8600 19.8764 -0.8513
29.8800 19.8897 -0.8584
29.9000 19.9030 -0.8664
29.9200 19.9164 -0.8522
29.9400 19.9298 -0.8643
29.9600 19.9431 -0.8655
29.9800 19.9565 -0.8582
30.0000 19.9698 -0.8682
30.0200 19.9831 -0.8660
30.0400 19.9965 -0.8631
30.0600 20.0098 -0.8680
30.0800 20.0231 -0.8738
30.1000 20.0364 -0.8636
30.1200 20.0497 -0.8698
30.1400 20.0631 -0.8756
30.1600 20.0764 -0.8681
30.1800 20.0897 -0.8730
30.2000 20.1030 -0.8779
30.2200 20.1164 -0.8757
30.2400 20.1297 -0.8771
30.2600 20.1430 -0.8807
30.2800 20.1564 -0.8769
30.3000 20.1697 -0.8800
30.3200 20.1831 -0.8860
30.3400 20.1964 -0.8775
30.3600 20.2098 -0.8886
30.3800 20.2231 -0.8850
30.4000 20.2365 -0.8804
30.4200 20.2498 -0.8464
30.4400 20.2631 -0.7441
30.4600 20.2764 -0.6284
30.4800 20.2897 -0.5195
30.5000 20.3031 -0.4104
30.5200 20.3164 -0.3131
30.5400 20.3297 -0.2298
30.5600 20.3430 -0.1432
30.5800 20.3563 -0.0654
30.6000 20.3697 -0.0294
30.6200 20.3830 0.0098
30.6400 20.3964 0.0499
30.6600 20.4098 0.1001
30.6800 20.4232 0.1604
30.7000 20.4365 0.2032
30.7200 20.4498 0.2469
30.7400 20.4631 0.2941
30.7600 20.4764 0.3285
30.7800 20.4898 0.3726
30.8000 20.5031 0.4146
30.8200 20.5164 0.4547
30.8400 20.5297 0.4806
30.8600 20.5431 0.4830
30.8800 20.5564 0.4811
30.9000 20.5697 0.4787
30.9200 20.5830 0.4740
30.9400 20.5963 0.4833
30.9600 20.6097 0.4862
30.9800 20.6230 0.4791
31.0000 20.6364 0.4821
31.0200 20.6497 0.4805
31.0400 20.6631 0.4811
31.0600 20.6765 0.4846
31.0800 20.6898 0.4776
31.1000 20.7031 0.4722
31.1200 20.7164 0.4812
31.1400 20.7298 0.4719
31.1600 20.7431 0.4658
31.1800 20.7564 0.4826
31.2000 20.7697 0.4778
31.2200 20.7830 0.4687
31.2400 20.7964 0.4718
31.2600 20.8097 0.4681
31.2800 20.8230 0.4757
31.3000 20.8364 0.4734
31.3200 20.8498 0.4670
31.3400 20.8631 0.4699
31.3600 20.8764 0.4709
31.3800 20.8898 0.4687
31.4000 20.9031 0.4705
31.4200 20.9165 0.4654
31.4400 20.9298 0.4670
31.4600 20.9431 0.4676
31.4800 20.9564 0.4592
31.5000 20.9698 0.4652
31.5200 20.9831 0.4648
31.5400 20.9964 0.4537
31.5600 21.0097 0.4612
31.5800 21.0231 0.4606
31.6000 21.0365 0.4596
31.6200 21.0498 0.4590
31.6400 21.0631 0.4580
31.6600 21.0764 0.4535
31.6800 21.0897 0.4591
31.7000 21.1031 0.4551
31.7200 21.1164 0.4497
31.7400 21.1297 0.4591
31.7600 21.1431 0.4560
31.7800 21.1564 0.4508
31.8000 21.1698 0.4522
31.8200 21.1831 0.4563
31.8400 21.1964 0.4545
31.8600 21.2098 0.4461
31.8800 21.2231 0.4543
31.9000 21.2364 0.4489
31.9200 21.2497 0.4456
31.9400 21.2631 0.4548
31.9600 21.2764 0.4426
31.9800 21.2897 0.4479
32.0000 21.3030 0.4474
32.0200 21.3163 0.4372
32.0400 21.3297 0.4421
32.0600 21.3430 0.4525
32.0800 21.3564 0.4358
32.1000 21.3697 0.4397
32.1200 21.3831 0.4531
32.1400 21.3965 0.4316
32.1600 21.4098 0.4433
32.1800 21.4231 0.4452
32.2000 21.4364 0.4255
32.2200 21.4498 0.4456
32.2400 21.4631 0.4420
32.2600 21.4764 0.4298
32.2800 21.4897 0.4426
32.3000 21.5031 0.4438
32.3200 21.5164 0.4242
32.3400 21.5297 0.4394
32.3600 21.5430 0.4408
32.3800 21.5563 0.4286
32.4000 21.5697 0.4362
32.4200 21.5831 0.4373
32.4400 21.5964 0.4283
32.4600 21.6097 0.4377
32.4800 21.6231 0.4374
32.5000 21.6364 0.4243
32.5200 21.6498 0.4329
32.5400 21.6631 0.4371
32.5600 21.6765 0.4213
32.5800 21.6898 0.4286
32.6000 21.7031 0.4362
32.6200 21.7164 0.4196
32.6400 21.7297 0.4322
32.6600 21.7431 0.4297
32.6800 21.7564 0.4127
32.7000 21.7697 0.4312
32.7200 21.7830 0.4313
32.7400 21.7963 0.4128
32.7600 21.8097 0.4281
32.7800 21.8230 0.4280
32.8000 21.8363 0.4159
32.8200 21.8497 0.4296
32.8400 21.8631 0.4346
32.8600 21.8765 0.4099
32.8800 21.8898 0.4279
32.9000 21.9031 0.4281
32.9200 21.9164 0.4126
32.9400 21.9298 0.4278
32.9600 21.9431 0.4247
32.9800 21.9564 0.4098
33.0000 21.9697 0.4246
33.0200 21.9831 0.4250
33.0400 21.9964 0.4111
33.0600 22.0098 0.4241
33.0800 22.0231 0.4223
33.1000 22.0364 0.4043
33.1200 22.0497 0.4242
33.1400 22.0631 0.4216
33.1600 22.0764 0.4053
33.1800 22.0897 0.4209
33.2000 22.1031 0.4143
33.2200 22.1165 0.4061
33.2400 22.1298 0.4193
33.2600 22.1431 0.4144
33.2800 22.1564 0.4089
33.3000 22.1698 0.4138
33.3200 22.1831 0.4076
33.3400 22.1964 0.4062
33.3600 22.2097 0.4094
33.3800 22.2230 0.4094
33.4000 22.2364 0.4079
33.4200 22.2497 0.4041
33.4400 22.2630 0.4086
33.4600 22.2764 0.4086
33.4800 22.2897 0.4024
33.5000 22.3031 0.4066
33.5200 22.3164 0.3995
33.5400 22.3297 0.4024
33.5600 22.3430 0.4030
33.5800 22.3564 0.4021
33.6000 22.3697 0.4008
33.6200 22.3831 0.4096
33.6400 22.3964 0.3964
33.6600 22.4098 0.3956
33.6800 22.4231 0.4044
33.7000 22.4365 0.3944
33.7200 22.4498 0.3972
33.7400 22.4631 0.4036
33.7600 22.4765 0.3914
33.7800 22.4898 0.3948
33.8000 22.5030 0.4039
33.8200 22.5163 0.3918
33.8400 22.5297 0.3965
33.8600 22.5430 0.3963
33.8800 22.5563 0.3925
33.9000 22.5697 0.3956
33.9200 22.5831 0.4005
33.9400 22.5965 0.3911
33.9600 22.6098 0.3887
33.9800 22.6231 0.3988
34.0000 22.6365 0.3922
34.0200 22.6498 0.3875
34.0400 22.6632 0.3924
34.0600 22.6765 0.3858
34.0800 22.6898 0.3879
34.1000 22.7030 0.3892
34.1200 22.7164 0.3828
34.1400 22.7297 0.3875
34.1600 22.7430 0.3890
34.1800 22.7563 0.3780
34.2000 22.7697 0.3855
34.2200 22.7830 0.3874
34.2400 22.7964 0.3754
34.2600 22.8097 0.3845
34.2800 22.8231 0.3919
34.3000 22.8365 0.3785
34.3200 22.8498 0.3826
34.3400 22.8631 0.3852
34.3600 22.8765 0.3833
34.3800 22.8898 0.3812
34.4000 22.9032 0.3818
34.4200 22.9164 0.3767
34.4400 22.9297 0.3813
34.4600 22.9430 0.3801
34.4800 22.9564 0.3733
34.5000 22.9697 0.3753
34.5200 22.9830 0.3792
34.5400 22.9964 0.3742
34.5600 23.0097 0.3724
34.5800 23.0230 0.3775
34.6000 23.0364 0.3728
34.6200 23.0497 0.3670
34.6400 23.0630 0.3767
34.6600 23.0764 0.3693
34.6800 23.0898 0.3711
34.7000 23.1031 0.3740
34.7200 23.1164 0.3666
34.7400 23.1298 0.3746
34.7600 23.1431 0.3708
34.7800 23.1564 0.3696
34.8000 23.1697 0.3712
34.8200 23.1831 0.3699
34.8400 23.1964 0.3679
34.8600 23.2098 0.3660
34.8800 23.2230 0.3699
34.9000 23.2363 0.3658
34.9200 23.2497 0.3650
34.9400 23.2631 0.3651
34.9600 23.2764 0.3620
34.9800 23.2897 0.3659
35.0000 23.3031 0.3670
35.0200 23.3165 0.3595
35.0400 23.3298 0.3569
35.0600 23.3431 0.3668
35.0800 23.3564 0.3569
35.1000 23.3698 0.3575
35.1200 23.3831 0.3616
35.1400 23.3964 0.3577
35.1600 23.4097 0.3563
35.1800 23.4230 0.3581
35.2000 23.4364 0.3599
35.2200 23.4497 0.3553
35.2400 23.4631 0.3612
35.2600 23.4764 0.3556
35.2800 23.4897 0.3540
35.3000 23.5030 0.3619
35.3200 23.5164 0.3516
35.3400 23.5297 0.3550
35.3600 23.5430 0.3606
35.3800 23.5564 0.3461
35.4000 23.5698 0.3538
35.4200 23.5831 0.3568
35.4400 23.5964 0.3467
35.4600 23.6098 0.3489
35.4800 23.6232 0.3516
35.5000 23.6365 0.3449
35.5200 23.6498 0.3528
35.5400 23.6631 0.3563
35.5600 23.6764 0.3379
35.5800 23.6898 0.3501
35.6000 23.7031 0.3544
35.6200 23.7164 0.3370
35.6400 23.7297 0.3496
35.6600 23.7431 0.3495
35.6800 23.7564 0.3401
35.7000 23.7697 0.3473
35.7200 23.7831 0.3475
35.7400 23.7964 0.3350
35.7600 23.8098 0.3500
35.7800 23.8231 0.3444
35.8000 23.8364 0.3391
35.8200 23.8498 0.3490
35.8400 23.8631 0.3394
35.8600 23.8764 0.3363
35.8800 23.8898 0.3520
35.9000 23.9031 0.3354
35.9200 23.9164 0.3370
35.9400 23.9297 0.3480
35.9600 23.9430 0.3327
35.9800 23.9563 0.3392
36.0000 23.9696 0.3459
36.0200 23.9830 0.3314
36.0400 23.9963 0.3403
36.0600 24.0097 0.3448
36.0800 24.0231 0.3275
36.1000 24.0365 0.3409
36.1200 24.0498 0.3366
36.1400 24.0632 0.3236
36.1600 24.0765 0.3376
36.1800 24.0898 0.3328
36.2000 24.1031 0.3226
36.2200 24.1164 0.3409
36.2400 24.1297 0.3282
36.2600 24.1430 0.3272
36.2800 24.1564 0.3332
36.3000 24.1697 0.3275
36.3200 24.1830 0.3276
36.3400 24.1963 0.3333
36.3600 24.2097 0.3150
36.3800 24.2231 0.3353
36.4000 24.2364 0.3381
36.4200 24.2498 0.3120
36.4400 24.2631 0.3319
36.4600 24.2765 0.3288
36.4800 24.2898 0.3155
36.5000 24.3031 0.3291
36.5200 24.3164 0.3239
36.5400 24.3298 0.3151
36.5600 24.3431 0.3240
36.5800 24.3564 0.3205
36.6000 24.3697 0.3207
36.6200 24.3830 0.3254
36.6400 24.3964 0.3207
36.6600 24.4097 0.3199
36.6800 24.4230 0.3252
36.7000 24.4364 0.3217
36.7200 24.4497 0.3215
36.7400 24.4631 0.3222
36.7600 24.4764 0.3196
36.7800 24.4897 0.3213
36.8000 24.5031 0.3225
36.8200 24.5164 0.3175
36.8400 24.5298 0.3240
36.8600 24.5431 0.3220
36.8800 24.5564 0.3229
36.9000 24.5698 0.3159
36.9200 24.5831 0.3170
36.9400 24.5965 0.3239
36.9600 24.6098 0.3198
36.9800 24.6231 0.3156
37.0000 24.6364 0.3249
37.0200 24.6498 0.3180
37.0400 24.6631 0.3059
37.0600 24.6764 0.3335
37.0800 24.6897 0.3189
37.1000 24.7030 0.3083
37.1200 24.7164 0.3276
37.1400 24.7297 0.3072
37.1600 24.7430 0.3132
37.1800 24.7564 0.3212
37.2000 24.7698 0.3045
37.2200 24.7831 0.3097
37.2400 24.7964 0.3161
37.2600 24.8098 0.3080
37.2800 24.8231 0.3117
37.3000 24.8365 0.3077
37.3200 24.8497 0.3084
37.3400 24.8631 0.3085
37.3600 24.8764 0.3034
37.3800 24.8897 0.3102
37.4000 24.9031 0.3064
37.4200 24.9164 0.2996
37.4400 24.9297 0.3094
37.4600 24.9431 0.3028
37.4800 24.9564 0.2956
37.5000 24.9697 0.3130
37.5200 24.9830 0.2987
37.5400 24.9964 0.2980
37.5600 25.0098 0.3074
37.5800 25.0231 0.2913
37.6000 25.0364 0.2970
37.6200 25.0498 0.3088
37.6400 25.0631 0.2874
37.6600 25.0765 0.2921
37.6800 25.0898 0.3086
37.7000 25.1031 0.2889
37.7200 25.1164 0.2974
37.7400 25.1298 0.3076
37.7600 25.1431 0.2816
37.7800 25.1563 0.2992
37.8000 25.1697 0.3049
37.8200 25.1830 0.2870
37.8400 25.1964 0.2941
37.8600 25.2097 0.2944
37.8800 25.2231 0.2828
37.9000 25.2365 0.2945
37.9200 25.2498 0.2922
37.9400 25.2631 0.2825
37.9600 25.2764 0.2962
37.9800 25.2898 0.2889
38.0000 25.3031 0.2797
38.0200 25.3165 0.2929
38.0400 25.3298 0.2858
38.0600 25.3431 0.2875
38.0800 25.3564 0.2891
38.1000 25.3698 0.2867
38.1200 25.3831 0.2842
38.1400 25.3964 0.2846
38.1600 25.4097 0.2856
38.1800 25.4230 0.2800
38.2000 25.4364 0.2809
38.2200 25.4497 0.2808
38.2400 25.4630 0.2832
38.2600 25.4764 0.2795
38.2800 25.4898 0.2755
38.3000 25.5031 0.2779
38.3200 25.5164 0.2797
38.3400 25.5298 0.2793
38.3600 25.5431 0.2790
38.3800 25.5565 0.2761
38.4000 25.5697 0.2798
38.4200 25.5830 0.2718
38.4400 25.5964 0.2784
38.4600 25.6097 0.2809
38.4800 25.6230 0.2748
38.5000 25.6364 0.2714
38.5200 25.6497 0.2749
38.5400 25.6631 0.2721
38.5600 25.6764 0.2772
38.5800 25.6898 0.2741
38.6000 25.7031 0.2749
38.6200 25.7164 0.2757
38.6400 25.7298 0.2728
38.6600 25.7431 0.2758
38.6800 25.7564 0.2755
38.7000 25.7697 0.2709
38.7200 25.7831 0.2742
38.7400 25.7964 0.2758
38.7600 25.8098 0.2702
38.7800 25.8231 0.2746
38.8000 25.8364 0.2728
38.8200 25.8498 0.2677
38.8400 25.8631 0.2724
38.8600 25.8764 0.2740
38.8800 25.8897 0.2715
38.9000 25.9030 0.2741
38.9200 25.9164 0.2694
38.9400 25.9297 0.2691
38.9600 25.9430 0.2746
38.9800 25.9564 0.2704
39.0000 25.9698 0.2701
39.0200 25.9831 0.2705
39.0400 25.9964 0.2654
39.0600 26.0097 0.2686
39.0800 26.0231 0.2690
39.1000 26.0364 0.2657
39.1200 26.0498 0.2619
39.1400 26.0631 0.2706
39.1600 26.0764 0.2592
39.1800 26.0898 0.2669
39.2000 26.1031 0.2692
39.2200 26.1164 0.2591
39.2400 26.1297 0.2643
39.2600 26.1430 0.2646
39.2800 26.1564 0.2549
39.3000 26.1697 0.2642
39.3200 26.1830 0.2627
39.3400 26.1964 0.2520
39.3600 26.2098 0.2620
39.3800 26.2232 0.2573
39.4000 26.2365 0.2532
39.4200 26.2498 0.2632
39.4400 26.2631 0.2548
39.4600 26.2765 0.2512
39.4800 26.2898 0.2601
39.5000 26.3031 0.2509
39.5200 26.3164 0.2541
39.5400 26.3297 0.2555
39.5600 26.3431 0.2493
39.5800 26.3564 0.2540
39.6000 26.3697 0.2601
39.6200 26.3830 0.2448
39.6400 26.3964 0.2496
39.6600 26.4097 0.2553
39.6800 26.4231 0.2430
39.7000 26.4364 0.2515
39.7200 26.4498 0.2557
39.7400 26.4631 0.2394
39.7600 26.4764 0.2518
39.7800 26.4898 0.2551
39.8000 26.5031 0.2427
39.8200 26.5165 0.2466
39.8400 26.5298 0.2521
39.8600 26.5431 0.2422
39.8800 26.5564 0.2444
39.9000 26.5697 0.2508
39.9200 26.5831 0.2403
39.9400 26.5963 0.2437
39.9600 26.6097 0.2475
39.9800 26.6230 0.2359
40.0000 26.6363 0.2485
40.0200 26.6497 0.2454
40.0400 26.6630 0.2366
40.0600 26.6764 0.2447
40.0800 26.6898 0.2384
40.1000 26.7032 0.2337
40.1200 26.7165 0.2441
40.1400 26.7298 0.2382
40.1600 26.7431 0.2336
40.1800 26.7565 0.2415
40.2000 26.7698 0.2380
40.2200 26.7831 0.2400
40.2400 26.7964 0.2369
40.2600 26.8097 0.2352
40.2800 26.8231 0.2385
40.3000 26.8364 0.2346
40.3200 26.8497 0.2376
40.3400 26.8630 0.2373
40.3600 26.8764 0.2316
40.3800 26.8897 0.2391
40.4000 26.9030 0.2391
40.4200 26.9164 0.2336
40.4400 26.9298 0.2351
40.4600 26.9431 0.2382
40.4800 26.9564 0.2287
40.5000 26.9698 0.2387
40.5200 26.9831 0.2333
40.5400 26.9965 0.2315
40.5600 27.0098 0.2387
40.5800 27.0231 0.2299
40.6000 27.0364 0.2295
40.6200 27.0497 0.2379
40.6400 27.0631 0.2294
40.6600 27.0764 0.2340
40.6800 27.0897 0.2288
40.7000 27.1030 0.2295
40.7200 27.1164 0.2334
40.7400 27.1297 0.2269
40.7600 27.1431 0.2305
40.7800 27.1564 0.2278
40.8000 27.1697 0.2274
40.8200 27.1831 0.2225
40.8400 27.1964 0.2301
40.8600 27.2097 0.2281
40.8800 27.2231 0.2247
40.9000 27.2365 0.2267
40.9200 27.2498 0.2231
40.9400 27.2631 0.2259
40.9600 27.2764 0.2254
40.9800 27.2898 0.2197
41.0000 27.3031 0.2250
41.0200 27.3165 0.2205
41.0400 27.3297 0.2189
41.0600 27.3430 0.2232
41.0800 27.3563 0.2220
41.1000 27.3697 0.2125
41.1200 27.3830 0.2254
41.1400 27.3964 0.2188
41.1600 27.4098 0.2134
41.1800 27.4232 0.2232
41.2000 27.4365 0.2133
41.2200 27.4498 0.2132
41.2400 27.4631 0.2225
41.2600 27.4765 0.2101
41.2800 27.4898 0.2136
41.3000 27.5031 0.2216
41.3200 27.5164 0.2111
41.3400 27.5297 0.2143
41.3600 27.5431 0.2195
41.3800 27.5564 0.2092
41.4000 27.5697 0.2224
41.4200 27.5830 0.2125
41.4400 27.5964 0.2096
41.4600 27.6097 0.2205
41.4800 27.6230 0.2085
41.5000 27.6364 0.2088
41.5200 27.6498 0.2166
41.5400 27.6632 0.2077
41.5600 27.6765 0.2087
41.5800 27.6898 0.2178
41.6000 27.7031 0.2083
41.6200 27.7165 0.2116
41.6400 27.7298 0.2106
41.6600 27.7431 0.2090
41.6800 27.7564 0.2074
41.7000 27.7697 0.2134
41.7200 27.7831 0.2095
41.7400 27.7964 0.2063
41.7600 27.8097 0.2093
41.7800 27.8230 0.2121
41.8000 27.8364 0.2087
41.8200 27.8497 0.2042
41.8400 27.8631 0.2103
41.8600 27.8764 0.2104
41.8800 27.8898 0.2036
41.9000 27.9031 0.2053
41.9200 27.9165 0.2088
41.9400 27.9298 0.2073
41.9600 27.9431 0.2019
41.9800 27.9565 0.2106
42.0000 27.9698 0.2064
42.0200 27.9831 0.2026
42.0400 27.9964 0.2098
42.0600 28.0097 0.2008
42.0800 28.0231 0.1997
42.1000 28.0364 0.2077
42.1200 28.0497 0.1972
42.1400 28.0630 0.2037
42.1600 28.0764 0.2046
42.1800 28.0897 0.1923
42.2000 28.1030 0.1991
42.2200 28.1164 0.2070
42.2400 28.1298 0.1895
42.2600 28.1432 0.1962
42.2800 28.1565 0.2085
42.3000 28.1698 0.1832
42.3200 28.1831 0.1976
42.3400 28.1964 0.2059
42.3600 28.2098 0.1813
42.3800 28.2231 0.1965
42.4000 28.2364 0.2015
42.4200 28.2497 0.1808
42.4400 28.2631 0.1928
42.4600 28.2764 0.1969
42.4800 28.2897 0.1769
42.5000 28.3030 0.1941
42.5200 28.3164 0.1964
42.5400 28.3297 0.1784
42.5600 28.3430 0.1953
42.5800 28.3564 0.1903
42.6000 28.3697 0.1753
42.6200 28.3831 0.1919
42.6400 28.3965 0.1861
42.6600 28.4098 0.1729
42.6800 28.4231 0.1921
42.7000 28.4365 0.1845
42.7200 28.4498 0.1724
42.7400 28.4631 0.1920
42.7600 28.4764 0.1823
42.7800 28.4897 0.1757
42.8000 28.5031 0.1845
42.8200 28.5164 0.1821
42.8400 28.5297 0.1772
42.8600 28.5430 0.1859
42.8800 28.5564 0.1823
42.9000 28.5697 0.1749
42.9200 28.5831 0.1827
42.9400 28.5964 0.1847
42.9600 28.6097 0.1762
42.9800 28.6231 0.1744
43.0000 28.6364 0.1822
43.0200 28.6497 0.1767
43.0400 28.6631 0.1732
43.0600 28.6764 0.1859
43.0800 28.6898 0.1713
43.1000 28.7031 0.1742
43.1200 28.7164 0.1877
43.1400 28.7297 0.1716
43.1600 28.7431 0.1779
43.1800 28.7564 0.1832
43.2000 28.7697 0.1651
43.2200 28.7830 0.1789
43.2400 28.7963 0.1869
43.2600 28.8097 0.1670
43.2800 28.8230 0.1761
43.3000 28.8363 0.1857
43.3200 28.8497 0.1625
43.3400 28.8631 0.1750
43.3600 28.8765 0.1782
43.3800 28.8898 0.1644
43.4000 28.9032 0.1765
43.4200 28.9165 0.1791
43.4400 28.9298 0.1570
43.4600 28.9431 0.1791
43.4800 28.9564 0.1748
43.5000 28.9697 0.1661
43.5200 28.9830 0.1784
43.5400 28.9964 0.1680
43.5600 29.0097 0.1619
43.5800 29.0230 0.1734
43.6000 29.0364 0.1711
43.6200 29.0497 0.1620
43.6400 29.0631 0.1698
43.6600 29.0764 0.1693
43.6800 29.0898 0.1652
43.7000 29.1032 0.1648
43.7200 29.1165 0.1640
43.7400 29.1298 0.1629
43.7600 29.1431 0.1648
43.7800 29.1564 0.1681
43.8000 29.1698 0.1634
43.8200 29.1831 0.1618
43.8400 29.1964 0.1688
43.8600 29.2097 0.1586
43.8800 29.2231 0.1587
43.9000 29.2364 0.1686
43.9200 29.2497 0.1591
43.9400 29.2630 0.1572
43.9600 29.2763 0.1734
43.9800 29.2897 0.1563
44.0000 29.3031 0.1558
44.0200 29.3164 0.1696
44.0400 29.3298 0.1562
44.0600 29.3431 0.1564
44.0800 29.3565 0.1669
44.1000 29.3698 0.1557
44.1200 29.3831 0.1581
44.1400 29.3964 0.1647
44.1600 29.4098 0.1526
44.1800 29.4231 0.1549
44.2000 29.4364 0.1633
44.2200 29.4497 0.1592
44.2400 29.4631 0.1543
44.2600 29.4764 0.1581
44.2800 29.4897 0.1570
44.3000 29.5030 0.1549
44.3200 29.5163 0.1601
44.3400 29.5297 0.1533
44.3600 29.5430 0.1511
44.3800 29.5564 0.1551
44.4000 29.5697 0.1547
44.4200 29.5831 0.1507
44.4400 29.5965 0.1564
44.4600 29.6098 0.1490
44.4800 29.6231 0.1473
44.5000 29.6364 0.1582
44.5200 29.6498 0.1479
44.5400 29.6631 0.1505
44.5600 29.6764 0.1558
44.5800 29.6897 0.1447
44.6000 29.7031 0.1474
44.6200 29.7164 0.1578
44.6400 29.7297 0.1406
44.6600 29.7430 0.1492
44.6800 29.7564 0.1542
44.7000 29.7697 0.1441
44.7200 29.7830 0.1459
44.7400 29.7964 0.1486
44.7600 29.8097 0.1429
44.7800 29.8231 0.1514
44.8000 29.8365 0.1473
44.8200 29.8498 0.1417
44.8400 29.8631 0.1517
44.8600 29.8764 0.1473
44.8800 29.8898 0.1432
44.9000 29.9031 0.1417
44.9200 29.9164 0.1466
44.9400 29.9297 0.1443
44.9600 29.9431 0.1382
44.9800 29.9564 0.1451
45.0000 29.9697 0.1409
45.0200 29.9830 0.1397
45.0400 29.9964 0.1443
45.0600 30.0097 0.1410
45.0800 30.0231 0.1365
45.1000 30.0364 0.1431
45.1200 30.0498 0.1381
45.1400 30.0631 0.1352
45.1600 30.0765 0.1435
45.1800 30.0898 0.1350
45.2000 30.1031 0.1351
45.2200 30.1164 0.1397
45.2400 30.1298 0.1300
45.2600 30.1431 0.1436
45.2800 30.1564 0.1352
45.3000 30.1697 0.1286
45.3200 30.1830 0.1426
45.3400 30.1964 0.1322
45.3600 30.2097 0.1320
45.3800 30.2230 0.1369
45.4000 30.2363 0.1309
45.4200 30.2497 0.1319
45.4400 30.2630 0.1393
45.4600 30.2764 0.1287
45.4800 30.2897 0.1338
45.5000 30.3031 0.1349
45.5200 30.3165 0.1264
45.5400 30.3298 0.1328
45.5600 30.3431 0.1327
45.5800 30.3565 0.1241
45.6000 30.3698 0.1300
45.6200 30.3831 0.1328
45.6400 30.3964 0.1290
45.6600 30.4097 0.1306
45.6800 30.4230 0.1327
45.7000 30.4364 0.1245
45.7200 30.4497 0.1354
45.7400 30.4630 0.1328
45.7600 30.4764 0.1263
45.7800 30.4897 0.1299
45.8000 30.5031 0.1274
45.8200 30.5164 0.1289
45.8400 30.5297 0.1250
45.8600 30.5431 0.1293
45.8800 30.5564 0.1270
45.9000 30.5697 0.1267
45.9200 30.5831 0.1326
45.9400 30.5964 0.1232
45.9600 30.6098 0.1267
45.9800 30.6231 0.1302
46.0000 30.6364 0.1237
46.0200 30.6498 0.1244
46.0400 30.6631 0.1278
46.0600 30.6765 0.1265
46.0800 30.6898 0.1202
46.1000 30.7030 0.1245
46.1200 30.7164 0.1228
46.1400 30.7297 0.1169
46.1600 30.7430 0.1291
46.1800 30.7564 0.1206
46.2000 30.7697 0.1134
46.2200 30.7831 0.1262
46.2400 30.7964 0.1163
46.2600 30.8098 0.1150
46.2800 30.8231 0.1290
46.3000 30.8364 0.1144
46.3200 30.8498 0.1139
46.3400 30.8631 0.1232
46.3600 30.8764 0.1097
46.3800 30.8898 0.1191
46.4000 30.9031 0.1235
46.4200 30.9165 0.1097
46.4400 30.9298 0.1172
46.4600 30.9430 0.1214
46.4800 30.9564 0.1068
46.5000 30.9697 0.1209
46.5200 30.9830 0.1196
46.5400 30.9964 0.1013
46.5600 31.0097 0.1206
46.5800 31.0231 0.1152
46.6000 31.0365 0.1035
46.6200 31.0498 0.1189
46.6400 31.0631 0.1169
46.6600 31.0764 0.1051
46.6800 31.0898 0.1182
46.7000 31.1031 0.1150
46.7200 31.1164 0.1033
46.7400 31.1297 0.1186
46.7600 31.1431 0.1143
46.7800 31.1564 0.1007
46.8000 31.1697 0.1159
46.8200 31.1830 0.1126
46.8400 31.1964 0.1048
46.8600 31.2097 0.1097
46.8800 31.2231 0.1141
46.9000 31.2364 0.1033
46.9200 31.2497 0.1092
46.9400 31.2631 0.1108
46.9600 31.2764 0.0980
46.9800 31.2898 0.1087
47.0000 31.3031 0.1146
47.0200 31.3164 0.0967
47.0400 31.3298 0.1085
47.0600 31.3431 0.1118
47.0800 31.3564 0.0953
47.1000 31.3697 0.1102
47.1200 31.3831 0.1120
47.1400 31.3964 0.0961
47.1600 31.4097 0.1072
47.1800 31.4230 0.1095
47.2000 31.4363 0.0916
47.2200 31.4497 0.1105
47.2400 31.4630 0.1079
47.2600 31.4764 0.0891
47.2800 31.4897 0.1092
47.3000 31.5031 0.1033
47.3200 31.5165 0.0896
47.3400 31.5298 0.1035
47.3600 31.5431 0.1014
47.3800 31.5564 0.0913
47.4000 31.5698 0.1013
47.4200 31.5831 0.1034
47.4400 31.5964 0.0886
47.4600 31.6097 0.1047
47.4800 31.6230 0.1035
47.5000 31.6364 0.0879
47.5200 31.6497 0.0961
47.5400 31.6630 0.1038
47.5600 31.6764 0.0919
47.5800 31.6897 0.0944
47.6000 31.7031 0.1007
47.6200 31.7164 0.0934
47.6400 31.7297 0.0960
47.6600 31.7431 0.0982
47.6800 31.7565 0.0857
47.7000 31.7698 0.0951
47.7200 31.7831 0.0976
47.7400 31.7964 0.0888
47.7600 31.8098 0.0939
47.7800 31.8231 0.0966
47.8000 31.8364 0.0877
47.8200 31.8497 0.0964
47.8400 31.8630 0.0944
47.8600 31.8764 0.0841
47.8800 31.8897 0.0957
47.9000 31.9030 0.0910
47.9200 31.9164 0.0854
47.9400 31.9297 0.0957
47.9600 31.9430 0.0857
47.9800 31.9564 0.0867
48.0000 31.9697 0.0921
48.0200 31.9830 0.0889
48.0400 31.9964 0.0856
48.0600 32.0098 0.0857
48.0800 32.0231 0.0885
48.1000 32.0364 0.0865
48.1200 32.0497 0.0903
48.1400 32.0631 0.0777
48.1600 32.0764 0.0820
48.1800 32.0898 0.0848
48.2000 32.1031 0.0844
48.2200 32.1165 0.0808
48.2400 32.1298 0.0796
48.2600 32.1431 0.0801
48.2800 32.1563 0.0846
48.3000 32.1697 0.0794
48.3200 32.1830 0.0810
48.3400 32.1963 0.0781
48.3600 32.2097 0.0797
48.3800 32.2231 0.0794
48.4000 32.2365 0.0725
48.4200 32.2498 0.0818
48.4400 32.2631 0.0846
48.4600 32.2765 0.0706
48.4800 32.2898 0.0777
48.5000 32.3032 0.0814
48.5200 32.3165 0.0696
48.5400 32.3298 0.0761
48.5600 32.3430 0.0832
48.5800 32.3564 0.0719
48.6000 32.3697 0.0777
48.6200 32.3830 0.0793
48.6400 32.3963 0.0747
48.6600 32.4097 0.0810
48.6800 32.4230 0.0764
48.7000 32.4364 0.0711
48.7200 32.4497 0.0788
48.7400 32.4631 0.0761
48.7600 32.4765 0.0677
48.7800 32.4898 0.0745
48.8000 32.5032 0.0750
48.8200 32.5165 0.0688
48.8400 32.5298 0.0778
48.8600 32.5431 0.0763
48.8800 32.5564 0.0681
48.9000 32.5697 0.0760
48.9200 32.5830 0.0731
48.9400 32.5964 0.0671
48.9600 32.6098 0.0696
48.9800 32.6231 0.0693
49.0000 32.6364 0.0675
49.0200 32.6497 0.0707
49.0400 32.6631 0.0653
49.0600 32.6764 0.0704
49.0800 32.6897 0.0640
49.1000 32.7031 0.0661
49.1200 32.7164 0.0675
49.1400 32.7298 0.0634
49.1600 32.7431 0.0662
49.1800 32.7564 0.0675
49.2000 32.7698 0.0582
49.2200 32.7831 0.0683
49.2400 32.7964 0.0638
49.2600 32.8098 0.0604
49.2800 32.8231 0.0661
49.3000 32.8364 0.0614
49.3200 32.8497 0.0605
49.3400 32.8630 0.0676
49.3600 32.8763 0.0582
49.3800 32.8897 0.0597
49.4000 32.9030 0.0665
49.4200 32.9164 0.0534
49.4400 32.9297 0.0651
49.4600 32.9431 0.0691
49.4800 32.9565 0.0499
49.5000 32.9698 0.0631
49.5200 32.9831 0.0702
49.5400 32.9964 0.0493
49.5600 33.0098 0.0660
49.5800 33.0231 0.0662
49.6000 33.0364 0.0537
49.6200 33.0497 0.0654
49.6400 33.0630 0.0646
49.6600 33.0764 0.0566
49.6800 33.0897 0.0628
49.7000 33.1030 0.0552
49.7200 33.1164 0.0590
49.7400 33.1297 0.0663
49.7600 33.1430 0.0556
49.7800 33.1564 0.0562
49.8000 33.1697 0.0640
49.8200 33.1830 0.0505
49.8400 33.1964 0.0683
49.8600 33.2098 0.0623
49.8800 33.2231 0.0397
49.9000 33.2364 0.0603
49.9200 33.2498 0.0613
49.9400 33.2632 0.0498
49.9600 33.2765 0.0536
49.9800 33.2898 0.0509
50.0000 33.3031 0.0544
50.0200 33.3164 0.0697
50.0400 33.3297 0.0448
50.0600 33.3431 0.0384
50.0800 33.3564 0.0684
50.1000 33.3697 0.0538
50.1200 33.3830 0.0459
50.1400 33.3964 0.0534
50.1600 33.4097 0.0433
50.1800 33.4231 0.0588
50.2000 33.4364 0.0502
50.2200 33.4498 0.0386
50.2400 33.4631 0.0581
50.2600 33.4764 0.0518
50.2800 33.4898 0.0424
50.3000 33.5031 0.0516
50.3200 33.5165 0.0508
50.3400 33.5298 0.0426
50.3600 33.5431 0.0497
50.3800 33.5564 0.0455
50.4000 33.5698 0.0474
50.4200 33.5831 0.0524
50.4400 33.5964 0.0370
50.4600 33.6097 0.0417
50.4800 33.6230 0.0504
50.5000 33.6363 0.0444
50.5200 33.6497 0.0413
50.5400 33.6630 0.0434
50.5600 33.6764 0.0413
50.5800 33.6898 0.0491
50.6000 33.7032 0.0386
50.6200 33.7165 0.0361
50.6400 33.7298 0.0504
50.6600 33.7431 0.0413
50.6800 33.7565 0.0368
50.7000 33.7697 0.0467
50.7200 33.7830 0.0389
50.7400 33.7964 0.0436
50.7600 33.8097 0.0414
50.7800 33.8230 0.0381
50.8000 33.8364 0.0459
50.8200 33.8497 0.0385
50.8400 33.8631 0.0360
50.8600 33.8764 0.0426
50.8800 33.8898 0.0363
50.9000 33.9031 0.0378
50.9200 33.9165 0.0456
50.9400 33.9298 0.0302
50.9600 33.9431 0.0360
50.9800 33.9564 0.0428
51.0000 33.9697 0.0295
51.0200 33.9831 0.0322
51.0400 33.9964 0.0444
51.0600 34.0097 0.0319
51.0800 34.0230 0.0312
51.1000 34.0364 0.0361
51.1200 34.0497 0.0341
51.1400 34.0630 0.0302
51.1600 34.0763 0.0382
51.1800 34.0897 0.0320
51.2000 34.1030 0.0288
51.2200 34.1164 0.0400
51.2400 34.1297 0.0337
51.2600 34.1431 0.0279
51.2800 34.1564 0.0348
51.3000 34.1698 0.0309
51.3200 34.1831 0.0246
51.3400 34.1964 0.0325
51.3600 34.2098 0.0297
51.3800 34.2231 0.0246
51.4000 34.2365 0.0355
51.4200 34.2498 0.0248
51.4400 34.2631 0.0233
51.4600 34.2764 0.0345
51.4800 34.2898 0.0236
51.5000 34.3031 0.0239
51.5200 34.3164 0.0332
51.5400 34.3297 0.0245
51.5600 34.3430 0.0215
51.5800 34.3564 0.0315
51.6000 34.3697 0.0248
51.6200 34.3831 0.0216
51.6400 34.3964 0.0281
51.6600 34.4098 0.0234
51.6800 34.4232 0.0168
51.7000 34.4365 0.0270
51.7200 34.4498 0.0299
51.7400 34.4631 0.0141
51.7600 34.4765 0.0225
51.7800 34.4897 0.0317
51.8000 34.5030 0.0138
51.8200 34.5164 0.0261
51.8400 34.5297 0.0274
51.8600 34.5431 0.0138
51.8800 34.5564 0.0237
51.9000 34.5697 0.0259
51.9200 34.5830 0.0100
51.9400 34.5964 0.0259
51.9600 34.6097 0.0278
51.9800 34.6230 0.0086
52.0000 34.6364 0.0259
52.0200 34.6497 0.0248
52.0400 34.6631 0.0119
52.0600 34.6764 0.0228
52.0800 34.6898 0.0193
52.1000 34.7031 0.0132
52.1200 34.7165 0.0163
52.1400 34.7298 0.0213
52.1600 34.7431 0.0167
52.1800 34.7564 0.0116
52.2000 34.7697 0.0226
52.2200 34.7830 0.0149
52.2400 34.7964 0.0208
52.2600 34.8097 0.0215
52.2800 34.8230 0.0134
52.3000 34.8364 0.0162
52.3200 34.8497 0.0218
52.3400 34.8630 0.0099
52.3600 34.8764 0.0169
52.3800 34.8898 0.0181
52.4000 34.9032 0.0052
52.4200 34.9164 0.0132
52.4400 34.9298 0.0274
52.4600 34.9431 -0.0008
52.4800 34.9565 0.0124
52.5000 34.9698 0.0230
52.5200 34.9831 0.0012
52.5400 34.9964 0.0115
52.5600 35.0098 0.0202
52.5800 35.0231 -0.0021
52.6000 35.0364 0.0103
52.6200 35.0497 0.0138
52.6400 35.0630 0.0009
52.6600 35.0764 0.0108
52.6800 35.0897 0.0089
52.7000 35.1030 0.0001
52.7200 35.1164 0.0141
52.7400 35.1298 0.0005
52.7600 35.1431 -0.0013
52.7800 35.1564 0.0135
52.8000 35.1698 0.0015
52.8200 35.1831 -0.0014
52.8400 35.1965 0.0117
52.8600 35.2097 -0.0017
52.8800 35.2230 -0.0007
52.9000 35.2363 0.0099
52.9200 35.2497 0.0017
52.9400 35.2630 -0.0031
52.9600 35.2764 0.0031
52.9800 35.2897 0.0024
53.0000 35.3031 -0.0049
53.0200 35.3164 0.0023
53.0400 35.3298 0.0029
53.0600 35.3431 -0.0070
53.0800 35.3564 -0.0017
53.1000 35.3698 0.0049
53.1200 35.3831 -0.0135
53.1400 35.3964 -0.0027
53.1600 35.4097 0.0034
53.1800 35.4231 -0.0113
53.2000 35.4364 -0.0056
53.2200 35.4498 0.0057
53.2400 35.4631 -0.0112
53.2600 35.4764 -0.0028
53.2800 35.4898 0.0036
53.3000 35.5031 -0.0131
53.3200 35.5164 0.0000
53.3400 35.5297 0.0034
53.3600 35.5430 -0.0156
53.3800 35.5564 -0.0040
53.4000 35.5697 -0.0050
53.4200 35.5830 -0.0151
53.4400 35.5964 -0.0029
53.4600 35.6097 -0.0034
53.4800 35.6231 -0.0189
53.5000 35.6364 -0.0080
53.5200 35.6497 -0.0066
53.5400 35.6631 -0.0148
53.5600 35.6764 -0.0057
53.5800 35.6898 -0.0083
53.6000 35.7031 -0.0187
53.6200 35.7164 -0.0066
53.6400 35.7298 -0.0031
53.6600 35.7431 -0.0211
53.6800 35.7564 -0.0040
53.7000 35.7697 -0.0053
53.7200 35.7830 -0.0217
53.7400 35.7963 -0.0086
53.7600 35.8097 -0.0067
53.7800 35.8230 -0.0220
53.8000 35.8364 -0.0118
53.8200 35.8498 -0.0172
53.8400 35.8631 -0.0193
53.8600 35.8764 -0.0070
53.8800 35.8898 -0.0206
53.9000 35.9031 -0.0177
53.9200 35.9165 -0.0048
53.9400 35.9298 -0.0265
53.9600 35.9431 -0.0147
53.9800 35.9564 -0.0034
54.0000 35.9697 -0.0243
54.0200 35.9831 -0.0177
54.0400 35.9964 -0.0101
54.0600 36.0097 -0.0235
54.0800 36.0230 -0.0120
54.1000 36.0364 -0.0168
54.1200 36.0497 -0.0260
54.1400 36.0631 -0.0131
54.1600 36.0764 -0.0149
54.1800 36.0898 -0.0252
54.2000 36.1031 -0.0135
54.2200 36.1164 -0.0166
54.2400 36.1298 -0.0258
54.2600 36.1431 -0.0134
54.2800 36.1565 -0.0242
54.3000 36.1698 -0.0258
54.3200 36.1831 -0.0127
54.3400 36.1964 -0.0294
54.3600 36.2098 -0.0241
54.3800 36.2231 -0.0137
54.4000 36.2364 -0.0277
54.4200 36.2497 -0.0237
54.4400 36.2630 -0.0162
54.4600 36.2764 -0.0282
54.4800 36.2897 -0.0280
54.5000 36.3031 -0.0158
54.5200 36.3164 -0.0293
54.5400 36.3298 -0.0281
54.5600 36.3432 -0.0225
54.5800 36.3565 -0.0338
54.6000 36.3698 -0.0229
54.6200 36.3831 -0.0255
54.6400 36.3965 -0.0366
54.6600 36.4098 -0.0229
54.6800 36.4231 -0.0314
54.7000 36.4364 -0.0296
54.7200 36.4497 -0.0249
54.7400 36.4631 -0.0352
54.7600 36.4764 -0.0331
54.7800 36.4897 -0.0273
54.8000 36.5030 -0.0377
54.8200 36.5164 -0.0357
54.8400 36.5297 -0.0309
54.8600 36.5431 -0.0362
54.8800 36.5564 -0.0317
54.9000 36.5698 -0.0353
54.9200 36.5831 -0.0409
54.9400 36.5964 -0.0301
54.9600 36.6098 -0.0366
54.9800 36.6231 -0.0392
55.0000 36.6365 -0.0296
55.0200 36.6498 -0.0437
55.0400 36.6631 -0.0406
55.0600 36.6764 -0.0297
55.0800 36.6897 -0.0447
55.1000 36.7030 -0.0358
55.1200 36.7164 -0.0284
55.1400 36.7297 -0.0470
55.1600 36.7430 -0.0343
55.1800 36.7564 -0.0351
55.2000 36.7697 -0.0505
55.2200 36.7830 -0.0305
55.2400 36.7964 -0.0373
55.2600 36.8097 -0.0512
55.2800 36.8231 -0.0305
55.3000 36.8364 -0.0378
55.3200 36.8497 -0.0523
55.3400 36.8631 -0.0325
55.3600 36.8764 -0.0408
55.3800 36.8898 -0.0560
55.4000 36.9031 -0.0312
55.4200 36.9164 -0.0412
55.4400 36.9298 -0.0505
55.4600 36.9431 -0.0368
55.4800 36.9564 -0.0457
55.5000 36.9697 -0.0541
55.5200 36.9830 -0.0352
55.5400 36.9963 -0.0465
55.5600 37.0097 -0.0569
55.5800 37.0230 -0.0380
55.6000 37.0363 -0.0460
55.6200 37.0498 -0.0584
55.6400 37.0632 -0.0406
55.6600 37.0765 -0.0512
55.6800 37.0898 -0.0577
55.7000 37.1031 -0.0432
55.7200 37.1165 -0.0526
55.7400 37.1298 -0.0598
55.7600 37.1431 -0.0478
55.7800 37.1564 -0.0514
55.8000 37.1697 -0.0601
55.8200 37.1831 -0.0524
55.8400 37.1964 -0.0515
55.8600 37.2097 -0.0605
55.8800 37.2230 -0.0474
55.9000 37.2363 -0.0502
55.9200 37.2497 -0.0618
55.9400 37.2630 -0.0516
55.9600 37.2764 -0.0496
55.9800 37.2897 -0.0648
56.0000 37.3031 -0.0515
56.0200 37.3165 -0.0554
56.0400 37.3298 -0.0643
56.0600 37.3431 -0.0513
56.0800 37.3565 -0.0559
56.1000 37.3698 -0.0628
56.1200 37.3831 -0.0495
56.1400 37.3964 -0.0538
56.1600 37.4097 -0.0670
56.1800 37.4231 -0.0504
56.2000 37.4364 -0.0544
56.2200 37.4497 -0.0691
56.2400 37.4630 -0.0534
56.2600 37.4764 -0.0534
56.2800 37.4897 -0.0694
56.3000 37.5031 -0.0570
56.3200 37.5164 -0.0604
56.3400 37.5297 -0.0656
56.3600 37.5431 -0.0561
56.3800 37.5564 -0.0624
56.4000 37.5698 -0.0713
56.4200 37.5831 -0.0563
56.4400 37.5964 -0.0595
56.4600 37.6098 -0.0719
56.4800 37.6231 -0.0576
56.5000 37.6364 -0.0648
56.5200 37.6497 -0.0714
56.5400 37.6631 -0.0564
56.5600 37.6764 -0.0696
56.5800 37.6897 -0.0701
56.6000 37.7030 -0.0579
56.6200 37.7163 -0.0703
56.6400 37.7297 -0.0739
56.6600 37.7430 -0.0613
56.6800 37.7564 -0.0701
56.7000 37.7698 -0.0725
56.7200 37.7831 -0.0630
56.7400 37.7965 -0.0776
56.7600 37.8098 -0.0682
56.7800 37.8231 -0.0701
56.8000 37.8365 -0.0776
56.8200 37.8498 -0.0683
56.8400 37.8631 -0.0716
56.8600 37.8764 -0.0772
56.8800 37.8897 -0.0692
56.9000 37.9031 -0.0725
56.9200 37.9164 -0.0804
56.9400 37.9297 -0.0724
56.9600 37.9430 -0.0730
56.9800 37.9564 -0.0753
57.0000 37.9697 -0.0739
57.0200 37.9831 -0.0786
57.0400 37.9964 -0.0733
57.0600 38.0097 -0.0745
57.0800 38.0231 -0.0806
57.1000 38.0365 -0.0737
57.1200 38.0498 -0.0795
57.1400 38.0631 -0.0826
57.1600 38.0765 -0.0752
57.1800 38.0898 -0.0841
57.2000 38.1031 -0.0767
57.2200 38.1164 -0.0772
57.2400 38.1297 -0.0822
57.2600 38.1430 -0.0799
57.2800 38.1564 -0.0782
57.3000 38.1697 -0.0852
57.3200 38.1830 -0.0821
57.3400 38.1964 -0.0784
57.3600 38.2097 -0.0871
57.3800 38.2230 -0.0809
57.4000 38.2364 -0.0853
57.4200 38.2497 -0.0842
57.4400 38.2631 -0.0822
57.4600 38.2765 -0.0889
57.4800 38.2898 -0.0880
57.5000 38.3031 -0.0809
57.5200 38.3164 -0.0843
57.5400 38.3298 -0.0929
57.5600 38.3431 -0.0846
57.5800 38.3564 -0.0857
57.6000 38.3697 -0.0940
57.6200 38.3831 -0.0887
57.6400 38.3964 -0.0875
57.6600 38.4097 -0.0866
57.6800 38.4230 -0.0928
57.7000 38.4363 -0.0883
57.7200 38.4497 -0.0920
57.7400 38.4630 -0.0971
57.7600 38.4763 -0.0868
57.7800 38.4897 -0.0953
57.8000 38.5031 -0.0961
57.8200 38.5165 -0.0904
57.8400 38.5298 -0.0999
57.8600 38.5431 -0.0972
57.8800 38.5565 -0.0894
57.9000 38.5698 -0.0988
57.9200 38.5831 -0.0982
57.9400 38.5964 -0.0949
57.9600 38.6097 -0.0959
57.9800 38.6230 -0.0949
58.0000 38.6364 -0.0942
58.0200 38.6497 -0.1058
58.0400 38.6630 -0.0950
58.0600 38.6764 -0.0998
58.0800 38.6897 -0.1032
58.1000 38.7031 -0.0957
58.1200 38.7164 -0.0990
58.1400 38.7298 -0.1087
58.1600 38.7431 -0.0976
58.1800 38.7565 -0.1031
58.2000 38.7698 -0.1084
58.2200 38.7831 -0.0967
58.2400 38.7964 -0.1021
58.2600 38.8098 -0.1123
58.2800 38.8231 -0.0962
58.3000 38.8364 -0.1090
58.3200 38.8497 -0.1116
58.3400 38.8631 -0.1002
58.3600 38.8764 -0.1077
58.3800 38.8897 -0.1148
58.4000 38.9030 -0.1051
58.4200 38.9164 -0.1099
58.4400 38.9297 -0.1127
58.4600 38.9431 -0.1066
58.4800 38.9564 -0.1122
58.5000 38.9698 -0.1139
58.5200 38.9831 -0.1063
58.5400 38.9965 -0.1165
58.5600 39.0098 -0.1163
58.5800 39.0231 -0.1071
58.6000 39.0364 -0.1186
58.6200 39.0498 -0.1175
58.6400 39.0631 -0.1099
58.6600 39.0764 -0.1212
58.6800 39.0897 -0.1138
58.7000 39.1031 -0.1083
58.7200 39.1164 -0.1216
58.7400 39.1297 -0.1129
58.7600 39.1430 -0.1117
58.7800 39.1563 -0.1280
58.8000 39.1697 -0.1129
58.8200 39.1830 -0.1144
58.8400 39.1964 -0.1292
58.8600 39.2097 -0.1103
58.8800 39.2231 -0.1167
58.9000 39.2365 -0.1324
58.9200 39.2498 -0.1176
58.9400 39.2631 -0.1191
58.9600 39.2764 -0.1279
58.9800 39.2898 -0.1184
59.0000 39.3031 -0.1249
59.0200 39.3164 -0.1262
59.0400 39.3297 -0.1189
59.0600 39.3431 -0.1239
59.0800 39.3564 -0.1298
59.1000 39.3697 -0.1254
59.1200 39.3830 -0.1235
59.1400 39.3964 -0.1328
59.1600 39.4097 -0.1234
59.1800 39.4231 -0.1259
59.2000 39.4364 -0.1351
59.2200 39.4497 -0.1213
59.2400 39.4631 -0.1316
59.2600 39.4764 -0.1378
59.2800 39.4898 -0.1250
59.3000 39.5031 -0.1293
59.3200 39.5164 -0.1402
59.3400 39.5298 -0.1255
59.3600 39.5431 -0.1334
59.3800 39.5564 -0.1349
59.4000 39.5697 -0.1219
59.4200 39.5830 -0.1418
59.4400 39.5964 -0.1368
59.4600 39.6097 -0.1283
59.4800 39.6230 -0.1374
59.5000 39.6364 -0.1384
59.5200 39.6497 -0.1260
59.5400 39.6630 -0.1417
59.5600 39.6763 -0.1370
59.5800 39.6897 -0.1294
59.6000 39.7031 -0.1432
59.6200 39.7165 -0.1398
59.6400 39.7298 -0.1336
59.6600 39.7431 -0.1414
59.6800 39.7564 -0.1425
59.7000 39.7698 -0.1329
59.7200 39.7831 -0.1422
59.7400 39.7964 -0.1455
59.7600 39.8097 -0.1353
59.7800 39.8231 -0.1422
59.8000 39.8364 -0.1493
59.8200 39.8497 -0.1382
59.8400 39.8630 -0.1445
59.8600 39.8764 -0.1499
59.8800 39.8897 -0.1377
59.9000 39.9030 -0.1454
59.9200 39.9164 -0.1523
59.9400 39.9297 -0.1436
59.9600 39.9431 -0.1475
59.9800 39.9565 -0.1572
60.0000 39.9698 -0.1444
60.0200 39.9831 -0.1494
60.0400 39.9964 -0.1651
60.0460 40.0003 -0.1741
