Raw Data
Time Displacement Force
(s) (mm) (N)
0.0000 0.0000 0.0993
0.0200 0.0001 0.1227
0.0400 0.0022 0.1860
0.0600 0.0101 0.1743
0.0800 0.0221 0.0954
0.1000 0.0346 0.1048
0.1200 0.0473 0.1314
0.1400 0.0607 0.1040
0.1600 0.0747 0.1151
0.1800 0.0889 0.1102
0.2000 0.1028 0.0882
0.2200 0.1164 0.1143
0.2400 0.1297 0.1106
0.2600 0.1430 0.0965
0.2800 0.1564 0.1251
0.3000 0.1697 0.1059
0.3200 0.1831 0.0939
0.3400 0.1965 0.1279
0.3600 0.2098 0.1002
0.3800 0.2231 0.1018
0.4000 0.2365 0.1221
0.4200 0.2498 0.0944
0.4400 0.2631 0.1021
0.4600 0.2764 0.1160
0.4800 0.2898 0.0931
0.5000 0.3031 0.0996
0.5200 0.3164 0.1123
0.5400 0.3297 0.0849
0.5600 0.3431 0.1004
0.5800 0.3564 0.1086
0.6000 0.3698 0.0805
0.6200 0.3831 0.1003
0.6400 0.3965 0.1005
0.6600 0.4099 0.0763
0.6800 0.4232 0.0983
0.7000 0.4365 0.0972
0.7200 0.4498 0.0765
0.7400 0.4632 0.0929
0.7600 0.4765 0.0938
0.7800 0.4899 0.0751
0.8000 0.5032 0.0950
0.8200 0.5165 0.0866
0.8400 0.5298 0.0729
0.8600 0.5432 0.0851
0.8800 0.5564 0.0818
0.9000 0.5697 0.0704
0.9200 0.5831 0.0808
0.9400 0.5964 0.0778
0.9600 0.6098 0.0712
0.9800 0.6231 0.0720
1.0000 0.6364 0.0813
1.0200 0.6498 0.0729
1.0400 0.6632 0.0679
1.0600 0.6765 0.0784
1.0800 0.6898 0.0685
1.1000 0.7032 0.0734
1.1200 0.7165 0.0814
1.1400 0.7298 0.0665
1.1600 0.7431 0.0713
1.1800 0.7564 0.0791
1.2000 0.7698 0.0633
1.2200 0.7832 0.0642
1.2400 0.7965 0.0839
1.2600 0.8098 0.0632
1.2800 0.8231 0.0677
1.3000 0.8365 0.0792
1.3200 0.8498 0.0551
1.3400 0.8631 0.0718
1.3600 0.8764 0.0717
1.3800 0.8898 0.0529
1.4000 0.9032 0.0692
1.4200 0.9165 0.0650
1.4400 0.9298 0.0477
1.4600 0.9432 0.0676
1.4800 0.9565 0.0592
1.5000 0.9699 0.0478
1.5200 0.9832 0.0657
1.5400 0.9965 0.0531
1.5600 1.0098 0.0484
1.5800 1.0231 0.0588
1.6000 1.0364 0.0455
1.6200 1.0497 0.0519
1.6400 1.0631 0.0490
1.6600 1.0764 0.0442
1.6800 1.0898 0.0461
1.7000 1.1031 0.0456
1.7200 1.1165 0.0448
1.7400 1.1299 0.0454
1.7600 1.1432 0.0429
1.7800 1.1566 0.0427
1.8000 1.1699 0.0459
1.8200 1.1832 0.0407
1.8400 1.1965 0.0452
1.8600 1.2099 0.0436
1.8800 1.2232 0.0352
1.9000 1.2365 0.0450
1.9200 1.2498 0.0400
1.9400 1.2632 0.0314
1.9600 1.2765 0.0432
1.9800 1.2898 0.0384
2.0000 1.3031 0.0307
2.0200 1.3164 0.0413
2.0400 1.3298 0.0346
2.0600 1.3431 0.0252
2.0800 1.3565 0.0355
2.1000 1.3698 0.0335
2.1200 1.3832 0.0238
2.1400 1.3966 0.0395
2.1600 1.4099 0.0340
2.1800 1.4232 0.0230
2.2000 1.4365 0.0421
2.2200 1.4498 0.0275
2.2400 1.4631 0.0208
2.2600 1.4764 0.0377
2.2800 1.4897 0.0245
2.3000 1.5031 0.0168
2.3200 1.5164 0.0382
2.3400 1.5298 0.0194
2.3600 1.5431 0.0196
2.3800 1.5565 0.0322
2.4000 1.5699 0.0133
2.4200 1.5832 0.0173
2.4400 1.5965 0.0280
2.4600 1.6098 0.0177
2.4800 1.6232 0.0185
2.5000 1.6365 0.0214
2.5200 1.6498 0.0170
2.5400 1.6631 0.0176
2.5600 1.6765 0.0234
2.5800 1.6898 0.0133
2.6000 1.7032 0.0123
2.6200 1.7165 0.0221
2.6400 1.7298 0.0151
2.6600 1.7432 0.0079
2.6800 1.7565 0.0197
2.7000 1.7698 0.0177
2.7200 1.7831 0.0042
2.7400 1.7964 0.0172
2.7600 1.8098 0.0107
2.7800 1.8231 0.0038
2.8000 1.8364 0.0199
2.8200 1.8498 0.0033
2.8400 1.8632 -0.0036
2.8600 1.8765 0.0146
2.8800 1.8898 0.0024
2.9000 1.9032 -0.0006
2.9200 1.9165 0.0131
2.9400 1.9299 -0.0027
2.9600 1.9432 -0.0013
2.9800 1.9565 0.0102
3.0000 1.9698 -0.0020
3.0200 1.9832 -0.0040
3.0400 1.9965 0.0002
3.0600 2.0098 -0.0014
3.0800 2.0231 -0.0031
3.1000 2.0364 0.0003
3.1200 2.0498 -0.0054
3.1400 2.0631 -0.0038
3.1600 2.0764 -0.0012
3.1800 2.0898 -0.0049
3.2000 2.1032 -0.0082
3.2200 2.1165 0.0019
3.2400 2.1299 -0.0100
3.2600 2.1432 -0.0110
3.2800 2.1566 0.0009
3.3000 2.1699 -0.0095
3.3200 2.1832 -0.0121
3.3400 2.1965 0.0017
3.3600 2.2098 -0.0113
3.3800 2.2231 -0.0139
3.4000 2.2365 -0.0017
3.4200 2.2498 -0.0131
3.4400 2.2631 -0.0121
3.4600 2.2764 -0.0077
3.4800 2.2898 -0.0170
3.5000 2.3031 -0.0090
3.5200 2.3165 -0.0079
3.5400 2.3298 -0.0252
3.5600 2.3432 -0.0122
3.5800 2.3565 -0.0157
3.6000 2.3699 -0.0213
3.6200 2.3832 -0.0133
3.6400 2.3965 -0.0150
3.6600 2.4099 -0.0227
3.6800 2.4232 -0.0113
3.7000 2.4365 -0.0197
3.7200 2.4498 -0.0218
3.7400 2.4632 -0.0124
3.7600 2.4765 -0.0215
3.7800 2.4898 -0.0280
3.8000 2.5031 -0.0145
3.8200 2.5164 -0.0216
3.8400 2.5298 -0.0243
3.8600 2.5431 -0.0154
3.8800 2.5564 -0.0258
3.9000 2.5698 -0.0203
3.9200 2.5832 -0.0195
3.9400 2.5966 -0.0300
3.9600 2.6099 -0.0223
3.9800 2.6232 -0.0221
4.0000 2.6365 -0.0327
4.0200 2.6499 -0.0272
4.0400 2.6632 -0.0224
4.0600 2.6765 -0.0331
4.0800 2.6898 -0.0228
4.1000 2.7031 -0.0282
4.1200 2.7165 -0.0358
4.1400 2.7298 -0.0285
4.1600 2.7431 -0.0241
4.1800 2.7564 -0.0326
4.2000 2.7698 -0.0317
4.2200 2.7831 -0.0303
4.2400 2.7964 -0.0319
4.2600 2.8098 -0.0316
4.2800 2.8232 -0.0349
4.3000 2.8365 -0.0378
4.3200 2.8499 -0.0422
4.3400 2.8632 -0.0286
4.3600 2.8765 -0.0403
4.3800 2.8899 -0.0372
4.4000 2.9032 -0.0312
4.4200 2.9165 -0.0475
4.4400 2.9298 -0.0389
4.4600 2.9431 -0.0324
4.4800 2.9565 -0.0469
4.5000 2.9698 -0.0399
4.5200 2.9831 -0.0341
4.5400 2.9964 -0.0518
4.5600 3.0098 -0.0432
4.5800 3.0231 -0.0347
4.6000 3.0365 -0.0530
4.6200 3.0498 -0.0408
4.6400 3.0632 -0.0384
4.6600 3.0765 -0.0553
4.6800 3.0898 -0.0448
4.7000 3.1031 -0.0357
4.7200 3.1165 -0.0583
4.7400 3.1299 -0.0450
4.7600 3.1432 -0.0397
4.7800 3.1565 -0.0636
4.8000 3.1699 -0.0402
4.8200 3.1832 -0.0448
4.8400 3.1965 -0.0624
4.8600 3.2098 -0.0437
4.8800 3.2231 -0.0496
4.9000 3.2364 -0.0603
4.9200 3.2497 -0.0440
4.9400 3.2631 -0.0518
4.9600 3.2764 -0.0633
4.9800 3.2898 -0.0461
5.0000 3.3032 -0.0546
5.0200 3.3166 -0.0661
5.0400 3.3299 -0.0475
5.0600 3.3432 -0.0610
5.0800 3.3566 -0.0634
5.1000 3.3699 -0.0543
5.1200 3.3832 -0.0639
5.1400 3.3965 -0.0646
5.1600 3.4098 -0.0542
5.1800 3.4231 -0.0621
5.2000 3.4365 -0.0682
5.2200 3.4498 -0.0590
5.2400 3.4631 -0.0643
5.2600 3.4764 -0.0671
5.2800 3.4898 -0.0595
5.3000 3.5031 -0.0644
5.3200 3.5164 -0.0683
5.3400 3.5298 -0.0649
5.3600 3.5432 -0.0632
5.3800 3.5565 -0.0668
5.4000 3.5699 -0.0675
5.4200 3.5832 -0.0625
5.4400 3.5965 -0.0680
5.4600 3.6099 -0.0715
5.4800 3.6232 -0.0636
5.5000 3.6365 -0.0707
5.5200 3.6498 -0.0724
5.5400 3.6631 -0.0605
5.5600 3.6765 -0.0759
5.5800 3.6898 -0.0752
5.6000 3.7031 -0.0604
5.6200 3.7164 -0.0778
5.6400 3.7298 -0.0734
5.6600 3.7432 -0.0629
5.6800 3.7565 -0.0793
5.7000 3.7698 -0.0777
5.7200 3.7832 -0.0627
5.7400 3.7965 -0.0833
5.7600 3.8099 -0.0754
5.7800 3.8232 -0.0642
5.8000 3.8365 -0.0825
5.8200 3.8499 -0.0759
5.8400 3.8632 -0.0733
5.8600 3.8765 -0.0791
5.8800 3.8898 -0.0762
5.9000 3.9032 -0.0754
5.9200 3.9165 -0.0829
5.9400 3.9298 -0.0812
5.9600 3.9431 -0.0787
5.9800 3.9564 -0.0781
6.0000 3.9698 -0.0792
6.0200 3.9831 -0.0789
6.0400 3.9965 -0.0818
6.0600 4.0098 -0.0831
6.0800 4.0232 -0.0795
6.1000 4.0366 -0.0821
6.1200 4.0499 -0.0872
6.1400 4.0632 -0.0811
6.1600 4.0765 -0.0848
6.1800 4.0899 -0.0926
6.2000 4.1032 -0.0791
6.2200 4.1165 -0.0856
6.2400 4.1298 -0.0882
6.2600 4.1431 -0.0783
6.2800 4.1565 -0.0841
6.3000 4.1698 -0.0913
6.3200 4.1831 -0.0853
6.3400 4.1964 -0.0856
6.3600 4.2098 -0.0942
6.3800 4.2231 -0.0836
6.4000 4.2364 -0.0901
6.4200 4.2498 -0.0929
6.4400 4.2631 -0.0838
6.4600 4.2765 -0.0942
6.4800 4.2899 -0.0934
6.5000 4.3032 -0.0836
6.5200 4.3165 -0.0930
6.5400 4.3299 -0.0928
6.5600 4.3432 -0.0826
6.5800 4.3565 -0.0979
6.6000 4.3698 -0.0925
6.6200 4.3831 -0.0833
6.6400 4.3965 -0.0999
6.6600 4.4098 -0.0980
6.6800 4.4231 -0.0830
6.7000 4.4364 -0.1002
6.7200 4.4498 -0.0971
6.7400 4.4631 -0.0844
6.7600 4.4764 -0.1033
6.7800 4.4898 -0.0970
6.8000 4.5031 -0.0928
6.8200 4.5165 -0.1035
6.8400 4.5298 -0.0961
6.8600 4.5432 -0.0921
6.8800 4.5565 -0.1040
6.9000 4.5698 -0.0981
6.9200 4.5832 -0.1008
6.9400 4.5965 -0.1083
6.9600 4.6098 -0.0988
6.9800 4.6231 -0.0996
7.0000 4.6365 -0.1070
7.0200 4.6498 -0.1037
7.0400 4.6631 -0.1039
7.0600 4.6764 -0.1057
7.0800 4.6897 -0.1058
7.1000 4.7031 -0.1015
7.1200 4.7164 -0.1087
7.1400 4.7298 -0.1066
7.1600 4.7432 -0.1044
7.1800 4.7566 -0.1045
7.2000 4.7699 -0.1067
7.2200 4.7832 -0.1069
7.2400 4.7966 -0.1105
7.2600 4.8099 -0.1077
7.2800 4.8232 -0.1051
7.3000 4.8365 -0.1106
7.3200 4.8498 -0.1080
7.3400 4.8631 -0.1051
7.3600 4.8764 -0.1102
7.3800 4.8898 -0.1132
7.4000 4.9031 -0.1081
7.4200 4.9164 -0.1082
7.4400 4.9298 -0.1155
7.4600 4.9432 -0.1123
7.4800 4.9565 -0.1128
7.5000 4.9698 -0.1142
7.5200 4.9832 -0.1103
7.5400 4.9966 -0.1137
7.5600 5.0099 -0.1154
7.5800 5.0232 -0.1126
7.6000 5.0365 -0.1133
7.6200 5.0499 -0.1171
7.6400 5.0632 -0.1158
7.6600 5.0765 -0.1160
7.6800 5.0898 -0.1182
7.7000 5.1031 -0.1160
7.7200 5.1165 -0.1192
7.7400 5.1298 -0.1192
7.7600 5.1431 -0.1175
7.7800 5.1564 -0.1222
7.8000 5.1697 -0.1190
7.8200 5.1831 -0.1198
7.8400 5.1965 -0.1240
7.8600 5.2098 -0.1184
7.8800 5.2232 -0.1197
7.9000 5.2365 -0.1259
7.9200 5.2499 -0.1209
7.9400 5.2632 -0.1245
7.9600 5.2765 -0.1229
7.9800 5.2899 -0.1225
8.0000 5.3032 -0.1285
8.0200 5.3165 -0.1242
8.0400 5.3298 -0.1196
8.0600 5.3431 -0.1300
8.0800 5.3565 -0.1213
8.1000 5.3698 -0.1252
8.1200 5.3831 -0.1357
8.1400 5.3964 -0.1222
8.1600 5.4097 -0.1250
8.1800 5.4231 -0.1314
8.2000 5.4364 -0.1221
8.2200 5.4498 -0.1315
8.2400 5.4631 -0.1318
8.2600 5.4765 -0.1254
8.2800 5.4899 -0.1290
8.3000 5.5032 -0.1314
8.3200 5.5165 -0.1264
8.3400 5.5298 -0.1311
8.3600 5.5432 -0.1306
8.3800 5.5565 -0.1303
8.4000 5.5698 -0.1315
8.4200 5.5831 -0.1286
8.4400 5.5965 -0.1306
8.4600 5.6098 -0.1311
8.4800 5.6231 -0.1349
8.5000 5.6364 -0.1312
8.5200 5.6498 -0.1283
8.5400 5.6631 -0.1364
8.5600 5.6765 -0.1307
8.5800 5.6898 -0.1280
8.6000 5.7031 -0.1388
8.6200 5.7165 -0.1303
8.6400 5.7299 -0.1307
8.6600 5.7432 -0.1399
8.6800 5.7565 -0.1300
8.7000 5.7699 -0.1305
8.7200 5.7832 -0.1401
8.7400 5.7966 -0.1355
8.7600 5.8098 -0.1327
8.7800 5.8231 -0.1448
8.8000 5.8365 -0.1363
8.8200 5.8498 -0.1344
8.8400 5.8631 -0.1463
8.8600 5.8764 -0.1350
8.8800 5.8897 -0.1357
8.9000 5.9031 -0.1482
8.9200 5.9165 -0.1339
8.9400 5.9298 -0.1332
8.9600 5.9432 -0.1484
8.9800 5.9566 -0.1363
9.0000 5.9699 -0.1429
9.0200 5.9832 -0.1482
9.0400 5.9965 -0.1335
9.0600 6.0098 -0.1418
9.0800 6.0232 -0.1500
9.1000 6.0365 -0.1387
9.1200 6.0498 -0.1452
9.1400 6.0631 -0.1426
9.1600 6.0764 -0.1397
9.1800 6.0898 -0.1514
9.2000 6.1031 -0.1458
9.2200 6.1164 -0.1448
9.2400 6.1297 -0.1458
9.2600 6.1431 -0.1451
9.2800 6.1564 -0.1475
9.3000 6.1698 -0.1472
9.3200 6.1831 -0.1471
9.3400 6.1965 -0.1511
9.3600 6.2099 -0.1444
9.3800 6.2232 -0.1522
9.4000 6.2365 -0.1545
9.4200 6.2499 -0.1453
9.4400 6.2632 -0.1529
9.4600 6.2765 -0.1535
9.4800 6.2898 -0.1447
9.5000 6.3031 -0.1537
9.5200 6.3164 -0.1542
9.5400 6.3298 -0.1516
9.5600 6.3431 -0.1506
9.5800 6.3564 -0.1570
9.6000 6.3698 -0.1485
9.6200 6.3831 -0.1575
9.6400 6.3965 -0.1631
9.6600 6.4098 -0.1446
9.6800 6.4232 -0.1549
9.7000 6.4365 -0.1638
9.7200 6.4499 -0.1491
9.7400 6.4632 -0.1576
9.7600 6.4765 -0.1667
9.7800 6.4898 -0.1476
9.8000 6.5032 -0.1584
9.8200 6.5165 -0.1687
9.8400 6.5298 -0.1492
9.8600 6.5432 -0.1622
9.8800 6.5565 -0.1671
9.9000 6.5699 -0.1498
9.9200 6.5832 -0.1674
9.9400 6.5965 -0.1631
9.9600 6.6098 -0.1515
9.9800 6.6231 -0.1690
10.0000 6.6364 -0.1613
10.0200 6.6498 -0.1467
10.0400 6.6631 -0.1730
10.0600 6.6765 -0.1652
10.0800 6.6899 -0.1492
10.1000 6.7032 -0.1754
10.1200 6.7165 -0.1630
10.1400 6.7298 -0.1474
10.1600 6.7432 -0.1710
10.1800 6.7565 -0.1656
10.2000 6.7698 -0.1538
10.2200 6.7832 -0.1709
10.2400 6.7965 -0.1653
10.2600 6.8098 -0.1534
10.2800 6.8232 -0.1744
10.3000 6.8365 -0.1649
10.3200 6.8498 -0.1545
10.3400 6.8631 -0.1696
10.3600 6.8764 -0.1660
10.3800 6.8898 -0.1598
10.4000 6.9031 -0.1657
10.4200 6.9165 -0.1685
10.4400 6.9299 -0.1572
10.4600 6.9432 -0.1682
10.4800 6.9565 -0.1651
10.5000 6.9698 -0.1582
10.5200 6.9832 -0.1743
10.5400 6.9965 -0.1631
10.5600 7.0098 -0.1587
10.5800 7.0231 -0.1725
10.6000 7.0365 -0.1716
10.6200 7.0498 -0.1617
10.6400 7.0631 -0.1724
10.6600 7.0764 -0.1735
10.6800 7.0898 -0.1568
10.7000 7.1031 -0.1773
10.7200 7.1165 -0.1738
10.7400 7.1298 -0.1604
10.7600 7.1431 -0.1746
10.7800 7.1565 -0.1734
10.8000 7.1698 -0.1600
10.8200 7.1832 -0.1759
10.8400 7.1965 -0.1771
10.8600 7.2098 -0.1618
10.8800 7.2232 -0.1773
10.9000 7.2366 -0.1780
10.9200 7.2499 -0.1645
10.9400 7.2631 -0.1810
10.9600 7.2765 -0.1734
10.9800 7.2898 -0.1696
11.0000 7.3031 -0.1850
11.0200 7.3164 -0.1746
11.0400 7.3297 -0.1733
11.0600 7.3431 -0.1856
11.0800 7.3564 -0.1762
11.1000 7.3698 -0.1727
11.1200 7.3831 -0.1891
11.1400 7.3965 -0.1760
11.1600 7.4099 -0.1763
11.1800 7.4232 -0.1872
11.2000 7.4365 -0.1787
11.2200 7.4498 -0.1788
11.2400 7.4632 -0.1842
11.2600 7.4765 -0.1858
11.2800 7.4899 -0.1846
11.3000 7.5032 -0.1861
11.3200 7.5165 -0.1803
11.3400 7.5298 -0.1821
11.3600 7.5432 -0.1883
11.3800 7.5565 -0.1820
11.4000 7.5698 -0.1878
11.4200 7.5831 -0.1848
11.4400 7.5965 -0.1837
11.4600 7.6098 -0.1836
11.4800 7.6231 -0.1888
11.5000 7.6365 -0.1877
11.5200 7.6499 -0.1825
11.5400 7.6632 -0.1899
11.5600 7.6765 -0.1859
11.5800 7.6898 -0.1813
11.6000 7.7032 -0.1918
11.6200 7.7165 -0.1832
11.6400 7.7298 -0.1828
11.6600 7.7431 -0.1923
11.6800 7.7564 -0.1805
11.7000 7.7698 -0.1828
11.7200 7.7831 -0.1982
11.7400 7.7964 -0.1861
11.7600 7.8097 -0.1820
11.7800 7.8231 -0.1955
11.8000 7.8365 -0.1872
11.8200 7.8498 -0.1878
11.8400 7.8631 -0.1954
11.8600 7.8764 -0.1825
11.8800 7.8898 -0.1926
11.9000 7.9032 -0.1974
11.9200 7.9165 -0.1836
11.9400 7.9298 -0.1905
11.9600 7.9432 -0.1901
11.9800 7.9565 -0.1862
12.0000 7.9699 -0.1926
12.0200 7.9832 -0.1967
12.0400 7.9965 -0.1858
12.0600 8.0099 -0.1916
12.0800 8.0232 -0.1966
12.1000 8.0365 -0.1828
12.1200 8.0498 -0.1929
12.1400 8.0631 -0.1948
12.1600 8.0764 -0.1831
12.1800 8.0897 -0.1945
12.2000 8.1031 -0.1890
12.2200 8.1165 -0.1873
12.2400 8.1299 -0.1995
12.2600 8.1433 -0.1928
12.2800 8.1566 -0.1864
12.3000 8.1699 -0.2011
12.3200 8.1832 -0.1873
12.3400 8.1966 -0.1860
12.3600 8.2099 -0.1976
12.3800 8.2231 -0.1896
12.4000 8.2365 -0.1881
12.4200 8.2498 -0.2042
12.4400 8.2631 -0.1891
12.4600 8.2764 -0.1898
12.4800 8.2897 -0.2011
12.5000 8.3031 -0.1861
12.5200 8.3164 -0.1955
12.5400 8.3298 -0.2001
12.5600 8.3431 -0.1923
12.5800 8.3565 -0.1961
12.6000 8.3698 -0.2000
12.6200 8.3832 -0.1933
12.6400 8.3966 -0.1959
12.6600 8.4099 -0.1987
12.6800 8.4232 -0.1960
12.7000 8.4366 -0.1944
12.7200 8.4499 -0.1977
12.7400 8.4631 -0.1966
12.7600 8.4764 -0.1951
12.7800 8.4898 -0.2012
12.8000 8.5031 -0.2008
12.8200 8.5164 -0.1915
12.8400 8.5297 -0.2074
12.8600 8.5431 -0.1987
12.8800 8.5565 -0.1942
12.9000 8.5698 -0.2115
12.9200 8.5832 -0.1992
12.9400 8.5965 -0.1952
12.9600 8.6099 -0.2134
12.9800 8.6232 -0.1975
13.0000 8.6365 -0.1945
13.0200 8.6498 -0.2150
13.0400 8.6632 -0.2033
13.0600 8.6766 -0.1944
13.0800 8.6899 -0.2184
13.1000 8.7032 -0.1967
13.1200 8.7165 -0.2042
13.1400 8.7298 -0.2183
13.1600 8.7431 -0.2021
13.1800 8.7564 -0.2084
13.2000 8.7697 -0.2108
13.2200 8.7831 -0.2046
13.2400 8.7965 -0.2072
13.2600 8.8098 -0.2175
13.2800 8.8232 -0.2003
13.3000 8.8365 -0.2098
13.3200 8.8499 -0.2149
13.3400 8.8632 -0.2032
13.3600 8.8765 -0.2096
13.3800 8.8899 -0.2155
13.4000 8.9032 -0.2036
13.4200 8.9165 -0.2090
13.4400 8.9298 -0.2155
13.4600 8.9431 -0.2099
13.4800 8.9564 -0.2025
13.5000 8.9698 -0.2178
13.5200 8.9831 -0.2139
13.5400 8.9965 -0.2054
13.5600 9.0098 -0.2197
13.5800 9.0231 -0.2138
13.6000 9.0365 -0.2085
13.6200 9.0498 -0.2296
13.6400 9.0631 -0.2133
13.6600 9.0764 -0.2115
13.6800 9.0898 -0.2285
13.7000 9.1032 -0.2126
13.7200 9.1165 -0.2110
13.7400 9.1299 -0.2305
13.7600 9.1432 -0.2128
13.7800 9.1566 -0.2121
13.8000 9.1699 -0.2327
13.8200 9.1832 -0.2124
13.8400 9.1965 -0.2151
13.8600 9.2098 -0.2319
13.8800 9.2231 -0.2072
13.9000 9.2365 -0.2162
13.9200 9.2498 -0.2265
13.9400 9.2631 -0.2121
13.9600 9.2765 -0.2140
13.9800 9.2898 -0.2250
14.0000 9.3031 -0.2172
14.0200 9.3165 -0.2148
14.0400 9.3298 -0.2296
14.0600 9.3432 -0.2142
14.0800 9.3565 -0.2185
14.1000 9.3698 -0.2273
14.1200 9.3832 -0.2136
14.1400 9.3965 -0.2163
14.1600 9.4098 -0.2298
14.1800 9.4232 -0.2161
14.2000 9.4365 -0.2163
14.2200 9.4498 -0.2325
14.2400 9.4632 -0.2194
14.2600 9.4765 -0.2154
14.2800 9.4897 -0.2304
14.3000 9.5030 -0.2154
14.3200 9.5164 -0.2232
14.3400 9.5297 -0.2323
14.3600 9.5431 -0.2164
14.3800 9.5565 -0.2204
14.4000 9.5698 -0.2297
14.4200 9.5832 -0.2212
14.4400 9.5966 -0.2234
14.4600 9.6099 -0.2293
14.4800 9.6232 -0.2187
14.5000 9.6366 -0.2278
14.5200 9.6499 -0.2327
14.5400 9.6631 -0.2210
14.5600 9.6764 -0.2270
14.5800 9.6897 -0.2261
14.6000 9.7031 -0.2244
14.6200 9.7164 -0.2269
14.6400 9.7298 -0.2323
14.6600 9.7431 -0.2260
14.6800 9.7565 -0.2206
14.7000 9.7698 -0.2326
14.7200 9.7832 -0.2258
14.7400 9.7965 -0.2218
14.7600 9.8099 -0.2368
14.7800 9.8232 -0.2277
14.8000 9.8365 -0.2245
14.8200 9.8498 -0.2312
14.8400 9.8632 -0.2286
14.8600 9.8765 -0.2201
14.8800 9.8898 -0.2345
14.9000 9.9031 -0.2323
14.9200 9.9165 -0.2190
14.9400 9.9298 -0.2370
14.9600 9.9431 -0.2329
14.9800 9.9565 -0.2274
15.0000 9.9697 -0.2336
15.0200 9.9831 -0.2330
15.0400 9.9964 -0.2258
15.0600 10.0098 -0.2368
15.0800 10.0232 -0.2370
15.1000 10.0365 -0.2234
15.1200 10.0499 -0.2374
15.1400 10.0632 -0.2349
15.1600 10.0765 -0.2286
15.1800 10.0899 -0.2398
15.2000 10.1032 -0.2331
15.2200 10.1165 -0.2273
15.2400 10.1299 -0.2371
15.2600 10.1432 -0.2415
15.2800 10.1565 -0.2238
15.3000 10.1698 -0.2380
15.3200 10.1832 -0.2408
15.3400 10.1965 -0.2272
15.3600 10.2098 -0.2343
15.3800 10.2231 -0.2406
15.4000 10.2364 -0.2301
15.4200 10.2498 -0.2359
15.4400 10.2631 -0.2409
15.4600 10.2765 -0.2261
15.4800 10.2898 -0.2390
15.5000 10.3032 -0.2446
15.5200 10.3166 -0.2282
15.5400 10.3299 -0.2351
15.5600 10.3432 -0.2461
15.5800 10.3566 -0.2300
15.6000 10.3699 -0.2327
15.6200 10.3832 -0.2433
15.6400 10.3965 -0.2322
15.6600 10.4098 -0.2327
15.6800 10.4231 -0.2443
15.7000 10.4365 -0.2306
15.7200 10.4498 -0.2326
15.7400 10.4631 -0.2399
15.7600 10.4764 -0.2332
15.7800 10.4898 -0.2372
15.8000 10.5031 -0.2446
15.8200 10.5164 -0.2349
15.8400 10.5298 -0.2308
15.8600 10.5432 -0.2481
15.8800 10.5565 -0.2332
15.9000 10.5698 -0.2298
15.9200 10.5832 -0.2476
15.9400 10.5965 -0.2327
15.9600 10.6099 -0.2363
15.9800 10.6232 -0.2456
16.0000 10.6365 -0.2282
16.0200 10.6498 -0.2427
16.0400 10.6632 -0.2461
16.0600 10.6765 -0.2329
16.0800 10.6898 -0.2391
16.1000 10.7031 -0.2448
16.1200 10.7164 -0.2391
16.1400 10.7298 -0.2444
16.1600 10.7431 -0.2463
16.1800 10.7565 -0.2355
16.2000 10.7698 -0.2441
16.2200 10.7832 -0.2448
16.2400 10.7965 -0.2391
16.2600 10.8098 -0.2465
16.2800 10.8232 -0.2414
16.3000 10.8365 -0.2365
16.3200 10.8499 -0.2446
16.3400 10.8632 -0.2448
16.3600 10.8765 -0.2412
16.3800 10.8898 -0.2395
16.4000 10.9032 -0.2443
16.4200 10.9165 -0.2428
16.4400 10.9298 -0.2425
16.4600 10.9431 -0.2485
16.4800 10.9564 -0.2374
16.5000 10.9698 -0.2417
16.5200 10.9831 -0.2488
16.5400 10.9965 -0.2417
16.5600 11.0098 -0.2372
16.5800 11.0232 -0.2523
16.6000 11.0365 -0.2401
16.6200 11.0499 -0.2372
16.6400 11.0632 -0.2537
16.6600 11.0765 -0.2398
16.6800 11.0899 -0.2416
16.7000 11.1031 -0.2488
16.7200 11.1164 -0.2363
16.7400 11.1298 -0.2400
16.7600 11.1431 -0.2502
16.7800 11.1565 -0.2416
16.8000 11.1698 -0.2415
16.8200 11.1831 -0.2483
16.8400 11.1965 -0.2429
16.8600 11.2098 -0.2462
16.8800 11.2232 -0.2491
16.9000 11.2365 -0.2408
16.9200 11.2498 -0.2492
16.9400 11.2632 -0.2490
16.9600 11.2765 -0.2456
16.9800 11.2898 -0.2427
17.0000 11.3031 -0.2493
17.0200 11.3165 -0.2478
17.0400 11.3298 -0.2476
17.0600 11.3432 -0.2517
17.0800 11.3565 -0.2542
17.1000 11.3698 -0.2461
17.1200 11.3832 -0.2532
17.1400 11.3965 -0.2524
17.1600 11.4098 -0.2512
17.1800 11.4231 -0.2504
17.2000 11.4364 -0.2548
17.2200 11.4498 -0.2521
17.2400 11.4631 -0.2510
17.2600 11.4764 -0.2514
17.2800 11.4898 -0.2509
17.3000 11.5032 -0.2541
17.3200 11.5165 -0.2573
17.3400 11.5298 -0.2564
17.3600 11.5432 -0.2523
17.3800 11.5565 -0.2600
17.4000 11.5699 -0.2571
17.4200 11.5832 -0.2539
17.4400 11.5965 -0.2627
17.4600 11.6098 -0.2544
17.4800 11.6232 -0.2520
17.5000 11.6365 -0.2622
17.5200 11.6498 -0.2507
17.5400 11.6631 -0.2566
17.5600 11.6764 -0.2604
17.5800 11.6898 -0.2537
17.6000 11.7031 -0.2563
17.6200 11.7164 -0.2619
17.6400 11.7298 -0.2547
17.6600 11.7432 -0.2606
17.6800 11.7565 -0.2653
17.7000 11.7699 -0.2523
17.7200 11.7832 -0.2606
17.7400 11.7965 -0.2628
17.7600 11.8099 -0.2522
17.7800 11.8232 -0.2611
17.8000 11.8365 -0.2603
17.8200 11.8498 -0.2532
17.8400 11.8631 -0.2597
17.8600 11.8765 -0.2587
17.8800 11.8898 -0.2598
17.9000 11.9031 -0.2575
17.9200 11.9165 -0.2609
17.9400 11.9298 -0.2627
17.9600 11.9432 -0.2559
17.9800 11.9565 -0.2622
18.0000 11.9698 -0.2604
18.0200 11.9832 -0.2588
18.0400 11.9965 -0.2657
18.0600 12.0098 -0.2600
18.0800 12.0232 -0.2600
18.1000 12.0365 -0.2663
18.1200 12.0499 -0.2608
18.1400 12.0632 -0.2587
18.1600 12.0765 -0.2679
18.1800 12.0898 -0.2581
18.2000 12.1032 -0.2593
18.2200 12.1165 -0.2731
18.2400 12.1298 -0.2613
18.2600 12.1431 -0.2584
18.2800 12.1564 -0.2671
18.3000 12.1698 -0.2600
18.3200 12.1831 -0.2598
18.3400 12.1965 -0.2717
18.3600 12.2098 -0.2648
18.3800 12.2232 -0.2615
18.4000 12.2366 -0.2749
18.4200 12.2499 -0.2585
18.4400 12.2632 -0.2680
18.4600 12.2765 -0.2748
18.4800 12.2899 -0.2618
18.5000 12.3032 -0.2656
18.5200 12.3165 -0.2742
18.5400 12.3298 -0.2615
18.5600 12.3431 -0.2633
18.5800 12.3565 -0.2755
18.6000 12.3698 -0.2659
18.6200 12.3831 -0.2643
18.6400 12.3965 -0.2781
18.6600 12.4098 -0.2673
18.6800 12.4231 -0.2690
18.7000 12.4364 -0.2773
18.7200 12.4498 -0.2668
18.7400 12.4632 -0.2636
18.7600 12.4765 -0.2776
18.7800 12.4899 -0.2724
18.8000 12.5032 -0.2632
18.8200 12.5165 -0.2810
18.8400 12.5299 -0.2742
18.8600 12.5432 -0.2647
18.8800 12.5565 -0.2804
18.9000 12.5698 -0.2724
18.9200 12.5831 -0.2641
18.9400 12.5965 -0.2812
18.9600 12.6098 -0.2714
18.9800 12.6231 -0.2700
19.0000 12.6364 -0.2791
19.0200 12.6498 -0.2691
19.0400 12.6631 -0.2707
19.0600 12.6765 -0.2823
19.0800 12.6898 -0.2733
19.1000 12.7031 -0.2734
19.1200 12.7165 -0.2780
19.1400 12.7298 -0.2761
19.1600 12.7431 -0.2721
19.1800 12.7565 -0.2813
19.2000 12.7698 -0.2799
19.2200 12.7832 -0.2745
19.2400 12.7965 -0.2785
19.2600 12.8098 -0.2853
19.2800 12.8232 -0.2740
19.3000 12.8365 -0.2825
19.3200 12.8498 -0.2839
19.3400 12.8631 -0.2708
19.3600 12.8764 -0.2825
19.3800 12.8897 -0.2890
19.4000 12.9031 -0.2719
19.4200 12.9164 -0.2837
19.4400 12.9298 -0.2851
19.4600 12.9432 -0.2801
19.4800 12.9566 -0.2849
19.5000 12.9699 -0.2870
19.5200 12.9832 -0.2822
19.5400 12.9965 -0.2835
19.5600 13.0099 -0.2822
19.5800 13.0232 -0.2815
19.6000 13.0365 -0.2847
19.6200 13.0498 -0.2795
19.6400 13.0631 -0.2789
19.6600 13.0765 -0.2789
19.6800 13.0898 -0.2842
19.7000 13.1031 -0.2804
19.7200 13.1164 -0.2766
19.7400 13.1298 -0.2843
19.7600 13.1431 -0.2760
19.7800 13.1564 -0.2759
19.8000 13.1698 -0.2821
19.8200 13.1832 -0.2781
19.8400 13.1965 -0.2813
19.8600 13.2099 -0.2857
19.8800 13.2232 -0.2773
19.9000 13.2365 -0.2771
19.9200 13.2499 -0.2898
19.9400 13.2632 -0.2745
19.9600 13.2765 -0.2757
19.9800 13.2898 -0.2848
20.0000 13.3031 -0.2812
20.0200 13.3165 -0.2775
20.0400 13.3298 -0.2913
20.0600 13.3431 -0.2789
20.0800 13.3564 -0.2764
20.1000 13.3698 -0.2941
20.1200 13.3832 -0.2767
20.1400 13.3965 -0.2837
20.1600 13.4098 -0.2903
20.1800 13.4232 -0.2786
20.2000 13.4365 -0.2827
20.2200 13.4499 -0.2914
20.2400 13.4632 -0.2825
20.2600 13.4765 -0.2836
20.2800 13.4899 -0.2992
20.3000 13.5032 -0.2780
20.3200 13.5165 -0.2792
20.3400 13.5298 -0.2980
20.3600 13.5432 -0.2816
20.3800 13.5565 -0.2832
20.4000 13.5698 -0.2986
20.4200 13.5831 -0.2816
20.4400 13.5964 -0.2811
20.4600 13.6098 -0.3008
20.4800 13.6231 -0.2844
20.5000 13.6365 -0.2846
20.5200 13.6498 -0.2996
20.5400 13.6632 -0.2810
20.5600 13.6766 -0.2895
20.5800 13.6899 -0.3033
20.6000 13.7032 -0.2825
20.6200 13.7165 -0.2941
20.6400 13.7299 -0.2963
20.6600 13.7432 -0.2801
20.6800 13.7565 -0.2941
20.7000 13.7698 -0.3004
20.7200 13.7831 -0.2830
20.7400 13.7965 -0.2871
20.7600 13.8098 -0.2984
20.7800 13.8231 -0.2888
20.8000 13.8364 -0.2925
20.8200 13.8498 -0.2986
20.8400 13.8631 -0.2837
20.8600 13.8764 -0.2933
20.8800 13.8898 -0.3023
20.9000 13.9031 -0.2870
20.9200 13.9165 -0.2951
20.9400 13.9299 -0.2991
20.9600 13.9432 -0.2845
20.9800 13.9565 -0.2973
21.0000 13.9699 -0.3012
21.0200 13.9832 -0.2896
21.0400 13.9965 -0.2934
21.0600 14.0098 -0.2933
21.0800 14.0231 -0.2928
21.1000 14.0365 -0.2927
21.1200 14.0498 -0.3002
21.1400 14.0631 -0.2929
21.1600 14.0764 -0.2894
21.1800 14.0898 -0.2994
21.2000 14.1031 -0.2948
21.2200 14.1164 -0.2929
21.2400 14.1298 -0.2997
21.2600 14.1431 -0.2894
21.2800 14.1565 -0.2951
21.3000 14.1699 -0.2975
21.3200 14.1832 -0.2897
21.3400 14.1965 -0.2958
21.3600 14.2099 -0.3002
21.3800 14.2232 -0.2907
21.4000 14.2365 -0.2973
21.4200 14.2498 -0.2982
21.4400 14.2631 -0.2905
21.4600 14.2765 -0.2982
21.4800 14.2898 -0.2894
21.5000 14.3031 -0.2925
21.5200 14.3164 -0.3009
21.5400 14.3297 -0.2875
21.5600 14.3431 -0.2956
21.5800 14.3564 -0.2953
21.6000 14.3697 -0.2919
21.6200 14.3831 -0.2995
21.6400 14.3965 -0.2969
21.6600 14.4099 -0.2896
21.6800 14.4232 -0.2999
21.7000 14.4366 -0.2945
21.7200 14.4499 -0.2935
21.7400 14.4632 -0.3055
21.7600 14.4765 -0.2897
21.7800 14.4898 -0.2926
21.8000 14.5031 -0.3081
21.8200 14.5164 -0.2966
21.8400 14.5298 -0.2938
21.8600 14.5431 -0.3001
21.8800 14.5564 -0.2964
21.9000 14.5698 -0.3006
21.9200 14.5831 -0.3029
21.9400 14.5965 -0.2962
21.9600 14.6098 -0.2958
21.9800 14.6232 -0.3005
22.0000 14.6365 -0.3016
22.0200 14.6499 -0.2994
22.0400 14.6632 -0.3035
22.0600 14.6765 -0.3014
22.0800 14.6898 -0.2987
22.1000 14.7032 -0.3076
22.1200 14.7165 -0.3030
22.1400 14.7298 -0.3012
22.1600 14.7431 -0.3014
22.1800 14.7565 -0.3063
22.2000 14.7698 -0.3011
22.2200 14.7831 -0.3017
22.2400 14.7964 -0.3065
22.2600 14.8098 -0.3016
22.2800 14.8231 -0.3046
22.3000 14.8365 -0.3080
22.3200 14.8498 -0.2971
22.3400 14.8632 -0.3092
22.3600 14.8765 -0.3128
22.3800 14.8899 -0.2999
22.4000 14.9032 -0.3058
22.4200 14.9165 -0.3119
22.4400 14.9299 -0.3068
22.4600 14.9432 -0.3061
22.4800 14.9565 -0.3109
22.5000 14.9698 -0.3011
22.5200 14.9831 -0.3044
22.5400 14.9965 -0.3129
22.5600 15.0098 -0.3081
22.5800 15.0231 -0.3093
22.6000 15.0364 -0.3135
22.6200 15.0498 -0.3040
22.6400 15.0631 -0.3093
22.6600 15.0765 -0.3211
22.6800 15.0898 -0.3077
22.7000 15.1031 -0.3072
22.7200 15.1165 -0.3123
22.7400 15.1299 -0.3112
22.7600 15.1432 -0.3172
22.7800 15.1565 -0.3190
22.8000 15.1698 -0.3103
22.8200 15.1832 -0.3105
22.8400 15.1965 -0.3250
22.8600 15.2098 -0.3061
22.8800 15.2231 -0.3153
22.9000 15.2365 -0.3220
22.9200 15.2498 -0.3141
22.9400 15.2631 -0.3136
22.9600 15.2764 -0.3152
22.9800 15.2898 -0.3232
23.0000 15.3031 -0.3198
23.0200 15.3165 -0.3123
23.0400 15.3298 -0.3118
23.0600 15.3431 -0.3177
23.0800 15.3565 -0.3373
23.1000 15.3698 -0.3251
23.1200 15.3832 -0.3036
23.1400 15.3965 -0.3238
23.1600 15.4098 -0.3196
23.1800 15.4232 -0.3270
23.2000 15.4366 -0.3373
23.2200 15.4499 -0.3067
23.2400 15.4631 -0.3108
23.2600 15.4765 -0.3320
23.2800 15.4898 -0.3167
23.3000 15.5031 -0.3318
23.3200 15.5164 -0.3319
23.3400 15.5297 -0.2942
23.3600 15.5431 -0.3140
23.3800 15.5565 -0.3462
23.4000 15.5698 -0.3171
23.4200 15.5832 -0.3247
23.4400 15.5965 -0.3137
23.4600 15.6099 -0.3030
23.4800 15.6232 -0.3497
23.5000 15.6365 -0.3320
23.5200 15.6498 -0.2940
23.5400 15.6632 -0.3282
23.5600 15.6766 -0.3273
23.5800 15.6899 -0.3144
23.6000 15.7031 -0.3392
23.6200 15.7165 -0.3160
23.6400 15.7298 -0.3072
23.6600 15.7431 -0.3343
23.6800 15.7564 -0.3187
23.7000 15.7698 -0.3253
23.7200 15.7831 -0.3288
23.7400 15.7964 -0.2997
23.7600 15.8098 -0.3188
23.7800 15.8231 -0.3411
23.8000 15.8365 -0.3143
23.8200 15.8499 -0.3169
23.8400 15.8632 -0.3248
23.8600 15.8765 -0.3083
23.8800 15.8898 -0.3299
23.9000 15.9032 -0.3264
23.9200 15.9165 -0.3088
23.9400 15.9298 -0.3190
23.9600 15.9431 -0.3241
23.9800 15.9564 -0.3188
24.0000 15.9698 -0.3250
24.0200 15.9831 -0.3203
24.0400 15.9964 -0.3168
24.0600 16.0098 -0.3167
24.0800 16.0231 -0.3231
24.1000 16.0365 -0.3204
24.1200 16.0498 -0.3143
24.1400 16.0632 -0.3220
24.1600 16.0765 -0.3170
24.1800 16.0898 -0.3180
24.2000 16.1031 -0.3258
24.2200 16.1165 -0.3166
24.2400 16.1298 -0.3151
24.2600 16.1431 -0.3248
24.2800 16.1565 -0.3192
24.3000 16.1699 -0.3168
24.3200 16.1832 -0.3263
24.3400 16.1965 -0.3174
24.3600 16.2099 -0.3197
24.3800 16.2232 -0.3257
24.4000 16.2365 -0.3221
24.4200 16.2498 -0.3244
24.4400 16.2631 -0.3232
24.4600 16.2765 -0.3249
24.4800 16.2898 -0.3242
24.5000 16.3031 -0.3252
24.5200 16.3165 -0.3306
24.5400 16.3298 -0.3196
24.5600 16.3432 -0.3261
24.5800 16.3565 -0.3262
24.6000 16.3698 -0.3231
24.6200 16.3832 -0.3272
24.6400 16.3966 -0.3331
24.6600 16.4099 -0.3235
24.6800 16.4232 -0.3230
24.7000 16.4365 -0.3357
24.7200 16.4499 -0.3254
24.7400 16.4632 -0.3319
24.7600 16.4765 -0.3318
24.7800 16.4898 -0.3234
24.8000 16.5031 -0.3290
24.8200 16.5164 -0.3355
24.8400 16.5298 -0.3270
24.8600 16.5431 -0.3274
24.8800 16.5565 -0.3334
24.9000 16.5699 -0.3316
24.9200 16.5832 -0.3284
24.9400 16.5965 -0.3394
24.9600 16.6099 -0.3293
24.9800 16.6232 -0.3265
25.0000 16.6366 -0.3354
25.0200 16.6499 -0.3318
25.0400 16.6632 -0.3333
25.0600 16.6765 -0.3356
25.0800 16.6898 -0.3297
25.1000 16.7031 -0.3365
25.1200 16.7164 -0.3340
25.1400 16.7297 -0.3344
25.1600 16.7431 -0.3433
25.1800 16.7565 -0.3346
25.2000 16.7698 -0.3229
25.2200 16.7831 -0.3482
25.2400 16.7965 -0.3395
25.2600 16.8098 -0.3252
25.2800 16.8232 -0.3471
25.3000 16.8365 -0.3330
25.3200 16.8498 -0.3302
25.3400 16.8632 -0.3539
25.3600 16.8766 -0.3352
25.3800 16.8899 -0.3252
25.4000 16.9032 -0.3497
25.4200 16.9165 -0.3311
25.4400 16.9298 -0.3363
25.4600 16.9431 -0.3507
25.4800 16.9564 -0.3292
25.5000 16.9697 -0.3359
25.5200 16.9831 -0.3509
25.5400 16.9964 -0.3359
25.5600 17.0098 -0.3439
25.5800 17.0231 -0.3449
25.6000 17.0365 -0.3390
25.6200 17.0499 -0.3396
25.6400 17.0632 -0.3531
25.6600 17.0765 -0.3489
25.6800 17.0898 -0.3335
25.7000 17.1032 -0.3460
25.7200 17.1165 -0.3538
25.7400 17.1298 -0.3390
25.7600 17.1431 -0.3424
25.7800 17.1565 -0.3486
25.8000 17.1698 -0.3445
25.8200 17.1832 -0.3463
25.8400 17.1965 -0.3454
25.8600 17.2098 -0.3481
25.8800 17.2231 -0.3460
25.9000 17.2365 -0.3366
25.9200 17.2498 -0.3485
25.9400 17.2631 -0.3555
25.9600 17.2765 -0.3420
25.9800 17.2899 -0.3499
26.0000 17.3032 -0.3503
26.0200 17.3165 -0.3384
26.0400 17.3299 -0.3544
26.0600 17.3432 -0.3552
26.0800 17.3565 -0.3305
26.1000 17.3698 -0.3566
26.1200 17.3831 -0.3582
26.1400 17.3965 -0.3371
26.1600 17.4098 -0.3491
26.1800 17.4231 -0.3449
26.2000 17.4364 -0.3375
26.2200 17.4497 -0.3572
26.2400 17.4631 -0.3505
26.2600 17.4765 -0.3359
26.2800 17.4898 -0.3500
26.3000 17.5032 -0.3418
26.3200 17.5165 -0.3421
26.3400 17.5298 -0.3688
26.3600 17.5432 -0.3412
26.3800 17.5565 -0.3285
26.4000 17.5698 -0.3568
26.4200 17.5832 -0.3538
26.4400 17.5965 -0.3399
26.4600 17.6099 -0.3643
26.4800 17.6232 -0.3402
26.5000 17.6365 -0.3293
26.5200 17.6499 -0.3623
26.5400 17.6632 -0.3583
26.5600 17.6765 -0.3498
26.5800 17.6897 -0.3494
26.6000 17.7031 -0.3466
26.6200 17.7164 -0.3496
26.6400 17.7297 -0.3570
26.6600 17.7431 -0.3604
26.6800 17.7565 -0.3525
26.7000 17.7699 -0.3537
26.7200 17.7832 -0.3568
26.7400 17.7966 -0.3533
26.7600 17.8099 -0.3636
26.7800 17.8232 -0.3554
26.8000 17.8366 -0.3530
26.8200 17.8499 -0.3680
26.8400 17.8632 -0.3576
26.8600 17.8765 -0.3439
26.8800 17.8898 -0.3683
26.9000 17.9031 -0.3738
26.9200 17.9164 -0.3460
26.9400 17.9297 -0.3572
26.9600 17.9430 -0.3686
26.9800 17.9564 -0.3585
27.0000 17.9697 -0.3683
27.0200 17.9831 -0.3666
27.0400 17.9965 -0.3556
27.0600 18.0099 -0.3642
27.0800 18.0232 -0.3656
27.1000 18.0366 -0.3652
27.1200 18.0499 -0.3747
27.1400 18.0632 -0.3594
27.1600 18.0765 -0.3578
27.1800 18.0899 -0.3626
27.2000 18.1032 -0.3749
27.2200 18.1165 -0.3645
27.2400 18.1298 -0.3630
27.2600 18.1431 -0.3699
27.2800 18.1564 -0.3660
27.3000 18.1698 -0.3676
27.3200 18.1831 -0.3697
27.3400 18.1965 -0.3625
27.3600 18.2098 -0.3726
27.3800 18.2231 -0.3854
27.4000 18.2365 -0.3584
27.4200 18.2498 -0.3665
27.4400 18.2632 -0.3778
27.4600 18.2765 -0.3688
27.4800 18.2898 -0.3772
27.5000 18.3032 -0.3771
27.5200 18.3165 -0.3674
27.5400 18.3299 -0.3705
27.5600 18.3432 -0.3757
27.5800 18.3565 -0.3785
27.6000 18.3698 -0.3870
27.6200 18.3832 -0.3716
27.6400 18.3965 -0.3520
27.6600 18.4098 -0.3884
27.6800 18.4231 -0.3884
27.7000 18.4365 -0.3765
27.7200 18.4498 -0.3749
27.7400 18.4631 -0.3769
27.7600 18.4765 -0.3787
27.7800 18.4899 -0.3790
27.8000 18.5032 -0.3902
27.8200 18.5165 -0.3782
27.8400 18.5299 -0.3717
27.8600 18.5432 -0.3846
27.8800 18.5565 -0.3770
27.9000 18.5698 -0.3818
27.9200 18.5831 -0.3866
27.9400 18.5964 -0.3658
27.9600 18.6098 -0.3830
27.9800 18.6231 -0.3950
28.0000 18.6365 -0.3628
28.0200 18.6498 -0.3734
28.0400 18.6631 -0.3950
28.0600 18.6765 -0.3636
28.0800 18.6898 -0.3815
28.1000 18.7031 -0.3852
28.1200 18.7165 -0.3582
28.1400 18.7298 -0.3887
28.1600 18.7432 -0.3847
28.1800 18.7565 -0.3664
28.2000 18.7698 -0.3881
28.2200 18.7832 -0.3780
28.2400 18.7965 -0.3695
28.2600 18.8099 -0.3918
28.2800 18.8232 -0.3751
28.3000 18.8365 -0.3724
28.3200 18.8498 -0.3939
28.3400 18.8632 -0.3666
28.3600 18.8765 -0.3724
28.3800 18.8898 -0.3918
28.4000 18.9031 -0.3745
28.4200 18.9164 -0.3804
28.4400 18.9298 -0.3868
28.4600 18.9431 -0.3794
28.4800 18.9565 -0.3803
28.5000 18.9698 -0.3802
28.5200 18.9832 -0.3855
28.5400 18.9965 -0.3862
28.5600 19.0098 -0.3792
28.5800 19.0232 -0.3782
28.6000 19.0365 -0.3851
28.6200 19.0499 -0.3839
28.6400 19.0632 -0.3819
28.6600 19.0765 -0.3812
28.6800 19.0898 -0.3878
28.7000 19.1032 -0.3858
28.7200 19.1165 -0.3798
28.7400 19.1297 -0.3877
28.7600 19.1430 -0.3882
28.7800 19.1564 -0.3804
28.8000 19.1697 -0.3873
28.8200 19.1831 -0.3883
28.8400 19.1964 -0.3828
28.8600 19.2098 -0.3903
28.8800 19.2232 -0.3852
28.9000 19.2366 -0.3925
28.9200 19.2499 -0.3845
28.9400 19.2632 -0.3888
28.9600 19.2766 -0.3941
28.9800 19.2899 -0.3907
29.0000 19.3032 -0.3950
29.0200 19.3164 -0.3892
29.0400 19.3297 -0.3973
29.0600 19.3431 -0.4014
29.0800 19.3564 -0.3949
29.1000 19.3698 -0.3972
29.1200 19.3831 -0.4053
29.1400 19.3965 -0.3957
29.1600 19.4098 -0.3996
29.1800 19.4232 -0.4137
29.2000 19.4365 -0.3944
29.2200 19.4499 -0.4049
29.2400 19.4632 -0.4104
29.2600 19.4765 -0.4014
29.2800 19.4898 -0.4080
29.3000 19.5032 -0.4062
29.3200 19.5165 -0.3977
29.3400 19.5298 -0.4098
29.3600 19.5431 -0.4054
29.3800 19.5565 -0.3941
29.4000 19.5698 -0.4042
29.4200 19.5831 -0.4092
29.4400 19.5965 -0.3934
29.4600 19.6098 -0.4047
29.4800 19.6231 -0.4079
29.5000 19.6364 -0.3933
29.5200 19.6498 -0.4124
29.5400 19.6631 -0.4042
29.5600 19.6765 -0.3973
29.5800 19.6898 -0.4153
29.6000 19.7032 -0.4105
29.6200 19.7165 -0.3978
29.6400 19.7298 -0.4144
29.6600 19.7431 -0.4177
29.6800 19.7565 -0.4022
29.7000 19.7698 -0.4203
29.7200 19.7832 -0.4174
29.7400 19.7965 -0.4024
29.7600 19.8098 -0.4246
29.7800 19.8232 -0.4169
29.8000 19.8365 -0.4077
29.8200 19.8498 -0.4294
29.8400 19.8631 -0.4126
29.8600 19.8764 -0.4044
29.8800 19.8898 -0.4318
29.9000 19.9031 -0.4169
29.9200 19.9165 -0.4091
29.9400 19.9298 -0.4265
29.9600 19.9432 -0.4163
29.9800 19.9566 -0.4127
30.0000 19.9699 -0.4316
30.0200 19.9832 -0.4148
30.0400 19.9965 -0.4146
30.0600 20.0099 -0.4293
30.0800 20.0231 -0.4194
30.1000 20.0364 -0.4196
30.1200 20.0498 -0.4310
30.1400 20.0632 -0.4212
30.1600 20.0765 -0.4211
30.1800 20.0898 -0.4308
30.2000 20.1031 -0.4153
30.2200 20.1165 -0.4274
30.2400 20.1298 -0.4351
30.2600 20.1431 -0.4169
30.2800 20.1564 -0.4265
30.3000 20.1698 -0.4309
30.3200 20.1832 -0.4276
30.3400 20.1965 -0.4291
30.3600 20.2098 -0.4262
30.3800 20.2232 -0.4251
30.4000 20.2365 -0.4300
30.4200 20.2499 -0.4268
30.4400 20.2632 -0.4235
30.4600 20.2765 -0.4271
30.4800 20.2898 -0.3614
30.5000 20.3031 -0.2699
30.5200 20.3165 -0.1838
30.5400 20.3298 -0.0945
30.5600 20.3431 -0.0301
30.5800 20.3564 -0.0006
30.6000 20.3698 0.0362
30.6200 20.3831 0.0813
30.6400 20.3965 0.1328
30.6600 20.4098 0.1846
30.6800 20.4232 0.2207
30.7000 20.4366 0.2229
30.7200 20.4499 0.2625
30.7400 20.4632 0.2889
30.7600 20.4765 0.2755
30.7800 20.4899 0.2826
30.8000 20.5032 0.2755
30.8200 20.5165 0.2661
30.8400 20.5298 0.2836
30.8600 20.5431 0.2766
30.8800 20.5565 0.2723
30.9000 20.5698 0.2845
30.9200 20.5831 0.2777
30.9400 20.5964 0.2713
30.9600 20.6098 0.2819
30.9800 20.6231 0.2829
31.0000 20.6364 0.2751
31.0200 20.6498 0.2795
31.0400 20.6632 0.2863
31.0600 20.6765 0.2749
31.0800 20.6899 0.2787
31.1000 20.7032 0.2838
31.1200 20.7165 0.2779
31.1400 20.7299 0.2729
31.1600 20.7432 0.2872
31.1800 20.7564 0.2809
31.2000 20.7698 0.2760
31.2200 20.7831 0.2799
31.2400 20.7964 0.2676
31.2600 20.8098 0.2879
31.2800 20.8231 0.2834
31.3000 20.8365 0.2586
31.3200 20.8498 0.2742
31.3400 20.8632 0.2878
31.3600 20.8765 0.2765
31.3800 20.8898 0.2772
31.4000 20.9032 0.2641
31.4200 20.9165 0.2621
31.4400 20.9298 0.3022
31.4600 20.9431 0.2688
31.4800 20.9565 0.2553
31.5000 20.9698 0.2839
31.5200 20.9832 0.2565
31.5400 20.9965 0.2722
31.5600 21.0098 0.2870
31.5800 21.0232 0.2466
31.6000 21.0365 0.2725
31.6200 21.0498 0.2783
31.6400 21.0631 0.2548
31.6600 21.0765 0.2816
31.6800 21.0898 0.2649
31.7000 21.1031 0.2525
31.7200 21.1164 0.2865
31.7400 21.1298 0.2687
31.7600 21.1431 0.2592
31.7800 21.1565 0.2668
31.8000 21.1698 0.2578
31.8200 21.1832 0.2824
31.8400 21.1965 0.2733
31.8600 21.2099 0.2493
31.8800 21.2232 0.2654
31.9000 21.2365 0.2613
31.9200 21.2498 0.2951
31.9400 21.2632 0.2720
31.9600 21.2765 0.2176
31.9800 21.2898 0.2959
32.0000 21.3031 0.3003
32.0200 21.3164 0.2183
32.0400 21.3298 0.2884
32.0600 21.3431 0.2720
32.0800 21.3565 0.2186
32.1000 21.3698 0.3152
32.1200 21.3832 0.2734
32.1400 21.3965 0.2078
32.1600 21.4099 0.3077
32.1800 21.4232 0.2553
32.2000 21.4365 0.2343
32.2200 21.4499 0.3104
32.2400 21.4632 0.2306
32.2600 21.4765 0.2443
32.2800 21.4898 0.3104
32.3000 21.5031 0.2284
32.3200 21.5165 0.2596
32.3400 21.5298 0.2931
32.3600 21.5431 0.2217
32.3800 21.5564 0.2818
32.4000 21.5698 0.2819
32.4200 21.5831 0.2234
32.4400 21.5965 0.2837
32.4600 21.6098 0.2669
32.4800 21.6231 0.2435
32.5000 21.6365 0.2870
32.5200 21.6499 0.2432
32.5400 21.6632 0.2515
32.5600 21.6765 0.2831
32.5800 21.6899 0.2465
32.6000 21.7032 0.2662
32.6200 21.7165 0.2634
32.6400 21.7298 0.2392
32.6600 21.7431 0.2810
32.6800 21.7565 0.2614
32.7000 21.7698 0.2415
32.7200 21.7831 0.2706
32.7400 21.7964 0.2533
32.7600 21.8098 0.2512
32.7800 21.8231 0.2743
32.8000 21.8364 0.2510
32.8200 21.8498 0.2546
32.8400 21.8632 0.2598
32.8600 21.8766 0.2467
32.8800 21.8899 0.2660
32.9000 21.9032 0.2592
32.9200 21.9165 0.2399
32.9400 21.9299 0.2662
32.9600 21.9432 0.2580
32.9800 21.9565 0.2459
33.0000 21.9698 0.2612
33.0200 21.9831 0.2540
33.0400 21.9965 0.2492
33.0600 22.0098 0.2627
33.0800 22.0231 0.2494
33.1000 22.0365 0.2502
33.1200 22.0498 0.2556
33.1400 22.0631 0.2557
33.1600 22.0764 0.2547
33.1800 22.0898 0.2508
33.2000 22.1032 0.2515
33.2200 22.1165 0.2537
33.2400 22.1299 0.2498
33.2600 22.1432 0.2498
33.2800 22.1565 0.2523
33.3000 22.1699 0.2502
33.3200 22.1832 0.2585
33.3400 22.1965 0.2463
33.3600 22.2098 0.2436
33.3800 22.2231 0.2616
33.4000 22.2365 0.2483
33.4200 22.2498 0.2438
33.4400 22.2631 0.2592
33.4600 22.2764 0.2415
33.4800 22.2898 0.2458
33.5000 22.3031 0.2657
33.5200 22.3165 0.2479
33.5400 22.3298 0.2435
33.5600 22.3431 0.2568
33.5800 22.3565 0.2405
33.6000 22.3698 0.2498
33.6200 22.3831 0.2576
33.6400 22.3965 0.2441
33.6600 22.4098 0.2460
33.6800 22.4232 0.2474
33.7000 22.4365 0.2454
33.7200 22.4499 0.2487
33.7400 22.4632 0.2447
33.7600 22.4765 0.2459
33.7800 22.4898 0.2428
33.8000 22.5031 0.2489
33.8200 22.5164 0.2487
33.8400 22.5297 0.2503
33.8600 22.5431 0.2413
33.8800 22.5564 0.2443
33.9000 22.5698 0.2487
33.9200 22.5831 0.2417
33.9400 22.5965 0.2434
33.9600 22.6099 0.2448
33.9800 22.6232 0.2440
34.0000 22.6366 0.2472
34.0200 22.6499 0.2449
34.0400 22.6633 0.2419
34.0600 22.6765 0.2460
34.0800 22.6898 0.2412
34.1000 22.7031 0.2438
34.1200 22.7165 0.2446
34.1400 22.7298 0.2379
34.1600 22.7431 0.2444
34.1800 22.7564 0.2444
34.2000 22.7698 0.2382
34.2200 22.7831 0.2449
34.2400 22.7964 0.2423
34.2600 22.8098 0.2384
34.2800 22.8232 0.2409
34.3000 22.8365 0.2434
34.3200 22.8499 0.2384
34.3400 22.8632 0.2399
34.3600 22.8765 0.2436
34.3800 22.8899 0.2352
34.4000 22.9032 0.2385
34.4200 22.9165 0.2429
34.4400 22.9298 0.2342
34.4600 22.9431 0.2410
34.4800 22.9565 0.2402
34.5000 22.9698 0.2294
34.5200 22.9831 0.2373
34.5400 22.9964 0.2470
34.5600 23.0098 0.2297
34.5800 23.0231 0.2312
34.6000 23.0364 0.2442
34.6200 23.0498 0.2296
34.6400 23.0631 0.2390
34.6600 23.0765 0.2382
34.6800 23.0898 0.2213
34.7000 23.1032 0.2470
34.7200 23.1165 0.2413
34.7400 23.1299 0.2159
34.7600 23.1432 0.2471
34.7800 23.1565 0.2371
34.8000 23.1698 0.2213
34.8200 23.1832 0.2428
34.8400 23.1965 0.2317
34.8600 23.2098 0.2245
34.8800 23.2231 0.2448
34.9000 23.2364 0.2309
34.9200 23.2498 0.2286
34.9400 23.2631 0.2380
34.9600 23.2765 0.2248
34.9800 23.2898 0.2262
35.0000 23.3032 0.2433
35.0200 23.3165 0.2267
35.0400 23.3299 0.2219
35.0600 23.3432 0.2353
35.0800 23.3565 0.2274
35.1000 23.3699 0.2231
35.1200 23.3832 0.2287
35.1400 23.3965 0.2252
35.1600 23.4098 0.2256
35.1800 23.4231 0.2308
35.2000 23.4365 0.2327
35.2200 23.4498 0.2202
35.2400 23.4631 0.2354
35.2600 23.4764 0.2263
35.2800 23.4898 0.2184
35.3000 23.5031 0.2366
35.3200 23.5165 0.2243
35.3400 23.5298 0.2177
35.3600 23.5431 0.2326
35.3800 23.5565 0.2327
35.4000 23.5699 0.2263
35.4200 23.5832 0.2222
35.4400 23.5965 0.2220
35.4600 23.6099 0.2294
35.4800 23.6232 0.2407
35.5000 23.6366 0.2233
35.5200 23.6498 0.2151
35.5400 23.6631 0.2304
35.5600 23.6765 0.2330
35.5800 23.6898 0.2237
35.6000 23.7031 0.2236
35.6200 23.7165 0.2293
35.6400 23.7298 0.2197
35.6600 23.7431 0.2300
35.6800 23.7565 0.2270
35.7000 23.7698 0.2184
35.7200 23.7831 0.2308
35.7400 23.7965 0.2334
35.7600 23.8099 0.2075
35.7800 23.8232 0.2255
35.8000 23.8365 0.2321
35.8200 23.8498 0.2218
35.8400 23.8632 0.2266
35.8600 23.8765 0.2248
35.8800 23.8898 0.2218
35.9000 23.9032 0.2238
35.9200 23.9165 0.2125
35.9400 23.9298 0.2321
35.9600 23.9431 0.2338
35.9800 23.9564 0.2078
36.0000 23.9697 0.2193
36.0200 23.9831 0.2221
36.0400 23.9964 0.2150
36.0600 24.0097 0.2301
36.0800 24.0231 0.2202
36.1000 24.0365 0.2108
36.1200 24.0499 0.2178
36.1400 24.0632 0.2200
36.1600 24.0766 0.2231
36.1800 24.0899 0.2205
36.2000 24.1032 0.2122
36.2200 24.1165 0.2157
36.2400 24.1298 0.2145
36.2600 24.1431 0.2201
36.2800 24.1564 0.2257
36.3000 24.1698 0.2063
36.3200 24.1831 0.2132
36.3400 24.1964 0.2251
36.3600 24.2098 0.2076
36.3800 24.2231 0.2206
36.4000 24.2365 0.2260
36.4200 24.2498 0.2021
36.4400 24.2632 0.2156
36.4600 24.2765 0.2229
36.4800 24.2899 0.2068
36.5000 24.3032 0.2210
36.5200 24.3165 0.2230
36.5400 24.3298 0.1976
36.5600 24.3432 0.2163
36.5800 24.3565 0.2267
36.6000 24.3698 0.2067
36.6200 24.3831 0.2056
36.6400 24.3965 0.2155
36.6600 24.4098 0.2138
36.6800 24.4231 0.2137
36.7000 24.4364 0.2178
36.7200 24.4498 0.2127
36.7400 24.4631 0.2042
36.7600 24.4765 0.2136
36.7800 24.4898 0.2115
36.8000 24.5032 0.2174
36.8200 24.5165 0.2150
36.8400 24.5299 0.1897
36.8600 24.5432 0.2187
36.8800 24.5565 0.2280
36.9000 24.5698 0.1968
36.9200 24.5832 0.2190
36.9400 24.5965 0.2180
36.9600 24.6098 0.1923
36.9800 24.6231 0.2215
37.0000 24.6365 0.2249
37.0200 24.6498 0.2010
37.0400 24.6631 0.2103
37.0600 24.6764 0.2169
37.0800 24.6898 0.2039
37.1000 24.7031 0.2136
37.1200 24.7164 0.2131
37.1400 24.7298 0.2095
37.1600 24.7431 0.2081
37.1800 24.7565 0.2035
37.2000 24.7699 0.2114
37.2200 24.7832 0.2121
37.2400 24.7965 0.2039
37.2600 24.8098 0.2113
37.2800 24.8232 0.2083
37.3000 24.8365 0.2035
37.3200 24.8498 0.2118
37.3400 24.8631 0.2172
37.3600 24.8765 0.2017
37.3800 24.8898 0.2103
37.4000 24.9031 0.2143
37.4200 24.9165 0.2052
37.4400 24.9298 0.2042
37.4600 24.9431 0.2102
37.4800 24.9565 0.2085
37.5000 24.9698 0.2061
37.5200 24.9831 0.2101
37.5400 24.9965 0.2062
37.5600 25.0099 0.2030
37.5800 25.0232 0.2061
37.6000 25.0365 0.2099
37.6200 25.0498 0.2064
37.6400 25.0632 0.2041
37.6600 25.0765 0.2087
37.6800 25.0899 0.2057
37.7000 25.1032 0.2035
37.7200 25.1165 0.2116
37.7400 25.1298 0.2031
37.7600 25.1431 0.1973
37.7800 25.1564 0.2118
37.8000 25.1697 0.2092
37.8200 25.1831 0.1936
37.8400 25.1964 0.2050
37.8600 25.2098 0.2083
37.8800 25.2231 0.1980
37.9000 25.2365 0.2015
37.9200 25.2499 0.2066
37.9400 25.2632 0.1917
37.9600 25.2765 0.2039
37.9800 25.2898 0.2070
38.0000 25.3032 0.1961
38.0200 25.3166 0.1967
38.0400 25.3299 0.2019
38.0600 25.3432 0.1937
38.0800 25.3565 0.1967
38.1000 25.3698 0.2019
38.1200 25.3831 0.1901
38.1400 25.3964 0.1927
38.1600 25.4097 0.2020
38.1800 25.4231 0.1886
38.2000 25.4364 0.1923
38.2200 25.4498 0.1993
38.2400 25.4631 0.1843
38.2600 25.4765 0.1931
38.2800 25.4898 0.2017
38.3000 25.5032 0.1831
38.3200 25.5165 0.1908
38.3400 25.5299 0.1961
38.3600 25.5432 0.1862
38.3800 25.5565 0.1916
38.4000 25.5698 0.1982
38.4200 25.5831 0.1874
38.4400 25.5964 0.1908
38.4600 25.6098 0.1898
38.4800 25.6231 0.1844
38.5000 25.6364 0.1929
38.5200 25.6498 0.1936
38.5400 25.6631 0.1860
38.5600 25.6765 0.1854
38.5800 25.6899 0.1925
38.6000 25.7032 0.1871
38.6200 25.7165 0.1881
38.6400 25.7299 0.1947
38.6600 25.7432 0.1839
38.6800 25.7565 0.1855
38.7000 25.7698 0.1954
38.7200 25.7832 0.1899
38.7400 25.7965 0.1853
38.7600 25.8099 0.1898
38.7800 25.8232 0.1874
38.8000 25.8365 0.1819
38.8200 25.8499 0.1969
38.8400 25.8632 0.1850
38.8600 25.8765 0.1849
38.8800 25.8898 0.1984
38.9000 25.9031 0.1799
38.9200 25.9165 0.1881
38.9400 25.9298 0.1912
38.9600 25.9431 0.1827
38.9800 25.9565 0.1897
39.0000 25.9698 0.1889
39.0200 25.9832 0.1856
39.0400 25.9965 0.1879
39.0600 26.0098 0.1900
39.0800 26.0232 0.1862
39.1000 26.0365 0.1837
39.1200 26.0498 0.1897
39.1400 26.0631 0.1847
39.1600 26.0765 0.1846
39.1800 26.0898 0.1923
39.2000 26.1032 0.1822
39.2200 26.1165 0.1820
39.2400 26.1298 0.1942
39.2600 26.1431 0.1828
39.2800 26.1564 0.1778
39.3000 26.1698 0.1929
39.3200 26.1831 0.1830
39.3400 26.1965 0.1796
39.3600 26.2099 0.1960
39.3800 26.2232 0.1795
39.4000 26.2365 0.1784
39.4200 26.2499 0.1900
39.4400 26.2632 0.1815
39.4600 26.2765 0.1765
39.4800 26.2898 0.1912
39.5000 26.3031 0.1812
39.5200 26.3164 0.1756
39.5400 26.3298 0.1864
39.5600 26.3431 0.1788
39.5800 26.3564 0.1750
39.6000 26.3698 0.1854
39.6200 26.3831 0.1794
39.6400 26.3965 0.1691
39.6600 26.4098 0.1854
39.6800 26.4232 0.1808
39.7000 26.4365 0.1700
39.7200 26.4498 0.1888
39.7400 26.4632 0.1741
39.7600 26.4765 0.1690
39.7800 26.4898 0.1864
39.8000 26.5032 0.1759
39.8200 26.5166 0.1699
39.8400 26.5299 0.1851
39.8600 26.5432 0.1803
39.8800 26.5565 0.1698
39.9000 26.5698 0.1826
39.9200 26.5831 0.1776
39.9400 26.5964 0.1718
39.9600 26.6097 0.1866
39.9800 26.6231 0.1730
40.0000 26.6364 0.1720
40.0200 26.6498 0.1836
40.0400 26.6631 0.1730
40.0600 26.6765 0.1744
40.0800 26.6899 0.1855
40.1000 26.7032 0.1711
40.1200 26.7165 0.1658
40.1400 26.7298 0.1858
40.1600 26.7432 0.1736
40.1800 26.7565 0.1740
40.2000 26.7698 0.1772
40.2200 26.7831 0.1744
40.2400 26.7965 0.1743
40.2600 26.8098 0.1789
40.2800 26.8232 0.1758
40.3000 26.8365 0.1717
40.3200 26.8498 0.1777
40.3400 26.8631 0.1740
40.3600 26.8765 0.1715
40.3800 26.8898 0.1772
40.4000 26.9031 0.1772
40.4200 26.9165 0.1717
40.4400 26.9299 0.1714
40.4600 26.9432 0.1729
40.4800 26.9565 0.1709
40.5000 26.9698 0.1721
40.5200 26.9832 0.1746
40.5400 26.9965 0.1685
40.5600 27.0099 0.1711
40.5800 27.0232 0.1722
40.6000 27.0365 0.1658
40.6200 27.0498 0.1711
40.6400 27.0631 0.1773
40.6600 27.0764 0.1647
40.6800 27.0898 0.1659
40.7000 27.1031 0.1756
40.7200 27.1165 0.1646
40.7400 27.1298 0.1643
40.7600 27.1431 0.1723
40.7800 27.1565 0.1619
40.8000 27.1698 0.1693
40.8200 27.1832 0.1664
40.8400 27.1965 0.1596
40.8600 27.2098 0.1682
40.8800 27.2231 0.1699
40.9000 27.2365 0.1573
40.9200 27.2499 0.1649
40.9400 27.2632 0.1676
40.9600 27.2765 0.1627
40.9800 27.2899 0.1617
41.0000 27.3032 0.1639
41.0200 27.3165 0.1647
41.0400 27.3298 0.1650
41.0600 27.3431 0.1606
41.0800 27.3564 0.1654
41.1000 27.3697 0.1609
41.1200 27.3831 0.1627
41.1400 27.3964 0.1724
41.1600 27.4098 0.1584
41.1800 27.4233 0.1600
41.2000 27.4366 0.1671
41.2200 27.4499 0.1560
41.2400 27.4632 0.1607
41.2600 27.4766 0.1707
41.2800 27.4899 0.1546
41.3000 27.5032 0.1619
41.3200 27.5165 0.1701
41.3400 27.5298 0.1572
41.3600 27.5431 0.1597
41.3800 27.5564 0.1706
41.4000 27.5697 0.1579
41.4200 27.5831 0.1618
41.4400 27.5964 0.1668
41.4600 27.6098 0.1542
41.4800 27.6231 0.1656
41.5000 27.6364 0.1670
41.5200 27.6498 0.1538
41.5400 27.6632 0.1674
41.5600 27.6766 0.1604
41.5800 27.6899 0.1514
41.6000 27.7032 0.1674
41.6200 27.7165 0.1677
41.6400 27.7299 0.1499
41.6600 27.7431 0.1631
41.6800 27.7564 0.1622
41.7000 27.7698 0.1541
41.7200 27.7831 0.1590
41.7400 27.7964 0.1601
41.7600 27.8097 0.1530
41.7800 27.8231 0.1599
41.8000 27.8365 0.1639
41.8200 27.8498 0.1498
41.8400 27.8632 0.1625
41.8600 27.8765 0.1667
41.8800 27.8898 0.1484
41.9000 27.9032 0.1621
41.9200 27.9165 0.1632
41.9400 27.9299 0.1498
41.9600 27.9432 0.1623
41.9800 27.9565 0.1630
42.0000 27.9699 0.1495
42.0200 27.9832 0.1595
42.0400 27.9965 0.1602
42.0600 28.0098 0.1453
42.0800 28.0232 0.1643
42.1000 28.0365 0.1540
42.1200 28.0498 0.1445
42.1400 28.0631 0.1666
42.1600 28.0764 0.1542
42.1800 28.0898 0.1453
42.2000 28.1031 0.1604
42.2200 28.1165 0.1585
42.2400 28.1299 0.1451
42.2600 28.1432 0.1523
42.2800 28.1566 0.1603
42.3000 28.1699 0.1433
42.3200 28.1832 0.1575
42.3400 28.1965 0.1591
42.3600 28.2099 0.1439
42.3800 28.2231 0.1503
42.4000 28.2364 0.1575
42.4200 28.2498 0.1481
42.4400 28.2631 0.1498
42.4600 28.2765 0.1560
42.4800 28.2898 0.1432
42.5000 28.3031 0.1516
42.5200 28.3165 0.1579
42.5400 28.3298 0.1406
42.5600 28.3431 0.1509
42.5800 28.3564 0.1571
42.6000 28.3698 0.1434
42.6200 28.3832 0.1515
42.6400 28.3965 0.1526
42.6600 28.4099 0.1451
42.6800 28.4232 0.1483
42.7000 28.4366 0.1518
42.7200 28.4499 0.1421
42.7400 28.4632 0.1457
42.7600 28.4765 0.1538
42.7800 28.4898 0.1396
42.8000 28.5032 0.1478
42.8200 28.5165 0.1510
42.8400 28.5298 0.1388
42.8600 28.5431 0.1499
42.8800 28.5564 0.1505
42.9000 28.5698 0.1402
42.9200 28.5831 0.1457
42.9400 28.5965 0.1469
42.9600 28.6098 0.1402
42.9800 28.6232 0.1519
43.0000 28.6365 0.1428
43.0200 28.6498 0.1369
43.0400 28.6632 0.1552
43.0600 28.6765 0.1456
43.0800 28.6899 0.1347
43.1000 28.7032 0.1502
43.1200 28.7165 0.1462
43.1400 28.7298 0.1347
43.1600 28.7432 0.1473
43.1800 28.7565 0.1452
43.2000 28.7698 0.1407
43.2200 28.7831 0.1437
43.2400 28.7964 0.1444
43.2600 28.8097 0.1410
43.2800 28.8231 0.1456
43.3000 28.8364 0.1479
43.3200 28.8498 0.1392
43.3400 28.8632 0.1452
43.3600 28.8766 0.1447
43.3800 28.8899 0.1373
43.4000 28.9032 0.1455
43.4200 28.9166 0.1487
43.4400 28.9299 0.1343
43.4600 28.9432 0.1462
43.4800 28.9564 0.1490
43.5000 28.9697 0.1342
43.5200 28.9831 0.1436
43.5400 28.9964 0.1469
43.5600 29.0098 0.1317
43.5800 29.0231 0.1444
43.6000 29.0365 0.1443
43.6200 29.0498 0.1350
43.6400 29.0632 0.1433
43.6600 29.0765 0.1406
43.6800 29.0899 0.1373
43.7000 29.1032 0.1389
43.7200 29.1166 0.1377
43.7400 29.1299 0.1344
43.7600 29.1432 0.1414
43.7800 29.1565 0.1364
43.8000 29.1699 0.1392
43.8200 29.1832 0.1420
43.8400 29.1965 0.1382
43.8600 29.2098 0.1409
43.8800 29.2231 0.1360
43.9000 29.2365 0.1350
43.9200 29.2498 0.1408
43.9400 29.2631 0.1393
43.9600 29.2764 0.1334
43.9800 29.2898 0.1380
44.0000 29.3031 0.1373
44.0200 29.3165 0.1347
44.0400 29.3298 0.1440
44.0600 29.3432 0.1315
44.0800 29.3565 0.1384
44.1000 29.3698 0.1366
44.1200 29.3832 0.1315
44.1400 29.3965 0.1430
44.1600 29.4099 0.1345
44.1800 29.4232 0.1305
44.2000 29.4365 0.1436
44.2200 29.4498 0.1378
44.2400 29.4631 0.1289
44.2600 29.4765 0.1376
44.2800 29.4898 0.1379
44.3000 29.5031 0.1304
44.3200 29.5164 0.1386
44.3400 29.5298 0.1341
44.3600 29.5431 0.1276
44.3800 29.5564 0.1406
44.4000 29.5698 0.1326
44.4200 29.5832 0.1295
44.4400 29.5966 0.1365
44.4600 29.6099 0.1285
44.4800 29.6232 0.1318
44.5000 29.6365 0.1421
44.5200 29.6499 0.1259
44.5400 29.6632 0.1307
44.5600 29.6765 0.1377
44.5800 29.6898 0.1280
44.6000 29.7031 0.1354
44.6200 29.7165 0.1370
44.6400 29.7298 0.1266
44.6600 29.7431 0.1338
44.6800 29.7564 0.1335
44.7000 29.7698 0.1269
44.7200 29.7831 0.1335
44.7400 29.7965 0.1331
44.7600 29.8098 0.1235
44.7800 29.8232 0.1324
44.8000 29.8365 0.1307
44.8200 29.8498 0.1286
44.8400 29.8632 0.1301
44.8600 29.8765 0.1260
44.8800 29.8899 0.1279
44.9000 29.9032 0.1291
44.9200 29.9165 0.1269
44.9400 29.9298 0.1311
44.9600 29.9431 0.1276
44.9800 29.9565 0.1296
45.0000 29.9698 0.1275
45.0200 29.9831 0.1280
45.0400 29.9964 0.1328
45.0600 30.0098 0.1214
45.0800 30.0231 0.1293
45.1000 30.0365 0.1298
45.1200 30.0498 0.1269
45.1400 30.0632 0.1279
45.1600 30.0766 0.1227
45.1800 30.0899 0.1263
45.2000 30.1032 0.1276
45.2200 30.1165 0.1223
45.2400 30.1299 0.1281
45.2600 30.1432 0.1273
45.2800 30.1565 0.1196
45.3000 30.1698 0.1283
45.3200 30.1831 0.1335
45.3400 30.1965 0.1145
45.3600 30.2098 0.1280
45.3800 30.2231 0.1224
45.4000 30.2364 0.1167
45.4200 30.2498 0.1291
45.4400 30.2631 0.1232
45.4600 30.2764 0.1214
45.4800 30.2898 0.1281
45.5000 30.3032 0.1215
45.5200 30.3166 0.1189
45.5400 30.3299 0.1280
45.5600 30.3432 0.1217
45.5800 30.3565 0.1132
45.6000 30.3699 0.1268
45.6200 30.3832 0.1245
45.6400 30.3965 0.1177
45.6600 30.4097 0.1231
45.6800 30.4231 0.1278
45.7000 30.4364 0.1183
45.7200 30.4498 0.1172
45.7400 30.4631 0.1297
45.7600 30.4764 0.1193
45.7800 30.4898 0.1202
45.8000 30.5032 0.1273
45.8200 30.5165 0.1147
45.8400 30.5298 0.1199
45.8600 30.5432 0.1283
45.8800 30.5565 0.1104
45.9000 30.5698 0.1241
45.9200 30.5831 0.1265
45.9400 30.5965 0.1093
45.9600 30.6098 0.1235
45.9800 30.6232 0.1231
46.0000 30.6365 0.1157
46.0200 30.6498 0.1204
46.0400 30.6632 0.1220
46.0600 30.6765 0.1185
46.0800 30.6898 0.1193
46.1000 30.7031 0.1206
46.1200 30.7164 0.1177
46.1400 30.7298 0.1215
46.1600 30.7431 0.1176
46.1800 30.7564 0.1143
46.2000 30.7698 0.1208
46.2200 30.7831 0.1172
46.2400 30.7965 0.1124
46.2600 30.8098 0.1204
46.2800 30.8232 0.1193
46.3000 30.8365 0.1150
46.3200 30.8499 0.1135
46.3400 30.8632 0.1216
46.3600 30.8765 0.1111
46.3800 30.8898 0.1164
46.4000 30.9032 0.1200
46.4200 30.9165 0.1138
46.4400 30.9298 0.1167
46.4600 30.9431 0.1157
46.4800 30.9564 0.1133
46.5000 30.9698 0.1118
46.5200 30.9831 0.1171
46.5400 30.9964 0.1107
46.5600 31.0098 0.1155
46.5800 31.0232 0.1191
46.6000 31.0365 0.1108
46.6200 31.0499 0.1118
46.6400 31.0632 0.1163
46.6600 31.0765 0.1087
46.6800 31.0899 0.1136
46.7000 31.1032 0.1162
46.7200 31.1165 0.1095
46.7400 31.1298 0.1099
46.7600 31.1432 0.1196
46.7800 31.1565 0.1091
46.8000 31.1698 0.1078
46.8200 31.1831 0.1188
46.8400 31.1964 0.1074
46.8600 31.2098 0.1061
46.8800 31.2232 0.1165
46.9000 31.2365 0.1111
46.9200 31.2498 0.1030
46.9400 31.2631 0.1130
46.9600 31.2765 0.1074
46.9800 31.2899 0.1059
47.0000 31.3032 0.1168
47.0200 31.3165 0.1040
47.0400 31.3299 0.1042
47.0600 31.3432 0.1124
47.0800 31.3565 0.1026
47.1000 31.3698 0.1057
47.1200 31.3831 0.1098
47.1400 31.3965 0.1042
47.1600 31.4098 0.1028
47.1800 31.4231 0.1109
47.2000 31.4364 0.1019
47.2200 31.4497 0.1020
47.2400 31.4631 0.1107
47.2600 31.4764 0.1008
47.2800 31.4898 0.0982
47.3000 31.5032 0.1118
47.3200 31.5165 0.1011
47.3400 31.5299 0.0982
47.3600 31.5432 0.1101
47.3800 31.5565 0.1037
47.4000 31.5698 0.0972
47.4200 31.5832 0.1076
47.4400 31.5965 0.1046
47.4600 31.6098 0.1028
47.4800 31.6231 0.1079
47.5000 31.6365 0.1011
47.5200 31.6498 0.0977
47.5400 31.6631 0.1107
47.5600 31.6764 0.0984
47.5800 31.6898 0.0949
47.6000 31.7031 0.1069
47.6200 31.7165 0.1007
47.6400 31.7298 0.0976
47.6600 31.7432 0.1067
47.6800 31.7565 0.0988
47.7000 31.7699 0.0993
47.7200 31.7832 0.1052
47.7400 31.7965 0.0982
47.7600 31.8099 0.1010
47.7800 31.8232 0.1008
47.8000 31.8365 0.0989
47.8200 31.8498 0.1015
47.8400 31.8631 0.0996
47.8600 31.8765 0.0988
47.8800 31.8898 0.0970
47.9000 31.9031 0.0986
47.9200 31.9164 0.1044
47.9400 31.9298 0.0930
47.9600 31.9431 0.0964
47.9800 31.9565 0.0968
48.0000 31.9698 0.0926
48.0200 31.9831 0.0939
48.0400 31.9965 0.0999
48.0600 32.0098 0.0918
48.0800 32.0231 0.0997
48.1000 32.0365 0.0996
48.1200 32.0498 0.0876
48.1400 32.0632 0.0939
48.1600 32.0765 0.0977
48.1800 32.0898 0.0877
48.2000 32.1032 0.1019
48.2200 32.1165 0.0921
48.2400 32.1299 0.0857
48.2600 32.1431 0.1024
48.2800 32.1564 0.0957
48.3000 32.1697 0.0896
48.3200 32.1831 0.1048
48.3400 32.1964 0.0910
48.3600 32.2098 0.0863
48.3800 32.2231 0.1042
48.4000 32.2365 0.0861
48.4200 32.2499 0.0874
48.4400 32.2632 0.1031
48.4600 32.2765 0.0890
48.4800 32.2899 0.0894
48.5000 32.3032 0.1026
48.5200 32.3166 0.0867
48.5400 32.3298 0.0968
48.5600 32.3431 0.0994
48.5800 32.3565 0.0841
48.6000 32.3698 0.0940
48.6200 32.3831 0.1016
48.6400 32.3964 0.0818
48.6600 32.4097 0.0938
48.6800 32.4231 0.1002
48.7000 32.4364 0.0859
48.7200 32.4498 0.0916
48.7400 32.4631 0.0976
48.7600 32.4765 0.0845
48.7800 32.4899 0.0935
48.8000 32.5032 0.0932
48.8200 32.5165 0.0874
48.8400 32.5299 0.0917
48.8600 32.5432 0.0937
48.8800 32.5565 0.0834
48.9000 32.5698 0.0952
48.9200 32.5831 0.0907
48.9400 32.5965 0.0877
48.9600 32.6098 0.0936
48.9800 32.6231 0.0911
49.0000 32.6364 0.0904
49.0200 32.6498 0.0949
49.0400 32.6631 0.0905
49.0600 32.6765 0.0906
49.0800 32.6898 0.0894
49.1000 32.7031 0.0910
49.1200 32.7165 0.0882
49.1400 32.7299 0.0842
49.1600 32.7432 0.0871
49.1800 32.7565 0.0943
49.2000 32.7698 0.0859
49.2200 32.7832 0.0870
49.2400 32.7965 0.0956
49.2600 32.8098 0.0825
49.2800 32.8232 0.0931
49.3000 32.8365 0.0942
49.3200 32.8498 0.0807
49.3400 32.8631 0.0916
49.3600 32.8764 0.0951
49.3800 32.8897 0.0802
49.4000 32.9031 0.0961
49.4200 32.9165 0.0904
49.4400 32.9298 0.0862
49.4600 32.9432 0.0922
49.4800 32.9565 0.0882
49.5000 32.9699 0.0809
49.5200 32.9832 0.0918
49.5400 32.9965 0.0860
49.5600 33.0098 0.0822
49.5800 33.0232 0.0917
49.6000 33.0365 0.0872
49.6200 33.0498 0.0870
49.6400 33.0631 0.0913
49.6600 33.0765 0.0859
49.6800 33.0898 0.0864
49.7000 33.1031 0.0878
49.7200 33.1164 0.0871
49.7400 33.1298 0.0894
49.7600 33.1431 0.0841
49.7800 33.1564 0.0825
49.8000 33.1698 0.0856
49.8200 33.1831 0.0828
49.8400 33.1965 0.0876
49.8600 33.2099 0.0835
49.8800 33.2232 0.0808
49.9000 33.2365 0.0884
49.9200 33.2499 0.0850
49.9400 33.2632 0.0729
49.9600 33.2766 0.0851
49.9800 33.2899 0.0851
50.0000 33.3032 0.0781
50.0200 33.3165 0.0830
50.0400 33.3298 0.0827
50.0600 33.3431 0.0794
50.0800 33.3564 0.0848
50.1000 33.3698 0.0820
50.1200 33.3831 0.0758
50.1400 33.3965 0.0882
50.1600 33.4098 0.0805
50.1800 33.4231 0.0739
50.2000 33.4365 0.0828
50.2200 33.4498 0.0823
50.2400 33.4632 0.0756
50.2600 33.4765 0.0809
50.2800 33.4898 0.0820
50.3000 33.5032 0.0749
50.3200 33.5165 0.0813
50.3400 33.5298 0.0809
50.3600 33.5432 0.0751
50.3800 33.5565 0.0844
50.4000 33.5699 0.0777
50.4200 33.5832 0.0740
50.4400 33.5964 0.0795
50.4600 33.6097 0.0872
50.4800 33.6231 0.0744
50.5000 33.6364 0.0770
50.5200 33.6497 0.0839
50.5400 33.6631 0.0741
50.5600 33.6765 0.0810
50.5800 33.6899 0.0818
50.6000 33.7032 0.0739
50.6200 33.7166 0.0793
50.6400 33.7299 0.0796
50.6600 33.7432 0.0737
50.6800 33.7565 0.0778
50.7000 33.7698 0.0809
50.7200 33.7831 0.0718
50.7400 33.7964 0.0794
50.7600 33.8098 0.0807
50.7800 33.8231 0.0736
50.8000 33.8364 0.0759
50.8200 33.8498 0.0825
50.8400 33.8631 0.0721
50.8600 33.8765 0.0702
50.8800 33.8898 0.0846
50.9000 33.9032 0.0713
50.9200 33.9165 0.0760
50.9400 33.9299 0.0801
50.9600 33.9432 0.0654
50.9800 33.9565 0.0746
51.0000 33.9698 0.0836
51.0200 33.9831 0.0684
51.0400 33.9965 0.0759
51.0600 34.0098 0.0846
51.0800 34.0231 0.0656
51.1000 34.0365 0.0759
51.1200 34.0498 0.0875
51.1400 34.0631 0.0652
51.1600 34.0764 0.0799
51.1800 34.0898 0.0812
51.2000 34.1031 0.0692
51.2200 34.1165 0.0791
51.2400 34.1298 0.0741
51.2600 34.1432 0.0739
51.2800 34.1565 0.0753
51.3000 34.1699 0.0717
51.3200 34.1832 0.0771
51.3400 34.1965 0.0754
51.3600 34.2098 0.0760
51.3800 34.2232 0.0742
51.4000 34.2366 0.0706
51.4200 34.2499 0.0730
51.4400 34.2631 0.0746
51.4600 34.2765 0.0750
51.4800 34.2898 0.0749
51.5000 34.3031 0.0729
51.5200 34.3164 0.0678
51.5400 34.3297 0.0770
51.5600 34.3431 0.0727
51.5800 34.3565 0.0648
51.6000 34.3698 0.0745
51.6200 34.3831 0.0698
51.6400 34.3965 0.0678
51.6600 34.4099 0.0805
51.6800 34.4232 0.0671
51.7000 34.4365 0.0659
51.7200 34.4499 0.0776
51.7400 34.4632 0.0671
51.7600 34.4765 0.0637
51.7800 34.4898 0.0792
51.8000 34.5031 0.0650
51.8200 34.5164 0.0625
51.8400 34.5298 0.0754
51.8600 34.5432 0.0648
51.8800 34.5565 0.0667
51.9000 34.5698 0.0742
51.9200 34.5831 0.0640
51.9400 34.5965 0.0616
51.9600 34.6098 0.0784
51.9800 34.6231 0.0625
52.0000 34.6364 0.0639
52.0200 34.6498 0.0779
52.0400 34.6632 0.0593
52.0600 34.6765 0.0683
52.0800 34.6898 0.0748
52.1000 34.7032 0.0624
52.1200 34.7166 0.0650
52.1400 34.7299 0.0720
52.1600 34.7432 0.0623
52.1800 34.7565 0.0693
52.2000 34.7698 0.0735
52.2200 34.7831 0.0576
52.2400 34.7964 0.0714
52.2600 34.8097 0.0690
52.2800 34.8231 0.0603
52.3000 34.8364 0.0697
52.3200 34.8498 0.0739
52.3400 34.8631 0.0597
52.3600 34.8765 0.0663
52.3800 34.8899 0.0732
52.4000 34.9032 0.0614
52.4200 34.9165 0.0644
52.4400 34.9298 0.0735
52.4600 34.9432 0.0584
52.4800 34.9565 0.0631
52.5000 34.9699 0.0723
52.5200 34.9831 0.0645
52.5400 34.9965 0.0654
52.5600 35.0098 0.0692
52.5800 35.0231 0.0604
52.6000 35.0364 0.0618
52.6200 35.0498 0.0700
52.6400 35.0631 0.0613
52.6600 35.0764 0.0619
52.6800 35.0898 0.0712
52.7000 35.1031 0.0623
52.7200 35.1165 0.0640
52.7400 35.1299 0.0693
52.7600 35.1432 0.0617
52.7800 35.1565 0.0611
52.8000 35.1698 0.0676
52.8200 35.1832 0.0648
52.8400 35.1965 0.0620
52.8600 35.2098 0.0656
52.8800 35.2231 0.0640
52.9000 35.2364 0.0524
52.9200 35.2498 0.0647
52.9400 35.2631 0.0600
52.9600 35.2764 0.0560
52.9800 35.2898 0.0666
53.0000 35.3031 0.0596
53.0200 35.3165 0.0567
53.0400 35.3299 0.0608
53.0600 35.3432 0.0595
53.0800 35.3565 0.0534
53.1000 35.3699 0.0625
53.1200 35.3832 0.0579
53.1400 35.3965 0.0529
53.1600 35.4098 0.0643
53.1800 35.4231 0.0583
53.2000 35.4365 0.0534
53.2200 35.4498 0.0607
53.2400 35.4632 0.0559
53.2600 35.4765 0.0536
53.2800 35.4898 0.0575
53.3000 35.5032 0.0556
53.3200 35.5165 0.0570
53.3400 35.5298 0.0601
53.3600 35.5431 0.0559
53.3800 35.5564 0.0576
53.4000 35.5698 0.0578
53.4200 35.5831 0.0563
53.4400 35.5964 0.0535
53.4600 35.6098 0.0557
53.4800 35.6232 0.0570
53.5000 35.6365 0.0511
53.5200 35.6498 0.0543
53.5400 35.6632 0.0571
53.5600 35.6765 0.0521
53.5800 35.6899 0.0508
53.6000 35.7032 0.0594
53.6200 35.7165 0.0520
53.6400 35.7298 0.0527
53.6600 35.7432 0.0535
53.6800 35.7565 0.0505
53.7000 35.7698 0.0528
53.7200 35.7831 0.0536
53.7400 35.7964 0.0491
53.7600 35.8098 0.0544
53.7800 35.8231 0.0529
53.8000 35.8365 0.0466
53.8200 35.8498 0.0566
53.8400 35.8632 0.0485
53.8600 35.8765 0.0488
53.8800 35.8899 0.0566
53.9000 35.9032 0.0487
53.9200 35.9165 0.0534
53.9400 35.9299 0.0500
53.9600 35.9431 0.0506
53.9800 35.9564 0.0531
54.0000 35.9698 0.0508
54.0200 35.9831 0.0469
54.0400 35.9965 0.0510
54.0600 36.0098 0.0522
54.0800 36.0231 0.0508
54.1000 36.0365 0.0484
54.1200 36.0498 0.0519
54.1400 36.0631 0.0531
54.1600 36.0765 0.0522
54.1800 36.0898 0.0488
54.2000 36.1032 0.0550
54.2200 36.1165 0.0505
54.2400 36.1298 0.0436
54.2600 36.1432 0.0598
54.2800 36.1566 0.0492
54.3000 36.1699 0.0461
54.3200 36.1832 0.0543
54.3400 36.1965 0.0493
54.3600 36.2098 0.0504
54.3800 36.2232 0.0553
54.4000 36.2365 0.0459
54.4200 36.2498 0.0512
54.4400 36.2631 0.0541
54.4600 36.2764 0.0474
54.4800 36.2898 0.0531
54.5000 36.3031 0.0508
54.5200 36.3165 0.0466
54.5400 36.3299 0.0533
54.5600 36.3432 0.0455
54.5800 36.3565 0.0431
54.6000 36.3699 0.0549
54.6200 36.3832 0.0463
54.6400 36.3965 0.0405
54.6600 36.4098 0.0534
54.6800 36.4231 0.0459
54.7000 36.4364 0.0465
54.7200 36.4498 0.0528
54.7400 36.4632 0.0437
54.7600 36.4765 0.0443
54.7800 36.4898 0.0500
54.8000 36.5031 0.0416
54.8200 36.5164 0.0496
54.8400 36.5298 0.0502
54.8600 36.5431 0.0399
54.8800 36.5565 0.0489
54.9000 36.5698 0.0457
54.9200 36.5832 0.0400
54.9400 36.5965 0.0502
54.9600 36.6098 0.0466
54.9800 36.6232 0.0423
55.0000 36.6365 0.0454
55.0200 36.6498 0.0444
55.0400 36.6631 0.0445
55.0600 36.6764 0.0416
55.0800 36.6898 0.0423
55.1000 36.7031 0.0430
55.1200 36.7164 0.0433
55.1400 36.7297 0.0416
55.1600 36.7431 0.0493
55.1800 36.7564 0.0441
55.2000 36.7698 0.0430
55.2200 36.7831 0.0455
55.2400 36.7965 0.0415
55.2600 36.8098 0.0436
55.2800 36.8232 0.0468
55.3000 36.8365 0.0374
55.3200 36.8498 0.0425
55.3400 36.8631 0.0398
55.3600 36.8765 0.0436
55.3800 36.8899 0.0379
55.4000 36.9032 0.0405
55.4200 36.9165 0.0425
55.4400 36.9299 0.0443
55.4600 36.9432 0.0378
55.4800 36.9565 0.0395
55.5000 36.9698 0.0425
55.5200 36.9831 0.0345
55.5400 36.9964 0.0430
55.5600 37.0097 0.0383
55.5800 37.0230 0.0364
55.6000 37.0364 0.0408
55.6200 37.0499 0.0364
55.6400 37.0633 0.0376
55.6600 37.0766 0.0366
55.6800 37.0899 0.0417
55.7000 37.1032 0.0376
55.7200 37.1166 0.0361
55.7400 37.1299 0.0394
55.7600 37.1432 0.0382
55.7800 37.1565 0.0367
55.8000 37.1698 0.0391
55.8200 37.1832 0.0411
55.8400 37.1965 0.0342
55.8600 37.2098 0.0416
55.8800 37.2231 0.0386
55.9000 37.2364 0.0345
55.9200 37.2498 0.0389
55.9400 37.2631 0.0310
55.9600 37.2765 0.0395
55.9800 37.2898 0.0411
56.0000 37.3032 0.0294
56.0200 37.3165 0.0360
56.0400 37.3299 0.0380
56.0600 37.3432 0.0266
56.0800 37.3566 0.0384
56.1000 37.3699 0.0388
56.1200 37.3832 0.0260
56.1400 37.3965 0.0387
56.1600 37.4098 0.0400
56.1800 37.4231 0.0271
56.2000 37.4365 0.0404
56.2200 37.4498 0.0364
56.2400 37.4631 0.0271
56.2600 37.4764 0.0420
56.2800 37.4898 0.0282
56.3000 37.5031 0.0259
56.3200 37.5165 0.0414
56.3400 37.5298 0.0279
56.3600 37.5432 0.0288
56.3800 37.5565 0.0431
56.4000 37.5698 0.0271
56.4200 37.5832 0.0268
56.4400 37.5965 0.0411
56.4600 37.6099 0.0279
56.4800 37.6232 0.0316
56.5000 37.6365 0.0399
56.5200 37.6498 0.0263
56.5400 37.6632 0.0256
56.5600 37.6765 0.0365
56.5800 37.6898 0.0263
56.6000 37.7031 0.0316
56.6200 37.7164 0.0363
56.6400 37.7298 0.0297
56.6600 37.7431 0.0278
56.6800 37.7565 0.0329
56.7000 37.7698 0.0314
56.7200 37.7832 0.0249
56.7400 37.7966 0.0305
56.7600 37.8099 0.0295
56.7800 37.8232 0.0242
56.8000 37.8365 0.0357
56.8200 37.8498 0.0309
56.8400 37.8632 0.0263
56.8600 37.8765 0.0356
56.8800 37.8898 0.0302
56.9000 37.9032 0.0245
56.9200 37.9165 0.0328
56.9400 37.9298 0.0299
56.9600 37.9431 0.0215
56.9800 37.9564 0.0320
57.0000 37.9698 0.0259
57.0200 37.9831 0.0230
57.0400 37.9965 0.0304
57.0600 38.0098 0.0262
57.0800 38.0232 0.0217
57.1000 38.0365 0.0318
57.1200 38.0499 0.0240
57.1400 38.0632 0.0205
57.1600 38.0765 0.0332
57.1800 38.0899 0.0204
57.2000 38.1032 0.0210
57.2200 38.1165 0.0327
57.2400 38.1298 0.0294
57.2600 38.1431 0.0201
57.2800 38.1565 0.0291
57.3000 38.1698 0.0271
57.3200 38.1831 0.0210
57.3400 38.1964 0.0319
57.3600 38.2098 0.0206
57.3800 38.2231 0.0214
57.4000 38.2364 0.0277
57.4200 38.2498 0.0253
57.4400 38.2632 0.0202
57.4600 38.2765 0.0227
57.4800 38.2898 0.0182
57.5000 38.3032 0.0201
57.5200 38.3165 0.0236
57.5400 38.3299 0.0245
57.5600 38.3432 0.0188
57.5800 38.3565 0.0199
57.6000 38.3698 0.0259
57.6200 38.3832 0.0158
57.6400 38.3965 0.0221
57.6600 38.4098 0.0187
57.6800 38.4231 0.0131
57.7000 38.4364 0.0252
57.7200 38.4497 0.0142
57.7400 38.4631 0.0197
57.7600 38.4764 0.0223
57.7800 38.4898 0.0159
57.8000 38.5032 0.0124
57.8200 38.5166 0.0204
57.8400 38.5299 0.0168
57.8600 38.5432 0.0142
57.8800 38.5566 0.0252
57.9000 38.5699 0.0110
57.9200 38.5832 0.0173
57.9400 38.5965 0.0252
57.9600 38.6098 0.0133
57.9800 38.6231 0.0169
58.0000 38.6364 0.0202
58.0200 38.6498 0.0116
58.0400 38.6631 0.0197
58.0600 38.6765 0.0205
58.0800 38.6898 0.0149
58.1000 38.7032 0.0175
58.1200 38.7165 0.0135
58.1400 38.7299 0.0118
58.1600 38.7432 0.0162
58.1800 38.7566 0.0142
58.2000 38.7699 0.0112
58.2200 38.7832 0.0179
58.2400 38.7965 0.0164
58.2600 38.8099 0.0123
58.2800 38.8232 0.0222
58.3000 38.8365 0.0082
58.3200 38.8498 0.0168
58.3400 38.8631 0.0157
58.3600 38.8765 0.0068
58.3800 38.8898 0.0162
58.4000 38.9031 0.0182
58.4200 38.9164 0.0087
58.4400 38.9298 0.0144
58.4600 38.9432 0.0118
58.4800 38.9565 0.0112
58.5000 38.9698 0.0158
58.5200 38.9832 0.0127
58.5400 38.9965 0.0110
58.5600 39.0098 0.0124
58.5800 39.0232 0.0129
58.6000 39.0365 0.0137
58.6200 39.0499 0.0098
58.6400 39.0632 0.0121
58.6600 39.0765 0.0120
58.6800 39.0898 0.0071
58.7000 39.1031 0.0151
58.7200 39.1165 0.0122
58.7400 39.1298 0.0082
58.7600 39.1431 0.0108
58.7800 39.1564 0.0129
58.8000 39.1698 0.0037
58.8200 39.1831 0.0118
58.8400 39.1965 0.0081
58.8600 39.2098 0.0025
58.8800 39.2232 0.0117
58.9000 39.2366 0.0096
58.9200 39.2499 0.0047
58.9400 39.2632 0.0179
58.9600 39.2765 0.0003
58.9800 39.2899 0.0073
59.0000 39.3032 0.0130
59.0200 39.3165 -0.0004
59.0400 39.3298 0.0089
59.0600 39.3431 0.0084
59.0800 39.3565 -0.0029
59.1000 39.3698 0.0086
59.1200 39.3831 0.0091
59.1400 39.3964 -0.0016
59.1600 39.4098 0.0088
59.1800 39.4231 0.0066
59.2000 39.4364 -0.0013
59.2200 39.4498 0.0073
59.2400 39.4631 0.0043
59.2600 39.4765 0.0012
59.2800 39.4898 0.0091
59.3000 39.5032 -0.0002
59.3200 39.5165 0.0053
59.3400 39.5299 0.0081
59.3600 39.5432 -0.0060
59.3800 39.5565 0.0077
59.4000 39.5698 0.0065
59.4200 39.5831 -0.0030
59.4400 39.5965 0.0047
59.4600 39.6098 0.0034
59.4800 39.6231 -0.0040
59.5000 39.6364 0.0070
59.5200 39.6498 0.0014
59.5400 39.6631 -0.0109
59.5600 39.6765 0.0126
59.5800 39.6898 0.0011
59.6000 39.7032 -0.0069
59.6200 39.7166 0.0092
59.6400 39.7299 -0.0030
59.6600 39.7432 -0.0052
59.6800 39.7565 0.0111
59.7000 39.7699 -0.0066
59.7200 39.7832 -0.0076
59.7400 39.7965 0.0046
59.7600 39.8098 -0.0025
59.7800 39.8231 -0.0050
59.8000 39.8365 0.0030
59.8200 39.8498 -0.0078
59.8400 39.8631 -0.0016
59.8600 39.8764 0.0001
59.8800 39.8898 -0.0096
59.9000 39.9031 -0.0017
59.9200 39.9164 -0.0048
59.9400 39.9298 -0.0106
59.9600 39.9432 -0.0037
59.9800 39.9566 -0.0053
60.0000 39.9699 -0.0055
60.0200 39.9832 -0.0051
60.0400 39.9965 -0.0136
60.0460 40.0004 -0.0291
