Raw Data
Time Displacement Force
(s) (mm) (N)
0.0000 0.0000 0.1064
0.0200 0.0001 0.1182
0.0400 0.0022 0.1858
0.0600 0.0101 0.1752
0.0800 0.0221 0.0925
0.1000 0.0346 0.1063
0.1200 0.0473 0.1339
0.1400 0.0607 0.0999
0.1600 0.0747 0.1079
0.1800 0.0889 0.1151
0.2000 0.1028 0.0891
0.2200 0.1164 0.1049
0.2400 0.1297 0.1146
0.2600 0.1430 0.0935
0.2800 0.1564 0.1193
0.3000 0.1697 0.1106
0.3200 0.1831 0.0881
0.3400 0.1965 0.1204
0.3600 0.2098 0.1082
0.3800 0.2231 0.0892
0.4000 0.2365 0.1139
0.4200 0.2498 0.1028
0.4400 0.2631 0.0915
0.4600 0.2764 0.1080
0.4800 0.2898 0.1017
0.5000 0.3031 0.0931
0.5200 0.3164 0.1024
0.5400 0.3298 0.0966
0.5600 0.3431 0.0921
0.5800 0.3565 0.0998
0.6000 0.3698 0.0941
0.6200 0.3831 0.0892
0.6400 0.3965 0.0982
0.6600 0.4099 0.0880
0.6800 0.4232 0.0867
0.7000 0.4365 0.0963
0.7200 0.4498 0.0897
0.7400 0.4632 0.0845
0.7600 0.4765 0.0880
0.7800 0.4899 0.0878
0.8000 0.5032 0.0787
0.8200 0.5165 0.0836
0.8400 0.5298 0.0914
0.8600 0.5431 0.0695
0.8800 0.5564 0.0792
0.9000 0.5697 0.0815
0.9200 0.5831 0.0642
0.9400 0.5964 0.0774
0.9600 0.6098 0.0833
0.9800 0.6231 0.0596
1.0000 0.6364 0.0760
1.0200 0.6498 0.0768
1.0400 0.6632 0.0606
1.0600 0.6765 0.0769
1.0800 0.6898 0.0752
1.1000 0.7032 0.0603
1.1200 0.7165 0.0733
1.1400 0.7298 0.0699
1.1600 0.7431 0.0650
1.1800 0.7565 0.0763
1.2000 0.7698 0.0727
1.2200 0.7832 0.0588
1.2400 0.7965 0.0709
1.2600 0.8098 0.0736
1.2800 0.8231 0.0590
1.3000 0.8364 0.0718
1.3200 0.8498 0.0694
1.3400 0.8631 0.0567
1.3600 0.8764 0.0703
1.3800 0.8898 0.0680
1.4000 0.9032 0.0571
1.4200 0.9165 0.0643
1.4400 0.9298 0.0600
1.4600 0.9432 0.0593
1.4800 0.9565 0.0591
1.5000 0.9699 0.0544
1.5200 0.9832 0.0534
1.5400 0.9965 0.0625
1.5600 1.0098 0.0516
1.5800 1.0231 0.0497
1.6000 1.0364 0.0546
1.6200 1.0498 0.0411
1.6400 1.0631 0.0496
1.6600 1.0764 0.0498
1.6800 1.0898 0.0391
1.7000 1.1031 0.0468
1.7200 1.1165 0.0438
1.7400 1.1299 0.0390
1.7600 1.1432 0.0399
1.7800 1.1566 0.0425
1.8000 1.1699 0.0425
1.8200 1.1832 0.0371
1.8400 1.1965 0.0433
1.8600 1.2099 0.0451
1.8800 1.2232 0.0349
1.9000 1.2365 0.0439
1.9200 1.2498 0.0393
1.9400 1.2632 0.0322
1.9600 1.2765 0.0411
1.9800 1.2898 0.0339
2.0000 1.3031 0.0342
2.0200 1.3164 0.0397
2.0400 1.3298 0.0334
2.0600 1.3431 0.0315
2.0800 1.3565 0.0368
2.1000 1.3698 0.0321
2.1200 1.3832 0.0333
2.1400 1.3966 0.0346
2.1600 1.4099 0.0275
2.1800 1.4232 0.0342
2.2000 1.4365 0.0297
2.2200 1.4498 0.0226
2.2400 1.4631 0.0363
2.2600 1.4764 0.0273
2.2800 1.4898 0.0208
2.3000 1.5031 0.0318
2.3200 1.5164 0.0249
2.3400 1.5298 0.0228
2.3600 1.5431 0.0300
2.3800 1.5565 0.0134
2.4000 1.5699 0.0245
2.4200 1.5832 0.0291
2.4400 1.5965 0.0106
2.4600 1.6098 0.0220
2.4800 1.6232 0.0227
2.5000 1.6365 0.0097
2.5200 1.6498 0.0213
2.5400 1.6631 0.0201
2.5600 1.6765 0.0103
2.5800 1.6899 0.0170
2.6000 1.7032 0.0171
2.6200 1.7165 0.0142
2.6400 1.7298 0.0205
2.6600 1.7432 0.0153
2.6800 1.7565 0.0066
2.7000 1.7698 0.0170
2.7200 1.7831 0.0139
2.7400 1.7964 0.0071
2.7600 1.8098 0.0116
2.7800 1.8231 0.0130
2.8000 1.8364 0.0058
2.8200 1.8498 0.0060
2.8400 1.8632 0.0104
2.8600 1.8765 0.0100
2.8800 1.8898 -0.0001
2.9000 1.9032 0.0077
2.9200 1.9165 0.0027
2.9400 1.9299 -0.0021
2.9600 1.9432 0.0091
2.9800 1.9565 0.0093
3.0000 1.9698 -0.0040
3.0200 1.9832 0.0032
3.0400 1.9965 0.0020
3.0600 2.0098 -0.0056
3.0800 2.0231 0.0075
3.1000 2.0364 0.0045
3.1200 2.0498 -0.0145
3.1400 2.0631 0.0051
3.1600 2.0764 -0.0052
3.1800 2.0898 -0.0086
3.2000 2.1032 0.0004
3.2200 2.1166 -0.0117
3.2400 2.1299 -0.0087
3.2600 2.1432 0.0016
3.2800 2.1566 -0.0104
3.3000 2.1699 -0.0080
3.3200 2.1832 -0.0031
3.3400 2.1965 -0.0128
3.3600 2.2098 -0.0091
3.3800 2.2231 -0.0069
3.4000 2.2365 -0.0176
3.4200 2.2498 -0.0081
3.4400 2.2631 -0.0115
3.4600 2.2764 -0.0156
3.4800 2.2898 -0.0092
3.5000 2.3032 -0.0163
3.5200 2.3165 -0.0150
3.5400 2.3298 -0.0128
3.5600 2.3432 -0.0180
3.5800 2.3565 -0.0183
3.6000 2.3699 -0.0184
3.6200 2.3832 -0.0190
3.6400 2.3965 -0.0176
3.6600 2.4099 -0.0223
3.6800 2.4232 -0.0194
3.7000 2.4365 -0.0156
3.7200 2.4498 -0.0249
3.7400 2.4632 -0.0228
3.7600 2.4765 -0.0157
3.7800 2.4898 -0.0278
3.8000 2.5031 -0.0202
3.8200 2.5164 -0.0157
3.8400 2.5298 -0.0285
3.8600 2.5431 -0.0226
3.8800 2.5564 -0.0205
3.9000 2.5698 -0.0298
3.9200 2.5832 -0.0210
3.9400 2.5966 -0.0248
3.9600 2.6099 -0.0326
3.9800 2.6232 -0.0211
4.0000 2.6365 -0.0247
4.0200 2.6499 -0.0355
4.0400 2.6632 -0.0275
4.0600 2.6765 -0.0282
4.0800 2.6898 -0.0375
4.1000 2.7031 -0.0246
4.1200 2.7165 -0.0333
4.1400 2.7298 -0.0345
4.1600 2.7431 -0.0245
4.1800 2.7564 -0.0377
4.2000 2.7698 -0.0365
4.2200 2.7831 -0.0274
4.2400 2.7964 -0.0393
4.2600 2.8098 -0.0369
4.2800 2.8232 -0.0321
4.3000 2.8365 -0.0393
4.3200 2.8499 -0.0413
4.3400 2.8632 -0.0318
4.3600 2.8765 -0.0406
4.3800 2.8899 -0.0409
4.4000 2.9032 -0.0378
4.4200 2.9165 -0.0413
4.4400 2.9298 -0.0420
4.4600 2.9431 -0.0387
4.4800 2.9565 -0.0413
4.5000 2.9698 -0.0430
4.5200 2.9831 -0.0434
4.5400 2.9964 -0.0420
4.5600 3.0098 -0.0440
4.5800 3.0231 -0.0446
4.6000 3.0365 -0.0390
4.6200 3.0498 -0.0457
4.6400 3.0631 -0.0458
4.6600 3.0765 -0.0407
4.6800 3.0898 -0.0476
4.7000 3.1031 -0.0413
4.7200 3.1165 -0.0411
4.7400 3.1299 -0.0512
4.7600 3.1432 -0.0455
4.7800 3.1565 -0.0442
4.8000 3.1699 -0.0545
4.8200 3.1832 -0.0435
4.8400 3.1965 -0.0445
4.8600 3.2098 -0.0589
4.8800 3.2231 -0.0433
4.9000 3.2364 -0.0505
4.9200 3.2497 -0.0574
4.9400 3.2631 -0.0447
4.9600 3.2764 -0.0556
4.9800 3.2898 -0.0598
5.0000 3.3032 -0.0457
5.0200 3.3166 -0.0560
5.0400 3.3299 -0.0619
5.0600 3.3432 -0.0480
5.0800 3.3566 -0.0549
5.1000 3.3699 -0.0630
5.1200 3.3832 -0.0510
5.1400 3.3965 -0.0587
5.1600 3.4098 -0.0638
5.1800 3.4231 -0.0558
5.2000 3.4365 -0.0614
5.2200 3.4498 -0.0649
5.2400 3.4631 -0.0583
5.2600 3.4764 -0.0626
5.2800 3.4898 -0.0640
5.3000 3.5031 -0.0595
5.3200 3.5165 -0.0664
5.3400 3.5298 -0.0667
5.3600 3.5432 -0.0568
5.3800 3.5565 -0.0693
5.4000 3.5699 -0.0698
5.4200 3.5832 -0.0635
5.4400 3.5965 -0.0703
5.4600 3.6099 -0.0730
5.4800 3.6232 -0.0658
5.5000 3.6365 -0.0689
5.5200 3.6498 -0.0717
5.5400 3.6631 -0.0668
5.5600 3.6765 -0.0746
5.5800 3.6898 -0.0704
5.6000 3.7031 -0.0701
5.6200 3.7164 -0.0717
5.6400 3.7298 -0.0730
5.6600 3.7431 -0.0667
5.6800 3.7565 -0.0714
5.7000 3.7698 -0.0792
5.7200 3.7832 -0.0702
5.7400 3.7965 -0.0743
5.7600 3.8099 -0.0760
5.7800 3.8232 -0.0636
5.8000 3.8365 -0.0805
5.8200 3.8499 -0.0712
5.8400 3.8632 -0.0696
5.8600 3.8765 -0.0793
5.8800 3.8898 -0.0731
5.9000 3.9032 -0.0741
5.9200 3.9165 -0.0811
5.9400 3.9298 -0.0757
5.9600 3.9431 -0.0758
5.9800 3.9564 -0.0776
6.0000 3.9698 -0.0771
6.0200 3.9831 -0.0798
6.0400 3.9965 -0.0799
6.0600 4.0098 -0.0835
6.0800 4.0232 -0.0826
6.1000 4.0365 -0.0781
6.1200 4.0499 -0.0891
6.1400 4.0632 -0.0767
6.1600 4.0765 -0.0775
6.1800 4.0899 -0.0930
6.2000 4.1032 -0.0808
6.2200 4.1165 -0.0801
6.2400 4.1298 -0.0942
6.2600 4.1431 -0.0834
6.2800 4.1565 -0.0823
6.3000 4.1698 -0.1000
6.3200 4.1831 -0.0825
6.3400 4.1964 -0.0853
6.3600 4.2098 -0.0965
6.3800 4.2231 -0.0846
6.4000 4.2364 -0.0911
6.4200 4.2498 -0.0946
6.4400 4.2631 -0.0827
6.4600 4.2765 -0.0904
6.4800 4.2898 -0.0958
6.5000 4.3032 -0.0847
6.5200 4.3165 -0.0974
6.5400 4.3299 -0.0982
6.5600 4.3432 -0.0805
6.5800 4.3565 -0.1041
6.6000 4.3698 -0.0936
6.6200 4.3831 -0.0841
6.6400 4.3965 -0.1021
6.6600 4.4098 -0.0961
6.6800 4.4231 -0.0892
6.7000 4.4364 -0.1044
6.7200 4.4498 -0.0949
6.7400 4.4631 -0.0979
6.7600 4.4764 -0.1031
6.7800 4.4898 -0.0992
6.8000 4.5031 -0.1013
6.8200 4.5165 -0.1016
6.8400 4.5298 -0.0984
6.8600 4.5432 -0.0994
6.8800 4.5565 -0.1002
6.9000 4.5698 -0.1021
6.9200 4.5832 -0.1054
6.9400 4.5965 -0.1002
6.9600 4.6098 -0.1060
6.9800 4.6231 -0.1018
7.0000 4.6365 -0.0979
7.0200 4.6498 -0.1114
7.0400 4.6631 -0.1005
7.0600 4.6764 -0.0954
7.0800 4.6897 -0.1081
7.1000 4.7031 -0.1048
7.1200 4.7164 -0.1000
7.1400 4.7298 -0.1105
7.1600 4.7432 -0.1063
7.1800 4.7566 -0.0996
7.2000 4.7699 -0.1098
7.2200 4.7833 -0.1027
7.2400 4.7966 -0.1044
7.2600 4.8099 -0.1083
7.2800 4.8232 -0.1073
7.3000 4.8365 -0.1046
7.3200 4.8498 -0.1065
7.3400 4.8631 -0.1121
7.3600 4.8764 -0.1101
7.3800 4.8898 -0.1042
7.4000 4.9031 -0.1105
7.4200 4.9164 -0.1112
7.4400 4.9298 -0.1085
7.4600 4.9432 -0.1172
7.4800 4.9565 -0.1117
7.5000 4.9698 -0.1116
7.5200 4.9832 -0.1145
7.5400 4.9966 -0.1131
7.5600 5.0099 -0.1139
7.5800 5.0232 -0.1214
7.6000 5.0365 -0.1126
7.6200 5.0499 -0.1108
7.6400 5.0632 -0.1266
7.6600 5.0765 -0.1143
7.6800 5.0898 -0.1140
7.7000 5.1031 -0.1240
7.7200 5.1165 -0.1146
7.7400 5.1298 -0.1137
7.7600 5.1431 -0.1232
7.7800 5.1564 -0.1159
7.8000 5.1698 -0.1164
7.8200 5.1831 -0.1261
7.8400 5.1965 -0.1113
7.8600 5.2098 -0.1210
7.8800 5.2232 -0.1248
7.9000 5.2365 -0.1131
7.9200 5.2499 -0.1234
7.9400 5.2632 -0.1214
7.9600 5.2765 -0.1144
7.9800 5.2899 -0.1257
8.0000 5.3032 -0.1171
8.0200 5.3165 -0.1188
8.0400 5.3298 -0.1200
8.0600 5.3431 -0.1170
8.0800 5.3565 -0.1187
8.1000 5.3698 -0.1285
8.1200 5.3831 -0.1161
8.1400 5.3964 -0.1221
8.1600 5.4098 -0.1281
8.1800 5.4231 -0.1155
8.2000 5.4365 -0.1286
8.2200 5.4498 -0.1250
8.2400 5.4631 -0.1177
8.2600 5.4765 -0.1353
8.2800 5.4899 -0.1195
8.3000 5.5032 -0.1237
8.3200 5.5165 -0.1321
8.3400 5.5298 -0.1209
8.3600 5.5432 -0.1263
8.3800 5.5565 -0.1287
8.4000 5.5698 -0.1257
8.4200 5.5831 -0.1320
8.4400 5.5965 -0.1310
8.4600 5.6098 -0.1255
8.4800 5.6231 -0.1357
8.5000 5.6364 -0.1321
8.5200 5.6498 -0.1247
8.5400 5.6631 -0.1370
8.5600 5.6765 -0.1343
8.5800 5.6898 -0.1265
8.6000 5.7031 -0.1356
8.6200 5.7165 -0.1323
8.6400 5.7299 -0.1335
8.6600 5.7432 -0.1351
8.6800 5.7565 -0.1307
8.7000 5.7699 -0.1342
8.7200 5.7832 -0.1378
8.7400 5.7965 -0.1326
8.7600 5.8098 -0.1333
8.7800 5.8232 -0.1374
8.8000 5.8365 -0.1367
8.8200 5.8498 -0.1384
8.8400 5.8631 -0.1343
8.8600 5.8764 -0.1373
8.8800 5.8898 -0.1396
8.9000 5.9031 -0.1370
8.9200 5.9165 -0.1405
8.9400 5.9298 -0.1377
8.9600 5.9432 -0.1376
8.9800 5.9566 -0.1404
9.0000 5.9699 -0.1439
9.0200 5.9832 -0.1404
9.0400 5.9965 -0.1399
9.0600 6.0098 -0.1441
9.0800 6.0232 -0.1425
9.1000 6.0365 -0.1410
9.1200 6.0498 -0.1455
9.1400 6.0631 -0.1411
9.1600 6.0764 -0.1432
9.1800 6.0898 -0.1457
9.2000 6.1031 -0.1417
9.2200 6.1164 -0.1443
9.2400 6.1297 -0.1464
9.2600 6.1431 -0.1417
9.2800 6.1564 -0.1426
9.3000 6.1698 -0.1512
9.3200 6.1831 -0.1420
9.3400 6.1965 -0.1478
9.3600 6.2099 -0.1504
9.3800 6.2232 -0.1463
9.4000 6.2365 -0.1511
9.4200 6.2499 -0.1496
9.4400 6.2632 -0.1449
9.4600 6.2765 -0.1543
9.4800 6.2898 -0.1508
9.5000 6.3031 -0.1483
9.5200 6.3164 -0.1567
9.5400 6.3298 -0.1534
9.5600 6.3431 -0.1457
9.5800 6.3564 -0.1586
9.6000 6.3698 -0.1506
9.6200 6.3832 -0.1496
9.6400 6.3965 -0.1629
9.6600 6.4098 -0.1499
9.6800 6.4232 -0.1513
9.7000 6.4365 -0.1591
9.7200 6.4499 -0.1525
9.7400 6.4632 -0.1538
9.7600 6.4765 -0.1607
9.7800 6.4898 -0.1525
9.8000 6.5032 -0.1534
9.8200 6.5165 -0.1642
9.8400 6.5298 -0.1538
9.8600 6.5432 -0.1596
9.8800 6.5565 -0.1630
9.9000 6.5699 -0.1545
9.9200 6.5832 -0.1634
9.9400 6.5965 -0.1601
9.9600 6.6098 -0.1583
9.9800 6.6231 -0.1611
10.0000 6.6364 -0.1602
10.0200 6.6498 -0.1611
10.0400 6.6631 -0.1608
10.0600 6.6765 -0.1592
10.0800 6.6899 -0.1652
10.1000 6.7032 -0.1592
10.1200 6.7165 -0.1598
10.1400 6.7298 -0.1656
10.1600 6.7432 -0.1566
10.1800 6.7565 -0.1639
10.2000 6.7698 -0.1659
10.2200 6.7832 -0.1541
10.2400 6.7965 -0.1644
10.2600 6.8099 -0.1618
10.2800 6.8232 -0.1594
10.3000 6.8365 -0.1686
10.3200 6.8498 -0.1582
10.3400 6.8631 -0.1603
10.3600 6.8764 -0.1672
10.3800 6.8898 -0.1566
10.4000 6.9031 -0.1630
10.4200 6.9165 -0.1682
10.4400 6.9299 -0.1572
10.4600 6.9432 -0.1642
10.4800 6.9565 -0.1671
10.5000 6.9699 -0.1578
10.5200 6.9832 -0.1662
10.5400 6.9965 -0.1691
10.5600 7.0098 -0.1580
10.5800 7.0231 -0.1639
10.6000 7.0365 -0.1694
10.6200 7.0498 -0.1632
10.6400 7.0631 -0.1653
10.6600 7.0764 -0.1710
10.6800 7.0898 -0.1602
10.7000 7.1031 -0.1645
10.7200 7.1165 -0.1704
10.7400 7.1298 -0.1664
10.7600 7.1431 -0.1683
10.7800 7.1565 -0.1742
10.8000 7.1698 -0.1646
10.8200 7.1832 -0.1711
10.8400 7.1965 -0.1725
10.8600 7.2098 -0.1645
10.8800 7.2232 -0.1717
10.9000 7.2365 -0.1731
10.9200 7.2499 -0.1716
10.9400 7.2632 -0.1745
10.9600 7.2765 -0.1721
10.9800 7.2898 -0.1722
11.0000 7.3031 -0.1768
11.0200 7.3164 -0.1811
11.0400 7.3297 -0.1740
11.0600 7.3431 -0.1751
11.0800 7.3564 -0.1807
11.1000 7.3698 -0.1762
11.1200 7.3831 -0.1754
11.1400 7.3965 -0.1822
11.1600 7.4099 -0.1808
11.1800 7.4232 -0.1762
11.2000 7.4365 -0.1807
11.2200 7.4498 -0.1794
11.2400 7.4632 -0.1724
11.2600 7.4766 -0.1819
11.2800 7.4899 -0.1808
11.3000 7.5032 -0.1746
11.3200 7.5165 -0.1812
11.3400 7.5298 -0.1792
11.3600 7.5432 -0.1804
11.3800 7.5565 -0.1853
11.4000 7.5698 -0.1846
11.4200 7.5831 -0.1780
11.4400 7.5965 -0.1849
11.4600 7.6098 -0.1808
11.4800 7.6231 -0.1823
11.5000 7.6365 -0.1861
11.5200 7.6499 -0.1870
11.5400 7.6632 -0.1799
11.5600 7.6765 -0.1837
11.5800 7.6898 -0.1830
11.6000 7.7032 -0.1796
11.6200 7.7165 -0.1872
11.6400 7.7298 -0.1870
11.6600 7.7431 -0.1780
11.6800 7.7565 -0.1876
11.7000 7.7698 -0.1865
11.7200 7.7831 -0.1809
11.7400 7.7964 -0.1891
11.7600 7.8098 -0.1882
11.7800 7.8231 -0.1765
11.8000 7.8365 -0.1854
11.8200 7.8498 -0.1896
11.8400 7.8631 -0.1810
11.8600 7.8764 -0.1888
11.8800 7.8898 -0.1895
11.9000 7.9031 -0.1787
11.9200 7.9165 -0.1936
11.9400 7.9298 -0.1861
11.9600 7.9432 -0.1777
11.9800 7.9565 -0.1969
12.0000 7.9699 -0.1874
12.0200 7.9832 -0.1782
12.0400 7.9965 -0.1971
12.0600 8.0099 -0.1871
12.0800 8.0232 -0.1776
12.1000 8.0365 -0.1975
12.1200 8.0497 -0.1826
12.1400 8.0631 -0.1785
12.1600 8.0764 -0.2020
12.1800 8.0897 -0.1868
12.2000 8.1031 -0.1780
12.2200 8.1165 -0.2030
12.2400 8.1299 -0.1851
12.2600 8.1433 -0.1849
12.2800 8.1566 -0.2003
12.3000 8.1699 -0.1813
12.3200 8.1832 -0.1891
12.3400 8.1966 -0.1978
12.3600 8.2099 -0.1843
12.3800 8.2231 -0.1885
12.4000 8.2364 -0.1946
12.4200 8.2498 -0.1838
12.4400 8.2631 -0.1927
12.4600 8.2764 -0.2004
12.4800 8.2897 -0.1832
12.5000 8.3031 -0.1941
12.5200 8.3164 -0.1913
12.5400 8.3298 -0.1896
12.5600 8.3431 -0.1978
12.5800 8.3565 -0.1911
12.6000 8.3699 -0.1893
12.6200 8.3832 -0.2010
12.6400 8.3966 -0.1898
12.6600 8.4099 -0.1871
12.6800 8.4232 -0.2043
12.7000 8.4365 -0.1902
12.7200 8.4499 -0.1967
12.7400 8.4631 -0.1959
12.7600 8.4765 -0.1906
12.7800 8.4898 -0.2036
12.8000 8.5031 -0.1944
12.8200 8.5164 -0.1953
12.8400 8.5297 -0.2045
12.8600 8.5431 -0.1896
12.8800 8.5565 -0.1964
12.9000 8.5698 -0.2048
12.9200 8.5832 -0.1970
12.9400 8.5965 -0.1987
12.9600 8.6099 -0.2067
12.9800 8.6232 -0.1952
13.0000 8.6365 -0.2068
13.0200 8.6498 -0.2057
13.0400 8.6632 -0.1963
13.0600 8.6766 -0.2055
13.0800 8.6899 -0.2074
13.1000 8.7032 -0.2022
13.1200 8.7165 -0.2080
13.1400 8.7298 -0.2051
13.1600 8.7432 -0.2033
13.1800 8.7564 -0.2104
13.2000 8.7697 -0.2051
13.2200 8.7831 -0.2085
13.2400 8.7965 -0.2112
13.2600 8.8098 -0.2053
13.2800 8.8232 -0.2075
13.3000 8.8365 -0.2108
13.3200 8.8499 -0.2098
13.3400 8.8632 -0.2129
13.3600 8.8765 -0.2095
13.3800 8.8898 -0.2084
13.4000 8.9032 -0.2158
13.4200 8.9165 -0.2117
13.4400 8.9299 -0.2118
13.4600 8.9431 -0.2142
13.4800 8.9565 -0.2077
13.5000 8.9698 -0.2131
13.5200 8.9832 -0.2170
13.5400 8.9965 -0.2111
13.5600 9.0098 -0.2162
13.5800 9.0231 -0.2131
13.6000 9.0364 -0.2114
13.6200 9.0498 -0.2200
13.6400 9.0631 -0.2162
13.6600 9.0764 -0.2129
13.6800 9.0898 -0.2188
13.7000 9.1032 -0.2161
13.7200 9.1165 -0.2171
13.7400 9.1299 -0.2187
13.7600 9.1432 -0.2150
13.7800 9.1566 -0.2154
13.8000 9.1699 -0.2180
13.8200 9.1832 -0.2176
13.8400 9.1965 -0.2199
13.8600 9.2098 -0.2232
13.8800 9.2232 -0.2181
13.9000 9.2365 -0.2194
13.9200 9.2498 -0.2193
13.9400 9.2631 -0.2153
13.9600 9.2765 -0.2241
13.9800 9.2898 -0.2237
14.0000 9.3031 -0.2210
14.0200 9.3165 -0.2190
14.0400 9.3298 -0.2209
14.0600 9.3432 -0.2251
14.0800 9.3565 -0.2249
14.1000 9.3698 -0.2207
14.1200 9.3832 -0.2221
14.1400 9.3965 -0.2222
14.1600 9.4098 -0.2213
14.1800 9.4232 -0.2233
14.2000 9.4365 -0.2253
14.2200 9.4498 -0.2203
14.2400 9.4632 -0.2205
14.2600 9.4765 -0.2259
14.2800 9.4898 -0.2203
14.3000 9.5031 -0.2245
14.3200 9.5164 -0.2300
14.3400 9.5297 -0.2149
14.3600 9.5431 -0.2282
14.3800 9.5565 -0.2281
14.4000 9.5698 -0.2179
14.4200 9.5832 -0.2298
14.4400 9.5966 -0.2326
14.4600 9.6099 -0.2154
14.4800 9.6232 -0.2309
14.5000 9.6366 -0.2317
14.5200 9.6499 -0.2138
14.5400 9.6631 -0.2327
14.5600 9.6764 -0.2300
14.5800 9.6897 -0.2183
14.6000 9.7031 -0.2355
14.6200 9.7164 -0.2275
14.6400 9.7298 -0.2203
14.6600 9.7431 -0.2345
14.6800 9.7565 -0.2286
14.7000 9.7698 -0.2255
14.7200 9.7832 -0.2353
14.7400 9.7965 -0.2315
14.7600 9.8099 -0.2254
14.7800 9.8232 -0.2382
14.8000 9.8366 -0.2293
14.8200 9.8499 -0.2244
14.8400 9.8632 -0.2387
14.8600 9.8765 -0.2296
14.8800 9.8898 -0.2266
14.9000 9.9031 -0.2331
14.9200 9.9165 -0.2297
14.9400 9.9298 -0.2303
14.9600 9.9431 -0.2343
14.9800 9.9565 -0.2312
15.0000 9.9698 -0.2294
15.0200 9.9831 -0.2386
15.0400 9.9965 -0.2313
15.0600 10.0098 -0.2312
15.0800 10.0231 -0.2348
15.1000 10.0365 -0.2337
15.1200 10.0498 -0.2314
15.1400 10.0632 -0.2355
15.1600 10.0765 -0.2374
15.1800 10.0898 -0.2311
15.2000 10.1032 -0.2324
15.2200 10.1165 -0.2388
15.2400 10.1299 -0.2323
15.2600 10.1432 -0.2375
15.2800 10.1565 -0.2386
15.3000 10.1698 -0.2320
15.3200 10.1832 -0.2398
15.3400 10.1965 -0.2381
15.3600 10.2098 -0.2299
15.3800 10.2231 -0.2417
15.4000 10.2364 -0.2386
15.4200 10.2498 -0.2292
15.4400 10.2631 -0.2445
15.4600 10.2765 -0.2363
15.4800 10.2898 -0.2276
15.5000 10.3032 -0.2427
15.5200 10.3166 -0.2368
15.5400 10.3299 -0.2304
15.5600 10.3432 -0.2442
15.5800 10.3566 -0.2339
15.6000 10.3699 -0.2301
15.6200 10.3832 -0.2439
15.6400 10.3965 -0.2384
15.6600 10.4098 -0.2289
15.6800 10.4231 -0.2428
15.7000 10.4365 -0.2343
15.7200 10.4498 -0.2339
15.7400 10.4631 -0.2398
15.7600 10.4764 -0.2338
15.7800 10.4898 -0.2390
15.8000 10.5031 -0.2418
15.8200 10.5164 -0.2320
15.8400 10.5298 -0.2383
15.8600 10.5432 -0.2363
15.8800 10.5565 -0.2375
15.9000 10.5698 -0.2391
15.9200 10.5832 -0.2373
15.9400 10.5965 -0.2402
15.9600 10.6099 -0.2408
15.9800 10.6232 -0.2368
16.0000 10.6365 -0.2424
16.0200 10.6498 -0.2379
16.0400 10.6631 -0.2351
16.0600 10.6765 -0.2458
16.0800 10.6898 -0.2370
16.1000 10.7031 -0.2350
16.1200 10.7164 -0.2460
16.1400 10.7298 -0.2400
16.1600 10.7431 -0.2399
16.1800 10.7565 -0.2485
16.2000 10.7698 -0.2361
16.2200 10.7832 -0.2463
16.2400 10.7966 -0.2490
16.2600 10.8099 -0.2357
16.2800 10.8232 -0.2438
16.3000 10.8365 -0.2490
16.3200 10.8499 -0.2380
16.3400 10.8632 -0.2493
16.3600 10.8765 -0.2480
16.3800 10.8898 -0.2389
16.4000 10.9032 -0.2517
16.4200 10.9165 -0.2462
16.4400 10.9298 -0.2396
16.4600 10.9431 -0.2552
16.4800 10.9564 -0.2457
16.5000 10.9698 -0.2477
16.5200 10.9831 -0.2476
16.5400 10.9965 -0.2464
16.5600 11.0098 -0.2489
16.5800 11.0232 -0.2491
16.6000 11.0365 -0.2507
16.6200 11.0499 -0.2477
16.6400 11.0632 -0.2486
16.6600 11.0765 -0.2555
16.6800 11.0899 -0.2482
16.7000 11.1031 -0.2468
16.7200 11.1164 -0.2527
16.7400 11.1297 -0.2468
16.7600 11.1431 -0.2473
16.7800 11.1565 -0.2571
16.8000 11.1698 -0.2439
16.8200 11.1831 -0.2488
16.8400 11.1965 -0.2561
16.8600 11.2098 -0.2395
16.8800 11.2232 -0.2528
16.9000 11.2365 -0.2557
16.9200 11.2498 -0.2389
16.9400 11.2632 -0.2502
16.9600 11.2765 -0.2578
16.9800 11.2898 -0.2392
17.0000 11.3031 -0.2534
17.0200 11.3165 -0.2564
17.0400 11.3299 -0.2448
17.0600 11.3432 -0.2588
17.0800 11.3565 -0.2530
17.1000 11.3698 -0.2414
17.1200 11.3832 -0.2589
17.1400 11.3965 -0.2559
17.1600 11.4098 -0.2484
17.1800 11.4231 -0.2549
17.2000 11.4364 -0.2589
17.2200 11.4498 -0.2507
17.2400 11.4631 -0.2595
17.2600 11.4764 -0.2573
17.2800 11.4898 -0.2494
17.3000 11.5032 -0.2624
17.3200 11.5165 -0.2581
17.3400 11.5298 -0.2513
17.3600 11.5432 -0.2655
17.3800 11.5565 -0.2552
17.4000 11.5699 -0.2565
17.4200 11.5832 -0.2628
17.4400 11.5965 -0.2564
17.4600 11.6098 -0.2537
17.4800 11.6232 -0.2655
17.5000 11.6365 -0.2632
17.5200 11.6498 -0.2509
17.5400 11.6631 -0.2652
17.5600 11.6764 -0.2578
17.5800 11.6898 -0.2564
17.6000 11.7031 -0.2691
17.6200 11.7165 -0.2556
17.6400 11.7298 -0.2603
17.6600 11.7432 -0.2663
17.6800 11.7565 -0.2619
17.7000 11.7699 -0.2579
17.7200 11.7832 -0.2643
17.7400 11.7965 -0.2664
17.7600 11.8099 -0.2557
17.7800 11.8232 -0.2645
17.8000 11.8365 -0.2569
17.8200 11.8498 -0.2597
17.8400 11.8631 -0.2607
17.8600 11.8765 -0.2609
17.8800 11.8898 -0.2585
17.9000 11.9031 -0.2603
17.9200 11.9164 -0.2617
17.9400 11.9298 -0.2536
17.9600 11.9432 -0.2631
17.9800 11.9565 -0.2596
18.0000 11.9698 -0.2531
18.0200 11.9832 -0.2650
18.0400 11.9965 -0.2606
18.0600 12.0098 -0.2561
18.0800 12.0232 -0.2631
18.1000 12.0365 -0.2577
18.1200 12.0499 -0.2573
18.1400 12.0632 -0.2657
18.1600 12.0765 -0.2622
18.1800 12.0898 -0.2597
18.2000 12.1032 -0.2668
18.2200 12.1165 -0.2626
18.2400 12.1298 -0.2663
18.2600 12.1431 -0.2622
18.2800 12.1564 -0.2576
18.3000 12.1698 -0.2668
18.3200 12.1831 -0.2634
18.3400 12.1965 -0.2636
18.3600 12.2098 -0.2670
18.3800 12.2232 -0.2651
18.4000 12.2366 -0.2670
18.4200 12.2499 -0.2664
18.4400 12.2632 -0.2671
18.4600 12.2765 -0.2643
18.4800 12.2899 -0.2692
18.5000 12.3032 -0.2624
18.5200 12.3165 -0.2685
18.5400 12.3298 -0.2684
18.5600 12.3431 -0.2596
18.5800 12.3565 -0.2758
18.6000 12.3698 -0.2682
18.6200 12.3831 -0.2592
18.6400 12.3965 -0.2768
18.6600 12.4098 -0.2649
18.6800 12.4231 -0.2610
18.7000 12.4364 -0.2727
18.7200 12.4498 -0.2670
18.7400 12.4632 -0.2643
18.7600 12.4765 -0.2767
18.7800 12.4899 -0.2685
18.8000 12.5032 -0.2672
18.8200 12.5165 -0.2745
18.8400 12.5299 -0.2645
18.8600 12.5432 -0.2759
18.8800 12.5565 -0.2695
18.9000 12.5698 -0.2675
18.9200 12.5831 -0.2815
18.9400 12.5965 -0.2688
18.9600 12.6098 -0.2690
18.9800 12.6231 -0.2800
19.0000 12.6364 -0.2673
19.0200 12.6498 -0.2699
19.0400 12.6631 -0.2867
19.0600 12.6764 -0.2692
19.0800 12.6898 -0.2745
19.1000 12.7031 -0.2812
19.1200 12.7165 -0.2682
19.1400 12.7298 -0.2797
19.1600 12.7431 -0.2811
19.1800 12.7565 -0.2677
19.2000 12.7698 -0.2835
19.2200 12.7832 -0.2811
19.2400 12.7965 -0.2667
19.2600 12.8098 -0.2866
19.2800 12.8232 -0.2752
19.3000 12.8365 -0.2782
19.3200 12.8498 -0.2862
19.3400 12.8631 -0.2710
19.3600 12.8764 -0.2808
19.3800 12.8897 -0.2865
19.4000 12.9031 -0.2703
19.4200 12.9164 -0.2829
19.4400 12.9298 -0.2827
19.4600 12.9432 -0.2756
19.4800 12.9566 -0.2833
19.5000 12.9699 -0.2814
19.5200 12.9832 -0.2772
19.5400 12.9966 -0.2865
19.5600 13.0099 -0.2808
19.5800 13.0232 -0.2812
19.6000 13.0365 -0.2848
19.6200 13.0498 -0.2792
19.6400 13.0631 -0.2789
19.6600 13.0765 -0.2887
19.6800 13.0898 -0.2817
19.7000 13.1031 -0.2809
19.7200 13.1164 -0.2816
19.7400 13.1298 -0.2828
19.7600 13.1431 -0.2860
19.7800 13.1564 -0.2784
19.8000 13.1698 -0.2816
19.8200 13.1832 -0.2858
19.8400 13.1965 -0.2792
19.8600 13.2099 -0.2818
19.8800 13.2232 -0.2854
19.9000 13.2365 -0.2779
19.9200 13.2499 -0.2845
19.9400 13.2632 -0.2873
19.9600 13.2765 -0.2768
19.9800 13.2898 -0.2814
20.0000 13.3031 -0.2827
20.0200 13.3165 -0.2749
20.0400 13.3298 -0.2859
20.0600 13.3431 -0.2813
20.0800 13.3564 -0.2782
20.1000 13.3698 -0.2794
20.1200 13.3832 -0.2827
20.1400 13.3965 -0.2781
20.1600 13.4098 -0.2852
20.1800 13.4232 -0.2809
20.2000 13.4365 -0.2758
20.2200 13.4499 -0.2848
20.2400 13.4632 -0.2837
20.2600 13.4765 -0.2795
20.2800 13.4899 -0.2846
20.3000 13.5032 -0.2850
20.3200 13.5165 -0.2833
20.3400 13.5298 -0.2856
20.3600 13.5432 -0.2877
20.3800 13.5565 -0.2817
20.4000 13.5698 -0.2888
20.4200 13.5831 -0.2887
20.4400 13.5964 -0.2806
20.4600 13.6098 -0.2914
20.4800 13.6231 -0.2858
20.5000 13.6365 -0.2836
20.5200 13.6498 -0.2890
20.5400 13.6632 -0.2868
20.5600 13.6766 -0.2860
20.5800 13.6899 -0.2972
20.6000 13.7032 -0.2870
20.6200 13.7165 -0.2835
20.6400 13.7299 -0.2953
20.6600 13.7432 -0.2883
20.6800 13.7565 -0.2887
20.7000 13.7698 -0.2907
20.7200 13.7831 -0.2866
20.7400 13.7965 -0.2897
20.7600 13.8098 -0.2905
20.7800 13.8231 -0.2935
20.8000 13.8364 -0.2874
20.8200 13.8498 -0.2959
20.8400 13.8631 -0.2949
20.8600 13.8765 -0.2841
20.8800 13.8898 -0.2901
20.9000 13.9031 -0.2936
20.9200 13.9165 -0.2882
20.9400 13.9299 -0.2921
20.9600 13.9432 -0.2928
20.9800 13.9565 -0.2889
21.0000 13.9699 -0.2939
21.0200 13.9833 -0.2895
21.0400 13.9965 -0.2827
21.0600 14.0098 -0.2976
21.0800 14.0231 -0.2880
21.1000 14.0365 -0.2852
21.1200 14.0498 -0.3002
21.1400 14.0631 -0.2888
21.1600 14.0765 -0.2845
21.1800 14.0898 -0.3000
21.2000 14.1031 -0.2915
21.2200 14.1164 -0.2847
21.2400 14.1298 -0.2986
21.2600 14.1431 -0.2915
21.2800 14.1565 -0.2911
21.3000 14.1699 -0.2987
21.3200 14.1832 -0.2905
21.3400 14.1965 -0.2904
21.3600 14.2099 -0.2956
21.3800 14.2232 -0.2877
21.4000 14.2365 -0.2961
21.4200 14.2498 -0.2939
21.4400 14.2631 -0.2848
21.4600 14.2765 -0.2978
21.4800 14.2898 -0.2931
21.5000 14.3031 -0.2889
21.5200 14.3164 -0.2931
21.5400 14.3297 -0.2935
21.5600 14.3431 -0.2946
21.5800 14.3564 -0.2937
21.6000 14.3697 -0.2903
21.6200 14.3831 -0.2913
21.6400 14.3965 -0.2958
21.6600 14.4099 -0.2943
21.6800 14.4232 -0.2990
21.7000 14.4366 -0.2911
21.7200 14.4499 -0.2973
21.7400 14.4632 -0.2987
21.7600 14.4765 -0.2939
21.7800 14.4898 -0.3031
21.8000 14.5031 -0.3006
21.8200 14.5164 -0.2920
21.8400 14.5298 -0.3020
21.8600 14.5431 -0.3016
21.8800 14.5564 -0.2974
21.9000 14.5698 -0.3025
21.9200 14.5831 -0.3023
21.9400 14.5965 -0.2983
21.9600 14.6098 -0.3079
21.9800 14.6232 -0.3058
22.0000 14.6365 -0.2970
22.0200 14.6499 -0.3090
22.0400 14.6632 -0.3036
22.0600 14.6765 -0.2984
22.0800 14.6898 -0.3060
22.1000 14.7032 -0.3086
22.1200 14.7165 -0.3017
22.1400 14.7298 -0.3072
22.1600 14.7431 -0.3011
22.1800 14.7565 -0.2988
22.2000 14.7698 -0.3133
22.2200 14.7831 -0.3051
22.2400 14.7964 -0.3009
22.2600 14.8098 -0.3109
22.2800 14.8232 -0.3002
22.3000 14.8365 -0.3044
22.3200 14.8498 -0.3118
22.3400 14.8632 -0.3004
22.3600 14.8765 -0.3085
22.3800 14.8899 -0.3111
22.4000 14.9032 -0.3042
22.4200 14.9165 -0.3093
22.4400 14.9299 -0.3069
22.4600 14.9432 -0.3084
22.4800 14.9566 -0.3097
22.5000 14.9698 -0.3071
22.5200 14.9831 -0.3080
22.5400 14.9965 -0.3097
22.5600 15.0098 -0.3068
22.5800 15.0231 -0.3116
22.6000 15.0364 -0.3059
22.6200 15.0498 -0.3072
22.6400 15.0631 -0.3174
22.6600 15.0765 -0.3050
22.6800 15.0898 -0.3106
22.7000 15.1031 -0.3166
22.7200 15.1165 -0.3080
22.7400 15.1299 -0.3148
22.7600 15.1432 -0.3149
22.7800 15.1565 -0.3089
22.8000 15.1698 -0.3225
22.8200 15.1832 -0.3062
22.8400 15.1965 -0.3075
22.8600 15.2098 -0.3233
22.8800 15.2231 -0.3106
22.9000 15.2365 -0.3061
22.9200 15.2498 -0.3255
22.9400 15.2631 -0.3117
22.9600 15.2764 -0.3106
22.9800 15.2898 -0.3221
23.0000 15.3031 -0.3148
23.0200 15.3165 -0.3137
23.0400 15.3298 -0.3226
23.0600 15.3431 -0.3154
23.0800 15.3565 -0.3137
23.1000 15.3698 -0.3228
23.1200 15.3832 -0.3165
23.1400 15.3965 -0.3173
23.1600 15.4099 -0.3212
23.1800 15.4232 -0.3187
23.2000 15.4366 -0.3183
23.2200 15.4499 -0.3171
23.2400 15.4631 -0.3196
23.2600 15.4765 -0.3205
23.2800 15.4898 -0.3195
23.3000 15.5031 -0.3191
23.3200 15.5164 -0.3165
23.3400 15.5297 -0.3187
23.3600 15.5431 -0.3199
23.3800 15.5565 -0.3217
23.4000 15.5698 -0.3212
23.4200 15.5832 -0.3198
23.4400 15.5965 -0.3226
23.4600 15.6099 -0.3206
23.4800 15.6232 -0.3229
23.5000 15.6365 -0.3239
23.5200 15.6498 -0.3088
23.5400 15.6632 -0.3269
23.5600 15.6766 -0.3201
23.5800 15.6898 -0.3155
23.6000 15.7031 -0.3208
23.6200 15.7165 -0.3203
23.6400 15.7298 -0.3166
23.6600 15.7431 -0.3202
23.6800 15.7564 -0.3231
23.7000 15.7698 -0.3140
23.7200 15.7831 -0.3252
23.7400 15.7964 -0.3210
23.7600 15.8098 -0.3163
23.7800 15.8231 -0.3237
23.8000 15.8365 -0.3182
23.8200 15.8499 -0.3217
23.8400 15.8632 -0.3229
23.8600 15.8765 -0.3218
23.8800 15.8898 -0.3202
23.9000 15.9032 -0.3211
23.9200 15.9165 -0.3219
23.9400 15.9298 -0.3192
23.9600 15.9431 -0.3250
23.9800 15.9564 -0.3161
24.0000 15.9698 -0.3264
24.0200 15.9831 -0.3238
24.0400 15.9964 -0.3171
24.0600 16.0098 -0.3275
24.0800 16.0231 -0.3175
24.1000 16.0365 -0.3179
24.1200 16.0498 -0.3233
24.1400 16.0632 -0.3173
24.1600 16.0765 -0.3212
24.1800 16.0898 -0.3205
24.2000 16.1032 -0.3127
24.2200 16.1165 -0.3184
24.2400 16.1298 -0.3232
24.2600 16.1431 -0.3105
24.2800 16.1565 -0.3229
24.3000 16.1698 -0.3222
24.3200 16.1832 -0.3093
24.3400 16.1965 -0.3221
24.3600 16.2099 -0.3234
24.3800 16.2232 -0.3182
24.4000 16.2365 -0.3182
24.4200 16.2498 -0.3181
24.4400 16.2631 -0.3152
24.4600 16.2765 -0.3185
24.4800 16.2898 -0.3223
24.5000 16.3031 -0.3144
24.5200 16.3165 -0.3251
24.5400 16.3298 -0.3191
24.5600 16.3432 -0.3224
24.5800 16.3565 -0.3245
24.6000 16.3699 -0.3203
24.6200 16.3832 -0.3226
24.6400 16.3966 -0.3232
24.6600 16.4099 -0.3229
24.6800 16.4232 -0.3224
24.7000 16.4365 -0.3279
24.7200 16.4499 -0.3251
24.7400 16.4632 -0.3227
24.7600 16.4765 -0.3278
24.7800 16.4898 -0.3273
24.8000 16.5031 -0.3202
24.8200 16.5164 -0.3334
24.8400 16.5298 -0.3311
24.8600 16.5431 -0.3288
24.8800 16.5565 -0.3287
24.9000 16.5699 -0.3350
24.9200 16.5832 -0.3270
24.9400 16.5965 -0.3294
24.9600 16.6099 -0.3344
24.9800 16.6232 -0.3262
25.0000 16.6366 -0.3348
25.0200 16.6498 -0.3327
25.0400 16.6631 -0.3269
25.0600 16.6765 -0.3365
25.0800 16.6898 -0.3283
25.1000 16.7031 -0.3282
25.1200 16.7164 -0.3338
25.1400 16.7297 -0.3340
25.1600 16.7431 -0.3273
25.1800 16.7565 -0.3376
25.2000 16.7698 -0.3336
25.2200 16.7831 -0.3270
25.2400 16.7965 -0.3364
25.2600 16.8098 -0.3345
25.2800 16.8232 -0.3299
25.3000 16.8365 -0.3403
25.3200 16.8499 -0.3348
25.3400 16.8632 -0.3260
25.3600 16.8766 -0.3455
25.3800 16.8899 -0.3346
25.4000 16.9032 -0.3245
25.4200 16.9165 -0.3478
25.4400 16.9298 -0.3340
25.4600 16.9431 -0.3325
25.4800 16.9564 -0.3423
25.5000 16.9697 -0.3355
25.5200 16.9831 -0.3352
25.5400 16.9964 -0.3440
25.5600 17.0097 -0.3415
25.5800 17.0231 -0.3290
25.6000 17.0365 -0.3467
25.6200 17.0499 -0.3365
25.6400 17.0632 -0.3365
25.6600 17.0765 -0.3469
25.6800 17.0898 -0.3397
25.7000 17.1032 -0.3332
25.7200 17.1165 -0.3473
25.7400 17.1298 -0.3421
25.7600 17.1432 -0.3335
25.7800 17.1565 -0.3485
25.8000 17.1698 -0.3412
25.8200 17.1832 -0.3360
25.8400 17.1965 -0.3520
25.8600 17.2098 -0.3337
25.8800 17.2231 -0.3432
25.9000 17.2365 -0.3505
25.9200 17.2498 -0.3356
25.9400 17.2631 -0.3414
25.9600 17.2765 -0.3504
25.9800 17.2899 -0.3365
26.0000 17.3032 -0.3460
26.0200 17.3165 -0.3513
26.0400 17.3299 -0.3333
26.0600 17.3432 -0.3472
26.0800 17.3566 -0.3461
26.1000 17.3699 -0.3361
26.1200 17.3831 -0.3483
26.1400 17.3965 -0.3458
26.1600 17.4098 -0.3372
26.1800 17.4231 -0.3487
26.2000 17.4364 -0.3441
26.2200 17.4498 -0.3330
26.2400 17.4631 -0.3486
26.2600 17.4765 -0.3410
26.2800 17.4898 -0.3393
26.3000 17.5032 -0.3475
26.3200 17.5165 -0.3355
26.3400 17.5298 -0.3421
26.3600 17.5432 -0.3466
26.3800 17.5565 -0.3457
26.4000 17.5698 -0.3409
26.4200 17.5832 -0.3436
26.4400 17.5965 -0.3477
26.4600 17.6099 -0.3480
26.4800 17.6232 -0.3485
26.5000 17.6365 -0.3521
26.5200 17.6499 -0.3479
26.5400 17.6632 -0.3479
26.5600 17.6765 -0.3557
26.5800 17.6897 -0.3448
26.6000 17.7030 -0.3494
26.6200 17.7164 -0.3557
26.6400 17.7297 -0.3468
26.6600 17.7431 -0.3587
26.6800 17.7565 -0.3605
26.7000 17.7699 -0.3511
26.7200 17.7832 -0.3574
26.7400 17.7966 -0.3657
26.7600 17.8099 -0.3508
26.7800 17.8232 -0.3595
26.8000 17.8366 -0.3648
26.8200 17.8499 -0.3547
26.8400 17.8632 -0.3628
26.8600 17.8765 -0.3612
26.8800 17.8898 -0.3548
26.9000 17.9031 -0.3650
26.9200 17.9164 -0.3673
26.9400 17.9297 -0.3519
26.9600 17.9431 -0.3665
26.9800 17.9564 -0.3702
27.0000 17.9698 -0.3583
27.0200 17.9831 -0.3692
27.0400 17.9965 -0.3728
27.0600 18.0098 -0.3586
27.0800 18.0232 -0.3675
27.1000 18.0366 -0.3736
27.1200 18.0499 -0.3651
27.1400 18.0632 -0.3653
27.1600 18.0765 -0.3716
27.1800 18.0899 -0.3662
27.2000 18.1031 -0.3685
27.2200 18.1165 -0.3732
27.2400 18.1298 -0.3712
27.2600 18.1432 -0.3733
27.2800 18.1564 -0.3722
27.3000 18.1698 -0.3723
27.3200 18.1831 -0.3692
27.3400 18.1965 -0.3742
27.3600 18.2098 -0.3811
27.3800 18.2232 -0.3676
27.4000 18.2365 -0.3774
27.4200 18.2498 -0.3777
27.4400 18.2632 -0.3688
27.4600 18.2765 -0.3786
27.4800 18.2898 -0.3796
27.5000 18.3032 -0.3686
27.5200 18.3165 -0.3808
27.5400 18.3299 -0.3800
27.5600 18.3432 -0.3730
27.5800 18.3565 -0.3788
27.6000 18.3699 -0.3826
27.6200 18.3832 -0.3691
27.6400 18.3965 -0.3838
27.6600 18.4098 -0.3789
27.6800 18.4231 -0.3714
27.7000 18.4365 -0.3851
27.7200 18.4498 -0.3799
27.7400 18.4631 -0.3767
27.7600 18.4765 -0.3811
27.7800 18.4899 -0.3754
27.8000 18.5032 -0.3801
27.8200 18.5165 -0.3860
27.8400 18.5298 -0.3750
27.8600 18.5432 -0.3756
27.8800 18.5565 -0.3909
27.9000 18.5698 -0.3790
27.9200 18.5831 -0.3732
27.9400 18.5964 -0.3858
27.9600 18.6098 -0.3721
27.9800 18.6232 -0.3718
28.0000 18.6365 -0.3858
28.0200 18.6498 -0.3778
28.0400 18.6631 -0.3668
28.0600 18.6765 -0.3840
28.0800 18.6898 -0.3791
28.1000 18.7031 -0.3692
28.1200 18.7164 -0.3821
28.1400 18.7298 -0.3792
28.1600 18.7432 -0.3665
28.1800 18.7565 -0.3827
28.2000 18.7699 -0.3804
28.2200 18.7832 -0.3718
28.2400 18.7966 -0.3797
28.2600 18.8099 -0.3784
28.2800 18.8232 -0.3698
28.3000 18.8365 -0.3831
28.3200 18.8498 -0.3771
28.3400 18.8632 -0.3733
28.3600 18.8765 -0.3871
28.3800 18.8898 -0.3744
28.4000 18.9031 -0.3755
28.4200 18.9164 -0.3881
28.4400 18.9298 -0.3794
28.4600 18.9431 -0.3732
28.4800 18.9565 -0.3883
28.5000 18.9698 -0.3807
28.5200 18.9832 -0.3747
28.5400 18.9965 -0.3916
28.5600 19.0098 -0.3840
28.5800 19.0232 -0.3693
28.6000 19.0365 -0.3917
28.6200 19.0499 -0.3864
28.6400 19.0632 -0.3796
28.6600 19.0765 -0.3840
28.6800 19.0898 -0.3800
28.7000 19.1032 -0.3796
28.7200 19.1165 -0.3905
28.7400 19.1297 -0.3835
28.7600 19.1430 -0.3792
28.7800 19.1564 -0.3884
28.8000 19.1697 -0.3823
28.8200 19.1831 -0.3849
28.8400 19.1964 -0.3945
28.8600 19.2098 -0.3844
28.8800 19.2232 -0.3855
28.9000 19.2366 -0.3934
28.9200 19.2499 -0.3904
28.9400 19.2632 -0.3888
28.9600 19.2766 -0.3909
28.9800 19.2899 -0.3918
29.0000 19.3032 -0.3937
29.0200 19.3164 -0.3961
29.0400 19.3298 -0.3917
29.0600 19.3431 -0.3938
29.0800 19.3564 -0.3979
29.1000 19.3698 -0.3911
29.1200 19.3831 -0.3935
29.1400 19.3965 -0.4009
29.1600 19.4098 -0.3963
29.1800 19.4232 -0.3985
29.2000 19.4365 -0.4043
29.2200 19.4499 -0.3932
29.2400 19.4632 -0.3973
29.2600 19.4765 -0.4018
29.2800 19.4898 -0.3916
29.3000 19.5031 -0.4017
29.3200 19.5165 -0.4005
29.3400 19.5298 -0.3907
29.3600 19.5431 -0.3983
29.3800 19.5564 -0.4021
29.4000 19.5698 -0.3945
29.4200 19.5832 -0.4000
29.4400 19.5965 -0.3978
29.4600 19.6098 -0.3906
29.4800 19.6231 -0.4010
29.5000 19.6365 -0.4060
29.5200 19.6498 -0.3937
29.5400 19.6631 -0.3995
29.5600 19.6765 -0.4066
29.5800 19.6898 -0.3963
29.6000 19.7032 -0.4034
29.6200 19.7165 -0.4085
29.6400 19.7298 -0.3929
29.6600 19.7431 -0.4082
29.6800 19.7565 -0.4102
29.7000 19.7698 -0.3973
29.7200 19.7832 -0.4111
29.7400 19.7965 -0.4103
29.7600 19.8098 -0.3953
29.7800 19.8232 -0.4146
29.8000 19.8365 -0.4121
29.8200 19.8498 -0.3994
29.8400 19.8631 -0.4200
29.8600 19.8764 -0.4079
29.8800 19.8898 -0.4051
29.9000 19.9031 -0.4210
29.9200 19.9165 -0.4128
29.9400 19.9298 -0.4039
29.9600 19.9432 -0.4240
29.9800 19.9566 -0.4159
30.0000 19.9699 -0.4117
30.0200 19.9832 -0.4262
30.0400 19.9965 -0.4174
30.0600 20.0099 -0.4130
30.0800 20.0231 -0.4245
30.1000 20.0364 -0.4176
30.1200 20.0498 -0.4158
30.1400 20.0632 -0.4290
30.1600 20.0765 -0.4204
30.1800 20.0898 -0.4167
30.2000 20.1031 -0.4323
30.2200 20.1165 -0.4193
30.2400 20.1298 -0.4215
30.2600 20.1431 -0.4338
30.2800 20.1564 -0.4236
30.3000 20.1698 -0.4197
30.3200 20.1832 -0.4313
30.3400 20.1965 -0.4246
30.3600 20.2098 -0.4217
30.3800 20.2232 -0.4282
30.4000 20.2365 -0.4284
30.4200 20.2499 -0.4249
30.4400 20.2632 -0.4272
30.4600 20.2765 -0.4130
30.4800 20.2898 -0.3464
30.5000 20.3031 -0.2608
30.5200 20.3165 -0.1676
30.5400 20.3298 -0.0789
30.5600 20.3431 -0.0329
30.5800 20.3564 -0.0029
30.6000 20.3698 0.0407
30.6200 20.3831 0.0739
30.6400 20.3965 0.1372
30.6600 20.4098 0.2071
30.6800 20.4232 0.2221
30.7000 20.4366 0.2450
30.7200 20.4499 0.2753
30.7400 20.4632 0.2774
30.7600 20.4765 0.2816
30.7800 20.4899 0.2880
30.8000 20.5032 0.2612
30.8200 20.5165 0.2724
30.8400 20.5298 0.2865
30.8600 20.5431 0.2628
30.8800 20.5565 0.2805
30.9000 20.5698 0.2868
30.9200 20.5831 0.2628
30.9400 20.5964 0.2839
30.9600 20.6098 0.2903
30.9800 20.6231 0.2676
31.0000 20.6364 0.2771
31.0200 20.6498 0.2771
31.0400 20.6632 0.2731
31.0600 20.6766 0.2928
31.0800 20.6899 0.2820
31.1000 20.7032 0.2633
31.1200 20.7165 0.2874
31.1400 20.7299 0.2773
31.1600 20.7432 0.2751
31.1800 20.7564 0.2903
31.2000 20.7698 0.2716
31.2200 20.7831 0.2711
31.2400 20.7964 0.2817
31.2600 20.8098 0.2749
31.2800 20.8231 0.2776
31.3000 20.8365 0.2766
31.3200 20.8498 0.2707
31.3400 20.8632 0.2749
31.3600 20.8765 0.2842
31.3800 20.8898 0.2693
31.4000 20.9032 0.2736
31.4200 20.9165 0.2775
31.4400 20.9298 0.2689
31.4600 20.9431 0.2758
31.4800 20.9565 0.2704
31.5000 20.9698 0.2672
31.5200 20.9832 0.2772
31.5400 20.9965 0.2660
31.5600 21.0098 0.2687
31.5800 21.0232 0.2707
31.6000 21.0365 0.2644
31.6200 21.0498 0.2770
31.6400 21.0631 0.2712
31.6600 21.0765 0.2633
31.6800 21.0898 0.2746
31.7000 21.1031 0.2630
31.7200 21.1164 0.2665
31.7400 21.1298 0.2857
31.7600 21.1431 0.2599
31.7800 21.1565 0.2617
31.8000 21.1698 0.2816
31.8200 21.1831 0.2571
31.8400 21.1965 0.2698
31.8600 21.2099 0.2816
31.8800 21.2232 0.2544
31.9000 21.2365 0.2667
31.9200 21.2498 0.2793
31.9400 21.2632 0.2553
31.9600 21.2765 0.2670
31.9800 21.2898 0.2725
32.0000 21.3031 0.2516
32.0200 21.3164 0.2709
32.0400 21.3298 0.2725
32.0600 21.3431 0.2552
32.0800 21.3565 0.2669
32.1000 21.3698 0.2697
32.1200 21.3832 0.2540
32.1400 21.3965 0.2649
32.1600 21.4099 0.2682
32.1800 21.4232 0.2517
32.2000 21.4365 0.2662
32.2200 21.4499 0.2617
32.2400 21.4632 0.2607
32.2600 21.4765 0.2683
32.2800 21.4898 0.2641
32.3000 21.5031 0.2623
32.3200 21.5165 0.2632
32.3400 21.5298 0.2578
32.3600 21.5431 0.2600
32.3800 21.5564 0.2697
32.4000 21.5698 0.2589
32.4200 21.5831 0.2548
32.4400 21.5965 0.2641
32.4600 21.6098 0.2598
32.4800 21.6231 0.2609
32.5000 21.6365 0.2627
32.5200 21.6498 0.2581
32.5400 21.6632 0.2578
32.5600 21.6765 0.2614
32.5800 21.6899 0.2581
32.6000 21.7032 0.2592
32.6200 21.7165 0.2602
32.6400 21.7298 0.2535
32.6600 21.7432 0.2560
32.6800 21.7565 0.2614
32.7000 21.7698 0.2528
32.7200 21.7831 0.2538
32.7400 21.7964 0.2587
32.7600 21.8098 0.2535
32.7800 21.8231 0.2516
32.8000 21.8364 0.2609
32.8200 21.8498 0.2560
32.8400 21.8632 0.2500
32.8600 21.8766 0.2590
32.8800 21.8899 0.2535
32.9000 21.9032 0.2508
32.9200 21.9165 0.2590
32.9400 21.9299 0.2519
32.9600 21.9432 0.2500
32.9800 21.9565 0.2584
33.0000 21.9698 0.2553
33.0200 21.9832 0.2499
33.0400 21.9965 0.2573
33.0600 22.0098 0.2538
33.0800 22.0231 0.2493
33.1000 22.0365 0.2593
33.1200 22.0498 0.2505
33.1400 22.0631 0.2547
33.1600 22.0765 0.2527
33.1800 22.0898 0.2546
33.2000 22.1032 0.2610
33.2200 22.1165 0.2455
33.2400 22.1299 0.2496
33.2600 22.1432 0.2610
33.2800 22.1565 0.2511
33.3000 22.1699 0.2468
33.3200 22.1832 0.2504
33.3400 22.1965 0.2561
33.3600 22.2098 0.2527
33.3800 22.2231 0.2519
33.4000 22.2365 0.2511
33.4200 22.2498 0.2510
33.4400 22.2631 0.2517
33.4600 22.2764 0.2511
33.4800 22.2898 0.2520
33.5000 22.3031 0.2552
33.5200 22.3165 0.2455
33.5400 22.3298 0.2496
33.5600 22.3431 0.2566
33.5800 22.3565 0.2481
33.6000 22.3698 0.2473
33.6200 22.3831 0.2515
33.6400 22.3965 0.2448
33.6600 22.4098 0.2497
33.6800 22.4232 0.2515
33.7000 22.4365 0.2457
33.7200 22.4499 0.2505
33.7400 22.4632 0.2465
33.7600 22.4765 0.2427
33.7800 22.4899 0.2548
33.8000 22.5031 0.2474
33.8200 22.5164 0.2370
33.8400 22.5297 0.2530
33.8600 22.5431 0.2479
33.8800 22.5564 0.2404
33.9000 22.5698 0.2539
33.9200 22.5832 0.2455
33.9400 22.5966 0.2382
33.9600 22.6099 0.2547
33.9800 22.6232 0.2447
34.0000 22.6366 0.2456
34.0200 22.6499 0.2497
34.0400 22.6633 0.2373
34.0600 22.6766 0.2442
34.0800 22.6898 0.2487
34.1000 22.7031 0.2445
34.1200 22.7165 0.2421
34.1400 22.7298 0.2448
34.1600 22.7431 0.2399
34.1800 22.7564 0.2445
34.2000 22.7697 0.2423
34.2200 22.7831 0.2388
34.2400 22.7964 0.2467
34.2600 22.8098 0.2381
34.2800 22.8232 0.2396
34.3000 22.8365 0.2456
34.3200 22.8499 0.2358
34.3400 22.8632 0.2381
34.3600 22.8765 0.2503
34.3800 22.8899 0.2401
34.4000 22.9032 0.2357
34.4200 22.9165 0.2436
34.4400 22.9298 0.2350
34.4600 22.9431 0.2378
34.4800 22.9565 0.2428
34.5000 22.9698 0.2331
34.5200 22.9831 0.2384
34.5400 22.9964 0.2407
34.5600 23.0098 0.2330
34.5800 23.0231 0.2396
34.6000 23.0364 0.2427
34.6200 23.0498 0.2299
34.6400 23.0631 0.2379
34.6600 23.0765 0.2406
34.6800 23.0898 0.2288
34.7000 23.1032 0.2385
34.7200 23.1165 0.2416
34.7400 23.1299 0.2323
34.7600 23.1432 0.2359
34.7800 23.1565 0.2399
34.8000 23.1698 0.2364
34.8200 23.1832 0.2293
34.8400 23.1965 0.2417
34.8600 23.2098 0.2341
34.8800 23.2231 0.2268
34.9000 23.2364 0.2412
34.9200 23.2498 0.2316
34.9400 23.2631 0.2280
34.9600 23.2765 0.2374
34.9800 23.2898 0.2336
35.0000 23.3032 0.2290
35.0200 23.3165 0.2342
35.0400 23.3299 0.2293
35.0600 23.3432 0.2275
35.0800 23.3565 0.2322
35.1000 23.3699 0.2285
35.1200 23.3832 0.2289
35.1400 23.3965 0.2349
35.1600 23.4098 0.2335
35.1800 23.4231 0.2242
35.2000 23.4365 0.2307
35.2200 23.4498 0.2277
35.2400 23.4631 0.2222
35.2600 23.4764 0.2310
35.2800 23.4898 0.2293
35.3000 23.5031 0.2221
35.3200 23.5164 0.2302
35.3400 23.5298 0.2284
35.3600 23.5431 0.2220
35.3800 23.5565 0.2285
35.4000 23.5699 0.2288
35.4200 23.5832 0.2183
35.4400 23.5965 0.2296
35.4600 23.6099 0.2274
35.4800 23.6232 0.2209
35.5000 23.6366 0.2299
35.5200 23.6498 0.2276
35.5400 23.6631 0.2200
35.5600 23.6765 0.2254
35.5800 23.6898 0.2292
35.6000 23.7031 0.2217
35.6200 23.7165 0.2227
35.6400 23.7298 0.2272
35.6600 23.7431 0.2148
35.6800 23.7565 0.2261
35.7000 23.7698 0.2328
35.7200 23.7831 0.2160
35.7400 23.7965 0.2286
35.7600 23.8099 0.2249
35.7800 23.8232 0.2159
35.8000 23.8365 0.2262
35.8200 23.8498 0.2277
35.8400 23.8632 0.2169
35.8600 23.8765 0.2264
35.8800 23.8898 0.2288
35.9000 23.9032 0.2179
35.9200 23.9165 0.2255
35.9400 23.9298 0.2273
35.9600 23.9431 0.2161
35.9800 23.9564 0.2226
36.0000 23.9697 0.2209
36.0200 23.9831 0.2151
36.0400 23.9964 0.2264
36.0600 24.0097 0.2204
36.0800 24.0231 0.2150
36.1000 24.0365 0.2231
36.1200 24.0499 0.2125
36.1400 24.0632 0.2131
36.1600 24.0766 0.2214
36.1800 24.0899 0.2204
36.2000 24.1032 0.2106
36.2200 24.1165 0.2177
36.2400 24.1298 0.2218
36.2600 24.1431 0.2125
36.2800 24.1564 0.2186
36.3000 24.1698 0.2161
36.3200 24.1831 0.2119
36.3400 24.1964 0.2187
36.3600 24.2098 0.2114
36.3800 24.2232 0.2148
36.4000 24.2365 0.2164
36.4200 24.2498 0.2081
36.4400 24.2632 0.2113
36.4600 24.2765 0.2140
36.4800 24.2899 0.2074
36.5000 24.3032 0.2124
36.5200 24.3165 0.2141
36.5400 24.3298 0.2080
36.5600 24.3432 0.2115
36.5800 24.3565 0.2119
36.6000 24.3698 0.2097
36.6200 24.3831 0.2145
36.6400 24.3965 0.2121
36.6600 24.4098 0.2084
36.6800 24.4231 0.2156
36.7000 24.4364 0.2083
36.7200 24.4498 0.2121
36.7400 24.4631 0.2151
36.7600 24.4765 0.2069
36.7800 24.4898 0.2167
36.8000 24.5032 0.2155
36.8200 24.5165 0.2066
36.8400 24.5299 0.2180
36.8600 24.5432 0.2077
36.8800 24.5565 0.2138
36.9000 24.5698 0.2201
36.9200 24.5832 0.2098
36.9400 24.5965 0.2118
36.9600 24.6098 0.2180
36.9800 24.6231 0.2081
37.0000 24.6365 0.2177
37.0200 24.6498 0.2175
37.0400 24.6631 0.2052
37.0600 24.6764 0.2148
37.0800 24.6898 0.2172
37.1000 24.7031 0.2097
37.1200 24.7165 0.2165
37.1400 24.7298 0.2114
37.1600 24.7431 0.2099
37.1800 24.7565 0.2157
37.2000 24.7699 0.2056
37.2200 24.7832 0.2081
37.2400 24.7965 0.2156
37.2600 24.8099 0.2054
37.2800 24.8232 0.2054
37.3000 24.8365 0.2124
37.3200 24.8498 0.2041
37.3400 24.8631 0.2106
37.3600 24.8765 0.2101
37.3800 24.8898 0.2008
37.4000 24.9031 0.2079
37.4200 24.9165 0.2052
37.4400 24.9298 0.2004
37.4600 24.9431 0.2089
37.4800 24.9565 0.2055
37.5000 24.9698 0.2004
37.5200 24.9831 0.2030
37.5400 24.9965 0.2045
37.5600 25.0098 0.1993
37.5800 25.0232 0.2049
37.6000 25.0365 0.2006
37.6200 25.0498 0.1997
37.6400 25.0632 0.2069
37.6600 25.0765 0.1973
37.6800 25.0899 0.1973
37.7000 25.1032 0.2063
37.7200 25.1165 0.1966
37.7400 25.1298 0.2005
37.7600 25.1431 0.2015
37.7800 25.1564 0.1993
37.8000 25.1697 0.2067
37.8200 25.1831 0.1989
37.8400 25.1964 0.1941
37.8600 25.2098 0.2037
37.8800 25.2231 0.1946
37.9000 25.2365 0.1963
37.9200 25.2499 0.2014
37.9400 25.2632 0.1928
37.9600 25.2765 0.1970
37.9800 25.2898 0.1979
38.0000 25.3032 0.1928
38.0200 25.3166 0.1965
38.0400 25.3299 0.1914
38.0600 25.3431 0.1942
38.0800 25.3565 0.2007
38.1000 25.3698 0.1930
38.1200 25.3832 0.1945
38.1400 25.3964 0.1974
38.1600 25.4097 0.1874
38.1800 25.4231 0.1956
38.2000 25.4364 0.1993
38.2200 25.4498 0.1857
38.2400 25.4631 0.1978
38.2600 25.4765 0.1921
38.2800 25.4898 0.1852
38.3000 25.5032 0.1935
38.3200 25.5165 0.1959
38.3400 25.5299 0.1876
38.3600 25.5432 0.1917
38.3800 25.5565 0.1915
38.4000 25.5698 0.1928
38.4200 25.5831 0.1927
38.4400 25.5964 0.1893
38.4600 25.6098 0.1900
38.4800 25.6231 0.1898
38.5000 25.6364 0.1910
38.5200 25.6498 0.1869
38.5400 25.6632 0.1888
38.5600 25.6765 0.1934
38.5800 25.6898 0.1855
38.6000 25.7032 0.1884
38.6200 25.7165 0.1938
38.6400 25.7298 0.1843
38.6600 25.7432 0.1869
38.6800 25.7565 0.1943
38.7000 25.7698 0.1855
38.7200 25.7832 0.1867
38.7400 25.7965 0.1946
38.7600 25.8099 0.1805
38.7800 25.8232 0.1923
38.8000 25.8365 0.1943
38.8200 25.8499 0.1830
38.8400 25.8632 0.1897
38.8600 25.8765 0.1976
38.8800 25.8898 0.1848
38.9000 25.9031 0.1912
38.9200 25.9165 0.1911
38.9400 25.9298 0.1834
38.9600 25.9431 0.1916
38.9800 25.9564 0.1893
39.0000 25.9698 0.1853
39.0200 25.9832 0.1940
39.0400 25.9965 0.1845
39.0600 26.0098 0.1836
39.0800 26.0232 0.1908
39.1000 26.0365 0.1806
39.1200 26.0498 0.1864
39.1400 26.0632 0.1923
39.1600 26.0765 0.1797
39.1800 26.0898 0.1864
39.2000 26.1032 0.1895
39.2200 26.1165 0.1812
39.2400 26.1298 0.1851
39.2600 26.1431 0.1944
39.2800 26.1564 0.1764
39.3000 26.1698 0.1827
39.3200 26.1831 0.1918
39.3400 26.1965 0.1770
39.3600 26.2099 0.1838
39.3800 26.2232 0.1863
39.4000 26.2365 0.1757
39.4200 26.2499 0.1876
39.4400 26.2632 0.1860
39.4600 26.2765 0.1758
39.4800 26.2898 0.1886
39.5000 26.3031 0.1858
39.5200 26.3165 0.1756
39.5400 26.3298 0.1865
39.5600 26.3431 0.1812
39.5800 26.3564 0.1736
39.6000 26.3698 0.1888
39.6200 26.3831 0.1784
39.6400 26.3965 0.1738
39.6600 26.4098 0.1888
39.6800 26.4232 0.1759
39.7000 26.4365 0.1757
39.7200 26.4499 0.1877
39.7400 26.4632 0.1744
39.7600 26.4765 0.1766
39.7800 26.4898 0.1849
39.8000 26.5032 0.1757
39.8200 26.5166 0.1744
39.8400 26.5299 0.1858
39.8600 26.5432 0.1757
39.8800 26.5565 0.1749
39.9000 26.5698 0.1828
39.9200 26.5831 0.1776
39.9400 26.5964 0.1727
39.9600 26.6097 0.1845
39.9800 26.6231 0.1765
40.0000 26.6364 0.1731
40.0200 26.6498 0.1797
40.0400 26.6631 0.1763
40.0600 26.6765 0.1738
40.0800 26.6899 0.1779
40.1000 26.7032 0.1739
40.1200 26.7165 0.1723
40.1400 26.7298 0.1767
40.1600 26.7432 0.1799
40.1800 26.7565 0.1753
40.2000 26.7698 0.1720
40.2200 26.7831 0.1787
40.2400 26.7965 0.1760
40.2600 26.8098 0.1723
40.2800 26.8232 0.1754
40.3000 26.8365 0.1748
40.3200 26.8498 0.1725
40.3400 26.8631 0.1753
40.3600 26.8764 0.1746
40.3800 26.8898 0.1663
40.4000 26.9031 0.1752
40.4200 26.9165 0.1754
40.4400 26.9299 0.1680
40.4600 26.9432 0.1746
40.4800 26.9565 0.1687
40.5000 26.9698 0.1734
40.5200 26.9832 0.1710
40.5400 26.9965 0.1710
40.5600 27.0099 0.1671
40.5800 27.0232 0.1679
40.6000 27.0365 0.1749
40.6200 27.0498 0.1671
40.6400 27.0631 0.1676
40.6600 27.0765 0.1750
40.6800 27.0898 0.1641
40.7000 27.1031 0.1641
40.7200 27.1165 0.1714
40.7400 27.1298 0.1689
40.7600 27.1431 0.1696
40.7800 27.1565 0.1665
40.8000 27.1698 0.1654
40.8200 27.1832 0.1730
40.8400 27.1965 0.1641
40.8600 27.2098 0.1660
40.8800 27.2231 0.1697
40.9000 27.2365 0.1616
40.9200 27.2499 0.1652
40.9400 27.2632 0.1682
40.9600 27.2765 0.1665
40.9800 27.2899 0.1653
41.0000 27.3032 0.1720
41.0200 27.3165 0.1571
41.0400 27.3298 0.1670
41.0600 27.3431 0.1700
41.0800 27.3564 0.1568
41.1000 27.3697 0.1694
41.1200 27.3831 0.1658
41.1400 27.3964 0.1577
41.1600 27.4099 0.1690
41.1800 27.4232 0.1642
41.2000 27.4366 0.1575
41.2200 27.4499 0.1636
41.2400 27.4632 0.1702
41.2600 27.4766 0.1578
41.2800 27.4899 0.1641
41.3000 27.5032 0.1655
41.3200 27.5165 0.1582
41.3400 27.5298 0.1654
41.3600 27.5431 0.1633
41.3800 27.5564 0.1583
41.4000 27.5697 0.1644
41.4200 27.5831 0.1627
41.4400 27.5964 0.1566
41.4600 27.6098 0.1643
41.4800 27.6231 0.1707
41.5000 27.6365 0.1529
41.5200 27.6498 0.1608
41.5400 27.6632 0.1668
41.5600 27.6766 0.1536
41.5800 27.6899 0.1643
41.6000 27.7032 0.1650
41.6200 27.7165 0.1538
41.6400 27.7299 0.1633
41.6600 27.7431 0.1647
41.6800 27.7564 0.1542
41.7000 27.7698 0.1672
41.7200 27.7831 0.1650
41.7400 27.7965 0.1516
41.7600 27.8098 0.1706
41.7800 27.8231 0.1669
41.8000 27.8365 0.1546
41.8200 27.8498 0.1670
41.8400 27.8632 0.1572
41.8600 27.8765 0.1548
41.8800 27.8898 0.1653
41.9000 27.9032 0.1603
41.9200 27.9165 0.1532
41.9400 27.9299 0.1683
41.9600 27.9432 0.1577
41.9800 27.9565 0.1552
42.0000 27.9699 0.1651
42.0200 27.9832 0.1555
42.0400 27.9965 0.1565
42.0600 28.0098 0.1607
42.0800 28.0232 0.1561
42.1000 28.0365 0.1570
42.1200 28.0498 0.1558
42.1400 28.0631 0.1601
42.1600 28.0764 0.1563
42.1800 28.0898 0.1565
42.2000 28.1031 0.1563
42.2200 28.1165 0.1525
42.2400 28.1299 0.1562
42.2600 28.1432 0.1520
42.2800 28.1566 0.1493
42.3000 28.1699 0.1552
42.3200 28.1832 0.1574
42.3400 28.1965 0.1448
42.3600 28.2098 0.1548
42.3800 28.2231 0.1525
42.4000 28.2364 0.1501
42.4200 28.2498 0.1564
42.4400 28.2632 0.1518
42.4600 28.2765 0.1494
42.4800 28.2898 0.1531
42.5000 28.3031 0.1484
42.5200 28.3165 0.1487
42.5400 28.3298 0.1510
42.5600 28.3431 0.1527
42.5800 28.3564 0.1463
42.6000 28.3698 0.1511
42.6200 28.3832 0.1469
42.6400 28.3965 0.1481
42.6600 28.4098 0.1489
42.6800 28.4232 0.1516
42.7000 28.4366 0.1486
42.7200 28.4499 0.1457
42.7400 28.4632 0.1495
42.7600 28.4765 0.1517
42.7800 28.4898 0.1481
42.8000 28.5032 0.1478
42.8200 28.5165 0.1471
42.8400 28.5298 0.1468
42.8600 28.5431 0.1466
42.8800 28.5564 0.1472
42.9000 28.5698 0.1453
42.9200 28.5831 0.1478
42.9400 28.5965 0.1460
42.9600 28.6098 0.1459
42.9800 28.6232 0.1440
43.0000 28.6365 0.1441
43.0200 28.6498 0.1482
43.0400 28.6632 0.1451
43.0600 28.6765 0.1453
43.0800 28.6899 0.1466
43.1000 28.7032 0.1416
43.1200 28.7165 0.1454
43.1400 28.7298 0.1459
43.1600 28.7432 0.1384
43.1800 28.7565 0.1459
43.2000 28.7698 0.1463
43.2200 28.7831 0.1439
43.2400 28.7964 0.1451
43.2600 28.8097 0.1466
43.2800 28.8231 0.1355
43.3000 28.8364 0.1505
43.3200 28.8498 0.1465
43.3400 28.8632 0.1348
43.3600 28.8766 0.1480
43.3800 28.8899 0.1410
43.4000 28.9033 0.1371
43.4200 28.9166 0.1467
43.4400 28.9299 0.1411
43.4600 28.9432 0.1406
43.4800 28.9564 0.1479
43.5000 28.9697 0.1453
43.5200 28.9831 0.1411
43.5400 28.9964 0.1439
43.5600 29.0098 0.1394
43.5800 29.0231 0.1403
43.6000 29.0365 0.1445
43.6200 29.0498 0.1410
43.6400 29.0632 0.1403
43.6600 29.0765 0.1450
43.6800 29.0899 0.1414
43.7000 29.1032 0.1360
43.7200 29.1166 0.1428
43.7400 29.1299 0.1429
43.7600 29.1432 0.1323
43.7800 29.1565 0.1448
43.8000 29.1699 0.1421
43.8200 29.1832 0.1304
43.8400 29.1965 0.1448
43.8600 29.2098 0.1387
43.8800 29.2231 0.1336
43.9000 29.2365 0.1384
43.9200 29.2498 0.1379
43.9400 29.2631 0.1364
43.9600 29.2764 0.1389
43.9800 29.2898 0.1362
44.0000 29.3031 0.1358
44.0200 29.3165 0.1369
44.0400 29.3298 0.1390
44.0600 29.3432 0.1361
44.0800 29.3565 0.1325
44.1000 29.3698 0.1387
44.1200 29.3832 0.1410
44.1400 29.3965 0.1307
44.1600 29.4099 0.1396
44.1800 29.4232 0.1373
44.2000 29.4365 0.1324
44.2200 29.4498 0.1405
44.2400 29.4631 0.1312
44.2600 29.4765 0.1305
44.2800 29.4898 0.1383
44.3000 29.5031 0.1340
44.3200 29.5164 0.1334
44.3400 29.5298 0.1375
44.3600 29.5431 0.1312
44.3800 29.5565 0.1277
44.4000 29.5698 0.1426
44.4200 29.5832 0.1284
44.4400 29.5965 0.1341
44.4600 29.6099 0.1344
44.4800 29.6232 0.1290
44.5000 29.6365 0.1349
44.5200 29.6499 0.1344
44.5400 29.6632 0.1321
44.5600 29.6765 0.1303
44.5800 29.6898 0.1379
44.6000 29.7032 0.1261
44.6200 29.7165 0.1323
44.6400 29.7298 0.1336
44.6600 29.7431 0.1306
44.6800 29.7564 0.1306
44.7000 29.7698 0.1308
44.7200 29.7831 0.1270
44.7400 29.7965 0.1315
44.7600 29.8098 0.1305
44.7800 29.8232 0.1290
44.8000 29.8365 0.1294
44.8200 29.8498 0.1321
44.8400 29.8632 0.1313
44.8600 29.8765 0.1247
44.8800 29.8899 0.1326
44.9000 29.9032 0.1298
44.9200 29.9165 0.1239
44.9400 29.9298 0.1345
44.9600 29.9431 0.1337
44.9800 29.9565 0.1253
45.0000 29.9698 0.1297
45.0200 29.9831 0.1306
45.0400 29.9964 0.1254
45.0600 30.0098 0.1326
45.0800 30.0231 0.1213
45.1000 30.0365 0.1235
45.1200 30.0498 0.1323
45.1400 30.0632 0.1185
45.1600 30.0766 0.1259
45.1800 30.0899 0.1340
45.2000 30.1032 0.1171
45.2200 30.1165 0.1299
45.2400 30.1299 0.1333
45.2600 30.1432 0.1149
45.2800 30.1565 0.1275
45.3000 30.1698 0.1299
45.3200 30.1831 0.1178
45.3400 30.1965 0.1229
45.3600 30.2098 0.1276
45.3800 30.2231 0.1162
45.4000 30.2364 0.1194
45.4200 30.2498 0.1264
45.4400 30.2631 0.1208
45.4600 30.2765 0.1204
45.4800 30.2898 0.1256
45.5000 30.3032 0.1184
45.5200 30.3166 0.1173
45.5400 30.3299 0.1253
45.5600 30.3432 0.1195
45.5800 30.3565 0.1223
45.6000 30.3699 0.1243
45.6200 30.3832 0.1207
45.6400 30.3965 0.1224
45.6600 30.4098 0.1238
45.6800 30.4231 0.1213
45.7000 30.4364 0.1220
45.7200 30.4498 0.1270
45.7400 30.4631 0.1157
45.7600 30.4764 0.1198
45.7800 30.4898 0.1254
45.8000 30.5032 0.1180
45.8200 30.5165 0.1186
45.8400 30.5298 0.1287
45.8600 30.5432 0.1203
45.8800 30.5565 0.1165
45.9000 30.5698 0.1264
45.9200 30.5831 0.1234
45.9400 30.5965 0.1141
45.9600 30.6098 0.1246
45.9800 30.6232 0.1221
46.0000 30.6365 0.1147
46.0200 30.6498 0.1262
46.0400 30.6632 0.1205
46.0600 30.6765 0.1138
46.0800 30.6898 0.1212
46.1000 30.7031 0.1198
46.1200 30.7165 0.1160
46.1400 30.7298 0.1217
46.1600 30.7431 0.1126
46.1800 30.7564 0.1152
46.2000 30.7698 0.1235
46.2200 30.7831 0.1123
46.2400 30.7965 0.1159
46.2600 30.8098 0.1215
46.2800 30.8232 0.1088
46.3000 30.8365 0.1215
46.3200 30.8499 0.1176
46.3400 30.8632 0.1058
46.3600 30.8765 0.1268
46.3800 30.8898 0.1187
46.4000 30.9032 0.1069
46.4200 30.9165 0.1249
46.4400 30.9299 0.1180
46.4600 30.9431 0.1090
46.4800 30.9564 0.1261
46.5000 30.9698 0.1172
46.5200 30.9831 0.1075
46.5400 30.9964 0.1245
46.5600 31.0098 0.1107
46.5800 31.0232 0.1122
46.6000 31.0365 0.1220
46.6200 31.0499 0.1078
46.6400 31.0632 0.1093
46.6600 31.0765 0.1262
46.6800 31.0899 0.1075
46.7000 31.1032 0.1112
46.7200 31.1165 0.1168
46.7400 31.1298 0.1085
46.7600 31.1432 0.1116
46.7800 31.1565 0.1150
46.8000 31.1698 0.1093
46.8200 31.1831 0.1111
46.8400 31.1964 0.1118
46.8600 31.2098 0.1065
46.8800 31.2232 0.1128
46.9000 31.2365 0.1080
46.9200 31.2498 0.1088
46.9400 31.2631 0.1082
46.9600 31.2765 0.1085
46.9800 31.2898 0.1067
47.0000 31.3032 0.1078
47.0200 31.3165 0.1078
47.0400 31.3299 0.1094
47.0600 31.3432 0.1067
47.0800 31.3565 0.1080
47.1000 31.3698 0.1045
47.1200 31.3831 0.1100
47.1400 31.3965 0.1051
47.1600 31.4098 0.1067
47.1800 31.4231 0.1087
47.2000 31.4364 0.1075
47.2200 31.4497 0.1069
47.2400 31.4631 0.1022
47.2600 31.4765 0.1060
47.2800 31.4898 0.1097
47.3000 31.5032 0.1011
47.3200 31.5165 0.1079
47.3400 31.5299 0.1031
47.3600 31.5432 0.1050
47.3800 31.5565 0.1067
47.4000 31.5698 0.1032
47.4200 31.5832 0.1050
47.4400 31.5965 0.1080
47.4600 31.6098 0.1000
47.4800 31.6231 0.1072
47.5000 31.6365 0.1081
47.5200 31.6498 0.0950
47.5400 31.6631 0.1074
47.5600 31.6764 0.1040
47.5800 31.6898 0.0963
47.6000 31.7031 0.1040
47.6200 31.7165 0.1010
47.6400 31.7298 0.0971
47.6600 31.7432 0.1048
47.6800 31.7565 0.1020
47.7000 31.7699 0.0959
47.7200 31.7832 0.1047
47.7400 31.7965 0.1012
47.7600 31.8099 0.0932
47.7800 31.8232 0.1100
47.8000 31.8365 0.0962
47.8200 31.8498 0.1002
47.8400 31.8631 0.1060
47.8600 31.8765 0.0978
47.8800 31.8898 0.0954
47.9000 31.9031 0.1001
47.9200 31.9164 0.0984
47.9400 31.9298 0.0958
47.9600 31.9431 0.0996
47.9800 31.9565 0.1005
48.0000 31.9698 0.0972
48.0200 31.9831 0.1036
48.0400 31.9965 0.0920
48.0600 32.0098 0.0960
48.0800 32.0231 0.1025
48.1000 32.0364 0.0943
48.1200 32.0498 0.0941
48.1400 32.0632 0.0941
48.1600 32.0765 0.0950
48.1800 32.0898 0.0930
48.2000 32.1032 0.0994
48.2200 32.1165 0.0969
48.2400 32.1299 0.0906
48.2600 32.1431 0.0983
48.2800 32.1564 0.0941
48.3000 32.1697 0.0908
48.3200 32.1831 0.1017
48.3400 32.1964 0.0901
48.3600 32.2098 0.0863
48.3800 32.2231 0.1028
48.4000 32.2365 0.0932
48.4200 32.2499 0.0901
48.4400 32.2632 0.0999
48.4600 32.2765 0.0908
48.4800 32.2899 0.0908
48.5000 32.3032 0.1002
48.5200 32.3165 0.0886
48.5400 32.3298 0.0937
48.5600 32.3431 0.0993
48.5800 32.3565 0.0858
48.6000 32.3698 0.0948
48.6200 32.3831 0.1011
48.6400 32.3964 0.0906
48.6600 32.4098 0.0919
48.6800 32.4231 0.0945
48.7000 32.4365 0.0894
48.7200 32.4498 0.0911
48.7400 32.4632 0.0933
48.7600 32.4765 0.0909
48.7800 32.4899 0.0912
48.8000 32.5032 0.0914
48.8200 32.5166 0.0892
48.8400 32.5299 0.0951
48.8600 32.5432 0.0942
48.8800 32.5565 0.0919
48.9000 32.5698 0.0908
48.9200 32.5831 0.0934
48.9400 32.5965 0.0921
48.9600 32.6098 0.0875
48.9800 32.6231 0.0937
49.0000 32.6364 0.0945
49.0200 32.6498 0.0897
49.0400 32.6631 0.0915
49.0600 32.6765 0.0905
49.0800 32.6898 0.0914
49.1000 32.7031 0.0932
49.1200 32.7165 0.0925
49.1400 32.7299 0.0892
49.1600 32.7432 0.0951
49.1800 32.7565 0.0921
49.2000 32.7698 0.0860
49.2200 32.7832 0.0954
49.2400 32.7965 0.0933
49.2600 32.8098 0.0878
49.2800 32.8231 0.0939
49.3000 32.8365 0.0931
49.3200 32.8498 0.0830
49.3400 32.8631 0.0929
49.3600 32.8764 0.0962
49.3800 32.8897 0.0817
49.4000 32.9031 0.0953
49.4200 32.9165 0.0914
49.4400 32.9298 0.0761
49.4600 32.9432 0.0958
49.4800 32.9565 0.0931
49.5000 32.9699 0.0780
49.5200 32.9832 0.0959
49.5400 32.9965 0.0943
49.5600 33.0098 0.0713
49.5800 33.0232 0.0951
49.6000 33.0365 0.0904
49.6200 33.0498 0.0774
49.6400 33.0631 0.0971
49.6600 33.0765 0.0874
49.6800 33.0898 0.0784
49.7000 33.1031 0.0974
49.7200 33.1164 0.0871
49.7400 33.1298 0.0809
49.7600 33.1431 0.0924
49.7800 33.1564 0.0834
49.8000 33.1698 0.0790
49.8200 33.1831 0.0917
49.8400 33.1965 0.0818
49.8600 33.2099 0.0759
49.8800 33.2232 0.0898
49.9000 33.2365 0.0822
49.9200 33.2499 0.0813
49.9400 33.2632 0.0899
49.9600 33.2766 0.0835
49.9800 33.2899 0.0803
50.0000 33.3032 0.0867
50.0200 33.3165 0.0831
50.0400 33.3298 0.0822
50.0600 33.3431 0.0842
50.0800 33.3564 0.0835
50.1000 33.3698 0.0795
50.1200 33.3831 0.0834
50.1400 33.3965 0.0812
50.1600 33.4098 0.0771
50.1800 33.4231 0.0867
50.2000 33.4365 0.0821
50.2200 33.4498 0.0795
50.2400 33.4632 0.0817
50.2600 33.4765 0.0798
50.2800 33.4898 0.0837
50.3000 33.5032 0.0816
50.3200 33.5165 0.0815
50.3400 33.5298 0.0793
50.3600 33.5432 0.0796
50.3800 33.5565 0.0811
50.4000 33.5699 0.0804
50.4200 33.5831 0.0775
50.4400 33.5964 0.0854
50.4600 33.6097 0.0806
50.4800 33.6231 0.0748
50.5000 33.6364 0.0843
50.5200 33.6497 0.0805
50.5400 33.6631 0.0743
50.5600 33.6765 0.0835
50.5800 33.6899 0.0763
50.6000 33.7032 0.0734
50.6200 33.7166 0.0895
50.6400 33.7299 0.0774
50.6600 33.7432 0.0761
50.6800 33.7565 0.0819
50.7000 33.7698 0.0785
50.7200 33.7831 0.0811
50.7400 33.7964 0.0842
50.7600 33.8098 0.0741
50.7800 33.8231 0.0791
50.8000 33.8364 0.0828
50.8200 33.8498 0.0810
50.8400 33.8631 0.0764
50.8600 33.8765 0.0773
50.8800 33.8898 0.0739
50.9000 33.9032 0.0764
50.9200 33.9165 0.0809
50.9400 33.9299 0.0772
50.9600 33.9432 0.0709
50.9800 33.9565 0.0835
51.0000 33.9698 0.0745
51.0200 33.9832 0.0721
51.0400 33.9965 0.0802
51.0600 34.0098 0.0738
51.0800 34.0231 0.0726
51.1000 34.0365 0.0820
51.1200 34.0498 0.0777
51.1400 34.0631 0.0742
51.1600 34.0764 0.0797
51.1800 34.0898 0.0744
51.2000 34.1031 0.0752
51.2200 34.1165 0.0813
51.2400 34.1298 0.0727
51.2600 34.1432 0.0765
51.2800 34.1565 0.0754
51.3000 34.1699 0.0748
51.3200 34.1832 0.0725
51.3400 34.1965 0.0759
51.3600 34.2098 0.0749
51.3800 34.2232 0.0667
51.4000 34.2366 0.0790
51.4200 34.2499 0.0787
51.4400 34.2632 0.0672
51.4600 34.2765 0.0789
51.4800 34.2898 0.0776
51.5000 34.3031 0.0620
51.5200 34.3164 0.0853
51.5400 34.3297 0.0718
51.5600 34.3431 0.0644
51.5800 34.3565 0.0815
51.6000 34.3698 0.0695
51.6200 34.3831 0.0670
51.6400 34.3965 0.0820
51.6600 34.4099 0.0668
51.6800 34.4232 0.0676
51.7000 34.4366 0.0810
51.7200 34.4499 0.0646
51.7400 34.4632 0.0720
51.7600 34.4765 0.0756
51.7800 34.4898 0.0604
51.8000 34.5031 0.0730
51.8200 34.5164 0.0715
51.8400 34.5298 0.0653
51.8600 34.5431 0.0727
51.8800 34.5565 0.0626
51.9000 34.5698 0.0694
51.9200 34.5831 0.0760
51.9400 34.5965 0.0632
51.9600 34.6098 0.0678
51.9800 34.6231 0.0718
52.0000 34.6364 0.0686
52.0200 34.6498 0.0654
52.0400 34.6632 0.0687
52.0600 34.6765 0.0666
52.0800 34.6898 0.0644
52.1000 34.7032 0.0711
52.1200 34.7166 0.0617
52.1400 34.7299 0.0693
52.1600 34.7432 0.0669
52.1800 34.7565 0.0611
52.2000 34.7698 0.0698
52.2200 34.7831 0.0616
52.2400 34.7964 0.0623
52.2600 34.8097 0.0671
52.2800 34.8231 0.0661
52.3000 34.8364 0.0576
52.3200 34.8498 0.0662
52.3400 34.8631 0.0695
52.3600 34.8765 0.0605
52.3800 34.8899 0.0596
52.4000 34.9032 0.0633
52.4200 34.9165 0.0590
52.4400 34.9298 0.0637
52.4600 34.9432 0.0680
52.4800 34.9565 0.0553
52.5000 34.9699 0.0570
52.5200 34.9831 0.0671
52.5400 34.9965 0.0608
52.5600 35.0098 0.0607
52.5800 35.0231 0.0647
52.6000 35.0364 0.0534
52.6200 35.0498 0.0596
52.6400 35.0631 0.0647
52.6600 35.0765 0.0556
52.6800 35.0898 0.0631
52.7000 35.1031 0.0648
52.7200 35.1165 0.0516
52.7400 35.1299 0.0614
52.7600 35.1432 0.0684
52.7800 35.1565 0.0548
52.8000 35.1698 0.0603
52.8200 35.1832 0.0638
52.8400 35.1965 0.0552
52.8600 35.2098 0.0625
52.8800 35.2231 0.0625
52.9000 35.2364 0.0534
52.9200 35.2497 0.0674
52.9400 35.2631 0.0636
52.9600 35.2764 0.0544
52.9800 35.2898 0.0644
53.0000 35.3031 0.0576
53.0200 35.3165 0.0583
53.0400 35.3299 0.0629
53.0600 35.3432 0.0526
53.0800 35.3565 0.0591
53.1000 35.3699 0.0602
53.1200 35.3832 0.0520
53.1400 35.3965 0.0607
53.1600 35.4098 0.0614
53.1800 35.4231 0.0519
53.2000 35.4365 0.0602
53.2200 35.4498 0.0526
53.2400 35.4632 0.0571
53.2600 35.4765 0.0579
53.2800 35.4898 0.0511
53.3000 35.5032 0.0571
53.3200 35.5165 0.0559
53.3400 35.5298 0.0498
53.3600 35.5431 0.0608
53.3800 35.5564 0.0518
53.4000 35.5698 0.0564
53.4200 35.5831 0.0594
53.4400 35.5965 0.0526
53.4600 35.6098 0.0542
53.4800 35.6232 0.0561
53.5000 35.6365 0.0529
53.5200 35.6498 0.0583
53.5400 35.6632 0.0546
53.5600 35.6765 0.0527
53.5800 35.6899 0.0529
53.6000 35.7032 0.0570
53.6200 35.7165 0.0543
53.6400 35.7298 0.0546
53.6600 35.7432 0.0535
53.6800 35.7565 0.0500
53.7000 35.7698 0.0542
53.7200 35.7831 0.0528
53.7400 35.7964 0.0505
53.7600 35.8098 0.0571
53.7800 35.8231 0.0546
53.8000 35.8365 0.0456
53.8200 35.8498 0.0594
53.8400 35.8632 0.0499
53.8600 35.8765 0.0499
53.8800 35.8899 0.0533
53.9000 35.9032 0.0490
53.9200 35.9166 0.0506
53.9400 35.9299 0.0533
53.9600 35.9431 0.0500
53.9800 35.9565 0.0528
54.0000 35.9698 0.0527
54.0200 35.9831 0.0501
54.0400 35.9964 0.0512
54.0600 36.0098 0.0544
54.0800 36.0231 0.0457
54.1000 36.0365 0.0541
54.1200 36.0498 0.0496
54.1400 36.0631 0.0492
54.1600 36.0765 0.0516
54.1800 36.0898 0.0486
54.2000 36.1032 0.0496
54.2200 36.1165 0.0485
54.2400 36.1298 0.0502
54.2600 36.1432 0.0512
54.2800 36.1566 0.0455
54.3000 36.1699 0.0512
54.3200 36.1832 0.0511
54.3400 36.1965 0.0484
54.3600 36.2098 0.0477
54.3800 36.2232 0.0494
54.4000 36.2365 0.0491
54.4200 36.2498 0.0473
54.4400 36.2631 0.0502
54.4600 36.2764 0.0480
54.4800 36.2898 0.0459
54.5000 36.3031 0.0484
54.5200 36.3165 0.0458
54.5400 36.3299 0.0455
54.5600 36.3432 0.0509
54.5800 36.3565 0.0430
54.6000 36.3699 0.0434
54.6200 36.3832 0.0523
54.6400 36.3965 0.0458
54.6600 36.4098 0.0439
54.6800 36.4231 0.0511
54.7000 36.4364 0.0453
54.7200 36.4498 0.0457
54.7400 36.4631 0.0472
54.7600 36.4765 0.0434
54.7800 36.4898 0.0424
54.8000 36.5031 0.0534
54.8200 36.5165 0.0408
54.8400 36.5298 0.0464
54.8600 36.5431 0.0522
54.8800 36.5565 0.0365
54.9000 36.5698 0.0438
54.9200 36.5832 0.0477
54.9400 36.5965 0.0368
54.9600 36.6098 0.0461
54.9800 36.6232 0.0421
55.0000 36.6365 0.0359
55.0200 36.6499 0.0458
55.0400 36.6631 0.0446
55.0600 36.6764 0.0387
55.0800 36.6898 0.0437
55.1000 36.7031 0.0397
55.1200 36.7164 0.0370
55.1400 36.7298 0.0432
55.1600 36.7431 0.0420
55.1800 36.7564 0.0376
55.2000 36.7698 0.0396
55.2200 36.7831 0.0422
55.2400 36.7965 0.0399
55.2600 36.8098 0.0404
55.2800 36.8232 0.0389
55.3000 36.8365 0.0402
55.3200 36.8498 0.0358
55.3400 36.8631 0.0384
55.3600 36.8765 0.0398
55.3800 36.8899 0.0356
55.4000 36.9032 0.0402
55.4200 36.9165 0.0330
55.4400 36.9299 0.0353
55.4600 36.9432 0.0436
55.4800 36.9565 0.0334
55.5000 36.9698 0.0438
55.5200 36.9831 0.0370
55.5400 36.9964 0.0338
55.5600 37.0097 0.0418
55.5800 37.0231 0.0393
55.6000 37.0364 0.0338
55.6200 37.0498 0.0430
55.6400 37.0632 0.0357
55.6600 37.0766 0.0320
55.6800 37.0899 0.0437
55.7000 37.1032 0.0362
55.7200 37.1166 0.0337
55.7400 37.1299 0.0392
55.7600 37.1432 0.0347
55.7800 37.1565 0.0410
55.8000 37.1698 0.0353
55.8200 37.1832 0.0340
55.8400 37.1965 0.0404
55.8600 37.2098 0.0351
55.8800 37.2231 0.0297
55.9000 37.2364 0.0384
55.9200 37.2498 0.0382
55.9400 37.2631 0.0259
55.9600 37.2764 0.0325
55.9800 37.2898 0.0368
56.0000 37.3032 0.0325
56.0200 37.3165 0.0357
56.0400 37.3299 0.0281
56.0600 37.3432 0.0290
56.0800 37.3565 0.0418
56.1000 37.3699 0.0258
56.1200 37.3832 0.0297
56.1400 37.3965 0.0357
56.1600 37.4098 0.0327
56.1800 37.4231 0.0274
56.2000 37.4365 0.0315
56.2200 37.4498 0.0329
56.2400 37.4631 0.0319
56.2600 37.4764 0.0304
56.2800 37.4898 0.0224
56.3000 37.5031 0.0374
56.3200 37.5165 0.0332
56.3400 37.5298 0.0220
56.3600 37.5432 0.0312
56.3800 37.5565 0.0323
56.4000 37.5698 0.0320
56.4200 37.5832 0.0230
56.4400 37.5965 0.0276
56.4600 37.6099 0.0368
56.4800 37.6232 0.0279
56.5000 37.6365 0.0228
56.5200 37.6498 0.0308
56.5400 37.6632 0.0300
56.5600 37.6765 0.0300
56.5800 37.6898 0.0300
56.6000 37.7031 0.0220
56.6200 37.7164 0.0331
56.6400 37.7298 0.0309
56.6600 37.7431 0.0212
56.6800 37.7565 0.0275
56.7000 37.7698 0.0342
56.7200 37.7832 0.0231
56.7400 37.7965 0.0253
56.7600 37.8099 0.0329
56.7800 37.8232 0.0259
56.8000 37.8365 0.0243
56.8200 37.8499 0.0297
56.8400 37.8632 0.0247
56.8600 37.8765 0.0280
56.8800 37.8898 0.0323
56.9000 37.9031 0.0218
56.9200 37.9165 0.0250
56.9400 37.9298 0.0335
56.9600 37.9431 0.0191
56.9800 37.9565 0.0257
57.0000 37.9698 0.0305
57.0200 37.9831 0.0191
57.0400 37.9965 0.0274
57.0600 38.0098 0.0296
57.0800 38.0232 0.0143
57.1000 38.0366 0.0284
57.1200 38.0499 0.0284
57.1400 38.0632 0.0159
57.1600 38.0765 0.0294
57.1800 38.0899 0.0250
57.2000 38.1032 0.0169
57.2200 38.1165 0.0281
57.2400 38.1298 0.0193
57.2600 38.1431 0.0195
57.2800 38.1565 0.0314
57.3000 38.1698 0.0179
57.3200 38.1831 0.0166
57.3400 38.1964 0.0317
57.3600 38.2098 0.0186
57.3800 38.2231 0.0198
57.4000 38.2364 0.0315
57.4200 38.2498 0.0186
57.4400 38.2632 0.0220
57.4600 38.2765 0.0236
57.4800 38.2899 0.0117
57.5000 38.3032 0.0230
57.5200 38.3165 0.0290
57.5400 38.3299 0.0094
57.5600 38.3432 0.0250
57.5800 38.3565 0.0227
57.6000 38.3698 0.0125
57.6200 38.3832 0.0206
57.6400 38.3965 0.0192
57.6600 38.4098 0.0197
57.6800 38.4230 0.0215
57.7000 38.4364 0.0153
57.7200 38.4497 0.0175
57.7400 38.4631 0.0223
57.7600 38.4764 0.0188
57.7800 38.4898 0.0179
57.8000 38.5032 0.0175
57.8200 38.5166 0.0122
57.8400 38.5299 0.0176
57.8600 38.5432 0.0161
57.8800 38.5566 0.0170
57.9000 38.5699 0.0193
57.9200 38.5832 0.0116
57.9400 38.5965 0.0170
57.9600 38.6098 0.0199
57.9800 38.6231 0.0142
58.0000 38.6364 0.0121
58.0200 38.6498 0.0145
58.0400 38.6631 0.0138
58.0600 38.6765 0.0177
58.0800 38.6898 0.0170
58.1000 38.7032 0.0072
58.1200 38.7165 0.0171
58.1400 38.7298 0.0121
58.1600 38.7432 0.0103
58.1800 38.7566 0.0179
58.2000 38.7699 0.0062
58.2200 38.7832 0.0145
58.2400 38.7965 0.0158
58.2600 38.8099 0.0053
58.2800 38.8232 0.0153
58.3000 38.8365 0.0130
58.3200 38.8498 0.0042
58.3400 38.8632 0.0175
58.3600 38.8765 0.0113
58.3800 38.8898 0.0119
58.4000 38.9031 0.0182
58.4200 38.9164 0.0089
58.4400 38.9298 0.0094
58.4600 38.9432 0.0134
58.4800 38.9565 0.0045
58.5000 38.9698 0.0154
58.5200 38.9832 0.0105
58.5400 38.9965 0.0005
58.5600 39.0098 0.0162
58.5800 39.0232 0.0097
58.6000 39.0365 -0.0002
58.6200 39.0499 0.0167
58.6400 39.0632 0.0061
58.6600 39.0765 0.0041
58.6800 39.0898 0.0193
58.7000 39.1031 -0.0005
58.7200 39.1165 0.0076
58.7400 39.1298 0.0177
58.7600 39.1431 -0.0046
58.7800 39.1564 0.0074
58.8000 39.1698 0.0119
58.8200 39.1831 -0.0002
58.8400 39.1964 0.0058
58.8600 39.2098 0.0113
58.8800 39.2232 -0.0002
58.9000 39.2366 0.0057
58.9200 39.2499 0.0127
58.9400 39.2632 -0.0049
58.9600 39.2765 0.0100
58.9800 39.2899 0.0131
59.0000 39.3032 -0.0036
59.0200 39.3165 0.0083
59.0400 39.3298 0.0069
59.0600 39.3431 -0.0010
59.0800 39.3565 0.0043
59.1000 39.3698 0.0035
59.1200 39.3831 -0.0034
59.1400 39.3964 0.0049
59.1600 39.4098 0.0042
59.1800 39.4231 -0.0067
59.2000 39.4364 0.0093
59.2200 39.4498 0.0021
59.2400 39.4631 -0.0045
59.2600 39.4765 0.0095
59.2800 39.4898 0.0005
59.3000 39.5032 -0.0022
59.3200 39.5165 0.0082
59.3400 39.5299 -0.0006
59.3600 39.5432 -0.0019
59.3800 39.5565 0.0093
59.4000 39.5698 0.0041
59.4200 39.5831 -0.0016
59.4400 39.5965 0.0039
59.4600 39.6098 0.0000
59.4800 39.6231 -0.0026
59.5000 39.6364 0.0018
59.5200 39.6498 0.0028
59.5400 39.6631 -0.0008
59.5600 39.6764 -0.0024
59.5800 39.6898 0.0075
59.6000 39.7032 0.0007
59.6200 39.7166 -0.0037
59.6400 39.7299 0.0022
59.6600 39.7432 -0.0027
59.6800 39.7565 0.0000
59.7000 39.7699 0.0067
59.7200 39.7832 -0.0063
59.7400 39.7965 -0.0053
59.7600 39.8098 0.0069
59.7800 39.8231 -0.0039
59.8000 39.8365 -0.0066
59.8200 39.8498 0.0071
59.8400 39.8631 -0.0100
59.8600 39.8765 -0.0065
59.8800 39.8898 0.0007
59.9000 39.9031 -0.0135
59.9200 39.9164 0.0031
59.9400 39.9298 0.0002
59.9600 39.9432 -0.0175
59.9800 39.9566 -0.0024
60.0000 39.9699 -0.0008
60.0200 39.9832 -0.0094
60.0400 39.9965 -0.0066
60.0460 40.0004 -0.0177
