Raw Data
Time Displacement Force
(s) (mm) (N)
0.0000 0.0001 -0.2809
0.0200 0.0001 -0.2663
0.0400 0.0009 -0.2466
0.0600 0.0042 -0.2388
0.0800 0.0097 -0.2694
0.1000 0.0155 -0.2863
0.1200 0.0214 -0.2517
0.1400 0.0281 -0.2598
0.1600 0.0354 -0.2772
0.1800 0.0428 -0.2721
0.2000 0.0500 -0.2758
0.2200 0.0568 -0.2763
0.2400 0.0635 -0.2673
0.2600 0.0702 -0.2689
0.2800 0.0768 -0.2755
0.3000 0.0835 -0.2652
0.3200 0.0903 -0.2746
0.3400 0.0970 -0.2710
0.3600 0.1037 -0.2640
0.3800 0.1103 -0.2651
0.4000 0.1170 -0.2688
0.4200 0.1236 -0.2631
0.4400 0.1303 -0.2627
0.4600 0.1370 -0.2654
0.4800 0.1437 -0.2595
0.5000 0.1504 -0.2583
0.5200 0.1571 -0.2639
0.5400 0.1637 -0.2603
0.5600 0.1703 -0.2565
0.5800 0.1769 -0.2526
0.6000 0.1836 -0.2570
0.6200 0.1903 -0.2521
0.6400 0.1970 -0.2536
0.6600 0.2037 -0.2531
0.6800 0.2104 -0.2494
0.7000 0.2171 -0.2504
0.7200 0.2237 -0.2529
0.7400 0.2303 -0.2469
0.7600 0.2369 -0.2412
0.7800 0.2436 -0.2519
0.8000 0.2503 -0.2444
0.8200 0.2570 -0.2353
0.8400 0.2637 -0.2460
0.8600 0.2704 -0.2401
0.8800 0.2771 -0.2422
0.9000 0.2837 -0.2467
0.9200 0.2903 -0.2292
0.9400 0.2969 -0.2416
0.9600 0.3036 -0.2459
0.9800 0.3103 -0.2328
1.0000 0.3170 -0.2386
1.0200 0.3237 -0.2468
1.0400 0.3303 -0.2302
1.0600 0.3370 -0.2402
1.0800 0.3436 -0.2393
1.1000 0.3502 -0.2324
1.1200 0.3569 -0.2382
1.1400 0.3636 -0.2347
1.1600 0.3703 -0.2326
1.1800 0.3770 -0.2439
1.2000 0.3837 -0.2436
1.2200 0.3904 -0.2370
1.2400 0.3971 -0.2435
1.2600 0.4037 -0.2448
1.2800 0.4103 -0.2341
1.3000 0.4170 -0.2437
1.3200 0.4237 -0.2456
1.3400 0.4304 -0.2449
1.3600 0.4371 -0.2513
1.3800 0.4437 -0.2450
1.4000 0.4504 -0.2441
1.4200 0.4571 -0.2569
1.4400 0.4637 -0.2510
1.4600 0.4703 -0.2486
1.4800 0.4769 -0.2537
1.5000 0.4836 -0.2504
1.5200 0.4903 -0.2525
1.5400 0.4970 -0.2598
1.5600 0.5037 -0.2536
1.5800 0.5103 -0.2550
1.6000 0.5170 -0.2603
1.6200 0.5236 -0.2575
1.6400 0.5302 -0.2601
1.6600 0.5368 -0.2624
1.6800 0.5435 -0.2616
1.7000 0.5503 -0.2577
1.7200 0.5571 -0.2688
1.7400 0.5637 -0.2663
1.7600 0.5704 -0.2599
1.7800 0.5771 -0.2672
1.8000 0.5837 -0.2677
1.8200 0.5904 -0.2620
1.8400 0.5970 -0.2731
1.8600 0.6037 -0.2694
1.8800 0.6104 -0.2590
1.9000 0.6170 -0.2733
1.9200 0.6237 -0.2707
1.9400 0.6304 -0.2608
1.9600 0.6371 -0.2792
1.9800 0.6438 -0.2690
2.0000 0.6503 -0.2676
2.0200 0.6569 -0.2733
2.0400 0.6636 -0.2730
2.0600 0.6703 -0.2733
2.0800 0.6771 -0.2749
2.1000 0.6837 -0.2732
2.1200 0.6904 -0.2781
2.1400 0.6971 -0.2784
2.1600 0.7037 -0.2750
2.1800 0.7103 -0.2757
2.2000 0.7169 -0.2784
2.2200 0.7236 -0.2750
2.2400 0.7303 -0.2776
2.2600 0.7370 -0.2811
2.2800 0.7437 -0.2818
2.3000 0.7504 -0.2779
2.3200 0.7570 -0.2785
2.3400 0.7637 -0.2850
2.3600 0.7703 -0.2836
2.3800 0.7769 -0.2793
2.4000 0.7836 -0.2862
2.4200 0.7903 -0.2814
2.4400 0.7970 -0.2827
2.4600 0.8037 -0.2880
2.4800 0.8104 -0.2810
2.5000 0.8171 -0.2846
2.5200 0.8237 -0.2890
2.5400 0.8303 -0.2869
2.5600 0.8369 -0.2800
2.5800 0.8436 -0.2867
2.6000 0.8504 -0.2900
2.6200 0.8571 -0.2842
2.6400 0.8638 -0.2907
2.6600 0.8704 -0.2924
2.6800 0.8771 -0.2861
2.7000 0.8837 -0.2897
2.7200 0.8903 -0.2889
2.7400 0.8969 -0.2884
2.7600 0.9036 -0.2921
2.7800 0.9104 -0.2913
2.8000 0.9171 -0.2864
2.8200 0.9237 -0.2945
2.8400 0.9304 -0.2889
2.8600 0.9371 -0.2851
2.8800 0.9437 -0.2939
2.9000 0.9503 -0.2917
2.9200 0.9570 -0.2888
2.9400 0.9636 -0.2940
2.9600 0.9703 -0.2878
2.9800 0.9770 -0.2915
3.0000 0.9837 -0.2975
3.0200 0.9904 -0.2900
3.0400 0.9971 -0.2967
3.0600 1.0037 -0.2994
3.0800 1.0103 -0.2868
3.1000 1.0169 -0.2948
3.1200 1.0236 -0.2998
3.1400 1.0303 -0.2901
3.1600 1.0370 -0.2997
3.1800 1.0437 -0.3000
3.2000 1.0504 -0.2911
3.2200 1.0571 -0.3023
3.2400 1.0637 -0.2980
3.2600 1.0703 -0.2908
3.2800 1.0770 -0.3007
3.3000 1.0836 -0.2966
3.3200 1.0903 -0.2946
3.3400 1.0970 -0.3072
3.3600 1.1037 -0.2971
3.3800 1.1104 -0.2889
3.4000 1.1171 -0.3045
3.4200 1.1238 -0.2986
3.4400 1.1304 -0.2942
3.4600 1.1370 -0.3053
3.4800 1.1436 -0.2978
3.5000 1.1503 -0.2977
3.5200 1.1570 -0.3025
3.5400 1.1637 -0.2972
3.5600 1.1704 -0.3063
3.5800 1.1771 -0.3033
3.6000 1.1837 -0.2945
3.6200 1.1903 -0.3039
3.6400 1.1969 -0.3060
3.6600 1.2036 -0.2954
3.6800 1.2103 -0.3066
3.7000 1.2170 -0.3076
3.7200 1.2237 -0.3047
3.7400 1.2304 -0.3032
3.7600 1.2371 -0.3055
3.7800 1.2437 -0.3088
3.8000 1.2503 -0.3047
3.8200 1.2570 -0.3015
3.8400 1.2636 -0.3118
3.8600 1.2703 -0.3058
3.8800 1.2770 -0.3025
3.9000 1.2837 -0.3059
3.9200 1.2904 -0.3060
3.9400 1.2970 -0.3094
3.9600 1.3037 -0.3073
3.9800 1.3104 -0.3059
4.0000 1.3170 -0.3042
4.0200 1.3236 -0.3056
4.0400 1.3303 -0.3105
4.0600 1.3370 -0.3130
4.0800 1.3437 -0.3036
4.1000 1.3504 -0.3093
4.1200 1.3571 -0.3102
4.1400 1.3637 -0.3074
4.1600 1.3703 -0.3136
4.1800 1.3770 -0.3098
4.2000 1.3836 -0.3039
4.2200 1.3903 -0.3118
4.2400 1.3970 -0.3147
4.2600 1.4037 -0.3092
4.2800 1.4104 -0.3149
4.3000 1.4171 -0.3113
4.3200 1.4238 -0.3006
4.3400 1.4304 -0.3216
4.3600 1.4370 -0.3136
4.3800 1.4436 -0.3035
4.4000 1.4503 -0.3134
4.4200 1.4570 -0.3171
4.4400 1.4637 -0.3078
4.4600 1.4704 -0.3170
4.4800 1.4770 -0.3130
4.5000 1.4837 -0.3086
4.5200 1.4904 -0.3221
4.5400 1.4970 -0.3112
4.5600 1.5036 -0.3118
4.5800 1.5103 -0.3227
4.6000 1.5170 -0.3100
4.6200 1.5237 -0.3097
4.6400 1.5304 -0.3245
4.6600 1.5371 -0.3183
4.6800 1.5437 -0.3118
4.7000 1.5503 -0.3235
4.7200 1.5569 -0.3154
4.7400 1.5636 -0.3161
4.7600 1.5703 -0.3267
4.7800 1.5771 -0.3169
4.8000 1.5838 -0.3135
4.8200 1.5904 -0.3275
4.8400 1.5971 -0.3230
4.8600 1.6038 -0.3153
4.8800 1.6104 -0.3242
4.9000 1.6170 -0.3248
4.9200 1.6236 -0.3188
4.9400 1.6303 -0.3263
4.9600 1.6370 -0.3259
4.9800 1.6437 -0.3144
5.0000 1.6504 -0.3315
5.0200 1.6571 -0.3244
5.0400 1.6638 -0.3180
5.0600 1.6704 -0.3340
5.0800 1.6770 -0.3283
5.1000 1.6836 -0.3150
5.1200 1.6903 -0.3355
5.1400 1.6970 -0.3328
5.1600 1.7037 -0.3182
5.1800 1.7104 -0.3364
5.2000 1.7171 -0.3342
5.2200 1.7238 -0.3156
5.2400 1.7304 -0.3375
5.2600 1.7369 -0.3354
5.2800 1.7436 -0.3223
5.3000 1.7503 -0.3363
5.3200 1.7570 -0.3345
5.3400 1.7637 -0.3234
5.3600 1.7704 -0.3323
5.3800 1.7770 -0.3376
5.4000 1.7837 -0.3309
5.4200 1.7903 -0.3376
5.4400 1.7970 -0.3326
5.4600 1.8036 -0.3293
5.4800 1.8103 -0.3440
5.5000 1.8170 -0.3336
5.5200 1.8237 -0.3337
5.5400 1.8304 -0.3403
5.5600 1.8371 -0.3366
5.5800 1.8438 -0.3338
5.6000 1.8504 -0.3391
5.6200 1.8570 -0.3404
5.6400 1.8636 -0.3346
5.6600 1.8703 -0.3400
5.6800 1.8770 -0.3371
5.7000 1.8837 -0.3385
5.7200 1.8904 -0.3406
5.7400 1.8971 -0.3366
5.7600 1.9037 -0.3407
5.7800 1.9104 -0.3473
5.8000 1.9170 -0.3388
5.8200 1.9236 -0.3359
5.8400 1.9303 -0.3431
5.8600 1.9370 -0.3459
5.8800 1.9437 -0.3378
5.9000 1.9503 -0.3429
5.9200 1.9570 -0.3476
5.9400 1.9637 -0.3414
5.9600 1.9704 -0.3435
5.9800 1.9770 -0.3476
6.0000 1.9836 -0.3396
6.0200 1.9903 -0.3431
6.0400 1.9970 -0.3485
6.0600 2.0037 -0.3400
6.0800 2.0104 -0.3471
6.1000 2.0171 -0.3507
6.1200 2.0238 -0.3412
6.1400 2.0304 -0.3540
6.1600 2.0370 -0.3505
6.1800 2.0436 -0.3353
6.2000 2.0503 -0.3495
6.2200 2.0570 -0.3526
6.2400 2.0637 -0.3417
6.2600 2.0704 -0.3533
6.2800 2.0771 -0.3505
6.3000 2.0837 -0.3450
6.3200 2.0904 -0.3591
6.3400 2.0970 -0.3512
6.3600 2.1036 -0.3443
6.3800 2.1103 -0.3583
6.4000 2.1170 -0.3483
6.4200 2.1237 -0.3484
6.4400 2.1304 -0.3592
6.4600 2.1371 -0.3460
6.4800 2.1438 -0.3550
6.5000 2.1504 -0.3581
6.5200 2.1570 -0.3488
6.5400 2.1636 -0.3558
6.5600 2.1703 -0.3566
6.5800 2.1770 -0.3443
6.6000 2.1837 -0.3583
6.6200 2.1904 -0.3563
6.6400 2.1971 -0.3514
6.6600 2.2038 -0.3592
6.6800 2.2104 -0.3527
6.7000 2.2170 -0.3554
6.7200 2.2236 -0.3595
6.7400 2.2302 -0.3515
6.7600 2.2370 -0.3588
6.7800 2.2437 -0.3575
6.8000 2.2504 -0.3531
6.8200 2.2571 -0.3636
6.8400 2.2637 -0.3574
6.8600 2.2704 -0.3589
6.8800 2.2770 -0.3610
6.9000 2.2836 -0.3519
6.9200 2.2903 -0.3590
6.9400 2.2970 -0.3611
6.9600 2.3037 -0.3607
6.9800 2.3104 -0.3565
7.0000 2.3171 -0.3588
7.0200 2.3237 -0.3567
7.0400 2.3304 -0.3598
7.0600 2.3370 -0.3616
7.0800 2.3436 -0.3574
7.1000 2.3503 -0.3578
7.1200 2.3570 -0.3611
7.1400 2.3637 -0.3623
7.1600 2.3704 -0.3593
7.1800 2.3771 -0.3660
7.2000 2.3838 -0.3618
7.2200 2.3904 -0.3568
7.2400 2.3970 -0.3665
7.2600 2.4036 -0.3660
7.2800 2.4103 -0.3548
7.3000 2.4170 -0.3661
7.3200 2.4237 -0.3649
7.3400 2.4304 -0.3600
7.3600 2.4371 -0.3665
7.3800 2.4437 -0.3687
7.4000 2.4504 -0.3598
7.4200 2.4570 -0.3702
7.4400 2.4636 -0.3686
7.4600 2.4703 -0.3604
7.4800 2.4770 -0.3679
7.5000 2.4837 -0.3708
7.5200 2.4903 -0.3626
7.5400 2.4970 -0.3661
7.5600 2.5037 -0.3673
7.5800 2.5104 -0.3631
7.6000 2.5170 -0.3718
7.6200 2.5236 -0.3713
7.6400 2.5303 -0.3592
7.6600 2.5370 -0.3717
7.6800 2.5437 -0.3668
7.7000 2.5504 -0.3636
7.7200 2.5571 -0.3766
7.7400 2.5638 -0.3675
7.7600 2.5704 -0.3633
7.7800 2.5770 -0.3740
7.8000 2.5837 -0.3701
7.8200 2.5903 -0.3662
7.8400 2.5970 -0.3725
7.8600 2.6037 -0.3729
7.8800 2.6104 -0.3630
7.9000 2.6171 -0.3717
7.9200 2.6237 -0.3723
7.9400 2.6304 -0.3653
7.9600 2.6370 -0.3766
7.9800 2.6436 -0.3748
8.0000 2.6503 -0.3668
8.0200 2.6570 -0.3719
8.0400 2.6637 -0.3790
8.0600 2.6704 -0.3661
8.0800 2.6770 -0.3711
8.1000 2.6837 -0.3754
8.1200 2.6904 -0.3723
8.1400 2.6970 -0.3758
8.1600 2.7036 -0.3732
8.1800 2.7102 -0.3679
8.2000 2.7169 -0.3748
8.2200 2.7237 -0.3789
8.2400 2.7304 -0.3717
8.2600 2.7371 -0.3733
8.2800 2.7437 -0.3817
8.3000 2.7504 -0.3725
8.3200 2.7570 -0.3777
8.3400 2.7636 -0.3780
8.3600 2.7703 -0.3751
8.3800 2.7770 -0.3775
8.4000 2.7837 -0.3779
8.4200 2.7904 -0.3775
8.4400 2.7970 -0.3797
8.4600 2.8037 -0.3774
8.4800 2.8104 -0.3747
8.5000 2.8170 -0.3790
8.5200 2.8237 -0.3792
8.5400 2.8303 -0.3749
8.5600 2.8370 -0.3746
8.5800 2.8437 -0.3817
8.6000 2.8504 -0.3822
8.6200 2.8571 -0.3764
8.6400 2.8638 -0.3818
8.6600 2.8704 -0.3777
8.6800 2.8770 -0.3805
8.7000 2.8836 -0.3871
8.7200 2.8903 -0.3780
8.7400 2.8970 -0.3761
8.7600 2.9037 -0.3848
8.7800 2.9104 -0.3784
8.8000 2.9170 -0.3732
8.8200 2.9237 -0.3911
8.8400 2.9304 -0.3830
8.8600 2.9370 -0.3738
8.8800 2.9436 -0.3837
8.9000 2.9502 -0.3794
8.9200 2.9569 -0.3800
8.9400 2.9636 -0.3924
8.9600 2.9703 -0.3748
8.9800 2.9770 -0.3753
9.0000 2.9837 -0.3900
9.0200 2.9904 -0.3830
9.0400 2.9970 -0.3748
9.0600 3.0036 -0.3922
9.0800 3.0103 -0.3794
9.1000 3.0170 -0.3778
9.1200 3.0237 -0.3921
9.1400 3.0304 -0.3777
9.1600 3.0371 -0.3776
9.1800 3.0438 -0.3906
9.2000 3.0504 -0.3819
9.2200 3.0571 -0.3815
9.2400 3.0637 -0.3914
9.2600 3.0703 -0.3839
9.2800 3.0770 -0.3825
9.3000 3.0837 -0.3934
9.3200 3.0904 -0.3801
9.3400 3.0971 -0.3812
9.3600 3.1038 -0.3994
9.3800 3.1104 -0.3825
9.4000 3.1170 -0.3798
9.4200 3.1236 -0.3976
9.4400 3.1303 -0.3827
9.4600 3.1370 -0.3776
9.4800 3.1437 -0.3999
9.5000 3.1504 -0.3861
9.5200 3.1570 -0.3832
9.5400 3.1637 -0.3946
9.5600 3.1704 -0.3815
9.5800 3.1770 -0.3868
9.6000 3.1836 -0.3952
9.6200 3.1903 -0.3756
9.6400 3.1970 -0.3955
9.6600 3.2037 -0.4003
9.6800 3.2103 -0.3742
9.7000 3.2170 -0.3925
9.7200 3.2237 -0.4031
9.7400 3.2304 -0.3815
9.7600 3.2370 -0.3900
9.7800 3.2436 -0.3922
9.8000 3.2503 -0.3840
9.8200 3.2570 -0.3927
9.8400 3.2637 -0.3907
9.8600 3.2704 -0.3869
9.8800 3.2771 -0.3973
9.9000 3.2838 -0.3922
9.9200 3.2904 -0.3919
9.9400 3.2970 -0.3937
9.9600 3.3036 -0.3945
9.9800 3.3103 -0.3971
10.0000 3.3170 -0.3936
10.0200 3.3237 -0.3942
10.0400 3.3304 -0.3976
10.0600 3.3371 -0.3959
10.0800 3.3437 -0.3946
10.1000 3.3504 -0.3951
10.1200 3.3570 -0.3965
10.1400 3.3636 -0.3962
10.1600 3.3703 -0.3946
10.1800 3.3769 -0.3935
10.2000 3.3836 -0.4011
10.2200 3.3903 -0.3992
10.2400 3.3970 -0.3932
10.2600 3.4037 -0.4052
10.2800 3.4104 -0.3978
10.3000 3.4170 -0.3932
10.3200 3.4236 -0.4014
10.3400 3.4302 -0.4000
10.3600 3.4369 -0.3951
10.3800 3.4437 -0.4008
10.4000 3.4504 -0.3988
10.4200 3.4570 -0.3990
10.4400 3.4637 -0.4011
10.4600 3.4704 -0.4007
10.4800 3.4771 -0.4016
10.5000 3.4837 -0.4037
10.5200 3.4903 -0.3979
10.5400 3.4970 -0.4027
10.5600 3.5037 -0.4049
10.5800 3.5104 -0.4019
10.6000 3.5170 -0.4021
10.6200 3.5237 -0.4021
10.6400 3.5304 -0.4018
10.6600 3.5371 -0.4067
10.6800 3.5437 -0.4040
10.7000 3.5503 -0.4032
10.7200 3.5570 -0.4054
10.7400 3.5637 -0.4065
10.7600 3.5704 -0.4069
10.7800 3.5771 -0.4048
10.8000 3.5838 -0.4025
10.8200 3.5904 -0.4028
10.8400 3.5971 -0.4116
10.8600 3.6036 -0.4060
10.8800 3.6103 -0.4034
10.9000 3.6170 -0.4113
10.9200 3.6237 -0.4093
10.9400 3.6304 -0.4059
10.9600 3.6371 -0.4090
10.9800 3.6437 -0.4139
11.0000 3.6504 -0.4035
11.0200 3.6570 -0.4059
11.0400 3.6636 -0.4158
11.0600 3.6702 -0.4042
11.0800 3.6769 -0.4064
11.1000 3.6836 -0.4120
11.1200 3.6903 -0.4119
11.1400 3.6970 -0.4071
11.1600 3.7037 -0.4092
11.1800 3.7104 -0.4077
11.2000 3.7170 -0.4143
11.2200 3.7236 -0.4067
11.2400 3.7302 -0.4061
11.2600 3.7369 -0.4140
11.2800 3.7437 -0.4102
11.3000 3.7504 -0.4089
11.3200 3.7571 -0.4128
11.3400 3.7638 -0.4133
11.3600 3.7705 -0.4097
11.3800 3.7771 -0.4170
11.4000 3.7837 -0.4100
11.4200 3.7903 -0.4068
11.4400 3.7970 -0.4151
11.4600 3.8037 -0.4118
11.4800 3.8104 -0.4141
11.5000 3.8171 -0.4164
11.5200 3.8238 -0.4079
11.5400 3.8304 -0.4122
11.5600 3.8371 -0.4185
11.5800 3.8437 -0.4121
11.6000 3.8503 -0.4149
11.6200 3.8569 -0.4191
11.6400 3.8637 -0.4078
11.6600 3.8703 -0.4152
11.6800 3.8770 -0.4219
11.7000 3.8837 -0.4113
11.7200 3.8904 -0.4159
11.7400 3.8970 -0.4154
11.7600 3.9036 -0.4123
11.7800 3.9102 -0.4208
11.8000 3.9169 -0.4155
11.8200 3.9236 -0.4126
11.8400 3.9303 -0.4170
11.8600 3.9370 -0.4222
11.8800 3.9437 -0.4166
11.9000 3.9504 -0.4164
11.9200 3.9570 -0.4191
11.9400 3.9637 -0.4194
11.9600 3.9703 -0.4126
11.9800 3.9770 -0.4200
12.0000 3.9837 -0.4193
12.0200 3.9904 -0.4171
12.0400 3.9971 -0.4219
12.0600 4.0037 -0.4209
12.0800 4.0104 -0.4170
12.1000 4.0171 -0.4225
12.1200 4.0237 -0.4155
12.1400 4.0303 -0.4168
12.1600 4.0370 -0.4246
12.1800 4.0437 -0.4240
12.2000 4.0504 -0.4135
12.2200 4.0571 -0.4233
12.2400 4.0638 -0.4253
12.2600 4.0704 -0.4120
12.2800 4.0771 -0.4259
12.3000 4.0837 -0.4224
12.3200 4.0903 -0.4076
12.3400 4.0969 -0.4228
12.3600 4.1036 -0.4244
12.3800 4.1103 -0.4153
12.4000 4.1170 -0.4225
12.4200 4.1237 -0.4198
12.4400 4.1304 -0.4186
12.4600 4.1371 -0.4252
12.4800 4.1437 -0.4193
12.5000 4.1502 -0.4160
12.5200 4.1569 -0.4240
12.5400 4.1636 -0.4206
12.5600 4.1703 -0.4200
12.5800 4.1770 -0.4236
12.6000 4.1837 -0.4225
12.6200 4.1904 -0.4221
12.6400 4.1971 -0.4208
12.6600 4.2037 -0.4196
12.6800 4.2103 -0.4255
12.7000 4.2170 -0.4220
12.7200 4.2237 -0.4214
12.7400 4.2304 -0.4245
12.7600 4.2371 -0.4240
12.7800 4.2438 -0.4225
12.8000 4.2504 -0.4231
12.8200 4.2571 -0.4289
12.8400 4.2637 -0.4263
12.8600 4.2703 -0.4166
12.8800 4.2769 -0.4237
12.9000 4.2837 -0.4291
12.9200 4.2904 -0.4219
12.9400 4.2971 -0.4227
12.9600 4.3038 -0.4293
12.9800 4.3104 -0.4197
13.0000 4.3171 -0.4286
13.0200 4.3237 -0.4280
13.0400 4.3303 -0.4134
13.0600 4.3370 -0.4283
13.0800 4.3437 -0.4307
13.1000 4.3504 -0.4206
13.1200 4.3571 -0.4315
13.1400 4.3637 -0.4277
13.1600 4.3704 -0.4150
13.1800 4.3771 -0.4324
13.2000 4.3837 -0.4329
13.2200 4.3903 -0.4206
13.2400 4.3969 -0.4344
13.2600 4.4036 -0.4213
13.2800 4.4103 -0.4123
13.3000 4.4170 -0.4447
13.3200 4.4237 -0.4269
13.3400 4.4304 -0.4150
13.3600 4.4371 -0.4370
13.3800 4.4437 -0.4263
13.4000 4.4503 -0.4240
13.4200 4.4569 -0.4392
13.4400 4.4636 -0.4223
13.4600 4.4704 -0.4238
13.4800 4.4771 -0.4342
13.5000 4.4838 -0.4257
13.5200 4.4905 -0.4303
13.5400 4.4971 -0.4343
13.5600 4.5037 -0.4207
13.5800 4.5103 -0.4286
13.6000 4.5170 -0.4327
13.6200 4.5237 -0.4288
13.6400 4.5304 -0.4304
13.6600 4.5371 -0.4264
13.6800 4.5437 -0.4289
13.7000 4.5504 -0.4344
13.7200 4.5570 -0.4307
13.7400 4.5637 -0.4267
13.7600 4.5703 -0.4310
13.7800 4.5769 -0.4272
13.8000 4.5836 -0.4309
13.8200 4.5903 -0.4405
13.8400 4.5970 -0.4287
13.8600 4.6037 -0.4272
13.8800 4.6104 -0.4365
13.9000 4.6171 -0.4317
13.9200 4.6237 -0.4335
13.9400 4.6303 -0.4365
13.9600 4.6369 -0.4295
13.9800 4.6436 -0.4278
14.0000 4.6503 -0.4346
14.0200 4.6570 -0.4370
14.0400 4.6637 -0.4348
14.0600 4.6704 -0.4292
14.0800 4.6771 -0.4347
14.1000 4.6837 -0.4359
14.1200 4.6903 -0.4343
14.1400 4.6969 -0.4357
14.1600 4.7036 -0.4332
14.1800 4.7104 -0.4327
14.2000 4.7171 -0.4409
14.2200 4.7237 -0.4347
14.2400 4.7304 -0.4301
14.2600 4.7371 -0.4367
14.2800 4.7437 -0.4345
14.3000 4.7503 -0.4336
14.3200 4.7570 -0.4424
14.3400 4.7636 -0.4322
14.3600 4.7704 -0.4348
14.3800 4.7771 -0.4424
14.4000 4.7838 -0.4299
14.4200 4.7904 -0.4434
14.4400 4.7971 -0.4463
14.4600 4.8037 -0.4251
14.4800 4.8103 -0.4411
14.5000 4.8169 -0.4452
14.5200 4.8236 -0.4264
14.5400 4.8303 -0.4420
14.5600 4.8370 -0.4449
14.5800 4.8437 -0.4277
14.6000 4.8504 -0.4437
14.6200 4.8571 -0.4407
14.6400 4.8637 -0.4327
14.6600 4.8703 -0.4428
14.6800 4.8769 -0.4344
14.7000 4.8836 -0.4347
14.7200 4.8903 -0.4453
14.7400 4.8970 -0.4354
14.7600 4.9037 -0.4328
14.7800 4.9103 -0.4451
14.8000 4.9170 -0.4378
14.8200 4.9237 -0.4397
14.8400 4.9303 -0.4426
14.8600 4.9370 -0.4342
14.8800 4.9436 -0.4391
14.9000 4.9503 -0.4415
14.9200 4.9570 -0.4364
14.9400 4.9637 -0.4463
14.9600 4.9704 -0.4394
14.9800 4.9771 -0.4396
15.0000 4.9837 -0.4424
15.0200 4.9903 -0.4396
15.0400 4.9969 -0.4380
15.0600 5.0036 -0.4419
15.0800 5.0103 -0.4395
15.1000 5.0170 -0.4370
15.1200 5.0237 -0.4475
15.1400 5.0304 -0.4435
15.1600 5.0371 -0.4398
15.1800 5.0437 -0.4457
15.2000 5.0503 -0.4397
15.2200 5.0570 -0.4405
15.2400 5.0636 -0.4449
15.2600 5.0703 -0.4448
15.2800 5.0770 -0.4385
15.3000 5.0837 -0.4443
15.3200 5.0903 -0.4433
15.3400 5.0971 -0.4417
15.3600 5.1037 -0.4480
15.3800 5.1103 -0.4409
15.4000 5.1169 -0.4400
15.4200 5.1236 -0.4452
15.4400 5.1303 -0.4399
15.4600 5.1370 -0.4460
15.4800 5.1437 -0.4502
15.5000 5.1504 -0.4402
15.5200 5.1570 -0.4424
15.5400 5.1637 -0.4474
15.5600 5.1703 -0.4474
15.5800 5.1769 -0.4424
15.6000 5.1836 -0.4446
15.6200 5.1903 -0.4449
15.6400 5.1971 -0.4464
15.6600 5.2037 -0.4469
15.6800 5.2104 -0.4479
15.7000 5.2171 -0.4467
15.7200 5.2238 -0.4506
15.7400 5.2304 -0.4512
15.7600 5.2370 -0.4428
15.7800 5.2437 -0.4457
15.8000 5.2504 -0.4559
15.8200 5.2571 -0.4424
15.8400 5.2638 -0.4448
15.8600 5.2704 -0.4522
15.8800 5.2771 -0.4465
15.9000 5.2837 -0.4478
15.9200 5.2903 -0.4554
15.9400 5.2969 -0.4486
15.9600 5.3036 -0.4497
15.9800 5.3103 -0.4475
16.0000 5.3170 -0.4473
16.0200 5.3237 -0.4525
16.0400 5.3304 -0.4518
16.0600 5.3370 -0.4486
16.0800 5.3437 -0.4537
16.1000 5.3502 -0.4511
16.1200 5.3569 -0.4458
16.1400 5.3636 -0.4535
16.1600 5.3704 -0.4507
16.1800 5.3771 -0.4480
16.2000 5.3837 -0.4531
16.2200 5.3904 -0.4495
16.2400 5.3971 -0.4468
16.2600 5.4037 -0.4564
16.2800 5.4104 -0.4498
16.3000 5.4170 -0.4474
16.3200 5.4237 -0.4546
16.3400 5.4304 -0.4489
16.3600 5.4370 -0.4515
16.3800 5.4437 -0.4552
16.4000 5.4504 -0.4515
16.4200 5.4571 -0.4528
16.4400 5.4638 -0.4556
16.4600 5.4703 -0.4514
16.4800 5.4769 -0.4476
16.5000 5.4836 -0.4574
16.5200 5.4903 -0.4528
16.5400 5.4970 -0.4494
16.5600 5.5037 -0.4521
16.5800 5.5104 -0.4552
16.6000 5.5171 -0.4496
16.6200 5.5237 -0.4537
16.6400 5.5303 -0.4538
16.6600 5.5369 -0.4478
16.6800 5.5436 -0.4531
16.7000 5.5503 -0.4536
16.7200 5.5570 -0.4514
16.7400 5.5637 -0.4548
16.7600 5.5703 -0.4514
16.7800 5.5770 -0.4469
16.8000 5.5837 -0.4537
16.8200 5.5903 -0.4588
16.8400 5.5969 -0.4452
16.8600 5.6036 -0.4473
16.8800 5.6103 -0.4608
16.9000 5.6169 -0.4477
16.9200 5.6236 -0.4478
16.9400 5.6303 -0.4563
16.9600 5.6371 -0.4482
16.9800 5.6438 -0.4537
17.0000 5.6504 -0.4563
17.0200 5.6570 -0.4481
17.0400 5.6636 -0.4508
17.0600 5.6704 -0.4544
17.0800 5.6771 -0.4518
17.1000 5.6838 -0.4496
17.1200 5.6904 -0.4626
17.1400 5.6971 -0.4472
17.1600 5.7037 -0.4499
17.1800 5.7104 -0.4591
17.2000 5.7170 -0.4484
17.2200 5.7236 -0.4567
17.2400 5.7303 -0.4612
17.2600 5.7371 -0.4472
17.2800 5.7437 -0.4567
17.3000 5.7504 -0.4593
17.3200 5.7571 -0.4479
17.3400 5.7638 -0.4580
17.3600 5.7704 -0.4607
17.3800 5.7770 -0.4474
17.4000 5.7836 -0.4582
17.4200 5.7903 -0.4575
17.4400 5.7970 -0.4518
17.4600 5.8037 -0.4613
17.4800 5.8104 -0.4573
17.5000 5.8171 -0.4469
17.5200 5.8237 -0.4658
17.5400 5.8303 -0.4645
17.5600 5.8369 -0.4471
17.5800 5.8436 -0.4579
17.6000 5.8503 -0.4611
17.6200 5.8570 -0.4556
17.6400 5.8637 -0.4636
17.6600 5.8704 -0.4567
17.6800 5.8770 -0.4543
17.7000 5.8837 -0.4643
17.7200 5.8903 -0.4584
17.7400 5.8969 -0.4568
17.7600 5.9036 -0.4616
17.7800 5.9103 -0.4576
17.8000 5.9170 -0.4592
17.8200 5.9237 -0.4675
17.8400 5.9304 -0.4585
17.8600 5.9371 -0.4486
17.8800 5.9438 -0.4674
17.9000 5.9504 -0.4727
17.9200 5.9570 -0.4559
17.9400 5.9636 -0.4576
17.9600 5.9703 -0.4629
17.9800 5.9770 -0.4654
18.0000 5.9838 -0.4644
18.0200 5.9904 -0.4620
18.0400 5.9971 -0.4525
18.0600 6.0037 -0.4728
18.0800 6.0103 -0.4685
18.1000 6.0169 -0.4485
18.1200 6.0236 -0.4603
18.1400 6.0303 -0.4695
18.1600 6.0370 -0.4635
18.1800 6.0437 -0.4643
18.2000 6.0504 -0.4603
18.2200 6.0571 -0.4728
18.2400 6.0637 -0.4597
18.2600 6.0704 -0.4578
18.2800 6.0770 -0.4752
18.3000 6.0836 -0.4655
18.3200 6.0903 -0.4501
18.3400 6.0970 -0.4595
18.3600 6.1037 -0.4718
18.3800 6.1103 -0.4730
18.4000 6.1170 -0.4631
18.4200 6.1237 -0.4511
18.4400 6.1304 -0.4733
18.4600 6.1370 -0.4751
18.4800 6.1436 -0.4583
18.5000 6.1502 -0.4623
18.5200 6.1570 -0.4633
18.5400 6.1637 -0.4697
18.5600 6.1704 -0.4701
18.5800 6.1771 -0.4515
18.6000 6.1838 -0.4661
18.6200 6.1904 -0.4742
18.6400 6.1970 -0.4621
18.6600 6.2036 -0.4585
18.6800 6.2103 -0.4678
18.7000 6.2170 -0.4653
18.7200 6.2237 -0.4632
18.7400 6.2304 -0.4687
18.7600 6.2371 -0.4691
18.7800 6.2438 -0.4727
18.8000 6.2504 -0.4646
18.8200 6.2570 -0.4581
18.8400 6.2636 -0.4753
18.8600 6.2703 -0.4751
18.8800 6.2770 -0.4589
18.9000 6.2837 -0.4650
18.9200 6.2903 -0.4682
18.9400 6.2970 -0.4623
18.9600 6.3037 -0.4720
18.9800 6.3104 -0.4639
19.0000 6.3170 -0.4672
19.0200 6.3236 -0.4731
19.0400 6.3302 -0.4593
19.0600 6.3370 -0.4665
19.0800 6.3437 -0.4754
19.1000 6.3504 -0.4661
19.1200 6.3570 -0.4676
19.1400 6.3637 -0.4690
19.1600 6.3704 -0.4625
19.1800 6.3770 -0.4709
19.2000 6.3836 -0.4726
19.2200 6.3903 -0.4576
19.2400 6.3970 -0.4722
19.2600 6.4037 -0.4723
19.2800 6.4104 -0.4539
19.3000 6.4171 -0.4786
19.3200 6.4237 -0.4706
19.3400 6.4304 -0.4601
19.3600 6.4370 -0.4702
19.3800 6.4436 -0.4672
19.4000 6.4503 -0.4658
19.4200 6.4570 -0.4762
19.4400 6.4637 -0.4622
19.4600 6.4704 -0.4653
19.4800 6.4771 -0.4775
19.5000 6.4838 -0.4644
19.5200 6.4904 -0.4697
19.5400 6.4970 -0.4732
19.5600 6.5036 -0.4636
19.5800 6.5103 -0.4747
19.6000 6.5170 -0.4707
19.6200 6.5237 -0.4591
19.6400 6.5304 -0.4720
19.6600 6.5371 -0.4732
19.6800 6.5438 -0.4656
19.7000 6.5504 -0.4750
19.7200 6.5569 -0.4696
19.7400 6.5635 -0.4635
19.7600 6.5702 -0.4717
19.7800 6.5770 -0.4707
19.8000 6.5837 -0.4744
19.8200 6.5903 -0.4733
19.8400 6.5970 -0.4617
19.8600 6.6037 -0.4718
19.8800 6.6103 -0.4791
19.9000 6.6170 -0.4656
19.9200 6.6236 -0.4738
19.9400 6.6303 -0.4712
19.9600 6.6370 -0.4680
19.9800 6.6437 -0.4763
20.0000 6.6504 -0.4703
20.0200 6.6571 -0.4647
20.0400 6.6638 -0.4846
20.0600 6.6704 -0.4679
20.0800 6.6770 -0.4665
20.1000 6.6836 -0.4793
20.1200 6.6903 -0.4662
20.1400 6.6970 -0.4718
20.1600 6.7037 -0.4836
20.1800 6.7104 -0.4620
20.2000 6.7171 -0.4781
20.2200 6.7238 -0.4822
20.2400 6.7304 -0.4622
20.2600 6.7370 -0.4795
20.2800 6.7436 -0.4799
20.3000 6.7503 -0.4600
20.3200 6.7570 -0.4842
20.3400 6.7637 -0.4724
20.3600 6.7703 -0.4654
20.3800 6.7770 -0.4852
20.4000 6.7837 -0.4689
20.4200 6.7904 -0.4732
20.4400 6.7970 -0.4906
20.4600 6.8036 -0.4674
20.4800 6.8103 -0.4740
20.5000 6.8170 -0.4827
20.5200 6.8237 -0.4659
20.5400 6.8304 -0.4834
20.5600 6.8370 -0.4818
20.5800 6.8437 -0.4644
20.6000 6.8504 -0.4899
20.6200 6.8570 -0.4763
20.6400 6.8636 -0.4655
20.6600 6.8703 -0.4885
20.6800 6.8770 -0.4717
20.7000 6.8837 -0.4736
20.7200 6.8904 -0.4867
20.7400 6.8971 -0.4685
20.7600 6.9038 -0.4793
20.7800 6.9104 -0.4887
20.8000 6.9170 -0.4685
20.8200 6.9236 -0.4832
20.8400 6.9303 -0.4805
20.8600 6.9370 -0.4669
20.8800 6.9437 -0.4891
20.9000 6.9504 -0.4830
20.9200 6.9571 -0.4704
20.9400 6.9638 -0.4834
20.9600 6.9704 -0.4755
20.9800 6.9770 -0.4807
21.0000 6.9837 -0.4851
21.0200 6.9903 -0.4745
21.0400 6.9970 -0.4806
21.0600 7.0037 -0.4847
21.0800 7.0104 -0.4696
21.1000 7.0171 -0.4866
21.1200 7.0237 -0.4815
21.1400 7.0304 -0.4746
21.1600 7.0370 -0.4897
21.1800 7.0436 -0.4784
21.2000 7.0502 -0.4720
21.2200 7.0569 -0.4878
21.2400 7.0637 -0.4766
21.2600 7.0703 -0.4757
21.2800 7.0770 -0.4883
21.3000 7.0837 -0.4765
21.3200 7.0903 -0.4760
21.3400 7.0970 -0.4942
21.3600 7.1036 -0.4750
21.3800 7.1103 -0.4768
21.4000 7.1170 -0.4926
21.4200 7.1237 -0.4746
21.4400 7.1304 -0.4814
21.4600 7.1371 -0.4934
21.4800 7.1438 -0.4758
21.5000 7.1504 -0.4817
21.5200 7.1570 -0.4902
21.5400 7.1637 -0.4711
21.5600 7.1703 -0.4872
21.5800 7.1770 -0.4863
21.6000 7.1837 -0.4784
21.6200 7.1904 -0.4861
21.6400 7.1971 -0.4879
21.6600 7.2038 -0.4783
21.6800 7.2104 -0.4835
21.7000 7.2170 -0.4913
21.7200 7.2236 -0.4815
21.7400 7.2303 -0.4828
21.7600 7.2370 -0.4859
21.7800 7.2437 -0.4810
21.8000 7.2504 -0.4884
21.8200 7.2571 -0.4847
21.8400 7.2637 -0.4851
21.8600 7.2704 -0.4894
21.8800 7.2770 -0.4856
21.9000 7.2836 -0.4851
21.9200 7.2903 -0.4825
21.9400 7.2970 -0.4867
21.9600 7.3037 -0.4887
21.9800 7.3103 -0.4819
22.0000 7.3170 -0.4873
22.0200 7.3237 -0.4904
22.0400 7.3304 -0.4821
22.0600 7.3370 -0.4900
22.0800 7.3436 -0.4880
22.1000 7.3503 -0.4832
22.1200 7.3570 -0.4844
22.1400 7.3637 -0.4899
22.1600 7.3704 -0.4927
22.1800 7.3771 -0.4858
22.2000 7.3838 -0.4843
22.2200 7.3904 -0.4921
22.2400 7.3970 -0.4880
22.2600 7.4036 -0.4824
22.2800 7.4103 -0.4883
22.3000 7.4170 -0.4914
22.3200 7.4237 -0.4797
22.3400 7.4304 -0.4950
22.3600 7.4371 -0.4951
22.3800 7.4437 -0.4807
22.4000 7.4504 -0.4908
22.4200 7.4570 -0.4892
22.4400 7.4636 -0.4895
22.4600 7.4703 -0.4944
22.4800 7.4770 -0.4792
22.5000 7.4837 -0.4890
22.5200 7.4904 -0.4986
22.5400 7.4970 -0.4862
22.5600 7.5037 -0.4851
22.5800 7.5104 -0.4998
22.6000 7.5170 -0.4828
22.6200 7.5236 -0.4840
22.6400 7.5302 -0.5015
22.6600 7.5369 -0.4878
22.6800 7.5437 -0.4861
22.7000 7.5504 -0.4982
22.7200 7.5571 -0.4880
22.7400 7.5638 -0.4898
22.7600 7.5704 -0.4983
22.7800 7.5770 -0.4867
22.8000 7.5836 -0.4821
22.8200 7.5903 -0.4981
22.8400 7.5970 -0.4922
22.8600 7.6037 -0.4893
22.8800 7.6104 -0.4942
22.9000 7.6170 -0.4857
22.9200 7.6237 -0.4935
22.9400 7.6304 -0.4931
22.9600 7.6371 -0.4934
22.9800 7.6437 -0.4895
23.0000 7.6503 -0.4931
23.0200 7.6570 -0.4943
23.0400 7.6637 -0.4882
23.0600 7.6704 -0.5011
23.0800 7.6771 -0.4892
23.1000 7.6838 -0.4784
23.1200 7.6905 -0.5034
23.1400 7.6971 -0.4996
23.1600 7.7037 -0.4822
23.1800 7.7103 -0.4969
23.2000 7.7170 -0.4964
23.2200 7.7237 -0.4852
23.2400 7.7304 -0.5077
23.2600 7.7371 -0.4905
23.2800 7.7437 -0.4824
23.3000 7.7504 -0.5052
23.3200 7.7570 -0.4942
23.3400 7.7636 -0.4882
23.3600 7.7702 -0.5035
23.3800 7.7769 -0.4897
23.4000 7.7836 -0.4912
23.4200 7.7903 -0.5049
23.4400 7.7970 -0.4920
23.4600 7.8037 -0.4892
23.4800 7.8103 -0.5040
23.5000 7.8170 -0.4929
23.5200 7.8236 -0.4914
23.5400 7.8303 -0.5044
23.5600 7.8370 -0.4925
23.5800 7.8437 -0.4900
23.6000 7.8504 -0.5013
23.6200 7.8571 -0.4984
23.6400 7.8638 -0.4947
23.6600 7.8704 -0.4953
23.6800 7.8771 -0.5032
23.7000 7.8837 -0.4964
23.7200 7.8903 -0.4936
23.7400 7.8970 -0.5011
23.7600 7.9037 -0.4977
23.7800 7.9104 -0.5013
23.8000 7.9171 -0.4955
23.8200 7.9238 -0.4977
23.8400 7.9304 -0.5027
23.8600 7.9370 -0.5016
23.8800 7.9436 -0.4895
23.9000 7.9503 -0.5014
23.9200 7.9570 -0.5031
23.9400 7.9637 -0.4947
23.9600 7.9704 -0.5037
23.9800 7.9770 -0.5036
24.0000 7.9837 -0.4936
24.0200 7.9904 -0.4992
24.0400 7.9971 -0.5025
24.0600 8.0037 -0.5018
24.0800 8.0103 -0.5003
24.1000 8.0169 -0.5003
24.1200 8.0237 -0.4991
24.1400 8.0303 -0.5025
24.1600 8.0370 -0.5028
24.1800 8.0437 -0.4990
24.2000 8.0504 -0.4985
24.2200 8.0570 -0.5017
24.2400 8.0636 -0.5083
24.2600 8.0703 -0.4985
24.2800 8.0770 -0.4981
24.3000 8.0837 -0.5045
24.3200 8.0904 -0.5026
24.3400 8.0971 -0.5010
24.3600 8.1038 -0.5042
24.3800 8.1104 -0.5028
24.4000 8.1170 -0.5054
24.4200 8.1236 -0.5017
24.4400 8.1303 -0.5013
24.4600 8.1370 -0.5055
24.4800 8.1437 -0.5017
24.5000 8.1504 -0.5016
24.5200 8.1571 -0.5061
24.5400 8.1637 -0.5002
24.5600 8.1704 -0.5053
24.5800 8.1770 -0.5052
24.6000 8.1837 -0.5006
24.6200 8.1903 -0.5052
24.6400 8.1969 -0.5069
24.6600 8.2036 -0.5014
24.6800 8.2103 -0.5041
24.7000 8.2170 -0.5022
24.7200 8.2237 -0.5007
24.7400 8.2304 -0.5082
24.7600 8.2371 -0.5027
24.7800 8.2436 -0.5031
24.8000 8.2502 -0.5064
24.8200 8.2569 -0.4999
24.8400 8.2636 -0.5043
24.8600 8.2704 -0.5077
24.8800 8.2770 -0.5085
24.9000 8.2837 -0.5008
24.9200 8.2904 -0.5054
24.9400 8.2970 -0.5063
24.9600 8.3037 -0.5047
24.9800 8.3103 -0.5017
25.0000 8.3170 -0.5031
25.0200 8.3237 -0.5064
25.0400 8.3304 -0.5028
25.0600 8.3370 -0.5064
25.0800 8.3437 -0.5044
25.1000 8.3504 -0.5073
25.1200 8.3571 -0.5016
25.1400 8.3637 -0.5063
25.1600 8.3703 -0.5046
25.1800 8.3770 -0.5046
25.2000 8.3837 -0.5086
25.2200 8.3904 -0.5052
25.2400 8.3970 -0.5006
25.2600 8.4037 -0.5051
25.2800 8.4104 -0.5030
25.3000 8.4171 -0.5071
25.3200 8.4237 -0.5061
25.3400 8.4303 -0.5003
25.3600 8.4370 -0.5002
25.3800 8.4437 -0.5113
25.4000 8.4504 -0.5080
25.4200 8.4571 -0.4987
25.4400 8.4637 -0.5087
25.4600 8.4704 -0.5086
25.4800 8.4771 -0.4986
25.5000 8.4837 -0.5099
25.5200 8.4903 -0.5063
25.5400 8.4969 -0.4982
25.5600 8.5036 -0.5085
25.5800 8.5103 -0.5078
25.6000 8.5170 -0.4986
25.6200 8.5237 -0.5123
25.6400 8.5304 -0.5066
25.6600 8.5370 -0.4985
25.6800 8.5437 -0.5143
25.7000 8.5503 -0.5038
25.7200 8.5569 -0.5022
25.7400 8.5636 -0.5125
25.7600 8.5704 -0.5011
25.7800 8.5771 -0.5047
25.8000 8.5838 -0.5114
25.8200 8.5905 -0.5010
25.8400 8.5971 -0.5055
25.8600 8.6037 -0.5103
25.8800 8.6103 -0.5066
25.9000 8.6170 -0.5028
25.9200 8.6237 -0.5121
25.9400 8.6304 -0.5029
25.9600 8.6371 -0.5091
25.9800 8.6438 -0.5110
26.0000 8.6504 -0.5035
26.0200 8.6571 -0.5107
26.0400 8.6637 -0.5136
26.0600 8.6703 -0.5044
26.0800 8.6769 -0.5105
26.1000 8.6836 -0.5077
26.1200 8.6903 -0.5039
26.1400 8.6970 -0.5100
26.1600 8.7037 -0.5125
26.1800 8.7104 -0.5055
26.2000 8.7171 -0.5126
26.2200 8.7237 -0.5119
26.2400 8.7302 -0.5056
26.2600 8.7369 -0.5098
26.2800 8.7436 -0.5101
26.3000 8.7503 -0.5068
26.3200 8.7570 -0.5073
26.3400 8.7637 -0.5075
26.3600 8.7704 -0.5102
26.3800 8.7770 -0.5124
26.4000 8.7836 -0.5115
26.4200 8.7903 -0.5093
26.4400 8.7969 -0.5092
26.4600 8.8037 -0.5144
26.4800 8.8104 -0.5108
26.5000 8.8171 -0.5073
26.5200 8.8238 -0.5126
26.5400 8.8304 -0.5101
26.5600 8.8371 -0.5058
26.5800 8.8437 -0.5147
26.6000 8.8503 -0.5137
26.6200 8.8570 -0.5077
26.6400 8.8637 -0.5100
26.6600 8.8704 -0.5128
26.6800 8.8770 -0.5113
26.7000 8.8837 -0.5130
26.7200 8.8904 -0.5152
26.7400 8.8971 -0.5085
26.7600 8.9037 -0.5167
26.7800 8.9103 -0.5153
26.8000 8.9169 -0.5057
26.8200 8.9236 -0.5174
26.8400 8.9303 -0.5124
26.8600 8.9370 -0.5055
26.8800 8.9437 -0.5165
26.9000 8.9504 -0.5134
26.9200 8.9571 -0.5093
26.9400 8.9637 -0.5246
26.9600 8.9703 -0.5074
26.9800 8.9769 -0.5085
27.0000 8.9836 -0.5213
27.0200 8.9903 -0.5097
27.0400 8.9970 -0.5124
27.0600 9.0037 -0.5195
27.0800 9.0104 -0.5070
27.1000 9.0171 -0.5151
27.1200 9.0237 -0.5230
27.1400 9.0303 -0.5078
27.1600 9.0369 -0.5133
27.1800 9.0436 -0.5209
27.2000 9.0503 -0.5080
27.2200 9.0570 -0.5158
27.2400 9.0637 -0.5219
27.2600 9.0704 -0.5089
27.2800 9.0771 -0.5180
27.3000 9.0837 -0.5200
27.3200 9.0903 -0.5120
27.3400 9.0970 -0.5201
27.3600 9.1037 -0.5175
27.3800 9.1104 -0.5095
27.4000 9.1171 -0.5185
27.4200 9.1238 -0.5178
27.4400 9.1304 -0.5086
27.4600 9.1371 -0.5200
27.4800 9.1437 -0.5179
27.5000 9.1503 -0.5110
27.5200 9.1569 -0.5186
27.5400 9.1637 -0.5130
27.5600 9.1704 -0.5179
27.5800 9.1771 -0.5185
27.6000 9.1837 -0.5164
27.6200 9.1904 -0.5158
27.6400 9.1971 -0.5217
27.6600 9.2037 -0.5160
27.6800 9.2103 -0.5142
27.7000 9.2169 -0.5216
27.7200 9.2236 -0.5111
27.7400 9.2303 -0.5180
27.7600 9.2370 -0.5220
27.7800 9.2437 -0.5151
27.8000 9.2504 -0.5205
27.8200 9.2571 -0.5193
27.8400 9.2637 -0.5175
27.8600 9.2703 -0.5205
27.8800 9.2769 -0.5196
27.9000 9.2836 -0.5132
27.9200 9.2904 -0.5181
27.9400 9.2971 -0.5257
27.9600 9.3038 -0.5149
27.9800 9.3104 -0.5179
28.0000 9.3171 -0.5213
28.0200 9.3237 -0.5172
28.0400 9.3303 -0.5150
28.0600 9.3370 -0.5198
28.0800 9.3437 -0.5199
28.1000 9.3504 -0.5190
28.1200 9.3571 -0.5186
28.1400 9.3637 -0.5190
28.1600 9.3704 -0.5165
28.1800 9.3771 -0.5252
28.2000 9.3837 -0.5193
28.2200 9.3903 -0.5199
28.2400 9.3969 -0.5233
28.2600 9.4036 -0.5160
28.2800 9.4103 -0.5210
28.3000 9.4170 -0.5227
28.3200 9.4237 -0.5142
28.3400 9.4304 -0.5225
28.3600 9.4371 -0.5239
28.3800 9.4437 -0.5155
28.4000 9.4503 -0.5201
28.4200 9.4569 -0.5244
28.4400 9.4636 -0.5139
28.4600 9.4703 -0.5263
28.4800 9.4770 -0.5218
28.5000 9.4837 -0.5111
28.5200 9.4904 -0.5251
28.5400 9.4971 -0.5249
28.5600 9.5037 -0.5143
28.5800 9.5103 -0.5306
28.6000 9.5170 -0.5196
28.6200 9.5236 -0.5166
28.6400 9.5304 -0.5295
28.6600 9.5371 -0.5182
28.6800 9.5437 -0.5199
28.7000 9.5504 -0.5271
28.7200 9.5571 -0.5181
28.7400 9.5637 -0.5183
28.7600 9.5704 -0.5278
28.7800 9.5770 -0.5157
28.8000 9.5836 -0.5210
28.8200 9.5903 -0.5194
28.8400 9.5971 -0.5163
28.8600 9.6037 -0.5243
28.8800 9.6104 -0.5218
28.9000 9.6171 -0.5200
28.9200 9.6238 -0.5214
28.9400 9.6303 -0.5193
28.9600 9.6369 -0.5194
28.9800 9.6436 -0.5220
29.0000 9.6503 -0.5208
29.0200 9.6570 -0.5213
29.0400 9.6637 -0.5201
29.0600 9.6704 -0.5201
29.0800 9.6770 -0.5267
29.1000 9.6837 -0.5161
29.1200 9.6903 -0.5257
29.1400 9.6969 -0.5227
29.1600 9.7036 -0.5182
29.1800 9.7103 -0.5232
29.2000 9.7170 -0.5260
29.2200 9.7237 -0.5216
29.2400 9.7303 -0.5230
29.2600 9.7370 -0.5238
29.2800 9.7437 -0.5215
29.3000 9.7503 -0.5246
29.3200 9.7570 -0.5240
29.3400 9.7636 -0.5191
29.3600 9.7703 -0.5282
29.3800 9.7770 -0.5256
29.4000 9.7837 -0.5172
29.4200 9.7904 -0.5277
29.4400 9.7971 -0.5265
29.4600 9.8037 -0.5223
29.4800 9.8103 -0.5271
29.5000 9.8169 -0.5210
29.5200 9.8236 -0.5233
29.5400 9.8303 -0.5286
29.5600 9.8371 -0.5253
29.5800 9.8437 -0.5242
29.6000 9.8504 -0.5280
29.6200 9.8571 -0.5285
29.6400 9.8637 -0.5227
29.6600 9.8703 -0.5265
29.6800 9.8770 -0.5267
29.7000 9.8836 -0.5285
29.7200 9.8903 -0.5223
29.7400 9.8970 -0.5275
29.7600 9.9037 -0.5321
29.7800 9.9104 -0.5240
29.8000 9.9171 -0.5268
29.8200 9.9237 -0.5302
29.8400 9.9303 -0.5253
29.8600 9.9369 -0.5284
29.8800 9.9436 -0.5210
29.9000 9.9503 -0.5237
29.9200 9.9570 -0.5337
29.9400 9.9637 -0.5279
29.9600 9.9704 -0.5174
29.9800 9.9770 -0.5306
30.0000 9.9837 -0.5258
30.0200 9.9903 -0.5224
30.0400 9.9969 -0.5339
30.0600 10.0036 -0.5223
30.0800 10.0103 -0.5265
30.1000 10.0171 -0.5338
30.1200 10.0237 -0.5225
30.1400 10.0304 -0.5240
30.1600 10.0371 -0.5325
30.1800 10.0438 -0.5261
30.2000 10.0504 -0.5239
30.2200 10.0570 -0.5293
30.2400 10.0637 -0.5257
30.2600 10.0704 -0.5239
30.2800 10.0771 -0.5304
30.3000 10.0837 -0.5262
30.3200 10.0904 -0.5292
30.3400 10.0971 -0.5290
30.3600 10.1037 -0.5251
30.3800 10.1103 -0.5284
30.4000 10.1169 -0.5344
30.4200 10.1236 -0.5271
30.4400 10.1303 -0.5295
30.4600 10.1370 -0.5282
30.4800 10.1437 -0.5273
30.5000 10.1504 -0.5307
30.5200 10.1571 -0.5287
30.5400 10.1637 -0.5301
30.5600 10.1703 -0.5349
30.5800 10.1769 -0.5231
30.6000 10.1836 -0.5291
30.6200 10.1903 -0.5341
30.6400 10.1970 -0.5285
30.6600 10.2037 -0.5310
30.6800 10.2104 -0.5341
30.7000 10.2170 -0.5263
30.7200 10.2237 -0.5345
30.7400 10.2304 -0.5370
30.7600 10.2370 -0.5208
30.7800 10.2436 -0.5373
30.8000 10.2503 -0.5388
30.8200 10.2570 -0.5190
30.8400 10.2637 -0.5349
30.8600 10.2704 -0.5357
30.8800 10.2771 -0.5268
30.9000 10.2838 -0.5398
30.9200 10.2904 -0.5294
30.9400 10.2970 -0.5298
30.9600 10.3036 -0.5342
30.9800 10.3103 -0.5319
31.0000 10.3170 -0.5306
31.0200 10.3237 -0.5344
31.0400 10.3304 -0.5325
31.0600 10.3371 -0.5333
31.0800 10.3437 -0.5357
31.1000 10.3503 -0.5325
31.1200 10.3569 -0.5309
31.1400 10.3636 -0.5318
31.1600 10.3703 -0.5320
31.1800 10.3770 -0.5398
31.2000 10.3837 -0.5383
31.2200 10.3903 -0.5332
31.2400 10.3970 -0.5275
31.2600 10.4037 -0.5383
31.2800 10.4104 -0.5375
31.3000 10.4170 -0.5264
31.3200 10.4236 -0.5343
31.3400 10.4303 -0.5371
31.3600 10.4370 -0.5271
31.3800 10.4437 -0.5335
31.4000 10.4504 -0.5360
31.4200 10.4571 -0.5337
31.4400 10.4637 -0.5359
31.4600 10.4704 -0.5316
31.4800 10.4770 -0.5320
31.5000 10.4836 -0.5396
31.5200 10.4903 -0.5341
31.5400 10.4970 -0.5302
31.5600 10.5037 -0.5398
31.5800 10.5104 -0.5344
31.6000 10.5171 -0.5339
31.6200 10.5238 -0.5379
31.6400 10.5304 -0.5373
31.6600 10.5370 -0.5340
31.6800 10.5436 -0.5359
31.7000 10.5503 -0.5314
31.7200 10.5570 -0.5426
31.7400 10.5637 -0.5388
31.7600 10.5704 -0.5312
31.7800 10.5771 -0.5383
31.8000 10.5838 -0.5422
31.8200 10.5904 -0.5334
31.8400 10.5970 -0.5383
31.8600 10.6036 -0.5383
31.8800 10.6103 -0.5362
31.9000 10.6170 -0.5406
31.9200 10.6237 -0.5407
31.9400 10.6304 -0.5311
31.9600 10.6371 -0.5387
31.9800 10.6438 -0.5414
32.0000 10.6504 -0.5385
32.0200 10.6569 -0.5326
32.0400 10.6635 -0.5325
32.0600 10.6702 -0.5399
32.0800 10.6770 -0.5383
32.1000 10.6837 -0.5409
32.1200 10.6904 -0.5391
32.1400 10.6970 -0.5368
32.1600 10.7037 -0.5436
32.1800 10.7104 -0.5377
32.2000 10.7170 -0.5358
32.2200 10.7236 -0.5463
32.2400 10.7303 -0.5389
32.2600 10.7370 -0.5345
32.2800 10.7437 -0.5492
32.3000 10.7504 -0.5360
32.3200 10.7571 -0.5313
32.3400 10.7638 -0.5507
32.3600 10.7704 -0.5387
32.3800 10.7770 -0.5359
32.4000 10.7836 -0.5481
32.4200 10.7903 -0.5332
32.4400 10.7970 -0.5404
32.4600 10.8037 -0.5547
32.4800 10.8104 -0.5308
32.5000 10.8171 -0.5431
32.5200 10.8237 -0.5528
32.5400 10.8303 -0.5269
32.5600 10.8369 -0.5423
32.5800 10.8436 -0.5499
32.6000 10.8503 -0.5312
32.6200 10.8570 -0.5440
32.6400 10.8637 -0.5465
32.6600 10.8704 -0.5364
32.6800 10.8770 -0.5464
32.7000 10.8837 -0.5449
32.7200 10.8904 -0.5385
32.7400 10.8970 -0.5450
32.7600 10.9036 -0.5410
32.7800 10.9103 -0.5389
32.8000 10.9170 -0.5502
32.8200 10.9237 -0.5449
32.8400 10.9303 -0.5403
32.8600 10.9370 -0.5439
32.8800 10.9437 -0.5437
32.9000 10.9504 -0.5435
32.9200 10.9570 -0.5439
32.9400 10.9636 -0.5461
32.9600 10.9703 -0.5436
32.9800 10.9770 -0.5435
33.0000 10.9837 -0.5475
33.0200 10.9904 -0.5390
33.0400 10.9971 -0.5416
33.0600 11.0037 -0.5444
33.0800 11.0104 -0.5438
33.1000 11.0170 -0.5419
33.1200 11.0236 -0.5476
33.1400 11.0303 -0.5382
33.1600 11.0370 -0.5451
33.1800 11.0437 -0.5509
33.2000 11.0504 -0.5403
33.2200 11.0571 -0.5444
33.2400 11.0638 -0.5508
33.2600 11.0704 -0.5379
33.2800 11.0770 -0.5459
33.3000 11.0836 -0.5523
33.3200 11.0903 -0.5353
33.3400 11.0970 -0.5418
33.3600 11.1037 -0.5527
33.3800 11.1103 -0.5394
33.4000 11.1170 -0.5439
33.4200 11.1237 -0.5480
33.4400 11.1304 -0.5420
33.4600 11.1370 -0.5447
33.4800 11.1436 -0.5482
33.5000 11.1503 -0.5440
33.5200 11.1570 -0.5436
33.5400 11.1637 -0.5474
33.5600 11.1704 -0.5384
33.5800 11.1770 -0.5471
33.6000 11.1837 -0.5497
33.6200 11.1904 -0.5430
33.6400 11.1970 -0.5486
33.6600 11.2036 -0.5415
33.6800 11.2103 -0.5413
33.7000 11.2170 -0.5498
33.7200 11.2238 -0.5392
33.7400 11.2304 -0.5504
33.7600 11.2371 -0.5503
33.7800 11.2438 -0.5427
33.8000 11.2504 -0.5508
33.8200 11.2570 -0.5486
33.8400 11.2636 -0.5396
33.8600 11.2703 -0.5515
33.8800 11.2770 -0.5481
33.9000 11.2837 -0.5439
33.9200 11.2904 -0.5502
33.9400 11.2971 -0.5458
33.9600 11.3038 -0.5443
33.9800 11.3104 -0.5553
34.0000 11.3170 -0.5458
34.0200 11.3236 -0.5452
34.0400 11.3303 -0.5497
34.0600 11.3370 -0.5452
34.0800 11.3437 -0.5440
34.1000 11.3504 -0.5536
34.1200 11.3571 -0.5376
34.1400 11.3638 -0.5476
34.1600 11.3704 -0.5518
34.1800 11.3770 -0.5435
34.2000 11.3836 -0.5511
34.2200 11.3902 -0.5468
34.2400 11.3970 -0.5426
34.2600 11.4037 -0.5490
34.2800 11.4104 -0.5493
34.3000 11.4170 -0.5459
34.3200 11.4237 -0.5500
34.3400 11.4304 -0.5526
34.3600 11.4370 -0.5465
34.3800 11.4436 -0.5447
34.4000 11.4503 -0.5471
34.4200 11.4570 -0.5544
34.4400 11.4637 -0.5516
34.4600 11.4704 -0.5431
34.4800 11.4771 -0.5556
34.5000 11.4838 -0.5463
34.5200 11.4904 -0.5444
34.5400 11.4970 -0.5524
34.5600 11.5036 -0.5464
34.5800 11.5103 -0.5454
34.6000 11.5170 -0.5552
34.6200 11.5237 -0.5431
34.6400 11.5304 -0.5457
34.6600 11.5371 -0.5564
34.6800 11.5437 -0.5420
34.7000 11.5504 -0.5469
34.7200 11.5570 -0.5604
34.7400 11.5636 -0.5364
34.7600 11.5702 -0.5512
34.7800 11.5770 -0.5539
34.8000 11.5837 -0.5385
34.8200 11.5903 -0.5586
34.8400 11.5970 -0.5481
34.8600 11.6037 -0.5414
34.8800 11.6104 -0.5618
34.9000 11.6170 -0.5490
34.9200 11.6236 -0.5435
34.9400 11.6303 -0.5579
34.9600 11.6370 -0.5463
34.9800 11.6437 -0.5413
35.0000 11.6504 -0.5595
35.0200 11.6571 -0.5424
35.0400 11.6638 -0.5478
35.0600 11.6704 -0.5563
35.0800 11.6770 -0.5422
35.1000 11.6836 -0.5483
35.1200 11.6903 -0.5528
35.1400 11.6970 -0.5468
35.1600 11.7037 -0.5435
35.1800 11.7104 -0.5566
35.2000 11.7171 -0.5464
35.2200 11.7238 -0.5499
35.2400 11.7304 -0.5544
35.2600 11.7370 -0.5442
35.2800 11.7436 -0.5501
35.3000 11.7503 -0.5531
35.3200 11.7570 -0.5445
35.3400 11.7637 -0.5471
35.3600 11.7704 -0.5527
35.3800 11.7771 -0.5531
35.4000 11.7838 -0.5418
35.4200 11.7904 -0.5557
35.4400 11.7971 -0.5503
35.4600 11.8037 -0.5496
35.4800 11.8103 -0.5466
35.5000 11.8170 -0.5511
35.5200 11.8237 -0.5509
35.5400 11.8304 -0.5484
35.5600 11.8370 -0.5505
35.5800 11.8437 -0.5465
35.6000 11.8504 -0.5545
35.6200 11.8570 -0.5560
35.6400 11.8636 -0.5412
35.6600 11.8702 -0.5547
35.6800 11.8769 -0.5532
35.7000 11.8837 -0.5434
35.7200 11.8904 -0.5563
35.7400 11.8970 -0.5546
35.7600 11.9037 -0.5345
35.7800 11.9104 -0.5610
35.8000 11.9170 -0.5577
35.8200 11.9236 -0.5344
35.8400 11.9303 -0.5633
35.8600 11.9370 -0.5516
35.8800 11.9437 -0.5330
35.9000 11.9504 -0.5663
35.9200 11.9570 -0.5508
35.9400 11.9637 -0.5401
35.9600 11.9704 -0.5698
35.9800 11.9771 -0.5396
36.0000 11.9837 -0.5411
36.0200 11.9903 -0.5707
36.0400 11.9970 -0.5387
36.0600 12.0037 -0.5397
36.0800 12.0104 -0.5744
36.1000 12.0171 -0.5349
36.1200 12.0238 -0.5420
36.1400 12.0304 -0.5748
36.1600 12.0370 -0.5347
36.1800 12.0436 -0.5447
36.2000 12.0503 -0.5667
36.2200 12.0570 -0.5368
36.2400 12.0637 -0.5548
36.2600 12.0704 -0.5633
36.2800 12.0771 -0.5401
36.3000 12.0837 -0.5499
36.3200 12.0904 -0.5558
36.3400 12.0970 -0.5466
36.3600 12.1036 -0.5519
36.3800 12.1102 -0.5542
36.4000 12.1169 -0.5490
36.4200 12.1236 -0.5539
36.4400 12.1303 -0.5483
36.4600 12.1370 -0.5534
36.4800 12.1437 -0.5560
36.5000 12.1504 -0.5479
36.5200 12.1570 -0.5566
36.5400 12.1637 -0.5541
36.5600 12.1703 -0.5507
36.5800 12.1770 -0.5591
36.6000 12.1837 -0.5498
36.6200 12.1904 -0.5569
36.6400 12.1971 -0.5563
36.6600 12.2038 -0.5498
36.6800 12.2104 -0.5582
36.7000 12.2171 -0.5600
36.7200 12.2237 -0.5449
36.7400 12.2303 -0.5598
36.7600 12.2370 -0.5546
36.7800 12.2437 -0.5508
36.8000 12.2504 -0.5574
36.8200 12.2571 -0.5542
36.8400 12.2637 -0.5513
36.8600 12.2704 -0.5593
36.8800 12.2770 -0.5561
36.9000 12.2836 -0.5514
36.9200 12.2903 -0.5559
36.9400 12.2969 -0.5563
36.9600 12.3036 -0.5539
36.9800 12.3103 -0.5603
37.0000 12.3170 -0.5522
37.0200 12.3237 -0.5557
37.0400 12.3304 -0.5631
37.0600 12.3370 -0.5492
37.0800 12.3436 -0.5577
37.1000 12.3502 -0.5598
37.1200 12.3569 -0.5524
37.1400 12.3636 -0.5636
37.1600 12.3703 -0.5542
37.1800 12.3770 -0.5557
37.2000 12.3837 -0.5623
37.2200 12.3904 -0.5556
37.2400 12.3970 -0.5564
37.2600 12.4036 -0.5597
37.2800 12.4103 -0.5554
37.3000 12.4170 -0.5558
37.3200 12.4237 -0.5602
37.3400 12.4304 -0.5550
37.3600 12.4371 -0.5664
37.3800 12.4437 -0.5521
37.4000 12.4504 -0.5571
37.4200 12.4571 -0.5654
37.4400 12.4637 -0.5530
37.4600 12.4703 -0.5613
37.4800 12.4770 -0.5607
37.5000 12.4837 -0.5528
37.5200 12.4904 -0.5653
37.5400 12.4971 -0.5598
37.5600 12.5038 -0.5507
37.5800 12.5104 -0.5660
37.6000 12.5171 -0.5597
37.6200 12.5237 -0.5431
37.6400 12.5303 -0.5678
37.6600 12.5369 -0.5631
37.6800 12.5437 -0.5490
37.7000 12.5504 -0.5675
37.7200 12.5570 -0.5550
37.7400 12.5637 -0.5532
37.7600 12.5704 -0.5697
37.7800 12.5770 -0.5523
37.8000 12.5836 -0.5573
37.8200 12.5902 -0.5666
37.8400 12.5969 -0.5525
37.8600 12.6036 -0.5544
37.8800 12.6103 -0.5678
37.9000 12.6170 -0.5589
37.9200 12.6237 -0.5584
37.9400 12.6304 -0.5627
37.9600 12.6370 -0.5539
37.9800 12.6436 -0.5639
38.0000 12.6503 -0.5586
38.0200 12.6569 -0.5541
38.0400 12.6637 -0.5652
38.0600 12.6704 -0.5638
38.0800 12.6771 -0.5549
38.1000 12.6838 -0.5621
38.1200 12.6905 -0.5656
38.1400 12.6971 -0.5602
38.1600 12.7037 -0.5613
38.1800 12.7103 -0.5585
38.2000 12.7170 -0.5571
38.2200 12.7237 -0.5700
38.2400 12.7304 -0.5562
38.2600 12.7371 -0.5615
38.2800 12.7438 -0.5666
38.3000 12.7504 -0.5595
38.3200 12.7571 -0.5604
38.3400 12.7636 -0.5633
38.3600 12.7703 -0.5616
38.3800 12.7769 -0.5591
38.4000 12.7837 -0.5647
38.4200 12.7904 -0.5622
38.4400 12.7970 -0.5587
38.4600 12.8037 -0.5684
38.4800 12.8104 -0.5594
38.5000 12.8171 -0.5638
38.5200 12.8237 -0.5742
38.5400 12.8303 -0.5594
38.5600 12.8369 -0.5557
38.5800 12.8436 -0.5720
38.6000 12.8503 -0.5653
38.6200 12.8570 -0.5571
38.6400 12.8637 -0.5705
38.6600 12.8704 -0.5630
38.6800 12.8770 -0.5611
38.7000 12.8837 -0.5695
38.7200 12.8903 -0.5566
38.7400 12.8970 -0.5619
38.7600 12.9037 -0.5726
38.7800 12.9104 -0.5580
38.8000 12.9171 -0.5620
38.8200 12.9237 -0.5673
38.8400 12.9304 -0.5686
38.8600 12.9370 -0.5620
38.8800 12.9437 -0.5640
38.9000 12.9503 -0.5650
38.9200 12.9570 -0.5597
38.9400 12.9637 -0.5652
38.9600 12.9704 -0.5713
38.9800 12.9771 -0.5633
39.0000 12.9837 -0.5653
39.0200 12.9904 -0.5684
39.0400 12.9971 -0.5628
39.0600 13.0037 -0.5658
39.0800 13.0103 -0.5688
39.1000 13.0170 -0.5623
39.1200 13.0236 -0.5685
39.1400 13.0303 -0.5610
39.1600 13.0370 -0.5594
39.1800 13.0437 -0.5726
39.2000 13.0504 -0.5610
39.2200 13.0571 -0.5615
39.2400 13.0637 -0.5810
39.2600 13.0703 -0.5559
39.2800 13.0769 -0.5607
39.3000 13.0836 -0.5785
39.3200 13.0903 -0.5610
39.3400 13.0970 -0.5646
39.3600 13.1037 -0.5772
39.3800 13.1104 -0.5584
39.4000 13.1171 -0.5657
39.4200 13.1237 -0.5776
39.4400 13.1303 -0.5551
39.4600 13.1370 -0.5656
39.4800 13.1437 -0.5745
39.5000 13.1504 -0.5633
39.5200 13.1571 -0.5631
39.5400 13.1637 -0.5737
39.5600 13.1704 -0.5662
39.5800 13.1771 -0.5668
39.6000 13.1837 -0.5686
39.6200 13.1903 -0.5691
39.6400 13.1969 -0.5670
39.6600 13.2036 -0.5682
39.6800 13.2104 -0.5678
39.7000 13.2171 -0.5678
39.7200 13.2237 -0.5734
39.7400 13.2304 -0.5696
39.7600 13.2371 -0.5659
39.7800 13.2437 -0.5737
39.8000 13.2503 -0.5692
39.8200 13.2569 -0.5618
39.8400 13.2637 -0.5750
39.8600 13.2704 -0.5705
39.8800 13.2771 -0.5621
39.9000 13.2838 -0.5780
39.9200 13.2904 -0.5655
39.9400 13.2971 -0.5666
39.9600 13.3037 -0.5760
39.9800 13.3103 -0.5647
40.0000 13.3169 -0.5671
40.0200 13.3236 -0.5782
40.0400 13.3303 -0.5636
40.0600 13.3370 -0.5662
40.0800 13.3437 -0.5771
40.1000 13.3503 -0.5622
40.1200 13.3570 -0.5675
40.1400 13.3637 -0.5781
40.1600 13.3703 -0.5626
40.1800 13.3769 -0.5706
40.2000 13.3836 -0.5757
40.2200 13.3904 -0.5605
40.2400 13.3971 -0.5733
40.2600 13.4038 -0.5723
40.2800 13.4105 -0.5622
40.3000 13.4171 -0.5724
40.3200 13.4237 -0.5730
40.3400 13.4303 -0.5663
40.3600 13.4369 -0.5716
40.3800 13.4436 -0.5651
40.4000 13.4504 -0.5678
40.4200 13.4571 -0.5720
40.4400 13.4637 -0.5717
40.4600 13.4704 -0.5669
40.4800 13.4770 -0.5712
40.5000 13.4837 -0.5726
40.5200 13.4903 -0.5678
40.5400 13.4969 -0.5626
40.5600 13.5037 -0.5747
40.5800 13.5104 -0.5715
40.6000 13.5170 -0.5609
40.6200 13.5237 -0.5739
40.6400 13.5304 -0.5679
40.6600 13.5371 -0.5645
40.6800 13.5437 -0.5771
40.7000 13.5503 -0.5676
40.7200 13.5569 -0.5634
40.7400 13.5636 -0.5733
40.7600 13.5703 -0.5706
40.7800 13.5770 -0.5664
40.8000 13.5837 -0.5791
40.8200 13.5904 -0.5666
40.8400 13.5970 -0.5638
40.8600 13.6037 -0.5830
40.8800 13.6103 -0.5651
40.9000 13.6169 -0.5695
40.9200 13.6236 -0.5754
40.9400 13.6304 -0.5640
40.9600 13.6371 -0.5752
40.9800 13.6437 -0.5733
41.0000 13.6504 -0.5633
41.0200 13.6571 -0.5770
41.0400 13.6637 -0.5720
41.0600 13.6703 -0.5662
41.0800 13.6770 -0.5765
41.1000 13.6837 -0.5720
41.1200 13.6904 -0.5644
41.1400 13.6970 -0.5786
41.1600 13.7037 -0.5663
41.1800 13.7104 -0.5691
41.2000 13.7171 -0.5772
41.2200 13.7237 -0.5672
41.2400 13.7303 -0.5705
41.2600 13.7369 -0.5780
41.2800 13.7436 -0.5651
41.3000 13.7503 -0.5732
41.3200 13.7570 -0.5769
41.3400 13.7637 -0.5667
41.3600 13.7704 -0.5741
41.3800 13.7771 -0.5776
41.4000 13.7837 -0.5679
41.4200 13.7903 -0.5775
41.4400 13.7969 -0.5710
41.4600 13.8036 -0.5685
41.4800 13.8103 -0.5789
41.5000 13.8170 -0.5695
41.5200 13.8237 -0.5690
41.5400 13.8304 -0.5802
41.5600 13.8371 -0.5754
41.5800 13.8437 -0.5721
41.6000 13.8503 -0.5779
41.6200 13.8570 -0.5680
41.6400 13.8636 -0.5756
41.6600 13.8703 -0.5787
41.6800 13.8770 -0.5673
41.7000 13.8837 -0.5759
41.7200 13.8904 -0.5805
41.7400 13.8971 -0.5662
41.7600 13.9037 -0.5795
41.7800 13.9103 -0.5767
41.8000 13.9170 -0.5658
41.8200 13.9237 -0.5786
41.8400 13.9304 -0.5822
41.8600 13.9371 -0.5698
41.8800 13.9438 -0.5774
41.9000 13.9504 -0.5783
41.9200 13.9571 -0.5729
41.9400 13.9637 -0.5789
41.9600 13.9703 -0.5744
41.9800 13.9769 -0.5714
42.0000 13.9836 -0.5817
42.0200 13.9904 -0.5740
42.0400 13.9971 -0.5763
42.0600 14.0037 -0.5803
42.0800 14.0104 -0.5705
42.1000 14.0170 -0.5777
42.1200 14.0237 -0.5830
42.1400 14.0303 -0.5727
42.1600 14.0369 -0.5786
42.1800 14.0436 -0.5779
42.2000 14.0503 -0.5711
42.2200 14.0570 -0.5804
42.2400 14.0637 -0.5786
42.2600 14.0704 -0.5740
42.2800 14.0771 -0.5805
42.3000 14.0837 -0.5767
42.3200 14.0903 -0.5747
42.3400 14.0969 -0.5824
42.3600 14.1036 -0.5732
42.3800 14.1104 -0.5808
42.4000 14.1171 -0.5835
42.4200 14.1238 -0.5693
42.4400 14.1304 -0.5827
42.4600 14.1371 -0.5847
42.4800 14.1437 -0.5697
42.5000 14.1503 -0.5836
42.5200 14.1570 -0.5813
42.5400 14.1637 -0.5680
42.5600 14.1704 -0.5818
42.5800 14.1771 -0.5842
42.6000 14.1837 -0.5663
42.6200 14.1904 -0.5863
42.6400 14.1971 -0.5809
42.6600 14.2037 -0.5719
42.6800 14.2103 -0.5835
42.7000 14.2169 -0.5801
42.7200 14.2236 -0.5673
42.7400 14.2303 -0.5873
42.7600 14.2370 -0.5779
42.7800 14.2437 -0.5696
42.8000 14.2504 -0.5896
42.8200 14.2571 -0.5767
42.8400 14.2637 -0.5723
42.8600 14.2703 -0.5885
42.8800 14.2769 -0.5793
42.9000 14.2836 -0.5735
42.9200 14.2903 -0.5795
42.9400 14.2970 -0.5808
42.9600 14.3037 -0.5775
42.9800 14.3104 -0.5807
43.0000 14.3171 -0.5795
43.0200 14.3237 -0.5760
43.0400 14.3303 -0.5817
43.0600 14.3370 -0.5778
43.0800 14.3436 -0.5814
43.1000 14.3503 -0.5776
43.1200 14.3570 -0.5821
43.1400 14.3637 -0.5758
43.1600 14.3704 -0.5773
43.1800 14.3771 -0.5811
43.2000 14.3838 -0.5732
43.2200 14.3904 -0.5812
43.2400 14.3970 -0.5776
43.2600 14.4036 -0.5725
43.2800 14.4103 -0.5814
43.3000 14.4170 -0.5821
43.3200 14.4237 -0.5743
43.3400 14.4304 -0.5778
43.3600 14.4371 -0.5849
43.3800 14.4438 -0.5727
43.4000 14.4503 -0.5831
43.4200 14.4569 -0.5810
43.4400 14.4636 -0.5740
43.4600 14.4703 -0.5824
43.4800 14.4770 -0.5791
43.5000 14.4837 -0.5752
43.5200 14.4904 -0.5780
43.5400 14.4971 -0.5829
43.5600 14.5037 -0.5803
43.5800 14.5103 -0.5794
43.6000 14.5169 -0.5826
43.6200 14.5236 -0.5753
43.6400 14.5303 -0.5801
43.6600 14.5370 -0.5850
43.6800 14.5436 -0.5726
43.7000 14.5503 -0.5810
43.7200 14.5570 -0.5853
43.7400 14.5637 -0.5799
43.7600 14.5704 -0.5781
43.7800 14.5770 -0.5837
43.8000 14.5836 -0.5785
43.8200 14.5903 -0.5787
43.8400 14.5970 -0.5811
43.8600 14.6037 -0.5832
43.8800 14.6104 -0.5778
43.9000 14.6171 -0.5830
43.9200 14.6238 -0.5832
43.9400 14.6303 -0.5818
43.9600 14.6369 -0.5838
43.9800 14.6436 -0.5809
44.0000 14.6503 -0.5774
44.0200 14.6571 -0.5907
44.0400 14.6637 -0.5848
44.0600 14.6704 -0.5799
44.0800 14.6771 -0.5846
44.1000 14.6837 -0.5842
44.1200 14.6903 -0.5824
44.1400 14.6970 -0.5851
44.1600 14.7036 -0.5785
44.1800 14.7103 -0.5780
44.2000 14.7170 -0.5898
44.2200 14.7237 -0.5788
44.2400 14.7304 -0.5746
44.2600 14.7371 -0.5931
44.2800 14.7437 -0.5779
44.3000 14.7503 -0.5830
44.3200 14.7569 -0.5901
44.3400 14.7636 -0.5766
44.3600 14.7703 -0.5814
44.3800 14.7770 -0.5880
44.4000 14.7837 -0.5759
44.4200 14.7903 -0.5791
44.4400 14.7970 -0.5940
44.4600 14.8036 -0.5742
44.4800 14.8103 -0.5776
44.5000 14.8169 -0.5935
44.5200 14.8236 -0.5806
44.5400 14.8303 -0.5768
44.5600 14.8370 -0.5944
44.5800 14.8438 -0.5789
44.6000 14.8504 -0.5757
44.6200 14.8571 -0.5933
44.6400 14.8638 -0.5801
44.6600 14.8704 -0.5783
44.6800 14.8770 -0.5943
44.7000 14.8837 -0.5730
44.7200 14.8904 -0.5807
44.7400 14.8971 -0.5922
44.7600 14.9037 -0.5775
44.7800 14.9104 -0.5789
44.8000 14.9171 -0.5934
44.8200 14.9238 -0.5780
44.8400 14.9304 -0.5848
44.8600 14.9370 -0.5942
44.8800 14.9436 -0.5800
44.9000 14.9503 -0.5864
44.9200 14.9570 -0.5900
44.9400 14.9637 -0.5794
44.9600 14.9703 -0.5868
44.9800 14.9770 -0.5879
45.0000 14.9837 -0.5811
45.0200 14.9903 -0.5859
45.0400 14.9969 -0.5867
45.0600 15.0036 -0.5828
45.0800 15.0103 -0.5858
45.1000 15.0170 -0.5880
45.1200 15.0237 -0.5861
45.1400 15.0304 -0.5834
45.1600 15.0370 -0.5842
45.1800 15.0437 -0.5897
45.2000 15.0504 -0.5823
45.2200 15.0570 -0.5867
45.2400 15.0637 -0.5901
45.2600 15.0704 -0.5805
45.2800 15.0770 -0.5887
45.3000 15.0837 -0.5952
45.3200 15.0904 -0.5783
45.3400 15.0971 -0.5913
45.3600 15.1038 -0.5920
45.3800 15.1104 -0.5802
45.4000 15.1170 -0.5902
45.4200 15.1236 -0.5927
45.4400 15.1303 -0.5797
45.4600 15.1370 -0.5895
45.4800 15.1437 -0.5943
45.5000 15.1504 -0.5812
45.5200 15.1571 -0.5913
45.5400 15.1637 -0.5935
45.5600 15.1704 -0.5771
45.5800 15.1770 -0.5967
45.6000 15.1836 -0.5892
45.6200 15.1903 -0.5807
45.6400 15.1970 -0.5955
45.6600 15.2037 -0.5921
45.6800 15.2104 -0.5812
45.7000 15.2170 -0.5938
45.7200 15.2237 -0.5933
45.7400 15.2304 -0.5831
45.7600 15.2370 -0.5947
45.7800 15.2436 -0.5896
45.8000 15.2503 -0.5822
45.8200 15.2570 -0.5994
45.8400 15.2637 -0.5887
45.8600 15.2703 -0.5833
45.8800 15.2770 -0.5966
45.9000 15.2837 -0.5871
45.9200 15.2904 -0.5927
45.9400 15.2970 -0.5937
45.9600 15.3036 -0.5856
45.9800 15.3103 -0.5889
46.0000 15.3170 -0.5923
46.0200 15.3237 -0.5872
46.0400 15.3304 -0.5930
46.0600 15.3371 -0.5924
46.0800 15.3438 -0.5868
46.1000 15.3504 -0.5929
46.1200 15.3570 -0.5938
46.1400 15.3636 -0.5882
46.1600 15.3703 -0.5944
46.1800 15.3771 -0.5927
46.2000 15.3838 -0.5914
46.2200 15.3904 -0.5922
46.2400 15.3971 -0.5921
46.2600 15.4038 -0.5892
46.2800 15.4104 -0.5977
46.3000 15.4170 -0.5879
46.3200 15.4236 -0.5890
46.3400 15.4303 -0.5978
46.3600 15.4370 -0.5890
46.3800 15.4437 -0.5901
46.4000 15.4504 -0.6019
46.4200 15.4571 -0.5889
46.4400 15.4637 -0.5892
46.4600 15.4704 -0.5975
46.4800 15.4769 -0.5896
46.5000 15.4836 -0.5937
46.5200 15.4902 -0.5999
46.5400 15.4970 -0.5873
46.5600 15.5037 -0.5928
46.5800 15.5104 -0.6025
46.6000 15.5170 -0.5884
46.6200 15.5237 -0.5946
46.6400 15.5304 -0.6031
46.6600 15.5370 -0.5935
46.6800 15.5436 -0.5939
46.7000 15.5503 -0.6012
46.7200 15.5570 -0.5892
46.7400 15.5637 -0.5998
46.7600 15.5704 -0.5984
46.7800 15.5771 -0.5906
46.8000 15.5838 -0.6003
46.8200 15.5904 -0.5991
46.8400 15.5970 -0.5839
46.8600 15.6036 -0.6003
46.8800 15.6103 -0.6045
46.9000 15.6170 -0.5830
46.9200 15.6237 -0.5999
46.9400 15.6304 -0.6035
46.9600 15.6371 -0.5843
46.9800 15.6438 -0.6068
47.0000 15.6504 -0.6007
47.0200 15.6570 -0.5849
47.0400 15.6636 -0.6076
47.0600 15.6703 -0.6035
47.0800 15.6770 -0.5823
47.1000 15.6837 -0.6073
47.1200 15.6904 -0.6027
47.1400 15.6970 -0.5830
47.1600 15.7037 -0.6091
47.1800 15.7104 -0.5947
47.2000 15.7170 -0.5851
47.2200 15.7236 -0.6068
47.2400 15.7303 -0.5944
47.2600 15.7370 -0.5923
47.2800 15.7437 -0.6067
47.3000 15.7504 -0.5951
47.3200 15.7570 -0.5952
47.3400 15.7637 -0.6060
47.3600 15.7704 -0.5957
47.3800 15.7770 -0.5914
47.4000 15.7836 -0.6089
47.4200 15.7903 -0.5907
47.4400 15.7970 -0.5956
47.4600 15.8037 -0.6074
47.4800 15.8104 -0.5912
47.5000 15.8171 -0.5952
47.5200 15.8237 -0.6049
47.5400 15.8304 -0.5987
47.5600 15.8370 -0.5961
47.5800 15.8436 -0.5978
47.6000 15.8503 -0.5975
47.6200 15.8570 -0.5996
47.6400 15.8637 -0.6038
47.6600 15.8704 -0.5972
47.6800 15.8771 -0.6018
47.7000 15.8838 -0.5959
47.7200 15.8904 -0.6029
47.7400 15.8970 -0.5945
47.7600 15.9036 -0.5981
47.7800 15.9103 -0.6114
47.8000 15.9170 -0.5896
47.8200 15.9237 -0.6005
47.8400 15.9304 -0.6115
47.8600 15.9371 -0.5875
47.8800 15.9437 -0.6076
47.9000 15.9504 -0.6021
47.9200 15.9570 -0.5924
47.9400 15.9636 -0.6073
47.9600 15.9703 -0.5994
47.9800 15.9769 -0.5938
48.0000 15.9837 -0.6085
48.0200 15.9904 -0.6024
48.0400 15.9971 -0.5912
48.0600 16.0037 -0.6098
48.0800 16.0104 -0.5986
48.1000 16.0170 -0.5942
48.1200 16.0236 -0.6066
48.1400 16.0303 -0.5997
48.1600 16.0370 -0.5983
48.1800 16.0437 -0.6070
48.2000 16.0504 -0.6013
48.2200 16.0571 -0.5966
48.2400 16.0638 -0.6009
48.2600 16.0704 -0.6076
48.2800 16.0770 -0.6031
48.3000 16.0836 -0.6009
48.3200 16.0903 -0.6039
48.3400 16.0970 -0.6021
48.3600 16.1037 -0.6006
48.3800 16.1104 -0.6069
48.4000 16.1171 -0.5975
48.4200 16.1238 -0.5977
48.4400 16.1304 -0.6116
48.4600 16.1370 -0.5964
48.4800 16.1436 -0.5992
48.5000 16.1503 -0.6122
48.5200 16.1570 -0.5969
48.5400 16.1637 -0.6014
48.5600 16.1703 -0.6112
48.5800 16.1770 -0.5989
48.6000 16.1837 -0.6011
48.6200 16.1904 -0.6109
48.6400 16.1970 -0.6014
48.6600 16.2036 -0.6010
48.6800 16.2102 -0.6054
48.7000 16.2169 -0.5965
48.7200 16.2237 -0.6091
48.7400 16.2304 -0.6032
48.7600 16.2370 -0.5958
48.7800 16.2437 -0.6077
48.8000 16.2504 -0.6011
48.8200 16.2570 -0.5967
48.8400 16.2636 -0.6060
48.8600 16.2703 -0.6017
48.8800 16.2770 -0.6022
48.9000 16.2837 -0.6031
48.9200 16.2904 -0.6008
48.9400 16.2971 -0.6023
48.9600 16.3038 -0.6037
48.9800 16.3104 -0.5989
49.0000 16.3170 -0.6061
49.0200 16.3236 -0.6070
49.0400 16.3303 -0.6025
49.0600 16.3370 -0.5986
49.0800 16.3437 -0.6042
49.1000 16.3504 -0.6049
49.1200 16.3571 -0.6052
49.1400 16.3637 -0.5993
49.1600 16.3704 -0.6073
49.1800 16.3770 -0.6054
49.2000 16.3836 -0.5995
49.2200 16.3903 -0.6078
49.2400 16.3970 -0.6053
49.2600 16.4037 -0.6042
49.2800 16.4103 -0.6054
49.3000 16.4170 -0.6008
49.3200 16.4237 -0.6027
49.3400 16.4304 -0.6077
49.3600 16.4370 -0.6014
49.3800 16.4436 -0.6006
49.4000 16.4502 -0.6095
49.4200 16.4569 -0.6048
49.4400 16.4637 -0.6032
49.4600 16.4704 -0.6062
49.4800 16.4770 -0.6027
49.5000 16.4837 -0.6062
49.5200 16.4904 -0.6075
49.5400 16.4970 -0.6050
49.5600 16.5036 -0.6024
49.5800 16.5103 -0.6047
49.6000 16.5170 -0.6033
49.6200 16.5237 -0.6059
49.6400 16.5304 -0.6092
49.6600 16.5371 -0.6071
49.6800 16.5437 -0.6022
49.7000 16.5504 -0.6135
49.7200 16.5570 -0.6020
49.7400 16.5636 -0.6049
49.7600 16.5703 -0.6090
49.7800 16.5770 -0.6069
49.8000 16.5837 -0.6067
49.8200 16.5904 -0.6097
49.8400 16.5971 -0.6053
49.8600 16.6037 -0.6069
49.8800 16.6104 -0.6089
49.9000 16.6171 -0.6122
49.9200 16.6237 -0.6115
49.9400 16.6303 -0.6063
49.9600 16.6370 -0.6058
49.9800 16.6437 -0.6156
50.0000 16.6504 -0.6042
50.0200 16.6571 -0.6077
50.0400 16.6637 -0.6136
50.0600 16.6704 -0.6022
50.0800 16.6770 -0.6156
50.1000 16.6836 -0.6123
50.1200 16.6902 -0.6038
50.1400 16.6969 -0.6173
50.1600 16.7037 -0.6092
50.1800 16.7104 -0.6011
50.2000 16.7171 -0.6183
50.2200 16.7237 -0.6140
50.2400 16.7304 -0.5999
50.2600 16.7370 -0.6187
50.2800 16.7436 -0.6107
50.3000 16.7503 -0.5999
50.3200 16.7570 -0.6191
50.3400 16.7637 -0.6054
50.3600 16.7704 -0.6063
50.3800 16.7770 -0.6191
50.4000 16.7837 -0.6097
50.4200 16.7904 -0.6082
50.4400 16.7971 -0.6163
50.4600 16.8037 -0.6087
50.4800 16.8103 -0.6067
50.5000 16.8170 -0.6145
50.5200 16.8237 -0.6104
50.5400 16.8304 -0.6110
50.5600 16.8371 -0.6145
50.5800 16.8438 -0.6128
50.6000 16.8505 -0.6175
50.6200 16.8571 -0.6141
50.6400 16.8637 -0.6170
50.6600 16.8703 -0.6078
50.6800 16.8770 -0.6153
50.7000 16.8837 -0.6199
50.7200 16.8904 -0.6069
50.7400 16.8971 -0.6194
50.7600 16.9037 -0.6152
50.7800 16.9104 -0.6080
50.8000 16.9170 -0.6201
50.8200 16.9236 -0.6208
50.8400 16.9303 -0.6052
50.8600 16.9370 -0.6182
50.8800 16.9437 -0.6245
50.9000 16.9503 -0.6055
50.9200 16.9570 -0.6183
50.9400 16.9637 -0.6240
50.9600 16.9704 -0.6029
50.9800 16.9770 -0.6199
51.0000 16.9836 -0.6232
51.0200 16.9903 -0.6074
51.0400 16.9969 -0.6164
51.0600 17.0037 -0.6222
51.0800 17.0104 -0.6105
51.1000 17.0171 -0.6199
51.1200 17.0238 -0.6188
51.1400 17.0304 -0.6091
51.1600 17.0371 -0.6247
51.1800 17.0437 -0.6194
51.2000 17.0503 -0.6083
51.2200 17.0570 -0.6262
51.2400 17.0637 -0.6183
51.2600 17.0704 -0.6117
51.2800 17.0771 -0.6220
51.3000 17.0837 -0.6186
51.3200 17.0904 -0.6135
51.3400 17.0970 -0.6238
51.3600 17.1036 -0.6113
51.3800 17.1103 -0.6152
51.4000 17.1170 -0.6214
51.4200 17.1237 -0.6147
51.4400 17.1304 -0.6152
51.4600 17.1370 -0.6186
51.4800 17.1437 -0.6180
51.5000 17.1504 -0.6153
51.5200 17.1571 -0.6202
51.5400 17.1636 -0.6168
51.5600 17.1702 -0.6157
51.5800 17.1769 -0.6205
51.6000 17.1836 -0.6167
51.6200 17.1904 -0.6168
51.6400 17.1971 -0.6237
51.6600 17.2037 -0.6170
51.6800 17.2104 -0.6134
51.7000 17.2170 -0.6223
51.7200 17.2236 -0.6226
51.7400 17.2303 -0.6119
51.7600 17.2369 -0.6203
51.7800 17.2437 -0.6172
51.8000 17.2503 -0.6155
51.8200 17.2570 -0.6239
51.8400 17.2637 -0.6180
51.8600 17.2704 -0.6148
51.8800 17.2771 -0.6291
51.9000 17.2837 -0.6184
51.9200 17.2903 -0.6126
51.9400 17.2970 -0.6256
51.9600 17.3037 -0.6222
51.9800 17.3104 -0.6130
52.0000 17.3171 -0.6278
52.0200 17.3237 -0.6153
52.0400 17.3304 -0.6155
52.0600 17.3371 -0.6302
52.0800 17.3437 -0.6213
52.1000 17.3503 -0.6104
52.1200 17.3569 -0.6251
52.1400 17.3636 -0.6213
52.1600 17.3703 -0.6110
52.1800 17.3770 -0.6279
52.2000 17.3837 -0.6200
52.2200 17.3904 -0.6137
52.2400 17.3970 -0.6255
52.2600 17.4036 -0.6202
52.2800 17.4102 -0.6158
52.3000 17.4169 -0.6243
52.3200 17.4236 -0.6193
52.3400 17.4303 -0.6168
52.3600 17.4370 -0.6218
52.3800 17.4437 -0.6204
52.4000 17.4503 -0.6172
52.4200 17.4570 -0.6232
52.4400 17.4636 -0.6225
52.4600 17.4703 -0.6186
52.4800 17.4770 -0.6211
52.5000 17.4837 -0.6226
52.5200 17.4904 -0.6184
52.5400 17.4971 -0.6189
52.5600 17.5037 -0.6195
52.5800 17.5104 -0.6206
52.6000 17.5171 -0.6197
52.6200 17.5237 -0.6274
52.6400 17.5303 -0.6163
52.6600 17.5369 -0.6203
52.6800 17.5437 -0.6229
52.7000 17.5504 -0.6203
52.7200 17.5571 -0.6222
52.7400 17.5638 -0.6277
52.7600 17.5704 -0.6191
52.7800 17.5771 -0.6188
52.8000 17.5837 -0.6260
52.8200 17.5903 -0.6170
52.8400 17.5969 -0.6217
52.8600 17.6037 -0.6297
52.8800 17.6104 -0.6166
52.9000 17.6170 -0.6226
52.9200 17.6237 -0.6278
52.9400 17.6304 -0.6210
52.9600 17.6371 -0.6263
52.9800 17.6437 -0.6280
53.0000 17.6503 -0.6178
53.0200 17.6569 -0.6185
53.0400 17.6636 -0.6294
53.0600 17.6703 -0.6235
53.0800 17.6770 -0.6230
53.1000 17.6837 -0.6256
53.1200 17.6904 -0.6234
53.1400 17.6970 -0.6272
53.1600 17.7037 -0.6248
53.1800 17.7103 -0.6238
53.2000 17.7170 -0.6304
53.2200 17.7237 -0.6263
53.2400 17.7304 -0.6235
53.2600 17.7371 -0.6251
53.2800 17.7438 -0.6308
53.3000 17.7505 -0.6269
53.3200 17.7571 -0.6241
53.3400 17.7637 -0.6277
53.3600 17.7703 -0.6275
53.3800 17.7770 -0.6216
53.4000 17.7837 -0.6310
53.4200 17.7904 -0.6289
53.4400 17.7971 -0.6251
53.4600 17.8038 -0.6294
53.4800 17.8104 -0.6263
53.5000 17.8171 -0.6244
53.5200 17.8237 -0.6296
53.5400 17.8303 -0.6253
53.5600 17.8369 -0.6238
53.5800 17.8436 -0.6296
53.6000 17.8503 -0.6277
53.6200 17.8570 -0.6212
53.6400 17.8637 -0.6304
53.6600 17.8704 -0.6268
53.6800 17.8770 -0.6257
53.7000 17.8837 -0.6312
53.7200 17.8902 -0.6242
53.7400 17.8969 -0.6229
53.7600 17.9036 -0.6298
53.7800 17.9103 -0.6267
53.8000 17.9170 -0.6268
53.8200 17.9237 -0.6292
53.8400 17.9304 -0.6248
53.8600 17.9370 -0.6275
53.8800 17.9437 -0.6269
53.9000 17.9503 -0.6217
53.9200 17.9569 -0.6234
53.9400 17.9636 -0.6301
53.9600 17.9704 -0.6218
53.9800 17.9770 -0.6252
54.0000 17.9837 -0.6289
54.0200 17.9904 -0.6273
54.0400 17.9971 -0.6233
54.0600 18.0037 -0.6273
54.0800 18.0103 -0.6286
54.1000 18.0169 -0.6263
54.1200 18.0236 -0.6215
54.1400 18.0303 -0.6348
54.1600 18.0370 -0.6252
54.1800 18.0437 -0.6220
54.2000 18.0504 -0.6339
54.2200 18.0571 -0.6280
54.2400 18.0637 -0.6262
54.2600 18.0703 -0.6321
54.2800 18.0770 -0.6209
54.3000 18.0837 -0.6222
54.3200 18.0904 -0.6366
54.3400 18.0971 -0.6216
54.3600 18.1037 -0.6276
54.3800 18.1104 -0.6363
54.4000 18.1171 -0.6193
54.4200 18.1237 -0.6319
54.4400 18.1303 -0.6329
54.4600 18.1369 -0.6189
54.4800 18.1436 -0.6348
54.5000 18.1503 -0.6332
54.5200 18.1570 -0.6188
54.5400 18.1637 -0.6308
54.5600 18.1703 -0.6376
54.5800 18.1770 -0.6223
54.6000 18.1837 -0.6330
54.6200 18.1903 -0.6308
54.6400 18.1969 -0.6229
54.6600 18.2036 -0.6313
54.6800 18.2103 -0.6328
54.7000 18.2170 -0.6271
54.7200 18.2238 -0.6275
54.7400 18.2305 -0.6310
54.7600 18.2371 -0.6302
54.7800 18.2437 -0.6278
54.8000 18.2503 -0.6364
54.8200 18.2570 -0.6213
54.8400 18.2636 -0.6278
54.8600 18.2704 -0.6328
54.8800 18.2771 -0.6267
54.9000 18.2838 -0.6330
54.9200 18.2904 -0.6338
54.9400 18.2971 -0.6253
54.9600 18.3037 -0.6331
54.9800 18.3103 -0.6347
55.0000 18.3169 -0.6229
55.0200 18.3236 -0.6312
55.0400 18.3303 -0.6377
55.0600 18.3370 -0.6232
55.0800 18.3437 -0.6319
55.1000 18.3504 -0.6353
55.1200 18.3571 -0.6271
55.1400 18.3637 -0.6296
55.1600 18.3703 -0.6373
55.1800 18.3769 -0.6306
55.2000 18.3836 -0.6286
55.2200 18.3903 -0.6388
55.2400 18.3970 -0.6301
55.2600 18.4037 -0.6298
55.2800 18.4104 -0.6338
55.3000 18.4170 -0.6350
55.3200 18.4237 -0.6328
55.3400 18.4303 -0.6346
55.3600 18.4369 -0.6279
55.3800 18.4436 -0.6309
55.4000 18.4504 -0.6405
55.4200 18.4571 -0.6336
55.4400 18.4637 -0.6298
55.4600 18.4704 -0.6388
55.4800 18.4771 -0.6322
55.5000 18.4838 -0.6360
55.5200 18.4904 -0.6362
55.5400 18.4970 -0.6317
55.5600 18.5037 -0.6340
55.5800 18.5103 -0.6385
55.6000 18.5170 -0.6341
55.6200 18.5237 -0.6359
55.6400 18.5304 -0.6383
55.6600 18.5371 -0.6350
55.6800 18.5437 -0.6374
55.7000 18.5503 -0.6394
55.7200 18.5569 -0.6305
55.7400 18.5636 -0.6388
55.7600 18.5703 -0.6427
55.7800 18.5770 -0.6310
55.8000 18.5837 -0.6350
55.8200 18.5904 -0.6420
55.8400 18.5971 -0.6356
55.8600 18.6037 -0.6406
55.8800 18.6103 -0.6450
55.9000 18.6169 -0.6341
55.9200 18.6236 -0.6393
55.9400 18.6303 -0.6458
55.9600 18.6370 -0.6346
55.9800 18.6437 -0.6354
56.0000 18.6504 -0.6466
56.0200 18.6571 -0.6317
56.0400 18.6637 -0.6400
56.0600 18.6703 -0.6469
56.0800 18.6770 -0.6285
56.1000 18.6836 -0.6418
56.1200 18.6903 -0.6453
56.1400 18.6970 -0.6314
56.1600 18.7037 -0.6407
56.1800 18.7104 -0.6446
56.2000 18.7171 -0.6381
56.2200 18.7238 -0.6359
56.2400 18.7304 -0.6455
56.2600 18.7370 -0.6325
56.2800 18.7436 -0.6397
56.3000 18.7503 -0.6443
56.3200 18.7571 -0.6372
56.3400 18.7638 -0.6357
56.3600 18.7704 -0.6420
56.3800 18.7771 -0.6406
56.4000 18.7837 -0.6376
56.4200 18.7903 -0.6456
56.4400 18.7970 -0.6379
56.4600 18.8036 -0.6284
56.4800 18.8103 -0.6475
56.5000 18.8170 -0.6395
56.5200 18.8237 -0.6345
56.5400 18.8304 -0.6483
56.5600 18.8370 -0.6362
56.5800 18.8437 -0.6327
56.6000 18.8503 -0.6465
56.6200 18.8569 -0.6398
56.6400 18.8636 -0.6312
56.6600 18.8703 -0.6474
56.6800 18.8770 -0.6347
56.7000 18.8837 -0.6356
56.7200 18.8904 -0.6474
56.7400 18.8971 -0.6344
56.7600 18.9037 -0.6348
56.7800 18.9103 -0.6485
56.8000 18.9170 -0.6326
56.8200 18.9236 -0.6308
56.8400 18.9303 -0.6457
56.8600 18.9371 -0.6407
56.8800 18.9438 -0.6282
56.9000 18.9504 -0.6426
56.9200 18.9571 -0.6388
56.9400 18.9638 -0.6321
56.9600 18.9703 -0.6411
56.9800 18.9770 -0.6363
57.0000 18.9836 -0.6346
57.0200 18.9904 -0.6389
57.0400 18.9971 -0.6348
57.0600 19.0037 -0.6356
57.0800 19.0104 -0.6409
57.1000 19.0171 -0.6388
57.1200 19.0237 -0.6360
57.1400 19.0303 -0.6390
57.1600 19.0369 -0.6377
57.1800 19.0436 -0.6365
57.2000 19.0503 -0.6347
57.2200 19.0570 -0.6393
57.2400 19.0637 -0.6376
57.2600 19.0704 -0.6329
57.2800 19.0771 -0.6373
57.3000 19.0837 -0.6376
57.3200 19.0903 -0.6392
57.3400 19.0969 -0.6363
57.3600 19.1036 -0.6339
57.3800 19.1103 -0.6398
57.4000 19.1170 -0.6406
57.4200 19.1237 -0.6370
57.4400 19.1304 -0.6428
57.4600 19.1370 -0.6388
57.4800 19.1437 -0.6361
57.5000 19.1503 -0.6422
57.5200 19.1569 -0.6408
57.5400 19.1636 -0.6322
57.5600 19.1703 -0.6454
57.5800 19.1770 -0.6395
57.6000 19.1837 -0.6323
57.6200 19.1904 -0.6454
57.6400 19.1971 -0.6398
57.6600 19.2038 -0.6392
57.6800 19.2104 -0.6421
57.7000 19.2170 -0.6394
57.7200 19.2236 -0.6456
57.7400 19.2303 -0.6369
57.7600 19.2371 -0.6377
57.7800 19.2437 -0.6482
57.8000 19.2504 -0.6352
57.8200 19.2571 -0.6438
57.8400 19.2638 -0.6518
57.8600 19.2704 -0.6364
57.8800 19.2770 -0.6462
57.9000 19.2836 -0.6460
57.9200 19.2903 -0.6335
57.9400 19.2970 -0.6542
57.9600 19.3037 -0.6412
57.9800 19.3104 -0.6316
58.0000 19.3170 -0.6562
58.0200 19.3237 -0.6404
58.0400 19.3304 -0.6394
58.0600 19.3370 -0.6588
58.0800 19.3436 -0.6300
58.1000 19.3503 -0.6407
58.1200 19.3570 -0.6566
58.1400 19.3637 -0.6338
58.1600 19.3703 -0.6477
58.1800 19.3770 -0.6543
58.2000 19.3837 -0.6319
58.2200 19.3903 -0.6518
58.2400 19.3970 -0.6455
58.2600 19.4036 -0.6342
58.2800 19.4103 -0.6539
58.3000 19.4170 -0.6443
58.3200 19.4237 -0.6340
58.3400 19.4304 -0.6560
58.3600 19.4371 -0.6422
58.3800 19.4438 -0.6405
58.4000 19.4504 -0.6535
58.4200 19.4570 -0.6393
58.4400 19.4636 -0.6374
58.4600 19.4703 -0.6531
58.4800 19.4770 -0.6400
58.5000 19.4837 -0.6442
58.5200 19.4904 -0.6519
58.5400 19.4971 -0.6366
58.5600 19.5038 -0.6474
58.5800 19.5104 -0.6531
58.6000 19.5170 -0.6368
58.6200 19.5236 -0.6454
58.6400 19.5303 -0.6480
58.6600 19.5370 -0.6380
58.6800 19.5437 -0.6510
58.7000 19.5504 -0.6487
58.7200 19.5571 -0.6389
58.7400 19.5637 -0.6555
58.7600 19.5704 -0.6397
58.7800 19.5770 -0.6423
58.8000 19.5836 -0.6568
58.8200 19.5903 -0.6370
58.8400 19.5970 -0.6454
58.8600 19.6037 -0.6542
58.8800 19.6103 -0.6340
58.9000 19.6170 -0.6450
58.9200 19.6237 -0.6547
58.9400 19.6303 -0.6320
58.9600 19.6369 -0.6447
58.9800 19.6436 -0.6546
59.0000 19.6503 -0.6315
59.0200 19.6570 -0.6456
59.0400 19.6637 -0.6569
59.0600 19.6704 -0.6291
59.0800 19.6771 -0.6458
59.1000 19.6838 -0.6510
59.1200 19.6904 -0.6373
59.1400 19.6970 -0.6440
59.1600 19.7037 -0.6471
59.1800 19.7103 -0.6385
59.2000 19.7170 -0.6463
59.2200 19.7237 -0.6462
59.2400 19.7304 -0.6381
59.2600 19.7371 -0.6479
59.2800 19.7437 -0.6444
59.3000 19.7503 -0.6503
