Raw Data
Time Displacement Force
(s) (mm) (N)
0.0000 0.0000 -0.5523
0.0200 0.0000 -0.5670
0.0400 0.0008 -0.5200
0.0600 0.0039 -0.3953
0.0800 0.0094 -0.2715
0.1000 0.0151 -0.1397
0.1200 0.0210 -0.0793
0.1400 0.0276 -0.1692
0.1600 0.0349 -0.2093
0.1800 0.0424 -0.1832
0.2000 0.0496 -0.1858
0.2200 0.0565 -0.1724
0.2400 0.0632 -0.1328
0.2600 0.0698 -0.1429
0.2800 0.0765 -0.1359
0.3000 0.0832 -0.1055
0.3200 0.0899 -0.1271
0.3400 0.0966 -0.1207
0.3600 0.1033 -0.0917
0.3800 0.1100 -0.0972
0.4000 0.1166 -0.0906
0.4200 0.1233 -0.0485
0.4400 0.1300 -0.0463
0.4600 0.1367 -0.0332
0.4800 0.1434 0.0072
0.5000 0.1501 0.0241
0.5200 0.1567 0.0403
0.5400 0.1634 0.0770
0.5600 0.1699 0.0950
0.5800 0.1766 0.1220
0.6000 0.1833 0.1589
0.6200 0.1900 0.1780
0.6400 0.1967 0.1968
0.6600 0.2033 0.2377
0.6800 0.2100 0.2532
0.7000 0.2167 0.2660
0.7200 0.2233 0.3112
0.7400 0.2300 0.3248
0.7600 0.2366 0.3458
0.7800 0.2433 0.3935
0.8000 0.2500 0.4047
0.8200 0.2566 0.4245
0.8400 0.2633 0.4840
0.8600 0.2700 0.5046
0.8800 0.2767 0.5469
0.9000 0.2833 0.5981
0.9200 0.2899 0.6207
0.9400 0.2965 0.6627
0.9600 0.3032 0.6862
0.9800 0.3099 0.6671
1.0000 0.3166 0.7034
1.0200 0.3233 0.7525
1.0400 0.3300 0.7764
1.0600 0.3366 0.8245
1.0800 0.3433 0.8717
1.1000 0.3499 0.8911
1.1200 0.3565 0.9294
1.1400 0.3632 0.9571
1.1600 0.3700 0.9733
1.1800 0.3767 1.0088
1.2000 0.3834 1.0338
1.2200 0.3900 1.0547
1.2400 0.3967 1.0949
1.2600 0.4034 1.1209
1.2800 0.4100 1.1434
1.3000 0.4166 1.1744
1.3200 0.4233 1.1990
1.3400 0.4300 1.2269
1.3600 0.4367 1.2497
1.3800 0.4434 1.2711
1.4000 0.4501 1.2786
1.4200 0.4567 1.2798
1.4400 0.4634 1.2784
1.4600 0.4699 1.2883
1.4800 0.4765 1.2825
1.5000 0.4832 1.2869
1.5200 0.4899 1.2869
1.5400 0.4966 1.2829
1.5600 0.5033 1.2859
1.5800 0.5100 1.2962
1.6000 0.5167 1.2810
1.6200 0.5233 1.2885
1.6400 0.5299 1.2957
1.6600 0.5365 1.2861
1.6800 0.5432 1.2907
1.7000 0.5500 1.2954
1.7200 0.5567 1.2858
1.7400 0.5633 1.2910
1.7600 0.5700 1.2956
1.7800 0.5767 1.2875
1.8000 0.5833 1.2896
1.8200 0.5900 1.2912
1.8400 0.5966 1.2923
1.8600 0.6033 1.2864
1.8800 0.6100 1.2921
1.9000 0.6167 1.2893
1.9200 0.6233 1.2812
1.9400 0.6300 1.2872
1.9600 0.6367 1.2895
1.9800 0.6434 1.2768
2.0000 0.6500 1.2847
2.0200 0.6566 1.2905
2.0400 0.6632 1.2761
2.0600 0.6700 1.2812
2.0800 0.6767 1.2893
2.1000 0.6834 1.2698
2.1200 0.6900 1.2761
2.1400 0.6967 1.2817
2.1600 0.7033 1.2687
2.1800 0.7099 1.2751
2.2000 0.7166 1.2801
2.2200 0.7233 1.2610
2.2400 0.7300 1.2748
2.2600 0.7367 1.2774
2.2800 0.7433 1.2554
2.3000 0.7500 1.2777
2.3200 0.7567 1.2710
2.3400 0.7633 1.2553
2.3600 0.7700 1.2657
2.3800 0.7766 1.2722
2.4000 0.7832 1.2522
2.4200 0.7899 1.2656
2.4400 0.7966 1.2669
2.4600 0.8033 1.2478
2.4800 0.8100 1.2673
2.5000 0.8167 1.2681
2.5200 0.8234 1.2428
2.5400 0.8300 1.2690
2.5600 0.8366 1.2631
2.5800 0.8432 1.2462
2.6000 0.8500 1.2650
2.6200 0.8567 1.2601
2.6400 0.8634 1.2426
2.6600 0.8701 1.2583
2.6800 0.8767 1.2565
2.7000 0.8834 1.2469
2.7200 0.8900 1.2565
2.7400 0.8966 1.2542
2.7600 0.9033 1.2461
2.7800 0.9100 1.2587
2.8000 0.9167 1.2541
2.8200 0.9234 1.2436
2.8400 0.9300 1.2555
2.8600 0.9367 1.2540
2.8800 0.9434 1.2466
2.9000 0.9500 1.2468
2.9200 0.9566 1.2527
2.9400 0.9632 1.2473
2.9600 0.9699 1.2506
2.9800 0.9766 1.2499
3.0000 0.9833 1.2439
3.0200 0.9900 1.2470
3.0400 0.9967 1.2527
3.0600 1.0033 1.2419
3.0800 1.0099 1.2453
3.1000 1.0165 1.2499
3.1200 1.0232 1.2445
3.1400 1.0299 1.2431
3.1600 1.0366 1.2520
3.1800 1.0433 1.2362
3.2000 1.0500 1.2456
3.2200 1.0567 1.2516
3.2400 1.0633 1.2400
3.2600 1.0700 1.2456
3.2800 1.0766 1.2500
3.3000 1.0833 1.2391
3.3200 1.0900 1.2481
3.3400 1.0967 1.2476
3.3600 1.1033 1.2401
3.3800 1.1100 1.2484
3.4000 1.1168 1.2473
3.4200 1.1234 1.2371
3.4400 1.1300 1.2452
3.4600 1.1366 1.2470
3.4800 1.1433 1.2386
3.5000 1.1500 1.2520
3.5200 1.1567 1.2403
3.5400 1.1634 1.2369
3.5600 1.1700 1.2457
3.5800 1.1767 1.2431
3.6000 1.1834 1.2333
3.6200 1.1900 1.2472
3.6400 1.1966 1.2402
3.6600 1.2032 1.2332
3.6800 1.2099 1.2501
3.7000 1.2167 1.2403
3.7200 1.2233 1.2250
3.7400 1.2300 1.2496
3.7600 1.2367 1.2427
3.7800 1.2433 1.2246
3.8000 1.2500 1.2418
3.8200 1.2566 1.2429
3.8400 1.2632 1.2208
3.8600 1.2699 1.2389
3.8800 1.2766 1.2418
3.9000 1.2833 1.2223
3.9200 1.2900 1.2438
3.9400 1.2967 1.2398
3.9600 1.3034 1.2220
3.9800 1.3100 1.2390
4.0000 1.3166 1.2372
4.0200 1.3232 1.2245
4.0400 1.3299 1.2356
4.0600 1.3366 1.2322
4.0800 1.3433 1.2295
4.1000 1.3500 1.2351
4.1200 1.3567 1.2262
4.1400 1.3634 1.2253
4.1600 1.3700 1.2432
4.1800 1.3766 1.2240
4.2000 1.3832 1.2299
4.2200 1.3900 1.2328
4.2400 1.3967 1.2264
4.2600 1.4034 1.2301
4.2800 1.4100 1.2322
4.3000 1.4167 1.2291
4.3200 1.4234 1.2257
4.3400 1.4300 1.2295
4.3600 1.4366 1.2305
4.3800 1.4432 1.2258
4.4000 1.4499 1.2298
4.4200 1.4566 1.2244
4.4400 1.4633 1.2177
4.4600 1.4700 1.2273
4.4800 1.4767 1.2310
4.5000 1.4833 1.2197
4.5200 1.4900 1.2207
4.5400 1.4966 1.2287
4.5600 1.5032 1.2154
4.5800 1.5099 1.2275
4.6000 1.5166 1.2262
4.6200 1.5233 1.2193
4.6400 1.5300 1.2281
4.6600 1.5367 1.2284
4.6800 1.5434 1.2140
4.7000 1.5500 1.2287
4.7200 1.5566 1.2266
4.7400 1.5632 1.2172
4.7600 1.5700 1.2212
4.7800 1.5767 1.2228
4.8000 1.5834 1.2225
4.8200 1.5901 1.2193
4.8400 1.5967 1.2232
4.8600 1.6034 1.2279
4.8800 1.6100 1.2178
4.9000 1.6166 1.2203
4.9200 1.6232 1.2262
4.9400 1.6299 1.2134
4.9600 1.6366 1.2187
4.9800 1.6433 1.2249
5.0000 1.6500 1.2108
5.0200 1.6567 1.2223
5.0400 1.6634 1.2231
5.0600 1.6700 1.2017
5.0800 1.6766 1.2226
5.1000 1.6832 1.2240
5.1200 1.6899 1.2034
5.1400 1.6966 1.2219
5.1600 1.7033 1.2195
5.1800 1.7100 1.1989
5.2000 1.7167 1.2236
5.2200 1.7234 1.2144
5.2400 1.7300 1.2064
5.2600 1.7366 1.2210
5.2800 1.7432 1.2120
5.3000 1.7499 1.2060
5.3200 1.7566 1.2213
5.3400 1.7633 1.2094
5.3600 1.7700 1.2062
5.3800 1.7767 1.2178
5.4000 1.7833 1.2060
5.4200 1.7900 1.2008
5.4400 1.7966 1.2172
5.4600 1.8032 1.2037
5.4800 1.8099 1.2033
5.5000 1.8166 1.2180
5.5200 1.8233 1.1976
5.5400 1.8300 1.2083
5.5600 1.8367 1.2138
5.5800 1.8434 1.2010
5.6000 1.8500 1.2023
5.6200 1.8566 1.2087
5.6400 1.8632 1.2037
5.6600 1.8699 1.2054
5.6800 1.8767 1.2041
5.7000 1.8834 1.1991
5.7200 1.8900 1.2002
5.7400 1.8967 1.2025
5.7600 1.9033 1.1961
5.7800 1.9100 1.2013
5.8000 1.9166 1.2000
5.8200 1.9232 1.1977
5.8400 1.9299 1.1992
5.8600 1.9366 1.1961
5.8800 1.9433 1.1952
5.9000 1.9500 1.2004
5.9200 1.9566 1.1941
5.9400 1.9633 1.1936
5.9600 1.9700 1.1942
5.9800 1.9766 1.1932
6.0000 1.9832 1.1984
6.0200 1.9899 1.1946
6.0400 1.9966 1.1893
6.0600 2.0033 1.1944
6.0800 2.0100 1.1922
6.1000 2.0167 1.1908
6.1200 2.0234 1.2014
6.1400 2.0300 1.1863
6.1600 2.0366 1.1857
6.1800 2.0433 1.1908
6.2000 2.0499 1.1912
6.2200 2.0566 1.1832
6.2400 2.0633 1.1905
6.2600 2.0700 1.1851
6.2800 2.0767 1.1857
6.3000 2.0834 1.1885
6.3200 2.0900 1.1879
6.3400 2.0966 1.1824
6.3600 2.1032 1.1933
6.3800 2.1099 1.1849
6.4000 2.1167 1.1827
6.4200 2.1234 1.1884
6.4400 2.1300 1.1864
6.4600 2.1367 1.1814
6.4800 2.1434 1.1896
6.5000 2.1501 1.1854
6.5200 2.1567 1.1805
6.5400 2.1633 1.1918
6.5600 2.1699 1.1837
6.5800 2.1766 1.1816
6.6000 2.1833 1.1898
6.6200 2.1900 1.1816
6.6400 2.1967 1.1765
6.6600 2.2034 1.1879
6.6800 2.2100 1.1798
6.7000 2.2166 1.1778
6.7200 2.2232 1.1857
6.7400 2.2299 1.1806
6.7600 2.2366 1.1787
6.7800 2.2433 1.1845
6.8000 2.2500 1.1737
6.8200 2.2567 1.1813
6.8400 2.2633 1.1850
6.8600 2.2700 1.1752
6.8800 2.2766 1.1744
6.9000 2.2832 1.1881
6.9200 2.2899 1.1805
6.9400 2.2966 1.1688
6.9600 2.3033 1.1812
6.9800 2.3100 1.1818
7.0000 2.3167 1.1651
7.0200 2.3234 1.1779
7.0400 2.3300 1.1793
7.0600 2.3366 1.1660
7.0800 2.3433 1.1788
7.1000 2.3499 1.1756
7.1200 2.3566 1.1682
7.1400 2.3633 1.1756
7.1600 2.3700 1.1755
7.1800 2.3767 1.1612
7.2000 2.3834 1.1772
7.2200 2.3901 1.1705
7.2400 2.3966 1.1654
7.2600 2.4032 1.1763
7.2800 2.4099 1.1704
7.3000 2.4166 1.1635
7.3200 2.4233 1.1742
7.3400 2.4300 1.1705
7.3600 2.4367 1.1660
7.3800 2.4433 1.1701
7.4000 2.4500 1.1656
7.4200 2.4566 1.1587
7.4400 2.4632 1.1760
7.4600 2.4699 1.1683
7.4800 2.4766 1.1584
7.5000 2.4833 1.1663
7.5200 2.4899 1.1654
7.5400 2.4966 1.1607
7.5600 2.5033 1.1677
7.5800 2.5100 1.1621
7.6000 2.5166 1.1522
7.6200 2.5232 1.1713
7.6400 2.5299 1.1628
7.6600 2.5366 1.1560
7.6800 2.5433 1.1701
7.7000 2.5500 1.1619
7.7200 2.5567 1.1537
7.7400 2.5634 1.1693
7.7600 2.5701 1.1612
7.7800 2.5767 1.1531
7.8000 2.5833 1.1635
7.8200 2.5899 1.1620
7.8400 2.5966 1.1536
7.8600 2.6034 1.1649
7.8800 2.6101 1.1544
7.9000 2.6167 1.1528
7.9200 2.6234 1.1628
7.9400 2.6300 1.1580
7.9600 2.6366 1.1487
7.9800 2.6432 1.1667
8.0000 2.6499 1.1554
8.0200 2.6566 1.1467
8.0400 2.6633 1.1629
8.0600 2.6700 1.1605
8.0800 2.6767 1.1456
8.1000 2.6834 1.1576
8.1200 2.6900 1.1549
8.1400 2.6966 1.1502
8.1600 2.7032 1.1556
8.1800 2.7098 1.1512
8.2000 2.7165 1.1573
8.2200 2.7233 1.1524
8.2400 2.7300 1.1492
8.2600 2.7367 1.1505
8.2800 2.7434 1.1542
8.3000 2.7500 1.1499
8.3200 2.7566 1.1504
8.3400 2.7632 1.1481
8.3600 2.7699 1.1566
8.3800 2.7766 1.1520
8.4000 2.7833 1.1437
8.4200 2.7900 1.1563
8.4400 2.7967 1.1512
8.4600 2.8034 1.1406
8.4800 2.8101 1.1562
8.5000 2.8167 1.1467
8.5200 2.8233 1.1459
8.5400 2.8299 1.1556
8.5600 2.8366 1.1429
8.5800 2.8433 1.1447
8.6000 2.8500 1.1559
8.6200 2.8567 1.1444
8.6400 2.8634 1.1436
8.6600 2.8701 1.1521
8.6800 2.8767 1.1420
8.7000 2.8833 1.1472
8.7200 2.8899 1.1525
8.7400 2.8966 1.1420
8.7600 2.9033 1.1431
8.7800 2.9100 1.1493
8.8000 2.9167 1.1404
8.8200 2.9234 1.1483
8.8400 2.9300 1.1452
8.8600 2.9366 1.1367
8.8800 2.9432 1.1488
8.9000 2.9499 1.1475
8.9200 2.9565 1.1359
8.9400 2.9633 1.1524
8.9600 2.9699 1.1391
8.9800 2.9766 1.1370
9.0000 2.9833 1.1459
9.0200 2.9900 1.1406
9.0400 2.9966 1.1375
9.0600 3.0033 1.1470
9.0800 3.0099 1.1409
9.1000 3.0166 1.1366
9.1200 3.0233 1.1432
9.1400 3.0300 1.1360
9.1600 3.0367 1.1357
9.1800 3.0434 1.1429
9.2000 3.0500 1.1328
9.2200 3.0567 1.1339
9.2400 3.0633 1.1394
9.2600 3.0699 1.1337
9.2800 3.0766 1.1385
9.3000 3.0833 1.1395
9.3200 3.0900 1.1353
9.3400 3.0967 1.1316
9.3600 3.1034 1.1399
9.3800 3.1101 1.1326
9.4000 3.1167 1.1339
9.4200 3.1233 1.1337
9.4400 3.1299 1.1362
9.4600 3.1366 1.1381
9.4800 3.1433 1.1341
9.5000 3.1500 1.1280
9.5200 3.1567 1.1372
9.5400 3.1633 1.1358
9.5600 3.1700 1.1355
9.5800 3.1767 1.1269
9.6000 3.1833 1.1354
9.6200 3.1899 1.1362
9.6400 3.1966 1.1252
9.6600 3.2033 1.1284
9.6800 3.2100 1.1396
9.7000 3.2166 1.1282
9.7200 3.2233 1.1238
9.7400 3.2300 1.1336
9.7600 3.2366 1.1297
9.7800 3.2432 1.1306
9.8000 3.2499 1.1350
9.8200 3.2566 1.1306
9.8400 3.2633 1.1235
9.8600 3.2700 1.1289
9.8800 3.2767 1.1267
9.9000 3.2834 1.1319
9.9200 3.2901 1.1268
9.9400 3.2967 1.1239
9.9600 3.3033 1.1307
9.9800 3.3099 1.1295
10.0000 3.3166 1.1228
10.0200 3.3233 1.1308
10.0400 3.3300 1.1183
10.0600 3.3367 1.1276
10.0800 3.3434 1.1262
10.1000 3.3501 1.1210
10.1200 3.3567 1.1231
10.1400 3.3633 1.1220
10.1600 3.3699 1.1191
10.1800 3.3766 1.1277
10.2000 3.3833 1.1238
10.2200 3.3900 1.1195
10.2400 3.3966 1.1243
10.2600 3.4033 1.1193
10.2800 3.4100 1.1154
10.3000 3.4166 1.1277
10.3200 3.4232 1.1202
10.3400 3.4299 1.1096
10.3600 3.4366 1.1286
10.3800 3.4433 1.1159
10.4000 3.4500 1.1129
10.4200 3.4567 1.1257
10.4400 3.4633 1.1165
10.4600 3.4700 1.1118
10.4800 3.4767 1.1253
10.5000 3.4833 1.1136
10.5200 3.4899 1.1097
10.5400 3.4966 1.1238
10.5600 3.5033 1.1186
10.5800 3.5100 1.1009
10.6000 3.5166 1.1222
10.6200 3.5233 1.1212
10.6400 3.5300 1.0979
10.6600 3.5367 1.1212
10.6800 3.5433 1.1314
10.7000 3.5499 1.0845
10.7200 3.5566 1.1152
10.7400 3.5633 1.1395
10.7600 3.5700 1.0842
10.7800 3.5767 1.1135
10.8000 3.5834 1.1433
10.8200 3.5900 1.0721
10.8400 3.5967 1.1107
10.8600 3.6033 1.1435
10.8800 3.6099 1.0743
10.9000 3.6166 1.1105
10.9200 3.6233 1.1464
10.9400 3.6300 1.0688
10.9600 3.6367 1.1049
10.9800 3.6434 1.1509
11.0000 3.6500 1.0746
11.0200 3.6567 1.1026
11.0400 3.6632 1.1329
11.0600 3.6699 1.0790
11.0800 3.6765 1.1086
11.1000 3.6833 1.1337
11.1200 3.6900 1.0759
11.1400 3.6966 1.1157
11.1600 3.7033 1.1244
11.1800 3.7100 1.0768
11.2000 3.7166 1.1180
11.2200 3.7233 1.1207
11.2400 3.7299 1.0838
11.2600 3.7366 1.1179
11.2800 3.7433 1.1046
11.3000 3.7500 1.0909
11.3200 3.7567 1.1180
11.3400 3.7634 1.0972
11.3600 3.7701 1.0947
11.3800 3.7767 1.1148
11.4000 3.7833 1.0849
11.4200 3.7899 1.1043
11.4400 3.7965 1.1192
11.4600 3.8033 1.0795
11.4800 3.8100 1.1058
11.5000 3.8167 1.1133
11.5200 3.8234 1.0790
11.5400 3.8301 1.1059
11.5600 3.8367 1.1105
11.5800 3.8433 1.0797
11.6000 3.8499 1.1093
11.6200 3.8566 1.1039
11.6400 3.8633 1.0864
11.6600 3.8700 1.1061
11.6800 3.8766 1.0994
11.7000 3.8833 1.0864
11.7200 3.8900 1.1102
11.7400 3.8966 1.0954
11.7600 3.9033 1.0898
11.7800 3.9099 1.1037
11.8000 3.9165 1.1016
11.8200 3.9232 1.0892
11.8400 3.9299 1.1019
11.8600 3.9366 1.0994
11.8800 3.9433 1.0924
11.9000 3.9500 1.0962
11.9200 3.9567 1.0956
11.9400 3.9633 1.0941
11.9600 3.9699 1.1004
11.9800 3.9766 1.0964
12.0000 3.9833 1.0860
12.0200 3.9900 1.0998
12.0400 3.9967 1.0962
12.0600 4.0034 1.0883
12.0800 4.0100 1.0986
12.1000 4.0167 1.0968
12.1200 4.0233 1.0918
12.1400 4.0300 1.0963
12.1600 4.0366 1.0880
12.1800 4.0433 1.0908
12.2000 4.0500 1.0975
12.2200 4.0567 1.0894
12.2400 4.0633 1.0885
12.2600 4.0700 1.0933
12.2800 4.0767 1.0925
12.3000 4.0833 1.0918
12.3200 4.0899 1.0914
12.3400 4.0965 1.0934
12.3600 4.1032 1.0904
12.3800 4.1100 1.0916
12.4000 4.1167 1.0910
12.4200 4.1233 1.0907
12.4400 4.1300 1.0849
12.4600 4.1367 1.0878
12.4800 4.1433 1.0839
12.5000 4.1499 1.0869
12.5200 4.1566 1.0936
12.5400 4.1633 1.0853
12.5600 4.1700 1.0826
12.5800 4.1767 1.0852
12.6000 4.1833 1.0884
12.6200 4.1900 1.0828
12.6400 4.1967 1.0869
12.6600 4.2033 1.0846
12.6800 4.2099 1.0833
12.7000 4.2166 1.0864
12.7200 4.2233 1.0850
12.7400 4.2300 1.0808
12.7600 4.2367 1.0844
12.7800 4.2434 1.0816
12.8000 4.2501 1.0887
12.8200 4.2567 1.0794
12.8400 4.2633 1.0820
12.8600 4.2699 1.0811
12.8800 4.2766 1.0821
12.9000 4.2833 1.0790
12.9200 4.2900 1.0848
12.9400 4.2967 1.0770
12.9600 4.3034 1.0770
12.9800 4.3100 1.0823
13.0000 4.3167 1.0710
13.0200 4.3233 1.0898
13.0400 4.3299 1.0794
13.0600 4.3366 1.0642
13.0800 4.3433 1.0913
13.1000 4.3500 1.0934
13.1200 4.3567 1.0520
13.1400 4.3634 1.0886
13.1600 4.3700 1.0930
13.1800 4.3767 1.0507
13.2000 4.3833 1.0914
13.2200 4.3899 1.0795
13.2400 4.3965 1.0585
13.2600 4.4032 1.1102
13.2800 4.4099 1.0582
13.3000 4.4166 1.0539
13.3200 4.4233 1.1179
13.3400 4.4300 1.0627
13.3600 4.4367 1.0466
13.3800 4.4433 1.1115
13.4000 4.4499 1.0615
13.4200 4.4566 1.0576
13.4400 4.4633 1.1019
13.4600 4.4700 1.0482
13.4800 4.4767 1.0750
13.5000 4.4834 1.0997
13.5200 4.4901 1.0389
13.5400 4.4967 1.0832
13.5600 4.5033 1.0907
13.5800 4.5099 1.0442
13.6000 4.5166 1.0821
13.6200 4.5233 1.0771
13.6400 4.5300 1.0458
13.6600 4.5367 1.0912
13.6800 4.5433 1.0668
13.7000 4.5500 1.0569
13.7200 4.5567 1.0883
13.7400 4.5633 1.0449
13.7600 4.5699 1.0596
13.7800 4.5765 1.0930
13.8000 4.5832 1.0584
13.8200 4.5899 1.0565
13.8400 4.5966 1.0722
13.8600 4.6033 1.0560
13.8800 4.6100 1.0720
13.9000 4.6167 1.0606
13.9200 4.6233 1.0579
13.9400 4.6299 1.0741
13.9600 4.6365 1.0556
13.9800 4.6432 1.0543
14.0000 4.6500 1.0850
14.0200 4.6567 1.0544
14.0400 4.6633 1.0515
14.0600 4.6700 1.0740
14.0800 4.6767 1.0469
14.1000 4.6833 1.0564
14.1200 4.6899 1.0791
14.1400 4.6966 1.0457
14.1600 4.7033 1.0521
14.1800 4.7100 1.0714
14.2000 4.7167 1.0427
14.2200 4.7234 1.0614
14.2400 4.7301 1.0681
14.2600 4.7367 1.0392
14.2800 4.7434 1.0589
14.3000 4.7500 1.0676
14.3200 4.7566 1.0370
14.3400 4.7633 1.0654
14.3600 4.7700 1.0617
14.3800 4.7767 1.0395
14.4000 4.7834 1.0623
14.4200 4.7901 1.0620
14.4400 4.7968 1.0414
14.4600 4.8034 1.0635
14.4800 4.8100 1.0583
14.5000 4.8166 1.0412
14.5200 4.8232 1.0581
14.5400 4.8299 1.0580
14.5600 4.8366 1.0398
14.5800 4.8433 1.0644
14.6000 4.8499 1.0534
14.6200 4.8566 1.0391
14.6400 4.8632 1.0665
14.6600 4.8699 1.0547
14.6800 4.8765 1.0410
14.7000 4.8833 1.0573
14.7200 4.8900 1.0547
14.7400 4.8967 1.0387
14.7600 4.9033 1.0587
14.7800 4.9100 1.0528
14.8000 4.9167 1.0450
14.8200 4.9234 1.0544
14.8400 4.9300 1.0462
14.8600 4.9366 1.0438
14.8800 4.9433 1.0607
14.9000 4.9500 1.0447
14.9200 4.9567 1.0456
14.9400 4.9634 1.0530
14.9600 4.9701 1.0510
14.9800 4.9768 1.0414
15.0000 4.9834 1.0525
15.0200 4.9899 1.0508
15.0400 4.9966 1.0446
15.0600 5.0032 1.0461
15.0800 5.0100 1.0514
15.1000 5.0167 1.0453
15.1200 5.0234 1.0434
15.1400 5.0300 1.0469
15.1600 5.0367 1.0454
15.1800 5.0433 1.0425
15.2000 5.0500 1.0478
15.2200 5.0566 1.0454
15.2400 5.0633 1.0448
15.2600 5.0700 1.0476
15.2800 5.0767 1.0412
15.3000 5.0833 1.0445
15.3200 5.0900 1.0472
15.3400 5.0967 1.0418
15.3600 5.1033 1.0327
15.3800 5.1099 1.0507
15.4000 5.1165 1.0453
15.4200 5.1231 1.0307
15.4400 5.1298 1.0459
15.4600 5.1365 1.0456
15.4800 5.1433 1.0289
15.5000 5.1500 1.0486
15.5200 5.1567 1.0387
15.5400 5.1634 1.0259
15.5600 5.1700 1.0442
15.5800 5.1766 1.0387
15.6000 5.1833 1.0246
15.6200 5.1900 1.0542
15.6400 5.1967 1.0345
15.6600 5.2034 1.0221
15.6800 5.2100 1.0491
15.7000 5.2167 1.0361
15.7200 5.2234 1.0216
15.7400 5.2300 1.0413
15.7600 5.2367 1.0291
15.7800 5.2433 1.0279
15.8000 5.2500 1.0436
15.8200 5.2567 1.0193
15.8400 5.2634 1.0329
15.8600 5.2701 1.0448
15.8800 5.2767 1.0237
15.9000 5.2834 1.0228
15.9200 5.2900 1.0427
15.9400 5.2966 1.0271
15.9600 5.3032 1.0249
15.9800 5.3099 1.0365
16.0000 5.3166 1.0256
16.0200 5.3233 1.0230
16.0400 5.3300 1.0358
16.0600 5.3367 1.0210
16.0800 5.3433 1.0179
16.1000 5.3499 1.0374
16.1200 5.3565 1.0214
16.1400 5.3632 1.0195
16.1600 5.3700 1.0351
16.1800 5.3767 1.0172
16.2000 5.3833 1.0159
16.2200 5.3899 1.0360
16.2400 5.3966 1.0193
16.2600 5.4032 1.0195
16.2800 5.4099 1.0343
16.3000 5.4166 1.0157
16.3200 5.4233 1.0201
16.3400 5.4300 1.0311
16.3600 5.4367 1.0091
16.3800 5.4434 1.0250
16.4000 5.4501 1.0252
16.4200 5.4567 1.0039
16.4400 5.4634 1.0234
16.4600 5.4700 1.0283
16.4800 5.4766 1.0021
16.5000 5.4832 1.0268
16.5200 5.4899 1.0208
16.5400 5.4967 1.0065
16.5600 5.5034 1.0281
16.5800 5.5100 1.0195
16.6000 5.5167 1.0016
16.6200 5.5233 1.0269
16.6400 5.5299 1.0162
16.6600 5.5366 1.0106
16.6800 5.5432 1.0303
16.7000 5.5500 1.0081
16.7200 5.5567 1.0076
16.7400 5.5633 1.0288
16.7600 5.5700 1.0079
16.7800 5.5767 1.0106
16.8000 5.5833 1.0266
16.8200 5.5900 1.0033
16.8400 5.5966 1.0182
16.8600 5.6032 1.0209
16.8800 5.6099 1.0041
16.9000 5.6166 1.0176
16.9200 5.6233 1.0204
16.9400 5.6300 1.0015
16.9600 5.6367 1.0185
16.9800 5.6434 1.0099
17.0000 5.6500 1.0020
17.0200 5.6566 1.0207
17.0400 5.6632 1.0134
17.0600 5.6699 1.0021
17.0800 5.6766 1.0241
17.1000 5.6833 1.0071
17.1200 5.6901 1.0036
17.1400 5.6968 1.0224
17.1600 5.7034 1.0053
17.1800 5.7100 1.0014
17.2000 5.7166 1.0172
17.2200 5.7233 1.0030
17.2400 5.7300 1.0060
17.2600 5.7367 1.0118
17.2800 5.7434 1.0024
17.3000 5.7500 1.0078
17.3200 5.7567 1.0107
17.3400 5.7634 0.9972
17.3600 5.7700 1.0101
17.3800 5.7766 1.0145
17.4000 5.7832 0.9947
17.4200 5.7899 1.0115
17.4400 5.7966 1.0105
17.4600 5.8033 1.0002
17.4800 5.8100 1.0046
17.5000 5.8167 1.0084
17.5200 5.8234 0.9956
17.5400 5.8300 1.0046
17.5600 5.8365 1.0112
17.5800 5.8432 0.9973
17.6000 5.8499 1.0047
17.6200 5.8566 1.0088
17.6400 5.8633 0.9934
17.6600 5.8700 1.0082
17.6800 5.8767 1.0104
17.7000 5.8833 0.9833
17.7200 5.8900 1.0046
17.7400 5.8966 1.0151
17.7600 5.9033 0.9805
17.7800 5.9100 1.0066
17.8000 5.9167 1.0065
17.8200 5.9233 0.9811
17.8400 5.9300 1.0092
17.8600 5.9367 1.0027
17.8800 5.9434 0.9853
17.9000 5.9500 1.0061
17.9200 5.9567 1.0002
17.9400 5.9633 0.9859
17.9600 5.9700 1.0105
17.9800 5.9767 0.9976
18.0000 5.9834 0.9814
18.0200 5.9901 1.0010
18.0400 5.9967 0.9985
18.0600 6.0034 0.9822
18.0800 6.0100 0.9999
18.1000 6.0166 0.9953
18.1200 6.0232 0.9892
18.1400 6.0299 0.9978
18.1600 6.0367 0.9936
18.1800 6.0434 0.9886
18.2000 6.0500 0.9966
18.2200 6.0567 0.9884
18.2400 6.0634 0.9861
18.2600 6.0700 0.9946
18.2800 6.0766 0.9931
18.3000 6.0832 0.9849
18.3200 6.0899 0.9885
18.3400 6.0966 0.9954
18.3600 6.1033 0.9897
18.3800 6.1100 0.9845
18.4000 6.1167 0.9886
18.4200 6.1234 0.9893
18.4400 6.1300 0.9826
18.4600 6.1366 0.9911
18.4800 6.1432 0.9885
18.5000 6.1499 0.9843
18.5200 6.1566 0.9880
18.5400 6.1634 0.9889
18.5600 6.1700 0.9792
18.5800 6.1767 0.9882
18.6000 6.1834 0.9875
18.6200 6.1900 0.9791
18.6400 6.1966 0.9810
18.6600 6.2032 0.9874
18.6800 6.2099 0.9788
18.7000 6.2166 0.9857
18.7200 6.2234 0.9794
18.7400 6.2301 0.9803
18.7600 6.2367 0.9835
18.7800 6.2434 0.9820
18.8000 6.2500 0.9776
18.8200 6.2566 0.9847
18.8400 6.2633 0.9824
18.8600 6.2699 0.9739
18.8800 6.2766 0.9809
18.9000 6.2833 0.9830
18.9200 6.2900 0.9752
18.9400 6.2966 0.9831
18.9600 6.3033 0.9775
18.9800 6.3100 0.9711
19.0000 6.3166 0.9868
19.0200 6.3232 0.9736
19.0400 6.3299 0.9774
19.0600 6.3366 0.9761
19.0800 6.3433 0.9724
19.1000 6.3500 0.9740
19.1200 6.3567 0.9794
19.1400 6.3634 0.9723
19.1600 6.3700 0.9759
19.1800 6.3766 0.9774
19.2000 6.3832 0.9654
19.2200 6.3899 0.9746
19.2400 6.3967 0.9803
19.2600 6.4034 0.9640
19.2800 6.4101 0.9710
19.3000 6.4167 0.9738
19.3200 6.4234 0.9642
19.3400 6.4300 0.9720
19.3600 6.4366 0.9737
19.3800 6.4432 0.9646
19.4000 6.4499 0.9689
19.4200 6.4566 0.9695
19.4400 6.4633 0.9652
19.4600 6.4700 0.9676
19.4800 6.4767 0.9650
19.5000 6.4834 0.9644
19.5200 6.4900 0.9684
19.5400 6.4966 0.9665
19.5600 6.5032 0.9620
19.5800 6.5099 0.9685
19.6000 6.5166 0.9707
19.6200 6.5233 0.9623
19.6400 6.5300 0.9606
19.6600 6.5367 0.9686
19.6800 6.5434 0.9638
19.7000 6.5500 0.9609
19.7200 6.5566 0.9620
19.7400 6.5632 0.9684
19.7600 6.5698 0.9629
19.7800 6.5766 0.9602
19.8000 6.5833 0.9597
19.8200 6.5900 0.9581
19.8400 6.5967 0.9624
19.8600 6.6033 0.9613
19.8800 6.6100 0.9556
19.9000 6.6166 0.9631
19.9200 6.6233 0.9640
19.9400 6.6299 0.9544
19.9600 6.6366 0.9597
19.9800 6.6433 0.9637
20.0000 6.6500 0.9542
20.0200 6.6567 0.9580
20.0400 6.6634 0.9586
20.0600 6.6701 0.9506
20.0800 6.6767 0.9618
20.1000 6.6833 0.9587
20.1200 6.6899 0.9515
20.1400 6.6967 0.9607
20.1600 6.7034 0.9599
20.1800 6.7101 0.9502
20.2000 6.7167 0.9573
20.2200 6.7234 0.9526
20.2400 6.7300 0.9518
20.2600 6.7366 0.9649
20.2800 6.7432 0.9514
20.3000 6.7499 0.9397
20.3200 6.7566 0.9714
20.3400 6.7633 0.9469
20.3600 6.7700 0.9423
20.3800 6.7766 0.9649
20.4000 6.7833 0.9479
20.4200 6.7900 0.9421
20.4400 6.7966 0.9625
20.4600 6.8032 0.9476
20.4800 6.8099 0.9416
20.5000 6.8166 0.9626
20.5200 6.8233 0.9443
20.5400 6.8300 0.9436
20.5600 6.8367 0.9612
20.5800 6.8434 0.9408
20.6000 6.8500 0.9385
20.6200 6.8567 0.9601
20.6400 6.8633 0.9418
20.6600 6.8699 0.9432
20.6800 6.8766 0.9570
20.7000 6.8834 0.9398
20.7200 6.8901 0.9403
20.7400 6.8967 0.9570
20.7600 6.9034 0.9340
20.7800 6.9100 0.9429
20.8000 6.9166 0.9515
20.8200 6.9232 0.9374
20.8400 6.9299 0.9456
20.8600 6.9366 0.9502
20.8800 6.9433 0.9297
20.9000 6.9500 0.9465
20.9200 6.9567 0.9493
20.9400 6.9634 0.9294
20.9600 6.9701 0.9442
20.9800 6.9767 0.9487
21.0000 6.9833 0.9271
21.0200 6.9899 0.9434
21.0400 6.9966 0.9434
21.0600 7.0033 0.9270
21.0800 7.0100 0.9440
21.1000 7.0167 0.9381
21.1200 7.0234 0.9292
21.1400 7.0300 0.9436
21.1600 7.0366 0.9325
21.1800 7.0432 0.9300
21.2000 7.0499 0.9476
21.2200 7.0566 0.9272
21.2400 7.0633 0.9284
21.2600 7.0700 0.9407
21.2800 7.0766 0.9324
21.3000 7.0833 0.9334
21.3200 7.0900 0.9366
21.3400 7.0966 0.9287
21.3600 7.1032 0.9327
21.3800 7.1099 0.9307
21.4000 7.1166 0.9282
21.4200 7.1233 0.9351
21.4400 7.1300 0.9282
21.4600 7.1367 0.9294
21.4800 7.1434 0.9326
21.5000 7.1500 0.9253
21.5200 7.1567 0.9331
21.5400 7.1633 0.9304
21.5600 7.1699 0.9223
21.5800 7.1766 0.9322
21.6000 7.1833 0.9276
21.6200 7.1900 0.9205
21.6400 7.1967 0.9320
21.6600 7.2034 0.9252
21.6800 7.2101 0.9178
21.7000 7.2167 0.9376
21.7200 7.2232 0.9176
21.7400 7.2299 0.9230
21.7600 7.2366 0.9328
21.7800 7.2433 0.9146
21.8000 7.2500 0.9217
21.8200 7.2567 0.9345
21.8400 7.2634 0.9098
21.8600 7.2700 0.9230
21.8800 7.2766 0.9262
21.9000 7.2832 0.9138
21.9200 7.2899 0.9235
21.9400 7.2966 0.9199
21.9600 7.3033 0.9129
21.9800 7.3100 0.9281
22.0000 7.3166 0.9171
22.0200 7.3233 0.9085
22.0400 7.3300 0.9302
22.0600 7.3366 0.9133
22.0800 7.3433 0.9100
22.1000 7.3499 0.9287
22.1200 7.3566 0.9087
22.1400 7.3633 0.9096
22.1600 7.3700 0.9249
22.1800 7.3767 0.9087
22.2000 7.3834 0.9141
22.2200 7.3901 0.9140
22.2400 7.3967 0.9082
22.2600 7.4033 0.9197
22.2800 7.4099 0.9126
22.3000 7.4166 0.9028
22.3200 7.4234 0.9201
22.3400 7.4300 0.9070
22.3600 7.4367 0.9080
22.3800 7.4434 0.9164
22.4000 7.4500 0.9093
22.4200 7.4566 0.9051
22.4400 7.4632 0.9150
22.4600 7.4699 0.9092
22.4800 7.4766 0.9088
22.5000 7.4833 0.9089
22.5200 7.4900 0.9035
22.5400 7.4966 0.9086
22.5600 7.5033 0.9081
22.5800 7.5100 0.9024
22.6000 7.5166 0.9112
22.6200 7.5232 0.9059
22.6400 7.5299 0.9067
22.6600 7.5366 0.9074
22.6800 7.5433 0.9023
22.7000 7.5500 0.9063
22.7200 7.5567 0.9073
22.7400 7.5634 0.9018
22.7600 7.5700 0.9025
22.7800 7.5766 0.9040
22.8000 7.5832 0.8944
22.8200 7.5899 0.9076
22.8400 7.5966 0.9037
22.8600 7.6033 0.8954
22.8800 7.6100 0.9046
22.9000 7.6167 0.8984
22.9200 7.6234 0.8952
22.9400 7.6301 0.9040
22.9600 7.6367 0.8925
22.9800 7.6433 0.8936
23.0000 7.6499 0.9011
23.0200 7.6566 0.8913
23.0400 7.6633 0.8986
23.0600 7.6700 0.9030
23.0800 7.6767 0.8882
23.1000 7.6834 0.8982
23.1200 7.6901 0.8940
23.1400 7.6967 0.8853
23.1600 7.7033 0.9050
23.1800 7.7099 0.8934
23.2000 7.7166 0.8851
23.2200 7.7233 0.9015
23.2400 7.7300 0.8883
23.2600 7.7367 0.8861
23.2800 7.7434 0.9006
23.3000 7.7500 0.8847
23.3200 7.7566 0.8883
23.3400 7.7632 0.8966
23.3600 7.7699 0.8839
23.3800 7.7766 0.8908
23.4000 7.7833 0.8900
23.4200 7.7900 0.8806
23.4400 7.7966 0.8946
23.4600 7.8033 0.8837
23.4800 7.8100 0.8769
23.5000 7.8166 0.8912
23.5200 7.8233 0.8836
23.5400 7.8299 0.8746
23.5600 7.8366 0.8957
23.5800 7.8433 0.8777
23.6000 7.8500 0.8802
23.6200 7.8567 0.8918
23.6400 7.8634 0.8736
23.6600 7.8701 0.8845
23.6800 7.8767 0.8858
23.7000 7.8833 0.8694
23.7200 7.8899 0.8852
23.7400 7.8966 0.8821
23.7600 7.9033 0.8690
23.7800 7.9100 0.8866
23.8000 7.9167 0.8799
23.8200 7.9234 0.8674
23.8400 7.9301 0.8793
23.8600 7.9367 0.8813
23.8800 7.9433 0.8733
23.9000 7.9499 0.8835
23.9200 7.9566 0.8716
23.9400 7.9633 0.8789
23.9600 7.9700 0.8805
23.9800 7.9767 0.8660
24.0000 7.9833 0.8786
24.0200 7.9900 0.8810
24.0400 7.9967 0.8658
24.0600 8.0033 0.8761
24.0800 8.0099 0.8784
24.1000 8.0166 0.8672
24.1200 8.0233 0.8769
24.1400 8.0300 0.8704
24.1600 8.0367 0.8672
24.1800 8.0433 0.8794
24.2000 8.0500 0.8671
24.2200 8.0566 0.8668
24.2400 8.0633 0.8825
24.2600 8.0699 0.8686
24.2800 8.0766 0.8669
24.3000 8.0833 0.8778
24.3200 8.0900 0.8687
24.3400 8.0967 0.8662
24.3600 8.1034 0.8766
24.3800 8.1101 0.8598
24.4000 8.1167 0.8691
24.4200 8.1233 0.8729
24.4400 8.1299 0.8653
24.4600 8.1366 0.8747
24.4800 8.1433 0.8640
24.5000 8.1501 0.8592
24.5200 8.1567 0.8735
24.5400 8.1634 0.8677
24.5600 8.1701 0.8611
24.5800 8.1767 0.8653
24.6000 8.1833 0.8676
24.6200 8.1899 0.8608
24.6400 8.1966 0.8655
24.6600 8.2033 0.8689
24.6800 8.2100 0.8624
24.7000 8.2166 0.8589
24.7200 8.2233 0.8657
24.7400 8.2300 0.8608
24.7600 8.2367 0.8632
24.7800 8.2433 0.8623
24.8000 8.2499 0.8577
24.8200 8.2566 0.8689
24.8400 8.2633 0.8630
24.8600 8.2700 0.8575
24.8800 8.2767 0.8633
24.9000 8.2833 0.8650
24.9200 8.2900 0.8541
24.9400 8.2967 0.8612
24.9600 8.3033 0.8634
24.9800 8.3099 0.8552
25.0000 8.3166 0.8619
25.0200 8.3233 0.8593
25.0400 8.3300 0.8496
25.0600 8.3367 0.8621
25.0800 8.3433 0.8640
25.1000 8.3500 0.8515
25.1200 8.3567 0.8544
25.1400 8.3633 0.8581
25.1600 8.3699 0.8534
25.1800 8.3766 0.8581
25.2000 8.3833 0.8544
25.2200 8.3900 0.8491
25.2400 8.3967 0.8626
25.2600 8.4034 0.8467
25.2800 8.4101 0.8487
25.3000 8.4167 0.8638
25.3200 8.4233 0.8466
25.3400 8.4299 0.8447
25.3600 8.4366 0.8623
25.3800 8.4433 0.8466
25.4000 8.4500 0.8472
25.4200 8.4567 0.8530
25.4400 8.4634 0.8440
25.4600 8.4700 0.8504
25.4800 8.4767 0.8550
25.5000 8.4833 0.8364
25.5200 8.4899 0.8552
25.5400 8.4965 0.8538
25.5600 8.5032 0.8383
25.5800 8.5099 0.8466
25.6000 8.5166 0.8537
25.6200 8.5233 0.8400
25.6400 8.5300 0.8480
25.6600 8.5367 0.8483
25.6800 8.5433 0.8424
25.7000 8.5499 0.8495
25.7200 8.5566 0.8460
25.7400 8.5633 0.8384
25.7600 8.5700 0.8453
25.7800 8.5767 0.8391
25.8000 8.5834 0.8432
25.8200 8.5901 0.8437
25.8400 8.5967 0.8429
25.8600 8.6033 0.8380
25.8800 8.6099 0.8395
25.9000 8.6166 0.8442
25.9200 8.6233 0.8368
25.9400 8.6300 0.8393
25.9600 8.6367 0.8389
25.9800 8.6434 0.8400
26.0000 8.6501 0.8389
26.0200 8.6567 0.8414
26.0400 8.6633 0.8373
26.0600 8.6699 0.8401
26.0800 8.6766 0.8403
26.1000 8.6833 0.8408
26.1200 8.6900 0.8344
26.1400 8.6966 0.8367
26.1600 8.7033 0.8352
26.1800 8.7100 0.8353
26.2000 8.7167 0.8315
26.2200 8.7233 0.8361
26.2400 8.7299 0.8368
26.2600 8.7365 0.8367
26.2800 8.7432 0.8316
26.3000 8.7499 0.8354
26.3200 8.7566 0.8329
26.3400 8.7633 0.8260
26.3600 8.7700 0.8336
26.3800 8.7767 0.8330
26.4000 8.7833 0.8282
26.4200 8.7899 0.8331
26.4400 8.7966 0.8306
26.4600 8.8033 0.8241
26.4800 8.8100 0.8338
26.5000 8.8167 0.8256
26.5200 8.8234 0.8238
26.5400 8.8301 0.8334
26.5600 8.8367 0.8276
26.5800 8.8434 0.8178
26.6000 8.8500 0.8331
26.6200 8.8566 0.8282
26.6400 8.8633 0.8256
26.6600 8.8700 0.8239
26.6800 8.8767 0.8251
26.7000 8.8834 0.8253
26.7200 8.8901 0.8259
26.7400 8.8967 0.8232
26.7600 8.9033 0.8246
26.7800 8.9099 0.8179
26.8000 8.9166 0.8211
26.8200 8.9233 0.8301
26.8400 8.9300 0.8166
26.8600 8.9367 0.8192
26.8800 8.9433 0.8286
26.9000 8.9500 0.8137
26.9200 8.9567 0.8199
26.9400 8.9633 0.8234
26.9600 8.9699 0.8124
26.9800 8.9765 0.8254
27.0000 8.9832 0.8213
27.0200 8.9900 0.8097
27.0400 8.9966 0.8240
27.0600 9.0033 0.8193
27.0800 9.0100 0.8050
27.1000 9.0167 0.8265
27.1200 9.0233 0.8116
27.1400 9.0299 0.8076
27.1600 9.0366 0.8306
27.1800 9.0433 0.8143
27.2000 9.0500 0.8089
27.2200 9.0567 0.8270
27.2400 9.0633 0.8059
27.2600 9.0701 0.8105
27.2800 9.0767 0.8229
27.3000 9.0834 0.8059
27.3200 9.0899 0.8086
27.3400 9.0966 0.8234
27.3600 9.1033 0.8043
27.3800 9.1100 0.8074
27.4000 9.1167 0.8183
27.4200 9.1234 0.8048
27.4400 9.1301 0.8087
27.4600 9.1367 0.8169
27.4800 9.1433 0.8043
27.5000 9.1499 0.8063
27.5200 9.1566 0.8142
27.5400 9.1633 0.8002
27.5600 9.1700 0.8087
27.5800 9.1767 0.8140
27.6000 9.1833 0.7990
27.6200 9.1900 0.8013
27.6400 9.1967 0.8102
27.6600 9.2033 0.7992
27.6800 9.2099 0.8032
27.7000 9.2165 0.8039
27.7200 9.2232 0.8004
27.7400 9.2299 0.8027
27.7600 9.2366 0.8037
27.7800 9.2433 0.7982
27.8000 9.2500 0.8019
27.8200 9.2567 0.8041
27.8400 9.2633 0.7984
27.8600 9.2699 0.7960
27.8800 9.2766 0.8076
27.9000 9.2833 0.8028
27.9200 9.2900 0.7971
27.9400 9.2967 0.7989
27.9600 9.3034 0.7900
27.9800 9.3101 0.8015
28.0000 9.3167 0.7978
28.0200 9.3234 0.7953
28.0400 9.3300 0.8002
28.0600 9.3366 0.8004
28.0800 9.3433 0.7880
28.1000 9.3500 0.7934
28.1200 9.3567 0.7981
28.1400 9.3634 0.7960
28.1600 9.3700 0.7912
28.1800 9.3767 0.7963
28.2000 9.3833 0.7929
28.2200 9.3899 0.7917
28.2400 9.3965 0.8009
28.2600 9.4032 0.7939
28.2800 9.4099 0.7891
28.3000 9.4167 0.7975
28.3200 9.4233 0.7905
28.3400 9.4300 0.7916
28.3600 9.4367 0.7952
28.3800 9.4433 0.7940
28.4000 9.4499 0.7825
28.4200 9.4565 0.7971
28.4400 9.4632 0.7924
28.4600 9.4699 0.7872
28.4800 9.4766 0.7985
28.5000 9.4833 0.7837
28.5200 9.4900 0.7834
28.5400 9.4967 0.8008
28.5600 9.5033 0.7820
28.5800 9.5099 0.7838
28.6000 9.5166 0.8080
28.6200 9.5233 0.7785
28.6400 9.5300 0.7835
28.6600 9.5367 0.7967
28.6800 9.5434 0.7778
28.7000 9.5500 0.7874
28.7200 9.5567 0.7964
28.7400 9.5634 0.7709
28.7600 9.5700 0.7907
28.7800 9.5766 0.7926
28.8000 9.5833 0.7733
28.8200 9.5900 0.7878
28.8400 9.5967 0.7898
28.8600 9.6034 0.7715
28.8800 9.6101 0.7898
28.9000 9.6167 0.7840
28.9200 9.6234 0.7697
28.9400 9.6300 0.7880
28.9600 9.6366 0.7799
28.9800 9.6432 0.7748
29.0000 9.6499 0.7896
29.0200 9.6566 0.7783
29.0400 9.6633 0.7745
29.0600 9.6700 0.7819
29.0800 9.6767 0.7790
29.1000 9.6833 0.7755
29.1200 9.6899 0.7783
29.1400 9.6965 0.7792
29.1600 9.7032 0.7724
29.1800 9.7099 0.7758
29.2000 9.7166 0.7776
29.2200 9.7233 0.7756
29.2400 9.7300 0.7738
29.2600 9.7367 0.7744
29.2800 9.7434 0.7690
29.3000 9.7500 0.7773
29.3200 9.7566 0.7720
29.3400 9.7633 0.7703
29.3600 9.7700 0.7737
29.3800 9.7767 0.7705
29.4000 9.7834 0.7629
29.4200 9.7901 0.7765
29.4400 9.7967 0.7688
29.4600 9.8034 0.7641
29.4800 9.8100 0.7758
29.5000 9.8166 0.7631
29.5200 9.8232 0.7658
29.5400 9.8300 0.7783
29.5600 9.8367 0.7592
29.5800 9.8434 0.7646
29.6000 9.8501 0.7733
29.6200 9.8567 0.7608
29.6400 9.8634 0.7636
29.6600 9.8700 0.7733
29.6800 9.8766 0.7609
29.7000 9.8832 0.7590
29.7200 9.8899 0.7704
29.7400 9.8967 0.7558
29.7600 9.9033 0.7675
29.7800 9.9100 0.7633
29.8000 9.9167 0.7585
29.8200 9.9233 0.7652
29.8400 9.9299 0.7596
29.8600 9.9365 0.7559
29.8800 9.9432 0.7682
29.9000 9.9499 0.7597
29.9200 9.9566 0.7521
29.9400 9.9633 0.7612
29.9600 9.9700 0.7653
29.9800 9.9766 0.7516
30.0000 9.9833 0.7616
30.0200 9.9899 0.7575
30.0400 9.9965 0.7552
30.0600 10.0032 0.7624
30.0800 10.0100 0.7579
30.1000 10.0167 0.7491
30.1200 10.0234 0.7581
30.1400 10.0300 0.7618
30.1600 10.0367 0.7512
30.1800 10.0434 0.7607
30.2000 10.0500 0.7568
30.2200 10.0566 0.7504
30.2400 10.0633 0.7597
30.2600 10.0700 0.7563
30.2800 10.0767 0.7477
30.3000 10.0834 0.7604
30.3200 10.0900 0.7491
30.3400 10.0967 0.7488
30.3600 10.1034 0.7580
30.3800 10.1100 0.7510
30.4000 10.1166 0.7442
30.4200 10.1232 0.7574
30.4400 10.1299 0.7536
30.4600 10.1366 0.7410
30.4800 10.1433 0.7522
30.5000 10.1500 0.7581
30.5200 10.1567 0.7422
30.5400 10.1633 0.7511
30.5600 10.1699 0.7471
30.5800 10.1765 0.7455
30.6000 10.1832 0.7526
30.6200 10.1899 0.7488
30.6400 10.1967 0.7387
30.6600 10.2033 0.7481
30.6800 10.2100 0.7481
30.7000 10.2167 0.7398
30.7200 10.2234 0.7477
30.7400 10.2300 0.7406
30.7600 10.2366 0.7440
30.7800 10.2433 0.7461
30.8000 10.2500 0.7385
30.8200 10.2567 0.7427
30.8400 10.2634 0.7474
30.8600 10.2700 0.7363
30.8800 10.2767 0.7374
30.9000 10.2834 0.7421
30.9200 10.2900 0.7369
30.9400 10.2966 0.7366
30.9600 10.3032 0.7463
30.9800 10.3099 0.7311
31.0000 10.3167 0.7330
31.0200 10.3234 0.7429
31.0400 10.3300 0.7308
31.0600 10.3367 0.7289
31.0800 10.3434 0.7407
31.1000 10.3500 0.7293
31.1200 10.3566 0.7278
31.1400 10.3632 0.7391
31.1600 10.3699 0.7295
31.1800 10.3766 0.7303
31.2000 10.3833 0.7371
31.2200 10.3900 0.7283
31.2400 10.3967 0.7287
31.2600 10.4033 0.7366
31.2800 10.4100 0.7241
31.3000 10.4166 0.7308
31.3200 10.4232 0.7361
31.3400 10.4299 0.7218
31.3600 10.4366 0.7228
31.3800 10.4433 0.7376
31.4000 10.4500 0.7246
31.4200 10.4567 0.7246
31.4400 10.4634 0.7292
31.4600 10.4700 0.7274
31.4800 10.4766 0.7230
31.5000 10.4832 0.7264
31.5200 10.4899 0.7291
31.5400 10.4966 0.7193
31.5600 10.5034 0.7233
31.5800 10.5101 0.7284
31.6000 10.5167 0.7136
31.6200 10.5234 0.7300
31.6400 10.5300 0.7288
31.6600 10.5366 0.7086
31.6800 10.5433 0.7318
31.7000 10.5500 0.7296
31.7200 10.5567 0.7094
31.7400 10.5634 0.7300
31.7600 10.5701 0.7277
31.7800 10.5767 0.7093
31.8000 10.5834 0.7281
31.8200 10.5900 0.7247
31.8400 10.5966 0.7086
31.8600 10.6032 0.7286
31.8800 10.6099 0.7262
31.9000 10.6166 0.7055
31.9200 10.6233 0.7302
31.9400 10.6300 0.7181
31.9600 10.6367 0.7081
31.9800 10.6434 0.7271
32.0000 10.6500 0.7203
32.0200 10.6566 0.7073
32.0400 10.6632 0.7274
32.0600 10.6699 0.7180
32.0800 10.6766 0.7132
32.1000 10.6833 0.7286
32.1200 10.6900 0.7164
32.1400 10.6967 0.7081
32.1600 10.7033 0.7266
32.1800 10.7100 0.7157
32.2000 10.7166 0.7069
32.2200 10.7233 0.7241
32.2400 10.7299 0.7167
32.2600 10.7367 0.7101
32.2800 10.7433 0.7163
32.3000 10.7500 0.7156
32.3200 10.7567 0.7143
32.3400 10.7634 0.7211
32.3600 10.7701 0.7121
32.3800 10.7767 0.7077
32.4000 10.7833 0.7163
32.4200 10.7899 0.7119
32.4400 10.7966 0.7067
32.4600 10.8033 0.7109
32.4800 10.8100 0.7051
32.5000 10.8167 0.7142
32.5200 10.8234 0.7087
32.5400 10.8300 0.7096
32.5600 10.8366 0.7111
32.5800 10.8432 0.7060
32.6000 10.8499 0.7063
32.6200 10.8567 0.7142
32.6400 10.8634 0.6999
32.6600 10.8700 0.7027
32.6800 10.8767 0.7107
32.7000 10.8834 0.6946
32.7200 10.8900 0.7062
32.7400 10.8966 0.7117
32.7600 10.9032 0.6981
32.7800 10.9099 0.7058
32.8000 10.9166 0.7045
32.8200 10.9233 0.6949
32.8400 10.9300 0.7080
32.8600 10.9367 0.7047
32.8800 10.9434 0.6949
32.9000 10.9500 0.7071
32.9200 10.9567 0.7030
32.9400 10.9633 0.6928
32.9600 10.9699 0.7089
32.9800 10.9766 0.6997
33.0000 10.9833 0.6952
33.0200 10.9900 0.7014
33.0400 10.9967 0.6984
33.0600 11.0034 0.6973
33.0800 11.0100 0.6978
33.1000 11.0166 0.6970
33.1200 11.0232 0.6985
33.1400 11.0299 0.6997
33.1600 11.0367 0.6975
33.1800 11.0434 0.6890
33.2000 11.0501 0.7017
33.2200 11.0567 0.6967
33.2400 11.0634 0.6893
33.2600 11.0700 0.6984
33.2800 11.0766 0.6933
33.3000 11.0832 0.6904
33.3200 11.0899 0.6945
33.3400 11.0966 0.6872
33.3600 11.1033 0.6898
33.3800 11.1100 0.6992
33.4000 11.1167 0.6847
33.4200 11.1234 0.6851
33.4400 11.1300 0.6952
33.4600 11.1366 0.6840
33.4800 11.1432 0.6849
33.5000 11.1499 0.7002
33.5200 11.1566 0.6822
33.5400 11.1633 0.6819
33.5600 11.1700 0.6919
33.5800 11.1766 0.6897
33.6000 11.1833 0.6788
33.6200 11.1900 0.6875
33.6400 11.1966 0.6871
33.6600 11.2033 0.6831
33.6800 11.2100 0.6845
33.7000 11.2167 0.6871
33.7200 11.2234 0.6812
33.7400 11.2301 0.6814
33.7600 11.2367 0.6840
33.7800 11.2434 0.6825
33.8000 11.2500 0.6797
33.8200 11.2566 0.6847
33.8400 11.2632 0.6812
33.8600 11.2699 0.6780
33.8800 11.2766 0.6814
33.9000 11.2833 0.6759
33.9200 11.2900 0.6759
33.9400 11.2967 0.6811
33.9600 11.3034 0.6746
33.9800 11.3100 0.6706
34.0000 11.3166 0.6840
34.0200 11.3232 0.6710
34.0400 11.3299 0.6753
34.0600 11.3366 0.6803
34.0800 11.3433 0.6680
34.1000 11.3500 0.6721
34.1200 11.3567 0.6815
34.1400 11.3634 0.6634
34.1600 11.3700 0.6702
34.1800 11.3766 0.6828
34.2000 11.3832 0.6721
34.2200 11.3899 0.6704
34.2400 11.3966 0.6724
34.2600 11.4033 0.6637
34.2800 11.4100 0.6684
34.3000 11.4166 0.6704
34.3200 11.4233 0.6650
34.3400 11.4300 0.6686
34.3600 11.4366 0.6675
34.3800 11.4432 0.6595
34.4000 11.4499 0.6717
34.4200 11.4566 0.6697
34.4400 11.4633 0.6550
34.4600 11.4700 0.6684
34.4800 11.4767 0.6703
34.5000 11.4834 0.6601
34.5200 11.4901 0.6648
34.5400 11.4967 0.6670
34.5600 11.5033 0.6561
34.5800 11.5099 0.6670
34.6000 11.5166 0.6654
34.6200 11.5234 0.6592
34.6400 11.5301 0.6632
34.6600 11.5367 0.6629
34.6800 11.5434 0.6569
34.7000 11.5500 0.6668
34.7200 11.5566 0.6592
34.7400 11.5632 0.6548
34.7600 11.5699 0.6611
34.7800 11.5766 0.6613
34.8000 11.5833 0.6566
34.8200 11.5900 0.6587
34.8400 11.5966 0.6562
34.8600 11.6033 0.6577
34.8800 11.6100 0.6593
34.9000 11.6166 0.6512
34.9200 11.6232 0.6563
34.9400 11.6299 0.6578
34.9600 11.6366 0.6506
34.9800 11.6433 0.6567
35.0000 11.6500 0.6546
35.0200 11.6567 0.6531
35.0400 11.6634 0.6536
35.0600 11.6701 0.6511
35.0800 11.6767 0.6578
35.1000 11.6833 0.6513
35.1200 11.6899 0.6492
35.1400 11.6966 0.6544
35.1600 11.7033 0.6539
35.1800 11.7100 0.6489
35.2000 11.7167 0.6579
35.2200 11.7234 0.6524
35.2400 11.7300 0.6435
35.2600 11.7367 0.6544
35.2800 11.7433 0.6482
35.3000 11.7499 0.6468
35.3200 11.7566 0.6595
35.3400 11.7633 0.6394
35.3600 11.7700 0.6474
35.3800 11.7767 0.6566
35.4000 11.7834 0.6436
35.4200 11.7901 0.6437
35.4400 11.7967 0.6533
35.4600 11.8033 0.6421
35.4800 11.8099 0.6452
35.5000 11.8166 0.6543
35.5200 11.8233 0.6373
35.5400 11.8300 0.6458
35.5600 11.8367 0.6498
35.5800 11.8434 0.6374
35.6000 11.8500 0.6480
35.6200 11.8567 0.6455
35.6400 11.8632 0.6352
35.6600 11.8699 0.6462
35.6800 11.8766 0.6440
35.7000 11.8833 0.6370
35.7200 11.8900 0.6414
35.7400 11.8967 0.6464
35.7600 11.9033 0.6372
35.7800 11.9100 0.6391
35.8000 11.9166 0.6391
35.8200 11.9232 0.6416
35.8400 11.9299 0.6387
35.8600 11.9366 0.6438
35.8800 11.9433 0.6368
35.9000 11.9500 0.6390
35.9200 11.9567 0.6381
35.9400 11.9634 0.6312
35.9600 11.9700 0.6383
35.9800 11.9766 0.6397
36.0000 11.9832 0.6283
36.0200 11.9899 0.6360
36.0400 11.9966 0.6411
36.0600 12.0033 0.6298
36.0800 12.0100 0.6336
36.1000 12.0167 0.6339
36.1200 12.0234 0.6304
36.1400 12.0301 0.6321
36.1600 12.0367 0.6326
36.1800 12.0433 0.6284
36.2000 12.0499 0.6359
36.2200 12.0566 0.6312
36.2400 12.0633 0.6287
36.2600 12.0700 0.6320
36.2800 12.0767 0.6241
36.3000 12.0834 0.6307
36.3200 12.0900 0.6297
36.3400 12.0966 0.6206
36.3600 12.1032 0.6343
36.3800 12.1099 0.6279
36.4000 12.1166 0.6231
36.4200 12.1233 0.6298
36.4400 12.1300 0.6212
36.4600 12.1366 0.6253
36.4800 12.1433 0.6320
36.5000 12.1500 0.6183
36.5200 12.1567 0.6160
36.5400 12.1633 0.6328
36.5600 12.1699 0.6220
36.5800 12.1766 0.6187
36.6000 12.1833 0.6274
36.6200 12.1900 0.6190
36.6400 12.1967 0.6182
36.6600 12.2034 0.6234
36.6800 12.2101 0.6169
36.7000 12.2167 0.6208
36.7200 12.2233 0.6201
36.7400 12.2299 0.6175
36.7600 12.2366 0.6159
36.7800 12.2433 0.6194
36.8000 12.2500 0.6103
36.8200 12.2567 0.6157
36.8400 12.2633 0.6173
36.8600 12.2700 0.6115
36.8800 12.2767 0.6086
36.9000 12.2833 0.6204
36.9200 12.2899 0.6181
36.9400 12.2966 0.6078
36.9600 12.3033 0.6178
36.9800 12.3100 0.6136
37.0000 12.3167 0.6053
37.0200 12.3233 0.6186
37.0400 12.3300 0.6112
37.0600 12.3367 0.6021
37.0800 12.3433 0.6214
37.1000 12.3499 0.6085
37.1200 12.3566 0.6047
37.1400 12.3633 0.6190
37.1600 12.3700 0.6044
37.1800 12.3767 0.5997
37.2000 12.3834 0.6200
37.2200 12.3900 0.6004
37.2400 12.3967 0.6007
37.2600 12.4033 0.6180
37.2800 12.4099 0.5997
37.3000 12.4166 0.5983
37.3200 12.4233 0.6215
37.3400 12.4300 0.5935
37.3600 12.4367 0.5989
37.3800 12.4433 0.6184
37.4000 12.4500 0.5948
37.4200 12.4567 0.5953
37.4400 12.4633 0.6204
37.4600 12.4700 0.5906
37.4800 12.4766 0.5991
37.5000 12.4833 0.6171
37.5200 12.4900 0.5875
37.5400 12.4967 0.5981
37.5600 12.5034 0.6209
37.5800 12.5100 0.5834
37.6000 12.5167 0.5934
37.6200 12.5232 0.6185
37.6400 12.5299 0.5866
37.6600 12.5366 0.5993
37.6800 12.5433 0.6101
37.7000 12.5500 0.5843
37.7200 12.5567 0.5959
37.7400 12.5634 0.6067
37.7600 12.5700 0.5840
37.7800 12.5766 0.5980
37.8000 12.5832 0.6074
37.8200 12.5898 0.5852
37.8400 12.5965 0.5975
37.8600 12.6033 0.6039
37.8800 12.6100 0.5794
37.9000 12.6167 0.6008
37.9200 12.6233 0.5978
37.9400 12.6300 0.5843
37.9600 12.6367 0.5949
37.9800 12.6433 0.5985
38.0000 12.6499 0.5861
38.0200 12.6566 0.5936
38.0400 12.6633 0.5951
38.0600 12.6700 0.5835
38.0800 12.6767 0.5889
38.1000 12.6834 0.5910
38.1200 12.6901 0.5910
38.1400 12.6967 0.5854
38.1600 12.7033 0.5870
38.1800 12.7099 0.5912
38.2000 12.7165 0.5861
38.2200 12.7232 0.5884
38.2400 12.7300 0.5831
38.2600 12.7367 0.5795
38.2800 12.7434 0.5922
38.3000 12.7501 0.5822
38.3200 12.7567 0.5786
38.3400 12.7633 0.5905
38.3600 12.7699 0.5897
38.3800 12.7765 0.5697
38.4000 12.7832 0.5891
38.4200 12.7899 0.5839
38.4400 12.7966 0.5725
38.4600 12.8033 0.5883
38.4800 12.8101 0.5822
38.5000 12.8167 0.5636
38.5200 12.8233 0.5902
38.5400 12.8299 0.5840
38.5600 12.8366 0.5682
38.5800 12.8433 0.5904
38.6000 12.8500 0.5781
38.6200 12.8567 0.5658
38.6400 12.8633 0.5913
38.6600 12.8700 0.5757
38.6800 12.8767 0.5611
38.7000 12.8833 0.5900
38.7200 12.8899 0.5700
38.7400 12.8966 0.5693
38.7600 12.9033 0.5894
38.7800 12.9100 0.5649
38.8000 12.9167 0.5671
38.8200 12.9234 0.5853
38.8400 12.9301 0.5654
38.8600 12.9367 0.5697
38.8800 12.9433 0.5823
38.9000 12.9499 0.5676
38.9200 12.9566 0.5668
38.9400 12.9633 0.5778
38.9600 12.9700 0.5631
38.9800 12.9767 0.5679
39.0000 12.9834 0.5714
39.0200 12.9900 0.5668
39.0400 12.9967 0.5639
39.0600 13.0033 0.5664
39.0800 13.0099 0.5720
39.1000 13.0166 0.5645
39.1200 13.0233 0.5610
39.1400 13.0300 0.5732
39.1600 13.0366 0.5529
39.1800 13.0433 0.5674
39.2000 13.0499 0.5756
39.2200 13.0566 0.5540
39.2400 13.0632 0.5638
39.2600 13.0699 0.5694
39.2800 13.0766 0.5546
39.3000 13.0833 0.5614
39.3200 13.0900 0.5678
39.3400 13.0967 0.5518
39.3600 13.1034 0.5678
39.3800 13.1100 0.5654
39.4000 13.1167 0.5479
39.4200 13.1233 0.5624
39.4400 13.1299 0.5652
39.4600 13.1366 0.5459
39.4800 13.1433 0.5618
39.5000 13.1500 0.5578
39.5200 13.1567 0.5459
39.5400 13.1633 0.5632
39.5600 13.1700 0.5571
39.5800 13.1767 0.5438
39.6000 13.1833 0.5643
39.6200 13.1899 0.5519
39.6400 13.1966 0.5449
39.6600 13.2033 0.5609
39.6800 13.2100 0.5496
39.7000 13.2167 0.5488
39.7200 13.2234 0.5578
39.7400 13.2300 0.5491
39.7600 13.2367 0.5470
39.7800 13.2433 0.5501
39.8000 13.2499 0.5522
39.8200 13.2565 0.5516
39.8400 13.2633 0.5509
39.8600 13.2700 0.5477
39.8800 13.2767 0.5446
39.9000 13.2834 0.5449
39.9200 13.2901 0.5434
39.9400 13.2967 0.5481
39.9600 13.3033 0.5396
39.9800 13.3099 0.5476
40.0000 13.3165 0.5485
40.0200 13.3232 0.5412
40.0400 13.3299 0.5452
40.0600 13.3366 0.5462
40.0800 13.3433 0.5396
40.1000 13.3500 0.5457
40.1200 13.3567 0.5390
40.1400 13.3634 0.5393
40.1600 13.3700 0.5441
40.1800 13.3766 0.5417
40.2000 13.3833 0.5386
40.2200 13.3900 0.5478
40.2400 13.3967 0.5385
40.2600 13.4034 0.5403
40.2800 13.4101 0.5424
40.3000 13.4168 0.5355
40.3200 13.4234 0.5403
40.3400 13.4299 0.5402
40.3600 13.4366 0.5317
40.3800 13.4433 0.5409
40.4000 13.4500 0.5424
40.4200 13.4567 0.5331
40.4400 13.4634 0.5365
40.4600 13.4700 0.5412
40.4800 13.4767 0.5382
40.5000 13.4833 0.5295
40.5200 13.4899 0.5417
40.5400 13.4965 0.5376
40.5600 13.5032 0.5292
40.5800 13.5100 0.5362
40.6000 13.5166 0.5418
40.6200 13.5233 0.5254
40.6400 13.5299 0.5353
40.6600 13.5366 0.5364
40.6800 13.5433 0.5274
40.7000 13.5499 0.5339
40.7200 13.5566 0.5404
40.7400 13.5632 0.5225
40.7600 13.5699 0.5338
40.7800 13.5766 0.5339
40.8000 13.5833 0.5262
40.8200 13.5900 0.5328
40.8400 13.5966 0.5299
40.8600 13.6033 0.5230
40.8800 13.6099 0.5286
40.9000 13.6166 0.5279
40.9200 13.6233 0.5208
40.9400 13.6301 0.5270
40.9600 13.6368 0.5234
40.9800 13.6434 0.5233
41.0000 13.6501 0.5303
41.0200 13.6567 0.5236
41.0400 13.6634 0.5182
41.0600 13.6700 0.5273
41.0800 13.6766 0.5202
41.1000 13.6833 0.5183
41.1200 13.6900 0.5270
41.1400 13.6967 0.5192
41.1600 13.7034 0.5152
41.1800 13.7101 0.5235
41.2000 13.7167 0.5192
41.2200 13.7234 0.5113
41.2400 13.7299 0.5214
41.2600 13.7365 0.5267
41.2800 13.7432 0.5120
41.3000 13.7500 0.5204
41.3200 13.7566 0.5214
41.3400 13.7633 0.5084
41.3600 13.7700 0.5202
41.3800 13.7767 0.5164
41.4000 13.7833 0.5031
41.4200 13.7899 0.5200
41.4400 13.7965 0.5168
41.4600 13.8032 0.5031
41.4800 13.8099 0.5205
41.5000 13.8166 0.5096
41.5200 13.8233 0.5006
41.5400 13.8300 0.5153
41.5600 13.8367 0.5095
41.5800 13.8434 0.4975
41.6000 13.8500 0.5152
41.6200 13.8566 0.5096
41.6400 13.8632 0.5004
41.6600 13.8699 0.5148
41.6800 13.8766 0.5083
41.7000 13.8833 0.4963
41.7200 13.8901 0.5123
41.7400 13.8968 0.5004
41.7600 13.9034 0.4979
41.7800 13.9100 0.5058
41.8000 13.9166 0.5067
41.8200 13.9233 0.4954
41.8400 13.9300 0.5011
41.8600 13.9367 0.4980
41.8800 13.9434 0.4987
41.9000 13.9501 0.5039
41.9200 13.9567 0.4951
41.9400 13.9633 0.4980
41.9600 13.9699 0.4981
41.9800 13.9766 0.5009
42.0000 13.9833 0.4902
42.0200 13.9900 0.4969
42.0400 13.9967 0.5047
42.0600 14.0033 0.4904
42.0800 14.0100 0.4911
42.1000 14.0167 0.5011
42.1200 14.0233 0.4892
42.1400 14.0299 0.4917
42.1600 14.0365 0.4997
42.1800 14.0432 0.4925
42.2000 14.0499 0.4865
42.2200 14.0566 0.4992
42.2400 14.0633 0.4864
42.2600 14.0700 0.4920
42.2800 14.0766 0.4959
42.3000 14.0833 0.4840
42.3200 14.0900 0.4894
42.3400 14.0966 0.4982
42.3600 14.1033 0.4834
42.3800 14.1100 0.4868
42.4000 14.1167 0.4938
42.4200 14.1234 0.4824
42.4400 14.1301 0.4810
42.4600 14.1367 0.4934
42.4800 14.1434 0.4852
42.5000 14.1500 0.4821
42.5200 14.1566 0.4918
42.5400 14.1633 0.4830
42.5600 14.1700 0.4812
42.5800 14.1767 0.4896
42.6000 14.1834 0.4828
42.6200 14.1900 0.4815
42.6400 14.1967 0.4866
42.6600 14.2034 0.4760
42.6800 14.2100 0.4830
42.7000 14.2166 0.4869
42.7200 14.2232 0.4744
42.7400 14.2299 0.4789
42.7600 14.2366 0.4917
42.7800 14.2433 0.4754
42.8000 14.2500 0.4774
42.8200 14.2567 0.4858
42.8400 14.2634 0.4740
42.8600 14.2699 0.4757
42.8800 14.2765 0.4925
42.9000 14.2832 0.4715
42.9200 14.2899 0.4717
42.9400 14.2966 0.4871
42.9600 14.3033 0.4713
42.9800 14.3100 0.4761
43.0000 14.3167 0.4850
43.0200 14.3233 0.4678
43.0400 14.3299 0.4756
43.0600 14.3366 0.4845
43.0800 14.3432 0.4670
43.1000 14.3500 0.4776
43.1200 14.3567 0.4770
43.1400 14.3634 0.4664
43.1600 14.3701 0.4771
43.1800 14.3767 0.4739
43.2000 14.3834 0.4618
43.2200 14.3900 0.4733
43.2400 14.3966 0.4739
43.2600 14.4032 0.4681
43.2800 14.4099 0.4751
43.3000 14.4167 0.4691
43.3200 14.4234 0.4655
43.3400 14.4301 0.4734
43.3600 14.4368 0.4656
43.3800 14.4434 0.4665
43.4000 14.4500 0.4670
43.4200 14.4566 0.4705
43.4400 14.4632 0.4674
43.4600 14.4699 0.4637
43.4800 14.4766 0.4696
43.5000 14.4833 0.4683
43.5200 14.4900 0.4602
43.5400 14.4967 0.4680
43.5600 14.5033 0.4647
43.5800 14.5099 0.4523
43.6000 14.5165 0.4677
43.6200 14.5232 0.4675
43.6400 14.5299 0.4539
43.6600 14.5366 0.4623
43.6800 14.5433 0.4627
43.7000 14.5500 0.4536
43.7200 14.5567 0.4614
43.7400 14.5633 0.4610
43.7600 14.5700 0.4563
43.7800 14.5766 0.4607
43.8000 14.5833 0.4619
43.8200 14.5899 0.4490
43.8400 14.5966 0.4623
43.8600 14.6033 0.4633
43.8800 14.6100 0.4454
43.9000 14.6167 0.4588
43.9200 14.6234 0.4623
43.9400 14.6300 0.4441
43.9600 14.6366 0.4578
43.9800 14.6433 0.4612
44.0000 14.6500 0.4456
44.0200 14.6567 0.4559
44.0400 14.6634 0.4598
44.0600 14.6700 0.4431
44.0800 14.6767 0.4557
44.1000 14.6833 0.4544
44.1200 14.6900 0.4447
44.1400 14.6966 0.4525
44.1600 14.7033 0.4572
44.1800 14.7100 0.4470
44.2000 14.7167 0.4494
44.2200 14.7233 0.4584
44.2400 14.7300 0.4425
44.2600 14.7367 0.4475
44.2800 14.7434 0.4548
44.3000 14.7500 0.4408
44.3200 14.7566 0.4463
44.3400 14.7632 0.4539
44.3600 14.7699 0.4441
44.3800 14.7766 0.4441
44.4000 14.7833 0.4494
44.4200 14.7900 0.4458
44.4400 14.7967 0.4378
44.4600 14.8033 0.4484
44.4800 14.8099 0.4411
44.5000 14.8166 0.4446
44.5200 14.8232 0.4472
44.5400 14.8299 0.4365
44.5600 14.8367 0.4417
44.5800 14.8434 0.4457
44.6000 14.8500 0.4386
44.6200 14.8567 0.4359
44.6400 14.8634 0.4456
44.6600 14.8700 0.4370
44.6800 14.8766 0.4385
44.7000 14.8833 0.4440
44.7200 14.8900 0.4365
44.7400 14.8967 0.4302
44.7600 14.9034 0.4417
44.7800 14.9101 0.4343
44.8000 14.9167 0.4330
44.8200 14.9234 0.4407
44.8400 14.9300 0.4373
44.8600 14.9366 0.4266
44.8800 14.9432 0.4436
44.9000 14.9499 0.4393
44.9200 14.9566 0.4245
44.9400 14.9633 0.4362
44.9600 14.9700 0.4369
44.9800 14.9767 0.4211
45.0000 14.9834 0.4330
45.0200 14.9900 0.4344
45.0400 14.9966 0.4232
45.0600 15.0032 0.4361
45.0800 15.0099 0.4343
45.1000 15.0167 0.4162
45.1200 15.0233 0.4372
45.1400 15.0300 0.4332
45.1600 15.0367 0.4167
45.1800 15.0434 0.4355
45.2000 15.0500 0.4299
45.2200 15.0566 0.4162
45.2400 15.0633 0.4357
45.2600 15.0700 0.4268
45.2800 15.0767 0.4152
45.3000 15.0833 0.4340
45.3200 15.0900 0.4235
45.3400 15.0967 0.4156
45.3600 15.1034 0.4346
45.3800 15.1100 0.4220
45.4000 15.1166 0.4116
45.4200 15.1232 0.4413
45.4400 15.1299 0.4137
45.4600 15.1366 0.4114
45.4800 15.1433 0.4334
45.5000 15.1500 0.4140
45.5200 15.1567 0.4114
45.5400 15.1634 0.4300
45.5600 15.1700 0.4111
45.5800 15.1766 0.4167
45.6000 15.1833 0.4315
45.6200 15.1900 0.4112
45.6400 15.1967 0.4126
45.6600 15.2034 0.4261
45.6800 15.2100 0.4113
45.7000 15.2167 0.4141
45.7200 15.2233 0.4219
45.7400 15.2300 0.4103
45.7600 15.2366 0.4128
45.7800 15.2432 0.4174
45.8000 15.2499 0.4082
45.8200 15.2566 0.4087
45.8400 15.2633 0.4204
45.8600 15.2700 0.4071
45.8800 15.2767 0.4072
45.9000 15.2834 0.4152
45.9200 15.2900 0.4086
45.9400 15.2966 0.4027
45.9600 15.3032 0.4138
45.9800 15.3099 0.4125
46.0000 15.3166 0.4029
46.0200 15.3234 0.4054
46.0400 15.3300 0.4106
46.0600 15.3367 0.3991
46.0800 15.3434 0.4056
46.1000 15.3500 0.4025
46.1200 15.3566 0.4018
46.1400 15.3633 0.4035
46.1600 15.3700 0.4024
46.1800 15.3767 0.3950
46.2000 15.3834 0.4003
46.2200 15.3900 0.4022
46.2400 15.3967 0.3909
46.2600 15.4034 0.4003
46.2800 15.4100 0.4024
46.3000 15.4166 0.3910
46.3200 15.4232 0.3983
46.3400 15.4299 0.4038
46.3600 15.4366 0.3909
46.3800 15.4433 0.3950
46.4000 15.4500 0.3992
46.4200 15.4567 0.3914
46.4400 15.4634 0.3892
46.4600 15.4700 0.3956
46.4800 15.4766 0.3893
46.5000 15.4832 0.3923
46.5200 15.4899 0.3959
46.5400 15.4966 0.3847
46.5600 15.5033 0.3858
46.5800 15.5100 0.3962
46.6000 15.5167 0.3821
46.6200 15.5233 0.3840
46.6400 15.5300 0.3945
46.6600 15.5366 0.3810
46.6800 15.5432 0.3797
46.7000 15.5499 0.3955
46.7200 15.5566 0.3778
46.7400 15.5633 0.3819
46.7600 15.5700 0.3924
46.7800 15.5767 0.3756
46.8000 15.5834 0.3814
46.8200 15.5901 0.3897
46.8400 15.5967 0.3764
46.8600 15.6033 0.3805
46.8800 15.6099 0.3838
46.9000 15.6166 0.3757
46.9200 15.6234 0.3773
46.9400 15.6301 0.3816
46.9600 15.6367 0.3788
46.9800 15.6434 0.3712
47.0000 15.6500 0.3847
47.0200 15.6566 0.3757
47.0400 15.6632 0.3762
47.0600 15.6699 0.3816
47.0800 15.6766 0.3694
47.1000 15.6833 0.3731
47.1200 15.6900 0.3850
47.1400 15.6966 0.3677
47.1600 15.7033 0.3718
47.1800 15.7100 0.3818
47.2000 15.7166 0.3683
47.2200 15.7233 0.3711
47.2400 15.7299 0.3846
47.2600 15.7366 0.3640
47.2800 15.7433 0.3703
47.3000 15.7500 0.3802
47.3200 15.7566 0.3634
47.3400 15.7633 0.3728
47.3600 15.7700 0.3775
47.3800 15.7767 0.3582
47.4000 15.7833 0.3731
47.4200 15.7899 0.3783
47.4400 15.7966 0.3567
47.4600 15.8033 0.3666
47.4800 15.8100 0.3747
47.5000 15.8167 0.3603
47.5200 15.8234 0.3676
47.5400 15.8300 0.3654
47.5600 15.8366 0.3604
47.5800 15.8432 0.3662
47.6000 15.8499 0.3618
47.6200 15.8566 0.3622
47.6400 15.8634 0.3680
47.6600 15.8700 0.3651
47.6800 15.8767 0.3593
47.7000 15.8834 0.3637
47.7200 15.8900 0.3620
47.7400 15.8966 0.3620
47.7600 15.9033 0.3607
47.7800 15.9099 0.3606
47.8000 15.9166 0.3614
47.8200 15.9233 0.3585
47.8400 15.9300 0.3592
47.8600 15.9367 0.3627
47.8800 15.9433 0.3551
47.9000 15.9500 0.3577
47.9200 15.9566 0.3548
47.9400 15.9632 0.3545
47.9600 15.9699 0.3621
47.9800 15.9766 0.3551
48.0000 15.9833 0.3505
48.0200 15.9900 0.3530
48.0400 15.9967 0.3578
48.0600 16.0034 0.3463
48.0800 16.0100 0.3533
48.1000 16.0166 0.3547
48.1200 16.0232 0.3500
48.1400 16.0299 0.3507
48.1600 16.0367 0.3542
48.1800 16.0434 0.3486
48.2000 16.0501 0.3523
48.2200 16.0567 0.3504
48.2400 16.0634 0.3502
48.2600 16.0700 0.3449
48.2800 16.0766 0.3517
48.3000 16.0833 0.3455
48.3200 16.0899 0.3432
48.3400 16.0966 0.3516
48.3600 16.1033 0.3419
48.3800 16.1100 0.3413
48.4000 16.1167 0.3514
48.4200 16.1234 0.3413
48.4400 16.1300 0.3417
48.4600 16.1367 0.3453
48.4800 16.1432 0.3354
48.5000 16.1499 0.3425
48.5200 16.1566 0.3459
48.5400 16.1633 0.3335
48.5600 16.1700 0.3399
48.5800 16.1767 0.3495
48.6000 16.1834 0.3308
48.6200 16.1900 0.3360
48.6400 16.1966 0.3418
48.6600 16.2032 0.3317
48.6800 16.2099 0.3361
48.7000 16.2166 0.3427
48.7200 16.2233 0.3302
48.7400 16.2300 0.3355
48.7600 16.2367 0.3370
48.7800 16.2433 0.3273
48.8000 16.2500 0.3324
48.8200 16.2566 0.3386
48.8400 16.2633 0.3235
48.8600 16.2699 0.3342
48.8800 16.2766 0.3336
48.9000 16.2833 0.3234
48.9200 16.2900 0.3322
48.9400 16.2967 0.3306
48.9600 16.3034 0.3256
48.9800 16.3101 0.3306
49.0000 16.3167 0.3303
49.0200 16.3233 0.3181
49.0400 16.3299 0.3255
49.0600 16.3366 0.3292
49.0800 16.3433 0.3187
49.1000 16.3500 0.3244
49.1200 16.3567 0.3261
49.1400 16.3634 0.3167
49.1600 16.3700 0.3174
49.1800 16.3766 0.3228
49.2000 16.3832 0.3190
49.2200 16.3899 0.3159
49.2400 16.3966 0.3236
49.2600 16.4033 0.3130
49.2800 16.4100 0.3180
49.3000 16.4166 0.3201
49.3200 16.4233 0.3180
49.3400 16.4300 0.3109
49.3600 16.4366 0.3191
49.3800 16.4432 0.3188
49.4000 16.4499 0.3065
49.4200 16.4566 0.3135
49.4400 16.4633 0.3146
49.4600 16.4700 0.3055
49.4800 16.4767 0.3121
49.5000 16.4834 0.3127
49.5200 16.4901 0.3029
49.5400 16.4967 0.3107
49.5600 16.5033 0.3115
49.5800 16.5099 0.3040
49.6000 16.5166 0.3108
49.6200 16.5233 0.3083
49.6400 16.5300 0.2947
49.6600 16.5367 0.3158
49.6800 16.5434 0.3039
49.7000 16.5500 0.2908
49.7200 16.5566 0.3166
49.7400 16.5632 0.3027
49.7600 16.5699 0.2874
49.7800 16.5766 0.3149
49.8000 16.5833 0.2997
49.8200 16.5900 0.2916
49.8400 16.5967 0.3110
49.8600 16.6034 0.2942
49.8800 16.6101 0.2861
49.9000 16.6167 0.3108
49.9200 16.6233 0.2909
49.9400 16.6299 0.2838
49.9600 16.6366 0.3043
49.9800 16.6433 0.2923
50.0000 16.6500 0.2891
50.0200 16.6567 0.3008
50.0400 16.6634 0.2939
50.0600 16.6701 0.2839
50.0800 16.6767 0.2979
50.1000 16.6833 0.2878
50.1200 16.6899 0.2804
50.1400 16.6965 0.3008
50.1600 16.7033 0.2871
50.1800 16.7100 0.2752
50.2000 16.7167 0.2982
50.2200 16.7234 0.2845
50.2400 16.7300 0.2762
50.2600 16.7366 0.2914
50.2800 16.7433 0.2869
50.3000 16.7499 0.2722
50.3200 16.7566 0.2904
50.3400 16.7633 0.2842
50.3600 16.7700 0.2723
50.3800 16.7767 0.2888
50.4000 16.7834 0.2824
50.4200 16.7900 0.2687
50.4400 16.7967 0.2921
50.4600 16.8033 0.2774
50.4800 16.8099 0.2705
50.5000 16.8166 0.2910
50.5200 16.8233 0.2740
50.5400 16.8300 0.2650
50.5600 16.8367 0.2904
50.5800 16.8434 0.2753
50.6000 16.8501 0.2632
50.6200 16.8567 0.2850
50.6400 16.8633 0.2727
50.6600 16.8699 0.2701
50.6800 16.8766 0.2815
50.7000 16.8833 0.2703
50.7200 16.8900 0.2682
50.7400 16.8967 0.2823
50.7600 16.9033 0.2651
50.7800 16.9100 0.2675
50.8000 16.9167 0.2780
50.8200 16.9233 0.2648
50.8400 16.9299 0.2700
50.8600 16.9366 0.2785
50.8800 16.9433 0.2604
50.9000 16.9500 0.2697
50.9200 16.9566 0.2746
50.9400 16.9633 0.2646
50.9600 16.9700 0.2660
50.9800 16.9766 0.2729
51.0000 16.9832 0.2669
51.0200 16.9899 0.2631
51.0400 16.9966 0.2706
51.0600 17.0033 0.2677
51.0800 17.0100 0.2589
51.1000 17.0167 0.2626
51.1200 17.0234 0.2665
51.1400 17.0301 0.2605
51.1600 17.0367 0.2625
51.1800 17.0433 0.2617
51.2000 17.0499 0.2581
51.2200 17.0566 0.2599
51.2400 17.0633 0.2621
51.2600 17.0700 0.2498
51.2800 17.0767 0.2611
51.3000 17.0834 0.2617
51.3200 17.0900 0.2490
51.3400 17.0967 0.2572
51.3600 17.1033 0.2631
51.3800 17.1099 0.2522
51.4000 17.1166 0.2574
51.4200 17.1233 0.2577
51.4400 17.1300 0.2495
51.4600 17.1367 0.2546
51.4800 17.1434 0.2580
51.5000 17.1500 0.2423
51.5200 17.1567 0.2551
51.5400 17.1633 0.2559
51.5600 17.1699 0.2395
51.5800 17.1765 0.2557
51.6000 17.1833 0.2581
51.6200 17.1900 0.2394
51.6400 17.1967 0.2485
51.6600 17.2034 0.2540
51.6800 17.2100 0.2397
51.7000 17.2167 0.2471
51.7200 17.2233 0.2485
51.7400 17.2299 0.2445
51.7600 17.2366 0.2474
51.7800 17.2433 0.2493
51.8000 17.2500 0.2369
51.8200 17.2567 0.2472
51.8400 17.2634 0.2468
51.8600 17.2701 0.2407
51.8800 17.2767 0.2373
51.9000 17.2833 0.2462
51.9200 17.2899 0.2445
51.9400 17.2966 0.2377
51.9600 17.3033 0.2390
51.9800 17.3100 0.2418
52.0000 17.3167 0.2350
52.0200 17.3234 0.2392
52.0400 17.3301 0.2394
52.0600 17.3367 0.2294
52.0800 17.3433 0.2381
52.1000 17.3499 0.2376
52.1200 17.3566 0.2270
52.1400 17.3632 0.2446
52.1600 17.3700 0.2350
52.1800 17.3767 0.2212
52.2000 17.3833 0.2426
52.2200 17.3900 0.2336
52.2400 17.3967 0.2192
52.2600 17.4033 0.2409
52.2800 17.4099 0.2319
52.3000 17.4165 0.2184
52.3200 17.4233 0.2412
52.3400 17.4300 0.2248
52.3600 17.4366 0.2231
52.3800 17.4433 0.2388
52.4000 17.4500 0.2226
52.4200 17.4567 0.2233
52.4400 17.4633 0.2332
52.4600 17.4699 0.2194
52.4800 17.4766 0.2219
52.5000 17.4833 0.2325
52.5200 17.4900 0.2196
52.5400 17.4967 0.2199
52.5600 17.5034 0.2279
52.5800 17.5101 0.2139
52.6000 17.5167 0.2199
52.6200 17.5233 0.2224
52.6400 17.5299 0.2221
52.6600 17.5366 0.2158
52.6800 17.5433 0.2147
52.7000 17.5500 0.2252
52.7200 17.5567 0.2116
52.7400 17.5634 0.2157
52.7600 17.5701 0.2211
52.7800 17.5767 0.2088
52.8000 17.5833 0.2093
52.8200 17.5899 0.2228
52.8400 17.5966 0.2067
52.8600 17.6033 0.2079
52.8800 17.6100 0.2201
52.9000 17.6167 0.2008
52.9200 17.6233 0.2017
52.9400 17.6300 0.2219
52.9600 17.6367 0.1940
52.9800 17.6433 0.1994
53.0000 17.6499 0.2213
53.0200 17.6566 0.1953
53.0400 17.6633 0.1970
53.0600 17.6700 0.2182
53.0800 17.6767 0.1889
53.1000 17.6833 0.1970
53.1200 17.6900 0.2175
53.1400 17.6967 0.1848
53.1600 17.7033 0.1954
53.1800 17.7099 0.2132
53.2000 17.7166 0.1821
53.2200 17.7233 0.1957
53.2400 17.7300 0.2053
53.2600 17.7367 0.1828
53.2800 17.7434 0.1937
53.3000 17.7501 0.2020
53.3200 17.7567 0.1819
53.3400 17.7633 0.1907
53.3600 17.7699 0.1976
53.3800 17.7766 0.1776
53.4000 17.7833 0.1913
53.4200 17.7901 0.1961
53.4400 17.7967 0.1768
53.4600 17.8034 0.1858
53.4800 17.8101 0.1967
53.5000 17.8167 0.1768
53.5200 17.8233 0.1879
53.5400 17.8299 0.1928
53.5600 17.8366 0.1774
53.5800 17.8432 0.1827
53.6000 17.8499 0.1910
53.6200 17.8566 0.1723
53.6400 17.8633 0.1824
53.6600 17.8700 0.1868
53.6800 17.8767 0.1724
53.7000 17.8833 0.1777
53.7200 17.8899 0.1863
53.7400 17.8965 0.1749
53.7600 17.9032 0.1739
53.7800 17.9100 0.1836
53.8000 17.9166 0.1708
53.8200 17.9233 0.1712
53.8400 17.9300 0.1814
53.8600 17.9367 0.1672
53.8800 17.9433 0.1694
53.9000 17.9499 0.1864
53.9200 17.9566 0.1650
53.9400 17.9633 0.1699
53.9600 17.9700 0.1838
53.9800 17.9767 0.1613
54.0000 17.9834 0.1628
54.0200 17.9900 0.1799
54.0400 17.9967 0.1597
54.0600 18.0033 0.1663
54.0800 18.0099 0.1698
54.1000 18.0166 0.1579
54.1200 18.0233 0.1656
54.1400 18.0300 0.1765
54.1600 18.0367 0.1511
54.1800 18.0434 0.1585
54.2000 18.0500 0.1712
54.2200 18.0567 0.1513
54.2400 18.0634 0.1548
54.2600 18.0699 0.1695
54.2800 18.0766 0.1502
54.3000 18.0833 0.1502
54.3200 18.0900 0.1623
54.3400 18.0967 0.1509
54.3600 18.1034 0.1501
54.3800 18.1100 0.1637
54.4000 18.1167 0.1443
54.4200 18.1233 0.1395
54.4400 18.1299 0.1653
54.4600 18.1365 0.1454
54.4800 18.1432 0.1401
54.5000 18.1499 0.1613
54.5200 18.1566 0.1448
54.5400 18.1633 0.1333
54.5600 18.1700 0.1583
54.5800 18.1766 0.1412
54.6000 18.1833 0.1345
54.6200 18.1899 0.1564
54.6400 18.1965 0.1360
54.6600 18.2032 0.1357
54.6800 18.2100 0.1562
54.7000 18.2167 0.1334
54.7200 18.2234 0.1310
54.7400 18.2301 0.1481
54.7600 18.2368 0.1320
54.7800 18.2434 0.1280
54.8000 18.2500 0.1532
54.8200 18.2566 0.1291
54.8400 18.2633 0.1251
54.8600 18.2700 0.1474
54.8800 18.2767 0.1270
54.9000 18.2834 0.1265
54.9200 18.2901 0.1424
54.9400 18.2967 0.1220
54.9600 18.3033 0.1228
54.9800 18.3099 0.1452
55.0000 18.3166 0.1243
55.0200 18.3232 0.1267
55.0400 18.3300 0.1381
55.0600 18.3366 0.1252
55.0800 18.3433 0.1206
55.1000 18.3500 0.1359
55.1200 18.3567 0.1214
55.1400 18.3633 0.1220
55.1600 18.3699 0.1351
55.1800 18.3765 0.1185
55.2000 18.3832 0.1187
55.2200 18.3899 0.1389
55.2400 18.3966 0.1169
55.2600 18.4033 0.1155
55.2800 18.4100 0.1332
55.3000 18.4167 0.1181
55.3200 18.4233 0.1148
55.3400 18.4299 0.1272
55.3600 18.4366 0.1143
55.3800 18.4433 0.1182
55.4000 18.4500 0.1226
55.4200 18.4567 0.1121
55.4400 18.4634 0.1157
55.4600 18.4700 0.1217
55.4800 18.4767 0.1108
55.5000 18.4834 0.1137
55.5200 18.4900 0.1147
55.5400 18.4966 0.1099
55.5600 18.5033 0.1143
55.5800 18.5100 0.1104
55.6000 18.5167 0.1085
55.6200 18.5233 0.1102
55.6400 18.5300 0.1110
55.6600 18.5367 0.1066
55.6800 18.5434 0.1084
55.7000 18.5500 0.1052
55.7200 18.5566 0.1098
55.7400 18.5632 0.1003
55.7600 18.5700 0.1064
55.7800 18.5767 0.1064
55.8000 18.5833 0.0991
55.8200 18.5900 0.1006
55.8400 18.5967 0.1036
55.8600 18.6033 0.0964
55.8800 18.6099 0.1007
55.9000 18.6165 0.1018
55.9200 18.6232 0.0958
55.9400 18.6299 0.1017
55.9600 18.6366 0.0967
55.9800 18.6433 0.0876
56.0000 18.6500 0.0977
56.0200 18.6567 0.0966
56.0400 18.6633 0.0858
56.0600 18.6700 0.0958
56.0800 18.6766 0.0942
56.1000 18.6833 0.0891
56.1200 18.6900 0.0912
56.1400 18.6967 0.0908
56.1600 18.7034 0.0869
56.1800 18.7101 0.0885
56.2000 18.7167 0.0857
56.2200 18.7234 0.0877
56.2400 18.7300 0.0822
56.2600 18.7366 0.0881
56.2800 18.7432 0.0827
56.3000 18.7500 0.0820
56.3200 18.7567 0.0842
56.3400 18.7634 0.0832
56.3600 18.7700 0.0741
56.3800 18.7767 0.0832
56.4000 18.7834 0.0812
56.4200 18.7900 0.0713
56.4400 18.7966 0.0826
56.4600 18.8033 0.0761
56.4800 18.8100 0.0726
56.5000 18.8167 0.0797
56.5200 18.8233 0.0717
56.5400 18.8300 0.0689
56.5600 18.8367 0.0823
56.5800 18.8433 0.0665
56.6000 18.8499 0.0647
56.6200 18.8565 0.0760
56.6400 18.8632 0.0713
56.6600 18.8699 0.0632
56.6800 18.8766 0.0749
56.7000 18.8833 0.0629
56.7200 18.8900 0.0645
56.7400 18.8967 0.0694
56.7600 18.9034 0.0657
56.7800 18.9100 0.0645
56.8000 18.9166 0.0672
56.8200 18.9232 0.0606
56.8400 18.9300 0.0590
56.8600 18.9367 0.0613
56.8800 18.9434 0.0655
56.9000 18.9501 0.0540
56.9200 18.9567 0.0570
56.9400 18.9634 0.0629
56.9600 18.9700 0.0519
56.9800 18.9766 0.0598
57.0000 18.9833 0.0601
57.0200 18.9900 0.0476
57.0400 18.9967 0.0569
57.0600 19.0034 0.0582
57.0800 19.0100 0.0395
57.1000 19.0167 0.0545
57.1200 19.0234 0.0558
57.1400 19.0300 0.0394
57.1600 19.0366 0.0537
57.1800 19.0432 0.0531
57.2000 19.0499 0.0383
57.2200 19.0566 0.0524
57.2400 19.0633 0.0450
57.2600 19.0700 0.0380
57.2800 19.0767 0.0458
57.3000 19.0834 0.0474
57.3200 19.0900 0.0294
57.3400 19.0965 0.0476
57.3600 19.1032 0.0453
57.3800 19.1099 0.0264
57.4000 19.1166 0.0428
57.4200 19.1233 0.0421
57.4400 19.1300 0.0273
57.4600 19.1367 0.0422
57.4800 19.1433 0.0367
57.5000 19.1500 0.0270
57.5200 19.1566 0.0406
57.5400 19.1632 0.0394
57.5600 19.1699 0.0177
57.5800 19.1767 0.0381
57.6000 19.1834 0.0356
57.6200 19.1900 0.0156
57.6400 19.1967 0.0370
57.6600 19.2034 0.0292
57.6800 19.2100 0.0131
57.7000 19.2166 0.0329
57.7200 19.2233 0.0304
57.7400 19.2300 0.0117
57.7600 19.2367 0.0324
57.7800 19.2434 0.0213
57.8000 19.2501 0.0124
57.8200 19.2567 0.0282
57.8400 19.2634 0.0182
57.8600 19.2700 0.0109
57.8800 19.2766 0.0244
57.9000 19.2832 0.0175
57.9200 19.2899 0.0067
57.9400 19.2966 0.0214
57.9600 19.3033 0.0185
57.9800 19.3100 0.0036
58.0000 19.3166 0.0177
58.0200 19.3233 0.0138
58.0400 19.3300 -0.0030
58.0600 19.3366 0.0185
58.0800 19.3432 0.0106
58.1000 19.3499 -0.0057
58.1200 19.3566 0.0158
58.1400 19.3633 0.0066
58.1600 19.3699 -0.0072
58.1800 19.3766 0.0113
58.2000 19.3833 0.0038
58.2200 19.3900 -0.0055
58.2400 19.3966 0.0084
58.2600 19.4033 0.0020
58.2800 19.4099 -0.0121
58.3000 19.4166 0.0077
58.3200 19.4233 -0.0048
58.3400 19.4300 -0.0117
58.3600 19.4367 0.0033
58.3800 19.4434 -0.0101
58.4000 19.4500 -0.0111
58.4200 19.4566 0.0015
58.4400 19.4632 -0.0100
58.4600 19.4699 -0.0076
58.4800 19.4767 -0.0068
58.5000 19.4834 -0.0132
58.5200 19.4900 -0.0114
58.5400 19.4967 -0.0055
58.5600 19.5034 -0.0170
58.5800 19.5100 -0.0155
58.6000 19.5166 -0.0118
58.6200 19.5233 -0.0118
58.6400 19.5299 -0.0141
58.6600 19.5367 -0.0219
58.6800 19.5433 -0.0155
58.7000 19.5500 -0.0206
58.7200 19.5567 -0.0221
58.7400 19.5634 -0.0188
58.7600 19.5700 -0.0221
58.7800 19.5766 -0.0261
58.8000 19.5832 -0.0184
58.8200 19.5899 -0.0287
58.8400 19.5966 -0.0249
58.8600 19.6033 -0.0199
58.8800 19.6100 -0.0348
58.9000 19.6167 -0.0335
58.9200 19.6233 -0.0183
58.9400 19.6300 -0.0391
58.9600 19.6366 -0.0309
58.9800 19.6432 -0.0225
59.0000 19.6499 -0.0386
59.0200 19.6566 -0.0389
59.0400 19.6633 -0.0335
59.0600 19.6700 -0.0422
59.0800 19.6767 -0.0398
59.1000 19.6834 -0.0410
59.1200 19.6900 -0.0474
59.1400 19.6966 -0.0432
59.1600 19.7033 -0.0402
59.1800 19.7100 -0.0483
59.2000 19.7167 -0.0514
59.2200 19.7234 -0.0444
59.2400 19.7300 -0.0516
59.2600 19.7367 -0.0535
59.2800 19.7434 -0.0479
59.3000 19.7500 -0.0647
59.3010 19.7503 -0.0666
