Raw Data
Time Displacement Force
(s) (mm) (N)
0.0000 0.0001 -0.2016
0.0200 0.0001 -0.2042
0.0400 0.0008 -0.1559
0.0600 0.0041 -0.1219
0.0800 0.0096 -0.1756
0.1000 0.0154 -0.1758
0.1200 0.0213 -0.1057
0.1400 0.0279 -0.1171
0.1600 0.0352 -0.1123
0.1800 0.0426 -0.0785
0.2000 0.0498 -0.0893
0.2200 0.0566 -0.0750
0.2400 0.0633 -0.0454
0.2600 0.0700 -0.0525
0.2800 0.0767 -0.0480
0.3000 0.0834 -0.0154
0.3200 0.0901 -0.0347
0.3400 0.0968 -0.0177
0.3600 0.1035 0.0019
0.3800 0.1101 -0.0169
0.4000 0.1168 -0.0027
0.4200 0.1234 0.0102
0.4400 0.1301 -0.0044
0.4600 0.1368 0.0144
0.4800 0.1435 0.0147
0.5000 0.1502 0.0103
0.5200 0.1569 0.0258
0.5400 0.1635 0.0388
0.5600 0.1701 0.0250
0.5800 0.1767 0.0534
0.6000 0.1834 0.0516
0.6200 0.1902 0.0497
0.6400 0.1969 0.0754
0.6600 0.2035 0.0794
0.6800 0.2102 0.0846
0.7000 0.2169 0.0976
0.7200 0.2235 0.1084
0.7400 0.2301 0.1204
0.7600 0.2367 0.1438
0.7800 0.2434 0.1694
0.8000 0.2501 0.2036
0.8200 0.2568 0.2478
0.8400 0.2635 0.2820
0.8600 0.2702 0.3120
0.8800 0.2768 0.3469
0.9000 0.2835 0.3780
0.9200 0.2901 0.4208
0.9400 0.2967 0.4416
0.9600 0.3034 0.4745
0.9800 0.3101 0.4966
1.0000 0.3168 0.5048
1.0200 0.3235 0.5059
1.0400 0.3301 0.5081
1.0600 0.3368 0.5061
1.0800 0.3435 0.5108
1.1000 0.3501 0.5139
1.1200 0.3567 0.5110
1.1400 0.3634 0.5208
1.1600 0.3702 0.5185
1.1800 0.3769 0.5123
1.2000 0.3835 0.5245
1.2200 0.3902 0.5144
1.2400 0.3969 0.5216
1.2600 0.4035 0.5270
1.2800 0.4102 0.5167
1.3000 0.4168 0.5297
1.3200 0.4235 0.5265
1.3400 0.4302 0.5145
1.3600 0.4369 0.5256
1.3800 0.4435 0.5297
1.4000 0.4502 0.5200
1.4200 0.4569 0.5323
1.4400 0.4635 0.5280
1.4600 0.4701 0.5224
1.4800 0.4767 0.5336
1.5000 0.4834 0.5276
1.5200 0.4901 0.5215
1.5400 0.4968 0.5374
1.5600 0.5035 0.5229
1.5800 0.5102 0.5256
1.6000 0.5168 0.5336
1.6200 0.5235 0.5247
1.6400 0.5301 0.5283
1.6600 0.5367 0.5321
1.6800 0.5434 0.5195
1.7000 0.5501 0.5206
1.7200 0.5568 0.5311
1.7400 0.5635 0.5221
1.7600 0.5702 0.5202
1.7800 0.5768 0.5252
1.8000 0.5835 0.5197
1.8200 0.5901 0.5199
1.8400 0.5968 0.5236
1.8600 0.6034 0.5154
1.8800 0.6101 0.5220
1.9000 0.6168 0.5244
1.9200 0.6235 0.5114
1.9400 0.6302 0.5172
1.9600 0.6369 0.5266
1.9800 0.6435 0.5069
2.0000 0.6501 0.5198
2.0200 0.6568 0.5261
2.0400 0.6634 0.5122
2.0600 0.6701 0.5140
2.0800 0.6769 0.5196
2.1000 0.6835 0.5124
2.1200 0.6902 0.5162
2.1400 0.6969 0.5145
2.1600 0.7035 0.5107
2.1800 0.7101 0.5098
2.2000 0.7167 0.5197
2.2200 0.7234 0.5148
2.2400 0.7301 0.5080
2.2600 0.7369 0.5136
2.2800 0.7435 0.5154
2.3000 0.7502 0.5087
2.3200 0.7568 0.5138
2.3400 0.7635 0.5123
2.3600 0.7701 0.5069
2.3800 0.7767 0.5186
2.4000 0.7834 0.5091
2.4200 0.7901 0.5076
2.4400 0.7968 0.5165
2.4600 0.8035 0.5096
2.4800 0.8102 0.5087
2.5000 0.8169 0.5172
2.5200 0.8235 0.5082
2.5400 0.8301 0.5129
2.5600 0.8367 0.5128
2.5800 0.8434 0.5124
2.6000 0.8501 0.5107
2.6200 0.8569 0.5113
2.6400 0.8636 0.5083
2.6600 0.8702 0.5160
2.6800 0.8769 0.5146
2.7000 0.8835 0.5070
2.7200 0.8901 0.5111
2.7400 0.8968 0.5158
2.7600 0.9034 0.5093
2.7800 0.9102 0.5074
2.8000 0.9169 0.5104
2.8200 0.9235 0.5170
2.8400 0.9302 0.5067
2.8600 0.9369 0.5137
2.8800 0.9435 0.5151
2.9000 0.9501 0.4982
2.9200 0.9567 0.5170
2.9400 0.9634 0.5150
2.9600 0.9701 0.5097
2.9800 0.9768 0.5091
3.0000 0.9835 0.5098
3.0200 0.9902 0.5044
3.0400 0.9969 0.5084
3.0600 1.0035 0.5172
3.0800 1.0101 0.5095
3.1000 1.0167 0.5057
3.1200 1.0233 0.5152
3.1400 1.0301 0.5079
3.1600 1.0368 0.5096
3.1800 1.0435 0.5087
3.2000 1.0502 0.5101
3.2200 1.0569 0.5035
3.2400 1.0635 0.5060
3.2600 1.0701 0.5062
3.2800 1.0767 0.5140
3.3000 1.0834 0.5078
3.3200 1.0901 0.5036
3.3400 1.0968 0.5073
3.3600 1.1035 0.5095
3.3800 1.1102 0.5040
3.4000 1.1169 0.5091
3.4200 1.1236 0.5125
3.4400 1.1302 0.4990
3.4600 1.1368 0.5096
3.4800 1.1434 0.5156
3.5000 1.1501 0.5009
3.5200 1.1568 0.5076
3.5400 1.1635 0.5140
3.5600 1.1702 0.4971
3.5800 1.1769 0.5081
3.6000 1.1835 0.5071
3.6200 1.1901 0.5040
3.6400 1.1967 0.5081
3.6600 1.2034 0.5050
3.6800 1.2101 0.5034
3.7000 1.2168 0.5117
3.7200 1.2235 0.4991
3.7400 1.2302 0.5015
3.7600 1.2368 0.5144
3.7800 1.2435 0.5012
3.8000 1.2501 0.4956
3.8200 1.2568 0.5165
3.8400 1.2634 0.4992
3.8600 1.2701 0.4939
3.8800 1.2768 0.5159
3.9000 1.2835 0.5108
3.9200 1.2901 0.4974
3.9400 1.2968 0.5045
3.9600 1.3035 0.5002
3.9800 1.3102 0.5016
4.0000 1.3168 0.5098
4.0200 1.3234 0.4953
4.0400 1.3301 0.5062
4.0600 1.3368 0.5124
4.0800 1.3435 0.4965
4.1000 1.3502 0.5062
4.1200 1.3569 0.5098
4.1400 1.3635 0.4969
4.1600 1.3701 0.5087
4.1800 1.3768 0.5022
4.2000 1.3834 0.4961
4.2200 1.3901 0.5123
4.2400 1.3969 0.5057
4.2600 1.4036 0.4916
4.2800 1.4102 0.5108
4.3000 1.4169 0.5052
4.3200 1.4236 0.4993
4.3400 1.4302 0.5036
4.3600 1.4368 0.4999
4.3800 1.4434 0.5028
4.4000 1.4501 0.5136
4.4200 1.4568 0.4962
4.4400 1.4635 0.4974
4.4600 1.4701 0.5162
4.4800 1.4768 0.4943
4.5000 1.4835 0.4993
4.5200 1.4902 0.5112
4.5400 1.4968 0.4960
4.5600 1.5034 0.5030
4.5800 1.5101 0.5127
4.6000 1.5168 0.4958
4.6200 1.5235 0.5005
4.6400 1.5302 0.5109
4.6600 1.5369 0.4951
4.6800 1.5435 0.4944
4.7000 1.5502 0.5092
4.7200 1.5568 0.4921
4.7400 1.5634 0.5006
4.7600 1.5701 0.5129
4.7800 1.5769 0.4986
4.8000 1.5836 0.4974
4.8200 1.5903 0.5091
4.8400 1.5969 0.4946
4.8600 1.6036 0.5011
4.8800 1.6102 0.5075
4.9000 1.6168 0.4955
4.9200 1.6234 0.5030
4.9400 1.6301 0.5062
4.9600 1.6368 0.4912
4.9800 1.6435 0.5047
5.0000 1.6502 0.5025
5.0200 1.6569 0.4937
5.0400 1.6636 0.5079
5.0600 1.6702 0.4954
5.0800 1.6768 0.4926
5.1000 1.6834 0.5036
5.1200 1.6901 0.5036
5.1400 1.6968 0.4906
5.1600 1.7035 0.5036
5.1800 1.7102 0.5015
5.2000 1.7169 0.4880
5.2200 1.7236 0.5043
5.2400 1.7302 0.5096
5.2600 1.7368 0.4838
5.2800 1.7434 0.5045
5.3000 1.7501 0.5004
5.3200 1.7568 0.4830
5.3400 1.7635 0.5038
5.3600 1.7701 0.5019
5.3800 1.7768 0.4837
5.4000 1.7835 0.5076
5.4200 1.7901 0.4991
5.4400 1.7968 0.4807
5.4600 1.8034 0.5080
5.4800 1.8101 0.4972
5.5000 1.8168 0.4833
5.5200 1.8235 0.5010
5.5400 1.8302 0.4947
5.5600 1.8369 0.4872
5.5800 1.8436 0.5014
5.6000 1.8502 0.4883
5.6200 1.8568 0.4939
5.6400 1.8634 0.5047
5.6600 1.8701 0.4848
5.6800 1.8768 0.4938
5.7000 1.8835 0.5007
5.7200 1.8902 0.4780
5.7400 1.8969 0.4983
5.7600 1.9035 0.4934
5.7800 1.9102 0.4755
5.8000 1.9168 0.4945
5.8200 1.9234 0.5030
5.8400 1.9301 0.4850
5.8600 1.9368 0.4947
5.8800 1.9435 0.4939
5.9000 1.9501 0.4847
5.9200 1.9568 0.4940
5.9400 1.9635 0.4915
5.9600 1.9701 0.4874
5.9800 1.9768 0.4964
6.0000 1.9834 0.4845
6.0200 1.9901 0.4903
6.0400 1.9968 0.4961
6.0600 2.0035 0.4793
6.0800 2.0102 0.4916
6.1000 2.0169 0.4947
6.1200 2.0236 0.4799
6.1400 2.0302 0.4890
6.1600 2.0368 0.4935
6.1800 2.0434 0.4810
6.2000 2.0501 0.4913
6.2200 2.0568 0.4848
6.2400 2.0635 0.4811
6.2600 2.0702 0.4921
6.2800 2.0769 0.4895
6.3000 2.0835 0.4809
6.3200 2.0902 0.4925
6.3400 2.0968 0.4819
6.3600 2.1034 0.4890
6.3800 2.1101 0.4866
6.4000 2.1168 0.4762
6.4200 2.1235 0.4868
6.4400 2.1302 0.4956
6.4600 2.1369 0.4800
6.4800 2.1436 0.4788
6.5000 2.1502 0.4915
6.5200 2.1568 0.4835
6.5400 2.1634 0.4899
6.5600 2.1701 0.4863
6.5800 2.1768 0.4725
6.6000 2.1835 0.4934
6.6200 2.1902 0.4835
6.6400 2.1969 0.4754
6.6600 2.2036 0.4909
6.6800 2.2102 0.4803
6.7000 2.2168 0.4810
6.7200 2.2234 0.4864
6.7400 2.2300 0.4825
6.7600 2.2367 0.4823
6.7800 2.2435 0.4830
6.8000 2.2502 0.4772
6.8200 2.2568 0.4889
6.8400 2.2635 0.4809
6.8600 2.2702 0.4782
6.8800 2.2768 0.4872
6.9000 2.2834 0.4820
6.9200 2.2901 0.4736
6.9400 2.2968 0.4850
6.9600 2.3035 0.4787
6.9800 2.3102 0.4842
7.0000 2.3169 0.4786
7.0200 2.3236 0.4791
7.0400 2.3302 0.4844
7.0600 2.3368 0.4811
7.0800 2.3434 0.4746
7.1000 2.3501 0.4884
7.1200 2.3568 0.4739
7.1400 2.3635 0.4688
7.1600 2.3702 0.4957
7.1800 2.3769 0.4692
7.2000 2.3836 0.4740
7.2200 2.3902 0.4933
7.2400 2.3968 0.4649
7.2600 2.4034 0.4796
7.2800 2.4101 0.4969
7.3000 2.4168 0.4571
7.3200 2.4235 0.4853
7.3400 2.4302 0.4902
7.3600 2.4369 0.4601
7.3800 2.4435 0.4858
7.4000 2.4502 0.4909
7.4200 2.4568 0.4545
7.4400 2.4634 0.4899
7.4600 2.4701 0.4873
7.4800 2.4768 0.4638
7.5000 2.4835 0.4885
7.5200 2.4901 0.4762
7.5400 2.4968 0.4676
7.5600 2.5035 0.4940
7.5800 2.5101 0.4718
7.6000 2.5168 0.4634
7.6200 2.5234 0.4875
7.6400 2.5301 0.4793
7.6600 2.5368 0.4676
7.6800 2.5435 0.4842
7.7000 2.5502 0.4756
7.7200 2.5569 0.4704
7.7400 2.5636 0.4864
7.7600 2.5702 0.4693
7.7800 2.5768 0.4757
7.8000 2.5834 0.4859
7.8200 2.5901 0.4761
7.8400 2.5968 0.4697
7.8600 2.6035 0.4850
7.8800 2.6102 0.4710
7.9000 2.6169 0.4683
7.9200 2.6235 0.4828
7.9400 2.6302 0.4767
7.9600 2.6368 0.4696
7.9800 2.6434 0.4808
8.0000 2.6501 0.4735
8.0200 2.6568 0.4691
8.0400 2.6635 0.4792
8.0600 2.6702 0.4775
8.0800 2.6768 0.4666
8.1000 2.6835 0.4845
8.1200 2.6902 0.4757
8.1400 2.6968 0.4613
8.1600 2.7034 0.4808
8.1800 2.7100 0.4796
8.2000 2.7167 0.4664
8.2200 2.7235 0.4781
8.2400 2.7302 0.4754
8.2600 2.7369 0.4693
8.2800 2.7435 0.4773
8.3000 2.7502 0.4680
8.3200 2.7568 0.4760
8.3400 2.7634 0.4840
8.3600 2.7701 0.4653
8.3800 2.7768 0.4695
8.4000 2.7835 0.4824
8.4200 2.7902 0.4651
8.4400 2.7968 0.4710
8.4600 2.8035 0.4744
8.4800 2.8102 0.4712
8.5000 2.8168 0.4725
8.5200 2.8235 0.4695
8.5400 2.8301 0.4737
8.5600 2.8368 0.4752
8.5800 2.8435 0.4640
8.6000 2.8502 0.4796
8.6200 2.8569 0.4735
8.6400 2.8636 0.4661
8.6600 2.8702 0.4761
8.6800 2.8769 0.4714
8.7000 2.8834 0.4641
8.7200 2.8901 0.4789
8.7400 2.8967 0.4691
8.7600 2.9035 0.4582
8.7800 2.9102 0.4807
8.8000 2.9168 0.4659
8.8200 2.9235 0.4632
8.8400 2.9302 0.4763
8.8600 2.9368 0.4622
8.8800 2.9434 0.4681
8.9000 2.9500 0.4779
8.9200 2.9567 0.4627
8.9400 2.9634 0.4682
8.9600 2.9701 0.4732
8.9800 2.9768 0.4615
9.0000 2.9835 0.4656
9.0200 2.9902 0.4715
9.0400 2.9968 0.4586
9.0600 3.0034 0.4722
9.0800 3.0101 0.4639
9.1000 3.0168 0.4588
9.1200 3.0235 0.4710
9.1400 3.0302 0.4618
9.1600 3.0369 0.4615
9.1800 3.0436 0.4727
9.2000 3.0502 0.4571
9.2200 3.0569 0.4603
9.2400 3.0634 0.4682
9.2600 3.0701 0.4622
9.2800 3.0768 0.4621
9.3000 3.0835 0.4644
9.3200 3.0902 0.4615
9.3400 3.0969 0.4635
9.3600 3.1036 0.4630
9.3800 3.1102 0.4576
9.4000 3.1168 0.4663
9.4200 3.1234 0.4578
9.4400 3.1301 0.4618
9.4600 3.1368 0.4665
9.4800 3.1435 0.4587
9.5000 3.1502 0.4593
9.5200 3.1568 0.4678
9.5400 3.1635 0.4587
9.5600 3.1702 0.4594
9.5800 3.1768 0.4632
9.6000 3.1834 0.4614
9.6200 3.1901 0.4621
9.6400 3.1968 0.4673
9.6600 3.2035 0.4566
9.6800 3.2102 0.4622
9.7000 3.2168 0.4689
9.7200 3.2235 0.4560
9.7400 3.2301 0.4609
9.7600 3.2368 0.4691
9.7800 3.2434 0.4605
9.8000 3.2501 0.4567
9.8200 3.2568 0.4675
9.8400 3.2635 0.4626
9.8600 3.2702 0.4558
9.8800 3.2769 0.4623
9.9000 3.2836 0.4675
9.9200 3.2902 0.4539
9.9400 3.2969 0.4631
9.9600 3.3034 0.4656
9.9800 3.3101 0.4564
10.0000 3.3168 0.4697
10.0200 3.3235 0.4595
10.0400 3.3302 0.4545
10.0600 3.3369 0.4759
10.0800 3.3436 0.4478
10.1000 3.3502 0.4570
10.1200 3.3568 0.4809
10.1400 3.3634 0.4466
10.1600 3.3701 0.4587
10.1800 3.3767 0.4838
10.2000 3.3834 0.4400
10.2200 3.3901 0.4671
10.2400 3.3968 0.4861
10.2600 3.4035 0.4315
10.2800 3.4102 0.4690
10.3000 3.4168 0.4791
10.3200 3.4234 0.4259
10.3400 3.4300 0.4784
10.3600 3.4367 0.4760
10.3800 3.4434 0.4245
10.4000 3.4501 0.4786
10.4200 3.4568 0.4672
10.4400 3.4635 0.4357
10.4600 3.4702 0.4804
10.4800 3.4768 0.4579
10.5000 3.4835 0.4355
10.5200 3.4901 0.4880
10.5400 3.4968 0.4523
10.5600 3.5035 0.4453
10.5800 3.5102 0.4783
10.6000 3.5168 0.4514
10.6200 3.5235 0.4498
10.6400 3.5302 0.4750
10.6600 3.5369 0.4460
10.6800 3.5435 0.4570
10.7000 3.5501 0.4697
10.7200 3.5568 0.4510
10.7400 3.5635 0.4547
10.7600 3.5702 0.4634
10.7800 3.5768 0.4534
10.8000 3.5835 0.4591
10.8200 3.5902 0.4565
10.8400 3.5969 0.4530
10.8600 3.6035 0.4598
10.8800 3.6101 0.4567
10.9000 3.6168 0.4575
10.9200 3.6235 0.4631
10.9400 3.6302 0.4535
10.9600 3.6369 0.4565
10.9800 3.6435 0.4613
11.0000 3.6502 0.4481
11.0200 3.6568 0.4600
11.0400 3.6635 0.4559
11.0600 3.6701 0.4504
11.0800 3.6767 0.4629
11.1000 3.6834 0.4535
11.1200 3.6901 0.4476
11.1400 3.6968 0.4631
11.1600 3.7035 0.4519
11.1800 3.7101 0.4508
11.2000 3.7168 0.4599
11.2200 3.7234 0.4470
11.2400 3.7301 0.4507
11.2600 3.7368 0.4635
11.2800 3.7435 0.4444
11.3000 3.7502 0.4532
11.3200 3.7569 0.4596
11.3400 3.7636 0.4465
11.3600 3.7703 0.4529
11.3800 3.7769 0.4583
11.4000 3.7835 0.4462
11.4200 3.7901 0.4571
11.4400 3.7968 0.4589
11.4600 3.8035 0.4395
11.4800 3.8102 0.4586
11.5000 3.8169 0.4554
11.5200 3.8236 0.4425
11.5400 3.8302 0.4620
11.5600 3.8369 0.4520
11.5800 3.8435 0.4414
11.6000 3.8501 0.4599
11.6200 3.8567 0.4472
11.6400 3.8634 0.4515
11.6600 3.8701 0.4614
11.6800 3.8768 0.4465
11.7000 3.8835 0.4486
11.7200 3.8902 0.4606
11.7400 3.8968 0.4409
11.7600 3.9035 0.4509
11.7800 3.9100 0.4601
11.8000 3.9167 0.4391
11.8200 3.9234 0.4506
11.8400 3.9301 0.4568
11.8600 3.9368 0.4382
11.8800 3.9435 0.4545
11.9000 3.9502 0.4484
11.9200 3.9568 0.4396
11.9400 3.9635 0.4564
11.9600 3.9701 0.4482
11.9800 3.9768 0.4395
12.0000 3.9835 0.4584
12.0200 3.9902 0.4483
12.0400 3.9969 0.4387
12.0600 4.0035 0.4638
12.0800 4.0102 0.4432
12.1000 4.0169 0.4395
12.1200 4.0235 0.4619
12.1400 4.0301 0.4428
12.1600 4.0368 0.4381
12.1800 4.0435 0.4634
12.2000 4.0502 0.4405
12.2200 4.0569 0.4436
12.2400 4.0636 0.4571
12.2600 4.0702 0.4446
12.2800 4.0769 0.4437
12.3000 4.0835 0.4595
12.3200 4.0901 0.4325
12.3400 4.0967 0.4498
12.3600 4.1034 0.4571
12.3800 4.1101 0.4341
12.4000 4.1168 0.4485
12.4200 4.1235 0.4550
12.4400 4.1302 0.4367
12.4600 4.1368 0.4498
12.4800 4.1434 0.4525
12.5000 4.1500 0.4397
12.5200 4.1567 0.4506
12.5400 4.1634 0.4475
12.5600 4.1701 0.4389
12.5800 4.1768 0.4497
12.6000 4.1835 0.4475
12.6200 4.1902 0.4395
12.6400 4.1969 0.4481
12.6600 4.2035 0.4505
12.6800 4.2101 0.4398
12.7000 4.2168 0.4441
12.7200 4.2235 0.4542
12.7400 4.2302 0.4395
12.7600 4.2368 0.4470
12.7800 4.2435 0.4510
12.8000 4.2502 0.4407
12.8200 4.2569 0.4454
12.8400 4.2635 0.4530
12.8600 4.2701 0.4381
12.8800 4.2768 0.4478
12.9000 4.2835 0.4544
12.9200 4.2902 0.4388
12.9400 4.2969 0.4428
12.9600 4.3036 0.4517
12.9800 4.3102 0.4410
13.0000 4.3169 0.4459
13.0200 4.3235 0.4465
13.0400 4.3301 0.4387
13.0600 4.3368 0.4504
13.0800 4.3435 0.4483
13.1000 4.3502 0.4421
13.1200 4.3569 0.4422
13.1400 4.3635 0.4521
13.1600 4.3702 0.4420
13.1800 4.3769 0.4434
13.2000 4.3835 0.4474
13.2200 4.3901 0.4458
13.2400 4.3967 0.4385
13.2600 4.4034 0.4461
13.2800 4.4101 0.4453
13.3000 4.4168 0.4407
13.3200 4.4235 0.4462
13.3400 4.4302 0.4503
13.3600 4.4369 0.4332
13.3800 4.4435 0.4461
13.4000 4.4501 0.4466
13.4200 4.4567 0.4392
13.4400 4.4634 0.4479
13.4600 4.4702 0.4419
13.4800 4.4769 0.4333
13.5000 4.4836 0.4464
13.5200 4.4902 0.4442
13.5400 4.4969 0.4328
13.5600 4.5035 0.4484
13.5800 4.5101 0.4384
13.6000 4.5168 0.4338
13.6200 4.5235 0.4512
13.6400 4.5302 0.4424
13.6600 4.5369 0.4314
13.6800 4.5435 0.4502
13.7000 4.5502 0.4387
13.7200 4.5568 0.4330
13.7400 4.5635 0.4454
13.7600 4.5701 0.4409
13.7800 4.5767 0.4336
13.8000 4.5834 0.4457
13.8200 4.5901 0.4347
13.8400 4.5968 0.4382
13.8600 4.6035 0.4453
13.8800 4.6102 0.4391
13.9000 4.6169 0.4386
13.9200 4.6235 0.4459
13.9400 4.6301 0.4353
13.9600 4.6367 0.4396
13.9800 4.6434 0.4439
14.0000 4.6501 0.4366
14.0200 4.6568 0.4370
14.0400 4.6635 0.4421
14.0600 4.6701 0.4384
14.0800 4.6768 0.4424
14.1000 4.6834 0.4350
14.1200 4.6901 0.4396
14.1400 4.6967 0.4463
14.1600 4.7035 0.4303
14.1800 4.7102 0.4418
14.2000 4.7169 0.4434
14.2200 4.7235 0.4329
14.2400 4.7302 0.4401
14.2600 4.7369 0.4400
14.2800 4.7435 0.4314
14.3000 4.7501 0.4417
14.3200 4.7568 0.4352
14.3400 4.7634 0.4358
14.3600 4.7701 0.4458
14.3800 4.7769 0.4299
14.4000 4.7836 0.4313
14.4200 4.7903 0.4485
14.4400 4.7969 0.4285
14.4600 4.8035 0.4357
14.4800 4.8101 0.4449
14.5000 4.8167 0.4272
14.5200 4.8234 0.4365
14.5400 4.8301 0.4480
14.5600 4.8368 0.4249
14.5800 4.8435 0.4410
14.6000 4.8501 0.4415
14.6200 4.8568 0.4245
14.6400 4.8635 0.4367
14.6600 4.8701 0.4451
14.6800 4.8767 0.4240
14.7000 4.8834 0.4348
14.7200 4.8901 0.4420
14.7400 4.8968 0.4303
14.7600 4.9035 0.4398
14.7800 4.9101 0.4361
14.8000 4.9168 0.4310
14.8200 4.9235 0.4299
14.8400 4.9301 0.4387
14.8600 4.9368 0.4319
14.8800 4.9434 0.4340
14.9000 4.9501 0.4361
14.9200 4.9568 0.4369
14.9400 4.9635 0.4339
14.9600 4.9702 0.4387
14.9800 4.9769 0.4313
15.0000 4.9835 0.4270
15.0200 4.9901 0.4392
15.0400 4.9967 0.4381
15.0600 5.0034 0.4273
15.0800 5.0102 0.4399
15.1000 5.0169 0.4308
15.1200 5.0236 0.4267
15.1400 5.0302 0.4384
15.1600 5.0369 0.4323
15.1800 5.0435 0.4265
15.2000 5.0501 0.4394
15.2200 5.0568 0.4352
15.2400 5.0634 0.4230
15.2600 5.0701 0.4396
15.2800 5.0768 0.4298
15.3000 5.0835 0.4236
15.3200 5.0902 0.4432
15.3400 5.0969 0.4311
15.3600 5.1035 0.4181
15.3800 5.1101 0.4419
15.4000 5.1167 0.4298
15.4200 5.1234 0.4257
15.4400 5.1301 0.4371
15.4600 5.1368 0.4234
15.4800 5.1435 0.4207
15.5000 5.1502 0.4414
15.5200 5.1568 0.4232
15.5400 5.1635 0.4234
15.5600 5.1701 0.4389
15.5800 5.1767 0.4176
15.6000 5.1834 0.4255
15.6200 5.1902 0.4403
15.6400 5.1969 0.4185
15.6600 5.2035 0.4242
15.6800 5.2102 0.4337
15.7000 5.2168 0.4195
15.7200 5.2235 0.4236
15.7400 5.2302 0.4343
15.7600 5.2368 0.4186
15.7800 5.2435 0.4254
15.8000 5.2502 0.4277
15.8200 5.2569 0.4162
15.8400 5.2636 0.4328
15.8600 5.2702 0.4258
15.8800 5.2769 0.4191
15.9000 5.2836 0.4250
15.9200 5.2901 0.4236
15.9400 5.2967 0.4206
15.9600 5.3034 0.4275
15.9800 5.3101 0.4229
16.0000 5.3168 0.4224
16.0200 5.3235 0.4239
16.0400 5.3302 0.4249
16.0600 5.3369 0.4248
16.0800 5.3435 0.4215
16.1000 5.3501 0.4218
16.1200 5.3567 0.4258
16.1400 5.3634 0.4211
16.1600 5.3701 0.4210
16.1800 5.3768 0.4258
16.2000 5.3835 0.4186
16.2200 5.3901 0.4278
16.2400 5.3968 0.4225
16.2600 5.4035 0.4148
16.2800 5.4102 0.4265
16.3000 5.4168 0.4236
16.3200 5.4234 0.4132
16.3400 5.4301 0.4269
16.3600 5.4368 0.4212
16.3800 5.4435 0.4120
16.4000 5.4502 0.4293
16.4200 5.4569 0.4262
16.4400 5.4636 0.4100
16.4600 5.4701 0.4291
16.4800 5.4767 0.4196
16.5000 5.4833 0.4158
16.5200 5.4901 0.4300
16.5400 5.4968 0.4193
16.5600 5.5035 0.4144
16.5800 5.5102 0.4315
16.6000 5.5169 0.4152
16.6200 5.5236 0.4175
16.6400 5.5301 0.4308
16.6600 5.5367 0.4165
16.6800 5.5434 0.4163
16.7000 5.5501 0.4291
16.7200 5.5568 0.4192
16.7400 5.5635 0.4199
16.7600 5.5702 0.4250
16.7800 5.5768 0.4156
16.8000 5.5835 0.4199
16.8200 5.5902 0.4284
16.8400 5.5968 0.4178
16.8600 5.6034 0.4176
16.8800 5.6101 0.4288
16.9000 5.6168 0.4188
16.9200 5.6235 0.4245
16.9400 5.6302 0.4233
16.9600 5.6369 0.4187
16.9800 5.6436 0.4175
17.0000 5.6502 0.4218
17.0200 5.6568 0.4221
17.0400 5.6634 0.4241
17.0600 5.6701 0.4164
17.0800 5.6769 0.4217
17.1000 5.6836 0.4211
17.1200 5.6902 0.4237
17.1400 5.6969 0.4247
17.1600 5.7035 0.4149
17.1800 5.7101 0.4190
17.2000 5.7168 0.4281
17.2200 5.7234 0.4147
17.2400 5.7301 0.4186
17.2600 5.7369 0.4246
17.2800 5.7435 0.4124
17.3000 5.7502 0.4192
17.3200 5.7568 0.4276
17.3400 5.7635 0.4123
17.3600 5.7702 0.4202
17.3800 5.7768 0.4251
17.4000 5.7834 0.4110
17.4200 5.7901 0.4243
17.4400 5.7968 0.4209
17.4600 5.8035 0.4097
17.4800 5.8102 0.4216
17.5000 5.8169 0.4222
17.5200 5.8236 0.4111
17.5400 5.8301 0.4223
17.5600 5.8367 0.4197
17.5800 5.8434 0.4161
17.6000 5.8501 0.4205
17.6200 5.8568 0.4214
17.6400 5.8635 0.4084
17.6600 5.8701 0.4222
17.6800 5.8768 0.4220
17.7000 5.8835 0.4081
17.7200 5.8901 0.4179
17.7400 5.8968 0.4204
17.7600 5.9034 0.4106
17.7800 5.9101 0.4128
17.8000 5.9168 0.4169
17.8200 5.9235 0.4163
17.8400 5.9302 0.4159
17.8600 5.9369 0.4170
17.8800 5.9436 0.4118
17.9000 5.9502 0.4140
17.9200 5.9568 0.4163
17.9400 5.9634 0.4155
17.9600 5.9701 0.4149
17.9800 5.9769 0.4110
18.0000 5.9836 0.4137
18.0200 5.9902 0.4101
18.0400 5.9969 0.4148
18.0600 6.0035 0.4158
18.0800 6.0101 0.4085
18.1000 6.0167 0.4111
18.1200 6.0233 0.4203
18.1400 6.0300 0.4084
18.1600 6.0368 0.4113
18.1800 6.0435 0.4126
18.2000 6.0502 0.4101
18.2200 6.0569 0.4127
18.2400 6.0635 0.4148
18.2600 6.0702 0.4063
18.2800 6.0768 0.4173
18.3000 6.0834 0.4159
18.3200 6.0901 0.4017
18.3400 6.0968 0.4211
18.3600 6.1035 0.4127
18.3800 6.1101 0.4036
18.4000 6.1168 0.4133
18.4200 6.1235 0.4105
18.4400 6.1302 0.4043
18.4600 6.1368 0.4186
18.4800 6.1434 0.4106
18.5000 6.1501 0.4095
18.5200 6.1568 0.4160
18.5400 6.1635 0.4016
18.5600 6.1702 0.4028
18.5800 6.1769 0.4241
18.6000 6.1836 0.4047
18.6200 6.1902 0.4044
18.6400 6.1968 0.4197
18.6600 6.2034 0.4100
18.6800 6.2101 0.4024
18.7000 6.2168 0.4181
18.7200 6.2235 0.4035
18.7400 6.2302 0.4047
18.7600 6.2369 0.4152
18.7800 6.2436 0.4042
18.8000 6.2502 0.4016
18.8200 6.2568 0.4138
18.8400 6.2634 0.4061
18.8600 6.2701 0.4023
18.8800 6.2768 0.4081
18.9000 6.2834 0.4050
18.9200 6.2901 0.4064
18.9400 6.2968 0.4104
18.9600 6.3035 0.3998
18.9800 6.3102 0.4009
19.0000 6.3168 0.4135
19.0200 6.3234 0.3964
19.0400 6.3301 0.4062
19.0600 6.3368 0.4069
19.0800 6.3435 0.3980
19.1000 6.3502 0.4021
19.1200 6.3568 0.4120
19.1400 6.3635 0.4020
19.1600 6.3702 0.4000
19.1800 6.3768 0.4098
19.2000 6.3834 0.3995
19.2200 6.3901 0.4026
19.2400 6.3968 0.4075
19.2600 6.4035 0.3987
19.2800 6.4102 0.4045
19.3000 6.4169 0.4004
19.3200 6.4236 0.3981
19.3400 6.4302 0.4052
19.3600 6.4368 0.4013
19.3800 6.4434 0.3990
19.4000 6.4501 0.4040
19.4200 6.4568 0.3976
19.4400 6.4635 0.4012
19.4600 6.4702 0.4052
19.4800 6.4769 0.3969
19.5000 6.4836 0.4008
19.5200 6.4902 0.3970
19.5400 6.4968 0.4000
19.5600 6.5034 0.4031
19.5800 6.5101 0.3971
19.6000 6.5168 0.3976
19.6200 6.5235 0.4062
19.6400 6.5302 0.3941
19.6600 6.5369 0.3975
19.6800 6.5435 0.4021
19.7000 6.5502 0.3956
19.7200 6.5567 0.3980
19.7400 6.5633 0.4062
19.7600 6.5700 0.3958
19.7800 6.5768 0.3969
19.8000 6.5835 0.4044
19.8200 6.5902 0.3981
19.8400 6.5968 0.4013
19.8600 6.6035 0.3965
19.8800 6.6101 0.3979
19.9000 6.6168 0.4000
19.9200 6.6234 0.3955
19.9400 6.6301 0.3990
19.9600 6.6368 0.4026
19.9800 6.6435 0.3988
20.0000 6.6502 0.3943
20.0200 6.6569 0.4000
20.0400 6.6636 0.4012
20.0600 6.6702 0.3964
20.0800 6.6768 0.3982
20.1000 6.6834 0.3958
20.1200 6.6901 0.4029
20.1400 6.6968 0.3906
20.1600 6.7035 0.3959
20.1800 6.7102 0.4018
20.2000 6.7169 0.3905
20.2200 6.7236 0.3927
20.2400 6.7302 0.4026
20.2600 6.7368 0.3896
20.2800 6.7434 0.3956
20.3000 6.7501 0.3998
20.3200 6.7568 0.3902
20.3400 6.7635 0.3938
20.3600 6.7701 0.3981
20.3800 6.7768 0.3857
20.4000 6.7835 0.3984
20.4200 6.7902 0.3954
20.4400 6.7968 0.3851
20.4600 6.8034 0.3987
20.4800 6.8101 0.3934
20.5000 6.8168 0.3909
20.5200 6.8235 0.3928
20.5400 6.8302 0.3900
20.5600 6.8368 0.3918
20.5800 6.8436 0.3967
20.6000 6.8502 0.3843
20.6200 6.8568 0.3927
20.6400 6.8634 0.3962
20.6600 6.8701 0.3860
20.6800 6.8768 0.3875
20.7000 6.8835 0.4000
20.7200 6.8902 0.3862
20.7400 6.8969 0.3873
20.7600 6.9036 0.3962
20.7800 6.9102 0.3871
20.8000 6.9168 0.3833
20.8200 6.9234 0.3967
20.8400 6.9301 0.3887
20.8600 6.9368 0.3891
20.8800 6.9435 0.3936
20.9000 6.9502 0.3912
20.9200 6.9569 0.3864
20.9400 6.9635 0.3943
20.9600 6.9702 0.3901
20.9800 6.9768 0.3876
21.0000 6.9835 0.3900
21.0200 6.9901 0.3909
21.0400 6.9968 0.3846
21.0600 7.0035 0.3867
21.0800 7.0102 0.3887
21.1000 7.0168 0.3918
21.1200 7.0235 0.3885
21.1400 7.0302 0.3835
21.1600 7.0368 0.3879
21.1800 7.0434 0.3861
21.2000 7.0500 0.3935
21.2200 7.0567 0.3817
21.2400 7.0634 0.3876
21.2600 7.0701 0.3925
21.2800 7.0768 0.3817
21.3000 7.0835 0.3838
21.3200 7.0902 0.3923
21.3400 7.0968 0.3859
21.3600 7.1034 0.3863
21.3800 7.1101 0.3910
21.4000 7.1168 0.3810
21.4200 7.1235 0.3838
21.4400 7.1302 0.3952
21.4600 7.1369 0.3764
21.4800 7.1436 0.3879
21.5000 7.1502 0.3900
21.5200 7.1568 0.3754
21.5400 7.1635 0.3908
21.5600 7.1701 0.3932
21.5800 7.1768 0.3731
21.6000 7.1835 0.3850
21.6200 7.1902 0.3966
21.6400 7.1969 0.3712
21.6600 7.2036 0.3849
21.6800 7.2102 0.3881
21.7000 7.2168 0.3740
21.7200 7.2234 0.3862
21.7400 7.2301 0.3922
21.7600 7.2368 0.3708
21.7800 7.2435 0.3856
21.8000 7.2502 0.3856
21.8200 7.2569 0.3768
21.8400 7.2635 0.3857
21.8600 7.2702 0.3852
21.8800 7.2768 0.3669
21.9000 7.2834 0.3847
21.9200 7.2900 0.3869
21.9400 7.2968 0.3702
21.9600 7.3035 0.3805
21.9800 7.3101 0.3890
22.0000 7.3168 0.3699
22.0200 7.3235 0.3786
22.0400 7.3302 0.3856
22.0600 7.3368 0.3712
22.0800 7.3434 0.3782
22.1000 7.3501 0.3859
22.1200 7.3568 0.3695
22.1400 7.3635 0.3792
22.1600 7.3702 0.3845
22.1800 7.3769 0.3686
22.2000 7.3836 0.3820
22.2200 7.3902 0.3820
22.2400 7.3968 0.3714
22.2600 7.4034 0.3757
22.2800 7.4101 0.3897
22.3000 7.4168 0.3726
22.3200 7.4235 0.3753
22.3400 7.4302 0.3834
22.3600 7.4369 0.3689
22.3800 7.4435 0.3759
22.4000 7.4502 0.3838
22.4200 7.4568 0.3681
22.4400 7.4634 0.3770
22.4600 7.4701 0.3865
22.4800 7.4768 0.3687
22.5000 7.4835 0.3736
22.5200 7.4901 0.3836
22.5400 7.4968 0.3661
22.5600 7.5035 0.3752
22.5800 7.5102 0.3858
22.6000 7.5168 0.3658
22.6200 7.5234 0.3779
22.6400 7.5300 0.3819
22.6600 7.5367 0.3667
22.6800 7.5435 0.3785
22.7000 7.5502 0.3832
22.7200 7.5569 0.3663
22.7400 7.5635 0.3720
22.7600 7.5702 0.3805
22.7800 7.5768 0.3743
22.8000 7.5834 0.3741
22.8200 7.5901 0.3791
22.8400 7.5968 0.3706
22.8600 7.6035 0.3720
22.8800 7.6102 0.3755
22.9000 7.6168 0.3728
22.9200 7.6235 0.3725
22.9400 7.6302 0.3791
22.9600 7.6369 0.3662
22.9800 7.6435 0.3675
23.0000 7.6501 0.3843
23.0200 7.6568 0.3699
23.0400 7.6635 0.3651
23.0600 7.6702 0.3791
23.0800 7.6769 0.3679
23.1000 7.6836 0.3746
23.1200 7.6902 0.3799
23.1400 7.6969 0.3639
23.1600 7.7035 0.3726
23.1800 7.7101 0.3796
23.2000 7.7168 0.3674
23.2200 7.7235 0.3661
23.2400 7.7302 0.3787
23.2600 7.7369 0.3690
23.2800 7.7435 0.3658
23.3000 7.7502 0.3748
23.3200 7.7568 0.3716
23.3400 7.7634 0.3684
23.3600 7.7700 0.3768
23.3800 7.7767 0.3625
23.4000 7.7834 0.3715
23.4200 7.7901 0.3771
23.4400 7.7968 0.3675
23.4600 7.8035 0.3638
23.4800 7.8102 0.3796
23.5000 7.8168 0.3660
23.5200 7.8234 0.3619
23.5400 7.8301 0.3786
23.5600 7.8368 0.3675
23.5800 7.8435 0.3605
23.6000 7.8502 0.3765
23.6200 7.8569 0.3665
23.6400 7.8636 0.3644
23.6600 7.8702 0.3791
23.6800 7.8769 0.3623
23.7000 7.8835 0.3610
23.7200 7.8901 0.3791
23.7400 7.8968 0.3653
23.7600 7.9035 0.3581
23.7800 7.9102 0.3806
23.8000 7.9169 0.3631
23.8200 7.9236 0.3555
23.8400 7.9303 0.3793
23.8600 7.9369 0.3623
23.8800 7.9435 0.3652
23.9000 7.9501 0.3807
23.9200 7.9568 0.3490
23.9400 7.9635 0.3627
23.9600 7.9702 0.3847
23.9800 7.9768 0.3510
24.0000 7.9835 0.3520
24.0200 7.9902 0.3891
24.0400 7.9969 0.3563
24.0600 8.0035 0.3556
24.0800 8.0101 0.3762
24.1000 8.0168 0.3571
24.1200 8.0235 0.3703
24.1400 8.0302 0.3736
24.1600 8.0368 0.3469
24.1800 8.0435 0.3577
24.2000 8.0502 0.3781
24.2200 8.0568 0.3617
24.2400 8.0634 0.3629
24.2600 8.0701 0.3580
24.2800 8.0768 0.3570
24.3000 8.0835 0.3771
24.3200 8.0902 0.3577
24.3400 8.0969 0.3554
24.3600 8.1036 0.3755
24.3800 8.1102 0.3492
24.4000 8.1168 0.3622
24.4200 8.1234 0.3727
24.4400 8.1301 0.3534
24.4600 8.1368 0.3601
24.4800 8.1435 0.3697
24.5000 8.1502 0.3562
24.5200 8.1569 0.3612
24.5400 8.1636 0.3636
24.5600 8.1702 0.3578
24.5800 8.1769 0.3547
24.6000 8.1835 0.3699
24.6200 8.1901 0.3581
24.6400 8.1967 0.3450
24.6600 8.2034 0.3728
24.6800 8.2101 0.3683
24.7000 8.2168 0.3357
24.7200 8.2235 0.3726
24.7400 8.2302 0.3711
24.7600 8.2368 0.3330
24.7800 8.2434 0.3790
24.8000 8.2500 0.3581
24.8200 8.2567 0.3437
24.8400 8.2634 0.3774
24.8600 8.2702 0.3512
24.8800 8.2768 0.3470
24.9000 8.2835 0.3822
24.9200 8.2902 0.3452
24.9400 8.2968 0.3501
24.9600 8.3035 0.3676
24.9800 8.3101 0.3519
25.0000 8.3168 0.3602
25.0200 8.3235 0.3571
25.0400 8.3302 0.3389
25.0600 8.3368 0.3723
25.0800 8.3435 0.3598
25.1000 8.3502 0.3380
25.1200 8.3569 0.3704
25.1400 8.3635 0.3545
25.1600 8.3701 0.3413
25.1800 8.3767 0.3719
25.2000 8.3834 0.3575
25.2200 8.3902 0.3416
25.2400 8.3969 0.3616
25.2600 8.4035 0.3537
25.2800 8.4102 0.3419
25.3000 8.4169 0.3640
25.3200 8.4235 0.3617
25.3400 8.4301 0.3413
25.3600 8.4368 0.3578
25.3800 8.4435 0.3586
25.4000 8.4502 0.3445
25.4200 8.4569 0.3558
25.4400 8.4635 0.3627
25.4600 8.4702 0.3454
25.4800 8.4768 0.3495
25.5000 8.4834 0.3513
25.5200 8.4900 0.3513
25.5400 8.4967 0.3585
25.5600 8.5034 0.3488
25.5800 8.5101 0.3438
25.6000 8.5168 0.3588
25.6200 8.5235 0.3502
25.6400 8.5302 0.3491
25.6600 8.5368 0.3522
25.6800 8.5435 0.3474
25.7000 8.5501 0.3540
25.7200 8.5567 0.3521
25.7400 8.5635 0.3433
25.7600 8.5702 0.3506
25.7800 8.5769 0.3575
25.8000 8.5836 0.3411
25.8200 8.5903 0.3494
25.8400 8.5969 0.3512
25.8600 8.6035 0.3463
25.8800 8.6101 0.3484
25.9000 8.6168 0.3539
25.9200 8.6235 0.3454
25.9400 8.6302 0.3471
25.9600 8.6369 0.3508
25.9800 8.6436 0.3457
26.0000 8.6502 0.3402
26.0200 8.6569 0.3533
26.0400 8.6635 0.3509
26.0600 8.6701 0.3425
26.0800 8.6767 0.3485
26.1000 8.6834 0.3519
26.1200 8.6901 0.3390
26.1400 8.6968 0.3429
26.1600 8.7035 0.3512
26.1800 8.7102 0.3456
26.2000 8.7168 0.3368
26.2200 8.7235 0.3506
26.2400 8.7301 0.3431
26.2600 8.7367 0.3381
26.2800 8.7434 0.3526
26.3000 8.7501 0.3425
26.3200 8.7568 0.3364
26.3400 8.7635 0.3550
26.3600 8.7702 0.3360
26.3800 8.7768 0.3361
26.4000 8.7834 0.3606
26.4200 8.7901 0.3351
26.4400 8.7967 0.3400
26.4600 8.8035 0.3566
26.4800 8.8102 0.3369
26.5000 8.8169 0.3382
26.5200 8.8236 0.3566
26.5400 8.8302 0.3321
26.5600 8.8369 0.3399
26.5800 8.8435 0.3483
26.6000 8.8502 0.3311
26.6200 8.8568 0.3431
26.6400 8.8635 0.3488
26.6600 8.8702 0.3312
26.6800 8.8769 0.3477
26.7000 8.8835 0.3469
26.7200 8.8902 0.3275
26.7400 8.8969 0.3422
26.7600 8.9035 0.3477
26.7800 8.9101 0.3309
26.8000 8.9167 0.3476
26.8200 8.9234 0.3452
26.8400 8.9301 0.3283
26.8600 8.9368 0.3458
26.8800 8.9435 0.3428
26.9000 8.9502 0.3322
26.9200 8.9569 0.3424
26.9400 8.9635 0.3440
26.9600 8.9701 0.3315
26.9800 8.9767 0.3420
27.0000 8.9834 0.3437
27.0200 8.9901 0.3331
27.0400 8.9968 0.3349
27.0600 9.0035 0.3441
27.0800 9.0102 0.3349
27.1000 9.0169 0.3307
27.1200 9.0235 0.3438
27.1400 9.0301 0.3391
27.1600 9.0367 0.3313
27.1800 9.0434 0.3433
27.2000 9.0501 0.3357
27.2200 9.0568 0.3320
27.2400 9.0635 0.3421
27.2600 9.0702 0.3352
27.2800 9.0769 0.3295
27.3000 9.0835 0.3419
27.3200 9.0901 0.3320
27.3400 9.0968 0.3299
27.3600 9.1035 0.3472
27.3800 9.1102 0.3268
27.4000 9.1169 0.3273
27.4200 9.1236 0.3472
27.4400 9.1302 0.3265
27.4600 9.1369 0.3238
27.4800 9.1435 0.3448
27.5000 9.1501 0.3264
27.5200 9.1568 0.3303
27.5400 9.1635 0.3475
27.5600 9.1702 0.3238
27.5800 9.1768 0.3263
27.6000 9.1835 0.3470
27.6200 9.1902 0.3234
27.6400 9.1969 0.3283
27.6600 9.2035 0.3387
27.6800 9.2101 0.3251
27.7000 9.2167 0.3304
27.7200 9.2234 0.3415
27.7400 9.2301 0.3221
27.7600 9.2368 0.3379
27.7800 9.2435 0.3359
27.8000 9.2502 0.3136
27.8200 9.2569 0.3346
27.8400 9.2635 0.3355
27.8600 9.2701 0.3174
27.8800 9.2767 0.3362
27.9000 9.2834 0.3390
27.9200 9.2902 0.3188
27.9400 9.2969 0.3296
27.9600 9.3036 0.3341
27.9800 9.3103 0.3185
28.0000 9.3169 0.3272
28.0200 9.3235 0.3338
28.0400 9.3301 0.3243
28.0600 9.3368 0.3371
28.0800 9.3435 0.3283
28.1000 9.3502 0.3258
28.1200 9.3569 0.3263
28.1400 9.3635 0.3301
28.1600 9.3702 0.3296
28.1800 9.3769 0.3262
28.2000 9.3835 0.3228
28.2200 9.3901 0.3336
28.2400 9.3967 0.3243
28.2600 9.4034 0.3282
28.2800 9.4101 0.3373
28.3000 9.4168 0.3212
28.3200 9.4235 0.3287
28.3400 9.4302 0.3330
28.3600 9.4369 0.3175
28.3800 9.4435 0.3322
28.4000 9.4501 0.3309
28.4200 9.4567 0.3178
28.4400 9.4634 0.3337
28.4600 9.4701 0.3308
28.4800 9.4768 0.3158
28.5000 9.4835 0.3334
28.5200 9.4902 0.3267
28.5400 9.4969 0.3162
28.5600 9.5035 0.3363
28.5800 9.5101 0.3211
28.6000 9.5168 0.3187
28.6200 9.5234 0.3392
28.6400 9.5302 0.3210
28.6600 9.5369 0.3134
28.6800 9.5435 0.3387
28.7000 9.5502 0.3209
28.7200 9.5569 0.3163
28.7400 9.5636 0.3355
28.7600 9.5702 0.3234
28.7800 9.5768 0.3204
28.8000 9.5834 0.3310
28.8200 9.5902 0.3192
28.8400 9.5969 0.3203
28.8600 9.6036 0.3270
28.8800 9.6102 0.3198
28.9000 9.6169 0.3209
28.9200 9.6236 0.3272
28.9400 9.6301 0.3233
28.9600 9.6367 0.3174
28.9800 9.6434 0.3228
29.0000 9.6501 0.3208
29.0200 9.6568 0.3265
29.0400 9.6635 0.3141
29.0600 9.6701 0.3244
29.0800 9.6768 0.3241
29.1000 9.6835 0.3134
29.1200 9.6901 0.3213
29.1400 9.6967 0.3236
29.1600 9.7034 0.3186
29.1800 9.7101 0.3224
29.2000 9.7168 0.3179
29.2200 9.7235 0.3167
29.2400 9.7301 0.3236
29.2600 9.7368 0.3171
29.2800 9.7435 0.3111
29.3000 9.7502 0.3253
29.3200 9.7568 0.3165
29.3400 9.7635 0.3180
29.3600 9.7701 0.3238
29.3800 9.7768 0.3122
29.4000 9.7835 0.3185
29.4200 9.7902 0.3276
29.4400 9.7969 0.3147
29.4600 9.8035 0.3188
29.4800 9.8101 0.3221
29.5000 9.8167 0.3125
29.5200 9.8234 0.3189
29.5400 9.8301 0.3242
29.5600 9.8369 0.3100
29.5800 9.8435 0.3161
29.6000 9.8502 0.3267
29.6200 9.8569 0.3077
29.6400 9.8635 0.3142
29.6600 9.8701 0.3282
29.6800 9.8768 0.3141
29.7000 9.8834 0.3061
29.7200 9.8901 0.3275
29.7400 9.8968 0.3171
29.7600 9.9035 0.3089
29.7800 9.9102 0.3246
29.8000 9.9168 0.3147
29.8200 9.9235 0.3075
29.8400 9.9301 0.3223
29.8600 9.9367 0.3126
29.8800 9.9434 0.3163
29.9000 9.9501 0.3253
29.9200 9.9568 0.3085
29.9400 9.9635 0.3107
29.9600 9.9701 0.3312
29.9800 9.9768 0.3117
30.0000 9.9835 0.3060
30.0200 9.9901 0.3249
30.0400 9.9967 0.3144
30.0600 10.0034 0.3112
30.0800 10.0101 0.3191
30.1000 10.0168 0.3165
30.1200 10.0235 0.3073
30.1400 10.0302 0.3226
30.1600 10.0369 0.3144
30.1800 10.0436 0.3079
30.2000 10.0502 0.3184
30.2200 10.0568 0.3149
30.2400 10.0635 0.3058
30.2600 10.0702 0.3251
30.2800 10.0769 0.3123
30.3000 10.0835 0.3026
30.3200 10.0902 0.3179
30.3400 10.0969 0.3170
30.3600 10.1036 0.3021
30.3800 10.1102 0.3161
30.4000 10.1167 0.3195
30.4200 10.1234 0.3008
30.4400 10.1301 0.3161
30.4600 10.1368 0.3200
30.4800 10.1435 0.3009
30.5000 10.1502 0.3151
30.5200 10.1568 0.3181
30.5400 10.1635 0.2965
30.5600 10.1701 0.3170
30.5800 10.1767 0.3196
30.6000 10.1834 0.2949
30.6200 10.1901 0.3216
30.6400 10.1968 0.3187
30.6600 10.2035 0.2905
30.6800 10.2102 0.3224
30.7000 10.2168 0.3160
30.7200 10.2235 0.2942
30.7400 10.2302 0.3233
30.7600 10.2368 0.3167
30.7800 10.2434 0.2942
30.8000 10.2501 0.3207
30.8200 10.2568 0.3111
30.8400 10.2635 0.2958
30.8600 10.2702 0.3233
30.8800 10.2769 0.3117
30.9000 10.2836 0.2937
30.9200 10.2902 0.3196
30.9400 10.2968 0.3101
30.9600 10.3034 0.2982
30.9800 10.3101 0.3126
31.0000 10.3168 0.3097
31.0200 10.3236 0.3006
31.0400 10.3302 0.3109
31.0600 10.3369 0.3082
31.0800 10.3435 0.3006
31.1000 10.3501 0.3107
31.1200 10.3567 0.3111
31.1400 10.3634 0.3001
31.1600 10.3701 0.3079
31.1800 10.3768 0.3118
31.2000 10.3835 0.2991
31.2200 10.3902 0.3073
31.2400 10.3969 0.3127
31.2600 10.4035 0.2980
31.2800 10.4102 0.3056
31.3000 10.4168 0.3182
31.3200 10.4234 0.2932
31.3400 10.4301 0.3060
31.3600 10.4368 0.3181
31.3800 10.4435 0.2945
31.4000 10.4502 0.3051
31.4200 10.4569 0.3138
31.4400 10.4635 0.2889
31.4600 10.4702 0.3058
31.4800 10.4768 0.3155
31.5000 10.4834 0.2935
31.5200 10.4901 0.3083
31.5400 10.4968 0.3119
31.5600 10.5035 0.2868
31.5800 10.5102 0.3078
31.6000 10.5169 0.3091
31.6200 10.5236 0.2920
31.6400 10.5302 0.3059
31.6600 10.5368 0.3068
31.6800 10.5434 0.2913
31.7000 10.5501 0.3045
31.7200 10.5568 0.3100
31.7400 10.5635 0.2888
31.7600 10.5702 0.3041
31.7800 10.5769 0.3074
31.8000 10.5836 0.2866
31.8200 10.5902 0.3009
31.8400 10.5968 0.3067
31.8600 10.6034 0.2913
31.8800 10.6101 0.3036
31.9000 10.6168 0.3013
31.9200 10.6235 0.2923
31.9400 10.6302 0.3029
31.9600 10.6369 0.3062
31.9800 10.6436 0.2900
32.0000 10.6502 0.3042
32.0200 10.6567 0.2978
32.0400 10.6634 0.2974
32.0600 10.6700 0.3002
32.0800 10.6768 0.2991
32.1000 10.6835 0.2957
32.1200 10.6902 0.2998
32.1400 10.6968 0.2986
32.1600 10.7035 0.2977
32.1800 10.7102 0.2973
32.2000 10.7168 0.2980
32.2200 10.7234 0.2957
32.2400 10.7301 0.2963
32.2600 10.7368 0.3003
32.2800 10.7435 0.2968
32.3000 10.7502 0.2928
32.3200 10.7569 0.2950
32.3400 10.7636 0.2988
32.3600 10.7703 0.2892
32.3800 10.7768 0.2962
32.4000 10.7835 0.2969
32.4200 10.7901 0.2920
32.4400 10.7968 0.2977
32.4600 10.8035 0.2984
32.4800 10.8102 0.2868
32.5000 10.8169 0.2969
32.5200 10.8235 0.2897
32.5400 10.8302 0.2894
32.5600 10.8368 0.2919
32.5800 10.8434 0.2973
32.6000 10.8501 0.2878
32.6200 10.8568 0.2897
32.6400 10.8635 0.2906
32.6600 10.8702 0.2883
32.6800 10.8769 0.2914
32.7000 10.8835 0.2930
32.7200 10.8902 0.2883
32.7400 10.8968 0.2907
32.7600 10.9034 0.2899
32.7800 10.9101 0.2904
32.8000 10.9168 0.2913
32.8200 10.9235 0.2883
32.8400 10.9301 0.2917
32.8600 10.9368 0.2909
32.8800 10.9435 0.2875
32.9000 10.9502 0.2902
32.9200 10.9568 0.2906
32.9400 10.9634 0.2899
32.9600 10.9701 0.2919
32.9800 10.9768 0.2884
33.0000 10.9835 0.2891
33.0200 10.9902 0.2839
33.0400 10.9969 0.2887
33.0600 11.0036 0.2857
33.0800 11.0102 0.2890
33.1000 11.0168 0.2901
33.1200 11.0234 0.2901
33.1400 11.0301 0.2828
33.1600 11.0368 0.2899
33.1800 11.0435 0.2890
33.2000 11.0502 0.2835
33.2200 11.0569 0.2901
33.2400 11.0636 0.2863
33.2600 11.0702 0.2774
33.2800 11.0768 0.2920
33.3000 11.0834 0.2931
33.3200 11.0901 0.2805
33.3400 11.0968 0.2844
33.3600 11.1035 0.2887
33.3800 11.1101 0.2782
33.4000 11.1168 0.2906
33.4200 11.1235 0.2866
33.4400 11.1302 0.2797
33.4600 11.1368 0.2889
33.4800 11.1434 0.2863
33.5000 11.1501 0.2806
33.5200 11.1568 0.2867
33.5400 11.1635 0.2939
33.5600 11.1702 0.2746
33.5800 11.1768 0.2831
33.6000 11.1835 0.2916
33.6200 11.1902 0.2753
33.6400 11.1968 0.2803
33.6600 11.2034 0.2951
33.6800 11.2101 0.2747
33.7000 11.2168 0.2799
33.7200 11.2236 0.2899
33.7400 11.2302 0.2798
33.7600 11.2369 0.2775
33.7800 11.2436 0.2901
33.8000 11.2502 0.2780
33.8200 11.2568 0.2795
33.8400 11.2634 0.2887
33.8600 11.2701 0.2729
33.8800 11.2768 0.2836
33.9000 11.2835 0.2874
33.9200 11.2902 0.2697
33.9400 11.2969 0.2797
33.9600 11.3035 0.2845
33.9800 11.3102 0.2734
34.0000 11.3168 0.2820
34.0200 11.3234 0.2853
34.0400 11.3301 0.2741
34.0600 11.3368 0.2817
34.0800 11.3435 0.2839
34.1000 11.3502 0.2710
34.1200 11.3569 0.2830
34.1400 11.3636 0.2779
34.1600 11.3702 0.2707
34.1800 11.3768 0.2779
34.2000 11.3834 0.2864
34.2200 11.3900 0.2746
34.2400 11.3967 0.2693
34.2600 11.4035 0.2819
34.2800 11.4102 0.2803
34.3000 11.4168 0.2647
34.3200 11.4235 0.2859
34.3400 11.4302 0.2795
34.3600 11.4368 0.2619
34.3800 11.4434 0.2838
34.4000 11.4501 0.2822
34.4200 11.4568 0.2621
34.4400 11.4635 0.2811
34.4600 11.4702 0.2729
34.4800 11.4769 0.2677
34.5000 11.4836 0.2830
34.5200 11.4902 0.2734
34.5400 11.4968 0.2671
34.5600 11.5034 0.2787
34.5800 11.5101 0.2705
34.6000 11.5168 0.2703
34.6200 11.5235 0.2880
34.6400 11.5302 0.2665
34.6600 11.5369 0.2657
34.6800 11.5435 0.2840
34.7000 11.5502 0.2729
34.7200 11.5568 0.2675
34.7400 11.5634 0.2777
34.7600 11.5700 0.2717
34.7800 11.5768 0.2752
34.8000 11.5835 0.2742
34.8200 11.5902 0.2687
34.8400 11.5968 0.2704
34.8600 11.6035 0.2743
34.8800 11.6102 0.2702
34.9000 11.6168 0.2781
34.9200 11.6234 0.2644
34.9400 11.6301 0.2730
34.9600 11.6368 0.2754
34.9800 11.6435 0.2725
35.0000 11.6502 0.2741
35.0200 11.6568 0.2672
35.0400 11.6635 0.2637
35.0600 11.6702 0.2710
35.0800 11.6769 0.2750
35.1000 11.6834 0.2728
35.1200 11.6901 0.2762
35.1400 11.6968 0.2609
35.1600 11.7035 0.2633
35.1800 11.7102 0.2867
35.2000 11.7169 0.2746
35.2200 11.7235 0.2547
35.2400 11.7302 0.2691
35.2600 11.7368 0.2691
35.2800 11.7434 0.2772
35.3000 11.7501 0.2723
35.3200 11.7568 0.2624
35.3400 11.7635 0.2703
35.3600 11.7702 0.2672
35.3800 11.7769 0.2629
35.4000 11.7836 0.2843
35.4200 11.7902 0.2654
35.4400 11.7969 0.2626
35.4600 11.8035 0.2751
35.4800 11.8101 0.2660
35.5000 11.8168 0.2680
35.5200 11.8235 0.2829
35.5400 11.8302 0.2528
35.5600 11.8368 0.2635
35.5800 11.8435 0.2875
35.6000 11.8502 0.2574
35.6200 11.8568 0.2594
35.6400 11.8634 0.2830
35.6600 11.8701 0.2648
35.6800 11.8767 0.2603
35.7000 11.8835 0.2817
35.7200 11.8902 0.2640
35.7400 11.8968 0.2605
35.7600 11.9035 0.2739
35.7800 11.9102 0.2649
35.8000 11.9168 0.2666
35.8200 11.9234 0.2725
35.8400 11.9301 0.2631
35.8600 11.9368 0.2665
35.8800 11.9435 0.2618
35.9000 11.9502 0.2699
35.9200 11.9568 0.2674
35.9400 11.9635 0.2628
35.9600 11.9702 0.2672
35.9800 11.9768 0.2669
36.0000 11.9834 0.2642
36.0200 11.9901 0.2701
36.0400 11.9968 0.2626
36.0600 12.0035 0.2649
36.0800 12.0102 0.2707
36.1000 12.0169 0.2605
36.1200 12.0236 0.2643
36.1400 12.0303 0.2750
36.1600 12.0368 0.2488
36.1800 12.0434 0.2676
36.2000 12.0501 0.2804
36.2200 12.0568 0.2513
36.2400 12.0635 0.2651
36.2600 12.0702 0.2708
36.2800 12.0769 0.2518
36.3000 12.0835 0.2727
36.3200 12.0902 0.2701
36.3400 12.0968 0.2501
36.3600 12.1034 0.2712
36.3800 12.1100 0.2679
36.4000 12.1167 0.2553
36.4200 12.1235 0.2704
36.4400 12.1301 0.2639
36.4600 12.1368 0.2557
36.4800 12.1435 0.2701
36.5000 12.1502 0.2613
36.5200 12.1568 0.2629
36.5400 12.1635 0.2664
36.5600 12.1701 0.2582
36.5800 12.1768 0.2675
36.6000 12.1835 0.2612
36.6200 12.1902 0.2544
36.6400 12.1969 0.2678
36.6600 12.2036 0.2547
36.6800 12.2102 0.2601
36.7000 12.2169 0.2672
36.7200 12.2235 0.2527
36.7400 12.2301 0.2574
36.7600 12.2368 0.2657
36.7800 12.2435 0.2537
36.8000 12.2502 0.2558
36.8200 12.2569 0.2649
36.8400 12.2635 0.2508
36.8600 12.2702 0.2566
36.8800 12.2768 0.2607
36.9000 12.2835 0.2533
36.9200 12.2901 0.2650
36.9400 12.2968 0.2566
36.9600 12.3035 0.2454
36.9800 12.3102 0.2639
37.0000 12.3168 0.2565
37.0200 12.3235 0.2504
37.0400 12.3302 0.2594
37.0600 12.3368 0.2540
37.0800 12.3434 0.2495
37.1000 12.3500 0.2650
37.1200 12.3567 0.2475
37.1400 12.3634 0.2489
37.1600 12.3701 0.2665
37.1800 12.3768 0.2450
37.2000 12.3835 0.2452
37.2200 12.3902 0.2674
37.2400 12.3969 0.2495
37.2600 12.4035 0.2510
37.2800 12.4101 0.2578
37.3000 12.4168 0.2533
37.3200 12.4235 0.2516
37.3400 12.4302 0.2573
37.3600 12.4368 0.2481
37.3800 12.4435 0.2514
37.4000 12.4502 0.2586
37.4200 12.4569 0.2437
37.4400 12.4635 0.2531
37.4600 12.4701 0.2603
37.4800 12.4768 0.2532
37.5000 12.4835 0.2460
37.5200 12.4902 0.2516
37.5400 12.4969 0.2577
37.5600 12.5036 0.2508
37.5800 12.5102 0.2455
37.6000 12.5169 0.2561
37.6200 12.5234 0.2493
37.6400 12.5300 0.2503
37.6600 12.5367 0.2570
37.6800 12.5434 0.2510
37.7000 12.5502 0.2506
37.7200 12.5569 0.2580
37.7400 12.5636 0.2455
37.7600 12.5702 0.2532
37.7800 12.5768 0.2576
37.8000 12.5834 0.2452
37.8200 12.5900 0.2514
37.8400 12.5967 0.2615
37.8600 12.6034 0.2389
37.8800 12.6101 0.2531
37.9000 12.6168 0.2586
37.9200 12.6235 0.2434
37.9400 12.6301 0.2527
37.9600 12.6368 0.2582
37.9800 12.6434 0.2415
38.0000 12.6500 0.2514
38.0200 12.6568 0.2627
38.0400 12.6635 0.2386
38.0600 12.6702 0.2569
38.0800 12.6769 0.2544
38.1000 12.6836 0.2370
38.1200 12.6903 0.2572
38.1400 12.6969 0.2523
38.1600 12.7035 0.2354
38.1800 12.7101 0.2592
38.2000 12.7168 0.2514
38.2200 12.7235 0.2385
38.2400 12.7302 0.2559
38.2600 12.7369 0.2504
38.2800 12.7436 0.2385
38.3000 12.7502 0.2609
38.3200 12.7569 0.2439
38.3400 12.7635 0.2406
38.3600 12.7701 0.2564
38.3800 12.7768 0.2464
38.4000 12.7835 0.2436
38.4200 12.7902 0.2543
38.4400 12.7968 0.2473
38.4600 12.8035 0.2448
38.4800 12.8102 0.2462
38.5000 12.8168 0.2473
38.5200 12.8235 0.2459
38.5400 12.8301 0.2448
38.5600 12.8368 0.2466
38.5800 12.8434 0.2475
38.6000 12.8501 0.2408
38.6200 12.8568 0.2479
38.6400 12.8635 0.2507
38.6600 12.8702 0.2399
38.6800 12.8768 0.2492
38.7000 12.8835 0.2415
38.7200 12.8901 0.2415
38.7400 12.8967 0.2507
38.7600 12.9034 0.2417
38.7800 12.9101 0.2410
38.8000 12.9168 0.2517
38.8200 12.9235 0.2346
38.8400 12.9302 0.2418
38.8600 12.9369 0.2482
38.8800 12.9435 0.2350
38.9000 12.9501 0.2381
38.9200 12.9568 0.2533
38.9400 12.9635 0.2300
38.9600 12.9702 0.2397
38.9800 12.9769 0.2543
39.0000 12.9836 0.2275
39.0200 12.9902 0.2421
39.0400 12.9969 0.2523
39.0600 13.0035 0.2245
39.0800 13.0101 0.2457
39.1000 13.0168 0.2561
39.1200 13.0234 0.2159
39.1400 13.0301 0.2501
39.1600 13.0368 0.2589
39.1800 13.0435 0.2113
39.2000 13.0502 0.2391
39.2200 13.0568 0.2712
39.2400 13.0634 0.2185
39.2600 13.0700 0.2249
39.2800 13.0767 0.2714
39.3000 13.0834 0.2362
39.3200 13.0902 0.2231
39.3400 13.0969 0.2574
39.3600 13.1035 0.2419
39.3800 13.1102 0.2261
39.4000 13.1169 0.2367
39.4200 13.1235 0.2485
39.4400 13.1301 0.2351
39.4600 13.1368 0.2363
39.4800 13.1435 0.2410
39.5000 13.1502 0.2412
39.5200 13.1569 0.2370
39.5400 13.1635 0.2446
39.5600 13.1701 0.2348
39.5800 13.1768 0.2279
39.6000 13.1834 0.2460
39.6200 13.1900 0.2637
39.6400 13.1968 0.2138
39.6600 13.2035 0.2296
39.6800 13.2102 0.2720
39.7000 13.2169 0.2200
39.7200 13.2236 0.2254
39.7400 13.2302 0.2784
39.7600 13.2369 0.2251
39.7800 13.2435 0.2051
39.8000 13.2501 0.2769
39.8200 13.2568 0.2377
39.8400 13.2635 0.2231
39.8600 13.2702 0.2548
39.8800 13.2769 0.2201
39.9000 13.2836 0.2403
39.9200 13.2902 0.2701
39.9400 13.2969 0.2002
39.9600 13.3035 0.2355
39.9800 13.3101 0.2713
40.0000 13.3167 0.2117
40.0200 13.3234 0.2380
40.0400 13.3301 0.2557
40.0600 13.3367 0.2153
40.0800 13.3434 0.2511
40.1000 13.3501 0.2455
40.1200 13.3568 0.2126
40.1400 13.3635 0.2465
40.1600 13.3701 0.2389
40.1800 13.3768 0.2316
40.2000 13.3835 0.2493
40.2200 13.3902 0.2254
40.2400 13.3969 0.2337
40.2600 13.4036 0.2425
40.2800 13.4103 0.2246
40.3000 13.4169 0.2514
40.3200 13.4235 0.2310
40.3400 13.4301 0.2173
40.3600 13.4367 0.2563
40.3800 13.4434 0.2340
40.4000 13.4501 0.2223
40.4200 13.4568 0.2552
40.4400 13.4635 0.2249
40.4600 13.4702 0.2198
40.4800 13.4769 0.2532
40.5000 13.4835 0.2296
40.5200 13.4901 0.2242
40.5400 13.4968 0.2539
40.5600 13.5034 0.2246
40.5800 13.5101 0.2283
40.6000 13.5168 0.2457
40.6200 13.5235 0.2248
40.6400 13.5302 0.2297
40.6600 13.5369 0.2423
40.6800 13.5435 0.2192
40.7000 13.5501 0.2348
40.7200 13.5567 0.2393
40.7400 13.5634 0.2241
40.7600 13.5701 0.2348
40.7800 13.5768 0.2362
40.8000 13.5835 0.2241
40.8200 13.5902 0.2257
40.8400 13.5968 0.2327
40.8600 13.6034 0.2339
40.8800 13.6100 0.2267
40.9000 13.6167 0.2244
40.9200 13.6234 0.2330
40.9400 13.6302 0.2260
40.9600 13.6369 0.2289
40.9800 13.6436 0.2288
41.0000 13.6502 0.2285
41.0200 13.6569 0.2288
41.0400 13.6635 0.2295
41.0600 13.6701 0.2215
41.0800 13.6768 0.2295
41.1000 13.6835 0.2285
41.1200 13.6902 0.2218
41.1400 13.6968 0.2263
41.1600 13.7035 0.2314
41.1800 13.7102 0.2166
41.2000 13.7169 0.2270
41.2200 13.7235 0.2288
41.2400 13.7301 0.2230
41.2600 13.7367 0.2221
41.2800 13.7434 0.2262
41.3000 13.7502 0.2204
41.3200 13.7569 0.2239
41.3400 13.7635 0.2285
41.3600 13.7702 0.2192
41.3800 13.7769 0.2217
41.4000 13.7835 0.2243
41.4200 13.7901 0.2180
41.4400 13.7967 0.2210
41.4600 13.8034 0.2328
41.4800 13.8101 0.2159
41.5000 13.8168 0.2178
41.5200 13.8235 0.2265
41.5400 13.8302 0.2218
41.5600 13.8369 0.2138
41.5800 13.8435 0.2273
41.6000 13.8501 0.2179
41.6200 13.8568 0.2187
41.6400 13.8634 0.2240
41.6600 13.8701 0.2206
41.6800 13.8768 0.2161
41.7000 13.8835 0.2249
41.7200 13.8902 0.2164
41.7400 13.8969 0.2142
41.7600 13.9036 0.2231
41.7800 13.9101 0.2154
41.8000 13.9168 0.2186
41.8200 13.9235 0.2272
41.8400 13.9302 0.2148
41.8600 13.9369 0.2161
41.8800 13.9435 0.2247
41.9000 13.9502 0.2182
41.9200 13.9569 0.2163
41.9400 13.9635 0.2196
41.9600 13.9701 0.2233
41.9800 13.9768 0.2202
42.0000 13.9834 0.2132
42.0200 13.9901 0.2198
42.0400 13.9968 0.2306
42.0600 14.0035 0.2087
42.0800 14.0102 0.2118
42.1000 14.0169 0.2248
42.1200 14.0235 0.2221
42.1400 14.0301 0.2097
42.1600 14.0367 0.2119
42.1800 14.0434 0.2248
42.2000 14.0501 0.2196
42.2200 14.0568 0.2037
42.2400 14.0635 0.2251
42.2600 14.0702 0.2195
42.2800 14.0769 0.2059
42.3000 14.0835 0.2212
42.3200 14.0901 0.2173
42.3400 14.0967 0.2041
42.3600 14.1034 0.2337
42.3800 14.1102 0.2074
42.4000 14.1169 0.1973
42.4200 14.1236 0.2484
42.4400 14.1302 0.2077
42.4600 14.1369 0.1896
42.4800 14.1435 0.2382
42.5000 14.1501 0.2172
42.5200 14.1568 0.2012
42.5400 14.1635 0.2239
42.5600 14.1702 0.2092
42.5800 14.1769 0.2156
42.6000 14.1836 0.2159
42.6200 14.1902 0.2071
42.6400 14.1969 0.2255
42.6600 14.2035 0.2168
42.6800 14.2101 0.1923
42.7000 14.2167 0.2275
42.7200 14.2234 0.2164
42.7400 14.2301 0.2047
42.7600 14.2368 0.2218
42.7800 14.2435 0.2066
42.8000 14.2502 0.2095
42.8200 14.2569 0.2234
42.8400 14.2635 0.2056
42.8600 14.2701 0.2122
42.8800 14.2767 0.2154
42.9000 14.2834 0.2068
42.9200 14.2901 0.2122
42.9400 14.2968 0.2143
42.9600 14.3035 0.2105
42.9800 14.3102 0.2129
43.0000 14.3168 0.2009
43.0200 14.3235 0.2161
43.0400 14.3301 0.2213
43.0600 14.3368 0.1899
43.0800 14.3434 0.2169
43.1000 14.3502 0.2219
43.1200 14.3569 0.1804
43.1400 14.3635 0.2175
43.1600 14.3702 0.2237
43.1800 14.3769 0.1807
43.2000 14.3836 0.2137
43.2200 14.3902 0.2193
43.2400 14.3968 0.1859
43.2600 14.4034 0.2147
43.2800 14.4101 0.2138
43.3000 14.4168 0.1865
43.3200 14.4235 0.2164
43.3400 14.4302 0.2040
43.3600 14.4369 0.1929
43.3800 14.4436 0.2098
43.4000 14.4502 0.2075
43.4200 14.4568 0.2027
43.4400 14.4634 0.2052
43.4600 14.4701 0.2043
43.4800 14.4768 0.2054
43.5000 14.4835 0.1952
43.5200 14.4902 0.2018
43.5400 14.4968 0.2156
43.5600 14.5035 0.1990
43.5800 14.5101 0.1943
43.6000 14.5167 0.2111
43.6200 14.5234 0.2033
43.6400 14.5301 0.2001
43.6600 14.5368 0.2076
43.6800 14.5434 0.1968
43.7000 14.5501 0.2106
43.7200 14.5568 0.1971
43.7400 14.5635 0.2033
43.7600 14.5702 0.2122
43.7800 14.5768 0.1910
43.8000 14.5834 0.1971
43.8200 14.5901 0.2176
43.8400 14.5968 0.1898
43.8600 14.6035 0.1996
43.8800 14.6102 0.2126
43.9000 14.6169 0.1910
43.9200 14.6236 0.1969
43.9400 14.6302 0.2115
43.9600 14.6368 0.1948
43.9800 14.6434 0.2024
44.0000 14.6501 0.2110
44.0200 14.6568 0.1909
44.0400 14.6635 0.1986
44.0600 14.6702 0.2079
44.0800 14.6768 0.1980
44.1000 14.6835 0.2016
44.1200 14.6901 0.1970
44.1400 14.6968 0.1991
44.1600 14.7034 0.2057
44.1800 14.7101 0.2023
44.2000 14.7168 0.1921
44.2200 14.7235 0.1991
44.2400 14.7302 0.2144
44.2600 14.7369 0.1902
44.2800 14.7435 0.1904
44.3000 14.7502 0.2044
44.3200 14.7567 0.2024
44.3400 14.7634 0.1891
44.3600 14.7701 0.1987
44.3800 14.7768 0.1969
44.4000 14.7835 0.1978
44.4200 14.7901 0.2010
44.4400 14.7968 0.1883
44.4600 14.8034 0.1882
44.4800 14.8101 0.2111
44.5000 14.8167 0.1918
44.5200 14.8234 0.1846
44.5400 14.8301 0.2004
44.5600 14.8369 0.1947
44.5800 14.8436 0.1872
44.6000 14.8502 0.2027
44.6200 14.8569 0.1931
44.6400 14.8636 0.1901
44.6600 14.8702 0.1978
44.6800 14.8768 0.1871
44.7000 14.8835 0.1903
44.7200 14.8901 0.1942
44.7400 14.8969 0.1960
44.7600 14.9035 0.1876
44.7800 14.9102 0.1967
44.8000 14.9169 0.1936
44.8200 14.9236 0.1874
44.8400 14.9302 0.1911
44.8600 14.9367 0.1946
44.8800 14.9434 0.1880
44.9000 14.9500 0.1952
44.9200 14.9567 0.1896
44.9400 14.9634 0.1881
44.9600 14.9702 0.1947
44.9800 14.9769 0.1903
45.0000 14.9835 0.1828
45.0200 14.9901 0.1960
45.0400 14.9968 0.1890
45.0600 15.0034 0.1818
45.0800 15.0101 0.1911
45.1000 15.0168 0.1905
45.1200 15.0235 0.1868
45.1400 15.0302 0.1895
45.1600 15.0368 0.1904
45.1800 15.0435 0.1864
45.2000 15.0502 0.1909
45.2200 15.0568 0.1880
45.2400 15.0635 0.1853
45.2600 15.0701 0.1912
45.2800 15.0768 0.1855
45.3000 15.0835 0.1841
45.3200 15.0902 0.1931
45.3400 15.0969 0.1881
45.3600 15.1036 0.1815
45.3800 15.1102 0.1874
45.4000 15.1168 0.1893
45.4200 15.1234 0.1868
45.4400 15.1301 0.1909
45.4600 15.1368 0.1865
45.4800 15.1436 0.1912
45.5000 15.1502 0.1817
45.5200 15.1569 0.1857
45.5400 15.1635 0.1864
45.5600 15.1702 0.1859
45.5800 15.1768 0.1911
45.6000 15.1834 0.1870
45.6200 15.1901 0.1833
45.6400 15.1968 0.1907
45.6600 15.2035 0.1825
45.6800 15.2102 0.1841
45.7000 15.2168 0.1948
45.7200 15.2235 0.1852
45.7400 15.2301 0.1792
45.7600 15.2368 0.1924
45.7800 15.2434 0.1855
45.8000 15.2501 0.1768
45.8200 15.2568 0.1956
45.8400 15.2635 0.1837
45.8600 15.2702 0.1823
45.8800 15.2769 0.1932
45.9000 15.2836 0.1866
45.9200 15.2902 0.1766
45.9400 15.2968 0.1889
45.9600 15.3034 0.1864
45.9800 15.3101 0.1818
46.0000 15.3168 0.1801
46.0200 15.3235 0.1893
46.0400 15.3302 0.1800
46.0600 15.3369 0.1801
46.0800 15.3435 0.1918
46.1000 15.3502 0.1833
46.1200 15.3568 0.1802
46.1400 15.3634 0.1918
46.1600 15.3701 0.1840
46.1800 15.3769 0.1809
46.2000 15.3835 0.1863
46.2200 15.3902 0.1787
46.2400 15.3969 0.1799
46.2600 15.4036 0.1873
46.2800 15.4102 0.1755
46.3000 15.4168 0.1806
46.3200 15.4234 0.1885
46.3400 15.4301 0.1756
46.3600 15.4368 0.1827
46.3800 15.4435 0.1852
46.4000 15.4502 0.1731
46.4200 15.4569 0.1805
46.4400 15.4636 0.1887
46.4600 15.4702 0.1695
46.4800 15.4767 0.1793
46.5000 15.4833 0.1837
46.5200 15.4900 0.1742
46.5400 15.4968 0.1826
46.5600 15.5035 0.1780
46.5800 15.5102 0.1701
46.6000 15.5168 0.1854
46.6200 15.5235 0.1757
46.6400 15.5302 0.1725
46.6600 15.5368 0.1793
46.6800 15.5434 0.1797
46.7000 15.5501 0.1766
46.7200 15.5568 0.1783
46.7400 15.5635 0.1739
46.7600 15.5702 0.1783
46.7800 15.5769 0.1832
46.8000 15.5836 0.1668
46.8200 15.5902 0.1748
46.8400 15.5968 0.1856
46.8600 15.6034 0.1653
46.8800 15.6101 0.1745
46.9000 15.6168 0.1858
46.9200 15.6235 0.1633
46.9400 15.6302 0.1735
46.9600 15.6369 0.1795
46.9800 15.6436 0.1695
47.0000 15.6502 0.1708
47.0200 15.6568 0.1823
47.0400 15.6634 0.1671
47.0600 15.6701 0.1729
47.0800 15.6768 0.1769
47.1000 15.6835 0.1701
47.1200 15.6902 0.1752
47.1400 15.6969 0.1718
47.1600 15.7035 0.1678
47.1800 15.7102 0.1752
47.2000 15.7168 0.1698
47.2200 15.7234 0.1763
47.2400 15.7301 0.1697
47.2600 15.7368 0.1671
47.2800 15.7435 0.1714
47.3000 15.7502 0.1700
47.3200 15.7568 0.1728
47.3400 15.7635 0.1722
47.3600 15.7702 0.1659
47.3800 15.7768 0.1790
47.4000 15.7834 0.1749
47.4200 15.7901 0.1631
47.4400 15.7968 0.1832
47.4600 15.8035 0.1699
47.4800 15.8102 0.1658
47.5000 15.8169 0.1799
47.5200 15.8236 0.1659
47.5400 15.8302 0.1648
47.5600 15.8368 0.1814
47.5800 15.8434 0.1646
47.6000 15.8501 0.1751
47.6200 15.8568 0.1787
47.6400 15.8635 0.1618
47.6600 15.8702 0.1710
47.6800 15.8769 0.1753
47.7000 15.8836 0.1620
47.7200 15.8902 0.1760
47.7400 15.8968 0.1728
47.7600 15.9034 0.1670
47.7800 15.9101 0.1785
47.8000 15.9168 0.1632
47.8200 15.9235 0.1661
47.8400 15.9302 0.1792
47.8600 15.9368 0.1608
47.8800 15.9435 0.1703
47.9000 15.9502 0.1775
47.9200 15.9568 0.1564
47.9400 15.9634 0.1752
47.9600 15.9701 0.1763
47.9800 15.9768 0.1579
48.0000 15.9835 0.1777
48.0200 15.9902 0.1788
48.0400 15.9968 0.1496
48.0600 16.0035 0.1761
48.0800 16.0102 0.1791
48.1000 16.0168 0.1507
48.1200 16.0234 0.1747
48.1400 16.0301 0.1758
48.1600 16.0368 0.1582
48.1800 16.0436 0.1764
48.2000 16.0502 0.1688
48.2200 16.0569 0.1598
48.2400 16.0636 0.1751
48.2600 16.0702 0.1685
48.2800 16.0768 0.1523
48.3000 16.0834 0.1769
48.3200 16.0901 0.1757
48.3400 16.0968 0.1525
48.3600 16.1035 0.1720
48.3800 16.1102 0.1769
48.4000 16.1169 0.1523
48.4200 16.1236 0.1666
48.4400 16.1302 0.1729
48.4600 16.1368 0.1538
48.4800 16.1434 0.1704
48.5000 16.1500 0.1705
48.5200 16.1567 0.1537
48.5400 16.1635 0.1730
48.5600 16.1702 0.1661
48.5800 16.1769 0.1455
48.6000 16.1836 0.1798
48.6200 16.1902 0.1624
48.6400 16.1968 0.1458
48.6600 16.2034 0.1777
48.6800 16.2100 0.1645
48.7000 16.2167 0.1503
48.7200 16.2235 0.1756
48.7400 16.2302 0.1542
48.7600 16.2368 0.1552
48.7800 16.2435 0.1781
48.8000 16.2502 0.1512
48.8200 16.2568 0.1520
48.8400 16.2634 0.1819
48.8600 16.2701 0.1493
48.8800 16.2768 0.1527
48.9000 16.2835 0.1755
48.9200 16.2902 0.1526
48.9400 16.2969 0.1568
48.9600 16.3036 0.1675
48.9800 16.3103 0.1509
49.0000 16.3169 0.1587
49.0200 16.3234 0.1688
49.0400 16.3301 0.1488
49.0600 16.3368 0.1582
49.0800 16.3435 0.1672
49.1000 16.3502 0.1484
49.1200 16.3569 0.1560
49.1400 16.3635 0.1619
49.1600 16.3702 0.1504
49.1800 16.3768 0.1537
49.2000 16.3834 0.1576
49.2200 16.3900 0.1604
49.2400 16.3967 0.1486
49.2600 16.4035 0.1509
49.2800 16.4101 0.1542
49.3000 16.4168 0.1626
49.3200 16.4235 0.1498
49.3400 16.4301 0.1456
49.3600 16.4368 0.1565
49.3800 16.4434 0.1584
49.4000 16.4501 0.1539
49.4200 16.4568 0.1530
49.4400 16.4635 0.1526
49.4600 16.4702 0.1556
49.4800 16.4768 0.1495
49.5000 16.4835 0.1516
49.5200 16.4902 0.1573
49.5400 16.4969 0.1484
49.5600 16.5034 0.1480
49.5800 16.5101 0.1566
49.6000 16.5168 0.1480
49.6200 16.5235 0.1473
49.6400 16.5302 0.1579
49.6600 16.5369 0.1448
49.6800 16.5436 0.1474
49.7000 16.5502 0.1574
49.7200 16.5568 0.1440
49.7400 16.5634 0.1455
49.7600 16.5701 0.1592
49.7800 16.5768 0.1393
49.8000 16.5835 0.1515
49.8200 16.5902 0.1549
49.8400 16.5969 0.1414
49.8600 16.6035 0.1514
49.8800 16.6102 0.1569
49.9000 16.6169 0.1391
49.9200 16.6235 0.1536
49.9400 16.6301 0.1567
49.9600 16.6368 0.1356
49.9800 16.6435 0.1533
50.0000 16.6502 0.1507
50.0200 16.6569 0.1373
50.0400 16.6635 0.1545
50.0600 16.6702 0.1451
50.0800 16.6768 0.1376
50.1000 16.6834 0.1590
50.1200 16.6900 0.1472
50.1400 16.6967 0.1411
50.1600 16.7035 0.1551
50.1800 16.7102 0.1439
50.2000 16.7169 0.1397
50.2200 16.7235 0.1507
50.2400 16.7302 0.1463
50.2600 16.7368 0.1466
50.2800 16.7434 0.1443
50.3000 16.7501 0.1463
50.3200 16.7568 0.1444
50.3400 16.7635 0.1446
50.3600 16.7702 0.1392
50.3800 16.7769 0.1470
50.4000 16.7835 0.1459
50.4200 16.7902 0.1410
50.4400 16.7969 0.1458
50.4600 16.8034 0.1416
50.4800 16.8101 0.1447
50.5000 16.8168 0.1378
50.5200 16.8235 0.1397
50.5400 16.8302 0.1448
50.5600 16.8369 0.1341
50.5800 16.8436 0.1403
50.6000 16.8503 0.1424
50.6200 16.8569 0.1328
50.6400 16.8635 0.1364
50.6600 16.8701 0.1488
50.6800 16.8768 0.1336
50.7000 16.8835 0.1362
50.7200 16.8902 0.1469
50.7400 16.8969 0.1295
50.7600 16.9035 0.1395
50.7800 16.9102 0.1420
50.8000 16.9168 0.1290
50.8200 16.9234 0.1428
50.8400 16.9300 0.1435
50.8600 16.9367 0.1247
50.8800 16.9434 0.1456
50.9000 16.9501 0.1401
50.9200 16.9568 0.1264
50.9400 16.9635 0.1447
50.9600 16.9702 0.1391
50.9800 16.9768 0.1234
51.0000 16.9834 0.1479
51.0200 16.9901 0.1392
51.0400 16.9967 0.1283
51.0600 17.0035 0.1397
51.0800 17.0102 0.1352
51.1000 17.0169 0.1344
51.1200 17.0236 0.1365
51.1400 17.0303 0.1314
51.1600 17.0369 0.1363
51.1800 17.0435 0.1330
51.2000 17.0501 0.1330
51.2200 17.0568 0.1403
51.2400 17.0635 0.1309
51.2600 17.0702 0.1332
51.2800 17.0768 0.1373
51.3000 17.0835 0.1310
51.3200 17.0902 0.1354
51.3400 17.0969 0.1384
51.3600 17.1035 0.1186
51.3800 17.1101 0.1394
51.4000 17.1167 0.1383
51.4200 17.1234 0.1227
51.4400 17.1301 0.1411
51.4600 17.1368 0.1307
51.4800 17.1435 0.1193
51.5000 17.1502 0.1435
51.5200 17.1568 0.1246
51.5400 17.1634 0.1187
51.5600 17.1700 0.1478
51.5800 17.1767 0.1232
51.6000 17.1834 0.1243
51.6200 17.1902 0.1448
51.6400 17.1969 0.1120
51.6600 17.2035 0.1253
51.6800 17.2102 0.1453
51.7000 17.2168 0.1090
51.7200 17.2234 0.1277
51.7400 17.2301 0.1428
51.7600 17.2368 0.1123
51.7800 17.2435 0.1293
51.8000 17.2502 0.1368
51.8200 17.2568 0.1107
51.8400 17.2635 0.1355
51.8600 17.2702 0.1272
51.8800 17.2769 0.1176
51.9000 17.2835 0.1362
51.9200 17.2901 0.1210
51.9400 17.2968 0.1189
51.9600 17.3035 0.1435
51.9800 17.3102 0.1124
52.0000 17.3169 0.1276
52.0200 17.3236 0.1343
52.0400 17.3302 0.1069
52.0600 17.3369 0.1316
52.0800 17.3435 0.1277
52.1000 17.3501 0.1085
52.1200 17.3567 0.1384
52.1400 17.3634 0.1205
52.1600 17.3702 0.1077
52.1800 17.3769 0.1395
52.2000 17.3835 0.1218
52.2200 17.3902 0.1068
52.2400 17.3968 0.1396
52.2600 17.4034 0.1202
52.2800 17.4100 0.1049
52.3000 17.4167 0.1440
52.3200 17.4234 0.1114
52.3400 17.4301 0.1088
52.3600 17.4368 0.1354
52.3800 17.4435 0.1150
52.4000 17.4502 0.1130
52.4200 17.4568 0.1283
52.4400 17.4635 0.1136
52.4600 17.4701 0.1165
52.4800 17.4768 0.1217
52.5000 17.4835 0.1112
52.5200 17.4902 0.1186
52.5400 17.4969 0.1289
52.5600 17.5036 0.1101
52.5800 17.5103 0.1185
52.6000 17.5169 0.1185
52.6200 17.5235 0.1159
52.6400 17.5301 0.1160
52.6600 17.5368 0.1160
52.6800 17.5435 0.1201
52.7000 17.5502 0.1130
52.7200 17.5569 0.1149
52.7400 17.5635 0.1197
52.7600 17.5702 0.1117
52.7800 17.5769 0.1140
52.8000 17.5835 0.1163
52.8200 17.5901 0.1127
52.8400 17.5967 0.1164
52.8600 17.6035 0.1161
52.8800 17.6102 0.1069
52.9000 17.6168 0.1101
52.9200 17.6235 0.1184
52.9400 17.6302 0.1075
52.9600 17.6369 0.1112
52.9800 17.6435 0.1135
53.0000 17.6501 0.1088
53.0200 17.6567 0.1102
53.0400 17.6634 0.1187
53.0600 17.6701 0.1074
53.0800 17.6768 0.1089
53.1000 17.6835 0.1146
53.1200 17.6902 0.1075
53.1400 17.6968 0.1085
53.1600 17.7035 0.1108
53.1800 17.7101 0.1081
53.2000 17.7167 0.1154
53.2200 17.7235 0.1110
53.2400 17.7302 0.1031
53.2600 17.7369 0.1139
53.2800 17.7436 0.1137
53.3000 17.7502 0.1017
53.3200 17.7569 0.1111
53.3400 17.7635 0.1103
53.3600 17.7701 0.0966
53.3800 17.7768 0.1191
53.4000 17.7835 0.1089
53.4200 17.7902 0.1011
53.4400 17.7969 0.1114
53.4600 17.8036 0.1024
53.4800 17.8102 0.1022
53.5000 17.8169 0.1147
53.5200 17.8235 0.1003
53.5400 17.8301 0.1010
53.5600 17.8367 0.1099
53.5800 17.8434 0.0992
53.6000 17.8501 0.1019
53.6200 17.8568 0.1115
53.6400 17.8635 0.0997
53.6600 17.8702 0.1039
53.6800 17.8768 0.1023
53.7000 17.8835 0.0999
53.7200 17.8901 0.1069
53.7400 17.8967 0.1040
53.7600 17.9034 0.0972
53.7800 17.9101 0.1020
53.8000 17.9168 0.0974
53.8200 17.9235 0.0958
53.8400 17.9302 0.1057
53.8600 17.9369 0.0981
53.8800 17.9435 0.0890
53.9000 17.9501 0.1052
53.9200 17.9568 0.1021
53.9400 17.9634 0.0915
53.9600 17.9702 0.1009
53.9800 17.9768 0.0933
54.0000 17.9835 0.1018
54.0200 17.9902 0.0993
54.0400 17.9969 0.0945
54.0600 18.0035 0.0993
54.0800 18.0101 0.0960
54.1000 18.0167 0.0916
54.1200 18.0234 0.1040
54.1400 18.0301 0.0933
54.1600 18.0368 0.0920
54.1800 18.0435 0.1020
54.2000 18.0502 0.0866
54.2200 18.0569 0.0914
54.2400 18.0635 0.1024
54.2600 18.0701 0.0796
54.2800 18.0768 0.1009
54.3000 18.0835 0.1018
54.3200 18.0902 0.0718
54.3400 18.0969 0.0993
54.3600 18.1035 0.1000
54.3800 18.1102 0.0786
54.4000 18.1169 0.0988
54.4200 18.1235 0.0858
54.4400 18.1301 0.0716
54.4600 18.1367 0.1120
54.4800 18.1434 0.0841
54.5000 18.1501 0.0749
54.5200 18.1568 0.1055
54.5400 18.1635 0.0836
54.5600 18.1702 0.0744
54.5800 18.1768 0.1048
54.6000 18.1835 0.0731
54.6200 18.1901 0.0807
54.6400 18.1967 0.1009
54.6600 18.2034 0.0720
54.6800 18.2101 0.0863
54.7000 18.2169 0.0958
54.7200 18.2236 0.0660
54.7400 18.2303 0.0887
54.7600 18.2369 0.0950
54.7800 18.2435 0.0661
54.8000 18.2501 0.0901
54.8200 18.2568 0.0881
54.8400 18.2635 0.0687
54.8600 18.2702 0.0939
54.8800 18.2769 0.0811
54.9000 18.2836 0.0760
54.9200 18.2902 0.0946
54.9400 18.2969 0.0787
54.9600 18.3035 0.0798
54.9800 18.3101 0.0916
55.0000 18.3167 0.0820
55.0200 18.3234 0.0791
55.0400 18.3301 0.0914
55.0600 18.3368 0.0783
55.0800 18.3435 0.0819
55.1000 18.3502 0.0896
55.1200 18.3569 0.0777
55.1400 18.3635 0.0832
55.1600 18.3701 0.0946
55.1800 18.3767 0.0742
55.2000 18.3834 0.0844
55.2200 18.3901 0.0906
55.2400 18.3968 0.0803
55.2600 18.4035 0.0813
55.2800 18.4102 0.0900
55.3000 18.4168 0.0817
55.3200 18.4235 0.0861
55.3400 18.4301 0.0850
55.3600 18.4367 0.0747
55.3800 18.4434 0.0880
55.4000 18.4502 0.0895
55.4200 18.4569 0.0720
55.4400 18.4635 0.0872
55.4600 18.4702 0.0854
55.4800 18.4769 0.0750
55.5000 18.4836 0.0854
55.5200 18.4902 0.0820
55.5400 18.4968 0.0813
55.5600 18.5035 0.0820
55.5800 18.5102 0.0829
55.6000 18.5168 0.0762
55.6200 18.5235 0.0872
55.6400 18.5302 0.0787
55.6600 18.5369 0.0784
55.6800 18.5436 0.0837
55.7000 18.5501 0.0737
55.7200 18.5567 0.0781
55.7400 18.5634 0.0850
55.7600 18.5701 0.0754
55.7800 18.5768 0.0781
55.8000 18.5835 0.0813
55.8200 18.5902 0.0713
55.8400 18.5969 0.0742
55.8600 18.6035 0.0787
55.8800 18.6101 0.0732
55.9000 18.6167 0.0781
55.9200 18.6234 0.0777
55.9400 18.6301 0.0708
55.9600 18.6368 0.0772
55.9800 18.6435 0.0733
56.0000 18.6502 0.0730
56.0200 18.6569 0.0710
56.0400 18.6635 0.0735
56.0600 18.6701 0.0693
56.0800 18.6768 0.0692
56.1000 18.6834 0.0755
56.1200 18.6901 0.0744
56.1400 18.6968 0.0621
56.1600 18.7035 0.0764
56.1800 18.7102 0.0735
56.2000 18.7169 0.0614
56.2200 18.7236 0.0698
56.2400 18.7302 0.0713
56.2600 18.7368 0.0687
56.2800 18.7434 0.0740
56.3000 18.7501 0.0688
56.3200 18.7569 0.0669
56.3400 18.7635 0.0739
56.3600 18.7702 0.0659
56.3800 18.7769 0.0660
56.4000 18.7835 0.0762
56.4200 18.7901 0.0631
56.4400 18.7967 0.0677
56.4600 18.8034 0.0693
56.4800 18.8101 0.0654
56.5000 18.8168 0.0708
56.5200 18.8235 0.0640
56.5400 18.8302 0.0690
56.5600 18.8368 0.0691
56.5800 18.8435 0.0678
56.6000 18.8501 0.0626
56.6200 18.8567 0.0699
56.6400 18.8634 0.0628
56.6600 18.8701 0.0625
56.6800 18.8768 0.0656
56.7000 18.8835 0.0650
56.7200 18.8902 0.0697
56.7400 18.8969 0.0623
56.7600 18.9035 0.0570
56.7800 18.9101 0.0696
56.8000 18.9167 0.0659
56.8200 18.9234 0.0601
56.8400 18.9301 0.0614
56.8600 18.9369 0.0651
56.8800 18.9436 0.0606
56.9000 18.9502 0.0650
56.9200 18.9569 0.0606
56.9400 18.9636 0.0568
56.9600 18.9701 0.0618
56.9800 18.9768 0.0661
57.0000 18.9834 0.0611
57.0200 18.9902 0.0610
57.0400 18.9969 0.0655
57.0600 19.0035 0.0523
57.0800 19.0102 0.0611
57.1000 19.0169 0.0652
57.1200 19.0235 0.0549
57.1400 19.0301 0.0630
57.1600 19.0367 0.0599
57.1800 19.0434 0.0545
57.2000 19.0501 0.0667
57.2200 19.0568 0.0565
57.2400 19.0635 0.0530
57.2600 19.0702 0.0663
57.2800 19.0769 0.0574
57.3000 19.0835 0.0462
57.3200 19.0901 0.0640
57.3400 19.0967 0.0584
57.3600 19.1034 0.0549
57.3800 19.1101 0.0630
57.4000 19.1168 0.0488
57.4200 19.1235 0.0511
57.4400 19.1302 0.0654
57.4600 19.1368 0.0451
57.4800 19.1435 0.0492
57.5000 19.1501 0.0617
57.5200 19.1568 0.0413
57.5400 19.1634 0.0574
57.5600 19.1701 0.0564
57.5800 19.1768 0.0416
57.6000 19.1835 0.0547
57.6200 19.1902 0.0535
57.6400 19.1969 0.0436
57.6600 19.2036 0.0620
57.6800 19.2102 0.0476
57.7000 19.2168 0.0366
57.7200 19.2234 0.0606
57.7400 19.2301 0.0536
57.7600 19.2368 0.0352
57.7800 19.2436 0.0558
57.8000 19.2502 0.0509
57.8200 19.2569 0.0422
57.8400 19.2636 0.0472
57.8600 19.2702 0.0514
57.8800 19.2768 0.0420
57.9000 19.2834 0.0472
57.9200 19.2901 0.0452
57.9400 19.2968 0.0433
57.9600 19.3035 0.0478
57.9800 19.3101 0.0447
58.0000 19.3168 0.0399
58.0200 19.3235 0.0436
58.0400 19.3301 0.0450
58.0600 19.3367 0.0415
58.0800 19.3434 0.0439
58.1000 19.3501 0.0400
58.1200 19.3568 0.0363
58.1400 19.3635 0.0397
58.1600 19.3701 0.0447
58.1800 19.3768 0.0371
58.2000 19.3835 0.0433
58.2200 19.3901 0.0388
58.2400 19.3968 0.0384
58.2600 19.4034 0.0383
58.2800 19.4101 0.0417
58.3000 19.4168 0.0349
58.3200 19.4235 0.0322
58.3400 19.4302 0.0361
58.3600 19.4369 0.0380
58.3800 19.4436 0.0358
58.4000 19.4502 0.0375
58.4200 19.4568 0.0307
58.4400 19.4634 0.0343
58.4600 19.4701 0.0337
58.4800 19.4768 0.0386
58.5000 19.4835 0.0329
58.5200 19.4902 0.0317
58.5400 19.4969 0.0363
58.5600 19.5036 0.0289
58.5800 19.5102 0.0302
58.6000 19.5168 0.0352
58.6200 19.5234 0.0316
58.6400 19.5301 0.0251
58.6600 19.5368 0.0282
58.6800 19.5435 0.0315
58.7000 19.5502 0.0295
58.7200 19.5569 0.0324
58.7400 19.5635 0.0246
58.7600 19.5702 0.0203
58.7800 19.5767 0.0358
58.8000 19.5834 0.0264
58.8200 19.5900 0.0213
58.8400 19.5968 0.0275
58.8600 19.6035 0.0242
58.8800 19.6101 0.0197
58.9000 19.6168 0.0298
58.9200 19.6235 0.0228
58.9400 19.6301 0.0199
58.9600 19.6367 0.0245
58.9800 19.6434 0.0188
59.0000 19.6501 0.0219
59.0200 19.6568 0.0267
59.0400 19.6635 0.0134
59.0600 19.6702 0.0152
59.0800 19.6769 0.0178
59.1000 19.6836 0.0176
59.1200 19.6902 0.0171
59.1400 19.6968 0.0155
59.1600 19.7035 0.0145
59.1800 19.7102 0.0081
59.2000 19.7168 0.0151
59.2200 19.7235 0.0148
59.2400 19.7302 0.0111
59.2600 19.7369 0.0081
59.2800 19.7436 0.0090
59.3000 19.7501 -0.0057
