Raw Data
Time Displacement Force
(s) (mm) (N)
0.0000 0.0000 -0.4377
0.0200 0.0001 -0.4334
0.0400 0.0008 -0.3957
0.0600 0.0040 -0.3568
0.0800 0.0095 -0.4460
0.1000 0.0153 -0.4678
0.1200 0.0212 -0.4090
0.1400 0.0278 -0.4080
0.1600 0.0351 -0.4065
0.1800 0.0425 -0.3670
0.2000 0.0497 -0.3572
0.2200 0.0566 -0.3478
0.2400 0.0633 -0.3012
0.2600 0.0699 -0.3010
0.2800 0.0766 -0.2904
0.3000 0.0833 -0.2606
0.3200 0.0900 -0.2602
0.3400 0.0967 -0.2345
0.3600 0.1034 -0.2101
0.3800 0.1100 -0.2126
0.4000 0.1167 -0.1870
0.4200 0.1234 -0.1712
0.4400 0.1301 -0.1751
0.4600 0.1368 -0.1558
0.4800 0.1434 -0.1353
0.5000 0.1501 -0.1355
0.5200 0.1568 -0.1151
0.5400 0.1634 -0.0950
0.5600 0.1700 -0.0813
0.5800 0.1767 -0.0609
0.6000 0.1834 -0.0510
0.6200 0.1901 -0.0404
0.6400 0.1968 -0.0246
0.6600 0.2034 -0.0004
0.6800 0.2101 0.0101
0.7000 0.2168 0.0278
0.7200 0.2234 0.0557
0.7400 0.2301 0.0893
0.7600 0.2367 0.1110
0.7800 0.2434 0.1396
0.8000 0.2500 0.1669
0.8200 0.2567 0.1966
0.8400 0.2634 0.2243
0.8600 0.2701 0.2508
0.8800 0.2768 0.2727
0.9000 0.2834 0.3120
0.9200 0.2900 0.3364
0.9400 0.2966 0.3592
0.9600 0.3033 0.3969
0.9800 0.3100 0.4225
1.0000 0.3167 0.4385
1.0200 0.3234 0.4784
1.0400 0.3301 0.5103
1.0600 0.3367 0.5453
1.0800 0.3434 0.5890
1.1000 0.3500 0.6204
1.1200 0.3566 0.6673
1.1400 0.3633 0.7100
1.1600 0.3701 0.7437
1.1800 0.3768 0.7845
1.2000 0.3835 0.8274
1.2200 0.3902 0.8395
1.2400 0.3968 0.8686
1.2600 0.4035 0.8863
1.2800 0.4101 0.9056
1.3000 0.4167 0.9388
1.3200 0.4234 0.9572
1.3400 0.4301 0.9873
1.3600 0.4368 1.0188
1.3800 0.4434 1.0312
1.4000 0.4501 1.0739
1.4200 0.4568 1.1144
1.4400 0.4634 1.1459
1.4600 0.4700 1.1865
1.4800 0.4766 1.2150
1.5000 0.4833 1.2082
1.5200 0.4900 1.2192
1.5400 0.4967 1.2186
1.5600 0.5034 1.2138
1.5800 0.5100 1.2287
1.6000 0.5167 1.2192
1.6200 0.5234 1.2167
1.6400 0.5300 1.2299
1.6600 0.5366 1.2268
1.6800 0.5433 1.2302
1.7000 0.5500 1.2282
1.7200 0.5568 1.2234
1.7400 0.5634 1.2299
1.7600 0.5701 1.2295
1.7800 0.5768 1.2323
1.8000 0.5834 1.2293
1.8200 0.5901 1.2237
1.8400 0.5967 1.2300
1.8600 0.6034 1.2305
1.8800 0.6101 1.2201
1.9000 0.6168 1.2329
1.9200 0.6234 1.2250
1.9400 0.6301 1.2202
1.9600 0.6368 1.2293
1.9800 0.6435 1.2254
2.0000 0.6501 1.2143
2.0200 0.6567 1.2341
2.0400 0.6633 1.2212
2.0600 0.6701 1.2124
2.0800 0.6768 1.2291
2.1000 0.6835 1.2160
2.1200 0.6901 1.2077
2.1400 0.6968 1.2200
2.1600 0.7034 1.2098
2.1800 0.7100 1.2119
2.2000 0.7166 1.2204
2.2200 0.7233 1.2039
2.2400 0.7300 1.2076
2.2600 0.7368 1.2193
2.2800 0.7434 1.2026
2.3000 0.7501 1.2058
2.3200 0.7568 1.2117
2.3400 0.7634 1.1996
2.3600 0.7700 1.2033
2.3800 0.7767 1.2075
2.4000 0.7833 1.2028
2.4200 0.7900 1.1985
2.4400 0.7967 1.2054
2.4600 0.8034 1.1930
2.4800 0.8100 1.1990
2.5000 0.8167 1.2047
2.5200 0.8234 1.1939
2.5400 0.8300 1.1946
2.5600 0.8367 1.2017
2.5800 0.8433 1.1919
2.6000 0.8501 1.1912
2.6200 0.8568 1.1993
2.6400 0.8635 1.1957
2.6600 0.8702 1.1905
2.6800 0.8768 1.1998
2.7000 0.8835 1.1897
2.7200 0.8901 1.1933
2.7400 0.8967 1.2037
2.7600 0.9034 1.1837
2.7800 0.9101 1.1927
2.8000 0.9168 1.1977
2.8200 0.9235 1.1836
2.8400 0.9301 1.1902
2.8600 0.9368 1.2032
2.8800 0.9435 1.1783
2.9000 0.9501 1.1914
2.9200 0.9567 1.1971
2.9400 0.9633 1.1801
2.9600 0.9700 1.1934
2.9800 0.9767 1.1982
3.0000 0.9834 1.1795
3.0200 0.9901 1.1969
3.0400 0.9968 1.1919
3.0600 1.0034 1.1815
3.0800 1.0100 1.1934
3.1000 1.0166 1.1955
3.1200 1.0233 1.1827
3.1400 1.0300 1.1923
3.1600 1.0367 1.1885
3.1800 1.0434 1.1838
3.2000 1.0501 1.1881
3.2200 1.0567 1.1880
3.2400 1.0634 1.1831
3.2600 1.0700 1.1867
3.2800 1.0767 1.1865
3.3000 1.0833 1.1857
3.3200 1.0900 1.1831
3.3400 1.0968 1.1840
3.3600 1.1034 1.1882
3.3800 1.1101 1.1763
3.4000 1.1168 1.1868
3.4200 1.1235 1.1808
3.4400 1.1301 1.1794
3.4600 1.1367 1.1875
3.4800 1.1434 1.1841
3.5000 1.1501 1.1782
3.5200 1.1568 1.1851
3.5400 1.1635 1.1834
3.5600 1.1701 1.1742
3.5800 1.1768 1.1811
3.6000 1.1834 1.1814
3.6200 1.1901 1.1798
3.6400 1.1967 1.1870
3.6600 1.2033 1.1761
3.6800 1.2100 1.1773
3.7000 1.2168 1.1804
3.7200 1.2234 1.1839
3.7400 1.2301 1.1802
3.7600 1.2368 1.1753
3.7800 1.2434 1.1832
3.8000 1.2501 1.1747
3.8200 1.2567 1.1755
3.8400 1.2633 1.1856
3.8600 1.2700 1.1764
3.8800 1.2767 1.1711
3.9000 1.2834 1.1774
3.9200 1.2901 1.1794
3.9400 1.2968 1.1789
3.9600 1.3034 1.1754
3.9800 1.3101 1.1757
4.0000 1.3167 1.1776
4.0200 1.3233 1.1796
4.0400 1.3300 1.1689
4.0600 1.3367 1.1812
4.0800 1.3434 1.1762
4.1000 1.3501 1.1689
4.1200 1.3568 1.1749
4.1400 1.3635 1.1763
4.1600 1.3701 1.1719
4.1800 1.3767 1.1769
4.2000 1.3833 1.1753
4.2200 1.3900 1.1737
4.2400 1.3968 1.1712
4.2600 1.4035 1.1715
4.2800 1.4101 1.1690
4.3000 1.4168 1.1761
4.3200 1.4235 1.1740
4.3400 1.4301 1.1677
4.3600 1.4367 1.1741
4.3800 1.4433 1.1739
4.4000 1.4500 1.1728
4.4200 1.4567 1.1727
4.4400 1.4634 1.1712
4.4600 1.4701 1.1682
4.4800 1.4768 1.1750
4.5000 1.4834 1.1674
4.5200 1.4901 1.1672
4.5400 1.4967 1.1764
4.5600 1.5033 1.1712
4.5800 1.5100 1.1614
4.6000 1.5167 1.1736
4.6200 1.5234 1.1711
4.6400 1.5301 1.1692
4.6600 1.5368 1.1633
4.6800 1.5434 1.1677
4.7000 1.5501 1.1677
4.7200 1.5567 1.1640
4.7400 1.5633 1.1664
4.7600 1.5701 1.1688
4.7800 1.5768 1.1654
4.8000 1.5835 1.1612
4.8200 1.5902 1.1695
4.8400 1.5968 1.1712
4.8600 1.6035 1.1602
4.8800 1.6101 1.1676
4.9000 1.6167 1.1627
4.9200 1.6233 1.1630
4.9400 1.6300 1.1678
4.9600 1.6367 1.1551
4.9800 1.6434 1.1663
5.0000 1.6501 1.1653
5.0200 1.6568 1.1589
5.0400 1.6635 1.1620
5.0600 1.6701 1.1649
5.0800 1.6767 1.1525
5.1000 1.6833 1.1666
5.1200 1.6900 1.1698
5.1400 1.6967 1.1556
5.1600 1.7034 1.1687
5.1800 1.7101 1.1608
5.2000 1.7168 1.1494
5.2200 1.7235 1.1787
5.2400 1.7301 1.1552
5.2600 1.7367 1.1500
5.2800 1.7433 1.1731
5.3000 1.7500 1.1535
5.3200 1.7567 1.1490
5.3400 1.7634 1.1758
5.3600 1.7701 1.1513
5.3800 1.7767 1.1499
5.4000 1.7834 1.1752
5.4200 1.7901 1.1433
5.4400 1.7967 1.1537
5.4600 1.8033 1.1689
5.4800 1.8100 1.1441
5.5000 1.8167 1.1581
5.5200 1.8234 1.1652
5.5400 1.8301 1.1396
5.5600 1.8368 1.1585
5.5800 1.8435 1.1628
5.6000 1.8501 1.1469
5.6200 1.8567 1.1546
5.6400 1.8633 1.1640
5.6600 1.8700 1.1452
5.6800 1.8767 1.1512
5.7000 1.8834 1.1520
5.7200 1.8901 1.1523
5.7400 1.8968 1.1502
5.7600 1.9034 1.1514
5.7800 1.9101 1.1507
5.8000 1.9167 1.1483
5.8200 1.9233 1.1487
5.8400 1.9300 1.1576
5.8600 1.9367 1.1447
5.8800 1.9434 1.1445
5.9000 1.9501 1.1560
5.9200 1.9567 1.1395
5.9400 1.9634 1.1457
5.9600 1.9701 1.1563
5.9800 1.9767 1.1395
6.0000 1.9833 1.1422
6.0200 1.9900 1.1550
6.0400 1.9967 1.1423
6.0600 2.0034 1.1420
6.0800 2.0101 1.1525
6.1000 2.0167 1.1381
6.1200 2.0235 1.1409
6.1400 2.0301 1.1514
6.1600 2.0367 1.1370
6.1800 2.0433 1.1398
6.2000 2.0500 1.1565
6.2200 2.0567 1.1366
6.2400 2.0634 1.1355
6.2600 2.0701 1.1522
6.2800 2.0768 1.1351
6.3000 2.0835 1.1389
6.3200 2.0901 1.1498
6.3400 2.0967 1.1312
6.3600 2.1033 1.1366
6.3800 2.1100 1.1513
6.4000 2.1167 1.1277
6.4200 2.1234 1.1342
6.4400 2.1301 1.1515
6.4600 2.1368 1.1316
6.4800 2.1435 1.1307
6.5000 2.1501 1.1469
6.5200 2.1567 1.1340
6.5400 2.1633 1.1317
6.5600 2.1700 1.1459
6.5800 2.1767 1.1312
6.6000 2.1834 1.1324
6.6200 2.1901 1.1447
6.6400 2.1968 1.1308
6.6600 2.2035 1.1258
6.6800 2.2101 1.1419
6.7000 2.2167 1.1277
6.7200 2.2233 1.1288
6.7400 2.2300 1.1389
6.7600 2.2367 1.1332
6.7800 2.2434 1.1264
6.8000 2.2501 1.1366
6.8200 2.2568 1.1289
6.8400 2.2634 1.1300
6.8600 2.2701 1.1320
6.8800 2.2767 1.1269
6.9000 2.2833 1.1307
6.9200 2.2900 1.1393
6.9400 2.2967 1.1228
6.9600 2.3034 1.1222
6.9800 2.3101 1.1386
7.0000 2.3168 1.1276
7.0200 2.3235 1.1277
7.0400 2.3301 1.1326
7.0600 2.3367 1.1217
7.0800 2.3434 1.1273
7.1000 2.3500 1.1343
7.1200 2.3567 1.1206
7.1400 2.3634 1.1269
7.1600 2.3701 1.1291
7.1800 2.3768 1.1199
7.2000 2.3835 1.1229
7.2200 2.3901 1.1351
7.2400 2.3967 1.1198
7.2600 2.4033 1.1234
7.2800 2.4100 1.1265
7.3000 2.4167 1.1225
7.3200 2.4234 1.1241
7.3400 2.4301 1.1271
7.3600 2.4368 1.1192
7.3800 2.4434 1.1279
7.4000 2.4501 1.1247
7.4200 2.4567 1.1139
7.4400 2.4633 1.1241
7.4600 2.4700 1.1293
7.4800 2.4767 1.1154
7.5000 2.4834 1.1209
7.5200 2.4900 1.1244
7.5400 2.4967 1.1143
7.5600 2.5034 1.1172
7.5800 2.5101 1.1264
7.6000 2.5167 1.1168
7.6200 2.5234 1.1174
7.6400 2.5300 1.1243
7.6600 2.5367 1.1177
7.6800 2.5434 1.1114
7.7000 2.5501 1.1191
7.7200 2.5568 1.1261
7.7400 2.5635 1.1128
7.7600 2.5701 1.1137
7.7800 2.5768 1.1187
7.8000 2.5834 1.1186
7.8200 2.5900 1.1190
7.8400 2.5968 1.1178
7.8600 2.6035 1.1072
7.8800 2.6101 1.1213
7.9000 2.6168 1.1226
7.9200 2.6234 1.1002
7.9400 2.6301 1.1168
7.9600 2.6367 1.1231
7.9800 2.6433 1.1029
8.0000 2.6500 1.1234
8.0200 2.6567 1.1159
8.0400 2.6634 1.0940
8.0600 2.6701 1.1208
8.0800 2.6767 1.1217
8.1000 2.6834 1.0963
8.1200 2.6901 1.1157
8.1400 2.6967 1.1140
8.1600 2.7033 1.0973
8.1800 2.7100 1.1244
8.2000 2.7167 1.1143
8.2200 2.7234 1.0970
8.2400 2.7301 1.1212
8.2600 2.7368 1.1115
8.2800 2.7435 1.0914
8.3000 2.7501 1.1218
8.3200 2.7567 1.1050
8.3400 2.7633 1.0970
8.3600 2.7700 1.1216
8.3800 2.7767 1.1068
8.4000 2.7834 1.0939
8.4200 2.7901 1.1201
8.4400 2.7968 1.1038
8.4600 2.8035 1.0989
8.4800 2.8101 1.1184
8.5000 2.8167 1.1001
8.5200 2.8233 1.0969
8.5400 2.8300 1.1144
8.5600 2.8367 1.1029
8.5800 2.8434 1.1018
8.6000 2.8501 1.1051
8.6200 2.8568 1.1010
8.6400 2.8635 1.1018
8.6600 2.8702 1.1055
8.6800 2.8768 1.1035
8.7000 2.8834 1.1059
8.7200 2.8900 1.1083
8.7400 2.8967 1.0998
8.7600 2.9034 1.0999
8.7800 2.9101 1.1005
8.8000 2.9168 1.1044
8.8200 2.9235 1.0984
8.8400 2.9301 1.1030
8.8600 2.9367 1.1025
8.8800 2.9433 1.1003
8.9000 2.9499 1.1025
8.9200 2.9566 1.0999
8.9400 2.9634 1.1004
8.9600 2.9700 1.1038
8.9800 2.9767 1.0953
9.0000 2.9834 1.0975
9.0200 2.9901 1.0983
9.0400 2.9967 1.1019
9.0600 3.0033 1.0962
9.0800 3.0100 1.0970
9.1000 3.0167 1.1051
9.1200 3.0234 1.0956
9.1400 3.0301 1.0903
9.1600 3.0368 1.1064
9.1800 3.0435 1.0972
9.2000 3.0501 1.0922
9.2200 3.0568 1.1041
9.2400 3.0634 1.0930
9.2600 3.0700 1.0932
9.2800 3.0767 1.1041
9.3000 3.0834 1.0913
9.3200 3.0901 1.0955
9.3400 3.0968 1.1073
9.3600 3.1035 1.0879
9.3800 3.1102 1.0926
9.4000 3.1168 1.1059
9.4200 3.1234 1.0897
9.4400 3.1300 1.0954
9.4600 3.1367 1.1049
9.4800 3.1434 1.0832
9.5000 3.1501 1.0934
9.5200 3.1568 1.0989
9.5400 3.1634 1.0903
9.5600 3.1701 1.0929
9.5800 3.1768 1.0956
9.6000 3.1834 1.0892
9.6200 3.1900 1.0962
9.6400 3.1967 1.1006
9.6600 3.2034 1.0882
9.6800 3.2101 1.0955
9.7000 3.2167 1.0947
9.7200 3.2234 1.0915
9.7400 3.2301 1.0958
9.7600 3.2367 1.0902
9.7800 3.2433 1.0935
9.8000 3.2500 1.0993
9.8200 3.2567 1.0872
9.8400 3.2634 1.0985
9.8600 3.2701 1.0913
9.8800 3.2768 1.0913
9.9000 3.2835 1.1000
9.9200 3.2901 1.0904
9.9400 3.2968 1.0840
9.9600 3.3034 1.1085
9.9800 3.3100 1.0859
10.0000 3.3167 1.0847
10.0200 3.3235 1.1031
10.0400 3.3302 1.0821
10.0600 3.3368 1.0886
10.0800 3.3435 1.1031
10.1000 3.3501 1.0745
10.1200 3.3567 1.0919
10.1400 3.3633 1.1017
10.1600 3.3700 1.0778
10.1800 3.3767 1.0932
10.2000 3.3834 1.0977
10.2200 3.3901 1.0711
10.2400 3.3967 1.0969
10.2600 3.4034 1.0960
10.2800 3.4101 1.0731
10.3000 3.4167 1.1002
10.3200 3.4233 1.0892
10.3400 3.4300 1.0757
10.3600 3.4366 1.1007
10.3800 3.4434 1.0881
10.4000 3.4501 1.0760
10.4200 3.4567 1.1019
10.4400 3.4634 1.0828
10.4600 3.4701 1.0798
10.4800 3.4768 1.0966
10.5000 3.4834 1.0821
10.5200 3.4900 1.0814
10.5400 3.4967 1.0901
10.5600 3.5034 1.0761
10.5800 3.5101 1.0854
10.6000 3.5168 1.0864
10.6200 3.5235 1.0838
10.6400 3.5302 1.0858
10.6600 3.5368 1.0844
10.6800 3.5434 1.0816
10.7000 3.5500 1.0795
10.7200 3.5567 1.0779
10.7400 3.5634 1.0883
10.7600 3.5701 1.0782
10.7800 3.5768 1.0755
10.8000 3.5835 1.0886
10.8200 3.5902 1.0687
10.8400 3.5968 1.0779
10.8600 3.6034 1.0951
10.8800 3.6100 1.0645
10.9000 3.6167 1.0780
10.9200 3.6234 1.0955
10.9400 3.6301 1.0636
10.9600 3.6368 1.0825
10.9800 3.6434 1.0838
11.0000 3.6501 1.0646
11.0200 3.6568 1.0882
11.0400 3.6634 1.0802
11.0600 3.6700 1.0588
11.0800 3.6767 1.0931
11.1000 3.6834 1.0817
11.1200 3.6900 1.0578
11.1400 3.6967 1.0867
11.1600 3.7034 1.0789
11.1800 3.7101 1.0559
11.2000 3.7167 1.0854
11.2200 3.7234 1.0770
11.2400 3.7300 1.0622
11.2600 3.7367 1.0835
11.2800 3.7434 1.0763
11.3000 3.7501 1.0596
11.3200 3.7568 1.0772
11.3400 3.7635 1.0790
11.3600 3.7702 1.0593
11.3800 3.7768 1.0739
11.4000 3.7834 1.0732
11.4200 3.7900 1.0668
11.4400 3.7967 1.0701
11.4600 3.8034 1.0737
11.4800 3.8101 1.0606
11.5000 3.8168 1.0759
11.5200 3.8235 1.0656
11.5400 3.8301 1.0598
11.5600 3.8368 1.0714
11.5800 3.8434 1.0670
11.6000 3.8500 1.0556
11.6200 3.8567 1.0726
11.6400 3.8634 1.0681
11.6600 3.8700 1.0563
11.6800 3.8767 1.0662
11.7000 3.8834 1.0676
11.7200 3.8901 1.0565
11.7400 3.8967 1.0666
11.7600 3.9033 1.0607
11.7800 3.9099 1.0586
11.8000 3.9166 1.0699
11.8200 3.9233 1.0621
11.8400 3.9300 1.0559
11.8600 3.9368 1.0631
11.8800 3.9434 1.0606
11.9000 3.9501 1.0550
11.9200 3.9568 1.0582
11.9400 3.9634 1.0600
11.9600 3.9700 1.0604
11.9800 3.9767 1.0576
12.0000 3.9834 1.0593
12.0200 3.9901 1.0537
12.0400 3.9968 1.0597
12.0600 4.0035 1.0595
12.0800 4.0101 1.0544
12.1000 4.0168 1.0545
12.1200 4.0234 1.0556
12.1400 4.0300 1.0520
12.1600 4.0367 1.0578
12.1800 4.0434 1.0549
12.2000 4.0501 1.0518
12.2200 4.0568 1.0525
12.2400 4.0635 1.0533
12.2600 4.0702 1.0479
12.2800 4.0768 1.0511
12.3000 4.0834 1.0540
12.3200 4.0900 1.0512
12.3400 4.0966 1.0476
12.3600 4.1034 1.0498
12.3800 4.1101 1.0448
12.4000 4.1168 1.0481
12.4200 4.1234 1.0540
12.4400 4.1301 1.0466
12.4600 4.1368 1.0415
12.4800 4.1434 1.0495
12.5000 4.1500 1.0477
12.5200 4.1566 1.0434
12.5400 4.1633 1.0514
12.5600 4.1700 1.0449
12.5800 4.1767 1.0409
12.6000 4.1834 1.0528
12.6200 4.1901 1.0426
12.6400 4.1968 1.0378
12.6600 4.2034 1.0547
12.6800 4.2100 1.0386
12.7000 4.2167 1.0392
12.7200 4.2234 1.0521
12.7400 4.2301 1.0412
12.7600 4.2368 1.0386
12.7800 4.2434 1.0519
12.8000 4.2502 1.0395
12.8200 4.2568 1.0328
12.8400 4.2634 1.0479
12.8600 4.2700 1.0376
12.8800 4.2767 1.0364
12.9000 4.2834 1.0496
12.9200 4.2901 1.0368
12.9400 4.2968 1.0337
12.9600 4.3035 1.0454
12.9800 4.3101 1.0364
13.0000 4.3168 1.0388
13.0200 4.3234 1.0391
13.0400 4.3300 1.0379
13.0600 4.3367 1.0382
13.0800 4.3434 1.0433
13.1000 4.3501 1.0313
13.1200 4.3568 1.0408
13.1400 4.3634 1.0371
13.1600 4.3701 1.0338
13.1800 4.3768 1.0367
13.2000 4.3834 1.0360
13.2200 4.3900 1.0385
13.2400 4.3966 1.0422
13.2600 4.4033 1.0304
13.2800 4.4100 1.0400
13.3000 4.4167 1.0338
13.3200 4.4234 1.0340
13.3400 4.4301 1.0376
13.3600 4.4368 1.0346
13.3800 4.4434 1.0297
13.4000 4.4500 1.0381
13.4200 4.4566 1.0328
13.4400 4.4634 1.0264
13.4600 4.4701 1.0404
13.4800 4.4768 1.0265
13.5000 4.4835 1.0274
13.5200 4.4902 1.0432
13.5400 4.4968 1.0272
13.5600 4.5034 1.0251
13.5800 4.5100 1.0380
13.6000 4.5167 1.0241
13.6200 4.5234 1.0330
13.6400 4.5301 1.0368
13.6600 4.5368 1.0223
13.6800 4.5434 1.0264
13.7000 4.5501 1.0390
13.7200 4.5568 1.0168
13.7400 4.5634 1.0269
13.7600 4.5700 1.0368
13.7800 4.5766 1.0213
13.8000 4.5833 1.0267
13.8200 4.5900 1.0318
13.8400 4.5967 1.0212
13.8600 4.6034 1.0280
13.8800 4.6101 1.0284
13.9000 4.6168 1.0173
13.9200 4.6234 1.0240
13.9400 4.6300 1.0347
13.9600 4.6366 1.0198
13.9800 4.6433 1.0202
14.0000 4.6500 1.0327
14.0200 4.6568 1.0201
14.0400 4.6634 1.0181
14.0600 4.6701 1.0298
14.0800 4.6768 1.0209
14.1000 4.6834 1.0150
14.1200 4.6900 1.0345
14.1400 4.6966 1.0193
14.1600 4.7033 1.0154
14.1800 4.7100 1.0287
14.2000 4.7167 1.0121
14.2200 4.7234 1.0133
14.2400 4.7301 1.0310
14.2600 4.7368 1.0125
14.2800 4.7435 1.0149
14.3000 4.7501 1.0225
14.3200 4.7567 1.0095
14.3400 4.7634 1.0143
14.3600 4.7701 1.0281
14.3800 4.7768 1.0081
14.4000 4.7835 1.0118
14.4200 4.7902 1.0245
14.4400 4.7969 1.0054
14.4600 4.8035 1.0106
14.4800 4.8100 1.0237
14.5000 4.8167 1.0091
14.5200 4.8233 1.0110
14.5400 4.8300 1.0172
14.5600 4.8367 1.0049
14.5800 4.8434 1.0090
14.6000 4.8501 1.0192
14.6200 4.8567 1.0104
14.6400 4.8634 1.0064
14.6600 4.8700 1.0159
14.6800 4.8766 1.0074
14.7000 4.8833 1.0119
14.7200 4.8900 1.0110
14.7400 4.8967 1.0095
14.7600 4.9034 1.0083
14.7800 4.9101 1.0142
14.8000 4.9168 1.0063
14.8200 4.9234 1.0082
14.8400 4.9301 1.0090
14.8600 4.9367 1.0066
14.8800 4.9434 1.0049
14.9000 4.9501 1.0094
14.9200 4.9567 1.0090
14.9400 4.9634 1.0067
14.9600 4.9701 1.0057
14.9800 4.9768 1.0127
15.0000 4.9834 1.0026
15.0200 4.9900 1.0092
15.0400 4.9966 1.0136
15.0600 5.0034 0.9929
15.0800 5.0101 1.0095
15.1000 5.0168 1.0146
15.1200 5.0235 0.9956
15.1400 5.0302 1.0109
15.1600 5.0368 1.0118
15.1800 5.0435 0.9915
15.2000 5.0501 1.0125
15.2200 5.0567 1.0112
15.2400 5.0634 0.9957
15.2600 5.0701 1.0099
15.2800 5.0768 1.0112
15.3000 5.0834 0.9890
15.3200 5.0901 1.0117
15.3400 5.0968 1.0070
15.3600 5.1034 0.9907
15.3800 5.1100 1.0098
15.4000 5.1166 1.0077
15.4200 5.1233 0.9882
15.4400 5.1300 1.0115
15.4600 5.1367 1.0052
15.4800 5.1434 0.9893
15.5000 5.1501 1.0090
15.5200 5.1567 1.0022
15.5400 5.1634 0.9927
15.5600 5.1700 1.0072
15.5800 5.1766 1.0034
15.6000 5.1833 0.9924
15.6200 5.1901 1.0032
15.6400 5.1968 1.0003
15.6600 5.2035 0.9946
15.6800 5.2101 1.0050
15.7000 5.2168 1.0072
15.7200 5.2235 0.9893
15.7400 5.2301 0.9980
15.7600 5.2367 0.9997
15.7800 5.2434 0.9935
15.8000 5.2501 0.9964
15.8200 5.2567 1.0022
15.8400 5.2635 0.9900
15.8600 5.2702 0.9966
15.8800 5.2769 1.0003
15.9000 5.2835 0.9920
15.9200 5.2901 0.9934
15.9400 5.2967 1.0028
15.9600 5.3033 0.9899
15.9800 5.3100 0.9957
16.0000 5.3167 0.9967
16.0200 5.3234 0.9872
16.0400 5.3301 0.9945
16.0600 5.3368 0.9957
16.0800 5.3434 0.9877
16.1000 5.3500 0.9946
16.1200 5.3566 0.9934
16.1400 5.3633 0.9880
16.1600 5.3701 0.9927
16.1800 5.3768 0.9932
16.2000 5.3834 0.9867
16.2200 5.3901 0.9909
16.2400 5.3968 0.9894
16.2600 5.4034 0.9818
16.2800 5.4101 0.9945
16.3000 5.4167 0.9877
16.3200 5.4234 0.9886
16.3400 5.4301 0.9886
16.3600 5.4368 0.9871
16.3800 5.4434 0.9869
16.4000 5.4501 0.9879
16.4200 5.4568 0.9849
16.4400 5.4635 0.9911
16.4600 5.4701 0.9827
16.4800 5.4767 0.9899
16.5000 5.4833 0.9863
16.5200 5.4900 0.9787
16.5400 5.4967 0.9860
16.5600 5.5034 0.9889
16.5800 5.5101 0.9749
16.6000 5.5167 0.9840
16.6200 5.5234 0.9888
16.6400 5.5300 0.9720
16.6600 5.5367 0.9871
16.6800 5.5434 0.9897
16.7000 5.5501 0.9742
16.7200 5.5568 0.9827
16.7400 5.5634 0.9824
16.7600 5.5701 0.9739
16.7800 5.5768 0.9859
16.8000 5.5834 0.9775
16.8200 5.5901 0.9745
16.8400 5.5967 0.9853
16.8600 5.6033 0.9849
16.8800 5.6100 0.9709
16.9000 5.6167 0.9856
16.9200 5.6234 0.9789
16.9400 5.6301 0.9764
16.9600 5.6368 0.9817
16.9800 5.6435 0.9720
17.0000 5.6501 0.9740
17.0200 5.6567 0.9832
17.0400 5.6633 0.9706
17.0600 5.6701 0.9763
17.0800 5.6768 0.9792
17.1000 5.6835 0.9754
17.1200 5.6901 0.9733
17.1400 5.6968 0.9769
17.1600 5.7034 0.9728
17.1800 5.7101 0.9751
17.2000 5.7167 0.9709
17.2200 5.7233 0.9713
17.2400 5.7301 0.9766
17.2600 5.7368 0.9673
17.2800 5.7435 0.9778
17.3000 5.7501 0.9705
17.3200 5.7568 0.9672
17.3400 5.7635 0.9774
17.3600 5.7701 0.9705
17.3800 5.7767 0.9607
17.4000 5.7833 0.9852
17.4200 5.7900 0.9674
17.4400 5.7967 0.9593
17.4600 5.8034 0.9787
17.4800 5.8101 0.9619
17.5000 5.8168 0.9622
17.5200 5.8235 0.9841
17.5400 5.8301 0.9517
17.5600 5.8366 0.9662
17.5800 5.8433 0.9852
17.6000 5.8500 0.9498
17.6200 5.8567 0.9643
17.6400 5.8634 0.9812
17.6600 5.8701 0.9484
17.6800 5.8767 0.9652
17.7000 5.8834 0.9765
17.7200 5.8901 0.9448
17.7400 5.8967 0.9675
17.7600 5.9033 0.9756
17.7800 5.9100 0.9425
17.8000 5.9168 0.9688
17.8200 5.9234 0.9708
17.8400 5.9301 0.9419
17.8600 5.9368 0.9699
17.8800 5.9435 0.9659
17.9000 5.9501 0.9446
17.9200 5.9567 0.9655
17.9400 5.9634 0.9667
17.9600 5.9700 0.9439
17.9800 5.9768 0.9657
18.0000 5.9835 0.9602
18.0200 5.9902 0.9464
18.0400 5.9968 0.9643
18.0600 6.0035 0.9567
18.0800 6.0101 0.9438
18.1000 6.0167 0.9586
18.1200 6.0233 0.9577
18.1400 6.0300 0.9501
18.1600 6.0367 0.9564
18.1800 6.0434 0.9549
18.2000 6.0501 0.9473
18.2200 6.0567 0.9592
18.2400 6.0634 0.9528
18.2600 6.0701 0.9488
18.2800 6.0767 0.9608
18.3000 6.0833 0.9502
18.3200 6.0900 0.9471
18.3400 6.0967 0.9575
18.3600 6.1034 0.9558
18.3800 6.1101 0.9461
18.4000 6.1167 0.9551
18.4200 6.1234 0.9537
18.4400 6.1301 0.9433
18.4600 6.1367 0.9503
18.4800 6.1433 0.9534
18.5000 6.1500 0.9440
18.5200 6.1567 0.9516
18.5400 6.1634 0.9469
18.5600 6.1701 0.9464
18.5800 6.1768 0.9498
18.6000 6.1835 0.9518
18.6200 6.1901 0.9412
18.6400 6.1967 0.9512
18.6600 6.2033 0.9511
18.6800 6.2100 0.9445
18.7000 6.2168 0.9432
18.7200 6.2235 0.9478
18.7400 6.2301 0.9415
18.7600 6.2368 0.9411
18.7800 6.2435 0.9485
18.8000 6.2501 0.9381
18.8200 6.2567 0.9425
18.8400 6.2633 0.9480
18.8600 6.2700 0.9402
18.8800 6.2767 0.9418
18.9000 6.2834 0.9486
18.9200 6.2901 0.9369
18.9400 6.2968 0.9408
18.9600 6.3034 0.9426
18.9800 6.3101 0.9370
19.0000 6.3167 0.9371
19.0200 6.3233 0.9500
19.0400 6.3299 0.9343
19.0600 6.3367 0.9397
19.0800 6.3434 0.9477
19.1000 6.3501 0.9385
19.1200 6.3568 0.9380
19.1400 6.3635 0.9425
19.1600 6.3701 0.9323
19.1800 6.3767 0.9360
19.2000 6.3833 0.9415
19.2200 6.3900 0.9355
19.2400 6.3968 0.9342
19.2600 6.4035 0.9317
19.2800 6.4101 0.9393
19.3000 6.4168 0.9344
19.3200 6.4235 0.9282
19.3400 6.4301 0.9386
19.3600 6.4367 0.9384
19.3800 6.4433 0.9327
19.4000 6.4500 0.9386
19.4200 6.4567 0.9270
19.4400 6.4634 0.9297
19.4600 6.4701 0.9363
19.4800 6.4768 0.9257
19.5000 6.4835 0.9333
19.5200 6.4901 0.9386
19.5400 6.4967 0.9232
19.5600 6.5033 0.9324
19.5800 6.5100 0.9364
19.6000 6.5167 0.9266
19.6200 6.5234 0.9331
19.6400 6.5301 0.9389
19.6600 6.5368 0.9202
19.6800 6.5435 0.9328
19.7000 6.5501 0.9347
19.7200 6.5567 0.9199
19.7400 6.5633 0.9353
19.7600 6.5699 0.9347
19.7800 6.5767 0.9168
19.8000 6.5834 0.9346
19.8200 6.5901 0.9299
19.8400 6.5967 0.9186
19.8600 6.6034 0.9363
19.8800 6.6101 0.9271
19.9000 6.6167 0.9205
19.9200 6.6233 0.9338
19.9400 6.6300 0.9271
19.9600 6.6367 0.9142
19.9800 6.6434 0.9379
20.0000 6.6501 0.9229
20.0200 6.6568 0.9170
20.0400 6.6635 0.9323
20.0600 6.6701 0.9228
20.0800 6.6767 0.9218
20.1000 6.6833 0.9288
20.1200 6.6900 0.9206
20.1400 6.6967 0.9225
20.1600 6.7035 0.9258
20.1800 6.7101 0.9147
20.2000 6.7168 0.9204
20.2200 6.7235 0.9248
20.2400 6.7301 0.9150
20.2600 6.7367 0.9272
20.2800 6.7433 0.9230
20.3000 6.7500 0.9158
20.3200 6.7567 0.9245
20.3400 6.7634 0.9147
20.3600 6.7701 0.9221
20.3800 6.7767 0.9224
20.4000 6.7834 0.9141
20.4200 6.7901 0.9180
20.4400 6.7967 0.9139
20.4600 6.8033 0.9151
20.4800 6.8100 0.9186
20.5000 6.8167 0.9118
20.5200 6.8234 0.9142
20.5400 6.8301 0.9187
20.5600 6.8368 0.9097
20.5800 6.8434 0.9120
20.6000 6.8501 0.9219
20.6200 6.8567 0.9047
20.6400 6.8634 0.9153
20.6600 6.8700 0.9189
20.6800 6.8767 0.9088
20.7000 6.8835 0.9076
20.7200 6.8901 0.9163
20.7400 6.8968 0.9091
20.7600 6.9035 0.9085
20.7800 6.9101 0.9110
20.8000 6.9167 0.9078
20.8200 6.9233 0.9088
20.8400 6.9300 0.9140
20.8600 6.9367 0.9081
20.8800 6.9434 0.9113
20.9000 6.9501 0.9126
20.9200 6.9568 0.9023
20.9400 6.9635 0.9070
20.9600 6.9701 0.9131
20.9800 6.9768 0.9059
21.0000 6.9834 0.8998
21.0200 6.9900 0.9143
21.0400 6.9967 0.9053
21.0600 7.0034 0.8980
21.0800 7.0101 0.9098
21.1000 7.0168 0.9083
21.1200 7.0235 0.9011
21.1400 7.0301 0.9128
21.1600 7.0367 0.8974
21.1800 7.0433 0.9034
21.2000 7.0499 0.9128
21.2200 7.0566 0.9007
21.2400 7.0634 0.9014
21.2600 7.0701 0.9128
21.2800 7.0767 0.8997
21.3000 7.0834 0.8959
21.3200 7.0900 0.9092
21.3400 7.0967 0.8989
21.3600 7.1033 0.8980
21.3800 7.1100 0.9116
21.4000 7.1167 0.8977
21.4200 7.1234 0.8952
21.4400 7.1301 0.9084
21.4600 7.1368 0.9012
21.4800 7.1435 0.8953
21.5000 7.1501 0.9010
21.5200 7.1568 0.8992
21.5400 7.1634 0.8957
21.5600 7.1700 0.9029
21.5800 7.1767 0.8966
21.6000 7.1834 0.8989
21.6200 7.1901 0.9011
21.6400 7.1968 0.8980
21.6600 7.2035 0.8911
21.6800 7.2102 0.8969
21.7000 7.2168 0.8956
21.7200 7.2233 0.8935
21.7400 7.2300 0.8962
21.7600 7.2367 0.8984
21.7800 7.2434 0.8877
21.8000 7.2501 0.8975
21.8200 7.2568 0.8981
21.8400 7.2634 0.8865
21.8600 7.2701 0.8949
21.8800 7.2767 0.8976
21.9000 7.2833 0.8822
21.9200 7.2900 0.8957
21.9400 7.2967 0.8979
21.9600 7.3034 0.8781
21.9800 7.3101 0.8937
22.0000 7.3167 0.8958
22.0200 7.3234 0.8751
22.0400 7.3301 0.8941
22.0600 7.3367 0.8922
22.0800 7.3433 0.8767
22.1000 7.3500 0.8998
22.1200 7.3567 0.8892
22.1400 7.3634 0.8790
22.1600 7.3701 0.8981
22.1800 7.3768 0.8883
22.2000 7.3835 0.8687
22.2200 7.3902 0.8986
22.2400 7.3968 0.8888
22.2600 7.4034 0.8717
22.2800 7.4100 0.8977
22.3000 7.4167 0.8882
22.3200 7.4234 0.8670
22.3400 7.4301 0.8946
22.3600 7.4368 0.8879
22.3800 7.4435 0.8723
22.4000 7.4501 0.8953
22.4200 7.4567 0.8824
22.4400 7.4633 0.8703
22.4600 7.4700 0.8949
22.4800 7.4767 0.8791
22.5000 7.4834 0.8732
22.5200 7.4901 0.8876
22.5400 7.4967 0.8759
22.5600 7.5034 0.8749
22.5800 7.5101 0.8833
22.6000 7.5167 0.8757
22.6200 7.5233 0.8770
22.6400 7.5299 0.8869
22.6600 7.5366 0.8762
22.6800 7.5434 0.8761
22.7000 7.5501 0.8795
22.7200 7.5568 0.8757
22.7400 7.5635 0.8753
22.7600 7.5701 0.8786
22.7800 7.5767 0.8736
22.8000 7.5834 0.8753
22.8200 7.5900 0.8708
22.8400 7.5967 0.8820
22.8600 7.6034 0.8711
22.8800 7.6101 0.8613
22.9000 7.6168 0.8796
22.9200 7.6235 0.8703
22.9400 7.6302 0.8667
22.9600 7.6368 0.8821
22.9800 7.6434 0.8669
23.0000 7.6500 0.8646
23.0200 7.6567 0.8815
23.0400 7.6634 0.8659
23.0600 7.6701 0.8658
23.0800 7.6768 0.8750
23.1000 7.6835 0.8644
23.1200 7.6902 0.8636
23.1400 7.6968 0.8739
23.1600 7.7034 0.8607
23.1800 7.7100 0.8677
23.2000 7.7167 0.8716
23.2200 7.7234 0.8556
23.2400 7.7301 0.8614
23.2600 7.7368 0.8746
23.2800 7.7435 0.8607
23.3000 7.7501 0.8589
23.3200 7.7567 0.8668
23.3400 7.7633 0.8621
23.3600 7.7699 0.8560
23.3800 7.7766 0.8684
23.4000 7.7834 0.8608
23.4200 7.7900 0.8590
23.4400 7.7967 0.8672
23.4600 7.8034 0.8599
23.4800 7.8101 0.8532
23.5000 7.8167 0.8681
23.5200 7.8234 0.8601
23.5400 7.8300 0.8514
23.5600 7.8367 0.8685
23.5800 7.8434 0.8579
23.6000 7.8501 0.8494
23.6200 7.8568 0.8658
23.6400 7.8635 0.8530
23.6600 7.8702 0.8499
23.6800 7.8768 0.8642
23.7000 7.8834 0.8521
23.7200 7.8900 0.8579
23.7400 7.8967 0.8625
23.7600 7.9034 0.8473
23.7800 7.9101 0.8493
23.8000 7.9168 0.8629
23.8200 7.9235 0.8494
23.8400 7.9302 0.8496
23.8600 7.9368 0.8588
23.8800 7.9434 0.8520
23.9000 7.9500 0.8516
23.9200 7.9567 0.8563
23.9400 7.9634 0.8491
23.9600 7.9701 0.8521
23.9800 7.9768 0.8503
24.0000 7.9834 0.8513
24.0200 7.9901 0.8517
24.0400 7.9968 0.8475
24.0600 8.0034 0.8470
24.0800 8.0100 0.8505
24.1000 8.0167 0.8479
24.1200 8.0234 0.8452
24.1400 8.0300 0.8517
24.1600 8.0367 0.8453
24.1800 8.0434 0.8505
24.2000 8.0501 0.8467
24.2200 8.0567 0.8412
24.2400 8.0633 0.8482
24.2600 8.0700 0.8464
24.2800 8.0767 0.8412
24.3000 8.0834 0.8478
24.3200 8.0901 0.8407
24.3400 8.0968 0.8431
24.3600 8.1035 0.8494
24.3800 8.1102 0.8419
24.4000 8.1168 0.8323
24.4200 8.1234 0.8502
24.4400 8.1300 0.8383
24.4600 8.1367 0.8368
24.4800 8.1434 0.8473
24.5000 8.1501 0.8317
24.5200 8.1568 0.8339
24.5400 8.1635 0.8456
24.5600 8.1701 0.8339
24.5800 8.1768 0.8359
24.6000 8.1834 0.8437
24.6200 8.1900 0.8287
24.6400 8.1966 0.8368
24.6600 8.2033 0.8442
24.6800 8.2101 0.8311
24.7000 8.2167 0.8326
24.7200 8.2234 0.8419
24.7400 8.2301 0.8281
24.7600 8.2368 0.8341
24.7800 8.2434 0.8351
24.8000 8.2500 0.8338
24.8200 8.2566 0.8333
24.8400 8.2634 0.8400
24.8600 8.2701 0.8237
24.8800 8.2768 0.8314
24.9000 8.2834 0.8380
24.9200 8.2901 0.8277
24.9400 8.2968 0.8291
24.9600 8.3034 0.8339
24.9800 8.3100 0.8218
25.0000 8.3167 0.8318
25.0200 8.3234 0.8353
25.0400 8.3301 0.8240
25.0600 8.3368 0.8253
25.0800 8.3435 0.8330
25.1000 8.3501 0.8195
25.1200 8.3568 0.8280
25.1400 8.3634 0.8333
25.1600 8.3700 0.8225
25.1800 8.3767 0.8269
25.2000 8.3834 0.8248
25.2200 8.3901 0.8224
25.2400 8.3968 0.8251
25.2600 8.4035 0.8278
25.2800 8.4102 0.8179
25.3000 8.4168 0.8243
25.3200 8.4234 0.8268
25.3400 8.4300 0.8233
25.3600 8.4367 0.8218
25.3800 8.4434 0.8321
25.4000 8.4501 0.8214
25.4200 8.4568 0.8192
25.4400 8.4635 0.8301
25.4600 8.4701 0.8242
25.4800 8.4768 0.8145
25.5000 8.4834 0.8233
25.5200 8.4900 0.8201
25.5400 8.4966 0.8167
25.5600 8.5033 0.8262
25.5800 8.5100 0.8204
25.6000 8.5167 0.8109
25.6200 8.5234 0.8256
25.6400 8.5301 0.8198
25.6600 8.5367 0.8098
25.6800 8.5434 0.8280
25.7000 8.5500 0.8194
25.7200 8.5566 0.8083
25.7400 8.5634 0.8272
25.7600 8.5701 0.8148
25.7800 8.5768 0.8081
25.8000 8.5835 0.8307
25.8200 8.5902 0.8068
25.8400 8.5968 0.8058
25.8600 8.6034 0.8265
25.8800 8.6100 0.8102
25.9000 8.6167 0.8083
25.9200 8.6234 0.8255
25.9400 8.6301 0.8070
25.9600 8.6368 0.8122
25.9800 8.6435 0.8224
26.0000 8.6501 0.8064
26.0200 8.6568 0.8004
26.0400 8.6634 0.8195
26.0600 8.6700 0.8059
26.0800 8.6767 0.8078
26.1000 8.6834 0.8188
26.1200 8.6901 0.8039
26.1400 8.6967 0.8040
26.1600 8.7034 0.8145
26.1800 8.7101 0.8089
26.2000 8.7168 0.8033
26.2200 8.7234 0.8076
26.2400 8.7300 0.8060
26.2600 8.7366 0.8029
26.2800 8.7433 0.8143
26.3000 8.7500 0.8073
26.3200 8.7567 0.7958
26.3400 8.7634 0.8091
26.3600 8.7701 0.8065
26.3800 8.7767 0.7980
26.4000 8.7834 0.8120
26.4200 8.7900 0.8090
26.4400 8.7967 0.7919
26.4600 8.8034 0.8056
26.4800 8.8101 0.8045
26.5000 8.8168 0.7969
26.5200 8.8235 0.8071
26.5400 8.8301 0.8064
26.5600 8.8368 0.7908
26.5800 8.8434 0.8102
26.6000 8.8501 0.8030
26.6200 8.8567 0.7943
26.6400 8.8634 0.8094
26.6600 8.8701 0.7985
26.6800 8.8768 0.7944
26.7000 8.8835 0.8118
26.7200 8.8901 0.7996
26.7400 8.8968 0.7949
26.7600 8.9034 0.8018
26.7800 8.9100 0.7978
26.8000 8.9166 0.8011
26.8200 8.9233 0.8023
26.8400 8.9301 0.7958
26.8600 8.9368 0.7936
26.8800 8.9434 0.7994
26.9000 8.9501 0.7980
26.9200 8.9568 0.7969
26.9400 8.9634 0.7956
26.9600 8.9700 0.8043
26.9800 8.9766 0.7939
27.0000 8.9833 0.7978
27.0200 8.9901 0.7997
27.0400 8.9967 0.7953
27.0600 9.0034 0.7936
27.0800 9.0101 0.8014
27.1000 9.0168 0.7918
27.1200 9.0234 0.7973
27.1400 9.0300 0.7996
27.1600 9.0367 0.7892
27.1800 9.0433 0.7949
27.2000 9.0500 0.7986
27.2200 9.0568 0.7893
27.2400 9.0635 0.7932
27.2600 9.0702 0.7970
27.2800 9.0768 0.7893
27.3000 9.0834 0.7926
27.3200 9.0900 0.7947
27.3400 9.0967 0.7901
27.3600 9.1034 0.7913
27.3800 9.1101 0.7920
27.4000 9.1168 0.7838
27.4200 9.1235 0.7961
27.4400 9.1301 0.7904
27.4600 9.1368 0.7868
27.4800 9.1434 0.7870
27.5000 9.1500 0.7898
27.5200 9.1567 0.7886
27.5400 9.1634 0.7899
27.5600 9.1701 0.7843
27.5800 9.1768 0.7840
27.6000 9.1834 0.7866
27.6200 9.1901 0.7859
27.6400 9.1968 0.7819
27.6600 9.2034 0.7832
27.6800 9.2100 0.7835
27.7000 9.2166 0.7855
27.7200 9.2233 0.7830
27.7400 9.2300 0.7865
27.7600 9.2367 0.7822
27.7800 9.2434 0.7836
27.8000 9.2501 0.7838
27.8200 9.2568 0.7822
27.8400 9.2634 0.7802
27.8600 9.2700 0.7790
27.8800 9.2767 0.7832
27.9000 9.2833 0.7726
27.9200 9.2901 0.7794
27.9400 9.2968 0.7799
27.9600 9.3035 0.7719
27.9800 9.3102 0.7781
28.0000 9.3168 0.7815
28.0200 9.3234 0.7753
28.0400 9.3300 0.7786
28.0600 9.3367 0.7839
28.0800 9.3434 0.7751
28.1000 9.3501 0.7702
28.1200 9.3568 0.7807
28.1400 9.3634 0.7748
28.1600 9.3701 0.7746
28.1800 9.3768 0.7744
28.2000 9.3834 0.7719
28.2200 9.3900 0.7725
28.2400 9.3966 0.7767
28.2600 9.4033 0.7709
28.2800 9.4100 0.7728
28.3000 9.4167 0.7753
28.3200 9.4234 0.7676
28.3400 9.4301 0.7713
28.3600 9.4368 0.7749
28.3800 9.4434 0.7657
28.4000 9.4500 0.7742
28.4200 9.4566 0.7737
28.4400 9.4633 0.7640
28.4600 9.4700 0.7710
28.4800 9.4767 0.7740
28.5000 9.4834 0.7683
28.5200 9.4901 0.7678
28.5400 9.4968 0.7761
28.5600 9.5034 0.7614
28.5800 9.5100 0.7699
28.6000 9.5167 0.7714
28.6200 9.5234 0.7657
28.6400 9.5301 0.7693
28.6600 9.5368 0.7661
28.6800 9.5435 0.7636
28.7000 9.5501 0.7708
28.7200 9.5568 0.7663
28.7400 9.5635 0.7598
28.7600 9.5701 0.7687
28.7800 9.5767 0.7671
28.8000 9.5834 0.7595
28.8200 9.5901 0.7681
28.8400 9.5968 0.7657
28.8600 9.6035 0.7626
28.8800 9.6102 0.7706
28.9000 9.6168 0.7601
28.9200 9.6235 0.7619
28.9400 9.6301 0.7635
28.9600 9.6367 0.7626
28.9800 9.6433 0.7611
29.0000 9.6500 0.7635
29.0200 9.6567 0.7601
29.0400 9.6634 0.7583
29.0600 9.6701 0.7577
29.0800 9.6767 0.7649
29.1000 9.6834 0.7572
29.1200 9.6900 0.7561
29.1400 9.6966 0.7668
29.1600 9.7033 0.7617
29.1800 9.7100 0.7508
29.2000 9.7167 0.7655
29.2200 9.7234 0.7564
29.2400 9.7301 0.7557
29.2600 9.7368 0.7607
29.2800 9.7434 0.7517
29.3000 9.7501 0.7567
29.3200 9.7567 0.7632
29.3400 9.7634 0.7481
29.3600 9.7701 0.7579
29.3800 9.7768 0.7635
29.4000 9.7835 0.7432
29.4200 9.7901 0.7563
29.4400 9.7968 0.7623
29.4600 9.8035 0.7407
29.4800 9.8100 0.7562
29.5000 9.8167 0.7615
29.5200 9.8233 0.7395
29.5400 9.8301 0.7594
29.5600 9.8368 0.7561
29.5800 9.8435 0.7394
29.6000 9.8501 0.7535
29.6200 9.8568 0.7531
29.6400 9.8634 0.7431
29.6600 9.8701 0.7567
29.6800 9.8767 0.7492
29.7000 9.8833 0.7433
29.7200 9.8900 0.7510
29.7400 9.8967 0.7473
29.7600 9.9034 0.7410
29.7800 9.9101 0.7540
29.8000 9.9168 0.7421
29.8200 9.9234 0.7374
29.8400 9.9300 0.7484
29.8600 9.9366 0.7464
29.8800 9.9433 0.7413
29.9000 9.9500 0.7508
29.9200 9.9567 0.7431
29.9400 9.9634 0.7343
29.9600 9.9701 0.7485
29.9800 9.9767 0.7449
30.0000 9.9834 0.7349
30.0200 9.9900 0.7435
30.0400 9.9966 0.7450
30.0600 10.0033 0.7337
30.0800 10.0101 0.7374
30.1000 10.0168 0.7437
30.1200 10.0235 0.7383
30.1400 10.0301 0.7373
30.1600 10.0368 0.7447
30.1800 10.0435 0.7330
30.2000 10.0501 0.7399
30.2200 10.0567 0.7433
30.2400 10.0634 0.7300
30.2600 10.0701 0.7371
30.2800 10.0768 0.7421
30.3000 10.0835 0.7262
30.3200 10.0901 0.7359
30.3400 10.0968 0.7394
30.3600 10.1035 0.7309
30.3800 10.1101 0.7302
30.4000 10.1167 0.7388
30.4200 10.1233 0.7308
30.4400 10.1300 0.7331
30.4600 10.1367 0.7378
30.4800 10.1434 0.7271
30.5000 10.1501 0.7352
30.5200 10.1568 0.7305
30.5400 10.1634 0.7260
30.5600 10.1700 0.7325
30.5800 10.1766 0.7330
30.6000 10.1833 0.7249
30.6200 10.1900 0.7329
30.6400 10.1967 0.7308
30.6600 10.2034 0.7246
30.6800 10.2101 0.7318
30.7000 10.2168 0.7346
30.7200 10.2235 0.7212
30.7400 10.2301 0.7306
30.7600 10.2367 0.7332
30.7800 10.2434 0.7232
30.8000 10.2501 0.7207
30.8200 10.2567 0.7340
30.8400 10.2634 0.7236
30.8600 10.2701 0.7220
30.8800 10.2768 0.7290
30.9000 10.2835 0.7218
30.9200 10.2901 0.7216
30.9400 10.2967 0.7275
30.9600 10.3033 0.7265
30.9800 10.3100 0.7198
31.0000 10.3168 0.7165
31.0200 10.3235 0.7251
31.0400 10.3301 0.7217
31.0600 10.3368 0.7218
31.0800 10.3434 0.7194
31.1000 10.3500 0.7174
31.1200 10.3566 0.7201
31.1400 10.3633 0.7220
31.1600 10.3700 0.7225
31.1800 10.3767 0.7175
31.2000 10.3834 0.7194
31.2200 10.3901 0.7173
31.2400 10.3967 0.7163
31.2600 10.4034 0.7176
31.2800 10.4101 0.7149
31.3000 10.4167 0.7180
31.3200 10.4233 0.7210
31.3400 10.4300 0.7063
31.3600 10.4367 0.7173
31.3800 10.4434 0.7205
31.4000 10.4501 0.7109
31.4200 10.4568 0.7102
31.4400 10.4635 0.7172
31.4600 10.4701 0.7105
31.4800 10.4767 0.7107
31.5000 10.4833 0.7176
31.5200 10.4900 0.7090
31.5400 10.4968 0.7120
31.5600 10.5035 0.7128
31.5800 10.5101 0.7059
31.6000 10.5168 0.7074
31.6200 10.5235 0.7149
31.6400 10.5301 0.7026
31.6600 10.5367 0.7057
31.6800 10.5433 0.7131
31.7000 10.5500 0.7029
31.7200 10.5568 0.7037
31.7400 10.5635 0.7176
31.7600 10.5702 0.7017
31.7800 10.5768 0.7071
31.8000 10.5835 0.7079
31.8200 10.5901 0.6990
31.8400 10.5967 0.7062
31.8600 10.6033 0.7137
31.8800 10.6100 0.6951
31.9000 10.6167 0.7061
31.9200 10.6234 0.7097
31.9400 10.6301 0.6932
31.9600 10.6368 0.7045
31.9800 10.6434 0.7048
32.0000 10.6501 0.6919
32.0200 10.6566 0.7075
32.0400 10.6632 0.7044
32.0600 10.6699 0.6895
32.0800 10.6767 0.7082
32.1000 10.6834 0.7046
32.1200 10.6901 0.6895
32.1400 10.6968 0.7061
32.1600 10.7035 0.6997
32.1800 10.7101 0.6895
32.2000 10.7167 0.7049
32.2200 10.7233 0.7002
32.2400 10.7300 0.6985
32.2600 10.7368 0.6994
32.2800 10.7435 0.6976
32.3000 10.7501 0.6959
32.3200 10.7568 0.6989
32.3400 10.7635 0.6969
32.3600 10.7701 0.6957
32.3800 10.7767 0.6882
32.4000 10.7833 0.7010
32.4200 10.7900 0.6964
32.4400 10.7967 0.6850
32.4600 10.8034 0.6961
32.4800 10.8101 0.6969
32.5000 10.8168 0.6842
32.5200 10.8234 0.6982
32.5400 10.8301 0.6956
32.5600 10.8367 0.6843
32.5800 10.8433 0.7035
32.6000 10.8500 0.6925
32.6200 10.8567 0.6777
32.6400 10.8634 0.7059
32.6600 10.8701 0.6900
32.6800 10.8768 0.6746
32.7000 10.8834 0.7026
32.7200 10.8901 0.6883
32.7400 10.8967 0.6787
32.7600 10.9033 0.7007
32.7800 10.9100 0.6840
32.8000 10.9167 0.6769
32.8200 10.9234 0.6993
32.8400 10.9301 0.6807
32.8600 10.9367 0.6784
32.8800 10.9434 0.6967
32.9000 10.9501 0.6779
32.9200 10.9567 0.6796
32.9400 10.9633 0.6984
32.9600 10.9700 0.6749
32.9800 10.9767 0.6802
33.0000 10.9834 0.6911
33.0200 10.9901 0.6754
33.0400 10.9968 0.6806
33.0600 11.0035 0.6901
33.0800 11.0101 0.6709
33.1000 11.0167 0.6823
33.1200 11.0233 0.6896
33.1400 11.0300 0.6717
33.1600 11.0368 0.6828
33.1800 11.0435 0.6864
33.2000 11.0501 0.6728
33.2200 11.0568 0.6806
33.2400 11.0635 0.6856
33.2600 11.0701 0.6765
33.2800 11.0767 0.6740
33.3000 11.0833 0.6798
33.3200 11.0900 0.6768
33.3400 11.0967 0.6717
33.3600 11.1034 0.6835
33.3800 11.1101 0.6739
33.4000 11.1168 0.6728
33.4200 11.1234 0.6777
33.4400 11.1301 0.6745
33.4600 11.1367 0.6725
33.4800 11.1433 0.6813
33.5000 11.1500 0.6736
33.5200 11.1567 0.6698
33.5400 11.1634 0.6742
33.5600 11.1701 0.6773
33.5800 11.1768 0.6665
33.6000 11.1834 0.6742
33.6200 11.1901 0.6723
33.6400 11.1967 0.6618
33.6600 11.2033 0.6752
33.6800 11.2100 0.6708
33.7000 11.2167 0.6601
33.7200 11.2235 0.6750
33.7400 11.2302 0.6672
33.7600 11.2368 0.6603
33.7800 11.2435 0.6703
33.8000 11.2501 0.6662
33.8200 11.2567 0.6583
33.8400 11.2633 0.6712
33.8600 11.2700 0.6702
33.8800 11.2767 0.6566
33.9000 11.2834 0.6696
33.9200 11.2901 0.6653
33.9400 11.2968 0.6582
33.9600 11.3035 0.6650
33.9800 11.3101 0.6629
34.0000 11.3167 0.6567
34.0200 11.3233 0.6676
34.0400 11.3300 0.6628
34.0600 11.3367 0.6549
34.0800 11.3434 0.6590
34.1000 11.3501 0.6648
34.1200 11.3568 0.6573
34.1400 11.3635 0.6579
34.1600 11.3701 0.6603
34.1800 11.3767 0.6548
34.2000 11.3833 0.6581
34.2200 11.3899 0.6610
34.2400 11.3967 0.6528
34.2600 11.4034 0.6607
34.2800 11.4101 0.6513
34.3000 11.4167 0.6487
34.3200 11.4234 0.6644
34.3400 11.4301 0.6476
34.3600 11.4367 0.6507
34.3800 11.4433 0.6603
34.4000 11.4500 0.6491
34.4200 11.4567 0.6473
34.4400 11.4634 0.6587
34.4600 11.4701 0.6496
34.4800 11.4768 0.6493
34.5000 11.4835 0.6576
34.5200 11.4902 0.6485
34.5400 11.4968 0.6477
34.5600 11.5034 0.6516
34.5800 11.5100 0.6485
34.6000 11.5167 0.6511
34.6200 11.5235 0.6443
34.6400 11.5301 0.6483
34.6600 11.5368 0.6469
34.6800 11.5435 0.6442
34.7000 11.5501 0.6467
34.7200 11.5567 0.6485
34.7400 11.5633 0.6432
34.7600 11.5700 0.6446
34.7800 11.5767 0.6506
34.8000 11.5834 0.6407
34.8200 11.5901 0.6466
34.8400 11.5967 0.6484
34.8600 11.6034 0.6390
34.8800 11.6101 0.6484
34.9000 11.6167 0.6450
34.9200 11.6233 0.6392
34.9400 11.6300 0.6526
34.9600 11.6367 0.6387
34.9800 11.6434 0.6372
35.0000 11.6501 0.6536
35.0200 11.6568 0.6425
35.0400 11.6635 0.6321
35.0600 11.6701 0.6520
35.0800 11.6768 0.6367
35.1000 11.6834 0.6379
35.1200 11.6900 0.6523
35.1400 11.6967 0.6381
35.1600 11.7034 0.6344
35.1800 11.7101 0.6471
35.2000 11.7168 0.6379
35.2200 11.7235 0.6339
35.2400 11.7301 0.6397
35.2600 11.7367 0.6384
35.2800 11.7433 0.6401
35.3000 11.7500 0.6381
35.3200 11.7567 0.6392
35.3400 11.7634 0.6400
35.3600 11.7701 0.6332
35.3800 11.7768 0.6367
35.4000 11.7835 0.6379
35.4200 11.7902 0.6354
35.4400 11.7968 0.6399
35.4600 11.8034 0.6280
35.4800 11.8100 0.6386
35.5000 11.8167 0.6367
35.5200 11.8234 0.6302
35.5400 11.8301 0.6359
35.5600 11.8368 0.6407
35.5800 11.8435 0.6269
35.6000 11.8502 0.6352
35.6200 11.8568 0.6404
35.6400 11.8633 0.6267
35.6600 11.8699 0.6364
35.6800 11.8766 0.6362
35.7000 11.8834 0.6212
35.7200 11.8901 0.6383
35.7400 11.8967 0.6329
35.7600 11.9034 0.6214
35.7800 11.9101 0.6314
35.8000 11.9167 0.6337
35.8200 11.9233 0.6242
35.8400 11.9300 0.6344
35.8600 11.9367 0.6325
35.8800 11.9434 0.6170
35.9000 11.9501 0.6312
35.9200 11.9568 0.6318
35.9400 11.9635 0.6225
35.9600 11.9701 0.6288
35.9800 11.9768 0.6264
36.0000 11.9834 0.6208
36.0200 11.9900 0.6352
36.0400 11.9967 0.6253
36.0600 12.0034 0.6175
36.0800 12.0101 0.6327
36.1000 12.0167 0.6262
36.1200 12.0234 0.6134
36.1400 12.0301 0.6335
36.1600 12.0368 0.6225
36.1800 12.0434 0.6165
36.2000 12.0500 0.6347
36.2200 12.0567 0.6238
36.2400 12.0634 0.6139
36.2600 12.0701 0.6240
36.2800 12.0768 0.6260
36.3000 12.0835 0.6123
36.3200 12.0901 0.6230
36.3400 12.0967 0.6167
36.3600 12.1033 0.6136
36.3800 12.1100 0.6272
36.4000 12.1167 0.6132
36.4200 12.1234 0.6128
36.4400 12.1300 0.6252
36.4600 12.1367 0.6152
36.4800 12.1434 0.6154
36.5000 12.1501 0.6189
36.5200 12.1567 0.6203
36.5400 12.1634 0.6111
36.5600 12.1700 0.6164
36.5800 12.1767 0.6176
36.6000 12.1834 0.6141
36.6200 12.1901 0.6113
36.6400 12.1968 0.6151
36.6600 12.2035 0.6093
36.6800 12.2102 0.6166
36.7000 12.2168 0.6142
36.7200 12.2234 0.6059
36.7400 12.2300 0.6126
36.7600 12.2367 0.6176
36.7800 12.2435 0.6021
36.8000 12.2502 0.6103
36.8200 12.2568 0.6129
36.8400 12.2635 0.6001
36.8600 12.2701 0.6075
36.8800 12.2767 0.6043
36.9000 12.2833 0.6016
36.9200 12.2899 0.6155
36.9400 12.2966 0.6061
36.9600 12.3034 0.5980
36.9800 12.3101 0.6133
37.0000 12.3168 0.6066
37.0200 12.3235 0.5984
37.0400 12.3301 0.6064
37.0600 12.3368 0.6061
37.0800 12.3434 0.5956
37.1000 12.3500 0.6051
37.1200 12.3566 0.6005
37.1400 12.3634 0.6050
37.1600 12.3701 0.6001
37.1800 12.3768 0.6031
37.2000 12.3835 0.6007
37.2200 12.3901 0.5978
37.2400 12.3968 0.5991
37.2600 12.4034 0.6042
37.2800 12.4100 0.5966
37.3000 12.4167 0.6002
37.3200 12.4234 0.5997
37.3400 12.4301 0.5926
37.3600 12.4368 0.5995
37.3800 12.4435 0.6013
37.4000 12.4501 0.5881
37.4200 12.4568 0.5970
37.4400 12.4634 0.5972
37.4600 12.4700 0.5905
37.4800 12.4767 0.6000
37.5000 12.4834 0.5901
37.5200 12.4901 0.5864
37.5400 12.4968 0.6018
37.5600 12.5035 0.5946
37.5800 12.5102 0.5806
37.6000 12.5168 0.6036
37.6200 12.5234 0.5904
37.6400 12.5300 0.5849
37.6600 12.5366 0.5991
37.6800 12.5433 0.5867
37.7000 12.5500 0.5843
37.7200 12.5567 0.5987
37.7400 12.5634 0.5863
37.7600 12.5701 0.5837
37.7800 12.5768 0.5941
37.8000 12.5834 0.5847
37.8200 12.5900 0.5862
37.8400 12.5966 0.5956
37.8600 12.6033 0.5792
37.8800 12.6100 0.5829
37.9000 12.6167 0.5897
37.9200 12.6234 0.5802
37.9400 12.6301 0.5867
37.9600 12.6367 0.5880
37.9800 12.6434 0.5820
38.0000 12.6500 0.5811
38.0200 12.6567 0.5845
38.0400 12.6634 0.5780
38.0600 12.6701 0.5807
38.0800 12.6768 0.5853
38.1000 12.6835 0.5784
38.1200 12.6902 0.5767
38.1400 12.6968 0.5864
38.1600 12.7034 0.5767
38.1800 12.7100 0.5786
38.2000 12.7167 0.5814
38.2200 12.7234 0.5770
38.2400 12.7301 0.5741
38.2600 12.7368 0.5832
38.2800 12.7435 0.5737
38.3000 12.7502 0.5730
38.3200 12.7568 0.5773
38.3400 12.7634 0.5743
38.3600 12.7700 0.5760
38.3800 12.7767 0.5749
38.4000 12.7834 0.5681
38.4200 12.7901 0.5748
38.4400 12.7968 0.5746
38.4600 12.8034 0.5701
38.4800 12.8101 0.5750
38.5000 12.8167 0.5717
38.5200 12.8233 0.5698
38.5400 12.8299 0.5715
38.5600 12.8366 0.5731
38.5800 12.8434 0.5712
38.6000 12.8501 0.5671
38.6200 12.8568 0.5657
38.6400 12.8634 0.5705
38.6600 12.8701 0.5710
38.6800 12.8768 0.5696
38.7000 12.8834 0.5662
38.7200 12.8900 0.5701
38.7400 12.8967 0.5654
38.7600 12.9034 0.5642
38.7800 12.9101 0.5684
38.8000 12.9168 0.5673
38.8200 12.9235 0.5636
38.8400 12.9301 0.5627
38.8600 12.9368 0.5636
38.8800 12.9434 0.5658
38.9000 12.9500 0.5660
38.9200 12.9567 0.5644
38.9400 12.9634 0.5597
38.9600 12.9701 0.5635
38.9800 12.9768 0.5601
39.0000 12.9835 0.5611
39.0200 12.9901 0.5611
39.0400 12.9968 0.5588
39.0600 13.0034 0.5596
39.0800 13.0100 0.5612
39.1000 13.0167 0.5556
39.1200 13.0233 0.5618
39.1400 13.0300 0.5610
39.1600 13.0367 0.5423
39.1800 13.0434 0.5662
39.2000 13.0501 0.5553
39.2200 13.0568 0.5445
39.2400 13.0634 0.5612
39.2600 13.0700 0.5577
39.2800 13.0766 0.5448
39.3000 13.0833 0.5612
39.3200 13.0900 0.5501
39.3400 13.0967 0.5467
39.3600 13.1034 0.5654
39.3800 13.1101 0.5451
39.4000 13.1168 0.5380
39.4200 13.1235 0.5640
39.4400 13.1301 0.5470
39.4600 13.1367 0.5458
39.4800 13.1434 0.5621
39.5000 13.1501 0.5414
39.5200 13.1568 0.5450
39.5400 13.1634 0.5594
39.5600 13.1701 0.5407
39.5800 13.1768 0.5464
39.6000 13.1834 0.5563
39.6200 13.1900 0.5418
39.6400 13.1967 0.5445
39.6600 13.2034 0.5561
39.6800 13.2101 0.5416
39.7000 13.2168 0.5412
39.7200 13.2235 0.5519
39.7400 13.2301 0.5358
39.7600 13.2368 0.5442
39.7800 13.2434 0.5468
39.8000 13.2500 0.5422
39.8200 13.2567 0.5402
39.8400 13.2634 0.5491
39.8600 13.2701 0.5404
39.8800 13.2768 0.5405
39.9000 13.2835 0.5438
39.9200 13.2902 0.5399
39.9400 13.2968 0.5365
39.9600 13.3034 0.5428
39.9800 13.3100 0.5400
40.0000 13.3166 0.5362
40.0200 13.3233 0.5423
40.0400 13.3300 0.5402
40.0600 13.3367 0.5310
40.0800 13.3434 0.5453
40.1000 13.3500 0.5391
40.1200 13.3567 0.5294
40.1400 13.3633 0.5438
40.1600 13.3699 0.5341
40.1800 13.3767 0.5318
40.2000 13.3834 0.5431
40.2200 13.3902 0.5340
40.2400 13.3969 0.5278
40.2600 13.4035 0.5426
40.2800 13.4102 0.5297
40.3000 13.4169 0.5276
40.3200 13.4235 0.5399
40.3400 13.4300 0.5294
40.3600 13.4367 0.5258
40.3800 13.4434 0.5408
40.4000 13.4501 0.5301
40.4200 13.4568 0.5287
40.4400 13.4635 0.5369
40.4600 13.4701 0.5315
40.4800 13.4768 0.5285
40.5000 13.4834 0.5391
40.5200 13.4900 0.5238
40.5400 13.4966 0.5307
40.5600 13.5033 0.5366
40.5800 13.5100 0.5229
40.6000 13.5167 0.5266
40.6200 13.5234 0.5327
40.6400 13.5301 0.5267
40.6600 13.5368 0.5235
40.6800 13.5434 0.5331
40.7000 13.5500 0.5279
40.7200 13.5566 0.5270
40.7400 13.5633 0.5232
40.7600 13.5700 0.5249
40.7800 13.5767 0.5251
40.8000 13.5834 0.5265
40.8200 13.5901 0.5235
40.8400 13.5968 0.5229
40.8600 13.6034 0.5221
40.8800 13.6100 0.5254
40.9000 13.6166 0.5238
40.9200 13.6233 0.5225
40.9400 13.6300 0.5221
40.9600 13.6368 0.5218
40.9800 13.6434 0.5181
41.0000 13.6501 0.5210
41.0200 13.6568 0.5217
41.0400 13.6635 0.5221
41.0600 13.6701 0.5179
41.0800 13.6767 0.5190
41.1000 13.6834 0.5227
41.1200 13.6901 0.5216
41.1400 13.6968 0.5150
41.1600 13.7035 0.5185
41.1800 13.7101 0.5204
41.2000 13.7168 0.5114
41.2200 13.7235 0.5166
41.2400 13.7300 0.5165
41.2600 13.7366 0.5185
41.2800 13.7433 0.5098
41.3000 13.7500 0.5160
41.3200 13.7567 0.5145
41.3400 13.7634 0.5134
41.3600 13.7701 0.5111
41.3800 13.7768 0.5124
41.4000 13.7834 0.5077
41.4200 13.7900 0.5158
41.4400 13.7966 0.5129
41.4600 13.8033 0.5084
41.4800 13.8101 0.5104
41.5000 13.8167 0.5105
41.5200 13.8234 0.5067
41.5400 13.8301 0.5099
41.5600 13.8368 0.5065
41.5800 13.8434 0.5075
41.6000 13.8500 0.5116
41.6200 13.8567 0.5044
41.6400 13.8634 0.5082
41.6600 13.8701 0.5083
41.6800 13.8767 0.5026
41.7000 13.8834 0.5077
41.7200 13.8901 0.5059
41.7400 13.8968 0.5013
41.7600 13.9034 0.5030
41.7800 13.9100 0.5019
41.8000 13.9166 0.5010
41.8200 13.9233 0.5068
41.8400 13.9301 0.4997
41.8600 13.9368 0.4957
41.8800 13.9435 0.5082
41.9000 13.9502 0.4986
41.9200 13.9568 0.5038
41.9400 13.9634 0.5034
41.9600 13.9700 0.4964
41.9800 13.9767 0.5025
42.0000 13.9834 0.5025
42.0200 13.9901 0.5000
42.0400 13.9968 0.5024
42.0600 14.0034 0.4976
42.0800 14.0101 0.4967
42.1000 14.0168 0.5049
42.1200 14.0234 0.4969
42.1400 14.0300 0.4947
42.1600 14.0366 0.5033
42.1800 14.0433 0.4930
42.2000 14.0500 0.4959
42.2200 14.0567 0.5050
42.2400 14.0634 0.4871
42.2600 14.0701 0.4937
42.2800 14.0768 0.5007
42.3000 14.0834 0.4816
42.3200 14.0900 0.4934
42.3400 14.0967 0.5053
42.3600 14.1033 0.4849
42.3800 14.1101 0.4909
42.4000 14.1168 0.4970
42.4200 14.1235 0.4818
42.4400 14.1301 0.4922
42.4600 14.1368 0.4998
42.4800 14.1435 0.4789
42.5000 14.1501 0.4957
42.5200 14.1567 0.4923
42.5400 14.1634 0.4800
42.5600 14.1701 0.4917
42.5800 14.1767 0.4941
42.6000 14.1834 0.4790
42.6200 14.1901 0.4914
42.6400 14.1968 0.4916
42.6600 14.2035 0.4749
42.6800 14.2101 0.4875
42.7000 14.2167 0.4939
42.7200 14.2233 0.4726
42.7400 14.2300 0.4898
42.7600 14.2368 0.4927
42.7800 14.2434 0.4704
42.8000 14.2501 0.4905
42.8200 14.2568 0.4863
42.8400 14.2635 0.4731
42.8600 14.2700 0.4846
42.8800 14.2766 0.4862
42.9000 14.2833 0.4718
42.9200 14.2900 0.4831
42.9400 14.2967 0.4838
42.9600 14.3034 0.4731
42.9800 14.3101 0.4794
43.0000 14.3168 0.4846
43.0200 14.3234 0.4671
43.0400 14.3300 0.4798
43.0600 14.3367 0.4826
43.0800 14.3434 0.4740
43.1000 14.3501 0.4742
43.1200 14.3568 0.4808
43.1400 14.3634 0.4743
43.1600 14.3701 0.4713
43.1800 14.3768 0.4776
43.2000 14.3835 0.4766
43.2200 14.3901 0.4705
43.2400 14.3967 0.4756
43.2600 14.4033 0.4738
43.2800 14.4100 0.4709
43.3000 14.4168 0.4723
43.3200 14.4235 0.4687
43.3400 14.4302 0.4645
43.3600 14.4368 0.4760
43.3800 14.4434 0.4744
43.4000 14.4500 0.4605
43.4200 14.4566 0.4744
43.4400 14.4633 0.4701
43.4600 14.4701 0.4634
43.4800 14.4768 0.4691
43.5000 14.4834 0.4662
43.5200 14.4901 0.4597
43.5400 14.4968 0.4719
43.5600 14.5034 0.4636
43.5800 14.5101 0.4609
43.6000 14.5167 0.4739
43.6200 14.5233 0.4627
43.6400 14.5300 0.4586
43.6600 14.5367 0.4753
43.6800 14.5434 0.4544
43.7000 14.5501 0.4634
43.7200 14.5568 0.4725
43.7400 14.5634 0.4487
43.7600 14.5701 0.4614
43.7800 14.5767 0.4698
43.8000 14.5833 0.4460
43.8200 14.5900 0.4615
43.8400 14.5967 0.4714
43.8600 14.6034 0.4431
43.8800 14.6101 0.4655
43.9000 14.6168 0.4645
43.9200 14.6235 0.4465
43.9400 14.6301 0.4625
43.9600 14.6367 0.4649
43.9800 14.6433 0.4444
44.0000 14.6500 0.4651
44.0200 14.6568 0.4555
44.0400 14.6635 0.4457
44.0600 14.6701 0.4638
44.0800 14.6768 0.4515
44.1000 14.6835 0.4481
44.1200 14.6901 0.4634
44.1400 14.6967 0.4479
44.1600 14.7033 0.4543
44.1800 14.7100 0.4601
44.2000 14.7166 0.4459
44.2200 14.7234 0.4569
44.2400 14.7301 0.4541
44.2600 14.7368 0.4398
44.2800 14.7435 0.4532
44.3000 14.7501 0.4482
44.3200 14.7567 0.4441
44.3400 14.7633 0.4563
44.3600 14.7700 0.4448
44.3800 14.7767 0.4416
44.4000 14.7834 0.4539
44.4200 14.7901 0.4441
44.4400 14.7967 0.4398
44.4600 14.8034 0.4501
44.4800 14.8100 0.4452
44.5000 14.8166 0.4455
44.5200 14.8233 0.4500
44.5400 14.8300 0.4400
44.5600 14.8368 0.4402
44.5800 14.8435 0.4459
44.6000 14.8501 0.4375
44.6200 14.8568 0.4424
44.6400 14.8635 0.4429
44.6600 14.8701 0.4409
44.6800 14.8767 0.4381
44.7000 14.8834 0.4415
44.7200 14.8901 0.4408
44.7400 14.8968 0.4380
44.7600 14.9035 0.4420
44.7800 14.9101 0.4420
44.8000 14.9168 0.4359
44.8200 14.9235 0.4352
44.8400 14.9301 0.4364
44.8600 14.9367 0.4380
44.8800 14.9433 0.4365
44.9000 14.9500 0.4380
44.9200 14.9567 0.4360
44.9400 14.9634 0.4306
44.9600 14.9701 0.4396
44.9800 14.9767 0.4323
45.0000 14.9834 0.4329
45.0200 14.9900 0.4355
45.0400 14.9966 0.4352
45.0600 15.0033 0.4284
45.0800 15.0101 0.4350
45.1000 15.0168 0.4291
45.1200 15.0234 0.4325
45.1400 15.0301 0.4328
45.1600 15.0368 0.4307
45.1800 15.0435 0.4263
45.2000 15.0501 0.4353
45.2200 15.0567 0.4242
45.2400 15.0634 0.4267
45.2600 15.0701 0.4288
45.2800 15.0767 0.4256
45.3000 15.0834 0.4294
45.3200 15.0901 0.4272
45.3400 15.0968 0.4224
45.3600 15.1035 0.4272
45.3800 15.1101 0.4255
45.4000 15.1167 0.4221
45.4200 15.1233 0.4289
45.4400 15.1300 0.4243
45.4600 15.1368 0.4193
45.4800 15.1435 0.4232
45.5000 15.1501 0.4244
45.5200 15.1568 0.4221
45.5400 15.1635 0.4248
45.5600 15.1701 0.4192
45.5800 15.1767 0.4189
45.6000 15.1833 0.4259
45.6200 15.1900 0.4230
45.6400 15.1968 0.4125
45.6600 15.2035 0.4232
45.6800 15.2101 0.4146
45.7000 15.2168 0.4113
45.7200 15.2234 0.4247
45.7400 15.2301 0.4180
45.7600 15.2367 0.4115
45.7800 15.2433 0.4201
45.8000 15.2500 0.4146
45.8200 15.2567 0.4167
45.8400 15.2634 0.4200
45.8600 15.2701 0.4101
45.8800 15.2768 0.4147
45.9000 15.2835 0.4158
45.9200 15.2901 0.4063
45.9400 15.2967 0.4100
45.9600 15.3033 0.4187
45.9800 15.3100 0.4105
46.0000 15.3167 0.4079
46.0200 15.3234 0.4117
46.0400 15.3301 0.4123
46.0600 15.3368 0.4043
46.0800 15.3435 0.4111
46.1000 15.3501 0.4095
46.1200 15.3567 0.4021
46.1400 15.3633 0.4121
46.1600 15.3700 0.4125
46.1800 15.3768 0.3972
46.2000 15.3835 0.4103
46.2200 15.3901 0.4069
46.2400 15.3968 0.4013
46.2600 15.4035 0.4075
46.2800 15.4101 0.4045
46.3000 15.4167 0.3963
46.3200 15.4233 0.4071
46.3400 15.4300 0.4009
46.3600 15.4367 0.3953
46.3800 15.4434 0.4059
46.4000 15.4501 0.3968
46.4200 15.4568 0.3928
46.4400 15.4635 0.4074
46.4600 15.4701 0.3913
46.4800 15.4767 0.3958
46.5000 15.4833 0.4061
46.5200 15.4900 0.3877
46.5400 15.4967 0.3997
46.5600 15.5034 0.3986
46.5800 15.5101 0.3861
46.6000 15.5167 0.3951
46.6200 15.5234 0.4022
46.6400 15.5300 0.3793
46.6600 15.5367 0.3965
46.6800 15.5433 0.3970
46.7000 15.5500 0.3817
46.7200 15.5567 0.3913
46.7400 15.5634 0.3966
46.7600 15.5701 0.3830
46.7800 15.5768 0.3865
46.8000 15.5835 0.3922
46.8200 15.5902 0.3854
46.8400 15.5968 0.3848
46.8600 15.6034 0.3942
46.8800 15.6100 0.3831
46.9000 15.6167 0.3842
46.9200 15.6234 0.3878
46.9400 15.6301 0.3867
46.9600 15.6368 0.3834
46.9800 15.6435 0.3875
47.0000 15.6501 0.3842
47.0200 15.6567 0.3817
47.0400 15.6633 0.3922
47.0600 15.6700 0.3786
47.0800 15.6767 0.3805
47.1000 15.6834 0.3876
47.1200 15.6901 0.3774
47.1400 15.6968 0.3782
47.1600 15.7035 0.3842
47.1800 15.7101 0.3788
47.2000 15.7167 0.3780
47.2200 15.7233 0.3823
47.2400 15.7300 0.3810
47.2600 15.7367 0.3775
47.2800 15.7434 0.3832
47.3000 15.7501 0.3770
47.3200 15.7567 0.3814
47.3400 15.7634 0.3795
47.3600 15.7701 0.3763
47.3800 15.7767 0.3789
47.4000 15.7833 0.3832
47.4200 15.7900 0.3774
47.4400 15.7967 0.3746
47.4600 15.8034 0.3815
47.4800 15.8101 0.3754
47.5000 15.8168 0.3735
47.5200 15.8235 0.3766
47.5400 15.8301 0.3666
47.5600 15.8367 0.3728
47.5800 15.8433 0.3820
47.6000 15.8500 0.3675
47.6200 15.8567 0.3719
47.6400 15.8635 0.3755
47.6600 15.8701 0.3667
47.6800 15.8768 0.3711
47.7000 15.8835 0.3770
47.7200 15.8901 0.3638
47.7400 15.8967 0.3716
47.7600 15.9033 0.3750
47.7800 15.9100 0.3667
47.8000 15.9167 0.3757
47.8200 15.9234 0.3715
47.8400 15.9301 0.3626
47.8600 15.9367 0.3740
47.8800 15.9434 0.3642
47.9000 15.9501 0.3674
47.9200 15.9567 0.3721
47.9400 15.9633 0.3665
47.9600 15.9700 0.3671
47.9800 15.9767 0.3687
48.0000 15.9834 0.3635
48.0200 15.9901 0.3704
48.0400 15.9968 0.3672
48.0600 16.0035 0.3588
48.0800 16.0101 0.3708
48.1000 16.0167 0.3666
48.1200 16.0233 0.3594
48.1400 16.0300 0.3636
48.1600 16.0367 0.3655
48.1800 16.0435 0.3576
48.2000 16.0501 0.3621
48.2200 16.0568 0.3598
48.2400 16.0635 0.3589
48.2600 16.0701 0.3570
48.2800 16.0767 0.3623
48.3000 16.0834 0.3637
48.3200 16.0900 0.3571
48.3400 16.0967 0.3548
48.3600 16.1034 0.3665
48.3800 16.1101 0.3553
48.4000 16.1168 0.3540
48.4200 16.1235 0.3619
48.4400 16.1301 0.3512
48.4600 16.1367 0.3510
48.4800 16.1433 0.3624
48.5000 16.1500 0.3478
48.5200 16.1566 0.3555
48.5400 16.1634 0.3578
48.5600 16.1701 0.3450
48.5800 16.1768 0.3572
48.6000 16.1835 0.3527
48.6200 16.1901 0.3438
48.6400 16.1967 0.3594
48.6600 16.2033 0.3530
48.6800 16.2100 0.3346
48.7000 16.2167 0.3540
48.7200 16.2234 0.3466
48.7400 16.2301 0.3402
48.7600 16.2367 0.3497
48.7800 16.2434 0.3424
48.8000 16.2501 0.3402
48.8200 16.2567 0.3544
48.8400 16.2634 0.3337
48.8600 16.2700 0.3445
48.8800 16.2767 0.3500
48.9000 16.2834 0.3307
48.9200 16.2901 0.3424
48.9400 16.2968 0.3469
48.9600 16.3035 0.3273
48.9800 16.3102 0.3471
49.0000 16.3168 0.3457
49.0200 16.3233 0.3245
49.0400 16.3300 0.3408
49.0600 16.3367 0.3493
49.0800 16.3434 0.3271
49.1000 16.3501 0.3339
49.1200 16.3568 0.3393
49.1400 16.3635 0.3327
49.1600 16.3701 0.3321
49.1800 16.3767 0.3300
49.2000 16.3833 0.3357
49.2200 16.3900 0.3327
49.2400 16.3967 0.3253
49.2600 16.4034 0.3330
49.2800 16.4100 0.3346
49.3000 16.4167 0.3228
49.3200 16.4234 0.3296
49.3400 16.4301 0.3253
49.3600 16.4367 0.3256
49.3800 16.4433 0.3329
49.4000 16.4500 0.3225
49.4200 16.4567 0.3215
49.4400 16.4634 0.3303
49.4600 16.4701 0.3202
49.4800 16.4768 0.3253
49.5000 16.4835 0.3199
49.5200 16.4901 0.3137
49.5400 16.4968 0.3246
49.5600 16.5034 0.3197
49.5800 16.5100 0.3172
49.6000 16.5167 0.3191
49.6200 16.5234 0.3116
49.6400 16.5301 0.3179
49.6600 16.5368 0.3245
49.6800 16.5435 0.3073
49.7000 16.5501 0.3140
49.7200 16.5567 0.3225
49.7400 16.5634 0.3131
49.7600 16.5700 0.3138
49.7800 16.5767 0.3185
49.8000 16.5834 0.3042
49.8200 16.5901 0.3166
49.8400 16.5968 0.3166
49.8600 16.6034 0.3085
49.8800 16.6101 0.3040
49.9000 16.6168 0.3173
49.9200 16.6234 0.3063
49.9400 16.6301 0.3083
49.9600 16.6367 0.3116
49.9800 16.6434 0.3054
50.0000 16.6501 0.3047
50.0200 16.6568 0.3141
50.0400 16.6635 0.3023
50.0600 16.6701 0.3004
50.0800 16.6768 0.3077
50.1000 16.6833 0.3066
50.1200 16.6899 0.3006
50.1400 16.6966 0.3081
50.1600 16.7034 0.3040
50.1800 16.7101 0.2976
50.2000 16.7168 0.3054
50.2200 16.7234 0.3021
50.2400 16.7301 0.3010
50.2600 16.7367 0.3032
50.2800 16.7433 0.2980
50.3000 16.7500 0.2998
50.3200 16.7567 0.3017
50.3400 16.7634 0.2970
50.3600 16.7701 0.2923
50.3800 16.7768 0.3010
50.4000 16.7835 0.2952
50.4200 16.7901 0.2882
50.4400 16.7968 0.2973
50.4600 16.8034 0.2893
50.4800 16.8100 0.2977
50.5000 16.8167 0.2933
50.5200 16.8234 0.2875
50.5400 16.8301 0.2918
50.5600 16.8368 0.2984
50.5800 16.8435 0.2855
50.6000 16.8502 0.2865
50.6200 16.8568 0.2950
50.6400 16.8634 0.2820
50.6600 16.8700 0.2900
50.6800 16.8767 0.2905
50.7000 16.8834 0.2796
50.7200 16.8901 0.2880
50.7400 16.8968 0.2877
50.7600 16.9034 0.2787
50.7800 16.9101 0.2885
50.8000 16.9167 0.2836
50.8200 16.9234 0.2790
50.8400 16.9300 0.2846
50.8600 16.9367 0.2869
50.8800 16.9434 0.2751
50.9000 16.9500 0.2815
50.9200 16.9567 0.2812
50.9400 16.9634 0.2794
50.9600 16.9701 0.2789
50.9800 16.9767 0.2816
51.0000 16.9833 0.2729
51.0200 16.9900 0.2786
51.0400 16.9966 0.2828
51.0600 17.0034 0.2710
51.0800 17.0101 0.2685
51.1000 17.0168 0.2811
51.1200 17.0235 0.2731
51.1400 17.0302 0.2721
51.1600 17.0368 0.2780
51.1800 17.0434 0.2733
51.2000 17.0500 0.2716
51.2200 17.0567 0.2732
51.2400 17.0634 0.2738
51.2600 17.0701 0.2669
51.2800 17.0768 0.2700
51.3000 17.0834 0.2692
51.3200 17.0901 0.2663
51.3400 17.0968 0.2671
51.3600 17.1034 0.2672
51.3800 17.1100 0.2617
51.4000 17.1167 0.2680
51.4200 17.1234 0.2664
51.4400 17.1301 0.2633
51.4600 17.1367 0.2646
51.4800 17.1434 0.2684
51.5000 17.1501 0.2591
51.5200 17.1568 0.2610
51.5400 17.1634 0.2591
51.5600 17.1700 0.2618
51.5800 17.1766 0.2645
51.6000 17.1834 0.2603
51.6200 17.1901 0.2519
51.6400 17.1968 0.2609
51.6600 17.2034 0.2585
51.6800 17.2101 0.2528
51.7000 17.2168 0.2559
51.7200 17.2234 0.2558
51.7400 17.2300 0.2506
51.7600 17.2367 0.2563
51.7800 17.2434 0.2497
51.8000 17.2501 0.2500
51.8200 17.2568 0.2502
51.8400 17.2635 0.2483
51.8600 17.2701 0.2480
51.8800 17.2768 0.2447
51.9000 17.2834 0.2503
51.9200 17.2900 0.2510
51.9400 17.2967 0.2448
51.9600 17.3034 0.2424
51.9800 17.3101 0.2508
52.0000 17.3168 0.2390
52.0200 17.3235 0.2427
52.0400 17.3302 0.2436
52.0600 17.3368 0.2396
52.0800 17.3434 0.2433
52.1000 17.3500 0.2416
52.1200 17.3566 0.2346
52.1400 17.3633 0.2445
52.1600 17.3701 0.2446
52.1800 17.3768 0.2319
52.2000 17.3834 0.2376
52.2200 17.3901 0.2370
52.2400 17.3967 0.2314
52.2600 17.4033 0.2394
52.2800 17.4099 0.2348
52.3000 17.4166 0.2329
52.3200 17.4233 0.2348
52.3400 17.4300 0.2243
52.3600 17.4367 0.2304
52.3800 17.4434 0.2421
52.4000 17.4501 0.2257
52.4200 17.4568 0.2238
52.4400 17.4634 0.2368
52.4600 17.4700 0.2273
52.4800 17.4767 0.2297
52.5000 17.4834 0.2287
52.5200 17.4901 0.2260
52.5400 17.4968 0.2240
52.5600 17.5035 0.2273
52.5800 17.5101 0.2236
52.6000 17.5168 0.2273
52.6200 17.5234 0.2239
52.6400 17.5300 0.2237
52.6600 17.5367 0.2206
52.6800 17.5434 0.2234
52.7000 17.5501 0.2246
52.7200 17.5568 0.2226
52.7400 17.5635 0.2147
52.7600 17.5702 0.2222
52.7800 17.5768 0.2184
52.8000 17.5834 0.2138
52.8200 17.5900 0.2232
52.8400 17.5967 0.2137
52.8600 17.6034 0.2127
52.8800 17.6101 0.2190
52.9000 17.6168 0.2095
52.9200 17.6234 0.2144
52.9400 17.6301 0.2181
52.9600 17.6368 0.2085
52.9800 17.6434 0.2125
53.0000 17.6500 0.2127
53.0200 17.6567 0.2189
53.0400 17.6634 0.2050
53.0600 17.6701 0.2056
53.0800 17.6767 0.2144
53.1000 17.6834 0.2133
53.1200 17.6901 0.1965
53.1400 17.6967 0.2126
53.1600 17.7034 0.2092
53.1800 17.7100 0.1968
53.2000 17.7167 0.2090
53.2200 17.7234 0.2133
53.2400 17.7301 0.1950
53.2600 17.7368 0.2038
53.2800 17.7435 0.2063
53.3000 17.7502 0.2038
53.3200 17.7568 0.2043
53.3400 17.7634 0.1991
53.3600 17.7700 0.2010
53.3800 17.7767 0.2027
53.4000 17.7834 0.1924
53.4200 17.7901 0.2043
53.4400 17.7968 0.2011
53.4600 17.8035 0.1859
53.4800 17.8101 0.2013
53.5000 17.8168 0.1969
53.5200 17.8234 0.1919
53.5400 17.8300 0.2029
53.5600 17.8367 0.1944
53.5800 17.8433 0.1933
53.6000 17.8500 0.1994
53.6200 17.8567 0.1884
53.6400 17.8634 0.1985
53.6600 17.8701 0.1937
53.6800 17.8768 0.1837
53.7000 17.8834 0.1968
53.7200 17.8900 0.1919
53.7400 17.8966 0.1808
53.7600 17.9033 0.2023
53.7800 17.9101 0.1867
53.8000 17.9168 0.1819
53.8200 17.9234 0.1996
53.8400 17.9301 0.1799
53.8600 17.9368 0.1815
53.8800 17.9434 0.1937
53.9000 17.9500 0.1816
53.9200 17.9567 0.1869
53.9400 17.9634 0.1867
53.9600 17.9701 0.1738
53.9800 17.9768 0.1887
54.0000 17.9834 0.1828
54.0200 17.9901 0.1704
54.0400 17.9968 0.1874
54.0600 18.0034 0.1779
54.0800 18.0100 0.1661
54.1000 18.0167 0.1871
54.1200 18.0233 0.1743
54.1400 18.0301 0.1748
54.1600 18.0368 0.1796
54.1800 18.0434 0.1667
54.2000 18.0501 0.1748
54.2200 18.0568 0.1772
54.2400 18.0634 0.1649
54.2600 18.0700 0.1734
54.2800 18.0767 0.1784
54.3000 18.0834 0.1644
54.3200 18.0901 0.1655
54.3400 18.0968 0.1703
54.3600 18.1034 0.1565
54.3800 18.1101 0.1714
54.4000 18.1168 0.1679
54.4200 18.1234 0.1563
54.4400 18.1300 0.1702
54.4600 18.1366 0.1633
54.4800 18.1433 0.1592
54.5000 18.1500 0.1650
54.5200 18.1567 0.1635
54.5400 18.1634 0.1559
54.5600 18.1701 0.1588
54.5800 18.1767 0.1596
54.6000 18.1834 0.1619
54.6200 18.1900 0.1603
54.6400 18.1967 0.1542
54.6600 18.2033 0.1589
54.6800 18.2101 0.1516
54.7000 18.2168 0.1543
54.7200 18.2235 0.1638
54.7400 18.2302 0.1471
54.7600 18.2369 0.1526
54.7800 18.2435 0.1534
54.8000 18.2500 0.1484
54.8200 18.2567 0.1542
54.8400 18.2634 0.1538
54.8600 18.2701 0.1409
54.8800 18.2768 0.1573
54.9000 18.2835 0.1489
54.9200 18.2901 0.1385
54.9400 18.2968 0.1585
54.9600 18.3034 0.1459
54.9800 18.3100 0.1332
55.0000 18.3166 0.1575
55.0200 18.3233 0.1454
55.0400 18.3300 0.1321
55.0600 18.3367 0.1573
55.0800 18.3434 0.1415
55.1000 18.3501 0.1353
55.1200 18.3568 0.1498
55.1400 18.3634 0.1393
55.1600 18.3700 0.1402
55.1800 18.3766 0.1529
55.2000 18.3833 0.1370
55.2200 18.3900 0.1335
55.2400 18.3967 0.1430
55.2600 18.4034 0.1363
55.2800 18.4101 0.1394
55.3000 18.4168 0.1424
55.3200 18.4234 0.1275
55.3400 18.4300 0.1337
55.3600 18.4367 0.1393
55.3800 18.4434 0.1344
55.4000 18.4501 0.1308
55.4200 18.4568 0.1311
55.4400 18.4635 0.1308
55.4600 18.4701 0.1300
55.4800 18.4768 0.1290
55.5000 18.4835 0.1290
55.5200 18.4901 0.1255
55.5400 18.4967 0.1275
55.5600 18.5034 0.1251
55.5800 18.5101 0.1240
55.6000 18.5168 0.1243
55.6200 18.5234 0.1222
55.6400 18.5301 0.1247
55.6600 18.5368 0.1265
55.6800 18.5435 0.1207
55.7000 18.5501 0.1148
55.7200 18.5567 0.1292
55.7400 18.5633 0.1168
55.7600 18.5700 0.1201
55.7800 18.5767 0.1230
55.8000 18.5834 0.1171
55.8200 18.5901 0.1153
55.8400 18.5968 0.1188
55.8600 18.6034 0.1102
55.8800 18.6100 0.1193
55.9000 18.6166 0.1159
55.9200 18.6233 0.1093
55.9400 18.6300 0.1110
55.9600 18.6367 0.1147
55.9800 18.6434 0.1050
56.0000 18.6501 0.1086
56.0200 18.6568 0.1093
56.0400 18.6634 0.1045
56.0600 18.6701 0.1077
56.0800 18.6767 0.1029
56.1000 18.6834 0.1081
56.1200 18.6901 0.1082
56.1400 18.6968 0.0993
56.1600 18.7034 0.1035
56.1800 18.7101 0.1070
56.2000 18.7168 0.0948
56.2200 18.7235 0.1001
56.2400 18.7301 0.1080
56.2600 18.7367 0.0991
56.2800 18.7433 0.0976
56.3000 18.7501 0.1055
56.3200 18.7568 0.0955
56.3400 18.7635 0.0965
56.3600 18.7701 0.0980
56.3800 18.7768 0.0932
56.4000 18.7834 0.0942
56.4200 18.7901 0.0971
56.4400 18.7967 0.0879
56.4600 18.8034 0.0998
56.4800 18.8101 0.0927
56.5000 18.8168 0.0888
56.5200 18.8234 0.0993
56.5400 18.8301 0.0960
56.5600 18.8368 0.0870
56.5800 18.8434 0.0957
56.6000 18.8500 0.0926
56.6200 18.8566 0.0815
56.6400 18.8633 0.0926
56.6600 18.8700 0.0942
56.6800 18.8767 0.0819
56.7000 18.8834 0.0869
56.7200 18.8901 0.0881
56.7400 18.8968 0.0828
56.7600 18.9034 0.0850
56.7800 18.9101 0.0878
56.8000 18.9167 0.0851
56.8200 18.9233 0.0847
56.8400 18.9301 0.0884
56.8600 18.9368 0.0737
56.8800 18.9435 0.0858
56.9000 18.9501 0.0826
56.9200 18.9568 0.0694
56.9400 18.9635 0.0823
56.9600 18.9701 0.0855
56.9800 18.9767 0.0673
57.0000 18.9834 0.0755
57.0200 18.9901 0.0878
57.0400 18.9968 0.0664
57.0600 19.0034 0.0725
57.0800 19.0101 0.0784
57.1000 19.0168 0.0639
57.1200 19.0235 0.0732
57.1400 19.0301 0.0762
57.1600 19.0367 0.0616
57.1800 19.0433 0.0739
57.2000 19.0500 0.0720
57.2200 19.0567 0.0582
57.2400 19.0634 0.0772
57.2600 19.0701 0.0745
57.2800 19.0768 0.0509
57.3000 19.0834 0.0687
57.3200 19.0901 0.0634
57.3400 19.0967 0.0587
57.3600 19.1033 0.0687
57.3800 19.1100 0.0577
57.4000 19.1167 0.0523
57.4200 19.1234 0.0655
57.4400 19.1301 0.0515
57.4600 19.1368 0.0494
57.4800 19.1434 0.0622
57.5000 19.1500 0.0546
57.5200 19.1567 0.0445
57.5400 19.1633 0.0636
57.5600 19.1700 0.0524
57.5800 19.1768 0.0438
57.6000 19.1834 0.0521
57.6200 19.1901 0.0504
57.6400 19.1968 0.0480
57.6600 19.2035 0.0453
57.6800 19.2101 0.0440
57.7000 19.2167 0.0504
57.7200 19.2234 0.0478
57.7400 19.2301 0.0430
57.7600 19.2368 0.0409
57.7800 19.2435 0.0441
57.8000 19.2502 0.0380
57.8200 19.2568 0.0322
57.8400 19.2635 0.0398
57.8600 19.2701 0.0335
57.8800 19.2767 0.0351
57.9000 19.2833 0.0339
57.9200 19.2900 0.0353
57.9400 19.2967 0.0267
57.9600 19.3034 0.0317
57.9800 19.3101 0.0306
58.0000 19.3167 0.0303
58.0200 19.3234 0.0269
58.0400 19.3301 0.0225
58.0600 19.3367 0.0242
58.0800 19.3433 0.0268
58.1000 19.3500 0.0277
58.1200 19.3567 0.0170
58.1400 19.3634 0.0152
58.1600 19.3700 0.0289
58.1800 19.3767 0.0221
58.2000 19.3834 0.0142
58.2200 19.3901 0.0235
58.2400 19.3967 0.0113
58.2600 19.4034 0.0120
58.2800 19.4101 0.0241
58.3000 19.4167 0.0047
58.3200 19.4234 0.0075
58.3400 19.4301 0.0236
58.3600 19.4368 -0.0022
58.3800 19.4435 0.0052
58.4000 19.4501 0.0176
58.4200 19.4567 0.0007
58.4400 19.4633 0.0086
58.4600 19.4700 0.0145
58.4800 19.4768 -0.0041
58.5000 19.4835 0.0059
58.5200 19.4901 0.0034
58.5400 19.4968 -0.0048
58.5600 19.5035 0.0051
58.5800 19.5101 -0.0033
58.6000 19.5167 -0.0093
58.6200 19.5233 0.0060
58.6400 19.5300 -0.0046
58.6600 19.5367 -0.0107
58.6800 19.5434 -0.0008
58.7000 19.5501 -0.0070
58.7200 19.5568 -0.0108
58.7400 19.5634 -0.0099
58.7600 19.5701 -0.0118
58.7800 19.5767 -0.0167
58.8000 19.5833 -0.0076
58.8200 19.5900 -0.0137
58.8400 19.5967 -0.0171
58.8600 19.6034 -0.0150
58.8800 19.6101 -0.0160
58.9000 19.6168 -0.0227
58.9200 19.6234 -0.0218
58.9400 19.6300 -0.0172
58.9600 19.6366 -0.0231
58.9800 19.6433 -0.0303
59.0000 19.6500 -0.0161
59.0200 19.6568 -0.0265
59.0400 19.6635 -0.0329
59.0600 19.6701 -0.0253
59.0800 19.6768 -0.0303
59.1000 19.6835 -0.0349
59.1200 19.6901 -0.0232
59.1400 19.6967 -0.0397
59.1600 19.7034 -0.0388
59.1800 19.7101 -0.0275
59.2000 19.7168 -0.0427
59.2200 19.7234 -0.0402
59.2400 19.7301 -0.0329
59.2600 19.7368 -0.0504
59.2800 19.7435 -0.0410
59.3000 19.7500 -0.0474
