Raw Data
Time Displacement Force
(s) (mm) (N)
0.0000 0.0001 -0.1814
0.0200 0.0001 -0.1922
0.0400 0.0009 -0.1314
0.0600 0.0042 -0.1099
0.0800 0.0098 -0.1717
0.1000 0.0155 -0.1504
0.1200 0.0215 -0.0929
0.1400 0.0281 -0.1071
0.1600 0.0354 -0.0928
0.1800 0.0429 -0.0635
0.2000 0.0500 -0.0803
0.2200 0.0569 -0.0622
0.2400 0.0636 -0.0436
0.2600 0.0702 -0.0546
0.2800 0.0769 -0.0286
0.3000 0.0836 -0.0170
0.3200 0.0903 -0.0339
0.3400 0.0971 -0.0128
0.3600 0.1037 -0.0042
0.3800 0.1104 -0.0103
0.4000 0.1170 0.0146
0.4200 0.1237 0.0052
0.4400 0.1304 0.0037
0.4600 0.1371 0.0216
0.4800 0.1438 0.0131
0.5000 0.1505 0.0136
0.5200 0.1571 0.0305
0.5400 0.1638 0.0120
0.5600 0.1704 0.0191
0.5800 0.1770 0.0374
0.6000 0.1837 0.0322
0.6200 0.1904 0.0427
0.6400 0.1971 0.0615
0.6600 0.2038 0.0644
0.6800 0.2104 0.0915
0.7000 0.2171 0.1080
0.7200 0.2238 0.1109
0.7400 0.2304 0.1453
0.7600 0.2370 0.1863
0.7800 0.2437 0.2117
0.8000 0.2504 0.2484
0.8200 0.2570 0.2969
0.8400 0.2637 0.3166
0.8600 0.2704 0.3508
0.8800 0.2771 0.3824
0.9000 0.2837 0.4128
0.9200 0.2903 0.4471
0.9400 0.2969 0.4761
0.9600 0.3036 0.4911
0.9800 0.3103 0.5163
1.0000 0.3170 0.5145
1.0200 0.3237 0.5058
1.0400 0.3304 0.5162
1.0600 0.3371 0.5204
1.0800 0.3437 0.5068
1.1000 0.3503 0.5213
1.1200 0.3570 0.5227
1.1400 0.3637 0.5120
1.1600 0.3704 0.5263
1.1800 0.3771 0.5193
1.2000 0.3838 0.5137
1.2200 0.3905 0.5334
1.2400 0.3971 0.5222
1.2600 0.4038 0.5181
1.2800 0.4104 0.5346
1.3000 0.4170 0.5222
1.3200 0.4237 0.5258
1.3400 0.4304 0.5314
1.3600 0.4371 0.5214
1.3800 0.4438 0.5252
1.4000 0.4504 0.5375
1.4200 0.4571 0.5227
1.4400 0.4637 0.5244
1.4600 0.4703 0.5362
1.4800 0.4769 0.5266
1.5000 0.4836 0.5235
1.5200 0.4903 0.5362
1.5400 0.4970 0.5267
1.5600 0.5037 0.5257
1.5800 0.5104 0.5333
1.6000 0.5171 0.5249
1.6200 0.5237 0.5256
1.6400 0.5303 0.5340
1.6600 0.5369 0.5204
1.6800 0.5436 0.5290
1.7000 0.5504 0.5358
1.7200 0.5571 0.5187
1.7400 0.5637 0.5237
1.7600 0.5704 0.5339
1.7800 0.5771 0.5187
1.8000 0.5838 0.5251
1.8200 0.5904 0.5301
1.8400 0.5970 0.5119
1.8600 0.6037 0.5313
1.8800 0.6104 0.5274
1.9000 0.6171 0.5087
1.9200 0.6237 0.5307
1.9400 0.6304 0.5255
1.9600 0.6371 0.5079
1.9800 0.6438 0.5285
2.0000 0.6504 0.5217
2.0200 0.6570 0.5146
2.0400 0.6636 0.5249
2.0600 0.6704 0.5183
2.0800 0.6771 0.5107
2.1000 0.6838 0.5278
2.1200 0.6904 0.5117
2.1400 0.6971 0.5153
2.1600 0.7037 0.5229
2.1800 0.7103 0.5158
2.2000 0.7170 0.5174
2.2200 0.7236 0.5188
2.2400 0.7304 0.5105
2.2600 0.7371 0.5166
2.2800 0.7437 0.5149
2.3000 0.7504 0.5122
2.3200 0.7571 0.5150
2.3400 0.7637 0.5147
2.3600 0.7704 0.5185
2.3800 0.7770 0.5140
2.4000 0.7836 0.5060
2.4200 0.7903 0.5193
2.4400 0.7970 0.5170
2.4600 0.8037 0.5036
2.4800 0.8104 0.5231
2.5000 0.8171 0.5116
2.5200 0.8238 0.5065
2.5400 0.8304 0.5199
2.5600 0.8370 0.5115
2.5800 0.8437 0.5096
2.6000 0.8504 0.5245
2.6200 0.8571 0.5022
2.6400 0.8638 0.5056
2.6600 0.8705 0.5287
2.6800 0.8771 0.5073
2.7000 0.8838 0.5049
2.7200 0.8904 0.5284
2.7400 0.8970 0.5025
2.7600 0.9037 0.5078
2.7800 0.9104 0.5249
2.8000 0.9171 0.5009
2.8200 0.9238 0.5050
2.8400 0.9305 0.5201
2.8600 0.9371 0.5030
2.8800 0.9438 0.5057
2.9000 0.9504 0.5170
2.9200 0.9570 0.5053
2.9400 0.9636 0.5072
2.9600 0.9703 0.5182
2.9800 0.9770 0.5105
3.0000 0.9837 0.5071
3.0200 0.9904 0.5149
3.0400 0.9971 0.5023
3.0600 1.0038 0.5070
3.0800 1.0103 0.5119
3.1000 1.0169 0.5065
3.1200 1.0236 0.5092
3.1400 1.0303 0.5192
3.1600 1.0370 0.5019
3.1800 1.0437 0.5074
3.2000 1.0504 0.5210
3.2200 1.0571 0.4985
3.2400 1.0637 0.5071
3.2600 1.0704 0.5179
3.2800 1.0770 0.4954
3.3000 1.0836 0.5134
3.3200 1.0904 0.5167
3.3400 1.0971 0.4964
3.3600 1.1038 0.5118
3.3800 1.1105 0.5156
3.4000 1.1172 0.4946
3.4200 1.1238 0.5102
3.4400 1.1304 0.5131
3.4600 1.1370 0.4986
3.4800 1.1437 0.5115
3.5000 1.1504 0.5055
3.5200 1.1571 0.5034
3.5400 1.1638 0.5086
3.5600 1.1705 0.5025
3.5800 1.1771 0.5054
3.6000 1.1838 0.5117
3.6200 1.1904 0.4981
3.6400 1.1970 0.5115
3.6600 1.2036 0.5053
3.6800 1.2104 0.5025
3.7000 1.2171 0.5089
3.7200 1.2237 0.4996
3.7400 1.2304 0.5041
3.7600 1.2371 0.5161
3.7800 1.2438 0.4938
3.8000 1.2504 0.5059
3.8200 1.2570 0.5143
3.8400 1.2636 0.4991
3.8600 1.2704 0.5055
3.8800 1.2771 0.5145
3.9000 1.2837 0.4956
3.9200 1.2904 0.5100
3.9400 1.2971 0.5065
3.9600 1.3038 0.4919
3.9800 1.3104 0.5131
4.0000 1.3170 0.5053
4.0200 1.3236 0.4942
4.0400 1.3303 0.5085
4.0600 1.3370 0.5064
4.0800 1.3438 0.4936
4.1000 1.3504 0.5080
4.1200 1.3571 0.5075
4.1400 1.3638 0.4952
4.1600 1.3704 0.5109
4.1800 1.3770 0.5085
4.2000 1.3837 0.4940
4.2200 1.3904 0.5138
4.2400 1.3971 0.5037
4.2600 1.4038 0.4932
4.2800 1.4105 0.5105
4.3000 1.4171 0.5114
4.3200 1.4238 0.4864
4.3400 1.4304 0.5126
4.3600 1.4370 0.5103
4.3800 1.4436 0.4908
4.4000 1.4503 0.5138
4.4200 1.4571 0.5005
4.4400 1.4637 0.4877
4.4600 1.4704 0.5175
4.4800 1.4771 0.4971
4.5000 1.4838 0.4903
4.5200 1.4904 0.5160
4.5400 1.4970 0.4956
4.5600 1.5036 0.4958
4.5800 1.5103 0.5183
4.6000 1.5170 0.4969
4.6200 1.5237 0.4960
4.6400 1.5304 0.5194
4.6600 1.5371 0.4938
4.6800 1.5438 0.4962
4.7000 1.5504 0.5145
4.7200 1.5570 0.4966
4.7400 1.5637 0.4982
4.7600 1.5704 0.5156
4.7800 1.5771 0.4961
4.8000 1.5838 0.5001
4.8200 1.5905 0.5125
4.8400 1.5971 0.4949
4.8600 1.6038 0.5031
4.8800 1.6104 0.5097
4.9000 1.6170 0.4920
4.9200 1.6236 0.5019
4.9400 1.6303 0.5024
4.9600 1.6370 0.4950
4.9800 1.6438 0.5035
5.0000 1.6505 0.5041
5.0200 1.6571 0.4975
5.0400 1.6638 0.5000
5.0600 1.6704 0.5012
5.0800 1.6770 0.5021
5.1000 1.6836 0.5024
5.1200 1.6903 0.5029
5.1400 1.6970 0.4972
5.1600 1.7037 0.4945
5.1800 1.7104 0.5012
5.2000 1.7171 0.4990
5.2200 1.7238 0.4966
5.2400 1.7304 0.4986
5.2600 1.7370 0.4992
5.2800 1.7436 0.4950
5.3000 1.7503 0.5016
5.3200 1.7570 0.4945
5.3400 1.7637 0.4955
5.3600 1.7704 0.4976
5.3800 1.7770 0.4942
5.4000 1.7837 0.4919
5.4200 1.7904 0.4997
5.4400 1.7970 0.4961
5.4600 1.8036 0.4938
5.4800 1.8103 0.4933
5.5000 1.8171 0.5007
5.5200 1.8238 0.4890
5.5400 1.8304 0.4949
5.5600 1.8371 0.4966
5.5800 1.8438 0.4928
5.6000 1.8505 0.4933
5.6200 1.8570 0.4949
5.6400 1.8637 0.4993
5.6600 1.8703 0.4901
5.6800 1.8771 0.4936
5.7000 1.8838 0.4934
5.7200 1.8904 0.4925
5.7400 1.8971 0.4955
5.7600 1.9038 0.4905
5.7800 1.9104 0.4872
5.8000 1.9170 0.4979
5.8200 1.9236 0.4950
5.8400 1.9303 0.4843
5.8600 1.9370 0.4906
5.8800 1.9437 0.5003
5.9000 1.9504 0.4814
5.9200 1.9570 0.4911
5.9400 1.9637 0.4948
5.9600 1.9704 0.4824
5.9800 1.9770 0.4901
6.0000 1.9836 0.4981
6.0200 1.9903 0.4801
6.0400 1.9970 0.4952
6.0600 2.0037 0.4905
6.0800 2.0104 0.4721
6.1000 2.0171 0.4988
6.1200 2.0238 0.4932
6.1400 2.0304 0.4742
6.1600 2.0370 0.4975
6.1800 2.0437 0.4884
6.2000 2.0503 0.4788
6.2200 2.0570 0.4925
6.2400 2.0637 0.4879
6.2600 2.0704 0.4779
6.2800 2.0771 0.4937
6.3000 2.0838 0.4790
6.3200 2.0904 0.4786
6.3400 2.0970 0.4969
6.3600 2.1037 0.4805
6.3800 2.1103 0.4801
6.4000 2.1171 0.4901
6.4200 2.1238 0.4808
6.4400 2.1304 0.4854
6.4600 2.1371 0.4922
6.4800 2.1438 0.4798
6.5000 2.1505 0.4846
6.5200 2.1571 0.4836
6.5400 2.1637 0.4849
6.5600 2.1703 0.4832
6.5800 2.1770 0.4858
6.6000 2.1837 0.4864
6.6200 2.1904 0.4801
6.6400 2.1971 0.4818
6.6600 2.2038 0.4872
6.6800 2.2104 0.4822
6.7000 2.2170 0.4803
6.7200 2.2236 0.4865
6.7400 2.2303 0.4811
6.7600 2.2370 0.4826
6.7800 2.2437 0.4865
6.8000 2.2504 0.4797
6.8200 2.2571 0.4815
6.8400 2.2638 0.4919
6.8600 2.2704 0.4767
6.8800 2.2770 0.4807
6.9000 2.2836 0.4922
6.9200 2.2903 0.4800
6.9400 2.2970 0.4773
6.9600 2.3037 0.4948
6.9800 2.3104 0.4786
7.0000 2.3171 0.4816
7.0200 2.3238 0.4883
7.0400 2.3304 0.4790
7.0600 2.3371 0.4800
7.0800 2.3437 0.4907
7.1000 2.3504 0.4761
7.1200 2.3570 0.4813
7.1400 2.3637 0.4879
7.1600 2.3704 0.4816
7.1800 2.3771 0.4821
7.2000 2.3838 0.4872
7.2200 2.3905 0.4788
7.2400 2.3971 0.4795
7.2600 2.4037 0.4912
7.2800 2.4103 0.4766
7.3000 2.4170 0.4853
7.3200 2.4238 0.4899
7.3400 2.4304 0.4773
7.3600 2.4371 0.4807
7.3800 2.4438 0.4850
7.4000 2.4504 0.4786
7.4200 2.4570 0.4805
7.4400 2.4636 0.4826
7.4600 2.4703 0.4831
7.4800 2.4770 0.4780
7.5000 2.4837 0.4868
7.5200 2.4904 0.4784
7.5400 2.4970 0.4801
7.5600 2.5037 0.4850
7.5800 2.5104 0.4767
7.6000 2.5170 0.4769
7.6200 2.5237 0.4877
7.6400 2.5303 0.4760
7.6600 2.5370 0.4799
7.6800 2.5437 0.4848
7.7000 2.5504 0.4829
7.7200 2.5571 0.4751
7.7400 2.5638 0.4813
7.7600 2.5705 0.4798
7.7800 2.5771 0.4748
7.8000 2.5837 0.4837
7.8200 2.5903 0.4777
7.8400 2.5970 0.4735
7.8600 2.6037 0.4800
7.8800 2.6104 0.4816
7.9000 2.6171 0.4706
7.9200 2.6238 0.4800
7.9400 2.6305 0.4806
7.9600 2.6371 0.4711
7.9800 2.6437 0.4781
8.0000 2.6503 0.4804
8.0200 2.6570 0.4750
8.0400 2.6637 0.4768
8.0600 2.6704 0.4748
8.0800 2.6771 0.4768
8.1000 2.6838 0.4780
8.1200 2.6904 0.4751
8.1400 2.6971 0.4697
8.1600 2.7036 0.4797
8.1800 2.7103 0.4757
8.2000 2.7170 0.4740
8.2200 2.7237 0.4747
8.2400 2.7304 0.4733
8.2600 2.7371 0.4754
8.2800 2.7438 0.4799
8.3000 2.7504 0.4689
8.3200 2.7570 0.4708
8.3400 2.7636 0.4847
8.3600 2.7703 0.4759
8.3800 2.7770 0.4626
8.4000 2.7837 0.4774
8.4200 2.7904 0.4806
8.4400 2.7971 0.4595
8.4600 2.8038 0.4798
8.4800 2.8104 0.4770
8.5000 2.8171 0.4627
8.5200 2.8237 0.4808
8.5400 2.8303 0.4719
8.5600 2.8370 0.4600
8.5800 2.8437 0.4810
8.6000 2.8504 0.4705
8.6200 2.8571 0.4660
8.6400 2.8638 0.4786
8.6600 2.8705 0.4729
8.6800 2.8771 0.4598
8.7000 2.8837 0.4799
8.7200 2.8903 0.4751
8.7400 2.8970 0.4625
8.7600 2.9037 0.4775
8.7800 2.9104 0.4751
8.8000 2.9171 0.4629
8.8200 2.9238 0.4750
8.8400 2.9304 0.4781
8.8600 2.9370 0.4579
8.8800 2.9436 0.4743
8.9000 2.9503 0.4827
8.9200 2.9570 0.4557
8.9400 2.9637 0.4703
8.9600 2.9704 0.4857
8.9800 2.9770 0.4558
9.0000 2.9837 0.4740
9.0200 2.9904 0.4793
9.0400 2.9970 0.4579
9.0600 3.0037 0.4734
9.0800 3.0103 0.4841
9.1000 3.0170 0.4504
9.1200 3.0237 0.4801
9.1400 3.0304 0.4797
9.1600 3.0371 0.4454
9.1800 3.0438 0.4807
9.2000 3.0505 0.4815
9.2200 3.0571 0.4448
9.2400 3.0637 0.4807
9.2600 3.0703 0.4778
9.2800 3.0770 0.4514
9.3000 3.0837 0.4788
9.3200 3.0905 0.4754
9.3400 3.0971 0.4521
9.3600 3.1038 0.4789
9.3800 3.1105 0.4718
9.4000 3.1171 0.4503
9.4200 3.1237 0.4828
9.4400 3.1303 0.4725
9.4600 3.1370 0.4556
9.4800 3.1437 0.4760
9.5000 3.1504 0.4700
9.5200 3.1571 0.4576
9.5400 3.1638 0.4735
9.5600 3.1704 0.4722
9.5800 3.1771 0.4538
9.6000 3.1837 0.4668
9.6200 3.1903 0.4750
9.6400 3.1970 0.4532
9.6600 3.2037 0.4724
9.6800 3.2104 0.4739
9.7000 3.2170 0.4513
9.7200 3.2237 0.4667
9.7400 3.2304 0.4747
9.7600 3.2370 0.4578
9.7800 3.2436 0.4638
9.8000 3.2503 0.4743
9.8200 3.2570 0.4624
9.8400 3.2637 0.4621
9.8600 3.2704 0.4741
9.8800 3.2771 0.4611
9.9000 3.2838 0.4625
9.9200 3.2905 0.4724
9.9400 3.2971 0.4643
9.9600 3.3037 0.4615
9.9800 3.3103 0.4736
10.0000 3.3170 0.4637
10.0200 3.3238 0.4545
10.0400 3.3305 0.4747
10.0600 3.3371 0.4632
10.0800 3.3438 0.4605
10.1000 3.3504 0.4701
10.1200 3.3571 0.4646
10.1400 3.3637 0.4552
10.1600 3.3703 0.4747
10.1800 3.3770 0.4643
10.2000 3.3837 0.4614
10.2200 3.3904 0.4722
10.2400 3.3970 0.4590
10.2600 3.4037 0.4553
10.2800 3.4104 0.4795
10.3000 3.4171 0.4542
10.3200 3.4237 0.4549
10.3400 3.4303 0.4761
10.3600 3.4370 0.4577
10.3800 3.4437 0.4558
10.4000 3.4504 0.4749
10.4200 3.4571 0.4551
10.4400 3.4637 0.4590
10.4600 3.4704 0.4778
10.4800 3.4771 0.4518
10.5000 3.4837 0.4577
10.5200 3.4903 0.4787
10.5400 3.4970 0.4566
10.5600 3.5037 0.4602
10.5800 3.5104 0.4722
10.6000 3.5171 0.4562
10.6200 3.5238 0.4646
10.6400 3.5305 0.4670
10.6600 3.5371 0.4573
10.6800 3.5437 0.4587
10.7000 3.5503 0.4732
10.7200 3.5570 0.4579
10.7400 3.5637 0.4578
10.7600 3.5704 0.4692
10.7800 3.5771 0.4596
10.8000 3.5838 0.4584
10.8200 3.5905 0.4656
10.8400 3.5971 0.4602
10.8600 3.6037 0.4604
10.8800 3.6103 0.4671
10.9000 3.6170 0.4620
10.9200 3.6237 0.4519
10.9400 3.6304 0.4693
10.9600 3.6371 0.4645
10.9800 3.6438 0.4538
11.0000 3.6504 0.4639
11.0200 3.6571 0.4645
11.0400 3.6637 0.4527
11.0600 3.6703 0.4686
11.0800 3.6769 0.4667
11.1000 3.6836 0.4503
11.1200 3.6904 0.4647
11.1400 3.6970 0.4633
11.1600 3.7037 0.4566
11.1800 3.7104 0.4636
11.2000 3.7171 0.4610
11.2200 3.7237 0.4528
11.2400 3.7303 0.4603
11.2600 3.7370 0.4636
11.2800 3.7437 0.4563
11.3000 3.7504 0.4585
11.3200 3.7571 0.4671
11.3400 3.7638 0.4521
11.3600 3.7705 0.4616
11.3800 3.7772 0.4639
11.4000 3.7837 0.4537
11.4200 3.7903 0.4623
11.4400 3.7970 0.4620
11.4600 3.8037 0.4469
11.4800 3.8104 0.4687
11.5000 3.8171 0.4667
11.5200 3.8238 0.4434
11.5400 3.8305 0.4719
11.5600 3.8371 0.4616
11.5800 3.8437 0.4457
11.6000 3.8503 0.4682
11.6200 3.8570 0.4652
11.6400 3.8637 0.4464
11.6600 3.8704 0.4697
11.6800 3.8770 0.4586
11.7000 3.8837 0.4501
11.7200 3.8904 0.4687
11.7400 3.8971 0.4610
11.7600 3.9037 0.4469
11.7800 3.9103 0.4687
11.8000 3.9169 0.4560
11.8200 3.9236 0.4563
11.8400 3.9304 0.4616
11.8600 3.9370 0.4562
11.8800 3.9437 0.4575
11.9000 3.9504 0.4618
11.9200 3.9570 0.4541
11.9400 3.9637 0.4539
11.9600 3.9703 0.4596
11.9800 3.9770 0.4614
12.0000 3.9837 0.4555
12.0200 3.9905 0.4557
12.0400 3.9971 0.4554
12.0600 4.0038 0.4605
12.0800 4.0105 0.4535
12.1000 4.0171 0.4590
12.1200 4.0237 0.4584
12.1400 4.0304 0.4474
12.1600 4.0370 0.4625
12.1800 4.0437 0.4573
12.2000 4.0504 0.4501
12.2200 4.0571 0.4607
12.2400 4.0638 0.4553
12.2600 4.0705 0.4460
12.2800 4.0771 0.4648
12.3000 4.0837 0.4519
12.3200 4.0903 0.4471
12.3400 4.0970 0.4668
12.3600 4.1037 0.4534
12.3800 4.1104 0.4433
12.4000 4.1171 0.4671
12.4200 4.1238 0.4515
12.4400 4.1304 0.4461
12.4600 4.1371 0.4665
12.4800 4.1437 0.4523
12.5000 4.1503 0.4446
12.5200 4.1570 0.4714
12.5400 4.1637 0.4488
12.5600 4.1704 0.4475
12.5800 4.1771 0.4681
12.6000 4.1837 0.4512
12.6200 4.1904 0.4489
12.6400 4.1971 0.4627
12.6600 4.2037 0.4512
12.6800 4.2103 0.4480
12.7000 4.2170 0.4631
12.7200 4.2236 0.4499
12.7400 4.2304 0.4480
12.7600 4.2371 0.4633
12.7800 4.2438 0.4530
12.8000 4.2505 0.4470
12.8200 4.2572 0.4626
12.8400 4.2637 0.4500
12.8600 4.2703 0.4495
12.8800 4.2770 0.4597
12.9000 4.2837 0.4468
12.9200 4.2904 0.4510
12.9400 4.2971 0.4626
12.9600 4.3038 0.4436
12.9800 4.3105 0.4491
13.0000 4.3171 0.4601
13.0200 4.3237 0.4495
13.0400 4.3304 0.4472
13.0600 4.3370 0.4608
13.0800 4.3437 0.4503
13.1000 4.3504 0.4499
13.1200 4.3571 0.4593
13.1400 4.3637 0.4527
13.1600 4.3704 0.4471
13.1800 4.3771 0.4542
13.2000 4.3837 0.4520
13.2200 4.3903 0.4467
13.2400 4.3970 0.4610
13.2600 4.4036 0.4537
13.2800 4.4104 0.4402
13.3000 4.4171 0.4586
13.3200 4.4237 0.4540
13.3400 4.4304 0.4388
13.3600 4.4371 0.4592
13.3800 4.4437 0.4446
13.4000 4.4503 0.4430
13.4200 4.4570 0.4606
13.4400 4.4637 0.4510
13.4600 4.4704 0.4388
13.4800 4.4771 0.4552
13.5000 4.4838 0.4461
13.5200 4.4904 0.4378
13.5400 4.4971 0.4590
13.5600 4.5038 0.4463
13.5800 4.5104 0.4382
13.6000 4.5170 0.4553
13.6200 4.5237 0.4429
13.6400 4.5304 0.4407
13.6600 4.5371 0.4529
13.6800 4.5438 0.4444
13.7000 4.5504 0.4423
13.7200 4.5571 0.4490
13.7400 4.5637 0.4470
13.7600 4.5703 0.4415
13.7800 4.5770 0.4523
13.8000 4.5837 0.4497
13.8200 4.5904 0.4396
13.8400 4.5971 0.4440
13.8600 4.6037 0.4530
13.8800 4.6104 0.4353
13.9000 4.6171 0.4403
13.9200 4.6237 0.4507
13.9400 4.6303 0.4395
13.9600 4.6369 0.4403
13.9800 4.6436 0.4498
14.0000 4.6504 0.4382
14.0200 4.6571 0.4422
14.0400 4.6638 0.4486
14.0600 4.6704 0.4408
14.0800 4.6771 0.4375
14.1000 4.6837 0.4468
14.1200 4.6903 0.4384
14.1400 4.6970 0.4413
14.1600 4.7037 0.4439
14.1800 4.7104 0.4407
14.2000 4.7171 0.4439
14.2200 4.7238 0.4428
14.2400 4.7305 0.4388
14.2600 4.7371 0.4431
14.2800 4.7437 0.4410
14.3000 4.7503 0.4416
14.3200 4.7569 0.4467
14.3400 4.7636 0.4415
14.3600 4.7704 0.4374
14.3800 4.7771 0.4408
14.4000 4.7838 0.4446
14.4200 4.7905 0.4373
14.4400 4.7972 0.4397
14.4600 4.8038 0.4393
14.4800 4.8104 0.4397
14.5000 4.8170 0.4417
14.5200 4.8237 0.4440
14.5400 4.8304 0.4387
14.5600 4.8370 0.4382
14.5800 4.8437 0.4444
14.6000 4.8504 0.4410
14.6200 4.8571 0.4361
14.6400 4.8637 0.4402
14.6600 4.8703 0.4401
14.6800 4.8770 0.4406
14.7000 4.8836 0.4380
14.7200 4.8904 0.4391
14.7400 4.8970 0.4378
14.7600 4.9037 0.4434
14.7800 4.9104 0.4340
14.8000 4.9171 0.4381
14.8200 4.9237 0.4450
14.8400 4.9304 0.4309
14.8600 4.9370 0.4371
14.8800 4.9437 0.4481
14.9000 4.9504 0.4332
14.9200 4.9571 0.4351
14.9400 4.9638 0.4505
14.9600 4.9705 0.4312
14.9800 4.9771 0.4350
15.0000 4.9837 0.4463
15.0200 4.9903 0.4350
15.0400 4.9970 0.4332
15.0600 5.0037 0.4499
15.0800 5.0104 0.4300
15.1000 5.0170 0.4312
15.1200 5.0237 0.4436
15.1400 5.0304 0.4314
15.1600 5.0371 0.4331
15.1800 5.0438 0.4474
15.2000 5.0504 0.4233
15.2200 5.0570 0.4350
15.2400 5.0637 0.4500
15.2600 5.0704 0.4263
15.2800 5.0771 0.4356
15.3000 5.0838 0.4477
15.3200 5.0904 0.4268
15.3400 5.0971 0.4350
15.3600 5.1038 0.4504
15.3800 5.1104 0.4207
15.4000 5.1170 0.4349
15.4200 5.1236 0.4483
15.4400 5.1303 0.4251
15.4600 5.1370 0.4313
15.4800 5.1437 0.4431
15.5000 5.1504 0.4250
15.5200 5.1571 0.4351
15.5400 5.1637 0.4447
15.5600 5.1703 0.4235
15.5800 5.1770 0.4252
15.6000 5.1837 0.4508
15.6200 5.1904 0.4266
15.6400 5.1971 0.4219
15.6600 5.2038 0.4441
15.6800 5.2104 0.4304
15.7000 5.2171 0.4232
15.7200 5.2238 0.4444
15.7400 5.2304 0.4241
15.7600 5.2371 0.4245
15.7800 5.2437 0.4428
15.8000 5.2504 0.4264
15.8200 5.2571 0.4290
15.8400 5.2638 0.4419
15.8600 5.2705 0.4206
15.8800 5.2771 0.4260
15.9000 5.2837 0.4442
15.9200 5.2903 0.4232
15.9400 5.2969 0.4248
15.9600 5.3036 0.4424
15.9800 5.3103 0.4283
16.0000 5.3171 0.4211
16.0200 5.3238 0.4403
16.0400 5.3305 0.4209
16.0600 5.3371 0.4221
16.0800 5.3437 0.4397
16.1000 5.3503 0.4237
16.1200 5.3570 0.4210
16.1400 5.3637 0.4429
16.1600 5.3704 0.4214
16.1800 5.3771 0.4169
16.2000 5.3838 0.4415
16.2200 5.3904 0.4219
16.2400 5.3971 0.4163
16.2600 5.4038 0.4370
16.2800 5.4104 0.4241
16.3000 5.4170 0.4196
16.3200 5.4237 0.4354
16.3400 5.4304 0.4171
16.3600 5.4371 0.4223
16.3800 5.4438 0.4400
16.4000 5.4505 0.4206
16.4200 5.4572 0.4208
16.4400 5.4638 0.4391
16.4600 5.4704 0.4173
16.4800 5.4770 0.4246
16.5000 5.4836 0.4412
16.5200 5.4904 0.4140
16.5400 5.4971 0.4218
16.5600 5.5038 0.4408
16.5800 5.5105 0.4154
16.6000 5.5171 0.4257
16.6200 5.5238 0.4388
16.6400 5.5303 0.4165
16.6600 5.5370 0.4198
16.6800 5.5436 0.4360
16.7000 5.5503 0.4161
16.7200 5.5570 0.4286
16.7400 5.5636 0.4306
16.7600 5.5703 0.4180
16.7800 5.5770 0.4305
16.8000 5.5838 0.4288
16.8200 5.5904 0.4143
16.8400 5.5971 0.4332
16.8600 5.6037 0.4306
16.8800 5.6104 0.4171
16.9000 5.6170 0.4312
16.9200 5.6237 0.4255
16.9400 5.6304 0.4235
16.9600 5.6371 0.4272
16.9800 5.6438 0.4212
17.0000 5.6504 0.4236
17.0200 5.6570 0.4306
17.0400 5.6637 0.4182
17.0600 5.6704 0.4315
17.0800 5.6771 0.4245
17.1000 5.6838 0.4168
17.1200 5.6905 0.4284
17.1400 5.6971 0.4273
17.1600 5.7038 0.4157
17.1800 5.7104 0.4289
17.2000 5.7170 0.4216
17.2200 5.7237 0.4148
17.2400 5.7304 0.4295
17.2600 5.7371 0.4242
17.2800 5.7438 0.4087
17.3000 5.7504 0.4324
17.3200 5.7571 0.4174
17.3400 5.7638 0.4129
17.3600 5.7704 0.4321
17.3800 5.7770 0.4129
17.4000 5.7836 0.4161
17.4200 5.7903 0.4341
17.4400 5.7970 0.4116
17.4600 5.8037 0.4119
17.4800 5.8104 0.4353
17.5000 5.8171 0.4082
17.5200 5.8237 0.4134
17.5400 5.8303 0.4300
17.5600 5.8369 0.4093
17.5800 5.8436 0.4208
17.6000 5.8503 0.4302
17.6200 5.8571 0.4065
17.6400 5.8638 0.4182
17.6600 5.8704 0.4250
17.6800 5.8771 0.4080
17.7000 5.8837 0.4217
17.7200 5.8904 0.4254
17.7400 5.8970 0.4037
17.7600 5.9037 0.4246
17.7800 5.9104 0.4187
17.8000 5.9171 0.4081
17.8200 5.9238 0.4272
17.8400 5.9304 0.4152
17.8600 5.9371 0.4093
17.8800 5.9438 0.4276
17.9000 5.9505 0.4114
17.9200 5.9571 0.4106
17.9400 5.9637 0.4282
17.9600 5.9704 0.4130
17.9800 5.9771 0.4158
18.0000 5.9838 0.4221
18.0200 5.9905 0.4071
18.0400 5.9971 0.4187
18.0600 6.0038 0.4225
18.0800 6.0104 0.4056
18.1000 6.0170 0.4222
18.1200 6.0236 0.4204
18.1400 6.0303 0.4056
18.1600 6.0371 0.4257
18.1800 6.0438 0.4178
18.2000 6.0504 0.4038
18.2200 6.0571 0.4274
18.2400 6.0638 0.4117
18.2600 6.0704 0.4086
18.2800 6.0770 0.4278
18.3000 6.0836 0.4117
18.3200 6.0903 0.4091
18.3400 6.0970 0.4259
18.3600 6.1037 0.4099
18.3800 6.1104 0.4111
18.4000 6.1171 0.4249
18.4200 6.1238 0.4063
18.4400 6.1305 0.4126
18.4600 6.1371 0.4249
18.4800 6.1437 0.4061
18.5000 6.1503 0.4154
18.5200 6.1571 0.4179
18.5400 6.1638 0.4036
18.5600 6.1705 0.4176
18.5800 6.1771 0.4186
18.6000 6.1838 0.4060
18.6200 6.1904 0.4158
18.6400 6.1970 0.4197
18.6600 6.2037 0.4028
18.6800 6.2104 0.4186
18.7000 6.2171 0.4118
18.7200 6.2238 0.4069
18.7400 6.2304 0.4113
18.7600 6.2371 0.4130
18.7800 6.2438 0.4075
18.8000 6.2504 0.4112
18.8200 6.2570 0.4122
18.8400 6.2637 0.4114
18.8600 6.2703 0.4079
18.8800 6.2770 0.4130
18.9000 6.2837 0.4083
18.9200 6.2904 0.4075
18.9400 6.2971 0.4148
18.9600 6.3038 0.4060
18.9800 6.3104 0.4055
19.0000 6.3170 0.4110
19.0200 6.3236 0.4117
19.0400 6.3303 0.4021
19.0600 6.3370 0.4083
19.0800 6.3437 0.4115
19.1000 6.3504 0.4081
19.1200 6.3571 0.4082
19.1400 6.3637 0.4073
19.1600 6.3704 0.4108
19.1800 6.3770 0.4102
19.2000 6.3837 0.4001
19.2200 6.3904 0.4103
19.2400 6.3971 0.4133
19.2600 6.4038 0.3971
19.2800 6.4105 0.4027
19.3000 6.4171 0.4167
19.3200 6.4238 0.3921
19.3400 6.4304 0.4086
19.3600 6.4370 0.4147
19.3800 6.4436 0.3940
19.4000 6.4503 0.4079
19.4200 6.4570 0.4144
19.4400 6.4637 0.3895
19.4600 6.4704 0.4052
19.4800 6.4771 0.4214
19.5000 6.4838 0.3959
19.5200 6.4905 0.3933
19.5400 6.4971 0.4136
19.5600 6.5036 0.4015
19.5800 6.5103 0.4003
19.6000 6.5170 0.4117
19.6200 6.5237 0.3965
19.6400 6.5304 0.4010
19.6600 6.5371 0.4090
19.6800 6.5438 0.3961
19.7000 6.5504 0.4001
19.7200 6.5570 0.4155
19.7400 6.5636 0.3894
19.7600 6.5703 0.3969
19.7800 6.5770 0.4164
19.8000 6.5837 0.3897
19.8200 6.5904 0.3936
19.8400 6.5970 0.4156
19.8600 6.6037 0.3874
19.8800 6.6104 0.3979
19.9000 6.6170 0.4139
19.9200 6.6236 0.3899
19.9400 6.6303 0.3962
19.9600 6.6370 0.4095
19.9800 6.6437 0.3911
20.0000 6.6504 0.3981
20.0200 6.6571 0.4100
20.0400 6.6638 0.3931
20.0600 6.6705 0.3979
20.0800 6.6771 0.4055
20.1000 6.6837 0.3934
20.1200 6.6904 0.4015
20.1400 6.6971 0.3998
20.1600 6.7038 0.3909
20.1800 6.7105 0.4017
20.2000 6.7171 0.3978
20.2200 6.7238 0.3931
20.2400 6.7304 0.3972
20.2600 6.7370 0.3988
20.2800 6.7436 0.3930
20.3000 6.7503 0.3981
20.3200 6.7570 0.3925
20.3400 6.7637 0.4021
20.3600 6.7704 0.3919
20.3800 6.7771 0.3954
20.4000 6.7837 0.3964
20.4200 6.7904 0.3932
20.4400 6.7970 0.3972
20.4600 6.8036 0.4030
20.4800 6.8103 0.3905
20.5000 6.8170 0.3941
20.5200 6.8237 0.3972
20.5400 6.8304 0.3887
20.5600 6.8371 0.3932
20.5800 6.8438 0.4026
20.6000 6.8505 0.3835
20.6200 6.8571 0.3915
20.6400 6.8637 0.4023
20.6600 6.8703 0.3852
20.6800 6.8771 0.3996
20.7000 6.8838 0.3966
20.7200 6.8905 0.3793
20.7400 6.8971 0.4023
20.7600 6.9038 0.3970
20.7800 6.9104 0.3791
20.8000 6.9170 0.4046
20.8200 6.9237 0.3903
20.8400 6.9303 0.3811
20.8600 6.9370 0.4028
20.8800 6.9438 0.3895
20.9000 6.9504 0.3810
20.9200 6.9571 0.4045
20.9400 6.9638 0.3831
20.9600 6.9705 0.3862
20.9800 6.9771 0.4016
21.0000 6.9837 0.3786
21.0200 6.9903 0.3900
21.0400 6.9970 0.4001
21.0600 7.0037 0.3779
21.0800 7.0104 0.3894
21.1000 7.0171 0.3981
21.1200 7.0238 0.3848
21.1400 7.0304 0.3876
21.1600 7.0370 0.3943
21.1800 7.0436 0.3845
21.2000 7.0502 0.3895
21.2200 7.0570 0.3954
21.2400 7.0637 0.3849
21.2600 7.0704 0.3928
21.2800 7.0771 0.3902
21.3000 7.0837 0.3898
21.3200 7.0904 0.3875
21.3400 7.0970 0.3895
21.3600 7.1036 0.3961
21.3800 7.1103 0.3898
21.4000 7.1170 0.3848
21.4200 7.1237 0.3938
21.4400 7.1304 0.3847
21.4600 7.1371 0.3888
21.4800 7.1438 0.3905
21.5000 7.1505 0.3832
21.5200 7.1571 0.3900
21.5400 7.1637 0.3927
21.5600 7.1703 0.3811
21.5800 7.1770 0.3905
21.6000 7.1837 0.3940
21.6200 7.1904 0.3778
21.6400 7.1971 0.3852
21.6600 7.2038 0.3921
21.6800 7.2105 0.3819
21.7000 7.2171 0.3856
21.7200 7.2237 0.3877
21.7400 7.2303 0.3854
21.7600 7.2370 0.3918
21.7800 7.2438 0.3838
21.8000 7.2504 0.3835
21.8200 7.2571 0.3888
21.8400 7.2638 0.3840
21.8600 7.2704 0.3806
21.8800 7.2770 0.3905
21.9000 7.2836 0.3825
21.9200 7.2903 0.3840
21.9400 7.2970 0.3867
21.9600 7.3037 0.3842
21.9800 7.3104 0.3832
22.0000 7.3170 0.3873
22.0200 7.3237 0.3812
22.0400 7.3304 0.3825
22.0600 7.3370 0.3840
22.0800 7.3437 0.3865
22.1000 7.3503 0.3816
22.1200 7.3570 0.3866
22.1400 7.3637 0.3853
22.1600 7.3704 0.3802
22.1800 7.3771 0.3844
22.2000 7.3838 0.3854
22.2200 7.3905 0.3787
22.2400 7.3971 0.3789
22.2600 7.4037 0.3871
22.2800 7.4103 0.3804
22.3000 7.4171 0.3763
22.3200 7.4238 0.3896
22.3400 7.4305 0.3789
22.3600 7.4371 0.3753
22.3800 7.4438 0.3925
22.4000 7.4504 0.3764
22.4200 7.4570 0.3750
22.4400 7.4637 0.3910
22.4600 7.4703 0.3780
22.4800 7.4770 0.3762
22.5000 7.4837 0.3904
22.5200 7.4904 0.3737
22.5400 7.4971 0.3818
22.5600 7.5037 0.3901
22.5800 7.5104 0.3710
22.6000 7.5170 0.3711
22.6200 7.5236 0.3891
22.6400 7.5303 0.3758
22.6600 7.5370 0.3761
22.6800 7.5437 0.3845
22.7000 7.5504 0.3704
22.7200 7.5571 0.3768
22.7400 7.5638 0.3877
22.7600 7.5704 0.3731
22.7800 7.5770 0.3788
22.8000 7.5837 0.3815
22.8200 7.5903 0.3721
22.8400 7.5970 0.3808
22.8600 7.6037 0.3752
22.8800 7.6104 0.3742
22.9000 7.6171 0.3799
22.9200 7.6238 0.3763
22.9400 7.6305 0.3744
22.9600 7.6371 0.3788
22.9800 7.6437 0.3707
23.0000 7.6504 0.3771
23.0200 7.6570 0.3792
23.0400 7.6637 0.3749
23.0600 7.6704 0.3753
23.0800 7.6771 0.3793
23.1000 7.6838 0.3716
23.1200 7.6905 0.3773
23.1400 7.6971 0.3775
23.1600 7.7037 0.3702
23.1800 7.7103 0.3823
23.2000 7.7170 0.3744
23.2200 7.7237 0.3633
23.2400 7.7304 0.3829
23.2600 7.7371 0.3734
23.2800 7.7438 0.3631
23.3000 7.7504 0.3866
23.3200 7.7570 0.3742
23.3400 7.7636 0.3641
23.3600 7.7703 0.3893
23.3800 7.7770 0.3725
23.4000 7.7837 0.3583
23.4200 7.7904 0.3895
23.4400 7.7970 0.3619
23.4600 7.8037 0.3632
23.4800 7.8104 0.3935
23.5000 7.8170 0.3576
23.5200 7.8237 0.3613
23.5400 7.8303 0.3947
23.5600 7.8370 0.3577
23.5800 7.8437 0.3652
23.6000 7.8504 0.3883
23.6200 7.8571 0.3620
23.6400 7.8638 0.3658
23.6600 7.8705 0.3875
23.6800 7.8771 0.3554
23.7000 7.8837 0.3727
23.7200 7.8903 0.3847
23.7400 7.8970 0.3547
23.7600 7.9037 0.3730
23.7800 7.9104 0.3809
23.8000 7.9171 0.3556
23.8200 7.9238 0.3733
23.8400 7.9305 0.3772
23.8600 7.9371 0.3572
23.8800 7.9437 0.3746
23.9000 7.9503 0.3769
23.9200 7.9570 0.3596
23.9400 7.9637 0.3711
23.9600 7.9704 0.3763
23.9800 7.9771 0.3573
24.0000 7.9838 0.3707
24.0200 7.9905 0.3731
24.0400 7.9971 0.3605
24.0600 8.0037 0.3712
24.0800 8.0103 0.3766
24.1000 8.0170 0.3587
24.1200 8.0237 0.3723
24.1400 8.0304 0.3720
24.1600 8.0371 0.3650
24.1800 8.0437 0.3682
24.2000 8.0504 0.3707
24.2200 8.0570 0.3660
24.2400 8.0637 0.3677
24.2600 8.0703 0.3700
24.2800 8.0770 0.3652
24.3000 8.0837 0.3655
24.3200 8.0904 0.3685
24.3400 8.0971 0.3610
24.3600 8.1038 0.3671
24.3800 8.1105 0.3698
24.4000 8.1171 0.3625
24.4200 8.1237 0.3697
24.4400 8.1303 0.3698
24.4600 8.1370 0.3597
24.4800 8.1438 0.3667
24.5000 8.1505 0.3668
24.5200 8.1572 0.3581
24.5400 8.1638 0.3694
24.5600 8.1705 0.3648
24.5800 8.1771 0.3582
24.6000 8.1837 0.3659
24.6200 8.1903 0.3647
24.6400 8.1970 0.3592
24.6600 8.2037 0.3701
24.6800 8.2104 0.3575
24.7000 8.2170 0.3593
24.7200 8.2237 0.3671
24.7400 8.2304 0.3605
24.7600 8.2371 0.3623
24.7800 8.2437 0.3623
24.8000 8.2503 0.3608
24.8200 8.2570 0.3615
24.8400 8.2637 0.3637
24.8600 8.2704 0.3573
24.8800 8.2771 0.3568
24.9000 8.2837 0.3616
24.9200 8.2904 0.3555
24.9400 8.2971 0.3598
24.9600 8.3037 0.3633
24.9800 8.3103 0.3597
25.0000 8.3170 0.3572
25.0200 8.3237 0.3585
25.0400 8.3304 0.3619
25.0600 8.3371 0.3541
25.0800 8.3438 0.3654
25.1000 8.3505 0.3579
25.1200 8.3571 0.3512
25.1400 8.3637 0.3585
25.1600 8.3703 0.3640
25.1800 8.3770 0.3532
25.2000 8.3837 0.3559
25.2200 8.3904 0.3591
25.2400 8.3971 0.3560
25.2600 8.4038 0.3567
25.2800 8.4105 0.3561
25.3000 8.4171 0.3486
25.3200 8.4237 0.3614
25.3400 8.4303 0.3575
25.3600 8.4370 0.3531
25.3800 8.4437 0.3593
25.4000 8.4504 0.3588
25.4200 8.4571 0.3560
25.4400 8.4638 0.3571
25.4600 8.4704 0.3561
25.4800 8.4771 0.3529
25.5000 8.4837 0.3594
25.5200 8.4903 0.3556
25.5400 8.4969 0.3553
25.5600 8.5036 0.3550
25.5800 8.5103 0.3555
25.6000 8.5170 0.3545
25.6200 8.5237 0.3611
25.6400 8.5304 0.3537
25.6600 8.5371 0.3545
25.6800 8.5437 0.3572
25.7000 8.5503 0.3588
25.7200 8.5570 0.3496
25.7400 8.5637 0.3553
25.7600 8.5704 0.3581
25.7800 8.5771 0.3477
25.8000 8.5838 0.3540
25.8200 8.5905 0.3567
25.8400 8.5971 0.3450
25.8600 8.6037 0.3549
25.8800 8.6103 0.3590
25.9000 8.6170 0.3461
25.9200 8.6237 0.3531
25.9400 8.6304 0.3586
25.9600 8.6371 0.3415
25.9800 8.6438 0.3555
26.0000 8.6505 0.3533
26.0200 8.6571 0.3424
26.0400 8.6637 0.3621
26.0600 8.6703 0.3472
26.0800 8.6770 0.3467
26.1000 8.6837 0.3596
26.1200 8.6904 0.3446
26.1400 8.6970 0.3457
26.1600 8.7037 0.3590
26.1800 8.7104 0.3440
26.2000 8.7171 0.3475
26.2200 8.7237 0.3544
26.2400 8.7303 0.3427
26.2600 8.7369 0.3512
26.2800 8.7436 0.3575
26.3000 8.7503 0.3403
26.3200 8.7570 0.3508
26.3400 8.7637 0.3507
26.3600 8.7704 0.3444
26.3800 8.7771 0.3496
26.4000 8.7837 0.3475
26.4200 8.7903 0.3431
26.4400 8.7970 0.3538
26.4600 8.8037 0.3445
26.4800 8.8104 0.3468
26.5000 8.8171 0.3538
26.5200 8.8238 0.3422
26.5400 8.8305 0.3455
26.5600 8.8371 0.3466
26.5800 8.8438 0.3432
26.6000 8.8504 0.3455
26.6200 8.8570 0.3464
26.6400 8.8637 0.3369
26.6600 8.8704 0.3512
26.6800 8.8771 0.3457
26.7000 8.8838 0.3379
26.7200 8.8905 0.3438
26.7400 8.8971 0.3448
26.7600 8.9038 0.3371
26.7800 8.9103 0.3468
26.8000 8.9170 0.3421
26.8200 8.9237 0.3383
26.8400 8.9304 0.3400
26.8600 8.9371 0.3449
26.8800 8.9438 0.3364
26.9000 8.9504 0.3490
26.9200 8.9571 0.3391
26.9400 8.9637 0.3367
26.9600 8.9703 0.3452
26.9800 8.9770 0.3406
27.0000 8.9837 0.3377
27.0200 8.9904 0.3382
27.0400 8.9970 0.3415
27.0600 9.0037 0.3366
27.0800 9.0104 0.3372
27.1000 9.0171 0.3423
27.1200 9.0237 0.3369
27.1400 9.0303 0.3360
27.1600 9.0370 0.3406
27.1800 9.0437 0.3401
27.2000 9.0504 0.3358
27.2200 9.0571 0.3392
27.2400 9.0638 0.3409
27.2600 9.0705 0.3287
27.2800 9.0771 0.3407
27.3000 9.0838 0.3401
27.3200 9.0903 0.3324
27.3400 9.0970 0.3372
27.3600 9.1037 0.3418
27.3800 9.1104 0.3293
27.4000 9.1171 0.3412
27.4200 9.1238 0.3437
27.4400 9.1305 0.3262
27.4600 9.1371 0.3356
27.4800 9.1437 0.3424
27.5000 9.1503 0.3261
27.5200 9.1570 0.3420
27.5400 9.1637 0.3390
27.5600 9.1704 0.3236
27.5800 9.1771 0.3427
27.6000 9.1838 0.3422
27.6200 9.1904 0.3251
27.6400 9.1971 0.3417
27.6600 9.2037 0.3438
27.6800 9.2103 0.3205
27.7000 9.2169 0.3407
27.7200 9.2236 0.3422
27.7400 9.2303 0.3208
27.7600 9.2370 0.3410
27.7800 9.2437 0.3400
27.8000 9.2504 0.3196
27.8200 9.2571 0.3407
27.8400 9.2637 0.3336
27.8600 9.2703 0.3245
27.8800 9.2770 0.3439
27.9000 9.2837 0.3335
27.9200 9.2904 0.3216
27.9400 9.2971 0.3448
27.9600 9.3038 0.3298
27.9800 9.3105 0.3252
28.0000 9.3171 0.3464
28.0200 9.3238 0.3271
28.0400 9.3304 0.3233
28.0600 9.3370 0.3493
28.0800 9.3437 0.3272
28.1000 9.3504 0.3228
28.1200 9.3571 0.3468
28.1400 9.3638 0.3276
28.1600 9.3704 0.3231
28.1800 9.3771 0.3439
28.2000 9.3837 0.3290
28.2200 9.3903 0.3208
28.2400 9.3969 0.3483
28.2600 9.4036 0.3224
28.2800 9.4104 0.3230
28.3000 9.4171 0.3453
28.3200 9.4238 0.3242
28.3400 9.4304 0.3246
28.3600 9.4371 0.3394
28.3800 9.4437 0.3210
28.4000 9.4503 0.3272
28.4200 9.4569 0.3359
28.4400 9.4636 0.3253
28.4600 9.4704 0.3265
28.4800 9.4771 0.3396
28.5000 9.4838 0.3196
28.5200 9.4904 0.3233
28.5400 9.4971 0.3384
28.5600 9.5037 0.3256
28.5800 9.5104 0.3257
28.6000 9.5170 0.3354
28.6200 9.5237 0.3233
28.6400 9.5304 0.3254
28.6600 9.5371 0.3318
28.6800 9.5438 0.3270
28.7000 9.5505 0.3244
28.7200 9.5571 0.3334
28.7400 9.5638 0.3209
28.7600 9.5704 0.3202
28.7800 9.5770 0.3369
28.8000 9.5837 0.3199
28.8200 9.5904 0.3237
28.8400 9.5971 0.3315
28.8600 9.6038 0.3214
28.8800 9.6105 0.3245
28.9000 9.6172 0.3342
28.9200 9.6238 0.3144
28.9400 9.6304 0.3274
28.9600 9.6370 0.3310
28.9800 9.6436 0.3142
29.0000 9.6503 0.3248
29.0200 9.6570 0.3315
29.0400 9.6637 0.3147
29.0600 9.6704 0.3246
29.0800 9.6771 0.3266
29.1000 9.6837 0.3168
29.1200 9.6903 0.3235
29.1400 9.6970 0.3261
29.1600 9.7036 0.3164
29.1800 9.7104 0.3259
29.2000 9.7171 0.3236
29.2200 9.7237 0.3122
29.2400 9.7304 0.3282
29.2600 9.7371 0.3218
29.2800 9.7437 0.3146
29.3000 9.7504 0.3240
29.3200 9.7570 0.3230
29.3400 9.7637 0.3151
29.3600 9.7704 0.3251
29.3800 9.7771 0.3209
29.4000 9.7838 0.3162
29.4200 9.7905 0.3182
29.4400 9.7971 0.3230
29.4600 9.8038 0.3154
29.4800 9.8103 0.3243
29.5000 9.8170 0.3161
29.5200 9.8237 0.3178
29.5400 9.8304 0.3196
29.5600 9.8371 0.3173
29.5800 9.8438 0.3129
29.6000 9.8504 0.3193
29.6200 9.8571 0.3197
29.6400 9.8638 0.3127
29.6600 9.8704 0.3195
29.6800 9.8770 0.3215
29.7000 9.8837 0.3118
29.7200 9.8904 0.3216
29.7400 9.8970 0.3148
29.7600 9.9037 0.3106
29.7800 9.9104 0.3205
29.8000 9.9171 0.3133
29.8200 9.9237 0.3124
29.8400 9.9303 0.3159
29.8600 9.9369 0.3117
29.8800 9.9436 0.3124
29.9000 9.9503 0.3272
29.9200 9.9570 0.3103
29.9400 9.9637 0.3087
29.9600 9.9704 0.3217
29.9800 9.9771 0.3119
30.0000 9.9837 0.3025
30.0200 9.9903 0.3254
30.0400 9.9970 0.3114
30.0600 10.0037 0.3041
30.0800 10.0104 0.3184
30.1000 10.0171 0.3089
30.1200 10.0238 0.3060
30.1400 10.0304 0.3257
30.1600 10.0371 0.3089
30.1800 10.0438 0.3031
30.2000 10.0504 0.3277
30.2200 10.0570 0.3088
30.2400 10.0637 0.3028
30.2600 10.0704 0.3240
30.2800 10.0771 0.3067
30.3000 10.0838 0.3099
30.3200 10.0905 0.3145
30.3400 10.0971 0.3049
30.3600 10.1038 0.3139
30.3800 10.1104 0.3116
30.4000 10.1170 0.3044
30.4200 10.1236 0.3111
30.4400 10.1303 0.3162
30.4600 10.1370 0.3024
30.4800 10.1437 0.3130
30.5000 10.1504 0.3119
30.5200 10.1571 0.3049
30.5400 10.1637 0.3132
30.5600 10.1703 0.3108
30.5800 10.1769 0.3044
30.6000 10.1836 0.3200
30.6200 10.1904 0.3099
30.6400 10.1971 0.3052
30.6600 10.2038 0.3111
30.6800 10.2104 0.3080
30.7000 10.2171 0.3054
30.7200 10.2238 0.3126
30.7400 10.2304 0.3071
30.7600 10.2370 0.3087
30.7800 10.2437 0.3110
30.8000 10.2504 0.3089
30.8200 10.2571 0.3079
30.8400 10.2638 0.3057
30.8600 10.2704 0.3147
30.8800 10.2771 0.3060
30.9000 10.2838 0.3027
30.9200 10.2904 0.3116
30.9400 10.2970 0.3066
30.9600 10.3036 0.3027
30.9800 10.3104 0.3143
31.0000 10.3171 0.3049
31.0200 10.3238 0.3030
31.0400 10.3304 0.3095
31.0600 10.3371 0.3040
31.0800 10.3438 0.2978
31.1000 10.3504 0.3184
31.1200 10.3570 0.3024
31.1400 10.3636 0.3033
31.1600 10.3703 0.3146
31.1800 10.3771 0.2951
31.2000 10.3837 0.2989
31.2200 10.3904 0.3174
31.2400 10.3971 0.2964
31.2600 10.4038 0.2996
31.2800 10.4104 0.3077
31.3000 10.4170 0.2970
31.3200 10.4236 0.3042
31.3400 10.4303 0.3104
31.3600 10.4370 0.2978
31.3800 10.4437 0.3046
31.4000 10.4504 0.3091
31.4200 10.4571 0.2953
31.4400 10.4638 0.3016
31.4600 10.4704 0.3072
31.4800 10.4770 0.3019
31.5000 10.4836 0.3022
31.5200 10.4903 0.3062
31.5400 10.4971 0.3033
31.5600 10.5038 0.3029
31.5800 10.5105 0.3049
31.6000 10.5171 0.3020
31.6200 10.5238 0.3005
31.6400 10.5304 0.3057
31.6600 10.5370 0.2950
31.6800 10.5437 0.3048
31.7000 10.5504 0.3051
31.7200 10.5571 0.2968
31.7400 10.5638 0.3000
31.7600 10.5704 0.3065
31.7800 10.5771 0.3000
31.8000 10.5838 0.2991
31.8200 10.5904 0.3051
31.8400 10.5970 0.2978
31.8600 10.6037 0.3020
31.8800 10.6103 0.3077
31.9000 10.6170 0.2922
31.9200 10.6237 0.2989
31.9400 10.6304 0.3044
31.9600 10.6371 0.2951
31.9800 10.6438 0.3026
32.0000 10.6504 0.2985
32.0200 10.6570 0.2976
32.0400 10.6636 0.3000
32.0600 10.6703 0.3032
32.0800 10.6770 0.2951
32.1000 10.6837 0.3048
32.1200 10.6904 0.3042
32.1400 10.6971 0.2947
32.1600 10.7038 0.3029
32.1800 10.7104 0.3059
32.2000 10.7170 0.2923
32.2200 10.7237 0.3010
32.2400 10.7304 0.3025
32.2600 10.7371 0.2947
32.2800 10.7438 0.2975
32.3000 10.7504 0.3008
32.3200 10.7571 0.2930
32.3400 10.7638 0.2965
32.3600 10.7705 0.2978
32.3800 10.7771 0.2930
32.4000 10.7837 0.2992
32.4200 10.7904 0.2989
32.4400 10.7971 0.2924
32.4600 10.8038 0.2946
32.4800 10.8104 0.2969
32.5000 10.8171 0.2897
32.5200 10.8238 0.2959
32.5400 10.8304 0.2961
32.5600 10.8370 0.2944
32.5800 10.8436 0.2968
32.6000 10.8503 0.2925
32.6200 10.8570 0.2925
32.6400 10.8638 0.3002
32.6600 10.8704 0.2914
32.6800 10.8771 0.2947
32.7000 10.8838 0.2915
32.7200 10.8904 0.2914
32.7400 10.8970 0.2956
32.7600 10.9036 0.2952
32.7800 10.9103 0.2866
32.8000 10.9170 0.2966
32.8200 10.9237 0.2919
32.8400 10.9304 0.2910
32.8600 10.9371 0.2988
32.8800 10.9438 0.2918
32.9000 10.9504 0.2884
32.9200 10.9570 0.2971
32.9400 10.9637 0.2874
32.9600 10.9703 0.2944
32.9800 10.9770 0.3008
33.0000 10.9837 0.2804
33.0200 10.9904 0.2954
33.0400 10.9971 0.2979
33.0600 11.0038 0.2803
33.0800 11.0104 0.2939
33.1000 11.0170 0.2977
33.1200 11.0237 0.2852
33.1400 11.0303 0.2936
33.1600 11.0371 0.2869
33.1800 11.0438 0.2866
33.2000 11.0505 0.2981
33.2200 11.0571 0.2851
33.2400 11.0638 0.2859
33.2600 11.0705 0.2981
33.2800 11.0770 0.2812
33.3000 11.0837 0.2911
33.3200 11.0903 0.2932
33.3400 11.0970 0.2856
33.3600 11.1037 0.2910
33.3800 11.1104 0.2906
33.4000 11.1171 0.2852
33.4200 11.1238 0.2922
33.4400 11.1304 0.2815
33.4600 11.1370 0.2915
33.4800 11.1436 0.2909
33.5000 11.1503 0.2831
33.5200 11.1570 0.2919
33.5400 11.1637 0.2843
33.5600 11.1704 0.2831
33.5800 11.1771 0.2959
33.6000 11.1838 0.2852
33.6200 11.1904 0.2806
33.6400 11.1970 0.2980
33.6600 11.2036 0.2835
33.6800 11.2103 0.2839
33.7000 11.2171 0.2923
33.7200 11.2238 0.2817
33.7400 11.2305 0.2825
33.7600 11.2371 0.2941
33.7800 11.2438 0.2746
33.8000 11.2504 0.2849
33.8200 11.2570 0.2954
33.8400 11.2636 0.2828
33.8600 11.2703 0.2873
33.8800 11.2770 0.2872
33.9000 11.2837 0.2797
33.9200 11.2904 0.2869
33.9400 11.2971 0.2851
33.9600 11.3038 0.2794
33.9800 11.3105 0.2902
34.0000 11.3171 0.2840
34.0200 11.3237 0.2762
34.0400 11.3303 0.2912
34.0600 11.3370 0.2829
34.0800 11.3437 0.2752
34.1000 11.3504 0.2958
34.1200 11.3571 0.2760
34.1400 11.3638 0.2772
34.1600 11.3705 0.2907
34.1800 11.3770 0.2726
34.2000 11.3836 0.2816
34.2200 11.3903 0.2946
34.2400 11.3970 0.2678
34.2600 11.4037 0.2857
34.2800 11.4104 0.2920
34.3000 11.4170 0.2691
34.3200 11.4237 0.2850
34.3400 11.4304 0.2879
34.3600 11.4370 0.2705
34.3800 11.4437 0.2907
34.4000 11.4503 0.2799
34.4200 11.4571 0.2719
34.4400 11.4637 0.2918
34.4600 11.4704 0.2779
34.4800 11.4771 0.2723
34.5000 11.4838 0.2938
34.5200 11.4905 0.2722
34.5400 11.4971 0.2745
34.5600 11.5037 0.2965
34.5800 11.5103 0.2694
34.6000 11.5170 0.2769
34.6200 11.5238 0.2896
34.6400 11.5304 0.2663
34.6600 11.5371 0.2785
34.6800 11.5438 0.2927
34.7000 11.5504 0.2620
34.7200 11.5570 0.2863
34.7400 11.5636 0.2877
34.7600 11.5703 0.2653
34.7800 11.5770 0.2861
34.8000 11.5837 0.2862
34.8200 11.5904 0.2586
34.8400 11.5971 0.2875
34.8600 11.6037 0.2864
34.8800 11.6104 0.2615
34.9000 11.6170 0.2837
34.9200 11.6236 0.2866
34.9400 11.6303 0.2605
34.9600 11.6370 0.2857
34.9800 11.6437 0.2793
35.0000 11.6504 0.2631
35.0200 11.6571 0.2870
35.0400 11.6638 0.2798
35.0600 11.6705 0.2593
35.0800 11.6771 0.2883
35.1000 11.6837 0.2766
35.1200 11.6903 0.2646
35.1400 11.6970 0.2927
35.1600 11.7037 0.2722
35.1800 11.7104 0.2648
35.2000 11.7171 0.2873
35.2200 11.7238 0.2728
35.2400 11.7305 0.2605
35.2600 11.7371 0.2871
35.2800 11.7437 0.2714
35.3000 11.7503 0.2655
35.3200 11.7570 0.2856
35.3400 11.7638 0.2725
35.3600 11.7704 0.2620
35.3800 11.7771 0.2884
35.4000 11.7838 0.2689
35.4200 11.7905 0.2638
35.4400 11.7971 0.2840
35.4600 11.8037 0.2711
35.4800 11.8103 0.2653
35.5000 11.8170 0.2841
35.5200 11.8237 0.2674
35.5400 11.8304 0.2634
35.5600 11.8371 0.2858
35.5800 11.8438 0.2660
35.6000 11.8505 0.2627
35.6200 11.8571 0.2806
35.6400 11.8636 0.2685
35.6600 11.8703 0.2694
35.6800 11.8770 0.2808
35.7000 11.8837 0.2686
35.7200 11.8904 0.2689
35.7400 11.8971 0.2754
35.7600 11.9037 0.2688
35.7800 11.9104 0.2669
35.8000 11.9170 0.2765
35.8200 11.9237 0.2649
35.8400 11.9303 0.2656
35.8600 11.9370 0.2770
35.8800 11.9437 0.2705
35.9000 11.9504 0.2614
35.9200 11.9571 0.2744
35.9400 11.9638 0.2702
35.9600 11.9705 0.2640
35.9800 11.9771 0.2675
36.0000 11.9837 0.2702
36.0200 11.9903 0.2675
36.0400 11.9970 0.2717
36.0600 12.0037 0.2695
36.0800 12.0104 0.2616
36.1000 12.0171 0.2712
36.1200 12.0238 0.2667
36.1400 12.0305 0.2576
36.1600 12.0371 0.2693
36.1800 12.0436 0.2703
36.2000 12.0503 0.2625
36.2200 12.0570 0.2683
36.2400 12.0637 0.2663
36.2600 12.0704 0.2613
36.2800 12.0771 0.2674
36.3000 12.0838 0.2666
36.3200 12.0904 0.2568
36.3400 12.0971 0.2694
36.3600 12.1037 0.2662
36.3800 12.1103 0.2625
36.4000 12.1170 0.2610
36.4200 12.1237 0.2633
36.4400 12.1304 0.2589
36.4600 12.1370 0.2650
36.4800 12.1437 0.2630
36.5000 12.1504 0.2601
36.5200 12.1571 0.2619
36.5400 12.1637 0.2662
36.5600 12.1703 0.2620
36.5800 12.1770 0.2626
36.6000 12.1837 0.2630
36.6200 12.1904 0.2627
36.6400 12.1971 0.2591
36.6600 12.2038 0.2631
36.6800 12.2105 0.2636
36.7000 12.2171 0.2584
36.7200 12.2237 0.2612
36.7400 12.2303 0.2652
36.7600 12.2370 0.2607
36.7800 12.2438 0.2596
36.8000 12.2505 0.2648
36.8200 12.2571 0.2538
36.8400 12.2638 0.2665
36.8600 12.2704 0.2618
36.8800 12.2770 0.2518
36.9000 12.2837 0.2712
36.9200 12.2903 0.2627
36.9400 12.2970 0.2498
36.9600 12.3037 0.2722
36.9800 12.3104 0.2547
37.0000 12.3171 0.2521
37.0200 12.3237 0.2702
37.0400 12.3304 0.2554
37.0600 12.3370 0.2484
37.0800 12.3436 0.2777
37.1000 12.3503 0.2471
37.1200 12.3570 0.2513
37.1400 12.3637 0.2779
37.1600 12.3704 0.2464
37.1800 12.3771 0.2562
37.2000 12.3838 0.2736
37.2200 12.3905 0.2458
37.2400 12.3971 0.2569
37.2600 12.4037 0.2716
37.2800 12.4103 0.2448
37.3000 12.4170 0.2605
37.3200 12.4237 0.2638
37.3400 12.4304 0.2437
37.3600 12.4371 0.2604
37.3800 12.4438 0.2635
37.4000 12.4505 0.2457
37.4200 12.4571 0.2596
37.4400 12.4637 0.2598
37.4600 12.4703 0.2479
37.4800 12.4770 0.2567
37.5000 12.4837 0.2640
37.5200 12.4904 0.2445
37.5400 12.4971 0.2559
37.5600 12.5038 0.2614
37.5800 12.5105 0.2414
37.6000 12.5171 0.2589
37.6200 12.5237 0.2616
37.6400 12.5303 0.2416
37.6600 12.5370 0.2563
37.6800 12.5437 0.2611
37.7000 12.5504 0.2409
37.7200 12.5571 0.2546
37.7400 12.5638 0.2599
37.7600 12.5704 0.2368
37.7800 12.5771 0.2556
37.8000 12.5836 0.2570
37.8200 12.5903 0.2383
37.8400 12.5969 0.2635
37.8600 12.6037 0.2500
37.8800 12.6103 0.2362
37.9000 12.6170 0.2612
37.9200 12.6237 0.2561
37.9400 12.6304 0.2362
37.9600 12.6371 0.2628
37.9800 12.6437 0.2507
38.0000 12.6503 0.2361
38.0200 12.6570 0.2600
38.0400 12.6637 0.2461
38.0600 12.6704 0.2359
38.0800 12.6771 0.2658
38.1000 12.6838 0.2391
38.1200 12.6905 0.2397
38.1400 12.6971 0.2614
38.1600 12.7037 0.2439
38.1800 12.7103 0.2392
38.2000 12.7170 0.2592
38.2200 12.7237 0.2462
38.2400 12.7304 0.2395
38.2600 12.7371 0.2559
38.2800 12.7438 0.2387
38.3000 12.7505 0.2417
38.3200 12.7571 0.2548
38.3400 12.7637 0.2384
38.3600 12.7703 0.2448
38.3800 12.7770 0.2595
38.4000 12.7837 0.2373
38.4200 12.7904 0.2406
38.4400 12.7971 0.2502
38.4600 12.8038 0.2425
38.4800 12.8105 0.2404
38.5000 12.8171 0.2523
38.5200 12.8237 0.2366
38.5400 12.8303 0.2465
38.5600 12.8370 0.2534
38.5800 12.8437 0.2358
38.6000 12.8504 0.2436
38.6200 12.8570 0.2515
38.6400 12.8637 0.2356
38.6600 12.8704 0.2473
38.6800 12.8770 0.2439
38.7000 12.8837 0.2334
38.7200 12.8903 0.2451
38.7400 12.8970 0.2471
38.7600 12.9037 0.2309
38.7800 12.9104 0.2457
38.8000 12.9171 0.2454
38.8200 12.9238 0.2290
38.8400 12.9305 0.2465
38.8600 12.9371 0.2426
38.8800 12.9437 0.2327
38.9000 12.9503 0.2464
38.9200 12.9570 0.2427
38.9400 12.9637 0.2277
38.9600 12.9705 0.2467
38.9800 12.9771 0.2394
39.0000 12.9838 0.2263
39.0200 12.9905 0.2475
39.0400 12.9971 0.2416
39.0600 13.0037 0.2246
39.0800 13.0103 0.2487
39.1000 13.0170 0.2391
39.1200 13.0237 0.2275
39.1400 13.0303 0.2486
39.1600 13.0370 0.2379
39.1800 13.0437 0.2296
39.2000 13.0504 0.2470
39.2200 13.0571 0.2327
39.2400 13.0637 0.2263
39.2600 13.0703 0.2531
39.2800 13.0770 0.2350
39.3000 13.0837 0.2259
39.3200 13.0904 0.2502
39.3400 13.0971 0.2320
39.3600 13.1038 0.2287
39.3800 13.1104 0.2506
39.4000 13.1171 0.2268
39.4200 13.1237 0.2325
39.4400 13.1303 0.2506
39.4600 13.1370 0.2276
39.4800 13.1437 0.2313
39.5000 13.1504 0.2520
39.5200 13.1571 0.2269
39.5400 13.1638 0.2370
39.5600 13.1704 0.2426
39.5800 13.1771 0.2294
39.6000 13.1837 0.2346
39.6200 13.1903 0.2398
39.6400 13.1970 0.2280
39.6600 13.2037 0.2362
39.6800 13.2104 0.2448
39.7000 13.2171 0.2317
39.7200 13.2238 0.2364
39.7400 13.2304 0.2417
39.7600 13.2371 0.2267
39.7800 13.2437 0.2368
39.8000 13.2503 0.2461
39.8200 13.2570 0.2311
39.8400 13.2637 0.2363
39.8600 13.2704 0.2373
39.8800 13.2771 0.2328
39.9000 13.2838 0.2310
39.9200 13.2905 0.2370
39.9400 13.2971 0.2310
39.9600 13.3037 0.2319
39.9800 13.3102 0.2348
40.0000 13.3169 0.2333
40.0200 13.3237 0.2289
40.0400 13.3304 0.2399
40.0600 13.3371 0.2264
40.0800 13.3437 0.2323
40.1000 13.3504 0.2366
40.1200 13.3571 0.2294
40.1400 13.3637 0.2314
40.1600 13.3703 0.2353
40.1800 13.3770 0.2269
40.2000 13.3837 0.2315
40.2200 13.3904 0.2352
40.2400 13.3971 0.2304
40.2600 13.4038 0.2307
40.2800 13.4105 0.2361
40.3000 13.4171 0.2271
40.3200 13.4237 0.2300
40.3400 13.4303 0.2378
40.3600 13.4370 0.2296
40.3800 13.4437 0.2284
40.4000 13.4505 0.2360
40.4200 13.4571 0.2287
40.4400 13.4638 0.2275
40.4600 13.4705 0.2401
40.4800 13.4771 0.2218
40.5000 13.4837 0.2279
40.5200 13.4903 0.2379
40.5400 13.4970 0.2287
40.5600 13.5037 0.2295
40.5800 13.5104 0.2370
40.6000 13.5171 0.2232
40.6200 13.5237 0.2333
40.6400 13.5304 0.2375
40.6600 13.5371 0.2293
40.6800 13.5437 0.2272
40.7000 13.5503 0.2359
40.7200 13.5569 0.2289
40.7400 13.5636 0.2294
40.7600 13.5703 0.2358
40.7800 13.5770 0.2293
40.8000 13.5837 0.2278
40.8200 13.5904 0.2341
40.8400 13.5971 0.2238
40.8600 13.6038 0.2278
40.8800 13.6103 0.2389
40.9000 13.6170 0.2262
40.9200 13.6237 0.2245
40.9400 13.6304 0.2381
40.9600 13.6371 0.2263
40.9800 13.6438 0.2253
41.0000 13.6505 0.2394
41.0200 13.6571 0.2244
41.0400 13.6638 0.2294
41.0600 13.6704 0.2354
41.0800 13.6770 0.2253
41.1000 13.6837 0.2308
41.1200 13.6903 0.2377
41.1400 13.6970 0.2164
41.1600 13.7037 0.2348
41.1800 13.7105 0.2354
41.2000 13.7172 0.2162
41.2200 13.7238 0.2330
41.2400 13.7304 0.2315
41.2600 13.7370 0.2171
41.2800 13.7436 0.2352
41.3000 13.7504 0.2289
41.3200 13.7571 0.2164
41.3400 13.7637 0.2346
41.3600 13.7704 0.2281
41.3800 13.7771 0.2183
41.4000 13.7837 0.2320
41.4200 13.7903 0.2254
41.4400 13.7969 0.2158
41.4600 13.8036 0.2359
41.4800 13.8104 0.2221
41.5000 13.8171 0.2186
41.5200 13.8237 0.2346
41.5400 13.8304 0.2197
41.5600 13.8371 0.2168
41.5800 13.8437 0.2288
41.6000 13.8504 0.2186
41.6200 13.8570 0.2251
41.6400 13.8637 0.2250
41.6600 13.8704 0.2224
41.6800 13.8771 0.2163
41.7000 13.8838 0.2235
41.7200 13.8905 0.2219
41.7400 13.8971 0.2216
41.7600 13.9038 0.2208
41.7800 13.9104 0.2195
41.8000 13.9170 0.2224
41.8200 13.9237 0.2258
41.8400 13.9304 0.2187
41.8600 13.9371 0.2175
41.8800 13.9438 0.2234
41.9000 13.9504 0.2209
41.9200 13.9571 0.2122
41.9400 13.9637 0.2202
41.9600 13.9704 0.2216
41.9800 13.9770 0.2211
42.0000 13.9837 0.2177
42.0200 13.9904 0.2156
42.0400 13.9971 0.2243
42.0600 14.0037 0.2148
42.0800 14.0104 0.2152
42.1000 14.0171 0.2207
42.1200 14.0238 0.2205
42.1400 14.0304 0.2133
42.1600 14.0369 0.2211
42.1800 14.0436 0.2161
42.2000 14.0503 0.2162
42.2200 14.0570 0.2152
42.2400 14.0637 0.2172
42.2600 14.0704 0.2147
42.2800 14.0771 0.2211
42.3000 14.0837 0.2187
42.3200 14.0903 0.2143
42.3400 14.0970 0.2215
42.3600 14.1037 0.2170
42.3800 14.1104 0.2122
42.4000 14.1171 0.2201
42.4200 14.1238 0.2166
42.4400 14.1305 0.2125
42.4600 14.1372 0.2185
42.4800 14.1438 0.2161
42.5000 14.1504 0.2132
42.5200 14.1570 0.2201
42.5400 14.1637 0.2151
42.5600 14.1704 0.2113
42.5800 14.1771 0.2191
42.6000 14.1838 0.2148
42.6200 14.1904 0.2153
42.6400 14.1971 0.2186
42.6600 14.2038 0.2132
42.6800 14.2104 0.2143
42.7000 14.2170 0.2207
42.7200 14.2236 0.2105
42.7400 14.2303 0.2167
42.7600 14.2370 0.2128
42.7800 14.2437 0.2109
42.8000 14.2505 0.2145
42.8200 14.2571 0.2134
42.8400 14.2638 0.2111
42.8600 14.2704 0.2152
42.8800 14.2770 0.2133
42.9000 14.2836 0.2092
42.9200 14.2904 0.2152
42.9400 14.2971 0.2142
42.9600 14.3037 0.2037
42.9800 14.3104 0.2154
43.0000 14.3171 0.2140
43.0200 14.3237 0.2000
43.0400 14.3304 0.2173
43.0600 14.3370 0.2114
43.0800 14.3437 0.1999
43.1000 14.3504 0.2191
43.1200 14.3571 0.2079
43.1400 14.3638 0.2013
43.1600 14.3704 0.2224
43.1800 14.3771 0.2032
43.2000 14.3838 0.1978
43.2200 14.3904 0.2147
43.2400 14.3970 0.2044
43.2600 14.4037 0.2061
43.2800 14.4104 0.2167
43.3000 14.4171 0.1973
43.3200 14.4238 0.2058
43.3400 14.4305 0.2097
43.3600 14.4372 0.2005
43.3800 14.4438 0.2073
43.4000 14.4504 0.2110
43.4200 14.4570 0.1989
43.4400 14.4636 0.2094
43.4600 14.4703 0.2054
43.4800 14.4770 0.1999
43.5000 14.4837 0.2053
43.5200 14.4903 0.1988
43.5400 14.4970 0.2043
43.5600 14.5037 0.2057
43.5800 14.5104 0.1972
43.6000 14.5170 0.2045
43.6200 14.5236 0.2058
43.6400 14.5304 0.1967
43.6600 14.5370 0.2054
43.6800 14.5437 0.2002
43.7000 14.5504 0.2011
43.7200 14.5571 0.2016
43.7400 14.5638 0.1990
43.7600 14.5704 0.1988
43.7800 14.5770 0.2088
43.8000 14.5837 0.1945
43.8200 14.5904 0.1987
43.8400 14.5971 0.1965
43.8600 14.6038 0.2010
43.8800 14.6104 0.2028
43.9000 14.6171 0.1971
43.9200 14.6238 0.1927
43.9400 14.6304 0.2046
43.9600 14.6370 0.1993
43.9800 14.6436 0.1945
44.0000 14.6504 0.2034
44.0200 14.6571 0.1969
44.0400 14.6638 0.1971
44.0600 14.6704 0.2015
44.0800 14.6771 0.1933
44.1000 14.6838 0.1980
44.1200 14.6904 0.2003
44.1400 14.6970 0.1914
44.1600 14.7037 0.2021
44.1800 14.7104 0.2011
44.2000 14.7171 0.1873
44.2200 14.7237 0.1985
44.2400 14.7304 0.2060
44.2600 14.7371 0.1918
44.2800 14.7438 0.2015
44.3000 14.7503 0.1982
44.3200 14.7569 0.1928
44.3400 14.7636 0.2011
44.3600 14.7703 0.1980
44.3800 14.7770 0.1894
44.4000 14.7837 0.2043
44.4200 14.7904 0.1936
44.4400 14.7971 0.1878
44.4600 14.8037 0.2034
44.4800 14.8104 0.1941
44.5000 14.8170 0.1947
44.5200 14.8237 0.2040
44.5400 14.8304 0.1882
44.5600 14.8371 0.1931
44.5800 14.8438 0.2010
44.6000 14.8505 0.1855
44.6200 14.8571 0.1920
44.6400 14.8638 0.2029
44.6600 14.8704 0.1869
44.6800 14.8771 0.1885
44.7000 14.8837 0.2054
44.7200 14.8904 0.1916
44.7400 14.8971 0.1867
44.7600 14.9038 0.1990
44.7800 14.9105 0.1928
44.8000 14.9171 0.1873
44.8200 14.9238 0.2003
44.8400 14.9304 0.1864
44.8600 14.9370 0.1872
44.8800 14.9436 0.2036
44.9000 14.9503 0.1923
44.9200 14.9570 0.1772
44.9400 14.9637 0.2039
44.9600 14.9704 0.1929
44.9800 14.9771 0.1813
45.0000 14.9838 0.2038
45.0200 14.9904 0.1909
45.0400 14.9970 0.1817
45.0600 15.0036 0.2056
45.0800 15.0103 0.1863
45.1000 15.0171 0.1784
45.1200 15.0237 0.2093
45.1400 15.0304 0.1827
45.1600 15.0370 0.1762
45.1800 15.0437 0.2105
45.2000 15.0504 0.1802
45.2200 15.0570 0.1778
45.2400 15.0637 0.2108
45.2600 15.0704 0.1769
45.2800 15.0771 0.1847
45.3000 15.0838 0.2067
45.3200 15.0904 0.1796
45.3400 15.0971 0.1877
45.3600 15.1038 0.2043
45.3800 15.1104 0.1705
45.4000 15.1170 0.1904
45.4200 15.1236 0.2038
45.4400 15.1303 0.1739
45.4600 15.1371 0.1911
45.4800 15.1438 0.2012
45.5000 15.1505 0.1710
45.5200 15.1571 0.1934
45.5400 15.1638 0.1951
45.5600 15.1704 0.1749
45.5800 15.1770 0.1979
45.6000 15.1837 0.1926
45.6200 15.1904 0.1723
45.6400 15.1971 0.1961
45.6600 15.2038 0.1908
45.6800 15.2104 0.1780
45.7000 15.2171 0.1938
45.7200 15.2238 0.1846
45.7400 15.2304 0.1809
45.7600 15.2370 0.1921
45.7800 15.2436 0.1820
45.8000 15.2503 0.1807
45.8200 15.2570 0.1914
45.8400 15.2637 0.1840
45.8600 15.2704 0.1856
45.8800 15.2771 0.1882
45.9000 15.2838 0.1836
45.9200 15.2904 0.1831
45.9400 15.2970 0.1906
45.9600 15.3036 0.1845
45.9800 15.3103 0.1897
46.0000 15.3171 0.1822
46.0200 15.3238 0.1808
46.0400 15.3305 0.1867
46.0600 15.3371 0.1815
46.0800 15.3438 0.1808
46.1000 15.3504 0.1884
46.1200 15.3570 0.1785
46.1400 15.3637 0.1816
46.1600 15.3704 0.1906
46.1800 15.3771 0.1759
46.2000 15.3838 0.1842
46.2200 15.3905 0.1920
46.2400 15.3971 0.1756
46.2600 15.4038 0.1835
46.2800 15.4104 0.1861
46.3000 15.4170 0.1742
46.3200 15.4237 0.1868
46.3400 15.4303 0.1878
46.3600 15.4370 0.1721
46.3800 15.4437 0.1848
46.4000 15.4504 0.1848
46.4200 15.4571 0.1688
46.4400 15.4638 0.1906
46.4600 15.4704 0.1782
46.4800 15.4770 0.1734
46.5000 15.4836 0.1896
46.5200 15.4903 0.1774
46.5400 15.4970 0.1694
46.5600 15.5037 0.1876
46.5800 15.5104 0.1752
46.6000 15.5171 0.1749
46.6200 15.5237 0.1867
46.6400 15.5304 0.1711
46.6600 15.5370 0.1740
46.6800 15.5437 0.1867
46.7000 15.5503 0.1704
46.7200 15.5570 0.1753
46.7400 15.5637 0.1839
46.7600 15.5704 0.1695
46.7800 15.5771 0.1802
46.8000 15.5838 0.1793
46.8200 15.5905 0.1713
46.8400 15.5971 0.1794
46.8600 15.6037 0.1841
46.8800 15.6104 0.1660
46.9000 15.6171 0.1824
46.9200 15.6238 0.1787
46.9400 15.6305 0.1657
46.9600 15.6371 0.1811
46.9800 15.6438 0.1792
47.0000 15.6504 0.1664
47.0200 15.6570 0.1796
47.0400 15.6636 0.1741
47.0600 15.6703 0.1736
47.0800 15.6770 0.1756
47.1000 15.6837 0.1714
47.1200 15.6904 0.1702
47.1400 15.6971 0.1756
47.1600 15.7038 0.1749
47.1800 15.7104 0.1748
47.2000 15.7170 0.1724
47.2200 15.7236 0.1725
47.2400 15.7303 0.1754
47.2600 15.7370 0.1704
47.2800 15.7437 0.1701
47.3000 15.7504 0.1765
47.3200 15.7571 0.1694
47.3400 15.7638 0.1682
47.3600 15.7704 0.1779
47.3800 15.7771 0.1636
47.4000 15.7837 0.1743
47.4200 15.7903 0.1736
47.4400 15.7970 0.1674
47.4600 15.8037 0.1730
47.4800 15.8104 0.1727
47.5000 15.8171 0.1631
47.5200 15.8238 0.1722
47.5400 15.8304 0.1652
47.5600 15.8370 0.1665
47.5800 15.8436 0.1745
47.6000 15.8503 0.1681
47.6200 15.8570 0.1606
47.6400 15.8638 0.1720
47.6600 15.8705 0.1633
47.6800 15.8772 0.1643
47.7000 15.8838 0.1689
47.7200 15.8905 0.1625
47.7400 15.8971 0.1609
47.7600 15.9037 0.1714
47.7800 15.9103 0.1634
47.8000 15.9170 0.1631
47.8200 15.9237 0.1700
47.8400 15.9304 0.1589
47.8600 15.9371 0.1651
47.8800 15.9438 0.1642
47.9000 15.9504 0.1632
47.9200 15.9570 0.1661
47.9400 15.9636 0.1627
47.9600 15.9703 0.1619
47.9800 15.9770 0.1660
48.0000 15.9837 0.1594
48.0200 15.9904 0.1592
48.0400 15.9971 0.1636
48.0600 16.0038 0.1598
48.0800 16.0104 0.1610
48.1000 16.0170 0.1659
48.1200 16.0237 0.1560
48.1400 16.0304 0.1640
48.1600 16.0371 0.1622
48.1800 16.0438 0.1562
48.2000 16.0505 0.1641
48.2200 16.0571 0.1607
48.2400 16.0638 0.1550
48.2600 16.0705 0.1620
48.2800 16.0771 0.1649
48.3000 16.0837 0.1589
48.3200 16.0903 0.1646
48.3400 16.0970 0.1595
48.3600 16.1037 0.1585
48.3800 16.1104 0.1620
48.4000 16.1171 0.1588
48.4200 16.1238 0.1567
48.4400 16.1305 0.1604
48.4600 16.1371 0.1572
48.4800 16.1436 0.1569
48.5000 16.1503 0.1621
48.5200 16.1570 0.1631
48.5400 16.1637 0.1531
48.5600 16.1704 0.1569
48.5800 16.1771 0.1641
48.6000 16.1838 0.1490
48.6200 16.1904 0.1593
48.6400 16.1970 0.1648
48.6600 16.2036 0.1469
48.6800 16.2103 0.1631
48.7000 16.2170 0.1606
48.7200 16.2237 0.1497
48.7400 16.2304 0.1636
48.7600 16.2371 0.1614
48.7800 16.2437 0.1449
48.8000 16.2504 0.1649
48.8200 16.2570 0.1600
48.8400 16.2637 0.1481
48.8600 16.2703 0.1673
48.8800 16.2770 0.1576
48.9000 16.2837 0.1513
48.9200 16.2904 0.1607
48.9400 16.2971 0.1541
48.9600 16.3038 0.1511
48.9800 16.3105 0.1647
49.0000 16.3171 0.1504
49.0200 16.3237 0.1512
49.0400 16.3303 0.1631
49.0600 16.3370 0.1516
49.0800 16.3438 0.1481
49.1000 16.3505 0.1638
49.1200 16.3571 0.1487
49.1400 16.3638 0.1508
49.1600 16.3704 0.1531
49.1800 16.3770 0.1542
49.2000 16.3836 0.1512
49.2200 16.3903 0.1562
49.2400 16.3970 0.1550
49.2600 16.4037 0.1494
49.2800 16.4104 0.1574
49.3000 16.4170 0.1537
49.3200 16.4237 0.1519
49.3400 16.4304 0.1563
49.3600 16.4370 0.1482
49.3800 16.4436 0.1495
49.4000 16.4503 0.1552
49.4200 16.4570 0.1538
49.4400 16.4637 0.1507
49.4600 16.4704 0.1521
49.4800 16.4771 0.1536
49.5000 16.4838 0.1476
49.5200 16.4905 0.1524
49.5400 16.4971 0.1498
49.5600 16.5037 0.1517
49.5800 16.5103 0.1514
49.6000 16.5170 0.1513
49.6200 16.5238 0.1498
49.6400 16.5304 0.1501
49.6600 16.5371 0.1514
49.6800 16.5438 0.1498
49.7000 16.5504 0.1480
49.7200 16.5571 0.1512
49.7400 16.5637 0.1505
49.7600 16.5703 0.1519
49.7800 16.5770 0.1521
49.8000 16.5837 0.1538
49.8200 16.5904 0.1444
49.8400 16.5971 0.1512
49.8600 16.6038 0.1516
49.8800 16.6105 0.1426
49.9000 16.6171 0.1535
49.9200 16.6237 0.1519
49.9400 16.6303 0.1411
49.9600 16.6370 0.1564
49.9800 16.6437 0.1517
50.0000 16.6504 0.1394
50.0200 16.6571 0.1535
50.0400 16.6638 0.1451
50.0600 16.6705 0.1363
50.0800 16.6771 0.1539
50.1000 16.6836 0.1473
50.1200 16.6903 0.1339
50.1400 16.6970 0.1574
50.1600 16.7037 0.1429
50.1800 16.7104 0.1337
50.2000 16.7171 0.1550
50.2200 16.7238 0.1410
50.2400 16.7304 0.1317
50.2600 16.7371 0.1510
50.2800 16.7437 0.1418
50.3000 16.7503 0.1355
50.3200 16.7570 0.1499
50.3400 16.7637 0.1375
50.3600 16.7704 0.1347
50.3800 16.7771 0.1524
50.4000 16.7838 0.1378
50.4200 16.7905 0.1326
50.4400 16.7971 0.1484
50.4600 16.8037 0.1386
50.4800 16.8103 0.1349
50.5000 16.8170 0.1419
50.5200 16.8237 0.1394
50.5400 16.8304 0.1337
50.5600 16.8371 0.1395
50.5800 16.8438 0.1384
50.6000 16.8505 0.1352
50.6200 16.8571 0.1370
50.6400 16.8637 0.1418
50.6600 16.8703 0.1287
50.6800 16.8770 0.1370
50.7000 16.8837 0.1414
50.7200 16.8904 0.1271
50.7400 16.8971 0.1346
50.7600 16.9038 0.1473
50.7800 16.9104 0.1218
50.8000 16.9171 0.1343
50.8200 16.9237 0.1453
50.8400 16.9303 0.1258
50.8600 16.9370 0.1332
50.8800 16.9437 0.1415
50.9000 16.9504 0.1212
50.9200 16.9570 0.1387
50.9400 16.9637 0.1397
50.9600 16.9704 0.1251
50.9800 16.9770 0.1350
51.0000 16.9837 0.1355
51.0200 16.9903 0.1270
51.0400 16.9970 0.1372
51.0600 17.0037 0.1350
51.0800 17.0104 0.1243
51.1000 17.0171 0.1313
51.1200 17.0238 0.1369
51.1400 17.0305 0.1246
51.1600 17.0371 0.1267
51.1800 17.0437 0.1374
51.2000 17.0503 0.1250
51.2200 17.0570 0.1292
51.2400 17.0637 0.1307
51.2600 17.0704 0.1247
51.2800 17.0771 0.1282
51.3000 17.0838 0.1359
51.3200 17.0904 0.1259
51.3400 17.0971 0.1283
51.3600 17.1037 0.1339
51.3800 17.1103 0.1260
51.4000 17.1170 0.1255
51.4200 17.1237 0.1348
51.4400 17.1304 0.1210
51.4600 17.1371 0.1260
51.4800 17.1437 0.1336
51.5000 17.1504 0.1143
51.5200 17.1571 0.1277
51.5400 17.1637 0.1333
51.5600 17.1703 0.1173
51.5800 17.1770 0.1268
51.6000 17.1837 0.1313
51.6200 17.1904 0.1168
51.6400 17.1971 0.1278
51.6600 17.2038 0.1264
51.6800 17.2104 0.1184
51.7000 17.2171 0.1236
51.7200 17.2237 0.1271
51.7400 17.2303 0.1218
51.7600 17.2370 0.1252
51.7800 17.2437 0.1271
51.8000 17.2504 0.1177
51.8200 17.2571 0.1174
51.8400 17.2638 0.1345
51.8600 17.2705 0.1146
51.8800 17.2771 0.1123
51.9000 17.2837 0.1247
51.9200 17.2904 0.1216
51.9400 17.2970 0.1146
51.9600 17.3037 0.1245
51.9800 17.3104 0.1193
52.0000 17.3171 0.1135
52.0200 17.3238 0.1230
52.0400 17.3305 0.1151
52.0600 17.3371 0.1132
52.0800 17.3437 0.1193
52.1000 17.3503 0.1155
52.1200 17.3570 0.1128
52.1400 17.3637 0.1178
52.1600 17.3704 0.1156
52.1800 17.3771 0.1111
52.2000 17.3837 0.1139
52.2200 17.3904 0.1189
52.2400 17.3971 0.1094
52.2600 17.4037 0.1090
52.2800 17.4103 0.1171
52.3000 17.4170 0.1119
52.3200 17.4237 0.1062
52.3400 17.4304 0.1133
52.3600 17.4370 0.1063
52.3800 17.4437 0.1142
52.4000 17.4504 0.1146
52.4200 17.4571 0.0982
52.4400 17.4637 0.1130
52.4600 17.4703 0.1172
52.4800 17.4770 0.1028
52.5000 17.4837 0.1133
52.5200 17.4904 0.1143
52.5400 17.4971 0.0982
52.5600 17.5038 0.1144
52.5800 17.5105 0.1118
52.6000 17.5172 0.0965
52.6200 17.5237 0.1171
52.6400 17.5303 0.1104
52.6600 17.5370 0.0944
52.6800 17.5437 0.1212
52.7000 17.5504 0.1068
52.7200 17.5571 0.0970
52.7400 17.5638 0.1140
52.7600 17.5705 0.1064
52.7800 17.5771 0.0938
52.8000 17.5837 0.1243
52.8200 17.5903 0.1029
52.8400 17.5970 0.0974
52.8600 17.6037 0.1191
52.8800 17.6104 0.1054
52.9000 17.6171 0.0944
52.9200 17.6237 0.1215
52.9400 17.6304 0.1028
52.9600 17.6371 0.0915
52.9800 17.6437 0.1203
53.0000 17.6503 0.1058
53.0200 17.6570 0.0951
53.0400 17.6637 0.1150
53.0600 17.6704 0.1031
53.0800 17.6771 0.0949
53.1000 17.6837 0.1153
53.1200 17.6904 0.1031
53.1400 17.6971 0.0951
53.1600 17.7037 0.1129
53.1800 17.7103 0.1039
53.2000 17.7170 0.0920
53.2200 17.7237 0.1153
53.2400 17.7304 0.1019
53.2600 17.7371 0.0917
53.2800 17.7438 0.1165
53.3000 17.7505 0.1015
53.3200 17.7571 0.0918
53.3400 17.7637 0.1182
53.3600 17.7703 0.1006
53.3800 17.7770 0.0963
53.4000 17.7837 0.1106
53.4200 17.7905 0.1003
53.4400 17.7971 0.0908
53.4600 17.8038 0.1136
53.4800 17.8105 0.0946
53.5000 17.8171 0.0944
53.5200 17.8237 0.1131
53.5400 17.8303 0.0989
53.5600 17.8370 0.0978
53.5800 17.8437 0.1089
53.6000 17.8504 0.0950
53.6200 17.8570 0.0953
53.6400 17.8637 0.1091
53.6600 17.8704 0.0942
53.6800 17.8771 0.0924
53.7000 17.8837 0.1081
53.7200 17.8903 0.0918
53.7400 17.8969 0.0944
53.7600 17.9036 0.1091
53.7800 17.9104 0.0896
53.8000 17.9171 0.0946
53.8200 17.9237 0.1024
53.8400 17.9304 0.0947
53.8600 17.9371 0.0931
53.8800 17.9437 0.1035
53.9000 17.9503 0.0931
53.9200 17.9570 0.0879
53.9400 17.9637 0.0958
53.9600 17.9704 0.0942
53.9800 17.9771 0.0914
54.0000 17.9838 0.0971
54.0200 17.9904 0.0878
54.0400 17.9971 0.0900
54.0600 18.0037 0.1001
54.0800 18.0103 0.0895
54.1000 18.0170 0.0847
54.1200 18.0237 0.0988
54.1400 18.0304 0.0888
54.1600 18.0371 0.0864
54.1800 18.0438 0.0961
54.2000 18.0504 0.0867
54.2200 18.0571 0.0861
54.2400 18.0638 0.0913
54.2600 18.0704 0.0891
54.2800 18.0770 0.0860
54.3000 18.0837 0.0882
54.3200 18.0904 0.0816
54.3400 18.0971 0.0854
54.3600 18.1038 0.0869
54.3800 18.1104 0.0876
54.4000 18.1171 0.0818
54.4200 18.1237 0.0819
54.4400 18.1303 0.0871
54.4600 18.1370 0.0828
54.4800 18.1436 0.0777
54.5000 18.1504 0.0872
54.5200 18.1570 0.0803
54.5400 18.1637 0.0775
54.5600 18.1704 0.0862
54.5800 18.1771 0.0824
54.6000 18.1837 0.0759
54.6200 18.1903 0.0861
54.6400 18.1970 0.0814
54.6600 18.2037 0.0755
54.6800 18.2104 0.0871
54.7000 18.2171 0.0753
54.7200 18.2238 0.0787
54.7400 18.2305 0.0843
54.7600 18.2372 0.0750
54.7800 18.2438 0.0747
54.8000 18.2504 0.0868
54.8200 18.2570 0.0748
54.8400 18.2637 0.0750
54.8600 18.2704 0.0840
54.8800 18.2771 0.0777
54.9000 18.2838 0.0748
54.9200 18.2905 0.0883
54.9400 18.2971 0.0723
54.9600 18.3037 0.0744
54.9800 18.3103 0.0837
55.0000 18.3170 0.0762
55.0200 18.3237 0.0744
55.0400 18.3304 0.0858
55.0600 18.3371 0.0721
55.0800 18.3437 0.0776
55.1000 18.3504 0.0839
55.1200 18.3571 0.0777
55.1400 18.3637 0.0759
55.1600 18.3703 0.0858
55.1800 18.3769 0.0788
55.2000 18.3836 0.0773
55.2200 18.3903 0.0878
55.2400 18.3970 0.0762
55.2600 18.4037 0.0840
55.2800 18.4104 0.0848
55.3000 18.4171 0.0724
55.3200 18.4237 0.0770
55.3400 18.4303 0.0877
55.3600 18.4370 0.0743
55.3800 18.4437 0.0767
55.4000 18.4504 0.0827
55.4200 18.4571 0.0765
55.4400 18.4638 0.0769
55.4600 18.4705 0.0841
55.4800 18.4771 0.0725
55.5000 18.4838 0.0773
55.5200 18.4904 0.0790
55.5400 18.4970 0.0726
55.5600 18.5037 0.0745
55.5800 18.5104 0.0815
55.6000 18.5171 0.0666
55.6200 18.5237 0.0755
55.6400 18.5304 0.0796
55.6600 18.5371 0.0719
55.6800 18.5438 0.0692
55.7000 18.5504 0.0755
55.7200 18.5570 0.0697
55.7400 18.5637 0.0668
55.7600 18.5704 0.0759
55.7800 18.5771 0.0700
55.8000 18.5837 0.0706
55.8200 18.5904 0.0744
55.8400 18.5971 0.0672
55.8600 18.6037 0.0670
55.8800 18.6103 0.0755
55.9000 18.6170 0.0672
55.9200 18.6236 0.0645
55.9400 18.6304 0.0695
55.9600 18.6370 0.0718
55.9800 18.6437 0.0624
56.0000 18.6504 0.0691
56.0200 18.6571 0.0700
56.0400 18.6638 0.0639
56.0600 18.6704 0.0640
56.0800 18.6770 0.0683
56.1000 18.6837 0.0695
56.1200 18.6904 0.0635
56.1400 18.6971 0.0652
56.1600 18.7038 0.0635
56.1800 18.7105 0.0616
56.2000 18.7172 0.0675
56.2200 18.7238 0.0589
56.2400 18.7304 0.0705
56.2600 18.7370 0.0652
56.2800 18.7437 0.0552
56.3000 18.7504 0.0697
56.3200 18.7571 0.0656
56.3400 18.7638 0.0592
56.3600 18.7705 0.0646
56.3800 18.7771 0.0676
56.4000 18.7838 0.0540
56.4200 18.7904 0.0634
56.4400 18.7970 0.0662
56.4600 18.8037 0.0583
56.4800 18.8104 0.0628
56.5000 18.8171 0.0625
56.5200 18.8237 0.0586
56.5400 18.8304 0.0684
56.5600 18.8371 0.0608
56.5800 18.8437 0.0589
56.6000 18.8503 0.0663
56.6200 18.8569 0.0610
56.6400 18.8636 0.0578
56.6600 18.8703 0.0646
56.6800 18.8770 0.0575
56.7000 18.8837 0.0607
56.7200 18.8904 0.0620
56.7400 18.8971 0.0553
56.7600 18.9038 0.0600
56.7800 18.9104 0.0572
56.8000 18.9170 0.0595
56.8200 18.9237 0.0594
56.8400 18.9304 0.0549
56.8600 18.9371 0.0589
56.8800 18.9438 0.0580
56.9000 18.9505 0.0552
56.9200 18.9571 0.0581
56.9400 18.9638 0.0547
56.9600 18.9704 0.0555
56.9800 18.9770 0.0590
57.0000 18.9837 0.0599
57.0200 18.9904 0.0519
57.0400 18.9971 0.0615
57.0600 19.0038 0.0508
57.0800 19.0104 0.0481
57.1000 19.0171 0.0597
57.1200 19.0238 0.0493
57.1400 19.0304 0.0466
57.1600 19.0370 0.0597
57.1800 19.0436 0.0485
57.2000 19.0503 0.0470
57.2200 19.0570 0.0606
57.2400 19.0637 0.0469
57.2600 19.0704 0.0486
57.2800 19.0771 0.0592
57.3000 19.0838 0.0412
57.3200 19.0904 0.0461
57.3400 19.0970 0.0621
57.3600 19.1036 0.0359
57.3800 19.1103 0.0438
57.4000 19.1170 0.0569
57.4200 19.1237 0.0364
57.4400 19.1304 0.0428
57.4600 19.1371 0.0573
57.4800 19.1437 0.0339
57.5000 19.1504 0.0431
57.5200 19.1570 0.0546
57.5400 19.1637 0.0334
57.5600 19.1704 0.0410
57.5800 19.1771 0.0528
57.6000 19.1838 0.0315
57.6200 19.1904 0.0395
57.6400 19.1971 0.0474
57.6600 19.2038 0.0359
57.6800 19.2104 0.0366
57.7000 19.2170 0.0444
57.7200 19.2237 0.0303
57.7400 19.2304 0.0406
57.7600 19.2371 0.0459
57.7800 19.2438 0.0273
57.8000 19.2505 0.0395
57.8200 19.2572 0.0429
57.8400 19.2638 0.0274
57.8600 19.2704 0.0351
57.8800 19.2770 0.0403
57.9000 19.2836 0.0302
57.9200 19.2903 0.0341
57.9400 19.2970 0.0360
57.9600 19.3037 0.0346
57.9800 19.3104 0.0301
58.0000 19.3171 0.0328
58.0200 19.3237 0.0316
58.0400 19.3304 0.0331
58.0600 19.3370 0.0313
58.0800 19.3436 0.0376
58.1000 19.3503 0.0259
58.1200 19.3570 0.0313
58.1400 19.3637 0.0347
58.1600 19.3704 0.0275
58.1800 19.3771 0.0311
58.2000 19.3837 0.0353
58.2200 19.3904 0.0232
58.2400 19.3970 0.0294
58.2600 19.4037 0.0365
58.2800 19.4104 0.0236
58.3000 19.4171 0.0253
58.3200 19.4237 0.0371
58.3400 19.4304 0.0173
58.3600 19.4371 0.0323
58.3800 19.4438 0.0353
58.4000 19.4504 0.0158
58.4200 19.4570 0.0301
58.4400 19.4637 0.0335
58.4600 19.4704 0.0236
58.4800 19.4771 0.0309
58.5000 19.4838 0.0340
58.5200 19.4904 0.0177
58.5400 19.4971 0.0326
58.5600 19.5038 0.0285
58.5800 19.5104 0.0191
58.6000 19.5170 0.0349
58.6200 19.5237 0.0302
58.6400 19.5304 0.0154
58.6600 19.5371 0.0284
58.6800 19.5438 0.0283
58.7000 19.5504 0.0234
58.7200 19.5571 0.0288
58.7400 19.5638 0.0246
58.7600 19.5704 0.0114
58.7800 19.5770 0.0303
58.8000 19.5836 0.0283
58.8200 19.5903 0.0165
58.8400 19.5970 0.0263
58.8600 19.6037 0.0243
58.8800 19.6104 0.0123
58.9000 19.6171 0.0173
58.9200 19.6237 0.0271
58.9400 19.6304 0.0133
58.9600 19.6370 0.0234
58.9800 19.6436 0.0186
59.0000 19.6503 0.0088
59.0200 19.6571 0.0194
59.0400 19.6638 0.0236
59.0600 19.6704 0.0042
59.0800 19.6771 0.0192
59.1000 19.6838 0.0179
59.1200 19.6904 0.0032
59.1400 19.6970 0.0178
59.1600 19.7037 0.0211
59.1800 19.7104 -0.0023
59.2000 19.7171 0.0180
59.2200 19.7238 0.0089
59.2400 19.7304 0.0013
59.2600 19.7371 0.0207
59.2800 19.7438 0.0061
59.2990 19.7500 -0.0163
