Raw Data
Time Displacement Force
(s) (mm) (N)
0.0000 0.0000 -0.2936
0.0200 0.0000 -0.2764
0.0400 0.0008 -0.2336
0.0600 0.0040 -0.1472
0.0800 0.0094 -0.1030
0.1000 0.0152 -0.1120
0.1200 0.0211 -0.0832
0.1400 0.0277 -0.0811
0.1600 0.0350 -0.0927
0.1800 0.0425 -0.0689
0.2000 0.0497 -0.0602
0.2200 0.0565 -0.0711
0.2400 0.0632 -0.0459
0.2600 0.0699 -0.0486
0.2800 0.0765 -0.0442
0.3000 0.0832 -0.0177
0.3200 0.0900 -0.0222
0.3400 0.0967 -0.0230
0.3600 0.1034 0.0034
0.3800 0.1100 -0.0120
0.4000 0.1167 0.0026
0.4200 0.1234 0.0149
0.4400 0.1300 0.0022
0.4600 0.1367 0.0150
0.4800 0.1434 0.0310
0.5000 0.1501 0.0256
0.5200 0.1568 0.0389
0.5400 0.1634 0.0487
0.5600 0.1700 0.0563
0.5800 0.1766 0.0729
0.6000 0.1833 0.0801
0.6200 0.1900 0.0849
0.6400 0.1967 0.1066
0.6600 0.2034 0.1201
0.6800 0.2101 0.1464
0.7000 0.2168 0.1836
0.7200 0.2234 0.2045
0.7400 0.2300 0.2473
0.7600 0.2366 0.2783
0.7800 0.2433 0.3118
0.8000 0.2500 0.3368
0.8200 0.2567 0.3773
0.8400 0.2634 0.4043
0.8600 0.2700 0.4293
0.8800 0.2767 0.4602
0.9000 0.2834 0.4951
0.9200 0.2900 0.5200
0.9400 0.2966 0.5375
0.9600 0.3033 0.5552
0.9800 0.3100 0.5468
1.0000 0.3167 0.5491
1.0200 0.3233 0.5581
1.0400 0.3300 0.5456
1.0600 0.3367 0.5530
1.0800 0.3433 0.5613
1.1000 0.3500 0.5508
1.1200 0.3566 0.5545
1.1400 0.3633 0.5649
1.1600 0.3700 0.5588
1.1800 0.3767 0.5544
1.2000 0.3834 0.5647
1.2200 0.3901 0.5565
1.2400 0.3968 0.5602
1.2600 0.4034 0.5614
1.2800 0.4100 0.5622
1.3000 0.4167 0.5603
1.3200 0.4234 0.5655
1.3400 0.4301 0.5611
1.3600 0.4367 0.5555
1.3800 0.4434 0.5661
1.4000 0.4501 0.5684
1.4200 0.4568 0.5560
1.4400 0.4634 0.5623
1.4600 0.4700 0.5617
1.4800 0.4765 0.5558
1.5000 0.4832 0.5608
1.5200 0.4899 0.5679
1.5400 0.4966 0.5545
1.5600 0.5033 0.5598
1.5800 0.5101 0.5635
1.6000 0.5168 0.5472
1.6200 0.5234 0.5608
1.6400 0.5300 0.5601
1.6600 0.5366 0.5497
1.6800 0.5433 0.5601
1.7000 0.5500 0.5601
1.7200 0.5568 0.5432
1.7400 0.5634 0.5598
1.7600 0.5701 0.5589
1.7800 0.5768 0.5467
1.8000 0.5834 0.5577
1.8200 0.5900 0.5515
1.8400 0.5967 0.5421
1.8600 0.6033 0.5642
1.8800 0.6100 0.5495
1.9000 0.6167 0.5428
1.9200 0.6234 0.5583
1.9400 0.6301 0.5512
1.9600 0.6368 0.5348
1.9800 0.6434 0.5530
2.0000 0.6500 0.5446
2.0200 0.6566 0.5386
2.0400 0.6633 0.5542
2.0600 0.6700 0.5437
2.0800 0.6767 0.5383
2.1000 0.6834 0.5526
2.1200 0.6901 0.5378
2.1400 0.6968 0.5360
2.1600 0.7034 0.5516
2.1800 0.7100 0.5394
2.2000 0.7166 0.5394
2.2200 0.7233 0.5474
2.2400 0.7300 0.5441
2.2600 0.7367 0.5379
2.2800 0.7434 0.5439
2.3000 0.7500 0.5388
2.3200 0.7567 0.5399
2.3400 0.7634 0.5463
2.3600 0.7700 0.5377
2.3800 0.7766 0.5357
2.4000 0.7833 0.5522
2.4200 0.7900 0.5382
2.4400 0.7967 0.5350
2.4600 0.8034 0.5447
2.4800 0.8100 0.5405
2.5000 0.8167 0.5357
2.5200 0.8234 0.5507
2.5400 0.8300 0.5354
2.5600 0.8366 0.5279
2.5800 0.8433 0.5502
2.6000 0.8500 0.5409
2.6200 0.8568 0.5288
2.6400 0.8635 0.5474
2.6600 0.8701 0.5373
2.6800 0.8768 0.5260
2.7000 0.8834 0.5481
2.7200 0.8900 0.5397
2.7400 0.8966 0.5295
2.7600 0.9033 0.5424
2.7800 0.9100 0.5386
2.8000 0.9168 0.5289
2.8200 0.9234 0.5478
2.8400 0.9301 0.5354
2.8600 0.9368 0.5241
2.8800 0.9434 0.5454
2.9000 0.9500 0.5476
2.9200 0.9566 0.5226
2.9400 0.9633 0.5400
2.9600 0.9700 0.5452
2.9800 0.9767 0.5237
3.0000 0.9834 0.5364
3.0200 0.9901 0.5424
3.0400 0.9968 0.5235
3.0600 1.0034 0.5362
3.0800 1.0100 0.5402
3.1000 1.0166 0.5317
3.1200 1.0232 0.5347
3.1400 1.0300 0.5412
3.1600 1.0367 0.5255
3.1800 1.0434 0.5364
3.2000 1.0500 0.5428
3.2200 1.0567 0.5212
3.2400 1.0634 0.5338
3.2600 1.0700 0.5395
3.2800 1.0766 0.5315
3.3000 1.0833 0.5311
3.3200 1.0900 0.5338
3.3400 1.0967 0.5300
3.3600 1.1034 0.5354
3.3800 1.1101 0.5330
3.4000 1.1168 0.5322
3.4200 1.1235 0.5262
3.4400 1.1301 0.5322
3.4600 1.1367 0.5316
3.4800 1.1433 0.5324
3.5000 1.1500 0.5331
3.5200 1.1567 0.5352
3.5400 1.1634 0.5236
3.5600 1.1701 0.5326
3.5800 1.1768 0.5352
3.6000 1.1834 0.5254
3.6200 1.1900 0.5303
3.6400 1.1966 0.5334
3.6600 1.2033 0.5217
3.6800 1.2100 0.5343
3.7000 1.2167 0.5283
3.7200 1.2234 0.5227
3.7400 1.2301 0.5329
3.7600 1.2367 0.5266
3.7800 1.2434 0.5175
3.8000 1.2500 0.5310
3.8200 1.2566 0.5266
3.8400 1.2633 0.5202
3.8600 1.2700 0.5353
3.8800 1.2767 0.5217
3.9000 1.2834 0.5212
3.9200 1.2900 0.5312
3.9400 1.2967 0.5230
3.9600 1.3034 0.5205
3.9800 1.3101 0.5351
4.0000 1.3167 0.5186
4.0200 1.3233 0.5186
4.0400 1.3300 0.5344
4.0600 1.3367 0.5200
4.0800 1.3434 0.5194
4.1000 1.3501 0.5368
4.1200 1.3567 0.5169
4.1400 1.3634 0.5189
4.1600 1.3700 0.5337
4.1800 1.3766 0.5220
4.2000 1.3833 0.5211
4.2200 1.3900 0.5346
4.2400 1.3967 0.5197
4.2600 1.4034 0.5192
4.2800 1.4101 0.5344
4.3000 1.4168 0.5191
4.3200 1.4235 0.5187
4.3400 1.4301 0.5312
4.3600 1.4367 0.5210
4.3800 1.4433 0.5269
4.4000 1.4500 0.5300
4.4200 1.4567 0.5107
4.4400 1.4634 0.5244
4.4600 1.4700 0.5312
4.4800 1.4767 0.5142
4.5000 1.4834 0.5207
4.5200 1.4900 0.5302
4.5400 1.4966 0.5153
4.5600 1.5033 0.5218
4.5800 1.5100 0.5263
4.6000 1.5167 0.5205
4.6200 1.5234 0.5217
4.6400 1.5301 0.5226
4.6600 1.5368 0.5169
4.6800 1.5434 0.5218
4.7000 1.5500 0.5212
4.7200 1.5566 0.5250
4.7400 1.5633 0.5194
4.7600 1.5700 0.5186
4.7800 1.5767 0.5230
4.8000 1.5834 0.5176
4.8200 1.5901 0.5152
4.8400 1.5968 0.5257
4.8600 1.6035 0.5183
4.8800 1.6101 0.5110
4.9000 1.6166 0.5244
4.9200 1.6232 0.5213
4.9400 1.6299 0.5208
4.9600 1.6366 0.5184
4.9800 1.6434 0.5137
5.0000 1.6501 0.5161
5.0200 1.6568 0.5251
5.0400 1.6635 0.5077
5.0600 1.6701 0.5129
5.0800 1.6767 0.5247
5.1000 1.6833 0.5144
5.1200 1.6900 0.5113
5.1400 1.6967 0.5289
5.1600 1.7034 0.5097
5.1800 1.7101 0.5107
5.2000 1.7168 0.5241
5.2200 1.7235 0.5151
5.2400 1.7301 0.5148
5.2600 1.7367 0.5245
5.2800 1.7433 0.5060
5.3000 1.7500 0.5181
5.3200 1.7567 0.5260
5.3400 1.7634 0.5000
5.3600 1.7700 0.5107
5.3800 1.7767 0.5301
5.4000 1.7834 0.5056
5.4200 1.7900 0.5063
5.4400 1.7966 0.5248
5.4600 1.8033 0.5051
5.4800 1.8100 0.5136
5.5000 1.8167 0.5205
5.5200 1.8234 0.5013
5.5400 1.8301 0.5144
5.5600 1.8368 0.5217
5.5800 1.8435 0.4975
5.6000 1.8501 0.5157
5.6200 1.8566 0.5229
5.6400 1.8633 0.5027
5.6600 1.8700 0.5069
5.6800 1.8767 0.5187
5.7000 1.8834 0.5062
5.7200 1.8901 0.5109
5.7400 1.8968 0.5130
5.7600 1.9034 0.5045
5.7800 1.9100 0.5152
5.8000 1.9167 0.5179
5.8200 1.9233 0.5003
5.8400 1.9300 0.5105
5.8600 1.9367 0.5150
5.8800 1.9434 0.5006
5.9000 1.9500 0.5095
5.9200 1.9567 0.5204
5.9400 1.9634 0.4991
5.9600 1.9700 0.5037
5.9800 1.9767 0.5182
6.0000 1.9833 0.5045
6.0200 1.9900 0.5055
6.0400 1.9967 0.5132
6.0600 2.0034 0.5000
6.0800 2.0100 0.5029
6.1000 2.0167 0.5201
6.1200 2.0234 0.5010
6.1400 2.0301 0.5018
6.1600 2.0367 0.5113
6.1800 2.0433 0.5032
6.2000 2.0500 0.5035
6.2200 2.0567 0.5134
6.2400 2.0634 0.5040
6.2600 2.0701 0.5023
6.2800 2.0768 0.5121
6.3000 2.0834 0.5051
6.3200 2.0901 0.4976
6.3400 2.0967 0.5170
6.3600 2.1033 0.5066
6.3800 2.1100 0.4936
6.4000 2.1167 0.5157
6.4200 2.1234 0.5059
6.4400 2.1301 0.4955
6.4600 2.1367 0.5131
6.4800 2.1434 0.5038
6.5000 2.1501 0.4904
6.5200 2.1567 0.5200
6.5400 2.1633 0.5003
6.5600 2.1700 0.4948
6.5800 2.1766 0.5208
6.6000 2.1833 0.4998
6.6200 2.1901 0.4955
6.6400 2.1968 0.5225
6.6600 2.2035 0.4918
6.6800 2.2101 0.4979
6.7000 2.2167 0.5182
6.7200 2.2233 0.4947
6.7400 2.2299 0.5000
6.7600 2.2366 0.5177
6.7800 2.2434 0.4899
6.8000 2.2501 0.5013
6.8200 2.2567 0.5158
6.8400 2.2634 0.4918
6.8600 2.2701 0.5025
6.8800 2.2767 0.5108
6.9000 2.2833 0.4913
6.9200 2.2900 0.5075
6.9400 2.2967 0.5081
6.9600 2.3034 0.4988
6.9800 2.3101 0.5031
7.0000 2.3167 0.5054
7.0200 2.3234 0.4986
7.0400 2.3301 0.4989
7.0600 2.3367 0.5007
7.0800 2.3433 0.4972
7.1000 2.3500 0.5068
7.1200 2.3567 0.5002
7.1400 2.3634 0.4971
7.1600 2.3701 0.5026
7.1800 2.3768 0.4972
7.2000 2.3835 0.5011
7.2200 2.3901 0.5009
7.2400 2.3967 0.4947
7.2600 2.4033 0.5045
7.2800 2.4100 0.4941
7.3000 2.4167 0.4994
7.3200 2.4234 0.5007
7.3400 2.4301 0.4928
7.3600 2.4367 0.4958
7.3800 2.4434 0.5045
7.4000 2.4500 0.4913
7.4200 2.4567 0.4965
7.4400 2.4633 0.5001
7.4600 2.4700 0.4878
7.4800 2.4767 0.4986
7.5000 2.4834 0.4974
7.5200 2.4900 0.4919
7.5400 2.4967 0.4972
7.5600 2.5034 0.4966
7.5800 2.5100 0.4899
7.6000 2.5167 0.4974
7.6200 2.5233 0.4953
7.6400 2.5300 0.4887
7.6600 2.5367 0.4926
7.6800 2.5434 0.4941
7.7000 2.5501 0.4922
7.7200 2.5568 0.5001
7.7400 2.5635 0.4825
7.7600 2.5701 0.4889
7.7800 2.5767 0.4964
7.8000 2.5833 0.4873
7.8200 2.5900 0.4894
7.8400 2.5967 0.4941
7.8600 2.6034 0.4818
7.8800 2.6101 0.4909
7.9000 2.6167 0.4930
7.9200 2.6234 0.4860
7.9400 2.6301 0.4871
7.9600 2.6367 0.4922
7.9800 2.6433 0.4898
8.0000 2.6500 0.4922
8.0200 2.6567 0.4920
8.0400 2.6633 0.4864
8.0600 2.6700 0.4884
8.0800 2.6767 0.4878
8.1000 2.6834 0.4945
8.1200 2.6901 0.4826
8.1400 2.6967 0.4846
8.1600 2.7033 0.4917
8.1800 2.7099 0.4897
8.2000 2.7166 0.4874
8.2200 2.7234 0.4931
8.2400 2.7301 0.4825
8.2600 2.7368 0.4897
8.2800 2.7434 0.4954
8.3000 2.7501 0.4811
8.3200 2.7567 0.4834
8.3400 2.7633 0.4949
8.3600 2.7700 0.4834
8.3800 2.7767 0.4839
8.4000 2.7834 0.4910
8.4200 2.7901 0.4927
8.4400 2.7967 0.4789
8.4600 2.8034 0.4861
8.4800 2.8101 0.4893
8.5000 2.8167 0.4832
8.5200 2.8234 0.4760
8.5400 2.8300 0.4933
8.5600 2.8367 0.4784
8.5800 2.8434 0.4778
8.6000 2.8501 0.5006
8.6200 2.8568 0.4717
8.6400 2.8635 0.4772
8.6600 2.8701 0.5024
8.6800 2.8767 0.4686
8.7000 2.8833 0.4750
8.7200 2.8900 0.5044
8.7400 2.8966 0.4695
8.7600 2.9034 0.4809
8.7800 2.9101 0.4959
8.8000 2.9167 0.4682
8.8200 2.9234 0.4809
8.8400 2.9301 0.4995
8.8600 2.9367 0.4621
8.8800 2.9433 0.4902
8.9000 2.9499 0.4922
8.9200 2.9566 0.4634
8.9400 2.9633 0.4876
8.9600 2.9700 0.4931
8.9800 2.9767 0.4629
9.0000 2.9833 0.4891
9.0200 2.9900 0.4857
9.0400 2.9967 0.4673
9.0600 3.0033 0.4870
9.0800 3.0100 0.4809
9.1000 3.0167 0.4748
9.1200 3.0234 0.4903
9.1400 3.0301 0.4804
9.1600 3.0367 0.4720
9.1800 3.0434 0.4861
9.2000 3.0501 0.4749
9.2200 3.0568 0.4768
9.2400 3.0633 0.4876
9.2600 3.0700 0.4771
9.2800 3.0767 0.4796
9.3000 3.0834 0.4885
9.3200 3.0901 0.4745
9.3400 3.0968 0.4788
9.3600 3.1035 0.4800
9.3800 3.1101 0.4713
9.4000 3.1167 0.4804
9.4200 3.1233 0.4818
9.4400 3.1300 0.4735
9.4600 3.1367 0.4773
9.4800 3.1434 0.4752
9.5000 3.1501 0.4772
9.5200 3.1567 0.4793
9.5400 3.1634 0.4758
9.5600 3.1701 0.4753
9.5800 3.1767 0.4837
9.6000 3.1833 0.4763
9.6200 3.1900 0.4741
9.6400 3.1966 0.4797
9.6600 3.2033 0.4743
9.6800 3.2100 0.4755
9.7000 3.2167 0.4756
9.7200 3.2233 0.4761
9.7400 3.2300 0.4724
9.7600 3.2367 0.4775
9.7800 3.2433 0.4709
9.8000 3.2499 0.4793
9.8200 3.2566 0.4795
9.8400 3.2634 0.4717
9.8600 3.2701 0.4771
9.8800 3.2768 0.4766
9.9000 3.2834 0.4763
9.9200 3.2901 0.4777
9.9400 3.2967 0.4749
9.9600 3.3033 0.4751
9.9800 3.3100 0.4744
10.0000 3.3167 0.4773
10.0200 3.3234 0.4725
10.0400 3.3301 0.4725
10.0600 3.3368 0.4792
10.0800 3.3434 0.4707
10.1000 3.3501 0.4680
10.1200 3.3567 0.4784
10.1400 3.3633 0.4732
10.1600 3.3700 0.4683
10.1800 3.3766 0.4806
10.2000 3.3833 0.4737
10.2200 3.3900 0.4719
10.2400 3.3967 0.4780
10.2600 3.4034 0.4657
10.2800 3.4101 0.4701
10.3000 3.4167 0.4803
10.3200 3.4233 0.4643
10.3400 3.4299 0.4750
10.3600 3.4366 0.4769
10.3800 3.4433 0.4638
10.4000 3.4500 0.4734
10.4200 3.4567 0.4825
10.4400 3.4634 0.4555
10.4600 3.4701 0.4785
10.4800 3.4767 0.4740
10.5000 3.4833 0.4545
10.5200 3.4900 0.4794
10.5400 3.4967 0.4767
10.5600 3.5034 0.4554
10.5800 3.5101 0.4739
10.6000 3.5167 0.4731
10.6200 3.5234 0.4610
10.6400 3.5301 0.4737
10.6600 3.5368 0.4681
10.6800 3.5434 0.4576
10.7000 3.5500 0.4784
10.7200 3.5566 0.4662
10.7400 3.5633 0.4566
10.7600 3.5700 0.4779
10.7800 3.5767 0.4680
10.8000 3.5834 0.4584
10.8200 3.5901 0.4763
10.8400 3.5968 0.4647
10.8600 3.6033 0.4573
10.8800 3.6100 0.4811
10.9000 3.6166 0.4574
10.9200 3.6234 0.4588
10.9400 3.6301 0.4785
10.9600 3.6368 0.4620
10.9800 3.6434 0.4588
11.0000 3.6501 0.4763
11.0200 3.6567 0.4576
11.0400 3.6633 0.4601
11.0600 3.6699 0.4766
11.0800 3.6766 0.4562
11.1000 3.6833 0.4658
11.1200 3.6900 0.4716
11.1400 3.6967 0.4481
11.1600 3.7033 0.4660
11.1800 3.7100 0.4680
11.2000 3.7167 0.4514
11.2200 3.7233 0.4649
11.2400 3.7300 0.4661
11.2600 3.7366 0.4503
11.2800 3.7434 0.4661
11.3000 3.7501 0.4645
11.3200 3.7568 0.4542
11.3400 3.7635 0.4653
11.3600 3.7702 0.4552
11.3800 3.7768 0.4584
11.4000 3.7834 0.4653
11.4200 3.7900 0.4608
11.4400 3.7966 0.4597
11.4600 3.8034 0.4650
11.4800 3.8101 0.4504
11.5000 3.8168 0.4663
11.5200 3.8234 0.4643
11.5400 3.8301 0.4523
11.5600 3.8368 0.4640
11.5800 3.8434 0.4592
11.6000 3.8500 0.4532
11.6200 3.8566 0.4734
11.6400 3.8633 0.4551
11.6600 3.8700 0.4516
11.6800 3.8767 0.4715
11.7000 3.8834 0.4567
11.7200 3.8901 0.4502
11.7400 3.8967 0.4731
11.7600 3.9033 0.4509
11.7800 3.9099 0.4520
11.8000 3.9166 0.4750
11.8200 3.9233 0.4507
11.8400 3.9300 0.4564
11.8600 3.9367 0.4674
11.8800 3.9434 0.4517
11.9000 3.9501 0.4583
11.9200 3.9567 0.4658
11.9400 3.9633 0.4503
11.9600 3.9699 0.4572
11.9800 3.9766 0.4665
12.0000 3.9834 0.4576
12.0200 3.9901 0.4505
12.0400 3.9968 0.4671
12.0600 4.0034 0.4561
12.0800 4.0101 0.4494
12.1000 4.0168 0.4677
12.1200 4.0234 0.4604
12.1400 4.0300 0.4456
12.1600 4.0367 0.4691
12.1800 4.0434 0.4579
12.2000 4.0501 0.4448
12.2200 4.0567 0.4679
12.2400 4.0634 0.4562
12.2600 4.0701 0.4446
12.2800 4.0768 0.4739
12.3000 4.0834 0.4520
12.3200 4.0900 0.4440
12.3400 4.0966 0.4762
12.3600 4.1033 0.4524
12.3800 4.1100 0.4498
12.4000 4.1167 0.4728
12.4200 4.1234 0.4482
12.4400 4.1301 0.4500
12.4600 4.1367 0.4732
12.4800 4.1433 0.4448
12.5000 4.1499 0.4541
12.5200 4.1566 0.4703
12.5400 4.1633 0.4481
12.5600 4.1700 0.4515
12.5800 4.1767 0.4682
12.6000 4.1834 0.4490
12.6200 4.1901 0.4539
12.6400 4.1967 0.4638
12.6600 4.2034 0.4523
12.6800 4.2100 0.4503
12.7000 4.2167 0.4639
12.7200 4.2233 0.4529
12.7400 4.2300 0.4554
12.7600 4.2367 0.4562
12.7800 4.2434 0.4523
12.8000 4.2501 0.4537
12.8200 4.2568 0.4592
12.8400 4.2634 0.4514
12.8600 4.2700 0.4505
12.8800 4.2766 0.4670
12.9000 4.2833 0.4490
12.9200 4.2901 0.4419
12.9400 4.2967 0.4617
12.9600 4.3034 0.4582
12.9800 4.3101 0.4475
13.0000 4.3168 0.4505
13.0200 4.3234 0.4497
13.0400 4.3300 0.4650
13.0600 4.3366 0.4547
13.0800 4.3434 0.4362
13.1000 4.3501 0.4531
13.1200 4.3567 0.4730
13.1400 4.3634 0.4383
13.1600 4.3701 0.4406
13.1800 4.3768 0.4687
13.2000 4.3834 0.4471
13.2200 4.3900 0.4420
13.2400 4.3966 0.4571
13.2600 4.4033 0.4533
13.2800 4.4100 0.4550
13.3000 4.4167 0.4514
13.3200 4.4234 0.4440
13.3400 4.4301 0.4529
13.3600 4.4368 0.4532
13.3800 4.4434 0.4389
13.4000 4.4500 0.4481
13.4200 4.4566 0.4572
13.4400 4.4633 0.4494
13.4600 4.4701 0.4393
13.4800 4.4768 0.4470
13.5000 4.4835 0.4587
13.5200 4.4901 0.4448
13.5400 4.4968 0.4414
13.5600 4.5034 0.4518
13.5800 4.5100 0.4438
13.6000 4.5167 0.4496
13.6200 4.5234 0.4552
13.6400 4.5301 0.4324
13.6600 4.5367 0.4495
13.6800 4.5434 0.4587
13.7000 4.5501 0.4363
13.7200 4.5567 0.4443
13.7400 4.5633 0.4609
13.7600 4.5699 0.4326
13.7800 4.5766 0.4467
13.8000 4.5833 0.4630
13.8200 4.5900 0.4355
13.8400 4.5967 0.4434
13.8600 4.6034 0.4595
13.8800 4.6101 0.4295
13.9000 4.6168 0.4460
13.9200 4.6234 0.4645
13.9400 4.6300 0.4337
13.9600 4.6366 0.4478
13.9800 4.6433 0.4602
14.0000 4.6500 0.4323
14.0200 4.6567 0.4513
14.0400 4.6634 0.4570
14.0600 4.6701 0.4281
14.0800 4.6767 0.4475
14.1000 4.6834 0.4605
14.1200 4.6900 0.4293
14.1400 4.6966 0.4459
14.1600 4.7033 0.4643
14.1800 4.7101 0.4266
14.2000 4.7167 0.4436
14.2200 4.7234 0.4615
14.2400 4.7301 0.4306
14.2600 4.7368 0.4445
14.2800 4.7434 0.4632
14.3000 4.7500 0.4249
14.3200 4.7567 0.4439
14.3400 4.7633 0.4591
14.3600 4.7700 0.4289
14.3800 4.7767 0.4465
14.4000 4.7834 0.4573
14.4200 4.7902 0.4266
14.4400 4.7968 0.4400
14.4600 4.8034 0.4549
14.4800 4.8100 0.4326
14.5000 4.8166 0.4442
14.5200 4.8233 0.4535
14.5400 4.8300 0.4303
14.5600 4.8367 0.4463
14.5800 4.8433 0.4550
14.6000 4.8500 0.4324
14.6200 4.8567 0.4430
14.6400 4.8634 0.4495
14.6600 4.8700 0.4360
14.6800 4.8766 0.4396
14.7000 4.8833 0.4518
14.7200 4.8900 0.4359
14.7400 4.8967 0.4366
14.7600 4.9033 0.4485
14.7800 4.9100 0.4459
14.8000 4.9167 0.4326
14.8200 4.9234 0.4484
14.8400 4.9300 0.4438
14.8600 4.9367 0.4302
14.8800 4.9433 0.4506
14.9000 4.9500 0.4447
14.9200 4.9567 0.4268
14.9400 4.9634 0.4505
14.9600 4.9701 0.4398
14.9800 4.9768 0.4279
15.0000 4.9834 0.4475
15.0200 4.9900 0.4430
15.0400 4.9966 0.4317
15.0600 5.0033 0.4430
15.0800 5.0100 0.4439
15.1000 5.0167 0.4310
15.1200 5.0234 0.4396
15.1400 5.0301 0.4402
15.1600 5.0368 0.4350
15.1800 5.0434 0.4431
15.2000 5.0500 0.4446
15.2200 5.0566 0.4346
15.2400 5.0633 0.4352
15.2600 5.0700 0.4435
15.2800 5.0767 0.4420
15.3000 5.0834 0.4353
15.3200 5.0901 0.4413
15.3400 5.0967 0.4342
15.3600 5.1034 0.4329
15.3800 5.1100 0.4462
15.4000 5.1166 0.4393
15.4200 5.1233 0.4300
15.4400 5.1300 0.4497
15.4600 5.1367 0.4301
15.4800 5.1434 0.4325
15.5000 5.1500 0.4474
15.5200 5.1567 0.4276
15.5400 5.1634 0.4364
15.5600 5.1700 0.4430
15.5800 5.1766 0.4274
15.6000 5.1833 0.4358
15.6200 5.1900 0.4438
15.6400 5.1967 0.4216
15.6600 5.2034 0.4386
15.6800 5.2101 0.4500
15.7000 5.2168 0.4202
15.7200 5.2234 0.4354
15.7400 5.2301 0.4479
15.7600 5.2367 0.4212
15.7800 5.2434 0.4410
15.8000 5.2501 0.4407
15.8200 5.2568 0.4189
15.8400 5.2634 0.4394
15.8600 5.2701 0.4436
15.8800 5.2768 0.4150
15.9000 5.2834 0.4374
15.9200 5.2900 0.4376
15.9400 5.2966 0.4214
15.9600 5.3033 0.4417
15.9800 5.3100 0.4380
16.0000 5.3167 0.4186
16.0200 5.3234 0.4394
16.0400 5.3301 0.4350
16.0600 5.3367 0.4203
16.0800 5.3434 0.4353
16.1000 5.3500 0.4399
16.1200 5.3566 0.4201
16.1400 5.3633 0.4320
16.1600 5.3700 0.4439
16.1800 5.3767 0.4226
16.2000 5.3834 0.4266
16.2200 5.3900 0.4347
16.2400 5.3967 0.4243
16.2600 5.4034 0.4251
16.2800 5.4101 0.4347
16.3000 5.4167 0.4265
16.3200 5.4233 0.4307
16.3400 5.4300 0.4300
16.3600 5.4367 0.4228
16.3800 5.4434 0.4299
16.4000 5.4501 0.4372
16.4200 5.4568 0.4208
16.4400 5.4635 0.4193
16.4600 5.4700 0.4424
16.4800 5.4766 0.4267
16.5000 5.4833 0.4118
16.5200 5.4900 0.4419
16.5400 5.4967 0.4265
16.5600 5.5034 0.4192
16.5800 5.5101 0.4370
16.6000 5.5168 0.4219
16.6200 5.5234 0.4149
16.6400 5.5300 0.4446
16.6600 5.5366 0.4235
16.6800 5.5433 0.4137
16.7000 5.5500 0.4495
16.7200 5.5567 0.4185
16.7400 5.5634 0.4111
16.7600 5.5700 0.4490
16.7800 5.5767 0.4217
16.8000 5.5834 0.4125
16.8200 5.5900 0.4480
16.8400 5.5966 0.4149
16.8600 5.6033 0.4173
16.8800 5.6100 0.4503
16.9000 5.6167 0.4095
16.9200 5.6233 0.4157
16.9400 5.6300 0.4569
16.9600 5.6367 0.4011
16.9800 5.6434 0.4175
17.0000 5.6500 0.4501
17.0200 5.6566 0.4065
17.0400 5.6633 0.4207
17.0600 5.6700 0.4473
17.0800 5.6768 0.4023
17.1000 5.6835 0.4299
17.1200 5.6901 0.4436
17.1400 5.6968 0.3988
17.1600 5.7034 0.4299
17.1800 5.7100 0.4429
17.2000 5.7167 0.3998
17.2200 5.7233 0.4285
17.2400 5.7300 0.4366
17.2600 5.7367 0.4109
17.2800 5.7434 0.4301
17.3000 5.7501 0.4300
17.3200 5.7568 0.4139
17.3400 5.7634 0.4252
17.3600 5.7701 0.4259
17.3800 5.7767 0.4114
17.4000 5.7833 0.4275
17.4200 5.7900 0.4292
17.4400 5.7967 0.4114
17.4600 5.8034 0.4192
17.4800 5.8101 0.4322
17.5000 5.8168 0.4162
17.5200 5.8234 0.4155
17.5400 5.8300 0.4207
17.5600 5.8366 0.4174
17.5800 5.8432 0.4190
17.6000 5.8499 0.4241
17.6200 5.8567 0.4148
17.6400 5.8634 0.4196
17.6600 5.8700 0.4251
17.6800 5.8767 0.4122
17.7000 5.8834 0.4178
17.7200 5.8900 0.4229
17.7400 5.8966 0.4106
17.7600 5.9033 0.4140
17.7800 5.9100 0.4235
17.8000 5.9167 0.4130
17.8200 5.9234 0.4160
17.8400 5.9301 0.4197
17.8600 5.9368 0.4115
17.8800 5.9435 0.4158
17.9000 5.9501 0.4194
17.9200 5.9567 0.4090
17.9400 5.9633 0.4191
17.9600 5.9700 0.4204
17.9800 5.9767 0.4123
18.0000 5.9834 0.4162
18.0200 5.9901 0.4239
18.0400 5.9968 0.4096
18.0600 6.0035 0.4155
18.0800 6.0100 0.4197
18.1000 6.0166 0.4125
18.1200 6.0233 0.4131
18.1400 6.0300 0.4181
18.1600 6.0367 0.4086
18.1800 6.0434 0.4164
18.2000 6.0501 0.4180
18.2200 6.0567 0.4107
18.2400 6.0634 0.4160
18.2600 6.0700 0.4115
18.2800 6.0766 0.4143
18.3000 6.0833 0.4120
18.3200 6.0900 0.4134
18.3400 6.0967 0.4146
18.3600 6.1034 0.4096
18.3800 6.1100 0.4133
18.4000 6.1167 0.4143
18.4200 6.1234 0.4082
18.4400 6.1301 0.4150
18.4600 6.1367 0.4151
18.4800 6.1433 0.4125
18.5000 6.1500 0.4141
18.5200 6.1567 0.4203
18.5400 6.1634 0.4001
18.5600 6.1701 0.4204
18.5800 6.1768 0.4133
18.6000 6.1834 0.4016
18.6200 6.1901 0.4170
18.6400 6.1967 0.4114
18.6600 6.2033 0.4025
18.6800 6.2100 0.4216
18.7000 6.2167 0.4091
18.7200 6.2234 0.4027
18.7400 6.2301 0.4175
18.7600 6.2368 0.4066
18.7800 6.2434 0.4029
18.8000 6.2501 0.4185
18.8200 6.2567 0.4035
18.8400 6.2633 0.4039
18.8600 6.2700 0.4207
18.8800 6.2767 0.4034
18.9000 6.2834 0.4057
18.9200 6.2900 0.4135
18.9400 6.2967 0.4048
18.9600 6.3034 0.4044
18.9800 6.3101 0.4084
19.0000 6.3166 0.4090
19.0200 6.3233 0.4083
19.0400 6.3299 0.4047
19.0600 6.3367 0.4088
19.0800 6.3434 0.4110
19.1000 6.3500 0.4051
19.1200 6.3567 0.4098
19.1400 6.3634 0.4086
19.1600 6.3700 0.4003
19.1800 6.3767 0.4084
19.2000 6.3833 0.4038
19.2200 6.3900 0.4050
19.2400 6.3967 0.4108
19.2600 6.4034 0.4061
19.2800 6.4101 0.4010
19.3000 6.4168 0.4108
19.3200 6.4234 0.4055
19.3400 6.4301 0.3969
19.3600 6.4367 0.4127
19.3800 6.4433 0.4061
19.4000 6.4499 0.4012
19.4200 6.4567 0.4055
19.4400 6.4634 0.4056
19.4600 6.4701 0.3993
19.4800 6.4768 0.4121
19.5000 6.4834 0.4003
19.5200 6.4901 0.3961
19.5400 6.4967 0.4177
19.5600 6.5033 0.4044
19.5800 6.5099 0.3938
19.6000 6.5166 0.4192
19.6200 6.5234 0.3985
19.6400 6.5301 0.3953
19.6600 6.5368 0.4157
19.6800 6.5434 0.3969
19.7000 6.5501 0.3962
19.7200 6.5566 0.4179
19.7400 6.5632 0.3962
19.7600 6.5699 0.4007
19.7800 6.5767 0.4100
19.8000 6.5834 0.3921
19.8200 6.5900 0.3979
19.8400 6.5967 0.4132
19.8600 6.6034 0.3979
19.8800 6.6100 0.3971
19.9000 6.6167 0.4106
19.9200 6.6233 0.3990
19.9400 6.6300 0.4015
19.9600 6.6367 0.4079
19.9800 6.6434 0.3987
20.0000 6.6501 0.4017
20.0200 6.6568 0.4095
20.0400 6.6635 0.3968
20.0600 6.6701 0.4048
20.0800 6.6767 0.4080
20.1000 6.6833 0.4007
20.1200 6.6900 0.3952
20.1400 6.6967 0.4105
20.1600 6.7034 0.4018
20.1800 6.7101 0.3989
20.2000 6.7168 0.4066
20.2200 6.7234 0.3996
20.2400 6.7301 0.3943
20.2600 6.7367 0.4041
20.2800 6.7433 0.4053
20.3000 6.7500 0.3950
20.3200 6.7567 0.4014
20.3400 6.7634 0.4030
20.3600 6.7700 0.3926
20.3800 6.7767 0.4022
20.4000 6.7834 0.4030
20.4200 6.7900 0.3912
20.4400 6.7967 0.4037
20.4600 6.8033 0.4058
20.4800 6.8100 0.3894
20.5000 6.8167 0.4060
20.5200 6.8233 0.4036
20.5400 6.8300 0.3876
20.5600 6.8367 0.4092
20.5800 6.8434 0.3947
20.6000 6.8501 0.3933
20.6200 6.8567 0.4123
20.6400 6.8633 0.3931
20.6600 6.8700 0.3858
20.6800 6.8767 0.4153
20.7000 6.8834 0.3939
20.7200 6.8901 0.3869
20.7400 6.8968 0.4161
20.7600 6.9035 0.3935
20.7800 6.9101 0.3837
20.8000 6.9167 0.4181
20.8200 6.9233 0.3898
20.8400 6.9300 0.3932
20.8600 6.9367 0.4163
20.8800 6.9434 0.3850
20.9000 6.9501 0.3919
20.9200 6.9568 0.4137
20.9400 6.9634 0.3888
20.9600 6.9701 0.3889
20.9800 6.9767 0.4103
21.0000 6.9833 0.3987
21.0200 6.9900 0.3870
21.0400 6.9967 0.4004
21.0600 7.0034 0.3986
21.0800 7.0100 0.3903
21.1000 7.0167 0.4018
21.1200 7.0234 0.3916
21.1400 7.0301 0.3941
21.1600 7.0367 0.3966
21.1800 7.0433 0.3981
21.2000 7.0499 0.3896
21.2200 7.0566 0.4003
21.2400 7.0633 0.3977
21.2600 7.0700 0.3847
21.2800 7.0767 0.3924
21.3000 7.0834 0.4012
21.3200 7.0900 0.3861
21.3400 7.0967 0.3918
21.3600 7.1033 0.3997
21.3800 7.1100 0.3885
21.4000 7.1167 0.3878
21.4200 7.1234 0.4036
21.4400 7.1301 0.3844
21.4600 7.1367 0.3831
21.4800 7.1434 0.4017
21.5000 7.1501 0.3783
21.5200 7.1567 0.3879
21.5400 7.1633 0.4021
21.5600 7.1700 0.3804
21.5800 7.1767 0.3821
21.6000 7.1834 0.4008
21.6200 7.1901 0.3800
21.6400 7.1967 0.3828
21.6600 7.2034 0.4005
21.6800 7.2101 0.3815
21.7000 7.2167 0.3764
21.7200 7.2233 0.4015
21.7400 7.2300 0.3833
21.7600 7.2367 0.3815
21.7800 7.2434 0.3967
21.8000 7.2501 0.3812
21.8200 7.2567 0.3812
21.8400 7.2634 0.3969
21.8600 7.2701 0.3801
21.8800 7.2767 0.3794
21.9000 7.2833 0.3921
21.9200 7.2899 0.3855
21.9400 7.2966 0.3766
21.9600 7.3033 0.3944
21.9800 7.3100 0.3816
22.0000 7.3167 0.3765
22.0200 7.3234 0.3925
22.0400 7.3301 0.3799
22.0600 7.3367 0.3754
22.0800 7.3433 0.3909
22.1000 7.3500 0.3846
22.1200 7.3567 0.3698
22.1400 7.3634 0.3904
22.1600 7.3701 0.3836
22.1800 7.3768 0.3727
22.2000 7.3835 0.3876
22.2200 7.3901 0.3772
22.2400 7.3967 0.3740
22.2600 7.4033 0.3895
22.2800 7.4100 0.3761
22.3000 7.4167 0.3753
22.3200 7.4234 0.3830
22.3400 7.4301 0.3801
22.3600 7.4368 0.3688
22.3800 7.4434 0.3848
22.4000 7.4501 0.3802
22.4200 7.4567 0.3702
22.4400 7.4633 0.3855
22.4600 7.4699 0.3822
22.4800 7.4766 0.3704
22.5000 7.4833 0.3814
22.5200 7.4900 0.3818
22.5400 7.4967 0.3715
22.5600 7.5034 0.3788
22.5800 7.5101 0.3799
22.6000 7.5167 0.3702
22.6200 7.5233 0.3783
22.6400 7.5299 0.3845
22.6600 7.5366 0.3665
22.6800 7.5433 0.3788
22.7000 7.5501 0.3855
22.7200 7.5567 0.3657
22.7400 7.5634 0.3745
22.7600 7.5701 0.3847
22.7800 7.5767 0.3611
22.8000 7.5833 0.3785
22.8200 7.5900 0.3848
22.8400 7.5967 0.3669
22.8600 7.6034 0.3791
22.8800 7.6101 0.3797
22.9000 7.6167 0.3672
22.9200 7.6234 0.3819
22.9400 7.6301 0.3756
22.9600 7.6368 0.3679
22.9800 7.6434 0.3789
23.0000 7.6500 0.3767
23.0200 7.6567 0.3677
23.0400 7.6634 0.3822
23.0600 7.6701 0.3734
23.0800 7.6768 0.3671
23.1000 7.6834 0.3815
23.1200 7.6901 0.3732
23.1400 7.6968 0.3738
23.1600 7.7033 0.3785
23.1800 7.7100 0.3731
23.2000 7.7166 0.3780
23.2200 7.7234 0.3724
23.2400 7.7301 0.3674
23.2600 7.7368 0.3814
23.2800 7.7434 0.3704
23.3000 7.7501 0.3708
23.3200 7.7567 0.3772
23.3400 7.7633 0.3700
23.3600 7.7699 0.3703
23.3800 7.7766 0.3781
23.4000 7.7833 0.3642
23.4200 7.7900 0.3746
23.4400 7.7967 0.3805
23.4600 7.8033 0.3648
23.4800 7.8100 0.3741
23.5000 7.8167 0.3762
23.5200 7.8233 0.3651
23.5400 7.8300 0.3776
23.5600 7.8367 0.3722
23.5800 7.8434 0.3652
23.6000 7.8501 0.3781
23.6200 7.8568 0.3699
23.6400 7.8635 0.3648
23.6600 7.8701 0.3812
23.6800 7.8768 0.3703
23.7000 7.8833 0.3629
23.7200 7.8900 0.3790
23.7400 7.8967 0.3642
23.7600 7.9034 0.3690
23.7800 7.9101 0.3780
23.8000 7.9168 0.3605
23.8200 7.9235 0.3703
23.8400 7.9301 0.3756
23.8600 7.9367 0.3538
23.8800 7.9433 0.3791
23.9000 7.9500 0.3746
23.9200 7.9567 0.3553
23.9400 7.9634 0.3759
23.9600 7.9701 0.3713
23.9800 7.9767 0.3536
24.0000 7.9834 0.3822
24.0200 7.9901 0.3670
24.0400 7.9968 0.3564
24.0600 8.0034 0.3812
24.0800 8.0100 0.3620
24.1000 8.0166 0.3590
24.1200 8.0233 0.3783
24.1400 8.0300 0.3612
24.1600 8.0367 0.3607
24.1800 8.0434 0.3792
24.2000 8.0500 0.3593
24.2200 8.0567 0.3619
24.2400 8.0633 0.3710
24.2600 8.0700 0.3609
24.2800 8.0766 0.3668
24.3000 8.0834 0.3683
24.3200 8.0901 0.3549
24.3400 8.0968 0.3699
24.3600 8.1034 0.3648
24.3800 8.1101 0.3577
24.4000 8.1167 0.3628
24.4200 8.1233 0.3679
24.4400 8.1300 0.3581
24.4600 8.1367 0.3672
24.4800 8.1434 0.3644
24.5000 8.1501 0.3603
24.5200 8.1568 0.3625
24.5400 8.1635 0.3614
24.5600 8.1701 0.3614
24.5800 8.1767 0.3679
24.6000 8.1833 0.3561
24.6200 8.1900 0.3572
24.6400 8.1966 0.3672
24.6600 8.2033 0.3537
24.6800 8.2100 0.3601
24.7000 8.2167 0.3640
24.7200 8.2234 0.3576
24.7400 8.2301 0.3568
24.7600 8.2367 0.3622
24.7800 8.2433 0.3539
24.8000 8.2499 0.3637
24.8200 8.2566 0.3633
24.8400 8.2633 0.3530
24.8600 8.2700 0.3612
24.8800 8.2767 0.3640
24.9000 8.2834 0.3495
24.9200 8.2901 0.3620
24.9400 8.2967 0.3565
24.9600 8.3033 0.3497
24.9800 8.3100 0.3643
25.0000 8.3167 0.3602
25.0200 8.3234 0.3477
25.0400 8.3301 0.3569
25.0600 8.3367 0.3604
25.0800 8.3434 0.3505
25.1000 8.3501 0.3595
25.1200 8.3568 0.3620
25.1400 8.3634 0.3484
25.1600 8.3700 0.3573
25.1800 8.3766 0.3610
25.2000 8.3833 0.3439
25.2200 8.3900 0.3620
25.2400 8.3967 0.3641
25.2600 8.4034 0.3366
25.2800 8.4101 0.3636
25.3000 8.4168 0.3615
25.3200 8.4234 0.3339
25.3400 8.4300 0.3689
25.3600 8.4366 0.3605
25.3800 8.4434 0.3339
25.4000 8.4501 0.3652
25.4200 8.4568 0.3563
25.4400 8.4634 0.3339
25.4600 8.4701 0.3702
25.4800 8.4767 0.3511
25.5000 8.4833 0.3356
25.5200 8.4899 0.3673
25.5400 8.4966 0.3539
25.5600 8.5033 0.3385
25.5800 8.5100 0.3631
25.6000 8.5167 0.3473
25.6200 8.5233 0.3445
25.6400 8.5300 0.3617
25.6600 8.5367 0.3464
25.6800 8.5433 0.3398
25.7000 8.5500 0.3618
25.7200 8.5566 0.3440
25.7400 8.5633 0.3428
25.7600 8.5701 0.3587
25.7800 8.5768 0.3436
25.8000 8.5835 0.3483
25.8200 8.5902 0.3497
25.8400 8.5968 0.3471
25.8600 8.6034 0.3487
25.8800 8.6100 0.3546
25.9000 8.6167 0.3430
25.9200 8.6234 0.3451
25.9400 8.6301 0.3522
25.9600 8.6368 0.3455
25.9800 8.6434 0.3437
26.0000 8.6501 0.3513
26.0200 8.6568 0.3420
26.0400 8.6634 0.3469
26.0600 8.6700 0.3479
26.0800 8.6766 0.3479
26.1000 8.6833 0.3453
26.1200 8.6900 0.3431
26.1400 8.6967 0.3436
26.1600 8.7034 0.3470
26.1800 8.7101 0.3440
26.2000 8.7167 0.3397
26.2200 8.7233 0.3441
26.2400 8.7299 0.3498
26.2600 8.7366 0.3368
26.2800 8.7433 0.3449
26.3000 8.7500 0.3442
26.3200 8.7567 0.3413
26.3400 8.7634 0.3427
26.3600 8.7700 0.3407
26.3800 8.7767 0.3428
26.4000 8.7833 0.3427
26.4200 8.7900 0.3450
26.4400 8.7966 0.3377
26.4600 8.8033 0.3470
26.4800 8.8101 0.3424
26.5000 8.8168 0.3355
26.5200 8.8234 0.3373
26.5400 8.8301 0.3433
26.5600 8.8368 0.3349
26.5800 8.8434 0.3376
26.6000 8.8500 0.3413
26.6200 8.8567 0.3370
26.6400 8.8634 0.3380
26.6600 8.8701 0.3407
26.6800 8.8767 0.3354
26.7000 8.8834 0.3398
26.7200 8.8901 0.3397
26.7400 8.8968 0.3353
26.7600 8.9034 0.3369
26.7800 8.9100 0.3382
26.8000 8.9166 0.3382
26.8200 8.9233 0.3397
26.8400 8.9300 0.3359
26.8600 8.9367 0.3341
26.8800 8.9434 0.3429
26.9000 8.9501 0.3339
26.9200 8.9567 0.3342
26.9400 8.9633 0.3404
26.9600 8.9699 0.3394
26.9800 8.9766 0.3334
27.0000 8.9833 0.3410
27.0200 8.9900 0.3371
27.0400 8.9967 0.3324
27.0600 9.0034 0.3373
27.0800 9.0100 0.3357
27.1000 9.0167 0.3285
27.1200 9.0234 0.3376
27.1400 9.0300 0.3313
27.1600 9.0366 0.3371
27.1800 9.0433 0.3358
27.2000 9.0500 0.3322
27.2200 9.0567 0.3316
27.2400 9.0634 0.3376
27.2600 9.0701 0.3349
27.2800 9.0768 0.3359
27.3000 9.0834 0.3316
27.3200 9.0900 0.3316
27.3400 9.0966 0.3386
27.3600 9.1033 0.3347
27.3800 9.1100 0.3286
27.4000 9.1168 0.3321
27.4200 9.1234 0.3370
27.4400 9.1301 0.3319
27.4600 9.1368 0.3279
27.4800 9.1434 0.3329
27.5000 9.1500 0.3349
27.5200 9.1566 0.3277
27.5400 9.1633 0.3372
27.5600 9.1701 0.3319
27.5800 9.1767 0.3275
27.6000 9.1834 0.3360
27.6200 9.1901 0.3312
27.6400 9.1968 0.3236
27.6600 9.2034 0.3423
27.6800 9.2100 0.3290
27.7000 9.2166 0.3236
27.7200 9.2233 0.3421
27.7400 9.2300 0.3241
27.7600 9.2367 0.3246
27.7800 9.2434 0.3456
27.8000 9.2501 0.3233
27.8200 9.2568 0.3257
27.8400 9.2634 0.3401
27.8600 9.2700 0.3211
27.8800 9.2766 0.3284
27.9000 9.2833 0.3416
27.9200 9.2901 0.3204
27.9400 9.2968 0.3241
27.9600 9.3035 0.3400
27.9800 9.3101 0.3201
28.0000 9.3168 0.3296
28.0200 9.3234 0.3402
28.0400 9.3300 0.3158
28.0600 9.3367 0.3293
28.0800 9.3434 0.3399
28.1000 9.3501 0.3131
28.1200 9.3567 0.3272
28.1400 9.3634 0.3338
28.1600 9.3701 0.3185
28.1800 9.3768 0.3235
28.2000 9.3834 0.3355
28.2200 9.3900 0.3177
28.2400 9.3966 0.3258
28.2600 9.4033 0.3314
28.2800 9.4100 0.3153
28.3000 9.4167 0.3233
28.3200 9.4234 0.3358
28.3400 9.4301 0.3158
28.3600 9.4368 0.3212
28.3800 9.4434 0.3291
28.4000 9.4500 0.3167
28.4200 9.4566 0.3228
28.4400 9.4633 0.3333
28.4600 9.4700 0.3176
28.4800 9.4767 0.3227
28.5000 9.4834 0.3309
28.5200 9.4900 0.3133
28.5400 9.4967 0.3238
28.5600 9.5034 0.3271
28.5800 9.5100 0.3174
28.6000 9.5167 0.3229
28.6200 9.5233 0.3295
28.6400 9.5301 0.3165
28.6600 9.5368 0.3230
28.6800 9.5434 0.3282
28.7000 9.5501 0.3160
28.7200 9.5568 0.3174
28.7400 9.5634 0.3294
28.7600 9.5701 0.3164
28.7800 9.5767 0.3244
28.8000 9.5833 0.3213
28.8200 9.5900 0.3213
28.8400 9.5967 0.3253
28.8600 9.6034 0.3197
28.8800 9.6101 0.3157
28.9000 9.6168 0.3226
28.9200 9.6234 0.3241
28.9400 9.6300 0.3173
28.9600 9.6366 0.3234
28.9800 9.6433 0.3255
29.0000 9.6500 0.3176
29.0200 9.6567 0.3193
29.0400 9.6633 0.3213
29.0600 9.6700 0.3152
29.0800 9.6767 0.3206
29.1000 9.6834 0.3215
29.1200 9.6900 0.3160
29.1400 9.6966 0.3186
29.1600 9.7033 0.3276
29.1800 9.7100 0.3118
29.2000 9.7167 0.3162
29.2200 9.7234 0.3243
29.2400 9.7300 0.3168
29.2600 9.7367 0.3106
29.2800 9.7434 0.3240
29.3000 9.7500 0.3186
29.3200 9.7567 0.3118
29.3400 9.7633 0.3189
29.3600 9.7700 0.3219
29.3800 9.7767 0.3124
29.4000 9.7834 0.3201
29.4200 9.7901 0.3195
29.4400 9.7968 0.3088
29.4600 9.8034 0.3174
29.4800 9.8100 0.3191
29.5000 9.8166 0.3094
29.5200 9.8233 0.3238
29.5400 9.8300 0.3177
29.5600 9.8367 0.3091
29.5800 9.8434 0.3195
29.6000 9.8501 0.3166
29.6200 9.8568 0.3113
29.6400 9.8634 0.3170
29.6600 9.8700 0.3179
29.6800 9.8766 0.3053
29.7000 9.8833 0.3220
29.7200 9.8900 0.3198
29.7400 9.8967 0.3044
29.7600 9.9034 0.3172
29.7800 9.9100 0.3215
29.8000 9.9167 0.3014
29.8200 9.9234 0.3167
29.8400 9.9300 0.3181
29.8600 9.9366 0.3051
29.8800 9.9432 0.3190
29.9000 9.9499 0.3184
29.9200 9.9567 0.3003
29.9400 9.9634 0.3171
29.9600 9.9700 0.3181
29.9800 9.9767 0.3049
30.0000 9.9833 0.3117
30.0200 9.9900 0.3149
30.0400 9.9966 0.3081
30.0600 10.0033 0.3138
30.0800 10.0100 0.3148
30.1000 10.0167 0.3038
30.1200 10.0234 0.3126
30.1400 10.0301 0.3141
30.1600 10.0368 0.3045
30.1800 10.0434 0.3092
30.2000 10.0501 0.3154
30.2200 10.0567 0.3041
30.2400 10.0633 0.3084
30.2600 10.0700 0.3165
30.2800 10.0767 0.3050
30.3000 10.0834 0.3089
30.3200 10.0901 0.3207
30.3400 10.0968 0.2990
30.3600 10.1035 0.3089
30.3800 10.1101 0.3141
30.4000 10.1166 0.3009
30.4200 10.1233 0.3085
30.4400 10.1300 0.3176
30.4600 10.1367 0.3012
30.4800 10.1434 0.3066
30.5000 10.1501 0.3128
30.5200 10.1567 0.2989
30.5400 10.1634 0.3086
30.5600 10.1700 0.3153
30.5800 10.1766 0.2983
30.6000 10.1833 0.3094
30.6200 10.1900 0.3136
30.6400 10.1967 0.2957
30.6600 10.2034 0.3117
30.6800 10.2100 0.3101
30.7000 10.2167 0.2970
30.7200 10.2234 0.3077
30.7400 10.2301 0.3091
30.7600 10.2367 0.2969
30.7800 10.2433 0.3115
30.8000 10.2500 0.3032
30.8200 10.2567 0.2988
30.8400 10.2634 0.3091
30.8600 10.2701 0.3098
30.8800 10.2768 0.2935
30.9000 10.2835 0.3097
30.9200 10.2901 0.3075
30.9400 10.2967 0.2955
30.9600 10.3033 0.3092
30.9800 10.3100 0.3089
31.0000 10.3167 0.2948
31.0200 10.3234 0.3053
31.0400 10.3301 0.3049
31.0600 10.3368 0.2999
31.0800 10.3434 0.3034
31.1000 10.3500 0.3040
31.1200 10.3566 0.2969
31.1400 10.3633 0.3083
31.1600 10.3700 0.3069
31.1800 10.3767 0.2894
31.2000 10.3834 0.3037
31.2200 10.3901 0.3092
31.2400 10.3967 0.2946
31.2600 10.4034 0.2978
31.2800 10.4100 0.3106
31.3000 10.4167 0.2940
31.3200 10.4233 0.3002
31.3400 10.4300 0.3048
31.3600 10.4367 0.2946
31.3800 10.4434 0.2974
31.4000 10.4501 0.3057
31.4200 10.4568 0.2935
31.4400 10.4634 0.2995
31.4600 10.4701 0.3005
31.4800 10.4767 0.3023
31.5000 10.4833 0.2964
31.5200 10.4900 0.3006
31.5400 10.4967 0.3025
31.5600 10.5034 0.2964
31.5800 10.5101 0.2955
31.6000 10.5168 0.3040
31.6200 10.5234 0.2959
31.6400 10.5301 0.2969
31.6600 10.5367 0.3037
31.6800 10.5433 0.2959
31.7000 10.5500 0.2991
31.7200 10.5567 0.2998
31.7400 10.5634 0.2916
31.7600 10.5701 0.2996
31.7800 10.5768 0.3025
31.8000 10.5835 0.2843
31.8200 10.5901 0.3003
31.8400 10.5967 0.3067
31.8600 10.6033 0.2903
31.8800 10.6100 0.2997
31.9000 10.6167 0.3013
31.9200 10.6234 0.2848
31.9400 10.6301 0.3035
31.9600 10.6368 0.2970
31.9800 10.6434 0.2870
32.0000 10.6501 0.3063
32.0200 10.6566 0.3001
32.0400 10.6632 0.2863
32.0600 10.6699 0.3057
32.0800 10.6767 0.3001
32.1000 10.6834 0.2867
32.1200 10.6900 0.2999
32.1400 10.6967 0.3019
32.1600 10.7034 0.2867
32.1800 10.7100 0.2972
32.2000 10.7166 0.2956
32.2200 10.7233 0.2899
32.2400 10.7300 0.3007
32.2600 10.7367 0.2898
32.2800 10.7434 0.2908
32.3000 10.7501 0.3027
32.3200 10.7568 0.2992
32.3400 10.7635 0.2864
32.3600 10.7701 0.2977
32.3800 10.7767 0.2999
32.4000 10.7833 0.2933
32.4200 10.7900 0.2940
32.4400 10.7967 0.3006
32.4600 10.8034 0.2846
32.4800 10.8101 0.2930
32.5000 10.8168 0.2962
32.5200 10.8234 0.2835
32.5400 10.8301 0.2934
32.5600 10.8366 0.3039
32.5800 10.8433 0.2842
32.6000 10.8500 0.2945
32.6200 10.8567 0.3029
32.6400 10.8634 0.2832
32.6600 10.8701 0.2884
32.6800 10.8767 0.2998
32.7000 10.8834 0.2839
32.7200 10.8901 0.2894
32.7400 10.8967 0.3022
32.7600 10.9033 0.2835
32.7800 10.9100 0.2885
32.8000 10.9167 0.3006
32.8200 10.9234 0.2826
32.8400 10.9300 0.2890
32.8600 10.9367 0.3026
32.8800 10.9434 0.2817
32.9000 10.9501 0.2884
32.9200 10.9567 0.2986
32.9400 10.9633 0.2841
32.9600 10.9700 0.2889
32.9800 10.9767 0.2998
33.0000 10.9834 0.2804
33.0200 10.9901 0.2960
33.0400 10.9968 0.2975
33.0600 11.0034 0.2751
33.0800 11.0101 0.2945
33.1000 11.0167 0.2989
33.1200 11.0233 0.2758
33.1400 11.0300 0.2964
33.1600 11.0367 0.2945
33.1800 11.0434 0.2738
33.2000 11.0501 0.2940
33.2200 11.0568 0.2912
33.2400 11.0635 0.2751
33.2600 11.0701 0.2974
33.2800 11.0767 0.2862
33.3000 11.0833 0.2790
33.3200 11.0900 0.3021
33.3400 11.0967 0.2823
33.3600 11.1034 0.2831
33.3800 11.1100 0.2950
33.4000 11.1167 0.2815
33.4200 11.1234 0.2785
33.4400 11.1301 0.2941
33.4600 11.1367 0.2800
33.4800 11.1433 0.2862
33.5000 11.1500 0.2920
33.5200 11.1567 0.2837
33.5400 11.1634 0.2785
33.5600 11.1701 0.2873
33.5800 11.1767 0.2822
33.6000 11.1834 0.2841
33.6200 11.1901 0.2812
33.6400 11.1967 0.2869
33.6600 11.2033 0.2828
33.6800 11.2100 0.2840
33.7000 11.2167 0.2852
33.7200 11.2234 0.2783
33.7400 11.2301 0.2817
33.7600 11.2368 0.2871
33.7800 11.2435 0.2767
33.8000 11.2501 0.2831
33.8200 11.2567 0.2877
33.8400 11.2633 0.2806
33.8600 11.2699 0.2840
33.8800 11.2767 0.2838
33.9000 11.2834 0.2775
33.9200 11.2901 0.2819
33.9400 11.2968 0.2808
33.9600 11.3034 0.2728
33.9800 11.3101 0.2838
34.0000 11.3167 0.2793
34.0200 11.3233 0.2780
34.0400 11.3299 0.2804
34.0600 11.3366 0.2822
34.0800 11.3434 0.2754
34.1000 11.3501 0.2797
34.1200 11.3568 0.2806
34.1400 11.3635 0.2766
34.1600 11.3701 0.2728
34.1800 11.3767 0.2795
34.2000 11.3833 0.2823
34.2200 11.3899 0.2756
34.2400 11.3966 0.2739
34.2600 11.4034 0.2794
34.2800 11.4100 0.2733
34.3000 11.4167 0.2764
34.3200 11.4234 0.2802
34.3400 11.4300 0.2711
34.3600 11.4367 0.2780
34.3800 11.4433 0.2827
34.4000 11.4500 0.2656
34.4200 11.4567 0.2736
34.4400 11.4634 0.2889
34.4600 11.4701 0.2645
34.4800 11.4768 0.2701
34.5000 11.4835 0.2882
34.5200 11.4901 0.2680
34.5400 11.4967 0.2693
34.5600 11.5033 0.2846
34.5800 11.5100 0.2685
34.6000 11.5167 0.2829
34.6200 11.5234 0.2803
34.6400 11.5301 0.2625
34.6600 11.5368 0.2825
34.6800 11.5434 0.2825
34.7000 11.5500 0.2611
34.7200 11.5567 0.2785
34.7400 11.5633 0.2877
34.7600 11.5700 0.2660
34.7800 11.5767 0.2778
34.8000 11.5834 0.2766
34.8200 11.5900 0.2689
34.8400 11.5967 0.2843
34.8600 11.6034 0.2719
34.8800 11.6100 0.2657
34.9000 11.6167 0.2811
34.9200 11.6233 0.2760
34.9400 11.6299 0.2721
34.9600 11.6366 0.2745
34.9800 11.6434 0.2806
35.0000 11.6500 0.2645
35.0200 11.6567 0.2736
35.0400 11.6634 0.2806
35.0600 11.6701 0.2677
35.0800 11.6767 0.2719
35.1000 11.6833 0.2806
35.1200 11.6900 0.2702
35.1400 11.6967 0.2739
35.1600 11.7034 0.2795
35.1800 11.7101 0.2703
35.2000 11.7168 0.2643
35.2200 11.7234 0.2803
35.2400 11.7301 0.2740
35.2600 11.7367 0.2655
35.2800 11.7433 0.2781
35.3000 11.7500 0.2759
35.3200 11.7567 0.2611
35.3400 11.7634 0.2791
35.3600 11.7701 0.2742
35.3800 11.7768 0.2636
35.4000 11.7834 0.2808
35.4200 11.7901 0.2630
35.4400 11.7967 0.2620
35.4600 11.8034 0.2839
35.4800 11.8100 0.2672
35.5000 11.8167 0.2605
35.5200 11.8233 0.2780
35.5400 11.8300 0.2650
35.5600 11.8367 0.2632
35.5800 11.8434 0.2806
35.6000 11.8501 0.2639
35.6200 11.8567 0.2591
35.6400 11.8633 0.2822
35.6600 11.8699 0.2620
35.6800 11.8766 0.2662
35.7000 11.8833 0.2779
35.7200 11.8900 0.2594
35.7400 11.8967 0.2665
35.7600 11.9034 0.2752
35.7800 11.9101 0.2607
35.8000 11.9167 0.2654
35.8200 11.9233 0.2709
35.8400 11.9300 0.2641
35.8600 11.9367 0.2644
35.8800 11.9434 0.2767
35.9000 11.9501 0.2536
35.9200 11.9567 0.2659
35.9400 11.9634 0.2753
35.9600 11.9701 0.2559
35.9800 11.9767 0.2670
36.0000 11.9834 0.2722
36.0200 11.9900 0.2573
36.0400 11.9967 0.2632
36.0600 12.0034 0.2779
36.0800 12.0101 0.2547
36.1000 12.0168 0.2578
36.1200 12.0235 0.2760
36.1400 12.0301 0.2559
36.1600 12.0367 0.2580
36.1800 12.0433 0.2755
36.2000 12.0499 0.2620
36.2200 12.0567 0.2598
36.2400 12.0634 0.2656
36.2600 12.0701 0.2632
36.2800 12.0767 0.2579
36.3000 12.0834 0.2691
36.3200 12.0900 0.2553
36.3400 12.0967 0.2588
36.3600 12.1033 0.2726
36.3800 12.1100 0.2566
36.4000 12.1167 0.2557
36.4200 12.1233 0.2695
36.4400 12.1300 0.2565
36.4600 12.1367 0.2557
36.4800 12.1433 0.2709
36.5000 12.1500 0.2528
36.5200 12.1567 0.2521
36.5400 12.1633 0.2740
36.5600 12.1700 0.2518
36.5800 12.1767 0.2543
36.6000 12.1834 0.2726
36.6200 12.1901 0.2443
36.6400 12.1968 0.2566
36.6600 12.2035 0.2726
36.6800 12.2101 0.2491
36.7000 12.2167 0.2540
36.7200 12.2233 0.2725
36.7400 12.2300 0.2452
36.7600 12.2367 0.2569
36.7800 12.2434 0.2676
36.8000 12.2501 0.2472
36.8200 12.2568 0.2583
36.8400 12.2634 0.2641
36.8600 12.2701 0.2482
36.8800 12.2767 0.2606
36.9000 12.2833 0.2618
36.9200 12.2900 0.2502
36.9400 12.2966 0.2558
36.9600 12.3034 0.2616
36.9800 12.3101 0.2497
37.0000 12.3167 0.2558
37.0200 12.3234 0.2641
37.0400 12.3301 0.2487
37.0600 12.3367 0.2498
37.0800 12.3433 0.2622
37.1000 12.3499 0.2507
37.1200 12.3566 0.2480
37.1400 12.3633 0.2632
37.1600 12.3700 0.2546
37.1800 12.3767 0.2408
37.2000 12.3834 0.2635
37.2200 12.3901 0.2551
37.2400 12.3967 0.2385
37.2600 12.4033 0.2698
37.2800 12.4100 0.2505
37.3000 12.4166 0.2398
37.3200 12.4233 0.2681
37.3400 12.4301 0.2523
37.3600 12.4367 0.2364
37.3800 12.4434 0.2706
37.4000 12.4501 0.2519
37.4200 12.4568 0.2313
37.4400 12.4634 0.2731
37.4600 12.4700 0.2555
37.4800 12.4767 0.2353
37.5000 12.4834 0.2665
37.5200 12.4901 0.2509
37.5400 12.4967 0.2394
37.5600 12.5034 0.2642
37.5800 12.5101 0.2488
37.6000 12.5168 0.2405
37.6200 12.5234 0.2625
37.6400 12.5300 0.2459
37.6600 12.5366 0.2388
37.6800 12.5433 0.2654
37.7000 12.5501 0.2406
37.7200 12.5567 0.2404
37.7400 12.5634 0.2636
37.7600 12.5701 0.2416
37.7800 12.5767 0.2437
37.8000 12.5833 0.2641
37.8200 12.5899 0.2419
37.8400 12.5966 0.2441
37.8600 12.6033 0.2589
37.8800 12.6100 0.2428
37.9000 12.6166 0.2424
37.9200 12.6233 0.2623
37.9400 12.6300 0.2378
37.9600 12.6367 0.2437
37.9800 12.6434 0.2606
38.0000 12.6500 0.2418
38.0200 12.6567 0.2433
38.0400 12.6634 0.2585
38.0600 12.6701 0.2410
38.0800 12.6767 0.2444
38.1000 12.6834 0.2589
38.1200 12.6901 0.2393
38.1400 12.6968 0.2455
38.1600 12.7034 0.2511
38.1800 12.7100 0.2423
38.2000 12.7167 0.2483
38.2200 12.7234 0.2491
38.2400 12.7301 0.2414
38.2600 12.7368 0.2470
38.2800 12.7435 0.2480
38.3000 12.7501 0.2457
38.3200 12.7568 0.2451
38.3400 12.7633 0.2484
38.3600 12.7700 0.2374
38.3800 12.7766 0.2466
38.4000 12.7834 0.2473
38.4200 12.7901 0.2395
38.4400 12.7967 0.2425
38.4600 12.8034 0.2434
38.4800 12.8101 0.2383
38.5000 12.8167 0.2452
38.5200 12.8234 0.2405
38.5400 12.8300 0.2437
38.5600 12.8366 0.2466
38.5800 12.8433 0.2406
38.6000 12.8500 0.2385
38.6200 12.8567 0.2482
38.6400 12.8633 0.2451
38.6600 12.8700 0.2423
38.6800 12.8767 0.2479
38.7000 12.8833 0.2384
38.7200 12.8899 0.2431
38.7400 12.8966 0.2493
38.7600 12.9033 0.2348
38.7800 12.9101 0.2431
38.8000 12.9168 0.2486
38.8200 12.9235 0.2372
38.8400 12.9302 0.2456
38.8600 12.9368 0.2387
38.8800 12.9434 0.2405
38.9000 12.9500 0.2448
38.9200 12.9566 0.2373
38.9400 12.9634 0.2373
38.9600 12.9701 0.2431
38.9800 12.9768 0.2345
39.0000 12.9835 0.2456
39.0200 12.9901 0.2404
39.0400 12.9968 0.2313
39.0600 13.0034 0.2492
39.0800 13.0100 0.2432
39.1000 13.0166 0.2302
39.1200 13.0233 0.2468
39.1400 13.0300 0.2337
39.1600 13.0367 0.2368
39.1800 13.0434 0.2465
39.2000 13.0501 0.2280
39.2200 13.0567 0.2353
39.2400 13.0634 0.2435
39.2600 13.0699 0.2292
39.2800 13.0766 0.2434
39.3000 13.0833 0.2455
39.3200 13.0900 0.2231
39.3400 13.0967 0.2476
39.3600 13.1034 0.2423
39.3800 13.1101 0.2235
39.4000 13.1167 0.2474
39.4200 13.1234 0.2365
39.4400 13.1300 0.2193
39.4600 13.1367 0.2530
39.4800 13.1433 0.2300
39.5000 13.1500 0.2236
39.5200 13.1566 0.2509
39.5400 13.1633 0.2331
39.5600 13.1700 0.2291
39.5800 13.1768 0.2455
39.6000 13.1834 0.2262
39.6200 13.1901 0.2291
39.6400 13.1967 0.2467
39.6600 13.2034 0.2301
39.6800 13.2100 0.2307
39.7000 13.2167 0.2430
39.7200 13.2234 0.2302
39.7400 13.2301 0.2337
39.7600 13.2368 0.2419
39.7800 13.2434 0.2259
39.8000 13.2500 0.2343
39.8200 13.2566 0.2441
39.8400 13.2634 0.2313
39.8600 13.2701 0.2286
39.8800 13.2768 0.2421
39.9000 13.2834 0.2297
39.9200 13.2901 0.2305
39.9400 13.2968 0.2363
39.9600 13.3034 0.2262
39.9800 13.3100 0.2299
40.0000 13.3166 0.2417
40.0200 13.3233 0.2271
40.0400 13.3300 0.2236
40.0600 13.3367 0.2412
40.0800 13.3433 0.2302
40.1000 13.3500 0.2202
40.1200 13.3567 0.2449
40.1400 13.3634 0.2271
40.1600 13.3700 0.2227
40.1800 13.3766 0.2422
40.2000 13.3833 0.2317
40.2200 13.3900 0.2240
40.2400 13.3968 0.2390
40.2600 13.4034 0.2315
40.2800 13.4101 0.2245
40.3000 13.4168 0.2399
40.3200 13.4234 0.2269
40.3400 13.4299 0.2235
40.3600 13.4366 0.2423
40.3800 13.4433 0.2231
40.4000 13.4501 0.2229
40.4200 13.4568 0.2384
40.4400 13.4635 0.2124
40.4600 13.4701 0.2309
40.4800 13.4768 0.2413
40.5000 13.4834 0.2182
40.5200 13.4899 0.2266
40.5400 13.4966 0.2413
40.5600 13.5033 0.2159
40.5800 13.5100 0.2288
40.6000 13.5167 0.2381
40.6200 13.5234 0.2129
40.6400 13.5301 0.2314
40.6600 13.5368 0.2349
40.6800 13.5434 0.2134
40.7000 13.5500 0.2375
40.7200 13.5566 0.2332
40.7400 13.5633 0.2158
40.7600 13.5700 0.2291
40.7800 13.5767 0.2269
40.8000 13.5834 0.2220
40.8200 13.5901 0.2307
40.8400 13.5967 0.2249
40.8600 13.6034 0.2192
40.8800 13.6100 0.2342
40.9000 13.6166 0.2248
40.9200 13.6233 0.2219
40.9400 13.6301 0.2302
40.9600 13.6368 0.2256
40.9800 13.6434 0.2177
41.0000 13.6501 0.2284
41.0200 13.6568 0.2276
41.0400 13.6634 0.2211
41.0600 13.6700 0.2241
41.0800 13.6767 0.2295
41.1000 13.6833 0.2239
41.1200 13.6900 0.2287
41.1400 13.6967 0.2262
41.1600 13.7033 0.2268
41.1800 13.7101 0.2243
41.2000 13.7168 0.2221
41.2200 13.7234 0.2250
41.2400 13.7300 0.2253
41.2600 13.7366 0.2255
41.2800 13.7433 0.2245
41.3000 13.7500 0.2204
41.3200 13.7567 0.2243
41.3400 13.7633 0.2276
41.3600 13.7700 0.2228
41.3800 13.7767 0.2255
41.4000 13.7833 0.2221
41.4200 13.7900 0.2243
41.4400 13.7966 0.2198
41.4600 13.8033 0.2216
41.4800 13.8100 0.2222
41.5000 13.8167 0.2234
41.5200 13.8233 0.2221
41.5400 13.8300 0.2245
41.5600 13.8367 0.2208
41.5800 13.8434 0.2207
41.6000 13.8500 0.2206
41.6200 13.8567 0.2228
41.6400 13.8633 0.2192
41.6600 13.8700 0.2223
41.6800 13.8767 0.2201
41.7000 13.8834 0.2222
41.7200 13.8901 0.2168
41.7400 13.8968 0.2223
41.7600 13.9034 0.2187
41.7800 13.9100 0.2172
41.8000 13.9166 0.2232
41.8200 13.9233 0.2192
41.8400 13.9301 0.2132
41.8600 13.9368 0.2249
41.8800 13.9435 0.2198
41.9000 13.9501 0.2112
41.9200 13.9568 0.2219
41.9400 13.9634 0.2121
41.9600 13.9700 0.2156
41.9800 13.9766 0.2252
42.0000 13.9833 0.2122
42.0200 13.9901 0.2132
42.0400 13.9967 0.2250
42.0600 14.0034 0.2072
42.0800 14.0101 0.2140
42.1000 14.0167 0.2217
42.1200 14.0234 0.2044
42.1400 14.0300 0.2203
42.1600 14.0366 0.2184
42.1800 14.0432 0.2050
42.2000 14.0500 0.2255
42.2200 14.0567 0.2120
42.2400 14.0634 0.2040
42.2600 14.0701 0.2194
42.2800 14.0768 0.2131
42.3000 14.0834 0.2026
42.3200 14.0900 0.2198
42.3400 14.0966 0.2131
42.3600 14.1033 0.2058
42.3800 14.1100 0.2199
42.4000 14.1167 0.2077
42.4200 14.1234 0.2034
42.4400 14.1301 0.2159
42.4600 14.1368 0.2075
42.4800 14.1435 0.2016
42.5000 14.1500 0.2199
42.5200 14.1567 0.2081
42.5400 14.1633 0.2038
42.5600 14.1701 0.2185
42.5800 14.1767 0.2049
42.6000 14.1834 0.1996
42.6200 14.1901 0.2195
42.6400 14.1968 0.2068
42.6600 14.2034 0.2052
42.6800 14.2100 0.2139
42.7000 14.2166 0.2087
42.7200 14.2233 0.1981
42.7400 14.2300 0.2151
42.7600 14.2367 0.2129
42.7800 14.2434 0.1968
42.8000 14.2501 0.2149
42.8200 14.2568 0.2095
42.8400 14.2634 0.1970
42.8600 14.2700 0.2161
42.8800 14.2766 0.2091
42.9000 14.2833 0.1998
42.9200 14.2900 0.2142
42.9400 14.2967 0.2062
42.9600 14.3033 0.1993
42.9800 14.3100 0.2163
43.0000 14.3167 0.2062
43.0200 14.3234 0.1943
43.0400 14.3300 0.2188
43.0600 14.3367 0.2055
43.0800 14.3433 0.1991
43.1000 14.3500 0.2146
43.1200 14.3567 0.2010
43.1400 14.3634 0.2012
43.1600 14.3701 0.2178
43.1800 14.3768 0.1992
43.2000 14.3834 0.2037
43.2200 14.3901 0.2114
43.2400 14.3967 0.1986
43.2600 14.4033 0.2015
43.2800 14.4100 0.2126
43.3000 14.4167 0.1988
43.3200 14.4234 0.2046
43.3400 14.4301 0.2067
43.3600 14.4368 0.1984
43.3800 14.4434 0.2056
43.4000 14.4500 0.2059
43.4200 14.4566 0.2023
43.4400 14.4633 0.2071
43.4600 14.4700 0.1996
43.4800 14.4767 0.1993
43.5000 14.4834 0.2041
43.5200 14.4900 0.1989
43.5400 14.4967 0.2050
43.5600 14.5033 0.2022
43.5800 14.5100 0.1980
43.6000 14.5166 0.2025
43.6200 14.5233 0.2040
43.6400 14.5300 0.1976
43.6600 14.5367 0.2050
43.6800 14.5434 0.1952
43.7000 14.5500 0.1996
43.7200 14.5567 0.2068
43.7400 14.5634 0.1957
43.7600 14.5700 0.1991
43.7800 14.5767 0.2079
43.8000 14.5833 0.1906
43.8200 14.5900 0.2030
43.8400 14.5967 0.2063
43.8600 14.6034 0.1896
43.8800 14.6101 0.2055
43.9000 14.6168 0.2048
43.9200 14.6234 0.1882
43.9400 14.6300 0.2071
43.9600 14.6366 0.2004
43.9800 14.6433 0.1866
44.0000 14.6500 0.2100
44.0200 14.6567 0.1942
44.0400 14.6634 0.1909
44.0600 14.6701 0.2071
44.0800 14.6768 0.1936
44.1000 14.6834 0.1945
44.1200 14.6900 0.2067
44.1400 14.6967 0.1890
44.1600 14.7033 0.2015
44.1800 14.7100 0.2008
44.2000 14.7167 0.1853
44.2200 14.7234 0.2021
44.2400 14.7301 0.1970
44.2600 14.7367 0.1837
44.2800 14.7434 0.2097
44.3000 14.7500 0.1890
44.3200 14.7566 0.1873
44.3400 14.7632 0.2102
44.3600 14.7699 0.1898
44.3800 14.7766 0.1887
44.4000 14.7833 0.2078
44.4200 14.7900 0.1878
44.4400 14.7967 0.1888
44.4600 14.8034 0.2031
44.4800 14.8100 0.1865
44.5000 14.8166 0.1959
44.5200 14.8233 0.2002
44.5400 14.8300 0.1855
44.5600 14.8367 0.1944
44.5800 14.8434 0.1988
44.6000 14.8501 0.1880
44.6200 14.8568 0.1981
44.6400 14.8635 0.1935
44.6600 14.8701 0.1852
44.6800 14.8767 0.1895
44.7000 14.8834 0.1920
44.7200 14.8901 0.1909
44.7400 14.8968 0.1918
44.7600 14.9034 0.1907
44.7800 14.9101 0.1930
44.8000 14.9168 0.1879
44.8200 14.9234 0.1946
44.8400 14.9300 0.1884
44.8600 14.9366 0.1864
44.8800 14.9433 0.1947
44.9000 14.9500 0.1914
44.9200 14.9567 0.1793
44.9400 14.9634 0.1916
44.9600 14.9700 0.1926
44.9800 14.9767 0.1789
45.0000 14.9834 0.1893
45.0200 14.9900 0.1867
45.0400 14.9966 0.1841
45.0600 15.0033 0.1935
45.0800 15.0100 0.1864
45.1000 15.0167 0.1770
45.1200 15.0234 0.1957
45.1400 15.0300 0.1816
45.1600 15.0367 0.1792
45.1800 15.0434 0.1968
45.2000 15.0500 0.1812
45.2200 15.0567 0.1843
45.2400 15.0633 0.1968
45.2600 15.0700 0.1721
45.2800 15.0767 0.1901
45.3000 15.0834 0.1948
45.3200 15.0901 0.1734
45.3400 15.0968 0.1883
45.3600 15.1035 0.1977
45.3800 15.1101 0.1683
45.4000 15.1167 0.1913
45.4200 15.1233 0.1948
45.4400 15.1300 0.1706
45.4600 15.1367 0.1942
45.4800 15.1435 0.1872
45.5000 15.1501 0.1690
45.5200 15.1568 0.2012
45.5400 15.1634 0.1834
45.5600 15.1700 0.1718
45.5800 15.1766 0.2008
45.6000 15.1833 0.1812
45.6200 15.1900 0.1723
45.6400 15.1967 0.1976
45.6600 15.2034 0.1777
45.6800 15.2101 0.1732
45.7000 15.2167 0.1998
45.7200 15.2234 0.1690
45.7400 15.2300 0.1795
45.7600 15.2367 0.1981
45.7800 15.2433 0.1693
45.8000 15.2500 0.1779
45.8200 15.2567 0.1952
45.8400 15.2633 0.1726
45.8600 15.2700 0.1795
45.8800 15.2767 0.1914
45.9000 15.2834 0.1715
45.9200 15.2901 0.1761
45.9400 15.2967 0.1917
45.9600 15.3033 0.1725
45.9800 15.3100 0.1865
46.0000 15.3167 0.1888
46.0200 15.3234 0.1689
46.0400 15.3301 0.1842
46.0600 15.3368 0.1863
46.0800 15.3435 0.1713
46.1000 15.3501 0.1845
46.1200 15.3567 0.1829
46.1400 15.3633 0.1739
46.1600 15.3700 0.1869
46.1800 15.3767 0.1744
46.2000 15.3834 0.1748
46.2200 15.3901 0.1865
46.2400 15.3968 0.1727
46.2600 15.4035 0.1721
46.2800 15.4101 0.1900
46.3000 15.4167 0.1730
46.3200 15.4233 0.1665
46.3400 15.4300 0.1864
46.3600 15.4367 0.1778
46.3800 15.4434 0.1680
46.4000 15.4501 0.1857
46.4200 15.4568 0.1730
46.4400 15.4634 0.1722
46.4600 15.4701 0.1795
46.4800 15.4766 0.1676
46.5000 15.4832 0.1769
46.5200 15.4899 0.1806
46.5400 15.4966 0.1657
46.5600 15.5034 0.1766
46.5800 15.5100 0.1791
46.6000 15.5167 0.1676
46.6200 15.5234 0.1748
46.6400 15.5300 0.1749
46.6600 15.5367 0.1710
46.6800 15.5433 0.1747
46.7000 15.5500 0.1731
46.7200 15.5567 0.1738
46.7400 15.5634 0.1753
46.7600 15.5701 0.1678
46.7800 15.5767 0.1737
46.8000 15.5834 0.1734
46.8200 15.5901 0.1654
46.8400 15.5967 0.1693
46.8600 15.6033 0.1761
46.8800 15.6100 0.1654
46.9000 15.6167 0.1697
46.9200 15.6234 0.1738
46.9400 15.6301 0.1696
46.9600 15.6368 0.1651
46.9800 15.6434 0.1708
47.0000 15.6500 0.1705
47.0200 15.6566 0.1690
47.0400 15.6633 0.1663
47.0600 15.6700 0.1698
47.0800 15.6767 0.1678
47.1000 15.6834 0.1635
47.1200 15.6901 0.1640
47.1400 15.6967 0.1666
47.1600 15.7034 0.1653
47.1800 15.7101 0.1653
47.2000 15.7167 0.1622
47.2200 15.7233 0.1690
47.2400 15.7300 0.1704
47.2600 15.7367 0.1623
47.2800 15.7434 0.1648
47.3000 15.7500 0.1686
47.3200 15.7567 0.1648
47.3400 15.7634 0.1607
47.3600 15.7701 0.1696
47.3800 15.7767 0.1639
47.4000 15.7833 0.1609
47.4200 15.7900 0.1639
47.4400 15.7967 0.1629
47.4600 15.8034 0.1637
47.4800 15.8101 0.1626
47.5000 15.8168 0.1579
47.5200 15.8235 0.1703
47.5400 15.8301 0.1592
47.5600 15.8367 0.1603
47.5800 15.8433 0.1668
47.6000 15.8500 0.1611
47.6200 15.8567 0.1646
47.6400 15.8634 0.1656
47.6600 15.8701 0.1606
47.6800 15.8768 0.1651
47.7000 15.8835 0.1572
47.7200 15.8901 0.1595
47.7400 15.8967 0.1646
47.7600 15.9033 0.1607
47.7800 15.9100 0.1606
47.8000 15.9167 0.1631
47.8200 15.9234 0.1568
47.8400 15.9300 0.1588
47.8600 15.9367 0.1672
47.8800 15.9434 0.1580
47.9000 15.9501 0.1582
47.9200 15.9567 0.1603
47.9400 15.9633 0.1598
47.9600 15.9699 0.1575
47.9800 15.9766 0.1656
48.0000 15.9834 0.1591
48.0200 15.9901 0.1554
48.0400 15.9967 0.1624
48.0600 16.0034 0.1605
48.0800 16.0101 0.1539
48.1000 16.0167 0.1639
48.1200 16.0233 0.1583
48.1400 16.0300 0.1532
48.1600 16.0367 0.1636
48.1800 16.0434 0.1567
48.2000 16.0501 0.1518
48.2200 16.0568 0.1663
48.2400 16.0634 0.1564
48.2600 16.0701 0.1519
48.2800 16.0767 0.1610
48.3000 16.0833 0.1558
48.3200 16.0900 0.1521
48.3400 16.0967 0.1630
48.3600 16.1034 0.1550
48.3800 16.1101 0.1498
48.4000 16.1168 0.1612
48.4200 16.1234 0.1533
48.4400 16.1301 0.1546
48.4600 16.1367 0.1593
48.4800 16.1433 0.1567
48.5000 16.1499 0.1540
48.5200 16.1566 0.1598
48.5400 16.1634 0.1487
48.5600 16.1700 0.1546
48.5800 16.1767 0.1620
48.6000 16.1834 0.1504
48.6200 16.1901 0.1510
48.6400 16.1967 0.1586
48.6600 16.2033 0.1501
48.6800 16.2099 0.1548
48.7000 16.2166 0.1603
48.7200 16.2234 0.1515
48.7400 16.2300 0.1511
48.7600 16.2367 0.1576
48.7800 16.2434 0.1508
48.8000 16.2501 0.1487
48.8200 16.2567 0.1658
48.8400 16.2633 0.1521
48.8600 16.2700 0.1457
48.8800 16.2767 0.1657
48.9000 16.2834 0.1522
48.9200 16.2901 0.1359
48.9400 16.2968 0.1651
48.9600 16.3035 0.1496
48.9800 16.3101 0.1370
49.0000 16.3167 0.1596
49.0200 16.3233 0.1541
49.0400 16.3300 0.1427
49.0600 16.3367 0.1593
49.0800 16.3434 0.1511
49.1000 16.3501 0.1461
49.1200 16.3568 0.1541
49.1400 16.3634 0.1509
49.1600 16.3701 0.1461
49.1800 16.3767 0.1580
49.2000 16.3833 0.1467
49.2200 16.3899 0.1529
49.2400 16.3966 0.1598
49.2600 16.4033 0.1416
49.2800 16.4100 0.1491
49.3000 16.4167 0.1594
49.3200 16.4234 0.1403
49.3400 16.4301 0.1486
49.3600 16.4367 0.1545
49.3800 16.4433 0.1453
49.4000 16.4499 0.1529
49.4200 16.4566 0.1512
49.4400 16.4633 0.1435
49.4600 16.4700 0.1550
49.4800 16.4767 0.1519
49.5000 16.4834 0.1380
49.5200 16.4901 0.1544
49.5400 16.4967 0.1465
49.5600 16.5033 0.1420
49.5800 16.5100 0.1531
49.6000 16.5167 0.1451
49.6200 16.5234 0.1451
49.6400 16.5301 0.1526
49.6600 16.5368 0.1425
49.6800 16.5434 0.1480
49.7000 16.5501 0.1492
49.7200 16.5567 0.1439
49.7400 16.5633 0.1442
49.7600 16.5700 0.1502
49.7800 16.5767 0.1405
49.8000 16.5834 0.1456
49.8200 16.5901 0.1494
49.8400 16.5967 0.1409
49.8600 16.6034 0.1453
49.8800 16.6101 0.1436
49.9000 16.6168 0.1403
49.9200 16.6234 0.1415
49.9400 16.6300 0.1463
49.9600 16.6367 0.1388
49.9800 16.6434 0.1440
50.0000 16.6501 0.1451
50.0200 16.6567 0.1354
50.0400 16.6634 0.1436
50.0600 16.6701 0.1410
50.0800 16.6767 0.1344
50.1000 16.6833 0.1508
50.1200 16.6899 0.1392
50.1400 16.6966 0.1349
50.1600 16.7034 0.1419
50.1800 16.7101 0.1402
50.2000 16.7167 0.1329
50.2200 16.7234 0.1435
50.2400 16.7301 0.1374
50.2600 16.7367 0.1442
50.2800 16.7433 0.1391
50.3000 16.7500 0.1311
50.3200 16.7567 0.1461
50.3400 16.7634 0.1367
50.3600 16.7701 0.1322
50.3800 16.7767 0.1428
50.4000 16.7834 0.1335
50.4200 16.7901 0.1324
50.4400 16.7967 0.1389
50.4600 16.8033 0.1336
50.4800 16.8100 0.1370
50.5000 16.8167 0.1410
50.5200 16.8234 0.1322
50.5400 16.8301 0.1315
50.5600 16.8368 0.1436
50.5800 16.8434 0.1327
50.6000 16.8501 0.1325
50.6200 16.8568 0.1346
50.6400 16.8633 0.1346
50.6600 16.8700 0.1352
50.6800 16.8767 0.1339
50.7000 16.8834 0.1354
50.7200 16.8901 0.1338
50.7400 16.8968 0.1264
50.7600 16.9034 0.1366
50.7800 16.9101 0.1291
50.8000 16.9167 0.1264
50.8200 16.9233 0.1339
50.8400 16.9299 0.1322
50.8600 16.9366 0.1257
50.8800 16.9433 0.1360
50.9000 16.9500 0.1329
50.9200 16.9567 0.1263
50.9400 16.9634 0.1359
50.9600 16.9700 0.1268
50.9800 16.9767 0.1174
51.0000 16.9833 0.1383
51.0200 16.9899 0.1314
51.0400 16.9966 0.1238
51.0600 17.0033 0.1293
51.0800 17.0101 0.1225
51.1000 17.0168 0.1270
51.1200 17.0234 0.1300
51.1400 17.0301 0.1222
51.1600 17.0367 0.1222
51.1800 17.0433 0.1313
51.2000 17.0500 0.1210
51.2200 17.0567 0.1272
51.2400 17.0634 0.1241
51.2600 17.0701 0.1181
51.2800 17.0767 0.1258
51.3000 17.0834 0.1250
51.3200 17.0901 0.1198
51.3400 17.0967 0.1284
51.3600 17.1033 0.1209
51.3800 17.1100 0.1197
51.4000 17.1166 0.1260
51.4200 17.1233 0.1218
51.4400 17.1300 0.1183
51.4600 17.1367 0.1299
51.4800 17.1434 0.1155
51.5000 17.1501 0.1210
51.5200 17.1567 0.1283
51.5400 17.1633 0.1123
51.5600 17.1699 0.1231
51.5800 17.1766 0.1272
51.6000 17.1833 0.1191
51.6200 17.1901 0.1221
51.6400 17.1967 0.1264
51.6600 17.2034 0.1178
51.6800 17.2101 0.1165
51.7000 17.2167 0.1210
51.7200 17.2233 0.1184
51.7400 17.2300 0.1178
51.7600 17.2366 0.1266
51.7800 17.2434 0.1191
51.8000 17.2500 0.1191
51.8200 17.2567 0.1173
51.8400 17.2634 0.1244
51.8600 17.2701 0.1129
51.8800 17.2768 0.1189
51.9000 17.2834 0.1249
51.9200 17.2900 0.1178
51.9400 17.2967 0.1141
51.9600 17.3034 0.1208
51.9800 17.3101 0.1163
52.0000 17.3167 0.1168
52.0200 17.3234 0.1170
52.0400 17.3301 0.1137
52.0600 17.3368 0.1134
52.0800 17.3434 0.1199
52.1000 17.3500 0.1119
52.1200 17.3566 0.1136
52.1400 17.3633 0.1198
52.1600 17.3700 0.1086
52.1800 17.3767 0.1143
52.2000 17.3834 0.1249
52.2200 17.3901 0.1074
52.2400 17.3967 0.1106
52.2600 17.4033 0.1244
52.2800 17.4099 0.1045
52.3000 17.4166 0.1130
52.3200 17.4233 0.1236
52.3400 17.4300 0.1060
52.3600 17.4367 0.1045
52.3800 17.4433 0.1279
52.4000 17.4500 0.1057
52.4200 17.4567 0.1051
52.4400 17.4633 0.1227
52.4600 17.4700 0.1043
52.4800 17.4766 0.1038
52.5000 17.4834 0.1237
52.5200 17.4901 0.1047
52.5400 17.4968 0.1047
52.5600 17.5034 0.1215
52.5800 17.5101 0.1010
52.6000 17.5168 0.1083
52.6200 17.5234 0.1209
52.6400 17.5300 0.1023
52.6600 17.5366 0.1088
52.6800 17.5433 0.1223
52.7000 17.5501 0.1014
52.7200 17.5568 0.1037
52.7400 17.5634 0.1212
52.7600 17.5701 0.1057
52.7800 17.5768 0.1048
52.8000 17.5834 0.1196
52.8200 17.5900 0.1012
52.8400 17.5966 0.1085
52.8600 17.6034 0.1196
52.8800 17.6101 0.1002
52.9000 17.6167 0.1040
52.9200 17.6234 0.1225
52.9400 17.6301 0.0981
52.9600 17.6367 0.1092
52.9800 17.6434 0.1134
53.0000 17.6500 0.1029
53.0200 17.6566 0.1083
53.0400 17.6633 0.1192
53.0600 17.6700 0.0980
53.0800 17.6767 0.1071
53.1000 17.6834 0.1153
53.1200 17.6900 0.0966
53.1400 17.6967 0.1078
53.1600 17.7033 0.1099
53.1800 17.7100 0.0959
53.2000 17.7166 0.1087
53.2200 17.7233 0.1050
53.2400 17.7301 0.0926
53.2600 17.7368 0.1106
53.2800 17.7434 0.1052
53.3000 17.7501 0.0947
53.3200 17.7568 0.1097
53.3400 17.7634 0.1043
53.3600 17.7700 0.0888
53.3800 17.7767 0.1114
53.4000 17.7834 0.1030
53.4200 17.7901 0.0908
53.4400 17.7968 0.1062
53.4600 17.8034 0.1012
53.4800 17.8101 0.0904
53.5000 17.8168 0.1057
53.5200 17.8234 0.0971
53.5400 17.8300 0.0930
53.5600 17.8366 0.1071
53.5800 17.8433 0.0919
53.6000 17.8500 0.0902
53.6200 17.8567 0.1096
53.6400 17.8634 0.0881
53.6600 17.8701 0.0902
53.6800 17.8767 0.1029
53.7000 17.8834 0.0864
53.7200 17.8899 0.0915
53.7400 17.8966 0.0996
53.7600 17.9033 0.0920
53.7800 17.9100 0.0893
53.8000 17.9167 0.0990
53.8200 17.9234 0.0899
53.8400 17.9301 0.0910
53.8600 17.9367 0.0943
53.8800 17.9434 0.0879
53.9000 17.9500 0.0907
53.9200 17.9566 0.0950
53.9400 17.9633 0.0910
53.9600 17.9701 0.0901
53.9800 17.9767 0.0871
54.0000 17.9834 0.0878
54.0200 17.9901 0.0870
54.0400 17.9968 0.0990
54.0600 18.0034 0.0832
54.0800 18.0100 0.0841
54.1000 18.0166 0.0955
54.1200 18.0233 0.0881
54.1400 18.0300 0.0814
54.1600 18.0367 0.0896
54.1800 18.0434 0.0873
54.2000 18.0501 0.0762
54.2200 18.0568 0.0873
54.2400 18.0634 0.0848
54.2600 18.0700 0.0835
54.2800 18.0766 0.0818
54.3000 18.0833 0.0800
54.3200 18.0901 0.0844
54.3400 18.0968 0.0764
54.3600 18.1034 0.0757
54.3800 18.1101 0.0906
54.4000 18.1168 0.0751
54.4200 18.1234 0.0696
54.4400 18.1300 0.0878
54.4600 18.1366 0.0815
54.4800 18.1433 0.0683
54.5000 18.1500 0.0851
54.5200 18.1567 0.0728
54.5400 18.1634 0.0722
54.5600 18.1700 0.0846
54.5800 18.1767 0.0719
54.6000 18.1834 0.0739
54.6200 18.1900 0.0772
54.6400 18.1966 0.0695
54.6600 18.2033 0.0759
54.6800 18.2100 0.0785
54.7000 18.2167 0.0680
54.7200 18.2234 0.0770
54.7400 18.2301 0.0726
54.7600 18.2368 0.0671
54.7800 18.2434 0.0798
54.8000 18.2500 0.0749
54.8200 18.2566 0.0660
54.8400 18.2633 0.0805
54.8600 18.2701 0.0716
54.8800 18.2768 0.0665
54.9000 18.2835 0.0743
54.9200 18.2901 0.0697
54.9400 18.2968 0.0687
54.9600 18.3034 0.0770
54.9800 18.3100 0.0723
55.0000 18.3166 0.0719
55.0200 18.3233 0.0742
55.0400 18.3300 0.0712
55.0600 18.3367 0.0631
55.0800 18.3434 0.0819
55.1000 18.3501 0.0719
55.1200 18.3567 0.0687
55.1400 18.3634 0.0804
55.1600 18.3700 0.0686
55.1800 18.3766 0.0664
55.2000 18.3832 0.0809
55.2200 18.3900 0.0702
55.2400 18.3967 0.0730
55.2600 18.4034 0.0766
55.2800 18.4100 0.0705
55.3000 18.4167 0.0738
55.3200 18.4234 0.0741
55.3400 18.4300 0.0634
55.3600 18.4366 0.0789
55.3800 18.4433 0.0786
55.4000 18.4501 0.0616
55.4200 18.4568 0.0753
55.4400 18.4634 0.0786
55.4600 18.4701 0.0684
55.4800 18.4768 0.0686
55.5000 18.4834 0.0672
55.5200 18.4901 0.0692
55.5400 18.4967 0.0813
55.5600 18.5034 0.0644
55.5800 18.5100 0.0674
55.6000 18.5167 0.0756
55.6200 18.5234 0.0651
55.6400 18.5301 0.0692
55.6600 18.5368 0.0692
55.6800 18.5434 0.0577
55.7000 18.5500 0.0758
55.7200 18.5566 0.0694
55.7400 18.5633 0.0576
55.7600 18.5700 0.0717
55.7800 18.5767 0.0720
55.8000 18.5834 0.0590
55.8200 18.5900 0.0610
55.8400 18.5967 0.0641
55.8600 18.6034 0.0619
55.8800 18.6100 0.0664
55.9000 18.6166 0.0636
55.9200 18.6233 0.0592
55.9400 18.6300 0.0642
55.9600 18.6367 0.0668
55.9800 18.6434 0.0567
56.0000 18.6500 0.0668
56.0200 18.6567 0.0655
56.0400 18.6634 0.0540
56.0600 18.6700 0.0555
56.0800 18.6767 0.0669
56.1000 18.6833 0.0583
56.1200 18.6900 0.0582
56.1400 18.6967 0.0645
56.1600 18.7034 0.0556
56.1800 18.7101 0.0581
56.2000 18.7168 0.0673
56.2200 18.7235 0.0464
56.2400 18.7300 0.0602
56.2600 18.7366 0.0646
56.2800 18.7433 0.0542
56.3000 18.7500 0.0563
56.3200 18.7567 0.0594
56.3400 18.7634 0.0494
56.3600 18.7701 0.0589
56.3800 18.7768 0.0550
56.4000 18.7834 0.0493
56.4200 18.7900 0.0640
56.4400 18.7966 0.0559
56.4600 18.8033 0.0509
56.4800 18.8100 0.0580
56.5000 18.8167 0.0561
56.5200 18.8234 0.0454
56.5400 18.8300 0.0581
56.5600 18.8367 0.0548
56.5800 18.8434 0.0494
56.6000 18.8500 0.0547
56.6200 18.8566 0.0511
56.6400 18.8632 0.0474
56.6600 18.8700 0.0590
56.6800 18.8767 0.0502
56.7000 18.8834 0.0493
56.7200 18.8901 0.0530
56.7400 18.8968 0.0535
56.7600 18.9034 0.0441
56.7800 18.9100 0.0485
56.8000 18.9166 0.0542
56.8200 18.9233 0.0539
56.8400 18.9300 0.0487
56.8600 18.9367 0.0518
56.8800 18.9434 0.0511
56.9000 18.9501 0.0470
56.9200 18.9568 0.0498
56.9400 18.9634 0.0528
56.9600 18.9700 0.0438
56.9800 18.9766 0.0482
57.0000 18.9833 0.0501
57.0200 18.9901 0.0400
57.0400 18.9968 0.0502
57.0600 19.0034 0.0468
57.0800 19.0101 0.0406
57.1000 19.0167 0.0490
57.1200 19.0234 0.0494
57.1400 19.0300 0.0435
57.1600 19.0366 0.0437
57.1800 19.0433 0.0445
57.2000 19.0500 0.0480
57.2200 19.0567 0.0435
57.2400 19.0634 0.0419
57.2600 19.0701 0.0426
57.2800 19.0767 0.0458
57.3000 19.0834 0.0381
57.3200 19.0900 0.0433
57.3400 19.0966 0.0468
57.3600 19.1033 0.0388
57.3800 19.1100 0.0411
57.4000 19.1167 0.0427
57.4200 19.1234 0.0421
57.4400 19.1300 0.0451
57.4600 19.1367 0.0414
57.4800 19.1434 0.0323
57.5000 19.1500 0.0483
57.5200 19.1566 0.0441
57.5400 19.1633 0.0289
57.5600 19.1700 0.0427
57.5800 19.1767 0.0413
57.6000 19.1834 0.0298
57.6200 19.1901 0.0454
57.6400 19.1968 0.0390
57.6600 19.2034 0.0358
57.6800 19.2101 0.0391
57.7000 19.2167 0.0338
57.7200 19.2233 0.0378
57.7400 19.2300 0.0389
57.7600 19.2367 0.0274
57.7800 19.2434 0.0385
57.8000 19.2501 0.0385
57.8200 19.2568 0.0285
57.8400 19.2635 0.0395
57.8600 19.2701 0.0325
57.8800 19.2766 0.0261
57.9000 19.2833 0.0474
57.9200 19.2900 0.0241
57.9400 19.2967 0.0250
57.9600 19.3033 0.0393
57.9800 19.3100 0.0198
58.0000 19.3167 0.0337
58.0200 19.3234 0.0349
58.0400 19.3300 0.0223
58.0600 19.3366 0.0326
58.0800 19.3433 0.0312
58.1000 19.3500 0.0118
58.1200 19.3567 0.0314
58.1400 19.3634 0.0341
58.1600 19.3700 0.0140
58.1800 19.3767 0.0296
58.2000 19.3834 0.0285
58.2200 19.3900 0.0130
58.2400 19.3967 0.0317
58.2600 19.4033 0.0226
58.2800 19.4100 0.0143
58.3000 19.4167 0.0271
58.3200 19.4234 0.0255
58.3400 19.4301 0.0063
58.3600 19.4368 0.0280
58.3800 19.4435 0.0221
58.4000 19.4501 0.0069
58.4200 19.4566 0.0293
58.4400 19.4633 0.0226
58.4600 19.4700 0.0046
58.4800 19.4767 0.0240
58.5000 19.4834 0.0247
58.5200 19.4901 0.0084
58.5400 19.4968 0.0224
58.5600 19.5034 0.0186
58.5800 19.5100 0.0054
58.6000 19.5167 0.0208
58.6200 19.5233 0.0222
58.6400 19.5300 0.0113
58.6600 19.5367 0.0233
58.6800 19.5434 0.0123
58.7000 19.5501 0.0126
58.7200 19.5567 0.0144
58.7400 19.5634 0.0085
58.7600 19.5700 0.0144
58.7800 19.5766 0.0174
58.8000 19.5832 0.0093
58.8200 19.5899 0.0157
58.8400 19.5967 0.0115
58.8600 19.6034 0.0152
58.8800 19.6100 0.0135
58.9000 19.6167 0.0035
58.9200 19.6234 0.0097
58.9400 19.6300 0.0172
58.9600 19.6366 -0.0007
58.9800 19.6433 0.0134
59.0000 19.6500 0.0181
59.0200 19.6567 -0.0061
59.0400 19.6634 0.0107
59.0600 19.6701 0.0097
59.0800 19.6768 -0.0009
59.1000 19.6835 0.0150
59.1200 19.6901 0.0035
59.1400 19.6967 -0.0027
59.1600 19.7033 0.0146
59.1800 19.7100 0.0018
59.2000 19.7167 -0.0005
59.2200 19.7234 0.0150
59.2400 19.7301 -0.0014
59.2600 19.7368 -0.0090
59.2800 19.7434 0.0100
59.3000 19.7500 -0.0147
