Raw Data
Time Displacement Force
(s) (mm) (N)
0.0000 0.0000 -0.1063
0.0200 0.0000 -0.0980
0.0400 0.0008 -0.0494
0.0600 0.0039 0.0099
0.0800 0.0094 -0.0341
0.1000 0.0151 -0.0405
0.1200 0.0209 -0.0028
0.1400 0.0276 0.0057
0.1600 0.0349 0.0182
0.1800 0.0424 0.0545
0.2000 0.0496 0.0815
0.2200 0.0565 0.1159
0.2400 0.0632 0.1540
0.2600 0.0698 0.1782
0.2800 0.0765 0.2054
0.3000 0.0832 0.2456
0.3200 0.0899 0.2632
0.3400 0.0967 0.2936
0.3600 0.1033 0.3327
0.3800 0.1100 0.3480
0.4000 0.1166 0.3836
0.4200 0.1233 0.4157
0.4400 0.1300 0.4340
0.4600 0.1367 0.4536
0.4800 0.1434 0.4572
0.5000 0.1501 0.4484
0.5200 0.1567 0.4428
0.5400 0.1634 0.4427
0.5600 0.1699 0.4359
0.5800 0.1766 0.4456
0.6000 0.1833 0.4635
0.6200 0.1900 0.4735
0.6400 0.1967 0.5035
0.6600 0.2034 0.5338
0.6800 0.2100 0.5728
0.7000 0.2167 0.6024
0.7200 0.2233 0.6233
0.7400 0.2299 0.6392
0.7600 0.2366 0.6658
0.7800 0.2433 0.7026
0.8000 0.2500 0.7307
0.8200 0.2566 0.7787
0.8400 0.2633 0.8011
0.8600 0.2700 0.8119
0.8800 0.2767 0.8185
0.9000 0.2833 0.8219
0.9200 0.2899 0.8237
0.9400 0.2965 0.8195
0.9600 0.3032 0.8254
0.9800 0.3099 0.8319
1.0000 0.3166 0.8258
1.0200 0.3233 0.8306
1.0400 0.3300 0.8350
1.0600 0.3366 0.8337
1.0800 0.3433 0.8331
1.1000 0.3499 0.8461
1.1200 0.3566 0.8433
1.1400 0.3633 0.8339
1.1600 0.3700 0.8541
1.1800 0.3767 0.8445
1.2000 0.3834 0.8458
1.2200 0.3901 0.8573
1.2400 0.3967 0.8513
1.2600 0.4034 0.8487
1.2800 0.4100 0.8638
1.3000 0.4166 0.8538
1.3200 0.4233 0.8585
1.3400 0.4300 0.8702
1.3600 0.4367 0.8568
1.3800 0.4434 0.8622
1.4000 0.4500 0.8768
1.4200 0.4567 0.8604
1.4400 0.4634 0.8635
1.4600 0.4699 0.8808
1.4800 0.4765 0.8650
1.5000 0.4832 0.8671
1.5200 0.4899 0.8811
1.5400 0.4966 0.8683
1.5600 0.5033 0.8728
1.5800 0.5100 0.8791
1.6000 0.5167 0.8657
1.6200 0.5233 0.8784
1.6400 0.5299 0.8767
1.6600 0.5365 0.8665
1.6800 0.5432 0.8867
1.7000 0.5499 0.8810
1.7200 0.5567 0.8631
1.7400 0.5633 0.8809
1.7600 0.5700 0.8808
1.7800 0.5767 0.8688
1.8000 0.5834 0.8799
1.8200 0.5900 0.8722
1.8400 0.5966 0.8716
1.8600 0.6033 0.8835
1.8800 0.6100 0.8720
1.9000 0.6167 0.8698
1.9200 0.6233 0.8833
1.9400 0.6300 0.8680
1.9600 0.6367 0.8650
1.9800 0.6434 0.8815
2.0000 0.6500 0.8771
2.0200 0.6566 0.8623
2.0400 0.6632 0.8769
2.0600 0.6700 0.8731
2.0800 0.6767 0.8693
2.1000 0.6834 0.8749
2.1200 0.6900 0.8697
2.1400 0.6967 0.8673
2.1600 0.7033 0.8757
2.1800 0.7099 0.8677
2.2000 0.7166 0.8664
2.2200 0.7232 0.8767
2.2400 0.7300 0.8729
2.2600 0.7367 0.8670
2.2800 0.7433 0.8741
2.3000 0.7500 0.8710
2.3200 0.7567 0.8632
2.3400 0.7633 0.8799
2.3600 0.7700 0.8703
2.3800 0.7766 0.8648
2.4000 0.7832 0.8765
2.4200 0.7899 0.8782
2.4400 0.7966 0.8648
2.4600 0.8033 0.8724
2.4800 0.8100 0.8759
2.5000 0.8167 0.8698
2.5200 0.8233 0.8711
2.5400 0.8299 0.8764
2.5600 0.8365 0.8702
2.5800 0.8432 0.8764
2.6000 0.8500 0.8718
2.6200 0.8567 0.8685
2.6400 0.8634 0.8757
2.6600 0.8701 0.8756
2.6800 0.8768 0.8704
2.7000 0.8834 0.8691
2.7200 0.8900 0.8773
2.7400 0.8966 0.8763
2.7600 0.9033 0.8708
2.7800 0.9100 0.8755
2.8000 0.9167 0.8767
2.8200 0.9234 0.8731
2.8400 0.9301 0.8747
2.8600 0.9367 0.8740
2.8800 0.9434 0.8745
2.9000 0.9500 0.8768
2.9200 0.9566 0.8764
2.9400 0.9632 0.8693
2.9600 0.9699 0.8820
2.9800 0.9766 0.8762
3.0000 0.9833 0.8728
3.0200 0.9900 0.8790
3.0400 0.9967 0.8778
3.0600 1.0034 0.8772
3.0800 1.0099 0.8779
3.1000 1.0165 0.8807
3.1200 1.0232 0.8776
3.1400 1.0299 0.8852
3.1600 1.0366 0.8738
3.1800 1.0433 0.8776
3.2000 1.0500 0.8869
3.2200 1.0567 0.8737
3.2400 1.0634 0.8788
3.2600 1.0700 0.8831
3.2800 1.0766 0.8734
3.3000 1.0833 0.8836
3.3200 1.0900 0.8815
3.3400 1.0967 0.8723
3.3600 1.1033 0.8851
3.3800 1.1100 0.8797
3.4000 1.1168 0.8729
3.4200 1.1234 0.8897
3.4400 1.1300 0.8848
3.4600 1.1366 0.8724
3.4800 1.1433 0.8871
3.5000 1.1500 0.8850
3.5200 1.1567 0.8745
3.5400 1.1634 0.8885
3.5600 1.1700 0.8853
3.5800 1.1767 0.8748
3.6000 1.1834 0.8852
3.6200 1.1900 0.8825
3.6400 1.1966 0.8830
3.6600 1.2032 0.8875
3.6800 1.2100 0.8785
3.7000 1.2167 0.8768
3.7200 1.2234 0.8884
3.7400 1.2300 0.8804
3.7600 1.2367 0.8789
3.7800 1.2433 0.8863
3.8000 1.2500 0.8776
3.8200 1.2566 0.8848
3.8400 1.2633 0.8829
3.8600 1.2699 0.8786
3.8800 1.2766 0.8868
3.9000 1.2833 0.8796
3.9200 1.2900 0.8766
3.9400 1.2967 0.8890
3.9600 1.3033 0.8805
3.9800 1.3100 0.8778
4.0000 1.3166 0.8900
4.0200 1.3232 0.8809
4.0400 1.3299 0.8778
4.0600 1.3366 0.8916
4.0800 1.3433 0.8818
4.1000 1.3500 0.8807
4.1200 1.3567 0.8865
4.1400 1.3634 0.8832
4.1600 1.3700 0.8794
4.1800 1.3766 0.8879
4.2000 1.3833 0.8838
4.2200 1.3900 0.8814
4.2400 1.3967 0.8879
4.2600 1.4034 0.8780
4.2800 1.4101 0.8824
4.3000 1.4167 0.8867
4.3200 1.4234 0.8795
4.3400 1.4300 0.8821
4.3600 1.4366 0.8908
4.3800 1.4432 0.8805
4.4000 1.4499 0.8846
4.4200 1.4566 0.8879
4.4400 1.4633 0.8800
4.4600 1.4700 0.8835
4.4800 1.4767 0.8879
4.5000 1.4834 0.8818
4.5200 1.4900 0.8843
4.5400 1.4966 0.8872
4.5600 1.5032 0.8835
4.5800 1.5099 0.8843
4.6000 1.5166 0.8860
4.6200 1.5233 0.8852
4.6400 1.5300 0.8850
4.6600 1.5367 0.8825
4.6800 1.5434 0.8781
4.7000 1.5500 0.8854
4.7200 1.5566 0.8886
4.7400 1.5633 0.8839
4.7600 1.5700 0.8810
4.7800 1.5767 0.8852
4.8000 1.5834 0.8815
4.8200 1.5901 0.8850
4.8400 1.5967 0.8852
4.8600 1.6034 0.8816
4.8800 1.6100 0.8838
4.9000 1.6166 0.8830
4.9200 1.6232 0.8802
4.9400 1.6299 0.8879
4.9600 1.6366 0.8868
4.9800 1.6433 0.8802
5.0000 1.6500 0.8848
5.0200 1.6567 0.8856
5.0400 1.6634 0.8800
5.0600 1.6700 0.8830
5.0800 1.6766 0.8854
5.1000 1.6832 0.8835
5.1200 1.6899 0.8809
5.1400 1.6966 0.8841
5.1600 1.7033 0.8884
5.1800 1.7100 0.8802
5.2000 1.7167 0.8856
5.2200 1.7234 0.8827
5.2400 1.7300 0.8800
5.2600 1.7366 0.8850
5.2800 1.7432 0.8829
5.3000 1.7499 0.8834
5.3200 1.7566 0.8886
5.3400 1.7633 0.8771
5.3600 1.7700 0.8851
5.3800 1.7766 0.8907
5.4000 1.7833 0.8783
5.4200 1.7900 0.8816
5.4400 1.7966 0.8869
5.4600 1.8032 0.8797
5.4800 1.8099 0.8836
5.5000 1.8166 0.8901
5.5200 1.8233 0.8771
5.5400 1.8300 0.8878
5.5600 1.8367 0.8833
5.5800 1.8434 0.8768
5.6000 1.8501 0.8877
5.6200 1.8566 0.8828
5.6400 1.8633 0.8828
5.6600 1.8699 0.8851
5.6800 1.8767 0.8768
5.7000 1.8834 0.8863
5.7200 1.8900 0.8876
5.7400 1.8967 0.8807
5.7600 1.9034 0.8857
5.7800 1.9100 0.8809
5.8000 1.9166 0.8812
5.8200 1.9232 0.8925
5.8400 1.9299 0.8809
5.8600 1.9366 0.8800
5.8800 1.9433 0.8895
5.9000 1.9500 0.8827
5.9200 1.9566 0.8789
5.9400 1.9633 0.8862
5.9600 1.9700 0.8829
5.9800 1.9766 0.8818
6.0000 1.9832 0.8863
6.0200 1.9899 0.8830
6.0400 1.9966 0.8886
6.0600 2.0033 0.8793
6.0800 2.0100 0.8845
6.1000 2.0167 0.8871
6.1200 2.0234 0.8815
6.1400 2.0300 0.8814
6.1600 2.0366 0.8867
6.1800 2.0433 0.8809
6.2000 2.0499 0.8859
6.2200 2.0566 0.8876
6.2400 2.0633 0.8797
6.2600 2.0700 0.8842
6.2800 2.0767 0.8890
6.3000 2.0834 0.8775
6.3200 2.0900 0.8814
6.3400 2.0966 0.8918
6.3600 2.1032 0.8779
6.3800 2.1099 0.8837
6.4000 2.1167 0.8842
6.4200 2.1234 0.8807
6.4400 2.1300 0.8840
6.4600 2.1367 0.8855
6.4800 2.1434 0.8816
6.5000 2.1500 0.8839
6.5200 2.1567 0.8882
6.5400 2.1633 0.8809
6.5600 2.1699 0.8804
6.5800 2.1766 0.8871
6.6000 2.1833 0.8821
6.6200 2.1900 0.8795
6.6400 2.1967 0.8885
6.6600 2.2034 0.8806
6.6800 2.2100 0.8737
6.7000 2.2166 0.8912
6.7200 2.2232 0.8835
6.7400 2.2299 0.8723
6.7600 2.2366 0.8931
6.7800 2.2433 0.8801
6.8000 2.2500 0.8740
6.8200 2.2567 0.8908
6.8400 2.2633 0.8781
6.8600 2.2700 0.8732
6.8800 2.2766 0.8955
6.9000 2.2833 0.8744
6.9200 2.2899 0.8785
6.9400 2.2966 0.8944
6.9600 2.3033 0.8708
6.9800 2.3100 0.8777
7.0000 2.3167 0.8927
7.0200 2.3234 0.8715
7.0400 2.3300 0.8810
7.0600 2.3366 0.8916
7.0800 2.3433 0.8709
7.1000 2.3499 0.8857
7.1200 2.3566 0.8855
7.1400 2.3633 0.8724
7.1600 2.3700 0.8884
7.1800 2.3767 0.8818
7.2000 2.3834 0.8708
7.2200 2.3901 0.8881
7.2400 2.3967 0.8795
7.2600 2.4033 0.8789
7.2800 2.4099 0.8851
7.3000 2.4166 0.8792
7.3200 2.4234 0.8757
7.3400 2.4300 0.8819
7.3600 2.4367 0.8785
7.3800 2.4434 0.8781
7.4000 2.4500 0.8840
7.4200 2.4566 0.8727
7.4400 2.4632 0.8839
7.4600 2.4699 0.8849
7.4800 2.4766 0.8757
7.5000 2.4833 0.8778
7.5200 2.4900 0.8825
7.5400 2.4966 0.8764
7.5600 2.5033 0.8747
7.5800 2.5100 0.8783
7.6000 2.5166 0.8817
7.6200 2.5233 0.8766
7.6400 2.5299 0.8782
7.6600 2.5366 0.8793
7.6800 2.5433 0.8762
7.7000 2.5500 0.8769
7.7200 2.5567 0.8849
7.7400 2.5634 0.8725
7.7600 2.5701 0.8771
7.7800 2.5767 0.8814
7.8000 2.5833 0.8732
7.8200 2.5899 0.8790
7.8400 2.5967 0.8776
7.8600 2.6034 0.8751
7.8800 2.6101 0.8792
7.9000 2.6167 0.8733
7.9200 2.6234 0.8772
7.9400 2.6300 0.8794
7.9600 2.6366 0.8761
7.9800 2.6433 0.8792
8.0000 2.6499 0.8755
8.0200 2.6566 0.8750
8.0400 2.6633 0.8768
8.0600 2.6700 0.8794
8.0800 2.6767 0.8767
8.1000 2.6834 0.8767
8.1200 2.6900 0.8737
8.1400 2.6967 0.8732
8.1600 2.7032 0.8801
8.1800 2.7099 0.8738
8.2000 2.7166 0.8741
8.2200 2.7233 0.8756
8.2400 2.7300 0.8726
8.2600 2.7367 0.8750
8.2800 2.7434 0.8762
8.3000 2.7500 0.8710
8.3200 2.7567 0.8735
8.3400 2.7633 0.8783
8.3600 2.7699 0.8731
8.3800 2.7766 0.8702
8.4000 2.7833 0.8760
8.4200 2.7900 0.8731
8.4400 2.7967 0.8744
8.4600 2.8034 0.8750
8.4800 2.8100 0.8719
8.5000 2.8167 0.8743
8.5200 2.8233 0.8752
8.5400 2.8299 0.8704
8.5600 2.8366 0.8782
8.5800 2.8434 0.8766
8.6000 2.8500 0.8689
8.6200 2.8567 0.8734
8.6400 2.8634 0.8732
8.6600 2.8701 0.8729
8.6800 2.8767 0.8721
8.7000 2.8833 0.8729
8.7200 2.8899 0.8729
8.7400 2.8966 0.8766
8.7600 2.9033 0.8670
8.7800 2.9100 0.8760
8.8000 2.9167 0.8752
8.8200 2.9234 0.8670
8.8400 2.9300 0.8762
8.8600 2.9366 0.8702
8.8800 2.9432 0.8665
8.9000 2.9499 0.8779
8.9200 2.9565 0.8710
8.9400 2.9633 0.8667
8.9600 2.9699 0.8744
8.9800 2.9766 0.8756
9.0000 2.9833 0.8634
9.0200 2.9900 0.8746
9.0400 2.9967 0.8703
9.0600 3.0033 0.8612
9.0800 3.0099 0.8760
9.1000 3.0166 0.8662
9.1200 3.0233 0.8663
9.1400 3.0300 0.8734
9.1600 3.0367 0.8687
9.1800 3.0434 0.8686
9.2000 3.0501 0.8761
9.2200 3.0567 0.8670
9.2400 3.0633 0.8696
9.2600 3.0699 0.8788
9.2800 3.0766 0.8681
9.3000 3.0833 0.8692
9.3200 3.0900 0.8747
9.3400 3.0967 0.8642
9.3600 3.1034 0.8699
9.3800 3.1101 0.8709
9.4000 3.1167 0.8639
9.4200 3.1233 0.8723
9.4400 3.1299 0.8717
9.4600 3.1366 0.8639
9.4800 3.1433 0.8705
9.5000 3.1500 0.8692
9.5200 3.1567 0.8650
9.5400 3.1634 0.8691
9.5600 3.1701 0.8678
9.5800 3.1767 0.8725
9.6000 3.1833 0.8700
9.6200 3.1899 0.8668
9.6400 3.1966 0.8736
9.6600 3.2033 0.8693
9.6800 3.2100 0.8677
9.7000 3.2166 0.8734
9.7200 3.2233 0.8649
9.7400 3.2300 0.8699
9.7600 3.2366 0.8707
9.7800 3.2432 0.8652
9.8000 3.2499 0.8752
9.8200 3.2566 0.8672
9.8400 3.2633 0.8614
9.8600 3.2700 0.8731
9.8800 3.2767 0.8687
9.9000 3.2834 0.8647
9.9200 3.2901 0.8765
9.9400 3.2967 0.8637
9.9600 3.3033 0.8642
9.9800 3.3099 0.8774
10.0000 3.3166 0.8587
10.0200 3.3234 0.8659
10.0400 3.3301 0.8760
10.0600 3.3367 0.8555
10.0800 3.3434 0.8680
10.1000 3.3500 0.8704
10.1200 3.3567 0.8564
10.1400 3.3633 0.8705
10.1600 3.3699 0.8745
10.1800 3.3766 0.8519
10.2000 3.3833 0.8698
10.2200 3.3900 0.8698
10.2400 3.3967 0.8528
10.2600 3.4033 0.8730
10.2800 3.4100 0.8654
10.3000 3.4167 0.8562
10.3200 3.4233 0.8680
10.3400 3.4299 0.8662
10.3600 3.4365 0.8580
10.3800 3.4433 0.8706
10.4000 3.4500 0.8651
10.4200 3.4567 0.8543
10.4400 3.4633 0.8683
10.4600 3.4700 0.8721
10.4800 3.4767 0.8453
10.5000 3.4833 0.8675
10.5200 3.4900 0.8695
10.5400 3.4966 0.8531
10.5600 3.5033 0.8667
10.5800 3.5100 0.8640
10.6000 3.5167 0.8560
10.6200 3.5234 0.8645
10.6400 3.5301 0.8612
10.6600 3.5367 0.8559
10.6800 3.5433 0.8676
10.7000 3.5499 0.8599
10.7200 3.5566 0.8526
10.7400 3.5633 0.8640
10.7600 3.5700 0.8599
10.7800 3.5767 0.8503
10.8000 3.5834 0.8678
10.8200 3.5901 0.8579
10.8400 3.5967 0.8512
10.8600 3.6033 0.8612
10.8800 3.6099 0.8602
10.9000 3.6166 0.8518
10.9200 3.6233 0.8622
10.9400 3.6300 0.8581
10.9600 3.6367 0.8536
10.9800 3.6434 0.8616
11.0000 3.6500 0.8500
11.0200 3.6567 0.8551
11.0400 3.6633 0.8636
11.0600 3.6699 0.8512
11.0800 3.6766 0.8540
11.1000 3.6833 0.8615
11.1200 3.6900 0.8492
11.1400 3.6966 0.8556
11.1600 3.7033 0.8593
11.1800 3.7100 0.8505
11.2000 3.7167 0.8512
11.2200 3.7233 0.8562
11.2400 3.7299 0.8519
11.2600 3.7366 0.8588
11.2800 3.7433 0.8573
11.3000 3.7500 0.8533
11.3200 3.7567 0.8593
11.3400 3.7634 0.8562
11.3600 3.7701 0.8538
11.3800 3.7767 0.8548
11.4000 3.7833 0.8533
11.4200 3.7899 0.8590
11.4400 3.7966 0.8516
11.4600 3.8033 0.8568
11.4800 3.8100 0.8595
11.5000 3.8167 0.8498
11.5200 3.8234 0.8587
11.5400 3.8301 0.8593
11.5600 3.8367 0.8501
11.5800 3.8433 0.8605
11.6000 3.8499 0.8578
11.6200 3.8566 0.8451
11.6400 3.8633 0.8594
11.6600 3.8700 0.8593
11.6800 3.8766 0.8457
11.7000 3.8833 0.8565
11.7200 3.8900 0.8592
11.7400 3.8967 0.8510
11.7600 3.9033 0.8572
11.7800 3.9099 0.8552
11.8000 3.9165 0.8493
11.8200 3.9232 0.8537
11.8400 3.9299 0.8577
11.8600 3.9366 0.8472
11.8800 3.9433 0.8490
11.9000 3.9500 0.8621
11.9200 3.9567 0.8469
11.9400 3.9633 0.8518
11.9600 3.9699 0.8617
11.9800 3.9766 0.8475
12.0000 3.9833 0.8507
12.0200 3.9900 0.8618
12.0400 3.9967 0.8444
12.0600 4.0034 0.8538
12.0800 4.0100 0.8604
12.1000 4.0167 0.8409
12.1200 4.0233 0.8528
12.1400 4.0300 0.8602
12.1600 4.0366 0.8403
12.1800 4.0433 0.8542
12.2000 4.0500 0.8581
12.2200 4.0567 0.8442
12.2400 4.0634 0.8533
12.2600 4.0701 0.8578
12.2800 4.0767 0.8406
12.3000 4.0833 0.8499
12.3200 4.0899 0.8605
12.3400 4.0965 0.8419
12.3600 4.1033 0.8554
12.3800 4.1100 0.8548
12.4000 4.1167 0.8418
12.4200 4.1234 0.8516
12.4400 4.1300 0.8510
12.4600 4.1367 0.8453
12.4800 4.1433 0.8576
12.5000 4.1499 0.8453
12.5200 4.1565 0.8465
12.5400 4.1632 0.8569
12.5600 4.1700 0.8497
12.5800 4.1767 0.8435
12.6000 4.1833 0.8530
12.6200 4.1900 0.8502
12.6400 4.1967 0.8432
12.6600 4.2033 0.8539
12.6800 4.2100 0.8461
12.7000 4.2166 0.8435
12.7200 4.2233 0.8522
12.7400 4.2300 0.8472
12.7600 4.2367 0.8486
12.7800 4.2434 0.8516
12.8000 4.2501 0.8439
12.8200 4.2567 0.8467
12.8400 4.2633 0.8467
12.8600 4.2699 0.8513
12.8800 4.2766 0.8502
12.9000 4.2833 0.8462
12.9200 4.2900 0.8450
12.9400 4.2967 0.8495
12.9600 4.3034 0.8445
12.9800 4.3100 0.8469
13.0000 4.3167 0.8486
13.0200 4.3233 0.8436
13.0400 4.3299 0.8495
13.0600 4.3366 0.8521
13.0800 4.3433 0.8408
13.1000 4.3500 0.8491
13.1200 4.3567 0.8492
13.1400 4.3634 0.8381
13.1600 4.3700 0.8493
13.1800 4.3767 0.8495
13.2000 4.3833 0.8374
13.2200 4.3899 0.8478
13.2400 4.3965 0.8546
13.2600 4.4032 0.8333
13.2800 4.4099 0.8479
13.3000 4.4166 0.8504
13.3200 4.4233 0.8335
13.3400 4.4300 0.8466
13.3600 4.4367 0.8497
13.3800 4.4433 0.8350
13.4000 4.4499 0.8472
13.4200 4.4566 0.8490
13.4400 4.4633 0.8398
13.4600 4.4700 0.8473
13.4800 4.4767 0.8426
13.5000 4.4834 0.8387
13.5200 4.4901 0.8470
13.5400 4.4967 0.8410
13.5600 4.5034 0.8378
13.5800 4.5100 0.8474
13.6000 4.5166 0.8454
13.6200 4.5233 0.8398
13.6400 4.5300 0.8407
13.6600 4.5367 0.8462
13.6800 4.5433 0.8391
13.7000 4.5500 0.8424
13.7200 4.5567 0.8437
13.7400 4.5633 0.8380
13.7600 4.5699 0.8405
13.7800 4.5766 0.8449
13.8000 4.5832 0.8383
13.8200 4.5900 0.8408
13.8400 4.5967 0.8433
13.8600 4.6034 0.8336
13.8800 4.6100 0.8434
13.9000 4.6167 0.8461
13.9200 4.6233 0.8350
13.9400 4.6299 0.8397
13.9600 4.6366 0.8408
13.9800 4.6432 0.8366
14.0000 4.6500 0.8442
14.0200 4.6567 0.8386
14.0400 4.6633 0.8383
14.0600 4.6700 0.8421
14.0800 4.6766 0.8384
14.1000 4.6833 0.8392
14.1200 4.6899 0.8408
14.1400 4.6965 0.8356
14.1600 4.7033 0.8410
14.1800 4.7100 0.8352
14.2000 4.7167 0.8382
14.2200 4.7234 0.8427
14.2400 4.7301 0.8331
14.2600 4.7368 0.8375
14.2800 4.7434 0.8380
14.3000 4.7500 0.8322
14.3200 4.7566 0.8403
14.3400 4.7633 0.8405
14.3600 4.7700 0.8283
14.3800 4.7767 0.8452
14.4000 4.7834 0.8359
14.4200 4.7901 0.8281
14.4400 4.7968 0.8443
14.4600 4.8034 0.8313
14.4800 4.8100 0.8252
14.5000 4.8166 0.8499
14.5200 4.8232 0.8291
14.5400 4.8299 0.8278
14.5600 4.8366 0.8437
14.5800 4.8433 0.8273
14.6000 4.8500 0.8320
14.6200 4.8567 0.8408
14.6400 4.8633 0.8271
14.6600 4.8699 0.8338
14.6800 4.8765 0.8410
14.7000 4.8832 0.8193
14.7200 4.8899 0.8375
14.7400 4.8966 0.8409
14.7600 4.9033 0.8218
14.7800 4.9100 0.8389
14.8000 4.9167 0.8371
14.8200 4.9233 0.8186
14.8400 4.9300 0.8382
14.8600 4.9366 0.8313
14.8800 4.9433 0.8251
14.9000 4.9500 0.8364
14.9200 4.9566 0.8279
14.9400 4.9633 0.8270
14.9600 4.9700 0.8387
14.9800 4.9767 0.8248
15.0000 4.9834 0.8270
15.0200 4.9900 0.8401
15.0400 4.9966 0.8239
15.0600 5.0033 0.8312
15.0800 5.0100 0.8383
15.1000 5.0167 0.8253
15.1200 5.0234 0.8267
15.1400 5.0301 0.8346
15.1600 5.0367 0.8297
15.1800 5.0434 0.8283
15.2000 5.0500 0.8267
15.2200 5.0566 0.8325
15.2400 5.0633 0.8275
15.2600 5.0700 0.8292
15.2800 5.0767 0.8309
15.3000 5.0833 0.8277
15.3200 5.0900 0.8276
15.3400 5.0967 0.8309
15.3600 5.1034 0.8267
15.3800 5.1100 0.8289
15.4000 5.1165 0.8303
15.4200 5.1232 0.8252
15.4400 5.1299 0.8326
15.4600 5.1366 0.8308
15.4800 5.1433 0.8208
15.5000 5.1500 0.8288
15.5200 5.1567 0.8342
15.5400 5.1633 0.8152
15.5600 5.1699 0.8300
15.5800 5.1766 0.8315
15.6000 5.1833 0.8220
15.6200 5.1900 0.8316
15.6400 5.1967 0.8253
15.6600 5.2034 0.8217
15.6800 5.2100 0.8316
15.7000 5.2167 0.8241
15.7200 5.2234 0.8204
15.7400 5.2300 0.8263
15.7600 5.2366 0.8246
15.7800 5.2433 0.8238
15.8000 5.2500 0.8257
15.8200 5.2567 0.8234
15.8400 5.2634 0.8267
15.8600 5.2701 0.8221
15.8800 5.2767 0.8222
15.9000 5.2834 0.8290
15.9200 5.2900 0.8179
15.9400 5.2966 0.8297
15.9600 5.3032 0.8223
15.9800 5.3099 0.8174
16.0000 5.3167 0.8273
16.0200 5.3233 0.8211
16.0400 5.3300 0.8140
16.0600 5.3367 0.8255
16.0800 5.3433 0.8159
16.1000 5.3499 0.8145
16.1200 5.3566 0.8274
16.1400 5.3632 0.8207
16.1600 5.3700 0.8180
16.1800 5.3767 0.8221
16.2000 5.3834 0.8142
16.2200 5.3900 0.8209
16.2400 5.3967 0.8234
16.2600 5.4033 0.8122
16.2800 5.4100 0.8198
16.3000 5.4166 0.8201
16.3200 5.4233 0.8145
16.3400 5.4300 0.8202
16.3600 5.4367 0.8145
16.3800 5.4434 0.8120
16.4000 5.4501 0.8224
16.4200 5.4568 0.8132
16.4400 5.4634 0.8158
16.4600 5.4700 0.8184
16.4800 5.4766 0.8143
16.5000 5.4832 0.8136
16.5200 5.4899 0.8198
16.5400 5.4966 0.8147
16.5600 5.5033 0.8164
16.5800 5.5100 0.8161
16.6000 5.5167 0.8099
16.6200 5.5234 0.8121
16.6400 5.5300 0.8205
16.6600 5.5366 0.8119
16.6800 5.5433 0.8112
16.7000 5.5500 0.8155
16.7200 5.5567 0.8102
16.7400 5.5633 0.8144
16.7600 5.5700 0.8137
16.7800 5.5767 0.8138
16.8000 5.5834 0.8092
16.8200 5.5900 0.8093
16.8400 5.5966 0.8133
16.8600 5.6032 0.8168
16.8800 5.6099 0.8056
16.9000 5.6166 0.8120
16.9200 5.6233 0.8148
16.9400 5.6300 0.8072
16.9600 5.6367 0.8152
16.9800 5.6434 0.8096
17.0000 5.6500 0.8056
17.0200 5.6566 0.8101
17.0400 5.6633 0.8135
17.0600 5.6700 0.8048
17.0800 5.6767 0.8153
17.1000 5.6834 0.8116
17.1200 5.6901 0.8053
17.1400 5.6967 0.8144
17.1600 5.7034 0.8075
17.1800 5.7100 0.8070
17.2000 5.7166 0.8147
17.2200 5.7233 0.8077
17.2400 5.7300 0.8097
17.2600 5.7367 0.8081
17.2800 5.7434 0.8095
17.3000 5.7500 0.8114
17.3200 5.7567 0.8081
17.3400 5.7633 0.8072
17.3600 5.7700 0.8105
17.3800 5.7766 0.8140
17.4000 5.7832 0.8093
17.4200 5.7899 0.8095
17.4400 5.7967 0.8117
17.4600 5.8034 0.8070
17.4800 5.8100 0.8097
17.5000 5.8167 0.8104
17.5200 5.8234 0.8077
17.5400 5.8300 0.8091
17.5600 5.8365 0.8073
17.5800 5.8432 0.8108
17.6000 5.8499 0.8082
17.6200 5.8566 0.8054
17.6400 5.8633 0.8105
17.6600 5.8700 0.8087
17.6800 5.8767 0.8027
17.7000 5.8834 0.8126
17.7200 5.8900 0.8091
17.7400 5.8966 0.8048
17.7600 5.9033 0.8171
17.7800 5.9100 0.8036
17.8000 5.9167 0.7996
17.8200 5.9233 0.8249
17.8400 5.9300 0.8018
17.8600 5.9368 0.7965
17.8800 5.9434 0.8215
17.9000 5.9501 0.7971
17.9200 5.9567 0.8025
17.9400 5.9633 0.8210
17.9600 5.9700 0.7985
17.9800 5.9767 0.8010
18.0000 5.9834 0.8206
18.0200 5.9901 0.7909
18.0400 5.9967 0.8050
18.0600 6.0034 0.8138
18.0800 6.0100 0.7900
18.1000 6.0166 0.8053
18.1200 6.0232 0.8150
18.1400 6.0299 0.7925
18.1600 6.0366 0.8080
18.1800 6.0433 0.8105
18.2000 6.0500 0.7930
18.2200 6.0567 0.8049
18.2400 6.0634 0.8073
18.2600 6.0700 0.7935
18.2800 6.0766 0.8064
18.3000 6.0833 0.8047
18.3200 6.0899 0.7957
18.3400 6.0966 0.8068
18.3600 6.1033 0.8025
18.3800 6.1100 0.8000
18.4000 6.1167 0.8049
18.4200 6.1234 0.8019
18.4400 6.1300 0.7948
18.4600 6.1366 0.8036
18.4800 6.1433 0.8003
18.5000 6.1499 0.8030
18.5200 6.1567 0.8011
18.5400 6.1634 0.8016
18.5600 6.1701 0.7992
18.5800 6.1767 0.7997
18.6000 6.1834 0.8003
18.6200 6.1900 0.7951
18.6400 6.1966 0.7974
18.6600 6.2033 0.8054
18.6800 6.2100 0.7971
18.7000 6.2167 0.7956
18.7200 6.2234 0.8012
18.7400 6.2301 0.7958
18.7600 6.2367 0.7991
18.7800 6.2434 0.7979
18.8000 6.2500 0.7946
18.8200 6.2566 0.7936
18.8400 6.2633 0.7998
18.8600 6.2699 0.7997
18.8800 6.2766 0.7934
18.9000 6.2833 0.7992
18.9200 6.2900 0.7985
18.9400 6.2966 0.7932
18.9600 6.3033 0.8021
18.9800 6.3100 0.7939
19.0000 6.3166 0.7933
19.0200 6.3232 0.7986
19.0400 6.3299 0.7993
19.0600 6.3366 0.7906
19.0800 6.3433 0.7976
19.1000 6.3500 0.7986
19.1200 6.3567 0.7886
19.1400 6.3634 0.8018
19.1600 6.3700 0.7936
19.1800 6.3766 0.7938
19.2000 6.3832 0.8006
19.2200 6.3900 0.7957
19.2400 6.3967 0.7890
19.2600 6.4034 0.7979
19.2800 6.4101 0.7940
19.3000 6.4167 0.7906
19.3200 6.4234 0.7976
19.3400 6.4300 0.7871
19.3600 6.4366 0.7899
19.3800 6.4432 0.8040
19.4000 6.4499 0.7884
19.4200 6.4566 0.7919
19.4400 6.4633 0.7913
19.4600 6.4700 0.7898
19.4800 6.4767 0.7997
19.5000 6.4834 0.7888
19.5200 6.4900 0.7909
19.5400 6.4966 0.7942
19.5600 6.5032 0.7896
19.5800 6.5099 0.7951
19.6000 6.5166 0.7962
19.6200 6.5233 0.7843
19.6400 6.5300 0.7977
19.6600 6.5367 0.7903
19.6800 6.5434 0.7825
19.7000 6.5500 0.7994
19.7200 6.5566 0.7859
19.7400 6.5632 0.7887
19.7600 6.5699 0.8005
19.7800 6.5766 0.7819
19.8000 6.5833 0.7901
19.8200 6.5900 0.7973
19.8400 6.5966 0.7803
19.8600 6.6033 0.7866
19.8800 6.6100 0.7949
19.9000 6.6166 0.7820
19.9200 6.6233 0.7913
19.9400 6.6299 0.7963
19.9600 6.6366 0.7753
19.9800 6.6433 0.7939
20.0000 6.6500 0.7898
20.0200 6.6567 0.7812
20.0400 6.6634 0.7927
20.0600 6.6701 0.7836
20.0800 6.6767 0.7828
20.1000 6.6833 0.7986
20.1200 6.6899 0.7839
20.1400 6.6967 0.7836
20.1600 6.7034 0.7919
20.1800 6.7101 0.7862
20.2000 6.7167 0.7840
20.2200 6.7234 0.7889
20.2400 6.7300 0.7854
20.2600 6.7366 0.7864
20.2800 6.7432 0.7848
20.3000 6.7499 0.7832
20.3200 6.7566 0.7877
20.3400 6.7633 0.7832
20.3600 6.7700 0.7834
20.3800 6.7767 0.7833
20.4000 6.7833 0.7831
20.4200 6.7900 0.7845
20.4400 6.7966 0.7811
20.4600 6.8032 0.7793
20.4800 6.8099 0.7894
20.5000 6.8166 0.7829
20.5200 6.8233 0.7812
20.5400 6.8300 0.7839
20.5600 6.8367 0.7816
20.5800 6.8434 0.7738
20.6000 6.8501 0.7886
20.6200 6.8567 0.7827
20.6400 6.8633 0.7775
20.6600 6.8699 0.7838
20.6800 6.8767 0.7791
20.7000 6.8834 0.7722
20.7200 6.8901 0.7849
20.7400 6.8968 0.7839
20.7600 6.9034 0.7713
20.7800 6.9100 0.7867
20.8000 6.9166 0.7818
20.8200 6.9232 0.7737
20.8400 6.9299 0.7818
20.8600 6.9366 0.7817
20.8800 6.9434 0.7744
20.9000 6.9500 0.7807
20.9200 6.9567 0.7815
20.9400 6.9634 0.7745
20.9600 6.9701 0.7797
20.9800 6.9767 0.7822
21.0000 6.9833 0.7717
21.0200 6.9900 0.7836
21.0400 6.9966 0.7804
21.0600 7.0033 0.7688
21.0800 7.0100 0.7854
21.1000 7.0167 0.7788
21.1200 7.0234 0.7665
21.1400 7.0300 0.7838
21.1600 7.0366 0.7782
21.1800 7.0432 0.7700
21.2000 7.0499 0.7866
21.2200 7.0566 0.7798
21.2400 7.0633 0.7660
21.2600 7.0700 0.7835
21.2800 7.0766 0.7788
21.3000 7.0833 0.7693
21.3200 7.0900 0.7814
21.3400 7.0966 0.7755
21.3600 7.1032 0.7721
21.3800 7.1099 0.7757
21.4000 7.1166 0.7766
21.4200 7.1233 0.7658
21.4400 7.1300 0.7768
21.4600 7.1367 0.7752
21.4800 7.1434 0.7681
21.5000 7.1500 0.7744
21.5200 7.1567 0.7752
21.5400 7.1633 0.7696
21.5600 7.1699 0.7729
21.5800 7.1766 0.7743
21.6000 7.1833 0.7731
21.6200 7.1900 0.7726
21.6400 7.1967 0.7714
21.6600 7.2034 0.7669
21.6800 7.2101 0.7732
21.7000 7.2167 0.7744
21.7200 7.2233 0.7637
21.7400 7.2299 0.7727
21.7600 7.2366 0.7722
21.7800 7.2433 0.7659
21.8000 7.2500 0.7749
21.8200 7.2567 0.7723
21.8400 7.2634 0.7670
21.8600 7.2700 0.7733
21.8800 7.2766 0.7698
21.9000 7.2832 0.7643
21.9200 7.2899 0.7726
21.9400 7.2966 0.7724
21.9600 7.3033 0.7645
21.9800 7.3100 0.7690
22.0000 7.3166 0.7754
22.0200 7.3233 0.7580
22.0400 7.3300 0.7714
22.0600 7.3367 0.7723
22.0800 7.3433 0.7621
22.1000 7.3499 0.7724
22.1200 7.3566 0.7739
22.1400 7.3633 0.7582
22.1600 7.3700 0.7733
22.1800 7.3767 0.7734
22.2000 7.3834 0.7591
22.2200 7.3901 0.7703
22.2400 7.3967 0.7730
22.2600 7.4033 0.7590
22.2800 7.4099 0.7694
22.3000 7.4166 0.7746
22.3200 7.4234 0.7594
22.3400 7.4300 0.7655
22.3600 7.4367 0.7697
22.3800 7.4434 0.7592
22.4000 7.4500 0.7659
22.4200 7.4567 0.7705
22.4400 7.4633 0.7550
22.4600 7.4699 0.7692
22.4800 7.4766 0.7749
22.5000 7.4833 0.7552
22.5200 7.4900 0.7660
22.5400 7.4967 0.7780
22.5600 7.5034 0.7519
22.5800 7.5100 0.7609
22.6000 7.5167 0.7712
22.6200 7.5232 0.7592
22.6400 7.5299 0.7570
22.6600 7.5366 0.7762
22.6800 7.5433 0.7560
22.7000 7.5500 0.7571
22.7200 7.5567 0.7732
22.7400 7.5634 0.7510
22.7600 7.5700 0.7581
22.7800 7.5767 0.7733
22.8000 7.5833 0.7547
22.8200 7.5899 0.7596
22.8400 7.5966 0.7764
22.8600 7.6033 0.7499
22.8800 7.6100 0.7545
22.9000 7.6167 0.7698
22.9200 7.6234 0.7549
22.9400 7.6301 0.7580
22.9600 7.6367 0.7675
22.9800 7.6433 0.7492
23.0000 7.6500 0.7595
23.0200 7.6566 0.7647
23.0400 7.6633 0.7556
23.0600 7.6700 0.7572
23.0800 7.6767 0.7586
23.1000 7.6834 0.7530
23.1200 7.6901 0.7555
23.1400 7.6967 0.7607
23.1600 7.7033 0.7553
23.1800 7.7099 0.7595
23.2000 7.7166 0.7576
23.2200 7.7233 0.7553
23.2400 7.7300 0.7542
23.2600 7.7367 0.7572
23.2800 7.7434 0.7532
23.3000 7.7500 0.7543
23.3200 7.7566 0.7591
23.3400 7.7632 0.7544
23.3600 7.7699 0.7537
23.3800 7.7766 0.7592
23.4000 7.7833 0.7507
23.4200 7.7900 0.7546
23.4400 7.7966 0.7599
23.4600 7.8033 0.7523
23.4800 7.8100 0.7530
23.5000 7.8166 0.7604
23.5200 7.8233 0.7521
23.5400 7.8299 0.7532
23.5600 7.8366 0.7603
23.5800 7.8433 0.7482
23.6000 7.8500 0.7518
23.6200 7.8567 0.7596
23.6400 7.8634 0.7499
23.6600 7.8701 0.7498
23.6800 7.8767 0.7545
23.7000 7.8833 0.7482
23.7200 7.8899 0.7561
23.7400 7.8966 0.7560
23.7600 7.9033 0.7497
23.7800 7.9100 0.7522
23.8000 7.9167 0.7527
23.8200 7.9234 0.7510
23.8400 7.9301 0.7531
23.8600 7.9367 0.7493
23.8800 7.9433 0.7529
23.9000 7.9499 0.7547
23.9200 7.9566 0.7528
23.9400 7.9633 0.7487
23.9600 7.9700 0.7551
23.9800 7.9767 0.7510
24.0000 7.9834 0.7492
24.0200 7.9900 0.7540
24.0400 7.9967 0.7473
24.0600 8.0033 0.7500
24.0800 8.0099 0.7477
24.1000 8.0166 0.7523
24.1200 8.0233 0.7487
24.1400 8.0300 0.7498
24.1600 8.0366 0.7502
24.1800 8.0433 0.7528
24.2000 8.0500 0.7477
24.2200 8.0567 0.7464
24.2400 8.0633 0.7510
24.2600 8.0699 0.7518
24.2800 8.0766 0.7464
24.3000 8.0833 0.7476
24.3200 8.0900 0.7454
24.3400 8.0967 0.7484
24.3600 8.1034 0.7513
24.3800 8.1101 0.7445
24.4000 8.1167 0.7469
24.4200 8.1233 0.7468
24.4400 8.1299 0.7443
24.4600 8.1366 0.7440
24.4800 8.1433 0.7520
24.5000 8.1501 0.7411
24.5200 8.1568 0.7455
24.5400 8.1634 0.7479
24.5600 8.1701 0.7381
24.5800 8.1767 0.7425
24.6000 8.1833 0.7466
24.6200 8.1899 0.7397
24.6400 8.1966 0.7474
24.6600 8.2033 0.7468
24.6800 8.2100 0.7407
24.7000 8.2167 0.7440
24.7200 8.2233 0.7464
24.7400 8.2300 0.7388
24.7600 8.2367 0.7426
24.7800 8.2433 0.7447
24.8000 8.2499 0.7437
24.8200 8.2566 0.7445
24.8400 8.2633 0.7406
24.8600 8.2700 0.7433
24.8800 8.2767 0.7393
24.9000 8.2833 0.7455
24.9200 8.2900 0.7452
24.9400 8.2967 0.7379
24.9600 8.3033 0.7450
24.9800 8.3099 0.7427
25.0000 8.3166 0.7376
25.0200 8.3233 0.7444
25.0400 8.3300 0.7407
25.0600 8.3367 0.7364
25.0800 8.3434 0.7460
25.1000 8.3501 0.7418
25.1200 8.3567 0.7320
25.1400 8.3633 0.7454
25.1600 8.3699 0.7439
25.1800 8.3766 0.7334
25.2000 8.3833 0.7485
25.2200 8.3900 0.7373
25.2400 8.3967 0.7348
25.2600 8.4034 0.7440
25.2800 8.4101 0.7426
25.3000 8.4167 0.7340
25.3200 8.4233 0.7413
25.3400 8.4299 0.7439
25.3600 8.4366 0.7341
25.3800 8.4433 0.7372
25.4000 8.4500 0.7422
25.4200 8.4567 0.7320
25.4400 8.4634 0.7381
25.4600 8.4700 0.7406
25.4800 8.4767 0.7318
25.5000 8.4833 0.7392
25.5200 8.4899 0.7398
25.5400 8.4965 0.7319
25.5600 8.5032 0.7396
25.5800 8.5099 0.7384
25.6000 8.5166 0.7287
25.6200 8.5233 0.7397
25.6400 8.5300 0.7316
25.6600 8.5367 0.7291
25.6800 8.5433 0.7411
25.7000 8.5499 0.7337
25.7200 8.5566 0.7276
25.7400 8.5633 0.7398
25.7600 8.5700 0.7345
25.7800 8.5767 0.7304
25.8000 8.5834 0.7378
25.8200 8.5901 0.7355
25.8400 8.5967 0.7287
25.8600 8.6033 0.7367
25.8800 8.6099 0.7308
25.9000 8.6166 0.7339
25.9200 8.6233 0.7392
25.9400 8.6300 0.7275
25.9600 8.6367 0.7311
25.9800 8.6434 0.7360
26.0000 8.6501 0.7306
26.0200 8.6567 0.7285
26.0400 8.6633 0.7382
26.0600 8.6699 0.7343
26.0800 8.6766 0.7261
26.1000 8.6833 0.7364
26.1200 8.6900 0.7351
26.1400 8.6966 0.7220
26.1600 8.7033 0.7377
26.1800 8.7100 0.7305
26.2000 8.7167 0.7265
26.2200 8.7233 0.7325
26.2400 8.7299 0.7299
26.2600 8.7365 0.7327
26.2800 8.7432 0.7348
26.3000 8.7499 0.7249
26.3200 8.7566 0.7309
26.3400 8.7633 0.7310
26.3600 8.7700 0.7263
26.3800 8.7767 0.7339
26.4000 8.7833 0.7285
26.4200 8.7899 0.7292
26.4400 8.7966 0.7312
26.4600 8.8033 0.7286
26.4800 8.8100 0.7319
26.5000 8.8167 0.7251
26.5200 8.8234 0.7275
26.5400 8.8301 0.7360
26.5600 8.8367 0.7178
26.5800 8.8434 0.7275
26.6000 8.8500 0.7335
26.6200 8.8566 0.7226
26.6400 8.8633 0.7275
26.6600 8.8700 0.7342
26.6800 8.8767 0.7163
26.7000 8.8834 0.7254
26.7200 8.8901 0.7306
26.7400 8.8967 0.7168
26.7600 8.9034 0.7283
26.7800 8.9099 0.7253
26.8000 8.9166 0.7140
26.8200 8.9233 0.7318
26.8400 8.9300 0.7228
26.8600 8.9367 0.7135
26.8800 8.9433 0.7314
26.9000 8.9500 0.7174
26.9200 8.9567 0.7172
26.9400 8.9633 0.7279
26.9600 8.9699 0.7223
26.9800 8.9765 0.7188
27.0000 8.9832 0.7280
27.0200 8.9900 0.7133
27.0400 8.9967 0.7179
27.0600 9.0033 0.7279
27.0800 9.0100 0.7157
27.1000 9.0167 0.7185
27.1200 9.0233 0.7219
27.1400 9.0299 0.7174
27.1600 9.0366 0.7249
27.1800 9.0433 0.7163
27.2000 9.0500 0.7202
27.2200 9.0567 0.7244
27.2400 9.0634 0.7110
27.2600 9.0701 0.7216
27.2800 9.0767 0.7215
27.3000 9.0834 0.7142
27.3200 9.0900 0.7209
27.3400 9.0966 0.7259
27.3600 9.1033 0.7108
27.3800 9.1100 0.7215
27.4000 9.1167 0.7179
27.4200 9.1234 0.7145
27.4400 9.1301 0.7280
27.4600 9.1367 0.7101
27.4800 9.1433 0.7174
27.5000 9.1499 0.7226
27.5200 9.1566 0.7094
27.5400 9.1633 0.7237
27.5600 9.1700 0.7268
27.5800 9.1767 0.7074
27.6000 9.1834 0.7165
27.6200 9.1900 0.7215
27.6400 9.1967 0.7087
27.6600 9.2033 0.7226
27.6800 9.2099 0.7266
27.7000 9.2165 0.7051
27.7200 9.2232 0.7169
27.7400 9.2299 0.7156
27.7600 9.2366 0.7109
27.7800 9.2433 0.7177
27.8000 9.2500 0.7180
27.8200 9.2567 0.7115
27.8400 9.2633 0.7116
27.8600 9.2699 0.7104
27.8800 9.2766 0.7172
27.9000 9.2833 0.7148
27.9200 9.2900 0.7159
27.9400 9.2967 0.7091
27.9600 9.3034 0.7049
27.9800 9.3101 0.7139
28.0000 9.3167 0.7229
28.0200 9.3234 0.7079
28.0400 9.3300 0.7119
28.0600 9.3366 0.7189
28.0800 9.3433 0.7019
28.1000 9.3500 0.7150
28.1200 9.3567 0.7157
28.1400 9.3634 0.7040
28.1600 9.3701 0.7154
28.1800 9.3767 0.7101
28.2000 9.3834 0.7016
28.2200 9.3899 0.7194
28.2400 9.3965 0.7090
28.2600 9.4032 0.6962
28.2800 9.4100 0.7191
28.3000 9.4167 0.7212
28.3200 9.4233 0.6895
28.3400 9.4300 0.7089
28.3600 9.4367 0.7162
28.3800 9.4433 0.7056
28.4000 9.4499 0.7107
28.4200 9.4566 0.7154
28.4400 9.4632 0.7015
28.4600 9.4700 0.7047
28.4800 9.4767 0.7136
28.5000 9.4834 0.6952
28.5200 9.4900 0.7135
28.5400 9.4967 0.7189
28.5600 9.5033 0.6831
28.5800 9.5099 0.7031
28.6000 9.5166 0.7245
28.6200 9.5233 0.6899
28.6400 9.5300 0.6979
28.6600 9.5367 0.7284
28.6800 9.5434 0.6944
28.7000 9.5500 0.6863
28.7200 9.5567 0.7196
28.7400 9.5634 0.7015
28.7600 9.5700 0.7060
28.7800 9.5766 0.7186
28.8000 9.5833 0.6810
28.8200 9.5900 0.6981
28.8400 9.5967 0.7261
28.8600 9.6034 0.6954
28.8800 9.6101 0.6976
28.9000 9.6167 0.7113
28.9200 9.6234 0.6906
28.9400 9.6300 0.7030
28.9600 9.6366 0.7165
28.9800 9.6432 0.6930
29.0000 9.6499 0.7032
29.0200 9.6566 0.7113
29.0400 9.6633 0.6887
29.0600 9.6700 0.7105
29.0800 9.6767 0.7071
29.1000 9.6833 0.6864
29.1200 9.6899 0.7066
29.1400 9.6965 0.7127
29.1600 9.7032 0.6901
29.1800 9.7099 0.6978
29.2000 9.7166 0.7059
29.2200 9.7233 0.6968
29.2400 9.7300 0.7065
29.2600 9.7367 0.6992
29.2800 9.7434 0.6903
29.3000 9.7500 0.7027
29.3200 9.7566 0.7057
29.3400 9.7633 0.6950
29.3600 9.7700 0.7014
29.3800 9.7767 0.7032
29.4000 9.7834 0.6967
29.4200 9.7901 0.6947
29.4400 9.7968 0.7029
29.4600 9.8034 0.7003
29.4800 9.8100 0.6966
29.5000 9.8166 0.6999
29.5200 9.8232 0.7005
29.5400 9.8300 0.6932
29.5600 9.8367 0.7036
29.5800 9.8434 0.6983
29.6000 9.8500 0.6909
29.6200 9.8567 0.7000
29.6400 9.8634 0.6947
29.6600 9.8700 0.6979
29.6800 9.8766 0.7007
29.7000 9.8833 0.6939
29.7200 9.8899 0.6964
29.7400 9.8966 0.7094
29.7600 9.9033 0.6890
29.7800 9.9100 0.6921
29.8000 9.9167 0.7097
29.8200 9.9234 0.6933
29.8400 9.9299 0.6866
29.8600 9.9365 0.7084
29.8800 9.9432 0.6923
29.9000 9.9499 0.6906
29.9200 9.9566 0.7030
29.9400 9.9633 0.6885
29.9600 9.9700 0.6919
29.9800 9.9767 0.7079
30.0000 9.9833 0.6839
30.0200 9.9899 0.6904
30.0400 9.9966 0.7060
30.0600 10.0033 0.6883
30.0800 10.0100 0.6930
30.1000 10.0167 0.6988
30.1200 10.0234 0.6894
30.1400 10.0300 0.6931
30.1600 10.0367 0.6979
30.1800 10.0434 0.6963
30.2000 10.0500 0.6936
30.2200 10.0566 0.6842
30.2400 10.0633 0.6974
30.2600 10.0700 0.6943
30.2800 10.0767 0.6852
30.3000 10.0834 0.7006
30.3200 10.0901 0.6908
30.3400 10.0967 0.6813
30.3600 10.1034 0.7049
30.3800 10.1100 0.6909
30.4000 10.1166 0.6836
30.4200 10.1232 0.6985
30.4400 10.1299 0.6822
30.4600 10.1366 0.6877
30.4800 10.1433 0.7065
30.5000 10.1500 0.6812
30.5200 10.1567 0.6826
30.5400 10.1633 0.6967
30.5600 10.1699 0.6815
30.5800 10.1765 0.6990
30.6000 10.1832 0.6896
30.6200 10.1900 0.6762
30.6400 10.1967 0.6896
30.6600 10.2033 0.7006
30.6800 10.2100 0.6850
30.7000 10.2167 0.6846
30.7200 10.2234 0.6865
30.7400 10.2300 0.6905
30.7600 10.2366 0.6926
30.7800 10.2433 0.6914
30.8000 10.2500 0.6777
30.8200 10.2567 0.6810
30.8400 10.2633 0.7027
30.8600 10.2700 0.6876
30.8800 10.2767 0.6820
30.9000 10.2834 0.6845
30.9200 10.2900 0.6800
30.9400 10.2966 0.6980
30.9600 10.3032 0.6983
30.9800 10.3100 0.6710
31.0000 10.3167 0.6867
31.0200 10.3234 0.6881
31.0400 10.3300 0.6758
31.0600 10.3367 0.6976
31.0800 10.3434 0.6955
31.1000 10.3500 0.6629
31.1200 10.3566 0.6838
31.1400 10.3632 0.6922
31.1600 10.3699 0.6856
31.1800 10.3767 0.6939
31.2000 10.3833 0.6676
31.2200 10.3900 0.6727
31.2400 10.3967 0.7053
31.2600 10.4033 0.6854
31.2800 10.4100 0.6713
31.3000 10.4166 0.6830
31.3200 10.4232 0.6803
31.3400 10.4299 0.6824
31.3600 10.4366 0.6905
31.3800 10.4433 0.6802
31.4000 10.4500 0.6698
31.4200 10.4567 0.6821
31.4400 10.4634 0.6904
31.4600 10.4700 0.6803
31.4800 10.4766 0.6794
31.5000 10.4832 0.6845
31.5200 10.4900 0.6684
31.5400 10.4967 0.6866
31.5600 10.5034 0.6944
31.5800 10.5101 0.6719
31.6000 10.5167 0.6655
31.6200 10.5234 0.6845
31.6400 10.5300 0.6872
31.6600 10.5366 0.6738
31.6800 10.5433 0.6821
31.7000 10.5500 0.6748
31.7200 10.5567 0.6799
31.7400 10.5634 0.6757
31.7600 10.5701 0.6805
31.7800 10.5767 0.6824
31.8000 10.5834 0.6751
31.8200 10.5900 0.6703
31.8400 10.5966 0.6888
31.8600 10.6032 0.6820
31.8800 10.6099 0.6674
31.9000 10.6166 0.6757
31.9200 10.6233 0.6818
31.9400 10.6300 0.6815
31.9600 10.6367 0.6864
31.9800 10.6434 0.6634
32.0000 10.6500 0.6643
32.0200 10.6566 0.6884
32.0400 10.6632 0.6915
32.0600 10.6699 0.6714
32.0800 10.6766 0.6606
32.1000 10.6833 0.6750
32.1200 10.6900 0.6849
32.1400 10.6967 0.6787
32.1600 10.7034 0.6688
32.1800 10.7100 0.6772
32.2000 10.7166 0.6679
32.2200 10.7233 0.6748
32.2400 10.7300 0.6882
32.2600 10.7367 0.6772
32.2800 10.7434 0.6652
32.3000 10.7500 0.6717
32.3200 10.7568 0.6801
32.3400 10.7635 0.6808
32.3600 10.7701 0.6666
32.3800 10.7767 0.6659
32.4000 10.7833 0.6811
32.4200 10.7899 0.6808
32.4400 10.7966 0.6702
32.4600 10.8034 0.6718
32.4800 10.8100 0.6680
32.5000 10.8167 0.6760
32.5200 10.8234 0.6796
32.5400 10.8300 0.6637
32.5600 10.8366 0.6660
32.5800 10.8432 0.6774
32.6000 10.8499 0.6727
32.6200 10.8566 0.6703
32.6400 10.8633 0.6810
32.6600 10.8700 0.6622
32.6800 10.8767 0.6662
32.7000 10.8834 0.6763
32.7200 10.8900 0.6646
32.7400 10.8966 0.6765
32.7600 10.9032 0.6728
32.7800 10.9099 0.6541
32.8000 10.9166 0.6705
32.8200 10.9233 0.6814
32.8400 10.9300 0.6587
32.8600 10.9367 0.6679
32.8800 10.9434 0.6776
32.9000 10.9500 0.6649
32.9200 10.9566 0.6659
32.9400 10.9633 0.6747
32.9600 10.9699 0.6676
32.9800 10.9766 0.6697
33.0000 10.9833 0.6677
33.0200 10.9900 0.6652
33.0400 10.9967 0.6638
33.0600 11.0034 0.6738
33.0800 11.0100 0.6643
33.1000 11.0166 0.6614
33.1200 11.0233 0.6768
33.1400 11.0300 0.6640
33.1600 11.0367 0.6567
33.1800 11.0434 0.6733
33.2000 11.0501 0.6663
33.2200 11.0567 0.6582
33.2400 11.0634 0.6704
33.2600 11.0700 0.6647
33.2800 11.0766 0.6608
33.3000 11.0832 0.6756
33.3200 11.0899 0.6610
33.3400 11.0966 0.6502
33.3600 11.1033 0.6765
33.3800 11.1100 0.6624
33.4000 11.1167 0.6551
33.4200 11.1234 0.6709
33.4400 11.1300 0.6646
33.4600 11.1366 0.6560
33.4800 11.1432 0.6705
33.5000 11.1499 0.6606
33.5200 11.1566 0.6549
33.5400 11.1633 0.6675
33.5600 11.1700 0.6605
33.5800 11.1767 0.6539
33.6000 11.1834 0.6694
33.6200 11.1900 0.6564
33.6400 11.1966 0.6589
33.6600 11.2033 0.6639
33.6800 11.2099 0.6614
33.7000 11.2167 0.6575
33.7200 11.2234 0.6530
33.7400 11.2301 0.6615
33.7600 11.2367 0.6631
33.7800 11.2434 0.6503
33.8000 11.2500 0.6538
33.8200 11.2566 0.6659
33.8400 11.2632 0.6551
33.8600 11.2699 0.6550
33.8800 11.2766 0.6576
33.9000 11.2833 0.6500
33.9200 11.2900 0.6606
33.9400 11.2967 0.6548
33.9600 11.3034 0.6493
33.9800 11.3100 0.6588
34.0000 11.3167 0.6539
34.0200 11.3232 0.6542
34.0400 11.3299 0.6542
34.0600 11.3366 0.6499
34.0800 11.3433 0.6557
34.1000 11.3500 0.6495
34.1200 11.3567 0.6519
34.1400 11.3634 0.6589
34.1600 11.3701 0.6418
34.1800 11.3766 0.6446
34.2000 11.3832 0.6665
34.2200 11.3899 0.6477
34.2400 11.3966 0.6464
34.2600 11.4033 0.6604
34.2800 11.4100 0.6407
34.3000 11.4166 0.6477
34.3200 11.4233 0.6646
34.3400 11.4300 0.6383
34.3600 11.4366 0.6495
34.3800 11.4433 0.6567
34.4000 11.4499 0.6447
34.4200 11.4566 0.6505
34.4400 11.4633 0.6510
34.4600 11.4700 0.6486
34.4800 11.4767 0.6485
34.5000 11.4834 0.6451
34.5200 11.4901 0.6510
34.5400 11.4967 0.6464
34.5600 11.5033 0.6448
34.5800 11.5099 0.6560
34.6000 11.5166 0.6384
34.6200 11.5233 0.6459
34.6400 11.5300 0.6610
34.6600 11.5367 0.6389
34.6800 11.5434 0.6486
34.7000 11.5500 0.6560
34.7200 11.5566 0.6352
34.7400 11.5632 0.6487
34.7600 11.5699 0.6559
34.7800 11.5766 0.6377
34.8000 11.5833 0.6508
34.8200 11.5900 0.6519
34.8400 11.5966 0.6285
34.8600 11.6033 0.6462
34.8800 11.6100 0.6665
34.9000 11.6166 0.6400
34.9200 11.6232 0.6315
34.9400 11.6299 0.6591
34.9600 11.6366 0.6382
34.9800 11.6433 0.6276
35.0000 11.6500 0.6698
35.0200 11.6567 0.6635
35.0400 11.6634 0.6097
35.0600 11.6701 0.6345
35.0800 11.6767 0.6625
35.1000 11.6833 0.6380
35.1200 11.6899 0.6643
35.1400 11.6966 0.6343
35.1600 11.7033 0.6077
35.1800 11.7100 0.6735
35.2000 11.7167 0.6658
35.2200 11.7234 0.5968
35.2400 11.7300 0.6395
35.2600 11.7366 0.6882
35.2800 11.7433 0.6225
35.3000 11.7499 0.6191
35.3200 11.7566 0.6672
35.3400 11.7634 0.6237
35.3600 11.7700 0.6386
35.3800 11.7767 0.6736
35.4000 11.7834 0.6242
35.4200 11.7901 0.5996
35.4400 11.7967 0.6721
35.4600 11.8033 0.6457
35.4800 11.8100 0.6165
35.5000 11.8166 0.6776
35.5200 11.8233 0.6051
35.5400 11.8300 0.6020
35.5600 11.8367 0.6999
35.5800 11.8434 0.6274
35.6000 11.8501 0.6015
35.6200 11.8567 0.6739
35.6400 11.8632 0.6159
35.6600 11.8699 0.6312
35.6800 11.8766 0.6744
35.7000 11.8833 0.6036
35.7200 11.8900 0.6333
35.7400 11.8967 0.6780
35.7600 11.9033 0.5950
35.7800 11.9100 0.6364
35.8000 11.9166 0.6589
35.8200 11.9233 0.6127
35.8400 11.9299 0.6517
35.8600 11.9366 0.6371
35.8800 11.9433 0.6130
35.9000 11.9500 0.6447
35.9200 11.9567 0.6395
35.9400 11.9634 0.6302
35.9600 11.9701 0.6446
35.9800 11.9767 0.6246
36.0000 11.9833 0.6252
36.0200 11.9899 0.6401
36.0400 11.9966 0.6332
36.0600 12.0033 0.6349
36.0800 12.0100 0.6392
36.1000 12.0167 0.6220
36.1200 12.0234 0.6301
36.1400 12.0301 0.6417
36.1600 12.0367 0.6407
36.1800 12.0433 0.6287
36.2000 12.0499 0.6243
36.2200 12.0566 0.6427
36.2400 12.0633 0.6376
36.2600 12.0700 0.6284
36.2800 12.0767 0.6326
36.3000 12.0834 0.6290
36.3200 12.0900 0.6309
36.3400 12.0966 0.6412
36.3600 12.1033 0.6214
36.3800 12.1099 0.6325
36.4000 12.1166 0.6446
36.4200 12.1233 0.6238
36.4400 12.1300 0.6291
36.4600 12.1366 0.6447
36.4800 12.1433 0.6195
36.5000 12.1500 0.6354
36.5200 12.1567 0.6415
36.5400 12.1633 0.6183
36.5600 12.1699 0.6380
36.5800 12.1766 0.6387
36.6000 12.1833 0.6196
36.6200 12.1900 0.6325
36.6400 12.1967 0.6387
36.6600 12.2034 0.6175
36.6800 12.2101 0.6307
36.7000 12.2167 0.6425
36.7200 12.2233 0.6217
36.7400 12.2299 0.6267
36.7600 12.2366 0.6354
36.7800 12.2434 0.6259
36.8000 12.2501 0.6316
36.8200 12.2567 0.6309
36.8400 12.2634 0.6188
36.8600 12.2700 0.6341
36.8800 12.2766 0.6430
36.9000 12.2833 0.6158
36.9200 12.2899 0.6298
36.9400 12.2966 0.6419
36.9600 12.3033 0.6175
36.9800 12.3100 0.6236
37.0000 12.3167 0.6387
37.0200 12.3234 0.6216
37.0400 12.3300 0.6259
37.0600 12.3367 0.6337
37.0800 12.3433 0.6160
37.1000 12.3499 0.6327
37.1200 12.3565 0.6376
37.1400 12.3633 0.6141
37.1600 12.3700 0.6297
37.1800 12.3767 0.6341
37.2000 12.3834 0.6148
37.2200 12.3901 0.6330
37.2400 12.3967 0.6283
37.2600 12.4033 0.6172
37.2800 12.4099 0.6396
37.3000 12.4166 0.6203
37.3200 12.4233 0.6098
37.3400 12.4300 0.6437
37.3600 12.4367 0.6218
37.3800 12.4434 0.6053
37.4000 12.4501 0.6372
37.4200 12.4567 0.6210
37.4400 12.4633 0.6137
37.4600 12.4700 0.6364
37.4800 12.4766 0.6193
37.5000 12.4833 0.6170
37.5200 12.4900 0.6269
37.5400 12.4967 0.6153
37.5600 12.5034 0.6287
37.5800 12.5101 0.6202
37.6000 12.5167 0.6076
37.6200 12.5233 0.6301
37.6400 12.5299 0.6170
37.6600 12.5366 0.6095
37.6800 12.5433 0.6347
37.7000 12.5500 0.6094
37.7200 12.5567 0.6133
37.7400 12.5634 0.6286
37.7600 12.5700 0.6110
37.7800 12.5767 0.6167
37.8000 12.5833 0.6220
37.8200 12.5899 0.6066
37.8400 12.5965 0.6186
37.8600 12.6033 0.6205
37.8800 12.6100 0.6113
37.9000 12.6166 0.6301
37.9200 12.6233 0.5952
37.9400 12.6300 0.6083
37.9600 12.6367 0.6511
37.9800 12.6433 0.6015
38.0000 12.6499 0.5880
38.0200 12.6566 0.6415
38.0400 12.6633 0.6125
38.0600 12.6700 0.5990
38.0800 12.6767 0.6318
38.1000 12.6834 0.6102
38.1200 12.6901 0.5960
38.1400 12.6967 0.6194
38.1600 12.7033 0.6160
38.1800 12.7099 0.6223
38.2000 12.7166 0.6127
38.2200 12.7233 0.5871
38.2400 12.7300 0.6247
38.2600 12.7367 0.6283
38.2800 12.7434 0.5892
38.3000 12.7501 0.6150
38.3200 12.7567 0.6227
38.3400 12.7633 0.5936
38.3600 12.7699 0.6162
38.3800 12.7766 0.6228
38.4000 12.7833 0.5964
38.4200 12.7900 0.6036
38.4400 12.7967 0.6164
38.4600 12.8033 0.6031
38.4800 12.8100 0.6154
38.5000 12.8167 0.6119
38.5200 12.8233 0.5884
38.5400 12.8299 0.6079
38.5600 12.8366 0.6259
38.5800 12.8433 0.6035
38.6000 12.8500 0.5997
38.6200 12.8567 0.6122
38.6400 12.8633 0.6050
38.6600 12.8700 0.6091
38.6800 12.8767 0.6085
38.7000 12.8833 0.6107
38.7200 12.8899 0.6070
38.7400 12.8966 0.5973
38.7600 12.9033 0.6046
38.7800 12.9100 0.6217
38.8000 12.9167 0.6053
38.8200 12.9234 0.5895
38.8400 12.9301 0.6101
38.8600 12.9367 0.6105
38.8800 12.9433 0.5932
38.9000 12.9499 0.6127
38.9200 12.9566 0.6053
38.9400 12.9633 0.5943
38.9600 12.9701 0.6045
38.9800 12.9767 0.6085
39.0000 12.9834 0.6027
39.0200 12.9901 0.6049
39.0400 12.9967 0.5953
39.0600 13.0033 0.6027
39.0800 13.0099 0.6140
39.1000 13.0166 0.5946
39.1200 13.0233 0.6003
39.1400 13.0300 0.6096
39.1600 13.0366 0.5961
39.1800 13.0433 0.6077
39.2000 13.0500 0.6061
39.2200 13.0567 0.5870
39.2400 13.0633 0.6076
39.2600 13.0699 0.6113
39.2800 13.0765 0.5932
39.3000 13.0833 0.6014
39.3200 13.0900 0.6020
39.3400 13.0967 0.5973
39.3600 13.1033 0.6044
39.3800 13.1100 0.5967
39.4000 13.1167 0.5979
39.4200 13.1233 0.6066
39.4400 13.1300 0.5994
39.4600 13.1366 0.5958
39.4800 13.1433 0.5994
39.5000 13.1500 0.6012
39.5200 13.1567 0.5990
39.5400 13.1634 0.6008
39.5600 13.1700 0.5960
39.5800 13.1767 0.6034
39.6000 13.1833 0.6030
39.6200 13.1899 0.5939
39.6400 13.1966 0.5991
39.6600 13.2033 0.6018
39.6800 13.2100 0.5983
39.7000 13.2167 0.5951
39.7200 13.2234 0.5958
39.7400 13.2301 0.6084
39.7600 13.2367 0.5919
39.7800 13.2433 0.5951
39.8000 13.2499 0.6081
39.8200 13.2566 0.5937
39.8400 13.2633 0.5993
39.8600 13.2700 0.6045
39.8800 13.2767 0.5868
39.9000 13.2834 0.5974
39.9200 13.2901 0.6053
39.9400 13.2967 0.5821
39.9600 13.3033 0.5962
39.9800 13.3099 0.6019
40.0000 13.3165 0.5865
40.0200 13.3232 0.5963
40.0400 13.3300 0.5956
40.0600 13.3366 0.5855
40.0800 13.3433 0.6031
40.1000 13.3500 0.5960
40.1200 13.3566 0.5808
40.1400 13.3633 0.5992
40.1600 13.3699 0.5969
40.1800 13.3765 0.5835
40.2000 13.3833 0.6037
40.2200 13.3900 0.5910
40.2400 13.3968 0.5782
40.2600 13.4035 0.6024
40.2800 13.4102 0.5936
40.3000 13.4168 0.5831
40.3200 13.4234 0.5948
40.3400 13.4299 0.5915
40.3600 13.4366 0.5873
40.3800 13.4433 0.5939
40.4000 13.4500 0.5894
40.4200 13.4567 0.5903
40.4400 13.4634 0.5907
40.4600 13.4700 0.5921
40.4800 13.4767 0.5871
40.5000 13.4833 0.5889
40.5200 13.4899 0.5953
40.5400 13.4966 0.5886
40.5600 13.5033 0.5809
40.5800 13.5100 0.5973
40.6000 13.5167 0.5886
40.6200 13.5233 0.5798
40.6400 13.5300 0.5938
40.6600 13.5367 0.5895
40.6800 13.5433 0.5849
40.7000 13.5499 0.5959
40.7200 13.5565 0.5865
40.7400 13.5632 0.5788
40.7600 13.5700 0.5982
40.7800 13.5766 0.5832
40.8000 13.5833 0.5776
40.8200 13.5900 0.5979
40.8400 13.5967 0.5829
40.8600 13.6033 0.5773
40.8800 13.6099 0.5994
40.9000 13.6165 0.5810
40.9200 13.6232 0.5802
40.9400 13.6300 0.5938
40.9600 13.6367 0.5802
40.9800 13.6434 0.5815
41.0000 13.6501 0.5929
41.0200 13.6567 0.5755
41.0400 13.6634 0.5863
41.0600 13.6700 0.5939
41.0800 13.6767 0.5666
41.1000 13.6833 0.5934
41.1200 13.6900 0.5893
41.1400 13.6967 0.5636
41.1600 13.7034 0.5951
41.1800 13.7101 0.5891
41.2000 13.7167 0.5686
41.2200 13.7234 0.5896
41.2400 13.7299 0.5811
41.2600 13.7365 0.5803
41.2800 13.7432 0.5912
41.3000 13.7499 0.5769
41.3200 13.7567 0.5740
41.3400 13.7633 0.5921
41.3600 13.7700 0.5777
41.3800 13.7767 0.5757
41.4000 13.7833 0.5871
41.4200 13.7899 0.5795
41.4400 13.7965 0.5789
41.4600 13.8032 0.5833
41.4800 13.8100 0.5858
41.5000 13.8167 0.5791
41.5200 13.8233 0.5742
41.5400 13.8300 0.5884
41.5600 13.8367 0.5795
41.5800 13.8433 0.5755
41.6000 13.8500 0.5891
41.6200 13.8566 0.5738
41.6400 13.8633 0.5750
41.6600 13.8700 0.5874
41.6800 13.8767 0.5768
41.7000 13.8833 0.5727
41.7200 13.8900 0.5876
41.7400 13.8967 0.5685
41.7600 13.9033 0.5756
41.7800 13.9100 0.5916
41.8000 13.9166 0.5729
41.8200 13.9233 0.5745
41.8400 13.9300 0.5849
41.8600 13.9367 0.5745
41.8800 13.9434 0.5759
41.9000 13.9501 0.5847
41.9200 13.9567 0.5708
41.9400 13.9633 0.5757
41.9600 13.9700 0.5787
41.9800 13.9766 0.5752
42.0000 13.9833 0.5828
42.0200 13.9900 0.5740
42.0400 13.9967 0.5662
42.0600 14.0033 0.5833
42.0800 14.0100 0.5742
42.1000 14.0167 0.5714
42.1200 14.0233 0.5810
42.1400 14.0300 0.5712
42.1600 14.0366 0.5752
42.1800 14.0432 0.5783
42.2000 14.0499 0.5655
42.2200 14.0566 0.5738
42.2400 14.0633 0.5752
42.2600 14.0700 0.5685
42.2800 14.0767 0.5768
42.3000 14.0834 0.5692
42.3200 14.0900 0.5683
42.3400 14.0966 0.5825
42.3600 14.1033 0.5718
42.3800 14.1100 0.5670
42.4000 14.1167 0.5774
42.4200 14.1234 0.5655
42.4400 14.1301 0.5732
42.4600 14.1367 0.5758
42.4800 14.1434 0.5601
42.5000 14.1500 0.5702
42.5200 14.1566 0.5821
42.5400 14.1633 0.5553
42.5600 14.1700 0.5730
42.5800 14.1767 0.5775
42.6000 14.1834 0.5570
42.6200 14.1901 0.5768
42.6400 14.1967 0.5746
42.6600 14.2034 0.5511
42.6800 14.2100 0.5825
42.7000 14.2166 0.5723
42.7200 14.2232 0.5526
42.7400 14.2300 0.5800
42.7600 14.2367 0.5706
42.7800 14.2434 0.5548
42.8000 14.2500 0.5745
42.8200 14.2567 0.5666
42.8400 14.2634 0.5604
42.8600 14.2699 0.5734
42.8800 14.2765 0.5630
42.9000 14.2832 0.5632
42.9200 14.2899 0.5697
42.9400 14.2966 0.5674
42.9600 14.3033 0.5584
42.9800 14.3100 0.5728
43.0000 14.3167 0.5681
43.0200 14.3233 0.5595
43.0400 14.3300 0.5608
43.0600 14.3366 0.5654
43.0800 14.3433 0.5636
43.1000 14.3500 0.5607
43.1200 14.3567 0.5654
43.1400 14.3634 0.5625
43.1600 14.3701 0.5618
43.1800 14.3767 0.5673
43.2000 14.3834 0.5589
43.2200 14.3900 0.5577
43.2400 14.3966 0.5689
43.2600 14.4033 0.5553
43.2800 14.4100 0.5646
43.3000 14.4167 0.5648
43.3200 14.4234 0.5522
43.3400 14.4301 0.5551
43.3600 14.4367 0.5694
43.3800 14.4434 0.5519
43.4000 14.4500 0.5547
43.4200 14.4566 0.5682
43.4400 14.4632 0.5507
43.4600 14.4699 0.5604
43.4800 14.4766 0.5646
43.5000 14.4833 0.5458
43.5200 14.4900 0.5603
43.5400 14.4967 0.5645
43.5600 14.5033 0.5490
43.5800 14.5100 0.5575
43.6000 14.5166 0.5657
43.6200 14.5232 0.5491
43.6400 14.5299 0.5579
43.6600 14.5366 0.5619
43.6800 14.5433 0.5434
43.7000 14.5500 0.5666
43.7200 14.5567 0.5559
43.7400 14.5633 0.5415
43.7600 14.5700 0.5643
43.7800 14.5766 0.5544
43.8000 14.5833 0.5466
43.8200 14.5900 0.5629
43.8400 14.5967 0.5506
43.8600 14.6034 0.5537
43.8800 14.6101 0.5537
43.9000 14.6168 0.5508
43.9200 14.6234 0.5545
43.9400 14.6300 0.5549
43.9600 14.6366 0.5508
43.9800 14.6432 0.5558
44.0000 14.6500 0.5559
44.0200 14.6567 0.5459
44.0400 14.6634 0.5562
44.0600 14.6700 0.5472
44.0800 14.6767 0.5549
44.1000 14.6833 0.5566
44.1200 14.6899 0.5435
44.1400 14.6966 0.5566
44.1600 14.7032 0.5601
44.1800 14.7100 0.5452
44.2000 14.7167 0.5522
44.2200 14.7234 0.5503
44.2400 14.7300 0.5440
44.2600 14.7367 0.5575
44.2800 14.7434 0.5500
44.3000 14.7500 0.5403
44.3200 14.7566 0.5568
44.3400 14.7632 0.5468
44.3600 14.7699 0.5426
44.3800 14.7766 0.5557
44.4000 14.7833 0.5474
44.4200 14.7900 0.5458
44.4400 14.7967 0.5530
44.4600 14.8033 0.5428
44.4800 14.8099 0.5492
44.5000 14.8166 0.5525
44.5200 14.8232 0.5438
44.5400 14.8299 0.5479
44.5600 14.8367 0.5484
44.5800 14.8434 0.5450
44.6000 14.8500 0.5462
44.6200 14.8567 0.5498
44.6400 14.8634 0.5466
44.6600 14.8700 0.5445
44.6800 14.8767 0.5432
44.7000 14.8833 0.5491
44.7200 14.8900 0.5413
44.7400 14.8967 0.5394
44.7600 14.9034 0.5481
44.7800 14.9101 0.5399
44.8000 14.9167 0.5425
44.8200 14.9234 0.5502
44.8400 14.9300 0.5354
44.8600 14.9366 0.5444
44.8800 14.9432 0.5497
44.9000 14.9499 0.5356
44.9200 14.9566 0.5454
44.9400 14.9633 0.5455
44.9600 14.9700 0.5436
44.9800 14.9767 0.5403
45.0000 14.9834 0.5415
45.0200 14.9900 0.5410
45.0400 14.9966 0.5415
45.0600 15.0033 0.5447
45.0800 15.0100 0.5360
45.1000 15.0167 0.5360
45.1200 15.0233 0.5482
45.1400 15.0300 0.5384
45.1600 15.0367 0.5346
45.1800 15.0434 0.5446
45.2000 15.0500 0.5378
45.2200 15.0566 0.5361
45.2400 15.0633 0.5424
45.2600 15.0700 0.5374
45.2800 15.0767 0.5367
45.3000 15.0833 0.5387
45.3200 15.0900 0.5313
45.3400 15.0967 0.5375
45.3600 15.1034 0.5401
45.3800 15.1100 0.5333
45.4000 15.1166 0.5336
45.4200 15.1232 0.5383
45.4400 15.1299 0.5345
45.4600 15.1367 0.5336
45.4800 15.1434 0.5383
45.5000 15.1501 0.5335
45.5200 15.1567 0.5308
45.5400 15.1634 0.5401
45.5600 15.1700 0.5306
45.5800 15.1766 0.5329
45.6000 15.1832 0.5392
45.6200 15.1899 0.5361
45.6400 15.1967 0.5308
45.6600 15.2034 0.5346
45.6800 15.2100 0.5368
45.7000 15.2167 0.5279
45.7200 15.2234 0.5376
45.7400 15.2300 0.5323
45.7600 15.2366 0.5300
45.7800 15.2432 0.5371
45.8000 15.2499 0.5301
45.8200 15.2566 0.5306
45.8400 15.2633 0.5396
45.8600 15.2700 0.5298
45.8800 15.2767 0.5270
45.9000 15.2834 0.5398
45.9200 15.2900 0.5319
45.9400 15.2966 0.5196
45.9600 15.3032 0.5426
45.9800 15.3099 0.5352
46.0000 15.3167 0.5226
46.0200 15.3234 0.5366
46.0400 15.3300 0.5364
46.0600 15.3367 0.5245
46.0800 15.3434 0.5343
46.1000 15.3500 0.5275
46.1200 15.3566 0.5214
46.1400 15.3633 0.5383
46.1600 15.3700 0.5300
46.1800 15.3767 0.5175
46.2000 15.3834 0.5332
46.2200 15.3901 0.5335
46.2400 15.3967 0.5182
46.2600 15.4034 0.5359
46.2800 15.4100 0.5284
46.3000 15.4166 0.5171
46.3200 15.4232 0.5340
46.3400 15.4299 0.5317
46.3600 15.4366 0.5177
46.3800 15.4433 0.5336
46.4000 15.4500 0.5255
46.4200 15.4567 0.5145
46.4400 15.4634 0.5316
46.4600 15.4700 0.5260
46.4800 15.4766 0.5096
46.5000 15.4832 0.5345
46.5200 15.4899 0.5316
46.5400 15.4966 0.5100
46.5600 15.5033 0.5309
46.5800 15.5100 0.5259
46.6000 15.5166 0.5132
46.6200 15.5233 0.5293
46.6400 15.5300 0.5227
46.6600 15.5366 0.5122
46.6800 15.5432 0.5284
46.7000 15.5499 0.5207
46.7200 15.5566 0.5185
46.7400 15.5633 0.5260
46.7600 15.5700 0.5240
46.7800 15.5767 0.5131
46.8000 15.5834 0.5240
46.8200 15.5901 0.5167
46.8400 15.5967 0.5151
46.8600 15.6033 0.5272
46.8800 15.6100 0.5175
46.9000 15.6167 0.5141
46.9200 15.6234 0.5233
46.9400 15.6301 0.5187
46.9600 15.6367 0.5129
46.9800 15.6434 0.5205
47.0000 15.6500 0.5222
47.0200 15.6566 0.5088
47.0400 15.6632 0.5184
47.0600 15.6699 0.5239
47.0800 15.6766 0.5100
47.1000 15.6834 0.5230
47.1200 15.6900 0.5169
47.1400 15.6967 0.5079
47.1600 15.7034 0.5164
47.1800 15.7100 0.5193
47.2000 15.7166 0.5088
47.2200 15.7232 0.5212
47.2400 15.7299 0.5204
47.2600 15.7366 0.5074
47.2800 15.7433 0.5162
47.3000 15.7500 0.5181
47.3200 15.7567 0.5079
47.3400 15.7633 0.5157
47.3600 15.7700 0.5145
47.3800 15.7766 0.5047
47.4000 15.7832 0.5122
47.4200 15.7899 0.5160
47.4400 15.7966 0.5044
47.4600 15.8033 0.5127
47.4800 15.8100 0.5159
47.5000 15.8167 0.5045
47.5200 15.8234 0.5102
47.5400 15.8300 0.5126
47.5600 15.8366 0.5085
47.5800 15.8433 0.5139
47.6000 15.8499 0.5148
47.6200 15.8567 0.5049
47.6400 15.8634 0.5077
47.6600 15.8701 0.5134
47.6800 15.8767 0.5084
47.7000 15.8834 0.5099
47.7200 15.8901 0.5134
47.7400 15.8967 0.5070
47.7600 15.9033 0.5057
47.7800 15.9099 0.5095
47.8000 15.9166 0.5103
47.8200 15.9233 0.5063
47.8400 15.9300 0.5095
47.8600 15.9367 0.5084
47.8800 15.9434 0.5053
47.9000 15.9500 0.5099
47.9200 15.9566 0.5076
47.9400 15.9632 0.5109
47.9600 15.9699 0.5134
47.9800 15.9766 0.5060
48.0000 15.9833 0.5006
48.0200 15.9900 0.5185
48.0400 15.9967 0.5010
48.0600 16.0034 0.5028
48.0800 16.0100 0.5190
48.1000 16.0166 0.4991
48.1200 16.0233 0.5035
48.1400 16.0299 0.5177
48.1600 16.0367 0.4986
48.1800 16.0434 0.5007
48.2000 16.0501 0.5197
48.2200 16.0567 0.4978
48.2400 16.0634 0.5027
48.2600 16.0701 0.5121
48.2800 16.0767 0.4989
48.3000 16.0833 0.5045
48.3200 16.0899 0.5110
48.3400 16.0966 0.5006
48.3600 16.1033 0.5045
48.3800 16.1100 0.5089
48.4000 16.1167 0.5031
48.4200 16.1234 0.5006
48.4400 16.1301 0.5067
48.4600 16.1367 0.4997
48.4800 16.1432 0.5011
48.5000 16.1499 0.5068
48.5200 16.1566 0.5034
48.5400 16.1633 0.5001
48.5600 16.1700 0.5059
48.5800 16.1767 0.5025
48.6000 16.1834 0.5019
48.6200 16.1901 0.5021
48.6400 16.1967 0.4981
48.6600 16.2032 0.5000
48.6800 16.2099 0.5075
48.7000 16.2166 0.4993
48.7200 16.2233 0.5009
48.7400 16.2300 0.5020
48.7600 16.2367 0.4962
48.7800 16.2433 0.5071
48.8000 16.2500 0.4999
48.8200 16.2566 0.4986
48.8400 16.2633 0.4994
48.8600 16.2699 0.5046
48.8800 16.2766 0.4966
48.9000 16.2833 0.5016
48.9200 16.2900 0.5035
48.9400 16.2967 0.4934
48.9600 16.3034 0.4991
48.9800 16.3101 0.5039
49.0000 16.3167 0.4943
49.0200 16.3233 0.4985
49.0400 16.3299 0.5008
49.0600 16.3366 0.4982
49.0800 16.3434 0.4950
49.1000 16.3501 0.4972
49.1200 16.3567 0.4947
49.1400 16.3634 0.4926
49.1600 16.3700 0.5004
49.1800 16.3766 0.4941
49.2000 16.3832 0.4952
49.2200 16.3899 0.4979
49.2400 16.3966 0.4928
49.2600 16.4033 0.4896
49.2800 16.4100 0.4998
49.3000 16.4166 0.4919
49.3200 16.4233 0.4899
49.3400 16.4300 0.4956
49.3600 16.4366 0.4903
49.3800 16.4432 0.4923
49.4000 16.4499 0.4934
49.4200 16.4566 0.4901
49.4400 16.4633 0.4909
49.4600 16.4700 0.4923
49.4800 16.4767 0.4943
49.5000 16.4834 0.4902
49.5200 16.4900 0.4930
49.5400 16.4967 0.4890
49.5600 16.5033 0.4854
49.5800 16.5099 0.4954
49.6000 16.5166 0.4928
49.6200 16.5234 0.4823
49.6400 16.5301 0.4945
49.6600 16.5367 0.4928
49.6800 16.5434 0.4828
49.7000 16.5500 0.4940
49.7200 16.5567 0.4941
49.7400 16.5633 0.4845
49.7600 16.5699 0.4901
49.7800 16.5766 0.4926
49.8000 16.5833 0.4837
49.8200 16.5900 0.4895
49.8400 16.5967 0.4878
49.8600 16.6033 0.4862
49.8800 16.6100 0.4832
49.9000 16.6167 0.4860
49.9200 16.6233 0.4838
49.9400 16.6300 0.4859
49.9600 16.6367 0.4897
49.9800 16.6433 0.4821
50.0000 16.6500 0.4809
50.0200 16.6567 0.4917
50.0400 16.6634 0.4861
50.0600 16.6701 0.4765
50.0800 16.6767 0.4901
50.1000 16.6833 0.4875
50.1200 16.6899 0.4804
50.1400 16.6966 0.4923
50.1600 16.7033 0.4886
50.1800 16.7100 0.4742
50.2000 16.7167 0.4935
50.2200 16.7234 0.4832
50.2400 16.7300 0.4774
50.2600 16.7367 0.4943
50.2800 16.7433 0.4809
50.3000 16.7499 0.4788
50.3200 16.7566 0.4944
50.3400 16.7633 0.4805
50.3600 16.7700 0.4719
50.3800 16.7767 0.4947
50.4000 16.7834 0.4816
50.4200 16.7901 0.4754
50.4400 16.7967 0.4938
50.4600 16.8033 0.4736
50.4800 16.8099 0.4779
50.5000 16.8166 0.4935
50.5200 16.8233 0.4732
50.5400 16.8300 0.4794
50.5600 16.8367 0.4863
50.5800 16.8434 0.4725
50.6000 16.8501 0.4804
50.6200 16.8567 0.4874
50.6400 16.8633 0.4712
50.6600 16.8699 0.4778
50.6800 16.8766 0.4818
50.7000 16.8833 0.4722
50.7200 16.8900 0.4823
50.7400 16.8967 0.4756
50.7600 16.9034 0.4711
50.7800 16.9100 0.4785
50.8000 16.9167 0.4758
50.8200 16.9233 0.4744
50.8400 16.9299 0.4818
50.8600 16.9366 0.4763
50.8800 16.9433 0.4715
50.9000 16.9500 0.4718
50.9200 16.9566 0.4751
50.9400 16.9633 0.4728
50.9600 16.9700 0.4718
50.9800 16.9766 0.4685
51.0000 16.9833 0.4757
51.0200 16.9899 0.4703
51.0400 16.9966 0.4748
51.0600 17.0033 0.4717
51.0800 17.0100 0.4679
51.1000 17.0167 0.4737
51.1200 17.0234 0.4721
51.1400 17.0301 0.4642
51.1600 17.0367 0.4732
51.1800 17.0433 0.4730
51.2000 17.0499 0.4634
51.2200 17.0566 0.4708
51.2400 17.0633 0.4750
51.2600 17.0700 0.4623
51.2800 17.0767 0.4691
51.3000 17.0834 0.4713
51.3200 17.0900 0.4577
51.3400 17.0967 0.4745
51.3600 17.1033 0.4654
51.3800 17.1099 0.4601
51.4000 17.1166 0.4750
51.4200 17.1233 0.4684
51.4400 17.1300 0.4580
51.4600 17.1367 0.4762
51.4800 17.1433 0.4630
51.5000 17.1500 0.4588
51.5200 17.1567 0.4680
51.5400 17.1633 0.4592
51.5600 17.1699 0.4607
51.5800 17.1766 0.4727
51.6000 17.1833 0.4590
51.6200 17.1900 0.4536
51.6400 17.1967 0.4701
51.6600 17.2034 0.4567
51.6800 17.2101 0.4602
51.7000 17.2167 0.4626
51.7200 17.2233 0.4585
51.7400 17.2299 0.4559
51.7600 17.2366 0.4629
51.7800 17.2433 0.4606
51.8000 17.2500 0.4573
51.8200 17.2567 0.4620
51.8400 17.2634 0.4583
51.8600 17.2701 0.4555
51.8800 17.2767 0.4588
51.9000 17.2833 0.4590
51.9200 17.2900 0.4570
51.9400 17.2966 0.4588
51.9600 17.3033 0.4592
51.9800 17.3100 0.4526
52.0000 17.3167 0.4616
52.0200 17.3234 0.4599
52.0400 17.3301 0.4469
52.0600 17.3368 0.4578
52.0800 17.3433 0.4607
52.1000 17.3499 0.4528
52.1200 17.3566 0.4563
52.1400 17.3633 0.4642
52.1600 17.3700 0.4479
52.1800 17.3767 0.4535
52.2000 17.3834 0.4659
52.2200 17.3900 0.4515
52.2400 17.3967 0.4482
52.2600 17.4033 0.4606
52.2800 17.4099 0.4463
52.3000 17.4165 0.4545
52.3200 17.4232 0.4575
52.3400 17.4300 0.4454
52.3600 17.4366 0.4519
52.3800 17.4433 0.4625
52.4000 17.4500 0.4445
52.4200 17.4567 0.4500
52.4400 17.4633 0.4602
52.4600 17.4699 0.4461
52.4800 17.4766 0.4531
52.5000 17.4833 0.4595
52.5200 17.4900 0.4442
52.5400 17.4967 0.4513
52.5600 17.5034 0.4583
52.5800 17.5101 0.4398
52.6000 17.5168 0.4512
52.6200 17.5233 0.4551
52.6400 17.5299 0.4436
52.6600 17.5366 0.4527
52.6800 17.5433 0.4559
52.7000 17.5500 0.4397
52.7200 17.5567 0.4510
52.7400 17.5634 0.4557
52.7600 17.5701 0.4456
52.7800 17.5767 0.4481
52.8000 17.5833 0.4495
52.8200 17.5899 0.4429
52.8400 17.5966 0.4515
52.8600 17.6033 0.4502
52.8800 17.6100 0.4387
52.9000 17.6167 0.4459
52.9200 17.6234 0.4492
52.9400 17.6300 0.4370
52.9600 17.6367 0.4445
52.9800 17.6433 0.4457
53.0000 17.6499 0.4415
53.0200 17.6566 0.4466
53.0400 17.6633 0.4436
53.0600 17.6700 0.4413
53.0800 17.6766 0.4403
53.1000 17.6833 0.4439
53.1200 17.6900 0.4392
53.1400 17.6966 0.4396
53.1600 17.7033 0.4424
53.1800 17.7099 0.4421
53.2000 17.7166 0.4388
53.2200 17.7233 0.4410
53.2400 17.7300 0.4420
53.2600 17.7367 0.4379
53.2800 17.7434 0.4412
53.3000 17.7501 0.4389
53.3200 17.7567 0.4313
53.3400 17.7633 0.4412
53.3600 17.7699 0.4357
53.3800 17.7766 0.4336
53.4000 17.7833 0.4403
53.4200 17.7900 0.4328
53.4400 17.7967 0.4350
53.4600 17.8034 0.4384
53.4800 17.8101 0.4360
53.5000 17.8167 0.4321
53.5200 17.8233 0.4393
53.5400 17.8299 0.4317
53.5600 17.8366 0.4291
53.5800 17.8433 0.4416
53.6000 17.8500 0.4341
53.6200 17.8566 0.4243
53.6400 17.8633 0.4369
53.6600 17.8700 0.4301
53.6800 17.8767 0.4293
53.7000 17.8833 0.4337
53.7200 17.8899 0.4316
53.7400 17.8965 0.4296
53.7600 17.9032 0.4345
53.7800 17.9100 0.4297
53.8000 17.9167 0.4292
53.8200 17.9233 0.4392
53.8400 17.9300 0.4235
53.8600 17.9367 0.4267
53.8800 17.9433 0.4358
53.9000 17.9499 0.4261
53.9200 17.9566 0.4258
53.9400 17.9633 0.4359
53.9600 17.9700 0.4228
53.9800 17.9767 0.4251
54.0000 17.9833 0.4290
54.0200 17.9900 0.4243
54.0400 17.9967 0.4235
54.0600 18.0034 0.4310
54.0800 18.0100 0.4241
54.1000 18.0166 0.4273
54.1200 18.0233 0.4292
54.1400 18.0300 0.4238
54.1600 18.0367 0.4214
54.1800 18.0434 0.4279
54.2000 18.0501 0.4269
54.2200 18.0567 0.4181
54.2400 18.0634 0.4244
54.2600 18.0700 0.4234
54.2800 18.0766 0.4263
54.3000 18.0833 0.4257
54.3200 18.0900 0.4190
54.3400 18.0967 0.4200
54.3600 18.1034 0.4231
54.3800 18.1100 0.4216
54.4000 18.1167 0.4198
54.4200 18.1233 0.4221
54.4400 18.1299 0.4230
54.4600 18.1365 0.4140
54.4800 18.1432 0.4259
54.5000 18.1500 0.4191
54.5200 18.1566 0.4130
54.5400 18.1633 0.4190
54.5600 18.1700 0.4199
54.5800 18.1767 0.4190
54.6000 18.1833 0.4175
54.6200 18.1899 0.4170
54.6400 18.1966 0.4186
54.6600 18.2032 0.4162
54.6800 18.2100 0.4198
54.7000 18.2167 0.4182
54.7200 18.2234 0.4120
54.7400 18.2301 0.4201
54.7600 18.2368 0.4097
54.7800 18.2434 0.4122
54.8000 18.2500 0.4233
54.8200 18.2566 0.4161
54.8400 18.2633 0.4072
54.8600 18.2700 0.4211
54.8800 18.2767 0.4114
54.9000 18.2834 0.4117
54.9200 18.2901 0.4230
54.9400 18.2967 0.4035
54.9600 18.3033 0.4111
54.9800 18.3099 0.4177
55.0000 18.3166 0.4094
55.0200 18.3233 0.4171
55.0400 18.3300 0.4122
55.0600 18.3366 0.4128
55.0800 18.3433 0.4102
55.1000 18.3500 0.4082
55.1200 18.3567 0.4098
55.1400 18.3633 0.4077
55.1600 18.3699 0.4114
55.1800 18.3765 0.4134
55.2000 18.3832 0.4083
55.2200 18.3899 0.4030
55.2400 18.3966 0.4144
55.2600 18.4033 0.4085
55.2800 18.4100 0.4073
55.3000 18.4167 0.4140
55.3200 18.4233 0.4014
55.3400 18.4299 0.4088
55.3600 18.4366 0.4148
55.3800 18.4433 0.3976
55.4000 18.4500 0.4124
55.4200 18.4567 0.4133
55.4400 18.4634 0.3965
55.4600 18.4701 0.4092
55.4800 18.4768 0.4114
55.5000 18.4834 0.3946
55.5200 18.4900 0.4136
55.5400 18.4966 0.4080
55.5600 18.5033 0.3954
55.5800 18.5100 0.4165
55.6000 18.5167 0.3994
55.6200 18.5234 0.3981
55.6400 18.5300 0.4153
55.6600 18.5367 0.3942
55.6800 18.5434 0.3926
55.7000 18.5500 0.4122
55.7200 18.5566 0.3963
55.7400 18.5632 0.4010
55.7600 18.5700 0.4115
55.7800 18.5766 0.3895
55.8000 18.5833 0.4001
55.8200 18.5900 0.4076
55.8400 18.5967 0.3840
55.8600 18.6033 0.3997
55.8800 18.6099 0.4036
55.9000 18.6166 0.3922
55.9200 18.6232 0.4050
55.9400 18.6299 0.3952
55.9600 18.6367 0.3912
55.9800 18.6433 0.3966
56.0000 18.6500 0.3967
56.0200 18.6567 0.3949
56.0400 18.6634 0.3961
56.0600 18.6700 0.3890
56.0800 18.6766 0.3933
56.1000 18.6833 0.3940
56.1200 18.6900 0.3929
56.1400 18.6967 0.3965
56.1600 18.7033 0.3861
56.1800 18.7101 0.3880
56.2000 18.7168 0.3983
56.2200 18.7234 0.3783
56.2400 18.7300 0.3927
56.2600 18.7366 0.3978
56.2800 18.7433 0.3785
56.3000 18.7500 0.3925
56.3200 18.7567 0.3948
56.3400 18.7634 0.3786
56.3600 18.7701 0.3912
56.3800 18.7767 0.3931
56.4000 18.7834 0.3754
56.4200 18.7900 0.3955
56.4400 18.7966 0.3908
56.4600 18.8033 0.3788
56.4800 18.8100 0.3920
56.5000 18.8167 0.3883
56.5200 18.8233 0.3771
56.5400 18.8300 0.3910
56.5600 18.8367 0.3855
56.5800 18.8433 0.3797
56.6000 18.8499 0.3844
56.6200 18.8565 0.3911
56.6400 18.8632 0.3812
56.6600 18.8699 0.3834
56.6800 18.8766 0.3880
56.7000 18.8833 0.3766
56.7200 18.8900 0.3831
56.7400 18.8967 0.3881
56.7600 18.9034 0.3717
56.7800 18.9100 0.3796
56.8000 18.9166 0.3905
56.8200 18.9232 0.3753
56.8400 18.9300 0.3824
56.8600 18.9367 0.3883
56.8800 18.9434 0.3735
56.9000 18.9501 0.3805
56.9200 18.9568 0.3822
56.9400 18.9634 0.3678
56.9600 18.9700 0.3837
56.9800 18.9766 0.3821
57.0000 18.9833 0.3632
57.0200 18.9900 0.3836
57.0400 18.9967 0.3837
57.0600 19.0034 0.3637
57.0800 19.0100 0.3896
57.1000 19.0167 0.3766
57.1200 19.0234 0.3608
57.1400 19.0300 0.3836
57.1600 19.0366 0.3786
57.1800 19.0432 0.3618
57.2000 19.0499 0.3834
57.2200 19.0566 0.3739
57.2400 19.0633 0.3564
57.2600 19.0700 0.3871
57.2800 19.0767 0.3701
57.3000 19.0834 0.3574
57.3200 19.0900 0.3851
57.3400 19.0966 0.3688
57.3600 19.1032 0.3606
57.3800 19.1099 0.3850
57.4000 19.1166 0.3631
57.4200 19.1233 0.3657
57.4400 19.1300 0.3789
57.4600 19.1367 0.3644
57.4800 19.1433 0.3652
57.5000 19.1500 0.3759
57.5200 19.1566 0.3616
57.5400 19.1633 0.3689
57.5600 19.1700 0.3703
57.5800 19.1767 0.3637
57.6000 19.1834 0.3738
57.6200 19.1900 0.3637
57.6400 19.1967 0.3628
57.6600 19.2034 0.3687
57.6800 19.2100 0.3624
57.7000 19.2166 0.3619
57.7200 19.2233 0.3692
57.7400 19.2300 0.3614
57.7600 19.2367 0.3624
57.7800 19.2434 0.3641
57.8000 19.2501 0.3616
57.8200 19.2568 0.3652
57.8400 19.2634 0.3572
57.8600 19.2700 0.3569
57.8800 19.2766 0.3654
57.9000 19.2832 0.3556
57.9200 19.2899 0.3607
57.9400 19.2966 0.3591
57.9600 19.3033 0.3572
57.9800 19.3100 0.3592
58.0000 19.3167 0.3610
58.0200 19.3233 0.3538
58.0400 19.3300 0.3569
58.0600 19.3366 0.3578
58.0800 19.3432 0.3501
58.1000 19.3499 0.3620
58.1200 19.3566 0.3534
58.1400 19.3633 0.3495
58.1600 19.3700 0.3608
58.1800 19.3767 0.3547
58.2000 19.3833 0.3485
58.2200 19.3900 0.3601
58.2400 19.3966 0.3438
58.2600 19.4033 0.3532
58.2800 19.4100 0.3588
58.3000 19.4167 0.3465
58.3200 19.4233 0.3482
58.3400 19.4300 0.3597
58.3600 19.4367 0.3428
58.3800 19.4434 0.3461
58.4000 19.4500 0.3585
58.4200 19.4566 0.3437
58.4400 19.4632 0.3559
58.4600 19.4699 0.3554
58.4800 19.4767 0.3366
58.5000 19.4834 0.3508
58.5200 19.4900 0.3501
58.5400 19.4967 0.3425
58.5600 19.5034 0.3554
58.5800 19.5100 0.3446
58.6000 19.5166 0.3402
58.6200 19.5233 0.3551
58.6400 19.5300 0.3472
58.6600 19.5367 0.3379
58.6800 19.5433 0.3537
58.7000 19.5500 0.3410
58.7200 19.5567 0.3452
58.7400 19.5634 0.3519
58.7600 19.5700 0.3363
58.7800 19.5766 0.3444
58.8000 19.5832 0.3549
58.8200 19.5899 0.3353
58.8400 19.5966 0.3453
58.8600 19.6033 0.3516
58.8800 19.6100 0.3346
58.9000 19.6167 0.3455
58.9200 19.6233 0.3488
58.9400 19.6300 0.3341
58.9600 19.6366 0.3470
58.9800 19.6432 0.3436
59.0000 19.6499 0.3309
59.0200 19.6567 0.3479
59.0400 19.6634 0.3374
59.0600 19.6700 0.3313
59.0800 19.6767 0.3411
59.1000 19.6834 0.3393
59.1200 19.6900 0.3291
59.1400 19.6966 0.3438
59.1600 19.7033 0.3375
59.1800 19.7100 0.3259
59.2000 19.7167 0.3397
59.2200 19.7234 0.3296
59.2400 19.7300 0.3266
59.2600 19.7367 0.3403
59.2800 19.7434 0.3291
59.3000 19.7500 0.3162
59.3010 19.7503 0.3152
