Raw Data
Time Displacement Force
(s) (mm) (N)
0.0000 0.0000 -0.1088
0.0200 0.0001 -0.1099
0.0400 0.0008 -0.0572
0.0600 0.0040 -0.0111
0.0800 0.0095 -0.0507
0.1000 0.0153 -0.0560
0.1200 0.0212 -0.0238
0.1400 0.0278 -0.0221
0.1600 0.0351 -0.0061
0.1800 0.0425 0.0204
0.2000 0.0497 0.0529
0.2200 0.0566 0.0813
0.2400 0.0633 0.1042
0.2600 0.0699 0.1376
0.2800 0.0766 0.1683
0.3000 0.0833 0.1910
0.3200 0.0900 0.2221
0.3400 0.0968 0.2606
0.3600 0.1034 0.2818
0.3800 0.1101 0.3152
0.4000 0.1167 0.3497
0.4200 0.1234 0.3669
0.4400 0.1301 0.3967
0.4600 0.1368 0.4265
0.4800 0.1435 0.4371
0.5000 0.1502 0.4480
0.5200 0.1568 0.4369
0.5400 0.1635 0.4338
0.5600 0.1701 0.4346
0.5800 0.1767 0.4267
0.6000 0.1834 0.4275
0.6200 0.1901 0.4495
0.6400 0.1968 0.4572
0.6600 0.2035 0.4867
0.6800 0.2101 0.5347
0.7000 0.2168 0.5549
0.7200 0.2235 0.5902
0.7400 0.2301 0.6212
0.7600 0.2367 0.6186
0.7800 0.2434 0.6512
0.8000 0.2501 0.6909
0.8200 0.2567 0.7182
0.8400 0.2634 0.7654
0.8600 0.2701 0.7908
0.8800 0.2768 0.7918
0.9000 0.2834 0.7973
0.9200 0.2900 0.8039
0.9400 0.2966 0.7967
0.9600 0.3033 0.8064
0.9800 0.3100 0.8099
1.0000 0.3167 0.8047
1.0200 0.3234 0.8096
1.0400 0.3301 0.8180
1.0600 0.3368 0.8151
1.0800 0.3434 0.8171
1.1000 0.3500 0.8218
1.1200 0.3567 0.8206
1.1400 0.3634 0.8263
1.1600 0.3701 0.8319
1.1800 0.3768 0.8226
1.2000 0.3835 0.8310
1.2200 0.3901 0.8400
1.2400 0.3968 0.8265
1.2600 0.4035 0.8325
1.2800 0.4101 0.8447
1.3000 0.4167 0.8345
1.3200 0.4234 0.8396
1.3400 0.4301 0.8495
1.3600 0.4368 0.8353
1.3800 0.4435 0.8478
1.4000 0.4502 0.8506
1.4200 0.4568 0.8379
1.4400 0.4635 0.8469
1.4600 0.4700 0.8548
1.4800 0.4767 0.8442
1.5000 0.4833 0.8496
1.5200 0.4900 0.8519
1.5400 0.4967 0.8480
1.5600 0.5034 0.8522
1.5800 0.5101 0.8506
1.6000 0.5168 0.8492
1.6200 0.5234 0.8584
1.6400 0.5300 0.8518
1.6600 0.5366 0.8451
1.6800 0.5433 0.8610
1.7000 0.5501 0.8513
1.7200 0.5568 0.8487
1.7400 0.5634 0.8576
1.7600 0.5701 0.8540
1.7800 0.5768 0.8511
1.8000 0.5834 0.8556
1.8200 0.5901 0.8512
1.8400 0.5967 0.8543
1.8600 0.6034 0.8547
1.8800 0.6101 0.8493
1.9000 0.6168 0.8543
1.9200 0.6235 0.8615
1.9400 0.6301 0.8492
1.9600 0.6368 0.8522
1.9800 0.6435 0.8529
2.0000 0.6501 0.8551
2.0200 0.6567 0.8536
2.0400 0.6633 0.8465
2.0600 0.6701 0.8595
2.0800 0.6768 0.8483
2.1000 0.6835 0.8500
2.1200 0.6902 0.8529
2.1400 0.6968 0.8490
2.1600 0.7034 0.8513
2.1800 0.7100 0.8553
2.2000 0.7167 0.8457
2.2200 0.7234 0.8539
2.2400 0.7301 0.8561
2.2600 0.7368 0.8457
2.2800 0.7434 0.8539
2.3000 0.7501 0.8551
2.3200 0.7568 0.8476
2.3400 0.7634 0.8531
2.3600 0.7701 0.8463
2.3800 0.7767 0.8483
2.4000 0.7833 0.8527
2.4200 0.7900 0.8527
2.4400 0.7967 0.8477
2.4600 0.8034 0.8502
2.4800 0.8101 0.8541
2.5000 0.8168 0.8536
2.5200 0.8235 0.8501
2.5400 0.8301 0.8525
2.5600 0.8367 0.8547
2.5800 0.8434 0.8471
2.6000 0.8501 0.8537
2.6200 0.8568 0.8533
2.6400 0.8635 0.8537
2.6600 0.8702 0.8542
2.6800 0.8768 0.8545
2.7000 0.8835 0.8480
2.7200 0.8901 0.8613
2.7400 0.8967 0.8575
2.7600 0.9034 0.8459
2.7800 0.9101 0.8575
2.8000 0.9168 0.8577
2.8200 0.9235 0.8469
2.8400 0.9302 0.8615
2.8600 0.9368 0.8533
2.8800 0.9435 0.8488
2.9000 0.9501 0.8680
2.9200 0.9567 0.8552
2.9400 0.9633 0.8472
2.9600 0.9700 0.8638
2.9800 0.9767 0.8549
3.0000 0.9834 0.8534
3.0200 0.9901 0.8685
3.0400 0.9968 0.8521
3.0600 1.0035 0.8512
3.0800 1.0101 0.8634
3.1000 1.0166 0.8533
3.1200 1.0233 0.8570
3.1400 1.0300 0.8690
3.1600 1.0368 0.8462
3.1800 1.0434 0.8575
3.2000 1.0501 0.8682
3.2200 1.0568 0.8515
3.2400 1.0635 0.8604
3.2600 1.0701 0.8613
3.2800 1.0767 0.8476
3.3000 1.0834 0.8671
3.3200 1.0901 0.8612
3.3400 1.0968 0.8505
3.3600 1.1035 0.8680
3.3800 1.1101 0.8589
3.4000 1.1169 0.8557
3.4200 1.1235 0.8652
3.4400 1.1301 0.8564
3.4600 1.1367 0.8580
3.4800 1.1434 0.8726
3.5000 1.1501 0.8540
3.5200 1.1568 0.8640
3.5400 1.1635 0.8685
3.5600 1.1702 0.8531
3.5800 1.1768 0.8607
3.6000 1.1835 0.8688
3.6200 1.1901 0.8541
3.6400 1.1967 0.8650
3.6600 1.2033 0.8665
3.6800 1.2101 0.8559
3.7000 1.2168 0.8640
3.7200 1.2235 0.8686
3.7400 1.2301 0.8565
3.7600 1.2368 0.8647
3.7800 1.2435 0.8645
3.8000 1.2501 0.8538
3.8200 1.2567 0.8699
3.8400 1.2633 0.8667
3.8600 1.2700 0.8557
3.8800 1.2767 0.8629
3.9000 1.2834 0.8659
3.9200 1.2901 0.8618
3.9400 1.2968 0.8660
3.9600 1.3035 0.8637
3.9800 1.3101 0.8636
4.0000 1.3167 0.8656
4.0200 1.3233 0.8646
4.0400 1.3300 0.8618
4.0600 1.3368 0.8707
4.0800 1.3435 0.8641
4.1000 1.3501 0.8637
4.1200 1.3568 0.8666
4.1400 1.3635 0.8695
4.1600 1.3701 0.8622
4.1800 1.3767 0.8654
4.2000 1.3834 0.8688
4.2200 1.3901 0.8639
4.2400 1.3968 0.8660
4.2600 1.4035 0.8670
4.2800 1.4102 0.8588
4.3000 1.4168 0.8725
4.3200 1.4235 0.8687
4.3400 1.4301 0.8577
4.3600 1.4367 0.8738
4.3800 1.4434 0.8680
4.4000 1.4501 0.8577
4.4200 1.4567 0.8735
4.4400 1.4634 0.8707
4.4600 1.4701 0.8571
4.4800 1.4768 0.8771
4.5000 1.4834 0.8655
4.5200 1.4901 0.8603
4.5400 1.4967 0.8771
4.5600 1.5033 0.8684
4.5800 1.5100 0.8600
4.6000 1.5167 0.8775
4.6200 1.5234 0.8645
4.6400 1.5301 0.8627
4.6600 1.5368 0.8772
4.6800 1.5435 0.8580
4.7000 1.5501 0.8674
4.7200 1.5567 0.8768
4.7400 1.5634 0.8605
4.7600 1.5701 0.8719
4.7800 1.5768 0.8791
4.8000 1.5835 0.8563
4.8200 1.5902 0.8683
4.8400 1.5968 0.8748
4.8600 1.6035 0.8623
4.8800 1.6101 0.8714
4.9000 1.6167 0.8724
4.9200 1.6233 0.8621
4.9400 1.6300 0.8754
4.9600 1.6368 0.8694
4.9800 1.6435 0.8669
5.0000 1.6502 0.8672
5.0200 1.6568 0.8688
5.0400 1.6635 0.8695
5.0600 1.6701 0.8668
5.0800 1.6767 0.8684
5.1000 1.6833 0.8714
5.1200 1.6900 0.8685
5.1400 1.6967 0.8660
5.1600 1.7034 0.8710
5.1800 1.7101 0.8649
5.2000 1.7168 0.8706
5.2200 1.7235 0.8718
5.2400 1.7301 0.8601
5.2600 1.7367 0.8679
5.2800 1.7433 0.8792
5.3000 1.7500 0.8614
5.3200 1.7567 0.8672
5.3400 1.7634 0.8769
5.3600 1.7701 0.8633
5.3800 1.7768 0.8619
5.4000 1.7834 0.8798
5.4200 1.7901 0.8590
5.4400 1.7967 0.8635
5.4600 1.8034 0.8788
5.4800 1.8101 0.8655
5.5000 1.8168 0.8652
5.5200 1.8235 0.8779
5.5400 1.8302 0.8591
5.5600 1.8369 0.8636
5.5800 1.8435 0.8825
5.6000 1.8502 0.8520
5.6200 1.8567 0.8706
5.6400 1.8634 0.8812
5.6600 1.8700 0.8596
5.6800 1.8768 0.8775
5.7000 1.8835 0.8759
5.7200 1.8901 0.8559
5.7400 1.8968 0.8854
5.7600 1.9035 0.8762
5.7800 1.9101 0.8541
5.8000 1.9167 0.8801
5.8200 1.9233 0.8818
5.8400 1.9300 0.8602
5.8600 1.9367 0.8767
5.8800 1.9434 0.8757
5.9000 1.9501 0.8656
5.9200 1.9568 0.8755
5.9400 1.9634 0.8737
5.9600 1.9701 0.8717
5.9800 1.9767 0.8808
6.0000 1.9833 0.8680
6.0200 1.9900 0.8640
6.0400 1.9967 0.8870
6.0600 2.0034 0.8764
6.0800 2.0101 0.8612
6.1000 2.0168 0.8762
6.1200 2.0235 0.8775
6.1400 2.0301 0.8648
6.1600 2.0367 0.8783
6.1800 2.0434 0.8734
6.2000 2.0500 0.8682
6.2200 2.0568 0.8742
6.2400 2.0635 0.8746
6.2600 2.0701 0.8698
6.2800 2.0768 0.8779
6.3000 2.0835 0.8657
6.3200 2.0901 0.8707
6.3400 2.0967 0.8792
6.3600 2.1034 0.8665
6.3800 2.1100 0.8785
6.4000 2.1168 0.8720
6.4200 2.1235 0.8640
6.4400 2.1301 0.8732
6.4600 2.1368 0.8765
6.4800 2.1435 0.8691
6.5000 2.1502 0.8700
6.5200 2.1568 0.8664
6.5400 2.1634 0.8731
6.5600 2.1700 0.8703
6.5800 2.1767 0.8646
6.6000 2.1834 0.8723
6.6200 2.1901 0.8749
6.6400 2.1968 0.8590
6.6600 2.2035 0.8702
6.6800 2.2102 0.8713
6.7000 2.2167 0.8663
6.7200 2.2233 0.8727
6.7400 2.2300 0.8699
6.7600 2.2367 0.8676
6.7800 2.2434 0.8711
6.8000 2.2501 0.8645
6.8200 2.2568 0.8691
6.8400 2.2635 0.8782
6.8600 2.2701 0.8647
6.8800 2.2767 0.8626
6.9000 2.2834 0.8716
6.9200 2.2900 0.8698
6.9400 2.2967 0.8651
6.9600 2.3034 0.8719
6.9800 2.3101 0.8641
7.0000 2.3168 0.8725
7.0200 2.3235 0.8706
7.0400 2.3302 0.8618
7.0600 2.3368 0.8684
7.0800 2.3434 0.8723
7.1000 2.3500 0.8591
7.1200 2.3567 0.8724
7.1400 2.3634 0.8648
7.1600 2.3701 0.8653
7.1800 2.3768 0.8689
7.2000 2.3835 0.8598
7.2200 2.3902 0.8672
7.2400 2.3968 0.8705
7.2600 2.4034 0.8547
7.2800 2.4100 0.8707
7.3000 2.4167 0.8707
7.3200 2.4235 0.8579
7.3400 2.4301 0.8741
7.3600 2.4368 0.8668
7.3800 2.4435 0.8600
7.4000 2.4501 0.8686
7.4200 2.4567 0.8662
7.4400 2.4633 0.8591
7.4600 2.4700 0.8728
7.4800 2.4767 0.8593
7.5000 2.4834 0.8602
7.5200 2.4901 0.8715
7.5400 2.4967 0.8612
7.5600 2.5034 0.8633
7.5800 2.5101 0.8701
7.6000 2.5168 0.8594
7.6200 2.5234 0.8632
7.6400 2.5300 0.8718
7.6600 2.5367 0.8599
7.6800 2.5434 0.8641
7.7000 2.5501 0.8653
7.7200 2.5568 0.8583
7.7400 2.5635 0.8627
7.7600 2.5702 0.8630
7.7800 2.5768 0.8608
7.8000 2.5834 0.8636
7.8200 2.5900 0.8651
7.8400 2.5968 0.8577
7.8600 2.6035 0.8652
7.8800 2.6102 0.8687
7.9000 2.6168 0.8574
7.9200 2.6235 0.8654
7.9400 2.6301 0.8606
7.9600 2.6368 0.8604
7.9800 2.6434 0.8644
8.0000 2.6500 0.8661
8.0200 2.6567 0.8579
8.0400 2.6634 0.8631
8.0600 2.6701 0.8660
8.0800 2.6768 0.8574
8.1000 2.6835 0.8639
8.1200 2.6901 0.8678
8.1400 2.6968 0.8564
8.1600 2.7033 0.8606
8.1800 2.7100 0.8701
8.2000 2.7167 0.8580
8.2200 2.7234 0.8624
8.2400 2.7301 0.8675
8.2600 2.7368 0.8568
8.2800 2.7435 0.8566
8.3000 2.7501 0.8676
8.3200 2.7568 0.8578
8.3400 2.7634 0.8598
8.3600 2.7700 0.8678
8.3800 2.7767 0.8569
8.4000 2.7834 0.8576
8.4200 2.7901 0.8682
8.4400 2.7968 0.8556
8.4600 2.8035 0.8573
8.4800 2.8101 0.8684
8.5000 2.8168 0.8577
8.5200 2.8234 0.8538
8.5400 2.8300 0.8674
8.5600 2.8367 0.8593
8.5800 2.8434 0.8545
8.6000 2.8501 0.8672
8.6200 2.8568 0.8608
8.6400 2.8635 0.8596
8.6600 2.8702 0.8594
8.6800 2.8768 0.8598
8.7000 2.8834 0.8584
8.7200 2.8900 0.8690
8.7400 2.8967 0.8614
8.7600 2.9034 0.8488
8.7800 2.9101 0.8675
8.8000 2.9168 0.8603
8.8200 2.9235 0.8537
8.8400 2.9301 0.8675
8.8600 2.9367 0.8573
8.8800 2.9433 0.8530
8.9000 2.9500 0.8680
8.9200 2.9567 0.8621
8.9400 2.9634 0.8507
8.9600 2.9701 0.8678
8.9800 2.9767 0.8547
9.0000 2.9834 0.8520
9.0200 2.9901 0.8744
9.0400 2.9968 0.8494
9.0600 3.0034 0.8563
9.0800 3.0100 0.8659
9.1000 3.0167 0.8503
9.1200 3.0234 0.8614
9.1400 3.0301 0.8684
9.1600 3.0368 0.8449
9.1800 3.0435 0.8610
9.2000 3.0502 0.8641
9.2200 3.0568 0.8516
9.2400 3.0634 0.8692
9.2600 3.0700 0.8538
9.2800 3.0767 0.8477
9.3000 3.0834 0.8740
9.3200 3.0901 0.8472
9.3400 3.0968 0.8520
9.3600 3.1035 0.8744
9.3800 3.1102 0.8398
9.4000 3.1168 0.8479
9.4200 3.1234 0.8812
9.4400 3.1300 0.8407
9.4600 3.1367 0.8539
9.4800 3.1434 0.8766
9.5000 3.1501 0.8265
9.5200 3.1568 0.8648
9.5400 3.1635 0.8718
9.5600 3.1702 0.8297
9.5800 3.1768 0.8738
9.6000 3.1834 0.8550
9.6200 3.1900 0.8310
9.6400 3.1967 0.8884
9.6600 3.2034 0.8443
9.6800 3.2101 0.8369
9.7000 3.2168 0.8920
9.7200 3.2234 0.8277
9.7400 3.2301 0.8447
9.7600 3.2367 0.8905
9.7800 3.2434 0.8189
9.8000 3.2500 0.8668
9.8200 3.2567 0.8765
9.8400 3.2634 0.8169
9.8600 3.2701 0.8751
9.8800 3.2768 0.8627
9.9000 3.2835 0.8226
9.9200 3.2902 0.8846
9.9400 3.2968 0.8530
9.9600 3.3034 0.8270
9.9800 3.3100 0.8820
10.0000 3.3167 0.8448
10.0200 3.3235 0.8473
10.0400 3.3302 0.8735
10.0600 3.3368 0.8351
10.0800 3.3435 0.8556
10.1000 3.3502 0.8667
10.1200 3.3568 0.8335
10.1400 3.3634 0.8642
10.1600 3.3700 0.8634
10.1800 3.3767 0.8349
10.2000 3.3834 0.8701
10.2200 3.3901 0.8528
10.2400 3.3967 0.8367
10.2600 3.4034 0.8765
10.2800 3.4101 0.8424
10.3000 3.4168 0.8450
10.3200 3.4234 0.8730
10.3400 3.4300 0.8404
10.3600 3.4367 0.8539
10.3800 3.4434 0.8658
10.4000 3.4501 0.8410
10.4200 3.4568 0.8592
10.4400 3.4634 0.8630
10.4600 3.4701 0.8342
10.4800 3.4768 0.8627
10.5000 3.4834 0.8581
10.5200 3.4900 0.8309
10.5400 3.4967 0.8649
10.5600 3.5034 0.8548
10.5800 3.5101 0.8384
10.6000 3.5168 0.8657
10.6200 3.5235 0.8468
10.6400 3.5302 0.8403
10.6600 3.5368 0.8604
10.6800 3.5434 0.8512
10.7000 3.5500 0.8503
10.7200 3.5567 0.8620
10.7400 3.5634 0.8395
10.7600 3.5701 0.8492
10.7800 3.5768 0.8590
10.8000 3.5835 0.8440
10.8200 3.5902 0.8549
10.8400 3.5968 0.8462
10.8600 3.6034 0.8501
10.8800 3.6100 0.8502
10.9000 3.6167 0.8487
10.9200 3.6234 0.8553
10.9400 3.6301 0.8475
10.9600 3.6368 0.8378
10.9800 3.6435 0.8615
11.0000 3.6501 0.8475
11.0200 3.6568 0.8397
11.0400 3.6634 0.8600
11.0600 3.6700 0.8473
11.0800 3.6767 0.8399
11.1000 3.6834 0.8622
11.1200 3.6901 0.8367
11.1400 3.6968 0.8464
11.1600 3.7034 0.8638
11.1800 3.7101 0.8277
11.2000 3.7168 0.8467
11.2200 3.7234 0.8577
11.2400 3.7300 0.8311
11.2600 3.7367 0.8479
11.2800 3.7434 0.8571
11.3000 3.7501 0.8303
11.3200 3.7568 0.8525
11.3400 3.7635 0.8509
11.3600 3.7702 0.8295
11.3800 3.7769 0.8530
11.4000 3.7834 0.8443
11.4200 3.7900 0.8351
11.4400 3.7967 0.8569
11.4600 3.8034 0.8317
11.4800 3.8102 0.8413
11.5000 3.8168 0.8522
11.5200 3.8235 0.8373
11.5400 3.8301 0.8429
11.5600 3.8368 0.8465
11.5800 3.8434 0.8418
11.6000 3.8500 0.8419
11.6200 3.8567 0.8368
11.6400 3.8634 0.8465
11.6600 3.8701 0.8439
11.6800 3.8767 0.8275
11.7000 3.8834 0.8483
11.7200 3.8901 0.8436
11.7400 3.8968 0.8285
11.7600 3.9034 0.8475
11.7800 3.9100 0.8404
11.8000 3.9166 0.8287
11.8200 3.9233 0.8534
11.8400 3.9301 0.8294
11.8600 3.9368 0.8374
11.8800 3.9434 0.8519
11.9000 3.9501 0.8210
11.9200 3.9568 0.8338
11.9400 3.9634 0.8570
11.9600 3.9700 0.8242
11.9800 3.9767 0.8376
12.0000 3.9834 0.8527
12.0200 3.9901 0.8215
12.0400 3.9968 0.8392
12.0600 4.0035 0.8533
12.0800 4.0102 0.8194
12.1000 4.0168 0.8350
12.1200 4.0235 0.8456
12.1400 4.0301 0.8265
12.1600 4.0368 0.8413
12.1800 4.0434 0.8441
12.2000 4.0501 0.8258
12.2200 4.0568 0.8348
12.2400 4.0635 0.8438
12.2600 4.0702 0.8275
12.2800 4.0769 0.8382
12.3000 4.0835 0.8352
12.3200 4.0900 0.8365
12.3400 4.0967 0.8370
12.3600 4.1034 0.8380
12.3800 4.1101 0.8324
12.4000 4.1168 0.8386
12.4200 4.1235 0.8365
12.4400 4.1301 0.8340
12.4600 4.1368 0.8359
12.4800 4.1434 0.8381
12.5000 4.1500 0.8326
12.5200 4.1567 0.8331
12.5400 4.1634 0.8399
12.5600 4.1701 0.8311
12.5800 4.1768 0.8336
12.6000 4.1834 0.8389
12.6200 4.1901 0.8273
12.6400 4.1968 0.8336
12.6600 4.2034 0.8409
12.6800 4.2101 0.8295
12.7000 4.2167 0.8378
12.7200 4.2234 0.8358
12.7400 4.2301 0.8275
12.7600 4.2368 0.8340
12.7800 4.2435 0.8380
12.8000 4.2502 0.8308
12.8200 4.2569 0.8340
12.8400 4.2635 0.8300
12.8600 4.2701 0.8299
12.8800 4.2767 0.8335
12.9000 4.2834 0.8345
12.9200 4.2901 0.8328
12.9400 4.2968 0.8302
12.9600 4.3035 0.8299
12.9800 4.3102 0.8341
13.0000 4.3168 0.8270
13.0200 4.3234 0.8310
13.0400 4.3301 0.8356
13.0600 4.3367 0.8271
13.0800 4.3434 0.8334
13.1000 4.3501 0.8305
13.1200 4.3568 0.8242
13.1400 4.3635 0.8321
13.1600 4.3701 0.8389
13.1800 4.3768 0.8185
13.2000 4.3834 0.8338
13.2200 4.3900 0.8391
13.2400 4.3967 0.8210
13.2600 4.4033 0.8319
13.2800 4.4101 0.8336
13.3000 4.4168 0.8183
13.3200 4.4235 0.8337
13.3400 4.4302 0.8352
13.3600 4.4368 0.8149
13.3800 4.4434 0.8314
13.4000 4.4500 0.8332
13.4200 4.4567 0.8178
13.4400 4.4634 0.8373
13.4600 4.4701 0.8289
13.4800 4.4768 0.8127
13.5000 4.4835 0.8407
13.5200 4.4902 0.8243
13.5400 4.4969 0.8150
13.5600 4.5035 0.8379
13.5800 4.5101 0.8234
13.6000 4.5167 0.8178
13.6200 4.5234 0.8359
13.6400 4.5301 0.8220
13.6600 4.5368 0.8227
13.6800 4.5435 0.8306
13.7000 4.5501 0.8241
13.7200 4.5568 0.8213
13.7400 4.5634 0.8308
13.7600 4.5700 0.8209
13.7800 4.5767 0.8265
13.8000 4.5834 0.8331
13.8200 4.5901 0.8188
13.8400 4.5968 0.8227
13.8600 4.6035 0.8321
13.8800 4.6102 0.8205
13.9000 4.6168 0.8205
13.9200 4.6234 0.8272
13.9400 4.6300 0.8246
13.9600 4.6367 0.8275
13.9800 4.6433 0.8184
14.0000 4.6501 0.8220
14.0200 4.6568 0.8237
14.0400 4.6634 0.8211
14.0600 4.6701 0.8207
14.0800 4.6768 0.8236
14.1000 4.6834 0.8168
14.1200 4.6900 0.8206
14.1400 4.6967 0.8200
14.1600 4.7034 0.8196
14.1800 4.7101 0.8262
14.2000 4.7168 0.8180
14.2200 4.7235 0.8173
14.2400 4.7302 0.8328
14.2600 4.7368 0.8203
14.2800 4.7435 0.8143
14.3000 4.7501 0.8287
14.3200 4.7567 0.8160
14.3400 4.7634 0.8201
14.3600 4.7701 0.8235
14.3800 4.7768 0.8170
14.4000 4.7835 0.8245
14.4200 4.7902 0.8231
14.4400 4.7968 0.8146
14.4600 4.8035 0.8274
14.4800 4.8100 0.8183
14.5000 4.8167 0.8163
14.5200 4.8234 0.8240
14.5400 4.8301 0.8195
14.5600 4.8368 0.8172
14.5800 4.8434 0.8269
14.6000 4.8501 0.8135
14.6200 4.8568 0.8204
14.6400 4.8634 0.8208
14.6600 4.8700 0.8179
14.6800 4.8767 0.8226
14.7000 4.8834 0.8181
14.7200 4.8901 0.8179
14.7400 4.8967 0.8205
14.7600 4.9034 0.8156
14.7800 4.9101 0.8235
14.8000 4.9168 0.8261
14.8200 4.9234 0.8084
14.8400 4.9301 0.8232
14.8600 4.9367 0.8250
14.8800 4.9434 0.8094
14.9000 4.9501 0.8194
14.9200 4.9568 0.8233
14.9400 4.9635 0.8084
14.9600 4.9702 0.8214
14.9800 4.9768 0.8163
15.0000 4.9835 0.8074
15.0200 4.9900 0.8227
15.0400 4.9967 0.8220
15.0600 5.0034 0.8035
15.0800 5.0101 0.8256
15.1000 5.0168 0.8179
15.1200 5.0235 0.8024
15.1400 5.0301 0.8264
15.1600 5.0368 0.8146
15.1800 5.0435 0.8044
15.2000 5.0501 0.8242
15.2200 5.0567 0.8112
15.2400 5.0634 0.8063
15.2600 5.0701 0.8296
15.2800 5.0767 0.8106
15.3000 5.0834 0.8069
15.3200 5.0901 0.8271
15.3400 5.0968 0.8095
15.3600 5.1035 0.8038
15.3800 5.1101 0.8269
15.4000 5.1167 0.8075
15.4200 5.1233 0.8108
15.4400 5.1300 0.8194
15.4600 5.1367 0.8055
15.4800 5.1434 0.8128
15.5000 5.1501 0.8211
15.5200 5.1568 0.8043
15.5400 5.1634 0.8110
15.5600 5.1700 0.8201
15.5800 5.1767 0.8053
15.6000 5.1834 0.8129
15.6200 5.1901 0.8199
15.6400 5.1968 0.8032
15.6600 5.2035 0.8027
15.6800 5.2102 0.8222
15.7000 5.2168 0.8096
15.7200 5.2235 0.8018
15.7400 5.2301 0.8149
15.7600 5.2368 0.8139
15.7800 5.2434 0.8069
15.8000 5.2501 0.8167
15.8200 5.2568 0.8075
15.8400 5.2635 0.8104
15.8600 5.2702 0.8191
15.8800 5.2768 0.8036
15.9000 5.2835 0.8031
15.9200 5.2901 0.8186
15.9400 5.2967 0.8078
15.9600 5.3033 0.8067
15.9800 5.3100 0.8149
16.0000 5.3168 0.8104
16.0200 5.3234 0.8020
16.0400 5.3301 0.8120
16.0600 5.3368 0.8143
16.0800 5.3434 0.8036
16.1000 5.3500 0.8071
16.1200 5.3567 0.8101
16.1400 5.3634 0.8036
16.1600 5.3701 0.8078
16.1800 5.3768 0.8108
16.2000 5.3835 0.8000
16.2200 5.3901 0.8084
16.2400 5.3968 0.8123
16.2600 5.4035 0.7982
16.2800 5.4101 0.8070
16.3000 5.4167 0.8148
16.3200 5.4234 0.7930
16.3400 5.4301 0.8119
16.3600 5.4368 0.8140
16.3800 5.4435 0.7938
16.4000 5.4502 0.8138
16.4200 5.4569 0.8099
16.4400 5.4635 0.7875
16.4600 5.4701 0.8166
16.4800 5.4767 0.8101
16.5000 5.4833 0.7882
16.5200 5.4900 0.8167
16.5400 5.4968 0.8050
16.5600 5.5035 0.7880
16.5800 5.5102 0.8193
16.6000 5.5168 0.8033
16.6200 5.5235 0.7856
16.6400 5.5300 0.8253
16.6600 5.5367 0.7982
16.6800 5.5433 0.7900
16.7000 5.5501 0.8233
16.7200 5.5568 0.7939
16.7400 5.5634 0.7863
16.7600 5.5701 0.8251
16.7800 5.5768 0.7895
16.8000 5.5835 0.7935
16.8200 5.5901 0.8138
16.8400 5.5967 0.7889
16.8600 5.6033 0.8016
16.8800 5.6100 0.8171
16.9000 5.6167 0.7842
16.9200 5.6234 0.8025
16.9400 5.6301 0.8149
16.9600 5.6368 0.7831
16.9800 5.6435 0.8034
17.0000 5.6501 0.8087
17.0200 5.6567 0.7921
17.0400 5.6634 0.8013
17.0600 5.6701 0.8033
17.0800 5.6768 0.7949
17.1000 5.6835 0.8025
17.1200 5.6902 0.7963
17.1400 5.6968 0.8051
17.1600 5.7035 0.8001
17.1800 5.7101 0.7946
17.2000 5.7167 0.8035
17.2200 5.7234 0.8029
17.2400 5.7301 0.7891
17.2600 5.7368 0.8039
17.2800 5.7435 0.7981
17.3000 5.7501 0.7941
17.3200 5.7568 0.8031
17.3400 5.7635 0.7896
17.3600 5.7701 0.7944
17.3800 5.7767 0.8031
17.4000 5.7834 0.7899
17.4200 5.7900 0.7957
17.4400 5.7967 0.8043
17.4600 5.8034 0.7850
17.4800 5.8101 0.7975
17.5000 5.8168 0.8005
17.5200 5.8235 0.7855
17.5400 5.8301 0.7954
17.5600 5.8366 0.8024
17.5800 5.8433 0.7856
17.6000 5.8500 0.8004
17.6200 5.8567 0.7946
17.6400 5.8634 0.7878
17.6600 5.8701 0.7983
17.6800 5.8767 0.7979
17.7000 5.8834 0.7897
17.7200 5.8901 0.7954
17.7400 5.8967 0.7949
17.7600 5.9034 0.7895
17.7800 5.9101 0.7981
17.8000 5.9168 0.7925
17.8200 5.9235 0.7924
17.8400 5.9301 0.7957
17.8600 5.9369 0.7851
17.8800 5.9435 0.7923
17.9000 5.9502 0.7984
17.9200 5.9568 0.7881
17.9400 5.9634 0.7923
17.9600 5.9701 0.7932
17.9800 5.9768 0.7935
18.0000 5.9835 0.7915
18.0200 5.9902 0.7893
18.0400 5.9969 0.7910
18.0600 6.0035 0.7893
18.0800 6.0101 0.7872
18.1000 6.0167 0.7939
18.1200 6.0233 0.7942
18.1400 6.0300 0.7898
18.1600 6.0368 0.7878
18.1800 6.0435 0.7918
18.2000 6.0501 0.7903
18.2200 6.0568 0.7923
18.2400 6.0635 0.7893
18.2600 6.0701 0.7859
18.2800 6.0767 0.7918
18.3000 6.0834 0.7880
18.3200 6.0900 0.7907
18.3400 6.0968 0.7849
18.3600 6.1034 0.7878
18.3800 6.1101 0.7853
18.4000 6.1168 0.7849
18.4200 6.1235 0.7894
18.4400 6.1301 0.7875
18.4600 6.1367 0.7820
18.4800 6.1433 0.7873
18.5000 6.1500 0.7851
18.5200 6.1568 0.7856
18.5400 6.1635 0.7849
18.5600 6.1702 0.7848
18.5800 6.1769 0.7809
18.6000 6.1835 0.7856
18.6200 6.1901 0.7839
18.6400 6.1967 0.7820
18.6600 6.2034 0.7929
18.6800 6.2101 0.7798
18.7000 6.2168 0.7804
18.7200 6.2235 0.7921
18.7400 6.2302 0.7776
18.7600 6.2368 0.7797
18.7800 6.2435 0.7938
18.8000 6.2501 0.7694
18.8200 6.2567 0.7808
18.8400 6.2634 0.7916
18.8600 6.2701 0.7765
18.8800 6.2768 0.7779
18.9000 6.2834 0.7883
18.9200 6.2901 0.7699
18.9400 6.2968 0.7799
18.9600 6.3035 0.7896
18.9800 6.3101 0.7694
19.0000 6.3167 0.7827
19.0200 6.3233 0.7909
19.0400 6.3300 0.7631
19.0600 6.3367 0.7838
19.0800 6.3434 0.7906
19.1000 6.3501 0.7637
19.1200 6.3568 0.7827
19.1400 6.3635 0.7926
19.1600 6.3701 0.7615
19.1800 6.3767 0.7823
19.2000 6.3834 0.7871
19.2200 6.3901 0.7651
19.2400 6.3968 0.7918
19.2600 6.4035 0.7774
19.2800 6.4102 0.7699
19.3000 6.4168 0.7907
19.3200 6.4235 0.7780
19.3400 6.4301 0.7640
19.3600 6.4367 0.7864
19.3800 6.4434 0.7772
19.4000 6.4500 0.7734
19.4200 6.4567 0.7879
19.4400 6.4634 0.7710
19.4600 6.4701 0.7708
19.4800 6.4768 0.7855
19.5000 6.4835 0.7730
19.5200 6.4901 0.7734
19.5400 6.4967 0.7835
19.5600 6.5033 0.7773
19.5800 6.5100 0.7762
19.6000 6.5167 0.7781
19.6200 6.5234 0.7828
19.6400 6.5301 0.7798
19.6600 6.5368 0.7708
19.6800 6.5435 0.7762
19.7000 6.5501 0.7792
19.7200 6.5567 0.7716
19.7400 6.5633 0.7832
19.7600 6.5700 0.7763
19.7800 6.5767 0.7648
19.8000 6.5834 0.7820
19.8200 6.5901 0.7755
19.8400 6.5967 0.7706
19.8600 6.6034 0.7889
19.8800 6.6101 0.7706
19.9000 6.6167 0.7652
19.9200 6.6234 0.7882
19.9400 6.6300 0.7734
19.9600 6.6367 0.7692
19.9800 6.6434 0.7841
20.0000 6.6501 0.7688
20.0200 6.6568 0.7710
20.0400 6.6635 0.7846
20.0600 6.6702 0.7588
20.0800 6.6768 0.7794
20.1000 6.6834 0.7857
20.1200 6.6901 0.7564
20.1400 6.6968 0.7764
20.1600 6.7035 0.7891
20.1800 6.7102 0.7577
20.2000 6.7168 0.7710
20.2200 6.7235 0.7812
20.2400 6.7301 0.7653
20.2600 6.7367 0.7767
20.2800 6.7433 0.7753
20.3000 6.7500 0.7613
20.3200 6.7567 0.7839
20.3400 6.7634 0.7703
20.3600 6.7701 0.7601
20.3800 6.7767 0.7855
20.4000 6.7834 0.7695
20.4200 6.7901 0.7581
20.4400 6.7967 0.7760
20.4600 6.8033 0.7742
20.4800 6.8100 0.7619
20.5000 6.8167 0.7757
20.5200 6.8234 0.7705
20.5400 6.8301 0.7664
20.5600 6.8368 0.7696
20.5800 6.8435 0.7725
20.6000 6.8501 0.7708
20.6200 6.8568 0.7651
20.6400 6.8634 0.7647
20.6600 6.8701 0.7785
20.6800 6.8768 0.7646
20.7000 6.8835 0.7645
20.7200 6.8902 0.7748
20.7400 6.8968 0.7634
20.7600 6.9035 0.7688
20.7800 6.9102 0.7707
20.8000 6.9167 0.7610
20.8200 6.9234 0.7720
20.8400 6.9300 0.7744
20.8600 6.9368 0.7563
20.8800 6.9435 0.7692
20.9000 6.9501 0.7739
20.9200 6.9568 0.7570
20.9400 6.9635 0.7667
20.9600 6.9702 0.7685
20.9800 6.9768 0.7624
21.0000 6.9834 0.7686
21.0200 6.9901 0.7630
21.0400 6.9967 0.7680
21.0600 7.0034 0.7668
21.0800 7.0101 0.7624
21.1000 7.0168 0.7615
21.1200 7.0235 0.7671
21.1400 7.0302 0.7625
21.1600 7.0368 0.7584
21.1800 7.0433 0.7714
21.2000 7.0500 0.7625
21.2200 7.0567 0.7607
21.2400 7.0634 0.7655
21.2600 7.0701 0.7623
21.2800 7.0768 0.7607
21.3000 7.0834 0.7596
21.3200 7.0901 0.7628
21.3400 7.0967 0.7621
21.3600 7.1033 0.7617
21.3800 7.1100 0.7629
21.4000 7.1167 0.7607
21.4200 7.1234 0.7620
21.4400 7.1301 0.7570
21.4600 7.1368 0.7663
21.4800 7.1435 0.7582
21.5000 7.1502 0.7641
21.5200 7.1568 0.7603
21.5400 7.1634 0.7567
21.5600 7.1700 0.7664
21.5800 7.1767 0.7581
21.6000 7.1834 0.7572
21.6200 7.1901 0.7655
21.6400 7.1968 0.7482
21.6600 7.2035 0.7584
21.6800 7.2102 0.7659
21.7000 7.2168 0.7506
21.7200 7.2233 0.7599
21.7400 7.2300 0.7622
21.7600 7.2367 0.7523
21.7800 7.2435 0.7592
21.8000 7.2502 0.7590
21.8200 7.2568 0.7533
21.8400 7.2635 0.7600
21.8600 7.2701 0.7543
21.8800 7.2767 0.7536
21.9000 7.2833 0.7568
21.9200 7.2900 0.7580
21.9400 7.2967 0.7554
21.9600 7.3034 0.7536
21.9800 7.3101 0.7577
22.0000 7.3167 0.7630
22.0200 7.3234 0.7475
22.0400 7.3301 0.7539
22.0600 7.3368 0.7570
22.0800 7.3434 0.7521
22.1000 7.3500 0.7574
22.1200 7.3567 0.7558
22.1400 7.3634 0.7493
22.1600 7.3701 0.7572
22.1800 7.3768 0.7563
22.2000 7.3835 0.7475
22.2200 7.3902 0.7635
22.2400 7.3968 0.7539
22.2600 7.4034 0.7462
22.2800 7.4100 0.7628
22.3000 7.4168 0.7538
22.3200 7.4235 0.7435
22.3400 7.4302 0.7609
22.3600 7.4368 0.7482
22.3800 7.4435 0.7464
22.4000 7.4501 0.7615
22.4200 7.4568 0.7515
22.4400 7.4634 0.7416
22.4600 7.4700 0.7625
22.4800 7.4767 0.7491
22.5000 7.4834 0.7395
22.5200 7.4901 0.7652
22.5400 7.4968 0.7516
22.5600 7.5035 0.7420
22.5800 7.5101 0.7630
22.6000 7.5168 0.7500
22.6200 7.5234 0.7380
22.6400 7.5300 0.7636
22.6600 7.5367 0.7496
22.6800 7.5434 0.7389
22.7000 7.5501 0.7625
22.7200 7.5568 0.7496
22.7400 7.5635 0.7367
22.7600 7.5702 0.7632
22.7800 7.5768 0.7438
22.8000 7.5834 0.7363
22.8200 7.5900 0.7602
22.8400 7.5967 0.7507
22.8600 7.6034 0.7389
22.8800 7.6101 0.7558
22.9000 7.6168 0.7487
22.9200 7.6235 0.7395
22.9400 7.6302 0.7559
22.9600 7.6368 0.7443
22.9800 7.6434 0.7409
23.0000 7.6501 0.7540
23.0200 7.6568 0.7459
23.0400 7.6634 0.7410
23.0600 7.6701 0.7524
23.0800 7.6768 0.7461
23.1000 7.6835 0.7434
23.1200 7.6902 0.7484
23.1400 7.6968 0.7490
23.1600 7.7034 0.7374
23.1800 7.7100 0.7494
23.2000 7.7167 0.7480
23.2200 7.7234 0.7389
23.2400 7.7301 0.7509
23.2600 7.7368 0.7463
23.2800 7.7435 0.7355
23.3000 7.7501 0.7468
23.3200 7.7568 0.7476
23.3400 7.7633 0.7340
23.3600 7.7700 0.7511
23.3800 7.7767 0.7474
23.4000 7.7834 0.7314
23.4200 7.7901 0.7520
23.4400 7.7967 0.7414
23.4600 7.8034 0.7340
23.4800 7.8101 0.7528
23.5000 7.8168 0.7384
23.5200 7.8234 0.7311
23.5400 7.8300 0.7497
23.5600 7.8367 0.7446
23.5800 7.8434 0.7326
23.6000 7.8501 0.7503
23.6200 7.8568 0.7361
23.6400 7.8635 0.7363
23.6600 7.8702 0.7502
23.6800 7.8768 0.7355
23.7000 7.8834 0.7364
23.7200 7.8900 0.7500
23.7400 7.8967 0.7295
23.7600 7.9034 0.7384
23.7800 7.9102 0.7465
23.8000 7.9168 0.7343
23.8200 7.9235 0.7372
23.8400 7.9302 0.7397
23.8600 7.9368 0.7372
23.8800 7.9434 0.7411
23.9000 7.9500 0.7397
23.9200 7.9567 0.7329
23.9400 7.9634 0.7361
23.9600 7.9701 0.7378
23.9800 7.9768 0.7409
24.0000 7.9835 0.7368
24.0200 7.9902 0.7310
24.0400 7.9968 0.7381
24.0600 8.0034 0.7395
24.0800 8.0100 0.7335
24.1000 8.0167 0.7389
24.1200 8.0234 0.7372
24.1400 8.0301 0.7393
24.1600 8.0368 0.7309
24.1800 8.0434 0.7334
24.2000 8.0501 0.7432
24.2200 8.0568 0.7296
24.2400 8.0634 0.7272
24.2600 8.0700 0.7377
24.2800 8.0767 0.7370
24.3000 8.0834 0.7270
24.3200 8.0901 0.7333
24.3400 8.0968 0.7338
24.3600 8.1035 0.7333
24.3800 8.1102 0.7296
24.4000 8.1168 0.7336
24.4200 8.1234 0.7328
24.4400 8.1300 0.7307
24.4600 8.1367 0.7312
24.4800 8.1435 0.7289
24.5000 8.1502 0.7298
24.5200 8.1569 0.7365
24.5400 8.1635 0.7254
24.5600 8.1702 0.7288
24.5800 8.1768 0.7309
24.6000 8.1834 0.7265
24.6200 8.1900 0.7328
24.6400 8.1967 0.7339
24.6600 8.2034 0.7319
24.6800 8.2101 0.7278
24.7000 8.2168 0.7324
24.7200 8.2235 0.7260
24.7400 8.2301 0.7259
24.7600 8.2368 0.7371
24.7800 8.2434 0.7189
24.8000 8.2500 0.7260
24.8200 8.2567 0.7479
24.8400 8.2634 0.7150
24.8600 8.2701 0.7264
24.8800 8.2768 0.7389
24.9000 8.2834 0.7191
24.9200 8.2901 0.7221
24.9400 8.2968 0.7368
24.9600 8.3034 0.7156
24.9800 8.3100 0.7292
25.0000 8.3167 0.7383
25.0200 8.3234 0.7123
25.0400 8.3301 0.7238
25.0600 8.3368 0.7372
25.0800 8.3435 0.7180
25.1000 8.3502 0.7242
25.1200 8.3568 0.7342
25.1400 8.3634 0.7175
25.1600 8.3700 0.7261
25.1800 8.3767 0.7310
25.2000 8.3834 0.7176
25.2200 8.3901 0.7250
25.2400 8.3968 0.7311
25.2600 8.4035 0.7143
25.2800 8.4102 0.7300
25.3000 8.4168 0.7276
25.3200 8.4234 0.7148
25.3400 8.4300 0.7272
25.3600 8.4367 0.7294
25.3800 8.4434 0.7189
25.4000 8.4501 0.7239
25.4200 8.4568 0.7316
25.4400 8.4635 0.7224
25.4600 8.4701 0.7198
25.4800 8.4768 0.7276
25.5000 8.4834 0.7159
25.5200 8.4900 0.7210
25.5400 8.4966 0.7299
25.5600 8.5033 0.7204
25.5800 8.5100 0.7223
25.6000 8.5167 0.7215
25.6200 8.5234 0.7181
25.6400 8.5301 0.7190
25.6600 8.5368 0.7266
25.6800 8.5434 0.7214
25.7000 8.5500 0.7148
25.7200 8.5567 0.7182
25.7400 8.5634 0.7187
25.7600 8.5701 0.7136
25.7800 8.5768 0.7239
25.8000 8.5835 0.7211
25.8200 8.5902 0.7139
25.8400 8.5969 0.7194
25.8600 8.6034 0.7237
25.8800 8.6100 0.7172
25.9000 8.6167 0.7255
25.9200 8.6234 0.7185
25.9400 8.6302 0.7120
25.9600 8.6368 0.7237
25.9800 8.6435 0.7199
26.0000 8.6502 0.7124
26.0200 8.6568 0.7172
26.0400 8.6634 0.7234
26.0600 8.6700 0.7097
26.0800 8.6767 0.7194
26.1000 8.6834 0.7234
26.1200 8.6901 0.7118
26.1400 8.6968 0.7158
26.1600 8.7034 0.7252
26.1800 8.7101 0.7097
26.2000 8.7168 0.7145
26.2200 8.7234 0.7208
26.2400 8.7300 0.7129
26.2600 8.7366 0.7093
26.2800 8.7433 0.7247
26.3000 8.7501 0.7090
26.3200 8.7567 0.7087
26.3400 8.7634 0.7264
26.3600 8.7701 0.7078
26.3800 8.7768 0.7054
26.4000 8.7834 0.7244
26.4200 8.7900 0.7107
26.4400 8.7967 0.7077
26.4600 8.8034 0.7239
26.4800 8.8101 0.7094
26.5000 8.8168 0.7104
26.5200 8.8235 0.7223
26.5400 8.8302 0.7086
26.5600 8.8369 0.7043
26.5800 8.8435 0.7241
26.6000 8.8501 0.7069
26.6200 8.8567 0.7097
26.6400 8.8634 0.7204
26.6600 8.8701 0.7047
26.6800 8.8768 0.7117
26.7000 8.8835 0.7203
26.7200 8.8902 0.7032
26.7400 8.8969 0.7089
26.7600 8.9035 0.7172
26.7800 8.9100 0.7043
26.8000 8.9167 0.7096
26.8200 8.9234 0.7176
26.8400 8.9301 0.7026
26.8600 8.9368 0.7078
26.8800 8.9435 0.7192
26.9000 8.9501 0.7020
26.9200 8.9568 0.7011
26.9400 8.9634 0.7145
26.9600 8.9700 0.7082
26.9800 8.9766 0.7049
27.0000 8.9834 0.7168
27.0200 8.9901 0.6986
27.0400 8.9968 0.7089
27.0600 9.0034 0.7191
27.0800 9.0101 0.6986
27.1000 9.0168 0.7016
27.1200 9.0234 0.7197
27.1400 9.0301 0.7031
27.1600 9.0367 0.7005
27.1800 9.0434 0.7149
27.2000 9.0501 0.7050
27.2200 9.0568 0.6992
27.2400 9.0635 0.7120
27.2600 9.0702 0.7072
27.2800 9.0769 0.6995
27.3000 9.0835 0.7109
27.3200 9.0901 0.7055
27.3400 9.0967 0.7012
27.3600 9.1034 0.7152
27.3800 9.1101 0.7025
27.4000 9.1168 0.6975
27.4200 9.1235 0.7184
27.4400 9.1302 0.7001
27.4600 9.1368 0.6977
27.4800 9.1434 0.7096
27.5000 9.1500 0.6994
27.5200 9.1567 0.6984
27.5400 9.1634 0.7134
27.5600 9.1701 0.7015
27.5800 9.1768 0.6962
27.6000 9.1835 0.7077
27.6200 9.1901 0.6981
27.6400 9.1968 0.7011
27.6600 9.2034 0.7108
27.6800 9.2100 0.6976
27.7000 9.2166 0.6971
27.7200 9.2233 0.7095
27.7400 9.2300 0.7000
27.7600 9.2367 0.6974
27.7800 9.2434 0.7123
27.8000 9.2501 0.6988
27.8200 9.2568 0.6913
27.8400 9.2634 0.7101
27.8600 9.2700 0.7014
27.8800 9.2767 0.6955
27.9000 9.2834 0.7092
27.9200 9.2901 0.7030
27.9400 9.2968 0.6931
27.9600 9.3035 0.7083
27.9800 9.3102 0.7011
28.0000 9.3169 0.6928
28.0200 9.3235 0.7027
28.0400 9.3301 0.7008
28.0600 9.3367 0.6952
28.0800 9.3434 0.7028
28.1000 9.3501 0.6974
28.1200 9.3568 0.6965
28.1400 9.3635 0.7064
28.1600 9.3701 0.6957
28.1800 9.3768 0.6912
28.2000 9.3835 0.7019
28.2200 9.3901 0.6998
28.2400 9.3967 0.6918
28.2600 9.4033 0.7045
28.2800 9.4101 0.6973
28.3000 9.4168 0.6900
28.3200 9.4235 0.6995
28.3400 9.4301 0.6984
28.3600 9.4368 0.6867
28.3800 9.4435 0.7051
28.4000 9.4500 0.6917
28.4200 9.4567 0.6869
28.4400 9.4633 0.7091
28.4600 9.4701 0.6904
28.4800 9.4768 0.6883
28.5000 9.4834 0.7045
28.5200 9.4901 0.6880
28.5400 9.4968 0.6858
28.5600 9.5034 0.7008
28.5800 9.5101 0.6894
28.6000 9.5167 0.6897
28.6200 9.5234 0.7029
28.6400 9.5301 0.6869
28.6600 9.5368 0.6863
28.6800 9.5435 0.7020
28.7000 9.5501 0.6859
28.7200 9.5568 0.6894
28.7400 9.5635 0.6945
28.7600 9.5701 0.6912
28.7800 9.5767 0.6889
28.8000 9.5834 0.6924
28.8200 9.5901 0.6905
28.8400 9.5968 0.6899
28.8600 9.6035 0.6872
28.8800 9.6102 0.6908
28.9000 9.6169 0.6849
28.9200 9.6235 0.6881
28.9400 9.6301 0.6975
28.9600 9.6367 0.6864
28.9800 9.6433 0.6884
29.0000 9.6500 0.6984
29.0200 9.6567 0.6830
29.0400 9.6634 0.6848
29.0600 9.6701 0.6985
29.0800 9.6768 0.6816
29.1000 9.6835 0.6846
29.1200 9.6901 0.6945
29.1400 9.6967 0.6828
29.1600 9.7033 0.6874
29.1800 9.7101 0.6993
29.2000 9.7168 0.6751
29.2200 9.7234 0.6901
29.2400 9.7301 0.6978
29.2600 9.7368 0.6786
29.2800 9.7435 0.6889
29.3000 9.7501 0.6913
29.3200 9.7567 0.6772
29.3400 9.7634 0.6933
29.3600 9.7701 0.6894
29.3800 9.7768 0.6802
29.4000 9.7835 0.6949
29.4200 9.7902 0.6840
29.4400 9.7969 0.6815
29.4600 9.8035 0.6909
29.4800 9.8101 0.6848
29.5000 9.8167 0.6841
29.5200 9.8234 0.6848
29.5400 9.8301 0.6873
29.5600 9.8368 0.6851
29.5800 9.8435 0.6828
29.6000 9.8502 0.6860
29.6200 9.8568 0.6892
29.6400 9.8635 0.6864
29.6600 9.8701 0.6782
29.6800 9.8767 0.6926
29.7000 9.8834 0.6847
29.7200 9.8901 0.6851
29.7400 9.8968 0.6870
29.7600 9.9034 0.6782
29.7800 9.9101 0.6880
29.8000 9.9168 0.6854
29.8200 9.9234 0.6723
29.8400 9.9300 0.6898
29.8600 9.9366 0.6887
29.8800 9.9433 0.6716
29.9000 9.9500 0.6895
29.9200 9.9567 0.6880
29.9400 9.9634 0.6722
29.9600 9.9701 0.6895
29.9800 9.9768 0.6858
30.0000 9.9834 0.6656
30.0200 9.9901 0.6922
30.0400 9.9967 0.6828
30.0600 10.0034 0.6690
30.0800 10.0101 0.6866
30.1000 10.0168 0.6825
30.1200 10.0235 0.6704
30.1400 10.0301 0.6941
30.1600 10.0368 0.6778
30.1800 10.0435 0.6669
30.2000 10.0501 0.6947
30.2200 10.0567 0.6785
30.2400 10.0634 0.6686
30.2600 10.0701 0.6933
30.2800 10.0768 0.6733
30.3000 10.0835 0.6718
30.3200 10.0902 0.6869
30.3400 10.0968 0.6757
30.3600 10.1035 0.6726
30.3800 10.1101 0.6848
30.4000 10.1167 0.6775
30.4200 10.1233 0.6707
30.4400 10.1300 0.6890
30.4600 10.1367 0.6702
30.4800 10.1434 0.6698
30.5000 10.1501 0.6839
30.5200 10.1568 0.6736
30.5400 10.1634 0.6675
30.5600 10.1700 0.6863
30.5800 10.1767 0.6772
30.6000 10.1834 0.6658
30.6200 10.1901 0.6803
30.6400 10.1968 0.6786
30.6600 10.2035 0.6674
30.6800 10.2101 0.6784
30.7000 10.2168 0.6817
30.7200 10.2235 0.6657
30.7400 10.2301 0.6781
30.7600 10.2367 0.6810
30.7800 10.2434 0.6662
30.8000 10.2501 0.6743
30.8200 10.2568 0.6795
30.8400 10.2635 0.6655
30.8600 10.2702 0.6759
30.8800 10.2768 0.6757
30.9000 10.2835 0.6679
30.9200 10.2901 0.6756
30.9400 10.2967 0.6747
30.9600 10.3033 0.6658
30.9800 10.3101 0.6764
31.0000 10.3168 0.6739
31.0200 10.3235 0.6667
31.0400 10.3302 0.6680
31.0600 10.3368 0.6752
31.0800 10.3435 0.6643
31.1000 10.3501 0.6736
31.1200 10.3567 0.6759
31.1400 10.3633 0.6630
31.1600 10.3700 0.6708
31.1800 10.3768 0.6730
31.2000 10.3834 0.6631
31.2200 10.3901 0.6726
31.2400 10.3968 0.6732
31.2600 10.4034 0.6602
31.2800 10.4101 0.6708
31.3000 10.4167 0.6715
31.3200 10.4234 0.6610
31.3400 10.4300 0.6677
31.3600 10.4367 0.6728
31.3800 10.4434 0.6608
31.4000 10.4501 0.6712
31.4200 10.4568 0.6676
31.4400 10.4635 0.6635
31.4600 10.4701 0.6656
31.4800 10.4767 0.6728
31.5000 10.4833 0.6599
31.5200 10.4900 0.6674
31.5400 10.4968 0.6700
31.5600 10.5035 0.6597
31.5800 10.5102 0.6662
31.6000 10.5168 0.6678
31.6200 10.5235 0.6593
31.6400 10.5301 0.6627
31.6600 10.5367 0.6687
31.6800 10.5434 0.6568
31.7000 10.5501 0.6602
31.7200 10.5568 0.6654
31.7400 10.5635 0.6544
31.7600 10.5702 0.6644
31.7800 10.5768 0.6678
31.8000 10.5835 0.6520
31.8200 10.5901 0.6656
31.8400 10.5967 0.6639
31.8600 10.6034 0.6569
31.8800 10.6100 0.6622
31.9000 10.6167 0.6651
31.9200 10.6234 0.6541
31.9400 10.6301 0.6624
31.9600 10.6368 0.6629
31.9800 10.6435 0.6536
32.0000 10.6501 0.6611
32.0200 10.6567 0.6696
32.0400 10.6633 0.6611
32.0600 10.6700 0.6557
32.0800 10.6767 0.6645
32.1000 10.6834 0.6578
32.1200 10.6901 0.6568
32.1400 10.6968 0.6677
32.1600 10.7035 0.6586
32.1800 10.7101 0.6521
32.2000 10.7167 0.6681
32.2200 10.7234 0.6603
32.2400 10.7301 0.6494
32.2600 10.7368 0.6645
32.2800 10.7435 0.6638
32.3000 10.7501 0.6481
32.3200 10.7568 0.6688
32.3400 10.7635 0.6555
32.3600 10.7702 0.6480
32.3800 10.7768 0.6727
32.4000 10.7834 0.6595
32.4200 10.7901 0.6481
32.4400 10.7968 0.6719
32.4600 10.8035 0.6567
32.4800 10.8101 0.6468
32.5000 10.8168 0.6756
32.5200 10.8235 0.6539
32.5400 10.8301 0.6498
32.5600 10.8367 0.6708
32.5800 10.8433 0.6538
32.6000 10.8500 0.6496
32.6200 10.8567 0.6719
32.6400 10.8634 0.6558
32.6600 10.8701 0.6527
32.6800 10.8768 0.6681
32.7000 10.8835 0.6507
32.7200 10.8901 0.6551
32.7400 10.8967 0.6672
32.7600 10.9033 0.6506
32.7800 10.9100 0.6580
32.8000 10.9167 0.6648
32.8200 10.9234 0.6504
32.8400 10.9301 0.6596
32.8600 10.9368 0.6656
32.8800 10.9435 0.6506
32.9000 10.9501 0.6537
32.9200 10.9567 0.6625
32.9400 10.9634 0.6521
32.9600 10.9700 0.6575
32.9800 10.9767 0.6628
33.0000 10.9835 0.6471
33.0200 10.9901 0.6539
33.0400 10.9968 0.6609
33.0600 11.0035 0.6488
33.0800 11.0101 0.6589
33.1000 11.0167 0.6581
33.1200 11.0234 0.6531
33.1400 11.0301 0.6585
33.1600 11.0368 0.6595
33.1800 11.0435 0.6480
33.2000 11.0502 0.6598
33.2200 11.0568 0.6582
33.2400 11.0635 0.6492
33.2600 11.0702 0.6596
33.2800 11.0767 0.6538
33.3000 11.0834 0.6509
33.3200 11.0900 0.6589
33.3400 11.0967 0.6475
33.3600 11.1034 0.6535
33.3800 11.1101 0.6581
33.4000 11.1168 0.6493
33.4200 11.1235 0.6517
33.4400 11.1301 0.6569
33.4600 11.1367 0.6489
33.4800 11.1433 0.6490
33.5000 11.1500 0.6637
33.5200 11.1567 0.6397
33.5400 11.1634 0.6484
33.5600 11.1701 0.6583
33.5800 11.1768 0.6453
33.6000 11.1835 0.6521
33.6200 11.1901 0.6493
33.6400 11.1967 0.6470
33.6600 11.2034 0.6585
33.6800 11.2101 0.6492
33.7000 11.2168 0.6483
33.7200 11.2235 0.6573
33.7400 11.2302 0.6494
33.7600 11.2369 0.6418
33.7800 11.2435 0.6561
33.8000 11.2501 0.6453
33.8200 11.2567 0.6402
33.8400 11.2634 0.6589
33.8600 11.2700 0.6430
33.8800 11.2767 0.6409
33.9000 11.2834 0.6577
33.9200 11.2901 0.6425
33.9400 11.2968 0.6408
33.9600 11.3035 0.6590
33.9800 11.3102 0.6412
34.0000 11.3168 0.6410
34.0200 11.3234 0.6540
34.0400 11.3300 0.6409
34.0600 11.3367 0.6402
34.0800 11.3434 0.6589
34.1000 11.3501 0.6395
34.1200 11.3568 0.6427
34.1400 11.3635 0.6527
34.1600 11.3702 0.6378
34.1800 11.3767 0.6419
34.2000 11.3833 0.6531
34.2200 11.3900 0.6417
34.2400 11.3967 0.6406
34.2600 11.4034 0.6485
34.2800 11.4101 0.6352
34.3000 11.4168 0.6445
34.3200 11.4234 0.6476
34.3400 11.4301 0.6356
34.3600 11.4367 0.6457
34.3800 11.4434 0.6455
34.4000 11.4500 0.6371
34.4200 11.4567 0.6418
34.4400 11.4634 0.6450
34.4600 11.4701 0.6425
34.4800 11.4768 0.6393
34.5000 11.4835 0.6456
34.5200 11.4902 0.6417
34.5400 11.4968 0.6396
34.5600 11.5034 0.6467
34.5800 11.5100 0.6419
34.6000 11.5167 0.6378
34.6200 11.5235 0.6449
34.6400 11.5302 0.6403
34.6600 11.5368 0.6331
34.6800 11.5435 0.6468
34.7000 11.5501 0.6443
34.7200 11.5567 0.6300
34.7400 11.5633 0.6430
34.7600 11.5700 0.6431
34.7800 11.5767 0.6302
34.8000 11.5834 0.6432
34.8200 11.5901 0.6423
34.8400 11.5968 0.6290
34.8600 11.6035 0.6409
34.8800 11.6101 0.6396
34.9000 11.6167 0.6310
34.9200 11.6233 0.6442
34.9400 11.6300 0.6375
34.9600 11.6367 0.6301
34.9800 11.6434 0.6389
35.0000 11.6501 0.6397
35.0200 11.6568 0.6262
35.0400 11.6635 0.6435
35.0600 11.6702 0.6364
35.0800 11.6768 0.6279
35.1000 11.6834 0.6431
35.1200 11.6901 0.6385
35.1400 11.6968 0.6245
35.1600 11.7034 0.6380
35.1800 11.7101 0.6375
35.2000 11.7168 0.6256
35.2200 11.7235 0.6405
35.2400 11.7302 0.6334
35.2600 11.7368 0.6290
35.2800 11.7434 0.6375
35.3000 11.7500 0.6373
35.3200 11.7567 0.6281
35.3400 11.7634 0.6361
35.3600 11.7701 0.6339
35.3800 11.7768 0.6203
35.4000 11.7835 0.6394
35.4200 11.7902 0.6381
35.4400 11.7968 0.6153
35.4600 11.8034 0.6389
35.4800 11.8101 0.6375
35.5000 11.8167 0.6189
35.5200 11.8234 0.6417
35.5400 11.8301 0.6324
35.5600 11.8368 0.6168
35.5800 11.8435 0.6397
35.6000 11.8502 0.6327
35.6200 11.8568 0.6171
35.6400 11.8634 0.6418
35.6600 11.8700 0.6304
35.6800 11.8767 0.6195
35.7000 11.8834 0.6351
35.7200 11.8901 0.6317
35.7400 11.8968 0.6206
35.7600 11.9035 0.6356
35.7800 11.9101 0.6256
35.8000 11.9168 0.6207
35.8200 11.9234 0.6369
35.8400 11.9300 0.6285
35.8600 11.9367 0.6181
35.8800 11.9434 0.6326
35.9000 11.9501 0.6302
35.9200 11.9568 0.6234
35.9400 11.9635 0.6297
35.9600 11.9702 0.6283
35.9800 11.9768 0.6218
36.0000 11.9834 0.6269
36.0200 11.9900 0.6307
36.0400 11.9967 0.6212
36.0600 12.0034 0.6291
36.0800 12.0101 0.6291
36.1000 12.0168 0.6208
36.1200 12.0235 0.6244
36.1400 12.0302 0.6308
36.1600 12.0368 0.6173
36.1800 12.0434 0.6250
36.2000 12.0500 0.6327
36.2200 12.0567 0.6211
36.2400 12.0634 0.6222
36.2600 12.0701 0.6264
36.2800 12.0768 0.6203
36.3000 12.0835 0.6255
36.3200 12.0901 0.6276
36.3400 12.0968 0.6216
36.3600 12.1034 0.6258
36.3800 12.1100 0.6246
36.4000 12.1167 0.6230
36.4200 12.1234 0.6258
36.4400 12.1301 0.6248
36.4600 12.1368 0.6198
36.4800 12.1435 0.6215
36.5000 12.1501 0.6247
36.5200 12.1568 0.6205
36.5400 12.1634 0.6218
36.5600 12.1701 0.6248
36.5800 12.1767 0.6207
36.6000 12.1834 0.6207
36.6200 12.1901 0.6253
36.6400 12.1968 0.6235
36.6600 12.2035 0.6176
36.6800 12.2102 0.6266
36.7000 12.2168 0.6230
36.7200 12.2234 0.6174
36.7400 12.2300 0.6248
36.7600 12.2367 0.6259
36.7800 12.2435 0.6145
36.8000 12.2502 0.6260
36.8200 12.2568 0.6209
36.8400 12.2635 0.6166
36.8600 12.2701 0.6293
36.8800 12.2768 0.6160
36.9000 12.2834 0.6204
36.9200 12.2900 0.6253
36.9400 12.2967 0.6149
36.9600 12.3034 0.6168
36.9800 12.3101 0.6279
37.0000 12.3168 0.6160
37.0200 12.3235 0.6165
37.0400 12.3301 0.6224
37.0600 12.3368 0.6170
37.0800 12.3434 0.6222
37.1000 12.3500 0.6185
37.1200 12.3567 0.6124
37.1400 12.3634 0.6258
37.1600 12.3701 0.6135
37.1800 12.3768 0.6153
37.2000 12.3835 0.6191
37.2200 12.3901 0.6167
37.2400 12.3968 0.6149
37.2600 12.4034 0.6157
37.2800 12.4100 0.6168
37.3000 12.4167 0.6181
37.3200 12.4234 0.6164
37.3400 12.4301 0.6055
37.3600 12.4368 0.6165
37.3800 12.4435 0.6135
37.4000 12.4502 0.6111
37.4200 12.4568 0.6156
37.4400 12.4634 0.6144
37.4600 12.4701 0.6098
37.4800 12.4767 0.6170
37.5000 12.4834 0.6131
37.5200 12.4901 0.6139
37.5400 12.4968 0.6139
37.5600 12.5035 0.6130
37.5800 12.5102 0.6164
37.6000 12.5168 0.6100
37.6200 12.5234 0.6065
37.6400 12.5300 0.6170
37.6600 12.5367 0.6094
37.6800 12.5434 0.6026
37.7000 12.5501 0.6196
37.7200 12.5568 0.6098
37.7400 12.5635 0.6075
37.7600 12.5701 0.6123
37.7800 12.5768 0.6070
37.8000 12.5833 0.6041
37.8200 12.5899 0.6120
37.8400 12.5966 0.6073
37.8600 12.6034 0.6084
37.8800 12.6101 0.6071
37.9000 12.6168 0.6079
37.9200 12.6234 0.6107
37.9400 12.6301 0.6054
37.9600 12.6368 0.6037
37.9800 12.6434 0.6102
38.0000 12.6500 0.6055
38.0200 12.6567 0.6106
38.0400 12.6634 0.6101
38.0600 12.6701 0.6022
38.0800 12.6768 0.6075
38.1000 12.6835 0.6079
38.1200 12.6902 0.5971
38.1400 12.6969 0.6073
38.1600 12.7034 0.6050
38.1800 12.7100 0.5952
38.2000 12.7167 0.6119
38.2200 12.7234 0.6056
38.2400 12.7301 0.5945
38.2600 12.7368 0.6097
38.2800 12.7435 0.6056
38.3000 12.7502 0.5907
38.3200 12.7568 0.6135
38.3400 12.7634 0.5970
38.3600 12.7700 0.5928
38.3800 12.7767 0.6123
38.4000 12.7834 0.5995
38.4200 12.7901 0.5974
38.4400 12.7968 0.6111
38.4600 12.8034 0.5996
38.4800 12.8101 0.5948
38.5000 12.8168 0.6071
38.5200 12.8234 0.5946
38.5400 12.8300 0.5970
38.5600 12.8367 0.6096
38.5800 12.8434 0.5947
38.6000 12.8501 0.5962
38.6200 12.8567 0.6026
38.6400 12.8634 0.5961
38.6600 12.8701 0.5979
38.6800 12.8768 0.5986
38.7000 12.8834 0.5991
38.7200 12.8900 0.5941
38.7400 12.8967 0.6027
38.7600 12.9034 0.5956
38.7800 12.9101 0.5959
38.8000 12.9168 0.5985
38.8200 12.9235 0.5956
38.8400 12.9302 0.5935
38.8600 12.9368 0.5998
38.8800 12.9434 0.5942
38.9000 12.9500 0.5894
38.9200 12.9567 0.6025
38.9400 12.9635 0.5950
38.9600 12.9702 0.5890
38.9800 12.9768 0.5975
39.0000 12.9835 0.5939
39.0200 12.9902 0.5911
39.0400 12.9968 0.5999
39.0600 13.0034 0.5888
39.0800 13.0100 0.5964
39.1000 13.0167 0.6010
39.1200 13.0234 0.5876
39.1400 13.0301 0.5938
39.1600 13.0367 0.6000
39.1800 13.0434 0.5907
39.2000 13.0501 0.5921
39.2200 13.0568 0.5932
39.2400 13.0634 0.5917
39.2600 13.0700 0.5974
39.2800 13.0767 0.5986
39.3000 13.0834 0.5857
39.3200 13.0901 0.5931
39.3400 13.0968 0.5925
39.3600 13.1035 0.5895
39.3800 13.1101 0.5957
39.4000 13.1168 0.5881
39.4200 13.1234 0.5969
39.4400 13.1300 0.5931
39.4600 13.1367 0.5886
39.4800 13.1434 0.5900
39.5000 13.1502 0.5903
39.5200 13.1568 0.5879
39.5400 13.1635 0.5911
39.5600 13.1702 0.5874
39.5800 13.1768 0.5902
39.6000 13.1834 0.5888
39.6200 13.1900 0.5847
39.6400 13.1967 0.5934
39.6600 13.2034 0.5912
39.6800 13.2101 0.5778
39.7000 13.2168 0.5969
39.7200 13.2235 0.5861
39.7400 13.2302 0.5812
39.7600 13.2368 0.5964
39.7800 13.2434 0.5864
39.8000 13.2500 0.5814
39.8200 13.2567 0.5950
39.8400 13.2634 0.5869
39.8600 13.2701 0.5775
39.8800 13.2768 0.5968
39.9000 13.2835 0.5843
39.9200 13.2902 0.5782
39.9400 13.2968 0.5969
39.9600 13.3034 0.5823
39.9800 13.3100 0.5792
40.0000 13.3166 0.5999
40.0200 13.3234 0.5795
40.0400 13.3301 0.5807
40.0600 13.3368 0.5914
40.0800 13.3434 0.5822
40.1000 13.3501 0.5796
40.1200 13.3568 0.5918
40.1400 13.3634 0.5786
40.1600 13.3700 0.5789
40.1800 13.3767 0.5886
40.2000 13.3834 0.5780
40.2200 13.3900 0.5841
40.2400 13.3967 0.5856
40.2600 13.4035 0.5807
40.2800 13.4102 0.5807
40.3000 13.4169 0.5820
40.3200 13.4235 0.5765
40.3400 13.4301 0.5810
40.3600 13.4367 0.5844
40.3800 13.4434 0.5773
40.4000 13.4501 0.5757
40.4200 13.4568 0.5868
40.4400 13.4635 0.5802
40.4600 13.4701 0.5767
40.4800 13.4768 0.5839
40.5000 13.4834 0.5794
40.5200 13.4900 0.5715
40.5400 13.4967 0.5848
40.5600 13.5034 0.5835
40.5800 13.5101 0.5754
40.6000 13.5168 0.5800
40.6200 13.5235 0.5824
40.6400 13.5301 0.5732
40.6600 13.5368 0.5770
40.6800 13.5434 0.5773
40.7000 13.5500 0.5753
40.7200 13.5566 0.5843
40.7400 13.5633 0.5756
40.7600 13.5700 0.5760
40.7800 13.5767 0.5843
40.8000 13.5834 0.5729
40.8200 13.5901 0.5745
40.8400 13.5968 0.5818
40.8600 13.6034 0.5724
40.8800 13.6100 0.5745
40.9000 13.6167 0.5788
40.9200 13.6234 0.5784
40.9400 13.6301 0.5720
40.9600 13.6368 0.5799
40.9800 13.6435 0.5699
41.0000 13.6501 0.5764
41.0200 13.6568 0.5755
41.0400 13.6634 0.5657
41.0600 13.6701 0.5796
41.0800 13.6767 0.5763
41.1000 13.6834 0.5681
41.1200 13.6901 0.5789
41.1400 13.6968 0.5771
41.1600 13.7035 0.5737
41.1800 13.7102 0.5752
41.2000 13.7168 0.5716
41.2200 13.7234 0.5703
41.2400 13.7300 0.5766
41.2600 13.7366 0.5774
41.2800 13.7433 0.5692
41.3000 13.7501 0.5721
41.3200 13.7568 0.5707
41.3400 13.7635 0.5739
41.3600 13.7702 0.5714
41.3800 13.7768 0.5730
41.4000 13.7834 0.5702
41.4200 13.7900 0.5703
41.4400 13.7967 0.5688
41.4600 13.8033 0.5719
41.4800 13.8101 0.5666
41.5000 13.8168 0.5731
41.5200 13.8234 0.5679
41.5400 13.8301 0.5651
41.5600 13.8368 0.5755
41.5800 13.8435 0.5669
41.6000 13.8501 0.5620
41.6200 13.8567 0.5761
41.6400 13.8634 0.5695
41.6600 13.8701 0.5574
41.6800 13.8768 0.5766
41.7000 13.8835 0.5647
41.7200 13.8902 0.5619
41.7400 13.8969 0.5714
41.7600 13.9035 0.5649
41.7800 13.9101 0.5674
41.8000 13.9167 0.5750
41.8200 13.9234 0.5596
41.8400 13.9301 0.5629
41.8600 13.9368 0.5745
41.8800 13.9435 0.5584
41.9000 13.9502 0.5641
41.9200 13.9568 0.5742
41.9400 13.9635 0.5569
41.9600 13.9701 0.5661
41.9800 13.9767 0.5708
42.0000 13.9834 0.5612
42.0200 13.9901 0.5660
42.0400 13.9968 0.5608
42.0600 14.0034 0.5614
42.0800 14.0101 0.5696
42.1000 14.0168 0.5617
42.1200 14.0235 0.5561
42.1400 14.0301 0.5722
42.1600 14.0367 0.5646
42.1800 14.0433 0.5551
42.2000 14.0500 0.5658
42.2200 14.0567 0.5617
42.2400 14.0634 0.5583
42.2600 14.0701 0.5646
42.2800 14.0768 0.5561
42.3000 14.0835 0.5578
42.3200 14.0901 0.5648
42.3400 14.0967 0.5569
42.3600 14.1034 0.5585
42.3800 14.1101 0.5683
42.4000 14.1168 0.5535
42.4200 14.1235 0.5589
42.4400 14.1302 0.5689
42.4600 14.1369 0.5559
42.4800 14.1435 0.5590
42.5000 14.1501 0.5601
42.5200 14.1567 0.5601
42.5400 14.1634 0.5569
42.5600 14.1701 0.5580
42.5800 14.1768 0.5548
42.6000 14.1835 0.5642
42.6200 14.1901 0.5540
42.6400 14.1968 0.5513
42.6600 14.2034 0.5641
42.6800 14.2101 0.5591
42.7000 14.2167 0.5493
42.7200 14.2234 0.5660
42.7400 14.2301 0.5533
42.7600 14.2368 0.5530
42.7800 14.2434 0.5644
42.8000 14.2501 0.5503
42.8200 14.2568 0.5467
42.8400 14.2634 0.5646
42.8600 14.2700 0.5550
42.8800 14.2766 0.5501
42.9000 14.2833 0.5628
42.9200 14.2901 0.5522
42.9400 14.2968 0.5476
42.9600 14.3035 0.5584
42.9800 14.3101 0.5536
43.0000 14.3168 0.5513
43.0200 14.3235 0.5583
43.0400 14.3301 0.5501
43.0600 14.3367 0.5561
43.0800 14.3434 0.5562
43.1000 14.3501 0.5451
43.1200 14.3568 0.5549
43.1400 14.3635 0.5615
43.1600 14.3702 0.5466
43.1800 14.3769 0.5566
43.2000 14.3835 0.5531
43.2200 14.3901 0.5442
43.2400 14.3967 0.5577
43.2600 14.4034 0.5600
43.2800 14.4101 0.5414
43.3000 14.4168 0.5508
43.3200 14.4235 0.5581
43.3400 14.4302 0.5414
43.3600 14.4369 0.5536
43.3800 14.4435 0.5557
43.4000 14.4501 0.5434
43.4200 14.4567 0.5515
43.4400 14.4634 0.5546
43.4600 14.4700 0.5387
43.4800 14.4767 0.5571
43.5000 14.4834 0.5457
43.5200 14.4901 0.5401
43.5400 14.4968 0.5538
43.5600 14.5034 0.5459
43.5800 14.5101 0.5447
43.6000 14.5167 0.5494
43.6200 14.5233 0.5488
43.6400 14.5300 0.5479
43.6600 14.5367 0.5430
43.6800 14.5434 0.5466
43.7000 14.5501 0.5488
43.7200 14.5568 0.5466
43.7400 14.5635 0.5444
43.7600 14.5701 0.5468
43.7800 14.5767 0.5444
43.8000 14.5834 0.5458
43.8200 14.5901 0.5474
43.8400 14.5968 0.5429
43.8600 14.6035 0.5461
43.8800 14.6102 0.5425
43.9000 14.6169 0.5449
43.9200 14.6235 0.5423
43.9400 14.6301 0.5405
43.9600 14.6367 0.5405
43.9800 14.6434 0.5454
44.0000 14.6501 0.5415
44.0200 14.6568 0.5456
44.0400 14.6635 0.5438
44.0600 14.6701 0.5402
44.0800 14.6768 0.5424
44.1000 14.6835 0.5423
44.1200 14.6901 0.5390
44.1400 14.6967 0.5431
44.1600 14.7034 0.5431
44.1800 14.7101 0.5382
44.2000 14.7168 0.5415
44.2200 14.7234 0.5403
44.2400 14.7301 0.5411
44.2600 14.7368 0.5415
44.2800 14.7435 0.5380
44.3000 14.7501 0.5352
44.3200 14.7567 0.5404
44.3400 14.7633 0.5423
44.3600 14.7700 0.5395
44.3800 14.7767 0.5317
44.4000 14.7834 0.5408
44.4200 14.7901 0.5389
44.4400 14.7967 0.5353
44.4600 14.8034 0.5412
44.4800 14.8100 0.5367
44.5000 14.8167 0.5334
44.5200 14.8234 0.5419
44.5400 14.8301 0.5367
44.5600 14.8368 0.5321
44.5800 14.8435 0.5433
44.6000 14.8502 0.5319
44.6200 14.8569 0.5315
44.6400 14.8635 0.5431
44.6600 14.8702 0.5302
44.6800 14.8768 0.5321
44.7000 14.8834 0.5431
44.7200 14.8901 0.5271
44.7400 14.8968 0.5337
44.7600 14.9035 0.5416
44.7800 14.9102 0.5241
44.8000 14.9168 0.5331
44.8200 14.9235 0.5406
44.8400 14.9301 0.5225
44.8600 14.9367 0.5413
44.8800 14.9433 0.5350
44.9000 14.9500 0.5234
44.9200 14.9567 0.5334
44.9400 14.9634 0.5340
44.9600 14.9701 0.5264
44.9800 14.9768 0.5359
45.0000 14.9835 0.5297
45.0200 14.9901 0.5245
45.0400 14.9967 0.5333
45.0600 15.0033 0.5331
45.0800 15.0100 0.5243
45.1000 15.0168 0.5304
45.1200 15.0234 0.5315
45.1400 15.0301 0.5257
45.1600 15.0368 0.5292
45.1800 15.0435 0.5264
45.2000 15.0501 0.5238
45.2200 15.0567 0.5267
45.2400 15.0634 0.5270
45.2600 15.0701 0.5206
45.2800 15.0767 0.5259
45.3000 15.0834 0.5285
45.3200 15.0901 0.5204
45.3400 15.0969 0.5244
45.3600 15.1035 0.5271
45.3800 15.1102 0.5204
45.4000 15.1167 0.5206
45.4200 15.1234 0.5276
45.4400 15.1301 0.5201
45.4600 15.1368 0.5223
45.4800 15.1435 0.5278
45.5000 15.1502 0.5143
45.5200 15.1568 0.5243
45.5400 15.1635 0.5263
45.5600 15.1701 0.5095
45.5800 15.1767 0.5298
45.6000 15.1833 0.5250
45.6200 15.1900 0.5145
45.6400 15.1968 0.5250
45.6600 15.2035 0.5225
45.6800 15.2101 0.5078
45.7000 15.2168 0.5274
45.7200 15.2235 0.5253
45.7400 15.2301 0.5094
45.7600 15.2367 0.5263
45.7800 15.2433 0.5224
45.8000 15.2500 0.5072
45.8200 15.2567 0.5243
45.8400 15.2634 0.5185
45.8600 15.2701 0.5132
45.8800 15.2768 0.5191
45.9000 15.2835 0.5135
45.9200 15.2901 0.5160
45.9400 15.2967 0.5148
45.9600 15.3033 0.5181
45.9800 15.3100 0.5169
46.0000 15.3168 0.5175
46.0200 15.3235 0.5104
46.0400 15.3302 0.5177
46.0600 15.3368 0.5153
46.0800 15.3435 0.5147
46.1000 15.3501 0.5238
46.1200 15.3567 0.5127
46.1400 15.3634 0.5116
46.1600 15.3701 0.5198
46.1800 15.3768 0.5123
46.2000 15.3835 0.5148
46.2200 15.3902 0.5129
46.2400 15.3968 0.5135
46.2600 15.4035 0.5127
46.2800 15.4101 0.5165
46.3000 15.4167 0.5134
46.3200 15.4234 0.5178
46.3400 15.4300 0.5147
46.3600 15.4367 0.5088
46.3800 15.4434 0.5169
46.4000 15.4501 0.5136
46.4200 15.4568 0.5180
46.4400 15.4635 0.5180
46.4600 15.4701 0.5072
46.4800 15.4767 0.5190
46.5000 15.4833 0.5165
46.5200 15.4900 0.5081
46.5400 15.4967 0.5193
46.5600 15.5034 0.5119
46.5800 15.5101 0.5081
46.6000 15.5168 0.5188
46.6200 15.5235 0.5114
46.6400 15.5301 0.5062
46.6600 15.5367 0.5222
46.6800 15.5434 0.5119
46.7000 15.5500 0.5088
46.7200 15.5567 0.5187
46.7400 15.5634 0.5078
46.7600 15.5701 0.5081
46.7800 15.5768 0.5191
46.8000 15.5835 0.5072
46.8200 15.5902 0.5080
46.8400 15.5968 0.5154
46.8600 15.6034 0.5070
46.8800 15.6100 0.5097
46.9000 15.6167 0.5142
46.9200 15.6235 0.5067
46.9400 15.6302 0.5063
46.9600 15.6369 0.5182
46.9800 15.6435 0.5026
47.0000 15.6501 0.5035
47.0200 15.6567 0.5143
47.0400 15.6633 0.5082
47.0600 15.6700 0.5006
47.0800 15.6768 0.5097
47.1000 15.6835 0.5063
47.1200 15.6901 0.5066
47.1400 15.6968 0.5093
47.1600 15.7035 0.5064
47.1800 15.7101 0.5035
47.2000 15.7167 0.5033
47.2200 15.7233 0.5083
47.2400 15.7300 0.5049
47.2600 15.7367 0.5046
47.2800 15.7434 0.5034
47.3000 15.7501 0.5078
47.3200 15.7568 0.5026
47.3400 15.7635 0.5067
47.3600 15.7701 0.5019
47.3800 15.7768 0.5005
47.4000 15.7834 0.5095
47.4200 15.7900 0.5040
47.4400 15.7967 0.4997
47.4600 15.8034 0.5064
47.4800 15.8101 0.5008
47.5000 15.8168 0.5022
47.5200 15.8235 0.5034
47.5400 15.8301 0.5004
47.5600 15.8367 0.5043
47.5800 15.8434 0.5107
47.6000 15.8500 0.4968
47.6200 15.8568 0.5001
47.6400 15.8635 0.5082
47.6600 15.8702 0.4968
47.6800 15.8768 0.5052
47.7000 15.8835 0.5027
47.7200 15.8901 0.4956
47.7400 15.8967 0.5033
47.7600 15.9034 0.5001
47.7800 15.9100 0.4969
47.8000 15.9168 0.5068
47.8200 15.9235 0.4932
47.8400 15.9301 0.4967
47.8600 15.9368 0.5073
47.8800 15.9435 0.4937
47.9000 15.9501 0.4929
47.9200 15.9567 0.5057
47.9400 15.9633 0.4939
47.9600 15.9700 0.4982
47.9800 15.9767 0.5060
48.0000 15.9834 0.4913
48.0200 15.9901 0.4978
48.0400 15.9968 0.5029
48.0600 16.0035 0.4929
48.0800 16.0101 0.4965
48.1000 16.0167 0.4998
48.1200 16.0234 0.4922
48.1400 16.0300 0.5003
48.1600 16.0368 0.4961
48.1800 16.0435 0.4898
48.2000 16.0502 0.4956
48.2200 16.0568 0.4970
48.2400 16.0635 0.4926
48.2600 16.0702 0.5001
48.2800 16.0768 0.4910
48.3000 16.0834 0.4940
48.3200 16.0900 0.4942
48.3400 16.0967 0.4978
48.3600 16.1034 0.4970
48.3800 16.1101 0.4920
48.4000 16.1168 0.4955
48.4200 16.1235 0.4910
48.4400 16.1302 0.4882
48.4600 16.1368 0.4949
48.4800 16.1433 0.4942
48.5000 16.1500 0.4925
48.5200 16.1567 0.4947
48.5400 16.1634 0.4935
48.5600 16.1701 0.4879
48.5800 16.1768 0.4930
48.6000 16.1835 0.4959
48.6200 16.1902 0.4842
48.6400 16.1968 0.4962
48.6600 16.2033 0.4923
48.6800 16.2100 0.4874
48.7000 16.2167 0.4949
48.7200 16.2234 0.4978
48.7400 16.2301 0.4839
48.7600 16.2368 0.4900
48.7800 16.2434 0.4932
48.8000 16.2501 0.4834
48.8200 16.2567 0.4912
48.8400 16.2634 0.4932
48.8600 16.2700 0.4836
48.8800 16.2767 0.4919
48.9000 16.2834 0.4896
48.9200 16.2901 0.4810
48.9400 16.2968 0.4920
48.9600 16.3035 0.4869
48.9800 16.3102 0.4828
49.0000 16.3168 0.4909
49.0200 16.3234 0.4861
49.0400 16.3300 0.4828
49.0600 16.3367 0.4923
49.0800 16.3435 0.4821
49.1000 16.3502 0.4837
49.1200 16.3568 0.4861
49.1400 16.3635 0.4816
49.1600 16.3701 0.4822
49.1800 16.3767 0.4912
49.2000 16.3833 0.4757
49.2200 16.3900 0.4896
49.2400 16.3967 0.4899
49.2600 16.4034 0.4748
49.2800 16.4101 0.4865
49.3000 16.4167 0.4845
49.3200 16.4234 0.4777
49.3400 16.4301 0.4824
49.3600 16.4367 0.4813
49.3800 16.4434 0.4756
49.4000 16.4500 0.4895
49.4200 16.4567 0.4771
49.4400 16.4634 0.4700
49.4600 16.4701 0.4929
49.4800 16.4768 0.4804
49.5000 16.4835 0.4707
49.5200 16.4902 0.4902
49.5400 16.4968 0.4743
49.5600 16.5034 0.4806
49.5800 16.5100 0.4860
49.6000 16.5167 0.4709
49.6200 16.5235 0.4798
49.6400 16.5301 0.4903
49.6600 16.5368 0.4706
49.6800 16.5435 0.4775
49.7000 16.5502 0.4849
49.7200 16.5568 0.4685
49.7400 16.5634 0.4785
49.7600 16.5700 0.4853
49.7800 16.5767 0.4699
49.8000 16.5834 0.4777
49.8200 16.5901 0.4781
49.8400 16.5968 0.4718
49.8600 16.6035 0.4853
49.8800 16.6102 0.4744
49.9000 16.6168 0.4690
49.9200 16.6234 0.4769
49.9400 16.6301 0.4811
49.9600 16.6367 0.4721
49.9800 16.6434 0.4794
50.0000 16.6501 0.4766
50.0200 16.6568 0.4750
50.0400 16.6635 0.4755
50.0600 16.6702 0.4693
50.0800 16.6768 0.4718
50.1000 16.6834 0.4765
50.1200 16.6900 0.4764
50.1400 16.6967 0.4732
50.1600 16.7034 0.4675
50.1800 16.7101 0.4774
50.2000 16.7168 0.4728
50.2200 16.7235 0.4698
50.2400 16.7301 0.4765
50.2600 16.7368 0.4696
50.2800 16.7434 0.4636
50.3000 16.7500 0.4743
50.3200 16.7567 0.4753
50.3400 16.7634 0.4662
50.3600 16.7701 0.4691
50.3800 16.7768 0.4676
50.4000 16.7835 0.4674
50.4200 16.7902 0.4739
50.4400 16.7968 0.4707
50.4600 16.8034 0.4645
50.4800 16.8100 0.4711
50.5000 16.8167 0.4645
50.5200 16.8234 0.4690
50.5400 16.8301 0.4713
50.5600 16.8368 0.4632
50.5800 16.8435 0.4650
50.6000 16.8502 0.4730
50.6200 16.8568 0.4571
50.6400 16.8634 0.4675
50.6600 16.8700 0.4756
50.6800 16.8767 0.4533
50.7000 16.8834 0.4685
50.7200 16.8901 0.4708
50.7400 16.8968 0.4583
50.7600 16.9035 0.4662
50.7800 16.9101 0.4624
50.8000 16.9168 0.4564
50.8200 16.9234 0.4753
50.8400 16.9300 0.4676
50.8600 16.9367 0.4552
50.8800 16.9434 0.4677
50.9000 16.9501 0.4621
50.9200 16.9567 0.4535
50.9400 16.9634 0.4694
50.9600 16.9701 0.4574
50.9800 16.9768 0.4586
51.0000 16.9834 0.4646
51.0200 16.9900 0.4573
51.0400 16.9967 0.4633
51.0600 17.0034 0.4620
51.0800 17.0101 0.4546
51.1000 17.0168 0.4566
51.1200 17.0235 0.4657
51.1400 17.0302 0.4529
51.1600 17.0368 0.4573
51.1800 17.0434 0.4598
51.2000 17.0500 0.4607
51.2200 17.0567 0.4550
51.2400 17.0634 0.4566
51.2600 17.0701 0.4588
51.2800 17.0768 0.4597
51.3000 17.0835 0.4582
51.3200 17.0901 0.4570
51.3400 17.0968 0.4563
51.3600 17.1034 0.4586
51.3800 17.1100 0.4553
51.4000 17.1167 0.4568
51.4200 17.1234 0.4508
51.4400 17.1301 0.4609
51.4600 17.1368 0.4577
51.4800 17.1435 0.4513
51.5000 17.1501 0.4615
51.5200 17.1568 0.4560
51.5400 17.1634 0.4501
51.5600 17.1700 0.4567
51.5800 17.1767 0.4579
51.6000 17.1834 0.4491
51.6200 17.1901 0.4551
51.6400 17.1968 0.4518
51.6600 17.2035 0.4531
51.6800 17.2102 0.4582
51.7000 17.2168 0.4492
51.7200 17.2234 0.4451
51.7400 17.2300 0.4624
51.7600 17.2367 0.4542
51.7800 17.2434 0.4427
51.8000 17.2501 0.4544
51.8200 17.2568 0.4503
51.8400 17.2635 0.4440
51.8600 17.2702 0.4530
51.8800 17.2768 0.4523
51.9000 17.2834 0.4469
51.9200 17.2901 0.4503
51.9400 17.2967 0.4470
51.9600 17.3034 0.4546
51.9800 17.3101 0.4492
52.0000 17.3168 0.4433
52.0200 17.3235 0.4476
52.0400 17.3302 0.4522
52.0600 17.3368 0.4453
52.0800 17.3434 0.4463
52.1000 17.3500 0.4532
52.1200 17.3567 0.4441
52.1400 17.3634 0.4410
52.1600 17.3701 0.4521
52.1800 17.3768 0.4454
52.2000 17.3835 0.4412
52.2200 17.3901 0.4514
52.2400 17.3968 0.4440
52.2600 17.4034 0.4394
52.2800 17.4100 0.4560
52.3000 17.4166 0.4429
52.3200 17.4234 0.4381
52.3400 17.4301 0.4515
52.3600 17.4367 0.4415
52.3800 17.4434 0.4411
52.4000 17.4501 0.4505
52.4200 17.4568 0.4375
52.4400 17.4634 0.4374
52.4600 17.4700 0.4518
52.4800 17.4767 0.4357
52.5000 17.4834 0.4434
52.5200 17.4901 0.4540
52.5400 17.4968 0.4318
52.5600 17.5035 0.4421
52.5800 17.5102 0.4493
52.6000 17.5168 0.4286
52.6200 17.5234 0.4472
52.6400 17.5300 0.4428
52.6600 17.5367 0.4288
52.6800 17.5434 0.4446
52.7000 17.5501 0.4422
52.7200 17.5568 0.4304
52.7400 17.5635 0.4465
52.7600 17.5702 0.4398
52.7800 17.5768 0.4267
52.8000 17.5834 0.4493
52.8200 17.5900 0.4340
52.8400 17.5967 0.4276
52.8600 17.6034 0.4447
52.8800 17.6101 0.4336
52.9000 17.6168 0.4325
52.9200 17.6235 0.4478
52.9400 17.6301 0.4255
52.9600 17.6368 0.4351
52.9800 17.6434 0.4427
53.0000 17.6500 0.4255
53.0200 17.6567 0.4364
53.0400 17.6634 0.4400
53.0600 17.6701 0.4253
53.0800 17.6768 0.4367
53.1000 17.6834 0.4361
53.1200 17.6901 0.4294
53.1400 17.6967 0.4340
53.1600 17.7034 0.4332
53.1800 17.7100 0.4283
53.2000 17.7167 0.4316
53.2200 17.7234 0.4307
53.2400 17.7301 0.4301
53.2600 17.7368 0.4329
53.2800 17.7435 0.4297
53.3000 17.7502 0.4302
53.3200 17.7568 0.4277
53.3400 17.7634 0.4294
53.3600 17.7700 0.4280
53.3800 17.7767 0.4302
53.4000 17.7834 0.4289
53.4200 17.7902 0.4251
53.4400 17.7968 0.4225
53.4600 17.8035 0.4319
53.4800 17.8102 0.4262
53.5000 17.8168 0.4204
53.5200 17.8234 0.4303
53.5400 17.8301 0.4262
53.5600 17.8367 0.4213
53.5800 17.8434 0.4295
53.6000 17.8500 0.4229
53.6200 17.8567 0.4238
53.6400 17.8634 0.4298
53.6600 17.8701 0.4164
53.6800 17.8768 0.4213
53.7000 17.8834 0.4280
53.7200 17.8900 0.4180
53.7400 17.8966 0.4195
53.7600 17.9033 0.4281
53.7800 17.9101 0.4146
53.8000 17.9168 0.4213
53.8200 17.9234 0.4266
53.8400 17.9301 0.4173
53.8600 17.9368 0.4193
53.8800 17.9434 0.4249
53.9000 17.9500 0.4102
53.9200 17.9567 0.4195
53.9400 17.9634 0.4214
53.9600 17.9701 0.4109
53.9800 17.9768 0.4207
54.0000 17.9835 0.4213
54.0200 17.9902 0.4104
54.0400 17.9968 0.4225
54.0600 18.0035 0.4118
54.0800 18.0101 0.4134
54.1000 18.0167 0.4254
54.1200 18.0234 0.4105
54.1400 18.0301 0.4152
54.1600 18.0368 0.4179
54.1800 18.0435 0.4090
54.2000 18.0502 0.4158
54.2200 18.0569 0.4187
54.2400 18.0635 0.4046
54.2600 18.0701 0.4157
54.2800 18.0767 0.4187
54.3000 18.0834 0.4070
54.3200 18.0901 0.4109
54.3400 18.0968 0.4136
54.3600 18.1035 0.4041
54.3800 18.1101 0.4141
54.4000 18.1168 0.4083
54.4200 18.1234 0.4048
54.4400 18.1300 0.4148
54.4600 18.1367 0.4093
54.4800 18.1433 0.4087
54.5000 18.1501 0.4126
54.5200 18.1567 0.4071
54.5400 18.1634 0.4071
54.5600 18.1701 0.4096
54.5800 18.1768 0.4091
54.6000 18.1834 0.4092
54.6200 18.1900 0.4061
54.6400 18.1967 0.4061
54.6600 18.2034 0.4061
54.6800 18.2101 0.4105
54.7000 18.2168 0.4074
54.7200 18.2235 0.4079
54.7400 18.2302 0.4010
54.7600 18.2369 0.4111
54.7800 18.2435 0.4057
54.8000 18.2501 0.4068
54.8200 18.2567 0.4122
54.8400 18.2634 0.4028
54.8600 18.2701 0.4018
54.8800 18.2768 0.4104
54.9000 18.2835 0.4059
54.9200 18.2901 0.4052
54.9400 18.2968 0.4070
54.9600 18.3034 0.4051
54.9800 18.3101 0.4070
55.0000 18.3167 0.4059
55.0200 18.3234 0.4067
55.0400 18.3301 0.4036
55.0600 18.3368 0.4084
55.0800 18.3434 0.4041
55.1000 18.3501 0.4120
55.1200 18.3568 0.3988
55.1400 18.3634 0.4036
55.1600 18.3700 0.4121
55.1800 18.3766 0.3963
55.2000 18.3833 0.4007
55.2200 18.3900 0.4130
55.2400 18.3967 0.3955
55.2600 18.4034 0.4047
55.2800 18.4101 0.4107
55.3000 18.4168 0.3971
55.3200 18.4234 0.4053
55.3400 18.4300 0.4076
55.3600 18.4367 0.3940
55.3800 18.4434 0.4083
55.4000 18.4501 0.4076
55.4200 18.4568 0.3935
55.4400 18.4635 0.4078
55.4600 18.4702 0.4025
55.4800 18.4768 0.3995
55.5000 18.4835 0.4044
55.5200 18.4901 0.4021
55.5400 18.4967 0.3971
55.5600 18.5034 0.4077
55.5800 18.5101 0.3922
55.6000 18.5168 0.3988
55.6200 18.5235 0.4099
55.6400 18.5301 0.3939
55.6600 18.5368 0.3961
55.6800 18.5435 0.4062
55.7000 18.5501 0.3889
55.7200 18.5567 0.3984
55.7400 18.5634 0.4058
55.7600 18.5701 0.3895
55.7800 18.5768 0.4014
55.8000 18.5834 0.4000
55.8200 18.5901 0.3846
55.8400 18.5968 0.3994
55.8600 18.6035 0.4019
55.8800 18.6101 0.3826
55.9000 18.6167 0.4008
55.9200 18.6233 0.3982
55.9400 18.6301 0.3864
55.9600 18.6368 0.3975
55.9800 18.6434 0.3974
56.0000 18.6501 0.3861
56.0200 18.6568 0.3948
56.0400 18.6635 0.3887
56.0600 18.6701 0.3870
56.0800 18.6767 0.3961
56.1000 18.6834 0.3887
56.1200 18.6901 0.3824
56.1400 18.6968 0.3962
56.1600 18.7035 0.3877
56.1800 18.7102 0.3832
56.2000 18.7169 0.3937
56.2200 18.7235 0.3846
56.2400 18.7301 0.3843
56.2600 18.7367 0.3922
56.2800 18.7434 0.3887
56.3000 18.7501 0.3835
56.3200 18.7568 0.3924
56.3400 18.7635 0.3826
56.3600 18.7702 0.3862
56.3800 18.7768 0.3861
56.4000 18.7835 0.3804
56.4200 18.7901 0.3872
56.4400 18.7967 0.3872
56.4600 18.8034 0.3802
56.4800 18.8101 0.3826
56.5000 18.8168 0.3844
56.5200 18.8234 0.3864
56.5400 18.8301 0.3790
56.5600 18.8368 0.3848
56.5800 18.8434 0.3788
56.6000 18.8500 0.3782
56.6200 18.8566 0.3885
56.6400 18.8633 0.3771
56.6600 18.8700 0.3819
56.6800 18.8767 0.3833
56.7000 18.8834 0.3764
56.7200 18.8901 0.3756
56.7400 18.8968 0.3846
56.7600 18.9035 0.3741
56.7800 18.9101 0.3784
56.8000 18.9167 0.3829
56.8200 18.9233 0.3745
56.8400 18.9301 0.3773
56.8600 18.9368 0.3801
56.8800 18.9435 0.3719
56.9000 18.9502 0.3766
56.9200 18.9568 0.3777
56.9400 18.9635 0.3746
56.9600 18.9701 0.3792
56.9800 18.9767 0.3802
57.0000 18.9834 0.3718
57.0200 18.9901 0.3774
57.0400 18.9968 0.3787
57.0600 19.0035 0.3694
57.0800 19.0101 0.3800
57.1000 19.0168 0.3697
57.1200 19.0235 0.3749
57.1400 19.0301 0.3739
57.1600 19.0367 0.3747
57.1800 19.0433 0.3803
57.2000 19.0500 0.3671
57.2200 19.0567 0.3684
57.2400 19.0634 0.3801
57.2600 19.0701 0.3709
57.2800 19.0768 0.3713
57.3000 19.0835 0.3759
57.3200 19.0901 0.3675
57.3400 19.0967 0.3706
57.3600 19.1033 0.3790
57.3800 19.1100 0.3654
57.4000 19.1168 0.3693
57.4200 19.1234 0.3727
57.4400 19.1301 0.3643
57.4600 19.1368 0.3720
57.4800 19.1434 0.3742
57.5000 19.1501 0.3640
57.5200 19.1567 0.3750
57.5400 19.1634 0.3694
57.5600 19.1701 0.3620
57.5800 19.1768 0.3687
57.6000 19.1835 0.3664
57.6200 19.1901 0.3689
57.6400 19.1968 0.3649
57.6600 19.2035 0.3649
57.6800 19.2101 0.3652
57.7000 19.2167 0.3677
57.7200 19.2234 0.3607
57.7400 19.2301 0.3701
57.7600 19.2368 0.3631
57.7800 19.2435 0.3551
57.8000 19.2502 0.3643
57.8200 19.2569 0.3622
57.8400 19.2635 0.3560
57.8600 19.2701 0.3635
57.8800 19.2767 0.3609
57.9000 19.2833 0.3594
57.9200 19.2900 0.3650
57.9400 19.2967 0.3553
57.9600 19.3034 0.3586
57.9800 19.3101 0.3659
58.0000 19.3168 0.3545
58.0200 19.3234 0.3524
58.0400 19.3301 0.3592
58.0600 19.3367 0.3517
58.0800 19.3433 0.3578
58.1000 19.3500 0.3629
58.1200 19.3568 0.3511
58.1400 19.3634 0.3490
58.1600 19.3701 0.3633
58.1800 19.3768 0.3533
58.2000 19.3834 0.3504
58.2200 19.3901 0.3564
58.2400 19.3967 0.3556
58.2600 19.4034 0.3508
58.2800 19.4101 0.3547
58.3000 19.4168 0.3473
58.3200 19.4234 0.3530
58.3400 19.4301 0.3561
58.3600 19.4368 0.3492
58.3800 19.4435 0.3496
58.4000 19.4501 0.3552
58.4200 19.4567 0.3461
58.4400 19.4634 0.3461
58.4600 19.4701 0.3611
58.4800 19.4768 0.3454
58.5000 19.4835 0.3447
58.5200 19.4902 0.3520
58.5400 19.4968 0.3483
58.5600 19.5035 0.3445
58.5800 19.5101 0.3509
58.6000 19.5167 0.3439
58.6200 19.5234 0.3446
58.6400 19.5301 0.3479
58.6600 19.5368 0.3453
58.6800 19.5435 0.3489
58.7000 19.5501 0.3449
58.7200 19.5568 0.3416
58.7400 19.5635 0.3445
58.7600 19.5701 0.3446
58.7800 19.5767 0.3402
58.8000 19.5833 0.3457
58.8200 19.5900 0.3431
58.8400 19.5967 0.3373
58.8600 19.6034 0.3397
58.8800 19.6101 0.3441
58.9000 19.6168 0.3396
58.9200 19.6234 0.3365
58.9400 19.6301 0.3357
58.9600 19.6367 0.3429
58.9800 19.6433 0.3323
59.0000 19.6500 0.3366
59.0200 19.6568 0.3425
59.0400 19.6635 0.3326
59.0600 19.6702 0.3332
59.0800 19.6768 0.3391
59.1000 19.6835 0.3274
59.1200 19.6901 0.3334
59.1400 19.6968 0.3363
59.1600 19.7034 0.3271
59.1800 19.7101 0.3343
59.2000 19.7168 0.3328
59.2200 19.7235 0.3184
59.2400 19.7301 0.3390
59.2600 19.7368 0.3304
59.2800 19.7435 0.3149
59.3000 19.7501 0.3290
