Raw Data
Time Displacement Force
(s) (mm) (N)
0.0000 0.0000 -0.1251
0.0200 0.0000 -0.1203
0.0400 0.0008 -0.0748
0.0600 0.0039 -0.0081
0.0800 0.0094 -0.0094
0.1000 0.0151 -0.0120
0.1200 0.0210 0.0180
0.1400 0.0276 -0.0027
0.1600 0.0350 -0.0091
0.1800 0.0425 0.0091
0.2000 0.0496 0.0101
0.2200 0.0565 0.0253
0.2400 0.0632 0.0497
0.2600 0.0698 0.0652
0.2800 0.0765 0.0964
0.3000 0.0832 0.1222
0.3200 0.0899 0.1399
0.3400 0.0967 0.1753
0.3600 0.1034 0.1895
0.3800 0.1100 0.2034
0.4000 0.1167 0.2203
0.4200 0.1234 0.2117
0.4400 0.1300 0.2092
0.4600 0.1367 0.2141
0.4800 0.1434 0.2063
0.5000 0.1501 0.2125
0.5200 0.1567 0.2250
0.5400 0.1634 0.2319
0.5600 0.1700 0.2584
0.5800 0.1766 0.2951
0.6000 0.1833 0.3134
0.6200 0.1900 0.3452
0.6400 0.1967 0.3693
0.6600 0.2034 0.3787
0.6800 0.2100 0.3928
0.7000 0.2167 0.3863
0.7200 0.2234 0.3830
0.7400 0.2300 0.3972
0.7600 0.2366 0.3949
0.7800 0.2433 0.3885
0.8000 0.2500 0.3961
0.8200 0.2566 0.3978
0.8400 0.2633 0.3938
0.8600 0.2700 0.3962
0.8800 0.2767 0.3995
0.9000 0.2833 0.3981
0.9200 0.2899 0.3948
0.9400 0.2966 0.4005
0.9600 0.3032 0.4012
0.9800 0.3100 0.3990
1.0000 0.3166 0.4023
1.0200 0.3233 0.4008
1.0400 0.3300 0.3957
1.0600 0.3367 0.4007
1.0800 0.3433 0.4064
1.1000 0.3499 0.3992
1.1200 0.3566 0.4064
1.1400 0.3633 0.4023
1.1600 0.3700 0.3981
1.1800 0.3767 0.4090
1.2000 0.3834 0.4050
1.2200 0.3901 0.4017
1.2400 0.3967 0.4101
1.2600 0.4034 0.4040
1.2800 0.4100 0.3999
1.3000 0.4167 0.4171
1.3200 0.4233 0.4050
1.3400 0.4300 0.3903
1.3600 0.4367 0.4181
1.3800 0.4434 0.4070
1.4000 0.4501 0.3916
1.4200 0.4567 0.4145
1.4400 0.4634 0.4042
1.4600 0.4700 0.3969
1.4800 0.4766 0.4213
1.5000 0.4833 0.4022
1.5200 0.4900 0.3967
1.5400 0.4967 0.4209
1.5600 0.5033 0.3999
1.5800 0.5100 0.3959
1.6000 0.5167 0.4171
1.6200 0.5233 0.4038
1.6400 0.5299 0.3995
1.6600 0.5366 0.4190
1.6800 0.5433 0.4024
1.7000 0.5500 0.4061
1.7200 0.5567 0.4174
1.7400 0.5633 0.4000
1.7600 0.5700 0.4080
1.7800 0.5767 0.4211
1.8000 0.5833 0.4007
1.8200 0.5900 0.4066
1.8400 0.5966 0.4194
1.8600 0.6033 0.4123
1.8800 0.6100 0.4089
1.9000 0.6167 0.4206
1.9200 0.6234 0.4110
1.9400 0.6300 0.4152
1.9600 0.6367 0.4151
1.9800 0.6434 0.4108
2.0000 0.6500 0.4148
2.0200 0.6566 0.4177
2.0400 0.6633 0.4182
2.0600 0.6700 0.4094
2.0800 0.6767 0.4176
2.1000 0.6834 0.4188
2.1200 0.6900 0.4095
2.1400 0.6967 0.4221
2.1600 0.7034 0.4218
2.1800 0.7100 0.4105
2.2000 0.7166 0.4231
2.2200 0.7233 0.4201
2.2400 0.7300 0.4116
2.2600 0.7367 0.4240
2.2800 0.7433 0.4189
2.3000 0.7500 0.4114
2.3200 0.7567 0.4245
2.3400 0.7634 0.4146
2.3600 0.7700 0.4070
2.3800 0.7766 0.4272
2.4000 0.7833 0.4141
2.4200 0.7899 0.4091
2.4400 0.7966 0.4264
2.4600 0.8033 0.4118
2.4800 0.8100 0.4119
2.5000 0.8167 0.4286
2.5200 0.8234 0.4077
2.5400 0.8300 0.4115
2.5600 0.8366 0.4290
2.5800 0.8433 0.4129
2.6000 0.8500 0.4160
2.6200 0.8567 0.4245
2.6400 0.8634 0.4097
2.6600 0.8701 0.4168
2.6800 0.8767 0.4191
2.7000 0.8834 0.4094
2.7200 0.8900 0.4160
2.7400 0.8966 0.4213
2.7600 0.9033 0.4131
2.7800 0.9100 0.4155
2.8000 0.9167 0.4211
2.8200 0.9234 0.4120
2.8400 0.9301 0.4179
2.8600 0.9367 0.4172
2.8800 0.9434 0.4121
2.9000 0.9500 0.4170
2.9200 0.9566 0.4151
2.9400 0.9632 0.4154
2.9600 0.9699 0.4191
2.9800 0.9767 0.4136
3.0000 0.9834 0.4188
3.0200 0.9900 0.4114
3.0400 0.9967 0.4166
3.0600 1.0034 0.4205
3.0800 1.0100 0.4131
3.1000 1.0166 0.4179
3.1200 1.0232 0.4173
3.1400 1.0299 0.4118
3.1600 1.0366 0.4164
3.1800 1.0433 0.4210
3.2000 1.0500 0.4123
3.2200 1.0567 0.4170
3.2400 1.0634 0.4159
3.2600 1.0700 0.4118
3.2800 1.0766 0.4201
3.3000 1.0833 0.4176
3.3200 1.0900 0.4100
3.3400 1.0967 0.4193
3.3600 1.1034 0.4145
3.3800 1.1101 0.4160
3.4000 1.1168 0.4165
3.4200 1.1235 0.4121
3.4400 1.1301 0.4165
3.4600 1.1367 0.4188
3.4800 1.1433 0.4108
3.5000 1.1500 0.4120
3.5200 1.1567 0.4197
3.5400 1.1634 0.4109
3.5600 1.1701 0.4134
3.5800 1.1767 0.4160
3.6000 1.1834 0.4173
3.6200 1.1900 0.4107
3.6400 1.1966 0.4134
3.6600 1.2033 0.4175
3.6800 1.2100 0.4124
3.7000 1.2167 0.4127
3.7200 1.2234 0.4106
3.7400 1.2300 0.4167
3.7600 1.2367 0.4205
3.7800 1.2434 0.4133
3.8000 1.2500 0.4146
3.8200 1.2566 0.4180
3.8400 1.2633 0.4130
3.8600 1.2700 0.4180
3.8800 1.2767 0.4158
3.9000 1.2833 0.4159
3.9200 1.2900 0.4187
3.9400 1.2967 0.4119
3.9600 1.3034 0.4137
3.9800 1.3100 0.4190
4.0000 1.3166 0.4109
4.0200 1.3233 0.4158
4.0400 1.3300 0.4195
4.0600 1.3367 0.4070
4.0800 1.3434 0.4163
4.1000 1.3500 0.4205
4.1200 1.3567 0.4110
4.1400 1.3634 0.4145
4.1600 1.3700 0.4198
4.1800 1.3766 0.4113
4.2000 1.3833 0.4137
4.2200 1.3900 0.4166
4.2400 1.3967 0.4119
4.2600 1.4034 0.4135
4.2800 1.4101 0.4140
4.3000 1.4167 0.4120
4.3200 1.4234 0.4172
4.3400 1.4300 0.4136
4.3600 1.4366 0.4136
4.3800 1.4433 0.4231
4.4000 1.4500 0.4113
4.4200 1.4567 0.4092
4.4400 1.4633 0.4193
4.4600 1.4700 0.4174
4.4800 1.4767 0.4087
4.5000 1.4834 0.4189
4.5200 1.4900 0.4116
4.5400 1.4966 0.4128
4.5600 1.5033 0.4185
4.5800 1.5099 0.4131
4.6000 1.5167 0.4161
4.6200 1.5233 0.4195
4.6400 1.5300 0.4120
4.6600 1.5367 0.4104
4.6800 1.5434 0.4185
4.7000 1.5500 0.4099
4.7200 1.5566 0.4083
4.7400 1.5633 0.4209
4.7600 1.5700 0.4135
4.7800 1.5767 0.4090
4.8000 1.5834 0.4164
4.8200 1.5901 0.4167
4.8400 1.5968 0.4110
4.8600 1.6034 0.4153
4.8800 1.6100 0.4186
4.9000 1.6166 0.4132
4.9200 1.6232 0.4168
4.9400 1.6299 0.4150
4.9600 1.6366 0.4133
4.9800 1.6433 0.4148
5.0000 1.6500 0.4162
5.0200 1.6567 0.4107
5.0400 1.6634 0.4118
5.0600 1.6700 0.4100
5.0800 1.6766 0.4120
5.1000 1.6832 0.4143
5.1200 1.6899 0.4112
5.1400 1.6966 0.4112
5.1600 1.7033 0.4139
5.1800 1.7100 0.4086
5.2000 1.7167 0.4098
5.2200 1.7234 0.4137
5.2400 1.7300 0.4129
5.2600 1.7366 0.4142
5.2800 1.7432 0.4112
5.3000 1.7499 0.4163
5.3200 1.7566 0.4067
5.3400 1.7633 0.4122
5.3600 1.7700 0.4175
5.3800 1.7767 0.4058
5.4000 1.7833 0.4127
5.4200 1.7900 0.4151
5.4400 1.7966 0.4059
5.4600 1.8032 0.4152
5.4800 1.8099 0.4212
5.5000 1.8167 0.4040
5.5200 1.8234 0.4136
5.5400 1.8301 0.4186
5.5600 1.8368 0.4014
5.5800 1.8435 0.4146
5.6000 1.8501 0.4213
5.6200 1.8567 0.4043
5.6400 1.8633 0.4191
5.6600 1.8700 0.4147
5.6800 1.8767 0.4034
5.7000 1.8834 0.4173
5.7200 1.8900 0.4145
5.7400 1.8967 0.4052
5.7600 1.9034 0.4126
5.7800 1.9100 0.4150
5.8000 1.9166 0.4043
5.8200 1.9232 0.4183
5.8400 1.9299 0.4177
5.8600 1.9366 0.4003
5.8800 1.9433 0.4166
5.9000 1.9500 0.4203
5.9200 1.9566 0.4016
5.9400 1.9633 0.4163
5.9600 1.9700 0.4162
5.9800 1.9766 0.4083
6.0000 1.9832 0.4158
6.0200 1.9899 0.4146
6.0400 1.9966 0.4100
6.0600 2.0033 0.4156
6.0800 2.0100 0.4180
6.1000 2.0167 0.4035
6.1200 2.0234 0.4149
6.1400 2.0301 0.4177
6.1600 2.0367 0.4029
6.1800 2.0433 0.4151
6.2000 2.0499 0.4211
6.2200 2.0566 0.4006
6.2400 2.0633 0.4161
6.2600 2.0700 0.4191
6.2800 2.0767 0.4055
6.3000 2.0834 0.4161
6.3200 2.0901 0.4162
6.3400 2.0967 0.4060
6.3600 2.1033 0.4191
6.3800 2.1100 0.4165
6.4000 2.1167 0.4052
6.4200 2.1234 0.4144
6.4400 2.1300 0.4163
6.4600 2.1367 0.4072
6.4800 2.1434 0.4152
6.5000 2.1501 0.4152
6.5200 2.1567 0.4068
6.5400 2.1633 0.4151
6.5600 2.1700 0.4135
6.5800 2.1766 0.4062
6.6000 2.1833 0.4150
6.6200 2.1900 0.4113
6.6400 2.1967 0.4064
6.6600 2.2034 0.4115
6.6800 2.2101 0.4090
6.7000 2.2166 0.4118
6.7200 2.2232 0.4125
6.7400 2.2299 0.4132
6.7600 2.2366 0.4110
6.7800 2.2433 0.4064
6.8000 2.2500 0.4112
6.8200 2.2567 0.4075
6.8400 2.2634 0.4095
6.8600 2.2700 0.4129
6.8800 2.2766 0.4152
6.9000 2.2833 0.4057
6.9200 2.2899 0.4145
6.9400 2.2967 0.4102
6.9600 2.3034 0.4035
6.9800 2.3100 0.4158
7.0000 2.3167 0.4065
7.0200 2.3234 0.4064
7.0400 2.3300 0.4148
7.0600 2.3367 0.4065
7.0800 2.3433 0.4093
7.1000 2.3500 0.4157
7.1200 2.3567 0.4051
7.1400 2.3634 0.4072
7.1600 2.3700 0.4162
7.1800 2.3767 0.4068
7.2000 2.3834 0.4046
7.2200 2.3901 0.4143
7.2400 2.3967 0.4002
7.2600 2.4033 0.4129
7.2800 2.4099 0.4123
7.3000 2.4167 0.4048
7.3200 2.4234 0.4124
7.3400 2.4300 0.4115
7.3600 2.4367 0.4080
7.3800 2.4434 0.4093
7.4000 2.4500 0.4095
7.4200 2.4566 0.4097
7.4400 2.4633 0.4060
7.4600 2.4699 0.4123
7.4800 2.4766 0.4104
7.5000 2.4833 0.4064
7.5200 2.4900 0.4075
7.5400 2.4967 0.4109
7.5600 2.5033 0.4053
7.5800 2.5100 0.4070
7.6000 2.5167 0.4142
7.6200 2.5233 0.4042
7.6400 2.5300 0.4089
7.6600 2.5367 0.4085
7.6800 2.5434 0.4039
7.7000 2.5501 0.4106
7.7200 2.5567 0.4140
7.7400 2.5634 0.4034
7.7600 2.5701 0.4065
7.7800 2.5767 0.4124
7.8000 2.5833 0.4056
7.8200 2.5899 0.4097
7.8400 2.5966 0.4100
7.8600 2.6033 0.4031
7.8800 2.6100 0.4091
7.9000 2.6167 0.4062
7.9200 2.6234 0.4041
7.9400 2.6301 0.4122
7.9600 2.6367 0.4058
7.9800 2.6433 0.4003
8.0000 2.6500 0.4118
8.0200 2.6566 0.4084
8.0400 2.6633 0.4010
8.0600 2.6700 0.4094
8.0800 2.6767 0.4045
8.1000 2.6834 0.4011
8.1200 2.6900 0.4051
8.1400 2.6967 0.4035
8.1600 2.7033 0.4100
8.1800 2.7099 0.4072
8.2000 2.7166 0.4006
8.2200 2.7233 0.4076
8.2400 2.7300 0.4080
8.2600 2.7367 0.4011
8.2800 2.7434 0.4050
8.3000 2.7501 0.4057
8.3200 2.7567 0.4032
8.3400 2.7633 0.4045
8.3600 2.7699 0.4070
8.3800 2.7766 0.4041
8.4000 2.7833 0.4059
8.4200 2.7900 0.4045
8.4400 2.7967 0.3981
8.4600 2.8034 0.4053
8.4800 2.8101 0.4025
8.5000 2.8167 0.4011
8.5200 2.8233 0.4068
8.5400 2.8300 0.3984
8.5600 2.8367 0.4069
8.5800 2.8434 0.4063
8.6000 2.8500 0.4016
8.6200 2.8567 0.4077
8.6400 2.8634 0.4051
8.6600 2.8701 0.4006
8.6800 2.8767 0.4036
8.7000 2.8833 0.4089
8.7200 2.8899 0.4003
8.7400 2.8966 0.4070
8.7600 2.9033 0.4037
8.7800 2.9100 0.3949
8.8000 2.9167 0.4091
8.8200 2.9234 0.4048
8.8400 2.9300 0.3950
8.8600 2.9366 0.4045
8.8800 2.9432 0.4088
8.9000 2.9499 0.3994
8.9200 2.9566 0.4007
8.9400 2.9633 0.4015
8.9600 2.9700 0.3995
8.9800 2.9766 0.4068
9.0000 2.9833 0.4012
9.0200 2.9900 0.3978
9.0400 2.9967 0.4087
9.0600 3.0033 0.3989
9.0800 3.0099 0.3986
9.1000 3.0166 0.4076
9.1200 3.0233 0.4049
9.1400 3.0300 0.3944
9.1600 3.0367 0.4039
9.1800 3.0434 0.4055
9.2000 3.0501 0.3953
9.2200 3.0567 0.4079
9.2400 3.0633 0.4029
9.2600 3.0699 0.3925
9.2800 3.0766 0.4118
9.3000 3.0834 0.3996
9.3200 3.0901 0.3874
9.3400 3.0967 0.4076
9.3600 3.1034 0.4048
9.3800 3.1101 0.3909
9.4000 3.1167 0.4074
9.4200 3.1233 0.4066
9.4400 3.1299 0.3915
9.4600 3.1366 0.4085
9.4800 3.1433 0.3979
9.5000 3.1500 0.3900
9.5200 3.1567 0.4117
9.5400 3.1634 0.3936
9.5600 3.1701 0.3874
9.5800 3.1767 0.4173
9.6000 3.1833 0.3973
9.6200 3.1899 0.3876
9.6400 3.1966 0.4171
9.6600 3.2033 0.3951
9.6800 3.2100 0.3924
9.7000 3.2167 0.4146
9.7200 3.2233 0.3917
9.7400 3.2300 0.3914
9.7600 3.2366 0.4111
9.7800 3.2432 0.3934
9.8000 3.2499 0.3970
9.8200 3.2566 0.4119
9.8400 3.2633 0.3924
9.8600 3.2701 0.3945
9.8800 3.2767 0.4091
9.9000 3.2834 0.3981
9.9200 3.2901 0.3968
9.9400 3.2967 0.4017
9.9600 3.3033 0.3973
9.9800 3.3099 0.4030
10.0000 3.3167 0.4058
10.0200 3.3234 0.4011
10.0400 3.3301 0.3988
10.0600 3.3368 0.4058
10.0800 3.3434 0.3968
10.1000 3.3501 0.3996
10.1200 3.3567 0.4067
10.1400 3.3633 0.3991
10.1600 3.3699 0.3976
10.1800 3.3766 0.4008
10.2000 3.3833 0.3999
10.2200 3.3900 0.3982
10.2400 3.3967 0.3998
10.2600 3.4033 0.3991
10.2800 3.4100 0.3949
10.3000 3.4167 0.4044
10.3200 3.4233 0.3989
10.3400 3.4299 0.3978
10.3600 3.4366 0.4078
10.3800 3.4433 0.3939
10.4000 3.4500 0.3982
10.4200 3.4567 0.4049
10.4400 3.4634 0.3972
10.4600 3.4700 0.3975
10.4800 3.4767 0.4043
10.5000 3.4833 0.3941
10.5200 3.4900 0.3968
10.5400 3.4966 0.4039
10.5600 3.5034 0.3962
10.5800 3.5100 0.3961
10.6000 3.5167 0.3992
10.6200 3.5234 0.3958
10.6400 3.5301 0.3994
10.6600 3.5367 0.3983
10.6800 3.5433 0.3932
10.7000 3.5499 0.3975
10.7200 3.5566 0.3957
10.7400 3.5633 0.3932
10.7600 3.5700 0.3963
10.7800 3.5767 0.3960
10.8000 3.5834 0.3932
10.8200 3.5901 0.3973
10.8400 3.5967 0.3931
10.8600 3.6033 0.3974
10.8800 3.6099 0.3985
10.9000 3.6166 0.3909
10.9200 3.6233 0.3984
10.9400 3.6300 0.3939
10.9600 3.6367 0.3951
10.9800 3.6434 0.4009
11.0000 3.6501 0.3881
11.0200 3.6567 0.3919
11.0400 3.6633 0.4010
11.0600 3.6699 0.3890
11.0800 3.6766 0.3897
11.1000 3.6833 0.4009
11.1200 3.6899 0.3861
11.1400 3.6966 0.3906
11.1600 3.7033 0.4025
11.1800 3.7100 0.3804
11.2000 3.7167 0.3932
11.2200 3.7233 0.3989
11.2400 3.7299 0.3819
11.2600 3.7366 0.4001
11.2800 3.7433 0.3937
11.3000 3.7501 0.3833
11.3200 3.7567 0.3979
11.3400 3.7634 0.3943
11.3600 3.7701 0.3876
11.3800 3.7768 0.3952
11.4000 3.7834 0.3922
11.4200 3.7900 0.3885
11.4400 3.7966 0.3980
11.4600 3.8033 0.3889
11.4800 3.8101 0.3858
11.5000 3.8168 0.3972
11.5200 3.8234 0.3850
11.5400 3.8301 0.3902
11.5600 3.8367 0.3952
11.5800 3.8433 0.3853
11.6000 3.8499 0.3920
11.6200 3.8566 0.3936
11.6400 3.8633 0.3883
11.6600 3.8700 0.3926
11.6800 3.8766 0.3883
11.7000 3.8833 0.3896
11.7200 3.8900 0.3910
11.7400 3.8967 0.3839
11.7600 3.9033 0.3878
11.7800 3.9099 0.3955
11.8000 3.9165 0.3865
11.8200 3.9233 0.3858
11.8400 3.9300 0.3936
11.8600 3.9366 0.3836
11.8800 3.9433 0.3900
11.9000 3.9500 0.3911
11.9200 3.9566 0.3834
11.9400 3.9632 0.3915
11.9600 3.9699 0.3960
11.9800 3.9766 0.3804
12.0000 3.9834 0.3848
12.0200 3.9901 0.3947
12.0400 3.9968 0.3857
12.0600 4.0034 0.3868
12.0800 4.0101 0.3942
12.1000 4.0167 0.3813
12.1200 4.0234 0.3877
12.1400 4.0300 0.3943
12.1600 4.0367 0.3832
12.1800 4.0433 0.3889
12.2000 4.0500 0.3866
12.2200 4.0567 0.3836
12.2400 4.0634 0.3865
12.2600 4.0701 0.3937
12.2800 4.0768 0.3810
12.3000 4.0834 0.3839
12.3200 4.0899 0.3921
12.3400 4.0966 0.3852
12.3600 4.1033 0.3904
12.3800 4.1100 0.3879
12.4000 4.1167 0.3856
12.4200 4.1234 0.3910
12.4400 4.1301 0.3921
12.4600 4.1367 0.3827
12.4800 4.1433 0.3925
12.5000 4.1499 0.3943
12.5200 4.1566 0.3826
12.5400 4.1633 0.3888
12.5600 4.1700 0.3936
12.5800 4.1767 0.3860
12.6000 4.1833 0.3874
12.6200 4.1900 0.3948
12.6400 4.1967 0.3858
12.6600 4.2034 0.3839
12.6800 4.2100 0.3960
12.7000 4.2166 0.3891
12.7200 4.2233 0.3840
12.7400 4.2300 0.3961
12.7600 4.2366 0.3838
12.7800 4.2434 0.3902
12.8000 4.2501 0.3945
12.8200 4.2568 0.3818
12.8400 4.2634 0.3910
12.8600 4.2700 0.3962
12.8800 4.2766 0.3816
12.9000 4.2833 0.3905
12.9200 4.2900 0.3974
12.9400 4.2967 0.3837
12.9600 4.3034 0.3859
12.9800 4.3101 0.3906
13.0000 4.3167 0.3839
13.0200 4.3234 0.3901
13.0400 4.3300 0.3924
13.0600 4.3366 0.3900
13.0800 4.3433 0.3869
13.1000 4.3501 0.3859
13.1200 4.3567 0.3829
13.1400 4.3634 0.3885
13.1600 4.3701 0.3910
13.1800 4.3767 0.3821
13.2000 4.3834 0.3857
13.2200 4.3899 0.3870
13.2400 4.3966 0.3879
13.2600 4.4032 0.3865
13.2800 4.4099 0.3878
13.3000 4.4166 0.3851
13.3200 4.4233 0.3841
13.3400 4.4301 0.3857
13.3600 4.4367 0.3814
13.3800 4.4434 0.3863
13.4000 4.4499 0.3876
13.4200 4.4566 0.3847
13.4400 4.4633 0.3838
13.4600 4.4700 0.3871
13.4800 4.4767 0.3821
13.5000 4.4834 0.3835
13.5200 4.4901 0.3917
13.5400 4.4967 0.3817
13.5600 4.5034 0.3801
13.5800 4.5100 0.3926
13.6000 4.5166 0.3813
13.6200 4.5233 0.3809
13.6400 4.5301 0.3930
13.6600 4.5367 0.3820
13.6800 4.5434 0.3807
13.7000 4.5500 0.3914
13.7200 4.5567 0.3809
13.7400 4.5633 0.3792
13.7600 4.5700 0.3933
13.7800 4.5766 0.3844
13.8000 4.5833 0.3791
13.8200 4.5900 0.3896
13.8400 4.5967 0.3835
13.8600 4.6034 0.3813
13.8800 4.6101 0.3924
13.9000 4.6167 0.3727
13.9200 4.6234 0.3796
13.9400 4.6299 0.3968
13.9600 4.6366 0.3791
13.9800 4.6432 0.3744
14.0000 4.6500 0.3947
14.0200 4.6567 0.3798
14.0400 4.6634 0.3818
14.0600 4.6700 0.3900
14.0800 4.6767 0.3809
14.1000 4.6833 0.3826
14.1200 4.6899 0.3867
14.1400 4.6966 0.3801
14.1600 4.7033 0.3849
14.1800 4.7100 0.3841
14.2000 4.7167 0.3814
14.2200 4.7234 0.3846
14.2400 4.7301 0.3853
14.2600 4.7368 0.3823
14.2800 4.7434 0.3801
14.3000 4.7500 0.3858
14.3200 4.7566 0.3800
14.3400 4.7632 0.3828
14.3600 4.7699 0.3877
14.3800 4.7767 0.3823
14.4000 4.7834 0.3805
14.4200 4.7901 0.3840
14.4400 4.7968 0.3817
14.4600 4.8034 0.3790
14.4800 4.8100 0.3844
14.5000 4.8166 0.3847
14.5200 4.8233 0.3799
14.5400 4.8300 0.3839
14.5600 4.8366 0.3799
14.5800 4.8433 0.3810
14.6000 4.8500 0.3899
14.6200 4.8567 0.3770
14.6400 4.8633 0.3764
14.6600 4.8699 0.3859
14.6800 4.8766 0.3816
14.7000 4.8833 0.3790
14.7200 4.8900 0.3854
14.7400 4.8966 0.3769
14.7600 4.9033 0.3781
14.7800 4.9100 0.3855
14.8000 4.9167 0.3782
14.8200 4.9234 0.3809
14.8400 4.9300 0.3857
14.8600 4.9366 0.3747
14.8800 4.9433 0.3852
14.9000 4.9500 0.3840
14.9200 4.9567 0.3747
14.9400 4.9634 0.3891
14.9600 4.9701 0.3804
14.9800 4.9768 0.3739
15.0000 4.9834 0.3844
15.0200 4.9900 0.3869
15.0400 4.9966 0.3765
15.0600 5.0033 0.3883
15.0800 5.0100 0.3780
15.1000 5.0167 0.3766
15.1200 5.0234 0.3916
15.1400 5.0300 0.3752
15.1600 5.0367 0.3769
15.1800 5.0433 0.3879
15.2000 5.0500 0.3724
15.2200 5.0566 0.3844
15.2400 5.0633 0.3848
15.2600 5.0700 0.3731
15.2800 5.0767 0.3870
15.3000 5.0834 0.3789
15.3200 5.0901 0.3748
15.3400 5.0968 0.3894
15.3600 5.1034 0.3775
15.3800 5.1100 0.3716
15.4000 5.1166 0.3892
15.4200 5.1232 0.3778
15.4400 5.1299 0.3775
15.4600 5.1366 0.3825
15.4800 5.1433 0.3769
15.5000 5.1500 0.3762
15.5200 5.1567 0.3830
15.5400 5.1633 0.3753
15.5600 5.1700 0.3767
15.5800 5.1766 0.3852
15.6000 5.1833 0.3745
15.6200 5.1900 0.3755
15.6400 5.1967 0.3829
15.6600 5.2034 0.3750
15.6800 5.2101 0.3789
15.7000 5.2167 0.3808
15.7200 5.2234 0.3664
15.7400 5.2300 0.3806
15.7600 5.2367 0.3814
15.7800 5.2433 0.3714
15.8000 5.2500 0.3731
15.8200 5.2567 0.3764
15.8400 5.2634 0.3760
15.8600 5.2701 0.3745
15.8800 5.2768 0.3785
15.9000 5.2834 0.3694
15.9200 5.2900 0.3766
15.9400 5.2965 0.3803
15.9600 5.3032 0.3739
15.9800 5.3099 0.3752
16.0000 5.3167 0.3759
16.0200 5.3234 0.3734
16.0400 5.3301 0.3760
16.0600 5.3367 0.3745
16.0800 5.3434 0.3697
16.1000 5.3500 0.3740
16.1200 5.3566 0.3783
16.1400 5.3633 0.3710
16.1600 5.3700 0.3787
16.1800 5.3767 0.3715
16.2000 5.3834 0.3637
16.2200 5.3900 0.3829
16.2400 5.3967 0.3788
16.2600 5.4034 0.3634
16.2800 5.4100 0.3738
16.3000 5.4167 0.3784
16.3200 5.4233 0.3637
16.3400 5.4300 0.3725
16.3600 5.4367 0.3822
16.3800 5.4434 0.3635
16.4000 5.4501 0.3730
16.4200 5.4568 0.3849
16.4400 5.4634 0.3635
16.4600 5.4700 0.3646
16.4800 5.4766 0.3886
16.5000 5.4833 0.3807
16.5200 5.4900 0.3564
16.5400 5.4967 0.3782
16.5600 5.5034 0.3810
16.5800 5.5101 0.3650
16.6000 5.5167 0.3752
16.6200 5.5234 0.3825
16.6400 5.5300 0.3646
16.6600 5.5366 0.3659
16.6800 5.5433 0.3882
16.7000 5.5500 0.3707
16.7200 5.5566 0.3682
16.7400 5.5633 0.3792
16.7600 5.5699 0.3666
16.7800 5.5766 0.3753
16.8000 5.5833 0.3796
16.8200 5.5900 0.3614
16.8400 5.5967 0.3764
16.8600 5.6033 0.3780
16.8800 5.6100 0.3681
16.9000 5.6167 0.3748
16.9200 5.6233 0.3779
16.9400 5.6300 0.3675
16.9600 5.6367 0.3796
16.9800 5.6434 0.3752
17.0000 5.6500 0.3672
17.0200 5.6566 0.3806
17.0400 5.6633 0.3756
17.0600 5.6700 0.3686
17.0800 5.6767 0.3743
17.1000 5.6834 0.3783
17.1200 5.6901 0.3687
17.1400 5.6967 0.3712
17.1600 5.7034 0.3748
17.1800 5.7100 0.3766
17.2000 5.7166 0.3751
17.2200 5.7233 0.3640
17.2400 5.7300 0.3767
17.2600 5.7367 0.3784
17.2800 5.7434 0.3641
17.3000 5.7501 0.3780
17.3200 5.7567 0.3760
17.3400 5.7634 0.3634
17.3600 5.7700 0.3757
17.3800 5.7766 0.3752
17.4000 5.7833 0.3743
17.4200 5.7899 0.3714
17.4400 5.7966 0.3707
17.4600 5.8033 0.3702
17.4800 5.8100 0.3786
17.5000 5.8167 0.3728
17.5200 5.8234 0.3657
17.5400 5.8300 0.3715
17.5600 5.8365 0.3775
17.5800 5.8431 0.3717
17.6000 5.8499 0.3694
17.6200 5.8566 0.3720
17.6400 5.8634 0.3720
17.6600 5.8700 0.3723
17.6800 5.8767 0.3757
17.7000 5.8834 0.3682
17.7200 5.8900 0.3668
17.7400 5.8966 0.3797
17.7600 5.9033 0.3680
17.7800 5.9100 0.3718
17.8000 5.9167 0.3810
17.8200 5.9234 0.3638
17.8400 5.9301 0.3705
17.8600 5.9368 0.3806
17.8800 5.9435 0.3640
17.9000 5.9501 0.3678
17.9200 5.9567 0.3737
17.9400 5.9633 0.3628
17.9600 5.9700 0.3761
17.9800 5.9767 0.3763
18.0000 5.9834 0.3632
18.0200 5.9901 0.3716
18.0400 5.9968 0.3742
18.0600 6.0034 0.3636
18.0800 6.0100 0.3699
18.1000 6.0166 0.3721
18.1200 6.0232 0.3676
18.1400 6.0299 0.3704
18.1600 6.0367 0.3728
18.1800 6.0434 0.3607
18.2000 6.0500 0.3742
18.2200 6.0567 0.3784
18.2400 6.0634 0.3588
18.2600 6.0700 0.3679
18.2800 6.0766 0.3751
18.3000 6.0833 0.3602
18.3200 6.0899 0.3715
18.3400 6.0966 0.3751
18.3600 6.1033 0.3582
18.3800 6.1100 0.3737
18.4000 6.1167 0.3698
18.4200 6.1234 0.3574
18.4400 6.1301 0.3767
18.4600 6.1367 0.3691
18.4800 6.1433 0.3580
18.5000 6.1500 0.3782
18.5200 6.1567 0.3688
18.5400 6.1634 0.3588
18.5600 6.1701 0.3766
18.5800 6.1767 0.3674
18.6000 6.1834 0.3543
18.6200 6.1900 0.3745
18.6400 6.1966 0.3629
18.6600 6.2033 0.3643
18.6800 6.2100 0.3726
18.7000 6.2167 0.3589
18.7200 6.2234 0.3619
18.7400 6.2301 0.3694
18.7600 6.2367 0.3633
18.7800 6.2434 0.3633
18.8000 6.2500 0.3642
18.8200 6.2566 0.3638
18.8400 6.2633 0.3707
18.8600 6.2700 0.3646
18.8800 6.2767 0.3596
18.9000 6.2833 0.3663
18.9200 6.2900 0.3654
18.9400 6.2967 0.3660
18.9600 6.3034 0.3619
18.9800 6.3100 0.3596
19.0000 6.3166 0.3674
19.0200 6.3232 0.3648
19.0400 6.3299 0.3579
19.0600 6.3366 0.3692
19.0800 6.3433 0.3591
19.1000 6.3500 0.3571
19.1200 6.3567 0.3677
19.1400 6.3634 0.3617
19.1600 6.3700 0.3587
19.1800 6.3766 0.3695
19.2000 6.3833 0.3584
19.2200 6.3900 0.3612
19.2400 6.3967 0.3715
19.2600 6.4034 0.3544
19.2800 6.4101 0.3579
19.3000 6.4168 0.3743
19.3200 6.4234 0.3530
19.3400 6.4300 0.3628
19.3600 6.4366 0.3734
19.3800 6.4432 0.3535
19.4000 6.4499 0.3650
19.4200 6.4566 0.3665
19.4400 6.4633 0.3558
19.4600 6.4700 0.3681
19.4800 6.4767 0.3687
19.5000 6.4834 0.3505
19.5200 6.4901 0.3686
19.5400 6.4967 0.3675
19.5600 6.5033 0.3569
19.5800 6.5099 0.3688
19.6000 6.5166 0.3588
19.6200 6.5233 0.3580
19.6400 6.5300 0.3749
19.6600 6.5367 0.3578
19.6800 6.5434 0.3585
19.7000 6.5500 0.3734
19.7200 6.5566 0.3585
19.7400 6.5632 0.3664
19.7600 6.5699 0.3712
19.7800 6.5766 0.3544
19.8000 6.5833 0.3571
19.8200 6.5900 0.3696
19.8400 6.5967 0.3565
19.8600 6.6033 0.3639
19.8800 6.6100 0.3662
19.9000 6.6166 0.3562
19.9200 6.6233 0.3634
19.9400 6.6299 0.3681
19.9600 6.6367 0.3570
19.9800 6.6433 0.3654
20.0000 6.6500 0.3656
20.0200 6.6567 0.3587
20.0400 6.6634 0.3662
20.0600 6.6701 0.3610
20.0800 6.6767 0.3588
20.1000 6.6833 0.3669
20.1200 6.6900 0.3616
20.1400 6.6967 0.3583
20.1600 6.7034 0.3662
20.1800 6.7101 0.3604
20.2000 6.7167 0.3568
20.2200 6.7234 0.3634
20.2400 6.7300 0.3595
20.2600 6.7366 0.3592
20.2800 6.7433 0.3630
20.3000 6.7499 0.3532
20.3200 6.7566 0.3627
20.3400 6.7633 0.3645
20.3600 6.7700 0.3566
20.3800 6.7767 0.3600
20.4000 6.7834 0.3635
20.4200 6.7900 0.3603
20.4400 6.7966 0.3570
20.4600 6.8032 0.3562
20.4800 6.8099 0.3634
20.5000 6.8166 0.3599
20.5200 6.8233 0.3545
20.5400 6.8300 0.3628
20.5600 6.8367 0.3616
20.5800 6.8434 0.3614
20.6000 6.8501 0.3593
20.6200 6.8567 0.3568
20.6400 6.8633 0.3657
20.6600 6.8700 0.3626
20.6800 6.8767 0.3556
20.7000 6.8834 0.3632
20.7200 6.8901 0.3570
20.7400 6.8967 0.3585
20.7600 6.9034 0.3635
20.7800 6.9101 0.3580
20.8000 6.9167 0.3591
20.8200 6.9233 0.3630
20.8400 6.9299 0.3615
20.8600 6.9367 0.3580
20.8800 6.9434 0.3618
20.9000 6.9501 0.3596
20.9200 6.9567 0.3568
20.9400 6.9634 0.3635
20.9600 6.9701 0.3581
20.9800 6.9767 0.3563
21.0000 6.9833 0.3673
21.0200 6.9899 0.3598
21.0400 6.9966 0.3583
21.0600 7.0033 0.3608
21.0800 7.0100 0.3617
21.1000 7.0167 0.3545
21.1200 7.0234 0.3589
21.1400 7.0301 0.3607
21.1600 7.0367 0.3541
21.1800 7.0432 0.3605
21.2000 7.0499 0.3630
21.2200 7.0566 0.3606
21.2400 7.0633 0.3553
21.2600 7.0700 0.3597
21.2800 7.0767 0.3588
21.3000 7.0833 0.3585
21.3200 7.0900 0.3583
21.3400 7.0966 0.3530
21.3600 7.1033 0.3609
21.3800 7.1099 0.3633
21.4000 7.1166 0.3528
21.4200 7.1233 0.3566
21.4400 7.1300 0.3598
21.4600 7.1367 0.3537
21.4800 7.1434 0.3569
21.5000 7.1501 0.3622
21.5200 7.1567 0.3547
21.5400 7.1633 0.3528
21.5600 7.1700 0.3613
21.5800 7.1766 0.3504
21.6000 7.1833 0.3605
21.6200 7.1900 0.3561
21.6400 7.1967 0.3510
21.6600 7.2034 0.3605
21.6800 7.2101 0.3557
21.7000 7.2167 0.3494
21.7200 7.2233 0.3603
21.7400 7.2299 0.3565
21.7600 7.2366 0.3489
21.7800 7.2433 0.3596
21.8000 7.2500 0.3525
21.8200 7.2567 0.3480
21.8400 7.2634 0.3578
21.8600 7.2700 0.3530
21.8800 7.2766 0.3490
21.9000 7.2832 0.3618
21.9200 7.2899 0.3496
21.9400 7.2966 0.3483
21.9600 7.3033 0.3564
21.9800 7.3100 0.3524
22.0000 7.3167 0.3484
22.0200 7.3234 0.3528
22.0400 7.3300 0.3512
22.0600 7.3367 0.3552
22.0800 7.3433 0.3513
22.1000 7.3500 0.3512
22.1200 7.3566 0.3555
22.1400 7.3633 0.3438
22.1600 7.3700 0.3484
22.1800 7.3767 0.3560
22.2000 7.3834 0.3427
22.2200 7.3901 0.3537
22.2400 7.3967 0.3543
22.2600 7.4033 0.3464
22.2800 7.4100 0.3551
22.3000 7.4167 0.3484
22.3200 7.4234 0.3516
22.3400 7.4301 0.3496
22.3600 7.4367 0.3442
22.3800 7.4434 0.3472
22.4000 7.4501 0.3573
22.4200 7.4567 0.3436
22.4400 7.4633 0.3436
22.4600 7.4699 0.3581
22.4800 7.4766 0.3465
22.5000 7.4833 0.3467
22.5200 7.4900 0.3470
22.5400 7.4967 0.3424
22.5600 7.5034 0.3544
22.5800 7.5101 0.3466
22.6000 7.5167 0.3395
22.6200 7.5233 0.3584
22.6400 7.5299 0.3507
22.6600 7.5366 0.3363
22.6800 7.5433 0.3542
22.7000 7.5500 0.3559
22.7200 7.5567 0.3377
22.7400 7.5634 0.3507
22.7600 7.5701 0.3508
22.7800 7.5767 0.3441
22.8000 7.5833 0.3549
22.8200 7.5899 0.3411
22.8400 7.5966 0.3406
22.8600 7.6033 0.3573
22.8800 7.6100 0.3484
22.9000 7.6167 0.3372
22.9200 7.6234 0.3514
22.9400 7.6301 0.3498
22.9600 7.6367 0.3405
22.9800 7.6434 0.3515
23.0000 7.6500 0.3488
23.0200 7.6566 0.3477
23.0400 7.6633 0.3495
23.0600 7.6700 0.3426
23.0800 7.6767 0.3454
23.1000 7.6834 0.3508
23.1200 7.6901 0.3419
23.1400 7.6967 0.3428
23.1600 7.7033 0.3529
23.1800 7.7099 0.3484
23.2000 7.7166 0.3439
23.2200 7.7233 0.3454
23.2400 7.7300 0.3523
23.2600 7.7367 0.3484
23.2800 7.7434 0.3393
23.3000 7.7501 0.3454
23.3200 7.7567 0.3518
23.3400 7.7633 0.3478
23.3600 7.7699 0.3409
23.3800 7.7766 0.3519
23.4000 7.7833 0.3446
23.4200 7.7900 0.3438
23.4400 7.7966 0.3464
23.4600 7.8033 0.3456
23.4800 7.8100 0.3516
23.5000 7.8167 0.3470
23.5200 7.8233 0.3380
23.5400 7.8299 0.3491
23.5600 7.8366 0.3543
23.5800 7.8433 0.3402
23.6000 7.8500 0.3453
23.6200 7.8567 0.3461
23.6400 7.8634 0.3421
23.6600 7.8701 0.3483
23.6800 7.8767 0.3502
23.7000 7.8833 0.3406
23.7200 7.8899 0.3474
23.7400 7.8966 0.3463
23.7600 7.9033 0.3429
23.7800 7.9100 0.3487
23.8000 7.9167 0.3502
23.8200 7.9234 0.3398
23.8400 7.9301 0.3434
23.8600 7.9367 0.3479
23.8800 7.9433 0.3455
23.9000 7.9499 0.3436
23.9200 7.9566 0.3441
23.9400 7.9633 0.3481
23.9600 7.9700 0.3434
23.9800 7.9767 0.3453
24.0000 7.9834 0.3500
24.0200 7.9901 0.3413
24.0400 7.9967 0.3411
24.0600 8.0033 0.3484
24.0800 8.0099 0.3449
24.1000 8.0166 0.3368
24.1200 8.0233 0.3487
24.1400 8.0300 0.3447
24.1600 8.0367 0.3381
24.1800 8.0433 0.3534
24.2000 8.0500 0.3410
24.2200 8.0566 0.3341
24.2400 8.0632 0.3436
24.2600 8.0699 0.3512
24.2800 8.0766 0.3469
24.3000 8.0833 0.3364
24.3200 8.0900 0.3342
24.3400 8.0967 0.3470
24.3600 8.1034 0.3526
24.3800 8.1101 0.3354
24.4000 8.1167 0.3424
24.4200 8.1233 0.3447
24.4400 8.1299 0.3402
24.4600 8.1366 0.3427
24.4800 8.1434 0.3407
24.5000 8.1501 0.3428
24.5200 8.1568 0.3429
24.5400 8.1634 0.3351
24.5600 8.1701 0.3454
24.5800 8.1767 0.3472
24.6000 8.1833 0.3379
24.6200 8.1899 0.3378
24.6400 8.1966 0.3406
24.6600 8.2033 0.3416
24.6800 8.2100 0.3484
24.7000 8.2167 0.3410
24.7200 8.2233 0.3322
24.7400 8.2300 0.3477
24.7600 8.2367 0.3377
24.7800 8.2433 0.3376
24.8000 8.2499 0.3463
24.8200 8.2566 0.3371
24.8400 8.2633 0.3375
24.8600 8.2700 0.3476
24.8800 8.2767 0.3380
24.9000 8.2834 0.3337
24.9200 8.2900 0.3411
24.9400 8.2967 0.3412
24.9600 8.3033 0.3470
24.9800 8.3099 0.3357
25.0000 8.3166 0.3333
25.0200 8.3233 0.3410
25.0400 8.3300 0.3399
25.0600 8.3367 0.3509
25.0800 8.3434 0.3419
25.1000 8.3501 0.3192
25.1200 8.3567 0.3358
25.1400 8.3633 0.3561
25.1600 8.3699 0.3398
25.1800 8.3766 0.3403
25.2000 8.3833 0.3433
25.2200 8.3900 0.3186
25.2400 8.3967 0.3517
25.2600 8.4034 0.3624
25.2800 8.4101 0.3273
25.3000 8.4167 0.3343
25.3200 8.4233 0.3377
25.3400 8.4299 0.3387
25.3600 8.4366 0.3549
25.3800 8.4433 0.3364
25.4000 8.4500 0.3234
25.4200 8.4567 0.3462
25.4400 8.4634 0.3458
25.4600 8.4700 0.3349
25.4800 8.4767 0.3461
25.5000 8.4833 0.3328
25.5200 8.4899 0.3320
25.5400 8.4965 0.3568
25.5600 8.5032 0.3420
25.5800 8.5099 0.3334
25.6000 8.5166 0.3447
25.6200 8.5233 0.3432
25.6400 8.5300 0.3315
25.6600 8.5367 0.3508
25.6800 8.5433 0.3382
25.7000 8.5499 0.3288
25.7200 8.5566 0.3481
25.7400 8.5633 0.3361
25.7600 8.5700 0.3364
25.7800 8.5767 0.3466
25.8000 8.5834 0.3376
25.8200 8.5901 0.3324
25.8400 8.5968 0.3477
25.8600 8.6034 0.3356
25.8800 8.6100 0.3367
25.9000 8.6166 0.3463
25.9200 8.6233 0.3374
25.9400 8.6300 0.3366
25.9600 8.6367 0.3406
25.9800 8.6434 0.3378
26.0000 8.6501 0.3476
26.0200 8.6568 0.3348
26.0400 8.6634 0.3282
26.0600 8.6700 0.3474
26.0800 8.6766 0.3467
26.1000 8.6833 0.3326
26.1200 8.6900 0.3394
26.1400 8.6966 0.3406
26.1600 8.7033 0.3344
26.1800 8.7100 0.3395
26.2000 8.7167 0.3412
26.2200 8.7233 0.3364
26.2400 8.7299 0.3340
26.2600 8.7365 0.3363
26.2800 8.7432 0.3380
26.3000 8.7500 0.3373
26.3200 8.7567 0.3381
26.3400 8.7633 0.3418
26.3600 8.7700 0.3317
26.3800 8.7767 0.3276
26.4000 8.7833 0.3408
26.4200 8.7899 0.3380
26.4400 8.7966 0.3307
26.4600 8.8033 0.3319
26.4800 8.8100 0.3355
26.5000 8.8167 0.3350
26.5200 8.8234 0.3346
26.5400 8.8301 0.3326
26.5600 8.8368 0.3306
26.5800 8.8434 0.3329
26.6000 8.8500 0.3348
26.6200 8.8567 0.3314
26.6400 8.8633 0.3285
26.6600 8.8700 0.3401
26.6800 8.8767 0.3387
26.7000 8.8834 0.3225
26.7200 8.8901 0.3378
26.7400 8.8968 0.3359
26.7600 8.9034 0.3238
26.7800 8.9100 0.3331
26.8000 8.9166 0.3442
26.8200 8.9233 0.3370
26.8400 8.9300 0.3233
26.8600 8.9367 0.3359
26.8800 8.9434 0.3371
26.9000 8.9500 0.3313
26.9200 8.9567 0.3329
26.9400 8.9633 0.3298
26.9600 8.9699 0.3313
26.9800 8.9766 0.3375
27.0000 8.9833 0.3324
27.0200 8.9900 0.3311
27.0400 8.9967 0.3387
27.0600 9.0033 0.3292
27.0800 9.0100 0.3270
27.1000 9.0167 0.3380
27.1200 9.0233 0.3350
27.1400 9.0300 0.3281
27.1600 9.0366 0.3350
27.1800 9.0433 0.3316
27.2000 9.0500 0.3249
27.2200 9.0567 0.3376
27.2400 9.0634 0.3360
27.2600 9.0701 0.3188
27.2800 9.0768 0.3337
27.3000 9.0834 0.3413
27.3200 9.0900 0.3219
27.3400 9.0966 0.3300
27.3600 9.1033 0.3474
27.3800 9.1100 0.3259
27.4000 9.1167 0.3214
27.4200 9.1234 0.3421
27.4400 9.1301 0.3280
27.4600 9.1367 0.3211
27.4800 9.1434 0.3378
27.5000 9.1500 0.3318
27.5200 9.1566 0.3233
27.5400 9.1633 0.3334
27.5600 9.1700 0.3307
27.5800 9.1767 0.3260
27.6000 9.1834 0.3369
27.6200 9.1900 0.3325
27.6400 9.1967 0.3276
27.6600 9.2034 0.3306
27.6800 9.2099 0.3243
27.7000 9.2166 0.3364
27.7200 9.2232 0.3327
27.7400 9.2299 0.3168
27.7600 9.2366 0.3335
27.7800 9.2433 0.3361
27.8000 9.2500 0.3196
27.8200 9.2567 0.3256
27.8400 9.2634 0.3428
27.8600 9.2700 0.3196
27.8800 9.2766 0.3195
27.9000 9.2833 0.3422
27.9200 9.2900 0.3255
27.9400 9.2967 0.3243
27.9600 9.3034 0.3362
27.9800 9.3101 0.3242
28.0000 9.3168 0.3195
28.0200 9.3234 0.3288
28.0400 9.3300 0.3332
28.0600 9.3366 0.3339
28.0800 9.3433 0.3259
28.1000 9.3500 0.3241
28.1200 9.3567 0.3285
28.1400 9.3634 0.3261
28.1600 9.3700 0.3342
28.1800 9.3767 0.3336
28.2000 9.3834 0.3192
28.2200 9.3900 0.3176
28.2400 9.3966 0.3315
28.2600 9.4033 0.3365
28.2800 9.4100 0.3277
28.3000 9.4167 0.3199
28.3200 9.4233 0.3232
28.3400 9.4300 0.3300
28.3600 9.4367 0.3264
28.3800 9.4434 0.3275
28.4000 9.4500 0.3345
28.4200 9.4566 0.3180
28.4400 9.4633 0.3157
28.4600 9.4700 0.3441
28.4800 9.4767 0.3286
28.5000 9.4833 0.3142
28.5200 9.4900 0.3237
28.5400 9.4967 0.3312
28.5600 9.5034 0.3241
28.5800 9.5100 0.3274
28.6000 9.5166 0.3287
28.6200 9.5233 0.3070
28.6400 9.5300 0.3400
28.6600 9.5367 0.3334
28.6800 9.5434 0.3105
28.7000 9.5501 0.3313
28.7200 9.5568 0.3286
28.7400 9.5634 0.3101
28.7600 9.5700 0.3433
28.7800 9.5766 0.3306
28.8000 9.5833 0.3065
28.8200 9.5900 0.3304
28.8400 9.5967 0.3273
28.8600 9.6034 0.3196
28.8800 9.6101 0.3363
28.9000 9.6168 0.3144
28.9200 9.6234 0.3057
28.9400 9.6300 0.3458
28.9600 9.6366 0.3251
28.9800 9.6432 0.3103
29.0000 9.6499 0.3332
29.0200 9.6566 0.3177
29.0400 9.6633 0.3149
29.0600 9.6700 0.3427
29.0800 9.6767 0.3085
29.1000 9.6834 0.3092
29.1200 9.6900 0.3429
29.1400 9.6966 0.3083
29.1600 9.7032 0.3167
29.1800 9.7100 0.3478
29.2000 9.7167 0.3086
29.2200 9.7233 0.3027
29.2400 9.7300 0.3422
29.2600 9.7367 0.3319
29.2800 9.7434 0.3000
29.3000 9.7500 0.3220
29.3200 9.7566 0.3306
29.3400 9.7633 0.3123
29.3600 9.7700 0.3237
29.3800 9.7767 0.3187
29.4000 9.7834 0.3207
29.4200 9.7901 0.3264
29.4400 9.7968 0.3145
29.4600 9.8034 0.3110
29.4800 9.8100 0.3311
29.5000 9.8166 0.3274
29.5200 9.8233 0.3098
29.5400 9.8300 0.3176
29.5600 9.8367 0.3235
29.5800 9.8434 0.3164
29.6000 9.8501 0.3216
29.6200 9.8567 0.3220
29.6400 9.8634 0.3098
29.6600 9.8700 0.3226
29.6800 9.8766 0.3128
29.7000 9.8833 0.3126
29.7200 9.8900 0.3343
29.7400 9.8967 0.3161
29.7600 9.9033 0.3061
29.7800 9.9100 0.3220
29.8000 9.9167 0.3182
29.8200 9.9233 0.3218
29.8400 9.9299 0.3208
29.8600 9.9365 0.3094
29.8800 9.9432 0.3186
29.9000 9.9499 0.3234
29.9200 9.9566 0.3078
29.9400 9.9633 0.3226
29.9600 9.9700 0.3264
29.9800 9.9767 0.3008
30.0000 9.9834 0.3147
30.0200 9.9900 0.3286
30.0400 9.9966 0.3128
30.0600 10.0033 0.3142
30.0800 10.0100 0.3192
30.1000 10.0167 0.3043
30.1200 10.0234 0.3257
30.1400 10.0301 0.3226
30.1600 10.0367 0.3015
30.1800 10.0434 0.3220
30.2000 10.0500 0.3292
30.2200 10.0567 0.3061
30.2400 10.0633 0.3157
30.2600 10.0700 0.3245
30.2800 10.0767 0.3121
30.3000 10.0834 0.3174
30.3200 10.0901 0.3169
30.3400 10.0967 0.3096
30.3600 10.1034 0.3147
30.3800 10.1100 0.3224
30.4000 10.1166 0.3118
30.4200 10.1232 0.3218
30.4400 10.1299 0.3187
30.4600 10.1366 0.3093
30.4800 10.1433 0.3164
30.5000 10.1500 0.3140
30.5200 10.1567 0.3173
30.5400 10.1634 0.3143
30.5600 10.1700 0.3120
30.5800 10.1766 0.3138
30.6000 10.1833 0.3139
30.6200 10.1900 0.3177
30.6400 10.1967 0.3114
30.6600 10.2034 0.3124
30.6800 10.2100 0.3179
30.7000 10.2167 0.3065
30.7200 10.2234 0.3121
30.7400 10.2300 0.3185
30.7600 10.2366 0.3146
30.7800 10.2433 0.3105
30.8000 10.2500 0.3207
30.8200 10.2567 0.3081
30.8400 10.2634 0.3121
30.8600 10.2701 0.3229
30.8800 10.2767 0.3071
30.9000 10.2834 0.3112
30.9200 10.2900 0.3147
30.9400 10.2966 0.3117
30.9600 10.3033 0.3123
30.9800 10.3100 0.3170
31.0000 10.3167 0.3076
31.0200 10.3234 0.3147
31.0400 10.3301 0.3136
31.0600 10.3367 0.3088
31.0800 10.3434 0.3174
31.1000 10.3500 0.3111
31.1200 10.3566 0.3125
31.1400 10.3632 0.3167
31.1600 10.3699 0.3088
31.1800 10.3767 0.3118
31.2000 10.3833 0.3077
31.2200 10.3900 0.3089
31.2400 10.3967 0.3167
31.2600 10.4034 0.3048
31.2800 10.4100 0.3101
31.3000 10.4166 0.3196
31.3200 10.4233 0.3062
31.3400 10.4299 0.3078
31.3600 10.4366 0.3186
31.3800 10.4433 0.3013
31.4000 10.4500 0.3108
31.4200 10.4567 0.3152
31.4400 10.4634 0.3031
31.4600 10.4700 0.3115
31.4800 10.4766 0.3121
31.5000 10.4833 0.3010
31.5200 10.4900 0.3173
31.5400 10.4967 0.3094
31.5600 10.5034 0.3006
31.5800 10.5101 0.3166
31.6000 10.5168 0.3105
31.6200 10.5234 0.2992
31.6400 10.5300 0.3187
31.6600 10.5366 0.3113
31.6800 10.5433 0.3034
31.7000 10.5500 0.3141
31.7200 10.5567 0.3069
31.7400 10.5634 0.3066
31.7600 10.5701 0.3149
31.7800 10.5768 0.3110
31.8000 10.5834 0.3035
31.8200 10.5900 0.3128
31.8400 10.5966 0.3039
31.8600 10.6033 0.3078
31.8800 10.6099 0.3171
31.9000 10.6166 0.3068
31.9200 10.6233 0.3037
31.9400 10.6300 0.3143
31.9600 10.6367 0.3103
31.9800 10.6434 0.3055
32.0000 10.6500 0.3090
32.0200 10.6566 0.3058
32.0400 10.6632 0.3099
32.0600 10.6699 0.3137
32.0800 10.6766 0.3085
32.1000 10.6834 0.3108
32.1200 10.6900 0.3123
32.1400 10.6967 0.3070
32.1600 10.7034 0.3102
32.1800 10.7100 0.3028
32.2000 10.7166 0.3081
32.2200 10.7233 0.3168
32.2400 10.7300 0.3099
32.2600 10.7367 0.3086
32.2800 10.7434 0.3074
32.3000 10.7501 0.3058
32.3200 10.7568 0.3123
32.3400 10.7635 0.3077
32.3600 10.7701 0.3049
32.3800 10.7767 0.3085
32.4000 10.7833 0.3079
32.4200 10.7900 0.3080
32.4400 10.7967 0.3114
32.4600 10.8034 0.3093
32.4800 10.8101 0.3082
32.5000 10.8167 0.3103
32.5200 10.8234 0.3051
32.5400 10.8300 0.3059
32.5600 10.8366 0.3163
32.5800 10.8432 0.3062
32.6000 10.8499 0.3004
32.6200 10.8567 0.3161
32.6400 10.8634 0.3099
32.6600 10.8700 0.3006
32.6800 10.8767 0.3131
32.7000 10.8834 0.3074
32.7200 10.8900 0.3063
32.7400 10.8966 0.3104
32.7600 10.9032 0.3025
32.7800 10.9099 0.3063
32.8000 10.9166 0.3169
32.8200 10.9233 0.3015
32.8400 10.9300 0.3016
32.8600 10.9367 0.3126
32.8800 10.9434 0.3030
32.9000 10.9500 0.3028
32.9200 10.9566 0.3136
32.9400 10.9633 0.3014
32.9600 10.9699 0.3052
32.9800 10.9767 0.3090
33.0000 10.9834 0.3000
33.0200 10.9900 0.3127
33.0400 10.9967 0.3051
33.0600 11.0034 0.2987
33.0800 11.0101 0.3064
33.1000 11.0166 0.3030
33.1200 11.0233 0.3088
33.1400 11.0299 0.3067
33.1600 11.0367 0.2979
33.1800 11.0434 0.3042
33.2000 11.0501 0.3058
33.2200 11.0568 0.3004
33.2400 11.0634 0.3078
33.2600 11.0701 0.3054
33.2800 11.0767 0.2974
33.3000 11.0833 0.3110
33.3200 11.0899 0.2977
33.3400 11.0967 0.3066
33.3600 11.1033 0.3121
33.3800 11.1100 0.2910
33.4000 11.1167 0.3042
33.4200 11.1234 0.3103
33.4400 11.1300 0.2903
33.4600 11.1366 0.3092
33.4800 11.1432 0.3083
33.5000 11.1499 0.2915
33.5200 11.1566 0.3149
33.5400 11.1633 0.3025
33.5600 11.1700 0.2904
33.5800 11.1767 0.3208
33.6000 11.1834 0.3029
33.6200 11.1900 0.2861
33.6400 11.1966 0.3183
33.6600 11.2033 0.2997
33.6800 11.2100 0.2952
33.7000 11.2167 0.3170
33.7200 11.2234 0.2956
33.7400 11.2301 0.2962
33.7600 11.2368 0.3150
33.7800 11.2434 0.3004
33.8000 11.2501 0.2963
33.8200 11.2567 0.3121
33.8400 11.2632 0.3016
33.8600 11.2699 0.2964
33.8800 11.2766 0.3108
33.9000 11.2833 0.2983
33.9200 11.2900 0.2958
33.9400 11.2967 0.3058
33.9600 11.3034 0.2970
33.9800 11.3101 0.3031
34.0000 11.3167 0.3024
34.0200 11.3233 0.3037
34.0400 11.3299 0.3038
34.0600 11.3366 0.3035
34.0800 11.3433 0.3003
34.1000 11.3500 0.3003
34.1200 11.3567 0.3017
34.1400 11.3634 0.2988
34.1600 11.3701 0.2950
34.1800 11.3767 0.3023
34.2000 11.3832 0.3153
34.2200 11.3899 0.2933
34.2400 11.3966 0.2907
34.2600 11.4033 0.3163
34.2800 11.4100 0.3055
34.3000 11.4167 0.2942
34.3200 11.4233 0.3043
34.3400 11.4300 0.2907
34.3600 11.4366 0.3023
34.3800 11.4433 0.3166
34.4000 11.4499 0.2903
34.4200 11.4567 0.2932
34.4400 11.4634 0.3160
34.4600 11.4700 0.2942
34.4800 11.4767 0.2971
34.5000 11.4834 0.3140
34.5200 11.4901 0.2924
34.5400 11.4967 0.2951
34.5600 11.5033 0.3043
34.5800 11.5100 0.2958
34.6000 11.5167 0.3037
34.6200 11.5234 0.3055
34.6400 11.5301 0.2900
34.6600 11.5367 0.3004
34.6800 11.5434 0.3110
34.7000 11.5500 0.2874
34.7200 11.5566 0.2926
34.7400 11.5633 0.3181
34.7600 11.5699 0.2961
34.7800 11.5766 0.2902
34.8000 11.5833 0.3025
34.8200 11.5900 0.2977
34.8400 11.5967 0.2997
34.8600 11.6033 0.3035
34.8800 11.6100 0.2930
34.9000 11.6166 0.2939
34.9200 11.6232 0.3024
34.9400 11.6299 0.2967
34.9600 11.6366 0.3040
34.9800 11.6433 0.3041
35.0000 11.6500 0.2892
35.0200 11.6567 0.2957
35.0400 11.6634 0.3001
35.0600 11.6701 0.2947
35.0800 11.6767 0.3002
35.1000 11.6833 0.2944
35.1200 11.6899 0.2913
35.1400 11.6966 0.3014
35.1600 11.7034 0.2954
35.1800 11.7100 0.2916
35.2000 11.7167 0.3011
35.2200 11.7234 0.2991
35.2400 11.7301 0.2918
35.2600 11.7367 0.2930
35.2800 11.7433 0.3033
35.3000 11.7499 0.2975
35.3200 11.7566 0.2884
35.3400 11.7634 0.2991
35.3600 11.7700 0.2948
35.3800 11.7767 0.2906
35.4000 11.7834 0.2997
35.4200 11.7901 0.2984
35.4400 11.7967 0.2893
35.4600 11.8033 0.2975
35.4800 11.8099 0.2976
35.5000 11.8166 0.2956
35.5200 11.8233 0.2993
35.5400 11.8300 0.2884
35.5600 11.8367 0.2929
35.5800 11.8434 0.3036
35.6000 11.8501 0.2916
35.6200 11.8567 0.2876
35.6400 11.8633 0.2987
35.6600 11.8699 0.2955
35.6800 11.8766 0.2920
35.7000 11.8833 0.2959
35.7200 11.8900 0.2915
35.7400 11.8967 0.2912
35.7600 11.9034 0.2973
35.7800 11.9100 0.2943
35.8000 11.9167 0.2932
35.8200 11.9233 0.2923
35.8400 11.9299 0.3041
35.8600 11.9366 0.2902
35.8800 11.9433 0.2927
35.9000 11.9500 0.2967
35.9200 11.9567 0.2912
35.9400 11.9634 0.2947
35.9600 11.9701 0.2933
35.9800 11.9767 0.2880
36.0000 11.9833 0.2937
36.0200 11.9899 0.3005
36.0400 11.9966 0.2890
36.0600 12.0033 0.2966
36.0800 12.0100 0.2909
36.1000 12.0167 0.2905
36.1200 12.0234 0.2963
36.1400 12.0301 0.2878
36.1600 12.0367 0.2929
36.1800 12.0433 0.2940
36.2000 12.0499 0.2865
36.2200 12.0566 0.2957
36.2400 12.0634 0.2925
36.2600 12.0700 0.2911
36.2800 12.0767 0.2922
36.3000 12.0834 0.2863
36.3200 12.0900 0.2893
36.3400 12.0967 0.2935
36.3600 12.1033 0.2953
36.3800 12.1099 0.2886
36.4000 12.1166 0.2895
36.4200 12.1233 0.2890
36.4400 12.1300 0.2975
36.4600 12.1366 0.2850
36.4800 12.1433 0.2826
36.5000 12.1500 0.3014
36.5200 12.1567 0.2901
36.5400 12.1633 0.2825
36.5600 12.1699 0.2982
36.5800 12.1766 0.2888
36.6000 12.1833 0.2869
36.6200 12.1901 0.2957
36.6400 12.1967 0.2815
36.6600 12.2034 0.2825
36.6800 12.2101 0.2983
36.7000 12.2167 0.2853
36.7200 12.2233 0.2803
36.7400 12.2299 0.3018
36.7600 12.2367 0.2809
36.7800 12.2434 0.2756
36.8000 12.2501 0.3018
36.8200 12.2567 0.2837
36.8400 12.2634 0.2841
36.8600 12.2700 0.2986
36.8800 12.2767 0.2752
36.9000 12.2833 0.2858
36.9200 12.2899 0.3015
36.9400 12.2966 0.2774
36.9600 12.3033 0.2864
36.9800 12.3100 0.3004
37.0000 12.3167 0.2702
37.0200 12.3234 0.2861
37.0400 12.3301 0.2982
37.0600 12.3367 0.2727
37.0800 12.3433 0.2913
37.1000 12.3499 0.2939
37.1200 12.3566 0.2735
37.1400 12.3633 0.2915
37.1600 12.3700 0.2936
37.1800 12.3767 0.2737
37.2000 12.3834 0.2880
37.2200 12.3901 0.2948
37.2400 12.3967 0.2760
37.2600 12.4033 0.2850
37.2800 12.4099 0.2916
37.3000 12.4166 0.2793
37.3200 12.4233 0.2834
37.3400 12.4300 0.2885
37.3600 12.4367 0.2819
37.3800 12.4434 0.2816
37.4000 12.4501 0.2899
37.4200 12.4568 0.2798
37.4400 12.4634 0.2798
37.4600 12.4700 0.2941
37.4800 12.4766 0.2828
37.5000 12.4833 0.2824
37.5200 12.4900 0.2913
37.5400 12.4967 0.2871
37.5600 12.5034 0.2799
37.5800 12.5101 0.2887
37.6000 12.5167 0.2827
37.6200 12.5233 0.2805
37.6400 12.5299 0.2871
37.6600 12.5366 0.2812
37.6800 12.5433 0.2882
37.7000 12.5500 0.2894
37.7200 12.5567 0.2788
37.7400 12.5633 0.2841
37.7600 12.5700 0.2844
37.7800 12.5767 0.2789
37.8000 12.5833 0.2849
37.8200 12.5899 0.2890
37.8400 12.5966 0.2831
37.8600 12.6033 0.2843
37.8800 12.6100 0.2870
37.9000 12.6166 0.2791
37.9200 12.6233 0.2861
37.9400 12.6300 0.2843
37.9600 12.6367 0.2818
37.9800 12.6433 0.2804
38.0000 12.6500 0.2848
38.0200 12.6566 0.2836
38.0400 12.6633 0.2784
38.0600 12.6700 0.2838
38.0800 12.6767 0.2892
38.1000 12.6834 0.2789
38.1200 12.6901 0.2819
38.1400 12.6968 0.2861
38.1600 12.7034 0.2773
38.1800 12.7099 0.2875
38.2000 12.7166 0.2835
38.2200 12.7233 0.2739
38.2400 12.7300 0.2893
38.2600 12.7367 0.2826
38.2800 12.7434 0.2753
38.3000 12.7501 0.2885
38.3200 12.7567 0.2820
38.3400 12.7633 0.2730
38.3600 12.7699 0.2877
38.3800 12.7766 0.2850
38.4000 12.7833 0.2753
38.4200 12.7900 0.2926
38.4400 12.7967 0.2748
38.4600 12.8034 0.2784
38.4800 12.8101 0.2941
38.5000 12.8167 0.2719
38.5200 12.8233 0.2814
38.5400 12.8299 0.2874
38.5600 12.8366 0.2758
38.5800 12.8433 0.2801
38.6000 12.8500 0.2858
38.6200 12.8567 0.2735
38.6400 12.8634 0.2793
38.6600 12.8700 0.2841
38.6800 12.8767 0.2759
38.7000 12.8833 0.2821
38.7200 12.8899 0.2868
38.7400 12.8966 0.2767
38.7600 12.9033 0.2768
38.7800 12.9100 0.2817
38.8000 12.9167 0.2828
38.8200 12.9234 0.2767
38.8400 12.9301 0.2799
38.8600 12.9367 0.2796
38.8800 12.9433 0.2764
38.9000 12.9499 0.2794
38.9200 12.9566 0.2791
38.9400 12.9633 0.2803
38.9600 12.9701 0.2792
38.9800 12.9768 0.2769
39.0000 12.9834 0.2751
39.0200 12.9901 0.2818
39.0400 12.9967 0.2805
39.0600 13.0033 0.2758
39.0800 13.0100 0.2796
39.1000 13.0166 0.2822
39.1200 13.0233 0.2763
39.1400 13.0300 0.2812
39.1600 13.0367 0.2779
39.1800 13.0433 0.2767
39.2000 13.0500 0.2810
39.2200 13.0567 0.2730
39.2400 13.0633 0.2743
39.2600 13.0699 0.2846
39.2800 13.0765 0.2792
39.3000 13.0833 0.2745
39.3200 13.0900 0.2795
39.3400 13.0967 0.2801
39.3600 13.1033 0.2762
39.3800 13.1100 0.2771
39.4000 13.1167 0.2779
39.4200 13.1234 0.2755
39.4400 13.1300 0.2783
39.4600 13.1366 0.2776
39.4800 13.1433 0.2751
39.5000 13.1500 0.2775
39.5200 13.1567 0.2796
39.5400 13.1634 0.2764
39.5600 13.1700 0.2770
39.5800 13.1767 0.2824
39.6000 13.1834 0.2727
39.6200 13.1900 0.2772
39.6400 13.1966 0.2775
39.6600 13.2033 0.2763
39.6800 13.2100 0.2782
39.7000 13.2167 0.2753
39.7200 13.2234 0.2735
39.7400 13.2301 0.2768
39.7600 13.2367 0.2724
39.7800 13.2433 0.2701
39.8000 13.2500 0.2805
39.8200 13.2566 0.2740
39.8400 13.2633 0.2729
39.8600 13.2700 0.2831
39.8800 13.2767 0.2734
39.9000 13.2834 0.2745
39.9200 13.2901 0.2757
39.9400 13.2967 0.2709
39.9600 13.3033 0.2747
39.9800 13.3099 0.2762
40.0000 13.3166 0.2768
40.0200 13.3233 0.2737
40.0400 13.3300 0.2720
40.0600 13.3366 0.2710
40.0800 13.3433 0.2808
40.1000 13.3500 0.2675
40.1200 13.3567 0.2713
40.1400 13.3633 0.2846
40.1600 13.3699 0.2654
40.1800 13.3766 0.2715
40.2000 13.3833 0.2841
40.2200 13.3900 0.2655
40.2400 13.3968 0.2714
40.2600 13.4035 0.2822
40.2800 13.4101 0.2625
40.3000 13.4168 0.2762
40.3200 13.4234 0.2822
40.3400 13.4299 0.2666
40.3600 13.4366 0.2771
40.3800 13.4433 0.2812
40.4000 13.4500 0.2649
40.4200 13.4568 0.2770
40.4400 13.4634 0.2757
40.4600 13.4701 0.2682
40.4800 13.4767 0.2753
40.5000 13.4833 0.2702
40.5200 13.4899 0.2643
40.5400 13.4966 0.2843
40.5600 13.5033 0.2729
40.5800 13.5100 0.2665
40.6000 13.5167 0.2810
40.6200 13.5233 0.2747
40.6400 13.5300 0.2623
40.6600 13.5367 0.2771
40.6800 13.5433 0.2723
40.7000 13.5499 0.2656
40.7200 13.5566 0.2840
40.7400 13.5632 0.2681
40.7600 13.5700 0.2703
40.7800 13.5766 0.2822
40.8000 13.5833 0.2683
40.8200 13.5900 0.2665
40.8400 13.5967 0.2809
40.8600 13.6033 0.2704
40.8800 13.6099 0.2655
40.9000 13.6166 0.2772
40.9200 13.6233 0.2733
40.9400 13.6300 0.2669
40.9600 13.6367 0.2759
40.9800 13.6434 0.2761
41.0000 13.6501 0.2661
41.0200 13.6567 0.2727
41.0400 13.6634 0.2676
41.0600 13.6700 0.2655
41.0800 13.6767 0.2771
41.1000 13.6833 0.2704
41.1200 13.6900 0.2642
41.1400 13.6967 0.2730
41.1600 13.7033 0.2742
41.1800 13.7100 0.2672
41.2000 13.7168 0.2720
41.2200 13.7234 0.2670
41.2400 13.7300 0.2626
41.2600 13.7366 0.2781
41.2800 13.7433 0.2705
41.3000 13.7500 0.2645
41.3200 13.7567 0.2732
41.3400 13.7634 0.2683
41.3600 13.7700 0.2621
41.3800 13.7767 0.2763
41.4000 13.7833 0.2667
41.4200 13.7899 0.2649
41.4400 13.7966 0.2755
41.4600 13.8032 0.2691
41.4800 13.8100 0.2628
41.5000 13.8167 0.2730
41.5200 13.8233 0.2708
41.5400 13.8300 0.2612
41.5600 13.8367 0.2771
41.5800 13.8434 0.2665
41.6000 13.8500 0.2615
41.6200 13.8566 0.2745
41.6400 13.8633 0.2711
41.6600 13.8700 0.2688
41.6800 13.8767 0.2677
41.7000 13.8833 0.2675
41.7200 13.8901 0.2654
41.7400 13.8968 0.2669
41.7600 13.9034 0.2694
41.7800 13.9100 0.2712
41.8000 13.9166 0.2697
41.8200 13.9233 0.2703
41.8400 13.9300 0.2679
41.8600 13.9367 0.2590
41.8800 13.9434 0.2746
41.9000 13.9501 0.2717
41.9200 13.9567 0.2560
41.9400 13.9633 0.2808
41.9600 13.9699 0.2680
41.9800 13.9766 0.2618
42.0000 13.9833 0.2812
42.0200 13.9900 0.2654
42.0400 13.9967 0.2578
42.0600 14.0034 0.2793
42.0800 14.0100 0.2600
42.1000 14.0167 0.2591
42.1200 14.0234 0.2818
42.1400 14.0300 0.2545
42.1600 14.0366 0.2681
42.1800 14.0432 0.2770
42.2000 14.0499 0.2525
42.2200 14.0566 0.2717
42.2400 14.0633 0.2730
42.2600 14.0700 0.2518
42.2800 14.0767 0.2752
42.3000 14.0834 0.2671
42.3200 14.0900 0.2538
42.3400 14.0966 0.2746
42.3600 14.1033 0.2656
42.3800 14.1100 0.2572
42.4000 14.1167 0.2748
42.4200 14.1234 0.2605
42.4400 14.1301 0.2617
42.4600 14.1368 0.2721
42.4800 14.1434 0.2586
42.5000 14.1500 0.2671
42.5200 14.1566 0.2638
42.5400 14.1633 0.2605
42.5600 14.1700 0.2696
42.5800 14.1767 0.2598
42.6000 14.1834 0.2593
42.6200 14.1900 0.2720
42.6400 14.1967 0.2592
42.6600 14.2034 0.2635
42.6800 14.2100 0.2672
42.7000 14.2166 0.2543
42.7200 14.2232 0.2703
42.7400 14.2299 0.2686
42.7600 14.2366 0.2544
42.7800 14.2433 0.2710
42.8000 14.2501 0.2604
42.8200 14.2568 0.2539
42.8400 14.2634 0.2750
42.8600 14.2700 0.2562
42.8800 14.2766 0.2596
42.9000 14.2832 0.2750
42.9200 14.2900 0.2512
42.9400 14.2967 0.2587
42.9600 14.3034 0.2761
42.9800 14.3100 0.2557
43.0000 14.3167 0.2582
43.0200 14.3233 0.2687
43.0400 14.3300 0.2550
43.0600 14.3366 0.2621
43.0800 14.3433 0.2659
43.1000 14.3500 0.2584
43.1200 14.3567 0.2634
43.1400 14.3634 0.2643
43.1600 14.3701 0.2557
43.1800 14.3768 0.2609
43.2000 14.3834 0.2691
43.2200 14.3901 0.2600
43.2400 14.3967 0.2558
43.2600 14.4033 0.2657
43.2800 14.4100 0.2664
43.3000 14.4167 0.2600
43.3200 14.4234 0.2577
43.3400 14.4301 0.2667
43.3600 14.4368 0.2596
43.3800 14.4434 0.2542
43.4000 14.4500 0.2672
43.4200 14.4566 0.2623
43.4400 14.4632 0.2580
43.4600 14.4699 0.2666
43.4800 14.4766 0.2542
43.5000 14.4833 0.2588
43.5200 14.4900 0.2684
43.5400 14.4966 0.2516
43.5600 14.5033 0.2612
43.5800 14.5099 0.2643
43.6000 14.5166 0.2526
43.6200 14.5233 0.2629
43.6400 14.5300 0.2663
43.6600 14.5366 0.2512
43.6800 14.5433 0.2624
43.7000 14.5500 0.2636
43.7200 14.5567 0.2510
43.7400 14.5634 0.2636
43.7600 14.5700 0.2637
43.7800 14.5766 0.2514
43.8000 14.5833 0.2677
43.8200 14.5900 0.2596
43.8400 14.5967 0.2493
43.8600 14.6034 0.2616
43.8800 14.6101 0.2583
43.9000 14.6168 0.2610
43.9200 14.6234 0.2588
43.9400 14.6300 0.2520
43.9600 14.6366 0.2626
43.9800 14.6433 0.2579
44.0000 14.6500 0.2532
44.0200 14.6567 0.2677
44.0400 14.6634 0.2511
44.0600 14.6701 0.2531
44.0800 14.6767 0.2655
44.1000 14.6834 0.2558
44.1200 14.6900 0.2571
44.1400 14.6966 0.2647
44.1600 14.7033 0.2479
44.1800 14.7099 0.2609
44.2000 14.7166 0.2627
44.2200 14.7233 0.2371
44.2400 14.7300 0.2640
44.2600 14.7367 0.2656
44.2800 14.7434 0.2349
44.3000 14.7500 0.2564
44.3200 14.7566 0.2649
44.3400 14.7632 0.2405
44.3600 14.7699 0.2699
44.3800 14.7766 0.2575
44.4000 14.7833 0.2350
44.4200 14.7900 0.2685
44.4400 14.7967 0.2545
44.4600 14.8034 0.2390
44.4800 14.8100 0.2728
44.5000 14.8166 0.2541
44.5200 14.8233 0.2353
44.5400 14.8300 0.2716
44.5600 14.8367 0.2500
44.5800 14.8434 0.2427
44.6000 14.8501 0.2728
44.6200 14.8567 0.2471
44.6400 14.8634 0.2443
44.6600 14.8701 0.2743
44.6800 14.8767 0.2418
44.7000 14.8833 0.2483
44.7200 14.8900 0.2722
44.7400 14.8967 0.2439
44.7600 14.9034 0.2509
44.7800 14.9101 0.2703
44.8000 14.9168 0.2439
44.8200 14.9234 0.2515
44.8400 14.9300 0.2655
44.8600 14.9366 0.2419
44.8800 14.9432 0.2548
44.9000 14.9499 0.2652
44.9200 14.9566 0.2419
44.9400 14.9633 0.2489
44.9600 14.9700 0.2700
44.9800 14.9767 0.2472
45.0000 14.9834 0.2513
45.0200 14.9900 0.2604
45.0400 14.9966 0.2488
45.0600 15.0033 0.2553
45.0800 15.0100 0.2580
45.1000 15.0167 0.2449
45.1200 15.0234 0.2571
45.1400 15.0300 0.2574
45.1600 15.0367 0.2475
45.1800 15.0434 0.2519
45.2000 15.0500 0.2604
45.2200 15.0567 0.2558
45.2400 15.0633 0.2487
45.2600 15.0700 0.2545
45.2800 15.0767 0.2505
45.3000 15.0834 0.2563
45.3200 15.0901 0.2555
45.3400 15.0968 0.2495
45.3600 15.1034 0.2495
45.3800 15.1101 0.2569
45.4000 15.1166 0.2478
45.4200 15.1233 0.2531
45.4400 15.1299 0.2590
45.4600 15.1367 0.2512
45.4800 15.1434 0.2432
45.5000 15.1501 0.2560
45.5200 15.1568 0.2530
45.5400 15.1634 0.2492
45.5600 15.1700 0.2555
45.5800 15.1766 0.2496
45.6000 15.1832 0.2495
45.6200 15.1900 0.2555
45.6400 15.1967 0.2490
45.6600 15.2034 0.2499
45.6800 15.2100 0.2572
45.7000 15.2167 0.2458
45.7200 15.2234 0.2484
45.7400 15.2300 0.2552
45.7600 15.2366 0.2465
45.7800 15.2433 0.2483
45.8000 15.2499 0.2566
45.8200 15.2566 0.2434
45.8400 15.2633 0.2538
45.8600 15.2700 0.2511
45.8800 15.2767 0.2473
45.9000 15.2834 0.2475
45.9200 15.2900 0.2496
45.9400 15.2966 0.2492
45.9600 15.3032 0.2495
45.9800 15.3099 0.2525
46.0000 15.3166 0.2453
46.0200 15.3234 0.2481
46.0400 15.3301 0.2533
46.0600 15.3368 0.2485
46.0800 15.3434 0.2433
46.1000 15.3500 0.2494
46.1200 15.3567 0.2541
46.1400 15.3633 0.2442
46.1600 15.3700 0.2475
46.1800 15.3767 0.2537
46.2000 15.3834 0.2385
46.2200 15.3901 0.2539
46.2400 15.3967 0.2509
46.2600 15.4034 0.2409
46.2800 15.4101 0.2523
46.3000 15.4167 0.2440
46.3200 15.4233 0.2441
46.3400 15.4299 0.2523
46.3600 15.4366 0.2522
46.3800 15.4433 0.2399
46.4000 15.4500 0.2497
46.4200 15.4567 0.2463
46.4400 15.4634 0.2421
46.4600 15.4700 0.2486
46.4800 15.4766 0.2476
46.5000 15.4832 0.2472
46.5200 15.4899 0.2466
46.5400 15.4966 0.2436
46.5600 15.5033 0.2451
46.5800 15.5100 0.2444
46.6000 15.5167 0.2439
46.6200 15.5234 0.2431
46.6400 15.5300 0.2481
46.6600 15.5366 0.2456
46.6800 15.5433 0.2385
46.7000 15.5499 0.2459
46.7200 15.5567 0.2431
46.7400 15.5633 0.2412
46.7600 15.5700 0.2460
46.7800 15.5767 0.2484
46.8000 15.5834 0.2389
46.8200 15.5901 0.2408
46.8400 15.5967 0.2481
46.8600 15.6033 0.2401
46.8800 15.6100 0.2427
46.9000 15.6167 0.2469
46.9200 15.6234 0.2410
46.9400 15.6301 0.2446
46.9600 15.6368 0.2395
46.9800 15.6434 0.2419
47.0000 15.6500 0.2412
47.0200 15.6566 0.2421
47.0400 15.6632 0.2418
47.0600 15.6699 0.2377
47.0800 15.6767 0.2439
47.1000 15.6834 0.2434
47.1200 15.6900 0.2372
47.1400 15.6967 0.2395
47.1600 15.7034 0.2457
47.1800 15.7100 0.2332
47.2000 15.7167 0.2419
47.2200 15.7233 0.2448
47.2400 15.7299 0.2386
47.2600 15.7367 0.2397
47.2800 15.7433 0.2418
47.3000 15.7500 0.2349
47.3200 15.7566 0.2437
47.3400 15.7633 0.2418
47.3600 15.7700 0.2311
47.3800 15.7767 0.2416
47.4000 15.7833 0.2415
47.4200 15.7899 0.2349
47.4400 15.7966 0.2416
47.4600 15.8034 0.2433
47.4800 15.8101 0.2371
47.5000 15.8167 0.2401
47.5200 15.8234 0.2419
47.5400 15.8301 0.2336
47.5600 15.8366 0.2428
47.5800 15.8433 0.2446
47.6000 15.8499 0.2356
47.6200 15.8566 0.2421
47.6400 15.8634 0.2431
47.6600 15.8701 0.2341
47.6800 15.8768 0.2340
47.7000 15.8835 0.2452
47.7200 15.8901 0.2350
47.7400 15.8967 0.2375
47.7600 15.9033 0.2429
47.7800 15.9100 0.2336
47.8000 15.9167 0.2397
47.8200 15.9234 0.2396
47.8400 15.9300 0.2416
47.8600 15.9367 0.2389
47.8800 15.9434 0.2375
47.9000 15.9500 0.2384
47.9200 15.9567 0.2393
47.9400 15.9633 0.2404
47.9600 15.9699 0.2419
47.9800 15.9766 0.2375
48.0000 15.9833 0.2408
48.0200 15.9900 0.2357
48.0400 15.9967 0.2399
48.0600 16.0034 0.2438
48.0800 16.0100 0.2329
48.1000 16.0167 0.2374
48.1200 16.0233 0.2451
48.1400 16.0300 0.2358
48.1600 16.0367 0.2394
48.1800 16.0434 0.2409
48.2000 16.0501 0.2294
48.2200 16.0568 0.2397
48.2400 16.0634 0.2450
48.2600 16.0701 0.2302
48.2800 16.0767 0.2365
48.3000 16.0833 0.2475
48.3200 16.0899 0.2302
48.3400 16.0966 0.2353
48.3600 16.1033 0.2425
48.3800 16.1100 0.2289
48.4000 16.1167 0.2375
48.4200 16.1234 0.2482
48.4400 16.1301 0.2283
48.4600 16.1367 0.2356
48.4800 16.1433 0.2452
48.5000 16.1499 0.2274
48.5200 16.1566 0.2408
48.5400 16.1633 0.2470
48.5600 16.1700 0.2291
48.5800 16.1767 0.2378
48.6000 16.1834 0.2443
48.6200 16.1901 0.2234
48.6400 16.1967 0.2361
48.6600 16.2032 0.2493
48.6800 16.2099 0.2279
48.7000 16.2166 0.2329
48.7200 16.2233 0.2459
48.7400 16.2300 0.2227
48.7600 16.2367 0.2366
48.7800 16.2434 0.2489
48.8000 16.2500 0.2259
48.8200 16.2567 0.2317
48.8400 16.2633 0.2462
48.8600 16.2699 0.2286
48.8800 16.2766 0.2344
48.9000 16.2833 0.2453
48.9200 16.2900 0.2302
48.9400 16.2967 0.2345
48.9600 16.3034 0.2398
48.9800 16.3101 0.2313
49.0000 16.3167 0.2351
49.0200 16.3233 0.2419
49.0400 16.3299 0.2275
49.0600 16.3366 0.2343
49.0800 16.3434 0.2385
49.1000 16.3501 0.2279
49.1200 16.3568 0.2342
49.1400 16.3634 0.2372
49.1600 16.3700 0.2289
49.1800 16.3766 0.2346
49.2000 16.3833 0.2367
49.2200 16.3899 0.2324
49.2400 16.3966 0.2357
49.2600 16.4033 0.2312
49.2800 16.4100 0.2298
49.3000 16.4166 0.2294
49.3200 16.4233 0.2376
49.3400 16.4300 0.2285
49.3600 16.4367 0.2279
49.3800 16.4432 0.2388
49.4000 16.4499 0.2270
49.4200 16.4566 0.2314
49.4400 16.4633 0.2372
49.4600 16.4700 0.2307
49.4800 16.4767 0.2323
49.5000 16.4834 0.2348
49.5200 16.4901 0.2291
49.5400 16.4967 0.2219
49.5600 16.5033 0.2369
49.5800 16.5099 0.2309
49.6000 16.5166 0.2229
49.6200 16.5234 0.2386
49.6400 16.5301 0.2282
49.6600 16.5367 0.2237
49.6800 16.5434 0.2321
49.7000 16.5501 0.2321
49.7200 16.5567 0.2278
49.7400 16.5633 0.2323
49.7600 16.5699 0.2296
49.7800 16.5766 0.2300
49.8000 16.5834 0.2288
49.8200 16.5901 0.2253
49.8400 16.5967 0.2331
49.8600 16.6034 0.2310
49.8800 16.6101 0.2306
49.9000 16.6167 0.2274
49.9200 16.6233 0.2283
49.9400 16.6300 0.2366
49.9600 16.6367 0.2266
49.9800 16.6433 0.2246
50.0000 16.6500 0.2339
50.0200 16.6567 0.2250
50.0400 16.6634 0.2273
50.0600 16.6701 0.2310
50.0800 16.6767 0.2293
50.1000 16.6833 0.2289
50.1200 16.6899 0.2296
50.1400 16.6966 0.2221
50.1600 16.7033 0.2282
50.1800 16.7100 0.2382
50.2000 16.7167 0.2249
50.2200 16.7234 0.2243
50.2400 16.7300 0.2314
50.2600 16.7367 0.2265
50.2800 16.7433 0.2314
50.3000 16.7499 0.2351
50.3200 16.7566 0.2245
50.3400 16.7633 0.2248
50.3600 16.7700 0.2306
50.3800 16.7767 0.2267
50.4000 16.7834 0.2249
50.4200 16.7901 0.2304
50.4400 16.7967 0.2200
50.4600 16.8033 0.2221
50.4800 16.8099 0.2368
50.5000 16.8166 0.2271
50.5200 16.8233 0.2183
50.5400 16.8300 0.2326
50.5600 16.8367 0.2247
50.5800 16.8434 0.2191
50.6000 16.8501 0.2352
50.6200 16.8567 0.2227
50.6400 16.8633 0.2189
50.6600 16.8699 0.2382
50.6800 16.8766 0.2242
50.7000 16.8834 0.2202
50.7200 16.8901 0.2370
50.7400 16.8967 0.2183
50.7600 16.9034 0.2177
50.7800 16.9101 0.2353
50.8000 16.9167 0.2167
50.8200 16.9233 0.2184
50.8400 16.9299 0.2375
50.8600 16.9366 0.2150
50.8800 16.9433 0.2240
50.9000 16.9500 0.2332
50.9200 16.9566 0.2125
50.9400 16.9633 0.2254
50.9600 16.9700 0.2323
50.9800 16.9766 0.2134
51.0000 16.9833 0.2257
51.0200 16.9899 0.2276
51.0400 16.9966 0.2121
51.0600 17.0033 0.2303
51.0800 17.0100 0.2266
51.1000 17.0167 0.2093
51.1200 17.0234 0.2282
51.1400 17.0301 0.2262
51.1600 17.0367 0.2069
51.1800 17.0433 0.2309
51.2000 17.0499 0.2278
51.2200 17.0566 0.2120
51.2400 17.0633 0.2290
51.2600 17.0701 0.2204
51.2800 17.0767 0.2151
51.3000 17.0834 0.2208
51.3200 17.0901 0.2218
51.3400 17.0967 0.2188
51.3600 17.1033 0.2188
51.3800 17.1099 0.2220
51.4000 17.1166 0.2195
51.4200 17.1233 0.2123
51.4400 17.1300 0.2208
51.4600 17.1367 0.2212
51.4800 17.1434 0.2141
51.5000 17.1500 0.2195
51.5200 17.1567 0.2180
51.5400 17.1633 0.2118
51.5600 17.1699 0.2271
51.5800 17.1766 0.2174
51.6000 17.1833 0.2109
51.6200 17.1900 0.2259
51.6400 17.1967 0.2163
51.6600 17.2034 0.2107
51.6800 17.2101 0.2291
51.7000 17.2167 0.2129
51.7200 17.2233 0.2090
51.7400 17.2299 0.2291
51.7600 17.2366 0.2084
51.7800 17.2433 0.2147
51.8000 17.2500 0.2295
51.8200 17.2567 0.2084
51.8400 17.2634 0.2157
51.8600 17.2701 0.2314
51.8800 17.2767 0.2055
51.9000 17.2833 0.2162
51.9200 17.2900 0.2296
51.9400 17.2966 0.2079
51.9600 17.3033 0.2109
51.9800 17.3100 0.2264
52.0000 17.3167 0.2098
52.0200 17.3234 0.2131
52.0400 17.3301 0.2280
52.0600 17.3367 0.2076
52.0800 17.3433 0.2174
52.1000 17.3499 0.2207
52.1200 17.3565 0.2117
52.1400 17.3633 0.2153
52.1600 17.3700 0.2212
52.1800 17.3767 0.2164
52.2000 17.3834 0.2132
52.2200 17.3901 0.2191
52.2400 17.3967 0.2132
52.2600 17.4033 0.2128
52.2800 17.4099 0.2192
52.3000 17.4166 0.2169
52.3200 17.4233 0.2129
52.3400 17.4300 0.2176
52.3600 17.4367 0.2187
52.3800 17.4433 0.2093
52.4000 17.4500 0.2186
52.4200 17.4567 0.2169
52.4400 17.4633 0.1994
52.4600 17.4699 0.2193
52.4800 17.4766 0.2157
52.5000 17.4833 0.2080
52.5200 17.4900 0.2189
52.5400 17.4967 0.2149
52.5600 17.5034 0.2043
52.5800 17.5101 0.2183
52.6000 17.5168 0.2126
52.6200 17.5234 0.2047
52.6400 17.5300 0.2257
52.6600 17.5366 0.2109
52.6800 17.5433 0.2054
52.7000 17.5500 0.2207
52.7200 17.5567 0.2078
52.7400 17.5634 0.2060
52.7600 17.5701 0.2205
52.7800 17.5767 0.2069
52.8000 17.5833 0.2089
52.8200 17.5899 0.2240
52.8400 17.5966 0.2062
52.8600 17.6033 0.2029
52.8800 17.6100 0.2230
52.9000 17.6167 0.2086
52.9200 17.6234 0.2080
52.9400 17.6300 0.2165
52.9600 17.6367 0.2085
52.9800 17.6433 0.1993
53.0000 17.6499 0.2213
53.0200 17.6566 0.2179
53.0400 17.6633 0.2002
53.0600 17.6700 0.2175
53.0800 17.6767 0.2108
53.1000 17.6833 0.1992
53.1200 17.6900 0.2199
53.1400 17.6967 0.2090
53.1600 17.7033 0.2028
53.1800 17.7099 0.2200
53.2000 17.7166 0.2021
53.2200 17.7233 0.2066
53.2400 17.7300 0.2167
53.2600 17.7367 0.2069
53.2800 17.7434 0.2071
53.3000 17.7501 0.2138
53.3200 17.7567 0.2031
53.3400 17.7633 0.2070
53.3600 17.7699 0.2167
53.3800 17.7766 0.2058
53.4000 17.7833 0.2077
53.4200 17.7901 0.2113
53.4400 17.7968 0.2066
53.4600 17.8034 0.2036
53.4800 17.8101 0.2123
53.5000 17.8167 0.2067
53.5200 17.8233 0.2034
53.5400 17.8299 0.2147
53.5600 17.8366 0.2086
53.5800 17.8433 0.1983
53.6000 17.8500 0.2105
53.6200 17.8567 0.2087
53.6400 17.8633 0.2041
53.6600 17.8700 0.2091
53.6800 17.8767 0.2098
53.7000 17.8833 0.2034
53.7200 17.8899 0.2115
53.7400 17.8966 0.2089
53.7600 17.9033 0.2010
53.7800 17.9100 0.2074
53.8000 17.9167 0.2080
53.8200 17.9234 0.2032
53.8400 17.9300 0.2033
53.8600 17.9367 0.2076
53.8800 17.9433 0.2075
53.9000 17.9499 0.2029
53.9200 17.9566 0.2050
53.9400 17.9633 0.2102
53.9600 17.9700 0.2011
53.9800 17.9767 0.2065
54.0000 17.9834 0.2067
54.0200 17.9901 0.1991
54.0400 17.9967 0.2086
54.0600 18.0034 0.2061
54.0800 18.0100 0.1947
54.1000 18.0166 0.2111
54.1200 18.0233 0.2099
54.1400 18.0300 0.1952
54.1600 18.0367 0.2073
54.1800 18.0434 0.2085
54.2000 18.0501 0.1955
54.2200 18.0567 0.2075
54.2400 18.0634 0.2042
54.2600 18.0700 0.1954
54.2800 18.0766 0.2111
54.3000 18.0833 0.2010
54.3200 18.0900 0.1971
54.3400 18.0967 0.2096
54.3600 18.1034 0.1990
54.3800 18.1101 0.1965
54.4000 18.1167 0.2111
54.4200 18.1233 0.1966
54.4400 18.1299 0.2015
54.4600 18.1366 0.2103
54.4800 18.1433 0.1933
54.5000 18.1500 0.1996
54.5200 18.1567 0.2115
54.5400 18.1633 0.1982
54.5600 18.1700 0.2000
54.5800 18.1767 0.2077
54.6000 18.1833 0.1929
54.6200 18.1899 0.2043
54.6400 18.1966 0.2043
54.6600 18.2033 0.1972
54.6800 18.2100 0.2010
54.7000 18.2167 0.2008
54.7200 18.2234 0.1984
54.7400 18.2301 0.2029
54.7600 18.2368 0.2003
54.7800 18.2434 0.1979
54.8000 18.2500 0.1997
54.8200 18.2566 0.2049
54.8400 18.2633 0.2017
54.8600 18.2700 0.1956
54.8800 18.2767 0.2007
54.9000 18.2834 0.2045
54.9200 18.2901 0.1936
54.9400 18.2967 0.1989
54.9600 18.3034 0.2034
54.9800 18.3100 0.1884
55.0000 18.3166 0.2074
55.0200 18.3233 0.2051
55.0400 18.3300 0.1871
55.0600 18.3367 0.2039
55.0800 18.3433 0.2048
55.1000 18.3500 0.1884
55.1200 18.3567 0.2059
55.1400 18.3633 0.2001
55.1600 18.3699 0.1908
55.1800 18.3766 0.2062
55.2000 18.3832 0.1998
55.2200 18.3899 0.1936
55.2400 18.3966 0.2038
55.2600 18.4033 0.1988
55.2800 18.4100 0.1896
55.3000 18.4167 0.2079
55.3200 18.4233 0.1989
55.3400 18.4299 0.1913
55.3600 18.4366 0.2059
55.3800 18.4433 0.1959
55.4000 18.4500 0.1923
55.4200 18.4567 0.2072
55.4400 18.4634 0.1963
55.4600 18.4701 0.1939
55.4800 18.4768 0.1997
55.5000 18.4834 0.1930
55.5200 18.4900 0.1961
55.5400 18.4967 0.2052
55.5600 18.5033 0.1898
55.5800 18.5100 0.1958
55.6000 18.5167 0.2006
55.6200 18.5233 0.1928
55.6400 18.5300 0.2001
55.6600 18.5367 0.1982
55.6800 18.5434 0.1949
55.7000 18.5500 0.1915
55.7200 18.5566 0.1982
55.7400 18.5633 0.1972
55.7600 18.5700 0.1927
55.7800 18.5767 0.2003
55.8000 18.5834 0.2013
55.8200 18.5900 0.1858
55.8400 18.5967 0.1961
55.8600 18.6034 0.2044
55.8800 18.6100 0.1779
55.9000 18.6166 0.2013
55.9200 18.6232 0.2013
55.9400 18.6300 0.1762
55.9600 18.6367 0.2000
55.9800 18.6433 0.1986
56.0000 18.6500 0.1836
56.0200 18.6567 0.2038
56.0400 18.6634 0.1927
56.0600 18.6700 0.1736
56.0800 18.6766 0.1994
56.1000 18.6833 0.2022
56.1200 18.6900 0.1759
56.1400 18.6967 0.2006
56.1600 18.7034 0.1927
56.1800 18.7101 0.1785
56.2000 18.7168 0.2007
56.2200 18.7234 0.1888
56.2400 18.7300 0.1775
56.2600 18.7366 0.2070
56.2800 18.7433 0.1873
56.3000 18.7500 0.1738
56.3200 18.7567 0.2039
56.3400 18.7634 0.1913
56.3600 18.7701 0.1707
56.3800 18.7767 0.1940
56.4000 18.7834 0.1903
56.4200 18.7900 0.1797
56.4400 18.7966 0.1954
56.4600 18.8033 0.1875
56.4800 18.8100 0.1819
56.5000 18.8167 0.1926
56.5200 18.8233 0.1837
56.5400 18.8300 0.1824
56.5600 18.8367 0.1919
56.5800 18.8433 0.1818
56.6000 18.8499 0.1817
56.6200 18.8565 0.1924
56.6400 18.8632 0.1837
56.6600 18.8699 0.1851
56.6800 18.8766 0.1866
56.7000 18.8833 0.1849
56.7200 18.8900 0.1858
56.7400 18.8967 0.1843
56.7600 18.9034 0.1815
56.7800 18.9100 0.1827
56.8000 18.9166 0.1863
56.8200 18.9233 0.1935
56.8400 18.9300 0.1800
56.8600 18.9367 0.1807
56.8800 18.9434 0.1928
56.9000 18.9501 0.1852
56.9200 18.9568 0.1826
56.9400 18.9634 0.1909
56.9600 18.9700 0.1829
56.9800 18.9766 0.1801
57.0000 18.9833 0.1934
57.0200 18.9900 0.1802
57.0400 18.9967 0.1872
57.0600 19.0034 0.1869
57.0800 19.0100 0.1760
57.1000 19.0167 0.1880
57.1200 19.0234 0.1911
57.1400 19.0300 0.1780
57.1600 19.0366 0.1828
57.1800 19.0432 0.1840
57.2000 19.0499 0.1822
57.2200 19.0567 0.1878
57.2400 19.0634 0.1801
57.2600 19.0700 0.1813
57.2800 19.0767 0.1902
57.3000 19.0834 0.1748
57.3200 19.0900 0.1844
57.3400 19.0966 0.1912
57.3600 19.1032 0.1774
57.3800 19.1099 0.1873
57.4000 19.1167 0.1804
57.4200 19.1233 0.1781
57.4400 19.1300 0.1858
57.4600 19.1367 0.1789
57.4800 19.1433 0.1765
57.5000 19.1500 0.1865
57.5200 19.1566 0.1752
57.5400 19.1633 0.1830
57.5600 19.1700 0.1872
57.5800 19.1767 0.1703
57.6000 19.1834 0.1821
57.6200 19.1900 0.1880
57.6400 19.1967 0.1742
57.6600 19.2034 0.1827
57.6800 19.2100 0.1832
57.7000 19.2167 0.1698
57.7200 19.2233 0.1807
57.7400 19.2300 0.1816
57.7600 19.2367 0.1748
57.7800 19.2434 0.1769
57.8000 19.2501 0.1784
57.8200 19.2568 0.1716
57.8400 19.2634 0.1735
57.8600 19.2700 0.1779
57.8800 19.2766 0.1818
57.9000 19.2832 0.1745
57.9200 19.2899 0.1723
57.9400 19.2966 0.1747
57.9600 19.3033 0.1779
57.9800 19.3100 0.1767
58.0000 19.3167 0.1704
58.0200 19.3233 0.1738
58.0400 19.3300 0.1756
58.0600 19.3366 0.1691
58.0800 19.3432 0.1751
58.1000 19.3499 0.1803
58.1200 19.3566 0.1685
58.1400 19.3633 0.1685
58.1600 19.3700 0.1752
58.1800 19.3767 0.1772
58.2000 19.3834 0.1652
58.2200 19.3900 0.1765
58.2400 19.3966 0.1727
58.2600 19.4033 0.1703
58.2800 19.4100 0.1799
58.3000 19.4167 0.1683
58.3200 19.4234 0.1694
58.3400 19.4300 0.1785
58.3600 19.4368 0.1628
58.3800 19.4434 0.1661
58.4000 19.4500 0.1817
58.4200 19.4566 0.1652
58.4400 19.4633 0.1660
58.4600 19.4699 0.1739
58.4800 19.4767 0.1635
58.5000 19.4834 0.1712
58.5200 19.4901 0.1741
58.5400 19.4967 0.1649
58.5600 19.5034 0.1732
58.5800 19.5100 0.1709
58.6000 19.5166 0.1671
58.6200 19.5233 0.1729
58.6400 19.5300 0.1689
58.6600 19.5367 0.1632
58.6800 19.5434 0.1720
58.7000 19.5500 0.1702
58.7200 19.5567 0.1637
58.7400 19.5634 0.1696
58.7600 19.5700 0.1665
58.7800 19.5766 0.1681
58.8000 19.5832 0.1755
58.8200 19.5899 0.1634
58.8400 19.5966 0.1630
58.8600 19.6033 0.1790
58.8800 19.6100 0.1664
58.9000 19.6167 0.1587
58.9200 19.6234 0.1713
58.9400 19.6300 0.1713
58.9600 19.6366 0.1608
58.9800 19.6433 0.1667
59.0000 19.6500 0.1717
59.0200 19.6567 0.1616
59.0400 19.6634 0.1653
59.0600 19.6701 0.1749
59.0800 19.6767 0.1580
59.1000 19.6834 0.1586
59.1200 19.6901 0.1779
59.1400 19.6967 0.1650
59.1600 19.7033 0.1513
59.1800 19.7100 0.1706
59.2000 19.7167 0.1722
59.2200 19.7234 0.1486
59.2400 19.7301 0.1739
59.2600 19.7367 0.1670
59.2800 19.7434 0.1512
59.3000 19.7500 0.1606
59.3010 19.7503 0.1598
