Raw Data
Time Displacement Force
(s) (mm) (N)
0.0000 0.0000 -0.0456
0.0200 0.0000 -0.0430
0.0400 0.0008 0.0098
0.0600 0.0039 0.0222
0.0800 0.0094 -0.0185
0.1000 0.0151 -0.0198
0.1200 0.0209 0.0131
0.1400 0.0276 0.0127
0.1600 0.0349 0.0060
0.1800 0.0424 0.0151
0.2000 0.0496 0.0281
0.2200 0.0565 0.0338
0.2400 0.0632 0.0443
0.2600 0.0698 0.0708
0.2800 0.0765 0.0849
0.3000 0.0832 0.1029
0.3200 0.0899 0.1285
0.3400 0.0967 0.1537
0.3600 0.1033 0.1671
0.3800 0.1100 0.1877
0.4000 0.1166 0.2003
0.4200 0.1233 0.2041
0.4400 0.1300 0.2055
0.4600 0.1367 0.2007
0.4800 0.1434 0.2060
0.5000 0.1501 0.2110
0.5200 0.1567 0.2084
0.5400 0.1634 0.2141
0.5600 0.1699 0.2448
0.5800 0.1766 0.2741
0.6000 0.1833 0.3009
0.6200 0.1900 0.3261
0.6400 0.1967 0.3473
0.6600 0.2034 0.3534
0.6800 0.2100 0.3487
0.7000 0.2167 0.3582
0.7200 0.2234 0.3599
0.7400 0.2300 0.3492
0.7600 0.2366 0.3651
0.7800 0.2433 0.3615
0.8000 0.2500 0.3516
0.8200 0.2566 0.3739
0.8400 0.2633 0.3668
0.8600 0.2700 0.3547
0.8800 0.2767 0.3776
0.9000 0.2833 0.3715
0.9200 0.2899 0.3635
0.9400 0.2965 0.3885
0.9600 0.3032 0.3764
0.9800 0.3099 0.3668
1.0000 0.3166 0.3880
1.0200 0.3233 0.3777
1.0400 0.3300 0.3689
1.0600 0.3366 0.3954
1.0800 0.3433 0.3791
1.1000 0.3499 0.3736
1.1200 0.3566 0.3952
1.1400 0.3633 0.3822
1.1600 0.3700 0.3778
1.1800 0.3767 0.3928
1.2000 0.3834 0.3824
1.2200 0.3901 0.3835
1.2400 0.3967 0.3951
1.2600 0.4034 0.3831
1.2800 0.4100 0.3877
1.3000 0.4166 0.3977
1.3200 0.4233 0.3839
1.3400 0.4300 0.3835
1.3600 0.4367 0.3968
1.3800 0.4434 0.3884
1.4000 0.4501 0.3848
1.4200 0.4567 0.3942
1.4400 0.4634 0.3860
1.4600 0.4699 0.3905
1.4800 0.4765 0.3933
1.5000 0.4832 0.3857
1.5200 0.4899 0.3920
1.5400 0.4966 0.3921
1.5600 0.5033 0.3864
1.5800 0.5100 0.3885
1.6000 0.5167 0.3882
1.6200 0.5233 0.3911
1.6400 0.5299 0.3842
1.6600 0.5365 0.3874
1.6800 0.5432 0.3947
1.7000 0.5500 0.3828
1.7200 0.5567 0.3822
1.7400 0.5633 0.3929
1.7600 0.5700 0.3837
1.7800 0.5767 0.3817
1.8000 0.5833 0.3943
1.8200 0.5900 0.3771
1.8400 0.5966 0.3824
1.8600 0.6033 0.3907
1.8800 0.6100 0.3770
1.9000 0.6167 0.3851
1.9200 0.6233 0.3908
1.9400 0.6300 0.3721
1.9600 0.6367 0.3869
1.9800 0.6434 0.3906
2.0000 0.6500 0.3749
2.0200 0.6566 0.3850
2.0400 0.6632 0.3875
2.0600 0.6700 0.3743
2.0800 0.6767 0.3856
2.1000 0.6834 0.3862
2.1200 0.6900 0.3787
2.1400 0.6967 0.3870
2.1600 0.7033 0.3854
2.1800 0.7099 0.3779
2.2000 0.7166 0.3863
2.2200 0.7232 0.3865
2.2400 0.7300 0.3758
2.2600 0.7367 0.3852
2.2800 0.7433 0.3847
2.3000 0.7500 0.3794
2.3200 0.7567 0.3854
2.3400 0.7633 0.3880
2.3600 0.7700 0.3794
2.3800 0.7766 0.3821
2.4000 0.7832 0.3908
2.4200 0.7899 0.3771
2.4400 0.7966 0.3791
2.4600 0.8033 0.3909
2.4800 0.8100 0.3779
2.5000 0.8167 0.3812
2.5200 0.8234 0.3855
2.5400 0.8300 0.3793
2.5600 0.8366 0.3831
2.5800 0.8433 0.3920
2.6000 0.8500 0.3809
2.6200 0.8567 0.3769
2.6400 0.8634 0.3923
2.6600 0.8701 0.3736
2.6800 0.8767 0.3802
2.7000 0.8834 0.3916
2.7200 0.8900 0.3763
2.7400 0.8966 0.3845
2.7600 0.9033 0.3900
2.7800 0.9100 0.3718
2.8000 0.9167 0.3837
2.8200 0.9234 0.3930
2.8400 0.9301 0.3721
2.8600 0.9367 0.3871
2.8800 0.9434 0.3927
2.9000 0.9500 0.3767
2.9200 0.9566 0.3855
2.9400 0.9632 0.3937
2.9600 0.9699 0.3765
2.9800 0.9767 0.3863
3.0000 0.9833 0.3907
3.0200 0.9900 0.3770
3.0400 0.9967 0.3840
3.0600 1.0034 0.3906
3.0800 1.0099 0.3766
3.1000 1.0165 0.3888
3.1200 1.0232 0.3940
3.1400 1.0299 0.3720
3.1600 1.0366 0.3893
3.1800 1.0433 0.3887
3.2000 1.0500 0.3809
3.2200 1.0567 0.3883
3.2400 1.0633 0.3864
3.2600 1.0700 0.3809
3.2800 1.0766 0.3917
3.3000 1.0833 0.3892
3.3200 1.0900 0.3764
3.3400 1.0967 0.3889
3.3600 1.1033 0.3937
3.3800 1.1100 0.3821
3.4000 1.1168 0.3899
3.4200 1.1234 0.3878
3.4400 1.1301 0.3873
3.4600 1.1366 0.3895
3.4800 1.1433 0.3854
3.5000 1.1500 0.3882
3.5200 1.1567 0.3822
3.5400 1.1634 0.3821
3.5600 1.1701 0.3938
3.5800 1.1767 0.3844
3.6000 1.1834 0.3838
3.6200 1.1900 0.3886
3.6400 1.1966 0.3813
3.6600 1.2032 0.3938
3.6800 1.2100 0.3906
3.7000 1.2167 0.3746
3.7200 1.2233 0.3941
3.7400 1.2300 0.3901
3.7600 1.2367 0.3763
3.7800 1.2433 0.3950
3.8000 1.2500 0.3811
3.8200 1.2566 0.3784
3.8400 1.2632 0.3962
3.8600 1.2699 0.3841
3.8800 1.2766 0.3862
3.9000 1.2833 0.3898
3.9200 1.2900 0.3811
3.9400 1.2967 0.3825
3.9600 1.3034 0.3939
3.9800 1.3100 0.3863
4.0000 1.3166 0.3835
4.0200 1.3232 0.3919
4.0400 1.3299 0.3851
4.0600 1.3366 0.3867
4.0800 1.3433 0.3887
4.1000 1.3500 0.3838
4.1200 1.3567 0.3888
4.1400 1.3634 0.3835
4.1600 1.3700 0.3908
4.1800 1.3766 0.3870
4.2000 1.3833 0.3868
4.2200 1.3900 0.3958
4.2400 1.3967 0.3841
4.2600 1.4034 0.3862
4.2800 1.4100 0.3914
4.3000 1.4167 0.3876
4.3200 1.4234 0.3832
4.3400 1.4300 0.3936
4.3600 1.4366 0.3844
4.3800 1.4433 0.3890
4.4000 1.4499 0.3977
4.4200 1.4566 0.3750
4.4400 1.4633 0.3951
4.4600 1.4700 0.3982
4.4800 1.4767 0.3808
4.5000 1.4834 0.3937
4.5200 1.4900 0.3923
4.5400 1.4966 0.3816
4.5600 1.5032 0.3980
4.5800 1.5099 0.3922
4.6000 1.5166 0.3797
4.6200 1.5233 0.3958
4.6400 1.5300 0.3915
4.6600 1.5367 0.3833
4.6800 1.5434 0.3957
4.7000 1.5500 0.3873
4.7200 1.5566 0.3862
4.7400 1.5632 0.3977
4.7600 1.5700 0.3836
4.7800 1.5767 0.3924
4.8000 1.5834 0.3939
4.8200 1.5901 0.3809
4.8400 1.5967 0.3911
4.8600 1.6034 0.3911
4.8800 1.6100 0.3852
4.9000 1.6166 0.3894
4.9200 1.6232 0.3869
4.9400 1.6299 0.3909
4.9600 1.6366 0.3955
4.9800 1.6434 0.3822
5.0000 1.6500 0.3870
5.0200 1.6567 0.4001
5.0400 1.6634 0.3795
5.0600 1.6700 0.3944
5.0800 1.6766 0.3907
5.1000 1.6832 0.3796
5.1200 1.6899 0.3976
5.1400 1.6966 0.3903
5.1600 1.7033 0.3802
5.1800 1.7100 0.4035
5.2000 1.7167 0.3869
5.2200 1.7234 0.3793
5.2400 1.7300 0.3986
5.2600 1.7366 0.3858
5.2800 1.7432 0.3829
5.3000 1.7499 0.4018
5.3200 1.7566 0.3821
5.3400 1.7633 0.3801
5.3600 1.7700 0.4001
5.3800 1.7767 0.3851
5.4000 1.7833 0.3868
5.4200 1.7900 0.3947
5.4400 1.7966 0.3816
5.4600 1.8033 0.3874
5.4800 1.8099 0.4004
5.5000 1.8167 0.3830
5.5200 1.8234 0.3857
5.5400 1.8301 0.3989
5.5600 1.8368 0.3888
5.5800 1.8434 0.3896
5.6000 1.8501 0.3911
5.6200 1.8566 0.3882
5.6400 1.8632 0.3907
5.6600 1.8699 0.3980
5.6800 1.8766 0.3841
5.7000 1.8833 0.3873
5.7200 1.8900 0.3996
5.7400 1.8967 0.3909
5.7600 1.9034 0.3840
5.7800 1.9100 0.3922
5.8000 1.9166 0.3926
5.8200 1.9233 0.3857
5.8400 1.9299 0.3963
5.8600 1.9366 0.3919
5.8800 1.9433 0.3878
5.9000 1.9500 0.3953
5.9200 1.9566 0.3922
5.9400 1.9633 0.3867
5.9600 1.9700 0.3925
5.9800 1.9766 0.3911
6.0000 1.9832 0.3826
6.0200 1.9899 0.3951
6.0400 1.9966 0.4000
6.0600 2.0033 0.3836
6.0800 2.0100 0.3960
6.1000 2.0167 0.3931
6.1200 2.0234 0.3815
6.1400 2.0300 0.3965
6.1600 2.0366 0.3944
6.1800 2.0433 0.3863
6.2000 2.0499 0.3926
6.2200 2.0566 0.3886
6.2400 2.0633 0.3889
6.2600 2.0700 0.3992
6.2800 2.0767 0.3944
6.3000 2.0834 0.3815
6.3200 2.0900 0.3892
6.3400 2.0966 0.3990
6.3600 2.1033 0.3893
6.3800 2.1099 0.3963
6.4000 2.1167 0.3916
6.4200 2.1234 0.3824
6.4400 2.1300 0.3951
6.4600 2.1367 0.3924
6.4800 2.1434 0.3799
6.5000 2.1500 0.3938
6.5200 2.1566 0.3972
6.5400 2.1633 0.3769
6.5600 2.1699 0.3977
6.5800 2.1766 0.3971
6.6000 2.1833 0.3799
6.6200 2.1900 0.3926
6.6400 2.1967 0.3909
6.6600 2.2034 0.3827
6.6800 2.2101 0.3976
6.7000 2.2166 0.3886
6.7200 2.2232 0.3774
6.7400 2.2299 0.4015
6.7600 2.2366 0.3955
6.7800 2.2433 0.3781
6.8000 2.2500 0.3935
6.8200 2.2567 0.3905
6.8400 2.2633 0.3840
6.8600 2.2700 0.3950
6.8800 2.2766 0.3891
6.9000 2.2833 0.3816
6.9200 2.2899 0.3941
6.9400 2.2966 0.3927
6.9600 2.3033 0.3829
6.9800 2.3100 0.3923
7.0000 2.3167 0.3922
7.0200 2.3234 0.3834
7.0400 2.3300 0.3902
7.0600 2.3367 0.3969
7.0800 2.3433 0.3873
7.1000 2.3499 0.3868
7.1200 2.3566 0.3999
7.1400 2.3633 0.3897
7.1600 2.3700 0.3838
7.1800 2.3767 0.3972
7.2000 2.3834 0.3888
7.2200 2.3901 0.3847
7.2400 2.3966 0.3972
7.2600 2.4032 0.3872
7.2800 2.4099 0.3876
7.3000 2.4166 0.3985
7.3200 2.4233 0.3853
7.3400 2.4300 0.3866
7.3600 2.4367 0.4038
7.3800 2.4434 0.3836
7.4000 2.4500 0.3851
7.4200 2.4566 0.4011
7.4400 2.4633 0.3856
7.4600 2.4699 0.3885
7.4800 2.4766 0.4021
7.5000 2.4833 0.3835
7.5200 2.4900 0.3892
7.5400 2.4966 0.3976
7.5600 2.5033 0.3828
7.5800 2.5100 0.3944
7.6000 2.5166 0.3996
7.6200 2.5233 0.3832
7.6400 2.5299 0.3919
7.6600 2.5366 0.3979
7.6800 2.5433 0.3855
7.7000 2.5500 0.3933
7.7200 2.5567 0.3935
7.7400 2.5634 0.3866
7.7600 2.5701 0.3911
7.7800 2.5767 0.3896
7.8000 2.5833 0.3871
7.8200 2.5899 0.3990
7.8400 2.5966 0.3891
7.8600 2.6034 0.3877
7.8800 2.6101 0.3901
7.9000 2.6167 0.3937
7.9200 2.6234 0.3943
7.9400 2.6300 0.3923
7.9600 2.6366 0.3919
7.9800 2.6433 0.3896
8.0000 2.6499 0.3918
8.0200 2.6566 0.3879
8.0400 2.6633 0.3900
8.0600 2.6700 0.3892
8.0800 2.6766 0.3958
8.1000 2.6833 0.3959
8.1200 2.6900 0.3842
8.1400 2.6966 0.3897
8.1600 2.7032 0.3970
8.1800 2.7099 0.3836
8.2000 2.7166 0.3922
8.2200 2.7234 0.3979
8.2400 2.7300 0.3819
8.2600 2.7367 0.3895
8.2800 2.7434 0.3966
8.3000 2.7501 0.3818
8.3200 2.7567 0.3965
8.3400 2.7633 0.3982
8.3600 2.7699 0.3812
8.3800 2.7766 0.3960
8.4000 2.7833 0.3948
8.4200 2.7900 0.3833
8.4400 2.7967 0.3950
8.4600 2.8034 0.3920
8.4800 2.8101 0.3833
8.5000 2.8167 0.3987
8.5200 2.8233 0.3931
8.5400 2.8299 0.3814
8.5600 2.8366 0.3967
8.5800 2.8433 0.3899
8.6000 2.8500 0.3804
8.6200 2.8567 0.3988
8.6400 2.8634 0.3931
8.6600 2.8701 0.3789
8.6800 2.8767 0.3955
8.7000 2.8833 0.3923
8.7200 2.8899 0.3871
8.7400 2.8966 0.3929
8.7600 2.9033 0.3896
8.7800 2.9100 0.3853
8.8000 2.9167 0.3911
8.8200 2.9234 0.3925
8.8400 2.9300 0.3843
8.8600 2.9366 0.3848
8.8800 2.9432 0.3985
8.9000 2.9499 0.3833
8.9200 2.9566 0.3825
8.9400 2.9633 0.3966
8.9600 2.9700 0.3824
8.9800 2.9766 0.3836
9.0000 2.9833 0.3950
9.0200 2.9900 0.3871
9.0400 2.9967 0.3860
9.0600 3.0033 0.3951
9.0800 3.0099 0.3856
9.1000 3.0166 0.3861
9.1200 3.0233 0.3927
9.1400 3.0300 0.3808
9.1600 3.0367 0.3852
9.1800 3.0434 0.3955
9.2000 3.0501 0.3792
9.2200 3.0567 0.3904
9.2400 3.0633 0.3933
9.2600 3.0699 0.3819
9.2800 3.0766 0.3898
9.3000 3.0833 0.3914
9.3200 3.0900 0.3785
9.3400 3.0967 0.3895
9.3600 3.1034 0.3955
9.3800 3.1101 0.3766
9.4000 3.1167 0.3874
9.4200 3.1233 0.3933
9.4400 3.1299 0.3830
9.4600 3.1366 0.3885
9.4800 3.1433 0.3901
9.5000 3.1500 0.3817
9.5200 3.1567 0.3943
9.5400 3.1634 0.3883
9.5600 3.1700 0.3816
9.5800 3.1767 0.3923
9.6000 3.1833 0.3887
9.6200 3.1899 0.3818
9.6400 3.1966 0.3930
9.6600 3.2033 0.3926
9.6800 3.2100 0.3817
9.7000 3.2166 0.3864
9.7200 3.2233 0.3875
9.7400 3.2299 0.3874
9.7600 3.2366 0.3868
9.7800 3.2432 0.3887
9.8000 3.2499 0.3886
9.8200 3.2566 0.3894
9.8400 3.2633 0.3854
9.8600 3.2700 0.3870
9.8800 3.2767 0.3851
9.9000 3.2834 0.3935
9.9200 3.2901 0.3857
9.9400 3.2967 0.3810
9.9600 3.3033 0.3973
9.9800 3.3099 0.3830
10.0000 3.3166 0.3834
10.0200 3.3234 0.3966
10.0400 3.3301 0.3844
10.0600 3.3368 0.3808
10.0800 3.3434 0.3973
10.1000 3.3500 0.3739
10.1200 3.3567 0.3814
10.1400 3.3633 0.4068
10.1600 3.3699 0.3758
10.1800 3.3766 0.3748
10.2000 3.3833 0.4013
10.2200 3.3900 0.3829
10.2400 3.3966 0.3834
10.2600 3.4033 0.3985
10.2800 3.4100 0.3796
10.3000 3.4167 0.3802
10.3200 3.4233 0.3977
10.3400 3.4299 0.3833
10.3600 3.4366 0.3816
10.3800 3.4433 0.4032
10.4000 3.4500 0.3773
10.4200 3.4567 0.3771
10.4400 3.4633 0.3997
10.4600 3.4700 0.3871
10.4800 3.4767 0.3782
10.5000 3.4833 0.3902
10.5200 3.4899 0.3836
10.5400 3.4966 0.3843
10.5600 3.5033 0.3897
10.5800 3.5100 0.3816
10.6000 3.5167 0.3842
10.6200 3.5234 0.3897
10.6400 3.5301 0.3797
10.6600 3.5367 0.3839
10.6800 3.5433 0.3895
10.7000 3.5499 0.3894
10.7200 3.5566 0.3849
10.7400 3.5633 0.3881
10.7600 3.5700 0.3834
10.7800 3.5767 0.3766
10.8000 3.5834 0.3955
10.8200 3.5901 0.3850
10.8400 3.5967 0.3788
10.8600 3.6033 0.3904
10.8800 3.6099 0.3799
10.9000 3.6166 0.3819
10.9200 3.6233 0.3982
10.9400 3.6300 0.3797
10.9600 3.6367 0.3746
10.9800 3.6434 0.3951
11.0000 3.6500 0.3817
11.0200 3.6567 0.3822
11.0400 3.6633 0.3938
11.0600 3.6699 0.3769
11.0800 3.6765 0.3773
11.1000 3.6833 0.3981
11.1200 3.6900 0.3763
11.1400 3.6966 0.3771
11.1600 3.7033 0.3946
11.1800 3.7100 0.3750
11.2000 3.7166 0.3795
11.2200 3.7233 0.3933
11.2400 3.7299 0.3806
11.2600 3.7366 0.3774
11.2800 3.7433 0.3912
11.3000 3.7500 0.3797
11.3200 3.7567 0.3791
11.3400 3.7634 0.3843
11.3600 3.7700 0.3804
11.3800 3.7767 0.3826
11.4000 3.7833 0.3812
11.4200 3.7899 0.3830
11.4400 3.7966 0.3806
11.4600 3.8034 0.3843
11.4800 3.8101 0.3857
11.5000 3.8168 0.3740
11.5200 3.8234 0.3852
11.5400 3.8301 0.3877
11.5600 3.8367 0.3763
11.5800 3.8433 0.3828
11.6000 3.8499 0.3901
11.6200 3.8566 0.3774
11.6400 3.8633 0.3802
11.6600 3.8700 0.3908
11.6800 3.8766 0.3814
11.7000 3.8833 0.3828
11.7200 3.8900 0.3866
11.7400 3.8967 0.3742
11.7600 3.9033 0.3842
11.7800 3.9099 0.3939
11.8000 3.9165 0.3725
11.8200 3.9232 0.3820
11.8400 3.9300 0.3912
11.8600 3.9366 0.3756
11.8800 3.9433 0.3808
11.9000 3.9500 0.3893
11.9200 3.9567 0.3708
11.9400 3.9633 0.3820
11.9600 3.9699 0.3904
11.9800 3.9766 0.3770
12.0000 3.9833 0.3802
12.0200 3.9900 0.3861
12.0400 3.9967 0.3744
12.0600 4.0034 0.3814
12.0800 4.0101 0.3900
12.1000 4.0167 0.3743
12.1200 4.0233 0.3813
12.1400 4.0299 0.3859
12.1600 4.0366 0.3772
12.1800 4.0433 0.3811
12.2000 4.0500 0.3858
12.2200 4.0567 0.3809
12.2400 4.0634 0.3768
12.2600 4.0701 0.3802
12.2800 4.0768 0.3849
12.3000 4.0833 0.3808
12.3200 4.0899 0.3857
12.3400 4.0966 0.3802
12.3600 4.1033 0.3715
12.3800 4.1100 0.3842
12.4000 4.1167 0.3845
12.4200 4.1234 0.3765
12.4400 4.1301 0.3830
12.4600 4.1367 0.3840
12.4800 4.1433 0.3666
12.5000 4.1499 0.3878
12.5200 4.1566 0.3916
12.5400 4.1633 0.3738
12.5600 4.1700 0.3786
12.5800 4.1767 0.3832
12.6000 4.1833 0.3755
12.6200 4.1900 0.3876
12.6400 4.1967 0.3803
12.6600 4.2034 0.3694
12.6800 4.2100 0.3870
12.7000 4.2166 0.3792
12.7200 4.2233 0.3701
12.7400 4.2300 0.3871
12.7600 4.2366 0.3815
12.7800 4.2433 0.3701
12.8000 4.2501 0.3862
12.8200 4.2567 0.3784
12.8400 4.2633 0.3695
12.8600 4.2699 0.3857
12.8800 4.2766 0.3789
12.9000 4.2833 0.3706
12.9200 4.2900 0.3895
12.9400 4.2967 0.3735
12.9600 4.3034 0.3711
12.9800 4.3100 0.3911
13.0000 4.3167 0.3744
13.0200 4.3233 0.3690
13.0400 4.3300 0.3923
13.0600 4.3366 0.3820
13.0800 4.3433 0.3704
13.1000 4.3500 0.3844
13.1200 4.3567 0.3756
13.1400 4.3634 0.3781
13.1600 4.3700 0.3865
13.1800 4.3767 0.3718
13.2000 4.3833 0.3724
13.2200 4.3899 0.3834
13.2400 4.3966 0.3751
13.2600 4.4032 0.3770
13.2800 4.4099 0.3809
13.3000 4.4166 0.3776
13.3200 4.4233 0.3695
13.3400 4.4300 0.3851
13.3600 4.4367 0.3795
13.3800 4.4433 0.3698
13.4000 4.4499 0.3810
13.4200 4.4566 0.3791
13.4400 4.4633 0.3769
13.4600 4.4700 0.3836
13.4800 4.4767 0.3762
13.5000 4.4834 0.3669
13.5200 4.4901 0.3867
13.5400 4.4967 0.3799
13.5600 4.5033 0.3638
13.5800 4.5100 0.3881
13.6000 4.5166 0.3823
13.6200 4.5233 0.3626
13.6400 4.5300 0.3874
13.6600 4.5367 0.3753
13.6800 4.5433 0.3644
13.7000 4.5500 0.3926
13.7200 4.5567 0.3782
13.7400 4.5633 0.3610
13.7600 4.5699 0.3903
13.7800 4.5765 0.3787
13.8000 4.5832 0.3685
13.8200 4.5900 0.3835
13.8400 4.5967 0.3732
13.8600 4.6034 0.3707
13.8800 4.6101 0.3831
13.9000 4.6167 0.3759
13.9200 4.6234 0.3705
13.9400 4.6299 0.3847
13.9600 4.6366 0.3718
13.9800 4.6432 0.3736
14.0000 4.6500 0.3818
14.0200 4.6567 0.3722
14.0400 4.6634 0.3770
14.0600 4.6700 0.3801
14.0800 4.6767 0.3745
14.1000 4.6833 0.3741
14.1200 4.6899 0.3744
14.1400 4.6966 0.3795
14.1600 4.7033 0.3779
14.1800 4.7100 0.3666
14.2000 4.7167 0.3777
14.2200 4.7234 0.3732
14.2400 4.7300 0.3725
14.2600 4.7367 0.3799
14.2800 4.7434 0.3753
14.3000 4.7500 0.3730
14.3200 4.7566 0.3822
14.3400 4.7633 0.3720
14.3600 4.7700 0.3708
14.3800 4.7767 0.3891
14.4000 4.7834 0.3708
14.4200 4.7901 0.3679
14.4400 4.7968 0.3826
14.4600 4.8034 0.3710
14.4800 4.8100 0.3741
14.5000 4.8166 0.3848
14.5200 4.8232 0.3663
14.5400 4.8299 0.3769
14.5600 4.8365 0.3863
14.5800 4.8432 0.3616
14.6000 4.8499 0.3794
14.6200 4.8567 0.3911
14.6400 4.8633 0.3553
14.6600 4.8700 0.3765
14.6800 4.8766 0.3877
14.7000 4.8832 0.3631
14.7200 4.8900 0.3803
14.7400 4.8966 0.3833
14.7600 4.9033 0.3635
14.7800 4.9100 0.3783
14.8000 4.9167 0.3776
14.8200 4.9233 0.3687
14.8400 4.9300 0.3869
14.8600 4.9366 0.3710
14.8800 4.9433 0.3645
14.9000 4.9500 0.3871
14.9200 4.9567 0.3706
14.9400 4.9634 0.3677
14.9600 4.9701 0.3880
14.9800 4.9767 0.3641
15.0000 4.9834 0.3702
15.0200 4.9899 0.3854
15.0400 4.9966 0.3663
15.0600 5.0032 0.3757
15.0800 5.0100 0.3762
15.1000 5.0167 0.3630
15.1200 5.0234 0.3836
15.1400 5.0301 0.3706
15.1600 5.0367 0.3676
15.1800 5.0434 0.3835
15.2000 5.0500 0.3666
15.2200 5.0566 0.3750
15.2400 5.0633 0.3878
15.2600 5.0700 0.3610
15.2800 5.0767 0.3696
15.3000 5.0834 0.3850
15.3200 5.0900 0.3620
15.3400 5.0967 0.3739
15.3600 5.1033 0.3808
15.3800 5.1099 0.3598
15.4000 5.1165 0.3739
15.4200 5.1232 0.3812
15.4400 5.1299 0.3634
15.4600 5.1366 0.3763
15.4800 5.1433 0.3712
15.5000 5.1500 0.3654
15.5200 5.1567 0.3781
15.5400 5.1633 0.3713
15.5600 5.1699 0.3656
15.5800 5.1766 0.3754
15.6000 5.1833 0.3704
15.6200 5.1900 0.3636
15.6400 5.1967 0.3737
15.6600 5.2034 0.3695
15.6800 5.2101 0.3676
15.7000 5.2167 0.3697
15.7200 5.2234 0.3742
15.7400 5.2300 0.3673
15.7600 5.2366 0.3681
15.7800 5.2433 0.3754
15.8000 5.2500 0.3670
15.8200 5.2567 0.3667
15.8400 5.2634 0.3756
15.8600 5.2701 0.3664
15.8800 5.2767 0.3649
15.9000 5.2834 0.3771
15.9200 5.2900 0.3693
15.9400 5.2966 0.3638
15.9600 5.3032 0.3729
15.9800 5.3099 0.3688
16.0000 5.3166 0.3641
16.0200 5.3233 0.3749
16.0400 5.3300 0.3592
16.0600 5.3367 0.3654
16.0800 5.3433 0.3698
16.1000 5.3500 0.3580
16.1200 5.3566 0.3657
16.1400 5.3633 0.3735
16.1600 5.3700 0.3622
16.1800 5.3767 0.3628
16.2000 5.3833 0.3743
16.2200 5.3900 0.3597
16.2400 5.3967 0.3658
16.2600 5.4034 0.3728
16.2800 5.4100 0.3547
16.3000 5.4167 0.3628
16.3200 5.4233 0.3773
16.3400 5.4300 0.3577
16.3600 5.4367 0.3606
16.3800 5.4434 0.3768
16.4000 5.4501 0.3569
16.4200 5.4567 0.3559
16.4400 5.4634 0.3763
16.4600 5.4700 0.3575
16.4800 5.4766 0.3639
16.5000 5.4832 0.3761
16.5200 5.4899 0.3537
16.5400 5.4967 0.3638
16.5600 5.5034 0.3735
16.5800 5.5101 0.3521
16.6000 5.5167 0.3638
16.6200 5.5234 0.3725
16.6400 5.5300 0.3550
16.6600 5.5366 0.3631
16.6800 5.5432 0.3722
16.7000 5.5500 0.3539
16.7200 5.5567 0.3601
16.7400 5.5633 0.3684
16.7600 5.5700 0.3576
16.7800 5.5767 0.3643
16.8000 5.5833 0.3628
16.8200 5.5900 0.3583
16.8400 5.5966 0.3631
16.8600 5.6032 0.3635
16.8800 5.6099 0.3604
16.9000 5.6166 0.3590
16.9200 5.6233 0.3647
16.9400 5.6300 0.3643
16.9600 5.6367 0.3556
16.9800 5.6433 0.3618
17.0000 5.6499 0.3689
17.0200 5.6566 0.3540
17.0400 5.6632 0.3644
17.0600 5.6700 0.3654
17.0800 5.6767 0.3554
17.1000 5.6834 0.3621
17.1200 5.6901 0.3646
17.1400 5.6967 0.3501
17.1600 5.7034 0.3656
17.1800 5.7100 0.3650
17.2000 5.7166 0.3508
17.2200 5.7233 0.3697
17.2400 5.7300 0.3625
17.2600 5.7367 0.3465
17.2800 5.7434 0.3702
17.3000 5.7500 0.3628
17.3200 5.7567 0.3477
17.3400 5.7634 0.3718
17.3600 5.7700 0.3575
17.3800 5.7766 0.3511
17.4000 5.7832 0.3739
17.4200 5.7899 0.3573
17.4400 5.7966 0.3512
17.4600 5.8033 0.3722
17.4800 5.8100 0.3536
17.5000 5.8167 0.3522
17.5200 5.8234 0.3653
17.5400 5.8300 0.3564
17.5600 5.8365 0.3583
17.5800 5.8432 0.3692
17.6000 5.8499 0.3611
17.6200 5.8566 0.3561
17.6400 5.8633 0.3609
17.6600 5.8700 0.3590
17.6800 5.8767 0.3640
17.7000 5.8833 0.3571
17.7200 5.8900 0.3597
17.7400 5.8966 0.3651
17.7600 5.9033 0.3566
17.7800 5.9100 0.3588
17.8000 5.9166 0.3637
17.8200 5.9233 0.3588
17.8400 5.9300 0.3606
17.8600 5.9367 0.3576
17.8800 5.9435 0.3587
17.9000 5.9501 0.3664
17.9200 5.9567 0.3573
17.9400 5.9633 0.3560
17.9600 5.9700 0.3685
17.9800 5.9767 0.3562
18.0000 5.9834 0.3531
18.0200 5.9901 0.3656
18.0400 5.9967 0.3533
18.0600 6.0034 0.3560
18.0800 6.0100 0.3643
18.1000 6.0166 0.3543
18.1200 6.0232 0.3609
18.1400 6.0299 0.3632
18.1600 6.0366 0.3521
18.1800 6.0433 0.3616
18.2000 6.0500 0.3612
18.2200 6.0567 0.3527
18.2400 6.0634 0.3588
18.2600 6.0700 0.3655
18.2800 6.0766 0.3524
18.3000 6.0832 0.3589
18.3200 6.0899 0.3612
18.3400 6.0966 0.3506
18.3600 6.1033 0.3617
18.3800 6.1100 0.3568
18.4000 6.1167 0.3541
18.4200 6.1234 0.3570
18.4400 6.1300 0.3600
18.4600 6.1366 0.3542
18.4800 6.1432 0.3574
18.5000 6.1499 0.3628
18.5200 6.1566 0.3503
18.5400 6.1633 0.3528
18.5600 6.1700 0.3650
18.5800 6.1767 0.3545
18.6000 6.1834 0.3505
18.6200 6.1900 0.3628
18.6400 6.1966 0.3562
18.6600 6.2032 0.3538
18.6800 6.2100 0.3594
18.7000 6.2167 0.3544
18.7200 6.2234 0.3532
18.7400 6.2301 0.3644
18.7600 6.2367 0.3479
18.7800 6.2434 0.3552
18.8000 6.2500 0.3614
18.8200 6.2566 0.3549
18.8400 6.2633 0.3541
18.8600 6.2700 0.3595
18.8800 6.2766 0.3501
18.9000 6.2833 0.3601
18.9200 6.2900 0.3552
18.9400 6.2967 0.3480
18.9600 6.3034 0.3628
18.9800 6.3100 0.3515
19.0000 6.3166 0.3513
19.0200 6.3232 0.3642
19.0400 6.3299 0.3521
19.0600 6.3366 0.3495
19.0800 6.3433 0.3622
19.1000 6.3500 0.3508
19.1200 6.3567 0.3549
19.1400 6.3634 0.3575
19.1600 6.3700 0.3490
19.1800 6.3766 0.3605
19.2000 6.3833 0.3583
19.2200 6.3900 0.3497
19.2400 6.3967 0.3537
19.2600 6.4034 0.3557
19.2800 6.4101 0.3542
19.3000 6.4167 0.3579
19.3200 6.4234 0.3530
19.3400 6.4300 0.3478
19.3600 6.4366 0.3609
19.3800 6.4432 0.3545
19.4000 6.4499 0.3490
19.4200 6.4566 0.3558
19.4400 6.4633 0.3520
19.4600 6.4700 0.3501
19.4800 6.4767 0.3557
19.5000 6.4834 0.3535
19.5200 6.4900 0.3503
19.5400 6.4966 0.3609
19.5600 6.5032 0.3471
19.5800 6.5099 0.3533
19.6000 6.5166 0.3587
19.6200 6.5233 0.3450
19.6400 6.5300 0.3560
19.6600 6.5367 0.3601
19.6800 6.5434 0.3498
19.7000 6.5500 0.3539
19.7200 6.5566 0.3582
19.7400 6.5632 0.3437
19.7600 6.5699 0.3609
19.7800 6.5766 0.3621
19.8000 6.5833 0.3399
19.8200 6.5900 0.3607
19.8400 6.5966 0.3533
19.8600 6.6033 0.3403
19.8800 6.6100 0.3678
19.9000 6.6166 0.3497
19.9200 6.6233 0.3438
19.9400 6.6299 0.3638
19.9600 6.6366 0.3511
19.9800 6.6433 0.3446
20.0000 6.6500 0.3635
20.0200 6.6567 0.3553
20.0400 6.6634 0.3417
20.0600 6.6701 0.3617
20.0800 6.6767 0.3519
20.1000 6.6833 0.3482
20.1200 6.6899 0.3589
20.1400 6.6967 0.3474
20.1600 6.7034 0.3492
20.1800 6.7101 0.3581
20.2000 6.7167 0.3461
20.2200 6.7234 0.3502
20.2400 6.7300 0.3576
20.2600 6.7366 0.3559
20.2800 6.7432 0.3498
20.3000 6.7499 0.3490
20.3200 6.7566 0.3512
20.3400 6.7633 0.3493
20.3600 6.7700 0.3495
20.3800 6.7767 0.3586
20.4000 6.7833 0.3484
20.4200 6.7900 0.3434
20.4400 6.7966 0.3592
20.4600 6.8032 0.3467
20.4800 6.8099 0.3525
20.5000 6.8166 0.3561
20.5200 6.8233 0.3426
20.5400 6.8300 0.3525
20.5600 6.8367 0.3626
20.5800 6.8434 0.3423
20.6000 6.8500 0.3483
20.6200 6.8567 0.3630
20.6400 6.8633 0.3408
20.6600 6.8699 0.3500
20.6800 6.8767 0.3646
20.7000 6.8834 0.3363
20.7200 6.8901 0.3484
20.7400 6.8967 0.3627
20.7600 6.9034 0.3357
20.7800 6.9101 0.3532
20.8000 6.9166 0.3602
20.8200 6.9232 0.3376
20.8400 6.9299 0.3546
20.8600 6.9366 0.3569
20.8800 6.9433 0.3365
20.9000 6.9500 0.3565
20.9200 6.9567 0.3544
20.9400 6.9634 0.3367
20.9600 6.9701 0.3566
20.9800 6.9767 0.3538
21.0000 6.9833 0.3419
21.0200 6.9899 0.3550
21.0400 6.9966 0.3472
21.0600 7.0033 0.3412
21.0800 7.0100 0.3533
21.1000 7.0167 0.3487
21.1200 7.0234 0.3484
21.1400 7.0300 0.3483
21.1600 7.0366 0.3452
21.1800 7.0432 0.3487
21.2000 7.0499 0.3509
21.2200 7.0566 0.3481
21.2400 7.0633 0.3466
21.2600 7.0700 0.3447
21.2800 7.0767 0.3488
21.3000 7.0833 0.3488
21.3200 7.0900 0.3458
21.3400 7.0966 0.3498
21.3600 7.1032 0.3451
21.3800 7.1099 0.3442
21.4000 7.1166 0.3503
21.4200 7.1233 0.3436
21.4400 7.1300 0.3466
21.4600 7.1367 0.3529
21.4800 7.1434 0.3413
21.5000 7.1501 0.3438
21.5200 7.1567 0.3517
21.5400 7.1633 0.3405
21.5600 7.1699 0.3454
21.5800 7.1766 0.3518
21.6000 7.1833 0.3377
21.6200 7.1900 0.3462
21.6400 7.1967 0.3469
21.6600 7.2034 0.3387
21.6800 7.2101 0.3472
21.7000 7.2167 0.3449
21.7200 7.2232 0.3411
21.7400 7.2299 0.3520
21.7600 7.2366 0.3467
21.7800 7.2433 0.3364
21.8000 7.2500 0.3522
21.8200 7.2567 0.3437
21.8400 7.2634 0.3370
21.8600 7.2700 0.3481
21.8800 7.2766 0.3439
21.9000 7.2832 0.3436
21.9200 7.2899 0.3482
21.9400 7.2966 0.3375
21.9600 7.3033 0.3432
21.9800 7.3100 0.3523
22.0000 7.3166 0.3387
22.0200 7.3233 0.3422
22.0400 7.3300 0.3491
22.0600 7.3367 0.3359
22.0800 7.3433 0.3446
22.1000 7.3499 0.3490
22.1200 7.3566 0.3359
22.1400 7.3633 0.3485
22.1600 7.3700 0.3457
22.1800 7.3767 0.3353
22.2000 7.3834 0.3464
22.2200 7.3901 0.3437
22.2400 7.3967 0.3398
22.2600 7.4033 0.3500
22.2800 7.4099 0.3390
22.3000 7.4166 0.3371
22.3200 7.4234 0.3487
22.3400 7.4301 0.3379
22.3600 7.4367 0.3422
22.3800 7.4434 0.3485
22.4000 7.4500 0.3373
22.4200 7.4566 0.3388
22.4400 7.4633 0.3463
22.4600 7.4699 0.3392
22.4800 7.4766 0.3425
22.5000 7.4833 0.3442
22.5200 7.4900 0.3361
22.5400 7.4967 0.3384
22.5600 7.5034 0.3415
22.5800 7.5100 0.3342
22.6000 7.5167 0.3402
22.6200 7.5232 0.3427
22.6400 7.5299 0.3365
22.6600 7.5366 0.3416
22.6800 7.5433 0.3426
22.7000 7.5500 0.3346
22.7200 7.5567 0.3370
22.7400 7.5634 0.3405
22.7600 7.5700 0.3346
22.7800 7.5767 0.3406
22.8000 7.5833 0.3397
22.8200 7.5899 0.3403
22.8400 7.5966 0.3360
22.8600 7.6033 0.3405
22.8800 7.6100 0.3361
22.9000 7.6167 0.3332
22.9200 7.6234 0.3405
22.9400 7.6301 0.3412
22.9600 7.6367 0.3298
22.9800 7.6433 0.3356
23.0000 7.6499 0.3406
23.0200 7.6566 0.3339
23.0400 7.6633 0.3404
23.0600 7.6700 0.3346
23.0800 7.6767 0.3325
23.1000 7.6834 0.3365
23.1200 7.6901 0.3340
23.1400 7.6967 0.3300
23.1600 7.7033 0.3454
23.1800 7.7099 0.3357
23.2000 7.7166 0.3284
23.2200 7.7233 0.3409
23.2400 7.7300 0.3361
23.2600 7.7367 0.3297
23.2800 7.7434 0.3445
23.3000 7.7500 0.3287
23.3200 7.7566 0.3306
23.3400 7.7632 0.3430
23.3600 7.7699 0.3335
23.3800 7.7766 0.3307
23.4000 7.7833 0.3402
23.4200 7.7900 0.3313
23.4400 7.7966 0.3299
23.4600 7.8033 0.3457
23.4800 7.8100 0.3332
23.5000 7.8166 0.3262
23.5200 7.8233 0.3437
23.5400 7.8299 0.3378
23.5600 7.8366 0.3272
23.5800 7.8433 0.3429
23.6000 7.8500 0.3377
23.6200 7.8567 0.3287
23.6400 7.8634 0.3412
23.6600 7.8701 0.3355
23.6800 7.8767 0.3272
23.7000 7.8833 0.3445
23.7200 7.8899 0.3392
23.7400 7.8966 0.3242
23.7600 7.9033 0.3439
23.7800 7.9100 0.3340
23.8000 7.9167 0.3253
23.8200 7.9234 0.3451
23.8400 7.9301 0.3295
23.8600 7.9367 0.3240
23.8800 7.9433 0.3518
23.9000 7.9499 0.3255
23.9200 7.9566 0.3260
23.9400 7.9633 0.3479
23.9600 7.9700 0.3257
23.9800 7.9767 0.3243
24.0000 7.9833 0.3497
24.0200 7.9901 0.3231
24.0400 7.9967 0.3266
24.0600 8.0033 0.3416
24.0800 8.0099 0.3205
24.1000 8.0166 0.3336
24.1200 8.0233 0.3358
24.1400 8.0300 0.3286
24.1600 8.0366 0.3314
24.1800 8.0433 0.3383
24.2000 8.0500 0.3247
24.2200 8.0566 0.3294
24.2400 8.0632 0.3353
24.2600 8.0699 0.3314
24.2800 8.0766 0.3334
24.3000 8.0833 0.3329
24.3200 8.0900 0.3276
24.3400 8.0967 0.3296
24.3600 8.1034 0.3307
24.3800 8.1101 0.3274
24.4000 8.1167 0.3281
24.4200 8.1233 0.3335
24.4400 8.1299 0.3315
24.4600 8.1366 0.3274
24.4800 8.1434 0.3314
24.5000 8.1501 0.3312
24.5200 8.1568 0.3271
24.5400 8.1634 0.3272
24.5600 8.1701 0.3334
24.5800 8.1767 0.3228
24.6000 8.1833 0.3312
24.6200 8.1899 0.3298
24.6400 8.1966 0.3234
24.6600 8.2033 0.3314
24.6800 8.2100 0.3288
24.7000 8.2166 0.3216
24.7200 8.2233 0.3332
24.7400 8.2300 0.3310
24.7600 8.2367 0.3141
24.7800 8.2433 0.3339
24.8000 8.2499 0.3326
24.8200 8.2566 0.3203
24.8400 8.2633 0.3341
24.8600 8.2700 0.3220
24.8800 8.2767 0.3177
24.9000 8.2833 0.3406
24.9200 8.2900 0.3241
24.9400 8.2967 0.3160
24.9600 8.3033 0.3355
24.9800 8.3099 0.3240
25.0000 8.3166 0.3204
25.0200 8.3233 0.3332
25.0400 8.3300 0.3239
25.0600 8.3367 0.3240
25.0800 8.3434 0.3322
25.1000 8.3501 0.3180
25.1200 8.3567 0.3186
25.1400 8.3633 0.3319
25.1600 8.3699 0.3220
25.1800 8.3766 0.3183
25.2000 8.3833 0.3293
25.2200 8.3900 0.3192
25.2400 8.3967 0.3239
25.2600 8.4034 0.3247
25.2800 8.4101 0.3231
25.3000 8.4167 0.3208
25.3200 8.4233 0.3247
25.3400 8.4299 0.3256
25.3600 8.4366 0.3204
25.3800 8.4433 0.3254
25.4000 8.4500 0.3264
25.4200 8.4567 0.3174
25.4400 8.4634 0.3254
25.4600 8.4700 0.3255
25.4800 8.4767 0.3187
25.5000 8.4833 0.3260
25.5200 8.4899 0.3271
25.5400 8.4965 0.3165
25.5600 8.5032 0.3247
25.5800 8.5099 0.3252
25.6000 8.5166 0.3166
25.6200 8.5233 0.3332
25.6400 8.5300 0.3215
25.6600 8.5367 0.3111
25.6800 8.5433 0.3317
25.7000 8.5499 0.3273
25.7200 8.5566 0.3151
25.7400 8.5633 0.3305
25.7600 8.5700 0.3238
25.7800 8.5767 0.3172
25.8000 8.5834 0.3291
25.8200 8.5901 0.3239
25.8400 8.5968 0.3162
25.8600 8.6033 0.3261
25.8800 8.6099 0.3213
25.9000 8.6166 0.3184
25.9200 8.6233 0.3249
25.9400 8.6300 0.3180
25.9600 8.6367 0.3241
25.9800 8.6434 0.3192
26.0000 8.6501 0.3221
26.0200 8.6567 0.3186
26.0400 8.6633 0.3199
26.0600 8.6699 0.3201
26.0800 8.6766 0.3244
26.1000 8.6833 0.3231
26.1200 8.6900 0.3218
26.1400 8.6967 0.3229
26.1600 8.7033 0.3182
26.1800 8.7100 0.3235
26.2000 8.7167 0.3233
26.2200 8.7233 0.3172
26.2400 8.7299 0.3231
26.2600 8.7365 0.3235
26.2800 8.7432 0.3151
26.3000 8.7499 0.3255
26.3200 8.7566 0.3236
26.3400 8.7633 0.3144
26.3600 8.7700 0.3230
26.3800 8.7767 0.3257
26.4000 8.7833 0.3146
26.4200 8.7899 0.3286
26.4400 8.7966 0.3259
26.4600 8.8033 0.3115
26.4800 8.8100 0.3295
26.5000 8.8167 0.3198
26.5200 8.8234 0.3109
26.5400 8.8301 0.3324
26.5600 8.8367 0.3211
26.5800 8.8434 0.3124
26.6000 8.8500 0.3294
26.6200 8.8566 0.3156
26.6400 8.8633 0.3102
26.6600 8.8700 0.3297
26.6800 8.8767 0.3207
26.7000 8.8834 0.3119
26.7200 8.8901 0.3299
26.7400 8.8968 0.3137
26.7600 8.9034 0.3146
26.7800 8.9099 0.3321
26.8000 8.9166 0.3127
26.8200 8.9233 0.3186
26.8400 8.9300 0.3296
26.8600 8.9367 0.3112
26.8800 8.9434 0.3200
26.9000 8.9500 0.3252
26.9200 8.9567 0.3143
26.9400 8.9633 0.3173
26.9600 8.9699 0.3231
26.9800 8.9765 0.3184
27.0000 8.9832 0.3182
27.0200 8.9900 0.3191
27.0400 8.9966 0.3135
27.0600 9.0033 0.3213
27.0800 9.0100 0.3157
27.1000 9.0167 0.3196
27.1200 9.0233 0.3162
27.1400 9.0299 0.3188
27.1600 9.0366 0.3229
27.1800 9.0433 0.3158
27.2000 9.0500 0.3150
27.2200 9.0567 0.3238
27.2400 9.0634 0.3134
27.2600 9.0701 0.3160
27.2800 9.0767 0.3262
27.3000 9.0834 0.3110
27.3200 9.0900 0.3168
27.3400 9.0966 0.3248
27.3600 9.1033 0.3132
27.3800 9.1100 0.3187
27.4000 9.1167 0.3223
27.4200 9.1234 0.3096
27.4400 9.1301 0.3200
27.4600 9.1367 0.3214
27.4800 9.1433 0.3132
27.5000 9.1500 0.3176
27.5200 9.1566 0.3255
27.5400 9.1633 0.3169
27.5600 9.1700 0.3100
27.5800 9.1767 0.3233
27.6000 9.1834 0.3167
27.6200 9.1900 0.3135
27.6400 9.1967 0.3220
27.6600 9.2033 0.3120
27.6800 9.2099 0.3175
27.7000 9.2165 0.3285
27.7200 9.2232 0.3096
27.7400 9.2299 0.3139
27.7600 9.2366 0.3294
27.7800 9.2433 0.3082
27.8000 9.2500 0.3153
27.8200 9.2567 0.3267
27.8400 9.2633 0.3111
27.8600 9.2699 0.3161
27.8800 9.2766 0.3272
27.9000 9.2833 0.3109
27.9200 9.2900 0.3156
27.9400 9.2967 0.3257
27.9600 9.3034 0.3093
27.9800 9.3101 0.3165
28.0000 9.3167 0.3267
28.0200 9.3234 0.3065
28.0400 9.3300 0.3186
28.0600 9.3366 0.3283
28.0800 9.3433 0.3081
28.1000 9.3500 0.3120
28.1200 9.3567 0.3240
28.1400 9.3634 0.3120
28.1600 9.3700 0.3133
28.1800 9.3767 0.3206
28.2000 9.3834 0.3063
28.2200 9.3899 0.3135
28.2400 9.3966 0.3259
28.2600 9.4032 0.3084
28.2800 9.4100 0.3121
28.3000 9.4167 0.3210
28.3200 9.4233 0.3079
28.3400 9.4300 0.3092
28.3600 9.4367 0.3204
28.3800 9.4433 0.3126
28.4000 9.4499 0.3095
28.4200 9.4565 0.3206
28.4400 9.4632 0.3068
28.4600 9.4700 0.3129
28.4800 9.4767 0.3209
28.5000 9.4833 0.3100
28.5200 9.4900 0.3093
28.5400 9.4967 0.3154
28.5600 9.5033 0.3102
28.5800 9.5100 0.3117
28.6000 9.5166 0.3168
28.6200 9.5233 0.3104
28.6400 9.5300 0.3064
28.6600 9.5367 0.3123
28.6800 9.5434 0.3139
28.7000 9.5501 0.3115
28.7200 9.5567 0.3122
28.7400 9.5634 0.3068
28.7600 9.5700 0.3102
28.7800 9.5766 0.3134
28.8000 9.5833 0.3122
28.8200 9.5900 0.3066
28.8400 9.5967 0.3174
28.8600 9.6034 0.3085
28.8800 9.6101 0.3079
28.9000 9.6168 0.3160
28.9200 9.6234 0.3061
28.9400 9.6300 0.3069
28.9600 9.6366 0.3156
28.9800 9.6432 0.3112
29.0000 9.6499 0.3022
29.0200 9.6566 0.3142
29.0400 9.6633 0.3147
29.0600 9.6700 0.2993
29.0800 9.6767 0.3149
29.1000 9.6833 0.3129
29.1200 9.6899 0.3028
29.1400 9.6966 0.3141
29.1600 9.7032 0.3058
29.1800 9.7099 0.3092
29.2000 9.7166 0.3168
29.2200 9.7233 0.3077
29.2400 9.7300 0.3046
29.2600 9.7367 0.3149
29.2800 9.7434 0.3081
29.3000 9.7500 0.3018
29.3200 9.7566 0.3169
29.3400 9.7633 0.3063
29.3600 9.7700 0.3085
29.3800 9.7767 0.3072
29.4000 9.7834 0.3106
29.4200 9.7901 0.3133
29.4400 9.7967 0.3071
29.4600 9.8034 0.3102
29.4800 9.8100 0.3114
29.5000 9.8166 0.3104
29.5200 9.8232 0.3092
29.5400 9.8300 0.3071
29.5600 9.8367 0.3077
29.5800 9.8434 0.3097
29.6000 9.8500 0.3055
29.6200 9.8567 0.3055
29.6400 9.8634 0.3150
29.6600 9.8700 0.3094
29.6800 9.8766 0.3002
29.7000 9.8833 0.3181
29.7200 9.8900 0.3095
29.7400 9.8967 0.3026
29.7600 9.9033 0.3090
29.7800 9.9100 0.3083
29.8000 9.9167 0.3070
29.8200 9.9233 0.3121
29.8400 9.9299 0.3060
29.8600 9.9365 0.3097
29.8800 9.9432 0.3163
29.9000 9.9499 0.3029
29.9200 9.9566 0.3041
29.9400 9.9633 0.3130
29.9600 9.9700 0.3028
29.9800 9.9767 0.3047
30.0000 9.9833 0.3121
30.0200 9.9899 0.3047
30.0400 9.9966 0.3076
30.0600 10.0033 0.3106
30.0800 10.0100 0.3014
30.1000 10.0167 0.3068
30.1200 10.0234 0.3162
30.1400 10.0300 0.3023
30.1600 10.0367 0.3039
30.1800 10.0434 0.3120
30.2000 10.0500 0.3047
30.2200 10.0566 0.3024
30.2400 10.0633 0.3146
30.2600 10.0700 0.3033
30.2800 10.0767 0.2989
30.3000 10.0834 0.3134
30.3200 10.0901 0.3027
30.3400 10.0967 0.2993
30.3600 10.1034 0.3151
30.3800 10.1100 0.2966
30.4000 10.1166 0.2946
30.4200 10.1232 0.3185
30.4400 10.1299 0.3002
30.4600 10.1366 0.2970
30.4800 10.1433 0.3106
30.5000 10.1500 0.2977
30.5200 10.1567 0.2971
30.5400 10.1634 0.3144
30.5600 10.1699 0.2974
30.5800 10.1766 0.2991
30.6000 10.1832 0.3177
30.6200 10.1899 0.2947
30.6400 10.1967 0.2961
30.6600 10.2034 0.3118
30.6800 10.2100 0.2977
30.7000 10.2167 0.2981
30.7200 10.2234 0.3081
30.7400 10.2300 0.2965
30.7600 10.2366 0.3039
30.7800 10.2433 0.3115
30.8000 10.2500 0.2992
30.8200 10.2567 0.2997
30.8400 10.2633 0.3162
30.8600 10.2700 0.2915
30.8800 10.2767 0.2981
30.9000 10.2834 0.3139
30.9200 10.2900 0.2959
30.9400 10.2966 0.3008
30.9600 10.3032 0.3080
30.9800 10.3100 0.3024
31.0000 10.3167 0.2973
31.0200 10.3234 0.3080
31.0400 10.3300 0.2986
31.0600 10.3367 0.2946
31.0800 10.3434 0.3088
31.1000 10.3500 0.2937
31.1200 10.3566 0.2960
31.1400 10.3632 0.3094
31.1600 10.3699 0.2927
31.1800 10.3767 0.3003
31.2000 10.3833 0.3038
31.2200 10.3900 0.2960
31.2400 10.3967 0.2971
31.2600 10.4034 0.3044
31.2800 10.4100 0.2905
31.3000 10.4166 0.3004
31.3200 10.4232 0.3089
31.3400 10.4299 0.2905
31.3600 10.4366 0.3016
31.3800 10.4433 0.3045
31.4000 10.4500 0.2934
31.4200 10.4567 0.3014
31.4400 10.4634 0.3035
31.4600 10.4700 0.2883
31.4800 10.4766 0.2990
31.5000 10.4832 0.3054
31.5200 10.4900 0.2928
31.5400 10.4967 0.2970
31.5600 10.5034 0.3041
31.5800 10.5101 0.2889
31.6000 10.5167 0.2960
31.6200 10.5234 0.3025
31.6400 10.5300 0.2946
31.6600 10.5366 0.2956
31.6800 10.5433 0.2976
31.7000 10.5500 0.2947
31.7200 10.5567 0.2957
31.7400 10.5634 0.2992
31.7600 10.5700 0.2947
31.7800 10.5767 0.2953
31.8000 10.5834 0.2965
31.8200 10.5900 0.2961
31.8400 10.5966 0.2942
31.8600 10.6032 0.3016
31.8800 10.6099 0.2934
31.9000 10.6166 0.2890
31.9200 10.6233 0.3006
31.9400 10.6300 0.2949
31.9600 10.6367 0.2876
31.9800 10.6434 0.3009
32.0000 10.6500 0.2934
32.0200 10.6566 0.2916
32.0400 10.6632 0.3009
32.0600 10.6699 0.2941
32.0800 10.6766 0.2940
32.1000 10.6833 0.2960
32.1200 10.6900 0.2928
32.1400 10.6967 0.2966
32.1600 10.7034 0.3009
32.1800 10.7100 0.2886
32.2000 10.7166 0.2992
32.2200 10.7233 0.2967
32.2400 10.7300 0.2890
32.2600 10.7367 0.3006
32.2800 10.7434 0.2952
32.3000 10.7500 0.2922
32.3200 10.7567 0.3000
32.3400 10.7634 0.2938
32.3600 10.7701 0.2937
32.3800 10.7767 0.2980
32.4000 10.7833 0.2958
32.4200 10.7899 0.2979
32.4400 10.7966 0.2960
32.4600 10.8033 0.2951
32.4800 10.8100 0.2951
32.5000 10.8167 0.2985
32.5200 10.8234 0.2876
32.5400 10.8300 0.2981
32.5600 10.8366 0.2947
32.5800 10.8432 0.2951
32.6000 10.8499 0.3005
32.6200 10.8566 0.2913
32.6400 10.8633 0.2931
32.6600 10.8700 0.3000
32.6800 10.8767 0.2921
32.7000 10.8834 0.2914
32.7200 10.8900 0.3012
32.7400 10.8966 0.2914
32.7600 10.9032 0.2961
32.7800 10.9099 0.3005
32.8000 10.9166 0.2902
32.8200 10.9233 0.2971
32.8400 10.9300 0.2970
32.8600 10.9367 0.2852
32.8800 10.9434 0.2960
32.9000 10.9500 0.2914
32.9200 10.9566 0.2924
32.9400 10.9633 0.2979
32.9600 10.9699 0.2927
32.9800 10.9766 0.2910
33.0000 10.9833 0.2976
33.0200 10.9900 0.2891
33.0400 10.9967 0.2929
33.0600 11.0034 0.3016
33.0800 11.0100 0.2831
33.1000 11.0166 0.2932
33.1200 11.0233 0.3002
33.1400 11.0299 0.2842
33.1600 11.0367 0.2986
33.1800 11.0434 0.2977
33.2000 11.0501 0.2865
33.2200 11.0567 0.2938
33.2400 11.0634 0.2921
33.2600 11.0700 0.2932
33.2800 11.0766 0.2969
33.3000 11.0832 0.2923
33.3200 11.0899 0.2874
33.3400 11.0966 0.2940
33.3600 11.1033 0.2916
33.3800 11.1100 0.2895
33.4000 11.1167 0.2970
33.4200 11.1234 0.2886
33.4400 11.1300 0.2856
33.4600 11.1366 0.2925
33.4800 11.1432 0.2931
33.5000 11.1499 0.2910
33.5200 11.1566 0.2850
33.5400 11.1633 0.2844
33.5600 11.1700 0.2949
33.5800 11.1767 0.2892
33.6000 11.1834 0.2854
33.6200 11.1900 0.2931
33.6400 11.1966 0.2922
33.6600 11.2033 0.2847
33.6800 11.2100 0.2933
33.7000 11.2167 0.2871
33.7200 11.2234 0.2826
33.7400 11.2301 0.2912
33.7600 11.2367 0.2864
33.7800 11.2434 0.2891
33.8000 11.2500 0.2926
33.8200 11.2566 0.2862
33.8400 11.2633 0.2854
33.8600 11.2699 0.2931
33.8800 11.2766 0.2867
33.9000 11.2833 0.2849
33.9200 11.2900 0.2896
33.9400 11.2967 0.2884
33.9600 11.3034 0.2895
33.9800 11.3100 0.2858
34.0000 11.3166 0.2869
34.0200 11.3233 0.2928
34.0400 11.3299 0.2789
34.0600 11.3366 0.2918
34.0800 11.3433 0.2930
34.1000 11.3500 0.2775
34.1200 11.3567 0.2926
34.1400 11.3634 0.2902
34.1600 11.3701 0.2748
34.1800 11.3766 0.2930
34.2000 11.3832 0.2897
34.2200 11.3899 0.2773
34.2400 11.3966 0.2940
34.2600 11.4033 0.2873
34.2800 11.4100 0.2777
34.3000 11.4166 0.2946
34.3200 11.4233 0.2828
34.3400 11.4300 0.2804
34.3600 11.4366 0.3002
34.3800 11.4432 0.2800
34.4000 11.4499 0.2783
34.4200 11.4566 0.2945
34.4400 11.4633 0.2787
34.4600 11.4700 0.2868
34.4800 11.4767 0.2938
34.5000 11.4834 0.2775
34.5200 11.4901 0.2846
34.5400 11.4967 0.2957
34.5600 11.5033 0.2789
34.5800 11.5099 0.2869
34.6000 11.5166 0.2928
34.6200 11.5233 0.2778
34.6400 11.5301 0.2900
34.6600 11.5367 0.2930
34.6800 11.5434 0.2784
34.7000 11.5500 0.2888
34.7200 11.5566 0.2869
34.7400 11.5632 0.2789
34.7600 11.5699 0.2870
34.7800 11.5766 0.2909
34.8000 11.5833 0.2764
34.8200 11.5900 0.2825
34.8400 11.5966 0.2910
34.8600 11.6033 0.2826
34.8800 11.6100 0.2859
34.9000 11.6166 0.2817
34.9200 11.6232 0.2825
34.9400 11.6299 0.2902
34.9600 11.6366 0.2829
34.9800 11.6433 0.2797
35.0000 11.6500 0.2908
35.0200 11.6567 0.2853
35.0400 11.6634 0.2803
35.0600 11.6701 0.2852
35.0800 11.6767 0.2851
35.1000 11.6833 0.2799
35.1200 11.6899 0.2862
35.1400 11.6966 0.2846
35.1600 11.7033 0.2805
35.1800 11.7100 0.2826
35.2000 11.7167 0.2875
35.2200 11.7234 0.2795
35.2400 11.7300 0.2817
35.2600 11.7366 0.2923
35.2800 11.7433 0.2782
35.3000 11.7499 0.2825
35.3200 11.7566 0.2885
35.3400 11.7634 0.2773
35.3600 11.7700 0.2789
35.3800 11.7767 0.2878
35.4000 11.7834 0.2792
35.4200 11.7901 0.2771
35.4400 11.7967 0.2897
35.4600 11.8033 0.2760
35.4800 11.8099 0.2825
35.5000 11.8166 0.2906
35.5200 11.8233 0.2754
35.5400 11.8300 0.2821
35.5600 11.8367 0.2896
35.5800 11.8434 0.2736
35.6000 11.8500 0.2817
35.6200 11.8567 0.2881
35.6400 11.8632 0.2759
35.6600 11.8699 0.2866
35.6800 11.8766 0.2882
35.7000 11.8833 0.2729
35.7200 11.8900 0.2831
35.7400 11.8967 0.2866
35.7600 11.9033 0.2790
35.7800 11.9100 0.2798
35.8000 11.9166 0.2861
35.8200 11.9233 0.2787
35.8400 11.9299 0.2819
35.8600 11.9366 0.2884
35.8800 11.9433 0.2757
35.9000 11.9500 0.2807
35.9200 11.9567 0.2836
35.9400 11.9634 0.2804
35.9600 11.9701 0.2822
35.9800 11.9767 0.2835
36.0000 11.9833 0.2789
36.0200 11.9899 0.2796
36.0400 11.9966 0.2847
36.0600 12.0033 0.2851
36.0800 12.0100 0.2751
36.1000 12.0167 0.2796
36.1200 12.0234 0.2811
36.1400 12.0301 0.2733
36.1600 12.0367 0.2814
36.1800 12.0433 0.2836
36.2000 12.0499 0.2775
36.2200 12.0566 0.2800
36.2400 12.0633 0.2810
36.2600 12.0700 0.2741
36.2800 12.0767 0.2864
36.3000 12.0834 0.2810
36.3200 12.0900 0.2720
36.3400 12.0966 0.2840
36.3600 12.1032 0.2796
36.3800 12.1099 0.2742
36.4000 12.1166 0.2866
36.4200 12.1233 0.2741
36.4400 12.1300 0.2722
36.4600 12.1366 0.2855
36.4800 12.1433 0.2776
36.5000 12.1500 0.2779
36.5200 12.1567 0.2811
36.5400 12.1633 0.2733
36.5600 12.1699 0.2757
36.5800 12.1766 0.2853
36.6000 12.1833 0.2735
36.6200 12.1900 0.2751
36.6400 12.1967 0.2789
36.6600 12.2034 0.2803
36.6800 12.2101 0.2747
36.7000 12.2167 0.2797
36.7200 12.2233 0.2770
36.7400 12.2299 0.2780
36.7600 12.2366 0.2776
36.7800 12.2434 0.2764
36.8000 12.2501 0.2730
36.8200 12.2567 0.2785
36.8400 12.2634 0.2766
36.8600 12.2700 0.2704
36.8800 12.2766 0.2783
36.9000 12.2833 0.2748
36.9200 12.2899 0.2711
36.9400 12.2966 0.2804
36.9600 12.3033 0.2772
36.9800 12.3100 0.2770
37.0000 12.3167 0.2824
37.0200 12.3234 0.2687
37.0400 12.3300 0.2748
37.0600 12.3367 0.2828
37.0800 12.3433 0.2757
37.1000 12.3499 0.2761
37.1200 12.3566 0.2782
37.1400 12.3633 0.2721
37.1600 12.3700 0.2790
37.1800 12.3767 0.2784
37.2000 12.3834 0.2729
37.2200 12.3901 0.2769
37.2400 12.3967 0.2691
37.2600 12.4033 0.2759
37.2800 12.4099 0.2810
37.3000 12.4166 0.2681
37.3200 12.4233 0.2757
37.3400 12.4300 0.2769
37.3600 12.4367 0.2701
37.3800 12.4434 0.2790
37.4000 12.4501 0.2745
37.4200 12.4567 0.2646
37.4400 12.4634 0.2821
37.4600 12.4700 0.2760
37.4800 12.4766 0.2620
37.5000 12.4833 0.2838
37.5200 12.4900 0.2742
37.5400 12.4967 0.2678
37.5600 12.5034 0.2870
37.5800 12.5101 0.2710
37.6000 12.5167 0.2623
37.6200 12.5233 0.2846
37.6400 12.5299 0.2717
37.6600 12.5366 0.2688
37.6800 12.5433 0.2809
37.7000 12.5500 0.2691
37.7200 12.5567 0.2692
37.7400 12.5634 0.2772
37.7600 12.5700 0.2748
37.7800 12.5767 0.2681
37.8000 12.5832 0.2705
37.8200 12.5899 0.2733
37.8400 12.5965 0.2755
37.8600 12.6032 0.2698
37.8800 12.6099 0.2710
37.9000 12.6166 0.2689
37.9200 12.6233 0.2708
37.9400 12.6300 0.2722
37.9600 12.6367 0.2709
37.9800 12.6433 0.2725
38.0000 12.6499 0.2693
38.0200 12.6566 0.2717
38.0400 12.6633 0.2721
38.0600 12.6700 0.2735
38.0800 12.6767 0.2664
38.1000 12.6834 0.2695
38.1200 12.6901 0.2704
38.1400 12.6967 0.2699
38.1600 12.7033 0.2712
38.1800 12.7099 0.2751
38.2000 12.7166 0.2625
38.2200 12.7233 0.2730
38.2400 12.7301 0.2741
38.2600 12.7367 0.2618
38.2800 12.7434 0.2680
38.3000 12.7501 0.2692
38.3200 12.7567 0.2638
38.3400 12.7633 0.2707
38.3600 12.7699 0.2757
38.3800 12.7766 0.2655
38.4000 12.7833 0.2635
38.4200 12.7900 0.2680
38.4400 12.7967 0.2707
38.4600 12.8034 0.2667
38.4800 12.8100 0.2716
38.5000 12.8167 0.2650
38.5200 12.8233 0.2646
38.5400 12.8299 0.2727
38.5600 12.8366 0.2653
38.5800 12.8433 0.2692
38.6000 12.8500 0.2655
38.6200 12.8566 0.2649
38.6400 12.8633 0.2672
38.6600 12.8700 0.2709
38.6800 12.8766 0.2640
38.7000 12.8833 0.2703
38.7200 12.8899 0.2727
38.7400 12.8966 0.2642
38.7600 12.9033 0.2653
38.7800 12.9100 0.2691
38.8000 12.9167 0.2642
38.8200 12.9234 0.2655
38.8400 12.9301 0.2669
38.8600 12.9367 0.2601
38.8800 12.9433 0.2693
38.9000 12.9499 0.2752
38.9200 12.9566 0.2544
38.9400 12.9633 0.2690
38.9600 12.9700 0.2668
38.9800 12.9767 0.2541
39.0000 12.9834 0.2734
39.0200 12.9901 0.2661
39.0400 12.9967 0.2535
39.0600 13.0033 0.2706
39.0800 13.0099 0.2678
39.1000 13.0166 0.2544
39.1200 13.0233 0.2723
39.1400 13.0300 0.2637
39.1600 13.0366 0.2547
39.1800 13.0433 0.2703
39.2000 13.0500 0.2648
39.2200 13.0567 0.2572
39.2400 13.0633 0.2650
39.2600 13.0699 0.2610
39.2800 13.0765 0.2612
39.3000 13.0832 0.2699
39.3200 13.0900 0.2594
39.3400 13.0967 0.2609
39.3600 13.1034 0.2623
39.3800 13.1100 0.2600
39.4000 13.1167 0.2638
39.4200 13.1233 0.2605
39.4400 13.1299 0.2621
39.4600 13.1366 0.2640
39.4800 13.1433 0.2531
39.5000 13.1500 0.2686
39.5200 13.1567 0.2664
39.5400 13.1634 0.2580
39.5600 13.1700 0.2646
39.5800 13.1767 0.2582
39.6000 13.1833 0.2545
39.6200 13.1899 0.2725
39.6400 13.1966 0.2589
39.6600 13.2033 0.2536
39.6800 13.2100 0.2715
39.7000 13.2167 0.2589
39.7200 13.2234 0.2557
39.7400 13.2301 0.2730
39.7600 13.2367 0.2568
39.7800 13.2433 0.2551
39.8000 13.2499 0.2694
39.8200 13.2566 0.2540
39.8400 13.2633 0.2612
39.8600 13.2700 0.2670
39.8800 13.2767 0.2527
39.9000 13.2834 0.2608
39.9200 13.2901 0.2663
39.9400 13.2967 0.2534
39.9600 13.3033 0.2616
39.9800 13.3099 0.2627
40.0000 13.3165 0.2543
40.0200 13.3232 0.2656
40.0400 13.3299 0.2575
40.0600 13.3366 0.2547
40.0800 13.3433 0.2634
40.1000 13.3500 0.2573
40.1200 13.3567 0.2561
40.1400 13.3633 0.2661
40.1600 13.3699 0.2552
40.1800 13.3766 0.2563
40.2000 13.3833 0.2643
40.2200 13.3900 0.2599
40.2400 13.3967 0.2557
40.2600 13.4034 0.2595
40.2800 13.4101 0.2571
40.3000 13.4168 0.2588
40.3200 13.4234 0.2637
40.3400 13.4299 0.2556
40.3600 13.4366 0.2590
40.3800 13.4433 0.2623
40.4000 13.4500 0.2602
40.4200 13.4567 0.2554
40.4400 13.4634 0.2604
40.4600 13.4701 0.2636
40.4800 13.4767 0.2557
40.5000 13.4833 0.2541
40.5200 13.4899 0.2604
40.5400 13.4965 0.2590
40.5600 13.5032 0.2593
40.5800 13.5099 0.2582
40.6000 13.5166 0.2542
40.6200 13.5233 0.2574
40.6400 13.5300 0.2608
40.6600 13.5367 0.2540
40.6800 13.5433 0.2589
40.7000 13.5499 0.2608
40.7200 13.5565 0.2560
40.7400 13.5632 0.2541
40.7600 13.5699 0.2564
40.7800 13.5766 0.2544
40.8000 13.5833 0.2552
40.8200 13.5900 0.2603
40.8400 13.5967 0.2526
40.8600 13.6033 0.2533
40.8800 13.6099 0.2578
40.9000 13.6166 0.2539
40.9200 13.6233 0.2575
40.9400 13.6300 0.2608
40.9600 13.6367 0.2457
40.9800 13.6434 0.2589
41.0000 13.6501 0.2603
41.0200 13.6567 0.2505
41.0400 13.6634 0.2557
41.0600 13.6700 0.2557
41.0800 13.6766 0.2533
41.1000 13.6833 0.2596
41.1200 13.6900 0.2554
41.1400 13.6967 0.2508
41.1600 13.7034 0.2631
41.1800 13.7101 0.2541
41.2000 13.7167 0.2515
41.2200 13.7234 0.2594
41.2400 13.7299 0.2528
41.2600 13.7365 0.2572
41.2800 13.7432 0.2569
41.3000 13.7499 0.2499
41.3200 13.7567 0.2589
41.3400 13.7633 0.2523
41.3600 13.7700 0.2508
41.3800 13.7767 0.2612
41.4000 13.7833 0.2547
41.4200 13.7899 0.2527
41.4400 13.7965 0.2592
41.4600 13.8033 0.2556
41.4800 13.8100 0.2493
41.5000 13.8167 0.2632
41.5200 13.8233 0.2567
41.5400 13.8300 0.2497
41.5600 13.8367 0.2569
41.5800 13.8434 0.2550
41.6000 13.8500 0.2478
41.6200 13.8566 0.2548
41.6400 13.8633 0.2563
41.6600 13.8700 0.2524
41.6800 13.8766 0.2568
41.7000 13.8833 0.2529
41.7200 13.8900 0.2572
41.7400 13.8967 0.2583
41.7600 13.9034 0.2478
41.7800 13.9100 0.2564
41.8000 13.9166 0.2573
41.8200 13.9233 0.2516
41.8400 13.9300 0.2558
41.8600 13.9367 0.2541
41.8800 13.9434 0.2546
41.9000 13.9501 0.2538
41.9200 13.9567 0.2519
41.9400 13.9633 0.2549
41.9600 13.9700 0.2572
41.9800 13.9766 0.2482
42.0000 13.9833 0.2534
42.0200 13.9900 0.2544
42.0400 13.9967 0.2550
42.0600 14.0033 0.2487
42.0800 14.0100 0.2517
42.1000 14.0167 0.2574
42.1200 14.0234 0.2482
42.1400 14.0300 0.2523
42.1600 14.0365 0.2543
42.1800 14.0432 0.2551
42.2000 14.0499 0.2461
42.2200 14.0566 0.2565
42.2400 14.0633 0.2483
42.2600 14.0700 0.2474
42.2800 14.0767 0.2569
42.3000 14.0834 0.2430
42.3200 14.0900 0.2503
42.3400 14.0966 0.2557
42.3600 14.1033 0.2458
42.3800 14.1100 0.2508
42.4000 14.1167 0.2529
42.4200 14.1234 0.2472
42.4400 14.1301 0.2487
42.4600 14.1367 0.2486
42.4800 14.1434 0.2475
42.5000 14.1500 0.2494
42.5200 14.1566 0.2482
42.5400 14.1633 0.2461
42.5600 14.1700 0.2482
42.5800 14.1767 0.2454
42.6000 14.1834 0.2503
42.6200 14.1900 0.2480
42.6400 14.1967 0.2408
42.6600 14.2034 0.2495
42.6800 14.2100 0.2432
42.7000 14.2166 0.2414
42.7200 14.2232 0.2512
42.7400 14.2299 0.2464
42.7600 14.2367 0.2426
42.7800 14.2434 0.2492
42.8000 14.2500 0.2433
42.8200 14.2567 0.2440
42.8400 14.2634 0.2482
42.8600 14.2699 0.2392
42.8800 14.2765 0.2502
42.9000 14.2832 0.2480
42.9200 14.2899 0.2375
42.9400 14.2966 0.2462
42.9600 14.3033 0.2432
42.9800 14.3100 0.2386
43.0000 14.3166 0.2466
43.0200 14.3233 0.2439
43.0400 14.3300 0.2403
43.0600 14.3366 0.2434
43.0800 14.3433 0.2393
43.1000 14.3500 0.2370
43.1200 14.3567 0.2468
43.1400 14.3634 0.2436
43.1600 14.3700 0.2384
43.1800 14.3767 0.2472
43.2000 14.3834 0.2402
43.2200 14.3900 0.2349
43.2400 14.3966 0.2480
43.2600 14.4033 0.2409
43.2800 14.4100 0.2346
43.3000 14.4167 0.2449
43.3200 14.4234 0.2394
43.3400 14.4301 0.2360
43.3600 14.4368 0.2463
43.3800 14.4434 0.2365
43.4000 14.4500 0.2363
43.4200 14.4566 0.2478
43.4400 14.4632 0.2387
43.4600 14.4699 0.2397
43.4800 14.4766 0.2406
43.5000 14.4833 0.2372
43.5200 14.4900 0.2393
43.5400 14.4967 0.2381
43.5600 14.5033 0.2376
43.5800 14.5099 0.2438
43.6000 14.5166 0.2404
43.6200 14.5232 0.2360
43.6400 14.5299 0.2372
43.6600 14.5366 0.2390
43.6800 14.5433 0.2366
43.7000 14.5500 0.2399
43.7200 14.5567 0.2362
43.7400 14.5633 0.2375
43.7600 14.5700 0.2350
43.7800 14.5766 0.2386
43.8000 14.5833 0.2403
43.8200 14.5900 0.2326
43.8400 14.5967 0.2403
43.8600 14.6034 0.2364
43.8800 14.6101 0.2352
43.9000 14.6168 0.2447
43.9200 14.6234 0.2366
43.9400 14.6300 0.2361
43.9600 14.6366 0.2454
43.9800 14.6433 0.2357
44.0000 14.6500 0.2382
44.0200 14.6567 0.2424
44.0400 14.6634 0.2328
44.0600 14.6700 0.2364
44.0800 14.6767 0.2460
44.1000 14.6834 0.2323
44.1200 14.6900 0.2371
44.1400 14.6966 0.2466
44.1600 14.7033 0.2342
44.1800 14.7099 0.2409
44.2000 14.7166 0.2461
44.2200 14.7233 0.2343
44.2400 14.7300 0.2417
44.2600 14.7367 0.2446
44.2800 14.7434 0.2308
44.3000 14.7500 0.2374
44.3200 14.7566 0.2431
44.3400 14.7632 0.2346
44.3600 14.7699 0.2383
44.3800 14.7766 0.2414
44.4000 14.7833 0.2356
44.4200 14.7900 0.2418
44.4400 14.7966 0.2398
44.4600 14.8033 0.2363
44.4800 14.8099 0.2410
44.5000 14.8166 0.2387
44.5200 14.8232 0.2402
44.5400 14.8300 0.2349
44.5600 14.8367 0.2404
44.5800 14.8433 0.2368
44.6000 14.8500 0.2348
44.6200 14.8567 0.2405
44.6400 14.8634 0.2388
44.6600 14.8701 0.2341
44.6800 14.8767 0.2396
44.7000 14.8833 0.2422
44.7200 14.8900 0.2339
44.7400 14.8967 0.2424
44.7600 14.9034 0.2421
44.7800 14.9101 0.2278
44.8000 14.9168 0.2463
44.8200 14.9234 0.2350
44.8400 14.9300 0.2261
44.8600 14.9366 0.2502
44.8800 14.9432 0.2367
44.9000 14.9499 0.2310
44.9200 14.9566 0.2447
44.9400 14.9633 0.2341
44.9600 14.9700 0.2321
44.9800 14.9767 0.2468
45.0000 14.9833 0.2299
45.0200 14.9900 0.2335
45.0400 14.9966 0.2492
45.0600 15.0032 0.2312
45.0800 15.0100 0.2370
45.1000 15.0167 0.2483
45.1200 15.0233 0.2296
45.1400 15.0300 0.2417
45.1600 15.0367 0.2429
45.1800 15.0434 0.2304
45.2000 15.0500 0.2386
45.2200 15.0566 0.2448
45.2400 15.0633 0.2319
45.2600 15.0700 0.2358
45.2800 15.0767 0.2428
45.3000 15.0833 0.2320
45.3200 15.0900 0.2410
45.3400 15.0967 0.2392
45.3600 15.1034 0.2310
45.3800 15.1100 0.2396
45.4000 15.1166 0.2431
45.4200 15.1232 0.2347
45.4400 15.1299 0.2386
45.4600 15.1367 0.2410
45.4800 15.1434 0.2344
45.5000 15.1501 0.2336
45.5200 15.1568 0.2422
45.5400 15.1634 0.2337
45.5600 15.1700 0.2329
45.5800 15.1766 0.2398
45.6000 15.1832 0.2396
45.6200 15.1899 0.2367
45.6400 15.1967 0.2376
45.6600 15.2034 0.2380
45.6800 15.2100 0.2335
45.7000 15.2167 0.2395
45.7200 15.2234 0.2345
45.7400 15.2300 0.2378
45.7600 15.2366 0.2365
45.7800 15.2433 0.2359
45.8000 15.2499 0.2333
45.8200 15.2566 0.2406
45.8400 15.2633 0.2353
45.8600 15.2700 0.2296
45.8800 15.2767 0.2385
45.9000 15.2834 0.2365
45.9200 15.2900 0.2313
45.9400 15.2966 0.2399
45.9600 15.3032 0.2347
45.9800 15.3099 0.2346
46.0000 15.3167 0.2360
46.0200 15.3234 0.2291
46.0400 15.3300 0.2377
46.0600 15.3367 0.2367
46.0800 15.3434 0.2334
46.1000 15.3500 0.2301
46.1200 15.3566 0.2311
46.1400 15.3633 0.2349
46.1600 15.3700 0.2373
46.1800 15.3767 0.2287
46.2000 15.3834 0.2317
46.2200 15.3900 0.2364
46.2400 15.3967 0.2299
46.2600 15.4034 0.2302
46.2800 15.4100 0.2339
46.3000 15.4167 0.2339
46.3200 15.4233 0.2298
46.3400 15.4299 0.2346
46.3600 15.4366 0.2346
46.3800 15.4433 0.2330
46.4000 15.4500 0.2312
46.4200 15.4567 0.2340
46.4400 15.4634 0.2308
46.4600 15.4700 0.2342
46.4800 15.4766 0.2321
46.5000 15.4832 0.2312
46.5200 15.4899 0.2325
46.5400 15.4966 0.2313
46.5600 15.5033 0.2306
46.5800 15.5100 0.2319
46.6000 15.5166 0.2289
46.6200 15.5233 0.2312
46.6400 15.5300 0.2322
46.6600 15.5366 0.2254
46.6800 15.5432 0.2367
46.7000 15.5499 0.2379
46.7200 15.5566 0.2204
46.7400 15.5633 0.2280
46.7600 15.5700 0.2402
46.7800 15.5767 0.2235
46.8000 15.5834 0.2344
46.8200 15.5901 0.2259
46.8400 15.5967 0.2244
46.8600 15.6033 0.2366
46.8800 15.6099 0.2276
46.9000 15.6166 0.2260
46.9200 15.6234 0.2376
46.9400 15.6301 0.2229
46.9600 15.6367 0.2238
46.9800 15.6434 0.2366
47.0000 15.6500 0.2219
47.0200 15.6566 0.2231
47.0400 15.6632 0.2367
47.0600 15.6699 0.2205
47.0800 15.6766 0.2228
47.1000 15.6834 0.2367
47.1200 15.6900 0.2193
47.1400 15.6967 0.2261
47.1600 15.7034 0.2309
47.1800 15.7100 0.2240
47.2000 15.7166 0.2247
47.2200 15.7232 0.2313
47.2400 15.7299 0.2236
47.2600 15.7366 0.2257
47.2800 15.7433 0.2234
47.3000 15.7500 0.2237
47.3200 15.7567 0.2259
47.3400 15.7633 0.2238
47.3600 15.7700 0.2220
47.3800 15.7767 0.2246
47.4000 15.7833 0.2241
47.4200 15.7899 0.2220
47.4400 15.7966 0.2265
47.4600 15.8033 0.2201
47.4800 15.8100 0.2228
47.5000 15.8167 0.2286
47.5200 15.8234 0.2210
47.5400 15.8300 0.2161
47.5600 15.8366 0.2254
47.5800 15.8433 0.2236
47.6000 15.8499 0.2176
47.6200 15.8567 0.2249
47.6400 15.8634 0.2233
47.6600 15.8701 0.2193
47.6800 15.8767 0.2251
47.7000 15.8834 0.2259
47.7200 15.8901 0.2192
47.7400 15.8967 0.2202
47.7600 15.9033 0.2245
47.7800 15.9099 0.2194
47.8000 15.9166 0.2219
47.8200 15.9233 0.2212
47.8400 15.9300 0.2173
47.8600 15.9367 0.2194
47.8800 15.9434 0.2165
47.9000 15.9500 0.2195
47.9200 15.9566 0.2210
47.9400 15.9632 0.2221
47.9600 15.9699 0.2194
47.9800 15.9766 0.2221
48.0000 15.9833 0.2201
48.0200 15.9900 0.2178
48.0400 15.9967 0.2231
48.0600 16.0034 0.2205
48.0800 16.0100 0.2193
48.1000 16.0166 0.2160
48.1200 16.0233 0.2255
48.1400 16.0299 0.2233
48.1600 16.0367 0.2181
48.1800 16.0434 0.2211
48.2000 16.0501 0.2200
48.2200 16.0567 0.2188
48.2400 16.0634 0.2224
48.2600 16.0701 0.2214
48.2800 16.0767 0.2174
48.3000 16.0832 0.2200
48.3200 16.0899 0.2238
48.3400 16.0966 0.2165
48.3600 16.1033 0.2192
48.3800 16.1100 0.2226
48.4000 16.1167 0.2132
48.4200 16.1234 0.2232
48.4400 16.1301 0.2168
48.4600 16.1367 0.2157
48.4800 16.1433 0.2217
48.5000 16.1499 0.2192
48.5200 16.1566 0.2149
48.5400 16.1633 0.2220
48.5600 16.1700 0.2170
48.5800 16.1767 0.2103
48.6000 16.1834 0.2213
48.6200 16.1901 0.2241
48.6400 16.1966 0.2133
48.6600 16.2032 0.2222
48.6800 16.2099 0.2222
48.7000 16.2166 0.2134
48.7200 16.2233 0.2216
48.7400 16.2300 0.2200
48.7600 16.2367 0.2149
48.7800 16.2433 0.2204
48.8000 16.2500 0.2177
48.8200 16.2567 0.2165
48.8400 16.2633 0.2239
48.8600 16.2699 0.2180
48.8800 16.2766 0.2100
48.9000 16.2833 0.2277
48.9200 16.2900 0.2192
48.9400 16.2967 0.2065
48.9600 16.3034 0.2297
48.9800 16.3101 0.2188
49.0000 16.3167 0.2072
49.0200 16.3233 0.2296
49.0400 16.3299 0.2204
49.0600 16.3366 0.2058
49.0800 16.3433 0.2315
49.1000 16.3500 0.2161
49.1200 16.3567 0.2059
49.1400 16.3634 0.2343
49.1600 16.3700 0.2134
49.1800 16.3766 0.2092
49.2000 16.3833 0.2336
49.2200 16.3899 0.2172
49.2400 16.3966 0.2104
49.2600 16.4033 0.2247
49.2800 16.4100 0.2146
49.3000 16.4166 0.2121
49.3200 16.4233 0.2260
49.3400 16.4300 0.2148
49.3600 16.4366 0.2148
49.3800 16.4432 0.2289
49.4000 16.4499 0.2128
49.4200 16.4566 0.2138
49.4400 16.4633 0.2236
49.4600 16.4700 0.2147
49.4800 16.4767 0.2148
49.5000 16.4834 0.2248
49.5200 16.4901 0.2188
49.5400 16.4967 0.2098
49.5600 16.5033 0.2300
49.5800 16.5099 0.2195
49.6000 16.5166 0.2098
49.6200 16.5233 0.2268
49.6400 16.5300 0.2135
49.6600 16.5367 0.2111
49.6800 16.5434 0.2276
49.7000 16.5500 0.2159
49.7200 16.5567 0.2122
49.7400 16.5633 0.2231
49.7600 16.5699 0.2146
49.7800 16.5766 0.2175
49.8000 16.5833 0.2243
49.8200 16.5900 0.2095
49.8400 16.5967 0.2187
49.8600 16.6034 0.2256
49.8800 16.6101 0.2083
49.9000 16.6167 0.2207
49.9200 16.6233 0.2189
49.9400 16.6300 0.2102
49.9600 16.6366 0.2234
49.9800 16.6433 0.2211
50.0000 16.6500 0.2069
50.0200 16.6567 0.2251
50.0400 16.6634 0.2176
50.0600 16.6701 0.2091
50.0800 16.6767 0.2242
50.1000 16.6833 0.2194
50.1200 16.6899 0.2116
50.1400 16.6966 0.2218
50.1600 16.7033 0.2205
50.1800 16.7100 0.2133
50.2000 16.7167 0.2222
50.2200 16.7234 0.2138
50.2400 16.7300 0.2148
50.2600 16.7367 0.2203
50.2800 16.7433 0.2163
50.3000 16.7499 0.2148
50.3200 16.7566 0.2163
50.3400 16.7633 0.2172
50.3600 16.7700 0.2168
50.3800 16.7767 0.2183
50.4000 16.7834 0.2188
50.4200 16.7901 0.2129
50.4400 16.7967 0.2167
50.4600 16.8033 0.2157
50.4800 16.8099 0.2122
50.5000 16.8166 0.2238
50.5200 16.8233 0.2127
50.5400 16.8300 0.2123
50.5600 16.8367 0.2183
50.5800 16.8434 0.2176
50.6000 16.8501 0.2067
50.6200 16.8567 0.2167
50.6400 16.8633 0.2172
50.6600 16.8699 0.2116
50.6800 16.8766 0.2207
50.7000 16.8833 0.2139
50.7200 16.8900 0.2128
50.7400 16.8967 0.2188
50.7600 16.9034 0.2141
50.7800 16.9100 0.2113
50.8000 16.9167 0.2230
50.8200 16.9233 0.2156
50.8400 16.9299 0.2125
50.8600 16.9366 0.2230
50.8800 16.9433 0.2087
50.9000 16.9500 0.2074
50.9200 16.9566 0.2250
50.9400 16.9633 0.2057
50.9600 16.9700 0.2124
50.9800 16.9766 0.2179
51.0000 16.9833 0.2097
51.0200 16.9899 0.2164
51.0400 16.9966 0.2182
51.0600 17.0033 0.2065
51.0800 17.0100 0.2153
51.1000 17.0167 0.2184
51.1200 17.0234 0.2012
51.1400 17.0301 0.2158
51.1600 17.0367 0.2186
51.1800 17.0433 0.2041
51.2000 17.0499 0.2122
51.2200 17.0566 0.2169
51.2400 17.0633 0.2055
51.2600 17.0700 0.2138
51.2800 17.0767 0.2119
51.3000 17.0833 0.2095
51.3200 17.0900 0.2115
51.3400 17.0967 0.2115
51.3600 17.1033 0.2136
51.3800 17.1099 0.2127
51.4000 17.1166 0.2098
51.4200 17.1233 0.2114
51.4400 17.1300 0.2124
51.4600 17.1367 0.2096
51.4800 17.1433 0.2122
51.5000 17.1500 0.2090
51.5200 17.1567 0.2113
51.5400 17.1633 0.2071
51.5600 17.1699 0.2075
51.5800 17.1766 0.2115
51.6000 17.1833 0.2112
51.6200 17.1900 0.2077
51.6400 17.1967 0.2109
51.6600 17.2034 0.2092
51.6800 17.2100 0.2078
51.7000 17.2167 0.2120
51.7200 17.2233 0.2072
51.7400 17.2299 0.2043
51.7600 17.2366 0.2163
51.7800 17.2433 0.2050
51.8000 17.2500 0.2065
51.8200 17.2567 0.2184
51.8400 17.2634 0.2043
51.8600 17.2701 0.2068
51.8800 17.2767 0.2115
51.9000 17.2833 0.2036
51.9200 17.2899 0.2101
51.9400 17.2966 0.2121
51.9600 17.3033 0.2023
51.9800 17.3100 0.2073
52.0000 17.3167 0.2056
52.0200 17.3234 0.2086
52.0400 17.3301 0.2068
52.0600 17.3367 0.2076
52.0800 17.3433 0.2063
52.1000 17.3499 0.2074
52.1200 17.3566 0.2057
52.1400 17.3632 0.2082
52.1600 17.3699 0.2063
52.1800 17.3767 0.2056
52.2000 17.3834 0.2103
52.2200 17.3901 0.2048
52.2400 17.3967 0.2070
52.2600 17.4033 0.2080
52.2800 17.4099 0.2067
52.3000 17.4166 0.2080
52.3200 17.4233 0.2096
52.3400 17.4299 0.2028
52.3600 17.4366 0.2096
52.3800 17.4433 0.2054
52.4000 17.4500 0.2024
52.4200 17.4567 0.2104
52.4400 17.4633 0.2042
52.4600 17.4699 0.2046
52.4800 17.4766 0.2105
52.5000 17.4833 0.1995
52.5200 17.4900 0.2039
52.5400 17.4967 0.2108
52.5600 17.5034 0.2026
52.5800 17.5101 0.2055
52.6000 17.5167 0.2036
52.6200 17.5233 0.2024
52.6400 17.5299 0.2063
52.6600 17.5366 0.2069
52.6800 17.5433 0.2022
52.7000 17.5500 0.2033
52.7200 17.5567 0.2047
52.7400 17.5634 0.2025
52.7600 17.5701 0.2015
52.7800 17.5767 0.2075
52.8000 17.5833 0.2046
52.8200 17.5899 0.2066
52.8400 17.5966 0.2081
52.8600 17.6033 0.2020
52.8800 17.6100 0.2012
52.9000 17.6167 0.2045
52.9200 17.6233 0.2085
52.9400 17.6300 0.2000
52.9600 17.6367 0.2036
52.9800 17.6433 0.2043
53.0000 17.6499 0.2012
53.0200 17.6566 0.2085
53.0400 17.6633 0.2020
53.0600 17.6700 0.1947
53.0800 17.6767 0.2105
53.1000 17.6833 0.1989
53.1200 17.6900 0.1963
53.1400 17.6966 0.2123
53.1600 17.7033 0.2025
53.1800 17.7099 0.1952
53.2000 17.7166 0.2100
53.2200 17.7233 0.1982
53.2400 17.7300 0.1964
53.2600 17.7367 0.2098
53.2800 17.7434 0.1982
53.3000 17.7501 0.1970
53.3200 17.7567 0.2099
53.3400 17.7633 0.1971
53.3600 17.7699 0.1935
53.3800 17.7766 0.2153
53.4000 17.7833 0.1948
53.4200 17.7901 0.1968
53.4400 17.7968 0.2092
53.4600 17.8034 0.1919
53.4800 17.8101 0.2032
53.5000 17.8167 0.2056
53.5200 17.8233 0.1937
53.5400 17.8299 0.2037
53.5600 17.8366 0.2029
53.5800 17.8433 0.1954
53.6000 17.8500 0.2037
53.6200 17.8566 0.2019
53.6400 17.8633 0.1964
53.6600 17.8700 0.1994
53.6800 17.8767 0.2019
53.7000 17.8833 0.1975
53.7200 17.8899 0.2029
53.7400 17.8965 0.2003
53.7600 17.9032 0.1997
53.7800 17.9100 0.2017
53.8000 17.9167 0.2022
53.8200 17.9233 0.1919
53.8400 17.9300 0.1969
53.8600 17.9367 0.2022
53.8800 17.9433 0.1925
53.9000 17.9499 0.1961
53.9200 17.9566 0.2078
53.9400 17.9633 0.1926
53.9600 17.9700 0.1970
53.9800 17.9767 0.2058
54.0000 17.9834 0.1924
54.0200 17.9901 0.2027
54.0400 17.9967 0.2015
54.0600 18.0033 0.1886
54.0800 18.0099 0.1995
54.1000 18.0166 0.2018
54.1200 18.0233 0.1918
54.1400 18.0300 0.2042
54.1600 18.0367 0.1943
54.1800 18.0434 0.1918
54.2000 18.0501 0.2074
54.2200 18.0568 0.1933
54.2400 18.0634 0.1909
54.2600 18.0700 0.2048
54.2800 18.0766 0.1921
54.3000 18.0833 0.1987
54.3200 18.0900 0.2042
54.3400 18.0967 0.1866
54.3600 18.1034 0.2005
54.3800 18.1101 0.1973
54.4000 18.1167 0.1877
54.4200 18.1233 0.2017
54.4400 18.1299 0.1967
54.4600 18.1365 0.1891
54.4800 18.1432 0.2018
54.5000 18.1500 0.1900
54.5200 18.1566 0.1942
54.5400 18.1633 0.2047
54.5600 18.1700 0.1906
54.5800 18.1767 0.1920
54.6000 18.1833 0.2000
54.6200 18.1899 0.1889
54.6400 18.1966 0.1999
54.6600 18.2032 0.1985
54.6800 18.2100 0.1834
54.7000 18.2167 0.1946
54.7200 18.2234 0.1921
54.7400 18.2301 0.1897
54.7600 18.2368 0.1968
54.7800 18.2434 0.1846
54.8000 18.2500 0.1896
54.8200 18.2566 0.2005
54.8400 18.2633 0.1884
54.8600 18.2700 0.1921
54.8800 18.2767 0.1955
54.9000 18.2834 0.1828
54.9200 18.2901 0.1984
54.9400 18.2967 0.1926
54.9600 18.3034 0.1832
54.9800 18.3099 0.1989
55.0000 18.3166 0.1874
55.0200 18.3233 0.1862
55.0400 18.3300 0.1986
55.0600 18.3367 0.1876
55.0800 18.3433 0.1855
55.1000 18.3500 0.1959
55.1200 18.3567 0.1838
55.1400 18.3633 0.1882
55.1600 18.3699 0.2007
55.1800 18.3765 0.1770
55.2000 18.3832 0.1905
55.2200 18.3899 0.1960
55.2400 18.3966 0.1795
55.2600 18.4033 0.1996
55.2800 18.4100 0.1934
55.3000 18.4167 0.1751
55.3200 18.4233 0.1943
55.3400 18.4299 0.1889
55.3600 18.4366 0.1838
55.3800 18.4433 0.1949
55.4000 18.4500 0.1855
55.4200 18.4567 0.1817
55.4400 18.4634 0.1944
55.4600 18.4701 0.1891
55.4800 18.4767 0.1810
55.5000 18.4834 0.1936
55.5200 18.4900 0.1855
55.5400 18.4966 0.1873
55.5600 18.5033 0.1873
55.5800 18.5100 0.1897
55.6000 18.5167 0.1866
55.6200 18.5233 0.1858
55.6400 18.5300 0.1893
55.6600 18.5367 0.1856
55.6800 18.5434 0.1857
55.7000 18.5500 0.1893
55.7200 18.5566 0.1860
55.7400 18.5632 0.1869
55.7600 18.5700 0.1894
55.7800 18.5767 0.1791
55.8000 18.5833 0.1887
55.8200 18.5900 0.1903
55.8400 18.5967 0.1819
55.8600 18.6033 0.1881
55.8800 18.6100 0.1915
55.9000 18.6166 0.1797
55.9200 18.6232 0.1902
55.9400 18.6299 0.1905
55.9600 18.6366 0.1795
55.9800 18.6433 0.1858
56.0000 18.6500 0.1880
56.0200 18.6567 0.1787
56.0400 18.6634 0.1861
56.0600 18.6700 0.1897
56.0800 18.6766 0.1782
56.1000 18.6833 0.1849
56.1200 18.6900 0.1893
56.1400 18.6967 0.1787
56.1600 18.7034 0.1849
56.1800 18.7101 0.1891
56.2000 18.7168 0.1733
56.2200 18.7234 0.1878
56.2400 18.7300 0.1895
56.2600 18.7366 0.1763
56.2800 18.7433 0.1897
56.3000 18.7500 0.1830
56.3200 18.7567 0.1766
56.3400 18.7634 0.1907
56.3600 18.7701 0.1811
56.3800 18.7767 0.1769
56.4000 18.7834 0.1880
56.4200 18.7900 0.1825
56.4400 18.7966 0.1804
56.4600 18.8033 0.1866
56.4800 18.8100 0.1855
56.5000 18.8167 0.1765
56.5200 18.8233 0.1811
56.5400 18.8300 0.1830
56.5600 18.8367 0.1830
56.5800 18.8434 0.1793
56.6000 18.8500 0.1838
56.6200 18.8565 0.1837
56.6400 18.8632 0.1748
56.6600 18.8699 0.1887
56.6800 18.8766 0.1843
56.7000 18.8833 0.1695
56.7200 18.8900 0.1875
56.7400 18.8967 0.1812
56.7600 18.9034 0.1714
56.7800 18.9100 0.1890
56.8000 18.9166 0.1795
56.8200 18.9232 0.1770
56.8400 18.9300 0.1879
56.8600 18.9367 0.1726
56.8800 18.9434 0.1765
56.9000 18.9501 0.1926
56.9200 18.9567 0.1649
56.9400 18.9634 0.1779
56.9600 18.9700 0.1952
56.9800 18.9766 0.1705
57.0000 18.9833 0.1755
57.0200 18.9900 0.1960
57.0400 18.9967 0.1705
57.0600 19.0034 0.1734
57.0800 19.0100 0.1912
57.1000 19.0167 0.1712
57.1200 19.0234 0.1780
57.1400 19.0300 0.1835
57.1600 19.0366 0.1662
57.1800 19.0432 0.1827
57.2000 19.0499 0.1861
57.2200 19.0566 0.1654
57.2400 19.0633 0.1818
57.2600 19.0700 0.1806
57.2800 19.0767 0.1724
57.3000 19.0834 0.1762
57.3200 19.0900 0.1751
57.3400 19.0966 0.1781
57.3600 19.1032 0.1799
57.3800 19.1099 0.1711
57.4000 19.1166 0.1776
57.4200 19.1233 0.1782
57.4400 19.1300 0.1752
57.4600 19.1367 0.1772
57.4800 19.1433 0.1712
57.5000 19.1500 0.1800
57.5200 19.1566 0.1788
57.5400 19.1633 0.1674
57.5600 19.1700 0.1794
57.5800 19.1767 0.1778
57.6000 19.1834 0.1625
57.6200 19.1900 0.1856
57.6400 19.1967 0.1729
57.6600 19.2034 0.1626
57.6800 19.2100 0.1839
57.7000 19.2166 0.1716
57.7200 19.2233 0.1636
57.7400 19.2300 0.1881
57.7600 19.2367 0.1716
57.7800 19.2434 0.1605
57.8000 19.2501 0.1863
57.8200 19.2568 0.1692
57.8400 19.2634 0.1652
57.8600 19.2700 0.1831
57.8800 19.2766 0.1690
57.9000 19.2832 0.1664
57.9200 19.2899 0.1797
57.9400 19.2966 0.1660
57.9600 19.3033 0.1696
57.9800 19.3100 0.1795
58.0000 19.3167 0.1655
58.0200 19.3233 0.1652
58.0400 19.3299 0.1780
58.0600 19.3366 0.1717
58.0800 19.3432 0.1670
58.1000 19.3499 0.1760
58.1200 19.3566 0.1698
58.1400 19.3633 0.1687
58.1600 19.3700 0.1755
58.1800 19.3767 0.1692
58.2000 19.3834 0.1693
58.2200 19.3900 0.1754
58.2400 19.3966 0.1690
58.2600 19.4033 0.1708
58.2800 19.4100 0.1733
58.3000 19.4166 0.1677
58.3200 19.4233 0.1658
58.3400 19.4300 0.1712
58.3600 19.4367 0.1681
58.3800 19.4434 0.1661
58.4000 19.4500 0.1670
58.4200 19.4566 0.1686
58.4400 19.4632 0.1695
58.4600 19.4699 0.1710
58.4800 19.4767 0.1693
58.5000 19.4834 0.1674
58.5200 19.4901 0.1704
58.5400 19.4967 0.1700
58.5600 19.5034 0.1632
58.5800 19.5100 0.1672
58.6000 19.5166 0.1692
58.6200 19.5233 0.1686
58.6400 19.5300 0.1705
58.6600 19.5367 0.1635
58.6800 19.5433 0.1674
58.7000 19.5500 0.1703
58.7200 19.5567 0.1672
58.7400 19.5634 0.1620
58.7600 19.5700 0.1674
58.7800 19.5766 0.1682
58.8000 19.5832 0.1658
58.8200 19.5899 0.1649
58.8400 19.5966 0.1708
58.8600 19.6033 0.1637
58.8800 19.6100 0.1611
58.9000 19.6167 0.1660
58.9200 19.6233 0.1616
58.9400 19.6300 0.1637
58.9600 19.6366 0.1689
58.9800 19.6432 0.1636
59.0000 19.6499 0.1678
59.0200 19.6567 0.1628
59.0400 19.6634 0.1620
59.0600 19.6700 0.1664
59.0800 19.6767 0.1655
59.1000 19.6834 0.1605
59.1200 19.6900 0.1659
59.1400 19.6967 0.1666
59.1600 19.7033 0.1588
59.1800 19.7100 0.1663
59.2000 19.7167 0.1611
59.2200 19.7234 0.1601
59.2400 19.7300 0.1628
59.2600 19.7367 0.1608
59.2800 19.7434 0.1603
59.3000 19.7500 0.1542
59.3010 19.7503 0.1527
