Raw Data
Time Displacement Force
(s) (mm) (N)
0.0000 0.0000 -0.1106
0.0200 0.0000 -0.1036
0.0400 0.0008 -0.0588
0.0600 0.0040 -0.0047
0.0800 0.0094 -0.0346
0.1000 0.0151 -0.0446
0.1200 0.0210 -0.0124
0.1400 0.0276 -0.0111
0.1600 0.0350 0.0068
0.1800 0.0425 0.0432
0.2000 0.0496 0.0599
0.2200 0.0565 0.1060
0.2400 0.0632 0.1369
0.2600 0.0699 0.1437
0.2800 0.0765 0.1849
0.3000 0.0832 0.2320
0.3200 0.0900 0.2325
0.3400 0.0967 0.2681
0.3600 0.1034 0.3039
0.3800 0.1100 0.3222
0.4000 0.1166 0.3664
0.4200 0.1233 0.3919
0.4400 0.1300 0.4053
0.4600 0.1367 0.4464
0.4800 0.1434 0.4514
0.5000 0.1501 0.4430
0.5200 0.1568 0.4518
0.5400 0.1634 0.4363
0.5600 0.1700 0.4298
0.5800 0.1766 0.4488
0.6000 0.1833 0.4413
0.6200 0.1900 0.4503
0.6400 0.1967 0.4841
0.6600 0.2034 0.5026
0.6800 0.2101 0.5453
0.7000 0.2167 0.5832
0.7200 0.2234 0.6049
0.7400 0.2300 0.6232
0.7600 0.2366 0.6428
0.7800 0.2433 0.6691
0.8000 0.2500 0.7153
0.8200 0.2567 0.7447
0.8400 0.2634 0.7763
0.8600 0.2700 0.8035
0.8800 0.2767 0.8063
0.9000 0.2834 0.8051
0.9200 0.2899 0.8076
0.9400 0.2966 0.8094
0.9600 0.3032 0.8169
0.9800 0.3100 0.8169
1.0000 0.3167 0.8175
1.0200 0.3233 0.8194
1.0400 0.3300 0.8195
1.0600 0.3367 0.8280
1.0800 0.3433 0.8256
1.1000 0.3499 0.8253
1.1200 0.3566 0.8346
1.1400 0.3633 0.8359
1.1600 0.3700 0.8287
1.1800 0.3767 0.8384
1.2000 0.3834 0.8414
1.2200 0.3901 0.8376
1.2400 0.3968 0.8388
1.2600 0.4034 0.8461
1.2800 0.4100 0.8428
1.3000 0.4167 0.8515
1.3200 0.4233 0.8468
1.3400 0.4300 0.8467
1.3600 0.4367 0.8549
1.3800 0.4434 0.8549
1.4000 0.4501 0.8483
1.4200 0.4568 0.8555
1.4400 0.4634 0.8565
1.4600 0.4700 0.8569
1.4800 0.4766 0.8611
1.5000 0.4832 0.8595
1.5200 0.4900 0.8587
1.5400 0.4967 0.8580
1.5600 0.5033 0.8634
1.5800 0.5100 0.8663
1.6000 0.5167 0.8621
1.6200 0.5233 0.8583
1.6400 0.5299 0.8646
1.6600 0.5366 0.8651
1.6800 0.5433 0.8615
1.7000 0.5500 0.8691
1.7200 0.5567 0.8646
1.7400 0.5634 0.8575
1.7600 0.5700 0.8691
1.7800 0.5767 0.8632
1.8000 0.5834 0.8566
1.8200 0.5900 0.8691
1.8400 0.5966 0.8632
1.8600 0.6033 0.8592
1.8800 0.6100 0.8734
1.9000 0.6167 0.8606
1.9200 0.6234 0.8604
1.9400 0.6301 0.8691
1.9600 0.6368 0.8540
1.9800 0.6434 0.8614
2.0000 0.6500 0.8666
2.0200 0.6566 0.8563
2.0400 0.6633 0.8666
2.0600 0.6700 0.8643
2.0800 0.6767 0.8542
2.1000 0.6834 0.8729
2.1200 0.6901 0.8601
2.1400 0.6967 0.8586
2.1600 0.7034 0.8669
2.1800 0.7100 0.8599
2.2000 0.7166 0.8588
2.2200 0.7233 0.8722
2.2400 0.7300 0.8555
2.2600 0.7367 0.8593
2.2800 0.7434 0.8697
2.3000 0.7500 0.8492
2.3200 0.7567 0.8681
2.3400 0.7634 0.8661
2.3600 0.7700 0.8498
2.3800 0.7766 0.8639
2.4000 0.7833 0.8664
2.4200 0.7900 0.8555
2.4400 0.7967 0.8678
2.4600 0.8033 0.8628
2.4800 0.8100 0.8504
2.5000 0.8168 0.8665
2.5200 0.8234 0.8643
2.5400 0.8300 0.8511
2.5600 0.8366 0.8740
2.5800 0.8433 0.8603
2.6000 0.8500 0.8526
2.6200 0.8568 0.8724
2.6400 0.8634 0.8635
2.6600 0.8701 0.8556
2.6800 0.8768 0.8724
2.7000 0.8834 0.8591
2.7200 0.8900 0.8613
2.7400 0.8966 0.8767
2.7600 0.9033 0.8566
2.7800 0.9100 0.8645
2.8000 0.9167 0.8667
2.8200 0.9234 0.8565
2.8400 0.9301 0.8654
2.8600 0.9368 0.8711
2.8800 0.9434 0.8586
2.9000 0.9500 0.8711
2.9200 0.9566 0.8669
2.9400 0.9633 0.8594
2.9600 0.9700 0.8750
2.9800 0.9767 0.8643
3.0000 0.9834 0.8580
3.0200 0.9901 0.8779
3.0400 0.9967 0.8616
3.0600 1.0034 0.8651
3.0800 1.0100 0.8784
3.1000 1.0166 0.8600
3.1200 1.0232 0.8719
3.1400 1.0299 0.8802
3.1600 1.0367 0.8538
3.1800 1.0434 0.8738
3.2000 1.0500 0.8782
3.2200 1.0567 0.8557
3.2400 1.0634 0.8795
3.2600 1.0700 0.8722
3.2800 1.0766 0.8622
3.3000 1.0833 0.8788
3.3200 1.0900 0.8690
3.3400 1.0967 0.8619
3.3600 1.1034 0.8833
3.3800 1.1101 0.8646
3.4000 1.1168 0.8664
3.4200 1.1235 0.8822
3.4400 1.1301 0.8607
3.4600 1.1367 0.8700
3.4800 1.1433 0.8773
3.5000 1.1500 0.8649
3.5200 1.1567 0.8754
3.5400 1.1634 0.8701
3.5600 1.1701 0.8689
3.5800 1.1767 0.8856
3.6000 1.1834 0.8635
3.6200 1.1900 0.8627
3.6400 1.1966 0.8868
3.6600 1.2033 0.8743
3.6800 1.2100 0.8684
3.7000 1.2167 0.8739
3.7200 1.2234 0.8659
3.7400 1.2301 0.8799
3.7600 1.2367 0.8809
3.7800 1.2434 0.8659
3.8000 1.2500 0.8788
3.8200 1.2566 0.8698
3.8400 1.2633 0.8628
3.8600 1.2700 0.8843
3.8800 1.2767 0.8755
3.9000 1.2833 0.8696
3.9200 1.2900 0.8710
3.9400 1.2967 0.8699
3.9600 1.3034 0.8815
3.9800 1.3100 0.8763
4.0000 1.3166 0.8618
4.0200 1.3233 0.8844
4.0400 1.3300 0.8783
4.0600 1.3367 0.8664
4.0800 1.3434 0.8776
4.1000 1.3501 0.8647
4.1200 1.3568 0.8774
4.1400 1.3634 0.8843
4.1600 1.3700 0.8610
4.1800 1.3766 0.8740
4.2000 1.3833 0.8820
4.2200 1.3900 0.8646
4.2400 1.3967 0.8795
4.2600 1.4034 0.8747
4.2800 1.4101 0.8693
4.3000 1.4168 0.8784
4.3200 1.4234 0.8658
4.3400 1.4300 0.8753
4.3600 1.4366 0.8859
4.3800 1.4433 0.8628
4.4000 1.4500 0.8734
4.4200 1.4567 0.8849
4.4400 1.4633 0.8653
4.4600 1.4700 0.8786
4.4800 1.4767 0.8758
4.5000 1.4834 0.8601
4.5200 1.4900 0.8822
4.5400 1.4966 0.8756
4.5600 1.5032 0.8640
4.5800 1.5099 0.8849
4.6000 1.5167 0.8674
4.6200 1.5234 0.8644
4.6400 1.5301 0.8816
4.6600 1.5367 0.8710
4.6800 1.5434 0.8685
4.7000 1.5500 0.8819
4.7200 1.5566 0.8663
4.7400 1.5633 0.8767
4.7600 1.5700 0.8819
4.7800 1.5767 0.8637
4.8000 1.5834 0.8780
4.8200 1.5901 0.8765
4.8400 1.5968 0.8651
4.8600 1.6034 0.8786
4.8800 1.6100 0.8718
4.9000 1.6166 0.8686
4.9200 1.6233 0.8821
4.9400 1.6299 0.8706
4.9600 1.6367 0.8658
4.9800 1.6434 0.8783
5.0000 1.6501 0.8739
5.0200 1.6568 0.8677
5.0400 1.6634 0.8738
5.0600 1.6701 0.8673
5.0800 1.6766 0.8811
5.1000 1.6832 0.8782
5.1200 1.6899 0.8647
5.1400 1.6966 0.8791
5.1600 1.7034 0.8779
5.1800 1.7101 0.8677
5.2000 1.7168 0.8773
5.2200 1.7234 0.8705
5.2400 1.7300 0.8725
5.2600 1.7366 0.8800
5.2800 1.7432 0.8657
5.3000 1.7499 0.8724
5.3200 1.7567 0.8821
5.3400 1.7634 0.8627
5.3600 1.7700 0.8750
5.3800 1.7767 0.8854
5.4000 1.7834 0.8623
5.4200 1.7900 0.8767
5.4400 1.7966 0.8820
5.4600 1.8033 0.8649
5.4800 1.8100 0.8777
5.5000 1.8167 0.8745
5.5200 1.8234 0.8634
5.5400 1.8301 0.8840
5.5600 1.8368 0.8732
5.5800 1.8435 0.8642
5.6000 1.8501 0.8787
5.6200 1.8567 0.8763
5.6400 1.8633 0.8721
5.6600 1.8700 0.8783
5.6800 1.8767 0.8698
5.7000 1.8834 0.8723
5.7200 1.8901 0.8816
5.7400 1.8967 0.8732
5.7600 1.9034 0.8691
5.7800 1.9100 0.8767
5.8000 1.9166 0.8767
5.8200 1.9233 0.8703
5.8400 1.9300 0.8789
5.8600 1.9367 0.8803
5.8800 1.9434 0.8684
5.9000 1.9500 0.8775
5.9200 1.9567 0.8797
5.9400 1.9634 0.8705
5.9600 1.9700 0.8797
5.9800 1.9766 0.8782
6.0000 1.9833 0.8699
6.0200 1.9899 0.8844
6.0400 1.9967 0.8791
6.0600 2.0033 0.8675
6.0800 2.0100 0.8861
6.1000 2.0167 0.8713
6.1200 2.0234 0.8734
6.1400 2.0301 0.8813
6.1600 2.0367 0.8690
6.1800 2.0433 0.8728
6.2000 2.0500 0.8853
6.2200 2.0567 0.8671
6.2400 2.0634 0.8675
6.2600 2.0701 0.8886
6.2800 2.0767 0.8665
6.3000 2.0834 0.8660
6.3200 2.0901 0.8841
6.3400 2.0967 0.8703
6.3600 2.1033 0.8705
6.3800 2.1100 0.8842
6.4000 2.1167 0.8673
6.4200 2.1234 0.8692
6.4400 2.1300 0.8805
6.4600 2.1367 0.8725
6.4800 2.1434 0.8678
6.5000 2.1501 0.8773
6.5200 2.1567 0.8683
6.5400 2.1633 0.8727
6.5600 2.1700 0.8804
6.5800 2.1767 0.8672
6.6000 2.1833 0.8706
6.6200 2.1900 0.8755
6.6400 2.1967 0.8704
6.6600 2.2035 0.8700
6.6800 2.2101 0.8742
6.7000 2.2167 0.8675
6.7200 2.2232 0.8704
6.7400 2.2299 0.8775
6.7600 2.2366 0.8705
6.7800 2.2433 0.8684
6.8000 2.2500 0.8761
6.8200 2.2567 0.8660
6.8400 2.2634 0.8706
6.8600 2.2700 0.8691
6.8800 2.2766 0.8704
6.9000 2.2833 0.8687
6.9200 2.2900 0.8722
6.9400 2.2967 0.8671
6.9600 2.3034 0.8669
6.9800 2.3101 0.8755
7.0000 2.3167 0.8714
7.0200 2.3234 0.8637
7.0400 2.3301 0.8733
7.0600 2.3367 0.8709
7.0800 2.3433 0.8645
7.1000 2.3500 0.8751
7.1200 2.3567 0.8664
7.1400 2.3634 0.8626
7.1600 2.3700 0.8714
7.1800 2.3767 0.8710
7.2000 2.3834 0.8638
7.2200 2.3901 0.8741
7.2400 2.3967 0.8689
7.2600 2.4033 0.8654
7.2800 2.4099 0.8745
7.3000 2.4167 0.8718
7.3200 2.4234 0.8624
7.3400 2.4301 0.8765
7.3600 2.4367 0.8700
7.3800 2.4434 0.8638
7.4000 2.4500 0.8769
7.4200 2.4566 0.8685
7.4400 2.4633 0.8629
7.4600 2.4699 0.8756
7.4800 2.4767 0.8647
7.5000 2.4834 0.8609
7.5200 2.4900 0.8763
7.5400 2.4967 0.8640
7.5600 2.5034 0.8655
7.5800 2.5100 0.8722
7.6000 2.5167 0.8610
7.6200 2.5233 0.8668
7.6400 2.5300 0.8765
7.6600 2.5367 0.8587
7.6800 2.5434 0.8674
7.7000 2.5501 0.8713
7.7200 2.5568 0.8584
7.7400 2.5635 0.8706
7.7600 2.5701 0.8641
7.7800 2.5767 0.8582
7.8000 2.5833 0.8761
7.8200 2.5900 0.8627
7.8400 2.5967 0.8611
7.8600 2.6034 0.8702
7.8800 2.6101 0.8632
7.9000 2.6167 0.8621
7.9200 2.6234 0.8696
7.9400 2.6301 0.8678
7.9600 2.6367 0.8611
7.9800 2.6433 0.8672
8.0000 2.6500 0.8624
8.0200 2.6566 0.8672
8.0400 2.6633 0.8649
8.0600 2.6700 0.8638
8.0800 2.6767 0.8659
8.1000 2.6834 0.8655
8.1200 2.6901 0.8650
8.1400 2.6967 0.8633
8.1600 2.7033 0.8668
8.1800 2.7099 0.8664
8.2000 2.7166 0.8639
8.2200 2.7233 0.8630
8.2400 2.7300 0.8651
8.2600 2.7367 0.8687
8.2800 2.7434 0.8609
8.3000 2.7501 0.8579
8.3200 2.7567 0.8650
8.3400 2.7633 0.8663
8.3600 2.7700 0.8633
8.3800 2.7767 0.8627
8.4000 2.7834 0.8631
8.4200 2.7900 0.8624
8.4400 2.7967 0.8658
8.4600 2.8034 0.8604
8.4800 2.8101 0.8589
8.5000 2.8167 0.8666
8.5200 2.8233 0.8597
8.5400 2.8300 0.8592
8.5600 2.8367 0.8728
8.5800 2.8434 0.8587
8.6000 2.8501 0.8600
8.6200 2.8567 0.8668
8.6400 2.8634 0.8616
8.6600 2.8701 0.8599
8.6800 2.8767 0.8625
8.7000 2.8833 0.8616
8.7200 2.8899 0.8664
8.7400 2.8966 0.8638
8.7600 2.9033 0.8613
8.7800 2.9100 0.8598
8.8000 2.9167 0.8617
8.8200 2.9234 0.8666
8.8400 2.9301 0.8562
8.8600 2.9367 0.8631
8.8800 2.9433 0.8712
8.9000 2.9499 0.8569
8.9200 2.9566 0.8642
8.9400 2.9633 0.8668
8.9600 2.9700 0.8517
8.9800 2.9767 0.8657
9.0000 2.9834 0.8646
9.0200 2.9900 0.8562
9.0400 2.9967 0.8624
9.0600 3.0033 0.8636
9.0800 3.0100 0.8558
9.1000 3.0167 0.8644
9.1200 3.0234 0.8583
9.1400 3.0301 0.8578
9.1600 3.0368 0.8620
9.1800 3.0434 0.8584
9.2000 3.0501 0.8615
9.2200 3.0567 0.8644
9.2400 3.0633 0.8552
9.2600 3.0699 0.8616
9.2800 3.0766 0.8623
9.3000 3.0834 0.8550
9.3200 3.0901 0.8621
9.3400 3.0968 0.8565
9.3600 3.1034 0.8563
9.3800 3.1101 0.8615
9.4000 3.1167 0.8588
9.4200 3.1233 0.8573
9.4400 3.1299 0.8680
9.4600 3.1366 0.8549
9.4800 3.1434 0.8558
9.5000 3.1500 0.8666
9.5200 3.1567 0.8585
9.5400 3.1634 0.8568
9.5600 3.1701 0.8606
9.5800 3.1767 0.8575
9.6000 3.1833 0.8652
9.6200 3.1900 0.8603
9.6400 3.1966 0.8564
9.6600 3.2033 0.8589
9.6800 3.2100 0.8552
9.7000 3.2167 0.8564
9.7200 3.2233 0.8613
9.7400 3.2300 0.8589
9.7600 3.2367 0.8529
9.7800 3.2433 0.8634
9.8000 3.2499 0.8550
9.8200 3.2566 0.8598
9.8400 3.2634 0.8604
9.8600 3.2701 0.8511
9.8800 3.2768 0.8587
9.9000 3.2835 0.8637
9.9200 3.2901 0.8487
9.9400 3.2967 0.8596
9.9600 3.3033 0.8659
9.9800 3.3099 0.8542
10.0000 3.3167 0.8601
10.0200 3.3234 0.8611
10.0400 3.3301 0.8467
10.0600 3.3368 0.8650
10.0800 3.3434 0.8583
10.1000 3.3501 0.8482
10.1200 3.3567 0.8646
10.1400 3.3633 0.8579
10.1600 3.3699 0.8461
10.1800 3.3766 0.8666
10.2000 3.3833 0.8614
10.2200 3.3900 0.8424
10.2400 3.3967 0.8651
10.2600 3.4034 0.8584
10.2800 3.4101 0.8477
10.3000 3.4167 0.8634
10.3200 3.4233 0.8547
10.3400 3.4299 0.8513
10.3600 3.4366 0.8662
10.3800 3.4433 0.8511
10.4000 3.4500 0.8481
10.4200 3.4567 0.8598
10.4400 3.4634 0.8552
10.4600 3.4701 0.8459
10.4800 3.4767 0.8568
10.5000 3.4833 0.8525
10.5200 3.4900 0.8483
10.5400 3.4966 0.8591
10.5600 3.5033 0.8564
10.5800 3.5100 0.8532
10.6000 3.5167 0.8518
10.6200 3.5234 0.8556
10.6400 3.5301 0.8506
10.6600 3.5367 0.8486
10.6800 3.5434 0.8589
10.7000 3.5500 0.8484
10.7200 3.5566 0.8464
10.7400 3.5633 0.8572
10.7600 3.5700 0.8478
10.7800 3.5767 0.8539
10.8000 3.5834 0.8551
10.8200 3.5901 0.8412
10.8400 3.5967 0.8511
10.8600 3.6033 0.8619
10.8800 3.6099 0.8413
10.9000 3.6166 0.8528
10.9200 3.6234 0.8592
10.9400 3.6301 0.8406
10.9600 3.6368 0.8513
10.9800 3.6434 0.8556
11.0000 3.6501 0.8411
11.0200 3.6567 0.8568
11.0400 3.6633 0.8498
11.0600 3.6699 0.8391
11.0800 3.6766 0.8603
11.1000 3.6833 0.8454
11.1200 3.6900 0.8419
11.1400 3.6967 0.8588
11.1600 3.7033 0.8470
11.1800 3.7100 0.8404
11.2000 3.7167 0.8547
11.2200 3.7233 0.8465
11.2400 3.7299 0.8494
11.2600 3.7366 0.8469
11.2800 3.7433 0.8493
11.3000 3.7500 0.8493
11.3200 3.7568 0.8472
11.3400 3.7635 0.8484
11.3600 3.7702 0.8486
11.3800 3.7768 0.8397
11.4000 3.7834 0.8468
11.4200 3.7900 0.8504
11.4400 3.7966 0.8449
11.4600 3.8033 0.8476
11.4800 3.8101 0.8465
11.5000 3.8168 0.8426
11.5200 3.8234 0.8474
11.5400 3.8301 0.8510
11.5600 3.8368 0.8373
11.5800 3.8434 0.8464
11.6000 3.8500 0.8458
11.6200 3.8566 0.8450
11.6400 3.8633 0.8487
11.6600 3.8700 0.8461
11.6800 3.8767 0.8337
11.7000 3.8834 0.8524
11.7200 3.8901 0.8497
11.7400 3.8967 0.8353
11.7600 3.9033 0.8456
11.7800 3.9099 0.8479
11.8000 3.9166 0.8347
11.8200 3.9233 0.8519
11.8400 3.9300 0.8488
11.8600 3.9367 0.8370
11.8800 3.9434 0.8490
11.9000 3.9501 0.8468
11.9200 3.9567 0.8348
11.9400 3.9633 0.8496
11.9600 3.9699 0.8444
11.9800 3.9766 0.8311
12.0000 3.9833 0.8454
12.0200 3.9901 0.8455
12.0400 3.9967 0.8421
12.0600 4.0034 0.8394
12.0800 4.0101 0.8413
12.1000 4.0168 0.8410
12.1200 4.0234 0.8442
12.1400 4.0300 0.8430
12.1600 4.0367 0.8446
12.1800 4.0434 0.8357
12.2000 4.0500 0.8428
12.2200 4.0567 0.8410
12.2400 4.0634 0.8390
12.2600 4.0701 0.8447
12.2800 4.0767 0.8374
12.3000 4.0833 0.8409
12.3200 4.0899 0.8507
12.3400 4.0966 0.8349
12.3600 4.1033 0.8417
12.3800 4.1100 0.8453
12.4000 4.1167 0.8341
12.4200 4.1234 0.8447
12.4400 4.1301 0.8441
12.4600 4.1367 0.8362
12.4800 4.1433 0.8391
12.5000 4.1499 0.8448
12.5200 4.1566 0.8341
12.5400 4.1633 0.8408
12.5600 4.1700 0.8391
12.5800 4.1767 0.8338
12.6000 4.1834 0.8437
12.6200 4.1901 0.8408
12.6400 4.1967 0.8323
12.6600 4.2034 0.8440
12.6800 4.2100 0.8387
12.7000 4.2166 0.8354
12.7200 4.2233 0.8424
12.7400 4.2300 0.8395
12.7600 4.2367 0.8332
12.7800 4.2434 0.8398
12.8000 4.2501 0.8392
12.8200 4.2568 0.8354
12.8400 4.2634 0.8424
12.8600 4.2700 0.8356
12.8800 4.2766 0.8378
12.9000 4.2833 0.8393
12.9200 4.2901 0.8374
12.9400 4.2968 0.8336
12.9600 4.3034 0.8427
12.9800 4.3101 0.8352
13.0000 4.3168 0.8351
13.0200 4.3234 0.8407
13.0400 4.3300 0.8350
13.0600 4.3366 0.8385
13.0800 4.3433 0.8372
13.1000 4.3500 0.8332
13.1200 4.3567 0.8381
13.1400 4.3634 0.8350
13.1600 4.3701 0.8395
13.1800 4.3768 0.8342
13.2000 4.3834 0.8332
13.2200 4.3900 0.8419
13.2400 4.3966 0.8366
13.2600 4.4033 0.8298
13.2800 4.4100 0.8388
13.3000 4.4167 0.8381
13.3200 4.4234 0.8295
13.3400 4.4301 0.8414
13.3600 4.4368 0.8337
13.3800 4.4434 0.8265
13.4000 4.4500 0.8411
13.4200 4.4566 0.8364
13.4400 4.4633 0.8271
13.4600 4.4700 0.8464
13.4800 4.4768 0.8287
13.5000 4.4835 0.8219
13.5200 4.4901 0.8458
13.5400 4.4968 0.8314
13.5600 4.5034 0.8221
13.5800 4.5100 0.8467
13.6000 4.5166 0.8235
13.6200 4.5233 0.8293
13.6400 4.5301 0.8453
13.6600 4.5367 0.8244
13.6800 4.5434 0.8284
13.7000 4.5501 0.8440
13.7200 4.5567 0.8272
13.7400 4.5634 0.8241
13.7600 4.5700 0.8441
13.7800 4.5766 0.8254
13.8000 4.5833 0.8278
13.8200 4.5900 0.8411
13.8400 4.5967 0.8292
13.8600 4.6033 0.8256
13.8800 4.6100 0.8405
13.9000 4.6167 0.8212
13.9200 4.6234 0.8332
13.9400 4.6300 0.8398
13.9600 4.6366 0.8222
13.9800 4.6433 0.8269
14.0000 4.6500 0.8376
14.0200 4.6567 0.8214
14.0400 4.6634 0.8287
14.0600 4.6701 0.8339
14.0800 4.6767 0.8239
14.1000 4.6834 0.8294
14.1200 4.6900 0.8280
14.1400 4.6966 0.8277
14.1600 4.7033 0.8316
14.1800 4.7100 0.8299
14.2000 4.7167 0.8272
14.2200 4.7234 0.8324
14.2400 4.7301 0.8242
14.2600 4.7368 0.8262
14.2800 4.7434 0.8298
14.3000 4.7500 0.8280
14.3200 4.7566 0.8252
14.3400 4.7633 0.8247
14.3600 4.7700 0.8265
14.3800 4.7767 0.8315
14.4000 4.7834 0.8200
14.4200 4.7901 0.8326
14.4400 4.7968 0.8263
14.4600 4.8034 0.8204
14.4800 4.8100 0.8312
14.5000 4.8166 0.8266
14.5200 4.8233 0.8157
14.5400 4.8300 0.8329
14.5600 4.8367 0.8319
14.5800 4.8433 0.8159
14.6000 4.8500 0.8302
14.6200 4.8567 0.8273
14.6400 4.8633 0.8240
14.6600 4.8699 0.8273
14.6800 4.8765 0.8221
14.7000 4.8832 0.8246
14.7200 4.8900 0.8309
14.7400 4.8967 0.8166
14.7600 4.9034 0.8172
14.7800 4.9101 0.8329
14.8000 4.9167 0.8236
14.8200 4.9234 0.8193
14.8400 4.9300 0.8328
14.8600 4.9367 0.8136
14.8800 4.9433 0.8223
14.9000 4.9500 0.8383
14.9200 4.9567 0.8129
14.9400 4.9634 0.8261
14.9600 4.9701 0.8338
14.9800 4.9768 0.8079
15.0000 4.9834 0.8333
15.0200 4.9900 0.8319
15.0400 4.9966 0.8056
15.0600 5.0033 0.8300
15.0800 5.0100 0.8235
15.1000 5.0167 0.8140
15.1200 5.0234 0.8290
15.1400 5.0301 0.8197
15.1600 5.0368 0.8145
15.1800 5.0434 0.8287
15.2000 5.0500 0.8183
15.2200 5.0566 0.8216
15.2400 5.0633 0.8226
15.2600 5.0700 0.8205
15.2800 5.0767 0.8191
15.3000 5.0834 0.8243
15.3200 5.0901 0.8184
15.3400 5.0968 0.8202
15.3600 5.1034 0.8219
15.3800 5.1100 0.8173
15.4000 5.1166 0.8233
15.4200 5.1232 0.8212
15.4400 5.1299 0.8223
15.4600 5.1366 0.8232
15.4800 5.1433 0.8119
15.5000 5.1500 0.8228
15.5200 5.1567 0.8240
15.5400 5.1633 0.8071
15.5600 5.1700 0.8227
15.5800 5.1766 0.8204
15.6000 5.1833 0.8178
15.6200 5.1900 0.8184
15.6400 5.1967 0.8207
15.6600 5.2034 0.8177
15.6800 5.2101 0.8242
15.7000 5.2168 0.8188
15.7200 5.2234 0.8134
15.7400 5.2301 0.8195
15.7600 5.2367 0.8226
15.7800 5.2434 0.8171
15.8000 5.2501 0.8164
15.8200 5.2568 0.8129
15.8400 5.2634 0.8263
15.8600 5.2701 0.8137
15.8800 5.2768 0.8129
15.9000 5.2834 0.8244
15.9200 5.2900 0.8156
15.9400 5.2966 0.8169
15.9600 5.3033 0.8151
15.9800 5.3100 0.8153
16.0000 5.3167 0.8155
16.0200 5.3234 0.8195
16.0400 5.3301 0.8107
16.0600 5.3367 0.8165
16.0800 5.3434 0.8182
16.1000 5.3500 0.8100
16.1200 5.3566 0.8218
16.1400 5.3633 0.8224
16.1600 5.3700 0.8043
16.1800 5.3767 0.8164
16.2000 5.3834 0.8172
16.2200 5.3900 0.8096
16.2400 5.3967 0.8174
16.2600 5.4033 0.8161
16.2800 5.4100 0.8038
16.3000 5.4166 0.8177
16.3200 5.4233 0.8164
16.3400 5.4300 0.8045
16.3600 5.4367 0.8163
16.3800 5.4434 0.8151
16.4000 5.4501 0.8022
16.4200 5.4568 0.8178
16.4400 5.4635 0.8086
16.4600 5.4700 0.8064
16.4800 5.4766 0.8192
16.5000 5.4833 0.8054
16.5200 5.4900 0.8097
16.5400 5.4967 0.8132
16.5600 5.5034 0.8111
16.5800 5.5101 0.8058
16.6000 5.5168 0.8124
16.6200 5.5234 0.8040
16.6400 5.5300 0.8113
16.6600 5.5366 0.8119
16.6800 5.5433 0.8072
16.7000 5.5500 0.8099
16.7200 5.5567 0.8051
16.7400 5.5634 0.8081
16.7600 5.5700 0.8109
16.7800 5.5767 0.8056
16.8000 5.5834 0.8054
16.8200 5.5900 0.8042
16.8400 5.5966 0.8082
16.8600 5.6033 0.8103
16.8800 5.6100 0.8045
16.9000 5.6167 0.8076
16.9200 5.6233 0.8103
16.9400 5.6300 0.8040
16.9600 5.6367 0.8045
16.9800 5.6434 0.8119
17.0000 5.6500 0.7956
17.0200 5.6566 0.8104
17.0400 5.6633 0.8100
17.0600 5.6700 0.7971
17.0800 5.6767 0.8108
17.1000 5.6834 0.8125
17.1200 5.6900 0.7899
17.1400 5.6967 0.8085
17.1600 5.7034 0.8085
17.1800 5.7100 0.7979
17.2000 5.7167 0.8077
17.2200 5.7233 0.8071
17.2400 5.7300 0.7965
17.2600 5.7367 0.8060
17.2800 5.7434 0.8074
17.3000 5.7501 0.7962
17.3200 5.7568 0.8093
17.3400 5.7634 0.8078
17.3600 5.7701 0.7934
17.3800 5.7767 0.8102
17.4000 5.7833 0.8123
17.4200 5.7900 0.7911
17.4400 5.7967 0.8067
17.4600 5.8034 0.8062
17.4800 5.8101 0.7925
17.5000 5.8168 0.8049
17.5200 5.8234 0.8090
17.5400 5.8300 0.7915
17.5600 5.8366 0.8045
17.5800 5.8432 0.8086
17.6000 5.8499 0.7968
17.6200 5.8567 0.8025
17.6400 5.8634 0.8047
17.6600 5.8700 0.7952
17.6800 5.8767 0.8003
17.7000 5.8834 0.8042
17.7200 5.8900 0.7929
17.7400 5.8966 0.8010
17.7600 5.9033 0.8080
17.7800 5.9100 0.7937
17.8000 5.9167 0.7979
17.8200 5.9234 0.8090
17.8400 5.9301 0.7922
17.8600 5.9368 0.7989
17.8800 5.9434 0.8073
17.9000 5.9500 0.7941
17.9200 5.9566 0.7965
17.9400 5.9633 0.8053
17.9600 5.9700 0.7936
17.9800 5.9767 0.8008
18.0000 5.9835 0.8019
18.0200 5.9901 0.7905
18.0400 5.9968 0.8007
18.0600 6.0034 0.7994
18.0800 6.0100 0.7898
18.1000 6.0166 0.8010
18.1200 6.0233 0.8015
18.1400 6.0300 0.7920
18.1600 6.0367 0.7973
18.1800 6.0434 0.7996
18.2000 6.0501 0.7921
18.2200 6.0567 0.7913
18.2400 6.0634 0.7985
18.2600 6.0700 0.7889
18.2800 6.0766 0.7958
18.3000 6.0833 0.8011
18.3200 6.0900 0.7860
18.3400 6.0967 0.7922
18.3600 6.1033 0.8070
18.3800 6.1100 0.7845
18.4000 6.1167 0.7919
18.4200 6.1234 0.7971
18.4400 6.1300 0.7879
18.4600 6.1367 0.7921
18.4800 6.1433 0.7991
18.5000 6.1500 0.7844
18.5200 6.1567 0.7928
18.5400 6.1634 0.8007
18.5600 6.1701 0.7784
18.5800 6.1768 0.7936
18.6000 6.1834 0.8010
18.6200 6.1901 0.7772
18.6400 6.1966 0.7934
18.6600 6.2033 0.7966
18.6800 6.2100 0.7816
18.7000 6.2167 0.7924
18.7200 6.2234 0.7932
18.7400 6.2301 0.7833
18.7600 6.2368 0.7893
18.7800 6.2435 0.7917
18.8000 6.2501 0.7835
18.8200 6.2567 0.7952
18.8400 6.2633 0.7878
18.8600 6.2700 0.7848
18.8800 6.2767 0.7885
18.9000 6.2834 0.7883
18.9200 6.2900 0.7844
18.9400 6.2967 0.7857
18.9600 6.3034 0.7817
18.9800 6.3100 0.7860
19.0000 6.3166 0.7895
19.0200 6.3232 0.7835
19.0400 6.3299 0.7877
19.0600 6.3366 0.7847
19.0800 6.3433 0.7822
19.1000 6.3500 0.7878
19.1200 6.3567 0.7873
19.1400 6.3634 0.7798
19.1600 6.3700 0.7864
19.1800 6.3766 0.7860
19.2000 6.3833 0.7807
19.2200 6.3900 0.7825
19.2400 6.3967 0.7920
19.2600 6.4034 0.7805
19.2800 6.4101 0.7824
19.3000 6.4168 0.7820
19.3200 6.4234 0.7861
19.3400 6.4301 0.7804
19.3600 6.4367 0.7799
19.3800 6.4433 0.7876
19.4000 6.4500 0.7837
19.4200 6.4567 0.7774
19.4400 6.4634 0.7860
19.4600 6.4700 0.7806
19.4800 6.4767 0.7802
19.5000 6.4834 0.7822
19.5200 6.4901 0.7751
19.5400 6.4967 0.7807
19.5600 6.5033 0.7854
19.5800 6.5099 0.7781
19.6000 6.5167 0.7754
19.6200 6.5234 0.7830
19.6400 6.5301 0.7798
19.6600 6.5368 0.7795
19.6800 6.5434 0.7757
19.7000 6.5500 0.7794
19.7200 6.5566 0.7799
19.7400 6.5632 0.7774
19.7600 6.5699 0.7837
19.7800 6.5766 0.7773
19.8000 6.5834 0.7718
19.8200 6.5900 0.7826
19.8400 6.5967 0.7777
19.8600 6.6034 0.7789
19.8800 6.6100 0.7848
19.9000 6.6166 0.7748
19.9200 6.6233 0.7753
19.9400 6.6300 0.7828
19.9600 6.6367 0.7798
19.9800 6.6434 0.7735
20.0000 6.6501 0.7864
20.0200 6.6568 0.7768
20.0400 6.6635 0.7732
20.0600 6.6701 0.7772
20.0800 6.6767 0.7794
20.1000 6.6833 0.7777
20.1200 6.6900 0.7789
20.1400 6.6967 0.7729
20.1600 6.7034 0.7774
20.1800 6.7101 0.7809
20.2000 6.7168 0.7767
20.2200 6.7234 0.7743
20.2400 6.7301 0.7767
20.2600 6.7366 0.7792
20.2800 6.7433 0.7722
20.3000 6.7499 0.7745
20.3200 6.7567 0.7824
20.3400 6.7634 0.7731
20.3600 6.7700 0.7740
20.3800 6.7767 0.7785
20.4000 6.7834 0.7693
20.4200 6.7900 0.7759
20.4400 6.7966 0.7760
20.4600 6.8033 0.7707
20.4800 6.8099 0.7782
20.5000 6.8166 0.7781
20.5200 6.8233 0.7669
20.5400 6.8300 0.7790
20.5600 6.8367 0.7746
20.5800 6.8434 0.7695
20.6000 6.8501 0.7740
20.6200 6.8567 0.7720
20.6400 6.8633 0.7677
20.6600 6.8700 0.7822
20.6800 6.8767 0.7686
20.7000 6.8834 0.7646
20.7200 6.8901 0.7808
20.7400 6.8968 0.7694
20.7600 6.9034 0.7687
20.7800 6.9101 0.7804
20.8000 6.9167 0.7693
20.8200 6.9233 0.7686
20.8400 6.9299 0.7783
20.8600 6.9367 0.7700
20.8800 6.9434 0.7704
20.9000 6.9501 0.7766
20.9200 6.9567 0.7678
20.9400 6.9634 0.7640
20.9600 6.9701 0.7768
20.9800 6.9767 0.7724
21.0000 6.9833 0.7649
21.0200 6.9900 0.7708
21.0400 6.9967 0.7731
21.0600 7.0033 0.7613
21.0800 7.0100 0.7773
21.1000 7.0167 0.7716
21.1200 7.0234 0.7640
21.1400 7.0301 0.7734
21.1600 7.0367 0.7633
21.1800 7.0433 0.7628
21.2000 7.0499 0.7753
21.2200 7.0566 0.7643
21.2400 7.0633 0.7617
21.2600 7.0700 0.7746
21.2800 7.0767 0.7699
21.3000 7.0833 0.7618
21.3200 7.0900 0.7694
21.3400 7.0966 0.7686
21.3600 7.1033 0.7606
21.3800 7.1099 0.7739
21.4000 7.1166 0.7644
21.4200 7.1234 0.7603
21.4400 7.1300 0.7745
21.4600 7.1367 0.7693
21.4800 7.1434 0.7556
21.5000 7.1501 0.7672
21.5200 7.1567 0.7692
21.5400 7.1633 0.7603
21.5600 7.1700 0.7659
21.5800 7.1766 0.7672
21.6000 7.1834 0.7606
21.6200 7.1901 0.7660
21.6400 7.1968 0.7664
21.6600 7.2035 0.7623
21.6800 7.2101 0.7619
21.7000 7.2167 0.7656
21.7200 7.2233 0.7596
21.7400 7.2299 0.7644
21.7600 7.2366 0.7680
21.7800 7.2434 0.7562
21.8000 7.2501 0.7626
21.8200 7.2567 0.7652
21.8400 7.2634 0.7590
21.8600 7.2700 0.7617
21.8800 7.2767 0.7694
21.9000 7.2833 0.7528
21.9200 7.2899 0.7587
21.9400 7.2966 0.7713
21.9600 7.3033 0.7541
21.9800 7.3100 0.7557
22.0000 7.3167 0.7726
22.0200 7.3234 0.7472
22.0400 7.3300 0.7564
22.0600 7.3367 0.7685
22.0800 7.3433 0.7540
22.1000 7.3499 0.7604
22.1200 7.3566 0.7638
22.1400 7.3634 0.7533
22.1600 7.3701 0.7580
22.1800 7.3767 0.7662
22.2000 7.3834 0.7497
22.2200 7.3901 0.7600
22.2400 7.3967 0.7641
22.2600 7.4033 0.7466
22.2800 7.4100 0.7612
22.3000 7.4167 0.7643
22.3200 7.4234 0.7476
22.3400 7.4301 0.7570
22.3600 7.4367 0.7583
22.3800 7.4434 0.7574
22.4000 7.4501 0.7531
22.4200 7.4567 0.7580
22.4400 7.4633 0.7535
22.4600 7.4699 0.7565
22.4800 7.4766 0.7583
22.5000 7.4833 0.7507
22.5200 7.4900 0.7526
22.5400 7.4967 0.7644
22.5600 7.5034 0.7513
22.5800 7.5101 0.7483
22.6000 7.5167 0.7619
22.6200 7.5233 0.7540
22.6400 7.5299 0.7456
22.6600 7.5366 0.7650
22.6800 7.5433 0.7509
22.7000 7.5500 0.7448
22.7200 7.5567 0.7648
22.7400 7.5634 0.7439
22.7600 7.5701 0.7489
22.7800 7.5767 0.7620
22.8000 7.5833 0.7461
22.8200 7.5900 0.7509
22.8400 7.5967 0.7677
22.8600 7.6034 0.7399
22.8800 7.6100 0.7511
22.9000 7.6167 0.7596
22.9200 7.6234 0.7424
22.9400 7.6301 0.7516
22.9600 7.6368 0.7569
22.9800 7.6434 0.7380
23.0000 7.6500 0.7528
23.0200 7.6567 0.7592
23.0400 7.6634 0.7390
23.0600 7.6701 0.7488
23.0800 7.6767 0.7592
23.1000 7.6834 0.7423
23.1200 7.6901 0.7442
23.1400 7.6967 0.7551
23.1600 7.7033 0.7453
23.1800 7.7099 0.7456
23.2000 7.7166 0.7512
23.2200 7.7233 0.7468
23.2400 7.7301 0.7395
23.2600 7.7367 0.7541
23.2800 7.7434 0.7424
23.3000 7.7501 0.7420
23.3200 7.7567 0.7484
23.3400 7.7633 0.7462
23.3600 7.7699 0.7423
23.3800 7.7766 0.7502
23.4000 7.7833 0.7429
23.4200 7.7900 0.7390
23.4400 7.7967 0.7499
23.4600 7.8033 0.7415
23.4800 7.8100 0.7356
23.5000 7.8167 0.7501
23.5200 7.8233 0.7398
23.5400 7.8300 0.7369
23.5600 7.8367 0.7526
23.5800 7.8434 0.7342
23.6000 7.8501 0.7367
23.6200 7.8567 0.7516
23.6400 7.8634 0.7313
23.6600 7.8701 0.7337
23.6800 7.8768 0.7519
23.7000 7.8833 0.7327
23.7200 7.8900 0.7411
23.7400 7.8966 0.7472
23.7600 7.9034 0.7335
23.7800 7.9101 0.7405
23.8000 7.9168 0.7480
23.8200 7.9234 0.7353
23.8400 7.9301 0.7344
23.8600 7.9367 0.7451
23.8800 7.9433 0.7350
23.9000 7.9499 0.7402
23.9200 7.9566 0.7480
23.9400 7.9634 0.7334
23.9600 7.9701 0.7366
23.9800 7.9767 0.7430
24.0000 7.9834 0.7353
24.0200 7.9901 0.7386
24.0400 7.9967 0.7411
24.0600 8.0034 0.7360
24.0800 8.0100 0.7365
24.1000 8.0166 0.7450
24.1200 8.0233 0.7354
24.1400 8.0300 0.7314
24.1600 8.0367 0.7385
24.1800 8.0433 0.7381
24.2000 8.0500 0.7312
24.2200 8.0567 0.7402
24.2400 8.0633 0.7380
24.2600 8.0699 0.7328
24.2800 8.0766 0.7359
24.3000 8.0834 0.7381
24.3200 8.0901 0.7343
24.3400 8.0967 0.7398
24.3600 8.1034 0.7382
24.3800 8.1101 0.7273
24.4000 8.1167 0.7393
24.4200 8.1233 0.7393
24.4400 8.1300 0.7349
24.4600 8.1367 0.7359
24.4800 8.1434 0.7387
24.5000 8.1501 0.7272
24.5200 8.1568 0.7367
24.5400 8.1634 0.7409
24.5600 8.1701 0.7293
24.5800 8.1767 0.7370
24.6000 8.1833 0.7377
24.6200 8.1899 0.7286
24.6400 8.1966 0.7407
24.6600 8.2033 0.7355
24.6800 8.2100 0.7309
24.7000 8.2167 0.7359
24.7200 8.2234 0.7336
24.7400 8.2301 0.7317
24.7600 8.2367 0.7361
24.7800 8.2433 0.7300
24.8000 8.2499 0.7357
24.8200 8.2566 0.7391
24.8400 8.2633 0.7307
24.8600 8.2700 0.7362
24.8800 8.2767 0.7329
24.9000 8.2834 0.7335
24.9200 8.2901 0.7358
24.9400 8.2967 0.7304
24.9600 8.3033 0.7340
24.9800 8.3100 0.7378
25.0000 8.3166 0.7296
25.0200 8.3233 0.7340
25.0400 8.3300 0.7313
25.0600 8.3367 0.7347
25.0800 8.3434 0.7345
25.1000 8.3501 0.7308
25.1200 8.3568 0.7278
25.1400 8.3633 0.7379
25.1600 8.3700 0.7301
25.1800 8.3766 0.7281
25.2000 8.3833 0.7364
25.2200 8.3900 0.7267
25.2400 8.3967 0.7301
25.2600 8.4034 0.7325
25.2800 8.4101 0.7260
25.3000 8.4168 0.7290
25.3200 8.4234 0.7305
25.3400 8.4299 0.7277
25.3600 8.4366 0.7292
25.3800 8.4433 0.7311
25.4000 8.4500 0.7278
25.4200 8.4567 0.7225
25.4400 8.4634 0.7308
25.4600 8.4701 0.7280
25.4800 8.4767 0.7277
25.5000 8.4833 0.7210
25.5200 8.4899 0.7265
25.5400 8.4966 0.7263
25.5600 8.5033 0.7313
25.5800 8.5100 0.7250
25.6000 8.5166 0.7207
25.6200 8.5233 0.7312
25.6400 8.5300 0.7280
25.6600 8.5367 0.7173
25.6800 8.5433 0.7322
25.7000 8.5500 0.7304
25.7200 8.5566 0.7139
25.7400 8.5633 0.7313
25.7600 8.5700 0.7269
25.7800 8.5768 0.7165
25.8000 8.5834 0.7275
25.8200 8.5901 0.7227
25.8400 8.5968 0.7153
25.8600 8.6034 0.7309
25.8800 8.6100 0.7239
25.9000 8.6166 0.7136
25.9200 8.6234 0.7277
25.9400 8.6301 0.7187
25.9600 8.6368 0.7172
25.9800 8.6434 0.7266
26.0000 8.6501 0.7180
26.0200 8.6568 0.7200
26.0400 8.6634 0.7256
26.0600 8.6700 0.7206
26.0800 8.6766 0.7151
26.1000 8.6833 0.7238
26.1200 8.6900 0.7165
26.1400 8.6967 0.7134
26.1600 8.7034 0.7315
26.1800 8.7101 0.7189
26.2000 8.7167 0.7125
26.2200 8.7233 0.7221
26.2400 8.7299 0.7197
26.2600 8.7366 0.7151
26.2800 8.7433 0.7205
26.3000 8.7500 0.7182
26.3200 8.7567 0.7125
26.3400 8.7633 0.7173
26.3600 8.7700 0.7235
26.3800 8.7767 0.7081
26.4000 8.7833 0.7210
26.4200 8.7899 0.7242
26.4400 8.7966 0.7083
26.4600 8.8033 0.7140
26.4800 8.8101 0.7254
26.5000 8.8168 0.7091
26.5200 8.8234 0.7143
26.5400 8.8301 0.7217
26.5600 8.8368 0.7069
26.5800 8.8434 0.7116
26.6000 8.8500 0.7233
26.6200 8.8567 0.7094
26.6400 8.8633 0.7139
26.6600 8.8700 0.7230
26.6800 8.8767 0.7029
26.7000 8.8834 0.7175
26.7200 8.8901 0.7211
26.7400 8.8968 0.7082
26.7600 8.9034 0.7122
26.7800 8.9100 0.7208
26.8000 8.9166 0.7109
26.8200 8.9233 0.7148
26.8400 8.9300 0.7162
26.8600 8.9367 0.7100
26.8800 8.9434 0.7129
26.9000 8.9501 0.7156
26.9200 8.9567 0.7117
26.9400 8.9634 0.7088
26.9600 8.9699 0.7120
26.9800 8.9766 0.7109
27.0000 8.9833 0.7088
27.0200 8.9900 0.7143
27.0400 8.9967 0.7120
27.0600 9.0033 0.7093
27.0800 9.0100 0.7122
27.1000 9.0167 0.7120
27.1200 9.0234 0.7064
27.1400 9.0300 0.7124
27.1600 9.0366 0.7137
27.1800 9.0433 0.7023
27.2000 9.0500 0.7181
27.2200 9.0567 0.7136
27.2400 9.0634 0.7055
27.2600 9.0701 0.7120
27.2800 9.0768 0.7103
27.3000 9.0834 0.7036
27.3200 9.0900 0.7134
27.3400 9.0966 0.7157
27.3600 9.1033 0.7049
27.3800 9.1100 0.7122
27.4000 9.1167 0.7118
27.4200 9.1234 0.7037
27.4400 9.1301 0.7140
27.4600 9.1368 0.7087
27.4800 9.1434 0.7060
27.5000 9.1500 0.7147
27.5200 9.1566 0.7080
27.5400 9.1633 0.7042
27.5600 9.1700 0.7119
27.5800 9.1767 0.7092
27.6000 9.1834 0.7015
27.6200 9.1901 0.7105
27.6400 9.1967 0.7106
27.6600 9.2034 0.7030
27.6800 9.2100 0.7077
27.7000 9.2166 0.7151
27.7200 9.2233 0.7012
27.7400 9.2300 0.7121
27.7600 9.2367 0.7159
27.7800 9.2434 0.6960
27.8000 9.2500 0.7107
27.8200 9.2567 0.7130
27.8400 9.2634 0.6942
27.8600 9.2700 0.7115
27.8800 9.2766 0.7152
27.9000 9.2833 0.6919
27.9200 9.2900 0.7127
27.9400 9.2968 0.7121
27.9600 9.3034 0.6903
27.9800 9.3101 0.7150
28.0000 9.3168 0.7089
28.0200 9.3234 0.6890
28.0400 9.3300 0.7180
28.0600 9.3366 0.7069
28.0800 9.3433 0.6939
28.1000 9.3500 0.7103
28.1200 9.3567 0.7055
28.1400 9.3634 0.6893
28.1600 9.3701 0.7140
28.1800 9.3767 0.7020
28.2000 9.3834 0.6911
28.2200 9.3900 0.7098
28.2400 9.3966 0.6996
28.2600 9.4033 0.6954
28.2800 9.4100 0.7084
28.3000 9.4167 0.7008
28.3200 9.4234 0.6949
28.3400 9.4301 0.7033
28.3600 9.4367 0.6989
28.3800 9.4434 0.6936
28.4000 9.4500 0.7026
28.4200 9.4566 0.7062
28.4400 9.4633 0.6967
28.4600 9.4700 0.7027
28.4800 9.4767 0.7026
28.5000 9.4834 0.6916
28.5200 9.4900 0.7014
28.5400 9.4967 0.7081
28.5600 9.5034 0.6870
28.5800 9.5100 0.7001
28.6000 9.5166 0.7059
28.6200 9.5233 0.6931
28.6400 9.5300 0.6982
28.6600 9.5367 0.7034
28.6800 9.5434 0.6883
28.7000 9.5501 0.6997
28.7200 9.5568 0.7051
28.7400 9.5634 0.6868
28.7600 9.5700 0.7018
28.7800 9.5767 0.7028
28.8000 9.5833 0.6864
28.8200 9.5900 0.7044
28.8400 9.5967 0.7064
28.8600 9.6034 0.6840
28.8800 9.6101 0.6997
28.9000 9.6168 0.7048
28.9200 9.6234 0.6837
28.9400 9.6300 0.6994
28.9600 9.6366 0.7088
28.9800 9.6433 0.6824
29.0000 9.6500 0.7030
29.0200 9.6567 0.7019
29.0400 9.6633 0.6841
29.0600 9.6700 0.7003
29.0800 9.6767 0.7028
29.1000 9.6834 0.6830
29.1200 9.6900 0.6992
29.1400 9.6966 0.7049
29.1600 9.7033 0.6841
29.1800 9.7100 0.6970
29.2000 9.7167 0.7019
29.2200 9.7233 0.6825
29.2400 9.7300 0.6991
29.2600 9.7367 0.7016
29.2800 9.7434 0.6808
29.3000 9.7500 0.6994
29.3200 9.7567 0.6971
29.3400 9.7633 0.6849
29.3600 9.7700 0.6956
29.3800 9.7767 0.6971
29.4000 9.7834 0.6896
29.4200 9.7901 0.6961
29.4400 9.7968 0.6905
29.4600 9.8034 0.6895
29.4800 9.8100 0.6927
29.5000 9.8166 0.6993
29.5200 9.8233 0.6870
29.5400 9.8300 0.6932
29.5600 9.8367 0.6967
29.5800 9.8434 0.6857
29.6000 9.8501 0.6917
29.6200 9.8568 0.6969
29.6400 9.8634 0.6818
29.6600 9.8700 0.6907
29.6800 9.8766 0.6977
29.7000 9.8833 0.6788
29.7200 9.8900 0.6873
29.7400 9.8967 0.6992
29.7600 9.9034 0.6861
29.7800 9.9100 0.6874
29.8000 9.9167 0.6981
29.8200 9.9234 0.6818
29.8400 9.9300 0.6870
29.8600 9.9366 0.6974
29.8800 9.9432 0.6854
29.9000 9.9499 0.6877
29.9200 9.9566 0.6940
29.9400 9.9633 0.6790
29.9600 9.9700 0.6920
29.9800 9.9767 0.6923
30.0000 9.9833 0.6816
30.0200 9.9900 0.6892
30.0400 9.9966 0.6916
30.0600 10.0033 0.6856
30.0800 10.0100 0.6837
30.1000 10.0167 0.6880
30.1200 10.0234 0.6851
30.1400 10.0301 0.6858
30.1600 10.0368 0.6875
30.1800 10.0434 0.6866
30.2000 10.0501 0.6887
30.2200 10.0567 0.6840
30.2400 10.0633 0.6860
30.2600 10.0700 0.6886
30.2800 10.0767 0.6833
30.3000 10.0834 0.6878
30.3200 10.0901 0.6828
30.3400 10.0968 0.6851
30.3600 10.1034 0.6859
30.3800 10.1100 0.6840
30.4000 10.1166 0.6814
30.4200 10.1233 0.6877
30.4400 10.1300 0.6846
30.4600 10.1367 0.6839
30.4800 10.1433 0.6849
30.5000 10.1500 0.6824
30.5200 10.1567 0.6855
30.5400 10.1634 0.6816
30.5600 10.1700 0.6813
30.5800 10.1766 0.6898
30.6000 10.1833 0.6814
30.6200 10.1900 0.6780
30.6400 10.1967 0.6884
30.6600 10.2034 0.6779
30.6800 10.2100 0.6791
30.7000 10.2167 0.6852
30.7200 10.2234 0.6810
30.7400 10.2300 0.6768
30.7600 10.2367 0.6857
30.7800 10.2433 0.6783
30.8000 10.2500 0.6746
30.8200 10.2567 0.6847
30.8400 10.2634 0.6809
30.8600 10.2701 0.6773
30.8800 10.2768 0.6856
30.9000 10.2834 0.6765
30.9200 10.2901 0.6738
30.9400 10.2966 0.6871
30.9600 10.3033 0.6799
30.9800 10.3100 0.6724
31.0000 10.3167 0.6793
31.0200 10.3234 0.6802
31.0400 10.3301 0.6736
31.0600 10.3367 0.6811
31.0800 10.3434 0.6777
31.1000 10.3500 0.6722
31.1200 10.3566 0.6798
31.1400 10.3632 0.6845
31.1600 10.3700 0.6712
31.1800 10.3767 0.6808
31.2000 10.3834 0.6780
31.2200 10.3900 0.6712
31.2400 10.3967 0.6819
31.2600 10.4034 0.6785
31.2800 10.4100 0.6644
31.3000 10.4166 0.6787
31.3200 10.4233 0.6804
31.3400 10.4300 0.6611
31.3600 10.4367 0.6806
31.3800 10.4433 0.6772
31.4000 10.4500 0.6651
31.4200 10.4567 0.6798
31.4400 10.4634 0.6734
31.4600 10.4701 0.6609
31.4800 10.4766 0.6768
31.5000 10.4833 0.6794
31.5200 10.4900 0.6640
31.5400 10.4967 0.6756
31.5600 10.5034 0.6770
31.5800 10.5101 0.6576
31.6000 10.5168 0.6749
31.6200 10.5234 0.6741
31.6400 10.5301 0.6632
31.6600 10.5366 0.6719
31.6800 10.5433 0.6716
31.7000 10.5500 0.6630
31.7200 10.5567 0.6744
31.7400 10.5634 0.6711
31.7600 10.5701 0.6656
31.7800 10.5768 0.6657
31.8000 10.5834 0.6658
31.8200 10.5901 0.6675
31.8400 10.5967 0.6639
31.8600 10.6033 0.6700
31.8800 10.6100 0.6686
31.9000 10.6167 0.6596
31.9200 10.6234 0.6677
31.9400 10.6301 0.6711
31.9600 10.6367 0.6623
31.9800 10.6434 0.6681
32.0000 10.6500 0.6639
32.0200 10.6566 0.6596
32.0400 10.6632 0.6683
32.0600 10.6699 0.6686
32.0800 10.6767 0.6578
32.1000 10.6834 0.6731
32.1200 10.6900 0.6639
32.1400 10.6967 0.6570
32.1600 10.7034 0.6704
32.1800 10.7100 0.6674
32.2000 10.7167 0.6585
32.2200 10.7233 0.6683
32.2400 10.7300 0.6611
32.2600 10.7367 0.6574
32.2800 10.7434 0.6696
32.3000 10.7501 0.6593
32.3200 10.7568 0.6574
32.3400 10.7635 0.6720
32.3600 10.7701 0.6569
32.3800 10.7767 0.6556
32.4000 10.7833 0.6813
32.4200 10.7900 0.6580
32.4400 10.7967 0.6546
32.4600 10.8034 0.6712
32.4800 10.8101 0.6594
32.5000 10.8167 0.6583
32.5200 10.8234 0.6699
32.5400 10.8300 0.6565
32.5600 10.8366 0.6565
32.5800 10.8433 0.6710
32.6000 10.8500 0.6551
32.6200 10.8567 0.6598
32.6400 10.8634 0.6748
32.6600 10.8701 0.6531
32.6800 10.8767 0.6610
32.7000 10.8834 0.6639
32.7200 10.8900 0.6578
32.7400 10.8966 0.6642
32.7600 10.9033 0.6621
32.7800 10.9099 0.6613
32.8000 10.9167 0.6624
32.8200 10.9234 0.6605
32.8400 10.9300 0.6583
32.8600 10.9367 0.6624
32.8800 10.9434 0.6581
32.9000 10.9501 0.6584
32.9200 10.9567 0.6563
32.9400 10.9633 0.6616
32.9600 10.9700 0.6625
32.9800 10.9767 0.6562
33.0000 10.9834 0.6584
33.0200 10.9901 0.6618
33.0400 10.9968 0.6530
33.0600 11.0034 0.6606
33.0800 11.0101 0.6614
33.1000 11.0167 0.6524
33.1200 11.0233 0.6589
33.1400 11.0300 0.6577
33.1600 11.0367 0.6483
33.1800 11.0434 0.6610
33.2000 11.0501 0.6574
33.2200 11.0568 0.6460
33.2400 11.0635 0.6650
33.2600 11.0701 0.6560
33.2800 11.0767 0.6472
33.3000 11.0833 0.6610
33.3200 11.0899 0.6575
33.3400 11.0967 0.6494
33.3600 11.1033 0.6624
33.3800 11.1100 0.6509
33.4000 11.1167 0.6449
33.4200 11.1234 0.6635
33.4400 11.1301 0.6518
33.4600 11.1367 0.6476
33.4800 11.1433 0.6618
33.5000 11.1499 0.6488
33.5200 11.1566 0.6493
33.5400 11.1634 0.6590
33.5600 11.1700 0.6541
33.5800 11.1767 0.6472
33.6000 11.1834 0.6564
33.6200 11.1901 0.6489
33.6400 11.1967 0.6480
33.6600 11.2033 0.6615
33.6800 11.2100 0.6510
33.7000 11.2167 0.6499
33.7200 11.2234 0.6516
33.7400 11.2301 0.6506
33.7600 11.2368 0.6514
33.7800 11.2434 0.6506
33.8000 11.2501 0.6493
33.8200 11.2567 0.6507
33.8400 11.2633 0.6491
33.8600 11.2699 0.6552
33.8800 11.2767 0.6469
33.9000 11.2834 0.6481
33.9200 11.2900 0.6535
33.9400 11.2967 0.6454
33.9600 11.3034 0.6447
33.9800 11.3101 0.6561
34.0000 11.3167 0.6442
34.0200 11.3233 0.6458
34.0400 11.3299 0.6563
34.0600 11.3366 0.6434
34.0800 11.3433 0.6512
34.1000 11.3500 0.6479
34.1200 11.3567 0.6433
34.1400 11.3634 0.6478
34.1600 11.3701 0.6489
34.1800 11.3767 0.6415
34.2000 11.3833 0.6525
34.2200 11.3899 0.6472
34.2400 11.3966 0.6413
34.2600 11.4034 0.6471
34.2800 11.4100 0.6445
34.3000 11.4167 0.6434
34.3200 11.4234 0.6535
34.3400 11.4300 0.6393
34.3600 11.4366 0.6433
34.3800 11.4433 0.6514
34.4000 11.4499 0.6455
34.4200 11.4567 0.6447
34.4400 11.4634 0.6485
34.4600 11.4701 0.6413
34.4800 11.4768 0.6437
34.5000 11.4835 0.6448
34.5200 11.4901 0.6434
34.5400 11.4967 0.6469
34.5600 11.5033 0.6406
34.5800 11.5100 0.6392
34.6000 11.5167 0.6425
34.6200 11.5234 0.6474
34.6400 11.5301 0.6365
34.6600 11.5368 0.6458
34.6800 11.5434 0.6446
34.7000 11.5500 0.6409
34.7200 11.5566 0.6453
34.7400 11.5633 0.6433
34.7600 11.5699 0.6437
34.7800 11.5767 0.6443
34.8000 11.5834 0.6350
34.8200 11.5900 0.6449
34.8400 11.5967 0.6422
34.8600 11.6034 0.6411
34.8800 11.6100 0.6419
34.9000 11.6166 0.6418
34.9200 11.6233 0.6371
34.9400 11.6299 0.6435
34.9600 11.6366 0.6414
34.9800 11.6433 0.6339
35.0000 11.6500 0.6446
35.0200 11.6567 0.6370
35.0400 11.6634 0.6353
35.0600 11.6701 0.6408
35.0800 11.6767 0.6390
35.1000 11.6833 0.6385
35.1200 11.6900 0.6406
35.1400 11.6967 0.6350
35.1600 11.7034 0.6357
35.1800 11.7101 0.6383
35.2000 11.7167 0.6405
35.2200 11.7234 0.6307
35.2400 11.7301 0.6373
35.2600 11.7367 0.6428
35.2800 11.7433 0.6302
35.3000 11.7500 0.6318
35.3200 11.7567 0.6440
35.3400 11.7634 0.6345
35.3600 11.7701 0.6308
35.3800 11.7767 0.6436
35.4000 11.7834 0.6298
35.4200 11.7901 0.6313
35.4400 11.7968 0.6442
35.4600 11.8034 0.6259
35.4800 11.8100 0.6354
35.5000 11.8167 0.6441
35.5200 11.8233 0.6181
35.5400 11.8300 0.6343
35.5600 11.8367 0.6444
35.5800 11.8434 0.6246
35.6000 11.8501 0.6263
35.6200 11.8567 0.6396
35.6400 11.8633 0.6248
35.6600 11.8699 0.6366
35.6800 11.8766 0.6340
35.7000 11.8833 0.6215
35.7200 11.8900 0.6340
35.7400 11.8967 0.6337
35.7600 11.9034 0.6218
35.7800 11.9100 0.6365
35.8000 11.9167 0.6322
35.8200 11.9233 0.6232
35.8400 11.9299 0.6356
35.8600 11.9366 0.6326
35.8800 11.9434 0.6269
35.9000 11.9500 0.6314
35.9200 11.9567 0.6317
35.9400 11.9634 0.6311
35.9600 11.9701 0.6284
35.9800 11.9767 0.6272
36.0000 11.9833 0.6322
36.0200 11.9900 0.6292
36.0400 11.9966 0.6290
36.0600 12.0033 0.6276
36.0800 12.0100 0.6297
36.1000 12.0167 0.6289
36.1200 12.0234 0.6289
36.1400 12.0301 0.6261
36.1600 12.0367 0.6302
36.1800 12.0433 0.6257
36.2000 12.0499 0.6271
36.2200 12.0566 0.6289
36.2400 12.0634 0.6239
36.2600 12.0701 0.6249
36.2800 12.0767 0.6304
36.3000 12.0834 0.6238
36.3200 12.0901 0.6211
36.3400 12.0967 0.6363
36.3600 12.1033 0.6234
36.3800 12.1099 0.6219
36.4000 12.1166 0.6343
36.4200 12.1233 0.6246
36.4400 12.1300 0.6228
36.4600 12.1367 0.6348
36.4800 12.1434 0.6199
36.5000 12.1501 0.6184
36.5200 12.1567 0.6338
36.5400 12.1633 0.6229
36.5600 12.1700 0.6177
36.5800 12.1766 0.6365
36.6000 12.1833 0.6144
36.6200 12.1900 0.6174
36.6400 12.1967 0.6409
36.6600 12.2034 0.6150
36.6800 12.2101 0.6114
36.7000 12.2168 0.6389
36.7200 12.2234 0.6201
36.7400 12.2300 0.6092
36.7600 12.2367 0.6422
36.7800 12.2434 0.6158
36.8000 12.2501 0.6113
36.8200 12.2568 0.6361
36.8400 12.2634 0.6193
36.8600 12.2701 0.6133
36.8800 12.2767 0.6337
36.9000 12.2833 0.6185
36.9200 12.2899 0.6169
36.9400 12.2966 0.6286
36.9600 12.3033 0.6182
36.9800 12.3100 0.6148
37.0000 12.3167 0.6283
37.0200 12.3234 0.6181
37.0400 12.3301 0.6197
37.0600 12.3367 0.6225
37.0800 12.3433 0.6161
37.1000 12.3499 0.6208
37.1200 12.3566 0.6269
37.1400 12.3633 0.6150
37.1600 12.3700 0.6173
37.1800 12.3767 0.6227
37.2000 12.3834 0.6146
37.2200 12.3901 0.6150
37.2400 12.3967 0.6212
37.2600 12.4033 0.6201
37.2800 12.4099 0.6111
37.3000 12.4166 0.6213
37.3200 12.4233 0.6197
37.3400 12.4300 0.6103
37.3600 12.4367 0.6176
37.3800 12.4434 0.6223
37.4000 12.4501 0.6128
37.4200 12.4567 0.6138
37.4400 12.4633 0.6225
37.4600 12.4700 0.6146
37.4800 12.4766 0.6125
37.5000 12.4834 0.6170
37.5200 12.4901 0.6113
37.5400 12.4968 0.6155
37.5600 12.5034 0.6156
37.5800 12.5101 0.6099
37.6000 12.5168 0.6162
37.6200 12.5233 0.6126
37.6400 12.5299 0.6050
37.6600 12.5366 0.6160
37.6800 12.5433 0.6161
37.7000 12.5500 0.6052
37.7200 12.5567 0.6210
37.7400 12.5634 0.6124
37.7600 12.5701 0.6058
37.7800 12.5767 0.6180
37.8000 12.5833 0.6098
37.8200 12.5899 0.6079
37.8400 12.5966 0.6199
37.8600 12.6033 0.6016
37.8800 12.6100 0.6084
37.9000 12.6167 0.6172
37.9200 12.6233 0.6070
37.9400 12.6300 0.6110
37.9600 12.6367 0.6100
37.9800 12.6433 0.6025
38.0000 12.6500 0.6148
38.0200 12.6566 0.6148
38.0400 12.6633 0.5987
38.0600 12.6701 0.6120
38.0800 12.6767 0.6051
38.1000 12.6834 0.6049
38.1200 12.6901 0.6121
38.1400 12.6968 0.6018
38.1600 12.7033 0.6016
38.1800 12.7099 0.6161
38.2000 12.7166 0.6048
38.2200 12.7233 0.6054
38.2400 12.7300 0.6094
38.2600 12.7367 0.5996
38.2800 12.7434 0.6058
38.3000 12.7501 0.6120
38.3200 12.7568 0.5981
38.3400 12.7633 0.6080
38.3600 12.7699 0.6073
38.3800 12.7766 0.6007
38.4000 12.7833 0.6060
38.4200 12.7901 0.6036
38.4400 12.7967 0.6017
38.4600 12.8034 0.6022
38.4800 12.8101 0.6051
38.5000 12.8167 0.6032
38.5200 12.8234 0.6048
38.5400 12.8300 0.6025
38.5600 12.8366 0.6100
38.5800 12.8433 0.6016
38.6000 12.8500 0.6026
38.6200 12.8567 0.6036
38.6400 12.8633 0.6016
38.6600 12.8700 0.6024
38.6800 12.8767 0.6046
38.7000 12.8833 0.5973
38.7200 12.8899 0.6056
38.7400 12.8966 0.6043
38.7600 12.9033 0.5981
38.7800 12.9100 0.6039
38.8000 12.9167 0.6061
38.8200 12.9234 0.5927
38.8400 12.9301 0.6062
38.8600 12.9368 0.6058
38.8800 12.9433 0.5960
38.9000 12.9500 0.6097
38.9200 12.9566 0.6015
38.9400 12.9634 0.5957
38.9600 12.9701 0.6021
38.9800 12.9767 0.6029
39.0000 12.9834 0.5932
39.0200 12.9901 0.6028
39.0400 12.9967 0.5982
39.0600 13.0034 0.5947
39.0800 13.0100 0.6061
39.1000 13.0166 0.5971
39.1200 13.0233 0.5913
39.1400 13.0300 0.6064
39.1600 13.0367 0.5992
39.1800 13.0434 0.5982
39.2000 13.0501 0.6030
39.2200 13.0567 0.5981
39.2400 13.0633 0.5910
39.2600 13.0699 0.6035
39.2800 13.0766 0.5974
39.3000 13.0833 0.5923
39.3200 13.0900 0.5981
39.3400 13.0967 0.5953
39.3600 13.1034 0.5901
39.3800 13.1101 0.5994
39.4000 13.1167 0.5952
39.4200 13.1234 0.5910
39.4400 13.1300 0.6026
39.4600 13.1366 0.5949
39.4800 13.1434 0.5906
39.5000 13.1501 0.5996
39.5200 13.1567 0.5959
39.5400 13.1634 0.5860
39.5600 13.1701 0.5974
39.5800 13.1767 0.5909
39.6000 13.1834 0.5941
39.6200 13.1900 0.5967
39.6400 13.1966 0.5892
39.6600 13.2033 0.5897
39.6800 13.2100 0.5994
39.7000 13.2167 0.5835
39.7200 13.2234 0.5884
39.7400 13.2301 0.5958
39.7600 13.2367 0.5871
39.7800 13.2433 0.5900
39.8000 13.2499 0.5937
39.8200 13.2566 0.5897
39.8400 13.2633 0.5888
39.8600 13.2700 0.5919
39.8800 13.2767 0.5855
39.9000 13.2834 0.5923
39.9200 13.2901 0.5899
39.9400 13.2968 0.5831
39.9600 13.3034 0.5926
39.9800 13.3100 0.5909
40.0000 13.3166 0.5862
40.0200 13.3233 0.5908
40.0400 13.3300 0.5821
40.0600 13.3367 0.5913
40.0800 13.3433 0.5907
40.1000 13.3500 0.5867
40.1200 13.3567 0.5825
40.1400 13.3633 0.5851
40.1600 13.3700 0.5892
40.1800 13.3766 0.5849
40.2000 13.3833 0.5862
40.2200 13.3900 0.5866
40.2400 13.3967 0.5824
40.2600 13.4034 0.5814
40.2800 13.4102 0.5918
40.3000 13.4168 0.5874
40.3200 13.4234 0.5759
40.3400 13.4300 0.5914
40.3600 13.4366 0.5863
40.3800 13.4433 0.5805
40.4000 13.4501 0.5930
40.4200 13.4568 0.5792
40.4400 13.4634 0.5836
40.4600 13.4701 0.5887
40.4800 13.4767 0.5824
40.5000 13.4834 0.5809
40.5200 13.4900 0.5932
40.5400 13.4966 0.5830
40.5600 13.5033 0.5777
40.5800 13.5100 0.5888
40.6000 13.5167 0.5799
40.6200 13.5233 0.5837
40.6400 13.5300 0.5874
40.6600 13.5367 0.5782
40.6800 13.5433 0.5780
40.7000 13.5499 0.5906
40.7200 13.5566 0.5756
40.7400 13.5633 0.5764
40.7600 13.5700 0.5869
40.7800 13.5767 0.5772
40.8000 13.5834 0.5789
40.8200 13.5901 0.5858
40.8400 13.5967 0.5745
40.8600 13.6034 0.5825
40.8800 13.6100 0.5877
40.9000 13.6166 0.5671
40.9200 13.6233 0.5814
40.9400 13.6300 0.5927
40.9600 13.6367 0.5651
40.9800 13.6434 0.5770
41.0000 13.6501 0.5938
41.0200 13.6568 0.5703
41.0400 13.6634 0.5735
41.0600 13.6700 0.5815
41.0800 13.6767 0.5679
41.1000 13.6833 0.5801
41.1200 13.6900 0.5816
41.1400 13.6967 0.5604
41.1600 13.7034 0.5880
41.1800 13.7101 0.5870
41.2000 13.7168 0.5587
41.2200 13.7234 0.5758
41.2400 13.7300 0.5930
41.2600 13.7366 0.5674
41.2800 13.7433 0.5712
41.3000 13.7500 0.5823
41.3200 13.7567 0.5749
41.3400 13.7634 0.5779
41.3600 13.7701 0.5780
41.3800 13.7767 0.5650
41.4000 13.7834 0.5804
41.4200 13.7900 0.5810
41.4400 13.7966 0.5611
41.4600 13.8032 0.5735
41.4800 13.8099 0.5868
41.5000 13.8166 0.5662
41.5200 13.8233 0.5672
41.5400 13.8300 0.5814
41.5600 13.8368 0.5714
41.5800 13.8434 0.5686
41.6000 13.8500 0.5770
41.6200 13.8566 0.5706
41.6400 13.8633 0.5724
41.6600 13.8700 0.5780
41.6800 13.8767 0.5649
41.7000 13.8834 0.5735
41.7200 13.8901 0.5797
41.7400 13.8968 0.5613
41.7600 13.9034 0.5659
41.7800 13.9100 0.5833
41.8000 13.9166 0.5656
41.8200 13.9233 0.5678
41.8400 13.9300 0.5752
41.8600 13.9367 0.5594
41.8800 13.9434 0.5756
41.9000 13.9501 0.5764
41.9200 13.9568 0.5617
41.9400 13.9634 0.5700
41.9600 13.9700 0.5720
41.9800 13.9766 0.5685
42.0000 13.9833 0.5676
42.0200 13.9900 0.5693
42.0400 13.9967 0.5716
42.0600 14.0034 0.5697
42.0800 14.0100 0.5668
42.1000 14.0167 0.5668
42.1200 14.0234 0.5768
42.1400 14.0300 0.5641
42.1600 14.0366 0.5619
42.1800 14.0432 0.5708
42.2000 14.0499 0.5710
42.2200 14.0566 0.5630
42.2400 14.0633 0.5669
42.2600 14.0700 0.5672
42.2800 14.0767 0.5669
42.3000 14.0833 0.5658
42.3200 14.0900 0.5605
42.3400 14.0966 0.5673
42.3600 14.1033 0.5702
42.3800 14.1101 0.5583
42.4000 14.1168 0.5618
42.4200 14.1235 0.5673
42.4400 14.1301 0.5643
42.4600 14.1368 0.5625
42.4800 14.1434 0.5557
42.5000 14.1500 0.5647
42.5200 14.1567 0.5723
42.5400 14.1633 0.5531
42.5600 14.1701 0.5570
42.5800 14.1767 0.5713
42.6000 14.1834 0.5531
42.6200 14.1901 0.5557
42.6400 14.1967 0.5664
42.6600 14.2034 0.5595
42.6800 14.2100 0.5544
42.7000 14.2166 0.5630
42.7200 14.2233 0.5595
42.7400 14.2300 0.5605
42.7600 14.2367 0.5608
42.7800 14.2434 0.5547
42.8000 14.2501 0.5597
42.8200 14.2568 0.5574
42.8400 14.2634 0.5546
42.8600 14.2700 0.5577
42.8800 14.2766 0.5567
42.9000 14.2833 0.5597
42.9200 14.2900 0.5565
42.9400 14.2967 0.5485
42.9600 14.3034 0.5605
42.9800 14.3100 0.5509
43.0000 14.3167 0.5496
43.0200 14.3234 0.5578
43.0400 14.3300 0.5548
43.0600 14.3366 0.5532
43.0800 14.3433 0.5572
43.1000 14.3500 0.5503
43.1200 14.3567 0.5504
43.1400 14.3634 0.5530
43.1600 14.3701 0.5481
43.1800 14.3768 0.5518
43.2000 14.3835 0.5515
43.2200 14.3901 0.5491
43.2400 14.3967 0.5546
43.2600 14.4033 0.5528
43.2800 14.4100 0.5488
43.3000 14.4167 0.5506
43.3200 14.4234 0.5485
43.3400 14.4301 0.5528
43.3600 14.4368 0.5533
43.3800 14.4434 0.5472
43.4000 14.4500 0.5423
43.4200 14.4566 0.5543
43.4400 14.4633 0.5504
43.4600 14.4700 0.5453
43.4800 14.4767 0.5453
43.5000 14.4833 0.5489
43.5200 14.4900 0.5461
43.5400 14.4967 0.5458
43.5600 14.5034 0.5456
43.5800 14.5100 0.5492
43.6000 14.5166 0.5480
43.6200 14.5233 0.5476
43.6400 14.5300 0.5398
43.6600 14.5367 0.5493
43.6800 14.5433 0.5458
43.7000 14.5500 0.5392
43.7200 14.5567 0.5492
43.7400 14.5634 0.5460
43.7600 14.5700 0.5380
43.7800 14.5766 0.5484
43.8000 14.5833 0.5475
43.8200 14.5900 0.5363
43.8400 14.5967 0.5518
43.8600 14.6034 0.5412
43.8800 14.6100 0.5388
43.9000 14.6167 0.5516
43.9200 14.6234 0.5406
43.9400 14.6300 0.5344
43.9600 14.6366 0.5524
43.9800 14.6433 0.5434
44.0000 14.6500 0.5403
44.0200 14.6567 0.5476
44.0400 14.6634 0.5402
44.0600 14.6701 0.5422
44.0800 14.6767 0.5512
44.1000 14.6834 0.5321
44.1200 14.6900 0.5407
44.1400 14.6966 0.5520
44.1600 14.7033 0.5354
44.1800 14.7100 0.5410
44.2000 14.7167 0.5500
44.2200 14.7234 0.5354
44.2400 14.7301 0.5372
44.2600 14.7368 0.5532
44.2800 14.7434 0.5320
44.3000 14.7500 0.5349
44.3200 14.7566 0.5502
44.3400 14.7632 0.5395
44.3600 14.7699 0.5378
44.3800 14.7766 0.5452
44.4000 14.7834 0.5380
44.4200 14.7900 0.5374
44.4400 14.7967 0.5410
44.4600 14.8033 0.5387
44.4800 14.8100 0.5392
44.5000 14.8166 0.5447
44.5200 14.8233 0.5363
44.5400 14.8300 0.5355
44.5600 14.8367 0.5403
44.5800 14.8434 0.5372
44.6000 14.8501 0.5344
44.6200 14.8568 0.5386
44.6400 14.8634 0.5440
44.6600 14.8701 0.5282
44.6800 14.8767 0.5371
44.7000 14.8833 0.5443
44.7200 14.8900 0.5277
44.7400 14.8967 0.5334
44.7600 14.9034 0.5515
44.7800 14.9101 0.5243
44.8000 14.9168 0.5298
44.8200 14.9235 0.5484
44.8400 14.9301 0.5228
44.8600 14.9366 0.5323
44.8800 14.9432 0.5492
44.9000 14.9499 0.5180
44.9200 14.9567 0.5396
44.9400 14.9633 0.5478
44.9600 14.9700 0.5143
44.9800 14.9767 0.5386
45.0000 14.9834 0.5479
45.0200 14.9900 0.5194
45.0400 14.9966 0.5352
45.0600 15.0033 0.5476
45.0800 15.0100 0.5154
45.1000 15.0167 0.5383
45.1200 15.0234 0.5405
45.1400 15.0300 0.5196
45.1600 15.0367 0.5421
45.1800 15.0434 0.5360
45.2000 15.0500 0.5172
45.2200 15.0567 0.5430
45.2400 15.0633 0.5337
45.2600 15.0700 0.5249
45.2800 15.0767 0.5427
45.3000 15.0834 0.5261
45.3200 15.0901 0.5279
45.3400 15.0968 0.5443
45.3600 15.1035 0.5202
45.3800 15.1101 0.5286
45.4000 15.1167 0.5385
45.4200 15.1233 0.5246
45.4400 15.1300 0.5329
45.4600 15.1367 0.5301
45.4800 15.1434 0.5239
45.5000 15.1501 0.5320
45.5200 15.1567 0.5332
45.5400 15.1634 0.5228
45.5600 15.1700 0.5337
45.5800 15.1766 0.5267
45.6000 15.1833 0.5313
45.6200 15.1900 0.5272
45.6400 15.1967 0.5253
45.6600 15.2034 0.5350
45.6800 15.2101 0.5246
45.7000 15.2167 0.5207
45.7200 15.2234 0.5385
45.7400 15.2301 0.5220
45.7600 15.2367 0.5247
45.7800 15.2433 0.5332
45.8000 15.2500 0.5159
45.8200 15.2566 0.5241
45.8400 15.2633 0.5390
45.8600 15.2700 0.5145
45.8800 15.2767 0.5254
45.9000 15.2834 0.5281
45.9200 15.2901 0.5122
45.9400 15.2967 0.5333
45.9600 15.3033 0.5269
45.9800 15.3100 0.5122
46.0000 15.3167 0.5337
46.0200 15.3234 0.5242
46.0400 15.3301 0.5085
46.0600 15.3368 0.5338
46.0800 15.3434 0.5206
46.1000 15.3501 0.5125
46.1200 15.3567 0.5255
46.1400 15.3633 0.5222
46.1600 15.3700 0.5196
46.1800 15.3767 0.5226
46.2000 15.3834 0.5164
46.2200 15.3901 0.5202
46.2400 15.3968 0.5192
46.2600 15.4034 0.5163
46.2800 15.4101 0.5202
46.3000 15.4167 0.5174
46.3200 15.4233 0.5144
46.3400 15.4299 0.5128
46.3600 15.4367 0.5196
46.3800 15.4434 0.5218
46.4000 15.4501 0.5150
46.4200 15.4568 0.5099
46.4400 15.4634 0.5253
46.4600 15.4700 0.5152
46.4800 15.4766 0.5136
46.5000 15.4832 0.5273
46.5200 15.4899 0.5090
46.5400 15.4966 0.5127
46.5600 15.5034 0.5292
46.5800 15.5100 0.5094
46.6000 15.5167 0.5153
46.6200 15.5234 0.5179
46.6400 15.5300 0.5075
46.6600 15.5366 0.5230
46.6800 15.5433 0.5175
46.7000 15.5500 0.4977
46.7200 15.5567 0.5246
46.7400 15.5634 0.5200
46.7600 15.5700 0.5035
46.7800 15.5768 0.5173
46.8000 15.5835 0.5097
46.8200 15.5901 0.5110
46.8400 15.5967 0.5176
46.8600 15.6033 0.5088
46.8800 15.6100 0.5074
46.9000 15.6167 0.5231
46.9200 15.6234 0.5063
46.9400 15.6301 0.5064
46.9600 15.6368 0.5143
46.9800 15.6434 0.5054
47.0000 15.6501 0.5043
47.0200 15.6566 0.5110
47.0400 15.6633 0.5101
47.0600 15.6699 0.5069
47.0800 15.6767 0.5041
47.1000 15.6834 0.5103
47.1200 15.6900 0.5097
47.1400 15.6967 0.5077
47.1600 15.7034 0.5058
47.1800 15.7100 0.5094
47.2000 15.7167 0.5000
47.2200 15.7233 0.5042
47.2400 15.7300 0.5126
47.2600 15.7367 0.5010
47.2800 15.7434 0.5000
47.3000 15.7500 0.5094
47.3200 15.7567 0.5054
47.3400 15.7634 0.4974
47.3600 15.7701 0.5094
47.3800 15.7767 0.4961
47.4000 15.7833 0.4972
47.4200 15.7900 0.5096
47.4400 15.7967 0.4933
47.4600 15.8034 0.4954
47.4800 15.8101 0.5126
47.5000 15.8167 0.4949
47.5200 15.8234 0.4957
47.5400 15.8301 0.5055
47.5600 15.8367 0.4966
47.5800 15.8433 0.4993
47.6000 15.8500 0.5087
47.6200 15.8567 0.4916
47.6400 15.8634 0.5014
47.6600 15.8701 0.5069
47.6800 15.8768 0.4895
47.7000 15.8834 0.4989
47.7200 15.8901 0.5057
47.7400 15.8967 0.4921
47.7600 15.9033 0.4930
47.7800 15.9100 0.5036
47.8000 15.9167 0.4964
47.8200 15.9234 0.4952
47.8400 15.9300 0.4944
47.8600 15.9367 0.5023
47.8800 15.9434 0.4935
47.9000 15.9501 0.4968
47.9200 15.9567 0.4933
47.9400 15.9632 0.4968
47.9600 15.9699 0.5043
47.9800 15.9766 0.4928
48.0000 15.9834 0.4887
48.0200 15.9901 0.5078
48.0400 15.9967 0.4931
48.0600 16.0034 0.4887
48.0800 16.0101 0.5007
48.1000 16.0167 0.4901
48.1200 16.0233 0.4920
48.1400 16.0300 0.5047
48.1600 16.0367 0.4890
48.1800 16.0434 0.4911
48.2000 16.0501 0.5080
48.2200 16.0568 0.4872
48.2400 16.0634 0.4936
48.2600 16.0701 0.4974
48.2800 16.0767 0.4870
48.3000 16.0833 0.4946
48.3200 16.0899 0.4962
48.3400 16.0967 0.4899
48.3600 16.1034 0.4983
48.3800 16.1101 0.4914
48.4000 16.1168 0.4896
48.4200 16.1234 0.5052
48.4400 16.1301 0.4885
48.4600 16.1367 0.4813
48.4800 16.1433 0.5011
48.5000 16.1499 0.4945
48.5200 16.1566 0.4898
48.5400 16.1633 0.4958
48.5600 16.1700 0.4893
48.5800 16.1767 0.4884
48.6000 16.1834 0.4893
48.6200 16.1901 0.4954
48.6400 16.1967 0.4912
48.6600 16.2033 0.4875
48.6800 16.2099 0.4892
48.7000 16.2166 0.4983
48.7200 16.2233 0.4862
48.7400 16.2300 0.4925
48.7600 16.2367 0.4939
48.7800 16.2434 0.4875
48.8000 16.2500 0.4852
48.8200 16.2567 0.4998
48.8400 16.2633 0.4898
48.8600 16.2700 0.4809
48.8800 16.2767 0.4976
48.9000 16.2833 0.4907
48.9200 16.2900 0.4867
48.9400 16.2967 0.4956
48.9600 16.3034 0.4870
48.9800 16.3101 0.4850
49.0000 16.3167 0.4963
49.0200 16.3233 0.4859
49.0400 16.3300 0.4903
49.0600 16.3367 0.4924
49.0800 16.3434 0.4802
49.1000 16.3501 0.4905
49.1200 16.3568 0.4928
49.1400 16.3634 0.4807
49.1600 16.3701 0.4897
49.1800 16.3767 0.4891
49.2000 16.3833 0.4815
49.2200 16.3899 0.4944
49.2400 16.3966 0.4918
49.2600 16.4033 0.4770
49.2800 16.4100 0.4928
49.3000 16.4167 0.4927
49.3200 16.4234 0.4834
49.3400 16.4300 0.4892
49.3600 16.4367 0.4849
49.3800 16.4433 0.4829
49.4000 16.4499 0.4902
49.4200 16.4566 0.4831
49.4400 16.4633 0.4864
49.4600 16.4700 0.4921
49.4800 16.4767 0.4716
49.5000 16.4834 0.4854
49.5200 16.4901 0.4871
49.5400 16.4967 0.4795
49.5600 16.5033 0.4823
49.5800 16.5099 0.4841
49.6000 16.5166 0.4798
49.6200 16.5234 0.4817
49.6400 16.5301 0.4844
49.6600 16.5368 0.4748
49.6800 16.5434 0.4785
49.7000 16.5501 0.4863
49.7200 16.5567 0.4747
49.7400 16.5633 0.4810
49.7600 16.5699 0.4839
49.7800 16.5766 0.4785
49.8000 16.5834 0.4782
49.8200 16.5901 0.4803
49.8400 16.5967 0.4794
49.8600 16.6034 0.4739
49.8800 16.6101 0.4772
49.9000 16.6168 0.4769
49.9200 16.6234 0.4762
49.9400 16.6300 0.4735
49.9600 16.6367 0.4762
49.9800 16.6434 0.4768
50.0000 16.6500 0.4758
50.0200 16.6567 0.4737
50.0400 16.6634 0.4757
50.0600 16.6701 0.4721
50.0800 16.6767 0.4763
50.1000 16.6833 0.4699
50.1200 16.6899 0.4753
50.1400 16.6966 0.4731
50.1600 16.7033 0.4712
50.1800 16.7100 0.4715
50.2000 16.7167 0.4692
50.2200 16.7234 0.4741
50.2400 16.7301 0.4667
50.2600 16.7367 0.4726
50.2800 16.7433 0.4724
50.3000 16.7499 0.4623
50.3200 16.7566 0.4762
50.3400 16.7633 0.4708
50.3600 16.7700 0.4633
50.3800 16.7767 0.4753
50.4000 16.7834 0.4674
50.4200 16.7901 0.4618
50.4400 16.7967 0.4699
50.4600 16.8033 0.4682
50.4800 16.8100 0.4623
50.5000 16.8167 0.4743
50.5200 16.8234 0.4624
50.5400 16.8301 0.4605
50.5600 16.8367 0.4707
50.5800 16.8434 0.4614
50.6000 16.8501 0.4649
50.6200 16.8567 0.4642
50.6400 16.8633 0.4589
50.6600 16.8699 0.4690
50.6800 16.8766 0.4621
50.7000 16.8834 0.4581
50.7200 16.8901 0.4680
50.7400 16.8967 0.4646
50.7600 16.9034 0.4596
50.7800 16.9101 0.4615
50.8000 16.9167 0.4602
50.8200 16.9233 0.4611
50.8400 16.9299 0.4662
50.8600 16.9366 0.4558
50.8800 16.9433 0.4665
50.9000 16.9500 0.4609
50.9200 16.9566 0.4527
50.9400 16.9633 0.4656
50.9600 16.9700 0.4606
50.9800 16.9767 0.4526
51.0000 16.9833 0.4640
51.0200 16.9899 0.4569
51.0400 16.9966 0.4560
51.0600 17.0033 0.4612
51.0800 17.0100 0.4565
51.1000 17.0167 0.4511
51.1200 17.0234 0.4644
51.1400 17.0301 0.4511
51.1600 17.0368 0.4499
51.1800 17.0433 0.4669
51.2000 17.0500 0.4481
51.2200 17.0566 0.4588
51.2400 17.0633 0.4602
51.2600 17.0700 0.4452
51.2800 17.0767 0.4597
51.3000 17.0834 0.4641
51.3200 17.0901 0.4437
51.3400 17.0967 0.4571
51.3600 17.1033 0.4607
51.3800 17.1099 0.4465
51.4000 17.1166 0.4572
51.4200 17.1233 0.4610
51.4400 17.1300 0.4415
51.4600 17.1367 0.4596
51.4800 17.1434 0.4524
51.5000 17.1501 0.4411
51.5200 17.1567 0.4666
51.5400 17.1633 0.4466
51.5600 17.1699 0.4443
51.5800 17.1766 0.4633
51.6000 17.1833 0.4492
51.6200 17.1900 0.4491
51.6400 17.1967 0.4621
51.6600 17.2034 0.4395
51.6800 17.2101 0.4505
51.7000 17.2167 0.4629
51.7200 17.2233 0.4402
51.7400 17.2299 0.4509
51.7600 17.2366 0.4644
51.7800 17.2433 0.4371
51.8000 17.2500 0.4540
51.8200 17.2567 0.4577
51.8400 17.2634 0.4405
51.8600 17.2701 0.4539
51.8800 17.2768 0.4537
51.9000 17.2834 0.4456
51.9200 17.2900 0.4517
51.9400 17.2967 0.4482
51.9600 17.3034 0.4485
51.9800 17.3101 0.4584
52.0000 17.3168 0.4429
52.0200 17.3234 0.4445
52.0400 17.3301 0.4567
52.0600 17.3367 0.4438
52.0800 17.3433 0.4448
52.1000 17.3499 0.4563
52.1200 17.3566 0.4436
52.1400 17.3633 0.4526
52.1600 17.3700 0.4459
52.1800 17.3767 0.4430
52.2000 17.3834 0.4544
52.2200 17.3901 0.4424
52.2400 17.3967 0.4373
52.2600 17.4033 0.4546
52.2800 17.4099 0.4430
52.3000 17.4166 0.4408
52.3200 17.4233 0.4545
52.3400 17.4300 0.4370
52.3600 17.4367 0.4415
52.3800 17.4433 0.4590
52.4000 17.4500 0.4364
52.4200 17.4567 0.4405
52.4400 17.4633 0.4524
52.4600 17.4700 0.4385
52.4800 17.4766 0.4461
52.5000 17.4833 0.4500
52.5200 17.4900 0.4390
52.5400 17.4967 0.4464
52.5600 17.5034 0.4496
52.5800 17.5101 0.4352
52.6000 17.5168 0.4450
52.6200 17.5234 0.4475
52.6400 17.5300 0.4404
52.6600 17.5366 0.4439
52.6800 17.5433 0.4491
52.7000 17.5501 0.4374
52.7200 17.5568 0.4437
52.7400 17.5634 0.4496
52.7600 17.5701 0.4382
52.7800 17.5768 0.4402
52.8000 17.5833 0.4469
52.8200 17.5899 0.4369
52.8400 17.5966 0.4450
52.8600 17.6033 0.4493
52.8800 17.6100 0.4314
52.9000 17.6167 0.4444
52.9200 17.6234 0.4426
52.9400 17.6301 0.4330
52.9600 17.6367 0.4432
52.9800 17.6434 0.4454
53.0000 17.6500 0.4217
53.0200 17.6566 0.4468
53.0400 17.6633 0.4441
53.0600 17.6700 0.4247
53.0800 17.6767 0.4474
53.1000 17.6833 0.4381
53.1200 17.6900 0.4216
53.1400 17.6967 0.4469
53.1600 17.7033 0.4323
53.1800 17.7099 0.4271
53.2000 17.7166 0.4440
53.2200 17.7233 0.4309
53.2400 17.7300 0.4302
53.2600 17.7367 0.4367
53.2800 17.7434 0.4285
53.3000 17.7501 0.4331
53.3200 17.7568 0.4356
53.3400 17.7634 0.4256
53.3600 17.7700 0.4352
53.3800 17.7766 0.4321
53.4000 17.7834 0.4227
53.4200 17.7901 0.4341
53.4400 17.7968 0.4238
53.4600 17.8034 0.4214
53.4800 17.8101 0.4371
53.5000 17.8167 0.4180
53.5200 17.8234 0.4254
53.5400 17.8300 0.4321
53.5600 17.8366 0.4194
53.5800 17.8433 0.4254
53.6000 17.8500 0.4310
53.6200 17.8567 0.4143
53.6400 17.8634 0.4240
53.6600 17.8700 0.4305
53.6800 17.8767 0.4115
53.7000 17.8833 0.4259
53.7200 17.8899 0.4274
53.7400 17.8966 0.4120
53.7600 17.9033 0.4253
53.7800 17.9100 0.4264
53.8000 17.9167 0.4148
53.8200 17.9234 0.4239
53.8400 17.9300 0.4180
53.8600 17.9367 0.4147
53.8800 17.9434 0.4249
53.9000 17.9500 0.4184
53.9200 17.9566 0.4165
53.9400 17.9633 0.4264
53.9600 17.9700 0.4131
53.9800 17.9767 0.4200
54.0000 17.9834 0.4241
54.0200 17.9901 0.4090
54.0400 17.9968 0.4176
54.0600 18.0034 0.4221
54.0800 18.0100 0.4143
54.1000 18.0166 0.4220
54.1200 18.0233 0.4199
54.1400 18.0300 0.4164
54.1600 18.0367 0.4193
54.1800 18.0434 0.4112
54.2000 18.0501 0.4219
54.2200 18.0568 0.4182
54.2400 18.0634 0.4040
54.2600 18.0700 0.4208
54.2800 18.0766 0.4218
54.3000 18.0833 0.4072
54.3200 18.0900 0.4242
54.3400 18.0967 0.4141
54.3600 18.1034 0.4062
54.3800 18.1101 0.4179
54.4000 18.1167 0.4167
54.4200 18.1234 0.4086
54.4400 18.1300 0.4197
54.4600 18.1366 0.4100
54.4800 18.1433 0.4086
54.5000 18.1500 0.4212
54.5200 18.1567 0.4068
54.5400 18.1633 0.4151
54.5600 18.1700 0.4157
54.5800 18.1767 0.4016
54.6000 18.1833 0.4154
54.6200 18.1900 0.4186
54.6400 18.1966 0.4039
54.6600 18.2033 0.4174
54.6800 18.2100 0.4164
54.7000 18.2167 0.4004
54.7200 18.2234 0.4204
54.7400 18.2301 0.4159
54.7600 18.2368 0.3952
54.7800 18.2434 0.4201
54.8000 18.2500 0.4132
54.8200 18.2566 0.4077
54.8400 18.2633 0.4150
54.8600 18.2700 0.4111
54.8800 18.2768 0.4049
54.9000 18.2834 0.4169
54.9200 18.2901 0.4106
54.9400 18.2968 0.4027
54.9600 18.3034 0.4101
54.9800 18.3100 0.4070
55.0000 18.3166 0.4042
55.0200 18.3233 0.4139
55.0400 18.3300 0.4067
55.0600 18.3367 0.4057
55.0800 18.3434 0.4101
55.1000 18.3501 0.4020
55.1200 18.3567 0.4111
55.1400 18.3633 0.4075
55.1600 18.3699 0.4080
55.1800 18.3766 0.4049
55.2000 18.3832 0.4066
55.2200 18.3900 0.4022
55.2400 18.3967 0.4101
55.2600 18.4033 0.4057
55.2800 18.4100 0.4089
55.3000 18.4167 0.4047
55.3200 18.4233 0.4039
55.3400 18.4300 0.4081
55.3600 18.4366 0.4056
55.3800 18.4433 0.3988
55.4000 18.4500 0.4097
55.4200 18.4567 0.3994
55.4400 18.4634 0.3969
55.4600 18.4701 0.4093
55.4800 18.4768 0.3979
55.5000 18.4834 0.3959
55.5200 18.4900 0.4089
55.5400 18.4967 0.3996
55.5600 18.5033 0.3972
55.5800 18.5100 0.4082
55.6000 18.5167 0.3980
55.6200 18.5234 0.3982
55.6400 18.5301 0.4055
55.6600 18.5368 0.3985
55.6800 18.5434 0.3999
55.7000 18.5500 0.4009
55.7200 18.5566 0.3973
55.7400 18.5633 0.4010
55.7600 18.5700 0.3991
55.7800 18.5767 0.3977
55.8000 18.5834 0.3943
55.8200 18.5901 0.3986
55.8400 18.5967 0.3955
55.8600 18.6034 0.3946
55.8800 18.6100 0.3970
55.9000 18.6166 0.3932
55.9200 18.6233 0.3915
55.9400 18.6300 0.3989
55.9600 18.6367 0.3904
55.9800 18.6434 0.3871
56.0000 18.6500 0.4001
56.0200 18.6567 0.3919
56.0400 18.6634 0.3895
56.0600 18.6700 0.3938
56.0800 18.6766 0.3911
56.1000 18.6833 0.3859
56.1200 18.6900 0.4024
56.1400 18.6967 0.3867
56.1600 18.7034 0.3814
56.1800 18.7101 0.3954
56.2000 18.7168 0.3848
56.2200 18.7234 0.3863
56.2400 18.7300 0.3971
56.2600 18.7366 0.3821
56.2800 18.7433 0.3900
56.3000 18.7500 0.3937
56.3200 18.7567 0.3816
56.3400 18.7634 0.3863
56.3600 18.7701 0.3935
56.3800 18.7768 0.3736
56.4000 18.7834 0.3855
56.4200 18.7900 0.3977
56.4400 18.7966 0.3744
56.4600 18.8033 0.3898
56.4800 18.8100 0.3851
56.5000 18.8167 0.3785
56.5200 18.8234 0.3898
56.5400 18.8300 0.3871
56.5600 18.8367 0.3752
56.5800 18.8434 0.3843
56.6000 18.8500 0.3809
56.6200 18.8566 0.3767
56.6400 18.8632 0.3880
56.6600 18.8699 0.3796
56.6800 18.8767 0.3714
56.7000 18.8833 0.3886
56.7200 18.8900 0.3804
56.7400 18.8967 0.3739
56.7600 18.9034 0.3799
56.7800 18.9100 0.3796
56.8000 18.9166 0.3734
56.8200 18.9233 0.3802
56.8400 18.9300 0.3769
56.8600 18.9367 0.3689
56.8800 18.9434 0.3803
56.9000 18.9501 0.3817
56.9200 18.9568 0.3680
56.9400 18.9634 0.3718
56.9600 18.9700 0.3799
56.9800 18.9766 0.3720
57.0000 18.9833 0.3743
57.0200 18.9900 0.3739
57.0400 18.9967 0.3710
57.0600 19.0034 0.3718
57.0800 19.0101 0.3765
57.1000 19.0167 0.3683
57.1200 19.0234 0.3757
57.1400 19.0300 0.3744
57.1600 19.0366 0.3663
57.1800 19.0433 0.3752
57.2000 19.0500 0.3774
57.2200 19.0567 0.3635
57.2400 19.0634 0.3697
57.2600 19.0700 0.3723
57.2800 19.0767 0.3660
57.3000 19.0834 0.3716
57.3200 19.0900 0.3695
57.3400 19.0966 0.3671
57.3600 19.1033 0.3717
57.3800 19.1100 0.3703
57.4000 19.1167 0.3655
57.4200 19.1234 0.3723
57.4400 19.1300 0.3649
57.4600 19.1367 0.3681
57.4800 19.1434 0.3693
57.5000 19.1500 0.3704
57.5200 19.1566 0.3625
57.5400 19.1633 0.3664
57.5600 19.1700 0.3663
57.5800 19.1767 0.3664
57.6000 19.1834 0.3693
57.6200 19.1901 0.3596
57.6400 19.1968 0.3646
57.6600 19.2034 0.3688
57.6800 19.2101 0.3608
57.7000 19.2167 0.3682
57.7200 19.2233 0.3649
57.7400 19.2300 0.3639
57.7600 19.2367 0.3618
57.7800 19.2434 0.3642
57.8000 19.2501 0.3637
57.8200 19.2568 0.3611
57.8400 19.2634 0.3645
57.8600 19.2700 0.3606
57.8800 19.2766 0.3667
57.9000 19.2833 0.3628
57.9200 19.2900 0.3576
57.9400 19.2967 0.3606
57.9600 19.3033 0.3593
57.9800 19.3100 0.3599
58.0000 19.3167 0.3685
58.0200 19.3234 0.3493
58.0400 19.3300 0.3561
58.0600 19.3366 0.3673
58.0800 19.3433 0.3560
58.1000 19.3499 0.3556
58.1200 19.3567 0.3593
58.1400 19.3633 0.3525
58.1600 19.3700 0.3583
58.1800 19.3767 0.3587
58.2000 19.3834 0.3573
58.2200 19.3900 0.3561
58.2400 19.3967 0.3526
58.2600 19.4033 0.3582
58.2800 19.4100 0.3533
58.3000 19.4167 0.3537
58.3200 19.4234 0.3534
58.3400 19.4301 0.3526
58.3600 19.4368 0.3530
58.3800 19.4434 0.3544
58.4000 19.4501 0.3480
58.4200 19.4566 0.3528
58.4400 19.4633 0.3587
58.4600 19.4700 0.3503
58.4800 19.4767 0.3458
58.5000 19.4834 0.3575
58.5200 19.4901 0.3427
58.5400 19.4967 0.3506
58.5600 19.5034 0.3552
58.5800 19.5100 0.3402
58.6000 19.5166 0.3498
58.6200 19.5233 0.3544
58.6400 19.5300 0.3422
58.6600 19.5367 0.3474
58.6800 19.5434 0.3507
58.7000 19.5500 0.3360
58.7200 19.5567 0.3478
58.7400 19.5634 0.3471
58.7600 19.5700 0.3340
58.7800 19.5766 0.3490
58.8000 19.5832 0.3416
58.8200 19.5899 0.3323
58.8400 19.5967 0.3532
58.8600 19.6033 0.3350
58.8800 19.6100 0.3344
58.9000 19.6167 0.3433
58.9200 19.6234 0.3347
58.9400 19.6300 0.3354
58.9600 19.6366 0.3444
58.9800 19.6433 0.3320
59.0000 19.6500 0.3305
59.0200 19.6567 0.3457
59.0400 19.6634 0.3283
59.0600 19.6701 0.3345
59.0800 19.6768 0.3400
59.1000 19.6834 0.3226
59.1200 19.6901 0.3346
59.1400 19.6967 0.3371
59.1600 19.7033 0.3267
59.1800 19.7100 0.3332
59.2000 19.7167 0.3312
59.2200 19.7234 0.3249
59.2400 19.7301 0.3277
59.2600 19.7367 0.3299
59.2800 19.7434 0.3209
59.3000 19.7500 0.3182
59.3010 19.7503 0.3171
