Raw Data
Time Displacement Force
(s) (mm) (N)
0.0000 0.0000 -0.0560
0.0200 0.0000 -0.0491
0.0400 0.0008 0.0014
0.0600 0.0040 0.0201
0.0800 0.0095 -0.0149
0.1000 0.0153 -0.0221
0.1200 0.0212 0.0041
0.1400 0.0278 0.0160
0.1600 0.0351 0.0020
0.1800 0.0425 0.0154
0.2000 0.0497 0.0339
0.2200 0.0566 0.0494
0.2400 0.0633 0.0718
0.2600 0.0699 0.0917
0.2800 0.0766 0.1122
0.3000 0.0833 0.1411
0.3200 0.0900 0.1631
0.3400 0.0967 0.1857
0.3600 0.1034 0.2118
0.3800 0.1101 0.2320
0.4000 0.1167 0.2559
0.4200 0.1234 0.2452
0.4400 0.1301 0.2390
0.4600 0.1368 0.2533
0.4800 0.1434 0.2346
0.5000 0.1501 0.2263
0.5200 0.1568 0.2563
0.5400 0.1634 0.2540
0.5600 0.1700 0.2601
0.5800 0.1767 0.3154
0.6000 0.1833 0.3274
0.6200 0.1900 0.3415
0.6400 0.1967 0.4048
0.6600 0.2034 0.4112
0.6800 0.2101 0.4091
0.7000 0.2168 0.4390
0.7200 0.2234 0.4185
0.7400 0.2300 0.4128
0.7600 0.2367 0.4434
0.7800 0.2434 0.4312
0.8000 0.2501 0.4197
0.8200 0.2567 0.4473
0.8400 0.2634 0.4328
0.8600 0.2701 0.4288
0.8800 0.2768 0.4454
0.9000 0.2834 0.4317
0.9200 0.2900 0.4415
0.9400 0.2966 0.4482
0.9600 0.3033 0.4350
0.9800 0.3100 0.4408
1.0000 0.3167 0.4502
1.0200 0.3234 0.4407
1.0400 0.3300 0.4470
1.0600 0.3367 0.4471
1.0800 0.3434 0.4447
1.1000 0.3500 0.4473
1.1200 0.3567 0.4466
1.1400 0.3634 0.4447
1.1600 0.3701 0.4486
1.1800 0.3768 0.4407
1.2000 0.3834 0.4480
1.2200 0.3901 0.4511
1.2400 0.3968 0.4401
1.2600 0.4035 0.4461
1.2800 0.4101 0.4431
1.3000 0.4167 0.4392
1.3200 0.4234 0.4439
1.3400 0.4301 0.4436
1.3600 0.4368 0.4385
1.3800 0.4434 0.4445
1.4000 0.4501 0.4363
1.4200 0.4568 0.4330
1.4400 0.4634 0.4453
1.4600 0.4700 0.4358
1.4800 0.4767 0.4339
1.5000 0.4833 0.4442
1.5200 0.4901 0.4328
1.5400 0.4967 0.4329
1.5600 0.5034 0.4424
1.5800 0.5101 0.4317
1.6000 0.5168 0.4349
1.6200 0.5234 0.4391
1.6400 0.5300 0.4316
1.6600 0.5366 0.4343
1.6800 0.5433 0.4388
1.7000 0.5501 0.4284
1.7200 0.5568 0.4318
1.7400 0.5634 0.4375
1.7600 0.5701 0.4352
1.7800 0.5767 0.4321
1.8000 0.5834 0.4355
1.8200 0.5901 0.4336
1.8400 0.5967 0.4337
1.8600 0.6034 0.4380
1.8800 0.6101 0.4284
1.9000 0.6167 0.4361
1.9200 0.6234 0.4387
1.9400 0.6301 0.4292
1.9600 0.6368 0.4380
1.9800 0.6435 0.4396
2.0000 0.6500 0.4317
2.0200 0.6567 0.4408
2.0400 0.6633 0.4373
2.0600 0.6701 0.4287
2.0800 0.6768 0.4409
2.1000 0.6835 0.4418
2.1200 0.6901 0.4282
2.1400 0.6968 0.4436
2.1600 0.7034 0.4429
2.1800 0.7100 0.4266
2.2000 0.7167 0.4371
2.2200 0.7233 0.4473
2.2400 0.7301 0.4314
2.2600 0.7368 0.4343
2.2800 0.7434 0.4480
2.3000 0.7501 0.4344
2.3200 0.7568 0.4363
2.3400 0.7634 0.4410
2.3600 0.7700 0.4297
2.3800 0.7767 0.4331
2.4000 0.7833 0.4453
2.4200 0.7900 0.4330
2.4400 0.7967 0.4332
2.4600 0.8034 0.4437
2.4800 0.8101 0.4351
2.5000 0.8168 0.4350
2.5200 0.8234 0.4406
2.5400 0.8301 0.4375
2.5600 0.8367 0.4328
2.5800 0.8434 0.4465
2.6000 0.8501 0.4309
2.6200 0.8568 0.4353
2.6400 0.8635 0.4422
2.6600 0.8701 0.4313
2.6800 0.8768 0.4358
2.7000 0.8834 0.4427
2.7200 0.8901 0.4322
2.7400 0.8967 0.4347
2.7600 0.9033 0.4459
2.7800 0.9101 0.4320
2.8000 0.9168 0.4328
2.8200 0.9235 0.4445
2.8400 0.9301 0.4271
2.8600 0.9368 0.4400
2.8800 0.9435 0.4406
2.9000 0.9501 0.4282
2.9200 0.9567 0.4443
2.9400 0.9633 0.4379
2.9600 0.9700 0.4289
2.9800 0.9767 0.4395
3.0000 0.9834 0.4400
3.0200 0.9901 0.4275
3.0400 0.9968 0.4421
3.0600 1.0034 0.4387
3.0800 1.0100 0.4286
3.1000 1.0166 0.4382
3.1200 1.0233 0.4404
3.1400 1.0300 0.4333
3.1600 1.0367 0.4378
3.1800 1.0434 0.4333
3.2000 1.0501 0.4376
3.2200 1.0568 0.4373
3.2400 1.0634 0.4310
3.2600 1.0701 0.4375
3.2800 1.0767 0.4384
3.3000 1.0834 0.4345
3.3200 1.0901 0.4374
3.3400 1.0967 0.4348
3.3600 1.1034 0.4337
3.3800 1.1101 0.4389
3.4000 1.1168 0.4322
3.4200 1.1235 0.4357
3.4400 1.1301 0.4394
3.4600 1.1367 0.4323
3.4800 1.1433 0.4388
3.5000 1.1500 0.4381
3.5200 1.1568 0.4331
3.5400 1.1635 0.4348
3.5600 1.1701 0.4353
3.5800 1.1768 0.4323
3.6000 1.1834 0.4387
3.6200 1.1901 0.4382
3.6400 1.1967 0.4333
3.6600 1.2033 0.4409
3.6800 1.2100 0.4340
3.7000 1.2168 0.4267
3.7200 1.2234 0.4421
3.7400 1.2301 0.4375
3.7600 1.2368 0.4312
3.7800 1.2434 0.4401
3.8000 1.2501 0.4316
3.8200 1.2567 0.4314
3.8400 1.2633 0.4374
3.8600 1.2700 0.4314
3.8800 1.2767 0.4337
3.9000 1.2834 0.4369
3.9200 1.2900 0.4296
3.9400 1.2967 0.4275
3.9600 1.3034 0.4389
3.9800 1.3101 0.4314
4.0000 1.3167 0.4296
4.0200 1.3233 0.4438
4.0400 1.3300 0.4292
4.0600 1.3367 0.4336
4.0800 1.3434 0.4364
4.1000 1.3501 0.4306
4.1200 1.3568 0.4299
4.1400 1.3635 0.4339
4.1600 1.3701 0.4333
4.1800 1.3767 0.4328
4.2000 1.3834 0.4394
4.2200 1.3901 0.4303
4.2400 1.3968 0.4285
4.2600 1.4035 0.4360
4.2800 1.4101 0.4306
4.3000 1.4168 0.4307
4.3200 1.4235 0.4352
4.3400 1.4301 0.4302
4.3600 1.4367 0.4310
4.3800 1.4433 0.4384
4.4000 1.4500 0.4353
4.4200 1.4567 0.4237
4.4400 1.4634 0.4386
4.4600 1.4701 0.4365
4.4800 1.4768 0.4275
4.5000 1.4834 0.4377
4.5200 1.4901 0.4301
4.5400 1.4967 0.4283
4.5600 1.5033 0.4422
4.5800 1.5100 0.4344
4.6000 1.5167 0.4274
4.6200 1.5234 0.4419
4.6400 1.5301 0.4307
4.6600 1.5368 0.4243
4.6800 1.5435 0.4401
4.7000 1.5501 0.4294
4.7200 1.5567 0.4266
4.7400 1.5633 0.4422
4.7600 1.5701 0.4285
4.7800 1.5768 0.4302
4.8000 1.5835 0.4368
4.8200 1.5902 0.4266
4.8400 1.5968 0.4309
4.8600 1.6035 0.4357
4.8800 1.6101 0.4271
4.9000 1.6167 0.4338
4.9200 1.6233 0.4363
4.9400 1.6300 0.4302
4.9600 1.6367 0.4334
4.9800 1.6434 0.4337
5.0000 1.6501 0.4329
5.0200 1.6568 0.4309
5.0400 1.6635 0.4299
5.0600 1.6701 0.4321
5.0800 1.6767 0.4312
5.1000 1.6833 0.4319
5.1200 1.6900 0.4350
5.1400 1.6967 0.4271
5.1600 1.7034 0.4332
5.1800 1.7101 0.4364
5.2000 1.7168 0.4240
5.2200 1.7235 0.4314
5.2400 1.7301 0.4354
5.2600 1.7367 0.4272
5.2800 1.7433 0.4316
5.3000 1.7500 0.4364
5.3200 1.7567 0.4219
5.3400 1.7634 0.4305
5.3600 1.7701 0.4357
5.3800 1.7767 0.4247
5.4000 1.7834 0.4314
5.4200 1.7901 0.4297
5.4400 1.7967 0.4256
5.4600 1.8033 0.4318
5.4800 1.8100 0.4343
5.5000 1.8167 0.4293
5.5200 1.8234 0.4317
5.5400 1.8301 0.4311
5.5600 1.8368 0.4278
5.5800 1.8435 0.4324
5.6000 1.8501 0.4291
5.6200 1.8567 0.4314
5.6400 1.8633 0.4316
5.6600 1.8700 0.4315
5.6800 1.8767 0.4319
5.7000 1.8834 0.4280
5.7200 1.8901 0.4301
5.7400 1.8968 0.4327
5.7600 1.9035 0.4258
5.7800 1.9101 0.4277
5.8000 1.9167 0.4345
5.8200 1.9233 0.4248
5.8400 1.9300 0.4330
5.8600 1.9367 0.4314
5.8800 1.9434 0.4238
5.9000 1.9500 0.4329
5.9200 1.9567 0.4314
5.9400 1.9634 0.4216
5.9600 1.9701 0.4328
5.9800 1.9767 0.4323
6.0000 1.9833 0.4206
6.0200 1.9900 0.4329
6.0400 1.9967 0.4343
6.0600 2.0034 0.4241
6.0800 2.0101 0.4317
6.1000 2.0168 0.4337
6.1200 2.0235 0.4243
6.1400 2.0301 0.4259
6.1600 2.0367 0.4334
6.1800 2.0433 0.4270
6.2000 2.0500 0.4286
6.2200 2.0567 0.4340
6.2400 2.0634 0.4191
6.2600 2.0701 0.4280
6.2800 2.0768 0.4313
6.3000 2.0835 0.4209
6.3200 2.0901 0.4267
6.3400 2.0967 0.4334
6.3600 2.1033 0.4241
6.3800 2.1100 0.4312
6.4000 2.1167 0.4329
6.4200 2.1234 0.4172
6.4400 2.1301 0.4336
6.4600 2.1368 0.4319
6.4800 2.1435 0.4185
6.5000 2.1501 0.4263
6.5200 2.1568 0.4305
6.5400 2.1634 0.4215
6.5600 2.1700 0.4277
6.5800 2.1767 0.4274
6.6000 2.1834 0.4192
6.6200 2.1901 0.4313
6.6400 2.1968 0.4271
6.6600 2.2035 0.4167
6.6800 2.2101 0.4288
6.7000 2.2167 0.4265
6.7200 2.2233 0.4194
6.7400 2.2300 0.4283
6.7600 2.2367 0.4285
6.7800 2.2434 0.4155
6.8000 2.2501 0.4215
6.8200 2.2568 0.4254
6.8400 2.2634 0.4131
6.8600 2.2701 0.4308
6.8800 2.2767 0.4239
6.9000 2.2834 0.4194
6.9200 2.2900 0.4318
6.9400 2.2967 0.4226
6.9600 2.3034 0.4174
6.9800 2.3101 0.4280
7.0000 2.3168 0.4261
7.0200 2.3235 0.4162
7.0400 2.3301 0.4253
7.0600 2.3367 0.4235
7.0800 2.3434 0.4238
7.1000 2.3500 0.4275
7.1200 2.3567 0.4190
7.1400 2.3634 0.4249
7.1600 2.3701 0.4256
7.1800 2.3768 0.4189
7.2000 2.3835 0.4265
7.2200 2.3902 0.4200
7.2400 2.3967 0.4267
7.2600 2.4033 0.4283
7.2800 2.4100 0.4196
7.3000 2.4167 0.4253
7.3200 2.4234 0.4199
7.3400 2.4301 0.4198
7.3600 2.4368 0.4260
7.3800 2.4434 0.4211
7.4000 2.4501 0.4158
7.4200 2.4567 0.4285
7.4400 2.4633 0.4217
7.4600 2.4700 0.4204
7.4800 2.4767 0.4322
7.5000 2.4834 0.4124
7.5200 2.4900 0.4186
7.5400 2.4967 0.4273
7.5600 2.5034 0.4128
7.5800 2.5101 0.4214
7.6000 2.5167 0.4236
7.6200 2.5234 0.4142
7.6400 2.5300 0.4218
7.6600 2.5367 0.4270
7.6800 2.5434 0.4170
7.7000 2.5501 0.4206
7.7200 2.5568 0.4237
7.7400 2.5635 0.4173
7.7600 2.5702 0.4220
7.7800 2.5768 0.4222
7.8000 2.5834 0.4182
7.8200 2.5900 0.4171
7.8400 2.5967 0.4246
7.8600 2.6035 0.4166
7.8800 2.6101 0.4182
7.9000 2.6168 0.4193
7.9200 2.6234 0.4144
7.9400 2.6301 0.4208
7.9600 2.6367 0.4228
7.9800 2.6433 0.4156
8.0000 2.6500 0.4211
8.0200 2.6567 0.4207
8.0400 2.6634 0.4127
8.0600 2.6701 0.4211
8.0800 2.6767 0.4231
8.1000 2.6834 0.4164
8.1200 2.6901 0.4155
8.1400 2.6967 0.4218
8.1600 2.7033 0.4127
8.1800 2.7100 0.4201
8.2000 2.7167 0.4229
8.2200 2.7234 0.4121
8.2400 2.7301 0.4169
8.2600 2.7368 0.4220
8.2800 2.7435 0.4156
8.3000 2.7501 0.4154
8.3200 2.7568 0.4201
8.3400 2.7634 0.4171
8.3600 2.7700 0.4166
8.3800 2.7767 0.4245
8.4000 2.7834 0.4122
8.4200 2.7901 0.4127
8.4400 2.7968 0.4249
8.4600 2.8035 0.4111
8.4800 2.8101 0.4156
8.5000 2.8168 0.4226
8.5200 2.8234 0.4100
8.5400 2.8300 0.4155
8.5600 2.8367 0.4259
8.5800 2.8434 0.4087
8.6000 2.8501 0.4198
8.6200 2.8568 0.4253
8.6400 2.8635 0.4105
8.6600 2.8702 0.4151
8.6800 2.8768 0.4224
8.7000 2.8834 0.4132
8.7200 2.8900 0.4139
8.7400 2.8967 0.4230
8.7600 2.9034 0.4102
8.7800 2.9101 0.4178
8.8000 2.9168 0.4224
8.8200 2.9234 0.4110
8.8400 2.9301 0.4137
8.8600 2.9367 0.4205
8.8800 2.9433 0.4196
8.9000 2.9500 0.4148
8.9200 2.9566 0.4177
8.9400 2.9633 0.4174
8.9600 2.9700 0.4122
8.9800 2.9767 0.4200
9.0000 2.9834 0.4162
9.0200 2.9901 0.4089
9.0400 2.9968 0.4184
9.0600 3.0034 0.4170
9.0800 3.0100 0.4131
9.1000 3.0167 0.4183
9.1200 3.0234 0.4143
9.1400 3.0301 0.4111
9.1600 3.0368 0.4267
9.1800 3.0435 0.4134
9.2000 3.0502 0.4083
9.2200 3.0568 0.4239
9.2400 3.0634 0.4111
9.2600 3.0700 0.4105
9.2800 3.0767 0.4281
9.3000 3.0834 0.4098
9.3200 3.0901 0.4096
9.3400 3.0968 0.4237
9.3600 3.1035 0.4135
9.3800 3.1101 0.4124
9.4000 3.1168 0.4172
9.4200 3.1234 0.4097
9.4400 3.1300 0.4178
9.4600 3.1367 0.4190
9.4800 3.1434 0.4059
9.5000 3.1501 0.4193
9.5200 3.1568 0.4120
9.5400 3.1634 0.4132
9.5600 3.1701 0.4197
9.5800 3.1768 0.4114
9.6000 3.1834 0.4142
9.6200 3.1900 0.4199
9.6400 3.1967 0.4120
9.6600 3.2034 0.4155
9.6800 3.2101 0.4159
9.7000 3.2167 0.4131
9.7200 3.2234 0.4146
9.7400 3.2300 0.4136
9.7600 3.2367 0.4152
9.7800 3.2433 0.4165
9.8000 3.2500 0.4121
9.8200 3.2567 0.4115
9.8400 3.2634 0.4177
9.8600 3.2701 0.4094
9.8800 3.2768 0.4111
9.9000 3.2835 0.4173
9.9200 3.2902 0.4114
9.9400 3.2968 0.4084
9.9600 3.3034 0.4181
9.9800 3.3100 0.4167
10.0000 3.3167 0.4125
10.0200 3.3235 0.4120
10.0400 3.3302 0.4137
10.0600 3.3368 0.4127
10.0800 3.3435 0.4118
10.1000 3.3501 0.4166
10.1200 3.3568 0.4138
10.1400 3.3634 0.4111
10.1600 3.3700 0.4162
10.1800 3.3767 0.4129
10.2000 3.3834 0.4095
10.2200 3.3900 0.4192
10.2400 3.3967 0.4082
10.2600 3.4034 0.4096
10.2800 3.4101 0.4192
10.3000 3.4167 0.4082
10.3200 3.4233 0.4064
10.3400 3.4299 0.4188
10.3600 3.4366 0.4127
10.3800 3.4434 0.4070
10.4000 3.4501 0.4134
10.4200 3.4568 0.4076
10.4400 3.4634 0.4127
10.4600 3.4701 0.4134
10.4800 3.4768 0.4083
10.5000 3.4834 0.4135
10.5200 3.4900 0.4175
10.5400 3.4967 0.4072
10.5600 3.5034 0.4128
10.5800 3.5101 0.4131
10.6000 3.5167 0.4063
10.6200 3.5234 0.4136
10.6400 3.5301 0.4123
10.6600 3.5368 0.4021
10.6800 3.5434 0.4154
10.7000 3.5500 0.4141
10.7200 3.5567 0.4038
10.7400 3.5634 0.4166
10.7600 3.5701 0.4085
10.7800 3.5768 0.4061
10.8000 3.5835 0.4175
10.8200 3.5901 0.4063
10.8400 3.5968 0.4053
10.8600 3.6034 0.4168
10.8800 3.6100 0.4010
10.9000 3.6167 0.4080
10.9200 3.6234 0.4175
10.9400 3.6301 0.3975
10.9600 3.6368 0.4026
10.9800 3.6434 0.4203
11.0000 3.6501 0.3988
11.0200 3.6568 0.4016
11.0400 3.6634 0.4184
11.0600 3.6700 0.4015
11.0800 3.6767 0.4049
11.1000 3.6834 0.4164
11.1200 3.6900 0.4041
11.1400 3.6967 0.4041
11.1600 3.7034 0.4131
11.1800 3.7101 0.3997
11.2000 3.7167 0.4005
11.2200 3.7234 0.4150
11.2400 3.7300 0.4031
11.2600 3.7367 0.3985
11.2800 3.7434 0.4157
11.3000 3.7501 0.4005
11.3200 3.7568 0.3994
11.3400 3.7635 0.4130
11.3600 3.7702 0.3999
11.3800 3.7768 0.3989
11.4000 3.7834 0.4104
11.4200 3.7900 0.4052
11.4400 3.7967 0.4008
11.4600 3.8034 0.4089
11.4800 3.8101 0.4047
11.5000 3.8168 0.3993
11.5200 3.8235 0.4065
11.5400 3.8301 0.4070
11.5600 3.8368 0.3998
11.5800 3.8434 0.4072
11.6000 3.8500 0.4044
11.6200 3.8567 0.3992
11.6400 3.8634 0.4045
11.6600 3.8700 0.4093
11.6800 3.8767 0.3967
11.7000 3.8834 0.4080
11.7200 3.8901 0.4080
11.7400 3.8967 0.3957
11.7600 3.9034 0.4088
11.7800 3.9100 0.4070
11.8000 3.9166 0.3990
11.8200 3.9233 0.4087
11.8400 3.9300 0.4046
11.8600 3.9367 0.3913
11.8800 3.9434 0.4125
11.9000 3.9501 0.4077
11.9200 3.9568 0.3949
11.9400 3.9634 0.4078
11.9600 3.9700 0.4051
11.9800 3.9767 0.3958
12.0000 3.9834 0.4096
12.0200 3.9901 0.3994
12.0400 3.9968 0.3992
12.0600 4.0035 0.4082
12.0800 4.0101 0.4028
12.1000 4.0168 0.3986
12.1200 4.0234 0.4065
12.1400 4.0300 0.4037
12.1600 4.0367 0.4003
12.1800 4.0434 0.4063
12.2000 4.0501 0.4009
12.2200 4.0568 0.4013
12.2400 4.0635 0.4044
12.2600 4.0702 0.4040
12.2800 4.0768 0.4014
12.3000 4.0834 0.4006
12.3200 4.0900 0.4037
12.3400 4.0966 0.4032
12.3600 4.1033 0.4005
12.3800 4.1101 0.3992
12.4000 4.1167 0.4011
12.4200 4.1234 0.4059
12.4400 4.1301 0.4007
12.4600 4.1368 0.3974
12.4800 4.1434 0.4030
12.5000 4.1500 0.4080
12.5200 4.1566 0.4016
12.5400 4.1633 0.3999
12.5600 4.1701 0.4036
12.5800 4.1767 0.3996
12.6000 4.1834 0.4015
12.6200 4.1901 0.4041
12.6400 4.1968 0.4033
12.6600 4.2034 0.4006
12.6800 4.2101 0.4011
12.7000 4.2167 0.4045
12.7200 4.2234 0.3986
12.7400 4.2301 0.4034
12.7600 4.2367 0.4052
12.7800 4.2434 0.4001
12.8000 4.2502 0.4027
12.8200 4.2568 0.4022
12.8400 4.2634 0.3991
12.8600 4.2700 0.4044
12.8800 4.2767 0.4008
12.9000 4.2834 0.4020
12.9200 4.2901 0.4016
12.9400 4.2968 0.4022
12.9600 4.3035 0.3992
12.9800 4.3102 0.4007
13.0000 4.3168 0.4023
13.0200 4.3234 0.3981
13.0400 4.3300 0.4039
13.0600 4.3367 0.4051
13.0800 4.3434 0.3993
13.1000 4.3501 0.4003
13.1200 4.3568 0.4051
13.1400 4.3634 0.4001
13.1600 4.3701 0.4011
13.1800 4.3768 0.4025
13.2000 4.3834 0.3969
13.2200 4.3900 0.4024
13.2400 4.3966 0.4050
13.2600 4.4033 0.3934
13.2800 4.4100 0.4042
13.3000 4.4167 0.4029
13.3200 4.4234 0.3958
13.3400 4.4301 0.3978
13.3600 4.4368 0.4024
13.3800 4.4434 0.3948
13.4000 4.4500 0.3982
13.4200 4.4567 0.4006
13.4400 4.4634 0.3989
13.4600 4.4701 0.3983
13.4800 4.4768 0.4008
13.5000 4.4835 0.3967
13.5200 4.4902 0.3947
13.5400 4.4968 0.4016
13.5600 4.5034 0.3976
13.5800 4.5100 0.3949
13.6000 4.5167 0.4047
13.6200 4.5234 0.4009
13.6400 4.5301 0.3880
13.6600 4.5368 0.4077
13.6800 4.5434 0.3981
13.7000 4.5501 0.3930
13.7200 4.5568 0.4006
13.7400 4.5634 0.3928
13.7600 4.5700 0.3978
13.7800 4.5766 0.4044
13.8000 4.5833 0.3910
13.8200 4.5901 0.3938
13.8400 4.5968 0.3996
13.8600 4.6034 0.3937
13.8800 4.6101 0.3947
13.9000 4.6168 0.3953
13.9200 4.6234 0.3977
13.9400 4.6300 0.3971
13.9600 4.6366 0.3976
13.9800 4.6433 0.3982
14.0000 4.6500 0.3944
14.0200 4.6567 0.3957
14.0400 4.6634 0.3983
14.0600 4.6701 0.3949
14.0800 4.6768 0.3982
14.1000 4.6834 0.3932
14.1200 4.6900 0.3955
14.1400 4.6967 0.4003
14.1600 4.7034 0.3919
14.1800 4.7101 0.3927
14.2000 4.7168 0.3980
14.2200 4.7235 0.3908
14.2400 4.7301 0.3896
14.2600 4.7368 0.4018
14.2800 4.7435 0.3944
14.3000 4.7501 0.3884
14.3200 4.7567 0.3976
14.3400 4.7634 0.3932
14.3600 4.7701 0.3905
14.3800 4.7768 0.4024
14.4000 4.7835 0.3949
14.4200 4.7902 0.3876
14.4400 4.7969 0.3975
14.4600 4.8035 0.3928
14.4800 4.8100 0.3918
14.5000 4.8167 0.4017
14.5200 4.8233 0.3923
14.5400 4.8300 0.3896
14.5600 4.8367 0.4026
14.5800 4.8434 0.3892
14.6000 4.8500 0.3896
14.6200 4.8567 0.4019
14.6400 4.8634 0.3903
14.6600 4.8700 0.3904
14.6800 4.8766 0.4027
14.7000 4.8833 0.3876
14.7200 4.8900 0.3885
14.7400 4.8967 0.4004
14.7600 4.9034 0.3880
14.7800 4.9101 0.3941
14.8000 4.9168 0.4005
14.8200 4.9234 0.3809
14.8400 4.9301 0.3949
14.8600 4.9367 0.4016
14.8800 4.9434 0.3850
14.9000 4.9501 0.3912
14.9200 4.9568 0.4009
14.9400 4.9634 0.3849
14.9600 4.9701 0.3884
14.9800 4.9768 0.4017
15.0000 4.9835 0.3861
15.0200 4.9900 0.3950
15.0400 4.9967 0.3976
15.0600 5.0033 0.3886
15.0800 5.0101 0.3894
15.1000 5.0168 0.3974
15.1200 5.0235 0.3899
15.1400 5.0301 0.3910
15.1600 5.0368 0.3951
15.1800 5.0434 0.3860
15.2000 5.0501 0.3890
15.2200 5.0567 0.3988
15.2400 5.0634 0.3882
15.2600 5.0701 0.3897
15.2800 5.0768 0.3997
15.3000 5.0834 0.3897
15.3200 5.0901 0.3847
15.3400 5.0968 0.3975
15.3600 5.1034 0.3940
15.3800 5.1100 0.3844
15.4000 5.1166 0.3939
15.4200 5.1233 0.3888
15.4400 5.1300 0.3876
15.4600 5.1367 0.3902
15.4800 5.1434 0.3898
15.5000 5.1501 0.3900
15.5200 5.1567 0.3915
15.5400 5.1634 0.3893
15.5600 5.1700 0.3872
15.5800 5.1766 0.3949
15.6000 5.1833 0.3878
15.6200 5.1901 0.3836
15.6400 5.1968 0.3944
15.6600 5.2034 0.3910
15.6800 5.2101 0.3815
15.7000 5.2168 0.3978
15.7200 5.2235 0.3855
15.7400 5.2301 0.3817
15.7600 5.2368 0.3961
15.7800 5.2434 0.3925
15.8000 5.2501 0.3785
15.8200 5.2568 0.3907
15.8400 5.2635 0.3872
15.8600 5.2702 0.3790
15.8800 5.2768 0.3913
15.9000 5.2835 0.3862
15.9200 5.2901 0.3841
15.9400 5.2966 0.3928
15.9600 5.3033 0.3826
15.9800 5.3100 0.3774
16.0000 5.3167 0.3943
16.0200 5.3234 0.3831
16.0400 5.3301 0.3807
16.0600 5.3368 0.3891
16.0800 5.3434 0.3840
16.1000 5.3500 0.3766
16.1200 5.3566 0.3953
16.1400 5.3633 0.3850
16.1600 5.3701 0.3787
16.1800 5.3768 0.3905
16.2000 5.3834 0.3802
16.2200 5.3901 0.3837
16.2400 5.3968 0.3878
16.2600 5.4034 0.3788
16.2800 5.4101 0.3818
16.3000 5.4167 0.3912
16.3200 5.4234 0.3766
16.3400 5.4301 0.3798
16.3600 5.4367 0.3891
16.3800 5.4434 0.3792
16.4000 5.4501 0.3833
16.4200 5.4568 0.3811
16.4400 5.4635 0.3785
16.4600 5.4701 0.3836
16.4800 5.4766 0.3839
16.5000 5.4833 0.3841
16.5200 5.4900 0.3823
16.5400 5.4968 0.3751
16.5600 5.5035 0.3832
16.5800 5.5102 0.3845
16.6000 5.5168 0.3793
16.6200 5.5235 0.3819
16.6400 5.5301 0.3798
16.6600 5.5367 0.3791
16.6800 5.5433 0.3898
16.7000 5.5500 0.3788
16.7200 5.5568 0.3769
16.7400 5.5634 0.3848
16.7600 5.5701 0.3766
16.7800 5.5768 0.3812
16.8000 5.5834 0.3882
16.8200 5.5901 0.3713
16.8400 5.5967 0.3810
16.8600 5.6033 0.3876
16.8800 5.6100 0.3731
16.9000 5.6167 0.3866
16.9200 5.6234 0.3841
16.9400 5.6301 0.3740
16.9600 5.6368 0.3824
16.9800 5.6435 0.3844
17.0000 5.6501 0.3693
17.0200 5.6567 0.3888
17.0400 5.6633 0.3826
17.0600 5.6701 0.3733
17.0800 5.6768 0.3846
17.1000 5.6835 0.3827
17.1200 5.6901 0.3792
17.1400 5.6968 0.3801
17.1600 5.7034 0.3817
17.1800 5.7101 0.3797
17.2000 5.7167 0.3817
17.2200 5.7233 0.3797
17.2400 5.7301 0.3796
17.2600 5.7368 0.3826
17.2800 5.7434 0.3809
17.3000 5.7501 0.3804
17.3200 5.7568 0.3810
17.3400 5.7635 0.3788
17.3600 5.7701 0.3821
17.3800 5.7767 0.3744
17.4000 5.7833 0.3837
17.4200 5.7900 0.3864
17.4400 5.7967 0.3738
17.4600 5.8034 0.3796
17.4800 5.8101 0.3883
17.5000 5.8168 0.3725
17.5200 5.8235 0.3821
17.5400 5.8301 0.3827
17.5600 5.8366 0.3706
17.5800 5.8433 0.3880
17.6000 5.8500 0.3819
17.6200 5.8567 0.3692
17.6400 5.8634 0.3875
17.6600 5.8701 0.3828
17.6800 5.8768 0.3649
17.7000 5.8834 0.3851
17.7200 5.8901 0.3834
17.7400 5.8967 0.3731
17.7600 5.9034 0.3865
17.7800 5.9101 0.3759
17.8000 5.9167 0.3706
17.8200 5.9234 0.3910
17.8400 5.9301 0.3754
17.8600 5.9368 0.3737
17.8800 5.9435 0.3917
17.9000 5.9502 0.3702
17.9200 5.9567 0.3724
17.9400 5.9634 0.3872
17.9600 5.9700 0.3746
17.9800 5.9768 0.3750
18.0000 5.9835 0.3828
18.0200 5.9901 0.3694
18.0400 5.9968 0.3741
18.0600 6.0035 0.3824
18.0800 6.0101 0.3771
18.1000 6.0167 0.3723
18.1200 6.0233 0.3798
18.1400 6.0300 0.3759
18.1600 6.0367 0.3702
18.1800 6.0434 0.3799
18.2000 6.0501 0.3769
18.2200 6.0568 0.3700
18.2400 6.0635 0.3743
18.2600 6.0701 0.3750
18.2800 6.0767 0.3677
18.3000 6.0833 0.3822
18.3200 6.0900 0.3744
18.3400 6.0967 0.3663
18.3600 6.1034 0.3780
18.3800 6.1101 0.3770
18.4000 6.1167 0.3666
18.4200 6.1234 0.3804
18.4400 6.1301 0.3738
18.4600 6.1367 0.3646
18.4800 6.1433 0.3805
18.5000 6.1500 0.3797
18.5200 6.1567 0.3623
18.5400 6.1634 0.3808
18.5600 6.1701 0.3752
18.5800 6.1768 0.3586
18.6000 6.1835 0.3805
18.6200 6.1901 0.3755
18.6400 6.1967 0.3673
18.6600 6.2033 0.3803
18.6800 6.2100 0.3738
18.7000 6.2168 0.3604
18.7200 6.2235 0.3772
18.7400 6.2301 0.3744
18.7600 6.2368 0.3627
18.7800 6.2435 0.3771
18.8000 6.2501 0.3705
18.8200 6.2567 0.3650
18.8400 6.2634 0.3847
18.8600 6.2700 0.3686
18.8800 6.2767 0.3677
18.9000 6.2834 0.3794
18.9200 6.2901 0.3673
18.9400 6.2967 0.3675
18.9600 6.3034 0.3745
18.9800 6.3101 0.3693
19.0000 6.3167 0.3714
19.0200 6.3233 0.3733
19.0400 6.3300 0.3661
19.0600 6.3367 0.3708
19.0800 6.3434 0.3691
19.1000 6.3501 0.3715
19.1200 6.3568 0.3730
19.1400 6.3634 0.3658
19.1600 6.3701 0.3692
19.1800 6.3767 0.3697
19.2000 6.3833 0.3679
19.2200 6.3900 0.3741
19.2400 6.3968 0.3665
19.2600 6.4035 0.3639
19.2800 6.4101 0.3760
19.3000 6.4168 0.3665
19.3200 6.4235 0.3653
19.3400 6.4301 0.3740
19.3600 6.4367 0.3633
19.3800 6.4433 0.3685
19.4000 6.4500 0.3754
19.4200 6.4567 0.3583
19.4400 6.4634 0.3679
19.4600 6.4701 0.3722
19.4800 6.4768 0.3627
19.5000 6.4835 0.3674
19.5200 6.4901 0.3737
19.5400 6.4967 0.3638
19.5600 6.5033 0.3664
19.5800 6.5100 0.3701
19.6000 6.5167 0.3658
19.6200 6.5234 0.3706
19.6400 6.5301 0.3655
19.6600 6.5368 0.3615
19.6800 6.5435 0.3688
19.7000 6.5501 0.3669
19.7200 6.5567 0.3609
19.7400 6.5633 0.3720
19.7600 6.5700 0.3692
19.7800 6.5767 0.3618
19.8000 6.5834 0.3624
19.8200 6.5901 0.3700
19.8400 6.5967 0.3674
19.8600 6.6034 0.3605
19.8800 6.6101 0.3638
19.9000 6.6167 0.3671
19.9200 6.6233 0.3598
19.9400 6.6300 0.3635
19.9600 6.6367 0.3671
19.9800 6.6434 0.3526
20.0000 6.6501 0.3679
20.0200 6.6568 0.3688
20.0400 6.6635 0.3532
20.0600 6.6702 0.3664
20.0800 6.6768 0.3666
20.1000 6.6834 0.3540
20.1200 6.6900 0.3687
20.1400 6.6967 0.3629
20.1600 6.7035 0.3527
20.1800 6.7101 0.3751
20.2000 6.7168 0.3596
20.2200 6.7235 0.3541
20.2400 6.7301 0.3711
20.2600 6.7367 0.3592
20.2800 6.7433 0.3579
20.3000 6.7500 0.3648
20.3200 6.7567 0.3623
20.3400 6.7634 0.3591
20.3600 6.7701 0.3620
20.3800 6.7767 0.3635
20.4000 6.7834 0.3606
20.4200 6.7901 0.3640
20.4400 6.7967 0.3555
20.4600 6.8033 0.3601
20.4800 6.8100 0.3648
20.5000 6.8167 0.3588
20.5200 6.8234 0.3617
20.5400 6.8301 0.3583
20.5600 6.8368 0.3672
20.5800 6.8435 0.3629
20.6000 6.8501 0.3541
20.6200 6.8567 0.3624
20.6400 6.8634 0.3631
20.6600 6.8700 0.3583
20.6800 6.8767 0.3618
20.7000 6.8834 0.3627
20.7200 6.8901 0.3524
20.7400 6.8968 0.3689
20.7600 6.9035 0.3617
20.7800 6.9101 0.3476
20.8000 6.9167 0.3707
20.8200 6.9233 0.3590
20.8400 6.9300 0.3503
20.8600 6.9367 0.3681
20.8800 6.9434 0.3580
20.9000 6.9501 0.3531
20.9200 6.9568 0.3748
20.9400 6.9635 0.3523
20.9600 6.9702 0.3548
20.9800 6.9768 0.3727
21.0000 6.9834 0.3517
21.0200 6.9900 0.3593
21.0400 6.9967 0.3703
21.0600 7.0034 0.3506
21.0800 7.0101 0.3567
21.1000 7.0168 0.3691
21.1200 7.0235 0.3512
21.1400 7.0301 0.3611
21.1600 7.0367 0.3597
21.1800 7.0433 0.3522
21.2000 7.0500 0.3633
21.2200 7.0567 0.3627
21.2400 7.0634 0.3503
21.2600 7.0701 0.3561
21.2800 7.0767 0.3637
21.3000 7.0834 0.3492
21.3200 7.0901 0.3605
21.3400 7.0967 0.3684
21.3600 7.1033 0.3538
21.3800 7.1100 0.3568
21.4000 7.1167 0.3600
21.4200 7.1234 0.3517
21.4400 7.1301 0.3562
21.4600 7.1368 0.3637
21.4800 7.1435 0.3526
21.5000 7.1501 0.3496
21.5200 7.1568 0.3640
21.5400 7.1634 0.3464
21.5600 7.1700 0.3546
21.5800 7.1767 0.3691
21.6000 7.1834 0.3453
21.6200 7.1901 0.3494
21.6400 7.1968 0.3651
21.6600 7.2035 0.3489
21.6800 7.2102 0.3500
21.7000 7.2167 0.3665
21.7200 7.2233 0.3446
21.7400 7.2300 0.3497
21.7600 7.2367 0.3649
21.7800 7.2434 0.3453
21.8000 7.2501 0.3509
21.8200 7.2568 0.3613
21.8400 7.2634 0.3471
21.8600 7.2701 0.3501
21.8800 7.2767 0.3612
21.9000 7.2833 0.3458
21.9200 7.2900 0.3509
21.9400 7.2967 0.3651
21.9600 7.3034 0.3452
21.9800 7.3101 0.3524
22.0000 7.3167 0.3604
22.0200 7.3234 0.3439
22.0400 7.3301 0.3514
22.0600 7.3367 0.3617
22.0800 7.3434 0.3498
22.1000 7.3500 0.3490
22.1200 7.3567 0.3576
22.1400 7.3634 0.3463
22.1600 7.3701 0.3480
22.1800 7.3768 0.3612
22.2000 7.3835 0.3483
22.2200 7.3901 0.3489
22.2400 7.3968 0.3603
22.2600 7.4034 0.3460
22.2800 7.4100 0.3531
22.3000 7.4167 0.3620
22.3200 7.4234 0.3432
22.3400 7.4301 0.3481
22.3600 7.4368 0.3623
22.3800 7.4434 0.3477
22.4000 7.4501 0.3477
22.4200 7.4567 0.3619
22.4400 7.4633 0.3425
22.4600 7.4700 0.3501
22.4800 7.4767 0.3618
22.5000 7.4834 0.3436
22.5200 7.4901 0.3504
22.5400 7.4967 0.3597
22.5600 7.5034 0.3420
22.5800 7.5101 0.3503
22.6000 7.5167 0.3568
22.6200 7.5233 0.3460
22.6400 7.5300 0.3492
22.6600 7.5367 0.3545
22.6800 7.5434 0.3463
22.7000 7.5501 0.3500
22.7200 7.5568 0.3556
22.7400 7.5635 0.3473
22.7600 7.5701 0.3500
22.7800 7.5768 0.3559
22.8000 7.5834 0.3485
22.8200 7.5900 0.3460
22.8400 7.5967 0.3520
22.8600 7.6034 0.3506
22.8800 7.6101 0.3470
22.9000 7.6168 0.3506
22.9200 7.6235 0.3552
22.9400 7.6302 0.3465
22.9600 7.6368 0.3476
22.9800 7.6434 0.3534
23.0000 7.6500 0.3495
23.0200 7.6567 0.3506
23.0400 7.6634 0.3520
23.0600 7.6701 0.3498
23.0800 7.6768 0.3469
23.1000 7.6835 0.3546
23.1200 7.6902 0.3485
23.1400 7.6968 0.3460
23.1600 7.7034 0.3549
23.1800 7.7100 0.3474
23.2000 7.7167 0.3470
23.2200 7.7234 0.3540
23.2400 7.7301 0.3403
23.2600 7.7368 0.3458
23.2800 7.7434 0.3574
23.3000 7.7501 0.3419
23.3200 7.7567 0.3471
23.3400 7.7633 0.3574
23.3600 7.7700 0.3405
23.3800 7.7767 0.3469
23.4000 7.7834 0.3536
23.4200 7.7900 0.3414
23.4400 7.7967 0.3516
23.4600 7.8034 0.3475
23.4800 7.8101 0.3402
23.5000 7.8167 0.3533
23.5200 7.8234 0.3499
23.5400 7.8300 0.3379
23.5600 7.8367 0.3510
23.5800 7.8434 0.3521
23.6000 7.8501 0.3382
23.6200 7.8568 0.3498
23.6400 7.8635 0.3516
23.6600 7.8702 0.3438
23.6800 7.8768 0.3441
23.7000 7.8834 0.3489
23.7200 7.8900 0.3472
23.7400 7.8967 0.3452
23.7600 7.9034 0.3485
23.7800 7.9101 0.3446
23.8000 7.9168 0.3402
23.8200 7.9235 0.3562
23.8400 7.9302 0.3432
23.8600 7.9368 0.3370
23.8800 7.9434 0.3533
23.9000 7.9500 0.3474
23.9200 7.9567 0.3349
23.9400 7.9634 0.3537
23.9600 7.9701 0.3442
23.9800 7.9768 0.3348
24.0000 7.9834 0.3567
24.0200 7.9901 0.3415
24.0400 7.9968 0.3356
24.0600 8.0034 0.3577
24.0800 8.0100 0.3392
24.1000 8.0167 0.3351
24.1200 8.0234 0.3574
24.1400 8.0301 0.3365
24.1600 8.0367 0.3386
24.1800 8.0434 0.3596
24.2000 8.0501 0.3392
24.2200 8.0567 0.3327
24.2400 8.0633 0.3549
24.2600 8.0700 0.3429
24.2800 8.0767 0.3401
24.3000 8.0834 0.3528
24.3200 8.0901 0.3334
24.3400 8.0968 0.3445
24.3600 8.1035 0.3509
24.3800 8.1102 0.3361
24.4000 8.1168 0.3423
24.4200 8.1234 0.3473
24.4400 8.1300 0.3396
24.4600 8.1367 0.3452
24.4800 8.1434 0.3449
24.5000 8.1502 0.3383
24.5200 8.1568 0.3416
24.5400 8.1635 0.3454
24.5600 8.1701 0.3424
24.5800 8.1768 0.3419
24.6000 8.1834 0.3441
24.6200 8.1900 0.3415
24.6400 8.1967 0.3432
24.6600 8.2034 0.3411
24.6800 8.2101 0.3456
24.7000 8.2167 0.3373
24.7200 8.2234 0.3410
24.7400 8.2301 0.3461
24.7600 8.2368 0.3395
24.7800 8.2434 0.3380
24.8000 8.2500 0.3473
24.8200 8.2566 0.3390
24.8400 8.2634 0.3419
24.8600 8.2701 0.3461
24.8800 8.2767 0.3346
24.9000 8.2834 0.3398
24.9200 8.2901 0.3460
24.9400 8.2968 0.3361
24.9600 8.3034 0.3410
24.9800 8.3100 0.3448
25.0000 8.3167 0.3365
25.0200 8.3234 0.3407
25.0400 8.3301 0.3384
25.0600 8.3368 0.3351
25.0800 8.3434 0.3416
25.1000 8.3501 0.3421
25.1200 8.3568 0.3334
25.1400 8.3634 0.3468
25.1600 8.3700 0.3422
25.1800 8.3767 0.3302
25.2000 8.3834 0.3424
25.2200 8.3901 0.3434
25.2400 8.3968 0.3313
25.2600 8.4035 0.3430
25.2800 8.4101 0.3375
25.3000 8.4168 0.3295
25.3200 8.4234 0.3475
25.3400 8.4300 0.3408
25.3600 8.4367 0.3269
25.3800 8.4434 0.3457
25.4000 8.4501 0.3402
25.4200 8.4568 0.3215
25.4400 8.4634 0.3455
25.4600 8.4701 0.3453
25.4800 8.4768 0.3227
25.5000 8.4834 0.3403
25.5200 8.4900 0.3455
25.5400 8.4966 0.3254
25.5600 8.5033 0.3418
25.5800 8.5100 0.3432
25.6000 8.5167 0.3206
25.6200 8.5234 0.3461
25.6400 8.5301 0.3421
25.6600 8.5367 0.3245
25.6800 8.5434 0.3432
25.7000 8.5500 0.3413
25.7200 8.5567 0.3293
25.7400 8.5634 0.3404
25.7600 8.5701 0.3397
25.7800 8.5768 0.3267
25.8000 8.5835 0.3407
25.8200 8.5902 0.3413
25.8400 8.5968 0.3235
25.8600 8.6034 0.3409
25.8800 8.6100 0.3427
25.9000 8.6167 0.3272
25.9200 8.6234 0.3349
25.9400 8.6301 0.3431
25.9600 8.6368 0.3283
25.9800 8.6435 0.3364
26.0000 8.6501 0.3418
26.0200 8.6568 0.3287
26.0400 8.6634 0.3365
26.0600 8.6700 0.3405
26.0800 8.6767 0.3355
26.1000 8.6834 0.3355
26.1200 8.6901 0.3412
26.1400 8.6967 0.3319
26.1600 8.7034 0.3337
26.1800 8.7101 0.3396
26.2000 8.7168 0.3344
26.2200 8.7234 0.3292
26.2400 8.7300 0.3392
26.2600 8.7366 0.3355
26.2800 8.7433 0.3274
26.3000 8.7500 0.3399
26.3200 8.7567 0.3367
26.3400 8.7634 0.3295
26.3600 8.7701 0.3394
26.3800 8.7767 0.3274
26.4000 8.7834 0.3302
26.4200 8.7900 0.3433
26.4400 8.7967 0.3282
26.4600 8.8034 0.3277
26.4800 8.8101 0.3437
26.5000 8.8168 0.3289
26.5200 8.8235 0.3254
26.5400 8.8301 0.3446
26.5600 8.8368 0.3285
26.5800 8.8435 0.3308
26.6000 8.8501 0.3395
26.6200 8.8567 0.3262
26.6400 8.8634 0.3321
26.6600 8.8701 0.3413
26.6800 8.8768 0.3215
26.7000 8.8835 0.3345
26.7200 8.8902 0.3371
26.7400 8.8968 0.3239
26.7600 8.9034 0.3342
26.7800 8.9100 0.3306
26.8000 8.9166 0.3330
26.8200 8.9233 0.3324
26.8400 8.9301 0.3305
26.8600 8.9368 0.3294
26.8800 8.9434 0.3359
26.9000 8.9501 0.3298
26.9200 8.9568 0.3254
26.9400 8.9634 0.3314
26.9600 8.9700 0.3296
26.9800 8.9766 0.3324
27.0000 8.9833 0.3295
27.0200 8.9900 0.3294
27.0400 8.9967 0.3334
27.0600 9.0034 0.3287
27.0800 9.0101 0.3264
27.1000 9.0168 0.3324
27.1200 9.0234 0.3250
27.1400 9.0301 0.3313
27.1600 9.0367 0.3333
27.1800 9.0434 0.3224
27.2000 9.0501 0.3356
27.2200 9.0567 0.3296
27.2400 9.0634 0.3184
27.2600 9.0701 0.3399
27.2800 9.0768 0.3271
27.3000 9.0835 0.3236
27.3200 9.0900 0.3383
27.3400 9.0967 0.3292
27.3600 9.1034 0.3289
27.3800 9.1101 0.3295
27.4000 9.1168 0.3248
27.4200 9.1235 0.3310
27.4400 9.1301 0.3342
27.4600 9.1368 0.3218
27.4800 9.1434 0.3305
27.5000 9.1500 0.3291
27.5200 9.1567 0.3293
27.5400 9.1634 0.3325
27.5600 9.1701 0.3227
27.5800 9.1768 0.3292
27.6000 9.1834 0.3321
27.6200 9.1901 0.3225
27.6400 9.1968 0.3337
27.6600 9.2034 0.3282
27.6800 9.2100 0.3233
27.7000 9.2166 0.3378
27.7200 9.2233 0.3234
27.7400 9.2300 0.3221
27.7600 9.2367 0.3395
27.7800 9.2434 0.3171
27.8000 9.2501 0.3254
27.8200 9.2568 0.3404
27.8400 9.2634 0.3173
27.8600 9.2700 0.3278
27.8800 9.2767 0.3365
27.9000 9.2834 0.3172
27.9200 9.2901 0.3295
27.9400 9.2968 0.3365
27.9600 9.3035 0.3153
27.9800 9.3102 0.3318
28.0000 9.3168 0.3335
28.0200 9.3234 0.3119
28.0400 9.3300 0.3316
28.0600 9.3367 0.3327
28.0800 9.3434 0.3158
28.1000 9.3501 0.3314
28.1200 9.3568 0.3273
28.1400 9.3634 0.3182
28.1600 9.3701 0.3353
28.1800 9.3768 0.3235
28.2000 9.3834 0.3169
28.2200 9.3900 0.3335
28.2400 9.3967 0.3263
28.2600 9.4033 0.3190
28.2800 9.4100 0.3311
28.3000 9.4167 0.3245
28.3200 9.4234 0.3236
28.3400 9.4301 0.3232
28.3600 9.4368 0.3197
28.3800 9.4434 0.3273
28.4000 9.4500 0.3191
28.4200 9.4566 0.3254
28.4400 9.4633 0.3216
28.4600 9.4700 0.3165
28.4800 9.4767 0.3233
28.5000 9.4834 0.3268
28.5200 9.4901 0.3139
28.5400 9.4968 0.3260
28.5600 9.5034 0.3236
28.5800 9.5100 0.3117
28.6000 9.5167 0.3311
28.6200 9.5234 0.3200
28.6400 9.5301 0.3089
28.6600 9.5368 0.3353
28.6800 9.5434 0.3163
28.7000 9.5501 0.3178
28.7200 9.5568 0.3332
28.7400 9.5635 0.3084
28.7600 9.5701 0.3176
28.7800 9.5767 0.3357
28.8000 9.5834 0.3126
28.8200 9.5901 0.3199
28.8400 9.5968 0.3323
28.8600 9.6035 0.3092
28.8800 9.6102 0.3228
28.9000 9.6168 0.3325
28.9200 9.6235 0.3106
28.9400 9.6300 0.3220
28.9600 9.6367 0.3247
28.9800 9.6433 0.3128
29.0000 9.6500 0.3306
29.0200 9.6567 0.3202
29.0400 9.6634 0.3127
29.0600 9.6700 0.3279
29.0800 9.6767 0.3171
29.1000 9.6834 0.3150
29.1200 9.6900 0.3226
29.1400 9.6966 0.3172
29.1600 9.7033 0.3224
29.1800 9.7100 0.3266
29.2000 9.7167 0.3094
29.2200 9.7234 0.3204
29.2400 9.7301 0.3247
29.2600 9.7368 0.3143
29.2800 9.7434 0.3200
29.3000 9.7501 0.3179
29.3200 9.7567 0.3133
29.3400 9.7634 0.3220
29.3600 9.7701 0.3155
29.3800 9.7768 0.3170
29.4000 9.7834 0.3240
29.4200 9.7901 0.3114
29.4400 9.7968 0.3157
29.4600 9.8035 0.3238
29.4800 9.8101 0.3105
29.5000 9.8167 0.3151
29.5200 9.8233 0.3266
29.5400 9.8300 0.3086
29.5600 9.8368 0.3165
29.5800 9.8435 0.3235
29.6000 9.8501 0.3111
29.6200 9.8568 0.3212
29.6400 9.8635 0.3206
29.6600 9.8701 0.3071
29.6800 9.8767 0.3231
29.7000 9.8834 0.3193
29.7200 9.8900 0.3090
29.7400 9.8967 0.3242
29.7600 9.9034 0.3169
29.7800 9.9101 0.3082
29.8000 9.9168 0.3231
29.8200 9.9234 0.3123
29.8400 9.9300 0.3071
29.8600 9.9366 0.3258
29.8800 9.9433 0.3132
29.9000 9.9500 0.3113
29.9200 9.9567 0.3211
29.9400 9.9634 0.3111
29.9600 9.9701 0.3110
29.9800 9.9768 0.3188
30.0000 9.9834 0.3118
30.0200 9.9900 0.3132
30.0400 9.9966 0.3199
30.0600 10.0033 0.3116
30.0800 10.0101 0.3155
30.1000 10.0168 0.3169
30.1200 10.0235 0.3109
30.1400 10.0301 0.3126
30.1600 10.0368 0.3102
30.1800 10.0435 0.3142
30.2000 10.0501 0.3169
30.2200 10.0567 0.3113
30.2400 10.0634 0.3170
30.2600 10.0701 0.3076
30.2800 10.0768 0.3144
30.3000 10.0834 0.3149
30.3200 10.0901 0.3107
30.3400 10.0968 0.3189
30.3600 10.1035 0.3126
30.3800 10.1101 0.3071
30.4000 10.1167 0.3167
30.4200 10.1233 0.3149
30.4400 10.1300 0.3117
30.4600 10.1367 0.3157
30.4800 10.1434 0.3084
30.5000 10.1501 0.3110
30.5200 10.1568 0.3140
30.5400 10.1634 0.3088
30.5600 10.1700 0.3132
30.5800 10.1767 0.3151
30.6000 10.1833 0.3123
30.6200 10.1900 0.3096
30.6400 10.1968 0.3111
30.6600 10.2034 0.3124
30.6800 10.2101 0.3096
30.7000 10.2168 0.3140
30.7200 10.2234 0.3105
30.7400 10.2301 0.3094
30.7600 10.2367 0.3163
30.7800 10.2434 0.3069
30.8000 10.2501 0.3123
30.8200 10.2568 0.3139
30.8400 10.2634 0.3106
30.8600 10.2701 0.3124
30.8800 10.2768 0.3148
30.9000 10.2835 0.3104
30.9200 10.2901 0.3110
30.9400 10.2967 0.3084
30.9600 10.3033 0.3133
30.9800 10.3100 0.3157
31.0000 10.3168 0.3069
31.0200 10.3235 0.3115
31.0400 10.3301 0.3127
31.0600 10.3368 0.3054
31.0800 10.3434 0.3149
31.1000 10.3500 0.3061
31.1200 10.3567 0.3079
31.1400 10.3633 0.3215
31.1600 10.3700 0.3055
31.1800 10.3767 0.3068
31.2000 10.3834 0.3176
31.2200 10.3901 0.3060
31.2400 10.3967 0.3036
31.2600 10.4034 0.3190
31.2800 10.4101 0.3046
31.3000 10.4167 0.3028
31.3200 10.4233 0.3181
31.3400 10.4300 0.3059
31.3600 10.4367 0.3036
31.3800 10.4434 0.3153
31.4000 10.4501 0.3018
31.4200 10.4568 0.3092
31.4400 10.4635 0.3146
31.4600 10.4701 0.2988
31.4800 10.4767 0.3117
31.5000 10.4833 0.3147
31.5200 10.4900 0.3041
31.5400 10.4968 0.3085
31.5600 10.5035 0.3069
31.5800 10.5101 0.3021
31.6000 10.5168 0.3102
31.6200 10.5235 0.3049
31.6400 10.5301 0.3053
31.6600 10.5367 0.3113
31.6800 10.5433 0.3048
31.7000 10.5500 0.3089
31.7200 10.5568 0.3054
31.7400 10.5635 0.3048
31.7600 10.5701 0.3138
31.7800 10.5768 0.3012
31.8000 10.5835 0.3005
31.8200 10.5901 0.3115
31.8400 10.5967 0.2997
31.8600 10.6033 0.3055
31.8800 10.6100 0.3140
31.9000 10.6167 0.2976
31.9200 10.6234 0.3054
31.9400 10.6301 0.3133
31.9600 10.6368 0.2964
31.9800 10.6435 0.3080
32.0000 10.6501 0.3119
32.0200 10.6567 0.2976
32.0400 10.6633 0.3053
32.0600 10.6700 0.3101
32.0800 10.6767 0.2960
32.1000 10.6834 0.3050
32.1200 10.6901 0.3157
32.1400 10.6968 0.2961
32.1600 10.7034 0.3074
32.1800 10.7101 0.3098
32.2000 10.7167 0.2972
32.2200 10.7233 0.3063
32.2400 10.7301 0.3099
32.2600 10.7368 0.2957
32.2800 10.7435 0.3030
32.3000 10.7501 0.3086
32.3200 10.7568 0.2981
32.3400 10.7635 0.3046
32.3600 10.7702 0.3036
32.3800 10.7767 0.2959
32.4000 10.7834 0.3078
32.4200 10.7900 0.3055
32.4400 10.7967 0.2944
32.4600 10.8034 0.3033
32.4800 10.8101 0.3064
32.5000 10.8168 0.2956
32.5200 10.8235 0.3058
32.5400 10.8301 0.3045
32.5600 10.8367 0.2947
32.5800 10.8433 0.3095
32.6000 10.8500 0.3050
32.6200 10.8567 0.2972
32.6400 10.8634 0.3075
32.6600 10.8701 0.3012
32.6800 10.8768 0.2958
32.7000 10.8835 0.3054
32.7200 10.8901 0.3060
32.7400 10.8967 0.2962
32.7600 10.9033 0.3061
32.7800 10.9100 0.3016
32.8000 10.9167 0.2928
32.8200 10.9234 0.3061
32.8400 10.9300 0.2989
32.8600 10.9367 0.2961
32.8800 10.9434 0.3041
32.9000 10.9501 0.3010
32.9200 10.9567 0.2932
32.9400 10.9634 0.3055
32.9600 10.9700 0.3055
32.9800 10.9767 0.2907
33.0000 10.9834 0.3034
33.0200 10.9901 0.3053
33.0400 10.9968 0.2950
33.0600 11.0035 0.3003
33.0800 11.0101 0.3048
33.1000 11.0167 0.2934
33.1200 11.0233 0.3009
33.1400 11.0300 0.3066
33.1600 11.0367 0.2922
33.1800 11.0435 0.3018
33.2000 11.0501 0.3042
33.2200 11.0568 0.2904
33.2400 11.0635 0.3005
33.2600 11.0701 0.3010
33.2800 11.0767 0.2892
33.3000 11.0833 0.3015
33.3200 11.0900 0.3018
33.3400 11.0967 0.2947
33.3600 11.1034 0.3003
33.3800 11.1101 0.2997
33.4000 11.1167 0.2943
33.4200 11.1234 0.3018
33.4400 11.1301 0.2982
33.4600 11.1367 0.2898
33.4800 11.1433 0.3003
33.5000 11.1500 0.2991
33.5200 11.1567 0.2946
33.5400 11.1634 0.2976
33.5600 11.1701 0.2999
33.5800 11.1768 0.2979
33.6000 11.1835 0.2950
33.6200 11.1901 0.2987
33.6400 11.1967 0.2998
33.6600 11.2033 0.2889
33.6800 11.2100 0.2979
33.7000 11.2168 0.2947
33.7200 11.2235 0.2897
33.7400 11.2302 0.3005
33.7600 11.2368 0.2934
33.7800 11.2435 0.2908
33.8000 11.2501 0.2992
33.8200 11.2567 0.2898
33.8400 11.2633 0.2951
33.8600 11.2700 0.2997
33.8800 11.2767 0.2853
33.9000 11.2834 0.2965
33.9200 11.2901 0.2980
33.9400 11.2968 0.2861
33.9600 11.3035 0.2976
33.9800 11.3101 0.2989
34.0000 11.3167 0.2819
34.0200 11.3233 0.2991
34.0400 11.3300 0.2975
34.0600 11.3367 0.2822
34.0800 11.3434 0.2989
34.1000 11.3501 0.2949
34.1200 11.3568 0.2844
34.1400 11.3635 0.2995
34.1600 11.3701 0.2923
34.1800 11.3767 0.2888
34.2000 11.3833 0.3025
34.2200 11.3900 0.2945
34.2400 11.3967 0.2916
34.2600 11.4034 0.2996
34.2800 11.4101 0.2921
34.3000 11.4167 0.2919
34.3200 11.4234 0.3003
34.3400 11.4301 0.2881
34.3600 11.4367 0.2933
34.3800 11.4433 0.2961
34.4000 11.4500 0.2906
34.4200 11.4567 0.2965
34.4400 11.4634 0.2935
34.4600 11.4701 0.2871
34.4800 11.4768 0.2984
34.5000 11.4835 0.2929
34.5200 11.4902 0.2920
34.5400 11.4968 0.2988
34.5600 11.5034 0.2878
34.5800 11.5100 0.2935
34.6000 11.5167 0.2994
34.6200 11.5234 0.2898
34.6400 11.5301 0.2958
34.6600 11.5368 0.2977
34.6800 11.5435 0.2870
34.7000 11.5501 0.2964
34.7200 11.5567 0.2950
34.7400 11.5633 0.2929
34.7600 11.5700 0.2978
34.7800 11.5767 0.2950
34.8000 11.5834 0.2896
34.8200 11.5901 0.2927
34.8400 11.5967 0.2947
34.8600 11.6034 0.2942
34.8800 11.6101 0.2933
34.9000 11.6167 0.2815
34.9200 11.6233 0.2914
34.9400 11.6300 0.2983
34.9600 11.6367 0.2912
34.9800 11.6434 0.2918
35.0000 11.6501 0.2948
35.0200 11.6568 0.2877
35.0400 11.6635 0.2912
35.0600 11.6701 0.2912
35.0800 11.6768 0.2907
35.1000 11.6834 0.2936
35.1200 11.6900 0.2907
35.1400 11.6967 0.2890
35.1600 11.7034 0.2908
35.1800 11.7101 0.2872
35.2000 11.7168 0.2943
35.2200 11.7235 0.2932
35.2400 11.7301 0.2824
35.2600 11.7367 0.2972
35.2800 11.7433 0.2929
35.3000 11.7500 0.2855
35.3200 11.7567 0.2973
35.3400 11.7634 0.2939
35.3600 11.7701 0.2799
35.3800 11.7768 0.2929
35.4000 11.7835 0.2919
35.4200 11.7902 0.2816
35.4400 11.7968 0.2983
35.4600 11.8034 0.2884
35.4800 11.8100 0.2828
35.5000 11.8167 0.2985
35.5200 11.8234 0.2860
35.5400 11.8301 0.2901
35.5600 11.8368 0.2951
35.5800 11.8435 0.2787
35.6000 11.8501 0.2901
35.6200 11.8567 0.2963
35.6400 11.8633 0.2796
35.6600 11.8700 0.2921
35.6800 11.8767 0.2909
35.7000 11.8834 0.2807
35.7200 11.8901 0.2914
35.7400 11.8967 0.2850
35.7600 11.9034 0.2833
35.7800 11.9101 0.2893
35.8000 11.9167 0.2817
35.8200 11.9233 0.2858
35.8400 11.9300 0.2963
35.8600 11.9367 0.2796
35.8800 11.9434 0.2821
35.9000 11.9501 0.2935
35.9200 11.9568 0.2812
35.9400 11.9635 0.2823
35.9600 11.9701 0.2889
35.9800 11.9768 0.2839
36.0000 11.9834 0.2844
36.0200 11.9900 0.2873
36.0400 11.9967 0.2874
36.0600 12.0034 0.2852
36.0800 12.0101 0.2823
36.1000 12.0168 0.2901
36.1200 12.0235 0.2831
36.1400 12.0302 0.2770
36.1600 12.0368 0.2931
36.1800 12.0433 0.2872
36.2000 12.0500 0.2774
36.2200 12.0567 0.2924
36.2400 12.0634 0.2836
36.2600 12.0701 0.2757
36.2800 12.0768 0.2966
36.3000 12.0834 0.2828
36.3200 12.0901 0.2774
36.3400 12.0967 0.2937
36.3600 12.1033 0.2824
36.3800 12.1100 0.2810
36.4000 12.1167 0.2940
36.4200 12.1234 0.2794
36.4400 12.1300 0.2777
36.4600 12.1367 0.2931
36.4800 12.1434 0.2788
36.5000 12.1501 0.2806
36.5200 12.1568 0.2947
36.5400 12.1634 0.2740
36.5600 12.1700 0.2791
36.5800 12.1767 0.2984
36.6000 12.1834 0.2746
36.6200 12.1901 0.2838
36.6400 12.1968 0.2878
36.6600 12.2035 0.2766
36.6800 12.2102 0.2871
36.7000 12.2168 0.2879
36.7200 12.2234 0.2793
36.7400 12.2300 0.2869
36.7600 12.2367 0.2870
36.7800 12.2434 0.2797
36.8000 12.2501 0.2818
36.8200 12.2568 0.2885
36.8400 12.2634 0.2850
36.8600 12.2701 0.2762
36.8800 12.2767 0.2854
36.9000 12.2833 0.2840
36.9200 12.2900 0.2779
36.9400 12.2967 0.2870
36.9600 12.3034 0.2858
36.9800 12.3101 0.2772
37.0000 12.3168 0.2949
37.0200 12.3234 0.2814
37.0400 12.3301 0.2764
37.0600 12.3368 0.2918
37.0800 12.3433 0.2792
37.1000 12.3500 0.2787
37.1200 12.3566 0.2936
37.1400 12.3634 0.2814
37.1600 12.3701 0.2805
37.1800 12.3768 0.2868
37.2000 12.3835 0.2751
37.2200 12.3901 0.2868
37.2400 12.3968 0.2805
37.2600 12.4034 0.2763
37.2800 12.4100 0.2905
37.3000 12.4167 0.2798
37.3200 12.4234 0.2767
37.3400 12.4301 0.2847
37.3600 12.4368 0.2831
37.3800 12.4434 0.2815
37.4000 12.4501 0.2805
37.4200 12.4568 0.2793
37.4400 12.4634 0.2828
37.4600 12.4700 0.2845
37.4800 12.4767 0.2801
37.5000 12.4834 0.2830
37.5200 12.4901 0.2792
37.5400 12.4968 0.2820
37.5600 12.5035 0.2846
37.5800 12.5102 0.2767
37.6000 12.5168 0.2854
37.6200 12.5234 0.2814
37.6400 12.5300 0.2693
37.6600 12.5367 0.2876
37.6800 12.5434 0.2835
37.7000 12.5501 0.2727
37.7200 12.5568 0.2855
37.7400 12.5634 0.2819
37.7600 12.5701 0.2680
37.7800 12.5767 0.2826
37.8000 12.5833 0.2885
37.8200 12.5899 0.2687
37.8400 12.5966 0.2852
37.8600 12.6033 0.2800
37.8800 12.6100 0.2712
37.9000 12.6167 0.2883
37.9200 12.6234 0.2768
37.9400 12.6301 0.2736
37.9600 12.6368 0.2867
37.9800 12.6434 0.2724
38.0000 12.6500 0.2701
38.0200 12.6567 0.2899
38.0400 12.6634 0.2772
38.0600 12.6701 0.2721
38.0800 12.6768 0.2787
38.1000 12.6835 0.2760
38.1200 12.6902 0.2783
38.1400 12.6968 0.2770
38.1600 12.7034 0.2715
38.1800 12.7100 0.2816
38.2000 12.7167 0.2792
38.2200 12.7234 0.2735
38.2400 12.7301 0.2778
38.2600 12.7368 0.2778
38.2800 12.7435 0.2754
38.3000 12.7502 0.2737
38.3200 12.7568 0.2732
38.3400 12.7634 0.2774
38.3600 12.7700 0.2770
38.3800 12.7767 0.2680
38.4000 12.7834 0.2769
38.4200 12.7901 0.2753
38.4400 12.7968 0.2702
38.4600 12.8034 0.2793
38.4800 12.8101 0.2697
38.5000 12.8168 0.2709
38.5200 12.8234 0.2742
38.5400 12.8300 0.2747
38.5600 12.8367 0.2744
38.5800 12.8434 0.2723
38.6000 12.8500 0.2699
38.6200 12.8567 0.2752
38.6400 12.8634 0.2709
38.6600 12.8701 0.2701
38.6800 12.8767 0.2733
38.7000 12.8833 0.2736
38.7200 12.8900 0.2694
38.7400 12.8966 0.2767
38.7600 12.9034 0.2698
38.7800 12.9101 0.2715
38.8000 12.9168 0.2769
38.8200 12.9235 0.2655
38.8400 12.9302 0.2744
38.8600 12.9368 0.2717
38.8800 12.9434 0.2647
38.9000 12.9500 0.2771
38.9200 12.9567 0.2715
38.9400 12.9634 0.2625
38.9600 12.9701 0.2782
38.9800 12.9768 0.2702
39.0000 12.9835 0.2624
39.0200 12.9901 0.2777
39.0400 12.9968 0.2713
39.0600 13.0034 0.2675
39.0800 13.0100 0.2764
39.1000 13.0167 0.2664
39.1200 13.0234 0.2707
39.1400 13.0300 0.2768
39.1600 13.0367 0.2605
39.1800 13.0434 0.2666
39.2000 13.0501 0.2818
39.2200 13.0568 0.2621
39.2400 13.0634 0.2676
39.2600 13.0700 0.2766
39.2800 13.0766 0.2647
39.3000 13.0833 0.2733
39.3200 13.0901 0.2644
39.3400 13.0968 0.2657
39.3600 13.1034 0.2742
39.3800 13.1101 0.2696
39.4000 13.1168 0.2620
39.4200 13.1234 0.2763
39.4400 13.1300 0.2732
39.4600 13.1367 0.2635
39.4800 13.1434 0.2656
39.5000 13.1501 0.2706
39.5200 13.1568 0.2716
39.5400 13.1634 0.2654
39.5600 13.1701 0.2700
39.5800 13.1768 0.2667
39.6000 13.1834 0.2668
39.6200 13.1900 0.2709
39.6400 13.1967 0.2659
39.6600 13.2034 0.2660
39.6800 13.2101 0.2737
39.7000 13.2168 0.2603
39.7200 13.2234 0.2687
39.7400 13.2301 0.2760
39.7600 13.2368 0.2598
39.7800 13.2434 0.2637
39.8000 13.2500 0.2794
39.8200 13.2567 0.2591
39.8400 13.2634 0.2659
39.8600 13.2701 0.2772
39.8800 13.2768 0.2558
39.9000 13.2835 0.2737
39.9200 13.2902 0.2753
39.9400 13.2968 0.2500
39.9600 13.3034 0.2783
39.9800 13.3100 0.2769
40.0000 13.3166 0.2463
40.0200 13.3233 0.2784
40.0400 13.3300 0.2743
40.0600 13.3367 0.2519
40.0800 13.3434 0.2777
40.1000 13.3501 0.2702
40.1200 13.3567 0.2548
40.1400 13.3634 0.2806
40.1600 13.3700 0.2690
40.1800 13.3767 0.2561
40.2000 13.3834 0.2769
40.2200 13.3901 0.2695
40.2400 13.3968 0.2575
40.2600 13.4035 0.2714
40.2800 13.4102 0.2741
40.3000 13.4169 0.2589
40.3200 13.4234 0.2689
40.3400 13.4300 0.2725
40.3600 13.4367 0.2685
40.3800 13.4434 0.2647
40.4000 13.4501 0.2679
40.4200 13.4568 0.2643
40.4400 13.4635 0.2659
40.4600 13.4701 0.2664
40.4800 13.4768 0.2650
40.5000 13.4834 0.2671
40.5200 13.4900 0.2711
40.5400 13.4966 0.2658
40.5600 13.5033 0.2689
40.5800 13.5100 0.2682
40.6000 13.5167 0.2600
40.6200 13.5234 0.2701
40.6400 13.5301 0.2689
40.6600 13.5368 0.2642
40.6800 13.5434 0.2664
40.7000 13.5500 0.2712
40.7200 13.5566 0.2625
40.7400 13.5633 0.2633
40.7600 13.5700 0.2663
40.7800 13.5767 0.2624
40.8000 13.5834 0.2664
40.8200 13.5901 0.2619
40.8400 13.5968 0.2620
40.8600 13.6034 0.2667
40.8800 13.6100 0.2694
40.9000 13.6167 0.2620
40.9200 13.6234 0.2660
40.9400 13.6301 0.2747
40.9600 13.6368 0.2561
40.9800 13.6435 0.2598
41.0000 13.6501 0.2755
41.0200 13.6568 0.2583
41.0400 13.6635 0.2571
41.0600 13.6701 0.2698
41.0800 13.6767 0.2635
41.1000 13.6834 0.2617
41.1200 13.6901 0.2618
41.1400 13.6968 0.2633
41.1600 13.7034 0.2719
41.1800 13.7101 0.2579
41.2000 13.7168 0.2606
41.2200 13.7235 0.2692
41.2400 13.7300 0.2571
41.2600 13.7366 0.2689
41.2800 13.7433 0.2686
41.3000 13.7500 0.2521
41.3200 13.7567 0.2675
41.3400 13.7634 0.2692
41.3600 13.7701 0.2544
41.3800 13.7768 0.2696
41.4000 13.7834 0.2636
41.4200 13.7900 0.2584
41.4400 13.7966 0.2677
41.4600 13.8033 0.2638
41.4800 13.8101 0.2625
41.5000 13.8167 0.2639
41.5200 13.8234 0.2566
41.5400 13.8301 0.2623
41.5600 13.8368 0.2671
41.5800 13.8434 0.2593
41.6000 13.8501 0.2611
41.6200 13.8567 0.2640
41.6400 13.8634 0.2615
41.6600 13.8700 0.2561
41.6800 13.8767 0.2624
41.7000 13.8834 0.2641
41.7200 13.8901 0.2561
41.7400 13.8968 0.2614
41.7600 13.9035 0.2668
41.7800 13.9100 0.2573
41.8000 13.9167 0.2602
41.8200 13.9234 0.2647
41.8400 13.9301 0.2612
41.8600 13.9368 0.2579
41.8800 13.9435 0.2632
41.9000 13.9501 0.2575
41.9200 13.9568 0.2557
41.9400 13.9634 0.2620
41.9600 13.9700 0.2537
41.9800 13.9767 0.2598
42.0000 13.9834 0.2604
42.0200 13.9901 0.2539
42.0400 13.9968 0.2656
42.0600 14.0034 0.2628
42.0800 14.0101 0.2518
42.1000 14.0168 0.2643
42.1200 14.0234 0.2598
42.1400 14.0300 0.2510
42.1600 14.0366 0.2635
42.1800 14.0433 0.2584
42.2000 14.0500 0.2500
42.2200 14.0567 0.2606
42.2400 14.0634 0.2619
42.2600 14.0701 0.2481
42.2800 14.0768 0.2614
42.3000 14.0834 0.2584
42.3200 14.0900 0.2487
42.3400 14.0967 0.2656
42.3600 14.1033 0.2579
42.3800 14.1101 0.2475
42.4000 14.1168 0.2650
42.4200 14.1235 0.2557
42.4400 14.1302 0.2499
42.4600 14.1368 0.2625
42.4800 14.1435 0.2528
42.5000 14.1501 0.2517
42.5200 14.1567 0.2690
42.5400 14.1634 0.2457
42.5600 14.1701 0.2524
42.5800 14.1768 0.2669
42.6000 14.1835 0.2464
42.6200 14.1901 0.2560
42.6400 14.1968 0.2601
42.6600 14.2035 0.2476
42.6800 14.2101 0.2558
42.7000 14.2167 0.2608
42.7200 14.2233 0.2485
42.7400 14.2300 0.2586
42.7600 14.2367 0.2535
42.7800 14.2434 0.2458
42.8000 14.2501 0.2594
42.8200 14.2568 0.2572
42.8400 14.2634 0.2461
42.8600 14.2700 0.2596
42.8800 14.2766 0.2567
42.9000 14.2833 0.2494
42.9200 14.2900 0.2538
42.9400 14.2967 0.2504
42.9600 14.3034 0.2535
42.9800 14.3101 0.2559
43.0000 14.3168 0.2496
43.0200 14.3234 0.2510
43.0400 14.3300 0.2524
43.0600 14.3367 0.2528
43.0800 14.3434 0.2556
43.1000 14.3501 0.2466
43.1200 14.3568 0.2531
43.1400 14.3634 0.2566
43.1600 14.3701 0.2541
43.1800 14.3768 0.2523
43.2000 14.3835 0.2558
43.2200 14.3901 0.2469
43.2400 14.3967 0.2521
43.2600 14.4034 0.2565
43.2800 14.4100 0.2459
43.3000 14.4168 0.2523
43.3200 14.4235 0.2543
43.3400 14.4302 0.2478
43.3600 14.4368 0.2552
43.3800 14.4435 0.2498
43.4000 14.4501 0.2429
43.4200 14.4567 0.2573
43.4400 14.4633 0.2531
43.4600 14.4700 0.2454
43.4800 14.4767 0.2488
43.5000 14.4834 0.2497
43.5200 14.4901 0.2488
43.5400 14.4967 0.2553
43.5600 14.5034 0.2496
43.5800 14.5100 0.2437
43.6000 14.5166 0.2551
43.6200 14.5233 0.2509
43.6400 14.5300 0.2440
43.6600 14.5367 0.2499
43.6800 14.5434 0.2521
43.7000 14.5500 0.2448
43.7200 14.5567 0.2540
43.7400 14.5634 0.2493
43.7600 14.5701 0.2446
43.7800 14.5767 0.2575
43.8000 14.5834 0.2476
43.8200 14.5900 0.2398
43.8400 14.5967 0.2557
43.8600 14.6034 0.2518
43.8800 14.6101 0.2445
43.9000 14.6168 0.2516
43.9200 14.6235 0.2463
43.9400 14.6301 0.2450
43.9600 14.6367 0.2565
43.9800 14.6433 0.2430
44.0000 14.6500 0.2417
44.0200 14.6568 0.2574
44.0400 14.6635 0.2440
44.0600 14.6701 0.2458
44.0800 14.6768 0.2554
44.1000 14.6834 0.2417
44.1200 14.6901 0.2464
44.1400 14.6967 0.2567
44.1600 14.7033 0.2401
44.1800 14.7100 0.2517
44.2000 14.7167 0.2506
44.2200 14.7234 0.2422
44.2400 14.7301 0.2493
44.2600 14.7368 0.2533
44.2800 14.7435 0.2418
44.3000 14.7501 0.2395
44.3200 14.7566 0.2541
44.3400 14.7633 0.2497
44.3600 14.7700 0.2403
44.3800 14.7767 0.2454
44.4000 14.7834 0.2525
44.4200 14.7901 0.2429
44.4400 14.7967 0.2447
44.4600 14.8034 0.2462
44.4800 14.8100 0.2434
44.5000 14.8166 0.2488
44.5200 14.8233 0.2452
44.5400 14.8301 0.2398
44.5600 14.8368 0.2470
44.5800 14.8435 0.2495
44.6000 14.8501 0.2414
44.6200 14.8568 0.2477
44.6400 14.8635 0.2434
44.6600 14.8701 0.2436
44.6800 14.8768 0.2485
44.7000 14.8834 0.2433
44.7200 14.8901 0.2426
44.7400 14.8968 0.2431
44.7600 14.9035 0.2383
44.7800 14.9101 0.2477
44.8000 14.9168 0.2443
44.8200 14.9235 0.2367
44.8400 14.9301 0.2429
44.8600 14.9367 0.2441
44.8800 14.9433 0.2433
44.9000 14.9500 0.2457
44.9200 14.9567 0.2418
44.9400 14.9634 0.2415
44.9600 14.9701 0.2463
44.9800 14.9768 0.2440
45.0000 14.9834 0.2378
45.0200 14.9901 0.2434
45.0400 14.9967 0.2422
45.0600 15.0033 0.2350
45.0800 15.0100 0.2499
45.1000 15.0168 0.2448
45.1200 15.0234 0.2332
45.1400 15.0301 0.2482
45.1600 15.0368 0.2461
45.1800 15.0434 0.2373
45.2000 15.0501 0.2427
45.2200 15.0567 0.2457
45.2400 15.0634 0.2420
45.2600 15.0701 0.2429
45.2800 15.0768 0.2477
45.3000 15.0834 0.2370
45.3200 15.0901 0.2433
45.3400 15.0968 0.2477
45.3600 15.1035 0.2407
45.3800 15.1101 0.2413
45.4000 15.1167 0.2420
45.4200 15.1233 0.2441
45.4400 15.1300 0.2382
45.4600 15.1367 0.2508
45.4800 15.1435 0.2423
45.5000 15.1501 0.2394
45.5200 15.1568 0.2469
45.5400 15.1635 0.2395
45.5600 15.1701 0.2420
45.5800 15.1767 0.2516
45.6000 15.1833 0.2435
45.6200 15.1900 0.2426
45.6400 15.1968 0.2479
45.6600 15.2034 0.2414
45.6800 15.2101 0.2448
45.7000 15.2167 0.2521
45.7200 15.2234 0.2391
45.7400 15.2301 0.2399
45.7600 15.2367 0.2516
45.7800 15.2433 0.2382
45.8000 15.2500 0.2483
45.8200 15.2567 0.2468
45.8400 15.2634 0.2388
45.8600 15.2701 0.2491
45.8800 15.2768 0.2444
45.9000 15.2835 0.2384
45.9200 15.2901 0.2476
45.9400 15.2967 0.2467
45.9600 15.3033 0.2403
45.9800 15.3100 0.2460
46.0000 15.3167 0.2423
46.0200 15.3234 0.2393
46.0400 15.3301 0.2414
46.0600 15.3368 0.2451
46.0800 15.3435 0.2449
46.1000 15.3501 0.2408
46.1200 15.3567 0.2380
46.1400 15.3634 0.2443
46.1600 15.3701 0.2421
46.1800 15.3768 0.2445
46.2000 15.3834 0.2384
46.2200 15.3901 0.2381
46.2400 15.3968 0.2439
46.2600 15.4035 0.2432
46.2800 15.4101 0.2399
46.3000 15.4167 0.2427
46.3200 15.4233 0.2442
46.3400 15.4300 0.2371
46.3600 15.4367 0.2410
46.3800 15.4434 0.2394
46.4000 15.4501 0.2428
46.4200 15.4568 0.2428
46.4400 15.4635 0.2350
46.4600 15.4701 0.2416
46.4800 15.4767 0.2467
46.5000 15.4833 0.2390
46.5200 15.4899 0.2400
46.5400 15.4967 0.2375
46.5600 15.5034 0.2387
46.5800 15.5101 0.2364
46.6000 15.5168 0.2365
46.6200 15.5234 0.2427
46.6400 15.5301 0.2373
46.6600 15.5367 0.2333
46.6800 15.5433 0.2403
46.7000 15.5500 0.2422
46.7200 15.5567 0.2337
46.7400 15.5634 0.2370
46.7600 15.5701 0.2411
46.7800 15.5768 0.2377
46.8000 15.5835 0.2353
46.8200 15.5902 0.2365
46.8400 15.5968 0.2335
46.8600 15.6034 0.2412
46.8800 15.6100 0.2350
46.9000 15.6167 0.2387
46.9200 15.6235 0.2376
46.9400 15.6301 0.2339
46.9600 15.6368 0.2332
46.9800 15.6435 0.2380
47.0000 15.6501 0.2377
47.0200 15.6567 0.2344
47.0400 15.6633 0.2399
47.0600 15.6700 0.2325
47.0800 15.6767 0.2360
47.1000 15.6834 0.2413
47.1200 15.6901 0.2306
47.1400 15.6968 0.2355
47.1600 15.7034 0.2372
47.1800 15.7101 0.2291
47.2000 15.7167 0.2340
47.2200 15.7233 0.2389
47.2400 15.7300 0.2328
47.2600 15.7367 0.2337
47.2800 15.7434 0.2334
47.3000 15.7501 0.2325
47.3200 15.7567 0.2407
47.3400 15.7634 0.2329
47.3600 15.7701 0.2304
47.3800 15.7767 0.2324
47.4000 15.7834 0.2333
47.4200 15.7900 0.2316
47.4400 15.7967 0.2332
47.4600 15.8034 0.2305
47.4800 15.8101 0.2272
47.5000 15.8168 0.2353
47.5200 15.8235 0.2257
47.5400 15.8301 0.2302
47.5600 15.8367 0.2403
47.5800 15.8433 0.2349
47.6000 15.8500 0.2258
47.6200 15.8567 0.2332
47.6400 15.8635 0.2319
47.6600 15.8702 0.2346
47.6800 15.8768 0.2335
47.7000 15.8835 0.2236
47.7200 15.8901 0.2360
47.7400 15.8967 0.2332
47.7600 15.9033 0.2275
47.7800 15.9100 0.2375
47.8000 15.9167 0.2296
47.8200 15.9234 0.2341
47.8400 15.9301 0.2343
47.8600 15.9368 0.2282
47.8800 15.9434 0.2365
47.9000 15.9501 0.2312
47.9200 15.9567 0.2242
47.9400 15.9633 0.2366
47.9600 15.9700 0.2366
47.9800 15.9767 0.2220
48.0000 15.9834 0.2331
48.0200 15.9901 0.2353
48.0400 15.9968 0.2225
48.0600 16.0035 0.2360
48.0800 16.0101 0.2311
48.1000 16.0167 0.2280
48.1200 16.0233 0.2396
48.1400 16.0300 0.2295
48.1600 16.0368 0.2241
48.1800 16.0435 0.2381
48.2000 16.0502 0.2286
48.2200 16.0568 0.2289
48.2400 16.0635 0.2343
48.2600 16.0701 0.2249
48.2800 16.0767 0.2251
48.3000 16.0833 0.2354
48.3200 16.0900 0.2286
48.3400 16.0967 0.2297
48.3600 16.1034 0.2330
48.3800 16.1101 0.2245
48.4000 16.1168 0.2261
48.4200 16.1235 0.2359
48.4400 16.1301 0.2284
48.4600 16.1367 0.2252
48.4800 16.1433 0.2318
48.5000 16.1500 0.2263
48.5200 16.1567 0.2304
48.5400 16.1634 0.2296
48.5600 16.1701 0.2245
48.5800 16.1768 0.2311
48.6000 16.1835 0.2328
48.6200 16.1901 0.2223
48.6400 16.1967 0.2260
48.6600 16.2033 0.2365
48.6800 16.2100 0.2260
48.7000 16.2167 0.2222
48.7200 16.2234 0.2358
48.7400 16.2301 0.2265
48.7600 16.2367 0.2199
48.7800 16.2434 0.2371
48.8000 16.2501 0.2213
48.8200 16.2567 0.2215
48.8400 16.2633 0.2372
48.8600 16.2700 0.2283
48.8800 16.2767 0.2190
48.9000 16.2834 0.2360
48.9200 16.2901 0.2232
48.9400 16.2968 0.2204
48.9600 16.3035 0.2375
48.9800 16.3102 0.2227
49.0000 16.3168 0.2226
49.0200 16.3234 0.2330
49.0400 16.3300 0.2207
49.0600 16.3367 0.2246
49.0800 16.3434 0.2319
49.1000 16.3501 0.2218
49.1200 16.3568 0.2225
49.1400 16.3635 0.2335
49.1600 16.3701 0.2246
49.1800 16.3767 0.2196
49.2000 16.3833 0.2335
49.2200 16.3900 0.2247
49.2400 16.3967 0.2230
49.2600 16.4034 0.2317
49.2800 16.4101 0.2255
49.3000 16.4167 0.2193
49.3200 16.4234 0.2331
49.3400 16.4301 0.2254
49.3600 16.4367 0.2209
49.3800 16.4433 0.2315
49.4000 16.4500 0.2242
49.4200 16.4567 0.2221
49.4400 16.4634 0.2271
49.4600 16.4701 0.2231
49.4800 16.4768 0.2217
49.5000 16.4835 0.2265
49.5200 16.4901 0.2186
49.5400 16.4968 0.2248
49.5600 16.5034 0.2258
49.5800 16.5100 0.2176
49.6000 16.5167 0.2248
49.6200 16.5234 0.2249
49.6400 16.5301 0.2186
49.6600 16.5368 0.2280
49.6800 16.5435 0.2224
49.7000 16.5501 0.2209
49.7200 16.5568 0.2277
49.7400 16.5634 0.2212
49.7600 16.5700 0.2274
49.7800 16.5767 0.2198
49.8000 16.5834 0.2178
49.8200 16.5901 0.2246
49.8400 16.5968 0.2202
49.8600 16.6035 0.2230
49.8800 16.6102 0.2228
49.9000 16.6168 0.2165
49.9200 16.6234 0.2175
49.9400 16.6300 0.2284
49.9600 16.6367 0.2211
49.9800 16.6434 0.2206
50.0000 16.6501 0.2252
50.0200 16.6568 0.2139
50.0400 16.6635 0.2214
50.0600 16.6702 0.2303
50.0800 16.6768 0.2163
50.1000 16.6833 0.2174
50.1200 16.6900 0.2211
50.1400 16.6966 0.2233
50.1600 16.7034 0.2202
50.1800 16.7101 0.2206
50.2000 16.7168 0.2224
50.2200 16.7234 0.2215
50.2400 16.7301 0.2151
50.2600 16.7367 0.2218
50.2800 16.7434 0.2245
50.3000 16.7500 0.2178
50.3200 16.7567 0.2210
50.3400 16.7634 0.2224
50.3600 16.7701 0.2212
50.3800 16.7768 0.2191
50.4000 16.7835 0.2150
50.4200 16.7901 0.2161
50.4400 16.7968 0.2231
50.4600 16.8034 0.2213
50.4800 16.8100 0.2171
50.5000 16.8167 0.2202
50.5200 16.8234 0.2183
50.5400 16.8301 0.2184
50.5600 16.8368 0.2245
50.5800 16.8435 0.2151
50.6000 16.8502 0.2171
50.6200 16.8568 0.2214
50.6400 16.8634 0.2212
50.6600 16.8700 0.2154
50.6800 16.8767 0.2232
50.7000 16.8834 0.2213
50.7200 16.8901 0.2138
50.7400 16.8968 0.2222
50.7600 16.9034 0.2207
50.7800 16.9101 0.2133
50.8000 16.9168 0.2185
50.8200 16.9234 0.2241
50.8400 16.9300 0.2119
50.8600 16.9367 0.2186
50.8800 16.9434 0.2228
50.9000 16.9501 0.2117
50.9200 16.9567 0.2233
50.9400 16.9634 0.2178
50.9600 16.9701 0.2106
50.9800 16.9767 0.2225
51.0000 16.9833 0.2119
51.0200 16.9900 0.2111
51.0400 16.9966 0.2249
51.0600 17.0034 0.2150
51.0800 17.0101 0.2102
51.1000 17.0168 0.2248
51.1200 17.0235 0.2113
51.1400 17.0302 0.2035
51.1600 17.0368 0.2248
51.1800 17.0434 0.2107
51.2000 17.0500 0.2069
51.2200 17.0567 0.2235
51.2400 17.0634 0.2105
51.2600 17.0701 0.2053
51.2800 17.0768 0.2236
51.3000 17.0835 0.2108
51.3200 17.0901 0.2050
51.3400 17.0968 0.2197
51.3600 17.1034 0.2114
51.3800 17.1100 0.2084
51.4000 17.1167 0.2220
51.4200 17.1234 0.2109
51.4400 17.1301 0.2119
51.4600 17.1368 0.2165
51.4800 17.1434 0.2070
51.5000 17.1501 0.2123
51.5200 17.1568 0.2121
51.5400 17.1634 0.2041
51.5600 17.1700 0.2132
51.5800 17.1766 0.2151
51.6000 17.1834 0.2049
51.6200 17.1901 0.2197
51.6400 17.1968 0.2126
51.6600 17.2034 0.2053
51.6800 17.2101 0.2135
51.7000 17.2168 0.2078
51.7200 17.2234 0.2123
51.7400 17.2300 0.2135
51.7600 17.2367 0.2013
51.7800 17.2434 0.2165
51.8000 17.2501 0.2182
51.8200 17.2568 0.1972
51.8400 17.2634 0.2135
51.8600 17.2701 0.2123
51.8800 17.2768 0.2000
51.9000 17.2834 0.2144
51.9200 17.2900 0.2154
51.9400 17.2967 0.1947
51.9600 17.3034 0.2173
51.9800 17.3101 0.2133
52.0000 17.3168 0.1905
52.0200 17.3234 0.2132
52.0400 17.3301 0.2199
52.0600 17.3368 0.1984
52.0800 17.3434 0.2081
52.1000 17.3500 0.2114
52.1200 17.3567 0.1971
52.1400 17.3634 0.2125
52.1600 17.3701 0.2157
52.1800 17.3768 0.2017
52.2000 17.3835 0.2004
52.2200 17.3901 0.2090
52.2400 17.3968 0.2140
52.2600 17.4034 0.2022
52.2800 17.4100 0.2036
52.3000 17.4166 0.2153
52.3200 17.4234 0.1967
52.3400 17.4301 0.2070
52.3600 17.4367 0.2110
52.3800 17.4434 0.2023
52.4000 17.4501 0.2057
52.4200 17.4568 0.2049
52.4400 17.4634 0.2023
52.4600 17.4700 0.2068
52.4800 17.4767 0.2022
52.5000 17.4834 0.2026
52.5200 17.4901 0.2064
52.5400 17.4968 0.2027
52.5600 17.5035 0.2048
52.5800 17.5102 0.2036
52.6000 17.5168 0.2066
52.6200 17.5234 0.2030
52.6400 17.5300 0.2037
52.6600 17.5367 0.2051
52.6800 17.5434 0.2054
52.7000 17.5501 0.1990
52.7200 17.5568 0.2021
52.7400 17.5635 0.2066
52.7600 17.5702 0.1938
52.7800 17.5768 0.2089
52.8000 17.5834 0.2065
52.8200 17.5900 0.1985
52.8400 17.5967 0.2048
52.8600 17.6034 0.2029
52.8800 17.6101 0.1956
52.9000 17.6168 0.2103
52.9200 17.6234 0.2007
52.9400 17.6301 0.1955
52.9600 17.6368 0.2086
52.9800 17.6434 0.1997
53.0000 17.6500 0.1960
53.0200 17.6567 0.2094
53.0400 17.6634 0.1994
53.0600 17.6701 0.2020
53.0800 17.6767 0.2052
53.1000 17.6834 0.1936
53.1200 17.6901 0.2008
53.1400 17.6967 0.2046
53.1600 17.7034 0.1967
53.1800 17.7100 0.1964
53.2000 17.7167 0.2070
53.2200 17.7234 0.1989
53.2400 17.7301 0.1944
53.2600 17.7368 0.2031
53.2800 17.7435 0.2031
53.3000 17.7502 0.1910
53.3200 17.7568 0.1974
53.3400 17.7634 0.2030
53.3600 17.7700 0.1947
53.3800 17.7767 0.1974
53.4000 17.7834 0.2017
53.4200 17.7901 0.1916
53.4400 17.7968 0.1983
53.4600 17.8035 0.1998
53.4800 17.8102 0.1921
53.5000 17.8168 0.1922
53.5200 17.8234 0.2029
53.5400 17.8300 0.2006
53.5600 17.8367 0.1873
53.5800 17.8433 0.1974
53.6000 17.8500 0.2037
53.6200 17.8567 0.1894
53.6400 17.8634 0.1949
53.6600 17.8701 0.2055
53.6800 17.8768 0.1889
53.7000 17.8834 0.1873
53.7200 17.8900 0.2071
53.7400 17.8966 0.2005
53.7600 17.9033 0.1874
53.7800 17.9100 0.1984
53.8000 17.9167 0.2043
53.8200 17.9234 0.1899
53.8400 17.9301 0.1950
53.8600 17.9368 0.2022
53.8800 17.9434 0.1917
53.9000 17.9500 0.1873
53.9200 17.9567 0.2062
53.9400 17.9634 0.1870
53.9600 17.9701 0.1812
53.9800 17.9768 0.2082
54.0000 17.9834 0.1953
54.0200 17.9901 0.1778
54.0400 17.9968 0.1959
54.0600 18.0034 0.2047
54.0800 18.0100 0.1889
54.1000 18.0167 0.1840
54.1200 18.0233 0.2019
54.1400 18.0301 0.1989
54.1600 18.0368 0.1859
54.1800 18.0434 0.1939
54.2000 18.0501 0.1989
54.2200 18.0568 0.1915
54.2400 18.0634 0.1959
54.2600 18.0700 0.1887
54.2800 18.0767 0.1896
54.3000 18.0834 0.2062
54.3200 18.0901 0.1857
54.3400 18.0968 0.1826
54.3600 18.1035 0.1981
54.3800 18.1101 0.1945
54.4000 18.1168 0.1881
54.4200 18.1234 0.1950
54.4400 18.1300 0.1849
54.4600 18.1366 0.1949
54.4800 18.1433 0.1978
54.5000 18.1500 0.1756
54.5200 18.1567 0.1927
54.5400 18.1634 0.2031
54.5600 18.1701 0.1792
54.5800 18.1768 0.1786
54.6000 18.1834 0.2029
54.6200 18.1900 0.1952
54.6400 18.1967 0.1783
54.6600 18.2033 0.1898
54.6800 18.2101 0.2034
54.7000 18.2168 0.1877
54.7200 18.2235 0.1823
54.7400 18.2302 0.1924
54.7600 18.2368 0.1920
54.7800 18.2435 0.1859
54.8000 18.2501 0.1921
54.8200 18.2567 0.1882
54.8400 18.2634 0.1904
54.8600 18.2701 0.1879
54.8800 18.2768 0.1825
54.9000 18.2835 0.1913
54.9200 18.2901 0.1914
54.9400 18.2968 0.1808
54.9600 18.3034 0.1865
54.9800 18.3100 0.1912
55.0000 18.3167 0.1845
55.0200 18.3233 0.1907
55.0400 18.3301 0.1810
55.0600 18.3367 0.1859
55.0800 18.3434 0.1946
55.1000 18.3501 0.1828
55.1200 18.3568 0.1851
55.1400 18.3634 0.1920
55.1600 18.3700 0.1842
55.1800 18.3766 0.1861
55.2000 18.3833 0.1918
55.2200 18.3900 0.1791
55.2400 18.3967 0.1865
55.2600 18.4034 0.1907
55.2800 18.4101 0.1866
55.3000 18.4168 0.1866
55.3200 18.4234 0.1875
55.3400 18.4300 0.1843
55.3600 18.4366 0.1909
55.3800 18.4433 0.1823
55.4000 18.4501 0.1847
55.4200 18.4568 0.1943
55.4400 18.4635 0.1748
55.4600 18.4701 0.1826
55.4800 18.4768 0.1970
55.5000 18.4835 0.1781
55.5200 18.4901 0.1844
55.5400 18.4967 0.1913
55.5600 18.5034 0.1800
55.5800 18.5101 0.1927
55.6000 18.5168 0.1856
55.6200 18.5234 0.1790
55.6400 18.5301 0.1950
55.6600 18.5368 0.1808
55.6800 18.5435 0.1729
55.7000 18.5501 0.1958
55.7200 18.5567 0.1786
55.7400 18.5633 0.1807
55.7600 18.5701 0.1947
55.7800 18.5768 0.1718
55.8000 18.5834 0.1866
55.8200 18.5901 0.1924
55.8400 18.5968 0.1681
55.8600 18.6034 0.1891
55.8800 18.6100 0.1940
55.9000 18.6166 0.1654
55.9200 18.6233 0.1899
55.9400 18.6300 0.1906
55.9600 18.6367 0.1684
55.9800 18.6434 0.1967
56.0000 18.6501 0.1834
56.0200 18.6568 0.1632
56.0400 18.6635 0.1947
56.0600 18.6701 0.1832
56.0800 18.6767 0.1675
56.1000 18.6834 0.1935
56.1200 18.6901 0.1846
56.1400 18.6967 0.1665
56.1600 18.7034 0.1931
56.1800 18.7101 0.1828
56.2000 18.7168 0.1712
56.2200 18.7235 0.1904
56.2400 18.7301 0.1744
56.2600 18.7367 0.1733
56.2800 18.7434 0.1962
56.3000 18.7501 0.1756
56.3200 18.7568 0.1704
56.3400 18.7635 0.1950
56.3600 18.7701 0.1765
56.3800 18.7768 0.1721
56.4000 18.7834 0.1845
56.4200 18.7900 0.1778
56.4400 18.7967 0.1762
56.4600 18.8034 0.1777
56.4800 18.8101 0.1823
56.5000 18.8168 0.1773
56.5200 18.8234 0.1780
56.5400 18.8301 0.1782
56.5600 18.8368 0.1742
56.5800 18.8434 0.1823
56.6000 18.8500 0.1778
56.6200 18.8566 0.1737
56.6400 18.8633 0.1838
56.6600 18.8700 0.1791
56.6800 18.8767 0.1694
56.7000 18.8834 0.1798
56.7200 18.8901 0.1839
56.7400 18.8968 0.1664
56.7600 18.9034 0.1777
56.7800 18.9100 0.1848
56.8000 18.9167 0.1694
56.8200 18.9233 0.1757
56.8400 18.9301 0.1833
56.8600 18.9368 0.1697
56.8800 18.9435 0.1737
56.9000 18.9502 0.1771
56.9200 18.9568 0.1687
56.9400 18.9635 0.1830
56.9600 18.9701 0.1719
56.9800 18.9767 0.1698
57.0000 18.9834 0.1814
57.0200 18.9901 0.1729
57.0400 18.9968 0.1694
57.0600 19.0034 0.1852
57.0800 19.0101 0.1731
57.1000 19.0168 0.1714
57.1200 19.0235 0.1797
57.1400 19.0301 0.1679
57.1600 19.0367 0.1781
57.1800 19.0433 0.1854
57.2000 19.0500 0.1678
57.2200 19.0567 0.1737
57.2400 19.0634 0.1857
57.2600 19.0701 0.1690
57.2800 19.0768 0.1722
57.3000 19.0835 0.1815
57.3200 19.0901 0.1693
57.3400 19.0967 0.1756
57.3600 19.1033 0.1794
57.3800 19.1100 0.1685
57.4000 19.1167 0.1770
57.4200 19.1234 0.1767
57.4400 19.1301 0.1730
57.4600 19.1368 0.1813
57.4800 19.1434 0.1726
57.5000 19.1501 0.1664
57.5200 19.1567 0.1818
57.5400 19.1633 0.1774
57.5600 19.1700 0.1702
57.5800 19.1768 0.1774
57.6000 19.1834 0.1752
57.6200 19.1901 0.1743
57.6400 19.1968 0.1761
57.6600 19.2035 0.1732
57.6800 19.2101 0.1739
57.7000 19.2167 0.1748
57.7200 19.2234 0.1705
57.7400 19.2300 0.1741
57.7600 19.2368 0.1765
57.7800 19.2435 0.1714
57.8000 19.2502 0.1722
57.8200 19.2568 0.1700
57.8400 19.2635 0.1693
57.8600 19.2701 0.1747
57.8800 19.2767 0.1713
57.9000 19.2833 0.1713
57.9200 19.2900 0.1756
57.9400 19.2967 0.1634
57.9600 19.3034 0.1711
57.9800 19.3101 0.1769
58.0000 19.3167 0.1667
58.0200 19.3234 0.1711
58.0400 19.3300 0.1697
58.0600 19.3366 0.1668
58.0800 19.3433 0.1742
58.1000 19.3500 0.1706
58.1200 19.3567 0.1655
58.1400 19.3634 0.1708
58.1600 19.3701 0.1704
58.1800 19.3767 0.1655
58.2000 19.3834 0.1736
58.2200 19.3901 0.1688
58.2400 19.3967 0.1633
58.2600 19.4034 0.1763
58.2800 19.4101 0.1677
58.3000 19.4167 0.1656
58.3200 19.4234 0.1742
58.3400 19.4301 0.1701
58.3600 19.4368 0.1623
58.3800 19.4435 0.1713
58.4000 19.4501 0.1650
58.4200 19.4567 0.1661
58.4400 19.4633 0.1680
58.4600 19.4700 0.1656
58.4800 19.4767 0.1636
58.5000 19.4834 0.1627
58.5200 19.4901 0.1629
58.5400 19.4968 0.1692
58.5600 19.5035 0.1600
58.5800 19.5101 0.1642
58.6000 19.5167 0.1665
58.6200 19.5233 0.1586
58.6400 19.5301 0.1698
58.6600 19.5368 0.1628
58.6800 19.5434 0.1612
58.7000 19.5501 0.1674
58.7200 19.5568 0.1646
58.7400 19.5635 0.1582
58.7600 19.5701 0.1655
58.7800 19.5767 0.1691
58.8000 19.5833 0.1623
58.8200 19.5900 0.1613
58.8400 19.5967 0.1663
58.8600 19.6034 0.1626
58.8800 19.6101 0.1611
58.9000 19.6168 0.1654
58.9200 19.6234 0.1577
58.9400 19.6300 0.1608
58.9600 19.6367 0.1686
58.9800 19.6433 0.1561
59.0000 19.6500 0.1585
59.0200 19.6568 0.1711
59.0400 19.6635 0.1552
59.0600 19.6701 0.1575
59.0800 19.6768 0.1699
59.1000 19.6835 0.1551
59.1200 19.6901 0.1547
59.1400 19.6968 0.1725
59.1600 19.7034 0.1547
59.1800 19.7101 0.1579
59.2000 19.7168 0.1667
59.2200 19.7235 0.1490
59.2400 19.7301 0.1621
59.2600 19.7368 0.1630
59.2800 19.7435 0.1485
59.3000 19.7500 0.1461
