Raw Data
Time Displacement Force
(s) (mm) (N)
0.0000 0.0001 -0.3489
0.0200 0.0002 -0.3470
0.0400 0.0010 -0.3023
0.0600 0.0044 -0.2758
0.0800 0.0100 -0.3072
0.1000 0.0158 -0.3045
0.1200 0.0218 -0.2534
0.1400 0.0284 -0.2471
0.1600 0.0357 -0.2469
0.1800 0.0431 -0.1985
0.2000 0.0502 -0.1830
0.2200 0.0571 -0.1631
0.2400 0.0638 -0.1039
0.2600 0.0704 -0.0921
0.2800 0.0771 -0.0713
0.3000 0.0838 -0.0140
0.3200 0.0905 -0.0079
0.3400 0.0972 0.0131
0.3600 0.1039 0.0540
0.3800 0.1105 0.0496
0.4000 0.1172 0.0601
0.4200 0.1239 0.0913
0.4400 0.1306 0.0950
0.4600 0.1373 0.1042
0.4800 0.1439 0.1271
0.5000 0.1506 0.1189
0.5200 0.1573 0.1410
0.5400 0.1639 0.1694
0.5600 0.1705 0.1783
0.5800 0.1771 0.2054
0.6000 0.1838 0.2312
0.6200 0.1906 0.2622
0.6400 0.1973 0.2980
0.6600 0.2039 0.3324
0.6800 0.2106 0.3516
0.7000 0.2173 0.3483
0.7200 0.2239 0.3494
0.7400 0.2305 0.3561
0.7600 0.2372 0.3531
0.7800 0.2438 0.3488
0.8000 0.2505 0.3603
0.8200 0.2572 0.3506
0.8400 0.2639 0.3522
0.8600 0.2706 0.3681
0.8800 0.2773 0.3475
0.9000 0.2839 0.3624
0.9200 0.2905 0.3673
0.9400 0.2971 0.3584
0.9600 0.3038 0.3636
0.9800 0.3105 0.3667
1.0000 0.3172 0.3609
1.0200 0.3239 0.3677
1.0400 0.3305 0.3725
1.0600 0.3372 0.3623
1.0800 0.3439 0.3719
1.1000 0.3505 0.3770
1.1200 0.3571 0.3632
1.1400 0.3638 0.3793
1.1600 0.3706 0.3823
1.1800 0.3773 0.3597
1.2000 0.3840 0.3829
1.2200 0.3906 0.3840
1.2400 0.3973 0.3612
1.2600 0.4040 0.3888
1.2800 0.4106 0.3830
1.3000 0.4172 0.3601
1.3200 0.4239 0.3880
1.3400 0.4306 0.3835
1.3600 0.4373 0.3627
1.3800 0.4440 0.3896
1.4000 0.4506 0.3842
1.4200 0.4573 0.3616
1.4400 0.4639 0.3897
1.4600 0.4705 0.3816
1.4800 0.4771 0.3680
1.5000 0.4838 0.3910
1.5200 0.4905 0.3746
1.5400 0.4972 0.3680
1.5600 0.5039 0.3867
1.5800 0.5106 0.3717
1.6000 0.5173 0.3665
1.6200 0.5239 0.3826
1.6400 0.5305 0.3711
1.6600 0.5371 0.3650
1.6800 0.5438 0.3792
1.7000 0.5506 0.3704
1.7200 0.5572 0.3607
1.7400 0.5639 0.3747
1.7600 0.5706 0.3703
1.7800 0.5773 0.3625
1.8000 0.5839 0.3695
1.8200 0.5905 0.3657
1.8400 0.5972 0.3595
1.8600 0.6039 0.3719
1.8800 0.6105 0.3628
1.9000 0.6172 0.3623
1.9200 0.6239 0.3676
1.9400 0.6306 0.3628
1.9600 0.6373 0.3567
1.9800 0.6440 0.3625
2.0000 0.6505 0.3687
2.0200 0.6572 0.3533
2.0400 0.6638 0.3582
2.0600 0.6706 0.3666
2.0800 0.6773 0.3554
2.1000 0.6839 0.3564
2.1200 0.6906 0.3678
2.1400 0.6973 0.3504
2.1600 0.7039 0.3532
2.1800 0.7105 0.3668
2.2000 0.7171 0.3486
2.2200 0.7238 0.3539
2.2400 0.7306 0.3653
2.2600 0.7373 0.3420
2.2800 0.7439 0.3528
2.3000 0.7506 0.3635
2.3200 0.7573 0.3397
2.3400 0.7639 0.3519
2.3600 0.7705 0.3650
2.3800 0.7772 0.3404
2.4000 0.7838 0.3521
2.4200 0.7905 0.3628
2.4400 0.7972 0.3411
2.4600 0.8039 0.3551
2.4800 0.8106 0.3544
2.5000 0.8173 0.3364
2.5200 0.8240 0.3530
2.5400 0.8306 0.3558
2.5600 0.8372 0.3387
2.5800 0.8438 0.3556
2.6000 0.8506 0.3524
2.6200 0.8573 0.3382
2.6400 0.8640 0.3529
2.6600 0.8706 0.3536
2.6800 0.8773 0.3347
2.7000 0.8839 0.3494
2.7200 0.8905 0.3499
2.7400 0.8972 0.3334
2.7600 0.9038 0.3521
2.7800 0.9106 0.3498
2.8000 0.9173 0.3338
2.8200 0.9240 0.3482
2.8400 0.9306 0.3520
2.8600 0.9373 0.3324
2.8800 0.9440 0.3495
2.9000 0.9506 0.3495
2.9200 0.9572 0.3333
2.9400 0.9638 0.3461
2.9600 0.9705 0.3484
2.9800 0.9772 0.3297
3.0000 0.9839 0.3502
3.0200 0.9906 0.3490
3.0400 0.9973 0.3305
3.0600 1.0039 0.3462
3.0800 1.0105 0.3455
3.1000 1.0171 0.3323
3.1200 1.0238 0.3475
3.1400 1.0305 0.3439
3.1600 1.0372 0.3363
3.1800 1.0439 0.3429
3.2000 1.0506 0.3415
3.2200 1.0573 0.3372
3.2400 1.0639 0.3387
3.2600 1.0705 0.3398
3.2800 1.0772 0.3386
3.3000 1.0838 0.3412
3.3200 1.0905 0.3371
3.3400 1.0973 0.3393
3.3600 1.1040 0.3379
3.3800 1.1106 0.3399
3.4000 1.1173 0.3365
3.4200 1.1240 0.3330
3.4400 1.1306 0.3353
3.4600 1.1372 0.3371
3.4800 1.1439 0.3370
3.5000 1.1506 0.3358
3.5200 1.1573 0.3327
3.5400 1.1639 0.3347
3.5600 1.1706 0.3391
3.5800 1.1773 0.3323
3.6000 1.1839 0.3314
3.6200 1.1905 0.3386
3.6400 1.1971 0.3345
3.6600 1.2038 0.3345
3.6800 1.2105 0.3388
3.7000 1.2173 0.3321
3.7200 1.2239 0.3308
3.7400 1.2306 0.3369
3.7600 1.2373 0.3337
3.7800 1.2439 0.3297
3.8000 1.2506 0.3331
3.8200 1.2572 0.3262
3.8400 1.2638 0.3358
3.8600 1.2705 0.3363
3.8800 1.2772 0.3237
3.9000 1.2839 0.3335
3.9200 1.2906 0.3357
3.9400 1.2973 0.3251
3.9600 1.3039 0.3288
3.9800 1.3106 0.3335
4.0000 1.3172 0.3261
4.0200 1.3238 0.3280
4.0400 1.3305 0.3279
4.0600 1.3372 0.3276
4.0800 1.3439 0.3324
4.1000 1.3506 0.3295
4.1200 1.3573 0.3207
4.1400 1.3640 0.3262
4.1600 1.3706 0.3338
4.1800 1.3772 0.3237
4.2000 1.3838 0.3254
4.2200 1.3906 0.3298
4.2400 1.3973 0.3229
4.2600 1.4040 0.3226
4.2800 1.4106 0.3273
4.3000 1.4173 0.3210
4.3200 1.4240 0.3205
4.3400 1.4306 0.3236
4.3600 1.4372 0.3192
4.3800 1.4438 0.3265
4.4000 1.4505 0.3276
4.4200 1.4572 0.3176
4.4400 1.4639 0.3262
4.4600 1.4706 0.3222
4.4800 1.4772 0.3170
4.5000 1.4839 0.3216
4.5200 1.4905 0.3202
4.5400 1.4972 0.3207
4.5600 1.5038 0.3230
4.5800 1.5105 0.3192
4.6000 1.5172 0.3249
4.6200 1.5239 0.3212
4.6400 1.5306 0.3178
4.6600 1.5373 0.3203
4.6800 1.5439 0.3179
4.7000 1.5506 0.3177
4.7200 1.5572 0.3226
4.7400 1.5638 0.3162
4.7600 1.5706 0.3196
4.7800 1.5773 0.3207
4.8000 1.5840 0.3097
4.8200 1.5906 0.3190
4.8400 1.5973 0.3208
4.8600 1.6040 0.3117
4.8800 1.6106 0.3192
4.9000 1.6172 0.3179
4.9200 1.6238 0.3093
4.9400 1.6305 0.3230
4.9600 1.6372 0.3193
4.9800 1.6439 0.3115
5.0000 1.6506 0.3154
5.0200 1.6573 0.3160
5.0400 1.6640 0.3094
5.0600 1.6706 0.3180
5.0800 1.6772 0.3185
5.1000 1.6838 0.3111
5.1200 1.6905 0.3196
5.1400 1.6972 0.3157
5.1600 1.7039 0.3108
5.1800 1.7106 0.3131
5.2000 1.7173 0.3177
5.2200 1.7240 0.3124
5.2400 1.7306 0.3131
5.2600 1.7372 0.3168
5.2800 1.7438 0.3113
5.3000 1.7505 0.3105
5.3200 1.7572 0.3128
5.3400 1.7639 0.3104
5.3600 1.7705 0.3143
5.3800 1.7772 0.3140
5.4000 1.7839 0.3085
5.4200 1.7906 0.3112
5.4400 1.7972 0.3127
5.4600 1.8039 0.3122
5.4800 1.8105 0.3082
5.5000 1.8172 0.3117
5.5200 1.8239 0.3092
5.5400 1.8306 0.3108
5.5600 1.8373 0.3131
5.5800 1.8440 0.3063
5.6000 1.8506 0.3028
5.6200 1.8572 0.3138
5.6400 1.8638 0.3121
5.6600 1.8705 0.3073
5.6800 1.8772 0.3097
5.7000 1.8839 0.3103
5.7200 1.8906 0.3051
5.7400 1.8973 0.3088
5.7600 1.9039 0.3072
5.7800 1.9106 0.3034
5.8000 1.9172 0.3070
5.8200 1.9238 0.3098
5.8400 1.9305 0.3067
5.8600 1.9372 0.3046
5.8800 1.9439 0.3092
5.9000 1.9505 0.3008
5.9200 1.9572 0.3058
5.9400 1.9639 0.3088
5.9600 1.9706 0.3008
5.9800 1.9772 0.3048
6.0000 1.9838 0.3080
6.0200 1.9905 0.2989
6.0400 1.9972 0.3079
6.0600 2.0039 0.3086
6.0800 2.0106 0.2975
6.1000 2.0173 0.3056
6.1200 2.0240 0.3073
6.1400 2.0306 0.2928
6.1600 2.0372 0.3094
6.1800 2.0438 0.3047
6.2000 2.0505 0.2950
6.2200 2.0573 0.3083
6.2400 2.0640 0.3013
6.2600 2.0706 0.2977
6.2800 2.0773 0.3056
6.3000 2.0840 0.3020
6.3200 2.0906 0.2923
6.3400 2.0972 0.3054
6.3600 2.1038 0.3017
6.3800 2.1105 0.2965
6.4000 2.1172 0.2996
6.4200 2.1239 0.2975
6.4400 2.1306 0.2934
6.4600 2.1373 0.2992
6.4800 2.1440 0.2977
6.5000 2.1507 0.2935
6.5200 2.1573 0.2977
6.5400 2.1639 0.2974
6.5600 2.1705 0.2906
6.5800 2.1772 0.2940
6.6000 2.1839 0.3015
6.6200 2.1906 0.2869
6.6400 2.1973 0.2913
6.6600 2.2040 0.3005
6.6800 2.2106 0.2886
6.7000 2.2172 0.2929
6.7200 2.2238 0.3015
6.7400 2.2305 0.2899
6.7600 2.2372 0.2923
6.7800 2.2439 0.2927
6.8000 2.2506 0.2847
6.8200 2.2573 0.2934
6.8400 2.2639 0.2950
6.8600 2.2706 0.2794
6.8800 2.2772 0.2938
6.9000 2.2838 0.2951
6.9200 2.2905 0.2837
6.9400 2.2972 0.2939
6.9600 2.3039 0.2903
6.9800 2.3106 0.2857
7.0000 2.3173 0.2885
7.0200 2.3240 0.2922
7.0400 2.3306 0.2828
7.0600 2.3372 0.2889
7.0800 2.3439 0.2934
7.1000 2.3505 0.2869
7.1200 2.3572 0.2852
7.1400 2.3639 0.2884
7.1600 2.3706 0.2836
7.1800 2.3773 0.2883
7.2000 2.3840 0.2879
7.2200 2.3906 0.2812
7.2400 2.3972 0.2916
7.2600 2.4038 0.2877
7.2800 2.4105 0.2759
7.3000 2.4172 0.2911
7.3200 2.4239 0.2893
7.3400 2.4306 0.2774
7.3600 2.4373 0.2906
7.3800 2.4439 0.2865
7.4000 2.4506 0.2798
7.4200 2.4572 0.2882
7.4400 2.4638 0.2869
7.4600 2.4705 0.2799
7.4800 2.4772 0.2874
7.5000 2.4839 0.2843
7.5200 2.4905 0.2801
7.5400 2.4972 0.2836
7.5600 2.5039 0.2871
7.5800 2.5106 0.2758
7.6000 2.5172 0.2859
7.6200 2.5239 0.2861
7.6400 2.5305 0.2780
7.6600 2.5372 0.2843
7.6800 2.5439 0.2874
7.7000 2.5506 0.2782
7.7200 2.5573 0.2814
7.7400 2.5640 0.2846
7.7600 2.5706 0.2730
7.7800 2.5772 0.2828
7.8000 2.5838 0.2842
7.8200 2.5905 0.2749
7.8400 2.5973 0.2821
7.8600 2.6040 0.2842
7.8800 2.6106 0.2718
7.9000 2.6173 0.2806
7.9200 2.6239 0.2837
7.9400 2.6306 0.2688
7.9600 2.6372 0.2797
7.9800 2.6439 0.2854
8.0000 2.6505 0.2695
8.0200 2.6572 0.2833
8.0400 2.6639 0.2795
8.0600 2.6706 0.2638
8.0800 2.6772 0.2805
8.1000 2.6839 0.2818
8.1200 2.6906 0.2649
8.1400 2.6972 0.2772
8.1600 2.7038 0.2786
8.1800 2.7105 0.2672
8.2000 2.7172 0.2820
8.2200 2.7239 0.2732
8.2400 2.7306 0.2639
8.2600 2.7373 0.2810
8.2800 2.7440 0.2724
8.3000 2.7506 0.2616
8.3200 2.7572 0.2779
8.3400 2.7638 0.2733
8.3600 2.7705 0.2670
8.3800 2.7772 0.2771
8.4000 2.7839 0.2733
8.4200 2.7906 0.2623
8.4400 2.7973 0.2736
8.4600 2.8039 0.2719
8.4800 2.8106 0.2612
8.5000 2.8172 0.2729
8.5200 2.8239 0.2709
8.5400 2.8305 0.2623
8.5600 2.8372 0.2728
8.5800 2.8439 0.2689
8.6000 2.8506 0.2637
8.6200 2.8573 0.2709
8.6400 2.8640 0.2679
8.6600 2.8707 0.2680
8.6800 2.8773 0.2647
8.7000 2.8839 0.2663
8.7200 2.8905 0.2657
8.7400 2.8972 0.2684
8.7600 2.9039 0.2639
8.7800 2.9106 0.2679
8.8000 2.9173 0.2687
8.8200 2.9239 0.2632
8.8400 2.9306 0.2615
8.8600 2.9372 0.2622
8.8800 2.9438 0.2676
8.9000 2.9504 0.2649
8.9200 2.9571 0.2578
8.9400 2.9639 0.2623
8.9600 2.9705 0.2643
8.9800 2.9772 0.2597
9.0000 2.9839 0.2621
9.0200 2.9906 0.2612
9.0400 2.9972 0.2556
9.0600 3.0038 0.2644
9.0800 3.0105 0.2632
9.1000 3.0172 0.2564
9.1200 3.0239 0.2665
9.1400 3.0306 0.2564
9.1600 3.0373 0.2590
9.1800 3.0440 0.2645
9.2000 3.0507 0.2577
9.2200 3.0573 0.2560
9.2400 3.0639 0.2599
9.2600 3.0705 0.2602
9.2800 3.0772 0.2615
9.3000 3.0839 0.2618
9.3200 3.0906 0.2571
9.3400 3.0973 0.2606
9.3600 3.1040 0.2602
9.3800 3.1106 0.2565
9.4000 3.1172 0.2602
9.4200 3.1238 0.2570
9.4400 3.1305 0.2564
9.4600 3.1372 0.2599
9.4800 3.1439 0.2540
9.5000 3.1506 0.2615
9.5200 3.1572 0.2569
9.5400 3.1639 0.2517
9.5600 3.1706 0.2585
9.5800 3.1773 0.2586
9.6000 3.1839 0.2550
9.6200 3.1905 0.2570
9.6400 3.1972 0.2534
9.6600 3.2039 0.2535
9.6800 3.2106 0.2597
9.7000 3.2172 0.2515
9.7200 3.2239 0.2558
9.7400 3.2306 0.2568
9.7600 3.2372 0.2522
9.7800 3.2438 0.2551
9.8000 3.2505 0.2571
9.8200 3.2572 0.2530
9.8400 3.2639 0.2540
9.8600 3.2706 0.2549
9.8800 3.2773 0.2541
9.9000 3.2840 0.2505
9.9200 3.2906 0.2564
9.9400 3.2973 0.2573
9.9600 3.3039 0.2519
9.9800 3.3105 0.2550
10.0000 3.3172 0.2548
10.0200 3.3240 0.2479
10.0400 3.3307 0.2551
10.0600 3.3373 0.2526
10.0800 3.3440 0.2512
10.1000 3.3506 0.2545
10.1200 3.3572 0.2518
10.1400 3.3639 0.2474
10.1600 3.3705 0.2513
10.1800 3.3771 0.2564
10.2000 3.3838 0.2457
10.2200 3.3905 0.2566
10.2400 3.3972 0.2523
10.2600 3.4039 0.2454
10.2800 3.4106 0.2529
10.3000 3.4173 0.2530
10.3200 3.4238 0.2457
10.3400 3.4304 0.2526
10.3600 3.4371 0.2562
10.3800 3.4439 0.2410
10.4000 3.4506 0.2528
10.4200 3.4573 0.2542
10.4400 3.4639 0.2434
10.4600 3.4706 0.2534
10.4800 3.4773 0.2492
10.5000 3.4839 0.2428
10.5200 3.4905 0.2532
10.5400 3.4972 0.2508
10.5600 3.5039 0.2420
10.5800 3.5106 0.2494
10.6000 3.5173 0.2490
10.6200 3.5240 0.2404
10.6400 3.5306 0.2559
10.6600 3.5373 0.2428
10.6800 3.5439 0.2446
10.7000 3.5505 0.2491
10.7200 3.5572 0.2490
10.7400 3.5639 0.2450
10.7600 3.5706 0.2411
10.7800 3.5773 0.2461
10.8000 3.5840 0.2407
10.8200 3.5906 0.2438
10.8400 3.5973 0.2428
10.8600 3.6039 0.2419
10.8800 3.6105 0.2407
10.9000 3.6172 0.2438
10.9200 3.6239 0.2478
10.9400 3.6306 0.2422
10.9600 3.6373 0.2426
10.9800 3.6439 0.2411
11.0000 3.6506 0.2377
11.0200 3.6572 0.2479
11.0400 3.6638 0.2397
11.0600 3.6705 0.2414
11.0800 3.6772 0.2477
11.1000 3.6839 0.2407
11.1200 3.6906 0.2368
11.1400 3.6972 0.2446
11.1600 3.7039 0.2347
11.1800 3.7106 0.2370
11.2000 3.7172 0.2465
11.2200 3.7239 0.2321
11.2400 3.7305 0.2383
11.2600 3.7372 0.2443
11.2800 3.7439 0.2298
11.3000 3.7506 0.2386
11.3200 3.7573 0.2426
11.3400 3.7640 0.2299
11.3600 3.7707 0.2382
11.3800 3.7773 0.2389
11.4000 3.7839 0.2315
11.4200 3.7905 0.2304
11.4400 3.7972 0.2429
11.4600 3.8039 0.2332
11.4800 3.8106 0.2325
11.5000 3.8173 0.2395
11.5200 3.8240 0.2293
11.5400 3.8306 0.2326
11.5600 3.8373 0.2419
11.5800 3.8439 0.2319
11.6000 3.8505 0.2332
11.6200 3.8572 0.2396
11.6400 3.8639 0.2288
11.6600 3.8705 0.2311
11.6800 3.8772 0.2419
11.7000 3.8839 0.2288
11.7200 3.8906 0.2295
11.7400 3.8972 0.2429
11.7600 3.9038 0.2263
11.7800 3.9104 0.2283
11.8000 3.9171 0.2388
11.8200 3.9238 0.2294
11.8400 3.9305 0.2261
11.8600 3.9372 0.2382
11.8800 3.9439 0.2268
11.9000 3.9506 0.2291
11.9200 3.9573 0.2390
11.9400 3.9639 0.2248
11.9600 3.9705 0.2293
11.9800 3.9772 0.2394
12.0000 3.9839 0.2268
12.0200 3.9906 0.2254
12.0400 3.9973 0.2352
12.0600 4.0040 0.2246
12.0800 4.0106 0.2238
12.1000 4.0173 0.2378
12.1200 4.0239 0.2236
12.1400 4.0305 0.2270
12.1600 4.0372 0.2369
12.1800 4.0439 0.2201
12.2000 4.0506 0.2293
12.2200 4.0573 0.2345
12.2400 4.0640 0.2222
12.2600 4.0707 0.2239
12.2800 4.0773 0.2331
12.3000 4.0839 0.2218
12.3200 4.0905 0.2287
12.3400 4.0971 0.2343
12.3600 4.1038 0.2178
12.3800 4.1106 0.2282
12.4000 4.1172 0.2305
12.4200 4.1239 0.2180
12.4400 4.1306 0.2257
12.4600 4.1373 0.2364
12.4800 4.1439 0.2153
12.5000 4.1505 0.2259
12.5200 4.1571 0.2326
12.5400 4.1639 0.2171
12.5600 4.1706 0.2272
12.5800 4.1772 0.2308
12.6000 4.1839 0.2178
12.6200 4.1906 0.2291
12.6400 4.1972 0.2265
12.6600 4.2039 0.2188
12.6800 4.2105 0.2263
12.7000 4.2172 0.2285
12.7200 4.2239 0.2163
12.7400 4.2306 0.2242
12.7600 4.2373 0.2239
12.7800 4.2439 0.2208
12.8000 4.2507 0.2249
12.8200 4.2573 0.2184
12.8400 4.2639 0.2245
12.8600 4.2705 0.2235
12.8800 4.2772 0.2176
12.9000 4.2839 0.2262
12.9200 4.2906 0.2198
12.9400 4.2973 0.2165
12.9600 4.3040 0.2246
12.9800 4.3106 0.2134
13.0000 4.3173 0.2215
13.0200 4.3239 0.2226
13.0400 4.3305 0.2161
13.0600 4.3372 0.2258
13.0800 4.3439 0.2247
13.1000 4.3506 0.2077
13.1200 4.3573 0.2268
13.1400 4.3639 0.2213
13.1600 4.3706 0.2092
13.1800 4.3773 0.2287
13.2000 4.3839 0.2157
13.2200 4.3905 0.2097
13.2400 4.3971 0.2276
13.2600 4.4038 0.2147
13.2800 4.4105 0.2123
13.3000 4.4172 0.2246
13.3200 4.4239 0.2134
13.3400 4.4306 0.2108
13.3600 4.4373 0.2237
13.3800 4.4439 0.2130
13.4000 4.4505 0.2127
13.4200 4.4571 0.2264
13.4400 4.4638 0.2109
13.4600 4.4706 0.2080
13.4800 4.4773 0.2205
13.5000 4.4840 0.2136
13.5200 4.4907 0.2097
13.5400 4.4973 0.2176
13.5600 4.5039 0.2141
13.5800 4.5105 0.2069
13.6000 4.5172 0.2206
13.6200 4.5239 0.2170
13.6400 4.5306 0.2078
13.6600 4.5373 0.2156
13.6800 4.5439 0.2172
13.7000 4.5506 0.2056
13.7200 4.5573 0.2161
13.7400 4.5639 0.2188
13.7600 4.5705 0.2030
13.7800 4.5771 0.2123
13.8000 4.5838 0.2216
13.8200 4.5906 0.2013
13.8400 4.5972 0.2129
13.8600 4.6039 0.2164
13.8800 4.6106 0.2051
13.9000 4.6173 0.2128
13.9200 4.6239 0.2109
13.9400 4.6305 0.2034
13.9600 4.6371 0.2142
13.9800 4.6438 0.2129
14.0000 4.6505 0.2009
14.0200 4.6572 0.2189
14.0400 4.6639 0.2085
14.0600 4.6706 0.1977
14.0800 4.6773 0.2196
14.1000 4.6839 0.2070
14.1200 4.6905 0.1980
14.1400 4.6971 0.2193
14.1600 4.7038 0.2037
14.1800 4.7105 0.2009
14.2000 4.7172 0.2102
14.2200 4.7238 0.2086
14.2400 4.7305 0.2002
14.2600 4.7373 0.2108
14.2800 4.7440 0.2033
14.3000 4.7506 0.2041
14.3200 4.7573 0.2114
14.3400 4.7639 0.2033
14.3600 4.7706 0.2077
14.3800 4.7773 0.2075
14.4000 4.7840 0.2042
14.4200 4.7907 0.2019
14.4400 4.7974 0.2100
14.4600 4.8040 0.2021
14.4800 4.8105 0.2013
14.5000 4.8172 0.2093
14.5200 4.8238 0.2030
14.5400 4.8305 0.2036
14.5600 4.8372 0.2059
14.5800 4.8439 0.1988
14.6000 4.8505 0.2029
14.6200 4.8572 0.2025
14.6400 4.8639 0.2042
14.6600 4.8705 0.2026
14.6800 4.8771 0.2055
14.7000 4.8838 0.2026
14.7200 4.8905 0.1979
14.7400 4.8972 0.2012
14.7600 4.9039 0.1994
14.7800 4.9106 0.2044
14.8000 4.9173 0.1968
14.8200 4.9239 0.1996
14.8400 4.9306 0.2038
14.8600 4.9372 0.1994
14.8800 4.9439 0.2007
14.9000 4.9506 0.2017
14.9200 4.9573 0.1993
14.9400 4.9639 0.2012
14.9600 4.9706 0.1969
14.9800 4.9773 0.1972
15.0000 4.9839 0.1968
15.0200 4.9905 0.1976
15.0400 4.9971 0.1995
15.0600 5.0038 0.2012
15.0800 5.0105 0.1943
15.1000 5.0173 0.1995
15.1200 5.0240 0.1996
15.1400 5.0306 0.1951
15.1600 5.0373 0.2018
15.1800 5.0439 0.1933
15.2000 5.0506 0.1962
15.2200 5.0572 0.1993
15.2400 5.0639 0.1958
15.2600 5.0706 0.1929
15.2800 5.0773 0.2003
15.3000 5.0839 0.1949
15.3200 5.0906 0.1950
15.3400 5.0973 0.1972
15.3600 5.1039 0.1973
15.3800 5.1105 0.1937
15.4000 5.1171 0.1939
15.4200 5.1238 0.1947
15.4400 5.1305 0.1969
15.4600 5.1372 0.1938
15.4800 5.1439 0.1947
15.5000 5.1506 0.1990
15.5200 5.1572 0.1915
15.5400 5.1639 0.1964
15.5600 5.1705 0.1932
15.5800 5.1771 0.1926
15.6000 5.1838 0.1989
15.6200 5.1906 0.1930
15.6400 5.1973 0.1867
15.6600 5.2039 0.1964
15.6800 5.2106 0.1930
15.7000 5.2173 0.1900
15.7200 5.2240 0.1917
15.7400 5.2306 0.1966
15.7600 5.2372 0.1880
15.7800 5.2439 0.1943
15.8000 5.2506 0.1916
15.8200 5.2573 0.1838
15.8400 5.2639 0.1966
15.8600 5.2706 0.1938
15.8800 5.2773 0.1819
15.9000 5.2840 0.1965
15.9200 5.2906 0.1945
15.9400 5.2972 0.1795
15.9600 5.3038 0.1955
15.9800 5.3105 0.1942
16.0000 5.3172 0.1833
16.0200 5.3239 0.1910
16.0400 5.3306 0.1902
16.0600 5.3373 0.1821
16.0800 5.3439 0.1920
16.1000 5.3505 0.1853
16.1200 5.3571 0.1841
16.1400 5.3638 0.1932
16.1600 5.3706 0.1878
16.1800 5.3773 0.1821
16.2000 5.3839 0.1883
16.2200 5.3906 0.1871
16.2400 5.3973 0.1836
16.2600 5.4039 0.1878
16.2800 5.4106 0.1849
16.3000 5.4172 0.1805
16.3200 5.4239 0.1901
16.3400 5.4306 0.1840
16.3600 5.4372 0.1800
16.3800 5.4439 0.1893
16.4000 5.4506 0.1825
16.4200 5.4573 0.1805
16.4400 5.4640 0.1811
16.4600 5.4706 0.1815
16.4800 5.4771 0.1810
16.5000 5.4838 0.1810
16.5200 5.4905 0.1842
16.5400 5.4973 0.1852
16.5600 5.5040 0.1749
16.5800 5.5106 0.1792
16.6000 5.5173 0.1848
16.6200 5.5239 0.1767
16.6400 5.5304 0.1814
16.6600 5.5371 0.1837
16.6800 5.5438 0.1770
16.7000 5.5505 0.1857
16.7200 5.5573 0.1806
16.7400 5.5640 0.1736
16.7600 5.5706 0.1838
16.7800 5.5773 0.1816
16.8000 5.5839 0.1760
16.8200 5.5906 0.1828
16.8400 5.5972 0.1824
16.8600 5.6038 0.1765
16.8800 5.6105 0.1856
16.9000 5.6172 0.1769
16.9200 5.6239 0.1766
16.9400 5.6306 0.1855
16.9600 5.6373 0.1750
16.9800 5.6440 0.1773
17.0000 5.6506 0.1852
17.0200 5.6572 0.1773
17.0400 5.6638 0.1789
17.0600 5.6706 0.1809
17.0800 5.6773 0.1750
17.1000 5.6840 0.1786
17.1200 5.6906 0.1800
17.1400 5.6973 0.1753
17.1600 5.7039 0.1705
17.1800 5.7106 0.1837
17.2000 5.7172 0.1806
17.2200 5.7238 0.1759
17.2400 5.7306 0.1789
17.2600 5.7373 0.1775
17.2800 5.7440 0.1731
17.3000 5.7506 0.1807
17.3200 5.7573 0.1748
17.3400 5.7640 0.1720
17.3600 5.7706 0.1798
17.3800 5.7772 0.1760
17.4000 5.7838 0.1722
17.4200 5.7905 0.1782
17.4400 5.7972 0.1717
17.4600 5.8039 0.1729
17.4800 5.8106 0.1779
17.5000 5.8173 0.1708
17.5200 5.8240 0.1752
17.5400 5.8306 0.1725
17.5600 5.8371 0.1717
17.5800 5.8438 0.1760
17.6000 5.8505 0.1772
17.6200 5.8572 0.1693
17.6400 5.8639 0.1764
17.6600 5.8706 0.1736
17.6800 5.8773 0.1727
17.7000 5.8839 0.1731
17.7200 5.8906 0.1735
17.7400 5.8972 0.1744
17.7600 5.9039 0.1688
17.7800 5.9106 0.1703
17.8000 5.9173 0.1793
17.8200 5.9239 0.1658
17.8400 5.9306 0.1718
17.8600 5.9373 0.1762
17.8800 5.9440 0.1669
17.9000 5.9506 0.1715
17.9200 5.9572 0.1745
17.9400 5.9639 0.1659
17.9600 5.9706 0.1723
17.9800 5.9773 0.1796
18.0000 5.9840 0.1594
18.0200 5.9906 0.1722
18.0400 5.9973 0.1809
18.0600 6.0040 0.1576
18.0800 6.0106 0.1713
18.1000 6.0171 0.1805
18.1200 6.0238 0.1586
18.1400 6.0305 0.1722
18.1600 6.0372 0.1745
18.1800 6.0439 0.1553
18.2000 6.0506 0.1751
18.2200 6.0573 0.1762
18.2400 6.0639 0.1524
18.2600 6.0705 0.1761
18.2800 6.0771 0.1724
18.3000 6.0838 0.1515
18.3200 6.0905 0.1766
18.3400 6.0972 0.1698
18.3600 6.1039 0.1502
18.3800 6.1106 0.1718
18.4000 6.1173 0.1716
18.4200 6.1240 0.1524
18.4400 6.1306 0.1746
18.4600 6.1372 0.1673
18.4800 6.1438 0.1561
18.5000 6.1505 0.1695
18.5200 6.1572 0.1660
18.5400 6.1639 0.1555
18.5600 6.1706 0.1672
18.5800 6.1773 0.1623
18.6000 6.1840 0.1532
18.6200 6.1906 0.1688
18.6400 6.1972 0.1629
18.6600 6.2038 0.1545
18.6800 6.2105 0.1658
18.7000 6.2173 0.1635
18.7200 6.2240 0.1514
18.7400 6.2306 0.1674
18.7600 6.2373 0.1636
18.7800 6.2440 0.1549
18.8000 6.2506 0.1623
18.8200 6.2572 0.1647
18.8400 6.2638 0.1559
18.8600 6.2705 0.1671
18.8800 6.2772 0.1646
18.9000 6.2839 0.1532
18.9200 6.2906 0.1631
18.9400 6.2973 0.1648
18.9600 6.3039 0.1539
18.9800 6.3106 0.1614
19.0000 6.3172 0.1627
19.0200 6.3238 0.1500
19.0400 6.3305 0.1636
19.0600 6.3372 0.1641
19.0800 6.3439 0.1497
19.1000 6.3506 0.1636
19.1200 6.3573 0.1641
19.1400 6.3639 0.1520
19.1600 6.3706 0.1646
19.1800 6.3772 0.1654
19.2000 6.3838 0.1519
19.2200 6.3905 0.1610
19.2400 6.3973 0.1583
19.2600 6.4040 0.1499
19.2800 6.4106 0.1652
19.3000 6.4173 0.1597
19.3200 6.4240 0.1506
19.3400 6.4306 0.1579
19.3600 6.4372 0.1590
19.3800 6.4438 0.1482
19.4000 6.4505 0.1601
19.4200 6.4572 0.1617
19.4400 6.4639 0.1476
19.4600 6.4706 0.1567
19.4800 6.4773 0.1607
19.5000 6.4840 0.1469
19.5200 6.4906 0.1553
19.5400 6.4972 0.1625
19.5600 6.5038 0.1489
19.5800 6.5105 0.1523
19.6000 6.5172 0.1605
19.6200 6.5239 0.1505
19.6400 6.5306 0.1521
19.6600 6.5373 0.1584
19.6800 6.5440 0.1488
19.7000 6.5506 0.1534
19.7200 6.5572 0.1584
19.7400 6.5638 0.1475
19.7600 6.5705 0.1535
19.7800 6.5772 0.1592
19.8000 6.5839 0.1429
19.8200 6.5905 0.1515
19.8400 6.5972 0.1629
19.8600 6.6039 0.1432
19.8800 6.6106 0.1490
19.9000 6.6172 0.1644
19.9200 6.6238 0.1458
19.9400 6.6305 0.1520
19.9600 6.6372 0.1601
19.9800 6.6439 0.1378
20.0000 6.6506 0.1515
20.0200 6.6573 0.1594
20.0400 6.6640 0.1386
20.0600 6.6707 0.1522
20.0800 6.6772 0.1577
20.1000 6.6839 0.1417
20.1200 6.6905 0.1549
20.1400 6.6972 0.1479
20.1600 6.7040 0.1407
20.1800 6.7106 0.1582
20.2000 6.7173 0.1472
20.2200 6.7240 0.1409
20.2400 6.7306 0.1540
20.2600 6.7372 0.1452
20.2800 6.7438 0.1431
20.3000 6.7505 0.1565
20.3200 6.7572 0.1424
20.3400 6.7639 0.1450
20.3600 6.7706 0.1529
20.3800 6.7772 0.1413
20.4000 6.7839 0.1452
20.4200 6.7906 0.1520
20.4400 6.7972 0.1392
20.4600 6.8038 0.1467
20.4800 6.8105 0.1480
20.5000 6.8172 0.1437
20.5200 6.8239 0.1472
20.5400 6.8306 0.1410
20.5600 6.8373 0.1413
20.5800 6.8440 0.1489
20.6000 6.8506 0.1440
20.6200 6.8572 0.1392
20.6400 6.8638 0.1460
20.6600 6.8705 0.1470
20.6800 6.8772 0.1411
20.7000 6.8839 0.1418
20.7200 6.8906 0.1450
20.7400 6.8973 0.1409
20.7600 6.9040 0.1433
20.7800 6.9106 0.1390
20.8000 6.9172 0.1456
20.8200 6.9238 0.1401
20.8400 6.9305 0.1448
20.8600 6.9372 0.1408
20.8800 6.9439 0.1384
20.9000 6.9506 0.1429
20.9200 6.9573 0.1413
20.9400 6.9640 0.1379
20.9600 6.9706 0.1382
20.9800 6.9773 0.1422
21.0000 6.9839 0.1389
21.0200 6.9905 0.1408
21.0400 6.9972 0.1391
21.0600 7.0039 0.1364
21.0800 7.0106 0.1411
21.1000 7.0173 0.1370
21.1200 7.0240 0.1372
21.1400 7.0306 0.1404
21.1600 7.0372 0.1340
21.1800 7.0438 0.1407
21.2000 7.0504 0.1387
21.2200 7.0571 0.1379
21.2400 7.0639 0.1350
21.2600 7.0706 0.1353
21.2800 7.0772 0.1343
21.3000 7.0839 0.1375
21.3200 7.0906 0.1346
21.3400 7.0972 0.1328
21.3600 7.1038 0.1407
21.3800 7.1105 0.1331
21.4000 7.1172 0.1338
21.4200 7.1239 0.1368
21.4400 7.1306 0.1303
21.4600 7.1373 0.1346
21.4800 7.1440 0.1390
21.5000 7.1506 0.1294
21.5200 7.1573 0.1362
21.5400 7.1639 0.1384
21.5600 7.1705 0.1277
21.5800 7.1772 0.1337
21.6000 7.1839 0.1348
21.6200 7.1906 0.1234
21.6400 7.1973 0.1359
21.6600 7.2040 0.1365
21.6800 7.2106 0.1237
21.7000 7.2172 0.1367
21.7200 7.2238 0.1299
21.7400 7.2305 0.1279
21.7600 7.2372 0.1379
21.7800 7.2439 0.1265
21.8000 7.2506 0.1299
21.8200 7.2573 0.1396
21.8400 7.2639 0.1264
21.8600 7.2706 0.1330
21.8800 7.2772 0.1373
21.9000 7.2838 0.1267
21.9200 7.2905 0.1322
21.9400 7.2972 0.1355
21.9600 7.3039 0.1211
21.9800 7.3105 0.1349
22.0000 7.3172 0.1296
22.0200 7.3239 0.1238
22.0400 7.3306 0.1328
22.0600 7.3372 0.1248
22.0800 7.3438 0.1290
22.1000 7.3505 0.1299
22.1200 7.3572 0.1274
22.1400 7.3639 0.1255
22.1600 7.3706 0.1311
22.1800 7.3773 0.1276
22.2000 7.3840 0.1296
22.2200 7.3907 0.1278
22.2400 7.3973 0.1267
22.2600 7.4039 0.1300
22.2800 7.4105 0.1265
22.3000 7.4172 0.1295
22.3200 7.4239 0.1305
22.3400 7.4306 0.1209
22.3600 7.4373 0.1254
22.3800 7.4439 0.1282
22.4000 7.4506 0.1222
22.4200 7.4572 0.1256
22.4400 7.4638 0.1311
22.4600 7.4705 0.1246
22.4800 7.4772 0.1222
22.5000 7.4839 0.1240
22.5200 7.4906 0.1295
22.5400 7.4972 0.1254
22.5600 7.5039 0.1251
22.5800 7.5106 0.1215
22.6000 7.5172 0.1224
22.6200 7.5238 0.1263
22.6400 7.5304 0.1256
22.6600 7.5372 0.1229
22.6800 7.5439 0.1206
22.7000 7.5506 0.1263
22.7200 7.5573 0.1193
22.7400 7.5640 0.1208
22.7600 7.5706 0.1258
22.7800 7.5772 0.1180
22.8000 7.5838 0.1230
22.8200 7.5905 0.1263
22.8400 7.5972 0.1186
22.8600 7.6039 0.1241
22.8800 7.6106 0.1230
22.9000 7.6173 0.1176
22.9200 7.6240 0.1209
22.9400 7.6307 0.1238
22.9600 7.6373 0.1142
22.9800 7.6439 0.1197
23.0000 7.6505 0.1260
23.0200 7.6572 0.1148
23.0400 7.6639 0.1191
23.0600 7.6706 0.1217
23.0800 7.6773 0.1160
23.1000 7.6840 0.1178
23.1200 7.6907 0.1214
23.1400 7.6973 0.1128
23.1600 7.7039 0.1190
23.1800 7.7105 0.1227
23.2000 7.7172 0.1105
23.2200 7.7239 0.1126
23.2400 7.7306 0.1192
23.2600 7.7373 0.1128
23.2800 7.7440 0.1149
23.3000 7.7506 0.1236
23.3200 7.7572 0.1084
23.3400 7.7638 0.1150
23.3600 7.7704 0.1216
23.3800 7.7771 0.1124
23.4000 7.7839 0.1189
23.4200 7.7905 0.1189
23.4400 7.7972 0.1062
23.4600 7.8039 0.1207
23.4800 7.8106 0.1194
23.5000 7.8172 0.1102
23.5200 7.8238 0.1145
23.5400 7.8305 0.1163
23.5600 7.8372 0.1109
23.5800 7.8439 0.1161
23.6000 7.8506 0.1124
23.6200 7.8573 0.1135
23.6400 7.8640 0.1152
23.6600 7.8707 0.1119
23.6800 7.8773 0.1132
23.7000 7.8839 0.1119
23.7200 7.8905 0.1114
23.7400 7.8972 0.1130
23.7600 7.9039 0.1112
23.7800 7.9106 0.1095
23.8000 7.9173 0.1174
23.8200 7.9240 0.1082
23.8400 7.9307 0.1121
23.8600 7.9373 0.1127
23.8800 7.9439 0.1062
23.9000 7.9505 0.1152
23.9200 7.9572 0.1154
23.9400 7.9639 0.1054
23.9600 7.9706 0.1183
23.9800 7.9773 0.1098
24.0000 7.9839 0.1041
24.0200 7.9906 0.1157
24.0400 7.9973 0.1064
24.0600 8.0039 0.1035
24.0800 8.0105 0.1140
24.1000 8.0172 0.1070
24.1200 8.0239 0.1010
24.1400 8.0306 0.1138
24.1600 8.0372 0.1053
24.1800 8.0439 0.1039
24.2000 8.0506 0.1144
24.2200 8.0572 0.0974
24.2400 8.0638 0.1066
24.2600 8.0705 0.1169
24.2800 8.0772 0.0948
24.3000 8.0839 0.1085
24.3200 8.0906 0.1127
24.3400 8.0973 0.0975
24.3600 8.1040 0.1075
24.3800 8.1106 0.1135
24.4000 8.1173 0.0956
24.4200 8.1239 0.1112
24.4400 8.1305 0.1122
24.4600 8.1372 0.0952
24.4800 8.1439 0.1146
24.5000 8.1507 0.1014
24.5200 8.1573 0.0931
24.5400 8.1640 0.1127
24.5600 8.1706 0.1033
24.5800 8.1773 0.0952
24.6000 8.1839 0.1106
24.6200 8.1905 0.1033
24.6400 8.1972 0.0987
24.6600 8.2039 0.1087
24.6800 8.2106 0.1001
24.7000 8.2172 0.0961
24.7200 8.2239 0.1099
24.7400 8.2306 0.0962
24.7600 8.2373 0.1018
24.7800 8.2439 0.1087
24.8000 8.2505 0.0998
24.8200 8.2571 0.1020
24.8400 8.2639 0.1051
24.8600 8.2706 0.1003
24.8800 8.2773 0.1001
24.9000 8.2839 0.1038
24.9200 8.2906 0.1032
24.9400 8.2972 0.0985
24.9600 8.3039 0.1028
24.9800 8.3105 0.1040
25.0000 8.3172 0.1002
25.0200 8.3239 0.0998
25.0400 8.3306 0.1017
25.0600 8.3373 0.1034
25.0800 8.3440 0.1025
25.1000 8.3507 0.1016
25.1200 8.3573 0.0973
25.1400 8.3639 0.1045
25.1600 8.3705 0.0987
25.1800 8.3771 0.1002
25.2000 8.3838 0.1037
25.2200 8.3906 0.0964
25.2400 8.3973 0.1008
25.2600 8.4040 0.0980
25.2800 8.4107 0.0981
25.3000 8.4173 0.0957
25.3200 8.4239 0.1014
25.3400 8.4305 0.0938
25.3600 8.4372 0.0942
25.3800 8.4439 0.1035
25.4000 8.4506 0.0975
25.4200 8.4573 0.0966
25.4400 8.4640 0.1034
25.4600 8.4706 0.0918
25.4800 8.4773 0.0971
25.5000 8.4838 0.1000
25.5200 8.4904 0.0958
25.5400 8.4971 0.0961
25.5600 8.5038 0.0985
25.5800 8.5105 0.0918
25.6000 8.5172 0.0974
25.6200 8.5239 0.0994
25.6400 8.5306 0.0940
25.6600 8.5372 0.0953
25.6800 8.5439 0.0934
25.7000 8.5505 0.0948
25.7200 8.5572 0.0945
25.7400 8.5639 0.0974
25.7600 8.5706 0.0934
25.7800 8.5773 0.0943
25.8000 8.5840 0.0967
25.8200 8.5907 0.0913
25.8400 8.5973 0.0913
25.8600 8.6039 0.0976
25.8800 8.6105 0.0905
25.9000 8.6172 0.0937
25.9200 8.6239 0.0972
25.9400 8.6306 0.0895
25.9600 8.6373 0.0903
25.9800 8.6440 0.0954
26.0000 8.6506 0.0909
26.0200 8.6573 0.0884
26.0400 8.6639 0.0956
26.0600 8.6705 0.0914
26.0800 8.6772 0.0924
26.1000 8.6839 0.0944
26.1200 8.6906 0.0875
26.1400 8.6972 0.0894
26.1600 8.7039 0.0949
26.1800 8.7106 0.0889
26.2000 8.7173 0.0871
26.2200 8.7239 0.0848
26.2400 8.7305 0.0942
26.2600 8.7371 0.0905
26.2800 8.7438 0.0863
26.3000 8.7505 0.0878
26.3200 8.7572 0.0849
26.3400 8.7639 0.0927
26.3600 8.7706 0.0883
26.3800 8.7772 0.0837
26.4000 8.7839 0.0933
26.4200 8.7905 0.0899
26.4400 8.7971 0.0840
26.4600 8.8039 0.0922
26.4800 8.8106 0.0841
26.5000 8.8173 0.0846
26.5200 8.8240 0.0916
26.5400 8.8307 0.0809
26.5600 8.8373 0.0868
26.5800 8.8439 0.0897
26.6000 8.8506 0.0804
26.6200 8.8572 0.0867
26.6400 8.8639 0.0886
26.6600 8.8706 0.0815
26.6800 8.8773 0.0831
26.7000 8.8840 0.0905
26.7200 8.8907 0.0766
26.7400 8.8973 0.0811
26.7600 8.9039 0.0912
26.7800 8.9105 0.0801
26.8000 8.9171 0.0868
26.8200 8.9238 0.0891
26.8400 8.9306 0.0792
26.8600 8.9373 0.0853
26.8800 8.9439 0.0872
26.9000 8.9506 0.0773
26.9200 8.9573 0.0842
26.9400 8.9639 0.0860
26.9600 8.9705 0.0797
26.9800 8.9771 0.0863
27.0000 8.9838 0.0865
27.0200 8.9905 0.0790
27.0400 8.9972 0.0823
27.0600 9.0039 0.0845
27.0800 9.0106 0.0803
27.1000 9.0173 0.0799
27.1200 9.0239 0.0818
27.1400 9.0305 0.0780
27.1600 9.0372 0.0820
27.1800 9.0438 0.0848
27.2000 9.0505 0.0765
27.2200 9.0572 0.0817
27.2400 9.0639 0.0866
27.2600 9.0706 0.0800
27.2800 9.0773 0.0796
27.3000 9.0839 0.0824
27.3200 9.0905 0.0781
27.3400 9.0972 0.0793
27.3600 9.1039 0.0771
27.3800 9.1106 0.0788
27.4000 9.1173 0.0751
27.4200 9.1240 0.0810
27.4400 9.1306 0.0795
27.4600 9.1373 0.0775
27.4800 9.1439 0.0825
27.5000 9.1505 0.0756
27.5200 9.1572 0.0818
27.5400 9.1639 0.0823
27.5600 9.1706 0.0721
27.5800 9.1773 0.0767
27.6000 9.1839 0.0810
27.6200 9.1906 0.0759
27.6400 9.1973 0.0780
27.6600 9.2039 0.0761
27.6800 9.2105 0.0780
27.7000 9.2171 0.0725
27.7200 9.2238 0.0809
27.7400 9.2305 0.0744
27.7600 9.2372 0.0790
27.7800 9.2439 0.0775
27.8000 9.2506 0.0721
27.8200 9.2573 0.0752
27.8400 9.2639 0.0765
27.8600 9.2705 0.0751
27.8800 9.2772 0.0763
27.9000 9.2838 0.0763
27.9200 9.2906 0.0739
27.9400 9.2973 0.0710
27.9600 9.3040 0.0774
27.9800 9.3107 0.0781
28.0000 9.3173 0.0665
28.0200 9.3239 0.0785
28.0400 9.3305 0.0747
28.0600 9.3372 0.0715
28.0800 9.3439 0.0757
28.1000 9.3506 0.0686
28.1200 9.3573 0.0662
28.1400 9.3639 0.0810
28.1600 9.3706 0.0732
28.1800 9.3773 0.0620
28.2000 9.3839 0.0776
28.2200 9.3905 0.0712
28.2400 9.3971 0.0672
28.2600 9.4038 0.0814
28.2800 9.4105 0.0692
28.3000 9.4172 0.0645
28.3200 9.4239 0.0774
28.3400 9.4306 0.0683
28.3600 9.4373 0.0622
28.3800 9.4439 0.0778
28.4000 9.4505 0.0654
28.4200 9.4571 0.0638
28.4400 9.4638 0.0791
28.4600 9.4705 0.0597
28.4800 9.4772 0.0708
28.5000 9.4839 0.0782
28.5200 9.4906 0.0605
28.5400 9.4973 0.0685
28.5600 9.5039 0.0729
28.5800 9.5105 0.0634
28.6000 9.5172 0.0692
28.6200 9.5238 0.0696
28.6400 9.5306 0.0604
28.6600 9.5373 0.0669
28.6800 9.5440 0.0715
28.7000 9.5506 0.0580
28.7200 9.5573 0.0693
28.7400 9.5640 0.0682
28.7600 9.5706 0.0587
28.7800 9.5772 0.0703
28.8000 9.5839 0.0650
28.8200 9.5906 0.0569
28.8400 9.5973 0.0718
28.8600 9.6040 0.0661
28.8800 9.6107 0.0571
28.9000 9.6173 0.0694
28.9200 9.6240 0.0643
28.9400 9.6305 0.0575
28.9600 9.6372 0.0709
28.9800 9.6438 0.0643
29.0000 9.6505 0.0566
29.0200 9.6572 0.0695
29.0400 9.6639 0.0634
29.0600 9.6705 0.0637
29.0800 9.6772 0.0618
29.1000 9.6839 0.0590
29.1200 9.6905 0.0626
29.1400 9.6971 0.0598
29.1600 9.7038 0.0677
29.1800 9.7105 0.0566
29.2000 9.7172 0.0581
29.2200 9.7239 0.0637
29.2400 9.7306 0.0648
29.2600 9.7373 0.0594
29.2800 9.7439 0.0657
29.3000 9.7506 0.0592
29.3200 9.7572 0.0576
29.3400 9.7639 0.0680
29.3600 9.7706 0.0595
29.3800 9.7773 0.0603
29.4000 9.7840 0.0653
29.4200 9.7906 0.0530
29.4400 9.7973 0.0587
29.4600 9.8040 0.0642
29.4800 9.8105 0.0587
29.5000 9.8171 0.0615
29.5200 9.8238 0.0603
29.5400 9.8306 0.0576
29.5600 9.8373 0.0596
29.5800 9.8440 0.0628
29.6000 9.8506 0.0556
29.6200 9.8573 0.0581
29.6400 9.8639 0.0591
29.6600 9.8706 0.0587
29.6800 9.8772 0.0578
29.7000 9.8838 0.0635
29.7200 9.8905 0.0527
29.7400 9.8972 0.0546
29.7600 9.9039 0.0624
29.7800 9.9106 0.0560
29.8000 9.9173 0.0543
29.8200 9.9239 0.0593
29.8400 9.9305 0.0543
29.8600 9.9371 0.0565
29.8800 9.9438 0.0591
29.9000 9.9505 0.0555
29.9200 9.9572 0.0579
29.9400 9.9639 0.0563
29.9600 9.9706 0.0555
29.9800 9.9772 0.0524
30.0000 9.9839 0.0536
30.0200 9.9905 0.0546
30.0400 9.9972 0.0558
30.0600 10.0038 0.0535
30.0800 10.0106 0.0564
30.1000 10.0173 0.0499
30.1200 10.0240 0.0560
30.1400 10.0306 0.0554
30.1600 10.0373 0.0466
30.1800 10.0440 0.0538
30.2000 10.0506 0.0533
30.2200 10.0572 0.0518
30.2400 10.0639 0.0545
30.2600 10.0706 0.0538
30.2800 10.0773 0.0489
30.3000 10.0840 0.0538
30.3200 10.0906 0.0516
30.3400 10.0973 0.0506
30.3600 10.1040 0.0498
30.3800 10.1106 0.0529
30.4000 10.1172 0.0501
30.4200 10.1238 0.0486
30.4400 10.1305 0.0492
30.4600 10.1372 0.0480
30.4800 10.1439 0.0504
30.5000 10.1506 0.0549
30.5200 10.1573 0.0469
30.5400 10.1639 0.0510
30.5600 10.1705 0.0513
30.5800 10.1771 0.0477
30.6000 10.1838 0.0528
30.6200 10.1905 0.0511
30.6400 10.1973 0.0464
30.6600 10.2039 0.0480
30.6800 10.2106 0.0518
30.7000 10.2173 0.0451
30.7200 10.2239 0.0529
30.7400 10.2306 0.0478
30.7600 10.2372 0.0434
30.7800 10.2439 0.0514
30.8000 10.2506 0.0491
30.8200 10.2572 0.0435
30.8400 10.2639 0.0496
30.8600 10.2706 0.0463
30.8800 10.2773 0.0433
30.9000 10.2840 0.0502
30.9200 10.2906 0.0448
30.9400 10.2972 0.0413
30.9600 10.3038 0.0515
30.9800 10.3105 0.0436
31.0000 10.3173 0.0391
31.0200 10.3240 0.0531
31.0400 10.3306 0.0429
31.0600 10.3373 0.0421
31.0800 10.3439 0.0493
31.1000 10.3505 0.0409
31.1200 10.3571 0.0459
31.1400 10.3638 0.0487
31.1600 10.3705 0.0395
31.1800 10.3772 0.0422
31.2000 10.3839 0.0435
31.2200 10.3906 0.0419
31.2400 10.3973 0.0410
31.2600 10.4039 0.0471
31.2800 10.4106 0.0379
31.3000 10.4172 0.0399
31.3200 10.4238 0.0475
31.3400 10.4305 0.0390
31.3600 10.4372 0.0413
31.3800 10.4439 0.0427
31.4000 10.4506 0.0427
31.4200 10.4573 0.0404
31.4400 10.4640 0.0374
31.4600 10.4706 0.0404
31.4800 10.4772 0.0436
31.5000 10.4838 0.0403
31.5200 10.4905 0.0409
31.5400 10.4972 0.0384
31.5600 10.5040 0.0424
31.5800 10.5106 0.0414
31.6000 10.5173 0.0377
31.6200 10.5240 0.0384
31.6400 10.5306 0.0425
31.6600 10.5372 0.0346
31.6800 10.5438 0.0435
31.7000 10.5505 0.0436
31.7200 10.5573 0.0366
31.7400 10.5640 0.0391
31.7600 10.5706 0.0422
31.7800 10.5773 0.0352
31.8000 10.5840 0.0386
31.8200 10.5906 0.0427
31.8400 10.5972 0.0335
31.8600 10.6038 0.0422
31.8800 10.6105 0.0438
31.9000 10.6172 0.0331
31.9200 10.6239 0.0398
31.9400 10.6306 0.0402
31.9600 10.6373 0.0280
31.9800 10.6440 0.0424
32.0000 10.6506 0.0372
32.0200 10.6571 0.0315
32.0400 10.6638 0.0407
32.0600 10.6705 0.0379
32.0800 10.6772 0.0262
32.1000 10.6839 0.0442
32.1200 10.6906 0.0377
32.1400 10.6973 0.0291
32.1600 10.7039 0.0363
32.1800 10.7106 0.0350
32.2000 10.7172 0.0329
32.2200 10.7238 0.0390
32.2400 10.7305 0.0370
32.2600 10.7372 0.0284
32.2800 10.7439 0.0375
32.3000 10.7506 0.0347
32.3200 10.7573 0.0323
32.3400 10.7640 0.0381
32.3600 10.7707 0.0329
32.3800 10.7772 0.0317
32.4000 10.7839 0.0382
32.4200 10.7905 0.0333
32.4400 10.7972 0.0328
32.4600 10.8039 0.0342
32.4800 10.8106 0.0334
32.5000 10.8173 0.0308
32.5200 10.8240 0.0330
32.5400 10.8306 0.0314
32.5600 10.8372 0.0293
32.5800 10.8438 0.0342
32.6000 10.8505 0.0342
32.6200 10.8572 0.0280
32.6400 10.8639 0.0346
32.6600 10.8706 0.0318
32.6800 10.8773 0.0232
32.7000 10.8839 0.0356
32.7200 10.8906 0.0282
32.7400 10.8972 0.0267
32.7600 10.9038 0.0295
32.7800 10.9105 0.0287
32.8000 10.9172 0.0215
32.8200 10.9239 0.0276
32.8400 10.9306 0.0312
32.8600 10.9372 0.0235
32.8800 10.9439 0.0276
32.9000 10.9506 0.0262
32.9200 10.9572 0.0259
32.9400 10.9638 0.0319
32.9600 10.9705 0.0269
32.9800 10.9772 0.0267
33.0000 10.9839 0.0299
33.0200 10.9906 0.0232
33.0400 10.9973 0.0288
33.0600 11.0040 0.0279
33.0800 11.0106 0.0249
33.1000 11.0172 0.0274
33.1200 11.0238 0.0242
33.1400 11.0305 0.0219
33.1600 11.0372 0.0292
33.1800 11.0439 0.0242
33.2000 11.0506 0.0214
33.2200 11.0573 0.0246
33.2400 11.0640 0.0221
33.2600 11.0706 0.0207
33.2800 11.0772 0.0290
33.3000 11.0838 0.0226
33.3200 11.0905 0.0235
33.3400 11.0972 0.0192
33.3600 11.1039 0.0205
33.3800 11.1106 0.0237
33.4000 11.1173 0.0227
33.4200 11.1240 0.0211
33.4400 11.1306 0.0195
33.4600 11.1372 0.0249
33.4800 11.1438 0.0145
33.5000 11.1505 0.0204
33.5200 11.1572 0.0216
33.5400 11.1639 0.0181
33.5600 11.1706 0.0160
33.5800 11.1773 0.0223
33.6000 11.1840 0.0161
33.6200 11.1906 0.0174
33.6400 11.1972 0.0206
33.6600 11.2038 0.0208
33.6800 11.2105 0.0170
33.7000 11.2173 0.0184
33.7200 11.2240 0.0184
33.7400 11.2307 0.0167
33.7600 11.2373 0.0166
33.7800 11.2440 0.0199
33.8000 11.2506 0.0201
33.8200 11.2572 0.0130
33.8400 11.2638 0.0238
33.8600 11.2705 0.0150
33.8800 11.2772 0.0112
33.9000 11.2839 0.0202
33.9200 11.2906 0.0172
33.9400 11.2973 0.0117
33.9600 11.3040 0.0213
33.9800 11.3106 0.0131
34.0000 11.3172 0.0082
34.0200 11.3238 0.0195
34.0400 11.3305 0.0101
34.0600 11.3372 0.0134
34.0800 11.3439 0.0191
34.1000 11.3506 0.0112
34.1200 11.3573 0.0163
34.1400 11.3640 0.0125
34.1600 11.3706 0.0089
34.1800 11.3772 0.0156
34.2000 11.3838 0.0142
34.2200 11.3904 0.0147
34.2400 11.3972 0.0138
34.2600 11.4039 0.0118
34.2800 11.4106 0.0124
34.3000 11.4172 0.0154
34.3200 11.4239 0.0071
34.3400 11.4306 0.0132
34.3600 11.4372 0.0166
34.3800 11.4438 0.0080
34.4000 11.4505 0.0145
34.4200 11.4572 0.0119
34.4400 11.4639 0.0063
34.4600 11.4706 0.0179
34.4800 11.4773 0.0070
34.5000 11.4840 0.0089
34.5200 11.4906 0.0171
34.5400 11.4972 0.0079
34.5600 11.5038 0.0123
34.5800 11.5105 0.0095
34.6000 11.5172 0.0079
34.6200 11.5239 0.0121
34.6400 11.5306 0.0099
34.6600 11.5373 0.0071
34.6800 11.5440 0.0134
34.7000 11.5506 0.0057
34.7200 11.5572 0.0094
34.7400 11.5638 0.0086
34.7600 11.5705 0.0107
34.7800 11.5772 0.0079
34.8000 11.5839 0.0108
34.8200 11.5906 0.0028
34.8400 11.5972 0.0103
34.8600 11.6039 0.0044
34.8800 11.6106 0.0044
34.9000 11.6172 0.0092
34.9200 11.6238 0.0001
34.9400 11.6305 0.0080
34.9600 11.6372 0.0109
34.9800 11.6439 0.0030
35.0000 11.6506 0.0116
35.0200 11.6573 0.0113
35.0400 11.6640 -0.0020
35.0600 11.6706 0.0061
35.0800 11.6773 0.0066
35.1000 11.6839 0.0021
35.1200 11.6905 0.0051
35.1400 11.6972 0.0062
35.1600 11.7039 -0.0039
35.1800 11.7106 0.0054
35.2000 11.7173 0.0053
35.2200 11.7240 0.0011
35.2400 11.7306 0.0028
35.2600 11.7372 0.0067
35.2800 11.7438 0.0022
35.3000 11.7505 -0.0004
35.3200 11.7572 0.0055
35.3400 11.7639 0.0015
35.3600 11.7706 0.0012
35.3800 11.7773 -0.0016
35.4000 11.7840 -0.0011
35.4200 11.7907 -0.0006
35.4400 11.7973 0.0008
35.4600 11.8039 -0.0012
35.4800 11.8105 0.0016
35.5000 11.8172 0.0034
35.5200 11.8239 -0.0029
35.5400 11.8306 -0.0063
35.5600 11.8373 0.0049
35.5800 11.8440 0.0003
35.6000 11.8506 -0.0044
35.6200 11.8572 -0.0007
35.6400 11.8638 -0.0007
35.6600 11.8704 -0.0083
35.6800 11.8771 0.0018
35.7000 11.8839 0.0032
35.7200 11.8906 -0.0090
35.7400 11.8973 0.0028
35.7600 11.9039 -0.0035
35.7800 11.9106 -0.0093
35.8000 11.9172 0.0085
35.8200 11.9238 -0.0065
35.8400 11.9305 -0.0090
35.8600 11.9372 0.0075
35.8800 11.9439 -0.0091
35.9000 11.9506 -0.0115
35.9200 11.9573 0.0062
35.9400 11.9640 -0.0079
35.9600 11.9706 -0.0119
35.9800 11.9773 0.0083
36.0000 11.9839 -0.0096
36.0200 11.9905 -0.0080
36.0400 11.9972 0.0062
36.0600 12.0039 -0.0111
36.0800 12.0106 -0.0085
36.1000 12.0173 0.0027
36.1200 12.0240 -0.0080
36.1400 12.0306 -0.0062
36.1600 12.0372 0.0021
36.1800 12.0438 -0.0064
36.2000 12.0505 -0.0038
36.2200 12.0572 0.0000
36.2400 12.0639 -0.0085
36.2600 12.0706 -0.0111
36.2800 12.0773 0.0038
36.3000 12.0839 -0.0066
36.3200 12.0906 -0.0100
36.3400 12.0972 -0.0009
36.3600 12.1038 -0.0047
36.3800 12.1105 -0.0106
36.4000 12.1172 -0.0024
36.4200 12.1239 -0.0045
36.4400 12.1305 -0.0106
36.4600 12.1372 0.0000
36.4800 12.1439 -0.0072
36.5000 12.1506 -0.0117
36.5200 12.1572 -0.0019
36.5400 12.1639 -0.0057
36.5600 12.1705 -0.0151
36.5800 12.1772 -0.0007
36.6000 12.1839 -0.0090
36.6200 12.1906 -0.0142
36.6400 12.1973 -0.0033
36.6600 12.2040 -0.0067
36.6800 12.2107 -0.0137
36.7000 12.2173 -0.0038
36.7200 12.2239 -0.0076
36.7400 12.2305 -0.0092
36.7600 12.2372 -0.0062
36.7800 12.2439 -0.0105
36.8000 12.2506 -0.0085
36.8200 12.2573 -0.0055
36.8400 12.2639 -0.0139
36.8600 12.2706 -0.0057
36.8800 12.2772 -0.0084
36.9000 12.2839 -0.0117
36.9200 12.2905 -0.0062
36.9400 12.2972 -0.0094
36.9600 12.3039 -0.0129
36.9800 12.3105 -0.0122
37.0000 12.3172 -0.0099
37.0200 12.3239 -0.0097
37.0400 12.3306 -0.0139
37.0600 12.3373 -0.0117
37.0800 12.3439 -0.0111
37.1000 12.3505 -0.0142
37.1200 12.3571 -0.0085
37.1400 12.3639 -0.0127
37.1600 12.3706 -0.0140
37.1800 12.3773 -0.0111
37.2000 12.3840 -0.0126
37.2200 12.3906 -0.0221
37.2400 12.3973 -0.0079
37.2600 12.4039 -0.0139
37.2800 12.4105 -0.0230
37.3000 12.4172 -0.0065
37.3200 12.4239 -0.0144
37.3400 12.4306 -0.0201
37.3600 12.4373 -0.0094
37.3800 12.4440 -0.0162
37.4000 12.4507 -0.0197
37.4200 12.4573 -0.0135
37.4400 12.4639 -0.0173
37.4600 12.4705 -0.0165
37.4800 12.4772 -0.0125
37.5000 12.4839 -0.0193
37.5200 12.4906 -0.0263
37.5400 12.4973 -0.0112
37.5600 12.5040 -0.0162
37.5800 12.5107 -0.0243
37.6000 12.5173 -0.0122
37.6200 12.5239 -0.0142
37.6400 12.5305 -0.0279
37.6600 12.5372 -0.0117
37.6800 12.5439 -0.0180
37.7000 12.5506 -0.0281
37.7200 12.5573 -0.0108
37.7400 12.5639 -0.0267
37.7600 12.5706 -0.0245
37.7800 12.5772 -0.0079
37.8000 12.5838 -0.0242
37.8200 12.5904 -0.0255
37.8400 12.5971 -0.0120
37.8600 12.6039 -0.0261
37.8800 12.6106 -0.0270
37.9000 12.6172 -0.0113
37.9200 12.6239 -0.0270
37.9400 12.6306 -0.0208
37.9600 12.6372 -0.0176
37.9800 12.6439 -0.0344
38.0000 12.6505 -0.0197
38.0200 12.6572 -0.0160
38.0400 12.6639 -0.0266
38.0600 12.6706 -0.0251
38.0800 12.6773 -0.0203
38.1000 12.6840 -0.0254
38.1200 12.6907 -0.0255
38.1400 12.6973 -0.0264
38.1600 12.7039 -0.0237
38.1800 12.7105 -0.0235
38.2000 12.7172 -0.0272
38.2200 12.7239 -0.0207
38.2400 12.7306 -0.0252
38.2600 12.7373 -0.0300
38.2800 12.7440 -0.0219
38.3000 12.7506 -0.0264
38.3200 12.7573 -0.0324
38.3400 12.7639 -0.0203
38.3600 12.7705 -0.0285
38.3800 12.7772 -0.0270
38.4000 12.7839 -0.0221
38.4200 12.7906 -0.0317
38.4400 12.7973 -0.0324
38.4600 12.8039 -0.0205
38.4800 12.8106 -0.0310
38.5000 12.8173 -0.0340
38.5200 12.8239 -0.0252
38.5400 12.8305 -0.0359
38.5600 12.8372 -0.0270
38.5800 12.8439 -0.0265
38.6000 12.8505 -0.0334
38.6200 12.8572 -0.0276
38.6400 12.8639 -0.0286
38.6600 12.8706 -0.0341
38.6800 12.8772 -0.0279
38.7000 12.8838 -0.0324
38.7200 12.8905 -0.0314
38.7400 12.8972 -0.0275
38.7600 12.9039 -0.0347
38.7800 12.9106 -0.0312
38.8000 12.9173 -0.0272
38.8200 12.9240 -0.0384
38.8400 12.9306 -0.0336
38.8600 12.9373 -0.0310
38.8800 12.9439 -0.0370
38.9000 12.9505 -0.0302
38.9200 12.9572 -0.0287
38.9400 12.9639 -0.0350
38.9600 12.9706 -0.0384
38.9800 12.9773 -0.0367
39.0000 12.9840 -0.0334
39.0200 12.9906 -0.0327
39.0400 12.9973 -0.0418
39.0600 13.0039 -0.0315
39.0800 13.0105 -0.0327
39.1000 13.0172 -0.0415
39.1200 13.0238 -0.0340
39.1400 13.0305 -0.0337
39.1600 13.0372 -0.0405
39.1800 13.0439 -0.0325
39.2000 13.0506 -0.0413
39.2200 13.0573 -0.0404
39.2400 13.0639 -0.0303
39.2600 13.0705 -0.0392
39.2800 13.0771 -0.0391
39.3000 13.0838 -0.0289
39.3200 13.0906 -0.0421
39.3400 13.0973 -0.0417
39.3600 13.1039 -0.0331
39.3800 13.1106 -0.0422
39.4000 13.1173 -0.0400
39.4200 13.1239 -0.0344
39.4400 13.1305 -0.0413
39.4600 13.1372 -0.0390
39.4800 13.1439 -0.0343
39.5000 13.1506 -0.0461
39.5200 13.1573 -0.0369
39.5400 13.1639 -0.0357
39.5600 13.1706 -0.0473
39.5800 13.1773 -0.0402
39.6000 13.1839 -0.0379
39.6200 13.1905 -0.0476
39.6400 13.1971 -0.0370
39.6600 13.2038 -0.0405
39.6800 13.2106 -0.0460
39.7000 13.2173 -0.0339
39.7200 13.2240 -0.0433
39.7400 13.2306 -0.0458
39.7600 13.2373 -0.0352
39.7800 13.2439 -0.0472
39.8000 13.2505 -0.0445
39.8200 13.2572 -0.0369
39.8400 13.2639 -0.0482
39.8600 13.2706 -0.0393
39.8800 13.2773 -0.0410
39.9000 13.2840 -0.0481
39.9200 13.2906 -0.0402
39.9400 13.2973 -0.0379
39.9600 13.3039 -0.0521
39.9800 13.3105 -0.0369
40.0000 13.3171 -0.0374
40.0200 13.3238 -0.0481
40.0400 13.3305 -0.0415
40.0600 13.3372 -0.0450
40.0800 13.3439 -0.0470
40.1000 13.3506 -0.0366
40.1200 13.3572 -0.0460
40.1400 13.3639 -0.0526
40.1600 13.3705 -0.0366
40.1800 13.3771 -0.0479
40.2000 13.3838 -0.0447
40.2200 13.3905 -0.0389
40.2400 13.3973 -0.0464
40.2600 13.4040 -0.0466
40.2800 13.4107 -0.0422
40.3000 13.4174 -0.0476
40.3200 13.4240 -0.0435
40.3400 13.4305 -0.0454
40.3600 13.4372 -0.0508
40.3800 13.4439 -0.0417
40.4000 13.4506 -0.0440
40.4200 13.4573 -0.0495
40.4400 13.4640 -0.0433
40.4600 13.4706 -0.0454
40.4800 13.4773 -0.0481
40.5000 13.4839 -0.0441
40.5200 13.4905 -0.0465
40.5400 13.4971 -0.0473
40.5600 13.5038 -0.0464
40.5800 13.5105 -0.0490
40.6000 13.5172 -0.0429
40.6200 13.5239 -0.0451
40.6400 13.5306 -0.0480
40.6600 13.5373 -0.0462
40.6800 13.5439 -0.0543
40.7000 13.5505 -0.0410
40.7200 13.5571 -0.0469
40.7400 13.5638 -0.0516
40.7600 13.5705 -0.0431
40.7800 13.5772 -0.0520
40.8000 13.5839 -0.0487
40.8200 13.5906 -0.0423
40.8400 13.5973 -0.0583
40.8600 13.6039 -0.0499
40.8800 13.6105 -0.0391
40.9000 13.6171 -0.0571
40.9200 13.6239 -0.0490
40.9400 13.6306 -0.0436
40.9600 13.6373 -0.0583
40.9800 13.6440 -0.0517
41.0000 13.6506 -0.0439
41.0200 13.6573 -0.0573
41.0400 13.6639 -0.0512
41.0600 13.6705 -0.0479
41.0800 13.6772 -0.0566
41.1000 13.6839 -0.0464
41.1200 13.6906 -0.0465
41.1400 13.6973 -0.0605
41.1600 13.7040 -0.0497
41.1800 13.7106 -0.0502
41.2000 13.7173 -0.0548
41.2200 13.7240 -0.0527
41.2400 13.7305 -0.0542
41.2600 13.7371 -0.0527
41.2800 13.7438 -0.0514
41.3000 13.7505 -0.0554
41.3200 13.7572 -0.0556
41.3400 13.7639 -0.0515
41.3600 13.7706 -0.0539
41.3800 13.7773 -0.0544
41.4000 13.7839 -0.0577
41.4200 13.7905 -0.0477
41.4400 13.7971 -0.0536
41.4600 13.8038 -0.0584
41.4800 13.8105 -0.0509
41.5000 13.8172 -0.0510
41.5200 13.8239 -0.0623
41.5400 13.8306 -0.0512
41.5600 13.8373 -0.0536
41.5800 13.8439 -0.0640
41.6000 13.8505 -0.0547
41.6200 13.8572 -0.0508
41.6400 13.8639 -0.0616
41.6600 13.8705 -0.0523
41.6800 13.8772 -0.0523
41.7000 13.8839 -0.0676
41.7200 13.8906 -0.0505
41.7400 13.8973 -0.0512
41.7600 13.9039 -0.0672
41.7800 13.9105 -0.0515
41.8000 13.9172 -0.0515
41.8200 13.9238 -0.0688
41.8400 13.9306 -0.0554
41.8600 13.9373 -0.0538
41.8800 13.9440 -0.0677
41.9000 13.9507 -0.0573
41.9200 13.9573 -0.0552
41.9400 13.9639 -0.0687
41.9600 13.9705 -0.0543
41.9800 13.9772 -0.0525
42.0000 13.9839 -0.0704
42.0200 13.9906 -0.0515
42.0400 13.9973 -0.0580
42.0600 14.0039 -0.0672
42.0800 14.0106 -0.0525
42.1000 14.0173 -0.0584
42.1200 14.0239 -0.0675
42.1400 14.0305 -0.0581
42.1600 14.0371 -0.0592
42.1800 14.0438 -0.0647
42.2000 14.0505 -0.0578
42.2200 14.0572 -0.0630
42.2400 14.0639 -0.0634
42.2600 14.0706 -0.0592
42.2800 14.0773 -0.0605
42.3000 14.0839 -0.0630
42.3200 14.0905 -0.0628
42.3400 14.0972 -0.0569
42.3600 14.1038 -0.0678
42.3800 14.1106 -0.0624
42.4000 14.1173 -0.0601
42.4200 14.1240 -0.0680
42.4400 14.1306 -0.0614
42.4600 14.1373 -0.0576
42.4800 14.1440 -0.0694
42.5000 14.1506 -0.0655
42.5200 14.1572 -0.0546
42.5400 14.1639 -0.0761
42.5600 14.1706 -0.0635
42.5800 14.1773 -0.0588
42.6000 14.1839 -0.0760
42.6200 14.1906 -0.0616
42.6400 14.1973 -0.0637
42.6600 14.2039 -0.0753
42.6800 14.2105 -0.0610
42.7000 14.2172 -0.0628
42.7200 14.2238 -0.0734
42.7400 14.2305 -0.0671
42.7600 14.2373 -0.0638
42.7800 14.2439 -0.0787
42.8000 14.2506 -0.0652
42.8200 14.2573 -0.0680
42.8400 14.2639 -0.0752
42.8600 14.2705 -0.0705
42.8800 14.2771 -0.0698
42.9000 14.2838 -0.0708
42.9200 14.2905 -0.0684
42.9400 14.2972 -0.0705
42.9600 14.3039 -0.0753
42.9800 14.3106 -0.0687
43.0000 14.3173 -0.0767
43.0200 14.3239 -0.0718
43.0400 14.3305 -0.0732
43.0600 14.3372 -0.0726
43.0800 14.3438 -0.0727
43.1000 14.3506 -0.0717
43.1200 14.3573 -0.0716
43.1400 14.3640 -0.0709
43.1600 14.3706 -0.0768
43.1800 14.3773 -0.0713
43.2000 14.3840 -0.0786
43.2200 14.3906 -0.0795
43.2400 14.3972 -0.0675
43.2600 14.4039 -0.0771
43.2800 14.4106 -0.0778
43.3000 14.4173 -0.0687
43.3200 14.4240 -0.0790
43.3400 14.4307 -0.0812
43.3600 14.4373 -0.0658
43.3800 14.4440 -0.0801
43.4000 14.4506 -0.0794
43.4200 14.4571 -0.0653
43.4400 14.4638 -0.0844
43.4600 14.4705 -0.0768
43.4800 14.4772 -0.0642
43.5000 14.4839 -0.0888
43.5200 14.4906 -0.0768
43.5400 14.4972 -0.0703
43.5600 14.5039 -0.0863
43.5800 14.5105 -0.0769
43.6000 14.5172 -0.0679
43.6200 14.5238 -0.0880
43.6400 14.5305 -0.0736
43.6600 14.5372 -0.0731
43.6800 14.5439 -0.0898
43.7000 14.5505 -0.0712
43.7200 14.5572 -0.0767
43.7400 14.5639 -0.0852
43.7600 14.5706 -0.0762
43.7800 14.5772 -0.0774
43.8000 14.5838 -0.0817
43.8200 14.5905 -0.0738
43.8400 14.5972 -0.0788
43.8600 14.6039 -0.0783
43.8800 14.6106 -0.0741
43.9000 14.6173 -0.0827
43.9200 14.6240 -0.0843
43.9400 14.6306 -0.0760
43.9600 14.6372 -0.0773
43.9800 14.6438 -0.0801
44.0000 14.6505 -0.0769
44.0200 14.6573 -0.0809
44.0400 14.6640 -0.0829
44.0600 14.6706 -0.0810
44.0800 14.6773 -0.0758
44.1000 14.6840 -0.0821
44.1200 14.6906 -0.0801
44.1400 14.6972 -0.0786
44.1600 14.7038 -0.0772
44.1800 14.7105 -0.0807
44.2000 14.7172 -0.0799
44.2200 14.7239 -0.0840
44.2400 14.7305 -0.0807
44.2600 14.7372 -0.0780
44.2800 14.7439 -0.0823
44.3000 14.7506 -0.0873
44.3200 14.7572 -0.0757
44.3400 14.7638 -0.0777
44.3600 14.7705 -0.0848
44.3800 14.7772 -0.0803
44.4000 14.7839 -0.0841
44.4200 14.7906 -0.0859
44.4400 14.7972 -0.0831
44.4600 14.8039 -0.0856
44.4800 14.8105 -0.0844
44.5000 14.8171 -0.0819
44.5200 14.8238 -0.0898
44.5400 14.8305 -0.0848
44.5600 14.8373 -0.0803
44.5800 14.8440 -0.0834
44.6000 14.8506 -0.0873
44.6200 14.8573 -0.0823
44.6400 14.8640 -0.0884
44.6600 14.8706 -0.0859
44.6800 14.8772 -0.0822
44.7000 14.8839 -0.0885
44.7200 14.8906 -0.0853
44.7400 14.8973 -0.0885
44.7600 14.9040 -0.0856
44.7800 14.9106 -0.0861
44.8000 14.9173 -0.0920
44.8200 14.9240 -0.0853
44.8400 14.9306 -0.0907
44.8600 14.9372 -0.0867
44.8800 14.9438 -0.0844
44.9000 14.9505 -0.0925
44.9200 14.9572 -0.0844
44.9400 14.9639 -0.0895
44.9600 14.9706 -0.0919
44.9800 14.9773 -0.0824
45.0000 14.9839 -0.0877
45.0200 14.9905 -0.0959
45.0400 14.9971 -0.0862
45.0600 15.0038 -0.0908
45.0800 15.0105 -0.0916
45.1000 15.0172 -0.0854
45.1200 15.0239 -0.0922
45.1400 15.0306 -0.0936
45.1600 15.0373 -0.0848
45.1800 15.0440 -0.0977
45.2000 15.0506 -0.0899
45.2200 15.0572 -0.0837
45.2400 15.0639 -0.0986
45.2600 15.0706 -0.0881
45.2800 15.0773 -0.0858
45.3000 15.0839 -0.1013
45.3200 15.0906 -0.0857
45.3400 15.0973 -0.0887
45.3600 15.1040 -0.1072
45.3800 15.1106 -0.0879
45.4000 15.1172 -0.0959
45.4200 15.1238 -0.1005
45.4400 15.1305 -0.0840
45.4600 15.1372 -0.0951
45.4800 15.1440 -0.1033
45.5000 15.1506 -0.0841
45.5200 15.1573 -0.0984
45.5400 15.1640 -0.1014
45.5600 15.1706 -0.0844
45.5800 15.1772 -0.1002
45.6000 15.1838 -0.0995
45.6200 15.1905 -0.0861
45.6400 15.1973 -0.1087
45.6600 15.2039 -0.0967
45.6800 15.2106 -0.0867
45.7000 15.2173 -0.1105
45.7200 15.2239 -0.0974
45.7400 15.2306 -0.0897
45.7600 15.2372 -0.1026
45.7800 15.2438 -0.0963
45.8000 15.2505 -0.0901
45.8200 15.2572 -0.1085
45.8400 15.2639 -0.0989
45.8600 15.2705 -0.0980
45.8800 15.2772 -0.1102
45.9000 15.2839 -0.0966
45.9200 15.2906 -0.0987
45.9400 15.2972 -0.1082
45.9600 15.3038 -0.0939
45.9800 15.3105 -0.1007
46.0000 15.3173 -0.1041
46.0200 15.3240 -0.0970
46.0400 15.3306 -0.1060
46.0600 15.3373 -0.1035
46.0800 15.3440 -0.0980
46.1000 15.3506 -0.1061
46.1200 15.3572 -0.1100
46.1400 15.3638 -0.0980
46.1600 15.3706 -0.1075
46.1800 15.3773 -0.1091
46.2000 15.3840 -0.0988
46.2200 15.3906 -0.1067
46.2400 15.3973 -0.1077
46.2600 15.4040 -0.1056
46.2800 15.4106 -0.1086
46.3000 15.4172 -0.1075
46.3200 15.4238 -0.1044
46.3400 15.4305 -0.1067
46.3600 15.4372 -0.1092
46.3800 15.4439 -0.1061
46.4000 15.4506 -0.1087
46.4200 15.4573 -0.1127
46.4400 15.4640 -0.1066
46.4600 15.4706 -0.1066
46.4800 15.4772 -0.1125
46.5000 15.4838 -0.1089
46.5200 15.4904 -0.1077
46.5400 15.4972 -0.1119
46.5600 15.5039 -0.1084
46.5800 15.5106 -0.1092
46.6000 15.5172 -0.1125
46.6200 15.5239 -0.1066
46.6400 15.5306 -0.1047
46.6600 15.5372 -0.1173
46.6800 15.5438 -0.1051
46.7000 15.5505 -0.1052
46.7200 15.5572 -0.1200
46.7400 15.5639 -0.1090
46.7600 15.5706 -0.1027
46.7800 15.5773 -0.1184
46.8000 15.5840 -0.1117
46.8200 15.5907 -0.1090
46.8400 15.5973 -0.1185
46.8600 15.6039 -0.1070
46.8800 15.6105 -0.1094
46.9000 15.6172 -0.1183
46.9200 15.6240 -0.1135
46.9400 15.6306 -0.1048
46.9600 15.6373 -0.1202
46.9800 15.6440 -0.1102
47.0000 15.6506 -0.1065
47.0200 15.6572 -0.1245
47.0400 15.6638 -0.1113
47.0600 15.6705 -0.1052
47.0800 15.6772 -0.1233
47.1000 15.6839 -0.1073
47.1200 15.6906 -0.1136
47.1400 15.6973 -0.1223
47.1600 15.7040 -0.1133
47.1800 15.7106 -0.1104
47.2000 15.7172 -0.1224
47.2200 15.7238 -0.1118
47.2400 15.7305 -0.1128
47.2600 15.7372 -0.1272
47.2800 15.7439 -0.1127
47.3000 15.7506 -0.1138
47.3200 15.7572 -0.1204
47.3400 15.7639 -0.1133
47.3600 15.7706 -0.1152
47.3800 15.7772 -0.1222
47.4000 15.7838 -0.1136
47.4200 15.7905 -0.1156
47.4400 15.7972 -0.1198
47.4600 15.8039 -0.1191
47.4800 15.8106 -0.1114
47.5000 15.8173 -0.1265
47.5200 15.8239 -0.1179
47.5400 15.8306 -0.1136
47.5600 15.8372 -0.1231
47.5800 15.8439 -0.1192
47.6000 15.8505 -0.1132
47.6200 15.8572 -0.1260
47.6400 15.8640 -0.1174
47.6600 15.8706 -0.1121
47.6800 15.8773 -0.1310
47.7000 15.8840 -0.1140
47.7200 15.8906 -0.1132
47.7400 15.8972 -0.1285
47.7600 15.9038 -0.1155
47.7800 15.9105 -0.1129
47.8000 15.9172 -0.1316
47.8200 15.9239 -0.1143
47.8400 15.9306 -0.1159
47.8600 15.9373 -0.1290
47.8800 15.9439 -0.1152
47.9000 15.9506 -0.1160
47.9200 15.9572 -0.1299
47.9400 15.9638 -0.1118
47.9600 15.9705 -0.1214
47.9800 15.9772 -0.1308
48.0000 15.9839 -0.1145
48.0200 15.9906 -0.1226
48.0400 15.9973 -0.1269
48.0600 16.0040 -0.1157
48.0800 16.0106 -0.1202
48.1000 16.0172 -0.1256
48.1200 16.0238 -0.1184
48.1400 16.0305 -0.1199
48.1600 16.0373 -0.1256
48.1800 16.0440 -0.1229
48.2000 16.0506 -0.1211
48.2200 16.0573 -0.1243
48.2400 16.0640 -0.1213
48.2600 16.0706 -0.1207
48.2800 16.0772 -0.1219
48.3000 16.0838 -0.1265
48.3200 16.0905 -0.1169
48.3400 16.0972 -0.1285
48.3600 16.1039 -0.1276
48.3800 16.1106 -0.1187
48.4000 16.1173 -0.1285
48.4200 16.1240 -0.1279
48.4400 16.1306 -0.1233
48.4600 16.1372 -0.1274
48.4800 16.1438 -0.1261
48.5000 16.1505 -0.1191
48.5200 16.1572 -0.1306
48.5400 16.1639 -0.1304
48.5600 16.1706 -0.1229
48.5800 16.1773 -0.1263
48.6000 16.1840 -0.1294
48.6200 16.1906 -0.1236
48.6400 16.1972 -0.1311
48.6600 16.2038 -0.1269
48.6800 16.2105 -0.1220
48.7000 16.2172 -0.1261
48.7200 16.2239 -0.1292
48.7400 16.2306 -0.1206
48.7600 16.2372 -0.1292
48.7800 16.2439 -0.1313
48.8000 16.2506 -0.1174
48.8200 16.2572 -0.1326
48.8400 16.2639 -0.1306
48.8600 16.2705 -0.1209
48.8800 16.2772 -0.1333
48.9000 16.2839 -0.1312
48.9200 16.2906 -0.1194
48.9400 16.2973 -0.1325
48.9600 16.3040 -0.1324
48.9800 16.3107 -0.1218
49.0000 16.3173 -0.1340
49.0200 16.3239 -0.1317
49.0400 16.3305 -0.1201
49.0600 16.3372 -0.1335
49.0800 16.3439 -0.1307
49.1000 16.3506 -0.1282
49.1200 16.3573 -0.1360
49.1400 16.3640 -0.1274
49.1600 16.3706 -0.1270
49.1800 16.3772 -0.1361
49.2000 16.3838 -0.1302
49.2200 16.3905 -0.1268
49.2400 16.3972 -0.1353
49.2600 16.4039 -0.1352
49.2800 16.4106 -0.1296
49.3000 16.4172 -0.1275
49.3200 16.4239 -0.1332
49.3400 16.4306 -0.1298
49.3600 16.4372 -0.1329
49.3800 16.4438 -0.1300
49.4000 16.4505 -0.1276
49.4200 16.4572 -0.1321
49.4400 16.4639 -0.1320
49.4600 16.4706 -0.1283
49.4800 16.4772 -0.1339
49.5000 16.4839 -0.1337
49.5200 16.4906 -0.1286
49.5400 16.4973 -0.1316
49.5600 16.5039 -0.1357
49.5800 16.5105 -0.1282
49.6000 16.5172 -0.1335
49.6200 16.5239 -0.1384
49.6400 16.5306 -0.1290
49.6600 16.5373 -0.1335
49.6800 16.5440 -0.1379
49.7000 16.5506 -0.1324
49.7200 16.5572 -0.1301
49.7400 16.5639 -0.1371
49.7600 16.5705 -0.1343
49.7800 16.5772 -0.1290
49.8000 16.5839 -0.1403
49.8200 16.5906 -0.1331
49.8400 16.5973 -0.1257
49.8600 16.6040 -0.1439
49.8800 16.6106 -0.1308
49.9000 16.6173 -0.1309
49.9200 16.6239 -0.1425
49.9400 16.6305 -0.1303
49.9600 16.6372 -0.1317
49.9800 16.6439 -0.1422
50.0000 16.6506 -0.1321
50.0200 16.6573 -0.1302
50.0400 16.6640 -0.1419
50.0600 16.6706 -0.1338
50.0800 16.6772 -0.1328
50.1000 16.6838 -0.1444
50.1200 16.6904 -0.1323
50.1400 16.6971 -0.1313
50.1600 16.7039 -0.1495
50.1800 16.7106 -0.1349
50.2000 16.7173 -0.1323
50.2200 16.7239 -0.1487
50.2400 16.7306 -0.1361
50.2600 16.7372 -0.1359
50.2800 16.7439 -0.1485
50.3000 16.7505 -0.1325
50.3200 16.7572 -0.1366
50.3400 16.7639 -0.1465
50.3600 16.7706 -0.1379
50.3800 16.7773 -0.1388
50.4000 16.7840 -0.1522
50.4200 16.7906 -0.1357
50.4400 16.7973 -0.1381
50.4600 16.8039 -0.1503
50.4800 16.8105 -0.1340
50.5000 16.8172 -0.1457
50.5200 16.8239 -0.1493
50.5400 16.8306 -0.1409
50.5600 16.8373 -0.1445
50.5800 16.8440 -0.1484
50.6000 16.8507 -0.1412
50.6200 16.8573 -0.1495
50.6400 16.8639 -0.1477
50.6600 16.8705 -0.1424
50.6800 16.8772 -0.1453
50.7000 16.8839 -0.1471
50.7200 16.8906 -0.1473
50.7400 16.8973 -0.1504
50.7600 16.9039 -0.1429
50.7800 16.9106 -0.1517
50.8000 16.9172 -0.1495
50.8200 16.9238 -0.1427
50.8400 16.9305 -0.1504
50.8600 16.9372 -0.1502
50.8800 16.9439 -0.1484
50.9000 16.9505 -0.1522
50.9200 16.9572 -0.1525
50.9400 16.9639 -0.1459
50.9600 16.9706 -0.1531
50.9800 16.9772 -0.1512
51.0000 16.9838 -0.1520
51.0200 16.9905 -0.1547
51.0400 16.9971 -0.1517
51.0600 17.0039 -0.1533
51.0800 17.0106 -0.1586
51.1000 17.0173 -0.1502
51.1200 17.0240 -0.1533
51.1400 17.0307 -0.1563
51.1600 17.0373 -0.1507
51.1800 17.0439 -0.1520
51.2000 17.0505 -0.1525
51.2200 17.0572 -0.1516
51.2400 17.0639 -0.1531
51.2600 17.0706 -0.1604
51.2800 17.0773 -0.1531
51.3000 17.0839 -0.1520
51.3200 17.0906 -0.1634
51.3400 17.0973 -0.1557
51.3600 17.1039 -0.1506
51.3800 17.1105 -0.1621
51.4000 17.1172 -0.1528
51.4200 17.1239 -0.1557
51.4400 17.1306 -0.1601
51.4600 17.1372 -0.1606
51.4800 17.1439 -0.1590
51.5000 17.1506 -0.1604
51.5200 17.1573 -0.1523
51.5400 17.1639 -0.1597
51.5600 17.1705 -0.1612
51.5800 17.1771 -0.1540
51.6000 17.1839 -0.1557
51.6200 17.1906 -0.1632
51.6400 17.1973 -0.1567
51.6600 17.2040 -0.1555
51.6800 17.2106 -0.1597
51.7000 17.2173 -0.1648
51.7200 17.2239 -0.1583
51.7400 17.2305 -0.1582
51.7600 17.2372 -0.1596
51.7800 17.2439 -0.1587
51.8000 17.2506 -0.1657
51.8200 17.2573 -0.1575
51.8400 17.2639 -0.1569
51.8600 17.2706 -0.1619
51.8800 17.2773 -0.1654
51.9000 17.2839 -0.1559
51.9200 17.2905 -0.1631
51.9400 17.2972 -0.1641
51.9600 17.3039 -0.1554
51.9800 17.3106 -0.1663
52.0000 17.3173 -0.1621
52.0200 17.3240 -0.1559
52.0400 17.3307 -0.1677
52.0600 17.3373 -0.1614
52.0800 17.3439 -0.1574
52.1000 17.3505 -0.1673
52.1200 17.3571 -0.1653
52.1400 17.3638 -0.1536
52.1600 17.3706 -0.1677
52.1800 17.3773 -0.1672
52.2000 17.3840 -0.1572
52.2200 17.3906 -0.1764
52.2400 17.3973 -0.1623
52.2600 17.4038 -0.1592
52.2800 17.4104 -0.1725
52.3000 17.4171 -0.1645
52.3200 17.4238 -0.1568
52.3400 17.4305 -0.1765
52.3600 17.4372 -0.1661
52.3800 17.4439 -0.1547
52.4000 17.4506 -0.1773
52.4200 17.4573 -0.1659
52.4400 17.4639 -0.1606
52.4600 17.4705 -0.1765
52.4800 17.4772 -0.1633
52.5000 17.4839 -0.1656
52.5200 17.4906 -0.1754
52.5400 17.4973 -0.1600
52.5600 17.5040 -0.1668
52.5800 17.5107 -0.1736
52.6000 17.5173 -0.1646
52.6200 17.5239 -0.1689
52.6400 17.5305 -0.1742
52.6600 17.5372 -0.1647
52.6800 17.5439 -0.1694
52.7000 17.5506 -0.1712
52.7200 17.5573 -0.1680
52.7400 17.5640 -0.1720
52.7600 17.5707 -0.1731
52.7800 17.5773 -0.1700
52.8000 17.5839 -0.1702
52.8200 17.5905 -0.1685
52.8400 17.5972 -0.1730
52.8600 17.6039 -0.1725
52.8800 17.6106 -0.1715
52.9000 17.6173 -0.1745
52.9200 17.6239 -0.1661
52.9400 17.6306 -0.1701
52.9600 17.6373 -0.1739
52.9800 17.6439 -0.1707
53.0000 17.6505 -0.1699
53.0200 17.6572 -0.1747
53.0400 17.6639 -0.1668
53.0600 17.6706 -0.1733
53.0800 17.6772 -0.1730
53.1000 17.6839 -0.1713
53.1200 17.6906 -0.1749
53.1400 17.6972 -0.1743
53.1600 17.7039 -0.1676
53.1800 17.7105 -0.1763
53.2000 17.7172 -0.1762
53.2200 17.7239 -0.1699
53.2400 17.7306 -0.1799
53.2600 17.7373 -0.1732
53.2800 17.7440 -0.1693
53.3000 17.7507 -0.1808
53.3200 17.7573 -0.1748
53.3400 17.7639 -0.1702
53.3600 17.7705 -0.1795
53.3800 17.7772 -0.1692
53.4000 17.7839 -0.1751
53.4200 17.7906 -0.1787
53.4400 17.7973 -0.1736
53.4600 17.8040 -0.1761
53.4800 17.8106 -0.1731
53.5000 17.8173 -0.1732
53.5200 17.8239 -0.1848
53.5400 17.8305 -0.1729
53.5600 17.8372 -0.1773
53.5800 17.8438 -0.1802
53.6000 17.8505 -0.1743
53.6200 17.8572 -0.1810
53.6400 17.8639 -0.1837
53.6600 17.8706 -0.1755
53.6800 17.8773 -0.1798
53.7000 17.8839 -0.1804
53.7200 17.8905 -0.1698
53.7400 17.8971 -0.1857
53.7600 17.9038 -0.1775
53.7800 17.9105 -0.1715
53.8000 17.9172 -0.1861
53.8200 17.9239 -0.1769
53.8400 17.9306 -0.1761
53.8600 17.9373 -0.1916
53.8800 17.9439 -0.1750
53.9000 17.9505 -0.1730
53.9200 17.9572 -0.1889
53.9400 17.9639 -0.1780
53.9600 17.9706 -0.1769
53.9800 17.9773 -0.1914
54.0000 17.9839 -0.1748
54.0200 17.9906 -0.1755
54.0400 17.9973 -0.1904
54.0600 18.0039 -0.1779
54.0800 18.0105 -0.1802
54.1000 18.0171 -0.1875
54.1200 18.0238 -0.1744
54.1400 18.0305 -0.1829
54.1600 18.0373 -0.1905
54.1800 18.0439 -0.1771
54.2000 18.0506 -0.1851
54.2200 18.0573 -0.1888
54.2400 18.0639 -0.1784
54.2600 18.0705 -0.1832
54.2800 18.0772 -0.1908
54.3000 18.0839 -0.1783
54.3200 18.0906 -0.1836
54.3400 18.0973 -0.1889
54.3600 18.1040 -0.1831
54.3800 18.1106 -0.1815
54.4000 18.1173 -0.1893
54.4200 18.1239 -0.1871
54.4400 18.1305 -0.1810
54.4600 18.1371 -0.1938
54.4800 18.1438 -0.1900
54.5000 18.1505 -0.1832
54.5200 18.1572 -0.1928
54.5400 18.1639 -0.1853
54.5600 18.1706 -0.1812
54.5800 18.1773 -0.1997
54.6000 18.1839 -0.1862
54.6200 18.1905 -0.1828
54.6400 18.1971 -0.1965
54.6600 18.2038 -0.1839
54.6800 18.2106 -0.1844
54.7000 18.2173 -0.2037
54.7200 18.2240 -0.1853
54.7400 18.2307 -0.1873
54.7600 18.2374 -0.2037
54.7800 18.2440 -0.1840
54.8000 18.2505 -0.1849
54.8200 18.2572 -0.2021
54.8400 18.2639 -0.1868
54.8600 18.2706 -0.1873
54.8800 18.2773 -0.2005
54.9000 18.2840 -0.1854
54.9200 18.2906 -0.1910
54.9400 18.2973 -0.2035
54.9600 18.3039 -0.1871
54.9800 18.3105 -0.1940
55.0000 18.3172 -0.1965
55.0200 18.3239 -0.1887
55.0400 18.3306 -0.1959
55.0600 18.3372 -0.1953
55.0800 18.3439 -0.1925
55.1000 18.3506 -0.1934
55.1200 18.3573 -0.1967
55.1400 18.3639 -0.1938
55.1600 18.3705 -0.1906
55.1800 18.3771 -0.2002
55.2000 18.3838 -0.1996
55.2200 18.3905 -0.1889
55.2400 18.3972 -0.1992
55.2600 18.4039 -0.2022
55.2800 18.4106 -0.1910
55.3000 18.4173 -0.1986
55.3200 18.4239 -0.1988
55.3400 18.4305 -0.1975
55.3600 18.4371 -0.2011
55.3800 18.4438 -0.1956
55.4000 18.4506 -0.1963
55.4200 18.4573 -0.2091
55.4400 18.4640 -0.1923
55.4600 18.4706 -0.1949
55.4800 18.4773 -0.2064
55.5000 18.4840 -0.1998
55.5200 18.4906 -0.1984
55.5400 18.4972 -0.2025
55.5600 18.5039 -0.1997
55.5800 18.5106 -0.2023
55.6000 18.5173 -0.2032
55.6200 18.5239 -0.1982
55.6400 18.5306 -0.2029
55.6600 18.5373 -0.2052
55.6800 18.5440 -0.2008
55.7000 18.5505 -0.2018
55.7200 18.5571 -0.2027
55.7400 18.5638 -0.1993
55.7600 18.5705 -0.2024
55.7800 18.5772 -0.2056
55.8000 18.5839 -0.2045
55.8200 18.5906 -0.2016
55.8400 18.5973 -0.2079
55.8600 18.6039 -0.2035
55.8800 18.6105 -0.2021
55.9000 18.6171 -0.2038
55.9200 18.6238 -0.2082
55.9400 18.6305 -0.2034
55.9600 18.6372 -0.2053
55.9800 18.6439 -0.2076
56.0000 18.6506 -0.2042
56.0200 18.6573 -0.2071
56.0400 18.6639 -0.2121
56.0600 18.6705 -0.2054
56.0800 18.6772 -0.2029
56.1000 18.6839 -0.2147
56.1200 18.6906 -0.2064
56.1400 18.6972 -0.2077
56.1600 18.7039 -0.2157
56.1800 18.7106 -0.2050
56.2000 18.7173 -0.2083
56.2200 18.7240 -0.2201
56.2400 18.7306 -0.2057
56.2600 18.7372 -0.2075
56.2800 18.7438 -0.2182
56.3000 18.7506 -0.2086
56.3200 18.7573 -0.2111
56.3400 18.7640 -0.2204
56.3600 18.7706 -0.2085
56.3800 18.7773 -0.2139
56.4000 18.7839 -0.2192
56.4200 18.7906 -0.2090
56.4400 18.7972 -0.2143
56.4600 18.8039 -0.2188
56.4800 18.8106 -0.2094
56.5000 18.8173 -0.2144
56.5200 18.8239 -0.2208
56.5400 18.8306 -0.2060
56.5600 18.8373 -0.2214
56.5800 18.8439 -0.2229
56.6000 18.8505 -0.2082
56.6200 18.8571 -0.2166
56.6400 18.8638 -0.2208
56.6600 18.8705 -0.2114
56.6800 18.8772 -0.2213
56.7000 18.8839 -0.2182
56.7200 18.8906 -0.2131
56.7400 18.8973 -0.2244
56.7600 18.9039 -0.2174
56.7800 18.9105 -0.2162
56.8000 18.9172 -0.2252
56.8200 18.9239 -0.2119
56.8400 18.9306 -0.2170
56.8600 18.9373 -0.2248
56.8800 18.9440 -0.2138
56.9000 18.9506 -0.2219
56.9200 18.9573 -0.2223
56.9400 18.9640 -0.2205
56.9600 18.9706 -0.2264
56.9800 18.9772 -0.2228
57.0000 18.9839 -0.2167
57.0200 18.9906 -0.2290
57.0400 18.9973 -0.2191
57.0600 19.0039 -0.2155
57.0800 19.0106 -0.2330
57.1000 19.0173 -0.2226
57.1200 19.0239 -0.2126
57.1400 19.0305 -0.2352
57.1600 19.0371 -0.2187
57.1800 19.0438 -0.2159
57.2000 19.0505 -0.2378
57.2200 19.0572 -0.2206
57.2400 19.0639 -0.2183
57.2600 19.0706 -0.2346
57.2800 19.0773 -0.2222
57.3000 19.0839 -0.2227
57.3200 19.0905 -0.2388
57.3400 19.0971 -0.2149
57.3600 19.1038 -0.2210
57.3800 19.1105 -0.2374
57.4000 19.1172 -0.2165
57.4200 19.1239 -0.2270
57.4400 19.1306 -0.2436
57.4600 19.1373 -0.2122
57.4800 19.1439 -0.2287
57.5000 19.1505 -0.2383
57.5200 19.1572 -0.2138
57.5400 19.1638 -0.2324
57.5600 19.1706 -0.2394
57.5800 19.1773 -0.2159
57.6000 19.1839 -0.2276
57.6200 19.1906 -0.2383
57.6400 19.1973 -0.2198
57.6600 19.2040 -0.2366
57.6800 19.2106 -0.2361
57.7000 19.2172 -0.2174
57.7200 19.2239 -0.2354
57.7400 19.2306 -0.2311
57.7600 19.2373 -0.2244
57.7800 19.2440 -0.2378
57.8000 19.2507 -0.2280
57.8200 19.2573 -0.2299
57.8400 19.2640 -0.2344
57.8600 19.2706 -0.2369
57.8800 19.2772 -0.2287
57.9000 19.2838 -0.2333
57.9200 19.2905 -0.2338
57.9400 19.2972 -0.2313
57.9600 19.3039 -0.2344
57.9800 19.3105 -0.2340
58.0000 19.3172 -0.2347
58.0200 19.3239 -0.2311
58.0400 19.3306 -0.2392
58.0600 19.3372 -0.2324
58.0800 19.3438 -0.2318
58.1000 19.3505 -0.2435
58.1200 19.3572 -0.2322
58.1400 19.3639 -0.2321
58.1600 19.3705 -0.2459
58.1800 19.3772 -0.2361
58.2000 19.3839 -0.2299
58.2200 19.3906 -0.2478
58.2400 19.3972 -0.2377
58.2600 19.4039 -0.2299
58.2800 19.4105 -0.2505
58.3000 19.4172 -0.2365
58.3200 19.4239 -0.2350
58.3400 19.4306 -0.2473
58.3600 19.4373 -0.2393
58.3800 19.4440 -0.2405
58.4000 19.4506 -0.2497
58.4200 19.4572 -0.2352
58.4400 19.4638 -0.2351
58.4600 19.4705 -0.2521
58.4800 19.4772 -0.2369
58.5000 19.4839 -0.2382
58.5200 19.4906 -0.2509
58.5400 19.4973 -0.2356
58.5600 19.5040 -0.2414
58.5800 19.5106 -0.2501
58.6000 19.5172 -0.2306
58.6200 19.5238 -0.2469
58.6400 19.5305 -0.2484
58.6600 19.5372 -0.2372
58.6800 19.5439 -0.2463
58.7000 19.5506 -0.2474
58.7200 19.5573 -0.2382
58.7400 19.5639 -0.2488
58.7600 19.5706 -0.2501
58.7800 19.5772 -0.2397
58.8000 19.5838 -0.2456
58.8200 19.5905 -0.2466
58.8400 19.5972 -0.2454
58.8600 19.6039 -0.2477
58.8800 19.6106 -0.2443
58.9000 19.6172 -0.2484
58.9200 19.6239 -0.2518
58.9400 19.6305 -0.2463
58.9600 19.6372 -0.2493
58.9800 19.6438 -0.2437
59.0000 19.6505 -0.2514
59.0200 19.6572 -0.2496
59.0400 19.6639 -0.2457
59.0600 19.6706 -0.2533
59.0800 19.6773 -0.2553
59.1000 19.6840 -0.2465
59.1200 19.6906 -0.2586
59.1400 19.6972 -0.2576
59.1600 19.7039 -0.2482
59.1800 19.7106 -0.2571
59.2000 19.7173 -0.2563
59.2200 19.7239 -0.2478
59.2400 19.7306 -0.2637
59.2600 19.7373 -0.2559
59.2800 19.7440 -0.2534
59.2990 19.7502 -0.2798
