Raw Data
Time Displacement Force
(s) (mm) (N)
0.0000 0.0000 -0.1741
0.0200 0.0000 -0.1537
0.0400 0.0008 -0.1003
0.0600 0.0040 -0.1103
0.0800 0.0095 -0.1405
0.1000 0.0152 -0.1374
0.1200 0.0211 -0.1095
0.1400 0.0277 -0.1115
0.1600 0.0350 -0.1231
0.1800 0.0425 -0.0902
0.2000 0.0497 -0.0775
0.2200 0.0565 -0.0872
0.2400 0.0632 -0.0436
0.2600 0.0699 -0.0124
0.2800 0.0766 -0.0064
0.3000 0.0833 0.0366
0.3200 0.0900 0.0276
0.3400 0.0967 0.0386
0.3600 0.1034 0.0750
0.3800 0.1100 0.0668
0.4000 0.1167 0.0799
0.4200 0.1234 0.1120
0.4400 0.1301 0.0975
0.4600 0.1368 0.1084
0.4800 0.1434 0.1398
0.5000 0.1501 0.1311
0.5200 0.1568 0.1418
0.5400 0.1634 0.1455
0.5600 0.1700 0.1424
0.5800 0.1767 0.1479
0.6000 0.1833 0.1493
0.6200 0.1901 0.1462
0.6400 0.1968 0.1461
0.6600 0.2034 0.1442
0.6800 0.2101 0.1576
0.7000 0.2168 0.1456
0.7200 0.2234 0.1405
0.7400 0.2300 0.1624
0.7600 0.2367 0.1514
0.7800 0.2433 0.1468
0.8000 0.2500 0.1696
0.8200 0.2567 0.1480
0.8400 0.2634 0.1542
0.8600 0.2701 0.1746
0.8800 0.2767 0.1454
0.9000 0.2834 0.1599
0.9200 0.2900 0.1765
0.9400 0.2966 0.1498
0.9600 0.3033 0.1644
0.9800 0.3100 0.1786
1.0000 0.3167 0.1530
1.0200 0.3234 0.1681
1.0400 0.3300 0.1794
1.0600 0.3367 0.1600
1.0800 0.3433 0.1705
1.1000 0.3500 0.1843
1.1200 0.3566 0.1573
1.1400 0.3633 0.1785
1.1600 0.3701 0.1836
1.1800 0.3768 0.1570
1.2000 0.3835 0.1686
1.2200 0.3901 0.1882
1.2400 0.3968 0.1663
1.2600 0.4035 0.1674
1.2800 0.4101 0.1804
1.3000 0.4167 0.1732
1.3200 0.4234 0.1793
1.3400 0.4301 0.1738
1.3600 0.4368 0.1651
1.3800 0.4434 0.1769
1.4000 0.4501 0.1749
1.4200 0.4568 0.1678
1.4400 0.4634 0.1806
1.4600 0.4700 0.1737
1.4800 0.4766 0.1640
1.5000 0.4833 0.1762
1.5200 0.4900 0.1778
1.5400 0.4967 0.1632
1.5600 0.5034 0.1751
1.5800 0.5101 0.1734
1.6000 0.5167 0.1687
1.6200 0.5234 0.1698
1.6400 0.5300 0.1728
1.6600 0.5366 0.1704
1.6800 0.5433 0.1716
1.7000 0.5500 0.1685
1.7200 0.5567 0.1664
1.7400 0.5634 0.1709
1.7600 0.5701 0.1691
1.7800 0.5767 0.1726
1.8000 0.5834 0.1651
1.8200 0.5900 0.1674
1.8400 0.5967 0.1718
1.8600 0.6033 0.1625
1.8800 0.6100 0.1635
1.9000 0.6167 0.1757
1.9200 0.6234 0.1573
1.9400 0.6301 0.1629
1.9600 0.6368 0.1674
1.9800 0.6435 0.1622
2.0000 0.6500 0.1640
2.0200 0.6566 0.1708
2.0400 0.6633 0.1571
2.0600 0.6700 0.1701
2.0800 0.6768 0.1640
2.1000 0.6835 0.1550
2.1200 0.6901 0.1701
2.1400 0.6968 0.1625
2.1600 0.7034 0.1530
2.1800 0.7100 0.1686
2.2000 0.7166 0.1621
2.2200 0.7233 0.1543
2.2400 0.7300 0.1672
2.2600 0.7367 0.1613
2.2800 0.7434 0.1545
2.3000 0.7501 0.1680
2.3200 0.7568 0.1609
2.3400 0.7634 0.1493
2.3600 0.7700 0.1634
2.3800 0.7766 0.1640
2.4000 0.7833 0.1543
2.4200 0.7900 0.1573
2.4400 0.7967 0.1629
2.4600 0.8034 0.1546
2.4800 0.8101 0.1586
2.5000 0.8168 0.1617
2.5200 0.8234 0.1502
2.5400 0.8301 0.1589
2.5600 0.8367 0.1657
2.5800 0.8433 0.1486
2.6000 0.8501 0.1573
2.6200 0.8568 0.1624
2.6400 0.8635 0.1472
2.6600 0.8701 0.1636
2.6800 0.8768 0.1600
2.7000 0.8834 0.1458
2.7200 0.8900 0.1611
2.7400 0.8967 0.1605
2.7600 0.9033 0.1511
2.7800 0.9101 0.1622
2.8000 0.9168 0.1563
2.8200 0.9235 0.1486
2.8400 0.9301 0.1617
2.8600 0.9368 0.1573
2.8800 0.9435 0.1509
2.9000 0.9501 0.1666
2.9200 0.9567 0.1515
2.9400 0.9633 0.1501
2.9600 0.9700 0.1687
2.9800 0.9767 0.1532
3.0000 0.9834 0.1458
3.0200 0.9901 0.1711
3.0400 0.9968 0.1473
3.0600 1.0034 0.1464
3.0800 1.0100 0.1678
3.1000 1.0166 0.1476
3.1200 1.0233 0.1546
3.1400 1.0300 0.1686
3.1600 1.0367 0.1472
3.1800 1.0434 0.1532
3.2000 1.0501 0.1642
3.2200 1.0568 0.1448
3.2400 1.0634 0.1549
3.2600 1.0700 0.1614
3.2800 1.0767 0.1509
3.3000 1.0833 0.1576
3.3200 1.0900 0.1550
3.3400 1.0967 0.1510
3.3600 1.1034 0.1618
3.3800 1.1101 0.1548
3.4000 1.1168 0.1500
3.4200 1.1235 0.1525
3.4400 1.1301 0.1593
3.4600 1.1367 0.1526
3.4800 1.1433 0.1479
3.5000 1.1500 0.1533
3.5200 1.1567 0.1613
3.5400 1.1634 0.1509
3.5600 1.1701 0.1454
3.5800 1.1768 0.1587
3.6000 1.1834 0.1527
3.6200 1.1900 0.1443
3.6400 1.1966 0.1566
3.6600 1.2033 0.1504
3.6800 1.2100 0.1458
3.7000 1.2167 0.1549
3.7200 1.2234 0.1452
3.7400 1.2301 0.1504
3.7600 1.2368 0.1574
3.7800 1.2434 0.1428
3.8000 1.2500 0.1453
3.8200 1.2567 0.1602
3.8400 1.2633 0.1474
3.8600 1.2700 0.1453
3.8800 1.2767 0.1533
3.9000 1.2834 0.1529
3.9200 1.2901 0.1407
3.9400 1.2968 0.1562
3.9600 1.3034 0.1539
3.9800 1.3101 0.1430
4.0000 1.3167 0.1547
4.0200 1.3233 0.1487
4.0400 1.3300 0.1434
4.0600 1.3367 0.1592
4.0800 1.3434 0.1458
4.1000 1.3501 0.1385
4.1200 1.3568 0.1617
4.1400 1.3635 0.1489
4.1600 1.3701 0.1349
4.1800 1.3767 0.1636
4.2000 1.3833 0.1481
4.2200 1.3900 0.1382
4.2400 1.3968 0.1629
4.2600 1.4035 0.1446
4.2800 1.4101 0.1458
4.3000 1.4168 0.1553
4.3200 1.4235 0.1430
4.3400 1.4301 0.1443
4.3600 1.4367 0.1599
4.3800 1.4433 0.1445
4.4000 1.4500 0.1413
4.4200 1.4567 0.1591
4.4400 1.4634 0.1472
4.4600 1.4701 0.1424
4.4800 1.4768 0.1577
4.5000 1.4834 0.1461
4.5200 1.4901 0.1403
4.5400 1.4967 0.1572
4.5600 1.5033 0.1434
4.5800 1.5100 0.1466
4.6000 1.5167 0.1579
4.6200 1.5234 0.1423
4.6400 1.5301 0.1436
4.6600 1.5368 0.1590
4.6800 1.5434 0.1375
4.7000 1.5500 0.1443
4.7200 1.5566 0.1579
4.7400 1.5633 0.1468
4.7600 1.5700 0.1428
4.7800 1.5768 0.1527
4.8000 1.5835 0.1432
4.8200 1.5901 0.1510
4.8400 1.5968 0.1463
4.8600 1.6035 0.1444
4.8800 1.6101 0.1486
4.9000 1.6167 0.1454
4.9200 1.6233 0.1466
4.9400 1.6300 0.1522
4.9600 1.6367 0.1467
4.9800 1.6434 0.1484
5.0000 1.6501 0.1473
5.0200 1.6568 0.1464
5.0400 1.6635 0.1549
5.0600 1.6701 0.1398
5.0800 1.6767 0.1485
5.1000 1.6833 0.1548
5.1200 1.6900 0.1436
5.1400 1.6967 0.1478
5.1600 1.7034 0.1533
5.1800 1.7101 0.1388
5.2000 1.7168 0.1492
5.2200 1.7235 0.1510
5.2400 1.7301 0.1370
5.2600 1.7367 0.1511
5.2800 1.7433 0.1492
5.3000 1.7500 0.1321
5.3200 1.7567 0.1556
5.3400 1.7634 0.1503
5.3600 1.7701 0.1376
5.3800 1.7767 0.1543
5.4000 1.7834 0.1449
5.4200 1.7901 0.1327
5.4400 1.7967 0.1529
5.4600 1.8033 0.1475
5.4800 1.8100 0.1374
5.5000 1.8167 0.1547
5.5200 1.8234 0.1440
5.5400 1.8301 0.1371
5.5600 1.8368 0.1551
5.5800 1.8435 0.1465
5.6000 1.8501 0.1287
5.6200 1.8567 0.1556
5.6400 1.8633 0.1471
5.6600 1.8700 0.1353
5.6800 1.8767 0.1444
5.7000 1.8834 0.1458
5.7200 1.8901 0.1368
5.7400 1.8968 0.1468
5.7600 1.9035 0.1475
5.7800 1.9101 0.1388
5.8000 1.9167 0.1429
5.8200 1.9233 0.1501
5.8400 1.9300 0.1339
5.8600 1.9367 0.1428
5.8800 1.9434 0.1464
5.9000 1.9501 0.1360
5.9200 1.9567 0.1409
5.9400 1.9634 0.1426
5.9600 1.9701 0.1377
5.9800 1.9767 0.1378
6.0000 1.9833 0.1463
6.0200 1.9900 0.1380
6.0400 1.9967 0.1362
6.0600 2.0034 0.1420
6.0800 2.0101 0.1393
6.1000 2.0168 0.1382
6.1200 2.0235 0.1437
6.1400 2.0301 0.1338
6.1600 2.0367 0.1396
6.1800 2.0433 0.1435
6.2000 2.0500 0.1375
6.2200 2.0567 0.1337
6.2400 2.0634 0.1460
6.2600 2.0701 0.1344
6.2800 2.0768 0.1331
6.3000 2.0835 0.1425
6.3200 2.0901 0.1344
6.3400 2.0967 0.1355
6.3600 2.1033 0.1401
6.3800 2.1100 0.1340
6.4000 2.1167 0.1336
6.4200 2.1234 0.1387
6.4400 2.1301 0.1355
6.4600 2.1368 0.1408
6.4800 2.1435 0.1367
6.5000 2.1501 0.1262
6.5200 2.1568 0.1409
6.5400 2.1634 0.1391
6.5600 2.1700 0.1247
6.5800 2.1767 0.1435
6.6000 2.1834 0.1369
6.6200 2.1901 0.1309
6.6400 2.1968 0.1387
6.6600 2.2035 0.1383
6.6800 2.2101 0.1264
6.7000 2.2167 0.1325
6.7200 2.2233 0.1391
6.7400 2.2299 0.1359
6.7600 2.2367 0.1323
6.7800 2.2434 0.1428
6.8000 2.2501 0.1331
6.8200 2.2568 0.1308
6.8400 2.2634 0.1419
6.8600 2.2701 0.1299
6.8800 2.2767 0.1311
6.9000 2.2833 0.1435
6.9200 2.2900 0.1297
6.9400 2.2967 0.1293
6.9600 2.3034 0.1455
6.9800 2.3101 0.1307
7.0000 2.3168 0.1373
7.0200 2.3234 0.1395
7.0400 2.3301 0.1287
7.0600 2.3367 0.1318
7.0800 2.3433 0.1426
7.1000 2.3500 0.1319
7.1200 2.3567 0.1278
7.1400 2.3634 0.1382
7.1600 2.3701 0.1341
7.1800 2.3768 0.1270
7.2000 2.3835 0.1398
7.2200 2.3901 0.1348
7.2400 2.3967 0.1263
7.2600 2.4033 0.1429
7.2800 2.4100 0.1358
7.3000 2.4167 0.1281
7.3200 2.4234 0.1423
7.3400 2.4301 0.1355
7.3600 2.4368 0.1236
7.3800 2.4434 0.1402
7.4000 2.4501 0.1350
7.4200 2.4567 0.1263
7.4400 2.4633 0.1387
7.4600 2.4700 0.1331
7.4800 2.4767 0.1296
7.5000 2.4834 0.1365
7.5200 2.4900 0.1302
7.5400 2.4967 0.1345
7.5600 2.5034 0.1394
7.5800 2.5101 0.1316
7.6000 2.5167 0.1274
7.6200 2.5233 0.1401
7.6400 2.5300 0.1300
7.6600 2.5367 0.1337
7.6800 2.5434 0.1355
7.7000 2.5501 0.1290
7.7200 2.5568 0.1329
7.7400 2.5635 0.1324
7.7600 2.5701 0.1304
7.7800 2.5767 0.1312
7.8000 2.5833 0.1380
7.8200 2.5900 0.1309
7.8400 2.5967 0.1277
7.8600 2.6034 0.1349
7.8800 2.6101 0.1347
7.9000 2.6168 0.1299
7.9200 2.6234 0.1349
7.9400 2.6301 0.1351
7.9600 2.6367 0.1350
7.9800 2.6433 0.1335
8.0000 2.6500 0.1314
8.0200 2.6567 0.1338
8.0400 2.6634 0.1358
8.0600 2.6701 0.1241
8.0800 2.6767 0.1346
8.1000 2.6834 0.1370
8.1200 2.6901 0.1227
8.1400 2.6967 0.1304
8.1600 2.7033 0.1373
8.1800 2.7099 0.1261
8.2000 2.7166 0.1269
8.2200 2.7234 0.1299
8.2400 2.7301 0.1298
8.2600 2.7368 0.1312
8.2800 2.7435 0.1249
8.3000 2.7501 0.1273
8.3200 2.7567 0.1356
8.3400 2.7633 0.1287
8.3600 2.7700 0.1254
8.3800 2.7767 0.1384
8.4000 2.7834 0.1227
8.4200 2.7901 0.1286
8.4400 2.7968 0.1266
8.4600 2.8035 0.1293
8.4800 2.8101 0.1253
8.5000 2.8167 0.1269
8.5200 2.8234 0.1233
8.5400 2.8300 0.1292
8.5600 2.8367 0.1329
8.5800 2.8434 0.1222
8.6000 2.8501 0.1276
8.6200 2.8568 0.1305
8.6400 2.8635 0.1257
8.6600 2.8702 0.1281
8.6800 2.8768 0.1243
8.7000 2.8834 0.1270
8.7200 2.8900 0.1300
8.7400 2.8967 0.1240
8.7600 2.9034 0.1241
8.7800 2.9101 0.1259
8.8000 2.9168 0.1268
8.8200 2.9234 0.1220
8.8400 2.9301 0.1285
8.8600 2.9367 0.1207
8.8800 2.9433 0.1274
8.9000 2.9499 0.1281
8.9200 2.9566 0.1208
8.9400 2.9633 0.1265
8.9600 2.9700 0.1300
8.9800 2.9767 0.1188
9.0000 2.9834 0.1261
9.0200 2.9901 0.1245
9.0400 2.9967 0.1192
9.0600 3.0034 0.1253
9.0800 3.0100 0.1269
9.1000 3.0167 0.1195
9.1200 3.0234 0.1253
9.1400 3.0301 0.1239
9.1600 3.0368 0.1216
9.1800 3.0435 0.1305
9.2000 3.0501 0.1196
9.2200 3.0568 0.1222
9.2400 3.0634 0.1279
9.2600 3.0700 0.1252
9.2800 3.0767 0.1232
9.3000 3.0834 0.1276
9.3200 3.0901 0.1201
9.3400 3.0968 0.1267
9.3600 3.1035 0.1259
9.3800 3.1101 0.1207
9.4000 3.1168 0.1272
9.4200 3.1234 0.1273
9.4400 3.1300 0.1206
9.4600 3.1367 0.1291
9.4800 3.1434 0.1219
9.5000 3.1501 0.1270
9.5200 3.1567 0.1266
9.5400 3.1634 0.1192
9.5600 3.1701 0.1286
9.5800 3.1768 0.1265
9.6000 3.1834 0.1223
9.6200 3.1900 0.1234
9.6400 3.1967 0.1305
9.6600 3.2034 0.1228
9.6800 3.2100 0.1233
9.7000 3.2167 0.1278
9.7200 3.2234 0.1250
9.7400 3.2300 0.1229
9.7600 3.2367 0.1253
9.7800 3.2433 0.1264
9.8000 3.2500 0.1276
9.8200 3.2567 0.1233
9.8400 3.2634 0.1289
9.8600 3.2701 0.1196
9.8800 3.2768 0.1272
9.9000 3.2835 0.1237
9.9200 3.2902 0.1219
9.9400 3.2968 0.1277
9.9600 3.3034 0.1247
9.9800 3.3100 0.1258
10.0000 3.3167 0.1250
10.0200 3.3234 0.1197
10.0400 3.3302 0.1234
10.0600 3.3368 0.1326
10.0800 3.3435 0.1195
10.1000 3.3501 0.1193
10.1200 3.3567 0.1282
10.1400 3.3634 0.1191
10.1600 3.3700 0.1247
10.1800 3.3767 0.1268
10.2000 3.3834 0.1163
10.2200 3.3900 0.1250
10.2400 3.3967 0.1233
10.2600 3.4034 0.1192
10.2800 3.4101 0.1220
10.3000 3.4167 0.1275
10.3200 3.4233 0.1156
10.3400 3.4299 0.1270
10.3600 3.4366 0.1302
10.3800 3.4434 0.1161
10.4000 3.4501 0.1244
10.4200 3.4567 0.1295
10.4400 3.4634 0.1111
10.4600 3.4701 0.1272
10.4800 3.4768 0.1293
10.5000 3.4834 0.1100
10.5200 3.4900 0.1292
10.5400 3.4967 0.1295
10.5600 3.5034 0.1085
10.5800 3.5101 0.1310
10.6000 3.5167 0.1263
10.6200 3.5234 0.1068
10.6400 3.5301 0.1307
10.6600 3.5368 0.1197
10.6800 3.5434 0.1091
10.7000 3.5500 0.1322
10.7200 3.5567 0.1230
10.7400 3.5634 0.1111
10.7600 3.5701 0.1290
10.7800 3.5768 0.1236
10.8000 3.5835 0.1137
10.8200 3.5902 0.1240
10.8400 3.5968 0.1221
10.8600 3.6034 0.1144
10.8800 3.6100 0.1235
10.9000 3.6167 0.1200
10.9200 3.6234 0.1170
10.9400 3.6301 0.1213
10.9600 3.6368 0.1194
10.9800 3.6434 0.1195
11.0000 3.6501 0.1222
11.0200 3.6567 0.1169
11.0400 3.6633 0.1172
11.0600 3.6699 0.1238
11.0800 3.6766 0.1157
11.1000 3.6833 0.1185
11.1200 3.6900 0.1171
11.1400 3.6967 0.1154
11.1600 3.7034 0.1184
11.1800 3.7101 0.1216
11.2000 3.7167 0.1165
11.2200 3.7234 0.1136
11.2400 3.7300 0.1167
11.2600 3.7367 0.1223
11.2800 3.7434 0.1160
11.3000 3.7501 0.1172
11.3200 3.7568 0.1189
11.3400 3.7635 0.1172
11.3600 3.7702 0.1139
11.3800 3.7768 0.1222
11.4000 3.7834 0.1196
11.4200 3.7900 0.1139
11.4400 3.7967 0.1214
11.4600 3.8034 0.1166
11.4800 3.8101 0.1142
11.5000 3.8168 0.1219
11.5200 3.8235 0.1133
11.5400 3.8301 0.1141
11.5600 3.8368 0.1236
11.5800 3.8434 0.1128
11.6000 3.8500 0.1194
11.6200 3.8567 0.1213
11.6400 3.8634 0.1140
11.6600 3.8700 0.1141
11.6800 3.8767 0.1221
11.7000 3.8834 0.1155
11.7200 3.8901 0.1170
11.7400 3.8967 0.1168
11.7600 3.9033 0.1131
11.7800 3.9099 0.1191
11.8000 3.9166 0.1239
11.8200 3.9233 0.1118
11.8400 3.9300 0.1155
11.8600 3.9367 0.1199
11.8800 3.9434 0.1123
11.9000 3.9501 0.1173
11.9200 3.9568 0.1156
11.9400 3.9634 0.1158
11.9600 3.9700 0.1181
11.9800 3.9766 0.1181
12.0000 3.9834 0.1159
12.0200 3.9901 0.1179
12.0400 3.9968 0.1100
12.0600 4.0034 0.1170
12.0800 4.0101 0.1164
12.1000 4.0168 0.1176
12.1200 4.0234 0.1126
12.1400 4.0300 0.1166
12.1600 4.0367 0.1186
12.1800 4.0434 0.1098
12.2000 4.0501 0.1172
12.2200 4.0568 0.1197
12.2400 4.0635 0.1088
12.2600 4.0701 0.1095
12.2800 4.0768 0.1172
12.3000 4.0834 0.1177
12.3200 4.0900 0.1092
12.3400 4.0966 0.1168
12.3600 4.1033 0.1123
12.3800 4.1100 0.1091
12.4000 4.1167 0.1218
12.4200 4.1234 0.1080
12.4400 4.1301 0.1149
12.4600 4.1368 0.1162
12.4800 4.1434 0.1093
12.5000 4.1500 0.1169
12.5200 4.1566 0.1174
12.5400 4.1633 0.1050
12.5600 4.1701 0.1162
12.5800 4.1767 0.1133
12.6000 4.1834 0.1100
12.6200 4.1901 0.1142
12.6400 4.1968 0.1117
12.6600 4.2034 0.1052
12.6800 4.2100 0.1215
12.7000 4.2167 0.1098
12.7200 4.2234 0.1028
12.7400 4.2301 0.1166
12.7600 4.2367 0.1126
12.7800 4.2434 0.1123
12.8000 4.2501 0.1174
12.8200 4.2568 0.1024
12.8400 4.2634 0.1118
12.8600 4.2700 0.1178
12.8800 4.2767 0.1038
12.9000 4.2834 0.1127
12.9200 4.2901 0.1133
12.9400 4.2968 0.1032
12.9600 4.3035 0.1132
12.9800 4.3101 0.1176
13.0000 4.3168 0.1023
13.0200 4.3234 0.1181
13.0400 4.3300 0.1085
13.0600 4.3367 0.1046
13.0800 4.3434 0.1180
13.1000 4.3501 0.1085
13.1200 4.3568 0.1051
13.1400 4.3634 0.1189
13.1600 4.3701 0.1066
13.1800 4.3768 0.1018
13.2000 4.3834 0.1184
13.2200 4.3900 0.1088
13.2400 4.3966 0.1049
13.2600 4.4033 0.1181
13.2800 4.4100 0.1021
13.3000 4.4167 0.1071
13.3200 4.4234 0.1175
13.3400 4.4301 0.1025
13.3600 4.4368 0.1087
13.3800 4.4434 0.1110
13.4000 4.4500 0.1075
13.4200 4.4566 0.1098
13.4400 4.4633 0.1146
13.4600 4.4701 0.1039
13.4800 4.4768 0.1120
13.5000 4.4835 0.1061
13.5200 4.4902 0.1079
13.5400 4.4968 0.1120
13.5600 4.5034 0.1036
13.5800 4.5100 0.1078
13.6000 4.5167 0.1113
13.6200 4.5234 0.1083
13.6400 4.5301 0.1112
13.6600 4.5368 0.1044
13.6800 4.5434 0.1115
13.7000 4.5501 0.1135
13.7200 4.5568 0.1000
13.7400 4.5634 0.1114
13.7600 4.5700 0.1112
13.7800 4.5766 0.1051
13.8000 4.5833 0.1110
13.8200 4.5900 0.1075
13.8400 4.5967 0.0987
13.8600 4.6034 0.1198
13.8800 4.6101 0.1060
13.9000 4.6168 0.0975
13.9200 4.6234 0.1156
13.9400 4.6300 0.1093
13.9600 4.6366 0.0991
13.9800 4.6433 0.1168
14.0000 4.6500 0.1021
14.0200 4.6567 0.1019
14.0400 4.6634 0.1150
14.0600 4.6701 0.1049
14.0800 4.6768 0.1007
14.1000 4.6834 0.1176
14.1200 4.6900 0.1043
14.1400 4.6966 0.1007
14.1600 4.7033 0.1190
14.1800 4.7100 0.1068
14.2000 4.7168 0.1011
14.2200 4.7234 0.1176
14.2400 4.7302 0.1015
14.2600 4.7368 0.1025
14.2800 4.7435 0.1125
14.3000 4.7501 0.1015
14.3200 4.7567 0.1066
14.3400 4.7634 0.1099
14.3600 4.7701 0.1050
14.3800 4.7768 0.1059
14.4000 4.7835 0.1091
14.4200 4.7902 0.1027
14.4400 4.7968 0.1056
14.4600 4.8034 0.1016
14.4800 4.8100 0.1055
14.5000 4.8166 0.1070
14.5200 4.8233 0.1053
14.5400 4.8300 0.1029
14.5600 4.8367 0.1046
14.5800 4.8434 0.1089
14.6000 4.8500 0.1075
14.6200 4.8567 0.0996
14.6400 4.8634 0.1018
14.6600 4.8700 0.1059
14.6800 4.8766 0.0994
14.7000 4.8833 0.1066
14.7200 4.8900 0.1059
14.7400 4.8967 0.0970
14.7600 4.9034 0.1040
14.7800 4.9101 0.1077
14.8000 4.9168 0.0986
14.8200 4.9234 0.1045
14.8400 4.9301 0.1087
14.8600 4.9367 0.0967
14.8800 4.9434 0.1029
14.9000 4.9501 0.1074
14.9200 4.9567 0.0922
14.9400 4.9634 0.1098
14.9600 4.9701 0.1013
14.9800 4.9768 0.0940
15.0000 4.9834 0.1102
15.0200 4.9900 0.1034
15.0400 4.9967 0.0975
15.0600 5.0033 0.1084
15.0800 5.0101 0.1038
15.1000 5.0168 0.0944
15.1200 5.0235 0.1085
15.1400 5.0301 0.1023
15.1600 5.0368 0.0973
15.1800 5.0434 0.1077
15.2000 5.0500 0.1035
15.2200 5.0567 0.0962
15.2400 5.0633 0.1093
15.2600 5.0700 0.1002
15.2800 5.0767 0.0977
15.3000 5.0834 0.1077
15.3200 5.0901 0.1019
15.3400 5.0968 0.0922
15.3600 5.1034 0.1037
15.3800 5.1100 0.1002
15.4000 5.1166 0.0949
15.4200 5.1233 0.1057
15.4400 5.1300 0.1067
15.4600 5.1367 0.0932
15.4800 5.1434 0.0994
15.5000 5.1501 0.1076
15.5200 5.1567 0.0916
15.5400 5.1634 0.0990
15.5600 5.1700 0.1045
15.5800 5.1766 0.0949
15.6000 5.1833 0.1009
15.6200 5.1901 0.1057
15.6400 5.1968 0.0902
15.6600 5.2034 0.1029
15.6800 5.2101 0.1049
15.7000 5.2168 0.0909
15.7200 5.2235 0.0984
15.7400 5.2301 0.1027
15.7600 5.2367 0.0904
15.7800 5.2434 0.1049
15.8000 5.2501 0.0974
15.8200 5.2568 0.0925
15.8400 5.2635 0.1022
15.8600 5.2702 0.0998
15.8800 5.2768 0.0913
15.9000 5.2835 0.1012
15.9200 5.2901 0.0979
15.9400 5.2966 0.0955
15.9600 5.3033 0.0984
15.9800 5.3100 0.0955
16.0000 5.3167 0.0992
16.0200 5.3234 0.0978
16.0400 5.3301 0.0917
16.0600 5.3368 0.1001
16.0800 5.3434 0.0980
16.1000 5.3500 0.0965
16.1200 5.3566 0.1010
16.1400 5.3633 0.0916
16.1600 5.3700 0.0950
16.1800 5.3768 0.0975
16.2000 5.3834 0.0947
16.2200 5.3901 0.0928
16.2400 5.3968 0.1078
16.2600 5.4034 0.0924
16.2800 5.4101 0.0932
16.3000 5.4167 0.1015
16.3200 5.4234 0.0936
16.3400 5.4301 0.0933
16.3600 5.4367 0.0988
16.3800 5.4434 0.0934
16.4000 5.4501 0.0915
16.4200 5.4568 0.1021
16.4400 5.4635 0.0915
16.4600 5.4701 0.0916
16.4800 5.4766 0.1047
16.5000 5.4833 0.0898
16.5200 5.4900 0.0947
16.5400 5.4967 0.0990
16.5600 5.5034 0.0834
16.5800 5.5101 0.0982
16.6000 5.5168 0.0960
16.6200 5.5234 0.0881
16.6400 5.5301 0.0955
16.6600 5.5367 0.1004
16.6800 5.5433 0.0825
16.7000 5.5500 0.0987
16.7200 5.5567 0.1000
16.7400 5.5634 0.0810
16.7600 5.5701 0.1037
16.7800 5.5768 0.0995
16.8000 5.5834 0.0770
16.8200 5.5901 0.1036
16.8400 5.5967 0.0971
16.8600 5.6033 0.0815
16.8800 5.6100 0.1029
16.9000 5.6167 0.0943
16.9200 5.6234 0.0864
16.9400 5.6301 0.1027
16.9600 5.6368 0.0910
16.9800 5.6435 0.0848
17.0000 5.6501 0.1032
17.0200 5.6567 0.0881
17.0400 5.6633 0.0928
17.0600 5.6701 0.1026
17.0800 5.6768 0.0856
17.1000 5.6835 0.0917
17.1200 5.6901 0.0986
17.1400 5.6968 0.0811
17.1600 5.7034 0.0978
17.1800 5.7101 0.0954
17.2000 5.7167 0.0875
17.2200 5.7233 0.1001
17.2400 5.7301 0.0933
17.2600 5.7368 0.0879
17.2800 5.7434 0.0994
17.3000 5.7501 0.0861
17.3200 5.7568 0.0894
17.3400 5.7635 0.0990
17.3600 5.7701 0.0883
17.3800 5.7766 0.0948
17.4000 5.7833 0.0983
17.4200 5.7900 0.0855
17.4400 5.7967 0.0945
17.4600 5.8034 0.0992
17.4800 5.8101 0.0800
17.5000 5.8168 0.1018
17.5200 5.8234 0.0938
17.5400 5.8300 0.0801
17.5600 5.8366 0.1011
17.5800 5.8433 0.0923
17.6000 5.8500 0.0838
17.6200 5.8567 0.1061
17.6400 5.8634 0.0836
17.6600 5.8701 0.0845
17.6800 5.8768 0.1046
17.7000 5.8834 0.0888
17.7200 5.8901 0.0866
17.7400 5.8967 0.1031
17.7600 5.9033 0.0856
17.7800 5.9100 0.0887
17.8000 5.9167 0.1017
17.8200 5.9234 0.0845
17.8400 5.9301 0.0917
17.8600 5.9368 0.0964
17.8800 5.9435 0.0842
17.9000 5.9501 0.0910
17.9200 5.9567 0.0947
17.9400 5.9634 0.0876
17.9600 5.9700 0.0961
17.9800 5.9768 0.0939
18.0000 5.9835 0.0857
18.0200 5.9901 0.0913
18.0400 5.9968 0.1008
18.0600 6.0035 0.0827
18.0800 6.0101 0.0864
18.1000 6.0166 0.0970
18.1200 6.0233 0.0920
18.1400 6.0300 0.0842
18.1600 6.0367 0.0960
18.1800 6.0434 0.0864
18.2000 6.0500 0.0845
18.2200 6.0567 0.0989
18.2400 6.0634 0.0847
18.2600 6.0701 0.0829
18.2800 6.0767 0.0967
18.3000 6.0833 0.0863
18.3200 6.0900 0.0871
18.3400 6.0967 0.0992
18.3600 6.1034 0.0810
18.3800 6.1101 0.0894
18.4000 6.1167 0.0961
18.4200 6.1234 0.0809
18.4400 6.1301 0.0877
18.4600 6.1367 0.0973
18.4800 6.1433 0.0812
18.5000 6.1500 0.0904
18.5200 6.1567 0.0956
18.5400 6.1634 0.0808
18.5600 6.1701 0.0862
18.5800 6.1768 0.0970
18.6000 6.1835 0.0783
18.6200 6.1901 0.0831
18.6400 6.1967 0.0958
18.6600 6.2033 0.0833
18.6800 6.2100 0.0828
18.7000 6.2168 0.0923
18.7200 6.2234 0.0815
18.7400 6.2301 0.0834
18.7600 6.2368 0.0953
18.7800 6.2435 0.0794
18.8000 6.2501 0.0796
18.8200 6.2567 0.0950
18.8400 6.2633 0.0862
18.8600 6.2700 0.0774
18.8800 6.2767 0.0965
18.9000 6.2834 0.0810
18.9200 6.2901 0.0791
18.9400 6.2967 0.0952
18.9600 6.3034 0.0839
18.9800 6.3100 0.0766
19.0000 6.3166 0.0966
19.0200 6.3233 0.0821
19.0400 6.3300 0.0820
19.0600 6.3367 0.0996
19.0800 6.3434 0.0772
19.1000 6.3501 0.0774
19.1200 6.3568 0.0944
19.1400 6.3635 0.0792
19.1600 6.3701 0.0813
19.1800 6.3767 0.0941
19.2000 6.3833 0.0805
19.2200 6.3900 0.0838
19.2400 6.3968 0.0926
19.2600 6.4035 0.0769
19.2800 6.4101 0.0839
19.3000 6.4168 0.0908
19.3200 6.4234 0.0745
19.3400 6.4301 0.0872
19.3600 6.4367 0.0855
19.3800 6.4433 0.0823
19.4000 6.4500 0.0836
19.4200 6.4567 0.0859
19.4400 6.4634 0.0753
19.4600 6.4701 0.0908
19.4800 6.4768 0.0859
19.5000 6.4835 0.0758
19.5200 6.4901 0.0856
19.5400 6.4967 0.0850
19.5600 6.5033 0.0809
19.5800 6.5100 0.0863
19.6000 6.5167 0.0844
19.6200 6.5234 0.0820
19.6400 6.5301 0.0836
19.6600 6.5368 0.0807
19.6800 6.5435 0.0826
19.7000 6.5501 0.0836
19.7200 6.5567 0.0809
19.7400 6.5633 0.0814
19.7600 6.5699 0.0909
19.7800 6.5767 0.0781
19.8000 6.5834 0.0832
19.8200 6.5901 0.0848
19.8400 6.5967 0.0735
19.8600 6.6034 0.0814
19.8800 6.6101 0.0865
19.9000 6.6167 0.0771
19.9200 6.6233 0.0887
19.9400 6.6300 0.0776
19.9600 6.6367 0.0786
19.9800 6.6434 0.0875
20.0000 6.6501 0.0806
20.0200 6.6568 0.0761
20.0400 6.6635 0.0867
20.0600 6.6702 0.0777
20.0800 6.6767 0.0750
20.1000 6.6833 0.0951
20.1200 6.6900 0.0749
20.1400 6.6967 0.0759
20.1600 6.7035 0.0875
20.1800 6.7101 0.0741
20.2000 6.7168 0.0764
20.2200 6.7235 0.0885
20.2400 6.7301 0.0752
20.2600 6.7367 0.0783
20.2800 6.7433 0.0867
20.3000 6.7500 0.0756
20.3200 6.7567 0.0802
20.3400 6.7634 0.0921
20.3600 6.7701 0.0687
20.3800 6.7767 0.0781
20.4000 6.7834 0.0886
20.4200 6.7901 0.0783
20.4400 6.7967 0.0719
20.4600 6.8033 0.0861
20.4800 6.8100 0.0789
20.5000 6.8167 0.0730
20.5200 6.8234 0.0863
20.5400 6.8301 0.0759
20.5600 6.8368 0.0763
20.5800 6.8435 0.0857
20.6000 6.8501 0.0732
20.6200 6.8567 0.0718
20.6400 6.8633 0.0879
20.6600 6.8700 0.0784
20.6800 6.8767 0.0687
20.7000 6.8834 0.0881
20.7200 6.8901 0.0809
20.7400 6.8968 0.0672
20.7600 6.9035 0.0902
20.7800 6.9101 0.0770
20.8000 6.9167 0.0715
20.8200 6.9233 0.0853
20.8400 6.9300 0.0742
20.8600 6.9367 0.0689
20.8800 6.9434 0.0913
20.9000 6.9501 0.0706
20.9200 6.9568 0.0704
20.9400 6.9635 0.0921
20.9600 6.9701 0.0740
20.9800 6.9768 0.0728
21.0000 6.9834 0.0894
21.0200 6.9900 0.0686
21.0400 6.9967 0.0753
21.0600 7.0034 0.0841
21.0800 7.0101 0.0709
21.1000 7.0168 0.0757
21.1200 7.0235 0.0840
21.1400 7.0301 0.0713
21.1600 7.0367 0.0716
21.1800 7.0433 0.0821
21.2000 7.0499 0.0778
21.2200 7.0566 0.0782
21.2400 7.0633 0.0695
21.2600 7.0700 0.0771
21.2800 7.0767 0.0770
21.3000 7.0834 0.0729
21.3200 7.0901 0.0755
21.3400 7.0967 0.0794
21.3600 7.1033 0.0685
21.3800 7.1100 0.0837
21.4000 7.1167 0.0769
21.4200 7.1234 0.0688
21.4400 7.1301 0.0823
21.4600 7.1368 0.0712
21.4800 7.1435 0.0687
21.5000 7.1501 0.0819
21.5200 7.1567 0.0727
21.5400 7.1634 0.0715
21.5600 7.1700 0.0803
21.5800 7.1767 0.0705
21.6000 7.1834 0.0767
21.6200 7.1901 0.0792
21.6400 7.1968 0.0694
21.6600 7.2035 0.0729
21.6800 7.2102 0.0802
21.7000 7.2168 0.0622
21.7200 7.2233 0.0779
21.7400 7.2300 0.0807
21.7600 7.2367 0.0639
21.7800 7.2434 0.0724
21.8000 7.2501 0.0782
21.8200 7.2568 0.0607
21.8400 7.2634 0.0766
21.8600 7.2701 0.0826
21.8800 7.2767 0.0596
21.9000 7.2833 0.0767
21.9200 7.2900 0.0811
21.9400 7.2967 0.0620
21.9600 7.3034 0.0770
21.9800 7.3100 0.0809
22.0000 7.3167 0.0565
22.0200 7.3234 0.0772
22.0400 7.3301 0.0784
22.0600 7.3367 0.0584
22.0800 7.3434 0.0789
22.1000 7.3500 0.0810
22.1200 7.3567 0.0538
22.1400 7.3634 0.0768
22.1600 7.3701 0.0782
22.1800 7.3768 0.0586
22.2000 7.3835 0.0776
22.2200 7.3902 0.0786
22.2400 7.3968 0.0572
22.2600 7.4033 0.0798
22.2800 7.4100 0.0754
22.3000 7.4167 0.0580
22.3200 7.4234 0.0796
22.3400 7.4301 0.0723
22.3600 7.4368 0.0578
22.3800 7.4434 0.0781
22.4000 7.4501 0.0699
22.4200 7.4567 0.0610
22.4400 7.4633 0.0816
22.4600 7.4700 0.0698
22.4800 7.4767 0.0666
22.5000 7.4834 0.0761
22.5200 7.4900 0.0683
22.5400 7.4967 0.0670
22.5600 7.5034 0.0789
22.5800 7.5101 0.0650
22.6000 7.5167 0.0652
22.6200 7.5233 0.0720
22.6400 7.5299 0.0697
22.6600 7.5366 0.0699
22.6800 7.5434 0.0687
22.7000 7.5501 0.0667
22.7200 7.5568 0.0711
22.7400 7.5635 0.0640
22.7600 7.5701 0.0682
22.7800 7.5767 0.0681
22.8000 7.5833 0.0681
22.8200 7.5900 0.0661
22.8400 7.5967 0.0690
22.8600 7.6034 0.0705
22.8800 7.6101 0.0648
22.9000 7.6168 0.0684
22.9200 7.6235 0.0666
22.9400 7.6301 0.0703
22.9600 7.6368 0.0628
22.9800 7.6434 0.0650
23.0000 7.6500 0.0691
23.0200 7.6567 0.0696
23.0400 7.6634 0.0640
23.0600 7.6701 0.0696
23.0800 7.6768 0.0686
23.1000 7.6835 0.0648
23.1200 7.6902 0.0663
23.1400 7.6968 0.0641
23.1600 7.7034 0.0624
23.1800 7.7100 0.0715
23.2000 7.7167 0.0636
23.2200 7.7234 0.0600
23.2400 7.7301 0.0708
23.2600 7.7368 0.0681
23.2800 7.7434 0.0606
23.3000 7.7501 0.0695
23.3200 7.7567 0.0654
23.3400 7.7633 0.0637
23.3600 7.7699 0.0747
23.3800 7.7766 0.0595
23.4000 7.7834 0.0629
23.4200 7.7900 0.0706
23.4400 7.7967 0.0644
23.4600 7.8034 0.0620
23.4800 7.8101 0.0708
23.5000 7.8167 0.0569
23.5200 7.8233 0.0669
23.5400 7.8300 0.0702
23.5600 7.8367 0.0631
23.5800 7.8434 0.0633
23.6000 7.8501 0.0670
23.6200 7.8568 0.0610
23.6400 7.8635 0.0662
23.6600 7.8702 0.0658
23.6800 7.8768 0.0603
23.7000 7.8834 0.0658
23.7200 7.8900 0.0694
23.7400 7.8967 0.0637
23.7600 7.9034 0.0635
23.7800 7.9101 0.0644
23.8000 7.9168 0.0656
23.8200 7.9235 0.0580
23.8400 7.9302 0.0599
23.8600 7.9368 0.0674
23.8800 7.9434 0.0676
23.9000 7.9500 0.0624
23.9200 7.9567 0.0626
23.9400 7.9634 0.0640
23.9600 7.9701 0.0605
23.9800 7.9768 0.0659
24.0000 7.9834 0.0625
24.0200 7.9901 0.0621
24.0400 7.9968 0.0605
24.0600 8.0034 0.0634
24.0800 8.0100 0.0622
24.1000 8.0167 0.0643
24.1200 8.0234 0.0591
24.1400 8.0300 0.0587
24.1600 8.0367 0.0666
24.1800 8.0434 0.0644
24.2000 8.0501 0.0552
24.2200 8.0567 0.0690
24.2400 8.0633 0.0625
24.2600 8.0700 0.0555
24.2800 8.0766 0.0701
24.3000 8.0834 0.0575
24.3200 8.0901 0.0582
24.3400 8.0968 0.0684
24.3600 8.1035 0.0572
24.3800 8.1101 0.0553
24.4000 8.1168 0.0626
24.4200 8.1234 0.0552
24.4400 8.1300 0.0692
24.4600 8.1367 0.0597
24.4800 8.1434 0.0584
24.5000 8.1501 0.0661
24.5200 8.1568 0.0639
24.5400 8.1635 0.0512
24.5600 8.1702 0.0622
24.5800 8.1768 0.0645
24.6000 8.1834 0.0548
24.6200 8.1900 0.0598
24.6400 8.1967 0.0643
24.6600 8.2034 0.0575
24.6800 8.2101 0.0565
24.7000 8.2167 0.0623
24.7200 8.2234 0.0642
24.7400 8.2301 0.0575
24.7600 8.2368 0.0584
24.7800 8.2434 0.0605
24.8000 8.2500 0.0589
24.8200 8.2566 0.0679
24.8400 8.2633 0.0554
24.8600 8.2701 0.0577
24.8800 8.2767 0.0692
24.9000 8.2834 0.0567
24.9200 8.2901 0.0575
24.9400 8.2968 0.0692
24.9600 8.3034 0.0506
24.9800 8.3100 0.0627
25.0000 8.3167 0.0678
25.0200 8.3234 0.0516
25.0400 8.3301 0.0601
25.0600 8.3368 0.0638
25.0800 8.3434 0.0506
25.1000 8.3501 0.0615
25.1200 8.3568 0.0654
25.1400 8.3634 0.0501
25.1600 8.3700 0.0604
25.1800 8.3766 0.0681
25.2000 8.3833 0.0541
25.2200 8.3901 0.0589
25.2400 8.3967 0.0692
25.2600 8.4034 0.0499
25.2800 8.4101 0.0587
25.3000 8.4168 0.0633
25.3200 8.4234 0.0531
25.3400 8.4300 0.0563
25.3600 8.4367 0.0560
25.3800 8.4434 0.0540
25.4000 8.4501 0.0584
25.4200 8.4568 0.0593
25.4400 8.4634 0.0540
25.4600 8.4701 0.0554
25.4800 8.4768 0.0629
25.5000 8.4833 0.0529
25.5200 8.4899 0.0579
25.5400 8.4966 0.0635
25.5600 8.5033 0.0549
25.5800 8.5100 0.0541
25.6000 8.5167 0.0597
25.6200 8.5234 0.0579
25.6400 8.5301 0.0505
25.6600 8.5367 0.0633
25.6800 8.5434 0.0497
25.7000 8.5500 0.0503
25.7200 8.5566 0.0678
25.7400 8.5634 0.0520
25.7600 8.5701 0.0490
25.7800 8.5768 0.0664
25.8000 8.5835 0.0519
25.8200 8.5902 0.0503
25.8400 8.5968 0.0625
25.8600 8.6034 0.0495
25.8800 8.6100 0.0519
25.9000 8.6167 0.0667
25.9200 8.6234 0.0428
25.9400 8.6301 0.0568
25.9600 8.6368 0.0656
25.9800 8.6435 0.0404
26.0000 8.6501 0.0544
26.0200 8.6568 0.0626
26.0400 8.6634 0.0454
26.0600 8.6700 0.0551
26.0800 8.6766 0.0635
26.1000 8.6833 0.0430
26.1200 8.6901 0.0519
26.1400 8.6967 0.0587
26.1600 8.7034 0.0486
26.1800 8.7101 0.0560
26.2000 8.7168 0.0581
26.2200 8.7234 0.0401
26.2400 8.7299 0.0603
26.2600 8.7366 0.0563
26.2800 8.7433 0.0501
26.3000 8.7500 0.0549
26.3200 8.7567 0.0526
26.3400 8.7634 0.0526
26.3600 8.7701 0.0545
26.3800 8.7767 0.0493
26.4000 8.7834 0.0534
26.4200 8.7900 0.0543
26.4400 8.7967 0.0485
26.4600 8.8034 0.0480
26.4800 8.8101 0.0551
26.5000 8.8168 0.0496
26.5200 8.8235 0.0498
26.5400 8.8301 0.0524
26.5600 8.8368 0.0478
26.5800 8.8435 0.0479
26.6000 8.8501 0.0530
26.6200 8.8567 0.0490
26.6400 8.8634 0.0485
26.6600 8.8701 0.0554
26.6800 8.8768 0.0457
26.7000 8.8834 0.0507
26.7200 8.8901 0.0529
26.7400 8.8968 0.0458
26.7600 8.9034 0.0465
26.7800 8.9100 0.0537
26.8000 8.9166 0.0476
26.8200 8.9233 0.0487
26.8400 8.9301 0.0497
26.8600 8.9368 0.0449
26.8800 8.9434 0.0516
26.9000 8.9501 0.0556
26.9200 8.9568 0.0386
26.9400 8.9634 0.0454
26.9600 8.9700 0.0554
26.9800 8.9766 0.0468
27.0000 8.9833 0.0488
27.0200 8.9900 0.0521
27.0400 8.9967 0.0437
27.0600 9.0034 0.0489
27.0800 9.0101 0.0515
27.1000 9.0168 0.0384
27.1200 9.0234 0.0502
27.1400 9.0300 0.0523
27.1600 9.0367 0.0414
27.1800 9.0433 0.0496
27.2000 9.0500 0.0520
27.2200 9.0567 0.0399
27.2400 9.0634 0.0500
27.2600 9.0701 0.0527
27.2800 9.0768 0.0412
27.3000 9.0834 0.0492
27.3200 9.0900 0.0541
27.3400 9.0967 0.0448
27.3600 9.1034 0.0507
27.3800 9.1101 0.0461
27.4000 9.1168 0.0392
27.4200 9.1235 0.0522
27.4400 9.1301 0.0472
27.4600 9.1368 0.0419
27.4800 9.1434 0.0505
27.5000 9.1500 0.0475
27.5200 9.1567 0.0446
27.5400 9.1634 0.0519
27.5600 9.1701 0.0433
27.5800 9.1768 0.0448
27.6000 9.1834 0.0445
27.6200 9.1901 0.0487
27.6400 9.1968 0.0460
27.6600 9.2034 0.0437
27.6800 9.2100 0.0460
27.7000 9.2166 0.0478
27.7200 9.2233 0.0454
27.7400 9.2300 0.0482
27.7600 9.2367 0.0448
27.7800 9.2434 0.0411
27.8000 9.2501 0.0453
27.8200 9.2568 0.0476
27.8400 9.2634 0.0407
27.8600 9.2700 0.0460
27.8800 9.2767 0.0480
27.9000 9.2834 0.0402
27.9200 9.2901 0.0502
27.9400 9.2968 0.0416
27.9600 9.3035 0.0424
27.9800 9.3101 0.0465
28.0000 9.3168 0.0424
28.0200 9.3234 0.0412
28.0400 9.3300 0.0526
28.0600 9.3367 0.0412
28.0800 9.3434 0.0363
28.1000 9.3501 0.0500
28.1200 9.3568 0.0385
28.1400 9.3634 0.0399
28.1600 9.3701 0.0547
28.1800 9.3768 0.0347
28.2000 9.3834 0.0367
28.2200 9.3900 0.0508
28.2400 9.3966 0.0397
28.2600 9.4033 0.0439
28.2800 9.4100 0.0501
28.3000 9.4167 0.0368
28.3200 9.4234 0.0436
28.3400 9.4301 0.0489
28.3600 9.4368 0.0374
28.3800 9.4434 0.0456
28.4000 9.4500 0.0439
28.4200 9.4566 0.0417
28.4400 9.4633 0.0457
28.4600 9.4700 0.0467
28.4800 9.4767 0.0411
28.5000 9.4834 0.0425
28.5200 9.4901 0.0426
28.5400 9.4968 0.0382
28.5600 9.5034 0.0431
28.5800 9.5100 0.0485
28.6000 9.5167 0.0314
28.6200 9.5233 0.0445
28.6400 9.5301 0.0477
28.6600 9.5368 0.0349
28.6800 9.5434 0.0447
28.7000 9.5501 0.0539
28.7200 9.5568 0.0307
28.7400 9.5635 0.0427
28.7600 9.5701 0.0548
28.7800 9.5767 0.0335
28.8000 9.5834 0.0464
28.8200 9.5901 0.0531
28.8400 9.5968 0.0333
28.8600 9.6035 0.0435
28.8800 9.6102 0.0499
28.9000 9.6168 0.0298
28.9200 9.6235 0.0484
28.9400 9.6300 0.0472
28.9600 9.6366 0.0309
28.9800 9.6433 0.0465
29.0000 9.6500 0.0506
29.0200 9.6567 0.0307
29.0400 9.6633 0.0488
29.0600 9.6700 0.0421
29.0800 9.6767 0.0372
29.1000 9.6834 0.0461
29.1200 9.6900 0.0402
29.1400 9.6966 0.0385
29.1600 9.7033 0.0491
29.1800 9.7100 0.0374
29.2000 9.7167 0.0382
29.2200 9.7234 0.0471
29.2400 9.7300 0.0392
29.2600 9.7367 0.0391
29.2800 9.7434 0.0394
29.3000 9.7501 0.0390
29.3200 9.7567 0.0426
29.3400 9.7634 0.0425
29.3600 9.7701 0.0364
29.3800 9.7768 0.0427
29.4000 9.7834 0.0403
29.4200 9.7901 0.0410
29.4400 9.7968 0.0397
29.4600 9.8035 0.0360
29.4800 9.8100 0.0392
29.5000 9.8166 0.0418
29.5200 9.8233 0.0384
29.5400 9.8300 0.0475
29.5600 9.8368 0.0353
29.5800 9.8434 0.0377
29.6000 9.8501 0.0440
29.6200 9.8568 0.0355
29.6400 9.8635 0.0377
29.6600 9.8701 0.0485
29.6800 9.8767 0.0392
29.7000 9.8833 0.0323
29.7200 9.8900 0.0468
29.7400 9.8967 0.0373
29.7600 9.9034 0.0385
29.7800 9.9101 0.0446
29.8000 9.9168 0.0355
29.8200 9.9234 0.0338
29.8400 9.9300 0.0401
29.8600 9.9366 0.0367
29.8800 9.9433 0.0413
29.9000 9.9500 0.0416
29.9200 9.9567 0.0305
29.9400 9.9634 0.0391
29.9600 9.9701 0.0438
29.9800 9.9767 0.0294
30.0000 9.9834 0.0436
30.0200 9.9900 0.0338
30.0400 9.9966 0.0340
30.0600 10.0033 0.0453
30.0800 10.0100 0.0332
30.1000 10.0168 0.0291
30.1200 10.0234 0.0423
30.1400 10.0301 0.0366
30.1600 10.0368 0.0301
30.1800 10.0435 0.0397
30.2000 10.0501 0.0376
30.2200 10.0567 0.0332
30.2400 10.0634 0.0405
30.2600 10.0701 0.0336
30.2800 10.0768 0.0350
30.3000 10.0834 0.0432
30.3200 10.0901 0.0274
30.3400 10.0968 0.0354
30.3600 10.1035 0.0411
30.3800 10.1101 0.0300
30.4000 10.1167 0.0332
30.4200 10.1233 0.0399
30.4400 10.1300 0.0329
30.4600 10.1367 0.0357
30.4800 10.1434 0.0326
30.5000 10.1501 0.0359
30.5200 10.1567 0.0414
30.5400 10.1634 0.0300
30.5600 10.1700 0.0323
30.5800 10.1766 0.0415
30.6000 10.1833 0.0319
30.6200 10.1900 0.0334
30.6400 10.1968 0.0379
30.6600 10.2034 0.0260
30.6800 10.2101 0.0353
30.7000 10.2168 0.0365
30.7200 10.2234 0.0261
30.7400 10.2301 0.0355
30.7600 10.2367 0.0402
30.7800 10.2434 0.0238
30.8000 10.2500 0.0381
30.8200 10.2567 0.0365
30.8400 10.2634 0.0268
30.8600 10.2701 0.0381
30.8800 10.2768 0.0326
30.9000 10.2835 0.0274
30.9200 10.2901 0.0389
30.9400 10.2967 0.0257
30.9600 10.3033 0.0330
30.9800 10.3100 0.0406
31.0000 10.3168 0.0303
31.0200 10.3235 0.0271
31.0400 10.3301 0.0367
31.0600 10.3368 0.0307
31.0800 10.3434 0.0337
31.1000 10.3500 0.0353
31.1200 10.3566 0.0275
31.1400 10.3633 0.0386
31.1600 10.3700 0.0328
31.1800 10.3767 0.0240
31.2000 10.3834 0.0339
31.2200 10.3901 0.0322
31.2400 10.3967 0.0255
31.2600 10.4034 0.0410
31.2800 10.4101 0.0275
31.3000 10.4167 0.0310
31.3200 10.4233 0.0375
31.3400 10.4300 0.0229
31.3600 10.4367 0.0297
31.3800 10.4434 0.0420
31.4000 10.4501 0.0224
31.4200 10.4568 0.0336
31.4400 10.4634 0.0342
31.4600 10.4701 0.0202
31.4800 10.4767 0.0424
31.5000 10.4833 0.0303
31.5200 10.4900 0.0242
31.5400 10.4968 0.0421
31.5600 10.5035 0.0237
31.5800 10.5101 0.0228
31.6000 10.5168 0.0461
31.6200 10.5235 0.0251
31.6400 10.5301 0.0273
31.6600 10.5367 0.0441
31.6800 10.5433 0.0216
31.7000 10.5500 0.0298
31.7200 10.5567 0.0434
31.7400 10.5634 0.0121
31.7600 10.5701 0.0364
31.7800 10.5768 0.0387
31.8000 10.5835 0.0126
31.8200 10.5901 0.0375
31.8400 10.5967 0.0389
31.8600 10.6033 0.0178
31.8800 10.6100 0.0400
31.9000 10.6167 0.0311
31.9200 10.6234 0.0186
31.9400 10.6301 0.0413
31.9600 10.6368 0.0297
31.9800 10.6435 0.0180
32.0000 10.6501 0.0397
32.0200 10.6566 0.0305
32.0400 10.6632 0.0222
32.0600 10.6700 0.0350
32.0800 10.6767 0.0270
32.1000 10.6834 0.0334
32.1200 10.6901 0.0273
32.1400 10.6967 0.0267
32.1600 10.7034 0.0336
32.1800 10.7101 0.0264
32.2000 10.7167 0.0268
32.2200 10.7233 0.0359
32.2400 10.7300 0.0207
32.2600 10.7367 0.0308
32.2800 10.7434 0.0313
32.3000 10.7501 0.0201
32.3200 10.7568 0.0354
32.3400 10.7635 0.0290
32.3600 10.7702 0.0180
32.3800 10.7767 0.0399
32.4000 10.7834 0.0245
32.4200 10.7900 0.0210
32.4400 10.7967 0.0421
32.4600 10.8034 0.0178
32.4800 10.8101 0.0235
32.5000 10.8168 0.0401
32.5200 10.8234 0.0182
32.5400 10.8301 0.0264
32.5600 10.8367 0.0400
32.5800 10.8433 0.0140
32.6000 10.8500 0.0305
32.6200 10.8567 0.0289
32.6400 10.8634 0.0191
32.6600 10.8701 0.0313
32.6800 10.8768 0.0289
32.7000 10.8834 0.0165
32.7200 10.8901 0.0334
32.7400 10.8967 0.0287
32.7600 10.9033 0.0168
32.7800 10.9100 0.0317
32.8000 10.9167 0.0282
32.8200 10.9234 0.0161
32.8400 10.9301 0.0374
32.8600 10.9367 0.0247
32.8800 10.9434 0.0174
32.9000 10.9501 0.0348
32.9200 10.9567 0.0210
32.9400 10.9633 0.0176
32.9600 10.9700 0.0322
32.9800 10.9767 0.0267
33.0000 10.9834 0.0198
33.0200 10.9901 0.0309
33.0400 10.9968 0.0198
33.0600 11.0035 0.0241
33.0800 11.0101 0.0290
33.1000 11.0167 0.0258
33.1200 11.0233 0.0221
33.1400 11.0300 0.0260
33.1600 11.0368 0.0195
33.1800 11.0435 0.0260
33.2000 11.0501 0.0249
33.2200 11.0568 0.0206
33.2400 11.0635 0.0240
33.2600 11.0701 0.0257
33.2800 11.0767 0.0258
33.3000 11.0833 0.0227
33.3200 11.0900 0.0217
33.3400 11.0967 0.0255
33.3600 11.1034 0.0249
33.3800 11.1101 0.0226
33.4000 11.1167 0.0247
33.4200 11.1234 0.0183
33.4400 11.1301 0.0205
33.4600 11.1367 0.0287
33.4800 11.1433 0.0211
33.5000 11.1500 0.0188
33.5200 11.1567 0.0320
33.5400 11.1634 0.0158
33.5600 11.1701 0.0196
33.5800 11.1768 0.0275
33.6000 11.1835 0.0204
33.6200 11.1901 0.0173
33.6400 11.1967 0.0285
33.6600 11.2033 0.0222
33.6800 11.2100 0.0227
33.7000 11.2168 0.0273
33.7200 11.2235 0.0202
33.7400 11.2302 0.0192
33.7600 11.2368 0.0258
33.7800 11.2435 0.0161
33.8000 11.2501 0.0216
33.8200 11.2567 0.0262
33.8400 11.2633 0.0156
33.8600 11.2700 0.0257
33.8800 11.2767 0.0209
33.9000 11.2834 0.0151
33.9200 11.2901 0.0266
33.9400 11.2968 0.0225
33.9600 11.3035 0.0118
33.9800 11.3101 0.0261
34.0000 11.3167 0.0219
34.0200 11.3233 0.0153
34.0400 11.3300 0.0243
34.0600 11.3367 0.0197
34.0800 11.3434 0.0126
34.1000 11.3501 0.0272
34.1200 11.3568 0.0160
34.1400 11.3635 0.0139
34.1600 11.3701 0.0271
34.1800 11.3767 0.0159
34.2000 11.3833 0.0188
34.2200 11.3899 0.0258
34.2400 11.3967 0.0144
34.2600 11.4034 0.0190
34.2800 11.4101 0.0240
34.3000 11.4167 0.0125
34.3200 11.4234 0.0198
34.3400 11.4301 0.0202
34.3600 11.4367 0.0147
34.3800 11.4433 0.0184
34.4000 11.4500 0.0166
34.4200 11.4567 0.0112
34.4400 11.4634 0.0264
34.4600 11.4701 0.0175
34.4800 11.4768 0.0146
34.5000 11.4835 0.0187
34.5200 11.4902 0.0122
34.5400 11.4968 0.0159
34.5600 11.5033 0.0239
34.5800 11.5100 0.0122
34.6000 11.5167 0.0195
34.6200 11.5234 0.0176
34.6400 11.5301 0.0124
34.6600 11.5368 0.0196
34.6800 11.5435 0.0168
34.7000 11.5501 0.0105
34.7200 11.5567 0.0177
34.7400 11.5633 0.0172
34.7600 11.5700 0.0162
34.7800 11.5767 0.0206
34.8000 11.5834 0.0111
34.8200 11.5900 0.0147
34.8400 11.5967 0.0167
34.8600 11.6034 0.0145
34.8800 11.6101 0.0121
34.9000 11.6167 0.0171
34.9200 11.6233 0.0115
34.9400 11.6300 0.0202
34.9600 11.6367 0.0181
34.9800 11.6434 0.0080
35.0000 11.6501 0.0183
35.0200 11.6568 0.0207
35.0400 11.6635 0.0058
35.0600 11.6701 0.0109
35.0800 11.6768 0.0166
35.1000 11.6834 0.0152
35.1200 11.6900 0.0090
35.1400 11.6967 0.0130
35.1600 11.7034 0.0178
35.1800 11.7101 0.0101
35.2000 11.7168 0.0112
35.2200 11.7235 0.0231
35.2400 11.7301 0.0130
35.2600 11.7367 0.0097
35.2800 11.7433 0.0213
35.3000 11.7500 0.0106
35.3200 11.7567 0.0108
35.3400 11.7634 0.0158
35.3600 11.7701 0.0109
35.3800 11.7768 0.0100
35.4000 11.7835 0.0212
35.4200 11.7901 0.0077
35.4400 11.7968 0.0124
35.4600 11.8034 0.0164
35.4800 11.8100 0.0136
35.5000 11.8167 0.0159
35.5200 11.8234 0.0124
35.5400 11.8301 0.0096
35.5600 11.8368 0.0170
35.5800 11.8435 0.0164
35.6000 11.8501 0.0095
35.6200 11.8567 0.0132
35.6400 11.8633 0.0159
35.6600 11.8699 0.0118
35.6800 11.8766 0.0102
35.7000 11.8834 0.0124
35.7200 11.8901 0.0153
35.7400 11.8967 0.0128
35.7600 11.9034 0.0052
35.7800 11.9101 0.0190
35.8000 11.9167 0.0118
35.8200 11.9233 0.0148
35.8400 11.9300 0.0145
35.8600 11.9367 0.0129
35.8800 11.9434 0.0098
35.9000 11.9501 0.0120
35.9200 11.9568 0.0133
35.9400 11.9635 0.0121
35.9600 11.9701 0.0099
35.9800 11.9768 0.0137
36.0000 11.9834 0.0136
36.0200 11.9900 0.0138
36.0400 11.9967 0.0070
36.0600 12.0034 0.0157
36.0800 12.0101 0.0132
36.1000 12.0168 0.0070
36.1200 12.0235 0.0157
36.1400 12.0302 0.0111
36.1600 12.0368 0.0073
36.1800 12.0433 0.0184
36.2000 12.0500 0.0181
36.2200 12.0567 0.0071
36.2400 12.0634 0.0187
36.2600 12.0701 0.0114
36.2800 12.0768 0.0111
36.3000 12.0834 0.0131
36.3200 12.0901 0.0106
36.3400 12.0967 0.0126
36.3600 12.1033 0.0170
36.3800 12.1100 0.0130
36.4000 12.1167 0.0095
36.4200 12.1234 0.0144
36.4400 12.1300 0.0134
36.4600 12.1367 0.0055
36.4800 12.1434 0.0167
36.5000 12.1501 0.0118
36.5200 12.1567 0.0058
36.5400 12.1634 0.0153
36.5600 12.1700 0.0152
36.5800 12.1767 0.0074
36.6000 12.1834 0.0109
36.6200 12.1901 0.0144
36.6400 12.1968 0.0042
36.6600 12.2035 0.0165
36.6800 12.2102 0.0107
36.7000 12.2168 0.0033
36.7200 12.2234 0.0117
36.7400 12.2300 0.0171
36.7600 12.2367 0.0060
36.7800 12.2434 0.0141
36.8000 12.2501 0.0105
36.8200 12.2568 0.0047
36.8400 12.2634 0.0158
36.8600 12.2701 0.0120
36.8800 12.2767 -0.0001
36.9000 12.2833 0.0149
36.9200 12.2900 0.0087
36.9400 12.2967 0.0061
36.9600 12.3034 0.0176
36.9800 12.3101 0.0052
37.0000 12.3167 0.0028
37.0200 12.3234 0.0150
37.0400 12.3301 0.0086
37.0600 12.3367 0.0035
37.0800 12.3433 0.0165
37.1000 12.3499 0.0050
37.1200 12.3566 0.0044
37.1400 12.3634 0.0154
37.1600 12.3701 0.0105
37.1800 12.3768 0.0030
37.2000 12.3835 0.0096
37.2200 12.3901 0.0064
37.2400 12.3968 0.0101
37.2600 12.4034 0.0097
37.2800 12.4100 0.0075
37.3000 12.4167 0.0032
37.3200 12.4234 0.0132
37.3400 12.4301 0.0091
37.3600 12.4368 0.0084
37.3800 12.4435 0.0108
37.4000 12.4502 0.0048
37.4200 12.4568 0.0051
37.4400 12.4634 0.0141
37.4600 12.4700 0.0081
37.4800 12.4767 0.0051
37.5000 12.4834 0.0088
37.5200 12.4901 0.0045
37.5400 12.4968 0.0095
37.5600 12.5035 0.0097
37.5800 12.5101 0.0026
37.6000 12.5168 0.0085
37.6200 12.5234 0.0114
37.6400 12.5300 -0.0023
37.6600 12.5366 0.0103
37.6800 12.5433 0.0081
37.7000 12.5500 0.0066
37.7200 12.5567 0.0077
37.7400 12.5634 0.0053
37.7600 12.5701 0.0072
37.7800 12.5767 0.0050
37.8000 12.5833 0.0038
37.8200 12.5899 0.0093
37.8400 12.5966 0.0034
37.8600 12.6033 0.0050
37.8800 12.6100 0.0077
37.9000 12.6167 0.0013
37.9200 12.6234 0.0065
37.9400 12.6301 0.0072
37.9600 12.6367 -0.0029
37.9800 12.6434 0.0082
38.0000 12.6500 0.0105
38.0200 12.6567 -0.0040
38.0400 12.6634 0.0080
38.0600 12.6701 0.0067
38.0800 12.6768 -0.0030
38.1000 12.6835 0.0073
38.1200 12.6902 0.0049
38.1400 12.6968 -0.0050
38.1600 12.7034 0.0105
38.1800 12.7100 0.0023
38.2000 12.7167 -0.0041
38.2200 12.7234 0.0073
38.2400 12.7301 0.0054
38.2600 12.7368 -0.0079
38.2800 12.7435 0.0086
38.3000 12.7502 -0.0004
38.3200 12.7568 -0.0007
38.3400 12.7634 0.0071
38.3600 12.7700 0.0005
38.3800 12.7767 0.0044
38.4000 12.7834 0.0013
38.4200 12.7901 -0.0015
38.4400 12.7968 0.0013
38.4600 12.8034 0.0008
38.4800 12.8101 -0.0003
38.5000 12.8168 0.0019
38.5200 12.8234 -0.0003
38.5400 12.8300 -0.0025
38.5600 12.8366 0.0006
38.5800 12.8434 0.0044
38.6000 12.8501 -0.0026
38.6200 12.8567 0.0034
38.6400 12.8634 -0.0007
38.6600 12.8700 0.0007
38.6800 12.8767 -0.0029
38.7000 12.8833 -0.0028
38.7200 12.8899 0.0008
38.7400 12.8966 0.0048
38.7600 12.9034 -0.0079
38.7800 12.9101 -0.0035
38.8000 12.9168 0.0056
38.8200 12.9235 -0.0056
38.8400 12.9302 -0.0036
38.8600 12.9368 -0.0009
38.8800 12.9434 -0.0067
38.9000 12.9500 0.0015
38.9200 12.9567 0.0006
38.9400 12.9634 -0.0087
38.9600 12.9701 -0.0022
38.9800 12.9768 0.0018
39.0000 12.9835 -0.0042
39.0200 12.9901 -0.0027
39.0400 12.9968 -0.0035
39.0600 13.0034 -0.0082
39.0800 13.0100 0.0027
39.1000 13.0166 -0.0029
39.1200 13.0233 -0.0057
39.1400 13.0300 -0.0042
39.1600 13.0367 -0.0020
39.1800 13.0434 -0.0025
39.2000 13.0501 -0.0018
39.2200 13.0568 -0.0021
39.2400 13.0634 -0.0084
39.2600 13.0700 -0.0040
39.2800 13.0766 0.0023
39.3000 13.0833 -0.0105
39.3200 13.0901 -0.0074
39.3400 13.0968 0.0024
39.3600 13.1034 -0.0125
39.3800 13.1101 -0.0037
39.4000 13.1168 0.0013
39.4200 13.1234 -0.0066
39.4400 13.1300 -0.0056
39.4600 13.1367 0.0005
39.4800 13.1434 -0.0107
39.5000 13.1501 -0.0042
39.5200 13.1568 0.0052
39.5400 13.1634 -0.0101
39.5600 13.1701 -0.0065
39.5800 13.1768 -0.0006
39.6000 13.1834 -0.0123
39.6200 13.1900 -0.0009
39.6400 13.1967 -0.0057
39.6600 13.2033 -0.0105
39.6800 13.2101 0.0009
39.7000 13.2168 -0.0031
39.7200 13.2234 -0.0110
39.7400 13.2301 -0.0013
39.7600 13.2368 -0.0029
39.7800 13.2434 -0.0104
39.8000 13.2500 -0.0016
39.8200 13.2566 -0.0043
39.8400 13.2633 -0.0069
39.8600 13.2701 -0.0026
39.8800 13.2768 -0.0031
39.9000 13.2835 -0.0104
39.9200 13.2901 -0.0030
39.9400 13.2968 -0.0059
39.9600 13.3034 -0.0072
39.9800 13.3100 -0.0020
40.0000 13.3166 -0.0024
40.0200 13.3233 -0.0094
40.0400 13.3300 -0.0069
40.0600 13.3367 -0.0050
40.0800 13.3433 -0.0039
40.1000 13.3500 -0.0120
40.1200 13.3567 -0.0068
40.1400 13.3634 -0.0036
40.1600 13.3700 -0.0057
40.1800 13.3767 -0.0037
40.2000 13.3834 -0.0105
40.2200 13.3901 -0.0088
40.2400 13.3968 0.0007
40.2600 13.4035 -0.0105
40.2800 13.4102 -0.0125
40.3000 13.4169 0.0022
40.3200 13.4235 -0.0095
40.3400 13.4300 -0.0124
40.3600 13.4367 0.0010
40.3800 13.4434 -0.0074
40.4000 13.4501 -0.0110
40.4200 13.4568 -0.0013
40.4400 13.4635 -0.0127
40.4600 13.4701 -0.0025
40.4800 13.4768 -0.0039
40.5000 13.4834 -0.0152
40.5200 13.4900 -0.0058
40.5400 13.4966 0.0024
40.5600 13.5033 -0.0171
40.5800 13.5100 -0.0076
40.6000 13.5167 0.0006
40.6200 13.5234 -0.0158
40.6400 13.5301 -0.0053
40.6600 13.5368 -0.0032
40.6800 13.5434 -0.0160
40.7000 13.5500 -0.0028
40.7200 13.5566 -0.0022
40.7400 13.5633 -0.0150
40.7600 13.5700 -0.0040
40.7800 13.5767 -0.0058
40.8000 13.5834 -0.0108
40.8200 13.5901 -0.0053
40.8400 13.5968 -0.0072
40.8600 13.6034 -0.0121
40.8800 13.6100 -0.0001
40.9000 13.6166 -0.0104
40.9200 13.6233 -0.0076
40.9400 13.6301 -0.0060
40.9600 13.6368 -0.0116
40.9800 13.6434 -0.0114
41.0000 13.6501 -0.0008
41.0200 13.6568 -0.0112
41.0400 13.6635 -0.0150
41.0600 13.6701 -0.0080
41.0800 13.6767 -0.0084
41.1000 13.6834 -0.0081
41.1200 13.6901 -0.0108
41.1400 13.6968 -0.0066
41.1600 13.7034 -0.0104
41.1800 13.7101 -0.0129
41.2000 13.7168 -0.0082
41.2200 13.7234 -0.0104
41.2400 13.7300 -0.0153
41.2600 13.7366 -0.0045
41.2800 13.7433 -0.0142
41.3000 13.7500 -0.0131
41.3200 13.7567 -0.0042
41.3400 13.7634 -0.0082
41.3600 13.7701 -0.0163
41.3800 13.7767 -0.0038
41.4000 13.7834 -0.0132
41.4200 13.7900 -0.0124
41.4400 13.7966 -0.0075
41.4600 13.8033 -0.0110
41.4800 13.8100 -0.0129
41.5000 13.8167 -0.0040
41.5200 13.8234 -0.0156
41.5400 13.8301 -0.0177
41.5600 13.8368 -0.0045
41.5800 13.8434 -0.0157
41.6000 13.8500 -0.0183
41.6200 13.8567 -0.0033
41.6400 13.8633 -0.0117
41.6600 13.8700 -0.0218
41.6800 13.8767 -0.0048
41.7000 13.8834 -0.0144
41.7200 13.8901 -0.0158
41.7400 13.8968 -0.0095
41.7600 13.9034 -0.0188
41.7800 13.9100 -0.0162
41.8000 13.9167 -0.0020
41.8200 13.9234 -0.0206
41.8400 13.9301 -0.0147
41.8600 13.9368 -0.0081
41.8800 13.9435 -0.0165
41.9000 13.9501 -0.0171
41.9200 13.9568 -0.0092
41.9400 13.9634 -0.0186
41.9600 13.9700 -0.0158
41.9800 13.9767 -0.0103
42.0000 13.9834 -0.0207
42.0200 13.9901 -0.0107
42.0400 13.9968 -0.0111
42.0600 14.0034 -0.0181
42.0800 14.0101 -0.0159
42.1000 14.0168 -0.0119
42.1200 14.0234 -0.0131
42.1400 14.0300 -0.0154
42.1600 14.0366 -0.0148
42.1800 14.0433 -0.0155
42.2000 14.0500 -0.0224
42.2200 14.0567 -0.0117
42.2400 14.0634 -0.0178
42.2600 14.0701 -0.0183
42.2800 14.0768 -0.0093
42.3000 14.0834 -0.0202
42.3200 14.0900 -0.0210
42.3400 14.0967 -0.0032
42.3600 14.1033 -0.0182
42.3800 14.1101 -0.0178
42.4000 14.1168 -0.0108
42.4200 14.1235 -0.0229
42.4400 14.1301 -0.0192
42.4600 14.1368 -0.0086
42.4800 14.1435 -0.0244
42.5000 14.1501 -0.0179
42.5200 14.1567 -0.0072
42.5400 14.1633 -0.0248
42.5600 14.1700 -0.0130
42.5800 14.1768 -0.0114
42.6000 14.1834 -0.0242
42.6200 14.1901 -0.0161
42.6400 14.1968 -0.0146
42.6600 14.2035 -0.0238
42.6800 14.2100 -0.0106
42.7000 14.2166 -0.0208
42.7200 14.2233 -0.0188
42.7400 14.2300 -0.0109
42.7600 14.2367 -0.0212
42.7800 14.2434 -0.0236
42.8000 14.2501 -0.0106
42.8200 14.2568 -0.0237
42.8400 14.2634 -0.0202
42.8600 14.2700 -0.0138
42.8800 14.2766 -0.0204
42.9000 14.2833 -0.0175
42.9200 14.2900 -0.0200
42.9400 14.2967 -0.0237
42.9600 14.3034 -0.0162
42.9800 14.3101 -0.0218
43.0000 14.3168 -0.0252
43.0200 14.3234 -0.0147
43.0400 14.3300 -0.0206
43.0600 14.3367 -0.0223
43.0800 14.3433 -0.0155
43.1000 14.3501 -0.0177
43.1200 14.3568 -0.0259
43.1400 14.3634 -0.0115
43.1600 14.3701 -0.0236
43.1800 14.3768 -0.0226
43.2000 14.3835 -0.0182
43.2200 14.3901 -0.0244
43.2400 14.3967 -0.0213
43.2600 14.4034 -0.0203
43.2800 14.4101 -0.0246
43.3000 14.4168 -0.0237
43.3200 14.4235 -0.0192
43.3400 14.4301 -0.0214
43.3600 14.4368 -0.0245
43.3800 14.4435 -0.0200
43.4000 14.4501 -0.0202
43.4200 14.4567 -0.0246
43.4400 14.4633 -0.0179
43.4600 14.4700 -0.0207
43.4800 14.4767 -0.0241
43.5000 14.4834 -0.0237
43.5200 14.4900 -0.0187
43.5400 14.4967 -0.0236
43.5600 14.5034 -0.0225
43.5800 14.5100 -0.0248
43.6000 14.5166 -0.0259
43.6200 14.5233 -0.0215
43.6400 14.5300 -0.0192
43.6600 14.5367 -0.0267
43.6800 14.5434 -0.0224
43.7000 14.5500 -0.0225
43.7200 14.5567 -0.0249
43.7400 14.5634 -0.0216
43.7600 14.5701 -0.0205
43.7800 14.5767 -0.0279
43.8000 14.5833 -0.0216
43.8200 14.5900 -0.0212
43.8400 14.5967 -0.0278
43.8600 14.6034 -0.0181
43.8800 14.6101 -0.0246
43.9000 14.6168 -0.0294
43.9200 14.6235 -0.0204
43.9400 14.6301 -0.0263
43.9600 14.6367 -0.0284
43.9800 14.6433 -0.0174
44.0000 14.6500 -0.0256
44.0200 14.6567 -0.0327
44.0400 14.6634 -0.0216
44.0600 14.6701 -0.0245
44.0800 14.6768 -0.0322
44.1000 14.6834 -0.0219
44.1200 14.6900 -0.0288
44.1400 14.6966 -0.0283
44.1600 14.7033 -0.0209
44.1800 14.7100 -0.0262
44.2000 14.7167 -0.0318
44.2200 14.7234 -0.0250
44.2400 14.7301 -0.0266
44.2600 14.7368 -0.0275
44.2800 14.7435 -0.0220
44.3000 14.7501 -0.0296
44.3200 14.7566 -0.0297
44.3400 14.7633 -0.0216
44.3600 14.7700 -0.0287
44.3800 14.7767 -0.0309
44.4000 14.7834 -0.0220
44.4200 14.7900 -0.0288
44.4400 14.7967 -0.0302
44.4600 14.8034 -0.0265
44.4800 14.8100 -0.0256
44.5000 14.8166 -0.0294
44.5200 14.8233 -0.0210
44.5400 14.8300 -0.0339
44.5600 14.8367 -0.0264
44.5800 14.8434 -0.0218
44.6000 14.8501 -0.0317
44.6200 14.8568 -0.0277
44.6400 14.8635 -0.0233
44.6600 14.8701 -0.0303
44.6800 14.8768 -0.0288
44.7000 14.8834 -0.0193
44.7200 14.8901 -0.0294
44.7400 14.8968 -0.0333
44.7600 14.9034 -0.0213
44.7800 14.9101 -0.0263
44.8000 14.9168 -0.0316
44.8200 14.9235 -0.0205
44.8400 14.9301 -0.0311
44.8600 14.9367 -0.0271
44.8800 14.9433 -0.0202
44.9000 14.9500 -0.0266
44.9200 14.9567 -0.0292
44.9400 14.9634 -0.0169
44.9600 14.9700 -0.0331
44.9800 14.9767 -0.0278
45.0000 14.9834 -0.0223
45.0200 14.9900 -0.0300
45.0400 14.9966 -0.0232
45.0600 15.0033 -0.0214
45.0800 15.0100 -0.0292
45.1000 15.0167 -0.0270
45.1200 15.0234 -0.0235
45.1400 15.0301 -0.0264
45.1600 15.0368 -0.0241
45.1800 15.0434 -0.0288
45.2000 15.0501 -0.0295
45.2200 15.0567 -0.0269
45.2400 15.0634 -0.0229
45.2600 15.0701 -0.0262
45.2800 15.0767 -0.0266
45.3000 15.0834 -0.0278
45.3200 15.0901 -0.0248
45.3400 15.0968 -0.0337
45.3600 15.1035 -0.0248
45.3800 15.1101 -0.0230
45.4000 15.1167 -0.0319
45.4200 15.1233 -0.0280
45.4400 15.1300 -0.0221
45.4600 15.1367 -0.0283
45.4800 15.1435 -0.0357
45.5000 15.1501 -0.0260
45.5200 15.1568 -0.0243
45.5400 15.1635 -0.0332
45.5600 15.1701 -0.0240
45.5800 15.1767 -0.0255
45.6000 15.1833 -0.0261
45.6200 15.1900 -0.0237
45.6400 15.1968 -0.0328
45.6600 15.2034 -0.0259
45.6800 15.2101 -0.0234
45.7000 15.2168 -0.0316
45.7200 15.2234 -0.0329
45.7400 15.2301 -0.0196
45.7600 15.2367 -0.0301
45.7800 15.2433 -0.0323
45.8000 15.2500 -0.0228
45.8200 15.2567 -0.0319
45.8400 15.2634 -0.0297
45.8600 15.2701 -0.0230
45.8800 15.2768 -0.0335
45.9000 15.2835 -0.0273
45.9200 15.2901 -0.0290
45.9400 15.2967 -0.0320
45.9600 15.3033 -0.0244
45.9800 15.3100 -0.0257
46.0000 15.3167 -0.0341
46.0200 15.3234 -0.0281
46.0400 15.3301 -0.0242
46.0600 15.3368 -0.0343
46.0800 15.3435 -0.0252
46.1000 15.3501 -0.0274
46.1200 15.3567 -0.0353
46.1400 15.3633 -0.0265
46.1600 15.3700 -0.0283
46.1800 15.3767 -0.0359
46.2000 15.3835 -0.0267
46.2200 15.3901 -0.0299
46.2400 15.3968 -0.0326
46.2600 15.4035 -0.0270
46.2800 15.4101 -0.0293
46.3000 15.4167 -0.0355
46.3200 15.4233 -0.0232
46.3400 15.4300 -0.0298
46.3600 15.4367 -0.0309
46.3800 15.4434 -0.0270
46.4000 15.4501 -0.0335
46.4200 15.4568 -0.0293
46.4400 15.4635 -0.0283
46.4600 15.4701 -0.0350
46.4800 15.4766 -0.0311
46.5000 15.4832 -0.0214
46.5200 15.4899 -0.0338
46.5400 15.4967 -0.0360
46.5600 15.5034 -0.0296
46.5800 15.5100 -0.0323
46.6000 15.5167 -0.0325
46.6200 15.5234 -0.0290
46.6400 15.5301 -0.0330
46.6600 15.5367 -0.0327
46.6800 15.5433 -0.0348
46.7000 15.5500 -0.0304
46.7200 15.5567 -0.0339
46.7400 15.5634 -0.0309
46.7600 15.5701 -0.0347
46.7800 15.5768 -0.0351
46.8000 15.5835 -0.0322
46.8200 15.5902 -0.0334
46.8400 15.5968 -0.0287
46.8600 15.6034 -0.0366
46.8800 15.6100 -0.0395
46.9000 15.6167 -0.0253
46.9200 15.6234 -0.0413
46.9400 15.6301 -0.0346
46.9600 15.6368 -0.0280
46.9800 15.6435 -0.0413
47.0000 15.6501 -0.0328
47.0200 15.6567 -0.0312
47.0400 15.6633 -0.0347
47.0600 15.6700 -0.0321
47.0800 15.6767 -0.0313
47.1000 15.6834 -0.0412
47.1200 15.6901 -0.0269
47.1400 15.6968 -0.0317
47.1600 15.7034 -0.0406
47.1800 15.7101 -0.0282
47.2000 15.7167 -0.0321
47.2200 15.7233 -0.0377
47.2400 15.7300 -0.0232
47.2600 15.7367 -0.0374
47.2800 15.7434 -0.0353
47.3000 15.7501 -0.0279
47.3200 15.7567 -0.0356
47.3400 15.7634 -0.0342
47.3600 15.7701 -0.0290
47.3800 15.7767 -0.0367
47.4000 15.7833 -0.0318
47.4200 15.7900 -0.0323
47.4400 15.7967 -0.0364
47.4600 15.8034 -0.0289
47.4800 15.8101 -0.0342
47.5000 15.8168 -0.0330
47.5200 15.8235 -0.0335
47.5400 15.8301 -0.0307
47.5600 15.8367 -0.0280
47.5800 15.8433 -0.0344
47.6000 15.8500 -0.0317
47.6200 15.8567 -0.0294
47.6400 15.8634 -0.0415
47.6600 15.8701 -0.0276
47.6800 15.8768 -0.0290
47.7000 15.8835 -0.0393
47.7200 15.8901 -0.0339
47.7400 15.8967 -0.0248
47.7600 15.9033 -0.0403
47.7800 15.9100 -0.0298
47.8000 15.9167 -0.0220
47.8200 15.9234 -0.0400
47.8400 15.9301 -0.0320
47.8600 15.9367 -0.0264
47.8800 15.9434 -0.0401
47.9000 15.9501 -0.0305
47.9200 15.9567 -0.0284
47.9400 15.9633 -0.0414
47.9600 15.9700 -0.0271
47.9800 15.9767 -0.0324
48.0000 15.9834 -0.0393
48.0200 15.9901 -0.0299
48.0400 15.9968 -0.0301
48.0600 16.0035 -0.0438
48.0800 16.0101 -0.0304
48.1000 16.0167 -0.0315
48.1200 16.0233 -0.0380
48.1400 16.0300 -0.0296
48.1600 16.0367 -0.0304
48.1800 16.0435 -0.0404
48.2000 16.0501 -0.0299
48.2200 16.0568 -0.0333
48.2400 16.0635 -0.0406
48.2600 16.0701 -0.0338
48.2800 16.0767 -0.0361
48.3000 16.0833 -0.0366
48.3200 16.0900 -0.0363
48.3400 16.0967 -0.0359
48.3600 16.1034 -0.0368
48.3800 16.1101 -0.0374
48.4000 16.1168 -0.0329
48.4200 16.1235 -0.0326
48.4400 16.1301 -0.0446
48.4600 16.1367 -0.0293
48.4800 16.1433 -0.0363
48.5000 16.1500 -0.0403
48.5200 16.1567 -0.0304
48.5400 16.1634 -0.0412
48.5600 16.1701 -0.0432
48.5800 16.1768 -0.0254
48.6000 16.1835 -0.0429
48.6200 16.1901 -0.0459
48.6400 16.1967 -0.0281
48.6600 16.2033 -0.0442
48.6800 16.2099 -0.0408
48.7000 16.2167 -0.0268
48.7200 16.2234 -0.0417
48.7400 16.2301 -0.0412
48.7600 16.2367 -0.0324
48.7800 16.2434 -0.0474
48.8000 16.2501 -0.0368
48.8200 16.2567 -0.0299
48.8400 16.2633 -0.0459
48.8600 16.2700 -0.0367
48.8800 16.2767 -0.0362
48.9000 16.2834 -0.0437
48.9200 16.2901 -0.0364
48.9400 16.2968 -0.0358
48.9600 16.3035 -0.0409
48.9800 16.3102 -0.0417
49.0000 16.3168 -0.0341
49.0200 16.3233 -0.0431
49.0400 16.3300 -0.0365
49.0600 16.3367 -0.0359
49.0800 16.3434 -0.0362
49.1000 16.3501 -0.0403
49.1200 16.3568 -0.0398
49.1400 16.3635 -0.0401
49.1600 16.3701 -0.0418
49.1800 16.3767 -0.0368
49.2000 16.3833 -0.0349
49.2200 16.3900 -0.0413
49.2400 16.3967 -0.0354
49.2600 16.4034 -0.0402
49.2800 16.4101 -0.0472
49.3000 16.4167 -0.0332
49.3200 16.4234 -0.0416
49.3400 16.4301 -0.0461
49.3600 16.4367 -0.0400
49.3800 16.4433 -0.0399
49.4000 16.4499 -0.0421
49.4200 16.4566 -0.0371
49.4400 16.4634 -0.0431
49.4600 16.4701 -0.0448
49.4800 16.4767 -0.0320
49.5000 16.4834 -0.0411
49.5200 16.4901 -0.0504
49.5400 16.4968 -0.0354
49.5600 16.5034 -0.0420
49.5800 16.5100 -0.0451
49.6000 16.5167 -0.0389
49.6200 16.5234 -0.0437
49.6400 16.5301 -0.0461
49.6600 16.5368 -0.0402
49.6800 16.5435 -0.0428
49.7000 16.5501 -0.0483
49.7200 16.5567 -0.0397
49.7400 16.5633 -0.0447
49.7600 16.5700 -0.0462
49.7800 16.5767 -0.0407
49.8000 16.5834 -0.0421
49.8200 16.5901 -0.0466
49.8400 16.5968 -0.0445
49.8600 16.6035 -0.0426
49.8800 16.6101 -0.0463
49.9000 16.6168 -0.0488
49.9200 16.6234 -0.0392
49.9400 16.6300 -0.0453
49.9600 16.6367 -0.0475
49.9800 16.6434 -0.0407
50.0000 16.6501 -0.0480
50.0200 16.6568 -0.0482
50.0400 16.6635 -0.0386
50.0600 16.6701 -0.0547
50.0800 16.6768 -0.0499
50.1000 16.6833 -0.0337
50.1200 16.6899 -0.0518
50.1400 16.6966 -0.0484
50.1600 16.7033 -0.0382
50.1800 16.7100 -0.0524
50.2000 16.7167 -0.0486
50.2200 16.7234 -0.0391
50.2400 16.7301 -0.0540
50.2600 16.7367 -0.0450
50.2800 16.7433 -0.0412
50.3000 16.7500 -0.0559
50.3200 16.7567 -0.0420
50.3400 16.7634 -0.0396
50.3600 16.7701 -0.0601
50.3800 16.7768 -0.0408
50.4000 16.7834 -0.0465
50.4200 16.7901 -0.0592
50.4400 16.7968 -0.0419
50.4600 16.8034 -0.0458
50.4800 16.8100 -0.0570
50.5000 16.8167 -0.0378
50.5200 16.8234 -0.0480
50.5400 16.8301 -0.0583
50.5600 16.8368 -0.0380
50.5800 16.8435 -0.0488
50.6000 16.8502 -0.0553
50.6200 16.8568 -0.0440
50.6400 16.8634 -0.0516
50.6600 16.8700 -0.0483
50.6800 16.8767 -0.0421
50.7000 16.8834 -0.0541
50.7200 16.8901 -0.0477
50.7400 16.8968 -0.0473
50.7600 16.9034 -0.0507
50.7800 16.9101 -0.0499
50.8000 16.9167 -0.0439
50.8200 16.9233 -0.0477
50.8400 16.9300 -0.0487
50.8600 16.9366 -0.0492
50.8800 16.9433 -0.0454
50.9000 16.9500 -0.0513
50.9200 16.9567 -0.0535
50.9400 16.9634 -0.0418
50.9600 16.9701 -0.0553
50.9800 16.9767 -0.0532
51.0000 16.9833 -0.0421
51.0200 16.9900 -0.0517
51.0400 16.9966 -0.0507
51.0600 17.0034 -0.0384
51.0800 17.0101 -0.0602
51.1000 17.0168 -0.0510
51.1200 17.0235 -0.0381
51.1400 17.0301 -0.0627
51.1600 17.0368 -0.0544
51.1800 17.0434 -0.0362
51.2000 17.0500 -0.0623
51.2200 17.0567 -0.0469
51.2400 17.0634 -0.0440
51.2600 17.0701 -0.0656
51.2800 17.0768 -0.0483
51.3000 17.0834 -0.0435
51.3200 17.0901 -0.0637
51.3400 17.0967 -0.0452
51.3600 17.1034 -0.0430
51.3800 17.1100 -0.0612
51.4000 17.1167 -0.0427
51.4200 17.1234 -0.0476
51.4400 17.1301 -0.0585
51.4600 17.1367 -0.0497
51.4800 17.1434 -0.0476
51.5000 17.1501 -0.0596
51.5200 17.1568 -0.0454
51.5400 17.1634 -0.0538
51.5600 17.1700 -0.0507
51.5800 17.1766 -0.0462
51.6000 17.1833 -0.0525
51.6200 17.1901 -0.0556
51.6400 17.1968 -0.0439
51.6600 17.2035 -0.0536
51.6800 17.2101 -0.0555
51.7000 17.2168 -0.0503
51.7200 17.2234 -0.0523
51.7400 17.2300 -0.0487
51.7600 17.2367 -0.0510
51.7800 17.2434 -0.0566
51.8000 17.2501 -0.0499
51.8200 17.2567 -0.0545
51.8400 17.2634 -0.0561
51.8600 17.2701 -0.0503
51.8800 17.2768 -0.0564
51.9000 17.2834 -0.0531
51.9200 17.2900 -0.0493
51.9400 17.2967 -0.0578
51.9600 17.3034 -0.0559
51.9800 17.3101 -0.0476
52.0000 17.3168 -0.0557
52.0200 17.3235 -0.0539
52.0400 17.3302 -0.0549
52.0600 17.3368 -0.0535
52.0800 17.3434 -0.0547
52.1000 17.3500 -0.0484
52.1200 17.3567 -0.0593
52.1400 17.3634 -0.0506
52.1600 17.3701 -0.0503
52.1800 17.3768 -0.0590
52.2000 17.3834 -0.0510
52.2200 17.3901 -0.0489
52.2400 17.3968 -0.0581
52.2600 17.4034 -0.0552
52.2800 17.4099 -0.0491
52.3000 17.4166 -0.0587
52.3200 17.4233 -0.0513
52.3400 17.4300 -0.0545
52.3600 17.4367 -0.0621
52.3800 17.4434 -0.0528
52.4000 17.4501 -0.0506
52.4200 17.4567 -0.0620
52.4400 17.4634 -0.0525
52.4600 17.4700 -0.0468
52.4800 17.4767 -0.0600
52.5000 17.4834 -0.0571
52.5200 17.4901 -0.0472
52.5400 17.4968 -0.0663
52.5600 17.5035 -0.0553
52.5800 17.5101 -0.0480
52.6000 17.5168 -0.0657
52.6200 17.5234 -0.0546
52.6400 17.5300 -0.0452
52.6600 17.5367 -0.0660
52.6800 17.5434 -0.0502
52.7000 17.5501 -0.0489
52.7200 17.5568 -0.0694
52.7400 17.5635 -0.0484
52.7600 17.5702 -0.0542
52.7800 17.5768 -0.0653
52.8000 17.5834 -0.0476
52.8200 17.5900 -0.0542
52.8400 17.5967 -0.0696
52.8600 17.6034 -0.0485
52.8800 17.6101 -0.0579
52.9000 17.6168 -0.0658
52.9200 17.6234 -0.0464
52.9400 17.6301 -0.0582
52.9600 17.6368 -0.0671
52.9800 17.6434 -0.0476
53.0000 17.6500 -0.0622
53.0200 17.6567 -0.0582
53.0400 17.6633 -0.0524
53.0600 17.6700 -0.0594
53.0800 17.6767 -0.0593
53.1000 17.6834 -0.0515
53.1200 17.6900 -0.0631
53.1400 17.6967 -0.0572
53.1600 17.7033 -0.0515
53.1800 17.7100 -0.0591
53.2000 17.7166 -0.0571
53.2200 17.7234 -0.0601
53.2400 17.7301 -0.0577
53.2600 17.7368 -0.0594
53.2800 17.7435 -0.0605
53.3000 17.7502 -0.0564
53.3200 17.7568 -0.0601
53.3400 17.7634 -0.0642
53.3600 17.7700 -0.0521
53.3800 17.7767 -0.0559
53.4000 17.7834 -0.0593
53.4200 17.7901 -0.0562
53.4400 17.7968 -0.0615
53.4600 17.8035 -0.0627
53.4800 17.8101 -0.0507
53.5000 17.8168 -0.0621
53.5200 17.8234 -0.0628
53.5400 17.8300 -0.0485
53.5600 17.8367 -0.0610
53.5800 17.8433 -0.0621
53.6000 17.8500 -0.0524
53.6200 17.8567 -0.0602
53.6400 17.8634 -0.0610
53.6600 17.8701 -0.0529
53.6800 17.8768 -0.0620
53.7000 17.8834 -0.0615
53.7200 17.8900 -0.0545
53.7400 17.8966 -0.0629
53.7600 17.9033 -0.0617
53.7800 17.9100 -0.0521
53.8000 17.9167 -0.0660
53.8200 17.9234 -0.0602
53.8400 17.9301 -0.0541
53.8600 17.9367 -0.0639
53.8800 17.9434 -0.0627
53.9000 17.9500 -0.0560
53.9200 17.9567 -0.0641
53.9400 17.9634 -0.0606
53.9600 17.9701 -0.0572
53.9800 17.9768 -0.0680
54.0000 17.9834 -0.0635
54.0200 17.9901 -0.0595
54.0400 17.9968 -0.0640
54.0600 18.0034 -0.0601
54.0800 18.0100 -0.0582
54.1000 18.0167 -0.0657
54.1200 18.0233 -0.0631
54.1400 18.0300 -0.0616
54.1600 18.0368 -0.0613
54.1800 18.0434 -0.0655
54.2000 18.0501 -0.0605
54.2200 18.0568 -0.0636
54.2400 18.0634 -0.0659
54.2600 18.0700 -0.0653
54.2800 18.0767 -0.0555
54.3000 18.0834 -0.0665
54.3200 18.0901 -0.0668
54.3400 18.0968 -0.0631
54.3600 18.1035 -0.0630
54.3800 18.1101 -0.0609
54.4000 18.1168 -0.0626
54.4200 18.1234 -0.0727
54.4400 18.1300 -0.0620
54.4600 18.1366 -0.0631
54.4800 18.1433 -0.0717
54.5000 18.1500 -0.0577
54.5200 18.1567 -0.0618
54.5400 18.1634 -0.0728
54.5600 18.1701 -0.0615
54.5800 18.1768 -0.0649
54.6000 18.1834 -0.0690
54.6200 18.1900 -0.0583
54.6400 18.1966 -0.0677
54.6600 18.2033 -0.0662
54.6800 18.2101 -0.0620
54.7000 18.2168 -0.0693
54.7200 18.2235 -0.0699
54.7400 18.2302 -0.0608
54.7600 18.2368 -0.0680
54.7800 18.2435 -0.0678
54.8000 18.2500 -0.0647
54.8200 18.2567 -0.0615
54.8400 18.2634 -0.0686
54.8600 18.2701 -0.0674
54.8800 18.2768 -0.0687
54.9000 18.2835 -0.0720
54.9200 18.2901 -0.0612
54.9400 18.2968 -0.0678
54.9600 18.3034 -0.0705
54.9800 18.3100 -0.0662
55.0000 18.3166 -0.0633
55.0200 18.3233 -0.0697
55.0400 18.3300 -0.0684
55.0600 18.3367 -0.0648
55.0800 18.3434 -0.0680
55.1000 18.3501 -0.0700
55.1200 18.3568 -0.0648
55.1400 18.3634 -0.0681
55.1600 18.3700 -0.0694
55.1800 18.3766 -0.0690
55.2000 18.3833 -0.0676
55.2200 18.3900 -0.0725
55.2400 18.3967 -0.0616
55.2600 18.4034 -0.0690
55.2800 18.4101 -0.0724
55.3000 18.4168 -0.0649
55.3200 18.4234 -0.0692
55.3400 18.4300 -0.0684
55.3600 18.4366 -0.0632
55.3800 18.4433 -0.0676
55.4000 18.4501 -0.0725
55.4200 18.4568 -0.0678
55.4400 18.4635 -0.0704
55.4600 18.4701 -0.0677
55.4800 18.4768 -0.0653
55.5000 18.4835 -0.0731
55.5200 18.4901 -0.0683
55.5400 18.4967 -0.0646
55.5600 18.5034 -0.0786
55.5800 18.5101 -0.0649
55.6000 18.5168 -0.0684
55.6200 18.5234 -0.0720
55.6400 18.5301 -0.0690
55.6600 18.5368 -0.0646
55.6800 18.5435 -0.0713
55.7000 18.5501 -0.0715
55.7200 18.5566 -0.0611
55.7400 18.5633 -0.0728
55.7600 18.5700 -0.0748
55.7800 18.5767 -0.0653
55.8000 18.5834 -0.0717
55.8200 18.5901 -0.0695
55.8400 18.5968 -0.0697
55.8600 18.6034 -0.0702
55.8800 18.6100 -0.0733
55.9000 18.6166 -0.0641
55.9200 18.6233 -0.0712
55.9400 18.6300 -0.0805
55.9600 18.6367 -0.0619
55.9800 18.6434 -0.0715
56.0000 18.6501 -0.0719
56.0200 18.6568 -0.0665
56.0400 18.6634 -0.0704
56.0600 18.6701 -0.0755
56.0800 18.6767 -0.0633
56.1000 18.6833 -0.0712
56.1200 18.6900 -0.0774
56.1400 18.6967 -0.0620
56.1600 18.7034 -0.0745
56.1800 18.7101 -0.0816
56.2000 18.7168 -0.0619
56.2200 18.7235 -0.0769
56.2400 18.7300 -0.0780
56.2600 18.7367 -0.0598
56.2800 18.7433 -0.0777
56.3000 18.7500 -0.0816
56.3200 18.7568 -0.0595
56.3400 18.7635 -0.0746
56.3600 18.7701 -0.0817
56.3800 18.7768 -0.0614
56.4000 18.7834 -0.0828
56.4200 18.7900 -0.0772
56.4400 18.7967 -0.0621
56.4600 18.8033 -0.0788
56.4800 18.8101 -0.0724
56.5000 18.8168 -0.0662
56.5200 18.8234 -0.0827
56.5400 18.8301 -0.0724
56.5600 18.8368 -0.0706
56.5800 18.8434 -0.0753
56.6000 18.8500 -0.0794
56.6200 18.8566 -0.0686
56.6400 18.8633 -0.0764
56.6600 18.8700 -0.0747
56.6800 18.8767 -0.0716
56.7000 18.8834 -0.0754
56.7200 18.8901 -0.0752
56.7400 18.8968 -0.0736
56.7600 18.9034 -0.0693
56.7800 18.9100 -0.0776
56.8000 18.9166 -0.0692
56.8200 18.9233 -0.0713
56.8400 18.9300 -0.0840
56.8600 18.9368 -0.0717
56.8800 18.9435 -0.0698
56.9000 18.9502 -0.0814
56.9200 18.9568 -0.0664
56.9400 18.9635 -0.0765
56.9600 18.9701 -0.0773
56.9800 18.9767 -0.0628
57.0000 18.9834 -0.0768
57.0200 18.9901 -0.0822
57.0400 18.9968 -0.0637
57.0600 19.0034 -0.0776
57.0800 19.0101 -0.0826
57.1000 19.0168 -0.0593
57.1200 19.0235 -0.0793
57.1400 19.0301 -0.0819
57.1600 19.0366 -0.0641
57.1800 19.0433 -0.0771
57.2000 19.0500 -0.0737
57.2200 19.0567 -0.0672
57.2400 19.0634 -0.0818
57.2600 19.0701 -0.0732
57.2800 19.0768 -0.0667
57.3000 19.0834 -0.0816
57.3200 19.0900 -0.0801
57.3400 19.0966 -0.0619
57.3600 19.1033 -0.0823
57.3800 19.1100 -0.0779
57.4000 19.1167 -0.0688
57.4200 19.1234 -0.0793
57.4400 19.1301 -0.0742
57.4600 19.1368 -0.0749
57.4800 19.1434 -0.0764
57.5000 19.1500 -0.0752
57.5200 19.1567 -0.0768
57.5400 19.1633 -0.0761
57.5600 19.1700 -0.0763
57.5800 19.1768 -0.0806
57.6000 19.1834 -0.0731
57.6200 19.1901 -0.0733
57.6400 19.1968 -0.0791
57.6600 19.2035 -0.0767
57.6800 19.2101 -0.0715
57.7000 19.2167 -0.0785
57.7200 19.2234 -0.0710
57.7400 19.2300 -0.0756
57.7600 19.2368 -0.0798
57.7800 19.2435 -0.0737
57.8000 19.2502 -0.0758
57.8200 19.2568 -0.0839
57.8400 19.2635 -0.0725
57.8600 19.2701 -0.0810
57.8800 19.2767 -0.0768
57.9000 19.2833 -0.0671
57.9200 19.2900 -0.0833
57.9400 19.2967 -0.0786
57.9600 19.3034 -0.0717
57.9800 19.3100 -0.0843
58.0000 19.3167 -0.0685
58.0200 19.3234 -0.0737
58.0400 19.3300 -0.0885
58.0600 19.3366 -0.0736
58.0800 19.3433 -0.0745
58.1000 19.3500 -0.0853
58.1200 19.3567 -0.0707
58.1400 19.3634 -0.0734
58.1600 19.3700 -0.0912
58.1800 19.3767 -0.0714
58.2000 19.3834 -0.0731
58.2200 19.3901 -0.0892
58.2400 19.3967 -0.0710
58.2600 19.4034 -0.0755
58.2800 19.4101 -0.0888
58.3000 19.4167 -0.0708
58.3200 19.4234 -0.0790
58.3400 19.4301 -0.0834
58.3600 19.4368 -0.0728
58.3800 19.4435 -0.0816
58.4000 19.4501 -0.0864
58.4200 19.4567 -0.0743
58.4400 19.4633 -0.0780
58.4600 19.4700 -0.0818
58.4800 19.4767 -0.0762
58.5000 19.4834 -0.0796
58.5200 19.4901 -0.0813
58.5400 19.4968 -0.0793
58.5600 19.5035 -0.0787
58.5800 19.5101 -0.0823
58.6000 19.5167 -0.0826
58.6200 19.5233 -0.0751
58.6400 19.5300 -0.0800
58.6600 19.5367 -0.0870
58.6800 19.5434 -0.0752
58.7000 19.5501 -0.0831
58.7200 19.5568 -0.0823
58.7400 19.5634 -0.0773
58.7600 19.5701 -0.0859
58.7800 19.5767 -0.0871
58.8000 19.5833 -0.0728
58.8200 19.5900 -0.0862
58.8400 19.5967 -0.0892
58.8600 19.6034 -0.0737
58.8800 19.6101 -0.0865
58.9000 19.6167 -0.0894
58.9200 19.6234 -0.0778
58.9400 19.6300 -0.0874
58.9600 19.6366 -0.0886
58.9800 19.6433 -0.0779
59.0000 19.6500 -0.0881
59.0200 19.6567 -0.0859
59.0400 19.6634 -0.0783
59.0600 19.6701 -0.0884
59.0800 19.6768 -0.0892
59.1000 19.6835 -0.0807
59.1200 19.6901 -0.0917
59.1400 19.6967 -0.0869
59.1600 19.7034 -0.0787
59.1800 19.7101 -0.0868
59.2000 19.7167 -0.0947
59.2200 19.7234 -0.0823
59.2400 19.7301 -0.0864
59.2600 19.7368 -0.0922
59.2800 19.7435 -0.0870
59.3000 19.7500 -0.0963
