Raw Data
Time Displacement Force
(s) (mm) (N)
0.0000 0.0000 -0.3560
0.0200 0.0000 -0.3553
0.0400 0.0008 -0.3076
0.0600 0.0040 -0.2715
0.0800 0.0095 -0.3169
0.1000 0.0152 -0.3117
0.1200 0.0211 -0.2574
0.1400 0.0277 -0.2595
0.1600 0.0350 -0.2509
0.1800 0.0425 -0.2094
0.2000 0.0497 -0.1908
0.2200 0.0565 -0.1722
0.2400 0.0632 -0.1271
0.2600 0.0699 -0.1113
0.2800 0.0766 -0.0853
0.3000 0.0833 -0.0431
0.3200 0.0900 -0.0302
0.3400 0.0967 0.0059
0.3600 0.1034 0.0352
0.3800 0.1100 0.0436
0.4000 0.1167 0.0609
0.4200 0.1234 0.0723
0.4400 0.1301 0.0882
0.4600 0.1368 0.1070
0.4800 0.1434 0.1175
0.5000 0.1501 0.1288
0.5200 0.1568 0.1227
0.5400 0.1634 0.1429
0.5600 0.1700 0.1670
0.5800 0.1766 0.1801
0.6000 0.1833 0.2096
0.6200 0.1901 0.2402
0.6400 0.1968 0.2595
0.6600 0.2034 0.3018
0.6800 0.2101 0.3336
0.7000 0.2168 0.3388
0.7200 0.2234 0.3579
0.7400 0.2300 0.3587
0.7600 0.2367 0.3460
0.7800 0.2433 0.3571
0.8000 0.2500 0.3608
0.8200 0.2567 0.3526
0.8400 0.2634 0.3622
0.8600 0.2701 0.3563
0.8800 0.2767 0.3542
0.9000 0.2834 0.3631
0.9200 0.2900 0.3598
0.9400 0.2966 0.3548
0.9600 0.3033 0.3746
0.9800 0.3100 0.3623
1.0000 0.3167 0.3565
1.0200 0.3234 0.3737
1.0400 0.3300 0.3652
1.0600 0.3367 0.3637
1.0800 0.3433 0.3746
1.1000 0.3500 0.3688
1.1200 0.3566 0.3658
1.1400 0.3633 0.3791
1.1600 0.3701 0.3728
1.1800 0.3768 0.3680
1.2000 0.3834 0.3756
1.2200 0.3901 0.3780
1.2400 0.3968 0.3704
1.2600 0.4034 0.3786
1.2800 0.4101 0.3764
1.3000 0.4167 0.3751
1.3200 0.4234 0.3763
1.3400 0.4301 0.3735
1.3600 0.4368 0.3728
1.3800 0.4434 0.3769
1.4000 0.4501 0.3759
1.4200 0.4568 0.3674
1.4400 0.4634 0.3806
1.4600 0.4700 0.3826
1.4800 0.4766 0.3688
1.5000 0.4833 0.3802
1.5200 0.4900 0.3811
1.5400 0.4967 0.3687
1.5600 0.5034 0.3784
1.5800 0.5101 0.3810
1.6000 0.5167 0.3693
1.6200 0.5234 0.3769
1.6400 0.5300 0.3812
1.6600 0.5366 0.3664
1.6800 0.5433 0.3821
1.7000 0.5500 0.3738
1.7200 0.5567 0.3608
1.7400 0.5634 0.3789
1.7600 0.5701 0.3729
1.7800 0.5767 0.3603
1.8000 0.5834 0.3689
1.8200 0.5900 0.3674
1.8400 0.5967 0.3627
1.8600 0.6034 0.3653
1.8800 0.6100 0.3673
1.9000 0.6167 0.3595
1.9200 0.6234 0.3641
1.9400 0.6301 0.3663
1.9600 0.6368 0.3554
1.9800 0.6434 0.3599
2.0000 0.6500 0.3587
2.0200 0.6566 0.3608
2.0400 0.6633 0.3583
2.0600 0.6700 0.3610
2.0800 0.6767 0.3533
2.1000 0.6834 0.3557
2.1200 0.6901 0.3602
2.1400 0.6968 0.3505
2.1600 0.7034 0.3534
2.1800 0.7100 0.3589
2.2000 0.7166 0.3546
2.2200 0.7233 0.3529
2.2400 0.7300 0.3585
2.2600 0.7367 0.3495
2.2800 0.7434 0.3522
2.3000 0.7501 0.3548
2.3200 0.7568 0.3511
2.3400 0.7634 0.3515
2.3600 0.7700 0.3546
2.3800 0.7766 0.3449
2.4000 0.7833 0.3569
2.4200 0.7900 0.3492
2.4400 0.7967 0.3441
2.4600 0.8034 0.3562
2.4800 0.8100 0.3544
2.5000 0.8168 0.3406
2.5200 0.8234 0.3531
2.5400 0.8300 0.3549
2.5600 0.8367 0.3449
2.5800 0.8433 0.3484
2.6000 0.8501 0.3503
2.6200 0.8568 0.3471
2.6400 0.8635 0.3528
2.6600 0.8701 0.3477
2.6800 0.8768 0.3453
2.7000 0.8834 0.3516
2.7200 0.8900 0.3416
2.7400 0.8967 0.3492
2.7600 0.9033 0.3524
2.7800 0.9101 0.3406
2.8000 0.9168 0.3440
2.8200 0.9234 0.3460
2.8400 0.9301 0.3430
2.8600 0.9368 0.3479
2.8800 0.9434 0.3441
2.9000 0.9500 0.3425
2.9200 0.9566 0.3504
2.9400 0.9633 0.3422
2.9600 0.9700 0.3412
2.9800 0.9767 0.3544
3.0000 0.9834 0.3433
3.0200 0.9901 0.3399
3.0400 0.9968 0.3506
3.0600 1.0034 0.3397
3.0800 1.0100 0.3429
3.1000 1.0166 0.3482
3.1200 1.0233 0.3416
3.1400 1.0300 0.3484
3.1600 1.0367 0.3419
3.1800 1.0434 0.3369
3.2000 1.0501 0.3504
3.2200 1.0567 0.3377
3.2400 1.0634 0.3402
3.2600 1.0700 0.3463
3.2800 1.0767 0.3380
3.3000 1.0833 0.3395
3.3200 1.0900 0.3473
3.3400 1.0967 0.3394
3.3600 1.1034 0.3413
3.3800 1.1101 0.3447
3.4000 1.1168 0.3399
3.4200 1.1235 0.3399
3.4400 1.1301 0.3420
3.4600 1.1367 0.3409
3.4800 1.1433 0.3377
3.5000 1.1500 0.3424
3.5200 1.1567 0.3404
3.5400 1.1634 0.3347
3.5600 1.1701 0.3370
3.5800 1.1768 0.3419
3.6000 1.1834 0.3387
3.6200 1.1900 0.3319
3.6400 1.1966 0.3390
3.6600 1.2033 0.3377
3.6800 1.2100 0.3306
3.7000 1.2167 0.3442
3.7200 1.2234 0.3330
3.7400 1.2301 0.3314
3.7600 1.2368 0.3430
3.7800 1.2434 0.3270
3.8000 1.2500 0.3273
3.8200 1.2566 0.3446
3.8400 1.2633 0.3347
3.8600 1.2700 0.3209
3.8800 1.2767 0.3425
3.9000 1.2834 0.3303
3.9200 1.2900 0.3286
3.9400 1.2967 0.3408
3.9600 1.3034 0.3276
3.9800 1.3101 0.3272
4.0000 1.3167 0.3393
4.0200 1.3233 0.3233
4.0400 1.3300 0.3261
4.0600 1.3367 0.3431
4.0800 1.3434 0.3244
4.1000 1.3501 0.3261
4.1200 1.3568 0.3396
4.1400 1.3634 0.3205
4.1600 1.3700 0.3296
4.1800 1.3767 0.3361
4.2000 1.3833 0.3209
4.2200 1.3900 0.3328
4.2400 1.3968 0.3290
4.2600 1.4034 0.3222
4.2800 1.4101 0.3332
4.3000 1.4168 0.3292
4.3200 1.4234 0.3224
4.3400 1.4301 0.3315
4.3600 1.4367 0.3218
4.3800 1.4433 0.3267
4.4000 1.4500 0.3292
4.4200 1.4567 0.3220
4.4400 1.4634 0.3243
4.4600 1.4700 0.3239
4.4800 1.4767 0.3270
4.5000 1.4834 0.3264
4.5200 1.4900 0.3205
4.5400 1.4966 0.3271
4.5600 1.5033 0.3242
4.5800 1.5100 0.3144
4.6000 1.5167 0.3272
4.6200 1.5234 0.3204
4.6400 1.5301 0.3137
4.6600 1.5368 0.3280
4.6800 1.5434 0.3232
4.7000 1.5500 0.3140
4.7200 1.5566 0.3276
4.7400 1.5633 0.3158
4.7600 1.5700 0.3162
4.7800 1.5768 0.3338
4.8000 1.5835 0.3143
4.8200 1.5901 0.3143
4.8400 1.5968 0.3275
4.8600 1.6035 0.3132
4.8800 1.6101 0.3178
4.9000 1.6167 0.3236
4.9200 1.6233 0.3124
4.9400 1.6300 0.3195
4.9600 1.6367 0.3189
4.9800 1.6434 0.3076
5.0000 1.6501 0.3190
5.0200 1.6568 0.3249
5.0400 1.6635 0.3074
5.0600 1.6701 0.3155
5.0800 1.6767 0.3212
5.1000 1.6833 0.3127
5.1200 1.6900 0.3190
5.1400 1.6967 0.3185
5.1600 1.7034 0.3133
5.1800 1.7101 0.3150
5.2000 1.7168 0.3124
5.2200 1.7235 0.3171
5.2400 1.7301 0.3156
5.2600 1.7366 0.3145
5.2800 1.7433 0.3167
5.3000 1.7500 0.3099
5.3200 1.7567 0.3143
5.3400 1.7634 0.3168
5.3600 1.7700 0.3111
5.3800 1.7767 0.3149
5.4000 1.7834 0.3156
5.4200 1.7900 0.3075
5.4400 1.7967 0.3156
5.4600 1.8033 0.3220
5.4800 1.8100 0.3083
5.5000 1.8167 0.3156
5.5200 1.8234 0.3181
5.5400 1.8301 0.3028
5.5600 1.8368 0.3182
5.5800 1.8435 0.3146
5.6000 1.8501 0.2989
5.6200 1.8567 0.3236
5.6400 1.8633 0.3182
5.6600 1.8700 0.2994
5.6800 1.8767 0.3217
5.7000 1.8834 0.3171
5.7200 1.8901 0.3024
5.7400 1.8968 0.3213
5.7600 1.9034 0.3123
5.7800 1.9101 0.3046
5.8000 1.9167 0.3182
5.8200 1.9233 0.3102
5.8400 1.9300 0.3055
5.8600 1.9367 0.3192
5.8800 1.9434 0.3110
5.9000 1.9500 0.3040
5.9200 1.9567 0.3147
5.9400 1.9634 0.3096
5.9600 1.9700 0.3018
5.9800 1.9767 0.3178
6.0000 1.9833 0.3067
6.0200 1.9900 0.3009
6.0400 1.9967 0.3132
6.0600 2.0034 0.3065
6.0800 2.0101 0.3009
6.1000 2.0167 0.3148
6.1200 2.0234 0.3062
6.1400 2.0301 0.2949
6.1600 2.0367 0.3110
6.1800 2.0433 0.3038
6.2000 2.0500 0.3019
6.2200 2.0567 0.3113
6.2400 2.0634 0.3030
6.2600 2.0701 0.2992
6.2800 2.0768 0.3097
6.3000 2.0834 0.3006
6.3200 2.0901 0.3009
6.3400 2.0967 0.3086
6.3600 2.1033 0.3018
6.3800 2.1100 0.2951
6.4000 2.1167 0.3088
6.4200 2.1234 0.2990
6.4400 2.1301 0.3001
6.4600 2.1368 0.3065
6.4800 2.1435 0.2951
6.5000 2.1501 0.3007
6.5200 2.1567 0.3027
6.5400 2.1633 0.2981
6.5600 2.1700 0.3034
6.5800 2.1767 0.3010
6.6000 2.1834 0.2947
6.6200 2.1901 0.3003
6.6400 2.1967 0.2980
6.6600 2.2034 0.2944
6.6800 2.2101 0.3001
6.7000 2.2167 0.2985
6.7200 2.2233 0.2956
6.7400 2.2299 0.3016
6.7600 2.2367 0.2946
6.7800 2.2434 0.2991
6.8000 2.2501 0.2966
6.8200 2.2567 0.2869
6.8400 2.2634 0.3049
6.8600 2.2701 0.2980
6.8800 2.2767 0.2864
6.9000 2.2833 0.3008
6.9200 2.2900 0.2959
6.9400 2.2967 0.2914
6.9600 2.3034 0.3028
6.9800 2.3101 0.2925
7.0000 2.3168 0.2901
7.0200 2.3234 0.3000
7.0400 2.3301 0.2897
7.0600 2.3367 0.2877
7.0800 2.3433 0.3042
7.1000 2.3500 0.2851
7.1200 2.3567 0.2880
7.1400 2.3634 0.2984
7.1600 2.3701 0.2887
7.1800 2.3768 0.2912
7.2000 2.3835 0.2943
7.2200 2.3901 0.2869
7.2400 2.3967 0.2888
7.2600 2.4033 0.2955
7.2800 2.4100 0.2838
7.3000 2.4167 0.2908
7.3200 2.4234 0.2977
7.3400 2.4301 0.2832
7.3600 2.4368 0.2847
7.3800 2.4434 0.2924
7.4000 2.4501 0.2889
7.4200 2.4567 0.2838
7.4400 2.4633 0.2926
7.4600 2.4699 0.2892
7.4800 2.4767 0.2787
7.5000 2.4834 0.2915
7.5200 2.4900 0.2855
7.5400 2.4967 0.2813
7.5600 2.5034 0.2927
7.5800 2.5101 0.2854
7.6000 2.5167 0.2786
7.6200 2.5233 0.2908
7.6400 2.5300 0.2818
7.6600 2.5367 0.2821
7.6800 2.5434 0.2938
7.7000 2.5501 0.2787
7.7200 2.5568 0.2844
7.7400 2.5635 0.2888
7.7600 2.5701 0.2765
7.7800 2.5767 0.2851
7.8000 2.5833 0.2905
7.8200 2.5900 0.2728
7.8400 2.5967 0.2840
7.8600 2.6034 0.2860
7.8800 2.6101 0.2760
7.9000 2.6168 0.2849
7.9200 2.6234 0.2825
7.9400 2.6301 0.2741
7.9600 2.6367 0.2885
7.9800 2.6433 0.2813
8.0000 2.6500 0.2758
8.0200 2.6567 0.2900
8.0400 2.6634 0.2743
8.0600 2.6701 0.2748
8.0800 2.6767 0.2858
8.1000 2.6834 0.2746
8.1200 2.6901 0.2776
8.1400 2.6967 0.2817
8.1600 2.7033 0.2761
8.1800 2.7099 0.2813
8.2000 2.7166 0.2778
8.2200 2.7234 0.2762
8.2400 2.7301 0.2797
8.2600 2.7368 0.2805
8.2800 2.7434 0.2751
8.3000 2.7501 0.2790
8.3200 2.7567 0.2754
8.3400 2.7633 0.2776
8.3600 2.7700 0.2757
8.3800 2.7767 0.2748
8.4000 2.7834 0.2800
8.4200 2.7901 0.2791
8.4400 2.7967 0.2725
8.4600 2.8034 0.2764
8.4800 2.8101 0.2740
8.5000 2.8167 0.2698
8.5200 2.8234 0.2763
8.5400 2.8300 0.2696
8.5600 2.8367 0.2790
8.5800 2.8434 0.2738
8.6000 2.8501 0.2639
8.6200 2.8568 0.2784
8.6400 2.8635 0.2784
8.6600 2.8701 0.2669
8.6800 2.8767 0.2735
8.7000 2.8833 0.2730
8.7200 2.8900 0.2713
8.7400 2.8967 0.2770
8.7600 2.9034 0.2691
8.7800 2.9101 0.2665
8.8000 2.9167 0.2774
8.8200 2.9234 0.2685
8.8400 2.9301 0.2669
8.8600 2.9367 0.2721
8.8800 2.9433 0.2690
8.9000 2.9499 0.2706
8.9200 2.9566 0.2679
8.9400 2.9633 0.2699
8.9600 2.9700 0.2672
8.9800 2.9767 0.2637
9.0000 2.9834 0.2673
9.0200 2.9901 0.2692
9.0400 2.9967 0.2640
9.0600 3.0033 0.2721
9.0800 3.0100 0.2669
9.1000 3.0167 0.2607
9.1200 3.0234 0.2719
9.1400 3.0301 0.2657
9.1600 3.0368 0.2596
9.1800 3.0435 0.2717
9.2000 3.0501 0.2617
9.2200 3.0568 0.2583
9.2400 3.0634 0.2721
9.2600 3.0700 0.2634
9.2800 3.0767 0.2657
9.3000 3.0834 0.2693
9.3200 3.0901 0.2571
9.3400 3.0968 0.2638
9.3600 3.1035 0.2721
9.3800 3.1101 0.2575
9.4000 3.1167 0.2649
9.4200 3.1233 0.2670
9.4400 3.1300 0.2608
9.4600 3.1367 0.2683
9.4800 3.1434 0.2672
9.5000 3.1501 0.2571
9.5200 3.1567 0.2628
9.5400 3.1634 0.2665
9.5600 3.1701 0.2583
9.5800 3.1767 0.2627
9.6000 3.1834 0.2640
9.6200 3.1900 0.2586
9.6400 3.1967 0.2631
9.6600 3.2034 0.2595
9.6800 3.2100 0.2589
9.7000 3.2167 0.2630
9.7200 3.2234 0.2587
9.7400 3.2300 0.2576
9.7600 3.2367 0.2641
9.7800 3.2433 0.2586
9.8000 3.2499 0.2584
9.8200 3.2567 0.2666
9.8400 3.2634 0.2585
9.8600 3.2701 0.2573
9.8800 3.2768 0.2581
9.9000 3.2835 0.2578
9.9200 3.2901 0.2600
9.9400 3.2967 0.2619
9.9600 3.3033 0.2566
9.9800 3.3100 0.2594
10.0000 3.3167 0.2589
10.0200 3.3234 0.2511
10.0400 3.3301 0.2594
10.0600 3.3368 0.2620
10.0800 3.3435 0.2514
10.1000 3.3501 0.2551
10.1200 3.3567 0.2610
10.1400 3.3633 0.2546
10.1600 3.3700 0.2589
10.1800 3.3766 0.2577
10.2000 3.3833 0.2572
10.2200 3.3900 0.2568
10.2400 3.3967 0.2578
10.2600 3.4034 0.2569
10.2800 3.4101 0.2577
10.3000 3.4167 0.2511
10.3200 3.4233 0.2537
10.3400 3.4299 0.2637
10.3600 3.4366 0.2518
10.3800 3.4434 0.2517
10.4000 3.4501 0.2578
10.4200 3.4567 0.2507
10.4400 3.4634 0.2568
10.4600 3.4701 0.2547
10.4800 3.4767 0.2479
10.5000 3.4834 0.2542
10.5200 3.4900 0.2505
10.5400 3.4967 0.2523
10.5600 3.5034 0.2566
10.5800 3.5101 0.2490
10.6000 3.5167 0.2467
10.6200 3.5234 0.2551
10.6400 3.5301 0.2457
10.6600 3.5368 0.2489
10.6800 3.5434 0.2540
10.7000 3.5500 0.2483
10.7200 3.5566 0.2521
10.7400 3.5634 0.2517
10.7600 3.5701 0.2467
10.7800 3.5768 0.2524
10.8000 3.5834 0.2513
10.8200 3.5901 0.2423
10.8400 3.5968 0.2499
10.8600 3.6033 0.2517
10.8800 3.6100 0.2468
10.9000 3.6167 0.2466
10.9200 3.6234 0.2493
10.9400 3.6301 0.2426
10.9600 3.6368 0.2502
10.9800 3.6434 0.2447
11.0000 3.6501 0.2458
11.0200 3.6567 0.2435
11.0400 3.6633 0.2459
11.0600 3.6700 0.2475
11.0800 3.6766 0.2395
11.1000 3.6833 0.2491
11.1200 3.6900 0.2435
11.1400 3.6967 0.2383
11.1600 3.7034 0.2504
11.1800 3.7101 0.2376
11.2000 3.7167 0.2397
11.2200 3.7233 0.2541
11.2400 3.7300 0.2394
11.2600 3.7366 0.2418
11.2800 3.7434 0.2496
11.3000 3.7501 0.2387
11.3200 3.7568 0.2449
11.3400 3.7635 0.2521
11.3600 3.7702 0.2310
11.3800 3.7768 0.2462
11.4000 3.7834 0.2471
11.4200 3.7900 0.2344
11.4400 3.7967 0.2486
11.4600 3.8034 0.2392
11.4800 3.8101 0.2315
11.5000 3.8168 0.2516
11.5200 3.8235 0.2400
11.5400 3.8301 0.2323
11.5600 3.8368 0.2516
11.5800 3.8434 0.2384
11.6000 3.8500 0.2299
11.6200 3.8566 0.2507
11.6400 3.8633 0.2402
11.6600 3.8700 0.2309
11.6800 3.8767 0.2492
11.7000 3.8834 0.2345
11.7200 3.8901 0.2293
11.7400 3.8967 0.2487
11.7600 3.9033 0.2350
11.7800 3.9099 0.2297
11.8000 3.9166 0.2526
11.8200 3.9233 0.2352
11.8400 3.9300 0.2290
11.8600 3.9367 0.2476
11.8800 3.9434 0.2333
11.9000 3.9501 0.2295
11.9200 3.9567 0.2466
11.9400 3.9633 0.2352
11.9600 3.9700 0.2287
11.9800 3.9766 0.2472
12.0000 3.9834 0.2277
12.0200 3.9901 0.2300
12.0400 3.9968 0.2457
12.0600 4.0034 0.2289
12.0800 4.0101 0.2304
12.1000 4.0168 0.2437
12.1200 4.0234 0.2310
12.1400 4.0300 0.2346
12.1600 4.0367 0.2379
12.1800 4.0434 0.2250
12.2000 4.0501 0.2359
12.2200 4.0568 0.2385
12.2400 4.0634 0.2271
12.2600 4.0701 0.2382
12.2800 4.0768 0.2330
12.3000 4.0834 0.2268
12.3200 4.0900 0.2363
12.3400 4.0966 0.2381
12.3600 4.1033 0.2313
12.3800 4.1100 0.2318
12.4000 4.1167 0.2307
12.4200 4.1234 0.2282
12.4400 4.1301 0.2348
12.4600 4.1368 0.2239
12.4800 4.1434 0.2318
12.5000 4.1500 0.2372
12.5200 4.1566 0.2272
12.5400 4.1633 0.2309
12.5600 4.1700 0.2321
12.5800 4.1767 0.2258
12.6000 4.1834 0.2353
12.6200 4.1901 0.2301
12.6400 4.1968 0.2237
12.6600 4.2034 0.2268
12.6800 4.2100 0.2288
12.7000 4.2167 0.2280
12.7200 4.2233 0.2289
12.7400 4.2300 0.2305
12.7600 4.2367 0.2230
12.7800 4.2434 0.2294
12.8000 4.2501 0.2299
12.8200 4.2568 0.2242
12.8400 4.2634 0.2265
12.8600 4.2700 0.2320
12.8800 4.2766 0.2265
12.9000 4.2834 0.2283
12.9200 4.2901 0.2283
12.9400 4.2968 0.2239
12.9600 4.3035 0.2227
12.9800 4.3101 0.2267
13.0000 4.3168 0.2251
13.0200 4.3234 0.2212
13.0400 4.3300 0.2283
13.0600 4.3366 0.2259
13.0800 4.3434 0.2243
13.1000 4.3501 0.2209
13.1200 4.3568 0.2261
13.1400 4.3634 0.2246
13.1600 4.3701 0.2212
13.1800 4.3768 0.2216
13.2000 4.3834 0.2229
13.2200 4.3900 0.2209
13.2400 4.3966 0.2252
13.2600 4.4033 0.2225
13.2800 4.4100 0.2206
13.3000 4.4167 0.2265
13.3200 4.4234 0.2249
13.3400 4.4301 0.2137
13.3600 4.4368 0.2234
13.3800 4.4434 0.2221
13.4000 4.4500 0.2153
13.4200 4.4566 0.2264
13.4400 4.4633 0.2219
13.4600 4.4701 0.2147
13.4800 4.4768 0.2225
13.5000 4.4835 0.2226
13.5200 4.4902 0.2171
13.5400 4.4968 0.2247
13.5600 4.5034 0.2164
13.5800 4.5100 0.2146
13.6000 4.5167 0.2258
13.6200 4.5234 0.2182
13.6400 4.5301 0.2162
13.6600 4.5368 0.2226
13.6800 4.5434 0.2143
13.7000 4.5501 0.2218
13.7200 4.5568 0.2222
13.7400 4.5634 0.2150
13.7600 4.5700 0.2192
13.7800 4.5766 0.2221
13.8000 4.5833 0.2174
13.8200 4.5900 0.2124
13.8400 4.5967 0.2219
13.8600 4.6034 0.2137
13.8800 4.6101 0.2128
13.9000 4.6168 0.2186
13.9200 4.6234 0.2122
13.9400 4.6300 0.2206
13.9600 4.6366 0.2163
13.9800 4.6433 0.2072
14.0000 4.6500 0.2178
14.0200 4.6567 0.2144
14.0400 4.6634 0.2136
14.0600 4.6700 0.2201
14.0800 4.6767 0.2146
14.1000 4.6834 0.2104
14.1200 4.6900 0.2169
14.1400 4.6966 0.2117
14.1600 4.7034 0.2157
14.1800 4.7101 0.2159
14.2000 4.7168 0.2062
14.2200 4.7234 0.2151
14.2400 4.7301 0.2141
14.2600 4.7368 0.2092
14.2800 4.7434 0.2131
14.3000 4.7500 0.2123
14.3200 4.7567 0.2105
14.3400 4.7633 0.2148
14.3600 4.7700 0.2048
14.3800 4.7767 0.2102
14.4000 4.7834 0.2172
14.4200 4.7901 0.2025
14.4400 4.7968 0.2094
14.4600 4.8035 0.2175
14.4800 4.8100 0.1977
14.5000 4.8166 0.2180
14.5200 4.8233 0.2141
14.5400 4.8300 0.2009
14.5600 4.8367 0.2165
14.5800 4.8434 0.2101
14.6000 4.8500 0.1999
14.6200 4.8567 0.2123
14.6400 4.8634 0.2048
14.6600 4.8700 0.1990
14.6800 4.8766 0.2182
14.7000 4.8833 0.2041
14.7200 4.8900 0.2038
14.7400 4.8967 0.2146
14.7600 4.9034 0.2006
14.7800 4.9100 0.2049
14.8000 4.9167 0.2158
14.8200 4.9234 0.1960
14.8400 4.9300 0.2046
14.8600 4.9367 0.2153
14.8800 4.9433 0.1954
14.9000 4.9500 0.2043
14.9200 4.9567 0.2155
14.9400 4.9634 0.1955
14.9600 4.9701 0.2040
14.9800 4.9768 0.2094
15.0000 4.9834 0.1953
15.0200 4.9900 0.2098
15.0400 4.9966 0.2088
15.0600 5.0033 0.1958
15.0800 5.0100 0.2082
15.1000 5.0168 0.2054
15.1200 5.0234 0.1947
15.1400 5.0301 0.2077
15.1600 5.0368 0.2035
15.1800 5.0434 0.1982
15.2000 5.0500 0.2050
15.2200 5.0566 0.2012
15.2400 5.0633 0.2018
15.2600 5.0701 0.2062
15.2800 5.0767 0.1999
15.3000 5.0834 0.2034
15.3200 5.0901 0.2032
15.3400 5.0968 0.1989
15.3600 5.1034 0.2004
15.3800 5.1100 0.1977
15.4000 5.1166 0.1993
15.4200 5.1233 0.2052
15.4400 5.1300 0.1954
15.4600 5.1367 0.1969
15.4800 5.1434 0.2036
15.5000 5.1500 0.1926
15.5200 5.1567 0.2003
15.5400 5.1634 0.1993
15.5600 5.1700 0.1939
15.5800 5.1766 0.1995
15.6000 5.1833 0.1978
15.6200 5.1900 0.1930
15.6400 5.1967 0.1995
15.6600 5.2034 0.1964
15.6800 5.2101 0.1905
15.7000 5.2168 0.2002
15.7200 5.2235 0.1911
15.7400 5.2301 0.1930
15.7600 5.2367 0.2007
15.7800 5.2434 0.1902
15.8000 5.2501 0.1873
15.8200 5.2568 0.2016
15.8400 5.2634 0.1947
15.8600 5.2701 0.1844
15.8800 5.2768 0.2008
15.9000 5.2835 0.1889
15.9200 5.2900 0.1861
15.9400 5.2966 0.2013
15.9600 5.3033 0.1876
15.9800 5.3100 0.1893
16.0000 5.3167 0.1976
16.0200 5.3234 0.1860
16.0400 5.3301 0.1892
16.0600 5.3368 0.1936
16.0800 5.3434 0.1849
16.1000 5.3500 0.1913
16.1200 5.3566 0.1912
16.1400 5.3633 0.1849
16.1600 5.3700 0.1902
16.1800 5.3767 0.1873
16.2000 5.3834 0.1872
16.2200 5.3901 0.1902
16.2400 5.3968 0.1872
16.2600 5.4034 0.1849
16.2800 5.4101 0.1864
16.3000 5.4167 0.1845
16.3200 5.4233 0.1897
16.3400 5.4300 0.1856
16.3600 5.4367 0.1829
16.3800 5.4434 0.1844
16.4000 5.4501 0.1877
16.4200 5.4568 0.1831
16.4400 5.4634 0.1816
16.4600 5.4700 0.1870
16.4800 5.4767 0.1875
16.5000 5.4833 0.1822
16.5200 5.4900 0.1848
16.5400 5.4968 0.1857
16.5600 5.5034 0.1766
16.5800 5.5101 0.1876
16.6000 5.5168 0.1846
16.6200 5.5234 0.1784
16.6400 5.5300 0.1892
16.6600 5.5366 0.1812
16.6800 5.5433 0.1809
16.7000 5.5500 0.1890
16.7200 5.5567 0.1812
16.7400 5.5634 0.1790
16.7600 5.5701 0.1868
16.7800 5.5767 0.1804
16.8000 5.5834 0.1780
16.8200 5.5900 0.1875
16.8400 5.5967 0.1745
16.8600 5.6033 0.1834
16.8800 5.6100 0.1858
16.9000 5.6167 0.1733
16.9200 5.6234 0.1866
16.9400 5.6301 0.1809
16.9600 5.6368 0.1740
16.9800 5.6435 0.1778
17.0000 5.6501 0.1840
17.0200 5.6566 0.1740
17.0400 5.6633 0.1810
17.0600 5.6700 0.1810
17.0800 5.6768 0.1740
17.1000 5.6835 0.1805
17.1200 5.6901 0.1798
17.1400 5.6968 0.1763
17.1600 5.7034 0.1834
17.1800 5.7100 0.1779
17.2000 5.7166 0.1778
17.2200 5.7233 0.1820
17.2400 5.7300 0.1758
17.2600 5.7367 0.1783
17.2800 5.7434 0.1775
17.3000 5.7501 0.1746
17.3200 5.7568 0.1771
17.3400 5.7635 0.1788
17.3600 5.7701 0.1716
17.3800 5.7767 0.1792
17.4000 5.7833 0.1778
17.4200 5.7900 0.1754
17.4400 5.7967 0.1772
17.4600 5.8034 0.1738
17.4800 5.8101 0.1753
17.5000 5.8168 0.1783
17.5200 5.8234 0.1673
17.5400 5.8300 0.1786
17.5600 5.8366 0.1776
17.5800 5.8432 0.1743
17.6000 5.8500 0.1743
17.6200 5.8567 0.1776
17.6400 5.8634 0.1747
17.6600 5.8701 0.1733
17.6800 5.8767 0.1782
17.7000 5.8834 0.1787
17.7200 5.8900 0.1769
17.7400 5.8967 0.1709
17.7600 5.9033 0.1764
17.7800 5.9100 0.1718
17.8000 5.9167 0.1720
17.8200 5.9234 0.1715
17.8400 5.9301 0.1727
17.8600 5.9368 0.1745
17.8800 5.9435 0.1685
17.9000 5.9501 0.1710
17.9200 5.9567 0.1718
17.9400 5.9633 0.1708
17.9600 5.9700 0.1753
17.9800 5.9767 0.1663
18.0000 5.9834 0.1712
18.0200 5.9901 0.1762
18.0400 5.9968 0.1689
18.0600 6.0034 0.1675
18.0800 6.0100 0.1736
18.1000 6.0167 0.1674
18.1200 6.0233 0.1674
18.1400 6.0300 0.1743
18.1600 6.0367 0.1632
18.1800 6.0434 0.1683
18.2000 6.0501 0.1753
18.2200 6.0568 0.1646
18.2400 6.0634 0.1630
18.2600 6.0701 0.1757
18.2800 6.0767 0.1647
18.3000 6.0833 0.1668
18.3200 6.0900 0.1745
18.3400 6.0967 0.1657
18.3600 6.1034 0.1616
18.3800 6.1101 0.1714
18.4000 6.1167 0.1673
18.4200 6.1234 0.1648
18.4400 6.1301 0.1702
18.4600 6.1367 0.1631
18.4800 6.1433 0.1641
18.5000 6.1500 0.1703
18.5200 6.1567 0.1682
18.5400 6.1634 0.1567
18.5600 6.1701 0.1708
18.5800 6.1768 0.1643
18.6000 6.1835 0.1559
18.6200 6.1901 0.1727
18.6400 6.1967 0.1634
18.6600 6.2033 0.1548
18.6800 6.2100 0.1756
18.7000 6.2167 0.1617
18.7200 6.2234 0.1590
18.7400 6.2301 0.1725
18.7600 6.2368 0.1597
18.7800 6.2435 0.1612
18.8000 6.2501 0.1678
18.8200 6.2567 0.1597
18.8400 6.2633 0.1642
18.8600 6.2700 0.1730
18.8800 6.2767 0.1489
18.9000 6.2834 0.1677
18.9200 6.2901 0.1679
18.9400 6.2967 0.1514
18.9600 6.3034 0.1657
18.9800 6.3101 0.1629
19.0000 6.3167 0.1553
19.0200 6.3233 0.1686
19.0400 6.3299 0.1592
19.0600 6.3367 0.1564
19.0800 6.3434 0.1670
19.1000 6.3501 0.1539
19.1200 6.3567 0.1576
19.1400 6.3634 0.1687
19.1600 6.3701 0.1522
19.1800 6.3767 0.1593
19.2000 6.3833 0.1621
19.2200 6.3900 0.1564
19.2400 6.3968 0.1630
19.2600 6.4035 0.1554
19.2800 6.4101 0.1591
19.3000 6.4168 0.1565
19.3200 6.4235 0.1528
19.3400 6.4301 0.1560
19.3600 6.4367 0.1640
19.3800 6.4433 0.1543
19.4000 6.4500 0.1573
19.4200 6.4567 0.1605
19.4400 6.4634 0.1476
19.4600 6.4701 0.1602
19.4800 6.4768 0.1595
19.5000 6.4835 0.1408
19.5200 6.4901 0.1571
19.5400 6.4967 0.1622
19.5600 6.5033 0.1461
19.5800 6.5100 0.1627
19.6000 6.5167 0.1577
19.6200 6.5234 0.1445
19.6400 6.5301 0.1604
19.6600 6.5368 0.1591
19.6800 6.5435 0.1430
19.7000 6.5501 0.1635
19.7200 6.5567 0.1553
19.7400 6.5633 0.1411
19.7600 6.5699 0.1654
19.7800 6.5767 0.1548
19.8000 6.5834 0.1383
19.8200 6.5900 0.1596
19.8400 6.5967 0.1547
19.8600 6.6034 0.1463
19.8800 6.6100 0.1586
19.9000 6.6167 0.1524
19.9200 6.6233 0.1468
19.9400 6.6300 0.1585
19.9600 6.6367 0.1503
19.9800 6.6434 0.1460
20.0000 6.6501 0.1564
20.0200 6.6568 0.1440
20.0400 6.6635 0.1496
20.0600 6.6701 0.1534
20.0800 6.6767 0.1436
20.1000 6.6833 0.1476
20.1200 6.6900 0.1512
20.1400 6.6967 0.1476
20.1600 6.7034 0.1518
20.1800 6.7101 0.1513
20.2000 6.7168 0.1424
20.2200 6.7235 0.1519
20.2400 6.7301 0.1534
20.2600 6.7367 0.1453
20.2800 6.7433 0.1523
20.3000 6.7500 0.1431
20.3200 6.7567 0.1459
20.3400 6.7634 0.1538
20.3600 6.7701 0.1457
20.3800 6.7767 0.1490
20.4000 6.7834 0.1473
20.4200 6.7901 0.1396
20.4400 6.7967 0.1467
20.4600 6.8033 0.1492
20.4800 6.8100 0.1424
20.5000 6.8167 0.1480
20.5200 6.8234 0.1420
20.5400 6.8300 0.1430
20.5600 6.8367 0.1500
20.5800 6.8434 0.1459
20.6000 6.8501 0.1456
20.6200 6.8567 0.1469
20.6400 6.8633 0.1440
20.6600 6.8700 0.1500
20.6800 6.8767 0.1412
20.7000 6.8834 0.1394
20.7200 6.8901 0.1517
20.7400 6.8968 0.1405
20.7600 6.9035 0.1367
20.7800 6.9101 0.1479
20.8000 6.9167 0.1450
20.8200 6.9233 0.1365
20.8400 6.9300 0.1484
20.8600 6.9367 0.1442
20.8800 6.9434 0.1388
20.9000 6.9501 0.1432
20.9200 6.9568 0.1397
20.9400 6.9635 0.1413
20.9600 6.9701 0.1467
20.9800 6.9767 0.1374
21.0000 6.9834 0.1412
21.0200 6.9900 0.1447
21.0400 6.9967 0.1383
21.0600 7.0034 0.1409
21.0800 7.0101 0.1415
21.1000 7.0167 0.1409
21.1200 7.0234 0.1428
21.1400 7.0301 0.1413
21.1600 7.0367 0.1340
21.1800 7.0433 0.1441
21.2000 7.0499 0.1467
21.2200 7.0566 0.1335
21.2400 7.0633 0.1398
21.2600 7.0700 0.1400
21.2800 7.0767 0.1355
21.3000 7.0834 0.1418
21.3200 7.0900 0.1379
21.3400 7.0967 0.1411
21.3600 7.1033 0.1396
21.3800 7.1100 0.1373
21.4000 7.1167 0.1341
21.4200 7.1234 0.1395
21.4400 7.1301 0.1398
21.4600 7.1367 0.1368
21.4800 7.1434 0.1402
21.5000 7.1501 0.1353
21.5200 7.1567 0.1386
21.5400 7.1634 0.1354
21.5600 7.1700 0.1365
21.5800 7.1767 0.1397
21.6000 7.1834 0.1363
21.6200 7.1901 0.1311
21.6400 7.1968 0.1389
21.6600 7.2035 0.1384
21.6800 7.2101 0.1302
21.7000 7.2167 0.1406
21.7200 7.2233 0.1392
21.7400 7.2300 0.1278
21.7600 7.2367 0.1391
21.7800 7.2434 0.1371
21.8000 7.2501 0.1246
21.8200 7.2568 0.1394
21.8400 7.2634 0.1362
21.8600 7.2701 0.1249
21.8800 7.2767 0.1345
21.9000 7.2833 0.1382
21.9200 7.2899 0.1262
21.9400 7.2966 0.1353
21.9600 7.3033 0.1341
21.9800 7.3100 0.1263
22.0000 7.3167 0.1363
22.0200 7.3234 0.1330
22.0400 7.3301 0.1228
22.0600 7.3367 0.1336
22.0800 7.3433 0.1321
22.1000 7.3500 0.1267
22.1200 7.3567 0.1317
22.1400 7.3634 0.1338
22.1600 7.3701 0.1240
22.1800 7.3768 0.1314
22.2000 7.3835 0.1310
22.2200 7.3901 0.1221
22.2400 7.3967 0.1340
22.2600 7.4033 0.1243
22.2800 7.4100 0.1274
22.3000 7.4167 0.1323
22.3200 7.4234 0.1261
22.3400 7.4301 0.1242
22.3600 7.4368 0.1328
22.3800 7.4434 0.1279
22.4000 7.4501 0.1192
22.4200 7.4567 0.1303
22.4400 7.4633 0.1303
22.4600 7.4700 0.1222
22.4800 7.4766 0.1293
22.5000 7.4834 0.1259
22.5200 7.4900 0.1204
22.5400 7.4967 0.1274
22.5600 7.5034 0.1241
22.5800 7.5101 0.1200
22.6000 7.5167 0.1279
22.6200 7.5233 0.1291
22.6400 7.5299 0.1202
22.6600 7.5366 0.1296
22.6800 7.5434 0.1227
22.7000 7.5501 0.1183
22.7200 7.5568 0.1300
22.7400 7.5634 0.1245
22.7600 7.5701 0.1169
22.7800 7.5767 0.1254
22.8000 7.5833 0.1234
22.8200 7.5900 0.1229
22.8400 7.5967 0.1239
22.8600 7.6034 0.1227
22.8800 7.6101 0.1187
22.9000 7.6167 0.1245
22.9200 7.6234 0.1223
22.9400 7.6301 0.1245
22.9600 7.6368 0.1214
22.9800 7.6434 0.1178
23.0000 7.6500 0.1259
23.0200 7.6567 0.1197
23.0400 7.6634 0.1206
23.0600 7.6701 0.1232
23.0800 7.6768 0.1201
23.1000 7.6835 0.1213
23.1200 7.6901 0.1177
23.1400 7.6968 0.1181
23.1600 7.7034 0.1260
23.1800 7.7100 0.1183
23.2000 7.7166 0.1167
23.2200 7.7234 0.1217
23.2400 7.7301 0.1191
23.2600 7.7368 0.1152
23.2800 7.7434 0.1224
23.3000 7.7501 0.1163
23.3200 7.7567 0.1171
23.3400 7.7633 0.1227
23.3600 7.7699 0.1160
23.3800 7.7766 0.1190
23.4000 7.7833 0.1171
23.4200 7.7900 0.1136
23.4400 7.7967 0.1208
23.4600 7.8034 0.1167
23.4800 7.8101 0.1159
23.5000 7.8167 0.1165
23.5200 7.8233 0.1181
23.5400 7.8300 0.1146
23.5600 7.8367 0.1165
23.5800 7.8434 0.1193
23.6000 7.8501 0.1137
23.6200 7.8568 0.1156
23.6400 7.8635 0.1160
23.6600 7.8701 0.1147
23.6800 7.8768 0.1148
23.7000 7.8834 0.1174
23.7200 7.8900 0.1135
23.7400 7.8967 0.1185
23.7600 7.9034 0.1147
23.7800 7.9101 0.1055
23.8000 7.9168 0.1204
23.8200 7.9235 0.1160
23.8400 7.9301 0.1060
23.8600 7.9368 0.1129
23.8800 7.9434 0.1175
23.9000 7.9500 0.1105
23.9200 7.9567 0.1131
23.9400 7.9634 0.1147
23.9600 7.9701 0.1114
23.9800 7.9767 0.1120
24.0000 7.9834 0.1151
24.0200 7.9901 0.1101
24.0400 7.9968 0.1090
24.0600 8.0034 0.1117
24.0800 8.0100 0.1078
24.1000 8.0166 0.1130
24.1200 8.0233 0.1124
24.1400 8.0300 0.1047
24.1600 8.0367 0.1074
24.1800 8.0434 0.1170
24.2000 8.0500 0.1066
24.2200 8.0567 0.1083
24.2400 8.0633 0.1174
24.2600 8.0699 0.1087
24.2800 8.0766 0.1041
24.3000 8.0834 0.1156
24.3200 8.0901 0.1016
24.3400 8.0968 0.1101
24.3600 8.1035 0.1130
24.3800 8.1101 0.1009
24.4000 8.1167 0.1082
24.4200 8.1233 0.1165
24.4400 8.1300 0.1074
24.4600 8.1367 0.1059
24.4800 8.1434 0.1116
24.5000 8.1501 0.1038
24.5200 8.1568 0.1073
24.5400 8.1635 0.1100
24.5600 8.1701 0.1020
24.5800 8.1768 0.1090
24.6000 8.1834 0.1046
24.6200 8.1900 0.1033
24.6400 8.1966 0.1116
24.6600 8.2033 0.1046
24.6800 8.2100 0.1038
24.7000 8.2167 0.1056
24.7200 8.2234 0.1076
24.7400 8.2301 0.1020
24.7600 8.2367 0.1056
24.7800 8.2433 0.1089
24.8000 8.2499 0.1032
24.8200 8.2566 0.1039
24.8400 8.2633 0.1055
24.8600 8.2701 0.1020
24.8800 8.2767 0.1018
24.9000 8.2834 0.1102
24.9200 8.2901 0.1006
24.9400 8.2967 0.0999
24.9600 8.3034 0.1093
24.9800 8.3100 0.1003
25.0000 8.3167 0.1015
25.0200 8.3234 0.1093
25.0400 8.3301 0.0930
25.0600 8.3367 0.1030
25.0800 8.3434 0.1079
25.1000 8.3501 0.0935
25.1200 8.3568 0.0986
25.1400 8.3634 0.1070
25.1600 8.3700 0.0972
25.1800 8.3766 0.0979
25.2000 8.3833 0.1042
25.2200 8.3901 0.1001
25.2400 8.3967 0.0987
25.2600 8.4034 0.0997
25.2800 8.4101 0.0974
25.3000 8.4168 0.0975
25.3200 8.4234 0.0980
25.3400 8.4300 0.0972
25.3600 8.4367 0.0991
25.3800 8.4434 0.0962
25.4000 8.4501 0.0999
25.4200 8.4568 0.0972
25.4400 8.4634 0.0992
25.4600 8.4701 0.0942
25.4800 8.4768 0.0947
25.5000 8.4834 0.0949
25.5200 8.4899 0.0965
25.5400 8.4966 0.0963
25.5600 8.5033 0.0954
25.5800 8.5100 0.0927
25.6000 8.5167 0.0923
25.6200 8.5233 0.0962
25.6400 8.5301 0.0950
25.6600 8.5367 0.0910
25.6800 8.5434 0.0983
25.7000 8.5500 0.0949
25.7200 8.5566 0.0885
25.7400 8.5634 0.0955
25.7600 8.5701 0.0952
25.7800 8.5768 0.0932
25.8000 8.5835 0.0930
25.8200 8.5902 0.0942
25.8400 8.5968 0.0866
25.8600 8.6034 0.0970
25.8800 8.6100 0.0951
25.9000 8.6167 0.0891
25.9200 8.6234 0.0951
25.9400 8.6301 0.0929
25.9600 8.6368 0.0910
25.9800 8.6435 0.0925
26.0000 8.6501 0.0906
26.0200 8.6568 0.0861
26.0400 8.6634 0.0951
26.0600 8.6700 0.0891
26.0800 8.6766 0.0857
26.1000 8.6833 0.0950
26.1200 8.6900 0.0853
26.1400 8.6967 0.0847
26.1600 8.7034 0.0998
26.1800 8.7101 0.0852
26.2000 8.7168 0.0866
26.2200 8.7234 0.0902
26.2400 8.7300 0.0893
26.2600 8.7366 0.0901
26.2800 8.7433 0.0884
26.3000 8.7500 0.0845
26.3200 8.7567 0.0890
26.3400 8.7634 0.0868
26.3600 8.7701 0.0853
26.3800 8.7767 0.0930
26.4000 8.7833 0.0844
26.4200 8.7900 0.0897
26.4400 8.7966 0.0911
26.4600 8.8034 0.0794
26.4800 8.8101 0.0848
26.5000 8.8168 0.0921
26.5200 8.8235 0.0791
26.5400 8.8301 0.0864
26.5600 8.8368 0.0910
26.5800 8.8434 0.0779
26.6000 8.8500 0.0888
26.6200 8.8567 0.0891
26.6400 8.8634 0.0763
26.6600 8.8701 0.0907
26.6800 8.8767 0.0865
26.7000 8.8834 0.0718
26.7200 8.8901 0.0903
26.7400 8.8968 0.0856
26.7600 8.9034 0.0738
26.7800 8.9100 0.0886
26.8000 8.9166 0.0845
26.8200 8.9233 0.0779
26.8400 8.9300 0.0897
26.8600 8.9367 0.0796
26.8800 8.9434 0.0816
26.9000 8.9501 0.0870
26.9200 8.9568 0.0765
26.9400 8.9634 0.0793
26.9600 8.9700 0.0890
26.9800 8.9766 0.0784
27.0000 8.9833 0.0755
27.0200 8.9900 0.0846
27.0400 8.9967 0.0804
27.0600 9.0034 0.0792
27.0800 9.0101 0.0836
27.1000 9.0168 0.0793
27.1200 9.0234 0.0800
27.1400 9.0300 0.0841
27.1600 9.0366 0.0811
27.1800 9.0433 0.0842
27.2000 9.0500 0.0810
27.2200 9.0567 0.0785
27.2400 9.0634 0.0808
27.2600 9.0701 0.0796
27.2800 9.0768 0.0774
27.3000 9.0834 0.0803
27.3200 9.0900 0.0730
27.3400 9.0967 0.0820
27.3600 9.1034 0.0763
27.3800 9.1101 0.0763
27.4000 9.1168 0.0824
27.4200 9.1234 0.0783
27.4400 9.1301 0.0729
27.4600 9.1368 0.0815
27.4800 9.1434 0.0764
27.5000 9.1500 0.0753
27.5200 9.1567 0.0876
27.5400 9.1634 0.0687
27.5600 9.1701 0.0716
27.5800 9.1767 0.0869
27.6000 9.1834 0.0711
27.6200 9.1901 0.0725
27.6400 9.1968 0.0832
27.6600 9.2034 0.0674
27.6800 9.2100 0.0756
27.7000 9.2166 0.0807
27.7200 9.2233 0.0669
27.7400 9.2300 0.0774
27.7600 9.2367 0.0774
27.7800 9.2434 0.0652
27.8000 9.2501 0.0775
27.8200 9.2568 0.0745
27.8400 9.2634 0.0653
27.8600 9.2700 0.0755
27.8800 9.2766 0.0784
27.9000 9.2833 0.0701
27.9200 9.2901 0.0732
27.9400 9.2968 0.0753
27.9600 9.3035 0.0678
27.9800 9.3101 0.0715
28.0000 9.3168 0.0735
28.0200 9.3234 0.0716
28.0400 9.3300 0.0704
28.0600 9.3367 0.0736
28.0800 9.3434 0.0683
28.1000 9.3501 0.0689
28.1200 9.3568 0.0757
28.1400 9.3634 0.0700
28.1600 9.3701 0.0676
28.1800 9.3768 0.0755
28.2000 9.3834 0.0679
28.2200 9.3900 0.0665
28.2400 9.3966 0.0757
28.2600 9.4033 0.0656
28.2800 9.4100 0.0672
28.3000 9.4167 0.0727
28.3200 9.4234 0.0696
28.3400 9.4301 0.0630
28.3600 9.4368 0.0715
28.3800 9.4434 0.0673
28.4000 9.4500 0.0652
28.4200 9.4566 0.0745
28.4400 9.4633 0.0656
28.4600 9.4700 0.0639
28.4800 9.4767 0.0726
28.5000 9.4834 0.0618
28.5200 9.4901 0.0634
28.5400 9.4967 0.0715
28.5600 9.5034 0.0608
28.5800 9.5100 0.0639
28.6000 9.5166 0.0729
28.6200 9.5233 0.0585
28.6400 9.5300 0.0654
28.6600 9.5368 0.0719
28.6800 9.5434 0.0611
28.7000 9.5501 0.0700
28.7200 9.5568 0.0660
28.7400 9.5635 0.0599
28.7600 9.5701 0.0682
28.7800 9.5767 0.0675
28.8000 9.5833 0.0618
28.8200 9.5900 0.0629
28.8400 9.5968 0.0650
28.8600 9.6034 0.0606
28.8800 9.6101 0.0634
28.9000 9.6168 0.0676
28.9200 9.6235 0.0577
28.9400 9.6300 0.0614
28.9600 9.6366 0.0679
28.9800 9.6433 0.0609
29.0000 9.6500 0.0581
29.0200 9.6567 0.0707
29.0400 9.6634 0.0635
29.0600 9.6700 0.0563
29.0800 9.6767 0.0666
29.1000 9.6834 0.0605
29.1200 9.6900 0.0606
29.1400 9.6966 0.0674
29.1600 9.7033 0.0625
29.1800 9.7100 0.0566
29.2000 9.7167 0.0650
29.2200 9.7233 0.0603
29.2400 9.7300 0.0572
29.2600 9.7367 0.0649
29.2800 9.7434 0.0531
29.3000 9.7501 0.0544
29.3200 9.7567 0.0684
29.3400 9.7634 0.0547
29.3600 9.7700 0.0484
29.3800 9.7767 0.0665
29.4000 9.7834 0.0625
29.4200 9.7901 0.0529
29.4400 9.7968 0.0587
29.4600 9.8034 0.0538
29.4800 9.8100 0.0527
29.5000 9.8166 0.0670
29.5200 9.8233 0.0593
29.5400 9.8300 0.0500
29.5600 9.8368 0.0597
29.5800 9.8434 0.0520
29.6000 9.8501 0.0506
29.6200 9.8568 0.0683
29.6400 9.8634 0.0542
29.6600 9.8700 0.0460
29.6800 9.8767 0.0597
29.7000 9.8833 0.0573
29.7200 9.8900 0.0520
29.7400 9.8967 0.0597
29.7600 9.9034 0.0502
29.7800 9.9101 0.0487
29.8000 9.9168 0.0635
29.8200 9.9234 0.0547
29.8400 9.9300 0.0452
29.8600 9.9366 0.0578
29.8800 9.9433 0.0602
29.9000 9.9500 0.0448
29.9200 9.9567 0.0554
29.9400 9.9634 0.0557
29.9600 9.9700 0.0435
29.9800 9.9767 0.0593
30.0000 9.9834 0.0550
30.0200 9.9900 0.0442
30.0400 9.9966 0.0626
30.0600 10.0033 0.0524
30.0800 10.0100 0.0396
30.1000 10.0167 0.0594
30.1200 10.0234 0.0573
30.1400 10.0301 0.0405
30.1600 10.0368 0.0552
30.1800 10.0435 0.0499
30.2000 10.0501 0.0450
30.2200 10.0567 0.0597
30.2400 10.0634 0.0474
30.2600 10.0700 0.0477
30.2800 10.0767 0.0588
30.3000 10.0834 0.0463
30.3200 10.0901 0.0445
30.3400 10.0968 0.0589
30.3600 10.1034 0.0397
30.3800 10.1100 0.0432
30.4000 10.1166 0.0569
30.4200 10.1233 0.0466
30.4400 10.1300 0.0452
30.4600 10.1367 0.0523
30.4800 10.1434 0.0446
30.5000 10.1501 0.0463
30.5200 10.1568 0.0488
30.5400 10.1634 0.0453
30.5600 10.1700 0.0473
30.5800 10.1766 0.0474
30.6000 10.1833 0.0472
30.6200 10.1900 0.0475
30.6400 10.1967 0.0468
30.6600 10.2034 0.0467
30.6800 10.2101 0.0425
30.7000 10.2167 0.0496
30.7200 10.2234 0.0448
30.7400 10.2301 0.0418
30.7600 10.2367 0.0518
30.7800 10.2433 0.0465
30.8000 10.2500 0.0392
30.8200 10.2567 0.0498
30.8400 10.2634 0.0494
30.8600 10.2701 0.0377
30.8800 10.2768 0.0530
30.9000 10.2835 0.0441
30.9200 10.2901 0.0351
30.9400 10.2967 0.0505
30.9600 10.3033 0.0483
30.9800 10.3100 0.0389
31.0000 10.3167 0.0452
31.0200 10.3234 0.0502
31.0400 10.3301 0.0339
31.0600 10.3368 0.0454
31.0800 10.3434 0.0456
31.1000 10.3500 0.0391
31.1200 10.3566 0.0413
31.1400 10.3633 0.0480
31.1600 10.3700 0.0412
31.1800 10.3767 0.0368
31.2000 10.3834 0.0421
31.2200 10.3901 0.0434
31.2400 10.3967 0.0410
31.2600 10.4034 0.0380
31.2800 10.4101 0.0400
31.3000 10.4167 0.0385
31.3200 10.4233 0.0410
31.3400 10.4300 0.0378
31.3600 10.4367 0.0330
31.3800 10.4434 0.0445
31.4000 10.4500 0.0405
31.4200 10.4568 0.0312
31.4400 10.4634 0.0427
31.4600 10.4701 0.0353
31.4800 10.4767 0.0373
31.5000 10.4833 0.0438
31.5200 10.4900 0.0356
31.5400 10.4967 0.0336
31.5600 10.5034 0.0432
31.5800 10.5101 0.0289
31.6000 10.5168 0.0379
31.6200 10.5234 0.0435
31.6400 10.5301 0.0280
31.6600 10.5367 0.0349
31.6800 10.5433 0.0392
31.7000 10.5500 0.0313
31.7200 10.5567 0.0334
31.7400 10.5634 0.0409
31.7600 10.5701 0.0364
31.7800 10.5768 0.0322
31.8000 10.5835 0.0384
31.8200 10.5901 0.0347
31.8400 10.5967 0.0314
31.8600 10.6033 0.0383
31.8800 10.6100 0.0318
31.9000 10.6167 0.0314
31.9200 10.6234 0.0338
31.9400 10.6301 0.0394
31.9600 10.6368 0.0266
31.9800 10.6434 0.0325
32.0000 10.6500 0.0366
32.0200 10.6566 0.0308
32.0400 10.6632 0.0365
32.0600 10.6700 0.0315
32.0800 10.6767 0.0281
32.1000 10.6834 0.0352
32.1200 10.6901 0.0340
32.1400 10.6967 0.0314
32.1600 10.7034 0.0337
32.1800 10.7101 0.0291
32.2000 10.7167 0.0295
32.2200 10.7233 0.0338
32.2400 10.7300 0.0341
32.2600 10.7367 0.0257
32.2800 10.7434 0.0305
32.3000 10.7501 0.0325
32.3200 10.7568 0.0290
32.3400 10.7635 0.0311
32.3600 10.7701 0.0288
32.3800 10.7767 0.0270
32.4000 10.7833 0.0310
32.4200 10.7900 0.0281
32.4400 10.7967 0.0244
32.4600 10.8034 0.0304
32.4800 10.8101 0.0301
32.5000 10.8168 0.0294
32.5200 10.8234 0.0267
32.5400 10.8301 0.0226
32.5600 10.8367 0.0288
32.5800 10.8433 0.0346
32.6000 10.8500 0.0281
32.6200 10.8567 0.0222
32.6400 10.8634 0.0297
32.6600 10.8701 0.0281
32.6800 10.8768 0.0230
32.7000 10.8834 0.0336
32.7200 10.8901 0.0215
32.7400 10.8967 0.0238
32.7600 10.9033 0.0280
32.7800 10.9100 0.0295
32.8000 10.9167 0.0246
32.8200 10.9234 0.0253
32.8400 10.9300 0.0255
32.8600 10.9367 0.0251
32.8800 10.9434 0.0274
32.9000 10.9501 0.0288
32.9200 10.9567 0.0283
32.9400 10.9633 0.0200
32.9600 10.9700 0.0278
32.9800 10.9767 0.0305
33.0000 10.9834 0.0212
33.0200 10.9901 0.0222
33.0400 10.9968 0.0289
33.0600 11.0035 0.0211
33.0800 11.0101 0.0212
33.1000 11.0167 0.0281
33.1200 11.0233 0.0281
33.1400 11.0300 0.0186
33.1600 11.0367 0.0252
33.1800 11.0434 0.0167
33.2000 11.0501 0.0233
33.2200 11.0568 0.0305
33.2400 11.0635 0.0127
33.2600 11.0701 0.0222
33.2800 11.0767 0.0282
33.3000 11.0833 0.0160
33.3200 11.0900 0.0254
33.3400 11.0967 0.0246
33.3600 11.1034 0.0114
33.3800 11.1101 0.0297
33.4000 11.1167 0.0224
33.4200 11.1234 0.0092
33.4400 11.1301 0.0298
33.4600 11.1367 0.0251
33.4800 11.1433 0.0043
33.5000 11.1500 0.0280
33.5200 11.1567 0.0257
33.5400 11.1634 0.0090
33.5600 11.1701 0.0264
33.5800 11.1768 0.0205
33.6000 11.1834 0.0089
33.6200 11.1901 0.0208
33.6400 11.1967 0.0223
33.6600 11.2033 0.0118
33.6800 11.2100 0.0258
33.7000 11.2167 0.0158
33.7200 11.2235 0.0093
33.7400 11.2301 0.0263
33.7600 11.2368 0.0179
33.7800 11.2435 0.0059
33.8000 11.2501 0.0232
33.8200 11.2567 0.0173
33.8400 11.2633 0.0111
33.8600 11.2700 0.0171
33.8800 11.2767 0.0172
33.9000 11.2834 0.0108
33.9200 11.2901 0.0212
33.9400 11.2968 0.0092
33.9600 11.3035 0.0069
33.9800 11.3101 0.0184
34.0000 11.3167 0.0139
34.0200 11.3233 0.0112
34.0400 11.3299 0.0125
34.0600 11.3367 0.0163
34.0800 11.3434 0.0095
34.1000 11.3501 0.0117
34.1200 11.3568 0.0167
34.1400 11.3635 0.0046
34.1600 11.3701 0.0070
34.1800 11.3767 0.0162
34.2000 11.3833 0.0060
34.2200 11.3899 0.0138
34.2400 11.3967 0.0176
34.2600 11.4034 0.0013
34.2800 11.4101 0.0065
34.3000 11.4167 0.0158
34.3200 11.4234 0.0054
34.3400 11.4300 0.0140
34.3600 11.4367 0.0138
34.3800 11.4433 -0.0012
34.4000 11.4500 0.0137
34.4200 11.4567 0.0155
34.4400 11.4634 -0.0001
34.4600 11.4701 0.0143
34.4800 11.4768 0.0140
34.5000 11.4835 -0.0064
34.5200 11.4902 0.0157
34.5400 11.4968 0.0137
34.5600 11.5033 0.0007
34.5800 11.5100 0.0111
34.6000 11.5167 0.0102
34.6200 11.5234 0.0021
34.6400 11.5301 0.0162
34.6600 11.5368 0.0043
34.6800 11.5434 0.0015
34.7000 11.5501 0.0163
34.7200 11.5567 0.0083
34.7400 11.5633 0.0032
34.7600 11.5700 0.0148
34.7800 11.5767 0.0075
34.8000 11.5834 0.0019
34.8200 11.5900 0.0091
34.8400 11.5967 0.0104
34.8600 11.6034 0.0042
34.8800 11.6100 0.0052
34.9000 11.6167 0.0071
34.9200 11.6233 0.0058
34.9400 11.6299 0.0130
34.9600 11.6366 0.0057
34.9800 11.6434 0.0039
35.0000 11.6501 0.0061
35.0200 11.6567 0.0080
35.0400 11.6635 0.0036
35.0600 11.6701 0.0072
35.0800 11.6767 0.0095
35.1000 11.6833 -0.0013
35.1200 11.6900 0.0049
35.1400 11.6967 0.0111
35.1600 11.7034 -0.0019
35.1800 11.7101 0.0074
35.2000 11.7168 0.0107
35.2200 11.7235 -0.0059
35.2400 11.7301 0.0068
35.2600 11.7367 0.0121
35.2800 11.7433 -0.0024
35.3000 11.7500 0.0060
35.3200 11.7567 0.0132
35.3400 11.7634 -0.0053
35.3600 11.7701 0.0043
35.3800 11.7768 0.0081
35.4000 11.7834 -0.0016
35.4200 11.7901 0.0049
35.4400 11.7968 0.0060
35.4600 11.8034 -0.0059
35.4800 11.8100 0.0115
35.5000 11.8167 0.0046
35.5200 11.8234 -0.0081
35.5400 11.8301 0.0090
35.5600 11.8367 0.0040
35.5800 11.8434 -0.0035
35.6000 11.8501 0.0044
35.6200 11.8567 0.0034
35.6400 11.8633 -0.0034
35.6600 11.8699 0.0088
35.6800 11.8766 0.0013
35.7000 11.8834 -0.0056
35.7200 11.8901 0.0074
35.7400 11.8967 0.0041
35.7600 11.9034 -0.0076
35.7800 11.9101 0.0071
35.8000 11.9167 -0.0003
35.8200 11.9233 -0.0044
35.8400 11.9300 0.0064
35.8600 11.9367 -0.0017
35.8800 11.9434 -0.0065
35.9000 11.9501 0.0075
35.9200 11.9567 -0.0010
35.9400 11.9634 -0.0074
35.9600 11.9701 0.0059
35.9800 11.9768 -0.0002
36.0000 11.9834 -0.0069
36.0200 11.9900 0.0025
36.0400 11.9967 -0.0005
36.0600 12.0034 -0.0067
36.0800 12.0101 0.0028
36.1000 12.0168 -0.0068
36.1200 12.0235 -0.0071
36.1400 12.0301 -0.0003
36.1600 12.0367 -0.0020
36.1800 12.0433 -0.0083
36.2000 12.0500 0.0014
36.2200 12.0567 -0.0042
36.2400 12.0634 -0.0074
36.2600 12.0701 0.0008
36.2800 12.0767 -0.0030
36.3000 12.0834 -0.0083
36.3200 12.0901 -0.0072
36.3400 12.0967 -0.0021
36.3600 12.1033 -0.0037
36.3800 12.1100 -0.0031
36.4000 12.1166 -0.0060
36.4200 12.1233 -0.0033
36.4400 12.1300 -0.0060
36.4600 12.1367 -0.0020
36.4800 12.1434 -0.0069
36.5000 12.1501 -0.0108
36.5200 12.1567 -0.0026
36.5400 12.1633 -0.0088
36.5600 12.1700 -0.0090
36.5800 12.1767 -0.0020
36.6000 12.1834 -0.0071
36.6200 12.1901 -0.0103
36.6400 12.1968 -0.0082
36.6600 12.2035 -0.0028
36.6800 12.2101 -0.0098
36.7000 12.2168 -0.0127
36.7200 12.2233 -0.0049
36.7400 12.2300 -0.0088
36.7600 12.2367 -0.0084
36.7800 12.2434 -0.0082
36.8000 12.2501 -0.0080
36.8200 12.2568 -0.0102
36.8400 12.2634 -0.0084
36.8600 12.2701 -0.0184
36.8800 12.2767 -0.0080
36.9000 12.2833 -0.0042
36.9200 12.2900 -0.0155
36.9400 12.2967 -0.0097
36.9600 12.3034 -0.0064
36.9800 12.3101 -0.0196
37.0000 12.3167 -0.0102
37.0200 12.3234 -0.0029
37.0400 12.3301 -0.0206
37.0600 12.3367 -0.0154
37.0800 12.3433 -0.0076
37.1000 12.3499 -0.0164
37.1200 12.3566 -0.0127
37.1400 12.3633 -0.0105
37.1600 12.3700 -0.0193
37.1800 12.3768 -0.0104
37.2000 12.3835 -0.0125
37.2200 12.3901 -0.0182
37.2400 12.3967 -0.0186
37.2600 12.4033 -0.0121
37.2800 12.4100 -0.0150
37.3000 12.4167 -0.0125
37.3200 12.4234 -0.0158
37.3400 12.4301 -0.0194
37.3600 12.4368 -0.0090
37.3800 12.4434 -0.0137
37.4000 12.4501 -0.0212
37.4200 12.4568 -0.0118
37.4400 12.4634 -0.0180
37.4600 12.4700 -0.0218
37.4800 12.4767 -0.0135
37.5000 12.4834 -0.0202
37.5200 12.4901 -0.0195
37.5400 12.4967 -0.0137
37.5600 12.5034 -0.0176
37.5800 12.5101 -0.0217
37.6000 12.5168 -0.0124
37.6200 12.5234 -0.0201
37.6400 12.5300 -0.0223
37.6600 12.5367 -0.0183
37.6800 12.5433 -0.0167
37.7000 12.5501 -0.0197
37.7200 12.5567 -0.0153
37.7400 12.5634 -0.0191
37.7600 12.5701 -0.0262
37.7800 12.5767 -0.0164
37.8000 12.5833 -0.0151
37.8200 12.5899 -0.0274
37.8400 12.5966 -0.0197
37.8600 12.6033 -0.0118
37.8800 12.6100 -0.0303
37.9000 12.6167 -0.0224
37.9200 12.6234 -0.0132
37.9400 12.6301 -0.0263
37.9600 12.6367 -0.0206
37.9800 12.6433 -0.0151
38.0000 12.6500 -0.0298
38.0200 12.6566 -0.0155
38.0400 12.6634 -0.0181
38.0600 12.6701 -0.0338
38.0800 12.6768 -0.0126
38.1000 12.6835 -0.0162
38.1200 12.6901 -0.0401
38.1400 12.6968 -0.0190
38.1600 12.7034 -0.0153
38.1800 12.7100 -0.0329
38.2000 12.7166 -0.0271
38.2200 12.7234 -0.0226
38.2400 12.7301 -0.0283
38.2600 12.7368 -0.0278
38.2800 12.7435 -0.0234
38.3000 12.7501 -0.0316
38.3200 12.7568 -0.0217
38.3400 12.7633 -0.0272
38.3600 12.7700 -0.0302
38.3800 12.7766 -0.0240
38.4000 12.7834 -0.0253
38.4200 12.7901 -0.0279
38.4400 12.7967 -0.0248
38.4600 12.8034 -0.0286
38.4800 12.8101 -0.0278
38.5000 12.8168 -0.0237
38.5200 12.8234 -0.0272
38.5400 12.8300 -0.0297
38.5600 12.8366 -0.0309
38.5800 12.8433 -0.0301
38.6000 12.8500 -0.0235
38.6200 12.8567 -0.0282
38.6400 12.8634 -0.0326
38.6600 12.8701 -0.0229
38.6800 12.8767 -0.0306
38.7000 12.8833 -0.0265
38.7200 12.8899 -0.0275
38.7400 12.8966 -0.0347
38.7600 12.9034 -0.0289
38.7800 12.9101 -0.0248
38.8000 12.9168 -0.0335
38.8200 12.9235 -0.0263
38.8400 12.9301 -0.0292
38.8600 12.9368 -0.0354
38.8800 12.9434 -0.0250
38.9000 12.9500 -0.0300
38.9200 12.9567 -0.0359
38.9400 12.9634 -0.0276
38.9600 12.9701 -0.0339
38.9800 12.9768 -0.0364
39.0000 12.9835 -0.0243
39.0200 12.9901 -0.0370
39.0400 12.9968 -0.0383
39.0600 13.0034 -0.0290
39.0800 13.0100 -0.0241
39.1000 13.0166 -0.0383
39.1200 13.0233 -0.0340
39.1400 13.0300 -0.0284
39.1600 13.0367 -0.0396
39.1800 13.0434 -0.0291
39.2000 13.0501 -0.0284
39.2200 13.0568 -0.0459
39.2400 13.0634 -0.0372
39.2600 13.0700 -0.0253
39.2800 13.0766 -0.0411
39.3000 13.0833 -0.0311
39.3200 13.0900 -0.0296
39.3400 13.0967 -0.0509
39.3600 13.1034 -0.0287
39.3800 13.1101 -0.0307
39.4000 13.1168 -0.0480
39.4200 13.1234 -0.0314
39.4400 13.1300 -0.0348
39.4600 13.1367 -0.0451
39.4800 13.1434 -0.0303
39.5000 13.1501 -0.0351
39.5200 13.1567 -0.0466
39.5400 13.1634 -0.0295
39.5600 13.1701 -0.0381
39.5800 13.1768 -0.0474
39.6000 13.1834 -0.0332
39.6200 13.1900 -0.0369
39.6400 13.1966 -0.0475
39.6600 13.2033 -0.0331
39.6800 13.2100 -0.0352
39.7000 13.2167 -0.0475
39.7200 13.2234 -0.0343
39.7400 13.2301 -0.0350
39.7600 13.2368 -0.0497
39.7800 13.2434 -0.0400
39.8000 13.2500 -0.0325
39.8200 13.2566 -0.0464
39.8400 13.2633 -0.0399
39.8600 13.2701 -0.0378
39.8800 13.2768 -0.0478
39.9000 13.2835 -0.0385
39.9200 13.2901 -0.0387
39.9400 13.2968 -0.0525
39.9600 13.3034 -0.0380
39.9800 13.3099 -0.0365
40.0000 13.3166 -0.0504
40.0200 13.3233 -0.0423
40.0400 13.3300 -0.0390
40.0600 13.3367 -0.0487
40.0800 13.3434 -0.0443
40.1000 13.3500 -0.0401
40.1200 13.3567 -0.0499
40.1400 13.3634 -0.0415
40.1600 13.3700 -0.0417
40.1800 13.3766 -0.0478
40.2000 13.3833 -0.0452
40.2200 13.3901 -0.0364
40.2400 13.3968 -0.0535
40.2600 13.4035 -0.0473
40.2800 13.4102 -0.0433
40.3000 13.4168 -0.0494
40.3200 13.4234 -0.0508
40.3400 13.4300 -0.0467
40.3600 13.4366 -0.0503
40.3800 13.4434 -0.0451
40.4000 13.4501 -0.0442
40.4200 13.4568 -0.0512
40.4400 13.4634 -0.0448
40.4600 13.4701 -0.0457
40.4800 13.4768 -0.0526
40.5000 13.4834 -0.0461
40.5200 13.4900 -0.0435
40.5400 13.4966 -0.0512
40.5600 13.5033 -0.0501
40.5800 13.5100 -0.0484
40.6000 13.5167 -0.0488
40.6200 13.5234 -0.0508
40.6400 13.5301 -0.0495
40.6600 13.5368 -0.0544
40.6800 13.5434 -0.0507
40.7000 13.5500 -0.0516
40.7200 13.5566 -0.0478
40.7400 13.5633 -0.0525
40.7600 13.5700 -0.0501
40.7800 13.5767 -0.0519
40.8000 13.5833 -0.0509
40.8200 13.5901 -0.0507
40.8400 13.5967 -0.0547
40.8600 13.6034 -0.0549
40.8800 13.6100 -0.0528
40.9000 13.6166 -0.0527
40.9200 13.6233 -0.0553
40.9400 13.6301 -0.0527
40.9600 13.6368 -0.0535
40.9800 13.6435 -0.0518
41.0000 13.6501 -0.0519
41.0200 13.6568 -0.0546
41.0400 13.6634 -0.0565
41.0600 13.6700 -0.0512
41.0800 13.6767 -0.0542
41.1000 13.6834 -0.0495
41.1200 13.6900 -0.0583
41.1400 13.6967 -0.0545
41.1600 13.7034 -0.0485
41.1800 13.7101 -0.0550
41.2000 13.7168 -0.0651
41.2200 13.7234 -0.0529
41.2400 13.7300 -0.0524
41.2600 13.7366 -0.0613
41.2800 13.7433 -0.0551
41.3000 13.7500 -0.0560
41.3200 13.7567 -0.0584
41.3400 13.7634 -0.0549
41.3600 13.7701 -0.0616
41.3800 13.7768 -0.0641
41.4000 13.7834 -0.0547
41.4200 13.7900 -0.0577
41.4400 13.7966 -0.0621
41.4600 13.8033 -0.0556
41.4800 13.8100 -0.0617
41.5000 13.8167 -0.0641
41.5200 13.8234 -0.0557
41.5400 13.8301 -0.0582
41.5600 13.8367 -0.0612
41.5800 13.8434 -0.0631
41.6000 13.8500 -0.0607
41.6200 13.8566 -0.0560
41.6400 13.8633 -0.0626
41.6600 13.8700 -0.0611
41.6800 13.8767 -0.0541
41.7000 13.8834 -0.0642
41.7200 13.8901 -0.0643
41.7400 13.8968 -0.0558
41.7600 13.9035 -0.0660
41.7800 13.9100 -0.0597
41.8000 13.9166 -0.0554
41.8200 13.9233 -0.0687
41.8400 13.9301 -0.0632
41.8600 13.9368 -0.0578
41.8800 13.9435 -0.0711
41.9000 13.9501 -0.0615
41.9200 13.9568 -0.0580
41.9400 13.9634 -0.0683
41.9600 13.9700 -0.0640
41.9800 13.9766 -0.0563
42.0000 13.9833 -0.0703
42.0200 13.9901 -0.0623
42.0400 13.9967 -0.0578
42.0600 14.0034 -0.0716
42.0800 14.0101 -0.0637
42.1000 14.0168 -0.0639
42.1200 14.0234 -0.0696
42.1400 14.0300 -0.0617
42.1600 14.0366 -0.0609
42.1800 14.0433 -0.0682
42.2000 14.0500 -0.0656
42.2200 14.0567 -0.0622
42.2400 14.0634 -0.0637
42.2600 14.0701 -0.0635
42.2800 14.0768 -0.0665
42.3000 14.0834 -0.0724
42.3200 14.0900 -0.0635
42.3400 14.0966 -0.0602
42.3600 14.1033 -0.0661
42.3800 14.1100 -0.0695
42.4000 14.1167 -0.0612
42.4200 14.1234 -0.0701
42.4400 14.1301 -0.0667
42.4600 14.1368 -0.0585
42.4800 14.1435 -0.0743
42.5000 14.1501 -0.0709
42.5200 14.1567 -0.0630
42.5400 14.1634 -0.0668
42.5600 14.1701 -0.0706
42.5800 14.1768 -0.0675
42.6000 14.1834 -0.0703
42.6200 14.1901 -0.0689
42.6400 14.1968 -0.0736
42.6600 14.2034 -0.0657
42.6800 14.2100 -0.0664
42.7000 14.2166 -0.0753
42.7200 14.2233 -0.0715
42.7400 14.2300 -0.0648
42.7600 14.2367 -0.0750
42.7800 14.2434 -0.0681
42.8000 14.2501 -0.0686
42.8200 14.2568 -0.0776
42.8400 14.2634 -0.0677
42.8600 14.2700 -0.0742
42.8800 14.2766 -0.0708
42.9000 14.2833 -0.0652
42.9200 14.2900 -0.0728
42.9400 14.2967 -0.0752
42.9600 14.3034 -0.0674
42.9800 14.3101 -0.0760
43.0000 14.3168 -0.0735
43.0200 14.3234 -0.0683
43.0400 14.3300 -0.0787
43.0600 14.3367 -0.0770
43.0800 14.3433 -0.0656
43.1000 14.3500 -0.0771
43.1200 14.3568 -0.0739
43.1400 14.3634 -0.0668
43.1600 14.3701 -0.0803
43.1800 14.3768 -0.0755
43.2000 14.3834 -0.0700
43.2200 14.3900 -0.0795
43.2400 14.3967 -0.0722
43.2600 14.4033 -0.0725
43.2800 14.4101 -0.0808
43.3000 14.4168 -0.0717
43.3200 14.4235 -0.0721
43.3400 14.4301 -0.0809
43.3600 14.4368 -0.0749
43.3800 14.4435 -0.0744
43.4000 14.4501 -0.0835
43.4200 14.4567 -0.0703
43.4400 14.4633 -0.0726
43.4600 14.4700 -0.0808
43.4800 14.4767 -0.0721
43.5000 14.4834 -0.0801
43.5200 14.4900 -0.0819
43.5400 14.4967 -0.0671
43.5600 14.5034 -0.0794
43.5800 14.5100 -0.0896
43.6000 14.5166 -0.0706
43.6200 14.5233 -0.0804
43.6400 14.5300 -0.0833
43.6600 14.5367 -0.0687
43.6800 14.5434 -0.0812
43.7000 14.5500 -0.0848
43.7200 14.5567 -0.0713
43.7400 14.5634 -0.0800
43.7600 14.5700 -0.0789
43.7800 14.5767 -0.0771
43.8000 14.5833 -0.0788
43.8200 14.5900 -0.0823
43.8400 14.5967 -0.0773
43.8600 14.6034 -0.0815
43.8800 14.6101 -0.0806
43.9000 14.6168 -0.0756
43.9200 14.6235 -0.0823
43.9400 14.6300 -0.0794
43.9600 14.6366 -0.0821
43.9800 14.6433 -0.0785
44.0000 14.6500 -0.0799
44.0200 14.6567 -0.0801
44.0400 14.6634 -0.0813
44.0600 14.6701 -0.0786
44.0800 14.6768 -0.0801
44.1000 14.6835 -0.0822
44.1200 14.6901 -0.0850
44.1400 14.6967 -0.0788
44.1600 14.7033 -0.0781
44.1800 14.7100 -0.0837
44.2000 14.7167 -0.0815
44.2200 14.7234 -0.0768
44.2400 14.7301 -0.0856
44.2600 14.7368 -0.0830
44.2800 14.7434 -0.0776
44.3000 14.7501 -0.0911
44.3200 14.7566 -0.0780
44.3400 14.7632 -0.0768
44.3600 14.7699 -0.0916
44.3800 14.7767 -0.0778
44.4000 14.7834 -0.0805
44.4200 14.7900 -0.0933
44.4400 14.7967 -0.0802
44.4600 14.8034 -0.0828
44.4800 14.8100 -0.0919
44.5000 14.8166 -0.0794
44.5200 14.8233 -0.0826
44.5400 14.8300 -0.0953
44.5600 14.8367 -0.0811
44.5800 14.8434 -0.0831
44.6000 14.8501 -0.0936
44.6200 14.8568 -0.0815
44.6400 14.8635 -0.0815
44.6600 14.8701 -0.0899
44.6800 14.8767 -0.0837
44.7000 14.8834 -0.0838
44.7200 14.8901 -0.0901
44.7400 14.8967 -0.0838
44.7600 14.9034 -0.0853
44.7800 14.9101 -0.0861
44.8000 14.9168 -0.0876
44.8200 14.9234 -0.0831
44.8400 14.9301 -0.0872
44.8600 14.9367 -0.0858
44.8800 14.9433 -0.0850
44.9000 14.9500 -0.0850
44.9200 14.9567 -0.0902
44.9400 14.9634 -0.0837
44.9600 14.9701 -0.0897
44.9800 14.9768 -0.0878
45.0000 14.9834 -0.0805
45.0200 14.9900 -0.0967
45.0400 14.9966 -0.0910
45.0600 15.0033 -0.0782
45.0800 15.0100 -0.0941
45.1000 15.0167 -0.0947
45.1200 15.0234 -0.0803
45.1400 15.0301 -0.0940
45.1600 15.0367 -0.0921
45.1800 15.0434 -0.0804
45.2000 15.0501 -0.0965
45.2200 15.0567 -0.0948
45.2400 15.0634 -0.0782
45.2600 15.0700 -0.0976
45.2800 15.0767 -0.0895
45.3000 15.0834 -0.0849
45.3200 15.0901 -0.0937
45.3400 15.0968 -0.0955
45.3600 15.1035 -0.0867
45.3800 15.1101 -0.0929
45.4000 15.1167 -0.0950
45.4200 15.1233 -0.0833
45.4400 15.1300 -0.0958
45.4600 15.1367 -0.0949
45.4800 15.1434 -0.0875
45.5000 15.1501 -0.0965
45.5200 15.1568 -0.0951
45.5400 15.1635 -0.0856
45.5600 15.1701 -0.0964
45.5800 15.1767 -0.0966
45.6000 15.1833 -0.0893
45.6200 15.1900 -0.0967
45.6400 15.1967 -0.0900
45.6600 15.2034 -0.0910
45.6800 15.2101 -0.1026
45.7000 15.2167 -0.0899
45.7200 15.2234 -0.0876
45.7400 15.2301 -0.1063
45.7600 15.2367 -0.0964
45.7800 15.2433 -0.0854
45.8000 15.2500 -0.1052
45.8200 15.2567 -0.0978
45.8400 15.2634 -0.0897
45.8600 15.2700 -0.1031
45.8800 15.2767 -0.0933
45.9000 15.2834 -0.0987
45.9200 15.2901 -0.1115
45.9400 15.2967 -0.0884
45.9600 15.3033 -0.0924
45.9800 15.3100 -0.1117
46.0000 15.3167 -0.0930
46.0200 15.3234 -0.0965
46.0400 15.3301 -0.1061
46.0600 15.3368 -0.1026
46.0800 15.3434 -0.0900
46.1000 15.3501 -0.1046
46.1200 15.3567 -0.1052
46.1400 15.3633 -0.0960
46.1600 15.3700 -0.1074
46.1800 15.3767 -0.1001
46.2000 15.3834 -0.0984
46.2200 15.3901 -0.1127
46.2400 15.3968 -0.0995
46.2600 15.4035 -0.0946
46.2800 15.4101 -0.1135
46.3000 15.4167 -0.1025
46.3200 15.4233 -0.1013
46.3400 15.4300 -0.1081
46.3600 15.4367 -0.1018
46.3800 15.4434 -0.1072
46.4000 15.4501 -0.1072
46.4200 15.4568 -0.1048
46.4400 15.4634 -0.1108
46.4600 15.4700 -0.1055
46.4800 15.4766 -0.1031
46.5000 15.4832 -0.1090
46.5200 15.4899 -0.1048
46.5400 15.4967 -0.1079
46.5600 15.5034 -0.1134
46.5800 15.5101 -0.0999
46.6000 15.5167 -0.1089
46.6200 15.5234 -0.1138
46.6400 15.5301 -0.0977
46.6600 15.5367 -0.1172
46.6800 15.5433 -0.1084
46.7000 15.5500 -0.0967
46.7200 15.5567 -0.1212
46.7400 15.5634 -0.1062
46.7600 15.5701 -0.0970
46.7800 15.5768 -0.1250
46.8000 15.5835 -0.1053
46.8200 15.5901 -0.1057
46.8400 15.5967 -0.1225
46.8600 15.6034 -0.1047
46.8800 15.6100 -0.1088
46.9000 15.6167 -0.1261
46.9200 15.6234 -0.1055
46.9400 15.6301 -0.1091
46.9600 15.6368 -0.1219
46.9800 15.6435 -0.1036
47.0000 15.6501 -0.1148
47.0200 15.6567 -0.1168
47.0400 15.6633 -0.1054
47.0600 15.6700 -0.1140
47.0800 15.6767 -0.1197
47.1000 15.6834 -0.1075
47.1200 15.6901 -0.1161
47.1400 15.6967 -0.1174
47.1600 15.7034 -0.1127
47.1800 15.7101 -0.1171
47.2000 15.7167 -0.1172
47.2200 15.7233 -0.1134
47.2400 15.7300 -0.1178
47.2600 15.7367 -0.1129
47.2800 15.7434 -0.1163
47.3000 15.7500 -0.1179
47.3200 15.7567 -0.1175
47.3400 15.7634 -0.1204
47.3600 15.7701 -0.1152
47.3800 15.7767 -0.1182
47.4000 15.7833 -0.1180
47.4200 15.7900 -0.1149
47.4400 15.7967 -0.1161
47.4600 15.8034 -0.1206
47.4800 15.8101 -0.1141
47.5000 15.8168 -0.1234
47.5200 15.8235 -0.1241
47.5400 15.8301 -0.1158
47.5600 15.8367 -0.1248
47.5800 15.8433 -0.1199
47.6000 15.8500 -0.1135
47.6200 15.8567 -0.1256
47.6400 15.8634 -0.1238
47.6600 15.8701 -0.1151
47.6800 15.8768 -0.1212
47.7000 15.8835 -0.1225
47.7200 15.8901 -0.1179
47.7400 15.8967 -0.1243
47.7600 15.9033 -0.1216
47.7800 15.9100 -0.1180
47.8000 15.9167 -0.1232
47.8200 15.9234 -0.1185
47.8400 15.9301 -0.1250
47.8600 15.9367 -0.1185
47.8800 15.9434 -0.1200
47.9000 15.9501 -0.1250
47.9200 15.9567 -0.1195
47.9400 15.9633 -0.1180
47.9600 15.9699 -0.1250
47.9800 15.9766 -0.1176
48.0000 15.9834 -0.1182
48.0200 15.9901 -0.1273
48.0400 15.9968 -0.1192
48.0600 16.0034 -0.1218
48.0800 16.0101 -0.1263
48.1000 16.0167 -0.1167
48.1200 16.0233 -0.1184
48.1400 16.0300 -0.1273
48.1600 16.0367 -0.1208
48.1800 16.0435 -0.1259
48.2000 16.0501 -0.1249
48.2200 16.0568 -0.1192
48.2400 16.0635 -0.1266
48.2600 16.0701 -0.1234
48.2800 16.0767 -0.1175
48.3000 16.0833 -0.1306
48.3200 16.0900 -0.1255
48.3400 16.0967 -0.1191
48.3600 16.1034 -0.1264
48.3800 16.1101 -0.1242
48.4000 16.1168 -0.1234
48.4200 16.1235 -0.1293
48.4400 16.1301 -0.1212
48.4600 16.1367 -0.1209
48.4800 16.1433 -0.1314
48.5000 16.1499 -0.1177
48.5200 16.1566 -0.1199
48.5400 16.1634 -0.1367
48.5600 16.1701 -0.1179
48.5800 16.1768 -0.1196
48.6000 16.1835 -0.1346
48.6200 16.1901 -0.1183
48.6400 16.1967 -0.1261
48.6600 16.2033 -0.1301
48.6800 16.2099 -0.1156
48.7000 16.2166 -0.1266
48.7200 16.2234 -0.1338
48.7400 16.2301 -0.1178
48.7600 16.2367 -0.1237
48.7800 16.2434 -0.1300
48.8000 16.2501 -0.1219
48.8200 16.2567 -0.1239
48.8400 16.2633 -0.1309
48.8600 16.2700 -0.1239
48.8800 16.2767 -0.1223
48.9000 16.2834 -0.1338
48.9200 16.2901 -0.1233
48.9400 16.2968 -0.1237
48.9600 16.3035 -0.1294
48.9800 16.3101 -0.1254
49.0000 16.3167 -0.1227
49.0200 16.3233 -0.1380
49.0400 16.3300 -0.1268
49.0600 16.3367 -0.1203
49.0800 16.3434 -0.1327
49.1000 16.3501 -0.1298
49.1200 16.3568 -0.1276
49.1400 16.3635 -0.1334
49.1600 16.3701 -0.1283
49.1800 16.3767 -0.1264
49.2000 16.3833 -0.1344
49.2200 16.3900 -0.1292
49.2400 16.3967 -0.1257
49.2600 16.4034 -0.1356
49.2800 16.4100 -0.1314
49.3000 16.4167 -0.1239
49.3200 16.4234 -0.1364
49.3400 16.4301 -0.1333
49.3600 16.4367 -0.1310
49.3800 16.4433 -0.1312
49.4000 16.4499 -0.1287
49.4200 16.4566 -0.1330
49.4400 16.4633 -0.1350
49.4600 16.4701 -0.1299
49.4800 16.4767 -0.1301
49.5000 16.4834 -0.1353
49.5200 16.4901 -0.1364
49.5400 16.4967 -0.1326
49.5600 16.5033 -0.1330
49.5800 16.5100 -0.1379
49.6000 16.5167 -0.1280
49.6200 16.5234 -0.1297
49.6400 16.5301 -0.1434
49.6600 16.5368 -0.1360
49.6800 16.5434 -0.1278
49.7000 16.5501 -0.1456
49.7200 16.5567 -0.1317
49.7400 16.5633 -0.1278
49.7600 16.5700 -0.1457
49.7800 16.5767 -0.1328
49.8000 16.5834 -0.1298
49.8200 16.5901 -0.1471
49.8400 16.5968 -0.1306
49.8600 16.6034 -0.1315
49.8800 16.6101 -0.1535
49.9000 16.6168 -0.1331
49.9200 16.6234 -0.1361
49.9400 16.6300 -0.1435
49.9600 16.6367 -0.1269
49.9800 16.6434 -0.1455
50.0000 16.6501 -0.1498
50.0200 16.6567 -0.1200
50.0400 16.6634 -0.1462
50.0600 16.6701 -0.1504
50.0800 16.6767 -0.1340
50.1000 16.6833 -0.1499
50.1200 16.6899 -0.1391
50.1400 16.6966 -0.1304
50.1600 16.7034 -0.1557
50.1800 16.7101 -0.1373
50.2000 16.7167 -0.1316
50.2200 16.7234 -0.1565
50.2400 16.7301 -0.1418
50.2600 16.7367 -0.1313
50.2800 16.7433 -0.1494
50.3000 16.7500 -0.1427
50.3200 16.7567 -0.1423
50.3400 16.7634 -0.1480
50.3600 16.7701 -0.1360
50.3800 16.7767 -0.1437
50.4000 16.7834 -0.1490
50.4200 16.7901 -0.1387
50.4400 16.7968 -0.1434
50.4600 16.8034 -0.1471
50.4800 16.8100 -0.1432
50.5000 16.8167 -0.1414
50.5200 16.8234 -0.1454
50.5400 16.8301 -0.1508
50.5600 16.8368 -0.1429
50.5800 16.8435 -0.1455
50.6000 16.8501 -0.1498
50.6200 16.8568 -0.1522
50.6400 16.8634 -0.1409
50.6600 16.8700 -0.1496
50.6800 16.8767 -0.1449
50.7000 16.8834 -0.1414
50.7200 16.8901 -0.1560
50.7400 16.8968 -0.1475
50.7600 16.9034 -0.1398
50.7800 16.9101 -0.1564
50.8000 16.9167 -0.1515
50.8200 16.9233 -0.1432
50.8400 16.9300 -0.1552
50.8600 16.9367 -0.1435
50.8800 16.9434 -0.1508
50.9000 16.9500 -0.1597
50.9200 16.9567 -0.1401
50.9400 16.9634 -0.1463
50.9600 16.9700 -0.1608
50.9800 16.9767 -0.1508
51.0000 16.9833 -0.1530
51.0200 16.9899 -0.1532
51.0400 16.9966 -0.1470
51.0600 17.0033 -0.1544
51.0800 17.0101 -0.1598
51.1000 17.0168 -0.1487
51.1200 17.0235 -0.1499
51.1400 17.0301 -0.1571
51.1600 17.0368 -0.1518
51.1800 17.0433 -0.1520
51.2000 17.0500 -0.1556
51.2200 17.0567 -0.1513
51.2400 17.0634 -0.1441
51.2600 17.0701 -0.1601
51.2800 17.0768 -0.1607
51.3000 17.0834 -0.1494
51.3200 17.0901 -0.1499
51.3400 17.0967 -0.1566
51.3600 17.1034 -0.1491
51.3800 17.1100 -0.1631
51.4000 17.1166 -0.1525
51.4200 17.1233 -0.1396
51.4400 17.1301 -0.1659
51.4600 17.1367 -0.1580
51.4800 17.1434 -0.1472
51.5000 17.1501 -0.1670
51.5200 17.1568 -0.1547
51.5400 17.1634 -0.1476
51.5600 17.1699 -0.1694
51.5800 17.1766 -0.1491
51.6000 17.1833 -0.1457
51.6200 17.1901 -0.1672
51.6400 17.1968 -0.1560
51.6600 17.2034 -0.1497
51.6800 17.2101 -0.1654
51.7000 17.2168 -0.1516
51.7200 17.2234 -0.1540
51.7400 17.2300 -0.1683
51.7600 17.2366 -0.1519
51.7800 17.2433 -0.1534
51.8000 17.2500 -0.1612
51.8200 17.2567 -0.1544
51.8400 17.2634 -0.1567
51.8600 17.2701 -0.1638
51.8800 17.2768 -0.1560
51.9000 17.2834 -0.1514
51.9200 17.2900 -0.1636
51.9400 17.2967 -0.1585
51.9600 17.3034 -0.1561
51.9800 17.3101 -0.1625
52.0000 17.3168 -0.1582
52.0200 17.3235 -0.1593
52.0400 17.3301 -0.1633
52.0600 17.3368 -0.1548
52.0800 17.3433 -0.1578
52.1000 17.3499 -0.1670
52.1200 17.3566 -0.1554
52.1400 17.3633 -0.1538
52.1600 17.3700 -0.1611
52.1800 17.3768 -0.1665
52.2000 17.3835 -0.1605
52.2200 17.3901 -0.1576
52.2400 17.3968 -0.1562
52.2600 17.4033 -0.1650
52.2800 17.4099 -0.1692
52.3000 17.4166 -0.1636
52.3200 17.4233 -0.1563
52.3400 17.4300 -0.1607
52.3600 17.4367 -0.1635
52.3800 17.4434 -0.1606
52.4000 17.4501 -0.1724
52.4200 17.4567 -0.1649
52.4400 17.4634 -0.1556
52.4600 17.4700 -0.1595
52.4800 17.4767 -0.1709
52.5000 17.4834 -0.1647
52.5200 17.4901 -0.1681
52.5400 17.4968 -0.1604
52.5600 17.5035 -0.1528
52.5800 17.5101 -0.1788
52.6000 17.5168 -0.1711
52.6200 17.5234 -0.1559
52.6400 17.5300 -0.1683
52.6600 17.5366 -0.1712
52.6800 17.5434 -0.1573
52.7000 17.5501 -0.1754
52.7200 17.5568 -0.1636
52.7400 17.5635 -0.1606
52.7600 17.5701 -0.1778
52.7800 17.5768 -0.1663
52.8000 17.5834 -0.1615
52.8200 17.5900 -0.1725
52.8400 17.5967 -0.1626
52.8600 17.6034 -0.1696
52.8800 17.6101 -0.1770
52.9000 17.6167 -0.1621
52.9200 17.6234 -0.1611
52.9400 17.6301 -0.1721
52.9600 17.6368 -0.1701
52.9800 17.6434 -0.1727
53.0000 17.6500 -0.1690
53.0200 17.6566 -0.1562
53.0400 17.6633 -0.1734
53.0600 17.6700 -0.1793
53.0800 17.6767 -0.1660
53.1000 17.6834 -0.1695
53.1200 17.6900 -0.1742
53.1400 17.6967 -0.1680
53.1600 17.7033 -0.1758
53.1800 17.7100 -0.1705
53.2000 17.7166 -0.1704
53.2200 17.7233 -0.1747
53.2400 17.7301 -0.1689
53.2600 17.7368 -0.1733
53.2800 17.7435 -0.1783
53.3000 17.7501 -0.1653
53.3200 17.7568 -0.1765
53.3400 17.7634 -0.1754
53.3600 17.7700 -0.1676
53.3800 17.7767 -0.1820
53.4000 17.7834 -0.1759
53.4200 17.7901 -0.1634
53.4400 17.7968 -0.1857
53.4600 17.8035 -0.1762
53.4800 17.8101 -0.1664
53.5000 17.8168 -0.1869
53.5200 17.8234 -0.1662
53.5400 17.8300 -0.1712
53.5600 17.8366 -0.1874
53.5800 17.8433 -0.1712
53.6000 17.8500 -0.1713
53.6200 17.8567 -0.1884
53.6400 17.8634 -0.1692
53.6600 17.8701 -0.1711
53.6800 17.8767 -0.1866
53.7000 17.8834 -0.1736
53.7200 17.8900 -0.1687
53.7400 17.8966 -0.1819
53.7600 17.9033 -0.1716
53.7800 17.9100 -0.1754
53.8000 17.9167 -0.1839
53.8200 17.9234 -0.1736
53.8400 17.9301 -0.1764
53.8600 17.9367 -0.1803
53.8800 17.9434 -0.1768
53.9000 17.9500 -0.1755
53.9200 17.9566 -0.1858
53.9400 17.9634 -0.1702
53.9600 17.9701 -0.1712
53.9800 17.9767 -0.1858
54.0000 17.9834 -0.1783
54.0200 17.9901 -0.1760
54.0400 17.9968 -0.1813
54.0600 18.0034 -0.1818
54.0800 18.0100 -0.1776
54.1000 18.0166 -0.1779
54.1200 18.0233 -0.1829
54.1400 18.0300 -0.1795
54.1600 18.0367 -0.1810
54.1800 18.0434 -0.1786
54.2000 18.0501 -0.1813
54.2200 18.0568 -0.1838
54.2400 18.0634 -0.1783
54.2600 18.0700 -0.1852
54.2800 18.0766 -0.1779
54.3000 18.0833 -0.1811
54.3200 18.0901 -0.1836
54.3400 18.0968 -0.1864
54.3600 18.1034 -0.1825
54.3800 18.1101 -0.1810
54.4000 18.1168 -0.1840
54.4200 18.1234 -0.1827
54.4400 18.1300 -0.1829
54.4600 18.1366 -0.1870
54.4800 18.1433 -0.1849
54.5000 18.1500 -0.1754
54.5200 18.1567 -0.1906
54.5400 18.1634 -0.1902
54.5600 18.1700 -0.1749
54.5800 18.1767 -0.1876
54.6000 18.1834 -0.1906
54.6200 18.1900 -0.1788
54.6400 18.1966 -0.1883
54.6600 18.2033 -0.1893
54.6800 18.2100 -0.1818
54.7000 18.2168 -0.1909
54.7200 18.2235 -0.1907
54.7400 18.2302 -0.1791
54.7600 18.2368 -0.1918
54.7800 18.2434 -0.1924
54.8000 18.2500 -0.1800
54.8200 18.2566 -0.1868
54.8400 18.2633 -0.1955
54.8600 18.2701 -0.1782
54.8800 18.2768 -0.1890
54.9000 18.2835 -0.2008
54.9200 18.2901 -0.1769
54.9400 18.2968 -0.1899
54.9600 18.3034 -0.1961
54.9800 18.3100 -0.1809
55.0000 18.3166 -0.1921
55.0200 18.3233 -0.1980
55.0400 18.3300 -0.1806
55.0600 18.3367 -0.1922
55.0800 18.3434 -0.1946
55.1000 18.3501 -0.1884
55.1200 18.3568 -0.1971
55.1400 18.3634 -0.1937
55.1600 18.3700 -0.1805
55.1800 18.3766 -0.1928
55.2000 18.3833 -0.1987
55.2200 18.3900 -0.1909
55.2400 18.3967 -0.1940
55.2600 18.4034 -0.1921
55.2800 18.4101 -0.1899
55.3000 18.4167 -0.1983
55.3200 18.4234 -0.2023
55.3400 18.4300 -0.1905
55.3600 18.4366 -0.1907
55.3800 18.4433 -0.1896
55.4000 18.4501 -0.1948
55.4200 18.4568 -0.2013
55.4400 18.4634 -0.1961
55.4600 18.4701 -0.1865
55.4800 18.4768 -0.1980
55.5000 18.4835 -0.1982
55.5200 18.4901 -0.1927
55.5400 18.4967 -0.1966
55.5600 18.5034 -0.1961
55.5800 18.5101 -0.1863
55.6000 18.5167 -0.1968
55.6200 18.5234 -0.2027
55.6400 18.5301 -0.1927
55.6600 18.5368 -0.1962
55.6800 18.5434 -0.1968
55.7000 18.5500 -0.1986
55.7200 18.5566 -0.1947
55.7400 18.5633 -0.2036
55.7600 18.5700 -0.1962
55.7800 18.5767 -0.1869
55.8000 18.5834 -0.2006
55.8200 18.5901 -0.2005
55.8400 18.5968 -0.1964
55.8600 18.6034 -0.1975
55.8800 18.6100 -0.1938
55.9000 18.6166 -0.1982
55.9200 18.6233 -0.2052
55.9400 18.6300 -0.1941
55.9600 18.6367 -0.1964
55.9800 18.6434 -0.2103
56.0000 18.6501 -0.1915
56.0200 18.6567 -0.2062
56.0400 18.6634 -0.2105
56.0600 18.6700 -0.1881
56.0800 18.6767 -0.2002
56.1000 18.6833 -0.2160
56.1200 18.6900 -0.1945
56.1400 18.6967 -0.1979
56.1600 18.7034 -0.2163
56.1800 18.7101 -0.1909
56.2000 18.7168 -0.2063
56.2200 18.7235 -0.2160
56.2400 18.7301 -0.2004
56.2600 18.7367 -0.1986
56.2800 18.7433 -0.2069
56.3000 18.7500 -0.2017
56.3200 18.7568 -0.2080
56.3400 18.7634 -0.2116
56.3600 18.7701 -0.1979
56.3800 18.7768 -0.2014
56.4000 18.7834 -0.2111
56.4200 18.7900 -0.2084
56.4400 18.7967 -0.1971
56.4600 18.8033 -0.2082
56.4800 18.8100 -0.2109
56.5000 18.8167 -0.2045
56.5200 18.8234 -0.2028
56.5400 18.8301 -0.2124
56.5600 18.8367 -0.2061
56.5800 18.8434 -0.2031
56.6000 18.8500 -0.2125
56.6200 18.8566 -0.2128
56.6400 18.8632 -0.2042
56.6600 18.8700 -0.2053
56.6800 18.8767 -0.2101
56.7000 18.8834 -0.2194
56.7200 18.8901 -0.2097
56.7400 18.8968 -0.1954
56.7600 18.9034 -0.2140
56.7800 18.9100 -0.2201
56.8000 18.9166 -0.2037
56.8200 18.9233 -0.2082
56.8400 18.9300 -0.2119
56.8600 18.9368 -0.2084
56.8800 18.9435 -0.2142
56.9000 18.9501 -0.2107
56.9200 18.9568 -0.2054
56.9400 18.9634 -0.2185
56.9600 18.9700 -0.2149
56.9800 18.9767 -0.2064
57.0000 18.9833 -0.2210
57.0200 18.9901 -0.2064
57.0400 18.9968 -0.2056
57.0600 19.0034 -0.2229
57.0800 19.0101 -0.2154
57.1000 19.0168 -0.2130
57.1200 19.0234 -0.2155
57.1400 19.0300 -0.2004
57.1600 19.0366 -0.2129
57.1800 19.0433 -0.2304
57.2000 19.0500 -0.2005
57.2200 19.0567 -0.2051
57.2400 19.0634 -0.2197
57.2600 19.0701 -0.2102
57.2800 19.0768 -0.2225
57.3000 19.0834 -0.2228
57.3200 19.0900 -0.2002
57.3400 19.0966 -0.2113
57.3600 19.1033 -0.2258
57.3800 19.1100 -0.2070
57.4000 19.1167 -0.2155
57.4200 19.1234 -0.2239
57.4400 19.1301 -0.2014
57.4600 19.1367 -0.2162
57.4800 19.1434 -0.2234
57.5000 19.1500 -0.2097
57.5200 19.1567 -0.2172
57.5400 19.1633 -0.2193
57.5600 19.1700 -0.2135
57.5800 19.1767 -0.2230
57.6000 19.1834 -0.2198
57.6200 19.1901 -0.2115
57.6400 19.1968 -0.2251
57.6600 19.2035 -0.2253
57.6800 19.2101 -0.2130
57.7000 19.2167 -0.2184
57.7200 19.2233 -0.2237
57.7400 19.2300 -0.2184
57.7600 19.2367 -0.2251
57.7800 19.2434 -0.2210
57.8000 19.2501 -0.2185
57.8200 19.2568 -0.2268
57.8400 19.2635 -0.2239
57.8600 19.2701 -0.2248
57.8800 19.2767 -0.2233
57.9000 19.2833 -0.2170
57.9200 19.2900 -0.2222
57.9400 19.2967 -0.2293
57.9600 19.3034 -0.2223
57.9800 19.3100 -0.2196
58.0000 19.3167 -0.2269
58.0200 19.3234 -0.2235
58.0400 19.3300 -0.2258
58.0600 19.3366 -0.2338
58.0800 19.3433 -0.2179
58.1000 19.3500 -0.2260
58.1200 19.3567 -0.2291
58.1400 19.3634 -0.2284
58.1600 19.3700 -0.2265
58.1800 19.3767 -0.2287
58.2000 19.3834 -0.2296
58.2200 19.3901 -0.2324
58.2400 19.3967 -0.2273
58.2600 19.4033 -0.2228
58.2800 19.4100 -0.2387
58.3000 19.4167 -0.2354
58.3200 19.4234 -0.2228
58.3400 19.4301 -0.2311
58.3600 19.4368 -0.2339
58.3800 19.4435 -0.2306
58.4000 19.4501 -0.2383
58.4200 19.4567 -0.2288
58.4400 19.4633 -0.2301
58.4600 19.4700 -0.2385
58.4800 19.4767 -0.2329
58.5000 19.4834 -0.2303
58.5200 19.4901 -0.2405
58.5400 19.4968 -0.2341
58.5600 19.5035 -0.2295
58.5800 19.5101 -0.2405
58.6000 19.5167 -0.2397
58.6200 19.5233 -0.2267
58.6400 19.5300 -0.2390
58.6600 19.5367 -0.2414
58.6800 19.5434 -0.2310
58.7000 19.5501 -0.2387
58.7200 19.5568 -0.2396
58.7400 19.5634 -0.2299
58.7600 19.5700 -0.2495
58.7800 19.5766 -0.2433
58.8000 19.5833 -0.2256
58.8200 19.5899 -0.2471
58.8400 19.5967 -0.2413
58.8600 19.6034 -0.2336
58.8800 19.6101 -0.2446
58.9000 19.6167 -0.2422
58.9200 19.6234 -0.2369
58.9400 19.6300 -0.2449
58.9600 19.6366 -0.2414
58.9800 19.6433 -0.2393
59.0000 19.6500 -0.2491
59.0200 19.6567 -0.2408
59.0400 19.6634 -0.2381
59.0600 19.6701 -0.2477
59.0800 19.6768 -0.2454
59.1000 19.6835 -0.2460
59.1200 19.6901 -0.2431
59.1400 19.6967 -0.2402
59.1600 19.7034 -0.2474
59.1800 19.7101 -0.2481
59.2000 19.7168 -0.2473
59.2200 19.7234 -0.2431
59.2400 19.7301 -0.2505
59.2600 19.7368 -0.2531
59.2800 19.7435 -0.2459
59.3000 19.7500 -0.2599
