Raw Data
Time Displacement Force
(s) (mm) (N)
0.0000 0.0000 -0.2079
0.0200 0.0000 -0.2063
0.0400 0.0008 -0.1609
0.0600 0.0040 -0.1137
0.0800 0.0094 -0.1293
0.1000 0.0152 -0.1209
0.1200 0.0211 -0.0902
0.1400 0.0277 -0.0955
0.1600 0.0350 -0.0993
0.1800 0.0425 -0.0801
0.2000 0.0497 -0.0722
0.2200 0.0565 -0.0542
0.2400 0.0632 -0.0192
0.2600 0.0699 -0.0006
0.2800 0.0765 0.0302
0.3000 0.0832 0.0411
0.3200 0.0900 0.0505
0.3400 0.0967 0.0691
0.3600 0.1034 0.0797
0.3800 0.1100 0.0899
0.4000 0.1167 0.1127
0.4200 0.1234 0.1134
0.4400 0.1301 0.1115
0.4600 0.1367 0.1293
0.4800 0.1434 0.1378
0.5000 0.1501 0.1497
0.5200 0.1568 0.1651
0.5400 0.1634 0.1597
0.5600 0.1700 0.1698
0.5800 0.1766 0.1677
0.6000 0.1833 0.1628
0.6200 0.1900 0.1721
0.6400 0.1967 0.1695
0.6600 0.2034 0.1713
0.6800 0.2101 0.1748
0.7000 0.2168 0.1672
0.7200 0.2234 0.1689
0.7400 0.2300 0.1818
0.7600 0.2367 0.1700
0.7800 0.2433 0.1759
0.8000 0.2500 0.1785
0.8200 0.2567 0.1707
0.8400 0.2634 0.1851
0.8600 0.2700 0.1770
0.8800 0.2767 0.1692
0.9000 0.2834 0.1877
0.9200 0.2900 0.1754
0.9400 0.2966 0.1721
0.9600 0.3032 0.1879
0.9800 0.3100 0.1776
1.0000 0.3167 0.1753
1.0200 0.3233 0.1826
1.0400 0.3300 0.1767
1.0600 0.3367 0.1762
1.0800 0.3434 0.1807
1.1000 0.3500 0.1755
1.1200 0.3566 0.1841
1.1400 0.3633 0.1698
1.1600 0.3700 0.1768
1.1800 0.3767 0.1785
1.2000 0.3834 0.1759
1.2200 0.3901 0.1782
1.2400 0.3968 0.1748
1.2600 0.4035 0.1707
1.2800 0.4101 0.1788
1.3000 0.4167 0.1729
1.3200 0.4233 0.1759
1.3400 0.4300 0.1756
1.3600 0.4367 0.1742
1.3800 0.4434 0.1725
1.4000 0.4501 0.1806
1.4200 0.4568 0.1729
1.4400 0.4634 0.1697
1.4600 0.4700 0.1777
1.4800 0.4766 0.1657
1.5000 0.4833 0.1726
1.5200 0.4900 0.1728
1.5400 0.4967 0.1726
1.5600 0.5034 0.1709
1.5800 0.5101 0.1743
1.6000 0.5168 0.1750
1.6200 0.5234 0.1702
1.6400 0.5300 0.1721
1.6600 0.5366 0.1780
1.6800 0.5433 0.1721
1.7000 0.5500 0.1718
1.7200 0.5567 0.1710
1.7400 0.5634 0.1700
1.7600 0.5700 0.1735
1.7800 0.5767 0.1751
1.8000 0.5834 0.1636
1.8200 0.5900 0.1722
1.8400 0.5967 0.1697
1.8600 0.6033 0.1742
1.8800 0.6100 0.1763
1.9000 0.6167 0.1667
1.9200 0.6234 0.1738
1.9400 0.6301 0.1720
1.9600 0.6368 0.1718
1.9800 0.6435 0.1715
2.0000 0.6500 0.1696
2.0200 0.6566 0.1699
2.0400 0.6633 0.1725
2.0600 0.6700 0.1729
2.0800 0.6767 0.1656
2.1000 0.6834 0.1683
2.1200 0.6901 0.1710
2.1400 0.6968 0.1655
2.1600 0.7034 0.1705
2.1800 0.7100 0.1720
2.2000 0.7166 0.1732
2.2200 0.7233 0.1642
2.2400 0.7300 0.1670
2.2600 0.7367 0.1678
2.2800 0.7434 0.1688
2.3000 0.7500 0.1677
2.3200 0.7567 0.1657
2.3400 0.7634 0.1630
2.3600 0.7700 0.1652
2.3800 0.7766 0.1689
2.4000 0.7833 0.1692
2.4200 0.7900 0.1702
2.4400 0.7967 0.1632
2.4600 0.8034 0.1616
2.4800 0.8101 0.1684
2.5000 0.8168 0.1651
2.5200 0.8234 0.1578
2.5400 0.8300 0.1682
2.5600 0.8366 0.1592
2.5800 0.8433 0.1650
2.6000 0.8500 0.1677
2.6200 0.8567 0.1528
2.6400 0.8635 0.1614
2.6600 0.8701 0.1701
2.6800 0.8768 0.1566
2.7000 0.8834 0.1588
2.7200 0.8900 0.1665
2.7400 0.8966 0.1554
2.7600 0.9033 0.1640
2.7800 0.9100 0.1640
2.8000 0.9168 0.1520
2.8200 0.9234 0.1643
2.8400 0.9301 0.1658
2.8600 0.9368 0.1477
2.8800 0.9435 0.1681
2.9000 0.9501 0.1622
2.9200 0.9567 0.1507
2.9400 0.9633 0.1656
2.9600 0.9700 0.1639
2.9800 0.9767 0.1492
3.0000 0.9834 0.1656
3.0200 0.9901 0.1619
3.0400 0.9967 0.1553
3.0600 1.0034 0.1653
3.0800 1.0100 0.1565
3.1000 1.0166 0.1526
3.1200 1.0232 0.1716
3.1400 1.0299 0.1570
3.1600 1.0367 0.1542
3.1800 1.0434 0.1673
3.2000 1.0501 0.1546
3.2200 1.0567 0.1554
3.2400 1.0634 0.1668
3.2600 1.0700 0.1551
3.2800 1.0767 0.1533
3.3000 1.0833 0.1716
3.3200 1.0900 0.1512
3.3400 1.0967 0.1552
3.3600 1.1034 0.1688
3.3800 1.1101 0.1579
3.4000 1.1168 0.1500
3.4200 1.1235 0.1708
3.4400 1.1301 0.1552
3.4600 1.1367 0.1545
3.4800 1.1433 0.1689
3.5000 1.1500 0.1520
3.5200 1.1567 0.1537
3.5400 1.1634 0.1698
3.5600 1.1701 0.1534
3.5800 1.1768 0.1549
3.6000 1.1834 0.1648
3.6200 1.1900 0.1511
3.6400 1.1966 0.1548
3.6600 1.2033 0.1636
3.6800 1.2100 0.1564
3.7000 1.2167 0.1544
3.7200 1.2234 0.1607
3.7400 1.2301 0.1584
3.7600 1.2367 0.1577
3.7800 1.2434 0.1562
3.8000 1.2500 0.1545
3.8200 1.2566 0.1529
3.8400 1.2633 0.1614
3.8600 1.2700 0.1541
3.8800 1.2767 0.1548
3.9000 1.2834 0.1580
3.9200 1.2900 0.1609
3.9400 1.2967 0.1527
3.9600 1.3034 0.1558
3.9800 1.3101 0.1583
4.0000 1.3167 0.1486
4.0200 1.3233 0.1562
4.0400 1.3300 0.1586
4.0600 1.3367 0.1491
4.0800 1.3434 0.1580
4.1000 1.3501 0.1558
4.1200 1.3568 0.1482
4.1400 1.3634 0.1605
4.1600 1.3701 0.1537
4.1800 1.3767 0.1458
4.2000 1.3833 0.1608
4.2200 1.3900 0.1613
4.2400 1.3967 0.1430
4.2600 1.4034 0.1601
4.2800 1.4101 0.1550
4.3000 1.4168 0.1446
4.3200 1.4235 0.1641
4.3400 1.4301 0.1535
4.3600 1.4367 0.1471
4.3800 1.4433 0.1638
4.4000 1.4500 0.1535
4.4200 1.4567 0.1473
4.4400 1.4634 0.1652
4.4600 1.4700 0.1557
4.4800 1.4767 0.1457
4.5000 1.4834 0.1622
4.5200 1.4900 0.1490
4.5400 1.4967 0.1522
4.5600 1.5033 0.1617
4.5800 1.5100 0.1505
4.6000 1.5167 0.1532
4.6200 1.5234 0.1516
4.6400 1.5301 0.1526
4.6600 1.5368 0.1535
4.6800 1.5434 0.1556
4.7000 1.5501 0.1497
4.7200 1.5567 0.1507
4.7400 1.5633 0.1545
4.7600 1.5700 0.1579
4.7800 1.5767 0.1519
4.8000 1.5834 0.1497
4.8200 1.5901 0.1562
4.8400 1.5968 0.1522
4.8600 1.6035 0.1509
4.8800 1.6101 0.1564
4.9000 1.6166 0.1505
4.9200 1.6233 0.1545
4.9400 1.6299 0.1588
4.9600 1.6367 0.1461
4.9800 1.6434 0.1546
5.0000 1.6501 0.1590
5.0200 1.6568 0.1462
5.0400 1.6635 0.1526
5.0600 1.6701 0.1531
5.0800 1.6767 0.1452
5.1000 1.6833 0.1605
5.1200 1.6900 0.1557
5.1400 1.6967 0.1455
5.1600 1.7034 0.1568
5.1800 1.7101 0.1575
5.2000 1.7168 0.1477
5.2200 1.7235 0.1585
5.2400 1.7301 0.1516
5.2600 1.7367 0.1500
5.2800 1.7433 0.1555
5.3000 1.7500 0.1514
5.3200 1.7567 0.1498
5.3400 1.7634 0.1533
5.3600 1.7700 0.1510
5.3800 1.7767 0.1513
5.4000 1.7834 0.1519
5.4200 1.7900 0.1488
5.4400 1.7967 0.1524
5.4600 1.8033 0.1471
5.4800 1.8100 0.1519
5.5000 1.8167 0.1522
5.5200 1.8234 0.1478
5.5400 1.8301 0.1475
5.5600 1.8368 0.1579
5.5800 1.8435 0.1454
5.6000 1.8501 0.1445
5.6200 1.8567 0.1558
5.6400 1.8633 0.1545
5.6600 1.8700 0.1475
5.6800 1.8767 0.1536
5.7000 1.8834 0.1442
5.7200 1.8901 0.1468
5.7400 1.8968 0.1570
5.7600 1.9034 0.1420
5.7800 1.9100 0.1462
5.8000 1.9167 0.1544
5.8200 1.9233 0.1437
5.8400 1.9300 0.1430
5.8600 1.9367 0.1497
5.8800 1.9434 0.1423
5.9000 1.9500 0.1477
5.9200 1.9567 0.1506
5.9400 1.9634 0.1486
5.9600 1.9700 0.1438
5.9800 1.9766 0.1512
6.0000 1.9833 0.1423
6.0200 1.9900 0.1429
6.0400 1.9967 0.1472
6.0600 2.0034 0.1466
6.0800 2.0100 0.1405
6.1000 2.0167 0.1531
6.1200 2.0234 0.1464
6.1400 2.0301 0.1374
6.1600 2.0367 0.1508
6.1800 2.0433 0.1455
6.2000 2.0500 0.1420
6.2200 2.0567 0.1506
6.2400 2.0634 0.1452
6.2600 2.0701 0.1393
6.2800 2.0768 0.1504
6.3000 2.0835 0.1415
6.3200 2.0901 0.1419
6.3400 2.0967 0.1509
6.3600 2.1033 0.1423
6.3800 2.1100 0.1387
6.4000 2.1167 0.1503
6.4200 2.1234 0.1347
6.4400 2.1301 0.1449
6.4600 2.1368 0.1495
6.4800 2.1435 0.1366
6.5000 2.1501 0.1402
6.5200 2.1567 0.1511
6.5400 2.1634 0.1347
6.5600 2.1700 0.1426
6.5800 2.1767 0.1519
6.6000 2.1834 0.1333
6.6200 2.1901 0.1436
6.6400 2.1967 0.1506
6.6600 2.2034 0.1284
6.6800 2.2101 0.1446
6.7000 2.2167 0.1452
6.7200 2.2233 0.1329
6.7400 2.2299 0.1447
6.7600 2.2366 0.1445
6.7800 2.2434 0.1308
6.8000 2.2501 0.1422
6.8200 2.2567 0.1475
6.8400 2.2634 0.1303
6.8600 2.2701 0.1439
6.8800 2.2767 0.1447
6.9000 2.2833 0.1299
6.9200 2.2900 0.1434
6.9400 2.2967 0.1431
6.9600 2.3034 0.1345
6.9800 2.3101 0.1395
7.0000 2.3168 0.1435
7.0200 2.3234 0.1362
7.0400 2.3301 0.1341
7.0600 2.3367 0.1497
7.0800 2.3433 0.1386
7.1000 2.3500 0.1340
7.1200 2.3567 0.1450
7.1400 2.3634 0.1365
7.1600 2.3701 0.1370
7.1800 2.3768 0.1413
7.2000 2.3835 0.1327
7.2200 2.3901 0.1337
7.2400 2.3967 0.1488
7.2600 2.4033 0.1322
7.2800 2.4100 0.1346
7.3000 2.4167 0.1468
7.3200 2.4234 0.1268
7.3400 2.4301 0.1341
7.3600 2.4367 0.1492
7.3800 2.4434 0.1293
7.4000 2.4501 0.1368
7.4200 2.4567 0.1418
7.4400 2.4633 0.1313
7.4600 2.4700 0.1405
7.4800 2.4767 0.1434
7.5000 2.4834 0.1253
7.5200 2.4900 0.1397
7.5400 2.4967 0.1427
7.5600 2.5034 0.1280
7.5800 2.5101 0.1385
7.6000 2.5167 0.1360
7.6200 2.5233 0.1301
7.6400 2.5300 0.1412
7.6600 2.5367 0.1319
7.6800 2.5434 0.1274
7.7000 2.5501 0.1442
7.7200 2.5568 0.1300
7.7400 2.5635 0.1293
7.7600 2.5701 0.1389
7.7800 2.5767 0.1363
7.8000 2.5833 0.1329
7.8200 2.5900 0.1412
7.8400 2.5967 0.1291
7.8600 2.6034 0.1360
7.8800 2.6101 0.1399
7.9000 2.6167 0.1266
7.9200 2.6234 0.1382
7.9400 2.6301 0.1387
7.9600 2.6367 0.1263
7.9800 2.6433 0.1397
8.0000 2.6500 0.1368
8.0200 2.6567 0.1289
8.0400 2.6634 0.1338
8.0600 2.6700 0.1314
8.0800 2.6767 0.1304
8.1000 2.6834 0.1369
8.1200 2.6901 0.1284
8.1400 2.6967 0.1258
8.1600 2.7033 0.1391
8.1800 2.7099 0.1281
8.2000 2.7166 0.1315
8.2200 2.7234 0.1304
8.2400 2.7301 0.1293
8.2600 2.7368 0.1284
8.2800 2.7434 0.1326
8.3000 2.7501 0.1274
8.3200 2.7567 0.1287
8.3400 2.7633 0.1304
8.3600 2.7700 0.1300
8.3800 2.7767 0.1297
8.4000 2.7834 0.1309
8.4200 2.7901 0.1256
8.4400 2.7967 0.1311
8.4600 2.8034 0.1289
8.4800 2.8101 0.1228
8.5000 2.8167 0.1287
8.5200 2.8234 0.1300
8.5400 2.8300 0.1299
8.5600 2.8367 0.1265
8.5800 2.8434 0.1266
8.6000 2.8501 0.1221
8.6200 2.8568 0.1310
8.6400 2.8635 0.1245
8.6600 2.8701 0.1233
8.6800 2.8767 0.1258
8.7000 2.8833 0.1244
8.7200 2.8900 0.1245
8.7400 2.8967 0.1264
8.7600 2.9034 0.1219
8.7800 2.9101 0.1258
8.8000 2.9168 0.1260
8.8200 2.9234 0.1297
8.8400 2.9301 0.1237
8.8600 2.9367 0.1251
8.8800 2.9433 0.1251
8.9000 2.9499 0.1254
8.9200 2.9566 0.1248
8.9400 2.9633 0.1233
8.9600 2.9700 0.1271
8.9800 2.9767 0.1236
9.0000 2.9834 0.1280
9.0200 2.9901 0.1250
9.0400 2.9967 0.1220
9.0600 3.0033 0.1275
9.0800 3.0100 0.1251
9.1000 3.0167 0.1202
9.1200 3.0234 0.1275
9.1400 3.0301 0.1229
9.1600 3.0368 0.1206
9.1800 3.0434 0.1253
9.2000 3.0501 0.1234
9.2200 3.0568 0.1223
9.2400 3.0633 0.1303
9.2600 3.0700 0.1230
9.2800 3.0767 0.1205
9.3000 3.0834 0.1277
9.3200 3.0901 0.1221
9.3400 3.0968 0.1184
9.3600 3.1035 0.1265
9.3800 3.1101 0.1201
9.4000 3.1167 0.1226
9.4200 3.1233 0.1320
9.4400 3.1300 0.1207
9.4600 3.1367 0.1231
9.4800 3.1434 0.1252
9.5000 3.1501 0.1214
9.5200 3.1567 0.1263
9.5400 3.1634 0.1269
9.5600 3.1701 0.1193
9.5800 3.1768 0.1281
9.6000 3.1834 0.1225
9.6200 3.1900 0.1208
9.6400 3.1966 0.1285
9.6600 3.2034 0.1248
9.6800 3.2100 0.1184
9.7000 3.2167 0.1234
9.7200 3.2233 0.1267
9.7400 3.2300 0.1195
9.7600 3.2366 0.1237
9.7800 3.2433 0.1226
9.8000 3.2500 0.1191
9.8200 3.2567 0.1234
9.8400 3.2634 0.1214
9.8600 3.2701 0.1155
9.8800 3.2768 0.1239
9.9000 3.2835 0.1235
9.9200 3.2901 0.1221
9.9400 3.2967 0.1191
9.9600 3.3033 0.1242
9.9800 3.3100 0.1226
10.0000 3.3167 0.1193
10.0200 3.3234 0.1228
10.0400 3.3301 0.1228
10.0600 3.3368 0.1194
10.0800 3.3435 0.1220
10.1000 3.3501 0.1214
10.1200 3.3567 0.1214
10.1400 3.3633 0.1208
10.1600 3.3700 0.1212
10.1800 3.3766 0.1184
10.2000 3.3833 0.1225
10.2200 3.3900 0.1253
10.2400 3.3967 0.1147
10.2600 3.4034 0.1216
10.2800 3.4101 0.1192
10.3000 3.4167 0.1154
10.3200 3.4233 0.1249
10.3400 3.4299 0.1242
10.3600 3.4366 0.1129
10.3800 3.4433 0.1229
10.4000 3.4500 0.1209
10.4200 3.4567 0.1187
10.4400 3.4634 0.1196
10.4600 3.4701 0.1231
10.4800 3.4767 0.1159
10.5000 3.4834 0.1223
10.5200 3.4900 0.1211
10.5400 3.4967 0.1194
10.5600 3.5034 0.1146
10.5800 3.5101 0.1178
10.6000 3.5167 0.1181
10.6200 3.5234 0.1184
10.6400 3.5301 0.1199
10.6600 3.5368 0.1139
10.6800 3.5434 0.1165
10.7000 3.5500 0.1207
10.7200 3.5566 0.1125
10.7400 3.5633 0.1141
10.7600 3.5701 0.1185
10.7800 3.5767 0.1140
10.8000 3.5834 0.1135
10.8200 3.5901 0.1185
10.8400 3.5968 0.1172
10.8600 3.6034 0.1093
10.8800 3.6100 0.1193
10.9000 3.6167 0.1115
10.9200 3.6234 0.1134
10.9400 3.6301 0.1196
10.9600 3.6368 0.1133
10.9800 3.6434 0.1097
11.0000 3.6501 0.1150
11.0200 3.6567 0.1119
11.0400 3.6633 0.1138
11.0600 3.6699 0.1196
11.0800 3.6766 0.1104
11.1000 3.6833 0.1139
11.1200 3.6900 0.1119
11.1400 3.6967 0.1097
11.1600 3.7034 0.1129
11.1800 3.7101 0.1129
11.2000 3.7167 0.1062
11.2200 3.7233 0.1141
11.2400 3.7300 0.1162
11.2600 3.7366 0.1098
11.2800 3.7434 0.1111
11.3000 3.7501 0.1184
11.3200 3.7568 0.1050
11.3400 3.7635 0.1117
11.3600 3.7702 0.1160
11.3800 3.7768 0.1088
11.4000 3.7834 0.1094
11.4200 3.7900 0.1179
11.4400 3.7966 0.1113
11.4600 3.8034 0.1104
11.4800 3.8101 0.1157
11.5000 3.8168 0.1076
11.5200 3.8235 0.1097
11.5400 3.8301 0.1195
11.5600 3.8368 0.1066
11.5800 3.8434 0.1117
11.6000 3.8500 0.1163
11.6200 3.8566 0.1061
11.6400 3.8633 0.1154
11.6600 3.8700 0.1201
11.6800 3.8767 0.1035
11.7000 3.8834 0.1107
11.7200 3.8901 0.1167
11.7400 3.8967 0.0986
11.7600 3.9033 0.1207
11.7800 3.9099 0.1161
11.8000 3.9166 0.1032
11.8200 3.9233 0.1125
11.8400 3.9300 0.1136
11.8600 3.9367 0.1056
11.8800 3.9434 0.1127
11.9000 3.9501 0.1136
11.9200 3.9567 0.1050
11.9400 3.9633 0.1146
11.9600 3.9699 0.1165
11.9800 3.9766 0.1064
12.0000 3.9834 0.1187
12.0200 3.9901 0.1101
12.0400 3.9968 0.1069
12.0600 4.0034 0.1150
12.0800 4.0101 0.1089
12.1000 4.0168 0.1102
12.1200 4.0234 0.1109
12.1400 4.0300 0.1136
12.1600 4.0367 0.1093
12.1800 4.0434 0.1094
12.2000 4.0501 0.1061
12.2200 4.0568 0.1135
12.2400 4.0634 0.1077
12.2600 4.0701 0.1037
12.2800 4.0768 0.1159
12.3000 4.0834 0.1041
12.3200 4.0900 0.1036
12.3400 4.0966 0.1147
12.3600 4.1033 0.1082
12.3800 4.1100 0.1115
12.4000 4.1167 0.1088
12.4200 4.1234 0.1006
12.4400 4.1301 0.1045
12.4600 4.1368 0.1182
12.4800 4.1434 0.1065
12.5000 4.1500 0.1055
12.5200 4.1566 0.1103
12.5400 4.1633 0.1011
12.5600 4.1700 0.1129
12.5800 4.1767 0.1136
12.6000 4.1834 0.1081
12.6200 4.1901 0.1034
12.6400 4.1968 0.1047
12.6600 4.2034 0.1022
12.6800 4.2100 0.1135
12.7000 4.2167 0.1134
12.7200 4.2233 0.0963
12.7400 4.2300 0.0992
12.7600 4.2367 0.1167
12.7800 4.2434 0.1025
12.8000 4.2501 0.1049
12.8200 4.2568 0.1070
12.8400 4.2634 0.0978
12.8600 4.2700 0.1062
12.8800 4.2766 0.1160
12.9000 4.2834 0.0999
12.9200 4.2901 0.1017
12.9400 4.2968 0.1086
12.9600 4.3035 0.0979
12.9800 4.3101 0.1114
13.0000 4.3168 0.1098
13.0200 4.3234 0.0954
13.0400 4.3300 0.1030
13.0600 4.3367 0.1050
13.0800 4.3434 0.1001
13.1000 4.3501 0.1109
13.1200 4.3568 0.1015
13.1400 4.3634 0.1011
13.1600 4.3701 0.1061
13.1800 4.3768 0.1070
13.2000 4.3834 0.1003
13.2200 4.3900 0.1067
13.2400 4.3966 0.1011
13.2600 4.4033 0.1008
13.2800 4.4100 0.1046
13.3000 4.4167 0.1065
13.3200 4.4234 0.1010
13.3400 4.4301 0.1016
13.3600 4.4368 0.1049
13.3800 4.4434 0.0958
13.4000 4.4500 0.1014
13.4200 4.4566 0.1073
13.4400 4.4633 0.0987
13.4600 4.4701 0.0991
13.4800 4.4768 0.1109
13.5000 4.4835 0.0946
13.5200 4.4901 0.0972
13.5400 4.4968 0.1056
13.5600 4.5034 0.0978
13.5800 4.5100 0.0979
13.6000 4.5166 0.1120
13.6200 4.5234 0.0917
13.6400 4.5301 0.0979
13.6600 4.5368 0.1104
13.6800 4.5434 0.0915
13.7000 4.5501 0.0975
13.7200 4.5568 0.1142
13.7400 4.5634 0.0881
13.7600 4.5700 0.0968
13.7800 4.5766 0.1150
13.8000 4.5833 0.0926
13.8200 4.5900 0.0963
13.8400 4.5967 0.1107
13.8600 4.6034 0.0939
13.8800 4.6101 0.1000
13.9000 4.6168 0.1110
13.9200 4.6234 0.0849
13.9400 4.6300 0.1050
13.9600 4.6366 0.1121
13.9800 4.6433 0.0871
14.0000 4.6500 0.0948
14.0200 4.6567 0.1138
14.0400 4.6634 0.0924
14.0600 4.6701 0.0972
14.0800 4.6767 0.1039
14.1000 4.6834 0.0892
14.1200 4.6900 0.1010
14.1400 4.6966 0.1152
14.1600 4.7033 0.0888
14.1800 4.7101 0.0957
14.2000 4.7168 0.1011
14.2200 4.7234 0.0941
14.2400 4.7301 0.1091
14.2600 4.7368 0.1050
14.2800 4.7435 0.0863
14.3000 4.7501 0.0987
14.3200 4.7567 0.1045
14.3400 4.7633 0.0971
14.3600 4.7700 0.1059
14.3800 4.7767 0.0958
14.4000 4.7834 0.0908
14.4200 4.7901 0.1037
14.4400 4.7968 0.1030
14.4600 4.8035 0.0939
14.4800 4.8100 0.1004
14.5000 4.8166 0.0946
14.5200 4.8233 0.0991
14.5400 4.8300 0.1030
14.5600 4.8367 0.0987
14.5800 4.8433 0.0945
14.6000 4.8500 0.0962
14.6200 4.8567 0.0941
14.6400 4.8634 0.1026
14.6600 4.8700 0.0976
14.6800 4.8766 0.0934
14.7000 4.8833 0.0989
14.7200 4.8900 0.0981
14.7400 4.8967 0.1053
14.7600 4.9033 0.0975
14.7800 4.9100 0.0905
14.8000 4.9167 0.1026
14.8200 4.9234 0.0974
14.8400 4.9301 0.0960
14.8600 4.9367 0.1024
14.8800 4.9433 0.0932
14.9000 4.9500 0.0950
14.9200 4.9567 0.1002
14.9400 4.9634 0.1004
14.9600 4.9701 0.0940
14.9800 4.9768 0.1028
15.0000 4.9834 0.0943
15.0200 4.9900 0.0947
15.0400 4.9966 0.1013
15.0600 5.0033 0.1014
15.0800 5.0100 0.0969
15.1000 5.0168 0.0973
15.1200 5.0234 0.0941
15.1400 5.0301 0.0975
15.1600 5.0368 0.0987
15.1800 5.0434 0.0980
15.2000 5.0500 0.0991
15.2200 5.0566 0.0936
15.2400 5.0633 0.0927
15.2600 5.0700 0.0990
15.2800 5.0768 0.1025
15.3000 5.0834 0.0978
15.3200 5.0901 0.0917
15.3400 5.0968 0.0936
15.3600 5.1034 0.1031
15.3800 5.1100 0.0935
15.4000 5.1166 0.0980
15.4200 5.1233 0.0941
15.4400 5.1300 0.0906
15.4600 5.1367 0.0974
15.4800 5.1434 0.1064
15.5000 5.1500 0.0933
15.5200 5.1567 0.0900
15.5400 5.1634 0.0972
15.5600 5.1700 0.0969
15.5800 5.1766 0.0958
15.6000 5.1833 0.1003
15.6200 5.1900 0.0912
15.6400 5.1968 0.0891
15.6600 5.2034 0.1024
15.6800 5.2101 0.0961
15.7000 5.2168 0.0920
15.7200 5.2235 0.0922
15.7400 5.2301 0.0952
15.7600 5.2367 0.0948
15.7800 5.2434 0.0984
15.8000 5.2501 0.0928
15.8200 5.2568 0.0922
15.8400 5.2634 0.0985
15.8600 5.2701 0.0955
15.8800 5.2768 0.0883
15.9000 5.2835 0.0997
15.9200 5.2900 0.0960
15.9400 5.2966 0.0845
15.9600 5.3033 0.0991
15.9800 5.3100 0.0926
16.0000 5.3167 0.0911
16.0200 5.3234 0.1038
16.0400 5.3301 0.0865
16.0600 5.3368 0.0894
16.0800 5.3434 0.1030
16.1000 5.3500 0.0857
16.1200 5.3566 0.0958
16.1400 5.3633 0.1011
16.1600 5.3700 0.0856
16.1800 5.3767 0.0915
16.2000 5.3834 0.1007
16.2200 5.3901 0.0829
16.2400 5.3967 0.0969
16.2600 5.4034 0.0948
16.2800 5.4101 0.0852
16.3000 5.4167 0.0951
16.3200 5.4233 0.0976
16.3400 5.4300 0.0869
16.3600 5.4367 0.0950
16.3800 5.4434 0.0937
16.4000 5.4501 0.0935
16.4200 5.4568 0.0893
16.4400 5.4635 0.0885
16.4600 5.4701 0.0930
16.4800 5.4766 0.0907
16.5000 5.4833 0.0938
16.5200 5.4900 0.0952
16.5400 5.4967 0.0872
16.5600 5.5034 0.0932
16.5800 5.5101 0.0925
16.6000 5.5168 0.0826
16.6200 5.5234 0.0991
16.6400 5.5300 0.0934
16.6600 5.5366 0.0832
16.6800 5.5433 0.0959
16.7000 5.5500 0.0893
16.7200 5.5567 0.0801
16.7400 5.5634 0.1032
16.7600 5.5700 0.0896
16.7800 5.5767 0.0772
16.8000 5.5833 0.0970
16.8200 5.5899 0.0912
16.8400 5.5966 0.0772
16.8600 5.6033 0.1059
16.8800 5.6100 0.0878
16.9000 5.6167 0.0778
16.9200 5.6234 0.1053
16.9400 5.6301 0.0911
16.9600 5.6368 0.0782
16.9800 5.6435 0.1011
17.0000 5.6501 0.0875
17.0200 5.6567 0.0811
17.0400 5.6633 0.1038
17.0600 5.6701 0.0836
17.0800 5.6768 0.0754
17.1000 5.6835 0.1041
17.1200 5.6901 0.0906
17.1400 5.6968 0.0784
17.1600 5.7034 0.1025
17.1800 5.7100 0.0875
17.2000 5.7167 0.0798
17.2200 5.7233 0.1008
17.2400 5.7300 0.0916
17.2600 5.7368 0.0803
17.2800 5.7434 0.0986
17.3000 5.7501 0.0838
17.3200 5.7568 0.0843
17.3400 5.7635 0.0982
17.3600 5.7701 0.0841
17.3800 5.7767 0.0827
17.4000 5.7833 0.0978
17.4200 5.7900 0.0874
17.4400 5.7967 0.0828
17.4600 5.8034 0.0940
17.4800 5.8101 0.0874
17.5000 5.8168 0.0809
17.5200 5.8234 0.0968
17.5400 5.8300 0.0914
17.5600 5.8366 0.0845
17.5800 5.8432 0.0890
17.6000 5.8499 0.0879
17.6200 5.8566 0.0905
17.6400 5.8634 0.0873
17.6600 5.8700 0.0897
17.6800 5.8767 0.0839
17.7000 5.8834 0.0897
17.7200 5.8901 0.0852
17.7400 5.8967 0.0933
17.7600 5.9033 0.0914
17.7800 5.9100 0.0837
17.8000 5.9167 0.0877
17.8200 5.9234 0.0938
17.8400 5.9301 0.0850
17.8600 5.9368 0.0779
17.8800 5.9435 0.0912
17.9000 5.9501 0.0866
17.9200 5.9567 0.0793
17.9400 5.9633 0.0914
17.9600 5.9700 0.0887
17.9800 5.9767 0.0792
18.0000 5.9834 0.0879
18.0200 5.9901 0.0879
18.0400 5.9968 0.0837
18.0600 6.0035 0.0820
18.0800 6.0101 0.0865
18.1000 6.0166 0.0863
18.1200 6.0233 0.0906
18.1400 6.0300 0.0856
18.1600 6.0367 0.0817
18.1800 6.0434 0.0824
18.2000 6.0501 0.0900
18.2200 6.0567 0.0826
18.2400 6.0634 0.0835
18.2600 6.0700 0.0883
18.2800 6.0767 0.0822
18.3000 6.0833 0.0815
18.3200 6.0900 0.0890
18.3400 6.0967 0.0834
18.3600 6.1034 0.0820
18.3800 6.1100 0.0924
18.4000 6.1167 0.0807
18.4200 6.1234 0.0829
18.4400 6.1300 0.0913
18.4600 6.1367 0.0798
18.4800 6.1433 0.0762
18.5000 6.1500 0.0914
18.5200 6.1567 0.0807
18.5400 6.1634 0.0829
18.5600 6.1701 0.0880
18.5800 6.1768 0.0754
18.6000 6.1835 0.0822
18.6200 6.1901 0.0931
18.6400 6.1967 0.0782
18.6600 6.2033 0.0825
18.6800 6.2100 0.0828
18.7000 6.2167 0.0778
18.7200 6.2234 0.0784
18.7400 6.2301 0.0912
18.7600 6.2368 0.0783
18.7800 6.2434 0.0702
18.8000 6.2501 0.0905
18.8200 6.2567 0.0803
18.8400 6.2633 0.0789
18.8600 6.2700 0.0840
18.8800 6.2767 0.0723
18.9000 6.2834 0.0822
18.9200 6.2900 0.0959
18.9400 6.2967 0.0696
18.9600 6.3034 0.0730
18.9800 6.3101 0.0892
19.0000 6.3167 0.0778
19.0200 6.3233 0.0773
19.0400 6.3300 0.0860
19.0600 6.3367 0.0709
19.0800 6.3434 0.0737
19.1000 6.3501 0.0855
19.1200 6.3567 0.0814
19.1400 6.3634 0.0770
19.1600 6.3700 0.0758
19.1800 6.3766 0.0730
19.2000 6.3833 0.0864
19.2200 6.3900 0.0874
19.2400 6.3967 0.0715
19.2600 6.4035 0.0748
19.2800 6.4101 0.0775
19.3000 6.4168 0.0840
19.3200 6.4235 0.0810
19.3400 6.4301 0.0725
19.3600 6.4367 0.0764
19.3800 6.4433 0.0823
19.4000 6.4499 0.0808
19.4200 6.4567 0.0821
19.4400 6.4634 0.0759
19.4600 6.4701 0.0764
19.4800 6.4768 0.0807
19.5000 6.4835 0.0873
19.5200 6.4901 0.0766
19.5400 6.4967 0.0778
19.5600 6.5033 0.0782
19.5800 6.5099 0.0736
19.6000 6.5167 0.0854
19.6200 6.5234 0.0874
19.6400 6.5301 0.0718
19.6600 6.5368 0.0752
19.6800 6.5435 0.0827
19.7000 6.5501 0.0803
19.7200 6.5567 0.0776
19.7400 6.5633 0.0764
19.7600 6.5699 0.0808
19.7800 6.5767 0.0775
19.8000 6.5834 0.0795
19.8200 6.5900 0.0812
19.8400 6.5967 0.0804
19.8600 6.6034 0.0696
19.8800 6.6100 0.0843
19.9000 6.6167 0.0845
19.9200 6.6233 0.0749
19.9400 6.6300 0.0747
19.9600 6.6367 0.0778
19.9800 6.6434 0.0757
20.0000 6.6501 0.0903
20.0200 6.6568 0.0737
20.0400 6.6635 0.0677
20.0600 6.6701 0.0897
20.0800 6.6767 0.0796
20.1000 6.6833 0.0668
20.1200 6.6900 0.0926
20.1400 6.6967 0.0810
20.1600 6.7034 0.0659
20.1800 6.7101 0.0863
20.2000 6.7168 0.0813
20.2200 6.7235 0.0711
20.2400 6.7301 0.0817
20.2600 6.7367 0.0870
20.2800 6.7433 0.0709
20.3000 6.7500 0.0822
20.3200 6.7567 0.0817
20.3400 6.7634 0.0732
20.3600 6.7700 0.0836
20.3800 6.7767 0.0846
20.4000 6.7834 0.0676
20.4200 6.7901 0.0793
20.4400 6.7967 0.0826
20.4600 6.8033 0.0738
20.4800 6.8100 0.0754
20.5000 6.8167 0.0779
20.5200 6.8234 0.0828
20.5400 6.8301 0.0822
20.5600 6.8367 0.0700
20.5800 6.8434 0.0743
20.6000 6.8501 0.0876
20.6200 6.8567 0.0744
20.6400 6.8633 0.0743
20.6600 6.8700 0.0864
20.6800 6.8767 0.0781
20.7000 6.8834 0.0668
20.7200 6.8901 0.0863
20.7400 6.8968 0.0812
20.7600 6.9035 0.0693
20.7800 6.9101 0.0825
20.8000 6.9167 0.0756
20.8200 6.9233 0.0723
20.8400 6.9300 0.0944
20.8600 6.9367 0.0753
20.8800 6.9434 0.0611
20.9000 6.9501 0.0831
20.9200 6.9568 0.0878
20.9400 6.9634 0.0629
20.9600 6.9701 0.0706
20.9800 6.9767 0.0871
21.0000 6.9834 0.0759
21.0200 6.9900 0.0743
21.0400 6.9967 0.0754
21.0600 7.0034 0.0710
21.0800 7.0101 0.0784
21.1000 7.0168 0.0790
21.1200 7.0235 0.0650
21.1400 7.0301 0.0819
21.1600 7.0367 0.0765
21.1800 7.0433 0.0574
21.2000 7.0499 0.0836
21.2200 7.0566 0.0893
21.2400 7.0633 0.0581
21.2600 7.0700 0.0794
21.2800 7.0767 0.0790
21.3000 7.0834 0.0565
21.3200 7.0900 0.0840
21.3400 7.0967 0.0889
21.3600 7.1033 0.0492
21.3800 7.1100 0.0798
21.4000 7.1167 0.0922
21.4200 7.1234 0.0524
21.4400 7.1301 0.0693
21.4600 7.1368 0.0901
21.4800 7.1434 0.0754
21.5000 7.1501 0.0616
21.5200 7.1567 0.0726
21.5400 7.1633 0.0713
21.5600 7.1700 0.0854
21.5800 7.1767 0.0702
21.6000 7.1834 0.0634
21.6200 7.1901 0.0795
21.6400 7.1968 0.0764
21.6600 7.2035 0.0681
21.6800 7.2101 0.0770
21.7000 7.2167 0.0718
21.7200 7.2233 0.0659
21.7400 7.2299 0.0745
21.7600 7.2367 0.0813
21.7800 7.2434 0.0721
21.8000 7.2501 0.0661
21.8200 7.2567 0.0650
21.8400 7.2634 0.0835
21.8600 7.2700 0.0720
21.8800 7.2767 0.0666
21.9000 7.2833 0.0723
21.9200 7.2900 0.0684
21.9400 7.2966 0.0725
21.9600 7.3033 0.0793
21.9800 7.3100 0.0632
22.0000 7.3167 0.0647
22.0200 7.3234 0.0771
22.0400 7.3301 0.0691
22.0600 7.3367 0.0682
22.0800 7.3433 0.0740
22.1000 7.3500 0.0691
22.1200 7.3567 0.0678
22.1400 7.3634 0.0758
22.1600 7.3701 0.0636
22.1800 7.3768 0.0687
22.2000 7.3835 0.0768
22.2200 7.3901 0.0687
22.2400 7.3967 0.0703
22.2600 7.4033 0.0749
22.2800 7.4100 0.0707
22.3000 7.4167 0.0709
22.3200 7.4234 0.0685
22.3400 7.4301 0.0698
22.3600 7.4368 0.0679
22.3800 7.4434 0.0675
22.4000 7.4501 0.0710
22.4200 7.4567 0.0759
22.4400 7.4633 0.0692
22.4600 7.4699 0.0662
22.4800 7.4766 0.0755
22.5000 7.4833 0.0649
22.5200 7.4900 0.0703
22.5400 7.4967 0.0724
22.5600 7.5034 0.0725
22.5800 7.5101 0.0659
22.6000 7.5167 0.0669
22.6200 7.5233 0.0691
22.6400 7.5299 0.0717
22.6600 7.5366 0.0739
22.6800 7.5434 0.0675
22.7000 7.5501 0.0643
22.7200 7.5568 0.0724
22.7400 7.5634 0.0660
22.7600 7.5701 0.0682
22.7800 7.5767 0.0744
22.8000 7.5833 0.0631
22.8200 7.5900 0.0624
22.8400 7.5967 0.0725
22.8600 7.6034 0.0721
22.8800 7.6101 0.0619
22.9000 7.6167 0.0706
22.9200 7.6234 0.0668
22.9400 7.6301 0.0617
22.9600 7.6368 0.0666
22.9800 7.6434 0.0726
23.0000 7.6500 0.0649
23.0200 7.6567 0.0689
23.0400 7.6634 0.0656
23.0600 7.6701 0.0624
23.0800 7.6768 0.0691
23.1000 7.6835 0.0710
23.1200 7.6901 0.0560
23.1400 7.6968 0.0707
23.1600 7.7033 0.0706
23.1800 7.7100 0.0609
23.2000 7.7166 0.0695
23.2200 7.7234 0.0633
23.2400 7.7301 0.0610
23.2600 7.7368 0.0650
23.2800 7.7434 0.0677
23.3000 7.7501 0.0613
23.3200 7.7567 0.0691
23.3400 7.7633 0.0638
23.3600 7.7699 0.0580
23.3800 7.7766 0.0675
23.4000 7.7833 0.0686
23.4200 7.7900 0.0575
23.4400 7.7967 0.0659
23.4600 7.8033 0.0696
23.4800 7.8100 0.0662
23.5000 7.8167 0.0576
23.5200 7.8233 0.0656
23.5400 7.8300 0.0673
23.5600 7.8367 0.0653
23.5800 7.8434 0.0633
23.6000 7.8501 0.0573
23.6200 7.8568 0.0645
23.6400 7.8634 0.0657
23.6600 7.8701 0.0665
23.6800 7.8768 0.0614
23.7000 7.8834 0.0594
23.7200 7.8900 0.0636
23.7400 7.8967 0.0616
23.7600 7.9034 0.0665
23.7800 7.9101 0.0664
23.8000 7.9168 0.0563
23.8200 7.9235 0.0620
23.8400 7.9301 0.0614
23.8600 7.9368 0.0642
23.8800 7.9433 0.0644
23.9000 7.9500 0.0629
23.9200 7.9567 0.0558
23.9400 7.9634 0.0623
23.9600 7.9701 0.0651
23.9800 7.9767 0.0568
24.0000 7.9834 0.0688
24.0200 7.9901 0.0651
24.0400 7.9968 0.0514
24.0600 8.0034 0.0676
24.0800 8.0100 0.0648
24.1000 8.0167 0.0534
24.1200 8.0233 0.0660
24.1400 8.0300 0.0631
24.1600 8.0367 0.0578
24.1800 8.0434 0.0649
24.2000 8.0500 0.0588
24.2200 8.0567 0.0535
24.2400 8.0633 0.0724
24.2600 8.0699 0.0609
24.2800 8.0766 0.0480
24.3000 8.0834 0.0649
24.3200 8.0901 0.0665
24.3400 8.0968 0.0511
24.3600 8.1034 0.0676
24.3800 8.1101 0.0563
24.4000 8.1168 0.0443
24.4200 8.1234 0.0740
24.4400 8.1300 0.0632
24.4600 8.1367 0.0435
24.4800 8.1434 0.0756
24.5000 8.1501 0.0512
24.5200 8.1568 0.0451
24.5400 8.1635 0.0796
24.5600 8.1701 0.0510
24.5800 8.1768 0.0423
24.6000 8.1834 0.0725
24.6200 8.1900 0.0573
24.6400 8.1966 0.0486
24.6600 8.2033 0.0734
24.6800 8.2100 0.0448
24.7000 8.2167 0.0528
24.7200 8.2234 0.0729
24.7400 8.2301 0.0471
24.7600 8.2367 0.0533
24.7800 8.2433 0.0647
24.8000 8.2499 0.0503
24.8200 8.2566 0.0599
24.8400 8.2633 0.0666
24.8600 8.2700 0.0495
24.8800 8.2767 0.0457
24.9000 8.2834 0.0648
24.9200 8.2901 0.0687
24.9400 8.2968 0.0559
24.9600 8.3034 0.0385
24.9800 8.3100 0.0762
25.0000 8.3167 0.0690
25.0200 8.3234 0.0249
25.0400 8.3300 0.0691
25.0600 8.3367 0.0789
25.0800 8.3434 0.0444
25.1000 8.3501 0.0539
25.1200 8.3568 0.0534
25.1400 8.3634 0.0531
25.1600 8.3700 0.0804
25.1800 8.3766 0.0488
25.2000 8.3833 0.0352
25.2200 8.3901 0.0853
25.2400 8.3967 0.0560
25.2600 8.4034 0.0340
25.2800 8.4101 0.0837
25.3000 8.4168 0.0520
25.3200 8.4234 0.0476
25.3400 8.4300 0.0678
25.3600 8.4367 0.0436
25.3800 8.4434 0.0634
25.4000 8.4501 0.0834
25.4200 8.4568 0.0247
25.4400 8.4634 0.0611
25.4600 8.4701 0.0872
25.4800 8.4767 0.0254
25.5000 8.4833 0.0467
25.5200 8.4899 0.0905
25.5400 8.4966 0.0614
25.5600 8.5033 0.0398
25.5800 8.5100 0.0621
25.6000 8.5167 0.0501
25.6200 8.5233 0.0529
25.6400 8.5300 0.0667
25.6600 8.5367 0.0673
25.6800 8.5434 0.0567
25.7000 8.5500 0.0328
25.7200 8.5566 0.0535
25.7400 8.5634 0.0830
25.7600 8.5701 0.0565
25.7800 8.5768 0.0547
25.8000 8.5835 0.0547
25.8200 8.5902 0.0396
25.8400 8.5968 0.0679
25.8600 8.6034 0.0696
25.8800 8.6100 0.0470
25.9000 8.6167 0.0598
25.9200 8.6234 0.0590
25.9400 8.6301 0.0510
25.9600 8.6368 0.0591
25.9800 8.6434 0.0586
26.0000 8.6501 0.0658
26.0200 8.6568 0.0563
26.0400 8.6634 0.0456
26.0600 8.6700 0.0516
26.0800 8.6766 0.0667
26.1000 8.6833 0.0668
26.1200 8.6900 0.0524
26.1400 8.6967 0.0535
26.1600 8.7034 0.0553
26.1800 8.7101 0.0452
26.2000 8.7167 0.0625
26.2200 8.7234 0.0695
26.2400 8.7299 0.0578
26.2600 8.7366 0.0447
26.2800 8.7433 0.0475
26.3000 8.7500 0.0663
26.3200 8.7567 0.0621
26.3400 8.7634 0.0530
26.3600 8.7701 0.0548
26.3800 8.7767 0.0509
26.4000 8.7833 0.0510
26.4200 8.7900 0.0663
26.4400 8.7966 0.0510
26.4600 8.8033 0.0492
26.4800 8.8101 0.0607
26.5000 8.8168 0.0432
26.5200 8.8234 0.0449
26.5400 8.8301 0.0696
26.5600 8.8368 0.0523
26.5800 8.8434 0.0410
26.6000 8.8501 0.0546
26.6200 8.8567 0.0585
26.6400 8.8634 0.0418
26.6600 8.8701 0.0563
26.6800 8.8768 0.0610
26.7000 8.8834 0.0470
26.7200 8.8901 0.0514
26.7400 8.8968 0.0518
26.7600 8.9034 0.0471
26.7800 8.9100 0.0560
26.8000 8.9166 0.0521
26.8200 8.9233 0.0435
26.8400 8.9300 0.0549
26.8600 8.9367 0.0552
26.8800 8.9434 0.0403
26.9000 8.9501 0.0565
26.9200 8.9568 0.0505
26.9400 8.9634 0.0366
26.9600 8.9700 0.0657
26.9800 8.9766 0.0467
27.0000 8.9833 0.0386
27.0200 8.9900 0.0571
27.0400 8.9967 0.0511
27.0600 9.0034 0.0410
27.0800 9.0101 0.0593
27.1000 9.0168 0.0448
27.1200 9.0234 0.0396
27.1400 9.0300 0.0563
27.1600 9.0366 0.0484
27.1800 9.0433 0.0485
27.2000 9.0500 0.0530
27.2200 9.0567 0.0394
27.2400 9.0634 0.0436
27.2600 9.0701 0.0551
27.2800 9.0768 0.0507
27.3000 9.0834 0.0446
27.3200 9.0900 0.0486
27.3400 9.0966 0.0466
27.3600 9.1033 0.0429
27.3800 9.1101 0.0518
27.4000 9.1168 0.0472
27.4200 9.1235 0.0461
27.4400 9.1301 0.0468
27.4600 9.1368 0.0463
27.4800 9.1434 0.0448
27.5000 9.1500 0.0455
27.5200 9.1567 0.0532
27.5400 9.1634 0.0481
27.5600 9.1701 0.0389
27.5800 9.1767 0.0555
27.6000 9.1834 0.0456
27.6200 9.1901 0.0443
27.6400 9.1968 0.0541
27.6600 9.2034 0.0437
27.6800 9.2100 0.0415
27.7000 9.2166 0.0526
27.7200 9.2233 0.0456
27.7400 9.2300 0.0408
27.7600 9.2367 0.0578
27.7800 9.2434 0.0397
27.8000 9.2501 0.0443
27.8200 9.2568 0.0547
27.8400 9.2634 0.0373
27.8600 9.2700 0.0487
27.8800 9.2766 0.0534
27.9000 9.2833 0.0384
27.9200 9.2901 0.0561
27.9400 9.2968 0.0420
27.9600 9.3035 0.0280
27.9800 9.3101 0.0625
28.0000 9.3168 0.0528
28.0200 9.3234 0.0225
28.0400 9.3300 0.0545
28.0600 9.3367 0.0479
28.0800 9.3434 0.0411
28.1000 9.3501 0.0523
28.1200 9.3568 0.0373
28.1400 9.3634 0.0451
28.1600 9.3701 0.0564
28.1800 9.3768 0.0343
28.2000 9.3834 0.0427
28.2200 9.3900 0.0580
28.2400 9.3966 0.0363
28.2600 9.4033 0.0360
28.2800 9.4100 0.0515
28.3000 9.4167 0.0475
28.3200 9.4234 0.0403
28.3400 9.4301 0.0438
28.3600 9.4368 0.0337
28.3800 9.4434 0.0513
28.4000 9.4500 0.0491
28.4200 9.4566 0.0375
28.4400 9.4633 0.0500
28.4600 9.4700 0.0491
28.4800 9.4767 0.0324
28.5000 9.4834 0.0415
28.5200 9.4901 0.0540
28.5400 9.4968 0.0436
28.5600 9.5034 0.0346
28.5800 9.5100 0.0456
28.6000 9.5167 0.0400
28.6200 9.5233 0.0462
28.6400 9.5300 0.0465
28.6600 9.5367 0.0385
28.6800 9.5434 0.0447
28.7000 9.5501 0.0277
28.7200 9.5568 0.0526
28.7400 9.5635 0.0611
28.7600 9.5701 0.0147
28.7800 9.5767 0.0428
28.8000 9.5833 0.0712
28.8200 9.5900 0.0136
28.8400 9.5967 0.0309
28.8600 9.6034 0.0732
28.8800 9.6101 0.0341
28.9000 9.6168 0.0211
28.9200 9.6234 0.0421
28.9400 9.6300 0.0470
28.9600 9.6366 0.0551
28.9800 9.6433 0.0362
29.0000 9.6500 0.0323
29.0200 9.6567 0.0524
29.0400 9.6633 0.0329
29.0600 9.6700 0.0435
29.0800 9.6767 0.0624
29.1000 9.6834 0.0234
29.1200 9.6900 0.0297
29.1400 9.6966 0.0527
29.1600 9.7033 0.0368
29.1800 9.7100 0.0473
29.2000 9.7167 0.0401
29.2200 9.7234 0.0290
29.2400 9.7300 0.0424
29.2600 9.7367 0.0473
29.2800 9.7434 0.0413
29.3000 9.7500 0.0393
29.3200 9.7567 0.0368
29.3400 9.7634 0.0436
29.3600 9.7701 0.0392
29.3800 9.7768 0.0388
29.4000 9.7834 0.0528
29.4200 9.7901 0.0253
29.4400 9.7968 0.0291
29.4600 9.8034 0.0611
29.4800 9.8100 0.0348
29.5000 9.8166 0.0319
29.5200 9.8233 0.0547
29.5400 9.8300 0.0356
29.5600 9.8368 0.0255
29.5800 9.8434 0.0526
29.6000 9.8501 0.0513
29.6200 9.8568 0.0250
29.6400 9.8634 0.0381
29.6600 9.8700 0.0427
29.6800 9.8767 0.0377
29.7000 9.8833 0.0402
29.7200 9.8900 0.0439
29.7400 9.8967 0.0352
29.7600 9.9034 0.0322
29.7800 9.9101 0.0379
29.8000 9.9168 0.0447
29.8200 9.9234 0.0458
29.8400 9.9300 0.0234
29.8600 9.9366 0.0299
29.8800 9.9432 0.0524
29.9000 9.9499 0.0329
29.9200 9.9567 0.0333
29.9400 9.9634 0.0454
29.9600 9.9700 0.0228
29.9800 9.9767 0.0337
30.0000 9.9834 0.0535
30.0200 9.9900 0.0268
30.0400 9.9966 0.0325
30.0600 10.0033 0.0492
30.0800 10.0100 0.0234
30.1000 10.0167 0.0369
30.1200 10.0234 0.0447
30.1400 10.0301 0.0242
30.1600 10.0368 0.0375
30.1800 10.0435 0.0391
30.2000 10.0501 0.0210
30.2200 10.0567 0.0453
30.2400 10.0634 0.0338
30.2600 10.0701 0.0284
30.2800 10.0767 0.0356
30.3000 10.0834 0.0305
30.3200 10.0901 0.0337
30.3400 10.0968 0.0379
30.3600 10.1034 0.0316
30.3800 10.1100 0.0266
30.4000 10.1166 0.0383
30.4200 10.1233 0.0315
30.4400 10.1300 0.0323
30.4600 10.1367 0.0321
30.4800 10.1434 0.0334
30.5000 10.1501 0.0302
30.5200 10.1567 0.0300
30.5400 10.1634 0.0409
30.5600 10.1700 0.0292
30.5800 10.1766 0.0247
30.6000 10.1833 0.0490
30.6200 10.1900 0.0228
30.6400 10.1967 0.0196
30.6600 10.2034 0.0481
30.6800 10.2101 0.0268
30.7000 10.2167 0.0232
30.7200 10.2234 0.0458
30.7400 10.2301 0.0260
30.7600 10.2367 0.0253
30.7800 10.2433 0.0411
30.8000 10.2500 0.0262
30.8200 10.2567 0.0321
30.8400 10.2634 0.0365
30.8600 10.2701 0.0232
30.8800 10.2768 0.0355
30.9000 10.2835 0.0366
30.9200 10.2901 0.0253
30.9400 10.2967 0.0314
30.9600 10.3033 0.0310
30.9800 10.3100 0.0289
31.0000 10.3167 0.0313
31.0200 10.3234 0.0344
31.0400 10.3301 0.0260
31.0600 10.3368 0.0270
31.0800 10.3434 0.0380
31.1000 10.3500 0.0315
31.1200 10.3566 0.0248
31.1400 10.3633 0.0372
31.1600 10.3700 0.0326
31.1800 10.3767 0.0219
31.2000 10.3834 0.0375
31.2200 10.3900 0.0315
31.2400 10.3967 0.0263
31.2600 10.4034 0.0368
31.2800 10.4101 0.0253
31.3000 10.4167 0.0289
31.3200 10.4233 0.0404
31.3400 10.4300 0.0291
31.3600 10.4367 0.0245
31.3800 10.4434 0.0389
31.4000 10.4500 0.0338
31.4200 10.4568 0.0213
31.4400 10.4634 0.0404
31.4600 10.4701 0.0303
31.4800 10.4767 0.0231
31.5000 10.4833 0.0380
31.5200 10.4900 0.0343
31.5400 10.4967 0.0200
31.5600 10.5035 0.0373
31.5800 10.5101 0.0316
31.6000 10.5168 0.0219
31.6200 10.5235 0.0348
31.6400 10.5301 0.0299
31.6600 10.5367 0.0241
31.6800 10.5433 0.0366
31.7000 10.5500 0.0303
31.7200 10.5567 0.0255
31.7400 10.5634 0.0360
31.7600 10.5701 0.0254
31.7800 10.5768 0.0261
31.8000 10.5835 0.0319
31.8200 10.5901 0.0272
31.8400 10.5967 0.0261
31.8600 10.6033 0.0341
31.8800 10.6100 0.0289
31.9000 10.6167 0.0273
31.9200 10.6234 0.0294
31.9400 10.6301 0.0291
31.9600 10.6368 0.0209
31.9800 10.6434 0.0293
32.0000 10.6500 0.0311
32.0200 10.6566 0.0269
32.0400 10.6632 0.0294
32.0600 10.6699 0.0298
32.0800 10.6767 0.0169
32.1000 10.6834 0.0316
32.1200 10.6901 0.0333
32.1400 10.6967 0.0241
32.1600 10.7034 0.0256
32.1800 10.7101 0.0240
32.2000 10.7167 0.0281
32.2200 10.7233 0.0322
32.2400 10.7300 0.0265
32.2600 10.7367 0.0232
32.2800 10.7434 0.0357
32.3000 10.7501 0.0220
32.3200 10.7568 0.0238
32.3400 10.7635 0.0331
32.3600 10.7702 0.0232
32.3800 10.7767 0.0197
32.4000 10.7834 0.0346
32.4200 10.7900 0.0269
32.4400 10.7967 0.0230
32.4600 10.8034 0.0248
32.4800 10.8101 0.0262
32.5000 10.8168 0.0271
32.5200 10.8234 0.0243
32.5400 10.8300 0.0219
32.5600 10.8366 0.0305
32.5800 10.8433 0.0257
32.6000 10.8500 0.0181
32.6200 10.8567 0.0327
32.6400 10.8634 0.0202
32.6600 10.8701 0.0235
32.6800 10.8767 0.0290
32.7000 10.8834 0.0207
32.7200 10.8901 0.0247
32.7400 10.8967 0.0293
32.7600 10.9033 0.0197
32.7800 10.9100 0.0288
32.8000 10.9167 0.0290
32.8200 10.9234 0.0130
32.8400 10.9300 0.0269
32.8600 10.9367 0.0316
32.8800 10.9434 0.0062
32.9000 10.9501 0.0335
32.9200 10.9567 0.0230
32.9400 10.9633 0.0088
32.9600 10.9700 0.0409
32.9800 10.9767 0.0244
33.0000 10.9834 0.0116
33.0200 10.9901 0.0333
33.0400 10.9968 0.0226
33.0600 11.0034 0.0089
33.0800 11.0101 0.0355
33.1000 11.0167 0.0197
33.1200 11.0233 0.0136
33.1400 11.0300 0.0404
33.1600 11.0367 0.0117
33.1800 11.0434 0.0107
33.2000 11.0501 0.0435
33.2200 11.0568 0.0023
33.2400 11.0635 0.0220
33.2600 11.0701 0.0379
33.2800 11.0767 0.0009
33.3000 11.0833 0.0196
33.3200 11.0900 0.0387
33.3400 11.0967 0.0036
33.3600 11.1034 0.0212
33.3800 11.1100 0.0329
33.4000 11.1167 0.0060
33.4200 11.1234 0.0215
33.4400 11.1301 0.0287
33.4600 11.1367 0.0080
33.4800 11.1433 0.0198
33.5000 11.1500 0.0272
33.5200 11.1567 0.0092
33.5400 11.1634 0.0226
33.5600 11.1701 0.0197
33.5800 11.1768 0.0108
33.6000 11.1834 0.0245
33.6200 11.1901 0.0192
33.6400 11.1967 0.0119
33.6600 11.2033 0.0239
33.6800 11.2100 0.0138
33.7000 11.2167 0.0155
33.7200 11.2234 0.0216
33.7400 11.2301 0.0178
33.7600 11.2368 0.0164
33.7800 11.2435 0.0126
33.8000 11.2501 0.0194
33.8200 11.2567 0.0198
33.8400 11.2633 0.0184
33.8600 11.2699 0.0174
33.8800 11.2767 0.0099
33.9000 11.2834 0.0140
33.9200 11.2901 0.0201
33.9400 11.2968 0.0148
33.9600 11.3035 0.0127
33.9800 11.3101 0.0194
34.0000 11.3167 0.0156
34.0200 11.3233 0.0097
34.0400 11.3300 0.0251
34.0600 11.3367 0.0197
34.0800 11.3434 0.0039
34.1000 11.3501 0.0186
34.1200 11.3568 0.0205
34.1400 11.3635 0.0044
34.1600 11.3701 0.0199
34.1800 11.3767 0.0158
34.2000 11.3833 0.0120
34.2200 11.3899 0.0235
34.2400 11.3967 0.0149
34.2600 11.4034 0.0065
34.2800 11.4101 0.0242
34.3000 11.4167 0.0122
34.3200 11.4234 0.0111
34.3400 11.4300 0.0236
34.3600 11.4367 0.0077
34.3800 11.4433 0.0167
34.4000 11.4500 0.0172
34.4200 11.4567 0.0075
34.4400 11.4634 0.0192
34.4600 11.4701 0.0222
34.4800 11.4768 0.0027
34.5000 11.4835 0.0159
34.5200 11.4901 0.0132
34.5400 11.4967 0.0098
34.5600 11.5033 0.0188
34.5800 11.5100 0.0151
34.6000 11.5167 0.0070
34.6200 11.5234 0.0140
34.6400 11.5301 0.0138
34.6600 11.5368 0.0139
34.6800 11.5434 0.0187
34.7000 11.5501 0.0093
34.7200 11.5567 0.0103
34.7400 11.5633 0.0193
34.7600 11.5700 0.0102
34.7800 11.5767 0.0113
34.8000 11.5834 0.0164
34.8200 11.5900 0.0065
34.8400 11.5967 0.0127
34.8600 11.6034 0.0200
34.8800 11.6100 0.0098
34.9000 11.6167 0.0078
34.9200 11.6233 0.0212
34.9400 11.6300 0.0063
34.9600 11.6366 0.0125
34.9800 11.6434 0.0172
35.0000 11.6500 0.0048
35.0200 11.6567 0.0144
35.0400 11.6634 0.0163
35.0600 11.6701 0.0074
35.0800 11.6767 0.0156
35.1000 11.6833 0.0128
35.1200 11.6900 0.0095
35.1400 11.6967 0.0170
35.1600 11.7034 0.0117
35.1800 11.7101 0.0053
35.2000 11.7168 0.0176
35.2200 11.7235 0.0157
35.2400 11.7301 0.0032
35.2600 11.7367 0.0177
35.2800 11.7433 0.0135
35.3000 11.7500 0.0049
35.3200 11.7567 0.0153
35.3400 11.7634 0.0163
35.3600 11.7701 0.0026
35.3800 11.7768 0.0135
35.4000 11.7834 0.0136
35.4200 11.7901 0.0059
35.4400 11.7967 0.0132
35.4600 11.8034 0.0163
35.4800 11.8100 0.0041
35.5000 11.8167 0.0159
35.5200 11.8234 0.0152
35.5400 11.8300 0.0041
35.5600 11.8367 0.0143
35.5800 11.8434 0.0149
35.6000 11.8501 0.0034
35.6200 11.8567 0.0163
35.6400 11.8633 0.0132
35.6600 11.8699 0.0060
35.6800 11.8766 0.0159
35.7000 11.8833 0.0150
35.7200 11.8900 0.0039
35.7400 11.8967 0.0123
35.7600 11.9034 0.0080
35.7800 11.9100 0.0015
35.8000 11.9167 0.0178
35.8200 11.9233 0.0066
35.8400 11.9300 0.0084
35.8600 11.9367 0.0121
35.8800 11.9434 0.0076
35.9000 11.9501 0.0082
35.9200 11.9567 0.0173
35.9400 11.9634 0.0094
35.9600 11.9701 0.0040
35.9800 11.9768 0.0160
36.0000 11.9834 0.0098
36.0200 11.9900 0.0031
36.0400 11.9967 0.0151
36.0600 12.0034 0.0086
36.0800 12.0101 0.0004
36.1000 12.0168 0.0194
36.1200 12.0235 0.0108
36.1400 12.0301 0.0009
36.1600 12.0367 0.0154
36.1800 12.0433 0.0072
36.2000 12.0500 0.0019
36.2200 12.0567 0.0202
36.2400 12.0634 0.0074
36.2600 12.0701 -0.0021
36.2800 12.0767 0.0182
36.3000 12.0834 0.0125
36.3200 12.0901 -0.0012
36.3400 12.0967 0.0169
36.3600 12.1033 0.0052
36.3800 12.1100 0.0001
36.4000 12.1167 0.0157
36.4200 12.1234 0.0102
36.4400 12.1300 0.0016
36.4600 12.1367 0.0118
36.4800 12.1434 0.0078
36.5000 12.1501 0.0042
36.5200 12.1567 0.0139
36.5400 12.1633 0.0070
36.5600 12.1700 0.0033
36.5800 12.1767 0.0089
36.6000 12.1834 0.0063
36.6200 12.1901 0.0029
36.6400 12.1968 0.0130
36.6600 12.2035 0.0085
36.6800 12.2102 -0.0005
36.7000 12.2168 0.0074
36.7200 12.2234 0.0131
36.7400 12.2300 -0.0008
36.7600 12.2367 0.0087
36.7800 12.2434 0.0092
36.8000 12.2501 0.0003
36.8200 12.2568 0.0065
36.8400 12.2634 0.0098
36.8600 12.2701 0.0021
36.8800 12.2767 0.0066
36.9000 12.2833 0.0102
36.9200 12.2900 0.0027
36.9400 12.2966 0.0068
36.9600 12.3034 0.0101
36.9800 12.3101 -0.0021
37.0000 12.3167 0.0033
37.0200 12.3234 0.0095
37.0400 12.3301 -0.0028
37.0600 12.3367 0.0067
37.0800 12.3433 0.0061
37.1000 12.3499 0.0014
37.1200 12.3566 0.0069
37.1400 12.3633 0.0104
37.1600 12.3700 -0.0031
37.1800 12.3767 0.0070
37.2000 12.3834 0.0100
37.2200 12.3901 -0.0018
37.2400 12.3968 0.0024
37.2600 12.4034 0.0096
37.2800 12.4100 -0.0014
37.3000 12.4167 0.0020
37.3200 12.4234 0.0080
37.3400 12.4301 0.0011
37.3600 12.4367 0.0006
37.3800 12.4434 0.0065
37.4000 12.4501 0.0024
37.4200 12.4568 0.0003
37.4400 12.4634 0.0074
37.4600 12.4700 -0.0033
37.4800 12.4767 0.0057
37.5000 12.4834 0.0062
37.5200 12.4901 -0.0005
37.5400 12.4967 0.0031
37.5600 12.5034 0.0088
37.5800 12.5101 -0.0005
37.6000 12.5168 -0.0001
37.6200 12.5234 0.0070
37.6400 12.5300 0.0040
37.6600 12.5366 0.0008
37.6800 12.5433 0.0046
37.7000 12.5500 0.0004
37.7200 12.5567 0.0046
37.7400 12.5634 0.0020
37.7600 12.5701 0.0003
37.7800 12.5767 0.0024
37.8000 12.5833 0.0045
37.8200 12.5899 0.0031
37.8400 12.5966 -0.0028
37.8600 12.6033 0.0040
37.8800 12.6100 0.0007
37.9000 12.6167 -0.0007
37.9200 12.6234 0.0051
37.9400 12.6301 0.0015
37.9600 12.6367 -0.0062
37.9800 12.6433 0.0072
38.0000 12.6500 0.0024
38.0200 12.6567 0.0005
38.0400 12.6634 0.0046
38.0600 12.6701 -0.0022
38.0800 12.6768 -0.0028
38.1000 12.6835 0.0025
38.1200 12.6902 -0.0043
38.1400 12.6968 0.0005
38.1600 12.7034 0.0037
38.1800 12.7100 -0.0053
38.2000 12.7166 -0.0012
38.2200 12.7234 0.0069
38.2400 12.7301 -0.0069
38.2600 12.7368 -0.0025
38.2800 12.7435 0.0027
38.3000 12.7501 -0.0058
38.3200 12.7568 -0.0018
38.3400 12.7634 -0.0022
38.3600 12.7700 0.0020
38.3800 12.7767 0.0004
38.4000 12.7834 -0.0023
38.4200 12.7901 -0.0071
38.4400 12.7967 0.0035
38.4600 12.8034 -0.0057
38.4800 12.8101 -0.0063
38.5000 12.8168 0.0002
38.5200 12.8234 -0.0060
38.5400 12.8300 -0.0016
38.5600 12.8366 -0.0014
38.5800 12.8433 -0.0090
38.6000 12.8500 0.0012
38.6200 12.8567 -0.0024
38.6400 12.8633 -0.0064
38.6600 12.8700 -0.0019
38.6800 12.8767 -0.0052
38.7000 12.8833 -0.0064
38.7200 12.8899 0.0011
38.7400 12.8966 -0.0029
38.7600 12.9033 -0.0105
38.7800 12.9101 0.0000
38.8000 12.9168 -0.0053
38.8200 12.9235 -0.0079
38.8400 12.9301 -0.0078
38.8600 12.9368 -0.0065
38.8800 12.9434 -0.0093
38.9000 12.9500 -0.0085
38.9200 12.9567 0.0007
38.9400 12.9634 -0.0069
38.9600 12.9701 -0.0129
38.9800 12.9768 -0.0001
39.0000 12.9835 -0.0088
39.0200 12.9901 -0.0096
39.0400 12.9968 -0.0035
39.0600 13.0034 -0.0069
39.0800 13.0100 -0.0093
39.1000 13.0167 -0.0003
39.1200 13.0233 -0.0124
39.1400 13.0300 -0.0132
39.1600 13.0367 0.0026
39.1800 13.0434 -0.0071
39.2000 13.0501 -0.0144
39.2200 13.0567 -0.0048
39.2400 13.0634 -0.0078
39.2600 13.0699 -0.0108
39.2800 13.0766 0.0019
39.3000 13.0833 -0.0080
39.3200 13.0900 -0.0146
39.3400 13.0967 -0.0010
39.3600 13.1034 -0.0014
39.3800 13.1101 -0.0168
39.4000 13.1168 -0.0008
39.4200 13.1234 -0.0045
39.4400 13.1300 -0.0102
39.4600 13.1367 -0.0079
39.4800 13.1434 -0.0066
39.5000 13.1501 -0.0056
39.5200 13.1567 -0.0074
39.5400 13.1634 -0.0097
39.5600 13.1701 -0.0046
39.5800 13.1768 -0.0056
39.6000 13.1834 -0.0129
39.6200 13.1900 -0.0015
39.6400 13.1966 -0.0058
39.6600 13.2033 -0.0154
39.6800 13.2101 0.0006
39.7000 13.2168 -0.0058
39.7200 13.2234 -0.0196
39.7400 13.2301 -0.0007
39.7600 13.2368 -0.0101
39.7800 13.2434 -0.0089
39.8000 13.2500 -0.0082
39.8200 13.2566 -0.0090
39.8400 13.2633 -0.0045
39.8600 13.2701 -0.0062
39.8800 13.2768 -0.0143
39.9000 13.2834 -0.0022
39.9200 13.2901 -0.0006
39.9400 13.2968 -0.0169
39.9600 13.3034 -0.0059
39.9800 13.3100 -0.0036
40.0000 13.3166 -0.0108
40.0200 13.3233 -0.0082
40.0400 13.3300 -0.0088
40.0600 13.3367 -0.0113
40.0800 13.3433 -0.0035
40.1000 13.3500 -0.0083
40.1200 13.3567 -0.0091
40.1400 13.3634 -0.0103
40.1600 13.3700 -0.0060
40.1800 13.3766 -0.0096
40.2000 13.3833 -0.0115
40.2200 13.3900 -0.0038
40.2400 13.3967 -0.0094
40.2600 13.4034 -0.0159
40.2800 13.4101 -0.0057
40.3000 13.4168 -0.0125
40.3200 13.4234 -0.0136
40.3400 13.4300 -0.0074
40.3600 13.4366 -0.0072
40.3800 13.4433 -0.0144
40.4000 13.4501 -0.0084
40.4200 13.4568 -0.0116
40.4400 13.4635 -0.0128
40.4600 13.4701 -0.0037
40.4800 13.4768 -0.0194
40.5000 13.4834 -0.0099
40.5200 13.4900 -0.0038
40.5400 13.4966 -0.0126
40.5600 13.5033 -0.0108
40.5800 13.5100 -0.0079
40.6000 13.5167 -0.0153
40.6200 13.5234 -0.0116
40.6400 13.5301 -0.0091
40.6600 13.5367 -0.0101
40.6800 13.5434 -0.0130
40.7000 13.5500 -0.0036
40.7200 13.5566 -0.0138
40.7400 13.5633 -0.0133
40.7600 13.5700 -0.0083
40.7800 13.5767 -0.0130
40.8000 13.5834 -0.0139
40.8200 13.5901 -0.0081
40.8400 13.5967 -0.0181
40.8600 13.6034 -0.0156
40.8800 13.6100 -0.0051
40.9000 13.6166 -0.0139
40.9200 13.6233 -0.0142
40.9400 13.6301 -0.0090
40.9600 13.6368 -0.0164
40.9800 13.6434 -0.0136
41.0000 13.6501 -0.0081
41.0200 13.6568 -0.0173
41.0400 13.6634 -0.0114
41.0600 13.6700 -0.0090
41.0800 13.6767 -0.0136
41.1000 13.6834 -0.0126
41.1200 13.6900 -0.0089
41.1400 13.6967 -0.0242
41.1600 13.7034 -0.0077
41.1800 13.7101 -0.0043
41.2000 13.7168 -0.0221
41.2200 13.7234 -0.0107
41.2400 13.7300 -0.0106
41.2600 13.7366 -0.0170
41.2800 13.7433 -0.0084
41.3000 13.7501 -0.0106
41.3200 13.7567 -0.0186
41.3400 13.7634 -0.0127
41.3600 13.7701 -0.0124
41.3800 13.7768 -0.0200
41.4000 13.7834 -0.0101
41.4200 13.7900 -0.0118
41.4400 13.7966 -0.0191
41.4600 13.8033 -0.0068
41.4800 13.8100 -0.0186
41.5000 13.8167 -0.0166
41.5200 13.8234 -0.0097
41.5400 13.8300 -0.0167
41.5600 13.8367 -0.0198
41.5800 13.8434 -0.0092
41.6000 13.8500 -0.0213
41.6200 13.8567 -0.0181
41.6400 13.8633 -0.0070
41.6600 13.8700 -0.0129
41.6800 13.8767 -0.0156
41.7000 13.8834 -0.0127
41.7200 13.8901 -0.0176
41.7400 13.8968 -0.0151
41.7600 13.9034 -0.0139
41.7800 13.9100 -0.0182
41.8000 13.9167 -0.0109
41.8200 13.9233 -0.0173
41.8400 13.9301 -0.0170
41.8600 13.9368 -0.0160
41.8800 13.9435 -0.0199
41.9000 13.9501 -0.0157
41.9200 13.9568 -0.0165
41.9400 13.9634 -0.0270
41.9600 13.9700 -0.0107
41.9800 13.9766 -0.0095
42.0000 13.9833 -0.0238
42.0200 13.9900 -0.0136
42.0400 13.9967 -0.0117
42.0600 14.0034 -0.0267
42.0800 14.0101 -0.0063
42.1000 14.0168 -0.0215
42.1200 14.0234 -0.0246
42.1400 14.0300 -0.0087
42.1600 14.0366 -0.0206
42.1800 14.0433 -0.0196
42.2000 14.0500 -0.0146
42.2200 14.0567 -0.0212
42.2400 14.0634 -0.0224
42.2600 14.0701 -0.0108
42.2800 14.0768 -0.0187
42.3000 14.0834 -0.0226
42.3200 14.0900 -0.0127
42.3400 14.0966 -0.0209
42.3600 14.1033 -0.0201
42.3800 14.1101 -0.0124
42.4000 14.1168 -0.0237
42.4200 14.1235 -0.0201
42.4400 14.1301 -0.0147
42.4600 14.1368 -0.0204
42.4800 14.1435 -0.0200
42.5000 14.1501 -0.0136
42.5200 14.1567 -0.0233
42.5400 14.1634 -0.0180
42.5600 14.1701 -0.0139
42.5800 14.1768 -0.0213
42.6000 14.1834 -0.0193
42.6200 14.1901 -0.0183
42.6400 14.1968 -0.0199
42.6600 14.2034 -0.0231
42.6800 14.2100 -0.0152
42.7000 14.2166 -0.0175
42.7200 14.2233 -0.0222
42.7400 14.2300 -0.0208
42.7600 14.2367 -0.0206
42.7800 14.2434 -0.0194
42.8000 14.2500 -0.0169
42.8200 14.2568 -0.0232
42.8400 14.2634 -0.0209
42.8600 14.2700 -0.0255
42.8800 14.2766 -0.0167
42.9000 14.2833 -0.0157
42.9200 14.2900 -0.0198
42.9400 14.2967 -0.0286
42.9600 14.3034 -0.0199
42.9800 14.3101 -0.0185
43.0000 14.3168 -0.0261
43.0200 14.3234 -0.0205
43.0400 14.3300 -0.0185
43.0600 14.3367 -0.0309
43.0800 14.3433 -0.0215
43.1000 14.3500 -0.0190
43.1200 14.3567 -0.0291
43.1400 14.3634 -0.0145
43.1600 14.3701 -0.0246
43.1800 14.3768 -0.0345
43.2000 14.3835 -0.0152
43.2200 14.3901 -0.0231
43.2400 14.3967 -0.0318
43.2600 14.4033 -0.0119
43.2800 14.4100 -0.0283
43.3000 14.4167 -0.0313
43.3200 14.4234 -0.0162
43.3400 14.4301 -0.0275
43.3600 14.4368 -0.0289
43.3800 14.4435 -0.0155
43.4000 14.4500 -0.0327
43.4200 14.4566 -0.0244
43.4400 14.4633 -0.0153
43.4600 14.4700 -0.0302
43.4800 14.4767 -0.0217
43.5000 14.4833 -0.0212
43.5200 14.4900 -0.0335
43.5400 14.4967 -0.0224
43.5600 14.5034 -0.0207
43.5800 14.5100 -0.0322
43.6000 14.5166 -0.0182
43.6200 14.5233 -0.0221
43.6400 14.5300 -0.0327
43.6600 14.5367 -0.0218
43.6800 14.5434 -0.0207
43.7000 14.5500 -0.0286
43.7200 14.5567 -0.0236
43.7400 14.5634 -0.0266
43.7600 14.5701 -0.0234
43.7800 14.5767 -0.0258
43.8000 14.5833 -0.0256
43.8200 14.5900 -0.0265
43.8400 14.5967 -0.0250
43.8600 14.6034 -0.0271
43.8800 14.6101 -0.0266
43.9000 14.6168 -0.0222
43.9200 14.6235 -0.0294
43.9400 14.6300 -0.0261
43.9600 14.6366 -0.0234
43.9800 14.6433 -0.0254
44.0000 14.6500 -0.0241
44.0200 14.6567 -0.0241
44.0400 14.6634 -0.0263
44.0600 14.6701 -0.0256
44.0800 14.6768 -0.0309
44.1000 14.6834 -0.0251
44.1200 14.6900 -0.0285
44.1400 14.6966 -0.0251
44.1600 14.7033 -0.0249
44.1800 14.7100 -0.0271
44.2000 14.7167 -0.0294
44.2200 14.7234 -0.0253
44.2400 14.7301 -0.0298
44.2600 14.7368 -0.0242
44.2800 14.7434 -0.0249
44.3000 14.7500 -0.0328
44.3200 14.7566 -0.0221
44.3400 14.7632 -0.0188
44.3600 14.7699 -0.0338
44.3800 14.7766 -0.0277
44.4000 14.7833 -0.0195
44.4200 14.7900 -0.0301
44.4400 14.7967 -0.0236
44.4600 14.8034 -0.0232
44.4800 14.8100 -0.0320
44.5000 14.8166 -0.0189
44.5200 14.8233 -0.0270
44.5400 14.8300 -0.0349
44.5600 14.8367 -0.0162
44.5800 14.8434 -0.0291
44.6000 14.8501 -0.0318
44.6200 14.8568 -0.0245
44.6400 14.8635 -0.0239
44.6600 14.8701 -0.0304
44.6800 14.8767 -0.0246
44.7000 14.8834 -0.0291
44.7200 14.8901 -0.0288
44.7400 14.8968 -0.0282
44.7600 14.9034 -0.0259
44.7800 14.9101 -0.0303
44.8000 14.9168 -0.0280
44.8200 14.9235 -0.0244
44.8400 14.9301 -0.0307
44.8600 14.9367 -0.0313
44.8800 14.9433 -0.0240
44.9000 14.9500 -0.0279
44.9200 14.9567 -0.0292
44.9400 14.9634 -0.0205
44.9600 14.9701 -0.0344
44.9800 14.9768 -0.0274
45.0000 14.9834 -0.0250
45.0200 14.9900 -0.0331
45.0400 14.9966 -0.0280
45.0600 15.0033 -0.0187
45.0800 15.0100 -0.0372
45.1000 15.0167 -0.0311
45.1200 15.0234 -0.0220
45.1400 15.0301 -0.0337
45.1600 15.0367 -0.0260
45.1800 15.0434 -0.0238
45.2000 15.0501 -0.0381
45.2200 15.0567 -0.0193
45.2400 15.0633 -0.0248
45.2600 15.0700 -0.0387
45.2800 15.0767 -0.0207
45.3000 15.0834 -0.0281
45.3200 15.0901 -0.0350
45.3400 15.0968 -0.0226
45.3600 15.1035 -0.0301
45.3800 15.1101 -0.0350
45.4000 15.1167 -0.0214
45.4200 15.1233 -0.0348
45.4400 15.1300 -0.0285
45.4600 15.1367 -0.0235
45.4800 15.1434 -0.0373
45.5000 15.1501 -0.0290
45.5200 15.1568 -0.0258
45.5400 15.1634 -0.0325
45.5600 15.1701 -0.0292
45.5800 15.1766 -0.0303
45.6000 15.1833 -0.0293
45.6200 15.1900 -0.0309
45.6400 15.1967 -0.0294
45.6600 15.2034 -0.0317
45.6800 15.2101 -0.0267
45.7000 15.2167 -0.0345
45.7200 15.2234 -0.0308
45.7400 15.2301 -0.0265
45.7600 15.2367 -0.0365
45.7800 15.2433 -0.0246
45.8000 15.2500 -0.0308
45.8200 15.2567 -0.0327
45.8400 15.2633 -0.0287
45.8600 15.2700 -0.0335
45.8800 15.2767 -0.0336
45.9000 15.2834 -0.0279
45.9200 15.2901 -0.0411
45.9400 15.2967 -0.0276
45.9600 15.3033 -0.0262
45.9800 15.3100 -0.0350
46.0000 15.3167 -0.0300
46.0200 15.3234 -0.0270
46.0400 15.3301 -0.0384
46.0600 15.3368 -0.0293
46.0800 15.3434 -0.0305
46.1000 15.3501 -0.0358
46.1200 15.3567 -0.0263
46.1400 15.3633 -0.0314
46.1600 15.3700 -0.0379
46.1800 15.3767 -0.0307
46.2000 15.3834 -0.0305
46.2200 15.3901 -0.0359
46.2400 15.3968 -0.0280
46.2600 15.4035 -0.0349
46.2800 15.4101 -0.0344
46.3000 15.4167 -0.0282
46.3200 15.4233 -0.0370
46.3400 15.4300 -0.0329
46.3600 15.4367 -0.0314
46.3800 15.4434 -0.0358
46.4000 15.4501 -0.0284
46.4200 15.4568 -0.0342
46.4400 15.4634 -0.0363
46.4600 15.4701 -0.0328
46.4800 15.4766 -0.0290
46.5000 15.4832 -0.0389
46.5200 15.4899 -0.0305
46.5400 15.4967 -0.0281
46.5600 15.5034 -0.0420
46.5800 15.5100 -0.0329
46.6000 15.5167 -0.0309
46.6200 15.5234 -0.0379
46.6400 15.5300 -0.0309
46.6600 15.5367 -0.0364
46.6800 15.5433 -0.0386
46.7000 15.5500 -0.0315
46.7200 15.5567 -0.0345
46.7400 15.5634 -0.0374
46.7600 15.5701 -0.0299
46.7800 15.5768 -0.0352
46.8000 15.5835 -0.0391
46.8200 15.5901 -0.0321
46.8400 15.5967 -0.0358
46.8600 15.6033 -0.0325
46.8800 15.6100 -0.0376
46.9000 15.6167 -0.0317
46.9200 15.6234 -0.0360
46.9400 15.6301 -0.0362
46.9600 15.6368 -0.0402
46.9800 15.6435 -0.0342
47.0000 15.6501 -0.0385
47.0200 15.6567 -0.0364
47.0400 15.6633 -0.0334
47.0600 15.6700 -0.0361
47.0800 15.6767 -0.0351
47.1000 15.6834 -0.0369
47.1200 15.6901 -0.0400
47.1400 15.6968 -0.0312
47.1600 15.7034 -0.0347
47.1800 15.7101 -0.0418
47.2000 15.7167 -0.0311
47.2200 15.7233 -0.0375
47.2400 15.7300 -0.0372
47.2600 15.7367 -0.0338
47.2800 15.7434 -0.0416
47.3000 15.7500 -0.0386
47.3200 15.7567 -0.0331
47.3400 15.7634 -0.0449
47.3600 15.7701 -0.0347
47.3800 15.7767 -0.0342
47.4000 15.7833 -0.0417
47.4200 15.7900 -0.0363
47.4400 15.7967 -0.0341
47.4600 15.8034 -0.0450
47.4800 15.8101 -0.0346
47.5000 15.8168 -0.0367
47.5200 15.8235 -0.0483
47.5400 15.8301 -0.0318
47.5600 15.8367 -0.0385
47.5800 15.8433 -0.0438
47.6000 15.8500 -0.0287
47.6200 15.8567 -0.0431
47.6400 15.8634 -0.0472
47.6600 15.8701 -0.0323
47.6800 15.8768 -0.0457
47.7000 15.8835 -0.0392
47.7200 15.8901 -0.0311
47.7400 15.8967 -0.0435
47.7600 15.9033 -0.0471
47.7800 15.9100 -0.0275
47.8000 15.9167 -0.0432
47.8200 15.9234 -0.0412
47.8400 15.9301 -0.0330
47.8600 15.9368 -0.0394
47.8800 15.9434 -0.0434
47.9000 15.9501 -0.0395
47.9200 15.9567 -0.0432
47.9400 15.9633 -0.0416
47.9600 15.9699 -0.0333
47.9800 15.9767 -0.0453
48.0000 15.9834 -0.0390
48.0200 15.9901 -0.0388
48.0400 15.9968 -0.0425
48.0600 16.0034 -0.0414
48.0800 16.0101 -0.0387
48.1000 16.0167 -0.0398
48.1200 16.0233 -0.0373
48.1400 16.0300 -0.0406
48.1600 16.0367 -0.0389
48.1800 16.0434 -0.0449
48.2000 16.0501 -0.0338
48.2200 16.0568 -0.0409
48.2400 16.0635 -0.0443
48.2600 16.0701 -0.0446
48.2800 16.0767 -0.0410
48.3000 16.0833 -0.0399
48.3200 16.0899 -0.0409
48.3400 16.0966 -0.0398
48.3600 16.1034 -0.0429
48.3800 16.1101 -0.0354
48.4000 16.1168 -0.0413
48.4200 16.1235 -0.0501
48.4400 16.1301 -0.0353
48.4600 16.1367 -0.0444
48.4800 16.1433 -0.0478
48.5000 16.1499 -0.0322
48.5200 16.1566 -0.0418
48.5400 16.1634 -0.0479
48.5600 16.1701 -0.0382
48.5800 16.1768 -0.0429
48.6000 16.1834 -0.0470
48.6200 16.1901 -0.0355
48.6400 16.1967 -0.0526
48.6600 16.2033 -0.0431
48.6800 16.2099 -0.0341
48.7000 16.2167 -0.0497
48.7200 16.2234 -0.0455
48.7400 16.2301 -0.0371
48.7600 16.2367 -0.0524
48.7800 16.2434 -0.0420
48.8000 16.2501 -0.0363
48.8200 16.2567 -0.0484
48.8400 16.2633 -0.0397
48.8600 16.2700 -0.0417
48.8800 16.2767 -0.0506
48.9000 16.2834 -0.0379
48.9200 16.2901 -0.0408
48.9400 16.2968 -0.0504
48.9600 16.3035 -0.0377
48.9800 16.3102 -0.0449
49.0000 16.3168 -0.0525
49.0200 16.3233 -0.0445
49.0400 16.3300 -0.0346
49.0600 16.3367 -0.0467
49.0800 16.3434 -0.0405
49.1000 16.3501 -0.0472
49.1200 16.3568 -0.0438
49.1400 16.3634 -0.0423
49.1600 16.3701 -0.0463
49.1800 16.3767 -0.0467
49.2000 16.3833 -0.0411
49.2200 16.3900 -0.0452
49.2400 16.3967 -0.0445
49.2600 16.4034 -0.0422
49.2800 16.4100 -0.0443
49.3000 16.4167 -0.0440
49.3200 16.4234 -0.0392
49.3400 16.4301 -0.0458
49.3600 16.4367 -0.0508
49.3800 16.4433 -0.0392
49.4000 16.4499 -0.0499
49.4200 16.4566 -0.0496
49.4400 16.4633 -0.0423
49.4600 16.4700 -0.0467
49.4800 16.4767 -0.0479
49.5000 16.4834 -0.0456
49.5200 16.4901 -0.0515
49.5400 16.4967 -0.0443
49.5600 16.5033 -0.0449
49.5800 16.5100 -0.0492
49.6000 16.5167 -0.0429
49.6200 16.5234 -0.0483
49.6400 16.5301 -0.0521
49.6600 16.5368 -0.0390
49.6800 16.5434 -0.0518
49.7000 16.5501 -0.0520
49.7200 16.5567 -0.0435
49.7400 16.5633 -0.0522
49.7600 16.5700 -0.0487
49.7800 16.5767 -0.0416
49.8000 16.5834 -0.0529
49.8200 16.5901 -0.0489
49.8400 16.5968 -0.0418
49.8600 16.6034 -0.0545
49.8800 16.6101 -0.0437
49.9000 16.6168 -0.0467
49.9200 16.6234 -0.0561
49.9400 16.6300 -0.0443
49.9600 16.6367 -0.0445
49.9800 16.6434 -0.0590
50.0000 16.6501 -0.0429
50.0200 16.6568 -0.0491
50.0400 16.6634 -0.0548
50.0600 16.6701 -0.0448
50.0800 16.6767 -0.0504
50.1000 16.6833 -0.0559
50.1200 16.6899 -0.0414
50.1400 16.6966 -0.0514
50.1600 16.7033 -0.0534
50.1800 16.7100 -0.0440
50.2000 16.7167 -0.0563
50.2200 16.7234 -0.0501
50.2400 16.7301 -0.0475
50.2600 16.7367 -0.0554
50.2800 16.7433 -0.0480
50.3000 16.7500 -0.0477
50.3200 16.7566 -0.0567
50.3400 16.7634 -0.0422
50.3600 16.7701 -0.0541
50.3800 16.7767 -0.0537
50.4000 16.7834 -0.0455
50.4200 16.7901 -0.0553
50.4400 16.7967 -0.0537
50.4600 16.8034 -0.0452
50.4800 16.8100 -0.0551
50.5000 16.8167 -0.0441
50.5200 16.8234 -0.0501
50.5400 16.8301 -0.0588
50.5600 16.8368 -0.0469
50.5800 16.8435 -0.0489
50.6000 16.8501 -0.0623
50.6200 16.8568 -0.0456
50.6400 16.8633 -0.0487
50.6600 16.8700 -0.0597
50.6800 16.8767 -0.0483
50.7000 16.8834 -0.0548
50.7200 16.8901 -0.0565
50.7400 16.8968 -0.0481
50.7600 16.9034 -0.0552
50.7800 16.9101 -0.0639
50.8000 16.9167 -0.0415
50.8200 16.9233 -0.0582
50.8400 16.9300 -0.0569
50.8600 16.9366 -0.0460
50.8800 16.9433 -0.0613
50.9000 16.9500 -0.0552
50.9200 16.9567 -0.0479
50.9400 16.9634 -0.0624
50.9600 16.9700 -0.0590
50.9800 16.9767 -0.0469
51.0000 16.9833 -0.0618
51.0200 16.9899 -0.0576
51.0400 16.9966 -0.0458
51.0600 17.0033 -0.0665
51.0800 17.0101 -0.0522
51.1000 17.0168 -0.0493
51.1200 17.0235 -0.0646
51.1400 17.0301 -0.0549
51.1600 17.0367 -0.0515
51.1800 17.0434 -0.0632
51.2000 17.0500 -0.0540
51.2200 17.0567 -0.0479
51.2400 17.0634 -0.0687
51.2600 17.0701 -0.0539
51.2800 17.0768 -0.0563
51.3000 17.0834 -0.0612
51.3200 17.0901 -0.0544
51.3400 17.0967 -0.0596
51.3600 17.1033 -0.0675
51.3800 17.1100 -0.0507
51.4000 17.1166 -0.0567
51.4200 17.1233 -0.0641
51.4400 17.1300 -0.0555
51.4600 17.1367 -0.0609
51.4800 17.1434 -0.0603
51.5000 17.1501 -0.0533
51.5200 17.1568 -0.0633
51.5400 17.1634 -0.0595
51.5600 17.1699 -0.0547
51.5800 17.1766 -0.0644
51.6000 17.1833 -0.0580
51.6200 17.1901 -0.0554
51.6400 17.1968 -0.0617
51.6600 17.2034 -0.0604
51.6800 17.2101 -0.0540
51.7000 17.2167 -0.0625
51.7200 17.2233 -0.0518
51.7400 17.2300 -0.0605
51.7600 17.2366 -0.0578
51.7800 17.2434 -0.0567
51.8000 17.2501 -0.0624
51.8200 17.2567 -0.0579
51.8400 17.2634 -0.0562
51.8600 17.2701 -0.0641
51.8800 17.2768 -0.0590
51.9000 17.2834 -0.0592
51.9200 17.2900 -0.0606
51.9400 17.2967 -0.0593
51.9600 17.3034 -0.0618
51.9800 17.3101 -0.0637
52.0000 17.3168 -0.0536
52.0200 17.3235 -0.0582
52.0400 17.3301 -0.0639
52.0600 17.3368 -0.0542
52.0800 17.3434 -0.0642
52.1000 17.3500 -0.0639
52.1200 17.3566 -0.0504
52.1400 17.3633 -0.0594
52.1600 17.3701 -0.0667
52.1800 17.3768 -0.0547
52.2000 17.3834 -0.0589
52.2200 17.3901 -0.0632
52.2400 17.3967 -0.0546
52.2600 17.4033 -0.0555
52.2800 17.4099 -0.0675
52.3000 17.4166 -0.0507
52.3200 17.4233 -0.0551
52.3400 17.4300 -0.0735
52.3600 17.4367 -0.0479
52.3800 17.4433 -0.0546
52.4000 17.4500 -0.0709
52.4200 17.4567 -0.0528
52.4400 17.4634 -0.0592
52.4600 17.4700 -0.0657
52.4800 17.4767 -0.0469
52.5000 17.4834 -0.0603
52.5200 17.4901 -0.0645
52.5400 17.4968 -0.0481
52.5600 17.5035 -0.0621
52.5800 17.5101 -0.0691
52.6000 17.5168 -0.0506
52.6200 17.5234 -0.0652
52.6400 17.5300 -0.0575
52.6600 17.5366 -0.0539
52.6800 17.5434 -0.0674
52.7000 17.5501 -0.0579
52.7200 17.5568 -0.0494
52.7400 17.5635 -0.0700
52.7600 17.5701 -0.0600
52.7800 17.5768 -0.0519
52.8000 17.5834 -0.0689
52.8200 17.5900 -0.0562
52.8400 17.5967 -0.0542
52.8600 17.6034 -0.0703
52.8800 17.6101 -0.0572
52.9000 17.6167 -0.0580
52.9200 17.6234 -0.0696
52.9400 17.6301 -0.0568
52.9600 17.6368 -0.0603
52.9800 17.6434 -0.0708
53.0000 17.6500 -0.0565
53.0200 17.6566 -0.0551
53.0400 17.6633 -0.0712
53.0600 17.6700 -0.0608
53.0800 17.6767 -0.0610
53.1000 17.6834 -0.0628
53.1200 17.6900 -0.0586
53.1400 17.6967 -0.0613
53.1600 17.7033 -0.0596
53.1800 17.7099 -0.0650
53.2000 17.7166 -0.0644
53.2200 17.7234 -0.0588
53.2400 17.7301 -0.0651
53.2600 17.7368 -0.0586
53.2800 17.7434 -0.0641
53.3000 17.7501 -0.0681
53.3200 17.7568 -0.0610
53.3400 17.7634 -0.0653
53.3600 17.7700 -0.0684
53.3800 17.7767 -0.0597
53.4000 17.7834 -0.0614
53.4200 17.7901 -0.0758
53.4400 17.7968 -0.0590
53.4600 17.8035 -0.0614
53.4800 17.8101 -0.0700
53.5000 17.8168 -0.0628
53.5200 17.8234 -0.0621
53.5400 17.8300 -0.0692
53.5600 17.8366 -0.0592
53.5800 17.8433 -0.0656
53.6000 17.8500 -0.0708
53.6200 17.8567 -0.0582
53.6400 17.8634 -0.0640
53.6600 17.8701 -0.0685
53.6800 17.8768 -0.0608
53.7000 17.8834 -0.0732
53.7200 17.8900 -0.0670
53.7400 17.8966 -0.0598
53.7600 17.9033 -0.0676
53.7800 17.9100 -0.0680
53.8000 17.9167 -0.0661
53.8200 17.9234 -0.0706
53.8400 17.9301 -0.0706
53.8600 17.9367 -0.0635
53.8800 17.9434 -0.0686
53.9000 17.9500 -0.0643
53.9200 17.9566 -0.0660
53.9400 17.9634 -0.0653
53.9600 17.9701 -0.0665
53.9800 17.9767 -0.0660
54.0000 17.9834 -0.0694
54.0200 17.9901 -0.0678
54.0400 17.9968 -0.0676
54.0600 18.0034 -0.0658
54.0800 18.0100 -0.0663
54.1000 18.0166 -0.0689
54.1200 18.0233 -0.0668
54.1400 18.0300 -0.0643
54.1600 18.0367 -0.0735
54.1800 18.0434 -0.0678
54.2000 18.0501 -0.0649
54.2200 18.0568 -0.0750
54.2400 18.0634 -0.0667
54.2600 18.0700 -0.0675
54.2800 18.0766 -0.0665
54.3000 18.0833 -0.0677
54.3200 18.0901 -0.0681
54.3400 18.0968 -0.0715
54.3600 18.1034 -0.0657
54.3800 18.1101 -0.0684
54.4000 18.1168 -0.0712
54.4200 18.1234 -0.0646
54.4400 18.1300 -0.0687
54.4600 18.1366 -0.0699
54.4800 18.1433 -0.0651
54.5000 18.1500 -0.0687
54.5200 18.1567 -0.0667
54.5400 18.1634 -0.0710
54.5600 18.1701 -0.0665
54.5800 18.1767 -0.0712
54.6000 18.1834 -0.0687
54.6200 18.1900 -0.0666
54.6400 18.1966 -0.0738
54.6600 18.2033 -0.0611
54.6800 18.2100 -0.0693
54.7000 18.2168 -0.0698
54.7200 18.2235 -0.0698
54.7400 18.2302 -0.0692
54.7600 18.2368 -0.0714
54.7800 18.2434 -0.0683
54.8000 18.2500 -0.0702
54.8200 18.2566 -0.0676
54.8400 18.2633 -0.0678
54.8600 18.2701 -0.0731
54.8800 18.2768 -0.0750
54.9000 18.2834 -0.0635
54.9200 18.2901 -0.0757
54.9400 18.2968 -0.0694
54.9600 18.3034 -0.0701
54.9800 18.3100 -0.0738
55.0000 18.3166 -0.0704
55.0200 18.3233 -0.0711
55.0400 18.3300 -0.0717
55.0600 18.3367 -0.0698
55.0800 18.3434 -0.0742
55.1000 18.3501 -0.0735
55.1200 18.3568 -0.0690
55.1400 18.3634 -0.0744
55.1600 18.3700 -0.0673
55.1800 18.3766 -0.0684
55.2000 18.3833 -0.0766
55.2200 18.3900 -0.0695
55.2400 18.3967 -0.0713
55.2600 18.4034 -0.0752
55.2800 18.4100 -0.0641
55.3000 18.4167 -0.0782
55.3200 18.4234 -0.0742
55.3400 18.4300 -0.0674
55.3600 18.4366 -0.0712
55.3800 18.4433 -0.0740
55.4000 18.4501 -0.0675
55.4200 18.4568 -0.0776
55.4400 18.4634 -0.0748
55.4600 18.4701 -0.0661
55.4800 18.4768 -0.0817
55.5000 18.4834 -0.0740
55.5200 18.4901 -0.0599
55.5400 18.4967 -0.0795
55.5600 18.5034 -0.0777
55.5800 18.5101 -0.0646
55.6000 18.5167 -0.0784
55.6200 18.5234 -0.0716
55.6400 18.5301 -0.0681
55.6600 18.5368 -0.0795
55.6800 18.5434 -0.0816
55.7000 18.5500 -0.0656
55.7200 18.5566 -0.0801
55.7400 18.5633 -0.0728
55.7600 18.5700 -0.0681
55.7800 18.5767 -0.0813
55.8000 18.5834 -0.0719
55.8200 18.5901 -0.0723
55.8400 18.5968 -0.0840
55.8600 18.6034 -0.0678
55.8800 18.6100 -0.0763
55.9000 18.6166 -0.0875
55.9200 18.6233 -0.0642
55.9400 18.6300 -0.0773
55.9600 18.6367 -0.0841
55.9800 18.6434 -0.0672
56.0000 18.6501 -0.0792
56.0200 18.6568 -0.0828
56.0400 18.6634 -0.0623
56.0600 18.6700 -0.0823
56.0800 18.6767 -0.0831
56.1000 18.6833 -0.0691
56.1200 18.6900 -0.0824
56.1400 18.6967 -0.0771
56.1600 18.7034 -0.0706
56.1800 18.7101 -0.0899
56.2000 18.7168 -0.0696
56.2200 18.7235 -0.0772
56.2400 18.7300 -0.0900
56.2600 18.7366 -0.0691
56.2800 18.7433 -0.0769
56.3000 18.7500 -0.0885
56.3200 18.7567 -0.0673
56.3400 18.7634 -0.0795
56.3600 18.7701 -0.0877
56.3800 18.7768 -0.0698
56.4000 18.7834 -0.0899
56.4200 18.7900 -0.0830
56.4400 18.7967 -0.0687
56.4600 18.8034 -0.0921
56.4800 18.8101 -0.0788
56.5000 18.8167 -0.0746
56.5200 18.8234 -0.0932
56.5400 18.8300 -0.0723
56.5600 18.8367 -0.0760
56.5800 18.8434 -0.0899
56.6000 18.8500 -0.0814
56.6200 18.8566 -0.0756
56.6400 18.8633 -0.0885
56.6600 18.8700 -0.0778
56.6800 18.8767 -0.0805
56.7000 18.8834 -0.0893
56.7200 18.8901 -0.0760
56.7400 18.8968 -0.0809
56.7600 18.9034 -0.0821
56.7800 18.9100 -0.0796
56.8000 18.9166 -0.0849
56.8200 18.9233 -0.0792
56.8400 18.9300 -0.0819
56.8600 18.9368 -0.0837
56.8800 18.9435 -0.0793
56.9000 18.9501 -0.0871
56.9200 18.9568 -0.0868
56.9400 18.9634 -0.0781
56.9600 18.9700 -0.0843
56.9800 18.9766 -0.0869
57.0000 18.9833 -0.0702
57.0200 18.9901 -0.0874
57.0400 18.9968 -0.0868
57.0600 19.0034 -0.0728
57.0800 19.0101 -0.0819
57.1000 19.0168 -0.0876
57.1200 19.0234 -0.0755
57.1400 19.0300 -0.0827
57.1600 19.0366 -0.0847
57.1800 19.0433 -0.0754
57.2000 19.0500 -0.0787
57.2200 19.0567 -0.0861
57.2400 19.0634 -0.0786
57.2600 19.0701 -0.0799
57.2800 19.0768 -0.0842
57.3000 19.0834 -0.0787
57.3200 19.0900 -0.0858
57.3400 19.0966 -0.0816
57.3600 19.1033 -0.0791
57.3800 19.1100 -0.0799
57.4000 19.1167 -0.0858
57.4200 19.1234 -0.0838
57.4400 19.1301 -0.0787
57.4600 19.1367 -0.0798
57.4800 19.1434 -0.0870
57.5000 19.1500 -0.0796
57.5200 19.1567 -0.0778
57.5400 19.1633 -0.0809
57.5600 19.1700 -0.0863
57.5800 19.1768 -0.0758
57.6000 19.1834 -0.0845
57.6200 19.1901 -0.0819
57.6400 19.1968 -0.0800
57.6600 19.2035 -0.0876
57.6800 19.2101 -0.0829
57.7000 19.2167 -0.0817
57.7200 19.2234 -0.0794
57.7400 19.2300 -0.0850
57.7600 19.2367 -0.0848
57.7800 19.2434 -0.0850
57.8000 19.2501 -0.0805
57.8200 19.2568 -0.0905
57.8400 19.2635 -0.0847
57.8600 19.2701 -0.0823
57.8800 19.2766 -0.0858
57.9000 19.2833 -0.0808
57.9200 19.2899 -0.0832
57.9400 19.2966 -0.0919
57.9600 19.3033 -0.0834
57.9800 19.3100 -0.0871
58.0000 19.3167 -0.0839
58.0200 19.3234 -0.0845
58.0400 19.3300 -0.0881
58.0600 19.3366 -0.0869
58.0800 19.3433 -0.0848
58.1000 19.3500 -0.0862
58.1200 19.3567 -0.0862
58.1400 19.3634 -0.0846
58.1600 19.3700 -0.0864
58.1800 19.3767 -0.0868
58.2000 19.3834 -0.0881
58.2200 19.3900 -0.0852
58.2400 19.3967 -0.0866
58.2600 19.4033 -0.0843
58.2800 19.4100 -0.0853
58.3000 19.4167 -0.0871
58.3200 19.4234 -0.0901
58.3400 19.4301 -0.0827
58.3600 19.4368 -0.0916
58.3800 19.4435 -0.0870
58.4000 19.4501 -0.0853
58.4200 19.4567 -0.0905
58.4400 19.4633 -0.0840
58.4600 19.4700 -0.0840
58.4800 19.4767 -0.0917
58.5000 19.4834 -0.0856
58.5200 19.4901 -0.0870
58.5400 19.4968 -0.0880
58.5600 19.5034 -0.0934
58.5800 19.5101 -0.0874
58.6000 19.5167 -0.0891
58.6200 19.5233 -0.0872
58.6400 19.5300 -0.0865
58.6600 19.5367 -0.0900
58.6800 19.5434 -0.0893
58.7000 19.5501 -0.0831
58.7200 19.5568 -0.0890
58.7400 19.5634 -0.0950
58.7600 19.5700 -0.0790
58.7800 19.5766 -0.0885
58.8000 19.5833 -0.0914
58.8200 19.5899 -0.0895
58.8400 19.5967 -0.0837
58.8600 19.6034 -0.0880
58.8800 19.6100 -0.0951
58.9000 19.6167 -0.0869
58.9200 19.6234 -0.0887
58.9400 19.6300 -0.0923
58.9600 19.6366 -0.0893
58.9800 19.6433 -0.0883
59.0000 19.6500 -0.0889
59.0200 19.6567 -0.0941
59.0400 19.6634 -0.0911
59.0600 19.6701 -0.0927
59.0800 19.6768 -0.0899
59.1000 19.6835 -0.0942
59.1200 19.6901 -0.0916
59.1400 19.6967 -0.0949
59.1600 19.7034 -0.0972
59.1800 19.7100 -0.0918
59.2000 19.7167 -0.0926
59.2200 19.7234 -0.0953
59.2400 19.7301 -0.0981
59.2600 19.7368 -0.0902
59.2800 19.7434 -0.0999
59.3000 19.7500 -0.1101
