Raw Data
Time Displacement Force
(s) (mm) (N)
0.0000 0.0000 -0.1652
0.0200 0.0000 -0.1450
0.0400 0.0008 -0.1080
0.0600 0.0040 -0.1004
0.0800 0.0095 -0.1307
0.1000 0.0152 -0.1395
0.1200 0.0211 -0.1041
0.1400 0.0277 -0.1002
0.1600 0.0350 -0.1132
0.1800 0.0425 -0.0882
0.2000 0.0497 -0.0796
0.2200 0.0565 -0.0718
0.2400 0.0632 -0.0391
0.2600 0.0699 -0.0138
0.2800 0.0766 -0.0075
0.3000 0.0833 0.0254
0.3200 0.0900 0.0368
0.3400 0.0967 0.0429
0.3600 0.1034 0.0718
0.3800 0.1100 0.0717
0.4000 0.1167 0.0878
0.4200 0.1234 0.1090
0.4400 0.1301 0.1081
0.4600 0.1367 0.1132
0.4800 0.1434 0.1408
0.5000 0.1501 0.1386
0.5200 0.1568 0.1361
0.5400 0.1634 0.1494
0.5600 0.1700 0.1424
0.5800 0.1767 0.1389
0.6000 0.1833 0.1510
0.6200 0.1901 0.1400
0.6400 0.1968 0.1472
0.6600 0.2034 0.1500
0.6800 0.2101 0.1423
0.7000 0.2168 0.1509
0.7200 0.2234 0.1498
0.7400 0.2300 0.1485
0.7600 0.2367 0.1587
0.7800 0.2433 0.1518
0.8000 0.2500 0.1474
0.8200 0.2567 0.1621
0.8400 0.2634 0.1538
0.8600 0.2701 0.1548
0.8800 0.2768 0.1609
0.9000 0.2834 0.1558
0.9200 0.2900 0.1641
0.9400 0.2966 0.1673
0.9600 0.3033 0.1587
0.9800 0.3100 0.1706
1.0000 0.3167 0.1621
1.0200 0.3234 0.1626
1.0400 0.3300 0.1727
1.0600 0.3367 0.1658
1.0800 0.3433 0.1661
1.1000 0.3500 0.1732
1.1200 0.3566 0.1692
1.1400 0.3633 0.1682
1.1600 0.3701 0.1732
1.1800 0.3768 0.1665
1.2000 0.3834 0.1727
1.2200 0.3901 0.1745
1.2400 0.3968 0.1650
1.2600 0.4035 0.1721
1.2800 0.4101 0.1750
1.3000 0.4167 0.1658
1.3200 0.4234 0.1753
1.3400 0.4301 0.1699
1.3600 0.4368 0.1656
1.3800 0.4434 0.1791
1.4000 0.4501 0.1723
1.4200 0.4568 0.1679
1.4400 0.4634 0.1774
1.4600 0.4700 0.1717
1.4800 0.4766 0.1742
1.5000 0.4833 0.1746
1.5200 0.4900 0.1668
1.5400 0.4967 0.1724
1.5600 0.5034 0.1748
1.5800 0.5100 0.1673
1.6000 0.5167 0.1742
1.6200 0.5233 0.1733
1.6400 0.5299 0.1661
1.6600 0.5366 0.1755
1.6800 0.5433 0.1677
1.7000 0.5500 0.1690
1.7200 0.5567 0.1720
1.7400 0.5634 0.1637
1.7600 0.5701 0.1696
1.7800 0.5767 0.1776
1.8000 0.5834 0.1578
1.8200 0.5901 0.1674
1.8400 0.5967 0.1694
1.8600 0.6034 0.1591
1.8800 0.6101 0.1684
1.9000 0.6167 0.1718
1.9200 0.6234 0.1580
1.9400 0.6301 0.1659
1.9600 0.6368 0.1646
1.9800 0.6435 0.1553
2.0000 0.6500 0.1647
2.0200 0.6566 0.1681
2.0400 0.6633 0.1554
2.0600 0.6700 0.1631
2.0800 0.6768 0.1649
2.1000 0.6834 0.1558
2.1200 0.6901 0.1619
2.1400 0.6968 0.1573
2.1600 0.7034 0.1560
2.1800 0.7100 0.1625
2.2000 0.7167 0.1588
2.2200 0.7233 0.1568
2.2400 0.7300 0.1623
2.2600 0.7367 0.1571
2.2800 0.7434 0.1562
2.3000 0.7500 0.1621
2.3200 0.7567 0.1574
2.3400 0.7634 0.1536
2.3600 0.7700 0.1619
2.3800 0.7766 0.1550
2.4000 0.7833 0.1554
2.4200 0.7900 0.1591
2.4400 0.7967 0.1546
2.4600 0.8034 0.1540
2.4800 0.8101 0.1607
2.5000 0.8168 0.1526
2.5200 0.8234 0.1489
2.5400 0.8300 0.1589
2.5600 0.8367 0.1535
2.5800 0.8433 0.1570
2.6000 0.8500 0.1561
2.6200 0.8567 0.1532
2.6400 0.8634 0.1529
2.6600 0.8701 0.1561
2.6800 0.8768 0.1476
2.7000 0.8834 0.1549
2.7200 0.8900 0.1553
2.7400 0.8967 0.1513
2.7600 0.9034 0.1521
2.7800 0.9101 0.1570
2.8000 0.9168 0.1483
2.8200 0.9235 0.1589
2.8400 0.9301 0.1504
2.8600 0.9368 0.1496
2.8800 0.9434 0.1589
2.9000 0.9501 0.1498
2.9200 0.9567 0.1496
2.9400 0.9633 0.1582
2.9600 0.9700 0.1515
2.9800 0.9767 0.1476
3.0000 0.9834 0.1554
3.0200 0.9901 0.1525
3.0400 0.9968 0.1481
3.0600 1.0034 0.1508
3.0800 1.0100 0.1569
3.1000 1.0166 0.1465
3.1200 1.0232 0.1579
3.1400 1.0300 0.1544
3.1600 1.0367 0.1485
3.1800 1.0434 0.1544
3.2000 1.0501 0.1523
3.2200 1.0568 0.1480
3.2400 1.0634 0.1559
3.2600 1.0700 0.1523
3.2800 1.0767 0.1501
3.3000 1.0833 0.1559
3.3200 1.0900 0.1477
3.3400 1.0967 0.1517
3.3600 1.1034 0.1575
3.3800 1.1101 0.1476
3.4000 1.1168 0.1500
3.4200 1.1235 0.1556
3.4400 1.1301 0.1438
3.4600 1.1367 0.1542
3.4800 1.1433 0.1524
3.5000 1.1500 0.1432
3.5200 1.1567 0.1513
3.5400 1.1634 0.1548
3.5600 1.1701 0.1431
3.5800 1.1768 0.1525
3.6000 1.1834 0.1526
3.6200 1.1900 0.1449
3.6400 1.1966 0.1555
3.6600 1.2033 0.1474
3.6800 1.2100 0.1462
3.7000 1.2167 0.1555
3.7200 1.2234 0.1437
3.7400 1.2301 0.1471
3.7600 1.2367 0.1569
3.7800 1.2434 0.1396
3.8000 1.2501 0.1471
3.8200 1.2567 0.1520
3.8400 1.2633 0.1442
3.8600 1.2700 0.1499
3.8800 1.2767 0.1534
3.9000 1.2834 0.1395
3.9200 1.2900 0.1551
3.9400 1.2967 0.1467
3.9600 1.3034 0.1425
3.9800 1.3101 0.1551
4.0000 1.3167 0.1446
4.0200 1.3233 0.1455
4.0400 1.3300 0.1536
4.0600 1.3367 0.1399
4.0800 1.3434 0.1481
4.1000 1.3501 0.1504
4.1200 1.3568 0.1388
4.1400 1.3634 0.1525
4.1600 1.3701 0.1507
4.1800 1.3767 0.1389
4.2000 1.3833 0.1567
4.2200 1.3900 0.1486
4.2400 1.3968 0.1338
4.2600 1.4035 0.1605
4.2800 1.4101 0.1397
4.3000 1.4168 0.1424
4.3200 1.4235 0.1581
4.3400 1.4301 0.1351
4.3600 1.4367 0.1441
4.3800 1.4433 0.1622
4.4000 1.4500 0.1358
4.4200 1.4567 0.1474
4.4400 1.4634 0.1558
4.4600 1.4700 0.1384
4.4800 1.4767 0.1491
4.5000 1.4834 0.1541
4.5200 1.4901 0.1353
4.5400 1.4967 0.1562
4.5600 1.5033 0.1532
4.5800 1.5100 0.1371
4.6000 1.5167 0.1578
4.6200 1.5234 0.1469
4.6400 1.5301 0.1361
4.6600 1.5368 0.1572
4.6800 1.5434 0.1466
4.7000 1.5501 0.1333
4.7200 1.5567 0.1580
4.7400 1.5633 0.1479
4.7600 1.5700 0.1355
4.7800 1.5768 0.1559
4.8000 1.5835 0.1437
4.8200 1.5901 0.1392
4.8400 1.5968 0.1553
4.8600 1.6035 0.1418
4.8800 1.6101 0.1436
4.9000 1.6167 0.1492
4.9200 1.6233 0.1447
4.9400 1.6300 0.1425
4.9600 1.6367 0.1509
4.9800 1.6434 0.1464
5.0000 1.6501 0.1431
5.0200 1.6568 0.1511
5.0400 1.6635 0.1453
5.0600 1.6701 0.1418
5.0800 1.6767 0.1467
5.1000 1.6833 0.1457
5.1200 1.6900 0.1445
5.1400 1.6967 0.1462
5.1600 1.7034 0.1506
5.1800 1.7101 0.1416
5.2000 1.7168 0.1431
5.2200 1.7235 0.1498
5.2400 1.7301 0.1357
5.2600 1.7367 0.1459
5.2800 1.7433 0.1488
5.3000 1.7500 0.1431
5.3200 1.7567 0.1425
5.3400 1.7634 0.1493
5.3600 1.7701 0.1398
5.3800 1.7767 0.1475
5.4000 1.7834 0.1469
5.4200 1.7900 0.1352
5.4400 1.7967 0.1509
5.4600 1.8033 0.1432
5.4800 1.8100 0.1418
5.5000 1.8167 0.1467
5.5200 1.8234 0.1467
5.5400 1.8301 0.1413
5.5600 1.8368 0.1431
5.5800 1.8435 0.1438
5.6000 1.8501 0.1423
5.6200 1.8567 0.1400
5.6400 1.8633 0.1483
5.6600 1.8700 0.1430
5.6800 1.8767 0.1400
5.7000 1.8834 0.1429
5.7200 1.8901 0.1415
5.7400 1.8968 0.1402
5.7600 1.9034 0.1420
5.7800 1.9101 0.1380
5.8000 1.9167 0.1403
5.8200 1.9233 0.1473
5.8400 1.9300 0.1366
5.8600 1.9367 0.1436
5.8800 1.9434 0.1459
5.9000 1.9501 0.1326
5.9200 1.9567 0.1390
5.9400 1.9634 0.1434
5.9600 1.9701 0.1354
5.9800 1.9767 0.1424
6.0000 1.9833 0.1415
6.0200 1.9900 0.1409
6.0400 1.9967 0.1396
6.0600 2.0034 0.1414
6.0800 2.0101 0.1355
6.1000 2.0168 0.1429
6.1200 2.0235 0.1367
6.1400 2.0301 0.1354
6.1600 2.0367 0.1419
6.1800 2.0433 0.1393
6.2000 2.0500 0.1372
6.2200 2.0567 0.1385
6.2400 2.0634 0.1390
6.2600 2.0701 0.1366
6.2800 2.0768 0.1396
6.3000 2.0834 0.1379
6.3200 2.0901 0.1346
6.3400 2.0967 0.1367
6.3600 2.1033 0.1399
6.3800 2.1100 0.1391
6.4000 2.1167 0.1384
6.4200 2.1234 0.1349
6.4400 2.1301 0.1377
6.4600 2.1368 0.1359
6.4800 2.1435 0.1383
6.5000 2.1501 0.1321
6.5200 2.1568 0.1362
6.5400 2.1634 0.1354
6.5600 2.1700 0.1357
6.5800 2.1767 0.1340
6.6000 2.1834 0.1393
6.6200 2.1900 0.1322
6.6400 2.1967 0.1295
6.6600 2.2035 0.1365
6.6800 2.2101 0.1330
6.7000 2.2167 0.1350
6.7200 2.2233 0.1344
6.7400 2.2299 0.1334
6.7600 2.2367 0.1347
6.7800 2.2434 0.1323
6.8000 2.2501 0.1317
6.8200 2.2568 0.1329
6.8400 2.2634 0.1351
6.8600 2.2701 0.1293
6.8800 2.2767 0.1292
6.9000 2.2833 0.1369
6.9200 2.2900 0.1320
6.9400 2.2967 0.1331
6.9600 2.3034 0.1349
6.9800 2.3101 0.1350
7.0000 2.3168 0.1278
7.0200 2.3234 0.1337
7.0400 2.3301 0.1341
7.0600 2.3367 0.1323
7.0800 2.3434 0.1334
7.1000 2.3500 0.1358
7.1200 2.3567 0.1308
7.1400 2.3634 0.1370
7.1600 2.3701 0.1378
7.1800 2.3768 0.1269
7.2000 2.3835 0.1336
7.2200 2.3901 0.1373
7.2400 2.3967 0.1298
7.2600 2.4033 0.1377
7.2800 2.4100 0.1365
7.3000 2.4167 0.1274
7.3200 2.4234 0.1348
7.3400 2.4301 0.1329
7.3600 2.4368 0.1332
7.3800 2.4434 0.1374
7.4000 2.4501 0.1310
7.4200 2.4567 0.1262
7.4400 2.4633 0.1390
7.4600 2.4699 0.1311
7.4800 2.4767 0.1309
7.5000 2.4834 0.1379
7.5200 2.4901 0.1289
7.5400 2.4967 0.1279
7.5600 2.5034 0.1373
7.5800 2.5101 0.1283
7.6000 2.5167 0.1326
7.6200 2.5234 0.1348
7.6400 2.5300 0.1270
7.6600 2.5367 0.1342
7.6800 2.5434 0.1324
7.7000 2.5501 0.1271
7.7200 2.5568 0.1364
7.7400 2.5635 0.1329
7.7600 2.5702 0.1254
7.7800 2.5767 0.1367
7.8000 2.5833 0.1282
7.8200 2.5900 0.1287
7.8400 2.5967 0.1337
7.8600 2.6034 0.1295
7.8800 2.6101 0.1280
7.9000 2.6168 0.1343
7.9200 2.6234 0.1284
7.9400 2.6301 0.1301
7.9600 2.6367 0.1316
7.9800 2.6433 0.1250
8.0000 2.6500 0.1319
8.0200 2.6567 0.1323
8.0400 2.6634 0.1214
8.0600 2.6701 0.1305
8.0800 2.6767 0.1318
8.1000 2.6834 0.1196
8.1200 2.6901 0.1321
8.1400 2.6967 0.1266
8.1600 2.7033 0.1231
8.1800 2.7099 0.1310
8.2000 2.7166 0.1272
8.2200 2.7234 0.1224
8.2400 2.7301 0.1348
8.2600 2.7367 0.1234
8.2800 2.7434 0.1221
8.3000 2.7501 0.1319
8.3200 2.7568 0.1225
8.3400 2.7634 0.1237
8.3600 2.7700 0.1368
8.3800 2.7767 0.1178
8.4000 2.7834 0.1268
8.4200 2.7901 0.1305
8.4400 2.7967 0.1216
8.4600 2.8034 0.1257
8.4800 2.8101 0.1283
8.5000 2.8167 0.1210
8.5200 2.8234 0.1254
8.5400 2.8300 0.1294
8.5600 2.8367 0.1181
8.5800 2.8434 0.1270
8.6000 2.8501 0.1286
8.6200 2.8568 0.1204
8.6400 2.8635 0.1223
8.6600 2.8701 0.1313
8.6800 2.8768 0.1230
8.7000 2.8834 0.1206
8.7200 2.8900 0.1294
8.7400 2.8967 0.1233
8.7600 2.9034 0.1208
8.7800 2.9101 0.1301
8.8000 2.9168 0.1231
8.8200 2.9234 0.1221
8.8400 2.9301 0.1281
8.8600 2.9367 0.1238
8.8800 2.9433 0.1235
8.9000 2.9499 0.1310
8.9200 2.9566 0.1221
8.9400 2.9634 0.1167
8.9600 2.9700 0.1328
8.9800 2.9767 0.1213
9.0000 2.9834 0.1175
9.0200 2.9901 0.1313
9.0400 2.9967 0.1248
9.0600 3.0033 0.1183
9.0800 3.0100 0.1348
9.1000 3.0167 0.1213
9.1200 3.0234 0.1192
9.1400 3.0301 0.1288
9.1600 3.0368 0.1185
9.1800 3.0435 0.1227
9.2000 3.0501 0.1342
9.2200 3.0568 0.1144
9.2400 3.0634 0.1243
9.2600 3.0700 0.1325
9.2800 3.0767 0.1182
9.3000 3.0834 0.1240
9.3200 3.0901 0.1299
9.3400 3.0968 0.1187
9.3600 3.1035 0.1244
9.3800 3.1101 0.1273
9.4000 3.1168 0.1176
9.4200 3.1233 0.1268
9.4400 3.1300 0.1254
9.4600 3.1367 0.1213
9.4800 3.1434 0.1241
9.5000 3.1501 0.1252
9.5200 3.1567 0.1226
9.5400 3.1634 0.1255
9.5600 3.1701 0.1200
9.5800 3.1768 0.1278
9.6000 3.1834 0.1195
9.6200 3.1900 0.1285
9.6400 3.1967 0.1299
9.6600 3.2034 0.1172
9.6800 3.2101 0.1254
9.7000 3.2167 0.1298
9.7200 3.2234 0.1146
9.7400 3.2300 0.1278
9.7600 3.2367 0.1292
9.7800 3.2433 0.1159
9.8000 3.2499 0.1255
9.8200 3.2567 0.1273
9.8400 3.2634 0.1170
9.8600 3.2701 0.1269
9.8800 3.2768 0.1264
9.9000 3.2835 0.1124
9.9200 3.2902 0.1303
9.9400 3.2968 0.1248
9.9600 3.3034 0.1135
9.9800 3.3100 0.1293
10.0000 3.3167 0.1261
10.0200 3.3234 0.1082
10.0400 3.3301 0.1278
10.0600 3.3368 0.1213
10.0800 3.3435 0.1163
10.1000 3.3501 0.1289
10.1200 3.3567 0.1203
10.1400 3.3634 0.1145
10.1600 3.3700 0.1323
10.1800 3.3766 0.1174
10.2000 3.3833 0.1154
10.2200 3.3900 0.1314
10.2400 3.3967 0.1197
10.2600 3.4034 0.1152
10.2800 3.4101 0.1242
10.3000 3.4167 0.1161
10.3200 3.4233 0.1212
10.3400 3.4299 0.1233
10.3600 3.4366 0.1163
10.3800 3.4433 0.1232
10.4000 3.4501 0.1214
10.4200 3.4567 0.1168
10.4400 3.4634 0.1220
10.4600 3.4701 0.1215
10.4800 3.4768 0.1139
10.5000 3.4834 0.1208
10.5200 3.4900 0.1174
10.5400 3.4967 0.1206
10.5600 3.5034 0.1191
10.5800 3.5101 0.1168
10.6000 3.5167 0.1199
10.6200 3.5234 0.1218
10.6400 3.5301 0.1183
10.6600 3.5368 0.1108
10.6800 3.5434 0.1210
10.7000 3.5500 0.1216
10.7200 3.5567 0.1164
10.7400 3.5634 0.1186
10.7600 3.5701 0.1158
10.7800 3.5768 0.1165
10.8000 3.5835 0.1256
10.8200 3.5901 0.1151
10.8400 3.5968 0.1107
10.8600 3.6034 0.1251
10.8800 3.6100 0.1179
10.9000 3.6167 0.1109
10.9200 3.6234 0.1300
10.9400 3.6301 0.1164
10.9600 3.6368 0.1070
10.9800 3.6434 0.1245
11.0000 3.6501 0.1170
11.0200 3.6568 0.1115
11.0400 3.6634 0.1231
11.0600 3.6700 0.1203
11.0800 3.6766 0.1117
11.1000 3.6833 0.1201
11.1200 3.6900 0.1182
11.1400 3.6967 0.1158
11.1600 3.7034 0.1180
11.1800 3.7101 0.1152
11.2000 3.7167 0.1201
11.2200 3.7233 0.1176
11.2400 3.7300 0.1139
11.2600 3.7367 0.1227
11.2800 3.7434 0.1143
11.3000 3.7501 0.1113
11.3200 3.7568 0.1194
11.3400 3.7635 0.1221
11.3600 3.7702 0.1075
11.3800 3.7768 0.1156
11.4000 3.7834 0.1229
11.4200 3.7900 0.1099
11.4400 3.7967 0.1104
11.4600 3.8034 0.1265
11.4800 3.8101 0.1104
11.5000 3.8167 0.1118
11.5200 3.8234 0.1222
11.5400 3.8301 0.1089
11.5600 3.8368 0.1163
11.5800 3.8434 0.1211
11.6000 3.8500 0.1127
11.6200 3.8567 0.1131
11.6400 3.8633 0.1176
11.6600 3.8700 0.1076
11.6800 3.8767 0.1189
11.7000 3.8834 0.1262
11.7200 3.8901 0.1051
11.7400 3.8967 0.1114
11.7600 3.9033 0.1213
11.7800 3.9099 0.1073
11.8000 3.9166 0.1160
11.8200 3.9233 0.1161
11.8400 3.9300 0.1113
11.8600 3.9367 0.1130
11.8800 3.9434 0.1198
11.9000 3.9501 0.1083
11.9200 3.9567 0.1124
11.9400 3.9634 0.1196
11.9600 3.9700 0.1139
11.9800 3.9767 0.1113
12.0000 3.9834 0.1180
12.0200 3.9901 0.1136
12.0400 3.9968 0.1098
12.0600 4.0034 0.1181
12.0800 4.0101 0.1121
12.1000 4.0168 0.1172
12.1200 4.0234 0.1128
12.1400 4.0300 0.1109
12.1600 4.0367 0.1190
12.1800 4.0434 0.1175
12.2000 4.0501 0.1071
12.2200 4.0568 0.1189
12.2400 4.0634 0.1153
12.2600 4.0701 0.1103
12.2800 4.0768 0.1179
12.3000 4.0834 0.1125
12.3200 4.0900 0.1119
12.3400 4.0966 0.1198
12.3600 4.1033 0.1132
12.3800 4.1101 0.1086
12.4000 4.1168 0.1136
12.4200 4.1234 0.1178
12.4400 4.1301 0.1081
12.4600 4.1368 0.1124
12.4800 4.1434 0.1140
12.5000 4.1500 0.1130
12.5200 4.1566 0.1139
12.5400 4.1633 0.1132
12.5600 4.1701 0.1102
12.5800 4.1767 0.1100
12.6000 4.1834 0.1164
12.6200 4.1901 0.1037
12.6400 4.1968 0.1133
12.6600 4.2034 0.1153
12.6800 4.2100 0.1070
12.7000 4.2167 0.1133
12.7200 4.2234 0.1211
12.7400 4.2301 0.1027
12.7600 4.2367 0.1099
12.7800 4.2434 0.1180
12.8000 4.2501 0.1022
12.8200 4.2568 0.1078
12.8400 4.2634 0.1148
12.8600 4.2700 0.1025
12.8800 4.2767 0.1093
12.9000 4.2834 0.1169
12.9200 4.2901 0.1044
12.9400 4.2968 0.1059
12.9600 4.3035 0.1109
12.9800 4.3101 0.1083
13.0000 4.3168 0.1068
13.0200 4.3234 0.1136
13.0400 4.3300 0.1042
13.0600 4.3367 0.1105
13.0800 4.3433 0.1102
13.1000 4.3501 0.1074
13.1200 4.3567 0.1062
13.1400 4.3634 0.1127
13.1600 4.3701 0.1058
13.1800 4.3768 0.1042
13.2000 4.3834 0.1091
13.2200 4.3900 0.1120
13.2400 4.3966 0.1062
13.2600 4.4033 0.1098
13.2800 4.4100 0.1095
13.3000 4.4167 0.1050
13.3200 4.4234 0.1116
13.3400 4.4301 0.1071
13.3600 4.4368 0.1011
13.3800 4.4434 0.1107
13.4000 4.4500 0.1096
13.4200 4.4566 0.0996
13.4400 4.4633 0.1135
13.4600 4.4701 0.1042
13.4800 4.4768 0.1035
13.5000 4.4835 0.1138
13.5200 4.4901 0.1014
13.5400 4.4968 0.1006
13.5600 4.5034 0.1175
13.5800 4.5100 0.0990
13.6000 4.5167 0.0997
13.6200 4.5234 0.1160
13.6400 4.5301 0.0997
13.6600 4.5368 0.1023
13.6800 4.5434 0.1155
13.7000 4.5501 0.0986
13.7200 4.5568 0.1057
13.7400 4.5634 0.1135
13.7600 4.5700 0.0962
13.7800 4.5766 0.1082
13.8000 4.5833 0.1121
13.8200 4.5900 0.1045
13.8400 4.5967 0.1021
13.8600 4.6034 0.1122
13.8800 4.6100 0.1040
13.9000 4.6167 0.1018
13.9200 4.6233 0.1073
13.9400 4.6300 0.1073
13.9600 4.6366 0.1048
13.9800 4.6433 0.1091
14.0000 4.6501 0.1057
14.0200 4.6568 0.0983
14.0400 4.6634 0.1075
14.0600 4.6701 0.1091
14.0800 4.6768 0.0961
14.1000 4.6834 0.1116
14.1200 4.6900 0.1098
14.1400 4.6967 0.0927
14.1600 4.7034 0.1125
14.1800 4.7101 0.1055
14.2000 4.7168 0.0840
14.2200 4.7235 0.1124
14.2400 4.7301 0.1196
14.2600 4.7368 0.0835
14.2800 4.7434 0.1025
14.3000 4.7500 0.1135
14.3200 4.7567 0.0941
14.3400 4.7633 0.1098
14.3600 4.7701 0.1084
14.3800 4.7768 0.0834
14.4000 4.7835 0.1178
14.4200 4.7902 0.1221
14.4400 4.7968 0.0719
14.4600 4.8034 0.1024
14.4800 4.8100 0.1258
14.5000 4.8166 0.0932
14.5200 4.8233 0.1008
14.5400 4.8300 0.1101
14.5600 4.8367 0.0909
14.5800 4.8434 0.1092
14.6000 4.8500 0.1134
14.6200 4.8567 0.0866
14.6400 4.8634 0.0982
14.6600 4.8700 0.1244
14.6800 4.8766 0.0967
14.7000 4.8832 0.0890
14.7200 4.8899 0.1172
14.7400 4.8966 0.1042
14.7600 4.9034 0.0869
14.7800 4.9101 0.1198
14.8000 4.9168 0.1014
14.8200 4.9235 0.0815
14.8400 4.9301 0.1184
14.8600 4.9367 0.0996
14.8800 4.9434 0.0912
14.9000 4.9501 0.1275
14.9200 4.9568 0.0884
14.9400 4.9634 0.0924
14.9600 4.9701 0.1283
14.9800 4.9768 0.0874
15.0000 4.9835 0.0946
15.0200 4.9900 0.1242
15.0400 4.9966 0.0891
15.0600 5.0033 0.0957
15.0800 5.0100 0.1177
15.1000 5.0168 0.0943
15.1200 5.0234 0.1023
15.1400 5.0301 0.1041
15.1600 5.0368 0.0948
15.1800 5.0434 0.1091
15.2000 5.0500 0.0961
15.2200 5.0567 0.0981
15.2400 5.0634 0.1124
15.2600 5.0701 0.0903
15.2800 5.0767 0.1047
15.3000 5.0834 0.1110
15.3200 5.0901 0.0877
15.3400 5.0968 0.1009
15.3600 5.1034 0.1149
15.3800 5.1100 0.0901
15.4000 5.1166 0.1011
15.4200 5.1233 0.1072
15.4400 5.1300 0.0956
15.4600 5.1367 0.1065
15.4800 5.1434 0.0987
15.5000 5.1500 0.0961
15.5200 5.1567 0.1054
15.5400 5.1633 0.0968
15.5600 5.1700 0.0953
15.5800 5.1766 0.1070
15.6000 5.1833 0.0931
15.6200 5.1901 0.1002
15.6400 5.1968 0.0990
15.6600 5.2035 0.0951
15.6800 5.2101 0.1039
15.7000 5.2168 0.0995
15.7200 5.2235 0.0902
15.7400 5.2301 0.1048
15.7600 5.2367 0.0953
15.7800 5.2434 0.0900
15.8000 5.2501 0.1073
15.8200 5.2568 0.0973
15.8400 5.2635 0.0898
15.8600 5.2701 0.1067
15.8800 5.2768 0.0951
15.9000 5.2835 0.0918
15.9200 5.2900 0.1090
15.9400 5.2966 0.0892
15.9600 5.3033 0.0919
15.9800 5.3100 0.1113
16.0000 5.3167 0.0860
16.0200 5.3234 0.0905
16.0400 5.3301 0.1160
16.0600 5.3368 0.0830
16.0800 5.3434 0.0897
16.1000 5.3500 0.1085
16.1200 5.3566 0.0913
16.1400 5.3633 0.0955
16.1600 5.3700 0.1025
16.1800 5.3768 0.0870
16.2000 5.3834 0.0952
16.2200 5.3901 0.1020
16.2400 5.3968 0.0908
16.2600 5.4034 0.0955
16.2800 5.4101 0.0997
16.3000 5.4167 0.0872
16.3200 5.4233 0.0976
16.3400 5.4300 0.0985
16.3600 5.4367 0.0892
16.3800 5.4434 0.0985
16.4000 5.4502 0.0971
16.4200 5.4568 0.0922
16.4400 5.4635 0.0881
16.4600 5.4701 0.0974
16.4800 5.4767 0.0919
16.5000 5.4833 0.0902
16.5200 5.4900 0.0973
16.5400 5.4968 0.0975
16.5600 5.5034 0.0888
16.5800 5.5101 0.0962
16.6000 5.5168 0.0932
16.6200 5.5234 0.0875
16.6400 5.5300 0.0982
16.6600 5.5366 0.0956
16.6800 5.5433 0.0887
16.7000 5.5500 0.1019
16.7200 5.5567 0.0929
16.7400 5.5634 0.0828
16.7600 5.5701 0.1039
16.7800 5.5768 0.0942
16.8000 5.5834 0.0863
16.8200 5.5900 0.0936
16.8400 5.5966 0.0990
16.8600 5.6033 0.0913
16.8800 5.6100 0.0949
16.9000 5.6167 0.0953
16.9200 5.6234 0.0875
16.9400 5.6301 0.0920
16.9600 5.6368 0.0988
16.9800 5.6435 0.0901
17.0000 5.6501 0.0914
17.0200 5.6567 0.0940
17.0400 5.6633 0.0947
17.0600 5.6700 0.0911
17.0800 5.6767 0.0908
17.1000 5.6834 0.0918
17.1200 5.6900 0.0935
17.1400 5.6967 0.0919
17.1600 5.7034 0.0876
17.1800 5.7101 0.0980
17.2000 5.7167 0.0901
17.2200 5.7234 0.0841
17.2400 5.7301 0.0994
17.2600 5.7368 0.0931
17.2800 5.7435 0.0779
17.3000 5.7501 0.0996
17.3200 5.7568 0.0929
17.3400 5.7635 0.0836
17.3600 5.7701 0.0962
17.3800 5.7767 0.0955
17.4000 5.7833 0.0802
17.4200 5.7900 0.0970
17.4400 5.7967 0.0929
17.4600 5.8034 0.0851
17.4800 5.8101 0.0929
17.5000 5.8168 0.0925
17.5200 5.8234 0.0831
17.5400 5.8300 0.0934
17.5600 5.8366 0.0946
17.5800 5.8432 0.0871
17.6000 5.8500 0.0976
17.6200 5.8567 0.0840
17.6400 5.8634 0.0830
17.6600 5.8701 0.1044
17.6800 5.8767 0.0860
17.7000 5.8834 0.0808
17.7200 5.8901 0.1003
17.7400 5.8967 0.0878
17.7600 5.9033 0.0955
17.7800 5.9100 0.0952
17.8000 5.9167 0.0813
17.8200 5.9234 0.0888
17.8400 5.9301 0.0962
17.8600 5.9368 0.0824
17.8800 5.9435 0.0922
17.9000 5.9501 0.0962
17.9200 5.9567 0.0785
17.9400 5.9633 0.0929
17.9600 5.9700 0.0977
17.9800 5.9768 0.0813
18.0000 5.9835 0.0948
18.0200 5.9902 0.0856
18.0400 5.9968 0.0808
18.0600 6.0035 0.0986
18.0800 6.0101 0.0814
18.1000 6.0166 0.0797
18.1200 6.0233 0.0999
18.1400 6.0300 0.0846
18.1600 6.0367 0.0791
18.1800 6.0434 0.0998
18.2000 6.0501 0.0783
18.2200 6.0568 0.0909
18.2400 6.0634 0.0973
18.2600 6.0701 0.0723
18.2800 6.0767 0.0910
18.3000 6.0833 0.0962
18.3200 6.0900 0.0727
18.3400 6.0967 0.0959
18.3600 6.1034 0.0913
18.3800 6.1100 0.0731
18.4000 6.1167 0.0924
18.4200 6.1234 0.0883
18.4400 6.1301 0.0788
18.4600 6.1367 0.0956
18.4800 6.1433 0.0826
18.5000 6.1500 0.0769
18.5200 6.1567 0.0963
18.5400 6.1634 0.0790
18.5600 6.1701 0.0824
18.5800 6.1768 0.0904
18.6000 6.1835 0.0800
18.6200 6.1901 0.0810
18.6400 6.1967 0.0936
18.6600 6.2033 0.0838
18.6800 6.2100 0.0823
18.7000 6.2167 0.0831
18.7200 6.2234 0.0861
18.7400 6.2301 0.0812
18.7600 6.2368 0.0846
18.7800 6.2435 0.0830
18.8000 6.2501 0.0803
18.8200 6.2567 0.0821
18.8400 6.2633 0.0871
18.8600 6.2700 0.0809
18.8800 6.2767 0.0795
18.9000 6.2834 0.0878
18.9200 6.2901 0.0786
18.9400 6.2967 0.0828
18.9600 6.3034 0.0893
18.9800 6.3101 0.0771
19.0000 6.3167 0.0803
19.0200 6.3233 0.0913
19.0400 6.3300 0.0733
19.0600 6.3367 0.0832
19.0800 6.3434 0.0922
19.1000 6.3501 0.0745
19.1200 6.3568 0.0771
19.1400 6.3634 0.0902
19.1600 6.3701 0.0727
19.1800 6.3767 0.0810
19.2000 6.3833 0.0896
19.2200 6.3900 0.0735
19.2400 6.3968 0.0831
19.2600 6.4035 0.0884
19.2800 6.4101 0.0720
19.3000 6.4168 0.0847
19.3200 6.4235 0.0885
19.3400 6.4301 0.0693
19.3600 6.4367 0.0867
19.3800 6.4433 0.0907
19.4000 6.4499 0.0724
19.4200 6.4567 0.0869
19.4400 6.4634 0.0824
19.4600 6.4701 0.0715
19.4800 6.4768 0.0899
19.5000 6.4835 0.0764
19.5200 6.4901 0.0738
19.5400 6.4967 0.0880
19.5600 6.5033 0.0816
19.5800 6.5100 0.0747
19.6000 6.5167 0.0887
19.6200 6.5234 0.0821
19.6400 6.5301 0.0786
19.6600 6.5368 0.0857
19.6800 6.5435 0.0777
19.7000 6.5501 0.0790
19.7200 6.5567 0.0810
19.7400 6.5633 0.0818
19.7600 6.5699 0.0801
19.7800 6.5767 0.0812
19.8000 6.5834 0.0803
19.8200 6.5900 0.0797
19.8400 6.5967 0.0792
19.8600 6.6034 0.0819
19.8800 6.6101 0.0731
19.9000 6.6167 0.0803
19.9200 6.6233 0.0835
19.9400 6.6300 0.0773
19.9600 6.6367 0.0741
19.9800 6.6434 0.0893
20.0000 6.6501 0.0769
20.0200 6.6568 0.0714
20.0400 6.6635 0.0874
20.0600 6.6702 0.0742
20.0800 6.6767 0.0739
20.1000 6.6833 0.0903
20.1200 6.6900 0.0723
20.1400 6.6967 0.0723
20.1600 6.7034 0.0842
20.1800 6.7101 0.0733
20.2000 6.7168 0.0770
20.2200 6.7235 0.0864
20.2400 6.7301 0.0707
20.2600 6.7367 0.0753
20.2800 6.7433 0.0882
20.3000 6.7500 0.0703
20.3200 6.7567 0.0775
20.3400 6.7634 0.0887
20.3600 6.7700 0.0689
20.3800 6.7767 0.0731
20.4000 6.7834 0.0874
20.4200 6.7901 0.0721
20.4400 6.7967 0.0761
20.4600 6.8033 0.0850
20.4800 6.8100 0.0748
20.5000 6.8167 0.0741
20.5200 6.8234 0.0837
20.5400 6.8301 0.0707
20.5600 6.8367 0.0759
20.5800 6.8435 0.0862
20.6000 6.8501 0.0696
20.6200 6.8567 0.0717
20.6400 6.8633 0.0890
20.6600 6.8700 0.0766
20.6800 6.8767 0.0641
20.7000 6.8834 0.0842
20.7200 6.8901 0.0748
20.7400 6.8968 0.0738
20.7600 6.9035 0.0797
20.7800 6.9101 0.0735
20.8000 6.9167 0.0688
20.8200 6.9233 0.0821
20.8400 6.9300 0.0785
20.8600 6.9367 0.0698
20.8800 6.9434 0.0803
20.9000 6.9501 0.0758
20.9200 6.9568 0.0632
20.9400 6.9635 0.0853
20.9600 6.9701 0.0752
20.9800 6.9767 0.0630
21.0000 6.9834 0.0850
21.0200 6.9900 0.0734
21.0400 6.9967 0.0594
21.0600 7.0034 0.0848
21.0800 7.0101 0.0772
21.1000 7.0168 0.0586
21.1200 7.0235 0.0862
21.1400 7.0301 0.0756
21.1600 7.0367 0.0569
21.1800 7.0433 0.0850
21.2000 7.0499 0.0788
21.2200 7.0566 0.0573
21.2400 7.0634 0.0840
21.2600 7.0700 0.0692
21.2800 7.0767 0.0633
21.3000 7.0834 0.0781
21.3200 7.0900 0.0622
21.3400 7.0967 0.0646
21.3600 7.1033 0.0841
21.3800 7.1100 0.0662
21.4000 7.1167 0.0639
21.4200 7.1234 0.0834
21.4400 7.1301 0.0656
21.4600 7.1368 0.0664
21.4800 7.1435 0.0797
21.5000 7.1501 0.0623
21.5200 7.1567 0.0674
21.5400 7.1634 0.0756
21.5600 7.1700 0.0600
21.5800 7.1767 0.0730
21.6000 7.1834 0.0716
21.6200 7.1901 0.0614
21.6400 7.1968 0.0668
21.6600 7.2035 0.0732
21.6800 7.2101 0.0611
21.7000 7.2167 0.0684
21.7200 7.2233 0.0684
21.7400 7.2300 0.0697
21.7600 7.2367 0.0680
21.7800 7.2434 0.0666
21.8000 7.2501 0.0686
21.8200 7.2568 0.0688
21.8400 7.2634 0.0696
21.8600 7.2701 0.0679
21.8800 7.2767 0.0647
21.9000 7.2833 0.0706
21.9200 7.2899 0.0719
21.9400 7.2966 0.0624
21.9600 7.3034 0.0688
21.9800 7.3100 0.0704
22.0000 7.3167 0.0635
22.0200 7.3234 0.0687
22.0400 7.3301 0.0730
22.0600 7.3367 0.0631
22.0800 7.3433 0.0728
22.1000 7.3500 0.0649
22.1200 7.3567 0.0650
22.1400 7.3634 0.0672
22.1600 7.3701 0.0656
22.1800 7.3768 0.0634
22.2000 7.3835 0.0734
22.2200 7.3902 0.0657
22.2400 7.3968 0.0652
22.2600 7.4033 0.0725
22.2800 7.4100 0.0664
22.3000 7.4167 0.0699
22.3200 7.4234 0.0653
22.3400 7.4301 0.0682
22.3600 7.4368 0.0693
22.3800 7.4434 0.0688
22.4000 7.4501 0.0686
22.4200 7.4567 0.0686
22.4400 7.4633 0.0653
22.4600 7.4700 0.0731
22.4800 7.4767 0.0677
22.5000 7.4834 0.0639
22.5200 7.4900 0.0730
22.5400 7.4967 0.0676
22.5600 7.5034 0.0639
22.5800 7.5101 0.0737
22.6000 7.5167 0.0642
22.6200 7.5233 0.0698
22.6400 7.5299 0.0726
22.6600 7.5366 0.0624
22.6800 7.5434 0.0653
22.7000 7.5501 0.0749
22.7200 7.5568 0.0684
22.7400 7.5634 0.0620
22.7600 7.5701 0.0740
22.7800 7.5767 0.0653
22.8000 7.5833 0.0656
22.8200 7.5900 0.0757
22.8400 7.5967 0.0703
22.8600 7.6034 0.0598
22.8800 7.6101 0.0734
22.9000 7.6168 0.0665
22.9200 7.6235 0.0640
22.9400 7.6301 0.0742
22.9600 7.6368 0.0645
22.9800 7.6434 0.0634
23.0000 7.6500 0.0719
23.0200 7.6567 0.0653
23.0400 7.6634 0.0632
23.0600 7.6701 0.0721
23.0800 7.6768 0.0670
23.1000 7.6835 0.0622
23.1200 7.6901 0.0693
23.1400 7.6968 0.0656
23.1600 7.7034 0.0650
23.1800 7.7100 0.0703
23.2000 7.7167 0.0696
23.2200 7.7234 0.0660
23.2400 7.7301 0.0607
23.2600 7.7368 0.0719
23.2800 7.7434 0.0653
23.3000 7.7501 0.0634
23.3200 7.7567 0.0686
23.3400 7.7633 0.0636
23.3600 7.7699 0.0651
23.3800 7.7766 0.0707
23.4000 7.7833 0.0597
23.4200 7.7900 0.0667
23.4400 7.7967 0.0731
23.4600 7.8034 0.0549
23.4800 7.8101 0.0686
23.5000 7.8167 0.0729
23.5200 7.8233 0.0539
23.5400 7.8300 0.0751
23.5600 7.8367 0.0703
23.5800 7.8434 0.0559
23.6000 7.8501 0.0745
23.6200 7.8568 0.0622
23.6400 7.8635 0.0557
23.6600 7.8702 0.0754
23.6800 7.8768 0.0659
23.7000 7.8834 0.0513
23.7200 7.8900 0.0749
23.7400 7.8967 0.0673
23.7600 7.9034 0.0534
23.7800 7.9101 0.0751
23.8000 7.9168 0.0656
23.8200 7.9235 0.0562
23.8400 7.9301 0.0721
23.8600 7.9368 0.0593
23.8800 7.9434 0.0583
23.9000 7.9500 0.0766
23.9200 7.9567 0.0596
23.9400 7.9634 0.0545
23.9600 7.9701 0.0726
23.9800 7.9767 0.0666
24.0000 7.9834 0.0548
24.0200 7.9901 0.0709
24.0400 7.9968 0.0653
24.0600 8.0034 0.0573
24.0800 8.0100 0.0702
24.1000 8.0167 0.0636
24.1200 8.0234 0.0569
24.1400 8.0300 0.0709
24.1600 8.0367 0.0657
24.1800 8.0434 0.0570
24.2000 8.0501 0.0676
24.2200 8.0567 0.0663
24.2400 8.0633 0.0537
24.2600 8.0700 0.0659
24.2800 8.0766 0.0717
24.3000 8.0834 0.0538
24.3200 8.0901 0.0629
24.3400 8.0968 0.0679
24.3600 8.1035 0.0529
24.3800 8.1101 0.0633
24.4000 8.1168 0.0682
24.4200 8.1234 0.0542
24.4400 8.1300 0.0691
24.4600 8.1367 0.0647
24.4800 8.1434 0.0534
24.5000 8.1501 0.0639
24.5200 8.1568 0.0671
24.5400 8.1635 0.0512
24.5600 8.1701 0.0666
24.5800 8.1768 0.0628
24.6000 8.1834 0.0557
24.6200 8.1900 0.0648
24.6400 8.1967 0.0646
24.6600 8.2033 0.0566
24.6800 8.2100 0.0668
24.7000 8.2167 0.0610
24.7200 8.2234 0.0568
24.7400 8.2301 0.0620
24.7600 8.2367 0.0596
24.7800 8.2434 0.0568
24.8000 8.2500 0.0627
24.8200 8.2566 0.0635
24.8400 8.2634 0.0595
24.8600 8.2701 0.0593
24.8800 8.2767 0.0614
24.9000 8.2834 0.0616
24.9200 8.2901 0.0583
24.9400 8.2967 0.0576
24.9600 8.3034 0.0555
24.9800 8.3100 0.0644
25.0000 8.3167 0.0607
25.0200 8.3234 0.0571
25.0400 8.3301 0.0603
25.0600 8.3368 0.0656
25.0800 8.3434 0.0523
25.1000 8.3501 0.0614
25.1200 8.3568 0.0617
25.1400 8.3634 0.0540
25.1600 8.3700 0.0625
25.1800 8.3766 0.0586
25.2000 8.3833 0.0565
25.2200 8.3901 0.0587
25.2400 8.3968 0.0650
25.2600 8.4034 0.0543
25.2800 8.4101 0.0592
25.3000 8.4168 0.0601
25.3200 8.4234 0.0576
25.3400 8.4300 0.0576
25.3600 8.4367 0.0615
25.3800 8.4434 0.0595
25.4000 8.4501 0.0584
25.4200 8.4568 0.0557
25.4400 8.4634 0.0567
25.4600 8.4701 0.0594
25.4800 8.4767 0.0520
25.5000 8.4834 0.0551
25.5200 8.4899 0.0620
25.5400 8.4966 0.0543
25.5600 8.5033 0.0561
25.5800 8.5100 0.0510
25.6000 8.5167 0.0543
25.6200 8.5234 0.0627
25.6400 8.5301 0.0508
25.6600 8.5367 0.0533
25.6800 8.5434 0.0587
25.7000 8.5500 0.0544
25.7200 8.5566 0.0550
25.7400 8.5634 0.0599
25.7600 8.5701 0.0503
25.7800 8.5768 0.0545
25.8000 8.5835 0.0557
25.8200 8.5902 0.0502
25.8400 8.5968 0.0582
25.8600 8.6034 0.0572
25.8800 8.6100 0.0485
25.9000 8.6167 0.0588
25.9200 8.6234 0.0531
25.9400 8.6301 0.0482
25.9600 8.6368 0.0608
25.9800 8.6435 0.0520
26.0000 8.6501 0.0465
26.0200 8.6568 0.0567
26.0400 8.6634 0.0587
26.0600 8.6700 0.0458
26.0800 8.6766 0.0602
26.1000 8.6834 0.0590
26.1200 8.6901 0.0472
26.1400 8.6967 0.0553
26.1600 8.7034 0.0567
26.1800 8.7101 0.0440
26.2000 8.7168 0.0551
26.2200 8.7234 0.0540
26.2400 8.7300 0.0479
26.2600 8.7366 0.0546
26.2800 8.7433 0.0527
26.3000 8.7500 0.0476
26.3200 8.7567 0.0575
26.3400 8.7634 0.0553
26.3600 8.7701 0.0456
26.3800 8.7767 0.0518
26.4000 8.7834 0.0528
26.4200 8.7900 0.0485
26.4400 8.7966 0.0519
26.4600 8.8034 0.0514
26.4800 8.8101 0.0475
26.5000 8.8168 0.0531
26.5200 8.8235 0.0518
26.5400 8.8301 0.0553
26.5600 8.8368 0.0493
26.5800 8.8434 0.0482
26.6000 8.8501 0.0476
26.6200 8.8567 0.0510
26.6400 8.8634 0.0502
26.6600 8.8701 0.0479
26.6800 8.8768 0.0466
26.7000 8.8834 0.0538
26.7200 8.8901 0.0472
26.7400 8.8968 0.0447
26.7600 8.9034 0.0556
26.7800 8.9100 0.0496
26.8000 8.9166 0.0466
26.8200 8.9233 0.0554
26.8400 8.9300 0.0432
26.8600 8.9367 0.0434
26.8800 8.9434 0.0583
26.9000 8.9501 0.0422
26.9200 8.9568 0.0463
26.9400 8.9634 0.0564
26.9600 8.9700 0.0437
26.9800 8.9766 0.0451
27.0000 8.9833 0.0554
27.0200 8.9900 0.0417
27.0400 8.9967 0.0429
27.0600 9.0034 0.0538
27.0800 9.0101 0.0445
27.1000 9.0168 0.0468
27.1200 9.0234 0.0554
27.1400 9.0300 0.0390
27.1600 9.0367 0.0477
27.1800 9.0433 0.0576
27.2000 9.0500 0.0392
27.2200 9.0567 0.0445
27.2400 9.0634 0.0515
27.2600 9.0701 0.0431
27.2800 9.0768 0.0418
27.3000 9.0834 0.0543
27.3200 9.0900 0.0404
27.3400 9.0967 0.0453
27.3600 9.1034 0.0521
27.3800 9.1101 0.0436
27.4000 9.1168 0.0438
27.4200 9.1235 0.0516
27.4400 9.1301 0.0438
27.4600 9.1368 0.0410
27.4800 9.1434 0.0507
27.5000 9.1500 0.0455
27.5200 9.1567 0.0412
27.5400 9.1634 0.0570
27.5600 9.1701 0.0457
27.5800 9.1768 0.0388
27.6000 9.1834 0.0536
27.6200 9.1901 0.0461
27.6400 9.1968 0.0372
27.6600 9.2034 0.0509
27.6800 9.2100 0.0508
27.7000 9.2166 0.0373
27.7200 9.2233 0.0558
27.7400 9.2300 0.0464
27.7600 9.2367 0.0369
27.7800 9.2434 0.0581
27.8000 9.2501 0.0463
27.8200 9.2568 0.0329
27.8400 9.2634 0.0569
27.8600 9.2700 0.0439
27.8800 9.2766 0.0403
27.9000 9.2833 0.0596
27.9200 9.2901 0.0444
27.9400 9.2968 0.0385
27.9600 9.3035 0.0553
27.9800 9.3101 0.0447
28.0000 9.3168 0.0423
28.0200 9.3234 0.0542
28.0400 9.3300 0.0423
28.0600 9.3367 0.0461
28.0800 9.3434 0.0529
28.1000 9.3501 0.0415
28.1200 9.3568 0.0416
28.1400 9.3634 0.0530
28.1600 9.3701 0.0448
28.1800 9.3768 0.0395
28.2000 9.3834 0.0510
28.2200 9.3900 0.0450
28.2400 9.3966 0.0405
28.2600 9.4033 0.0521
28.2800 9.4100 0.0424
28.3000 9.4167 0.0456
28.3200 9.4234 0.0477
28.3400 9.4301 0.0440
28.3600 9.4368 0.0384
28.3800 9.4434 0.0487
28.4000 9.4500 0.0542
28.4200 9.4566 0.0399
28.4400 9.4633 0.0471
28.4600 9.4700 0.0500
28.4800 9.4767 0.0347
28.5000 9.4834 0.0488
28.5200 9.4901 0.0492
28.5400 9.4968 0.0382
28.5600 9.5034 0.0485
28.5800 9.5100 0.0451
28.6000 9.5167 0.0382
28.6200 9.5233 0.0475
28.6400 9.5301 0.0508
28.6600 9.5368 0.0346
28.6800 9.5434 0.0466
28.7000 9.5501 0.0477
28.7200 9.5568 0.0349
28.7400 9.5635 0.0450
28.7600 9.5701 0.0461
28.7800 9.5767 0.0434
28.8000 9.5834 0.0460
28.8200 9.5900 0.0424
28.8400 9.5968 0.0425
28.8600 9.6035 0.0474
28.8800 9.6101 0.0404
28.9000 9.6168 0.0432
28.9200 9.6235 0.0439
28.9400 9.6300 0.0413
28.9600 9.6366 0.0434
28.9800 9.6433 0.0456
29.0000 9.6500 0.0418
29.0200 9.6567 0.0439
29.0400 9.6634 0.0437
29.0600 9.6700 0.0435
29.0800 9.6767 0.0408
29.1000 9.6834 0.0403
29.1200 9.6900 0.0424
29.1400 9.6966 0.0429
29.1600 9.7033 0.0421
29.1800 9.7100 0.0450
29.2000 9.7167 0.0394
29.2200 9.7234 0.0389
29.2400 9.7300 0.0478
29.2600 9.7367 0.0400
29.2800 9.7434 0.0359
29.3000 9.7501 0.0487
29.3200 9.7567 0.0405
29.3400 9.7634 0.0404
29.3600 9.7701 0.0465
29.3800 9.7768 0.0379
29.4000 9.7834 0.0428
29.4200 9.7901 0.0437
29.4400 9.7968 0.0377
29.4600 9.8035 0.0433
29.4800 9.8100 0.0443
29.5000 9.8166 0.0368
29.5200 9.8233 0.0426
29.5400 9.8300 0.0440
29.5600 9.8368 0.0387
29.5800 9.8434 0.0427
29.6000 9.8501 0.0447
29.6200 9.8568 0.0363
29.6400 9.8634 0.0417
29.6600 9.8701 0.0457
29.6800 9.8767 0.0406
29.7000 9.8833 0.0424
29.7200 9.8900 0.0432
29.7400 9.8967 0.0402
29.7600 9.9034 0.0382
29.7800 9.9101 0.0490
29.8000 9.9168 0.0400
29.8200 9.9234 0.0385
29.8400 9.9300 0.0438
29.8600 9.9366 0.0424
29.8800 9.9433 0.0392
29.9000 9.9500 0.0450
29.9200 9.9567 0.0396
29.9400 9.9634 0.0360
29.9600 9.9701 0.0474
29.9800 9.9767 0.0446
30.0000 9.9834 0.0331
30.0200 9.9900 0.0417
30.0400 9.9966 0.0428
30.0600 10.0033 0.0352
30.0800 10.0101 0.0380
30.1000 10.0168 0.0426
30.1200 10.0234 0.0346
30.1400 10.0301 0.0413
30.1600 10.0368 0.0376
30.1800 10.0435 0.0291
30.2000 10.0501 0.0473
30.2200 10.0567 0.0378
30.2400 10.0634 0.0323
30.2600 10.0701 0.0393
30.2800 10.0768 0.0408
30.3000 10.0834 0.0306
30.3200 10.0901 0.0402
30.3400 10.0968 0.0375
30.3600 10.1035 0.0298
30.3800 10.1101 0.0418
30.4000 10.1166 0.0356
30.4200 10.1233 0.0317
30.4400 10.1300 0.0426
30.4600 10.1367 0.0327
30.4800 10.1434 0.0296
30.5000 10.1501 0.0385
30.5200 10.1567 0.0381
30.5400 10.1634 0.0271
30.5600 10.1700 0.0377
30.5800 10.1766 0.0374
30.6000 10.1833 0.0270
30.6200 10.1900 0.0368
30.6400 10.1967 0.0352
30.6600 10.2034 0.0297
30.6800 10.2101 0.0332
30.7000 10.2168 0.0337
30.7200 10.2234 0.0279
30.7400 10.2301 0.0390
30.7600 10.2367 0.0336
30.7800 10.2434 0.0283
30.8000 10.2500 0.0334
30.8200 10.2567 0.0296
30.8400 10.2634 0.0307
30.8600 10.2701 0.0348
30.8800 10.2768 0.0325
30.9000 10.2835 0.0296
30.9200 10.2901 0.0343
30.9400 10.2967 0.0307
30.9600 10.3033 0.0337
30.9800 10.3100 0.0349
31.0000 10.3167 0.0303
31.0200 10.3235 0.0293
31.0400 10.3301 0.0331
31.0600 10.3368 0.0296
31.0800 10.3434 0.0322
31.1000 10.3500 0.0301
31.1200 10.3566 0.0315
31.1400 10.3633 0.0292
31.1600 10.3700 0.0293
31.1800 10.3767 0.0322
31.2000 10.3834 0.0312
31.2200 10.3901 0.0274
31.2400 10.3967 0.0350
31.2600 10.4034 0.0287
31.2800 10.4101 0.0271
31.3000 10.4167 0.0389
31.3200 10.4233 0.0259
31.3400 10.4300 0.0242
31.3600 10.4367 0.0356
31.3800 10.4434 0.0301
31.4000 10.4501 0.0232
31.4200 10.4568 0.0319
31.4400 10.4635 0.0290
31.4600 10.4701 0.0265
31.4800 10.4767 0.0295
31.5000 10.4833 0.0364
31.5200 10.4900 0.0287
31.5400 10.4967 0.0273
31.5600 10.5034 0.0254
31.5800 10.5101 0.0256
31.6000 10.5168 0.0322
31.6200 10.5235 0.0282
31.6400 10.5301 0.0248
31.6600 10.5367 0.0340
31.6800 10.5433 0.0222
31.7000 10.5500 0.0262
31.7200 10.5567 0.0373
31.7400 10.5634 0.0210
31.7600 10.5701 0.0226
31.7800 10.5768 0.0381
31.8000 10.5835 0.0191
31.8200 10.5901 0.0208
31.8400 10.5967 0.0397
31.8600 10.6033 0.0169
31.8800 10.6100 0.0237
31.9000 10.6167 0.0383
31.9200 10.6234 0.0240
31.9400 10.6301 0.0191
31.9600 10.6368 0.0358
31.9800 10.6435 0.0226
32.0000 10.6501 0.0288
32.0200 10.6566 0.0349
32.0400 10.6632 0.0218
32.0600 10.6699 0.0244
32.0800 10.6767 0.0305
32.1000 10.6834 0.0227
32.1200 10.6901 0.0283
32.1400 10.6968 0.0312
32.1600 10.7034 0.0211
32.1800 10.7101 0.0194
32.2000 10.7167 0.0326
32.2200 10.7233 0.0323
32.2400 10.7300 0.0182
32.2600 10.7367 0.0300
32.2800 10.7434 0.0312
32.3000 10.7501 0.0190
32.3200 10.7568 0.0245
32.3400 10.7635 0.0319
32.3600 10.7701 0.0230
32.3800 10.7767 0.0247
32.4000 10.7833 0.0263
32.4200 10.7900 0.0268
32.4400 10.7967 0.0283
32.4600 10.8034 0.0198
32.4800 10.8101 0.0216
32.5000 10.8168 0.0331
32.5200 10.8234 0.0199
32.5400 10.8301 0.0214
32.5600 10.8367 0.0338
32.5800 10.8433 0.0211
32.6000 10.8500 0.0190
32.6200 10.8567 0.0341
32.6400 10.8634 0.0286
32.6600 10.8701 0.0202
32.6800 10.8768 0.0255
32.7000 10.8834 0.0173
32.7200 10.8901 0.0287
32.7400 10.8967 0.0289
32.7600 10.9033 0.0181
32.7800 10.9100 0.0252
32.8000 10.9167 0.0289
32.8200 10.9234 0.0184
32.8400 10.9301 0.0282
32.8600 10.9367 0.0310
32.8800 10.9434 0.0202
32.9000 10.9501 0.0196
32.9200 10.9567 0.0283
32.9400 10.9633 0.0229
32.9600 10.9700 0.0238
32.9800 10.9767 0.0277
33.0000 10.9834 0.0214
33.0200 10.9901 0.0217
33.0400 10.9968 0.0243
33.0600 11.0035 0.0262
33.0800 11.0101 0.0195
33.1000 11.0167 0.0249
33.1200 11.0233 0.0235
33.1400 11.0300 0.0208
33.1600 11.0367 0.0236
33.1800 11.0434 0.0218
33.2000 11.0501 0.0194
33.2200 11.0568 0.0260
33.2400 11.0635 0.0238
33.2600 11.0701 0.0173
33.2800 11.0767 0.0267
33.3000 11.0833 0.0265
33.3200 11.0900 0.0122
33.3400 11.0967 0.0267
33.3600 11.1034 0.0292
33.3800 11.1101 0.0139
33.4000 11.1167 0.0229
33.4200 11.1234 0.0263
33.4400 11.1301 0.0163
33.4600 11.1367 0.0229
33.4800 11.1433 0.0254
33.5000 11.1500 0.0161
33.5200 11.1567 0.0271
33.5400 11.1634 0.0210
33.5600 11.1701 0.0173
33.5800 11.1768 0.0231
33.6000 11.1834 0.0268
33.6200 11.1901 0.0173
33.6400 11.1967 0.0230
33.6600 11.2033 0.0232
33.6800 11.2100 0.0199
33.7000 11.2167 0.0227
33.7200 11.2235 0.0242
33.7400 11.2301 0.0168
33.7600 11.2368 0.0249
33.7800 11.2435 0.0196
33.8000 11.2501 0.0131
33.8200 11.2567 0.0251
33.8400 11.2633 0.0216
33.8600 11.2700 0.0181
33.8800 11.2767 0.0214
33.9000 11.2834 0.0215
33.9200 11.2901 0.0187
33.9400 11.2968 0.0179
33.9600 11.3035 0.0212
33.9800 11.3101 0.0222
34.0000 11.3167 0.0147
34.0200 11.3233 0.0249
34.0400 11.3299 0.0218
34.0600 11.3366 0.0177
34.0800 11.3434 0.0236
34.1000 11.3501 0.0198
34.1200 11.3568 0.0156
34.1400 11.3635 0.0254
34.1600 11.3701 0.0175
34.1800 11.3767 0.0130
34.2000 11.3833 0.0269
34.2200 11.3899 0.0197
34.2400 11.3967 0.0167
34.2600 11.4034 0.0274
34.2800 11.4101 0.0172
34.3000 11.4167 0.0133
34.3200 11.4234 0.0244
34.3400 11.4301 0.0183
34.3600 11.4367 0.0222
34.3800 11.4433 0.0211
34.4000 11.4500 0.0145
34.4200 11.4567 0.0224
34.4400 11.4634 0.0227
34.4600 11.4701 0.0157
34.4800 11.4768 0.0221
34.5000 11.4835 0.0180
34.5200 11.4902 0.0155
34.5400 11.4968 0.0196
34.5600 11.5033 0.0242
34.5800 11.5100 0.0194
34.6000 11.5167 0.0199
34.6200 11.5234 0.0178
34.6400 11.5301 0.0220
34.6600 11.5368 0.0180
34.6800 11.5435 0.0190
34.7000 11.5501 0.0203
34.7200 11.5567 0.0183
34.7400 11.5633 0.0242
34.7600 11.5700 0.0162
34.7800 11.5767 0.0242
34.8000 11.5834 0.0235
34.8200 11.5901 0.0117
34.8400 11.5967 0.0167
34.8600 11.6034 0.0308
34.8800 11.6100 0.0140
34.9000 11.6167 0.0113
34.9200 11.6233 0.0310
34.9400 11.6300 0.0192
34.9600 11.6367 0.0115
34.9800 11.6434 0.0262
35.0000 11.6501 0.0168
35.0200 11.6568 0.0124
35.0400 11.6635 0.0237
35.0600 11.6701 0.0168
35.0800 11.6768 0.0156
35.1000 11.6833 0.0245
35.1200 11.6900 0.0192
35.1400 11.6967 0.0084
35.1600 11.7034 0.0287
35.1800 11.7101 0.0175
35.2000 11.7168 0.0078
35.2200 11.7235 0.0214
35.2400 11.7301 0.0183
35.2600 11.7367 0.0063
35.2800 11.7433 0.0262
35.3000 11.7500 0.0216
35.3200 11.7567 0.0057
35.3400 11.7634 0.0257
35.3600 11.7701 0.0183
35.3800 11.7768 0.0019
35.4000 11.7835 0.0281
35.4200 11.7901 0.0175
35.4400 11.7968 -0.0018
35.4600 11.8034 0.0266
35.4800 11.8100 0.0209
35.5000 11.8167 0.0003
35.5200 11.8234 0.0203
35.5400 11.8301 0.0213
35.5600 11.8368 -0.0037
35.5800 11.8435 0.0272
35.6000 11.8501 0.0176
35.6200 11.8567 -0.0016
35.6400 11.8633 0.0267
35.6600 11.8699 0.0143
35.6800 11.8766 0.0046
35.7000 11.8834 0.0304
35.7200 11.8901 0.0005
35.7400 11.8967 0.0039
35.7600 11.9034 0.0305
35.7800 11.9101 0.0049
35.8000 11.9167 0.0039
35.8200 11.9233 0.0283
35.8400 11.9300 -0.0048
35.8600 11.9367 0.0148
35.8800 11.9434 0.0290
35.9000 11.9501 -0.0078
35.9200 11.9568 0.0229
35.9400 11.9635 0.0192
35.9600 11.9701 -0.0078
35.9800 11.9768 0.0227
36.0000 11.9834 0.0180
36.0200 11.9900 -0.0061
36.0400 11.9967 0.0247
36.0600 12.0034 0.0081
36.0800 12.0101 0.0027
36.1000 12.0168 0.0243
36.1200 12.0235 0.0027
36.1400 12.0301 0.0079
36.1600 12.0367 0.0254
36.1800 12.0433 -0.0039
36.2000 12.0500 0.0169
36.2200 12.0567 0.0255
36.2400 12.0634 -0.0100
36.2600 12.0701 0.0191
36.2800 12.0768 0.0123
36.3000 12.0834 -0.0060
36.3200 12.0901 0.0262
36.3400 12.0967 0.0107
36.3600 12.1033 -0.0102
36.3800 12.1100 0.0242
36.4000 12.1167 0.0112
36.4200 12.1234 -0.0008
36.4400 12.1300 0.0243
36.4600 12.1367 0.0048
36.4800 12.1434 -0.0032
36.5000 12.1501 0.0260
36.5200 12.1567 -0.0009
36.5400 12.1634 -0.0011
36.5600 12.1700 0.0249
36.5800 12.1767 0.0008
36.6000 12.1834 0.0003
36.6200 12.1901 0.0228
36.6400 12.1968 0.0027
36.6600 12.2035 0.0052
36.6800 12.2102 0.0168
36.7000 12.2168 -0.0010
36.7200 12.2234 0.0130
36.7400 12.2300 0.0184
36.7600 12.2367 0.0016
36.7800 12.2434 0.0125
36.8000 12.2501 0.0162
36.8200 12.2568 -0.0030
36.8400 12.2634 0.0108
36.8600 12.2701 0.0163
36.8800 12.2767 -0.0013
36.9000 12.2833 0.0090
36.9200 12.2900 0.0137
36.9400 12.2967 0.0021
36.9600 12.3034 0.0130
36.9800 12.3101 0.0068
37.0000 12.3167 0.0025
37.0200 12.3234 0.0131
37.0400 12.3301 0.0077
37.0600 12.3367 0.0019
37.0800 12.3433 0.0093
37.1000 12.3499 0.0102
37.1200 12.3566 0.0038
37.1400 12.3633 0.0058
37.1600 12.3701 0.0090
37.1800 12.3768 0.0080
37.2000 12.3835 0.0069
37.2200 12.3901 0.0101
37.2400 12.3968 0.0027
37.2600 12.4033 0.0097
37.2800 12.4100 0.0070
37.3000 12.4167 0.0050
37.3200 12.4234 0.0045
37.3400 12.4301 0.0075
37.3600 12.4368 0.0104
37.3800 12.4435 0.0032
37.4000 12.4501 0.0063
37.4200 12.4568 0.0092
37.4400 12.4634 0.0025
37.4600 12.4700 0.0066
37.4800 12.4767 0.0124
37.5000 12.4834 -0.0004
37.5200 12.4901 0.0013
37.5400 12.4968 0.0085
37.5600 12.5035 0.0033
37.5800 12.5101 0.0039
37.6000 12.5168 0.0109
37.6200 12.5234 0.0000
37.6400 12.5300 0.0051
37.6600 12.5367 0.0105
37.6800 12.5434 0.0020
37.7000 12.5501 0.0012
37.7200 12.5568 0.0087
37.7400 12.5634 0.0014
37.7600 12.5701 0.0047
37.7800 12.5767 0.0082
37.8000 12.5833 -0.0054
37.8200 12.5899 0.0087
37.8400 12.5966 0.0124
37.8600 12.6033 -0.0021
37.8800 12.6100 0.0084
37.9000 12.6167 0.0081
37.9200 12.6234 -0.0034
37.9400 12.6301 0.0067
37.9600 12.6367 0.0037
37.9800 12.6434 -0.0007
38.0000 12.6500 0.0103
38.0200 12.6567 0.0023
38.0400 12.6634 -0.0030
38.0600 12.6701 0.0128
38.0800 12.6768 0.0027
38.1000 12.6835 -0.0038
38.1200 12.6902 0.0068
38.1400 12.6968 0.0047
38.1600 12.7034 -0.0065
38.1800 12.7100 0.0106
38.2000 12.7166 0.0022
38.2200 12.7234 -0.0020
38.2400 12.7301 0.0033
38.2600 12.7368 -0.0016
38.2800 12.7435 0.0037
38.3000 12.7501 0.0009
38.3200 12.7568 -0.0016
38.3400 12.7634 0.0024
38.3600 12.7700 -0.0015
38.3800 12.7767 0.0016
38.4000 12.7834 -0.0017
38.4200 12.7901 -0.0045
38.4400 12.7967 0.0070
38.4600 12.8034 -0.0011
38.4800 12.8101 -0.0074
38.5000 12.8168 0.0033
38.5200 12.8234 -0.0017
38.5400 12.8300 -0.0069
38.5600 12.8366 0.0091
38.5800 12.8433 -0.0085
38.6000 12.8500 -0.0042
38.6200 12.8567 0.0125
38.6400 12.8634 -0.0098
38.6600 12.8700 -0.0070
38.6800 12.8767 0.0148
38.7000 12.8833 -0.0116
38.7200 12.8899 -0.0111
38.7400 12.8966 0.0153
38.7600 12.9033 -0.0110
38.7800 12.9101 -0.0074
38.8000 12.9168 0.0079
38.8200 12.9235 -0.0079
38.8400 12.9301 -0.0064
38.8600 12.9368 0.0073
38.8800 12.9434 -0.0086
38.9000 12.9500 -0.0081
38.9200 12.9567 0.0065
38.9400 12.9634 -0.0065
38.9600 12.9701 -0.0101
38.9800 12.9768 0.0085
39.0000 12.9835 -0.0099
39.0200 12.9901 -0.0102
39.0400 12.9968 0.0052
39.0600 13.0034 -0.0118
39.0800 13.0100 -0.0053
39.1000 13.0167 0.0109
39.1200 13.0233 -0.0205
39.1400 13.0300 -0.0120
39.1600 13.0367 0.0209
39.1800 13.0434 -0.0179
39.2000 13.0501 -0.0157
39.2200 13.0568 0.0150
39.2400 13.0634 -0.0130
39.2600 13.0700 -0.0141
39.2800 13.0766 0.0161
39.3000 13.0833 -0.0162
39.3200 13.0900 -0.0085
39.3400 13.0967 0.0090
39.3600 13.1034 -0.0168
39.3800 13.1101 -0.0048
39.4000 13.1168 0.0092
39.4200 13.1234 -0.0211
39.4400 13.1300 0.0000
39.4600 13.1367 0.0144
39.4800 13.1434 -0.0262
39.5000 13.1501 -0.0058
39.5200 13.1568 0.0068
39.5400 13.1634 -0.0151
39.5600 13.1701 0.0030
39.5800 13.1768 -0.0055
39.6000 13.1834 -0.0192
39.6200 13.1900 0.0084
39.6400 13.1967 -0.0032
39.6600 13.2033 -0.0161
39.6800 13.2101 0.0041
39.7000 13.2168 -0.0063
39.7200 13.2234 -0.0167
39.7400 13.2301 0.0112
39.7600 13.2368 -0.0108
39.7800 13.2434 -0.0163
39.8000 13.2500 0.0037
39.8200 13.2566 -0.0084
39.8400 13.2634 -0.0088
39.8600 13.2701 -0.0011
39.8800 13.2768 -0.0132
39.9000 13.2835 -0.0084
39.9200 13.2901 0.0000
39.9400 13.2968 -0.0124
39.9600 13.3034 -0.0085
39.9800 13.3100 -0.0077
40.0000 13.3166 -0.0028
40.0200 13.3233 -0.0078
40.0400 13.3300 -0.0111
40.0600 13.3367 -0.0042
40.0800 13.3434 -0.0072
40.1000 13.3500 -0.0111
40.1200 13.3567 -0.0025
40.1400 13.3634 -0.0055
40.1600 13.3700 -0.0124
40.1800 13.3766 -0.0096
40.2000 13.3833 -0.0042
40.2200 13.3901 -0.0105
40.2400 13.3968 -0.0077
40.2600 13.4035 -0.0094
40.2800 13.4102 -0.0134
40.3000 13.4168 -0.0040
40.3200 13.4234 -0.0080
40.3400 13.4300 -0.0092
40.3600 13.4367 -0.0048
40.3800 13.4434 -0.0071
40.4000 13.4501 -0.0172
40.4200 13.4568 -0.0003
40.4400 13.4635 -0.0059
40.4600 13.4701 -0.0226
40.4800 13.4768 -0.0033
40.5000 13.4834 -0.0001
40.5200 13.4900 -0.0195
40.5400 13.4966 -0.0012
40.5600 13.5033 -0.0025
40.5800 13.5100 -0.0195
40.6000 13.5167 -0.0125
40.6200 13.5234 -0.0031
40.6400 13.5301 -0.0143
40.6600 13.5368 -0.0099
40.6800 13.5434 -0.0085
40.7000 13.5500 -0.0184
40.7200 13.5566 -0.0010
40.7400 13.5633 -0.0044
40.7600 13.5700 -0.0171
40.7800 13.5767 -0.0042
40.8000 13.5834 -0.0056
40.8200 13.5901 -0.0173
40.8400 13.5968 -0.0046
40.8600 13.6034 -0.0040
40.8800 13.6100 -0.0158
40.9000 13.6166 -0.0087
40.9200 13.6233 0.0004
40.9400 13.6301 -0.0143
40.9600 13.6368 -0.0108
40.9800 13.6435 -0.0087
41.0000 13.6501 -0.0087
41.0200 13.6568 -0.0076
41.0400 13.6634 -0.0096
41.0600 13.6700 -0.0136
41.0800 13.6767 -0.0104
41.1000 13.6834 -0.0020
41.1200 13.6901 -0.0132
41.1400 13.6968 -0.0081
41.1600 13.7034 -0.0067
41.1800 13.7101 -0.0142
41.2000 13.7168 -0.0104
41.2200 13.7234 -0.0080
41.2400 13.7300 -0.0107
41.2600 13.7366 -0.0096
41.2800 13.7433 -0.0063
41.3000 13.7500 -0.0092
41.3200 13.7567 -0.0148
41.3400 13.7634 -0.0051
41.3600 13.7701 -0.0174
41.3800 13.7768 -0.0124
41.4000 13.7834 -0.0058
41.4200 13.7900 -0.0143
41.4400 13.7966 -0.0117
41.4600 13.8033 -0.0064
41.4800 13.8100 -0.0114
41.5000 13.8167 -0.0108
41.5200 13.8233 -0.0065
41.5400 13.8300 -0.0166
41.5600 13.8368 -0.0116
41.5800 13.8434 -0.0083
41.6000 13.8501 -0.0176
41.6200 13.8567 -0.0055
41.6400 13.8633 -0.0100
41.6600 13.8700 -0.0156
41.6800 13.8767 -0.0065
41.7000 13.8834 -0.0166
41.7200 13.8901 -0.0096
41.7400 13.8968 -0.0118
41.7600 13.9035 -0.0200
41.7800 13.9100 -0.0062
41.8000 13.9167 -0.0109
41.8200 13.9234 -0.0146
41.8400 13.9301 -0.0051
41.8600 13.9368 -0.0173
41.8800 13.9435 -0.0100
41.9000 13.9501 -0.0070
41.9200 13.9568 -0.0204
41.9400 13.9634 -0.0094
41.9600 13.9700 -0.0065
41.9800 13.9767 -0.0181
42.0000 13.9834 -0.0101
42.0200 13.9901 -0.0085
42.0400 13.9967 -0.0177
42.0600 14.0034 -0.0070
42.0800 14.0101 -0.0124
42.1000 14.0168 -0.0190
42.1200 14.0234 -0.0102
42.1400 14.0300 -0.0108
42.1600 14.0366 -0.0196
42.1800 14.0433 -0.0057
42.2000 14.0500 -0.0104
42.2200 14.0567 -0.0226
42.2400 14.0634 -0.0109
42.2600 14.0701 -0.0107
42.2800 14.0768 -0.0203
42.3000 14.0834 -0.0113
42.3200 14.0900 -0.0103
42.3400 14.0966 -0.0171
42.3600 14.1033 -0.0125
42.3800 14.1101 -0.0095
42.4000 14.1168 -0.0223
42.4200 14.1235 -0.0133
42.4400 14.1302 -0.0065
42.4600 14.1368 -0.0274
42.4800 14.1435 -0.0114
42.5000 14.1501 -0.0055
42.5200 14.1567 -0.0240
42.5400 14.1634 -0.0181
42.5600 14.1701 -0.0059
42.5800 14.1768 -0.0277
42.6000 14.1834 -0.0128
42.6200 14.1901 -0.0079
42.6400 14.1968 -0.0297
42.6600 14.2034 -0.0135
42.6800 14.2100 -0.0057
42.7000 14.2166 -0.0287
42.7200 14.2233 -0.0131
42.7400 14.2300 -0.0123
42.7600 14.2367 -0.0313
42.7800 14.2434 -0.0111
42.8000 14.2501 -0.0137
42.8200 14.2568 -0.0328
42.8400 14.2634 -0.0093
42.8600 14.2700 -0.0148
42.8800 14.2766 -0.0353
42.9000 14.2833 -0.0024
42.9200 14.2900 -0.0167
42.9400 14.2967 -0.0357
42.9600 14.3034 -0.0059
42.9800 14.3101 -0.0156
43.0000 14.3168 -0.0344
43.0200 14.3234 -0.0097
43.0400 14.3300 -0.0188
43.0600 14.3367 -0.0277
43.0800 14.3433 -0.0093
43.1000 14.3500 -0.0218
43.1200 14.3567 -0.0321
43.1400 14.3634 -0.0076
43.1600 14.3701 -0.0219
43.1800 14.3768 -0.0313
43.2000 14.3835 -0.0104
43.2200 14.3901 -0.0205
43.2400 14.3967 -0.0305
43.2600 14.4033 -0.0141
43.2800 14.4100 -0.0174
43.3000 14.4168 -0.0311
43.3200 14.4235 -0.0174
43.3400 14.4302 -0.0168
43.3600 14.4368 -0.0277
43.3800 14.4435 -0.0164
43.4000 14.4501 -0.0198
43.4200 14.4567 -0.0281
43.4400 14.4633 -0.0129
43.4600 14.4700 -0.0215
43.4800 14.4767 -0.0273
43.5000 14.4834 -0.0147
43.5200 14.4900 -0.0192
43.5400 14.4967 -0.0258
43.5600 14.5034 -0.0178
43.5800 14.5100 -0.0264
43.6000 14.5166 -0.0200
43.6200 14.5233 -0.0142
43.6400 14.5300 -0.0275
43.6600 14.5367 -0.0214
43.6800 14.5434 -0.0163
43.7000 14.5500 -0.0210
43.7200 14.5567 -0.0242
43.7400 14.5634 -0.0205
43.7600 14.5701 -0.0221
43.7800 14.5767 -0.0241
43.8000 14.5833 -0.0279
43.8200 14.5900 -0.0172
43.8400 14.5967 -0.0209
43.8600 14.6034 -0.0286
43.8800 14.6101 -0.0185
43.9000 14.6168 -0.0239
43.9200 14.6234 -0.0304
43.9400 14.6300 -0.0143
43.9600 14.6366 -0.0262
43.9800 14.6433 -0.0264
44.0000 14.6501 -0.0165
44.0200 14.6568 -0.0282
44.0400 14.6635 -0.0231
44.0600 14.6701 -0.0182
44.0800 14.6768 -0.0274
44.1000 14.6835 -0.0279
44.1200 14.6901 -0.0173
44.1400 14.6967 -0.0255
44.1600 14.7033 -0.0211
44.1800 14.7100 -0.0225
44.2000 14.7167 -0.0278
44.2200 14.7234 -0.0203
44.2400 14.7301 -0.0240
44.2600 14.7368 -0.0284
44.2800 14.7435 -0.0251
44.3000 14.7501 -0.0261
44.3200 14.7566 -0.0172
44.3400 14.7633 -0.0239
44.3600 14.7700 -0.0310
44.3800 14.7767 -0.0179
44.4000 14.7834 -0.0211
44.4200 14.7900 -0.0373
44.4400 14.7967 -0.0272
44.4600 14.8034 -0.0184
44.4800 14.8100 -0.0285
44.5000 14.8166 -0.0208
44.5200 14.8233 -0.0347
44.5400 14.8300 -0.0284
44.5600 14.8367 -0.0144
44.5800 14.8434 -0.0304
44.6000 14.8501 -0.0329
44.6200 14.8568 -0.0164
44.6400 14.8635 -0.0293
44.6600 14.8701 -0.0291
44.6800 14.8767 -0.0229
44.7000 14.8833 -0.0255
44.7200 14.8900 -0.0259
44.7400 14.8967 -0.0291
44.7600 14.9034 -0.0354
44.7800 14.9101 -0.0111
44.8000 14.9168 -0.0193
44.8200 14.9235 -0.0468
44.8400 14.9301 -0.0248
44.8600 14.9367 -0.0181
44.8800 14.9433 -0.0265
44.9000 14.9500 -0.0279
44.9200 14.9567 -0.0276
44.9400 14.9634 -0.0286
44.9600 14.9701 -0.0229
44.9800 14.9768 -0.0271
45.0000 14.9834 -0.0302
45.0200 14.9900 -0.0243
45.0400 14.9966 -0.0281
45.0600 15.0033 -0.0320
45.0800 15.0100 -0.0233
45.1000 15.0167 -0.0281
45.1200 15.0234 -0.0315
45.1400 15.0301 -0.0306
45.1600 15.0367 -0.0235
45.1800 15.0434 -0.0262
45.2000 15.0501 -0.0285
45.2200 15.0567 -0.0256
45.2400 15.0634 -0.0317
45.2600 15.0700 -0.0281
45.2800 15.0767 -0.0233
45.3000 15.0834 -0.0299
45.3200 15.0901 -0.0372
45.3400 15.0968 -0.0235
45.3600 15.1035 -0.0258
45.3800 15.1101 -0.0380
45.4000 15.1167 -0.0257
45.4200 15.1233 -0.0239
45.4400 15.1300 -0.0353
45.4600 15.1367 -0.0224
45.4800 15.1434 -0.0303
45.5000 15.1501 -0.0356
45.5200 15.1568 -0.0221
45.5400 15.1634 -0.0335
45.5600 15.1700 -0.0362
45.5800 15.1766 -0.0154
45.6000 15.1833 -0.0327
45.6200 15.1900 -0.0367
45.6400 15.1968 -0.0183
45.6600 15.2035 -0.0356
45.6800 15.2101 -0.0344
45.7000 15.2168 -0.0222
45.7200 15.2234 -0.0376
45.7400 15.2301 -0.0340
45.7600 15.2367 -0.0181
45.7800 15.2433 -0.0389
45.8000 15.2500 -0.0320
45.8200 15.2567 -0.0229
45.8400 15.2634 -0.0375
45.8600 15.2701 -0.0345
45.8800 15.2768 -0.0218
45.9000 15.2834 -0.0384
45.9200 15.2901 -0.0359
45.9400 15.2967 -0.0279
45.9600 15.3033 -0.0311
45.9800 15.3100 -0.0322
46.0000 15.3167 -0.0295
46.0200 15.3234 -0.0360
46.0400 15.3301 -0.0340
46.0600 15.3368 -0.0282
46.0800 15.3435 -0.0321
46.1000 15.3501 -0.0369
46.1200 15.3567 -0.0322
46.1400 15.3633 -0.0256
46.1600 15.3700 -0.0358
46.1800 15.3767 -0.0313
46.2000 15.3834 -0.0337
46.2200 15.3901 -0.0301
46.2400 15.3968 -0.0287
46.2600 15.4035 -0.0387
46.2800 15.4101 -0.0338
46.3000 15.4167 -0.0266
46.3200 15.4233 -0.0402
46.3400 15.4300 -0.0299
46.3600 15.4367 -0.0233
46.3800 15.4434 -0.0405
46.4000 15.4501 -0.0343
46.4200 15.4568 -0.0233
46.4400 15.4635 -0.0397
46.4600 15.4701 -0.0336
46.4800 15.4767 -0.0281
46.5000 15.4833 -0.0364
46.5200 15.4899 -0.0311
46.5400 15.4967 -0.0297
46.5600 15.5034 -0.0326
46.5800 15.5100 -0.0350
46.6000 15.5167 -0.0272
46.6200 15.5234 -0.0346
46.6400 15.5301 -0.0353
46.6600 15.5367 -0.0331
46.6800 15.5433 -0.0337
46.7000 15.5500 -0.0365
46.7200 15.5567 -0.0337
46.7400 15.5634 -0.0295
46.7600 15.5701 -0.0375
46.7800 15.5768 -0.0285
46.8000 15.5835 -0.0306
46.8200 15.5902 -0.0425
46.8400 15.5968 -0.0261
46.8600 15.6034 -0.0293
46.8800 15.6100 -0.0467
46.9000 15.6167 -0.0244
46.9200 15.6234 -0.0326
46.9400 15.6301 -0.0396
46.9600 15.6368 -0.0245
46.9800 15.6435 -0.0346
47.0000 15.6501 -0.0414
47.0200 15.6567 -0.0258
47.0400 15.6633 -0.0349
47.0600 15.6700 -0.0389
47.0800 15.6767 -0.0274
47.1000 15.6834 -0.0385
47.1200 15.6901 -0.0375
47.1400 15.6967 -0.0250
47.1600 15.7034 -0.0358
47.1800 15.7101 -0.0410
47.2000 15.7167 -0.0299
47.2200 15.7233 -0.0352
47.2400 15.7300 -0.0406
47.2600 15.7367 -0.0317
47.2800 15.7434 -0.0366
47.3000 15.7501 -0.0421
47.3200 15.7567 -0.0288
47.3400 15.7634 -0.0349
47.3600 15.7701 -0.0400
47.3800 15.7767 -0.0339
47.4000 15.7833 -0.0306
47.4200 15.7900 -0.0407
47.4400 15.7967 -0.0356
47.4600 15.8034 -0.0365
47.4800 15.8101 -0.0384
47.5000 15.8168 -0.0326
47.5200 15.8235 -0.0346
47.5400 15.8301 -0.0399
47.5600 15.8367 -0.0286
47.5800 15.8433 -0.0382
47.6000 15.8500 -0.0414
47.6200 15.8567 -0.0290
47.6400 15.8634 -0.0420
47.6600 15.8701 -0.0377
47.6800 15.8768 -0.0284
47.7000 15.8835 -0.0424
47.7200 15.8901 -0.0401
47.7400 15.8967 -0.0299
47.7600 15.9033 -0.0419
47.7800 15.9100 -0.0364
47.8000 15.9167 -0.0337
47.8200 15.9234 -0.0403
47.8400 15.9301 -0.0398
47.8600 15.9367 -0.0331
47.8800 15.9434 -0.0419
47.9000 15.9501 -0.0394
47.9200 15.9567 -0.0381
47.9400 15.9633 -0.0416
47.9600 15.9699 -0.0325
47.9800 15.9766 -0.0368
48.0000 15.9834 -0.0398
48.0200 15.9901 -0.0368
48.0400 15.9968 -0.0386
48.0600 16.0035 -0.0365
48.0800 16.0101 -0.0393
48.1000 16.0167 -0.0410
48.1200 16.0233 -0.0352
48.1400 16.0300 -0.0457
48.1600 16.0367 -0.0424
48.1800 16.0435 -0.0349
48.2000 16.0501 -0.0415
48.2200 16.0568 -0.0423
48.2400 16.0635 -0.0367
48.2600 16.0701 -0.0417
48.2800 16.0767 -0.0392
48.3000 16.0833 -0.0399
48.3200 16.0900 -0.0444
48.3400 16.0967 -0.0361
48.3600 16.1034 -0.0395
48.3800 16.1101 -0.0489
48.4000 16.1168 -0.0359
48.4200 16.1235 -0.0394
48.4400 16.1301 -0.0450
48.4600 16.1367 -0.0353
48.4800 16.1433 -0.0424
48.5000 16.1500 -0.0415
48.5200 16.1567 -0.0393
48.5400 16.1634 -0.0474
48.5600 16.1701 -0.0411
48.5800 16.1768 -0.0381
48.6000 16.1835 -0.0479
48.6200 16.1901 -0.0400
48.6400 16.1967 -0.0416
48.6600 16.2033 -0.0454
48.6800 16.2099 -0.0374
48.7000 16.2166 -0.0418
48.7200 16.2234 -0.0439
48.7400 16.2301 -0.0437
48.7600 16.2367 -0.0452
48.7800 16.2434 -0.0353
48.8000 16.2501 -0.0489
48.8200 16.2567 -0.0487
48.8400 16.2633 -0.0278
48.8600 16.2700 -0.0540
48.8800 16.2767 -0.0522
48.9000 16.2834 -0.0283
48.9200 16.2901 -0.0544
48.9400 16.2968 -0.0512
48.9600 16.3035 -0.0294
48.9800 16.3102 -0.0522
49.0000 16.3168 -0.0444
49.0200 16.3233 -0.0352
49.0400 16.3300 -0.0482
49.0600 16.3367 -0.0389
49.0800 16.3434 -0.0387
49.1000 16.3501 -0.0564
49.1200 16.3568 -0.0382
49.1400 16.3635 -0.0391
49.1600 16.3701 -0.0514
49.1800 16.3767 -0.0395
49.2000 16.3833 -0.0459
49.2200 16.3900 -0.0444
49.2400 16.3967 -0.0369
49.2600 16.4034 -0.0529
49.2800 16.4100 -0.0442
49.3000 16.4167 -0.0355
49.3200 16.4234 -0.0547
49.3400 16.4301 -0.0400
49.3600 16.4367 -0.0406
49.3800 16.4433 -0.0541
49.4000 16.4500 -0.0377
49.4200 16.4566 -0.0409
49.4400 16.4633 -0.0572
49.4600 16.4700 -0.0331
49.4800 16.4767 -0.0464
49.5000 16.4834 -0.0528
49.5200 16.4901 -0.0348
49.5400 16.4967 -0.0550
49.5600 16.5033 -0.0440
49.5800 16.5100 -0.0351
49.6000 16.5167 -0.0569
49.6200 16.5234 -0.0439
49.6400 16.5301 -0.0355
49.6600 16.5368 -0.0596
49.6800 16.5435 -0.0361
49.7000 16.5501 -0.0387
49.7200 16.5567 -0.0597
49.7400 16.5634 -0.0363
49.7600 16.5700 -0.0387
49.7800 16.5767 -0.0541
49.8000 16.5834 -0.0350
49.8200 16.5901 -0.0518
49.8400 16.5968 -0.0508
49.8600 16.6035 -0.0344
49.8800 16.6101 -0.0510
49.9000 16.6168 -0.0499
49.9200 16.6234 -0.0386
49.9400 16.6300 -0.0511
49.9600 16.6367 -0.0501
49.9800 16.6434 -0.0428
50.0000 16.6501 -0.0494
50.0200 16.6568 -0.0417
50.0400 16.6635 -0.0455
50.0600 16.6701 -0.0537
50.0800 16.6767 -0.0426
50.1000 16.6833 -0.0429
50.1200 16.6899 -0.0467
50.1400 16.6966 -0.0427
50.1600 16.7034 -0.0500
50.1800 16.7101 -0.0467
50.2000 16.7168 -0.0516
50.2200 16.7234 -0.0483
50.2400 16.7301 -0.0420
50.2600 16.7367 -0.0489
50.2800 16.7433 -0.0534
50.3000 16.7500 -0.0378
50.3200 16.7567 -0.0478
50.3400 16.7634 -0.0559
50.3600 16.7701 -0.0405
50.3800 16.7768 -0.0524
50.4000 16.7834 -0.0538
50.4200 16.7901 -0.0383
50.4400 16.7968 -0.0518
50.4600 16.8034 -0.0534
50.4800 16.8100 -0.0391
50.5000 16.8167 -0.0545
50.5200 16.8234 -0.0541
50.5400 16.8301 -0.0382
50.5600 16.8368 -0.0516
50.5800 16.8435 -0.0560
50.6000 16.8501 -0.0411
50.6200 16.8568 -0.0554
50.6400 16.8634 -0.0507
50.6600 16.8700 -0.0399
50.6800 16.8767 -0.0609
50.7000 16.8834 -0.0489
50.7200 16.8901 -0.0430
50.7400 16.8968 -0.0609
50.7600 16.9034 -0.0465
50.7800 16.9101 -0.0451
50.8000 16.9167 -0.0597
50.8200 16.9233 -0.0470
50.8400 16.9300 -0.0476
50.8600 16.9367 -0.0597
50.8800 16.9433 -0.0457
50.9000 16.9500 -0.0467
50.9200 16.9567 -0.0573
50.9400 16.9634 -0.0444
50.9600 16.9701 -0.0498
50.9800 16.9767 -0.0559
51.0000 16.9833 -0.0480
51.0200 16.9899 -0.0539
51.0400 16.9966 -0.0519
51.0600 17.0033 -0.0495
51.0800 17.0101 -0.0546
51.1000 17.0168 -0.0551
51.1200 17.0235 -0.0507
51.1400 17.0301 -0.0588
51.1600 17.0368 -0.0572
51.1800 17.0434 -0.0507
51.2000 17.0500 -0.0553
51.2200 17.0567 -0.0547
51.2400 17.0634 -0.0534
51.2600 17.0701 -0.0569
51.2800 17.0768 -0.0555
51.3000 17.0834 -0.0561
51.3200 17.0901 -0.0534
51.3400 17.0968 -0.0604
51.3600 17.1034 -0.0523
51.3800 17.1100 -0.0567
51.4000 17.1167 -0.0565
51.4200 17.1233 -0.0565
51.4400 17.1300 -0.0599
51.4600 17.1367 -0.0572
51.4800 17.1434 -0.0588
51.5000 17.1501 -0.0569
51.5200 17.1568 -0.0560
51.5400 17.1634 -0.0583
51.5600 17.1700 -0.0565
51.5800 17.1766 -0.0552
51.6000 17.1834 -0.0555
51.6200 17.1901 -0.0537
51.6400 17.1968 -0.0561
51.6600 17.2034 -0.0618
51.6800 17.2101 -0.0615
51.7000 17.2167 -0.0525
51.7200 17.2234 -0.0582
51.7400 17.2300 -0.0576
51.7600 17.2367 -0.0551
51.7800 17.2434 -0.0613
51.8000 17.2501 -0.0598
51.8200 17.2567 -0.0521
51.8400 17.2634 -0.0567
51.8600 17.2701 -0.0599
51.8800 17.2768 -0.0551
51.9000 17.2834 -0.0622
51.9200 17.2900 -0.0615
51.9400 17.2967 -0.0484
51.9600 17.3034 -0.0616
51.9800 17.3101 -0.0591
52.0000 17.3168 -0.0527
52.0200 17.3234 -0.0608
52.0400 17.3301 -0.0610
52.0600 17.3367 -0.0555
52.0800 17.3433 -0.0585
52.1000 17.3499 -0.0598
52.1200 17.3566 -0.0549
52.1400 17.3634 -0.0618
52.1600 17.3701 -0.0580
52.1800 17.3768 -0.0565
52.2000 17.3835 -0.0615
52.2200 17.3901 -0.0624
52.2400 17.3968 -0.0553
52.2600 17.4034 -0.0596
52.2800 17.4100 -0.0560
52.3000 17.4166 -0.0572
52.3200 17.4233 -0.0604
52.3400 17.4300 -0.0589
52.3600 17.4367 -0.0585
52.3800 17.4434 -0.0588
52.4000 17.4501 -0.0579
52.4200 17.4567 -0.0579
52.4400 17.4634 -0.0640
52.4600 17.4700 -0.0574
52.4800 17.4767 -0.0558
52.5000 17.4834 -0.0614
52.5200 17.4901 -0.0581
52.5400 17.4968 -0.0589
52.5600 17.5035 -0.0641
52.5800 17.5102 -0.0586
52.6000 17.5168 -0.0598
52.6200 17.5234 -0.0590
52.6400 17.5300 -0.0586
52.6600 17.5367 -0.0582
52.6800 17.5434 -0.0592
52.7000 17.5501 -0.0583
52.7200 17.5568 -0.0556
52.7400 17.5635 -0.0562
52.7600 17.5701 -0.0612
52.7800 17.5768 -0.0589
52.8000 17.5834 -0.0526
52.8200 17.5900 -0.0629
52.8400 17.5967 -0.0571
52.8600 17.6034 -0.0556
52.8800 17.6101 -0.0638
52.9000 17.6167 -0.0556
52.9200 17.6234 -0.0539
52.9400 17.6301 -0.0587
52.9600 17.6368 -0.0578
52.9800 17.6434 -0.0626
53.0000 17.6500 -0.0598
53.0200 17.6567 -0.0529
53.0400 17.6633 -0.0626
53.0600 17.6700 -0.0656
53.0800 17.6767 -0.0491
53.1000 17.6834 -0.0630
53.1200 17.6900 -0.0635
53.1400 17.6967 -0.0491
53.1600 17.7033 -0.0644
53.1800 17.7100 -0.0639
53.2000 17.7166 -0.0550
53.2200 17.7234 -0.0613
53.2400 17.7301 -0.0594
53.2600 17.7368 -0.0562
53.2800 17.7435 -0.0707
53.3000 17.7502 -0.0583
53.3200 17.7568 -0.0547
53.3400 17.7634 -0.0704
53.3600 17.7700 -0.0595
53.3800 17.7767 -0.0512
53.4000 17.7834 -0.0707
53.4200 17.7901 -0.0597
53.4400 17.7968 -0.0555
53.4600 17.8035 -0.0667
53.4800 17.8101 -0.0593
53.5000 17.8168 -0.0596
53.5200 17.8234 -0.0690
53.5400 17.8300 -0.0623
53.5600 17.8367 -0.0582
53.5800 17.8433 -0.0669
53.6000 17.8500 -0.0612
53.6200 17.8567 -0.0618
53.6400 17.8634 -0.0686
53.6600 17.8701 -0.0597
53.6800 17.8768 -0.0619
53.7000 17.8834 -0.0676
53.7200 17.8900 -0.0600
53.7400 17.8966 -0.0659
53.7600 17.9033 -0.0603
53.7800 17.9100 -0.0648
53.8000 17.9167 -0.0614
53.8200 17.9234 -0.0642
53.8400 17.9301 -0.0676
53.8600 17.9367 -0.0649
53.8800 17.9434 -0.0638
53.9000 17.9500 -0.0658
53.9200 17.9567 -0.0616
53.9400 17.9634 -0.0641
53.9600 17.9701 -0.0696
53.9800 17.9767 -0.0593
54.0000 17.9834 -0.0649
54.0200 17.9901 -0.0687
54.0400 17.9968 -0.0627
54.0600 18.0034 -0.0663
54.0800 18.0100 -0.0684
54.1000 18.0166 -0.0622
54.1200 18.0233 -0.0692
54.1400 18.0300 -0.0642
54.1600 18.0367 -0.0668
54.1800 18.0434 -0.0703
54.2000 18.0501 -0.0684
54.2200 18.0568 -0.0596
54.2400 18.0634 -0.0708
54.2600 18.0700 -0.0655
54.2800 18.0767 -0.0610
54.3000 18.0834 -0.0688
54.3200 18.0901 -0.0628
54.3400 18.0968 -0.0642
54.3600 18.1034 -0.0708
54.3800 18.1101 -0.0674
54.4000 18.1168 -0.0656
54.4200 18.1234 -0.0712
54.4400 18.1300 -0.0661
54.4600 18.1366 -0.0618
54.4800 18.1433 -0.0687
54.5000 18.1500 -0.0707
54.5200 18.1567 -0.0648
54.5400 18.1634 -0.0662
54.5600 18.1700 -0.0672
54.5800 18.1767 -0.0670
54.6000 18.1834 -0.0668
54.6200 18.1900 -0.0673
54.6400 18.1966 -0.0657
54.6600 18.2033 -0.0708
54.6800 18.2101 -0.0634
54.7000 18.2168 -0.0677
54.7200 18.2235 -0.0750
54.7400 18.2302 -0.0674
54.7600 18.2368 -0.0648
54.7800 18.2435 -0.0719
54.8000 18.2500 -0.0701
54.8200 18.2567 -0.0623
54.8400 18.2634 -0.0685
54.8600 18.2701 -0.0663
54.8800 18.2768 -0.0689
54.9000 18.2835 -0.0670
54.9200 18.2901 -0.0677
54.9400 18.2968 -0.0676
54.9600 18.3034 -0.0756
54.9800 18.3100 -0.0625
55.0000 18.3167 -0.0656
55.0200 18.3233 -0.0766
55.0400 18.3300 -0.0687
55.0600 18.3367 -0.0684
55.0800 18.3434 -0.0732
55.1000 18.3501 -0.0685
55.1200 18.3568 -0.0692
55.1400 18.3634 -0.0715
55.1600 18.3700 -0.0680
55.1800 18.3766 -0.0685
55.2000 18.3833 -0.0730
55.2200 18.3900 -0.0668
55.2400 18.3967 -0.0714
55.2600 18.4034 -0.0736
55.2800 18.4101 -0.0707
55.3000 18.4167 -0.0763
55.3200 18.4234 -0.0699
55.3400 18.4300 -0.0741
55.3600 18.4366 -0.0717
55.3800 18.4433 -0.0712
55.4000 18.4501 -0.0745
55.4200 18.4568 -0.0756
55.4400 18.4635 -0.0742
55.4600 18.4701 -0.0684
55.4800 18.4768 -0.0739
55.5000 18.4835 -0.0777
55.5200 18.4901 -0.0730
55.5400 18.4967 -0.0724
55.5600 18.5034 -0.0775
55.5800 18.5100 -0.0706
55.6000 18.5167 -0.0736
55.6200 18.5234 -0.0739
55.6400 18.5301 -0.0733
55.6600 18.5368 -0.0737
55.6800 18.5435 -0.0774
55.7000 18.5501 -0.0744
55.7200 18.5566 -0.0737
55.7400 18.5633 -0.0763
55.7600 18.5700 -0.0756
55.7800 18.5767 -0.0725
55.8000 18.5834 -0.0792
55.8200 18.5901 -0.0756
55.8400 18.5968 -0.0757
55.8600 18.6034 -0.0776
55.8800 18.6100 -0.0761
55.9000 18.6166 -0.0745
55.9200 18.6233 -0.0772
55.9400 18.6300 -0.0756
55.9600 18.6367 -0.0751
55.9800 18.6434 -0.0842
56.0000 18.6501 -0.0770
56.0200 18.6568 -0.0757
56.0400 18.6634 -0.0810
56.0600 18.6700 -0.0774
56.0800 18.6767 -0.0749
56.1000 18.6833 -0.0822
56.1200 18.6901 -0.0716
56.1400 18.6967 -0.0807
56.1600 18.7034 -0.0821
56.1800 18.7101 -0.0678
56.2000 18.7168 -0.0807
56.2200 18.7235 -0.0870
56.2400 18.7301 -0.0722
56.2600 18.7367 -0.0799
56.2800 18.7433 -0.0797
56.3000 18.7500 -0.0712
56.3200 18.7568 -0.0851
56.3400 18.7634 -0.0780
56.3600 18.7701 -0.0737
56.3800 18.7768 -0.0829
56.4000 18.7834 -0.0751
56.4200 18.7900 -0.0768
56.4400 18.7967 -0.0823
56.4600 18.8033 -0.0751
56.4800 18.8101 -0.0789
56.5000 18.8167 -0.0784
56.5200 18.8234 -0.0769
56.5400 18.8301 -0.0800
56.5600 18.8368 -0.0796
56.5800 18.8434 -0.0762
56.6000 18.8500 -0.0836
56.6200 18.8566 -0.0774
56.6400 18.8633 -0.0788
56.6600 18.8700 -0.0808
56.6800 18.8767 -0.0777
56.7000 18.8834 -0.0755
56.7200 18.8901 -0.0792
56.7400 18.8968 -0.0796
56.7600 18.9034 -0.0792
56.7800 18.9100 -0.0797
56.8000 18.9167 -0.0761
56.8200 18.9233 -0.0785
56.8400 18.9301 -0.0767
56.8600 18.9368 -0.0780
56.8800 18.9435 -0.0818
56.9000 18.9501 -0.0730
56.9200 18.9568 -0.0813
56.9400 18.9635 -0.0818
56.9600 18.9701 -0.0703
56.9800 18.9767 -0.0854
57.0000 18.9833 -0.0781
57.0200 18.9901 -0.0772
57.0400 18.9968 -0.0826
57.0600 19.0034 -0.0789
57.0800 19.0101 -0.0767
57.1000 19.0168 -0.0878
57.1200 19.0234 -0.0772
57.1400 19.0300 -0.0753
57.1600 19.0366 -0.0874
57.1800 19.0433 -0.0723
57.2000 19.0500 -0.0767
57.2200 19.0567 -0.0888
57.2400 19.0634 -0.0744
57.2600 19.0701 -0.0786
57.2800 19.0768 -0.0859
57.3000 19.0834 -0.0766
57.3200 19.0900 -0.0848
57.3400 19.0966 -0.0837
57.3600 19.1033 -0.0755
57.3800 19.1100 -0.0789
57.4000 19.1167 -0.0858
57.4200 19.1234 -0.0761
57.4400 19.1301 -0.0818
57.4600 19.1367 -0.0831
57.4800 19.1434 -0.0786
57.5000 19.1500 -0.0864
57.5200 19.1567 -0.0802
57.5400 19.1633 -0.0791
57.5600 19.1700 -0.0834
57.5800 19.1768 -0.0845
57.6000 19.1834 -0.0811
57.6200 19.1901 -0.0838
57.6400 19.1968 -0.0813
57.6600 19.2035 -0.0827
57.6800 19.2101 -0.0806
57.7000 19.2167 -0.0841
57.7200 19.2233 -0.0807
57.7400 19.2300 -0.0804
57.7600 19.2368 -0.0837
57.7800 19.2435 -0.0835
57.8000 19.2502 -0.0761
57.8200 19.2568 -0.0880
57.8400 19.2635 -0.0822
57.8600 19.2701 -0.0799
57.8800 19.2767 -0.0872
57.9000 19.2833 -0.0771
57.9200 19.2900 -0.0801
57.9400 19.2967 -0.0908
57.9600 19.3033 -0.0781
57.9800 19.3100 -0.0791
58.0000 19.3167 -0.0882
58.0200 19.3234 -0.0787
58.0400 19.3300 -0.0827
58.0600 19.3366 -0.0872
58.0800 19.3433 -0.0772
58.1000 19.3500 -0.0833
58.1200 19.3567 -0.0908
58.1400 19.3634 -0.0751
58.1600 19.3700 -0.0870
58.1800 19.3767 -0.0859
58.2000 19.3834 -0.0766
58.2200 19.3901 -0.0872
58.2400 19.3967 -0.0881
58.2600 19.4033 -0.0783
58.2800 19.4100 -0.0814
58.3000 19.4167 -0.0871
58.3200 19.4234 -0.0815
58.3400 19.4301 -0.0852
58.3600 19.4368 -0.0833
58.3800 19.4435 -0.0843
58.4000 19.4501 -0.0864
58.4200 19.4567 -0.0817
58.4400 19.4633 -0.0789
58.4600 19.4700 -0.0892
58.4800 19.4767 -0.0867
58.5000 19.4834 -0.0838
58.5200 19.4901 -0.0833
58.5400 19.4968 -0.0874
58.5600 19.5035 -0.0865
58.5800 19.5101 -0.0855
58.6000 19.5167 -0.0861
58.6200 19.5233 -0.0809
58.6400 19.5300 -0.0813
58.6600 19.5367 -0.0913
58.6800 19.5434 -0.0823
58.7000 19.5501 -0.0839
58.7200 19.5568 -0.0899
58.7400 19.5635 -0.0815
58.7600 19.5701 -0.0852
58.7800 19.5767 -0.0881
58.8000 19.5833 -0.0819
58.8200 19.5900 -0.0860
58.8400 19.5967 -0.0874
58.8600 19.6034 -0.0806
58.8800 19.6100 -0.0906
58.9000 19.6167 -0.0883
58.9200 19.6234 -0.0846
58.9400 19.6300 -0.0942
58.9600 19.6366 -0.0831
58.9800 19.6433 -0.0857
59.0000 19.6500 -0.0886
59.0200 19.6567 -0.0838
59.0400 19.6634 -0.0886
59.0600 19.6701 -0.0917
59.0800 19.6768 -0.0863
59.1000 19.6835 -0.0887
59.1200 19.6901 -0.0923
59.1400 19.6967 -0.0842
59.1600 19.7034 -0.0838
59.1800 19.7101 -0.0915
59.2000 19.7168 -0.0858
59.2200 19.7234 -0.0924
59.2400 19.7301 -0.0907
59.2600 19.7368 -0.0840
59.2800 19.7435 -0.0941
59.3000 19.7500 -0.1013
