Raw Data
Time Displacement Force
(s) (mm) (N)
0.0000 0.0001 -0.0640
0.0200 0.0001 -0.0585
0.0400 0.0009 -0.0124
0.0600 0.0041 0.0282
0.0800 0.0097 0.0293
0.1000 0.0155 0.0574
0.1200 0.0214 0.1190
0.1400 0.0280 0.1520
0.1600 0.0353 0.1581
0.1800 0.0427 0.1687
0.2000 0.0498 0.1562
0.2200 0.0567 0.1581
0.2400 0.0634 0.1610
0.2600 0.0701 0.1613
0.2800 0.0767 0.1630
0.3000 0.0834 0.1616
0.3200 0.0901 0.1543
0.3400 0.0969 0.1671
0.3600 0.1035 0.1644
0.3800 0.1102 0.1590
0.4000 0.1168 0.1720
0.4200 0.1235 0.1629
0.4400 0.1302 0.1643
0.4600 0.1369 0.1710
0.4800 0.1436 0.1640
0.5000 0.1503 0.1734
0.5200 0.1570 0.1696
0.5400 0.1636 0.1638
0.5600 0.1702 0.1733
0.5800 0.1768 0.1767
0.6000 0.1835 0.1699
0.6200 0.1902 0.1759
0.6400 0.1969 0.1748
0.6600 0.2036 0.1752
0.6800 0.2103 0.1807
0.7000 0.2169 0.1723
0.7200 0.2236 0.1773
0.7400 0.2302 0.1837
0.7600 0.2368 0.1801
0.7800 0.2435 0.1844
0.8000 0.2502 0.1864
0.8200 0.2569 0.1784
0.8400 0.2635 0.1886
0.8600 0.2702 0.1865
0.8800 0.2769 0.1829
0.9000 0.2835 0.1933
0.9200 0.2901 0.1902
0.9400 0.2967 0.1862
0.9600 0.3034 0.1950
0.9800 0.3101 0.1819
1.0000 0.3168 0.1906
1.0200 0.3235 0.2011
1.0400 0.3302 0.1810
1.0600 0.3369 0.1855
1.0800 0.3435 0.2032
1.1000 0.3501 0.1803
1.1200 0.3568 0.1835
1.1400 0.3635 0.1992
1.1600 0.3702 0.1849
1.1800 0.3769 0.1821
1.2000 0.3836 0.1928
1.2200 0.3903 0.1805
1.2400 0.3969 0.1867
1.2600 0.4036 0.1872
1.2800 0.4102 0.1812
1.3000 0.4169 0.1860
1.3200 0.4235 0.1853
1.3400 0.4302 0.1737
1.3600 0.4369 0.1814
1.3800 0.4436 0.1840
1.4000 0.4503 0.1676
1.4200 0.4569 0.1758
1.4400 0.4636 0.1764
1.4600 0.4701 0.1719
1.4800 0.4767 0.1765
1.5000 0.4834 0.1703
1.5200 0.4901 0.1665
1.5400 0.4968 0.1705
1.5600 0.5035 0.1616
1.5800 0.5102 0.1609
1.6000 0.5169 0.1678
1.6200 0.5235 0.1559
1.6400 0.5301 0.1533
1.6600 0.5367 0.1657
1.6800 0.5435 0.1522
1.7000 0.5502 0.1588
1.7200 0.5569 0.1562
1.7400 0.5635 0.1440
1.7600 0.5702 0.1505
1.7800 0.5769 0.1495
1.8000 0.5836 0.1367
1.8200 0.5902 0.1487
1.8400 0.5968 0.1419
1.8600 0.6035 0.1353
1.8800 0.6102 0.1453
1.9000 0.6169 0.1364
1.9200 0.6236 0.1338
1.9400 0.6303 0.1411
1.9600 0.6370 0.1245
1.9800 0.6436 0.1286
2.0000 0.6502 0.1374
2.0200 0.6568 0.1243
2.0400 0.6634 0.1278
2.0600 0.6702 0.1231
2.0800 0.6769 0.1200
2.1000 0.6836 0.1297
2.1200 0.6903 0.1225
2.1400 0.6969 0.1138
2.1600 0.7036 0.1264
2.1800 0.7102 0.1228
2.2000 0.7168 0.1110
2.2200 0.7235 0.1200
2.2400 0.7302 0.1159
2.2600 0.7369 0.1090
2.2800 0.7436 0.1196
2.3000 0.7502 0.1111
2.3200 0.7569 0.1082
2.3400 0.7635 0.1182
2.3600 0.7702 0.1066
2.3800 0.7768 0.1057
2.4000 0.7835 0.1202
2.4200 0.7902 0.0996
2.4400 0.7968 0.0994
2.4600 0.8035 0.1163
2.4800 0.8102 0.0989
2.5000 0.8169 0.0967
2.5200 0.8236 0.1107
2.5400 0.8302 0.0966
2.5600 0.8368 0.0937
2.5800 0.8435 0.1064
2.6000 0.8502 0.0912
2.6200 0.8569 0.0961
2.6400 0.8636 0.1050
2.6600 0.8703 0.0846
2.6800 0.8769 0.0924
2.7000 0.8836 0.1045
2.7200 0.8902 0.0883
2.7400 0.8968 0.0966
2.7600 0.9035 0.0955
2.7800 0.9102 0.0853
2.8000 0.9169 0.0932
2.8200 0.9236 0.0918
2.8400 0.9303 0.0802
2.8600 0.9369 0.0971
2.8800 0.9436 0.0871
2.9000 0.9502 0.0803
2.9200 0.9568 0.0942
2.9400 0.9634 0.0859
2.9600 0.9702 0.0766
2.9800 0.9769 0.0915
3.0000 0.9836 0.0780
3.0200 0.9902 0.0774
3.0400 0.9969 0.0900
3.0600 1.0036 0.0803
3.0800 1.0102 0.0742
3.1000 1.0168 0.0919
3.1200 1.0234 0.0754
3.1400 1.0301 0.0771
3.1600 1.0369 0.0866
3.1800 1.0435 0.0633
3.2000 1.0502 0.0786
3.2200 1.0569 0.0840
3.2400 1.0636 0.0590
3.2600 1.0702 0.0773
3.2800 1.0768 0.0805
3.3000 1.0835 0.0597
3.3200 1.0902 0.0710
3.3400 1.0969 0.0702
3.3600 1.1036 0.0634
3.3800 1.1103 0.0702
3.4000 1.1170 0.0630
3.4200 1.1236 0.0599
3.4400 1.1303 0.0711
3.4600 1.1369 0.0592
3.4800 1.1435 0.0597
3.5000 1.1502 0.0678
3.5200 1.1569 0.0596
3.5400 1.1636 0.0547
3.5600 1.1703 0.0617
3.5800 1.1769 0.0507
3.6000 1.1836 0.0571
3.6200 1.1902 0.0546
3.6400 1.1968 0.0528
3.6600 1.2035 0.0557
3.6800 1.2102 0.0503
3.7000 1.2169 0.0449
3.7200 1.2236 0.0550
3.7400 1.2302 0.0487
3.7600 1.2369 0.0449
3.7800 1.2436 0.0491
3.8000 1.2502 0.0450
3.8200 1.2568 0.0438
3.8400 1.2635 0.0499
3.8600 1.2702 0.0423
3.8800 1.2769 0.0428
3.9000 1.2836 0.0433
3.9200 1.2902 0.0385
3.9400 1.2969 0.0393
3.9600 1.3036 0.0392
3.9800 1.3102 0.0396
4.0000 1.3168 0.0356
4.0200 1.3235 0.0409
4.0400 1.3301 0.0396
4.0600 1.3369 0.0342
4.0800 1.3436 0.0350
4.1000 1.3503 0.0366
4.1200 1.3570 0.0312
4.1400 1.3636 0.0307
4.1600 1.3702 0.0330
4.1800 1.3768 0.0289
4.2000 1.3835 0.0317
4.2200 1.3902 0.0332
4.2400 1.3969 0.0255
4.2600 1.4036 0.0359
4.2800 1.4103 0.0295
4.3000 1.4169 0.0259
4.3200 1.4236 0.0327
4.3400 1.4302 0.0222
4.3600 1.4368 0.0248
4.3800 1.4435 0.0363
4.4000 1.4502 0.0189
4.4200 1.4569 0.0252
4.4400 1.4635 0.0295
4.4600 1.4702 0.0169
4.4800 1.4769 0.0253
4.5000 1.4836 0.0262
4.5200 1.4902 0.0109
4.5400 1.4968 0.0278
4.5600 1.5034 0.0216
4.5800 1.5101 0.0151
4.6000 1.5168 0.0234
4.6200 1.5235 0.0117
4.6400 1.5302 0.0161
4.6600 1.5369 0.0213
4.6800 1.5436 0.0094
4.7000 1.5502 0.0166
4.7200 1.5568 0.0196
4.7400 1.5635 0.0057
4.7600 1.5702 0.0213
4.7800 1.5769 0.0128
4.8000 1.5836 0.0021
4.8200 1.5903 0.0197
4.8400 1.5970 0.0070
4.8600 1.6036 0.0036
4.8800 1.6102 0.0227
4.9000 1.6168 -0.0014
4.9200 1.6235 -0.0024
4.9400 1.6302 0.0223
4.9600 1.6369 -0.0021
4.9800 1.6436 0.0015
5.0000 1.6503 0.0172
5.0200 1.6569 -0.0097
5.0400 1.6636 0.0024
5.0600 1.6702 0.0066
5.0800 1.6768 -0.0048
5.1000 1.6834 0.0006
5.1200 1.6901 0.0053
5.1400 1.6968 -0.0098
5.1600 1.7035 0.0000
5.1800 1.7102 -0.0001
5.2000 1.7169 -0.0068
5.2200 1.7236 -0.0051
5.2400 1.7302 -0.0059
5.2600 1.7368 -0.0012
5.2800 1.7434 -0.0070
5.3000 1.7501 -0.0127
5.3200 1.7569 -0.0006
5.3400 1.7635 -0.0112
5.3600 1.7702 -0.0123
5.3800 1.7769 -0.0066
5.4000 1.7835 -0.0163
5.4200 1.7902 -0.0162
5.4400 1.7968 -0.0066
5.4600 1.8035 -0.0202
5.4800 1.8101 -0.0169
5.5000 1.8169 -0.0099
5.5200 1.8236 -0.0236
5.5400 1.8303 -0.0136
5.5600 1.8370 -0.0120
5.5800 1.8436 -0.0273
5.6000 1.8503 -0.0160
5.6200 1.8569 -0.0143
5.6400 1.8635 -0.0273
5.6600 1.8702 -0.0099
5.6800 1.8769 -0.0257
5.7000 1.8836 -0.0295
5.7200 1.8903 -0.0143
5.7400 1.8969 -0.0264
5.7600 1.9036 -0.0336
5.7800 1.9102 -0.0167
5.8000 1.9168 -0.0252
5.8200 1.9234 -0.0312
5.8400 1.9301 -0.0226
5.8600 1.9368 -0.0301
5.8800 1.9435 -0.0350
5.9000 1.9502 -0.0245
5.9200 1.9569 -0.0361
5.9400 1.9635 -0.0334
5.9600 1.9702 -0.0294
5.9800 1.9768 -0.0356
6.0000 1.9835 -0.0366
6.0200 1.9901 -0.0337
6.0400 1.9968 -0.0350
6.0600 2.0035 -0.0430
6.0800 2.0102 -0.0383
6.1000 2.0169 -0.0334
6.1200 2.0236 -0.0403
6.1400 2.0303 -0.0426
6.1600 2.0369 -0.0394
6.1800 2.0435 -0.0478
6.2000 2.0501 -0.0376
6.2200 2.0569 -0.0395
6.2400 2.0636 -0.0519
6.2600 2.0702 -0.0429
6.2800 2.0769 -0.0438
6.3000 2.0836 -0.0531
6.3200 2.0902 -0.0443
6.3400 2.0968 -0.0469
6.3600 2.1034 -0.0537
6.3800 2.1101 -0.0497
6.4000 2.1169 -0.0489
6.4200 2.1236 -0.0597
6.4400 2.1302 -0.0457
6.4600 2.1369 -0.0511
6.4800 2.1436 -0.0590
6.5000 2.1503 -0.0461
6.5200 2.1569 -0.0516
6.5400 2.1635 -0.0601
6.5600 2.1702 -0.0489
6.5800 2.1768 -0.0590
6.6000 2.1835 -0.0637
6.6200 2.1902 -0.0530
6.6400 2.1969 -0.0572
6.6600 2.2036 -0.0618
6.6800 2.2103 -0.0550
6.7000 2.2168 -0.0633
6.7200 2.2234 -0.0628
6.7400 2.2301 -0.0534
6.7600 2.2368 -0.0587
6.7800 2.2435 -0.0674
6.8000 2.2502 -0.0566
6.8200 2.2569 -0.0648
6.8400 2.2636 -0.0690
6.8600 2.2702 -0.0559
6.8800 2.2769 -0.0646
6.9000 2.2835 -0.0725
6.9200 2.2902 -0.0607
6.9400 2.2969 -0.0662
6.9600 2.3036 -0.0750
6.9800 2.3102 -0.0619
7.0000 2.3169 -0.0733
7.0200 2.3236 -0.0733
7.0400 2.3303 -0.0626
7.0600 2.3369 -0.0759
7.0800 2.3435 -0.0725
7.1000 2.3501 -0.0627
7.1200 2.3568 -0.0785
7.1400 2.3636 -0.0758
7.1600 2.3703 -0.0708
7.1800 2.3769 -0.0748
7.2000 2.3836 -0.0746
7.2200 2.3903 -0.0764
7.2400 2.3969 -0.0798
7.2600 2.4035 -0.0724
7.2800 2.4101 -0.0787
7.3000 2.4168 -0.0770
7.3200 2.4236 -0.0746
7.3400 2.4302 -0.0849
7.3600 2.4369 -0.0811
7.3800 2.4436 -0.0749
7.4000 2.4502 -0.0891
7.4200 2.4568 -0.0822
7.4400 2.4635 -0.0787
7.4600 2.4701 -0.0894
7.4800 2.4768 -0.0808
7.5000 2.4835 -0.0838
7.5200 2.4902 -0.0929
7.5400 2.4968 -0.0808
7.5600 2.5036 -0.0877
7.5800 2.5102 -0.0953
7.6000 2.5169 -0.0853
7.6200 2.5235 -0.0879
7.6400 2.5301 -0.0917
7.6600 2.5369 -0.0863
7.6800 2.5436 -0.0930
7.7000 2.5503 -0.0961
7.7200 2.5569 -0.0892
7.7400 2.5636 -0.0963
7.7600 2.5703 -0.0971
7.7800 2.5769 -0.0887
7.8000 2.5835 -0.0976
7.8200 2.5902 -0.1010
7.8400 2.5969 -0.0957
7.8600 2.6036 -0.0987
7.8800 2.6103 -0.0970
7.9000 2.6169 -0.0984
7.9200 2.6236 -0.1017
7.9400 2.6303 -0.1022
7.9600 2.6369 -0.0933
7.9800 2.6435 -0.1053
8.0000 2.6501 -0.1010
8.0200 2.6568 -0.0998
8.0400 2.6635 -0.1099
8.0600 2.6702 -0.1043
8.0800 2.6769 -0.1018
8.1000 2.6836 -0.1105
8.1200 2.6902 -0.1074
8.1400 2.6969 -0.1087
8.1600 2.7034 -0.1134
8.1800 2.7101 -0.1074
8.2000 2.7168 -0.1098
8.2200 2.7235 -0.1193
8.2400 2.7302 -0.1078
8.2600 2.7369 -0.1133
8.2800 2.7436 -0.1196
8.3000 2.7503 -0.1117
8.3200 2.7569 -0.1176
8.3400 2.7635 -0.1192
8.3600 2.7701 -0.1146
8.3800 2.7768 -0.1174
8.4000 2.7835 -0.1182
8.4200 2.7902 -0.1149
8.4400 2.7969 -0.1241
8.4600 2.8036 -0.1236
8.4800 2.8103 -0.1171
8.5000 2.8169 -0.1184
8.5200 2.8235 -0.1240
8.5400 2.8301 -0.1224
8.5600 2.8368 -0.1222
8.5800 2.8436 -0.1252
8.6000 2.8503 -0.1245
8.6200 2.8569 -0.1279
8.6400 2.8636 -0.1294
8.6600 2.8703 -0.1223
8.6800 2.8769 -0.1332
8.7000 2.8835 -0.1322
8.7200 2.8901 -0.1231
8.7400 2.8968 -0.1294
8.7600 2.9035 -0.1371
8.7800 2.9102 -0.1239
8.8000 2.9169 -0.1330
8.8200 2.9236 -0.1355
8.8400 2.9302 -0.1316
8.8600 2.9368 -0.1362
8.8800 2.9434 -0.1322
8.9000 2.9501 -0.1281
8.9200 2.9568 -0.1380
8.9400 2.9635 -0.1330
8.9600 2.9702 -0.1301
8.9800 2.9768 -0.1429
9.0000 2.9835 -0.1369
9.0200 2.9902 -0.1328
9.0400 2.9969 -0.1424
9.0600 3.0035 -0.1398
9.0800 3.0101 -0.1338
9.1000 3.0168 -0.1423
9.1200 3.0235 -0.1405
9.1400 3.0302 -0.1325
9.1600 3.0369 -0.1469
9.1800 3.0436 -0.1469
9.2000 3.0503 -0.1328
9.2200 3.0569 -0.1495
9.2400 3.0635 -0.1424
9.2600 3.0701 -0.1369
9.2800 3.0768 -0.1491
9.3000 3.0836 -0.1430
9.3200 3.0903 -0.1440
9.3400 3.0969 -0.1526
9.3600 3.1036 -0.1413
9.3800 3.1103 -0.1449
9.4000 3.1169 -0.1550
9.4200 3.1235 -0.1435
9.4400 3.1301 -0.1419
9.4600 3.1368 -0.1598
9.4800 3.1435 -0.1476
9.5000 3.1502 -0.1473
9.5200 3.1569 -0.1526
9.5400 3.1636 -0.1485
9.5600 3.1703 -0.1525
9.5800 3.1769 -0.1546
9.6000 3.1835 -0.1479
9.6200 3.1901 -0.1511
9.6400 3.1968 -0.1580
9.6600 3.2035 -0.1488
9.6800 3.2102 -0.1543
9.7000 3.2169 -0.1589
9.7200 3.2236 -0.1481
9.7400 3.2302 -0.1570
9.7600 3.2369 -0.1643
9.7800 3.2435 -0.1520
9.8000 3.2501 -0.1563
9.8200 3.2568 -0.1631
9.8400 3.2635 -0.1571
9.8600 3.2702 -0.1627
9.8800 3.2769 -0.1648
9.9000 3.2836 -0.1549
9.9200 3.2903 -0.1666
9.9400 3.2969 -0.1652
9.9600 3.3035 -0.1539
9.9800 3.3101 -0.1629
10.0000 3.3168 -0.1652
10.0200 3.3236 -0.1607
10.0400 3.3303 -0.1684
10.0600 3.3369 -0.1660
10.0800 3.3436 -0.1555
10.1000 3.3503 -0.1705
10.1200 3.3569 -0.1689
10.1400 3.3635 -0.1611
10.1600 3.3701 -0.1693
10.1800 3.3768 -0.1697
10.2000 3.3835 -0.1713
10.2200 3.3902 -0.1685
10.2400 3.3969 -0.1715
10.2600 3.4036 -0.1718
10.2800 3.4102 -0.1712
10.3000 3.4169 -0.1762
10.3200 3.4235 -0.1718
10.3400 3.4301 -0.1724
10.3600 3.4368 -0.1767
10.3800 3.4435 -0.1736
10.4000 3.4502 -0.1777
10.4200 3.4569 -0.1823
10.4400 3.4636 -0.1717
10.4600 3.4702 -0.1747
10.4800 3.4769 -0.1878
10.5000 3.4835 -0.1764
10.5200 3.4902 -0.1794
10.5400 3.4968 -0.1847
10.5600 3.5035 -0.1735
10.5800 3.5102 -0.1850
10.6000 3.5169 -0.1909
10.6200 3.5236 -0.1783
10.6400 3.5303 -0.1834
10.6600 3.5369 -0.1914
10.6800 3.5435 -0.1807
10.7000 3.5501 -0.1859
10.7200 3.5568 -0.1854
10.7400 3.5635 -0.1858
10.7600 3.5702 -0.1903
10.7800 3.5769 -0.1879
10.8000 3.5836 -0.1840
10.8200 3.5903 -0.1946
10.8400 3.5969 -0.1940
10.8600 3.6035 -0.1819
10.8800 3.6101 -0.1882
10.9000 3.6168 -0.1990
10.9200 3.6236 -0.1885
10.9400 3.6303 -0.1912
10.9600 3.6369 -0.1990
10.9800 3.6436 -0.1921
11.0000 3.6503 -0.1911
11.0200 3.6569 -0.2053
11.0400 3.6635 -0.1920
11.0600 3.6701 -0.1933
11.0800 3.6768 -0.2028
11.1000 3.6835 -0.1906
11.1200 3.6902 -0.1995
11.1400 3.6968 -0.2065
11.1600 3.7035 -0.1872
11.1800 3.7102 -0.2011
11.2000 3.7169 -0.2106
11.2200 3.7235 -0.1944
11.2400 3.7301 -0.2035
11.2600 3.7368 -0.2084
11.2800 3.7435 -0.1913
11.3000 3.7502 -0.2033
11.3200 3.7570 -0.2099
11.3400 3.7637 -0.1932
11.3600 3.7703 -0.2082
11.3800 3.7770 -0.2115
11.4000 3.7835 -0.1967
11.4200 3.7902 -0.2058
11.4400 3.7968 -0.2100
11.4600 3.8036 -0.1945
11.4800 3.8103 -0.2096
11.5000 3.8170 -0.2140
11.5200 3.8236 -0.2050
11.5400 3.8303 -0.2139
11.5600 3.8369 -0.2138
11.5800 3.8435 -0.2015
11.6000 3.8501 -0.2131
11.6200 3.8568 -0.2150
11.6400 3.8635 -0.2035
11.6600 3.8702 -0.2132
11.6800 3.8768 -0.2176
11.7000 3.8835 -0.2042
11.7200 3.8902 -0.2191
11.7400 3.8969 -0.2153
11.7600 3.9035 -0.2117
11.7800 3.9101 -0.2169
11.8000 3.9167 -0.2116
11.8200 3.9235 -0.2087
11.8400 3.9302 -0.2203
11.8600 3.9369 -0.2197
11.8800 3.9435 -0.2122
11.9000 3.9502 -0.2194
11.9200 3.9569 -0.2216
11.9400 3.9635 -0.2117
11.9600 3.9701 -0.2194
11.9800 3.9768 -0.2206
12.0000 3.9835 -0.2164
12.0200 3.9903 -0.2236
12.0400 3.9969 -0.2169
12.0600 4.0036 -0.2198
12.0800 4.0103 -0.2268
12.1000 4.0169 -0.2169
12.1200 4.0235 -0.2189
12.1400 4.0302 -0.2280
12.1600 4.0369 -0.2182
12.1800 4.0435 -0.2251
12.2000 4.0502 -0.2300
12.2200 4.0569 -0.2192
12.2400 4.0636 -0.2288
12.2600 4.0703 -0.2258
12.2800 4.0770 -0.2191
12.3000 4.0836 -0.2304
12.3200 4.0901 -0.2228
12.3400 4.0968 -0.2215
12.3600 4.1035 -0.2306
12.3800 4.1102 -0.2296
12.4000 4.1169 -0.2218
12.4200 4.1236 -0.2318
12.4400 4.1303 -0.2297
12.4600 4.1369 -0.2323
12.4800 4.1435 -0.2328
12.5000 4.1501 -0.2253
12.5200 4.1568 -0.2305
12.5400 4.1635 -0.2337
12.5600 4.1702 -0.2332
12.5800 4.1769 -0.2349
12.6000 4.1836 -0.2309
12.6200 4.1902 -0.2368
12.6400 4.1969 -0.2340
12.6600 4.2036 -0.2333
12.6800 4.2102 -0.2369
12.7000 4.2168 -0.2378
12.7200 4.2235 -0.2355
12.7400 4.2302 -0.2349
12.7600 4.2369 -0.2408
12.7800 4.2436 -0.2353
12.8000 4.2503 -0.2366
12.8200 4.2570 -0.2430
12.8400 4.2636 -0.2385
12.8600 4.2702 -0.2345
12.8800 4.2768 -0.2436
12.9000 4.2835 -0.2429
12.9200 4.2902 -0.2397
12.9400 4.2969 -0.2437
12.9600 4.3036 -0.2436
12.9800 4.3103 -0.2424
13.0000 4.3169 -0.2405
13.0200 4.3235 -0.2429
13.0400 4.3301 -0.2471
13.0600 4.3368 -0.2403
13.0800 4.3435 -0.2444
13.1000 4.3502 -0.2501
13.1200 4.3569 -0.2494
13.1400 4.3636 -0.2466
13.1600 4.3702 -0.2503
13.1800 4.3769 -0.2459
13.2000 4.3835 -0.2513
13.2200 4.3901 -0.2474
13.2400 4.3968 -0.2449
13.2600 4.4034 -0.2556
13.2800 4.4102 -0.2488
13.3000 4.4169 -0.2453
13.3200 4.4236 -0.2576
13.3400 4.4303 -0.2536
13.3600 4.4369 -0.2496
13.3800 4.4436 -0.2553
13.4000 4.4501 -0.2534
13.4200 4.4568 -0.2520
13.4400 4.4635 -0.2527
13.4600 4.4702 -0.2488
13.4800 4.4769 -0.2565
13.5000 4.4836 -0.2588
13.5200 4.4903 -0.2484
13.5400 4.4970 -0.2631
13.5600 4.5036 -0.2616
13.5800 4.5102 -0.2507
13.6000 4.5168 -0.2583
13.6200 4.5235 -0.2591
13.6400 4.5302 -0.2591
13.6600 4.5369 -0.2598
13.6800 4.5436 -0.2559
13.7000 4.5502 -0.2606
13.7200 4.5569 -0.2592
13.7400 4.5635 -0.2662
13.7600 4.5701 -0.2580
13.7800 4.5768 -0.2599
13.8000 4.5835 -0.2615
13.8200 4.5902 -0.2604
13.8400 4.5969 -0.2603
13.8600 4.6035 -0.2654
13.8800 4.6102 -0.2652
13.9000 4.6169 -0.2632
13.9200 4.6236 -0.2681
13.9400 4.6302 -0.2651
13.9600 4.6368 -0.2674
13.9800 4.6435 -0.2626
14.0000 4.6502 -0.2679
14.0200 4.6569 -0.2677
14.0400 4.6636 -0.2661
14.0600 4.6702 -0.2716
14.0800 4.6769 -0.2719
14.1000 4.6835 -0.2697
14.1200 4.6901 -0.2671
14.1400 4.6968 -0.2699
14.1600 4.7035 -0.2726
14.1800 4.7102 -0.2718
14.2000 4.7169 -0.2684
14.2200 4.7236 -0.2756
14.2400 4.7303 -0.2746
14.2600 4.7369 -0.2678
14.2800 4.7436 -0.2789
14.3000 4.7502 -0.2770
14.3200 4.7568 -0.2699
14.3400 4.7635 -0.2725
14.3600 4.7702 -0.2782
14.3800 4.7769 -0.2692
14.4000 4.7836 -0.2805
14.4200 4.7903 -0.2745
14.4400 4.7970 -0.2763
14.4600 4.8036 -0.2867
14.4800 4.8102 -0.2748
14.5000 4.8168 -0.2692
14.5200 4.8235 -0.2815
14.5400 4.8302 -0.2805
14.5600 4.8369 -0.2755
14.5800 4.8436 -0.2809
14.6000 4.8502 -0.2864
14.6200 4.8569 -0.2777
14.6400 4.8635 -0.2838
14.6600 4.8701 -0.2846
14.6800 4.8768 -0.2843
14.7000 4.8835 -0.2799
14.7200 4.8902 -0.2842
14.7400 4.8969 -0.2860
14.7600 4.9035 -0.2857
14.7800 4.9102 -0.2903
14.8000 4.9169 -0.2827
14.8200 4.9235 -0.2835
14.8400 4.9302 -0.2929
14.8600 4.9368 -0.2833
14.8800 4.9435 -0.2862
14.9000 4.9502 -0.2967
14.9200 4.9569 -0.2810
14.9400 4.9636 -0.2885
14.9600 4.9703 -0.2977
14.9800 4.9770 -0.2887
15.0000 4.9836 -0.2947
15.0200 4.9902 -0.2994
15.0400 4.9968 -0.2803
15.0600 5.0035 -0.2999
15.0800 5.0102 -0.2974
15.1000 5.0169 -0.2860
15.1200 5.0236 -0.3033
15.1400 5.0303 -0.2934
15.1600 5.0369 -0.2902
15.1800 5.0436 -0.3059
15.2000 5.0502 -0.2922
15.2200 5.0568 -0.2972
15.2400 5.0635 -0.3026
15.2600 5.0702 -0.2956
15.2800 5.0769 -0.2928
15.3000 5.0836 -0.3056
15.3200 5.0903 -0.2956
15.3400 5.0969 -0.2968
15.3600 5.1036 -0.3009
15.3800 5.1102 -0.2997
15.4000 5.1168 -0.2997
15.4200 5.1234 -0.3022
15.4400 5.1301 -0.2957
15.4600 5.1368 -0.3070
15.4800 5.1435 -0.3078
15.5000 5.1502 -0.2973
15.5200 5.1569 -0.3056
15.5400 5.1636 -0.3101
15.5600 5.1702 -0.3027
15.5800 5.1768 -0.3054
15.6000 5.1835 -0.3058
15.6200 5.1902 -0.3064
15.6400 5.1969 -0.3070
15.6600 5.2036 -0.3030
15.6800 5.2103 -0.3065
15.7000 5.2170 -0.3120
15.7200 5.2236 -0.3087
15.7400 5.2302 -0.3126
15.7600 5.2369 -0.3071
15.7800 5.2435 -0.3030
15.8000 5.2502 -0.3152
15.8200 5.2569 -0.3066
15.8400 5.2636 -0.3093
15.8600 5.2703 -0.3128
15.8800 5.2770 -0.3067
15.9000 5.2836 -0.3135
15.9200 5.2902 -0.3152
15.9400 5.2968 -0.3012
15.9600 5.3034 -0.3191
15.9800 5.3101 -0.3162
16.0000 5.3169 -0.3039
16.0200 5.3235 -0.3228
16.0400 5.3302 -0.3199
16.0600 5.3369 -0.3023
16.0800 5.3435 -0.3242
16.1000 5.3502 -0.3145
16.1200 5.3568 -0.3076
16.1400 5.3635 -0.3219
16.1600 5.3702 -0.3147
16.1800 5.3769 -0.3103
16.2000 5.3836 -0.3233
16.2200 5.3902 -0.3137
16.2400 5.3969 -0.3125
16.2600 5.4035 -0.3240
16.2800 5.4102 -0.3142
16.3000 5.4168 -0.3146
16.3200 5.4235 -0.3239
16.3400 5.4302 -0.3163
16.3600 5.4369 -0.3211
16.3800 5.4436 -0.3242
16.4000 5.4503 -0.3129
16.4200 5.4570 -0.3249
16.4400 5.4636 -0.3249
16.4600 5.4702 -0.3140
16.4800 5.4768 -0.3267
16.5000 5.4835 -0.3270
16.5200 5.4902 -0.3128
16.5400 5.4969 -0.3295
16.5600 5.5036 -0.3247
16.5800 5.5103 -0.3217
16.6000 5.5169 -0.3287
16.6200 5.5236 -0.3244
16.6400 5.5302 -0.3228
16.6600 5.5368 -0.3245
16.6800 5.5435 -0.3259
16.7000 5.5502 -0.3283
16.7200 5.5569 -0.3275
16.7400 5.5636 -0.3277
16.7600 5.5702 -0.3259
16.7800 5.5769 -0.3308
16.8000 5.5836 -0.3267
16.8200 5.5902 -0.3354
16.8400 5.5968 -0.3306
16.8600 5.6034 -0.3261
16.8800 5.6101 -0.3351
16.9000 5.6168 -0.3307
16.9200 5.6235 -0.3303
16.9400 5.6302 -0.3377
16.9600 5.6369 -0.3273
16.9800 5.6436 -0.3354
17.0000 5.6502 -0.3348
17.0200 5.6568 -0.3304
17.0400 5.6635 -0.3398
17.0600 5.6702 -0.3375
17.0800 5.6769 -0.3334
17.1000 5.6836 -0.3409
17.1200 5.6903 -0.3384
17.1400 5.6970 -0.3308
17.1600 5.7036 -0.3458
17.1800 5.7102 -0.3369
17.2000 5.7168 -0.3375
17.2200 5.7235 -0.3401
17.2400 5.7302 -0.3346
17.2600 5.7369 -0.3376
17.2800 5.7436 -0.3443
17.3000 5.7503 -0.3397
17.3200 5.7570 -0.3422
17.3400 5.7636 -0.3474
17.3600 5.7702 -0.3375
17.3800 5.7768 -0.3417
17.4000 5.7834 -0.3462
17.4200 5.7901 -0.3380
17.4400 5.7969 -0.3485
17.4600 5.8036 -0.3481
17.4800 5.8102 -0.3426
17.5000 5.8169 -0.3498
17.5200 5.8236 -0.3478
17.5400 5.8302 -0.3437
17.5600 5.8368 -0.3482
17.5800 5.8434 -0.3470
17.6000 5.8501 -0.3459
17.6200 5.8569 -0.3522
17.6400 5.8635 -0.3475
17.6600 5.8702 -0.3466
17.6800 5.8769 -0.3545
17.7000 5.8836 -0.3485
17.7200 5.8902 -0.3468
17.7400 5.8968 -0.3537
17.7600 5.9035 -0.3501
17.7800 5.9102 -0.3505
17.8000 5.9169 -0.3543
17.8200 5.9236 -0.3511
17.8400 5.9302 -0.3493
17.8600 5.9369 -0.3584
17.8800 5.9436 -0.3546
17.9000 5.9503 -0.3525
17.9200 5.9569 -0.3621
17.9400 5.9635 -0.3545
17.9600 5.9702 -0.3531
17.9800 5.9769 -0.3649
18.0000 5.9836 -0.3546
18.0200 5.9903 -0.3512
18.0400 5.9970 -0.3671
18.0600 6.0036 -0.3606
18.0800 6.0102 -0.3512
18.1000 6.0168 -0.3686
18.1200 6.0234 -0.3600
18.1400 6.0302 -0.3551
18.1600 6.0369 -0.3672
18.1800 6.0436 -0.3603
18.2000 6.0502 -0.3565
18.2200 6.0569 -0.3717
18.2400 6.0636 -0.3580
18.2600 6.0702 -0.3612
18.2800 6.0768 -0.3726
18.3000 6.0835 -0.3577
18.3200 6.0902 -0.3661
18.3400 6.0969 -0.3745
18.3600 6.1035 -0.3583
18.3800 6.1102 -0.3702
18.4000 6.1169 -0.3732
18.4200 6.1236 -0.3616
18.4400 6.1302 -0.3750
18.4600 6.1368 -0.3720
18.4800 6.1435 -0.3584
18.5000 6.1501 -0.3746
18.5200 6.1569 -0.3736
18.5400 6.1636 -0.3614
18.5600 6.1703 -0.3792
18.5800 6.1770 -0.3752
18.6000 6.1836 -0.3649
18.6200 6.1902 -0.3785
18.6400 6.1968 -0.3756
18.6600 6.2034 -0.3652
18.6800 6.2101 -0.3770
18.7000 6.2169 -0.3746
18.7200 6.2236 -0.3696
18.7400 6.2303 -0.3776
18.7600 6.2370 -0.3781
18.7800 6.2436 -0.3707
18.8000 6.2502 -0.3834
18.8200 6.2568 -0.3800
18.8400 6.2635 -0.3721
18.8600 6.2702 -0.3809
18.8800 6.2769 -0.3791
18.9000 6.2836 -0.3744
18.9200 6.2902 -0.3796
18.9400 6.2969 -0.3786
18.9600 6.3036 -0.3774
18.9800 6.3102 -0.3809
19.0000 6.3168 -0.3808
19.0200 6.3234 -0.3788
19.0400 6.3301 -0.3812
19.0600 6.3368 -0.3805
19.0800 6.3435 -0.3855
19.1000 6.3502 -0.3818
19.1200 6.3569 -0.3839
19.1400 6.3636 -0.3858
19.1600 6.3702 -0.3832
19.1800 6.3768 -0.3858
19.2000 6.3835 -0.3826
19.2200 6.3902 -0.3814
19.2400 6.3969 -0.3879
19.2600 6.4036 -0.3819
19.2800 6.4103 -0.3861
19.3000 6.4169 -0.3886
19.3200 6.4236 -0.3785
19.3400 6.4303 -0.3904
19.3600 6.4368 -0.3889
19.3800 6.4435 -0.3770
19.4000 6.4502 -0.3878
19.4200 6.4569 -0.3882
19.4400 6.4636 -0.3806
19.4600 6.4702 -0.3876
19.4800 6.4769 -0.3861
19.5000 6.4836 -0.3860
19.5200 6.4903 -0.3925
19.5400 6.4969 -0.3855
19.5600 6.5035 -0.3845
19.5800 6.5101 -0.3929
19.6000 6.5168 -0.3854
19.6200 6.5235 -0.3903
19.6400 6.5302 -0.3906
19.6600 6.5369 -0.3874
19.6800 6.5436 -0.3951
19.7000 6.5502 -0.3863
19.7200 6.5568 -0.3945
19.7400 6.5634 -0.3951
19.7600 6.5701 -0.3828
19.7800 6.5768 -0.4009
19.8000 6.5835 -0.3953
19.8200 6.5902 -0.3842
19.8400 6.5969 -0.3993
19.8600 6.6035 -0.3924
19.8800 6.6102 -0.3862
19.9000 6.6168 -0.4007
19.9200 6.6235 -0.3894
19.9400 6.6301 -0.3890
19.9600 6.6369 -0.4050
19.9800 6.6436 -0.3896
20.0000 6.6503 -0.3927
20.0200 6.6569 -0.4046
20.0400 6.6636 -0.3901
20.0600 6.6703 -0.3971
20.0800 6.6769 -0.4056
20.1000 6.6835 -0.3847
20.1200 6.6902 -0.4032
20.1400 6.6969 -0.4071
20.1600 6.7036 -0.3885
20.1800 6.7103 -0.4071
20.2000 6.7170 -0.4057
20.2200 6.7236 -0.3929
20.2400 6.7302 -0.4111
20.2600 6.7368 -0.3990
20.2800 6.7434 -0.3949
20.3000 6.7501 -0.4133
20.3200 6.7569 -0.3995
20.3400 6.7636 -0.3946
20.3600 6.7702 -0.4137
20.3800 6.7769 -0.3996
20.4000 6.7836 -0.4053
20.4200 6.7902 -0.4106
20.4400 6.7968 -0.4048
20.4600 6.8034 -0.4031
20.4800 6.8101 -0.4068
20.5000 6.8168 -0.4051
20.5200 6.8235 -0.4049
20.5400 6.8302 -0.4063
20.5600 6.8369 -0.4068
20.5800 6.8436 -0.4081
20.6000 6.8503 -0.4087
20.6200 6.8569 -0.4110
20.6400 6.8635 -0.4110
20.6600 6.8702 -0.4090
20.6800 6.8769 -0.4105
20.7000 6.8836 -0.4127
20.7200 6.8903 -0.4091
20.7400 6.8970 -0.4156
20.7600 6.9036 -0.4133
20.7800 6.9102 -0.4081
20.8000 6.9168 -0.4165
20.8200 6.9235 -0.4115
20.8400 6.9301 -0.4118
20.8600 6.9369 -0.4200
20.8800 6.9436 -0.4111
20.9000 6.9502 -0.4147
20.9200 6.9569 -0.4220
20.9400 6.9636 -0.4101
20.9600 6.9703 -0.4148
20.9800 6.9769 -0.4239
21.0000 6.9835 -0.4133
21.0200 6.9902 -0.4203
21.0400 6.9968 -0.4197
21.0600 7.0035 -0.4146
21.0800 7.0102 -0.4225
21.1000 7.0169 -0.4191
21.1200 7.0236 -0.4174
21.1400 7.0303 -0.4263
21.1600 7.0368 -0.4224
21.1800 7.0434 -0.4206
21.2000 7.0501 -0.4207
21.2200 7.0568 -0.4262
21.2400 7.0635 -0.4263
21.2600 7.0702 -0.4261
21.2800 7.0769 -0.4200
21.3000 7.0835 -0.4290
21.3200 7.0902 -0.4317
21.3400 7.0968 -0.4219
21.3600 7.1035 -0.4285
21.3800 7.1101 -0.4234
21.4000 7.1168 -0.4262
21.4200 7.1236 -0.4235
21.4400 7.1302 -0.4264
21.4600 7.1369 -0.4337
21.4800 7.1436 -0.4243
21.5000 7.1503 -0.4317
21.5200 7.1569 -0.4346
21.5400 7.1635 -0.4209
21.5600 7.1701 -0.4318
21.5800 7.1768 -0.4331
21.6000 7.1835 -0.4241
21.6200 7.1902 -0.4376
21.6400 7.1969 -0.4314
21.6600 7.2036 -0.4215
21.6800 7.2103 -0.4451
21.7000 7.2169 -0.4340
21.7200 7.2235 -0.4221
21.7400 7.2301 -0.4408
21.7600 7.2368 -0.4348
21.7800 7.2436 -0.4266
21.8000 7.2502 -0.4437
21.8200 7.2569 -0.4340
21.8400 7.2636 -0.4299
21.8600 7.2702 -0.4457
21.8800 7.2769 -0.4343
21.9000 7.2835 -0.4282
21.9200 7.2901 -0.4426
21.9400 7.2968 -0.4393
21.9600 7.3035 -0.4319
21.9800 7.3102 -0.4430
22.0000 7.3168 -0.4434
22.0200 7.3235 -0.4342
22.0400 7.3302 -0.4427
22.0600 7.3369 -0.4405
22.0800 7.3435 -0.4387
22.1000 7.3501 -0.4384
22.1200 7.3568 -0.4400
22.1400 7.3636 -0.4443
22.1600 7.3703 -0.4355
22.1800 7.3769 -0.4408
22.2000 7.3836 -0.4491
22.2200 7.3903 -0.4414
22.2400 7.3969 -0.4370
22.2600 7.4035 -0.4509
22.2800 7.4101 -0.4365
22.3000 7.4169 -0.4413
22.3200 7.4236 -0.4560
22.3400 7.4303 -0.4412
22.3600 7.4369 -0.4454
22.3800 7.4436 -0.4502
22.4000 7.4502 -0.4392
22.4200 7.4569 -0.4498
22.4400 7.4635 -0.4499
22.4600 7.4701 -0.4401
22.4800 7.4768 -0.4504
22.5000 7.4835 -0.4494
22.5200 7.4902 -0.4399
22.5400 7.4969 -0.4534
22.5600 7.5036 -0.4511
22.5800 7.5102 -0.4431
22.6000 7.5169 -0.4542
22.6200 7.5235 -0.4458
22.6400 7.5301 -0.4466
22.6600 7.5368 -0.4570
22.6800 7.5435 -0.4480
22.7000 7.5502 -0.4500
22.7200 7.5569 -0.4575
22.7400 7.5636 -0.4478
22.7600 7.5703 -0.4512
22.7800 7.5769 -0.4594
22.8000 7.5835 -0.4474
22.8200 7.5901 -0.4497
22.8400 7.5968 -0.4615
22.8600 7.6035 -0.4477
22.8800 7.6102 -0.4521
22.9000 7.6169 -0.4594
22.9200 7.6236 -0.4483
22.9400 7.6303 -0.4553
22.9600 7.6369 -0.4578
22.9800 7.6435 -0.4550
23.0000 7.6502 -0.4539
23.0200 7.6568 -0.4531
23.0400 7.6635 -0.4627
23.0600 7.6702 -0.4552
23.0800 7.6769 -0.4577
23.1000 7.6836 -0.4586
23.1200 7.6903 -0.4587
23.1400 7.6969 -0.4536
23.1600 7.7035 -0.4638
23.1800 7.7101 -0.4591
23.2000 7.7168 -0.4545
23.2200 7.7235 -0.4644
23.2400 7.7302 -0.4601
23.2600 7.7369 -0.4548
23.2800 7.7436 -0.4691
23.3000 7.7503 -0.4616
23.3200 7.7569 -0.4569
23.3400 7.7635 -0.4652
23.3600 7.7701 -0.4608
23.3800 7.7768 -0.4567
23.4000 7.7835 -0.4669
23.4200 7.7902 -0.4633
23.4400 7.7968 -0.4585
23.4600 7.8035 -0.4654
23.4800 7.8102 -0.4623
23.5000 7.8169 -0.4628
23.5200 7.8235 -0.4640
23.5400 7.8301 -0.4622
23.5600 7.8368 -0.4657
23.5800 7.8435 -0.4657
23.6000 7.8502 -0.4651
23.6200 7.8569 -0.4729
23.6400 7.8636 -0.4655
23.6600 7.8703 -0.4636
23.6800 7.8769 -0.4693
23.7000 7.8835 -0.4713
23.7200 7.8901 -0.4629
23.7400 7.8968 -0.4690
23.7600 7.9035 -0.4689
23.7800 7.9103 -0.4647
23.8000 7.9169 -0.4708
23.8200 7.9236 -0.4733
23.8400 7.9303 -0.4683
23.8600 7.9369 -0.4710
23.8800 7.9435 -0.4662
23.9000 7.9501 -0.4718
23.9200 7.9568 -0.4745
23.9400 7.9635 -0.4686
23.9600 7.9702 -0.4759
23.9800 7.9769 -0.4768
24.0000 7.9836 -0.4667
24.0200 7.9903 -0.4745
24.0400 7.9969 -0.4782
24.0600 8.0035 -0.4678
24.0800 8.0101 -0.4758
24.1000 8.0168 -0.4824
24.1200 8.0235 -0.4638
24.1400 8.0302 -0.4825
24.1600 8.0369 -0.4833
24.1800 8.0436 -0.4621
24.2000 8.0502 -0.4843
24.2200 8.0569 -0.4809
24.2400 8.0635 -0.4699
24.2600 8.0701 -0.4812
24.2800 8.0768 -0.4765
24.3000 8.0835 -0.4775
24.3200 8.0903 -0.4843
24.3400 8.0970 -0.4743
24.3600 8.1036 -0.4783
24.3800 8.1103 -0.4865
24.4000 8.1169 -0.4776
24.4200 8.1235 -0.4777
24.4400 8.1301 -0.4846
24.4600 8.1368 -0.4812
24.4800 8.1436 -0.4851
24.5000 8.1503 -0.4820
24.5200 8.1570 -0.4812
24.5400 8.1636 -0.4879
24.5600 8.1703 -0.4875
24.5800 8.1769 -0.4730
24.6000 8.1835 -0.4906
24.6200 8.1901 -0.4880
24.6400 8.1968 -0.4739
24.6600 8.2035 -0.4878
24.6800 8.2102 -0.4884
24.7000 8.2169 -0.4828
24.7200 8.2236 -0.4847
24.7400 8.2302 -0.4863
24.7600 8.2369 -0.4910
24.7800 8.2435 -0.4879
24.8000 8.2501 -0.4805
24.8200 8.2568 -0.4850
24.8400 8.2635 -0.4929
24.8600 8.2702 -0.4845
24.8800 8.2769 -0.4857
24.9000 8.2836 -0.4932
24.9200 8.2903 -0.4889
24.9400 8.2969 -0.4880
24.9600 8.3035 -0.4909
24.9800 8.3101 -0.4873
25.0000 8.3168 -0.4904
25.0200 8.3235 -0.4920
25.0400 8.3302 -0.4878
25.0600 8.3369 -0.4919
25.0800 8.3436 -0.4902
25.1000 8.3503 -0.4948
25.1200 8.3569 -0.4888
25.1400 8.3635 -0.4938
25.1600 8.3701 -0.4917
25.1800 8.3768 -0.4951
25.2000 8.3835 -0.4935
25.2200 8.3902 -0.4904
25.2400 8.3969 -0.4949
25.2600 8.4036 -0.4960
25.2800 8.4103 -0.4962
25.3000 8.4169 -0.4958
25.3200 8.4235 -0.4933
25.3400 8.4301 -0.4937
25.3600 8.4368 -0.4979
25.3800 8.4435 -0.4933
25.4000 8.4502 -0.4959
25.4200 8.4569 -0.5029
25.4400 8.4636 -0.4913
25.4600 8.4703 -0.4996
25.4800 8.4769 -0.5047
25.5000 8.4835 -0.4942
25.5200 8.4901 -0.4977
25.5400 8.4968 -0.5028
25.5600 8.5035 -0.4981
25.5800 8.5102 -0.4990
25.6000 8.5168 -0.5017
25.6200 8.5235 -0.4983
25.6400 8.5302 -0.5022
25.6600 8.5369 -0.4994
25.6800 8.5435 -0.5042
25.7000 8.5501 -0.4991
25.7200 8.5568 -0.5000
25.7400 8.5635 -0.5030
25.7600 8.5702 -0.5043
25.7800 8.5769 -0.5006
25.8000 8.5836 -0.5065
25.8200 8.5903 -0.5037
25.8400 8.5970 -0.5025
25.8600 8.6036 -0.5059
25.8800 8.6102 -0.5054
25.9000 8.6168 -0.5028
25.9200 8.6235 -0.5097
25.9400 8.6303 -0.5063
25.9600 8.6370 -0.5039
25.9800 8.6436 -0.5103
26.0000 8.6503 -0.5060
26.0200 8.6569 -0.5053
26.0400 8.6635 -0.5169
26.0600 8.6701 -0.5039
26.0800 8.6768 -0.5030
26.1000 8.6835 -0.5118
26.1200 8.6902 -0.5123
26.1400 8.6969 -0.5086
26.1600 8.7035 -0.5105
26.1800 8.7102 -0.5089
26.2000 8.7169 -0.5131
26.2200 8.7235 -0.5119
26.2400 8.7301 -0.5087
26.2600 8.7367 -0.5127
26.2800 8.7434 -0.5086
26.3000 8.7502 -0.5160
26.3200 8.7569 -0.5138
26.3400 8.7635 -0.5055
26.3600 8.7702 -0.5204
26.3800 8.7769 -0.5204
26.4000 8.7835 -0.4994
26.4200 8.7901 -0.5204
26.4400 8.7968 -0.5195
26.4600 8.8035 -0.5056
26.4800 8.8102 -0.5176
26.5000 8.8169 -0.5213
26.5200 8.8236 -0.5098
26.5400 8.8303 -0.5212
26.5600 8.8369 -0.5201
26.5800 8.8436 -0.5080
26.6000 8.8502 -0.5208
26.6200 8.8568 -0.5230
26.6400 8.8635 -0.5072
26.6600 8.8702 -0.5187
26.6800 8.8769 -0.5232
26.7000 8.8836 -0.5164
26.7200 8.8903 -0.5177
26.7400 8.8970 -0.5278
26.7600 8.9036 -0.5153
26.7800 8.9101 -0.5183
26.8000 8.9168 -0.5219
26.8200 8.9235 -0.5149
26.8400 8.9302 -0.5221
26.8600 8.9369 -0.5271
26.8800 8.9436 -0.5157
26.9000 8.9502 -0.5191
26.9200 8.9569 -0.5318
26.9400 8.9635 -0.5207
26.9600 8.9701 -0.5233
26.9800 8.9768 -0.5234
27.0000 8.9835 -0.5198
27.0200 8.9902 -0.5251
27.0400 8.9969 -0.5273
27.0600 9.0035 -0.5193
27.0800 9.0102 -0.5241
27.1000 9.0169 -0.5335
27.1200 9.0235 -0.5224
27.1400 9.0302 -0.5238
27.1600 9.0368 -0.5336
27.1800 9.0435 -0.5181
27.2000 9.0502 -0.5252
27.2200 9.0569 -0.5351
27.2400 9.0636 -0.5195
27.2600 9.0703 -0.5258
27.2800 9.0770 -0.5331
27.3000 9.0836 -0.5236
27.3200 9.0902 -0.5276
27.3400 9.0968 -0.5307
27.3600 9.1035 -0.5272
27.3800 9.1102 -0.5246
27.4000 9.1169 -0.5318
27.4200 9.1236 -0.5291
27.4400 9.1303 -0.5311
27.4600 9.1369 -0.5352
27.4800 9.1436 -0.5245
27.5000 9.1502 -0.5305
27.5200 9.1568 -0.5306
27.5400 9.1635 -0.5287
27.5600 9.1702 -0.5371
27.5800 9.1769 -0.5233
27.6000 9.1836 -0.5299
27.6200 9.1902 -0.5395
27.6400 9.1969 -0.5269
27.6600 9.2035 -0.5347
27.6800 9.2101 -0.5355
27.7000 9.2168 -0.5254
27.7200 9.2234 -0.5325
27.7400 9.2302 -0.5440
27.7600 9.2369 -0.5364
27.7800 9.2436 -0.5356
27.8000 9.2502 -0.5296
27.8200 9.2569 -0.5319
27.8400 9.2636 -0.5484
27.8600 9.2701 -0.5358
27.8800 9.2768 -0.5286
27.9000 9.2835 -0.5440
27.9200 9.2902 -0.5353
27.9400 9.2969 -0.5420
27.9600 9.3036 -0.5444
27.9800 9.3103 -0.5357
28.0000 9.3170 -0.5376
28.0200 9.3236 -0.5525
28.0400 9.3302 -0.5332
28.0600 9.3368 -0.5342
28.0800 9.3435 -0.5518
28.1000 9.3502 -0.5332
28.1200 9.3569 -0.5392
28.1400 9.3636 -0.5486
28.1600 9.3703 -0.5297
28.1800 9.3769 -0.5467
28.2000 9.3836 -0.5528
28.2200 9.3901 -0.5271
28.2400 9.3968 -0.5402
28.2600 9.4034 -0.5522
28.2800 9.4102 -0.5343
28.3000 9.4169 -0.5442
28.3200 9.4236 -0.5478
28.3400 9.4302 -0.5368
28.3600 9.4369 -0.5526
28.3800 9.4435 -0.5444
28.4000 9.4501 -0.5342
28.4200 9.4568 -0.5620
28.4400 9.4635 -0.5440
28.4600 9.4702 -0.5270
28.4800 9.4769 -0.5563
28.5000 9.4836 -0.5491
28.5200 9.4902 -0.5331
28.5400 9.4969 -0.5561
28.5600 9.5036 -0.5496
28.5800 9.5102 -0.5355
28.6000 9.5168 -0.5536
28.6200 9.5235 -0.5473
28.6400 9.5302 -0.5415
28.6600 9.5369 -0.5581
28.6800 9.5436 -0.5448
28.7000 9.5503 -0.5383
28.7200 9.5569 -0.5608
28.7400 9.5636 -0.5444
28.7600 9.5702 -0.5409
28.7800 9.5768 -0.5558
28.8000 9.5835 -0.5473
28.8200 9.5902 -0.5426
28.8400 9.5969 -0.5532
28.8600 9.6036 -0.5453
28.8800 9.6103 -0.5490
28.9000 9.6170 -0.5540
28.9200 9.6236 -0.5456
28.9400 9.6302 -0.5517
28.9600 9.6368 -0.5548
28.9800 9.6435 -0.5509
29.0000 9.6502 -0.5520
29.0200 9.6569 -0.5461
29.0400 9.6635 -0.5551
29.0600 9.6702 -0.5531
29.0800 9.6769 -0.5496
29.1000 9.6836 -0.5533
29.1200 9.6902 -0.5518
29.1400 9.6968 -0.5518
29.1600 9.7034 -0.5515
29.1800 9.7102 -0.5558
29.2000 9.7169 -0.5490
29.2200 9.7235 -0.5558
29.2400 9.7302 -0.5504
29.2600 9.7369 -0.5547
29.2800 9.7436 -0.5602
29.3000 9.7502 -0.5496
29.3200 9.7568 -0.5510
29.3400 9.7635 -0.5608
29.3600 9.7702 -0.5487
29.3800 9.7769 -0.5551
29.4000 9.7836 -0.5602
29.4200 9.7903 -0.5526
29.4400 9.7970 -0.5533
29.4600 9.8036 -0.5657
29.4800 9.8102 -0.5510
29.5000 9.8168 -0.5500
29.5200 9.8235 -0.5636
29.5400 9.8302 -0.5538
29.5600 9.8369 -0.5546
29.5800 9.8436 -0.5616
29.6000 9.8503 -0.5531
29.6200 9.8569 -0.5625
29.6400 9.8636 -0.5633
29.6600 9.8702 -0.5507
29.6800 9.8768 -0.5589
29.7000 9.8835 -0.5681
29.7200 9.8902 -0.5513
29.7400 9.8969 -0.5580
29.7600 9.9035 -0.5700
29.7800 9.9102 -0.5531
29.8000 9.9169 -0.5599
29.8200 9.9236 -0.5678
29.8400 9.9302 -0.5643
29.8600 9.9368 -0.5606
29.8800 9.9434 -0.5599
29.9000 9.9501 -0.5610
29.9200 9.9568 -0.5609
29.9400 9.9635 -0.5691
29.9600 9.9702 -0.5618
29.9800 9.9769 -0.5552
30.0000 9.9835 -0.5749
30.0200 9.9901 -0.5637
30.0400 9.9968 -0.5553
30.0600 10.0035 -0.5728
30.0800 10.0102 -0.5668
30.1000 10.0169 -0.5585
30.1200 10.0236 -0.5754
30.1400 10.0303 -0.5602
30.1600 10.0369 -0.5631
30.1800 10.0436 -0.5776
30.2000 10.0502 -0.5652
30.2200 10.0569 -0.5595
30.2400 10.0635 -0.5732
30.2600 10.0702 -0.5670
30.2800 10.0769 -0.5639
30.3000 10.0836 -0.5703
30.3200 10.0903 -0.5701
30.3400 10.0969 -0.5680
30.3600 10.1036 -0.5694
30.3800 10.1102 -0.5717
30.4000 10.1168 -0.5711
30.4200 10.1234 -0.5648
30.4400 10.1301 -0.5731
30.4600 10.1369 -0.5717
30.4800 10.1435 -0.5693
30.5000 10.1502 -0.5723
30.5200 10.1569 -0.5692
30.5400 10.1635 -0.5707
30.5600 10.1702 -0.5754
30.5800 10.1768 -0.5685
30.6000 10.1835 -0.5695
30.6200 10.1902 -0.5793
30.6400 10.1969 -0.5711
30.6600 10.2036 -0.5758
30.6800 10.2102 -0.5740
30.7000 10.2169 -0.5706
30.7200 10.2236 -0.5798
30.7400 10.2302 -0.5730
30.7600 10.2369 -0.5701
30.7800 10.2435 -0.5829
30.8000 10.2502 -0.5731
30.8200 10.2569 -0.5728
30.8400 10.2636 -0.5788
30.8600 10.2703 -0.5769
30.8800 10.2770 -0.5745
30.9000 10.2836 -0.5775
30.9200 10.2902 -0.5758
30.9400 10.2968 -0.5784
30.9600 10.3035 -0.5764
30.9800 10.3102 -0.5782
31.0000 10.3169 -0.5776
31.0200 10.3236 -0.5794
31.0400 10.3303 -0.5782
31.0600 10.3369 -0.5759
31.0800 10.3436 -0.5821
31.1000 10.3502 -0.5791
31.1200 10.3568 -0.5789
31.1400 10.3634 -0.5838
31.1600 10.3702 -0.5783
31.1800 10.3769 -0.5820
31.2000 10.3836 -0.5858
31.2200 10.3902 -0.5762
31.2400 10.3969 -0.5850
31.2600 10.4036 -0.5854
31.2800 10.4102 -0.5776
31.3000 10.4168 -0.5846
31.3200 10.4235 -0.5852
31.3400 10.4301 -0.5778
31.3600 10.4368 -0.5882
31.3800 10.4435 -0.5848
31.4000 10.4502 -0.5780
31.4200 10.4569 -0.5880
31.4400 10.4636 -0.5873
31.4600 10.4702 -0.5836
31.4800 10.4768 -0.5893
31.5000 10.4835 -0.5802
31.5200 10.4902 -0.5889
31.5400 10.4969 -0.5900
31.5600 10.5036 -0.5822
31.5800 10.5103 -0.5921
31.6000 10.5170 -0.5847
31.6200 10.5236 -0.5823
31.6400 10.5302 -0.5951
31.6600 10.5368 -0.5903
31.6800 10.5435 -0.5832
31.7000 10.5502 -0.5904
31.7200 10.5569 -0.5895
31.7400 10.5636 -0.5876
31.7600 10.5703 -0.5947
31.7800 10.5770 -0.5873
31.8000 10.5836 -0.5863
31.8200 10.5902 -0.5973
31.8400 10.5968 -0.5905
31.8600 10.6034 -0.5842
31.8800 10.6101 -0.5975
31.9000 10.6169 -0.5900
31.9200 10.6236 -0.5923
31.9400 10.6303 -0.6042
31.9600 10.6370 -0.5922
31.9800 10.6436 -0.5954
32.0000 10.6502 -0.5983
32.0200 10.6568 -0.5904
32.0400 10.6634 -0.5950
32.0600 10.6701 -0.6007
32.0800 10.6769 -0.5937
32.1000 10.6836 -0.5962
32.1200 10.6902 -0.5971
32.1400 10.6969 -0.5937
32.1600 10.7036 -0.5965
32.1800 10.7102 -0.6072
32.2000 10.7168 -0.5985
32.2200 10.7235 -0.5955
32.2400 10.7302 -0.5989
32.2600 10.7369 -0.5981
32.2800 10.7436 -0.6013
32.3000 10.7503 -0.6019
32.3200 10.7570 -0.5974
32.3400 10.7637 -0.5965
32.3600 10.7703 -0.6057
32.3800 10.7769 -0.6027
32.4000 10.7835 -0.5884
32.4200 10.7902 -0.6091
32.4400 10.7969 -0.6022
32.4600 10.8036 -0.5957
32.4800 10.8103 -0.6102
32.5000 10.8169 -0.6013
32.5200 10.8236 -0.6033
32.5400 10.8302 -0.6101
32.5600 10.8368 -0.5957
32.5800 10.8434 -0.5950
32.6000 10.8501 -0.6152
32.6200 10.8569 -0.6018
32.6400 10.8636 -0.5999
32.6600 10.8702 -0.6147
32.6800 10.8769 -0.6069
32.7000 10.8836 -0.6027
32.7200 10.8902 -0.6013
32.7400 10.8968 -0.6062
32.7600 10.9035 -0.6144
32.7800 10.9102 -0.6034
32.8000 10.9169 -0.6100
32.8200 10.9236 -0.6104
32.8400 10.9302 -0.6078
32.8600 10.9369 -0.6096
32.8800 10.9436 -0.6118
32.9000 10.9502 -0.6060
32.9200 10.9569 -0.6106
32.9400 10.9635 -0.6093
32.9600 10.9701 -0.6081
32.9800 10.9769 -0.6111
33.0000 10.9836 -0.6100
33.0200 10.9902 -0.6099
33.0400 10.9969 -0.6139
33.0600 11.0036 -0.6093
33.0800 11.0102 -0.6135
33.1000 11.0168 -0.6146
33.1200 11.0235 -0.6070
33.1400 11.0302 -0.6170
33.1600 11.0369 -0.6175
33.1800 11.0436 -0.6080
33.2000 11.0503 -0.6168
33.2200 11.0570 -0.6152
33.2400 11.0636 -0.6146
33.2600 11.0703 -0.6191
33.2800 11.0768 -0.6105
33.3000 11.0835 -0.6111
33.3200 11.0901 -0.6219
33.3400 11.0969 -0.6181
33.3600 11.1035 -0.6103
33.3800 11.1102 -0.6233
33.4000 11.1169 -0.6173
33.4200 11.1236 -0.6154
33.4400 11.1302 -0.6234
33.4600 11.1368 -0.6168
33.4800 11.1434 -0.6153
33.5000 11.1501 -0.6198
33.5200 11.1568 -0.6160
33.5400 11.1635 -0.6179
33.5600 11.1702 -0.6157
33.5800 11.1769 -0.6196
33.6000 11.1836 -0.6219
33.6200 11.1902 -0.6239
33.6400 11.1968 -0.6198
33.6600 11.2035 -0.6178
33.6800 11.2102 -0.6180
33.7000 11.2169 -0.6326
33.7200 11.2236 -0.6203
33.7400 11.2303 -0.6151
33.7600 11.2370 -0.6262
33.7800 11.2436 -0.6248
33.8000 11.2503 -0.6195
33.8200 11.2569 -0.6287
33.8400 11.2635 -0.6169
33.8600 11.2702 -0.6206
33.8800 11.2769 -0.6290
33.9000 11.2836 -0.6190
33.9200 11.2902 -0.6248
33.9400 11.2969 -0.6274
33.9600 11.3036 -0.6187
33.9800 11.3103 -0.6251
34.0000 11.3169 -0.6331
34.0200 11.3235 -0.6177
34.0400 11.3301 -0.6218
34.0600 11.3368 -0.6271
34.0800 11.3435 -0.6209
34.1000 11.3502 -0.6280
34.1200 11.3569 -0.6274
34.1400 11.3636 -0.6210
34.1600 11.3703 -0.6270
34.1800 11.3768 -0.6231
34.2000 11.3834 -0.6199
34.2200 11.3901 -0.6297
34.2400 11.3968 -0.6249
34.2600 11.4035 -0.6145
34.2800 11.4102 -0.6283
34.3000 11.4169 -0.6304
34.3200 11.4235 -0.6240
34.3400 11.4302 -0.6255
34.3600 11.4368 -0.6321
34.3800 11.4435 -0.6222
34.4000 11.4501 -0.6272
34.4200 11.4569 -0.6327
34.4400 11.4636 -0.6243
34.4600 11.4703 -0.6281
34.4800 11.4770 -0.6307
34.5000 11.4836 -0.6237
34.5200 11.4903 -0.6353
34.5400 11.4969 -0.6301
34.5600 11.5035 -0.6194
34.5800 11.5102 -0.6381
34.6000 11.5169 -0.6335
34.6200 11.5236 -0.6211
34.6400 11.5303 -0.6358
34.6600 11.5369 -0.6357
34.6800 11.5436 -0.6245
34.7000 11.5502 -0.6353
34.7200 11.5568 -0.6354
34.7400 11.5635 -0.6260
34.7600 11.5701 -0.6355
34.7800 11.5768 -0.6367
34.8000 11.5835 -0.6256
34.8200 11.5902 -0.6375
34.8400 11.5969 -0.6314
34.8600 11.6035 -0.6315
34.8800 11.6102 -0.6381
34.9000 11.6168 -0.6354
34.9200 11.6234 -0.6318
34.9400 11.6301 -0.6335
34.9600 11.6368 -0.6315
34.9800 11.6435 -0.6405
35.0000 11.6502 -0.6353
35.0200 11.6569 -0.6372
35.0400 11.6636 -0.6377
35.0600 11.6703 -0.6337
35.0800 11.6769 -0.6361
35.1000 11.6835 -0.6417
35.1200 11.6901 -0.6311
35.1400 11.6968 -0.6378
35.1600 11.7035 -0.6435
35.1800 11.7102 -0.6336
35.2000 11.7169 -0.6377
35.2200 11.7236 -0.6471
35.2400 11.7303 -0.6317
35.2600 11.7369 -0.6423
35.2800 11.7435 -0.6446
35.3000 11.7501 -0.6316
35.3200 11.7568 -0.6413
35.3400 11.7636 -0.6410
35.3600 11.7703 -0.6379
35.3800 11.7769 -0.6449
35.4000 11.7836 -0.6416
35.4200 11.7903 -0.6333
35.4400 11.7969 -0.6465
35.4600 11.8035 -0.6461
35.4800 11.8102 -0.6299
35.5000 11.8168 -0.6479
35.5200 11.8235 -0.6493
35.5400 11.8302 -0.6317
35.5600 11.8369 -0.6500
35.5800 11.8436 -0.6465
35.6000 11.8503 -0.6401
35.6200 11.8569 -0.6454
35.6400 11.8635 -0.6503
35.6600 11.8701 -0.6384
35.6800 11.8768 -0.6446
35.7000 11.8835 -0.6477
35.7200 11.8902 -0.6378
35.7400 11.8969 -0.6477
35.7600 11.9036 -0.6496
35.7800 11.9102 -0.6374
35.8000 11.9168 -0.6540
35.8200 11.9235 -0.6447
35.8400 11.9301 -0.6385
35.8600 11.9368 -0.6542
35.8800 11.9435 -0.6504
35.9000 11.9502 -0.6404
35.9200 11.9569 -0.6563
35.9400 11.9636 -0.6426
35.9600 11.9702 -0.6411
35.9800 11.9769 -0.6577
36.0000 11.9835 -0.6496
36.0200 11.9902 -0.6394
36.0400 11.9968 -0.6510
36.0600 12.0035 -0.6553
36.0800 12.0102 -0.6447
36.1000 12.0169 -0.6474
36.1200 12.0236 -0.6510
36.1400 12.0303 -0.6478
36.1600 12.0369 -0.6503
36.1800 12.0435 -0.6587
36.2000 12.0501 -0.6462
36.2200 12.0568 -0.6472
36.2400 12.0636 -0.6578
36.2600 12.0703 -0.6524
36.2800 12.0769 -0.6489
36.3000 12.0836 -0.6602
36.3200 12.0902 -0.6558
36.3400 12.0969 -0.6469
36.3600 12.1035 -0.6538
36.3800 12.1101 -0.6543
36.4000 12.1168 -0.6558
36.4200 12.1235 -0.6580
36.4400 12.1302 -0.6440
36.4600 12.1369 -0.6578
36.4800 12.1436 -0.6601
36.5000 12.1502 -0.6529
36.5200 12.1569 -0.6611
36.5400 12.1635 -0.6634
36.5600 12.1701 -0.6455
36.5800 12.1768 -0.6573
36.6000 12.1835 -0.6702
36.6200 12.1903 -0.6500
36.6400 12.1970 -0.6603
36.6600 12.2036 -0.6684
36.6800 12.2103 -0.6491
36.7000 12.2169 -0.6639
36.7200 12.2235 -0.6657
36.7400 12.2301 -0.6573
36.7600 12.2368 -0.6603
36.7800 12.2436 -0.6628
36.8000 12.2503 -0.6585
36.8200 12.2570 -0.6569
36.8400 12.2636 -0.6661
36.8600 12.2703 -0.6590
36.8800 12.2769 -0.6643
36.9000 12.2835 -0.6605
36.9200 12.2901 -0.6564
36.9400 12.2968 -0.6675
36.9600 12.3035 -0.6687
36.9800 12.3102 -0.6581
37.0000 12.3169 -0.6634
37.0200 12.3236 -0.6712
37.0400 12.3303 -0.6604
37.0600 12.3369 -0.6627
37.0800 12.3435 -0.6745
37.1000 12.3501 -0.6573
37.1200 12.3568 -0.6669
37.1400 12.3635 -0.6731
37.1600 12.3702 -0.6562
37.1800 12.3769 -0.6677
37.2000 12.3836 -0.6766
37.2200 12.3903 -0.6593
37.2400 12.3969 -0.6667
37.2600 12.4035 -0.6699
37.2800 12.4101 -0.6631
37.3000 12.4168 -0.6679
37.3200 12.4235 -0.6710
37.3400 12.4302 -0.6639
37.3600 12.4369 -0.6740
37.3800 12.4436 -0.6685
37.4000 12.4503 -0.6618
37.4200 12.4569 -0.6723
37.4400 12.4635 -0.6701
37.4600 12.4702 -0.6676
37.4800 12.4769 -0.6662
37.5000 12.4836 -0.6664
37.5200 12.4902 -0.6726
37.5400 12.4969 -0.6719
37.5600 12.5036 -0.6645
37.5800 12.5103 -0.6741
37.6000 12.5169 -0.6723
37.6200 12.5235 -0.6706
37.6400 12.5301 -0.6719
37.6600 12.5368 -0.6719
37.6800 12.5435 -0.6675
37.7000 12.5502 -0.6714
37.7200 12.5569 -0.6656
37.7400 12.5636 -0.6747
37.7600 12.5702 -0.6736
37.7800 12.5769 -0.6645
37.8000 12.5835 -0.6703
37.8200 12.5901 -0.6767
37.8400 12.5967 -0.6660
37.8600 12.6035 -0.6754
37.8800 12.6102 -0.6714
37.9000 12.6168 -0.6686
37.9200 12.6235 -0.6785
37.9400 12.6302 -0.6756
37.9600 12.6369 -0.6663
37.9800 12.6435 -0.6820
38.0000 12.6501 -0.6742
38.0200 12.6568 -0.6698
38.0400 12.6635 -0.6780
38.0600 12.6702 -0.6759
38.0800 12.6769 -0.6741
38.1000 12.6836 -0.6797
38.1200 12.6903 -0.6778
38.1400 12.6969 -0.6765
38.1600 12.7035 -0.6810
38.1800 12.7101 -0.6762
38.2000 12.7168 -0.6726
38.2200 12.7235 -0.6813
38.2400 12.7302 -0.6808
38.2600 12.7369 -0.6753
38.2800 12.7436 -0.6808
38.3000 12.7503 -0.6814
38.3200 12.7569 -0.6795
38.3400 12.7635 -0.6745
38.3600 12.7701 -0.6857
38.3800 12.7768 -0.6756
38.4000 12.7835 -0.6800
38.4200 12.7902 -0.6857
38.4400 12.7969 -0.6777
38.4600 12.8036 -0.6865
38.4800 12.8103 -0.6880
38.5000 12.8169 -0.6733
38.5200 12.8235 -0.6864
38.5400 12.8301 -0.6888
38.5600 12.8368 -0.6757
38.5800 12.8435 -0.6842
38.6000 12.8502 -0.6919
38.6200 12.8569 -0.6716
38.6400 12.8635 -0.6877
38.6600 12.8702 -0.6856
38.6800 12.8769 -0.6805
38.7000 12.8835 -0.6892
38.7200 12.8901 -0.6802
38.7400 12.8968 -0.6780
38.7600 12.9035 -0.6899
38.7800 12.9102 -0.6852
38.8000 12.9169 -0.6828
38.8200 12.9236 -0.6947
38.8400 12.9303 -0.6873
38.8600 12.9369 -0.6832
38.8800 12.9435 -0.6934
38.9000 12.9501 -0.6838
38.9200 12.9568 -0.6876
38.9400 12.9635 -0.6949
38.9600 12.9703 -0.6827
38.9800 12.9769 -0.6920
39.0000 12.9836 -0.6900
39.0200 12.9903 -0.6837
39.0400 12.9969 -0.6925
39.0600 13.0035 -0.6957
39.0800 13.0102 -0.6859
39.1000 13.0168 -0.6916
39.1200 13.0235 -0.6884
39.1400 13.0302 -0.6910
39.1600 13.0368 -0.6944
39.1800 13.0435 -0.6880
39.2000 13.0502 -0.6909
39.2200 13.0569 -0.7019
39.2400 13.0635 -0.6918
39.2600 13.0701 -0.6937
39.2800 13.0768 -0.6928
39.3000 13.0835 -0.6910
39.3200 13.0902 -0.6966
39.3400 13.0969 -0.6973
39.3600 13.1036 -0.6891
39.3800 13.1103 -0.6963
39.4000 13.1169 -0.7034
39.4200 13.1235 -0.6877
39.4400 13.1302 -0.6993
39.4600 13.1368 -0.7019
39.4800 13.1435 -0.6921
39.5000 13.1502 -0.7001
39.5200 13.1569 -0.6964
39.5400 13.1636 -0.6972
39.5600 13.1703 -0.7016
39.5800 13.1769 -0.7005
39.6000 13.1835 -0.6952
39.6200 13.1902 -0.6972
39.6400 13.1968 -0.7072
39.6600 13.2035 -0.6928
39.6800 13.2102 -0.6975
39.7000 13.2169 -0.7046
39.7200 13.2236 -0.6979
39.7400 13.2303 -0.6993
39.7600 13.2369 -0.7075
39.7800 13.2435 -0.6976
39.8000 13.2501 -0.7011
39.8200 13.2568 -0.7025
39.8400 13.2635 -0.6988
39.8600 13.2702 -0.7025
39.8800 13.2769 -0.7042
39.9000 13.2836 -0.6951
39.9200 13.2903 -0.7059
39.9400 13.2969 -0.7038
39.9600 13.3035 -0.7020
39.9800 13.3101 -0.7025
40.0000 13.3167 -0.7029
40.0200 13.3235 -0.7051
40.0400 13.3302 -0.7073
40.0600 13.3369 -0.7055
40.0800 13.3435 -0.6990
40.1000 13.3502 -0.7058
40.1200 13.3569 -0.7104
40.1400 13.3635 -0.7001
40.1600 13.3701 -0.7020
40.1800 13.3768 -0.7076
40.2000 13.3835 -0.7042
40.2200 13.3902 -0.7036
40.2400 13.3969 -0.7125
40.2600 13.4036 -0.7055
40.2800 13.4103 -0.7001
40.3000 13.4170 -0.7123
40.3200 13.4236 -0.7060
40.3400 13.4302 -0.6984
40.3600 13.4368 -0.7116
40.3800 13.4435 -0.7039
40.4000 13.4502 -0.7046
40.4200 13.4570 -0.7152
40.4400 13.4636 -0.7024
40.4600 13.4703 -0.7113
40.4800 13.4769 -0.7118
40.5000 13.4835 -0.7021
40.5200 13.4901 -0.7057
40.5400 13.4968 -0.7171
40.5600 13.5035 -0.7053
40.5800 13.5102 -0.7048
40.6000 13.5168 -0.7224
40.6200 13.5235 -0.7096
40.6400 13.5302 -0.6997
40.6600 13.5369 -0.7210
40.6800 13.5435 -0.7174
40.7000 13.5502 -0.7026
40.7200 13.5568 -0.7101
40.7400 13.5635 -0.7149
40.7600 13.5702 -0.7008
40.7800 13.5768 -0.7128
40.8000 13.5835 -0.7144
40.8200 13.5902 -0.7069
40.8400 13.5969 -0.7151
40.8600 13.6036 -0.7081
40.8800 13.6102 -0.7081
40.9000 13.6168 -0.7241
40.9200 13.6235 -0.7033
40.9400 13.6302 -0.7007
40.9600 13.6369 -0.7353
40.9800 13.6436 -0.7049
41.0000 13.6503 -0.6953
41.0200 13.6569 -0.7386
41.0400 13.6636 -0.7065
41.0600 13.6702 -0.6959
41.0800 13.6769 -0.7380
41.1000 13.6835 -0.7146
41.1200 13.6902 -0.6994
41.1400 13.6969 -0.7330
41.1600 13.7036 -0.7133
41.1800 13.7103 -0.7033
41.2000 13.7170 -0.7300
41.2200 13.7236 -0.7136
41.2400 13.7302 -0.7115
41.2600 13.7368 -0.7294
41.2800 13.7435 -0.7108
41.3000 13.7502 -0.7160
41.3200 13.7569 -0.7316
41.3400 13.7635 -0.7053
41.3600 13.7702 -0.7197
41.3800 13.7769 -0.7335
41.4000 13.7835 -0.7070
41.4200 13.7901 -0.7215
41.4400 13.7967 -0.7300
41.4600 13.8034 -0.7077
41.4800 13.8102 -0.7244
41.5000 13.8169 -0.7280
41.5200 13.8236 -0.7093
41.5400 13.8303 -0.7215
41.5600 13.8369 -0.7314
41.5800 13.8436 -0.7210
41.6000 13.8502 -0.7206
41.6200 13.8568 -0.7238
41.6400 13.8635 -0.7254
41.6600 13.8702 -0.7210
41.6800 13.8769 -0.7232
41.7000 13.8836 -0.7293
41.7200 13.8903 -0.7189
41.7400 13.8970 -0.7289
41.7600 13.9036 -0.7305
41.7800 13.9102 -0.7171
41.8000 13.9168 -0.7272
41.8200 13.9235 -0.7305
41.8400 13.9302 -0.7201
41.8600 13.9369 -0.7341
41.8800 13.9436 -0.7279
41.9000 13.9503 -0.7204
41.9200 13.9569 -0.7385
41.9400 13.9636 -0.7287
41.9600 13.9702 -0.7200
41.9800 13.9768 -0.7381
42.0000 13.9835 -0.7291
42.0200 13.9902 -0.7201
42.0400 13.9969 -0.7368
42.0600 14.0036 -0.7288
42.0800 14.0102 -0.7242
42.1000 14.0169 -0.7409
42.1200 14.0236 -0.7268
42.1400 14.0302 -0.7307
42.1600 14.0368 -0.7329
42.1800 14.0434 -0.7275
42.2000 14.0501 -0.7321
42.2200 14.0568 -0.7315
42.2400 14.0635 -0.7314
42.2600 14.0702 -0.7316
42.2800 14.0769 -0.7338
42.3000 14.0836 -0.7335
42.3200 14.0902 -0.7346
42.3400 14.0968 -0.7285
42.3600 14.1035 -0.7333
42.3800 14.1102 -0.7376
42.4000 14.1169 -0.7310
42.4200 14.1236 -0.7378
42.4400 14.1303 -0.7357
42.4600 14.1370 -0.7304
42.4800 14.1436 -0.7447
42.5000 14.1502 -0.7292
42.5200 14.1568 -0.7315
42.5400 14.1635 -0.7456
42.5600 14.1702 -0.7276
42.5800 14.1769 -0.7343
42.6000 14.1836 -0.7441
42.6200 14.1903 -0.7298
42.6400 14.1969 -0.7391
42.6600 14.2036 -0.7411
42.6800 14.2102 -0.7286
42.7000 14.2168 -0.7404
42.7200 14.2234 -0.7451
42.7400 14.2302 -0.7260
42.7600 14.2369 -0.7444
42.7800 14.2436 -0.7400
42.8000 14.2503 -0.7325
42.8200 14.2569 -0.7477
42.8400 14.2636 -0.7380
42.8600 14.2702 -0.7346
42.8800 14.2768 -0.7446
42.9000 14.2834 -0.7380
42.9200 14.2901 -0.7323
42.9400 14.2969 -0.7477
42.9600 14.3036 -0.7401
42.9800 14.3102 -0.7343
43.0000 14.3169 -0.7448
43.0200 14.3235 -0.7400
43.0400 14.3301 -0.7434
43.0600 14.3368 -0.7444
43.0800 14.3435 -0.7337
43.1000 14.3502 -0.7467
43.1200 14.3569 -0.7471
43.1400 14.3636 -0.7363
43.1600 14.3703 -0.7407
43.1800 14.3770 -0.7566
43.2000 14.3836 -0.7373
43.2200 14.3902 -0.7410
43.2400 14.3968 -0.7519
43.2600 14.4035 -0.7410
43.2800 14.4102 -0.7469
43.3000 14.4169 -0.7525
43.3200 14.4236 -0.7432
43.3400 14.4303 -0.7517
43.3600 14.4370 -0.7546
43.3800 14.4436 -0.7387
43.4000 14.4502 -0.7476
43.4200 14.4568 -0.7551
43.4400 14.4635 -0.7389
43.4600 14.4702 -0.7536
43.4800 14.4769 -0.7480
43.5000 14.4836 -0.7440
43.5200 14.4902 -0.7587
43.5400 14.4969 -0.7466
43.5600 14.5036 -0.7458
43.5800 14.5102 -0.7603
43.6000 14.5168 -0.7455
43.6200 14.5234 -0.7474
43.6400 14.5301 -0.7547
43.6600 14.5368 -0.7540
43.6800 14.5435 -0.7509
43.7000 14.5502 -0.7477
43.7200 14.5569 -0.7507
43.7400 14.5636 -0.7565
43.7600 14.5702 -0.7526
43.7800 14.5768 -0.7512
43.8000 14.5834 -0.7591
43.8200 14.5901 -0.7497
43.8400 14.5968 -0.7500
43.8600 14.6035 -0.7576
43.8800 14.6102 -0.7561
43.9000 14.6169 -0.7550
43.9200 14.6236 -0.7602
43.9400 14.6302 -0.7516
43.9600 14.6368 -0.7598
43.9800 14.6435 -0.7534
44.0000 14.6502 -0.7507
44.0200 14.6569 -0.7626
44.0400 14.6636 -0.7555
44.0600 14.6703 -0.7512
44.0800 14.6769 -0.7604
44.1000 14.6836 -0.7572
44.1200 14.6902 -0.7554
44.1400 14.6968 -0.7577
44.1600 14.7035 -0.7578
44.1800 14.7102 -0.7541
44.2000 14.7169 -0.7584
44.2200 14.7236 -0.7597
44.2400 14.7302 -0.7576
44.2600 14.7369 -0.7572
44.2800 14.7436 -0.7586
44.3000 14.7502 -0.7638
44.3200 14.7568 -0.7612
44.3400 14.7634 -0.7527
44.3600 14.7701 -0.7634
44.3800 14.7768 -0.7618
44.4000 14.7835 -0.7553
44.4200 14.7902 -0.7705
44.4400 14.7969 -0.7637
44.4600 14.8035 -0.7547
44.4800 14.8101 -0.7663
44.5000 14.8168 -0.7559
44.5200 14.8235 -0.7617
44.5400 14.8302 -0.7738
44.5600 14.8369 -0.7535
44.5800 14.8436 -0.7652
44.6000 14.8503 -0.7725
44.6200 14.8569 -0.7532
44.6400 14.8636 -0.7657
44.6600 14.8702 -0.7765
44.6800 14.8768 -0.7524
44.7000 14.8835 -0.7659
44.7200 14.8902 -0.7706
44.7400 14.8969 -0.7589
44.7600 14.9036 -0.7659
44.7800 14.9103 -0.7717
44.8000 14.9170 -0.7574
44.8200 14.9236 -0.7721
44.8400 14.9302 -0.7693
44.8600 14.9368 -0.7617
44.8800 14.9434 -0.7687
44.9000 14.9501 -0.7663
44.9200 14.9568 -0.7639
44.9400 14.9635 -0.7694
44.9600 14.9702 -0.7694
44.9800 14.9769 -0.7705
45.0000 14.9836 -0.7693
45.0200 14.9902 -0.7672
45.0400 14.9968 -0.7681
45.0600 15.0034 -0.7680
45.0800 15.0101 -0.7717
45.1000 15.0169 -0.7735
45.1200 15.0236 -0.7656
45.1400 15.0302 -0.7711
45.1600 15.0369 -0.7718
45.1800 15.0436 -0.7672
45.2000 15.0502 -0.7757
45.2200 15.0569 -0.7708
45.2400 15.0635 -0.7674
45.2600 15.0702 -0.7774
45.2800 15.0769 -0.7736
45.3000 15.0836 -0.7647
45.3200 15.0903 -0.7767
45.3400 15.0970 -0.7675
45.3600 15.1037 -0.7682
45.3800 15.1103 -0.7782
45.4000 15.1168 -0.7741
45.4200 15.1235 -0.7646
45.4400 15.1301 -0.7748
45.4600 15.1369 -0.7737
45.4800 15.1436 -0.7712
45.5000 15.1502 -0.7824
45.5200 15.1569 -0.7711
45.5400 15.1636 -0.7704
45.5600 15.1702 -0.7854
45.5800 15.1768 -0.7687
45.6000 15.1835 -0.7679
45.6200 15.1902 -0.7847
45.6400 15.1969 -0.7730
45.6600 15.2036 -0.7694
45.6800 15.2103 -0.7841
45.7000 15.2169 -0.7720
45.7200 15.2236 -0.7741
45.7400 15.2302 -0.7852
45.7600 15.2368 -0.7679
45.7800 15.2435 -0.7775
45.8000 15.2501 -0.7882
45.8200 15.2568 -0.7716
45.8400 15.2635 -0.7742
45.8600 15.2702 -0.7884
45.8800 15.2769 -0.7716
45.9000 15.2836 -0.7773
45.9200 15.2902 -0.7839
45.9400 15.2968 -0.7739
45.9600 15.3035 -0.7798
45.9800 15.3102 -0.7857
46.0000 15.3169 -0.7735
46.0200 15.3236 -0.7821
46.0400 15.3303 -0.7889
46.0600 15.3369 -0.7741
46.0800 15.3436 -0.7805
46.1000 15.3502 -0.7922
46.1200 15.3568 -0.7740
46.1400 15.3635 -0.7789
46.1600 15.3702 -0.7875
46.1800 15.3769 -0.7787
46.2000 15.3836 -0.7834
46.2200 15.3903 -0.7929
46.2400 15.3969 -0.7794
46.2600 15.4036 -0.7816
46.2800 15.4102 -0.7938
46.3000 15.4168 -0.7822
46.3200 15.4234 -0.7835
46.3400 15.4301 -0.7953
46.3600 15.4369 -0.7785
46.3800 15.4436 -0.7807
46.4000 15.4503 -0.7978
46.4200 15.4569 -0.7806
46.4400 15.4636 -0.7827
46.4600 15.4702 -0.7945
46.4800 15.4768 -0.7834
46.5000 15.4834 -0.7842
46.5200 15.4901 -0.7927
46.5400 15.4968 -0.7798
46.5600 15.5035 -0.7913
46.5800 15.5102 -0.7915
46.6000 15.5169 -0.7806
46.6200 15.5236 -0.7912
46.6400 15.5302 -0.7989
46.6600 15.5368 -0.7843
46.6800 15.5434 -0.7877
46.7000 15.5501 -0.7946
46.7200 15.5568 -0.7851
46.7400 15.5635 -0.7892
46.7600 15.5702 -0.7965
46.7800 15.5769 -0.7882
46.8000 15.5836 -0.7939
46.8200 15.5903 -0.7947
46.8400 15.5969 -0.7955
46.8600 15.6035 -0.7914
46.8800 15.6102 -0.7941
46.9000 15.6169 -0.7937
46.9200 15.6236 -0.7972
46.9400 15.6303 -0.7962
46.9600 15.6370 -0.7944
46.9800 15.6436 -0.7991
47.0000 15.6502 -0.7976
47.0200 15.6568 -0.7929
47.0400 15.6634 -0.7954
47.0600 15.6701 -0.8022
47.0800 15.6768 -0.7917
47.1000 15.6835 -0.7961
47.1200 15.6902 -0.8057
47.1400 15.6969 -0.7921
47.1600 15.7036 -0.7967
47.1800 15.7103 -0.8069
47.2000 15.7169 -0.7928
47.2200 15.7235 -0.7976
47.2400 15.7301 -0.8015
47.2600 15.7369 -0.7929
47.2800 15.7436 -0.8025
47.3000 15.7502 -0.8010
47.3200 15.7569 -0.7929
47.3400 15.7636 -0.8031
47.3600 15.7702 -0.7994
47.3800 15.7769 -0.7962
47.4000 15.7835 -0.8035
47.4200 15.7901 -0.7997
47.4400 15.7969 -0.7998
47.4600 15.8036 -0.8071
47.4800 15.8103 -0.7942
47.5000 15.8169 -0.8021
47.5200 15.8236 -0.8055
47.5400 15.8302 -0.7940
47.5600 15.8368 -0.8035
47.5800 15.8435 -0.8076
47.6000 15.8501 -0.7970
47.6200 15.8569 -0.8077
47.6400 15.8636 -0.8041
47.6600 15.8703 -0.7940
47.6800 15.8769 -0.8088
47.7000 15.8836 -0.8046
47.7200 15.8903 -0.7988
47.7400 15.8969 -0.8101
47.7600 15.9035 -0.8033
47.7800 15.9102 -0.8066
47.8000 15.9169 -0.8080
47.8200 15.9236 -0.8028
47.8400 15.9302 -0.8037
47.8600 15.9369 -0.8063
47.8800 15.9436 -0.8089
47.9000 15.9502 -0.8090
47.9200 15.9568 -0.8079
47.9400 15.9634 -0.8044
47.9600 15.9701 -0.8019
47.9800 15.9768 -0.8041
48.0000 15.9835 -0.8088
48.0200 15.9902 -0.8053
48.0400 15.9969 -0.8102
48.0600 16.0036 -0.8078
48.0800 16.0102 -0.8084
48.1000 16.0169 -0.8073
48.1200 16.0235 -0.8123
48.1400 16.0302 -0.8075
48.1600 16.0369 -0.8094
48.1800 16.0436 -0.8148
48.2000 16.0503 -0.8058
48.2200 16.0570 -0.8087
48.2400 16.0636 -0.8169
48.2600 16.0703 -0.8082
48.2800 16.0769 -0.8150
48.3000 16.0835 -0.8100
48.3200 16.0901 -0.8047
48.3400 16.0968 -0.8157
48.3600 16.1035 -0.8120
48.3800 16.1102 -0.8069
48.4000 16.1169 -0.8162
48.4200 16.1236 -0.8151
48.4400 16.1303 -0.8045
48.4600 16.1369 -0.8164
48.4800 16.1435 -0.8149
48.5000 16.1501 -0.8035
48.5200 16.1568 -0.8141
48.5400 16.1635 -0.8167
48.5600 16.1702 -0.8069
48.5800 16.1769 -0.8177
48.6000 16.1836 -0.8185
48.6200 16.1903 -0.8101
48.6400 16.1969 -0.8168
48.6600 16.2034 -0.8168
48.6800 16.2101 -0.8087
48.7000 16.2168 -0.8216
48.7200 16.2235 -0.8191
48.7400 16.2302 -0.8078
48.7600 16.2369 -0.8211
48.7800 16.2436 -0.8232
48.8000 16.2502 -0.8101
48.8200 16.2569 -0.8204
48.8400 16.2635 -0.8185
48.8600 16.2701 -0.8149
48.8800 16.2768 -0.8197
48.9000 16.2835 -0.8230
48.9200 16.2902 -0.8151
48.9400 16.2969 -0.8219
48.9600 16.3036 -0.8210
48.9800 16.3103 -0.8133
49.0000 16.3169 -0.8250
49.0200 16.3235 -0.8229
49.0400 16.3301 -0.8121
49.0600 16.3368 -0.8234
49.0800 16.3436 -0.8237
49.1000 16.3503 -0.8189
49.1200 16.3569 -0.8251
49.1400 16.3636 -0.8246
49.1600 16.3703 -0.8218
49.1800 16.3769 -0.8257
49.2000 16.3835 -0.8250
49.2200 16.3901 -0.8166
49.2400 16.3968 -0.8254
49.2600 16.4035 -0.8243
49.2800 16.4102 -0.8219
49.3000 16.4168 -0.8224
49.3200 16.4235 -0.8248
49.3400 16.4302 -0.8256
49.3600 16.4369 -0.8242
49.3800 16.4435 -0.8242
49.4000 16.4501 -0.8259
49.4200 16.4568 -0.8262
49.4400 16.4635 -0.8288
49.4600 16.4702 -0.8254
49.4800 16.4769 -0.8294
49.5000 16.4836 -0.8262
49.5200 16.4903 -0.8304
49.5400 16.4969 -0.8273
49.5600 16.5035 -0.8302
49.5800 16.5101 -0.8271
49.6000 16.5168 -0.8268
49.6200 16.5235 -0.8352
49.6400 16.5302 -0.8287
49.6600 16.5369 -0.8283
49.6800 16.5436 -0.8348
49.7000 16.5503 -0.8284
49.7200 16.5569 -0.8300
49.7400 16.5635 -0.8321
49.7600 16.5701 -0.8311
49.7800 16.5768 -0.8304
49.8000 16.5835 -0.8356
49.8200 16.5902 -0.8326
49.8400 16.5969 -0.8308
49.8600 16.6036 -0.8362
49.8800 16.6103 -0.8302
49.9000 16.6169 -0.8363
49.9200 16.6235 -0.8380
49.9400 16.6301 -0.8319
49.9600 16.6368 -0.8337
49.9800 16.6435 -0.8425
50.0000 16.6502 -0.8319
50.0200 16.6569 -0.8311
50.0400 16.6636 -0.8447
50.0600 16.6703 -0.8367
50.0800 16.6769 -0.8348
50.1000 16.6835 -0.8447
50.1200 16.6901 -0.8322
50.1400 16.6968 -0.8393
50.1600 16.7035 -0.8419
50.1800 16.7102 -0.8336
50.2000 16.7169 -0.8393
50.2200 16.7236 -0.8489
50.2400 16.7302 -0.8329
50.2600 16.7369 -0.8384
50.2800 16.7435 -0.8505
50.3000 16.7501 -0.8344
50.3200 16.7568 -0.8381
50.3400 16.7635 -0.8479
50.3600 16.7702 -0.8334
50.3800 16.7769 -0.8470
50.4000 16.7836 -0.8482
50.4200 16.7903 -0.8380
50.4400 16.7969 -0.8452
50.4600 16.8035 -0.8501
50.4800 16.8101 -0.8339
50.5000 16.8168 -0.8503
50.5200 16.8235 -0.8497
50.5400 16.8303 -0.8399
50.5600 16.8369 -0.8494
50.5800 16.8436 -0.8484
50.6000 16.8503 -0.8480
50.6200 16.8569 -0.8534
50.6400 16.8635 -0.8456
50.6600 16.8701 -0.8427
50.6800 16.8768 -0.8549
50.7000 16.8836 -0.8467
50.7200 16.8903 -0.8473
50.7400 16.8969 -0.8542
50.7600 16.9036 -0.8497
50.7800 16.9102 -0.8482
50.8000 16.9169 -0.8539
50.8200 16.9235 -0.8492
50.8400 16.9301 -0.8531
50.8600 16.9368 -0.8500
50.8800 16.9435 -0.8527
50.9000 16.9502 -0.8540
50.9200 16.9568 -0.8488
50.9400 16.9635 -0.8539
50.9600 16.9702 -0.8555
50.9800 16.9769 -0.8514
51.0000 16.9835 -0.8578
51.0200 16.9901 -0.8512
51.0400 16.9968 -0.8533
51.0600 17.0035 -0.8588
51.0800 17.0102 -0.8603
51.1000 17.0169 -0.8540
51.1200 17.0236 -0.8611
51.1400 17.0303 -0.8574
51.1600 17.0369 -0.8573
51.1800 17.0435 -0.8652
51.2000 17.0501 -0.8508
51.2200 17.0568 -0.8586
51.2400 17.0635 -0.8621
51.2600 17.0702 -0.8561
51.2800 17.0769 -0.8582
51.3000 17.0836 -0.8631
51.3200 17.0903 -0.8605
51.3400 17.0969 -0.8601
51.3600 17.1035 -0.8604
51.3800 17.1101 -0.8625
51.4000 17.1168 -0.8635
51.4200 17.1235 -0.8624
51.4400 17.1302 -0.8614
51.4600 17.1369 -0.8605
51.4800 17.1436 -0.8627
51.5000 17.1503 -0.8663
51.5200 17.1569 -0.8617
51.5400 17.1635 -0.8668
51.5600 17.1701 -0.8645
51.5800 17.1768 -0.8605
51.6000 17.1835 -0.8632
51.6200 17.1902 -0.8714
51.6400 17.1969 -0.8650
51.6600 17.2036 -0.8620
51.6800 17.2103 -0.8704
51.7000 17.2169 -0.8667
51.7200 17.2235 -0.8625
51.7400 17.2301 -0.8713
51.7600 17.2368 -0.8636
51.7800 17.2435 -0.8653
51.8000 17.2502 -0.8763
51.8200 17.2569 -0.8620
51.8400 17.2636 -0.8683
51.8600 17.2703 -0.8789
51.8800 17.2769 -0.8640
51.9000 17.2835 -0.8706
51.9200 17.2902 -0.8821
51.9400 17.2968 -0.8616
51.9600 17.3035 -0.8711
51.9800 17.3102 -0.8792
52.0000 17.3169 -0.8630
52.0200 17.3236 -0.8733
52.0400 17.3303 -0.8826
52.0600 17.3369 -0.8617
52.0800 17.3435 -0.8790
52.1000 17.3501 -0.8780
52.1200 17.3568 -0.8590
52.1400 17.3635 -0.8822
52.1600 17.3702 -0.8765
52.1800 17.3769 -0.8604
52.2000 17.3836 -0.8836
52.2200 17.3903 -0.8729
52.2400 17.3969 -0.8677
52.2600 17.4035 -0.8873
52.2800 17.4101 -0.8709
52.3000 17.4168 -0.8690
52.3200 17.4235 -0.8861
52.3400 17.4302 -0.8695
52.3600 17.4368 -0.8744
52.3800 17.4435 -0.8854
52.4000 17.4502 -0.8697
52.4200 17.4569 -0.8807
52.4400 17.4635 -0.8822
52.4600 17.4701 -0.8687
52.4800 17.4768 -0.8819
52.5000 17.4835 -0.8817
52.5200 17.4902 -0.8731
52.5400 17.4969 -0.8823
52.5600 17.5036 -0.8802
52.5800 17.5103 -0.8788
52.6000 17.5170 -0.8832
52.6200 17.5236 -0.8810
52.6400 17.5302 -0.8778
52.6600 17.5368 -0.8837
52.6800 17.5435 -0.8782
52.7000 17.5502 -0.8838
52.7200 17.5569 -0.8901
52.7400 17.5636 -0.8776
52.7600 17.5703 -0.8815
52.7800 17.5769 -0.8864
52.8000 17.5835 -0.8788
52.8200 17.5901 -0.8865
52.8400 17.5968 -0.8841
52.8600 17.6035 -0.8791
52.8800 17.6102 -0.8872
52.9000 17.6169 -0.8926
52.9200 17.6236 -0.8781
52.9400 17.6302 -0.8903
52.9600 17.6369 -0.8924
52.9800 17.6435 -0.8808
53.0000 17.6501 -0.8894
53.0200 17.6568 -0.8885
53.0400 17.6635 -0.8809
53.0600 17.6702 -0.8946
53.0800 17.6769 -0.8875
53.1000 17.6836 -0.8854
53.1200 17.6902 -0.8949
53.1400 17.6969 -0.8923
53.1600 17.7035 -0.8866
53.1800 17.7101 -0.8955
53.2000 17.7168 -0.8885
53.2200 17.7235 -0.8891
53.2400 17.7302 -0.8972
53.2600 17.7369 -0.8884
53.2800 17.7436 -0.8932
53.3000 17.7503 -0.8968
53.3200 17.7569 -0.8953
53.3400 17.7635 -0.8940
53.3600 17.7701 -0.8972
53.3800 17.7768 -0.8938
53.4000 17.7835 -0.8918
53.4200 17.7903 -0.8930
53.4400 17.7970 -0.8971
53.4600 17.8036 -0.8911
53.4800 17.8103 -0.8966
53.5000 17.8169 -0.9023
53.5200 17.8235 -0.8908
53.5400 17.8301 -0.8927
53.5600 17.8368 -0.9049
53.5800 17.8435 -0.8920
53.6000 17.8502 -0.8942
53.6200 17.8569 -0.9057
53.6400 17.8635 -0.8955
53.6600 17.8702 -0.8950
53.6800 17.8769 -0.9070
53.7000 17.8835 -0.8935
53.7200 17.8901 -0.8993
53.7400 17.8968 -0.9083
53.7600 17.9035 -0.8920
53.7800 17.9102 -0.9013
53.8000 17.9169 -0.9072
53.8200 17.9236 -0.8919
53.8400 17.9302 -0.9038
53.8600 17.9369 -0.9077
53.8800 17.9435 -0.8968
53.9000 17.9501 -0.9022
53.9200 17.9568 -0.9081
53.9400 17.9635 -0.8978
53.9600 17.9702 -0.9044
53.9800 17.9769 -0.9104
54.0000 17.9836 -0.8985
54.0200 17.9903 -0.9103
54.0400 17.9969 -0.9121
54.0600 18.0036 -0.8966
54.0800 18.0102 -0.9105
54.1000 18.0168 -0.9132
54.1200 18.0235 -0.8981
54.1400 18.0302 -0.9141
54.1600 18.0369 -0.9118
54.1800 18.0436 -0.9015
54.2000 18.0503 -0.9196
54.2200 18.0570 -0.9122
54.2400 18.0636 -0.9075
54.2600 18.0702 -0.9210
54.2800 18.0768 -0.9082
54.3000 18.0835 -0.9081
54.3200 18.0902 -0.9270
54.3400 18.0969 -0.9104
54.3600 18.1036 -0.9083
54.3800 18.1103 -0.9266
54.4000 18.1169 -0.9081
54.4200 18.1235 -0.9164
54.4400 18.1301 -0.9204
54.4600 18.1368 -0.9120
54.4800 18.1434 -0.9172
54.5000 18.1502 -0.9236
54.5200 18.1569 -0.9194
54.5400 18.1635 -0.9205
54.5600 18.1702 -0.9214
54.5800 18.1769 -0.9238
54.6000 18.1835 -0.9200
54.6200 18.1901 -0.9191
54.6400 18.1968 -0.9243
54.6600 18.2035 -0.9245
54.6800 18.2102 -0.9240
54.7000 18.2169 -0.9216
54.7200 18.2236 -0.9211
54.7400 18.2303 -0.9245
54.7600 18.2370 -0.9292
54.7800 18.2436 -0.9249
54.8000 18.2502 -0.9251
54.8200 18.2568 -0.9300
54.8400 18.2635 -0.9240
54.8600 18.2702 -0.9226
54.8800 18.2769 -0.9371
54.9000 18.2836 -0.9203
54.9200 18.2903 -0.9262
54.9400 18.2969 -0.9354
54.9600 18.3036 -0.9224
54.9800 18.3102 -0.9266
55.0000 18.3168 -0.9376
55.0200 18.3235 -0.9224
55.0400 18.3302 -0.9294
55.0600 18.3369 -0.9375
55.0800 18.3435 -0.9240
55.1000 18.3502 -0.9341
55.1200 18.3569 -0.9422
55.1400 18.3635 -0.9214
55.1600 18.3701 -0.9347
55.1800 18.3767 -0.9395
55.2000 18.3834 -0.9277
55.2200 18.3901 -0.9344
55.2400 18.3968 -0.9402
55.2600 18.4035 -0.9253
55.2800 18.4102 -0.9360
55.3000 18.4169 -0.9417
55.3200 18.4235 -0.9338
55.3400 18.4301 -0.9411
55.3600 18.4368 -0.9387
55.3800 18.4435 -0.9325
55.4000 18.4502 -0.9426
55.4200 18.4569 -0.9440
55.4400 18.4636 -0.9377
55.4600 18.4703 -0.9412
55.4800 18.4770 -0.9377
55.5000 18.4836 -0.9410
55.5200 18.4902 -0.9421
55.5400 18.4969 -0.9431
55.5600 18.5035 -0.9435
55.5800 18.5102 -0.9410
55.6000 18.5169 -0.9437
55.6200 18.5236 -0.9465
55.6400 18.5303 -0.9439
55.6600 18.5369 -0.9510
55.6800 18.5436 -0.9488
55.7000 18.5502 -0.9426
55.7200 18.5568 -0.9483
55.7400 18.5635 -0.9529
55.7600 18.5702 -0.9403
55.7800 18.5769 -0.9533
55.8000 18.5836 -0.9495
55.8200 18.5902 -0.9465
55.8400 18.5969 -0.9558
55.8600 18.6036 -0.9545
55.8800 18.6102 -0.9501
55.9000 18.6168 -0.9551
55.9200 18.6234 -0.9505
55.9400 18.6301 -0.9526
55.9600 18.6369 -0.9608
55.9800 18.6435 -0.9494
56.0000 18.6502 -0.9548
56.0200 18.6569 -0.9621
56.0400 18.6636 -0.9578
56.0600 18.6702 -0.9559
56.0800 18.6768 -0.9608
56.1000 18.6835 -0.9615
56.1200 18.6902 -0.9562
56.1400 18.6969 -0.9574
56.1600 18.7036 -0.9601
56.1800 18.7103 -0.9574
56.2000 18.7170 -0.9608
56.2200 18.7236 -0.9606
56.2400 18.7302 -0.9581
56.2600 18.7368 -0.9614
56.2800 18.7435 -0.9637
56.3000 18.7502 -0.9583
56.3200 18.7569 -0.9662
56.3400 18.7636 -0.9618
56.3600 18.7703 -0.9558
56.3800 18.7769 -0.9701
56.4000 18.7836 -0.9625
56.4200 18.7902 -0.9555
56.4400 18.7968 -0.9709
56.4600 18.8035 -0.9663
56.4800 18.8102 -0.9562
56.5000 18.8169 -0.9719
56.5200 18.8236 -0.9665
56.5400 18.8302 -0.9546
56.5600 18.8369 -0.9708
56.5800 18.8436 -0.9632
56.6000 18.8502 -0.9631
56.6200 18.8568 -0.9752
56.6400 18.8634 -0.9622
56.6600 18.8701 -0.9608
56.6800 18.8768 -0.9737
56.7000 18.8835 -0.9630
56.7200 18.8902 -0.9684
56.7400 18.8969 -0.9757
56.7600 18.9036 -0.9676
56.7800 18.9102 -0.9662
56.8000 18.9168 -0.9733
56.8200 18.9235 -0.9700
56.8400 18.9302 -0.9715
56.8600 18.9369 -0.9718
56.8800 18.9436 -0.9667
56.9000 18.9503 -0.9741
56.9200 18.9570 -0.9732
56.9400 18.9636 -0.9731
56.9600 18.9702 -0.9766
56.9800 18.9768 -0.9726
57.0000 18.9835 -0.9671
57.0200 18.9902 -0.9817
57.0400 18.9969 -0.9772
57.0600 19.0036 -0.9722
57.0800 19.0103 -0.9773
57.1000 19.0169 -0.9738
57.1200 19.0236 -0.9785
57.1400 19.0302 -0.9830
57.1600 19.0368 -0.9705
57.1800 19.0434 -0.9786
57.2000 19.0501 -0.9848
57.2200 19.0569 -0.9762
57.2400 19.0636 -0.9813
57.2600 19.0702 -0.9814
57.2800 19.0769 -0.9738
57.3000 19.0836 -0.9876
57.3200 19.0902 -0.9872
57.3400 19.0968 -0.9734
57.3600 19.1034 -0.9888
57.3800 19.1101 -0.9892
57.4000 19.1169 -0.9765
57.4200 19.1236 -0.9923
57.4400 19.1302 -0.9825
57.4600 19.1369 -0.9773
57.4800 19.1436 -0.9957
57.5000 19.1502 -0.9812
57.5200 19.1568 -0.9796
57.5400 19.1635 -0.9967
57.5600 19.1702 -0.9860
57.5800 19.1769 -0.9858
57.6000 19.1836 -0.9980
57.6200 19.1903 -0.9793
57.6400 19.1969 -0.9863
57.6600 19.2036 -1.0002
57.6800 19.2102 -0.9854
57.7000 19.2168 -0.9915
57.7200 19.2235 -0.9993
57.7400 19.2302 -0.9825
57.7600 19.2369 -0.9933
57.7800 19.2436 -1.0043
57.8000 19.2503 -0.9898
57.8200 19.2570 -0.9943
57.8400 19.2636 -1.0074
57.8600 19.2702 -0.9900
57.8800 19.2768 -0.9936
57.9000 19.2834 -1.0054
57.9200 19.2901 -0.9974
57.9400 19.2969 -0.9966
57.9600 19.3035 -1.0073
57.9800 19.3102 -0.9948
58.0000 19.3169 -0.9993
58.0200 19.3236 -1.0108
58.0400 19.3302 -1.0026
58.0600 19.3368 -0.9993
58.0800 19.3434 -1.0101
58.1000 19.3501 -1.0048
58.1200 19.3568 -1.0048
58.1400 19.3635 -1.0100
58.1600 19.3702 -1.0044
58.1800 19.3769 -1.0054
58.2000 19.3835 -1.0121
58.2200 19.3902 -1.0063
58.2400 19.3968 -1.0083
58.2600 19.4035 -1.0132
58.2800 19.4102 -1.0061
58.3000 19.4169 -1.0113
58.3200 19.4235 -1.0184
58.3400 19.4302 -1.0140
58.3600 19.4370 -1.0100
58.3800 19.4436 -1.0155
58.4000 19.4503 -1.0160
58.4200 19.4568 -1.0143
58.4400 19.4635 -1.0156
58.4600 19.4702 -1.0183
58.4800 19.4769 -1.0139
58.5000 19.4836 -1.0210
58.5200 19.4903 -1.0190
58.5400 19.4969 -1.0168
58.5600 19.5036 -1.0230
58.5800 19.5102 -1.0192
58.6000 19.5168 -1.0166
58.6200 19.5235 -1.0229
58.6400 19.5302 -1.0254
58.6600 19.5369 -1.0223
58.6800 19.5436 -1.0249
58.7000 19.5502 -1.0233
58.7200 19.5569 -1.0185
58.7400 19.5636 -1.0321
58.7600 19.5702 -1.0281
58.7800 19.5768 -1.0137
58.8000 19.5834 -1.0319
58.8200 19.5901 -1.0303
58.8400 19.5968 -1.0173
58.8600 19.6035 -1.0349
58.8800 19.6102 -1.0306
58.9000 19.6169 -1.0233
58.9200 19.6235 -1.0373
58.9400 19.6302 -1.0250
58.9600 19.6368 -1.0226
58.9800 19.6434 -1.0411
59.0000 19.6501 -1.0292
59.0200 19.6569 -1.0234
59.0400 19.6636 -1.0451
59.0600 19.6703 -1.0333
59.0800 19.6769 -1.0292
59.1000 19.6836 -1.0464
59.1200 19.6903 -1.0329
59.1400 19.6969 -1.0317
59.1600 19.7035 -1.0470
59.1800 19.7102 -1.0349
59.2000 19.7169 -1.0407
59.2200 19.7236 -1.0463
59.2400 19.7303 -1.0360
59.2600 19.7369 -1.0397
59.2800 19.7436 -1.0503
59.3000 19.7502 -1.0493
