Raw Data
Time Displacement Force
(s) (mm) (N)
0.0000 0.0000 -1.2220
0.0200 0.0000 -1.2072
0.0400 0.0008 -1.1783
0.0600 0.0039 -1.1004
0.0800 0.0095 -1.1863
0.1000 0.0153 -1.2250
0.1200 0.0211 -1.1676
0.1400 0.0276 -1.1526
0.1600 0.0349 -1.1404
0.1800 0.0424 -1.1011
0.2000 0.0496 -1.0793
0.2200 0.0564 -1.0645
0.2400 0.0631 -1.0231
0.2600 0.0698 -1.0025
0.2800 0.0765 -0.9851
0.3000 0.0832 -0.9531
0.3200 0.0899 -0.9370
0.3400 0.0966 -0.9167
0.3600 0.1033 -0.8878
0.3800 0.1099 -0.8810
0.4000 0.1166 -0.8446
0.4200 0.1233 -0.8300
0.4400 0.1300 -0.8132
0.4600 0.1367 -0.7753
0.4800 0.1433 -0.7564
0.5000 0.1500 -0.7364
0.5200 0.1567 -0.7001
0.5400 0.1633 -0.6905
0.5600 0.1699 -0.6581
0.5800 0.1766 -0.6248
0.6000 0.1833 -0.6209
0.6200 0.1900 -0.5801
0.6400 0.1967 -0.5466
0.6600 0.2033 -0.5413
0.6800 0.2100 -0.4958
0.7000 0.2167 -0.4701
0.7200 0.2233 -0.4621
0.7400 0.2299 -0.4270
0.7600 0.2366 -0.3994
0.7800 0.2432 -0.3984
0.8000 0.2499 -0.3598
0.8200 0.2566 -0.3372
0.8400 0.2633 -0.3338
0.8600 0.2700 -0.2966
0.8800 0.2767 -0.2777
0.9000 0.2833 -0.2645
0.9200 0.2899 -0.2214
0.9400 0.2965 -0.1858
0.9600 0.3032 -0.1624
0.9800 0.3099 -0.1276
1.0000 0.3166 -0.1155
1.0200 0.3233 -0.1001
1.0400 0.3300 -0.0800
1.0600 0.3366 -0.0686
1.0800 0.3433 -0.0605
1.1000 0.3499 -0.0526
1.1200 0.3565 -0.0448
1.1400 0.3632 -0.0298
1.1600 0.3700 -0.0140
1.1800 0.3767 0.0132
1.2000 0.3834 0.0289
1.2200 0.3900 0.0373
1.2400 0.3967 0.0541
1.2600 0.4034 0.0757
1.2800 0.4100 0.1093
1.3000 0.4166 0.1283
1.3200 0.4232 0.1458
1.3400 0.4299 0.1718
1.3600 0.4367 0.1839
1.3800 0.4433 0.1760
1.4000 0.4500 0.1907
1.4200 0.4567 0.1938
1.4400 0.4633 0.1846
1.4600 0.4699 0.1856
1.4800 0.4765 0.1962
1.5000 0.4832 0.1863
1.5200 0.4899 0.1945
1.5400 0.4966 0.1928
1.5600 0.5033 0.1889
1.5800 0.5100 0.1984
1.6000 0.5167 0.1960
1.6200 0.5233 0.1837
1.6400 0.5299 0.2011
1.6600 0.5365 0.1954
1.6800 0.5432 0.1826
1.7000 0.5499 0.1953
1.7200 0.5566 0.1882
1.7400 0.5633 0.1853
1.7600 0.5700 0.1943
1.7800 0.5766 0.1836
1.8000 0.5833 0.1788
1.8200 0.5899 0.1912
1.8400 0.5966 0.1812
1.8600 0.6033 0.1737
1.8800 0.6100 0.1765
1.9000 0.6166 0.1789
1.9200 0.6233 0.1737
1.9400 0.6300 0.1710
1.9600 0.6367 0.1681
1.9800 0.6434 0.1716
2.0000 0.6500 0.1607
2.0200 0.6565 0.1677
2.0400 0.6632 0.1642
2.0600 0.6699 0.1601
2.0800 0.6767 0.1633
2.1000 0.6834 0.1503
2.1200 0.6900 0.1499
2.1400 0.6967 0.1661
2.1600 0.7033 0.1442
2.1800 0.7099 0.1427
2.2000 0.7165 0.1594
2.2200 0.7232 0.1439
2.2400 0.7299 0.1456
2.2600 0.7366 0.1540
2.2800 0.7433 0.1343
2.3000 0.7499 0.1442
2.3200 0.7566 0.1519
2.3400 0.7633 0.1267
2.3600 0.7700 0.1356
2.3800 0.7766 0.1480
2.4000 0.7832 0.1335
2.4200 0.7899 0.1317
2.4400 0.7966 0.1431
2.4600 0.8033 0.1322
2.4800 0.8100 0.1361
2.5000 0.8167 0.1324
2.5200 0.8234 0.1285
2.5400 0.8300 0.1358
2.5600 0.8366 0.1312
2.5800 0.8432 0.1204
2.6000 0.8499 0.1336
2.6200 0.8567 0.1337
2.6400 0.8634 0.1245
2.6600 0.8700 0.1259
2.6800 0.8767 0.1279
2.7000 0.8833 0.1260
2.7200 0.8899 0.1223
2.7400 0.8966 0.1266
2.7600 0.9032 0.1264
2.7800 0.9100 0.1178
2.8000 0.9167 0.1239
2.8200 0.9234 0.1227
2.8400 0.9300 0.1181
2.8600 0.9367 0.1197
2.8800 0.9434 0.1185
2.9000 0.9500 0.1173
2.9200 0.9566 0.1172
2.9400 0.9632 0.1200
2.9600 0.9699 0.1135
2.9800 0.9766 0.1206
3.0000 0.9833 0.1064
3.0200 0.9900 0.1111
3.0400 0.9967 0.1190
3.0600 1.0033 0.1069
3.0800 1.0099 0.1073
3.1000 1.0165 0.1192
3.1200 1.0231 0.1055
3.1400 1.0299 0.1098
3.1600 1.0366 0.1118
3.1800 1.0433 0.0986
3.2000 1.0500 0.1096
3.2200 1.0567 0.1129
3.2400 1.0633 0.0937
3.2600 1.0700 0.1084
3.2800 1.0766 0.1079
3.3000 1.0833 0.0948
3.3200 1.0900 0.1109
3.3400 1.0967 0.1010
3.3600 1.1033 0.0950
3.3800 1.1100 0.1020
3.4000 1.1167 0.0989
3.4200 1.1234 0.0932
3.4400 1.1300 0.1004
3.4600 1.1366 0.0946
3.4800 1.1433 0.0969
3.5000 1.1499 0.0940
3.5200 1.1566 0.0940
3.5400 1.1633 0.0965
3.5600 1.1700 0.0940
3.5800 1.1767 0.0886
3.6000 1.1833 0.0953
3.6200 1.1899 0.0859
3.6400 1.1965 0.0920
3.6600 1.2032 0.0952
3.6800 1.2099 0.0846
3.7000 1.2166 0.0874
3.7200 1.2233 0.0941
3.7400 1.2300 0.0779
3.7600 1.2366 0.0899
3.7800 1.2433 0.0890
3.8000 1.2500 0.0706
3.8200 1.2566 0.0905
3.8400 1.2632 0.0894
3.8600 1.2699 0.0683
3.8800 1.2766 0.0825
3.9000 1.2833 0.0858
3.9200 1.2900 0.0720
3.9400 1.2966 0.0871
3.9600 1.3033 0.0771
3.9800 1.3100 0.0690
4.0000 1.3166 0.0793
4.0200 1.3232 0.0776
4.0400 1.3299 0.0719
4.0600 1.3366 0.0760
4.0800 1.3433 0.0702
4.1000 1.3500 0.0674
4.1200 1.3567 0.0701
4.1400 1.3634 0.0720
4.1600 1.3700 0.0682
4.1800 1.3766 0.0707
4.2000 1.3832 0.0635
4.2200 1.3899 0.0735
4.2400 1.3967 0.0627
4.2600 1.4034 0.0677
4.2800 1.4100 0.0681
4.3000 1.4167 0.0583
4.3200 1.4233 0.0617
4.3400 1.4300 0.0622
4.3600 1.4366 0.0642
4.3800 1.4432 0.0652
4.4000 1.4499 0.0564
4.4200 1.4566 0.0629
4.4400 1.4633 0.0672
4.4600 1.4700 0.0468
4.4800 1.4767 0.0582
4.5000 1.4834 0.0672
4.5200 1.4900 0.0487
4.5400 1.4966 0.0560
4.5600 1.5032 0.0636
4.5800 1.5099 0.0463
4.6000 1.5166 0.0579
4.6200 1.5233 0.0565
4.6400 1.5300 0.0479
4.6600 1.5367 0.0531
4.6800 1.5433 0.0565
4.7000 1.5500 0.0429
4.7200 1.5566 0.0561
4.7400 1.5632 0.0533
4.7600 1.5699 0.0421
4.7800 1.5767 0.0533
4.8000 1.5834 0.0414
4.8200 1.5900 0.0410
4.8400 1.5967 0.0542
4.8600 1.6034 0.0487
4.8800 1.6100 0.0339
4.9000 1.6166 0.0478
4.9200 1.6232 0.0485
4.9400 1.6299 0.0328
4.9600 1.6366 0.0421
4.9800 1.6433 0.0495
5.0000 1.6500 0.0320
5.0200 1.6567 0.0365
5.0400 1.6634 0.0396
5.0600 1.6700 0.0341
5.0800 1.6766 0.0397
5.1000 1.6832 0.0400
5.1200 1.6899 0.0321
5.1400 1.6966 0.0408
5.1600 1.7033 0.0338
5.1800 1.7100 0.0295
5.2000 1.7167 0.0386
5.2200 1.7234 0.0294
5.2400 1.7300 0.0282
5.2600 1.7366 0.0420
5.2800 1.7432 0.0245
5.3000 1.7499 0.0289
5.3200 1.7566 0.0362
5.3400 1.7633 0.0249
5.3600 1.7700 0.0218
5.3800 1.7766 0.0341
5.4000 1.7833 0.0246
5.4200 1.7900 0.0188
5.4400 1.7966 0.0279
5.4600 1.8032 0.0206
5.4800 1.8099 0.0270
5.5000 1.8166 0.0211
5.5200 1.8233 0.0134
5.5400 1.8300 0.0226
5.5600 1.8367 0.0244
5.5800 1.8434 0.0141
5.6000 1.8500 0.0168
5.6200 1.8566 0.0157
5.6400 1.8632 0.0160
5.6600 1.8699 0.0214
5.6800 1.8766 0.0145
5.7000 1.8833 0.0084
5.7200 1.8900 0.0258
5.7400 1.8967 0.0079
5.7600 1.9033 0.0059
5.7800 1.9100 0.0206
5.8000 1.9166 0.0084
5.8200 1.9232 0.0104
5.8400 1.9299 0.0181
5.8600 1.9366 0.0014
5.8800 1.9433 0.0136
5.9000 1.9499 0.0152
5.9200 1.9566 -0.0050
5.9400 1.9633 0.0129
5.9600 1.9699 0.0134
5.9800 1.9765 -0.0064
6.0000 1.9832 0.0113
6.0200 1.9899 0.0095
6.0400 1.9966 -0.0104
6.0600 2.0033 0.0119
6.0800 2.0100 -0.0009
6.1000 2.0167 -0.0063
6.1200 2.0234 0.0145
6.1400 2.0300 -0.0008
6.1600 2.0366 -0.0056
6.1800 2.0432 0.0094
6.2000 2.0499 -0.0039
6.2200 2.0566 -0.0043
6.2400 2.0633 0.0007
6.2600 2.0700 -0.0067
6.2800 2.0767 -0.0024
6.3000 2.0834 -0.0038
6.3200 2.0900 -0.0123
6.3400 2.0966 0.0016
6.3600 2.1032 -0.0056
6.3800 2.1099 -0.0120
6.4000 2.1166 -0.0026
6.4200 2.1233 -0.0115
6.4400 2.1300 -0.0065
6.4600 2.1367 -0.0079
6.4800 2.1434 -0.0127
6.5000 2.1500 -0.0109
6.5200 2.1567 -0.0100
6.5400 2.1633 -0.0137
6.5600 2.1699 -0.0059
6.5800 2.1766 -0.0149
6.6000 2.1833 -0.0177
6.6200 2.1900 -0.0097
6.6400 2.1967 -0.0120
6.6600 2.2034 -0.0216
6.6800 2.2100 -0.0067
6.7000 2.2166 -0.0181
6.7200 2.2232 -0.0204
6.7400 2.2298 -0.0090
6.7600 2.2365 -0.0124
6.7800 2.2432 -0.0280
6.8000 2.2499 -0.0096
6.8200 2.2566 -0.0166
6.8400 2.2633 -0.0295
6.8600 2.2700 -0.0118
6.8800 2.2766 -0.0200
6.9000 2.2832 -0.0294
6.9200 2.2899 -0.0123
6.9400 2.2966 -0.0210
6.9600 2.3033 -0.0292
6.9800 2.3100 -0.0140
7.0000 2.3167 -0.0241
7.0200 2.3234 -0.0343
7.0400 2.3300 -0.0132
7.0600 2.3367 -0.0219
7.0800 2.3433 -0.0390
7.1000 2.3499 -0.0168
7.1200 2.3566 -0.0271
7.1400 2.3633 -0.0369
7.1600 2.3700 -0.0195
7.1800 2.3767 -0.0285
7.2000 2.3834 -0.0353
7.2200 2.3900 -0.0245
7.2400 2.3966 -0.0330
7.2600 2.4032 -0.0349
7.2800 2.4099 -0.0254
7.3000 2.4166 -0.0312
7.3200 2.4233 -0.0390
7.3400 2.4300 -0.0250
7.3600 2.4367 -0.0421
7.3800 2.4433 -0.0371
7.4000 2.4500 -0.0276
7.4200 2.4566 -0.0451
7.4400 2.4632 -0.0370
7.4600 2.4699 -0.0267
7.4800 2.4766 -0.0467
7.5000 2.4833 -0.0418
7.5200 2.4899 -0.0244
7.5400 2.4966 -0.0450
7.5600 2.5033 -0.0457
7.5800 2.5099 -0.0352
7.6000 2.5166 -0.0420
7.6200 2.5232 -0.0402
7.6400 2.5299 -0.0420
7.6600 2.5366 -0.0464
7.6800 2.5433 -0.0372
7.7000 2.5500 -0.0412
7.7200 2.5567 -0.0493
7.7400 2.5634 -0.0476
7.7600 2.5701 -0.0369
7.7800 2.5767 -0.0513
7.8000 2.5833 -0.0536
7.8200 2.5899 -0.0361
7.8400 2.5966 -0.0432
7.8600 2.6034 -0.0581
7.8800 2.6100 -0.0428
7.9000 2.6167 -0.0470
7.9200 2.6233 -0.0526
7.9400 2.6300 -0.0441
7.9600 2.6366 -0.0532
7.9800 2.6432 -0.0479
8.0000 2.6499 -0.0436
8.0200 2.6566 -0.0559
8.0400 2.6633 -0.0563
8.0600 2.6700 -0.0482
8.0800 2.6766 -0.0540
8.1000 2.6833 -0.0550
8.1200 2.6900 -0.0518
8.1400 2.6966 -0.0556
8.1600 2.7032 -0.0567
8.1800 2.7098 -0.0540
8.2000 2.7166 -0.0552
8.2200 2.7233 -0.0561
8.2400 2.7300 -0.0588
8.2600 2.7367 -0.0521
8.2800 2.7434 -0.0640
8.3000 2.7500 -0.0612
8.3200 2.7566 -0.0513
8.3400 2.7632 -0.0657
8.3600 2.7699 -0.0579
8.3800 2.7766 -0.0523
8.4000 2.7833 -0.0715
8.4200 2.7899 -0.0629
8.4400 2.7966 -0.0504
8.4600 2.8033 -0.0727
8.4800 2.8100 -0.0639
8.5000 2.8167 -0.0576
8.5200 2.8233 -0.0752
8.5400 2.8299 -0.0530
8.5600 2.8366 -0.0612
8.5800 2.8433 -0.0793
8.6000 2.8500 -0.0540
8.6200 2.8567 -0.0670
8.6400 2.8634 -0.0759
8.6600 2.8701 -0.0552
8.6800 2.8767 -0.0666
8.7000 2.8833 -0.0756
8.7200 2.8899 -0.0569
8.7400 2.8966 -0.0709
8.7600 2.9033 -0.0740
8.7800 2.9100 -0.0654
8.8000 2.9167 -0.0741
8.8200 2.9233 -0.0652
8.8400 2.9300 -0.0675
8.8600 2.9366 -0.0847
8.8800 2.9432 -0.0606
8.9000 2.9498 -0.0689
8.9200 2.9565 -0.0839
8.9400 2.9633 -0.0707
8.9600 2.9700 -0.0705
8.9800 2.9766 -0.0781
9.0000 2.9833 -0.0736
9.0200 2.9900 -0.0730
9.0400 2.9966 -0.0785
9.0600 3.0032 -0.0676
9.0800 3.0099 -0.0819
9.1000 3.0166 -0.0793
9.1200 3.0233 -0.0692
9.1400 3.0300 -0.0803
9.1600 3.0367 -0.0843
9.1800 3.0434 -0.0756
9.2000 3.0500 -0.0807
9.2200 3.0566 -0.0724
9.2400 3.0632 -0.0811
9.2600 3.0699 -0.0778
9.2800 3.0766 -0.0759
9.3000 3.0833 -0.0827
9.3200 3.0900 -0.0865
9.3400 3.0967 -0.0743
9.3600 3.1034 -0.0847
9.3800 3.1100 -0.0856
9.4000 3.1167 -0.0753
9.4200 3.1232 -0.0874
9.4400 3.1299 -0.0842
9.4600 3.1366 -0.0758
9.4800 3.1433 -0.0937
9.5000 3.1500 -0.0848
9.5200 3.1567 -0.0755
9.5400 3.1633 -0.0919
9.5600 3.1700 -0.0909
9.5800 3.1767 -0.0785
9.6000 3.1833 -0.0881
9.6200 3.1899 -0.0915
9.6400 3.1966 -0.0788
9.6600 3.2033 -0.0930
9.6800 3.2100 -0.0923
9.7000 3.2166 -0.0845
9.7200 3.2233 -0.0899
9.7400 3.2299 -0.0980
9.7600 3.2366 -0.0880
9.7800 3.2432 -0.0912
9.8000 3.2499 -0.0927
9.8200 3.2566 -0.0914
9.8400 3.2633 -0.0905
9.8600 3.2700 -0.0983
9.8800 3.2767 -0.0890
9.9000 3.2834 -0.0967
9.9200 3.2901 -0.1011
9.9400 3.2967 -0.0907
9.9600 3.3032 -0.0954
9.9800 3.3099 -0.1003
10.0000 3.3166 -0.0917
10.0200 3.3233 -0.1044
10.0400 3.3300 -0.1037
10.0600 3.3367 -0.0877
10.0800 3.3434 -0.1081
10.1000 3.3500 -0.1066
10.1200 3.3567 -0.0891
10.1400 3.3633 -0.1042
10.1600 3.3699 -0.1093
10.1800 3.3766 -0.0910
10.2000 3.3832 -0.1062
10.2200 3.3899 -0.1082
10.2400 3.3966 -0.0953
10.2600 3.4033 -0.1109
10.2800 3.4100 -0.1130
10.3000 3.4167 -0.0933
10.3200 3.4232 -0.1125
10.3400 3.4299 -0.1133
10.3600 3.4365 -0.0993
10.3800 3.4433 -0.1159
10.4000 3.4500 -0.1137
10.4200 3.4566 -0.0988
10.4400 3.4633 -0.1145
10.4600 3.4700 -0.1180
10.4800 3.4766 -0.1112
10.5000 3.4833 -0.1084
10.5200 3.4899 -0.1141
10.5400 3.4966 -0.1136
10.5600 3.5033 -0.1160
10.5800 3.5100 -0.1174
10.6000 3.5167 -0.1114
10.6200 3.5234 -0.1214
10.6400 3.5300 -0.1200
10.6600 3.5367 -0.1179
10.6800 3.5433 -0.1186
10.7000 3.5499 -0.1223
10.7200 3.5566 -0.1179
10.7400 3.5633 -0.1220
10.7600 3.5700 -0.1263
10.7800 3.5766 -0.1228
10.8000 3.5833 -0.1203
10.8200 3.5900 -0.1300
10.8400 3.5966 -0.1267
10.8600 3.6032 -0.1253
10.8800 3.6099 -0.1242
10.9000 3.6166 -0.1327
10.9200 3.6233 -0.1212
10.9400 3.6300 -0.1301
10.9600 3.6367 -0.1344
10.9800 3.6433 -0.1229
11.0000 3.6500 -0.1297
11.0200 3.6567 -0.1319
11.0400 3.6633 -0.1247
11.0600 3.6699 -0.1372
11.0800 3.6765 -0.1301
11.1000 3.6833 -0.1176
11.1200 3.6900 -0.1429
11.1400 3.6966 -0.1367
11.1600 3.7033 -0.1186
11.1800 3.7100 -0.1409
11.2000 3.7166 -0.1314
11.2200 3.7232 -0.1246
11.2400 3.7299 -0.1429
11.2600 3.7366 -0.1248
11.2800 3.7433 -0.1291
11.3000 3.7500 -0.1399
11.3200 3.7567 -0.1341
11.3400 3.7634 -0.1259
11.3600 3.7701 -0.1379
11.3800 3.7767 -0.1331
11.4000 3.7833 -0.1356
11.4200 3.7899 -0.1332
11.4400 3.7966 -0.1287
11.4600 3.8033 -0.1350
11.4800 3.8100 -0.1366
11.5000 3.8167 -0.1322
11.5200 3.8234 -0.1363
11.5400 3.8300 -0.1348
11.5600 3.8367 -0.1364
11.5800 3.8433 -0.1310
11.6000 3.8499 -0.1335
11.6200 3.8565 -0.1393
11.6400 3.8632 -0.1283
11.6600 3.8699 -0.1329
11.6800 3.8766 -0.1455
11.7000 3.8833 -0.1291
11.7200 3.8900 -0.1402
11.7400 3.8967 -0.1506
11.7600 3.9033 -0.1248
11.7800 3.9099 -0.1437
11.8000 3.9165 -0.1481
11.8200 3.9232 -0.1269
11.8400 3.9299 -0.1478
11.8600 3.9366 -0.1420
11.8800 3.9433 -0.1208
11.9000 3.9500 -0.1531
11.9200 3.9566 -0.1459
11.9400 3.9633 -0.1260
11.9600 3.9699 -0.1528
11.9800 3.9766 -0.1407
12.0000 3.9833 -0.1317
12.0200 3.9900 -0.1574
12.0400 3.9967 -0.1348
12.0600 4.0034 -0.1354
12.0800 4.0100 -0.1616
12.1000 4.0167 -0.1358
12.1200 4.0233 -0.1379
12.1400 4.0299 -0.1594
12.1600 4.0366 -0.1413
12.1800 4.0433 -0.1434
12.2000 4.0500 -0.1540
12.2200 4.0567 -0.1407
12.2400 4.0634 -0.1524
12.2600 4.0700 -0.1538
12.2800 4.0767 -0.1446
12.3000 4.0833 -0.1516
12.3200 4.0899 -0.1539
12.3400 4.0965 -0.1437
12.3600 4.1032 -0.1566
12.3800 4.1099 -0.1532
12.4000 4.1166 -0.1523
12.4200 4.1233 -0.1530
12.4400 4.1300 -0.1522
12.4600 4.1366 -0.1584
12.4800 4.1433 -0.1603
12.5000 4.1499 -0.1478
12.5200 4.1565 -0.1588
12.5400 4.1633 -0.1576
12.5600 4.1700 -0.1559
12.5800 4.1766 -0.1640
12.6000 4.1833 -0.1513
12.6200 4.1900 -0.1572
12.6400 4.1967 -0.1679
12.6600 4.2033 -0.1529
12.6800 4.2099 -0.1544
12.7000 4.2166 -0.1692
12.7200 4.2233 -0.1563
12.7400 4.2300 -0.1562
12.7600 4.2367 -0.1712
12.7800 4.2434 -0.1552
12.8000 4.2501 -0.1624
12.8200 4.2567 -0.1751
12.8400 4.2633 -0.1533
12.8600 4.2699 -0.1702
12.8800 4.2766 -0.1680
12.9000 4.2833 -0.1546
12.9200 4.2900 -0.1713
12.9400 4.2967 -0.1715
12.9600 4.3034 -0.1556
12.9800 4.3100 -0.1752
13.0000 4.3167 -0.1684
13.0200 4.3233 -0.1644
13.0400 4.3299 -0.1730
13.0600 4.3366 -0.1710
13.0800 4.3433 -0.1683
13.1000 4.3500 -0.1803
13.1200 4.3567 -0.1726
13.1400 4.3633 -0.1672
13.1600 4.3700 -0.1755
13.1800 4.3767 -0.1763
13.2000 4.3833 -0.1717
13.2200 4.3899 -0.1707
13.2400 4.3965 -0.1732
13.2600 4.4032 -0.1734
13.2800 4.4099 -0.1786
13.3000 4.4166 -0.1759
13.3200 4.4233 -0.1808
13.3400 4.4300 -0.1740
13.3600 4.4367 -0.1841
13.3800 4.4433 -0.1794
13.4000 4.4499 -0.1723
13.4200 4.4565 -0.1881
13.4400 4.4632 -0.1802
13.4600 4.4700 -0.1720
13.4800 4.4767 -0.1903
13.5000 4.4834 -0.1838
13.5200 4.4901 -0.1807
13.5400 4.4967 -0.1883
13.5600 4.5033 -0.1828
13.5800 4.5099 -0.1785
13.6000 4.5166 -0.1952
13.6200 4.5233 -0.1813
13.6400 4.5300 -0.1825
13.6600 4.5367 -0.1966
13.6800 4.5433 -0.1790
13.7000 4.5500 -0.1846
13.7200 4.5567 -0.1945
13.7400 4.5633 -0.1834
13.7600 4.5699 -0.1875
13.7800 4.5765 -0.1946
13.8000 4.5832 -0.1839
13.8200 4.5899 -0.1902
13.8400 4.5966 -0.1931
13.8600 4.6033 -0.1846
13.8800 4.6100 -0.1916
13.9000 4.6167 -0.1965
13.9200 4.6233 -0.1854
13.9400 4.6299 -0.1868
13.9600 4.6365 -0.1946
13.9800 4.6432 -0.1987
14.0000 4.6499 -0.1877
14.0200 4.6566 -0.1875
14.0400 4.6632 -0.1946
14.0600 4.6699 -0.1942
14.0800 4.6766 -0.1905
14.1000 4.6833 -0.2010
14.1200 4.6899 -0.1912
14.1400 4.6966 -0.1901
14.1600 4.7033 -0.1994
14.1800 4.7100 -0.1897
14.2000 4.7167 -0.1960
14.2200 4.7234 -0.2009
14.2400 4.7300 -0.1847
14.2600 4.7367 -0.2008
14.2800 4.7434 -0.2088
14.3000 4.7500 -0.1808
14.3200 4.7566 -0.1953
14.3400 4.7633 -0.2100
14.3600 4.7700 -0.1895
14.3800 4.7767 -0.1978
14.4000 4.7834 -0.2063
14.4200 4.7901 -0.1865
14.4400 4.7967 -0.2072
14.4600 4.8034 -0.2036
14.4800 4.8099 -0.1924
14.5000 4.8166 -0.2029
14.5200 4.8232 -0.2075
14.5400 4.8299 -0.1945
14.5600 4.8366 -0.2100
14.5800 4.8433 -0.2072
14.6000 4.8499 -0.1926
14.6200 4.8566 -0.2038
14.6400 4.8633 -0.2116
14.6600 4.8699 -0.1953
14.6800 4.8765 -0.2077
14.7000 4.8832 -0.2102
14.7200 4.8899 -0.1944
14.7400 4.8966 -0.2072
14.7600 4.9033 -0.2158
14.7800 4.9099 -0.1997
14.8000 4.9166 -0.2026
14.8200 4.9233 -0.2145
14.8400 4.9299 -0.2049
14.8600 4.9365 -0.2084
14.8800 4.9432 -0.2101
14.9000 4.9500 -0.2088
14.9200 4.9567 -0.2082
14.9400 4.9634 -0.2126
14.9600 4.9701 -0.2077
14.9800 4.9767 -0.2114
15.0000 4.9834 -0.2133
15.0200 4.9899 -0.2068
15.0400 4.9966 -0.2064
15.0600 5.0032 -0.2194
15.0800 5.0100 -0.2035
15.1000 5.0167 -0.2097
15.1200 5.0234 -0.2219
15.1400 5.0300 -0.2073
15.1600 5.0367 -0.2048
15.1800 5.0433 -0.2222
15.2000 5.0500 -0.2043
15.2200 5.0566 -0.2014
15.2400 5.0633 -0.2319
15.2600 5.0700 -0.2090
15.2800 5.0767 -0.2007
15.3000 5.0833 -0.2307
15.3200 5.0900 -0.2082
15.3400 5.0967 -0.2098
15.3600 5.1033 -0.2315
15.3800 5.1099 -0.1988
15.4000 5.1165 -0.2127
15.4200 5.1232 -0.2283
15.4400 5.1299 -0.2046
15.4600 5.1366 -0.2193
15.4800 5.1433 -0.2288
15.5000 5.1500 -0.1967
15.5200 5.1566 -0.2260
15.5400 5.1633 -0.2261
15.5600 5.1699 -0.2045
15.5800 5.1765 -0.2284
15.6000 5.1832 -0.2237
15.6200 5.1899 -0.2095
15.6400 5.1966 -0.2297
15.6600 5.2033 -0.2216
15.6800 5.2100 -0.2141
15.7000 5.2167 -0.2304
15.7200 5.2234 -0.2277
15.7400 5.2300 -0.2146
15.7600 5.2367 -0.2251
15.7800 5.2433 -0.2290
15.8000 5.2500 -0.2234
15.8200 5.2567 -0.2291
15.8400 5.2634 -0.2245
15.8600 5.2701 -0.2193
15.8800 5.2767 -0.2284
15.9000 5.2834 -0.2379
15.9200 5.2900 -0.2174
15.9400 5.2965 -0.2253
15.9600 5.3032 -0.2421
15.9800 5.3099 -0.2220
16.0000 5.3166 -0.2234
16.0200 5.3233 -0.2470
16.0400 5.3300 -0.2233
16.0600 5.3367 -0.2254
16.0800 5.3433 -0.2409
16.1000 5.3499 -0.2292
16.1200 5.3565 -0.2270
16.1400 5.3632 -0.2417
16.1600 5.3700 -0.2236
16.1800 5.3767 -0.2345
16.2000 5.3833 -0.2476
16.2200 5.3900 -0.2242
16.2400 5.3966 -0.2314
16.2600 5.4033 -0.2492
16.2800 5.4100 -0.2295
16.3000 5.4166 -0.2326
16.3200 5.4233 -0.2469
16.3400 5.4300 -0.2309
16.3600 5.4366 -0.2365
16.3800 5.4433 -0.2407
16.4000 5.4500 -0.2335
16.4200 5.4567 -0.2391
16.4400 5.4633 -0.2443
16.4600 5.4699 -0.2325
16.4800 5.4765 -0.2384
16.5000 5.4832 -0.2438
16.5200 5.4899 -0.2413
16.5400 5.4967 -0.2382
16.5600 5.5034 -0.2479
16.5800 5.5101 -0.2432
16.6000 5.5167 -0.2357
16.6200 5.5233 -0.2440
16.6400 5.5299 -0.2456
16.6600 5.5366 -0.2373
16.6800 5.5432 -0.2447
16.7000 5.5499 -0.2427
16.7200 5.5567 -0.2440
16.7400 5.5633 -0.2505
16.7600 5.5700 -0.2431
16.7800 5.5767 -0.2421
16.8000 5.5833 -0.2490
16.8200 5.5900 -0.2465
16.8400 5.5966 -0.2418
16.8600 5.6032 -0.2489
16.8800 5.6099 -0.2453
16.9000 5.6166 -0.2472
16.9200 5.6233 -0.2562
16.9400 5.6300 -0.2414
16.9600 5.6367 -0.2423
16.9800 5.6434 -0.2617
17.0000 5.6500 -0.2511
17.0200 5.6566 -0.2404
17.0400 5.6632 -0.2523
17.0600 5.6699 -0.2533
17.0800 5.6767 -0.2437
17.1000 5.6834 -0.2595
17.1200 5.6900 -0.2499
17.1400 5.6967 -0.2464
17.1600 5.7033 -0.2551
17.1800 5.7100 -0.2522
17.2000 5.7166 -0.2429
17.2200 5.7232 -0.2614
17.2400 5.7299 -0.2509
17.2600 5.7366 -0.2368
17.2800 5.7433 -0.2655
17.3000 5.7500 -0.2577
17.3200 5.7567 -0.2405
17.3400 5.7634 -0.2623
17.3600 5.7700 -0.2556
17.3800 5.7766 -0.2484
17.4000 5.7832 -0.2623
17.4200 5.7899 -0.2483
17.4400 5.7966 -0.2518
17.4600 5.8033 -0.2638
17.4800 5.8100 -0.2562
17.5000 5.8167 -0.2511
17.5200 5.8233 -0.2636
17.5400 5.8299 -0.2564
17.5600 5.8365 -0.2533
17.5800 5.8432 -0.2582
17.6000 5.8499 -0.2589
17.6200 5.8566 -0.2610
17.6400 5.8633 -0.2566
17.6600 5.8699 -0.2506
17.6800 5.8766 -0.2663
17.7000 5.8833 -0.2604
17.7200 5.8900 -0.2603
17.7400 5.8966 -0.2656
17.7600 5.9032 -0.2595
17.7800 5.9099 -0.2632
17.8000 5.9167 -0.2664
17.8200 5.9233 -0.2555
17.8400 5.9300 -0.2682
17.8600 5.9367 -0.2674
17.8800 5.9434 -0.2523
17.9000 5.9500 -0.2732
17.9200 5.9566 -0.2662
17.9400 5.9633 -0.2578
17.9600 5.9700 -0.2696
17.9800 5.9767 -0.2682
18.0000 5.9834 -0.2580
18.0200 5.9900 -0.2763
18.0400 5.9967 -0.2629
18.0600 6.0033 -0.2605
18.0800 6.0099 -0.2784
18.1000 6.0165 -0.2645
18.1200 6.0232 -0.2600
18.1400 6.0299 -0.2806
18.1600 6.0367 -0.2678
18.1800 6.0434 -0.2704
18.2000 6.0500 -0.2754
18.2200 6.0567 -0.2665
18.2400 6.0633 -0.2730
18.2600 6.0700 -0.2781
18.2800 6.0766 -0.2698
18.3000 6.0832 -0.2740
18.3200 6.0899 -0.2761
18.3400 6.0966 -0.2718
18.3600 6.1033 -0.2688
18.3800 6.1099 -0.2762
18.4000 6.1166 -0.2789
18.4200 6.1233 -0.2752
18.4400 6.1300 -0.2756
18.4600 6.1366 -0.2821
18.4800 6.1432 -0.2737
18.5000 6.1499 -0.2740
18.5200 6.1566 -0.2851
18.5400 6.1633 -0.2725
18.5600 6.1700 -0.2783
18.5800 6.1767 -0.2825
18.6000 6.1834 -0.2734
18.6200 6.1900 -0.2807
18.6400 6.1966 -0.2846
18.6600 6.2032 -0.2696
18.6800 6.2099 -0.2837
18.7000 6.2166 -0.2860
18.7200 6.2234 -0.2713
18.7400 6.2300 -0.2875
18.7600 6.2367 -0.2829
18.7800 6.2434 -0.2728
18.8000 6.2500 -0.2912
18.8200 6.2566 -0.2845
18.8400 6.2632 -0.2707
18.8600 6.2699 -0.2894
18.8800 6.2766 -0.2858
18.9000 6.2833 -0.2755
18.9200 6.2899 -0.2967
18.9400 6.2966 -0.2807
18.9600 6.3034 -0.2695
18.9800 6.3100 -0.3011
19.0000 6.3166 -0.2846
19.0200 6.3232 -0.2706
19.0400 6.3299 -0.2935
19.0600 6.3366 -0.2918
19.0800 6.3433 -0.2746
19.1000 6.3500 -0.2935
19.1200 6.3567 -0.2853
19.1400 6.3633 -0.2801
19.1600 6.3700 -0.2968
19.1800 6.3766 -0.2894
19.2000 6.3832 -0.2719
19.2200 6.3899 -0.2954
19.2400 6.3967 -0.2947
19.2600 6.4034 -0.2776
19.2800 6.4100 -0.2960
19.3000 6.4167 -0.2962
19.3200 6.4234 -0.2721
19.3400 6.4300 -0.2960
19.3600 6.4366 -0.3031
19.3800 6.4432 -0.2804
19.4000 6.4499 -0.2911
19.4200 6.4566 -0.2980
19.4400 6.4633 -0.2877
19.4600 6.4700 -0.2985
19.4800 6.4767 -0.2967
19.5000 6.4834 -0.2820
19.5200 6.4900 -0.3014
19.5400 6.4966 -0.3034
19.5600 6.5032 -0.2863
19.5800 6.5099 -0.2917
19.6000 6.5166 -0.3037
19.6200 6.5233 -0.2907
19.6400 6.5300 -0.2964
19.6600 6.5367 -0.3018
19.6800 6.5433 -0.2935
19.7000 6.5500 -0.2937
19.7200 6.5566 -0.3048
19.7400 6.5632 -0.2912
19.7600 6.5699 -0.2946
19.7800 6.5766 -0.3090
19.8000 6.5833 -0.2922
19.8200 6.5900 -0.2940
19.8400 6.5966 -0.3135
19.8600 6.6033 -0.2939
19.8800 6.6100 -0.2977
19.9000 6.6166 -0.3128
19.9200 6.6232 -0.2906
19.9400 6.6299 -0.3061
19.9600 6.6366 -0.3110
19.9800 6.6433 -0.2879
20.0000 6.6500 -0.3110
20.0200 6.6567 -0.3126
20.0400 6.6634 -0.2934
20.0600 6.6700 -0.3136
20.0800 6.6766 -0.3047
20.1000 6.6832 -0.2936
20.1200 6.6899 -0.3155
20.1400 6.6966 -0.3106
20.1600 6.7034 -0.2917
20.1800 6.7100 -0.3151
20.2000 6.7167 -0.3053
20.2200 6.7234 -0.3026
20.2400 6.7300 -0.3155
20.2600 6.7366 -0.3061
20.2800 6.7432 -0.3080
20.3000 6.7499 -0.3136
20.3200 6.7566 -0.3053
20.3400 6.7633 -0.3156
20.3600 6.7700 -0.3163
20.3800 6.7766 -0.3084
20.4000 6.7833 -0.3134
20.4200 6.7900 -0.3103
20.4400 6.7966 -0.3177
20.4600 6.8032 -0.3149
20.4800 6.8099 -0.3086
20.5000 6.8166 -0.3179
20.5200 6.8233 -0.3149
20.5400 6.8300 -0.3087
20.5600 6.8367 -0.3270
20.5800 6.8434 -0.3143
20.6000 6.8500 -0.3061
20.6200 6.8566 -0.3263
20.6400 6.8633 -0.3200
20.6600 6.8699 -0.3096
20.6800 6.8766 -0.3324
20.7000 6.8833 -0.3125
20.7200 6.8900 -0.3120
20.7400 6.8967 -0.3306
20.7600 6.9034 -0.3182
20.7800 6.9100 -0.3197
20.8000 6.9166 -0.3258
20.8200 6.9232 -0.3138
20.8400 6.9299 -0.3206
20.8600 6.9366 -0.3279
20.8800 6.9433 -0.3219
20.9000 6.9500 -0.3194
20.9200 6.9567 -0.3279
20.9400 6.9634 -0.3211
20.9600 6.9701 -0.3225
20.9800 6.9767 -0.3308
21.0000 6.9833 -0.3215
21.0200 6.9899 -0.3240
21.0400 6.9966 -0.3284
21.0600 7.0033 -0.3260
21.0800 7.0100 -0.3250
21.1000 7.0167 -0.3289
21.1200 7.0234 -0.3270
21.1400 7.0300 -0.3264
21.1600 7.0366 -0.3299
21.1800 7.0432 -0.3344
21.2000 7.0498 -0.3217
21.2200 7.0565 -0.3287
21.2400 7.0633 -0.3313
21.2600 7.0699 -0.3279
21.2800 7.0766 -0.3313
21.3000 7.0833 -0.3356
21.3200 7.0900 -0.3212
21.3400 7.0966 -0.3343
21.3600 7.1032 -0.3363
21.3800 7.1099 -0.3209
21.4000 7.1166 -0.3355
21.4200 7.1233 -0.3371
21.4400 7.1300 -0.3192
21.4600 7.1367 -0.3419
21.4800 7.1434 -0.3382
21.5000 7.1500 -0.3245
21.5200 7.1567 -0.3380
21.5400 7.1633 -0.3409
21.5600 7.1699 -0.3265
21.5800 7.1766 -0.3404
21.6000 7.1833 -0.3425
21.6200 7.1900 -0.3251
21.6400 7.1967 -0.3417
21.6600 7.2034 -0.3418
21.6800 7.2100 -0.3304
21.7000 7.2166 -0.3384
21.7200 7.2232 -0.3398
21.7400 7.2299 -0.3296
21.7600 7.2366 -0.3381
21.7800 7.2433 -0.3447
21.8000 7.2500 -0.3327
21.8200 7.2567 -0.3335
21.8400 7.2633 -0.3498
21.8600 7.2700 -0.3373
21.8800 7.2766 -0.3349
21.9000 7.2832 -0.3472
21.9200 7.2899 -0.3392
21.9400 7.2966 -0.3334
21.9600 7.3033 -0.3524
21.9800 7.3099 -0.3436
22.0000 7.3166 -0.3347
22.0200 7.3233 -0.3495
22.0400 7.3300 -0.3429
22.0600 7.3366 -0.3388
22.0800 7.3432 -0.3540
22.1000 7.3499 -0.3409
22.1200 7.3566 -0.3353
22.1400 7.3633 -0.3557
22.1600 7.3700 -0.3441
22.1800 7.3767 -0.3418
22.2000 7.3834 -0.3517
22.2200 7.3900 -0.3504
22.2400 7.3967 -0.3424
22.2600 7.4033 -0.3583
22.2800 7.4099 -0.3370
22.3000 7.4166 -0.3478
22.3200 7.4233 -0.3584
22.3400 7.4300 -0.3411
22.3600 7.4367 -0.3535
22.3800 7.4433 -0.3543
22.4000 7.4500 -0.3408
22.4200 7.4566 -0.3532
22.4400 7.4632 -0.3546
22.4600 7.4699 -0.3439
22.4800 7.4766 -0.3544
22.5000 7.4833 -0.3569
22.5200 7.4899 -0.3454
22.5400 7.4966 -0.3558
22.5600 7.5033 -0.3578
22.5800 7.5100 -0.3483
22.6000 7.5166 -0.3583
22.6200 7.5232 -0.3550
22.6400 7.5298 -0.3533
22.6600 7.5365 -0.3518
22.6800 7.5433 -0.3595
22.7000 7.5500 -0.3532
22.7200 7.5567 -0.3568
22.7400 7.5634 -0.3582
22.7600 7.5700 -0.3589
22.7800 7.5766 -0.3507
22.8000 7.5833 -0.3632
22.8200 7.5899 -0.3592
22.8400 7.5966 -0.3490
22.8600 7.6033 -0.3652
22.8800 7.6100 -0.3613
22.9000 7.6167 -0.3449
22.9200 7.6234 -0.3710
22.9400 7.6300 -0.3616
22.9600 7.6367 -0.3514
22.9800 7.6433 -0.3718
23.0000 7.6499 -0.3596
23.0200 7.6566 -0.3502
23.0400 7.6633 -0.3783
23.0600 7.6700 -0.3626
23.0800 7.6767 -0.3510
23.1000 7.6834 -0.3767
23.1200 7.6901 -0.3628
23.1400 7.6967 -0.3545
23.1600 7.7033 -0.3800
23.1800 7.7099 -0.3625
23.2000 7.7166 -0.3541
23.2200 7.7233 -0.3790
23.2400 7.7300 -0.3626
23.2600 7.7367 -0.3588
23.2800 7.7433 -0.3813
23.3000 7.7500 -0.3635
23.3200 7.7566 -0.3542
23.3400 7.7632 -0.3787
23.3600 7.7698 -0.3653
23.3800 7.7765 -0.3564
23.4000 7.7833 -0.3789
23.4200 7.7899 -0.3735
23.4400 7.7966 -0.3604
23.4600 7.8033 -0.3807
23.4800 7.8100 -0.3720
23.5000 7.8166 -0.3577
23.5200 7.8233 -0.3821
23.5400 7.8299 -0.3698
23.5600 7.8366 -0.3566
23.5800 7.8433 -0.3848
23.6000 7.8500 -0.3726
23.6200 7.8567 -0.3585
23.6400 7.8634 -0.3819
23.6600 7.8701 -0.3719
23.6800 7.8767 -0.3686
23.7000 7.8833 -0.3765
23.7200 7.8899 -0.3701
23.7400 7.8966 -0.3677
23.7600 7.9033 -0.3835
23.7800 7.9100 -0.3732
23.8000 7.9167 -0.3736
23.8200 7.9234 -0.3811
23.8400 7.9301 -0.3753
23.8600 7.9367 -0.3722
23.8800 7.9433 -0.3816
23.9000 7.9499 -0.3745
23.9200 7.9566 -0.3719
23.9400 7.9633 -0.3766
23.9600 7.9700 -0.3786
23.9800 7.9766 -0.3746
24.0000 7.9833 -0.3784
24.0200 7.9900 -0.3770
24.0400 7.9967 -0.3727
24.0600 8.0033 -0.3802
24.0800 8.0099 -0.3804
24.1000 8.0166 -0.3728
24.1200 8.0233 -0.3808
24.1400 8.0300 -0.3789
24.1600 8.0366 -0.3743
24.1800 8.0433 -0.3837
24.2000 8.0500 -0.3837
24.2200 8.0566 -0.3793
24.2400 8.0632 -0.3818
24.2600 8.0699 -0.3842
24.2800 8.0766 -0.3753
24.3000 8.0833 -0.3867
24.3200 8.0900 -0.3845
24.3400 8.0967 -0.3783
24.3600 8.1034 -0.3842
24.3800 8.1100 -0.3869
24.4000 8.1167 -0.3789
24.4200 8.1233 -0.3865
24.4400 8.1299 -0.3843
24.4600 8.1366 -0.3795
24.4800 8.1433 -0.3856
24.5000 8.1500 -0.3926
24.5200 8.1567 -0.3795
24.5400 8.1634 -0.3888
24.5600 8.1700 -0.3888
24.5800 8.1767 -0.3802
24.6000 8.1833 -0.3892
24.6200 8.1899 -0.3874
24.6400 8.1965 -0.3823
24.6600 8.2032 -0.3864
24.6800 8.2100 -0.3897
24.7000 8.2166 -0.3800
24.7200 8.2233 -0.3934
24.7400 8.2300 -0.3943
24.7600 8.2367 -0.3828
24.7800 8.2433 -0.3889
24.8000 8.2499 -0.3963
24.8200 8.2565 -0.3809
24.8400 8.2633 -0.3944
24.8600 8.2700 -0.3969
24.8800 8.2766 -0.3845
24.9000 8.2833 -0.3922
24.9200 8.2900 -0.3952
24.9400 8.2966 -0.3859
24.9600 8.3033 -0.3960
24.9800 8.3099 -0.3973
25.0000 8.3166 -0.3848
25.0200 8.3233 -0.3911
25.0400 8.3300 -0.4018
25.0600 8.3367 -0.3908
25.0800 8.3433 -0.3909
25.1000 8.3500 -0.4048
25.1200 8.3567 -0.3980
25.1400 8.3633 -0.3918
25.1600 8.3699 -0.4031
25.1800 8.3766 -0.4007
25.2000 8.3833 -0.3950
25.2200 8.3900 -0.4032
25.2400 8.3967 -0.3972
25.2600 8.4034 -0.4000
25.2800 8.4100 -0.4033
25.3000 8.4167 -0.4029
25.3200 8.4233 -0.3977
25.3400 8.4299 -0.4059
25.3600 8.4366 -0.3991
25.3800 8.4433 -0.3990
25.4000 8.4500 -0.4087
25.4200 8.4567 -0.4034
25.4400 8.4633 -0.3974
25.4600 8.4700 -0.4090
25.4800 8.4767 -0.4040
25.5000 8.4833 -0.4049
25.5200 8.4899 -0.4072
25.5400 8.4965 -0.4045
25.5600 8.5032 -0.4037
25.5800 8.5099 -0.4091
25.6000 8.5166 -0.4104
25.6200 8.5233 -0.4006
25.6400 8.5300 -0.4104
25.6600 8.5366 -0.4127
25.6800 8.5433 -0.4045
25.7000 8.5499 -0.4105
25.7200 8.5565 -0.4116
25.7400 8.5633 -0.4101
25.7600 8.5700 -0.4134
25.7800 8.5767 -0.4081
25.8000 8.5834 -0.4102
25.8200 8.5901 -0.4134
25.8400 8.5967 -0.4125
25.8600 8.6033 -0.4065
25.8800 8.6099 -0.4132
25.9000 8.6166 -0.4105
25.9200 8.6233 -0.4109
25.9400 8.6300 -0.4106
25.9600 8.6367 -0.4172
25.9800 8.6434 -0.4146
26.0000 8.6500 -0.4076
26.0200 8.6567 -0.4152
26.0400 8.6633 -0.4156
26.0600 8.6699 -0.4137
26.0800 8.6766 -0.4204
26.1000 8.6833 -0.4101
26.1200 8.6900 -0.4146
26.1400 8.6966 -0.4206
26.1600 8.7033 -0.4116
26.1800 8.7100 -0.4144
26.2000 8.7167 -0.4205
26.2200 8.7233 -0.4144
26.2400 8.7299 -0.4191
26.2600 8.7365 -0.4226
26.2800 8.7432 -0.4089
26.3000 8.7499 -0.4225
26.3200 8.7566 -0.4238
26.3400 8.7633 -0.4159
26.3600 8.7700 -0.4225
26.3800 8.7767 -0.4297
26.4000 8.7833 -0.4130
26.4200 8.7899 -0.4202
26.4400 8.7965 -0.4277
26.4600 8.8033 -0.4132
26.4800 8.8100 -0.4230
26.5000 8.8167 -0.4287
26.5200 8.8234 -0.4115
26.5400 8.8300 -0.4306
26.5600 8.8367 -0.4272
26.5800 8.8433 -0.4202
26.6000 8.8500 -0.4256
26.6200 8.8566 -0.4296
26.6400 8.8633 -0.4163
26.6600 8.8700 -0.4243
26.6800 8.8767 -0.4325
26.7000 8.8834 -0.4215
26.7200 8.8900 -0.4286
26.7400 8.8967 -0.4296
26.7600 8.9033 -0.4225
26.7800 8.9099 -0.4296
26.8000 8.9165 -0.4314
26.8200 8.9232 -0.4229
26.8400 8.9300 -0.4309
26.8600 8.9367 -0.4329
26.8800 8.9433 -0.4240
26.9000 8.9500 -0.4267
26.9200 8.9567 -0.4436
26.9400 8.9633 -0.4254
26.9600 8.9699 -0.4251
26.9800 8.9765 -0.4382
27.0000 8.9832 -0.4299
27.0200 8.9900 -0.4270
27.0400 8.9966 -0.4370
27.0600 9.0033 -0.4283
27.0800 9.0100 -0.4308
27.1000 9.0167 -0.4436
27.1200 9.0233 -0.4289
27.1400 9.0299 -0.4274
27.1600 9.0366 -0.4459
27.1800 9.0432 -0.4286
27.2000 9.0499 -0.4293
27.2200 9.0566 -0.4430
27.2400 9.0633 -0.4287
27.2600 9.0700 -0.4304
27.2800 9.0767 -0.4447
27.3000 9.0833 -0.4316
27.3200 9.0899 -0.4352
27.3400 9.0966 -0.4460
27.3600 9.1033 -0.4230
27.3800 9.1100 -0.4399
27.4000 9.1167 -0.4470
27.4200 9.1234 -0.4276
27.4400 9.1300 -0.4363
27.4600 9.1367 -0.4460
27.4800 9.1433 -0.4287
27.5000 9.1499 -0.4422
27.5200 9.1566 -0.4445
27.5400 9.1633 -0.4326
27.5600 9.1700 -0.4417
27.5800 9.1767 -0.4424
27.6000 9.1833 -0.4338
27.6200 9.1900 -0.4424
27.6400 9.1967 -0.4441
27.6600 9.2033 -0.4390
27.6800 9.2099 -0.4394
27.7000 9.2165 -0.4431
27.7200 9.2232 -0.4395
27.7400 9.2299 -0.4425
27.7600 9.2366 -0.4444
27.7800 9.2433 -0.4400
27.8000 9.2500 -0.4430
27.8200 9.2567 -0.4473
27.8400 9.2633 -0.4434
27.8600 9.2699 -0.4399
27.8800 9.2765 -0.4528
27.9000 9.2832 -0.4450
27.9200 9.2900 -0.4406
27.9400 9.2967 -0.4502
27.9600 9.3034 -0.4499
27.9800 9.3101 -0.4448
28.0000 9.3167 -0.4536
28.0200 9.3233 -0.4426
28.0400 9.3299 -0.4473
28.0600 9.3366 -0.4550
28.0800 9.3433 -0.4455
28.1000 9.3500 -0.4469
28.1200 9.3567 -0.4554
28.1400 9.3633 -0.4446
28.1600 9.3700 -0.4499
28.1800 9.3767 -0.4557
28.2000 9.3833 -0.4500
28.2200 9.3899 -0.4480
28.2400 9.3965 -0.4524
28.2600 9.4032 -0.4499
28.2800 9.4099 -0.4487
28.3000 9.4166 -0.4566
28.3200 9.4233 -0.4516
28.3400 9.4300 -0.4492
28.3600 9.4367 -0.4561
28.3800 9.4433 -0.4558
28.4000 9.4499 -0.4506
28.4200 9.4565 -0.4524
28.4400 9.4632 -0.4486
28.4600 9.4699 -0.4553
28.4800 9.4766 -0.4559
28.5000 9.4833 -0.4542
28.5200 9.4900 -0.4503
28.5400 9.4967 -0.4605
28.5600 9.5033 -0.4558
28.5800 9.5099 -0.4563
28.6000 9.5166 -0.4584
28.6200 9.5232 -0.4551
28.6400 9.5300 -0.4558
28.6600 9.5367 -0.4614
28.6800 9.5434 -0.4596
28.7000 9.5500 -0.4591
28.7200 9.5567 -0.4587
28.7400 9.5634 -0.4587
28.7600 9.5700 -0.4600
28.7800 9.5766 -0.4502
28.8000 9.5833 -0.4635
28.8200 9.5900 -0.4614
28.8400 9.5967 -0.4567
28.8600 9.6034 -0.4616
28.8800 9.6101 -0.4595
28.9000 9.6167 -0.4581
28.9200 9.6234 -0.4672
28.9400 9.6300 -0.4551
28.9600 9.6365 -0.4627
28.9800 9.6432 -0.4674
29.0000 9.6499 -0.4557
29.0200 9.6566 -0.4589
29.0400 9.6633 -0.4709
29.0600 9.6700 -0.4570
29.0800 9.6767 -0.4612
29.1000 9.6833 -0.4650
29.1200 9.6899 -0.4585
29.1400 9.6965 -0.4653
29.1600 9.7032 -0.4674
29.1800 9.7099 -0.4568
29.2000 9.7166 -0.4701
29.2200 9.7233 -0.4702
29.2400 9.7300 -0.4576
29.2600 9.7367 -0.4689
29.2800 9.7433 -0.4705
29.3000 9.7500 -0.4621
29.3200 9.7566 -0.4698
29.3400 9.7633 -0.4654
29.3600 9.7700 -0.4642
29.3800 9.7767 -0.4701
29.4000 9.7833 -0.4656
29.4200 9.7900 -0.4704
29.4400 9.7967 -0.4720
29.4600 9.8034 -0.4695
29.4800 9.8099 -0.4644
29.5000 9.8165 -0.4695
29.5200 9.8232 -0.4709
29.5400 9.8299 -0.4723
29.5600 9.8367 -0.4664
29.5800 9.8434 -0.4720
29.6000 9.8500 -0.4734
29.6200 9.8567 -0.4746
29.6400 9.8633 -0.4715
29.6600 9.8700 -0.4787
29.6800 9.8766 -0.4672
29.7000 9.8832 -0.4733
29.7200 9.8899 -0.4798
29.7400 9.8966 -0.4709
29.7600 9.9033 -0.4768
29.7800 9.9100 -0.4731
29.8000 9.9167 -0.4677
29.8200 9.9233 -0.4838
29.8400 9.9299 -0.4795
29.8600 9.9365 -0.4675
29.8800 9.9432 -0.4793
29.9000 9.9499 -0.4830
29.9200 9.9566 -0.4753
29.9400 9.9633 -0.4825
29.9600 9.9700 -0.4825
29.9800 9.9766 -0.4733
30.0000 9.9833 -0.4891
30.0200 9.9899 -0.4789
30.0400 9.9965 -0.4769
30.0600 10.0032 -0.4845
30.0800 10.0099 -0.4811
30.1000 10.0167 -0.4777
30.1200 10.0233 -0.4871
30.1400 10.0300 -0.4813
30.1600 10.0367 -0.4748
30.1800 10.0434 -0.4895
30.2000 10.0500 -0.4838
30.2200 10.0566 -0.4774
30.2400 10.0633 -0.4926
30.2600 10.0700 -0.4817
30.2800 10.0767 -0.4804
30.3000 10.0833 -0.4906
30.3200 10.0900 -0.4870
30.3400 10.0967 -0.4806
30.3600 10.1034 -0.4898
30.3800 10.1100 -0.4906
30.4000 10.1166 -0.4792
30.4200 10.1232 -0.4911
30.4400 10.1299 -0.4851
30.4600 10.1366 -0.4858
30.4800 10.1433 -0.4932
30.5000 10.1500 -0.4898
30.5200 10.1567 -0.4857
30.5400 10.1633 -0.4913
30.5600 10.1699 -0.4891
30.5800 10.1765 -0.4837
30.6000 10.1832 -0.4899
30.6200 10.1899 -0.4951
30.6400 10.1966 -0.4839
30.6600 10.2033 -0.4930
30.6800 10.2100 -0.4951
30.7000 10.2166 -0.4878
30.7200 10.2233 -0.4965
30.7400 10.2300 -0.5006
30.7600 10.2366 -0.4844
30.7800 10.2433 -0.4927
30.8000 10.2500 -0.5043
30.8200 10.2566 -0.4861
30.8400 10.2633 -0.4932
30.8600 10.2700 -0.5033
30.8800 10.2767 -0.4872
30.9000 10.2834 -0.4967
30.9200 10.2900 -0.5037
30.9400 10.2966 -0.4884
30.9600 10.3032 -0.4968
30.9800 10.3099 -0.4992
31.0000 10.3167 -0.4894
31.0200 10.3234 -0.4999
31.0400 10.3300 -0.5047
31.0600 10.3367 -0.4846
31.0800 10.3433 -0.5050
31.1000 10.3499 -0.5010
31.1200 10.3565 -0.4899
31.1400 10.3632 -0.5025
31.1600 10.3699 -0.5020
31.1800 10.3766 -0.4907
31.2000 10.3833 -0.5034
31.2200 10.3900 -0.4978
31.2400 10.3967 -0.4922
31.2600 10.4033 -0.5021
31.2800 10.4100 -0.5031
31.3000 10.4166 -0.4911
31.3200 10.4232 -0.5031
31.3400 10.4299 -0.5050
31.3600 10.4366 -0.4896
31.3800 10.4433 -0.5042
31.4000 10.4500 -0.5029
31.4200 10.4567 -0.4941
31.4400 10.4634 -0.5027
31.4600 10.4700 -0.5080
31.4800 10.4766 -0.4902
31.5000 10.4832 -0.4992
31.5200 10.4899 -0.5056
31.5400 10.4966 -0.4943
31.5600 10.5033 -0.5052
31.5800 10.5100 -0.5060
31.6000 10.5167 -0.4907
31.6200 10.5234 -0.5077
31.6400 10.5300 -0.5064
31.6600 10.5366 -0.4952
31.6800 10.5432 -0.5034
31.7000 10.5499 -0.5074
31.7200 10.5566 -0.4956
31.7400 10.5633 -0.5097
31.7600 10.5700 -0.5065
31.7800 10.5767 -0.4972
31.8000 10.5834 -0.5074
31.8200 10.5900 -0.5079
31.8400 10.5966 -0.5010
31.8600 10.6032 -0.5014
31.8800 10.6099 -0.5085
31.9000 10.6166 -0.5026
31.9200 10.6233 -0.5053
31.9400 10.6300 -0.5102
31.9600 10.6367 -0.5039
31.9800 10.6434 -0.5040
32.0000 10.6500 -0.5064
32.0200 10.6565 -0.5013
32.0400 10.6631 -0.5070
32.0600 10.6698 -0.5079
32.0800 10.6766 -0.5065
32.1000 10.6833 -0.5080
32.1200 10.6899 -0.5071
32.1400 10.6966 -0.5050
32.1600 10.7033 -0.5104
32.1800 10.7100 -0.5078
32.2000 10.7166 -0.5072
32.2200 10.7232 -0.5082
32.2400 10.7299 -0.5090
32.2600 10.7366 -0.5086
32.2800 10.7433 -0.5088
32.3000 10.7500 -0.5072
32.3200 10.7567 -0.5122
32.3400 10.7634 -0.5084
32.3600 10.7701 -0.5118
32.3800 10.7766 -0.5134
32.4000 10.7833 -0.5037
32.4200 10.7899 -0.5105
32.4400 10.7966 -0.5095
32.4600 10.8033 -0.5117
32.4800 10.8100 -0.5163
32.5000 10.8167 -0.5089
32.5200 10.8233 -0.5074
32.5400 10.8300 -0.5153
32.5600 10.8366 -0.5150
32.5800 10.8432 -0.5121
32.6000 10.8499 -0.5102
32.6200 10.8566 -0.5178
32.6400 10.8633 -0.5062
32.6600 10.8700 -0.5174
32.6800 10.8767 -0.5185
32.7000 10.8833 -0.5116
32.7200 10.8900 -0.5154
32.7400 10.8966 -0.5136
32.7600 10.9032 -0.5132
32.7800 10.9099 -0.5198
32.8000 10.9166 -0.5109
32.8200 10.9233 -0.5164
32.8400 10.9300 -0.5189
32.8600 10.9366 -0.5161
32.8800 10.9433 -0.5141
32.9000 10.9500 -0.5208
32.9200 10.9566 -0.5173
32.9400 10.9632 -0.5127
32.9600 10.9699 -0.5170
32.9800 10.9766 -0.5134
33.0000 10.9833 -0.5218
33.0200 10.9900 -0.5178
33.0400 10.9967 -0.5134
33.0600 11.0034 -0.5197
33.0800 11.0100 -0.5249
33.1000 11.0166 -0.5117
33.1200 11.0232 -0.5189
33.1400 11.0299 -0.5226
33.1600 11.0366 -0.5207
33.1800 11.0433 -0.5210
33.2000 11.0500 -0.5175
33.2200 11.0567 -0.5204
33.2400 11.0634 -0.5205
33.2600 11.0700 -0.5210
33.2800 11.0766 -0.5243
33.3000 11.0832 -0.5169
33.3200 11.0899 -0.5194
33.3400 11.0966 -0.5232
33.3600 11.1033 -0.5214
33.3800 11.1100 -0.5226
33.4000 11.1166 -0.5237
33.4200 11.1233 -0.5162
33.4400 11.1300 -0.5250
33.4600 11.1366 -0.5316
33.4800 11.1432 -0.5144
33.5000 11.1499 -0.5163
33.5200 11.1566 -0.5290
33.5400 11.1633 -0.5228
33.5600 11.1700 -0.5250
33.5800 11.1766 -0.5282
33.6000 11.1833 -0.5137
33.6200 11.1900 -0.5347
33.6400 11.1966 -0.5293
33.6600 11.2032 -0.5176
33.6800 11.2099 -0.5326
33.7000 11.2167 -0.5300
33.7200 11.2234 -0.5189
33.7400 11.2300 -0.5302
33.7600 11.2367 -0.5346
33.7800 11.2434 -0.5220
33.8000 11.2500 -0.5286
33.8200 11.2566 -0.5331
33.8400 11.2632 -0.5224
33.8600 11.2699 -0.5366
33.8800 11.2766 -0.5358
33.9000 11.2833 -0.5203
33.9200 11.2900 -0.5355
33.9400 11.2967 -0.5372
33.9600 11.3034 -0.5252
33.9800 11.3100 -0.5334
34.0000 11.3166 -0.5416
34.0200 11.3232 -0.5248
34.0400 11.3299 -0.5357
34.0600 11.3366 -0.5385
34.0800 11.3433 -0.5255
34.1000 11.3500 -0.5353
34.1200 11.3567 -0.5352
34.1400 11.3634 -0.5321
34.1600 11.3700 -0.5397
34.1800 11.3766 -0.5333
34.2000 11.3832 -0.5307
34.2200 11.3898 -0.5341
34.2400 11.3966 -0.5413
34.2600 11.4033 -0.5308
34.2800 11.4100 -0.5364
34.3000 11.4166 -0.5417
34.3200 11.4233 -0.5339
34.3400 11.4300 -0.5362
34.3600 11.4366 -0.5453
34.3800 11.4432 -0.5363
34.4000 11.4499 -0.5288
34.4200 11.4566 -0.5507
34.4400 11.4633 -0.5380
34.4600 11.4700 -0.5312
34.4800 11.4767 -0.5513
34.5000 11.4834 -0.5394
34.5200 11.4901 -0.5336
34.5400 11.4966 -0.5539
34.5600 11.5032 -0.5334
34.5800 11.5099 -0.5347
34.6000 11.5166 -0.5507
34.6200 11.5233 -0.5361
34.6400 11.5300 -0.5377
34.6600 11.5367 -0.5563
34.6800 11.5434 -0.5299
34.7000 11.5500 -0.5406
34.7200 11.5566 -0.5522
34.7400 11.5632 -0.5356
34.7600 11.5699 -0.5417
34.7800 11.5766 -0.5529
34.8000 11.5833 -0.5362
34.8200 11.5900 -0.5480
34.8400 11.5966 -0.5529
34.8600 11.6033 -0.5348
34.8800 11.6100 -0.5501
34.9000 11.6166 -0.5558
34.9200 11.6232 -0.5361
34.9400 11.6299 -0.5493
34.9600 11.6366 -0.5499
34.9800 11.6433 -0.5391
35.0000 11.6500 -0.5538
35.0200 11.6567 -0.5460
35.0400 11.6634 -0.5429
35.0600 11.6700 -0.5464
35.0800 11.6767 -0.5507
35.1000 11.6833 -0.5437
35.1200 11.6899 -0.5492
35.1400 11.6966 -0.5517
35.1600 11.7033 -0.5454
35.1800 11.7100 -0.5471
35.2000 11.7167 -0.5514
35.2200 11.7233 -0.5481
35.2400 11.7300 -0.5484
35.2600 11.7367 -0.5539
35.2800 11.7433 -0.5491
35.3000 11.7499 -0.5453
35.3200 11.7566 -0.5538
35.3400 11.7633 -0.5434
35.3600 11.7700 -0.5463
35.3800 11.7766 -0.5545
35.4000 11.7833 -0.5467
35.4200 11.7900 -0.5511
35.4400 11.7967 -0.5581
35.4600 11.8033 -0.5454
35.4800 11.8100 -0.5509
35.5000 11.8166 -0.5595
35.5200 11.8233 -0.5459
35.5400 11.8300 -0.5547
35.5600 11.8367 -0.5519
35.5800 11.8434 -0.5466
35.6000 11.8500 -0.5597
35.6200 11.8566 -0.5546
35.6400 11.8632 -0.5487
35.6600 11.8698 -0.5553
35.6800 11.8765 -0.5492
35.7000 11.8833 -0.5559
35.7200 11.8900 -0.5528
35.7400 11.8966 -0.5552
35.7600 11.9033 -0.5619
35.7800 11.9100 -0.5539
35.8000 11.9166 -0.5526
35.8200 11.9232 -0.5614
35.8400 11.9299 -0.5516
35.8600 11.9366 -0.5566
35.8800 11.9433 -0.5582
35.9000 11.9500 -0.5507
35.9200 11.9567 -0.5563
35.9400 11.9633 -0.5585
35.9600 11.9700 -0.5517
35.9800 11.9767 -0.5598
36.0000 11.9833 -0.5607
36.0200 11.9899 -0.5500
36.0400 11.9966 -0.5593
36.0600 12.0033 -0.5639
36.0800 12.0100 -0.5530
36.1000 12.0167 -0.5569
36.1200 12.0234 -0.5606
36.1400 12.0300 -0.5565
36.1600 12.0366 -0.5642
36.1800 12.0432 -0.5580
36.2000 12.0498 -0.5543
36.2200 12.0566 -0.5586
36.2400 12.0633 -0.5640
36.2600 12.0700 -0.5614
36.2800 12.0767 -0.5666
36.3000 12.0833 -0.5605
36.3200 12.0900 -0.5564
36.3400 12.0966 -0.5665
36.3600 12.1032 -0.5655
36.3800 12.1099 -0.5595
36.4000 12.1166 -0.5621
36.4200 12.1233 -0.5624
36.4400 12.1299 -0.5657
36.4600 12.1366 -0.5612
36.4800 12.1433 -0.5593
36.5000 12.1500 -0.5660
36.5200 12.1567 -0.5625
36.5400 12.1633 -0.5636
36.5600 12.1699 -0.5646
36.5800 12.1766 -0.5651
36.6000 12.1833 -0.5669
36.6200 12.1900 -0.5690
36.6400 12.1967 -0.5600
36.6600 12.2034 -0.5692
36.6800 12.2100 -0.5649
36.7000 12.2167 -0.5651
36.7200 12.2233 -0.5662
36.7400 12.2299 -0.5647
36.7600 12.2366 -0.5654
36.7800 12.2433 -0.5709
36.8000 12.2500 -0.5673
36.8200 12.2567 -0.5649
36.8400 12.2633 -0.5697
36.8600 12.2700 -0.5692
36.8800 12.2766 -0.5662
36.9000 12.2833 -0.5718
36.9200 12.2899 -0.5674
36.9400 12.2966 -0.5639
36.9600 12.3033 -0.5717
36.9800 12.3099 -0.5713
37.0000 12.3166 -0.5681
37.0200 12.3233 -0.5678
37.0400 12.3300 -0.5729
37.0600 12.3367 -0.5716
37.0800 12.3433 -0.5736
37.1000 12.3499 -0.5686
37.1200 12.3566 -0.5709
37.1400 12.3633 -0.5748
37.1600 12.3700 -0.5737
37.1800 12.3767 -0.5688
37.2000 12.3833 -0.5782
37.2200 12.3900 -0.5730
37.2400 12.3967 -0.5745
37.2600 12.4033 -0.5756
37.2800 12.4099 -0.5779
37.3000 12.4166 -0.5690
37.3200 12.4233 -0.5795
37.3400 12.4300 -0.5819
37.3600 12.4367 -0.5700
37.3800 12.4434 -0.5770
37.4000 12.4500 -0.5835
37.4200 12.4567 -0.5709
37.4400 12.4633 -0.5829
37.4600 12.4699 -0.5849
37.4800 12.4766 -0.5699
37.5000 12.4833 -0.5838
37.5200 12.4900 -0.5816
37.5400 12.4967 -0.5701
37.5600 12.5034 -0.5812
37.5800 12.5100 -0.5883
37.6000 12.5167 -0.5694
37.6200 12.5233 -0.5828
37.6400 12.5299 -0.5830
37.6600 12.5365 -0.5709
37.6800 12.5433 -0.5847
37.7000 12.5500 -0.5854
37.7200 12.5567 -0.5708
37.7400 12.5634 -0.5893
37.7600 12.5700 -0.5845
37.7800 12.5766 -0.5744
37.8000 12.5832 -0.5901
37.8200 12.5898 -0.5885
37.8400 12.5965 -0.5726
37.8600 12.6032 -0.5897
37.8800 12.6100 -0.5871
37.9000 12.6166 -0.5809
37.9200 12.6233 -0.5893
37.9400 12.6300 -0.5846
37.9600 12.6367 -0.5783
37.9800 12.6433 -0.5913
38.0000 12.6499 -0.5879
38.0200 12.6566 -0.5775
38.0400 12.6633 -0.5919
38.0600 12.6700 -0.5889
38.0800 12.6767 -0.5804
38.1000 12.6834 -0.5906
38.1200 12.6901 -0.5945
38.1400 12.6967 -0.5826
38.1600 12.7033 -0.5937
38.1800 12.7099 -0.5912
38.2000 12.7166 -0.5833
38.2200 12.7233 -0.5941
38.2400 12.7300 -0.5973
38.2600 12.7367 -0.5811
38.2800 12.7434 -0.5950
38.3000 12.7500 -0.5944
38.3200 12.7567 -0.5860
38.3400 12.7633 -0.5951
38.3600 12.7699 -0.5932
38.3800 12.7766 -0.5811
38.4000 12.7833 -0.5987
38.4200 12.7900 -0.5945
38.4400 12.7966 -0.5849
38.4600 12.8033 -0.5994
38.4800 12.8100 -0.5982
38.5000 12.8167 -0.5873
38.5200 12.8233 -0.6021
38.5400 12.8299 -0.5941
38.5600 12.8366 -0.5863
38.5800 12.8432 -0.6022
38.6000 12.8499 -0.5952
38.6200 12.8566 -0.5850
38.6400 12.8633 -0.6023
38.6600 12.8700 -0.5921
38.6800 12.8767 -0.5876
38.7000 12.8833 -0.6050
38.7200 12.8899 -0.5905
38.7400 12.8966 -0.5915
38.7600 12.9033 -0.6011
38.7800 12.9100 -0.5961
38.8000 12.9167 -0.5908
38.8200 12.9234 -0.6041
38.8400 12.9300 -0.5981
38.8600 12.9367 -0.5964
38.8800 12.9433 -0.6025
38.9000 12.9499 -0.5989
38.9200 12.9566 -0.5929
38.9400 12.9633 -0.6040
38.9600 12.9701 -0.6022
38.9800 12.9767 -0.5930
39.0000 12.9834 -0.6004
39.0200 12.9900 -0.6021
39.0400 12.9967 -0.5967
39.0600 13.0033 -0.6016
39.0800 13.0099 -0.6020
39.1000 13.0166 -0.5963
39.1200 13.0232 -0.6027
39.1400 13.0299 -0.6039
39.1600 13.0366 -0.6000
39.1800 13.0433 -0.5994
39.2000 13.0500 -0.6058
39.2200 13.0566 -0.5996
39.2400 13.0633 -0.6017
39.2600 13.0699 -0.6059
39.2800 13.0765 -0.5977
39.3000 13.0832 -0.6038
39.3200 13.0900 -0.6092
39.3400 13.0967 -0.5978
39.3600 13.1033 -0.6065
39.3800 13.1100 -0.6065
39.4000 13.1166 -0.5988
39.4200 13.1232 -0.6057
39.4400 13.1299 -0.6071
39.4600 13.1366 -0.5991
39.4800 13.1433 -0.6067
39.5000 13.1501 -0.6076
39.5200 13.1567 -0.6020
39.5400 13.1634 -0.6087
39.5600 13.1700 -0.6071
39.5800 13.1767 -0.6037
39.6000 13.1833 -0.6098
39.6200 13.1899 -0.6025
39.6400 13.1966 -0.6037
39.6600 13.2032 -0.6125
39.6800 13.2099 -0.6046
39.7000 13.2166 -0.6081
39.7200 13.2233 -0.6092
39.7400 13.2300 -0.6113
39.7600 13.2367 -0.6058
39.7800 13.2433 -0.6074
39.8000 13.2499 -0.6057
39.8200 13.2566 -0.6124
39.8400 13.2633 -0.6105
39.8600 13.2700 -0.6080
39.8800 13.2767 -0.6088
39.9000 13.2834 -0.6114
39.9200 13.2900 -0.6107
39.9400 13.2967 -0.6139
39.9600 13.3033 -0.6110
39.9800 13.3099 -0.6118
40.0000 13.3165 -0.6133
40.0200 13.3232 -0.6104
40.0400 13.3299 -0.6125
40.0600 13.3366 -0.6133
40.0800 13.3432 -0.6102
40.1000 13.3500 -0.6133
40.1200 13.3567 -0.6203
40.1400 13.3633 -0.6068
40.1600 13.3699 -0.6143
40.1800 13.3765 -0.6192
40.2000 13.3832 -0.6080
40.2200 13.3899 -0.6122
40.2400 13.3966 -0.6201
40.2600 13.4034 -0.6128
40.2800 13.4101 -0.6183
40.3000 13.4168 -0.6173
40.3200 13.4234 -0.6196
40.3400 13.4300 -0.6135
40.3600 13.4366 -0.6181
40.3800 13.4433 -0.6157
40.4000 13.4500 -0.6179
40.4200 13.4567 -0.6149
40.4400 13.4634 -0.6159
40.4600 13.4700 -0.6190
40.4800 13.4767 -0.6195
40.5000 13.4833 -0.6190
40.5200 13.4899 -0.6166
40.5400 13.4965 -0.6211
40.5600 13.5032 -0.6146
40.5800 13.5099 -0.6175
40.6000 13.5166 -0.6260
40.6200 13.5233 -0.6180
40.6400 13.5300 -0.6181
40.6600 13.5367 -0.6256
40.6800 13.5433 -0.6190
40.7000 13.5499 -0.6181
40.7200 13.5565 -0.6230
40.7400 13.5632 -0.6235
40.7600 13.5699 -0.6140
40.7800 13.5766 -0.6299
40.8000 13.5833 -0.6263
40.8200 13.5900 -0.6155
40.8400 13.5966 -0.6289
40.8600 13.6032 -0.6278
40.8800 13.6098 -0.6114
40.9000 13.6165 -0.6296
40.9200 13.6233 -0.6288
40.9400 13.6300 -0.6161
40.9600 13.6367 -0.6314
40.9800 13.6434 -0.6317
41.0000 13.6500 -0.6162
41.0200 13.6567 -0.6351
41.0400 13.6633 -0.6310
41.0600 13.6700 -0.6223
41.0800 13.6766 -0.6346
41.1000 13.6833 -0.6267
41.1200 13.6900 -0.6242
41.1400 13.6967 -0.6358
41.1600 13.7034 -0.6270
41.1800 13.7100 -0.6234
41.2000 13.7167 -0.6386
41.2200 13.7233 -0.6269
41.2400 13.7299 -0.6278
41.2600 13.7365 -0.6338
41.2800 13.7432 -0.6303
41.3000 13.7499 -0.6293
41.3200 13.7566 -0.6361
41.3400 13.7633 -0.6260
41.3600 13.7700 -0.6346
41.3800 13.7767 -0.6391
41.4000 13.7833 -0.6314
41.4200 13.7899 -0.6301
41.4400 13.7965 -0.6335
41.4600 13.8032 -0.6322
41.4800 13.8099 -0.6352
41.5000 13.8166 -0.6323
41.5200 13.8233 -0.6346
41.5400 13.8300 -0.6352
41.5600 13.8367 -0.6353
41.5800 13.8433 -0.6342
41.6000 13.8499 -0.6374
41.6200 13.8566 -0.6378
41.6400 13.8632 -0.6366
41.6600 13.8699 -0.6371
41.6800 13.8766 -0.6340
41.7000 13.8833 -0.6371
41.7200 13.8900 -0.6349
41.7400 13.8967 -0.6387
41.7600 13.9034 -0.6376
41.7800 13.9100 -0.6372
41.8000 13.9166 -0.6391
41.8200 13.9233 -0.6366
41.8400 13.9300 -0.6411
41.8600 13.9367 -0.6392
41.8800 13.9434 -0.6312
41.9000 13.9500 -0.6402
41.9200 13.9567 -0.6410
41.9400 13.9633 -0.6395
41.9600 13.9700 -0.6338
41.9800 13.9766 -0.6412
42.0000 13.9833 -0.6398
42.0200 13.9900 -0.6373
42.0400 13.9967 -0.6484
42.0600 14.0033 -0.6403
42.0800 14.0100 -0.6313
42.1000 14.0167 -0.6503
42.1200 14.0233 -0.6407
42.1400 14.0299 -0.6338
42.1600 14.0365 -0.6461
42.1800 14.0432 -0.6367
42.2000 14.0499 -0.6391
42.2200 14.0566 -0.6535
42.2400 14.0633 -0.6391
42.2600 14.0700 -0.6387
42.2800 14.0767 -0.6516
42.3000 14.0833 -0.6344
42.3200 14.0899 -0.6427
42.3400 14.0966 -0.6509
42.3600 14.1032 -0.6345
42.3800 14.1100 -0.6439
42.4000 14.1167 -0.6506
42.4200 14.1234 -0.6379
42.4400 14.1300 -0.6516
42.4600 14.1367 -0.6515
42.4800 14.1433 -0.6426
42.5000 14.1499 -0.6466
42.5200 14.1566 -0.6448
42.5400 14.1633 -0.6439
42.5600 14.1700 -0.6531
42.5800 14.1767 -0.6494
42.6000 14.1834 -0.6441
42.6200 14.1900 -0.6517
42.6400 14.1967 -0.6506
42.6600 14.2033 -0.6508
42.6800 14.2099 -0.6478
42.7000 14.2165 -0.6536
42.7200 14.2232 -0.6459
42.7400 14.2299 -0.6491
42.7600 14.2366 -0.6570
42.7800 14.2433 -0.6503
42.8000 14.2500 -0.6482
42.8200 14.2567 -0.6574
42.8400 14.2633 -0.6480
42.8600 14.2699 -0.6531
42.8800 14.2765 -0.6532
42.9000 14.2832 -0.6504
42.9200 14.2899 -0.6510
42.9400 14.2966 -0.6626
42.9600 14.3033 -0.6528
42.9800 14.3100 -0.6557
43.0000 14.3167 -0.6576
43.0200 14.3233 -0.6537
43.0400 14.3299 -0.6536
43.0600 14.3366 -0.6592
43.0800 14.3432 -0.6536
43.1000 14.3500 -0.6581
43.1200 14.3567 -0.6607
43.1400 14.3633 -0.6510
43.1600 14.3700 -0.6564
43.1800 14.3767 -0.6631
43.2000 14.3834 -0.6574
43.2200 14.3900 -0.6584
43.2400 14.3966 -0.6614
43.2600 14.4032 -0.6495
43.2800 14.4099 -0.6642
43.3000 14.4166 -0.6626
43.3200 14.4234 -0.6521
43.3400 14.4301 -0.6626
43.3600 14.4367 -0.6631
43.3800 14.4434 -0.6530
43.4000 14.4500 -0.6653
43.4200 14.4566 -0.6630
43.4400 14.4632 -0.6565
43.4600 14.4699 -0.6661
43.4800 14.4766 -0.6583
43.5000 14.4833 -0.6556
43.5200 14.4899 -0.6695
43.5400 14.4966 -0.6591
43.5600 14.5033 -0.6642
43.5800 14.5099 -0.6670
43.6000 14.5165 -0.6572
43.6200 14.5232 -0.6599
43.6400 14.5299 -0.6669
43.6600 14.5366 -0.6613
43.6800 14.5433 -0.6616
43.7000 14.5499 -0.6661
43.7200 14.5566 -0.6645
43.7400 14.5633 -0.6655
43.7600 14.5700 -0.6642
43.7800 14.5766 -0.6639
43.8000 14.5832 -0.6617
43.8200 14.5899 -0.6710
43.8400 14.5966 -0.6618
43.8600 14.6033 -0.6644
43.8800 14.6100 -0.6714
43.9000 14.6167 -0.6629
43.9200 14.6234 -0.6656
43.9400 14.6300 -0.6739
43.9600 14.6366 -0.6625
43.9800 14.6432 -0.6661
44.0000 14.6499 -0.6714
44.0200 14.6566 -0.6633
44.0400 14.6633 -0.6676
44.0600 14.6700 -0.6746
44.0800 14.6766 -0.6626
44.1000 14.6833 -0.6676
44.1200 14.6899 -0.6755
44.1400 14.6966 -0.6627
44.1600 14.7033 -0.6687
44.1800 14.7100 -0.6783
44.2000 14.7167 -0.6711
44.2200 14.7233 -0.6662
44.2400 14.7300 -0.6753
44.2600 14.7367 -0.6701
44.2800 14.7434 -0.6657
44.3000 14.7500 -0.6758
44.3200 14.7565 -0.6761
44.3400 14.7632 -0.6595
44.3600 14.7699 -0.6791
44.3800 14.7766 -0.6748
44.4000 14.7833 -0.6628
44.4200 14.7900 -0.6800
44.4400 14.7966 -0.6740
44.4600 14.8033 -0.6625
44.4800 14.8099 -0.6806
44.5000 14.8165 -0.6699
44.5200 14.8232 -0.6682
44.5400 14.8299 -0.6836
44.5600 14.8366 -0.6713
44.5800 14.8433 -0.6712
44.6000 14.8500 -0.6843
44.6200 14.8567 -0.6711
44.6400 14.8634 -0.6765
44.6600 14.8700 -0.6849
44.6800 14.8766 -0.6694
44.7000 14.8833 -0.6728
44.7200 14.8900 -0.6815
44.7400 14.8967 -0.6748
44.7600 14.9034 -0.6743
44.7800 14.9100 -0.6837
44.8000 14.9167 -0.6747
44.8200 14.9234 -0.6788
44.8400 14.9300 -0.6805
44.8600 14.9366 -0.6763
44.8800 14.9432 -0.6803
44.9000 14.9498 -0.6771
44.9200 14.9566 -0.6791
44.9400 14.9633 -0.6823
44.9600 14.9700 -0.6804
44.9800 14.9767 -0.6831
45.0000 14.9833 -0.6843
45.0200 14.9899 -0.6796
45.0400 14.9966 -0.6805
45.0600 15.0032 -0.6866
45.0800 15.0099 -0.6803
45.1000 15.0166 -0.6846
45.1200 15.0233 -0.6812
45.1400 15.0300 -0.6882
45.1600 15.0367 -0.6802
45.1800 15.0433 -0.6782
45.2000 15.0500 -0.6955
45.2200 15.0566 -0.6809
45.2400 15.0633 -0.6777
45.2600 15.0699 -0.6876
45.2800 15.0766 -0.6859
45.3000 15.0833 -0.6824
45.3200 15.0900 -0.6905
45.3400 15.0967 -0.6798
45.3600 15.1034 -0.6850
45.3800 15.1100 -0.6939
45.4000 15.1166 -0.6797
45.4200 15.1232 -0.6849
45.4400 15.1299 -0.6976
45.4600 15.1366 -0.6777
45.4800 15.1433 -0.6900
45.5000 15.1500 -0.6960
45.5200 15.1567 -0.6764
45.5400 15.1634 -0.6960
45.5600 15.1700 -0.6975
45.5800 15.1766 -0.6697
45.6000 15.1832 -0.6969
45.6200 15.1899 -0.6908
45.6400 15.1966 -0.6693
45.6600 15.2033 -0.6957
45.6800 15.2100 -0.6877
45.7000 15.2166 -0.6726
45.7200 15.2233 -0.6993
45.7400 15.2299 -0.6888
45.7600 15.2366 -0.6758
45.7800 15.2432 -0.7025
45.8000 15.2499 -0.6832
45.8200 15.2566 -0.6798
45.8400 15.2633 -0.6947
45.8600 15.2700 -0.6838
45.8800 15.2767 -0.6810
45.9000 15.2834 -0.7007
45.9200 15.2900 -0.6851
45.9400 15.2966 -0.6865
45.9600 15.3032 -0.6912
45.9800 15.3099 -0.6841
46.0000 15.3166 -0.6913
46.0200 15.3233 -0.6965
46.0400 15.3300 -0.6822
46.0600 15.3367 -0.6961
46.0800 15.3434 -0.6926
46.1000 15.3500 -0.6845
46.1200 15.3566 -0.6954
46.1400 15.3632 -0.6954
46.1600 15.3699 -0.6849
46.1800 15.3767 -0.6920
46.2000 15.3834 -0.6951
46.2200 15.3900 -0.6897
46.2400 15.3967 -0.6943
46.2600 15.4034 -0.6966
46.2800 15.4100 -0.6928
46.3000 15.4166 -0.6949
46.3200 15.4232 -0.6935
46.3400 15.4299 -0.6902
46.3600 15.4366 -0.6976
46.3800 15.4433 -0.6971
46.4000 15.4500 -0.6957
46.4200 15.4567 -0.6939
46.4400 15.4634 -0.7038
46.4600 15.4700 -0.6975
46.4800 15.4766 -0.6960
46.5000 15.4832 -0.7019
46.5200 15.4898 -0.6980
46.5400 15.4966 -0.6925
46.5600 15.5033 -0.7062
46.5800 15.5100 -0.6954
46.6000 15.5166 -0.6985
46.6200 15.5233 -0.7088
46.6400 15.5300 -0.6959
46.6600 15.5366 -0.6984
46.6800 15.5432 -0.7104
46.7000 15.5499 -0.6915
46.7200 15.5566 -0.7032
46.7400 15.5633 -0.7104
46.7600 15.5700 -0.6905
46.7800 15.5767 -0.7107
46.8000 15.5834 -0.7117
46.8200 15.5901 -0.6935
46.8400 15.5967 -0.7063
46.8600 15.6033 -0.7080
46.8800 15.6099 -0.6894
46.9000 15.6166 -0.7073
46.9200 15.6233 -0.7096
46.9400 15.6300 -0.6939
46.9600 15.6367 -0.7047
46.9800 15.6434 -0.7128
47.0000 15.6500 -0.6967
47.0200 15.6566 -0.7075
47.0400 15.6632 -0.7069
47.0600 15.6699 -0.7034
47.0800 15.6766 -0.7093
47.1000 15.6833 -0.7053
47.1200 15.6900 -0.7021
47.1400 15.6967 -0.7072
47.1600 15.7033 -0.7096
47.1800 15.7100 -0.7037
47.2000 15.7166 -0.7055
47.2200 15.7232 -0.7087
47.2400 15.7299 -0.7003
47.2600 15.7366 -0.7054
47.2800 15.7433 -0.7143
47.3000 15.7500 -0.6991
47.3200 15.7566 -0.7068
47.3400 15.7633 -0.7120
47.3600 15.7700 -0.7048
47.3800 15.7766 -0.7083
47.4000 15.7832 -0.7145
47.4200 15.7899 -0.6970
47.4400 15.7966 -0.7078
47.4600 15.8033 -0.7124
47.4800 15.8100 -0.7039
47.5000 15.8167 -0.7067
47.5200 15.8234 -0.7159
47.5400 15.8300 -0.7053
47.5600 15.8366 -0.7072
47.5800 15.8432 -0.7093
47.6000 15.8499 -0.7082
47.6200 15.8566 -0.7061
47.6400 15.8633 -0.7113
47.6600 15.8700 -0.7105
47.6800 15.8767 -0.7120
47.7000 15.8834 -0.7125
47.7200 15.8900 -0.7092
47.7400 15.8966 -0.7094
47.7600 15.9032 -0.7115
47.7800 15.9099 -0.7140
47.8000 15.9166 -0.7112
47.8200 15.9233 -0.7078
47.8400 15.9300 -0.7122
47.8600 15.9367 -0.7134
47.8800 15.9433 -0.7104
47.9000 15.9500 -0.7180
47.9200 15.9566 -0.7112
47.9400 15.9632 -0.7148
47.9600 15.9699 -0.7105
47.9800 15.9766 -0.7140
48.0000 15.9833 -0.7156
48.0200 15.9900 -0.7152
48.0400 15.9967 -0.7133
48.0600 16.0034 -0.7179
48.0800 16.0100 -0.7174
48.1000 16.0166 -0.7169
48.1200 16.0232 -0.7127
48.1400 16.0299 -0.7163
48.1600 16.0366 -0.7165
48.1800 16.0434 -0.7177
48.2000 16.0501 -0.7139
48.2200 16.0567 -0.7223
48.2400 16.0634 -0.7196
48.2600 16.0700 -0.7118
48.2800 16.0766 -0.7193
48.3000 16.0832 -0.7158
48.3200 16.0899 -0.7164
48.3400 16.0966 -0.7186
48.3600 16.1033 -0.7188
48.3800 16.1100 -0.7148
48.4000 16.1167 -0.7206
48.4200 16.1234 -0.7205
48.4400 16.1300 -0.7192
48.4600 16.1366 -0.7205
48.4800 16.1432 -0.7203
48.5000 16.1499 -0.7185
48.5200 16.1565 -0.7201
48.5400 16.1633 -0.7240
48.5600 16.1700 -0.7251
48.5800 16.1767 -0.7210
48.6000 16.1834 -0.7240
48.6200 16.1900 -0.7189
48.6400 16.1966 -0.7286
48.6600 16.2032 -0.7233
48.6800 16.2099 -0.7186
48.7000 16.2166 -0.7268
48.7200 16.2233 -0.7259
48.7400 16.2300 -0.7250
48.7600 16.2366 -0.7252
48.7800 16.2433 -0.7279
48.8000 16.2500 -0.7243
48.8200 16.2566 -0.7245
48.8400 16.2632 -0.7232
48.8600 16.2699 -0.7254
48.8800 16.2766 -0.7258
48.9000 16.2833 -0.7290
48.9200 16.2900 -0.7260
48.9400 16.2967 -0.7319
48.9600 16.3034 -0.7274
48.9800 16.3101 -0.7266
49.0000 16.3167 -0.7295
49.0200 16.3233 -0.7266
49.0400 16.3299 -0.7254
49.0600 16.3366 -0.7371
49.0800 16.3433 -0.7275
49.1000 16.3500 -0.7316
49.1200 16.3567 -0.7352
49.1400 16.3633 -0.7250
49.1600 16.3700 -0.7312
49.1800 16.3766 -0.7366
49.2000 16.3832 -0.7245
49.2200 16.3899 -0.7345
49.2400 16.3966 -0.7319
49.2600 16.4033 -0.7295
49.2800 16.4100 -0.7380
49.3000 16.4166 -0.7341
49.3200 16.4233 -0.7293
49.3400 16.4300 -0.7392
49.3600 16.4366 -0.7400
49.3800 16.4432 -0.7294
49.4000 16.4499 -0.7339
49.4200 16.4565 -0.7375
49.4400 16.4632 -0.7364
49.4600 16.4699 -0.7328
49.4800 16.4766 -0.7368
49.5000 16.4833 -0.7382
49.5200 16.4900 -0.7412
49.5400 16.4967 -0.7377
49.5600 16.5032 -0.7389
49.5800 16.5099 -0.7346
49.6000 16.5166 -0.7434
49.6200 16.5233 -0.7430
49.6400 16.5300 -0.7385
49.6600 16.5367 -0.7425
49.6800 16.5434 -0.7422
49.7000 16.5500 -0.7375
49.7200 16.5567 -0.7501
49.7400 16.5633 -0.7411
49.7600 16.5699 -0.7375
49.7800 16.5766 -0.7483
49.8000 16.5833 -0.7435
49.8200 16.5900 -0.7419
49.8400 16.5967 -0.7509
49.8600 16.6033 -0.7445
49.8800 16.6100 -0.7428
49.9000 16.6167 -0.7539
49.9200 16.6233 -0.7455
49.9400 16.6299 -0.7472
49.9600 16.6366 -0.7549
49.9800 16.6433 -0.7456
50.0000 16.6500 -0.7430
50.0200 16.6567 -0.7562
50.0400 16.6634 -0.7436
50.0600 16.6700 -0.7523
50.0800 16.6767 -0.7566
50.1000 16.6832 -0.7419
50.1200 16.6899 -0.7526
50.1400 16.6965 -0.7602
50.1600 16.7033 -0.7441
50.1800 16.7100 -0.7574
50.2000 16.7166 -0.7577
50.2200 16.7233 -0.7409
50.2400 16.7300 -0.7569
50.2600 16.7366 -0.7598
50.2800 16.7432 -0.7471
50.3000 16.7499 -0.7596
50.3200 16.7566 -0.7568
50.3400 16.7633 -0.7454
50.3600 16.7700 -0.7653
50.3800 16.7767 -0.7570
50.4000 16.7833 -0.7473
50.4200 16.7900 -0.7649
50.4400 16.7967 -0.7595
50.4600 16.8033 -0.7496
50.4800 16.8099 -0.7637
50.5000 16.8166 -0.7585
50.5200 16.8233 -0.7541
50.5400 16.8300 -0.7685
50.5600 16.8367 -0.7578
50.5800 16.8434 -0.7510
50.6000 16.8501 -0.7736
50.6200 16.8567 -0.7578
50.6400 16.8633 -0.7561
50.6600 16.8699 -0.7667
50.6800 16.8766 -0.7579
50.7000 16.8833 -0.7605
50.7200 16.8900 -0.7724
50.7400 16.8967 -0.7573
50.7600 16.9033 -0.7604
50.7800 16.9100 -0.7722
50.8000 16.9166 -0.7608
50.8200 16.9232 -0.7609
50.8400 16.9299 -0.7683
50.8600 16.9366 -0.7635
50.8800 16.9433 -0.7659
50.9000 16.9499 -0.7652
50.9200 16.9566 -0.7637
50.9400 16.9633 -0.7683
50.9600 16.9700 -0.7590
50.9800 16.9766 -0.7649
51.0000 16.9832 -0.7707
51.0200 16.9899 -0.7654
51.0400 16.9965 -0.7620
51.0600 17.0033 -0.7680
51.0800 17.0100 -0.7708
51.1000 17.0167 -0.7661
51.1200 17.0234 -0.7636
51.1400 17.0300 -0.7766
51.1600 17.0367 -0.7655
51.1800 17.0433 -0.7619
51.2000 17.0499 -0.7698
51.2200 17.0566 -0.7674
51.2400 17.0633 -0.7689
51.2600 17.0700 -0.7749
51.2800 17.0767 -0.7631
51.3000 17.0833 -0.7688
51.3200 17.0900 -0.7751
51.3400 17.0966 -0.7662
51.3600 17.1033 -0.7698
51.3800 17.1099 -0.7765
51.4000 17.1165 -0.7694
51.4200 17.1232 -0.7680
51.4400 17.1300 -0.7760
51.4600 17.1367 -0.7734
51.4800 17.1433 -0.7725
51.5000 17.1500 -0.7716
51.5200 17.1567 -0.7694
51.5400 17.1632 -0.7757
51.5600 17.1698 -0.7740
51.5800 17.1765 -0.7723
51.6000 17.1833 -0.7752
51.6200 17.1900 -0.7727
51.6400 17.1967 -0.7782
51.6600 17.2034 -0.7738
51.6800 17.2100 -0.7735
51.7000 17.2167 -0.7822
51.7200 17.2233 -0.7716
51.7400 17.2299 -0.7759
51.7600 17.2366 -0.7820
51.7800 17.2433 -0.7768
51.8000 17.2499 -0.7835
51.8200 17.2566 -0.7776
51.8400 17.2633 -0.7770
51.8600 17.2700 -0.7805
51.8800 17.2767 -0.7843
51.9000 17.2833 -0.7814
51.9200 17.2899 -0.7826
51.9400 17.2966 -0.7842
51.9600 17.3033 -0.7788
51.9800 17.3100 -0.7867
52.0000 17.3167 -0.7877
52.0200 17.3234 -0.7824
52.0400 17.3300 -0.7875
52.0600 17.3367 -0.7836
52.0800 17.3433 -0.7837
52.1000 17.3499 -0.7916
52.1200 17.3566 -0.7823
52.1400 17.3633 -0.7842
52.1600 17.3700 -0.7898
52.1800 17.3766 -0.7850
52.2000 17.3833 -0.7854
52.2200 17.3899 -0.7981
52.2400 17.3966 -0.7822
52.2600 17.4032 -0.7876
52.2800 17.4098 -0.7931
52.3000 17.4165 -0.7885
52.3200 17.4233 -0.7888
52.3400 17.4300 -0.7955
52.3600 17.4366 -0.7914
52.3800 17.4433 -0.7898
52.4000 17.4500 -0.7951
52.4200 17.4567 -0.7916
52.4400 17.4633 -0.7932
52.4600 17.4699 -0.7942
52.4800 17.4766 -0.7916
52.5000 17.4833 -0.7929
52.5200 17.4900 -0.7987
52.5400 17.4967 -0.7923
52.5600 17.5034 -0.7937
52.5800 17.5101 -0.7959
52.6000 17.5167 -0.7999
52.6200 17.5233 -0.7899
52.6400 17.5299 -0.7998
52.6600 17.5366 -0.7973
52.6800 17.5433 -0.7960
52.7000 17.5500 -0.7987
52.7200 17.5567 -0.7961
52.7400 17.5634 -0.7967
52.7600 17.5700 -0.8029
52.7800 17.5767 -0.7956
52.8000 17.5833 -0.7991
52.8200 17.5899 -0.8059
52.8400 17.5966 -0.7956
52.8600 17.6033 -0.7996
52.8800 17.6100 -0.8065
52.9000 17.6167 -0.7981
52.9200 17.6233 -0.8040
52.9400 17.6300 -0.8060
52.9600 17.6367 -0.7986
52.9800 17.6433 -0.8071
53.0000 17.6499 -0.8053
53.0200 17.6565 -0.7963
53.0400 17.6632 -0.8070
53.0600 17.6699 -0.8047
53.0800 17.6766 -0.7943
53.1000 17.6833 -0.8098
53.1200 17.6900 -0.8050
53.1400 17.6966 -0.7993
53.1600 17.7033 -0.8093
53.1800 17.7099 -0.8070
53.2000 17.7166 -0.7969
53.2200 17.7233 -0.8142
53.2400 17.7300 -0.8063
53.2600 17.7367 -0.7977
53.2800 17.7434 -0.8188
53.3000 17.7501 -0.8089
53.3200 17.7567 -0.7979
53.3400 17.7633 -0.8202
53.3600 17.7699 -0.8064
53.3800 17.7766 -0.7998
53.4000 17.7833 -0.8190
53.4200 17.7900 -0.8052
53.4400 17.7967 -0.8063
53.4600 17.8034 -0.8204
53.4800 17.8100 -0.8028
53.5000 17.8167 -0.8101
53.5200 17.8233 -0.8234
53.5400 17.8299 -0.8010
53.5600 17.8366 -0.8136
53.5800 17.8432 -0.8185
53.6000 17.8499 -0.8047
53.6200 17.8566 -0.8159
53.6400 17.8633 -0.8185
53.6600 17.8700 -0.8027
53.6800 17.8767 -0.8210
53.7000 17.8833 -0.8186
53.7200 17.8899 -0.8104
53.7400 17.8965 -0.8182
53.7600 17.9032 -0.8219
53.7800 17.9100 -0.8095
53.8000 17.9167 -0.8204
53.8200 17.9233 -0.8227
53.8400 17.9300 -0.8182
53.8600 17.9367 -0.8167
53.8800 17.9433 -0.8223
53.9000 17.9499 -0.8215
53.9200 17.9566 -0.8193
53.9400 17.9633 -0.8230
53.9600 17.9700 -0.8226
53.9800 17.9767 -0.8235
54.0000 17.9833 -0.8244
54.0200 17.9900 -0.8212
54.0400 17.9967 -0.8238
54.0600 18.0033 -0.8321
54.0800 18.0099 -0.8254
54.1000 18.0166 -0.8232
54.1200 18.0232 -0.8262
54.1400 18.0299 -0.8272
54.1600 18.0367 -0.8205
54.1800 18.0433 -0.8302
54.2000 18.0500 -0.8230
54.2200 18.0567 -0.8254
54.2400 18.0633 -0.8311
54.2600 18.0699 -0.8253
54.2800 18.0766 -0.8261
54.3000 18.0833 -0.8324
54.3200 18.0900 -0.8243
54.3400 18.0967 -0.8291
54.3600 18.1033 -0.8323
54.3800 18.1100 -0.8248
54.4000 18.1167 -0.8252
54.4200 18.1233 -0.8378
54.4400 18.1299 -0.8285
54.4600 18.1365 -0.8268
54.4800 18.1432 -0.8381
54.5000 18.1499 -0.8294
54.5200 18.1566 -0.8289
54.5400 18.1633 -0.8331
54.5600 18.1700 -0.8328
54.5800 18.1767 -0.8310
54.6000 18.1833 -0.8330
54.6200 18.1899 -0.8339
54.6400 18.1965 -0.8316
54.6600 18.2032 -0.8320
54.6800 18.2099 -0.8346
54.7000 18.2167 -0.8321
54.7200 18.2234 -0.8390
54.7400 18.2301 -0.8338
54.7600 18.2368 -0.8360
54.7800 18.2434 -0.8392
54.8000 18.2499 -0.8355
54.8200 18.2566 -0.8282
54.8400 18.2633 -0.8383
54.8600 18.2700 -0.8349
54.8800 18.2767 -0.8307
54.9000 18.2834 -0.8404
54.9200 18.2900 -0.8362
54.9400 18.2967 -0.8393
54.9600 18.3033 -0.8380
54.9800 18.3099 -0.8361
55.0000 18.3165 -0.8356
55.0200 18.3232 -0.8416
55.0400 18.3299 -0.8381
55.0600 18.3366 -0.8347
55.0800 18.3433 -0.8407
55.1000 18.3500 -0.8380
55.1200 18.3567 -0.8358
55.1400 18.3633 -0.8427
55.1600 18.3699 -0.8423
55.1800 18.3765 -0.8399
55.2000 18.3832 -0.8386
55.2200 18.3899 -0.8450
55.2400 18.3966 -0.8393
55.2600 18.4033 -0.8440
55.2800 18.4100 -0.8480
55.3000 18.4167 -0.8383
55.3200 18.4233 -0.8437
55.3400 18.4299 -0.8511
55.3600 18.4365 -0.8397
55.3800 18.4432 -0.8477
55.4000 18.4500 -0.8534
55.4200 18.4567 -0.8436
55.4400 18.4634 -0.8506
55.4600 18.4700 -0.8573
55.4800 18.4767 -0.8380
55.5000 18.4833 -0.8547
55.5200 18.4900 -0.8607
55.5400 18.4966 -0.8409
55.5600 18.5033 -0.8586
55.5800 18.5100 -0.8601
55.6000 18.5167 -0.8455
55.6200 18.5233 -0.8591
55.6400 18.5300 -0.8638
55.6600 18.5367 -0.8447
55.6800 18.5434 -0.8642
55.7000 18.5499 -0.8581
55.7200 18.5565 -0.8515
55.7400 18.5632 -0.8646
55.7600 18.5699 -0.8627
55.7800 18.5766 -0.8491
55.8000 18.5833 -0.8695
55.8200 18.5900 -0.8606
55.8400 18.5967 -0.8553
55.8600 18.6033 -0.8695
55.8800 18.6099 -0.8618
55.9000 18.6165 -0.8575
55.9200 18.6232 -0.8736
55.9400 18.6299 -0.8602
55.9600 18.6366 -0.8640
55.9800 18.6433 -0.8733
56.0000 18.6500 -0.8599
56.0200 18.6567 -0.8686
56.0400 18.6633 -0.8729
56.0600 18.6700 -0.8656
56.0800 18.6766 -0.8665
56.1000 18.6833 -0.8747
56.1200 18.6899 -0.8663
56.1400 18.6966 -0.8703
56.1600 18.7033 -0.8735
56.1800 18.7100 -0.8675
56.2000 18.7167 -0.8692
56.2200 18.7234 -0.8775
56.2400 18.7300 -0.8724
56.2600 18.7366 -0.8711
56.2800 18.7432 -0.8729
56.3000 18.7499 -0.8704
56.3200 18.7567 -0.8694
56.3400 18.7633 -0.8776
56.3600 18.7700 -0.8749
56.3800 18.7767 -0.8716
56.4000 18.7833 -0.8771
56.4200 18.7899 -0.8741
56.4400 18.7966 -0.8749
56.4600 18.8033 -0.8765
56.4800 18.8100 -0.8730
56.5000 18.8167 -0.8790
56.5200 18.8233 -0.8822
56.5400 18.8300 -0.8731
56.5600 18.8367 -0.8780
56.5800 18.8433 -0.8854
56.6000 18.8499 -0.8775
56.6200 18.8565 -0.8813
56.6400 18.8632 -0.8785
56.6600 18.8699 -0.8772
56.6800 18.8766 -0.8877
56.7000 18.8833 -0.8795
56.7200 18.8900 -0.8818
56.7400 18.8967 -0.8861
56.7600 18.9033 -0.8855
56.7800 18.9099 -0.8806
56.8000 18.9166 -0.8877
56.8200 18.9232 -0.8782
56.8400 18.9300 -0.8847
56.8600 18.9367 -0.8901
56.8800 18.9434 -0.8816
56.9000 18.9500 -0.8850
56.9200 18.9567 -0.8894
56.9400 18.9634 -0.8829
56.9600 18.9700 -0.8874
56.9800 18.9766 -0.8926
57.0000 18.9833 -0.8834
57.0200 18.9900 -0.8864
57.0400 18.9967 -0.8961
57.0600 19.0033 -0.8847
57.0800 19.0100 -0.8911
57.1000 19.0167 -0.8942
57.1200 19.0233 -0.8811
57.1400 19.0299 -0.8907
57.1600 19.0365 -0.8982
57.1800 19.0432 -0.8876
57.2000 19.0499 -0.8881
57.2200 19.0566 -0.8992
57.2400 19.0633 -0.8878
57.2600 19.0700 -0.8932
57.2800 19.0767 -0.9003
57.3000 19.0833 -0.8902
57.3200 19.0900 -0.8947
57.3400 19.0965 -0.8971
57.3600 19.1032 -0.8885
57.3800 19.1099 -0.8992
57.4000 19.1166 -0.9003
57.4200 19.1233 -0.8924
57.4400 19.1300 -0.8966
57.4600 19.1366 -0.9077
57.4800 19.1433 -0.8931
57.5000 19.1499 -0.9026
57.5200 19.1566 -0.9088
57.5400 19.1632 -0.8927
57.5600 19.1699 -0.9029
57.5800 19.1767 -0.9080
57.6000 19.1833 -0.8961
57.6200 19.1900 -0.9034
57.6400 19.1967 -0.9110
57.6600 19.2034 -0.8969
57.6800 19.2100 -0.9048
57.7000 19.2166 -0.9102
57.7200 19.2233 -0.8984
57.7400 19.2300 -0.9022
57.7600 19.2367 -0.9128
57.7800 19.2434 -0.8992
57.8000 19.2500 -0.9074
57.8200 19.2567 -0.9122
57.8400 19.2634 -0.9043
57.8600 19.2700 -0.9062
57.8800 19.2766 -0.9170
57.9000 19.2832 -0.8972
57.9200 19.2899 -0.9097
57.9400 19.2966 -0.9221
57.9600 19.3033 -0.9050
57.9800 19.3099 -0.9123
58.0000 19.3166 -0.9170
58.0200 19.3233 -0.9055
58.0400 19.3299 -0.9157
58.0600 19.3365 -0.9193
58.0800 19.3432 -0.9100
58.1000 19.3499 -0.9150
58.1200 19.3566 -0.9207
58.1400 19.3633 -0.9121
58.1600 19.3699 -0.9150
58.1800 19.3766 -0.9216
58.2000 19.3833 -0.9171
58.2200 19.3900 -0.9181
58.2400 19.3966 -0.9177
58.2600 19.4033 -0.9198
58.2800 19.4099 -0.9191
58.3000 19.4166 -0.9247
58.3200 19.4233 -0.9195
58.3400 19.4300 -0.9213
58.3600 19.4367 -0.9259
58.3800 19.4434 -0.9244
58.4000 19.4500 -0.9206
58.4200 19.4566 -0.9269
58.4400 19.4632 -0.9232
58.4600 19.4699 -0.9205
58.4800 19.4766 -0.9313
58.5000 19.4833 -0.9283
58.5200 19.4900 -0.9241
58.5400 19.4967 -0.9335
58.5600 19.5034 -0.9304
58.5800 19.5100 -0.9273
58.6000 19.5166 -0.9343
58.6200 19.5232 -0.9317
58.6400 19.5299 -0.9259
58.6600 19.5366 -0.9392
58.6800 19.5433 -0.9296
58.7000 19.5500 -0.9279
58.7200 19.5567 -0.9448
58.7400 19.5634 -0.9353
58.7600 19.5700 -0.9332
58.7800 19.5766 -0.9411
58.8000 19.5832 -0.9362
58.8200 19.5899 -0.9351
58.8400 19.5966 -0.9492
58.8600 19.6033 -0.9315
58.8800 19.6100 -0.9396
58.9000 19.6166 -0.9495
58.9200 19.6233 -0.9380
58.9400 19.6299 -0.9461
58.9600 19.6366 -0.9493
58.9800 19.6432 -0.9389
59.0000 19.6499 -0.9532
59.0200 19.6566 -0.9497
59.0400 19.6633 -0.9445
59.0600 19.6700 -0.9547
59.0800 19.6767 -0.9473
59.1000 19.6834 -0.9508
59.1200 19.6900 -0.9590
59.1400 19.6966 -0.9481
59.1600 19.7033 -0.9619
59.1800 19.7100 -0.9567
59.2000 19.7167 -0.9495
59.2200 19.7233 -0.9616
59.2400 19.7300 -0.9569
59.2600 19.7367 -0.9561
59.2800 19.7434 -0.9678
59.3000 19.7499 -0.9715
59.3010 19.7502 -0.9721
