Raw Data
Time Displacement Force
(s) (mm) (N)
0.0000 0.0000 -1.3817
0.0200 0.0000 -1.3735
0.0400 0.0008 -1.3290
0.0600 0.0040 -1.2792
0.0800 0.0095 -1.3770
0.1000 0.0152 -1.3885
0.1200 0.0211 -1.3377
0.1400 0.0277 -1.3115
0.1600 0.0350 -1.2897
0.1800 0.0425 -1.2578
0.2000 0.0497 -1.2278
0.2200 0.0565 -1.1974
0.2400 0.0632 -1.1667
0.2600 0.0699 -1.1393
0.2800 0.0766 -1.1110
0.3000 0.0832 -1.0942
0.3200 0.0900 -1.0621
0.3400 0.0967 -1.0317
0.3600 0.1034 -1.0185
0.3800 0.1100 -0.9840
0.4000 0.1167 -0.9467
0.4200 0.1234 -0.9328
0.4400 0.1301 -0.8975
0.4600 0.1367 -0.8711
0.4800 0.1434 -0.8551
0.5000 0.1501 -0.8196
0.5200 0.1568 -0.7856
0.5400 0.1634 -0.7748
0.5600 0.1700 -0.7302
0.5800 0.1766 -0.7066
0.6000 0.1833 -0.6947
0.6200 0.1901 -0.6510
0.6400 0.1968 -0.6256
0.6600 0.2034 -0.6150
0.6800 0.2101 -0.5680
0.7000 0.2168 -0.5451
0.7200 0.2234 -0.5315
0.7400 0.2300 -0.4832
0.7600 0.2367 -0.4668
0.7800 0.2433 -0.4562
0.8000 0.2500 -0.4085
0.8200 0.2567 -0.3955
0.8400 0.2634 -0.3862
0.8600 0.2701 -0.3401
0.8800 0.2767 -0.3295
0.9000 0.2834 -0.3239
0.9200 0.2900 -0.2778
0.9400 0.2966 -0.2563
0.9600 0.3033 -0.2413
0.9800 0.3100 -0.1800
1.0000 0.3167 -0.1629
1.0200 0.3234 -0.1483
1.0400 0.3300 -0.1151
1.0600 0.3367 -0.1100
1.0800 0.3433 -0.1023
1.1000 0.3500 -0.0634
1.1200 0.3566 -0.0698
1.1400 0.3633 -0.0631
1.1600 0.3700 -0.0507
1.1800 0.3768 -0.0474
1.2000 0.3834 -0.0347
1.2200 0.3901 -0.0180
1.2400 0.3968 -0.0175
1.2600 0.4035 -0.0044
1.2800 0.4101 0.0263
1.3000 0.4167 0.0466
1.3200 0.4234 0.0656
1.3400 0.4301 0.0867
1.3600 0.4367 0.1131
1.3800 0.4434 0.0943
1.4000 0.4501 0.0735
1.4200 0.4568 0.0982
1.4400 0.4634 0.1360
1.4600 0.4700 0.1615
1.4800 0.4766 0.1845
1.5000 0.4833 0.1778
1.5200 0.4900 0.1784
1.5400 0.4967 0.1886
1.5600 0.5034 0.1838
1.5800 0.5100 0.1779
1.6000 0.5167 0.1879
1.6200 0.5234 0.1846
1.6400 0.5300 0.1837
1.6600 0.5366 0.1947
1.6800 0.5433 0.1854
1.7000 0.5500 0.1834
1.7200 0.5567 0.1952
1.7400 0.5634 0.1855
1.7600 0.5701 0.1873
1.7800 0.5767 0.1952
1.8000 0.5834 0.1828
1.8200 0.5900 0.1857
1.8400 0.5967 0.1952
1.8600 0.6033 0.1843
1.8800 0.6100 0.1829
1.9000 0.6167 0.1909
1.9200 0.6234 0.1805
1.9400 0.6301 0.1809
1.9600 0.6368 0.1853
1.9800 0.6434 0.1790
2.0000 0.6500 0.1758
2.0200 0.6567 0.1924
2.0400 0.6633 0.1737
2.0600 0.6700 0.1703
2.0800 0.6768 0.1782
2.1000 0.6834 0.1723
2.1200 0.6901 0.1647
2.1400 0.6968 0.1750
2.1600 0.7034 0.1618
2.1800 0.7100 0.1635
2.2000 0.7166 0.1687
2.2200 0.7233 0.1578
2.2400 0.7300 0.1575
2.2600 0.7367 0.1643
2.2800 0.7434 0.1491
2.3000 0.7501 0.1476
2.3200 0.7567 0.1604
2.3400 0.7634 0.1470
2.3600 0.7700 0.1441
2.3800 0.7766 0.1572
2.4000 0.7833 0.1471
2.4200 0.7899 0.1432
2.4400 0.7966 0.1505
2.4600 0.8033 0.1344
2.4800 0.8100 0.1420
2.5000 0.8168 0.1403
2.5200 0.8235 0.1324
2.5400 0.8301 0.1399
2.5600 0.8367 0.1394
2.5800 0.8433 0.1274
2.6000 0.8501 0.1362
2.6200 0.8568 0.1336
2.6400 0.8635 0.1289
2.6600 0.8701 0.1285
2.6800 0.8768 0.1299
2.7000 0.8834 0.1255
2.7200 0.8900 0.1267
2.7400 0.8967 0.1303
2.7600 0.9033 0.1253
2.7800 0.9100 0.1211
2.8000 0.9168 0.1249
2.8200 0.9234 0.1221
2.8400 0.9301 0.1181
2.8600 0.9368 0.1234
2.8800 0.9434 0.1193
2.9000 0.9500 0.1153
2.9200 0.9566 0.1207
2.9400 0.9633 0.1188
2.9600 0.9700 0.1119
2.9800 0.9767 0.1200
3.0000 0.9834 0.1182
3.0200 0.9901 0.1114
3.0400 0.9968 0.1124
3.0600 1.0034 0.1167
3.0800 1.0100 0.1080
3.1000 1.0166 0.1198
3.1200 1.0232 0.1106
3.1400 1.0300 0.1009
3.1600 1.0367 0.1106
3.1800 1.0434 0.1110
3.2000 1.0500 0.1003
3.2200 1.0567 0.1071
3.2400 1.0634 0.1081
3.2600 1.0700 0.0911
3.2800 1.0766 0.1090
3.3000 1.0833 0.1126
3.3200 1.0900 0.0853
3.3400 1.0968 0.0998
3.3600 1.1035 0.1093
3.3800 1.1101 0.0938
3.4000 1.1168 0.1005
3.4200 1.1235 0.1031
3.4400 1.1301 0.0865
3.4600 1.1367 0.0980
3.4800 1.1433 0.1061
3.5000 1.1500 0.0862
3.5200 1.1567 0.0981
3.5400 1.1634 0.0960
3.5600 1.1701 0.0843
3.5800 1.1768 0.0989
3.6000 1.1834 0.0981
3.6200 1.1900 0.0783
3.6400 1.1966 0.0953
3.6600 1.2033 0.0931
3.6800 1.2100 0.0842
3.7000 1.2167 0.0895
3.7200 1.2234 0.0886
3.7400 1.2301 0.0792
3.7600 1.2368 0.0891
3.7800 1.2434 0.0906
3.8000 1.2500 0.0798
3.8200 1.2566 0.0829
3.8400 1.2633 0.0861
3.8600 1.2700 0.0786
3.8800 1.2767 0.0846
3.9000 1.2834 0.0854
3.9200 1.2900 0.0738
3.9400 1.2967 0.0758
3.9600 1.3034 0.0833
3.9800 1.3101 0.0744
4.0000 1.3167 0.0769
4.0200 1.3233 0.0865
4.0400 1.3300 0.0673
4.0600 1.3367 0.0722
4.0800 1.3434 0.0845
4.1000 1.3501 0.0659
4.1200 1.3567 0.0701
4.1400 1.3634 0.0842
4.1600 1.3701 0.0592
4.1800 1.3767 0.0715
4.2000 1.3833 0.0763
4.2200 1.3900 0.0622
4.2400 1.3968 0.0646
4.2600 1.4034 0.0779
4.2800 1.4101 0.0609
4.3000 1.4168 0.0581
4.3200 1.4235 0.0767
4.3400 1.4301 0.0635
4.3600 1.4367 0.0591
4.3800 1.4433 0.0766
4.4000 1.4500 0.0587
4.4200 1.4567 0.0567
4.4400 1.4634 0.0717
4.4600 1.4701 0.0581
4.4800 1.4767 0.0570
4.5000 1.4834 0.0668
4.5200 1.4901 0.0583
4.5400 1.4967 0.0511
4.5600 1.5033 0.0705
4.5800 1.5100 0.0551
4.6000 1.5167 0.0501
4.6200 1.5234 0.0625
4.6400 1.5301 0.0525
4.6600 1.5368 0.0492
4.6800 1.5434 0.0629
4.7000 1.5501 0.0468
4.7200 1.5567 0.0501
4.7400 1.5633 0.0622
4.7600 1.5700 0.0435
4.7800 1.5768 0.0491
4.8000 1.5835 0.0572
4.8200 1.5901 0.0430
4.8400 1.5968 0.0514
4.8600 1.6035 0.0540
4.8800 1.6101 0.0412
4.9000 1.6166 0.0422
4.9200 1.6233 0.0546
4.9400 1.6300 0.0461
4.9600 1.6367 0.0387
4.9800 1.6434 0.0497
5.0000 1.6501 0.0391
5.0200 1.6568 0.0417
5.0400 1.6635 0.0443
5.0600 1.6701 0.0387
5.0800 1.6767 0.0386
5.1000 1.6833 0.0490
5.1200 1.6900 0.0375
5.1400 1.6967 0.0335
5.1600 1.7034 0.0423
5.1800 1.7101 0.0425
5.2000 1.7168 0.0303
5.2200 1.7235 0.0403
5.2400 1.7301 0.0300
5.2600 1.7367 0.0349
5.2800 1.7433 0.0375
5.3000 1.7500 0.0321
5.3200 1.7567 0.0324
5.3400 1.7634 0.0340
5.3600 1.7700 0.0305
5.3800 1.7767 0.0294
5.4000 1.7834 0.0330
5.4200 1.7900 0.0271
5.4400 1.7967 0.0231
5.4600 1.8033 0.0333
5.4800 1.8100 0.0291
5.5000 1.8167 0.0222
5.5200 1.8234 0.0271
5.5400 1.8301 0.0250
5.5600 1.8368 0.0197
5.5800 1.8435 0.0246
5.6000 1.8501 0.0278
5.6200 1.8567 0.0149
5.6400 1.8633 0.0251
5.6600 1.8700 0.0212
5.6800 1.8767 0.0186
5.7000 1.8834 0.0191
5.7200 1.8901 0.0212
5.7400 1.8967 0.0160
5.7600 1.9034 0.0163
5.7800 1.9101 0.0199
5.8000 1.9167 0.0137
5.8200 1.9233 0.0185
5.8400 1.9300 0.0165
5.8600 1.9367 0.0030
5.8800 1.9434 0.0189
5.9000 1.9500 0.0158
5.9200 1.9567 0.0003
5.9400 1.9634 0.0106
5.9600 1.9700 0.0152
5.9800 1.9767 0.0082
6.0000 1.9833 0.0092
6.0200 1.9900 0.0123
6.0400 1.9967 -0.0018
6.0600 2.0034 0.0114
6.0800 2.0101 0.0121
6.1000 2.0167 0.0013
6.1200 2.0234 0.0094
6.1400 2.0301 0.0048
6.1600 2.0367 -0.0048
6.1800 2.0433 0.0117
6.2000 2.0500 0.0052
6.2200 2.0567 -0.0044
6.2400 2.0634 0.0029
6.2600 2.0701 0.0007
6.2800 2.0768 -0.0063
6.3000 2.0834 0.0052
6.3200 2.0901 -0.0017
6.3400 2.0967 -0.0072
6.3600 2.1033 0.0033
6.3800 2.1100 -0.0079
6.4000 2.1167 -0.0098
6.4200 2.1234 0.0032
6.4400 2.1301 -0.0058
6.4600 2.1368 -0.0085
6.4800 2.1435 -0.0058
6.5000 2.1501 -0.0068
6.5200 2.1567 -0.0105
6.5400 2.1633 -0.0029
6.5600 2.1700 -0.0086
6.5800 2.1767 -0.0105
6.6000 2.1834 -0.0069
6.6200 2.1901 -0.0144
6.6400 2.1968 -0.0059
6.6600 2.2035 -0.0169
6.6800 2.2101 -0.0094
6.7000 2.2167 -0.0114
6.7200 2.2233 -0.0156
6.7400 2.2299 -0.0074
6.7600 2.2366 -0.0145
6.7800 2.2434 -0.0206
6.8000 2.2501 -0.0107
6.8200 2.2567 -0.0123
6.8400 2.2634 -0.0212
6.8600 2.2701 -0.0141
6.8800 2.2767 -0.0112
6.9000 2.2833 -0.0239
6.9200 2.2900 -0.0064
6.9400 2.2967 -0.0185
6.9600 2.3034 -0.0238
6.9800 2.3101 -0.0132
7.0000 2.3168 -0.0160
7.0200 2.3235 -0.0204
7.0400 2.3301 -0.0195
7.0600 2.3367 -0.0235
7.0800 2.3433 -0.0233
7.1000 2.3500 -0.0138
7.1200 2.3567 -0.0276
7.1400 2.3634 -0.0283
7.1600 2.3701 -0.0143
7.1800 2.3768 -0.0224
7.2000 2.3835 -0.0317
7.2200 2.3901 -0.0155
7.2400 2.3967 -0.0259
7.2600 2.4033 -0.0314
7.2800 2.4100 -0.0198
7.3000 2.4167 -0.0188
7.3200 2.4234 -0.0330
7.3400 2.4301 -0.0294
7.3600 2.4367 -0.0253
7.3800 2.4434 -0.0287
7.4000 2.4501 -0.0272
7.4200 2.4567 -0.0302
7.4400 2.4633 -0.0384
7.4600 2.4700 -0.0229
7.4800 2.4767 -0.0235
7.5000 2.4834 -0.0406
7.5200 2.4900 -0.0309
7.5400 2.4967 -0.0271
7.5600 2.5034 -0.0405
7.5800 2.5101 -0.0315
7.6000 2.5167 -0.0294
7.6200 2.5233 -0.0447
7.6400 2.5300 -0.0348
7.6600 2.5367 -0.0315
7.6800 2.5434 -0.0396
7.7000 2.5501 -0.0347
7.7200 2.5568 -0.0334
7.7400 2.5635 -0.0511
7.7600 2.5701 -0.0318
7.7800 2.5767 -0.0299
7.8000 2.5833 -0.0515
7.8200 2.5900 -0.0399
7.8400 2.5967 -0.0376
7.8600 2.6034 -0.0482
7.8800 2.6101 -0.0325
7.9000 2.6168 -0.0395
7.9200 2.6234 -0.0557
7.9400 2.6301 -0.0383
7.9600 2.6367 -0.0372
7.9800 2.6433 -0.0516
8.0000 2.6500 -0.0363
8.0200 2.6567 -0.0438
8.0400 2.6634 -0.0580
8.0600 2.6701 -0.0398
8.0800 2.6767 -0.0419
8.1000 2.6834 -0.0548
8.1200 2.6901 -0.0443
8.1400 2.6967 -0.0516
8.1600 2.7033 -0.0554
8.1800 2.7099 -0.0422
8.2000 2.7166 -0.0497
8.2200 2.7234 -0.0599
8.2400 2.7301 -0.0530
8.2600 2.7368 -0.0455
8.2800 2.7435 -0.0628
8.3000 2.7501 -0.0555
8.3200 2.7567 -0.0505
8.3400 2.7633 -0.0597
8.3600 2.7700 -0.0552
8.3800 2.7767 -0.0486
8.4000 2.7834 -0.0683
8.4200 2.7901 -0.0568
8.4400 2.7967 -0.0521
8.4600 2.8034 -0.0659
8.4800 2.8101 -0.0566
8.5000 2.8167 -0.0554
8.5200 2.8233 -0.0667
8.5400 2.8300 -0.0639
8.5600 2.8367 -0.0525
8.5800 2.8434 -0.0664
8.6000 2.8501 -0.0690
8.6200 2.8568 -0.0581
8.6400 2.8635 -0.0692
8.6600 2.8701 -0.0678
8.6800 2.8768 -0.0633
8.7000 2.8833 -0.0732
8.7200 2.8900 -0.0635
8.7400 2.8967 -0.0631
8.7600 2.9034 -0.0741
8.7800 2.9101 -0.0693
8.8000 2.9168 -0.0591
8.8200 2.9234 -0.0776
8.8400 2.9301 -0.0707
8.8600 2.9367 -0.0606
8.8800 2.9433 -0.0745
8.9000 2.9499 -0.0713
8.9200 2.9566 -0.0627
8.9400 2.9633 -0.0736
8.9600 2.9700 -0.0742
8.9800 2.9767 -0.0638
9.0000 2.9834 -0.0799
9.0200 2.9901 -0.0783
9.0400 2.9967 -0.0661
9.0600 3.0033 -0.0828
9.0800 3.0100 -0.0760
9.1000 3.0167 -0.0723
9.1200 3.0234 -0.0816
9.1400 3.0301 -0.0738
9.1600 3.0368 -0.0768
9.1800 3.0435 -0.0779
9.2000 3.0501 -0.0772
9.2200 3.0568 -0.0795
9.2400 3.0633 -0.0797
9.2600 3.0700 -0.0781
9.2800 3.0767 -0.0775
9.3000 3.0834 -0.0820
9.3200 3.0901 -0.0853
9.3400 3.0968 -0.0725
9.3600 3.1035 -0.0877
9.3800 3.1101 -0.0884
9.4000 3.1167 -0.0769
9.4200 3.1233 -0.0812
9.4400 3.1300 -0.0897
9.4600 3.1367 -0.0756
9.4800 3.1434 -0.0864
9.5000 3.1501 -0.0902
9.5200 3.1567 -0.0764
9.5400 3.1634 -0.0893
9.5600 3.1701 -0.0878
9.5800 3.1768 -0.0757
9.6000 3.1834 -0.0920
9.6200 3.1900 -0.0929
9.6400 3.1966 -0.0772
9.6600 3.2034 -0.0925
9.6800 3.2100 -0.0949
9.7000 3.2167 -0.0847
9.7200 3.2234 -0.0918
9.7400 3.2300 -0.0895
9.7600 3.2367 -0.0868
9.7800 3.2433 -0.0932
9.8000 3.2499 -0.0893
9.8200 3.2566 -0.0912
9.8400 3.2634 -0.0934
9.8600 3.2701 -0.0957
9.8800 3.2768 -0.0904
9.9000 3.2835 -0.0928
9.9200 3.2901 -0.0995
9.9400 3.2968 -0.0966
9.9600 3.3033 -0.0864
9.9800 3.3100 -0.0977
10.0000 3.3167 -0.0994
10.0200 3.3234 -0.0930
10.0400 3.3301 -0.1029
10.0600 3.3368 -0.0972
10.0800 3.3435 -0.0920
10.1000 3.3501 -0.1065
10.1200 3.3567 -0.1010
10.1400 3.3633 -0.0907
10.1600 3.3700 -0.1061
10.1800 3.3767 -0.0988
10.2000 3.3833 -0.0941
10.2200 3.3900 -0.1132
10.2400 3.3967 -0.0993
10.2600 3.4034 -0.0925
10.2800 3.4101 -0.1133
10.3000 3.4167 -0.1025
10.3200 3.4233 -0.0983
10.3400 3.4299 -0.1113
10.3600 3.4366 -0.1031
10.3800 3.4433 -0.0999
10.4000 3.4501 -0.1181
10.4200 3.4567 -0.1022
10.4400 3.4634 -0.1007
10.4600 3.4701 -0.1158
10.4800 3.4767 -0.1073
10.5000 3.4834 -0.1036
10.5200 3.4900 -0.1205
10.5400 3.4967 -0.1080
10.5600 3.5034 -0.1045
10.5800 3.5101 -0.1232
10.6000 3.5167 -0.1139
10.6200 3.5234 -0.1002
10.6400 3.5301 -0.1234
10.6600 3.5368 -0.1220
10.6800 3.5434 -0.1028
10.7000 3.5500 -0.1208
10.7200 3.5567 -0.1214
10.7400 3.5634 -0.1111
10.7600 3.5701 -0.1227
10.7800 3.5768 -0.1240
10.8000 3.5835 -0.1120
10.8200 3.5901 -0.1269
10.8400 3.5968 -0.1244
10.8600 3.6034 -0.1128
10.8800 3.6100 -0.1276
10.9000 3.6167 -0.1274
10.9200 3.6234 -0.1144
10.9400 3.6301 -0.1288
10.9600 3.6368 -0.1287
10.9800 3.6434 -0.1184
11.0000 3.6501 -0.1267
11.0200 3.6567 -0.1373
11.0400 3.6633 -0.1202
11.0600 3.6699 -0.1361
11.0800 3.6766 -0.1336
11.1000 3.6833 -0.1180
11.1200 3.6900 -0.1409
11.1400 3.6967 -0.1346
11.1600 3.7034 -0.1194
11.1800 3.7101 -0.1456
11.2000 3.7167 -0.1384
11.2200 3.7233 -0.1198
11.2400 3.7300 -0.1439
11.2600 3.7366 -0.1324
11.2800 3.7434 -0.1255
11.3000 3.7501 -0.1479
11.3200 3.7568 -0.1382
11.3400 3.7635 -0.1262
11.3600 3.7702 -0.1511
11.3800 3.7768 -0.1401
11.4000 3.7833 -0.1282
11.4200 3.7900 -0.1406
11.4400 3.7966 -0.1390
11.4600 3.8034 -0.1301
11.4800 3.8101 -0.1485
11.5000 3.8168 -0.1367
11.5200 3.8235 -0.1337
11.5400 3.8301 -0.1461
11.5600 3.8368 -0.1395
11.5800 3.8434 -0.1330
11.6000 3.8500 -0.1506
11.6200 3.8567 -0.1367
11.6400 3.8633 -0.1349
11.6600 3.8700 -0.1469
11.6800 3.8767 -0.1398
11.7000 3.8834 -0.1366
11.7200 3.8901 -0.1445
11.7400 3.8967 -0.1379
11.7600 3.9033 -0.1358
11.7800 3.9099 -0.1427
11.8000 3.9166 -0.1384
11.8200 3.9233 -0.1394
11.8400 3.9300 -0.1423
11.8600 3.9367 -0.1449
11.8800 3.9434 -0.1304
11.9000 3.9501 -0.1414
11.9200 3.9567 -0.1521
11.9400 3.9633 -0.1300
11.9600 3.9700 -0.1265
11.9800 3.9767 -0.1519
12.0000 3.9834 -0.1370
12.0200 3.9901 -0.1420
12.0400 3.9968 -0.1462
12.0600 4.0034 -0.1274
12.0800 4.0101 -0.1446
12.1000 4.0168 -0.1553
12.1200 4.0234 -0.1270
12.1400 4.0300 -0.1444
12.1600 4.0367 -0.1556
12.1800 4.0434 -0.1246
12.2000 4.0500 -0.1480
12.2200 4.0567 -0.1565
12.2400 4.0634 -0.1282
12.2600 4.0701 -0.1537
12.2800 4.0768 -0.1491
12.3000 4.0834 -0.1317
12.3200 4.0900 -0.1596
12.3400 4.0966 -0.1483
12.3600 4.1033 -0.1258
12.3800 4.1101 -0.1617
12.4000 4.1167 -0.1591
12.4200 4.1234 -0.1305
12.4400 4.1301 -0.1535
12.4600 4.1368 -0.1527
12.4800 4.1434 -0.1469
12.5000 4.1500 -0.1543
12.5200 4.1566 -0.1532
12.5400 4.1633 -0.1442
12.5600 4.1700 -0.1565
12.5800 4.1767 -0.1569
12.6000 4.1834 -0.1566
12.6200 4.1901 -0.1532
12.6400 4.1968 -0.1553
12.6600 4.2034 -0.1523
12.6800 4.2100 -0.1550
12.7000 4.2167 -0.1638
12.7200 4.2234 -0.1562
12.7400 4.2300 -0.1485
12.7600 4.2367 -0.1636
12.7800 4.2434 -0.1647
12.8000 4.2502 -0.1541
12.8200 4.2568 -0.1675
12.8400 4.2634 -0.1584
12.8600 4.2700 -0.1547
12.8800 4.2766 -0.1689
12.9000 4.2833 -0.1622
12.9200 4.2901 -0.1570
12.9400 4.2968 -0.1690
12.9600 4.3035 -0.1657
12.9800 4.3101 -0.1634
13.0000 4.3168 -0.1697
13.0200 4.3234 -0.1668
13.0400 4.3300 -0.1609
13.0600 4.3366 -0.1744
13.0800 4.3434 -0.1675
13.1000 4.3501 -0.1685
13.1200 4.3568 -0.1761
13.1400 4.3634 -0.1656
13.1600 4.3701 -0.1626
13.1800 4.3768 -0.1803
13.2000 4.3834 -0.1716
13.2200 4.3900 -0.1654
13.2400 4.3966 -0.1767
13.2600 4.4033 -0.1678
13.2800 4.4100 -0.1705
13.3000 4.4167 -0.1800
13.3200 4.4234 -0.1704
13.3400 4.4301 -0.1701
13.3600 4.4368 -0.1832
13.3800 4.4434 -0.1713
13.4000 4.4500 -0.1703
13.4200 4.4566 -0.1834
13.4400 4.4633 -0.1737
13.4600 4.4701 -0.1725
13.4800 4.4768 -0.1866
13.5000 4.4835 -0.1737
13.5200 4.4902 -0.1803
13.5400 4.4968 -0.1816
13.5600 4.5034 -0.1772
13.5800 4.5100 -0.1767
13.6000 4.5167 -0.1849
13.6200 4.5234 -0.1809
13.6400 4.5301 -0.1794
13.6600 4.5368 -0.1804
13.6800 4.5434 -0.1834
13.7000 4.5501 -0.1772
13.7200 4.5567 -0.1854
13.7400 4.5634 -0.1835
13.7600 4.5700 -0.1774
13.7800 4.5766 -0.1849
13.8000 4.5833 -0.1823
13.8200 4.5900 -0.1784
13.8400 4.5967 -0.1911
13.8600 4.6034 -0.1821
13.8800 4.6101 -0.1792
13.9000 4.6168 -0.1992
13.9200 4.6234 -0.1867
13.9400 4.6300 -0.1807
13.9600 4.6366 -0.1901
13.9800 4.6433 -0.1905
14.0000 4.6500 -0.1813
14.0200 4.6567 -0.1958
14.0400 4.6634 -0.1877
14.0600 4.6701 -0.1839
14.0800 4.6767 -0.1964
14.1000 4.6834 -0.1927
14.1200 4.6900 -0.1879
14.1400 4.6966 -0.1980
14.1600 4.7033 -0.1891
14.1800 4.7101 -0.1875
14.2000 4.7168 -0.1971
14.2200 4.7234 -0.1954
14.2400 4.7301 -0.1900
14.2600 4.7368 -0.1952
14.2800 4.7434 -0.2016
14.3000 4.7500 -0.1913
14.3200 4.7567 -0.1908
14.3400 4.7633 -0.2032
14.3600 4.7700 -0.1923
14.3800 4.7767 -0.1982
14.4000 4.7834 -0.2009
14.4200 4.7901 -0.1903
14.4400 4.7968 -0.1999
14.4600 4.8034 -0.2050
14.4800 4.8100 -0.1910
14.5000 4.8166 -0.1964
14.5200 4.8233 -0.2116
14.5400 4.8300 -0.1884
14.5600 4.8367 -0.1976
14.5800 4.8433 -0.2144
14.6000 4.8500 -0.1957
14.6200 4.8566 -0.1985
14.6400 4.8633 -0.2146
14.6600 4.8699 -0.1950
14.6800 4.8766 -0.1995
14.7000 4.8833 -0.2111
14.7200 4.8901 -0.1966
14.7400 4.8967 -0.2010
14.7600 4.9034 -0.2152
14.7800 4.9101 -0.1975
14.8000 4.9167 -0.2053
14.8200 4.9234 -0.2151
14.8400 4.9300 -0.1967
14.8600 4.9367 -0.2046
14.8800 4.9433 -0.2106
14.9000 4.9501 -0.2053
14.9200 4.9568 -0.2046
14.9400 4.9634 -0.2136
14.9600 4.9701 -0.2014
14.9800 4.9768 -0.2072
15.0000 4.9834 -0.2131
15.0200 4.9900 -0.2038
15.0400 4.9966 -0.2099
15.0600 5.0033 -0.2196
15.0800 5.0101 -0.2038
15.1000 5.0168 -0.2082
15.1200 5.0234 -0.2164
15.1400 5.0301 -0.2092
15.1600 5.0368 -0.2045
15.1800 5.0434 -0.2221
15.2000 5.0500 -0.2138
15.2200 5.0567 -0.2056
15.2400 5.0633 -0.2194
15.2600 5.0700 -0.2126
15.2800 5.0767 -0.2066
15.3000 5.0834 -0.2220
15.3200 5.0901 -0.2103
15.3400 5.0968 -0.2132
15.3600 5.1034 -0.2266
15.3800 5.1100 -0.2119
15.4000 5.1166 -0.2146
15.4200 5.1232 -0.2254
15.4400 5.1299 -0.2099
15.4600 5.1366 -0.2158
15.4800 5.1434 -0.2259
15.5000 5.1501 -0.2136
15.5200 5.1568 -0.2226
15.5400 5.1634 -0.2250
15.5600 5.1700 -0.2170
15.5800 5.1767 -0.2203
15.6000 5.1833 -0.2241
15.6200 5.1901 -0.2155
15.6400 5.1968 -0.2253
15.6600 5.2034 -0.2249
15.6800 5.2101 -0.2202
15.7000 5.2168 -0.2228
15.7200 5.2235 -0.2275
15.7400 5.2301 -0.2233
15.7600 5.2367 -0.2243
15.7800 5.2434 -0.2265
15.8000 5.2501 -0.2256
15.8200 5.2568 -0.2248
15.8400 5.2634 -0.2286
15.8600 5.2701 -0.2260
15.8800 5.2768 -0.2262
15.9000 5.2835 -0.2282
15.9200 5.2900 -0.2261
15.9400 5.2966 -0.2255
15.9600 5.3033 -0.2338
15.9800 5.3100 -0.2337
16.0000 5.3167 -0.2271
16.0200 5.3234 -0.2354
16.0400 5.3301 -0.2346
16.0600 5.3367 -0.2314
16.0800 5.3434 -0.2334
16.1000 5.3500 -0.2394
16.1200 5.3566 -0.2259
16.1400 5.3633 -0.2354
16.1600 5.3700 -0.2423
16.1800 5.3767 -0.2300
16.2000 5.3834 -0.2372
16.2200 5.3900 -0.2438
16.2400 5.3966 -0.2286
16.2600 5.4033 -0.2437
16.2800 5.4100 -0.2447
16.3000 5.4167 -0.2331
16.3200 5.4234 -0.2395
16.3400 5.4301 -0.2448
16.3600 5.4368 -0.2354
16.3800 5.4434 -0.2403
16.4000 5.4501 -0.2467
16.4200 5.4568 -0.2382
16.4400 5.4635 -0.2451
16.4600 5.4701 -0.2470
16.4800 5.4767 -0.2410
16.5000 5.4833 -0.2431
16.5200 5.4900 -0.2442
16.5400 5.4967 -0.2411
16.5600 5.5034 -0.2436
16.5800 5.5101 -0.2527
16.6000 5.5168 -0.2418
16.6200 5.5234 -0.2428
16.6400 5.5300 -0.2532
16.6600 5.5366 -0.2378
16.6800 5.5433 -0.2533
16.7000 5.5500 -0.2486
16.7200 5.5567 -0.2398
16.7400 5.5634 -0.2530
16.7600 5.5701 -0.2495
16.7800 5.5767 -0.2373
16.8000 5.5834 -0.2561
16.8200 5.5900 -0.2544
16.8400 5.5966 -0.2373
16.8600 5.6033 -0.2520
16.8800 5.6100 -0.2538
16.9000 5.6167 -0.2422
16.9200 5.6234 -0.2558
16.9400 5.6301 -0.2503
16.9600 5.6368 -0.2436
16.9800 5.6434 -0.2558
17.0000 5.6500 -0.2493
17.0200 5.6566 -0.2472
17.0400 5.6632 -0.2525
17.0600 5.6699 -0.2506
17.0800 5.6767 -0.2491
17.1000 5.6834 -0.2551
17.1200 5.6901 -0.2524
17.1400 5.6968 -0.2578
17.1600 5.7035 -0.2515
17.1800 5.7101 -0.2524
17.2000 5.7167 -0.2609
17.2200 5.7233 -0.2561
17.2400 5.7300 -0.2500
17.2600 5.7368 -0.2589
17.2800 5.7435 -0.2539
17.3000 5.7501 -0.2539
17.3200 5.7568 -0.2607
17.3400 5.7635 -0.2580
17.3600 5.7701 -0.2555
17.3800 5.7767 -0.2588
17.4000 5.7833 -0.2529
17.4200 5.7900 -0.2585
17.4400 5.7967 -0.2665
17.4600 5.8034 -0.2535
17.4800 5.8101 -0.2567
17.5000 5.8168 -0.2641
17.5200 5.8234 -0.2575
17.5400 5.8300 -0.2602
17.5600 5.8366 -0.2647
17.5800 5.8432 -0.2524
17.6000 5.8500 -0.2659
17.6200 5.8567 -0.2666
17.6400 5.8634 -0.2556
17.6600 5.8700 -0.2673
17.6800 5.8767 -0.2689
17.7000 5.8834 -0.2559
17.7200 5.8900 -0.2673
17.7400 5.8967 -0.2671
17.7600 5.9033 -0.2602
17.7800 5.9100 -0.2701
17.8000 5.9167 -0.2669
17.8200 5.9234 -0.2610
17.8400 5.9301 -0.2733
17.8600 5.9367 -0.2655
17.8800 5.9435 -0.2608
17.9000 5.9501 -0.2742
17.9200 5.9567 -0.2702
17.9400 5.9634 -0.2633
17.9600 5.9700 -0.2753
17.9800 5.9767 -0.2685
18.0000 5.9835 -0.2633
18.0200 5.9901 -0.2741
18.0400 5.9968 -0.2727
18.0600 6.0035 -0.2687
18.0800 6.0101 -0.2734
18.1000 6.0166 -0.2742
18.1200 6.0233 -0.2628
18.1400 6.0300 -0.2775
18.1600 6.0367 -0.2745
18.1800 6.0434 -0.2692
18.2000 6.0501 -0.2726
18.2200 6.0567 -0.2768
18.2400 6.0634 -0.2733
18.2600 6.0701 -0.2779
18.2800 6.0767 -0.2737
18.3000 6.0833 -0.2762
18.3200 6.0900 -0.2771
18.3400 6.0967 -0.2778
18.3600 6.1034 -0.2754
18.3800 6.1100 -0.2776
18.4000 6.1167 -0.2791
18.4200 6.1234 -0.2807
18.4400 6.1301 -0.2810
18.4600 6.1367 -0.2846
18.4800 6.1433 -0.2767
18.5000 6.1500 -0.2792
18.5200 6.1567 -0.2822
18.5400 6.1634 -0.2827
18.5600 6.1701 -0.2804
18.5800 6.1768 -0.2870
18.6000 6.1835 -0.2856
18.6200 6.1901 -0.2804
18.6400 6.1966 -0.2937
18.6600 6.2033 -0.2815
18.6800 6.2100 -0.2812
18.7000 6.2167 -0.2960
18.7200 6.2235 -0.2832
18.7400 6.2301 -0.2790
18.7600 6.2368 -0.2967
18.7800 6.2435 -0.2885
18.8000 6.2501 -0.2838
18.8200 6.2567 -0.2950
18.8400 6.2633 -0.2838
18.8600 6.2700 -0.2814
18.8800 6.2767 -0.3007
18.9000 6.2834 -0.2841
18.9200 6.2901 -0.2892
18.9400 6.2967 -0.2979
18.9600 6.3034 -0.2842
18.9800 6.3101 -0.2947
19.0000 6.3166 -0.2993
19.0200 6.3233 -0.2846
19.0400 6.3299 -0.2942
19.0600 6.3367 -0.2979
19.0800 6.3434 -0.2827
19.1000 6.3501 -0.2922
19.1200 6.3567 -0.3025
19.1400 6.3634 -0.2866
19.1600 6.3701 -0.2977
19.1800 6.3767 -0.2998
19.2000 6.3833 -0.2873
19.2200 6.3900 -0.2988
19.2400 6.3968 -0.2978
19.2600 6.4034 -0.2905
19.2800 6.4101 -0.2967
19.3000 6.4168 -0.3008
19.3200 6.4235 -0.2891
19.3400 6.4301 -0.3014
19.3600 6.4367 -0.3011
19.3800 6.4433 -0.2938
19.4000 6.4500 -0.3018
19.4200 6.4567 -0.3008
19.4400 6.4634 -0.2958
19.4600 6.4701 -0.3004
19.4800 6.4768 -0.3013
19.5000 6.4834 -0.3000
19.5200 6.4901 -0.2993
19.5400 6.4967 -0.3072
19.5600 6.5033 -0.2993
19.5800 6.5100 -0.3014
19.6000 6.5167 -0.3086
19.6200 6.5234 -0.2986
19.6400 6.5301 -0.3048
19.6600 6.5368 -0.3105
19.6800 6.5434 -0.3024
19.7000 6.5501 -0.3006
19.7200 6.5566 -0.3118
19.7400 6.5633 -0.3003
19.7600 6.5699 -0.3036
19.7800 6.5767 -0.3176
19.8000 6.5834 -0.3041
19.8200 6.5900 -0.3043
19.8400 6.5967 -0.3138
19.8600 6.6034 -0.3001
19.8800 6.6100 -0.3122
19.9000 6.6167 -0.3122
19.9200 6.6233 -0.3024
19.9400 6.6300 -0.3105
19.9600 6.6367 -0.3186
19.9800 6.6434 -0.3027
20.0000 6.6501 -0.3114
20.0200 6.6568 -0.3184
20.0400 6.6635 -0.3055
20.0600 6.6701 -0.3158
20.0800 6.6767 -0.3173
20.1000 6.6833 -0.2995
20.1200 6.6900 -0.3160
20.1400 6.6967 -0.3182
20.1600 6.7034 -0.3035
20.1800 6.7101 -0.3148
20.2000 6.7168 -0.3178
20.2200 6.7235 -0.3055
20.2400 6.7301 -0.3146
20.2600 6.7367 -0.3188
20.2800 6.7433 -0.3049
20.3000 6.7500 -0.3162
20.3200 6.7567 -0.3175
20.3400 6.7634 -0.3117
20.3600 6.7700 -0.3170
20.3800 6.7767 -0.3162
20.4000 6.7834 -0.3131
20.4200 6.7900 -0.3231
20.4400 6.7967 -0.3144
20.4600 6.8033 -0.3125
20.4800 6.8100 -0.3200
20.5000 6.8167 -0.3182
20.5200 6.8234 -0.3141
20.5400 6.8301 -0.3226
20.5600 6.8368 -0.3178
20.5800 6.8435 -0.3233
20.6000 6.8501 -0.3216
20.6200 6.8567 -0.3202
20.6400 6.8633 -0.3273
20.6600 6.8700 -0.3183
20.6800 6.8767 -0.3210
20.7000 6.8834 -0.3265
20.7200 6.8901 -0.3190
20.7400 6.8968 -0.3221
20.7600 6.9035 -0.3292
20.7800 6.9101 -0.3169
20.8000 6.9167 -0.3257
20.8200 6.9233 -0.3270
20.8400 6.9300 -0.3190
20.8600 6.9367 -0.3277
20.8800 6.9434 -0.3371
20.9000 6.9501 -0.3169
20.9200 6.9568 -0.3307
20.9400 6.9635 -0.3322
20.9600 6.9701 -0.3240
20.9800 6.9768 -0.3332
21.0000 6.9834 -0.3284
21.0200 6.9900 -0.3219
21.0400 6.9967 -0.3367
21.0600 7.0034 -0.3275
21.0800 7.0100 -0.3269
21.1000 7.0167 -0.3345
21.1200 7.0234 -0.3289
21.1400 7.0301 -0.3247
21.1600 7.0367 -0.3384
21.1800 7.0433 -0.3291
21.2000 7.0499 -0.3291
21.2200 7.0566 -0.3396
21.2400 7.0634 -0.3289
21.2600 7.0701 -0.3369
21.2800 7.0767 -0.3385
21.3000 7.0834 -0.3303
21.3200 7.0900 -0.3339
21.3400 7.0967 -0.3386
21.3600 7.1033 -0.3332
21.3800 7.1100 -0.3330
21.4000 7.1167 -0.3391
21.4200 7.1234 -0.3413
21.4400 7.1301 -0.3338
21.4600 7.1367 -0.3396
21.4800 7.1434 -0.3418
21.5000 7.1501 -0.3395
21.5200 7.1567 -0.3343
21.5400 7.1634 -0.3488
21.5600 7.1700 -0.3347
21.5800 7.1767 -0.3374
21.6000 7.1834 -0.3452
21.6200 7.1901 -0.3372
21.6400 7.1968 -0.3447
21.6600 7.2034 -0.3436
21.6800 7.2101 -0.3365
21.7000 7.2167 -0.3493
21.7200 7.2233 -0.3403
21.7400 7.2300 -0.3416
21.7600 7.2367 -0.3469
21.7800 7.2434 -0.3433
21.8000 7.2501 -0.3449
21.8200 7.2568 -0.3459
21.8400 7.2634 -0.3424
21.8600 7.2701 -0.3512
21.8800 7.2767 -0.3519
21.9000 7.2833 -0.3358
21.9200 7.2899 -0.3549
21.9400 7.2966 -0.3475
21.9600 7.3034 -0.3400
21.9800 7.3100 -0.3554
22.0000 7.3167 -0.3487
22.0200 7.3234 -0.3414
22.0400 7.3301 -0.3585
22.0600 7.3367 -0.3442
22.0800 7.3433 -0.3442
22.1000 7.3500 -0.3578
22.1200 7.3567 -0.3489
22.1400 7.3634 -0.3446
22.1600 7.3701 -0.3627
22.1800 7.3768 -0.3464
22.2000 7.3835 -0.3475
22.2200 7.3901 -0.3610
22.2400 7.3967 -0.3425
22.2600 7.4033 -0.3566
22.2800 7.4100 -0.3583
22.3000 7.4167 -0.3435
22.3200 7.4234 -0.3586
22.3400 7.4301 -0.3603
22.3600 7.4368 -0.3435
22.3800 7.4434 -0.3585
22.4000 7.4501 -0.3646
22.4200 7.4567 -0.3487
22.4400 7.4633 -0.3601
22.4600 7.4700 -0.3568
22.4800 7.4766 -0.3472
22.5000 7.4833 -0.3685
22.5200 7.4900 -0.3555
22.5400 7.4967 -0.3544
22.5600 7.5034 -0.3668
22.5800 7.5101 -0.3589
22.6000 7.5167 -0.3521
22.6200 7.5233 -0.3694
22.6400 7.5299 -0.3563
22.6600 7.5366 -0.3514
22.6800 7.5434 -0.3707
22.7000 7.5501 -0.3594
22.7200 7.5568 -0.3548
22.7400 7.5635 -0.3732
22.7600 7.5701 -0.3597
22.7800 7.5767 -0.3613
22.8000 7.5833 -0.3710
22.8200 7.5900 -0.3603
22.8400 7.5967 -0.3596
22.8600 7.6034 -0.3677
22.8800 7.6101 -0.3671
22.9000 7.6167 -0.3620
22.9200 7.6234 -0.3724
22.9400 7.6301 -0.3645
22.9600 7.6368 -0.3629
22.9800 7.6434 -0.3697
23.0000 7.6500 -0.3685
23.0200 7.6567 -0.3636
23.0400 7.6634 -0.3681
23.0600 7.6701 -0.3678
23.0800 7.6768 -0.3630
23.1000 7.6835 -0.3714
23.1200 7.6902 -0.3733
23.1400 7.6968 -0.3576
23.1600 7.7034 -0.3786
23.1800 7.7100 -0.3668
23.2000 7.7166 -0.3616
23.2200 7.7234 -0.3842
23.2400 7.7301 -0.3727
23.2600 7.7368 -0.3612
23.2800 7.7434 -0.3788
23.3000 7.7501 -0.3756
23.3200 7.7567 -0.3638
23.3400 7.7633 -0.3779
23.3600 7.7699 -0.3756
23.3800 7.7766 -0.3631
23.4000 7.7833 -0.3815
23.4200 7.7900 -0.3752
23.4400 7.7967 -0.3632
23.4600 7.8034 -0.3859
23.4800 7.8101 -0.3705
23.5000 7.8167 -0.3644
23.5200 7.8233 -0.3851
23.5400 7.8300 -0.3725
23.5600 7.8367 -0.3687
23.5800 7.8434 -0.3847
23.6000 7.8501 -0.3731
23.6200 7.8568 -0.3736
23.6400 7.8635 -0.3840
23.6600 7.8701 -0.3751
23.6800 7.8768 -0.3720
23.7000 7.8834 -0.3841
23.7200 7.8900 -0.3727
23.7400 7.8967 -0.3770
23.7600 7.9034 -0.3802
23.7800 7.9101 -0.3764
23.8000 7.9168 -0.3766
23.8200 7.9235 -0.3778
23.8400 7.9301 -0.3832
23.8600 7.9368 -0.3805
23.8800 7.9433 -0.3774
23.9000 7.9500 -0.3786
23.9200 7.9567 -0.3801
23.9400 7.9634 -0.3796
23.9600 7.9701 -0.3847
23.9800 7.9767 -0.3774
24.0000 7.9834 -0.3805
24.0200 7.9901 -0.3875
24.0400 7.9968 -0.3777
24.0600 8.0034 -0.3815
24.0800 8.0100 -0.3905
24.1000 8.0167 -0.3731
24.1200 8.0233 -0.3861
24.1400 8.0300 -0.3873
24.1600 8.0367 -0.3784
24.1800 8.0434 -0.3842
24.2000 8.0501 -0.3923
24.2200 8.0567 -0.3799
24.2400 8.0633 -0.3899
24.2600 8.0700 -0.3894
24.2800 8.0766 -0.3770
24.3000 8.0834 -0.3925
24.3200 8.0901 -0.3912
24.3400 8.0968 -0.3813
24.3600 8.1035 -0.3966
24.3800 8.1101 -0.3864
24.4000 8.1167 -0.3848
24.4200 8.1233 -0.3919
24.4400 8.1300 -0.3855
24.4600 8.1367 -0.3888
24.4800 8.1434 -0.3898
24.5000 8.1501 -0.3880
24.5200 8.1568 -0.3895
24.5400 8.1634 -0.3910
24.5600 8.1701 -0.3872
24.5800 8.1767 -0.3930
24.6000 8.1834 -0.3891
24.6200 8.1900 -0.3927
24.6400 8.1966 -0.3937
24.6600 8.2033 -0.3881
24.6800 8.2100 -0.3916
24.7000 8.2167 -0.3962
24.7200 8.2234 -0.3872
24.7400 8.2301 -0.3943
24.7600 8.2367 -0.3940
24.7800 8.2433 -0.3912
24.8000 8.2500 -0.3917
24.8200 8.2566 -0.4018
24.8400 8.2633 -0.3872
24.8600 8.2700 -0.3959
24.8800 8.2767 -0.4034
24.9000 8.2834 -0.3854
24.9200 8.2901 -0.4011
24.9400 8.2967 -0.4014
24.9600 8.3034 -0.3905
24.9800 8.3100 -0.4040
25.0000 8.3167 -0.4037
25.0200 8.3234 -0.3931
25.0400 8.3301 -0.4035
25.0600 8.3367 -0.3988
25.0800 8.3434 -0.3957
25.1000 8.3501 -0.4068
25.1200 8.3568 -0.3999
25.1400 8.3634 -0.3957
25.1600 8.3700 -0.4056
25.1800 8.3766 -0.3984
25.2000 8.3833 -0.4019
25.2200 8.3901 -0.4051
25.2400 8.3967 -0.4014
25.2600 8.4034 -0.4028
25.2800 8.4101 -0.4091
25.3000 8.4168 -0.4040
25.3200 8.4234 -0.4022
25.3400 8.4300 -0.4060
25.3600 8.4366 -0.4030
25.3800 8.4434 -0.4034
25.4000 8.4501 -0.4075
25.4200 8.4568 -0.4019
25.4400 8.4634 -0.4074
25.4600 8.4701 -0.4076
25.4800 8.4767 -0.4034
25.5000 8.4834 -0.4117
25.5200 8.4900 -0.4070
25.5400 8.4966 -0.4072
25.5600 8.5033 -0.4116
25.5800 8.5100 -0.4089
25.6000 8.5167 -0.4066
25.6200 8.5234 -0.4108
25.6400 8.5301 -0.4110
25.6600 8.5367 -0.4116
25.6800 8.5433 -0.4096
25.7000 8.5500 -0.4119
25.7200 8.5566 -0.4146
25.7400 8.5634 -0.4117
25.7600 8.5701 -0.4097
25.7800 8.5768 -0.4196
25.8000 8.5835 -0.4098
25.8200 8.5902 -0.4124
25.8400 8.5968 -0.4186
25.8600 8.6034 -0.4124
25.8800 8.6100 -0.4109
25.9000 8.6167 -0.4196
25.9200 8.6234 -0.4121
25.9400 8.6301 -0.4168
25.9600 8.6368 -0.4205
25.9800 8.6435 -0.4125
26.0000 8.6501 -0.4129
26.0200 8.6568 -0.4225
26.0400 8.6634 -0.4167
26.0600 8.6700 -0.4179
26.0800 8.6766 -0.4212
26.1000 8.6833 -0.4161
26.1200 8.6900 -0.4205
26.1400 8.6967 -0.4224
26.1600 8.7034 -0.4227
26.1800 8.7101 -0.4139
26.2000 8.7168 -0.4279
26.2200 8.7234 -0.4217
26.2400 8.7299 -0.4166
26.2600 8.7366 -0.4269
26.2800 8.7433 -0.4213
26.3000 8.7500 -0.4152
26.3200 8.7567 -0.4301
26.3400 8.7634 -0.4219
26.3600 8.7701 -0.4219
26.3800 8.7767 -0.4331
26.4000 8.7834 -0.4206
26.4200 8.7900 -0.4174
26.4400 8.7966 -0.4368
26.4600 8.8034 -0.4200
26.4800 8.8101 -0.4229
26.5000 8.8168 -0.4408
26.5200 8.8235 -0.4224
26.5400 8.8301 -0.4245
26.5600 8.8368 -0.4388
26.5800 8.8434 -0.4209
26.6000 8.8500 -0.4279
26.6200 8.8567 -0.4388
26.6400 8.8634 -0.4178
26.6600 8.8701 -0.4314
26.6800 8.8767 -0.4386
26.7000 8.8834 -0.4238
26.7200 8.8901 -0.4326
26.7400 8.8968 -0.4392
26.7600 8.9034 -0.4243
26.7800 8.9100 -0.4320
26.8000 8.9166 -0.4369
26.8200 8.9233 -0.4251
26.8400 8.9300 -0.4336
26.8600 8.9367 -0.4427
26.8800 8.9434 -0.4240
26.9000 8.9501 -0.4368
26.9200 8.9568 -0.4392
26.9400 8.9634 -0.4326
26.9600 8.9700 -0.4372
26.9800 8.9766 -0.4382
27.0000 8.9833 -0.4345
27.0200 8.9900 -0.4362
27.0400 8.9967 -0.4430
27.0600 9.0034 -0.4356
27.0800 9.0101 -0.4354
27.1000 9.0167 -0.4417
27.1200 9.0234 -0.4434
27.1400 9.0300 -0.4330
27.1600 9.0366 -0.4358
27.1800 9.0433 -0.4439
27.2000 9.0500 -0.4352
27.2200 9.0567 -0.4392
27.2400 9.0634 -0.4509
27.2600 9.0701 -0.4312
27.2800 9.0768 -0.4381
27.3000 9.0834 -0.4483
27.3200 9.0900 -0.4384
27.3400 9.0967 -0.4352
27.3600 9.1033 -0.4501
27.3800 9.1101 -0.4357
27.4000 9.1168 -0.4459
27.4200 9.1234 -0.4448
27.4400 9.1301 -0.4400
27.4600 9.1368 -0.4485
27.4800 9.1434 -0.4447
27.5000 9.1500 -0.4402
27.5200 9.1567 -0.4461
27.5400 9.1634 -0.4448
27.5600 9.1701 -0.4412
27.5800 9.1767 -0.4470
27.6000 9.1834 -0.4435
27.6200 9.1901 -0.4430
27.6400 9.1968 -0.4474
27.6600 9.2034 -0.4457
27.6800 9.2100 -0.4458
27.7000 9.2166 -0.4514
27.7200 9.2233 -0.4416
27.7400 9.2300 -0.4459
27.7600 9.2367 -0.4474
27.7800 9.2434 -0.4490
27.8000 9.2501 -0.4475
27.8200 9.2568 -0.4471
27.8400 9.2634 -0.4451
27.8600 9.2700 -0.4479
27.8800 9.2766 -0.4465
27.9000 9.2833 -0.4516
27.9200 9.2901 -0.4461
27.9400 9.2968 -0.4506
27.9600 9.3035 -0.4512
27.9800 9.3101 -0.4519
28.0000 9.3168 -0.4501
28.0200 9.3234 -0.4535
28.0400 9.3300 -0.4454
28.0600 9.3367 -0.4484
28.0800 9.3434 -0.4520
28.1000 9.3501 -0.4519
28.1200 9.3568 -0.4514
28.1400 9.3634 -0.4465
28.1600 9.3701 -0.4464
28.1800 9.3768 -0.4557
28.2000 9.3834 -0.4557
28.2200 9.3900 -0.4508
28.2400 9.3966 -0.4512
28.2600 9.4033 -0.4520
28.2800 9.4100 -0.4547
28.3000 9.4167 -0.4554
28.3200 9.4234 -0.4546
28.3400 9.4301 -0.4510
28.3600 9.4368 -0.4553
28.3800 9.4434 -0.4550
28.4000 9.4500 -0.4514
28.4200 9.4566 -0.4555
28.4400 9.4633 -0.4561
28.4600 9.4700 -0.4522
28.4800 9.4767 -0.4626
28.5000 9.4834 -0.4537
28.5200 9.4901 -0.4544
28.5400 9.4967 -0.4590
28.5600 9.5034 -0.4554
28.5800 9.5100 -0.4628
28.6000 9.5166 -0.4564
28.6200 9.5233 -0.4540
28.6400 9.5300 -0.4621
28.6600 9.5368 -0.4590
28.6800 9.5434 -0.4570
28.7000 9.5501 -0.4673
28.7200 9.5568 -0.4606
28.7400 9.5635 -0.4592
28.7600 9.5701 -0.4620
28.7800 9.5767 -0.4585
28.8000 9.5833 -0.4629
28.8200 9.5900 -0.4615
28.8400 9.5968 -0.4603
28.8600 9.6035 -0.4681
28.8800 9.6102 -0.4577
28.9000 9.6168 -0.4663
28.9200 9.6235 -0.4670
28.9400 9.6300 -0.4602
28.9600 9.6366 -0.4639
28.9800 9.6433 -0.4650
29.0000 9.6500 -0.4623
29.0200 9.6567 -0.4650
29.0400 9.6634 -0.4668
29.0600 9.6700 -0.4639
29.0800 9.6767 -0.4725
29.1000 9.6834 -0.4682
29.1200 9.6900 -0.4639
29.1400 9.6966 -0.4713
29.1600 9.7033 -0.4643
29.1800 9.7100 -0.4664
29.2000 9.7167 -0.4729
29.2200 9.7234 -0.4648
29.2400 9.7300 -0.4682
29.2600 9.7367 -0.4718
29.2800 9.7434 -0.4665
29.3000 9.7501 -0.4712
29.3200 9.7567 -0.4730
29.3400 9.7633 -0.4628
29.3600 9.7700 -0.4769
29.3800 9.7767 -0.4691
29.4000 9.7834 -0.4697
29.4200 9.7901 -0.4764
29.4400 9.7968 -0.4744
29.4600 9.8035 -0.4676
29.4800 9.8100 -0.4755
29.5000 9.8166 -0.4698
29.5200 9.8233 -0.4726
29.5400 9.8300 -0.4747
29.5600 9.8368 -0.4731
29.5800 9.8434 -0.4743
29.6000 9.8501 -0.4739
29.6200 9.8568 -0.4705
29.6400 9.8634 -0.4774
29.6600 9.8700 -0.4766
29.6800 9.8767 -0.4697
29.7000 9.8833 -0.4783
29.7200 9.8900 -0.4761
29.7400 9.8967 -0.4704
29.7600 9.9034 -0.4785
29.7800 9.9101 -0.4746
29.8000 9.9168 -0.4729
29.8200 9.9234 -0.4815
29.8400 9.9300 -0.4748
29.8600 9.9366 -0.4767
29.8800 9.9432 -0.4780
29.9000 9.9500 -0.4761
29.9200 9.9567 -0.4778
29.9400 9.9634 -0.4852
29.9600 9.9700 -0.4717
29.9800 9.9767 -0.4792
30.0000 9.9834 -0.4823
30.0200 9.9900 -0.4740
30.0400 9.9966 -0.4805
30.0600 10.0033 -0.4790
30.0800 10.0100 -0.4795
30.1000 10.0167 -0.4855
30.1200 10.0234 -0.4794
30.1400 10.0301 -0.4787
30.1600 10.0368 -0.4863
30.1800 10.0435 -0.4814
30.2000 10.0501 -0.4793
30.2200 10.0567 -0.4821
30.2400 10.0634 -0.4847
30.2600 10.0701 -0.4814
30.2800 10.0767 -0.4842
30.3000 10.0834 -0.4829
30.3200 10.0901 -0.4868
30.3400 10.0968 -0.4847
30.3600 10.1035 -0.4884
30.3800 10.1101 -0.4881
30.4000 10.1166 -0.4825
30.4200 10.1233 -0.4873
30.4400 10.1300 -0.4889
30.4600 10.1367 -0.4811
30.4800 10.1434 -0.4907
30.5000 10.1501 -0.4898
30.5200 10.1567 -0.4847
30.5400 10.1634 -0.4958
30.5600 10.1700 -0.4959
30.5800 10.1766 -0.4847
30.6000 10.1833 -0.4933
30.6200 10.1900 -0.4910
30.6400 10.1967 -0.4854
30.6600 10.2034 -0.4960
30.6800 10.2101 -0.4923
30.7000 10.2167 -0.4857
30.7200 10.2234 -0.5007
30.7400 10.2301 -0.4918
30.7600 10.2367 -0.4909
30.7800 10.2434 -0.4976
30.8000 10.2500 -0.4914
30.8200 10.2567 -0.4944
30.8400 10.2634 -0.4961
30.8600 10.2701 -0.4920
30.8800 10.2768 -0.4934
30.9000 10.2835 -0.5046
30.9200 10.2901 -0.4921
30.9400 10.2967 -0.4978
30.9600 10.3033 -0.4966
30.9800 10.3100 -0.4927
31.0000 10.3167 -0.4965
31.0200 10.3234 -0.4995
31.0400 10.3301 -0.4985
31.0600 10.3368 -0.4970
31.0800 10.3434 -0.4961
31.1000 10.3500 -0.4988
31.1200 10.3566 -0.4944
31.1400 10.3633 -0.4979
31.1600 10.3700 -0.4987
31.1800 10.3767 -0.4959
31.2000 10.3834 -0.5002
31.2200 10.3900 -0.5031
31.2400 10.3967 -0.4899
31.2600 10.4034 -0.5026
31.2800 10.4101 -0.5057
31.3000 10.4167 -0.4914
31.3200 10.4233 -0.5065
31.3400 10.4300 -0.5018
31.3600 10.4367 -0.4966
31.3800 10.4434 -0.5033
31.4000 10.4501 -0.5017
31.4200 10.4567 -0.4980
31.4400 10.4634 -0.5078
31.4600 10.4701 -0.4988
31.4800 10.4767 -0.5006
31.5000 10.4833 -0.5051
31.5200 10.4900 -0.5039
31.5400 10.4967 -0.4936
31.5600 10.5034 -0.5031
31.5800 10.5101 -0.5136
31.6000 10.5168 -0.4957
31.6200 10.5235 -0.5043
31.6400 10.5301 -0.5104
31.6600 10.5367 -0.4953
31.6800 10.5433 -0.5015
31.7000 10.5500 -0.5141
31.7200 10.5567 -0.4984
31.7400 10.5634 -0.5019
31.7600 10.5701 -0.5132
31.7800 10.5768 -0.4942
31.8000 10.5835 -0.5058
31.8200 10.5901 -0.5193
31.8400 10.5967 -0.4935
31.8600 10.6033 -0.5041
31.8800 10.6100 -0.5104
31.9000 10.6167 -0.5044
31.9200 10.6234 -0.5102
31.9400 10.6301 -0.5068
31.9600 10.6368 -0.5026
31.9800 10.6434 -0.5124
32.0000 10.6500 -0.5028
32.0200 10.6566 -0.5036
32.0400 10.6632 -0.5100
32.0600 10.6699 -0.5079
32.0800 10.6767 -0.5066
32.1000 10.6834 -0.5115
32.1200 10.6901 -0.5076
32.1400 10.6967 -0.5080
32.1600 10.7034 -0.5063
32.1800 10.7101 -0.5157
32.2000 10.7167 -0.5073
32.2200 10.7233 -0.5055
32.2400 10.7300 -0.5190
32.2600 10.7367 -0.5072
32.2800 10.7434 -0.5078
32.3000 10.7501 -0.5155
32.3200 10.7568 -0.5067
32.3400 10.7635 -0.5099
32.3600 10.7701 -0.5183
32.3800 10.7767 -0.5088
32.4000 10.7833 -0.5130
32.4200 10.7900 -0.5131
32.4400 10.7967 -0.5062
32.4600 10.8034 -0.5164
32.4800 10.8101 -0.5178
32.5000 10.8168 -0.5054
32.5200 10.8234 -0.5188
32.5400 10.8301 -0.5159
32.5600 10.8367 -0.5088
32.5800 10.8433 -0.5169
32.6000 10.8500 -0.5147
32.6200 10.8567 -0.5102
32.6400 10.8634 -0.5237
32.6600 10.8701 -0.5168
32.6800 10.8768 -0.5129
32.7000 10.8834 -0.5205
32.7200 10.8901 -0.5137
32.7400 10.8967 -0.5113
32.7600 10.9033 -0.5215
32.7800 10.9100 -0.5165
32.8000 10.9167 -0.5153
32.8200 10.9234 -0.5253
32.8400 10.9300 -0.5180
32.8600 10.9367 -0.5169
32.8800 10.9434 -0.5242
32.9000 10.9501 -0.5207
32.9200 10.9567 -0.5177
32.9400 10.9633 -0.5222
32.9600 10.9700 -0.5149
32.9800 10.9767 -0.5171
33.0000 10.9834 -0.5227
33.0200 10.9901 -0.5207
33.0400 10.9968 -0.5201
33.0600 11.0034 -0.5271
33.0800 11.0101 -0.5193
33.1000 11.0167 -0.5231
33.1200 11.0233 -0.5237
33.1400 11.0300 -0.5225
33.1600 11.0367 -0.5217
33.1800 11.0434 -0.5271
33.2000 11.0501 -0.5242
33.2200 11.0568 -0.5232
33.2400 11.0635 -0.5292
33.2600 11.0701 -0.5237
33.2800 11.0767 -0.5207
33.3000 11.0833 -0.5248
33.3200 11.0900 -0.5253
33.3400 11.0967 -0.5277
33.3600 11.1034 -0.5296
33.3800 11.1100 -0.5247
33.4000 11.1167 -0.5279
33.4200 11.1234 -0.5304
33.4400 11.1301 -0.5291
33.4600 11.1367 -0.5291
33.4800 11.1433 -0.5334
33.5000 11.1500 -0.5230
33.5200 11.1567 -0.5338
33.5400 11.1634 -0.5351
33.5600 11.1701 -0.5280
33.5800 11.1767 -0.5311
33.6000 11.1834 -0.5323
33.6200 11.1901 -0.5284
33.6400 11.1967 -0.5361
33.6600 11.2033 -0.5297
33.6800 11.2100 -0.5303
33.7000 11.2167 -0.5343
33.7200 11.2235 -0.5356
33.7400 11.2301 -0.5294
33.7600 11.2368 -0.5388
33.7800 11.2435 -0.5335
33.8000 11.2501 -0.5329
33.8200 11.2567 -0.5378
33.8400 11.2633 -0.5314
33.8600 11.2700 -0.5402
33.8800 11.2767 -0.5357
33.9000 11.2834 -0.5325
33.9200 11.2901 -0.5395
33.9400 11.2968 -0.5371
33.9600 11.3034 -0.5379
33.9800 11.3101 -0.5404
34.0000 11.3167 -0.5367
34.0200 11.3233 -0.5388
34.0400 11.3299 -0.5391
34.0600 11.3367 -0.5373
34.0800 11.3434 -0.5409
34.1000 11.3501 -0.5436
34.1200 11.3568 -0.5331
34.1400 11.3635 -0.5447
34.1600 11.3701 -0.5419
34.1800 11.3767 -0.5388
34.2000 11.3833 -0.5398
34.2200 11.3899 -0.5389
34.2400 11.3966 -0.5433
34.2600 11.4034 -0.5467
34.2800 11.4101 -0.5418
34.3000 11.4167 -0.5429
34.3200 11.4234 -0.5479
34.3400 11.4301 -0.5393
34.3600 11.4367 -0.5419
34.3800 11.4433 -0.5475
34.4000 11.4500 -0.5427
34.4200 11.4567 -0.5451
34.4400 11.4634 -0.5444
34.4600 11.4701 -0.5459
34.4800 11.4768 -0.5465
34.5000 11.4835 -0.5449
34.5200 11.4901 -0.5481
34.5400 11.4967 -0.5437
34.5600 11.5033 -0.5451
34.5800 11.5100 -0.5475
34.6000 11.5167 -0.5484
34.6200 11.5234 -0.5464
34.6400 11.5301 -0.5511
34.6600 11.5368 -0.5465
34.6800 11.5434 -0.5485
34.7000 11.5501 -0.5482
34.7200 11.5567 -0.5455
34.7400 11.5633 -0.5420
34.7600 11.5700 -0.5510
34.7800 11.5767 -0.5460
34.8000 11.5834 -0.5464
34.8200 11.5900 -0.5568
34.8400 11.5967 -0.5431
34.8600 11.6034 -0.5467
34.8800 11.6100 -0.5568
34.9000 11.6167 -0.5433
34.9200 11.6233 -0.5492
34.9400 11.6300 -0.5525
34.9600 11.6366 -0.5422
34.9800 11.6434 -0.5534
35.0000 11.6500 -0.5520
35.0200 11.6567 -0.5456
35.0400 11.6634 -0.5549
35.0600 11.6701 -0.5536
35.0800 11.6767 -0.5444
35.1000 11.6834 -0.5555
35.1200 11.6900 -0.5442
35.1400 11.6967 -0.5472
35.1600 11.7034 -0.5599
35.1800 11.7101 -0.5433
35.2000 11.7168 -0.5465
35.2200 11.7234 -0.5609
35.2400 11.7301 -0.5450
35.2600 11.7367 -0.5514
35.2800 11.7433 -0.5589
35.3000 11.7500 -0.5417
35.3200 11.7567 -0.5514
35.3400 11.7634 -0.5602
35.3600 11.7701 -0.5398
35.3800 11.7768 -0.5565
35.4000 11.7835 -0.5600
35.4200 11.7901 -0.5426
35.4400 11.7968 -0.5540
35.4600 11.8034 -0.5615
35.4800 11.8100 -0.5443
35.5000 11.8167 -0.5536
35.5200 11.8234 -0.5582
35.5400 11.8300 -0.5440
35.5600 11.8367 -0.5554
35.5800 11.8434 -0.5570
35.6000 11.8501 -0.5543
35.6200 11.8567 -0.5549
35.6400 11.8633 -0.5582
35.6600 11.8699 -0.5486
35.6800 11.8766 -0.5565
35.7000 11.8833 -0.5600
35.7200 11.8900 -0.5489
35.7400 11.8967 -0.5533
35.7600 11.9034 -0.5651
35.7800 11.9100 -0.5514
35.8000 11.9167 -0.5529
35.8200 11.9233 -0.5566
35.8400 11.9300 -0.5596
35.8600 11.9367 -0.5514
35.8800 11.9434 -0.5620
35.9000 11.9501 -0.5562
35.9200 11.9568 -0.5483
35.9400 11.9634 -0.5679
35.9600 11.9701 -0.5533
35.9800 11.9767 -0.5506
36.0000 11.9834 -0.5641
36.0200 11.9900 -0.5546
36.0400 11.9967 -0.5531
36.0600 12.0034 -0.5626
36.0800 12.0101 -0.5553
36.1000 12.0168 -0.5615
36.1200 12.0235 -0.5629
36.1400 12.0301 -0.5554
36.1600 12.0367 -0.5607
36.1800 12.0433 -0.5677
36.2000 12.0500 -0.5496
36.2200 12.0567 -0.5640
36.2400 12.0634 -0.5626
36.2600 12.0701 -0.5515
36.2800 12.0768 -0.5656
36.3000 12.0834 -0.5640
36.3200 12.0901 -0.5538
36.3400 12.0967 -0.5668
36.3600 12.1033 -0.5660
36.3800 12.1100 -0.5544
36.4000 12.1166 -0.5728
36.4200 12.1234 -0.5642
36.4400 12.1300 -0.5540
36.4600 12.1367 -0.5747
36.4800 12.1434 -0.5597
36.5000 12.1501 -0.5637
36.5200 12.1567 -0.5749
36.5400 12.1633 -0.5564
36.5600 12.1700 -0.5644
36.5800 12.1767 -0.5692
36.6000 12.1834 -0.5628
36.6200 12.1901 -0.5620
36.6400 12.1968 -0.5711
36.6600 12.2035 -0.5647
36.6800 12.2101 -0.5670
36.7000 12.2168 -0.5686
36.7200 12.2234 -0.5658
36.7400 12.2300 -0.5649
36.7600 12.2367 -0.5723
36.7800 12.2434 -0.5680
36.8000 12.2501 -0.5688
36.8200 12.2568 -0.5663
36.8400 12.2634 -0.5704
36.8600 12.2701 -0.5671
36.8800 12.2767 -0.5679
36.9000 12.2833 -0.5743
36.9200 12.2900 -0.5648
36.9400 12.2966 -0.5707
36.9600 12.3034 -0.5748
36.9800 12.3100 -0.5706
37.0000 12.3167 -0.5738
37.0200 12.3234 -0.5785
37.0400 12.3301 -0.5649
37.0600 12.3367 -0.5717
37.0800 12.3433 -0.5780
37.1000 12.3499 -0.5652
37.1200 12.3566 -0.5728
37.1400 12.3633 -0.5791
37.1600 12.3701 -0.5646
37.1800 12.3767 -0.5798
37.2000 12.3834 -0.5760
37.2200 12.3901 -0.5683
37.2400 12.3967 -0.5798
37.2600 12.4033 -0.5830
37.2800 12.4100 -0.5644
37.3000 12.4167 -0.5784
37.3200 12.4234 -0.5840
37.3400 12.4301 -0.5693
37.3600 12.4367 -0.5808
37.3800 12.4434 -0.5793
37.4000 12.4501 -0.5728
37.4200 12.4568 -0.5854
37.4400 12.4634 -0.5759
37.4600 12.4700 -0.5773
37.4800 12.4767 -0.5824
37.5000 12.4834 -0.5809
37.5200 12.4901 -0.5809
37.5400 12.4968 -0.5806
37.5600 12.5035 -0.5773
37.5800 12.5101 -0.5830
37.6000 12.5168 -0.5854
37.6200 12.5234 -0.5775
37.6400 12.5300 -0.5841
37.6600 12.5366 -0.5825
37.6800 12.5434 -0.5797
37.7000 12.5501 -0.5864
37.7200 12.5568 -0.5856
37.7400 12.5634 -0.5820
37.7600 12.5701 -0.5877
37.7800 12.5767 -0.5847
37.8000 12.5833 -0.5854
37.8200 12.5899 -0.5836
37.8400 12.5966 -0.5856
37.8600 12.6033 -0.5879
37.8800 12.6100 -0.5845
37.9000 12.6167 -0.5870
37.9200 12.6234 -0.5855
37.9400 12.6301 -0.5861
37.9600 12.6367 -0.5878
37.9800 12.6433 -0.5913
38.0000 12.6500 -0.5865
38.0200 12.6566 -0.5870
38.0400 12.6634 -0.5934
38.0600 12.6701 -0.5847
38.0800 12.6768 -0.5891
38.1000 12.6835 -0.5928
38.1200 12.6901 -0.5828
38.1400 12.6968 -0.5943
38.1600 12.7034 -0.5894
38.1800 12.7100 -0.5800
38.2000 12.7166 -0.5929
38.2200 12.7233 -0.5954
38.2400 12.7300 -0.5794
38.2600 12.7368 -0.5992
38.2800 12.7435 -0.5910
38.3000 12.7502 -0.5880
38.3200 12.7568 -0.5965
38.3400 12.7634 -0.5946
38.3600 12.7700 -0.5868
38.3800 12.7767 -0.5933
38.4000 12.7834 -0.5916
38.4200 12.7901 -0.5918
38.4400 12.7967 -0.5999
38.4600 12.8034 -0.5936
38.4800 12.8101 -0.5941
38.5000 12.8168 -0.5943
38.5200 12.8234 -0.5949
38.5400 12.8300 -0.5963
38.5600 12.8366 -0.5899
38.5800 12.8433 -0.5947
38.6000 12.8500 -0.6010
38.6200 12.8567 -0.5948
38.6400 12.8634 -0.6005
38.6600 12.8700 -0.5945
38.6800 12.8767 -0.5971
38.7000 12.8833 -0.6031
38.7200 12.8900 -0.5927
38.7400 12.8966 -0.5917
38.7600 12.9034 -0.6095
38.7800 12.9101 -0.5938
38.8000 12.9168 -0.5943
38.8200 12.9235 -0.6068
38.8400 12.9301 -0.5971
38.8600 12.9368 -0.5954
38.8800 12.9434 -0.6066
38.9000 12.9500 -0.5936
38.9200 12.9567 -0.5999
38.9400 12.9634 -0.6057
38.9600 12.9701 -0.5983
38.9800 12.9768 -0.6054
39.0000 12.9834 -0.6070
39.0200 12.9901 -0.5912
39.0400 12.9967 -0.6032
39.0600 13.0033 -0.6102
39.0800 13.0100 -0.5955
39.1000 13.0166 -0.6061
39.1200 13.0234 -0.6040
39.1400 13.0301 -0.5956
39.1600 13.0367 -0.6062
39.1800 13.0434 -0.6075
39.2000 13.0501 -0.5979
39.2200 13.0568 -0.6072
39.2400 13.0634 -0.6047
39.2600 13.0700 -0.6005
39.2800 13.0766 -0.6048
39.3000 13.0833 -0.6105
39.3200 13.0901 -0.6023
39.3400 13.0967 -0.6061
39.3600 13.1034 -0.6061
39.3800 13.1101 -0.6096
39.4000 13.1168 -0.6066
39.4200 13.1234 -0.6037
39.4400 13.1300 -0.6066
39.4600 13.1367 -0.6051
39.4800 13.1434 -0.6126
39.5000 13.1501 -0.6083
39.5200 13.1568 -0.6012
39.5400 13.1634 -0.6129
39.5600 13.1701 -0.6079
39.5800 13.1768 -0.5989
39.6000 13.1834 -0.6112
39.6200 13.1900 -0.6135
39.6400 13.1966 -0.6029
39.6600 13.2033 -0.6105
39.6800 13.2101 -0.6133
39.7000 13.2168 -0.6058
39.7200 13.2234 -0.6167
39.7400 13.2301 -0.6069
39.7600 13.2368 -0.6082
39.7800 13.2434 -0.6128
39.8000 13.2500 -0.6090
39.8200 13.2566 -0.6059
39.8400 13.2633 -0.6183
39.8600 13.2700 -0.6125
39.8800 13.2767 -0.6083
39.9000 13.2834 -0.6130
39.9200 13.2901 -0.6113
39.9400 13.2968 -0.6087
39.9600 13.3034 -0.6148
39.9800 13.3100 -0.6123
40.0000 13.3166 -0.6113
40.0200 13.3233 -0.6129
40.0400 13.3300 -0.6131
40.0600 13.3367 -0.6117
40.0800 13.3434 -0.6120
40.1000 13.3500 -0.6161
40.1200 13.3567 -0.6155
40.1400 13.3634 -0.6159
40.1600 13.3700 -0.6173
40.1800 13.3766 -0.6134
40.2000 13.3833 -0.6138
40.2200 13.3901 -0.6207
40.2400 13.3968 -0.6096
40.2600 13.4035 -0.6193
40.2800 13.4102 -0.6196
40.3000 13.4168 -0.6112
40.3200 13.4234 -0.6232
40.3400 13.4300 -0.6174
40.3600 13.4366 -0.6106
40.3800 13.4433 -0.6242
40.4000 13.4501 -0.6147
40.4200 13.4568 -0.6132
40.4400 13.4635 -0.6263
40.4600 13.4701 -0.6168
40.4800 13.4768 -0.6120
40.5000 13.4834 -0.6271
40.5200 13.4900 -0.6110
40.5400 13.4966 -0.6152
40.5600 13.5033 -0.6306
40.5800 13.5100 -0.6156
40.6000 13.5167 -0.6216
40.6200 13.5233 -0.6236
40.6400 13.5300 -0.6157
40.6600 13.5367 -0.6227
40.6800 13.5433 -0.6250
40.7000 13.5500 -0.6187
40.7200 13.5566 -0.6254
40.7400 13.5633 -0.6239
40.7600 13.5701 -0.6211
40.7800 13.5768 -0.6235
40.8000 13.5834 -0.6185
40.8200 13.5901 -0.6243
40.8400 13.5968 -0.6283
40.8600 13.6034 -0.6163
40.8800 13.6100 -0.6251
40.9000 13.6166 -0.6262
40.9200 13.6233 -0.6200
40.9400 13.6301 -0.6250
40.9600 13.6368 -0.6288
40.9800 13.6434 -0.6204
41.0000 13.6501 -0.6261
41.0200 13.6568 -0.6236
41.0400 13.6634 -0.6259
41.0600 13.6701 -0.6302
41.0800 13.6767 -0.6211
41.1000 13.6834 -0.6228
41.1200 13.6901 -0.6298
41.1400 13.6967 -0.6230
41.1600 13.7034 -0.6233
41.1800 13.7101 -0.6262
41.2000 13.7168 -0.6242
41.2200 13.7234 -0.6325
41.2400 13.7300 -0.6277
41.2600 13.7366 -0.6262
41.2800 13.7433 -0.6285
41.3000 13.7500 -0.6262
41.3200 13.7567 -0.6276
41.3400 13.7634 -0.6305
41.3600 13.7701 -0.6207
41.3800 13.7767 -0.6343
41.4000 13.7833 -0.6293
41.4200 13.7899 -0.6216
41.4400 13.7965 -0.6333
41.4600 13.8032 -0.6312
41.4800 13.8100 -0.6234
41.5000 13.8167 -0.6387
41.5200 13.8234 -0.6263
41.5400 13.8301 -0.6290
41.5600 13.8368 -0.6353
41.5800 13.8435 -0.6285
41.6000 13.8501 -0.6301
41.6200 13.8567 -0.6380
41.6400 13.8633 -0.6294
41.6600 13.8700 -0.6260
41.6800 13.8767 -0.6407
41.7000 13.8834 -0.6318
41.7200 13.8901 -0.6268
41.7400 13.8968 -0.6373
41.7600 13.9034 -0.6343
41.7800 13.9100 -0.6331
41.8000 13.9166 -0.6357
41.8200 13.9233 -0.6269
41.8400 13.9300 -0.6402
41.8600 13.9368 -0.6369
41.8800 13.9434 -0.6300
41.9000 13.9501 -0.6353
41.9200 13.9568 -0.6384
41.9400 13.9634 -0.6317
41.9600 13.9700 -0.6340
41.9800 13.9767 -0.6361
42.0000 13.9834 -0.6353
42.0200 13.9901 -0.6365
42.0400 13.9967 -0.6393
42.0600 14.0034 -0.6390
42.0800 14.0101 -0.6362
42.1000 14.0168 -0.6406
42.1200 14.0234 -0.6414
42.1400 14.0300 -0.6339
42.1600 14.0366 -0.6427
42.1800 14.0433 -0.6411
42.2000 14.0500 -0.6344
42.2200 14.0567 -0.6460
42.2400 14.0633 -0.6389
42.2600 14.0700 -0.6364
42.2800 14.0767 -0.6463
42.3000 14.0834 -0.6442
42.3200 14.0900 -0.6383
42.3400 14.0967 -0.6485
42.3600 14.1034 -0.6380
42.3800 14.1101 -0.6394
42.4000 14.1168 -0.6520
42.4200 14.1235 -0.6392
42.4400 14.1301 -0.6402
42.4600 14.1368 -0.6522
42.4800 14.1434 -0.6431
42.5000 14.1501 -0.6445
42.5200 14.1567 -0.6441
42.5400 14.1634 -0.6411
42.5600 14.1701 -0.6482
42.5800 14.1768 -0.6549
42.6000 14.1834 -0.6355
42.6200 14.1901 -0.6486
42.6400 14.1968 -0.6558
42.6600 14.2034 -0.6359
42.6800 14.2100 -0.6462
42.7000 14.2166 -0.6587
42.7200 14.2233 -0.6422
42.7400 14.2300 -0.6413
42.7600 14.2367 -0.6580
42.7800 14.2434 -0.6465
42.8000 14.2501 -0.6444
42.8200 14.2568 -0.6598
42.8400 14.2634 -0.6486
42.8600 14.2700 -0.6422
42.8800 14.2766 -0.6560
42.9000 14.2833 -0.6472
42.9200 14.2900 -0.6474
42.9400 14.2967 -0.6550
42.9600 14.3034 -0.6510
42.9800 14.3101 -0.6437
43.0000 14.3167 -0.6601
43.0200 14.3234 -0.6440
43.0400 14.3300 -0.6522
43.0600 14.3366 -0.6629
43.0800 14.3433 -0.6427
43.1000 14.3500 -0.6511
43.1200 14.3568 -0.6667
43.1400 14.3634 -0.6389
43.1600 14.3701 -0.6528
43.1800 14.3768 -0.6708
43.2000 14.3835 -0.6401
43.2200 14.3901 -0.6520
43.2400 14.3967 -0.6678
43.2600 14.4033 -0.6434
43.2800 14.4100 -0.6542
43.3000 14.4167 -0.6664
43.3200 14.4234 -0.6403
43.3400 14.4301 -0.6603
43.3600 14.4368 -0.6616
43.3800 14.4435 -0.6451
43.4000 14.4501 -0.6596
43.4200 14.4567 -0.6609
43.4400 14.4633 -0.6456
43.4600 14.4700 -0.6662
43.4800 14.4767 -0.6538
43.5000 14.4834 -0.6544
43.5200 14.4901 -0.6662
43.5400 14.4967 -0.6536
43.5600 14.5034 -0.6564
43.5800 14.5100 -0.6643
43.6000 14.5166 -0.6527
43.6200 14.5233 -0.6606
43.6400 14.5300 -0.6620
43.6600 14.5367 -0.6537
43.6800 14.5433 -0.6624
43.7000 14.5500 -0.6584
43.7200 14.5567 -0.6572
43.7400 14.5634 -0.6610
43.7600 14.5700 -0.6579
43.7800 14.5767 -0.6564
43.8000 14.5833 -0.6630
43.8200 14.5900 -0.6582
43.8400 14.5967 -0.6596
43.8600 14.6034 -0.6623
43.8800 14.6101 -0.6589
43.9000 14.6168 -0.6652
43.9200 14.6235 -0.6651
43.9400 14.6301 -0.6571
43.9600 14.6367 -0.6671
43.9800 14.6433 -0.6600
44.0000 14.6501 -0.6597
44.0200 14.6568 -0.6689
44.0400 14.6635 -0.6598
44.0600 14.6701 -0.6563
44.0800 14.6768 -0.6717
44.1000 14.6834 -0.6596
44.1200 14.6900 -0.6641
44.1400 14.6967 -0.6625
44.1600 14.7033 -0.6588
44.1800 14.7100 -0.6655
44.2000 14.7167 -0.6674
44.2200 14.7234 -0.6606
44.2400 14.7301 -0.6572
44.2600 14.7368 -0.6674
44.2800 14.7434 -0.6671
44.3000 14.7501 -0.6641
44.3200 14.7566 -0.6632
44.3400 14.7632 -0.6631
44.3600 14.7699 -0.6659
44.3800 14.7767 -0.6661
44.4000 14.7834 -0.6609
44.4200 14.7900 -0.6696
44.4400 14.7967 -0.6656
44.4600 14.8034 -0.6615
44.4800 14.8100 -0.6636
44.5000 14.8166 -0.6664
44.5200 14.8233 -0.6678
44.5400 14.8300 -0.6687
44.5600 14.8367 -0.6613
44.5800 14.8434 -0.6680
44.6000 14.8501 -0.6708
44.6200 14.8568 -0.6664
44.6400 14.8634 -0.6671
44.6600 14.8701 -0.6675
44.6800 14.8767 -0.6653
44.7000 14.8833 -0.6679
44.7200 14.8901 -0.6638
44.7400 14.8968 -0.6714
44.7600 14.9035 -0.6767
44.7800 14.9101 -0.6644
44.8000 14.9168 -0.6690
44.8200 14.9235 -0.6790
44.8400 14.9301 -0.6666
44.8600 14.9367 -0.6673
44.8800 14.9433 -0.6756
44.9000 14.9500 -0.6617
44.9200 14.9567 -0.6724
44.9400 14.9634 -0.6781
44.9600 14.9701 -0.6656
44.9800 14.9767 -0.6739
45.0000 14.9834 -0.6837
45.0200 14.9900 -0.6663
45.0400 14.9966 -0.6702
45.0600 15.0033 -0.6795
45.0800 15.0100 -0.6766
45.1000 15.0167 -0.6686
45.1200 15.0234 -0.6799
45.1400 15.0301 -0.6780
45.1600 15.0367 -0.6761
45.1800 15.0434 -0.6761
45.2000 15.0501 -0.6826
45.2200 15.0567 -0.6774
45.2400 15.0634 -0.6783
45.2600 15.0700 -0.6833
45.2800 15.0767 -0.6740
45.3000 15.0834 -0.6837
45.3200 15.0901 -0.6867
45.3400 15.0968 -0.6724
45.3600 15.1035 -0.6843
45.3800 15.1101 -0.6906
45.4000 15.1167 -0.6779
45.4200 15.1233 -0.6823
45.4400 15.1300 -0.6820
45.4600 15.1367 -0.6810
45.4800 15.1434 -0.6879
45.5000 15.1501 -0.6809
45.5200 15.1568 -0.6807
45.5400 15.1634 -0.6896
45.5600 15.1701 -0.6820
45.5800 15.1767 -0.6814
45.6000 15.1833 -0.6859
45.6200 15.1900 -0.6846
45.6400 15.1968 -0.6837
45.6600 15.2034 -0.6865
45.6800 15.2101 -0.6793
45.7000 15.2167 -0.6921
45.7200 15.2234 -0.6903
45.7400 15.2301 -0.6808
45.7600 15.2367 -0.6855
45.7800 15.2433 -0.6926
45.8000 15.2500 -0.6846
45.8200 15.2567 -0.6856
45.8400 15.2633 -0.6906
45.8600 15.2700 -0.6830
45.8800 15.2767 -0.6890
45.9000 15.2834 -0.6887
45.9200 15.2901 -0.6935
45.9400 15.2967 -0.6903
45.9600 15.3033 -0.6868
45.9800 15.3100 -0.6843
46.0000 15.3167 -0.6958
46.0200 15.3234 -0.6953
46.0400 15.3301 -0.6899
46.0600 15.3368 -0.6891
46.0800 15.3434 -0.6907
46.1000 15.3501 -0.6936
46.1200 15.3567 -0.6881
46.1400 15.3633 -0.6850
46.1600 15.3700 -0.6999
46.1800 15.3768 -0.6868
46.2000 15.3835 -0.6899
46.2200 15.3901 -0.7013
46.2400 15.3968 -0.6871
46.2600 15.4034 -0.6935
46.2800 15.4101 -0.7003
46.3000 15.4167 -0.6865
46.3200 15.4233 -0.6929
46.3400 15.4300 -0.7024
46.3600 15.4367 -0.6834
46.3800 15.4434 -0.6951
46.4000 15.4501 -0.7051
46.4200 15.4568 -0.6844
46.4400 15.4634 -0.7011
46.4600 15.4701 -0.7022
46.4800 15.4766 -0.6834
46.5000 15.4833 -0.7044
46.5200 15.4899 -0.6985
46.5400 15.4967 -0.6863
46.5600 15.5034 -0.7054
46.5800 15.5100 -0.6993
46.6000 15.5167 -0.6843
46.6200 15.5234 -0.7104
46.6400 15.5300 -0.6948
46.6600 15.5367 -0.6882
46.6800 15.5433 -0.7115
46.7000 15.5500 -0.7009
46.7200 15.5567 -0.6861
46.7400 15.5634 -0.7119
46.7600 15.5701 -0.7004
46.7800 15.5768 -0.6908
46.8000 15.5835 -0.7078
46.8200 15.5901 -0.7017
46.8400 15.5967 -0.6928
46.8600 15.6033 -0.7037
46.8800 15.6100 -0.7049
46.9000 15.6167 -0.6915
46.9200 15.6234 -0.7046
46.9400 15.6301 -0.7117
46.9600 15.6368 -0.6946
46.9800 15.6434 -0.6930
47.0000 15.6501 -0.7164
47.0200 15.6567 -0.6992
47.0400 15.6633 -0.6943
47.0600 15.6700 -0.7151
47.0800 15.6767 -0.6976
47.1000 15.6834 -0.6980
47.1200 15.6901 -0.7223
47.1400 15.6967 -0.6917
47.1600 15.7034 -0.6999
47.1800 15.7101 -0.7204
47.2000 15.7167 -0.6946
47.2200 15.7233 -0.7017
47.2400 15.7300 -0.7225
47.2600 15.7367 -0.6951
47.2800 15.7434 -0.7067
47.3000 15.7500 -0.7202
47.3200 15.7567 -0.6955
47.3400 15.7634 -0.7085
47.3600 15.7701 -0.7196
47.3800 15.7767 -0.6936
47.4000 15.7833 -0.7098
47.4200 15.7900 -0.7192
47.4400 15.7967 -0.6974
47.4600 15.8034 -0.7097
47.4800 15.8101 -0.7151
47.5000 15.8168 -0.6979
47.5200 15.8235 -0.7100
47.5400 15.8301 -0.7214
47.5600 15.8367 -0.6981
47.5800 15.8433 -0.7091
47.6000 15.8500 -0.7173
47.6200 15.8567 -0.7008
47.6400 15.8634 -0.7121
47.6600 15.8701 -0.7190
47.6800 15.8768 -0.7037
47.7000 15.8835 -0.7132
47.7200 15.8901 -0.7174
47.7400 15.8967 -0.7056
47.7600 15.9033 -0.7150
47.7800 15.9100 -0.7184
47.8000 15.9167 -0.7007
47.8200 15.9234 -0.7115
47.8400 15.9301 -0.7186
47.8600 15.9367 -0.7045
47.8800 15.9434 -0.7135
47.9000 15.9501 -0.7203
47.9200 15.9567 -0.7041
47.9400 15.9633 -0.7127
47.9600 15.9700 -0.7186
47.9800 15.9767 -0.7072
48.0000 15.9834 -0.7111
48.0200 15.9901 -0.7127
48.0400 15.9968 -0.7080
48.0600 16.0034 -0.7095
48.0800 16.0101 -0.7185
48.1000 16.0167 -0.7073
48.1200 16.0233 -0.7127
48.1400 16.0300 -0.7149
48.1600 16.0367 -0.7135
48.1800 16.0434 -0.7142
48.2000 16.0501 -0.7190
48.2200 16.0568 -0.7101
48.2400 16.0635 -0.7121
48.2600 16.0701 -0.7221
48.2800 16.0767 -0.7150
48.3000 16.0833 -0.7035
48.3200 16.0900 -0.7233
48.3400 16.0967 -0.7119
48.3600 16.1034 -0.7036
48.3800 16.1101 -0.7301
48.4000 16.1168 -0.7170
48.4200 16.1235 -0.7033
48.4400 16.1301 -0.7261
48.4600 16.1367 -0.7230
48.4800 16.1433 -0.7063
48.5000 16.1499 -0.7271
48.5200 16.1566 -0.7137
48.5400 16.1634 -0.7120
48.5600 16.1701 -0.7300
48.5800 16.1767 -0.7087
48.6000 16.1834 -0.7148
48.6200 16.1901 -0.7353
48.6400 16.1967 -0.7031
48.6600 16.2033 -0.7108
48.6800 16.2099 -0.7316
48.7000 16.2166 -0.7165
48.7200 16.2234 -0.7140
48.7400 16.2300 -0.7367
48.7600 16.2367 -0.7113
48.7800 16.2434 -0.7144
48.8000 16.2501 -0.7336
48.8200 16.2567 -0.7166
48.8400 16.2633 -0.7196
48.8600 16.2700 -0.7325
48.8800 16.2767 -0.7177
48.9000 16.2834 -0.7174
48.9200 16.2901 -0.7337
48.9400 16.2968 -0.7209
48.9600 16.3035 -0.7197
48.9800 16.3101 -0.7308
49.0000 16.3167 -0.7178
49.0200 16.3233 -0.7258
49.0400 16.3300 -0.7339
49.0600 16.3367 -0.7208
49.0800 16.3434 -0.7288
49.1000 16.3501 -0.7374
49.1200 16.3568 -0.7212
49.1400 16.3634 -0.7236
49.1600 16.3701 -0.7379
49.1800 16.3767 -0.7226
49.2000 16.3833 -0.7270
49.2200 16.3900 -0.7298
49.2400 16.3967 -0.7295
49.2600 16.4034 -0.7335
49.2800 16.4100 -0.7339
49.3000 16.4167 -0.7296
49.3200 16.4234 -0.7330
49.3400 16.4300 -0.7327
49.3600 16.4367 -0.7384
49.3800 16.4433 -0.7340
49.4000 16.4499 -0.7310
49.4200 16.4566 -0.7390
49.4400 16.4634 -0.7365
49.4600 16.4700 -0.7324
49.4800 16.4767 -0.7377
49.5000 16.4834 -0.7377
49.5200 16.4901 -0.7334
49.5400 16.4967 -0.7398
49.5600 16.5033 -0.7323
49.5800 16.5100 -0.7340
49.6000 16.5167 -0.7410
49.6200 16.5234 -0.7362
49.6400 16.5301 -0.7342
49.6600 16.5368 -0.7453
49.6800 16.5435 -0.7354
49.7000 16.5501 -0.7426
49.7200 16.5567 -0.7424
49.7400 16.5633 -0.7374
49.7600 16.5700 -0.7424
49.7800 16.5767 -0.7434
49.8000 16.5834 -0.7373
49.8200 16.5901 -0.7438
49.8400 16.5968 -0.7460
49.8600 16.6034 -0.7329
49.8800 16.6101 -0.7436
49.9000 16.6168 -0.7505
49.9200 16.6234 -0.7386
49.9400 16.6300 -0.7446
49.9600 16.6367 -0.7446
49.9800 16.6434 -0.7371
50.0000 16.6501 -0.7465
50.0200 16.6568 -0.7497
50.0400 16.6634 -0.7380
50.0600 16.6701 -0.7463
50.0800 16.6767 -0.7563
50.1000 16.6833 -0.7331
50.1200 16.6899 -0.7480
50.1400 16.6966 -0.7555
50.1600 16.7033 -0.7377
50.1800 16.7100 -0.7462
50.2000 16.7167 -0.7546
50.2200 16.7234 -0.7357
50.2400 16.7301 -0.7540
50.2600 16.7367 -0.7516
50.2800 16.7433 -0.7420
50.3000 16.7500 -0.7502
50.3200 16.7567 -0.7496
50.3400 16.7634 -0.7412
50.3600 16.7701 -0.7576
50.3800 16.7767 -0.7513
50.4000 16.7834 -0.7444
50.4200 16.7901 -0.7533
50.4400 16.7967 -0.7506
50.4600 16.8034 -0.7484
50.4800 16.8100 -0.7532
50.5000 16.8167 -0.7554
50.5200 16.8234 -0.7500
50.5400 16.8301 -0.7504
50.5600 16.8368 -0.7508
50.5800 16.8435 -0.7545
50.6000 16.8501 -0.7553
50.6200 16.8568 -0.7579
50.6400 16.8633 -0.7517
50.6600 16.8700 -0.7465
50.6800 16.8767 -0.7553
50.7000 16.8834 -0.7586
50.7200 16.8901 -0.7515
50.7400 16.8968 -0.7595
50.7600 16.9034 -0.7592
50.7800 16.9101 -0.7504
50.8000 16.9167 -0.7543
50.8200 16.9233 -0.7621
50.8400 16.9300 -0.7493
50.8600 16.9366 -0.7567
50.8800 16.9433 -0.7639
50.9000 16.9500 -0.7527
50.9200 16.9567 -0.7612
50.9400 16.9634 -0.7617
50.9600 16.9701 -0.7510
50.9800 16.9767 -0.7645
51.0000 16.9833 -0.7645
51.0200 16.9900 -0.7503
51.0400 16.9966 -0.7666
51.0600 17.0034 -0.7666
51.0800 17.0101 -0.7517
51.1000 17.0168 -0.7680
51.1200 17.0235 -0.7667
51.1400 17.0301 -0.7527
51.1600 17.0368 -0.7701
51.1800 17.0434 -0.7621
51.2000 17.0500 -0.7613
51.2200 17.0567 -0.7696
51.2400 17.0634 -0.7688
51.2600 17.0701 -0.7584
51.2800 17.0768 -0.7744
51.3000 17.0834 -0.7658
51.3200 17.0901 -0.7625
51.3400 17.0967 -0.7770
51.3600 17.1034 -0.7663
51.3800 17.1100 -0.7628
51.4000 17.1166 -0.7795
51.4200 17.1233 -0.7681
51.4400 17.1300 -0.7622
51.4600 17.1367 -0.7823
51.4800 17.1434 -0.7682
51.5000 17.1501 -0.7641
51.5200 17.1567 -0.7843
51.5400 17.1634 -0.7703
51.5600 17.1700 -0.7628
51.5800 17.1766 -0.7792
51.6000 17.1834 -0.7694
51.6200 17.1901 -0.7748
51.6400 17.1968 -0.7859
51.6600 17.2034 -0.7698
51.6800 17.2101 -0.7697
51.7000 17.2167 -0.7865
51.7200 17.2233 -0.7696
51.7400 17.2300 -0.7753
51.7600 17.2367 -0.7806
51.7800 17.2434 -0.7768
51.8000 17.2501 -0.7731
51.8200 17.2567 -0.7849
51.8400 17.2634 -0.7786
51.8600 17.2701 -0.7747
51.8800 17.2768 -0.7861
51.9000 17.2834 -0.7771
51.9200 17.2900 -0.7759
51.9400 17.2967 -0.7862
51.9600 17.3034 -0.7788
51.9800 17.3101 -0.7755
52.0000 17.3168 -0.7876
52.0200 17.3235 -0.7818
52.0400 17.3301 -0.7785
52.0600 17.3368 -0.7895
52.0800 17.3434 -0.7809
52.1000 17.3500 -0.7788
52.1200 17.3566 -0.7882
52.1400 17.3633 -0.7806
52.1600 17.3701 -0.7822
52.1800 17.3767 -0.7865
52.2000 17.3834 -0.7840
52.2200 17.3901 -0.7777
52.2400 17.3967 -0.7910
52.2600 17.4033 -0.7834
52.2800 17.4099 -0.7762
52.3000 17.4166 -0.7841
52.3200 17.4234 -0.7886
52.3400 17.4301 -0.7810
52.3600 17.4367 -0.7925
52.3800 17.4434 -0.7869
52.4000 17.4501 -0.7760
52.4200 17.4567 -0.7869
52.4400 17.4634 -0.7942
52.4600 17.4700 -0.7755
52.4800 17.4767 -0.7917
52.5000 17.4834 -0.7949
52.5200 17.4901 -0.7743
52.5400 17.4968 -0.7924
52.5600 17.5034 -0.7977
52.5800 17.5101 -0.7770
52.6000 17.5168 -0.7938
52.6200 17.5234 -0.7936
52.6400 17.5300 -0.7808
52.6600 17.5367 -0.7986
52.6800 17.5434 -0.7907
52.7000 17.5501 -0.7856
52.7200 17.5568 -0.7986
52.7400 17.5634 -0.7955
52.7600 17.5701 -0.7884
52.7800 17.5768 -0.7952
52.8000 17.5834 -0.7917
52.8200 17.5900 -0.7878
52.8400 17.5967 -0.7961
52.8600 17.6034 -0.7976
52.8800 17.6101 -0.7906
52.9000 17.6167 -0.7974
52.9200 17.6234 -0.7912
52.9400 17.6301 -0.7958
52.9600 17.6368 -0.8015
52.9800 17.6434 -0.8014
53.0000 17.6500 -0.7969
53.0200 17.6566 -0.8006
53.0400 17.6633 -0.7980
53.0600 17.6700 -0.7943
53.0800 17.6767 -0.8025
53.1000 17.6834 -0.8054
53.1200 17.6900 -0.7959
53.1400 17.6967 -0.8014
53.1600 17.7034 -0.8022
53.1800 17.7100 -0.7950
53.2000 17.7167 -0.8055
53.2200 17.7234 -0.8047
53.2400 17.7301 -0.8012
53.2600 17.7368 -0.8005
53.2800 17.7435 -0.8082
53.3000 17.7501 -0.8043
53.3200 17.7568 -0.8076
53.3400 17.7634 -0.8014
53.3600 17.7700 -0.8022
53.3800 17.7767 -0.8041
53.4000 17.7834 -0.8053
53.4200 17.7901 -0.8090
53.4400 17.7968 -0.8068
53.4600 17.8035 -0.8031
53.4800 17.8101 -0.8118
53.5000 17.8168 -0.8101
53.5200 17.8234 -0.8068
53.5400 17.8300 -0.8108
53.5600 17.8366 -0.8048
53.5800 17.8433 -0.8065
53.6000 17.8500 -0.8177
53.6200 17.8567 -0.8076
53.6400 17.8634 -0.8075
53.6600 17.8701 -0.8200
53.6800 17.8768 -0.8054
53.7000 17.8834 -0.8098
53.7200 17.8900 -0.8222
53.7400 17.8966 -0.8100
53.7600 17.9033 -0.8109
53.7800 17.9100 -0.8190
53.8000 17.9167 -0.8069
53.8200 17.9234 -0.8166
53.8400 17.9301 -0.8194
53.8600 17.9367 -0.8108
53.8800 17.9434 -0.8190
53.9000 17.9500 -0.8213
53.9200 17.9567 -0.8031
53.9400 17.9634 -0.8203
53.9600 17.9701 -0.8250
53.9800 17.9767 -0.8107
54.0000 17.9834 -0.8170
54.0200 17.9901 -0.8245
54.0400 17.9968 -0.8142
54.0600 18.0034 -0.8255
54.0800 18.0100 -0.8226
54.1000 18.0166 -0.8086
54.1200 18.0233 -0.8252
54.1400 18.0300 -0.8294
54.1600 18.0367 -0.8201
54.1800 18.0434 -0.8307
54.2000 18.0501 -0.8213
54.2200 18.0568 -0.8185
54.2400 18.0634 -0.8358
54.2600 18.0700 -0.8289
54.2800 18.0767 -0.8228
54.3000 18.0834 -0.8260
54.3200 18.0901 -0.8333
54.3400 18.0968 -0.8251
54.3600 18.1034 -0.8308
54.3800 18.1101 -0.8325
54.4000 18.1168 -0.8247
54.4200 18.1234 -0.8288
54.4400 18.1300 -0.8413
54.4600 18.1366 -0.8230
54.4800 18.1433 -0.8261
54.5000 18.1500 -0.8443
54.5200 18.1567 -0.8291
54.5400 18.1634 -0.8254
54.5600 18.1701 -0.8418
54.5800 18.1767 -0.8249
54.6000 18.1834 -0.8333
54.6200 18.1900 -0.8482
54.6400 18.1966 -0.8266
54.6600 18.2033 -0.8281
54.6800 18.2100 -0.8443
54.7000 18.2168 -0.8295
54.7200 18.2235 -0.8342
54.7400 18.2302 -0.8512
54.7600 18.2368 -0.8238
54.7800 18.2434 -0.8284
54.8000 18.2500 -0.8500
54.8200 18.2567 -0.8301
54.8400 18.2634 -0.8291
54.8600 18.2701 -0.8524
54.8800 18.2768 -0.8226
54.9000 18.2835 -0.8324
54.9200 18.2901 -0.8555
54.9400 18.2968 -0.8301
54.9600 18.3034 -0.8270
54.9800 18.3100 -0.8492
55.0000 18.3166 -0.8321
55.0200 18.3233 -0.8361
55.0400 18.3300 -0.8507
55.0600 18.3367 -0.8215
55.0800 18.3434 -0.8300
55.1000 18.3501 -0.8645
55.1200 18.3568 -0.8315
55.1400 18.3634 -0.8251
55.1600 18.3700 -0.8558
55.1800 18.3766 -0.8349
55.2000 18.3833 -0.8312
55.2200 18.3900 -0.8525
55.2400 18.3967 -0.8340
55.2600 18.4034 -0.8382
55.2800 18.4101 -0.8638
55.3000 18.4167 -0.8236
55.3200 18.4234 -0.8357
55.3400 18.4300 -0.8629
55.3600 18.4366 -0.8319
55.3800 18.4433 -0.8404
55.4000 18.4501 -0.8583
55.4200 18.4568 -0.8195
55.4400 18.4634 -0.8419
55.4600 18.4701 -0.8701
55.4800 18.4768 -0.8349
55.5000 18.4835 -0.8431
55.5200 18.4901 -0.8544
55.5400 18.4967 -0.8256
55.5600 18.5034 -0.8537
55.5800 18.5101 -0.8729
55.6000 18.5167 -0.8374
55.6200 18.5234 -0.8287
55.6400 18.5301 -0.8552
55.6600 18.5368 -0.8552
55.6800 18.5434 -0.8581
55.7000 18.5500 -0.8531
55.7200 18.5566 -0.8356
55.7400 18.5633 -0.8522
55.7600 18.5700 -0.8639
55.7800 18.5767 -0.8557
55.8000 18.5834 -0.8440
55.8200 18.5901 -0.8548
55.8400 18.5968 -0.8546
55.8600 18.6034 -0.8535
55.8800 18.6100 -0.8670
55.9000 18.6166 -0.8597
55.9200 18.6233 -0.8385
55.9400 18.6300 -0.8614
55.9600 18.6367 -0.8645
55.9800 18.6434 -0.8559
56.0000 18.6501 -0.8644
56.0200 18.6568 -0.8494
56.0400 18.6634 -0.8524
56.0600 18.6700 -0.8822
56.0800 18.6767 -0.8580
56.1000 18.6833 -0.8500
56.1200 18.6900 -0.8717
56.1400 18.6967 -0.8592
56.1600 18.7034 -0.8574
56.1800 18.7101 -0.8770
56.2000 18.7168 -0.8599
56.2200 18.7235 -0.8559
56.2400 18.7300 -0.8746
56.2600 18.7366 -0.8597
56.2800 18.7433 -0.8615
56.3000 18.7500 -0.8764
56.3200 18.7568 -0.8582
56.3400 18.7634 -0.8594
56.3600 18.7701 -0.8768
56.3800 18.7768 -0.8632
56.4000 18.7834 -0.8661
56.4200 18.7900 -0.8742
56.4400 18.7967 -0.8661
56.4600 18.8033 -0.8666
56.4800 18.8100 -0.8730
56.5000 18.8167 -0.8684
56.5200 18.8234 -0.8701
56.5400 18.8301 -0.8693
56.5600 18.8367 -0.8732
56.5800 18.8434 -0.8677
56.6000 18.8500 -0.8717
56.6200 18.8566 -0.8720
56.6400 18.8633 -0.8694
56.6600 18.8700 -0.8685
56.6800 18.8767 -0.8768
56.7000 18.8834 -0.8743
56.7200 18.8901 -0.8722
56.7400 18.8968 -0.8783
56.7600 18.9034 -0.8715
56.7800 18.9100 -0.8751
56.8000 18.9166 -0.8771
56.8200 18.9233 -0.8721
56.8400 18.9300 -0.8706
56.8600 18.9368 -0.8831
56.8800 18.9435 -0.8725
56.9000 18.9501 -0.8789
56.9200 18.9568 -0.8829
56.9400 18.9634 -0.8726
56.9600 18.9700 -0.8770
56.9800 18.9767 -0.8827
57.0000 18.9833 -0.8731
57.0200 18.9900 -0.8831
57.0400 18.9967 -0.8813
57.0600 19.0034 -0.8731
57.0800 19.0101 -0.8828
57.1000 19.0168 -0.8882
57.1200 19.0234 -0.8745
57.1400 19.0301 -0.8888
57.1600 19.0366 -0.8880
57.1800 19.0433 -0.8779
57.2000 19.0500 -0.8856
57.2200 19.0567 -0.8868
57.2400 19.0634 -0.8835
57.2600 19.0701 -0.8912
57.2800 19.0768 -0.8826
57.3000 19.0834 -0.8823
57.3200 19.0900 -0.8937
57.3400 19.0966 -0.8824
57.3600 19.1033 -0.8872
57.3800 19.1100 -0.8926
57.4000 19.1167 -0.8863
57.4200 19.1234 -0.8865
57.4400 19.1301 -0.8923
57.4600 19.1367 -0.8904
57.4800 19.1434 -0.8942
57.5000 19.1500 -0.8871
57.5200 19.1566 -0.8900
57.5400 19.1633 -0.8948
57.5600 19.1700 -0.8932
57.5800 19.1768 -0.8941
57.6000 19.1834 -0.8993
57.6200 19.1901 -0.8831
57.6400 19.1968 -0.9013
57.6600 19.2035 -0.9068
57.6800 19.2101 -0.8849
57.7000 19.2167 -0.9070
57.7200 19.2233 -0.9008
57.7400 19.2300 -0.8868
57.7600 19.2368 -0.9060
57.7800 19.2435 -0.8968
57.8000 19.2501 -0.8962
57.8200 19.2568 -0.9110
57.8400 19.2635 -0.8824
57.8600 19.2701 -0.8997
57.8800 19.2767 -0.9211
57.9000 19.2833 -0.8839
57.9200 19.2900 -0.8961
57.9400 19.2967 -0.9284
57.9600 19.3034 -0.8849
57.9800 19.3101 -0.8970
58.0000 19.3167 -0.9160
58.0200 19.3234 -0.8947
58.0400 19.3300 -0.9084
58.0600 19.3366 -0.9084
58.0800 19.3433 -0.8942
58.1000 19.3500 -0.9138
58.1200 19.3567 -0.9093
58.1400 19.3634 -0.9005
58.1600 19.3700 -0.9177
58.1800 19.3767 -0.9058
58.2000 19.3834 -0.9008
58.2200 19.3901 -0.9155
58.2400 19.3967 -0.9088
58.2600 19.4033 -0.9092
58.2800 19.4100 -0.9084
58.3000 19.4167 -0.9141
58.3200 19.4234 -0.9150
58.3400 19.4301 -0.9073
58.3600 19.4368 -0.9267
58.3800 19.4435 -0.9110
58.4000 19.4501 -0.9020
58.4200 19.4567 -0.9224
58.4400 19.4633 -0.9215
58.4600 19.4700 -0.9057
58.4800 19.4767 -0.9228
58.5000 19.4834 -0.9152
58.5200 19.4901 -0.9115
58.5400 19.4968 -0.9370
58.5600 19.5034 -0.9208
58.5800 19.5101 -0.9003
58.6000 19.5167 -0.9303
58.6200 19.5233 -0.9200
58.6400 19.5300 -0.9194
58.6600 19.5367 -0.9332
58.6800 19.5434 -0.9263
58.7000 19.5501 -0.9110
58.7200 19.5568 -0.9283
58.7400 19.5634 -0.9313
58.7600 19.5701 -0.9260
58.7800 19.5767 -0.9288
58.8000 19.5833 -0.9247
58.8200 19.5899 -0.9214
58.8400 19.5967 -0.9355
58.8600 19.6034 -0.9334
58.8800 19.6100 -0.9208
58.9000 19.6167 -0.9298
58.9200 19.6234 -0.9368
58.9400 19.6300 -0.9378
58.9600 19.6366 -0.9263
58.9800 19.6433 -0.9293
59.0000 19.6500 -0.9364
59.0200 19.6567 -0.9438
59.0400 19.6634 -0.9352
59.0600 19.6701 -0.9264
59.0800 19.6768 -0.9366
59.1000 19.6835 -0.9529
59.1200 19.6901 -0.9373
59.1400 19.6967 -0.9317
59.1600 19.7034 -0.9487
59.1800 19.7100 -0.9429
59.2000 19.7167 -0.9409
59.2200 19.7234 -0.9592
59.2400 19.7301 -0.9371
59.2600 19.7368 -0.9468
59.2800 19.7435 -0.9574
59.3000 19.7500 -0.9488
