Raw Data
Time Displacement Force
(s) (mm) (N)
0.0000 0.0000 0.3726
0.0200 0.0000 0.3841
0.0400 0.0009 0.3691
0.0600 0.0045 0.4196
0.0800 0.0101 0.3738
0.1000 0.0160 0.3366
0.1200 0.0219 0.4008
0.1400 0.0286 0.3858
0.1600 0.0358 0.3470
0.1800 0.0433 0.3880
0.2000 0.0505 0.3636
0.2200 0.0573 0.3457
0.2400 0.0640 0.3955
0.2600 0.0706 0.3611
0.2800 0.0773 0.3537
0.3000 0.0840 0.3925
0.3200 0.0907 0.3552
0.3400 0.0974 0.3694
0.3600 0.1041 0.3849
0.3800 0.1108 0.3499
0.4000 0.1175 0.3768
0.4200 0.1241 0.3798
0.4400 0.1307 0.3582
0.4600 0.1374 0.3820
0.4800 0.1441 0.3785
0.5000 0.1508 0.3586
0.5200 0.1575 0.3897
0.5400 0.1642 0.3738
0.5600 0.1709 0.3636
0.5800 0.1775 0.3894
0.6000 0.1841 0.3718
0.6200 0.1907 0.3762
0.6400 0.1974 0.3929
0.6600 0.2041 0.3708
0.6800 0.2108 0.3808
0.7000 0.2175 0.3919
0.7200 0.2242 0.3773
0.7400 0.2308 0.3886
0.7600 0.2375 0.3936
0.7800 0.2441 0.3805
0.8000 0.2507 0.3865
0.8200 0.2574 0.3935
0.8400 0.2641 0.3864
0.8600 0.2708 0.3910
0.8800 0.2774 0.3935
0.9000 0.2841 0.3900
0.9200 0.2908 0.3909
0.9400 0.2974 0.3937
0.9600 0.3040 0.3963
0.9800 0.3107 0.3960
1.0000 0.3174 0.3914
1.0200 0.3241 0.3949
1.0400 0.3308 0.3926
1.0600 0.3374 0.4022
1.0800 0.3441 0.3932
1.1000 0.3508 0.3867
1.1200 0.3574 0.4048
1.1400 0.3640 0.3988
1.1600 0.3707 0.3844
1.1800 0.3774 0.3985
1.2000 0.3841 0.4042
1.2200 0.3908 0.3857
1.2400 0.3975 0.3945
1.2600 0.4042 0.3992
1.2800 0.4109 0.3885
1.3000 0.4175 0.3967
1.3200 0.4241 0.3943
1.3400 0.4308 0.3842
1.3600 0.4375 0.3995
1.3800 0.4441 0.3898
1.4000 0.4508 0.3871
1.4200 0.4575 0.3962
1.4400 0.4642 0.3917
1.4600 0.4709 0.3872
1.4800 0.4775 0.3933
1.5000 0.4841 0.3907
1.5200 0.4907 0.3902
1.5400 0.4974 0.3923
1.5600 0.5041 0.3849
1.5800 0.5108 0.3869
1.6000 0.5175 0.3892
1.6200 0.5241 0.3910
1.6400 0.5308 0.3845
1.6600 0.5374 0.3889
1.6800 0.5440 0.3898
1.7000 0.5507 0.3832
1.7200 0.5574 0.3845
1.7400 0.5641 0.3908
1.7600 0.5708 0.3793
1.7800 0.5775 0.3864
1.8000 0.5841 0.3888
1.8200 0.5908 0.3760
1.8400 0.5974 0.3865
1.8600 0.6041 0.3875
1.8800 0.6107 0.3748
1.9000 0.6174 0.3894
1.9200 0.6241 0.3852
1.9400 0.6308 0.3735
1.9600 0.6375 0.3888
1.9800 0.6442 0.3839
2.0000 0.6509 0.3706
2.0200 0.6575 0.3844
2.0400 0.6641 0.3863
2.0600 0.6707 0.3685
2.0800 0.6774 0.3879
2.1000 0.6841 0.3817
2.1200 0.6908 0.3698
2.1400 0.6975 0.3838
2.1600 0.7042 0.3827
2.1800 0.7108 0.3698
2.2000 0.7175 0.3804
2.2200 0.7241 0.3768
2.2400 0.7307 0.3725
2.2600 0.7374 0.3817
2.2800 0.7441 0.3789
2.3000 0.7508 0.3676
2.3200 0.7575 0.3823
2.3400 0.7641 0.3747
2.3600 0.7708 0.3688
2.3800 0.7774 0.3733
2.4000 0.7841 0.3740
2.4200 0.7907 0.3713
2.4400 0.7974 0.3723
2.4600 0.8041 0.3736
2.4800 0.8108 0.3688
2.5000 0.8175 0.3756
2.5200 0.8242 0.3687
2.5400 0.8309 0.3673
2.5600 0.8375 0.3727
2.5800 0.8441 0.3722
2.6000 0.8507 0.3663
2.6200 0.8574 0.3703
2.6400 0.8641 0.3680
2.6600 0.8708 0.3631
2.6800 0.8775 0.3638
2.7000 0.8842 0.3693
2.7200 0.8908 0.3649
2.7400 0.8975 0.3694
2.7600 0.9041 0.3642
2.7800 0.9107 0.3615
2.8000 0.9174 0.3692
2.8200 0.9241 0.3663
2.8400 0.9308 0.3606
2.8600 0.9375 0.3677
2.8800 0.9442 0.3635
2.9000 0.9509 0.3594
2.9200 0.9575 0.3596
2.9400 0.9641 0.3625
2.9600 0.9707 0.3686
2.9800 0.9774 0.3599
3.0000 0.9841 0.3572
3.0200 0.9908 0.3689
3.0400 0.9975 0.3613
3.0600 1.0041 0.3550
3.0800 1.0108 0.3690
3.1000 1.0175 0.3585
3.1200 1.0241 0.3580
3.1400 1.0307 0.3641
3.1600 1.0373 0.3560
3.1800 1.0441 0.3590
3.2000 1.0508 0.3652
3.2200 1.0574 0.3528
3.2400 1.0641 0.3586
3.2600 1.0708 0.3591
3.2800 1.0775 0.3523
3.3000 1.0841 0.3637
3.3200 1.0907 0.3540
3.3400 1.0974 0.3574
3.3600 1.1041 0.3653
3.3800 1.1108 0.3530
3.4000 1.1175 0.3580
3.4200 1.1242 0.3626
3.4400 1.1309 0.3493
3.4600 1.1375 0.3578
3.4800 1.1441 0.3563
3.5000 1.1507 0.3519
3.5200 1.1574 0.3521
3.5400 1.1641 0.3601
3.5600 1.1708 0.3513
3.5800 1.1775 0.3577
3.6000 1.1842 0.3513
3.6200 1.1909 0.3503
3.6400 1.1975 0.3539
3.6600 1.2041 0.3532
3.6800 1.2107 0.3566
3.7000 1.2174 0.3513
3.7200 1.2241 0.3504
3.7400 1.2308 0.3582
3.7600 1.2375 0.3520
3.7800 1.2441 0.3451
3.8000 1.2508 0.3586
3.8200 1.2575 0.3533
3.8400 1.2641 0.3474
3.8600 1.2707 0.3618
3.8800 1.2774 0.3494
3.9000 1.2841 0.3459
3.9200 1.2908 0.3619
3.9400 1.2975 0.3421
3.9600 1.3041 0.3541
3.9800 1.3108 0.3608
4.0000 1.3175 0.3444
4.0200 1.3241 0.3502
4.0400 1.3307 0.3627
4.0600 1.3374 0.3406
4.0800 1.3441 0.3533
4.1000 1.3508 0.3576
4.1200 1.3575 0.3464
4.1400 1.3642 0.3536
4.1600 1.3708 0.3550
4.1800 1.3775 0.3448
4.2000 1.3841 0.3546
4.2200 1.3907 0.3622
4.2400 1.3974 0.3431
4.2600 1.4041 0.3554
4.2800 1.4108 0.3560
4.3000 1.4175 0.3488
4.3200 1.4242 0.3530
4.3400 1.4309 0.3575
4.3600 1.4375 0.3460
4.3800 1.4441 0.3535
4.4000 1.4507 0.3580
4.4200 1.4574 0.3516
4.4400 1.4641 0.3527
4.4600 1.4708 0.3544
4.4800 1.4775 0.3488
4.5000 1.4841 0.3516
4.5200 1.4908 0.3529
4.5400 1.4975 0.3484
4.5600 1.5041 0.3469
4.5800 1.5107 0.3544
4.6000 1.5174 0.3499
4.6200 1.5241 0.3453
4.6400 1.5308 0.3520
4.6600 1.5375 0.3507
4.6800 1.5441 0.3452
4.7000 1.5508 0.3468
4.7200 1.5575 0.3560
4.7400 1.5641 0.3400
4.7600 1.5707 0.3518
4.7800 1.5774 0.3490
4.8000 1.5841 0.3408
4.8200 1.5908 0.3529
4.8400 1.5975 0.3439
4.8600 1.6042 0.3371
4.8800 1.6109 0.3513
4.9000 1.6175 0.3419
4.9200 1.6241 0.3409
4.9400 1.6307 0.3519
4.9600 1.6374 0.3417
4.9800 1.6441 0.3390
5.0000 1.6508 0.3506
5.0200 1.6575 0.3392
5.0400 1.6642 0.3374
5.0600 1.6708 0.3441
5.0800 1.6775 0.3402
5.1000 1.6841 0.3381
5.1200 1.6907 0.3423
5.1400 1.6974 0.3370
5.1600 1.7040 0.3358
5.1800 1.7108 0.3438
5.2000 1.7175 0.3353
5.2200 1.7241 0.3387
5.2400 1.7308 0.3402
5.2600 1.7375 0.3378
5.2800 1.7441 0.3327
5.3000 1.7507 0.3433
5.3200 1.7573 0.3363
5.3400 1.7641 0.3336
5.3600 1.7708 0.3393
5.3800 1.7775 0.3333
5.4000 1.7841 0.3347
5.4200 1.7908 0.3379
5.4400 1.7975 0.3279
5.4600 1.8041 0.3304
5.4800 1.8107 0.3440
5.5000 1.8174 0.3335
5.5200 1.8241 0.3267
5.5400 1.8308 0.3385
5.5600 1.8375 0.3330
5.5800 1.8442 0.3258
5.6000 1.8509 0.3441
5.6200 1.8576 0.3295
5.6400 1.8642 0.3292
5.6600 1.8707 0.3370
5.6800 1.8774 0.3300
5.7000 1.8841 0.3279
5.7200 1.8908 0.3370
5.7400 1.8975 0.3278
5.7600 1.9042 0.3299
5.7800 1.9108 0.3420
5.8000 1.9175 0.3235
5.8200 1.9241 0.3283
5.8400 1.9307 0.3429
5.8600 1.9374 0.3208
5.8800 1.9441 0.3344
5.9000 1.9508 0.3316
5.9200 1.9574 0.3137
5.9400 1.9641 0.3363
5.9600 1.9708 0.3318
5.9800 1.9775 0.3153
6.0000 1.9841 0.3281
6.0200 1.9907 0.3292
6.0400 1.9973 0.3213
6.0600 2.0040 0.3314
6.0800 2.0107 0.3212
6.1000 2.0175 0.3256
6.1200 2.0241 0.3272
6.1400 2.0308 0.3177
6.1600 2.0375 0.3294
6.1800 2.0442 0.3197
6.2000 2.0507 0.3161
6.2200 2.0574 0.3327
6.2400 2.0641 0.3153
6.2600 2.0708 0.3197
6.2800 2.0775 0.3299
6.3000 2.0842 0.3110
6.3200 2.0909 0.3227
6.3400 2.0975 0.3347
6.3600 2.1041 0.3041
6.3800 2.1108 0.3230
6.4000 2.1174 0.3278
6.4200 2.1241 0.3049
6.4400 2.1308 0.3292
6.4600 2.1375 0.3160
6.4800 2.1442 0.3059
6.5000 2.1508 0.3331
6.5200 2.1575 0.3135
6.5400 2.1642 0.3061
6.5600 2.1708 0.3312
6.5800 2.1774 0.3126
6.6000 2.1841 0.3107
6.6200 2.1908 0.3266
6.6400 2.1974 0.3136
6.6600 2.2041 0.3141
6.6800 2.2108 0.3297
6.7000 2.2175 0.3063
6.7200 2.2241 0.3163
6.7400 2.2307 0.3247
6.7600 2.2373 0.3035
6.7800 2.2440 0.3200
6.8000 2.2507 0.3144
6.8200 2.2574 0.3069
6.8400 2.2641 0.3179
6.8600 2.2708 0.3115
6.8800 2.2775 0.3093
6.9000 2.2841 0.3198
6.9200 2.2907 0.3080
6.9400 2.2974 0.3128
6.9600 2.3041 0.3197
6.9800 2.3108 0.3088
7.0000 2.3175 0.3113
7.0200 2.3241 0.3150
7.0400 2.3308 0.3068
7.0600 2.3375 0.3149
7.0800 2.3442 0.3096
7.1000 2.3508 0.3051
7.1200 2.3574 0.3151
7.1400 2.3641 0.3084
7.1600 2.3708 0.3074
7.1800 2.3775 0.3185
7.2000 2.3841 0.3146
7.2200 2.3909 0.3090
7.2400 2.3975 0.3121
7.2600 2.4042 0.3109
7.2800 2.4108 0.3081
7.3000 2.4174 0.3085
7.3200 2.4241 0.3093
7.3400 2.4308 0.3069
7.3600 2.4375 0.3131
7.3800 2.4441 0.3050
7.4000 2.4508 0.3056
7.4200 2.4575 0.3081
7.4400 2.4641 0.3100
7.4600 2.4707 0.3042
7.4800 2.4774 0.3099
7.5000 2.4840 0.3066
7.5200 2.4908 0.3064
7.5400 2.4974 0.3037
7.5600 2.5041 0.3087
7.5800 2.5108 0.3033
7.6000 2.5175 0.3056
7.6200 2.5241 0.3076
7.6400 2.5307 0.3005
7.6600 2.5374 0.3079
7.6800 2.5441 0.3091
7.7000 2.5508 0.3020
7.7200 2.5575 0.3026
7.7400 2.5642 0.3059
7.7600 2.5709 0.3000
7.7800 2.5776 0.3031
7.8000 2.5842 0.3024
7.8200 2.5908 0.3022
7.8400 2.5974 0.3058
7.8600 2.6041 0.3053
7.8800 2.6108 0.2976
7.9000 2.6175 0.3053
7.9200 2.6242 0.3035
7.9400 2.6308 0.3003
7.9600 2.6375 0.2977
7.9800 2.6441 0.2988
8.0000 2.6508 0.2974
8.0200 2.6574 0.3013
8.0400 2.6641 0.3006
8.0600 2.6708 0.2938
8.0800 2.6775 0.3030
8.1000 2.6841 0.3044
8.1200 2.6908 0.2952
8.1400 2.6975 0.3016
8.1600 2.7042 0.2987
8.1800 2.7107 0.2930
8.2000 2.7173 0.3005
8.2200 2.7240 0.2989
8.2400 2.7307 0.2941
8.2600 2.7375 0.2988
8.2800 2.7442 0.2989
8.3000 2.7508 0.2861
8.3200 2.7575 0.3014
8.3400 2.7642 0.2986
8.3600 2.7708 0.2920
8.3800 2.7774 0.2994
8.4000 2.7840 0.2954
8.4200 2.7908 0.2890
8.4400 2.7975 0.2975
8.4600 2.8041 0.2959
8.4800 2.8108 0.2920
8.5000 2.8175 0.2980
8.5200 2.8242 0.2905
8.5400 2.8308 0.2916
8.5600 2.8374 0.2979
8.5800 2.8441 0.2955
8.6000 2.8508 0.2890
8.6200 2.8575 0.2921
8.6400 2.8642 0.2942
8.6600 2.8708 0.2912
8.6800 2.8775 0.2905
8.7000 2.8842 0.2947
8.7200 2.8908 0.2864
8.7400 2.8974 0.2915
8.7600 2.9041 0.2955
8.7800 2.9107 0.2923
8.8000 2.9174 0.2902
8.8200 2.9241 0.2897
8.8400 2.9308 0.2840
8.8600 2.9375 0.2924
8.8800 2.9441 0.2902
8.9000 2.9507 0.2840
8.9200 2.9573 0.2932
8.9400 2.9640 0.2910
8.9600 2.9707 0.2792
8.9800 2.9774 0.2927
9.0000 2.9841 0.2950
9.0200 2.9907 0.2775
9.0400 2.9975 0.2958
9.0600 3.0041 0.2848
9.0800 3.0108 0.2798
9.1000 3.0174 0.2925
9.1200 3.0241 0.2866
9.1400 3.0308 0.2811
9.1600 3.0375 0.2945
9.1800 3.0442 0.2872
9.2000 3.0509 0.2811
9.2200 3.0575 0.2914
9.2400 3.0642 0.2895
9.2600 3.0708 0.2814
9.2800 3.0774 0.2912
9.3000 3.0841 0.2828
9.3200 3.0908 0.2798
9.3400 3.0975 0.2873
9.3600 3.1042 0.2828
9.3800 3.1109 0.2853
9.4000 3.1175 0.2857
9.4200 3.1242 0.2858
9.4400 3.1308 0.2850
9.4600 3.1374 0.2882
9.4800 3.1440 0.2868
9.5000 3.1507 0.2829
9.5200 3.1575 0.2834
9.5400 3.1641 0.2826
9.5600 3.1708 0.2821
9.5800 3.1775 0.2871
9.6000 3.1842 0.2840
9.6200 3.1908 0.2818
9.6400 3.1974 0.2797
9.6600 3.2040 0.2882
9.6800 3.2107 0.2832
9.7000 3.2174 0.2810
9.7200 3.2241 0.2821
9.7400 3.2308 0.2838
9.7600 3.2375 0.2801
9.7800 3.2441 0.2787
9.8000 3.2508 0.2795
9.8200 3.2574 0.2834
9.8400 3.2640 0.2817
9.8600 3.2707 0.2793
9.8800 3.2775 0.2843
9.9000 3.2842 0.2805
9.9200 3.2909 0.2807
9.9400 3.2975 0.2793
9.9600 3.3042 0.2806
9.9800 3.3108 0.2807
10.0000 3.3174 0.2783
10.0200 3.3241 0.2770
10.0400 3.3308 0.2777
10.0600 3.3375 0.2780
10.0800 3.3442 0.2805
10.1000 3.3508 0.2748
10.1200 3.3575 0.2813
10.1400 3.3642 0.2766
10.1600 3.3708 0.2758
10.1800 3.3774 0.2749
10.2000 3.3840 0.2798
10.2200 3.3907 0.2763
10.2400 3.3974 0.2735
10.2600 3.4041 0.2739
10.2800 3.4108 0.2727
10.3000 3.4175 0.2762
10.3200 3.4242 0.2755
10.3400 3.4308 0.2717
10.3600 3.4374 0.2771
10.3800 3.4440 0.2773
10.4000 3.4507 0.2714
10.4200 3.4574 0.2716
10.4400 3.4641 0.2691
10.4600 3.4708 0.2758
10.4800 3.4775 0.2665
10.5000 3.4842 0.2695
10.5200 3.4908 0.2758
10.5400 3.4974 0.2712
10.5600 3.5041 0.2678
10.5800 3.5107 0.2763
10.6000 3.5175 0.2671
10.6200 3.5241 0.2674
10.6400 3.5308 0.2737
10.6600 3.5375 0.2660
10.6800 3.5442 0.2636
10.7000 3.5508 0.2752
10.7200 3.5574 0.2652
10.7400 3.5640 0.2679
10.7600 3.5707 0.2768
10.7800 3.5774 0.2652
10.8000 3.5841 0.2668
10.8200 3.5908 0.2691
10.8400 3.5975 0.2652
10.8600 3.6042 0.2632
10.8800 3.6108 0.2710
10.9000 3.6174 0.2616
10.9200 3.6240 0.2681
10.9400 3.6307 0.2690
10.9600 3.6375 0.2661
10.9800 3.6442 0.2641
11.0000 3.6508 0.2695
11.0200 3.6575 0.2633
11.0400 3.6642 0.2626
11.0600 3.6708 0.2625
11.0800 3.6774 0.2629
11.1000 3.6840 0.2686
11.1200 3.6907 0.2654
11.1400 3.6974 0.2625
11.1600 3.7041 0.2628
11.1800 3.7108 0.2636
11.2000 3.7175 0.2600
11.2200 3.7241 0.2666
11.2400 3.7308 0.2604
11.2600 3.7374 0.2590
11.2800 3.7440 0.2628
11.3000 3.7507 0.2621
11.3200 3.7574 0.2600
11.3400 3.7642 0.2585
11.3600 3.7709 0.2579
11.3800 3.7776 0.2606
11.4000 3.7842 0.2573
11.4200 3.7908 0.2631
11.4400 3.7974 0.2606
11.4600 3.8040 0.2598
11.4800 3.8107 0.2613
11.5000 3.8175 0.2617
11.5200 3.8242 0.2506
11.5400 3.8309 0.2640
11.5600 3.8375 0.2654
11.5800 3.8442 0.2527
11.6000 3.8508 0.2580
11.6200 3.8574 0.2572
11.6400 3.8640 0.2563
11.6600 3.8707 0.2618
11.6800 3.8774 0.2617
11.7000 3.8841 0.2540
11.7200 3.8908 0.2598
11.7400 3.8975 0.2529
11.7600 3.9042 0.2559
11.7800 3.9108 0.2591
11.8000 3.9174 0.2529
11.8200 3.9240 0.2517
11.8400 3.9307 0.2629
11.8600 3.9374 0.2506
11.8800 3.9441 0.2508
11.9000 3.9508 0.2600
11.9200 3.9575 0.2537
11.9400 3.9642 0.2469
11.9600 3.9708 0.2567
11.9800 3.9774 0.2570
12.0000 3.9840 0.2511
12.0200 3.9907 0.2556
12.0400 3.9975 0.2485
12.0600 4.0042 0.2468
12.0800 4.0108 0.2573
12.1000 4.0175 0.2529
12.1200 4.0242 0.2509
12.1400 4.0308 0.2559
12.1600 4.0374 0.2465
12.1800 4.0441 0.2502
12.2000 4.0508 0.2541
12.2200 4.0574 0.2494
12.2400 4.0641 0.2475
12.2600 4.0708 0.2534
12.2800 4.0775 0.2465
12.3000 4.0842 0.2523
12.3200 4.0908 0.2512
12.3400 4.0974 0.2473
12.3600 4.1040 0.2499
12.3800 4.1107 0.2532
12.4000 4.1174 0.2471
12.4200 4.1241 0.2458
12.4400 4.1308 0.2526
12.4600 4.1375 0.2485
12.4800 4.1442 0.2426
12.5000 4.1508 0.2532
12.5200 4.1574 0.2470
12.5400 4.1640 0.2380
12.5600 4.1707 0.2555
12.5800 4.1774 0.2484
12.6000 4.1841 0.2387
12.6200 4.1908 0.2514
12.6400 4.1975 0.2490
12.6600 4.2042 0.2359
12.6800 4.2108 0.2532
12.7000 4.2174 0.2501
12.7200 4.2241 0.2384
12.7400 4.2307 0.2483
12.7600 4.2374 0.2504
12.7800 4.2441 0.2377
12.8000 4.2508 0.2518
12.8200 4.2575 0.2429
12.8400 4.2642 0.2341
12.8600 4.2709 0.2508
12.8800 4.2774 0.2406
12.9000 4.2841 0.2405
12.9200 4.2907 0.2535
12.9400 4.2974 0.2424
12.9600 4.3042 0.2379
12.9800 4.3109 0.2501
13.0000 4.3175 0.2412
13.0200 4.3242 0.2435
13.0400 4.3308 0.2489
13.0600 4.3374 0.2373
13.0800 4.3440 0.2390
13.1000 4.3507 0.2536
13.1200 4.3574 0.2383
13.1400 4.3641 0.2345
13.1600 4.3708 0.2424
13.1800 4.3775 0.2391
13.2000 4.3842 0.2386
13.2200 4.3908 0.2453
13.2400 4.3974 0.2434
13.2600 4.4040 0.2388
13.2800 4.4107 0.2435
13.3000 4.4174 0.2383
13.3200 4.4241 0.2347
13.3400 4.4308 0.2441
13.3600 4.4375 0.2389
13.3800 4.4442 0.2311
13.4000 4.4508 0.2447
13.4200 4.4574 0.2431
13.4400 4.4640 0.2355
13.4600 4.4707 0.2458
13.4800 4.4774 0.2387
13.5000 4.4842 0.2307
13.5200 4.4909 0.2430
13.5400 4.4975 0.2340
13.5600 4.5042 0.2355
13.5800 4.5108 0.2401
13.6000 4.5174 0.2364
13.6200 4.5241 0.2348
13.6400 4.5308 0.2444
13.6600 4.5375 0.2349
13.6800 4.5442 0.2355
13.7000 4.5508 0.2417
13.7200 4.5575 0.2315
13.7400 4.5641 0.2355
13.7600 4.5708 0.2377
13.7800 4.5774 0.2340
13.8000 4.5840 0.2348
13.8200 4.5907 0.2386
13.8400 4.5974 0.2346
13.8600 4.6041 0.2352
13.8800 4.6108 0.2351
13.9000 4.6175 0.2332
13.9200 4.6242 0.2345
13.9400 4.6308 0.2328
13.9600 4.6375 0.2321
13.9800 4.6440 0.2373
14.0000 4.6507 0.2344
14.0200 4.6574 0.2305
14.0400 4.6641 0.2375
14.0600 4.6708 0.2370
14.0800 4.6775 0.2276
14.1000 4.6842 0.2350
14.1200 4.6908 0.2301
14.1400 4.6974 0.2313
14.1600 4.7040 0.2367
14.1800 4.7107 0.2348
14.2000 4.7174 0.2283
14.2200 4.7241 0.2294
14.2400 4.7308 0.2287
14.2600 4.7375 0.2298
14.2800 4.7442 0.2386
14.3000 4.7509 0.2275
14.3200 4.7575 0.2310
14.3400 4.7641 0.2320
14.3600 4.7707 0.2262
14.3800 4.7774 0.2336
14.4000 4.7841 0.2330
14.4200 4.7908 0.2264
14.4400 4.7975 0.2312
14.4600 4.8042 0.2290
14.4800 4.8109 0.2254
14.5000 4.8175 0.2301
14.5200 4.8241 0.2334
14.5400 4.8307 0.2272
14.5600 4.8374 0.2300
14.5800 4.8441 0.2299
14.6000 4.8508 0.2237
14.6200 4.8575 0.2261
14.6400 4.8641 0.2323
14.6600 4.8708 0.2244
14.6800 4.8774 0.2179
14.7000 4.8840 0.2323
14.7200 4.8907 0.2278
14.7400 4.8974 0.2198
14.7600 4.9041 0.2293
14.7800 4.9108 0.2293
14.8000 4.9174 0.2206
14.8200 4.9241 0.2287
14.8400 4.9308 0.2226
14.8600 4.9375 0.2197
14.8800 4.9441 0.2284
14.9000 4.9507 0.2179
14.9200 4.9574 0.2208
14.9400 4.9641 0.2291
14.9600 4.9708 0.2147
14.9800 4.9775 0.2262
15.0000 4.9842 0.2282
15.0200 4.9909 0.2137
15.0400 4.9975 0.2195
15.0600 5.0040 0.2245
15.0800 5.0107 0.2133
15.1000 5.0174 0.2200
15.1200 5.0241 0.2270
15.1400 5.0308 0.2092
15.1600 5.0375 0.2205
15.1800 5.0442 0.2234
15.2000 5.0508 0.2116
15.2200 5.0575 0.2199
15.2400 5.0641 0.2264
15.2600 5.0707 0.2120
15.2800 5.0774 0.2220
15.3000 5.0841 0.2177
15.3200 5.0908 0.2127
15.3400 5.0975 0.2191
15.3600 5.1042 0.2168
15.3800 5.1108 0.2157
15.4000 5.1175 0.2159
15.4200 5.1241 0.2183
15.4400 5.1307 0.2137
15.4600 5.1373 0.2128
15.4800 5.1440 0.2205
15.5000 5.1508 0.2133
15.5200 5.1574 0.2101
15.5400 5.1641 0.2169
15.5600 5.1708 0.2140
15.5800 5.1774 0.2136
15.6000 5.1840 0.2126
15.6200 5.1907 0.2164
15.6400 5.1974 0.2146
15.6600 5.2041 0.2161
15.6800 5.2108 0.2090
15.7000 5.2175 0.2157
15.7200 5.2242 0.2165
15.7400 5.2309 0.2064
15.7600 5.2375 0.2086
15.7800 5.2441 0.2181
15.8000 5.2508 0.2115
15.8200 5.2574 0.2097
15.8400 5.2641 0.2151
15.8600 5.2708 0.2065
15.8800 5.2775 0.2087
15.9000 5.2842 0.2151
15.9200 5.2909 0.2035
15.9400 5.2975 0.2034
15.9600 5.3041 0.2175
15.9800 5.3107 0.2022
16.0000 5.3174 0.2111
16.0200 5.3241 0.2125
16.0400 5.3308 0.2027
16.0600 5.3375 0.2063
16.0800 5.3442 0.2178
16.1000 5.3508 0.1977
16.1200 5.3575 0.2108
16.1400 5.3641 0.2177
16.1600 5.3707 0.1985
16.1800 5.3774 0.2073
16.2000 5.3841 0.2100
16.2200 5.3908 0.1957
16.2400 5.3975 0.2124
16.2600 5.4041 0.2093
16.2800 5.4108 0.1979
16.3000 5.4175 0.2128
16.3200 5.4241 0.2051
16.3400 5.4307 0.1989
16.3600 5.4374 0.2097
16.3800 5.4441 0.2061
16.4000 5.4508 0.1955
16.4200 5.4575 0.2077
16.4400 5.4642 0.2037
16.4600 5.4709 0.2002
16.4800 5.4775 0.2089
16.5000 5.4841 0.2072
16.5200 5.4907 0.2014
16.5400 5.4974 0.2107
16.5600 5.5041 0.2014
16.5800 5.5108 0.1944
16.6000 5.5175 0.2031
16.6200 5.5242 0.2053
16.6400 5.5308 0.1970
16.6600 5.5375 0.2059
16.6800 5.5441 0.1994
16.7000 5.5507 0.2010
16.7200 5.5574 0.2098
16.7400 5.5641 0.1986
16.7600 5.5708 0.1991
16.7800 5.5775 0.1992
16.8000 5.5841 0.2006
16.8200 5.5908 0.2018
16.8400 5.5975 0.1988
16.8600 5.6041 0.1981
16.8800 5.6107 0.2022
16.9000 5.6174 0.1961
16.9200 5.6241 0.2002
16.9400 5.6308 0.2088
16.9600 5.6375 0.1941
16.9800 5.6442 0.1932
17.0000 5.6509 0.2073
17.0200 5.6575 0.1856
17.0400 5.6641 0.1991
17.0600 5.6707 0.2058
17.0800 5.6774 0.1901
17.1000 5.6841 0.1957
17.1200 5.6908 0.2017
17.1400 5.6975 0.1984
17.1600 5.7042 0.1990
17.1800 5.7108 0.1967
17.2000 5.7175 0.1913
17.2200 5.7241 0.2023
17.2400 5.7307 0.1905
17.2600 5.7374 0.1921
17.2800 5.7441 0.1986
17.3000 5.7508 0.1924
17.3200 5.7575 0.1939
17.3400 5.7642 0.1974
17.3600 5.7709 0.1922
17.3800 5.7775 0.1967
17.4000 5.7841 0.1963
17.4200 5.7907 0.1946
17.4400 5.7974 0.1940
17.4600 5.8041 0.1963
17.4800 5.8108 0.1910
17.5000 5.8175 0.1948
17.5200 5.8242 0.1930
17.5400 5.8308 0.1936
17.5600 5.8375 0.1897
17.5800 5.8441 0.1924
17.6000 5.8507 0.1984
17.6200 5.8573 0.1916
17.6400 5.8641 0.1888
17.6600 5.8708 0.1918
17.6800 5.8775 0.1930
17.7000 5.8841 0.1899
17.7200 5.8908 0.1921
17.7400 5.8975 0.1895
17.7600 5.9041 0.1904
17.7800 5.9107 0.1942
17.8000 5.9174 0.1869
17.8200 5.9241 0.1915
17.8400 5.9308 0.1938
17.8600 5.9375 0.1827
17.8800 5.9442 0.1908
17.9000 5.9509 0.1916
17.9200 5.9575 0.1863
17.9400 5.9642 0.1860
17.9600 5.9708 0.1899
17.9800 5.9774 0.1900
18.0000 5.9841 0.1875
18.0200 5.9908 0.1924
18.0400 5.9975 0.1852
18.0600 6.0042 0.1874
18.0800 6.0109 0.1871
18.1000 6.0175 0.1863
18.1200 6.0241 0.1858
18.1400 6.0307 0.1881
18.1600 6.0374 0.1894
18.1800 6.0441 0.1863
18.2000 6.0508 0.1795
18.2200 6.0575 0.1898
18.2400 6.0641 0.1866
18.2600 6.0708 0.1839
18.2800 6.0775 0.1860
18.3000 6.0841 0.1846
18.3200 6.0907 0.1815
18.3400 6.0974 0.1861
18.3600 6.1041 0.1810
18.3800 6.1108 0.1845
18.4000 6.1174 0.1854
18.4200 6.1241 0.1773
18.4400 6.1308 0.1848
18.4600 6.1375 0.1829
18.4800 6.1441 0.1759
18.5000 6.1507 0.1833
18.5200 6.1574 0.1814
18.5400 6.1641 0.1752
18.5600 6.1708 0.1845
18.5800 6.1775 0.1826
18.6000 6.1842 0.1753
18.6200 6.1908 0.1796
18.6400 6.1975 0.1847
18.6600 6.2041 0.1746
18.6800 6.2107 0.1821
18.7000 6.2174 0.1830
18.7200 6.2241 0.1764
18.7400 6.2308 0.1750
18.7600 6.2375 0.1794
18.7800 6.2442 0.1738
18.8000 6.2508 0.1772
18.8200 6.2575 0.1791
18.8400 6.2641 0.1718
18.8600 6.2707 0.1793
18.8800 6.2774 0.1798
18.9000 6.2841 0.1717
18.9200 6.2908 0.1816
18.9400 6.2974 0.1732
18.9600 6.3041 0.1662
18.9800 6.3108 0.1838
19.0000 6.3175 0.1667
19.0200 6.3241 0.1693
19.0400 6.3307 0.1848
19.0600 6.3373 0.1711
19.0800 6.3440 0.1707
19.1000 6.3508 0.1808
19.1200 6.3574 0.1690
19.1400 6.3641 0.1714
19.1600 6.3708 0.1737
19.1800 6.3775 0.1707
19.2000 6.3841 0.1728
19.2200 6.3907 0.1706
19.2400 6.3974 0.1694
19.2600 6.4041 0.1734
19.2800 6.4108 0.1660
19.3000 6.4175 0.1748
19.3200 6.4242 0.1712
19.3400 6.4309 0.1714
19.3600 6.4375 0.1762
19.3800 6.4441 0.1671
19.4000 6.4507 0.1708
19.4200 6.4574 0.1737
19.4400 6.4641 0.1660
19.4600 6.4708 0.1704
19.4800 6.4775 0.1740
19.5000 6.4841 0.1592
19.5200 6.4908 0.1739
19.5400 6.4975 0.1730
19.5600 6.5042 0.1570
19.5800 6.5107 0.1706
19.6000 6.5174 0.1786
19.6200 6.5240 0.1566
19.6400 6.5307 0.1703
19.6600 6.5374 0.1708
19.6800 6.5442 0.1575
19.7000 6.5508 0.1681
19.7200 6.5575 0.1692
19.7400 6.5641 0.1588
19.7600 6.5707 0.1761
19.7800 6.5773 0.1692
19.8000 6.5840 0.1579
19.8200 6.5908 0.1727
19.8400 6.5975 0.1654
19.8600 6.6041 0.1597
19.8800 6.6108 0.1656
19.9000 6.6175 0.1662
19.9200 6.6241 0.1587
19.9400 6.6307 0.1677
19.9600 6.6374 0.1641
19.9800 6.6441 0.1622
20.0000 6.6508 0.1696
20.0200 6.6575 0.1648
20.0400 6.6642 0.1562
20.0600 6.6709 0.1677
20.0800 6.6776 0.1671
20.1000 6.6842 0.1555
20.1200 6.6908 0.1656
20.1400 6.6974 0.1753
20.1600 6.7041 0.1559
20.1800 6.7108 0.1647
20.2000 6.7175 0.1737
20.2200 6.7242 0.1544
20.2400 6.7309 0.1619
20.2600 6.7375 0.1702
20.2800 6.7441 0.1542
20.3000 6.7507 0.1633
20.3200 6.7574 0.1769
20.3400 6.7641 0.1504
20.3600 6.7708 0.1659
20.3800 6.7775 0.1729
20.4000 6.7841 0.1518
20.4200 6.7908 0.1627
20.4400 6.7975 0.1717
20.4600 6.8041 0.1524
20.4800 6.8107 0.1660
20.5000 6.8173 0.1681
20.5200 6.8240 0.1555
20.5400 6.8307 0.1627
20.5600 6.8375 0.1644
20.5800 6.8441 0.1534
20.6000 6.8508 0.1650
20.6200 6.8575 0.1647
20.6400 6.8642 0.1540
20.6600 6.8708 0.1602
20.6800 6.8774 0.1618
20.7000 6.8841 0.1555
20.7200 6.8908 0.1623
20.7400 6.8975 0.1615
20.7600 6.9042 0.1523
20.7800 6.9109 0.1635
20.8000 6.9175 0.1567
20.8200 6.9242 0.1592
20.8400 6.9307 0.1567
20.8600 6.9374 0.1610
20.8800 6.9441 0.1541
20.9000 6.9508 0.1557
20.9200 6.9575 0.1609
20.9400 6.9642 0.1539
20.9600 6.9708 0.1569
20.9800 6.9775 0.1579
21.0000 6.9842 0.1486
21.0200 6.9908 0.1579
21.0400 6.9974 0.1580
21.0600 7.0041 0.1477
21.0800 7.0108 0.1572
21.1000 7.0175 0.1546
21.1200 7.0241 0.1475
21.1400 7.0308 0.1557
21.1600 7.0375 0.1555
21.1800 7.0442 0.1465
21.2000 7.0507 0.1595
21.2200 7.0573 0.1570
21.2400 7.0640 0.1468
21.2600 7.0707 0.1578
21.2800 7.0774 0.1526
21.3000 7.0841 0.1418
21.3200 7.0908 0.1586
21.3400 7.0974 0.1519
21.3600 7.1041 0.1435
21.3800 7.1107 0.1527
21.4000 7.1174 0.1508
21.4200 7.1240 0.1481
21.4400 7.1308 0.1572
21.4600 7.1375 0.1438
21.4800 7.1441 0.1474
21.5000 7.1508 0.1568
21.5200 7.1575 0.1442
21.5400 7.1642 0.1478
21.5600 7.1708 0.1560
21.5800 7.1774 0.1464
21.6000 7.1841 0.1426
21.6200 7.1908 0.1548
21.6400 7.1975 0.1437
21.6600 7.2041 0.1511
21.6800 7.2108 0.1509
21.7000 7.2175 0.1423
21.7200 7.2242 0.1493
21.7400 7.2308 0.1474
21.7600 7.2374 0.1431
21.7800 7.2440 0.1513
21.8000 7.2508 0.1429
21.8200 7.2575 0.1452
21.8400 7.2642 0.1497
21.8600 7.2708 0.1440
21.8800 7.2775 0.1463
21.9000 7.2841 0.1451
21.9200 7.2907 0.1364
21.9400 7.2973 0.1507
21.9600 7.3040 0.1455
21.9800 7.3107 0.1359
22.0000 7.3174 0.1569
22.0200 7.3241 0.1408
22.0400 7.3308 0.1340
22.0600 7.3375 0.1561
22.0800 7.3441 0.1407
22.1000 7.3508 0.1327
22.1200 7.3574 0.1535
22.1400 7.3641 0.1328
22.1600 7.3708 0.1381
22.1800 7.3775 0.1477
22.2000 7.3842 0.1338
22.2200 7.3909 0.1419
22.2400 7.3975 0.1468
22.2600 7.4042 0.1309
22.2800 7.4108 0.1433
22.3000 7.4174 0.1472
22.3200 7.4241 0.1273
22.3400 7.4308 0.1449
22.3600 7.4375 0.1453
22.3800 7.4442 0.1283
22.4000 7.4508 0.1463
22.4200 7.4575 0.1389
22.4400 7.4641 0.1305
22.4600 7.4708 0.1468
22.4800 7.4774 0.1349
22.5000 7.4840 0.1357
22.5200 7.4907 0.1476
22.5400 7.4974 0.1349
22.5600 7.5041 0.1331
22.5800 7.5108 0.1442
22.6000 7.5175 0.1321
22.6200 7.5242 0.1356
22.6400 7.5308 0.1419
22.6600 7.5373 0.1309
22.6800 7.5440 0.1370
22.7000 7.5507 0.1440
22.7200 7.5574 0.1286
22.7400 7.5641 0.1380
22.7600 7.5708 0.1377
22.7800 7.5775 0.1299
22.8000 7.5842 0.1355
22.8200 7.5908 0.1367
22.8400 7.5974 0.1269
22.8600 7.6041 0.1377
22.8800 7.6108 0.1373
22.9000 7.6175 0.1217
22.9200 7.6241 0.1424
22.9400 7.6308 0.1339
22.9600 7.6375 0.1249
22.9800 7.6442 0.1375
23.0000 7.6508 0.1321
23.0200 7.6574 0.1260
23.0400 7.6641 0.1407
23.0600 7.6708 0.1246
23.0800 7.6775 0.1322
23.1000 7.6842 0.1377
23.1200 7.6908 0.1195
23.1400 7.6975 0.1330
23.1600 7.7042 0.1376
23.1800 7.7108 0.1183
23.2000 7.7174 0.1354
23.2200 7.7240 0.1390
23.2400 7.7307 0.1204
23.2600 7.7374 0.1314
23.2800 7.7441 0.1331
23.3000 7.7508 0.1224
23.3200 7.7575 0.1338
23.3400 7.7642 0.1312
23.3600 7.7708 0.1222
23.3800 7.7774 0.1341
23.4000 7.7840 0.1239
23.4200 7.7907 0.1245
23.4400 7.7974 0.1301
23.4600 7.8041 0.1325
23.4800 7.8107 0.1239
23.5000 7.8174 0.1278
23.5200 7.8241 0.1263
23.5400 7.8308 0.1293
23.5600 7.8374 0.1304
23.5800 7.8440 0.1283
23.6000 7.8507 0.1248
23.6200 7.8575 0.1211
23.6400 7.8642 0.1287
23.6600 7.8709 0.1262
23.6800 7.8776 0.1179
23.7000 7.8842 0.1274
23.7200 7.8908 0.1264
23.7400 7.8974 0.1220
23.7600 7.9041 0.1270
23.7800 7.9108 0.1242
23.8000 7.9175 0.1194
23.8200 7.9242 0.1236
23.8400 7.9309 0.1219
23.8600 7.9375 0.1197
23.8800 7.9442 0.1312
23.9000 7.9508 0.1134
23.9200 7.9574 0.1221
23.9400 7.9640 0.1301
23.9600 7.9708 0.1181
23.9800 7.9775 0.1215
24.0000 7.9841 0.1304
24.0200 7.9908 0.1151
24.0400 7.9975 0.1186
24.0600 8.0042 0.1237
24.0800 8.0108 0.1190
24.1000 8.0174 0.1253
24.1200 8.0240 0.1266
24.1400 8.0307 0.1113
24.1600 8.0374 0.1270
24.1800 8.0441 0.1294
24.2000 8.0508 0.1063
24.2200 8.0575 0.1294
24.2400 8.0642 0.1188
24.2600 8.0708 0.1096
24.2800 8.0774 0.1256
24.3000 8.0840 0.1214
24.3200 8.0907 0.1137
24.3400 8.0975 0.1250
24.3600 8.1042 0.1167
24.3800 8.1109 0.1163
24.4000 8.1175 0.1238
24.4200 8.1242 0.1165
24.4400 8.1308 0.1112
24.4600 8.1374 0.1295
24.4800 8.1440 0.1198
24.5000 8.1508 0.1155
24.5200 8.1575 0.1191
24.5400 8.1642 0.1168
24.5600 8.1709 0.1228
24.5800 8.1775 0.1098
24.6000 8.1842 0.1194
24.6200 8.1908 0.1205
24.6400 8.1974 0.1046
24.6600 8.2040 0.1240
24.6800 8.2107 0.1224
24.7000 8.2174 0.1071
24.7200 8.2241 0.1196
24.7400 8.2308 0.1210
24.7600 8.2375 0.1102
24.7800 8.2442 0.1193
24.8000 8.2508 0.1204
24.8200 8.2574 0.1046
24.8400 8.2640 0.1237
24.8600 8.2707 0.1104
24.8800 8.2774 0.1109
24.9000 8.2841 0.1291
24.9200 8.2908 0.1050
24.9400 8.2975 0.1080
24.9600 8.3041 0.1254
24.9800 8.3108 0.1088
25.0000 8.3174 0.1062
25.0200 8.3240 0.1242
25.0400 8.3307 0.1150
25.0600 8.3375 0.1084
25.0800 8.3441 0.1162
25.1000 8.3508 0.1079
25.1200 8.3575 0.1108
25.1400 8.3642 0.1140
25.1600 8.3708 0.1065
25.1800 8.3774 0.1181
25.2000 8.3840 0.1051
25.2200 8.3907 0.1105
25.2400 8.3974 0.1179
25.2600 8.4041 0.1074
25.2800 8.4108 0.1090
25.3000 8.4175 0.1178
25.3200 8.4242 0.1028
25.3400 8.4308 0.1042
25.3600 8.4374 0.1212
25.3800 8.4440 0.1090
25.4000 8.4507 0.1009
25.4200 8.4574 0.1141
25.4400 8.4641 0.1086
25.4600 8.4708 0.1128
25.4800 8.4775 0.1099
25.5000 8.4842 0.1067
25.5200 8.4908 0.1113
25.5400 8.4974 0.1059
25.5600 8.5040 0.1055
25.5800 8.5107 0.1181
25.6000 8.5174 0.1096
25.6200 8.5241 0.0952
25.6400 8.5308 0.1162
25.6600 8.5374 0.1087
25.6800 8.5441 0.0994
25.7000 8.5508 0.1123
25.7200 8.5574 0.1070
25.7400 8.5640 0.1042
25.7600 8.5707 0.1121
25.7800 8.5774 0.1034
25.8000 8.5841 0.1063
25.8200 8.5909 0.1113
25.8400 8.5976 0.1002
25.8600 8.6042 0.1088
25.8800 8.6109 0.1115
25.9000 8.6174 0.0978
25.9200 8.6241 0.1083
25.9400 8.6307 0.1113
25.9600 8.6375 0.0952
25.9800 8.6442 0.1098
26.0000 8.6509 0.1046
26.0200 8.6575 0.1015
26.0400 8.6642 0.1120
26.0600 8.6708 0.1025
26.0800 8.6774 0.1016
26.1000 8.6840 0.1137
26.1200 8.6907 0.0951
26.1400 8.6974 0.1050
26.1600 8.7041 0.1079
26.1800 8.7108 0.0964
26.2000 8.7175 0.1069
26.2200 8.7242 0.1020
26.2400 8.7308 0.0967
26.2600 8.7374 0.1092
26.2800 8.7440 0.0983
26.3000 8.7507 0.0990
26.3200 8.7574 0.1042
26.3400 8.7641 0.0941
26.3600 8.7708 0.0993
26.3800 8.7774 0.1032
26.4000 8.7841 0.0948
26.4200 8.7908 0.0971
26.4400 8.7974 0.1047
26.4600 8.8040 0.0962
26.4800 8.8107 0.1065
26.5000 8.8174 0.0982
26.5200 8.8242 0.0930
26.5400 8.8309 0.1052
26.5600 8.8375 0.0970
26.5800 8.8442 0.0974
26.6000 8.8509 0.0988
26.6200 8.8575 0.0957
26.6400 8.8641 0.1037
26.6600 8.8708 0.0967
26.6800 8.8775 0.0949
26.7000 8.8841 0.1024
26.7200 8.8908 0.0953
26.7400 8.8975 0.0952
26.7600 8.9042 0.0985
26.7800 8.9109 0.0921
26.8000 8.9174 0.0974
26.8200 8.9240 0.1056
26.8400 8.9307 0.0865
26.8600 8.9374 0.1017
26.8800 8.9441 0.1010
26.9000 8.9508 0.0865
26.9200 8.9575 0.1030
26.9400 8.9642 0.0946
26.9600 8.9708 0.0858
26.9800 8.9774 0.0995
27.0000 8.9840 0.0929
27.0200 8.9907 0.0941
27.0400 8.9974 0.1010
27.0600 9.0041 0.0880
27.0800 9.0108 0.0830
27.1000 9.0175 0.1078
27.1200 9.0242 0.0847
27.1400 9.0308 0.0882
27.1600 9.0374 0.1074
27.1800 9.0440 0.0802
27.2000 9.0507 0.0905
27.2200 9.0574 0.0994
27.2400 9.0641 0.0857
27.2600 9.0708 0.0939
27.2800 9.0775 0.0939
27.3000 9.0842 0.0839
27.3200 9.0909 0.0956
27.3400 9.0975 0.0941
27.3600 9.1041 0.0849
27.3800 9.1107 0.0928
27.4000 9.1174 0.0919
27.4200 9.1241 0.0812
27.4400 9.1308 0.0965
27.4600 9.1375 0.0902
27.4800 9.1442 0.0849
27.5000 9.1509 0.0965
27.5200 9.1575 0.0908
27.5400 9.1641 0.0867
27.5600 9.1707 0.0936
27.5800 9.1774 0.0896
27.6000 9.1841 0.0840
27.6200 9.1908 0.0890
27.6400 9.1975 0.0935
27.6600 9.2042 0.0905
27.6800 9.2108 0.0841
27.7000 9.2175 0.0878
27.7200 9.2240 0.0871
27.7400 9.2307 0.0884
27.7600 9.2374 0.0898
27.7800 9.2441 0.0859
27.8000 9.2508 0.0829
27.8200 9.2575 0.0904
27.8400 9.2642 0.0836
27.8600 9.2708 0.0868
27.8800 9.2774 0.0915
27.9000 9.2840 0.0835
27.9200 9.2907 0.0839
27.9400 9.2974 0.0890
27.9600 9.3042 0.0805
27.9800 9.3109 0.0845
28.0000 9.3175 0.0874
28.0200 9.3242 0.0849
28.0400 9.3308 0.0859
28.0600 9.3375 0.0856
28.0800 9.3441 0.0830
28.1000 9.3507 0.0867
28.1200 9.3575 0.0852
28.1400 9.3642 0.0813
28.1600 9.3708 0.0895
28.1800 9.3775 0.0841
28.2000 9.3842 0.0797
28.2200 9.3908 0.0858
28.2400 9.3974 0.0823
28.2600 9.4040 0.0757
28.2800 9.4107 0.0974
28.3000 9.4174 0.0800
28.3200 9.4241 0.0680
28.3400 9.4308 0.0976
28.3600 9.4375 0.0797
28.3800 9.4442 0.0697
28.4000 9.4508 0.0934
28.4200 9.4574 0.0754
28.4400 9.4640 0.0772
28.4600 9.4707 0.0991
28.4800 9.4774 0.0668
28.5000 9.4841 0.0760
28.5200 9.4908 0.0992
28.5400 9.4975 0.0660
28.5600 9.5042 0.0807
28.5800 9.5108 0.1000
28.6000 9.5174 0.0627
28.6200 9.5240 0.0856
28.6400 9.5307 0.0948
28.6600 9.5374 0.0638
28.6800 9.5441 0.0877
28.7000 9.5508 0.0906
28.7200 9.5575 0.0615
28.7400 9.5642 0.0914
28.7600 9.5709 0.0837
28.7800 9.5775 0.0604
28.8000 9.5841 0.0946
28.8200 9.5907 0.0886
28.8400 9.5974 0.0646
28.8600 9.6041 0.0841
28.8800 9.6108 0.0839
28.9000 9.6175 0.0683
28.9200 9.6242 0.0832
28.9400 9.6309 0.0779
28.9600 9.6375 0.0715
28.9800 9.6441 0.0854
29.0000 9.6507 0.0814
29.0200 9.6574 0.0722
29.0400 9.6641 0.0838
29.0600 9.6708 0.0733
29.0800 9.6775 0.0784
29.1000 9.6841 0.0827
29.1200 9.6908 0.0747
29.1400 9.6975 0.0725
29.1600 9.7041 0.0806
29.1800 9.7107 0.0824
29.2000 9.7174 0.0787
29.2200 9.7241 0.0754
29.2400 9.7308 0.0770
29.2600 9.7374 0.0787
29.2800 9.7441 0.0746
29.3000 9.7508 0.0756
29.3200 9.7575 0.0809
29.3400 9.7641 0.0680
29.3600 9.7707 0.0762
29.3800 9.7774 0.0838
29.4000 9.7841 0.0693
29.4200 9.7908 0.0744
29.4400 9.7975 0.0762
29.4600 9.8042 0.0687
29.4800 9.8109 0.0782
29.5000 9.8175 0.0721
29.5200 9.8241 0.0695
29.5400 9.8307 0.0800
29.5600 9.8374 0.0680
29.5800 9.8441 0.0747
29.6000 9.8508 0.0799
29.6200 9.8575 0.0685
29.6400 9.8642 0.0715
29.6600 9.8708 0.0798
29.6800 9.8775 0.0675
29.7000 9.8841 0.0746
29.7200 9.8907 0.0746
29.7400 9.8974 0.0655
29.7600 9.9041 0.0756
29.7800 9.9108 0.0746
29.8000 9.9175 0.0666
29.8200 9.9241 0.0736
29.8400 9.9308 0.0720
29.8600 9.9375 0.0675
29.8800 9.9440 0.0753
29.9000 9.9507 0.0704
29.9200 9.9573 0.0747
29.9400 9.9640 0.0736
29.9600 9.9708 0.0665
29.9800 9.9775 0.0692
30.0000 9.9841 0.0744
30.0200 9.9908 0.0642
30.0400 9.9974 0.0732
30.0600 10.0040 0.0687
30.0800 10.0107 0.0635
30.1000 10.0174 0.0761
30.1200 10.0241 0.0696
30.1400 10.0308 0.0617
30.1600 10.0375 0.0688
30.1800 10.0442 0.0689
30.2000 10.0509 0.0644
30.2200 10.0575 0.0701
30.2400 10.0641 0.0665
30.2600 10.0708 0.0668
30.2800 10.0774 0.0647
30.3000 10.0841 0.0643
30.3200 10.0908 0.0661
30.3400 10.0975 0.0660
30.3600 10.1042 0.0657
30.3800 10.1109 0.0711
30.4000 10.1175 0.0590
30.4200 10.1241 0.0666
30.4400 10.1307 0.0699
30.4600 10.1374 0.0632
30.4800 10.1441 0.0640
30.5000 10.1508 0.0698
30.5200 10.1575 0.0587
30.5400 10.1641 0.0646
30.5600 10.1708 0.0627
30.5800 10.1775 0.0601
30.6000 10.1841 0.0733
30.6200 10.1907 0.0593
30.6400 10.1974 0.0599
30.6600 10.2041 0.0691
30.6800 10.2108 0.0619
30.7000 10.2175 0.0587
30.7200 10.2241 0.0680
30.7400 10.2308 0.0539
30.7600 10.2375 0.0627
30.7800 10.2441 0.0683
30.8000 10.2507 0.0602
30.8200 10.2574 0.0641
30.8400 10.2641 0.0618
30.8600 10.2708 0.0570
30.8800 10.2775 0.0672
30.9000 10.2842 0.0597
30.9200 10.2909 0.0616
30.9400 10.2975 0.0633
30.9600 10.3041 0.0556
30.9800 10.3107 0.0612
31.0000 10.3174 0.0612
31.0200 10.3241 0.0565
31.0400 10.3308 0.0616
31.0600 10.3375 0.0594
31.0800 10.3442 0.0508
31.1000 10.3508 0.0632
31.1200 10.3575 0.0607
31.1400 10.3641 0.0537
31.1600 10.3707 0.0599
31.1800 10.3774 0.0619
31.2000 10.3841 0.0528
31.2200 10.3908 0.0631
31.2400 10.3975 0.0579
31.2600 10.4041 0.0582
31.2800 10.4108 0.0573
31.3000 10.4175 0.0573
31.3200 10.4241 0.0604
31.3400 10.4307 0.0616
31.3600 10.4374 0.0514
31.3800 10.4441 0.0604
31.4000 10.4508 0.0584
31.4200 10.4575 0.0536
31.4400 10.4641 0.0621
31.4600 10.4708 0.0563
31.4800 10.4775 0.0463
31.5000 10.4841 0.0637
31.5200 10.4907 0.0553
31.5400 10.4974 0.0503
31.5600 10.5041 0.0645
31.5800 10.5108 0.0503
31.6000 10.5175 0.0549
31.6200 10.5242 0.0640
31.6400 10.5309 0.0520
31.6600 10.5375 0.0514
31.6800 10.5441 0.0668
31.7000 10.5507 0.0457
31.7200 10.5574 0.0554
31.7400 10.5641 0.0657
31.7600 10.5708 0.0455
31.7800 10.5775 0.0537
31.8000 10.5842 0.0611
31.8200 10.5909 0.0434
31.8400 10.5975 0.0562
31.8600 10.6041 0.0593
31.8800 10.6107 0.0459
31.9000 10.6174 0.0572
31.9200 10.6241 0.0582
31.9400 10.6308 0.0428
31.9600 10.6375 0.0563
31.9800 10.6442 0.0592
32.0000 10.6509 0.0440
32.0200 10.6575 0.0578
32.0400 10.6641 0.0500
32.0600 10.6707 0.0429
32.0800 10.6773 0.0577
32.1000 10.6841 0.0527
32.1200 10.6908 0.0439
32.1400 10.6975 0.0556
32.1600 10.7041 0.0483
32.1800 10.7108 0.0531
32.2000 10.7175 0.0481
32.2200 10.7241 0.0518
32.2400 10.7307 0.0543
32.2600 10.7374 0.0427
32.2800 10.7441 0.0508
32.3000 10.7508 0.0505
32.3200 10.7575 0.0464
32.3400 10.7642 0.0493
32.3600 10.7709 0.0454
32.3800 10.7776 0.0447
32.4000 10.7842 0.0531
32.4200 10.7908 0.0472
32.4400 10.7974 0.0465
32.4600 10.8041 0.0472
32.4800 10.8108 0.0420
32.5000 10.8175 0.0483
32.5200 10.8242 0.0513
32.5400 10.8308 0.0369
32.5600 10.8375 0.0466
32.5800 10.8441 0.0454
32.6000 10.8507 0.0408
32.6200 10.8574 0.0500
32.6400 10.8641 0.0463
32.6600 10.8708 0.0402
32.6800 10.8775 0.0495
32.7000 10.8841 0.0414
32.7200 10.8908 0.0436
32.7400 10.8975 0.0445
32.7600 10.9041 0.0415
32.7800 10.9107 0.0369
32.8000 10.9174 0.0499
32.8200 10.9241 0.0396
32.8400 10.9308 0.0407
32.8600 10.9375 0.0454
32.8800 10.9441 0.0366
32.9000 10.9508 0.0441
32.9200 10.9575 0.0420
32.9400 10.9641 0.0417
32.9600 10.9707 0.0421
32.9800 10.9774 0.0417
33.0000 10.9840 0.0396
33.0200 10.9908 0.0432
33.0400 10.9975 0.0395
33.0600 11.0042 0.0365
33.0800 11.0108 0.0375
33.1000 11.0175 0.0447
33.1200 11.0241 0.0392
33.1400 11.0307 0.0380
33.1600 11.0374 0.0411
33.1800 11.0441 0.0400
33.2000 11.0508 0.0365
33.2200 11.0575 0.0361
33.2400 11.0642 0.0439
33.2600 11.0709 0.0346
33.2800 11.0775 0.0327
33.3000 11.0841 0.0376
33.3200 11.0907 0.0399
33.3400 11.0974 0.0363
33.3600 11.1041 0.0425
33.3800 11.1108 0.0310
33.4000 11.1175 0.0351
33.4200 11.1241 0.0455
33.4400 11.1308 0.0310
33.4600 11.1375 0.0322
33.4800 11.1441 0.0464
33.5000 11.1507 0.0287
33.5200 11.1574 0.0354
33.5400 11.1640 0.0436
33.5600 11.1708 0.0278
33.5800 11.1774 0.0368
33.6000 11.1841 0.0405
33.6200 11.1908 0.0307
33.6400 11.1975 0.0420
33.6600 11.2041 0.0380
33.6800 11.2107 0.0219
33.7000 11.2174 0.0453
33.7200 11.2241 0.0364
33.7400 11.2308 0.0251
33.7600 11.2375 0.0442
33.7800 11.2442 0.0338
33.8000 11.2509 0.0267
33.8200 11.2575 0.0454
33.8400 11.2641 0.0293
33.8600 11.2707 0.0273
33.8800 11.2774 0.0448
33.9000 11.2841 0.0295
33.9200 11.2908 0.0293
33.9400 11.2975 0.0446
33.9600 11.3042 0.0264
33.9800 11.3109 0.0321
34.0000 11.3175 0.0408
34.0200 11.3242 0.0254
34.0400 11.3308 0.0362
34.0600 11.3374 0.0403
34.0800 11.3440 0.0263
34.1000 11.3507 0.0333
34.1200 11.3574 0.0383
34.1400 11.3641 0.0226
34.1600 11.3708 0.0374
34.1800 11.3775 0.0339
34.2000 11.3841 0.0263
34.2200 11.3907 0.0372
34.2400 11.3973 0.0344
34.2600 11.4040 0.0269
34.2800 11.4108 0.0367
34.3000 11.4175 0.0304
34.3200 11.4241 0.0295
34.3400 11.4308 0.0317
34.3600 11.4375 0.0273
34.3800 11.4441 0.0253
34.4000 11.4507 0.0392
34.4200 11.4574 0.0265
34.4400 11.4641 0.0290
34.4600 11.4708 0.0353
34.4800 11.4775 0.0227
34.5000 11.4842 0.0280
34.5200 11.4909 0.0331
34.5400 11.4975 0.0267
34.5600 11.5042 0.0249
34.5800 11.5108 0.0349
34.6000 11.5174 0.0266
34.6200 11.5241 0.0304
34.6400 11.5308 0.0316
34.6600 11.5375 0.0265
34.6800 11.5442 0.0320
34.7000 11.5509 0.0249
34.7200 11.5575 0.0242
34.7400 11.5641 0.0311
34.7600 11.5707 0.0230
34.7800 11.5774 0.0304
34.8000 11.5841 0.0306
34.8200 11.5908 0.0269
34.8400 11.5975 0.0273
34.8600 11.6041 0.0343
34.8800 11.6108 0.0223
34.9000 11.6175 0.0277
34.9200 11.6241 0.0346
34.9400 11.6307 0.0201
34.9600 11.6373 0.0309
34.9800 11.6440 0.0304
35.0000 11.6507 0.0230
35.0200 11.6574 0.0345
35.0400 11.6641 0.0260
35.0600 11.6708 0.0244
35.0800 11.6775 0.0333
35.1000 11.6842 0.0208
35.1200 11.6908 0.0259
35.1400 11.6974 0.0345
35.1600 11.7040 0.0256
35.1800 11.7108 0.0273
35.2000 11.7175 0.0321
35.2200 11.7242 0.0196
35.2400 11.7309 0.0348
35.2600 11.7375 0.0246
35.2800 11.7442 0.0159
35.3000 11.7508 0.0336
35.3200 11.7574 0.0275
35.3400 11.7641 0.0174
35.3600 11.7708 0.0334
35.3800 11.7775 0.0245
35.4000 11.7842 0.0169
35.4200 11.7908 0.0354
35.4400 11.7975 0.0215
35.4600 11.8042 0.0195
35.4800 11.8108 0.0333
35.5000 11.8174 0.0215
35.5200 11.8241 0.0211
35.5400 11.8308 0.0325
35.5600 11.8375 0.0189
35.5800 11.8441 0.0246
35.6000 11.8508 0.0293
35.6200 11.8575 0.0225
35.6400 11.8642 0.0251
35.6600 11.8708 0.0231
35.6800 11.8774 0.0175
35.7000 11.8840 0.0288
35.7200 11.8907 0.0268
35.7400 11.8974 0.0140
35.7600 11.9041 0.0236
35.7800 11.9108 0.0233
35.8000 11.9175 0.0235
35.8200 11.9241 0.0243
35.8400 11.9307 0.0197
35.8600 11.9374 0.0288
35.8800 11.9440 0.0198
35.9000 11.9507 0.0197
35.9200 11.9575 0.0248
35.9400 11.9641 0.0148
35.9600 11.9708 0.0211
35.9800 11.9775 0.0173
36.0000 11.9842 0.0166
36.0200 11.9908 0.0242
36.0400 11.9974 0.0231
36.0600 12.0041 0.0096
36.0800 12.0108 0.0242
36.1000 12.0175 0.0195
36.1200 12.0241 0.0067
36.1400 12.0308 0.0254
36.1600 12.0375 0.0254
36.1800 12.0442 0.0017
36.2000 12.0508 0.0230
36.2200 12.0574 0.0196
36.2400 12.0640 0.0128
36.2600 12.0708 0.0253
36.2800 12.0775 0.0157
36.3000 12.0842 0.0109
36.3200 12.0908 0.0212
36.3400 12.0975 0.0167
36.3600 12.1041 0.0091
36.3800 12.1108 0.0226
36.4000 12.1174 0.0109
36.4200 12.1240 0.0152
36.4400 12.1307 0.0229
36.4600 12.1374 0.0109
36.4800 12.1441 0.0144
36.5000 12.1508 0.0165
36.5200 12.1575 0.0083
36.5400 12.1641 0.0133
36.5600 12.1708 0.0156
36.5800 12.1774 0.0129
36.6000 12.1840 0.0177
36.6200 12.1908 0.0165
36.6400 12.1975 0.0117
36.6600 12.2042 0.0128
36.6800 12.2109 0.0110
36.7000 12.2175 0.0122
36.7200 12.2242 0.0112
36.7400 12.2308 0.0099
36.7600 12.2374 0.0169
36.7800 12.2441 0.0045
36.8000 12.2508 0.0157
36.8200 12.2575 0.0140
36.8400 12.2642 0.0085
36.8600 12.2708 0.0156
36.8800 12.2775 0.0118
36.9000 12.2841 0.0029
36.9200 12.2908 0.0142
36.9400 12.2974 0.0099
36.9600 12.3040 0.0064
36.9800 12.3107 0.0163
37.0000 12.3174 0.0080
37.0200 12.3241 0.0022
37.0400 12.3308 0.0180
37.0600 12.3375 0.0094
37.0800 12.3442 0.0042
37.1000 12.3508 0.0137
37.1200 12.3574 0.0033
37.1400 12.3640 0.0045
37.1600 12.3707 0.0133
37.1800 12.3774 0.0028
37.2000 12.3841 0.0031
37.2200 12.3908 0.0135
37.2400 12.3975 0.0026
37.2600 12.4042 0.0068
37.2800 12.4108 0.0053
37.3000 12.4174 0.0054
37.3200 12.4241 0.0122
37.3400 12.4308 0.0084
37.3600 12.4375 0.0023
37.3800 12.4442 0.0080
37.4000 12.4508 0.0024
37.4200 12.4575 0.0067
37.4400 12.4642 0.0153
37.4600 12.4708 0.0000
37.4800 12.4774 -0.0004
37.5000 12.4841 0.0102
37.5200 12.4908 0.0029
37.5400 12.4975 0.0060
37.5600 12.5042 0.0051
37.5800 12.5108 -0.0014
37.6000 12.5175 0.0078
37.6200 12.5242 0.0042
37.6400 12.5308 0.0040
37.6600 12.5374 0.0056
37.6800 12.5440 0.0017
37.7000 12.5507 -0.0046
37.7200 12.5574 0.0105
37.7400 12.5641 -0.0023
37.7600 12.5708 0.0046
37.7800 12.5775 0.0008
37.8000 12.5842 0.0007
37.8200 12.5907 0.0047
37.8400 12.5973 -0.0012
37.8600 12.6040 -0.0031
37.8800 12.6107 0.0046
37.9000 12.6174 -0.0037
37.9200 12.6241 -0.0045
37.9400 12.6308 0.0069
37.9600 12.6375 -0.0036
37.9800 12.6441 -0.0025
38.0000 12.6508 0.0010
38.0200 12.6574 -0.0010
38.0400 12.6640 -0.0060
38.0600 12.6707 0.0016
38.0800 12.6775 -0.0002
38.1000 12.6842 -0.0086
38.1200 12.6908 -0.0013
38.1400 12.6975 -0.0028
38.1600 12.7042 -0.0049
38.1800 12.7108 0.0017
38.2000 12.7174 -0.0082
38.2200 12.7240 -0.0043
38.2400 12.7307 0.0037
38.2600 12.7375 -0.0069
38.2800 12.7442 -0.0075
38.3000 12.7509 0.0002
38.3200 12.7575 -0.0074
38.3400 12.7642 -0.0098
38.3600 12.7708 -0.0019
38.3800 12.7774 -0.0076
38.4000 12.7840 -0.0034
38.4200 12.7907 0.0003
38.4400 12.7975 -0.0136
38.4600 12.8041 -0.0026
38.4800 12.8108 -0.0034
38.5000 12.8175 -0.0183
38.5200 12.8242 0.0033
38.5400 12.8308 -0.0071
38.5600 12.8374 -0.0121
38.5800 12.8441 -0.0006
38.6000 12.8507 -0.0098
38.6200 12.8574 -0.0127
38.6400 12.8641 0.0044
38.6600 12.8708 -0.0127
38.6800 12.8774 -0.0132
38.7000 12.8841 -0.0015
38.7200 12.8908 -0.0132
38.7400 12.8974 -0.0103
38.7600 12.9040 -0.0049
38.7800 12.9107 -0.0152
38.8000 12.9174 -0.0077
38.8200 12.9241 -0.0049
38.8400 12.9308 -0.0114
38.8600 12.9375 -0.0089
38.8800 12.9442 -0.0098
38.9000 12.9508 -0.0160
38.9200 12.9574 -0.0076
38.9400 12.9640 -0.0069
38.9600 12.9707 -0.0169
38.9800 12.9775 -0.0053
39.0000 12.9842 -0.0130
39.0200 12.9909 -0.0107
39.0400 12.9975 -0.0026
39.0600 13.0042 -0.0149
39.0800 13.0108 -0.0152
39.1000 13.0174 -0.0068
39.1200 13.0240 -0.0138
39.1400 13.0307 -0.0074
39.1600 13.0374 -0.0071
39.1800 13.0441 -0.0097
39.2000 13.0508 -0.0150
39.2200 13.0575 -0.0109
39.2400 13.0642 -0.0056
39.2600 13.0708 -0.0112
39.2800 13.0774 -0.0146
39.3000 13.0840 -0.0119
39.3200 13.0907 -0.0085
39.3400 13.0974 -0.0182
39.3600 13.1041 -0.0114
39.3800 13.1108 -0.0090
39.4000 13.1175 -0.0095
39.4200 13.1242 -0.0130
39.4400 13.1308 -0.0127
39.4600 13.1374 -0.0146
39.4800 13.1441 -0.0136
39.5000 13.1507 -0.0150
39.5200 13.1575 -0.0143
39.5400 13.1641 -0.0088
39.5600 13.1708 -0.0168
39.5800 13.1775 -0.0179
39.6000 13.1842 -0.0061
39.6200 13.1908 -0.0203
39.6400 13.1974 -0.0198
39.6600 13.2041 -0.0074
39.6800 13.2107 -0.0202
39.7000 13.2174 -0.0174
39.7200 13.2241 -0.0115
39.7400 13.2308 -0.0212
39.7600 13.2375 -0.0186
39.7800 13.2442 -0.0093
39.8000 13.2508 -0.0228
39.8200 13.2574 -0.0199
39.8400 13.2640 -0.0136
39.8600 13.2707 -0.0205
39.8800 13.2774 -0.0197
39.9000 13.2842 -0.0145
39.9200 13.2909 -0.0247
39.9400 13.2975 -0.0163
39.9600 13.3042 -0.0151
39.9800 13.3108 -0.0207
40.0000 13.3174 -0.0231
40.0200 13.3240 -0.0117
40.0400 13.3307 -0.0147
40.0600 13.3374 -0.0282
40.0800 13.3441 -0.0170
40.1000 13.3508 -0.0221
40.1200 13.3574 -0.0263
40.1400 13.3641 -0.0139
40.1600 13.3708 -0.0217
40.1800 13.3774 -0.0223
40.2000 13.3840 -0.0158
40.2200 13.3907 -0.0239
40.2400 13.3974 -0.0208
40.2600 13.4041 -0.0173
40.2800 13.4109 -0.0253
40.3000 13.4176 -0.0272
40.3200 13.4243 -0.0176
40.3400 13.4309 -0.0257
40.3600 13.4375 -0.0237
40.3800 13.4440 -0.0185
40.4000 13.4507 -0.0243
40.4200 13.4574 -0.0238
40.4400 13.4642 -0.0193
40.4600 13.4709 -0.0226
40.4800 13.4775 -0.0230
40.5000 13.4842 -0.0292
40.5200 13.4908 -0.0252
40.5400 13.4974 -0.0228
40.5600 13.5040 -0.0243
40.5800 13.5107 -0.0299
40.6000 13.5174 -0.0274
40.6200 13.5241 -0.0204
40.6400 13.5308 -0.0280
40.6600 13.5375 -0.0239
40.6800 13.5441 -0.0260
40.7000 13.5508 -0.0291
40.7200 13.5574 -0.0289
40.7400 13.5640 -0.0215
40.7600 13.5707 -0.0299
40.7800 13.5774 -0.0290
40.8000 13.5841 -0.0248
40.8200 13.5908 -0.0285
40.8400 13.5975 -0.0291
40.8600 13.6042 -0.0259
40.8800 13.6108 -0.0335
40.9000 13.6174 -0.0289
40.9200 13.6240 -0.0287
40.9400 13.6307 -0.0339
40.9600 13.6374 -0.0274
40.9800 13.6441 -0.0264
41.0000 13.6508 -0.0314
41.0200 13.6575 -0.0290
41.0400 13.6642 -0.0284
41.0600 13.6709 -0.0346
41.0800 13.6775 -0.0231
41.1000 13.6841 -0.0304
41.1200 13.6908 -0.0349
41.1400 13.6974 -0.0245
41.1600 13.7041 -0.0321
41.1800 13.7108 -0.0369
41.2000 13.7175 -0.0264
41.2200 13.7242 -0.0294
41.2400 13.7309 -0.0339
41.2600 13.7375 -0.0355
41.2800 13.7441 -0.0273
41.3000 13.7507 -0.0319
41.3200 13.7574 -0.0333
41.3400 13.7641 -0.0297
41.3600 13.7708 -0.0337
41.3800 13.7775 -0.0351
41.4000 13.7842 -0.0333
41.4200 13.7908 -0.0355
41.4400 13.7974 -0.0321
41.4600 13.8040 -0.0292
41.4800 13.8107 -0.0362
41.5000 13.8174 -0.0328
41.5200 13.8241 -0.0296
41.5400 13.8308 -0.0335
41.5600 13.8374 -0.0329
41.5800 13.8441 -0.0268
41.6000 13.8508 -0.0351
41.6200 13.8575 -0.0314
41.6400 13.8641 -0.0335
41.6600 13.8707 -0.0344
41.6800 13.8774 -0.0294
41.7000 13.8841 -0.0325
41.7200 13.8908 -0.0410
41.7400 13.8975 -0.0294
41.7600 13.9042 -0.0350
41.7800 13.9109 -0.0370
41.8000 13.9175 -0.0333
41.8200 13.9241 -0.0358
41.8400 13.9307 -0.0312
41.8600 13.9374 -0.0310
41.8800 13.9441 -0.0356
41.9000 13.9508 -0.0371
41.9200 13.9575 -0.0291
41.9400 13.9642 -0.0364
41.9600 13.9708 -0.0385
41.9800 13.9775 -0.0290
42.0000 13.9841 -0.0340
42.0200 13.9907 -0.0405
42.0400 13.9974 -0.0284
42.0600 14.0041 -0.0403
42.0800 14.0108 -0.0357
42.1000 14.0175 -0.0326
42.1200 14.0242 -0.0394
42.1400 14.0308 -0.0414
42.1600 14.0375 -0.0309
42.1800 14.0441 -0.0412
42.2000 14.0507 -0.0367
42.2200 14.0574 -0.0368
42.2400 14.0641 -0.0437
42.2600 14.0708 -0.0335
42.2800 14.0775 -0.0320
42.3000 14.0842 -0.0436
42.3200 14.0908 -0.0414
42.3400 14.0975 -0.0348
42.3600 14.1041 -0.0414
42.3800 14.1107 -0.0302
42.4000 14.1174 -0.0372
42.4200 14.1241 -0.0410
42.4400 14.1309 -0.0357
42.4600 14.1375 -0.0411
42.4800 14.1442 -0.0454
42.5000 14.1509 -0.0331
42.5200 14.1575 -0.0435
42.5400 14.1641 -0.0451
42.5600 14.1707 -0.0333
42.5800 14.1774 -0.0418
42.6000 14.1841 -0.0414
42.6200 14.1908 -0.0369
42.6400 14.1975 -0.0461
42.6600 14.2042 -0.0413
42.6800 14.2108 -0.0378
42.7000 14.2175 -0.0458
42.7200 14.2241 -0.0426
42.7400 14.2307 -0.0408
42.7600 14.2374 -0.0452
42.7800 14.2441 -0.0429
42.8000 14.2508 -0.0451
42.8200 14.2575 -0.0441
42.8400 14.2642 -0.0440
42.8600 14.2709 -0.0483
42.8800 14.2775 -0.0424
42.9000 14.2841 -0.0455
42.9200 14.2907 -0.0449
42.9400 14.2974 -0.0438
42.9600 14.3041 -0.0473
42.9800 14.3108 -0.0426
43.0000 14.3175 -0.0382
43.0200 14.3242 -0.0510
43.0400 14.3308 -0.0425
43.0600 14.3375 -0.0455
43.0800 14.3441 -0.0516
43.1000 14.3507 -0.0434
43.1200 14.3574 -0.0422
43.1400 14.3641 -0.0527
43.1600 14.3708 -0.0453
43.1800 14.3775 -0.0427
43.2000 14.3842 -0.0507
43.2200 14.3908 -0.0472
43.2400 14.3975 -0.0479
43.2600 14.4041 -0.0509
43.2800 14.4107 -0.0413
43.3000 14.4174 -0.0457
43.3200 14.4241 -0.0544
43.3400 14.4308 -0.0436
43.3600 14.4375 -0.0455
43.3800 14.4442 -0.0542
43.4000 14.4509 -0.0476
43.4200 14.4575 -0.0456
43.4400 14.4641 -0.0593
43.4600 14.4707 -0.0461
43.4800 14.4774 -0.0449
43.5000 14.4841 -0.0509
43.5200 14.4908 -0.0490
43.5400 14.4975 -0.0489
43.5600 14.5041 -0.0547
43.5800 14.5108 -0.0457
43.6000 14.5175 -0.0496
43.6200 14.5241 -0.0580
43.6400 14.5307 -0.0497
43.6600 14.5374 -0.0497
43.6800 14.5441 -0.0549
43.7000 14.5508 -0.0509
43.7200 14.5574 -0.0481
43.7400 14.5641 -0.0551
43.7600 14.5708 -0.0502
43.7800 14.5775 -0.0523
43.8000 14.5841 -0.0542
43.8200 14.5907 -0.0523
43.8400 14.5974 -0.0492
43.8600 14.6041 -0.0587
43.8800 14.6108 -0.0567
43.9000 14.6175 -0.0506
43.9200 14.6242 -0.0540
43.9400 14.6309 -0.0600
43.9600 14.6375 -0.0508
43.9800 14.6441 -0.0535
44.0000 14.6507 -0.0573
44.0200 14.6574 -0.0517
44.0400 14.6641 -0.0596
44.0600 14.6708 -0.0563
44.0800 14.6775 -0.0568
44.1000 14.6842 -0.0621
44.1200 14.6908 -0.0548
44.1400 14.6975 -0.0533
44.1600 14.7041 -0.0625
44.1800 14.7107 -0.0533
44.2000 14.7174 -0.0548
44.2200 14.7241 -0.0610
44.2400 14.7308 -0.0558
44.2600 14.7375 -0.0538
44.2800 14.7442 -0.0658
44.3000 14.7509 -0.0582
44.3200 14.7575 -0.0583
44.3400 14.7641 -0.0640
44.3600 14.7707 -0.0544
44.3800 14.7773 -0.0546
44.4000 14.7840 -0.0622
44.4200 14.7908 -0.0545
44.4400 14.7974 -0.0634
44.4600 14.8041 -0.0636
44.4800 14.8108 -0.0514
44.5000 14.8174 -0.0668
44.5200 14.8240 -0.0675
44.5400 14.8307 -0.0516
44.5600 14.8374 -0.0608
44.5800 14.8441 -0.0697
44.6000 14.8508 -0.0533
44.6200 14.8575 -0.0620
44.6400 14.8642 -0.0682
44.6600 14.8709 -0.0586
44.6800 14.8775 -0.0672
44.7000 14.8841 -0.0700
44.7200 14.8908 -0.0514
44.7400 14.8974 -0.0704
44.7600 14.9041 -0.0661
44.7800 14.9108 -0.0600
44.8000 14.9175 -0.0638
44.8200 14.9242 -0.0685
44.8400 14.9309 -0.0608
44.8600 14.9375 -0.0634
44.8800 14.9441 -0.0701
44.9000 14.9507 -0.0568
44.9200 14.9574 -0.0673
44.9400 14.9640 -0.0665
44.9600 14.9708 -0.0589
44.9800 14.9774 -0.0655
45.0000 14.9841 -0.0711
45.0200 14.9908 -0.0659
45.0400 14.9975 -0.0569
45.0600 15.0041 -0.0720
45.0800 15.0107 -0.0725
45.1000 15.0174 -0.0541
45.1200 15.0241 -0.0741
45.1400 15.0308 -0.0707
45.1600 15.0375 -0.0648
45.1800 15.0441 -0.0675
45.2000 15.0508 -0.0677
45.2200 15.0575 -0.0666
45.2400 15.0641 -0.0698
45.2600 15.0708 -0.0641
45.2800 15.0774 -0.0718
45.3000 15.0841 -0.0715
45.3200 15.0908 -0.0630
45.3400 15.0975 -0.0744
45.3600 15.1042 -0.0685
45.3800 15.1109 -0.0609
45.4000 15.1175 -0.0833
45.4200 15.1241 -0.0645
45.4400 15.1307 -0.0626
45.4600 15.1374 -0.0837
45.4800 15.1441 -0.0617
45.5000 15.1508 -0.0692
45.5200 15.1575 -0.0811
45.5400 15.1642 -0.0623
45.5600 15.1709 -0.0702
45.5800 15.1775 -0.0817
45.6000 15.1841 -0.0578
45.6200 15.1907 -0.0794
45.6400 15.1974 -0.0771
45.6600 15.2041 -0.0580
45.6800 15.2108 -0.0843
45.7000 15.2175 -0.0739
45.7200 15.2241 -0.0582
45.7400 15.2308 -0.0850
45.7600 15.2375 -0.0708
45.7800 15.2441 -0.0658
45.8000 15.2507 -0.0777
45.8200 15.2574 -0.0674
45.8400 15.2640 -0.0728
45.8600 15.2707 -0.0747
45.8800 15.2774 -0.0684
45.9000 15.2841 -0.0727
45.9200 15.2908 -0.0800
45.9400 15.2975 -0.0650
45.9600 15.3041 -0.0794
45.9800 15.3107 -0.0749
46.0000 15.3174 -0.0673
46.0200 15.3241 -0.0773
46.0400 15.3308 -0.0732
46.0600 15.3375 -0.0695
46.0800 15.3442 -0.0781
46.1000 15.3509 -0.0688
46.1200 15.3575 -0.0765
46.1400 15.3641 -0.0735
46.1600 15.3707 -0.0693
46.1800 15.3774 -0.0795
46.2000 15.3841 -0.0747
46.2200 15.3908 -0.0700
46.2400 15.3975 -0.0835
46.2600 15.4042 -0.0723
46.2800 15.4109 -0.0701
46.3000 15.4175 -0.0883
46.3200 15.4241 -0.0683
46.3400 15.4307 -0.0748
46.3600 15.4374 -0.0848
46.3800 15.4440 -0.0672
46.4000 15.4508 -0.0796
46.4200 15.4575 -0.0861
46.4400 15.4642 -0.0642
46.4600 15.4709 -0.0818
46.4800 15.4775 -0.0856
46.5000 15.4841 -0.0630
46.5200 15.4907 -0.0856
46.5400 15.4973 -0.0867
46.5600 15.5040 -0.0646
46.5800 15.5107 -0.0865
46.6000 15.5174 -0.0820
46.6200 15.5241 -0.0685
46.6400 15.5308 -0.0874
46.6600 15.5375 -0.0821
46.6800 15.5441 -0.0727
46.7000 15.5507 -0.0874
46.7200 15.5574 -0.0777
46.7400 15.5641 -0.0745
46.7600 15.5708 -0.0899
46.7800 15.5775 -0.0808
46.8000 15.5841 -0.0809
46.8200 15.5909 -0.0829
46.8400 15.5976 -0.0802
46.8600 15.6042 -0.0806
46.8800 15.6108 -0.0894
46.9000 15.6174 -0.0808
46.9200 15.6241 -0.0867
46.9400 15.6308 -0.0822
46.9600 15.6375 -0.0807
46.9800 15.6442 -0.0874
47.0000 15.6509 -0.0835
47.0200 15.6575 -0.0864
47.0400 15.6641 -0.0892
47.0600 15.6707 -0.0784
47.0800 15.6774 -0.0888
47.1000 15.6841 -0.0837
47.1200 15.6908 -0.0829
47.1400 15.6975 -0.0960
47.1600 15.7042 -0.0853
47.1800 15.7108 -0.0818
47.2000 15.7175 -0.0969
47.2200 15.7241 -0.0842
47.2400 15.7307 -0.0818
47.2600 15.7374 -0.0953
47.2800 15.7441 -0.0810
47.3000 15.7508 -0.0885
47.3200 15.7575 -0.0957
47.3400 15.7641 -0.0822
47.3600 15.7708 -0.0903
47.3800 15.7775 -0.0977
47.4000 15.7842 -0.0783
47.4200 15.7908 -0.0907
47.4400 15.7974 -0.0943
47.4600 15.8041 -0.0846
47.4800 15.8108 -0.0902
47.5000 15.8175 -0.0953
47.5200 15.8242 -0.0860
47.5400 15.8308 -0.0931
47.5600 15.8375 -0.0911
47.5800 15.8441 -0.0906
47.6000 15.8507 -0.0895
47.6200 15.8574 -0.0911
47.6400 15.8641 -0.0911
47.6600 15.8708 -0.0928
47.6800 15.8775 -0.0975
47.7000 15.8842 -0.0866
47.7200 15.8909 -0.0895
47.7400 15.8975 -0.0966
47.7600 15.9042 -0.0924
47.7800 15.9108 -0.0922
47.8000 15.9174 -0.0948
47.8200 15.9241 -0.0912
47.8400 15.9308 -0.0912
47.8600 15.9375 -0.0935
47.8800 15.9441 -0.0964
47.9000 15.9508 -0.0869
47.9200 15.9575 -0.0939
47.9400 15.9641 -0.0934
47.9600 15.9707 -0.0913
47.9800 15.9774 -0.0963
48.0000 15.9840 -0.0956
48.0200 15.9907 -0.0894
48.0400 15.9974 -0.0942
48.0600 16.0041 -0.0951
48.0800 16.0108 -0.0910
48.1000 16.0175 -0.0990
48.1200 16.0241 -0.0920
48.1400 16.0307 -0.0920
48.1600 16.0374 -0.0996
48.1800 16.0441 -0.0925
48.2000 16.0508 -0.0875
48.2200 16.0575 -0.1067
48.2400 16.0642 -0.0929
48.2600 16.0709 -0.0920
48.2800 16.0775 -0.1033
48.3000 16.0842 -0.0960
48.3200 16.0908 -0.0919
48.3400 16.0974 -0.1055
48.3600 16.1041 -0.0919
48.3800 16.1108 -0.0929
48.4000 16.1175 -0.1100
48.4200 16.1242 -0.0925
48.4400 16.1309 -0.0906
48.4600 16.1375 -0.1106
48.4800 16.1442 -0.0891
48.5000 16.1508 -0.0937
48.5200 16.1574 -0.1084
48.5400 16.1640 -0.0892
48.5600 16.1707 -0.0940
48.5800 16.1774 -0.1060
48.6000 16.1841 -0.0920
48.6200 16.1908 -0.0937
48.6400 16.1975 -0.1100
48.6600 16.2041 -0.0889
48.6800 16.2107 -0.0986
48.7000 16.2173 -0.1038
48.7200 16.2240 -0.0936
48.7400 16.2307 -0.1011
48.7600 16.2375 -0.1084
48.7800 16.2441 -0.0904
48.8000 16.2508 -0.0967
48.8200 16.2575 -0.1058
48.8400 16.2641 -0.0954
48.8600 16.2707 -0.0990
48.8800 16.2774 -0.1076
48.9000 16.2841 -0.0932
48.9200 16.2908 -0.0961
48.9400 16.2975 -0.1080
48.9600 16.3042 -0.0971
48.9800 16.3108 -0.0980
49.0000 16.3175 -0.1052
49.0200 16.3242 -0.1043
49.0400 16.3308 -0.0961
49.0600 16.3374 -0.1051
49.0800 16.3441 -0.1012
49.1000 16.3508 -0.0988
49.1200 16.3575 -0.1029
49.1400 16.3642 -0.1014
49.1600 16.3709 -0.0999
49.1800 16.3775 -0.1080
49.2000 16.3841 -0.1005
49.2200 16.3907 -0.0999
49.2400 16.3974 -0.1046
49.2600 16.4040 -0.1064
49.2800 16.4107 -0.1004
49.3000 16.4174 -0.1049
49.3200 16.4241 -0.1100
49.3400 16.4308 -0.0986
49.3600 16.4375 -0.1033
49.3800 16.4441 -0.1126
49.4000 16.4507 -0.1027
49.4200 16.4574 -0.1005
49.4400 16.4640 -0.1127
49.4600 16.4707 -0.1002
49.4800 16.4774 -0.1069
49.5000 16.4841 -0.1135
49.5200 16.4908 -0.0994
49.5400 16.4975 -0.1098
49.5600 16.5042 -0.1104
49.5800 16.5108 -0.0992
49.6000 16.5174 -0.1095
49.6200 16.5240 -0.1052
49.6400 16.5308 -0.1048
49.6600 16.5375 -0.1067
49.6800 16.5442 -0.1122
49.7000 16.5509 -0.1032
49.7200 16.5575 -0.1078
49.7400 16.5642 -0.1130
49.7600 16.5708 -0.1080
49.7800 16.5774 -0.1088
49.8000 16.5841 -0.1111
49.8200 16.5908 -0.1083
49.8400 16.5975 -0.1071
49.8600 16.6042 -0.1130
49.8800 16.6108 -0.1078
49.9000 16.6175 -0.1070
49.9200 16.6242 -0.1115
49.9400 16.6308 -0.1100
49.9600 16.6374 -0.1077
49.9800 16.6441 -0.1168
50.0000 16.6507 -0.1071
50.0200 16.6574 -0.1133
50.0400 16.6641 -0.1139
50.0600 16.6708 -0.1083
50.0800 16.6775 -0.1099
50.1000 16.6842 -0.1131
50.1200 16.6908 -0.1172
50.1400 16.6974 -0.1124
50.1600 16.7040 -0.1113
50.1800 16.7107 -0.1140
50.2000 16.7174 -0.1111
50.2200 16.7241 -0.1147
50.2400 16.7308 -0.1170
50.2600 16.7375 -0.1076
50.2800 16.7441 -0.1175
50.3000 16.7508 -0.1176
50.3200 16.7574 -0.1114
50.3400 16.7640 -0.1125
50.3600 16.7707 -0.1204
50.3800 16.7774 -0.1097
50.4000 16.7841 -0.1179
50.4200 16.7908 -0.1174
50.4400 16.7975 -0.1136
50.4600 16.8042 -0.1190
50.4800 16.8108 -0.1217
50.5000 16.8174 -0.1106
50.5200 16.8241 -0.1209
50.5400 16.8308 -0.1228
50.5600 16.8375 -0.1158
50.5800 16.8442 -0.1207
50.6000 16.8508 -0.1247
50.6200 16.8575 -0.1137
50.6400 16.8642 -0.1245
50.6600 16.8708 -0.1217
50.6800 16.8774 -0.1146
50.7000 16.8841 -0.1207
50.7200 16.8908 -0.1186
50.7400 16.8975 -0.1222
50.7600 16.9042 -0.1236
50.7800 16.9108 -0.1176
50.8000 16.9175 -0.1160
50.8200 16.9242 -0.1326
50.8400 16.9308 -0.1230
50.8600 16.9374 -0.1151
50.8800 16.9440 -0.1270
50.9000 16.9507 -0.1247
50.9200 16.9574 -0.1200
50.9400 16.9641 -0.1324
50.9600 16.9708 -0.1229
50.9800 16.9775 -0.1167
51.0000 16.9841 -0.1274
51.0200 16.9908 -0.1276
51.0400 16.9974 -0.1168
51.0600 17.0040 -0.1340
51.0800 17.0107 -0.1219
51.1000 17.0174 -0.1199
51.1200 17.0242 -0.1372
51.1400 17.0309 -0.1218
51.1600 17.0375 -0.1250
51.1800 17.0442 -0.1308
51.2000 17.0508 -0.1210
51.2200 17.0574 -0.1215
51.2400 17.0640 -0.1344
51.2600 17.0708 -0.1218
51.2800 17.0775 -0.1241
51.3000 17.0842 -0.1296
51.3200 17.0908 -0.1292
51.3400 17.0975 -0.1261
51.3600 17.1042 -0.1328
51.3800 17.1108 -0.1281
51.4000 17.1174 -0.1266
51.4200 17.1240 -0.1295
51.4400 17.1307 -0.1303
51.4600 17.1374 -0.1275
51.4800 17.1441 -0.1311
51.5000 17.1508 -0.1262
51.5200 17.1575 -0.1233
51.5400 17.1642 -0.1342
51.5600 17.1708 -0.1351
51.5800 17.1774 -0.1171
51.6000 17.1840 -0.1377
51.6200 17.1907 -0.1366
51.6400 17.1974 -0.1183
51.6600 17.2041 -0.1389
51.6800 17.2108 -0.1258
51.7000 17.2175 -0.1269
51.7200 17.2242 -0.1353
51.7400 17.2308 -0.1326
51.7600 17.2374 -0.1230
51.7800 17.2440 -0.1376
51.8000 17.2507 -0.1305
51.8200 17.2574 -0.1307
51.8400 17.2641 -0.1385
51.8600 17.2708 -0.1281
51.8800 17.2775 -0.1295
51.9000 17.2842 -0.1359
51.9200 17.2908 -0.1347
51.9400 17.2974 -0.1311
51.9600 17.3041 -0.1342
51.9800 17.3108 -0.1360
52.0000 17.3175 -0.1305
52.0200 17.3242 -0.1347
52.0400 17.3308 -0.1399
52.0600 17.3375 -0.1282
52.0800 17.3442 -0.1352
52.1000 17.3508 -0.1424
52.1200 17.3574 -0.1313
52.1400 17.3640 -0.1327
52.1600 17.3707 -0.1435
52.1800 17.3774 -0.1258
52.2000 17.3841 -0.1366
52.2200 17.3908 -0.1451
52.2400 17.3975 -0.1258
52.2600 17.4042 -0.1367
52.2800 17.4108 -0.1458
52.3000 17.4174 -0.1221
52.3200 17.4240 -0.1404
52.3400 17.4307 -0.1448
52.3600 17.4374 -0.1283
52.3800 17.4441 -0.1404
52.4000 17.4507 -0.1478
52.4200 17.4574 -0.1311
52.4400 17.4641 -0.1411
52.4600 17.4708 -0.1449
52.4800 17.4774 -0.1278
52.5000 17.4840 -0.1432
52.5200 17.4907 -0.1433
52.5400 17.4974 -0.1317
52.5600 17.5042 -0.1423
52.5800 17.5108 -0.1427
52.6000 17.5175 -0.1332
52.6200 17.5242 -0.1444
52.6400 17.5308 -0.1425
52.6600 17.5374 -0.1355
52.6800 17.5441 -0.1440
52.7000 17.5507 -0.1407
52.7200 17.5575 -0.1414
52.7400 17.5642 -0.1460
52.7600 17.5709 -0.1383
52.7800 17.5775 -0.1452
52.8000 17.5842 -0.1428
52.8200 17.5908 -0.1381
52.8400 17.5974 -0.1450
52.8600 17.6040 -0.1391
52.8800 17.6107 -0.1394
52.9000 17.6174 -0.1468
52.9200 17.6241 -0.1383
52.9400 17.6308 -0.1440
52.9600 17.6375 -0.1478
52.9800 17.6442 -0.1343
53.0000 17.6508 -0.1509
53.0200 17.6574 -0.1463
53.0400 17.6641 -0.1336
53.0600 17.6707 -0.1487
53.0800 17.6774 -0.1500
53.1000 17.6841 -0.1386
53.1200 17.6908 -0.1508
53.1400 17.6975 -0.1477
53.1600 17.7041 -0.1408
53.1800 17.7108 -0.1507
53.2000 17.7174 -0.1477
53.2200 17.7240 -0.1414
53.2400 17.7307 -0.1525
53.2600 17.7374 -0.1440
53.2800 17.7442 -0.1456
53.3000 17.7508 -0.1500
53.3200 17.7575 -0.1419
53.3400 17.7642 -0.1480
53.3600 17.7708 -0.1488
53.3800 17.7774 -0.1485
53.4000 17.7841 -0.1487
53.4200 17.7907 -0.1461
53.4400 17.7975 -0.1490
53.4600 17.8042 -0.1542
53.4800 17.8109 -0.1500
53.5000 17.8175 -0.1526
53.5200 17.8242 -0.1477
53.5400 17.8308 -0.1548
53.5600 17.8374 -0.1535
53.5800 17.8441 -0.1482
53.6000 17.8507 -0.1499
53.6200 17.8574 -0.1531
53.6400 17.8641 -0.1487
53.6600 17.8708 -0.1544
53.6800 17.8774 -0.1509
53.7000 17.8841 -0.1509
53.7200 17.8908 -0.1609
53.7400 17.8974 -0.1522
53.7600 17.9040 -0.1493
53.7800 17.9107 -0.1628
53.8000 17.9174 -0.1520
53.8200 17.9241 -0.1504
53.8400 17.9308 -0.1663
53.8600 17.9375 -0.1524
53.8800 17.9441 -0.1502
53.9000 17.9508 -0.1660
53.9200 17.9574 -0.1562
53.9400 17.9640 -0.1494
53.9600 17.9707 -0.1699
53.9800 17.9774 -0.1572
54.0000 17.9841 -0.1546
54.0200 17.9908 -0.1641
54.0400 17.9975 -0.1542
54.0600 18.0042 -0.1574
54.0800 18.0108 -0.1675
54.1000 18.0174 -0.1560
54.1200 18.0240 -0.1561
54.1400 18.0307 -0.1624
54.1600 18.0374 -0.1582
54.1800 18.0441 -0.1568
54.2000 18.0508 -0.1628
54.2200 18.0575 -0.1646
54.2400 18.0642 -0.1593
54.2600 18.0709 -0.1651
54.2800 18.0775 -0.1645
54.3000 18.0841 -0.1593
54.3200 18.0907 -0.1595
54.3400 18.0974 -0.1676
54.3600 18.1042 -0.1536
54.3800 18.1108 -0.1652
54.4000 18.1175 -0.1686
54.4200 18.1242 -0.1552
54.4400 18.1308 -0.1641
54.4600 18.1374 -0.1741
54.4800 18.1440 -0.1530
54.5000 18.1507 -0.1668
54.5200 18.1574 -0.1722
54.5400 18.1641 -0.1560
54.5600 18.1708 -0.1734
54.5800 18.1775 -0.1686
54.6000 18.1841 -0.1612
54.6200 18.1908 -0.1725
54.6400 18.1974 -0.1696
54.6600 18.2040 -0.1567
54.6800 18.2107 -0.1706
54.7000 18.2174 -0.1716
54.7200 18.2241 -0.1662
54.7400 18.2308 -0.1682
54.7600 18.2375 -0.1703
54.7800 18.2442 -0.1638
54.8000 18.2509 -0.1729
54.8200 18.2575 -0.1734
54.8400 18.2641 -0.1704
54.8600 18.2707 -0.1677
54.8800 18.2774 -0.1757
54.9000 18.2842 -0.1700
54.9200 18.2909 -0.1725
54.9400 18.2975 -0.1804
54.9600 18.3042 -0.1683
54.9800 18.3108 -0.1693
55.0000 18.3175 -0.1809
55.0200 18.3241 -0.1691
55.0400 18.3307 -0.1708
55.0600 18.3374 -0.1804
55.0800 18.3441 -0.1721
55.1000 18.3508 -0.1723
55.1200 18.3575 -0.1821
55.1400 18.3642 -0.1691
55.1600 18.3708 -0.1748
55.1800 18.3774 -0.1870
55.2000 18.3840 -0.1681
55.2200 18.3907 -0.1733
55.2400 18.3973 -0.1838
55.2600 18.4041 -0.1803
55.2800 18.4108 -0.1786
55.3000 18.4174 -0.1827
55.3200 18.4241 -0.1779
55.3400 18.4308 -0.1799
55.3600 18.4374 -0.1854
55.3800 18.4440 -0.1769
55.4000 18.4507 -0.1806
55.4200 18.4574 -0.1883
55.4400 18.4642 -0.1752
55.4600 18.4709 -0.1830
55.4800 18.4775 -0.1870
55.5000 18.4842 -0.1737
55.5200 18.4909 -0.1844
55.5400 18.4975 -0.1851
55.5600 18.5041 -0.1824
55.5800 18.5108 -0.1863
55.6000 18.5175 -0.1871
55.6200 18.5241 -0.1785
55.6400 18.5308 -0.1921
55.6600 18.5375 -0.1848
55.6800 18.5442 -0.1775
55.7000 18.5509 -0.1989
55.7200 18.5575 -0.1838
55.7400 18.5641 -0.1772
55.7600 18.5707 -0.1951
55.7800 18.5774 -0.1850
55.8000 18.5841 -0.1772
55.8200 18.5908 -0.1923
55.8400 18.5975 -0.1902
55.8600 18.6042 -0.1808
55.8800 18.6108 -0.1944
55.9000 18.6175 -0.1896
55.9200 18.6240 -0.1856
55.9400 18.6307 -0.1917
55.9600 18.6374 -0.1899
55.9800 18.6441 -0.1880
56.0000 18.6508 -0.1874
56.0200 18.6575 -0.1919
56.0400 18.6641 -0.1901
56.0600 18.6708 -0.1962
56.0800 18.6775 -0.1884
56.1000 18.6841 -0.1868
56.1200 18.6907 -0.1908
56.1400 18.6974 -0.1941
56.1600 18.7041 -0.1863
56.1800 18.7108 -0.1923
56.2000 18.7175 -0.1974
56.2200 18.7242 -0.1869
56.2400 18.7309 -0.1950
56.2600 18.7375 -0.2005
56.2800 18.7441 -0.1870
56.3000 18.7507 -0.1912
56.3200 18.7574 -0.1925
56.3400 18.7641 -0.1934
56.3600 18.7708 -0.1932
56.3800 18.7775 -0.1924
56.4000 18.7842 -0.1934
56.4200 18.7908 -0.1945
56.4400 18.7975 -0.1957
56.4600 18.8041 -0.1900
56.4800 18.8107 -0.1946
56.5000 18.8174 -0.1944
56.5200 18.8241 -0.1951
56.5400 18.8308 -0.1950
56.5600 18.8375 -0.1989
56.5800 18.8441 -0.1927
56.6000 18.8508 -0.1967
56.6200 18.8574 -0.2002
56.6400 18.8640 -0.1950
56.6600 18.8707 -0.1955
56.6800 18.8773 -0.1981
56.7000 18.8841 -0.1951
56.7200 18.8908 -0.2006
56.7400 18.8974 -0.1942
56.7600 18.9041 -0.1962
56.7800 18.9108 -0.2023
56.8000 18.9175 -0.1948
56.8200 18.9241 -0.1988
56.8400 18.9307 -0.2007
56.8600 18.9374 -0.1928
56.8800 18.9441 -0.2009
56.9000 18.9508 -0.2055
56.9200 18.9575 -0.1940
56.9400 18.9642 -0.2050
56.9600 18.9709 -0.2016
56.9800 18.9775 -0.1972
57.0000 18.9841 -0.2032
57.0200 18.9907 -0.2038
57.0400 18.9974 -0.1946
57.0600 19.0041 -0.2082
57.0800 19.0108 -0.2030
57.1000 19.0175 -0.2004
57.1200 19.0242 -0.2067
57.1400 19.0308 -0.2061
57.1600 19.0375 -0.2037
57.1800 19.0441 -0.2053
57.2000 19.0507 -0.2034
57.2200 19.0573 -0.2044
57.2400 19.0641 -0.2118
57.2600 19.0708 -0.2064
57.2800 19.0775 -0.2028
57.3000 19.0842 -0.2063
57.3200 19.0908 -0.2101
57.3400 19.0975 -0.2046
57.3600 19.1041 -0.2079
57.3800 19.1107 -0.2059
57.4000 19.1174 -0.2051
57.4200 19.1241 -0.2080
57.4400 19.1308 -0.2131
57.4600 19.1375 -0.2032
57.4800 19.1441 -0.2067
57.5000 19.1508 -0.2114
57.5200 19.1575 -0.2075
57.5400 19.1641 -0.2073
57.5600 19.1707 -0.2127
57.5800 19.1774 -0.2050
57.6000 19.1841 -0.2055
57.6200 19.1908 -0.2099
57.6400 19.1975 -0.2088
57.6600 19.2042 -0.2072
57.6800 19.2109 -0.2140
57.7000 19.2175 -0.2079
57.7200 19.2241 -0.2085
57.7400 19.2308 -0.2111
57.7600 19.2374 -0.2084
57.7800 19.2441 -0.2110
57.8000 19.2508 -0.2125
57.8200 19.2575 -0.2079
57.8400 19.2642 -0.2085
57.8600 19.2709 -0.2177
57.8800 19.2775 -0.2051
57.9000 19.2841 -0.2149
57.9200 19.2907 -0.2123
57.9400 19.2974 -0.2050
57.9600 19.3041 -0.2172
57.9800 19.3108 -0.2145
58.0000 19.3175 -0.2087
58.0200 19.3242 -0.2177
58.0400 19.3308 -0.2094
58.0600 19.3375 -0.2105
58.0800 19.3441 -0.2211
58.1000 19.3507 -0.2119
58.1200 19.3573 -0.2092
58.1400 19.3641 -0.2210
58.1600 19.3708 -0.2126
58.1800 19.3774 -0.2114
58.2000 19.3841 -0.2222
58.2200 19.3908 -0.2138
58.2400 19.3975 -0.2157
58.2600 19.4041 -0.2166
58.2800 19.4107 -0.2182
58.3000 19.4174 -0.2158
58.3200 19.4241 -0.2250
58.3400 19.4308 -0.2153
58.3600 19.4375 -0.2156
58.3800 19.4442 -0.2224
58.4000 19.4509 -0.2191
58.4200 19.4575 -0.2215
58.4400 19.4641 -0.2214
58.4600 19.4707 -0.2165
58.4800 19.4774 -0.2210
58.5000 19.4841 -0.2188
58.5200 19.4908 -0.2184
58.5400 19.4975 -0.2239
58.5600 19.5042 -0.2155
58.5800 19.5108 -0.2180
58.6000 19.5175 -0.2221
58.6200 19.5241 -0.2242
58.6400 19.5307 -0.2236
58.6600 19.5374 -0.2203
58.6800 19.5441 -0.2226
58.7000 19.5508 -0.2288
58.7200 19.5575 -0.2219
58.7400 19.5641 -0.2246
58.7600 19.5708 -0.2282
58.7800 19.5775 -0.2211
58.8000 19.5841 -0.2244
58.8200 19.5907 -0.2334
58.8400 19.5973 -0.2198
58.8600 19.6040 -0.2258
58.8800 19.6108 -0.2329
58.9000 19.6174 -0.2133
58.9200 19.6241 -0.2319
58.9400 19.6308 -0.2378
58.9600 19.6375 -0.2202
58.9800 19.6441 -0.2328
59.0000 19.6507 -0.2323
59.0200 19.6574 -0.2191
59.0400 19.6641 -0.2345
59.0600 19.6708 -0.2302
59.0800 19.6775 -0.2300
59.1000 19.6842 -0.2336
59.1200 19.6908 -0.2324
59.1400 19.6975 -0.2282
59.1600 19.7042 -0.2361
59.1800 19.7108 -0.2313
59.2000 19.7174 -0.2272
59.2200 19.7241 -0.2363
59.2400 19.7308 -0.2325
59.2600 19.7375 -0.2256
59.2800 19.7442 -0.2404
59.3000 19.7508 -0.2356
59.3200 19.7575 -0.2294
59.3400 19.7641 -0.2349
59.3600 19.7707 -0.2383
59.3800 19.7774 -0.2276
59.4000 19.7840 -0.2371
59.4200 19.7907 -0.2419
59.4400 19.7974 -0.2279
59.4600 19.8041 -0.2381
59.4800 19.8108 -0.2373
59.5000 19.8175 -0.2350
59.5200 19.8241 -0.2413
59.5400 19.8307 -0.2406
59.5600 19.8373 -0.2311
59.5800 19.8441 -0.2428
59.6000 19.8508 -0.2408
59.6200 19.8575 -0.2345
59.6400 19.8642 -0.2465
59.6600 19.8708 -0.2407
59.6800 19.8775 -0.2379
59.7000 19.8841 -0.2444
59.7200 19.8907 -0.2406
59.7400 19.8974 -0.2428
59.7480 19.9000 -0.2432
