Raw Data
Time Displacement Force
(s) (mm) (N)
0.0000 0.0000 0.3434
0.0200 0.0000 0.3623
0.0400 0.0008 0.3835
0.0600 0.0039 0.3917
0.0800 0.0095 0.3613
0.1000 0.0153 0.3507
0.1200 0.0212 0.3648
0.1400 0.0277 0.3728
0.1600 0.0349 0.3557
0.1800 0.0424 0.3554
0.2000 0.0496 0.3540
0.2200 0.0565 0.3470
0.2400 0.0632 0.3652
0.2600 0.0698 0.3660
0.2800 0.0765 0.3548
0.3000 0.0832 0.3687
0.3200 0.0899 0.3627
0.3400 0.0966 0.3575
0.3600 0.1033 0.3672
0.3800 0.1100 0.3628
0.4000 0.1167 0.3736
0.4200 0.1233 0.3655
0.4400 0.1299 0.3684
0.4600 0.1366 0.3714
0.4800 0.1433 0.3707
0.5000 0.1500 0.3720
0.5200 0.1567 0.3758
0.5400 0.1634 0.3670
0.5600 0.1701 0.3745
0.5800 0.1767 0.3757
0.6000 0.1832 0.3717
0.6200 0.1899 0.3835
0.6400 0.1966 0.3810
0.6600 0.2033 0.3698
0.6800 0.2100 0.3858
0.7000 0.2167 0.3812
0.7200 0.2234 0.3724
0.7400 0.2300 0.3877
0.7600 0.2366 0.3815
0.7800 0.2433 0.3810
0.8000 0.2499 0.3883
0.8200 0.2566 0.3885
0.8400 0.2633 0.3834
0.8600 0.2700 0.3881
0.8800 0.2767 0.3879
0.9000 0.2833 0.3914
0.9200 0.2900 0.3855
0.9400 0.2966 0.3856
0.9600 0.3032 0.3832
0.9800 0.3098 0.3911
1.0000 0.3165 0.3854
1.0200 0.3233 0.3878
1.0400 0.3300 0.3878
1.0600 0.3366 0.3877
1.0800 0.3433 0.3863
1.1000 0.3500 0.3866
1.1200 0.3566 0.3912
1.1400 0.3632 0.3825
1.1600 0.3699 0.3838
1.1800 0.3766 0.3926
1.2000 0.3833 0.3822
1.2200 0.3900 0.3828
1.2400 0.3967 0.3884
1.2600 0.4034 0.3765
1.2800 0.4100 0.3835
1.3000 0.4167 0.3820
1.3200 0.4233 0.3776
1.3400 0.4300 0.3814
1.3600 0.4367 0.3837
1.3800 0.4434 0.3737
1.4000 0.4500 0.3807
1.4200 0.4567 0.3799
1.4400 0.4634 0.3715
1.4600 0.4700 0.3791
1.4800 0.4767 0.3797
1.5000 0.4832 0.3697
1.5200 0.4899 0.3826
1.5400 0.4966 0.3768
1.5600 0.5033 0.3699
1.5800 0.5100 0.3753
1.6000 0.5166 0.3734
1.6200 0.5233 0.3694
1.6400 0.5300 0.3708
1.6600 0.5366 0.3751
1.6800 0.5432 0.3695
1.7000 0.5499 0.3745
1.7200 0.5566 0.3699
1.7400 0.5633 0.3677
1.7600 0.5700 0.3725
1.7800 0.5766 0.3768
1.8000 0.5833 0.3630
1.8200 0.5900 0.3695
1.8400 0.5966 0.3711
1.8600 0.6033 0.3678
1.8800 0.6099 0.3692
1.9000 0.6166 0.3708
1.9200 0.6233 0.3643
1.9400 0.6300 0.3701
1.9600 0.6366 0.3672
1.9800 0.6433 0.3709
2.0000 0.6500 0.3710
2.0200 0.6567 0.3634
2.0400 0.6633 0.3731
2.0600 0.6699 0.3693
2.0800 0.6766 0.3656
2.1000 0.6833 0.3680
2.1200 0.6900 0.3638
2.1400 0.6967 0.3671
2.1600 0.7034 0.3657
2.1800 0.7100 0.3667
2.2000 0.7167 0.3662
2.2200 0.7233 0.3674
2.2400 0.7299 0.3670
2.2600 0.7366 0.3604
2.2800 0.7433 0.3708
2.3000 0.7500 0.3608
2.3200 0.7567 0.3650
2.3400 0.7633 0.3668
2.3600 0.7700 0.3592
2.3800 0.7767 0.3610
2.4000 0.7833 0.3680
2.4200 0.7899 0.3591
2.4400 0.7966 0.3622
2.4600 0.8033 0.3698
2.4800 0.8099 0.3544
2.5000 0.8166 0.3602
2.5200 0.8233 0.3699
2.5400 0.8300 0.3514
2.5600 0.8367 0.3582
2.5800 0.8433 0.3699
2.6000 0.8499 0.3499
2.6200 0.8566 0.3633
2.6400 0.8633 0.3674
2.6600 0.8700 0.3506
2.6800 0.8767 0.3602
2.7000 0.8834 0.3651
2.7200 0.8900 0.3505
2.7400 0.8967 0.3607
2.7600 0.9033 0.3625
2.7800 0.9099 0.3563
2.8000 0.9166 0.3590
2.8200 0.9233 0.3544
2.8400 0.9300 0.3525
2.8600 0.9367 0.3647
2.8800 0.9434 0.3506
2.9000 0.9501 0.3547
2.9200 0.9567 0.3579
2.9400 0.9633 0.3492
2.9600 0.9699 0.3592
2.9800 0.9766 0.3547
3.0000 0.9833 0.3515
3.0200 0.9900 0.3533
3.0400 0.9966 0.3583
3.0600 1.0033 0.3505
3.0800 1.0100 0.3521
3.1000 1.0167 0.3525
3.1200 1.0232 0.3538
3.1400 1.0298 0.3515
3.1600 1.0365 0.3535
3.1800 1.0433 0.3548
3.2000 1.0500 0.3485
3.2200 1.0567 0.3452
3.2400 1.0633 0.3567
3.2600 1.0700 0.3473
3.2800 1.0767 0.3478
3.3000 1.0833 0.3564
3.3200 1.0899 0.3469
3.3400 1.0966 0.3503
3.3600 1.1033 0.3534
3.3800 1.1100 0.3445
3.4000 1.1167 0.3499
3.4200 1.1234 0.3555
3.4400 1.1301 0.3385
3.4600 1.1367 0.3486
3.4800 1.1433 0.3566
3.5000 1.1499 0.3438
3.5200 1.1566 0.3510
3.5400 1.1633 0.3521
3.5600 1.1700 0.3366
3.5800 1.1767 0.3525
3.6000 1.1834 0.3510
3.6200 1.1900 0.3415
3.6400 1.1967 0.3485
3.6600 1.2033 0.3497
3.6800 1.2099 0.3402
3.7000 1.2166 0.3508
3.7200 1.2233 0.3472
3.7400 1.2300 0.3451
3.7600 1.2366 0.3475
3.7800 1.2433 0.3415
3.8000 1.2500 0.3477
3.8200 1.2567 0.3454
3.8400 1.2633 0.3446
3.8600 1.2699 0.3445
3.8800 1.2766 0.3440
3.9000 1.2833 0.3446
3.9200 1.2900 0.3469
3.9400 1.2966 0.3432
3.9600 1.3033 0.3527
3.9800 1.3100 0.3493
4.0000 1.3167 0.3350
4.0200 1.3233 0.3475
4.0400 1.3299 0.3457
4.0600 1.3366 0.3376
4.0800 1.3433 0.3511
4.1000 1.3500 0.3369
4.1200 1.3567 0.3400
4.1400 1.3633 0.3472
4.1600 1.3700 0.3417
4.1800 1.3767 0.3410
4.2000 1.3833 0.3496
4.2200 1.3899 0.3371
4.2400 1.3966 0.3385
4.2600 1.4033 0.3498
4.2800 1.4100 0.3362
4.3000 1.4167 0.3418
4.3200 1.4234 0.3469
4.3400 1.4301 0.3342
4.3600 1.4367 0.3434
4.3800 1.4433 0.3407
4.4000 1.4499 0.3381
4.4200 1.4566 0.3435
4.4400 1.4633 0.3365
4.4600 1.4700 0.3392
4.4800 1.4766 0.3388
4.5000 1.4833 0.3352
4.5200 1.4900 0.3371
4.5400 1.4967 0.3383
4.5600 1.5033 0.3336
4.5800 1.5099 0.3416
4.6000 1.5165 0.3352
4.6200 1.5232 0.3412
4.6400 1.5300 0.3404
4.6600 1.5366 0.3307
4.6800 1.5433 0.3373
4.7000 1.5500 0.3398
4.7200 1.5567 0.3274
4.7400 1.5633 0.3407
4.7600 1.5699 0.3418
4.7800 1.5766 0.3262
4.8000 1.5833 0.3388
4.8200 1.5900 0.3403
4.8400 1.5967 0.3303
4.8600 1.6034 0.3375
4.8800 1.6100 0.3383
4.9000 1.6167 0.3244
4.9200 1.6233 0.3407
4.9400 1.6299 0.3358
4.9600 1.6366 0.3269
4.9800 1.6433 0.3376
5.0000 1.6500 0.3322
5.0200 1.6567 0.3283
5.0400 1.6634 0.3396
5.0600 1.6700 0.3280
5.0800 1.6767 0.3338
5.1000 1.6833 0.3304
5.1200 1.6899 0.3250
5.1400 1.6965 0.3384
5.1600 1.7032 0.3308
5.1800 1.7099 0.3218
5.2000 1.7166 0.3314
5.2200 1.7233 0.3299
5.2400 1.7300 0.3281
5.2600 1.7367 0.3379
5.2800 1.7433 0.3293
5.3000 1.7499 0.3244
5.3200 1.7565 0.3324
5.3400 1.7632 0.3266
5.3600 1.7700 0.3268
5.3800 1.7766 0.3301
5.4000 1.7833 0.3252
5.4200 1.7900 0.3274
5.4400 1.7966 0.3225
5.4600 1.8033 0.3281
5.4800 1.8099 0.3316
5.5000 1.8166 0.3241
5.5200 1.8233 0.3212
5.5400 1.8300 0.3333
5.5600 1.8367 0.3230
5.5800 1.8434 0.3198
5.6000 1.8501 0.3336
5.6200 1.8567 0.3223
5.6400 1.8634 0.3198
5.6600 1.8699 0.3366
5.6800 1.8766 0.3247
5.7000 1.8833 0.3223
5.7200 1.8900 0.3318
5.7400 1.8967 0.3186
5.7600 1.9034 0.3212
5.7800 1.9100 0.3296
5.8000 1.9167 0.3214
5.8200 1.9233 0.3176
5.8400 1.9299 0.3334
5.8600 1.9366 0.3195
5.8800 1.9433 0.3214
5.9000 1.9500 0.3329
5.9200 1.9566 0.3221
5.9400 1.9633 0.3175
5.9600 1.9700 0.3321
5.9800 1.9766 0.3132
6.0000 1.9833 0.3151
6.0200 1.9899 0.3313
6.0400 1.9965 0.3180
6.0600 2.0032 0.3144
6.0800 2.0099 0.3298
6.1000 2.0166 0.3184
6.1200 2.0233 0.3133
6.1400 2.0300 0.3289
6.1600 2.0367 0.3182
6.1800 2.0434 0.3107
6.2000 2.0499 0.3250
6.2200 2.0566 0.3188
6.2400 2.0632 0.3151
6.2600 2.0700 0.3233
6.2800 2.0767 0.3132
6.3000 2.0834 0.3176
6.3200 2.0901 0.3202
6.3400 2.0967 0.3217
6.3600 2.1033 0.3101
6.3800 2.1099 0.3168
6.4000 2.1166 0.3197
6.4200 2.1233 0.3095
6.4400 2.1300 0.3143
6.4600 2.1367 0.3213
6.4800 2.1434 0.3064
6.5000 2.1500 0.3127
6.5200 2.1567 0.3234
6.5400 2.1634 0.3073
6.5600 2.1700 0.3160
6.5800 2.1766 0.3217
6.6000 2.1833 0.3048
6.6200 2.1900 0.3199
6.6400 2.1966 0.3218
6.6600 2.2033 0.3035
6.6800 2.2100 0.3196
6.7000 2.2167 0.3130
6.7200 2.2233 0.3069
6.7400 2.2299 0.3199
6.7600 2.2365 0.3144
6.7800 2.2432 0.3054
6.8000 2.2499 0.3160
6.8200 2.2566 0.3072
6.8400 2.2633 0.3063
6.8600 2.2700 0.3186
6.8800 2.2767 0.3049
6.9000 2.2833 0.3066
6.9200 2.2899 0.3232
6.9400 2.2966 0.3053
6.9600 2.3032 0.3100
6.9800 2.3100 0.3181
7.0000 2.3167 0.3046
7.0200 2.3233 0.3084
7.0400 2.3300 0.3182
7.0600 2.3367 0.3074
7.0800 2.3434 0.3034
7.1000 2.3500 0.3151
7.1200 2.3566 0.3050
7.1400 2.3633 0.3091
7.1600 2.3700 0.3101
7.1800 2.3767 0.3115
7.2000 2.3833 0.3089
7.2200 2.3900 0.3063
7.2400 2.3967 0.3091
7.2600 2.4034 0.3082
7.2800 2.4099 0.2975
7.3000 2.4166 0.3169
7.3200 2.4232 0.3044
7.3400 2.4300 0.2980
7.3600 2.4367 0.3179
7.3800 2.4433 0.3001
7.4000 2.4500 0.3062
7.4200 2.4567 0.3179
7.4400 2.4633 0.2956
7.4600 2.4699 0.3014
7.4800 2.4766 0.3149
7.5000 2.4832 0.2922
7.5200 2.4899 0.3072
7.5400 2.4966 0.3109
7.5600 2.5033 0.2885
7.5800 2.5100 0.3064
7.6000 2.5167 0.3156
7.6200 2.5233 0.2906
7.6400 2.5299 0.3135
7.6600 2.5366 0.3061
7.6800 2.5433 0.2947
7.7000 2.5500 0.3079
7.7200 2.5567 0.3050
7.7400 2.5634 0.2952
7.7600 2.5701 0.3130
7.7800 2.5767 0.3047
7.8000 2.5834 0.2917
7.8200 2.5900 0.3106
7.8400 2.5966 0.3033
7.8600 2.6033 0.2927
7.8800 2.6100 0.3095
7.9000 2.6167 0.2941
7.9200 2.6234 0.2957
7.9400 2.6300 0.3084
7.9600 2.6367 0.3003
7.9800 2.6433 0.2988
8.0000 2.6500 0.3061
8.0200 2.6566 0.2987
8.0400 2.6632 0.2925
8.0600 2.6699 0.3074
8.0800 2.6766 0.2948
8.1000 2.6833 0.2928
8.1200 2.6900 0.3017
8.1400 2.6967 0.2928
8.1600 2.7033 0.2913
8.1800 2.7099 0.3038
8.2000 2.7165 0.3001
8.2200 2.7232 0.3007
8.2400 2.7299 0.2927
8.2600 2.7366 0.2982
8.2800 2.7433 0.2959
8.3000 2.7500 0.2924
8.3200 2.7567 0.2992
8.3400 2.7634 0.2940
8.3600 2.7700 0.2895
8.3800 2.7766 0.3003
8.4000 2.7832 0.2991
8.4200 2.7899 0.2832
8.4400 2.7966 0.3059
8.4600 2.8033 0.2910
8.4800 2.8100 0.2804
8.5000 2.8167 0.3080
8.5200 2.8234 0.2906
8.5400 2.8300 0.2762
8.5600 2.8366 0.3052
8.5800 2.8433 0.2883
8.6000 2.8500 0.2864
8.6200 2.8567 0.3012
8.6400 2.8634 0.2878
8.6600 2.8700 0.2807
8.6800 2.8767 0.2970
8.7000 2.8834 0.2831
8.7200 2.8900 0.2882
8.7400 2.8966 0.2995
8.7600 2.9032 0.2763
8.7800 2.9099 0.2921
8.8000 2.9166 0.2987
8.8200 2.9233 0.2804
8.8400 2.9300 0.2944
8.8600 2.9367 0.2885
8.8800 2.9433 0.2806
8.9000 2.9499 0.2884
8.9200 2.9565 0.2854
8.9400 2.9632 0.2895
8.9600 2.9699 0.2856
8.9800 2.9766 0.2828
9.0000 2.9833 0.2872
9.0200 2.9899 0.2922
9.0400 2.9966 0.2857
9.0600 3.0033 0.2878
9.0800 3.0100 0.2831
9.1000 3.0166 0.2829
9.1200 3.0232 0.2897
9.1400 3.0300 0.2812
9.1600 3.0367 0.2836
9.1800 3.0434 0.2895
9.2000 3.0500 0.2737
9.2200 3.0567 0.2863
9.2400 3.0634 0.2919
9.2600 3.0700 0.2741
9.2800 3.0766 0.2867
9.3000 3.0832 0.2894
9.3200 3.0899 0.2760
9.3400 3.0967 0.2845
9.3600 3.1034 0.2874
9.3800 3.1100 0.2733
9.4000 3.1167 0.2882
9.4200 3.1234 0.2849
9.4400 3.1300 0.2796
9.4600 3.1366 0.2893
9.4800 3.1432 0.2853
9.5000 3.1499 0.2783
9.5200 3.1566 0.2818
9.5400 3.1633 0.2835
9.5600 3.1700 0.2817
9.5800 3.1767 0.2806
9.6000 3.1834 0.2841
9.6200 3.1900 0.2781
9.6400 3.1966 0.2796
9.6600 3.2032 0.2839
9.6800 3.2099 0.2855
9.7000 3.2166 0.2781
9.7200 3.2233 0.2783
9.7400 3.2300 0.2846
9.7600 3.2366 0.2816
9.7800 3.2433 0.2755
9.8000 3.2500 0.2788
9.8200 3.2566 0.2849
9.8400 3.2632 0.2792
9.8600 3.2699 0.2813
9.8800 3.2766 0.2823
9.9000 3.2834 0.2745
9.9200 3.2900 0.2728
9.9400 3.2967 0.2857
9.9600 3.3034 0.2794
9.9800 3.3100 0.2781
10.0000 3.3166 0.2783
10.0200 3.3233 0.2796
10.0400 3.3300 0.2749
10.0600 3.3367 0.2755
10.0800 3.3434 0.2828
10.1000 3.3500 0.2765
10.1200 3.3567 0.2675
10.1400 3.3633 0.2821
10.1600 3.3700 0.2765
10.1800 3.3766 0.2686
10.2000 3.3832 0.2859
10.2200 3.3899 0.2684
10.2400 3.3966 0.2704
10.2600 3.4033 0.2890
10.2800 3.4100 0.2678
10.3000 3.4167 0.2664
10.3200 3.4233 0.2888
10.3400 3.4300 0.2639
10.3600 3.4366 0.2697
10.3800 3.4432 0.2833
10.4000 3.4499 0.2645
10.4200 3.4566 0.2682
10.4400 3.4633 0.2832
10.4600 3.4700 0.2622
10.4800 3.4767 0.2685
10.5000 3.4833 0.2849
10.5200 3.4900 0.2593
10.5400 3.4966 0.2658
10.5600 3.5032 0.2826
10.5800 3.5099 0.2662
10.6000 3.5166 0.2604
10.6200 3.5233 0.2724
10.6400 3.5300 0.2686
10.6600 3.5367 0.2636
10.6800 3.5434 0.2656
10.7000 3.5500 0.2714
10.7200 3.5566 0.2684
10.7400 3.5632 0.2667
10.7600 3.5699 0.2670
10.7800 3.5766 0.2665
10.8000 3.5833 0.2686
10.8200 3.5900 0.2639
10.8400 3.5967 0.2573
10.8600 3.6034 0.2696
10.8800 3.6100 0.2579
10.9000 3.6166 0.2646
10.9200 3.6232 0.2745
10.9400 3.6299 0.2589
10.9600 3.6366 0.2563
10.9800 3.6433 0.2722
11.0000 3.6500 0.2594
11.0200 3.6567 0.2528
11.0400 3.6634 0.2722
11.0600 3.6700 0.2633
11.0800 3.6766 0.2564
11.1000 3.6832 0.2680
11.1200 3.6899 0.2676
11.1400 3.6966 0.2590
11.1600 3.7033 0.2636
11.1800 3.7100 0.2561
11.2000 3.7166 0.2644
11.2200 3.7233 0.2655
11.2400 3.7300 0.2500
11.2600 3.7366 0.2581
11.2800 3.7432 0.2681
11.3000 3.7499 0.2514
11.3200 3.7566 0.2590
11.3400 3.7634 0.2664
11.3600 3.7701 0.2564
11.3800 3.7768 0.2492
11.4000 3.7834 0.2613
11.4200 3.7900 0.2543
11.4400 3.7966 0.2565
11.4600 3.8032 0.2632
11.4800 3.8099 0.2526
11.5000 3.8167 0.2489
11.5200 3.8234 0.2619
11.5400 3.8300 0.2620
11.5600 3.8367 0.2496
11.5800 3.8434 0.2606
11.6000 3.8500 0.2581
11.6200 3.8566 0.2482
11.6400 3.8632 0.2554
11.6600 3.8699 0.2560
11.6800 3.8766 0.2526
11.7000 3.8833 0.2643
11.7200 3.8900 0.2459
11.7400 3.8966 0.2545
11.7600 3.9033 0.2616
11.7800 3.9100 0.2479
11.8000 3.9166 0.2492
11.8200 3.9232 0.2603
11.8400 3.9299 0.2514
11.8600 3.9366 0.2465
11.8800 3.9433 0.2523
11.9000 3.9500 0.2588
11.9200 3.9567 0.2475
11.9400 3.9633 0.2469
11.9600 3.9700 0.2544
11.9800 3.9766 0.2486
12.0000 3.9832 0.2528
12.0200 3.9899 0.2606
12.0400 3.9966 0.2430
12.0600 4.0034 0.2372
12.0800 4.0100 0.2603
12.1000 4.0167 0.2511
12.1200 4.0234 0.2465
12.1400 4.0300 0.2460
12.1600 4.0366 0.2467
12.1800 4.0433 0.2605
12.2000 4.0499 0.2467
12.2200 4.0566 0.2343
12.2400 4.0633 0.2665
12.2600 4.0700 0.2376
12.2800 4.0767 0.2261
12.3000 4.0834 0.2628
12.3200 4.0901 0.2569
12.3400 4.0966 0.2326
12.3600 4.1032 0.2463
12.3800 4.1099 0.2498
12.4000 4.1166 0.2439
12.4200 4.1233 0.2558
12.4400 4.1300 0.2442
12.4600 4.1367 0.2371
12.4800 4.1434 0.2454
12.5000 4.1500 0.2429
12.5200 4.1566 0.2494
12.5400 4.1632 0.2524
12.5600 4.1699 0.2391
12.5800 4.1766 0.2397
12.6000 4.1833 0.2548
12.6200 4.1900 0.2494
12.6400 4.1967 0.2296
12.6600 4.2034 0.2490
12.6800 4.2100 0.2435
12.7000 4.2166 0.2307
12.7200 4.2233 0.2521
12.7400 4.2299 0.2534
12.7600 4.2366 0.2326
12.7800 4.2433 0.2426
12.8000 4.2500 0.2453
12.8200 4.2567 0.2401
12.8400 4.2634 0.2496
12.8600 4.2700 0.2360
12.8800 4.2766 0.2346
12.9000 4.2832 0.2521
12.9200 4.2899 0.2372
12.9400 4.2966 0.2350
12.9600 4.3033 0.2492
12.9800 4.3100 0.2328
13.0000 4.3167 0.2431
13.0200 4.3234 0.2464
13.0400 4.3300 0.2341
13.0600 4.3366 0.2454
13.0800 4.3433 0.2427
13.1000 4.3499 0.2239
13.1200 4.3566 0.2517
13.1400 4.3633 0.2476
13.1600 4.3700 0.2244
13.1800 4.3767 0.2479
13.2000 4.3834 0.2489
13.2200 4.3900 0.2261
13.2400 4.3966 0.2523
13.2600 4.4032 0.2403
13.2800 4.4099 0.2268
13.3000 4.4166 0.2531
13.3200 4.4233 0.2357
13.3400 4.4300 0.2353
13.3600 4.4367 0.2495
13.3800 4.4434 0.2299
13.4000 4.4500 0.2302
13.4200 4.4566 0.2507
13.4400 4.4632 0.2363
13.4600 4.4699 0.2357
13.4800 4.4766 0.2406
13.5000 4.4833 0.2284
13.5200 4.4901 0.2386
13.5400 4.4967 0.2425
13.5600 4.5034 0.2277
13.5800 4.5100 0.2349
13.6000 4.5167 0.2389
13.6200 4.5233 0.2335
13.6400 4.5299 0.2376
13.6600 4.5366 0.2390
13.6800 4.5433 0.2333
13.7000 4.5500 0.2345
13.7200 4.5567 0.2376
13.7400 4.5633 0.2310
13.7600 4.5700 0.2395
13.7800 4.5766 0.2297
13.8000 4.5832 0.2305
13.8200 4.5899 0.2434
13.8400 4.5966 0.2378
13.8600 4.6033 0.2257
13.8800 4.6100 0.2364
13.9000 4.6167 0.2341
13.9200 4.6234 0.2280
13.9400 4.6300 0.2350
13.9600 4.6366 0.2338
13.9800 4.6432 0.2220
14.0000 4.6499 0.2381
14.0200 4.6566 0.2364
14.0400 4.6633 0.2255
14.0600 4.6700 0.2407
14.0800 4.6767 0.2340
14.1000 4.6834 0.2190
14.1200 4.6900 0.2346
14.1400 4.6966 0.2341
14.1600 4.7032 0.2204
14.1800 4.7099 0.2300
14.2000 4.7166 0.2337
14.2200 4.7233 0.2212
14.2400 4.7300 0.2289
14.2600 4.7367 0.2388
14.2800 4.7434 0.2241
14.3000 4.7501 0.2282
14.3200 4.7567 0.2299
14.3400 4.7633 0.2216
14.3600 4.7699 0.2275
14.3800 4.7766 0.2352
14.4000 4.7833 0.2210
14.4200 4.7900 0.2271
14.4400 4.7967 0.2339
14.4600 4.8034 0.2219
14.4800 4.8101 0.2254
14.5000 4.8167 0.2290
14.5200 4.8233 0.2226
14.5400 4.8299 0.2297
14.5600 4.8366 0.2253
14.5800 4.8433 0.2196
14.6000 4.8500 0.2236
14.6200 4.8567 0.2286
14.6400 4.8633 0.2197
14.6600 4.8700 0.2225
14.6800 4.8766 0.2252
14.7000 4.8832 0.2188
14.7200 4.8899 0.2278
14.7400 4.8966 0.2202
14.7600 4.9033 0.2229
14.7800 4.9100 0.2233
14.8000 4.9166 0.2244
14.8200 4.9233 0.2156
14.8400 4.9300 0.2180
14.8600 4.9367 0.2262
14.8800 4.9433 0.2204
14.9000 4.9499 0.2156
14.9200 4.9566 0.2261
14.9400 4.9633 0.2151
14.9600 4.9700 0.2187
14.9800 4.9767 0.2240
15.0000 4.9834 0.2137
15.0200 4.9901 0.2162
15.0400 4.9967 0.2246
15.0600 5.0032 0.2123
15.0800 5.0099 0.2221
15.1000 5.0166 0.2279
15.1200 5.0233 0.2107
15.1400 5.0300 0.2176
15.1600 5.0367 0.2207
15.1800 5.0434 0.2107
15.2000 5.0500 0.2189
15.2200 5.0567 0.2190
15.2400 5.0633 0.2091
15.2600 5.0699 0.2217
15.2800 5.0766 0.2132
15.3000 5.0833 0.2172
15.3200 5.0900 0.2236
15.3400 5.0967 0.2100
15.3600 5.1033 0.2105
15.3800 5.1100 0.2187
15.4000 5.1167 0.2073
15.4200 5.1233 0.2163
15.4400 5.1299 0.2182
15.4600 5.1365 0.2097
15.4800 5.1432 0.2214
15.5000 5.1499 0.2129
15.5200 5.1566 0.2098
15.5400 5.1633 0.2233
15.5600 5.1700 0.2118
15.5800 5.1766 0.2062
15.6000 5.1832 0.2177
15.6200 5.1899 0.2057
15.6400 5.1966 0.2102
15.6600 5.2033 0.2136
15.6800 5.2100 0.2044
15.7000 5.2167 0.2119
15.7200 5.2234 0.2180
15.7400 5.2301 0.2049
15.7600 5.2367 0.2154
15.7800 5.2433 0.2050
15.8000 5.2500 0.2058
15.8200 5.2566 0.2188
15.8400 5.2633 0.2013
15.8600 5.2700 0.2031
15.8800 5.2767 0.2248
15.9000 5.2834 0.1972
15.9200 5.2901 0.2043
15.9400 5.2967 0.2179
15.9600 5.3033 0.2037
15.9800 5.3099 0.2056
16.0000 5.3166 0.2094
16.0200 5.3233 0.2049
16.0400 5.3300 0.2011
16.0600 5.3367 0.2085
16.0800 5.3433 0.2053
16.1000 5.3500 0.2073
16.1200 5.3567 0.2048
16.1400 5.3633 0.2063
16.1600 5.3699 0.2133
16.1800 5.3766 0.1991
16.2000 5.3833 0.1935
16.2200 5.3900 0.2098
16.2400 5.3967 0.2083
16.2600 5.4033 0.2055
16.2800 5.4100 0.1979
16.3000 5.4167 0.1998
16.3200 5.4233 0.2160
16.3400 5.4299 0.2062
16.3600 5.4366 0.1987
16.3800 5.4433 0.2162
16.4000 5.4500 0.1986
16.4200 5.4567 0.1958
16.4400 5.4634 0.2133
16.4600 5.4701 0.1986
16.4800 5.4767 0.2018
16.5000 5.4833 0.2075
16.5200 5.4899 0.1979
16.5400 5.4966 0.2050
16.5600 5.5033 0.2132
16.5800 5.5100 0.1925
16.6000 5.5167 0.2002
16.6200 5.5234 0.2069
16.6400 5.5300 0.1971
16.6600 5.5367 0.2041
16.6800 5.5433 0.2089
16.7000 5.5499 0.1937
16.7200 5.5566 0.2019
16.7400 5.5633 0.2128
16.7600 5.5700 0.1954
16.7800 5.5767 0.1894
16.8000 5.5833 0.2105
16.8200 5.5900 0.1979
16.8400 5.5967 0.1899
16.8600 5.6033 0.2042
16.8800 5.6099 0.1950
16.9000 5.6166 0.1983
16.9200 5.6232 0.2101
16.9400 5.6299 0.1837
16.9600 5.6366 0.1988
16.9800 5.6433 0.2286
17.0000 5.6500 0.1748
17.0200 5.6567 0.1809
17.0400 5.6633 0.2335
17.0600 5.6699 0.1866
17.0800 5.6766 0.1793
17.1000 5.6833 0.2274
17.1200 5.6900 0.1778
17.1400 5.6967 0.1860
17.1600 5.7034 0.2262
17.1800 5.7100 0.1789
17.2000 5.7167 0.1916
17.2200 5.7233 0.2232
17.2400 5.7299 0.1757
17.2600 5.7366 0.1953
17.2800 5.7433 0.2133
17.3000 5.7500 0.1761
17.3200 5.7567 0.2021
17.3400 5.7634 0.2055
17.3600 5.7700 0.1822
17.3800 5.7767 0.2060
17.4000 5.7833 0.1982
17.4200 5.7899 0.1832
17.4400 5.7966 0.2042
17.4600 5.8033 0.1942
17.4800 5.8100 0.1893
17.5000 5.8167 0.1991
17.5200 5.8233 0.1969
17.5400 5.8300 0.1850
17.5600 5.8367 0.1957
17.5800 5.8433 0.1921
17.6000 5.8499 0.1984
17.6200 5.8565 0.1956
17.6400 5.8632 0.1898
17.6600 5.8700 0.1905
17.6800 5.8767 0.1913
17.7000 5.8833 0.1936
17.7200 5.8900 0.1931
17.7400 5.8967 0.1867
17.7600 5.9033 0.1888
17.7800 5.9099 0.1943
17.8000 5.9166 0.1910
17.8200 5.9233 0.1916
17.8400 5.9300 0.1926
17.8600 5.9367 0.1873
17.8800 5.9434 0.1835
17.9000 5.9501 0.1910
17.9200 5.9567 0.1873
17.9400 5.9634 0.1920
17.9600 5.9700 0.1853
17.9800 5.9766 0.1846
18.0000 5.9833 0.1912
18.0200 5.9900 0.1943
18.0400 5.9967 0.1811
18.0600 6.0034 0.1879
18.0800 6.0100 0.1935
18.1000 6.0167 0.1789
18.1200 6.0233 0.1898
18.1400 6.0299 0.1955
18.1600 6.0365 0.1795
18.1800 6.0433 0.1910
18.2000 6.0500 0.1890
18.2200 6.0567 0.1758
18.2400 6.0633 0.1932
18.2600 6.0700 0.1953
18.2800 6.0767 0.1717
18.3000 6.0833 0.1873
18.3200 6.0899 0.1974
18.3400 6.0966 0.1735
18.3600 6.1033 0.1882
18.3800 6.1100 0.1852
18.4000 6.1166 0.1778
18.4200 6.1233 0.1939
18.4400 6.1300 0.1823
18.4600 6.1367 0.1716
18.4800 6.1433 0.2012
18.5000 6.1499 0.1737
18.5200 6.1566 0.1724
18.5400 6.1633 0.1984
18.5600 6.1700 0.1803
18.5800 6.1767 0.1728
18.6000 6.1834 0.1876
18.6200 6.1900 0.1788
18.6400 6.1967 0.1804
18.6600 6.2033 0.1870
18.6800 6.2099 0.1757
18.7000 6.2166 0.1832
18.7200 6.2233 0.1820
18.7400 6.2300 0.1713
18.7600 6.2367 0.1834
18.7800 6.2434 0.1879
18.8000 6.2500 0.1737
18.8200 6.2567 0.1777
18.8400 6.2633 0.1809
18.8600 6.2699 0.1839
18.8800 6.2766 0.1803
18.9000 6.2833 0.1779
18.9200 6.2900 0.1750
18.9400 6.2966 0.1801
18.9600 6.3033 0.1811
18.9800 6.3100 0.1749
19.0000 6.3167 0.1761
19.0200 6.3233 0.1808
19.0400 6.3299 0.1777
19.0600 6.3365 0.1799
19.0800 6.3432 0.1795
19.1000 6.3499 0.1717
19.1200 6.3566 0.1746
19.1400 6.3633 0.1775
19.1600 6.3700 0.1749
19.1800 6.3767 0.1741
19.2000 6.3833 0.1760
19.2200 6.3899 0.1734
19.2400 6.3966 0.1691
19.2600 6.4033 0.1823
19.2800 6.4100 0.1796
19.3000 6.4167 0.1619
19.3200 6.4233 0.1770
19.3400 6.4300 0.1814
19.3600 6.4367 0.1699
19.3800 6.4433 0.1714
19.4000 6.4500 0.1762
19.4200 6.4566 0.1684
19.4400 6.4633 0.1784
19.4600 6.4700 0.1776
19.4800 6.4767 0.1674
19.5000 6.4833 0.1784
19.5200 6.4900 0.1758
19.5400 6.4967 0.1683
19.5600 6.5033 0.1735
19.5800 6.5099 0.1745
19.6000 6.5165 0.1667
19.6200 6.5232 0.1739
19.6400 6.5299 0.1759
19.6600 6.5367 0.1690
19.6800 6.5434 0.1707
19.7000 6.5500 0.1776
19.7200 6.5567 0.1650
19.7400 6.5633 0.1725
19.7600 6.5699 0.1766
19.7800 6.5765 0.1599
19.8000 6.5832 0.1735
19.8200 6.5899 0.1714
19.8400 6.5966 0.1612
19.8600 6.6033 0.1747
19.8800 6.6100 0.1722
19.9000 6.6166 0.1613
19.9200 6.6233 0.1765
19.9400 6.6299 0.1733
19.9600 6.6366 0.1615
19.9800 6.6433 0.1727
20.0000 6.6500 0.1708
20.0200 6.6567 0.1619
20.0400 6.6634 0.1688
20.0600 6.6701 0.1673
20.0800 6.6768 0.1660
20.1000 6.6834 0.1665
20.1200 6.6900 0.1655
20.1400 6.6966 0.1658
20.1600 6.7033 0.1702
20.1800 6.7100 0.1631
20.2000 6.7167 0.1667
20.2200 6.7234 0.1622
20.2400 6.7301 0.1640
20.2600 6.7367 0.1642
20.2800 6.7433 0.1618
20.3000 6.7499 0.1627
20.3200 6.7566 0.1702
20.3400 6.7632 0.1607
20.3600 6.7699 0.1615
20.3800 6.7766 0.1710
20.4000 6.7833 0.1577
20.4200 6.7900 0.1594
20.4400 6.7966 0.1712
20.4600 6.8033 0.1583
20.4800 6.8099 0.1626
20.5000 6.8165 0.1728
20.5200 6.8232 0.1476
20.5400 6.8299 0.1662
20.5600 6.8366 0.1759
20.5800 6.8433 0.1454
20.6000 6.8500 0.1597
20.6200 6.8567 0.1735
20.6400 6.8634 0.1439
20.6600 6.8700 0.1632
20.6800 6.8766 0.1639
20.7000 6.8833 0.1521
20.7200 6.8900 0.1680
20.7400 6.8967 0.1611
20.7600 6.9034 0.1504
20.7800 6.9101 0.1653
20.8000 6.9167 0.1585
20.8200 6.9234 0.1491
20.8400 6.9299 0.1625
20.8600 6.9366 0.1625
20.8800 6.9432 0.1532
20.9000 6.9500 0.1562
20.9200 6.9567 0.1568
20.9400 6.9634 0.1566
20.9600 6.9700 0.1588
20.9800 6.9767 0.1539
21.0000 6.9834 0.1486
21.0200 6.9900 0.1545
21.0400 6.9966 0.1593
21.0600 7.0033 0.1504
21.0800 7.0099 0.1557
21.1000 7.0166 0.1599
21.1200 7.0233 0.1522
21.1400 7.0300 0.1541
21.1600 7.0367 0.1592
21.1800 7.0433 0.1504
21.2000 7.0499 0.1514
21.2200 7.0565 0.1600
21.2400 7.0632 0.1519
21.2600 7.0699 0.1515
21.2800 7.0766 0.1591
21.3000 7.0833 0.1425
21.3200 7.0900 0.1546
21.3400 7.0966 0.1628
21.3600 7.1033 0.1428
21.3800 7.1099 0.1501
21.4000 7.1165 0.1595
21.4200 7.1232 0.1473
21.4400 7.1299 0.1469
21.4600 7.1366 0.1554
21.4800 7.1433 0.1422
21.5000 7.1500 0.1511
21.5200 7.1567 0.1544
21.5400 7.1634 0.1442
21.5600 7.1700 0.1505
21.5800 7.1766 0.1609
21.6000 7.1833 0.1426
21.6200 7.1900 0.1463
21.6400 7.1967 0.1518
21.6600 7.2033 0.1486
21.6800 7.2100 0.1455
21.7000 7.2167 0.1440
21.7200 7.2234 0.1466
21.7400 7.2300 0.1537
21.7600 7.2366 0.1459
21.7800 7.2432 0.1513
21.8000 7.2499 0.1485
21.8200 7.2567 0.1463
21.8400 7.2633 0.1457
21.8600 7.2700 0.1424
21.8800 7.2767 0.1482
21.9000 7.2833 0.1447
21.9200 7.2899 0.1387
21.9400 7.2966 0.1468
21.9600 7.3032 0.1516
21.9800 7.3099 0.1413
22.0000 7.3166 0.1474
22.0200 7.3233 0.1446
22.0400 7.3300 0.1446
22.0600 7.3367 0.1493
22.0800 7.3433 0.1403
22.1000 7.3500 0.1383
22.1200 7.3566 0.1501
22.1400 7.3632 0.1410
22.1600 7.3699 0.1408
22.1800 7.3766 0.1495
22.2000 7.3833 0.1483
22.2200 7.3900 0.1378
22.2400 7.3967 0.1402
22.2600 7.4034 0.1433
22.2800 7.4100 0.1411
22.3000 7.4166 0.1407
22.3200 7.4233 0.1394
22.3400 7.4300 0.1395
22.3600 7.4367 0.1400
22.3800 7.4434 0.1447
22.4000 7.4500 0.1397
22.4200 7.4567 0.1430
22.4400 7.4633 0.1382
22.4600 7.4700 0.1362
22.4800 7.4766 0.1407
22.5000 7.4832 0.1367
22.5200 7.4899 0.1433
22.5400 7.4966 0.1482
22.5600 7.5033 0.1273
22.5800 7.5100 0.1389
22.6000 7.5167 0.1506
22.6200 7.5234 0.1333
22.6400 7.5300 0.1388
22.6600 7.5366 0.1459
22.6800 7.5432 0.1346
22.7000 7.5499 0.1334
22.7200 7.5566 0.1461
22.7400 7.5633 0.1375
22.7600 7.5700 0.1368
22.7800 7.5767 0.1340
22.8000 7.5834 0.1321
22.8200 7.5900 0.1409
22.8400 7.5966 0.1477
22.8600 7.6032 0.1297
22.8800 7.6099 0.1315
22.9000 7.6166 0.1406
22.9200 7.6233 0.1354
22.9400 7.6300 0.1341
22.9600 7.6367 0.1401
22.9800 7.6434 0.1301
23.0000 7.6500 0.1363
23.0200 7.6566 0.1366
23.0400 7.6633 0.1307
23.0600 7.6700 0.1394
23.0800 7.6767 0.1392
23.1000 7.6834 0.1284
23.1200 7.6900 0.1353
23.1400 7.6967 0.1327
23.1600 7.7034 0.1243
23.1800 7.7100 0.1342
23.2000 7.7166 0.1381
23.2200 7.7232 0.1288
23.2400 7.7299 0.1316
23.2600 7.7366 0.1291
23.2800 7.7433 0.1340
23.3000 7.7500 0.1394
23.3200 7.7567 0.1197
23.3400 7.7634 0.1341
23.3600 7.7700 0.1277
23.3800 7.7766 0.1236
23.4000 7.7832 0.1383
23.4200 7.7899 0.1324
23.4400 7.7966 0.1210
23.4600 7.8033 0.1385
23.4800 7.8099 0.1330
23.5000 7.8166 0.1197
23.5200 7.8233 0.1315
23.5400 7.8300 0.1337
23.5600 7.8366 0.1213
23.5800 7.8432 0.1312
23.6000 7.8499 0.1295
23.6200 7.8566 0.1228
23.6400 7.8634 0.1267
23.6600 7.8700 0.1222
23.6800 7.8767 0.1308
23.7000 7.8834 0.1294
23.7200 7.8900 0.1229
23.7400 7.8966 0.1252
23.7600 7.9032 0.1274
23.7800 7.9099 0.1239
23.8000 7.9167 0.1265
23.8200 7.9234 0.1260
23.8400 7.9301 0.1191
23.8600 7.9367 0.1227
23.8800 7.9434 0.1299
23.9000 7.9500 0.1232
23.9200 7.9566 0.1255
23.9400 7.9632 0.1297
23.9600 7.9699 0.1201
23.9800 7.9767 0.1186
24.0000 7.9833 0.1342
24.0200 7.9900 0.1227
24.0400 7.9967 0.1184
24.0600 8.0034 0.1229
24.0800 8.0100 0.1151
24.1000 8.0166 0.1276
24.1200 8.0232 0.1310
24.1400 8.0299 0.1213
24.1600 8.0366 0.1172
24.1800 8.0433 0.1283
24.2000 8.0500 0.1187
24.2200 8.0567 0.1235
24.2400 8.0633 0.1252
24.2600 8.0700 0.1167
24.2800 8.0766 0.1195
24.3000 8.0832 0.1235
24.3200 8.0899 0.1219
24.3400 8.0966 0.1285
24.3600 8.1034 0.1224
24.3800 8.1100 0.1159
24.4000 8.1167 0.1181
24.4200 8.1234 0.1233
24.4400 8.1300 0.1136
24.4600 8.1366 0.1221
24.4800 8.1432 0.1220
24.5000 8.1499 0.1192
24.5200 8.1567 0.1137
24.5400 8.1634 0.1157
24.5600 8.1700 0.1320
24.5800 8.1767 0.1167
24.6000 8.1834 0.1105
24.6200 8.1900 0.1161
24.6400 8.1966 0.1264
24.6600 8.2032 0.1172
24.6800 8.2099 0.1152
24.7000 8.2166 0.1214
24.7200 8.2233 0.1147
24.7400 8.2300 0.1067
24.7600 8.2367 0.1254
24.7800 8.2434 0.1286
24.8000 8.2500 0.1050
24.8200 8.2566 0.1123
24.8400 8.2632 0.1291
24.8600 8.2699 0.1104
24.8800 8.2766 0.1199
24.9000 8.2833 0.1131
24.9200 8.2900 0.1079
24.9400 8.2967 0.1235
24.9600 8.3033 0.1122
24.9800 8.3100 0.1127
25.0000 8.3166 0.1246
25.0200 8.3233 0.1110
25.0400 8.3299 0.1118
25.0600 8.3366 0.1296
25.0800 8.3433 0.1019
25.1000 8.3500 0.1073
25.1200 8.3567 0.1268
25.1400 8.3634 0.1046
25.1600 8.3700 0.1105
25.1800 8.3766 0.1277
25.2000 8.3832 0.1066
25.2200 8.3899 0.1156
25.2400 8.3966 0.1116
25.2600 8.4033 0.1052
25.2800 8.4100 0.1222
25.3000 8.4167 0.1092
25.3200 8.4234 0.1030
25.3400 8.4300 0.1225
25.3600 8.4366 0.1059
25.3800 8.4432 0.1068
25.4000 8.4499 0.1257
25.4200 8.4566 0.1056
25.4400 8.4633 0.1124
25.4600 8.4700 0.1208
25.4800 8.4767 0.0926
25.5000 8.4834 0.1165
25.5200 8.4900 0.1230
25.5400 8.4966 0.0889
25.5600 8.5032 0.1178
25.5800 8.5098 0.1178
25.6000 8.5166 0.0994
25.6200 8.5233 0.1136
25.6400 8.5300 0.1165
25.6600 8.5366 0.0999
25.6800 8.5433 0.1167
25.7000 8.5500 0.1057
25.7200 8.5566 0.0969
25.7400 8.5632 0.1231
25.7600 8.5699 0.1009
25.7800 8.5766 0.0983
25.8000 8.5833 0.1203
25.8200 8.5900 0.1000
25.8400 8.5967 0.1006
25.8600 8.6034 0.1204
25.8800 8.6101 0.1084
25.9000 8.6167 0.0993
25.9200 8.6233 0.1146
25.9400 8.6299 0.1081
25.9600 8.6366 0.0996
25.9800 8.6434 0.1100
26.0000 8.6500 0.1060
26.0200 8.6567 0.1028
26.0400 8.6634 0.1075
26.0600 8.6700 0.1070
26.0800 8.6766 0.1026
26.1000 8.6832 0.1140
26.1200 8.6899 0.1025
26.1400 8.6966 0.0970
26.1600 8.7033 0.1144
26.1800 8.7100 0.1047
26.2000 8.7167 0.0883
26.2200 8.7233 0.1163
26.2400 8.7300 0.1105
26.2600 8.7366 0.0884
26.2800 8.7432 0.1152
26.3000 8.7498 0.1099
26.3200 8.7565 0.0959
26.3400 8.7633 0.1048
26.3600 8.7700 0.1078
26.3800 8.7766 0.0964
26.4000 8.7833 0.1036
26.4200 8.7900 0.1029
26.4400 8.7966 0.0953
26.4600 8.8032 0.1039
26.4800 8.8099 0.1098
26.5000 8.8166 0.0944
26.5200 8.8233 0.1022
26.5400 8.8300 0.1036
26.5600 8.8367 0.0996
26.5800 8.8434 0.0978
26.6000 8.8501 0.1030
26.6200 8.8567 0.0963
26.6400 8.8633 0.1007
26.6600 8.8699 0.1023
26.6800 8.8766 0.0942
26.7000 8.8833 0.1009
26.7200 8.8900 0.1067
26.7400 8.8967 0.0970
26.7600 8.9034 0.0914
26.7800 8.9101 0.1018
26.8000 8.9166 0.1015
26.8200 8.9232 0.0877
26.8400 8.9299 0.1048
26.8600 8.9366 0.1023
26.8800 8.9433 0.0847
26.9000 8.9500 0.1018
26.9200 8.9567 0.1079
26.9400 8.9634 0.0923
26.9600 8.9700 0.0954
26.9800 8.9766 0.1024
27.0000 8.9832 0.0903
27.0200 8.9899 0.1028
27.0400 8.9966 0.0997
27.0600 9.0033 0.0854
27.0800 9.0100 0.0987
27.1000 9.0167 0.1022
27.1200 9.0233 0.0882
27.1400 9.0300 0.1002
27.1600 9.0366 0.1003
27.1800 9.0432 0.0873
27.2000 9.0499 0.0964
27.2200 9.0566 0.0980
27.2400 9.0633 0.0903
27.2600 9.0700 0.0974
27.2800 9.0767 0.0948
27.3000 9.0834 0.0855
27.3200 9.0901 0.1003
27.3400 9.0967 0.0964
27.3600 9.1032 0.0944
27.3800 9.1099 0.0937
27.4000 9.1166 0.0938
27.4200 9.1233 0.0934
27.4400 9.1300 0.0950
27.4600 9.1367 0.0912
27.4800 9.1434 0.0898
27.5000 9.1500 0.0918
27.5200 9.1566 0.0914
27.5400 9.1633 0.0918
27.5600 9.1699 0.1011
27.5800 9.1766 0.0949
27.6000 9.1833 0.0864
27.6200 9.1900 0.0881
27.6400 9.1967 0.0948
27.6600 9.2034 0.0929
27.6800 9.2100 0.0786
27.7000 9.2167 0.0889
27.7200 9.2232 0.0928
27.7400 9.2299 0.0878
27.7600 9.2365 0.0914
27.7800 9.2433 0.0923
27.8000 9.2500 0.0898
27.8200 9.2567 0.0880
27.8400 9.2634 0.0818
27.8600 9.2700 0.0881
27.8800 9.2766 0.0928
27.9000 9.2832 0.0842
27.9200 9.2899 0.0806
27.9400 9.2966 0.0929
27.9600 9.3033 0.0836
27.9800 9.3100 0.0921
28.0000 9.3167 0.0908
28.0200 9.3234 0.0794
28.0400 9.3300 0.0894
28.0600 9.3367 0.0866
28.0800 9.3433 0.0835
28.1000 9.3499 0.0878
28.1200 9.3566 0.0871
28.1400 9.3633 0.0769
28.1600 9.3700 0.0871
28.1800 9.3767 0.0895
28.2000 9.3833 0.0851
28.2200 9.3900 0.0840
28.2400 9.3966 0.0828
28.2600 9.4032 0.0857
28.2800 9.4099 0.0931
28.3000 9.4165 0.0834
28.3200 9.4233 0.0785
28.3400 9.4300 0.0761
28.3600 9.4367 0.0962
28.3800 9.4433 0.0796
28.4000 9.4500 0.0765
28.4200 9.4567 0.0925
28.4400 9.4632 0.0799
28.4600 9.4699 0.0778
28.4800 9.4766 0.0922
28.5000 9.4833 0.0780
28.5200 9.4900 0.0722
28.5400 9.4967 0.0949
28.5600 9.5034 0.0721
28.5800 9.5100 0.0756
28.6000 9.5166 0.0969
28.6200 9.5233 0.0716
28.6400 9.5299 0.0773
28.6600 9.5366 0.0954
28.6800 9.5433 0.0716
28.7000 9.5500 0.0788
28.7200 9.5567 0.0870
28.7400 9.5634 0.0699
28.7600 9.5700 0.0821
28.7800 9.5767 0.0912
28.8000 9.5833 0.0676
28.8200 9.5899 0.0892
28.8400 9.5966 0.0842
28.8600 9.6033 0.0690
28.8800 9.6100 0.0836
28.9000 9.6167 0.0842
28.9200 9.6234 0.0743
28.9400 9.6301 0.0847
28.9600 9.6367 0.0788
28.9800 9.6433 0.0747
29.0000 9.6499 0.0838
29.0200 9.6566 0.0782
29.0400 9.6633 0.0823
29.0600 9.6700 0.0825
29.0800 9.6766 0.0764
29.1000 9.6833 0.0811
29.1200 9.6900 0.0747
29.1400 9.6967 0.0793
29.1600 9.7033 0.0861
29.1800 9.7099 0.0692
29.2000 9.7166 0.0767
29.2200 9.7233 0.0836
29.2400 9.7300 0.0792
29.2600 9.7366 0.0842
29.2800 9.7433 0.0829
29.3000 9.7500 0.0699
29.3200 9.7567 0.0835
29.3400 9.7633 0.0814
29.3600 9.7699 0.0721
29.3800 9.7766 0.0836
29.4000 9.7833 0.0754
29.4200 9.7900 0.0692
29.4400 9.7967 0.0854
29.4600 9.8034 0.0762
29.4800 9.8101 0.0766
29.5000 9.8167 0.0851
29.5200 9.8233 0.0716
29.5400 9.8299 0.0810
29.5600 9.8366 0.0762
29.5800 9.8433 0.0701
29.6000 9.8500 0.0784
29.6200 9.8567 0.0848
29.6400 9.8634 0.0676
29.6600 9.8700 0.0779
29.6800 9.8767 0.0783
29.7000 9.8833 0.0737
29.7200 9.8899 0.0829
29.7400 9.8966 0.0738
29.7600 9.9033 0.0714
29.7800 9.9100 0.0819
29.8000 9.9166 0.0761
29.8200 9.9233 0.0740
29.8400 9.9300 0.0749
29.8600 9.9367 0.0766
29.8800 9.9433 0.0739
29.9000 9.9498 0.0773
29.9200 9.9565 0.0794
29.9400 9.9632 0.0752
29.9600 9.9700 0.0741
29.9800 9.9766 0.0658
30.0000 9.9833 0.0781
30.0200 9.9900 0.0741
30.0400 9.9966 0.0708
30.0600 10.0032 0.0738
30.0800 10.0099 0.0715
30.1000 10.0166 0.0763
30.1200 10.0233 0.0758
30.1400 10.0300 0.0710
30.1600 10.0367 0.0754
30.1800 10.0434 0.0731
30.2000 10.0500 0.0679
30.2200 10.0567 0.0693
30.2400 10.0633 0.0729
30.2600 10.0699 0.0661
30.2800 10.0766 0.0730
30.3000 10.0833 0.0708
30.3200 10.0900 0.0699
30.3400 10.0967 0.0800
30.3600 10.1034 0.0668
30.3800 10.1101 0.0665
30.4000 10.1167 0.0731
30.4200 10.1233 0.0728
30.4400 10.1299 0.0683
30.4600 10.1366 0.0676
30.4800 10.1433 0.0647
30.5000 10.1500 0.0716
30.5200 10.1566 0.0695
30.5400 10.1633 0.0675
30.5600 10.1700 0.0705
30.5800 10.1766 0.0653
30.6000 10.1832 0.0648
30.6200 10.1899 0.0770
30.6400 10.1966 0.0651
30.6600 10.2033 0.0657
30.6800 10.2100 0.0656
30.7000 10.2167 0.0607
30.7200 10.2233 0.0715
30.7400 10.2300 0.0715
30.7600 10.2367 0.0589
30.7800 10.2433 0.0632
30.8000 10.2499 0.0742
30.8200 10.2566 0.0596
30.8400 10.2633 0.0659
30.8600 10.2700 0.0706
30.8800 10.2767 0.0572
30.9000 10.2834 0.0635
30.9200 10.2901 0.0663
30.9400 10.2967 0.0555
30.9600 10.3033 0.0697
30.9800 10.3099 0.0596
31.0000 10.3166 0.0577
31.0200 10.3233 0.0685
31.0400 10.3300 0.0623
31.0600 10.3367 0.0597
31.0800 10.3434 0.0637
31.1000 10.3500 0.0597
31.1200 10.3567 0.0567
31.1400 10.3633 0.0636
31.1600 10.3699 0.0621
31.1800 10.3765 0.0599
31.2000 10.3833 0.0635
31.2200 10.3900 0.0581
31.2400 10.3967 0.0564
31.2600 10.4033 0.0640
31.2800 10.4100 0.0570
31.3000 10.4167 0.0582
31.3200 10.4233 0.0590
31.3400 10.4299 0.0622
31.3600 10.4366 0.0587
31.3800 10.4432 0.0616
31.4000 10.4500 0.0608
31.4200 10.4566 0.0560
31.4400 10.4633 0.0603
31.4600 10.4700 0.0604
31.4800 10.4767 0.0504
31.5000 10.4833 0.0612
31.5200 10.4899 0.0616
31.5400 10.4966 0.0510
31.5600 10.5033 0.0584
31.5800 10.5100 0.0593
31.6000 10.5167 0.0535
31.6200 10.5234 0.0656
31.6400 10.5301 0.0564
31.6600 10.5367 0.0447
31.6800 10.5433 0.0589
31.7000 10.5499 0.0560
31.7200 10.5566 0.0527
31.7400 10.5633 0.0612
31.7600 10.5700 0.0544
31.7800 10.5767 0.0472
31.8000 10.5834 0.0599
31.8200 10.5901 0.0580
31.8400 10.5967 0.0564
31.8600 10.6033 0.0552
31.8800 10.6099 0.0513
31.9000 10.6165 0.0523
31.9200 10.6232 0.0596
31.9400 10.6300 0.0534
31.9600 10.6367 0.0551
31.9800 10.6434 0.0550
32.0000 10.6500 0.0526
32.0200 10.6567 0.0530
32.0400 10.6633 0.0550
32.0600 10.6699 0.0570
32.0800 10.6765 0.0483
32.1000 10.6832 0.0482
32.1200 10.6900 0.0551
32.1400 10.6967 0.0454
32.1600 10.7033 0.0557
32.1800 10.7100 0.0539
32.2000 10.7167 0.0402
32.2200 10.7233 0.0534
32.2400 10.7299 0.0593
32.2600 10.7366 0.0445
32.2800 10.7433 0.0501
32.3000 10.7500 0.0557
32.3200 10.7567 0.0408
32.3400 10.7634 0.0517
32.3600 10.7701 0.0497
32.3800 10.7767 0.0435
32.4000 10.7834 0.0506
32.4200 10.7900 0.0508
32.4400 10.7966 0.0376
32.4600 10.8033 0.0563
32.4800 10.8100 0.0519
32.5000 10.8167 0.0397
32.5200 10.8234 0.0512
32.5400 10.8300 0.0448
32.5600 10.8367 0.0388
32.5800 10.8433 0.0551
32.6000 10.8499 0.0433
32.6200 10.8566 0.0423
32.6400 10.8633 0.0518
32.6600 10.8700 0.0415
32.6800 10.8767 0.0461
32.7000 10.8833 0.0491
32.7200 10.8900 0.0427
32.7400 10.8967 0.0412
32.7600 10.9033 0.0431
32.7800 10.9099 0.0403
32.8000 10.9165 0.0479
32.8200 10.9232 0.0405
32.8400 10.9300 0.0402
32.8600 10.9367 0.0436
32.8800 10.9433 0.0446
32.9000 10.9500 0.0462
32.9200 10.9567 0.0455
32.9400 10.9633 0.0381
32.9600 10.9699 0.0464
32.9800 10.9766 0.0411
33.0000 10.9832 0.0409
33.0200 10.9900 0.0452
33.0400 10.9967 0.0352
33.0600 11.0033 0.0376
33.0800 11.0100 0.0512
33.1000 11.0167 0.0399
33.1200 11.0233 0.0348
33.1400 11.0299 0.0477
33.1600 11.0366 0.0338
33.1800 11.0433 0.0402
33.2000 11.0500 0.0433
33.2200 11.0567 0.0369
33.2400 11.0634 0.0365
33.2600 11.0701 0.0431
33.2800 11.0767 0.0266
33.3000 11.0833 0.0449
33.3200 11.0899 0.0476
33.3400 11.0966 0.0317
33.3600 11.1033 0.0421
33.3800 11.1100 0.0415
33.4000 11.1166 0.0296
33.4200 11.1233 0.0418
33.4400 11.1300 0.0382
33.4600 11.1367 0.0239
33.4800 11.1433 0.0398
33.5000 11.1499 0.0371
33.5200 11.1565 0.0291
33.5400 11.1632 0.0410
33.5600 11.1699 0.0379
33.5800 11.1766 0.0281
33.6000 11.1833 0.0379
33.6200 11.1900 0.0316
33.6400 11.1967 0.0318
33.6600 11.2033 0.0347
33.6800 11.2099 0.0356
33.7000 11.2166 0.0309
33.7200 11.2233 0.0435
33.7400 11.2300 0.0379
33.7600 11.2367 0.0263
33.7800 11.2434 0.0394
33.8000 11.2501 0.0336
33.8200 11.2567 0.0258
33.8400 11.2633 0.0344
33.8600 11.2699 0.0332
33.8800 11.2766 0.0314
33.9000 11.2833 0.0353
33.9200 11.2900 0.0313
33.9400 11.2967 0.0346
33.9600 11.3034 0.0364
33.9800 11.3100 0.0240
34.0000 11.3167 0.0315
34.0200 11.3233 0.0306
34.0400 11.3300 0.0246
34.0600 11.3366 0.0361
34.0800 11.3432 0.0282
34.1000 11.3499 0.0297
34.1200 11.3566 0.0345
34.1400 11.3633 0.0342
34.1600 11.3700 0.0319
34.1800 11.3767 0.0286
34.2000 11.3833 0.0266
34.2200 11.3899 0.0304
34.2400 11.3965 0.0337
34.2600 11.4032 0.0246
34.2800 11.4099 0.0247
34.3000 11.4166 0.0312
34.3200 11.4233 0.0238
34.3400 11.4300 0.0310
34.3600 11.4366 0.0360
34.3800 11.4433 0.0266
34.4000 11.4499 0.0262
34.4200 11.4565 0.0342
34.4400 11.4632 0.0308
34.4600 11.4700 0.0238
34.4800 11.4767 0.0365
34.5000 11.4834 0.0249
34.5200 11.4901 0.0279
34.5400 11.4967 0.0326
34.5600 11.5034 0.0221
34.5800 11.5100 0.0310
34.6000 11.5166 0.0398
34.6200 11.5233 0.0216
34.6400 11.5300 0.0278
34.6600 11.5367 0.0296
34.6800 11.5434 0.0224
34.7000 11.5500 0.0287
34.7200 11.5567 0.0323
34.7400 11.5633 0.0200
34.7600 11.5699 0.0333
34.7800 11.5765 0.0296
34.8000 11.5832 0.0192
34.8200 11.5899 0.0370
34.8400 11.5966 0.0297
34.8600 11.6033 0.0198
34.8800 11.6100 0.0307
34.9000 11.6166 0.0243
34.9200 11.6233 0.0210
34.9400 11.6299 0.0302
34.9600 11.6365 0.0261
34.9800 11.6432 0.0253
35.0000 11.6499 0.0276
35.0200 11.6566 0.0259
35.0400 11.6633 0.0283
35.0600 11.6700 0.0282
35.0800 11.6767 0.0224
35.1000 11.6834 0.0301
35.1200 11.6900 0.0184
35.1400 11.6966 0.0285
35.1600 11.7033 0.0304
35.1800 11.7100 0.0170
35.2000 11.7167 0.0254
35.2200 11.7233 0.0302
35.2400 11.7300 0.0220
35.2600 11.7367 0.0286
35.2800 11.7434 0.0225
35.3000 11.7500 0.0195
35.3200 11.7566 0.0319
35.3400 11.7633 0.0185
35.3600 11.7700 0.0228
35.3800 11.7767 0.0296
35.4000 11.7834 0.0166
35.4200 11.7900 0.0225
35.4400 11.7967 0.0340
35.4600 11.8034 0.0174
35.4800 11.8100 0.0216
35.5000 11.8166 0.0257
35.5200 11.8233 0.0190
35.5400 11.8300 0.0221
35.5600 11.8366 0.0269
35.5800 11.8433 0.0160
35.6000 11.8500 0.0189
35.6200 11.8567 0.0238
35.6400 11.8634 0.0195
35.6600 11.8700 0.0226
35.6800 11.8765 0.0251
35.7000 11.8832 0.0180
35.7200 11.8899 0.0193
35.7400 11.8966 0.0223
35.7600 11.9033 0.0143
35.7800 11.9100 0.0211
35.8000 11.9167 0.0200
35.8200 11.9233 0.0174
35.8400 11.9299 0.0151
35.8600 11.9366 0.0262
35.8800 11.9432 0.0183
35.9000 11.9499 0.0141
35.9200 11.9566 0.0223
35.9400 11.9633 0.0172
35.9600 11.9700 0.0138
35.9800 11.9767 0.0206
36.0000 11.9834 0.0124
36.0200 11.9900 0.0133
36.0400 11.9966 0.0183
36.0600 12.0032 0.0166
36.0800 12.0099 0.0160
36.1000 12.0167 0.0196
36.1200 12.0234 0.0129
36.1400 12.0300 0.0111
36.1600 12.0367 0.0188
36.1800 12.0434 0.0171
36.2000 12.0500 0.0071
36.2200 12.0566 0.0176
36.2400 12.0632 0.0155
36.2600 12.0699 0.0082
36.2800 12.0767 0.0216
36.3000 12.0834 0.0101
36.3200 12.0900 0.0079
36.3400 12.0967 0.0175
36.3600 12.1033 0.0088
36.3800 12.1100 0.0064
36.4000 12.1166 0.0197
36.4200 12.1232 0.0085
36.4400 12.1299 0.0043
36.4600 12.1366 0.0151
36.4800 12.1433 0.0092
36.5000 12.1500 0.0129
36.5200 12.1567 0.0181
36.5400 12.1633 -0.0017
36.5600 12.1700 0.0109
36.5800 12.1766 0.0138
36.6000 12.1832 0.0045
36.6200 12.1899 0.0126
36.6400 12.1966 0.0072
36.6600 12.2033 0.0027
36.6800 12.2100 0.0155
36.7000 12.2167 0.0093
36.7200 12.2234 0.0008
36.7400 12.2300 0.0196
36.7600 12.2366 0.0014
36.7800 12.2433 -0.0027
36.8000 12.2500 0.0211
36.8200 12.2567 -0.0009
36.8400 12.2634 0.0000
36.8600 12.2700 0.0180
36.8800 12.2767 -0.0017
36.9000 12.2833 0.0060
36.9200 12.2900 0.0134
36.9400 12.2966 0.0011
36.9600 12.3032 0.0077
36.9800 12.3099 0.0105
37.0000 12.3166 -0.0041
37.0200 12.3233 0.0073
37.0400 12.3300 0.0057
37.0600 12.3367 -0.0040
37.0800 12.3434 0.0061
37.1000 12.3500 0.0018
37.1200 12.3566 0.0074
37.1400 12.3632 0.0096
37.1600 12.3699 -0.0044
37.1800 12.3766 0.0055
37.2000 12.3833 0.0054
37.2200 12.3900 -0.0071
37.2400 12.3967 0.0087
37.2600 12.4034 -0.0026
37.2800 12.4100 -0.0030
37.3000 12.4166 0.0109
37.3200 12.4232 -0.0022
37.3400 12.4299 -0.0039
37.3600 12.4366 0.0145
37.3800 12.4433 -0.0067
37.4000 12.4500 0.0013
37.4200 12.4567 0.0080
37.4400 12.4634 -0.0103
37.4600 12.4700 0.0006
37.4800 12.4766 0.0039
37.5000 12.4833 -0.0068
37.5200 12.4899 0.0014
37.5400 12.4966 0.0026
37.5600 12.5033 -0.0099
37.5800 12.5100 0.0092
37.6000 12.5167 -0.0002
37.6200 12.5234 -0.0069
37.6400 12.5300 0.0036
37.6600 12.5366 -0.0089
37.6800 12.5432 -0.0034
37.7000 12.5499 0.0054
37.7200 12.5566 -0.0111
37.7400 12.5633 0.0042
37.7600 12.5700 -0.0013
37.7800 12.5767 -0.0072
37.8000 12.5833 0.0038
37.8200 12.5899 0.0019
37.8400 12.5965 -0.0073
37.8600 12.6032 0.0047
37.8800 12.6099 -0.0060
37.9000 12.6166 -0.0098
37.9200 12.6233 0.0053
37.9400 12.6299 -0.0085
37.9600 12.6366 -0.0102
37.9800 12.6433 0.0014
38.0000 12.6500 -0.0061
38.0200 12.6566 -0.0063
38.0400 12.6632 0.0011
38.0600 12.6699 -0.0103
38.0800 12.6766 -0.0034
38.1000 12.6833 -0.0022
38.1200 12.6900 -0.0104
38.1400 12.6967 -0.0062
38.1600 12.7034 -0.0053
38.1800 12.7100 -0.0093
38.2000 12.7166 -0.0037
38.2200 12.7232 -0.0075
38.2400 12.7299 -0.0049
38.2600 12.7366 -0.0067
38.2800 12.7434 -0.0117
38.3000 12.7500 -0.0072
38.3200 12.7567 -0.0028
38.3400 12.7634 -0.0152
38.3600 12.7700 -0.0060
38.3800 12.7766 -0.0085
38.4000 12.7832 -0.0110
38.4200 12.7899 -0.0016
38.4400 12.7966 -0.0073
38.4600 12.8033 -0.0106
38.4800 12.8100 -0.0070
38.5000 12.8167 -0.0091
38.5200 12.8234 -0.0125
38.5400 12.8300 -0.0052
38.5600 12.8366 -0.0140
38.5800 12.8432 -0.0100
38.6000 12.8499 -0.0059
38.6200 12.8566 -0.0125
38.6400 12.8633 -0.0111
38.6600 12.8700 -0.0037
38.6800 12.8766 -0.0158
38.7000 12.8833 -0.0133
38.7200 12.8900 -0.0093
38.7400 12.8966 -0.0160
38.7600 12.9032 -0.0128
38.7800 12.9099 -0.0095
38.8000 12.9166 -0.0166
38.8200 12.9233 -0.0084
38.8400 12.9300 -0.0127
38.8600 12.9367 -0.0147
38.8800 12.9434 -0.0135
38.9000 12.9500 -0.0158
38.9200 12.9566 -0.0114
38.9400 12.9632 -0.0156
38.9600 12.9699 -0.0136
38.9800 12.9767 -0.0124
39.0000 12.9834 -0.0152
39.0200 12.9900 -0.0181
39.0400 12.9967 -0.0096
39.0600 13.0034 -0.0156
39.0800 13.0100 -0.0159
39.1000 13.0166 -0.0131
39.1200 13.0232 -0.0146
39.1400 13.0299 -0.0181
39.1600 13.0366 -0.0132
39.1800 13.0433 -0.0166
39.2000 13.0500 -0.0156
39.2200 13.0566 -0.0177
39.2400 13.0633 -0.0171
39.2600 13.0700 -0.0117
39.2800 13.0766 -0.0186
39.3000 13.0832 -0.0186
39.3200 13.0899 -0.0094
39.3400 13.0966 -0.0133
39.3600 13.1033 -0.0206
39.3800 13.1100 -0.0109
39.4000 13.1167 -0.0185
39.4200 13.1234 -0.0181
39.4400 13.1300 -0.0148
39.4600 13.1366 -0.0165
39.4800 13.1432 -0.0151
39.5000 13.1499 -0.0139
39.5200 13.1566 -0.0245
39.5400 13.1633 -0.0197
39.5600 13.1700 -0.0132
39.5800 13.1767 -0.0212
39.6000 13.1833 -0.0200
39.6200 13.1900 -0.0154
39.6400 13.1966 -0.0249
39.6600 13.2033 -0.0172
39.6800 13.2099 -0.0123
39.7000 13.2166 -0.0247
39.7200 13.2233 -0.0205
39.7400 13.2300 -0.0163
39.7600 13.2367 -0.0230
39.7800 13.2434 -0.0212
39.8000 13.2500 -0.0177
39.8200 13.2566 -0.0231
39.8400 13.2632 -0.0190
39.8600 13.2699 -0.0199
39.8800 13.2766 -0.0183
39.9000 13.2833 -0.0206
39.9200 13.2900 -0.0230
39.9400 13.2967 -0.0231
39.9600 13.3034 -0.0201
39.9800 13.3100 -0.0255
40.0000 13.3166 -0.0215
40.0200 13.3232 -0.0240
40.0400 13.3299 -0.0216
40.0600 13.3366 -0.0251
40.0800 13.3433 -0.0281
40.1000 13.3500 -0.0184
40.1200 13.3566 -0.0239
40.1400 13.3633 -0.0322
40.1600 13.3700 -0.0196
40.1800 13.3766 -0.0219
40.2000 13.3832 -0.0325
40.2200 13.3899 -0.0193
40.2400 13.3966 -0.0248
40.2600 13.4033 -0.0326
40.2800 13.4100 -0.0199
40.3000 13.4167 -0.0275
40.3200 13.4234 -0.0279
40.3400 13.4301 -0.0193
40.3600 13.4367 -0.0352
40.3800 13.4433 -0.0247
40.4000 13.4499 -0.0218
40.4200 13.4566 -0.0291
40.4400 13.4633 -0.0301
40.4600 13.4700 -0.0234
40.4800 13.4767 -0.0309
40.5000 13.4834 -0.0280
40.5200 13.4900 -0.0233
40.5400 13.4966 -0.0307
40.5600 13.5032 -0.0242
40.5800 13.5099 -0.0313
40.6000 13.5166 -0.0340
40.6200 13.5233 -0.0239
40.6400 13.5300 -0.0299
40.6600 13.5366 -0.0348
40.6800 13.5433 -0.0231
40.7000 13.5500 -0.0342
40.7200 13.5566 -0.0337
40.7400 13.5632 -0.0227
40.7600 13.5699 -0.0331
40.7800 13.5765 -0.0322
40.8000 13.5833 -0.0234
40.8200 13.5900 -0.0376
40.8400 13.5966 -0.0271
40.8600 13.6033 -0.0326
40.8800 13.6100 -0.0346
40.9000 13.6166 -0.0284
40.9200 13.6232 -0.0292
40.9400 13.6299 -0.0345
40.9600 13.6366 -0.0295
40.9800 13.6433 -0.0324
41.0000 13.6500 -0.0377
41.0200 13.6567 -0.0277
41.0400 13.6634 -0.0321
41.0600 13.6700 -0.0402
41.0800 13.6767 -0.0286
41.1000 13.6833 -0.0321
41.1200 13.6899 -0.0408
41.1400 13.6966 -0.0285
41.1600 13.7033 -0.0336
41.1800 13.7100 -0.0352
41.2000 13.7167 -0.0320
41.2200 13.7234 -0.0349
41.2400 13.7301 -0.0392
41.2600 13.7367 -0.0309
41.2800 13.7432 -0.0386
41.3000 13.7499 -0.0350
41.3200 13.7566 -0.0346
41.3400 13.7633 -0.0393
41.3600 13.7700 -0.0337
41.3800 13.7767 -0.0370
41.4000 13.7834 -0.0405
41.4200 13.7900 -0.0326
41.4400 13.7966 -0.0396
41.4600 13.8032 -0.0398
41.4800 13.8098 -0.0359
41.5000 13.8165 -0.0348
41.5200 13.8233 -0.0408
41.5400 13.8300 -0.0429
41.5600 13.8366 -0.0336
41.5800 13.8433 -0.0384
41.6000 13.8500 -0.0413
41.6200 13.8567 -0.0392
41.6400 13.8633 -0.0343
41.6600 13.8699 -0.0444
41.6800 13.8766 -0.0377
41.7000 13.8833 -0.0394
41.7200 13.8900 -0.0455
41.7400 13.8967 -0.0381
41.7600 13.9034 -0.0355
41.7800 13.9101 -0.0434
41.8000 13.9167 -0.0373
41.8200 13.9233 -0.0363
41.8400 13.9299 -0.0441
41.8600 13.9366 -0.0402
41.8800 13.9433 -0.0406
41.9000 13.9500 -0.0496
41.9200 13.9567 -0.0412
41.9400 13.9634 -0.0405
41.9600 13.9700 -0.0469
41.9800 13.9767 -0.0432
42.0000 13.9833 -0.0390
42.0200 13.9899 -0.0435
42.0400 13.9966 -0.0464
42.0600 14.0033 -0.0427
42.0800 14.0100 -0.0484
42.1000 14.0167 -0.0464
42.1200 14.0233 -0.0434
42.1400 14.0300 -0.0468
42.1600 14.0367 -0.0489
42.1800 14.0433 -0.0409
42.2000 14.0499 -0.0520
42.2200 14.0565 -0.0443
42.2400 14.0632 -0.0407
42.2600 14.0699 -0.0512
42.2800 14.0766 -0.0471
42.3000 14.0833 -0.0495
42.3200 14.0900 -0.0506
42.3400 14.0967 -0.0485
42.3600 14.1033 -0.0459
42.3800 14.1099 -0.0541
42.4000 14.1166 -0.0476
42.4200 14.1233 -0.0488
42.4400 14.1300 -0.0556
42.4600 14.1367 -0.0457
42.4800 14.1434 -0.0495
42.5000 14.1501 -0.0588
42.5200 14.1567 -0.0517
42.5400 14.1633 -0.0513
42.5600 14.1699 -0.0527
42.5800 14.1766 -0.0528
42.6000 14.1833 -0.0592
42.6200 14.1900 -0.0527
42.6400 14.1967 -0.0479
42.6600 14.2033 -0.0589
42.6800 14.2100 -0.0584
42.7000 14.2167 -0.0535
42.7200 14.2232 -0.0534
42.7400 14.2299 -0.0616
42.7600 14.2365 -0.0588
42.7800 14.2433 -0.0565
42.8000 14.2500 -0.0556
42.8200 14.2567 -0.0616
42.8400 14.2634 -0.0544
42.8600 14.2701 -0.0570
42.8800 14.2767 -0.0617
42.9000 14.2833 -0.0513
42.9200 14.2899 -0.0625
42.9400 14.2966 -0.0561
42.9600 14.3033 -0.0562
42.9800 14.3100 -0.0661
43.0000 14.3167 -0.0616
43.0200 14.3233 -0.0543
43.0400 14.3300 -0.0666
43.0600 14.3367 -0.0598
43.0800 14.3433 -0.0556
43.1000 14.3499 -0.0682
43.1200 14.3566 -0.0603
43.1400 14.3633 -0.0535
43.1600 14.3700 -0.0700
43.1800 14.3767 -0.0588
43.2000 14.3834 -0.0586
43.2200 14.3900 -0.0737
43.2400 14.3967 -0.0609
43.2600 14.4033 -0.0562
43.2800 14.4099 -0.0666
43.3000 14.4166 -0.0638
43.3200 14.4233 -0.0589
43.3400 14.4300 -0.0697
43.3600 14.4367 -0.0633
43.3800 14.4434 -0.0586
43.4000 14.4501 -0.0703
43.4200 14.4567 -0.0628
43.4400 14.4633 -0.0618
43.4600 14.4699 -0.0760
43.4800 14.4766 -0.0534
43.5000 14.4833 -0.0626
43.5200 14.4900 -0.0699
43.5400 14.4967 -0.0570
43.5600 14.5033 -0.0685
43.5800 14.5100 -0.0723
43.6000 14.5167 -0.0562
43.6200 14.5233 -0.0653
43.6400 14.5299 -0.0685
43.6600 14.5366 -0.0591
43.6800 14.5433 -0.0670
43.7000 14.5500 -0.0656
43.7200 14.5566 -0.0539
43.7400 14.5633 -0.0655
43.7600 14.5700 -0.0674
43.7800 14.5767 -0.0608
43.8000 14.5833 -0.0706
43.8200 14.5899 -0.0658
43.8400 14.5966 -0.0594
43.8600 14.6033 -0.0684
43.8800 14.6100 -0.0699
43.9000 14.6167 -0.0560
43.9200 14.6234 -0.0704
43.9400 14.6301 -0.0678
43.9600 14.6367 -0.0599
43.9800 14.6433 -0.0665
44.0000 14.6499 -0.0663
44.0200 14.6566 -0.0609
44.0400 14.6633 -0.0716
44.0600 14.6700 -0.0683
44.0800 14.6767 -0.0626
44.1000 14.6834 -0.0706
44.1200 14.6900 -0.0646
44.1400 14.6967 -0.0617
44.1600 14.7033 -0.0735
44.1800 14.7099 -0.0619
44.2000 14.7166 -0.0643
44.2200 14.7233 -0.0739
44.2400 14.7300 -0.0598
44.2600 14.7367 -0.0676
44.2800 14.7433 -0.0782
44.3000 14.7500 -0.0626
44.3200 14.7567 -0.0690
44.3400 14.7633 -0.0731
44.3600 14.7699 -0.0593
44.3800 14.7765 -0.0711
44.4000 14.7832 -0.0657
44.4200 14.7899 -0.0696
44.4400 14.7966 -0.0747
44.4600 14.8033 -0.0691
44.4800 14.8100 -0.0702
44.5000 14.8166 -0.0754
44.5200 14.8232 -0.0676
44.5400 14.8299 -0.0665
44.5600 14.8365 -0.0717
44.5800 14.8433 -0.0682
44.6000 14.8500 -0.0721
44.6200 14.8567 -0.0755
44.6400 14.8634 -0.0661
44.6600 14.8700 -0.0720
44.6800 14.8767 -0.0799
44.7000 14.8833 -0.0686
44.7200 14.8900 -0.0775
44.7400 14.8966 -0.0758
44.7600 14.9033 -0.0649
44.7800 14.9100 -0.0735
44.8000 14.9167 -0.0779
44.8200 14.9234 -0.0642
44.8400 14.9301 -0.0812
44.8600 14.9367 -0.0769
44.8800 14.9433 -0.0714
44.9000 14.9499 -0.0781
44.9200 14.9565 -0.0740
44.9400 14.9632 -0.0699
44.9600 14.9700 -0.0841
44.9800 14.9766 -0.0705
45.0000 14.9833 -0.0683
45.0200 14.9900 -0.0848
45.0400 14.9967 -0.0738
45.0600 15.0033 -0.0767
45.0800 15.0099 -0.0810
45.1000 15.0166 -0.0653
45.1200 15.0233 -0.0784
45.1400 15.0300 -0.0865
45.1600 15.0367 -0.0627
45.1800 15.0433 -0.0818
45.2000 15.0500 -0.0820
45.2200 15.0567 -0.0653
45.2400 15.0633 -0.0810
45.2600 15.0699 -0.0834
45.2800 15.0766 -0.0647
45.3000 15.0833 -0.0831
45.3200 15.0900 -0.0796
45.3400 15.0967 -0.0741
45.3600 15.1034 -0.0844
45.3800 15.1101 -0.0729
45.4000 15.1167 -0.0684
45.4200 15.1233 -0.0823
45.4400 15.1299 -0.0711
45.4600 15.1366 -0.0747
45.4800 15.1433 -0.0829
45.5000 15.1500 -0.0712
45.5200 15.1567 -0.0743
45.5400 15.1634 -0.0853
45.5600 15.1701 -0.0784
45.5800 15.1767 -0.0791
45.6000 15.1833 -0.0795
45.6200 15.1899 -0.0706
45.6400 15.1966 -0.0759
45.6600 15.2033 -0.0813
45.6800 15.2100 -0.0820
45.7000 15.2167 -0.0758
45.7200 15.2233 -0.0796
45.7400 15.2300 -0.0796
45.7600 15.2367 -0.0815
45.7800 15.2433 -0.0834
45.8000 15.2499 -0.0797
45.8200 15.2565 -0.0730
45.8400 15.2632 -0.0753
45.8600 15.2699 -0.0841
45.8800 15.2766 -0.0811
45.9000 15.2833 -0.0798
45.9200 15.2900 -0.0821
45.9400 15.2967 -0.0771
45.9600 15.3033 -0.0830
45.9800 15.3099 -0.0801
46.0000 15.3165 -0.0777
46.0200 15.3232 -0.0822
46.0400 15.3300 -0.0729
46.0600 15.3367 -0.0802
46.0800 15.3434 -0.0835
46.1000 15.3501 -0.0842
46.1200 15.3567 -0.0800
46.1400 15.3633 -0.0874
46.1600 15.3699 -0.0782
46.1800 15.3766 -0.0801
46.2000 15.3833 -0.0854
46.2200 15.3900 -0.0822
46.2400 15.3967 -0.0823
46.2600 15.4034 -0.0836
46.2800 15.4101 -0.0799
46.3000 15.4167 -0.0841
46.3200 15.4233 -0.0878
46.3400 15.4299 -0.0828
46.3600 15.4366 -0.0847
46.3800 15.4432 -0.0804
46.4000 15.4500 -0.0846
46.4200 15.4567 -0.0932
46.4400 15.4633 -0.0793
46.4600 15.4700 -0.0792
46.4800 15.4767 -0.0909
46.5000 15.4833 -0.0805
46.5200 15.4899 -0.0879
46.5400 15.4965 -0.0878
46.5600 15.5032 -0.0802
46.5800 15.5099 -0.0855
46.6000 15.5166 -0.0938
46.6200 15.5233 -0.0837
46.6400 15.5300 -0.0898
46.6600 15.5367 -0.0904
46.6800 15.5433 -0.0812
46.7000 15.5499 -0.0895
46.7200 15.5565 -0.0889
46.7400 15.5632 -0.0865
46.7600 15.5700 -0.0938
46.7800 15.5766 -0.0885
46.8000 15.5833 -0.0892
46.8200 15.5900 -0.0914
46.8400 15.5967 -0.0899
46.8600 15.6034 -0.0896
46.8800 15.6100 -0.0898
46.9000 15.6166 -0.0876
46.9200 15.6233 -0.0882
46.9400 15.6300 -0.0941
46.9600 15.6367 -0.0920
46.9800 15.6434 -0.0886
47.0000 15.6501 -0.0904
47.0200 15.6567 -0.0961
47.0400 15.6633 -0.0918
47.0600 15.6699 -0.0927
47.0800 15.6765 -0.0913
47.1000 15.6832 -0.0879
47.1200 15.6900 -0.0911
47.1400 15.6967 -0.0924
47.1600 15.7033 -0.0909
47.1800 15.7100 -0.0908
47.2000 15.7167 -0.0898
47.2200 15.7233 -0.0986
47.2400 15.7299 -0.0887
47.2600 15.7366 -0.0928
47.2800 15.7432 -0.1003
47.3000 15.7500 -0.0823
47.3200 15.7567 -0.0899
47.3400 15.7633 -0.1041
47.3600 15.7700 -0.0870
47.3800 15.7767 -0.0927
47.4000 15.7833 -0.1025
47.4200 15.7900 -0.0798
47.4400 15.7966 -0.1028
47.4600 15.8032 -0.1037
47.4800 15.8100 -0.0801
47.5000 15.8167 -0.1038
47.5200 15.8234 -0.1011
47.5400 15.8300 -0.0782
47.5600 15.8367 -0.1134
47.5800 15.8433 -0.0984
47.6000 15.8499 -0.0810
47.6200 15.8566 -0.1104
47.6400 15.8632 -0.0944
47.6600 15.8700 -0.0908
47.6800 15.8767 -0.1115
47.7000 15.8834 -0.0865
47.7200 15.8901 -0.0928
47.7400 15.8967 -0.1110
47.7600 15.9034 -0.0894
47.7800 15.9100 -0.1011
47.8000 15.9166 -0.1025
47.8200 15.9233 -0.0892
47.8400 15.9300 -0.1073
47.8600 15.9367 -0.1033
47.8800 15.9433 -0.0929
47.9000 15.9500 -0.1104
47.9200 15.9567 -0.1000
47.9400 15.9633 -0.0969
47.9600 15.9699 -0.1078
47.9800 15.9765 -0.0998
48.0000 15.9832 -0.0966
48.0200 15.9899 -0.1100
48.0400 15.9966 -0.0968
48.0600 16.0033 -0.1016
48.0800 16.0100 -0.1050
48.1000 16.0167 -0.0974
48.1200 16.0233 -0.1110
48.1400 16.0299 -0.1044
48.1600 16.0366 -0.0948
48.1800 16.0433 -0.1087
48.2000 16.0500 -0.1006
48.2200 16.0567 -0.1017
48.2400 16.0634 -0.1118
48.2600 16.0700 -0.0993
48.2800 16.0767 -0.1072
48.3000 16.0834 -0.1069
48.3200 16.0900 -0.1035
48.3400 16.0966 -0.1040
48.3600 16.1033 -0.1056
48.3800 16.1100 -0.0980
48.4000 16.1167 -0.1113
48.4200 16.1233 -0.1045
48.4400 16.1300 -0.0999
48.4600 16.1367 -0.1160
48.4800 16.1434 -0.1059
48.5000 16.1500 -0.0980
48.5200 16.1566 -0.1182
48.5400 16.1632 -0.1046
48.5600 16.1699 -0.0973
48.5800 16.1766 -0.1178
48.6000 16.1833 -0.1020
48.6200 16.1900 -0.1027
48.6400 16.1967 -0.1186
48.6600 16.2034 -0.1039
48.6800 16.2099 -0.1081
48.7000 16.2165 -0.1187
48.7200 16.2232 -0.0986
48.7400 16.2299 -0.1114
48.7600 16.2366 -0.1136
48.7800 16.2433 -0.0988
48.8000 16.2500 -0.1120
48.8200 16.2567 -0.1142
48.8400 16.2633 -0.1028
48.8600 16.2699 -0.1137
48.8800 16.2766 -0.1086
48.9000 16.2832 -0.1087
48.9200 16.2899 -0.1140
48.9400 16.2967 -0.1097
48.9600 16.3033 -0.1057
48.9800 16.3100 -0.1141
49.0000 16.3167 -0.1091
49.0200 16.3234 -0.1079
49.0400 16.3300 -0.1169
49.0600 16.3366 -0.1064
49.0800 16.3432 -0.1063
49.1000 16.3500 -0.1155
49.1200 16.3567 -0.1118
49.1400 16.3634 -0.1077
49.1600 16.3701 -0.1147
49.1800 16.3767 -0.1103
49.2000 16.3833 -0.1105
49.2200 16.3899 -0.1122
49.2400 16.3965 -0.1129
49.2600 16.4032 -0.1073
49.2800 16.4099 -0.1130
49.3000 16.4166 -0.1140
49.3200 16.4233 -0.1149
49.3400 16.4299 -0.1109
49.3600 16.4366 -0.1110
49.3800 16.4433 -0.1122
49.4000 16.4499 -0.1164
49.4200 16.4565 -0.1114
49.4400 16.4632 -0.1122
49.4600 16.4699 -0.1137
49.4800 16.4766 -0.1135
49.5000 16.4833 -0.1134
49.5200 16.4900 -0.1123
49.5400 16.4967 -0.1194
49.5600 16.5034 -0.1169
49.5800 16.5100 -0.1184
49.6000 16.5166 -0.1147
49.6200 16.5232 -0.1135
49.6400 16.5299 -0.1137
49.6600 16.5367 -0.1181
49.6800 16.5434 -0.1106
49.7000 16.5500 -0.1148
49.7200 16.5567 -0.1202
49.7400 16.5634 -0.1130
49.7600 16.5700 -0.1105
49.7800 16.5766 -0.1270
49.8000 16.5832 -0.1122
49.8200 16.5899 -0.1112
49.8400 16.5967 -0.1219
49.8600 16.6034 -0.1159
49.8800 16.6100 -0.1074
49.9000 16.6167 -0.1248
49.9200 16.6234 -0.1168
49.9400 16.6300 -0.1135
49.9600 16.6366 -0.1252
49.9800 16.6433 -0.1144
50.0000 16.6499 -0.1164
50.0200 16.6566 -0.1185
50.0400 16.6633 -0.1220
50.0600 16.6700 -0.1151
50.0800 16.6767 -0.1155
50.1000 16.6834 -0.1263
50.1200 16.6900 -0.1169
50.1400 16.6965 -0.1187
50.1600 16.7032 -0.1315
50.1800 16.7099 -0.1135
50.2000 16.7166 -0.1213
50.2200 16.7233 -0.1244
50.2400 16.7300 -0.1153
50.2600 16.7367 -0.1249
50.2800 16.7433 -0.1298
50.3000 16.7500 -0.1092
50.3200 16.7566 -0.1270
50.3400 16.7632 -0.1281
50.3600 16.7699 -0.1137
50.3800 16.7766 -0.1318
50.4000 16.7833 -0.1258
50.4200 16.7900 -0.1184
50.4400 16.7967 -0.1270
50.4600 16.8034 -0.1219
50.4800 16.8100 -0.1243
50.5000 16.8166 -0.1276
50.5200 16.8233 -0.1217
50.5400 16.8299 -0.1278
50.5600 16.8366 -0.1281
50.5800 16.8433 -0.1258
50.6000 16.8500 -0.1272
50.6200 16.8567 -0.1279
50.6400 16.8634 -0.1254
50.6600 16.8700 -0.1325
50.6800 16.8766 -0.1263
50.7000 16.8832 -0.1220
50.7200 16.8899 -0.1297
50.7400 16.8967 -0.1326
50.7600 16.9034 -0.1303
50.7800 16.9100 -0.1311
50.8000 16.9167 -0.1279
50.8200 16.9233 -0.1346
50.8400 16.9300 -0.1288
50.8600 16.9366 -0.1292
50.8800 16.9432 -0.1390
50.9000 16.9499 -0.1245
50.9200 16.9566 -0.1295
50.9400 16.9633 -0.1374
50.9600 16.9700 -0.1311
50.9800 16.9766 -0.1323
51.0000 16.9833 -0.1379
51.0200 16.9900 -0.1289
51.0400 16.9966 -0.1317
51.0600 17.0032 -0.1329
51.0800 17.0099 -0.1363
51.1000 17.0166 -0.1339
51.1200 17.0233 -0.1357
51.1400 17.0300 -0.1309
51.1600 17.0367 -0.1309
51.1800 17.0434 -0.1350
51.2000 17.0500 -0.1472
51.2200 17.0566 -0.1350
51.2400 17.0632 -0.1356
51.2600 17.0699 -0.1397
51.2800 17.0766 -0.1290
51.3000 17.0833 -0.1412
51.3200 17.0900 -0.1411
51.3400 17.0967 -0.1284
51.3600 17.1034 -0.1364
51.3800 17.1100 -0.1418
51.4000 17.1166 -0.1342
51.4200 17.1232 -0.1435
51.4400 17.1299 -0.1367
51.4600 17.1366 -0.1365
51.4800 17.1433 -0.1432
51.5000 17.1500 -0.1357
51.5200 17.1567 -0.1364
51.5400 17.1634 -0.1447
51.5600 17.1700 -0.1314
51.5800 17.1766 -0.1363
51.6000 17.1832 -0.1400
51.6200 17.1899 -0.1353
51.6400 17.1966 -0.1404
51.6600 17.2033 -0.1435
51.6800 17.2100 -0.1361
51.7000 17.2167 -0.1446
51.7200 17.2234 -0.1401
51.7400 17.2300 -0.1376
51.7600 17.2366 -0.1386
51.7800 17.2432 -0.1390
51.8000 17.2499 -0.1432
51.8200 17.2566 -0.1396
51.8400 17.2633 -0.1416
51.8600 17.2700 -0.1458
51.8800 17.2767 -0.1357
51.9000 17.2834 -0.1407
51.9200 17.2900 -0.1515
51.9400 17.2966 -0.1312
51.9600 17.3033 -0.1410
51.9800 17.3099 -0.1435
52.0000 17.3167 -0.1345
52.0200 17.3233 -0.1463
52.0400 17.3300 -0.1477
52.0600 17.3367 -0.1274
52.0800 17.3434 -0.1469
52.1000 17.3500 -0.1510
52.1200 17.3566 -0.1319
52.1400 17.3632 -0.1467
52.1600 17.3699 -0.1454
52.1800 17.3766 -0.1304
52.2000 17.3833 -0.1472
52.2200 17.3900 -0.1479
52.2400 17.3967 -0.1341
52.2600 17.4034 -0.1493
52.2800 17.4100 -0.1442
52.3000 17.4166 -0.1358
52.3200 17.4232 -0.1493
52.3400 17.4299 -0.1459
52.3600 17.4366 -0.1363
52.3800 17.4433 -0.1518
52.4000 17.4499 -0.1413
52.4200 17.4566 -0.1452
52.4400 17.4633 -0.1521
52.4600 17.4700 -0.1415
52.4800 17.4766 -0.1459
52.5000 17.4832 -0.1551
52.5200 17.4899 -0.1380
52.5400 17.4966 -0.1509
52.5600 17.5034 -0.1543
52.5800 17.5100 -0.1387
52.6000 17.5167 -0.1482
52.6200 17.5234 -0.1454
52.6400 17.5300 -0.1448
52.6600 17.5366 -0.1485
52.6800 17.5433 -0.1441
52.7000 17.5499 -0.1504
52.7200 17.5566 -0.1492
52.7400 17.5634 -0.1481
52.7600 17.5700 -0.1543
52.7800 17.5767 -0.1397
52.8000 17.5834 -0.1507
52.8200 17.5900 -0.1530
52.8400 17.5966 -0.1430
52.8600 17.6032 -0.1473
52.8800 17.6099 -0.1581
52.9000 17.6166 -0.1419
52.9200 17.6233 -0.1524
52.9400 17.6300 -0.1569
52.9600 17.6367 -0.1439
52.9800 17.6434 -0.1529
53.0000 17.6500 -0.1536
53.0200 17.6566 -0.1360
53.0400 17.6632 -0.1565
53.0600 17.6699 -0.1492
53.0800 17.6766 -0.1390
53.1000 17.6833 -0.1633
53.1200 17.6900 -0.1493
53.1400 17.6966 -0.1431
53.1600 17.7033 -0.1615
53.1800 17.7100 -0.1530
53.2000 17.7166 -0.1494
53.2200 17.7232 -0.1590
53.2400 17.7299 -0.1462
53.2600 17.7366 -0.1493
53.2800 17.7433 -0.1571
53.3000 17.7500 -0.1542
53.3200 17.7567 -0.1477
53.3400 17.7634 -0.1535
53.3600 17.7700 -0.1538
53.3800 17.7766 -0.1524
53.4000 17.7833 -0.1503
53.4200 17.7899 -0.1574
53.4400 17.7967 -0.1527
53.4600 17.8034 -0.1503
53.4800 17.8100 -0.1599
53.5000 17.8167 -0.1567
53.5200 17.8234 -0.1488
53.5400 17.8300 -0.1610
53.5600 17.8366 -0.1565
53.5800 17.8432 -0.1487
53.6000 17.8499 -0.1608
53.6200 17.8566 -0.1556
53.6400 17.8633 -0.1554
53.6600 17.8700 -0.1537
53.6800 17.8766 -0.1553
53.7000 17.8833 -0.1593
53.7200 17.8900 -0.1590
53.7400 17.8966 -0.1576
53.7600 17.9032 -0.1592
53.7800 17.9099 -0.1521
53.8000 17.9166 -0.1591
53.8200 17.9233 -0.1604
53.8400 17.9300 -0.1587
53.8600 17.9367 -0.1627
53.8800 17.9434 -0.1543
53.9000 17.9500 -0.1592
53.9200 17.9566 -0.1661
53.9400 17.9632 -0.1546
53.9600 17.9699 -0.1584
53.9800 17.9766 -0.1640
54.0000 17.9833 -0.1553
54.0200 17.9900 -0.1648
54.0400 17.9967 -0.1665
54.0600 18.0034 -0.1572
54.0800 18.0100 -0.1671
54.1000 18.0167 -0.1640
54.1200 18.0232 -0.1557
54.1400 18.0299 -0.1720
54.1600 18.0366 -0.1619
54.1800 18.0433 -0.1617
54.2000 18.0500 -0.1649
54.2200 18.0567 -0.1681
54.2400 18.0634 -0.1643
54.2600 18.0700 -0.1649
54.2800 18.0766 -0.1649
54.3000 18.0832 -0.1686
54.3200 18.0899 -0.1682
54.3400 18.0966 -0.1608
54.3600 18.1033 -0.1770
54.3800 18.1100 -0.1675
54.4000 18.1167 -0.1650
54.4200 18.1234 -0.1751
54.4400 18.1300 -0.1651
54.4600 18.1366 -0.1707
54.4800 18.1432 -0.1727
54.5000 18.1499 -0.1588
54.5200 18.1566 -0.1730
54.5400 18.1633 -0.1791
54.5600 18.1700 -0.1647
54.5800 18.1766 -0.1616
54.6000 18.1833 -0.1819
54.6200 18.1900 -0.1729
54.6400 18.1966 -0.1631
54.6600 18.2032 -0.1717
54.6800 18.2099 -0.1722
54.7000 18.2166 -0.1739
54.7200 18.2233 -0.1641
54.7400 18.2300 -0.1742
54.7600 18.2367 -0.1770
54.7800 18.2434 -0.1710
54.8000 18.2501 -0.1692
54.8200 18.2567 -0.1765
54.8400 18.2633 -0.1794
54.8600 18.2699 -0.1677
54.8800 18.2766 -0.1694
54.9000 18.2833 -0.1762
54.9200 18.2900 -0.1707
54.9400 18.2967 -0.1817
54.9600 18.3034 -0.1660
54.9800 18.3100 -0.1675
55.0000 18.3167 -0.1947
55.0200 18.3233 -0.1760
55.0400 18.3299 -0.1606
55.0600 18.3366 -0.1869
55.0800 18.3433 -0.1833
55.1000 18.3500 -0.1610
55.1200 18.3567 -0.1747
55.1400 18.3633 -0.1837
55.1600 18.3700 -0.1752
55.1800 18.3766 -0.1795
55.2000 18.3832 -0.1672
55.2200 18.3898 -0.1813
55.2400 18.3965 -0.1908
55.2600 18.4032 -0.1656
55.2800 18.4099 -0.1768
55.3000 18.4166 -0.1876
55.3200 18.4233 -0.1726
55.3400 18.4300 -0.1765
55.3600 18.4366 -0.1912
55.3800 18.4432 -0.1768
55.4000 18.4499 -0.1804
55.4200 18.4566 -0.1828
55.4400 18.4633 -0.1756
55.4600 18.4700 -0.1881
55.4800 18.4767 -0.1917
55.5000 18.4834 -0.1714
55.5200 18.4900 -0.1812
55.5400 18.4967 -0.1879
55.5600 18.5033 -0.1750
55.5800 18.5100 -0.1845
55.6000 18.5166 -0.1911
55.6200 18.5233 -0.1750
55.6400 18.5300 -0.1942
55.6600 18.5367 -0.1854
55.6800 18.5434 -0.1709
55.7000 18.5501 -0.2016
55.7200 18.5567 -0.1929
55.7400 18.5633 -0.1690
55.7600 18.5699 -0.1888
55.7800 18.5766 -0.1956
55.8000 18.5833 -0.1796
55.8200 18.5900 -0.1943
55.8400 18.5967 -0.1925
55.8600 18.6033 -0.1794
55.8800 18.6100 -0.1961
55.9000 18.6166 -0.1941
55.9200 18.6232 -0.1759
55.9400 18.6299 -0.1963
55.9600 18.6366 -0.1921
55.9800 18.6433 -0.1767
56.0000 18.6500 -0.1901
56.0200 18.6567 -0.2024
56.0400 18.6633 -0.1925
56.0600 18.6700 -0.1892
56.0800 18.6767 -0.1981
56.1000 18.6833 -0.1887
56.1200 18.6899 -0.1912
56.1400 18.6966 -0.1973
56.1600 18.7033 -0.1864
56.1800 18.7100 -0.1948
56.2000 18.7167 -0.1948
56.2200 18.7234 -0.1880
56.2400 18.7301 -0.2025
56.2600 18.7367 -0.2011
56.2800 18.7433 -0.1845
56.3000 18.7499 -0.1978
56.3200 18.7566 -0.1993
56.3400 18.7633 -0.1915
56.3600 18.7700 -0.2073
56.3800 18.7767 -0.1895
56.4000 18.7834 -0.1897
56.4200 18.7900 -0.2036
56.4400 18.7967 -0.1997
56.4600 18.8033 -0.1951
56.4800 18.8099 -0.2005
56.5000 18.8166 -0.1999
56.5200 18.8233 -0.1999
56.5400 18.8300 -0.1933
56.5600 18.8366 -0.2039
56.5800 18.8433 -0.2021
56.6000 18.8500 -0.1940
56.6200 18.8566 -0.1975
56.6400 18.8632 -0.2082
56.6600 18.8699 -0.1955
56.6800 18.8765 -0.1985
56.7000 18.8832 -0.2069
56.7200 18.8900 -0.1904
56.7400 18.8966 -0.2100
56.7600 18.9033 -0.2102
56.7800 18.9100 -0.1887
56.8000 18.9167 -0.2051
56.8200 18.9233 -0.2075
56.8400 18.9299 -0.1881
56.8600 18.9366 -0.2086
56.8800 18.9433 -0.2029
56.9000 18.9500 -0.1902
56.9200 18.9567 -0.2137
56.9400 18.9634 -0.2038
56.9600 18.9701 -0.1940
56.9800 18.9767 -0.2163
57.0000 18.9833 -0.1938
57.0200 18.9899 -0.1959
57.0400 18.9966 -0.2167
57.0600 19.0033 -0.1987
57.0800 19.0100 -0.2021
57.1000 19.0167 -0.2121
57.1200 19.0233 -0.1969
57.1400 19.0300 -0.2054
57.1600 19.0367 -0.2135
57.1800 19.0433 -0.1944
57.2000 19.0499 -0.2086
57.2200 19.0565 -0.2051
57.2400 19.0632 -0.1962
57.2600 19.0700 -0.2133
57.2800 19.0767 -0.2072
57.3000 19.0834 -0.2045
57.3200 19.0900 -0.2138
57.3400 19.0967 -0.1997
57.3600 19.1033 -0.2100
57.3800 19.1099 -0.2088
57.4000 19.1165 -0.1982
57.4200 19.1233 -0.2088
57.4400 19.1300 -0.2101
57.4600 19.1367 -0.2047
57.4800 19.1433 -0.2148
57.5000 19.1500 -0.2033
57.5200 19.1567 -0.2091
57.5400 19.1633 -0.2155
57.5600 19.1699 -0.2019
57.5800 19.1766 -0.2104
57.6000 19.1833 -0.2166
57.6200 19.1900 -0.2039
57.6400 19.1967 -0.2093
57.6600 19.2034 -0.2175
57.6800 19.2101 -0.1979
57.7000 19.2167 -0.2207
57.7200 19.2233 -0.2173
57.7400 19.2299 -0.2012
57.7600 19.2366 -0.2147
57.7800 19.2433 -0.2150
57.8000 19.2500 -0.2051
57.8200 19.2567 -0.2198
57.8400 19.2634 -0.2085
57.8600 19.2701 -0.2069
57.8800 19.2767 -0.2184
57.9000 19.2833 -0.2114
57.9200 19.2899 -0.2103
57.9400 19.2966 -0.2211
57.9600 19.3033 -0.2087
57.9800 19.3100 -0.2107
58.0000 19.3167 -0.2170
58.0200 19.3233 -0.2143
58.0400 19.3300 -0.2152
58.0600 19.3367 -0.2112
58.0800 19.3433 -0.2149
58.1000 19.3499 -0.2130
58.1200 19.3566 -0.2137
58.1400 19.3633 -0.2215
58.1600 19.3700 -0.2151
58.1800 19.3766 -0.2109
58.2000 19.3833 -0.2203
58.2200 19.3900 -0.2117
58.2400 19.3967 -0.2170
58.2600 19.4033 -0.2238
58.2800 19.4099 -0.2116
58.3000 19.4166 -0.2112
58.3200 19.4233 -0.2272
58.3400 19.4300 -0.2203
58.3600 19.4367 -0.2269
58.3800 19.4433 -0.2193
58.4000 19.4501 -0.2098
58.4200 19.4567 -0.2268
58.4400 19.4633 -0.2259
58.4600 19.4699 -0.2135
58.4800 19.4766 -0.2248
58.5000 19.4833 -0.2230
58.5200 19.4900 -0.2131
58.5400 19.4967 -0.2323
58.5600 19.5034 -0.2275
58.5800 19.5100 -0.2205
58.6000 19.5167 -0.2254
58.6200 19.5233 -0.2203
58.6400 19.5299 -0.2223
58.6600 19.5366 -0.2306
58.6800 19.5433 -0.2168
58.7000 19.5500 -0.2268
58.7200 19.5567 -0.2290
58.7400 19.5633 -0.2206
58.7600 19.5700 -0.2303
58.7800 19.5767 -0.2296
58.8000 19.5833 -0.2175
58.8200 19.5899 -0.2297
58.8400 19.5965 -0.2214
58.8600 19.6032 -0.2182
58.8800 19.6099 -0.2366
58.9000 19.6166 -0.2180
58.9200 19.6233 -0.2205
58.9400 19.6300 -0.2423
58.9600 19.6366 -0.2210
58.9800 19.6433 -0.2188
59.0000 19.6499 -0.2354
59.0200 19.6565 -0.2172
59.0400 19.6633 -0.2250
59.0600 19.6700 -0.2379
59.0800 19.6767 -0.2194
59.1000 19.6834 -0.2230
59.1200 19.6900 -0.2373
59.1400 19.6967 -0.2175
59.1600 19.7034 -0.2271
59.1800 19.7100 -0.2366
59.2000 19.7166 -0.2251
59.2200 19.7233 -0.2259
59.2400 19.7300 -0.2342
59.2600 19.7367 -0.2250
59.2800 19.7434 -0.2296
59.3000 19.7500 -0.2368
59.3200 19.7567 -0.2252
59.3400 19.7633 -0.2293
59.3600 19.7699 -0.2355
59.3800 19.7766 -0.2256
59.4000 19.7833 -0.2326
59.4200 19.7900 -0.2402
59.4400 19.7966 -0.2307
59.4600 19.8033 -0.2324
59.4800 19.8100 -0.2344
59.5000 19.8167 -0.2354
59.5200 19.8233 -0.2324
59.5400 19.8299 -0.2349
59.5600 19.8365 -0.2380
59.5800 19.8433 -0.2383
59.6000 19.8500 -0.2346
59.6200 19.8567 -0.2442
59.6400 19.8633 -0.2364
59.6600 19.8700 -0.2354
59.6800 19.8767 -0.2455
59.7000 19.8833 -0.2404
59.7200 19.8899 -0.2359
59.7400 19.8966 -0.2454
59.7510 19.9002 -0.2440
