Raw Data
Time Displacement Force
(s) (mm) (N)
0.0000 0.0000 0.6210
0.0200 0.0000 0.6203
0.0400 0.0008 0.6665
0.0600 0.0039 0.7182
0.0800 0.0093 0.7203
0.1000 0.0150 0.7574
0.1200 0.0209 0.8238
0.1400 0.0276 0.8306
0.1600 0.0349 0.8308
0.1800 0.0424 0.8357
0.2000 0.0497 0.8164
0.2200 0.0565 0.8258
0.2400 0.0631 0.8375
0.2600 0.0698 0.8253
0.2800 0.0764 0.8332
0.3000 0.0832 0.8392
0.3200 0.0899 0.8249
0.3400 0.0966 0.8397
0.3600 0.1033 0.8398
0.3800 0.1100 0.8267
0.4000 0.1166 0.8427
0.4200 0.1233 0.8375
0.4400 0.1299 0.8318
0.4600 0.1366 0.8410
0.4800 0.1433 0.8438
0.5000 0.1500 0.8384
0.5200 0.1567 0.8469
0.5400 0.1634 0.8403
0.5600 0.1700 0.8425
0.5800 0.1766 0.8526
0.6000 0.1832 0.8436
0.6200 0.1899 0.8486
0.6400 0.1966 0.8549
0.6600 0.2033 0.8445
0.6800 0.2100 0.8491
0.7000 0.2167 0.8536
0.7200 0.2234 0.8510
0.7400 0.2300 0.8562
0.7600 0.2366 0.8556
0.7800 0.2432 0.8566
0.8000 0.2499 0.8578
0.8200 0.2566 0.8575
0.8400 0.2633 0.8543
0.8600 0.2700 0.8605
0.8800 0.2766 0.8620
0.9000 0.2833 0.8599
0.9200 0.2900 0.8556
0.9400 0.2966 0.8650
0.9600 0.3032 0.8653
0.9800 0.3098 0.8579
1.0000 0.3165 0.8644
1.0200 0.3232 0.8582
1.0400 0.3299 0.8594
1.0600 0.3366 0.8683
1.0800 0.3433 0.8566
1.1000 0.3500 0.8550
1.1200 0.3566 0.8667
1.1400 0.3632 0.8533
1.1600 0.3699 0.8577
1.1800 0.3766 0.8631
1.2000 0.3833 0.8591
1.2200 0.3900 0.8554
1.2400 0.3967 0.8614
1.2600 0.4034 0.8527
1.2800 0.4101 0.8545
1.3000 0.4167 0.8563
1.3200 0.4233 0.8557
1.3400 0.4299 0.8534
1.3600 0.4366 0.8541
1.3800 0.4433 0.8546
1.4000 0.4500 0.8493
1.4200 0.4567 0.8517
1.4400 0.4634 0.8517
1.4600 0.4700 0.8423
1.4800 0.4766 0.8504
1.5000 0.4832 0.8494
1.5200 0.4899 0.8438
1.5400 0.4965 0.8466
1.5600 0.5033 0.8430
1.5800 0.5100 0.8385
1.6000 0.5166 0.8485
1.6200 0.5233 0.8420
1.6400 0.5300 0.8274
1.6600 0.5366 0.8468
1.6800 0.5432 0.8376
1.7000 0.5499 0.8297
1.7200 0.5566 0.8391
1.7400 0.5633 0.8328
1.7600 0.5700 0.8265
1.7800 0.5766 0.8353
1.8000 0.5833 0.8304
1.8200 0.5900 0.8273
1.8400 0.5966 0.8290
1.8600 0.6033 0.8267
1.8800 0.6099 0.8237
1.9000 0.6166 0.8240
1.9200 0.6233 0.8271
1.9400 0.6300 0.8230
1.9600 0.6367 0.8200
1.9800 0.6434 0.8251
2.0000 0.6500 0.8204
2.0200 0.6567 0.8146
2.0400 0.6632 0.8219
2.0600 0.6699 0.8194
2.0800 0.6766 0.8170
2.1000 0.6833 0.8132
2.1200 0.6900 0.8160
2.1400 0.6967 0.8149
2.1600 0.7034 0.8114
2.1800 0.7100 0.8069
2.2000 0.7166 0.8129
2.2200 0.7232 0.8132
2.2400 0.7299 0.8099
2.2600 0.7366 0.8089
2.2800 0.7433 0.8137
2.3000 0.7500 0.8061
2.3200 0.7566 0.8088
2.3400 0.7633 0.8097
2.3600 0.7700 0.8061
2.3800 0.7766 0.8082
2.4000 0.7832 0.8009
2.4200 0.7899 0.8069
2.4400 0.7966 0.8035
2.4600 0.8033 0.8020
2.4800 0.8099 0.8032
2.5000 0.8166 0.8038
2.5200 0.8233 0.8027
2.5400 0.8300 0.7974
2.5600 0.8367 0.7975
2.5800 0.8433 0.8020
2.6000 0.8499 0.7969
2.6200 0.8566 0.7930
2.6400 0.8633 0.8014
2.6600 0.8700 0.8002
2.6800 0.8767 0.7905
2.7000 0.8834 0.7992
2.7200 0.8900 0.7922
2.7400 0.8967 0.7936
2.7600 0.9033 0.7972
2.7800 0.9099 0.7930
2.8000 0.9166 0.7947
2.8200 0.9233 0.7948
2.8400 0.9300 0.7866
2.8600 0.9367 0.7873
2.8800 0.9434 0.7963
2.9000 0.9500 0.7881
2.9200 0.9567 0.7862
2.9400 0.9633 0.7884
2.9600 0.9699 0.7809
2.9800 0.9765 0.7916
3.0000 0.9832 0.7887
3.0200 0.9900 0.7831
3.0400 0.9967 0.7937
3.0600 1.0033 0.7774
3.0800 1.0100 0.7874
3.1000 1.0166 0.7910
3.1200 1.0232 0.7749
3.1400 1.0298 0.7856
3.1600 1.0365 0.7933
3.1800 1.0432 0.7716
3.2000 1.0500 0.7849
3.2200 1.0566 0.7876
3.2400 1.0633 0.7696
3.2600 1.0700 0.7842
3.2800 1.0766 0.7840
3.3000 1.0833 0.7749
3.3200 1.0899 0.7841
3.3400 1.0966 0.7800
3.3600 1.1033 0.7726
3.3800 1.1100 0.7824
3.4000 1.1167 0.7749
3.4200 1.1234 0.7774
3.4400 1.1301 0.7803
3.4600 1.1367 0.7692
3.4800 1.1433 0.7741
3.5000 1.1499 0.7811
3.5200 1.1566 0.7716
3.5400 1.1633 0.7759
3.5600 1.1700 0.7725
3.5800 1.1767 0.7722
3.6000 1.1834 0.7733
3.6200 1.1900 0.7720
3.6400 1.1967 0.7619
3.6600 1.2033 0.7754
3.6800 1.2099 0.7711
3.7000 1.2165 0.7617
3.7200 1.2233 0.7734
3.7400 1.2300 0.7664
3.7600 1.2367 0.7623
3.7800 1.2433 0.7668
3.8000 1.2500 0.7636
3.8200 1.2566 0.7611
3.8400 1.2633 0.7673
3.8600 1.2699 0.7608
3.8800 1.2766 0.7653
3.9000 1.2833 0.7638
3.9200 1.2900 0.7585
3.9400 1.2966 0.7608
3.9600 1.3033 0.7620
3.9800 1.3100 0.7570
4.0000 1.3167 0.7621
4.0200 1.3233 0.7537
4.0400 1.3299 0.7578
4.0600 1.3365 0.7655
4.0800 1.3432 0.7518
4.1000 1.3500 0.7557
4.1200 1.3566 0.7597
4.1400 1.3633 0.7486
4.1600 1.3700 0.7543
4.1800 1.3767 0.7508
4.2000 1.3833 0.7479
4.2200 1.3899 0.7544
4.2400 1.3966 0.7470
4.2600 1.4033 0.7483
4.2800 1.4100 0.7542
4.3000 1.4167 0.7514
4.3200 1.4234 0.7416
4.3400 1.4300 0.7582
4.3600 1.4367 0.7399
4.3800 1.4433 0.7437
4.4000 1.4499 0.7506
4.4200 1.4566 0.7349
4.4400 1.4633 0.7457
4.4600 1.4700 0.7494
4.4800 1.4766 0.7303
4.5000 1.4833 0.7458
4.5200 1.4900 0.7485
4.5400 1.4967 0.7250
4.5600 1.5033 0.7500
4.5800 1.5099 0.7432
4.6000 1.5165 0.7239
4.6200 1.5232 0.7471
4.6400 1.5299 0.7340
4.6600 1.5366 0.7267
4.6800 1.5433 0.7497
4.7000 1.5500 0.7256
4.7200 1.5567 0.7287
4.7400 1.5633 0.7425
4.7600 1.5699 0.7245
4.7800 1.5766 0.7318
4.8000 1.5833 0.7392
4.8200 1.5900 0.7184
4.8400 1.5967 0.7304
4.8600 1.6034 0.7355
4.8800 1.6100 0.7191
4.9000 1.6167 0.7312
4.9200 1.6233 0.7345
4.9400 1.6299 0.7174
4.9600 1.6366 0.7312
4.9800 1.6433 0.7271
5.0000 1.6500 0.7199
5.0200 1.6567 0.7283
5.0400 1.6634 0.7239
5.0600 1.6700 0.7199
5.0800 1.6767 0.7242
5.1000 1.6833 0.7164
5.1200 1.6899 0.7231
5.1400 1.6965 0.7268
5.1600 1.7032 0.7139
5.1800 1.7099 0.7221
5.2000 1.7166 0.7196
5.2200 1.7233 0.7143
5.2400 1.7300 0.7212
5.2600 1.7367 0.7143
5.2800 1.7433 0.7125
5.3000 1.7499 0.7196
5.3200 1.7565 0.7091
5.3400 1.7632 0.7166
5.3600 1.7699 0.7210
5.3800 1.7766 0.7090
5.4000 1.7833 0.7152
5.4200 1.7900 0.7179
5.4400 1.7966 0.7033
5.4600 1.8033 0.7108
5.4800 1.8099 0.7167
5.5000 1.8166 0.7017
5.5200 1.8233 0.7115
5.5400 1.8300 0.7108
5.5600 1.8367 0.7006
5.5800 1.8434 0.7098
5.6000 1.8501 0.7073
5.6200 1.8567 0.7012
5.6400 1.8633 0.7068
5.6600 1.8699 0.7033
5.6800 1.8766 0.7085
5.7000 1.8833 0.6992
5.7200 1.8900 0.7024
5.7400 1.8967 0.7012
5.7600 1.9033 0.6996
5.7800 1.9100 0.6987
5.8000 1.9167 0.6992
5.8200 1.9233 0.6961
5.8400 1.9299 0.6981
5.8600 1.9365 0.7016
5.8800 1.9432 0.6929
5.9000 1.9499 0.6986
5.9200 1.9566 0.6911
5.9400 1.9633 0.6920
5.9600 1.9700 0.6975
5.9800 1.9766 0.6873
6.0000 1.9833 0.6875
6.0200 1.9899 0.6996
6.0400 1.9965 0.6888
6.0600 2.0032 0.6835
6.0800 2.0099 0.6964
6.1000 2.0166 0.6842
6.1200 2.0233 0.6831
6.1400 2.0300 0.6962
6.1600 2.0367 0.6778
6.1800 2.0433 0.6821
6.2000 2.0499 0.6908
6.2200 2.0566 0.6813
6.2400 2.0632 0.6834
6.2600 2.0700 0.6850
6.2800 2.0767 0.6779
6.3000 2.0834 0.6811
6.3200 2.0900 0.6825
6.3400 2.0967 0.6797
6.3600 2.1033 0.6759
6.3800 2.1099 0.6775
6.4000 2.1166 0.6772
6.4200 2.1233 0.6714
6.4400 2.1300 0.6765
6.4600 2.1367 0.6751
6.4800 2.1433 0.6714
6.5000 2.1500 0.6721
6.5200 2.1567 0.6729
6.5400 2.1634 0.6657
6.5600 2.1700 0.6801
6.5800 2.1766 0.6710
6.6000 2.1833 0.6681
6.6200 2.1899 0.6717
6.6400 2.1966 0.6633
6.6600 2.2033 0.6672
6.6800 2.2100 0.6715
6.7000 2.2167 0.6584
6.7200 2.2233 0.6672
6.7400 2.2299 0.6669
6.7600 2.2365 0.6588
6.7800 2.2432 0.6651
6.8000 2.2499 0.6685
6.8200 2.2566 0.6610
6.8400 2.2633 0.6597
6.8600 2.2700 0.6660
6.8800 2.2767 0.6581
6.9000 2.2833 0.6655
6.9200 2.2899 0.6585
6.9400 2.2966 0.6572
6.9600 2.3032 0.6645
6.9800 2.3099 0.6593
7.0000 2.3166 0.6576
7.0200 2.3233 0.6614
7.0400 2.3300 0.6561
7.0600 2.3367 0.6563
7.0800 2.3433 0.6580
7.1000 2.3499 0.6536
7.1200 2.3566 0.6575
7.1400 2.3632 0.6559
7.1600 2.3699 0.6512
7.1800 2.3766 0.6569
7.2000 2.3833 0.6496
7.2200 2.3900 0.6489
7.2400 2.3967 0.6512
7.2600 2.4033 0.6487
7.2800 2.4099 0.6542
7.3000 2.4165 0.6550
7.3200 2.4232 0.6502
7.3400 2.4300 0.6492
7.3600 2.4367 0.6503
7.3800 2.4433 0.6483
7.4000 2.4500 0.6513
7.4200 2.4567 0.6447
7.4400 2.4633 0.6508
7.4600 2.4699 0.6450
7.4800 2.4765 0.6429
7.5000 2.4832 0.6473
7.5200 2.4899 0.6465
7.5400 2.4966 0.6373
7.5600 2.5033 0.6417
7.5800 2.5099 0.6483
7.6000 2.5166 0.6435
7.6200 2.5233 0.6419
7.6400 2.5299 0.6410
7.6600 2.5366 0.6430
7.6800 2.5433 0.6444
7.7000 2.5500 0.6377
7.7200 2.5567 0.6403
7.7400 2.5633 0.6450
7.7600 2.5700 0.6304
7.7800 2.5767 0.6398
7.8000 2.5834 0.6367
7.8200 2.5900 0.6339
7.8400 2.5966 0.6381
7.8600 2.6032 0.6360
7.8800 2.6099 0.6319
7.9000 2.6167 0.6388
7.9200 2.6233 0.6327
7.9400 2.6300 0.6287
7.9600 2.6367 0.6368
7.9800 2.6433 0.6347
8.0000 2.6499 0.6281
8.0200 2.6566 0.6377
8.0400 2.6632 0.6265
8.0600 2.6699 0.6304
8.0800 2.6766 0.6347
8.1000 2.6833 0.6241
8.1200 2.6900 0.6298
8.1400 2.6967 0.6284
8.1600 2.7033 0.6269
8.1800 2.7099 0.6259
8.2000 2.7165 0.6296
8.2200 2.7232 0.6229
8.2400 2.7299 0.6280
8.2600 2.7366 0.6225
8.2800 2.7433 0.6222
8.3000 2.7500 0.6250
8.3200 2.7567 0.6190
8.3400 2.7633 0.6173
8.3600 2.7700 0.6225
8.3800 2.7766 0.6176
8.4000 2.7832 0.6215
8.4200 2.7899 0.6199
8.4400 2.7966 0.6187
8.4600 2.8033 0.6222
8.4800 2.8100 0.6139
8.5000 2.8167 0.6096
8.5200 2.8234 0.6187
8.5400 2.8300 0.6167
8.5600 2.8366 0.6056
8.5800 2.8432 0.6212
8.6000 2.8499 0.6099
8.6200 2.8567 0.6042
8.6400 2.8633 0.6227
8.6600 2.8700 0.6067
8.6800 2.8767 0.6027
8.7000 2.8834 0.6185
8.7200 2.8900 0.6031
8.7400 2.8966 0.6085
8.7600 2.9032 0.6148
8.7800 2.9099 0.5971
8.8000 2.9166 0.6039
8.8200 2.9233 0.6153
8.8400 2.9300 0.5975
8.8600 2.9367 0.6067
8.8800 2.9433 0.6116
8.9000 2.9499 0.5901
8.9200 2.9565 0.6052
8.9400 2.9632 0.6140
8.9600 2.9699 0.5895
8.9800 2.9766 0.6043
9.0000 2.9833 0.6081
9.0200 2.9899 0.5901
9.0400 2.9966 0.6026
9.0600 3.0033 0.6017
9.0800 3.0099 0.5953
9.1000 3.0166 0.6037
9.1200 3.0232 0.6000
9.1400 3.0299 0.5922
9.1600 3.0367 0.6057
9.1800 3.0433 0.5961
9.2000 3.0500 0.5926
9.2200 3.0567 0.5986
9.2400 3.0634 0.5921
9.2600 3.0700 0.5879
9.2800 3.0766 0.5974
9.3000 3.0832 0.5942
9.3200 3.0899 0.5890
9.3400 3.0967 0.5968
9.3600 3.1034 0.5949
9.3800 3.1100 0.5863
9.4000 3.1167 0.5900
9.4200 3.1234 0.5904
9.4400 3.1299 0.5857
9.4600 3.1365 0.5928
9.4800 3.1432 0.5886
9.5000 3.1499 0.5896
9.5200 3.1566 0.5832
9.5400 3.1633 0.5905
9.5600 3.1700 0.5860
9.5800 3.1767 0.5865
9.6000 3.1833 0.5885
9.6200 3.1900 0.5798
9.6400 3.1966 0.5866
9.6600 3.2032 0.5922
9.6800 3.2099 0.5756
9.7000 3.2166 0.5837
9.7200 3.2233 0.5864
9.7400 3.2299 0.5770
9.7600 3.2366 0.5834
9.7800 3.2433 0.5856
9.8000 3.2500 0.5741
9.8200 3.2566 0.5826
9.8400 3.2632 0.5822
9.8600 3.2699 0.5726
9.8800 3.2766 0.5803
9.9000 3.2833 0.5798
9.9200 3.2900 0.5725
9.9400 3.2967 0.5778
9.9600 3.3034 0.5766
9.9800 3.3100 0.5696
10.0000 3.3166 0.5829
10.0200 3.3232 0.5763
10.0400 3.3299 0.5724
10.0600 3.3367 0.5798
10.0800 3.3434 0.5708
10.1000 3.3500 0.5690
10.1200 3.3567 0.5742
10.1400 3.3633 0.5704
10.1600 3.3700 0.5709
10.1800 3.3766 0.5677
10.2000 3.3832 0.5709
10.2200 3.3899 0.5693
10.2400 3.3966 0.5706
10.2600 3.4033 0.5642
10.2800 3.4100 0.5686
10.3000 3.4167 0.5687
10.3200 3.4233 0.5624
10.3400 3.4300 0.5704
10.3600 3.4365 0.5665
10.3800 3.4432 0.5599
10.4000 3.4499 0.5637
10.4200 3.4566 0.5634
10.4400 3.4633 0.5581
10.4600 3.4700 0.5648
10.4800 3.4767 0.5573
10.5000 3.4833 0.5583
10.5200 3.4900 0.5573
10.5400 3.4966 0.5612
10.5600 3.5032 0.5576
10.5800 3.5099 0.5602
10.6000 3.5166 0.5536
10.6200 3.5233 0.5557
10.6400 3.5300 0.5564
10.6600 3.5367 0.5533
10.6800 3.5434 0.5575
10.7000 3.5500 0.5514
10.7200 3.5566 0.5487
10.7400 3.5632 0.5570
10.7600 3.5699 0.5567
10.7800 3.5766 0.5453
10.8000 3.5833 0.5542
10.8200 3.5900 0.5482
10.8400 3.5967 0.5471
10.8600 3.6034 0.5507
10.8800 3.6100 0.5433
10.9000 3.6166 0.5482
10.9200 3.6232 0.5543
10.9400 3.6299 0.5400
10.9600 3.6366 0.5478
10.9800 3.6433 0.5447
11.0000 3.6500 0.5429
11.0200 3.6567 0.5464
11.0400 3.6633 0.5434
11.0600 3.6700 0.5400
11.0800 3.6766 0.5472
11.1000 3.6832 0.5421
11.1200 3.6899 0.5392
11.1400 3.6966 0.5444
11.1600 3.7033 0.5405
11.1800 3.7100 0.5407
11.2000 3.7166 0.5405
11.2200 3.7233 0.5383
11.2400 3.7300 0.5393
11.2600 3.7366 0.5354
11.2800 3.7432 0.5337
11.3000 3.7499 0.5418
11.3200 3.7566 0.5358
11.3400 3.7633 0.5316
11.3600 3.7701 0.5292
11.3800 3.7768 0.5381
11.4000 3.7834 0.5294
11.4200 3.7900 0.5269
11.4400 3.7966 0.5389
11.4600 3.8032 0.5343
11.4800 3.8099 0.5244
11.5000 3.8166 0.5325
11.5200 3.8234 0.5305
11.5400 3.8300 0.5308
11.5600 3.8367 0.5310
11.5800 3.8433 0.5249
11.6000 3.8500 0.5266
11.6200 3.8566 0.5283
11.6400 3.8632 0.5254
11.6600 3.8699 0.5295
11.6800 3.8766 0.5280
11.7000 3.8833 0.5192
11.7200 3.8899 0.5289
11.7400 3.8966 0.5243
11.7600 3.9033 0.5161
11.7800 3.9100 0.5318
11.8000 3.9166 0.5237
11.8200 3.9232 0.5157
11.8400 3.9298 0.5287
11.8600 3.9365 0.5149
11.8800 3.9433 0.5164
11.9000 3.9499 0.5220
11.9200 3.9566 0.5163
11.9400 3.9633 0.5150
11.9600 3.9700 0.5258
11.9800 3.9766 0.5093
12.0000 3.9832 0.5165
12.0200 3.9899 0.5298
12.0400 3.9966 0.5069
12.0600 4.0033 0.5139
12.0800 4.0100 0.5167
12.1000 4.0167 0.5065
12.1200 4.0234 0.5159
12.1400 4.0300 0.5170
12.1600 4.0366 0.5078
12.1800 4.0433 0.5172
12.2000 4.0499 0.5124
12.2200 4.0566 0.5071
12.2400 4.0633 0.5167
12.2600 4.0700 0.5171
12.2800 4.0767 0.5060
12.3000 4.0834 0.5108
12.3200 4.0900 0.5059
12.3400 4.0966 0.5074
12.3600 4.1032 0.5095
12.3800 4.1099 0.5078
12.4000 4.1166 0.5058
12.4200 4.1233 0.5054
12.4400 4.1300 0.5036
12.4600 4.1367 0.5068
12.4800 4.1434 0.5046
12.5000 4.1500 0.5061
12.5200 4.1566 0.5048
12.5400 4.1632 0.4979
12.5600 4.1699 0.5038
12.5800 4.1766 0.4996
12.6000 4.1833 0.4975
12.6200 4.1900 0.5014
12.6400 4.1966 0.5001
12.6600 4.2033 0.4946
12.6800 4.2100 0.5008
12.7000 4.2166 0.4995
12.7200 4.2233 0.4939
12.7400 4.2299 0.4997
12.7600 4.2366 0.4989
12.7800 4.2433 0.4889
12.8000 4.2500 0.4982
12.8200 4.2567 0.4960
12.8400 4.2634 0.4877
12.8600 4.2700 0.4956
12.8800 4.2766 0.4979
12.9000 4.2832 0.4885
12.9200 4.2899 0.4963
12.9400 4.2966 0.4954
12.9600 4.3033 0.4823
12.9800 4.3100 0.4924
13.0000 4.3167 0.4880
13.0200 4.3234 0.4844
13.0400 4.3300 0.4891
13.0600 4.3366 0.4936
13.0800 4.3432 0.4825
13.1000 4.3499 0.4913
13.1200 4.3566 0.4902
13.1400 4.3633 0.4805
13.1600 4.3700 0.4914
13.1800 4.3767 0.4887
13.2000 4.3833 0.4751
13.2200 4.3900 0.4902
13.2400 4.3966 0.4788
13.2600 4.4032 0.4768
13.2800 4.4099 0.4913
13.3000 4.4165 0.4795
13.3200 4.4233 0.4772
13.3400 4.4300 0.4892
13.3600 4.4367 0.4795
13.3800 4.4434 0.4751
13.4000 4.4500 0.4878
13.4200 4.4566 0.4736
13.4400 4.4632 0.4790
13.4600 4.4699 0.4844
13.4800 4.4766 0.4728
13.5000 4.4833 0.4772
13.5200 4.4900 0.4826
13.5400 4.4967 0.4689
13.5600 4.5034 0.4800
13.5800 4.5100 0.4783
13.6000 4.5166 0.4743
13.6200 4.5233 0.4752
13.6400 4.5299 0.4735
13.6600 4.5366 0.4711
13.6800 4.5433 0.4723
13.7000 4.5500 0.4732
13.7200 4.5566 0.4717
13.7400 4.5633 0.4717
13.7600 4.5700 0.4738
13.7800 4.5766 0.4744
13.8000 4.5832 0.4679
13.8200 4.5898 0.4730
13.8400 4.5965 0.4706
13.8600 4.6033 0.4634
13.8800 4.6100 0.4637
13.9000 4.6167 0.4722
13.9200 4.6233 0.4644
13.9400 4.6300 0.4605
13.9600 4.6366 0.4696
13.9800 4.6432 0.4710
14.0000 4.6499 0.4662
14.0200 4.6566 0.4653
14.0400 4.6633 0.4626
14.0600 4.6700 0.4651
14.0800 4.6767 0.4651
14.1000 4.6833 0.4589
14.1200 4.6900 0.4632
14.1400 4.6966 0.4630
14.1600 4.7032 0.4605
14.1800 4.7099 0.4687
14.2000 4.7166 0.4644
14.2200 4.7233 0.4602
14.2400 4.7300 0.4619
14.2600 4.7367 0.4573
14.2800 4.7434 0.4588
14.3000 4.7500 0.4579
14.3200 4.7567 0.4580
14.3400 4.7633 0.4539
14.3600 4.7699 0.4606
14.3800 4.7766 0.4603
14.4000 4.7833 0.4562
14.4200 4.7900 0.4579
14.4400 4.7967 0.4566
14.4600 4.8034 0.4522
14.4800 4.8101 0.4564
14.5000 4.8167 0.4486
14.5200 4.8232 0.4568
14.5400 4.8299 0.4573
14.5600 4.8366 0.4501
14.5800 4.8433 0.4500
14.6000 4.8500 0.4583
14.6200 4.8566 0.4505
14.6400 4.8633 0.4467
14.6600 4.8700 0.4520
14.6800 4.8766 0.4501
14.7000 4.8832 0.4501
14.7200 4.8899 0.4493
14.7400 4.8966 0.4476
14.7600 4.9033 0.4457
14.7800 4.9099 0.4495
14.8000 4.9166 0.4460
14.8200 4.9233 0.4506
14.8400 4.9300 0.4441
14.8600 4.9366 0.4378
14.8800 4.9433 0.4499
14.9000 4.9499 0.4433
14.9200 4.9566 0.4377
14.9400 4.9633 0.4505
14.9600 4.9700 0.4359
14.9800 4.9767 0.4409
15.0000 4.9834 0.4484
15.0200 4.9900 0.4337
15.0400 4.9966 0.4356
15.0600 5.0032 0.4465
15.0800 5.0099 0.4339
15.1000 5.0166 0.4359
15.1200 5.0233 0.4405
15.1400 5.0300 0.4278
15.1600 5.0367 0.4363
15.1800 5.0434 0.4357
15.2000 5.0500 0.4315
15.2200 5.0566 0.4293
15.2400 5.0633 0.4399
15.2600 5.0699 0.4318
15.2800 5.0766 0.4330
15.3000 5.0833 0.4295
15.3200 5.0900 0.4290
15.3400 5.0967 0.4305
15.3600 5.1033 0.4316
15.3800 5.1100 0.4259
15.4000 5.1167 0.4226
15.4200 5.1232 0.4292
15.4400 5.1298 0.4281
15.4600 5.1365 0.4272
15.4800 5.1432 0.4306
15.5000 5.1499 0.4189
15.5200 5.1566 0.4190
15.5400 5.1633 0.4317
15.5600 5.1700 0.4210
15.5800 5.1766 0.4190
15.6000 5.1832 0.4266
15.6200 5.1899 0.4145
15.6400 5.1966 0.4157
15.6600 5.2033 0.4368
15.6800 5.2100 0.4131
15.7000 5.2167 0.4130
15.7200 5.2234 0.4279
15.7400 5.2300 0.4099
15.7600 5.2367 0.4088
15.7800 5.2433 0.4292
15.8000 5.2499 0.4099
15.8200 5.2566 0.4076
15.8400 5.2633 0.4254
15.8600 5.2700 0.4064
15.8800 5.2767 0.4145
15.9000 5.2834 0.4306
15.9200 5.2900 0.3995
15.9400 5.2967 0.4085
15.9600 5.3033 0.4246
15.9800 5.3099 0.4004
16.0000 5.3166 0.4117
16.0200 5.3233 0.4214
16.0400 5.3300 0.3979
16.0600 5.3367 0.4087
16.0800 5.3433 0.4210
16.1000 5.3500 0.4017
16.1200 5.3566 0.4148
16.1400 5.3632 0.4136
16.1600 5.3699 0.3959
16.1800 5.3766 0.4109
16.2000 5.3833 0.4129
16.2200 5.3900 0.3937
16.2400 5.3966 0.4131
16.2600 5.4033 0.4116
16.2800 5.4100 0.3920
16.3000 5.4167 0.4095
16.3200 5.4233 0.4098
16.3400 5.4299 0.3948
16.3600 5.4366 0.4098
16.3800 5.4433 0.4069
16.4000 5.4500 0.3919
16.4200 5.4567 0.4040
16.4400 5.4634 0.4002
16.4600 5.4701 0.3915
16.4800 5.4767 0.3984
16.5000 5.4833 0.4019
16.5200 5.4899 0.3972
16.5400 5.4965 0.4018
16.5600 5.5033 0.4008
16.5800 5.5100 0.3942
16.6000 5.5167 0.3936
16.6200 5.5234 0.3993
16.6400 5.5300 0.3891
16.6600 5.5367 0.3914
16.6800 5.5433 0.3953
16.7000 5.5499 0.3925
16.7200 5.5566 0.3945
16.7400 5.5633 0.3967
16.7600 5.5700 0.3949
16.7800 5.5766 0.3906
16.8000 5.5833 0.3928
16.8200 5.5900 0.3911
16.8400 5.5966 0.3879
16.8600 5.6033 0.3947
16.8800 5.6099 0.3889
16.9000 5.6165 0.3853
16.9200 5.6232 0.3937
16.9400 5.6299 0.3895
16.9600 5.6366 0.3890
16.9800 5.6433 0.3957
17.0000 5.6500 0.3870
17.0200 5.6567 0.3780
17.0400 5.6633 0.3971
17.0600 5.6699 0.3866
17.0800 5.6766 0.3821
17.1000 5.6833 0.3930
17.1200 5.6900 0.3843
17.1400 5.6967 0.3799
17.1600 5.7034 0.3970
17.1800 5.7100 0.3859
17.2000 5.7167 0.3781
17.2200 5.7233 0.3907
17.2400 5.7299 0.3799
17.2600 5.7366 0.3793
17.2800 5.7433 0.3921
17.3000 5.7500 0.3789
17.3200 5.7567 0.3830
17.3400 5.7634 0.3887
17.3600 5.7700 0.3794
17.3800 5.7767 0.3876
17.4000 5.7833 0.3881
17.4200 5.7899 0.3805
17.4400 5.7965 0.3757
17.4600 5.8032 0.3885
17.4800 5.8100 0.3737
17.5000 5.8166 0.3772
17.5200 5.8233 0.3843
17.5400 5.8300 0.3730
17.5600 5.8367 0.3755
17.5800 5.8432 0.3851
17.6000 5.8498 0.3779
17.6200 5.8565 0.3729
17.6400 5.8632 0.3821
17.6600 5.8700 0.3787
17.6800 5.8766 0.3646
17.7000 5.8833 0.3788
17.7200 5.8900 0.3770
17.7400 5.8967 0.3666
17.7600 5.9033 0.3755
17.7800 5.9099 0.3741
17.8000 5.9166 0.3715
17.8200 5.9233 0.3767
17.8400 5.9300 0.3699
17.8600 5.9367 0.3661
17.8800 5.9434 0.3736
17.9000 5.9501 0.3641
17.9200 5.9567 0.3659
17.9400 5.9633 0.3729
17.9600 5.9699 0.3642
17.9800 5.9766 0.3656
18.0000 5.9833 0.3684
18.0200 5.9900 0.3612
18.0400 5.9967 0.3712
18.0600 6.0034 0.3633
18.0800 6.0100 0.3579
18.1000 6.0167 0.3645
18.1200 6.0233 0.3609
18.1400 6.0299 0.3566
18.1600 6.0365 0.3646
18.1800 6.0432 0.3657
18.2000 6.0500 0.3567
18.2200 6.0567 0.3619
18.2400 6.0633 0.3590
18.2600 6.0700 0.3584
18.2800 6.0767 0.3580
18.3000 6.0833 0.3549
18.3200 6.0899 0.3564
18.3400 6.0966 0.3569
18.3600 6.1033 0.3518
18.3800 6.1100 0.3590
18.4000 6.1166 0.3508
18.4200 6.1233 0.3521
18.4400 6.1300 0.3590
18.4600 6.1367 0.3511
18.4800 6.1433 0.3473
18.5000 6.1499 0.3563
18.5200 6.1565 0.3462
18.5400 6.1632 0.3488
18.5600 6.1700 0.3556
18.5800 6.1767 0.3373
18.6000 6.1834 0.3502
18.6200 6.1900 0.3537
18.6400 6.1967 0.3437
18.6600 6.2033 0.3528
18.6800 6.2099 0.3520
18.7000 6.2166 0.3372
18.7200 6.2233 0.3505
18.7400 6.2300 0.3474
18.7600 6.2367 0.3365
18.7800 6.2433 0.3472
18.8000 6.2500 0.3483
18.8200 6.2567 0.3320
18.8400 6.2633 0.3486
18.8600 6.2699 0.3457
18.8800 6.2766 0.3392
18.9000 6.2833 0.3436
18.9200 6.2899 0.3371
18.9400 6.2966 0.3372
18.9600 6.3033 0.3374
18.9800 6.3100 0.3387
19.0000 6.3167 0.3392
19.0200 6.3233 0.3358
19.0400 6.3299 0.3364
19.0600 6.3365 0.3376
19.0800 6.3432 0.3368
19.1000 6.3499 0.3416
19.1200 6.3566 0.3336
19.1400 6.3633 0.3310
19.1600 6.3700 0.3329
19.1800 6.3767 0.3353
19.2000 6.3833 0.3319
19.2200 6.3899 0.3337
19.2400 6.3966 0.3345
19.2600 6.4033 0.3322
19.2800 6.4100 0.3340
19.3000 6.4167 0.3347
19.3200 6.4234 0.3330
19.3400 6.4300 0.3296
19.3600 6.4367 0.3261
19.3800 6.4433 0.3320
19.4000 6.4499 0.3322
19.4200 6.4566 0.3275
19.4400 6.4633 0.3253
19.4600 6.4700 0.3294
19.4800 6.4766 0.3274
19.5000 6.4833 0.3294
19.5200 6.4900 0.3302
19.5400 6.4967 0.3227
19.5600 6.5034 0.3229
19.5800 6.5099 0.3253
19.6000 6.5165 0.3276
19.6200 6.5232 0.3218
19.6400 6.5299 0.3229
19.6600 6.5366 0.3234
19.6800 6.5433 0.3244
19.7000 6.5500 0.3236
19.7200 6.5567 0.3265
19.7400 6.5633 0.3189
19.7600 6.5699 0.3265
19.7800 6.5765 0.3232
19.8000 6.5832 0.3170
19.8200 6.5899 0.3231
19.8400 6.5966 0.3194
19.8600 6.6033 0.3145
19.8800 6.6099 0.3208
19.9000 6.6166 0.3188
19.9200 6.6233 0.3096
19.9400 6.6299 0.3223
19.9600 6.6366 0.3184
19.9800 6.6432 0.3129
20.0000 6.6500 0.3174
20.0200 6.6567 0.3168
20.0400 6.6633 0.3111
20.0600 6.6700 0.3195
20.0800 6.6767 0.3139
20.1000 6.6834 0.3080
20.1200 6.6900 0.3197
20.1400 6.6966 0.3196
20.1600 6.7033 0.3054
20.1800 6.7100 0.3151
20.2000 6.7167 0.3112
20.2200 6.7234 0.3093
20.2400 6.7300 0.3101
20.2600 6.7367 0.3076
20.2800 6.7433 0.3065
20.3000 6.7499 0.3057
20.3200 6.7566 0.3102
20.3400 6.7632 0.3076
20.3600 6.7699 0.3057
20.3800 6.7766 0.3094
20.4000 6.7833 0.2978
20.4200 6.7899 0.2989
20.4400 6.7966 0.3114
20.4600 6.8033 0.2988
20.4800 6.8099 0.2987
20.5000 6.8165 0.3072
20.5200 6.8232 0.2979
20.5400 6.8299 0.3010
20.5600 6.8366 0.3136
20.5800 6.8433 0.2867
20.6000 6.8500 0.2977
20.6200 6.8567 0.3107
20.6400 6.8633 0.2851
20.6600 6.8699 0.2983
20.6800 6.8766 0.3050
20.7000 6.8832 0.2807
20.7200 6.8900 0.2976
20.7400 6.8967 0.3031
20.7600 6.9034 0.2823
20.7800 6.9101 0.3019
20.8000 6.9167 0.2990
20.8200 6.9233 0.2797
20.8400 6.9299 0.2975
20.8600 6.9366 0.2945
20.8800 6.9432 0.2816
20.9000 6.9500 0.2959
20.9200 6.9567 0.2853
20.9400 6.9633 0.2854
20.9600 6.9700 0.3005
20.9800 6.9767 0.2871
21.0000 6.9834 0.2806
21.0200 6.9900 0.2963
21.0400 6.9966 0.2801
21.0600 7.0033 0.2838
21.0800 7.0099 0.2906
21.1000 7.0166 0.2844
21.1200 7.0233 0.2824
21.1400 7.0300 0.2871
21.1600 7.0367 0.2850
21.1800 7.0433 0.2850
21.2000 7.0499 0.2826
21.2200 7.0565 0.2826
21.2400 7.0632 0.2872
21.2600 7.0699 0.2778
21.2800 7.0766 0.2823
21.3000 7.0833 0.2797
21.3200 7.0899 0.2776
21.3400 7.0966 0.2853
21.3600 7.1032 0.2754
21.3800 7.1099 0.2751
21.4000 7.1165 0.2871
21.4200 7.1232 0.2749
21.4400 7.1299 0.2749
21.4600 7.1367 0.2816
21.4800 7.1433 0.2731
21.5000 7.1500 0.2735
21.5200 7.1567 0.2831
21.5400 7.1634 0.2681
21.5600 7.1700 0.2762
21.5800 7.1766 0.2840
21.6000 7.1832 0.2650
21.6200 7.1899 0.2823
21.6400 7.1966 0.2795
21.6600 7.2033 0.2629
21.6800 7.2100 0.2762
21.7000 7.2167 0.2742
21.7200 7.2234 0.2620
21.7400 7.2300 0.2773
21.7600 7.2366 0.2704
21.7800 7.2432 0.2664
21.8000 7.2499 0.2809
21.8200 7.2567 0.2686
21.8400 7.2633 0.2602
21.8600 7.2700 0.2755
21.8800 7.2767 0.2677
21.9000 7.2833 0.2636
21.9200 7.2899 0.2638
21.9400 7.2965 0.2670
21.9600 7.3032 0.2663
21.9800 7.3099 0.2668
22.0000 7.3166 0.2649
22.0200 7.3233 0.2649
22.0400 7.3300 0.2624
22.0600 7.3366 0.2584
22.0800 7.3433 0.2659
22.1000 7.3499 0.2631
22.1200 7.3566 0.2583
22.1400 7.3632 0.2597
22.1600 7.3699 0.2581
22.1800 7.3766 0.2606
22.2000 7.3833 0.2693
22.2200 7.3900 0.2545
22.2400 7.3967 0.2590
22.2600 7.4034 0.2603
22.2800 7.4100 0.2538
22.3000 7.4166 0.2593
22.3200 7.4232 0.2612
22.3400 7.4300 0.2525
22.3600 7.4367 0.2567
22.3800 7.4434 0.2604
22.4000 7.4500 0.2502
22.4200 7.4567 0.2559
22.4400 7.4633 0.2574
22.4600 7.4699 0.2450
22.4800 7.4766 0.2568
22.5000 7.4832 0.2563
22.5200 7.4899 0.2428
22.5400 7.4966 0.2552
22.5600 7.5033 0.2511
22.5800 7.5100 0.2410
22.6000 7.5166 0.2546
22.6200 7.5233 0.2509
22.6400 7.5300 0.2443
22.6600 7.5365 0.2540
22.6800 7.5432 0.2470
22.7000 7.5499 0.2436
22.7200 7.5566 0.2505
22.7400 7.5633 0.2451
22.7600 7.5700 0.2377
22.7800 7.5767 0.2457
22.8000 7.5834 0.2449
22.8200 7.5900 0.2438
22.8400 7.5966 0.2489
22.8600 7.6032 0.2496
22.8800 7.6099 0.2375
22.9000 7.6166 0.2395
22.9200 7.6233 0.2483
22.9400 7.6300 0.2381
22.9600 7.6367 0.2415
22.9800 7.6434 0.2463
23.0000 7.6500 0.2354
23.0200 7.6566 0.2442
23.0400 7.6632 0.2494
23.0600 7.6699 0.2397
23.0800 7.6766 0.2374
23.1000 7.6833 0.2405
23.1200 7.6900 0.2372
23.1400 7.6967 0.2355
23.1600 7.7034 0.2426
23.1800 7.7100 0.2282
23.2000 7.7166 0.2379
23.2200 7.7232 0.2398
23.2400 7.7299 0.2337
23.2600 7.7366 0.2390
23.2800 7.7433 0.2357
23.3000 7.7500 0.2330
23.3200 7.7567 0.2357
23.3400 7.7633 0.2329
23.3600 7.7699 0.2333
23.3800 7.7765 0.2318
23.4000 7.7832 0.2342
23.4200 7.7899 0.2312
23.4400 7.7966 0.2241
23.4600 7.8033 0.2412
23.4800 7.8099 0.2317
23.5000 7.8166 0.2202
23.5200 7.8233 0.2357
23.5400 7.8299 0.2274
23.5600 7.8366 0.2188
23.5800 7.8432 0.2362
23.6000 7.8499 0.2231
23.6200 7.8566 0.2254
23.6400 7.8633 0.2279
23.6600 7.8700 0.2202
23.6800 7.8767 0.2284
23.7000 7.8834 0.2315
23.7200 7.8900 0.2192
23.7400 7.8966 0.2218
23.7600 7.9032 0.2278
23.7800 7.9099 0.2135
23.8000 7.9166 0.2218
23.8200 7.9234 0.2283
23.8400 7.9300 0.2094
23.8600 7.9367 0.2160
23.8800 7.9434 0.2273
23.9000 7.9500 0.2123
23.9200 7.9566 0.2211
23.9400 7.9632 0.2243
23.9600 7.9699 0.2078
23.9800 7.9766 0.2162
24.0000 7.9833 0.2217
24.0200 7.9900 0.2072
24.0400 7.9967 0.2167
24.0600 8.0034 0.2163
24.0800 8.0100 0.2055
24.1000 8.0166 0.2176
24.1200 8.0232 0.2228
24.1400 8.0299 0.2053
24.1600 8.0366 0.2120
24.1800 8.0433 0.2190
24.2000 8.0500 0.2081
24.2200 8.0566 0.2063
24.2400 8.0633 0.2135
24.2600 8.0700 0.2078
24.2800 8.0766 0.2080
24.3000 8.0832 0.2141
24.3200 8.0899 0.2136
24.3400 8.0966 0.2069
24.3600 8.1033 0.2071
24.3800 8.1100 0.2084
24.4000 8.1167 0.2023
24.4200 8.1234 0.2143
24.4400 8.1300 0.2039
24.4600 8.1366 0.1984
24.4800 8.1432 0.2114
24.5000 8.1499 0.2027
24.5200 8.1566 0.1940
24.5400 8.1634 0.2135
24.5600 8.1700 0.2025
24.5800 8.1767 0.1967
24.6000 8.1834 0.2066
24.6200 8.1900 0.1976
24.6400 8.1966 0.2000
24.6600 8.2032 0.2082
24.6800 8.2099 0.1965
24.7000 8.2166 0.1995
24.7200 8.2233 0.2029
24.7400 8.2300 0.1897
24.7600 8.2367 0.2031
24.7800 8.2434 0.2067
24.8000 8.2500 0.1948
24.8200 8.2566 0.1926
24.8400 8.2632 0.1990
24.8600 8.2699 0.1954
24.8800 8.2766 0.1927
24.9000 8.2833 0.1948
24.9200 8.2900 0.1993
24.9400 8.2966 0.1895
24.9600 8.3033 0.1935
24.9800 8.3100 0.1966
25.0000 8.3166 0.1925
25.0200 8.3232 0.1956
25.0400 8.3299 0.1988
25.0600 8.3366 0.1831
25.0800 8.3433 0.1919
25.1000 8.3500 0.1968
25.1200 8.3567 0.1826
25.1400 8.3634 0.1921
25.1600 8.3700 0.1928
25.1800 8.3766 0.1849
25.2000 8.3832 0.1937
25.2200 8.3899 0.1965
25.2400 8.3966 0.1800
25.2600 8.4033 0.1895
25.2800 8.4100 0.1931
25.3000 8.4167 0.1782
25.3200 8.4234 0.1887
25.3400 8.4300 0.1892
25.3600 8.4366 0.1776
25.3800 8.4432 0.1921
25.4000 8.4499 0.1869
25.4200 8.4566 0.1786
25.4400 8.4633 0.1885
25.4600 8.4700 0.1857
25.4800 8.4767 0.1820
25.5000 8.4833 0.1820
25.5200 8.4900 0.1799
25.5400 8.4966 0.1780
25.5600 8.5032 0.1852
25.5800 8.5098 0.1817
25.6000 8.5166 0.1789
25.6200 8.5233 0.1804
25.6400 8.5299 0.1790
25.6600 8.5366 0.1839
25.6800 8.5433 0.1845
25.7000 8.5500 0.1746
25.7200 8.5566 0.1795
25.7400 8.5632 0.1767
25.7600 8.5699 0.1833
25.7800 8.5766 0.1733
25.8000 8.5833 0.1735
25.8200 8.5900 0.1780
25.8400 8.5967 0.1740
25.8600 8.6034 0.1701
25.8800 8.6100 0.1817
25.9000 8.6166 0.1764
25.9200 8.6232 0.1693
25.9400 8.6299 0.1798
25.9600 8.6366 0.1744
25.9800 8.6434 0.1679
26.0000 8.6500 0.1831
26.0200 8.6567 0.1694
26.0400 8.6634 0.1620
26.0600 8.6700 0.1765
26.0800 8.6766 0.1714
26.1000 8.6832 0.1702
26.1200 8.6899 0.1741
26.1400 8.6966 0.1724
26.1600 8.7033 0.1631
26.1800 8.7100 0.1733
26.2000 8.7166 0.1718
26.2200 8.7233 0.1618
26.2400 8.7300 0.1664
26.2600 8.7366 0.1654
26.2800 8.7432 0.1618
26.3000 8.7498 0.1740
26.3200 8.7565 0.1701
26.3400 8.7633 0.1543
26.3600 8.7699 0.1666
26.3800 8.7766 0.1711
26.4000 8.7833 0.1544
26.4200 8.7900 0.1660
26.4400 8.7966 0.1692
26.4600 8.8032 0.1506
26.4800 8.8099 0.1687
26.5000 8.8166 0.1682
26.5200 8.8233 0.1494
26.5400 8.8300 0.1681
26.5600 8.8367 0.1717
26.5800 8.8434 0.1431
26.6000 8.8500 0.1690
26.6200 8.8567 0.1681
26.6400 8.8633 0.1409
26.6600 8.8699 0.1646
26.6800 8.8766 0.1693
26.7000 8.8833 0.1391
26.7200 8.8900 0.1638
26.7400 8.8967 0.1610
26.7600 8.9034 0.1479
26.7800 8.9100 0.1678
26.8000 8.9166 0.1583
26.8200 8.9232 0.1447
26.8400 8.9299 0.1607
26.8600 8.9366 0.1595
26.8800 8.9433 0.1450
26.9000 8.9500 0.1585
26.9200 8.9567 0.1522
26.9400 8.9633 0.1481
26.9600 8.9700 0.1552
26.9800 8.9766 0.1544
27.0000 8.9832 0.1549
27.0200 8.9899 0.1573
27.0400 8.9966 0.1489
27.0600 9.0033 0.1455
27.0800 9.0100 0.1525
27.1000 9.0166 0.1533
27.1200 9.0233 0.1409
27.1400 9.0300 0.1481
27.1600 9.0366 0.1537
27.1800 9.0432 0.1483
27.2000 9.0499 0.1475
27.2200 9.0566 0.1502
27.2400 9.0633 0.1399
27.2600 9.0700 0.1506
27.2800 9.0767 0.1515
27.3000 9.0834 0.1358
27.3200 9.0900 0.1443
27.3400 9.0966 0.1513
27.3600 9.1032 0.1341
27.3800 9.1099 0.1423
27.4000 9.1166 0.1512
27.4200 9.1233 0.1351
27.4400 9.1300 0.1442
27.4600 9.1367 0.1441
27.4800 9.1434 0.1361
27.5000 9.1500 0.1416
27.5200 9.1566 0.1437
27.5400 9.1632 0.1344
27.5600 9.1699 0.1424
27.5800 9.1766 0.1392
27.6000 9.1833 0.1287
27.6200 9.1900 0.1441
27.6400 9.1967 0.1419
27.6600 9.2033 0.1303
27.6800 9.2100 0.1364
27.7000 9.2166 0.1366
27.7200 9.2232 0.1327
27.7400 9.2298 0.1398
27.7600 9.2365 0.1336
27.7800 9.2433 0.1336
27.8000 9.2500 0.1341
27.8200 9.2567 0.1294
27.8400 9.2634 0.1320
27.8600 9.2700 0.1348
27.8800 9.2766 0.1323
27.9000 9.2832 0.1287
27.9200 9.2899 0.1257
27.9400 9.2966 0.1339
27.9600 9.3033 0.1292
27.9800 9.3100 0.1253
28.0000 9.3167 0.1283
28.0200 9.3234 0.1305
28.0400 9.3300 0.1232
28.0600 9.3367 0.1348
28.0800 9.3433 0.1281
28.1000 9.3499 0.1227
28.1200 9.3566 0.1314
28.1400 9.3633 0.1220
28.1600 9.3700 0.1236
28.1800 9.3767 0.1353
28.2000 9.3833 0.1230
28.2200 9.3900 0.1177
28.2400 9.3966 0.1306
28.2600 9.4032 0.1239
28.2800 9.4099 0.1257
28.3000 9.4165 0.1250
28.3200 9.4233 0.1174
28.3400 9.4300 0.1235
28.3600 9.4366 0.1252
28.3800 9.4433 0.1199
28.4000 9.4500 0.1246
28.4200 9.4566 0.1175
28.4400 9.4632 0.1231
28.4600 9.4699 0.1202
28.4800 9.4766 0.1199
28.5000 9.4833 0.1235
28.5200 9.4900 0.1171
28.5400 9.4967 0.1148
28.5600 9.5033 0.1177
28.5800 9.5100 0.1112
28.6000 9.5166 0.1114
28.6200 9.5232 0.1202
28.6400 9.5299 0.1089
28.6600 9.5366 0.1172
28.6800 9.5433 0.1205
28.7000 9.5500 0.1120
28.7200 9.5567 0.1138
28.7400 9.5634 0.1155
28.7600 9.5700 0.1107
28.7800 9.5767 0.1106
28.8000 9.5833 0.1102
28.8200 9.5899 0.1115
28.8400 9.5966 0.1128
28.8600 9.6033 0.1071
28.8800 9.6100 0.1096
28.9000 9.6167 0.1190
28.9200 9.6234 0.1041
28.9400 9.6301 0.1030
28.9600 9.6367 0.1157
28.9800 9.6432 0.1040
29.0000 9.6499 0.1077
29.0200 9.6565 0.1136
29.0400 9.6633 0.0984
29.0600 9.6700 0.1045
29.0800 9.6766 0.1126
29.1000 9.6833 0.1010
29.1200 9.6900 0.1055
29.1400 9.6966 0.1085
29.1600 9.7032 0.1005
29.1800 9.7099 0.1029
29.2000 9.7165 0.1081
29.2200 9.7233 0.0974
29.2400 9.7299 0.1052
29.2600 9.7366 0.1070
29.2800 9.7433 0.0990
29.3000 9.7500 0.1018
29.3200 9.7567 0.1047
29.3400 9.7633 0.1014
29.3600 9.7699 0.1042
29.3800 9.7766 0.1003
29.4000 9.7833 0.0999
29.4200 9.7900 0.1011
29.4400 9.7967 0.0951
29.4600 9.8034 0.0974
29.4800 9.8101 0.1000
29.5000 9.8167 0.0952
29.5200 9.8233 0.1000
29.5400 9.8299 0.1010
29.5600 9.8366 0.0936
29.5800 9.8433 0.0974
29.6000 9.8500 0.0943
29.6200 9.8567 0.0917
29.6400 9.8634 0.1009
29.6600 9.8700 0.0921
29.6800 9.8767 0.0815
29.7000 9.8833 0.1059
29.7200 9.8899 0.0922
29.7400 9.8966 0.0864
29.7600 9.9033 0.1010
29.7800 9.9100 0.0901
29.8000 9.9166 0.0806
29.8200 9.9233 0.1000
29.8400 9.9300 0.0864
29.8600 9.9366 0.0839
29.8800 9.9432 0.0986
29.9000 9.9498 0.0825
29.9200 9.9565 0.0840
29.9400 9.9632 0.0995
29.9600 9.9699 0.0834
29.9800 9.9766 0.0842
30.0000 9.9833 0.1035
30.0200 9.9900 0.0731
30.0400 9.9966 0.0817
30.0600 10.0032 0.0953
30.0800 10.0099 0.0790
30.1000 10.0166 0.0870
30.1200 10.0233 0.0910
30.1400 10.0300 0.0725
30.1600 10.0367 0.0863
30.1800 10.0434 0.0909
30.2000 10.0500 0.0797
30.2200 10.0567 0.0869
30.2400 10.0633 0.0838
30.2600 10.0699 0.0769
30.2800 10.0766 0.0832
30.3000 10.0833 0.0809
30.3200 10.0900 0.0781
30.3400 10.0967 0.0799
30.3600 10.1034 0.0808
30.3800 10.1100 0.0842
30.4000 10.1167 0.0768
30.4200 10.1233 0.0830
30.4400 10.1299 0.0793
30.4600 10.1365 0.0785
30.4800 10.1433 0.0771
30.5000 10.1500 0.0745
30.5200 10.1566 0.0730
30.5400 10.1633 0.0792
30.5600 10.1700 0.0697
30.5800 10.1766 0.0728
30.6000 10.1832 0.0802
30.6200 10.1899 0.0741
30.6400 10.1965 0.0707
30.6600 10.2033 0.0718
30.6800 10.2100 0.0722
30.7000 10.2167 0.0789
30.7200 10.2233 0.0702
30.7400 10.2300 0.0629
30.7600 10.2367 0.0761
30.7800 10.2433 0.0787
30.8000 10.2499 0.0662
30.8200 10.2566 0.0682
30.8400 10.2633 0.0739
30.8600 10.2700 0.0715
30.8800 10.2766 0.0704
30.9000 10.2833 0.0569
30.9200 10.2900 0.0698
30.9400 10.2967 0.0728
30.9600 10.3033 0.0619
30.9800 10.3099 0.0702
31.0000 10.3166 0.0684
31.0200 10.3233 0.0640
31.0400 10.3300 0.0767
31.0600 10.3367 0.0641
31.0800 10.3434 0.0635
31.1000 10.3500 0.0737
31.1200 10.3566 0.0602
31.1400 10.3632 0.0608
31.1600 10.3699 0.0755
31.1800 10.3765 0.0634
31.2000 10.3833 0.0662
31.2200 10.3900 0.0675
31.2400 10.3966 0.0525
31.2600 10.4033 0.0727
31.2800 10.4100 0.0683
31.3000 10.4167 0.0523
31.3200 10.4233 0.0661
31.3400 10.4299 0.0646
31.3600 10.4365 0.0467
31.3800 10.4432 0.0697
31.4000 10.4499 0.0626
31.4200 10.4566 0.0557
31.4400 10.4633 0.0644
31.4600 10.4700 0.0588
31.4800 10.4767 0.0493
31.5000 10.4833 0.0677
31.5200 10.4899 0.0566
31.5400 10.4966 0.0529
31.5600 10.5033 0.0614
31.5800 10.5100 0.0538
31.6000 10.5167 0.0527
31.6200 10.5234 0.0593
31.6400 10.5300 0.0562
31.6600 10.5367 0.0509
31.6800 10.5433 0.0571
31.7000 10.5499 0.0466
31.7200 10.5566 0.0540
31.7400 10.5633 0.0580
31.7600 10.5700 0.0515
31.7800 10.5767 0.0454
31.8000 10.5834 0.0542
31.8200 10.5901 0.0538
31.8400 10.5967 0.0453
31.8600 10.6033 0.0526
31.8800 10.6099 0.0561
31.9000 10.6165 0.0470
31.9200 10.6232 0.0481
31.9400 10.6299 0.0487
31.9600 10.6366 0.0469
31.9800 10.6433 0.0458
32.0000 10.6500 0.0501
32.0200 10.6567 0.0397
32.0400 10.6633 0.0446
32.0600 10.6699 0.0535
32.0800 10.6765 0.0385
32.1000 10.6832 0.0426
32.1200 10.6900 0.0452
32.1400 10.6967 0.0391
32.1600 10.7033 0.0434
32.1800 10.7100 0.0456
32.2000 10.7167 0.0372
32.2200 10.7233 0.0364
32.2400 10.7299 0.0434
32.2600 10.7366 0.0420
32.2800 10.7433 0.0422
32.3000 10.7500 0.0401
32.3200 10.7567 0.0305
32.3400 10.7634 0.0446
32.3600 10.7701 0.0404
32.3800 10.7767 0.0271
32.4000 10.7834 0.0355
32.4200 10.7899 0.0405
32.4400 10.7966 0.0276
32.4600 10.8033 0.0376
32.4800 10.8100 0.0428
32.5000 10.8167 0.0290
32.5200 10.8233 0.0351
32.5400 10.8300 0.0364
32.5600 10.8367 0.0277
32.5800 10.8433 0.0315
32.6000 10.8499 0.0295
32.6200 10.8565 0.0295
32.6400 10.8632 0.0338
32.6600 10.8700 0.0268
32.6800 10.8767 0.0271
32.7000 10.8833 0.0319
32.7200 10.8900 0.0318
32.7400 10.8967 0.0190
32.7600 10.9033 0.0352
32.7800 10.9099 0.0323
32.8000 10.9165 0.0174
32.8200 10.9232 0.0290
32.8400 10.9300 0.0338
32.8600 10.9366 0.0114
32.8800 10.9433 0.0212
32.9000 10.9500 0.0363
32.9200 10.9567 0.0184
32.9400 10.9633 0.0210
32.9600 10.9699 0.0268
32.9800 10.9766 0.0164
33.0000 10.9832 0.0249
33.0200 10.9899 0.0280
33.0400 10.9966 0.0092
33.0600 11.0033 0.0188
33.0800 11.0100 0.0245
33.1000 11.0167 0.0174
33.1200 11.0233 0.0157
33.1400 11.0299 0.0264
33.1600 11.0366 0.0186
33.1800 11.0432 0.0126
33.2000 11.0500 0.0135
33.2200 11.0567 0.0212
33.2400 11.0634 0.0143
33.2600 11.0700 0.0152
33.2800 11.0767 0.0114
33.3000 11.0833 0.0088
33.3200 11.0899 0.0211
33.3400 11.0965 0.0151
33.3600 11.1032 0.0166
33.3800 11.1100 0.0171
33.4000 11.1166 0.0050
33.4200 11.1233 0.0068
33.4400 11.1300 0.0214
33.4600 11.1367 0.0081
33.4800 11.1433 0.0046
33.5000 11.1499 0.0164
33.5200 11.1565 0.0057
33.5400 11.1632 0.0093
33.5600 11.1699 0.0234
33.5800 11.1766 0.0039
33.6000 11.1833 0.0057
33.6200 11.1900 0.0110
33.6400 11.1967 0.0007
33.6600 11.2033 0.0082
33.6800 11.2099 0.0144
33.7000 11.2165 -0.0006
33.7200 11.2232 0.0029
33.7400 11.2300 0.0108
33.7600 11.2367 0.0042
33.7800 11.2434 0.0084
33.8000 11.2501 0.0064
33.8200 11.2567 -0.0002
33.8400 11.2633 0.0006
33.8600 11.2699 0.0058
33.8800 11.2766 0.0039
33.9000 11.2833 0.0025
33.9200 11.2900 -0.0003
33.9400 11.2967 0.0025
33.9600 11.3033 -0.0012
33.9800 11.3100 0.0046
34.0000 11.3167 0.0037
34.0200 11.3233 0.0002
34.0400 11.3299 -0.0033
34.0600 11.3365 0.0006
34.0800 11.3432 0.0011
34.1000 11.3499 -0.0047
34.1200 11.3566 0.0071
34.1400 11.3633 -0.0029
34.1600 11.3700 -0.0104
34.1800 11.3767 0.0059
34.2000 11.3833 -0.0007
34.2200 11.3899 -0.0036
34.2400 11.3965 0.0019
34.2600 11.4032 -0.0068
34.2800 11.4099 -0.0056
34.3000 11.4166 -0.0053
34.3200 11.4233 -0.0095
34.3400 11.4300 -0.0048
34.3600 11.4366 0.0034
34.3800 11.4433 -0.0182
34.4000 11.4499 -0.0028
34.4200 11.4565 0.0038
34.4400 11.4632 -0.0177
34.4600 11.4700 -0.0094
34.4800 11.4767 0.0026
34.5000 11.4833 -0.0183
34.5200 11.4900 -0.0069
34.5400 11.4967 -0.0029
34.5600 11.5034 -0.0190
34.5800 11.5100 -0.0057
34.6000 11.5166 -0.0006
34.6200 11.5233 -0.0190
34.6400 11.5300 -0.0123
34.6600 11.5367 -0.0050
34.6800 11.5434 -0.0164
34.7000 11.5500 -0.0142
34.7200 11.5567 -0.0095
34.7400 11.5633 -0.0170
34.7600 11.5699 -0.0118
34.7800 11.5765 -0.0096
34.8000 11.5832 -0.0218
34.8200 11.5899 -0.0120
34.8400 11.5966 -0.0102
34.8600 11.6033 -0.0149
34.8800 11.6099 -0.0172
34.9000 11.6166 -0.0151
34.9200 11.6233 -0.0172
34.9400 11.6299 -0.0183
34.9600 11.6365 -0.0199
34.9800 11.6432 -0.0117
35.0000 11.6499 -0.0151
35.0200 11.6566 -0.0219
35.0400 11.6633 -0.0148
35.0600 11.6700 -0.0202
35.0800 11.6767 -0.0209
35.1000 11.6834 -0.0211
35.1200 11.6900 -0.0263
35.1400 11.6966 -0.0179
35.1600 11.7032 -0.0168
35.1800 11.7099 -0.0324
35.2000 11.7166 -0.0193
35.2200 11.7233 -0.0172
35.2400 11.7300 -0.0274
35.2600 11.7367 -0.0233
35.2800 11.7434 -0.0220
35.3000 11.7500 -0.0314
35.3200 11.7566 -0.0181
35.3400 11.7632 -0.0258
35.3600 11.7700 -0.0265
35.3800 11.7767 -0.0206
35.4000 11.7833 -0.0334
35.4200 11.7900 -0.0303
35.4400 11.7967 -0.0210
35.4600 11.8034 -0.0318
35.4800 11.8100 -0.0285
35.5000 11.8166 -0.0235
35.5200 11.8233 -0.0344
35.5400 11.8300 -0.0258
35.5600 11.8366 -0.0272
35.5800 11.8433 -0.0335
35.6000 11.8500 -0.0302
35.6200 11.8567 -0.0311
35.6400 11.8634 -0.0374
35.6600 11.8699 -0.0263
35.6800 11.8765 -0.0318
35.7000 11.8832 -0.0317
35.7200 11.8899 -0.0311
35.7400 11.8966 -0.0365
35.7600 11.9033 -0.0356
35.7800 11.9100 -0.0373
35.8000 11.9167 -0.0399
35.8200 11.9233 -0.0346
35.8400 11.9299 -0.0396
35.8600 11.9366 -0.0349
35.8800 11.9432 -0.0338
35.9000 11.9499 -0.0400
35.9200 11.9566 -0.0393
35.9400 11.9633 -0.0405
35.9600 11.9700 -0.0429
35.9800 11.9767 -0.0359
36.0000 11.9834 -0.0430
36.0200 11.9900 -0.0498
36.0400 11.9966 -0.0324
36.0600 12.0032 -0.0436
36.0800 12.0099 -0.0461
36.1000 12.0166 -0.0355
36.1200 12.0233 -0.0464
36.1400 12.0300 -0.0529
36.1600 12.0367 -0.0370
36.1800 12.0434 -0.0452
36.2000 12.0500 -0.0548
36.2200 12.0566 -0.0434
36.2400 12.0632 -0.0483
36.2600 12.0699 -0.0532
36.2800 12.0766 -0.0439
36.3000 12.0833 -0.0512
36.3200 12.0900 -0.0490
36.3400 12.0967 -0.0454
36.3600 12.1033 -0.0555
36.3800 12.1099 -0.0523
36.4000 12.1165 -0.0487
36.4200 12.1232 -0.0495
36.4400 12.1299 -0.0566
36.4600 12.1366 -0.0500
36.4800 12.1433 -0.0534
36.5000 12.1499 -0.0524
36.5200 12.1566 -0.0501
36.5400 12.1633 -0.0551
36.5600 12.1700 -0.0630
36.5800 12.1766 -0.0547
36.6000 12.1832 -0.0526
36.6200 12.1899 -0.0627
36.6400 12.1966 -0.0611
36.6600 12.2033 -0.0464
36.6800 12.2100 -0.0602
36.7000 12.2167 -0.0647
36.7200 12.2234 -0.0545
36.7400 12.2300 -0.0679
36.7600 12.2366 -0.0594
36.7800 12.2433 -0.0530
36.8000 12.2500 -0.0717
36.8200 12.2567 -0.0598
36.8400 12.2634 -0.0549
36.8600 12.2700 -0.0742
36.8800 12.2767 -0.0615
36.9000 12.2833 -0.0540
36.9200 12.2899 -0.0712
36.9400 12.2966 -0.0634
36.9600 12.3032 -0.0587
36.9800 12.3099 -0.0746
37.0000 12.3166 -0.0606
37.0200 12.3233 -0.0651
37.0400 12.3300 -0.0750
37.0600 12.3367 -0.0638
37.0800 12.3433 -0.0657
37.1000 12.3500 -0.0726
37.1200 12.3566 -0.0615
37.1400 12.3632 -0.0703
37.1600 12.3699 -0.0737
37.1800 12.3766 -0.0624
37.2000 12.3833 -0.0717
37.2200 12.3900 -0.0702
37.2400 12.3967 -0.0660
37.2600 12.4034 -0.0749
37.2800 12.4100 -0.0701
37.3000 12.4166 -0.0684
37.3200 12.4232 -0.0703
37.3400 12.4299 -0.0715
37.3600 12.4366 -0.0728
37.3800 12.4433 -0.0719
37.4000 12.4500 -0.0710
37.4200 12.4567 -0.0764
37.4400 12.4634 -0.0797
37.4600 12.4700 -0.0669
37.4800 12.4766 -0.0805
37.5000 12.4833 -0.0735
37.5200 12.4899 -0.0667
37.5400 12.4966 -0.0809
37.5600 12.5033 -0.0742
37.5800 12.5100 -0.0642
37.6000 12.5167 -0.0879
37.6200 12.5234 -0.0794
37.6400 12.5300 -0.0698
37.6600 12.5366 -0.0857
37.6800 12.5432 -0.0765
37.7000 12.5499 -0.0733
37.7200 12.5566 -0.0857
37.7400 12.5633 -0.0678
37.7600 12.5700 -0.0741
37.7800 12.5767 -0.0878
37.8000 12.5833 -0.0705
37.8200 12.5899 -0.0884
37.8400 12.5965 -0.0850
37.8600 12.6032 -0.0682
37.8800 12.6098 -0.0916
37.9000 12.6166 -0.0884
37.9200 12.6233 -0.0696
37.9400 12.6299 -0.0888
37.9600 12.6366 -0.0817
37.9800 12.6433 -0.0727
38.0000 12.6500 -0.0900
38.0200 12.6566 -0.0859
38.0400 12.6632 -0.0782
38.0600 12.6699 -0.0925
38.0800 12.6766 -0.0824
38.1000 12.6833 -0.0824
38.1200 12.6900 -0.0945
38.1400 12.6967 -0.0814
38.1600 12.7034 -0.0854
38.1800 12.7100 -0.0944
38.2000 12.7166 -0.0860
38.2200 12.7232 -0.0892
38.2400 12.7299 -0.0914
38.2600 12.7366 -0.0886
38.2800 12.7433 -0.0959
38.3000 12.7500 -0.0882
38.3200 12.7567 -0.0940
38.3400 12.7634 -0.0933
38.3600 12.7700 -0.0857
38.3800 12.7766 -0.0972
38.4000 12.7832 -0.0957
38.4200 12.7899 -0.0855
38.4400 12.7966 -0.1045
38.4600 12.8033 -0.0964
38.4800 12.8100 -0.0854
38.5000 12.8167 -0.1086
38.5200 12.8233 -0.1003
38.5400 12.8300 -0.0863
38.5600 12.8366 -0.1104
38.5800 12.8432 -0.0927
38.6000 12.8499 -0.0891
38.6200 12.8566 -0.1194
38.6400 12.8633 -0.0896
38.6600 12.8699 -0.0947
38.6800 12.8766 -0.1179
38.7000 12.8833 -0.0925
38.7200 12.8900 -0.1035
38.7400 12.8966 -0.1209
38.7600 12.9032 -0.0813
38.7800 12.9099 -0.1076
38.8000 12.9166 -0.1149
38.8200 12.9233 -0.0909
38.8400 12.9300 -0.1152
38.8600 12.9367 -0.1088
38.8800 12.9434 -0.0953
38.9000 12.9500 -0.1205
38.9200 12.9566 -0.1086
38.9400 12.9632 -0.0981
38.9600 12.9699 -0.1147
38.9800 12.9766 -0.1012
39.0000 12.9834 -0.1040
39.0200 12.9900 -0.1181
39.0400 12.9967 -0.1028
39.0600 13.0034 -0.1134
39.0800 13.0100 -0.1170
39.1000 13.0166 -0.1018
39.1200 13.0232 -0.1167
39.1400 13.0299 -0.1109
39.1600 13.0366 -0.1102
39.1800 13.0433 -0.1160
39.2000 13.0499 -0.1075
39.2200 13.0566 -0.1122
39.2400 13.0633 -0.1225
39.2600 13.0700 -0.1052
39.2800 13.0766 -0.1184
39.3000 13.0832 -0.1224
39.3200 13.0899 -0.1063
39.3400 13.0966 -0.1172
39.3600 13.1033 -0.1192
39.3800 13.1100 -0.1128
39.4000 13.1167 -0.1201
39.4200 13.1233 -0.1151
39.4400 13.1300 -0.1166
39.4600 13.1366 -0.1255
39.4800 13.1432 -0.1075
39.5000 13.1499 -0.1192
39.5200 13.1566 -0.1304
39.5400 13.1633 -0.1148
39.5600 13.1700 -0.1179
39.5800 13.1767 -0.1231
39.6000 13.1833 -0.1140
39.6200 13.1900 -0.1268
39.6400 13.1966 -0.1222
39.6600 13.2032 -0.1155
39.6800 13.2099 -0.1304
39.7000 13.2166 -0.1231
39.7200 13.2233 -0.1164
39.7400 13.2300 -0.1355
39.7600 13.2367 -0.1203
39.7800 13.2434 -0.1180
39.8000 13.2500 -0.1314
39.8200 13.2566 -0.1170
39.8400 13.2632 -0.1212
39.8600 13.2699 -0.1309
39.8800 13.2766 -0.1232
39.9000 13.2833 -0.1273
39.9200 13.2900 -0.1350
39.9400 13.2967 -0.1200
39.9600 13.3034 -0.1314
39.9800 13.3100 -0.1343
40.0000 13.3166 -0.1259
40.0200 13.3232 -0.1277
40.0400 13.3299 -0.1263
40.0600 13.3366 -0.1274
40.0800 13.3433 -0.1346
40.1000 13.3500 -0.1305
40.1200 13.3566 -0.1300
40.1400 13.3633 -0.1327
40.1600 13.3700 -0.1302
40.1800 13.3766 -0.1365
40.2000 13.3832 -0.1344
40.2200 13.3899 -0.1265
40.2400 13.3966 -0.1310
40.2600 13.4033 -0.1400
40.2800 13.4100 -0.1330
40.3000 13.4167 -0.1353
40.3200 13.4234 -0.1390
40.3400 13.4301 -0.1383
40.3600 13.4366 -0.1379
40.3800 13.4432 -0.1405
40.4000 13.4499 -0.1327
40.4200 13.4566 -0.1381
40.4400 13.4633 -0.1407
40.4600 13.4700 -0.1371
40.4800 13.4767 -0.1409
40.5000 13.4833 -0.1431
40.5200 13.4900 -0.1361
40.5400 13.4966 -0.1462
40.5600 13.5032 -0.1446
40.5800 13.5099 -0.1407
40.6000 13.5166 -0.1417
40.6200 13.5233 -0.1396
40.6400 13.5300 -0.1428
40.6600 13.5366 -0.1424
40.6800 13.5433 -0.1434
40.7000 13.5500 -0.1455
40.7200 13.5566 -0.1512
40.7400 13.5632 -0.1440
40.7600 13.5698 -0.1400
40.7800 13.5765 -0.1510
40.8000 13.5833 -0.1506
40.8200 13.5900 -0.1415
40.8400 13.5966 -0.1523
40.8600 13.6033 -0.1488
40.8800 13.6100 -0.1462
40.9000 13.6166 -0.1535
40.9200 13.6232 -0.1540
40.9400 13.6299 -0.1446
40.9600 13.6366 -0.1558
40.9800 13.6433 -0.1541
41.0000 13.6500 -0.1468
41.0200 13.6567 -0.1637
41.0400 13.6634 -0.1544
41.0600 13.6700 -0.1412
41.0800 13.6767 -0.1577
41.1000 13.6833 -0.1568
41.1200 13.6899 -0.1500
41.1400 13.6966 -0.1595
41.1600 13.7033 -0.1555
41.1800 13.7100 -0.1581
41.2000 13.7167 -0.1575
41.2200 13.7234 -0.1571
41.2400 13.7300 -0.1581
41.2600 13.7367 -0.1569
41.2800 13.7432 -0.1583
41.3000 13.7499 -0.1610
41.3200 13.7566 -0.1578
41.3400 13.7633 -0.1586
41.3600 13.7700 -0.1659
41.3800 13.7766 -0.1581
41.4000 13.7833 -0.1610
41.4200 13.7900 -0.1656
41.4400 13.7966 -0.1531
41.4600 13.8032 -0.1681
41.4800 13.8098 -0.1623
41.5000 13.8165 -0.1570
41.5200 13.8233 -0.1751
41.5400 13.8300 -0.1609
41.5600 13.8366 -0.1563
41.5800 13.8433 -0.1760
41.6000 13.8500 -0.1673
41.6200 13.8566 -0.1570
41.6400 13.8633 -0.1766
41.6600 13.8699 -0.1640
41.6800 13.8766 -0.1602
41.7000 13.8833 -0.1730
41.7200 13.8900 -0.1608
41.7400 13.8967 -0.1663
41.7600 13.9034 -0.1805
41.7800 13.9101 -0.1634
41.8000 13.9167 -0.1693
41.8200 13.9233 -0.1809
41.8400 13.9299 -0.1662
41.8600 13.9366 -0.1642
41.8800 13.9433 -0.1801
41.9000 13.9500 -0.1681
41.9200 13.9567 -0.1618
41.9400 13.9634 -0.1796
41.9600 13.9700 -0.1740
41.9800 13.9766 -0.1682
42.0000 13.9832 -0.1804
42.0200 13.9899 -0.1703
42.0400 13.9966 -0.1708
42.0600 14.0033 -0.1835
42.0800 14.0100 -0.1681
42.1000 14.0167 -0.1714
42.1200 14.0233 -0.1812
42.1400 14.0300 -0.1742
42.1600 14.0366 -0.1796
42.1800 14.0432 -0.1856
42.2000 14.0499 -0.1703
42.2200 14.0565 -0.1774
42.2400 14.0632 -0.1849
42.2600 14.0699 -0.1809
42.2800 14.0766 -0.1767
42.3000 14.0833 -0.1803
42.3200 14.0900 -0.1787
42.3400 14.0966 -0.1787
42.3600 14.1032 -0.1904
42.3800 14.1099 -0.1816
42.4000 14.1166 -0.1765
42.4200 14.1233 -0.1928
42.4400 14.1300 -0.1832
42.4600 14.1367 -0.1791
42.4800 14.1434 -0.1931
42.5000 14.1501 -0.1867
42.5200 14.1567 -0.1761
42.5400 14.1633 -0.1896
42.5600 14.1699 -0.1885
42.5800 14.1766 -0.1802
42.6000 14.1833 -0.1980
42.6200 14.1900 -0.1876
42.6400 14.1967 -0.1831
42.6600 14.2033 -0.1979
42.6800 14.2100 -0.1888
42.7000 14.2167 -0.1863
42.7200 14.2232 -0.1941
42.7400 14.2298 -0.1861
42.7600 14.2365 -0.1884
42.7800 14.2432 -0.1974
42.8000 14.2500 -0.1941
42.8200 14.2567 -0.1934
42.8400 14.2634 -0.1985
42.8600 14.2700 -0.2000
42.8800 14.2767 -0.1950
42.9000 14.2832 -0.1925
42.9200 14.2899 -0.1947
42.9400 14.2965 -0.1977
42.9600 14.3033 -0.1960
42.9800 14.3100 -0.1993
43.0000 14.3166 -0.1965
43.0200 14.3233 -0.1993
43.0400 14.3300 -0.2015
43.0600 14.3366 -0.1988
43.0800 14.3433 -0.1997
43.1000 14.3499 -0.2066
43.1200 14.3566 -0.1925
43.1400 14.3633 -0.1995
43.1600 14.3700 -0.2083
43.1800 14.3767 -0.2020
43.2000 14.3834 -0.2004
43.2200 14.3900 -0.2095
43.2400 14.3967 -0.2036
43.2600 14.4033 -0.2015
43.2800 14.4099 -0.2127
43.3000 14.4166 -0.2004
43.3200 14.4233 -0.2048
43.3400 14.4300 -0.2068
43.3600 14.4367 -0.2042
43.3800 14.4434 -0.2074
43.4000 14.4501 -0.2115
43.4200 14.4567 -0.2043
43.4400 14.4633 -0.2095
43.4600 14.4699 -0.2127
43.4800 14.4765 -0.2084
43.5000 14.4833 -0.2066
43.5200 14.4900 -0.2115
43.5400 14.4967 -0.2069
43.5600 14.5033 -0.2119
43.5800 14.5100 -0.2125
43.6000 14.5166 -0.2149
43.6200 14.5233 -0.2096
43.6400 14.5299 -0.2135
43.6600 14.5365 -0.2165
43.6800 14.5432 -0.2109
43.7000 14.5499 -0.2174
43.7200 14.5566 -0.2160
43.7400 14.5633 -0.2093
43.7600 14.5700 -0.2179
43.7800 14.5767 -0.2185
43.8000 14.5833 -0.2122
43.8200 14.5899 -0.2224
43.8400 14.5965 -0.2155
43.8600 14.6033 -0.2147
43.8800 14.6100 -0.2243
43.9000 14.6166 -0.2177
43.9200 14.6234 -0.2141
43.9400 14.6301 -0.2238
43.9600 14.6367 -0.2202
43.9800 14.6433 -0.2153
44.0000 14.6499 -0.2256
44.0200 14.6565 -0.2238
44.0400 14.6633 -0.2181
44.0600 14.6700 -0.2264
44.0800 14.6767 -0.2232
44.1000 14.6834 -0.2233
44.1200 14.6900 -0.2236
44.1400 14.6967 -0.2250
44.1600 14.7033 -0.2227
44.1800 14.7099 -0.2208
44.2000 14.7166 -0.2283
44.2200 14.7233 -0.2215
44.2400 14.7300 -0.2291
44.2600 14.7366 -0.2317
44.2800 14.7433 -0.2235
44.3000 14.7500 -0.2255
44.3200 14.7567 -0.2353
44.3400 14.7633 -0.2239
44.3600 14.7699 -0.2286
44.3800 14.7765 -0.2343
44.4000 14.7832 -0.2245
44.4200 14.7899 -0.2328
44.4400 14.7966 -0.2341
44.4600 14.8033 -0.2276
44.4800 14.8100 -0.2358
44.5000 14.8166 -0.2399
44.5200 14.8232 -0.2248
44.5400 14.8299 -0.2294
44.5600 14.8365 -0.2403
44.5800 14.8433 -0.2284
44.6000 14.8500 -0.2381
44.6200 14.8567 -0.2444
44.6400 14.8633 -0.2245
44.6600 14.8700 -0.2389
44.6800 14.8767 -0.2437
44.7000 14.8833 -0.2307
44.7200 14.8900 -0.2411
44.7400 14.8966 -0.2405
44.7600 14.9033 -0.2271
44.7800 14.9100 -0.2439
44.8000 14.9167 -0.2422
44.8200 14.9234 -0.2352
44.8400 14.9301 -0.2473
44.8600 14.9367 -0.2411
44.8800 14.9433 -0.2375
44.9000 14.9499 -0.2457
44.9200 14.9565 -0.2420
44.9400 14.9632 -0.2419
44.9600 14.9699 -0.2422
44.9800 14.9766 -0.2369
45.0000 14.9833 -0.2464
45.0200 14.9900 -0.2472
45.0400 14.9967 -0.2482
45.0600 15.0033 -0.2442
45.0800 15.0099 -0.2460
45.1000 15.0165 -0.2491
45.1200 15.0232 -0.2462
45.1400 15.0300 -0.2446
45.1600 15.0367 -0.2479
45.1800 15.0433 -0.2479
45.2000 15.0500 -0.2460
45.2200 15.0567 -0.2528
45.2400 15.0633 -0.2481
45.2600 15.0699 -0.2489
45.2800 15.0766 -0.2551
45.3000 15.0833 -0.2478
45.3200 15.0900 -0.2566
45.3400 15.0967 -0.2606
45.3600 15.1034 -0.2451
45.3800 15.1101 -0.2501
45.4000 15.1167 -0.2619
45.4200 15.1233 -0.2465
45.4400 15.1299 -0.2515
45.4600 15.1366 -0.2681
45.4800 15.1433 -0.2523
45.5000 15.1500 -0.2525
45.5200 15.1567 -0.2658
45.5400 15.1634 -0.2557
45.5600 15.1700 -0.2544
45.5800 15.1767 -0.2679
45.6000 15.1833 -0.2469
45.6200 15.1899 -0.2563
45.6400 15.1965 -0.2690
45.6600 15.2033 -0.2540
45.6800 15.2100 -0.2577
45.7000 15.2167 -0.2705
45.7200 15.2233 -0.2544
45.7400 15.2300 -0.2568
45.7600 15.2367 -0.2745
45.7800 15.2433 -0.2626
45.8000 15.2499 -0.2536
45.8200 15.2565 -0.2609
45.8400 15.2632 -0.2611
45.8600 15.2699 -0.2604
45.8800 15.2766 -0.2693
45.9000 15.2833 -0.2623
45.9200 15.2900 -0.2625
45.9400 15.2967 -0.2717
45.9600 15.3033 -0.2619
45.9800 15.3099 -0.2588
46.0000 15.3166 -0.2737
46.0200 15.3233 -0.2573
46.0400 15.3300 -0.2606
46.0600 15.3367 -0.2760
46.0800 15.3434 -0.2662
46.1000 15.3500 -0.2639
46.1200 15.3567 -0.2774
46.1400 15.3633 -0.2619
46.1600 15.3699 -0.2660
46.1800 15.3766 -0.2781
46.2000 15.3833 -0.2628
46.2200 15.3900 -0.2657
46.2400 15.3967 -0.2822
46.2600 15.4033 -0.2559
46.2800 15.4100 -0.2659
46.3000 15.4167 -0.2852
46.3200 15.4233 -0.2632
46.3400 15.4299 -0.2727
46.3600 15.4366 -0.2766
46.3800 15.4432 -0.2614
46.4000 15.4499 -0.2781
46.4200 15.4566 -0.2781
46.4400 15.4633 -0.2584
46.4600 15.4700 -0.2773
46.4800 15.4767 -0.2795
46.5000 15.4833 -0.2630
46.5200 15.4899 -0.2793
46.5400 15.4965 -0.2845
46.5600 15.5032 -0.2640
46.5800 15.5099 -0.2806
46.6000 15.5166 -0.2779
46.6200 15.5233 -0.2719
46.6400 15.5300 -0.2823
46.6600 15.5366 -0.2719
46.6800 15.5433 -0.2804
46.7000 15.5499 -0.2835
46.7200 15.5566 -0.2735
46.7400 15.5632 -0.2768
46.7600 15.5700 -0.2872
46.7800 15.5766 -0.2816
46.8000 15.5833 -0.2833
46.8200 15.5900 -0.2810
46.8400 15.5967 -0.2780
46.8600 15.6034 -0.2892
46.8800 15.6100 -0.2810
46.9000 15.6166 -0.2760
46.9200 15.6233 -0.2960
46.9400 15.6300 -0.2786
46.9600 15.6367 -0.2854
46.9800 15.6434 -0.2934
47.0000 15.6500 -0.2834
47.0200 15.6567 -0.2911
47.0400 15.6633 -0.2880
47.0600 15.6699 -0.2852
47.0800 15.6765 -0.2915
47.1000 15.6832 -0.2880
47.1200 15.6900 -0.2847
47.1400 15.6967 -0.2966
47.1600 15.7033 -0.2884
47.1800 15.7100 -0.2865
47.2000 15.7167 -0.2986
47.2200 15.7233 -0.2892
47.2400 15.7299 -0.2933
47.2600 15.7366 -0.2970
47.2800 15.7432 -0.2876
47.3000 15.7500 -0.2963
47.3200 15.7566 -0.2923
47.3400 15.7633 -0.2957
47.3600 15.7700 -0.2991
47.3800 15.7767 -0.2960
47.4000 15.7833 -0.2977
47.4200 15.7899 -0.3041
47.4400 15.7966 -0.2960
47.4600 15.8032 -0.2960
47.4800 15.8100 -0.2999
47.5000 15.8167 -0.3003
47.5200 15.8233 -0.3062
47.5400 15.8300 -0.2992
47.5600 15.8367 -0.2979
47.5800 15.8433 -0.3110
47.6000 15.8499 -0.2992
47.6200 15.8565 -0.3036
47.6400 15.8632 -0.3115
47.6600 15.8700 -0.2938
47.6800 15.8767 -0.3068
47.7000 15.8834 -0.3113
47.7200 15.8900 -0.3012
47.7400 15.8967 -0.3047
47.7600 15.9033 -0.3140
47.7800 15.9099 -0.3020
47.8000 15.9166 -0.3097
47.8200 15.9233 -0.3104
47.8400 15.9300 -0.3091
47.8600 15.9367 -0.3105
47.8800 15.9433 -0.3125
47.9000 15.9500 -0.3054
47.9200 15.9567 -0.3162
47.9400 15.9633 -0.3112
47.9600 15.9699 -0.3078
47.9800 15.9765 -0.3145
48.0000 15.9832 -0.3131
48.0200 15.9899 -0.3114
48.0400 15.9966 -0.3105
48.0600 16.0033 -0.3188
48.0800 16.0100 -0.3140
48.1000 16.0167 -0.3111
48.1200 16.0233 -0.3188
48.1400 16.0299 -0.3181
48.1600 16.0366 -0.3109
48.1800 16.0433 -0.3223
48.2000 16.0500 -0.3226
48.2200 16.0567 -0.3151
48.2400 16.0634 -0.3197
48.2600 16.0700 -0.3195
48.2800 16.0767 -0.3120
48.3000 16.0833 -0.3252
48.3200 16.0899 -0.3206
48.3400 16.0966 -0.3121
48.3600 16.1033 -0.3279
48.3800 16.1100 -0.3251
48.4000 16.1167 -0.3151
48.4200 16.1233 -0.3315
48.4400 16.1300 -0.3251
48.4600 16.1367 -0.3135
48.4800 16.1434 -0.3276
48.5000 16.1499 -0.3211
48.5200 16.1565 -0.3181
48.5400 16.1632 -0.3288
48.5600 16.1699 -0.3220
48.5800 16.1766 -0.3216
48.6000 16.1833 -0.3378
48.6200 16.1900 -0.3192
48.6400 16.1967 -0.3259
48.6600 16.2033 -0.3362
48.6800 16.2099 -0.3263
48.7000 16.2165 -0.3230
48.7200 16.2232 -0.3283
48.7400 16.2299 -0.3246
48.7600 16.2366 -0.3298
48.7800 16.2433 -0.3376
48.8000 16.2500 -0.3227
48.8200 16.2566 -0.3280
48.8400 16.2633 -0.3405
48.8600 16.2699 -0.3283
48.8800 16.2766 -0.3317
48.9000 16.2832 -0.3364
48.9200 16.2899 -0.3263
48.9400 16.2966 -0.3360
48.9600 16.3033 -0.3346
48.9800 16.3100 -0.3342
49.0000 16.3167 -0.3389
49.0200 16.3234 -0.3410
49.0400 16.3300 -0.3328
49.0600 16.3366 -0.3404
49.0800 16.3432 -0.3405
49.1000 16.3499 -0.3330
49.1200 16.3566 -0.3417
49.1400 16.3633 -0.3408
49.1600 16.3700 -0.3409
49.1800 16.3767 -0.3457
49.2000 16.3833 -0.3374
49.2200 16.3899 -0.3405
49.2400 16.3966 -0.3494
49.2600 16.4032 -0.3392
49.2800 16.4099 -0.3442
49.3000 16.4166 -0.3465
49.3200 16.4233 -0.3415
49.3400 16.4300 -0.3457
49.3600 16.4366 -0.3469
49.3800 16.4433 -0.3439
49.4000 16.4499 -0.3543
49.4200 16.4565 -0.3456
49.4400 16.4632 -0.3474
49.4600 16.4699 -0.3528
49.4800 16.4766 -0.3471
49.5000 16.4833 -0.3509
49.5200 16.4900 -0.3545
49.5400 16.4967 -0.3456
49.5600 16.5034 -0.3509
49.5800 16.5100 -0.3634
49.6000 16.5166 -0.3516
49.6200 16.5232 -0.3500
49.6400 16.5299 -0.3588
49.6600 16.5367 -0.3530
49.6800 16.5433 -0.3582
49.7000 16.5500 -0.3617
49.7200 16.5567 -0.3504
49.7400 16.5634 -0.3576
49.7600 16.5700 -0.3619
49.7800 16.5766 -0.3522
49.8000 16.5832 -0.3599
49.8200 16.5899 -0.3670
49.8400 16.5967 -0.3498
49.8600 16.6033 -0.3615
49.8800 16.6100 -0.3672
49.9000 16.6167 -0.3635
49.9200 16.6234 -0.3671
49.9400 16.6300 -0.3606
49.9600 16.6366 -0.3555
49.9800 16.6432 -0.3688
50.0000 16.6499 -0.3699
50.0200 16.6566 -0.3562
50.0400 16.6633 -0.3705
50.0600 16.6700 -0.3693
50.0800 16.6767 -0.3551
50.1000 16.6834 -0.3751
50.1200 16.6900 -0.3696
50.1400 16.6965 -0.3558
50.1600 16.7032 -0.3722
50.1800 16.7099 -0.3682
50.2000 16.7166 -0.3627
50.2200 16.7233 -0.3760
50.2400 16.7300 -0.3702
50.2600 16.7367 -0.3606
50.2800 16.7433 -0.3798
50.3000 16.7499 -0.3675
50.3200 16.7566 -0.3640
50.3400 16.7632 -0.3848
50.3600 16.7699 -0.3711
50.3800 16.7766 -0.3638
50.4000 16.7833 -0.3821
50.4200 16.7900 -0.3688
50.4400 16.7967 -0.3724
50.4600 16.8034 -0.3853
50.4800 16.8100 -0.3634
50.5000 16.8166 -0.3762
50.5200 16.8232 -0.3821
50.5400 16.8299 -0.3639
50.5600 16.8366 -0.3767
50.5800 16.8433 -0.3805
50.6000 16.8500 -0.3704
50.6200 16.8567 -0.3810
50.6400 16.8634 -0.3799
50.6600 16.8700 -0.3770
50.6800 16.8766 -0.3794
50.7000 16.8832 -0.3760
50.7200 16.8899 -0.3800
50.7400 16.8967 -0.3889
50.7600 16.9033 -0.3810
50.7800 16.9100 -0.3796
50.8000 16.9167 -0.3785
50.8200 16.9233 -0.3862
50.8400 16.9300 -0.3863
50.8600 16.9366 -0.3790
50.8800 16.9432 -0.3837
50.9000 16.9499 -0.3890
50.9200 16.9566 -0.3806
50.9400 16.9633 -0.3865
50.9600 16.9699 -0.3907
50.9800 16.9766 -0.3780
51.0000 16.9833 -0.3907
51.0200 16.9900 -0.3842
51.0400 16.9966 -0.3823
51.0600 17.0032 -0.3977
51.0800 17.0099 -0.3850
51.1000 17.0166 -0.3870
51.1200 17.0233 -0.4024
51.1400 17.0300 -0.3834
51.1600 17.0367 -0.3932
51.1800 17.0434 -0.3967
51.2000 17.0500 -0.3845
51.2200 17.0566 -0.4007
51.2400 17.0632 -0.3954
51.2600 17.0699 -0.3850
51.2800 17.0766 -0.4061
51.3000 17.0833 -0.3969
51.3200 17.0900 -0.3889
51.3400 17.0967 -0.4066
51.3600 17.1033 -0.3963
51.3800 17.1100 -0.3954
51.4000 17.1166 -0.4058
51.4200 17.1232 -0.3908
51.4400 17.1299 -0.3992
51.4600 17.1366 -0.4108
51.4800 17.1433 -0.3913
51.5000 17.1500 -0.4058
51.5200 17.1567 -0.4082
51.5400 17.1633 -0.3998
51.5600 17.1700 -0.4079
51.5800 17.1766 -0.4035
51.6000 17.1832 -0.3967
51.6200 17.1899 -0.4122
51.6400 17.1966 -0.4059
51.6600 17.2033 -0.4000
51.6800 17.2100 -0.4185
51.7000 17.2167 -0.4082
51.7200 17.2234 -0.4064
51.7400 17.2300 -0.4198
51.7600 17.2366 -0.4080
51.7800 17.2432 -0.4103
51.8000 17.2499 -0.4152
51.8200 17.2566 -0.4057
51.8400 17.2633 -0.4127
51.8600 17.2700 -0.4159
51.8800 17.2767 -0.4138
51.9000 17.2834 -0.4150
51.9200 17.2900 -0.4253
51.9400 17.2966 -0.4159
51.9600 17.3032 -0.4137
51.9800 17.3099 -0.4205
52.0000 17.3166 -0.4226
52.0200 17.3233 -0.4137
52.0400 17.3300 -0.4130
52.0600 17.3367 -0.4254
52.0800 17.3434 -0.4197
52.1000 17.3500 -0.4209
52.1200 17.3566 -0.4308
52.1400 17.3632 -0.4181
52.1600 17.3699 -0.4167
52.1800 17.3766 -0.4315
52.2000 17.3833 -0.4226
52.2200 17.3900 -0.4212
52.2400 17.3967 -0.4250
52.2600 17.4033 -0.4201
52.2800 17.4100 -0.4301
52.3000 17.4166 -0.4345
52.3200 17.4232 -0.4199
52.3400 17.4298 -0.4306
52.3600 17.4366 -0.4312
52.3800 17.4432 -0.4279
52.4000 17.4499 -0.4307
52.4200 17.4566 -0.4350
52.4400 17.4633 -0.4240
52.4600 17.4700 -0.4295
52.4800 17.4766 -0.4367
52.5000 17.4832 -0.4299
52.5200 17.4899 -0.4347
52.5400 17.4966 -0.4366
52.5600 17.5033 -0.4283
52.5800 17.5100 -0.4356
52.6000 17.5167 -0.4405
52.6200 17.5234 -0.4326
52.6400 17.5300 -0.4378
52.6600 17.5366 -0.4382
52.6800 17.5432 -0.4311
52.7000 17.5499 -0.4403
52.7200 17.5566 -0.4424
52.7400 17.5633 -0.4380
52.7600 17.5700 -0.4424
52.7800 17.5767 -0.4424
52.8000 17.5834 -0.4435
52.8200 17.5900 -0.4433
52.8400 17.5966 -0.4476
52.8600 17.6032 -0.4356
52.8800 17.6099 -0.4414
52.9000 17.6166 -0.4497
52.9200 17.6233 -0.4420
52.9400 17.6300 -0.4463
52.9600 17.6367 -0.4485
52.9800 17.6433 -0.4424
53.0000 17.6500 -0.4496
53.0200 17.6566 -0.4574
53.0400 17.6632 -0.4447
53.0600 17.6699 -0.4456
53.0800 17.6766 -0.4496
53.1000 17.6833 -0.4483
53.1200 17.6900 -0.4516
53.1400 17.6966 -0.4565
53.1600 17.7033 -0.4423
53.1800 17.7100 -0.4580
53.2000 17.7166 -0.4605
53.2200 17.7232 -0.4387
53.2400 17.7299 -0.4529
53.2600 17.7366 -0.4619
53.2800 17.7433 -0.4396
53.3000 17.7500 -0.4554
53.3200 17.7567 -0.4655
53.3400 17.7634 -0.4464
53.3600 17.7700 -0.4615
53.3800 17.7766 -0.4600
53.4000 17.7832 -0.4467
53.4200 17.7899 -0.4661
53.4400 17.7966 -0.4567
53.4600 17.8034 -0.4479
53.4800 17.8100 -0.4712
53.5000 17.8167 -0.4616
53.5200 17.8233 -0.4440
53.5400 17.8300 -0.4696
53.5600 17.8366 -0.4687
53.5800 17.8432 -0.4479
53.6000 17.8499 -0.4697
53.6200 17.8566 -0.4636
53.6400 17.8633 -0.4580
53.6600 17.8699 -0.4681
53.6800 17.8766 -0.4592
53.7000 17.8833 -0.4624
53.7200 17.8900 -0.4743
53.7400 17.8966 -0.4635
53.7600 17.9032 -0.4658
53.7800 17.9098 -0.4703
53.8000 17.9166 -0.4696
53.8200 17.9233 -0.4719
53.8400 17.9300 -0.4710
53.8600 17.9367 -0.4675
53.8800 17.9433 -0.4706
53.9000 17.9500 -0.4711
53.9200 17.9566 -0.4687
53.9400 17.9632 -0.4766
53.9600 17.9699 -0.4713
53.9800 17.9766 -0.4733
54.0000 17.9833 -0.4792
54.0200 17.9900 -0.4754
54.0400 17.9967 -0.4753
54.0600 18.0034 -0.4768
54.0800 18.0100 -0.4752
54.1000 18.0166 -0.4783
54.1200 18.0232 -0.4731
54.1400 18.0299 -0.4804
54.1600 18.0366 -0.4813
54.1800 18.0433 -0.4789
54.2000 18.0500 -0.4845
54.2200 18.0567 -0.4849
54.2400 18.0634 -0.4796
54.2600 18.0700 -0.4897
54.2800 18.0766 -0.4834
54.3000 18.0832 -0.4827
54.3200 18.0899 -0.4855
54.3400 18.0966 -0.4792
54.3600 18.1033 -0.4884
54.3800 18.1100 -0.4907
54.4000 18.1167 -0.4796
54.4200 18.1234 -0.4888
54.4400 18.1300 -0.5005
54.4600 18.1366 -0.4862
54.4800 18.1432 -0.4887
54.5000 18.1499 -0.4943
54.5200 18.1566 -0.4833
54.5400 18.1633 -0.4892
54.5600 18.1700 -0.4942
54.5800 18.1766 -0.4861
54.6000 18.1833 -0.4973
54.6200 18.1900 -0.4963
54.6400 18.1966 -0.4886
54.6600 18.2032 -0.4977
54.6800 18.2099 -0.4973
54.7000 18.2166 -0.4909
54.7200 18.2233 -0.4982
54.7400 18.2300 -0.4933
54.7600 18.2367 -0.4904
54.7800 18.2434 -0.5052
54.8000 18.2501 -0.4930
54.8200 18.2567 -0.4979
54.8400 18.2632 -0.5019
54.8600 18.2699 -0.4954
54.8800 18.2766 -0.4979
54.9000 18.2833 -0.5067
54.9200 18.2900 -0.5003
54.9400 18.2967 -0.4959
54.9600 18.3034 -0.4998
54.9800 18.3100 -0.5022
55.0000 18.3166 -0.5029
55.0200 18.3232 -0.5060
55.0400 18.3299 -0.5033
55.0600 18.3366 -0.5083
55.0800 18.3433 -0.5103
55.1000 18.3500 -0.5029
55.1200 18.3566 -0.5061
55.1400 18.3633 -0.5168
55.1600 18.3700 -0.5040
55.1800 18.3766 -0.5039
55.2000 18.3832 -0.5143
55.2200 18.3898 -0.5083
55.2400 18.3965 -0.5136
55.2600 18.4033 -0.5139
55.2800 18.4099 -0.5125
55.3000 18.4166 -0.5180
55.3200 18.4233 -0.5246
55.3400 18.4300 -0.5133
55.3600 18.4366 -0.5241
55.3800 18.4432 -0.5185
55.4000 18.4499 -0.5144
55.4200 18.4566 -0.5217
55.4400 18.4633 -0.5220
55.4600 18.4700 -0.5234
55.4800 18.4767 -0.5240
55.5000 18.4834 -0.5237
55.5200 18.4900 -0.5262
55.5400 18.4967 -0.5283
55.5600 18.5033 -0.5233
55.5800 18.5099 -0.5294
55.6000 18.5166 -0.5291
55.6200 18.5233 -0.5244
55.6400 18.5300 -0.5364
55.6600 18.5367 -0.5308
55.6800 18.5434 -0.5261
55.7000 18.5500 -0.5377
55.7200 18.5567 -0.5292
55.7400 18.5633 -0.5350
55.7600 18.5699 -0.5347
55.7800 18.5766 -0.5286
55.8000 18.5833 -0.5351
55.8200 18.5900 -0.5385
55.8400 18.5967 -0.5307
55.8600 18.6033 -0.5421
55.8800 18.6100 -0.5413
55.9000 18.6166 -0.5280
55.9200 18.6232 -0.5440
55.9400 18.6298 -0.5403
55.9600 18.6365 -0.5327
55.9800 18.6433 -0.5514
56.0000 18.6500 -0.5428
56.0200 18.6566 -0.5341
56.0400 18.6633 -0.5512
56.0600 18.6700 -0.5406
56.0800 18.6767 -0.5426
56.1000 18.6833 -0.5522
56.1200 18.6899 -0.5428
56.1400 18.6966 -0.5393
56.1600 18.7033 -0.5544
56.1800 18.7100 -0.5466
56.2000 18.7167 -0.5463
56.2200 18.7234 -0.5540
56.2400 18.7301 -0.5474
56.2600 18.7367 -0.5488
56.2800 18.7433 -0.5567
56.3000 18.7499 -0.5500
56.3200 18.7566 -0.5499
56.3400 18.7633 -0.5560
56.3600 18.7700 -0.5501
56.3800 18.7767 -0.5479
56.4000 18.7834 -0.5548
56.4200 18.7900 -0.5585
56.4400 18.7967 -0.5492
56.4600 18.8033 -0.5577
56.4800 18.8099 -0.5537
56.5000 18.8166 -0.5553
56.5200 18.8233 -0.5606
56.5400 18.8300 -0.5613
56.5600 18.8366 -0.5547
56.5800 18.8433 -0.5563
56.6000 18.8500 -0.5591
56.6200 18.8566 -0.5550
56.6400 18.8632 -0.5640
56.6600 18.8698 -0.5629
56.6800 18.8765 -0.5550
56.7000 18.8832 -0.5681
56.7200 18.8899 -0.5631
56.7400 18.8966 -0.5613
56.7600 18.9033 -0.5665
56.7800 18.9100 -0.5612
56.8000 18.9166 -0.5676
56.8200 18.9232 -0.5670
56.8400 18.9299 -0.5666
56.8600 18.9366 -0.5656
56.8800 18.9433 -0.5702
56.9000 18.9500 -0.5685
56.9200 18.9567 -0.5646
56.9400 18.9634 -0.5752
56.9600 18.9701 -0.5713
56.9800 18.9767 -0.5700
57.0000 18.9833 -0.5726
57.0200 18.9899 -0.5687
57.0400 18.9966 -0.5752
57.0600 19.0033 -0.5782
57.0800 19.0100 -0.5772
57.1000 19.0167 -0.5742
57.1200 19.0233 -0.5825
57.1400 19.0300 -0.5760
57.1600 19.0367 -0.5763
57.1800 19.0432 -0.5829
57.2000 19.0498 -0.5729
57.2200 19.0565 -0.5787
57.2400 19.0632 -0.5823
57.2600 19.0700 -0.5811
57.2800 19.0766 -0.5880
57.3000 19.0833 -0.5855
57.3200 19.0900 -0.5834
57.3400 19.0967 -0.5896
57.3600 19.1033 -0.5857
57.3800 19.1099 -0.5820
57.4000 19.1165 -0.5844
57.4200 19.1233 -0.5884
57.4400 19.1300 -0.5869
57.4600 19.1367 -0.5907
57.4800 19.1433 -0.5883
57.5000 19.1500 -0.5909
57.5200 19.1566 -0.5946
57.5400 19.1633 -0.5903
57.5600 19.1699 -0.5908
57.5800 19.1766 -0.5919
57.6000 19.1833 -0.5926
57.6200 19.1900 -0.5927
57.6400 19.1967 -0.5955
57.6600 19.2033 -0.5966
57.6800 19.2100 -0.5972
57.7000 19.2167 -0.6031
57.7200 19.2233 -0.6017
57.7400 19.2299 -0.5944
57.7600 19.2366 -0.6054
57.7800 19.2433 -0.5986
57.8000 19.2500 -0.5960
57.8200 19.2567 -0.6059
57.8400 19.2634 -0.6026
57.8600 19.2701 -0.6036
57.8800 19.2767 -0.6090
57.9000 19.2833 -0.6016
57.9200 19.2899 -0.6079
57.9400 19.2965 -0.6158
57.9600 19.3032 -0.5975
57.9800 19.3100 -0.6090
58.0000 19.3166 -0.6184
58.0200 19.3233 -0.6024
58.0400 19.3300 -0.6137
58.0600 19.3367 -0.6200
58.0800 19.3433 -0.6066
58.1000 19.3499 -0.6177
58.1200 19.3565 -0.6221
58.1400 19.3632 -0.6137
58.1600 19.3700 -0.6194
58.1800 19.3766 -0.6173
58.2000 19.3833 -0.6138
58.2200 19.3900 -0.6268
58.2400 19.3966 -0.6146
58.2600 19.4033 -0.6220
58.2800 19.4099 -0.6317
58.3000 19.4166 -0.6154
58.3200 19.4233 -0.6292
58.3400 19.4300 -0.6314
58.3600 19.4366 -0.6170
58.3800 19.4433 -0.6354
58.4000 19.4501 -0.6273
58.4200 19.4567 -0.6227
58.4400 19.4633 -0.6385
58.4600 19.4699 -0.6274
58.4800 19.4765 -0.6286
58.5000 19.4833 -0.6383
58.5200 19.4900 -0.6304
58.5400 19.4967 -0.6328
58.5600 19.5034 -0.6418
58.5800 19.5100 -0.6295
58.6000 19.5167 -0.6325
58.6200 19.5233 -0.6419
58.6400 19.5299 -0.6339
58.6600 19.5366 -0.6373
58.6800 19.5433 -0.6421
58.7000 19.5500 -0.6347
58.7200 19.5566 -0.6458
58.7400 19.5633 -0.6407
58.7600 19.5700 -0.6347
58.7800 19.5767 -0.6464
58.8000 19.5833 -0.6427
58.8200 19.5899 -0.6372
58.8400 19.5965 -0.6466
58.8600 19.6032 -0.6439
58.8800 19.6099 -0.6404
58.9000 19.6166 -0.6498
58.9200 19.6233 -0.6425
58.9400 19.6300 -0.6464
58.9600 19.6366 -0.6540
58.9800 19.6433 -0.6419
59.0000 19.6499 -0.6487
59.0200 19.6565 -0.6553
59.0400 19.6632 -0.6391
59.0600 19.6700 -0.6556
59.0800 19.6767 -0.6575
59.1000 19.6834 -0.6425
59.1200 19.6900 -0.6576
59.1400 19.6967 -0.6623
59.1600 19.7033 -0.6458
59.1800 19.7100 -0.6605
59.2000 19.7166 -0.6577
59.2200 19.7233 -0.6551
59.2400 19.7300 -0.6689
59.2600 19.7367 -0.6571
59.2800 19.7434 -0.6587
59.3000 19.7500 -0.6706
59.3200 19.7567 -0.6587
59.3400 19.7633 -0.6622
59.3600 19.7699 -0.6756
59.3800 19.7765 -0.6574
59.4000 19.7832 -0.6643
59.4200 19.7899 -0.6712
59.4400 19.7966 -0.6688
59.4600 19.8033 -0.6690
59.4800 19.8100 -0.6725
59.5000 19.8167 -0.6714
59.5200 19.8233 -0.6766
59.5400 19.8299 -0.6721
59.5600 19.8365 -0.6749
59.5800 19.8432 -0.6782
59.6000 19.8500 -0.6284
59.6200 19.8567 -0.5263
59.6400 19.8633 -0.3990
59.6600 19.8700 -0.2699
59.6800 19.8767 -0.1569
59.7000 19.8833 -0.0643
59.7200 19.8899 -0.0138
59.7400 19.8966 0.0359
59.7510 19.9002 0.0721
