Raw Data
Time Displacement Force
(s) (mm) (N)
0.0000 0.0000 0.6187
0.0200 0.0000 0.6231
0.0400 0.0008 0.6562
0.0600 0.0039 0.7264
0.0800 0.0094 0.7301
0.1000 0.0152 0.7589
0.1200 0.0211 0.8495
0.1400 0.0277 0.8673
0.1600 0.0349 0.8493
0.1800 0.0424 0.8888
0.2000 0.0496 0.8586
0.2200 0.0565 0.8431
0.2400 0.0631 0.8815
0.2600 0.0698 0.8686
0.2800 0.0764 0.8593
0.3000 0.0832 0.8808
0.3200 0.0899 0.8532
0.3400 0.0966 0.8664
0.3600 0.1033 0.8834
0.3800 0.1100 0.8565
0.4000 0.1166 0.8637
0.4200 0.1233 0.8871
0.4400 0.1299 0.8520
0.4600 0.1366 0.8670
0.4800 0.1433 0.8886
0.5000 0.1500 0.8590
0.5200 0.1567 0.8671
0.5400 0.1634 0.8810
0.5600 0.1700 0.8672
0.5800 0.1766 0.8724
0.6000 0.1832 0.8795
0.6200 0.1899 0.8618
0.6400 0.1966 0.8791
0.6600 0.2033 0.8819
0.6800 0.2100 0.8614
0.7000 0.2166 0.8775
0.7200 0.2233 0.8787
0.7400 0.2300 0.8679
0.7600 0.2366 0.8812
0.7800 0.2432 0.8765
0.8000 0.2499 0.8745
0.8200 0.2566 0.8749
0.8400 0.2633 0.8777
0.8600 0.2699 0.8753
0.8800 0.2766 0.8803
0.9000 0.2833 0.8783
0.9200 0.2900 0.8688
0.9400 0.2966 0.8771
0.9600 0.3032 0.8816
0.9800 0.3098 0.8787
1.0000 0.3165 0.8703
1.0200 0.3232 0.8741
1.0400 0.3299 0.8836
1.0600 0.3366 0.8707
1.0800 0.3433 0.8721
1.1000 0.3499 0.8790
1.1200 0.3566 0.8720
1.1400 0.3632 0.8741
1.1600 0.3698 0.8758
1.1800 0.3765 0.8744
1.2000 0.3833 0.8695
1.2200 0.3900 0.8705
1.2400 0.3967 0.8638
1.2600 0.4034 0.8750
1.2800 0.4100 0.8688
1.3000 0.4167 0.8605
1.3200 0.4233 0.8737
1.3400 0.4299 0.8618
1.3600 0.4366 0.8590
1.3800 0.4433 0.8693
1.4000 0.4500 0.8661
1.4200 0.4567 0.8552
1.4400 0.4633 0.8662
1.4600 0.4700 0.8684
1.4800 0.4766 0.8564
1.5000 0.4832 0.8606
1.5200 0.4898 0.8627
1.5400 0.4965 0.8583
1.5600 0.5033 0.8592
1.5800 0.5100 0.8515
1.6000 0.5166 0.8620
1.6200 0.5233 0.8591
1.6400 0.5300 0.8502
1.6600 0.5366 0.8534
1.6800 0.5432 0.8569
1.7000 0.5499 0.8526
1.7200 0.5566 0.8520
1.7400 0.5633 0.8516
1.7600 0.5700 0.8507
1.7800 0.5766 0.8542
1.8000 0.5833 0.8451
1.8200 0.5900 0.8511
1.8400 0.5966 0.8450
1.8600 0.6032 0.8400
1.8800 0.6099 0.8497
1.9000 0.6166 0.8503
1.9200 0.6233 0.8360
1.9400 0.6299 0.8464
1.9600 0.6366 0.8466
1.9800 0.6433 0.8417
2.0000 0.6500 0.8411
2.0200 0.6567 0.8371
2.0400 0.6632 0.8363
2.0600 0.6699 0.8462
2.0800 0.6765 0.8372
2.1000 0.6833 0.8334
2.1200 0.6900 0.8397
2.1400 0.6967 0.8300
2.1600 0.7033 0.8370
2.1800 0.7100 0.8435
2.2000 0.7166 0.8241
2.2200 0.7232 0.8283
2.2400 0.7298 0.8371
2.2600 0.7366 0.8244
2.2800 0.7433 0.8330
2.3000 0.7500 0.8337
2.3200 0.7566 0.8214
2.3400 0.7633 0.8241
2.3600 0.7700 0.8328
2.3800 0.7766 0.8301
2.4000 0.7832 0.8299
2.4200 0.7899 0.8133
2.4400 0.7965 0.8185
2.4600 0.8032 0.8341
2.4800 0.8099 0.8236
2.5000 0.8166 0.8064
2.5200 0.8233 0.8092
2.5400 0.8300 0.8246
2.5600 0.8367 0.8254
2.5800 0.8432 0.8177
2.6000 0.8499 0.8154
2.6200 0.8566 0.8014
2.6400 0.8633 0.8118
2.6600 0.8700 0.8414
2.6800 0.8767 0.8090
2.7000 0.8834 0.7857
2.7200 0.8900 0.8125
2.7400 0.8966 0.8176
2.7600 0.9032 0.8049
2.7800 0.9099 0.8223
2.8000 0.9166 0.7943
2.8200 0.9233 0.7928
2.8400 0.9300 0.8175
2.8600 0.9367 0.8081
2.8800 0.9433 0.7949
2.9000 0.9500 0.8034
2.9200 0.9566 0.8015
2.9400 0.9633 0.8053
2.9600 0.9699 0.8057
2.9800 0.9765 0.7939
3.0000 0.9832 0.7967
3.0200 0.9899 0.8054
3.0400 0.9966 0.8017
3.0600 1.0033 0.7963
3.0800 1.0100 0.7899
3.1000 1.0166 0.7915
3.1200 1.0232 0.8018
3.1400 1.0298 0.7963
3.1600 1.0365 0.7996
3.1800 1.0432 0.7813
3.2000 1.0499 0.7925
3.2200 1.0566 0.8058
3.2400 1.0633 0.7883
3.2600 1.0700 0.7889
3.2800 1.0766 0.7893
3.3000 1.0833 0.7811
3.3200 1.0899 0.7998
3.3400 1.0966 0.7951
3.3600 1.1033 0.7751
3.3800 1.1100 0.7860
3.4000 1.1166 0.7846
3.4200 1.1234 0.7809
3.4400 1.1301 0.8084
3.4600 1.1367 0.7810
3.4800 1.1433 0.7511
3.5000 1.1499 0.7984
3.5200 1.1566 0.8016
3.5400 1.1633 0.7882
3.5600 1.1700 0.7719
3.5800 1.1767 0.7460
3.6000 1.1833 0.7922
3.6200 1.1900 0.8268
3.6400 1.1966 0.7539
3.6600 1.2032 0.7506
3.6800 1.2099 0.8017
3.7000 1.2165 0.7688
3.7200 1.2233 0.7921
3.7400 1.2300 0.7951
3.7600 1.2366 0.7306
3.7800 1.2433 0.7851
3.8000 1.2500 0.8015
3.8200 1.2566 0.7438
3.8400 1.2633 0.7852
3.8600 1.2699 0.7864
3.8800 1.2766 0.7426
3.9000 1.2833 0.7906
3.9200 1.2899 0.7844
3.9400 1.2966 0.7466
3.9600 1.3032 0.7814
3.9800 1.3100 0.7708
4.0000 1.3166 0.7677
4.0200 1.3233 0.7771
4.0400 1.3299 0.7535
4.0600 1.3365 0.7652
4.0800 1.3432 0.7830
4.1000 1.3499 0.7599
4.1200 1.3566 0.7669
4.1400 1.3633 0.7605
4.1600 1.3700 0.7528
4.1800 1.3767 0.7790
4.2000 1.3833 0.7606
4.2200 1.3899 0.7495
4.2400 1.3965 0.7742
4.2600 1.4033 0.7481
4.2800 1.4100 0.7564
4.3000 1.4167 0.7824
4.3200 1.4234 0.7421
4.3400 1.4300 0.7542
4.3600 1.4367 0.7666
4.3800 1.4433 0.7402
4.4000 1.4499 0.7677
4.4200 1.4565 0.7697
4.4400 1.4632 0.7302
4.4600 1.4699 0.7595
4.4800 1.4766 0.7644
4.5000 1.4833 0.7413
4.5200 1.4900 0.7573
4.5400 1.4967 0.7551
4.5600 1.5033 0.7373
4.5800 1.5099 0.7579
4.6000 1.5165 0.7567
4.6200 1.5232 0.7313
4.6400 1.5299 0.7607
4.6600 1.5366 0.7535
4.6800 1.5433 0.7281
4.7000 1.5500 0.7486
4.7200 1.5567 0.7492
4.7400 1.5633 0.7367
4.7600 1.5699 0.7463
4.7800 1.5765 0.7456
4.8000 1.5833 0.7369
4.8200 1.5900 0.7374
4.8400 1.5967 0.7477
4.8600 1.6034 0.7384
4.8800 1.6100 0.7346
4.9000 1.6167 0.7356
4.9200 1.6233 0.7407
4.9400 1.6299 0.7331
4.9600 1.6366 0.7379
4.9800 1.6433 0.7404
5.0000 1.6500 0.7252
5.0200 1.6567 0.7355
5.0400 1.6633 0.7437
5.0600 1.6700 0.7218
5.0800 1.6767 0.7321
5.1000 1.6833 0.7370
5.1200 1.6899 0.7243
5.1400 1.6965 0.7340
5.1600 1.7032 0.7358
5.1800 1.7099 0.7179
5.2000 1.7166 0.7290
5.2200 1.7233 0.7387
5.2400 1.7300 0.7156
5.2600 1.7367 0.7275
5.2800 1.7433 0.7298
5.3000 1.7499 0.7199
5.3200 1.7565 0.7259
5.3400 1.7632 0.7248
5.3600 1.7699 0.7203
5.3800 1.7766 0.7232
5.4000 1.7833 0.7215
5.4200 1.7899 0.7273
5.4400 1.7966 0.7144
5.4600 1.8033 0.7119
5.4800 1.8099 0.7228
5.5000 1.8165 0.7198
5.5200 1.8232 0.7151
5.5400 1.8299 0.7198
5.5600 1.8366 0.7164
5.5800 1.8433 0.7095
5.6000 1.8500 0.7200
5.6200 1.8567 0.7179
5.6400 1.8633 0.7101
5.6600 1.8699 0.7153
5.6800 1.8765 0.7126
5.7000 1.8832 0.7074
5.7200 1.8900 0.7208
5.7400 1.8967 0.7102
5.7600 1.9033 0.7101
5.7800 1.9100 0.7092
5.8000 1.9167 0.7064
5.8200 1.9233 0.7102
5.8400 1.9299 0.7119
5.8600 1.9365 0.7062
5.8800 1.9432 0.7081
5.9000 1.9499 0.7063
5.9200 1.9566 0.7023
5.9400 1.9633 0.7104
5.9600 1.9700 0.7073
5.9800 1.9766 0.6930
6.0000 1.9833 0.7052
6.0200 1.9899 0.7026
6.0400 1.9965 0.6970
6.0600 2.0032 0.7062
6.0800 2.0099 0.6927
6.1000 2.0166 0.6946
6.1200 2.0233 0.7008
6.1400 2.0300 0.6984
6.1600 2.0367 0.6914
6.1800 2.0433 0.6987
6.2000 2.0499 0.6936
6.2200 2.0565 0.6918
6.2400 2.0632 0.6934
6.2600 2.0699 0.6986
6.2800 2.0767 0.6883
6.3000 2.0833 0.6865
6.3200 2.0900 0.6914
6.3400 2.0967 0.6778
6.3600 2.1033 0.6912
6.3800 2.1099 0.6973
6.4000 2.1165 0.6739
6.4200 2.1232 0.6887
6.4400 2.1299 0.6916
6.4600 2.1367 0.6665
6.4800 2.1433 0.6991
6.5000 2.1500 0.6875
6.5200 2.1567 0.6605
6.5400 2.1633 0.6868
6.5600 2.1699 0.6882
6.5800 2.1766 0.6683
6.6000 2.1832 0.6801
6.6200 2.1899 0.6736
6.6400 2.1966 0.6646
6.6600 2.2033 0.6942
6.6800 2.2100 0.6724
6.7000 2.2167 0.6542
6.7200 2.2233 0.6885
6.7400 2.2299 0.6660
6.7600 2.2365 0.6581
6.7800 2.2432 0.6880
6.8000 2.2499 0.6717
6.8200 2.2566 0.6513
6.8400 2.2633 0.6710
6.8600 2.2700 0.6738
6.8800 2.2767 0.6638
6.9000 2.2833 0.6748
6.9200 2.2899 0.6543
6.9400 2.2965 0.6601
6.9600 2.3032 0.6750
6.9800 2.3099 0.6616
7.0000 2.3166 0.6574
7.0200 2.3233 0.6686
7.0400 2.3300 0.6600
7.0600 2.3367 0.6556
7.0800 2.3433 0.6661
7.1000 2.3500 0.6586
7.1200 2.3566 0.6555
7.1400 2.3632 0.6622
7.1600 2.3699 0.6554
7.1800 2.3766 0.6525
7.2000 2.3833 0.6624
7.2200 2.3900 0.6552
7.2400 2.3967 0.6592
7.2600 2.4033 0.6573
7.2800 2.4099 0.6433
7.3000 2.4165 0.6602
7.3200 2.4232 0.6662
7.3400 2.4299 0.6427
7.3600 2.4366 0.6515
7.3800 2.4433 0.6569
7.4000 2.4500 0.6491
7.4200 2.4567 0.6502
7.4400 2.4633 0.6566
7.4600 2.4699 0.6465
7.4800 2.4765 0.6497
7.5000 2.4832 0.6472
7.5200 2.4899 0.6533
7.5400 2.4966 0.6498
7.5600 2.5033 0.6416
7.5800 2.5099 0.6486
7.6000 2.5166 0.6457
7.6200 2.5233 0.6399
7.6400 2.5299 0.6546
7.6600 2.5366 0.6441
7.6800 2.5432 0.6350
7.7000 2.5499 0.6453
7.7200 2.5566 0.6433
7.7400 2.5633 0.6470
7.7600 2.5700 0.6423
7.7800 2.5767 0.6312
7.8000 2.5833 0.6389
7.8200 2.5899 0.6526
7.8400 2.5965 0.6309
7.8600 2.6032 0.6380
7.8800 2.6100 0.6446
7.9000 2.6167 0.6277
7.9200 2.6233 0.6374
7.9400 2.6300 0.6389
7.9600 2.6367 0.6315
7.9800 2.6433 0.6353
8.0000 2.6499 0.6358
8.0200 2.6565 0.6288
8.0400 2.6632 0.6422
8.0600 2.6699 0.6358
8.0800 2.6766 0.6195
8.1000 2.6833 0.6366
8.1200 2.6900 0.6320
8.1400 2.6966 0.6217
8.1600 2.7033 0.6327
8.1800 2.7099 0.6278
8.2000 2.7165 0.6234
8.2200 2.7232 0.6308
8.2400 2.7299 0.6298
8.2600 2.7366 0.6225
8.2800 2.7433 0.6278
8.3000 2.7500 0.6223
8.3200 2.7567 0.6250
8.3400 2.7633 0.6244
8.3600 2.7699 0.6215
8.3800 2.7766 0.6194
8.4000 2.7832 0.6272
8.4200 2.7899 0.6151
8.4400 2.7966 0.6198
8.4600 2.8033 0.6212
8.4800 2.8100 0.6167
8.5000 2.8167 0.6187
8.5200 2.8233 0.6176
8.5400 2.8299 0.6131
8.5600 2.8366 0.6169
8.5800 2.8432 0.6227
8.6000 2.8499 0.6140
8.6200 2.8566 0.6142
8.6400 2.8633 0.6057
8.6600 2.8700 0.6218
8.6800 2.8767 0.6201
8.7000 2.8834 0.5994
8.7200 2.8900 0.6080
8.7400 2.8966 0.6219
8.7600 2.9032 0.6132
8.7800 2.9099 0.6078
8.8000 2.9166 0.6085
8.8200 2.9233 0.6116
8.8400 2.9300 0.6030
8.8600 2.9366 0.6100
8.8800 2.9433 0.6095
8.9000 2.9499 0.6090
8.9200 2.9565 0.6005
8.9400 2.9631 0.6057
8.9600 2.9698 0.6166
8.9800 2.9766 0.5982
9.0000 2.9832 0.6058
9.0200 2.9899 0.6044
9.0400 2.9966 0.5994
9.0600 3.0033 0.6077
9.0800 3.0099 0.6089
9.1000 3.0166 0.5943
9.1200 3.0232 0.6065
9.1400 3.0299 0.5958
9.1600 3.0366 0.5985
9.1800 3.0433 0.6095
9.2000 3.0500 0.5941
9.2200 3.0567 0.5960
9.2400 3.0634 0.6065
9.2600 3.0700 0.5882
9.2800 3.0766 0.5978
9.3000 3.0832 0.6039
9.3200 3.0899 0.5884
9.3400 3.0966 0.5978
9.3600 3.1033 0.5975
9.3800 3.1100 0.5895
9.4000 3.1167 0.5978
9.4200 3.1234 0.5981
9.4400 3.1299 0.5823
9.4600 3.1365 0.6037
9.4800 3.1432 0.5933
9.5000 3.1499 0.5847
9.5200 3.1566 0.5957
9.5400 3.1633 0.5874
9.5600 3.1700 0.5859
9.5800 3.1766 0.5969
9.6000 3.1833 0.5850
9.6200 3.1900 0.5827
9.6400 3.1966 0.5934
9.6600 3.2032 0.5849
9.6800 3.2099 0.5838
9.7000 3.2166 0.5950
9.7200 3.2233 0.5791
9.7400 3.2299 0.5851
9.7600 3.2366 0.5887
9.7800 3.2433 0.5792
9.8000 3.2499 0.5850
9.8200 3.2565 0.5870
9.8400 3.2632 0.5824
9.8600 3.2699 0.5835
9.8800 3.2766 0.5875
9.9000 3.2833 0.5740
9.9200 3.2900 0.5792
9.9400 3.2967 0.5841
9.9600 3.3033 0.5732
9.9800 3.3100 0.5761
10.0000 3.3166 0.5841
10.0200 3.3232 0.5728
10.0400 3.3300 0.5768
10.0600 3.3367 0.5820
10.0800 3.3434 0.5695
10.1000 3.3500 0.5774
10.1200 3.3567 0.5792
10.1400 3.3633 0.5630
10.1600 3.3699 0.5752
10.1800 3.3766 0.5771
10.2000 3.3832 0.5677
10.2200 3.3899 0.5732
10.2400 3.3966 0.5720
10.2600 3.4033 0.5640
10.2800 3.4099 0.5705
10.3000 3.4166 0.5718
10.3200 3.4233 0.5584
10.3400 3.4299 0.5720
10.3600 3.4365 0.5666
10.3800 3.4432 0.5585
10.4000 3.4499 0.5662
10.4200 3.4566 0.5663
10.4400 3.4633 0.5574
10.4600 3.4700 0.5627
10.4800 3.4766 0.5656
10.5000 3.4833 0.5553
10.5200 3.4899 0.5591
10.5400 3.4966 0.5691
10.5600 3.5032 0.5559
10.5800 3.5099 0.5617
10.6000 3.5166 0.5618
10.6200 3.5233 0.5505
10.6400 3.5300 0.5547
10.6600 3.5367 0.5644
10.6800 3.5434 0.5526
10.7000 3.5500 0.5464
10.7200 3.5566 0.5565
10.7400 3.5632 0.5526
10.7600 3.5699 0.5600
10.7800 3.5766 0.5500
10.8000 3.5833 0.5426
10.8200 3.5900 0.5570
10.8400 3.5967 0.5508
10.8600 3.6033 0.5381
10.8800 3.6100 0.5554
10.9000 3.6166 0.5531
10.9200 3.6232 0.5391
10.9400 3.6299 0.5480
10.9600 3.6366 0.5502
10.9800 3.6433 0.5398
11.0000 3.6500 0.5481
11.0200 3.6567 0.5493
11.0400 3.6633 0.5441
11.0600 3.6700 0.5448
11.0800 3.6766 0.5434
11.1000 3.6832 0.5423
11.1200 3.6899 0.5391
11.1400 3.6966 0.5482
11.1600 3.7033 0.5451
11.1800 3.7099 0.5378
11.2000 3.7166 0.5422
11.2200 3.7233 0.5462
11.2400 3.7299 0.5349
11.2600 3.7366 0.5400
11.2800 3.7432 0.5432
11.3000 3.7499 0.5316
11.3200 3.7566 0.5376
11.3400 3.7633 0.5413
11.3600 3.7700 0.5328
11.3800 3.7767 0.5403
11.4000 3.7834 0.5309
11.4200 3.7900 0.5307
11.4400 3.7966 0.5395
11.4600 3.8032 0.5338
11.4800 3.8099 0.5348
11.5000 3.8166 0.5340
11.5200 3.8233 0.5282
11.5400 3.8300 0.5333
11.5600 3.8367 0.5347
11.5800 3.8433 0.5285
11.6000 3.8500 0.5340
11.6200 3.8566 0.5288
11.6400 3.8632 0.5274
11.6600 3.8699 0.5308
11.6800 3.8766 0.5286
11.7000 3.8832 0.5265
11.7200 3.8899 0.5288
11.7400 3.8966 0.5244
11.7600 3.9033 0.5281
11.7800 3.9100 0.5280
11.8000 3.9166 0.5249
11.8200 3.9232 0.5264
11.8400 3.9298 0.5263
11.8600 3.9365 0.5235
11.8800 3.9432 0.5213
11.9000 3.9499 0.5208
11.9200 3.9566 0.5253
11.9400 3.9633 0.5200
11.9600 3.9700 0.5185
11.9800 3.9766 0.5256
12.0000 3.9832 0.5176
12.0200 3.9899 0.5191
12.0400 3.9966 0.5191
12.0600 4.0033 0.5187
12.0800 4.0100 0.5179
12.1000 4.0167 0.5159
12.1200 4.0233 0.5135
12.1400 4.0300 0.5179
12.1600 4.0366 0.5096
12.1800 4.0433 0.5169
12.2000 4.0499 0.5140
12.2200 4.0566 0.5106
12.2400 4.0633 0.5143
12.2600 4.0700 0.5145
12.2800 4.0767 0.5098
12.3000 4.0834 0.5144
12.3200 4.0900 0.5108
12.3400 4.0966 0.5067
12.3600 4.1032 0.5122
12.3800 4.1098 0.5005
12.4000 4.1166 0.5114
12.4200 4.1233 0.5128
12.4400 4.1300 0.5015
12.4600 4.1366 0.5065
12.4800 4.1433 0.5076
12.5000 4.1500 0.5022
12.5200 4.1566 0.5091
12.5400 4.1632 0.5053
12.5600 4.1698 0.5067
12.5800 4.1766 0.5073
12.6000 4.1833 0.5023
12.6200 4.1900 0.5042
12.6400 4.1966 0.5062
12.6600 4.2033 0.4963
12.6800 4.2100 0.5010
12.7000 4.2166 0.4998
12.7200 4.2232 0.5017
12.7400 4.2299 0.5036
12.7600 4.2366 0.4919
12.7800 4.2433 0.5019
12.8000 4.2500 0.4994
12.8200 4.2567 0.4925
12.8400 4.2634 0.4978
12.8600 4.2700 0.4994
12.8800 4.2766 0.4926
12.9000 4.2832 0.4979
12.9200 4.2899 0.4948
12.9400 4.2966 0.4924
12.9600 4.3033 0.4997
12.9800 4.3100 0.4933
13.0000 4.3167 0.4864
13.0200 4.3234 0.4967
13.0400 4.3300 0.4902
13.0600 4.3366 0.4918
13.0800 4.3432 0.4952
13.1000 4.3499 0.4884
13.1200 4.3566 0.4946
13.1400 4.3633 0.4931
13.1600 4.3700 0.4825
13.1800 4.3766 0.4919
13.2000 4.3833 0.4880
13.2200 4.3900 0.4853
13.2400 4.3966 0.4910
13.2600 4.4032 0.4798
13.2800 4.4098 0.4897
13.3000 4.4165 0.4900
13.3200 4.4232 0.4814
13.3400 4.4299 0.4813
13.3600 4.4366 0.4914
13.3800 4.4433 0.4758
13.4000 4.4500 0.4851
13.4200 4.4566 0.4842
13.4400 4.4632 0.4800
13.4600 4.4699 0.4855
13.4800 4.4766 0.4821
13.5000 4.4833 0.4749
13.5200 4.4900 0.4827
13.5400 4.4967 0.4792
13.5600 4.5034 0.4760
13.5800 4.5100 0.4793
13.6000 4.5166 0.4765
13.6200 4.5232 0.4771
13.6400 4.5299 0.4820
13.6600 4.5366 0.4750
13.6800 4.5433 0.4742
13.7000 4.5500 0.4802
13.7200 4.5566 0.4694
13.7400 4.5633 0.4795
13.7600 4.5700 0.4684
13.7800 4.5766 0.4691
13.8000 4.5832 0.4798
13.8200 4.5898 0.4714
13.8400 4.5965 0.4663
13.8600 4.6033 0.4723
13.8800 4.6099 0.4717
13.9000 4.6166 0.4659
13.9200 4.6233 0.4771
13.9400 4.6300 0.4670
13.9600 4.6366 0.4577
13.9800 4.6432 0.4760
14.0000 4.6498 0.4690
14.0200 4.6565 0.4573
14.0400 4.6633 0.4734
14.0600 4.6700 0.4614
14.0800 4.6766 0.4573
14.1000 4.6833 0.4754
14.1200 4.6900 0.4592
14.1400 4.6966 0.4561
14.1600 4.7032 0.4735
14.1800 4.7099 0.4587
14.2000 4.7166 0.4596
14.2200 4.7233 0.4717
14.2400 4.7300 0.4570
14.2600 4.7367 0.4591
14.2800 4.7433 0.4669
14.3000 4.7500 0.4498
14.3200 4.7566 0.4579
14.3400 4.7632 0.4660
14.3600 4.7699 0.4522
14.3800 4.7766 0.4553
14.4000 4.7833 0.4660
14.4200 4.7900 0.4475
14.4400 4.7967 0.4531
14.4600 4.8034 0.4641
14.4800 4.8100 0.4475
14.5000 4.8166 0.4504
14.5200 4.8232 0.4596
14.5400 4.8298 0.4514
14.5600 4.8365 0.4503
14.5800 4.8432 0.4560
14.6000 4.8499 0.4515
14.6200 4.8566 0.4512
14.6400 4.8633 0.4498
14.6600 4.8700 0.4519
14.6800 4.8766 0.4489
14.7000 4.8832 0.4478
14.7200 4.8898 0.4464
14.7400 4.8965 0.4498
14.7600 4.9032 0.4442
14.7800 4.9099 0.4467
14.8000 4.9166 0.4462
14.8200 4.9233 0.4455
14.8400 4.9300 0.4447
14.8600 4.9366 0.4408
14.8800 4.9432 0.4453
14.9000 4.9499 0.4478
14.9200 4.9566 0.4407
14.9400 4.9633 0.4404
14.9600 4.9700 0.4466
14.9800 4.9767 0.4359
15.0000 4.9834 0.4460
15.0200 4.9900 0.4413
15.0400 4.9966 0.4329
15.0600 5.0032 0.4429
15.0800 5.0098 0.4419
15.1000 5.0165 0.4352
15.1200 5.0233 0.4393
15.1400 5.0300 0.4335
15.1600 5.0367 0.4351
15.1800 5.0433 0.4403
15.2000 5.0500 0.4319
15.2200 5.0566 0.4293
15.2400 5.0633 0.4377
15.2600 5.0699 0.4275
15.2800 5.0766 0.4318
15.3000 5.0833 0.4380
15.3200 5.0900 0.4279
15.3400 5.0966 0.4301
15.3600 5.1033 0.4312
15.3800 5.1100 0.4229
15.4000 5.1166 0.4276
15.4200 5.1232 0.4321
15.4400 5.1298 0.4215
15.4600 5.1365 0.4278
15.4800 5.1432 0.4271
15.5000 5.1499 0.4228
15.5200 5.1566 0.4249
15.5400 5.1633 0.4217
15.5600 5.1700 0.4197
15.5800 5.1766 0.4311
15.6000 5.1832 0.4186
15.6200 5.1898 0.4167
15.6400 5.1965 0.4235
15.6600 5.2033 0.4188
15.6800 5.2100 0.4202
15.7000 5.2167 0.4205
15.7200 5.2233 0.4130
15.7400 5.2300 0.4166
15.7600 5.2367 0.4240
15.7800 5.2433 0.4145
15.8000 5.2499 0.4133
15.8200 5.2566 0.4153
15.8400 5.2633 0.4103
15.8600 5.2700 0.4144
15.8800 5.2767 0.4171
15.9000 5.2834 0.4089
15.9200 5.2900 0.4121
15.9400 5.2967 0.4084
15.9600 5.3032 0.4137
15.9800 5.3099 0.4124
16.0000 5.3165 0.4088
16.0200 5.3232 0.4072
16.0400 5.3300 0.4121
16.0600 5.3366 0.4095
16.0800 5.3433 0.4113
16.1000 5.3500 0.4059
16.1200 5.3566 0.4071
16.1400 5.3632 0.4115
16.1600 5.3699 0.4028
16.1800 5.3766 0.4065
16.2000 5.3833 0.4106
16.2200 5.3900 0.3988
16.2400 5.3966 0.4047
16.2600 5.4033 0.4109
16.2800 5.4100 0.3991
16.3000 5.4166 0.4049
16.3200 5.4233 0.4043
16.3400 5.4299 0.3989
16.3600 5.4366 0.4041
16.3800 5.4433 0.4107
16.4000 5.4500 0.3936
16.4200 5.4566 0.4051
16.4400 5.4633 0.4044
16.4600 5.4700 0.3881
16.4800 5.4767 0.4026
16.5000 5.4833 0.4036
16.5200 5.4899 0.3926
16.5400 5.4965 0.4025
16.5600 5.5033 0.3968
16.5800 5.5100 0.3893
16.6000 5.5167 0.4063
16.6200 5.5233 0.3939
16.6400 5.5300 0.3876
16.6600 5.5366 0.4019
16.6800 5.5432 0.3987
16.7000 5.5499 0.3822
16.7200 5.5565 0.4047
16.7400 5.5633 0.3959
16.7600 5.5700 0.3845
16.7800 5.5766 0.4009
16.8000 5.5833 0.3924
16.8200 5.5900 0.3850
16.8400 5.5966 0.4009
16.8600 5.6033 0.3878
16.8800 5.6099 0.3867
16.9000 5.6165 0.3955
16.9200 5.6232 0.3843
16.9400 5.6299 0.3865
16.9600 5.6366 0.3933
16.9800 5.6433 0.3865
17.0000 5.6500 0.3873
17.0200 5.6567 0.3886
17.0400 5.6633 0.3825
17.0600 5.6699 0.3895
17.0800 5.6765 0.3835
17.1000 5.6833 0.3781
17.1200 5.6900 0.3861
17.1400 5.6967 0.3849
17.1600 5.7034 0.3768
17.1800 5.7100 0.3897
17.2000 5.7167 0.3773
17.2200 5.7233 0.3788
17.2400 5.7299 0.3868
17.2600 5.7366 0.3760
17.2800 5.7433 0.3806
17.3000 5.7500 0.3855
17.3200 5.7567 0.3735
17.3400 5.7633 0.3782
17.3600 5.7700 0.3844
17.3800 5.7767 0.3715
17.4000 5.7833 0.3788
17.4200 5.7899 0.3792
17.4400 5.7965 0.3694
17.4600 5.8032 0.3791
17.4800 5.8099 0.3792
17.5000 5.8166 0.3661
17.5200 5.8233 0.3761
17.5400 5.8300 0.3747
17.5600 5.8366 0.3615
17.5800 5.8432 0.3750
17.6000 5.8498 0.3813
17.6200 5.8565 0.3601
17.6400 5.8632 0.3718
17.6600 5.8699 0.3738
17.6800 5.8766 0.3609
17.7000 5.8833 0.3740
17.7200 5.8900 0.3702
17.7400 5.8966 0.3583
17.7600 5.9033 0.3745
17.7800 5.9099 0.3671
17.8000 5.9166 0.3641
17.8200 5.9233 0.3716
17.8400 5.9300 0.3608
17.8600 5.9367 0.3615
17.8800 5.9433 0.3708
17.9000 5.9500 0.3609
17.9200 5.9567 0.3614
17.9400 5.9633 0.3720
17.9600 5.9699 0.3582
17.9800 5.9766 0.3642
18.0000 5.9833 0.3649
18.0200 5.9900 0.3602
18.0400 5.9967 0.3615
18.0600 6.0034 0.3662
18.0800 6.0100 0.3572
18.1000 6.0167 0.3607
18.1200 6.0233 0.3630
18.1400 6.0299 0.3563
18.1600 6.0365 0.3618
18.1800 6.0432 0.3611
18.2000 6.0499 0.3531
18.2200 6.0566 0.3600
18.2400 6.0633 0.3536
18.2600 6.0700 0.3548
18.2800 6.0767 0.3600
18.3000 6.0833 0.3534
18.3200 6.0899 0.3533
18.3400 6.0965 0.3594
18.3600 6.1032 0.3473
18.3800 6.1099 0.3521
18.4000 6.1166 0.3626
18.4200 6.1233 0.3447
18.4400 6.1300 0.3543
18.4600 6.1366 0.3560
18.4800 6.1433 0.3416
18.5000 6.1499 0.3506
18.5200 6.1565 0.3614
18.5400 6.1632 0.3417
18.5600 6.1700 0.3504
18.5800 6.1767 0.3547
18.6000 6.1833 0.3409
18.6200 6.1900 0.3497
18.6400 6.1967 0.3550
18.6600 6.2033 0.3379
18.6800 6.2099 0.3494
18.7000 6.2165 0.3524
18.7200 6.2233 0.3386
18.7400 6.2300 0.3465
18.7600 6.2367 0.3450
18.7800 6.2433 0.3383
18.8000 6.2500 0.3475
18.8200 6.2567 0.3440
18.8400 6.2633 0.3307
18.8600 6.2699 0.3480
18.8800 6.2766 0.3435
18.9000 6.2833 0.3333
18.9200 6.2900 0.3461
18.9400 6.2966 0.3379
18.9600 6.3033 0.3309
18.9800 6.3100 0.3425
19.0000 6.3166 0.3351
19.0200 6.3233 0.3350
19.0400 6.3299 0.3408
19.0600 6.3365 0.3379
19.0800 6.3432 0.3374
19.1000 6.3499 0.3366
19.1200 6.3566 0.3312
19.1400 6.3633 0.3351
19.1600 6.3700 0.3348
19.1800 6.3766 0.3289
19.2000 6.3833 0.3381
19.2200 6.3899 0.3294
19.2400 6.3965 0.3334
19.2600 6.4032 0.3318
19.2800 6.4100 0.3275
19.3000 6.4167 0.3302
19.3200 6.4233 0.3298
19.3400 6.4300 0.3238
19.3600 6.4367 0.3308
19.3800 6.4433 0.3333
19.4000 6.4499 0.3219
19.4200 6.4566 0.3284
19.4400 6.4633 0.3319
19.4600 6.4700 0.3215
19.4800 6.4766 0.3347
19.5000 6.4833 0.3243
19.5200 6.4900 0.3198
19.5400 6.4967 0.3291
19.5600 6.5033 0.3197
19.5800 6.5099 0.3217
19.6000 6.5165 0.3312
19.6200 6.5232 0.3184
19.6400 6.5299 0.3176
19.6600 6.5366 0.3271
19.6800 6.5433 0.3131
19.7000 6.5500 0.3192
19.7200 6.5567 0.3278
19.7400 6.5633 0.3120
19.7600 6.5699 0.3200
19.7800 6.5765 0.3244
19.8000 6.5832 0.3126
19.8200 6.5899 0.3240
19.8400 6.5966 0.3169
19.8600 6.6033 0.3150
19.8800 6.6099 0.3194
19.9000 6.6166 0.3152
19.9200 6.6233 0.3114
19.9400 6.6299 0.3220
19.9600 6.6365 0.3136
19.9800 6.6432 0.3096
20.0000 6.6499 0.3145
20.0200 6.6566 0.3082
20.0400 6.6633 0.3117
20.0600 6.6700 0.3114
20.0800 6.6767 0.3130
20.1000 6.6833 0.3084
20.1200 6.6899 0.3056
20.1400 6.6966 0.3119
20.1600 6.7033 0.3123
20.1800 6.7100 0.3022
20.2000 6.7167 0.3093
20.2200 6.7234 0.3085
20.2400 6.7300 0.3009
20.2600 6.7367 0.3068
20.2800 6.7433 0.3022
20.3000 6.7499 0.3028
20.3200 6.7565 0.3119
20.3400 6.7632 0.2970
20.3600 6.7699 0.2987
20.3800 6.7766 0.3167
20.4000 6.7833 0.2947
20.4200 6.7899 0.2997
20.4400 6.7966 0.3104
20.4600 6.8033 0.2905
20.4800 6.8099 0.3035
20.5000 6.8165 0.3104
20.5200 6.8232 0.2868
20.5400 6.8299 0.3083
20.5600 6.8366 0.3048
20.5800 6.8433 0.2789
20.6000 6.8500 0.3070
20.6200 6.8567 0.3001
20.6400 6.8633 0.2800
20.6600 6.8699 0.3097
20.6800 6.8766 0.2945
20.7000 6.8832 0.2860
20.7200 6.8900 0.3071
20.7400 6.8967 0.2935
20.7600 6.9033 0.2880
20.7800 6.9100 0.3045
20.8000 6.9167 0.2847
20.8200 6.9233 0.2885
20.8400 6.9299 0.3011
20.8600 6.9365 0.2892
20.8800 6.9432 0.2888
20.9000 6.9499 0.2938
20.9200 6.9567 0.2851
20.9400 6.9633 0.2915
20.9600 6.9700 0.2940
20.9800 6.9767 0.2837
21.0000 6.9833 0.2944
21.0200 6.9900 0.2828
21.0400 6.9966 0.2866
21.0600 7.0032 0.2899
21.0800 7.0099 0.2806
21.1000 7.0166 0.2937
21.1200 7.0233 0.2912
21.1400 7.0300 0.2739
21.1600 7.0367 0.2889
21.1800 7.0433 0.2867
21.2000 7.0499 0.2722
21.2200 7.0565 0.2902
21.2400 7.0632 0.2868
21.2600 7.0699 0.2722
21.2800 7.0766 0.2853
21.3000 7.0833 0.2798
21.3200 7.0899 0.2779
21.3400 7.0966 0.2912
21.3600 7.1033 0.2718
21.3800 7.1099 0.2772
21.4000 7.1165 0.2897
21.4200 7.1232 0.2711
21.4400 7.1299 0.2773
21.4600 7.1366 0.2859
21.4800 7.1433 0.2665
21.5000 7.1500 0.2782
21.5200 7.1567 0.2802
21.5400 7.1633 0.2677
21.5600 7.1700 0.2837
21.5800 7.1766 0.2780
21.6000 7.1832 0.2678
21.6200 7.1899 0.2820
21.6400 7.1966 0.2676
21.6600 7.2033 0.2710
21.6800 7.2100 0.2825
21.7000 7.2167 0.2640
21.7200 7.2233 0.2683
21.7400 7.2299 0.2765
21.7600 7.2365 0.2656
21.7800 7.2432 0.2701
21.8000 7.2499 0.2735
21.8200 7.2566 0.2606
21.8400 7.2633 0.2748
21.8600 7.2700 0.2676
21.8800 7.2767 0.2630
21.9000 7.2833 0.2726
21.9200 7.2899 0.2618
21.9400 7.2965 0.2610
21.9600 7.3032 0.2752
21.9800 7.3099 0.2583
22.0000 7.3166 0.2638
22.0200 7.3233 0.2680
22.0400 7.3299 0.2572
22.0600 7.3366 0.2653
22.0800 7.3433 0.2690
22.1000 7.3499 0.2527
22.1200 7.3565 0.2669
22.1400 7.3632 0.2632
22.1600 7.3699 0.2525
22.1800 7.3766 0.2686
22.2000 7.3833 0.2571
22.2200 7.3900 0.2549
22.2400 7.3967 0.2598
22.2600 7.4033 0.2590
22.2800 7.4099 0.2589
22.3000 7.4166 0.2596
22.3200 7.4232 0.2544
22.3400 7.4299 0.2496
22.3600 7.4367 0.2583
22.3800 7.4433 0.2554
22.4000 7.4500 0.2478
22.4200 7.4567 0.2576
22.4400 7.4633 0.2513
22.4600 7.4699 0.2497
22.4800 7.4765 0.2569
22.5000 7.4832 0.2574
22.5200 7.4899 0.2490
22.5400 7.4966 0.2489
22.5600 7.5033 0.2527
22.5800 7.5100 0.2490
22.6000 7.5167 0.2479
22.6200 7.5233 0.2462
22.6400 7.5299 0.2504
22.6600 7.5365 0.2439
22.6800 7.5432 0.2546
22.7000 7.5499 0.2460
22.7200 7.5566 0.2411
22.7400 7.5633 0.2508
22.7600 7.5700 0.2439
22.7800 7.5767 0.2396
22.8000 7.5833 0.2477
22.8200 7.5899 0.2449
22.8400 7.5965 0.2427
22.8600 7.6032 0.2449
22.8800 7.6099 0.2413
22.9000 7.6166 0.2398
22.9200 7.6233 0.2508
22.9400 7.6300 0.2376
22.9600 7.6367 0.2382
22.9800 7.6434 0.2477
23.0000 7.6500 0.2369
23.0200 7.6566 0.2383
23.0400 7.6632 0.2456
23.0600 7.6699 0.2376
23.0800 7.6766 0.2350
23.1000 7.6833 0.2452
23.1200 7.6900 0.2348
23.1400 7.6967 0.2368
23.1600 7.7034 0.2406
23.1800 7.7100 0.2347
23.2000 7.7166 0.2354
23.2200 7.7232 0.2404
23.2400 7.7299 0.2352
23.2600 7.7366 0.2327
23.2800 7.7433 0.2381
23.3000 7.7500 0.2382
23.3200 7.7567 0.2284
23.3400 7.7633 0.2377
23.3600 7.7699 0.2313
23.3800 7.7765 0.2292
23.4000 7.7832 0.2399
23.4200 7.7899 0.2307
23.4400 7.7966 0.2255
23.4600 7.8032 0.2376
23.4800 7.8099 0.2292
23.5000 7.8166 0.2249
23.5200 7.8233 0.2365
23.5400 7.8299 0.2289
23.5600 7.8366 0.2235
23.5800 7.8432 0.2306
23.6000 7.8499 0.2308
23.6200 7.8566 0.2244
23.6400 7.8633 0.2271
23.6600 7.8700 0.2260
23.6800 7.8767 0.2240
23.7000 7.8834 0.2287
23.7200 7.8900 0.2254
23.7400 7.8966 0.2191
23.7600 7.9032 0.2280
23.7800 7.9099 0.2248
23.8000 7.9166 0.2194
23.8200 7.9233 0.2230
23.8400 7.9300 0.2268
23.8600 7.9367 0.2186
23.8800 7.9434 0.2202
23.9000 7.9500 0.2249
23.9200 7.9566 0.2169
23.9400 7.9632 0.2185
23.9600 7.9699 0.2215
23.9800 7.9766 0.2138
24.0000 7.9833 0.2201
24.0200 7.9900 0.2235
24.0400 7.9966 0.2139
24.0600 8.0033 0.2208
24.0800 8.0100 0.2196
24.1000 8.0166 0.2117
24.1200 8.0232 0.2185
24.1400 8.0299 0.2235
24.1600 8.0366 0.2078
24.1800 8.0433 0.2183
24.2000 8.0499 0.2194
24.2200 8.0566 0.2061
24.2400 8.0633 0.2163
24.2600 8.0700 0.2146
24.2800 8.0766 0.2069
24.3000 8.0832 0.2197
24.3200 8.0899 0.2111
24.3400 8.0966 0.2086
24.3600 8.1033 0.2181
24.3800 8.1100 0.2037
24.4000 8.1167 0.2075
24.4200 8.1234 0.2168
24.4400 8.1300 0.2050
24.4600 8.1366 0.2086
24.4800 8.1432 0.2126
24.5000 8.1499 0.2004
24.5200 8.1566 0.2092
24.5400 8.1633 0.2091
24.5600 8.1700 0.2021
24.5800 8.1767 0.2090
24.6000 8.1833 0.2094
24.6200 8.1900 0.1983
24.6400 8.1966 0.2101
24.6600 8.2032 0.2089
24.6800 8.2099 0.2030
24.7000 8.2166 0.2087
24.7200 8.2233 0.1997
24.7400 8.2299 0.2031
24.7600 8.2366 0.2065
24.7800 8.2433 0.1998
24.8000 8.2500 0.2042
24.8200 8.2565 0.2018
24.8400 8.2632 0.1964
24.8600 8.2699 0.2030
24.8800 8.2766 0.2032
24.9000 8.2833 0.1949
24.9200 8.2900 0.1993
24.9400 8.2966 0.2004
24.9600 8.3033 0.1955
24.9800 8.3100 0.2010
25.0000 8.3166 0.1937
25.0200 8.3232 0.1958
25.0400 8.3299 0.1961
25.0600 8.3366 0.1963
25.0800 8.3433 0.1972
25.1000 8.3500 0.1951
25.1200 8.3567 0.1948
25.1400 8.3633 0.1923
25.1600 8.3700 0.1908
25.1800 8.3766 0.1948
25.2000 8.3832 0.1951
25.2200 8.3899 0.1879
25.2400 8.3966 0.1905
25.2600 8.4033 0.1933
25.2800 8.4100 0.1916
25.3000 8.4167 0.1859
25.3200 8.4233 0.1919
25.3400 8.4300 0.1841
25.3600 8.4366 0.1926
25.3800 8.4432 0.1903
25.4000 8.4499 0.1856
25.4200 8.4566 0.1896
25.4400 8.4633 0.1903
25.4600 8.4700 0.1848
25.4800 8.4766 0.1903
25.5000 8.4833 0.1836
25.5200 8.4900 0.1839
25.5400 8.4966 0.1848
25.5600 8.5032 0.1862
25.5800 8.5098 0.1854
25.6000 8.5166 0.1851
25.6200 8.5233 0.1855
25.6400 8.5299 0.1821
25.6600 8.5366 0.1836
25.6800 8.5433 0.1780
25.7000 8.5500 0.1793
25.7200 8.5566 0.1779
25.7400 8.5632 0.1805
25.7600 8.5699 0.1810
25.7800 8.5766 0.1789
25.8000 8.5833 0.1756
25.8200 8.5900 0.1800
25.8400 8.5967 0.1755
25.8600 8.6034 0.1761
25.8800 8.6100 0.1794
25.9000 8.6166 0.1751
25.9200 8.6232 0.1766
25.9400 8.6299 0.1785
25.9600 8.6366 0.1740
25.9800 8.6433 0.1735
26.0000 8.6500 0.1718
26.0200 8.6567 0.1716
26.0400 8.6634 0.1764
26.0600 8.6700 0.1722
26.0800 8.6766 0.1751
26.1000 8.6832 0.1702
26.1200 8.6899 0.1698
26.1400 8.6966 0.1748
26.1600 8.7033 0.1713
26.1800 8.7099 0.1685
26.2000 8.7166 0.1733
26.2200 8.7233 0.1631
26.2400 8.7300 0.1699
26.2600 8.7366 0.1747
26.2800 8.7432 0.1629
26.3000 8.7498 0.1699
26.3200 8.7565 0.1712
26.3400 8.7632 0.1578
26.3600 8.7699 0.1693
26.3800 8.7766 0.1714
26.4000 8.7833 0.1600
26.4200 8.7900 0.1705
26.4400 8.7966 0.1659
26.4600 8.8032 0.1590
26.4800 8.8099 0.1654
26.5000 8.8166 0.1638
26.5200 8.8233 0.1615
26.5400 8.8300 0.1674
26.5600 8.8367 0.1591
26.5800 8.8434 0.1604
26.6000 8.8500 0.1631
26.6200 8.8566 0.1663
26.6400 8.8633 0.1613
26.6600 8.8699 0.1588
26.6800 8.8766 0.1594
26.7000 8.8833 0.1630
26.7200 8.8900 0.1553
26.7400 8.8967 0.1632
26.7600 8.9034 0.1569
26.7800 8.9100 0.1545
26.8000 8.9166 0.1609
26.8200 8.9232 0.1586
26.8400 8.9299 0.1542
26.8600 8.9366 0.1569
26.8800 8.9433 0.1552
26.9000 8.9500 0.1527
26.9200 8.9567 0.1567
26.9400 8.9633 0.1565
26.9600 8.9700 0.1516
26.9800 8.9766 0.1556
27.0000 8.9832 0.1578
27.0200 8.9898 0.1509
27.0400 8.9965 0.1552
27.0600 9.0033 0.1483
27.0800 9.0099 0.1493
27.1000 9.0166 0.1580
27.1200 9.0233 0.1516
27.1400 9.0300 0.1420
27.1600 9.0366 0.1532
27.1800 9.0432 0.1503
27.2000 9.0499 0.1494
27.2200 9.0566 0.1519
27.2400 9.0633 0.1470
27.2600 9.0700 0.1412
27.2800 9.0767 0.1481
27.3000 9.0834 0.1414
27.3200 9.0900 0.1421
27.3400 9.0966 0.1537
27.3600 9.1032 0.1378
27.3800 9.1099 0.1417
27.4000 9.1166 0.1516
27.4200 9.1233 0.1433
27.4400 9.1300 0.1356
27.4600 9.1367 0.1514
27.4800 9.1434 0.1402
27.5000 9.1500 0.1387
27.5200 9.1566 0.1492
27.5400 9.1632 0.1362
27.5600 9.1699 0.1381
27.5800 9.1766 0.1488
27.6000 9.1833 0.1313
27.6200 9.1900 0.1425
27.6400 9.1966 0.1465
27.6600 9.2033 0.1344
27.6800 9.2100 0.1366
27.7000 9.2166 0.1415
27.7200 9.2232 0.1348
27.7400 9.2298 0.1398
27.7600 9.2365 0.1390
27.7800 9.2432 0.1284
27.8000 9.2499 0.1387
27.8200 9.2566 0.1352
27.8400 9.2633 0.1322
27.8600 9.2700 0.1336
27.8800 9.2766 0.1334
27.9000 9.2832 0.1317
27.9200 9.2899 0.1357
27.9400 9.2966 0.1326
27.9600 9.3033 0.1350
27.9800 9.3100 0.1295
28.0000 9.3167 0.1279
28.0200 9.3234 0.1313
28.0400 9.3300 0.1315
28.0600 9.3366 0.1285
28.0800 9.3432 0.1299
28.1000 9.3499 0.1299
28.1200 9.3566 0.1273
28.1400 9.3633 0.1320
28.1600 9.3700 0.1281
28.1800 9.3767 0.1243
28.2000 9.3833 0.1285
28.2200 9.3900 0.1236
28.2400 9.3966 0.1256
28.2600 9.4032 0.1271
28.2800 9.4098 0.1283
28.3000 9.4165 0.1261
28.3200 9.4232 0.1215
28.3400 9.4299 0.1242
28.3600 9.4366 0.1253
28.3800 9.4433 0.1251
28.4000 9.4500 0.1115
28.4200 9.4566 0.1241
28.4400 9.4632 0.1198
28.4600 9.4698 0.1174
28.4800 9.4765 0.1222
28.5000 9.4832 0.1185
28.5200 9.4900 0.1228
28.5400 9.4966 0.1185
28.5600 9.5033 0.1138
28.5800 9.5100 0.1234
28.6000 9.5166 0.1159
28.6200 9.5232 0.1115
28.6400 9.5299 0.1196
28.6600 9.5366 0.1182
28.6800 9.5433 0.1115
28.7000 9.5500 0.1146
28.7200 9.5567 0.1206
28.7400 9.5633 0.1092
28.7600 9.5700 0.1189
28.7800 9.5767 0.1095
28.8000 9.5833 0.1109
28.8200 9.5899 0.1179
28.8400 9.5966 0.1100
28.8600 9.6033 0.1166
28.8800 9.6100 0.1157
28.9000 9.6167 0.1056
28.9200 9.6234 0.1207
28.9400 9.6300 0.1067
28.9600 9.6367 0.1036
28.9800 9.6432 0.1192
29.0000 9.6498 0.1064
29.0200 9.6565 0.1055
29.0400 9.6632 0.1179
29.0600 9.6699 0.1029
29.0800 9.6766 0.1014
29.1000 9.6833 0.1210
29.1200 9.6900 0.0975
29.1400 9.6966 0.1084
29.1600 9.7032 0.1176
29.1800 9.7098 0.0988
29.2000 9.7165 0.1066
29.2200 9.7232 0.1137
29.2400 9.7299 0.1014
29.2600 9.7366 0.1047
29.2800 9.7433 0.1069
29.3000 9.7500 0.1062
29.3200 9.7566 0.1004
29.3400 9.7633 0.1033
29.3600 9.7699 0.0997
29.3800 9.7766 0.1062
29.4000 9.7833 0.1007
29.4200 9.7900 0.1003
29.4400 9.7967 0.1098
29.4600 9.8034 0.0976
29.4800 9.8100 0.0985
29.5000 9.8167 0.0994
29.5200 9.8232 0.1032
29.5400 9.8299 0.1004
29.5600 9.8365 0.0962
29.5800 9.8433 0.1011
29.6000 9.8500 0.0952
29.6200 9.8567 0.0972
29.6400 9.8633 0.1055
29.6600 9.8700 0.0909
29.6800 9.8767 0.0978
29.7000 9.8833 0.0989
29.7200 9.8899 0.0928
29.7400 9.8965 0.0930
29.7600 9.9032 0.1019
29.7800 9.9099 0.0905
29.8000 9.9166 0.0932
29.8200 9.9233 0.0947
29.8400 9.9300 0.0845
29.8600 9.9366 0.0995
29.8800 9.9432 0.0918
29.9000 9.9498 0.0894
29.9200 9.9565 0.0953
29.9400 9.9632 0.0852
29.9600 9.9699 0.0875
29.9800 9.9766 0.0928
30.0000 9.9833 0.0854
30.0200 9.9899 0.0905
30.0400 9.9966 0.0845
30.0600 10.0032 0.0833
30.0800 10.0099 0.0939
30.1000 10.0166 0.0887
30.1200 10.0233 0.0830
30.1400 10.0300 0.0913
30.1600 10.0367 0.0809
30.1800 10.0433 0.0821
30.2000 10.0500 0.0934
30.2200 10.0567 0.0728
30.2400 10.0633 0.0827
30.2600 10.0699 0.0902
30.2800 10.0766 0.0686
30.3000 10.0833 0.0891
30.3200 10.0900 0.0868
30.3400 10.0966 0.0697
30.3600 10.1033 0.0866
30.3800 10.1100 0.0832
30.4000 10.1167 0.0692
30.4200 10.1233 0.0876
30.4400 10.1299 0.0843
30.4600 10.1365 0.0633
30.4800 10.1432 0.0868
30.5000 10.1499 0.0762
30.5200 10.1566 0.0660
30.5400 10.1633 0.0864
30.5600 10.1700 0.0709
30.5800 10.1766 0.0649
30.6000 10.1832 0.0819
30.6200 10.1898 0.0724
30.6400 10.1965 0.0719
30.6600 10.2033 0.0751
30.6800 10.2100 0.0702
30.7000 10.2166 0.0688
30.7200 10.2233 0.0727
30.7400 10.2300 0.0712
30.7600 10.2366 0.0671
30.7800 10.2433 0.0639
30.8000 10.2499 0.0729
30.8200 10.2566 0.0740
30.8400 10.2633 0.0581
30.8600 10.2700 0.0742
30.8800 10.2766 0.0680
30.9000 10.2833 0.0614
30.9200 10.2900 0.0756
30.9400 10.2967 0.0586
30.9600 10.3033 0.0600
30.9800 10.3099 0.0775
31.0000 10.3165 0.0539
31.0200 10.3233 0.0671
31.0400 10.3300 0.0735
31.0600 10.3367 0.0537
31.0800 10.3433 0.0639
31.1000 10.3500 0.0724
31.1200 10.3566 0.0513
31.1400 10.3632 0.0627
31.1600 10.3698 0.0715
31.1800 10.3765 0.0495
31.2000 10.3832 0.0718
31.2200 10.3900 0.0640
31.2400 10.3966 0.0453
31.2600 10.4033 0.0698
31.2800 10.4100 0.0586
31.3000 10.4167 0.0486
31.3200 10.4233 0.0677
31.3400 10.4299 0.0515
31.3600 10.4365 0.0575
31.3800 10.4432 0.0629
31.4000 10.4499 0.0515
31.4200 10.4566 0.0547
31.4400 10.4633 0.0597
31.4600 10.4700 0.0498
31.4800 10.4767 0.0550
31.5000 10.4833 0.0568
31.5200 10.4899 0.0497
31.5400 10.4965 0.0547
31.5600 10.5032 0.0487
31.5800 10.5100 0.0533
31.6000 10.5167 0.0563
31.6200 10.5234 0.0437
31.6400 10.5300 0.0556
31.6600 10.5367 0.0523
31.6800 10.5433 0.0438
31.7000 10.5499 0.0593
31.7200 10.5566 0.0477
31.7400 10.5633 0.0420
31.7600 10.5700 0.0583
31.7800 10.5767 0.0430
31.8000 10.5834 0.0394
31.8200 10.5900 0.0620
31.8400 10.5967 0.0346
31.8600 10.6033 0.0412
31.8800 10.6099 0.0564
31.9000 10.6165 0.0385
31.9200 10.6232 0.0426
31.9400 10.6299 0.0567
31.9600 10.6366 0.0300
31.9800 10.6433 0.0426
32.0000 10.6500 0.0552
32.0200 10.6567 0.0286
32.0400 10.6633 0.0419
32.0600 10.6698 0.0523
32.0800 10.6765 0.0287
32.1000 10.6832 0.0373
32.1200 10.6899 0.0457
32.1400 10.6966 0.0295
32.1600 10.7033 0.0422
32.1800 10.7100 0.0410
32.2000 10.7167 0.0305
32.2200 10.7233 0.0423
32.2400 10.7299 0.0408
32.2600 10.7366 0.0286
32.2800 10.7433 0.0416
32.3000 10.7500 0.0353
32.3200 10.7567 0.0307
32.3400 10.7633 0.0353
32.3600 10.7700 0.0321
32.3800 10.7767 0.0335
32.4000 10.7833 0.0322
32.4200 10.7899 0.0256
32.4400 10.7966 0.0331
32.4600 10.8032 0.0338
32.4800 10.8099 0.0257
32.5000 10.8166 0.0284
32.5200 10.8233 0.0292
32.5400 10.8300 0.0287
32.5600 10.8367 0.0228
32.5800 10.8433 0.0294
32.6000 10.8499 0.0292
32.6200 10.8565 0.0246
32.6400 10.8632 0.0257
32.6600 10.8700 0.0237
32.6800 10.8766 0.0202
32.7000 10.8833 0.0278
32.7200 10.8900 0.0204
32.7400 10.8967 0.0204
32.7600 10.9033 0.0241
32.7800 10.9099 0.0211
32.8000 10.9165 0.0241
32.8200 10.9232 0.0251
32.8400 10.9299 0.0212
32.8600 10.9366 0.0181
32.8800 10.9433 0.0213
32.9000 10.9499 0.0182
32.9200 10.9566 0.0196
32.9400 10.9633 0.0201
32.9600 10.9699 0.0141
32.9800 10.9765 0.0189
33.0000 10.9832 0.0235
33.0200 10.9899 0.0141
33.0400 10.9966 0.0213
33.0600 11.0033 0.0138
33.0800 11.0100 0.0156
33.1000 11.0167 0.0176
33.1200 11.0233 0.0150
33.1400 11.0299 0.0159
33.1600 11.0365 0.0129
33.1800 11.0432 0.0141
33.2000 11.0500 0.0121
33.2200 11.0567 0.0147
33.2400 11.0634 0.0095
33.2600 11.0700 0.0121
33.2800 11.0767 0.0135
33.3000 11.0833 0.0065
33.3200 11.0899 0.0142
33.3400 11.0965 0.0172
33.3600 11.1032 0.0048
33.3800 11.1099 0.0107
33.4000 11.1166 0.0139
33.4200 11.1233 0.0066
33.4400 11.1300 0.0077
33.4600 11.1367 0.0130
33.4800 11.1433 0.0020
33.5000 11.1499 0.0103
33.5200 11.1565 0.0100
33.5400 11.1632 -0.0004
33.5600 11.1699 0.0096
33.5800 11.1766 0.0121
33.6000 11.1833 -0.0027
33.6200 11.1900 0.0026
33.6400 11.1966 0.0103
33.6600 11.2033 -0.0039
33.6800 11.2099 0.0013
33.7000 11.2165 0.0104
33.7200 11.2232 -0.0023
33.7400 11.2300 -0.0002
33.7600 11.2367 0.0057
33.7800 11.2434 -0.0009
33.8000 11.2500 0.0044
33.8200 11.2567 0.0049
33.8400 11.2633 -0.0035
33.8600 11.2699 0.0013
33.8800 11.2766 0.0110
33.9000 11.2832 -0.0043
33.9200 11.2900 -0.0065
33.9400 11.2967 0.0041
33.9600 11.3033 -0.0063
33.9800 11.3100 -0.0056
34.0000 11.3167 0.0047
34.0200 11.3233 -0.0051
34.0400 11.3299 -0.0036
34.0600 11.3365 0.0029
34.0800 11.3432 -0.0048
34.1000 11.3499 -0.0065
34.1200 11.3566 0.0028
34.1400 11.3633 -0.0070
34.1600 11.3700 -0.0054
34.1800 11.3767 0.0015
34.2000 11.3833 -0.0102
34.2200 11.3899 -0.0079
34.2400 11.3965 -0.0010
34.2600 11.4032 -0.0050
34.2800 11.4099 -0.0155
34.3000 11.4166 -0.0006
34.3200 11.4233 -0.0097
34.3400 11.4299 -0.0110
34.3600 11.4366 -0.0040
34.3800 11.4433 -0.0107
34.4000 11.4499 -0.0091
34.4200 11.4565 -0.0035
34.4400 11.4632 -0.0128
34.4600 11.4699 -0.0121
34.4800 11.4766 -0.0068
34.5000 11.4833 -0.0173
34.5200 11.4900 -0.0118
34.5400 11.4967 -0.0016
34.5600 11.5034 -0.0209
34.5800 11.5100 -0.0159
34.6000 11.5166 -0.0020
34.6200 11.5232 -0.0203
34.6400 11.5299 -0.0178
34.6600 11.5367 -0.0069
34.6800 11.5433 -0.0226
34.7000 11.5500 -0.0135
34.7200 11.5567 -0.0093
34.7400 11.5633 -0.0231
34.7600 11.5699 -0.0102
34.7800 11.5765 -0.0156
34.8000 11.5832 -0.0207
34.8200 11.5899 -0.0123
34.8400 11.5966 -0.0158
34.8600 11.6033 -0.0236
34.8800 11.6099 -0.0157
34.9000 11.6166 -0.0185
34.9200 11.6233 -0.0203
34.9400 11.6299 -0.0190
34.9600 11.6365 -0.0174
34.9800 11.6432 -0.0234
35.0000 11.6499 -0.0225
35.0200 11.6566 -0.0183
35.0400 11.6633 -0.0229
35.0600 11.6700 -0.0218
35.0800 11.6767 -0.0182
35.1000 11.6833 -0.0248
35.1200 11.6900 -0.0289
35.1400 11.6966 -0.0132
35.1600 11.7032 -0.0248
35.1800 11.7099 -0.0308
35.2000 11.7166 -0.0179
35.2200 11.7233 -0.0291
35.2400 11.7300 -0.0288
35.2600 11.7367 -0.0154
35.2800 11.7433 -0.0347
35.3000 11.7499 -0.0234
35.3200 11.7565 -0.0207
35.3400 11.7632 -0.0300
35.3600 11.7699 -0.0274
35.3800 11.7767 -0.0250
35.4000 11.7833 -0.0293
35.4200 11.7900 -0.0314
35.4400 11.7967 -0.0276
35.4600 11.8033 -0.0285
35.4800 11.8100 -0.0287
35.5000 11.8166 -0.0307
35.5200 11.8233 -0.0297
35.5400 11.8299 -0.0365
35.5600 11.8366 -0.0305
35.5800 11.8433 -0.0274
35.6000 11.8500 -0.0369
35.6200 11.8567 -0.0294
35.6400 11.8633 -0.0248
35.6600 11.8699 -0.0463
35.6800 11.8765 -0.0270
35.7000 11.8832 -0.0268
35.7200 11.8899 -0.0425
35.7400 11.8966 -0.0310
35.7600 11.9033 -0.0299
35.7800 11.9100 -0.0434
35.8000 11.9166 -0.0350
35.8200 11.9233 -0.0340
35.8400 11.9299 -0.0448
35.8600 11.9365 -0.0340
35.8800 11.9432 -0.0386
35.9000 11.9499 -0.0446
35.9200 11.9566 -0.0360
35.9400 11.9633 -0.0424
35.9600 11.9700 -0.0454
35.9800 11.9767 -0.0371
36.0000 11.9833 -0.0494
36.0200 11.9900 -0.0430
36.0400 11.9966 -0.0403
36.0600 12.0032 -0.0482
36.0800 12.0099 -0.0461
36.1000 12.0166 -0.0413
36.1200 12.0233 -0.0495
36.1400 12.0300 -0.0441
36.1600 12.0367 -0.0474
36.1800 12.0434 -0.0496
36.2000 12.0500 -0.0437
36.2200 12.0565 -0.0465
36.2400 12.0632 -0.0515
36.2600 12.0699 -0.0427
36.2800 12.0766 -0.0498
36.3000 12.0833 -0.0540
36.3200 12.0900 -0.0479
36.3400 12.0967 -0.0513
36.3600 12.1033 -0.0551
36.3800 12.1099 -0.0478
36.4000 12.1165 -0.0554
36.4200 12.1232 -0.0560
36.4400 12.1299 -0.0476
36.4600 12.1366 -0.0627
36.4800 12.1432 -0.0546
36.5000 12.1499 -0.0508
36.5200 12.1566 -0.0621
36.5400 12.1633 -0.0547
36.5600 12.1700 -0.0523
36.5800 12.1766 -0.0693
36.6000 12.1832 -0.0523
36.6200 12.1899 -0.0605
36.6400 12.1966 -0.0655
36.6600 12.2033 -0.0507
36.6800 12.2100 -0.0582
36.7000 12.2167 -0.0614
36.7200 12.2234 -0.0567
36.7400 12.2300 -0.0637
36.7600 12.2366 -0.0659
36.7800 12.2432 -0.0560
36.8000 12.2499 -0.0625
36.8200 12.2567 -0.0673
36.8400 12.2634 -0.0564
36.8600 12.2700 -0.0663
36.8800 12.2767 -0.0672
36.9000 12.2833 -0.0618
36.9200 12.2899 -0.0649
36.9400 12.2965 -0.0661
36.9600 12.3032 -0.0690
36.9800 12.3099 -0.0604
37.0000 12.3166 -0.0716
37.0200 12.3233 -0.0679
37.0400 12.3300 -0.0623
37.0600 12.3366 -0.0707
37.0800 12.3433 -0.0701
37.1000 12.3499 -0.0653
37.1200 12.3565 -0.0749
37.1400 12.3632 -0.0656
37.1600 12.3699 -0.0646
37.1800 12.3766 -0.0776
37.2000 12.3833 -0.0680
37.2200 12.3900 -0.0660
37.2400 12.3967 -0.0841
37.2600 12.4033 -0.0691
37.2800 12.4100 -0.0693
37.3000 12.4166 -0.0824
37.3200 12.4232 -0.0660
37.3400 12.4299 -0.0723
37.3600 12.4366 -0.0815
37.3800 12.4433 -0.0690
37.4000 12.4500 -0.0700
37.4200 12.4567 -0.0879
37.4400 12.4634 -0.0669
37.4600 12.4700 -0.0755
37.4800 12.4766 -0.0867
37.5000 12.4832 -0.0652
37.5200 12.4899 -0.0785
37.5400 12.4966 -0.0898
37.5600 12.5033 -0.0659
37.5800 12.5100 -0.0803
37.6000 12.5167 -0.0843
37.6200 12.5234 -0.0722
37.6400 12.5300 -0.0832
37.6600 12.5366 -0.0835
37.6800 12.5432 -0.0711
37.7000 12.5499 -0.0833
37.7200 12.5566 -0.0864
37.7400 12.5633 -0.0735
37.7600 12.5700 -0.0890
37.7800 12.5767 -0.0834
37.8000 12.5833 -0.0778
37.8200 12.5899 -0.0876
37.8400 12.5965 -0.0874
37.8600 12.6031 -0.0768
37.8800 12.6098 -0.0928
37.9000 12.6165 -0.0843
37.9200 12.6232 -0.0801
37.9400 12.6299 -0.0900
37.9600 12.6366 -0.0891
37.9800 12.6433 -0.0861
38.0000 12.6500 -0.0905
38.0200 12.6566 -0.0922
38.0400 12.6632 -0.0843
38.0600 12.6699 -0.0856
38.0800 12.6766 -0.0950
38.1000 12.6833 -0.0886
38.1200 12.6900 -0.0918
38.1400 12.6967 -0.0962
38.1600 12.7034 -0.0868
38.1800 12.7100 -0.0941
38.2000 12.7166 -0.0969
38.2200 12.7232 -0.0891
38.2400 12.7299 -0.0898
38.2600 12.7366 -0.1020
38.2800 12.7433 -0.0936
38.3000 12.7500 -0.0928
38.3200 12.7567 -0.0972
38.3400 12.7634 -0.0988
38.3600 12.7700 -0.0967
38.3800 12.7766 -0.0957
38.4000 12.7832 -0.0940
38.4200 12.7899 -0.0996
38.4400 12.7966 -0.0962
38.4600 12.8033 -0.0950
38.4800 12.8100 -0.0980
38.5000 12.8166 -0.0996
38.5200 12.8233 -0.0960
38.5400 12.8300 -0.1008
38.5600 12.8366 -0.1054
38.5800 12.8432 -0.0996
38.6000 12.8499 -0.0984
38.6200 12.8566 -0.0996
38.6400 12.8633 -0.1043
38.6600 12.8699 -0.1013
38.6800 12.8766 -0.1027
38.7000 12.8833 -0.1032
38.7200 12.8900 -0.1050
38.7400 12.8966 -0.1052
38.7600 12.9032 -0.1053
38.7800 12.9099 -0.0985
38.8000 12.9166 -0.1117
38.8200 12.9233 -0.1057
38.8400 12.9300 -0.0968
38.8600 12.9367 -0.1079
38.8800 12.9434 -0.1099
38.9000 12.9500 -0.1015
38.9200 12.9566 -0.1125
38.9400 12.9632 -0.1077
38.9600 12.9699 -0.1014
38.9800 12.9766 -0.1163
39.0000 12.9833 -0.1059
39.0200 12.9900 -0.1036
39.0400 12.9967 -0.1200
39.0600 13.0033 -0.1064
39.0800 13.0100 -0.1045
39.1000 13.0166 -0.1202
39.1200 13.0232 -0.1068
39.1400 13.0299 -0.1073
39.1600 13.0366 -0.1154
39.1800 13.0433 -0.1078
39.2000 13.0499 -0.1108
39.2200 13.0566 -0.1146
39.2400 13.0633 -0.1089
39.2600 13.0700 -0.1138
39.2800 13.0766 -0.1159
39.3000 13.0832 -0.1098
39.3200 13.0898 -0.1136
39.3400 13.0966 -0.1133
39.3600 13.1033 -0.1184
39.3800 13.1100 -0.1151
39.4000 13.1167 -0.1100
39.4200 13.1233 -0.1192
39.4400 13.1300 -0.1164
39.4600 13.1366 -0.1076
39.4800 13.1432 -0.1214
39.5000 13.1499 -0.1157
39.5200 13.1566 -0.1130
39.5400 13.1633 -0.1224
39.5600 13.1700 -0.1177
39.5800 13.1767 -0.1132
39.6000 13.1833 -0.1285
39.6200 13.1900 -0.1108
39.6400 13.1966 -0.1163
39.6600 13.2032 -0.1262
39.6800 13.2099 -0.1086
39.7000 13.2166 -0.1201
39.7200 13.2233 -0.1295
39.7400 13.2300 -0.1115
39.7600 13.2367 -0.1234
39.7800 13.2433 -0.1327
39.8000 13.2500 -0.1144
39.8200 13.2566 -0.1271
39.8400 13.2632 -0.1290
39.8600 13.2699 -0.1153
39.8800 13.2766 -0.1326
39.9000 13.2833 -0.1277
39.9200 13.2900 -0.1172
39.9400 13.2967 -0.1317
39.9600 13.3034 -0.1245
39.9800 13.3100 -0.1274
40.0000 13.3166 -0.1289
40.0200 13.3232 -0.1220
40.0400 13.3298 -0.1265
40.0600 13.3366 -0.1315
40.0800 13.3433 -0.1250
40.1000 13.3499 -0.1345
40.1200 13.3566 -0.1294
40.1400 13.3633 -0.1262
40.1600 13.3700 -0.1361
40.1800 13.3766 -0.1283
40.2000 13.3832 -0.1300
40.2200 13.3899 -0.1350
40.2400 13.3966 -0.1249
40.2600 13.4033 -0.1339
40.2800 13.4100 -0.1367
40.3000 13.4167 -0.1276
40.3200 13.4234 -0.1380
40.3400 13.4301 -0.1370
40.3600 13.4366 -0.1285
40.3800 13.4432 -0.1401
40.4000 13.4499 -0.1368
40.4200 13.4566 -0.1311
40.4400 13.4633 -0.1486
40.4600 13.4700 -0.1335
40.4800 13.4767 -0.1344
40.5000 13.4833 -0.1436
40.5200 13.4900 -0.1343
40.5400 13.4966 -0.1398
40.5600 13.5032 -0.1474
40.5800 13.5098 -0.1326
40.6000 13.5166 -0.1423
40.6200 13.5233 -0.1442
40.6400 13.5299 -0.1370
40.6600 13.5366 -0.1474
40.6800 13.5433 -0.1421
40.7000 13.5500 -0.1419
40.7200 13.5566 -0.1510
40.7400 13.5632 -0.1414
40.7600 13.5698 -0.1390
40.7800 13.5765 -0.1504
40.8000 13.5832 -0.1434
40.8200 13.5899 -0.1478
40.8400 13.5966 -0.1461
40.8600 13.6033 -0.1489
40.8800 13.6100 -0.1489
40.9000 13.6166 -0.1451
40.9200 13.6232 -0.1493
40.9400 13.6298 -0.1550
40.9600 13.6366 -0.1455
40.9800 13.6433 -0.1510
41.0000 13.6500 -0.1560
41.0200 13.6567 -0.1442
41.0400 13.6634 -0.1525
41.0600 13.6700 -0.1592
41.0800 13.6766 -0.1458
41.1000 13.6833 -0.1564
41.1200 13.6899 -0.1555
41.1400 13.6966 -0.1473
41.1600 13.7033 -0.1590
41.1800 13.7100 -0.1559
41.2000 13.7167 -0.1496
41.2200 13.7233 -0.1597
41.2400 13.7300 -0.1600
41.2600 13.7366 -0.1511
41.2800 13.7432 -0.1619
41.3000 13.7498 -0.1535
41.3200 13.7565 -0.1512
41.3400 13.7633 -0.1638
41.3600 13.7700 -0.1629
41.3800 13.7766 -0.1525
41.4000 13.7833 -0.1613
41.4200 13.7900 -0.1639
41.4400 13.7966 -0.1535
41.4600 13.8032 -0.1608
41.4800 13.8098 -0.1653
41.5000 13.8165 -0.1513
41.5200 13.8233 -0.1617
41.5400 13.8299 -0.1687
41.5600 13.8366 -0.1563
41.5800 13.8433 -0.1648
41.6000 13.8500 -0.1706
41.6200 13.8566 -0.1559
41.6400 13.8632 -0.1609
41.6600 13.8699 -0.1704
41.6800 13.8765 -0.1552
41.7000 13.8832 -0.1676
41.7200 13.8899 -0.1684
41.7400 13.8966 -0.1595
41.7600 13.9034 -0.1672
41.7800 13.9100 -0.1689
41.8000 13.9166 -0.1632
41.8200 13.9232 -0.1717
41.8400 13.9299 -0.1675
41.8600 13.9366 -0.1608
41.8800 13.9433 -0.1698
41.9000 13.9500 -0.1709
41.9200 13.9567 -0.1625
41.9400 13.9634 -0.1752
41.9600 13.9700 -0.1790
41.9800 13.9766 -0.1651
42.0000 13.9832 -0.1718
42.0200 13.9899 -0.1744
42.0400 13.9966 -0.1701
42.0600 14.0033 -0.1728
42.0800 14.0100 -0.1783
42.1000 14.0166 -0.1744
42.1200 14.0233 -0.1690
42.1400 14.0300 -0.1794
42.1600 14.0366 -0.1780
42.1800 14.0432 -0.1663
42.2000 14.0498 -0.1834
42.2200 14.0565 -0.1736
42.2400 14.0632 -0.1737
42.2600 14.0699 -0.1822
42.2800 14.0766 -0.1759
42.3000 14.0833 -0.1739
42.3200 14.0900 -0.1832
42.3400 14.0966 -0.1756
42.3600 14.1032 -0.1785
42.3800 14.1099 -0.1830
42.4000 14.1166 -0.1778
42.4200 14.1233 -0.1814
42.4400 14.1300 -0.1880
42.4600 14.1367 -0.1771
42.4800 14.1434 -0.1816
42.5000 14.1500 -0.1923
42.5200 14.1567 -0.1793
42.5400 14.1633 -0.1871
42.5600 14.1699 -0.1853
42.5800 14.1766 -0.1829
42.6000 14.1833 -0.1858
42.6200 14.1900 -0.1881
42.6400 14.1967 -0.1870
42.6600 14.2033 -0.1862
42.6800 14.2100 -0.1921
42.7000 14.2166 -0.1895
42.7200 14.2232 -0.1852
42.7400 14.2298 -0.1958
42.7600 14.2365 -0.1909
42.7800 14.2432 -0.1918
42.8000 14.2499 -0.1914
42.8200 14.2566 -0.1922
42.8400 14.2633 -0.1924
42.8600 14.2700 -0.1945
42.8800 14.2766 -0.1949
42.9000 14.2832 -0.1909
42.9200 14.2898 -0.1985
42.9400 14.2965 -0.1940
42.9600 14.3032 -0.1935
42.9800 14.3100 -0.1966
43.0000 14.3166 -0.1994
43.0200 14.3233 -0.1896
43.0400 14.3300 -0.1990
43.0600 14.3366 -0.2033
43.0800 14.3432 -0.1912
43.1000 14.3499 -0.1952
43.1200 14.3566 -0.2029
43.1400 14.3633 -0.1953
43.1600 14.3700 -0.2029
43.1800 14.3766 -0.2001
43.2000 14.3833 -0.2005
43.2200 14.3900 -0.2022
43.2400 14.3967 -0.1989
43.2600 14.4033 -0.2070
43.2800 14.4099 -0.2011
43.3000 14.4166 -0.2007
43.3200 14.4233 -0.2006
43.3400 14.4300 -0.2048
43.3600 14.4367 -0.2039
43.3800 14.4434 -0.2022
43.4000 14.4500 -0.2050
43.4200 14.4567 -0.2048
43.4400 14.4633 -0.2033
43.4600 14.4699 -0.2052
43.4800 14.4765 -0.2043
43.5000 14.4832 -0.2045
43.5200 14.4900 -0.2027
43.5400 14.4966 -0.2132
43.5600 14.5033 -0.2085
43.5800 14.5100 -0.2072
43.6000 14.5166 -0.2081
43.6200 14.5232 -0.2055
43.6400 14.5298 -0.2117
43.6600 14.5365 -0.2114
43.6800 14.5432 -0.2061
43.7000 14.5499 -0.2121
43.7200 14.5566 -0.2092
43.7400 14.5633 -0.2078
43.7600 14.5700 -0.2120
43.7800 14.5766 -0.2141
43.8000 14.5833 -0.2128
43.8200 14.5899 -0.2119
43.8400 14.5965 -0.2146
43.8600 14.6032 -0.2147
43.8800 14.6099 -0.2176
43.9000 14.6166 -0.2110
43.9200 14.6233 -0.2161
43.9400 14.6300 -0.2189
43.9600 14.6367 -0.2195
43.9800 14.6432 -0.2145
44.0000 14.6499 -0.2155
44.0200 14.6565 -0.2230
44.0400 14.6633 -0.2131
44.0600 14.6700 -0.2184
44.0800 14.6767 -0.2249
44.1000 14.6833 -0.2161
44.1200 14.6900 -0.2151
44.1400 14.6966 -0.2236
44.1600 14.7033 -0.2183
44.1800 14.7099 -0.2188
44.2000 14.7165 -0.2237
44.2200 14.7232 -0.2208
44.2400 14.7299 -0.2188
44.2600 14.7366 -0.2309
44.2800 14.7433 -0.2202
44.3000 14.7500 -0.2192
44.3200 14.7566 -0.2327
44.3400 14.7633 -0.2221
44.3600 14.7698 -0.2180
44.3800 14.7765 -0.2330
44.4000 14.7832 -0.2198
44.4200 14.7899 -0.2265
44.4400 14.7966 -0.2332
44.4600 14.8033 -0.2220
44.4800 14.8100 -0.2284
44.5000 14.8166 -0.2380
44.5200 14.8232 -0.2205
44.5400 14.8299 -0.2305
44.5600 14.8365 -0.2399
44.5800 14.8433 -0.2204
44.6000 14.8500 -0.2337
44.6200 14.8567 -0.2373
44.6400 14.8633 -0.2279
44.6600 14.8700 -0.2323
44.6800 14.8767 -0.2428
44.7000 14.8833 -0.2247
44.7200 14.8899 -0.2297
44.7400 14.8966 -0.2433
44.7600 14.9033 -0.2266
44.7800 14.9100 -0.2311
44.8000 14.9166 -0.2432
44.8200 14.9233 -0.2318
44.8400 14.9300 -0.2408
44.8600 14.9367 -0.2409
44.8800 14.9433 -0.2328
44.9000 14.9499 -0.2385
44.9200 14.9565 -0.2399
44.9400 14.9632 -0.2372
44.9600 14.9699 -0.2430
44.9800 14.9766 -0.2402
45.0000 14.9833 -0.2350
45.0200 14.9900 -0.2427
45.0400 14.9966 -0.2447
45.0600 15.0032 -0.2460
45.0800 15.0098 -0.2398
45.1000 15.0165 -0.2416
45.1200 15.0232 -0.2456
45.1400 15.0300 -0.2470
45.1600 15.0366 -0.2419
45.1800 15.0433 -0.2456
45.2000 15.0500 -0.2475
45.2200 15.0566 -0.2457
45.2400 15.0633 -0.2478
45.2600 15.0699 -0.2455
45.2800 15.0766 -0.2514
45.3000 15.0833 -0.2513
45.3200 15.0900 -0.2446
45.3400 15.0966 -0.2514
45.3600 15.1033 -0.2549
45.3800 15.1100 -0.2477
45.4000 15.1167 -0.2510
45.4200 15.1233 -0.2544
45.4400 15.1299 -0.2502
45.4600 15.1365 -0.2572
45.4800 15.1432 -0.2543
45.5000 15.1500 -0.2511
45.5200 15.1567 -0.2604
45.5400 15.1634 -0.2553
45.5600 15.1700 -0.2553
45.5800 15.1767 -0.2642
45.6000 15.1833 -0.2603
45.6200 15.1899 -0.2464
45.6400 15.1965 -0.2646
45.6600 15.2032 -0.2614
45.6800 15.2100 -0.2532
45.7000 15.2167 -0.2661
45.7200 15.2233 -0.2621
45.7400 15.2300 -0.2602
45.7600 15.2366 -0.2657
45.7800 15.2433 -0.2623
45.8000 15.2499 -0.2620
45.8200 15.2565 -0.2634
45.8400 15.2632 -0.2632
45.8600 15.2699 -0.2575
45.8800 15.2766 -0.2703
45.9000 15.2833 -0.2720
45.9200 15.2900 -0.2592
45.9400 15.2966 -0.2708
45.9600 15.3033 -0.2711
45.9800 15.3099 -0.2615
46.0000 15.3165 -0.2665
46.0200 15.3232 -0.2746
46.0400 15.3300 -0.2590
46.0600 15.3367 -0.2690
46.0800 15.3433 -0.2742
46.1000 15.3500 -0.2630
46.1200 15.3567 -0.2745
46.1400 15.3633 -0.2734
46.1600 15.3699 -0.2662
46.1800 15.3766 -0.2732
46.2000 15.3833 -0.2707
46.2200 15.3900 -0.2681
46.2400 15.3967 -0.2767
46.2600 15.4033 -0.2768
46.2800 15.4100 -0.2640
46.3000 15.4167 -0.2792
46.3200 15.4233 -0.2788
46.3400 15.4299 -0.2655
46.3600 15.4365 -0.2779
46.3800 15.4432 -0.2711
46.4000 15.4499 -0.2736
46.4200 15.4566 -0.2800
46.4400 15.4633 -0.2782
46.4600 15.4700 -0.2762
46.4800 15.4767 -0.2788
46.5000 15.4833 -0.2748
46.5200 15.4898 -0.2765
46.5400 15.4965 -0.2823
46.5600 15.5032 -0.2825
46.5800 15.5099 -0.2800
46.6000 15.5166 -0.2802
46.6200 15.5233 -0.2814
46.6400 15.5300 -0.2852
46.6600 15.5366 -0.2773
46.6800 15.5433 -0.2888
46.7000 15.5499 -0.2822
46.7200 15.5565 -0.2811
46.7400 15.5632 -0.2915
46.7600 15.5699 -0.2844
46.7800 15.5766 -0.2842
46.8000 15.5833 -0.2860
46.8200 15.5900 -0.2893
46.8400 15.5967 -0.2828
46.8600 15.6033 -0.2941
46.8800 15.6099 -0.2864
46.9000 15.6166 -0.2838
46.9200 15.6232 -0.2951
46.9400 15.6300 -0.2878
46.9600 15.6367 -0.2884
46.9800 15.6434 -0.2932
47.0000 15.6500 -0.2886
47.0200 15.6567 -0.2951
47.0400 15.6633 -0.2888
47.0600 15.6699 -0.2974
47.0800 15.6765 -0.2881
47.1000 15.6832 -0.2924
47.1200 15.6899 -0.2990
47.1400 15.6966 -0.2859
47.1600 15.7033 -0.2995
47.1800 15.7100 -0.2975
47.2000 15.7167 -0.2887
47.2200 15.7233 -0.3013
47.2400 15.7299 -0.2987
47.2600 15.7365 -0.2855
47.2800 15.7432 -0.3040
47.3000 15.7499 -0.3013
47.3200 15.7566 -0.2906
47.3400 15.7633 -0.3024
47.3600 15.7700 -0.3045
47.3800 15.7767 -0.2938
47.4000 15.7833 -0.3099
47.4200 15.7899 -0.2985
47.4400 15.7965 -0.2977
47.4600 15.8032 -0.3114
47.4800 15.8099 -0.3034
47.5000 15.8166 -0.3022
47.5200 15.8233 -0.3118
47.5400 15.8300 -0.2999
47.5600 15.8367 -0.3014
47.5800 15.8433 -0.3152
47.6000 15.8499 -0.3048
47.6200 15.8565 -0.3006
47.6400 15.8632 -0.3115
47.6600 15.8699 -0.3109
47.6800 15.8767 -0.3047
47.7000 15.8834 -0.3165
47.7200 15.8900 -0.3048
47.7400 15.8967 -0.3076
47.7600 15.9033 -0.3150
47.7800 15.9099 -0.3076
47.8000 15.9165 -0.3061
47.8200 15.9232 -0.3187
47.8400 15.9299 -0.3116
47.8600 15.9366 -0.3071
47.8800 15.9433 -0.3152
47.9000 15.9500 -0.3169
47.9200 15.9567 -0.3099
47.9400 15.9633 -0.3147
47.9600 15.9699 -0.3221
47.9800 15.9765 -0.3082
48.0000 15.9832 -0.3147
48.0200 15.9899 -0.3219
48.0400 15.9966 -0.3128
48.0600 16.0033 -0.3152
48.0800 16.0100 -0.3205
48.1000 16.0167 -0.3104
48.1200 16.0233 -0.3213
48.1400 16.0299 -0.3211
48.1600 16.0366 -0.3156
48.1800 16.0432 -0.3223
48.2000 16.0500 -0.3212
48.2200 16.0567 -0.3169
48.2400 16.0634 -0.3294
48.2600 16.0700 -0.3202
48.2800 16.0767 -0.3211
48.3000 16.0833 -0.3252
48.3200 16.0899 -0.3237
48.3400 16.0965 -0.3206
48.3600 16.1032 -0.3271
48.3800 16.1100 -0.3310
48.4000 16.1167 -0.3219
48.4200 16.1233 -0.3256
48.4400 16.1300 -0.3265
48.4600 16.1367 -0.3251
48.4800 16.1433 -0.3266
48.5000 16.1499 -0.3307
48.5200 16.1565 -0.3263
48.5400 16.1632 -0.3250
48.5600 16.1699 -0.3309
48.5800 16.1766 -0.3304
48.6000 16.1833 -0.3264
48.6200 16.1900 -0.3399
48.6400 16.1967 -0.3294
48.6600 16.2033 -0.3304
48.6800 16.2099 -0.3407
48.7000 16.2165 -0.3321
48.7200 16.2232 -0.3328
48.7400 16.2299 -0.3379
48.7600 16.2366 -0.3281
48.7800 16.2433 -0.3351
48.8000 16.2499 -0.3426
48.8200 16.2566 -0.3293
48.8400 16.2633 -0.3421
48.8600 16.2699 -0.3425
48.8800 16.2765 -0.3285
48.9000 16.2832 -0.3440
48.9200 16.2899 -0.3392
48.9400 16.2966 -0.3302
48.9600 16.3033 -0.3505
48.9800 16.3100 -0.3391
49.0000 16.3167 -0.3363
49.0200 16.3234 -0.3501
49.0400 16.3299 -0.3412
49.0600 16.3366 -0.3351
49.0800 16.3432 -0.3505
49.1000 16.3499 -0.3405
49.1200 16.3567 -0.3429
49.1400 16.3633 -0.3496
49.1600 16.3700 -0.3425
49.1800 16.3767 -0.3482
49.2000 16.3833 -0.3473
49.2200 16.3899 -0.3421
49.2400 16.3965 -0.3484
49.2600 16.4032 -0.3510
49.2800 16.4099 -0.3495
49.3000 16.4166 -0.3486
49.3200 16.4233 -0.3499
49.3400 16.4299 -0.3545
49.3600 16.4366 -0.3495
49.3800 16.4433 -0.3493
49.4000 16.4499 -0.3571
49.4200 16.4565 -0.3509
49.4400 16.4632 -0.3456
49.4600 16.4699 -0.3601
49.4800 16.4766 -0.3517
49.5000 16.4833 -0.3514
49.5200 16.4900 -0.3592
49.5400 16.4967 -0.3512
49.5600 16.5033 -0.3527
49.5800 16.5100 -0.3662
49.6000 16.5166 -0.3489
49.6200 16.5232 -0.3515
49.6400 16.5299 -0.3671
49.6600 16.5366 -0.3604
49.6800 16.5433 -0.3496
49.7000 16.5500 -0.3626
49.7200 16.5567 -0.3594
49.7400 16.5633 -0.3583
49.7600 16.5700 -0.3654
49.7800 16.5766 -0.3541
49.8000 16.5832 -0.3600
49.8200 16.5899 -0.3643
49.8400 16.5966 -0.3593
49.8600 16.6033 -0.3649
49.8800 16.6100 -0.3650
49.9000 16.6167 -0.3626
49.9200 16.6234 -0.3618
49.9400 16.6300 -0.3630
49.9600 16.6366 -0.3688
49.9800 16.6432 -0.3634
50.0000 16.6499 -0.3708
50.0200 16.6566 -0.3700
50.0400 16.6633 -0.3630
50.0600 16.6700 -0.3694
50.0800 16.6767 -0.3722
50.1000 16.6833 -0.3685
50.1200 16.6900 -0.3718
50.1400 16.6965 -0.3692
50.1600 16.7032 -0.3638
50.1800 16.7099 -0.3760
50.2000 16.7166 -0.3759
50.2200 16.7233 -0.3653
50.2400 16.7300 -0.3715
50.2600 16.7367 -0.3787
50.2800 16.7433 -0.3696
50.3000 16.7499 -0.3793
50.3200 16.7565 -0.3769
50.3400 16.7632 -0.3698
50.3600 16.7699 -0.3779
50.3800 16.7766 -0.3768
50.4000 16.7833 -0.3735
50.4200 16.7900 -0.3853
50.4400 16.7967 -0.3729
50.4600 16.8034 -0.3728
50.4800 16.8100 -0.3839
50.5000 16.8166 -0.3780
50.5200 16.8232 -0.3757
50.5400 16.8299 -0.3835
50.5600 16.8366 -0.3784
50.5800 16.8433 -0.3798
50.6000 16.8500 -0.3891
50.6200 16.8567 -0.3801
50.6400 16.8634 -0.3865
50.6600 16.8700 -0.3883
50.6800 16.8766 -0.3815
50.7000 16.8832 -0.3786
50.7200 16.8899 -0.3900
50.7400 16.8966 -0.3857
50.7600 16.9033 -0.3887
50.7800 16.9100 -0.3920
50.8000 16.9166 -0.3874
50.8200 16.9233 -0.3898
50.8400 16.9299 -0.3952
50.8600 16.9366 -0.3883
50.8800 16.9432 -0.3914
50.9000 16.9499 -0.3924
50.9200 16.9566 -0.3930
50.9400 16.9633 -0.3908
50.9600 16.9699 -0.3947
50.9800 16.9766 -0.3970
51.0000 16.9833 -0.3946
51.0200 16.9899 -0.3953
51.0400 16.9966 -0.3971
51.0600 17.0032 -0.4010
51.0800 17.0099 -0.3931
51.1000 17.0166 -0.4029
51.1200 17.0233 -0.4023
51.1400 17.0300 -0.3963
51.1600 17.0367 -0.4025
51.1800 17.0434 -0.4052
51.2000 17.0500 -0.3987
51.2200 17.0566 -0.4037
51.2400 17.0632 -0.4014
51.2600 17.0699 -0.4005
51.2800 17.0766 -0.4038
51.3000 17.0833 -0.4051
51.3200 17.0900 -0.4025
51.3400 17.0967 -0.4090
51.3600 17.1033 -0.4042
51.3800 17.1099 -0.4050
51.4000 17.1166 -0.4124
51.4200 17.1232 -0.4036
51.4400 17.1299 -0.4069
51.4600 17.1366 -0.4134
51.4800 17.1433 -0.4047
51.5000 17.1500 -0.4059
51.5200 17.1566 -0.4213
51.5400 17.1633 -0.4062
51.5600 17.1700 -0.4130
51.5800 17.1766 -0.4220
51.6000 17.1832 -0.4057
51.6200 17.1899 -0.4110
51.6400 17.1966 -0.4203
51.6600 17.2033 -0.4059
51.6800 17.2100 -0.4153
51.7000 17.2166 -0.4182
51.7200 17.2233 -0.4147
51.7400 17.2300 -0.4178
51.7600 17.2366 -0.4214
51.7800 17.2432 -0.4142
51.8000 17.2499 -0.4196
51.8200 17.2566 -0.4249
51.8400 17.2633 -0.4166
51.8600 17.2700 -0.4236
51.8800 17.2767 -0.4237
51.9000 17.2834 -0.4174
51.9200 17.2900 -0.4274
51.9400 17.2966 -0.4267
51.9600 17.3032 -0.4157
51.9800 17.3099 -0.4259
52.0000 17.3166 -0.4292
52.0200 17.3233 -0.4211
52.0400 17.3300 -0.4289
52.0600 17.3367 -0.4252
52.0800 17.3434 -0.4167
52.1000 17.3500 -0.4318
52.1200 17.3566 -0.4251
52.1400 17.3632 -0.4231
52.1600 17.3699 -0.4322
52.1800 17.3766 -0.4296
52.2000 17.3833 -0.4230
52.2200 17.3900 -0.4333
52.2400 17.3966 -0.4347
52.2600 17.4033 -0.4258
52.2800 17.4099 -0.4315
52.3000 17.4166 -0.4359
52.3200 17.4232 -0.4281
52.3400 17.4298 -0.4296
52.3600 17.4365 -0.4395
52.3800 17.4432 -0.4328
52.4000 17.4499 -0.4291
52.4200 17.4566 -0.4380
52.4400 17.4633 -0.4349
52.4600 17.4700 -0.4334
52.4800 17.4766 -0.4434
52.5000 17.4832 -0.4269
52.5200 17.4899 -0.4321
52.5400 17.4966 -0.4499
52.5600 17.5033 -0.4352
52.5800 17.5100 -0.4323
52.6000 17.5167 -0.4477
52.6200 17.5234 -0.4358
52.6400 17.5300 -0.4374
52.6600 17.5366 -0.4484
52.6800 17.5432 -0.4337
52.7000 17.5499 -0.4421
52.7200 17.5566 -0.4485
52.7400 17.5633 -0.4361
52.7600 17.5700 -0.4442
52.7800 17.5767 -0.4478
52.8000 17.5834 -0.4422
52.8200 17.5900 -0.4493
52.8400 17.5966 -0.4455
52.8600 17.6032 -0.4472
52.8800 17.6099 -0.4446
52.9000 17.6166 -0.4443
52.9200 17.6233 -0.4519
52.9400 17.6300 -0.4517
52.9600 17.6366 -0.4433
52.9800 17.6433 -0.4530
53.0000 17.6500 -0.4532
53.0200 17.6566 -0.4508
53.0400 17.6632 -0.4530
53.0600 17.6699 -0.4509
53.0800 17.6766 -0.4520
53.1000 17.6833 -0.4581
53.1200 17.6899 -0.4498
53.1400 17.6966 -0.4540
53.1600 17.7033 -0.4592
53.1800 17.7100 -0.4507
53.2000 17.7166 -0.4626
53.2200 17.7232 -0.4576
53.2400 17.7299 -0.4533
53.2600 17.7366 -0.4655
53.2800 17.7433 -0.4592
53.3000 17.7500 -0.4539
53.3200 17.7567 -0.4679
53.3400 17.7634 -0.4630
53.3600 17.7700 -0.4620
53.3800 17.7766 -0.4613
53.4000 17.7832 -0.4643
53.4200 17.7899 -0.4661
53.4400 17.7966 -0.4630
53.4600 17.8034 -0.4637
53.4800 17.8100 -0.4717
53.5000 17.8167 -0.4655
53.5200 17.8233 -0.4622
53.5400 17.8300 -0.4731
53.5600 17.8366 -0.4586
53.5800 17.8432 -0.4712
53.6000 17.8499 -0.4723
53.6200 17.8566 -0.4580
53.6400 17.8632 -0.4783
53.6600 17.8699 -0.4673
53.6800 17.8766 -0.4678
53.7000 17.8833 -0.4783
53.7200 17.8900 -0.4695
53.7400 17.8966 -0.4721
53.7600 17.9032 -0.4758
53.7800 17.9098 -0.4716
53.8000 17.9165 -0.4696
53.8200 17.9233 -0.4832
53.8400 17.9300 -0.4714
53.8600 17.9366 -0.4724
53.8800 17.9433 -0.4794
53.9000 17.9500 -0.4766
53.9200 17.9566 -0.4764
53.9400 17.9632 -0.4740
53.9600 17.9699 -0.4772
53.9800 17.9766 -0.4796
54.0000 17.9833 -0.4778
54.0200 17.9900 -0.4837
54.0400 17.9966 -0.4781
54.0600 18.0033 -0.4791
54.0800 18.0100 -0.4865
54.1000 18.0166 -0.4796
54.1200 18.0232 -0.4822
54.1400 18.0299 -0.4858
54.1600 18.0366 -0.4837
54.1800 18.0433 -0.4809
54.2000 18.0500 -0.4889
54.2200 18.0567 -0.4882
54.2400 18.0633 -0.4856
54.2600 18.0700 -0.4905
54.2800 18.0766 -0.4905
54.3000 18.0832 -0.4885
54.3200 18.0899 -0.4892
54.3400 18.0966 -0.4882
54.3600 18.1033 -0.4954
54.3800 18.1100 -0.4958
54.4000 18.1167 -0.4875
54.4200 18.1233 -0.4915
54.4400 18.1300 -0.5003
54.4600 18.1366 -0.4921
54.4800 18.1432 -0.4961
54.5000 18.1498 -0.5027
54.5200 18.1565 -0.4924
54.5400 18.1633 -0.5016
54.5600 18.1699 -0.4997
54.5800 18.1766 -0.4962
54.6000 18.1833 -0.5045
54.6200 18.1900 -0.5073
54.6400 18.1966 -0.4958
54.6600 18.2032 -0.5039
54.6800 18.2099 -0.5063
54.7000 18.2166 -0.5033
54.7200 18.2233 -0.5052
54.7400 18.2300 -0.5065
54.7600 18.2367 -0.5002
54.7800 18.2434 -0.5091
54.8000 18.2501 -0.5093
54.8200 18.2566 -0.5015
54.8400 18.2632 -0.5145
54.8600 18.2699 -0.5108
54.8800 18.2766 -0.5018
54.9000 18.2833 -0.5113
54.9200 18.2900 -0.5226
54.9400 18.2967 -0.5069
54.9600 18.3034 -0.5083
54.9800 18.3100 -0.5219
55.0000 18.3166 -0.5082
55.0200 18.3232 -0.5124
55.0400 18.3299 -0.5207
55.0600 18.3366 -0.5082
55.0800 18.3433 -0.5225
55.1000 18.3499 -0.5228
55.1200 18.3566 -0.5113
55.1400 18.3633 -0.5223
55.1600 18.3700 -0.5271
55.1800 18.3766 -0.5130
55.2000 18.3832 -0.5242
55.2200 18.3898 -0.5307
55.2400 18.3965 -0.5137
55.2600 18.4032 -0.5260
55.2800 18.4099 -0.5317
55.3000 18.4166 -0.5151
55.3200 18.4233 -0.5285
55.3400 18.4300 -0.5322
55.3600 18.4366 -0.5172
55.3800 18.4432 -0.5319
55.4000 18.4499 -0.5329
55.4200 18.4566 -0.5232
55.4400 18.4633 -0.5302
55.4600 18.4700 -0.5335
55.4800 18.4767 -0.5200
55.5000 18.4834 -0.5326
55.5200 18.4900 -0.5398
55.5400 18.4967 -0.5268
55.5600 18.5033 -0.5284
55.5800 18.5099 -0.5399
55.6000 18.5166 -0.5286
55.6200 18.5233 -0.5361
55.6400 18.5300 -0.5456
55.6600 18.5366 -0.5242
55.6800 18.5433 -0.5378
55.7000 18.5500 -0.5488
55.7200 18.5567 -0.5287
55.7400 18.5633 -0.5375
55.7600 18.5699 -0.5485
55.7800 18.5765 -0.5273
55.8000 18.5833 -0.5438
55.8200 18.5900 -0.5486
55.8400 18.5966 -0.5327
55.8600 18.6033 -0.5452
55.8800 18.6100 -0.5521
55.9000 18.6166 -0.5325
55.9200 18.6232 -0.5458
55.9400 18.6298 -0.5499
55.9600 18.6365 -0.5336
55.9800 18.6432 -0.5508
56.0000 18.6499 -0.5513
56.0200 18.6566 -0.5385
56.0400 18.6633 -0.5561
56.0600 18.6700 -0.5490
56.0800 18.6766 -0.5447
56.1000 18.6833 -0.5586
56.1200 18.6899 -0.5519
56.1400 18.6966 -0.5450
56.1600 18.7033 -0.5525
56.1800 18.7100 -0.5540
56.2000 18.7167 -0.5520
56.2200 18.7234 -0.5597
56.2400 18.7300 -0.5542
56.2600 18.7367 -0.5572
56.2800 18.7432 -0.5611
56.3000 18.7499 -0.5581
56.3200 18.7566 -0.5520
56.3400 18.7633 -0.5643
56.3600 18.7700 -0.5613
56.3800 18.7767 -0.5577
56.4000 18.7834 -0.5630
56.4200 18.7900 -0.5640
56.4400 18.7966 -0.5600
56.4600 18.8032 -0.5627
56.4800 18.8099 -0.5622
56.5000 18.8166 -0.5616
56.5200 18.8233 -0.5636
56.5400 18.8300 -0.5644
56.5600 18.8366 -0.5641
56.5800 18.8433 -0.5645
56.6000 18.8500 -0.5692
56.6200 18.8566 -0.5624
56.6400 18.8632 -0.5652
56.6600 18.8698 -0.5691
56.6800 18.8765 -0.5632
56.7000 18.8832 -0.5683
56.7200 18.8899 -0.5739
56.7400 18.8966 -0.5622
56.7600 18.9033 -0.5723
56.7800 18.9100 -0.5700
56.8000 18.9166 -0.5682
56.8200 18.9233 -0.5779
56.8400 18.9299 -0.5725
56.8600 18.9366 -0.5702
56.8800 18.9433 -0.5855
56.9000 18.9500 -0.5724
56.9200 18.9567 -0.5721
56.9400 18.9634 -0.5860
56.9600 18.9700 -0.5711
56.9800 18.9767 -0.5763
57.0000 18.9833 -0.5873
57.0200 18.9899 -0.5727
57.0400 18.9966 -0.5791
57.0600 19.0033 -0.5879
57.0800 19.0100 -0.5770
57.1000 19.0166 -0.5844
57.1200 19.0233 -0.5866
57.1400 19.0300 -0.5828
57.1600 19.0367 -0.5899
57.1800 19.0432 -0.5868
57.2000 19.0498 -0.5805
57.2200 19.0565 -0.5927
57.2400 19.0632 -0.5839
57.2600 19.0699 -0.5875
57.2800 19.0766 -0.5968
57.3000 19.0833 -0.5872
57.3200 19.0900 -0.5928
57.3400 19.0966 -0.5974
57.3600 19.1032 -0.5860
57.3800 19.1098 -0.5957
57.4000 19.1165 -0.5977
57.4200 19.1232 -0.5904
57.4400 19.1299 -0.5975
57.4600 19.1366 -0.5974
57.4800 19.1433 -0.5952
57.5000 19.1500 -0.6016
57.5200 19.1566 -0.6034
57.5400 19.1632 -0.5962
57.5600 19.1699 -0.6049
57.5800 19.1766 -0.6035
57.6000 19.1833 -0.5988
57.6200 19.1900 -0.6074
57.6400 19.1967 -0.6038
57.6600 19.2033 -0.5995
57.6800 19.2100 -0.6126
57.7000 19.2167 -0.6101
57.7200 19.2233 -0.6064
57.7400 19.2299 -0.6090
57.7600 19.2366 -0.6049
57.7800 19.2433 -0.6113
57.8000 19.2500 -0.6137
57.8200 19.2567 -0.6110
57.8400 19.2634 -0.6113
57.8600 19.2700 -0.6159
57.8800 19.2767 -0.6124
57.9000 19.2833 -0.6158
57.9200 19.2899 -0.6211
57.9400 19.2965 -0.6152
57.9600 19.3032 -0.6140
57.9800 19.3099 -0.6224
58.0000 19.3166 -0.6147
58.0200 19.3233 -0.6232
58.0400 19.3300 -0.6191
58.0600 19.3366 -0.6219
58.0800 19.3433 -0.6210
58.1000 19.3499 -0.6215
58.1200 19.3565 -0.6222
58.1400 19.3632 -0.6275
58.1600 19.3699 -0.6224
58.1800 19.3766 -0.6235
58.2000 19.3833 -0.6245
58.2200 19.3900 -0.6257
58.2400 19.3966 -0.6307
58.2600 19.4033 -0.6278
58.2800 19.4099 -0.6256
58.3000 19.4165 -0.6308
58.3200 19.4232 -0.6243
58.3400 19.4299 -0.6311
58.3600 19.4366 -0.6388
58.3800 19.4433 -0.6234
58.4000 19.4500 -0.6294
58.4200 19.4567 -0.6390
58.4400 19.4633 -0.6316
58.4600 19.4699 -0.6290
58.4800 19.4765 -0.6409
58.5000 19.4832 -0.6306
58.5200 19.4900 -0.6352
58.5400 19.4967 -0.6375
58.5600 19.5033 -0.6335
58.5800 19.5100 -0.6390
58.6000 19.5167 -0.6369
58.6200 19.5233 -0.6305
58.6400 19.5299 -0.6474
58.6600 19.5366 -0.6395
58.6800 19.5432 -0.6321
58.7000 19.5499 -0.6548
58.7200 19.5566 -0.6390
58.7400 19.5633 -0.6288
58.7600 19.5700 -0.6508
58.7800 19.5767 -0.6497
58.8000 19.5833 -0.6405
58.8200 19.5899 -0.6459
58.8400 19.5965 -0.6396
58.8600 19.6032 -0.6484
58.8800 19.6099 -0.6544
58.9000 19.6166 -0.6388
58.9200 19.6233 -0.6483
58.9400 19.6300 -0.6569
58.9600 19.6366 -0.6449
58.9800 19.6432 -0.6525
59.0000 19.6499 -0.6533
59.0200 19.6565 -0.6552
59.0400 19.6632 -0.6542
59.0600 19.6700 -0.6538
59.0800 19.6767 -0.6617
59.1000 19.6833 -0.6621
59.1200 19.6900 -0.6479
59.1400 19.6967 -0.6578
59.1600 19.7033 -0.6708
59.1800 19.7099 -0.6534
59.2000 19.7166 -0.6620
59.2200 19.7233 -0.6717
59.2400 19.7300 -0.6552
59.2600 19.7367 -0.6701
59.2800 19.7433 -0.6694
59.3000 19.7500 -0.6578
59.3200 19.7567 -0.6781
59.3400 19.7633 -0.6743
59.3600 19.7699 -0.6629
59.3800 19.7765 -0.6743
59.4000 19.7832 -0.6755
59.4200 19.7899 -0.6690
59.4400 19.7966 -0.6900
59.4600 19.8033 -0.6722
59.4800 19.8100 -0.6682
59.5000 19.8166 -0.6939
59.5200 19.8233 -0.6768
59.5400 19.8298 -0.6753
59.5600 19.8365 -0.6910
59.5800 19.8432 -0.6762
59.6000 19.8500 -0.6320
59.6200 19.8567 -0.5333
59.6400 19.8633 -0.3975
59.6600 19.8700 -0.2733
59.6800 19.8766 -0.1535
59.7000 19.8833 -0.0647
59.7200 19.8899 -0.0315
59.7400 19.8966 0.0282
59.7510 19.9002 0.0725
