Raw Data
Time Displacement Force
(s) (mm) (N)
0.0000 0.0000 0.6323
0.0200 0.0000 0.6219
0.0400 0.0008 0.6649
0.0600 0.0039 0.7245
0.0800 0.0095 0.7258
0.1000 0.0153 0.7601
0.1200 0.0212 0.8204
0.1400 0.0277 0.8254
0.1600 0.0349 0.8260
0.1800 0.0424 0.8358
0.2000 0.0497 0.8163
0.2200 0.0565 0.8181
0.2400 0.0632 0.8294
0.2600 0.0698 0.8181
0.2800 0.0765 0.8302
0.3000 0.0832 0.8345
0.3200 0.0899 0.8132
0.3400 0.0966 0.8347
0.3600 0.1033 0.8309
0.3800 0.1100 0.8236
0.4000 0.1167 0.8405
0.4200 0.1233 0.8338
0.4400 0.1299 0.8253
0.4600 0.1366 0.8392
0.4800 0.1433 0.8386
0.5000 0.1500 0.8313
0.5200 0.1567 0.8431
0.5400 0.1634 0.8348
0.5600 0.1701 0.8379
0.5800 0.1767 0.8478
0.6000 0.1833 0.8396
0.6200 0.1899 0.8423
0.6400 0.1966 0.8495
0.6600 0.2033 0.8402
0.6800 0.2100 0.8473
0.7000 0.2167 0.8465
0.7200 0.2234 0.8461
0.7400 0.2300 0.8459
0.7600 0.2367 0.8551
0.7800 0.2433 0.8448
0.8000 0.2499 0.8524
0.8200 0.2566 0.8586
0.8400 0.2633 0.8476
0.8600 0.2700 0.8607
0.8800 0.2766 0.8568
0.9000 0.2833 0.8480
0.9200 0.2900 0.8612
0.9400 0.2966 0.8606
0.9600 0.3032 0.8530
0.9800 0.3098 0.8640
1.0000 0.3165 0.8629
1.0200 0.3233 0.8521
1.0400 0.3300 0.8635
1.0600 0.3366 0.8641
1.0800 0.3433 0.8558
1.1000 0.3500 0.8624
1.1200 0.3566 0.8573
1.1400 0.3632 0.8601
1.1600 0.3699 0.8685
1.1800 0.3766 0.8553
1.2000 0.3833 0.8540
1.2200 0.3900 0.8688
1.2400 0.3967 0.8518
1.2600 0.4034 0.8510
1.2800 0.4101 0.8694
1.3000 0.4167 0.8453
1.3200 0.4233 0.8548
1.3400 0.4300 0.8631
1.3600 0.4366 0.8368
1.3800 0.4433 0.8593
1.4000 0.4500 0.8609
1.4200 0.4567 0.8323
1.4400 0.4634 0.8581
1.4600 0.4701 0.8596
1.4800 0.4767 0.8336
1.5000 0.4833 0.8503
1.5200 0.4899 0.8524
1.5400 0.4966 0.8347
1.5600 0.5033 0.8490
1.5800 0.5100 0.8435
1.6000 0.5167 0.8325
1.6200 0.5233 0.8464
1.6400 0.5300 0.8361
1.6600 0.5366 0.8320
1.6800 0.5432 0.8487
1.7000 0.5499 0.8266
1.7200 0.5566 0.8295
1.7400 0.5633 0.8387
1.7600 0.5700 0.8219
1.7800 0.5766 0.8318
1.8000 0.5833 0.8322
1.8200 0.5900 0.8249
1.8400 0.5967 0.8220
1.8600 0.6033 0.8271
1.8800 0.6099 0.8255
1.9000 0.6166 0.8267
1.9200 0.6233 0.8204
1.9400 0.6300 0.8184
1.9600 0.6367 0.8182
1.9800 0.6434 0.8138
2.0000 0.6500 0.8154
2.0200 0.6567 0.8181
2.0400 0.6633 0.8119
2.0600 0.6699 0.8148
2.0800 0.6766 0.8141
2.1000 0.6833 0.8122
2.1200 0.6900 0.8107
2.1400 0.6967 0.8129
2.1600 0.7034 0.8068
2.1800 0.7100 0.8035
2.2000 0.7167 0.8080
2.2200 0.7233 0.8099
2.2400 0.7299 0.8020
2.2600 0.7366 0.8005
2.2800 0.7433 0.8080
2.3000 0.7500 0.8022
2.3200 0.7567 0.8009
2.3400 0.7633 0.8018
2.3600 0.7700 0.7994
2.3800 0.7767 0.7992
2.4000 0.7833 0.8015
2.4200 0.7899 0.7952
2.4400 0.7966 0.8026
2.4600 0.8033 0.7936
2.4800 0.8100 0.7898
2.5000 0.8166 0.7967
2.5200 0.8234 0.7977
2.5400 0.8301 0.7898
2.5600 0.8367 0.7848
2.5800 0.8433 0.7936
2.6000 0.8499 0.7927
2.6200 0.8566 0.7873
2.6400 0.8633 0.7860
2.6600 0.8700 0.7912
2.6800 0.8767 0.7863
2.7000 0.8834 0.7859
2.7200 0.8900 0.7863
2.7400 0.8967 0.7811
2.7600 0.9033 0.7804
2.7800 0.9099 0.7962
2.8000 0.9166 0.7801
2.8200 0.9233 0.7766
2.8400 0.9300 0.7858
2.8600 0.9367 0.7825
2.8800 0.9434 0.7749
2.9000 0.9501 0.7876
2.9200 0.9567 0.7776
2.9400 0.9633 0.7692
2.9600 0.9699 0.7842
2.9800 0.9766 0.7775
3.0000 0.9833 0.7761
3.0200 0.9900 0.7794
3.0400 0.9967 0.7700
3.0600 1.0034 0.7728
3.0800 1.0100 0.7747
3.1000 1.0167 0.7716
3.1200 1.0233 0.7727
3.1400 1.0299 0.7735
3.1600 1.0365 0.7774
3.1800 1.0433 0.7684
3.2000 1.0500 0.7756
3.2200 1.0567 0.7683
3.2400 1.0633 0.7643
3.2600 1.0700 0.7679
3.2800 1.0767 0.7658
3.3000 1.0833 0.7694
3.3200 1.0899 0.7643
3.3400 1.0966 0.7652
3.3600 1.1033 0.7646
3.3800 1.1100 0.7704
3.4000 1.1167 0.7659
3.4200 1.1234 0.7638
3.4400 1.1301 0.7671
3.4600 1.1367 0.7557
3.4800 1.1433 0.7650
3.5000 1.1499 0.7750
3.5200 1.1566 0.7581
3.5400 1.1633 0.7569
3.5600 1.1700 0.7681
3.5800 1.1767 0.7659
3.6000 1.1834 0.7559
3.6200 1.1900 0.7639
3.6400 1.1967 0.7545
3.6600 1.2033 0.7505
3.6800 1.2099 0.7690
3.7000 1.2166 0.7592
3.7200 1.2233 0.7498
3.7400 1.2300 0.7647
3.7600 1.2367 0.7565
3.7800 1.2433 0.7532
3.8000 1.2500 0.7642
3.8200 1.2567 0.7596
3.8400 1.2633 0.7503
3.8600 1.2699 0.7569
3.8800 1.2766 0.7495
3.9000 1.2833 0.7527
3.9200 1.2900 0.7624
3.9400 1.2966 0.7470
3.9600 1.3033 0.7501
3.9800 1.3100 0.7558
4.0000 1.3167 0.7533
4.0200 1.3233 0.7461
4.0400 1.3299 0.7566
4.0600 1.3366 0.7501
4.0800 1.3433 0.7489
4.1000 1.3500 0.7458
4.1200 1.3567 0.7471
4.1400 1.3633 0.7530
4.1600 1.3700 0.7523
4.1800 1.3767 0.7415
4.2000 1.3833 0.7469
4.2200 1.3899 0.7528
4.2400 1.3966 0.7431
4.2600 1.4033 0.7493
4.2800 1.4100 0.7530
4.3000 1.4167 0.7391
4.3200 1.4234 0.7377
4.3400 1.4300 0.7484
4.3600 1.4367 0.7417
4.3800 1.4433 0.7416
4.4000 1.4499 0.7429
4.4200 1.4566 0.7379
4.4400 1.4633 0.7437
4.4600 1.4700 0.7449
4.4800 1.4766 0.7331
4.5000 1.4833 0.7388
4.5200 1.4900 0.7414
4.5400 1.4967 0.7348
4.5600 1.5033 0.7330
4.5800 1.5099 0.7339
4.6000 1.5166 0.7366
4.6200 1.5233 0.7426
4.6400 1.5300 0.7322
4.6600 1.5367 0.7319
4.6800 1.5433 0.7397
4.7000 1.5500 0.7279
4.7200 1.5567 0.7289
4.7400 1.5633 0.7319
4.7600 1.5699 0.7221
4.7800 1.5766 0.7330
4.8000 1.5833 0.7288
4.8200 1.5900 0.7198
4.8400 1.5967 0.7341
4.8600 1.6034 0.7257
4.8800 1.6101 0.7224
4.9000 1.6167 0.7250
4.9200 1.6233 0.7255
4.9400 1.6299 0.7212
4.9600 1.6366 0.7245
4.9800 1.6433 0.7181
5.0000 1.6500 0.7227
5.0200 1.6567 0.7259
5.0400 1.6634 0.7105
5.0600 1.6701 0.7206
5.0800 1.6767 0.7293
5.1000 1.6833 0.7134
5.1200 1.6899 0.7165
5.1400 1.6965 0.7209
5.1600 1.7032 0.7041
5.1800 1.7100 0.7183
5.2000 1.7167 0.7155
5.2200 1.7234 0.7017
5.2400 1.7301 0.7138
5.2600 1.7367 0.7154
5.2800 1.7433 0.6968
5.3000 1.7499 0.7189
5.3200 1.7565 0.7164
5.3400 1.7632 0.6977
5.3600 1.7700 0.7092
5.3800 1.7766 0.7063
5.4000 1.7833 0.6939
5.4200 1.7900 0.7165
5.4400 1.7967 0.7030
5.4600 1.8033 0.6899
5.4800 1.8099 0.7126
5.5000 1.8166 0.7051
5.5200 1.8233 0.6948
5.5400 1.8300 0.7070
5.5600 1.8367 0.6933
5.5800 1.8434 0.6910
5.6000 1.8501 0.7087
5.6200 1.8568 0.6928
5.6400 1.8634 0.6950
5.6600 1.8699 0.7026
5.6800 1.8766 0.6966
5.7000 1.8833 0.6968
5.7200 1.8900 0.6965
5.7400 1.8967 0.6934
5.7600 1.9034 0.6935
5.7800 1.9100 0.6896
5.8000 1.9167 0.6943
5.8200 1.9233 0.6896
5.8400 1.9299 0.6889
5.8600 1.9366 0.6938
5.8800 1.9433 0.6881
5.9000 1.9500 0.6856
5.9200 1.9566 0.6924
5.9400 1.9633 0.6878
5.9600 1.9700 0.6828
5.9800 1.9767 0.6890
6.0000 1.9833 0.6838
6.0200 1.9899 0.6819
6.0400 1.9965 0.6873
6.0600 2.0032 0.6798
6.0800 2.0099 0.6815
6.1000 2.0166 0.6827
6.1200 2.0233 0.6784
6.1400 2.0300 0.6875
6.1600 2.0367 0.6794
6.1800 2.0434 0.6720
6.2000 2.0500 0.6791
6.2200 2.0566 0.6806
6.2400 2.0633 0.6684
6.2600 2.0700 0.6769
6.2800 2.0767 0.6751
6.3000 2.0834 0.6709
6.3200 2.0901 0.6763
6.3400 2.0967 0.6720
6.3600 2.1033 0.6705
6.3800 2.1099 0.6689
6.4000 2.1166 0.6703
6.4200 2.1233 0.6710
6.4400 2.1300 0.6670
6.4600 2.1367 0.6644
6.4800 2.1434 0.6644
6.5000 2.1500 0.6668
6.5200 2.1567 0.6666
6.5400 2.1634 0.6670
6.5600 2.1700 0.6633
6.5800 2.1766 0.6637
6.6000 2.1833 0.6679
6.6200 2.1900 0.6611
6.6400 2.1967 0.6655
6.6600 2.2033 0.6596
6.6800 2.2100 0.6610
6.7000 2.2167 0.6595
6.7200 2.2234 0.6556
6.7400 2.2299 0.6616
6.7600 2.2365 0.6578
6.7800 2.2432 0.6571
6.8000 2.2499 0.6554
6.8200 2.2566 0.6573
6.8400 2.2633 0.6516
6.8600 2.2700 0.6556
6.8800 2.2767 0.6562
6.9000 2.2833 0.6508
6.9200 2.2899 0.6522
6.9400 2.2966 0.6520
6.9600 2.3032 0.6537
6.9800 2.3100 0.6548
7.0000 2.3167 0.6487
7.0200 2.3233 0.6546
7.0400 2.3300 0.6495
7.0600 2.3367 0.6531
7.0800 2.3434 0.6460
7.1000 2.3500 0.6487
7.1200 2.3566 0.6461
7.1400 2.3633 0.6497
7.1600 2.3700 0.6524
7.1800 2.3767 0.6441
7.2000 2.3833 0.6476
7.2200 2.3900 0.6498
7.2400 2.3967 0.6434
7.2600 2.4034 0.6414
7.2800 2.4100 0.6427
7.3000 2.4166 0.6438
7.3200 2.4232 0.6451
7.3400 2.4300 0.6391
7.3600 2.4367 0.6399
7.3800 2.4434 0.6432
7.4000 2.4500 0.6436
7.4200 2.4567 0.6351
7.4400 2.4633 0.6417
7.4600 2.4699 0.6350
7.4800 2.4766 0.6401
7.5000 2.4832 0.6378
7.5200 2.4900 0.6284
7.5400 2.4966 0.6394
7.5600 2.5033 0.6370
7.5800 2.5100 0.6246
7.6000 2.5167 0.6374
7.6200 2.5233 0.6475
7.6400 2.5300 0.6308
7.6600 2.5366 0.6131
7.6800 2.5433 0.6377
7.7000 2.5500 0.6450
7.7200 2.5567 0.6205
7.7400 2.5634 0.6239
7.7600 2.5701 0.6365
7.7800 2.5767 0.6369
7.8000 2.5834 0.6165
7.8200 2.5900 0.6208
7.8400 2.5966 0.6426
7.8600 2.6033 0.6368
7.8800 2.6100 0.6121
7.9000 2.6167 0.6182
7.9200 2.6234 0.6405
7.9400 2.6300 0.6276
7.9600 2.6367 0.6078
7.9800 2.6433 0.6220
8.0000 2.6500 0.6391
8.0200 2.6566 0.6222
8.0400 2.6633 0.6022
8.0600 2.6700 0.6246
8.0800 2.6767 0.6342
8.1000 2.6833 0.6166
8.1200 2.6900 0.6090
8.1400 2.6967 0.6149
8.1600 2.7033 0.6404
8.1800 2.7099 0.6122
8.2000 2.7165 0.5991
8.2200 2.7232 0.6266
8.2400 2.7299 0.6328
8.2600 2.7367 0.6043
8.2800 2.7434 0.6056
8.3000 2.7500 0.6208
8.3200 2.7567 0.6186
8.3400 2.7634 0.6143
8.3600 2.7700 0.6041
8.3800 2.7766 0.6089
8.4000 2.7832 0.6316
8.4200 2.7899 0.6015
8.4400 2.7966 0.5971
8.4600 2.8033 0.6274
8.4800 2.8100 0.6128
8.5000 2.8167 0.5954
8.5200 2.8234 0.6075
8.5400 2.8300 0.6107
8.5600 2.8366 0.6038
8.5800 2.8433 0.6138
8.6000 2.8500 0.5958
8.6200 2.8567 0.6014
8.6400 2.8634 0.6162
8.6600 2.8701 0.5993
8.6800 2.8767 0.6030
8.7000 2.8834 0.6163
8.7200 2.8900 0.6005
8.7400 2.8966 0.6009
8.7600 2.9032 0.6048
8.7800 2.9099 0.6029
8.8000 2.9166 0.6044
8.8200 2.9233 0.6018
8.8400 2.9300 0.5916
8.8600 2.9367 0.5984
8.8800 2.9433 0.6085
8.9000 2.9499 0.5955
8.9200 2.9565 0.5935
8.9400 2.9632 0.6036
8.9600 2.9699 0.5990
8.9800 2.9766 0.5902
9.0000 2.9833 0.5971
9.0200 2.9900 0.5985
9.0400 2.9967 0.5915
9.0600 3.0033 0.5957
9.0800 3.0100 0.5930
9.1000 3.0166 0.5913
9.1200 3.0233 0.6057
9.1400 3.0300 0.5903
9.1600 3.0367 0.5870
9.1800 3.0434 0.5986
9.2000 3.0500 0.5948
9.2200 3.0567 0.5843
9.2400 3.0634 0.5942
9.2600 3.0700 0.5923
9.2800 3.0766 0.5889
9.3000 3.0832 0.5910
9.3200 3.0900 0.5844
9.3400 3.0967 0.5947
9.3600 3.1034 0.5905
9.3800 3.1101 0.5749
9.4000 3.1167 0.5895
9.4200 3.1234 0.5893
9.4400 3.1300 0.5794
9.4600 3.1366 0.5917
9.4800 3.1432 0.5859
9.5000 3.1499 0.5850
9.5200 3.1566 0.5834
9.5400 3.1633 0.5846
9.5600 3.1700 0.5847
9.5800 3.1767 0.5860
9.6000 3.1834 0.5786
9.6200 3.1900 0.5794
9.6400 3.1966 0.5852
9.6600 3.2032 0.5760
9.6800 3.2099 0.5754
9.7000 3.2166 0.5842
9.7200 3.2233 0.5767
9.7400 3.2300 0.5765
9.7600 3.2367 0.5815
9.7800 3.2433 0.5762
9.8000 3.2500 0.5710
9.8200 3.2566 0.5755
9.8400 3.2632 0.5752
9.8600 3.2699 0.5759
9.8800 3.2767 0.5770
9.9000 3.2834 0.5698
9.9200 3.2901 0.5765
9.9400 3.2967 0.5810
9.9600 3.3034 0.5680
9.9800 3.3100 0.5667
10.0000 3.3166 0.5784
10.0200 3.3233 0.5687
10.0400 3.3300 0.5680
10.0600 3.3367 0.5628
10.0800 3.3434 0.5712
10.1000 3.3500 0.5720
10.1200 3.3567 0.5609
10.1400 3.3634 0.5728
10.1600 3.3700 0.5794
10.1800 3.3766 0.5582
10.2000 3.3832 0.5592
10.2200 3.3899 0.5799
10.2400 3.3966 0.5599
10.2600 3.4033 0.5514
10.2800 3.4100 0.5732
10.3000 3.4167 0.5611
10.3200 3.4234 0.5558
10.3400 3.4300 0.5689
10.3600 3.4366 0.5559
10.3800 3.4432 0.5642
10.4000 3.4499 0.5626
10.4200 3.4566 0.5496
10.4400 3.4633 0.5592
10.4600 3.4700 0.5682
10.4800 3.4767 0.5442
10.5000 3.4834 0.5594
10.5200 3.4900 0.5698
10.5400 3.4966 0.5473
10.5600 3.5033 0.5591
10.5800 3.5099 0.5611
10.6000 3.5166 0.5451
10.6200 3.5233 0.5545
10.6400 3.5300 0.5582
10.6600 3.5367 0.5454
10.6800 3.5434 0.5548
10.7000 3.5500 0.5512
10.7200 3.5566 0.5444
10.7400 3.5632 0.5588
10.7600 3.5699 0.5543
10.7800 3.5766 0.5381
10.8000 3.5833 0.5548
10.8200 3.5900 0.5388
10.8400 3.5967 0.5520
10.8600 3.6034 0.5514
10.8800 3.6100 0.5305
10.9000 3.6166 0.5493
10.9200 3.6232 0.5573
10.9400 3.6299 0.5318
10.9600 3.6367 0.5459
10.9800 3.6434 0.5562
11.0000 3.6500 0.5340
11.0200 3.6567 0.5411
11.0400 3.6634 0.5418
11.0600 3.6700 0.5323
11.0800 3.6766 0.5527
11.1000 3.6832 0.5374
11.1200 3.6899 0.5240
11.1400 3.6966 0.5532
11.1600 3.7033 0.5426
11.1800 3.7100 0.5296
11.2000 3.7167 0.5478
11.2200 3.7233 0.5380
11.2400 3.7300 0.5211
11.2600 3.7366 0.5474
11.2800 3.7432 0.5371
11.3000 3.7499 0.5227
11.3200 3.7566 0.5453
11.3400 3.7634 0.5303
11.3600 3.7701 0.5214
11.3800 3.7768 0.5453
11.4000 3.7834 0.5354
11.4200 3.7900 0.5247
11.4400 3.7966 0.5316
11.4600 3.8032 0.5300
11.4800 3.8099 0.5304
11.5000 3.8167 0.5316
11.5200 3.8234 0.5282
11.5400 3.8301 0.5176
11.5600 3.8367 0.5311
11.5800 3.8434 0.5304
11.6000 3.8500 0.5264
11.6200 3.8566 0.5312
11.6400 3.8632 0.5219
11.6600 3.8699 0.5235
11.6800 3.8766 0.5280
11.7000 3.8833 0.5200
11.7200 3.8900 0.5318
11.7400 3.8966 0.5245
11.7600 3.9033 0.5108
11.7800 3.9100 0.5235
11.8000 3.9166 0.5373
11.8200 3.9232 0.5168
11.8400 3.9299 0.5210
11.8600 3.9366 0.5209
11.8800 3.9433 0.5078
11.9000 3.9500 0.5232
11.9200 3.9567 0.5256
11.9400 3.9634 0.5073
11.9600 3.9700 0.5169
11.9800 3.9766 0.5196
12.0000 3.9832 0.5087
12.0200 3.9899 0.5280
12.0400 3.9966 0.5173
12.0600 4.0034 0.4972
12.0800 4.0100 0.5179
12.1000 4.0167 0.5207
12.1200 4.0234 0.4952
12.1400 4.0300 0.5147
12.1600 4.0367 0.5215
12.1800 4.0433 0.5010
12.2000 4.0500 0.5075
12.2200 4.0567 0.5239
12.2400 4.0633 0.4976
12.2600 4.0700 0.5047
12.2800 4.0767 0.5173
12.3000 4.0834 0.4931
12.3200 4.0901 0.5044
12.3400 4.0966 0.5126
12.3600 4.1032 0.4975
12.3800 4.1099 0.5062
12.4000 4.1166 0.5095
12.4200 4.1233 0.4957
12.4400 4.1300 0.5101
12.4600 4.1367 0.5011
12.4800 4.1434 0.4914
12.5000 4.1500 0.5052
12.5200 4.1566 0.4989
12.5400 4.1632 0.4880
12.5600 4.1699 0.5062
12.5800 4.1766 0.4983
12.6000 4.1833 0.4891
12.6200 4.1900 0.5051
12.6400 4.1967 0.4987
12.6600 4.2034 0.4873
12.6800 4.2100 0.5005
12.7000 4.2166 0.4967
12.7200 4.2233 0.4905
12.7400 4.2299 0.4969
12.7600 4.2366 0.4889
12.7800 4.2433 0.4937
12.8000 4.2500 0.4968
12.8200 4.2567 0.4940
12.8400 4.2634 0.4887
12.8600 4.2701 0.4935
12.8800 4.2767 0.4914
12.9000 4.2833 0.4882
12.9200 4.2899 0.4881
12.9400 4.2966 0.4893
12.9600 4.3033 0.4891
12.9800 4.3101 0.4849
13.0000 4.3167 0.4898
13.0200 4.3234 0.4879
13.0400 4.3300 0.4865
13.0600 4.3366 0.4925
13.0800 4.3432 0.4860
13.1000 4.3499 0.4865
13.1200 4.3566 0.4868
13.1400 4.3634 0.4798
13.1600 4.3700 0.4817
13.1800 4.3767 0.4869
13.2000 4.3834 0.4793
13.2200 4.3900 0.4847
13.2400 4.3966 0.4855
13.2600 4.4032 0.4815
13.2800 4.4099 0.4856
13.3000 4.4166 0.4789
13.3200 4.4233 0.4797
13.3400 4.4300 0.4821
13.3600 4.4367 0.4767
13.3800 4.4434 0.4754
13.4000 4.4500 0.4808
13.4200 4.4566 0.4762
13.4400 4.4632 0.4815
13.4600 4.4699 0.4807
13.4800 4.4766 0.4749
13.5000 4.4834 0.4755
13.5200 4.4901 0.4785
13.5400 4.4967 0.4726
13.5600 4.5034 0.4774
13.5800 4.5101 0.4743
13.6000 4.5167 0.4686
13.6200 4.5233 0.4818
13.6400 4.5299 0.4708
13.6600 4.5366 0.4737
13.6800 4.5433 0.4739
13.7000 4.5500 0.4737
13.7200 4.5567 0.4711
13.7400 4.5634 0.4701
13.7600 4.5700 0.4678
13.7800 4.5766 0.4652
13.8000 4.5832 0.4714
13.8200 4.5899 0.4760
13.8400 4.5966 0.4662
13.8600 4.6033 0.4721
13.8800 4.6100 0.4706
13.9000 4.6167 0.4635
13.9200 4.6234 0.4709
13.9400 4.6300 0.4700
13.9600 4.6366 0.4625
13.9800 4.6432 0.4653
14.0000 4.6499 0.4679
14.0200 4.6566 0.4599
14.0400 4.6633 0.4673
14.0600 4.6700 0.4684
14.0800 4.6767 0.4598
14.1000 4.6834 0.4609
14.1200 4.6900 0.4632
14.1400 4.6966 0.4574
14.1600 4.7032 0.4656
14.1800 4.7099 0.4605
14.2000 4.7166 0.4615
14.2200 4.7233 0.4599
14.2400 4.7300 0.4550
14.2600 4.7367 0.4633
14.2800 4.7434 0.4644
14.3000 4.7501 0.4536
14.3200 4.7567 0.4561
14.3400 4.7633 0.4583
14.3600 4.7699 0.4546
14.3800 4.7766 0.4555
14.4000 4.7833 0.4598
14.4200 4.7900 0.4541
14.4400 4.7967 0.4482
14.4600 4.8034 0.4566
14.4800 4.8101 0.4541
14.5000 4.8167 0.4500
14.5200 4.8233 0.4552
14.5400 4.8299 0.4541
14.5600 4.8366 0.4451
14.5800 4.8433 0.4564
14.6000 4.8500 0.4476
14.6200 4.8567 0.4512
14.6400 4.8633 0.4537
14.6600 4.8700 0.4443
14.6800 4.8767 0.4488
14.7000 4.8833 0.4594
14.7200 4.8899 0.4441
14.7400 4.8966 0.4457
14.7600 4.9033 0.4536
14.7800 4.9100 0.4412
14.8000 4.9166 0.4424
14.8200 4.9233 0.4496
14.8400 4.9300 0.4429
14.8600 4.9367 0.4442
14.8800 4.9433 0.4451
14.9000 4.9499 0.4429
14.9200 4.9566 0.4473
14.9400 4.9633 0.4367
14.9600 4.9700 0.4395
14.9800 4.9767 0.4400
15.0000 4.9834 0.4394
15.0200 4.9901 0.4373
15.0400 4.9967 0.4349
15.0600 5.0033 0.4405
15.0800 5.0099 0.4418
15.1000 5.0166 0.4321
15.1200 5.0233 0.4432
15.1400 5.0300 0.4351
15.1600 5.0367 0.4299
15.1800 5.0434 0.4372
15.2000 5.0500 0.4356
15.2200 5.0567 0.4274
15.2400 5.0633 0.4367
15.2600 5.0699 0.4359
15.2800 5.0766 0.4241
15.3000 5.0833 0.4396
15.3200 5.0900 0.4298
15.3400 5.0967 0.4289
15.3600 5.1034 0.4317
15.3800 5.1100 0.4195
15.4000 5.1167 0.4289
15.4200 5.1232 0.4352
15.4400 5.1298 0.4199
15.4600 5.1365 0.4270
15.4800 5.1433 0.4319
15.5000 5.1500 0.4235
15.5200 5.1567 0.4253
15.5400 5.1633 0.4300
15.5600 5.1700 0.4161
15.5800 5.1766 0.4233
15.6000 5.1832 0.4232
15.6200 5.1899 0.4162
15.6400 5.1966 0.4262
15.6600 5.2033 0.4237
15.6800 5.2100 0.4155
15.7000 5.2167 0.4156
15.7200 5.2234 0.4216
15.7400 5.2301 0.4204
15.7600 5.2367 0.4095
15.7800 5.2433 0.4196
15.8000 5.2500 0.4212
15.8200 5.2566 0.4093
15.8400 5.2633 0.4180
15.8600 5.2700 0.4141
15.8800 5.2767 0.4163
15.9000 5.2834 0.4153
15.9200 5.2901 0.4137
15.9400 5.2967 0.4083
15.9600 5.3033 0.4197
15.9800 5.3099 0.4112
16.0000 5.3166 0.4074
16.0200 5.3233 0.4211
16.0400 5.3300 0.4040
16.0600 5.3367 0.4066
16.0800 5.3433 0.4156
16.1000 5.3500 0.4024
16.1200 5.3567 0.4111
16.1400 5.3633 0.4188
16.1600 5.3699 0.4030
16.1800 5.3766 0.4085
16.2000 5.3833 0.4152
16.2200 5.3900 0.4022
16.2400 5.3967 0.4065
16.2600 5.4033 0.4129
16.2800 5.4100 0.3970
16.3000 5.4167 0.4043
16.3200 5.4233 0.3999
16.3400 5.4300 0.4074
16.3600 5.4366 0.4035
16.3800 5.4433 0.3989
16.4000 5.4500 0.4062
16.4200 5.4567 0.3960
16.4400 5.4634 0.3983
16.4600 5.4701 0.4090
16.4800 5.4767 0.3875
16.5000 5.4833 0.3945
16.5200 5.4899 0.4159
16.5400 5.4966 0.3909
16.5600 5.5033 0.3929
16.5800 5.5100 0.4101
16.6000 5.5167 0.3868
16.6200 5.5234 0.3935
16.6400 5.5300 0.4050
16.6600 5.5367 0.3826
16.6800 5.5433 0.3994
16.7000 5.5499 0.3991
16.7200 5.5566 0.3836
16.7400 5.5633 0.4008
16.7600 5.5700 0.3993
16.7800 5.5767 0.3812
16.8000 5.5833 0.3978
16.8200 5.5900 0.3965
16.8400 5.5967 0.3849
16.8600 5.6033 0.3925
16.8800 5.6099 0.3886
16.9000 5.6166 0.3853
16.9200 5.6232 0.3930
16.9400 5.6299 0.3857
16.9600 5.6366 0.3851
16.9800 5.6433 0.3930
17.0000 5.6500 0.3854
17.0200 5.6567 0.3849
17.0400 5.6633 0.3874
17.0600 5.6699 0.3872
17.0800 5.6766 0.3830
17.1000 5.6833 0.3846
17.1200 5.6900 0.3784
17.1400 5.6967 0.3850
17.1600 5.7034 0.3861
17.1800 5.7100 0.3822
17.2000 5.7167 0.3812
17.2200 5.7233 0.3850
17.2400 5.7299 0.3809
17.2600 5.7366 0.3784
17.2800 5.7433 0.3816
17.3000 5.7500 0.3821
17.3200 5.7567 0.3739
17.3400 5.7634 0.3801
17.3600 5.7701 0.3834
17.3800 5.7767 0.3737
17.4000 5.7833 0.3770
17.4200 5.7899 0.3787
17.4400 5.7966 0.3699
17.4600 5.8033 0.3785
17.4800 5.8100 0.3776
17.5000 5.8167 0.3685
17.5200 5.8233 0.3744
17.5400 5.8300 0.3733
17.5600 5.8367 0.3674
17.5800 5.8433 0.3747
17.6000 5.8499 0.3774
17.6200 5.8565 0.3662
17.6400 5.8633 0.3762
17.6600 5.8700 0.3718
17.6800 5.8767 0.3620
17.7000 5.8833 0.3774
17.7200 5.8900 0.3664
17.7400 5.8967 0.3580
17.7600 5.9033 0.3784
17.7800 5.9099 0.3658
17.8000 5.9166 0.3635
17.8200 5.9233 0.3749
17.8400 5.9300 0.3638
17.8600 5.9367 0.3606
17.8800 5.9434 0.3685
17.9000 5.9501 0.3615
17.9200 5.9568 0.3610
17.9400 5.9634 0.3682
17.9600 5.9700 0.3579
17.9800 5.9766 0.3684
18.0000 5.9833 0.3638
18.0200 5.9900 0.3566
18.0400 5.9967 0.3659
18.0600 6.0034 0.3581
18.0800 6.0101 0.3557
18.1000 6.0167 0.3626
18.1200 6.0233 0.3569
18.1400 6.0299 0.3588
18.1600 6.0366 0.3549
18.1800 6.0433 0.3564
18.2000 6.0500 0.3611
18.2200 6.0567 0.3550
18.2400 6.0633 0.3529
18.2600 6.0700 0.3594
18.2800 6.0767 0.3538
18.3000 6.0833 0.3484
18.3200 6.0899 0.3610
18.3400 6.0966 0.3485
18.3600 6.1033 0.3470
18.3800 6.1100 0.3577
18.4000 6.1166 0.3495
18.4200 6.1233 0.3478
18.4400 6.1300 0.3555
18.4600 6.1367 0.3448
18.4800 6.1433 0.3436
18.5000 6.1499 0.3510
18.5200 6.1566 0.3518
18.5400 6.1633 0.3427
18.5600 6.1700 0.3465
18.5800 6.1767 0.3490
18.6000 6.1834 0.3449
18.6200 6.1900 0.3455
18.6400 6.1967 0.3434
18.6600 6.2033 0.3417
18.6800 6.2099 0.3419
18.7000 6.2166 0.3442
18.7200 6.2233 0.3416
18.7400 6.2300 0.3428
18.7600 6.2367 0.3375
18.7800 6.2434 0.3382
18.8000 6.2500 0.3432
18.8200 6.2567 0.3408
18.8400 6.2634 0.3317
18.8600 6.2700 0.3445
18.8800 6.2766 0.3392
18.9000 6.2833 0.3337
18.9200 6.2899 0.3361
18.9400 6.2966 0.3427
18.9600 6.3033 0.3286
18.9800 6.3100 0.3375
19.0000 6.3167 0.3372
19.0200 6.3233 0.3255
19.0400 6.3299 0.3418
19.0600 6.3365 0.3360
19.0800 6.3432 0.3249
19.1000 6.3499 0.3395
19.1200 6.3566 0.3349
19.1400 6.3633 0.3242
19.1600 6.3700 0.3375
19.1800 6.3767 0.3286
19.2000 6.3833 0.3235
19.2200 6.3899 0.3368
19.2400 6.3966 0.3312
19.2600 6.4033 0.3239
19.2800 6.4100 0.3329
19.3000 6.4167 0.3229
19.3200 6.4234 0.3272
19.3400 6.4300 0.3311
19.3600 6.4367 0.3254
19.3800 6.4433 0.3229
19.4000 6.4500 0.3276
19.4200 6.4566 0.3253
19.4400 6.4633 0.3283
19.4600 6.4700 0.3232
19.4800 6.4767 0.3247
19.5000 6.4834 0.3207
19.5200 6.4900 0.3214
19.5400 6.4967 0.3264
19.5600 6.5034 0.3168
19.5800 6.5099 0.3208
19.6000 6.5166 0.3242
19.6200 6.5232 0.3205
19.6400 6.5300 0.3197
19.6600 6.5367 0.3288
19.6800 6.5434 0.3173
19.7000 6.5500 0.3167
19.7200 6.5567 0.3211
19.7400 6.5633 0.3149
19.7600 6.5699 0.3169
19.7800 6.5765 0.3227
19.8000 6.5832 0.3122
19.8200 6.5900 0.3153
19.8400 6.5967 0.3230
19.8600 6.6033 0.3137
19.8800 6.6100 0.3112
19.9000 6.6166 0.3237
19.9200 6.6233 0.3063
19.9400 6.6299 0.3094
19.9600 6.6366 0.3232
19.9800 6.6433 0.3046
20.0000 6.6500 0.3110
20.0200 6.6567 0.3176
20.0400 6.6633 0.3105
20.0600 6.6701 0.3112
20.0800 6.6768 0.3092
20.1000 6.6834 0.3047
20.1200 6.6900 0.3121
20.1400 6.6966 0.3129
20.1600 6.7033 0.3081
20.1800 6.7100 0.3070
20.2000 6.7167 0.3084
20.2200 6.7234 0.3050
20.2400 6.7301 0.3100
20.2600 6.7367 0.3034
20.2800 6.7433 0.3050
20.3000 6.7499 0.3069
20.3200 6.7566 0.3039
20.3400 6.7632 0.3046
20.3600 6.7700 0.3043
20.3800 6.7766 0.3077
20.4000 6.7833 0.3039
20.4200 6.7900 0.3002
20.4400 6.7967 0.3017
20.4600 6.8033 0.3035
20.4800 6.8099 0.2975
20.5000 6.8166 0.3019
20.5200 6.8232 0.2989
20.5400 6.8299 0.2948
20.5600 6.8366 0.3000
20.5800 6.8433 0.2989
20.6000 6.8500 0.2897
20.6200 6.8567 0.3077
20.6400 6.8634 0.2942
20.6600 6.8700 0.2896
20.6800 6.8766 0.3043
20.7000 6.8833 0.2968
20.7200 6.8900 0.2870
20.7400 6.8967 0.2992
20.7600 6.9034 0.2960
20.7800 6.9101 0.2879
20.8000 6.9167 0.2957
20.8200 6.9234 0.2903
20.8400 6.9300 0.2904
20.8600 6.9366 0.2982
20.8800 6.9433 0.2908
20.9000 6.9500 0.2867
20.9200 6.9567 0.2914
20.9400 6.9634 0.2916
20.9600 6.9700 0.2898
20.9800 6.9767 0.2884
21.0000 6.9834 0.2845
21.0200 6.9900 0.2834
21.0400 6.9966 0.2916
21.0600 7.0033 0.2905
21.0800 7.0100 0.2878
21.1000 7.0166 0.2860
21.1200 7.0233 0.2839
21.1400 7.0300 0.2868
21.1600 7.0367 0.2865
21.1800 7.0434 0.2871
21.2000 7.0499 0.2802
21.2200 7.0565 0.2868
21.2400 7.0632 0.2884
21.2600 7.0699 0.2829
21.2800 7.0766 0.2858
21.3000 7.0833 0.2831
21.3200 7.0900 0.2753
21.3400 7.0966 0.2852
21.3600 7.1033 0.2824
21.3800 7.1099 0.2769
21.4000 7.1166 0.2814
21.4200 7.1232 0.2840
21.4400 7.1300 0.2737
21.4600 7.1367 0.2842
21.4800 7.1433 0.2856
21.5000 7.1500 0.2743
21.5200 7.1567 0.2786
21.5400 7.1634 0.2759
21.5600 7.1700 0.2700
21.5800 7.1766 0.2826
21.6000 7.1833 0.2730
21.6200 7.1899 0.2703
21.6400 7.1967 0.2777
21.6600 7.2033 0.2700
21.6800 7.2100 0.2760
21.7000 7.2167 0.2758
21.7200 7.2234 0.2718
21.7400 7.2300 0.2696
21.7600 7.2366 0.2722
21.7800 7.2432 0.2710
21.8000 7.2500 0.2649
21.8200 7.2567 0.2717
21.8400 7.2634 0.2731
21.8600 7.2700 0.2614
21.8800 7.2767 0.2723
21.9000 7.2833 0.2704
21.9200 7.2899 0.2581
21.9400 7.2966 0.2713
21.9600 7.3032 0.2688
21.9800 7.3099 0.2561
22.0000 7.3166 0.2670
22.0200 7.3233 0.2646
22.0400 7.3300 0.2581
22.0600 7.3367 0.2676
22.0800 7.3433 0.2647
22.1000 7.3500 0.2584
22.1200 7.3566 0.2670
22.1400 7.3632 0.2595
22.1600 7.3699 0.2595
22.1800 7.3767 0.2612
22.2000 7.3834 0.2551
22.2200 7.3901 0.2582
22.2400 7.3968 0.2550
22.2600 7.4034 0.2586
22.2800 7.4100 0.2595
22.3000 7.4166 0.2576
22.3200 7.4233 0.2585
22.3400 7.4300 0.2583
22.3600 7.4367 0.2540
22.3800 7.4434 0.2564
22.4000 7.4500 0.2492
22.4200 7.4567 0.2520
22.4400 7.4633 0.2573
22.4600 7.4700 0.2504
22.4800 7.4766 0.2485
22.5000 7.4832 0.2588
22.5200 7.4899 0.2537
22.5400 7.4966 0.2470
22.5600 7.5033 0.2597
22.5800 7.5100 0.2533
22.6000 7.5167 0.2420
22.6200 7.5233 0.2520
22.6400 7.5300 0.2536
22.6600 7.5366 0.2448
22.6800 7.5432 0.2558
22.7000 7.5499 0.2486
22.7200 7.5566 0.2396
22.7400 7.5633 0.2554
22.7600 7.5700 0.2500
22.7800 7.5767 0.2355
22.8000 7.5834 0.2553
22.8200 7.5900 0.2446
22.8400 7.5966 0.2367
22.8600 7.6032 0.2537
22.8800 7.6099 0.2401
22.9000 7.6167 0.2400
22.9200 7.6233 0.2580
22.9400 7.6300 0.2418
22.9600 7.6367 0.2321
22.9800 7.6434 0.2501
23.0000 7.6500 0.2381
23.0200 7.6566 0.2357
23.0400 7.6633 0.2488
23.0600 7.6700 0.2382
23.0800 7.6767 0.2305
23.1000 7.6834 0.2493
23.1200 7.6900 0.2362
23.1400 7.6967 0.2379
23.1600 7.7034 0.2424
23.1800 7.7100 0.2328
23.2000 7.7166 0.2380
23.2200 7.7232 0.2421
23.2400 7.7299 0.2352
23.2600 7.7366 0.2327
23.2800 7.7433 0.2374
23.3000 7.7500 0.2335
23.3200 7.7567 0.2382
23.3400 7.7634 0.2365
23.3600 7.7700 0.2339
23.3800 7.7766 0.2364
23.4000 7.7832 0.2379
23.4200 7.7899 0.2270
23.4400 7.7966 0.2314
23.4600 7.8033 0.2339
23.4800 7.8100 0.2308
23.5000 7.8166 0.2295
23.5200 7.8233 0.2355
23.5400 7.8300 0.2285
23.5600 7.8366 0.2258
23.5800 7.8432 0.2303
23.6000 7.8499 0.2288
23.6200 7.8566 0.2251
23.6400 7.8634 0.2294
23.6600 7.8700 0.2285
23.6800 7.8767 0.2243
23.7000 7.8834 0.2299
23.7200 7.8900 0.2265
23.7400 7.8966 0.2249
23.7600 7.9033 0.2246
23.7800 7.9099 0.2210
23.8000 7.9167 0.2220
23.8200 7.9234 0.2229
23.8400 7.9300 0.2205
23.8600 7.9367 0.2235
23.8800 7.9434 0.2155
23.9000 7.9500 0.2220
23.9200 7.9566 0.2169
23.9400 7.9632 0.2224
23.9600 7.9699 0.2208
23.9800 7.9767 0.2118
24.0000 7.9833 0.2194
24.0200 7.9900 0.2196
24.0400 7.9967 0.2128
24.0600 8.0034 0.2147
24.0800 8.0100 0.2176
24.1000 8.0166 0.2149
24.1200 8.0232 0.2187
24.1400 8.0299 0.2162
24.1600 8.0366 0.2109
24.1800 8.0433 0.2155
24.2000 8.0500 0.2143
24.2200 8.0567 0.2085
24.2400 8.0633 0.2110
24.2600 8.0700 0.2075
24.2800 8.0766 0.2079
24.3000 8.0832 0.2111
24.3200 8.0899 0.2136
24.3400 8.0967 0.2041
24.3600 8.1034 0.2066
24.3800 8.1101 0.2087
24.4000 8.1167 0.2018
24.4200 8.1234 0.2080
24.4400 8.1300 0.2094
24.4600 8.1366 0.2006
24.4800 8.1432 0.2061
24.5000 8.1499 0.2067
24.5200 8.1567 0.2012
24.5400 8.1634 0.2081
24.5600 8.1700 0.2049
24.5800 8.1767 0.1983
24.6000 8.1834 0.1996
24.6200 8.1900 0.2018
24.6400 8.1966 0.1983
24.6600 8.2032 0.2015
24.6800 8.2099 0.1981
24.7000 8.2166 0.1988
24.7200 8.2233 0.1982
24.7400 8.2300 0.1974
24.7600 8.2367 0.1994
24.7800 8.2434 0.1971
24.8000 8.2500 0.1940
24.8200 8.2566 0.1951
24.8400 8.2632 0.1941
24.8600 8.2699 0.1976
24.8800 8.2766 0.1928
24.9000 8.2833 0.1921
24.9200 8.2900 0.1915
24.9400 8.2967 0.1980
24.9600 8.3034 0.1921
24.9800 8.3100 0.1894
25.0000 8.3166 0.1945
25.0200 8.3232 0.1890
25.0400 8.3299 0.1917
25.0600 8.3366 0.1937
25.0800 8.3433 0.1874
25.1000 8.3500 0.1920
25.1200 8.3567 0.1891
25.1400 8.3634 0.1870
25.1600 8.3700 0.1935
25.1800 8.3766 0.1854
25.2000 8.3832 0.1884
25.2200 8.3899 0.1934
25.2400 8.3966 0.1817
25.2600 8.4033 0.1853
25.2800 8.4100 0.1933
25.3000 8.4167 0.1761
25.3200 8.4234 0.1878
25.3400 8.4300 0.1886
25.3600 8.4366 0.1784
25.3800 8.4432 0.1927
25.4000 8.4499 0.1856
25.4200 8.4567 0.1789
25.4400 8.4634 0.1854
25.4600 8.4700 0.1835
25.4800 8.4767 0.1775
25.5000 8.4834 0.1859
25.5200 8.4900 0.1795
25.5400 8.4966 0.1809
25.5600 8.5032 0.1845
25.5800 8.5099 0.1770
25.6000 8.5166 0.1819
25.6200 8.5233 0.1790
25.6400 8.5300 0.1700
25.6600 8.5366 0.1847
25.6800 8.5433 0.1741
25.7000 8.5500 0.1773
25.7200 8.5566 0.1845
25.7400 8.5632 0.1728
25.7600 8.5699 0.1782
25.7800 8.5766 0.1813
25.8000 8.5833 0.1693
25.8200 8.5901 0.1765
25.8400 8.5968 0.1825
25.8600 8.6034 0.1597
25.8800 8.6101 0.1756
25.9000 8.6166 0.1802
25.9200 8.6233 0.1601
25.9400 8.6299 0.1795
25.9600 8.6367 0.1786
25.9800 8.6434 0.1600
26.0000 8.6501 0.1824
26.0200 8.6567 0.1730
26.0400 8.6634 0.1605
26.0600 8.6700 0.1747
26.0800 8.6766 0.1711
26.1000 8.6832 0.1588
26.1200 8.6899 0.1758
26.1400 8.6966 0.1655
26.1600 8.7033 0.1620
26.1800 8.7100 0.1738
26.2000 8.7167 0.1628
26.2200 8.7234 0.1599
26.2400 8.7300 0.1722
26.2600 8.7366 0.1589
26.2800 8.7432 0.1573
26.3000 8.7499 0.1739
26.3200 8.7566 0.1610
26.3400 8.7633 0.1592
26.3600 8.7700 0.1680
26.3800 8.7766 0.1627
26.4000 8.7833 0.1566
26.4200 8.7900 0.1619
26.4400 8.7966 0.1593
26.4600 8.8032 0.1594
26.4800 8.8099 0.1605
26.5000 8.8166 0.1573
26.5200 8.8233 0.1553
26.5400 8.8300 0.1602
26.5600 8.8367 0.1583
26.5800 8.8434 0.1595
26.6000 8.8501 0.1553
26.6200 8.8567 0.1631
26.6400 8.8633 0.1561
26.6600 8.8700 0.1539
26.6800 8.8766 0.1593
26.7000 8.8833 0.1582
26.7200 8.8900 0.1523
26.7400 8.8967 0.1575
26.7600 8.9034 0.1579
26.7800 8.9101 0.1521
26.8000 8.9167 0.1627
26.8200 8.9233 0.1500
26.8400 8.9299 0.1515
26.8600 8.9366 0.1593
26.8800 8.9433 0.1464
26.9000 8.9500 0.1509
26.9200 8.9567 0.1625
26.9400 8.9634 0.1453
26.9600 8.9700 0.1504
26.9800 8.9766 0.1614
27.0000 8.9832 0.1477
27.0200 8.9899 0.1513
27.0400 8.9966 0.1632
27.0600 9.0033 0.1400
27.0800 9.0100 0.1464
27.1000 9.0167 0.1561
27.1200 9.0234 0.1430
27.1400 9.0300 0.1486
27.1600 9.0367 0.1565
27.1800 9.0433 0.1465
27.2000 9.0499 0.1469
27.2200 9.0566 0.1550
27.2400 9.0633 0.1425
27.2600 9.0700 0.1477
27.2800 9.0767 0.1514
27.3000 9.0834 0.1452
27.3200 9.0901 0.1433
27.3400 9.0967 0.1490
27.3600 9.1033 0.1436
27.3800 9.1099 0.1424
27.4000 9.1166 0.1480
27.4200 9.1233 0.1437
27.4400 9.1300 0.1408
27.4600 9.1367 0.1451
27.4800 9.1434 0.1404
27.5000 9.1501 0.1415
27.5200 9.1567 0.1448
27.5400 9.1633 0.1420
27.5600 9.1699 0.1366
27.5800 9.1766 0.1394
27.6000 9.1833 0.1403
27.6200 9.1900 0.1351
27.6400 9.1967 0.1422
27.6600 9.2034 0.1390
27.6800 9.2100 0.1334
27.7000 9.2167 0.1355
27.7200 9.2232 0.1398
27.7400 9.2299 0.1287
27.7600 9.2366 0.1416
27.7800 9.2433 0.1314
27.8000 9.2500 0.1229
27.8200 9.2567 0.1476
27.8400 9.2634 0.1328
27.8600 9.2700 0.1195
27.8800 9.2767 0.1438
27.9000 9.2833 0.1284
27.9200 9.2899 0.1222
27.9400 9.2966 0.1429
27.9600 9.3033 0.1277
27.9800 9.3101 0.1203
28.0000 9.3167 0.1383
28.0200 9.3234 0.1319
28.0400 9.3301 0.1212
28.0600 9.3367 0.1394
28.0800 9.3433 0.1246
28.1000 9.3499 0.1208
28.1200 9.3566 0.1343
28.1400 9.3633 0.1208
28.1600 9.3700 0.1225
28.1800 9.3767 0.1321
28.2000 9.3834 0.1234
28.2200 9.3900 0.1254
28.2400 9.3966 0.1260
28.2600 9.4032 0.1242
28.2800 9.4099 0.1227
28.3000 9.4166 0.1240
28.3200 9.4233 0.1186
28.3400 9.4300 0.1240
28.3600 9.4367 0.1214
28.3800 9.4434 0.1191
28.4000 9.4500 0.1210
28.4200 9.4567 0.1164
28.4400 9.4632 0.1251
28.4600 9.4699 0.1228
28.4800 9.4766 0.1128
28.5000 9.4833 0.1211
28.5200 9.4900 0.1197
28.5400 9.4967 0.1134
28.5600 9.5034 0.1209
28.5800 9.5100 0.1149
28.6000 9.5167 0.1131
28.6200 9.5233 0.1193
28.6400 9.5299 0.1143
28.6600 9.5366 0.1123
28.6800 9.5433 0.1225
28.7000 9.5500 0.1103
28.7200 9.5567 0.1099
28.7400 9.5634 0.1206
28.7600 9.5701 0.1092
28.7800 9.5767 0.1110
28.8000 9.5833 0.1150
28.8200 9.5899 0.1098
28.8400 9.5966 0.1147
28.8600 9.6033 0.1155
28.8800 9.6100 0.1079
28.9000 9.6167 0.1102
28.9200 9.6234 0.1090
28.9400 9.6301 0.1053
28.9600 9.6367 0.1100
28.9800 9.6433 0.1139
29.0000 9.6499 0.1018
29.0200 9.6566 0.1106
29.0400 9.6633 0.1140
29.0600 9.6700 0.0989
29.0800 9.6767 0.1084
29.1000 9.6833 0.1117
29.1200 9.6900 0.0971
29.1400 9.6967 0.1075
29.1600 9.7033 0.1070
29.1800 9.7099 0.0998
29.2000 9.7166 0.1056
29.2200 9.7233 0.1037
29.2400 9.7300 0.1040
29.2600 9.7366 0.1039
29.2800 9.7433 0.1018
29.3000 9.7500 0.1028
29.3200 9.7567 0.1023
29.3400 9.7633 0.0945
29.3600 9.7699 0.1026
29.3800 9.7766 0.1020
29.4000 9.7833 0.0989
29.4200 9.7900 0.1000
29.4400 9.7967 0.1016
29.4600 9.8034 0.0988
29.4800 9.8101 0.1000
29.5000 9.8167 0.0911
29.5200 9.8233 0.0966
29.5400 9.8299 0.1047
29.5600 9.8366 0.0947
29.5800 9.8433 0.0937
29.6000 9.8500 0.0976
29.6200 9.8567 0.0920
29.6400 9.8634 0.1006
29.6600 9.8701 0.0984
29.6800 9.8767 0.0898
29.7000 9.8833 0.0992
29.7200 9.8899 0.0921
29.7400 9.8966 0.0857
29.7600 9.9033 0.1016
29.7800 9.9100 0.0951
29.8000 9.9167 0.0835
29.8200 9.9233 0.0984
29.8400 9.9300 0.0906
29.8600 9.9367 0.0883
29.8800 9.9433 0.0968
29.9000 9.9499 0.0861
29.9200 9.9565 0.0867
29.9400 9.9632 0.1006
29.9600 9.9700 0.0785
29.9800 9.9766 0.0830
30.0000 9.9833 0.0973
30.0200 9.9900 0.0786
30.0400 9.9966 0.0855
30.0600 10.0032 0.0925
30.0800 10.0099 0.0833
30.1000 10.0166 0.0844
30.1200 10.0233 0.0897
30.1400 10.0300 0.0799
30.1600 10.0367 0.0864
30.1800 10.0434 0.0875
30.2000 10.0501 0.0768
30.2200 10.0567 0.0827
30.2400 10.0633 0.0867
30.2600 10.0700 0.0789
30.2800 10.0766 0.0841
30.3000 10.0833 0.0810
30.3200 10.0900 0.0763
30.3400 10.0967 0.0739
30.3600 10.1034 0.0766
30.3800 10.1101 0.0799
30.4000 10.1167 0.0773
30.4200 10.1233 0.0773
30.4400 10.1299 0.0788
30.4600 10.1366 0.0738
30.4800 10.1433 0.0794
30.5000 10.1500 0.0807
30.5200 10.1567 0.0695
30.5400 10.1633 0.0763
30.5600 10.1700 0.0789
30.5800 10.1767 0.0647
30.6000 10.1833 0.0753
30.6200 10.1899 0.0808
30.6400 10.1966 0.0641
30.6600 10.2033 0.0805
30.6800 10.2100 0.0721
30.7000 10.2167 0.0608
30.7200 10.2233 0.0811
30.7400 10.2300 0.0700
30.7600 10.2367 0.0594
30.7800 10.2433 0.0766
30.8000 10.2500 0.0651
30.8200 10.2566 0.0628
30.8400 10.2633 0.0735
30.8600 10.2700 0.0661
30.8800 10.2767 0.0622
30.9000 10.2834 0.0729
30.9200 10.2901 0.0626
30.9400 10.2967 0.0591
30.9600 10.3033 0.0678
30.9800 10.3099 0.0616
31.0000 10.3166 0.0620
31.0200 10.3233 0.0657
31.0400 10.3300 0.0620
31.0600 10.3367 0.0619
31.0800 10.3434 0.0630
31.1000 10.3500 0.0571
31.1200 10.3567 0.0629
31.1400 10.3633 0.0579
31.1600 10.3699 0.0608
31.1800 10.3766 0.0593
31.2000 10.3833 0.0584
31.2200 10.3900 0.0595
31.2400 10.3967 0.0567
31.2600 10.4033 0.0602
31.2800 10.4100 0.0621
31.3000 10.4167 0.0543
31.3200 10.4233 0.0526
31.3400 10.4299 0.0588
31.3600 10.4366 0.0542
31.3800 10.4432 0.0532
31.4000 10.4499 0.0551
31.4200 10.4566 0.0528
31.4400 10.4633 0.0528
31.4600 10.4700 0.0584
31.4800 10.4767 0.0448
31.5000 10.4833 0.0532
31.5200 10.4899 0.0596
31.5400 10.4966 0.0497
31.5600 10.5033 0.0498
31.5800 10.5100 0.0570
31.6000 10.5167 0.0445
31.6200 10.5234 0.0474
31.6400 10.5301 0.0535
31.6600 10.5367 0.0427
31.6800 10.5434 0.0510
31.7000 10.5500 0.0521
31.7200 10.5566 0.0434
31.7400 10.5633 0.0492
31.7600 10.5700 0.0507
31.7800 10.5767 0.0393
31.8000 10.5834 0.0457
31.8200 10.5901 0.0475
31.8400 10.5967 0.0402
31.8600 10.6033 0.0406
31.8800 10.6099 0.0546
31.9000 10.6166 0.0397
31.9200 10.6233 0.0397
31.9400 10.6300 0.0475
31.9600 10.6367 0.0424
31.9800 10.6434 0.0365
32.0000 10.6500 0.0507
32.0200 10.6567 0.0345
32.0400 10.6633 0.0291
32.0600 10.6699 0.0441
32.0800 10.6765 0.0496
32.1000 10.6832 0.0370
32.1200 10.6900 0.0390
32.1400 10.6967 0.0415
32.1600 10.7033 0.0356
32.1800 10.7100 0.0442
32.2000 10.7167 0.0356
32.2200 10.7233 0.0340
32.2400 10.7299 0.0449
32.2600 10.7366 0.0285
32.2800 10.7433 0.0362
32.3000 10.7500 0.0476
32.3200 10.7567 0.0271
32.3400 10.7634 0.0325
32.3600 10.7701 0.0409
32.3800 10.7768 0.0279
32.4000 10.7834 0.0303
32.4200 10.7900 0.0424
32.4400 10.7966 0.0225
32.4600 10.8033 0.0376
32.4800 10.8100 0.0370
32.5000 10.8167 0.0225
32.5200 10.8234 0.0390
32.5400 10.8300 0.0335
32.5600 10.8367 0.0226
32.5800 10.8433 0.0349
32.6000 10.8499 0.0245
32.6200 10.8566 0.0253
32.6400 10.8633 0.0342
32.6600 10.8700 0.0241
32.6800 10.8767 0.0245
32.7000 10.8833 0.0331
32.7200 10.8900 0.0259
32.7400 10.8967 0.0240
32.7600 10.9033 0.0310
32.7800 10.9099 0.0196
32.8000 10.9166 0.0288
32.8200 10.9233 0.0289
32.8400 10.9300 0.0160
32.8600 10.9367 0.0260
32.8800 10.9433 0.0207
32.9000 10.9500 0.0168
32.9200 10.9567 0.0267
32.9400 10.9633 0.0166
32.9600 10.9699 0.0193
32.9800 10.9766 0.0286
33.0000 10.9832 0.0167
33.0200 10.9900 0.0123
33.0400 10.9967 0.0287
33.0600 11.0034 0.0138
33.0800 11.0100 0.0158
33.1000 11.0167 0.0303
33.1200 11.0233 0.0088
33.1400 11.0299 0.0145
33.1600 11.0366 0.0232
33.1800 11.0433 0.0110
33.2000 11.0500 0.0115
33.2200 11.0567 0.0172
33.2400 11.0634 0.0101
33.2600 11.0701 0.0154
33.2800 11.0767 0.0148
33.3000 11.0834 0.0063
33.3200 11.0900 0.0217
33.3400 11.0966 0.0152
33.3600 11.1033 0.0065
33.3800 11.1100 0.0189
33.4000 11.1166 0.0123
33.4200 11.1233 0.0015
33.4400 11.1300 0.0143
33.4600 11.1367 0.0128
33.4800 11.1433 0.0057
33.5000 11.1499 0.0125
33.5200 11.1566 0.0139
33.5400 11.1632 0.0035
33.5600 11.1699 0.0122
33.5800 11.1766 0.0088
33.6000 11.1833 0.0041
33.6200 11.1900 0.0062
33.6400 11.1967 0.0090
33.6600 11.2033 0.0035
33.6800 11.2099 0.0062
33.7000 11.2166 0.0081
33.7200 11.2233 0.0087
33.7400 11.2300 0.0053
33.7600 11.2367 0.0033
33.7800 11.2434 0.0036
33.8000 11.2501 0.0022
33.8200 11.2567 0.0031
33.8400 11.2634 -0.0028
33.8600 11.2700 0.0040
33.8800 11.2766 -0.0008
33.9000 11.2833 -0.0025
33.9200 11.2900 -0.0020
33.9400 11.2967 -0.0027
33.9600 11.3034 0.0021
33.9800 11.3100 -0.0021
34.0000 11.3167 -0.0046
34.0200 11.3234 0.0006
34.0400 11.3300 -0.0066
34.0600 11.3366 0.0030
34.0800 11.3432 -0.0010
34.1000 11.3499 -0.0105
34.1200 11.3566 -0.0045
34.1400 11.3633 -0.0010
34.1600 11.3700 -0.0105
34.1800 11.3767 -0.0051
34.2000 11.3833 0.0013
34.2200 11.3899 -0.0175
34.2400 11.3965 -0.0042
34.2600 11.4032 -0.0003
34.2800 11.4099 -0.0158
34.3000 11.4167 -0.0061
34.3200 11.4233 -0.0062
34.3400 11.4300 -0.0153
34.3600 11.4367 -0.0053
34.3800 11.4433 -0.0073
34.4000 11.4499 -0.0159
34.4200 11.4566 -0.0089
34.4400 11.4632 -0.0091
34.4600 11.4700 -0.0184
34.4800 11.4767 -0.0019
34.5000 11.4833 -0.0093
34.5200 11.4900 -0.0223
34.5400 11.4968 -0.0091
34.5600 11.5034 -0.0110
34.5800 11.5100 -0.0215
34.6000 11.5166 -0.0089
34.6200 11.5233 -0.0094
34.6400 11.5300 -0.0263
34.6600 11.5367 -0.0137
34.6800 11.5434 -0.0038
34.7000 11.5500 -0.0255
34.7200 11.5567 -0.0130
34.7400 11.5633 -0.0141
34.7600 11.5699 -0.0280
34.7800 11.5766 -0.0131
34.8000 11.5832 -0.0161
34.8200 11.5899 -0.0256
34.8400 11.5966 -0.0152
34.8600 11.6033 -0.0151
34.8800 11.6100 -0.0253
34.9000 11.6167 -0.0071
34.9200 11.6233 -0.0198
34.9400 11.6299 -0.0305
34.9600 11.6365 -0.0113
34.9800 11.6432 -0.0194
35.0000 11.6499 -0.0328
35.0200 11.6566 -0.0089
35.0400 11.6633 -0.0248
35.0600 11.6700 -0.0357
35.0800 11.6767 -0.0089
35.1000 11.6834 -0.0255
35.1200 11.6900 -0.0351
35.1400 11.6966 -0.0141
35.1600 11.7033 -0.0245
35.1800 11.7100 -0.0374
35.2000 11.7167 -0.0168
35.2200 11.7234 -0.0295
35.2400 11.7300 -0.0328
35.2600 11.7367 -0.0228
35.2800 11.7434 -0.0259
35.3000 11.7500 -0.0300
35.3200 11.7566 -0.0191
35.3400 11.7632 -0.0291
35.3600 11.7699 -0.0336
35.3800 11.7767 -0.0226
35.4000 11.7834 -0.0271
35.4200 11.7901 -0.0390
35.4400 11.7967 -0.0280
35.4600 11.8034 -0.0277
35.4800 11.8100 -0.0367
35.5000 11.8166 -0.0262
35.5200 11.8233 -0.0264
35.5400 11.8300 -0.0330
35.5600 11.8367 -0.0351
35.5800 11.8433 -0.0280
35.6000 11.8500 -0.0412
35.6200 11.8567 -0.0333
35.6400 11.8634 -0.0278
35.6600 11.8700 -0.0441
35.6800 11.8766 -0.0329
35.7000 11.8832 -0.0260
35.7200 11.8899 -0.0441
35.7400 11.8966 -0.0338
35.7600 11.9033 -0.0372
35.7800 11.9100 -0.0440
35.8000 11.9167 -0.0340
35.8200 11.9233 -0.0397
35.8400 11.9299 -0.0452
35.8600 11.9366 -0.0370
35.8800 11.9432 -0.0385
35.9000 11.9500 -0.0440
35.9200 11.9567 -0.0364
35.9400 11.9633 -0.0407
35.9600 11.9700 -0.0435
35.9800 11.9767 -0.0398
36.0000 11.9834 -0.0458
36.0200 11.9900 -0.0447
36.0400 11.9966 -0.0390
36.0600 12.0032 -0.0478
36.0800 12.0099 -0.0389
36.1000 12.0166 -0.0435
36.1200 12.0233 -0.0451
36.1400 12.0300 -0.0453
36.1600 12.0367 -0.0471
36.1800 12.0434 -0.0487
36.2000 12.0500 -0.0445
36.2200 12.0566 -0.0506
36.2400 12.0632 -0.0466
36.2600 12.0699 -0.0435
36.2800 12.0767 -0.0564
36.3000 12.0834 -0.0493
36.3200 12.0900 -0.0417
36.3400 12.0967 -0.0530
36.3600 12.1033 -0.0523
36.3800 12.1100 -0.0518
36.4000 12.1166 -0.0514
36.4200 12.1232 -0.0505
36.4400 12.1299 -0.0537
36.4600 12.1366 -0.0553
36.4800 12.1433 -0.0505
36.5000 12.1500 -0.0517
36.5200 12.1567 -0.0585
36.5400 12.1633 -0.0510
36.5600 12.1700 -0.0604
36.5800 12.1766 -0.0579
36.6000 12.1832 -0.0529
36.6200 12.1899 -0.0584
36.6400 12.1967 -0.0591
36.6600 12.2034 -0.0620
36.6800 12.2100 -0.0645
36.7000 12.2167 -0.0525
36.7200 12.2234 -0.0617
36.7400 12.2300 -0.0649
36.7600 12.2366 -0.0517
36.7800 12.2433 -0.0657
36.8000 12.2500 -0.0678
36.8200 12.2567 -0.0566
36.8400 12.2634 -0.0665
36.8600 12.2700 -0.0657
36.8800 12.2767 -0.0601
36.9000 12.2834 -0.0714
36.9200 12.2900 -0.0624
36.9400 12.2966 -0.0610
36.9600 12.3032 -0.0689
36.9800 12.3099 -0.0645
37.0000 12.3166 -0.0673
37.0200 12.3233 -0.0692
37.0400 12.3300 -0.0648
37.0600 12.3367 -0.0690
37.0800 12.3434 -0.0708
37.1000 12.3500 -0.0684
37.1200 12.3566 -0.0664
37.1400 12.3632 -0.0687
37.1600 12.3699 -0.0628
37.1800 12.3766 -0.0717
37.2000 12.3833 -0.0779
37.2200 12.3900 -0.0670
37.2400 12.3967 -0.0758
37.2600 12.4034 -0.0745
37.2800 12.4100 -0.0716
37.3000 12.4166 -0.0757
37.3200 12.4232 -0.0729
37.3400 12.4299 -0.0661
37.3600 12.4366 -0.0814
37.3800 12.4433 -0.0775
37.4000 12.4500 -0.0667
37.4200 12.4567 -0.0806
37.4400 12.4634 -0.0827
37.4600 12.4700 -0.0682
37.4800 12.4766 -0.0814
37.5000 12.4833 -0.0779
37.5200 12.4900 -0.0737
37.5400 12.4967 -0.0799
37.5600 12.5034 -0.0792
37.5800 12.5100 -0.0779
37.6000 12.5167 -0.0858
37.6200 12.5234 -0.0802
37.6400 12.5300 -0.0736
37.6600 12.5366 -0.0930
37.6800 12.5432 -0.0786
37.7000 12.5499 -0.0748
37.7200 12.5566 -0.0877
37.7400 12.5633 -0.0814
37.7600 12.5700 -0.0814
37.7800 12.5767 -0.0909
37.8000 12.5834 -0.0837
37.8200 12.5900 -0.0853
37.8400 12.5966 -0.0908
37.8600 12.6032 -0.0837
37.8800 12.6099 -0.0827
37.9000 12.6166 -0.0929
37.9200 12.6233 -0.0835
37.9400 12.6300 -0.0875
37.9600 12.6367 -0.0950
37.9800 12.6434 -0.0894
38.0000 12.6500 -0.0899
38.0200 12.6566 -0.0955
38.0400 12.6632 -0.0901
38.0600 12.6699 -0.0918
38.0800 12.6766 -0.0975
38.1000 12.6834 -0.0968
38.1200 12.6900 -0.0914
38.1400 12.6967 -0.0922
38.1600 12.7034 -0.1003
38.1800 12.7100 -0.0892
38.2000 12.7166 -0.0988
38.2200 12.7233 -0.0983
38.2400 12.7299 -0.0924
38.2600 12.7367 -0.0967
38.2800 12.7434 -0.1011
38.3000 12.7501 -0.0982
38.3200 12.7568 -0.1001
38.3400 12.7634 -0.1000
38.3600 12.7700 -0.0965
38.3800 12.7766 -0.1026
38.4000 12.7832 -0.1027
38.4200 12.7899 -0.0909
38.4400 12.7966 -0.1096
38.4600 12.8033 -0.1020
38.4800 12.8100 -0.0893
38.5000 12.8167 -0.1113
38.5200 12.8234 -0.1046
38.5400 12.8300 -0.0897
38.5600 12.8366 -0.1073
38.5800 12.8433 -0.1041
38.6000 12.8499 -0.0917
38.6200 12.8566 -0.1149
38.6400 12.8633 -0.1015
38.6600 12.8700 -0.0972
38.6800 12.8766 -0.1181
38.7000 12.8833 -0.0988
38.7200 12.8900 -0.1013
38.7400 12.8966 -0.1184
38.7600 12.9032 -0.0961
38.7800 12.9099 -0.0986
38.8000 12.9166 -0.1167
38.8200 12.9233 -0.1037
38.8400 12.9300 -0.1037
38.8600 12.9367 -0.1124
38.8800 12.9434 -0.1035
38.9000 12.9500 -0.1082
38.9200 12.9566 -0.1176
38.9400 12.9633 -0.1039
38.9600 12.9699 -0.1065
38.9800 12.9767 -0.1070
39.0000 12.9834 -0.1144
39.0200 12.9900 -0.1073
39.0400 12.9967 -0.1059
39.0600 13.0034 -0.1170
39.0800 13.0100 -0.1040
39.1000 13.0166 -0.1058
39.1200 13.0233 -0.1254
39.1400 13.0299 -0.1034
39.1600 13.0366 -0.1062
39.1800 13.0433 -0.1163
39.2000 13.0500 -0.1021
39.2200 13.0567 -0.1127
39.2400 13.0634 -0.1253
39.2600 13.0700 -0.1009
39.2800 13.0766 -0.1116
39.3000 13.0832 -0.1285
39.3200 13.0899 -0.1005
39.3400 13.0966 -0.1142
39.3600 13.1033 -0.1261
39.3800 13.1100 -0.1049
39.4000 13.1167 -0.1131
39.4200 13.1234 -0.1266
39.4400 13.1300 -0.1123
39.4600 13.1366 -0.1194
39.4800 13.1433 -0.1197
39.5000 13.1500 -0.1092
39.5200 13.1567 -0.1253
39.5400 13.1634 -0.1211
39.5600 13.1700 -0.1083
39.5800 13.1767 -0.1265
39.6000 13.1834 -0.1157
39.6200 13.1900 -0.1307
39.6400 13.1966 -0.1199
39.6600 13.2033 -0.1231
39.6800 13.2099 -0.1304
39.7000 13.2166 -0.1145
39.7200 13.2233 -0.1301
39.7400 13.2300 -0.1241
39.7600 13.2367 -0.1209
39.7800 13.2434 -0.1280
39.8000 13.2500 -0.1214
39.8200 13.2566 -0.1218
39.8400 13.2632 -0.1378
39.8600 13.2699 -0.1223
39.8800 13.2766 -0.1219
39.9000 13.2833 -0.1387
39.9200 13.2900 -0.1238
39.9400 13.2967 -0.1229
39.9600 13.3034 -0.1393
39.9800 13.3100 -0.1208
40.0000 13.3166 -0.1308
40.0200 13.3232 -0.1389
40.0400 13.3299 -0.1248
40.0600 13.3366 -0.1306
40.0800 13.3433 -0.1376
40.1000 13.3500 -0.1283
40.1200 13.3566 -0.1346
40.1400 13.3633 -0.1376
40.1600 13.3700 -0.1286
40.1800 13.3766 -0.1366
40.2000 13.3833 -0.1374
40.2200 13.3899 -0.1319
40.2400 13.3966 -0.1397
40.2600 13.4033 -0.1341
40.2800 13.4100 -0.1360
40.3000 13.4168 -0.1401
40.3200 13.4234 -0.1348
40.3400 13.4301 -0.1392
40.3600 13.4367 -0.1379
40.3800 13.4432 -0.1406
40.4000 13.4499 -0.1323
40.4200 13.4566 -0.1403
40.4400 13.4634 -0.1392
40.4600 13.4701 -0.1410
40.4800 13.4767 -0.1441
40.5000 13.4834 -0.1444
40.5200 13.4900 -0.1468
40.5400 13.4966 -0.1379
40.5600 13.5032 -0.1445
40.5800 13.5099 -0.1453
40.6000 13.5166 -0.1382
40.6200 13.5233 -0.1443
40.6400 13.5300 -0.1487
40.6600 13.5367 -0.1423
40.6800 13.5434 -0.1432
40.7000 13.5500 -0.1522
40.7200 13.5566 -0.1474
40.7400 13.5632 -0.1433
40.7600 13.5699 -0.1559
40.7800 13.5766 -0.1436
40.8000 13.5833 -0.1502
40.8200 13.5900 -0.1488
40.8400 13.5966 -0.1448
40.8600 13.6033 -0.1526
40.8800 13.6100 -0.1571
40.9000 13.6166 -0.1499
40.9200 13.6232 -0.1517
40.9400 13.6299 -0.1518
40.9600 13.6366 -0.1509
40.9800 13.6433 -0.1589
41.0000 13.6500 -0.1467
41.0200 13.6567 -0.1538
41.0400 13.6634 -0.1554
41.0600 13.6700 -0.1489
41.0800 13.6767 -0.1554
41.1000 13.6833 -0.1638
41.1200 13.6900 -0.1508
41.1400 13.6966 -0.1576
41.1600 13.7033 -0.1571
41.1800 13.7100 -0.1606
41.2000 13.7167 -0.1628
41.2200 13.7234 -0.1541
41.2400 13.7300 -0.1612
41.2600 13.7367 -0.1659
41.2800 13.7433 -0.1488
41.3000 13.7499 -0.1691
41.3200 13.7566 -0.1616
41.3400 13.7633 -0.1457
41.3600 13.7700 -0.1758
41.3800 13.7767 -0.1576
41.4000 13.7834 -0.1468
41.4200 13.7900 -0.1784
41.4400 13.7966 -0.1545
41.4600 13.8032 -0.1520
41.4800 13.8098 -0.1800
41.5000 13.8166 -0.1464
41.5200 13.8233 -0.1658
41.5400 13.8300 -0.1841
41.5600 13.8367 -0.1453
41.5800 13.8434 -0.1659
41.6000 13.8500 -0.1859
41.6200 13.8567 -0.1443
41.6400 13.8633 -0.1691
41.6600 13.8699 -0.1787
41.6800 13.8766 -0.1522
41.7000 13.8833 -0.1751
41.7200 13.8900 -0.1712
41.7400 13.8967 -0.1564
41.7600 13.9034 -0.1811
41.7800 13.9101 -0.1654
41.8000 13.9167 -0.1668
41.8200 13.9233 -0.1791
41.8400 13.9299 -0.1629
41.8600 13.9366 -0.1695
41.8800 13.9433 -0.1816
41.9000 13.9500 -0.1647
41.9200 13.9567 -0.1751
41.9400 13.9634 -0.1837
41.9600 13.9700 -0.1649
41.9800 13.9767 -0.1805
42.0000 13.9833 -0.1772
42.0200 13.9899 -0.1749
42.0400 13.9966 -0.1742
42.0600 14.0033 -0.1748
42.0800 14.0100 -0.1803
42.1000 14.0167 -0.1767
42.1200 14.0234 -0.1717
42.1400 14.0301 -0.1858
42.1600 14.0367 -0.1817
42.1800 14.0433 -0.1693
42.2000 14.0499 -0.1903
42.2200 14.0565 -0.1808
42.2400 14.0633 -0.1712
42.2600 14.0700 -0.1959
42.2800 14.0766 -0.1737
42.3000 14.0833 -0.1737
42.3200 14.0900 -0.2008
42.3400 14.0967 -0.1746
42.3600 14.1033 -0.1782
42.3800 14.1099 -0.1926
42.4000 14.1166 -0.1778
42.4200 14.1233 -0.1833
42.4400 14.1300 -0.1973
42.4600 14.1367 -0.1730
42.4800 14.1434 -0.1858
42.5000 14.1501 -0.1958
42.5200 14.1567 -0.1788
42.5400 14.1633 -0.1872
42.5600 14.1699 -0.1946
42.5800 14.1766 -0.1800
42.6000 14.1833 -0.1942
42.6200 14.1900 -0.2037
42.6400 14.1967 -0.1784
42.6600 14.2034 -0.1799
42.6800 14.2100 -0.2024
42.7000 14.2167 -0.1922
42.7200 14.2233 -0.1852
42.7400 14.2299 -0.1992
42.7600 14.2365 -0.1944
42.7800 14.2433 -0.1890
42.8000 14.2500 -0.1955
42.8200 14.2567 -0.1939
42.8400 14.2634 -0.1939
42.8600 14.2701 -0.1988
42.8800 14.2767 -0.1884
42.9000 14.2833 -0.1911
42.9200 14.2899 -0.2051
42.9400 14.2966 -0.1932
42.9600 14.3033 -0.1934
42.9800 14.3100 -0.2084
43.0000 14.3167 -0.1933
43.0200 14.3233 -0.1984
43.0400 14.3300 -0.2081
43.0600 14.3367 -0.1960
43.0800 14.3433 -0.1964
43.1000 14.3499 -0.2079
43.1200 14.3566 -0.2000
43.1400 14.3633 -0.1947
43.1600 14.3700 -0.2103
43.1800 14.3767 -0.2029
43.2000 14.3834 -0.1942
43.2200 14.3900 -0.2119
43.2400 14.3967 -0.1999
43.2600 14.4033 -0.1980
43.2800 14.4099 -0.2079
43.3000 14.4166 -0.1953
43.3200 14.4233 -0.2082
43.3400 14.4300 -0.2103
43.3600 14.4367 -0.2027
43.3800 14.4434 -0.2065
43.4000 14.4501 -0.2140
43.4200 14.4567 -0.2049
43.4400 14.4633 -0.2042
43.4600 14.4699 -0.2086
43.4800 14.4766 -0.2064
43.5000 14.4833 -0.2070
43.5200 14.4900 -0.2093
43.5400 14.4967 -0.2065
43.5600 14.5033 -0.2138
43.5800 14.5100 -0.2081
43.6000 14.5167 -0.2107
43.6200 14.5233 -0.2155
43.6400 14.5299 -0.2090
43.6600 14.5366 -0.2114
43.6800 14.5433 -0.2094
43.7000 14.5500 -0.2148
43.7200 14.5566 -0.2099
43.7400 14.5633 -0.2172
43.7600 14.5700 -0.2156
43.7800 14.5767 -0.2136
43.8000 14.5833 -0.2144
43.8200 14.5899 -0.2158
43.8400 14.5966 -0.2162
43.8600 14.6033 -0.2136
43.8800 14.6100 -0.2218
43.9000 14.6167 -0.2154
43.9200 14.6234 -0.2079
43.9400 14.6301 -0.2289
43.9600 14.6367 -0.2171
43.9800 14.6433 -0.2111
44.0000 14.6499 -0.2244
44.0200 14.6566 -0.2150
44.0400 14.6633 -0.2165
44.0600 14.6700 -0.2233
44.0800 14.6767 -0.2150
44.1000 14.6834 -0.2178
44.1200 14.6900 -0.2280
44.1400 14.6967 -0.2226
44.1600 14.7033 -0.2211
44.1800 14.7099 -0.2235
44.2000 14.7166 -0.2219
44.2200 14.7233 -0.2273
44.2400 14.7300 -0.2261
44.2600 14.7367 -0.2205
44.2800 14.7434 -0.2273
44.3000 14.7500 -0.2212
44.3200 14.7567 -0.2287
44.3400 14.7633 -0.2322
44.3600 14.7699 -0.2242
44.3800 14.7765 -0.2314
44.4000 14.7832 -0.2275
44.4200 14.7899 -0.2288
44.4400 14.7966 -0.2381
44.4600 14.8033 -0.2253
44.4800 14.8100 -0.2222
44.5000 14.8166 -0.2416
44.5200 14.8232 -0.2269
44.5400 14.8299 -0.2294
44.5600 14.8366 -0.2358
44.5800 14.8433 -0.2282
44.6000 14.8500 -0.2381
44.6200 14.8567 -0.2386
44.6400 14.8634 -0.2242
44.6600 14.8701 -0.2419
44.6800 14.8767 -0.2380
44.7000 14.8834 -0.2293
44.7200 14.8900 -0.2373
44.7400 14.8966 -0.2384
44.7600 14.9033 -0.2343
44.7800 14.9100 -0.2358
44.8000 14.9167 -0.2384
44.8200 14.9234 -0.2382
44.8400 14.9301 -0.2413
44.8600 14.9367 -0.2420
44.8800 14.9433 -0.2416
44.9000 14.9499 -0.2303
44.9200 14.9565 -0.2466
44.9400 14.9632 -0.2513
44.9600 14.9700 -0.2317
44.9800 14.9766 -0.2452
45.0000 14.9833 -0.2545
45.0200 14.9900 -0.2293
45.0400 14.9967 -0.2492
45.0600 15.0033 -0.2560
45.0800 15.0099 -0.2323
45.1000 15.0166 -0.2469
45.1200 15.0233 -0.2525
45.1400 15.0300 -0.2379
45.1600 15.0367 -0.2587
45.1800 15.0433 -0.2500
45.2000 15.0500 -0.2323
45.2200 15.0567 -0.2647
45.2400 15.0633 -0.2441
45.2600 15.0700 -0.2357
45.2800 15.0766 -0.2669
45.3000 15.0833 -0.2455
45.3200 15.0900 -0.2395
45.3400 15.0967 -0.2615
45.3600 15.1034 -0.2462
45.3800 15.1101 -0.2523
45.4000 15.1167 -0.2601
45.4200 15.1233 -0.2481
45.4400 15.1299 -0.2521
45.4600 15.1366 -0.2586
45.4800 15.1433 -0.2479
45.5000 15.1500 -0.2567
45.5200 15.1567 -0.2557
45.5400 15.1634 -0.2556
45.5600 15.1701 -0.2564
45.5800 15.1767 -0.2492
45.6000 15.1833 -0.2641
45.6200 15.1899 -0.2583
45.6400 15.1966 -0.2397
45.6600 15.2033 -0.2681
45.6800 15.2100 -0.2610
45.7000 15.2167 -0.2432
45.7200 15.2233 -0.2707
45.7400 15.2300 -0.2580
45.7600 15.2367 -0.2458
45.7800 15.2433 -0.2790
45.8000 15.2499 -0.2509
45.8200 15.2566 -0.2489
45.8400 15.2632 -0.2885
45.8600 15.2699 -0.2496
45.8800 15.2766 -0.2479
45.9000 15.2833 -0.2818
45.9200 15.2900 -0.2522
45.9400 15.2967 -0.2572
45.9600 15.3033 -0.2819
45.9800 15.3099 -0.2459
46.0000 15.3166 -0.2635
46.0200 15.3233 -0.2816
46.0400 15.3300 -0.2496
46.0600 15.3367 -0.2668
46.0800 15.3434 -0.2785
46.1000 15.3501 -0.2427
46.1200 15.3567 -0.2760
46.1400 15.3633 -0.2747
46.1600 15.3699 -0.2527
46.1800 15.3766 -0.2794
46.2000 15.3833 -0.2625
46.2200 15.3900 -0.2619
46.2400 15.3967 -0.2801
46.2600 15.4034 -0.2667
46.2800 15.4100 -0.2580
46.3000 15.4167 -0.2814
46.3200 15.4233 -0.2652
46.3400 15.4299 -0.2677
46.3600 15.4366 -0.2764
46.3800 15.4433 -0.2660
46.4000 15.4500 -0.2747
46.4200 15.4567 -0.2760
46.4400 15.4634 -0.2649
46.4600 15.4700 -0.2740
46.4800 15.4767 -0.2789
46.5000 15.4833 -0.2689
46.5200 15.4899 -0.2721
46.5400 15.4965 -0.2748
46.5600 15.5032 -0.2714
46.5800 15.5099 -0.2781
46.6000 15.5167 -0.2748
46.6200 15.5233 -0.2732
46.6400 15.5300 -0.2842
46.6600 15.5367 -0.2717
46.6800 15.5433 -0.2778
46.7000 15.5499 -0.2792
46.7200 15.5566 -0.2731
46.7400 15.5633 -0.2821
46.7600 15.5700 -0.2793
46.7800 15.5767 -0.2815
46.8000 15.5833 -0.2866
46.8200 15.5900 -0.2769
46.8400 15.5967 -0.2842
46.8600 15.6034 -0.2928
46.8800 15.6100 -0.2772
46.9000 15.6166 -0.2853
46.9200 15.6233 -0.2882
46.9400 15.6300 -0.2747
46.9600 15.6367 -0.2905
46.9800 15.6434 -0.2909
47.0000 15.6501 -0.2757
47.0200 15.6567 -0.2969
47.0400 15.6633 -0.2912
47.0600 15.6699 -0.2835
47.0800 15.6765 -0.2952
47.1000 15.6832 -0.2927
47.1200 15.6900 -0.2807
47.1400 15.6967 -0.2971
47.1600 15.7033 -0.2913
47.1800 15.7100 -0.2949
47.2000 15.7167 -0.2962
47.2200 15.7233 -0.2909
47.2400 15.7299 -0.2972
47.2600 15.7366 -0.2933
47.2800 15.7433 -0.2947
47.3000 15.7500 -0.2980
47.3200 15.7567 -0.2932
47.3400 15.7633 -0.2949
47.3600 15.7700 -0.2966
47.3800 15.7767 -0.2947
47.4000 15.7834 -0.3053
47.4200 15.7900 -0.2988
47.4400 15.7966 -0.2943
47.4600 15.8033 -0.3031
47.4800 15.8100 -0.3021
47.5000 15.8167 -0.2964
47.5200 15.8234 -0.3072
47.5400 15.8300 -0.2979
47.5600 15.8367 -0.2990
47.5800 15.8433 -0.3081
47.6000 15.8499 -0.3000
47.6200 15.8566 -0.3007
47.6400 15.8633 -0.3072
47.6600 15.8700 -0.2980
47.6800 15.8767 -0.3115
47.7000 15.8834 -0.3055
47.7200 15.8901 -0.2917
47.7400 15.8967 -0.3100
47.7600 15.9034 -0.3088
47.7800 15.9100 -0.3015
47.8000 15.9166 -0.3096
47.8200 15.9233 -0.3082
47.8400 15.9300 -0.3056
47.8600 15.9367 -0.3084
47.8800 15.9433 -0.3022
47.9000 15.9500 -0.3160
47.9200 15.9567 -0.3124
47.9400 15.9633 -0.2947
47.9600 15.9699 -0.3072
47.9800 15.9765 -0.3185
48.0000 15.9832 -0.3061
48.0200 15.9899 -0.3122
48.0400 15.9966 -0.3085
48.0600 16.0033 -0.3095
48.0800 16.0100 -0.3152
48.1000 16.0167 -0.3079
48.1200 16.0234 -0.3077
48.1400 16.0300 -0.3231
48.1600 16.0366 -0.2996
48.1800 16.0433 -0.3042
48.2000 16.0500 -0.3305
48.2200 16.0567 -0.3070
48.2400 16.0634 -0.3047
48.2600 16.0701 -0.3282
48.2800 16.0767 -0.3081
48.3000 16.0834 -0.3095
48.3200 16.0900 -0.3275
48.3400 16.0966 -0.3007
48.3600 16.1033 -0.3188
48.3800 16.1100 -0.3311
48.4000 16.1167 -0.3062
48.4200 16.1234 -0.3157
48.4400 16.1300 -0.3281
48.4600 16.1367 -0.3107
48.4800 16.1434 -0.3236
48.5000 16.1500 -0.3198
48.5200 16.1566 -0.3113
48.5400 16.1632 -0.3218
48.5600 16.1699 -0.3175
48.5800 16.1766 -0.3140
48.6000 16.1833 -0.3329
48.6200 16.1900 -0.3195
48.6400 16.1967 -0.3121
48.6600 16.2033 -0.3315
48.6800 16.2099 -0.3276
48.7000 16.2165 -0.3167
48.7200 16.2232 -0.3245
48.7400 16.2299 -0.3267
48.7600 16.2366 -0.3252
48.7800 16.2433 -0.3320
48.8000 16.2500 -0.3170
48.8200 16.2567 -0.3298
48.8400 16.2633 -0.3376
48.8600 16.2700 -0.3265
48.8800 16.2766 -0.3268
48.9000 16.2833 -0.3333
48.9200 16.2900 -0.3219
48.9400 16.2967 -0.3286
48.9600 16.3034 -0.3384
48.9800 16.3100 -0.3268
49.0000 16.3167 -0.3389
49.0200 16.3234 -0.3356
49.0400 16.3300 -0.3235
49.0600 16.3366 -0.3392
49.0800 16.3433 -0.3367
49.1000 16.3500 -0.3292
49.1200 16.3567 -0.3395
49.1400 16.3634 -0.3341
49.1600 16.3701 -0.3364
49.1800 16.3767 -0.3397
49.2000 16.3833 -0.3387
49.2200 16.3899 -0.3410
49.2400 16.3966 -0.3442
49.2600 16.4032 -0.3307
49.2800 16.4099 -0.3452
49.3000 16.4166 -0.3472
49.3200 16.4233 -0.3357
49.3400 16.4300 -0.3426
49.3600 16.4366 -0.3436
49.3800 16.4433 -0.3388
49.4000 16.4499 -0.3515
49.4200 16.4565 -0.3427
49.4400 16.4632 -0.3418
49.4600 16.4699 -0.3568
49.4800 16.4766 -0.3410
49.5000 16.4833 -0.3409
49.5200 16.4900 -0.3627
49.5400 16.4967 -0.3428
49.5600 16.5034 -0.3453
49.5800 16.5100 -0.3642
49.6000 16.5166 -0.3328
49.6200 16.5232 -0.3513
49.6400 16.5300 -0.3666
49.6600 16.5367 -0.3406
49.6800 16.5434 -0.3490
49.7000 16.5500 -0.3638
49.7200 16.5567 -0.3379
49.7400 16.5634 -0.3552
49.7600 16.5700 -0.3615
49.7800 16.5766 -0.3460
49.8000 16.5833 -0.3586
49.8200 16.5900 -0.3573
49.8400 16.5967 -0.3491
49.8600 16.6033 -0.3632
49.8800 16.6100 -0.3572
49.9000 16.6167 -0.3512
49.9200 16.6234 -0.3656
49.9400 16.6300 -0.3593
49.9600 16.6366 -0.3521
49.9800 16.6433 -0.3652
50.0000 16.6499 -0.3663
50.0200 16.6566 -0.3573
50.0400 16.6633 -0.3655
50.0600 16.6700 -0.3627
50.0800 16.6767 -0.3612
50.1000 16.6834 -0.3626
50.1200 16.6900 -0.3680
50.1400 16.6966 -0.3584
50.1600 16.7032 -0.3666
50.1800 16.7099 -0.3696
50.2000 16.7166 -0.3635
50.2200 16.7233 -0.3658
50.2400 16.7300 -0.3706
50.2600 16.7367 -0.3667
50.2800 16.7433 -0.3678
50.3000 16.7500 -0.3688
50.3200 16.7566 -0.3663
50.3400 16.7632 -0.3730
50.3600 16.7699 -0.3715
50.3800 16.7767 -0.3686
50.4000 16.7833 -0.3757
50.4200 16.7900 -0.3719
50.4400 16.7967 -0.3734
50.4600 16.8034 -0.3731
50.4800 16.8100 -0.3672
50.5000 16.8166 -0.3770
50.5200 16.8233 -0.3717
50.5400 16.8299 -0.3758
50.5600 16.8366 -0.3805
50.5800 16.8433 -0.3739
50.6000 16.8500 -0.3743
50.6200 16.8567 -0.3817
50.6400 16.8634 -0.3825
50.6600 16.8700 -0.3788
50.6800 16.8766 -0.3745
50.7000 16.8832 -0.3729
50.7200 16.8899 -0.3825
50.7400 16.8967 -0.3807
50.7600 16.9034 -0.3800
50.7800 16.9100 -0.3868
50.8000 16.9167 -0.3743
50.8200 16.9234 -0.3796
50.8400 16.9300 -0.3953
50.8600 16.9366 -0.3817
50.8800 16.9432 -0.3776
50.9000 16.9499 -0.3842
50.9200 16.9566 -0.3881
50.9400 16.9633 -0.3819
50.9600 16.9700 -0.3879
50.9800 16.9767 -0.3906
51.0000 16.9833 -0.3845
51.0200 16.9900 -0.3851
51.0400 16.9966 -0.3892
51.0600 17.0032 -0.3870
51.0800 17.0099 -0.3903
51.1000 17.0166 -0.3852
51.1200 17.0234 -0.3835
51.1400 17.0300 -0.3951
51.1600 17.0367 -0.3957
51.1800 17.0434 -0.3844
51.2000 17.0500 -0.3933
51.2200 17.0566 -0.4004
51.2400 17.0632 -0.3824
51.2600 17.0699 -0.3980
51.2800 17.0767 -0.4035
51.3000 17.0834 -0.3842
51.3200 17.0900 -0.3930
51.3400 17.0967 -0.3998
51.3600 17.1034 -0.3892
51.3800 17.1100 -0.4070
51.4000 17.1166 -0.3973
51.4200 17.1232 -0.3898
51.4400 17.1299 -0.4069
51.4600 17.1366 -0.4012
51.4800 17.1433 -0.3911
51.5000 17.1500 -0.4067
51.5200 17.1567 -0.3968
51.5400 17.1634 -0.3948
51.5600 17.1700 -0.4045
51.5800 17.1766 -0.3977
51.6000 17.1832 -0.4018
51.6200 17.1899 -0.4080
51.6400 17.1966 -0.3989
51.6600 17.2033 -0.4032
51.6800 17.2100 -0.4066
51.7000 17.2167 -0.4036
51.7200 17.2234 -0.4047
51.7400 17.2300 -0.3961
51.7600 17.2366 -0.4142
51.7800 17.2432 -0.4058
51.8000 17.2499 -0.3969
51.8200 17.2566 -0.4161
51.8400 17.2633 -0.4128
51.8600 17.2700 -0.4005
51.8800 17.2767 -0.4168
51.9000 17.2834 -0.4091
51.9200 17.2900 -0.4003
51.9400 17.2966 -0.4185
51.9600 17.3033 -0.4141
51.9800 17.3099 -0.4038
52.0000 17.3166 -0.4222
52.0200 17.3234 -0.4135
52.0400 17.3300 -0.4083
52.0600 17.3367 -0.4237
52.0800 17.3434 -0.4152
52.1000 17.3500 -0.4128
52.1200 17.3566 -0.4195
52.1400 17.3632 -0.4149
52.1600 17.3699 -0.4134
52.1800 17.3766 -0.4230
52.2000 17.3833 -0.4170
52.2200 17.3900 -0.4197
52.2400 17.3967 -0.4202
52.2600 17.4034 -0.4254
52.2800 17.4100 -0.4130
52.3000 17.4166 -0.4183
52.3200 17.4232 -0.4240
52.3400 17.4299 -0.4204
52.3600 17.4366 -0.4216
52.3800 17.4433 -0.4299
52.4000 17.4499 -0.4195
52.4200 17.4566 -0.4219
52.4400 17.4633 -0.4331
52.4600 17.4700 -0.4229
52.4800 17.4766 -0.4269
52.5000 17.4832 -0.4296
52.5200 17.4899 -0.4188
52.5400 17.4966 -0.4231
52.5600 17.5033 -0.4385
52.5800 17.5100 -0.4228
52.6000 17.5167 -0.4302
52.6200 17.5234 -0.4372
52.6400 17.5301 -0.4190
52.6600 17.5366 -0.4335
52.6800 17.5432 -0.4365
52.7000 17.5499 -0.4166
52.7200 17.5566 -0.4355
52.7400 17.5634 -0.4320
52.7600 17.5701 -0.4237
52.7800 17.5767 -0.4391
52.8000 17.5834 -0.4400
52.8200 17.5900 -0.4258
52.8400 17.5966 -0.4380
52.8600 17.6032 -0.4361
52.8800 17.6099 -0.4289
52.9000 17.6166 -0.4488
52.9200 17.6233 -0.4311
52.9400 17.6300 -0.4306
52.9600 17.6367 -0.4467
52.9800 17.6434 -0.4396
53.0000 17.6500 -0.4378
53.0200 17.6566 -0.4467
53.0400 17.6633 -0.4401
53.0600 17.6699 -0.4385
53.0800 17.6766 -0.4461
53.1000 17.6833 -0.4424
53.1200 17.6900 -0.4430
53.1400 17.6967 -0.4460
53.1600 17.7033 -0.4388
53.1800 17.7100 -0.4480
53.2000 17.7166 -0.4508
53.2200 17.7232 -0.4413
53.2400 17.7299 -0.4454
53.2600 17.7366 -0.4509
53.2800 17.7433 -0.4471
53.3000 17.7500 -0.4494
53.3200 17.7567 -0.4533
53.3400 17.7634 -0.4482
53.3600 17.7700 -0.4546
53.3800 17.7766 -0.4535
53.4000 17.7833 -0.4503
53.4200 17.7899 -0.4559
53.4400 17.7967 -0.4553
53.4600 17.8034 -0.4503
53.4800 17.8101 -0.4598
53.5000 17.8167 -0.4534
53.5200 17.8234 -0.4569
53.5400 17.8300 -0.4590
53.5600 17.8366 -0.4598
53.5800 17.8432 -0.4608
53.6000 17.8499 -0.4607
53.6200 17.8566 -0.4599
53.6400 17.8633 -0.4643
53.6600 17.8700 -0.4600
53.6800 17.8767 -0.4596
53.7000 17.8833 -0.4665
53.7200 17.8900 -0.4600
53.7400 17.8966 -0.4687
53.7600 17.9032 -0.4702
53.7800 17.9099 -0.4616
53.8000 17.9166 -0.4679
53.8200 17.9233 -0.4713
53.8400 17.9300 -0.4599
53.8600 17.9367 -0.4692
53.8800 17.9434 -0.4724
53.9000 17.9500 -0.4641
53.9200 17.9566 -0.4677
53.9400 17.9632 -0.4745
53.9600 17.9699 -0.4660
53.9800 17.9766 -0.4739
54.0000 17.9833 -0.4740
54.0200 17.9900 -0.4675
54.0400 17.9967 -0.4732
54.0600 18.0034 -0.4771
54.0800 18.0101 -0.4714
54.1000 18.0167 -0.4724
54.1200 18.0233 -0.4762
54.1400 18.0299 -0.4708
54.1600 18.0366 -0.4751
54.1800 18.0433 -0.4791
54.2000 18.0500 -0.4784
54.2200 18.0567 -0.4773
54.2400 18.0634 -0.4795
54.2600 18.0701 -0.4779
54.2800 18.0767 -0.4786
54.3000 18.0833 -0.4785
54.3200 18.0899 -0.4794
54.3400 18.0966 -0.4763
54.3600 18.1033 -0.4832
54.3800 18.1100 -0.4811
54.4000 18.1167 -0.4837
54.4200 18.1234 -0.4870
54.4400 18.1300 -0.4819
54.4600 18.1366 -0.4816
54.4800 18.1432 -0.4902
54.5000 18.1499 -0.4814
54.5200 18.1566 -0.4821
54.5400 18.1633 -0.4904
54.5600 18.1700 -0.4880
54.5800 18.1766 -0.4847
54.6000 18.1833 -0.4933
54.6200 18.1900 -0.4892
54.6400 18.1966 -0.4850
54.6600 18.2033 -0.4948
54.6800 18.2099 -0.4838
54.7000 18.2166 -0.4941
54.7200 18.2233 -0.4944
54.7400 18.2300 -0.4923
54.7600 18.2367 -0.4947
54.7800 18.2434 -0.4917
54.8000 18.2501 -0.4938
54.8200 18.2567 -0.5029
54.8400 18.2633 -0.4953
54.8600 18.2699 -0.4926
54.8800 18.2766 -0.4970
54.9000 18.2833 -0.4973
54.9200 18.2900 -0.5003
54.9400 18.2967 -0.5040
54.9600 18.3034 -0.4974
54.9800 18.3100 -0.5040
55.0000 18.3166 -0.5037
55.0200 18.3232 -0.4989
55.0400 18.3299 -0.5043
55.0600 18.3366 -0.4991
55.0800 18.3433 -0.5071
55.1000 18.3500 -0.5105
55.1200 18.3567 -0.4994
55.1400 18.3634 -0.5045
55.1600 18.3700 -0.5188
55.1800 18.3766 -0.4995
55.2000 18.3832 -0.5116
55.2200 18.3899 -0.5168
55.2400 18.3965 -0.5037
55.2600 18.4033 -0.5111
55.2800 18.4100 -0.5138
55.3000 18.4166 -0.5077
55.3200 18.4233 -0.5208
55.3400 18.4300 -0.5162
55.3600 18.4366 -0.5150
55.3800 18.4432 -0.5181
55.4000 18.4499 -0.5141
55.4200 18.4566 -0.5156
55.4400 18.4633 -0.5159
55.4600 18.4700 -0.5193
55.4800 18.4767 -0.5193
55.5000 18.4834 -0.5180
55.5200 18.4901 -0.5211
55.5400 18.4967 -0.5271
55.5600 18.5033 -0.5187
55.5800 18.5100 -0.5231
55.6000 18.5166 -0.5277
55.6200 18.5233 -0.5214
55.6400 18.5300 -0.5236
55.6600 18.5367 -0.5261
55.6800 18.5434 -0.5182
55.7000 18.5501 -0.5310
55.7200 18.5567 -0.5321
55.7400 18.5633 -0.5216
55.7600 18.5699 -0.5334
55.7800 18.5766 -0.5304
55.8000 18.5833 -0.5247
55.8200 18.5900 -0.5393
55.8400 18.5966 -0.5302
55.8600 18.6033 -0.5253
55.8800 18.6100 -0.5416
55.9000 18.6167 -0.5285
55.9200 18.6233 -0.5316
55.9400 18.6299 -0.5401
55.9600 18.6366 -0.5357
55.9800 18.6433 -0.5285
56.0000 18.6500 -0.5445
56.0200 18.6567 -0.5385
56.0400 18.6633 -0.5326
56.0600 18.6700 -0.5421
56.0800 18.6767 -0.5352
56.1000 18.6833 -0.5349
56.1200 18.6899 -0.5451
56.1400 18.6966 -0.5353
56.1600 18.7033 -0.5381
56.1800 18.7100 -0.5452
56.2000 18.7167 -0.5373
56.2200 18.7234 -0.5411
56.2400 18.7301 -0.5511
56.2600 18.7367 -0.5393
56.2800 18.7433 -0.5409
56.3000 18.7499 -0.5474
56.3200 18.7566 -0.5404
56.3400 18.7633 -0.5447
56.3600 18.7700 -0.5447
56.3800 18.7767 -0.5505
56.4000 18.7834 -0.5430
56.4200 18.7900 -0.5487
56.4400 18.7967 -0.5512
56.4600 18.8033 -0.5459
56.4800 18.8099 -0.5481
56.5000 18.8166 -0.5497
56.5200 18.8233 -0.5460
56.5400 18.8300 -0.5547
56.5600 18.8367 -0.5552
56.5800 18.8433 -0.5491
56.6000 18.8500 -0.5520
56.6200 18.8566 -0.5635
56.6400 18.8632 -0.5479
56.6600 18.8698 -0.5530
56.6800 18.8765 -0.5581
56.7000 18.8833 -0.5502
56.7200 18.8900 -0.5598
56.7400 18.8967 -0.5595
56.7600 18.9033 -0.5532
56.7800 18.9100 -0.5634
56.8000 18.9167 -0.5615
56.8200 18.9233 -0.5526
56.8400 18.9299 -0.5705
56.8600 18.9366 -0.5605
56.8800 18.9433 -0.5554
56.9000 18.9500 -0.5718
56.9200 18.9567 -0.5650
56.9400 18.9634 -0.5598
56.9600 18.9701 -0.5777
56.9800 18.9767 -0.5648
57.0000 18.9833 -0.5688
57.0200 18.9899 -0.5751
57.0400 18.9966 -0.5691
57.0600 19.0033 -0.5675
57.0800 19.0100 -0.5749
57.1000 19.0167 -0.5682
57.1200 19.0234 -0.5717
57.1400 19.0300 -0.5788
57.1600 19.0367 -0.5716
57.1800 19.0433 -0.5783
57.2000 19.0499 -0.5765
57.2200 19.0565 -0.5768
57.2400 19.0633 -0.5758
57.2600 19.0700 -0.5782
57.2800 19.0767 -0.5791
57.3000 19.0833 -0.5777
57.3200 19.0900 -0.5799
57.3400 19.0967 -0.5856
57.3600 19.1033 -0.5802
57.3800 19.1099 -0.5834
57.4000 19.1166 -0.5877
57.4200 19.1233 -0.5810
57.4400 19.1300 -0.5854
57.4600 19.1367 -0.5934
57.4800 19.1433 -0.5764
57.5000 19.1500 -0.5858
57.5200 19.1567 -0.5953
57.5400 19.1633 -0.5863
57.5600 19.1699 -0.5919
57.5800 19.1766 -0.5912
57.6000 19.1833 -0.5869
57.6200 19.1900 -0.5967
57.6400 19.1967 -0.5925
57.6600 19.2034 -0.5884
57.6800 19.2101 -0.6038
57.7000 19.2167 -0.5933
57.7200 19.2233 -0.5870
57.7400 19.2299 -0.6034
57.7600 19.2366 -0.5960
57.7800 19.2433 -0.5880
57.8000 19.2500 -0.6087
57.8200 19.2567 -0.5990
57.8400 19.2634 -0.5956
57.8600 19.2701 -0.6042
57.8800 19.2767 -0.6010
57.9000 19.2833 -0.5981
57.9200 19.2899 -0.6113
57.9400 19.2966 -0.6018
57.9600 19.3033 -0.6010
57.9800 19.3100 -0.6119
58.0000 19.3167 -0.6025
58.0200 19.3233 -0.6091
58.0400 19.3300 -0.6144
58.0600 19.3367 -0.6025
58.0800 19.3433 -0.6086
58.1000 19.3499 -0.6140
58.1200 19.3566 -0.6041
58.1400 19.3633 -0.6138
58.1600 19.3700 -0.6212
58.1800 19.3766 -0.6125
58.2000 19.3833 -0.6129
58.2200 19.3900 -0.6227
58.2400 19.3967 -0.6186
58.2600 19.4033 -0.6177
58.2800 19.4099 -0.6139
58.3000 19.4166 -0.6213
58.3200 19.4233 -0.6190
58.3400 19.4300 -0.6172
58.3600 19.4367 -0.6249
58.3800 19.4434 -0.6214
58.4000 19.4501 -0.6231
58.4200 19.4567 -0.6297
58.4400 19.4633 -0.6212
58.4600 19.4699 -0.6237
58.4800 19.4766 -0.6302
58.5000 19.4833 -0.6176
58.5200 19.4900 -0.6268
58.5400 19.4967 -0.6348
58.5600 19.5034 -0.6237
58.5800 19.5100 -0.6306
58.6000 19.5167 -0.6400
58.6200 19.5233 -0.6210
58.6400 19.5299 -0.6396
58.6600 19.5366 -0.6354
58.6800 19.5433 -0.6248
58.7000 19.5500 -0.6392
58.7200 19.5567 -0.6403
58.7400 19.5633 -0.6253
58.7600 19.5700 -0.6413
58.7800 19.5767 -0.6396
58.8000 19.5833 -0.6313
58.8200 19.5899 -0.6441
58.8400 19.5965 -0.6380
58.8600 19.6032 -0.6334
58.8800 19.6099 -0.6466
58.9000 19.6166 -0.6385
58.9200 19.6233 -0.6364
58.9400 19.6300 -0.6521
58.9600 19.6367 -0.6417
58.9800 19.6433 -0.6424
59.0000 19.6499 -0.6496
59.0200 19.6566 -0.6462
59.0400 19.6633 -0.6403
59.0600 19.6700 -0.6488
59.0800 19.6767 -0.6466
59.1000 19.6834 -0.6491
59.1200 19.6901 -0.6546
59.1400 19.6967 -0.6463
59.1600 19.7034 -0.6549
59.1800 19.7100 -0.6596
59.2000 19.7166 -0.6439
59.2200 19.7233 -0.6628
59.2400 19.7300 -0.6599
59.2600 19.7367 -0.6452
59.2800 19.7434 -0.6663
59.3000 19.7501 -0.6626
59.3200 19.7567 -0.6564
59.3400 19.7633 -0.6733
59.3600 19.7699 -0.6619
59.3800 19.7766 -0.6598
59.4000 19.7832 -0.6761
59.4200 19.7900 -0.6632
59.4400 19.7966 -0.6649
59.4600 19.8033 -0.6742
59.4800 19.8100 -0.6647
59.5000 19.8167 -0.6687
59.5200 19.8233 -0.6769
59.5400 19.8299 -0.6675
59.5600 19.8365 -0.6729
59.5800 19.8433 -0.6767
59.6000 19.8500 -0.6298
59.6200 19.8567 -0.5252
59.6400 19.8634 -0.3956
59.6600 19.8700 -0.2667
59.6800 19.8767 -0.1545
59.7000 19.8833 -0.0594
59.7200 19.8900 -0.0164
59.7400 19.8966 0.0384
59.7510 19.9002 0.0822
