Raw Data
Time Displacement Force
(s) (mm) (N)
0.0000 0.0000 0.0797
0.0200 0.0001 0.0907
0.0400 0.0022 0.1571
0.0600 0.0100 0.1558
0.0800 0.0219 0.0605
0.1000 0.0344 0.0736
0.1200 0.0471 0.1133
0.1400 0.0606 0.0696
0.1600 0.0746 0.0854
0.1800 0.0888 0.0910
0.2000 0.1027 0.0630
0.2200 0.1163 0.0840
0.2400 0.1296 0.0915
0.2600 0.1429 0.0670
0.2800 0.1563 0.0952
0.3000 0.1696 0.0888
0.3200 0.1830 0.0675
0.3400 0.1964 0.1021
0.3600 0.2097 0.0840
0.3800 0.2230 0.0722
0.4000 0.2364 0.0983
0.4200 0.2497 0.0812
0.4400 0.2630 0.0803
0.4600 0.2763 0.0954
0.4800 0.2897 0.0812
0.5000 0.3030 0.0823
0.5200 0.3164 0.0923
0.5400 0.3297 0.0839
0.5600 0.3430 0.0837
0.5800 0.3564 0.0905
0.6000 0.3697 0.0842
0.6200 0.3830 0.0847
0.6400 0.3964 0.0876
0.6600 0.4098 0.0880
0.6800 0.4231 0.0871
0.7000 0.4364 0.0890
0.7200 0.4497 0.0901
0.7400 0.4631 0.0872
0.7600 0.4764 0.0860
0.7800 0.4898 0.0882
0.8000 0.5031 0.0819
0.8200 0.5164 0.0840
0.8400 0.5297 0.0910
0.8600 0.5431 0.0799
0.8800 0.5563 0.0811
0.9000 0.5696 0.0933
0.9200 0.5830 0.0742
0.9400 0.5963 0.0855
0.9600 0.6097 0.0910
0.9800 0.6230 0.0742
1.0000 0.6363 0.0865
1.0200 0.6497 0.0863
1.0400 0.6631 0.0740
1.0600 0.6764 0.0873
1.0800 0.6897 0.0845
1.1000 0.7031 0.0729
1.1200 0.7164 0.0824
1.1400 0.7297 0.0822
1.1600 0.7430 0.0775
1.1800 0.7564 0.0910
1.2000 0.7697 0.0840
1.2200 0.7831 0.0776
1.2400 0.7964 0.0825
1.2600 0.8097 0.0799
1.2800 0.8230 0.0802
1.3000 0.8363 0.0812
1.3200 0.8497 0.0796
1.3400 0.8630 0.0778
1.3600 0.8763 0.0819
1.3800 0.8897 0.0805
1.4000 0.9031 0.0815
1.4200 0.9164 0.0806
1.4400 0.9297 0.0827
1.4600 0.9431 0.0841
1.4800 0.9564 0.0771
1.5000 0.9698 0.0811
1.5200 0.9831 0.0829
1.5400 0.9964 0.0769
1.5600 1.0097 0.0842
1.5800 1.0230 0.0803
1.6000 1.0363 0.0803
1.6200 1.0496 0.0852
1.6400 1.0630 0.0830
1.6600 1.0763 0.0812
1.6800 1.0897 0.0829
1.7000 1.1030 0.0804
1.7200 1.1164 0.0766
1.7400 1.1298 0.0814
1.7600 1.1431 0.0831
1.7800 1.1565 0.0752
1.8000 1.1698 0.0801
1.8200 1.1831 0.0818
1.8400 1.1964 0.0790
1.8600 1.2098 0.0774
1.8800 1.2231 0.0840
1.9000 1.2364 0.0806
1.9200 1.2497 0.0792
1.9400 1.2631 0.0849
1.9600 1.2764 0.0770
1.9800 1.2897 0.0824
2.0000 1.3030 0.0860
2.0200 1.3163 0.0764
2.0400 1.3297 0.0816
2.0600 1.3430 0.0857
2.0800 1.3564 0.0799
2.1000 1.3698 0.0822
2.1200 1.3831 0.0857
2.1400 1.3965 0.0763
2.1600 1.4098 0.0842
2.1800 1.4231 0.0891
2.2000 1.4364 0.0772
2.2200 1.4497 0.0876
2.2400 1.4630 0.0867
2.2600 1.4763 0.0799
2.2800 1.4896 0.0863
2.3000 1.5030 0.0865
2.3200 1.5163 0.0816
2.3400 1.5297 0.0804
2.3600 1.5430 0.0860
2.3800 1.5564 0.0801
2.4000 1.5698 0.0786
2.4200 1.5831 0.0859
2.4400 1.5964 0.0777
2.4600 1.6097 0.0765
2.4800 1.6231 0.0858
2.5000 1.6364 0.0764
2.5200 1.6497 0.0756
2.5400 1.6630 0.0880
2.5600 1.6764 0.0739
2.5800 1.6898 0.0736
2.6000 1.7031 0.0862
2.6200 1.7164 0.0739
2.6400 1.7297 0.0765
2.6600 1.7431 0.0859
2.6800 1.7564 0.0699
2.7000 1.7697 0.0789
2.7200 1.7830 0.0911
2.7400 1.7964 0.0727
2.7600 1.8097 0.0728
2.7800 1.8230 0.0884
2.8000 1.8363 0.0710
2.8200 1.8497 0.0752
2.8400 1.8630 0.0920
2.8600 1.8764 0.0708
2.8800 1.8897 0.0785
2.9000 1.9031 0.0898
2.9200 1.9164 0.0712
2.9400 1.9298 0.0786
2.9600 1.9431 0.0858
2.9800 1.9564 0.0705
3.0000 1.9698 0.0769
3.0200 1.9831 0.0885
3.0400 1.9964 0.0683
3.0600 2.0097 0.0776
3.0800 2.0230 0.0900
3.1000 2.0363 0.0705
3.1200 2.0497 0.0762
3.1400 2.0630 0.0828
3.1600 2.0764 0.0744
3.1800 2.0897 0.0746
3.2000 2.1031 0.0811
3.2200 2.1164 0.0728
3.2400 2.1298 0.0747
3.2600 2.1431 0.0804
3.2800 2.1565 0.0751
3.3000 2.1698 0.0768
3.3200 2.1831 0.0777
3.3400 2.1964 0.0706
3.3600 2.2097 0.0770
3.3800 2.2230 0.0763
3.4000 2.2364 0.0723
3.4200 2.2497 0.0738
3.4400 2.2630 0.0784
3.4600 2.2763 0.0772
3.4800 2.2897 0.0696
3.5000 2.3030 0.0779
3.5200 2.3164 0.0781
3.5400 2.3297 0.0688
3.5600 2.3431 0.0766
3.5800 2.3564 0.0751
3.6000 2.3698 0.0696
3.6200 2.3831 0.0771
3.6400 2.3964 0.0741
3.6600 2.4098 0.0665
3.6800 2.4231 0.0797
3.7000 2.4364 0.0730
3.7200 2.4497 0.0683
3.7400 2.4631 0.0796
3.7600 2.4764 0.0759
3.7800 2.4897 0.0668
3.8000 2.5030 0.0802
3.8200 2.5163 0.0743
3.8400 2.5297 0.0681
3.8600 2.5430 0.0823
3.8800 2.5563 0.0739
3.9000 2.5697 0.0677
3.9200 2.5831 0.0784
3.9400 2.5965 0.0739
3.9600 2.6098 0.0678
3.9800 2.6231 0.0764
4.0000 2.6364 0.0713
4.0200 2.6498 0.0662
4.0400 2.6631 0.0783
4.0600 2.6764 0.0701
4.0800 2.6897 0.0676
4.1000 2.7030 0.0775
4.1200 2.7164 0.0696
4.1400 2.7297 0.0680
4.1600 2.7430 0.0722
4.1800 2.7563 0.0742
4.2000 2.7697 0.0625
4.2200 2.7830 0.0744
4.2400 2.7963 0.0747
4.2600 2.8097 0.0648
4.2800 2.8231 0.0757
4.3000 2.8364 0.0738
4.3200 2.8498 0.0664
4.3400 2.8631 0.0742
4.3600 2.8764 0.0716
4.3800 2.8898 0.0680
4.4000 2.9031 0.0705
4.4200 2.9164 0.0672
4.4400 2.9297 0.0662
4.4600 2.9430 0.0711
4.4800 2.9564 0.0748
4.5000 2.9697 0.0612
4.5200 2.9830 0.0761
4.5400 2.9964 0.0740
4.5600 3.0097 0.0661
4.5800 3.0230 0.0768
4.6000 3.0364 0.0700
4.6200 3.0497 0.0667
4.6400 3.0630 0.0763
4.6600 3.0764 0.0700
4.6800 3.0897 0.0698
4.7000 3.1030 0.0789
4.7200 3.1164 0.0654
4.7400 3.1297 0.0671
4.7600 3.1431 0.0801
4.7800 3.1564 0.0660
4.8000 3.1698 0.0713
4.8200 3.1831 0.0770
4.8400 3.1964 0.0622
4.8600 3.2097 0.0735
4.8800 3.2230 0.0777
4.9000 3.2363 0.0651
4.9200 3.2496 0.0741
4.9400 3.2630 0.0737
4.9600 3.2763 0.0636
4.9800 3.2897 0.0769
5.0000 3.3031 0.0715
5.0200 3.3165 0.0619
5.0400 3.3298 0.0737
5.0600 3.3431 0.0682
5.0800 3.3564 0.0722
5.1000 3.3698 0.0719
5.1200 3.3831 0.0639
5.1400 3.3964 0.0683
5.1600 3.4097 0.0692
5.1800 3.4230 0.0652
5.2000 3.4364 0.0696
5.2200 3.4497 0.0692
5.2400 3.4630 0.0683
5.2600 3.4763 0.0695
5.2800 3.4897 0.0678
5.3000 3.5030 0.0668
5.3200 3.5163 0.0732
5.3400 3.5297 0.0600
5.3600 3.5431 0.0668
5.3800 3.5564 0.0742
5.4000 3.5698 0.0596
5.4200 3.5831 0.0709
5.4400 3.5964 0.0675
5.4600 3.6098 0.0625
5.4800 3.6231 0.0719
5.5000 3.6364 0.0685
5.5200 3.6497 0.0653
5.5400 3.6630 0.0718
5.5600 3.6764 0.0636
5.5800 3.6897 0.0657
5.6000 3.7030 0.0734
5.6200 3.7163 0.0617
5.6400 3.7297 0.0658
5.6600 3.7430 0.0747
5.6800 3.7564 0.0597
5.7000 3.7697 0.0684
5.7200 3.7831 0.0727
5.7400 3.7964 0.0568
5.7600 3.8098 0.0727
5.7800 3.8231 0.0674
5.8000 3.8364 0.0530
5.8200 3.8498 0.0690
5.8400 3.8631 0.0650
5.8600 3.8764 0.0564
5.8800 3.8897 0.0724
5.9000 3.9031 0.0639
5.9200 3.9164 0.0568
5.9400 3.9297 0.0742
5.9600 3.9430 0.0616
5.9800 3.9563 0.0576
6.0000 3.9697 0.0755
6.0200 3.9830 0.0612
6.0400 3.9964 0.0560
6.0600 4.0097 0.0750
6.0800 4.0231 0.0560
6.1000 4.0365 0.0577
6.1200 4.0498 0.0746
6.1400 4.0631 0.0584
6.1600 4.0764 0.0575
6.1800 4.0898 0.0721
6.2000 4.1031 0.0618
6.2200 4.1164 0.0589
6.2400 4.1297 0.0722
6.2600 4.1430 0.0599
6.2800 4.1564 0.0613
6.3000 4.1697 0.0737
6.3200 4.1830 0.0557
6.3400 4.1963 0.0618
6.3600 4.2097 0.0742
6.3800 4.2230 0.0571
6.4000 4.2363 0.0668
6.4200 4.2497 0.0702
6.4400 4.2630 0.0592
6.4600 4.2764 0.0684
6.4800 4.2897 0.0659
6.5000 4.3031 0.0570
6.5200 4.3164 0.0661
6.5400 4.3298 0.0670
6.5600 4.3431 0.0541
6.5800 4.3564 0.0689
6.6000 4.3697 0.0667
6.6200 4.3830 0.0572
6.6400 4.3964 0.0646
6.6600 4.4097 0.0625
6.6800 4.4230 0.0566
6.7000 4.4363 0.0650
6.7200 4.4497 0.0646
6.7400 4.4630 0.0549
6.7600 4.4763 0.0685
6.7800 4.4897 0.0616
6.8000 4.5030 0.0553
6.8200 4.5164 0.0660
6.8400 4.5297 0.0618
6.8600 4.5431 0.0542
6.8800 4.5564 0.0622
6.9000 4.5697 0.0619
6.9200 4.5831 0.0524
6.9400 4.5964 0.0590
6.9600 4.6097 0.0603
6.9800 4.6230 0.0489
7.0000 4.6364 0.0613
7.0200 4.6497 0.0609
7.0400 4.6630 0.0532
7.0600 4.6763 0.0592
7.0800 4.6896 0.0579
7.1000 4.7030 0.0530
7.1200 4.7163 0.0590
7.1400 4.7297 0.0608
7.1600 4.7431 0.0541
7.1800 4.7565 0.0625
7.2000 4.7698 0.0588
7.2200 4.7832 0.0522
7.2400 4.7965 0.0615
7.2600 4.8098 0.0609
7.2800 4.8231 0.0496
7.3000 4.8364 0.0585
7.3200 4.8497 0.0649
7.3400 4.8630 0.0536
7.3600 4.8763 0.0574
7.3800 4.8897 0.0694
7.4000 4.9030 0.0517
7.4200 4.9163 0.0589
7.4400 4.9297 0.0666
7.4600 4.9431 0.0502
7.4800 4.9564 0.0630
7.5000 4.9697 0.0674
7.5200 4.9831 0.0534
7.5400 4.9965 0.0609
7.5600 5.0098 0.0622
7.5800 5.0231 0.0546
7.6000 5.0364 0.0628
7.6200 5.0498 0.0648
7.6400 5.0631 0.0510
7.6600 5.0764 0.0633
7.6800 5.0897 0.0641
7.7000 5.1030 0.0540
7.7200 5.1164 0.0595
7.7400 5.1297 0.0627
7.7600 5.1430 0.0555
7.7800 5.1563 0.0620
7.8000 5.1697 0.0549
7.8200 5.1830 0.0519
7.8400 5.1964 0.0602
7.8600 5.2097 0.0577
7.8800 5.2231 0.0560
7.9000 5.2364 0.0587
7.9200 5.2498 0.0596
7.9400 5.2631 0.0542
7.9600 5.2764 0.0558
7.9800 5.2898 0.0608
8.0000 5.3031 0.0528
8.0200 5.3164 0.0575
8.0400 5.3297 0.0619
8.0600 5.3430 0.0522
8.0800 5.3564 0.0610
8.1000 5.3697 0.0611
8.1200 5.3830 0.0519
8.1400 5.3963 0.0643
8.1600 5.4097 0.0631
8.1800 5.4230 0.0517
8.2000 5.4363 0.0667
8.2200 5.4497 0.0606
8.2400 5.4630 0.0532
8.2600 5.4764 0.0596
8.2800 5.4898 0.0564
8.3000 5.5031 0.0517
8.3200 5.5164 0.0617
8.3400 5.5297 0.0557
8.3600 5.5431 0.0544
8.3800 5.5564 0.0626
8.4000 5.5697 0.0552
8.4200 5.5830 0.0551
8.4400 5.5964 0.0623
8.4600 5.6097 0.0529
8.4800 5.6230 0.0561
8.5000 5.6363 0.0572
8.5200 5.6497 0.0550
8.5400 5.6630 0.0527
8.5600 5.6764 0.0569
8.5800 5.6897 0.0580
8.6000 5.7030 0.0551
8.6200 5.7164 0.0547
8.6400 5.7298 0.0571
8.6600 5.7431 0.0521
8.6800 5.7564 0.0561
8.7000 5.7698 0.0588
8.7200 5.7831 0.0480
8.7400 5.7965 0.0557
8.7600 5.8097 0.0552
8.7800 5.8230 0.0462
8.8000 5.8364 0.0561
8.8200 5.8497 0.0507
8.8400 5.8630 0.0481
8.8600 5.8763 0.0551
8.8800 5.8897 0.0521
8.9000 5.9030 0.0503
8.9200 5.9164 0.0505
8.9400 5.9297 0.0512
8.9600 5.9431 0.0519
8.9800 5.9564 0.0483
9.0000 5.9698 0.0451
9.0200 5.9831 0.0511
9.0400 5.9964 0.0491
9.0600 6.0097 0.0447
9.0800 6.0231 0.0499
9.1000 6.0364 0.0497
9.1200 6.0497 0.0507
9.1400 6.0630 0.0533
9.1600 6.0763 0.0437
9.1800 6.0897 0.0513
9.2000 6.1030 0.0501
9.2200 6.1163 0.0435
9.2400 6.1296 0.0530
9.2600 6.1430 0.0496
9.2800 6.1563 0.0402
9.3000 6.1697 0.0571
9.3200 6.1830 0.0468
9.3400 6.1964 0.0495
9.3600 6.2098 0.0549
9.3800 6.2231 0.0388
9.4000 6.2364 0.0492
9.4200 6.2498 0.0516
9.4400 6.2631 0.0425
9.4600 6.2764 0.0490
9.4800 6.2897 0.0444
9.5000 6.3030 0.0436
9.5200 6.3163 0.0484
9.5400 6.3297 0.0451
9.5600 6.3430 0.0468
9.5800 6.3563 0.0508
9.6000 6.3697 0.0406
9.6200 6.3831 0.0458
9.6400 6.3964 0.0506
9.6600 6.4097 0.0385
9.6800 6.4231 0.0491
9.7000 6.4364 0.0480
9.7200 6.4498 0.0374
9.7400 6.4631 0.0490
9.7600 6.4764 0.0496
9.7800 6.4897 0.0360
9.8000 6.5031 0.0521
9.8200 6.5164 0.0474
9.8400 6.5297 0.0387
9.8600 6.5431 0.0541
9.8800 6.5564 0.0447
9.9000 6.5698 0.0346
9.9200 6.5831 0.0508
9.9400 6.5964 0.0452
9.9600 6.6097 0.0391
9.9800 6.6230 0.0481
10.0000 6.6364 0.0457
10.0200 6.6497 0.0393
10.0400 6.6630 0.0496
10.0600 6.6764 0.0404
10.0800 6.6897 0.0395
10.1000 6.7031 0.0483
10.1200 6.7164 0.0423
10.1400 6.7297 0.0383
10.1600 6.7431 0.0476
10.1800 6.7564 0.0397
10.2000 6.7697 0.0466
10.2200 6.7831 0.0485
10.2400 6.7964 0.0398
10.2600 6.8098 0.0425
10.2800 6.8231 0.0478
10.3000 6.8364 0.0442
10.3200 6.8497 0.0457
10.3400 6.8630 0.0475
10.3600 6.8763 0.0434
10.3800 6.8897 0.0413
10.4000 6.9030 0.0484
10.4200 6.9164 0.0438
10.4400 6.9298 0.0391
10.4600 6.9431 0.0473
10.4800 6.9564 0.0472
10.5000 6.9697 0.0419
10.5200 6.9831 0.0464
10.5400 6.9964 0.0472
10.5600 7.0097 0.0389
10.5800 7.0230 0.0490
10.6000 7.0364 0.0461
10.6200 7.0497 0.0404
10.6400 7.0630 0.0496
10.6600 7.0763 0.0458
10.6800 7.0897 0.0398
10.7000 7.1030 0.0528
10.7200 7.1164 0.0410
10.7400 7.1297 0.0383
10.7600 7.1430 0.0520
10.7800 7.1564 0.0431
10.8000 7.1697 0.0389
10.8200 7.1831 0.0475
10.8400 7.1964 0.0437
10.8600 7.2098 0.0394
10.8800 7.2231 0.0481
10.9000 7.2364 0.0437
10.9200 7.2497 0.0418
10.9400 7.2630 0.0487
10.9600 7.2764 0.0413
10.9800 7.2897 0.0400
11.0000 7.3030 0.0442
11.0200 7.3163 0.0457
11.0400 7.3296 0.0381
11.0600 7.3430 0.0475
11.0800 7.3563 0.0455
11.1000 7.3697 0.0380
11.1200 7.3830 0.0455
11.1400 7.3964 0.0443
11.1600 7.4098 0.0390
11.1800 7.4231 0.0440
11.2000 7.4364 0.0421
11.2200 7.4497 0.0376
11.2400 7.4631 0.0437
11.2600 7.4764 0.0428
11.2800 7.4897 0.0367
11.3000 7.5031 0.0460
11.3200 7.5164 0.0386
11.3400 7.5297 0.0357
11.3600 7.5431 0.0431
11.3800 7.5564 0.0381
11.4000 7.5697 0.0363
11.4200 7.5830 0.0407
11.4400 7.5964 0.0353
11.4600 7.6097 0.0354
11.4800 7.6230 0.0402
11.5000 7.6364 0.0387
11.5200 7.6498 0.0340
11.5400 7.6631 0.0368
11.5600 7.6764 0.0359
11.5800 7.6897 0.0380
11.6000 7.7031 0.0383
11.6200 7.7164 0.0358
11.6400 7.7297 0.0379
11.6600 7.7430 0.0361
11.6800 7.7564 0.0398
11.7000 7.7697 0.0358
11.7200 7.7830 0.0339
11.7400 7.7963 0.0404
11.7600 7.8097 0.0337
11.7800 7.8230 0.0380
11.8000 7.8364 0.0396
11.8200 7.8497 0.0300
11.8400 7.8630 0.0388
11.8600 7.8763 0.0419
11.8800 7.8897 0.0306
11.9000 7.9030 0.0389
11.9200 7.9163 0.0433
11.9400 7.9297 0.0294
11.9600 7.9430 0.0380
11.9800 7.9564 0.0395
12.0000 7.9698 0.0332
12.0200 7.9831 0.0417
12.0400 7.9964 0.0384
12.0600 8.0098 0.0335
12.0800 8.0231 0.0391
12.1000 8.0364 0.0358
12.1200 8.0496 0.0363
12.1400 8.0629 0.0428
12.1600 8.0763 0.0366
12.1800 8.0896 0.0318
12.2000 8.1030 0.0432
12.2200 8.1164 0.0337
12.2400 8.1298 0.0353
12.2600 8.1432 0.0413
12.2800 8.1565 0.0298
12.3000 8.1698 0.0380
12.3200 8.1831 0.0354
12.3400 8.1965 0.0381
12.3600 8.2098 0.0396
12.3800 8.2230 0.0353
12.4000 8.2363 0.0369
12.4200 8.2497 0.0386
12.4400 8.2630 0.0364
12.4600 8.2763 0.0407
12.4800 8.2896 0.0383
12.5000 8.3030 0.0311
12.5200 8.3163 0.0407
12.5400 8.3297 0.0366
12.5600 8.3430 0.0316
12.5800 8.3564 0.0489
12.6000 8.3698 0.0323
12.6200 8.3831 0.0337
12.6400 8.3965 0.0441
12.6600 8.4098 0.0326
12.6800 8.4231 0.0411
12.7000 8.4364 0.0445
12.7200 8.4497 0.0332
12.7400 8.4630 0.0412
12.7600 8.4763 0.0370
12.7800 8.4897 0.0350
12.8000 8.5030 0.0409
12.8200 8.5163 0.0387
12.8400 8.5296 0.0372
12.8600 8.5430 0.0406
12.8800 8.5564 0.0386
12.9000 8.5697 0.0387
12.9200 8.5830 0.0372
12.9400 8.5964 0.0386
12.9600 8.6098 0.0354
12.9800 8.6231 0.0361
13.0000 8.6364 0.0430
13.0200 8.6497 0.0366
13.0400 8.6631 0.0360
13.0600 8.6764 0.0428
13.0800 8.6898 0.0350
13.1000 8.7031 0.0376
13.1200 8.7164 0.0406
13.1400 8.7297 0.0359
13.1600 8.7431 0.0407
13.1800 8.7564 0.0383
13.2000 8.7696 0.0330
13.2200 8.7830 0.0376
13.2400 8.7964 0.0362
13.2600 8.8097 0.0346
13.2800 8.8230 0.0373
13.3000 8.8364 0.0360
13.3200 8.8498 0.0388
13.3400 8.8631 0.0310
13.3600 8.8764 0.0335
13.3800 8.8897 0.0389
13.4000 8.9031 0.0306
13.4200 8.9164 0.0293
13.4400 8.9297 0.0374
13.4600 8.9430 0.0292
13.4800 8.9563 0.0348
13.5000 8.9697 0.0330
13.5200 8.9831 0.0238
13.5400 8.9964 0.0335
13.5600 9.0097 0.0353
13.5800 9.0230 0.0191
13.6000 9.0364 0.0307
13.6200 9.0497 0.0338
13.6400 9.0630 0.0205
13.6600 9.0763 0.0245
13.6800 9.0897 0.0327
13.7000 9.1031 0.0179
13.7200 9.1164 0.0246
13.7400 9.1297 0.0309
13.7600 9.1431 0.0148
13.7800 9.1565 0.0221
13.8000 9.1698 0.0329
13.8200 9.1831 0.0109
13.8400 9.1964 0.0261
13.8600 9.2097 0.0347
13.8800 9.2230 0.0101
13.9000 9.2364 0.0219
13.9200 9.2497 0.0320
13.9400 9.2630 0.0158
13.9600 9.2764 0.0205
13.9800 9.2897 0.0357
14.0000 9.3030 0.0092
14.0200 9.3164 0.0226
14.0400 9.3297 0.0313
14.0600 9.3431 0.0114
14.0800 9.3564 0.0266
14.1000 9.3697 0.0285
14.1200 9.3831 0.0151
14.1400 9.3964 0.0268
14.1600 9.4098 0.0301
14.1800 9.4231 0.0201
14.2000 9.4364 0.0303
14.2200 9.4497 0.0278
14.2400 9.4631 0.0150
14.2600 9.4764 0.0322
14.2800 9.4896 0.0243
14.3000 9.5029 0.0206
14.3200 9.5163 0.0314
14.3400 9.5296 0.0233
14.3600 9.5430 0.0221
14.3800 9.5563 0.0300
14.4000 9.5697 0.0244
14.4200 9.5831 0.0241
14.4400 9.5965 0.0287
14.4600 9.6098 0.0280
14.4800 9.6231 0.0240
14.5000 9.6364 0.0278
14.5200 9.6497 0.0249
14.5400 9.6630 0.0294
14.5600 9.6763 0.0232
14.5800 9.6896 0.0266
14.6000 9.7030 0.0267
14.6200 9.7163 0.0225
14.6400 9.7297 0.0319
14.6600 9.7430 0.0251
14.6800 9.7564 0.0208
14.7000 9.7697 0.0323
14.7200 9.7831 0.0231
14.7400 9.7964 0.0205
14.7600 9.8098 0.0333
14.7800 9.8231 0.0227
14.8000 9.8364 0.0207
14.8200 9.8497 0.0324
14.8400 9.8631 0.0220
14.8600 9.8764 0.0217
14.8800 9.8897 0.0308
14.9000 9.9030 0.0216
14.9200 9.9163 0.0222
14.9400 9.9297 0.0302
14.9600 9.9430 0.0204
14.9800 9.9564 0.0225
15.0000 9.9697 0.0297
15.0200 9.9830 0.0258
15.0400 9.9964 0.0239
15.0600 10.0097 0.0241
15.0800 10.0230 0.0312
15.1000 10.0364 0.0212
15.1200 10.0498 0.0274
15.1400 10.0631 0.0283
15.1600 10.0764 0.0214
15.1800 10.0897 0.0299
15.2000 10.1031 0.0277
15.2200 10.1164 0.0246
15.2400 10.1298 0.0338
15.2600 10.1431 0.0250
15.2800 10.1564 0.0258
15.3000 10.1697 0.0319
15.3200 10.1831 0.0257
15.3400 10.1964 0.0183
15.3600 10.2097 0.0336
15.3800 10.2230 0.0258
15.4000 10.2363 0.0219
15.4200 10.2497 0.0320
15.4400 10.2630 0.0227
15.4600 10.2764 0.0224
15.4800 10.2897 0.0300
15.5000 10.3031 0.0235
15.5200 10.3165 0.0208
15.5400 10.3298 0.0308
15.5600 10.3431 0.0234
15.5800 10.3565 0.0177
15.6000 10.3698 0.0296
15.6200 10.3831 0.0246
15.6400 10.3964 0.0208
15.6600 10.4097 0.0265
15.6800 10.4230 0.0220
15.7000 10.4364 0.0228
15.7200 10.4497 0.0229
15.7400 10.4630 0.0249
15.7600 10.4763 0.0274
15.7800 10.4897 0.0235
15.8000 10.5030 0.0222
15.8200 10.5163 0.0257
15.8400 10.5297 0.0245
15.8600 10.5431 0.0217
15.8800 10.5564 0.0288
15.9000 10.5697 0.0222
15.9200 10.5831 0.0225
15.9400 10.5964 0.0280
15.9600 10.6098 0.0173
15.9800 10.6231 0.0262
16.0000 10.6364 0.0270
16.0200 10.6497 0.0182
16.0400 10.6630 0.0306
16.0600 10.6764 0.0257
16.0800 10.6897 0.0208
16.1000 10.7030 0.0313
16.1200 10.7163 0.0247
16.1400 10.7297 0.0186
16.1600 10.7430 0.0328
16.1800 10.7564 0.0243
16.2000 10.7697 0.0136
16.2200 10.7831 0.0325
16.2400 10.7964 0.0161
16.2600 10.8097 0.0175
16.2800 10.8231 0.0347
16.3000 10.8364 0.0154
16.3200 10.8498 0.0240
16.3400 10.8631 0.0290
16.3600 10.8764 0.0171
16.3800 10.8897 0.0250
16.4000 10.9031 0.0227
16.4200 10.9164 0.0208
16.4400 10.9297 0.0199
16.4600 10.9430 0.0259
16.4800 10.9563 0.0218
16.5000 10.9697 0.0194
16.5200 10.9830 0.0253
16.5400 10.9964 0.0167
16.5600 11.0097 0.0205
16.5800 11.0231 0.0244
16.6000 11.0364 0.0219
16.6200 11.0498 0.0174
16.6400 11.0631 0.0238
16.6600 11.0764 0.0236
16.6800 11.0898 0.0183
16.7000 11.1030 0.0267
16.7200 11.1163 0.0193
16.7400 11.1296 0.0219
16.7600 11.1430 0.0237
16.7800 11.1564 0.0175
16.8000 11.1697 0.0240
16.8200 11.1830 0.0244
16.8400 11.1964 0.0182
16.8600 11.2097 0.0213
16.8800 11.2231 0.0234
16.9000 11.2364 0.0177
16.9200 11.2497 0.0224
16.9400 11.2631 0.0246
16.9600 11.2764 0.0138
16.9800 11.2897 0.0230
17.0000 11.3030 0.0253
17.0200 11.3164 0.0203
17.0400 11.3297 0.0252
17.0600 11.3431 0.0213
17.0800 11.3564 0.0224
17.1000 11.3697 0.0227
17.1200 11.3831 0.0198
17.1400 11.3964 0.0218
17.1600 11.4097 0.0250
17.1800 11.4230 0.0189
17.2000 11.4363 0.0209
17.2200 11.4497 0.0219
17.2400 11.4630 0.0180
17.2600 11.4763 0.0227
17.2800 11.4897 0.0175
17.3000 11.5030 0.0169
17.3200 11.5164 0.0196
17.3400 11.5297 0.0165
17.3600 11.5431 0.0208
17.3800 11.5564 0.0150
17.4000 11.5698 0.0176
17.4200 11.5831 0.0185
17.4400 11.5964 0.0154
17.4600 11.6097 0.0184
17.4800 11.6231 0.0135
17.5000 11.6364 0.0190
17.5200 11.6497 0.0173
17.5400 11.6630 0.0161
17.5600 11.6763 0.0187
17.5800 11.6897 0.0164
17.6000 11.7030 0.0128
17.6200 11.7163 0.0191
17.6400 11.7297 0.0176
17.6600 11.7431 0.0093
17.6800 11.7564 0.0232
17.7000 11.7698 0.0160
17.7200 11.7831 0.0112
17.7400 11.7964 0.0238
17.7600 11.8098 0.0113
17.7800 11.8231 0.0164
17.8000 11.8364 0.0258
17.8200 11.8497 0.0059
17.8400 11.8630 0.0171
17.8600 11.8764 0.0282
17.8800 11.8897 0.0008
17.9000 11.9030 0.0241
17.9200 11.9163 0.0236
17.9400 11.9297 0.0058
17.9600 11.9431 0.0265
17.9800 11.9564 0.0250
18.0000 11.9697 0.0058
18.0200 11.9831 0.0254
18.0400 11.9964 0.0207
18.0600 12.0097 0.0067
18.0800 12.0231 0.0277
18.1000 12.0364 0.0223
18.1200 12.0498 0.0078
18.1400 12.0631 0.0254
18.1600 12.0764 0.0185
18.1800 12.0897 0.0126
18.2000 12.1031 0.0249
18.2200 12.1164 0.0149
18.2400 12.1297 0.0125
18.2600 12.1430 0.0229
18.2800 12.1563 0.0183
18.3000 12.1697 0.0148
18.3200 12.1830 0.0206
18.3400 12.1964 0.0171
18.3600 12.2097 0.0176
18.3800 12.2231 0.0137
18.4000 12.2365 0.0186
18.4200 12.2498 0.0152
18.4400 12.2631 0.0180
18.4600 12.2764 0.0222
18.4800 12.2898 0.0078
18.5000 12.3031 0.0219
18.5200 12.3164 0.0207
18.5400 12.3297 0.0090
18.5600 12.3430 0.0206
18.5800 12.3564 0.0185
18.6000 12.3697 0.0098
18.6200 12.3830 0.0135
18.6400 12.3964 0.0189
18.6600 12.4097 0.0090
18.6800 12.4230 0.0204
18.7000 12.4363 0.0137
18.7200 12.4497 0.0085
18.7400 12.4631 0.0197
18.7600 12.4764 0.0088
18.7800 12.4898 0.0075
18.8000 12.5031 0.0239
18.8200 12.5164 0.0059
18.8400 12.5298 0.0070
18.8600 12.5431 0.0239
18.8800 12.5564 0.0102
18.9000 12.5697 0.0098
18.9200 12.5830 0.0270
18.9400 12.5964 0.0039
18.9600 12.6097 0.0146
18.9800 12.6230 0.0263
19.0000 12.6363 0.0066
19.0200 12.6497 0.0149
19.0400 12.6630 0.0252
19.0600 12.6764 0.0106
19.0800 12.6897 0.0098
19.1000 12.7030 0.0201
19.1200 12.7164 0.0097
19.1400 12.7297 0.0137
19.1600 12.7430 0.0182
19.1800 12.7564 0.0090
19.2000 12.7697 0.0111
19.2200 12.7831 0.0205
19.2400 12.7964 0.0098
19.2600 12.8097 0.0126
19.2800 12.8231 0.0169
19.3000 12.8365 0.0085
19.3200 12.8497 0.0091
19.3400 12.8630 0.0157
19.3600 12.8763 0.0106
19.3800 12.8896 0.0072
19.4000 12.9030 0.0149
19.4200 12.9163 0.0082
19.4400 12.9297 0.0093
19.4600 12.9431 0.0162
19.4800 12.9565 0.0055
19.5000 12.9698 0.0103
19.5200 12.9831 0.0173
19.5400 12.9965 0.0079
19.5600 13.0098 0.0094
19.5800 13.0231 0.0122
19.6000 13.0364 0.0082
19.6200 13.0497 0.0137
19.6400 13.0630 0.0146
19.6600 13.0764 0.0093
19.6800 13.0896 0.0111
19.7000 13.1029 0.0126
19.7200 13.1163 0.0094
19.7400 13.1297 0.0133
19.7600 13.1430 0.0133
19.7800 13.1564 0.0068
19.8000 13.1697 0.0130
19.8200 13.1831 0.0150
19.8400 13.1964 0.0095
19.8600 13.2098 0.0119
19.8800 13.2231 0.0135
19.9000 13.2364 0.0137
19.9200 13.2498 0.0088
19.9400 13.2631 0.0102
19.9600 13.2764 0.0159
19.9800 13.2897 0.0093
20.0000 13.3030 0.0115
20.0200 13.3164 0.0145
20.0400 13.3297 0.0135
20.0600 13.3430 0.0136
20.0800 13.3563 0.0142
20.1000 13.3697 0.0118
20.1200 13.3830 0.0169
20.1400 13.3964 0.0115
20.1600 13.4097 0.0154
20.1800 13.4231 0.0141
20.2000 13.4364 0.0104
20.2200 13.4498 0.0124
20.2400 13.4631 0.0110
20.2600 13.4764 0.0120
20.2800 13.4898 0.0106
20.3000 13.5031 0.0061
20.3200 13.5164 0.0111
20.3400 13.5297 0.0144
20.3600 13.5431 0.0109
20.3800 13.5564 0.0060
20.4000 13.5697 0.0155
20.4200 13.5830 0.0087
20.4400 13.5963 0.0138
20.4600 13.6097 0.0106
20.4800 13.6230 0.0056
20.5000 13.6364 0.0125
20.5200 13.6497 0.0129
20.5400 13.6631 0.0075
20.5600 13.6764 0.0091
20.5800 13.6898 0.0137
20.6000 13.7031 0.0077
20.6200 13.7164 0.0140
20.6400 13.7298 0.0123
20.6600 13.7431 0.0037
20.6800 13.7564 0.0163
20.7000 13.7697 0.0107
20.7200 13.7830 0.0098
20.7400 13.7964 0.0106
20.7600 13.8097 0.0153
20.7800 13.8230 0.0110
20.8000 13.8363 0.0103
20.8200 13.8497 0.0156
20.8400 13.8630 0.0069
20.8600 13.8764 0.0112
20.8800 13.8897 0.0141
20.9000 13.9030 0.0074
20.9200 13.9164 0.0090
20.9400 13.9298 0.0140
20.9600 13.9431 0.0083
20.9800 13.9564 0.0084
21.0000 13.9698 0.0181
21.0200 13.9832 0.0076
21.0400 13.9965 0.0085
21.0600 14.0097 0.0171
21.0800 14.0230 0.0073
21.1000 14.0364 0.0124
21.1200 14.0497 0.0116
21.1400 14.0630 0.0114
21.1600 14.0763 0.0077
21.1800 14.0897 0.0193
21.2000 14.1030 0.0075
21.2200 14.1163 0.0081
21.2400 14.1297 0.0198
21.2600 14.1430 0.0085
21.2800 14.1564 0.0128
21.3000 14.1698 0.0133
21.3200 14.1831 0.0073
21.3400 14.1964 0.0138
21.3600 14.2098 0.0183
21.3800 14.2231 0.0106
21.4000 14.2364 0.0094
21.4200 14.2497 0.0174
21.4400 14.2631 0.0114
21.4600 14.2764 0.0138
21.4800 14.2897 0.0205
21.5000 14.3030 0.0100
21.5200 14.3163 0.0127
21.5400 14.3296 0.0218
21.5600 14.3430 0.0117
21.5800 14.3563 0.0187
21.6000 14.3696 0.0164
21.6200 14.3830 0.0126
21.6400 14.3964 0.0146
21.6600 14.4098 0.0136
21.6800 14.4232 0.0135
21.7000 14.4365 0.0160
21.7200 14.4498 0.0164
21.7400 14.4631 0.0130
21.7600 14.4764 0.0156
21.7800 14.4897 0.0168
21.8000 14.5030 0.0202
21.8200 14.5163 0.0113
21.8400 14.5297 0.0144
21.8600 14.5430 0.0191
21.8800 14.5563 0.0046
21.9000 14.5697 0.0172
21.9200 14.5830 0.0154
21.9400 14.5964 0.0025
21.9600 14.6097 0.0248
21.9800 14.6231 0.0124
22.0000 14.6364 0.0054
22.0200 14.6498 0.0217
22.0400 14.6631 0.0069
22.0600 14.6764 0.0080
22.0800 14.6897 0.0280
22.1000 14.7031 0.0049
22.1200 14.7164 0.0056
22.1400 14.7297 0.0260
22.1600 14.7430 0.0054
22.1800 14.7564 0.0071
22.2000 14.7697 0.0194
22.2200 14.7830 0.0057
22.2400 14.7963 0.0124
22.2600 14.8097 0.0143
22.2800 14.8231 0.0071
22.3000 14.8364 0.0108
22.3200 14.8497 0.0155
22.3400 14.8631 0.0069
22.3600 14.8764 0.0094
22.3800 14.8898 0.0157
22.4000 14.9031 0.0094
22.4200 14.9164 0.0084
22.4400 14.9298 0.0150
22.4600 14.9431 0.0114
22.4800 14.9564 0.0085
22.5000 14.9697 0.0131
22.5200 14.9830 0.0140
22.5400 14.9964 0.0058
22.5600 15.0097 0.0102
22.5800 15.0230 0.0095
22.6000 15.0363 0.0075
22.6200 15.0496 0.0119
22.6400 15.0630 0.0065
22.6600 15.0764 0.0094
22.6800 15.0897 0.0090
22.7000 15.1030 0.0132
22.7200 15.1164 0.0074
22.7400 15.1298 0.0075
22.7600 15.1431 0.0127
22.7800 15.1564 0.0086
22.8000 15.1697 0.0126
22.8200 15.1831 0.0120
22.8400 15.1964 0.0066
22.8600 15.2097 0.0108
22.8800 15.2230 0.0134
22.9000 15.2364 0.0094
22.9200 15.2497 0.0092
22.9400 15.2630 0.0127
22.9600 15.2763 0.0057
22.9800 15.2897 0.0114
23.0000 15.3030 0.0137
23.0200 15.3164 0.0023
23.0400 15.3297 0.0150
23.0600 15.3430 0.0101
23.0800 15.3564 0.0054
23.1000 15.3698 0.0122
23.1200 15.3831 0.0108
23.1400 15.3964 0.0084
23.1600 15.4098 0.0080
23.1800 15.4231 0.0079
23.2000 15.4365 0.0041
23.2200 15.4498 0.0089
23.2400 15.4631 0.0085
23.2600 15.4764 0.0042
23.2800 15.4897 0.0063
23.3000 15.5030 0.0041
23.3200 15.5163 0.0051
23.3400 15.5296 0.0078
23.3600 15.5430 0.0054
23.3800 15.5564 0.0024
23.4000 15.5697 0.0084
23.4200 15.5830 0.0053
23.4400 15.5964 0.0032
23.4600 15.6098 0.0079
23.4800 15.6231 0.0000
23.5000 15.6364 0.0027
23.5200 15.6498 0.0079
23.5400 15.6631 0.0041
23.5600 15.6765 0.0052
23.5800 15.6897 0.0099
23.6000 15.7030 0.0040
23.6200 15.7164 0.0022
23.6400 15.7297 0.0121
23.6600 15.7430 0.0053
23.6800 15.7563 0.0064
23.7000 15.7697 0.0071
23.7200 15.7830 0.0031
23.7400 15.7963 0.0045
23.7600 15.8097 0.0070
23.7800 15.8230 0.0075
23.8000 15.8364 0.0043
23.8200 15.8498 0.0019
23.8400 15.8631 0.0095
23.8600 15.8764 0.0051
23.8800 15.8898 0.0032
23.9000 15.9031 0.0045
23.9200 15.9164 0.0061
23.9400 15.9297 0.0024
23.9600 15.9430 0.0046
23.9800 15.9563 0.0055
24.0000 15.9697 -0.0005
24.0200 15.9830 0.0051
24.0400 15.9963 0.0029
24.0600 16.0097 -0.0014
24.0800 16.0231 0.0049
24.1000 16.0364 -0.0002
24.1200 16.0497 -0.0018
24.1400 16.0631 0.0067
24.1600 16.0764 -0.0013
24.1800 16.0897 0.0041
24.2000 16.1030 0.0073
24.2200 16.1164 0.0006
24.2400 16.1297 -0.0017
24.2600 16.1430 0.0084
24.2800 16.1564 0.0039
24.3000 16.1697 0.0010
24.3200 16.1831 0.0073
24.3400 16.1964 0.0040
24.3600 16.2098 0.0018
24.3800 16.2231 0.0034
24.4000 16.2364 0.0089
24.4200 16.2497 0.0066
24.4400 16.2630 0.0047
24.4600 16.2764 0.0087
24.4800 16.2897 0.0029
24.5000 16.3030 0.0090
24.5200 16.3164 0.0041
24.5400 16.3297 0.0031
24.5600 16.3431 0.0054
24.5800 16.3564 0.0102
24.6000 16.3697 0.0014
24.6200 16.3831 0.0045
24.6400 16.3964 0.0073
24.6600 16.4098 0.0006
24.6800 16.4231 0.0072
24.7000 16.4364 0.0107
24.7200 16.4498 -0.0004
24.7400 16.4631 0.0094
24.7600 16.4763 0.0113
24.7800 16.4897 0.0026
24.8000 16.5030 0.0089
24.8200 16.5163 0.0135
24.8400 16.5297 0.0016
24.8600 16.5430 0.0099
24.8800 16.5564 0.0114
24.9000 16.5698 0.0010
24.9200 16.5831 0.0099
24.9400 16.5964 0.0130
24.9600 16.6098 0.0055
24.9800 16.6231 0.0107
25.0000 16.6365 0.0071
25.0200 16.6498 0.0099
25.0400 16.6630 0.0113
25.0600 16.6764 0.0099
25.0800 16.6897 0.0062
25.1000 16.7030 0.0073
25.1200 16.7163 0.0131
25.1400 16.7296 0.0062
25.1600 16.7430 0.0152
25.1800 16.7564 0.0042
25.2000 16.7697 0.0057
25.2200 16.7830 0.0089
25.2400 16.7964 0.0104
25.2600 16.8097 0.0006
25.2800 16.8231 0.0052
25.3000 16.8364 0.0110
25.3200 16.8497 -0.0010
25.3400 16.8631 0.0042
25.3600 16.8765 0.0090
25.3800 16.8898 0.0013
25.4000 16.9031 0.0076
25.4200 16.9164 0.0081
25.4400 16.9297 -0.0002
25.4600 16.9430 0.0059
25.4800 16.9563 0.0083
25.5000 16.9696 -0.0018
25.5200 16.9829 0.0088
25.5400 16.9963 0.0047
25.5600 17.0096 -0.0078
25.5800 17.0230 0.0071
25.6000 17.0364 0.0092
25.6200 17.0498 -0.0083
25.6400 17.0631 0.0032
25.6600 17.0764 0.0095
25.6800 17.0897 -0.0058
25.7000 17.1031 0.0053
25.7200 17.1164 0.0075
25.7400 17.1297 -0.0049
25.7600 17.1430 0.0036
25.7800 17.1564 0.0031
25.8000 17.1697 -0.0052
25.8200 17.1831 0.0044
25.8400 17.1964 0.0025
25.8600 17.2097 -0.0047
25.8800 17.2230 0.0046
25.9000 17.2364 0.0027
25.9200 17.2497 -0.0020
25.9400 17.2630 0.0052
25.9600 17.2764 0.0019
25.9800 17.2898 0.0000
26.0000 17.3031 0.0013
26.0200 17.3164 0.0001
26.0400 17.3297 -0.0008
26.0600 17.3431 0.0018
26.0800 17.3564 0.0046
26.1000 17.3697 0.0020
26.1200 17.3830 0.0029
26.1400 17.3963 0.0056
26.1600 17.4097 0.0013
26.1800 17.4230 0.0027
26.2000 17.4364 0.0038
26.2200 17.4497 -0.0004
26.2400 17.4630 -0.0014
26.2600 17.4764 0.0088
26.2800 17.4897 -0.0044
26.3000 17.5031 0.0024
26.3200 17.5164 0.0100
26.3400 17.5297 -0.0046
26.3600 17.5430 0.0055
26.3800 17.5564 0.0112
26.4000 17.5697 0.0011
26.4200 17.5831 0.0008
26.4400 17.5964 0.0110
26.4600 17.6098 -0.0027
26.4800 17.6231 0.0032
26.5000 17.6364 0.0140
26.5200 17.6498 -0.0034
26.5400 17.6631 0.0056
26.5600 17.6764 0.0095
26.5800 17.6896 -0.0006
26.6000 17.7030 0.0099
26.6200 17.7163 0.0115
26.6400 17.7296 -0.0027
26.6600 17.7430 0.0113
26.6800 17.7564 0.0129
26.7000 17.7698 -0.0017
26.7200 17.7831 0.0059
26.7400 17.7965 0.0096
26.7600 17.8098 -0.0005
26.7800 17.8231 0.0078
26.8000 17.8365 0.0012
26.8200 17.8498 0.0036
26.8400 17.8631 0.0077
26.8600 17.8764 -0.0001
26.8800 17.8897 0.0033
26.9000 17.9030 0.0076
26.9200 17.9163 0.0050
26.9400 17.9296 0.0041
26.9600 17.9430 0.0066
26.9800 17.9563 0.0036
27.0000 17.9697 0.0002
27.0200 17.9830 0.0068
27.0400 17.9964 0.0059
27.0600 18.0097 0.0020
27.0800 18.0231 0.0032
27.1000 18.0365 0.0030
27.1200 18.0498 0.0018
27.1400 18.0631 0.0055
27.1600 18.0764 0.0002
27.1800 18.0898 -0.0030
27.2000 18.1031 0.0037
27.2200 18.1164 -0.0020
27.2400 18.1297 -0.0018
27.2600 18.1430 0.0037
27.2800 18.1563 -0.0061
27.3000 18.1697 0.0001
27.3200 18.1830 0.0006
27.3400 18.1964 -0.0036
27.3600 18.2097 -0.0038
27.3800 18.2230 -0.0032
27.4000 18.2364 -0.0035
27.4200 18.2497 -0.0027
27.4400 18.2631 -0.0011
27.4600 18.2764 -0.0114
27.4800 18.2897 -0.0068
27.5000 18.3031 -0.0036
27.5200 18.3164 -0.0044
27.5400 18.3298 -0.0079
27.5600 18.3431 -0.0056
27.5800 18.3564 -0.0031
27.6000 18.3698 -0.0094
27.6200 18.3831 -0.0042
27.6400 18.3964 -0.0063
27.6600 18.4097 -0.0065
27.6800 18.4230 -0.0059
27.7000 18.4364 -0.0065
27.7200 18.4497 -0.0060
27.7400 18.4630 -0.0069
27.7600 18.4764 -0.0054
27.7800 18.4897 -0.0088
27.8000 18.5031 -0.0116
27.8200 18.5164 -0.0052
27.8400 18.5298 -0.0087
27.8600 18.5431 -0.0031
27.8800 18.5564 -0.0114
27.9000 18.5697 -0.0107
27.9200 18.5830 -0.0066
27.9400 18.5963 -0.0117
27.9600 18.6097 -0.0071
27.9800 18.6231 -0.0069
28.0000 18.6364 -0.0152
28.0200 18.6497 -0.0112
28.0400 18.6630 -0.0067
28.0600 18.6764 -0.0156
28.0800 18.6897 -0.0122
28.1000 18.7030 -0.0070
28.1200 18.7163 -0.0171
28.1400 18.7297 -0.0108
28.1600 18.7431 -0.0099
28.1800 18.7564 -0.0151
28.2000 18.7698 -0.0049
28.2200 18.7831 -0.0064
28.2400 18.7965 -0.0177
28.2600 18.8098 -0.0035
28.2800 18.8231 -0.0062
28.3000 18.8364 -0.0176
28.3200 18.8497 -0.0007
28.3400 18.8631 -0.0075
28.3600 18.8764 -0.0128
28.3800 18.8897 0.0001
28.4000 18.9030 -0.0034
28.4200 18.9163 -0.0109
28.4400 18.9297 -0.0023
28.4600 18.9430 -0.0061
28.4800 18.9564 -0.0058
28.5000 18.9697 -0.0009
28.5200 18.9831 -0.0026
28.5400 18.9964 -0.0049
28.5600 19.0097 -0.0010
28.5800 19.0231 -0.0007
28.6000 19.0364 -0.0041
28.6200 19.0498 0.0022
28.6400 19.0631 0.0010
28.6600 19.0764 -0.0023
28.6800 19.0897 0.0026
28.7000 19.1031 -0.0004
28.7200 19.1164 -0.0011
28.7400 19.1296 0.0022
28.7600 19.1429 -0.0038
28.7800 19.1563 -0.0050
28.8000 19.1696 0.0049
28.8200 19.1830 -0.0018
28.8400 19.1963 -0.0089
28.8600 19.2097 0.0028
28.8800 19.2231 0.0037
28.9000 19.2365 -0.0117
28.9200 19.2498 0.0043
28.9400 19.2631 0.0019
28.9600 19.2765 -0.0060
28.9800 19.2898 0.0022
29.0000 19.3031 -0.0009
29.0200 19.3163 -0.0077
29.0400 19.3296 0.0060
29.0600 19.3430 -0.0037
29.0800 19.3563 -0.0127
29.1000 19.3697 0.0045
29.1200 19.3830 -0.0028
29.1400 19.3964 -0.0095
29.1600 19.4097 0.0019
29.1800 19.4231 -0.0067
29.2000 19.4364 -0.0108
29.2200 19.4498 0.0009
29.2400 19.4631 -0.0040
29.2600 19.4764 -0.0088
29.2800 19.4897 0.0023
29.3000 19.5031 -0.0072
29.3200 19.5164 -0.0089
29.3400 19.5297 0.0001
29.3600 19.5430 -0.0084
29.3800 19.5563 -0.0036
29.4000 19.5697 -0.0044
29.4200 19.5831 -0.0053
29.4400 19.5964 -0.0090
29.4600 19.6097 -0.0016
29.4800 19.6230 -0.0077
29.5000 19.6364 -0.0082
29.5200 19.6497 -0.0026
29.5400 19.6630 -0.0077
29.5600 19.6764 -0.0047
29.5800 19.6897 -0.0003
29.6000 19.7031 -0.0057
29.6200 19.7164 -0.0056
29.6400 19.7297 -0.0033
29.6600 19.7430 -0.0028
29.6800 19.7564 -0.0074
29.7000 19.7698 -0.0054
29.7200 19.7831 -0.0055
29.7400 19.7964 -0.0034
29.7600 19.8097 -0.0081
29.7800 19.8231 -0.0070
29.8000 19.8364 -0.0069
29.8200 19.8497 -0.0075
29.8400 19.8630 -0.0032
29.8600 19.8763 -0.0094
29.8800 19.8897 -0.0118
29.9000 19.9030 -0.0034
29.9200 19.9164 -0.0084
29.9400 19.9297 -0.0117
29.9600 19.9431 -0.0023
29.9800 19.9565 -0.0131
30.0000 19.9698 -0.0143
30.0200 19.9831 -0.0014
30.0400 19.9964 -0.0111
30.0600 20.0098 -0.0169
30.0800 20.0230 -0.0024
30.1000 20.0363 -0.0116
30.1200 20.0497 -0.0134
30.1400 20.0630 -0.0031
30.1600 20.0764 -0.0117
30.1800 20.0897 -0.0118
30.2000 20.1030 -0.0032
30.2200 20.1164 -0.0108
30.2400 20.1297 -0.0115
30.2600 20.1430 -0.0056
30.2800 20.1563 -0.0117
30.3000 20.1697 -0.0128
30.3200 20.1831 -0.0052
30.3400 20.1964 -0.0110
30.3600 20.2097 -0.0104
30.3800 20.2231 -0.0017
30.4000 20.2364 -0.0111
30.4200 20.2498 -0.0073
30.4400 20.2631 -0.0024
30.4600 20.2764 -0.0085
30.4800 20.2897 -0.0021
30.5000 20.3030 -0.0036
30.5200 20.3164 -0.0055
30.5400 20.3297 -0.0055
30.5600 20.3430 0.0008
30.5800 20.3563 -0.0067
30.6000 20.3697 -0.0007
30.6200 20.3830 0.0028
30.6400 20.3964 -0.0024
30.6600 20.4098 0.0051
30.6800 20.4231 0.0081
30.7000 20.4365 0.0557
30.7200 20.4498 0.1209
30.7400 20.4631 0.1767
30.7600 20.4764 0.2334
30.7800 20.4898 0.2851
30.8000 20.5031 0.3276
30.8200 20.5164 0.3673
30.8400 20.5297 0.3553
30.8600 20.5430 0.3272
30.8800 20.5564 0.3188
30.9000 20.5697 0.3094
30.9200 20.5830 0.2979
30.9400 20.5963 0.3114
30.9600 20.6097 0.3034
30.9800 20.6230 0.3034
31.0000 20.6363 0.3190
31.0200 20.6497 0.3067
31.0400 20.6631 0.3016
31.0600 20.6764 0.3098
31.0800 20.6898 0.2993
31.1000 20.7031 0.3051
31.1200 20.7164 0.3196
31.1400 20.7298 0.3078
31.1600 20.7430 0.3048
31.1800 20.7563 0.3115
31.2000 20.7696 0.2991
31.2200 20.7830 0.3033
31.2400 20.7963 0.3038
31.2600 20.8097 0.2925
31.2800 20.8230 0.2926
31.3000 20.8364 0.3016
31.3200 20.8497 0.2883
31.3400 20.8631 0.2954
31.3600 20.8764 0.3007
31.3800 20.8897 0.2902
31.4000 20.9031 0.2962
31.4200 20.9164 0.2939
31.4400 20.9297 0.2941
31.4600 20.9430 0.2928
31.4800 20.9564 0.2932
31.5000 20.9697 0.2939
31.5200 20.9831 0.2932
31.5400 20.9964 0.2968
31.5600 21.0097 0.2903
31.5800 21.0231 0.2927
31.6000 21.0364 0.2954
31.6200 21.0497 0.2855
31.6400 21.0630 0.2921
31.6600 21.0763 0.2964
31.6800 21.0897 0.2849
31.7000 21.1030 0.2834
31.7200 21.1164 0.2962
31.7400 21.1297 0.2785
31.7600 21.1430 0.2802
31.7800 21.1564 0.2953
31.8000 21.1697 0.2770
31.8200 21.1831 0.2818
31.8400 21.1964 0.2955
31.8600 21.2098 0.2757
31.8800 21.2231 0.2778
31.9000 21.2364 0.2918
31.9200 21.2497 0.2764
31.9400 21.2631 0.2831
31.9600 21.2764 0.2956
31.9800 21.2897 0.2716
32.0000 21.3030 0.2806
32.0200 21.3163 0.2903
32.0400 21.3297 0.2702
32.0600 21.3430 0.2774
32.0800 21.3563 0.2844
32.1000 21.3697 0.2693
32.1200 21.3831 0.2758
32.1400 21.3964 0.2822
32.1600 21.4098 0.2709
32.1800 21.4231 0.2755
32.2000 21.4364 0.2842
32.2200 21.4498 0.2679
32.2400 21.4631 0.2751
32.2600 21.4764 0.2838
32.2800 21.4897 0.2683
32.3000 21.5030 0.2768
32.3200 21.5164 0.2787
32.3400 21.5297 0.2731
32.3600 21.5430 0.2797
32.3800 21.5563 0.2768
32.4000 21.5697 0.2713
32.4200 21.5830 0.2726
32.4400 21.5964 0.2785
32.4600 21.6097 0.2681
32.4800 21.6230 0.2702
32.5000 21.6364 0.2797
32.5200 21.6497 0.2648
32.5400 21.6631 0.2704
32.5600 21.6764 0.2739
32.5800 21.6898 0.2649
32.6000 21.7031 0.2656
32.6200 21.7164 0.2748
32.6400 21.7297 0.2622
32.6600 21.7430 0.2660
32.6800 21.7564 0.2768
32.7000 21.7697 0.2579
32.7200 21.7830 0.2643
32.7400 21.7963 0.2785
32.7600 21.8097 0.2555
32.7800 21.8230 0.2634
32.8000 21.8363 0.2685
32.8200 21.8497 0.2579
32.8400 21.8631 0.2608
32.8600 21.8765 0.2645
32.8800 21.8898 0.2572
32.9000 21.9031 0.2603
32.9200 21.9164 0.2652
32.9400 21.9298 0.2545
32.9600 21.9431 0.2620
32.9800 21.9564 0.2617
33.0000 21.9697 0.2585
33.0200 21.9830 0.2652
33.0400 21.9964 0.2598
33.0600 22.0097 0.2596
33.0800 22.0230 0.2610
33.1000 22.0364 0.2588
33.1200 22.0497 0.2576
33.1400 22.0630 0.2548
33.1600 22.0763 0.2597
33.1800 22.0897 0.2578
33.2000 22.1031 0.2549
33.2200 22.1164 0.2570
33.2400 22.1298 0.2531
33.2600 22.1431 0.2558
33.2800 22.1564 0.2586
33.3000 22.1698 0.2567
33.3200 22.1831 0.2505
33.3400 22.1964 0.2573
33.3600 22.2097 0.2560
33.3800 22.2230 0.2428
33.4000 22.2364 0.2620
33.4200 22.2497 0.2544
33.4400 22.2630 0.2444
33.4600 22.2763 0.2614
33.4800 22.2897 0.2545
33.5000 22.3030 0.2483
33.5200 22.3164 0.2607
33.5400 22.3297 0.2516
33.5600 22.3430 0.2435
33.5800 22.3564 0.2561
33.6000 22.3697 0.2511
33.6200 22.3830 0.2457
33.6400 22.3964 0.2551
33.6600 22.4097 0.2465
33.6800 22.4231 0.2473
33.7000 22.4364 0.2524
33.7200 22.4498 0.2474
33.7400 22.4631 0.2475
33.7600 22.4764 0.2497
33.7800 22.4897 0.2455
33.8000 22.5030 0.2451
33.8200 22.5163 0.2482
33.8400 22.5296 0.2459
33.8600 22.5430 0.2490
33.8800 22.5563 0.2478
33.9000 22.5697 0.2444
33.9200 22.5831 0.2462
33.9400 22.5965 0.2436
33.9600 22.6098 0.2469
33.9800 22.6231 0.2463
34.0000 22.6365 0.2432
34.0200 22.6498 0.2453
34.0400 22.6632 0.2427
34.0600 22.6765 0.2446
34.0800 22.6897 0.2458
34.1000 22.7030 0.2432
34.1200 22.7164 0.2390
34.1400 22.7297 0.2463
34.1600 22.7430 0.2383
34.1800 22.7563 0.2415
34.2000 22.7696 0.2433
34.2200 22.7830 0.2387
34.2400 22.7963 0.2415
34.2600 22.8097 0.2392
34.2800 22.8231 0.2358
34.3000 22.8364 0.2404
34.3200 22.8498 0.2364
34.3400 22.8631 0.2340
34.3600 22.8765 0.2426
34.3800 22.8898 0.2384
34.4000 22.9031 0.2374
34.4200 22.9164 0.2427
34.4400 22.9297 0.2356
34.4600 22.9430 0.2408
34.4800 22.9564 0.2406
34.5000 22.9697 0.2347
34.5200 22.9830 0.2390
34.5400 22.9963 0.2388
34.5600 23.0097 0.2344
34.5800 23.0230 0.2358
34.6000 23.0363 0.2353
34.6200 23.0496 0.2329
34.6400 23.0630 0.2336
34.6600 23.0764 0.2340
34.6800 23.0897 0.2324
34.7000 23.1031 0.2374
34.7200 23.1164 0.2340
34.7400 23.1297 0.2315
34.7600 23.1431 0.2330
34.7800 23.1564 0.2298
34.8000 23.1697 0.2343
34.8200 23.1831 0.2320
34.8400 23.1964 0.2364
34.8600 23.2097 0.2330
34.8800 23.2230 0.2320
34.9000 23.2363 0.2340
34.9200 23.2497 0.2316
34.9400 23.2630 0.2281
34.9600 23.2764 0.2326
34.9800 23.2897 0.2318
35.0000 23.3031 0.2283
35.0200 23.3164 0.2338
35.0400 23.3298 0.2297
35.0600 23.3431 0.2266
35.0800 23.3564 0.2357
35.1000 23.3697 0.2258
35.1200 23.3831 0.2276
35.1400 23.3964 0.2339
35.1600 23.4097 0.2270
35.1800 23.4230 0.2274
35.2000 23.4364 0.2284
35.2200 23.4497 0.2243
35.2400 23.4630 0.2269
35.2600 23.4763 0.2283
35.2800 23.4897 0.2233
35.3000 23.5030 0.2279
35.3200 23.5163 0.2267
35.3400 23.5297 0.2197
35.3600 23.5430 0.2302
35.3800 23.5564 0.2236
35.4000 23.5698 0.2174
35.4200 23.5831 0.2270
35.4400 23.5964 0.2222
35.4600 23.6098 0.2231
35.4800 23.6231 0.2294
35.5000 23.6365 0.2207
35.5200 23.6498 0.2265
35.5400 23.6631 0.2309
35.5600 23.6764 0.2167
35.5800 23.6897 0.2251
35.6000 23.7030 0.2320
35.6200 23.7164 0.2201
35.6400 23.7297 0.2222
35.6600 23.7430 0.2322
35.6800 23.7564 0.2175
35.7000 23.7697 0.2246
35.7200 23.7830 0.2289
35.7400 23.7964 0.2184
35.7600 23.8098 0.2222
35.7800 23.8231 0.2254
35.8000 23.8364 0.2170
35.8200 23.8497 0.2188
35.8400 23.8631 0.2270
35.8600 23.8764 0.2180
35.8800 23.8897 0.2187
35.9000 23.9031 0.2287
35.9200 23.9164 0.2136
35.9400 23.9297 0.2171
35.9600 23.9430 0.2260
35.9800 23.9563 0.2154
36.0000 23.9696 0.2159
36.0200 23.9830 0.2268
36.0400 23.9963 0.2104
36.0600 24.0096 0.2150
36.0800 24.0230 0.2267
36.1000 24.0364 0.2121
36.1200 24.0498 0.2179
36.1400 24.0632 0.2229
36.1600 24.0765 0.2074
36.1800 24.0898 0.2204
36.2000 24.1031 0.2209
36.2200 24.1164 0.2080
36.2400 24.1297 0.2205
36.2600 24.1430 0.2182
36.2800 24.1563 0.2078
36.3000 24.1697 0.2201
36.3200 24.1830 0.2138
36.3400 24.1963 0.2108
36.3600 24.2097 0.2182
36.3800 24.2230 0.2151
36.4000 24.2364 0.2081
36.4200 24.2497 0.2163
36.4400 24.2631 0.2150
36.4600 24.2764 0.2080
36.4800 24.2898 0.2148
36.5000 24.3031 0.2083
36.5200 24.3164 0.2109
36.5400 24.3298 0.2112
36.5600 24.3431 0.2104
36.5800 24.3564 0.2090
36.6000 24.3697 0.2102
36.6200 24.3830 0.2085
36.6400 24.3964 0.2058
36.6600 24.4097 0.2086
36.6800 24.4230 0.2111
36.7000 24.4363 0.2106
36.7200 24.4497 0.2057
36.7400 24.4630 0.2054
36.7600 24.4764 0.2113
36.7800 24.4897 0.2030
36.8000 24.5030 0.2121
36.8200 24.5164 0.2094
36.8400 24.5298 0.2002
36.8600 24.5431 0.2088
36.8800 24.5564 0.2092
36.9000 24.5697 0.2001
36.9200 24.5831 0.2114
36.9400 24.5964 0.2095
36.9600 24.6097 0.1977
36.9800 24.6230 0.2138
37.0000 24.6364 0.2075
37.0200 24.6497 0.1986
37.0400 24.6630 0.2143
37.0600 24.6763 0.2029
37.0800 24.6897 0.2027
37.1000 24.7030 0.2179
37.1200 24.7164 0.1974
37.1400 24.7297 0.2044
37.1600 24.7430 0.2130
37.1800 24.7564 0.1957
37.2000 24.7698 0.2080
37.2200 24.7831 0.2116
37.2400 24.7964 0.1934
37.2600 24.8098 0.2083
37.2800 24.8231 0.2097
37.3000 24.8364 0.1968
37.3200 24.8497 0.2125
37.3400 24.8630 0.2100
37.3600 24.8764 0.1979
37.3800 24.8897 0.2084
37.4000 24.9031 0.2077
37.4200 24.9164 0.1972
37.4400 24.9297 0.2065
37.4600 24.9430 0.2073
37.4800 24.9564 0.1971
37.5000 24.9697 0.2028
37.5200 24.9830 0.2063
37.5400 24.9964 0.1977
37.5600 25.0097 0.2029
37.5800 25.0231 0.2035
37.6000 25.0364 0.1963
37.6200 25.0497 0.2045
37.6400 25.0631 0.2042
37.6600 25.0764 0.1981
37.6800 25.0898 0.1996
37.7000 25.1031 0.2048
37.7200 25.1164 0.1941
37.7400 25.1297 0.2014
37.7600 25.1430 0.2005
37.7800 25.1563 0.1982
37.8000 25.1696 0.1966
37.8200 25.1830 0.1953
37.8400 25.1963 0.1999
37.8600 25.2097 0.1973
37.8800 25.2230 0.2004
37.9000 25.2364 0.1952
37.9200 25.2498 0.1913
37.9400 25.2631 0.1955
37.9600 25.2764 0.1954
37.9800 25.2898 0.1913
38.0000 25.3031 0.2012
38.0200 25.3165 0.1952
38.0400 25.3298 0.1910
38.0600 25.3430 0.1991
38.0800 25.3564 0.1944
38.1000 25.3697 0.1919
38.1200 25.3830 0.1947
38.1400 25.3963 0.1923
38.1600 25.4096 0.1935
38.1800 25.4230 0.1961
38.2000 25.4363 0.1850
38.2200 25.4497 0.1942
38.2400 25.4630 0.1963
38.2600 25.4764 0.1849
38.2800 25.4897 0.1984
38.3000 25.5031 0.1844
38.3200 25.5164 0.1851
38.3400 25.5298 0.1932
38.3600 25.5431 0.1872
38.3800 25.5564 0.1881
38.4000 25.5697 0.1932
38.4200 25.5830 0.1848
38.4400 25.5963 0.1894
38.4600 25.6097 0.1899
38.4800 25.6230 0.1833
38.5000 25.6363 0.1910
38.5200 25.6497 0.1894
38.5400 25.6631 0.1816
38.5600 25.6764 0.1874
38.5800 25.6898 0.1868
38.6000 25.7031 0.1805
38.6200 25.7164 0.1866
38.6400 25.7297 0.1853
38.6600 25.7431 0.1762
38.6800 25.7564 0.1874
38.7000 25.7697 0.1863
38.7200 25.7831 0.1772
38.7400 25.7964 0.1871
38.7600 25.8098 0.1895
38.7800 25.8231 0.1760
38.8000 25.8364 0.1882
38.8200 25.8498 0.1872
38.8400 25.8631 0.1715
38.8600 25.8764 0.1897
38.8800 25.8897 0.1870
38.9000 25.9030 0.1719
38.9200 25.9164 0.1882
38.9400 25.9297 0.1818
38.9600 25.9430 0.1787
38.9800 25.9563 0.1892
39.0000 25.9697 0.1752
39.0200 25.9831 0.1748
39.0400 25.9964 0.1917
39.0600 26.0097 0.1743
39.0800 26.0231 0.1797
39.1000 26.0364 0.1906
39.1200 26.0497 0.1693
39.1400 26.0631 0.1809
39.1600 26.0764 0.1909
39.1800 26.0898 0.1757
39.2000 26.1031 0.1814
39.2200 26.1164 0.1912
39.2400 26.1297 0.1745
39.2600 26.1430 0.1859
39.2800 26.1563 0.1885
39.3000 26.1697 0.1730
39.3200 26.1830 0.1829
39.3400 26.1964 0.1859
39.3600 26.2098 0.1746
39.3800 26.2231 0.1794
39.4000 26.2364 0.1859
39.4200 26.2498 0.1747
39.4400 26.2631 0.1777
39.4600 26.2764 0.1872
39.4800 26.2897 0.1743
39.5000 26.3030 0.1780
39.5200 26.3163 0.1882
39.5400 26.3297 0.1728
39.5600 26.3430 0.1711
39.5800 26.3563 0.1857
39.6000 26.3697 0.1752
39.6200 26.3830 0.1724
39.6400 26.3964 0.1831
39.6600 26.4097 0.1739
39.6800 26.4230 0.1717
39.7000 26.4364 0.1856
39.7200 26.4497 0.1675
39.7400 26.4631 0.1736
39.7600 26.4764 0.1832
39.7800 26.4897 0.1673
39.8000 26.5031 0.1729
39.8200 26.5165 0.1799
39.8400 26.5298 0.1682
39.8600 26.5431 0.1703
39.8800 26.5564 0.1846
39.9000 26.5697 0.1634
39.9200 26.5830 0.1714
39.9400 26.5963 0.1797
39.9600 26.6096 0.1632
39.9800 26.6230 0.1744
40.0000 26.6363 0.1769
40.0200 26.6497 0.1670
40.0400 26.6630 0.1764
40.0600 26.6764 0.1778
40.0800 26.6898 0.1663
40.1000 26.7031 0.1723
40.1200 26.7164 0.1753
40.1400 26.7297 0.1701
40.1600 26.7431 0.1723
40.1800 26.7564 0.1733
40.2000 26.7697 0.1698
40.2200 26.7830 0.1754
40.2400 26.7964 0.1699
40.2600 26.8097 0.1716
40.2800 26.8231 0.1694
40.3000 26.8364 0.1674
40.3200 26.8497 0.1771
40.3400 26.8630 0.1700
40.3600 26.8763 0.1698
40.3800 26.8897 0.1747
40.4000 26.9030 0.1661
40.4200 26.9164 0.1728
40.4400 26.9298 0.1734
40.4600 26.9431 0.1649
40.4800 26.9564 0.1712
40.5000 26.9697 0.1760
40.5200 26.9831 0.1636
40.5400 26.9964 0.1726
40.5600 27.0098 0.1679
40.5800 27.0231 0.1668
40.6000 27.0364 0.1747
40.6200 27.0497 0.1642
40.6400 27.0630 0.1680
40.6600 27.0764 0.1725
40.6800 27.0897 0.1684
40.7000 27.1030 0.1668
40.7200 27.1164 0.1678
40.7400 27.1297 0.1667
40.7600 27.1430 0.1628
40.7800 27.1564 0.1711
40.8000 27.1697 0.1628
40.8200 27.1830 0.1621
40.8400 27.1964 0.1710
40.8600 27.2097 0.1601
40.8800 27.2230 0.1621
40.9000 27.2364 0.1699
40.9200 27.2498 0.1563
40.9400 27.2631 0.1615
40.9600 27.2764 0.1657
40.9800 27.2898 0.1563
41.0000 27.3031 0.1626
41.0200 27.3164 0.1602
41.0400 27.3297 0.1534
41.0600 27.3430 0.1632
41.0800 27.3563 0.1601
41.1000 27.3697 0.1480
41.1200 27.3830 0.1672
41.1400 27.3963 0.1605
41.1600 27.4097 0.1494
41.1800 27.4231 0.1656
41.2000 27.4365 0.1584
41.2200 27.4498 0.1529
41.2400 27.4631 0.1648
41.2600 27.4765 0.1576
41.2800 27.4898 0.1563
41.3000 27.5031 0.1632
41.3200 27.5164 0.1557
41.3400 27.5297 0.1553
41.3600 27.5430 0.1588
41.3800 27.5563 0.1524
41.4000 27.5696 0.1548
41.4200 27.5830 0.1605
41.4400 27.5963 0.1550
41.4600 27.6097 0.1574
41.4800 27.6230 0.1546
41.5000 27.6364 0.1531
41.5200 27.6497 0.1595
41.5400 27.6631 0.1538
41.5600 27.6765 0.1541
41.5800 27.6898 0.1532
41.6000 27.7031 0.1602
41.6200 27.7164 0.1538
41.6400 27.7298 0.1549
41.6600 27.7430 0.1588
41.6800 27.7563 0.1538
41.7000 27.7697 0.1546
41.7200 27.7830 0.1564
41.7400 27.7963 0.1540
41.7600 27.8097 0.1566
41.7800 27.8230 0.1546
41.8000 27.8364 0.1526
41.8200 27.8497 0.1515
41.8400 27.8631 0.1520
41.8600 27.8764 0.1540
41.8800 27.8897 0.1538
41.9000 27.9031 0.1520
41.9200 27.9164 0.1529
41.9400 27.9298 0.1567
41.9600 27.9431 0.1490
41.9800 27.9564 0.1539
42.0000 27.9698 0.1515
42.0200 27.9831 0.1523
42.0400 27.9964 0.1532
42.0600 28.0097 0.1491
42.0800 28.0231 0.1484
42.1000 28.0364 0.1492
42.1200 28.0497 0.1504
42.1400 28.0630 0.1515
42.1600 28.0763 0.1465
42.1800 28.0897 0.1485
42.2000 28.1030 0.1482
42.2200 28.1164 0.1451
42.2400 28.1297 0.1486
42.2600 28.1431 0.1464
42.2800 28.1565 0.1433
42.3000 28.1698 0.1498
42.3200 28.1831 0.1485
42.3400 28.1964 0.1407
42.3600 28.2097 0.1487
42.3800 28.2230 0.1457
42.4000 28.2363 0.1426
42.4200 28.2497 0.1467
42.4400 28.2630 0.1415
42.4600 28.2764 0.1436
42.4800 28.2897 0.1432
42.5000 28.3030 0.1410
42.5200 28.3164 0.1409
42.5400 28.3297 0.1455
42.5600 28.3430 0.1389
42.5800 28.3563 0.1463
42.6000 28.3697 0.1409
42.6200 28.3831 0.1400
42.6400 28.3964 0.1439
42.6600 28.4098 0.1351
42.6800 28.4231 0.1435
42.7000 28.4364 0.1436
42.7200 28.4498 0.1332
42.7400 28.4631 0.1482
42.7600 28.4764 0.1414
42.7800 28.4897 0.1348
42.8000 28.5031 0.1454
42.8200 28.5164 0.1377
42.8400 28.5297 0.1385
42.8600 28.5430 0.1496
42.8800 28.5563 0.1368
42.9000 28.5697 0.1319
42.9200 28.5830 0.1503
42.9400 28.5964 0.1383
42.9600 28.6097 0.1340
42.9800 28.6231 0.1461
43.0000 28.6364 0.1340
43.0200 28.6497 0.1350
43.0400 28.6631 0.1494
43.0600 28.6764 0.1372
43.0800 28.6898 0.1353
43.1000 28.7031 0.1403
43.1200 28.7164 0.1323
43.1400 28.7297 0.1438
43.1600 28.7431 0.1455
43.1800 28.7564 0.1296
43.2000 28.7697 0.1485
43.2200 28.7830 0.1390
43.2400 28.7963 0.1295
43.2600 28.8096 0.1438
43.2800 28.8230 0.1405
43.3000 28.8363 0.1339
43.3200 28.8497 0.1382
43.3400 28.8631 0.1392
43.3600 28.8765 0.1348
43.3800 28.8898 0.1401
43.4000 28.9031 0.1374
43.4200 28.9165 0.1309
43.4400 28.9298 0.1362
43.4600 28.9431 0.1350
43.4800 28.9563 0.1375
43.5000 28.9696 0.1373
43.5200 28.9830 0.1387
43.5400 28.9963 0.1317
43.5600 29.0096 0.1322
43.5800 29.0230 0.1400
43.6000 29.0364 0.1309
43.6200 29.0497 0.1322
43.6400 29.0631 0.1340
43.6600 29.0764 0.1322
43.6800 29.0898 0.1372
43.7000 29.1031 0.1371
43.7200 29.1165 0.1274
43.7400 29.1298 0.1353
43.7600 29.1431 0.1348
43.7800 29.1564 0.1282
43.8000 29.1698 0.1366
43.8200 29.1831 0.1340
43.8400 29.1964 0.1259
43.8600 29.2097 0.1375
43.8800 29.2230 0.1325
43.9000 29.2364 0.1234
43.9200 29.2497 0.1333
43.9400 29.2630 0.1327
43.9600 29.2763 0.1264
43.9800 29.2897 0.1338
44.0000 29.3030 0.1295
44.0200 29.3164 0.1324
44.0400 29.3297 0.1304
44.0600 29.3431 0.1340
44.0800 29.3564 0.1287
44.1000 29.3697 0.1325
44.1200 29.3831 0.1352
44.1400 29.3964 0.1270
44.1600 29.4098 0.1305
44.1800 29.4231 0.1329
44.2000 29.4364 0.1248
44.2200 29.4497 0.1290
44.2400 29.4630 0.1364
44.2600 29.4764 0.1223
44.2800 29.4897 0.1271
44.3000 29.5030 0.1356
44.3200 29.5163 0.1226
44.3400 29.5297 0.1289
44.3600 29.5430 0.1323
44.3800 29.5563 0.1234
44.4000 29.5697 0.1280
44.4200 29.5831 0.1364
44.4400 29.5964 0.1224
44.4600 29.6098 0.1246
44.4800 29.6231 0.1338
44.5000 29.6364 0.1251
44.5200 29.6497 0.1274
44.5400 29.6631 0.1270
44.5600 29.6764 0.1277
44.5800 29.6897 0.1247
44.6000 29.7031 0.1292
44.6200 29.7164 0.1228
44.6400 29.7297 0.1261
44.6600 29.7430 0.1288
44.6800 29.7563 0.1226
44.7000 29.7697 0.1237
44.7200 29.7830 0.1275
44.7400 29.7964 0.1229
44.7600 29.8097 0.1209
44.7800 29.8231 0.1239
44.8000 29.8364 0.1220
44.8200 29.8497 0.1210
44.8400 29.8631 0.1245
44.8600 29.8764 0.1222
44.8800 29.8898 0.1153
44.9000 29.9031 0.1241
44.9200 29.9164 0.1226
44.9400 29.9297 0.1193
44.9600 29.9430 0.1258
44.9800 29.9564 0.1219
45.0000 29.9697 0.1193
45.0200 29.9830 0.1246
45.0400 29.9963 0.1213
45.0600 30.0097 0.1174
45.0800 30.0230 0.1233
45.1000 30.0364 0.1155
45.1200 30.0497 0.1185
45.1400 30.0631 0.1200
45.1600 30.0765 0.1132
45.1800 30.0898 0.1229
45.2000 30.1031 0.1190
45.2200 30.1164 0.1132
45.2400 30.1298 0.1222
45.2600 30.1431 0.1195
45.2800 30.1564 0.1140
45.3000 30.1697 0.1222
45.3200 30.1830 0.1197
45.3400 30.1964 0.1152
45.3600 30.2097 0.1174
45.3800 30.2230 0.1189
45.4000 30.2363 0.1177
45.4200 30.2497 0.1185
45.4400 30.2630 0.1140
45.4600 30.2764 0.1190
45.4800 30.2897 0.1148
45.5000 30.3031 0.1147
45.5200 30.3165 0.1141
45.5400 30.3298 0.1155
45.5600 30.3431 0.1162
45.5800 30.3564 0.1124
45.6000 30.3698 0.1110
45.6200 30.3831 0.1197
45.6400 30.3963 0.1134
45.6600 30.4096 0.1110
45.6800 30.4230 0.1202
45.7000 30.4363 0.1107
45.7200 30.4497 0.1064
45.7400 30.4630 0.1162
45.7600 30.4764 0.1107
45.7800 30.4897 0.1108
45.8000 30.5031 0.1158
45.8200 30.5164 0.1048
45.8400 30.5297 0.1136
45.8600 30.5431 0.1196
45.8800 30.5564 0.1067
45.9000 30.5697 0.1121
45.9200 30.5830 0.1229
45.9400 30.5964 0.1064
45.9600 30.6097 0.1109
45.9800 30.6231 0.1204
46.0000 30.6364 0.1087
46.0200 30.6497 0.1139
46.0400 30.6631 0.1160
46.0600 30.6764 0.1070
46.0800 30.6897 0.1119
46.1000 30.7030 0.1174
46.1200 30.7163 0.1063
46.1400 30.7297 0.1074
46.1600 30.7430 0.1173
46.1800 30.7563 0.1030
46.2000 30.7697 0.1080
46.2200 30.7830 0.1148
46.2400 30.7964 0.1066
46.2600 30.8097 0.1063
46.2800 30.8231 0.1156
46.3000 30.8364 0.1040
46.3200 30.8498 0.1081
46.3400 30.8631 0.1096
46.3600 30.8764 0.1043
46.3800 30.8897 0.1104
46.4000 30.9031 0.1089
46.4200 30.9164 0.1007
46.4400 30.9297 0.1100
46.4600 30.9430 0.1078
46.4800 30.9563 0.1049
46.5000 30.9697 0.1093
46.5200 30.9830 0.1087
46.5400 30.9963 0.1073
46.5600 31.0097 0.1076
46.5800 31.0231 0.1061
46.6000 31.0365 0.1062
46.6200 31.0498 0.1073
46.6400 31.0631 0.1041
46.6600 31.0764 0.1060
46.6800 31.0898 0.1072
46.7000 31.1031 0.1060
46.7200 31.1164 0.1032
46.7400 31.1297 0.1070
46.7600 31.1431 0.1053
46.7800 31.1564 0.1025
46.8000 31.1697 0.1052
46.8200 31.1830 0.1050
46.8400 31.1963 0.0991
46.8600 31.2097 0.1074
46.8800 31.2231 0.1028
46.9000 31.2364 0.0978
46.9200 31.2497 0.1074
46.9400 31.2630 0.1002
46.9600 31.2764 0.0962
46.9800 31.2897 0.1018
47.0000 31.3031 0.0988
47.0200 31.3164 0.1045
47.0400 31.3298 0.0993
47.0600 31.3431 0.0940
47.0800 31.3564 0.1069
47.1000 31.3697 0.0992
47.1200 31.3830 0.0940
47.1400 31.3964 0.1057
47.1600 31.4097 0.0992
47.1800 31.4230 0.0987
47.2000 31.4363 0.1006
47.2200 31.4496 0.0977
47.2400 31.4630 0.0968
47.2600 31.4763 0.1039
47.2800 31.4897 0.0947
47.3000 31.5031 0.0998
47.3200 31.5164 0.1015
47.3400 31.5298 0.0905
47.3600 31.5431 0.1024
47.3800 31.5564 0.0972
47.4000 31.5697 0.0928
47.4200 31.5831 0.0998
47.4400 31.5964 0.0996
47.4600 31.6097 0.0912
47.4800 31.6230 0.0986
47.5000 31.6364 0.0997
47.5200 31.6497 0.0918
47.5400 31.6630 0.0991
47.5600 31.6763 0.0953
47.5800 31.6897 0.0914
47.6000 31.7030 0.1016
47.6200 31.7164 0.0966
47.6400 31.7297 0.0906
47.6600 31.7431 0.0980
47.6800 31.7564 0.0947
47.7000 31.7698 0.0922
47.7200 31.7831 0.0969
47.7400 31.7964 0.0904
47.7600 31.8098 0.0925
47.7800 31.8231 0.0955
47.8000 31.8364 0.0925
47.8200 31.8497 0.0924
47.8400 31.8630 0.0972
47.8600 31.8764 0.0932
47.8800 31.8897 0.0940
47.9000 31.9030 0.0929
47.9200 31.9164 0.0982
47.9400 31.9297 0.0944
47.9600 31.9430 0.0894
47.9800 31.9563 0.1008
48.0000 31.9697 0.0925
48.0200 31.9830 0.0948
48.0400 31.9964 0.0958
48.0600 32.0097 0.0877
48.0800 32.0230 0.0940
48.1000 32.0363 0.0981
48.1200 32.0497 0.0893
48.1400 32.0631 0.0876
48.1600 32.0764 0.0972
48.1800 32.0898 0.0957
48.2000 32.1031 0.0898
48.2200 32.1165 0.0920
48.2400 32.1297 0.0911
48.2600 32.1430 0.0938
48.2800 32.1563 0.0899
48.3000 32.1696 0.0926
48.3200 32.1830 0.0897
48.3400 32.1963 0.0891
48.3600 32.2096 0.0949
48.3800 32.2230 0.0865
48.4000 32.2364 0.0929
48.4200 32.2498 0.0920
48.4400 32.2631 0.0859
48.4600 32.2764 0.0933
48.4800 32.2898 0.0874
48.5000 32.3031 0.0881
48.5200 32.3164 0.0872
48.5400 32.3297 0.0949
48.5600 32.3430 0.0840
48.5800 32.3564 0.0926
48.6000 32.3697 0.0950
48.6200 32.3830 0.0818
48.6400 32.3963 0.0939
48.6600 32.4096 0.0877
48.6800 32.4230 0.0824
48.7000 32.4363 0.0956
48.7200 32.4497 0.0883
48.7400 32.4631 0.0841
48.7600 32.4764 0.0904
48.7800 32.4898 0.0858
48.8000 32.5031 0.0839
48.8200 32.5164 0.0916
48.8400 32.5298 0.0877
48.8600 32.5431 0.0845
48.8800 32.5564 0.0890
48.9000 32.5697 0.0856
48.9200 32.5830 0.0862
48.9400 32.5964 0.0899
48.9600 32.6097 0.0834
48.9800 32.6230 0.0878
49.0000 32.6363 0.0862
49.0200 32.6497 0.0835
49.0400 32.6630 0.0864
49.0600 32.6764 0.0857
49.0800 32.6897 0.0846
49.1000 32.7030 0.0827
49.1200 32.7164 0.0849
49.1400 32.7298 0.0845
49.1600 32.7431 0.0798
49.1800 32.7564 0.0873
49.2000 32.7697 0.0865
49.2200 32.7831 0.0830
49.2400 32.7964 0.0841
49.2600 32.8097 0.0844
49.2800 32.8231 0.0806
49.3000 32.8364 0.0809
49.3200 32.8497 0.0869
49.3400 32.8630 0.0773
49.3600 32.8763 0.0880
49.3800 32.8896 0.0840
49.4000 32.9030 0.0788
49.4200 32.9164 0.0818
49.4400 32.9297 0.0852
49.4600 32.9431 0.0770
49.4800 32.9564 0.0871
49.5000 32.9698 0.0815
49.5200 32.9831 0.0757
49.5400 32.9964 0.0846
49.5600 33.0097 0.0813
49.5800 33.0231 0.0764
49.6000 33.0364 0.0870
49.6200 33.0497 0.0812
49.6400 33.0630 0.0788
49.6600 33.0764 0.0848
49.6800 33.0897 0.0788
49.7000 33.1030 0.0817
49.7200 33.1163 0.0853
49.7400 33.1297 0.0764
49.7600 33.1430 0.0804
49.7800 33.1563 0.0859
49.8000 33.1697 0.0751
49.8200 33.1830 0.0775
49.8400 33.1964 0.0838
49.8600 33.2098 0.0693
49.8800 33.2231 0.0787
49.9000 33.2364 0.0811
49.9200 33.2498 0.0754
49.9400 33.2631 0.0768
49.9600 33.2765 0.0735
49.9800 33.2898 0.0772
50.0000 33.3031 0.0815
50.0200 33.3164 0.0764
50.0400 33.3297 0.0749
50.0600 33.3430 0.0788
50.0800 33.3564 0.0758
50.1000 33.3697 0.0765
50.1200 33.3830 0.0784
50.1400 33.3964 0.0733
50.1600 33.4097 0.0740
50.1800 33.4230 0.0823
50.2000 33.4364 0.0741
50.2200 33.4498 0.0781
50.2400 33.4631 0.0784
50.2600 33.4764 0.0727
50.2800 33.4897 0.0775
50.3000 33.5031 0.0760
50.3200 33.5164 0.0711
50.3400 33.5297 0.0799
50.3600 33.5431 0.0764
50.3800 33.5564 0.0706
50.4000 33.5697 0.0775
50.4200 33.5830 0.0738
50.4400 33.5963 0.0772
50.4600 33.6096 0.0759
50.4800 33.6230 0.0705
50.5000 33.6363 0.0765
50.5200 33.6496 0.0741
50.5400 33.6630 0.0774
50.5600 33.6764 0.0732
50.5800 33.6898 0.0697
50.6000 33.7031 0.0758
50.6200 33.7165 0.0709
50.6400 33.7298 0.0711
50.6600 33.7431 0.0745
50.6800 33.7564 0.0688
50.7000 33.7697 0.0738
50.7200 33.7830 0.0711
50.7400 33.7963 0.0704
50.7600 33.8097 0.0695
50.7800 33.8230 0.0712
50.8000 33.8363 0.0705
50.8200 33.8497 0.0674
50.8400 33.8630 0.0724
50.8600 33.8764 0.0664
50.8800 33.8897 0.0678
50.9000 33.9031 0.0676
50.9200 33.9164 0.0686
50.9400 33.9298 0.0657
50.9600 33.9431 0.0690
50.9800 33.9564 0.0698
51.0000 33.9697 0.0672
51.0200 33.9830 0.0708
51.0400 33.9964 0.0672
51.0600 34.0097 0.0701
51.0800 34.0230 0.0718
51.1000 34.0364 0.0693
51.1200 34.0497 0.0653
51.1400 34.0630 0.0653
51.1600 34.0763 0.0685
51.1800 34.0897 0.0683
51.2000 34.1030 0.0713
51.2200 34.1164 0.0645
51.2400 34.1297 0.0712
51.2600 34.1431 0.0736
51.2800 34.1564 0.0630
51.3000 34.1698 0.0717
51.3200 34.1831 0.0701
51.3400 34.1964 0.0627
51.3600 34.2097 0.0723
51.3800 34.2231 0.0684
51.4000 34.2365 0.0609
51.4200 34.2498 0.0721
51.4400 34.2631 0.0690
51.4600 34.2764 0.0599
51.4800 34.2897 0.0724
51.5000 34.3031 0.0658
51.5200 34.3163 0.0626
51.5400 34.3296 0.0734
51.5600 34.3430 0.0630
51.5800 34.3564 0.0641
51.6000 34.3697 0.0701
51.6200 34.3830 0.0653
51.6400 34.3964 0.0643
51.6600 34.4098 0.0690
51.6800 34.4231 0.0620
51.7000 34.4364 0.0633
51.7200 34.4498 0.0684
51.7400 34.4631 0.0696
51.7600 34.4764 0.0583
51.7800 34.4897 0.0638
51.8000 34.5030 0.0687
51.8200 34.5164 0.0626
51.8400 34.5297 0.0615
51.8600 34.5431 0.0669
51.8800 34.5564 0.0619
51.9000 34.5697 0.0652
51.9200 34.5830 0.0619
51.9400 34.5964 0.0628
51.9600 34.6097 0.0636
51.9800 34.6230 0.0613
52.0000 34.6363 0.0636
52.0200 34.6497 0.0636
52.0400 34.6631 0.0562
52.0600 34.6764 0.0649
52.0800 34.6897 0.0638
52.1000 34.7031 0.0553
52.1200 34.7165 0.0667
52.1400 34.7298 0.0638
52.1600 34.7431 0.0569
52.1800 34.7564 0.0695
52.2000 34.7697 0.0584
52.2200 34.7830 0.0566
52.2400 34.7963 0.0692
52.2600 34.8097 0.0532
52.2800 34.8230 0.0632
52.3000 34.8363 0.0637
52.3200 34.8497 0.0519
52.3400 34.8630 0.0682
52.3600 34.8764 0.0614
52.3800 34.8898 0.0526
52.4000 34.9031 0.0625
52.4200 34.9164 0.0615
52.4400 34.9297 0.0539
52.4600 34.9431 0.0639
52.4800 34.9564 0.0561
52.5000 34.9697 0.0553
52.5200 34.9830 0.0665
52.5400 34.9964 0.0529
52.5600 35.0097 0.0583
52.5800 35.0231 0.0611
52.6000 35.0363 0.0536
52.6200 35.0497 0.0586
52.6400 35.0630 0.0560
52.6600 35.0763 0.0509
52.6800 35.0897 0.0565
52.7000 35.1030 0.0522
52.7200 35.1164 0.0561
52.7400 35.1298 0.0568
52.7600 35.1431 0.0474
52.7800 35.1564 0.0549
52.8000 35.1698 0.0599
52.8200 35.1831 0.0486
52.8400 35.1964 0.0598
52.8600 35.2097 0.0551
52.8800 35.2230 0.0481
52.9000 35.2363 0.0618
52.9200 35.2497 0.0569
52.9400 35.2630 0.0511
52.9600 35.2763 0.0605
52.9800 35.2897 0.0540
53.0000 35.3031 0.0539
53.0200 35.3164 0.0536
53.0400 35.3298 0.0565
53.0600 35.3431 0.0543
53.0800 35.3564 0.0522
53.1000 35.3698 0.0550
53.1200 35.3831 0.0539
53.1400 35.3964 0.0539
53.1600 35.4097 0.0546
53.1800 35.4230 0.0527
53.2000 35.4364 0.0488
53.2200 35.4497 0.0582
53.2400 35.4631 0.0497
53.2600 35.4764 0.0532
53.2800 35.4898 0.0577
53.3000 35.5031 0.0466
53.3200 35.5164 0.0529
53.3400 35.5297 0.0572
53.3600 35.5430 0.0449
53.3800 35.5563 0.0543
53.4000 35.5697 0.0557
53.4200 35.5830 0.0429
53.4400 35.5964 0.0568
53.4600 35.6097 0.0555
53.4800 35.6231 0.0387
53.5000 35.6364 0.0540
53.5200 35.6497 0.0503
53.5400 35.6631 0.0411
53.5600 35.6764 0.0547
53.5800 35.6898 0.0458
53.6000 35.7031 0.0437
53.6200 35.7164 0.0542
53.6400 35.7298 0.0450
53.6600 35.7431 0.0465
53.6800 35.7564 0.0545
53.7000 35.7697 0.0435
53.7200 35.7830 0.0482
53.7400 35.7963 0.0481
53.7600 35.8097 0.0411
53.7800 35.8230 0.0503
53.8000 35.8364 0.0447
53.8200 35.8497 0.0429
53.8400 35.8631 0.0441
53.8600 35.8764 0.0435
53.8800 35.8898 0.0449
53.9000 35.9031 0.0472
53.9200 35.9164 0.0408
53.9400 35.9297 0.0446
53.9600 35.9430 0.0489
53.9800 35.9563 0.0397
54.0000 35.9697 0.0496
54.0200 35.9830 0.0452
54.0400 35.9963 0.0407
54.0600 36.0097 0.0501
54.0800 36.0230 0.0430
54.1000 36.0364 0.0399
54.1200 36.0497 0.0475
54.1400 36.0630 0.0408
54.1600 36.0764 0.0409
54.1800 36.0897 0.0468
54.2000 36.1031 0.0417
54.2200 36.1164 0.0379
54.2400 36.1297 0.0484
54.2600 36.1431 0.0450
54.2800 36.1565 0.0371
54.3000 36.1698 0.0506
54.3200 36.1831 0.0369
54.3400 36.1964 0.0430
54.3600 36.2097 0.0487
54.3800 36.2231 0.0339
54.4000 36.2364 0.0430
54.4200 36.2497 0.0459
54.4400 36.2630 0.0368
54.4600 36.2763 0.0427
54.4800 36.2897 0.0492
54.5000 36.3030 0.0328
54.5200 36.3164 0.0433
54.5400 36.3298 0.0448
54.5600 36.3431 0.0330
54.5800 36.3565 0.0487
54.6000 36.3698 0.0435
54.6200 36.3831 0.0358
54.6400 36.3964 0.0420
54.6600 36.4097 0.0415
54.6800 36.4230 0.0399
54.7000 36.4363 0.0384
54.7200 36.4497 0.0399
54.7400 36.4631 0.0344
54.7600 36.4764 0.0406
54.7800 36.4897 0.0401
54.8000 36.5030 0.0371
54.8200 36.5164 0.0424
54.8400 36.5297 0.0337
54.8600 36.5430 0.0386
54.8800 36.5564 0.0400
54.9000 36.5697 0.0404
54.9200 36.5831 0.0342
54.9400 36.5964 0.0355
54.9600 36.6097 0.0403
54.9800 36.6231 0.0359
55.0000 36.6364 0.0387
55.0200 36.6497 0.0389
55.0400 36.6630 0.0327
55.0600 36.6763 0.0389
55.0800 36.6897 0.0422
55.1000 36.7030 0.0317
55.1200 36.7163 0.0400
55.1400 36.7296 0.0403
55.1600 36.7430 0.0327
55.1800 36.7564 0.0390
55.2000 36.7697 0.0340
55.2200 36.7830 0.0366
55.2400 36.7964 0.0390
55.2600 36.8097 0.0312
55.2800 36.8230 0.0320
55.3000 36.8364 0.0405
55.3200 36.8497 0.0313
55.3400 36.8630 0.0315
55.3600 36.8764 0.0429
55.3800 36.8898 0.0269
55.4000 36.9031 0.0325
55.4200 36.9164 0.0395
55.4400 36.9298 0.0281
55.4600 36.9431 0.0335
55.4800 36.9564 0.0349
55.5000 36.9697 0.0272
55.5200 36.9830 0.0365
55.5400 36.9963 0.0355
55.5600 37.0096 0.0289
55.5800 37.0230 0.0320
55.6000 37.0363 0.0343
55.6200 37.0497 0.0271
55.6400 37.0631 0.0298
55.6600 37.0765 0.0344
55.6800 37.0898 0.0291
55.7000 37.1031 0.0278
55.7200 37.1165 0.0390
55.7400 37.1298 0.0194
55.7600 37.1431 0.0333
55.7800 37.1564 0.0373
55.8000 37.1697 0.0225
55.8200 37.1830 0.0311
55.8400 37.1964 0.0340
55.8600 37.2097 0.0210
55.8800 37.2230 0.0355
55.9000 37.2363 0.0324
55.9200 37.2497 0.0204
55.9400 37.2630 0.0319
55.9600 37.2763 0.0311
55.9800 37.2897 0.0207
56.0000 37.3031 0.0346
56.0200 37.3164 0.0280
56.0400 37.3298 0.0214
56.0600 37.3431 0.0296
56.0800 37.3565 0.0267
56.1000 37.3698 0.0233
56.1200 37.3831 0.0345
56.1400 37.3964 0.0290
56.1600 37.4097 0.0293
56.1800 37.4231 0.0272
56.2000 37.4364 0.0263
56.2200 37.4497 0.0307
56.2400 37.4630 0.0291
56.2600 37.4763 0.0277
56.2800 37.4897 0.0283
56.3000 37.5030 0.0311
56.3200 37.5164 0.0236
56.3400 37.5297 0.0261
56.3600 37.5431 0.0307
56.3800 37.5564 0.0233
56.4000 37.5697 0.0275
56.4200 37.5831 0.0329
56.4400 37.5964 0.0261
56.4600 37.6098 0.0243
56.4800 37.6231 0.0298
56.5000 37.6364 0.0295
56.5200 37.6497 0.0195
56.5400 37.6631 0.0325
56.5600 37.6764 0.0221
56.5800 37.6897 0.0188
56.6000 37.7030 0.0296
56.6200 37.7163 0.0220
56.6400 37.7297 0.0223
56.6600 37.7430 0.0294
56.6800 37.7564 0.0174
56.7000 37.7697 0.0224
56.7200 37.7831 0.0305
56.7400 37.7965 0.0179
56.7600 37.8098 0.0195
56.7800 37.8231 0.0273
56.8000 37.8364 0.0153
56.8200 37.8498 0.0216
56.8400 37.8631 0.0316
56.8600 37.8764 0.0156
56.8800 37.8897 0.0220
56.9000 37.9030 0.0296
56.9200 37.9164 0.0164
56.9400 37.9297 0.0186
56.9600 37.9430 0.0270
56.9800 37.9563 0.0160
57.0000 37.9697 0.0225
57.0200 37.9830 0.0276
57.0400 37.9964 0.0110
57.0600 38.0097 0.0223
57.0800 38.0231 0.0229
57.1000 38.0364 0.0132
57.1200 38.0498 0.0205
57.1400 38.0631 0.0234
57.1600 38.0765 0.0163
57.1800 38.0898 0.0150
57.2000 38.1031 0.0255
57.2200 38.1164 0.0118
57.2400 38.1297 0.0204
57.2600 38.1431 0.0220
57.2800 38.1564 0.0121
57.3000 38.1697 0.0187
57.3200 38.1830 0.0206
57.3400 38.1963 0.0145
57.3600 38.2097 0.0132
57.3800 38.2230 0.0230
57.4000 38.2364 0.0135
57.4200 38.2497 0.0132
57.4400 38.2631 0.0202
57.4600 38.2764 0.0080
57.4800 38.2897 0.0191
57.5000 38.3031 0.0165
57.5200 38.3164 0.0100
57.5400 38.3298 0.0170
57.5600 38.3431 0.0130
57.5800 38.3564 0.0128
57.6000 38.3697 0.0219
57.6200 38.3831 0.0110
57.6400 38.3964 0.0087
57.6600 38.4097 0.0153
57.6800 38.4230 0.0094
57.7000 38.4363 0.0121
57.7200 38.4496 0.0169
57.7400 38.4630 0.0063
57.7600 38.4763 0.0119
57.7800 38.4897 0.0207
57.8000 38.5031 0.0041
57.8200 38.5165 0.0126
57.8400 38.5298 0.0167
57.8600 38.5431 0.0076
57.8800 38.5565 0.0093
57.9000 38.5698 0.0162
57.9200 38.5831 0.0057
57.9400 38.5964 0.0105
57.9600 38.6097 0.0150
57.9800 38.6230 0.0082
58.0000 38.6363 0.0100
58.0200 38.6497 0.0122
58.0400 38.6630 0.0092
58.0600 38.6764 0.0076
58.0800 38.6897 0.0118
58.1000 38.7031 0.0108
58.1200 38.7164 0.0077
58.1400 38.7298 0.0124
58.1600 38.7431 0.0073
58.1800 38.7565 0.0067
58.2000 38.7698 0.0081
58.2200 38.7831 0.0148
58.2400 38.7964 0.0049
58.2600 38.8098 0.0083
58.2800 38.8231 0.0063
58.3000 38.8364 0.0027
58.3200 38.8497 0.0141
58.3400 38.8630 0.0078
58.3600 38.8764 -0.0027
58.3800 38.8897 0.0139
58.4000 38.9030 0.0081
58.4200 38.9164 -0.0035
58.4400 38.9297 0.0134
58.4600 38.9431 0.0092
58.4800 38.9564 -0.0055
58.5000 38.9697 0.0145
58.5200 38.9831 0.0040
58.5400 38.9965 -0.0041
58.5600 39.0098 0.0159
58.5800 39.0231 0.0018
58.6000 39.0364 -0.0016
58.6200 39.0498 0.0148
58.6400 39.0631 -0.0004
58.6600 39.0764 -0.0047
58.6800 39.0897 0.0136
58.7000 39.1031 0.0008
58.7200 39.1164 -0.0040
58.7400 39.1297 0.0087
58.7600 39.1430 -0.0014
58.7800 39.1563 -0.0080
58.8000 39.1697 0.0102
58.8200 39.1830 -0.0004
58.8400 39.1964 -0.0023
58.8600 39.2097 0.0083
58.8800 39.2231 -0.0033
58.9000 39.2364 -0.0032
58.9200 39.2498 0.0075
58.9400 39.2631 -0.0022
58.9600 39.2764 -0.0022
58.9800 39.2898 0.0039
59.0000 39.3031 -0.0026
59.0200 39.3164 -0.0032
59.0400 39.3297 0.0029
59.0600 39.3430 -0.0043
59.0800 39.3564 -0.0014
59.1000 39.3697 0.0015
59.1200 39.3830 -0.0020
59.1400 39.3963 -0.0025
59.1600 39.4097 0.0041
59.1800 39.4230 -0.0026
59.2000 39.4363 -0.0058
59.2200 39.4497 0.0040
59.2400 39.4630 0.0028
59.2600 39.4764 -0.0050
59.2800 39.4897 -0.0012
59.3000 39.5031 0.0003
59.3200 39.5164 -0.0054
59.3400 39.5298 0.0005
59.3600 39.5431 -0.0033
59.3800 39.5564 -0.0049
59.4000 39.5697 0.0041
59.4200 39.5830 -0.0082
59.4400 39.5964 -0.0104
59.4600 39.6097 0.0036
59.4800 39.6230 -0.0041
59.5000 39.6363 -0.0072
59.5200 39.6497 -0.0032
59.5400 39.6630 -0.0037
59.5600 39.6764 -0.0061
59.5800 39.6897 -0.0048
59.6000 39.7031 -0.0089
59.6200 39.7165 -0.0073
59.6400 39.7298 -0.0076
59.6600 39.7431 -0.0085
59.6800 39.7564 -0.0093
59.7000 39.7698 -0.0083
59.7200 39.7831 -0.0123
59.7400 39.7964 -0.0065
59.7600 39.8097 -0.0109
59.7800 39.8230 -0.0062
59.8000 39.8364 -0.0125
59.8200 39.8497 -0.0115
59.8400 39.8630 -0.0076
59.8600 39.8763 -0.0158
59.8800 39.8897 -0.0099
59.9000 39.9030 -0.0077
59.9200 39.9164 -0.0157
59.9400 39.9297 -0.0098
59.9600 39.9431 -0.0129
59.9800 39.9565 -0.0177
60.0000 39.9698 -0.0093
60.0200 39.9831 -0.0118
60.0400 39.9964 -0.0212
60.0460 40.0003 -0.0325
