Raw Data
Time Displacement Force
(s) (mm) (N)
0.0000 0.0000 0.1518
0.0200 0.0001 0.1703
0.0400 0.0022 0.2304
0.0600 0.0100 0.2247
0.0800 0.0219 0.1378
0.1000 0.0344 0.1493
0.1200 0.0471 0.1847
0.1400 0.0606 0.1487
0.1600 0.0746 0.1575
0.1800 0.0888 0.1615
0.2000 0.1027 0.1421
0.2200 0.1163 0.1578
0.2400 0.1296 0.1610
0.2600 0.1429 0.1517
0.2800 0.1563 0.1695
0.3000 0.1697 0.1617
0.3200 0.1830 0.1512
0.3400 0.1964 0.1714
0.3600 0.2097 0.1590
0.3800 0.2230 0.1557
0.4000 0.2364 0.1688
0.4200 0.2497 0.1579
0.4400 0.2630 0.1604
0.4600 0.2763 0.1632
0.4800 0.2897 0.1627
0.5000 0.3030 0.1578
0.5200 0.3164 0.1587
0.5400 0.3297 0.1647
0.5600 0.3430 0.1579
0.5800 0.3564 0.1585
0.6000 0.3697 0.1631
0.6200 0.3830 0.1534
0.6400 0.3964 0.1623
0.6600 0.4098 0.1592
0.6800 0.4231 0.1524
0.7000 0.4364 0.1608
0.7200 0.4497 0.1653
0.7400 0.4631 0.1485
0.7600 0.4764 0.1617
0.7800 0.4897 0.1616
0.8000 0.5031 0.1456
0.8200 0.5164 0.1625
0.8400 0.5297 0.1541
0.8600 0.5431 0.1492
0.8800 0.5563 0.1574
0.9000 0.5696 0.1527
0.9200 0.5829 0.1518
0.9400 0.5963 0.1572
0.9600 0.6097 0.1536
0.9800 0.6230 0.1513
1.0000 0.6364 0.1562
1.0200 0.6497 0.1469
1.0400 0.6631 0.1479
1.0600 0.6764 0.1518
1.0800 0.6897 0.1507
1.1000 0.7031 0.1513
1.1200 0.7164 0.1491
1.1400 0.7297 0.1467
1.1600 0.7430 0.1485
1.1800 0.7563 0.1488
1.2000 0.7697 0.1462
1.2200 0.7831 0.1500
1.2400 0.7964 0.1459
1.2600 0.8097 0.1484
1.2800 0.8230 0.1476
1.3000 0.8363 0.1470
1.3200 0.8497 0.1432
1.3400 0.8630 0.1502
1.3600 0.8763 0.1482
1.3800 0.8897 0.1470
1.4000 0.9031 0.1484
1.4200 0.9164 0.1445
1.4400 0.9297 0.1497
1.4600 0.9431 0.1484
1.4800 0.9564 0.1465
1.5000 0.9698 0.1473
1.5200 0.9831 0.1480
1.5400 0.9964 0.1454
1.5600 1.0097 0.1475
1.5800 1.0230 0.1454
1.6000 1.0363 0.1402
1.6200 1.0496 0.1432
1.6400 1.0630 0.1460
1.6600 1.0763 0.1400
1.6800 1.0897 0.1458
1.7000 1.1030 0.1430
1.7200 1.1164 0.1377
1.7400 1.1298 0.1463
1.7600 1.1431 0.1412
1.7800 1.1565 0.1388
1.8000 1.1698 0.1459
1.8200 1.1831 0.1424
1.8400 1.1964 0.1370
1.8600 1.2098 0.1412
1.8800 1.2231 0.1439
1.9000 1.2364 0.1360
1.9200 1.2497 0.1437
1.9400 1.2631 0.1372
1.9600 1.2764 0.1367
1.9800 1.2897 0.1471
2.0000 1.3030 0.1403
2.0200 1.3163 0.1341
2.0400 1.3297 0.1478
2.0600 1.3430 0.1361
2.0800 1.3564 0.1330
2.1000 1.3697 0.1467
2.1200 1.3831 0.1359
2.1400 1.3965 0.1343
2.1600 1.4098 0.1468
2.1800 1.4231 0.1393
2.2000 1.4364 0.1334
2.2200 1.4497 0.1444
2.2400 1.4630 0.1388
2.2600 1.4763 0.1323
2.2800 1.4896 0.1454
2.3000 1.5030 0.1396
2.3200 1.5163 0.1304
2.3400 1.5297 0.1408
2.3600 1.5430 0.1416
2.3800 1.5564 0.1325
2.4000 1.5698 0.1394
2.4200 1.5831 0.1409
2.4400 1.5964 0.1295
2.4600 1.6097 0.1372
2.4800 1.6231 0.1379
2.5000 1.6364 0.1316
2.5200 1.6497 0.1360
2.5400 1.6630 0.1316
2.5600 1.6764 0.1309
2.5800 1.6898 0.1360
2.6000 1.7031 0.1330
2.6200 1.7164 0.1328
2.6400 1.7297 0.1351
2.6600 1.7431 0.1324
2.6800 1.7564 0.1293
2.7000 1.7697 0.1343
2.7200 1.7830 0.1307
2.7400 1.7964 0.1338
2.7600 1.8097 0.1300
2.7800 1.8230 0.1272
2.8000 1.8363 0.1284
2.8200 1.8497 0.1295
2.8400 1.8631 0.1299
2.8600 1.8764 0.1296
2.8800 1.8897 0.1260
2.9000 1.9031 0.1310
2.9200 1.9164 0.1288
2.9400 1.9298 0.1215
2.9600 1.9431 0.1312
2.9800 1.9564 0.1282
3.0000 1.9697 0.1244
3.0200 1.9831 0.1323
3.0400 1.9964 0.1236
3.0600 2.0097 0.1255
3.0800 2.0230 0.1348
3.1000 2.0363 0.1186
3.1200 2.0497 0.1215
3.1400 2.0630 0.1385
3.1600 2.0764 0.1137
3.1800 2.0897 0.1220
3.2000 2.1031 0.1391
3.2200 2.1164 0.1161
3.2400 2.1298 0.1272
3.2600 2.1431 0.1327
3.2800 2.1564 0.1147
3.3000 2.1698 0.1321
3.3200 2.1831 0.1304
3.3400 2.1964 0.1115
3.3600 2.2097 0.1327
3.3800 2.2230 0.1321
3.4000 2.2364 0.1108
3.4200 2.2497 0.1301
3.4400 2.2630 0.1271
3.4600 2.2764 0.1089
3.4800 2.2897 0.1233
3.5000 2.3031 0.1235
3.5200 2.3164 0.1121
3.5400 2.3297 0.1222
3.5600 2.3431 0.1179
3.5800 2.3564 0.1061
3.6000 2.3698 0.1245
3.6200 2.3831 0.1191
3.6400 2.3964 0.1066
3.6600 2.4098 0.1243
3.6800 2.4231 0.1174
3.7000 2.4364 0.1074
3.7200 2.4497 0.1256
3.7400 2.4631 0.1163
3.7600 2.4764 0.1068
3.7800 2.4897 0.1210
3.8000 2.5030 0.1171
3.8200 2.5163 0.1115
3.8400 2.5297 0.1220
3.8600 2.5430 0.1156
3.8800 2.5563 0.1108
3.9000 2.5697 0.1215
3.9200 2.5831 0.1140
3.9400 2.5965 0.1107
3.9600 2.6098 0.1178
3.9800 2.6231 0.1182
4.0000 2.6364 0.1123
4.0200 2.6498 0.1123
4.0400 2.6631 0.1157
4.0600 2.6764 0.1134
4.0800 2.6897 0.1129
4.1000 2.7030 0.1141
4.1200 2.7164 0.1064
4.1400 2.7297 0.1153
4.1600 2.7430 0.1159
4.1800 2.7563 0.1093
4.2000 2.7697 0.1146
4.2200 2.7830 0.1182
4.2400 2.7963 0.1090
4.2600 2.8097 0.1171
4.2800 2.8231 0.1166
4.3000 2.8364 0.1094
4.3200 2.8498 0.1155
4.3400 2.8631 0.1130
4.3600 2.8764 0.1145
4.3800 2.8898 0.1146
4.4000 2.9031 0.1117
4.4200 2.9164 0.1135
4.4400 2.9297 0.1161
4.4600 2.9430 0.1104
4.4800 2.9564 0.1074
4.5000 2.9697 0.1158
4.5200 2.9830 0.1087
4.5400 2.9963 0.1087
4.5600 3.0097 0.1111
4.5800 3.0230 0.1074
4.6000 3.0364 0.1115
4.6200 3.0497 0.1099
4.6400 3.0630 0.1073
4.6600 3.0764 0.1044
4.6800 3.0897 0.1117
4.7000 3.1030 0.1069
4.7200 3.1164 0.1025
4.7400 3.1298 0.1089
4.7600 3.1431 0.1030
4.7800 3.1564 0.1092
4.8000 3.1698 0.1068
4.8200 3.1831 0.1021
4.8400 3.1964 0.1133
4.8600 3.2097 0.0999
4.8800 3.2230 0.1013
4.9000 3.2363 0.1139
4.9200 3.2496 0.1000
4.9400 3.2630 0.1017
4.9600 3.2763 0.1120
4.9800 3.2897 0.0997
5.0000 3.3031 0.1010
5.0200 3.3165 0.1088
5.0400 3.3298 0.1015
5.0600 3.3431 0.1067
5.0800 3.3564 0.1141
5.1000 3.3698 0.0935
5.1200 3.3831 0.1064
5.1400 3.3964 0.1103
5.1600 3.4097 0.0969
5.1800 3.4230 0.1054
5.2000 3.4364 0.1042
5.2200 3.4497 0.1003
5.2400 3.4630 0.1041
5.2600 3.4763 0.1054
5.2800 3.4897 0.0976
5.3000 3.5030 0.1043
5.3200 3.5163 0.1040
5.3400 3.5297 0.0923
5.3600 3.5431 0.1065
5.3800 3.5564 0.1029
5.4000 3.5698 0.0950
5.4200 3.5831 0.1075
5.4400 3.5964 0.1028
5.4600 3.6098 0.0955
5.4800 3.6231 0.1042
5.5000 3.6364 0.1006
5.5200 3.6497 0.0889
5.5400 3.6630 0.1068
5.5600 3.6764 0.0934
5.5800 3.6897 0.0908
5.6000 3.7030 0.1072
5.6200 3.7163 0.0965
5.6400 3.7297 0.0906
5.6600 3.7430 0.0986
5.6800 3.7564 0.1017
5.7000 3.7697 0.0895
5.7200 3.7831 0.0959
5.7400 3.7964 0.1019
5.7600 3.8098 0.0912
5.7800 3.8231 0.1006
5.8000 3.8364 0.1007
5.8200 3.8498 0.0937
5.8400 3.8631 0.0931
5.8600 3.8764 0.1046
5.8800 3.8897 0.0931
5.9000 3.9031 0.0997
5.9200 3.9164 0.1028
5.9400 3.9297 0.0842
5.9600 3.9430 0.0991
5.9800 3.9563 0.1034
6.0000 3.9697 0.0858
6.0200 3.9830 0.0997
6.0400 3.9964 0.0977
6.0600 4.0097 0.0826
6.0800 4.0231 0.1012
6.1000 4.0364 0.0998
6.1200 4.0498 0.0822
6.1400 4.0631 0.1001
6.1600 4.0764 0.0938
6.1800 4.0898 0.0816
6.2000 4.1031 0.1010
6.2200 4.1164 0.0910
6.2400 4.1297 0.0837
6.2600 4.1430 0.1012
6.2800 4.1564 0.0856
6.3000 4.1697 0.0842
6.3200 4.1830 0.1004
6.3400 4.1963 0.0915
6.3600 4.2097 0.0841
6.3800 4.2230 0.0958
6.4000 4.2363 0.0899
6.4200 4.2497 0.0860
6.4400 4.2630 0.0944
6.4600 4.2764 0.0879
6.4800 4.2897 0.0904
6.5000 4.3031 0.0907
6.5200 4.3164 0.0919
6.5400 4.3298 0.0889
6.5600 4.3431 0.0865
6.5800 4.3564 0.0920
6.6000 4.3697 0.0882
6.6200 4.3830 0.0887
6.6400 4.3964 0.0963
6.6600 4.4097 0.0872
6.6800 4.4230 0.0895
6.7000 4.4363 0.0945
6.7200 4.4497 0.0897
6.7400 4.4630 0.0868
6.7600 4.4763 0.0957
6.7800 4.4897 0.0900
6.8000 4.5030 0.0891
6.8200 4.5164 0.0947
6.8400 4.5298 0.0833
6.8600 4.5431 0.0943
6.8800 4.5564 0.0990
6.9000 4.5697 0.0863
6.9200 4.5831 0.0911
6.9400 4.5964 0.0953
6.9600 4.6097 0.0855
6.9800 4.6230 0.0913
7.0000 4.6364 0.0956
7.0200 4.6497 0.0835
7.0400 4.6630 0.0904
7.0600 4.6763 0.0895
7.0800 4.6896 0.0884
7.1000 4.7030 0.0919
7.1200 4.7163 0.0877
7.1400 4.7297 0.0836
7.1600 4.7430 0.0851
7.1800 4.7564 0.0857
7.2000 4.7698 0.0830
7.2200 4.7832 0.0855
7.2400 4.7965 0.0824
7.2600 4.8098 0.0827
7.2800 4.8231 0.0812
7.3000 4.8364 0.0867
7.3200 4.8497 0.0879
7.3400 4.8630 0.0797
7.3600 4.8763 0.0853
7.3800 4.8897 0.0888
7.4000 4.9030 0.0773
7.4200 4.9164 0.0903
7.4400 4.9297 0.0869
7.4600 4.9431 0.0746
7.4800 4.9564 0.0929
7.5000 4.9697 0.0900
7.5200 4.9831 0.0774
7.5400 4.9965 0.0916
7.5600 5.0098 0.0826
7.5800 5.0231 0.0787
7.6000 5.0364 0.0930
7.6200 5.0498 0.0805
7.6400 5.0631 0.0797
7.6600 5.0764 0.0909
7.6800 5.0897 0.0802
7.7000 5.1030 0.0810
7.7200 5.1164 0.0933
7.7400 5.1297 0.0783
7.7600 5.1430 0.0768
7.7800 5.1563 0.0979
7.8000 5.1697 0.0755
7.8200 5.1830 0.0758
7.8400 5.1964 0.0915
7.8600 5.2097 0.0803
7.8800 5.2231 0.0768
7.9000 5.2364 0.0853
7.9200 5.2498 0.0810
7.9400 5.2631 0.0793
7.9600 5.2764 0.0814
7.9800 5.2898 0.0742
8.0000 5.3031 0.0818
8.0200 5.3164 0.0777
8.0400 5.3297 0.0779
8.0600 5.3430 0.0819
8.0800 5.3564 0.0827
8.1000 5.3697 0.0774
8.1200 5.3830 0.0821
8.1400 5.3963 0.0818
8.1600 5.4097 0.0820
8.1800 5.4230 0.0793
8.2000 5.4364 0.0801
8.2200 5.4497 0.0831
8.2400 5.4630 0.0820
8.2600 5.4764 0.0803
8.2800 5.4898 0.0826
8.3000 5.5031 0.0815
8.3200 5.5164 0.0828
8.3400 5.5298 0.0821
8.3600 5.5431 0.0742
8.3800 5.5564 0.0828
8.4000 5.5697 0.0814
8.4200 5.5830 0.0773
8.4400 5.5964 0.0789
8.4600 5.6097 0.0797
8.4800 5.6230 0.0769
8.5000 5.6363 0.0790
8.5200 5.6497 0.0835
8.5400 5.6630 0.0774
8.5600 5.6764 0.0758
8.5800 5.6897 0.0836
8.6000 5.7030 0.0766
8.6200 5.7164 0.0752
8.6400 5.7298 0.0790
8.6600 5.7431 0.0738
8.6800 5.7564 0.0747
8.7000 5.7698 0.0842
8.7200 5.7831 0.0747
8.7400 5.7964 0.0733
8.7600 5.8097 0.0830
8.7800 5.8230 0.0770
8.8000 5.8364 0.0698
8.8200 5.8497 0.0821
8.8400 5.8630 0.0719
8.8600 5.8763 0.0740
8.8800 5.8897 0.0753
8.9000 5.9030 0.0707
8.9200 5.9164 0.0768
8.9400 5.9297 0.0780
8.9600 5.9431 0.0695
8.9800 5.9565 0.0749
9.0000 5.9698 0.0733
9.0200 5.9831 0.0656
9.0400 5.9964 0.0740
9.0600 6.0097 0.0765
9.0800 6.0231 0.0623
9.1000 6.0364 0.0767
9.1200 6.0497 0.0737
9.1400 6.0630 0.0653
9.1600 6.0763 0.0779
9.1800 6.0897 0.0654
9.2000 6.1030 0.0699
9.2200 6.1163 0.0762
9.2400 6.1296 0.0678
9.2600 6.1430 0.0705
9.2800 6.1563 0.0696
9.3000 6.1697 0.0711
9.3200 6.1830 0.0701
9.3400 6.1964 0.0704
9.3600 6.2098 0.0654
9.3800 6.2231 0.0719
9.4000 6.2364 0.0654
9.4200 6.2498 0.0660
9.4400 6.2631 0.0735
9.4600 6.2764 0.0598
9.4800 6.2897 0.0709
9.5000 6.3030 0.0698
9.5200 6.3163 0.0650
9.5400 6.3297 0.0692
9.5600 6.3430 0.0690
9.5800 6.3563 0.0579
9.6000 6.3697 0.0672
9.6200 6.3831 0.0663
9.6400 6.3964 0.0550
9.6600 6.4097 0.0695
9.6800 6.4231 0.0643
9.7000 6.4364 0.0539
9.7200 6.4498 0.0695
9.7400 6.4631 0.0571
9.7600 6.4764 0.0613
9.7800 6.4897 0.0702
9.8000 6.5031 0.0619
9.8200 6.5164 0.0563
9.8400 6.5297 0.0666
9.8600 6.5431 0.0606
9.8800 6.5564 0.0525
9.9000 6.5698 0.0665
9.9200 6.5831 0.0603
9.9400 6.5963 0.0602
9.9600 6.6097 0.0675
9.9800 6.6230 0.0574
10.0000 6.6364 0.0591
10.0200 6.6497 0.0603
10.0400 6.6630 0.0597
10.0600 6.6764 0.0526
10.0800 6.6897 0.0551
10.1000 6.7031 0.0629
10.1200 6.7164 0.0538
10.1400 6.7297 0.0566
10.1600 6.7431 0.0645
10.1800 6.7565 0.0521
10.2000 6.7698 0.0558
10.2200 6.7831 0.0639
10.2400 6.7964 0.0515
10.2600 6.8098 0.0554
10.2800 6.8231 0.0644
10.3000 6.8364 0.0528
10.3200 6.8497 0.0579
10.3400 6.8630 0.0706
10.3600 6.8764 0.0494
10.3800 6.8897 0.0627
10.4000 6.9030 0.0695
10.4200 6.9164 0.0496
10.4400 6.9298 0.0615
10.4600 6.9431 0.0649
10.4800 6.9564 0.0523
10.5000 6.9697 0.0642
10.5200 6.9831 0.0611
10.5400 6.9964 0.0532
10.5600 7.0097 0.0632
10.5800 7.0230 0.0660
10.6000 7.0363 0.0542
10.6200 7.0497 0.0638
10.6400 7.0630 0.0640
10.6600 7.0764 0.0545
10.6800 7.0897 0.0684
10.7000 7.1030 0.0579
10.7200 7.1164 0.0541
10.7400 7.1297 0.0651
10.7600 7.1430 0.0610
10.7800 7.1564 0.0561
10.8000 7.1697 0.0642
10.8200 7.1831 0.0598
10.8400 7.1964 0.0532
10.8600 7.2097 0.0650
10.8800 7.2231 0.0579
10.9000 7.2364 0.0512
10.9200 7.2497 0.0621
10.9400 7.2630 0.0576
10.9600 7.2764 0.0561
10.9800 7.2897 0.0585
11.0000 7.3030 0.0559
11.0200 7.3163 0.0549
11.0400 7.3296 0.0541
11.0600 7.3430 0.0586
11.0800 7.3564 0.0540
11.1000 7.3697 0.0526
11.1200 7.3830 0.0592
11.1400 7.3964 0.0552
11.1600 7.4098 0.0519
11.1800 7.4231 0.0600
11.2000 7.4364 0.0534
11.2200 7.4497 0.0490
11.2400 7.4631 0.0662
11.2600 7.4764 0.0461
11.2800 7.4898 0.0452
11.3000 7.5031 0.0648
11.3200 7.5164 0.0434
11.3400 7.5297 0.0500
11.3600 7.5431 0.0638
11.3800 7.5564 0.0444
11.4000 7.5697 0.0501
11.4200 7.5830 0.0575
11.4400 7.5964 0.0416
11.4600 7.6097 0.0537
11.4800 7.6230 0.0569
11.5000 7.6364 0.0385
11.5200 7.6498 0.0468
11.5400 7.6631 0.0602
11.5600 7.6764 0.0419
11.5800 7.6897 0.0513
11.6000 7.7031 0.0562
11.6200 7.7164 0.0421
11.6400 7.7297 0.0515
11.6600 7.7430 0.0566
11.6800 7.7563 0.0450
11.7000 7.7697 0.0530
11.7200 7.7830 0.0487
11.7400 7.7963 0.0453
11.7600 7.8097 0.0574
11.7800 7.8230 0.0511
11.8000 7.8364 0.0445
11.8200 7.8497 0.0529
11.8400 7.8630 0.0473
11.8600 7.8764 0.0500
11.8800 7.8897 0.0498
11.9000 7.9031 0.0489
11.9200 7.9164 0.0491
11.9400 7.9297 0.0504
11.9600 7.9431 0.0490
11.9800 7.9564 0.0463
12.0000 7.9698 0.0481
12.0200 7.9831 0.0481
12.0400 7.9964 0.0486
12.0600 8.0098 0.0457
12.0800 8.0231 0.0429
12.1000 8.0364 0.0532
12.1200 8.0496 0.0420
12.1400 8.0630 0.0445
12.1600 8.0763 0.0539
12.1800 8.0896 0.0414
12.2000 8.1030 0.0520
12.2200 8.1164 0.0508
12.2400 8.1298 0.0429
12.2600 8.1432 0.0509
12.2800 8.1565 0.0481
12.3000 8.1698 0.0428
12.3200 8.1831 0.0548
12.3400 8.1965 0.0476
12.3600 8.2098 0.0427
12.3800 8.2230 0.0576
12.4000 8.2363 0.0479
12.4200 8.2497 0.0454
12.4400 8.2630 0.0541
12.4600 8.2763 0.0496
12.4800 8.2896 0.0498
12.5000 8.3030 0.0510
12.5200 8.3163 0.0497
12.5400 8.3297 0.0500
12.5600 8.3430 0.0483
12.5800 8.3564 0.0496
12.6000 8.3698 0.0495
12.6200 8.3831 0.0478
12.6400 8.3965 0.0512
12.6600 8.4098 0.0473
12.6800 8.4231 0.0507
12.7000 8.4365 0.0487
12.7200 8.4498 0.0417
12.7400 8.4630 0.0548
12.7600 8.4763 0.0544
12.7800 8.4897 0.0399
12.8000 8.5030 0.0515
12.8200 8.5163 0.0496
12.8400 8.5296 0.0408
12.8600 8.5430 0.0537
12.8800 8.5564 0.0448
12.9000 8.5697 0.0439
12.9200 8.5831 0.0488
12.9400 8.5964 0.0476
12.9600 8.6098 0.0441
12.9800 8.6231 0.0458
13.0000 8.6364 0.0469
13.0200 8.6497 0.0461
13.0400 8.6631 0.0484
13.0600 8.6765 0.0460
13.0800 8.6898 0.0434
13.1000 8.7031 0.0452
13.1200 8.7164 0.0504
13.1400 8.7297 0.0499
13.1600 8.7431 0.0426
13.1800 8.7563 0.0517
13.2000 8.7696 0.0447
13.2200 8.7830 0.0427
13.2400 8.7964 0.0498
13.2600 8.8097 0.0446
13.2800 8.8230 0.0411
13.3000 8.8364 0.0494
13.3200 8.8498 0.0443
13.3400 8.8631 0.0409
13.3600 8.8764 0.0486
13.3800 8.8898 0.0418
13.4000 8.9031 0.0400
13.4200 8.9164 0.0451
13.4400 8.9297 0.0354
13.4600 8.9430 0.0425
13.4800 8.9563 0.0460
13.5000 8.9697 0.0397
13.5200 8.9831 0.0395
13.5400 8.9964 0.0455
13.5600 9.0097 0.0397
13.5800 9.0230 0.0388
13.6000 9.0363 0.0422
13.6200 9.0497 0.0370
13.6400 9.0630 0.0333
13.6600 9.0763 0.0399
13.6800 9.0897 0.0329
13.7000 9.1031 0.0334
13.7200 9.1164 0.0392
13.7400 9.1297 0.0324
13.7600 9.1431 0.0361
13.7800 9.1565 0.0377
13.8000 9.1698 0.0305
13.8200 9.1831 0.0307
13.8400 9.1964 0.0381
13.8600 9.2097 0.0333
13.8800 9.2230 0.0294
13.9000 9.2364 0.0398
13.9200 9.2497 0.0318
13.9400 9.2630 0.0292
13.9600 9.2764 0.0388
13.9800 9.2897 0.0299
14.0000 9.3030 0.0215
14.0200 9.3164 0.0391
14.0400 9.3297 0.0327
14.0600 9.3431 0.0200
14.0800 9.3564 0.0397
14.1000 9.3697 0.0271
14.1200 9.3831 0.0293
14.1400 9.3964 0.0361
14.1600 9.4098 0.0248
14.1800 9.4231 0.0284
14.2000 9.4364 0.0361
14.2200 9.4497 0.0254
14.2400 9.4631 0.0260
14.2600 9.4764 0.0378
14.2800 9.4896 0.0233
14.3000 9.5029 0.0258
14.3200 9.5163 0.0396
14.3400 9.5296 0.0253
14.3600 9.5430 0.0288
14.3800 9.5563 0.0359
14.4000 9.5697 0.0272
14.4200 9.5831 0.0305
14.4400 9.5965 0.0351
14.4600 9.6098 0.0277
14.4800 9.6231 0.0218
14.5000 9.6365 0.0360
14.5200 9.6498 0.0289
14.5400 9.6630 0.0260
14.5600 9.6763 0.0376
14.5800 9.6896 0.0312
14.6000 9.7030 0.0234
14.6200 9.7163 0.0334
14.6400 9.7297 0.0293
14.6600 9.7430 0.0247
14.6800 9.7564 0.0327
14.7000 9.7697 0.0273
14.7200 9.7831 0.0252
14.7400 9.7964 0.0310
14.7600 9.8098 0.0243
14.7800 9.8231 0.0277
14.8000 9.8365 0.0293
14.8200 9.8497 0.0223
14.8400 9.8631 0.0256
14.8600 9.8764 0.0361
14.8800 9.8897 0.0200
14.9000 9.9030 0.0269
14.9200 9.9164 0.0333
14.9400 9.9297 0.0231
14.9600 9.9430 0.0277
14.9800 9.9564 0.0298
15.0000 9.9697 0.0233
15.0200 9.9830 0.0272
15.0400 9.9963 0.0335
15.0600 10.0097 0.0226
15.0800 10.0230 0.0278
15.1000 10.0364 0.0304
15.1200 10.0497 0.0214
15.1400 10.0631 0.0279
15.1600 10.0764 0.0300
15.1800 10.0898 0.0248
15.2000 10.1031 0.0331
15.2200 10.1164 0.0232
15.2400 10.1298 0.0234
15.2600 10.1431 0.0289
15.2800 10.1564 0.0249
15.3000 10.1697 0.0276
15.3200 10.1831 0.0283
15.3400 10.1964 0.0264
15.3600 10.2097 0.0318
15.3800 10.2230 0.0260
15.4000 10.2363 0.0239
15.4200 10.2497 0.0271
15.4400 10.2630 0.0274
15.4600 10.2764 0.0233
15.4800 10.2897 0.0273
15.5000 10.3031 0.0186
15.5200 10.3165 0.0260
15.5400 10.3298 0.0288
15.5600 10.3431 0.0189
15.5800 10.3564 0.0255
15.6000 10.3698 0.0246
15.6200 10.3831 0.0204
15.6400 10.3964 0.0267
15.6600 10.4097 0.0216
15.6800 10.4230 0.0221
15.7000 10.4364 0.0253
15.7200 10.4497 0.0228
15.7400 10.4630 0.0238
15.7600 10.4763 0.0286
15.7800 10.4897 0.0217
15.8000 10.5030 0.0223
15.8200 10.5163 0.0287
15.8400 10.5297 0.0262
15.8600 10.5431 0.0200
15.8800 10.5564 0.0253
15.9000 10.5697 0.0229
15.9200 10.5831 0.0241
15.9400 10.5964 0.0266
15.9600 10.6098 0.0196
15.9800 10.6231 0.0279
16.0000 10.6364 0.0265
16.0200 10.6497 0.0231
16.0400 10.6631 0.0236
16.0600 10.6764 0.0244
16.0800 10.6897 0.0239
16.1000 10.7030 0.0240
16.1200 10.7163 0.0246
16.1400 10.7297 0.0249
16.1600 10.7430 0.0268
16.1800 10.7564 0.0269
16.2000 10.7697 0.0260
16.2200 10.7831 0.0287
16.2400 10.7965 0.0196
16.2600 10.8098 0.0294
16.2800 10.8231 0.0276
16.3000 10.8364 0.0214
16.3200 10.8498 0.0301
16.3400 10.8631 0.0249
16.3600 10.8764 0.0259
16.3800 10.8897 0.0337
16.4000 10.9031 0.0225
16.4200 10.9164 0.0268
16.4400 10.9297 0.0283
16.4600 10.9430 0.0230
16.4800 10.9563 0.0260
16.5000 10.9697 0.0261
16.5200 10.9830 0.0203
16.5400 10.9964 0.0307
16.5600 11.0097 0.0240
16.5800 11.0231 0.0218
16.6000 11.0364 0.0295
16.6200 11.0498 0.0236
16.6400 11.0631 0.0276
16.6600 11.0764 0.0271
16.6800 11.0898 0.0244
16.7000 11.1030 0.0261
16.7200 11.1163 0.0247
16.7400 11.1296 0.0202
16.7600 11.1430 0.0302
16.7800 11.1563 0.0217
16.8000 11.1697 0.0172
16.8200 11.1830 0.0343
16.8400 11.1964 0.0198
16.8600 11.2098 0.0206
16.8800 11.2231 0.0317
16.9000 11.2364 0.0177
16.9200 11.2497 0.0263
16.9400 11.2631 0.0270
16.9600 11.2764 0.0154
16.9800 11.2897 0.0256
17.0000 11.3030 0.0248
17.0200 11.3164 0.0139
17.0400 11.3297 0.0267
17.0600 11.3431 0.0245
17.0800 11.3564 0.0116
17.1000 11.3697 0.0310
17.1200 11.3831 0.0270
17.1400 11.3964 0.0089
17.1600 11.4097 0.0278
17.1800 11.4230 0.0261
17.2000 11.4363 0.0127
17.2200 11.4497 0.0206
17.2400 11.4630 0.0226
17.2600 11.4763 0.0098
17.2800 11.4897 0.0239
17.3000 11.5031 0.0214
17.3200 11.5164 0.0133
17.3400 11.5297 0.0179
17.3600 11.5430 0.0206
17.3800 11.5564 0.0134
17.4000 11.5697 0.0176
17.4200 11.5831 0.0194
17.4400 11.5964 0.0107
17.4600 11.6097 0.0212
17.4800 11.6231 0.0168
17.5000 11.6364 0.0120
17.5200 11.6497 0.0156
17.5400 11.6630 0.0132
17.5600 11.6763 0.0087
17.5800 11.6897 0.0177
17.6000 11.7030 0.0148
17.6200 11.7163 0.0097
17.6400 11.7297 0.0180
17.6600 11.7431 0.0098
17.6800 11.7564 0.0084
17.7000 11.7698 0.0179
17.7200 11.7831 0.0145
17.7400 11.7964 0.0130
17.7600 11.8098 0.0149
17.7800 11.8231 0.0134
17.8000 11.8364 0.0104
17.8200 11.8497 0.0189
17.8400 11.8630 0.0125
17.8600 11.8764 0.0089
17.8800 11.8897 0.0177
17.9000 11.9030 0.0131
17.9200 11.9164 0.0109
17.9400 11.9297 0.0197
17.9600 11.9431 0.0113
17.9800 11.9564 0.0133
18.0000 11.9697 0.0176
18.0200 11.9831 0.0095
18.0400 11.9964 0.0112
18.0600 12.0097 0.0183
18.0800 12.0231 0.0147
18.1000 12.0364 0.0115
18.1200 12.0498 0.0149
18.1400 12.0631 0.0129
18.1600 12.0764 0.0106
18.1800 12.0897 0.0136
18.2000 12.1031 0.0126
18.2200 12.1164 0.0080
18.2400 12.1297 0.0101
18.2600 12.1430 0.0152
18.2800 12.1563 0.0068
18.3000 12.1697 0.0096
18.3200 12.1830 0.0135
18.3400 12.1964 0.0081
18.3600 12.2097 0.0142
18.3800 12.2231 0.0136
18.4000 12.2365 0.0057
18.4200 12.2498 0.0093
18.4400 12.2631 0.0154
18.4600 12.2764 0.0032
18.4800 12.2898 0.0086
18.5000 12.3031 0.0147
18.5200 12.3164 0.0081
18.5400 12.3297 0.0120
18.5600 12.3430 0.0134
18.5800 12.3564 0.0003
18.6000 12.3697 0.0166
18.6200 12.3830 0.0095
18.6400 12.3964 0.0055
18.6600 12.4097 0.0179
18.6800 12.4230 0.0100
18.7000 12.4364 0.0057
18.7200 12.4497 0.0195
18.7400 12.4631 0.0082
18.7600 12.4764 0.0038
18.7800 12.4897 0.0144
18.8000 12.5031 0.0050
18.8200 12.5164 0.0072
18.8400 12.5298 0.0115
18.8600 12.5431 -0.0014
18.8800 12.5564 0.0143
18.9000 12.5697 0.0090
18.9200 12.5830 0.0061
18.9400 12.5964 0.0105
18.9600 12.6097 0.0016
18.9800 12.6230 0.0120
19.0000 12.6363 0.0098
19.0200 12.6497 -0.0004
19.0400 12.6630 0.0112
19.0600 12.6764 0.0080
19.0800 12.6897 -0.0040
19.1000 12.7030 0.0148
19.1200 12.7164 0.0079
19.1400 12.7297 -0.0047
19.1600 12.7430 0.0134
19.1800 12.7564 0.0005
19.2000 12.7697 -0.0019
19.2200 12.7831 0.0148
19.2400 12.7964 -0.0027
19.2600 12.8097 -0.0005
19.2800 12.8231 0.0134
19.3000 12.8364 -0.0046
19.3200 12.8498 -0.0020
19.3400 12.8630 0.0114
19.3600 12.8763 -0.0030
19.3800 12.8896 0.0029
19.4000 12.9030 0.0048
19.4200 12.9163 -0.0090
19.4400 12.9297 0.0046
19.4600 12.9431 0.0049
19.4800 12.9565 -0.0073
19.5000 12.9698 0.0010
19.5200 12.9831 0.0008
19.5400 12.9965 0.0028
19.5600 13.0098 0.0016
19.5800 13.0231 0.0015
19.6000 13.0364 0.0022
19.6200 13.0497 -0.0002
19.6400 13.0630 0.0053
19.6600 13.0764 0.0005
19.6800 13.0897 -0.0024
19.7000 13.1030 0.0008
19.7200 13.1163 0.0001
19.7400 13.1297 -0.0021
19.7600 13.1430 0.0068
19.7800 13.1563 0.0008
19.8000 13.1697 -0.0035
19.8200 13.1831 0.0018
19.8400 13.1964 -0.0001
19.8600 13.2098 0.0011
19.8800 13.2231 0.0006
19.9000 13.2364 -0.0008
19.9200 13.2498 0.0045
19.9400 13.2631 -0.0078
19.9600 13.2764 -0.0016
19.9800 13.2897 0.0081
20.0000 13.3030 -0.0040
20.0200 13.3164 -0.0063
20.0400 13.3297 0.0087
20.0600 13.3430 -0.0034
20.0800 13.3563 -0.0040
20.1000 13.3697 0.0045
20.1200 13.3830 -0.0026
20.1400 13.3964 0.0015
20.1600 13.4097 -0.0001
20.1800 13.4231 -0.0075
20.2000 13.4364 0.0001
20.2200 13.4498 -0.0032
20.2400 13.4631 -0.0031
20.2600 13.4764 0.0033
20.2800 13.4897 -0.0043
20.3000 13.5031 -0.0023
20.3200 13.5164 0.0006
20.3400 13.5297 -0.0041
20.3600 13.5431 -0.0004
20.3800 13.5564 -0.0023
20.4000 13.5697 -0.0071
20.4200 13.5830 -0.0001
20.4400 13.5963 -0.0022
20.4600 13.6097 -0.0033
20.4800 13.6230 -0.0013
20.5000 13.6364 -0.0024
20.5200 13.6497 -0.0062
20.5400 13.6631 -0.0015
20.5600 13.6764 -0.0064
20.5800 13.6898 -0.0076
20.6000 13.7031 -0.0026
20.6200 13.7164 -0.0071
20.6400 13.7298 -0.0058
20.6600 13.7431 -0.0050
20.6800 13.7564 -0.0063
20.7000 13.7697 -0.0055
20.7200 13.7830 -0.0060
20.7400 13.7964 -0.0021
20.7600 13.8097 -0.0098
20.7800 13.8230 -0.0076
20.8000 13.8363 -0.0086
20.8200 13.8497 -0.0015
20.8400 13.8630 -0.0094
20.8600 13.8763 -0.0063
20.8800 13.8897 -0.0028
20.9000 13.9030 -0.0121
20.9200 13.9164 -0.0046
20.9400 13.9298 -0.0081
20.9600 13.9431 -0.0103
20.9800 13.9564 -0.0039
21.0000 13.9698 -0.0047
21.0200 13.9831 -0.0100
21.0400 13.9964 -0.0066
21.0600 14.0097 -0.0031
21.0800 14.0230 -0.0088
21.1000 14.0364 -0.0051
21.1200 14.0497 -0.0004
21.1400 14.0630 -0.0069
21.1600 14.0763 -0.0085
21.1800 14.0897 -0.0004
21.2000 14.1030 -0.0034
21.2200 14.1163 -0.0104
21.2400 14.1297 -0.0008
21.2600 14.1430 -0.0084
21.2800 14.1564 0.0009
21.3000 14.1698 -0.0036
21.3200 14.1831 -0.0115
21.3400 14.1964 0.0008
21.3600 14.2098 -0.0001
21.3800 14.2231 -0.0155
21.4000 14.2364 0.0004
21.4200 14.2497 -0.0010
21.4400 14.2631 -0.0126
21.4600 14.2764 -0.0020
21.4800 14.2897 -0.0006
21.5000 14.3030 -0.0068
21.5200 14.3163 -0.0033
21.5400 14.3296 -0.0063
21.5600 14.3430 -0.0073
21.5800 14.3563 0.0016
21.6000 14.3696 -0.0093
21.6200 14.3830 -0.0131
21.6400 14.3964 -0.0017
21.6600 14.4098 -0.0118
21.6800 14.4232 -0.0112
21.7000 14.4365 0.0000
21.7200 14.4498 -0.0024
21.7400 14.4631 -0.0174
21.7600 14.4764 -0.0057
21.7800 14.4897 -0.0024
21.8000 14.5030 -0.0119
21.8200 14.5163 -0.0029
21.8400 14.5296 -0.0118
21.8600 14.5430 -0.0140
21.8800 14.5563 0.0008
21.9000 14.5697 -0.0093
21.9200 14.5830 -0.0143
21.9400 14.5964 -0.0027
21.9600 14.6097 -0.0086
21.9800 14.6231 -0.0146
22.0000 14.6364 -0.0043
22.0200 14.6498 -0.0086
22.0400 14.6631 -0.0172
22.0600 14.6764 -0.0018
22.0800 14.6897 -0.0091
22.1000 14.7031 -0.0160
22.1200 14.7164 -0.0076
22.1400 14.7297 -0.0123
22.1600 14.7430 -0.0158
22.1800 14.7564 -0.0070
22.2000 14.7697 -0.0080
22.2200 14.7830 -0.0152
22.2400 14.7963 -0.0100
22.2600 14.8097 -0.0113
22.2800 14.8230 -0.0127
22.3000 14.8364 -0.0138
22.3200 14.8497 -0.0113
22.3400 14.8631 -0.0145
22.3600 14.8764 -0.0149
22.3800 14.8898 -0.0113
22.4000 14.9031 -0.0193
22.4200 14.9164 -0.0157
22.4400 14.9298 -0.0105
22.4600 14.9431 -0.0195
22.4800 14.9565 -0.0145
22.5000 14.9697 -0.0060
22.5200 14.9830 -0.0199
22.5400 14.9964 -0.0159
22.5600 15.0097 -0.0152
22.5800 15.0230 -0.0135
22.6000 15.0363 -0.0097
22.6200 15.0497 -0.0133
22.6400 15.0630 -0.0180
22.6600 15.0764 -0.0089
22.6800 15.0897 -0.0073
22.7000 15.1030 -0.0195
22.7200 15.1164 -0.0109
22.7400 15.1298 -0.0091
22.7600 15.1431 -0.0168
22.7800 15.1564 -0.0155
22.8000 15.1697 -0.0089
22.8200 15.1831 -0.0159
22.8400 15.1964 -0.0100
22.8600 15.2097 -0.0084
22.8800 15.2230 -0.0179
22.9000 15.2364 -0.0132
22.9200 15.2497 -0.0116
22.9400 15.2630 -0.0211
22.9600 15.2763 -0.0105
22.9800 15.2897 -0.0150
23.0000 15.3030 -0.0139
23.0200 15.3164 -0.0199
23.0400 15.3297 -0.0161
23.0600 15.3430 -0.0104
23.0800 15.3564 -0.0207
23.1000 15.3698 -0.0183
23.1200 15.3831 -0.0162
23.1400 15.3964 -0.0165
23.1600 15.4097 -0.0160
23.1800 15.4231 -0.0212
23.2000 15.4365 -0.0170
23.2200 15.4498 -0.0156
23.2400 15.4631 -0.0216
23.2600 15.4764 -0.0210
23.2800 15.4897 -0.0094
23.3000 15.5030 -0.0276
23.3200 15.5163 -0.0184
23.3400 15.5296 -0.0137
23.3600 15.5430 -0.0284
23.3800 15.5564 -0.0147
23.4000 15.5697 -0.0209
23.4200 15.5831 -0.0291
23.4400 15.5964 -0.0184
23.4600 15.6098 -0.0210
23.4800 15.6231 -0.0267
23.5000 15.6364 -0.0171
23.5200 15.6497 -0.0216
23.5400 15.6631 -0.0319
23.5600 15.6765 -0.0177
23.5800 15.6897 -0.0190
23.6000 15.7030 -0.0294
23.6200 15.7164 -0.0165
23.6400 15.7297 -0.0247
23.6600 15.7430 -0.0247
23.6800 15.7563 -0.0198
23.7000 15.7697 -0.0244
23.7200 15.7830 -0.0240
23.7400 15.7963 -0.0228
23.7600 15.8097 -0.0260
23.7800 15.8230 -0.0200
23.8000 15.8364 -0.0226
23.8200 15.8498 -0.0290
23.8400 15.8631 -0.0178
23.8600 15.8764 -0.0253
23.8800 15.8897 -0.0232
23.9000 15.9031 -0.0145
23.9200 15.9164 -0.0266
23.9400 15.9297 -0.0197
23.9600 15.9430 -0.0172
23.9800 15.9563 -0.0242
24.0000 15.9697 -0.0222
24.0200 15.9830 -0.0204
24.0400 15.9963 -0.0244
24.0600 16.0097 -0.0215
24.0800 16.0230 -0.0215
24.1000 16.0364 -0.0220
24.1200 16.0497 -0.0260
24.1400 16.0630 -0.0194
24.1600 16.0764 -0.0253
24.1800 16.0897 -0.0259
24.2000 16.1030 -0.0203
24.2200 16.1164 -0.0214
24.2400 16.1297 -0.0227
24.2600 16.1431 -0.0232
24.2800 16.1564 -0.0234
24.3000 16.1697 -0.0233
24.3200 16.1831 -0.0200
24.3400 16.1964 -0.0251
24.3600 16.2098 -0.0283
24.3800 16.2231 -0.0236
24.4000 16.2364 -0.0236
24.4200 16.2497 -0.0225
24.4400 16.2630 -0.0226
24.4600 16.2764 -0.0245
24.4800 16.2897 -0.0244
24.5000 16.3030 -0.0199
24.5200 16.3164 -0.0225
24.5400 16.3297 -0.0282
24.5600 16.3431 -0.0213
24.5800 16.3564 -0.0250
24.6000 16.3697 -0.0257
24.6200 16.3831 -0.0220
24.6400 16.3964 -0.0232
24.6600 16.4098 -0.0235
24.6800 16.4231 -0.0199
24.7000 16.4364 -0.0290
24.7200 16.4498 -0.0249
24.7400 16.4631 -0.0203
24.7600 16.4763 -0.0240
24.7800 16.4896 -0.0215
24.8000 16.5030 -0.0195
24.8200 16.5163 -0.0200
24.8400 16.5297 -0.0198
24.8600 16.5430 -0.0188
24.8800 16.5564 -0.0221
24.9000 16.5698 -0.0237
24.9200 16.5831 -0.0220
24.9400 16.5964 -0.0199
24.9600 16.6098 -0.0239
24.9800 16.6231 -0.0199
25.0000 16.6365 -0.0218
25.0200 16.6498 -0.0236
25.0400 16.6630 -0.0172
25.0600 16.6764 -0.0237
25.0800 16.6897 -0.0255
25.1000 16.7030 -0.0148
25.1200 16.7163 -0.0258
25.1400 16.7296 -0.0238
25.1600 16.7430 -0.0155
25.1800 16.7564 -0.0285
25.2000 16.7697 -0.0265
25.2200 16.7830 -0.0129
25.2400 16.7963 -0.0294
25.2600 16.8097 -0.0304
25.2800 16.8231 -0.0172
25.3000 16.8364 -0.0323
25.3200 16.8497 -0.0266
25.3400 16.8631 -0.0128
25.3600 16.8765 -0.0383
25.3800 16.8898 -0.0265
25.4000 16.9031 -0.0132
25.4200 16.9164 -0.0349
25.4400 16.9297 -0.0289
25.4600 16.9430 -0.0131
25.4800 16.9563 -0.0382
25.5000 16.9696 -0.0297
25.5200 16.9830 -0.0137
25.5400 16.9963 -0.0362
25.5600 17.0096 -0.0323
25.5800 17.0230 -0.0186
25.6000 17.0364 -0.0350
25.6200 17.0498 -0.0305
25.6400 17.0631 -0.0219
25.6600 17.0764 -0.0390
25.6800 17.0897 -0.0258
25.7000 17.1031 -0.0173
25.7200 17.1164 -0.0427
25.7400 17.1297 -0.0321
25.7600 17.1430 -0.0202
25.7800 17.1564 -0.0356
25.8000 17.1697 -0.0294
25.8200 17.1831 -0.0258
25.8400 17.1964 -0.0326
25.8600 17.2097 -0.0238
25.8800 17.2230 -0.0293
25.9000 17.2364 -0.0344
25.9200 17.2497 -0.0277
25.9400 17.2630 -0.0339
25.9600 17.2764 -0.0310
25.9800 17.2898 -0.0300
26.0000 17.3031 -0.0357
26.0200 17.3164 -0.0300
26.0400 17.3298 -0.0288
26.0600 17.3431 -0.0351
26.0800 17.3565 -0.0275
26.1000 17.3697 -0.0316
26.1200 17.3830 -0.0372
26.1400 17.3964 -0.0288
26.1600 17.4097 -0.0309
26.1800 17.4230 -0.0367
26.2000 17.4363 -0.0259
26.2200 17.4496 -0.0387
26.2400 17.4630 -0.0310
26.2600 17.4764 -0.0265
26.2800 17.4897 -0.0389
26.3000 17.5031 -0.0353
26.3200 17.5164 -0.0313
26.3400 17.5297 -0.0371
26.3600 17.5431 -0.0322
26.3800 17.5564 -0.0330
26.4000 17.5697 -0.0369
26.4200 17.5830 -0.0330
26.4400 17.5964 -0.0357
26.4600 17.6097 -0.0382
26.4800 17.6231 -0.0295
26.5000 17.6364 -0.0347
26.5200 17.6498 -0.0381
26.5400 17.6631 -0.0286
26.5600 17.6764 -0.0359
26.5800 17.6896 -0.0313
26.6000 17.7029 -0.0277
26.6200 17.7163 -0.0363
26.6400 17.7297 -0.0335
26.6600 17.7430 -0.0274
26.6800 17.7564 -0.0330
26.7000 17.7698 -0.0340
26.7200 17.7831 -0.0263
26.7400 17.7965 -0.0339
26.7600 17.8098 -0.0322
26.7800 17.8231 -0.0255
26.8000 17.8365 -0.0361
26.8200 17.8498 -0.0314
26.8400 17.8631 -0.0280
26.8600 17.8763 -0.0319
26.8800 17.8897 -0.0314
26.9000 17.9030 -0.0290
26.9200 17.9163 -0.0338
26.9400 17.9296 -0.0314
26.9600 17.9430 -0.0311
26.9800 17.9563 -0.0337
27.0000 17.9697 -0.0333
27.0200 17.9830 -0.0346
27.0400 17.9964 -0.0365
27.0600 18.0097 -0.0387
27.0800 18.0231 -0.0378
27.1000 18.0364 -0.0350
27.1200 18.0498 -0.0415
27.1400 18.0631 -0.0333
27.1600 18.0764 -0.0371
27.1800 18.0898 -0.0442
27.2000 18.1030 -0.0326
27.2200 18.1164 -0.0429
27.2400 18.1297 -0.0445
27.2600 18.1430 -0.0400
27.2800 18.1563 -0.0419
27.3000 18.1696 -0.0437
27.3200 18.1830 -0.0415
27.3400 18.1964 -0.0419
27.3600 18.2097 -0.0449
27.3800 18.2230 -0.0386
27.4000 18.2364 -0.0488
27.4200 18.2497 -0.0409
27.4400 18.2631 -0.0377
27.4600 18.2764 -0.0540
27.4800 18.2897 -0.0395
27.5000 18.3031 -0.0404
27.5200 18.3164 -0.0509
27.5400 18.3298 -0.0397
27.5600 18.3431 -0.0430
27.5800 18.3564 -0.0453
27.6000 18.3698 -0.0399
27.6200 18.3831 -0.0438
27.6400 18.3964 -0.0446
27.6600 18.4097 -0.0375
27.6800 18.4230 -0.0433
27.7000 18.4363 -0.0456
27.7200 18.4497 -0.0328
27.7400 18.4630 -0.0476
27.7600 18.4764 -0.0433
27.7800 18.4898 -0.0379
27.8000 18.5031 -0.0455
27.8200 18.5164 -0.0436
27.8400 18.5298 -0.0405
27.8600 18.5431 -0.0450
27.8800 18.5564 -0.0473
27.9000 18.5697 -0.0391
27.9200 18.5830 -0.0469
27.9400 18.5963 -0.0462
27.9600 18.6097 -0.0378
27.9800 18.6231 -0.0537
28.0000 18.6364 -0.0472
28.0200 18.6497 -0.0416
28.0400 18.6630 -0.0501
28.0600 18.6764 -0.0533
28.0800 18.6897 -0.0513
28.1000 18.7030 -0.0494
28.1200 18.7163 -0.0533
28.1400 18.7297 -0.0467
28.1600 18.7431 -0.0522
28.1800 18.7565 -0.0523
28.2000 18.7698 -0.0470
28.2200 18.7831 -0.0493
28.2400 18.7965 -0.0497
28.2600 18.8098 -0.0494
28.2800 18.8231 -0.0447
28.3000 18.8364 -0.0429
28.3200 18.8497 -0.0462
28.3400 18.8631 -0.0442
28.3600 18.8764 -0.0447
28.3800 18.8897 -0.0380
28.4000 18.9030 -0.0413
28.4200 18.9163 -0.0429
28.4400 18.9297 -0.0413
28.4600 18.9430 -0.0379
28.4800 18.9564 -0.0394
28.5000 18.9697 -0.0348
28.5200 18.9831 -0.0410
28.5400 18.9964 -0.0428
28.5600 19.0097 -0.0288
28.5800 19.0231 -0.0419
28.6000 19.0364 -0.0456
28.6200 19.0498 -0.0290
28.6400 19.0631 -0.0458
28.6600 19.0764 -0.0393
28.6800 19.0897 -0.0301
28.7000 19.1031 -0.0511
28.7200 19.1164 -0.0411
28.7400 19.1297 -0.0343
28.7600 19.1429 -0.0516
28.7800 19.1563 -0.0439
28.8000 19.1696 -0.0376
28.8200 19.1830 -0.0570
28.8400 19.1963 -0.0410
28.8600 19.2097 -0.0423
28.8800 19.2231 -0.0595
28.9000 19.2365 -0.0409
28.9200 19.2498 -0.0453
28.9400 19.2631 -0.0577
28.9600 19.2765 -0.0429
28.9800 19.2898 -0.0517
29.0000 19.3030 -0.0561
29.0200 19.3163 -0.0414
29.0400 19.3297 -0.0527
29.0600 19.3430 -0.0585
29.0800 19.3563 -0.0425
29.1000 19.3697 -0.0519
29.1200 19.3830 -0.0561
29.1400 19.3964 -0.0531
29.1600 19.4097 -0.0538
29.1800 19.4231 -0.0519
29.2000 19.4364 -0.0564
29.2200 19.4497 -0.0526
29.2400 19.4631 -0.0498
29.2600 19.4764 -0.0626
29.2800 19.4897 -0.0521
29.3000 19.5031 -0.0475
29.3200 19.5164 -0.0630
29.3400 19.5297 -0.0493
29.3600 19.5430 -0.0523
29.3800 19.5563 -0.0660
29.4000 19.5697 -0.0453
29.4200 19.5830 -0.0537
29.4400 19.5964 -0.0694
29.4600 19.6097 -0.0452
29.4800 19.6230 -0.0573
29.5000 19.6364 -0.0653
29.5200 19.6497 -0.0444
29.5400 19.6630 -0.0634
29.5600 19.6764 -0.0653
29.5800 19.6897 -0.0391
29.6000 19.7031 -0.0675
29.6200 19.7164 -0.0613
29.6400 19.7297 -0.0437
29.6600 19.7430 -0.0708
29.6800 19.7564 -0.0574
29.7000 19.7698 -0.0453
29.7200 19.7831 -0.0700
29.7400 19.7964 -0.0580
29.7600 19.8097 -0.0539
29.7800 19.8231 -0.0691
29.8000 19.8364 -0.0554
29.8200 19.8497 -0.0566
29.8400 19.8630 -0.0698
29.8600 19.8763 -0.0548
29.8800 19.8897 -0.0566
29.9000 19.9030 -0.0685
29.9200 19.9164 -0.0593
29.9400 19.9297 -0.0604
29.9600 19.9431 -0.0683
29.9800 19.9565 -0.0635
30.0000 19.9698 -0.0598
30.0200 19.9831 -0.0626
30.0400 19.9964 -0.0684
30.0600 20.0098 -0.0597
30.0800 20.0231 -0.0650
30.1000 20.0363 -0.0636
30.1200 20.0497 -0.0589
30.1400 20.0630 -0.0705
30.1600 20.0764 -0.0695
30.1800 20.0897 -0.0579
30.2000 20.1030 -0.0695
30.2200 20.1164 -0.0723
30.2400 20.1297 -0.0595
30.2600 20.1430 -0.0715
30.2800 20.1563 -0.0748
30.3000 20.1697 -0.0600
30.3200 20.1831 -0.0736
30.3400 20.1964 -0.0746
30.3600 20.2097 -0.0626
30.3800 20.2231 -0.0781
30.4000 20.2364 -0.0737
30.4200 20.2498 -0.0661
30.4400 20.2631 -0.0818
30.4600 20.2764 -0.0743
30.4800 20.2897 -0.0721
30.5000 20.3031 -0.0863
30.5200 20.3164 -0.0691
30.5400 20.3297 -0.0766
30.5600 20.3430 -0.0859
30.5800 20.3563 -0.0724
30.6000 20.3697 -0.0729
30.6200 20.3830 -0.0774
30.6400 20.3964 -0.0579
30.6600 20.4097 -0.0277
30.6800 20.4231 0.0070
30.7000 20.4365 0.0674
30.7200 20.4498 0.1266
30.7400 20.4631 0.1738
30.7600 20.4764 0.2341
30.7800 20.4898 0.2925
30.8000 20.5031 0.3371
30.8200 20.5164 0.3880
30.8400 20.5297 0.4270
30.8600 20.5430 0.4670
30.8800 20.5564 0.5086
30.9000 20.5697 0.5419
30.9200 20.5830 0.5418
30.9400 20.5963 0.5157
30.9600 20.6097 0.5114
30.9800 20.6230 0.5055
31.0000 20.6363 0.4969
31.0200 20.6497 0.5039
31.0400 20.6631 0.5001
31.0600 20.6765 0.4911
31.0800 20.6898 0.4902
31.1000 20.7031 0.4957
31.1200 20.7164 0.4796
31.1400 20.7298 0.4851
31.1600 20.7431 0.4964
31.1800 20.7564 0.4935
31.2000 20.7697 0.4955
31.2200 20.7830 0.4959
31.2400 20.7963 0.4776
31.2600 20.8097 0.4862
31.2800 20.8230 0.4898
31.3000 20.8364 0.4740
31.3200 20.8497 0.4778
31.3400 20.8631 0.4824
31.3600 20.8764 0.4659
31.3800 20.8897 0.4765
31.4000 20.9031 0.4796
31.4200 20.9164 0.4664
31.4400 20.9297 0.4728
31.4600 20.9430 0.4825
31.4800 20.9564 0.4672
31.5000 20.9697 0.4738
31.5200 20.9831 0.4769
31.5400 20.9964 0.4632
31.5600 21.0097 0.4737
31.5800 21.0231 0.4758
31.6000 21.0364 0.4686
31.6200 21.0497 0.4727
31.6400 21.0630 0.4691
31.6600 21.0764 0.4694
31.6800 21.0897 0.4714
31.7000 21.1030 0.4695
31.7200 21.1163 0.4681
31.7400 21.1297 0.4670
31.7600 21.1430 0.4693
31.7800 21.1564 0.4642
31.8000 21.1697 0.4580
31.8200 21.1831 0.4657
31.8400 21.1964 0.4645
31.8600 21.2098 0.4511
31.8800 21.2231 0.4655
31.9000 21.2364 0.4626
31.9200 21.2497 0.4552
31.9400 21.2631 0.4594
31.9600 21.2764 0.4548
31.9800 21.2897 0.4532
32.0000 21.3030 0.4616
32.0200 21.3163 0.4552
32.0400 21.3297 0.4494
32.0600 21.3430 0.4574
32.0800 21.3563 0.4486
32.1000 21.3697 0.4448
32.1200 21.3831 0.4523
32.1400 21.3964 0.4425
32.1600 21.4098 0.4442
32.1800 21.4231 0.4521
32.2000 21.4364 0.4421
32.2200 21.4498 0.4410
32.2400 21.4631 0.4508
32.2600 21.4764 0.4412
32.2800 21.4897 0.4401
32.3000 21.5030 0.4475
32.3200 21.5164 0.4399
32.3400 21.5297 0.4369
32.3600 21.5430 0.4426
32.3800 21.5563 0.4433
32.4000 21.5697 0.4415
32.4200 21.5830 0.4428
32.4400 21.5964 0.4403
32.4600 21.6097 0.4338
32.4800 21.6230 0.4365
32.5000 21.6364 0.4362
32.5200 21.6497 0.4343
32.5400 21.6631 0.4383
32.5600 21.6764 0.4375
32.5800 21.6898 0.4316
32.6000 21.7031 0.4306
32.6200 21.7164 0.4367
32.6400 21.7297 0.4312
32.6600 21.7430 0.4337
32.6800 21.7564 0.4335
32.7000 21.7697 0.4203
32.7200 21.7830 0.4292
32.7400 21.7963 0.4326
32.7600 21.8097 0.4234
32.7800 21.8230 0.4319
32.8000 21.8363 0.4249
32.8200 21.8497 0.4220
32.8400 21.8631 0.4282
32.8600 21.8765 0.4211
32.8800 21.8898 0.4194
32.9000 21.9031 0.4253
32.9200 21.9164 0.4157
32.9400 21.9298 0.4145
32.9600 21.9431 0.4247
32.9800 21.9564 0.4177
33.0000 21.9697 0.4111
33.0200 21.9831 0.4234
33.0400 21.9964 0.4070
33.0600 22.0097 0.4107
33.0800 22.0230 0.4181
33.1000 22.0364 0.4065
33.1200 22.0497 0.4156
33.1400 22.0630 0.4120
33.1600 22.0763 0.4067
33.1800 22.0897 0.4130
33.2000 22.1031 0.4115
33.2200 22.1164 0.4048
33.2400 22.1297 0.4112
33.2600 22.1431 0.4098
33.2800 22.1564 0.4060
33.3000 22.1698 0.4072
33.3200 22.1831 0.4020
33.3400 22.1964 0.4070
33.3600 22.2097 0.4120
33.3800 22.2230 0.4036
33.4000 22.2364 0.4038
33.4200 22.2497 0.4048
33.4400 22.2630 0.4015
33.4600 22.2763 0.4036
33.4800 22.2897 0.4045
33.5000 22.3030 0.3990
33.5200 22.3164 0.4097
33.5400 22.3297 0.3971
33.5600 22.3430 0.4010
33.5800 22.3564 0.4024
33.6000 22.3697 0.3958
33.6200 22.3830 0.4010
33.6400 22.3964 0.3980
33.6600 22.4097 0.3888
33.6800 22.4231 0.3972
33.7000 22.4364 0.3979
33.7200 22.4498 0.3929
33.7400 22.4631 0.3977
33.7600 22.4764 0.3934
33.7800 22.4897 0.3937
33.8000 22.5030 0.3951
33.8200 22.5163 0.3929
33.8400 22.5296 0.3920
33.8600 22.5430 0.3917
33.8800 22.5563 0.3913
33.9000 22.5697 0.3842
33.9200 22.5830 0.3882
33.9400 22.5964 0.3886
33.9600 22.6098 0.3841
33.9800 22.6231 0.3866
34.0000 22.6365 0.3883
34.0200 22.6498 0.3779
34.0400 22.6632 0.3850
34.0600 22.6765 0.3914
34.0800 22.6897 0.3798
34.1000 22.7030 0.3841
34.1200 22.7164 0.3898
34.1400 22.7297 0.3793
34.1600 22.7430 0.3807
34.1800 22.7563 0.3869
34.2000 22.7697 0.3786
34.2200 22.7830 0.3803
34.2400 22.7963 0.3843
34.2600 22.8097 0.3796
34.2800 22.8231 0.3816
34.3000 22.8365 0.3827
34.3200 22.8498 0.3760
34.3400 22.8631 0.3800
34.3600 22.8764 0.3814
34.3800 22.8898 0.3732
34.4000 22.9031 0.3751
34.4200 22.9164 0.3772
34.4400 22.9297 0.3779
34.4600 22.9430 0.3766
34.4800 22.9564 0.3748
34.5000 22.9697 0.3730
34.5200 22.9830 0.3726
34.5400 22.9963 0.3738
34.5600 23.0097 0.3666
34.5800 23.0230 0.3647
34.6000 23.0363 0.3727
34.6200 23.0497 0.3629
34.6400 23.0630 0.3589
34.6600 23.0764 0.3710
34.6800 23.0897 0.3603
34.7000 23.1031 0.3551
34.7200 23.1164 0.3697
34.7400 23.1297 0.3610
34.7600 23.1431 0.3509
34.7800 23.1564 0.3669
34.8000 23.1697 0.3566
34.8200 23.1831 0.3522
34.8400 23.1964 0.3733
34.8600 23.2097 0.3486
34.8800 23.2230 0.3591
34.9000 23.2363 0.3731
34.9200 23.2497 0.3468
34.9400 23.2630 0.3570
34.9600 23.2764 0.3665
34.9800 23.2897 0.3453
35.0000 23.3031 0.3610
35.0200 23.3164 0.3649
35.0400 23.3298 0.3446
35.0600 23.3431 0.3628
35.0800 23.3564 0.3625
35.1000 23.3698 0.3484
35.1200 23.3831 0.3592
35.1400 23.3964 0.3613
35.1600 23.4097 0.3419
35.1800 23.4230 0.3546
35.2000 23.4364 0.3597
35.2200 23.4497 0.3423
35.2400 23.4630 0.3551
35.2600 23.4763 0.3539
35.2800 23.4897 0.3429
35.3000 23.5030 0.3507
35.3200 23.5163 0.3504
35.3400 23.5297 0.3419
35.3600 23.5430 0.3510
35.3800 23.5564 0.3493
35.4000 23.5698 0.3419
35.4200 23.5831 0.3474
35.4400 23.5964 0.3481
35.4600 23.6098 0.3472
35.4800 23.6231 0.3404
35.5000 23.6365 0.3476
35.5200 23.6497 0.3456
35.5400 23.6631 0.3403
35.5600 23.6764 0.3467
35.5800 23.6897 0.3458
35.6000 23.7031 0.3383
35.6200 23.7164 0.3465
35.6400 23.7297 0.3421
35.6600 23.7430 0.3397
35.6800 23.7564 0.3463
35.7000 23.7697 0.3426
35.7200 23.7830 0.3386
35.7400 23.7964 0.3493
35.7600 23.8098 0.3376
35.7800 23.8231 0.3365
35.8000 23.8364 0.3440
35.8200 23.8498 0.3370
35.8400 23.8631 0.3389
35.8600 23.8764 0.3428
35.8800 23.8897 0.3372
35.9000 23.9030 0.3353
35.9200 23.9164 0.3397
35.9400 23.9297 0.3347
35.9600 23.9430 0.3333
35.9800 23.9563 0.3377
36.0000 23.9696 0.3298
36.0200 23.9830 0.3331
36.0400 23.9963 0.3332
36.0600 24.0096 0.3304
36.0800 24.0230 0.3362
36.1000 24.0364 0.3284
36.1200 24.0498 0.3263
36.1400 24.0632 0.3334
36.1600 24.0765 0.3304
36.1800 24.0898 0.3293
36.2000 24.1031 0.3278
36.2200 24.1164 0.3246
36.2400 24.1297 0.3277
36.2600 24.1430 0.3321
36.2800 24.1563 0.3241
36.3000 24.1697 0.3279
36.3200 24.1830 0.3253
36.3400 24.1963 0.3220
36.3600 24.2097 0.3276
36.3800 24.2230 0.3236
36.4000 24.2364 0.3213
36.4200 24.2497 0.3265
36.4400 24.2631 0.3226
36.4600 24.2764 0.3179
36.4800 24.2898 0.3283
36.5000 24.3031 0.3214
36.5200 24.3164 0.3135
36.5400 24.3297 0.3260
36.5600 24.3431 0.3183
36.5800 24.3564 0.3133
36.6000 24.3697 0.3275
36.6200 24.3830 0.3139
36.6400 24.3964 0.3105
36.6600 24.4097 0.3260
36.6800 24.4230 0.3123
36.7000 24.4363 0.3141
36.7200 24.4497 0.3229
36.7400 24.4630 0.3037
36.7600 24.4764 0.3114
36.7800 24.4897 0.3187
36.8000 24.5030 0.3023
36.8200 24.5164 0.3136
36.8400 24.5298 0.3164
36.8600 24.5431 0.3019
36.8800 24.5564 0.3118
36.9000 24.5697 0.3142
36.9200 24.5831 0.3024
36.9400 24.5964 0.3074
36.9600 24.6097 0.3132
36.9800 24.6230 0.3037
37.0000 24.6364 0.3109
37.0200 24.6497 0.3096
37.0400 24.6630 0.3019
37.0600 24.6763 0.3117
37.0800 24.6897 0.3110
37.1000 24.7030 0.3021
37.1200 24.7164 0.3051
37.1400 24.7297 0.3109
37.1600 24.7430 0.3014
37.1800 24.7564 0.3044
37.2000 24.7698 0.3092
37.2200 24.7831 0.3006
37.2400 24.7964 0.3058
37.2600 24.8097 0.3115
37.2800 24.8231 0.2964
37.3000 24.8364 0.3036
37.3200 24.8497 0.3124
37.3400 24.8630 0.3038
37.3600 24.8764 0.3012
37.3800 24.8897 0.3076
37.4000 24.9030 0.2998
37.4200 24.9164 0.3030
37.4400 24.9297 0.3073
37.4600 24.9430 0.3028
37.4800 24.9564 0.3017
37.5000 24.9697 0.3022
37.5200 24.9830 0.2983
37.5400 24.9964 0.2978
37.5600 25.0097 0.3040
37.5800 25.0231 0.2981
37.6000 25.0364 0.2973
37.6200 25.0497 0.3011
37.6400 25.0631 0.2930
37.6600 25.0765 0.2954
37.6800 25.0898 0.3024
37.7000 25.1031 0.2913
37.7200 25.1164 0.2914
37.7400 25.1297 0.2983
37.7600 25.1430 0.2928
37.7800 25.1563 0.2901
37.8000 25.1696 0.2939
37.8200 25.1830 0.2876
37.8400 25.1963 0.2887
37.8600 25.2097 0.2892
37.8800 25.2231 0.2877
37.9000 25.2364 0.2808
37.9200 25.2498 0.2850
37.9400 25.2631 0.2890
37.9600 25.2764 0.2816
37.9800 25.2897 0.2869
38.0000 25.3031 0.2881
38.0200 25.3165 0.2746
38.0400 25.3298 0.2863
38.0600 25.3430 0.2881
38.0800 25.3564 0.2770
38.1000 25.3697 0.2847
38.1200 25.3830 0.2846
38.1400 25.3963 0.2753
38.1600 25.4097 0.2860
38.1800 25.4230 0.2831
38.2000 25.4363 0.2732
38.2200 25.4497 0.2840
38.2400 25.4630 0.2785
38.2600 25.4764 0.2677
38.2800 25.4897 0.2826
38.3000 25.5031 0.2741
38.3200 25.5164 0.2687
38.3400 25.5298 0.2810
38.3600 25.5431 0.2769
38.3800 25.5564 0.2723
38.4000 25.5697 0.2741
38.4200 25.5830 0.2810
38.4400 25.5963 0.2689
38.4600 25.6097 0.2729
38.4800 25.6230 0.2776
38.5000 25.6363 0.2627
38.5200 25.6497 0.2740
38.5400 25.6630 0.2723
38.5600 25.6764 0.2621
38.5800 25.6897 0.2717
38.6000 25.7031 0.2664
38.6200 25.7164 0.2583
38.6400 25.7297 0.2687
38.6600 25.7431 0.2649
38.6800 25.7564 0.2543
38.7000 25.7697 0.2723
38.7200 25.7831 0.2616
38.7400 25.7964 0.2531
38.7600 25.8098 0.2688
38.7800 25.8231 0.2598
38.8000 25.8364 0.2535
38.8200 25.8498 0.2682
38.8400 25.8631 0.2548
38.8600 25.8764 0.2571
38.8800 25.8897 0.2661
38.9000 25.9030 0.2534
38.9200 25.9164 0.2581
38.9400 25.9297 0.2610
38.9600 25.9430 0.2496
38.9800 25.9563 0.2636
39.0000 25.9697 0.2592
39.0200 25.9831 0.2509
39.0400 25.9964 0.2630
39.0600 26.0097 0.2572
39.0800 26.0231 0.2555
39.1000 26.0364 0.2570
39.1200 26.0497 0.2491
39.1400 26.0631 0.2603
39.1600 26.0764 0.2551
39.1800 26.0898 0.2541
39.2000 26.1031 0.2554
39.2200 26.1164 0.2524
39.2400 26.1297 0.2541
39.2600 26.1430 0.2557
39.2800 26.1563 0.2484
39.3000 26.1697 0.2548
39.3200 26.1830 0.2562
39.3400 26.1964 0.2475
39.3600 26.2098 0.2563
39.3800 26.2231 0.2517
39.4000 26.2364 0.2482
39.4200 26.2498 0.2560
39.4400 26.2631 0.2474
39.4600 26.2764 0.2499
39.4800 26.2897 0.2525
39.5000 26.3030 0.2473
39.5200 26.3164 0.2540
39.5400 26.3297 0.2493
39.5600 26.3430 0.2457
39.5800 26.3563 0.2523
39.6000 26.3696 0.2466
39.6200 26.3830 0.2462
39.6400 26.3964 0.2469
39.6600 26.4097 0.2444
39.6800 26.4231 0.2492
39.7000 26.4364 0.2538
39.7200 26.4497 0.2444
39.7400 26.4631 0.2481
39.7600 26.4764 0.2555
39.7800 26.4897 0.2363
39.8000 26.5031 0.2467
39.8200 26.5165 0.2531
39.8400 26.5298 0.2358
39.8600 26.5431 0.2469
39.8800 26.5564 0.2511
39.9000 26.5697 0.2351
39.9200 26.5830 0.2455
39.9400 26.5963 0.2436
39.9600 26.6096 0.2304
39.9800 26.6230 0.2485
40.0000 26.6363 0.2434
40.0200 26.6497 0.2306
40.0400 26.6630 0.2460
40.0600 26.6764 0.2418
40.0800 26.6898 0.2274
40.1000 26.7031 0.2463
40.1200 26.7164 0.2363
40.1400 26.7297 0.2304
40.1600 26.7431 0.2426
40.1800 26.7564 0.2320
40.2000 26.7697 0.2311
40.2200 26.7830 0.2405
40.2400 26.7964 0.2309
40.2600 26.8097 0.2316
40.2800 26.8230 0.2406
40.3000 26.8364 0.2275
40.3200 26.8497 0.2312
40.3400 26.8630 0.2384
40.3600 26.8764 0.2225
40.3800 26.8897 0.2360
40.4000 26.9030 0.2360
40.4200 26.9164 0.2276
40.4400 26.9297 0.2290
40.4600 26.9431 0.2299
40.4800 26.9564 0.2259
40.5000 26.9697 0.2271
40.5200 26.9831 0.2284
40.5400 26.9964 0.2290
40.5600 27.0098 0.2287
40.5800 27.0231 0.2257
40.6000 27.0364 0.2333
40.6200 27.0497 0.2287
40.6400 27.0631 0.2199
40.6600 27.0764 0.2342
40.6800 27.0897 0.2256
40.7000 27.1030 0.2177
40.7200 27.1163 0.2326
40.7400 27.1297 0.2195
40.7600 27.1430 0.2190
40.7800 27.1564 0.2275
40.8000 27.1697 0.2138
40.8200 27.1831 0.2154
40.8400 27.1964 0.2276
40.8600 27.2097 0.2138
40.8800 27.2230 0.2201
40.9000 27.2364 0.2230
40.9200 27.2498 0.2112
40.9400 27.2631 0.2192
40.9600 27.2764 0.2205
40.9800 27.2898 0.2083
41.0000 27.3031 0.2190
41.0200 27.3164 0.2160
41.0400 27.3297 0.2104
41.0600 27.3430 0.2156
41.0800 27.3563 0.2158
41.1000 27.3697 0.2102
41.1200 27.3830 0.2162
41.1400 27.3963 0.2123
41.1600 27.4097 0.2063
41.1800 27.4231 0.2088
41.2000 27.4365 0.2122
41.2200 27.4498 0.2053
41.2400 27.4631 0.2134
41.2600 27.4765 0.2037
41.2800 27.4898 0.2028
41.3000 27.5031 0.2126
41.3200 27.5164 0.2084
41.3400 27.5297 0.2013
41.3600 27.5430 0.2069
41.3800 27.5563 0.2120
41.4000 27.5696 0.1983
41.4200 27.5830 0.2120
41.4400 27.5963 0.2129
41.4600 27.6097 0.1953
41.4800 27.6230 0.2137
41.5000 27.6364 0.2028
41.5200 27.6497 0.1969
41.5400 27.6631 0.2120
41.5600 27.6765 0.2073
41.5800 27.6898 0.2040
41.6000 27.7031 0.2086
41.6200 27.7164 0.2047
41.6400 27.7298 0.2009
41.6600 27.7431 0.2111
41.6800 27.7563 0.2018
41.7000 27.7697 0.2052
41.7200 27.7830 0.2064
41.7400 27.7964 0.2023
41.7600 27.8097 0.2012
41.7800 27.8230 0.2047
41.8000 27.8364 0.1997
41.8200 27.8497 0.1999
41.8400 27.8631 0.2003
41.8600 27.8764 0.2033
41.8800 27.8897 0.2002
41.9000 27.9031 0.1971
41.9200 27.9164 0.2017
41.9400 27.9297 0.1995
41.9600 27.9431 0.1935
41.9800 27.9564 0.1969
42.0000 27.9698 0.1959
42.0200 27.9831 0.1912
42.0400 27.9964 0.1949
42.0600 28.0097 0.1974
42.0800 28.0231 0.1914
42.1000 28.0364 0.1903
42.1200 28.0497 0.1974
42.1400 28.0630 0.1913
42.1600 28.0763 0.1924
42.1800 28.0897 0.1968
42.2000 28.1030 0.1840
42.2200 28.1164 0.1933
42.2400 28.1298 0.1946
42.2600 28.1431 0.1842
42.2800 28.1565 0.1913
42.3000 28.1698 0.1943
42.3200 28.1831 0.1826
42.3400 28.1964 0.1882
42.3600 28.2097 0.1928
42.3800 28.2230 0.1817
42.4000 28.2363 0.1857
42.4200 28.2497 0.1900
42.4400 28.2631 0.1854
42.4600 28.2764 0.1827
42.4800 28.2897 0.1860
42.5000 28.3030 0.1887
42.5200 28.3164 0.1812
42.5400 28.3297 0.1822
42.5600 28.3430 0.1841
42.5800 28.3563 0.1778
42.6000 28.3697 0.1850
42.6200 28.3831 0.1792
42.6400 28.3964 0.1771
42.6600 28.4098 0.1859
42.6800 28.4231 0.1805
42.7000 28.4365 0.1712
42.7200 28.4498 0.1842
42.7400 28.4631 0.1808
42.7600 28.4764 0.1675
42.7800 28.4897 0.1878
42.8000 28.5031 0.1781
42.8200 28.5164 0.1660
42.8400 28.5297 0.1873
42.8600 28.5430 0.1739
42.8800 28.5563 0.1716
42.9000 28.5697 0.1850
42.9200 28.5830 0.1718
42.9400 28.5964 0.1741
42.9600 28.6097 0.1829
42.9800 28.6231 0.1706
43.0000 28.6364 0.1740
43.0200 28.6497 0.1783
43.0400 28.6630 0.1712
43.0600 28.6764 0.1747
43.0800 28.6898 0.1776
43.1000 28.7031 0.1685
43.1200 28.7164 0.1714
43.1400 28.7297 0.1736
43.1600 28.7431 0.1702
43.1800 28.7564 0.1728
43.2000 28.7697 0.1700
43.2200 28.7830 0.1697
43.2400 28.7963 0.1729
43.2600 28.8096 0.1732
43.2800 28.8230 0.1692
43.3000 28.8363 0.1685
43.3200 28.8497 0.1708
43.3400 28.8631 0.1690
43.3600 28.8765 0.1637
43.3800 28.8898 0.1678
43.4000 28.9031 0.1689
43.4200 28.9165 0.1659
43.4400 28.9298 0.1683
43.4600 28.9431 0.1696
43.4800 28.9563 0.1582
43.5000 28.9696 0.1764
43.5200 28.9830 0.1598
43.5400 28.9963 0.1596
43.5600 29.0097 0.1733
43.5800 29.0230 0.1598
43.6000 29.0364 0.1581
43.6200 29.0497 0.1683
43.6400 29.0631 0.1605
43.6600 29.0764 0.1539
43.6800 29.0898 0.1716
43.7000 29.1031 0.1579
43.7200 29.1165 0.1542
43.7400 29.1298 0.1663
43.7600 29.1431 0.1565
43.7800 29.1564 0.1597
43.8000 29.1698 0.1615
43.8200 29.1831 0.1541
43.8400 29.1964 0.1608
43.8600 29.2097 0.1619
43.8800 29.2230 0.1601
43.9000 29.2364 0.1551
43.9200 29.2497 0.1622
43.9400 29.2630 0.1592
43.9600 29.2763 0.1565
43.9800 29.2897 0.1616
44.0000 29.3030 0.1598
44.0200 29.3164 0.1545
44.0400 29.3297 0.1625
44.0600 29.3431 0.1581
44.0800 29.3564 0.1516
44.1000 29.3697 0.1585
44.1200 29.3831 0.1549
44.1400 29.3964 0.1493
44.1600 29.4098 0.1618
44.1800 29.4231 0.1566
44.2000 29.4364 0.1495
44.2200 29.4497 0.1586
44.2400 29.4631 0.1551
44.2600 29.4764 0.1463
44.2800 29.4897 0.1595
44.3000 29.5030 0.1524
44.3200 29.5163 0.1464
44.3400 29.5297 0.1533
44.3600 29.5430 0.1501
44.3800 29.5564 0.1468
44.4000 29.5697 0.1566
44.4200 29.5831 0.1516
44.4400 29.5964 0.1437
44.4600 29.6098 0.1551
44.4800 29.6231 0.1499
44.5000 29.6364 0.1413
44.5200 29.6497 0.1562
44.5400 29.6630 0.1506
44.5600 29.6764 0.1413
44.5800 29.6897 0.1531
44.6000 29.7031 0.1476
44.6200 29.7164 0.1438
44.6400 29.7297 0.1489
44.6600 29.7430 0.1511
44.6800 29.7563 0.1399
44.7000 29.7697 0.1526
44.7200 29.7830 0.1420
44.7400 29.7964 0.1386
44.7600 29.8097 0.1549
44.7800 29.8231 0.1391
44.8000 29.8364 0.1369
44.8200 29.8497 0.1486
44.8400 29.8631 0.1404
44.8600 29.8764 0.1393
44.8800 29.8898 0.1468
44.9000 29.9031 0.1382
44.9200 29.9164 0.1344
44.9400 29.9297 0.1508
44.9600 29.9430 0.1347
44.9800 29.9564 0.1313
45.0000 29.9697 0.1464
45.0200 29.9830 0.1318
45.0400 29.9963 0.1330
45.0600 30.0097 0.1472
45.0800 30.0230 0.1278
45.1000 30.0364 0.1325
45.1200 30.0497 0.1425
45.1400 30.0631 0.1242
45.1600 30.0765 0.1307
45.1800 30.0898 0.1380
45.2000 30.1031 0.1237
45.2200 30.1164 0.1302
45.2400 30.1298 0.1393
45.2600 30.1431 0.1248
45.2800 30.1564 0.1306
45.3000 30.1697 0.1411
45.3200 30.1830 0.1255
45.3400 30.1964 0.1229
45.3600 30.2097 0.1374
45.3800 30.2230 0.1243
45.4000 30.2363 0.1259
45.4200 30.2497 0.1312
45.4400 30.2630 0.1216
45.4600 30.2763 0.1300
45.4800 30.2897 0.1368
45.5000 30.3031 0.1190
45.5200 30.3165 0.1264
45.5400 30.3298 0.1287
45.5600 30.3431 0.1179
45.5800 30.3564 0.1234
45.6000 30.3698 0.1313
45.6200 30.3831 0.1184
45.6400 30.3963 0.1233
45.6600 30.4096 0.1305
45.6800 30.4230 0.1247
45.7000 30.4363 0.1245
45.7200 30.4497 0.1228
45.7400 30.4630 0.1209
45.7600 30.4763 0.1245
45.7800 30.4897 0.1182
45.8000 30.5031 0.1196
45.8200 30.5164 0.1227
45.8400 30.5297 0.1173
45.8600 30.5431 0.1204
45.8800 30.5564 0.1233
45.9000 30.5697 0.1203
45.9200 30.5830 0.1209
45.9400 30.5964 0.1218
45.9600 30.6097 0.1200
45.9800 30.6231 0.1198
46.0000 30.6364 0.1222
46.0200 30.6497 0.1201
46.0400 30.6631 0.1202
46.0600 30.6764 0.1213
46.0800 30.6897 0.1182
46.1000 30.7030 0.1219
46.1200 30.7163 0.1218
46.1400 30.7297 0.1179
46.1600 30.7430 0.1140
46.1800 30.7563 0.1214
46.2000 30.7697 0.1152
46.2200 30.7830 0.1171
46.2400 30.7964 0.1229
46.2600 30.8097 0.1098
46.2800 30.8231 0.1199
46.3000 30.8364 0.1223
46.3200 30.8498 0.1057
46.3400 30.8631 0.1226
46.3600 30.8764 0.1191
46.3800 30.8897 0.1112
46.4000 30.9031 0.1202
46.4200 30.9164 0.1146
46.4400 30.9298 0.1080
46.4600 30.9430 0.1152
46.4800 30.9563 0.1174
46.5000 30.9697 0.1102
46.5200 30.9830 0.1140
46.5400 30.9963 0.1126
46.5600 31.0097 0.1056
46.5800 31.0231 0.1122
46.6000 31.0364 0.1098
46.6200 31.0498 0.1002
46.6400 31.0631 0.1115
46.6600 31.0764 0.1136
46.6800 31.0898 0.1024
46.7000 31.1031 0.1125
46.7200 31.1164 0.1078
46.7400 31.1297 0.1009
46.7600 31.1430 0.1095
46.7800 31.1564 0.1022
46.8000 31.1697 0.1007
46.8200 31.1830 0.1061
46.8400 31.1963 0.1026
46.8600 31.2097 0.1000
46.8800 31.2230 0.1044
46.9000 31.2364 0.1011
46.9200 31.2497 0.1025
46.9400 31.2631 0.1006
46.9600 31.2764 0.0991
46.9800 31.2897 0.1002
47.0000 31.3031 0.0995
47.0200 31.3164 0.0999
47.0400 31.3298 0.0966
47.0600 31.3431 0.1010
47.0800 31.3564 0.1007
47.1000 31.3697 0.0970
47.1200 31.3830 0.1046
47.1400 31.3964 0.0999
47.1600 31.4097 0.0958
47.1800 31.4230 0.1013
47.2000 31.4363 0.0988
47.2200 31.4496 0.0915
47.2400 31.4630 0.0995
47.2600 31.4764 0.1020
47.2800 31.4897 0.0920
47.3000 31.5031 0.0946
47.3200 31.5164 0.1025
47.3400 31.5298 0.0878
47.3600 31.5431 0.0992
47.3800 31.5564 0.0981
47.4000 31.5697 0.0905
47.4200 31.5831 0.1017
47.4400 31.5964 0.0913
47.4600 31.6097 0.0906
47.4800 31.6230 0.1014
47.5000 31.6364 0.0938
47.5200 31.6497 0.0875
47.5400 31.6630 0.0972
47.5600 31.6763 0.0954
47.5800 31.6897 0.0828
47.6000 31.7030 0.0928
47.6200 31.7164 0.0903
47.6400 31.7297 0.0851
47.6600 31.7431 0.0942
47.6800 31.7564 0.0833
47.7000 31.7698 0.0822
47.7200 31.7831 0.0944
47.7400 31.7964 0.0863
47.7600 31.8098 0.0782
47.7800 31.8231 0.0873
47.8000 31.8364 0.0878
47.8200 31.8497 0.0776
47.8400 31.8630 0.0905
47.8600 31.8764 0.0856
47.8800 31.8897 0.0788
47.9000 31.9030 0.0864
47.9200 31.9163 0.0807
47.9400 31.9297 0.0789
47.9600 31.9430 0.0827
47.9800 31.9563 0.0815
48.0000 31.9697 0.0771
48.0200 31.9830 0.0830
48.0400 31.9964 0.0794
48.0600 32.0097 0.0734
48.0800 32.0230 0.0834
48.1000 32.0364 0.0816
48.1200 32.0497 0.0748
48.1400 32.0631 0.0795
48.1600 32.0764 0.0793
48.1800 32.0897 0.0740
48.2000 32.1031 0.0813
48.2200 32.1165 0.0812
48.2400 32.1298 0.0701
48.2600 32.1430 0.0826
48.2800 32.1563 0.0804
48.3000 32.1696 0.0738
48.3200 32.1830 0.0848
48.3400 32.1963 0.0792
48.3600 32.2097 0.0766
48.3800 32.2230 0.0793
48.4000 32.2364 0.0808
48.4200 32.2498 0.0738
48.4400 32.2631 0.0769
48.4600 32.2764 0.0826
48.4800 32.2898 0.0722
48.5000 32.3031 0.0825
48.5200 32.3165 0.0794
48.5400 32.3297 0.0719
48.5600 32.3430 0.0818
48.5800 32.3564 0.0735
48.6000 32.3697 0.0772
48.6200 32.3830 0.0795
48.6400 32.3963 0.0744
48.6600 32.4097 0.0727
48.6800 32.4230 0.0750
48.7000 32.4363 0.0775
48.7200 32.4497 0.0724
48.7400 32.4631 0.0716
48.7600 32.4764 0.0724
48.7800 32.4898 0.0725
48.8000 32.5031 0.0676
48.8200 32.5164 0.0704
48.8400 32.5298 0.0710
48.8600 32.5431 0.0641
48.8800 32.5564 0.0720
48.9000 32.5697 0.0656
48.9200 32.5830 0.0618
48.9400 32.5964 0.0743
48.9600 32.6097 0.0614
48.9800 32.6230 0.0639
49.0000 32.6363 0.0687
49.0200 32.6497 0.0622
49.0400 32.6630 0.0594
49.0600 32.6764 0.0679
49.0800 32.6897 0.0637
49.1000 32.7031 0.0588
49.1200 32.7164 0.0621
49.1400 32.7298 0.0588
49.1600 32.7431 0.0648
49.1800 32.7564 0.0659
49.2000 32.7697 0.0568
49.2200 32.7831 0.0638
49.2400 32.7964 0.0597
49.2600 32.8097 0.0566
49.2800 32.8230 0.0635
49.3000 32.8364 0.0614
49.3200 32.8497 0.0552
49.3400 32.8630 0.0621
49.3600 32.8763 0.0620
49.3800 32.8896 0.0616
49.4000 32.9030 0.0593
49.4200 32.9164 0.0572
49.4400 32.9297 0.0548
49.4600 32.9431 0.0609
49.4800 32.9564 0.0528
49.5000 32.9698 0.0525
49.5200 32.9831 0.0578
49.5400 32.9964 0.0507
49.5600 33.0097 0.0549
49.5800 33.0231 0.0551
49.6000 33.0364 0.0509
49.6200 33.0497 0.0570
49.6400 33.0630 0.0541
49.6600 33.0764 0.0474
49.6800 33.0897 0.0597
49.7000 33.1030 0.0534
49.7200 33.1163 0.0482
49.7400 33.1297 0.0586
49.7600 33.1430 0.0454
49.7800 33.1563 0.0481
49.8000 33.1697 0.0587
49.8200 33.1830 0.0410
49.8400 33.1964 0.0531
49.8600 33.2098 0.0538
49.8800 33.2231 0.0395
49.9000 33.2364 0.0533
49.9200 33.2498 0.0594
49.9400 33.2631 0.0353
49.9600 33.2765 0.0481
49.9800 33.2898 0.0591
50.0000 33.3031 0.0346
50.0200 33.3164 0.0514
50.0400 33.3297 0.0551
50.0600 33.3430 0.0347
50.0800 33.3564 0.0549
50.1000 33.3697 0.0479
50.1200 33.3830 0.0343
50.1400 33.3964 0.0524
50.1600 33.4097 0.0483
50.1800 33.4230 0.0343
50.2000 33.4364 0.0501
50.2200 33.4497 0.0460
50.2400 33.4631 0.0360
50.2600 33.4764 0.0528
50.2800 33.4897 0.0460
50.3000 33.5031 0.0361
50.3200 33.5164 0.0478
50.3400 33.5297 0.0388
50.3600 33.5430 0.0401
50.3800 33.5564 0.0453
50.4000 33.5697 0.0417
50.4200 33.5830 0.0383
50.4400 33.5963 0.0415
50.4600 33.6096 0.0450
50.4800 33.6230 0.0384
50.5000 33.6363 0.0389
50.5200 33.6496 0.0432
50.5400 33.6630 0.0371
50.5600 33.6764 0.0373
50.5800 33.6898 0.0429
50.6000 33.7032 0.0335
50.6200 33.7165 0.0384
50.6400 33.7298 0.0465
50.6600 33.7431 0.0323
50.6800 33.7564 0.0387
50.7000 33.7697 0.0430
50.7200 33.7830 0.0288
50.7400 33.7963 0.0399
50.7600 33.8097 0.0368
50.7800 33.8230 0.0298
50.8000 33.8363 0.0404
50.8200 33.8497 0.0367
50.8400 33.8631 0.0246
50.8600 33.8764 0.0382
50.8800 33.8897 0.0405
50.9000 33.9031 0.0253
50.9200 33.9164 0.0354
50.9400 33.9298 0.0338
50.9600 33.9431 0.0270
50.9800 33.9564 0.0361
51.0000 33.9697 0.0312
51.0200 33.9830 0.0272
51.0400 33.9964 0.0297
51.0600 34.0097 0.0287
51.0800 34.0230 0.0291
51.1000 34.0364 0.0331
51.1200 34.0497 0.0278
51.1400 34.0630 0.0242
51.1600 34.0763 0.0281
51.1800 34.0896 0.0311
51.2000 34.1030 0.0227
51.2200 34.1164 0.0247
51.2400 34.1297 0.0323
51.2600 34.1431 0.0221
51.2800 34.1564 0.0239
51.3000 34.1698 0.0284
51.3200 34.1831 0.0239
51.3400 34.1964 0.0216
51.3600 34.2097 0.0325
51.3800 34.2231 0.0206
51.4000 34.2365 0.0210
51.4200 34.2498 0.0304
51.4400 34.2631 0.0168
51.4600 34.2764 0.0226
51.4800 34.2897 0.0302
51.5000 34.3031 0.0136
51.5200 34.3163 0.0218
51.5400 34.3296 0.0318
51.5600 34.3430 0.0140
51.5800 34.3564 0.0210
51.6000 34.3697 0.0285
51.6200 34.3830 0.0147
51.6400 34.3964 0.0251
51.6600 34.4098 0.0220
51.6800 34.4231 0.0113
51.7000 34.4365 0.0201
51.7200 34.4498 0.0238
51.7400 34.4631 0.0153
51.7600 34.4764 0.0177
51.7800 34.4897 0.0192
51.8000 34.5030 0.0112
51.8200 34.5163 0.0185
51.8400 34.5297 0.0204
51.8600 34.5430 0.0128
51.8800 34.5563 0.0186
51.9000 34.5697 0.0148
51.9200 34.5830 0.0128
51.9400 34.5964 0.0148
51.9600 34.6097 0.0125
51.9800 34.6230 0.0176
52.0000 34.6363 0.0132
52.0200 34.6497 0.0088
52.0400 34.6631 0.0119
52.0600 34.6764 0.0122
52.0800 34.6897 0.0090
52.1000 34.7031 0.0140
52.1200 34.7165 0.0106
52.1400 34.7298 0.0094
52.1600 34.7431 0.0115
52.1800 34.7564 0.0084
52.2000 34.7697 0.0091
52.2200 34.7830 0.0128
52.2400 34.7963 0.0094
52.2600 34.8096 0.0085
52.2800 34.8230 0.0102
52.3000 34.8363 0.0071
52.3200 34.8497 0.0037
52.3400 34.8630 0.0120
52.3600 34.8764 -0.0004
52.3800 34.8898 0.0083
52.4000 34.9031 0.0081
52.4200 34.9164 -0.0022
52.4400 34.9297 0.0092
52.4600 34.9431 0.0062
52.4800 34.9564 -0.0028
52.5000 34.9698 0.0070
52.5200 34.9831 0.0068
52.5400 34.9964 -0.0015
52.5600 35.0097 0.0059
52.5800 35.0231 0.0037
52.6000 35.0363 -0.0048
52.6200 35.0496 0.0069
52.6400 35.0630 0.0018
52.6600 35.0763 -0.0044
52.6800 35.0897 0.0085
52.7000 35.1030 0.0003
52.7200 35.1164 -0.0014
52.7400 35.1298 0.0040
52.7600 35.1431 -0.0023
52.7800 35.1564 -0.0010
52.8000 35.1698 0.0018
52.8200 35.1831 -0.0026
52.8400 35.1964 -0.0017
52.8600 35.2097 -0.0027
52.8800 35.2230 -0.0028
52.9000 35.2363 0.0000
52.9200 35.2497 -0.0060
52.9400 35.2630 -0.0087
52.9600 35.2763 0.0015
52.9800 35.2897 -0.0126
53.0000 35.3030 -0.0031
53.0200 35.3164 -0.0049
53.0400 35.3298 -0.0134
53.0600 35.3431 -0.0029
53.0800 35.3564 -0.0049
53.1000 35.3698 -0.0152
53.1200 35.3831 -0.0038
53.1400 35.3964 -0.0063
53.1600 35.4097 -0.0144
53.1800 35.4230 -0.0022
53.2000 35.4364 -0.0098
53.2200 35.4497 -0.0167
53.2400 35.4631 -0.0025
53.2600 35.4764 -0.0106
53.2800 35.4898 -0.0141
53.3000 35.5031 -0.0081
53.3200 35.5164 -0.0133
53.3400 35.5297 -0.0132
53.3600 35.5430 -0.0077
53.3800 35.5563 -0.0160
53.4000 35.5697 -0.0155
53.4200 35.5830 -0.0107
53.4400 35.5963 -0.0112
53.4600 35.6097 -0.0173
53.4800 35.6231 -0.0155
53.5000 35.6364 -0.0124
53.5200 35.6497 -0.0187
53.5400 35.6631 -0.0142
53.5600 35.6764 -0.0126
53.5800 35.6898 -0.0224
53.6000 35.7031 -0.0177
53.6200 35.7164 -0.0112
53.6400 35.7298 -0.0215
53.6600 35.7431 -0.0145
53.6800 35.7564 -0.0141
53.7000 35.7697 -0.0270
53.7200 35.7830 -0.0167
53.7400 35.7963 -0.0129
53.7600 35.8097 -0.0272
53.7800 35.8230 -0.0193
53.8000 35.8364 -0.0174
53.8200 35.8497 -0.0278
53.8400 35.8631 -0.0196
53.8600 35.8764 -0.0192
53.8800 35.8898 -0.0313
53.9000 35.9031 -0.0178
53.9200 35.9165 -0.0208
53.9400 35.9298 -0.0283
53.9600 35.9430 -0.0164
53.9800 35.9564 -0.0233
54.0000 35.9697 -0.0349
54.0200 35.9830 -0.0194
54.0400 35.9964 -0.0236
54.0600 36.0097 -0.0308
54.0800 36.0230 -0.0203
54.1000 36.0364 -0.0288
54.1200 36.0497 -0.0371
54.1400 36.0630 -0.0195
54.1600 36.0764 -0.0285
54.1800 36.0897 -0.0372
54.2000 36.1031 -0.0242
54.2200 36.1164 -0.0283
54.2400 36.1297 -0.0392
54.2600 36.1431 -0.0200
54.2800 36.1565 -0.0317
54.3000 36.1698 -0.0345
54.3200 36.1831 -0.0254
54.3400 36.1964 -0.0305
54.3600 36.2097 -0.0377
54.3800 36.2231 -0.0325
54.4000 36.2364 -0.0291
54.4200 36.2497 -0.0391
54.4400 36.2630 -0.0316
54.4600 36.2763 -0.0332
54.4800 36.2897 -0.0379
54.5000 36.3030 -0.0301
54.5200 36.3164 -0.0332
54.5400 36.3298 -0.0407
54.5600 36.3431 -0.0327
54.5800 36.3565 -0.0355
54.6000 36.3698 -0.0369
54.6200 36.3831 -0.0389
54.6400 36.3964 -0.0361
54.6600 36.4098 -0.0395
54.6800 36.4230 -0.0358
54.7000 36.4364 -0.0357
54.7200 36.4497 -0.0424
54.7400 36.4630 -0.0382
54.7600 36.4764 -0.0387
54.7800 36.4897 -0.0392
54.8000 36.5030 -0.0355
54.8200 36.5164 -0.0371
54.8400 36.5297 -0.0454
54.8600 36.5430 -0.0418
54.8800 36.5564 -0.0343
54.9000 36.5697 -0.0488
54.9200 36.5831 -0.0441
54.9400 36.5964 -0.0419
54.9600 36.6097 -0.0492
54.9800 36.6231 -0.0417
55.0000 36.6364 -0.0416
55.0200 36.6498 -0.0504
55.0400 36.6631 -0.0420
55.0600 36.6763 -0.0415
55.0800 36.6897 -0.0552
55.1000 36.7030 -0.0419
55.1200 36.7163 -0.0404
55.1400 36.7296 -0.0574
55.1600 36.7430 -0.0392
55.1800 36.7563 -0.0441
55.2000 36.7697 -0.0649
55.2200 36.7830 -0.0362
55.2400 36.7964 -0.0491
55.2600 36.8097 -0.0596
55.2800 36.8230 -0.0388
55.3000 36.8364 -0.0524
55.3200 36.8497 -0.0600
55.3400 36.8630 -0.0408
55.3600 36.8764 -0.0544
55.3800 36.8898 -0.0604
55.4000 36.9031 -0.0430
55.4200 36.9164 -0.0562
55.4400 36.9298 -0.0590
55.4600 36.9431 -0.0437
55.4800 36.9564 -0.0631
55.5000 36.9697 -0.0570
55.5200 36.9830 -0.0455
55.5400 36.9963 -0.0625
55.5600 37.0096 -0.0600
55.5800 37.0230 -0.0517
55.6000 37.0363 -0.0645
55.6200 37.0497 -0.0593
55.6400 37.0631 -0.0538
55.6600 37.0765 -0.0638
55.6800 37.0898 -0.0550
55.7000 37.1031 -0.0581
55.7200 37.1164 -0.0631
55.7400 37.1298 -0.0569
55.7600 37.1431 -0.0627
55.7800 37.1564 -0.0643
55.8000 37.1697 -0.0580
55.8200 37.1831 -0.0632
55.8400 37.1964 -0.0615
55.8600 37.2097 -0.0655
55.8800 37.2230 -0.0604
55.9000 37.2363 -0.0643
55.9200 37.2497 -0.0668
55.9400 37.2630 -0.0650
55.9600 37.2764 -0.0644
55.9800 37.2897 -0.0717
56.0000 37.3031 -0.0644
56.0200 37.3164 -0.0645
56.0400 37.3298 -0.0682
56.0600 37.3431 -0.0652
56.0800 37.3565 -0.0675
56.1000 37.3698 -0.0713
56.1200 37.3831 -0.0661
56.1400 37.3964 -0.0674
56.1600 37.4097 -0.0670
56.1800 37.4231 -0.0691
56.2000 37.4364 -0.0725
56.2200 37.4497 -0.0658
56.2400 37.4630 -0.0664
56.2600 37.4763 -0.0775
56.2800 37.4897 -0.0664
56.3000 37.5030 -0.0693
56.3200 37.5164 -0.0782
56.3400 37.5297 -0.0640
56.3600 37.5431 -0.0714
56.3800 37.5564 -0.0825
56.4000 37.5697 -0.0638
56.4200 37.5831 -0.0682
56.4400 37.5964 -0.0811
56.4600 37.6098 -0.0644
56.4800 37.6231 -0.0740
56.5000 37.6364 -0.0788
56.5200 37.6497 -0.0654
56.5400 37.6631 -0.0771
56.5600 37.6764 -0.0797
56.5800 37.6897 -0.0683
56.6000 37.7030 -0.0790
56.6200 37.7163 -0.0808
56.6400 37.7297 -0.0697
56.6600 37.7430 -0.0766
56.6800 37.7564 -0.0853
56.7000 37.7697 -0.0773
56.7200 37.7831 -0.0804
56.7400 37.7964 -0.0829
56.7600 37.8098 -0.0799
56.7800 37.8231 -0.0778
56.8000 37.8364 -0.0884
56.8200 37.8498 -0.0780
56.8400 37.8631 -0.0770
56.8600 37.8764 -0.0824
56.8800 37.8897 -0.0808
56.9000 37.9030 -0.0816
56.9200 37.9164 -0.0930
56.9400 37.9297 -0.0804
56.9600 37.9430 -0.0836
56.9800 37.9563 -0.0950
57.0000 37.9697 -0.0789
57.0200 37.9830 -0.0905
57.0400 37.9963 -0.0878
57.0600 38.0097 -0.0796
57.0800 38.0231 -0.0937
57.1000 38.0364 -0.0881
57.1200 38.0498 -0.0869
57.1400 38.0631 -0.0911
57.1600 38.0764 -0.0892
57.1800 38.0898 -0.0886
57.2000 38.1031 -0.0905
57.2200 38.1164 -0.0930
57.2400 38.1297 -0.0886
57.2600 38.1431 -0.0931
57.2800 38.1564 -0.0923
57.3000 38.1697 -0.0932
57.3200 38.1830 -0.0939
57.3400 38.1963 -0.0946
57.3600 38.2097 -0.0980
57.3800 38.2230 -0.0946
57.4000 38.2363 -0.0972
57.4200 38.2497 -0.0913
57.4400 38.2631 -0.0979
57.4600 38.2764 -0.0990
57.4800 38.2897 -0.0922
57.5000 38.3031 -0.0995
57.5200 38.3164 -0.0942
57.5400 38.3298 -0.0928
57.5600 38.3431 -0.1023
57.5800 38.3564 -0.0955
57.6000 38.3697 -0.0936
57.6200 38.3831 -0.1042
57.6400 38.3964 -0.0984
57.6600 38.4097 -0.0924
57.6800 38.4230 -0.1034
57.7000 38.4363 -0.1000
57.7200 38.4496 -0.0960
57.7400 38.4630 -0.1052
57.7600 38.4763 -0.1008
57.7800 38.4897 -0.0949
57.8000 38.5031 -0.1062
57.8200 38.5165 -0.1022
57.8400 38.5298 -0.0981
57.8600 38.5431 -0.1050
57.8800 38.5565 -0.1062
57.9000 38.5698 -0.1007
57.9200 38.5831 -0.1087
57.9400 38.5964 -0.1060
57.9600 38.6096 -0.0998
57.9800 38.6230 -0.1090
58.0000 38.6363 -0.1085
58.0200 38.6497 -0.1058
58.0400 38.6630 -0.1102
58.0600 38.6764 -0.1088
58.0800 38.6897 -0.1069
58.1000 38.7031 -0.1117
58.1200 38.7164 -0.1116
58.1400 38.7298 -0.1044
58.1600 38.7431 -0.1151
58.1800 38.7565 -0.1121
58.2000 38.7698 -0.1084
58.2200 38.7831 -0.1090
58.2400 38.7964 -0.1125
58.2600 38.8097 -0.1119
58.2800 38.8231 -0.1097
58.3000 38.8364 -0.1103
58.3200 38.8497 -0.1145
58.3400 38.8631 -0.1107
58.3600 38.8764 -0.1158
58.3800 38.8897 -0.1168
58.4000 38.9030 -0.1128
58.4200 38.9163 -0.1161
58.4400 38.9297 -0.1158
58.4600 38.9431 -0.1162
58.4800 38.9564 -0.1189
58.5000 38.9698 -0.1145
58.5200 38.9831 -0.1160
58.5400 38.9965 -0.1270
58.5600 39.0098 -0.1169
58.5800 39.0231 -0.1179
58.6000 39.0364 -0.1269
58.6200 39.0498 -0.1194
58.6400 39.0631 -0.1226
58.6600 39.0764 -0.1274
58.6800 39.0897 -0.1212
58.7000 39.1030 -0.1254
58.7200 39.1164 -0.1147
58.7400 39.1297 -0.0988
58.7600 39.1430 -0.0937
58.7800 39.1563 -0.0907
58.8000 39.1697 -0.0828
58.8200 39.1830 -0.0900
58.8400 39.1964 -0.0851
58.8600 39.2097 -0.0809
58.8800 39.2231 -0.0894
58.9000 39.2364 -0.0836
58.9200 39.2498 -0.0779
58.9400 39.2631 -0.0885
58.9600 39.2764 -0.0761
58.9800 39.2898 -0.0778
59.0000 39.3031 -0.0850
59.0200 39.3164 -0.0754
59.0400 39.3297 -0.0739
59.0600 39.3430 -0.0813
59.0800 39.3564 -0.0786
59.1000 39.3697 -0.0744
59.1200 39.3830 -0.0781
59.1400 39.3963 -0.0755
59.1600 39.4097 -0.0692
59.1800 39.4230 -0.0807
59.2000 39.4364 -0.0731
59.2200 39.4497 -0.0673
59.2400 39.4630 -0.0740
59.2600 39.4764 -0.0757
59.2800 39.4897 -0.0685
59.3000 39.5031 -0.0717
59.3200 39.5164 -0.0739
59.3400 39.5298 -0.0636
59.3600 39.5431 -0.0727
59.3800 39.5564 -0.0694
59.4000 39.5697 -0.0630
59.4200 39.5830 -0.0745
59.4400 39.5964 -0.0667
59.4600 39.6097 -0.0692
59.4800 39.6230 -0.0693
59.5000 39.6363 -0.0651
59.5200 39.6497 -0.0713
59.5400 39.6630 -0.0701
59.5600 39.6763 -0.0676
59.5800 39.6897 -0.0654
59.6000 39.7031 -0.0753
59.6200 39.7165 -0.0694
59.6400 39.7298 -0.0725
59.6600 39.7431 -0.0747
59.6800 39.7564 -0.0688
59.7000 39.7698 -0.0735
59.7200 39.7831 -0.0784
59.7400 39.7964 -0.0706
59.7600 39.8097 -0.0747
59.7800 39.8230 -0.0776
59.8000 39.8364 -0.0737
59.8200 39.8497 -0.0769
59.8400 39.8630 -0.0820
59.8600 39.8763 -0.0725
59.8800 39.8897 -0.0806
59.9000 39.9030 -0.0778
59.9200 39.9163 -0.0708
59.9400 39.9297 -0.0859
59.9600 39.9431 -0.0756
59.9800 39.9565 -0.0737
60.0000 39.9698 -0.0831
60.0200 39.9831 -0.0736
60.0400 39.9964 -0.0820
60.0460 40.0003 -0.0981
