Raw Data
Time Displacement Force
(s) (mm) (N)
0.0000 0.0000 0.0789
0.0200 0.0001 0.0966
0.0400 0.0022 0.1498
0.0600 0.0101 0.1533
0.0800 0.0220 0.0730
0.1000 0.0344 0.0650
0.1200 0.0471 0.1107
0.1400 0.0606 0.0879
0.1600 0.0747 0.0757
0.1800 0.0888 0.0875
0.2000 0.1028 0.0779
0.2200 0.1163 0.0718
0.2400 0.1297 0.0941
0.2600 0.1430 0.0856
0.2800 0.1563 0.0788
0.3000 0.1697 0.0942
0.3200 0.1831 0.0836
0.3400 0.1964 0.0827
0.3600 0.2097 0.0948
0.3800 0.2231 0.0867
0.4000 0.2364 0.0835
0.4200 0.2497 0.0927
0.4400 0.2630 0.0853
0.4600 0.2764 0.0792
0.4800 0.2897 0.0898
0.5000 0.3031 0.0861
0.5200 0.3164 0.0768
0.5400 0.3297 0.0932
0.5600 0.3430 0.0865
0.5800 0.3564 0.0801
0.6000 0.3698 0.0898
0.6200 0.3831 0.0860
0.6400 0.3964 0.0842
0.6600 0.4098 0.0908
0.6800 0.4231 0.0891
0.7000 0.4365 0.0794
0.7200 0.4498 0.0883
0.7400 0.4631 0.0883
0.7600 0.4765 0.0780
0.7800 0.4898 0.0886
0.8000 0.5031 0.0837
0.8200 0.5164 0.0836
0.8400 0.5297 0.0915
0.8600 0.5431 0.0840
0.8800 0.5564 0.0809
0.9000 0.5696 0.0912
0.9200 0.5830 0.0838
0.9400 0.5963 0.0815
0.9600 0.6097 0.0862
0.9800 0.6230 0.0842
1.0000 0.6364 0.0847
1.0200 0.6498 0.0861
1.0400 0.6631 0.0827
1.0600 0.6765 0.0825
1.0800 0.6898 0.0793
1.1000 0.7031 0.0845
1.1200 0.7165 0.0839
1.1400 0.7298 0.0756
1.1600 0.7431 0.0909
1.1800 0.7564 0.0823
1.2000 0.7697 0.0767
1.2200 0.7831 0.0895
1.2400 0.7964 0.0778
1.2600 0.8097 0.0809
1.2800 0.8230 0.0876
1.3000 0.8364 0.0759
1.3200 0.8497 0.0775
1.3400 0.8630 0.0909
1.3600 0.8764 0.0741
1.3800 0.8897 0.0814
1.4000 0.9031 0.0944
1.4200 0.9164 0.0708
1.4400 0.9298 0.0849
1.4600 0.9431 0.0921
1.4800 0.9565 0.0776
1.5000 0.9698 0.0814
1.5200 0.9831 0.0856
1.5400 0.9964 0.0815
1.5600 1.0097 0.0825
1.5800 1.0231 0.0846
1.6000 1.0364 0.0817
1.6200 1.0497 0.0827
1.6400 1.0630 0.0853
1.6600 1.0764 0.0783
1.6800 1.0897 0.0812
1.7000 1.1030 0.0838
1.7200 1.1164 0.0841
1.7400 1.1298 0.0796
1.7600 1.1432 0.0822
1.7800 1.1565 0.0779
1.8000 1.1698 0.0827
1.8200 1.1831 0.0856
1.8400 1.1965 0.0779
1.8600 1.2098 0.0794
1.8800 1.2231 0.0839
1.9000 1.2364 0.0798
1.9200 1.2497 0.0848
1.9400 1.2631 0.0800
1.9600 1.2764 0.0796
1.9800 1.2897 0.0787
2.0000 1.3030 0.0834
2.0200 1.3164 0.0827
2.0400 1.3297 0.0785
2.0600 1.3430 0.0881
2.0800 1.3564 0.0821
2.1000 1.3698 0.0806
2.1200 1.3832 0.0840
2.1400 1.3965 0.0813
2.1600 1.4098 0.0835
2.1800 1.4231 0.0867
2.2000 1.4365 0.0814
2.2200 1.4498 0.0808
2.2400 1.4631 0.0850
2.2600 1.4764 0.0839
2.2800 1.4897 0.0862
2.3000 1.5030 0.0826
2.3200 1.5164 0.0823
2.3400 1.5297 0.0844
2.3600 1.5431 0.0794
2.3800 1.5564 0.0848
2.4000 1.5698 0.0820
2.4200 1.5831 0.0777
2.4400 1.5964 0.0851
2.4600 1.6098 0.0787
2.4800 1.6231 0.0778
2.5000 1.6364 0.0850
2.5200 1.6497 0.0779
2.5400 1.6630 0.0772
2.5600 1.6764 0.0865
2.5800 1.6898 0.0749
2.6000 1.7031 0.0740
2.6200 1.7165 0.0902
2.6400 1.7298 0.0709
2.6600 1.7431 0.0770
2.6800 1.7564 0.0843
2.7000 1.7697 0.0775
2.7200 1.7830 0.0809
2.7400 1.7964 0.0851
2.7600 1.8097 0.0730
2.7800 1.8230 0.0736
2.8000 1.8364 0.0849
2.8200 1.8497 0.0782
2.8400 1.8631 0.0755
2.8600 1.8764 0.0822
2.8800 1.8898 0.0735
2.9000 1.9031 0.0758
2.9200 1.9165 0.0825
2.9400 1.9298 0.0744
2.9600 1.9431 0.0802
2.9800 1.9564 0.0787
3.0000 1.9698 0.0767
3.0200 1.9831 0.0816
3.0400 1.9964 0.0836
3.0600 2.0097 0.0767
3.0800 2.0230 0.0790
3.1000 2.0364 0.0800
3.1200 2.0497 0.0772
3.1400 2.0630 0.0760
3.1600 2.0764 0.0782
3.1800 2.0898 0.0767
3.2000 2.1031 0.0762
3.2200 2.1165 0.0763
3.2400 2.1298 0.0781
3.2600 2.1431 0.0776
3.2800 2.1565 0.0737
3.3000 2.1698 0.0767
3.3200 2.1831 0.0760
3.3400 2.1964 0.0763
3.3600 2.2097 0.0801
3.3800 2.2231 0.0721
3.4000 2.2364 0.0751
3.4200 2.2497 0.0776
3.4400 2.2630 0.0713
3.4600 2.2764 0.0800
3.4800 2.2898 0.0732
3.5000 2.3031 0.0684
3.5200 2.3164 0.0788
3.5400 2.3297 0.0744
3.5600 2.3431 0.0712
3.5800 2.3564 0.0806
3.6000 2.3698 0.0715
3.6200 2.3831 0.0637
3.6400 2.3965 0.0835
3.6600 2.4098 0.0694
3.6800 2.4232 0.0665
3.7000 2.4364 0.0818
3.7200 2.4497 0.0696
3.7400 2.4631 0.0751
3.7600 2.4764 0.0770
3.7800 2.4897 0.0736
3.8000 2.5030 0.0741
3.8200 2.5163 0.0783
3.8400 2.5297 0.0746
3.8600 2.5430 0.0735
3.8800 2.5564 0.0758
3.9000 2.5697 0.0716
3.9200 2.5831 0.0726
3.9400 2.5965 0.0759
3.9600 2.6098 0.0697
3.9800 2.6231 0.0777
4.0000 2.6364 0.0818
4.0200 2.6498 0.0672
4.0400 2.6631 0.0748
4.0600 2.6764 0.0796
4.0800 2.6897 0.0694
4.1000 2.7031 0.0777
4.1200 2.7164 0.0787
4.1400 2.7297 0.0698
4.1600 2.7430 0.0765
4.1800 2.7564 0.0774
4.2000 2.7697 0.0690
4.2200 2.7830 0.0792
4.2400 2.7964 0.0728
4.2600 2.8097 0.0723
4.2800 2.8231 0.0743
4.3000 2.8365 0.0696
4.3200 2.8498 0.0734
4.3400 2.8631 0.0686
4.3600 2.8765 0.0720
4.3800 2.8898 0.0719
4.4000 2.9031 0.0691
4.4200 2.9164 0.0744
4.4400 2.9297 0.0720
4.4600 2.9431 0.0730
4.4800 2.9564 0.0711
4.5000 2.9697 0.0722
4.5200 2.9830 0.0707
4.5400 2.9964 0.0734
4.5600 3.0097 0.0725
4.5800 3.0231 0.0667
4.6000 3.0364 0.0748
4.6200 3.0497 0.0667
4.6400 3.0631 0.0748
4.6600 3.0764 0.0709
4.6800 3.0897 0.0683
4.7000 3.1030 0.0697
4.7200 3.1164 0.0687
4.7400 3.1298 0.0678
4.7600 3.1431 0.0723
4.7800 3.1565 0.0683
4.8000 3.1698 0.0688
4.8200 3.1831 0.0750
4.8400 3.1965 0.0640
4.8600 3.2098 0.0665
4.8800 3.2230 0.0794
4.9000 3.2363 0.0639
4.9200 3.2497 0.0692
4.9400 3.2630 0.0743
4.9600 3.2764 0.0640
4.9800 3.2897 0.0760
5.0000 3.3031 0.0729
5.0200 3.3165 0.0639
5.0400 3.3298 0.0771
5.0600 3.3432 0.0717
5.0800 3.3565 0.0620
5.1000 3.3698 0.0782
5.1200 3.3831 0.0746
5.1400 3.3964 0.0600
5.1600 3.4097 0.0814
5.1800 3.4231 0.0747
5.2000 3.4364 0.0613
5.2200 3.4497 0.0778
5.2400 3.4630 0.0710
5.2600 3.4763 0.0595
5.2800 3.4897 0.0773
5.3000 3.5030 0.0715
5.3200 3.5164 0.0590
5.3400 3.5297 0.0766
5.3600 3.5431 0.0680
5.3800 3.5565 0.0613
5.4000 3.5698 0.0770
5.4200 3.5831 0.0654
5.4400 3.5965 0.0623
5.4600 3.6098 0.0772
5.4800 3.6231 0.0619
5.5000 3.6364 0.0630
5.5200 3.6497 0.0737
5.5400 3.6631 0.0644
5.5600 3.6764 0.0622
5.5800 3.6897 0.0701
5.6000 3.7030 0.0666
5.6200 3.7164 0.0653
5.6400 3.7297 0.0655
5.6600 3.7431 0.0660
5.6800 3.7564 0.0613
5.7000 3.7697 0.0648
5.7200 3.7831 0.0669
5.7400 3.7965 0.0629
5.7600 3.8098 0.0654
5.7800 3.8231 0.0687
5.8000 3.8364 0.0596
5.8200 3.8498 0.0631
5.8400 3.8631 0.0658
5.8600 3.8765 0.0608
5.8800 3.8898 0.0639
5.9000 3.9031 0.0680
5.9200 3.9165 0.0570
5.9400 3.9298 0.0634
5.9600 3.9430 0.0688
5.9800 3.9564 0.0655
6.0000 3.9697 0.0680
6.0200 3.9831 0.0629
6.0400 3.9964 0.0636
6.0600 4.0097 0.0631
6.0800 4.0231 0.0687
6.1000 4.0365 0.0601
6.1200 4.0498 0.0648
6.1400 4.0631 0.0680
6.1600 4.0765 0.0575
6.1800 4.0898 0.0669
6.2000 4.1031 0.0726
6.2200 4.1164 0.0600
6.2400 4.1297 0.0643
6.2600 4.1431 0.0750
6.2800 4.1564 0.0559
6.3000 4.1698 0.0662
6.3200 4.1831 0.0762
6.3400 4.1964 0.0568
6.3600 4.2097 0.0676
6.3800 4.2231 0.0660
6.4000 4.2364 0.0533
6.4200 4.2497 0.0732
6.4400 4.2631 0.0696
6.4600 4.2764 0.0491
6.4800 4.2898 0.0727
6.5000 4.3031 0.0648
6.5200 4.3164 0.0527
6.5400 4.3298 0.0699
6.5600 4.3432 0.0659
6.5800 4.3565 0.0556
6.6000 4.3698 0.0692
6.6200 4.3831 0.0645
6.6400 4.3964 0.0586
6.6600 4.4098 0.0668
6.6800 4.4231 0.0665
6.7000 4.4364 0.0587
6.7200 4.4497 0.0610
6.7400 4.4630 0.0676
6.7600 4.4764 0.0564
6.7800 4.4897 0.0606
6.8000 4.5031 0.0709
6.8200 4.5164 0.0523
6.8400 4.5298 0.0586
6.8600 4.5431 0.0735
6.8800 4.5564 0.0556
6.9000 4.5698 0.0600
6.9200 4.5831 0.0731
6.9400 4.5964 0.0520
6.9600 4.6098 0.0551
6.9800 4.6231 0.0738
7.0000 4.6364 0.0480
7.0200 4.6497 0.0599
7.0400 4.6630 0.0730
7.0600 4.6763 0.0506
7.0800 4.6896 0.0600
7.1000 4.7030 0.0688
7.1200 4.7163 0.0554
7.1400 4.7297 0.0602
7.1600 4.7431 0.0672
7.1800 4.7565 0.0475
7.2000 4.7699 0.0596
7.2200 4.7832 0.0665
7.2400 4.7965 0.0500
7.2600 4.8098 0.0636
7.2800 4.8232 0.0609
7.3000 4.8364 0.0426
7.3200 4.8497 0.0666
7.3400 4.8630 0.0650
7.3600 4.8764 0.0502
7.3800 4.8897 0.0633
7.4000 4.9030 0.0613
7.4200 4.9164 0.0474
7.4400 4.9297 0.0649
7.4600 4.9431 0.0621
7.4800 4.9564 0.0500
7.5000 4.9698 0.0676
7.5200 4.9831 0.0614
7.5400 4.9965 0.0494
7.5600 5.0098 0.0666
7.5800 5.0231 0.0606
7.6000 5.0365 0.0505
7.6200 5.0498 0.0664
7.6400 5.0631 0.0589
7.6600 5.0764 0.0521
7.6800 5.0897 0.0688
7.7000 5.1030 0.0577
7.7200 5.1164 0.0519
7.7400 5.1297 0.0651
7.7600 5.1431 0.0632
7.7800 5.1564 0.0546
7.8000 5.1697 0.0635
7.8200 5.1831 0.0572
7.8400 5.1964 0.0567
7.8600 5.2097 0.0645
7.8800 5.2231 0.0551
7.9000 5.2365 0.0546
7.9200 5.2498 0.0624
7.9400 5.2631 0.0542
7.9600 5.2764 0.0618
7.9800 5.2898 0.0632
8.0000 5.3031 0.0588
8.0200 5.3165 0.0619
8.0400 5.3298 0.0628
8.0600 5.3431 0.0596
8.0800 5.3564 0.0638
8.1000 5.3698 0.0574
8.1200 5.3830 0.0610
8.1400 5.3964 0.0616
8.1600 5.4097 0.0626
8.1800 5.4231 0.0581
8.2000 5.4364 0.0581
8.2200 5.4497 0.0619
8.2400 5.4631 0.0607
8.2600 5.4765 0.0607
8.2800 5.4898 0.0566
8.3000 5.5031 0.0583
8.3200 5.5165 0.0575
8.3400 5.5298 0.0586
8.3600 5.5431 0.0573
8.3800 5.5564 0.0550
8.4000 5.5697 0.0588
8.4200 5.5831 0.0586
8.4400 5.5964 0.0601
8.4600 5.6098 0.0632
8.4800 5.6231 0.0608
8.5000 5.6364 0.0573
8.5200 5.6497 0.0566
8.5400 5.6631 0.0595
8.5600 5.6764 0.0577
8.5800 5.6897 0.0563
8.6000 5.7031 0.0593
8.6200 5.7165 0.0597
8.6400 5.7298 0.0562
8.6600 5.7431 0.0561
8.6800 5.7564 0.0637
8.7000 5.7698 0.0627
8.7200 5.7832 0.0510
8.7400 5.7965 0.0619
8.7600 5.8098 0.0605
8.7800 5.8231 0.0532
8.8000 5.8364 0.0603
8.8200 5.8497 0.0568
8.8400 5.8630 0.0511
8.8600 5.8763 0.0666
8.8800 5.8897 0.0578
8.9000 5.9030 0.0539
8.9200 5.9164 0.0663
8.9400 5.9297 0.0530
8.9600 5.9431 0.0487
8.9800 5.9565 0.0620
9.0000 5.9698 0.0503
9.0200 5.9831 0.0474
9.0400 5.9964 0.0627
9.0600 6.0098 0.0507
9.0800 6.0231 0.0480
9.1000 6.0365 0.0628
9.1200 6.0497 0.0473
9.1400 6.0630 0.0559
9.1600 6.0764 0.0589
9.1800 6.0897 0.0441
9.2000 6.1030 0.0574
9.2200 6.1163 0.0533
9.2400 6.1297 0.0470
9.2600 6.1430 0.0541
9.2800 6.1564 0.0505
9.3000 6.1697 0.0510
9.3200 6.1831 0.0518
9.3400 6.1965 0.0477
9.3600 6.2098 0.0511
9.3800 6.2232 0.0513
9.4000 6.2365 0.0465
9.4200 6.2498 0.0494
9.4400 6.2631 0.0526
9.4600 6.2764 0.0474
9.4800 6.2897 0.0522
9.5000 6.3030 0.0480
9.5200 6.3164 0.0507
9.5400 6.3297 0.0482
9.5600 6.3430 0.0491
9.5800 6.3564 0.0548
9.6000 6.3697 0.0473
9.6200 6.3831 0.0518
9.6400 6.3965 0.0553
9.6600 6.4098 0.0465
9.6800 6.4231 0.0483
9.7000 6.4365 0.0557
9.7200 6.4498 0.0488
9.7400 6.4631 0.0411
9.7600 6.4764 0.0561
9.7800 6.4898 0.0445
9.8000 6.5031 0.0499
9.8200 6.5165 0.0597
9.8400 6.5298 0.0421
9.8600 6.5431 0.0509
9.8800 6.5564 0.0558
9.9000 6.5698 0.0400
9.9200 6.5831 0.0491
9.9400 6.5964 0.0562
9.9600 6.6097 0.0430
9.9800 6.6231 0.0473
10.0000 6.6364 0.0556
10.0200 6.6497 0.0425
10.0400 6.6630 0.0501
10.0600 6.6764 0.0529
10.0800 6.6898 0.0384
10.1000 6.7031 0.0481
10.1200 6.7164 0.0491
10.1400 6.7298 0.0444
10.1600 6.7431 0.0460
10.1800 6.7565 0.0460
10.2000 6.7698 0.0485
10.2200 6.7831 0.0481
10.2400 6.7964 0.0449
10.2600 6.8098 0.0483
10.2800 6.8231 0.0472
10.3000 6.8364 0.0468
10.3200 6.8497 0.0520
10.3400 6.8631 0.0443
10.3600 6.8764 0.0404
10.3800 6.8897 0.0509
10.4000 6.9031 0.0471
10.4200 6.9164 0.0517
10.4400 6.9298 0.0491
10.4600 6.9431 0.0457
10.4800 6.9565 0.0530
10.5000 6.9698 0.0520
10.5200 6.9831 0.0452
10.5400 6.9965 0.0508
10.5600 7.0097 0.0485
10.5800 7.0231 0.0413
10.6000 7.0364 0.0512
10.6200 7.0497 0.0484
10.6400 7.0631 0.0436
10.6600 7.0764 0.0562
10.6800 7.0897 0.0455
10.7000 7.1031 0.0398
10.7200 7.1164 0.0626
10.7400 7.1297 0.0392
10.7600 7.1431 0.0416
10.7800 7.1564 0.0601
10.8000 7.1698 0.0321
10.8200 7.1831 0.0371
10.8400 7.1964 0.0585
10.8600 7.2098 0.0367
10.8800 7.2231 0.0407
10.9000 7.2365 0.0520
10.9200 7.2498 0.0393
10.9400 7.2631 0.0409
10.9600 7.2764 0.0568
10.9800 7.2898 0.0310
11.0000 7.3031 0.0380
11.0200 7.3164 0.0513
11.0400 7.3297 0.0338
11.0600 7.3430 0.0421
11.0800 7.3564 0.0472
11.1000 7.3697 0.0347
11.1200 7.3831 0.0437
11.1400 7.3965 0.0459
11.1600 7.4098 0.0370
11.1800 7.4232 0.0379
11.2000 7.4364 0.0472
11.2200 7.4498 0.0343
11.2400 7.4631 0.0379
11.2600 7.4765 0.0426
11.2800 7.4898 0.0295
11.3000 7.5031 0.0388
11.3200 7.5164 0.0454
11.3400 7.5298 0.0317
11.3600 7.5431 0.0372
11.3800 7.5564 0.0442
11.4000 7.5697 0.0402
11.4200 7.5831 0.0358
11.4400 7.5964 0.0436
11.4600 7.6097 0.0367
11.4800 7.6231 0.0408
11.5000 7.6364 0.0417
11.5200 7.6498 0.0321
11.5400 7.6631 0.0425
11.5600 7.6765 0.0431
11.5800 7.6898 0.0360
11.6000 7.7031 0.0422
11.6200 7.7165 0.0376
11.6400 7.7298 0.0388
11.6600 7.7431 0.0386
11.6800 7.7564 0.0425
11.7000 7.7697 0.0382
11.7200 7.7831 0.0367
11.7400 7.7964 0.0413
11.7600 7.8097 0.0372
11.7800 7.8230 0.0365
11.8000 7.8364 0.0394
11.8200 7.8497 0.0401
11.8400 7.8630 0.0381
11.8600 7.8764 0.0424
11.8800 7.8897 0.0374
11.9000 7.9031 0.0350
11.9200 7.9164 0.0377
11.9400 7.9297 0.0410
11.9600 7.9431 0.0325
11.9800 7.9565 0.0402
12.0000 7.9698 0.0415
12.0200 7.9831 0.0340
12.0400 7.9965 0.0391
12.0600 8.0098 0.0419
12.0800 8.0231 0.0330
12.1000 8.0364 0.0399
12.1200 8.0497 0.0433
12.1400 8.0630 0.0392
12.1600 8.0763 0.0373
12.1800 8.0897 0.0430
12.2000 8.1030 0.0333
12.2200 8.1164 0.0381
12.2400 8.1298 0.0432
12.2600 8.1432 0.0318
12.2800 8.1565 0.0418
12.3000 8.1698 0.0436
12.3200 8.1832 0.0342
12.3400 8.1965 0.0412
12.3600 8.2098 0.0423
12.3800 8.2231 0.0346
12.4000 8.2364 0.0418
12.4200 8.2497 0.0460
12.4400 8.2631 0.0337
12.4600 8.2764 0.0382
12.4800 8.2897 0.0443
12.5000 8.3030 0.0396
12.5200 8.3164 0.0378
12.5400 8.3297 0.0426
12.5600 8.3431 0.0387
12.5800 8.3564 0.0391
12.6000 8.3698 0.0424
12.6200 8.3832 0.0345
12.6400 8.3965 0.0404
12.6600 8.4098 0.0425
12.6800 8.4231 0.0358
12.7000 8.4365 0.0388
12.7200 8.4498 0.0427
12.7400 8.4631 0.0363
12.7600 8.4764 0.0411
12.7800 8.4897 0.0412
12.8000 8.5030 0.0342
12.8200 8.5163 0.0385
12.8400 8.5297 0.0418
12.8600 8.5430 0.0362
12.8800 8.5564 0.0388
12.9000 8.5698 0.0385
12.9200 8.5831 0.0361
12.9400 8.5964 0.0357
12.9600 8.6098 0.0351
12.9800 8.6231 0.0423
13.0000 8.6365 0.0362
13.0200 8.6498 0.0354
13.0400 8.6631 0.0415
13.0600 8.6765 0.0359
13.0800 8.6898 0.0338
13.1000 8.7031 0.0387
13.1200 8.7164 0.0397
13.1400 8.7298 0.0308
13.1600 8.7431 0.0391
13.1800 8.7564 0.0376
13.2000 8.7697 0.0359
13.2200 8.7830 0.0441
13.2400 8.7964 0.0322
13.2600 8.8097 0.0337
13.2800 8.8231 0.0416
13.3000 8.8364 0.0296
13.3200 8.8498 0.0322
13.3400 8.8632 0.0384
13.3600 8.8765 0.0324
13.3800 8.8898 0.0347
13.4000 8.9031 0.0394
13.4200 8.9165 0.0289
13.4400 8.9298 0.0318
13.4600 8.9431 0.0416
13.4800 8.9564 0.0242
13.5000 8.9697 0.0329
13.5200 8.9831 0.0398
13.5400 8.9964 0.0197
13.5600 9.0097 0.0323
13.5800 9.0231 0.0391
13.6000 9.0364 0.0217
13.6200 9.0497 0.0292
13.6400 9.0630 0.0394
13.6600 9.0764 0.0261
13.6800 9.0898 0.0296
13.7000 9.1031 0.0354
13.7200 9.1165 0.0223
13.7400 9.1298 0.0254
13.7600 9.1431 0.0298
13.7800 9.1565 0.0213
13.8000 9.1698 0.0288
13.8200 9.1831 0.0305
13.8400 9.1964 0.0210
13.8600 9.2097 0.0274
13.8800 9.2231 0.0311
13.9000 9.2364 0.0197
13.9200 9.2497 0.0226
13.9400 9.2630 0.0316
13.9600 9.2764 0.0119
13.9800 9.2897 0.0198
14.0000 9.3031 0.0323
14.0200 9.3164 0.0157
14.0400 9.3298 0.0258
14.0600 9.3431 0.0291
14.0800 9.3565 0.0116
14.1000 9.3698 0.0233
14.1200 9.3831 0.0316
14.1400 9.3965 0.0118
14.1600 9.4098 0.0253
14.1800 9.4231 0.0288
14.2000 9.4364 0.0119
14.2200 9.4498 0.0261
14.2400 9.4631 0.0244
14.2600 9.4764 0.0161
14.2800 9.4897 0.0282
14.3000 9.5030 0.0236
14.3200 9.5163 0.0198
14.3400 9.5297 0.0275
14.3600 9.5430 0.0242
14.3800 9.5564 0.0174
14.4000 9.5698 0.0277
14.4200 9.5832 0.0265
14.4400 9.5965 0.0185
14.4600 9.6098 0.0261
14.4800 9.6232 0.0256
14.5000 9.6365 0.0220
14.5200 9.6498 0.0224
14.5400 9.6631 0.0258
14.5600 9.6763 0.0281
14.5800 9.6897 0.0271
14.6000 9.7030 0.0219
14.6200 9.7164 0.0220
14.6400 9.7297 0.0264
14.6600 9.7431 0.0226
14.6800 9.7564 0.0248
14.7000 9.7698 0.0271
14.7200 9.7831 0.0219
14.7400 9.7964 0.0230
14.7600 9.8098 0.0263
14.7800 9.8232 0.0243
14.8000 9.8365 0.0286
14.8200 9.8498 0.0273
14.8400 9.8631 0.0234
14.8600 9.8765 0.0245
14.8800 9.8898 0.0263
14.9000 9.9031 0.0250
14.9200 9.9164 0.0300
14.9400 9.9297 0.0258
14.9600 9.9431 0.0238
14.9800 9.9564 0.0309
15.0000 9.9697 0.0236
15.0200 9.9830 0.0321
15.0400 9.9964 0.0289
15.0600 10.0097 0.0202
15.0800 10.0231 0.0312
15.1000 10.0364 0.0335
15.1200 10.0498 0.0168
15.1400 10.0631 0.0282
15.1600 10.0765 0.0290
15.1800 10.0898 0.0178
15.2000 10.1031 0.0310
15.2200 10.1165 0.0297
15.2400 10.1298 0.0191
15.2600 10.1431 0.0295
15.2800 10.1564 0.0227
15.3000 10.1697 0.0214
15.3200 10.1831 0.0280
15.3400 10.1964 0.0208
15.3600 10.2097 0.0189
15.3800 10.2230 0.0297
15.4000 10.2364 0.0204
15.4200 10.2497 0.0182
15.4400 10.2631 0.0229
15.4600 10.2764 0.0179
15.4800 10.2898 0.0231
15.5000 10.3031 0.0196
15.5200 10.3165 0.0193
15.5400 10.3298 0.0201
15.5600 10.3431 0.0203
15.5800 10.3565 0.0229
15.6000 10.3698 0.0219
15.6200 10.3831 0.0229
15.6400 10.3964 0.0239
15.6600 10.4097 0.0207
15.6800 10.4231 0.0236
15.7000 10.4364 0.0240
15.7200 10.4497 0.0220
15.7400 10.4630 0.0222
15.7600 10.4764 0.0236
15.7800 10.4897 0.0198
15.8000 10.5030 0.0219
15.8200 10.5164 0.0272
15.8400 10.5297 0.0236
15.8600 10.5431 0.0203
15.8800 10.5564 0.0281
15.9000 10.5698 0.0256
15.9200 10.5831 0.0242
15.9400 10.5965 0.0296
15.9600 10.6098 0.0182
15.9800 10.6231 0.0223
16.0000 10.6364 0.0249
16.0200 10.6497 0.0181
16.0400 10.6631 0.0254
16.0600 10.6764 0.0242
16.0800 10.6897 0.0195
16.1000 10.7030 0.0229
16.1200 10.7164 0.0309
16.1400 10.7297 0.0228
16.1600 10.7430 0.0217
16.1800 10.7564 0.0295
16.2000 10.7698 0.0181
16.2200 10.7832 0.0203
16.2400 10.7965 0.0293
16.2600 10.8098 0.0207
16.2800 10.8231 0.0239
16.3000 10.8364 0.0275
16.3200 10.8498 0.0218
16.3400 10.8631 0.0174
16.3600 10.8764 0.0313
16.3800 10.8897 0.0209
16.4000 10.9031 0.0171
16.4200 10.9164 0.0312
16.4400 10.9297 0.0138
16.4600 10.9430 0.0191
16.4800 10.9564 0.0295
16.5000 10.9697 0.0148
16.5200 10.9830 0.0191
16.5400 10.9964 0.0276
16.5600 11.0098 0.0165
16.5800 11.0231 0.0203
16.6000 11.0365 0.0297
16.6200 11.0498 0.0157
16.6400 11.0631 0.0182
16.6600 11.0765 0.0267
16.6800 11.0898 0.0141
16.7000 11.1031 0.0205
16.7200 11.1164 0.0285
16.7400 11.1297 0.0199
16.7600 11.1430 0.0205
16.7800 11.1564 0.0303
16.8000 11.1697 0.0205
16.8200 11.1830 0.0238
16.8400 11.1964 0.0294
16.8600 11.2098 0.0185
16.8800 11.2231 0.0246
16.9000 11.2364 0.0283
16.9200 11.2498 0.0160
16.9400 11.2631 0.0277
16.9600 11.2764 0.0260
16.9800 11.2897 0.0188
17.0000 11.3031 0.0258
17.0200 11.3164 0.0246
17.0400 11.3298 0.0238
17.0600 11.3431 0.0276
17.0800 11.3565 0.0228
17.1000 11.3698 0.0225
17.1200 11.3831 0.0249
17.1400 11.3965 0.0247
17.1600 11.4097 0.0246
17.1800 11.4230 0.0208
17.2000 11.4364 0.0255
17.2200 11.4497 0.0212
17.2400 11.4630 0.0202
17.2600 11.4764 0.0297
17.2800 11.4897 0.0256
17.3000 11.5031 0.0156
17.3200 11.5164 0.0272
17.3400 11.5298 0.0153
17.3600 11.5431 0.0154
17.3800 11.5564 0.0303
17.4000 11.5698 0.0121
17.4200 11.5831 0.0183
17.4400 11.5964 0.0320
17.4600 11.6098 0.0121
17.4800 11.6231 0.0216
17.5000 11.6364 0.0309
17.5200 11.6497 0.0159
17.5400 11.6630 0.0203
17.5600 11.6763 0.0278
17.5800 11.6897 0.0178
17.6000 11.7030 0.0241
17.6200 11.7164 0.0205
17.6400 11.7297 0.0201
17.6600 11.7431 0.0205
17.6800 11.7565 0.0234
17.7000 11.7698 0.0188
17.7200 11.7831 0.0215
17.7400 11.7965 0.0224
17.7600 11.8098 0.0149
17.7800 11.8231 0.0228
17.8000 11.8364 0.0196
17.8200 11.8497 0.0163
17.8400 11.8631 0.0172
17.8600 11.8764 0.0172
17.8800 11.8897 0.0233
17.9000 11.9030 0.0158
17.9200 11.9164 0.0189
17.9400 11.9298 0.0216
17.9600 11.9431 0.0165
17.9800 11.9564 0.0254
18.0000 11.9698 0.0216
18.0200 11.9831 0.0133
18.0400 11.9964 0.0244
18.0600 12.0098 0.0202
18.0800 12.0231 0.0127
18.1000 12.0365 0.0261
18.1200 12.0498 0.0151
18.1400 12.0632 0.0130
18.1600 12.0764 0.0239
18.1800 12.0897 0.0169
18.2000 12.1031 0.0165
18.2200 12.1164 0.0240
18.2400 12.1297 0.0134
18.2600 12.1430 0.0167
18.2800 12.1564 0.0203
18.3000 12.1697 0.0174
18.3200 12.1831 0.0158
18.3400 12.1964 0.0206
18.3600 12.2097 0.0178
18.3800 12.2231 0.0188
18.4000 12.2365 0.0234
18.4200 12.2498 0.0144
18.4400 12.2631 0.0193
18.4600 12.2764 0.0173
18.4800 12.2898 0.0120
18.5000 12.3031 0.0192
18.5200 12.3164 0.0137
18.5400 12.3297 0.0200
18.5600 12.3431 0.0197
18.5800 12.3564 0.0152
18.6000 12.3698 0.0184
18.6200 12.3831 0.0236
18.6400 12.3964 0.0237
18.6600 12.4097 0.0161
18.6800 12.4231 0.0185
18.7000 12.4364 0.0210
18.7200 12.4497 0.0168
18.7400 12.4631 0.0152
18.7600 12.4765 0.0187
18.7800 12.4898 0.0196
18.8000 12.5031 0.0128
18.8200 12.5164 0.0229
18.8400 12.5298 0.0222
18.8600 12.5431 0.0151
18.8800 12.5564 0.0251
18.9000 12.5697 0.0185
18.9200 12.5831 0.0174
18.9400 12.5964 0.0206
18.9600 12.6097 0.0191
18.9800 12.6230 0.0195
19.0000 12.6364 0.0247
19.0200 12.6497 0.0157
19.0400 12.6631 0.0190
19.0600 12.6764 0.0221
19.0800 12.6897 0.0192
19.1000 12.7031 0.0169
19.1200 12.7164 0.0193
19.1400 12.7297 0.0136
19.1600 12.7431 0.0186
19.1800 12.7564 0.0161
19.2000 12.7698 0.0160
19.2200 12.7831 0.0155
19.2400 12.7964 0.0095
19.2600 12.8098 0.0149
19.2800 12.8231 0.0143
19.3000 12.8365 0.0124
19.3200 12.8498 0.0169
19.3400 12.8631 0.0122
19.3600 12.8764 0.0087
19.3800 12.8897 0.0139
19.4000 12.9030 0.0148
19.4200 12.9163 0.0069
19.4400 12.9297 0.0162
19.4600 12.9431 0.0134
19.4800 12.9565 0.0029
19.5000 12.9698 0.0165
19.5200 12.9832 0.0138
19.5400 12.9965 0.0089
19.5600 13.0098 0.0150
19.5800 13.0232 0.0104
19.6000 13.0365 0.0115
19.6200 13.0498 0.0112
19.6400 13.0631 0.0171
19.6600 13.0764 0.0131
19.6800 13.0897 0.0132
19.7000 13.1030 0.0200
19.7200 13.1163 0.0108
19.7400 13.1297 0.0142
19.7600 13.1430 0.0187
19.7800 13.1564 0.0069
19.8000 13.1697 0.0133
19.8200 13.1831 0.0190
19.8400 13.1965 0.0088
19.8600 13.2098 0.0192
19.8800 13.2231 0.0212
19.9000 13.2365 0.0071
19.9200 13.2498 0.0196
19.9400 13.2632 0.0221
19.9600 13.2765 0.0068
19.9800 13.2898 0.0267
20.0000 13.3031 0.0238
20.0200 13.3164 0.0052
20.0400 13.3297 0.0222
20.0600 13.3430 0.0188
20.0800 13.3563 0.0067
20.1000 13.3697 0.0215
20.1200 13.3831 0.0169
20.1400 13.3964 0.0071
20.1600 13.4097 0.0213
20.1800 13.4231 0.0184
20.2000 13.4364 0.0104
20.2200 13.4498 0.0257
20.2400 13.4631 0.0148
20.2600 13.4764 0.0062
20.2800 13.4898 0.0278
20.3000 13.5032 0.0167
20.3200 13.5165 0.0044
20.3400 13.5298 0.0263
20.3600 13.5431 0.0187
20.3800 13.5564 0.0058
20.4000 13.5697 0.0248
20.4200 13.5830 0.0140
20.4400 13.5963 0.0086
20.4600 13.6097 0.0275
20.4800 13.6231 0.0090
20.5000 13.6364 0.0072
20.5200 13.6497 0.0238
20.5400 13.6631 0.0068
20.5600 13.6765 0.0098
20.5800 13.6898 0.0205
20.6000 13.7031 0.0097
20.6200 13.7165 0.0108
20.6400 13.7298 0.0205
20.6600 13.7431 0.0123
20.6800 13.7564 0.0102
20.7000 13.7697 0.0212
20.7200 13.7831 0.0070
20.7400 13.7964 0.0129
20.7600 13.8097 0.0166
20.7800 13.8231 0.0077
20.8000 13.8364 0.0193
20.8200 13.8497 0.0114
20.8400 13.8631 0.0125
20.8600 13.8764 0.0180
20.8800 13.8897 0.0112
20.9000 13.9031 0.0162
20.9200 13.9165 0.0127
20.9400 13.9298 0.0113
20.9600 13.9431 0.0140
20.9800 13.9565 0.0126
21.0000 13.9698 0.0094
21.0200 13.9832 0.0187
21.0400 13.9965 0.0154
21.0600 14.0098 0.0097
21.0800 14.0231 0.0265
21.1000 14.0364 0.0120
21.1200 14.0497 0.0128
21.1400 14.0631 0.0223
21.1600 14.0764 0.0102
21.1800 14.0897 0.0112
21.2000 14.1030 0.0199
21.2200 14.1164 0.0130
21.2400 14.1297 0.0123
21.2600 14.1431 0.0247
21.2800 14.1565 0.0114
21.3000 14.1698 0.0138
21.3200 14.1831 0.0202
21.3400 14.1964 0.0193
21.3600 14.2098 0.0235
21.3800 14.2232 0.0177
21.4000 14.2365 0.0179
21.4200 14.2498 0.0246
21.4400 14.2631 0.0165
21.4600 14.2764 0.0209
21.4800 14.2898 0.0207
21.5000 14.3030 0.0169
21.5200 14.3163 0.0205
21.5400 14.3297 0.0202
21.5600 14.3430 0.0211
21.5800 14.3563 0.0295
21.6000 14.3697 0.0155
21.6200 14.3831 0.0201
21.6400 14.3965 0.0218
21.6600 14.4099 0.0100
21.6800 14.4232 0.0238
21.7000 14.4365 0.0215
21.7200 14.4498 0.0155
21.7400 14.4632 0.0196
21.7600 14.4764 0.0203
21.7800 14.4897 0.0158
21.8000 14.5030 0.0256
21.8200 14.5164 0.0188
21.8400 14.5297 0.0103
21.8600 14.5430 0.0250
21.8800 14.5563 0.0157
21.9000 14.5697 0.0144
21.9200 14.5831 0.0219
21.9400 14.5964 0.0156
21.9600 14.6097 0.0156
21.9800 14.6231 0.0219
22.0000 14.6365 0.0164
22.0200 14.6498 0.0169
22.0400 14.6631 0.0219
22.0600 14.6764 0.0138
22.0800 14.6898 0.0141
22.1000 14.7031 0.0201
22.1200 14.7164 0.0121
22.1400 14.7297 0.0154
22.1600 14.7431 0.0215
22.1800 14.7564 0.0100
22.2000 14.7697 0.0148
22.2200 14.7831 0.0222
22.2400 14.7964 0.0117
22.2600 14.8097 0.0146
22.2800 14.8231 0.0217
22.3000 14.8364 0.0084
22.3200 14.8497 0.0155
22.3400 14.8631 0.0208
22.3600 14.8765 0.0095
22.3800 14.8898 0.0130
22.4000 14.9031 0.0149
22.4200 14.9164 0.0087
22.4400 14.9298 0.0132
22.4600 14.9432 0.0184
22.4800 14.9565 0.0053
22.5000 14.9698 0.0143
22.5200 14.9831 0.0174
22.5400 14.9964 0.0047
22.5600 15.0097 0.0164
22.5800 15.0230 0.0124
22.6000 15.0363 0.0104
22.6200 15.0497 0.0168
22.6400 15.0631 0.0125
22.6600 15.0764 0.0143
22.6800 15.0897 0.0147
22.7000 15.1031 0.0163
22.7200 15.1164 0.0143
22.7400 15.1298 0.0145
22.7600 15.1431 0.0115
22.7800 15.1564 0.0143
22.8000 15.1698 0.0159
22.8200 15.1831 0.0114
22.8400 15.1964 0.0162
22.8600 15.2097 0.0111
22.8800 15.2230 0.0203
22.9000 15.2364 0.0170
22.9200 15.2497 0.0119
22.9400 15.2631 0.0153
22.9600 15.2764 0.0150
22.9800 15.2897 0.0099
23.0000 15.3031 0.0137
23.0200 15.3164 0.0165
23.0400 15.3297 0.0104
23.0600 15.3431 0.0149
23.0800 15.3564 0.0138
23.1000 15.3698 0.0066
23.1200 15.3831 0.0156
23.1400 15.3964 0.0162
23.1600 15.4098 0.0070
23.1800 15.4232 0.0176
23.2000 15.4365 0.0150
23.2200 15.4498 0.0047
23.2400 15.4631 0.0126
23.2600 15.4764 0.0147
23.2800 15.4897 0.0066
23.3000 15.5030 0.0119
23.3200 15.5163 0.0145
23.3400 15.5297 0.0075
23.3600 15.5431 0.0115
23.3800 15.5564 0.0139
23.4000 15.5697 0.0056
23.4200 15.5831 0.0145
23.4400 15.5965 0.0091
23.4600 15.6098 0.0048
23.4800 15.6231 0.0111
23.5000 15.6365 0.0110
23.5200 15.6498 0.0109
23.5400 15.6631 0.0122
23.5600 15.6765 0.0072
23.5800 15.6898 0.0129
23.6000 15.7031 0.0126
23.6200 15.7164 0.0095
23.6400 15.7298 0.0122
23.6600 15.7431 0.0102
23.6800 15.7564 0.0112
23.7000 15.7697 0.0109
23.7200 15.7830 0.0087
23.7400 15.7964 0.0141
23.7600 15.8097 0.0097
23.7800 15.8231 0.0080
23.8000 15.8364 0.0176
23.8200 15.8498 0.0120
23.8400 15.8632 0.0060
23.8600 15.8765 0.0150
23.8800 15.8898 0.0139
23.9000 15.9031 -0.0033
23.9200 15.9164 0.0118
23.9400 15.9297 0.0125
23.9600 15.9430 0.0003
23.9800 15.9564 0.0171
24.0000 15.9697 0.0075
24.0200 15.9830 0.0051
24.0400 15.9964 0.0190
24.0600 16.0097 0.0086
24.0800 16.0231 0.0051
24.1000 16.0364 0.0200
24.1200 16.0498 0.0044
24.1400 16.0631 0.0069
24.1600 16.0764 0.0202
24.1800 16.0898 0.0032
24.2000 16.1031 0.0091
24.2200 16.1164 0.0124
24.2400 16.1297 0.0070
24.2600 16.1431 0.0116
24.2800 16.1565 0.0134
24.3000 16.1698 0.0064
24.3200 16.1831 0.0146
24.3400 16.1965 0.0078
24.3600 16.2098 0.0066
24.3800 16.2231 0.0133
24.4000 16.2364 0.0079
24.4200 16.2497 0.0129
24.4400 16.2631 0.0037
24.4600 16.2764 0.0097
24.4800 16.2897 0.0136
24.5000 16.3030 0.0055
24.5200 16.3164 0.0161
24.5400 16.3298 0.0137
24.5600 16.3431 0.0023
24.5800 16.3564 0.0152
24.6000 16.3698 0.0125
24.6200 16.3831 0.0029
24.6400 16.3965 0.0129
24.6600 16.4098 0.0168
24.6800 16.4231 0.0027
24.7000 16.4364 0.0137
24.7200 16.4498 0.0131
24.7400 16.4631 0.0087
24.7600 16.4764 0.0195
24.7800 16.4897 0.0126
24.8000 16.5030 0.0062
24.8200 16.5164 0.0161
24.8400 16.5297 0.0071
24.8600 16.5431 0.0059
24.8800 16.5564 0.0182
24.9000 16.5698 0.0060
24.9200 16.5831 0.0044
24.9400 16.5965 0.0176
24.9600 16.6098 0.0083
24.9800 16.6231 0.0072
25.0000 16.6365 0.0112
25.0200 16.6498 0.0051
25.0400 16.6631 0.0010
25.0600 16.6764 0.0122
25.0800 16.6897 0.0076
25.1000 16.7030 0.0071
25.1200 16.7163 0.0154
25.1400 16.7297 0.0049
25.1600 16.7431 0.0066
25.1800 16.7564 0.0157
25.2000 16.7697 0.0082
25.2200 16.7831 0.0059
25.2400 16.7964 0.0161
25.2600 16.8098 0.0049
25.2800 16.8231 0.0036
25.3000 16.8364 0.0138
25.3200 16.8498 0.0058
25.3400 16.8631 0.0047
25.3600 16.8765 0.0141
25.3800 16.8898 0.0086
25.4000 16.9031 0.0092
25.4200 16.9164 0.0159
25.4400 16.9298 0.0135
25.4600 16.9431 0.0068
25.4800 16.9564 0.0111
25.5000 16.9697 0.0142
25.5200 16.9830 0.0058
25.5400 16.9963 0.0072
25.5600 17.0097 0.0149
25.5800 17.0230 0.0066
25.6000 17.0364 0.0125
25.6200 17.0498 0.0119
25.6400 17.0632 0.0048
25.6600 17.0765 0.0110
25.6800 17.0898 0.0119
25.7000 17.1031 0.0044
25.7200 17.1165 0.0101
25.7400 17.1298 0.0075
25.7600 17.1431 0.0034
25.7800 17.1564 0.0085
25.8000 17.1698 0.0085
25.8200 17.1831 0.0023
25.8400 17.1964 0.0086
25.8600 17.2097 0.0117
25.8800 17.2231 0.0034
25.9000 17.2364 0.0080
25.9200 17.2497 0.0073
25.9400 17.2631 0.0020
25.9600 17.2764 0.0059
25.9800 17.2898 0.0013
26.0000 17.3032 0.0061
26.0200 17.3165 0.0110
26.0400 17.3298 0.0028
26.0600 17.3431 0.0065
26.0800 17.3565 0.0077
26.1000 17.3698 0.0016
26.1200 17.3831 0.0063
26.1400 17.3964 0.0090
26.1600 17.4097 0.0004
26.1800 17.4231 0.0091
26.2000 17.4364 0.0042
26.2200 17.4497 0.0095
26.2400 17.4630 0.0103
26.2600 17.4764 0.0033
26.2800 17.4898 0.0088
26.3000 17.5031 0.0113
26.3200 17.5164 0.0052
26.3400 17.5298 0.0108
26.3600 17.5431 0.0081
26.3800 17.5564 0.0018
26.4000 17.5697 0.0100
26.4200 17.5831 0.0073
26.4400 17.5965 0.0036
26.4600 17.6098 0.0174
26.4800 17.6231 0.0027
26.5000 17.6365 0.0073
26.5200 17.6498 0.0147
26.5400 17.6631 0.0054
26.5600 17.6764 0.0110
26.5800 17.6897 0.0166
26.6000 17.7030 0.0065
26.6200 17.7163 0.0129
26.6400 17.7297 0.0096
26.6600 17.7430 0.0034
26.6800 17.7564 0.0176
26.7000 17.7698 0.0088
26.7200 17.7832 0.0030
26.7400 17.7965 0.0154
26.7600 17.8098 0.0064
26.7800 17.8231 0.0049
26.8000 17.8365 0.0113
26.8200 17.8498 0.0087
26.8400 17.8631 0.0019
26.8600 17.8764 0.0126
26.8800 17.8897 0.0076
26.9000 17.9031 -0.0012
26.9200 17.9164 0.0126
26.9400 17.9297 0.0054
26.9600 17.9430 0.0006
26.9800 17.9564 0.0109
27.0000 17.9697 0.0052
27.0200 17.9830 0.0009
27.0400 17.9964 0.0103
27.0600 18.0098 -0.0002
27.0800 18.0232 -0.0016
27.1000 18.0365 0.0074
27.1200 18.0498 -0.0046
27.1400 18.0631 -0.0002
27.1600 18.0765 0.0081
27.1800 18.0898 -0.0039
27.2000 18.1031 0.0002
27.2200 18.1164 0.0069
27.2400 18.1298 -0.0047
27.2600 18.1431 0.0033
27.2800 18.1564 0.0037
27.3000 18.1697 -0.0058
27.3200 18.1830 0.0009
27.3400 18.1964 0.0044
27.3600 18.2098 -0.0058
27.3800 18.2231 -0.0001
27.4000 18.2364 0.0015
27.4200 18.2498 -0.0060
27.4400 18.2631 0.0043
27.4600 18.2765 0.0014
27.4800 18.2898 -0.0076
27.5000 18.3031 0.0056
27.5200 18.3165 -0.0035
27.5400 18.3298 -0.0117
27.5600 18.3431 0.0058
27.5800 18.3564 -0.0040
27.6000 18.3698 -0.0112
27.6200 18.3831 0.0008
27.6400 18.3964 -0.0028
27.6600 18.4097 -0.0078
27.6800 18.4230 0.0006
27.7000 18.4364 -0.0026
27.7200 18.4497 -0.0089
27.7400 18.4631 -0.0009
27.7600 18.4764 -0.0055
27.7800 18.4898 -0.0074
27.8000 18.5031 -0.0055
27.8200 18.5165 -0.0018
27.8400 18.5298 -0.0099
27.8600 18.5431 -0.0034
27.8800 18.5565 -0.0048
27.9000 18.5698 -0.0105
27.9200 18.5831 -0.0046
27.9400 18.5964 -0.0036
27.9600 18.6097 -0.0085
27.9800 18.6231 -0.0047
28.0000 18.6364 -0.0070
28.0200 18.6497 -0.0088
28.0400 18.6631 -0.0015
28.0600 18.6764 -0.0055
28.0800 18.6897 -0.0132
28.1000 18.7030 0.0035
28.1200 18.7164 -0.0028
28.1400 18.7297 -0.0096
28.1600 18.7431 0.0029
28.1800 18.7565 -0.0063
28.2000 18.7698 -0.0063
28.2200 18.7831 0.0007
28.2400 18.7965 -0.0088
28.2600 18.8098 -0.0025
28.2800 18.8231 0.0034
28.3000 18.8364 -0.0058
28.3200 18.8498 -0.0032
28.3400 18.8631 0.0060
28.3600 18.8764 -0.0076
28.3800 18.8897 0.0018
28.4000 18.9030 0.0091
28.4200 18.9164 -0.0075
28.4400 18.9297 0.0013
28.4600 18.9431 0.0059
28.4800 18.9564 -0.0093
28.5000 18.9698 0.0019
28.5200 18.9831 0.0045
28.5400 18.9964 -0.0054
28.5600 19.0098 0.0051
28.5800 19.0231 0.0046
28.6000 19.0365 -0.0034
28.6200 19.0498 0.0035
28.6400 19.0631 -0.0007
28.6600 19.0764 -0.0015
28.6800 19.0898 0.0050
28.7000 19.1031 -0.0032
28.7200 19.1164 -0.0018
28.7400 19.1297 0.0003
28.7600 19.1430 0.0006
28.7800 19.1563 -0.0004
28.8000 19.1697 -0.0002
28.8200 19.1830 -0.0005
28.8400 19.1964 0.0040
28.8600 19.2098 0.0012
28.8800 19.2232 0.0030
28.9000 19.2365 -0.0004
28.9200 19.2499 -0.0002
28.9400 19.2632 0.0046
28.9600 19.2765 0.0046
28.9800 19.2898 0.0001
29.0000 19.3031 0.0060
29.0200 19.3164 0.0044
29.0400 19.3297 0.0007
29.0600 19.3430 0.0065
29.0800 19.3564 0.0003
29.1000 19.3697 -0.0003
29.1200 19.3831 0.0077
29.1400 19.3964 -0.0014
29.1600 19.4098 -0.0036
29.1800 19.4231 0.0074
29.2000 19.4364 -0.0007
29.2200 19.4498 0.0004
29.2400 19.4632 0.0026
29.2600 19.4765 0.0005
29.2800 19.4898 0.0007
29.3000 19.5031 0.0038
29.3200 19.5164 0.0021
29.3400 19.5298 -0.0012
29.3600 19.5431 0.0060
29.3800 19.5564 -0.0002
29.4000 19.5697 -0.0006
29.4200 19.5831 0.0070
29.4400 19.5964 -0.0018
29.4600 19.6097 0.0004
29.4800 19.6230 0.0070
29.5000 19.6364 0.0092
29.5200 19.6497 -0.0003
29.5400 19.6631 0.0026
29.5600 19.6764 0.0037
29.5800 19.6898 0.0030
29.6000 19.7031 0.0055
29.6200 19.7164 0.0021
29.6400 19.7297 0.0045
29.6600 19.7431 0.0051
29.6800 19.7564 0.0045
29.7000 19.7698 0.0029
29.7200 19.7831 0.0048
29.7400 19.7964 0.0036
29.7600 19.8097 -0.0046
29.7800 19.8231 0.0042
29.8000 19.8364 -0.0002
29.8200 19.8497 -0.0003
29.8400 19.8630 -0.0013
29.8600 19.8764 0.0032
29.8800 19.8897 -0.0015
29.9000 19.9031 -0.0037
29.9200 19.9164 -0.0002
29.9400 19.9298 -0.0035
29.9600 19.9431 -0.0002
29.9800 19.9565 -0.0013
30.0000 19.9698 -0.0062
30.0200 19.9831 0.0015
30.0400 19.9965 0.0005
30.0600 20.0098 -0.0059
30.0800 20.0231 0.0010
30.1000 20.0364 0.0034
30.1200 20.0497 -0.0044
30.1400 20.0631 -0.0014
30.1600 20.0764 0.0071
30.1800 20.0897 -0.0055
30.2000 20.1030 0.0011
30.2200 20.1164 0.0024
30.2400 20.1297 -0.0070
30.2600 20.1431 -0.0017
30.2800 20.1564 -0.0046
30.3000 20.1697 -0.0077
30.3200 20.1831 0.0046
30.3400 20.1964 -0.0037
30.3600 20.2098 -0.0065
30.3800 20.2231 0.0067
30.4000 20.2365 0.0002
30.4200 20.2498 -0.0124
30.4400 20.2631 0.0025
30.4600 20.2764 -0.0003
30.4800 20.2898 -0.0074
30.5000 20.3031 0.0011
30.5200 20.3164 -0.0036
30.5400 20.3297 -0.0029
30.5600 20.3430 0.0037
30.5800 20.3564 -0.0074
30.6000 20.3697 -0.0022
30.6200 20.3831 0.0020
30.6400 20.3964 -0.0067
30.6600 20.4098 0.0002
30.6800 20.4232 0.0109
30.7000 20.4365 0.0528
30.7200 20.4498 0.1313
30.7400 20.4631 0.1838
30.7600 20.4765 0.2303
30.7800 20.4898 0.2986
30.8000 20.5031 0.3324
30.8200 20.5164 0.3628
30.8400 20.5297 0.3610
30.8600 20.5431 0.3241
30.8800 20.5564 0.3157
30.9000 20.5697 0.3178
30.9200 20.5830 0.2986
30.9400 20.5964 0.3027
30.9600 20.6097 0.3115
30.9800 20.6230 0.3016
31.0000 20.6364 0.3106
31.0200 20.6497 0.3132
31.0400 20.6631 0.2979
31.0600 20.6765 0.3083
31.0800 20.6898 0.3069
31.1000 20.7031 0.3058
31.1200 20.7165 0.3172
31.1400 20.7298 0.3122
31.1600 20.7431 0.3048
31.1800 20.7564 0.3061
31.2000 20.7697 0.3087
31.2200 20.7830 0.3034
31.2400 20.7964 0.2995
31.2600 20.8097 0.2992
31.2800 20.8230 0.2977
31.3000 20.8364 0.2989
31.3200 20.8498 0.3027
31.3400 20.8631 0.2977
31.3600 20.8764 0.2951
31.3800 20.8898 0.3006
31.4000 20.9031 0.2908
31.4200 20.9165 0.2906
31.4400 20.9298 0.3017
31.4600 20.9431 0.2918
31.4800 20.9564 0.2908
31.5000 20.9698 0.2973
31.5200 20.9831 0.2919
31.5400 20.9964 0.2946
31.5600 21.0098 0.2953
31.5800 21.0231 0.2883
31.6000 21.0365 0.2904
31.6200 21.0498 0.2949
31.6400 21.0631 0.2845
31.6600 21.0764 0.2913
31.6800 21.0897 0.2989
31.7000 21.1031 0.2778
31.7200 21.1164 0.2875
31.7400 21.1297 0.2953
31.7600 21.1431 0.2700
31.7800 21.1565 0.2865
31.8000 21.1698 0.2918
31.8200 21.1831 0.2716
31.8400 21.1964 0.2901
31.8600 21.2098 0.2885
31.8800 21.2231 0.2733
31.9000 21.2364 0.2849
31.9200 21.2497 0.2917
31.9400 21.2631 0.2770
31.9600 21.2764 0.2882
31.9800 21.2897 0.2894
32.0000 21.3030 0.2718
32.0200 21.3164 0.2843
32.0400 21.3297 0.2793
32.0600 21.3430 0.2686
32.0800 21.3564 0.2843
32.1000 21.3697 0.2777
32.1200 21.3831 0.2681
32.1400 21.3965 0.2778
32.1600 21.4098 0.2831
32.1800 21.4231 0.2760
32.2000 21.4365 0.2790
32.2200 21.4498 0.2751
32.2400 21.4631 0.2726
32.2600 21.4764 0.2798
32.2800 21.4897 0.2757
32.3000 21.5031 0.2752
32.3200 21.5164 0.2740
32.3400 21.5297 0.2826
32.3600 21.5430 0.2731
32.3800 21.5564 0.2717
32.4000 21.5697 0.2807
32.4200 21.5831 0.2699
32.4400 21.5964 0.2741
32.4600 21.6097 0.2777
32.4800 21.6231 0.2711
32.5000 21.6364 0.2687
32.5200 21.6498 0.2717
32.5400 21.6631 0.2691
32.5600 21.6765 0.2686
32.5800 21.6898 0.2745
32.6000 21.7032 0.2632
32.6200 21.7165 0.2697
32.6400 21.7298 0.2731
32.6600 21.7431 0.2592
32.6800 21.7564 0.2662
32.7000 21.7697 0.2645
32.7200 21.7830 0.2623
32.7400 21.7963 0.2705
32.7600 21.8097 0.2637
32.7800 21.8230 0.2570
32.8000 21.8364 0.2644
32.8200 21.8497 0.2710
32.8400 21.8631 0.2501
32.8600 21.8765 0.2663
32.8800 21.8898 0.2717
32.9000 21.9031 0.2482
32.9200 21.9164 0.2648
32.9400 21.9298 0.2635
32.9600 21.9431 0.2517
32.9800 21.9564 0.2639
33.0000 21.9698 0.2629
33.0200 21.9831 0.2557
33.0400 21.9965 0.2618
33.0600 22.0098 0.2608
33.0800 22.0231 0.2527
33.1000 22.0364 0.2653
33.1200 22.0497 0.2579
33.1400 22.0631 0.2543
33.1600 22.0764 0.2635
33.1800 22.0897 0.2561
33.2000 22.1031 0.2552
33.2200 22.1165 0.2584
33.2400 22.1298 0.2582
33.2600 22.1431 0.2556
33.2800 22.1564 0.2584
33.3000 22.1698 0.2603
33.3200 22.1831 0.2521
33.3400 22.1964 0.2511
33.3600 22.2097 0.2567
33.3800 22.2230 0.2540
33.4000 22.2364 0.2501
33.4200 22.2497 0.2515
33.4400 22.2631 0.2551
33.4600 22.2764 0.2515
33.4800 22.2897 0.2540
33.5000 22.3031 0.2513
33.5200 22.3164 0.2545
33.5400 22.3297 0.2584
33.5600 22.3431 0.2509
33.5800 22.3564 0.2505
33.6000 22.3697 0.2531
33.6200 22.3831 0.2470
33.6400 22.3964 0.2518
33.6600 22.4098 0.2514
33.6800 22.4231 0.2474
33.7000 22.4365 0.2479
33.7200 22.4498 0.2521
33.7400 22.4631 0.2513
33.7600 22.4765 0.2449
33.7800 22.4898 0.2466
33.8000 22.5031 0.2480
33.8200 22.5163 0.2479
33.8400 22.5297 0.2497
33.8600 22.5430 0.2456
33.8800 22.5563 0.2479
33.9000 22.5697 0.2443
33.9200 22.5831 0.2509
33.9400 22.5965 0.2398
33.9600 22.6098 0.2480
33.9800 22.6232 0.2506
34.0000 22.6365 0.2414
34.0200 22.6499 0.2480
34.0400 22.6632 0.2493
34.0600 22.6765 0.2401
34.0800 22.6898 0.2425
34.1000 22.7031 0.2471
34.1200 22.7164 0.2381
34.1400 22.7297 0.2457
34.1600 22.7430 0.2487
34.1800 22.7563 0.2410
34.2000 22.7697 0.2452
34.2200 22.7831 0.2457
34.2400 22.7964 0.2431
34.2600 22.8097 0.2434
34.2800 22.8231 0.2449
34.3000 22.8365 0.2410
34.3200 22.8498 0.2401
34.3400 22.8632 0.2388
34.3600 22.8765 0.2451
34.3800 22.8898 0.2422
34.4000 22.9032 0.2363
34.4200 22.9165 0.2431
34.4400 22.9297 0.2441
34.4600 22.9431 0.2412
34.4800 22.9564 0.2418
34.5000 22.9697 0.2371
34.5200 22.9830 0.2358
34.5400 22.9964 0.2399
34.5600 23.0097 0.2368
34.5800 23.0231 0.2381
34.6000 23.0364 0.2364
34.6200 23.0497 0.2358
34.6400 23.0630 0.2436
34.6600 23.0764 0.2324
34.6800 23.0898 0.2333
34.7000 23.1031 0.2408
34.7200 23.1164 0.2287
34.7400 23.1298 0.2333
34.7600 23.1431 0.2372
34.7800 23.1565 0.2298
34.8000 23.1698 0.2354
34.8200 23.1831 0.2360
34.8400 23.1964 0.2298
34.8600 23.2098 0.2341
34.8800 23.2230 0.2407
34.9000 23.2364 0.2304
34.9200 23.2497 0.2357
34.9400 23.2631 0.2342
34.9600 23.2764 0.2263
34.9800 23.2897 0.2367
35.0000 23.3031 0.2317
35.0200 23.3165 0.2287
35.0400 23.3298 0.2329
35.0600 23.3431 0.2301
35.0800 23.3565 0.2352
35.1000 23.3698 0.2302
35.1200 23.3831 0.2333
35.1400 23.3964 0.2342
35.1600 23.4097 0.2313
35.1800 23.4231 0.2315
35.2000 23.4364 0.2291
35.2200 23.4498 0.2267
35.2400 23.4631 0.2367
35.2600 23.4764 0.2313
35.2800 23.4897 0.2226
35.3000 23.5031 0.2322
35.3200 23.5164 0.2300
35.3400 23.5297 0.2239
35.3600 23.5431 0.2367
35.3800 23.5564 0.2277
35.4000 23.5698 0.2225
35.4200 23.5831 0.2319
35.4400 23.5964 0.2258
35.4600 23.6098 0.2210
35.4800 23.6232 0.2325
35.5000 23.6365 0.2244
35.5200 23.6498 0.2230
35.5400 23.6631 0.2354
35.5600 23.6764 0.2295
35.5800 23.6898 0.2197
35.6000 23.7031 0.2336
35.6200 23.7164 0.2243
35.6400 23.7297 0.2246
35.6600 23.7431 0.2317
35.6800 23.7564 0.2218
35.7000 23.7697 0.2225
35.7200 23.7831 0.2322
35.7400 23.7964 0.2199
35.7600 23.8098 0.2172
35.7800 23.8231 0.2327
35.8000 23.8364 0.2225
35.8200 23.8498 0.2199
35.8400 23.8631 0.2253
35.8600 23.8765 0.2231
35.8800 23.8898 0.2174
35.9000 23.9031 0.2268
35.9200 23.9164 0.2228
35.9400 23.9298 0.2137
35.9600 23.9430 0.2227
35.9800 23.9563 0.2258
36.0000 23.9696 0.2153
36.0200 23.9830 0.2250
36.0400 23.9963 0.2206
36.0600 24.0097 0.2151
36.0800 24.0231 0.2267
36.1000 24.0365 0.2217
36.1200 24.0499 0.2145
36.1400 24.0632 0.2237
36.1600 24.0765 0.2156
36.1800 24.0898 0.2139
36.2000 24.1032 0.2251
36.2200 24.1165 0.2205
36.2400 24.1297 0.2146
36.2600 24.1430 0.2252
36.2800 24.1564 0.2183
36.3000 24.1697 0.2126
36.3200 24.1830 0.2207
36.3400 24.1964 0.2192
36.3600 24.2097 0.2087
36.3800 24.2231 0.2186
36.4000 24.2364 0.2156
36.4200 24.2498 0.2077
36.4400 24.2631 0.2233
36.4600 24.2765 0.2129
36.4800 24.2898 0.2039
36.5000 24.3031 0.2218
36.5200 24.3164 0.2111
36.5400 24.3298 0.2084
36.5600 24.3431 0.2205
36.5800 24.3564 0.2088
36.6000 24.3697 0.2081
36.6200 24.3831 0.2189
36.6400 24.3964 0.2084
36.6600 24.4097 0.2083
36.6800 24.4231 0.2184
36.7000 24.4364 0.2086
36.7200 24.4497 0.2113
36.7400 24.4631 0.2158
36.7600 24.4764 0.2060
36.7800 24.4898 0.2088
36.8000 24.5031 0.2178
36.8200 24.5164 0.2075
36.8400 24.5298 0.2101
36.8600 24.5431 0.2130
36.8800 24.5564 0.2119
36.9000 24.5698 0.2099
36.9200 24.5831 0.2111
36.9400 24.5965 0.2124
36.9600 24.6098 0.2068
36.9800 24.6231 0.2125
37.0000 24.6364 0.2125
37.0200 24.6498 0.2036
37.0400 24.6631 0.2131
37.0600 24.6764 0.2138
37.0800 24.6897 0.2064
37.1000 24.7031 0.2174
37.1200 24.7164 0.2120
37.1400 24.7297 0.2048
37.1600 24.7431 0.2141
37.1800 24.7564 0.2053
37.2000 24.7698 0.2055
37.2200 24.7831 0.2111
37.2400 24.7965 0.2044
37.2600 24.8098 0.2077
37.2800 24.8231 0.2108
37.3000 24.8365 0.2020
37.3200 24.8498 0.2097
37.3400 24.8631 0.2175
37.3600 24.8764 0.2018
37.3800 24.8898 0.2081
37.4000 24.9031 0.2132
37.4200 24.9164 0.2004
37.4400 24.9297 0.2074
37.4600 24.9431 0.2095
37.4800 24.9564 0.2006
37.5000 24.9697 0.2105
37.5200 24.9830 0.2041
37.5400 24.9964 0.2075
37.5600 25.0098 0.2067
37.5800 25.0231 0.2028
37.6000 25.0364 0.2019
37.6200 25.0498 0.2067
37.6400 25.0631 0.2005
37.6600 25.0765 0.2026
37.6800 25.0898 0.2056
37.7000 25.1031 0.1997
37.7200 25.1164 0.2022
37.7400 25.1298 0.2005
37.7600 25.1431 0.2027
37.7800 25.1564 0.2052
37.8000 25.1697 0.1984
37.8200 25.1830 0.2049
37.8400 25.1964 0.1950
37.8600 25.2097 0.1992
37.8800 25.2231 0.2008
37.9000 25.2365 0.1958
37.9200 25.2498 0.1998
37.9400 25.2632 0.1956
37.9600 25.2765 0.1965
37.9800 25.2898 0.2030
38.0000 25.3032 0.1918
38.0200 25.3165 0.1952
38.0400 25.3298 0.1982
38.0600 25.3431 0.1914
38.0800 25.3564 0.1991
38.1000 25.3698 0.1950
38.1200 25.3831 0.1900
38.1400 25.3964 0.2014
38.1600 25.4097 0.1957
38.1800 25.4230 0.1891
38.2000 25.4364 0.2010
38.2200 25.4497 0.1944
38.2400 25.4630 0.1859
38.2600 25.4764 0.2019
38.2800 25.4898 0.1910
38.3000 25.5031 0.1861
38.3200 25.5165 0.1951
38.3400 25.5298 0.1888
38.3600 25.5431 0.1963
38.3800 25.5564 0.1886
38.4000 25.5697 0.1894
38.4200 25.5830 0.1980
38.4400 25.5964 0.1889
38.4600 25.6097 0.1886
38.4800 25.6231 0.1938
38.5000 25.6364 0.1860
38.5200 25.6497 0.1869
38.5400 25.6631 0.1891
38.5600 25.6765 0.1868
38.5800 25.6898 0.1862
38.6000 25.7031 0.1873
38.6200 25.7164 0.1854
38.6400 25.7298 0.1910
38.6600 25.7431 0.1868
38.6800 25.7564 0.1857
38.7000 25.7697 0.1887
38.7200 25.7831 0.1832
38.7400 25.7965 0.1829
38.7600 25.8098 0.1858
38.7800 25.8231 0.1828
38.8000 25.8364 0.1857
38.8200 25.8498 0.1880
38.8400 25.8631 0.1796
38.8600 25.8764 0.1893
38.8800 25.8897 0.1868
38.9000 25.9031 0.1775
38.9200 25.9164 0.1908
38.9400 25.9297 0.1813
38.9600 25.9430 0.1797
38.9800 25.9564 0.1873
39.0000 25.9698 0.1829
39.0200 25.9831 0.1834
39.0400 25.9964 0.1839
39.0600 26.0097 0.1845
39.0800 26.0231 0.1871
39.1000 26.0364 0.1863
39.1200 26.0498 0.1815
39.1400 26.0631 0.1839
39.1600 26.0764 0.1869
39.1800 26.0898 0.1831
39.2000 26.1031 0.1775
39.2200 26.1164 0.1918
39.2400 26.1297 0.1849
39.2600 26.1430 0.1808
39.2800 26.1564 0.1884
39.3000 26.1697 0.1909
39.3200 26.1831 0.1788
39.3400 26.1964 0.1855
39.3600 26.2098 0.1863
39.3800 26.2232 0.1736
39.4000 26.2365 0.1856
39.4200 26.2498 0.1864
39.4400 26.2631 0.1716
39.4600 26.2765 0.1862
39.4800 26.2898 0.1847
39.5000 26.3031 0.1773
39.5200 26.3164 0.1868
39.5400 26.3297 0.1853
39.5600 26.3431 0.1734
39.5800 26.3564 0.1843
39.6000 26.3697 0.1822
39.6200 26.3830 0.1747
39.6400 26.3964 0.1824
39.6600 26.4098 0.1798
39.6800 26.4231 0.1764
39.7000 26.4364 0.1808
39.7200 26.4498 0.1754
39.7400 26.4631 0.1787
39.7600 26.4765 0.1804
39.7800 26.4898 0.1799
39.8000 26.5031 0.1773
39.8200 26.5165 0.1723
39.8400 26.5298 0.1776
39.8600 26.5431 0.1756
39.8800 26.5564 0.1746
39.9000 26.5697 0.1756
39.9200 26.5831 0.1794
39.9400 26.5964 0.1707
39.9600 26.6097 0.1782
39.9800 26.6230 0.1809
40.0000 26.6364 0.1677
40.0200 26.6497 0.1767
40.0400 26.6630 0.1730
40.0600 26.6764 0.1707
40.0800 26.6898 0.1769
40.1000 26.7032 0.1727
40.1200 26.7165 0.1727
40.1400 26.7298 0.1714
40.1600 26.7431 0.1713
40.1800 26.7565 0.1754
40.2000 26.7698 0.1764
40.2200 26.7831 0.1697
40.2400 26.7964 0.1757
40.2600 26.8097 0.1770
40.2800 26.8231 0.1678
40.3000 26.8364 0.1744
40.3200 26.8497 0.1745
40.3400 26.8630 0.1678
40.3600 26.8764 0.1736
40.3800 26.8897 0.1703
40.4000 26.9030 0.1722
40.4200 26.9164 0.1730
40.4400 26.9298 0.1726
40.4600 26.9431 0.1693
40.4800 26.9564 0.1700
40.5000 26.9698 0.1733
40.5200 26.9831 0.1712
40.5400 26.9965 0.1681
40.5600 27.0098 0.1700
40.5800 27.0231 0.1711
40.6000 27.0364 0.1685
40.6200 27.0497 0.1655
40.6400 27.0631 0.1765
40.6600 27.0764 0.1719
40.6800 27.0897 0.1664
40.7000 27.1030 0.1729
40.7200 27.1164 0.1638
40.7400 27.1298 0.1655
40.7600 27.1431 0.1669
40.7800 27.1564 0.1634
40.8000 27.1697 0.1672
40.8200 27.1831 0.1642
40.8400 27.1964 0.1616
40.8600 27.2097 0.1680
40.8800 27.2231 0.1653
40.9000 27.2364 0.1631
40.9200 27.2498 0.1655
40.9400 27.2631 0.1591
40.9600 27.2765 0.1642
40.9800 27.2898 0.1657
41.0000 27.3032 0.1586
41.0200 27.3165 0.1627
41.0400 27.3297 0.1625
41.0600 27.3430 0.1612
41.0800 27.3564 0.1644
41.1000 27.3697 0.1603
41.1200 27.3830 0.1637
41.1400 27.3964 0.1622
41.1600 27.4098 0.1561
41.1800 27.4232 0.1598
41.2000 27.4365 0.1615
41.2200 27.4498 0.1559
41.2400 27.4631 0.1595
41.2600 27.4765 0.1630
41.2800 27.4898 0.1512
41.3000 27.5031 0.1632
41.3200 27.5164 0.1636
41.3400 27.5297 0.1534
41.3600 27.5431 0.1627
41.3800 27.5564 0.1535
41.4000 27.5697 0.1603
41.4200 27.5830 0.1612
41.4400 27.5964 0.1529
41.4600 27.6097 0.1581
41.4800 27.6230 0.1611
41.5000 27.6364 0.1490
41.5200 27.6498 0.1559
41.5400 27.6632 0.1641
41.5600 27.6765 0.1503
41.5800 27.6898 0.1522
41.6000 27.7031 0.1678
41.6200 27.7165 0.1497
41.6400 27.7298 0.1538
41.6600 27.7431 0.1653
41.6800 27.7564 0.1532
41.7000 27.7697 0.1548
41.7200 27.7831 0.1617
41.7400 27.7964 0.1480
41.7600 27.8097 0.1549
41.7800 27.8230 0.1622
41.8000 27.8364 0.1500
41.8200 27.8498 0.1568
41.8400 27.8631 0.1575
41.8600 27.8764 0.1497
41.8800 27.8898 0.1586
41.9000 27.9031 0.1543
41.9200 27.9165 0.1503
41.9400 27.9298 0.1612
41.9600 27.9431 0.1570
41.9800 27.9565 0.1488
42.0000 27.9698 0.1598
42.0200 27.9831 0.1550
42.0400 27.9964 0.1495
42.0600 28.0098 0.1567
42.0800 28.0231 0.1513
42.1000 28.0364 0.1508
42.1200 28.0497 0.1527
42.1400 28.0630 0.1528
42.1600 28.0764 0.1501
42.1800 28.0897 0.1496
42.2000 28.1031 0.1550
42.2200 28.1164 0.1493
42.2400 28.1298 0.1462
42.2600 28.1432 0.1518
42.2800 28.1565 0.1495
42.3000 28.1698 0.1487
42.3200 28.1831 0.1490
42.3400 28.1964 0.1498
42.3600 28.2098 0.1430
42.3800 28.2231 0.1496
42.4000 28.2364 0.1477
42.4200 28.2497 0.1463
42.4400 28.2631 0.1489
42.4600 28.2764 0.1456
42.4800 28.2897 0.1455
42.5000 28.3031 0.1495
42.5200 28.3164 0.1445
42.5400 28.3297 0.1465
42.5600 28.3431 0.1446
42.5800 28.3564 0.1454
42.6000 28.3697 0.1417
42.6200 28.3831 0.1470
42.6400 28.3965 0.1457
42.6600 28.4098 0.1407
42.6800 28.4231 0.1505
42.7000 28.4365 0.1427
42.7200 28.4498 0.1387
42.7400 28.4631 0.1509
42.7600 28.4764 0.1448
42.7800 28.4897 0.1385
42.8000 28.5031 0.1486
42.8200 28.5164 0.1430
42.8400 28.5297 0.1351
42.8600 28.5430 0.1473
42.8800 28.5564 0.1435
42.9000 28.5697 0.1422
42.9200 28.5831 0.1480
42.9400 28.5964 0.1353
42.9600 28.6097 0.1389
42.9800 28.6231 0.1479
43.0000 28.6364 0.1370
43.0200 28.6498 0.1330
43.0400 28.6631 0.1514
43.0600 28.6765 0.1357
43.0800 28.6898 0.1362
43.1000 28.7031 0.1509
43.1200 28.7164 0.1339
43.1400 28.7297 0.1391
43.1600 28.7431 0.1473
43.1800 28.7564 0.1305
43.2000 28.7697 0.1363
43.2200 28.7830 0.1450
43.2400 28.7963 0.1338
43.2600 28.8097 0.1332
43.2800 28.8230 0.1480
43.3000 28.8364 0.1278
43.3200 28.8498 0.1367
43.3400 28.8632 0.1464
43.3600 28.8765 0.1311
43.3800 28.8899 0.1381
43.4000 28.9032 0.1377
43.4200 28.9165 0.1306
43.4400 28.9298 0.1361
43.4600 28.9431 0.1387
43.4800 28.9564 0.1363
43.5000 28.9697 0.1340
43.5200 28.9830 0.1410
43.5400 28.9964 0.1289
43.5600 29.0097 0.1337
43.5800 29.0230 0.1430
43.6000 29.0364 0.1338
43.6200 29.0498 0.1323
43.6400 29.0631 0.1386
43.6600 29.0765 0.1290
43.6800 29.0898 0.1292
43.7000 29.1032 0.1419
43.7200 29.1165 0.1237
43.7400 29.1298 0.1287
43.7600 29.1431 0.1449
43.7800 29.1565 0.1255
43.8000 29.1698 0.1262
43.8200 29.1831 0.1452
43.8400 29.1964 0.1279
43.8600 29.2097 0.1275
43.8800 29.2231 0.1410
43.9000 29.2364 0.1283
43.9200 29.2497 0.1245
43.9400 29.2630 0.1433
43.9600 29.2764 0.1255
43.9800 29.2897 0.1288
44.0000 29.3031 0.1406
44.0200 29.3164 0.1264
44.0400 29.3298 0.1337
44.0600 29.3431 0.1373
44.0800 29.3565 0.1295
44.1000 29.3698 0.1296
44.1200 29.3831 0.1360
44.1400 29.3964 0.1278
44.1600 29.4098 0.1257
44.1800 29.4231 0.1354
44.2000 29.4364 0.1331
44.2200 29.4497 0.1312
44.2400 29.4631 0.1334
44.2600 29.4764 0.1332
44.2800 29.4897 0.1282
44.3000 29.5030 0.1325
44.3200 29.5164 0.1318
44.3400 29.5297 0.1245
44.3600 29.5431 0.1306
44.3800 29.5564 0.1313
44.4000 29.5697 0.1280
44.4200 29.5831 0.1328
44.4400 29.5965 0.1269
44.4600 29.6098 0.1217
44.4800 29.6231 0.1368
44.5000 29.6364 0.1292
44.5200 29.6498 0.1276
44.5400 29.6631 0.1302
44.5600 29.6764 0.1259
44.5800 29.6897 0.1300
44.6000 29.7031 0.1294
44.6200 29.7164 0.1258
44.6400 29.7297 0.1261
44.6600 29.7430 0.1299
44.6800 29.7564 0.1304
44.7000 29.7697 0.1275
44.7200 29.7831 0.1292
44.7400 29.7964 0.1298
44.7600 29.8097 0.1295
44.7800 29.8231 0.1238
44.8000 29.8365 0.1263
44.8200 29.8498 0.1300
44.8400 29.8631 0.1205
44.8600 29.8765 0.1236
44.8800 29.8898 0.1289
44.9000 29.9031 0.1230
44.9200 29.9164 0.1238
44.9400 29.9297 0.1280
44.9600 29.9431 0.1264
44.9800 29.9564 0.1181
45.0000 29.9697 0.1257
45.0200 29.9830 0.1212
45.0400 29.9964 0.1212
45.0600 30.0097 0.1227
45.0800 30.0231 0.1208
45.1000 30.0364 0.1203
45.1200 30.0498 0.1217
45.1400 30.0632 0.1210
45.1600 30.0765 0.1183
45.1800 30.0898 0.1215
45.2000 30.1031 0.1223
45.2200 30.1164 0.1197
45.2400 30.1298 0.1205
45.2600 30.1431 0.1174
45.2800 30.1564 0.1202
45.3000 30.1697 0.1206
45.3200 30.1831 0.1157
45.3400 30.1964 0.1177
45.3600 30.2097 0.1152
45.3800 30.2230 0.1177
45.4000 30.2363 0.1173
45.4200 30.2497 0.1168
45.4400 30.2630 0.1164
45.4600 30.2764 0.1164
45.4800 30.2897 0.1134
45.5000 30.3031 0.1176
45.5200 30.3165 0.1128
45.5400 30.3298 0.1160
45.5600 30.3431 0.1160
45.5800 30.3565 0.1155
45.6000 30.3698 0.1143
45.6200 30.3831 0.1164
45.6400 30.3964 0.1175
45.6600 30.4097 0.1178
45.6800 30.4230 0.1170
45.7000 30.4364 0.1125
45.7200 30.4497 0.1172
45.7400 30.4630 0.1134
45.7600 30.4764 0.1141
45.7800 30.4898 0.1218
45.8000 30.5031 0.1090
45.8200 30.5164 0.1165
45.8400 30.5298 0.1228
45.8600 30.5431 0.1084
45.8800 30.5565 0.1158
45.9000 30.5698 0.1209
45.9200 30.5831 0.1086
45.9400 30.5964 0.1153
45.9600 30.6098 0.1205
45.9800 30.6231 0.1082
46.0000 30.6364 0.1143
46.0200 30.6498 0.1187
46.0400 30.6631 0.1087
46.0600 30.6765 0.1179
46.0800 30.6898 0.1162
46.1000 30.7031 0.1095
46.1200 30.7164 0.1161
46.1400 30.7297 0.1118
46.1600 30.7431 0.1109
46.1800 30.7564 0.1116
46.2000 30.7697 0.1154
46.2200 30.7831 0.1111
46.2400 30.7964 0.1134
46.2600 30.8098 0.1109
46.2800 30.8231 0.1079
46.3000 30.8364 0.1150
46.3200 30.8498 0.1143
46.3400 30.8632 0.1086
46.3600 30.8765 0.1120
46.3800 30.8898 0.1144
46.4000 30.9031 0.1081
46.4200 30.9165 0.1074
46.4400 30.9298 0.1163
46.4600 30.9431 0.1041
46.4800 30.9564 0.1070
46.5000 30.9697 0.1153
46.5200 30.9830 0.1112
46.5400 30.9964 0.1095
46.5600 31.0097 0.1132
46.5800 31.0231 0.1095
46.6000 31.0365 0.1057
46.6200 31.0498 0.1115
46.6400 31.0631 0.1035
46.6600 31.0764 0.1114
46.6800 31.0898 0.1070
46.7000 31.1031 0.1002
46.7200 31.1164 0.1145
46.7400 31.1297 0.1119
46.7600 31.1431 0.1061
46.7800 31.1564 0.1071
46.8000 31.1697 0.1068
46.8200 31.1830 0.1032
46.8400 31.1964 0.1030
46.8600 31.2097 0.1093
46.8800 31.2231 0.1017
46.9000 31.2364 0.1067
46.9200 31.2497 0.1072
46.9400 31.2631 0.0986
46.9600 31.2764 0.1084
46.9800 31.2898 0.1081
47.0000 31.3031 0.0993
47.0200 31.3164 0.1063
47.0400 31.3298 0.1039
47.0600 31.3431 0.0994
47.0800 31.3565 0.1067
47.1000 31.3698 0.1073
47.1200 31.3831 0.0953
47.1400 31.3964 0.1049
47.1600 31.4097 0.1045
47.1800 31.4230 0.0965
47.2000 31.4363 0.1099
47.2200 31.4497 0.1065
47.2400 31.4630 0.0979
47.2600 31.4764 0.1038
47.2800 31.4897 0.1018
47.3000 31.5031 0.0993
47.3200 31.5165 0.1031
47.3400 31.5298 0.0971
47.3600 31.5431 0.0983
47.3800 31.5564 0.0988
47.4000 31.5698 0.1050
47.4200 31.5831 0.1020
47.4400 31.5964 0.0942
47.4600 31.6097 0.1026
47.4800 31.6231 0.1012
47.5000 31.6364 0.0957
47.5200 31.6497 0.1015
47.5400 31.6631 0.0980
47.5600 31.6764 0.0942
47.5800 31.6897 0.1003
47.6000 31.7031 0.0960
47.6200 31.7164 0.0968
47.6400 31.7297 0.1001
47.6600 31.7431 0.0953
47.6800 31.7565 0.0929
47.7000 31.7698 0.0973
47.7200 31.7831 0.0968
47.7400 31.7965 0.0922
47.7600 31.8098 0.1009
47.7800 31.8232 0.0926
47.8000 31.8365 0.0961
47.8200 31.8497 0.0993
47.8400 31.8630 0.0956
47.8600 31.8764 0.0982
47.8800 31.8897 0.0996
47.9000 31.9031 0.0948
47.9200 31.9164 0.0957
47.9400 31.9297 0.0974
47.9600 31.9431 0.0964
47.9800 31.9564 0.0940
48.0000 31.9697 0.0947
48.0200 31.9830 0.1000
48.0400 31.9964 0.0960
48.0600 32.0097 0.0925
48.0800 32.0231 0.0986
48.1000 32.0364 0.1001
48.1200 32.0497 0.0918
48.1400 32.0631 0.0922
48.1600 32.0765 0.0974
48.1800 32.0898 0.0879
48.2000 32.1031 0.0976
48.2200 32.1165 0.0934
48.2400 32.1298 0.0915
48.2600 32.1431 0.1014
48.2800 32.1563 0.0913
48.3000 32.1697 0.0934
48.3200 32.1830 0.1000
48.3400 32.1963 0.0937
48.3600 32.2097 0.0911
48.3800 32.2231 0.0982
48.4000 32.2365 0.0901
48.4200 32.2498 0.0912
48.4400 32.2631 0.0945
48.4600 32.2765 0.0900
48.4800 32.2898 0.0930
48.5000 32.3032 0.0936
48.5200 32.3165 0.0901
48.5400 32.3298 0.0963
48.5600 32.3431 0.0928
48.5800 32.3564 0.0939
48.6000 32.3697 0.0937
48.6200 32.3830 0.0904
48.6400 32.3963 0.0898
48.6600 32.4097 0.0927
48.6800 32.4230 0.0876
48.7000 32.4364 0.0951
48.7200 32.4497 0.0915
48.7400 32.4631 0.0840
48.7600 32.4765 0.0896
48.7800 32.4898 0.0921
48.8000 32.5032 0.0857
48.8200 32.5165 0.0943
48.8400 32.5298 0.0866
48.8600 32.5432 0.0873
48.8800 32.5565 0.0905
48.9000 32.5697 0.0864
48.9200 32.5830 0.0909
48.9400 32.5964 0.0907
48.9600 32.6097 0.0813
48.9800 32.6231 0.0890
49.0000 32.6364 0.0927
49.0200 32.6497 0.0839
49.0400 32.6631 0.0909
49.0600 32.6764 0.0902
49.0800 32.6897 0.0803
49.1000 32.7031 0.0929
49.1200 32.7164 0.0895
49.1400 32.7298 0.0821
49.1600 32.7431 0.0941
49.1800 32.7564 0.0843
49.2000 32.7698 0.0796
49.2200 32.7831 0.0997
49.2400 32.7965 0.0882
49.2600 32.8098 0.0815
49.2800 32.8231 0.0960
49.3000 32.8364 0.0857
49.3200 32.8498 0.0818
49.3400 32.8630 0.0971
49.3600 32.8763 0.0862
49.3800 32.8897 0.0822
49.4000 32.9030 0.0949
49.4200 32.9164 0.0797
49.4400 32.9297 0.0849
49.4600 32.9431 0.0980
49.4800 32.9565 0.0835
49.5000 32.9698 0.0804
49.5200 32.9831 0.0941
49.5400 32.9964 0.0792
49.5600 33.0098 0.0833
49.5800 33.0231 0.0904
49.6000 33.0364 0.0794
49.6200 33.0497 0.0838
49.6400 33.0630 0.0876
49.6600 33.0764 0.0778
49.6800 33.0897 0.0841
49.7000 33.1031 0.0856
49.7200 33.1164 0.0826
49.7400 33.1297 0.0761
49.7600 33.1431 0.0846
49.7800 33.1564 0.0777
49.8000 33.1697 0.0787
49.8200 33.1831 0.0880
49.8400 33.1964 0.0760
49.8600 33.2098 0.0761
49.8800 33.2231 0.0857
49.9000 33.2364 0.0792
49.9200 33.2498 0.0783
49.9400 33.2632 0.0814
49.9600 33.2765 0.0760
49.9800 33.2898 0.0763
50.0000 33.3031 0.0841
50.0200 33.3164 0.0748
50.0400 33.3298 0.0794
50.0600 33.3431 0.0871
50.0800 33.3564 0.0718
50.1000 33.3697 0.0821
50.1200 33.3831 0.0853
50.1400 33.3964 0.0737
50.1600 33.4097 0.0790
50.1800 33.4231 0.0833
50.2000 33.4364 0.0771
50.2200 33.4498 0.0762
50.2400 33.4631 0.0808
50.2600 33.4764 0.0734
50.2800 33.4898 0.0758
50.3000 33.5031 0.0815
50.3200 33.5165 0.0737
50.3400 33.5298 0.0761
50.3600 33.5431 0.0861
50.3800 33.5564 0.0771
50.4000 33.5698 0.0673
50.4200 33.5831 0.0869
50.4400 33.5964 0.0771
50.4600 33.6097 0.0682
50.4800 33.6230 0.0816
50.5000 33.6363 0.0765
50.5200 33.6497 0.0653
50.5400 33.6630 0.0855
50.5600 33.6764 0.0786
50.5800 33.6898 0.0674
50.6000 33.7032 0.0806
50.6200 33.7165 0.0736
50.6400 33.7298 0.0653
50.6600 33.7432 0.0850
50.6800 33.7565 0.0711
50.7000 33.7697 0.0661
50.7200 33.7830 0.0869
50.7400 33.7964 0.0661
50.7600 33.8097 0.0672
50.7800 33.8230 0.0857
50.8000 33.8364 0.0680
50.8200 33.8497 0.0675
50.8400 33.8631 0.0833
50.8600 33.8764 0.0664
50.8800 33.8898 0.0693
50.9000 33.9031 0.0760
50.9200 33.9165 0.0684
50.9400 33.9298 0.0695
50.9600 33.9431 0.0757
50.9800 33.9564 0.0672
51.0000 33.9697 0.0712
51.0200 33.9831 0.0777
51.0400 33.9964 0.0674
51.0600 34.0097 0.0685
51.0800 34.0231 0.0755
51.1000 34.0364 0.0703
51.1200 34.0497 0.0680
51.1400 34.0631 0.0749
51.1600 34.0764 0.0701
51.1800 34.0897 0.0684
51.2000 34.1031 0.0708
51.2200 34.1164 0.0675
51.2400 34.1297 0.0760
51.2600 34.1431 0.0696
51.2800 34.1564 0.0635
51.3000 34.1698 0.0700
51.3200 34.1831 0.0688
51.3400 34.1964 0.0647
51.3600 34.2098 0.0694
51.3800 34.2232 0.0703
51.4000 34.2365 0.0669
51.4200 34.2498 0.0692
51.4400 34.2631 0.0677
51.4600 34.2764 0.0765
51.4800 34.2898 0.0734
51.5000 34.3031 0.0644
51.5200 34.3164 0.0735
51.5400 34.3297 0.0682
51.5600 34.3430 0.0644
51.5800 34.3564 0.0697
51.6000 34.3697 0.0651
51.6200 34.3831 0.0677
51.6400 34.3964 0.0764
51.6600 34.4098 0.0617
51.6800 34.4231 0.0653
51.7000 34.4365 0.0761
51.7200 34.4498 0.0622
51.7400 34.4632 0.0649
51.7600 34.4765 0.0698
51.7800 34.4897 0.0639
51.8000 34.5031 0.0639
51.8200 34.5164 0.0718
51.8400 34.5298 0.0579
51.8600 34.5431 0.0691
51.8800 34.5564 0.0693
51.9000 34.5697 0.0577
51.9200 34.5831 0.0689
51.9400 34.5964 0.0698
51.9600 34.6097 0.0583
51.9800 34.6230 0.0651
52.0000 34.6364 0.0680
52.0200 34.6498 0.0595
52.0400 34.6631 0.0630
52.0600 34.6764 0.0672
52.0800 34.6898 0.0596
52.1000 34.7031 0.0668
52.1200 34.7165 0.0651
52.1400 34.7298 0.0590
52.1600 34.7431 0.0689
52.1800 34.7564 0.0606
52.2000 34.7697 0.0588
52.2200 34.7831 0.0646
52.2400 34.7964 0.0604
52.2600 34.8097 0.0634
52.2800 34.8230 0.0635
52.3000 34.8364 0.0590
52.3200 34.8497 0.0616
52.3400 34.8631 0.0643
52.3600 34.8764 0.0618
52.3800 34.8898 0.0600
52.4000 34.9032 0.0608
52.4200 34.9165 0.0583
52.4400 34.9298 0.0623
52.4600 34.9431 0.0580
52.4800 34.9565 0.0598
52.5000 34.9698 0.0655
52.5200 34.9831 0.0568
52.5400 34.9964 0.0594
52.5600 35.0098 0.0656
52.5800 35.0231 0.0545
52.6000 35.0364 0.0611
52.6200 35.0497 0.0631
52.6400 35.0630 0.0577
52.6600 35.0764 0.0554
52.6800 35.0897 0.0690
52.7000 35.1031 0.0551
52.7200 35.1164 0.0582
52.7400 35.1298 0.0638
52.7600 35.1431 0.0501
52.7800 35.1565 0.0605
52.8000 35.1698 0.0630
52.8200 35.1831 0.0553
52.8400 35.1965 0.0593
52.8600 35.2097 0.0580
52.8800 35.2230 0.0504
52.9000 35.2364 0.0615
52.9200 35.2497 0.0614
52.9400 35.2630 0.0481
52.9600 35.2764 0.0633
52.9800 35.2897 0.0543
53.0000 35.3031 0.0508
53.0200 35.3165 0.0633
53.0400 35.3298 0.0556
53.0600 35.3431 0.0557
53.0800 35.3565 0.0562
53.1000 35.3698 0.0574
53.1200 35.3831 0.0532
53.1400 35.3964 0.0564
53.1600 35.4097 0.0547
53.1800 35.4231 0.0526
53.2000 35.4364 0.0557
53.2200 35.4498 0.0520
53.2400 35.4631 0.0597
53.2600 35.4764 0.0566
53.2800 35.4898 0.0536
53.3000 35.5031 0.0527
53.3200 35.5164 0.0523
53.3400 35.5297 0.0606
53.3600 35.5430 0.0517
53.3800 35.5564 0.0564
53.4000 35.5697 0.0598
53.4200 35.5830 0.0468
53.4400 35.5964 0.0571
53.4600 35.6098 0.0605
53.4800 35.6231 0.0458
53.5000 35.6364 0.0564
53.5200 35.6498 0.0562
53.5400 35.6631 0.0424
53.5600 35.6765 0.0541
53.5800 35.6898 0.0582
53.6000 35.7031 0.0398
53.6200 35.7164 0.0545
53.6400 35.7298 0.0567
53.6600 35.7431 0.0427
53.6800 35.7564 0.0601
53.7000 35.7697 0.0553
53.7200 35.7830 0.0420
53.7400 35.7964 0.0587
53.7600 35.8097 0.0495
53.7800 35.8230 0.0408
53.8000 35.8364 0.0610
53.8200 35.8498 0.0502
53.8400 35.8631 0.0437
53.8600 35.8765 0.0552
53.8800 35.8898 0.0478
53.9000 35.9031 0.0454
53.9200 35.9165 0.0592
53.9400 35.9298 0.0441
53.9600 35.9431 0.0443
53.9800 35.9564 0.0588
54.0000 35.9697 0.0431
54.0200 35.9831 0.0429
54.0400 35.9964 0.0533
54.0600 36.0097 0.0404
54.0800 36.0230 0.0463
54.1000 36.0364 0.0486
54.1200 36.0498 0.0465
54.1400 36.0631 0.0482
54.1600 36.0764 0.0505
54.1800 36.0898 0.0474
54.2000 36.1031 0.0456
54.2200 36.1164 0.0444
54.2400 36.1298 0.0456
54.2600 36.1431 0.0466
54.2800 36.1565 0.0437
54.3000 36.1698 0.0484
54.3200 36.1831 0.0432
54.3400 36.1964 0.0454
54.3600 36.2098 0.0514
54.3800 36.2231 0.0401
54.4000 36.2364 0.0404
54.4200 36.2497 0.0517
54.4400 36.2630 0.0427
54.4600 36.2764 0.0411
54.4800 36.2897 0.0481
54.5000 36.3031 0.0444
54.5200 36.3164 0.0411
54.5400 36.3298 0.0458
54.5600 36.3432 0.0441
54.5800 36.3565 0.0431
54.6000 36.3698 0.0446
54.6200 36.3831 0.0390
54.6400 36.3965 0.0419
54.6600 36.4098 0.0476
54.6800 36.4231 0.0378
54.7000 36.4364 0.0455
54.7200 36.4497 0.0475
54.7400 36.4631 0.0400
54.7600 36.4764 0.0416
54.7800 36.4897 0.0452
54.8000 36.5030 0.0410
54.8200 36.5164 0.0405
54.8400 36.5297 0.0418
54.8600 36.5431 0.0370
54.8800 36.5564 0.0428
54.9000 36.5698 0.0388
54.9200 36.5831 0.0388
54.9400 36.5964 0.0431
54.9600 36.6098 0.0398
54.9800 36.6231 0.0372
55.0000 36.6365 0.0404
55.0200 36.6498 0.0432
55.0400 36.6631 0.0421
55.0600 36.6764 0.0388
55.0800 36.6897 0.0426
55.1000 36.7030 0.0405
55.1200 36.7164 0.0365
55.1400 36.7297 0.0380
55.1600 36.7430 0.0403
55.1800 36.7564 0.0387
55.2000 36.7697 0.0385
55.2200 36.7831 0.0395
55.2400 36.7964 0.0393
55.2600 36.8097 0.0392
55.2800 36.8231 0.0397
55.3000 36.8364 0.0319
55.3200 36.8497 0.0375
55.3400 36.8631 0.0419
55.3600 36.8764 0.0353
55.3800 36.8898 0.0376
55.4000 36.9031 0.0389
55.4200 36.9165 0.0308
55.4400 36.9298 0.0400
55.4600 36.9431 0.0401
55.4800 36.9564 0.0290
55.5000 36.9697 0.0412
55.5200 36.9830 0.0396
55.5400 36.9963 0.0257
55.5600 37.0097 0.0386
55.5800 37.0230 0.0354
55.6000 37.0364 0.0302
55.6200 37.0498 0.0377
55.6400 37.0632 0.0363
55.6600 37.0765 0.0281
55.6800 37.0898 0.0378
55.7000 37.1032 0.0376
55.7200 37.1165 0.0293
55.7400 37.1298 0.0377
55.7600 37.1431 0.0339
55.7800 37.1564 0.0303
55.8000 37.1697 0.0388
55.8200 37.1831 0.0339
55.8400 37.1964 0.0356
55.8600 37.2097 0.0344
55.8800 37.2230 0.0321
55.9000 37.2364 0.0330
55.9200 37.2497 0.0362
55.9400 37.2630 0.0338
55.9600 37.2764 0.0288
55.9800 37.2898 0.0294
56.0000 37.3031 0.0361
56.0200 37.3165 0.0286
56.0400 37.3298 0.0326
56.0600 37.3431 0.0362
56.0800 37.3565 0.0284
56.1000 37.3698 0.0268
56.1200 37.3831 0.0334
56.1400 37.3964 0.0335
56.1600 37.4097 0.0277
56.1800 37.4231 0.0339
56.2000 37.4364 0.0276
56.2200 37.4497 0.0234
56.2400 37.4630 0.0384
56.2600 37.4764 0.0311
56.2800 37.4897 0.0227
56.3000 37.5031 0.0335
56.3200 37.5164 0.0284
56.3400 37.5297 0.0243
56.3600 37.5431 0.0350
56.3800 37.5565 0.0311
56.4000 37.5698 0.0223
56.4200 37.5831 0.0370
56.4400 37.5965 0.0243
56.4600 37.6098 0.0189
56.4800 37.6231 0.0386
56.5000 37.6364 0.0278
56.5200 37.6498 0.0189
56.5400 37.6631 0.0371
56.5600 37.6764 0.0255
56.5800 37.6897 0.0207
56.6000 37.7030 0.0428
56.6200 37.7164 0.0224
56.6400 37.7297 0.0163
56.6600 37.7431 0.0354
56.6800 37.7564 0.0189
56.7000 37.7698 0.0241
56.7200 37.7831 0.0297
56.7400 37.7965 0.0209
56.7600 37.8098 0.0187
56.7800 37.8231 0.0287
56.8000 37.8365 0.0208
56.8200 37.8498 0.0220
56.8400 37.8631 0.0319
56.8600 37.8764 0.0182
56.8800 37.8897 0.0198
56.9000 37.9031 0.0241
56.9200 37.9164 0.0164
56.9400 37.9297 0.0209
56.9600 37.9430 0.0279
56.9800 37.9564 0.0141
57.0000 37.9697 0.0148
57.0200 37.9830 0.0276
57.0400 37.9964 0.0197
57.0600 38.0098 0.0173
57.0800 38.0231 0.0283
57.1000 38.0365 0.0144
57.1200 38.0498 0.0151
57.1400 38.0631 0.0272
57.1600 38.0765 0.0187
57.1800 38.0898 0.0177
57.2000 38.1032 0.0249
57.2200 38.1164 0.0173
57.2400 38.1297 0.0221
57.2600 38.1431 0.0325
57.2800 38.1564 0.0095
57.3000 38.1697 0.0197
57.3200 38.1830 0.0284
57.3400 38.1964 0.0119
57.3600 38.2097 0.0235
57.3800 38.2230 0.0248
57.4000 38.2364 0.0119
57.4200 38.2497 0.0196
57.4400 38.2631 0.0223
57.4600 38.2765 0.0111
57.4800 38.2898 0.0220
57.5000 38.3031 0.0234
57.5200 38.3165 0.0113
57.5400 38.3298 0.0173
57.5600 38.3431 0.0197
57.5800 38.3564 0.0095
57.6000 38.3698 0.0197
57.6200 38.3831 0.0191
57.6400 38.3964 0.0144
57.6600 38.4097 0.0136
57.6800 38.4230 0.0188
57.7000 38.4363 0.0154
57.7200 38.4497 0.0159
57.7400 38.4630 0.0167
57.7600 38.4764 0.0107
57.7800 38.4897 0.0130
57.8000 38.5031 0.0154
57.8200 38.5165 0.0092
57.8400 38.5298 0.0128
57.8600 38.5432 0.0212
57.8800 38.5565 0.0058
57.9000 38.5698 0.0162
57.9200 38.5831 0.0249
57.9400 38.5964 0.0078
57.9600 38.6097 0.0139
57.9800 38.6230 0.0199
58.0000 38.6364 0.0063
58.0200 38.6497 0.0134
58.0400 38.6630 0.0165
58.0600 38.6764 0.0106
58.0800 38.6898 0.0149
58.1000 38.7031 0.0144
58.1200 38.7164 0.0088
58.1400 38.7298 0.0138
58.1600 38.7432 0.0130
58.1800 38.7565 0.0039
58.2000 38.7698 0.0093
58.2200 38.7831 0.0122
58.2400 38.7964 0.0084
58.2600 38.8098 0.0049
58.2800 38.8231 0.0115
58.3000 38.8364 0.0070
58.3200 38.8497 0.0066
58.3400 38.8631 0.0150
58.3600 38.8764 0.0077
58.3800 38.8897 0.0054
58.4000 38.9030 0.0118
58.4200 38.9164 0.0073
58.4400 38.9298 0.0012
58.4600 38.9431 0.0115
58.4800 38.9564 0.0069
58.5000 38.9698 0.0011
58.5200 38.9832 0.0132
58.5400 38.9965 0.0032
58.5600 39.0098 0.0023
58.5800 39.0231 0.0187
58.6000 39.0364 0.0069
58.6200 39.0498 -0.0005
58.6400 39.0631 0.0118
58.6600 39.0764 0.0020
58.6800 39.0897 0.0003
58.7000 39.1031 0.0086
58.7200 39.1164 0.0014
58.7400 39.1297 0.0006
58.7600 39.1430 0.0092
58.7800 39.1564 -0.0030
58.8000 39.1697 0.0067
58.8200 39.1831 0.0098
58.8400 39.1964 -0.0016
58.8600 39.2097 0.0041
58.8800 39.2231 0.0046
58.9000 39.2365 -0.0016
58.9200 39.2498 0.0014
58.9400 39.2631 0.0015
58.9600 39.2765 -0.0007
58.9800 39.2898 0.0023
59.0000 39.3031 -0.0003
59.0200 39.3164 0.0005
59.0400 39.3297 0.0048
59.0600 39.3431 -0.0041
59.0800 39.3564 0.0005
59.1000 39.3697 -0.0010
59.1200 39.3830 -0.0056
59.1400 39.3964 0.0001
59.1600 39.4097 -0.0026
59.1800 39.4231 -0.0076
59.2000 39.4364 0.0040
59.2200 39.4497 -0.0023
59.2400 39.4631 -0.0007
59.2600 39.4764 -0.0014
59.2800 39.4898 -0.0025
59.3000 39.5031 -0.0014
59.3200 39.5165 -0.0052
59.3400 39.5298 -0.0056
59.3600 39.5432 -0.0035
59.3800 39.5564 -0.0045
59.4000 39.5698 -0.0040
59.4200 39.5831 -0.0016
59.4400 39.5964 -0.0070
59.4600 39.6097 -0.0033
59.4800 39.6230 -0.0031
59.5000 39.6364 -0.0035
59.5200 39.6497 0.0014
59.5400 39.6631 -0.0094
59.5600 39.6764 -0.0070
59.5800 39.6897 -0.0007
59.6000 39.7031 -0.0138
59.6200 39.7165 -0.0033
59.6400 39.7298 -0.0064
59.6600 39.7431 -0.0117
59.6800 39.7565 -0.0029
59.7000 39.7698 -0.0052
59.7200 39.7831 -0.0097
59.7400 39.7964 -0.0038
59.7600 39.8097 -0.0082
59.7800 39.8231 -0.0144
59.8000 39.8364 -0.0040
59.8200 39.8497 -0.0070
59.8400 39.8630 -0.0143
59.8600 39.8764 -0.0041
59.8800 39.8897 -0.0094
59.9000 39.9030 -0.0182
59.9200 39.9164 -0.0028
59.9400 39.9297 -0.0054
59.9600 39.9431 -0.0173
59.9800 39.9565 -0.0050
60.0000 39.9698 -0.0129
60.0200 39.9831 -0.0177
60.0400 39.9964 -0.0105
60.0460 40.0003 -0.0229
