Raw Data
Time Displacement Force
(s) (mm) (N)
0.0000 0.0000 0.1566
0.0200 0.0001 0.1761
0.0400 0.0020 0.2291
0.0600 0.0097 0.2382
0.0800 0.0215 0.1533
0.1000 0.0340 0.1402
0.1200 0.0466 0.1982
0.1400 0.0600 0.1641
0.1600 0.0741 0.1526
0.1800 0.0883 0.1788
0.2000 0.1022 0.1531
0.2200 0.1158 0.1514
0.2400 0.1292 0.1767
0.2600 0.1425 0.1577
0.2800 0.1558 0.1684
0.3000 0.1692 0.1753
0.3200 0.1826 0.1529
0.3400 0.1959 0.1760
0.3600 0.2092 0.1718
0.3800 0.2226 0.1587
0.4000 0.2359 0.1784
0.4200 0.2492 0.1660
0.4400 0.2625 0.1600
0.4600 0.2758 0.1745
0.4800 0.2892 0.1657
0.5000 0.3025 0.1631
0.5200 0.3159 0.1696
0.5400 0.3292 0.1637
0.5600 0.3425 0.1610
0.5800 0.3559 0.1727
0.6000 0.3692 0.1639
0.6200 0.3826 0.1626
0.6400 0.3959 0.1700
0.6600 0.4093 0.1638
0.6800 0.4226 0.1659
0.7000 0.4359 0.1669
0.7200 0.4493 0.1673
0.7400 0.4626 0.1639
0.7600 0.4759 0.1669
0.7800 0.4893 0.1653
0.8000 0.5026 0.1634
0.8200 0.5159 0.1684
0.8400 0.5292 0.1606
0.8600 0.5426 0.1606
0.8800 0.5559 0.1666
0.9000 0.5691 0.1670
0.9200 0.5825 0.1615
0.9400 0.5958 0.1622
0.9600 0.6092 0.1599
0.9800 0.6225 0.1541
1.0000 0.6358 0.1656
1.0200 0.6492 0.1613
1.0400 0.6626 0.1494
1.0600 0.6759 0.1661
1.0800 0.6893 0.1564
1.1000 0.7026 0.1517
1.1200 0.7159 0.1607
1.1400 0.7292 0.1569
1.1600 0.7425 0.1492
1.1800 0.7559 0.1616
1.2000 0.7692 0.1551
1.2200 0.7826 0.1496
1.2400 0.7959 0.1659
1.2600 0.8092 0.1520
1.2800 0.8225 0.1502
1.3000 0.8358 0.1637
1.3200 0.8492 0.1511
1.3400 0.8625 0.1509
1.3600 0.8759 0.1665
1.3800 0.8892 0.1551
1.4000 0.9026 0.1528
1.4200 0.9159 0.1620
1.4400 0.9292 0.1520
1.4600 0.9426 0.1530
1.4800 0.9559 0.1623
1.5000 0.9693 0.1512
1.5200 0.9826 0.1580
1.5400 0.9959 0.1622
1.5600 1.0092 0.1535
1.5800 1.0225 0.1542
1.6000 1.0358 0.1659
1.6200 1.0491 0.1490
1.6400 1.0625 0.1534
1.6600 1.0758 0.1627
1.6800 1.0892 0.1471
1.7000 1.1025 0.1496
1.7200 1.1159 0.1596
1.7400 1.1293 0.1430
1.7600 1.1427 0.1534
1.7800 1.1560 0.1557
1.8000 1.1693 0.1466
1.8200 1.1826 0.1538
1.8400 1.1959 0.1512
1.8600 1.2093 0.1493
1.8800 1.2226 0.1467
1.9000 1.2359 0.1531
1.9200 1.2492 0.1515
1.9400 1.2626 0.1442
1.9600 1.2759 0.1494
1.9800 1.2892 0.1474
2.0000 1.3025 0.1493
2.0200 1.3158 0.1512
2.0400 1.3292 0.1494
2.0600 1.3425 0.1436
2.0800 1.3559 0.1525
2.1000 1.3692 0.1503
2.1200 1.3826 0.1371
2.1400 1.3960 0.1565
2.1600 1.4093 0.1479
2.1800 1.4226 0.1416
2.2000 1.4359 0.1553
2.2200 1.4493 0.1482
2.2400 1.4625 0.1448
2.2600 1.4758 0.1576
2.2800 1.4892 0.1456
2.3000 1.5025 0.1423
2.3200 1.5158 0.1615
2.3400 1.5292 0.1469
2.3600 1.5425 0.1390
2.3800 1.5559 0.1579
2.4000 1.5693 0.1455
2.4200 1.5826 0.1418
2.4400 1.5959 0.1565
2.4600 1.6092 0.1413
2.4800 1.6226 0.1406
2.5000 1.6359 0.1563
2.5200 1.6492 0.1410
2.5400 1.6625 0.1413
2.5600 1.6759 0.1553
2.5800 1.6892 0.1424
2.6000 1.7026 0.1425
2.6200 1.7159 0.1533
2.6400 1.7293 0.1413
2.6600 1.7426 0.1420
2.6800 1.7559 0.1485
2.7000 1.7692 0.1416
2.7200 1.7825 0.1368
2.7400 1.7959 0.1476
2.7600 1.8092 0.1449
2.7800 1.8225 0.1337
2.8000 1.8358 0.1484
2.8200 1.8492 0.1411
2.8400 1.8626 0.1312
2.8600 1.8759 0.1506
2.8800 1.8893 0.1385
2.9000 1.9026 0.1326
2.9200 1.9159 0.1527
2.9400 1.9293 0.1363
2.9600 1.9426 0.1322
2.9800 1.9559 0.1528
3.0000 1.9692 0.1356
3.0200 1.9826 0.1314
3.0400 1.9959 0.1528
3.0600 2.0092 0.1298
3.0800 2.0225 0.1310
3.1000 2.0358 0.1501
3.1200 2.0492 0.1270
3.1400 2.0625 0.1332
3.1600 2.0759 0.1432
3.1800 2.0892 0.1265
3.2000 2.1026 0.1376
3.2200 2.1160 0.1395
3.2400 2.1293 0.1279
3.2600 2.1426 0.1372
3.2800 2.1560 0.1399
3.3000 2.1693 0.1265
3.3200 2.1826 0.1374
3.3400 2.1959 0.1377
3.3600 2.2092 0.1290
3.3800 2.2226 0.1369
3.4000 2.2359 0.1363
3.4200 2.2492 0.1304
3.4400 2.2625 0.1350
3.4600 2.2759 0.1322
3.4800 2.2892 0.1283
3.5000 2.3025 0.1350
3.5200 2.3159 0.1361
3.5400 2.3292 0.1288
3.5600 2.3426 0.1323
3.5800 2.3559 0.1355
3.6000 2.3693 0.1307
3.6200 2.3826 0.1297
3.6400 2.3960 0.1303
3.6600 2.4093 0.1305
3.6800 2.4226 0.1236
3.7000 2.4359 0.1325
3.7200 2.4492 0.1303
3.7400 2.4626 0.1272
3.7600 2.4759 0.1317
3.7800 2.4892 0.1281
3.8000 2.5025 0.1270
3.8200 2.5158 0.1344
3.8400 2.5292 0.1290
3.8600 2.5425 0.1310
3.8800 2.5558 0.1345
3.9000 2.5692 0.1295
3.9200 2.5826 0.1293
3.9400 2.5960 0.1308
3.9600 2.6093 0.1314
3.9800 2.6226 0.1329
4.0000 2.6359 0.1302
4.0200 2.6493 0.1278
4.0400 2.6626 0.1284
4.0600 2.6759 0.1339
4.0800 2.6892 0.1284
4.1000 2.7026 0.1274
4.1200 2.7159 0.1304
4.1400 2.7292 0.1293
4.1600 2.7425 0.1272
4.1800 2.7558 0.1286
4.2000 2.7692 0.1286
4.2200 2.7825 0.1271
4.2400 2.7958 0.1260
4.2600 2.8092 0.1314
4.2800 2.8226 0.1294
4.3000 2.8360 0.1275
4.3200 2.8493 0.1276
4.3400 2.8626 0.1289
4.3600 2.8759 0.1298
4.3800 2.8893 0.1275
4.4000 2.9026 0.1345
4.4200 2.9159 0.1254
4.4400 2.9292 0.1249
4.4600 2.9425 0.1347
4.4800 2.9559 0.1215
4.5000 2.9692 0.1272
4.5200 2.9825 0.1345
4.5400 2.9959 0.1174
4.5600 3.0092 0.1301
4.5800 3.0225 0.1324
4.6000 3.0359 0.1191
4.6200 3.0492 0.1291
4.6400 3.0625 0.1328
4.6600 3.0759 0.1152
4.6800 3.0892 0.1283
4.7000 3.1025 0.1342
4.7200 3.1159 0.1134
4.7400 3.1293 0.1294
4.7600 3.1426 0.1359
4.7800 3.1559 0.1137
4.8000 3.1693 0.1298
4.8200 3.1826 0.1323
4.8400 3.1959 0.1135
4.8600 3.2092 0.1297
4.8800 3.2225 0.1300
4.9000 3.2358 0.1130
4.9200 3.2491 0.1304
4.9400 3.2625 0.1288
4.9600 3.2758 0.1135
4.9800 3.2892 0.1315
5.0000 3.3026 0.1245
5.0200 3.3160 0.1119
5.0400 3.3293 0.1283
5.0600 3.3426 0.1225
5.0800 3.3560 0.1134
5.1000 3.3693 0.1248
5.1200 3.3826 0.1228
5.1400 3.3959 0.1143
5.1600 3.4092 0.1197
5.1800 3.4225 0.1243
5.2000 3.4359 0.1107
5.2200 3.4492 0.1230
5.2400 3.4625 0.1194
5.2600 3.4758 0.1130
5.2800 3.4892 0.1175
5.3000 3.5025 0.1213
5.3200 3.5158 0.1129
5.3400 3.5292 0.1181
5.3600 3.5426 0.1212
5.3800 3.5560 0.1096
5.4000 3.5693 0.1169
5.4200 3.5826 0.1188
5.4400 3.5960 0.1120
5.4600 3.6093 0.1185
5.4800 3.6226 0.1121
5.5000 3.6359 0.1156
5.5200 3.6492 0.1160
5.5400 3.6625 0.1137
5.5600 3.6759 0.1106
5.5800 3.6892 0.1187
5.6000 3.7025 0.1141
5.6200 3.7158 0.1091
5.6400 3.7292 0.1173
5.6600 3.7425 0.1083
5.6800 3.7559 0.1100
5.7000 3.7692 0.1167
5.7200 3.7826 0.1127
5.7400 3.7959 0.1085
5.7600 3.8093 0.1115
5.7800 3.8226 0.1135
5.8000 3.8359 0.1085
5.8200 3.8493 0.1154
5.8400 3.8626 0.1089
5.8600 3.8759 0.1098
5.8800 3.8892 0.1157
5.9000 3.9026 0.1060
5.9200 3.9159 0.1122
5.9400 3.9292 0.1125
5.9600 3.9425 0.1063
5.9800 3.9558 0.1145
6.0000 3.9692 0.1145
6.0200 3.9825 0.1116
6.0400 3.9959 0.1112
6.0600 4.0092 0.1126
6.0800 4.0226 0.1118
6.1000 4.0360 0.1095
6.1200 4.0493 0.1132
6.1400 4.0626 0.1109
6.1600 4.0759 0.1092
6.1800 4.0893 0.1083
6.2000 4.1026 0.1104
6.2200 4.1159 0.1112
6.2400 4.1292 0.1112
6.2600 4.1425 0.1083
6.2800 4.1559 0.1077
6.3000 4.1692 0.1103
6.3200 4.1825 0.1036
6.3400 4.1958 0.1111
6.3600 4.2092 0.1092
6.3800 4.2225 0.1086
6.4000 4.2358 0.1092
6.4200 4.2492 0.1039
6.4400 4.2625 0.1104
6.4600 4.2759 0.1089
6.4800 4.2893 0.1043
6.5000 4.3026 0.1104
6.5200 4.3159 0.1101
6.5400 4.3293 0.0982
6.5600 4.3426 0.1105
6.5800 4.3559 0.1122
6.6000 4.3692 0.0979
6.6200 4.3826 0.1168
6.6400 4.3959 0.1042
6.6600 4.4092 0.0985
6.6800 4.4225 0.1128
6.7000 4.4358 0.1030
6.7200 4.4492 0.1052
6.7400 4.4625 0.1113
6.7600 4.4758 0.1042
6.7800 4.4892 0.1068
6.8000 4.5025 0.1114
6.8200 4.5159 0.1025
6.8400 4.5293 0.1069
6.8600 4.5426 0.1169
6.8800 4.5559 0.1018
6.9000 4.5693 0.1050
6.9200 4.5826 0.1136
6.9400 4.5959 0.1004
6.9600 4.6092 0.1075
6.9800 4.6225 0.1160
7.0000 4.6359 0.0983
7.0200 4.6492 0.1076
7.0400 4.6625 0.1116
7.0600 4.6758 0.0981
7.0800 4.6891 0.1110
7.1000 4.7025 0.1121
7.1200 4.7158 0.0943
7.1400 4.7292 0.1063
7.1600 4.7426 0.1067
7.1800 4.7560 0.0938
7.2000 4.7693 0.1042
7.2200 4.7827 0.1057
7.2400 4.7960 0.0946
7.2600 4.8093 0.1021
7.2800 4.8226 0.1046
7.3000 4.8359 0.0907
7.3200 4.8492 0.1080
7.3400 4.8625 0.1036
7.3600 4.8758 0.0924
7.3800 4.8892 0.1049
7.4000 4.9025 0.1053
7.4200 4.9159 0.0917
7.4400 4.9292 0.1032
7.4600 4.9426 0.1058
7.4800 4.9559 0.0918
7.5000 4.9692 0.1056
7.5200 4.9826 0.1073
7.5400 4.9960 0.0889
7.5600 5.0093 0.1022
7.5800 5.0226 0.1046
7.6000 5.0359 0.0884
7.6200 5.0493 0.1039
7.6400 5.0626 0.1024
7.6600 5.0759 0.0894
7.6800 5.0892 0.1022
7.7000 5.1025 0.1011
7.7200 5.1159 0.0951
7.7400 5.1292 0.0984
7.7600 5.1425 0.0998
7.7800 5.1558 0.0902
7.8000 5.1692 0.1010
7.8200 5.1825 0.0974
7.8400 5.1959 0.0932
7.8600 5.2092 0.1022
7.8800 5.2226 0.0930
7.9000 5.2359 0.0933
7.9200 5.2493 0.0982
7.9400 5.2626 0.0959
7.9600 5.2759 0.0968
7.9800 5.2893 0.0965
8.0000 5.3026 0.0944
8.0200 5.3159 0.0904
8.0400 5.3292 0.0981
8.0600 5.3425 0.0952
8.0800 5.3559 0.0971
8.1000 5.3692 0.0969
8.1200 5.3825 0.0906
8.1400 5.3958 0.0944
8.1600 5.4092 0.1002
8.1800 5.4225 0.0918
8.2000 5.4359 0.0929
8.2200 5.4492 0.0990
8.2400 5.4625 0.0880
8.2600 5.4759 0.0937
8.2800 5.4893 0.0969
8.3000 5.5026 0.0861
8.3200 5.5159 0.0959
8.3400 5.5293 0.0924
8.3600 5.5426 0.0845
8.3800 5.5559 0.0960
8.4000 5.5692 0.0956
8.4200 5.5825 0.0901
8.4400 5.5959 0.0936
8.4600 5.6092 0.0897
8.4800 5.6225 0.0833
8.5000 5.6359 0.0981
8.5200 5.6492 0.0879
8.5400 5.6625 0.0860
8.5600 5.6759 0.0942
8.5800 5.6892 0.0844
8.6000 5.7026 0.0905
8.6200 5.7159 0.0979
8.6400 5.7293 0.0855
8.6600 5.7426 0.0874
8.6800 5.7559 0.0932
8.7000 5.7693 0.0847
8.7200 5.7826 0.0892
8.7400 5.7960 0.0921
8.7600 5.8092 0.0796
8.7800 5.8225 0.0970
8.8000 5.8359 0.0905
8.8200 5.8492 0.0808
8.8400 5.8625 0.0980
8.8600 5.8758 0.0900
8.8800 5.8892 0.0856
8.9000 5.9025 0.0889
8.9200 5.9159 0.0867
8.9400 5.9292 0.0823
8.9600 5.9426 0.0880
8.9800 5.9560 0.0870
9.0000 5.9693 0.0804
9.0200 5.9826 0.0873
9.0400 5.9959 0.0828
9.0600 6.0092 0.0867
9.0800 6.0226 0.0824
9.1000 6.0359 0.0815
9.1200 6.0492 0.0867
9.1400 6.0625 0.0745
9.1600 6.0758 0.0853
9.1800 6.0892 0.0841
9.2000 6.1025 0.0725
9.2200 6.1158 0.0844
9.2400 6.1291 0.0843
9.2600 6.1425 0.0735
9.2800 6.1559 0.0872
9.3000 6.1692 0.0790
9.3200 6.1825 0.0770
9.3400 6.1959 0.0854
9.3600 6.2093 0.0705
9.3800 6.2226 0.0780
9.4000 6.2359 0.0863
9.4200 6.2493 0.0687
9.4400 6.2626 0.0778
9.4600 6.2759 0.0825
9.4800 6.2892 0.0762
9.5000 6.3025 0.0766
9.5200 6.3158 0.0797
9.5400 6.3292 0.0722
9.5600 6.3425 0.0736
9.5800 6.3558 0.0802
9.6000 6.3692 0.0744
9.6200 6.3826 0.0731
9.6400 6.3959 0.0739
9.6600 6.4092 0.0746
9.6800 6.4226 0.0751
9.7000 6.4359 0.0780
9.7200 6.4493 0.0755
9.7400 6.4626 0.0718
9.7600 6.4759 0.0729
9.7800 6.4892 0.0698
9.8000 6.5026 0.0773
9.8200 6.5159 0.0755
9.8400 6.5293 0.0703
9.8600 6.5426 0.0769
9.8800 6.5559 0.0702
9.9000 6.5693 0.0691
9.9200 6.5826 0.0742
9.9400 6.5959 0.0720
9.9600 6.6092 0.0704
9.9800 6.6225 0.0721
10.0000 6.6359 0.0680
10.0200 6.6492 0.0720
10.0400 6.6625 0.0686
10.0600 6.6759 0.0684
10.0800 6.6893 0.0698
10.1000 6.7026 0.0637
10.1200 6.7159 0.0714
10.1400 6.7292 0.0711
10.1600 6.7426 0.0641
10.1800 6.7559 0.0724
10.2000 6.7693 0.0705
10.2200 6.7826 0.0698
10.2400 6.7959 0.0706
10.2600 6.8093 0.0726
10.2800 6.8226 0.0649
10.3000 6.8359 0.0759
10.3200 6.8492 0.0710
10.3400 6.8625 0.0669
10.3600 6.8759 0.0781
10.3800 6.8892 0.0665
10.4000 6.9025 0.0726
10.4200 6.9159 0.0752
10.4400 6.9293 0.0696
10.4600 6.9426 0.0700
10.4800 6.9559 0.0760
10.5000 6.9692 0.0719
10.5200 6.9826 0.0751
10.5400 6.9959 0.0744
10.5600 7.0092 0.0690
10.5800 7.0225 0.0739
10.6000 7.0359 0.0727
10.6200 7.0492 0.0738
10.6400 7.0625 0.0734
10.6600 7.0758 0.0690
10.6800 7.0892 0.0725
10.7000 7.1025 0.0702
10.7200 7.1159 0.0678
10.7400 7.1292 0.0710
10.7600 7.1425 0.0728
10.7800 7.1559 0.0730
10.8000 7.1693 0.0690
10.8200 7.1826 0.0677
10.8400 7.1959 0.0715
10.8600 7.2092 0.0634
10.8800 7.2226 0.0710
10.9000 7.2360 0.0710
10.9200 7.2493 0.0640
10.9400 7.2626 0.0685
10.9600 7.2759 0.0676
10.9800 7.2892 0.0645
11.0000 7.3025 0.0676
11.0200 7.3158 0.0669
11.0400 7.3291 0.0636
11.0600 7.3425 0.0652
11.0800 7.3559 0.0600
11.1000 7.3692 0.0612
11.1200 7.3825 0.0653
11.1400 7.3959 0.0539
11.1600 7.4093 0.0588
11.1800 7.4226 0.0612
11.2000 7.4359 0.0542
11.2200 7.4492 0.0602
11.2400 7.4626 0.0613
11.2600 7.4759 0.0548
11.2800 7.4893 0.0572
11.3000 7.5026 0.0593
11.3200 7.5159 0.0517
11.3400 7.5292 0.0639
11.3600 7.5426 0.0579
11.3800 7.5559 0.0488
11.4000 7.5692 0.0600
11.4200 7.5825 0.0591
11.4400 7.5959 0.0511
11.4600 7.6092 0.0611
11.4800 7.6225 0.0565
11.5000 7.6359 0.0539
11.5200 7.6493 0.0538
11.5400 7.6626 0.0629
11.5600 7.6759 0.0514
11.5800 7.6893 0.0573
11.6000 7.7026 0.0599
11.6200 7.7160 0.0501
11.6400 7.7293 0.0567
11.6600 7.7425 0.0609
11.6800 7.7558 0.0505
11.7000 7.7692 0.0537
11.7200 7.7825 0.0631
11.7400 7.7958 0.0495
11.7600 7.8092 0.0554
11.7800 7.8225 0.0614
11.8000 7.8359 0.0458
11.8200 7.8492 0.0593
11.8400 7.8625 0.0558
11.8600 7.8759 0.0469
11.8800 7.8892 0.0575
11.9000 7.9025 0.0565
11.9200 7.9159 0.0475
11.9400 7.9292 0.0609
11.9600 7.9426 0.0541
11.9800 7.9559 0.0434
12.0000 7.9693 0.0633
12.0200 7.9826 0.0523
12.0400 7.9959 0.0482
12.0600 8.0093 0.0638
12.0800 8.0226 0.0491
12.1000 8.0359 0.0493
12.1200 8.0492 0.0675
12.1400 8.0625 0.0541
12.1600 8.0758 0.0475
12.1800 8.0891 0.0629
12.2000 8.1025 0.0560
12.2200 8.1159 0.0542
12.2400 8.1293 0.0620
12.2600 8.1427 0.0547
12.2800 8.1560 0.0511
12.3000 8.1693 0.0585
12.3200 8.1826 0.0576
12.3400 8.1960 0.0554
12.3600 8.2093 0.0588
12.3800 8.2226 0.0588
12.4000 8.2359 0.0552
12.4200 8.2492 0.0608
12.4400 8.2625 0.0609
12.4600 8.2758 0.0509
12.4800 8.2891 0.0611
12.5000 8.3025 0.0606
12.5200 8.3158 0.0495
12.5400 8.3292 0.0581
12.5600 8.3425 0.0652
12.5800 8.3559 0.0476
12.6000 8.3693 0.0548
12.6200 8.3827 0.0623
12.6400 8.3960 0.0458
12.6600 8.4093 0.0604
12.6800 8.4226 0.0600
12.7000 8.4360 0.0425
12.7200 8.4493 0.0593
12.7400 8.4626 0.0633
12.7600 8.4759 0.0421
12.7800 8.4892 0.0612
12.8000 8.5025 0.0588
12.8200 8.5158 0.0426
12.8400 8.5291 0.0654
12.8600 8.5425 0.0579
12.8800 8.5559 0.0385
12.9000 8.5692 0.0615
12.9200 8.5826 0.0531
12.9400 8.5959 0.0440
12.9600 8.6093 0.0626
12.9800 8.6226 0.0467
13.0000 8.6359 0.0441
13.0200 8.6493 0.0625
13.0400 8.6626 0.0462
13.0600 8.6760 0.0437
13.0800 8.6893 0.0591
13.1000 8.7026 0.0441
13.1200 8.7159 0.0429
13.1400 8.7292 0.0577
13.1600 8.7426 0.0439
13.1800 8.7559 0.0453
13.2000 8.7692 0.0602
13.2200 8.7825 0.0444
13.2400 8.7959 0.0436
13.2600 8.8092 0.0548
13.2800 8.8225 0.0441
13.3000 8.8359 0.0463
13.3200 8.8493 0.0546
13.3400 8.8626 0.0386
13.3600 8.8760 0.0457
13.3800 8.8893 0.0504
13.4000 8.9026 0.0414
13.4200 8.9159 0.0436
13.4400 8.9293 0.0462
13.4600 8.9426 0.0413
13.4800 8.9559 0.0455
13.5000 8.9692 0.0446
13.5200 8.9826 0.0386
13.5400 8.9959 0.0427
13.5600 9.0092 0.0427
13.5800 9.0225 0.0389
13.6000 9.0359 0.0396
13.6200 9.0492 0.0431
13.6400 9.0625 0.0379
13.6600 9.0758 0.0339
13.6800 9.0892 0.0399
13.7000 9.1026 0.0328
13.7200 9.1159 0.0376
13.7400 9.1293 0.0378
13.7600 9.1426 0.0349
13.7800 9.1560 0.0326
13.8000 9.1693 0.0381
13.8200 9.1826 0.0342
13.8400 9.1959 0.0345
13.8600 9.2092 0.0336
13.8800 9.2226 0.0330
13.9000 9.2359 0.0310
13.9200 9.2492 0.0341
13.9400 9.2625 0.0354
13.9600 9.2759 0.0319
13.9800 9.2892 0.0335
14.0000 9.3025 0.0333
14.0200 9.3159 0.0322
14.0400 9.3292 0.0404
14.0600 9.3426 0.0287
14.0800 9.3559 0.0268
14.1000 9.3692 0.0384
14.1200 9.3826 0.0318
14.1400 9.3959 0.0326
14.1600 9.4093 0.0375
14.1800 9.4226 0.0291
14.2000 9.4359 0.0325
14.2200 9.4492 0.0375
14.2400 9.4626 0.0294
14.2600 9.4759 0.0283
14.2800 9.4891 0.0410
14.3000 9.5025 0.0291
14.3200 9.5158 0.0327
14.3400 9.5291 0.0413
14.3600 9.5425 0.0238
14.3800 9.5558 0.0349
14.4000 9.5693 0.0285
14.4200 9.5826 0.0289
14.4400 9.5960 0.0377
14.4600 9.6093 0.0290
14.4800 9.6226 0.0328
14.5000 9.6360 0.0371
14.5200 9.6493 0.0288
14.5400 9.6625 0.0343
14.5600 9.6758 0.0351
14.5800 9.6891 0.0270
14.6000 9.7025 0.0344
14.6200 9.7158 0.0305
14.6400 9.7292 0.0232
14.6600 9.7425 0.0360
14.6800 9.7559 0.0276
14.7000 9.7692 0.0249
14.7200 9.7826 0.0347
14.7400 9.7959 0.0255
14.7600 9.8093 0.0267
14.7800 9.8226 0.0342
14.8000 9.8360 0.0239
14.8200 9.8493 0.0300
14.8400 9.8626 0.0347
14.8600 9.8759 0.0228
14.8800 9.8893 0.0317
14.9000 9.9025 0.0357
14.9200 9.9159 0.0261
14.9400 9.9292 0.0285
14.9600 9.9426 0.0294
14.9800 9.9559 0.0241
15.0000 9.9692 0.0329
15.0200 9.9825 0.0299
15.0400 9.9959 0.0266
15.0600 10.0092 0.0294
15.0800 10.0225 0.0260
15.1000 10.0359 0.0310
15.1200 10.0492 0.0322
15.1400 10.0626 0.0257
15.1600 10.0759 0.0297
15.1800 10.0893 0.0294
15.2000 10.1026 0.0232
15.2200 10.1160 0.0332
15.2400 10.1293 0.0310
15.2600 10.1426 0.0253
15.2800 10.1559 0.0323
15.3000 10.1692 0.0260
15.3200 10.1826 0.0258
15.3400 10.1959 0.0312
15.3600 10.2092 0.0277
15.3800 10.2225 0.0221
15.4000 10.2358 0.0339
15.4200 10.2492 0.0229
15.4400 10.2625 0.0241
15.4600 10.2759 0.0315
15.4800 10.2892 0.0257
15.5000 10.3026 0.0226
15.5200 10.3160 0.0290
15.5400 10.3293 0.0241
15.5600 10.3426 0.0230
15.5800 10.3560 0.0307
15.6000 10.3693 0.0235
15.6200 10.3826 0.0282
15.6400 10.3959 0.0327
15.6600 10.4092 0.0249
15.6800 10.4225 0.0263
15.7000 10.4359 0.0315
15.7200 10.4492 0.0291
15.7400 10.4625 0.0315
15.7600 10.4759 0.0300
15.7800 10.4892 0.0290
15.8000 10.5025 0.0297
15.8200 10.5158 0.0307
15.8400 10.5292 0.0298
15.8600 10.5426 0.0248
15.8800 10.5559 0.0311
15.9000 10.5692 0.0386
15.9200 10.5826 0.0283
15.9400 10.5959 0.0318
15.9600 10.6093 0.0350
15.9800 10.6226 0.0288
16.0000 10.6359 0.0327
16.0200 10.6492 0.0371
16.0400 10.6626 0.0298
16.0600 10.6759 0.0313
16.0800 10.6892 0.0348
16.1000 10.7025 0.0317
16.1200 10.7158 0.0280
16.1400 10.7292 0.0374
16.1600 10.7425 0.0297
16.1800 10.7559 0.0325
16.2000 10.7692 0.0371
16.2200 10.7826 0.0277
16.2400 10.7960 0.0323
16.2600 10.8093 0.0319
16.2800 10.8226 0.0289
16.3000 10.8359 0.0382
16.3200 10.8493 0.0284
16.3400 10.8626 0.0269
16.3600 10.8759 0.0432
16.3800 10.8892 0.0288
16.4000 10.9026 0.0234
16.4200 10.9159 0.0410
16.4400 10.9292 0.0299
16.4600 10.9425 0.0225
16.4800 10.9558 0.0408
16.5000 10.9692 0.0327
16.5200 10.9825 0.0208
16.5400 10.9959 0.0379
16.5600 11.0092 0.0286
16.5800 11.0226 0.0247
16.6000 11.0360 0.0333
16.6200 11.0493 0.0260
16.6400 11.0626 0.0301
16.6600 11.0759 0.0325
16.6800 11.0893 0.0234
16.7000 11.1026 0.0270
16.7200 11.1158 0.0364
16.7400 11.1291 0.0240
16.7600 11.1425 0.0284
16.7800 11.1559 0.0359
16.8000 11.1692 0.0202
16.8200 11.1825 0.0290
16.8400 11.1959 0.0309
16.8600 11.2093 0.0218
16.8800 11.2226 0.0251
16.9000 11.2359 0.0286
16.9200 11.2492 0.0249
16.9400 11.2626 0.0242
16.9600 11.2759 0.0325
16.9800 11.2892 0.0201
17.0000 11.3025 0.0269
17.0200 11.3159 0.0297
17.0400 11.3293 0.0209
17.0600 11.3426 0.0220
17.0800 11.3559 0.0279
17.1000 11.3692 0.0216
17.1200 11.3826 0.0240
17.1400 11.3959 0.0249
17.1600 11.4092 0.0190
17.1800 11.4225 0.0299
17.2000 11.4358 0.0228
17.2200 11.4492 0.0154
17.2400 11.4625 0.0311
17.2600 11.4758 0.0138
17.2800 11.4892 0.0178
17.3000 11.5026 0.0284
17.3200 11.5159 0.0149
17.3400 11.5292 0.0180
17.3600 11.5426 0.0261
17.3800 11.5559 0.0138
17.4000 11.5693 0.0183
17.4200 11.5826 0.0239
17.4400 11.5959 0.0126
17.4600 11.6092 0.0219
17.4800 11.6226 0.0208
17.5000 11.6359 0.0125
17.5200 11.6492 0.0239
17.5400 11.6625 0.0120
17.5600 11.6758 0.0148
17.5800 11.6892 0.0189
17.6000 11.7025 0.0081
17.6200 11.7158 0.0180
17.6400 11.7292 0.0158
17.6600 11.7426 0.0124
17.6800 11.7560 0.0172
17.7000 11.7693 0.0145
17.7200 11.7826 0.0115
17.7400 11.7959 0.0184
17.7600 11.8093 0.0120
17.7800 11.8226 0.0140
17.8000 11.8359 0.0207
17.8200 11.8492 0.0133
17.8400 11.8625 0.0213
17.8600 11.8759 0.0168
17.8800 11.8892 0.0087
17.9000 11.9025 0.0213
17.9200 11.9159 0.0154
17.9400 11.9292 0.0167
17.9600 11.9426 0.0204
17.9800 11.9559 0.0113
18.0000 11.9692 0.0190
18.0200 11.9826 0.0264
18.0400 11.9959 0.0090
18.0600 12.0092 0.0208
18.0800 12.0226 0.0244
18.1000 12.0359 0.0066
18.1200 12.0493 0.0204
18.1400 12.0626 0.0230
18.1600 12.0759 0.0095
18.1800 12.0892 0.0262
18.2000 12.1026 0.0165
18.2200 12.1159 0.0088
18.2400 12.1292 0.0250
18.2600 12.1425 0.0171
18.2800 12.1558 0.0138
18.3000 12.1692 0.0242
18.3200 12.1825 0.0169
18.3400 12.1959 0.0127
18.3600 12.2092 0.0268
18.3800 12.2226 0.0126
18.4000 12.2360 0.0135
18.4200 12.2493 0.0214
18.4400 12.2626 0.0107
18.4600 12.2759 0.0131
18.4800 12.2893 0.0212
18.5000 12.3026 0.0126
18.5200 12.3159 0.0102
18.5400 12.3292 0.0157
18.5600 12.3425 0.0155
18.5800 12.3559 0.0071
18.6000 12.3692 0.0185
18.6200 12.3826 0.0190
18.6400 12.3959 0.0049
18.6600 12.4092 0.0141
18.6800 12.4225 0.0186
18.7000 12.4359 0.0057
18.7200 12.4492 0.0185
18.7400 12.4626 0.0177
18.7600 12.4760 0.0062
18.7800 12.4893 0.0142
18.8000 12.5026 0.0210
18.8200 12.5159 0.0069
18.8400 12.5293 0.0124
18.8600 12.5426 0.0175
18.8800 12.5559 0.0107
18.9000 12.5692 0.0147
18.9200 12.5825 0.0142
18.9400 12.5959 0.0085
18.9600 12.6092 0.0134
18.9800 12.6225 0.0143
19.0000 12.6358 0.0098
19.0200 12.6492 0.0108
19.0400 12.6625 0.0123
19.0600 12.6759 0.0106
19.0800 12.6892 0.0090
19.1000 12.7025 0.0096
19.1200 12.7159 0.0082
19.1400 12.7292 0.0112
19.1600 12.7425 0.0065
19.1800 12.7559 0.0100
19.2000 12.7692 0.0088
19.2200 12.7826 -0.0004
19.2400 12.7959 0.0106
19.2600 12.8093 0.0073
19.2800 12.8226 0.0027
19.3000 12.8359 0.0042
19.3200 12.8493 0.0028
19.3400 12.8625 0.0025
19.3600 12.8758 0.0035
19.3800 12.8891 0.0051
19.4000 12.9025 0.0002
19.4200 12.9158 0.0054
19.4400 12.9292 0.0068
19.4600 12.9426 -0.0040
19.4800 12.9560 -0.0037
19.5000 12.9693 0.0069
19.5200 12.9826 -0.0010
19.5400 12.9960 0.0000
19.5600 13.0093 0.0079
19.5800 13.0226 -0.0027
19.6000 13.0359 -0.0001
19.6200 13.0492 0.0092
19.6400 13.0625 -0.0050
19.6600 13.0759 -0.0017
19.6800 13.0892 0.0062
19.7000 13.1025 -0.0036
19.7200 13.1158 0.0051
19.7400 13.1292 0.0024
19.7600 13.1425 -0.0054
19.7800 13.1558 0.0045
19.8000 13.1692 0.0073
19.8200 13.1826 -0.0038
19.8400 13.1959 0.0023
19.8600 13.2093 0.0017
19.8800 13.2226 -0.0033
19.9000 13.2359 0.0073
19.9200 13.2493 0.0065
19.9400 13.2626 -0.0051
19.9600 13.2759 0.0005
19.9800 13.2892 0.0034
20.0000 13.3025 -0.0019
20.0200 13.3159 -0.0005
20.0400 13.3292 0.0063
20.0600 13.3425 -0.0050
20.0800 13.3558 0.0050
20.1000 13.3692 0.0007
20.1200 13.3826 -0.0027
20.1400 13.3959 0.0079
20.1600 13.4092 -0.0036
20.1800 13.4225 -0.0039
20.2000 13.4359 0.0080
20.2200 13.4493 -0.0006
20.2400 13.4626 -0.0042
20.2600 13.4759 0.0067
20.2800 13.4893 0.0026
20.3000 13.5026 0.0007
20.3200 13.5159 0.0012
20.3400 13.5292 -0.0008
20.3600 13.5426 0.0034
20.3800 13.5559 0.0019
20.4000 13.5692 -0.0083
20.4200 13.5825 0.0072
20.4400 13.5958 0.0101
20.4600 13.6092 -0.0112
20.4800 13.6225 0.0019
20.5000 13.6359 0.0026
20.5200 13.6492 -0.0066
20.5400 13.6626 0.0021
20.5600 13.6760 0.0012
20.5800 13.6893 -0.0086
20.6000 13.7026 0.0096
20.6200 13.7159 0.0017
20.6400 13.7293 -0.0159
20.6600 13.7426 0.0144
20.6800 13.7559 -0.0030
20.7000 13.7692 -0.0130
20.7200 13.7825 0.0135
20.7400 13.7959 -0.0085
20.7600 13.8092 -0.0109
20.7800 13.8225 0.0184
20.8000 13.8359 -0.0109
20.8200 13.8492 -0.0101
20.8400 13.8625 0.0157
20.8600 13.8759 -0.0144
20.8800 13.8892 -0.0063
20.9000 13.9025 0.0166
20.9200 13.9159 -0.0202
20.9400 13.9293 -0.0056
20.9600 13.9426 0.0079
20.9800 13.9559 -0.0176
21.0000 13.9693 0.0011
21.0200 13.9827 0.0073
21.0400 13.9959 -0.0167
21.0600 14.0092 0.0032
21.0800 14.0225 0.0046
21.1000 14.0359 -0.0142
21.1200 14.0492 0.0042
21.1400 14.0625 0.0010
21.1600 14.0758 -0.0067
21.1800 14.0892 0.0054
21.2000 14.1025 -0.0017
21.2200 14.1159 -0.0050
21.2400 14.1292 0.0055
21.2600 14.1425 -0.0027
21.2800 14.1559 -0.0002
21.3000 14.1693 -0.0032
21.3200 14.1826 0.0015
21.3400 14.1959 0.0001
21.3600 14.2093 -0.0024
21.3800 14.2226 -0.0019
21.4000 14.2359 -0.0016
21.4200 14.2492 0.0028
21.4400 14.2626 0.0018
21.4600 14.2759 -0.0011
21.4800 14.2892 -0.0029
21.5000 14.3025 0.0021
21.5200 14.3158 -0.0023
21.5400 14.3291 -0.0039
21.5600 14.3425 0.0007
21.5800 14.3558 -0.0043
21.6000 14.3691 0.0001
21.6200 14.3825 -0.0021
21.6400 14.3959 -0.0047
21.6600 14.4093 0.0018
21.6800 14.4227 -0.0062
21.7000 14.4360 -0.0027
21.7200 14.4493 0.0012
21.7400 14.4626 -0.0055
21.7600 14.4759 -0.0021
21.7800 14.4892 0.0014
21.8000 14.5025 0.0004
21.8200 14.5158 -0.0062
21.8400 14.5292 0.0001
21.8600 14.5425 -0.0036
21.8800 14.5558 -0.0044
21.9000 14.5692 -0.0055
21.9200 14.5825 -0.0041
21.9400 14.5959 -0.0049
21.9600 14.6092 -0.0027
21.9800 14.6226 0.0005
22.0000 14.6359 -0.0098
22.0200 14.6493 -0.0017
22.0400 14.6626 -0.0043
22.0600 14.6759 -0.0109
22.0800 14.6893 -0.0047
22.1000 14.7026 -0.0065
22.1200 14.7159 -0.0097
22.1400 14.7292 -0.0062
22.1600 14.7425 -0.0069
22.1800 14.7559 -0.0097
22.2000 14.7692 -0.0064
22.2200 14.7825 -0.0077
22.2400 14.7958 -0.0098
22.2600 14.8092 -0.0108
22.2800 14.8225 -0.0150
22.3000 14.8359 -0.0106
22.3200 14.8492 -0.0057
22.3400 14.8626 -0.0137
22.3600 14.8759 -0.0079
22.3800 14.8893 -0.0080
22.4000 14.9026 -0.0111
22.4200 14.9159 -0.0098
22.4400 14.9293 -0.0105
22.4600 14.9426 -0.0102
22.4800 14.9560 -0.0087
22.5000 14.9693 -0.0104
22.5200 14.9826 -0.0114
22.5400 14.9959 -0.0012
22.5600 15.0092 -0.0135
22.5800 15.0225 -0.0121
22.6000 15.0358 0.0002
22.6200 15.0491 -0.0152
22.6400 15.0625 -0.0090
22.6600 15.0759 -0.0033
22.6800 15.0892 -0.0131
22.7000 15.1025 -0.0074
22.7200 15.1159 -0.0045
22.7400 15.1293 -0.0136
22.7600 15.1426 -0.0109
22.7800 15.1559 0.0003
22.8000 15.1692 -0.0132
22.8200 15.1826 -0.0137
22.8400 15.1959 -0.0015
22.8600 15.2092 -0.0142
22.8800 15.2225 -0.0123
22.9000 15.2359 -0.0050
22.9200 15.2492 -0.0135
22.9400 15.2625 -0.0112
22.9600 15.2758 -0.0016
22.9800 15.2892 -0.0173
23.0000 15.3025 -0.0134
23.0200 15.3159 -0.0014
23.0400 15.3292 -0.0190
23.0600 15.3425 -0.0170
23.0800 15.3559 0.0018
23.1000 15.3693 -0.0236
23.1200 15.3826 -0.0185
23.1400 15.3959 0.0012
23.1600 15.4093 -0.0205
23.1800 15.4226 -0.0238
23.2000 15.4360 -0.0050
23.2200 15.4493 -0.0182
23.2400 15.4626 -0.0196
23.2600 15.4759 -0.0086
23.2800 15.4892 -0.0233
23.3000 15.5025 -0.0199
23.3200 15.5158 -0.0019
23.3400 15.5291 -0.0282
23.3600 15.5425 -0.0203
23.3800 15.5559 0.0024
23.4000 15.5692 -0.0350
23.4200 15.5826 -0.0224
23.4400 15.5959 0.0005
23.4600 15.6093 -0.0330
23.4800 15.6226 -0.0229
23.5000 15.6359 -0.0019
23.5200 15.6493 -0.0386
23.5400 15.6626 -0.0200
23.5600 15.6760 -0.0035
23.5800 15.6893 -0.0404
23.6000 15.7025 -0.0117
23.6200 15.7159 -0.0111
23.6400 15.7292 -0.0431
23.6600 15.7425 -0.0050
23.6800 15.7558 -0.0154
23.7000 15.7692 -0.0371
23.7200 15.7825 -0.0081
23.7400 15.7958 -0.0216
23.7600 15.8092 -0.0327
23.7800 15.8225 -0.0061
23.8000 15.8359 -0.0232
23.8200 15.8493 -0.0270
23.8400 15.8626 -0.0139
23.8600 15.8759 -0.0252
23.8800 15.8893 -0.0169
23.9000 15.9026 -0.0143
23.9200 15.9159 -0.0286
23.9400 15.9292 -0.0120
23.9600 15.9425 -0.0237
23.9800 15.9558 -0.0200
24.0000 15.9692 -0.0162
24.0200 15.9825 -0.0231
24.0400 15.9958 -0.0172
24.0600 16.0092 -0.0139
24.0800 16.0225 -0.0301
24.1000 16.0359 -0.0137
24.1200 16.0492 -0.0116
24.1400 16.0626 -0.0319
24.1600 16.0759 -0.0082
24.1800 16.0892 -0.0179
24.2000 16.1026 -0.0296
24.2200 16.1159 -0.0066
24.2400 16.1292 -0.0228
24.2600 16.1426 -0.0170
24.2800 16.1559 -0.0093
24.3000 16.1692 -0.0247
24.3200 16.1826 -0.0169
24.3400 16.1959 -0.0056
24.3600 16.2093 -0.0270
24.3800 16.2226 -0.0172
24.4000 16.2359 -0.0043
24.4200 16.2492 -0.0267
24.4400 16.2625 -0.0141
24.4600 16.2759 -0.0100
24.4800 16.2892 -0.0294
24.5000 16.3025 -0.0081
24.5200 16.3159 -0.0157
24.5400 16.3292 -0.0275
24.5600 16.3426 -0.0061
24.5800 16.3559 -0.0166
24.6000 16.3692 -0.0238
24.6200 16.3826 -0.0095
24.6400 16.3960 -0.0174
24.6600 16.4093 -0.0247
24.6800 16.4226 -0.0067
24.7000 16.4359 -0.0251
24.7200 16.4493 -0.0210
24.7400 16.4626 -0.0160
24.7600 16.4759 -0.0258
24.7800 16.4892 -0.0131
24.8000 16.5025 -0.0146
24.8200 16.5158 -0.0228
24.8400 16.5292 -0.0194
24.8600 16.5425 -0.0191
24.8800 16.5559 -0.0173
24.9000 16.5693 -0.0213
24.9200 16.5826 -0.0234
24.9400 16.5959 -0.0161
24.9600 16.6093 -0.0188
24.9800 16.6226 -0.0267
25.0000 16.6360 -0.0168
25.0200 16.6493 -0.0219
25.0400 16.6626 -0.0216
25.0600 16.6759 -0.0140
25.0800 16.6892 -0.0277
25.1000 16.7025 -0.0197
25.1200 16.7158 -0.0161
25.1400 16.7291 -0.0270
25.1600 16.7425 -0.0216
25.1800 16.7559 -0.0177
25.2000 16.7692 -0.0288
25.2200 16.7825 -0.0217
25.2400 16.7959 -0.0181
25.2600 16.8092 -0.0338
25.2800 16.8226 -0.0218
25.3000 16.8359 -0.0230
25.3200 16.8493 -0.0334
25.3400 16.8626 -0.0211
25.3600 16.8760 -0.0288
25.3800 16.8893 -0.0281
25.4000 16.9026 -0.0241
25.4200 16.9159 -0.0254
25.4400 16.9292 -0.0281
25.4600 16.9425 -0.0325
25.4800 16.9558 -0.0254
25.5000 16.9691 -0.0294
25.5200 16.9825 -0.0297
25.5400 16.9958 -0.0257
25.5600 17.0091 -0.0285
25.5800 17.0225 -0.0303
25.6000 17.0359 -0.0295
25.6200 17.0493 -0.0285
25.6400 17.0626 -0.0335
25.6600 17.0759 -0.0243
25.6800 17.0892 -0.0308
25.7000 17.1026 -0.0334
25.7200 17.1159 -0.0254
25.7400 17.1293 -0.0348
25.7600 17.1426 -0.0314
25.7800 17.1559 -0.0266
25.8000 17.1692 -0.0363
25.8200 17.1826 -0.0295
25.8400 17.1959 -0.0287
25.8600 17.2092 -0.0378
25.8800 17.2225 -0.0296
25.9000 17.2359 -0.0335
25.9200 17.2492 -0.0377
25.9400 17.2625 -0.0300
25.9600 17.2759 -0.0313
25.9800 17.2893 -0.0393
26.0000 17.3026 -0.0344
26.0200 17.3159 -0.0365
26.0400 17.3293 -0.0372
26.0600 17.3426 -0.0336
26.0800 17.3560 -0.0361
26.1000 17.3693 -0.0384
26.1200 17.3826 -0.0372
26.1400 17.3959 -0.0358
26.1600 17.4092 -0.0363
26.1800 17.4225 -0.0398
26.2000 17.4358 -0.0339
26.2200 17.4492 -0.0400
26.2400 17.4625 -0.0435
26.2600 17.4759 -0.0317
26.2800 17.4892 -0.0342
26.3000 17.5026 -0.0458
26.3200 17.5159 -0.0319
26.3400 17.5292 -0.0359
26.3600 17.5426 -0.0429
26.3800 17.5559 -0.0312
26.4000 17.5692 -0.0401
26.4200 17.5826 -0.0366
26.4400 17.5959 -0.0287
26.4600 17.6093 -0.0416
26.4800 17.6226 -0.0329
26.5000 17.6359 -0.0332
26.5200 17.6493 -0.0415
26.5400 17.6626 -0.0309
26.5600 17.6759 -0.0366
26.5800 17.6891 -0.0327
26.6000 17.7024 -0.0273
26.6200 17.7158 -0.0364
26.6400 17.7291 -0.0335
26.6600 17.7425 -0.0256
26.6800 17.7559 -0.0314
26.7000 17.7693 -0.0333
26.7200 17.7826 -0.0304
26.7400 17.7960 -0.0320
26.7600 17.8093 -0.0312
26.7800 17.8226 -0.0335
26.8000 17.8360 -0.0331
26.8200 17.8493 -0.0297
26.8400 17.8626 -0.0348
26.8600 17.8759 -0.0307
26.8800 17.8892 -0.0327
26.9000 17.9025 -0.0293
26.9200 17.9158 -0.0313
26.9400 17.9291 -0.0385
26.9600 17.9425 -0.0292
26.9800 17.9558 -0.0342
27.0000 17.9692 -0.0369
27.0200 17.9825 -0.0323
27.0400 17.9959 -0.0378
27.0600 18.0093 -0.0369
27.0800 18.0226 -0.0327
27.1000 18.0360 -0.0349
27.1200 18.0493 -0.0395
27.1400 18.0626 -0.0341
27.1600 18.0760 -0.0413
27.1800 18.0893 -0.0385
27.2000 18.1026 -0.0436
27.2200 18.1159 -0.0401
27.2400 18.1292 -0.0399
27.2600 18.1426 -0.0429
27.2800 18.1559 -0.0412
27.3000 18.1692 -0.0450
27.3200 18.1825 -0.0399
27.3400 18.1959 -0.0472
27.3600 18.2092 -0.0461
27.3800 18.2226 -0.0358
27.4000 18.2359 -0.0466
27.4200 18.2492 -0.0454
27.4400 18.2626 -0.0425
27.4600 18.2759 -0.0455
27.4800 18.2893 -0.0392
27.5000 18.3026 -0.0432
27.5200 18.3159 -0.0486
27.5400 18.3293 -0.0366
27.5600 18.3426 -0.0430
27.5800 18.3559 -0.0483
27.6000 18.3693 -0.0330
27.6200 18.3826 -0.0408
27.6400 18.3959 -0.0515
27.6600 18.4092 -0.0406
27.6800 18.4225 -0.0415
27.7000 18.4359 -0.0470
27.7200 18.4492 -0.0439
27.7400 18.4625 -0.0473
27.7600 18.4759 -0.0492
27.7800 18.4892 -0.0427
27.8000 18.5026 -0.0488
27.8200 18.5160 -0.0501
27.8400 18.5293 -0.0389
27.8600 18.5426 -0.0504
27.8800 18.5559 -0.0465
27.9000 18.5693 -0.0419
27.9200 18.5825 -0.0496
27.9400 18.5958 -0.0474
27.9600 18.6092 -0.0441
27.9800 18.6226 -0.0571
28.0000 18.6359 -0.0459
28.0200 18.6492 -0.0440
28.0400 18.6625 -0.0551
28.0600 18.6759 -0.0503
28.0800 18.6892 -0.0446
28.1000 18.7025 -0.0522
28.1200 18.7158 -0.0503
28.1400 18.7292 -0.0454
28.1600 18.7426 -0.0561
28.1800 18.7560 -0.0497
28.2000 18.7693 -0.0521
28.2200 18.7826 -0.0508
28.2400 18.7960 -0.0453
28.2600 18.8093 -0.0515
28.2800 18.8226 -0.0514
28.3000 18.8359 -0.0452
28.3200 18.8492 -0.0482
28.3400 18.8626 -0.0461
28.3600 18.8759 -0.0484
28.3800 18.8892 -0.0447
28.4000 18.9025 -0.0403
28.4200 18.9158 -0.0431
28.4400 18.9292 -0.0454
28.4600 18.9425 -0.0426
28.4800 18.9559 -0.0455
28.5000 18.9692 -0.0373
28.5200 18.9826 -0.0435
28.5400 18.9959 -0.0478
28.5600 19.0092 -0.0345
28.5800 19.0226 -0.0459
28.6000 19.0359 -0.0460
28.6200 19.0493 -0.0349
28.6400 19.0626 -0.0499
28.6600 19.0759 -0.0431
28.6800 19.0892 -0.0374
28.7000 19.1026 -0.0487
28.7200 19.1159 -0.0427
28.7400 19.1292 -0.0406
28.7600 19.1425 -0.0520
28.7800 19.1558 -0.0423
28.8000 19.1691 -0.0474
28.8200 19.1825 -0.0503
28.8400 19.1958 -0.0440
28.8600 19.2092 -0.0505
28.8800 19.2226 -0.0532
28.9000 19.2360 -0.0462
28.9200 19.2493 -0.0470
28.9400 19.2626 -0.0516
28.9600 19.2760 -0.0511
28.9800 19.2893 -0.0490
29.0000 19.3026 -0.0476
29.0200 19.3158 -0.0525
29.0400 19.3292 -0.0473
29.0600 19.3425 -0.0482
29.0800 19.3558 -0.0492
29.1000 19.3692 -0.0517
29.1200 19.3825 -0.0515
29.1400 19.3959 -0.0472
29.1600 19.4092 -0.0487
29.1800 19.4226 -0.0525
29.2000 19.4359 -0.0517
29.2200 19.4492 -0.0462
29.2400 19.4626 -0.0544
29.2600 19.4759 -0.0527
29.2800 19.4892 -0.0472
29.3000 19.5026 -0.0548
29.3200 19.5159 -0.0494
29.3400 19.5292 -0.0488
29.3600 19.5425 -0.0516
29.3800 19.5559 -0.0459
29.4000 19.5692 -0.0501
29.4200 19.5826 -0.0561
29.4400 19.5959 -0.0480
29.4600 19.6092 -0.0485
29.4800 19.6225 -0.0559
29.5000 19.6359 -0.0506
29.5200 19.6492 -0.0504
29.5400 19.6625 -0.0533
29.5600 19.6759 -0.0489
29.5800 19.6892 -0.0492
29.6000 19.7026 -0.0548
29.6200 19.7159 -0.0473
29.6400 19.7292 -0.0506
29.6600 19.7425 -0.0524
29.6800 19.7559 -0.0495
29.7000 19.7693 -0.0506
29.7200 19.7826 -0.0566
29.7400 19.7959 -0.0471
29.7600 19.8092 -0.0500
29.7800 19.8226 -0.0587
29.8000 19.8359 -0.0474
29.8200 19.8492 -0.0533
29.8400 19.8625 -0.0580
29.8600 19.8758 -0.0456
29.8800 19.8892 -0.0588
29.9000 19.9025 -0.0647
29.9200 19.9159 -0.0470
29.9400 19.9292 -0.0600
29.9600 19.9426 -0.0628
29.9800 19.9560 -0.0468
30.0000 19.9693 -0.0658
30.0200 19.9826 -0.0591
30.0400 19.9959 -0.0531
30.0600 20.0093 -0.0679
30.0800 20.0226 -0.0583
30.1000 20.0359 -0.0511
30.1200 20.0492 -0.0655
30.1400 20.0625 -0.0585
30.1600 20.0759 -0.0565
30.1800 20.0892 -0.0650
30.2000 20.1025 -0.0593
30.2200 20.1159 -0.0610
30.2400 20.1292 -0.0669
30.2600 20.1425 -0.0584
30.2800 20.1559 -0.0653
30.3000 20.1692 -0.0695
30.3200 20.1826 -0.0572
30.3400 20.1959 -0.0665
30.3600 20.2092 -0.0684
30.3800 20.2226 -0.0627
30.4000 20.2359 -0.0690
30.4200 20.2493 -0.0694
30.4400 20.2626 -0.0674
30.4600 20.2759 -0.0736
30.4800 20.2892 -0.0648
30.5000 20.3026 -0.0675
30.5200 20.3159 -0.0692
30.5400 20.3292 -0.0670
30.5600 20.3425 -0.0677
30.5800 20.3558 -0.0659
30.6000 20.3692 -0.0680
30.6200 20.3825 -0.0680
30.6400 20.3959 -0.0641
30.6600 20.4093 -0.0680
30.6800 20.4226 -0.0360
30.7000 20.4360 0.0299
30.7200 20.4493 0.0923
30.7400 20.4626 0.1529
30.7600 20.4759 0.2258
30.7800 20.4893 0.2763
30.8000 20.5026 0.3234
30.8200 20.5159 0.3836
30.8400 20.5292 0.4294
30.8600 20.5425 0.4661
30.8800 20.5559 0.5122
30.9000 20.5692 0.5452
30.9200 20.5825 0.5500
30.9400 20.5958 0.5376
30.9600 20.6092 0.5184
30.9800 20.6225 0.5060
31.0000 20.6358 0.5067
31.0200 20.6492 0.5062
31.0400 20.6626 0.5055
31.0600 20.6760 0.5052
31.0800 20.6893 0.5035
31.1000 20.7026 0.4941
31.1200 20.7159 0.5042
31.1400 20.7293 0.5041
31.1600 20.7426 0.4932
31.1800 20.7559 0.5081
31.2000 20.7692 0.5173
31.2200 20.7825 0.4977
31.2400 20.7959 0.5043
31.2600 20.8092 0.5064
31.2800 20.8225 0.4880
31.3000 20.8359 0.5018
31.3200 20.8493 0.5020
31.3400 20.8626 0.4791
31.3600 20.8759 0.4980
31.3800 20.8892 0.4981
31.4000 20.9026 0.4787
31.4200 20.9159 0.5027
31.4400 20.9292 0.4979
31.4600 20.9425 0.4765
31.4800 20.9559 0.5075
31.5000 20.9692 0.4909
31.5200 20.9826 0.4774
31.5400 20.9959 0.5079
31.5600 21.0092 0.4806
31.5800 21.0226 0.4746
31.6000 21.0359 0.5020
31.6200 21.0492 0.4763
31.6400 21.0625 0.4729
31.6600 21.0759 0.5012
31.6800 21.0892 0.4736
31.7000 21.1025 0.4813
31.7200 21.1158 0.4944
31.7400 21.1292 0.4675
31.7600 21.1425 0.4788
31.7800 21.1559 0.4852
31.8000 21.1692 0.4621
31.8200 21.1825 0.4752
31.8400 21.1959 0.4721
31.8600 21.2093 0.4596
31.8800 21.2226 0.4752
31.9000 21.2359 0.4719
31.9200 21.2492 0.4626
31.9400 21.2626 0.4760
31.9600 21.2759 0.4703
31.9800 21.2892 0.4587
32.0000 21.3025 0.4707
32.0200 21.3158 0.4698
32.0400 21.3292 0.4610
32.0600 21.3425 0.4643
32.0800 21.3559 0.4639
32.1000 21.3692 0.4608
32.1200 21.3826 0.4594
32.1400 21.3960 0.4622
32.1600 21.4093 0.4594
32.1800 21.4226 0.4537
32.2000 21.4359 0.4629
32.2200 21.4493 0.4529
32.2400 21.4626 0.4507
32.2600 21.4759 0.4683
32.2800 21.4892 0.4522
32.3000 21.5025 0.4452
32.3200 21.5159 0.4632
32.3400 21.5292 0.4480
32.3600 21.5425 0.4454
32.3800 21.5558 0.4640
32.4000 21.5692 0.4494
32.4200 21.5825 0.4457
32.4400 21.5959 0.4636
32.4600 21.6092 0.4449
32.4800 21.6225 0.4471
32.5000 21.6359 0.4525
32.5200 21.6493 0.4376
32.5400 21.6626 0.4461
32.5600 21.6759 0.4515
32.5800 21.6893 0.4394
32.6000 21.7026 0.4417
32.6200 21.7159 0.4467
32.6400 21.7292 0.4391
32.6600 21.7425 0.4467
32.6800 21.7559 0.4447
32.7000 21.7692 0.4335
32.7200 21.7825 0.4435
32.7400 21.7958 0.4414
32.7600 21.8092 0.4345
32.7800 21.8225 0.4383
32.8000 21.8358 0.4460
32.8200 21.8492 0.4302
32.8400 21.8626 0.4320
32.8600 21.8760 0.4396
32.8800 21.8893 0.4252
32.9000 21.9026 0.4381
32.9200 21.9159 0.4303
32.9400 21.9293 0.4236
32.9600 21.9426 0.4364
32.9800 21.9559 0.4251
33.0000 21.9692 0.4258
33.0200 21.9826 0.4360
33.0400 21.9959 0.4227
33.0600 22.0093 0.4263
33.0800 22.0226 0.4335
33.1000 22.0359 0.4241
33.1200 22.0492 0.4231
33.1400 22.0625 0.4270
33.1600 22.0759 0.4170
33.1800 22.0892 0.4258
33.2000 22.1026 0.4264
33.2200 22.1159 0.4110
33.2400 22.1293 0.4239
33.2600 22.1426 0.4234
33.2800 22.1559 0.4119
33.3000 22.1693 0.4263
33.3200 22.1826 0.4186
33.3400 22.1959 0.4122
33.3600 22.2092 0.4199
33.3800 22.2225 0.4215
33.4000 22.2359 0.4155
33.4200 22.2492 0.4143
33.4400 22.2625 0.4182
33.4600 22.2758 0.4113
33.4800 22.2892 0.4104
33.5000 22.3025 0.4133
33.5200 22.3159 0.4118
33.5400 22.3292 0.4116
33.5600 22.3425 0.4108
33.5800 22.3559 0.4110
33.6000 22.3692 0.4092
33.6200 22.3825 0.4116
33.6400 22.3959 0.4024
33.6600 22.4092 0.4085
33.6800 22.4226 0.4085
33.7000 22.4359 0.3993
33.7200 22.4493 0.4123
33.7400 22.4626 0.4089
33.7600 22.4760 0.4002
33.7800 22.4893 0.4043
33.8000 22.5025 0.4103
33.8200 22.5158 0.4029
33.8400 22.5291 0.4007
33.8600 22.5425 0.4005
33.8800 22.5558 0.3987
33.9000 22.5692 0.4019
33.9200 22.5826 0.3989
33.9400 22.5960 0.3975
33.9600 22.6093 0.3985
33.9800 22.6226 0.3969
34.0000 22.6360 0.3932
34.0200 22.6493 0.3911
34.0400 22.6627 0.4034
34.0600 22.6760 0.3872
34.0800 22.6892 0.3894
34.1000 22.7025 0.4022
34.1200 22.7159 0.3903
34.1400 22.7292 0.3871
34.1600 22.7425 0.4039
34.1800 22.7558 0.3875
34.2000 22.7691 0.3903
34.2200 22.7825 0.4005
34.2400 22.7958 0.3852
34.2600 22.8092 0.3904
34.2800 22.8226 0.3969
34.3000 22.8360 0.3813
34.3200 22.8493 0.3902
34.3400 22.8626 0.3914
34.3600 22.8760 0.3795
34.3800 22.8893 0.3896
34.4000 22.9026 0.3862
34.4200 22.9159 0.3793
34.4400 22.9292 0.3915
34.4600 22.9425 0.3853
34.4800 22.9559 0.3795
34.5000 22.9692 0.3864
34.5200 22.9825 0.3796
34.5400 22.9958 0.3770
34.5600 23.0092 0.3804
34.5800 23.0225 0.3844
34.6000 23.0359 0.3727
34.6200 23.0492 0.3773
34.6400 23.0625 0.3788
34.6600 23.0759 0.3741
34.6800 23.0892 0.3768
34.7000 23.1026 0.3722
34.7200 23.1159 0.3750
34.7400 23.1293 0.3745
34.7600 23.1426 0.3770
34.7800 23.1559 0.3692
34.8000 23.1692 0.3743
34.8200 23.1826 0.3782
34.8400 23.1959 0.3677
34.8600 23.2092 0.3717
34.8800 23.2225 0.3749
34.9000 23.2358 0.3668
34.9200 23.2492 0.3673
34.9400 23.2625 0.3705
34.9600 23.2759 0.3661
34.9800 23.2892 0.3697
35.0000 23.3026 0.3688
35.0200 23.3159 0.3634
35.0400 23.3293 0.3667
35.0600 23.3426 0.3663
35.0800 23.3559 0.3583
35.1000 23.3693 0.3688
35.1200 23.3826 0.3620
35.1400 23.3959 0.3555
35.1600 23.4092 0.3665
35.1800 23.4225 0.3633
35.2000 23.4359 0.3581
35.2200 23.4492 0.3630
35.2400 23.4625 0.3613
35.2600 23.4758 0.3545
35.2800 23.4892 0.3660
35.3000 23.5025 0.3539
35.3200 23.5159 0.3543
35.3400 23.5292 0.3633
35.3600 23.5425 0.3525
35.3800 23.5559 0.3528
35.4000 23.5693 0.3609
35.4200 23.5826 0.3507
35.4400 23.5959 0.3546
35.4600 23.6093 0.3569
35.4800 23.6226 0.3505
35.5000 23.6360 0.3569
35.5200 23.6493 0.3522
35.5400 23.6626 0.3525
35.5600 23.6759 0.3592
35.5800 23.6892 0.3436
35.6000 23.7025 0.3532
35.6200 23.7159 0.3560
35.6400 23.7292 0.3416
35.6600 23.7425 0.3524
35.6800 23.7559 0.3553
35.7000 23.7692 0.3415
35.7200 23.7825 0.3583
35.7400 23.7959 0.3501
35.7600 23.8093 0.3421
35.7800 23.8226 0.3572
35.8000 23.8359 0.3437
35.8200 23.8492 0.3461
35.8400 23.8626 0.3538
35.8600 23.8759 0.3426
35.8800 23.8892 0.3446
35.9000 23.9026 0.3518
35.9200 23.9159 0.3334
35.9400 23.9292 0.3449
35.9600 23.9425 0.3484
35.9800 23.9558 0.3353
36.0000 23.9691 0.3405
36.0200 23.9825 0.3472
36.0400 23.9958 0.3352
36.0600 24.0091 0.3414
36.0800 24.0225 0.3426
36.1000 24.0359 0.3349
36.1200 24.0493 0.3337
36.1400 24.0627 0.3380
36.1600 24.0760 0.3343
36.1800 24.0893 0.3377
36.2000 24.1026 0.3319
36.2200 24.1159 0.3303
36.2400 24.1292 0.3348
36.2600 24.1425 0.3342
36.2800 24.1558 0.3276
36.3000 24.1692 0.3344
36.3200 24.1825 0.3282
36.3400 24.1958 0.3292
36.3600 24.2092 0.3299
36.3800 24.2225 0.3275
36.4000 24.2359 0.3278
36.4200 24.2492 0.3236
36.4400 24.2626 0.3272
36.4600 24.2759 0.3272
36.4800 24.2893 0.3202
36.5000 24.3026 0.3245
36.5200 24.3159 0.3273
36.5400 24.3292 0.3184
36.5600 24.3426 0.3193
36.5800 24.3559 0.3263
36.6000 24.3692 0.3198
36.6200 24.3825 0.3203
36.6400 24.3959 0.3204
36.6600 24.4092 0.3095
36.6800 24.4225 0.3223
36.7000 24.4358 0.3197
36.7200 24.4492 0.3139
36.7400 24.4625 0.3183
36.7600 24.4759 0.3169
36.7800 24.4892 0.3131
36.8000 24.5025 0.3219
36.8200 24.5159 0.3190
36.8400 24.5293 0.3183
36.8600 24.5426 0.3133
36.8800 24.5559 0.3151
36.9000 24.5693 0.3165
36.9200 24.5826 0.3186
36.9400 24.5959 0.3141
36.9600 24.6092 0.3176
36.9800 24.6225 0.3135
37.0000 24.6359 0.3177
37.0200 24.6492 0.3166
37.0400 24.6625 0.3082
37.0600 24.6758 0.3181
37.0800 24.6892 0.3142
37.1000 24.7025 0.3037
37.1200 24.7159 0.3193
37.1400 24.7292 0.3148
37.1600 24.7425 0.3050
37.1800 24.7559 0.3194
37.2000 24.7693 0.3085
37.2200 24.7826 0.3066
37.2400 24.7959 0.3138
37.2600 24.8093 0.3043
37.2800 24.8226 0.3059
37.3000 24.8359 0.3155
37.3200 24.8492 0.3059
37.3400 24.8625 0.3015
37.3600 24.8759 0.3148
37.3800 24.8892 0.3036
37.4000 24.9025 0.3060
37.4200 24.9159 0.3093
37.4400 24.9292 0.2942
37.4600 24.9425 0.3058
37.4800 24.9559 0.3042
37.5000 24.9692 0.3001
37.5200 24.9825 0.3030
37.5400 24.9959 0.3052
37.5600 25.0093 0.2898
37.5800 25.0226 0.3025
37.6000 25.0359 0.3033
37.6200 25.0492 0.2892
37.6400 25.0626 0.3045
37.6600 25.0760 0.2969
37.6800 25.0893 0.2911
37.7000 25.1026 0.3011
37.7200 25.1159 0.2911
37.7400 25.1292 0.2886
37.7600 25.1425 0.2957
37.7800 25.1558 0.2974
37.8000 25.1691 0.2915
37.8200 25.1825 0.2962
37.8400 25.1958 0.2907
37.8600 25.2092 0.2892
37.8800 25.2226 0.2945
37.9000 25.2359 0.2873
37.9200 25.2493 0.2910
37.9400 25.2626 0.2857
37.9600 25.2759 0.2867
37.9800 25.2893 0.2943
38.0000 25.3026 0.2839
38.0200 25.3160 0.2864
38.0400 25.3293 0.2850
38.0600 25.3425 0.2829
38.0800 25.3559 0.2919
38.1000 25.3692 0.2846
38.1200 25.3826 0.2808
38.1400 25.3959 0.2850
38.1600 25.4092 0.2879
38.1800 25.4225 0.2786
38.2000 25.4359 0.2846
38.2200 25.4492 0.2816
38.2400 25.4625 0.2763
38.2600 25.4759 0.2840
38.2800 25.4892 0.2761
38.3000 25.5026 0.2758
38.3200 25.5159 0.2862
38.3400 25.5293 0.2720
38.3600 25.5426 0.2736
38.3800 25.5559 0.2834
38.4000 25.5692 0.2756
38.4200 25.5825 0.2747
38.4400 25.5958 0.2827
38.4600 25.6092 0.2706
38.4800 25.6225 0.2708
38.5000 25.6358 0.2790
38.5200 25.6492 0.2702
38.5400 25.6625 0.2692
38.5600 25.6759 0.2731
38.5800 25.6892 0.2675
38.6000 25.7026 0.2727
38.6200 25.7159 0.2703
38.6400 25.7293 0.2689
38.6600 25.7426 0.2729
38.6800 25.7559 0.2701
38.7000 25.7692 0.2671
38.7200 25.7826 0.2676
38.7400 25.7959 0.2667
38.7600 25.8093 0.2628
38.7800 25.8226 0.2649
38.8000 25.8359 0.2671
38.8200 25.8493 0.2638
38.8400 25.8626 0.2597
38.8600 25.8759 0.2641
38.8800 25.8892 0.2660
38.9000 25.9025 0.2576
38.9200 25.9159 0.2623
38.9400 25.9292 0.2645
38.9600 25.9425 0.2568
38.9800 25.9559 0.2669
39.0000 25.9692 0.2615
39.0200 25.9826 0.2538
39.0400 25.9959 0.2660
39.0600 26.0092 0.2577
39.0800 26.0226 0.2515
39.1000 26.0359 0.2664
39.1200 26.0492 0.2564
39.1400 26.0626 0.2524
39.1600 26.0759 0.2619
39.1800 26.0893 0.2579
39.2000 26.1026 0.2534
39.2200 26.1159 0.2672
39.2400 26.1292 0.2569
39.2600 26.1425 0.2549
39.2800 26.1558 0.2634
39.3000 26.1692 0.2502
39.3200 26.1825 0.2561
39.3400 26.1959 0.2589
39.3600 26.2093 0.2512
39.3800 26.2226 0.2532
39.4000 26.2359 0.2553
39.4200 26.2493 0.2491
39.4400 26.2626 0.2546
39.4600 26.2759 0.2530
39.4800 26.2892 0.2465
39.5000 26.3025 0.2538
39.5200 26.3159 0.2487
39.5400 26.3292 0.2507
39.5600 26.3425 0.2536
39.5800 26.3558 0.2496
39.6000 26.3692 0.2466
39.6200 26.3825 0.2498
39.6400 26.3959 0.2529
39.6600 26.4092 0.2449
39.6800 26.4226 0.2530
39.7000 26.4359 0.2481
39.7200 26.4492 0.2448
39.7400 26.4626 0.2540
39.7600 26.4759 0.2470
39.7800 26.4893 0.2421
39.8000 26.5026 0.2543
39.8200 26.5160 0.2453
39.8400 26.5293 0.2467
39.8600 26.5426 0.2514
39.8800 26.5559 0.2471
39.9000 26.5692 0.2454
39.9200 26.5825 0.2480
39.9400 26.5958 0.2432
39.9600 26.6091 0.2498
39.9800 26.6225 0.2465
40.0000 26.6358 0.2360
40.0200 26.6492 0.2436
40.0400 26.6625 0.2441
40.0600 26.6759 0.2352
40.0800 26.6893 0.2455
40.1000 26.7026 0.2384
40.1200 26.7159 0.2375
40.1400 26.7292 0.2407
40.1600 26.7426 0.2361
40.1800 26.7559 0.2366
40.2000 26.7692 0.2399
40.2200 26.7826 0.2373
40.2400 26.7959 0.2337
40.2600 26.8092 0.2393
40.2800 26.8226 0.2385
40.3000 26.8359 0.2319
40.3200 26.8492 0.2412
40.3400 26.8625 0.2398
40.3600 26.8759 0.2309
40.3800 26.8892 0.2342
40.4000 26.9025 0.2393
40.4200 26.9159 0.2317
40.4400 26.9293 0.2340
40.4600 26.9426 0.2372
40.4800 26.9559 0.2260
40.5000 26.9692 0.2336
40.5200 26.9826 0.2343
40.5400 26.9959 0.2254
40.5600 27.0093 0.2381
40.5800 27.0226 0.2287
40.6000 27.0359 0.2217
40.6200 27.0492 0.2327
40.6400 27.0625 0.2273
40.6600 27.0759 0.2200
40.6800 27.0892 0.2314
40.7000 27.1025 0.2279
40.7200 27.1159 0.2185
40.7400 27.1292 0.2347
40.7600 27.1425 0.2267
40.7800 27.1559 0.2207
40.8000 27.1692 0.2256
40.8200 27.1826 0.2238
40.8400 27.1959 0.2171
40.8600 27.2092 0.2280
40.8800 27.2225 0.2256
40.9000 27.2359 0.2129
40.9200 27.2493 0.2221
40.9400 27.2626 0.2246
40.9600 27.2759 0.2160
40.9800 27.2893 0.2228
41.0000 27.3026 0.2164
41.0200 27.3159 0.2104
41.0400 27.3292 0.2209
41.0600 27.3425 0.2175
41.0800 27.3558 0.2134
41.1000 27.3692 0.2180
41.1200 27.3825 0.2122
41.1400 27.3959 0.2115
41.1600 27.4093 0.2206
41.1800 27.4226 0.2098
41.2000 27.4360 0.2096
41.2200 27.4493 0.2120
41.2400 27.4626 0.2069
41.2600 27.4760 0.2069
41.2800 27.4893 0.2150
41.3000 27.5026 0.2119
41.3200 27.5159 0.2072
41.3400 27.5292 0.2131
41.3600 27.5425 0.2113
41.3800 27.5559 0.2043
41.4000 27.5692 0.2124
41.4200 27.5825 0.2069
41.4400 27.5958 0.1979
41.4600 27.6092 0.2114
41.4800 27.6225 0.2030
41.5000 27.6359 0.1983
41.5200 27.6493 0.2131
41.5400 27.6626 0.2014
41.5600 27.6760 0.2023
41.5800 27.6893 0.2144
41.6000 27.7026 0.2024
41.6200 27.7159 0.1973
41.6400 27.7293 0.2094
41.6600 27.7426 0.2004
41.6800 27.7559 0.2015
41.7000 27.7692 0.2088
41.7200 27.7826 0.1994
41.7400 27.7959 0.2010
41.7600 27.8092 0.2073
41.7800 27.8225 0.2022
41.8000 27.8359 0.2000
41.8200 27.8492 0.2007
41.8400 27.8626 0.1985
41.8600 27.8759 0.1983
41.8800 27.8893 0.2042
41.9000 27.9026 0.1959
41.9200 27.9160 0.1919
41.9400 27.9293 0.2084
41.9600 27.9426 0.1958
41.9800 27.9559 0.1935
42.0000 27.9693 0.2032
42.0200 27.9826 0.1930
42.0400 27.9959 0.1935
42.0600 28.0092 0.1982
42.0800 28.0226 0.1900
42.1000 28.0359 0.1923
42.1200 28.0492 0.1995
42.1400 28.0625 0.1912
42.1600 28.0758 0.1953
42.1800 28.0892 0.1947
42.2000 28.1025 0.1836
42.2200 28.1159 0.1913
42.2400 28.1293 0.1918
42.2600 28.1426 0.1895
42.2800 28.1560 0.1848
42.3000 28.1693 0.1910
42.3200 28.1826 0.1888
42.3400 28.1959 0.1846
42.3600 28.2092 0.1925
42.3800 28.2225 0.1884
42.4000 28.2358 0.1841
42.4200 28.2492 0.1860
42.4400 28.2626 0.1855
42.4600 28.2759 0.1831
42.4800 28.2892 0.1849
42.5000 28.3025 0.1895
42.5200 28.3159 0.1792
42.5400 28.3292 0.1833
42.5600 28.3425 0.1856
42.5800 28.3558 0.1787
42.6000 28.3692 0.1863
42.6200 28.3826 0.1798
42.6400 28.3959 0.1787
42.6600 28.4093 0.1832
42.6800 28.4226 0.1784
42.7000 28.4360 0.1756
42.7200 28.4493 0.1825
42.7400 28.4626 0.1794
42.7600 28.4759 0.1744
42.7800 28.4892 0.1847
42.8000 28.5026 0.1762
42.8200 28.5159 0.1750
42.8400 28.5292 0.1798
42.8600 28.5425 0.1734
42.8800 28.5558 0.1745
42.9000 28.5692 0.1788
42.9200 28.5825 0.1772
42.9400 28.5959 0.1693
42.9600 28.6092 0.1793
42.9800 28.6226 0.1755
43.0000 28.6359 0.1676
43.0200 28.6492 0.1801
43.0400 28.6626 0.1725
43.0600 28.6759 0.1682
43.0800 28.6893 0.1785
43.1000 28.7026 0.1741
43.1200 28.7159 0.1755
43.1400 28.7292 0.1724
43.1600 28.7426 0.1717
43.1800 28.7559 0.1750
43.2000 28.7692 0.1733
43.2200 28.7825 0.1672
43.2400 28.7958 0.1749
43.2600 28.8091 0.1689
43.2800 28.8225 0.1649
43.3000 28.8358 0.1743
43.3200 28.8492 0.1669
43.3400 28.8626 0.1614
43.3600 28.8760 0.1723
43.3800 28.8893 0.1609
43.4000 28.9027 0.1686
43.4200 28.9160 0.1704
43.4400 28.9293 0.1614
43.4600 28.9426 0.1708
43.4800 28.9558 0.1681
43.5000 28.9691 0.1637
43.5200 28.9825 0.1696
43.5400 28.9958 0.1642
43.5600 29.0092 0.1593
43.5800 29.0225 0.1679
43.6000 29.0359 0.1660
43.6200 29.0492 0.1594
43.6400 29.0626 0.1652
43.6600 29.0759 0.1635
43.6800 29.0893 0.1615
43.7000 29.1027 0.1639
43.7200 29.1160 0.1582
43.7400 29.1293 0.1580
43.7600 29.1426 0.1637
43.7800 29.1559 0.1599
43.8000 29.1693 0.1515
43.8200 29.1826 0.1651
43.8400 29.1959 0.1596
43.8600 29.2092 0.1553
43.8800 29.2225 0.1641
43.9000 29.2359 0.1536
43.9200 29.2492 0.1542
43.9400 29.2625 0.1621
43.9600 29.2758 0.1566
43.9800 29.2892 0.1534
44.0000 29.3025 0.1598
44.0200 29.3159 0.1509
44.0400 29.3292 0.1534
44.0600 29.3426 0.1597
44.0800 29.3559 0.1522
44.1000 29.3692 0.1588
44.1200 29.3826 0.1556
44.1400 29.3959 0.1532
44.1600 29.4093 0.1544
44.1800 29.4226 0.1526
44.2000 29.4359 0.1568
44.2200 29.4492 0.1534
44.2400 29.4626 0.1506
44.2600 29.4759 0.1563
44.2800 29.4892 0.1541
44.3000 29.5025 0.1507
44.3200 29.5158 0.1568
44.3400 29.5292 0.1456
44.3600 29.5425 0.1453
44.3800 29.5558 0.1560
44.4000 29.5692 0.1448
44.4200 29.5826 0.1465
44.4400 29.5960 0.1548
44.4600 29.6093 0.1405
44.4800 29.6226 0.1525
44.5000 29.6359 0.1557
44.5200 29.6493 0.1378
44.5400 29.6626 0.1484
44.5600 29.6759 0.1510
44.5800 29.6892 0.1353
44.6000 29.7026 0.1539
44.6200 29.7159 0.1479
44.6400 29.7292 0.1330
44.6600 29.7425 0.1523
44.6800 29.7558 0.1465
44.7000 29.7692 0.1350
44.7200 29.7825 0.1484
44.7400 29.7959 0.1462
44.7600 29.8092 0.1354
44.7800 29.8226 0.1473
44.8000 29.8359 0.1427
44.8200 29.8493 0.1340
44.8400 29.8626 0.1513
44.8600 29.8759 0.1402
44.8800 29.8893 0.1359
44.9000 29.9026 0.1463
44.9200 29.9159 0.1369
44.9400 29.9292 0.1381
44.9600 29.9425 0.1438
44.9800 29.9559 0.1312
45.0000 29.9692 0.1340
45.0200 29.9825 0.1401
45.0400 29.9958 0.1310
45.0600 30.0092 0.1343
45.0800 30.0225 0.1391
45.1000 30.0359 0.1316
45.1200 30.0492 0.1304
45.1400 30.0626 0.1319
45.1600 30.0760 0.1280
45.1800 30.0893 0.1361
45.2000 30.1026 0.1288
45.2200 30.1159 0.1312
45.2400 30.1293 0.1271
45.2600 30.1426 0.1294
45.2800 30.1559 0.1326
45.3000 30.1692 0.1268
45.3200 30.1825 0.1279
45.3400 30.1959 0.1275
45.3600 30.2092 0.1256
45.3800 30.2225 0.1273
45.4000 30.2358 0.1271
45.4200 30.2492 0.1263
45.4400 30.2625 0.1257
45.4600 30.2759 0.1281
45.4800 30.2892 0.1263
45.5000 30.3026 0.1258
45.5200 30.3160 0.1219
45.5400 30.3293 0.1238
45.5600 30.3426 0.1239
45.5800 30.3559 0.1229
45.6000 30.3693 0.1234
45.6200 30.3826 0.1201
45.6400 30.3958 0.1300
45.6600 30.4091 0.1220
45.6800 30.4225 0.1213
45.7000 30.4358 0.1285
45.7200 30.4492 0.1216
45.7400 30.4625 0.1190
45.7600 30.4759 0.1242
45.7800 30.4892 0.1171
45.8000 30.5026 0.1234
45.8200 30.5159 0.1259
45.8400 30.5292 0.1181
45.8600 30.5426 0.1236
45.8800 30.5559 0.1245
45.9000 30.5692 0.1156
45.9200 30.5825 0.1186
45.9400 30.5959 0.1257
45.9600 30.6092 0.1165
45.9800 30.6226 0.1198
46.0000 30.6359 0.1248
46.0200 30.6493 0.1160
46.0400 30.6626 0.1256
46.0600 30.6759 0.1166
46.0800 30.6892 0.1154
46.1000 30.7025 0.1212
46.1200 30.7158 0.1178
46.1400 30.7292 0.1102
46.1600 30.7425 0.1231
46.1800 30.7558 0.1186
46.2000 30.7692 0.1094
46.2200 30.7825 0.1203
46.2400 30.7959 0.1170
46.2600 30.8092 0.1078
46.2800 30.8226 0.1172
46.3000 30.8359 0.1153
46.3200 30.8493 0.1124
46.3400 30.8626 0.1121
46.3600 30.8759 0.1184
46.3800 30.8892 0.1152
46.4000 30.9026 0.1094
46.4200 30.9159 0.1214
46.4400 30.9293 0.1087
46.4600 30.9425 0.1125
46.4800 30.9558 0.1195
46.5000 30.9692 0.1036
46.5200 30.9825 0.1083
46.5400 30.9958 0.1188
46.5600 31.0092 0.1031
46.5800 31.0226 0.1087
46.6000 31.0359 0.1162
46.6200 31.0493 0.0982
46.6400 31.0626 0.1108
46.6600 31.0759 0.1162
46.6800 31.0893 0.0986
46.7000 31.1026 0.1118
46.7200 31.1159 0.1089
46.7400 31.1292 0.1017
46.7600 31.1425 0.1102
46.7800 31.1559 0.1048
46.8000 31.1692 0.1029
46.8200 31.1825 0.1079
46.8400 31.1958 0.1055
46.8600 31.2092 0.1010
46.8800 31.2226 0.0996
46.9000 31.2359 0.1039
46.9200 31.2492 0.1034
46.9400 31.2625 0.1053
46.9600 31.2759 0.1008
46.9800 31.2893 0.1023
47.0000 31.3026 0.1077
47.0200 31.3159 0.0996
47.0400 31.3293 0.1024
47.0600 31.3426 0.0991
47.0800 31.3559 0.0980
47.1000 31.3692 0.0993
47.1200 31.3826 0.0982
47.1400 31.3959 0.0970
47.1600 31.4092 0.1028
47.1800 31.4225 0.1007
47.2000 31.4358 0.0976
47.2200 31.4492 0.0981
47.2400 31.4625 0.1011
47.2600 31.4759 0.0919
47.2800 31.4892 0.0982
47.3000 31.5026 0.0958
47.3200 31.5159 0.0939
47.3400 31.5293 0.0940
47.3600 31.5426 0.0938
47.3800 31.5559 0.0956
47.4000 31.5692 0.0938
47.4200 31.5826 0.0955
47.4400 31.5959 0.0918
47.4600 31.6092 0.0941
47.4800 31.6225 0.0930
47.5000 31.6359 0.0880
47.5200 31.6492 0.0868
47.5400 31.6625 0.0907
47.5600 31.6759 0.0921
47.5800 31.6892 0.0884
47.6000 31.7025 0.0913
47.6200 31.7159 0.0893
47.6400 31.7292 0.0861
47.6600 31.7426 0.0924
47.6800 31.7560 0.0860
47.7000 31.7693 0.0872
47.7200 31.7826 0.0854
47.7400 31.7959 0.0861
47.7600 31.8093 0.0861
47.7800 31.8226 0.0839
47.8000 31.8359 0.0854
47.8200 31.8492 0.0884
47.8400 31.8625 0.0873
47.8600 31.8759 0.0798
47.8800 31.8892 0.0833
47.9000 31.9025 0.0869
47.9200 31.9159 0.0805
47.9400 31.9292 0.0853
47.9600 31.9425 0.0828
47.9800 31.9558 0.0856
48.0000 31.9692 0.0858
48.0200 31.9825 0.0836
48.0400 31.9959 0.0844
48.0600 32.0092 0.0806
48.0800 32.0225 0.0818
48.1000 32.0359 0.0819
48.1200 32.0492 0.0803
48.1400 32.0626 0.0809
48.1600 32.0759 0.0760
48.1800 32.0892 0.0817
48.2000 32.1026 0.0808
48.2200 32.1160 0.0797
48.2400 32.1293 0.0758
48.2600 32.1425 0.0818
48.2800 32.1558 0.0780
48.3000 32.1691 0.0801
48.3200 32.1825 0.0767
48.3400 32.1958 0.0786
48.3600 32.2092 0.0793
48.3800 32.2225 0.0789
48.4000 32.2359 0.0756
48.4200 32.2493 0.0722
48.4400 32.2626 0.0788
48.4600 32.2759 0.0732
48.4800 32.2893 0.0714
48.5000 32.3026 0.0785
48.5200 32.3160 0.0755
48.5400 32.3293 0.0720
48.5600 32.3425 0.0785
48.5800 32.3559 0.0710
48.6000 32.3692 0.0696
48.6200 32.3825 0.0794
48.6400 32.3958 0.0654
48.6600 32.4092 0.0664
48.6800 32.4225 0.0787
48.7000 32.4358 0.0647
48.7200 32.4492 0.0693
48.7400 32.4625 0.0801
48.7600 32.4759 0.0643
48.7800 32.4893 0.0674
48.8000 32.5026 0.0745
48.8200 32.5160 0.0608
48.8400 32.5293 0.0721
48.8600 32.5426 0.0718
48.8800 32.5559 0.0586
48.9000 32.5692 0.0704
48.9200 32.5825 0.0692
48.9400 32.5959 0.0593
48.9600 32.6092 0.0685
48.9800 32.6225 0.0676
49.0000 32.6358 0.0599
49.0200 32.6492 0.0672
49.0400 32.6625 0.0657
49.0600 32.6759 0.0545
49.0800 32.6892 0.0710
49.1000 32.7025 0.0622
49.1200 32.7159 0.0504
49.1400 32.7293 0.0690
49.1600 32.7426 0.0610
49.1800 32.7559 0.0536
49.2000 32.7692 0.0751
49.2200 32.7826 0.0605
49.2400 32.7959 0.0523
49.2600 32.8092 0.0673
49.2800 32.8226 0.0585
49.3000 32.8359 0.0513
49.3200 32.8492 0.0652
49.3400 32.8625 0.0547
49.3600 32.8758 0.0509
49.3800 32.8891 0.0676
49.4000 32.9025 0.0568
49.4200 32.9159 0.0512
49.4400 32.9292 0.0641
49.4600 32.9426 0.0585
49.4800 32.9559 0.0468
49.5000 32.9693 0.0628
49.5200 32.9826 0.0559
49.5400 32.9959 0.0483
49.5600 33.0093 0.0603
49.5800 33.0226 0.0543
49.6000 33.0359 0.0483
49.6200 33.0492 0.0597
49.6400 33.0625 0.0570
49.6600 33.0759 0.0479
49.6800 33.0892 0.0555
49.7000 33.1025 0.0553
49.7200 33.1158 0.0474
49.7400 33.1292 0.0570
49.7600 33.1425 0.0519
49.7800 33.1558 0.0468
49.8000 33.1692 0.0554
49.8200 33.1825 0.0517
49.8400 33.1959 0.0432
49.8600 33.2093 0.0524
49.8800 33.2226 0.0511
49.9000 33.2359 0.0438
49.9200 33.2493 0.0530
49.9400 33.2626 0.0506
49.9600 33.2760 0.0444
49.9800 33.2893 0.0513
50.0000 33.3026 0.0504
50.0200 33.3159 0.0454
50.0400 33.3292 0.0459
50.0600 33.3426 0.0494
50.0800 33.3559 0.0473
50.1000 33.3692 0.0443
50.1200 33.3825 0.0435
50.1400 33.3959 0.0465
50.1600 33.4092 0.0432
50.1800 33.4225 0.0471
50.2000 33.4359 0.0475
50.2200 33.4493 0.0378
50.2400 33.4626 0.0525
50.2600 33.4759 0.0455
50.2800 33.4892 0.0393
50.3000 33.5026 0.0510
50.3200 33.5159 0.0400
50.3400 33.5292 0.0353
50.3600 33.5426 0.0540
50.3800 33.5559 0.0402
50.4000 33.5693 0.0403
50.4200 33.5826 0.0504
50.4400 33.5958 0.0363
50.4600 33.6091 0.0380
50.4800 33.6225 0.0517
50.5000 33.6358 0.0344
50.5200 33.6491 0.0374
50.5400 33.6625 0.0490
50.5600 33.6759 0.0332
50.5800 33.6893 0.0407
50.6000 33.7027 0.0432
50.6200 33.7160 0.0307
50.6400 33.7293 0.0413
50.6600 33.7426 0.0402
50.6800 33.7559 0.0332
50.7000 33.7692 0.0403
50.7200 33.7825 0.0460
50.7400 33.7958 0.0295
50.7600 33.8092 0.0344
50.7800 33.8225 0.0438
50.8000 33.8358 0.0284
50.8200 33.8492 0.0358
50.8400 33.8626 0.0376
50.8600 33.8759 0.0258
50.8800 33.8892 0.0330
50.9000 33.9026 0.0347
50.9200 33.9159 0.0284
50.9400 33.9293 0.0312
50.9600 33.9426 0.0315
50.9800 33.9559 0.0291
51.0000 33.9692 0.0318
51.0200 33.9826 0.0328
51.0400 33.9959 0.0261
51.0600 34.0092 0.0301
51.0800 34.0225 0.0324
51.1000 34.0359 0.0270
51.1200 34.0492 0.0271
51.1400 34.0625 0.0282
51.1600 34.0758 0.0268
51.1800 34.0892 0.0300
51.2000 34.1025 0.0283
51.2200 34.1159 0.0236
51.2400 34.1292 0.0290
51.2600 34.1426 0.0260
51.2800 34.1559 0.0202
51.3000 34.1693 0.0265
51.3200 34.1826 0.0202
51.3400 34.1959 0.0250
51.3600 34.2092 0.0258
51.3800 34.2226 0.0237
51.4000 34.2360 0.0200
51.4200 34.2493 0.0250
51.4400 34.2626 0.0213
51.4600 34.2759 0.0195
51.4800 34.2892 0.0258
51.5000 34.3026 0.0190
51.5200 34.3158 0.0213
51.5400 34.3291 0.0224
51.5600 34.3425 0.0167
51.5800 34.3559 0.0184
51.6000 34.3692 0.0191
51.6200 34.3825 0.0165
51.6400 34.3959 0.0196
51.6600 34.4093 0.0185
51.6800 34.4226 0.0152
51.7000 34.4360 0.0184
51.7200 34.4493 0.0194
51.7400 34.4626 0.0133
51.7600 34.4759 0.0159
51.7800 34.4892 0.0182
51.8000 34.5025 0.0173
51.8200 34.5159 0.0167
51.8400 34.5292 0.0169
51.8600 34.5425 0.0100
51.8800 34.5559 0.0156
51.9000 34.5692 0.0189
51.9200 34.5825 0.0144
51.9400 34.5959 0.0119
51.9600 34.6092 0.0187
51.9800 34.6225 0.0069
52.0000 34.6359 0.0156
52.0200 34.6492 0.0193
52.0400 34.6626 0.0089
52.0600 34.6759 0.0157
52.0800 34.6892 0.0171
52.1000 34.7026 0.0101
52.1200 34.7160 0.0133
52.1400 34.7293 0.0099
52.1600 34.7426 0.0119
52.1800 34.7559 0.0084
52.2000 34.7692 0.0082
52.2200 34.7825 0.0101
52.2400 34.7958 0.0118
52.2600 34.8092 0.0074
52.2800 34.8225 0.0062
52.3000 34.8359 0.0112
52.3200 34.8492 0.0065
52.3400 34.8625 0.0062
52.3600 34.8759 0.0107
52.3800 34.8893 0.0028
52.4000 34.9026 0.0022
52.4200 34.9159 0.0067
52.4400 34.9292 0.0082
52.4600 34.9426 0.0026
52.4800 34.9559 0.0079
52.5000 34.9692 0.0078
52.5200 34.9825 0.0064
52.5400 34.9959 0.0064
52.5600 35.0092 0.0040
52.5800 35.0226 0.0026
52.6000 35.0359 0.0034
52.6200 35.0492 0.0056
52.6400 35.0625 0.0025
52.6600 35.0758 0.0025
52.6800 35.0892 -0.0008
52.7000 35.1025 0.0038
52.7200 35.1159 0.0041
52.7400 35.1293 -0.0063
52.7600 35.1426 -0.0017
52.7800 35.1559 0.0055
52.8000 35.1693 -0.0043
52.8200 35.1826 -0.0021
52.8400 35.1959 0.0006
52.8600 35.2092 0.0007
52.8800 35.2225 -0.0026
52.9000 35.2358 0.0001
52.9200 35.2492 0.0010
52.9400 35.2625 -0.0041
52.9600 35.2758 -0.0001
52.9800 35.2892 -0.0033
53.0000 35.3026 -0.0014
53.0200 35.3159 -0.0027
53.0400 35.3293 -0.0044
53.0600 35.3426 -0.0021
53.0800 35.3559 -0.0043
53.1000 35.3693 -0.0052
53.1200 35.3826 -0.0072
53.1400 35.3959 -0.0079
53.1600 35.4092 -0.0077
53.1800 35.4226 -0.0091
53.2000 35.4359 -0.0071
53.2200 35.4493 -0.0093
53.2400 35.4626 -0.0135
53.2600 35.4759 -0.0076
53.2800 35.4893 -0.0058
53.3000 35.5026 -0.0146
53.3200 35.5159 -0.0045
53.3400 35.5292 -0.0076
53.3600 35.5425 -0.0177
53.3800 35.5558 -0.0078
53.4000 35.5692 -0.0146
53.4200 35.5825 -0.0178
53.4400 35.5959 -0.0063
53.4600 35.6092 -0.0161
53.4800 35.6226 -0.0185
53.5000 35.6359 -0.0113
53.5200 35.6492 -0.0124
53.5400 35.6626 -0.0172
53.5600 35.6759 -0.0124
53.5800 35.6893 -0.0175
53.6000 35.7026 -0.0171
53.6200 35.7159 -0.0126
53.6400 35.7293 -0.0173
53.6600 35.7426 -0.0163
53.6800 35.7559 -0.0139
53.7000 35.7692 -0.0222
53.7200 35.7825 -0.0166
53.7400 35.7958 -0.0181
53.7600 35.8092 -0.0242
53.7800 35.8225 -0.0190
53.8000 35.8359 -0.0157
53.8200 35.8493 -0.0221
53.8400 35.8626 -0.0250
53.8600 35.8759 -0.0144
53.8800 35.8893 -0.0233
53.9000 35.9026 -0.0238
53.9200 35.9159 -0.0169
53.9400 35.9293 -0.0275
53.9600 35.9426 -0.0183
53.9800 35.9559 -0.0166
54.0000 35.9692 -0.0336
54.0200 35.9825 -0.0204
54.0400 35.9959 -0.0241
54.0600 36.0092 -0.0265
54.0800 36.0225 -0.0194
54.1000 36.0359 -0.0245
54.1200 36.0492 -0.0271
54.1400 36.0625 -0.0220
54.1600 36.0759 -0.0264
54.1800 36.0892 -0.0249
54.2000 36.1026 -0.0227
54.2200 36.1159 -0.0308
54.2400 36.1292 -0.0271
54.2600 36.1426 -0.0239
54.2800 36.1560 -0.0282
54.3000 36.1693 -0.0280
54.3200 36.1826 -0.0281
54.3400 36.1959 -0.0300
54.3600 36.2092 -0.0296
54.3800 36.2226 -0.0255
54.4000 36.2359 -0.0324
54.4200 36.2492 -0.0256
54.4400 36.2625 -0.0292
54.4600 36.2759 -0.0331
54.4800 36.2892 -0.0275
54.5000 36.3025 -0.0319
54.5200 36.3159 -0.0364
54.5400 36.3293 -0.0316
54.5600 36.3427 -0.0326
54.5800 36.3560 -0.0371
54.6000 36.3693 -0.0312
54.6200 36.3826 -0.0317
54.6400 36.3959 -0.0363
54.6600 36.4093 -0.0346
54.6800 36.4226 -0.0369
54.7000 36.4359 -0.0351
54.7200 36.4492 -0.0390
54.7400 36.4625 -0.0412
54.7600 36.4759 -0.0388
54.7800 36.4892 -0.0412
54.8000 36.5025 -0.0390
54.8200 36.5159 -0.0374
54.8400 36.5292 -0.0400
54.8600 36.5425 -0.0421
54.8800 36.5559 -0.0396
54.9000 36.5692 -0.0426
54.9200 36.5826 -0.0418
54.9400 36.5959 -0.0427
54.9600 36.6092 -0.0432
54.9800 36.6226 -0.0476
55.0000 36.6359 -0.0410
55.0200 36.6493 -0.0426
55.0400 36.6625 -0.0452
55.0600 36.6758 -0.0474
55.0800 36.6892 -0.0450
55.1000 36.7025 -0.0431
55.1200 36.7158 -0.0486
55.1400 36.7291 -0.0452
55.1600 36.7425 -0.0436
55.1800 36.7558 -0.0500
55.2000 36.7692 -0.0499
55.2200 36.7825 -0.0439
55.2400 36.7959 -0.0509
55.2600 36.8092 -0.0532
55.2800 36.8226 -0.0473
55.3000 36.8359 -0.0568
55.3200 36.8492 -0.0510
55.3400 36.8625 -0.0492
55.3600 36.8759 -0.0566
55.3800 36.8893 -0.0511
55.4000 36.9026 -0.0503
55.4200 36.9159 -0.0602
55.4400 36.9293 -0.0498
55.4600 36.9426 -0.0493
55.4800 36.9559 -0.0559
55.5000 36.9692 -0.0496
55.5200 36.9825 -0.0556
55.5400 36.9958 -0.0564
55.5600 37.0091 -0.0510
55.5800 37.0225 -0.0565
55.6000 37.0358 -0.0555
55.6200 37.0492 -0.0520
55.6400 37.0626 -0.0608
55.6600 37.0760 -0.0552
55.6800 37.0893 -0.0513
55.7000 37.1026 -0.0586
55.7200 37.1160 -0.0581
55.7400 37.1293 -0.0558
55.7600 37.1426 -0.0618
55.7800 37.1559 -0.0578
55.8000 37.1692 -0.0550
55.8200 37.1826 -0.0601
55.8400 37.1959 -0.0594
55.8600 37.2092 -0.0624
55.8800 37.2225 -0.0576
55.9000 37.2358 -0.0583
55.9200 37.2492 -0.0603
55.9400 37.2625 -0.0620
55.9600 37.2759 -0.0591
55.9800 37.2892 -0.0596
56.0000 37.3026 -0.0609
56.0200 37.3159 -0.0573
56.0400 37.3293 -0.0635
56.0600 37.3426 -0.0609
56.0800 37.3560 -0.0625
56.1000 37.3693 -0.0668
56.1200 37.3826 -0.0587
56.1400 37.3959 -0.0598
56.1600 37.4092 -0.0636
56.1800 37.4226 -0.0634
56.2000 37.4359 -0.0637
56.2200 37.4492 -0.0680
56.2400 37.4625 -0.0639
56.2600 37.4758 -0.0642
56.2800 37.4892 -0.0727
56.3000 37.5025 -0.0649
56.3200 37.5159 -0.0642
56.3400 37.5292 -0.0759
56.3600 37.5426 -0.0699
56.3800 37.5559 -0.0627
56.4000 37.5692 -0.0753
56.4200 37.5826 -0.0672
56.4400 37.5959 -0.0632
56.4600 37.6093 -0.0811
56.4800 37.6226 -0.0656
56.5000 37.6359 -0.0639
56.5200 37.6492 -0.0814
56.5400 37.6626 -0.0667
56.5600 37.6759 -0.0722
56.5800 37.6892 -0.0822
56.6000 37.7025 -0.0628
56.6200 37.7158 -0.0764
56.6400 37.7292 -0.0833
56.6600 37.7425 -0.0668
56.6800 37.7559 -0.0747
56.7000 37.7692 -0.0863
56.7200 37.7826 -0.0630
56.7400 37.7960 -0.0827
56.7600 37.8093 -0.0895
56.7800 37.8226 -0.0588
56.8000 37.8359 -0.0840
56.8200 37.8493 -0.0831
56.8400 37.8626 -0.0641
56.8600 37.8759 -0.0883
56.8800 37.8892 -0.0813
56.9000 37.9026 -0.0668
56.9200 37.9159 -0.0931
56.9400 37.9292 -0.0826
56.9600 37.9425 -0.0660
56.9800 37.9558 -0.0955
57.0000 37.9692 -0.0801
57.0200 37.9825 -0.0675
57.0400 37.9959 -0.1039
57.0600 38.0092 -0.0791
57.0800 38.0226 -0.0782
57.1000 38.0360 -0.0986
57.1200 38.0493 -0.0791
57.1400 38.0626 -0.0787
57.1600 38.0760 -0.0979
57.1800 38.0893 -0.0837
57.2000 38.1026 -0.0799
57.2200 38.1159 -0.0968
57.2400 38.1292 -0.0833
57.2600 38.1425 -0.0823
57.2800 38.1559 -0.0982
57.3000 38.1692 -0.0865
57.3200 38.1825 -0.0890
57.3400 38.1958 -0.0912
57.3600 38.2092 -0.0914
57.3800 38.2225 -0.0906
57.4000 38.2359 -0.0908
57.4200 38.2492 -0.0953
57.4400 38.2626 -0.0900
57.4600 38.2759 -0.0960
57.4800 38.2893 -0.1004
57.5000 38.3026 -0.0872
57.5200 38.3159 -0.0980
57.5400 38.3293 -0.0985
57.5600 38.3426 -0.0899
57.5800 38.3559 -0.1001
57.6000 38.3692 -0.0987
57.6200 38.3826 -0.0921
57.6400 38.3959 -0.1015
57.6600 38.4092 -0.1010
57.6800 38.4225 -0.0913
57.7000 38.4358 -0.1030
57.7200 38.4491 -0.0966
57.7400 38.4625 -0.0924
57.7600 38.4758 -0.1031
57.7800 38.4892 -0.0963
57.8000 38.5026 -0.1003
57.8200 38.5160 -0.1052
57.8400 38.5293 -0.0988
57.8600 38.5426 -0.0984
57.8800 38.5560 -0.1061
57.9000 38.5693 -0.1049
57.9200 38.5826 -0.0981
57.9400 38.5959 -0.1030
57.9600 38.6091 -0.1011
57.9800 38.6225 -0.1001
58.0000 38.6358 -0.1027
58.0200 38.6492 -0.1065
58.0400 38.6625 -0.1053
58.0600 38.6759 -0.1048
58.0800 38.6892 -0.1085
58.1000 38.7026 -0.1093
58.1200 38.7159 -0.1048
58.1400 38.7293 -0.1113
58.1600 38.7426 -0.1061
58.1800 38.7560 -0.1063
58.2000 38.7693 -0.1109
58.2200 38.7826 -0.1115
58.2400 38.7959 -0.1056
58.2600 38.8093 -0.1129
58.2800 38.8226 -0.1109
58.3000 38.8359 -0.1066
58.3200 38.8492 -0.1179
58.3400 38.8626 -0.1083
58.3600 38.8759 -0.1095
58.3800 38.8892 -0.1200
58.4000 38.9025 -0.1085
58.4200 38.9158 -0.1111
58.4400 38.9292 -0.1219
58.4600 38.9426 -0.1127
58.4800 38.9559 -0.1123
58.5000 38.9693 -0.1188
58.5200 38.9826 -0.1146
58.5400 38.9960 -0.1153
58.5600 39.0093 -0.1262
58.5800 39.0226 -0.1149
58.6000 39.0359 -0.1199
58.6200 39.0493 -0.1260
58.6400 39.0626 -0.1135
58.6600 39.0759 -0.1246
58.6800 39.0892 -0.1249
58.7000 39.1026 -0.1171
58.7200 39.1159 -0.1288
58.7400 39.1292 -0.1234
58.7600 39.1425 -0.1250
58.7800 39.1558 -0.1267
58.8000 39.1692 -0.1264
58.8200 39.1825 -0.1134
58.8400 39.1959 -0.1132
58.8600 39.2092 -0.0888
58.8800 39.2226 -0.0916
58.9000 39.2360 -0.0978
58.9200 39.2493 -0.0852
58.9400 39.2626 -0.0871
58.9600 39.2759 -0.0863
58.9800 39.2893 -0.0845
59.0000 39.3026 -0.0871
59.0200 39.3159 -0.0860
59.0400 39.3292 -0.0826
59.0600 39.3425 -0.0854
59.0800 39.3559 -0.0813
59.1000 39.3692 -0.0784
59.1200 39.3825 -0.0829
59.1400 39.3958 -0.0769
59.1600 39.4092 -0.0749
59.1800 39.4225 -0.0808
59.2000 39.4359 -0.0742
59.2200 39.4492 -0.0783
59.2400 39.4626 -0.0771
59.2600 39.4759 -0.0742
59.2800 39.4892 -0.0764
59.3000 39.5026 -0.0743
59.3200 39.5159 -0.0716
59.3400 39.5293 -0.0718
59.3600 39.5426 -0.0730
59.3800 39.5559 -0.0692
59.4000 39.5692 -0.0672
59.4200 39.5825 -0.0726
59.4400 39.5959 -0.0708
59.4600 39.6092 -0.0735
59.4800 39.6225 -0.0681
59.5000 39.6358 -0.0680
59.5200 39.6492 -0.0720
59.5400 39.6625 -0.0702
59.5600 39.6758 -0.0683
59.5800 39.6892 -0.0709
59.6000 39.7026 -0.0743
59.6200 39.7160 -0.0721
59.6400 39.7293 -0.0703
59.6600 39.7426 -0.0768
59.6800 39.7559 -0.0739
59.7000 39.7693 -0.0721
59.7200 39.7826 -0.0775
59.7400 39.7959 -0.0763
59.7600 39.8092 -0.0741
59.7800 39.8226 -0.0845
59.8000 39.8359 -0.0770
59.8200 39.8492 -0.0706
59.8400 39.8625 -0.0883
59.8600 39.8758 -0.0731
59.8800 39.8892 -0.0764
59.9000 39.9025 -0.0859
59.9200 39.9158 -0.0717
59.9400 39.9292 -0.0789
59.9600 39.9426 -0.0816
59.9800 39.9560 -0.0720
60.0000 39.9693 -0.0846
60.0200 39.9826 -0.0793
60.0400 39.9959 -0.0790
60.0470 40.0005 -0.0959
