Raw Data
Time Displacement Force
(s) (mm) (N)
0.0000 0.0000 0.1471
0.0200 0.0001 0.1596
0.0400 0.0023 0.2309
0.0600 0.0102 0.2145
0.0800 0.0221 0.1316
0.1000 0.0347 0.1498
0.1200 0.0474 0.1724
0.1400 0.0608 0.1461
0.1600 0.0748 0.1582
0.1800 0.0890 0.1506
0.2000 0.1029 0.1443
0.2200 0.1164 0.1577
0.2400 0.1298 0.1538
0.2600 0.1431 0.1487
0.2800 0.1564 0.1691
0.3000 0.1698 0.1522
0.3200 0.1832 0.1511
0.3400 0.1965 0.1721
0.3600 0.2098 0.1533
0.3800 0.2232 0.1604
0.4000 0.2365 0.1656
0.4200 0.2498 0.1556
0.4400 0.2631 0.1647
0.4600 0.2765 0.1641
0.4800 0.2898 0.1579
0.5000 0.3032 0.1619
0.5200 0.3165 0.1592
0.5400 0.3298 0.1549
0.5600 0.3431 0.1664
0.5800 0.3565 0.1546
0.6000 0.3699 0.1538
0.6200 0.3832 0.1705
0.6400 0.3966 0.1583
0.6600 0.4099 0.1534
0.6800 0.4233 0.1679
0.7000 0.4366 0.1521
0.7200 0.4499 0.1613
0.7400 0.4632 0.1635
0.7600 0.4766 0.1532
0.7800 0.4899 0.1601
0.8000 0.5032 0.1590
0.8200 0.5165 0.1512
0.8400 0.5299 0.1574
0.8600 0.5432 0.1582
0.8800 0.5565 0.1519
0.9000 0.5698 0.1600
0.9200 0.5831 0.1551
0.9400 0.5965 0.1513
0.9600 0.6098 0.1592
0.9800 0.6231 0.1503
1.0000 0.6365 0.1551
1.0200 0.6499 0.1521
1.0400 0.6633 0.1486
1.0600 0.6766 0.1504
1.0800 0.6899 0.1513
1.1000 0.7032 0.1531
1.1200 0.7166 0.1504
1.1400 0.7299 0.1477
1.1600 0.7432 0.1534
1.1800 0.7565 0.1448
1.2000 0.7699 0.1500
1.2200 0.7832 0.1544
1.2400 0.7965 0.1414
1.2600 0.8098 0.1505
1.2800 0.8232 0.1489
1.3000 0.8365 0.1429
1.3200 0.8498 0.1482
1.3400 0.8632 0.1530
1.3600 0.8765 0.1400
1.3800 0.8899 0.1536
1.4000 0.9032 0.1493
1.4200 0.9165 0.1403
1.4400 0.9299 0.1509
1.4600 0.9432 0.1476
1.4800 0.9566 0.1382
1.5000 0.9699 0.1516
1.5200 0.9832 0.1477
1.5400 0.9965 0.1417
1.5600 1.0098 0.1509
1.5800 1.0232 0.1428
1.6000 1.0365 0.1435
1.6200 1.0498 0.1529
1.6400 1.0631 0.1425
1.6600 1.0765 0.1391
1.6800 1.0898 0.1506
1.7000 1.1032 0.1447
1.7200 1.1165 0.1340
1.7400 1.1299 0.1498
1.7600 1.1433 0.1402
1.7800 1.1566 0.1350
1.8000 1.1699 0.1478
1.8200 1.1832 0.1329
1.8400 1.1966 0.1386
1.8600 1.2099 0.1500
1.8800 1.2232 0.1295
1.9000 1.2365 0.1380
1.9200 1.2499 0.1500
1.9400 1.2632 0.1311
1.9600 1.2765 0.1369
1.9800 1.2898 0.1448
2.0000 1.3031 0.1329
2.0200 1.3165 0.1376
2.0400 1.3298 0.1397
2.0600 1.3432 0.1290
2.0800 1.3565 0.1445
2.1000 1.3699 0.1351
2.1200 1.3833 0.1336
2.1400 1.3966 0.1394
2.1600 1.4099 0.1388
2.1800 1.4232 0.1353
2.2000 1.4366 0.1366
2.2200 1.4499 0.1393
2.2400 1.4632 0.1370
2.2600 1.4765 0.1388
2.2800 1.4898 0.1400
2.3000 1.5032 0.1337
2.3200 1.5165 0.1395
2.3400 1.5298 0.1395
2.3600 1.5432 0.1374
2.3800 1.5565 0.1379
2.4000 1.5699 0.1375
2.4200 1.5832 0.1355
2.4400 1.5965 0.1389
2.4600 1.6099 0.1346
2.4800 1.6232 0.1377
2.5000 1.6365 0.1378
2.5200 1.6498 0.1346
2.5400 1.6632 0.1365
2.5600 1.6765 0.1342
2.5800 1.6899 0.1369
2.6000 1.7032 0.1356
2.6200 1.7166 0.1352
2.6400 1.7299 0.1320
2.6600 1.7432 0.1347
2.6800 1.7566 0.1301
2.7000 1.7699 0.1305
2.7200 1.7832 0.1372
2.7400 1.7965 0.1236
2.7600 1.8098 0.1259
2.7800 1.8232 0.1348
2.8000 1.8365 0.1239
2.8200 1.8498 0.1298
2.8400 1.8632 0.1311
2.8600 1.8766 0.1229
2.8800 1.8899 0.1281
2.9000 1.9032 0.1305
2.9200 1.9166 0.1198
2.9400 1.9299 0.1294
2.9600 1.9432 0.1248
2.9800 1.9565 0.1209
3.0000 1.9699 0.1298
3.0200 1.9832 0.1263
3.0400 1.9966 0.1203
3.0600 2.0098 0.1318
3.0800 2.0231 0.1264
3.1000 2.0365 0.1211
3.1200 2.0498 0.1273
3.1400 2.0632 0.1216
3.1600 2.0765 0.1244
3.1800 2.0899 0.1264
3.2000 2.1033 0.1203
3.2200 2.1166 0.1234
3.2400 2.1299 0.1257
3.2600 2.1433 0.1227
3.2800 2.1566 0.1251
3.3000 2.1699 0.1202
3.3200 2.1832 0.1231
3.3400 2.1965 0.1285
3.3600 2.2098 0.1167
3.3800 2.2232 0.1216
3.4000 2.2365 0.1253
3.4200 2.2498 0.1181
3.4400 2.2631 0.1248
3.4600 2.2765 0.1191
3.4800 2.2899 0.1185
3.5000 2.3032 0.1244
3.5200 2.3165 0.1171
3.5400 2.3299 0.1198
3.5600 2.3432 0.1185
3.5800 2.3566 0.1172
3.6000 2.3699 0.1173
3.6200 2.3832 0.1181
3.6400 2.3966 0.1217
3.6600 2.4100 0.1157
3.6800 2.4233 0.1199
3.7000 2.4366 0.1153
3.7200 2.4499 0.1175
3.7400 2.4632 0.1173
3.7600 2.4765 0.1150
3.7800 2.4898 0.1147
3.8000 2.5031 0.1146
3.8200 2.5164 0.1201
3.8400 2.5298 0.1123
3.8600 2.5432 0.1113
3.8800 2.5565 0.1191
3.9000 2.5699 0.1197
3.9200 2.5832 0.1129
3.9400 2.5966 0.1112
3.9600 2.6099 0.1209
3.9800 2.6232 0.1161
4.0000 2.6366 0.1168
4.0200 2.6499 0.1161
4.0400 2.6632 0.1162
4.0600 2.6765 0.1205
4.0800 2.6899 0.1163
4.1000 2.7032 0.1131
4.1200 2.7165 0.1178
4.1400 2.7299 0.1130
4.1600 2.7432 0.1100
4.1800 2.7565 0.1176
4.2000 2.7698 0.1153
4.2200 2.7831 0.1107
4.2400 2.7965 0.1189
4.2600 2.8098 0.1145
4.2800 2.8232 0.1079
4.3000 2.8366 0.1184
4.3200 2.8499 0.1096
4.3400 2.8632 0.1124
4.3600 2.8766 0.1149
4.3800 2.8899 0.1060
4.4000 2.9032 0.1127
4.4200 2.9165 0.1119
4.4400 2.9298 0.1117
4.4600 2.9432 0.1121
4.4800 2.9565 0.1132
4.5000 2.9698 0.1058
4.5200 2.9832 0.1079
4.5400 2.9965 0.1154
4.5600 3.0099 0.1039
4.5800 3.0232 0.1115
4.6000 3.0365 0.1111
4.6200 3.0498 0.1053
4.6400 3.0632 0.1095
4.6600 3.0765 0.1071
4.6800 3.0898 0.1042
4.7000 3.1032 0.1105
4.7200 3.1165 0.1042
4.7400 3.1299 0.1050
4.7600 3.1433 0.1081
4.7800 3.1566 0.1078
4.8000 3.1699 0.1075
4.8200 3.1833 0.1077
4.8400 3.1966 0.1063
4.8600 3.2099 0.1085
4.8800 3.2232 0.1096
4.9000 3.2364 0.1052
4.9200 3.2498 0.1075
4.9400 3.2631 0.1059
4.9600 3.2765 0.1013
4.9800 3.2898 0.1094
5.0000 3.3032 0.1076
5.0200 3.3166 0.1018
5.0400 3.3300 0.1088
5.0600 3.3433 0.1038
5.0800 3.3566 0.1057
5.1000 3.3699 0.1044
5.1200 3.3833 0.1051
5.1400 3.3965 0.1049
5.1600 3.4098 0.1035
5.1800 3.4232 0.1047
5.2000 3.4365 0.1046
5.2200 3.4498 0.1018
5.2400 3.4631 0.1015
5.2600 3.4765 0.1075
5.2800 3.4898 0.0967
5.3000 3.5032 0.1023
5.3200 3.5165 0.1048
5.3400 3.5298 0.0920
5.3600 3.5432 0.1046
5.3800 3.5566 0.1017
5.4000 3.5699 0.0929
5.4200 3.5833 0.1024
5.4400 3.5966 0.1041
5.4600 3.6099 0.0901
5.4800 3.6233 0.1052
5.5000 3.6365 0.0995
5.5200 3.6498 0.0898
5.5400 3.6632 0.1085
5.5600 3.6765 0.0982
5.5800 3.6898 0.0887
5.6000 3.7031 0.1084
5.6200 3.7165 0.1029
5.6400 3.7298 0.0874
5.6600 3.7432 0.1057
5.6800 3.7565 0.0970
5.7000 3.7698 0.0876
5.7200 3.7832 0.1009
5.7400 3.7966 0.0964
5.7600 3.8099 0.0867
5.7800 3.8232 0.1032
5.8000 3.8366 0.0940
5.8200 3.8499 0.0904
5.8400 3.8633 0.1035
5.8600 3.8766 0.0966
5.8800 3.8899 0.0895
5.9000 3.9032 0.1044
5.9200 3.9166 0.0937
5.9400 3.9299 0.0885
5.9600 3.9432 0.1001
5.9800 3.9565 0.0931
6.0000 3.9698 0.0898
6.0200 3.9832 0.0995
6.0400 3.9965 0.0927
6.0600 4.0098 0.0928
6.0800 4.0232 0.0963
6.1000 4.0366 0.0907
6.1200 4.0499 0.0937
6.1400 4.0632 0.0964
6.1600 4.0766 0.0923
6.1800 4.0899 0.0926
6.2000 4.1032 0.0969
6.2200 4.1165 0.0958
6.2400 4.1298 0.0859
6.2600 4.1432 0.0979
6.2800 4.1565 0.0922
6.3000 4.1699 0.0846
6.3200 4.1832 0.0968
6.3400 4.1965 0.0876
6.3600 4.2098 0.0861
6.3800 4.2232 0.0969
6.4000 4.2365 0.0908
6.4200 4.2498 0.0848
6.4400 4.2632 0.0974
6.4600 4.2766 0.0879
6.4800 4.2899 0.0826
6.5000 4.3032 0.0968
6.5200 4.3166 0.0907
6.5400 4.3299 0.0837
6.5600 4.3433 0.0951
6.5800 4.3566 0.0912
6.6000 4.3699 0.0830
6.6200 4.3832 0.0932
6.6400 4.3965 0.0927
6.6600 4.4099 0.0847
6.6800 4.4232 0.0958
6.7000 4.4365 0.0886
6.7200 4.4498 0.0858
6.7400 4.4632 0.0918
6.7600 4.4765 0.0916
6.7800 4.4898 0.0823
6.8000 4.5032 0.0939
6.8200 4.5166 0.0888
6.8400 4.5299 0.0839
6.8600 4.5432 0.0975
6.8800 4.5565 0.0884
6.9000 4.5699 0.0850
6.9200 4.5832 0.0921
6.9400 4.5966 0.0900
6.9600 4.6099 0.0850
6.9800 4.6232 0.0967
7.0000 4.6365 0.0906
7.0200 4.6498 0.0813
7.0400 4.6631 0.0947
7.0600 4.6764 0.0824
7.0800 4.6898 0.0851
7.1000 4.7031 0.0951
7.1200 4.7165 0.0848
7.1400 4.7298 0.0856
7.1600 4.7432 0.0933
7.1800 4.7566 0.0826
7.2000 4.7700 0.0878
7.2200 4.7833 0.0945
7.2400 4.7966 0.0787
7.2600 4.8100 0.0882
7.2800 4.8233 0.0882
7.3000 4.8366 0.0797
7.3200 4.8498 0.0934
7.3400 4.8631 0.0875
7.3600 4.8765 0.0807
7.3800 4.8898 0.0874
7.4000 4.9032 0.0890
7.4200 4.9165 0.0821
7.4400 4.9299 0.0825
7.4600 4.9432 0.0900
7.4800 4.9566 0.0816
7.5000 4.9699 0.0824
7.5200 4.9832 0.0855
7.5400 4.9966 0.0852
7.5600 5.0100 0.0826
7.5800 5.0233 0.0875
7.6000 5.0366 0.0863
7.6200 5.0499 0.0828
7.6400 5.0632 0.0865
7.6600 5.0765 0.0859
7.6800 5.0898 0.0852
7.7000 5.1032 0.0851
7.7200 5.1165 0.0820
7.7400 5.1299 0.0843
7.7600 5.1432 0.0839
7.7800 5.1565 0.0778
7.8000 5.1698 0.0834
7.8200 5.1832 0.0871
7.8400 5.1965 0.0738
7.8600 5.2099 0.0800
7.8800 5.2232 0.0869
7.9000 5.2366 0.0753
7.9200 5.2499 0.0819
7.9400 5.2632 0.0794
7.9600 5.2766 0.0737
7.9800 5.2899 0.0814
8.0000 5.3033 0.0771
8.0200 5.3166 0.0731
8.0400 5.3299 0.0856
8.0600 5.3432 0.0806
8.0800 5.3565 0.0821
8.1000 5.3699 0.0849
8.1200 5.3832 0.0752
8.1400 5.3965 0.0801
8.1600 5.4098 0.0834
8.1800 5.4232 0.0719
8.2000 5.4365 0.0828
8.2200 5.4498 0.0837
8.2400 5.4632 0.0718
8.2600 5.4766 0.0774
8.2800 5.4899 0.0822
8.3000 5.5033 0.0757
8.3200 5.5166 0.0830
8.3400 5.5299 0.0810
8.3600 5.5432 0.0718
8.3800 5.5566 0.0792
8.4000 5.5699 0.0797
8.4200 5.5832 0.0752
8.4400 5.5965 0.0785
8.4600 5.6099 0.0757
8.4800 5.6232 0.0790
8.5000 5.6365 0.0813
8.5200 5.6498 0.0815
8.5400 5.6632 0.0784
8.5600 5.6765 0.0797
8.5800 5.6898 0.0769
8.6000 5.7032 0.0762
8.6200 5.7166 0.0809
8.6400 5.7299 0.0743
8.6600 5.7432 0.0729
8.6800 5.7566 0.0751
8.7000 5.7699 0.0798
8.7200 5.7833 0.0801
8.7400 5.7966 0.0736
8.7600 5.8099 0.0775
8.7800 5.8232 0.0773
8.8000 5.8365 0.0747
8.8200 5.8499 0.0776
8.8400 5.8632 0.0738
8.8600 5.8765 0.0771
8.8800 5.8898 0.0744
8.9000 5.9032 0.0748
8.9200 5.9165 0.0773
8.9400 5.9299 0.0806
8.9600 5.9432 0.0774
8.9800 5.9566 0.0721
9.0000 5.9700 0.0733
9.0200 5.9832 0.0740
9.0400 5.9965 0.0725
9.0600 6.0099 0.0773
9.0800 6.0232 0.0756
9.1000 6.0366 0.0712
9.1200 6.0499 0.0768
9.1400 6.0632 0.0716
9.1600 6.0765 0.0692
9.1800 6.0898 0.0798
9.2000 6.1031 0.0669
9.2200 6.1165 0.0691
9.2400 6.1298 0.0766
9.2600 6.1431 0.0657
9.2800 6.1565 0.0707
9.3000 6.1698 0.0749
9.3200 6.1832 0.0670
9.3400 6.1966 0.0714
9.3600 6.2099 0.0732
9.3800 6.2233 0.0634
9.4000 6.2366 0.0734
9.4200 6.2499 0.0718
9.4400 6.2632 0.0582
9.4600 6.2765 0.0733
9.4800 6.2898 0.0711
9.5000 6.3031 0.0606
9.5200 6.3165 0.0737
9.5400 6.3298 0.0668
9.5600 6.3432 0.0632
9.5800 6.3565 0.0737
9.6000 6.3698 0.0688
9.6200 6.3832 0.0580
9.6400 6.3966 0.0717
9.6600 6.4099 0.0672
9.6800 6.4232 0.0619
9.7000 6.4366 0.0655
9.7200 6.4499 0.0665
9.7400 6.4632 0.0636
9.7600 6.4765 0.0644
9.7800 6.4899 0.0661
9.8000 6.5032 0.0638
9.8200 6.5166 0.0594
9.8400 6.5299 0.0677
9.8600 6.5432 0.0653
9.8800 6.5566 0.0568
9.9000 6.5699 0.0646
9.9200 6.5832 0.0596
9.9400 6.5965 0.0636
9.9600 6.6098 0.0659
9.9800 6.6232 0.0574
10.0000 6.6365 0.0623
10.0200 6.6498 0.0616
10.0400 6.6632 0.0570
10.0600 6.6765 0.0599
10.0800 6.6899 0.0623
10.1000 6.7032 0.0519
10.1200 6.7165 0.0603
10.1400 6.7299 0.0652
10.1600 6.7433 0.0564
10.1800 6.7566 0.0616
10.2000 6.7699 0.0630
10.2200 6.7832 0.0542
10.2400 6.7966 0.0609
10.2600 6.8099 0.0623
10.2800 6.8232 0.0579
10.3000 6.8365 0.0610
10.3200 6.8498 0.0629
10.3400 6.8632 0.0576
10.3600 6.8765 0.0608
10.3800 6.8898 0.0647
10.4000 6.9032 0.0607
10.4200 6.9165 0.0626
10.4400 6.9299 0.0626
10.4600 6.9432 0.0615
10.4800 6.9566 0.0636
10.5000 6.9699 0.0650
10.5200 6.9832 0.0633
10.5400 6.9966 0.0695
10.5600 7.0099 0.0637
10.5800 7.0232 0.0642
10.6000 7.0365 0.0670
10.6200 7.0499 0.0641
10.6400 7.0632 0.0614
10.6600 7.0765 0.0643
10.6800 7.0898 0.0667
10.7000 7.1032 0.0630
10.7200 7.1165 0.0615
10.7400 7.1298 0.0659
10.7600 7.1432 0.0650
10.7800 7.1565 0.0659
10.8000 7.1699 0.0628
10.8200 7.1832 0.0617
10.8400 7.1966 0.0648
10.8600 7.2099 0.0610
10.8800 7.2233 0.0620
10.9000 7.2366 0.0597
10.9200 7.2499 0.0638
10.9400 7.2632 0.0626
10.9600 7.2765 0.0611
10.9800 7.2899 0.0652
11.0000 7.3032 0.0598
11.0200 7.3165 0.0601
11.0400 7.3298 0.0650
11.0600 7.3431 0.0562
11.0800 7.3565 0.0634
11.1000 7.3698 0.0641
11.1200 7.3832 0.0559
11.1400 7.3966 0.0570
11.1600 7.4099 0.0638
11.1800 7.4233 0.0576
11.2000 7.4366 0.0601
11.2200 7.4499 0.0584
11.2400 7.4632 0.0542
11.2600 7.4766 0.0563
11.2800 7.4899 0.0555
11.3000 7.5032 0.0515
11.3200 7.5165 0.0597
11.3400 7.5299 0.0529
11.3600 7.5432 0.0477
11.3800 7.5565 0.0650
11.4000 7.5698 0.0546
11.4200 7.5832 0.0495
11.4400 7.5965 0.0568
11.4600 7.6098 0.0459
11.4800 7.6232 0.0488
11.5000 7.6365 0.0572
11.5200 7.6499 0.0485
11.5400 7.6633 0.0477
11.5600 7.6766 0.0554
11.5800 7.6899 0.0482
11.6000 7.7033 0.0522
11.6200 7.7166 0.0543
11.6400 7.7299 0.0479
11.6600 7.7432 0.0493
11.6800 7.7565 0.0489
11.7000 7.7698 0.0475
11.7200 7.7832 0.0519
11.7400 7.7965 0.0452
11.7600 7.8098 0.0440
11.7800 7.8231 0.0548
11.8000 7.8365 0.0468
11.8200 7.8498 0.0539
11.8400 7.8632 0.0529
11.8600 7.8765 0.0475
11.8800 7.8899 0.0470
11.9000 7.9032 0.0497
11.9200 7.9165 0.0497
11.9400 7.9298 0.0510
11.9600 7.9432 0.0510
11.9800 7.9566 0.0514
12.0000 7.9699 0.0524
12.0200 7.9832 0.0518
12.0400 7.9966 0.0504
12.0600 8.0099 0.0515
12.0800 8.0232 0.0483
12.1000 8.0365 0.0552
12.1200 8.0498 0.0495
12.1400 8.0631 0.0472
12.1600 8.0764 0.0532
12.1800 8.0898 0.0476
12.2000 8.1031 0.0509
12.2200 8.1165 0.0509
12.2400 8.1299 0.0461
12.2600 8.1433 0.0479
12.2800 8.1566 0.0482
12.3000 8.1700 0.0454
12.3200 8.1833 0.0507
12.3400 8.1966 0.0478
12.3600 8.2099 0.0452
12.3800 8.2232 0.0572
12.4000 8.2365 0.0536
12.4200 8.2498 0.0454
12.4400 8.2632 0.0563
12.4600 8.2765 0.0484
12.4800 8.2898 0.0465
12.5000 8.3031 0.0556
12.5200 8.3165 0.0489
12.5400 8.3298 0.0422
12.5600 8.3432 0.0518
12.5800 8.3565 0.0552
12.6000 8.3699 0.0467
12.6200 8.3833 0.0510
12.6400 8.3966 0.0528
12.6600 8.4099 0.0469
12.6800 8.4232 0.0557
12.7000 8.4366 0.0511
12.7200 8.4499 0.0418
12.7400 8.4632 0.0554
12.7600 8.4765 0.0510
12.7800 8.4899 0.0439
12.8000 8.5032 0.0525
12.8200 8.5165 0.0477
12.8400 8.5298 0.0489
12.8600 8.5431 0.0498
12.8800 8.5565 0.0489
12.9000 8.5699 0.0466
12.9200 8.5832 0.0480
12.9400 8.5965 0.0484
12.9600 8.6099 0.0439
12.9800 8.6233 0.0510
13.0000 8.6366 0.0468
13.0200 8.6499 0.0440
13.0400 8.6632 0.0527
13.0600 8.6766 0.0449
13.0800 8.6899 0.0443
13.1000 8.7032 0.0506
13.1200 8.7166 0.0403
13.1400 8.7299 0.0437
13.1600 8.7432 0.0513
13.1800 8.7565 0.0431
13.2000 8.7698 0.0493
13.2200 8.7831 0.0488
13.2400 8.7965 0.0433
13.2600 8.8099 0.0468
13.2800 8.8232 0.0484
13.3000 8.8365 0.0467
13.3200 8.8499 0.0424
13.3400 8.8633 0.0457
13.3600 8.8766 0.0428
13.3800 8.8899 0.0420
13.4000 8.9032 0.0476
13.4200 8.9166 0.0442
13.4400 8.9299 0.0410
13.4600 8.9432 0.0462
13.4800 8.9565 0.0462
13.5000 8.9698 0.0413
13.5200 8.9832 0.0454
13.5400 8.9965 0.0390
13.5600 9.0098 0.0370
13.5800 9.0232 0.0440
13.6000 9.0365 0.0353
13.6200 9.0498 0.0350
13.6400 9.0631 0.0427
13.6600 9.0765 0.0387
13.6800 9.0899 0.0383
13.7000 9.1032 0.0461
13.7200 9.1166 0.0351
13.7400 9.1299 0.0357
13.7600 9.1432 0.0428
13.7800 9.1566 0.0348
13.8000 9.1699 0.0319
13.8200 9.1832 0.0404
13.8400 9.1965 0.0385
13.8600 9.2099 0.0314
13.8800 9.2232 0.0438
13.9000 9.2365 0.0348
13.9200 9.2498 0.0307
13.9400 9.2632 0.0422
13.9600 9.2765 0.0310
13.9800 9.2899 0.0273
14.0000 9.3032 0.0403
14.0200 9.3165 0.0327
14.0400 9.3299 0.0308
14.0600 9.3432 0.0371
14.0800 9.3566 0.0272
14.1000 9.3699 0.0325
14.1200 9.3832 0.0394
14.1400 9.3966 0.0251
14.1600 9.4099 0.0292
14.1800 9.4232 0.0368
14.2000 9.4365 0.0321
14.2200 9.4499 0.0291
14.2400 9.4632 0.0367
14.2600 9.4765 0.0308
14.2800 9.4898 0.0301
14.3000 9.5031 0.0367
14.3200 9.5165 0.0304
14.3400 9.5298 0.0311
14.3600 9.5431 0.0340
14.3800 9.5565 0.0316
14.4000 9.5699 0.0314
14.4200 9.5833 0.0301
14.4400 9.5966 0.0307
14.4600 9.6099 0.0310
14.4800 9.6233 0.0328
14.5000 9.6366 0.0300
14.5200 9.6499 0.0331
14.5400 9.6632 0.0348
14.5600 9.6764 0.0319
14.5800 9.6898 0.0355
14.6000 9.7031 0.0264
14.6200 9.7165 0.0322
14.6400 9.7298 0.0337
14.6600 9.7432 0.0273
14.6800 9.7565 0.0285
14.7000 9.7699 0.0363
14.7200 9.7832 0.0334
14.7400 9.7966 0.0290
14.7600 9.8099 0.0365
14.7800 9.8233 0.0283
14.8000 9.8366 0.0260
14.8200 9.8499 0.0340
14.8400 9.8632 0.0250
14.8600 9.8766 0.0330
14.8800 9.8899 0.0273
14.9000 9.9032 0.0272
14.9200 9.9165 0.0324
14.9400 9.9298 0.0314
14.9600 9.9432 0.0279
14.9800 9.9565 0.0326
15.0000 9.9698 0.0281
15.0200 9.9831 0.0281
15.0400 9.9965 0.0335
15.0600 10.0099 0.0269
15.0800 10.0232 0.0271
15.1000 10.0365 0.0311
15.1200 10.0499 0.0247
15.1400 10.0633 0.0286
15.1600 10.0766 0.0278
15.1800 10.0899 0.0299
15.2000 10.1032 0.0260
15.2200 10.1166 0.0210
15.2400 10.1299 0.0325
15.2600 10.1432 0.0261
15.2800 10.1565 0.0272
15.3000 10.1699 0.0321
15.3200 10.1832 0.0180
15.3400 10.1965 0.0301
15.3600 10.2098 0.0286
15.3800 10.2231 0.0224
15.4000 10.2365 0.0318
15.4200 10.2498 0.0245
15.4400 10.2632 0.0180
15.4600 10.2765 0.0292
15.4800 10.2899 0.0278
15.5000 10.3033 0.0158
15.5200 10.3166 0.0317
15.5400 10.3299 0.0229
15.5600 10.3432 0.0218
15.5800 10.3566 0.0323
15.6000 10.3699 0.0245
15.6200 10.3832 0.0212
15.6400 10.3965 0.0297
15.6600 10.4098 0.0241
15.6800 10.4232 0.0229
15.7000 10.4365 0.0264
15.7200 10.4498 0.0257
15.7400 10.4632 0.0268
15.7600 10.4765 0.0301
15.7800 10.4898 0.0215
15.8000 10.5032 0.0285
15.8200 10.5165 0.0264
15.8400 10.5298 0.0244
15.8600 10.5432 0.0322
15.8800 10.5566 0.0234
15.9000 10.5699 0.0290
15.9200 10.5832 0.0250
15.9400 10.5966 0.0266
15.9600 10.6099 0.0326
15.9800 10.6232 0.0246
16.0000 10.6365 0.0300
16.0200 10.6499 0.0309
16.0400 10.6632 0.0275
16.0600 10.6765 0.0268
16.0800 10.6898 0.0345
16.1000 10.7031 0.0267
16.1200 10.7165 0.0279
16.1400 10.7298 0.0356
16.1600 10.7432 0.0210
16.1800 10.7565 0.0293
16.2000 10.7699 0.0362
16.2200 10.7833 0.0208
16.2400 10.7966 0.0323
16.2600 10.8099 0.0301
16.2800 10.8232 0.0257
16.3000 10.8366 0.0308
16.3200 10.8499 0.0257
16.3400 10.8632 0.0260
16.3600 10.8765 0.0318
16.3800 10.8899 0.0303
16.4000 10.9032 0.0182
16.4200 10.9165 0.0355
16.4400 10.9298 0.0265
16.4600 10.9431 0.0220
16.4800 10.9565 0.0311
16.5000 10.9698 0.0255
16.5200 10.9832 0.0262
16.5400 10.9965 0.0252
16.5600 11.0099 0.0316
16.5800 11.0232 0.0287
16.6000 11.0366 0.0257
16.6200 11.0499 0.0319
16.6400 11.0632 0.0232
16.6600 11.0766 0.0252
16.6800 11.0899 0.0310
16.7000 11.1032 0.0241
16.7200 11.1165 0.0260
16.7400 11.1298 0.0313
16.7600 11.1432 0.0239
16.7800 11.1565 0.0218
16.8000 11.1698 0.0341
16.8200 11.1832 0.0234
16.8400 11.1965 0.0239
16.8600 11.2099 0.0297
16.8800 11.2232 0.0207
16.9000 11.2366 0.0230
16.9200 11.2499 0.0269
16.9400 11.2632 0.0181
16.9600 11.2766 0.0203
16.9800 11.2899 0.0293
17.0000 11.3032 0.0246
17.0200 11.3165 0.0204
17.0400 11.3299 0.0277
17.0600 11.3433 0.0213
17.0800 11.3566 0.0204
17.1000 11.3699 0.0268
17.1200 11.3832 0.0211
17.1400 11.3966 0.0178
17.1600 11.4099 0.0259
17.1800 11.4232 0.0159
17.2000 11.4365 0.0206
17.2200 11.4498 0.0258
17.2400 11.4632 0.0157
17.2600 11.4765 0.0153
17.2800 11.4898 0.0271
17.3000 11.5032 0.0165
17.3200 11.5166 0.0210
17.3400 11.5299 0.0180
17.3600 11.5432 0.0167
17.3800 11.5566 0.0234
17.4000 11.5699 0.0188
17.4200 11.5832 0.0178
17.4400 11.5965 0.0233
17.4600 11.6099 0.0242
17.4800 11.6232 0.0157
17.5000 11.6366 0.0211
17.5200 11.6499 0.0221
17.5400 11.6631 0.0153
17.5600 11.6765 0.0213
17.5800 11.6898 0.0200
17.6000 11.7032 0.0140
17.6200 11.7165 0.0161
17.6400 11.7298 0.0196
17.6600 11.7432 0.0186
17.6800 11.7566 0.0136
17.7000 11.7699 0.0196
17.7200 11.7832 0.0132
17.7400 11.7966 0.0181
17.7600 11.8099 0.0177
17.7800 11.8232 0.0152
17.8000 11.8365 0.0163
17.8200 11.8498 0.0185
17.8400 11.8632 0.0161
17.8600 11.8765 0.0134
17.8800 11.8898 0.0180
17.9000 11.9031 0.0194
17.9200 11.9165 0.0154
17.9400 11.9299 0.0150
17.9600 11.9432 0.0178
17.9800 11.9565 0.0147
18.0000 11.9699 0.0187
18.0200 11.9832 0.0187
18.0400 11.9966 0.0148
18.0600 12.0099 0.0220
18.0800 12.0232 0.0168
18.1000 12.0366 0.0175
18.1200 12.0499 0.0178
18.1400 12.0633 0.0141
18.1600 12.0766 0.0209
18.1800 12.0899 0.0187
18.2000 12.1032 0.0097
18.2200 12.1165 0.0214
18.2400 12.1298 0.0157
18.2600 12.1431 0.0139
18.2800 12.1565 0.0230
18.3000 12.1698 0.0125
18.3200 12.1832 0.0124
18.3400 12.1965 0.0204
18.3600 12.2099 0.0138
18.3800 12.2232 0.0129
18.4000 12.2366 0.0187
18.4200 12.2499 0.0084
18.4400 12.2632 0.0154
18.4600 12.2766 0.0203
18.4800 12.2899 0.0074
18.5000 12.3032 0.0191
18.5200 12.3165 0.0161
18.5400 12.3298 0.0074
18.5600 12.3432 0.0191
18.5800 12.3565 0.0089
18.6000 12.3699 0.0056
18.6200 12.3832 0.0199
18.6400 12.3965 0.0084
18.6600 12.4098 0.0057
18.6800 12.4232 0.0208
18.7000 12.4365 0.0078
18.7200 12.4499 0.0138
18.7400 12.4632 0.0149
18.7600 12.4766 0.0044
18.7800 12.4899 0.0146
18.8000 12.5032 0.0212
18.8200 12.5166 0.0054
18.8400 12.5299 0.0109
18.8600 12.5433 0.0178
18.8800 12.5565 0.0074
18.9000 12.5698 0.0158
18.9200 12.5832 0.0154
18.9400 12.5965 0.0082
18.9600 12.6098 0.0121
18.9800 12.6231 0.0138
19.0000 12.6365 0.0127
19.0200 12.6498 0.0095
19.0400 12.6632 0.0113
19.0600 12.6765 0.0072
19.0800 12.6898 0.0127
19.1000 12.7032 0.0120
19.1200 12.7165 0.0105
19.1400 12.7299 0.0064
19.1600 12.7432 0.0087
19.1800 12.7565 0.0092
19.2000 12.7699 0.0079
19.2200 12.7832 0.0135
19.2400 12.7966 0.0078
19.2600 12.8099 0.0061
19.2800 12.8232 0.0145
19.3000 12.8366 0.0052
19.3200 12.8499 0.0049
19.3400 12.8632 0.0125
19.3600 12.8765 0.0024
19.3800 12.8898 0.0040
19.4000 12.9031 0.0102
19.4200 12.9165 0.0024
19.4400 12.9298 0.0025
19.4600 12.9432 0.0090
19.4800 12.9566 -0.0032
19.5000 12.9699 0.0044
19.5200 12.9833 0.0138
19.5400 12.9966 -0.0021
19.5600 13.0100 0.0049
19.5800 13.0233 0.0044
19.6000 13.0366 -0.0053
19.6200 13.0499 0.0077
19.6400 13.0632 0.0039
19.6600 13.0765 -0.0048
19.6800 13.0898 0.0063
19.7000 13.1031 0.0031
19.7200 13.1164 -0.0036
19.7400 13.1298 0.0113
19.7600 13.1432 0.0007
19.7800 13.1565 -0.0057
19.8000 13.1698 0.0110
19.8200 13.1832 -0.0004
19.8400 13.1966 -0.0038
19.8600 13.2099 0.0078
19.8800 13.2232 -0.0015
19.9000 13.2365 -0.0008
19.9200 13.2499 0.0070
19.9400 13.2633 0.0008
19.9600 13.2766 0.0069
19.9800 13.2899 0.0050
20.0000 13.3032 0.0042
20.0200 13.3165 0.0038
20.0400 13.3299 0.0035
20.0600 13.3432 0.0071
20.0800 13.3565 0.0047
20.1000 13.3698 0.0016
20.1200 13.3832 0.0045
20.1400 13.3965 0.0024
20.1600 13.4099 0.0036
20.1800 13.4232 0.0099
20.2000 13.4366 -0.0013
20.2200 13.4499 -0.0012
20.2400 13.4632 0.0060
20.2600 13.4765 0.0008
20.2800 13.4899 -0.0001
20.3000 13.5032 0.0012
20.3200 13.5166 -0.0013
20.3400 13.5299 -0.0022
20.3600 13.5432 0.0019
20.3800 13.5566 -0.0065
20.4000 13.5699 -0.0048
20.4200 13.5832 0.0019
20.4400 13.5965 -0.0037
20.4600 13.6098 -0.0061
20.4800 13.6232 0.0002
20.5000 13.6365 -0.0049
20.5200 13.6499 -0.0019
20.5400 13.6632 0.0072
20.5600 13.6766 -0.0071
20.5800 13.6899 -0.0035
20.6000 13.7032 0.0061
20.6200 13.7166 -0.0050
20.6400 13.7299 -0.0046
20.6600 13.7433 0.0035
20.6800 13.7566 -0.0063
20.7000 13.7699 0.0001
20.7200 13.7832 0.0063
20.7400 13.7965 -0.0038
20.7600 13.8099 0.0006
20.7800 13.8232 0.0046
20.8000 13.8365 -0.0047
20.8200 13.8498 0.0043
20.8400 13.8632 -0.0017
20.8600 13.8765 -0.0036
20.8800 13.8898 0.0055
20.9000 13.9032 -0.0013
20.9200 13.9166 -0.0057
20.9400 13.9299 0.0068
20.9600 13.9432 0.0011
20.9800 13.9566 -0.0003
21.0000 13.9699 0.0054
21.0200 13.9833 -0.0016
21.0400 13.9966 -0.0004
21.0600 14.0099 0.0031
21.0800 14.0232 0.0018
21.1000 14.0365 -0.0022
21.1200 14.0499 -0.0043
21.1400 14.0632 0.0031
21.1600 14.0765 -0.0012
21.1800 14.0898 -0.0011
21.2000 14.1032 0.0019
21.2200 14.1165 -0.0004
21.2400 14.1298 0.0004
21.2600 14.1432 0.0049
21.2800 14.1566 -0.0043
21.3000 14.1699 -0.0022
21.3200 14.1832 0.0030
21.3400 14.1965 -0.0018
21.3600 14.2099 0.0008
21.3800 14.2233 0.0005
21.4000 14.2366 -0.0014
21.4200 14.2499 0.0048
21.4400 14.2632 0.0012
21.4600 14.2766 -0.0007
21.4800 14.2899 0.0011
21.5000 14.3032 -0.0008
21.5200 14.3165 -0.0020
21.5400 14.3298 -0.0005
21.5600 14.3431 0.0006
21.5800 14.3564 -0.0006
21.6000 14.3698 0.0031
21.6200 14.3832 -0.0018
21.6400 14.3966 0.0024
21.6600 14.4100 -0.0026
21.6800 14.4233 -0.0047
21.7000 14.4366 0.0048
21.7200 14.4499 0.0031
21.7400 14.4633 -0.0064
21.7600 14.4765 0.0021
21.7800 14.4898 0.0024
21.8000 14.5031 -0.0018
21.8200 14.5165 0.0070
21.8400 14.5298 -0.0021
21.8600 14.5431 -0.0129
21.8800 14.5565 0.0081
21.9000 14.5698 0.0004
21.9200 14.5832 -0.0059
21.9400 14.5965 0.0061
21.9600 14.6099 -0.0011
21.9800 14.6232 -0.0045
22.0000 14.6366 0.0053
22.0200 14.6499 0.0026
22.0400 14.6632 -0.0043
22.0600 14.6766 0.0043
22.0800 14.6899 0.0037
22.1000 14.7032 -0.0081
22.1200 14.7166 0.0089
22.1400 14.7299 0.0004
22.1600 14.7432 -0.0083
22.1800 14.7565 0.0074
22.2000 14.7699 0.0003
22.2200 14.7832 -0.0053
22.2400 14.7965 0.0076
22.2600 14.8098 -0.0054
22.2800 14.8232 -0.0118
22.3000 14.8365 0.0033
22.3200 14.8499 -0.0054
22.3400 14.8632 -0.0100
22.3600 14.8766 0.0006
22.3800 14.8899 -0.0053
22.4000 14.9032 -0.0059
22.4200 14.9166 0.0004
22.4400 14.9299 -0.0089
22.4600 14.9433 -0.0075
22.4800 14.9566 -0.0031
22.5000 14.9699 -0.0071
22.5200 14.9832 -0.0046
22.5400 14.9965 -0.0026
22.5600 15.0099 -0.0093
22.5800 15.0232 -0.0062
22.6000 15.0365 -0.0019
22.6200 15.0498 -0.0039
22.6400 15.0632 -0.0065
22.6600 15.0765 -0.0063
22.6800 15.0898 -0.0075
22.7000 15.1032 -0.0107
22.7200 15.1166 -0.0062
22.7400 15.1299 -0.0017
22.7600 15.1432 -0.0100
22.7800 15.1566 -0.0078
22.8000 15.1699 -0.0029
22.8200 15.1832 -0.0101
22.8400 15.1965 -0.0065
22.8600 15.2098 -0.0015
22.8800 15.2232 -0.0119
22.9000 15.2365 -0.0099
22.9200 15.2499 -0.0044
22.9400 15.2632 -0.0124
22.9600 15.2765 -0.0091
22.9800 15.2898 -0.0080
23.0000 15.3032 -0.0118
23.0200 15.3165 -0.0106
23.0400 15.3298 -0.0080
23.0600 15.3432 -0.0113
23.0800 15.3565 -0.0111
23.1000 15.3699 -0.0093
23.1200 15.3832 -0.0176
23.1400 15.3965 -0.0099
23.1600 15.4099 -0.0114
23.1800 15.4233 -0.0226
23.2000 15.4366 -0.0066
23.2200 15.4499 -0.0100
23.2400 15.4632 -0.0193
23.2600 15.4765 -0.0085
23.2800 15.4899 -0.0150
23.3000 15.5032 -0.0249
23.3200 15.5165 -0.0043
23.3400 15.5298 -0.0182
23.3600 15.5432 -0.0232
23.3800 15.5565 -0.0077
23.4000 15.5698 -0.0181
23.4200 15.5832 -0.0193
23.4400 15.5966 -0.0099
23.4600 15.6100 -0.0212
23.4800 15.6233 -0.0172
23.5000 15.6366 -0.0116
23.5200 15.6499 -0.0191
23.5400 15.6633 -0.0160
23.5600 15.6766 -0.0142
23.5800 15.6899 -0.0182
23.6000 15.7032 -0.0178
23.6200 15.7165 -0.0125
23.6400 15.7299 -0.0157
23.6600 15.7432 -0.0196
23.6800 15.7565 -0.0141
23.7000 15.7698 -0.0169
23.7200 15.7832 -0.0200
23.7400 15.7965 -0.0138
23.7600 15.8098 -0.0159
23.7800 15.8232 -0.0241
23.8000 15.8366 -0.0172
23.8200 15.8499 -0.0147
23.8400 15.8633 -0.0240
23.8600 15.8766 -0.0155
23.8800 15.8899 -0.0177
23.9000 15.9032 -0.0258
23.9200 15.9165 -0.0148
23.9400 15.9298 -0.0181
23.9600 15.9431 -0.0236
23.9800 15.9565 -0.0149
24.0000 15.9698 -0.0198
24.0200 15.9832 -0.0239
24.0400 15.9965 -0.0132
24.0600 16.0098 -0.0174
24.0800 16.0232 -0.0239
24.1000 16.0366 -0.0138
24.1200 16.0499 -0.0252
24.1400 16.0632 -0.0176
24.1600 16.0766 -0.0164
24.1800 16.0899 -0.0298
24.2000 16.1032 -0.0201
24.2200 16.1165 -0.0134
24.2400 16.1298 -0.0255
24.2600 16.1432 -0.0268
24.2800 16.1566 -0.0205
24.3000 16.1699 -0.0243
24.3200 16.1832 -0.0286
24.3400 16.1966 -0.0198
24.3600 16.2099 -0.0227
24.3800 16.2232 -0.0269
24.4000 16.2365 -0.0235
24.4200 16.2498 -0.0239
24.4400 16.2632 -0.0227
24.4600 16.2765 -0.0233
24.4800 16.2898 -0.0205
24.5000 16.3032 -0.0243
24.5200 16.3165 -0.0262
24.5400 16.3299 -0.0222
24.5600 16.3432 -0.0264
24.5800 16.3566 -0.0233
24.6000 16.3699 -0.0248
24.6200 16.3832 -0.0275
24.6400 16.3966 -0.0226
24.6600 16.4099 -0.0239
24.6800 16.4232 -0.0229
24.7000 16.4366 -0.0232
24.7200 16.4499 -0.0240
24.7400 16.4632 -0.0282
24.7600 16.4765 -0.0217
24.7800 16.4898 -0.0225
24.8000 16.5031 -0.0268
24.8200 16.5165 -0.0208
24.8400 16.5298 -0.0203
24.8600 16.5432 -0.0212
24.8800 16.5565 -0.0210
24.9000 16.5699 -0.0226
24.9200 16.5833 -0.0232
24.9400 16.5966 -0.0239
24.9600 16.6099 -0.0213
24.9800 16.6233 -0.0218
25.0000 16.6366 -0.0235
25.0200 16.6499 -0.0263
25.0400 16.6632 -0.0182
25.0600 16.6765 -0.0217
25.0800 16.6899 -0.0203
25.1000 16.7032 -0.0197
25.1200 16.7165 -0.0240
25.1400 16.7298 -0.0251
25.1600 16.7432 -0.0244
25.1800 16.7565 -0.0252
25.2000 16.7698 -0.0232
25.2200 16.7832 -0.0275
25.2400 16.7965 -0.0272
25.2600 16.8099 -0.0265
25.2800 16.8232 -0.0272
25.3000 16.8366 -0.0238
25.3200 16.8499 -0.0261
25.3400 16.8633 -0.0323
25.3600 16.8766 -0.0271
25.3800 16.8899 -0.0289
25.4000 16.9032 -0.0334
25.4200 16.9165 -0.0268
25.4400 16.9299 -0.0338
25.4600 16.9432 -0.0361
25.4800 16.9565 -0.0222
25.5000 16.9698 -0.0322
25.5200 16.9831 -0.0332
25.5400 16.9965 -0.0293
25.5600 17.0098 -0.0345
25.5800 17.0231 -0.0305
25.6000 17.0365 -0.0293
25.6200 17.0499 -0.0327
25.6400 17.0633 -0.0336
25.6600 17.0766 -0.0311
25.6800 17.0899 -0.0337
25.7000 17.1032 -0.0299
25.7200 17.1166 -0.0296
25.7400 17.1299 -0.0336
25.7600 17.1432 -0.0271
25.7800 17.1565 -0.0343
25.8000 17.1699 -0.0355
25.8200 17.1832 -0.0268
25.8400 17.1965 -0.0374
25.8600 17.2098 -0.0342
25.8800 17.2232 -0.0323
25.9000 17.2365 -0.0377
25.9200 17.2498 -0.0283
25.9400 17.2632 -0.0316
25.9600 17.2765 -0.0369
25.9800 17.2899 -0.0351
26.0000 17.3033 -0.0343
26.0200 17.3166 -0.0371
26.0400 17.3299 -0.0275
26.0600 17.3432 -0.0342
26.0800 17.3566 -0.0369
26.1000 17.3699 -0.0300
26.1200 17.3832 -0.0324
26.1400 17.3965 -0.0309
26.1600 17.4099 -0.0326
26.1800 17.4232 -0.0355
26.2000 17.4365 -0.0300
26.2200 17.4498 -0.0328
26.2400 17.4632 -0.0319
26.2600 17.4765 -0.0269
26.2800 17.4899 -0.0299
26.3000 17.5032 -0.0343
26.3200 17.5165 -0.0329
26.3400 17.5299 -0.0328
26.3600 17.5432 -0.0297
26.3800 17.5565 -0.0358
26.4000 17.5698 -0.0282
26.4200 17.5832 -0.0277
26.4400 17.5966 -0.0328
26.4600 17.6099 -0.0338
26.4800 17.6232 -0.0275
26.5000 17.6366 -0.0313
26.5200 17.6499 -0.0319
26.5400 17.6632 -0.0295
26.5600 17.6765 -0.0313
26.5800 17.6898 -0.0323
26.6000 17.7031 -0.0262
26.6200 17.7164 -0.0322
26.6400 17.7298 -0.0301
26.6600 17.7431 -0.0274
26.6800 17.7565 -0.0341
26.7000 17.7699 -0.0319
26.7200 17.7833 -0.0295
26.7400 17.7966 -0.0345
26.7600 17.8099 -0.0315
26.7800 17.8233 -0.0294
26.8000 17.8366 -0.0332
26.8200 17.8499 -0.0327
26.8400 17.8632 -0.0312
26.8600 17.8765 -0.0348
26.8800 17.8898 -0.0293
26.9000 17.9032 -0.0316
26.9200 17.9165 -0.0349
26.9400 17.9298 -0.0282
26.9600 17.9431 -0.0359
26.9800 17.9565 -0.0373
27.0000 17.9698 -0.0325
27.0200 17.9832 -0.0392
27.0400 17.9965 -0.0377
27.0600 18.0099 -0.0385
27.0800 18.0233 -0.0408
27.1000 18.0366 -0.0386
27.1200 18.0499 -0.0436
27.1400 18.0632 -0.0361
27.1600 18.0766 -0.0399
27.1800 18.0899 -0.0447
27.2000 18.1032 -0.0390
27.2200 18.1165 -0.0416
27.2400 18.1299 -0.0492
27.2600 18.1432 -0.0440
27.2800 18.1565 -0.0412
27.3000 18.1698 -0.0475
27.3200 18.1831 -0.0461
27.3400 18.1965 -0.0410
27.3600 18.2099 -0.0498
27.3800 18.2232 -0.0418
27.4000 18.2365 -0.0458
27.4200 18.2499 -0.0479
27.4400 18.2633 -0.0422
27.4600 18.2766 -0.0456
27.4800 18.2899 -0.0490
27.5000 18.3032 -0.0395
27.5200 18.3166 -0.0473
27.5400 18.3299 -0.0510
27.5600 18.3433 -0.0413
27.5800 18.3566 -0.0479
27.6000 18.3699 -0.0484
27.6200 18.3832 -0.0433
27.6400 18.3965 -0.0528
27.6600 18.4098 -0.0488
27.6800 18.4231 -0.0422
27.7000 18.4365 -0.0561
27.7200 18.4499 -0.0471
27.7400 18.4632 -0.0492
27.7600 18.4765 -0.0505
27.7800 18.4899 -0.0477
27.8000 18.5033 -0.0489
27.8200 18.5166 -0.0559
27.8400 18.5299 -0.0482
27.8600 18.5432 -0.0520
27.8800 18.5566 -0.0551
27.9000 18.5699 -0.0467
27.9200 18.5832 -0.0523
27.9400 18.5965 -0.0567
27.9600 18.6098 -0.0490
27.9800 18.6232 -0.0548
28.0000 18.6365 -0.0579
28.0200 18.6498 -0.0543
28.0400 18.6632 -0.0496
28.0600 18.6765 -0.0557
28.0800 18.6898 -0.0577
28.1000 18.7032 -0.0504
28.1200 18.7165 -0.0492
28.1400 18.7299 -0.0625
28.1600 18.7432 -0.0515
28.1800 18.7566 -0.0386
28.2000 18.7699 -0.0658
28.2200 18.7832 -0.0559
28.2400 18.7966 -0.0375
28.2600 18.8100 -0.0568
28.2800 18.8233 -0.0630
28.3000 18.8365 -0.0336
28.3200 18.8499 -0.0561
28.3400 18.8632 -0.0637
28.3600 18.8765 -0.0320
28.3800 18.8898 -0.0428
28.4000 18.9031 -0.0612
28.4200 18.9165 -0.0451
28.4400 18.9298 -0.0403
28.4600 18.9432 -0.0462
28.4800 18.9565 -0.0496
28.5000 18.9699 -0.0478
28.5200 18.9832 -0.0411
28.5400 18.9966 -0.0454
28.5600 19.0099 -0.0561
28.5800 19.0232 -0.0268
28.6000 19.0366 -0.0524
28.6200 19.0499 -0.0613
28.6400 19.0632 -0.0273
28.6600 19.0765 -0.0470
28.6800 19.0899 -0.0646
28.7000 19.1032 -0.0325
28.7200 19.1165 -0.0536
28.7400 19.1298 -0.0624
28.7600 19.1431 -0.0308
28.7800 19.1564 -0.0620
28.8000 19.1698 -0.0593
28.8200 19.1831 -0.0422
28.8400 19.1965 -0.0671
28.8600 19.2099 -0.0492
28.8800 19.2233 -0.0535
28.9000 19.2366 -0.0779
28.9200 19.2500 -0.0426
28.9400 19.2633 -0.0563
28.9600 19.2766 -0.0712
28.9800 19.2899 -0.0449
29.0000 19.3032 -0.0578
29.0200 19.3165 -0.0707
29.0400 19.3298 -0.0476
29.0600 19.3432 -0.0647
29.0800 19.3565 -0.0631
29.1000 19.3698 -0.0536
29.1200 19.3832 -0.0700
29.1400 19.3965 -0.0554
29.1600 19.4099 -0.0598
29.1800 19.4232 -0.0747
29.2000 19.4365 -0.0435
29.2200 19.4499 -0.0598
29.2400 19.4633 -0.0732
29.2600 19.4766 -0.0485
29.2800 19.4899 -0.0611
29.3000 19.5032 -0.0733
29.3200 19.5166 -0.0441
29.3400 19.5299 -0.0610
29.3600 19.5432 -0.0673
29.3800 19.5565 -0.0496
29.4000 19.5698 -0.0631
29.4200 19.5832 -0.0594
29.4400 19.5965 -0.0482
29.4600 19.6098 -0.0667
29.4800 19.6231 -0.0557
29.5000 19.6365 -0.0524
29.5200 19.6499 -0.0669
29.5400 19.6632 -0.0568
29.5600 19.6765 -0.0546
29.5800 19.6899 -0.0645
29.6000 19.7032 -0.0583
29.6200 19.7166 -0.0548
29.6400 19.7299 -0.0662
29.6600 19.7432 -0.0575
29.6800 19.7565 -0.0567
29.7000 19.7699 -0.0661
29.7200 19.7832 -0.0640
29.7400 19.7965 -0.0582
29.7600 19.8099 -0.0594
29.7800 19.8232 -0.0667
29.8000 19.8365 -0.0632
29.8200 19.8498 -0.0592
29.8400 19.8631 -0.0700
29.8600 19.8765 -0.0622
29.8800 19.8898 -0.0600
29.9000 19.9032 -0.0733
29.9200 19.9165 -0.0630
29.9400 19.9299 -0.0594
29.9600 19.9433 -0.0748
29.9800 19.9566 -0.0605
30.0000 19.9699 -0.0641
30.0200 19.9833 -0.0730
30.0400 19.9966 -0.0600
30.0600 20.0099 -0.0674
30.0800 20.0232 -0.0707
30.1000 20.0365 -0.0625
30.1200 20.0498 -0.0686
30.1400 20.0632 -0.0693
30.1600 20.0765 -0.0659
30.1800 20.0898 -0.0659
30.2000 20.1032 -0.0710
30.2200 20.1165 -0.0651
30.2400 20.1298 -0.0668
30.2600 20.1432 -0.0704
30.2800 20.1565 -0.0623
30.3000 20.1698 -0.0721
30.3200 20.1832 -0.0709
30.3400 20.1966 -0.0617
30.3600 20.2099 -0.0688
30.3800 20.2232 -0.0705
30.4000 20.2366 -0.0640
30.4200 20.2499 -0.0706
30.4400 20.2633 -0.0673
30.4600 20.2766 -0.0629
30.4800 20.2899 -0.0735
30.5000 20.3032 -0.0685
30.5200 20.3165 -0.0672
30.5400 20.3298 -0.0756
30.5600 20.3431 -0.0712
30.5800 20.3565 -0.0710
30.6000 20.3698 -0.0694
30.6200 20.3832 -0.0679
30.6400 20.3965 -0.0673
30.6600 20.4099 -0.0605
30.6800 20.4233 -0.0383
30.7000 20.4366 0.0099
30.7200 20.4499 0.0864
30.7400 20.4632 0.1347
30.7600 20.4766 0.1995
30.7800 20.4899 0.2620
30.8000 20.5032 0.3057
30.8200 20.5165 0.3631
30.8400 20.5298 0.4156
30.8600 20.5432 0.4463
30.8800 20.5565 0.5004
30.9000 20.5698 0.5388
30.9200 20.5831 0.5308
30.9400 20.5965 0.5335
30.9600 20.6098 0.5131
30.9800 20.6232 0.4915
31.0000 20.6365 0.5088
31.0200 20.6498 0.4963
31.0400 20.6632 0.4942
31.0600 20.6766 0.5011
31.0800 20.6899 0.4859
31.1000 20.7032 0.4901
31.1200 20.7166 0.4876
31.1400 20.7299 0.4805
31.1600 20.7432 0.4886
31.1800 20.7565 0.4972
31.2000 20.7698 0.4874
31.2200 20.7832 0.4911
31.2400 20.7965 0.4885
31.2600 20.8098 0.4847
31.2800 20.8231 0.4830
31.3000 20.8365 0.4743
31.3200 20.8499 0.4761
31.3400 20.8632 0.4667
31.3600 20.8766 0.4703
31.3800 20.8899 0.4757
31.4000 20.9033 0.4659
31.4200 20.9166 0.4736
31.4400 20.9299 0.4795
31.4600 20.9432 0.4738
31.4800 20.9565 0.4750
31.5000 20.9699 0.4733
31.5200 20.9832 0.4733
31.5400 20.9965 0.4686
31.5600 21.0099 0.4694
31.5800 21.0232 0.4714
31.6000 21.0366 0.4721
31.6200 21.0499 0.4714
31.6400 21.0632 0.4665
31.6600 21.0765 0.4730
31.6800 21.0898 0.4757
31.7000 21.1032 0.4615
31.7200 21.1165 0.4600
31.7400 21.1298 0.4712
31.7600 21.1432 0.4623
31.7800 21.1566 0.4554
31.8000 21.1699 0.4684
31.8200 21.1832 0.4522
31.8400 21.1965 0.4564
31.8600 21.2099 0.4626
31.8800 21.2232 0.4475
31.9000 21.2365 0.4634
31.9200 21.2499 0.4656
31.9400 21.2632 0.4457
31.9600 21.2766 0.4607
31.9800 21.2899 0.4568
32.0000 21.3032 0.4426
32.0200 21.3165 0.4622
32.0400 21.3298 0.4535
32.0600 21.3432 0.4413
32.0800 21.3565 0.4569
32.1000 21.3699 0.4481
32.1200 21.3832 0.4405
32.1400 21.3966 0.4522
32.1600 21.4099 0.4419
32.1800 21.4232 0.4399
32.2000 21.4366 0.4478
32.2200 21.4499 0.4418
32.2400 21.4632 0.4490
32.2600 21.4765 0.4442
32.2800 21.4898 0.4419
32.3000 21.5032 0.4441
32.3200 21.5165 0.4407
32.3400 21.5298 0.4390
32.3600 21.5431 0.4439
32.3800 21.5565 0.4352
32.4000 21.5698 0.4443
32.4200 21.5832 0.4432
32.4400 21.5965 0.4367
32.4600 21.6098 0.4387
32.4800 21.6232 0.4370
32.5000 21.6365 0.4322
32.5200 21.6499 0.4375
32.5400 21.6632 0.4303
32.5600 21.6766 0.4287
32.5800 21.6899 0.4326
32.6000 21.7033 0.4277
32.6200 21.7166 0.4274
32.6400 21.7299 0.4336
32.6600 21.7432 0.4245
32.6800 21.7565 0.4238
32.7000 21.7698 0.4262
32.7200 21.7831 0.4223
32.7400 21.7965 0.4270
32.7600 21.8098 0.4210
32.7800 21.8232 0.4229
32.8000 21.8365 0.4246
32.8200 21.8499 0.4188
32.8400 21.8632 0.4208
32.8600 21.8766 0.4184
32.8800 21.8899 0.4168
32.9000 21.9032 0.4190
32.9200 21.9166 0.4148
32.9400 21.9299 0.4100
32.9600 21.9433 0.4116
32.9800 21.9566 0.4128
33.0000 21.9699 0.4100
33.0200 21.9832 0.4103
33.0400 21.9966 0.4088
33.0600 22.0099 0.4080
33.0800 22.0232 0.4114
33.1000 22.0365 0.4156
33.1200 22.0498 0.4089
33.1400 22.0632 0.4085
33.1600 22.0765 0.4090
33.1800 22.0898 0.4089
33.2000 22.1032 0.4086
33.2200 22.1166 0.4044
33.2400 22.1299 0.4045
33.2600 22.1432 0.4084
33.2800 22.1566 0.4025
33.3000 22.1699 0.4063
33.3200 22.1832 0.4059
33.3400 22.1965 0.4035
33.3600 22.2098 0.4050
33.3800 22.2232 0.4043
33.4000 22.2365 0.3966
33.4200 22.2498 0.3991
33.4400 22.2632 0.4073
33.4600 22.2765 0.3951
33.4800 22.2898 0.4003
33.5000 22.3032 0.4071
33.5200 22.3165 0.3958
33.5400 22.3298 0.3984
33.5600 22.3432 0.4024
33.5800 22.3565 0.3938
33.6000 22.3699 0.3947
33.6200 22.3832 0.4010
33.6400 22.3965 0.3952
33.6600 22.4099 0.3956
33.6800 22.4232 0.3984
33.7000 22.4366 0.3933
33.7200 22.4499 0.3957
33.7400 22.4633 0.3978
33.7600 22.4766 0.3890
33.7800 22.4899 0.3931
33.8000 22.5032 0.3945
33.8200 22.5165 0.3828
33.8400 22.5298 0.3947
33.8600 22.5431 0.3931
33.8800 22.5565 0.3818
33.9000 22.5698 0.3905
33.9200 22.5832 0.3931
33.9400 22.5966 0.3793
33.9600 22.6100 0.3937
33.9800 22.6233 0.3891
34.0000 22.6366 0.3798
34.0200 22.6500 0.3884
34.0400 22.6633 0.3832
34.0600 22.6766 0.3798
34.0800 22.6899 0.3915
34.1000 22.7032 0.3851
34.1200 22.7165 0.3784
34.1400 22.7298 0.3880
34.1600 22.7431 0.3832
34.1800 22.7565 0.3753
34.2000 22.7698 0.3863
34.2200 22.7832 0.3777
34.2400 22.7965 0.3722
34.2600 22.8098 0.3822
34.2800 22.8232 0.3708
34.3000 22.8366 0.3786
34.3200 22.8499 0.3801
34.3400 22.8633 0.3745
34.3600 22.8766 0.3820
34.3800 22.8900 0.3753
34.4000 22.9033 0.3731
34.4200 22.9166 0.3748
34.4400 22.9299 0.3697
34.4600 22.9432 0.3770
34.4800 22.9565 0.3685
34.5000 22.9699 0.3686
34.5200 22.9832 0.3725
34.5400 22.9965 0.3666
34.5600 23.0098 0.3632
34.5800 23.0232 0.3727
34.6000 23.0365 0.3625
34.6200 23.0498 0.3622
34.6400 23.0632 0.3730
34.6600 23.0765 0.3596
34.6800 23.0899 0.3622
34.7000 23.1032 0.3721
34.7200 23.1165 0.3554
34.7400 23.1299 0.3654
34.7600 23.1432 0.3697
34.7800 23.1566 0.3542
34.8000 23.1699 0.3656
34.8200 23.1832 0.3656
34.8400 23.1966 0.3550
34.8600 23.2099 0.3620
34.8800 23.2232 0.3649
34.9000 23.2365 0.3553
34.9200 23.2498 0.3602
34.9400 23.2632 0.3631
34.9600 23.2765 0.3532
34.9800 23.2899 0.3601
35.0000 23.3032 0.3607
35.0200 23.3166 0.3535
35.0400 23.3299 0.3569
35.0600 23.3432 0.3560
35.0800 23.3566 0.3546
35.1000 23.3699 0.3589
35.1200 23.3832 0.3555
35.1400 23.3965 0.3527
35.1600 23.4098 0.3568
35.1800 23.4232 0.3517
35.2000 23.4365 0.3484
35.2200 23.4499 0.3531
35.2400 23.4632 0.3530
35.2600 23.4765 0.3487
35.2800 23.4898 0.3524
35.3000 23.5032 0.3493
35.3200 23.5165 0.3455
35.3400 23.5298 0.3543
35.3600 23.5432 0.3438
35.3800 23.5566 0.3457
35.4000 23.5699 0.3492
35.4200 23.5832 0.3388
35.4400 23.5966 0.3463
35.4600 23.6099 0.3487
35.4800 23.6233 0.3365
35.5000 23.6366 0.3460
35.5200 23.6499 0.3460
35.5400 23.6632 0.3325
35.5600 23.6765 0.3465
35.5800 23.6899 0.3441
35.6000 23.7032 0.3340
35.6200 23.7165 0.3418
35.6400 23.7298 0.3419
35.6600 23.7432 0.3349
35.6800 23.7565 0.3457
35.7000 23.7698 0.3349
35.7200 23.7832 0.3321
35.7400 23.7966 0.3463
35.7600 23.8099 0.3324
35.7800 23.8232 0.3363
35.8000 23.8365 0.3413
35.8200 23.8499 0.3348
35.8400 23.8633 0.3345
35.8600 23.8766 0.3372
35.8800 23.8899 0.3381
35.9000 23.9032 0.3300
35.9200 23.9165 0.3351
35.9400 23.9299 0.3299
35.9600 23.9432 0.3291
35.9800 23.9564 0.3338
36.0000 23.9698 0.3268
36.0200 23.9831 0.3278
36.0400 23.9965 0.3323
36.0600 24.0098 0.3285
36.0800 24.0232 0.3236
36.1000 24.0366 0.3321
36.1200 24.0500 0.3234
36.1400 24.0633 0.3230
36.1600 24.0766 0.3285
36.1800 24.0899 0.3255
36.2000 24.1033 0.3214
36.2200 24.1166 0.3270
36.2400 24.1299 0.3208
36.2600 24.1431 0.3201
36.2800 24.1565 0.3258
36.3000 24.1698 0.3184
36.3200 24.1831 0.3152
36.3400 24.1965 0.3257
36.3600 24.2098 0.3199
36.3800 24.2232 0.3169
36.4000 24.2365 0.3232
36.4200 24.2499 0.3147
36.4400 24.2632 0.3166
36.4600 24.2766 0.3199
36.4800 24.2899 0.3100
36.5000 24.3032 0.3183
36.5200 24.3165 0.3207
36.5400 24.3299 0.3066
36.5600 24.3432 0.3196
36.5800 24.3566 0.3180
36.6000 24.3699 0.3088
36.6200 24.3832 0.3136
36.6400 24.3965 0.3162
36.6600 24.4098 0.3066
36.6800 24.4232 0.3126
36.7000 24.4365 0.3105
36.7200 24.4498 0.3112
36.7400 24.4632 0.3099
36.7600 24.4765 0.3088
36.7800 24.4899 0.3088
36.8000 24.5032 0.3089
36.8200 24.5166 0.3119
36.8400 24.5299 0.3085
36.8600 24.5432 0.3018
36.8800 24.5565 0.3114
36.9000 24.5699 0.3085
36.9200 24.5833 0.3035
36.9400 24.5966 0.3083
36.9600 24.6099 0.3099
36.9800 24.6232 0.3030
37.0000 24.6365 0.3140
37.0200 24.6499 0.3087
37.0400 24.6632 0.2995
37.0600 24.6765 0.3187
37.0800 24.6898 0.3073
37.1000 24.7032 0.3015
37.1200 24.7165 0.3143
37.1400 24.7298 0.3016
37.1600 24.7432 0.3039
37.1800 24.7565 0.3164
37.2000 24.7699 0.3002
37.2200 24.7833 0.3035
37.2400 24.7966 0.3168
37.2600 24.8099 0.3017
37.2800 24.8233 0.3023
37.3000 24.8366 0.3122
37.3200 24.8499 0.2977
37.3400 24.8632 0.3060
37.3600 24.8765 0.3112
37.3800 24.8899 0.2938
37.4000 24.9032 0.3060
37.4200 24.9165 0.3128
37.4400 24.9298 0.2879
37.4600 24.9432 0.3056
37.4800 24.9565 0.3068
37.5000 24.9698 0.2880
37.5200 24.9832 0.3019
37.5400 24.9965 0.3066
37.5600 25.0099 0.2887
37.5800 25.0232 0.3007
37.6000 25.0365 0.3012
37.6200 25.0499 0.2871
37.6400 25.0632 0.3012
37.6600 25.0766 0.2989
37.6800 25.0899 0.2845
37.7000 25.1032 0.3006
37.7200 25.1165 0.2927
37.7400 25.1299 0.2858
37.7600 25.1432 0.2919
37.7800 25.1565 0.2916
37.8000 25.1698 0.2922
37.8200 25.1831 0.2878
37.8400 25.1965 0.2877
37.8600 25.2098 0.2867
37.8800 25.2232 0.2887
37.9000 25.2366 0.2874
37.9200 25.2500 0.2845
37.9400 25.2633 0.2856
37.9600 25.2766 0.2872
37.9800 25.2899 0.2857
38.0000 25.3033 0.2822
38.0200 25.3166 0.2880
38.0400 25.3299 0.2835
38.0600 25.3432 0.2821
38.0800 25.3565 0.2852
38.1000 25.3699 0.2769
38.1200 25.3832 0.2854
38.1400 25.3965 0.2826
38.1600 25.4098 0.2762
38.1800 25.4231 0.2842
38.2000 25.4365 0.2821
38.2200 25.4498 0.2777
38.2400 25.4631 0.2859
38.2600 25.4765 0.2789
38.2800 25.4899 0.2754
38.3000 25.5033 0.2785
38.3200 25.5166 0.2793
38.3400 25.5299 0.2740
38.3600 25.5433 0.2711
38.3800 25.5566 0.2746
38.4000 25.5699 0.2769
38.4200 25.5832 0.2709
38.4400 25.5965 0.2794
38.4600 25.6098 0.2695
38.4800 25.6232 0.2683
38.5000 25.6365 0.2742
38.5200 25.6498 0.2693
38.5400 25.6632 0.2651
38.5600 25.6766 0.2718
38.5800 25.6899 0.2650
38.6000 25.7032 0.2646
38.6200 25.7165 0.2743
38.6400 25.7299 0.2621
38.6600 25.7432 0.2650
38.6800 25.7565 0.2719
38.7000 25.7699 0.2554
38.7200 25.7832 0.2633
38.7400 25.7966 0.2671
38.7600 25.8099 0.2555
38.7800 25.8232 0.2661
38.8000 25.8366 0.2615
38.8200 25.8499 0.2546
38.8400 25.8632 0.2592
38.8600 25.8765 0.2608
38.8800 25.8898 0.2558
38.9000 25.9032 0.2571
38.9200 25.9165 0.2534
38.9400 25.9298 0.2547
38.9600 25.9431 0.2618
38.9800 25.9565 0.2546
39.0000 25.9699 0.2563
39.0200 25.9832 0.2624
39.0400 25.9966 0.2510
39.0600 26.0099 0.2607
39.0800 26.0232 0.2539
39.1000 26.0366 0.2553
39.1200 26.0499 0.2592
39.1400 26.0632 0.2517
39.1600 26.0765 0.2606
39.1800 26.0899 0.2603
39.2000 26.1032 0.2543
39.2200 26.1165 0.2585
39.2400 26.1298 0.2569
39.2600 26.1431 0.2565
39.2800 26.1565 0.2583
39.3000 26.1698 0.2540
39.3200 26.1832 0.2568
39.3400 26.1965 0.2557
39.3600 26.2099 0.2537
39.3800 26.2233 0.2524
39.4000 26.2366 0.2553
39.4200 26.2499 0.2557
39.4400 26.2633 0.2544
39.4600 26.2766 0.2518
39.4800 26.2899 0.2520
39.5000 26.3032 0.2565
39.5200 26.3165 0.2525
39.5400 26.3299 0.2552
39.5600 26.3432 0.2510
39.5800 26.3565 0.2495
39.6000 26.3698 0.2566
39.6200 26.3832 0.2511
39.6400 26.3965 0.2491
39.6600 26.4099 0.2497
39.6800 26.4232 0.2500
39.7000 26.4365 0.2479
39.7200 26.4499 0.2500
39.7400 26.4632 0.2511
39.7600 26.4766 0.2448
39.7800 26.4899 0.2497
39.8000 26.5033 0.2492
39.8200 26.5166 0.2430
39.8400 26.5299 0.2453
39.8600 26.5432 0.2487
39.8800 26.5565 0.2446
39.9000 26.5699 0.2390
39.9200 26.5832 0.2498
39.9400 26.5965 0.2366
39.9600 26.6098 0.2442
39.9800 26.6231 0.2465
40.0000 26.6365 0.2333
40.0200 26.6498 0.2471
40.0400 26.6632 0.2411
40.0600 26.6765 0.2392
40.0800 26.6899 0.2396
40.1000 26.7033 0.2351
40.1200 26.7166 0.2414
40.1400 26.7299 0.2370
40.1600 26.7432 0.2388
40.1800 26.7566 0.2384
40.2000 26.7699 0.2363
40.2200 26.7832 0.2369
40.2400 26.7965 0.2340
40.2600 26.8099 0.2374
40.2800 26.8232 0.2366
40.3000 26.8365 0.2321
40.3200 26.8498 0.2328
40.3400 26.8632 0.2360
40.3600 26.8765 0.2333
40.3800 26.8898 0.2307
40.4000 26.9032 0.2390
40.4200 26.9165 0.2345
40.4400 26.9299 0.2312
40.4600 26.9433 0.2383
40.4800 26.9566 0.2300
40.5000 26.9699 0.2348
40.5200 26.9832 0.2350
40.5400 26.9966 0.2275
40.5600 27.0099 0.2319
40.5800 27.0232 0.2340
40.6000 27.0365 0.2311
40.6200 27.0498 0.2345
40.6400 27.0632 0.2337
40.6600 27.0765 0.2292
40.6800 27.0898 0.2309
40.7000 27.1032 0.2321
40.7200 27.1165 0.2255
40.7400 27.1299 0.2321
40.7600 27.1432 0.2316
40.7800 27.1565 0.2205
40.8000 27.1699 0.2309
40.8200 27.1832 0.2317
40.8400 27.1965 0.2199
40.8600 27.2098 0.2284
40.8800 27.2232 0.2272
40.9000 27.2366 0.2155
40.9200 27.2499 0.2245
40.9400 27.2632 0.2231
40.9600 27.2766 0.2167
40.9800 27.2899 0.2235
41.0000 27.3033 0.2190
41.0200 27.3166 0.2148
41.0400 27.3299 0.2242
41.0600 27.3431 0.2152
41.0800 27.3565 0.2188
41.1000 27.3698 0.2185
41.1200 27.3831 0.2117
41.1400 27.3965 0.2182
41.1600 27.4099 0.2173
41.1800 27.4233 0.2138
41.2000 27.4366 0.2141
41.2200 27.4499 0.2119
41.2400 27.4633 0.2166
41.2600 27.4766 0.2128
41.2800 27.4899 0.2088
41.3000 27.5032 0.2171
41.3200 27.5165 0.2108
41.3400 27.5299 0.2079
41.3600 27.5432 0.2184
41.3800 27.5565 0.2085
41.4000 27.5698 0.2054
41.4200 27.5831 0.2214
41.4400 27.5965 0.2030
41.4600 27.6098 0.2060
41.4800 27.6232 0.2230
41.5000 27.6365 0.1969
41.5200 27.6499 0.2073
41.5400 27.6633 0.2164
41.5600 27.6766 0.1989
41.5800 27.6899 0.2075
41.6000 27.7032 0.2124
41.6200 27.7166 0.2015
41.6400 27.7299 0.2090
41.6600 27.7432 0.2113
41.6800 27.7565 0.1966
41.7000 27.7698 0.2132
41.7200 27.7832 0.2061
41.7400 27.7965 0.1917
41.7600 27.8098 0.2119
41.7800 27.8231 0.2050
41.8000 27.8365 0.1945
41.8200 27.8499 0.2101
41.8400 27.8632 0.2028
41.8600 27.8765 0.1950
41.8800 27.8899 0.2044
41.9000 27.9033 0.2045
41.9200 27.9166 0.1911
41.9400 27.9299 0.2063
41.9600 27.9432 0.1986
41.9800 27.9566 0.1945
42.0000 27.9699 0.2009
42.0200 27.9832 0.1953
42.0400 27.9965 0.1987
42.0600 28.0099 0.1933
42.0800 28.0232 0.1948
42.1000 28.0365 0.1958
42.1200 28.0498 0.1946
42.1400 28.0631 0.1989
42.1600 28.0765 0.1881
42.1800 28.0898 0.1884
42.2000 28.1032 0.1938
42.2200 28.1165 0.1926
42.2400 28.1299 0.1893
42.2600 28.1433 0.1903
42.2800 28.1566 0.1931
42.3000 28.1699 0.1866
42.3200 28.1832 0.1913
42.3400 28.1966 0.1879
42.3600 28.2099 0.1863
42.3800 28.2232 0.1884
42.4000 28.2365 0.1859
42.4200 28.2498 0.1844
42.4400 28.2632 0.1850
42.4600 28.2765 0.1862
42.4800 28.2899 0.1861
42.5000 28.3032 0.1806
42.5200 28.3165 0.1811
42.5400 28.3298 0.1799
42.5600 28.3431 0.1799
42.5800 28.3565 0.1827
42.6000 28.3698 0.1812
42.6200 28.3832 0.1768
42.6400 28.3966 0.1777
42.6600 28.4099 0.1753
42.6800 28.4232 0.1824
42.7000 28.4366 0.1813
42.7200 28.4500 0.1708
42.7400 28.4633 0.1798
42.7600 28.4765 0.1802
42.7800 28.4899 0.1700
42.8000 28.5032 0.1783
42.8200 28.5165 0.1756
42.8400 28.5298 0.1677
42.8600 28.5432 0.1782
42.8800 28.5565 0.1754
42.9000 28.5698 0.1691
42.9200 28.5832 0.1752
42.9400 28.5965 0.1695
42.9600 28.6099 0.1698
42.9800 28.6232 0.1762
43.0000 28.6366 0.1716
43.0200 28.6499 0.1668
43.0400 28.6632 0.1786
43.0600 28.6766 0.1732
43.0800 28.6899 0.1706
43.1000 28.7032 0.1731
43.1200 28.7165 0.1720
43.1400 28.7299 0.1694
43.1600 28.7432 0.1729
43.1800 28.7565 0.1705
43.2000 28.7698 0.1698
43.2200 28.7831 0.1782
43.2400 28.7965 0.1692
43.2600 28.8098 0.1651
43.2800 28.8231 0.1761
43.3000 28.8365 0.1706
43.3200 28.8499 0.1671
43.3400 28.8633 0.1722
43.3600 28.8766 0.1642
43.3800 28.8900 0.1664
43.4000 28.9033 0.1768
43.4200 28.9166 0.1640
43.4400 28.9300 0.1638
43.4600 28.9432 0.1719
43.4800 28.9565 0.1636
43.5000 28.9698 0.1660
43.5200 28.9831 0.1708
43.5400 28.9965 0.1621
43.5600 29.0098 0.1627
43.5800 29.0232 0.1664
43.6000 29.0365 0.1612
43.6200 29.0499 0.1650
43.6400 29.0632 0.1657
43.6600 29.0766 0.1586
43.6800 29.0899 0.1638
43.7000 29.1033 0.1576
43.7200 29.1166 0.1574
43.7400 29.1299 0.1666
43.7600 29.1432 0.1540
43.7800 29.1566 0.1616
43.8000 29.1699 0.1590
43.8200 29.1832 0.1528
43.8400 29.1965 0.1607
43.8600 29.2098 0.1576
43.8800 29.2232 0.1545
43.9000 29.2365 0.1598
43.9200 29.2498 0.1549
43.9400 29.2631 0.1536
43.9600 29.2765 0.1574
43.9800 29.2898 0.1575
44.0000 29.3032 0.1498
44.0200 29.3165 0.1581
44.0400 29.3299 0.1568
44.0600 29.3433 0.1475
44.0800 29.3566 0.1619
44.1000 29.3699 0.1538
44.1200 29.3832 0.1478
44.1400 29.3966 0.1595
44.1600 29.4099 0.1503
44.1800 29.4232 0.1464
44.2000 29.4365 0.1584
44.2200 29.4499 0.1525
44.2400 29.4632 0.1459
44.2600 29.4765 0.1560
44.2800 29.4898 0.1520
44.3000 29.5031 0.1469
44.3200 29.5165 0.1584
44.3400 29.5298 0.1469
44.3600 29.5432 0.1438
44.3800 29.5565 0.1570
44.4000 29.5698 0.1480
44.4200 29.5832 0.1468
44.4400 29.5966 0.1525
44.4600 29.6099 0.1412
44.4800 29.6232 0.1478
44.5000 29.6366 0.1560
44.5200 29.6499 0.1450
44.5400 29.6632 0.1490
44.5600 29.6765 0.1517
44.5800 29.6898 0.1411
44.6000 29.7032 0.1473
44.6200 29.7165 0.1486
44.6400 29.7298 0.1413
44.6600 29.7432 0.1474
44.6800 29.7565 0.1488
44.7000 29.7698 0.1442
44.7200 29.7832 0.1424
44.7400 29.7965 0.1460
44.7600 29.8098 0.1436
44.7800 29.8232 0.1441
44.8000 29.8366 0.1433
44.8200 29.8499 0.1398
44.8400 29.8632 0.1414
44.8600 29.8766 0.1437
44.8800 29.8899 0.1381
44.9000 29.9033 0.1387
44.9200 29.9165 0.1435
44.9400 29.9299 0.1387
44.9600 29.9432 0.1361
44.9800 29.9565 0.1401
45.0000 29.9698 0.1328
45.0200 29.9832 0.1346
45.0400 29.9965 0.1401
45.0600 30.0098 0.1299
45.0800 30.0232 0.1310
45.1000 30.0365 0.1405
45.1200 30.0499 0.1346
45.1400 30.0633 0.1256
45.1600 30.0766 0.1319
45.1800 30.0899 0.1325
45.2000 30.1032 0.1246
45.2200 30.1166 0.1379
45.2400 30.1299 0.1288
45.2600 30.1432 0.1241
45.2800 30.1565 0.1335
45.3000 30.1698 0.1292
45.3200 30.1832 0.1243
45.3400 30.1965 0.1333
45.3600 30.2098 0.1296
45.3800 30.2231 0.1193
45.4000 30.2365 0.1273
45.4200 30.2498 0.1253
45.4400 30.2631 0.1176
45.4600 30.2765 0.1298
45.4800 30.2898 0.1247
45.5000 30.3032 0.1228
45.5200 30.3166 0.1221
45.5400 30.3299 0.1207
45.5600 30.3433 0.1255
45.5800 30.3566 0.1216
45.6000 30.3699 0.1245
45.6200 30.3832 0.1171
45.6400 30.3965 0.1250
45.6600 30.4098 0.1215
45.6800 30.4231 0.1182
45.7000 30.4365 0.1268
45.7200 30.4498 0.1248
45.7400 30.4632 0.1135
45.7600 30.4765 0.1257
45.7800 30.4899 0.1239
45.8000 30.5032 0.1124
45.8200 30.5165 0.1277
45.8400 30.5299 0.1219
45.8600 30.5432 0.1117
45.8800 30.5566 0.1293
45.9000 30.5699 0.1203
45.9200 30.5832 0.1178
45.9400 30.5965 0.1290
45.9600 30.6099 0.1166
45.9800 30.6232 0.1174
46.0000 30.6366 0.1299
46.0200 30.6499 0.1160
46.0400 30.6632 0.1187
46.0600 30.6766 0.1287
46.0800 30.6899 0.1155
46.1000 30.7032 0.1212
46.1200 30.7165 0.1233
46.1400 30.7298 0.1131
46.1600 30.7432 0.1224
46.1800 30.7565 0.1173
46.2000 30.7698 0.1156
46.2200 30.7832 0.1219
46.2400 30.7966 0.1181
46.2600 30.8099 0.1130
46.2800 30.8232 0.1173
46.3000 30.8365 0.1181
46.3200 30.8499 0.1111
46.3400 30.8633 0.1146
46.3600 30.8766 0.1151
46.3800 30.8899 0.1092
46.4000 30.9032 0.1115
46.4200 30.9166 0.1149
46.4400 30.9299 0.1112
46.4600 30.9432 0.1092
46.4800 30.9565 0.1145
46.5000 30.9698 0.1101
46.5200 30.9832 0.1115
46.5400 30.9965 0.1112
46.5600 31.0098 0.1048
46.5800 31.0232 0.1120
46.6000 31.0366 0.1051
46.6200 31.0499 0.1038
46.6400 31.0632 0.1129
46.6600 31.0766 0.1052
46.6800 31.0899 0.1078
46.7000 31.1032 0.1127
46.7200 31.1165 0.1022
46.7400 31.1298 0.1100
46.7600 31.1432 0.1132
46.7800 31.1566 0.0999
46.8000 31.1699 0.1035
46.8200 31.1832 0.1084
46.8400 31.1965 0.1014
46.8600 31.2099 0.1046
46.8800 31.2232 0.1063
46.9000 31.2365 0.0995
46.9200 31.2498 0.1050
46.9400 31.2632 0.1056
46.9600 31.2766 0.0987
46.9800 31.2899 0.1051
47.0000 31.3032 0.1027
47.0200 31.3166 0.0950
47.0400 31.3299 0.1034
47.0600 31.3433 0.0988
47.0800 31.3566 0.0996
47.1000 31.3699 0.1025
47.1200 31.3832 0.0958
47.1400 31.3965 0.0977
47.1600 31.4098 0.1003
47.1800 31.4231 0.0971
47.2000 31.4364 0.0934
47.2200 31.4498 0.1020
47.2400 31.4632 0.0956
47.2600 31.4765 0.0886
47.2800 31.4898 0.1010
47.3000 31.5032 0.0974
47.3200 31.5166 0.0955
47.3400 31.5299 0.0959
47.3600 31.5432 0.0959
47.3800 31.5565 0.0919
47.4000 31.5699 0.0928
47.4200 31.5832 0.0915
47.4400 31.5965 0.0901
47.4600 31.6099 0.0954
47.4800 31.6232 0.0887
47.5000 31.6365 0.0897
47.5200 31.6499 0.0960
47.5400 31.6632 0.0906
47.5600 31.6765 0.0912
47.5800 31.6898 0.0898
47.6000 31.7032 0.0904
47.6200 31.7165 0.0880
47.6400 31.7299 0.0880
47.6600 31.7432 0.0902
47.6800 31.7566 0.0843
47.7000 31.7699 0.0857
47.7200 31.7832 0.0873
47.7400 31.7966 0.0832
47.7600 31.8099 0.0836
47.7800 31.8233 0.0881
47.8000 31.8366 0.0757
47.8200 31.8498 0.0846
47.8400 31.8632 0.0893
47.8600 31.8765 0.0737
47.8800 31.8899 0.0830
47.9000 31.9032 0.0857
47.9200 31.9165 0.0790
47.9400 31.9298 0.0840
47.9600 31.9432 0.0782
47.9800 31.9565 0.0761
48.0000 31.9698 0.0824
48.0200 31.9832 0.0811
48.0400 31.9965 0.0708
48.0600 32.0099 0.0852
48.0800 32.0232 0.0788
48.1000 32.0365 0.0750
48.1200 32.0499 0.0847
48.1400 32.0632 0.0758
48.1600 32.0766 0.0750
48.1800 32.0899 0.0860
48.2000 32.1032 0.0759
48.2200 32.1166 0.0760
48.2400 32.1299 0.0858
48.2600 32.1432 0.0771
48.2800 32.1565 0.0773
48.3000 32.1698 0.0851
48.3200 32.1831 0.0747
48.3400 32.1965 0.0739
48.3600 32.2098 0.0850
48.3800 32.2232 0.0769
48.4000 32.2366 0.0688
48.4200 32.2499 0.0785
48.4400 32.2633 0.0781
48.4600 32.2766 0.0687
48.4800 32.2899 0.0795
48.5000 32.3033 0.0792
48.5200 32.3166 0.0686
48.5400 32.3299 0.0817
48.5600 32.3432 0.0732
48.5800 32.3565 0.0651
48.6000 32.3699 0.0801
48.6200 32.3832 0.0724
48.6400 32.3965 0.0668
48.6600 32.4098 0.0771
48.6800 32.4232 0.0725
48.7000 32.4365 0.0628
48.7200 32.4498 0.0771
48.7400 32.4632 0.0705
48.7600 32.4766 0.0648
48.7800 32.4899 0.0746
48.8000 32.5033 0.0705
48.8200 32.5166 0.0694
48.8400 32.5299 0.0716
48.8600 32.5433 0.0642
48.8800 32.5566 0.0636
48.9000 32.5699 0.0726
48.9200 32.5832 0.0685
48.9400 32.5965 0.0619
48.9600 32.6099 0.0710
48.9800 32.6232 0.0649
49.0000 32.6365 0.0648
49.0200 32.6498 0.0670
49.0400 32.6632 0.0648
49.0600 32.6765 0.0616
49.0800 32.6898 0.0655
49.1000 32.7032 0.0656
49.1200 32.7166 0.0585
49.1400 32.7299 0.0653
49.1600 32.7432 0.0605
49.1800 32.7565 0.0596
49.2000 32.7699 0.0650
49.2200 32.7832 0.0588
49.2400 32.7966 0.0599
49.2600 32.8099 0.0623
49.2800 32.8232 0.0616
49.3000 32.8365 0.0549
49.3200 32.8499 0.0584
49.3400 32.8632 0.0618
49.3600 32.8764 0.0566
49.3800 32.8898 0.0562
49.4000 32.9032 0.0588
49.4200 32.9165 0.0562
49.4400 32.9299 0.0557
49.4600 32.9432 0.0576
49.4800 32.9566 0.0546
49.5000 32.9699 0.0515
49.5200 32.9832 0.0591
49.5400 32.9966 0.0534
49.5600 33.0099 0.0521
49.5800 33.0232 0.0567
49.6000 33.0366 0.0480
49.6200 33.0498 0.0561
49.6400 33.0632 0.0538
49.6600 33.0765 0.0510
49.6800 33.0899 0.0485
49.7000 33.1032 0.0569
49.7200 33.1165 0.0476
49.7400 33.1298 0.0474
49.7600 33.1432 0.0551
49.7800 33.1565 0.0450
49.8000 33.1698 0.0517
49.8200 33.1832 0.0493
49.8400 33.1965 0.0452
49.8600 33.2099 0.0481
49.8800 33.2232 0.0490
49.9000 33.2366 0.0455
49.9200 33.2499 0.0487
49.9400 33.2633 0.0498
49.9600 33.2766 0.0462
49.9800 33.2899 0.0466
50.0000 33.3032 0.0447
50.0200 33.3166 0.0473
50.0400 33.3299 0.0482
50.0600 33.3432 0.0439
50.0800 33.3565 0.0485
50.1000 33.3698 0.0433
50.1200 33.3832 0.0457
50.1400 33.3965 0.0483
50.1600 33.4099 0.0433
50.1800 33.4232 0.0465
50.2000 33.4365 0.0471
50.2200 33.4499 0.0413
50.2400 33.4632 0.0468
50.2600 33.4765 0.0471
50.2800 33.4899 0.0420
50.3000 33.5033 0.0472
50.3200 33.5166 0.0442
50.3400 33.5299 0.0418
50.3600 33.5432 0.0537
50.3800 33.5565 0.0453
50.4000 33.5699 0.0364
50.4200 33.5832 0.0464
50.4400 33.5965 0.0454
50.4600 33.6098 0.0392
50.4800 33.6231 0.0459
50.5000 33.6365 0.0441
50.5200 33.6498 0.0389
50.5400 33.6631 0.0438
50.5600 33.6765 0.0423
50.5800 33.6899 0.0397
50.6000 33.7033 0.0392
50.6200 33.7166 0.0403
50.6400 33.7299 0.0373
50.6600 33.7433 0.0406
50.6800 33.7566 0.0411
50.7000 33.7698 0.0364
50.7200 33.7831 0.0393
50.7400 33.7965 0.0405
50.7600 33.8098 0.0347
50.7800 33.8232 0.0365
50.8000 33.8365 0.0376
50.8200 33.8498 0.0357
50.8400 33.8632 0.0325
50.8600 33.8766 0.0400
50.8800 33.8899 0.0320
50.9000 33.9032 0.0295
50.9200 33.9166 0.0413
50.9400 33.9299 0.0261
50.9600 33.9432 0.0300
50.9800 33.9565 0.0413
51.0000 33.9699 0.0253
51.0200 33.9832 0.0319
51.0400 33.9965 0.0348
51.0600 34.0099 0.0242
51.0800 34.0232 0.0333
51.1000 34.0365 0.0368
51.1200 34.0499 0.0194
51.1400 34.0632 0.0321
51.1600 34.0765 0.0336
51.1800 34.0898 0.0233
51.2000 34.1032 0.0299
51.2200 34.1165 0.0289
51.2400 34.1299 0.0216
51.2600 34.1432 0.0287
51.2800 34.1566 0.0250
51.3000 34.1699 0.0216
51.3200 34.1833 0.0253
51.3400 34.1966 0.0258
51.3600 34.2099 0.0234
51.3800 34.2233 0.0244
51.4000 34.2366 0.0231
51.4200 34.2499 0.0224
51.4400 34.2632 0.0280
51.4600 34.2765 0.0238
51.4800 34.2899 0.0151
51.5000 34.3032 0.0246
51.5200 34.3165 0.0205
51.5400 34.3298 0.0191
51.5600 34.3431 0.0267
51.5800 34.3565 0.0153
51.6000 34.3698 0.0153
51.6200 34.3832 0.0214
51.6400 34.3965 0.0169
51.6600 34.4099 0.0171
51.6800 34.4233 0.0213
51.7000 34.4366 0.0142
51.7200 34.4499 0.0168
51.7400 34.4633 0.0181
51.7600 34.4766 0.0173
51.7800 34.4899 0.0188
51.8000 34.5032 0.0169
51.8200 34.5165 0.0166
51.8400 34.5299 0.0177
51.8600 34.5432 0.0107
51.8800 34.5565 0.0141
51.9000 34.5698 0.0188
51.9200 34.5832 0.0079
51.9400 34.5965 0.0130
51.9600 34.6098 0.0221
51.9800 34.6231 0.0035
52.0000 34.6365 0.0185
52.0200 34.6499 0.0154
52.0400 34.6632 0.0038
52.0600 34.6765 0.0152
52.0800 34.6899 0.0132
52.1000 34.7033 0.0040
52.1200 34.7166 0.0098
52.1400 34.7299 0.0131
52.1600 34.7432 0.0017
52.1800 34.7565 0.0160
52.2000 34.7699 0.0089
52.2200 34.7832 0.0052
52.2400 34.7965 0.0121
52.2600 34.8098 0.0034
52.2800 34.8231 0.0084
52.3000 34.8365 0.0107
52.3200 34.8498 0.0018
52.3400 34.8632 0.0069
52.3600 34.8766 0.0140
52.3800 34.8899 0.0034
52.4000 34.9033 0.0053
52.4200 34.9166 0.0102
52.4400 34.9299 -0.0006
52.4600 34.9432 0.0050
52.4800 34.9566 0.0049
52.5000 34.9699 0.0045
52.5200 34.9832 0.0058
52.5400 34.9965 0.0061
52.5600 35.0099 0.0035
52.5800 35.0232 0.0032
52.6000 35.0365 0.0055
52.6200 35.0498 0.0030
52.6400 35.0631 0.0010
52.6600 35.0765 0.0026
52.6800 35.0898 0.0055
52.7000 35.1032 -0.0006
52.7200 35.1165 0.0007
52.7400 35.1299 0.0050
52.7600 35.1433 -0.0007
52.7800 35.1566 0.0024
52.8000 35.1699 0.0032
52.8200 35.1833 -0.0063
52.8400 35.1966 0.0036
52.8600 35.2099 0.0017
52.8800 35.2232 -0.0074
52.9000 35.2365 0.0017
52.9200 35.2498 -0.0017
52.9400 35.2632 -0.0116
52.9600 35.2765 0.0038
52.9800 35.2898 0.0018
53.0000 35.3032 -0.0153
53.0200 35.3166 0.0051
53.0400 35.3299 -0.0050
53.0600 35.3432 -0.0160
53.0800 35.3566 0.0044
53.1000 35.3699 -0.0111
53.1200 35.3833 -0.0155
53.1400 35.3965 0.0002
53.1600 35.4099 -0.0103
53.1800 35.4232 -0.0150
53.2000 35.4366 0.0002
53.2200 35.4499 -0.0166
53.2400 35.4632 -0.0158
53.2600 35.4765 -0.0024
53.2800 35.4899 -0.0144
53.3000 35.5032 -0.0170
53.3200 35.5165 -0.0047
53.3400 35.5298 -0.0174
53.3600 35.5431 -0.0149
53.3800 35.5565 -0.0086
53.4000 35.5698 -0.0135
53.4200 35.5832 -0.0160
53.4400 35.5965 -0.0107
53.4600 35.6099 -0.0171
53.4800 35.6232 -0.0133
53.5000 35.6366 -0.0130
53.5200 35.6499 -0.0144
53.5400 35.6632 -0.0174
53.5600 35.6766 -0.0189
53.5800 35.6899 -0.0123
53.6000 35.7032 -0.0172
53.6200 35.7165 -0.0163
53.6400 35.7299 -0.0132
53.6600 35.7432 -0.0202
53.6800 35.7565 -0.0173
53.7000 35.7698 -0.0100
53.7200 35.7831 -0.0215
53.7400 35.7965 -0.0204
53.7600 35.8098 -0.0139
53.7800 35.8232 -0.0265
53.8000 35.8365 -0.0143
53.8200 35.8499 -0.0111
53.8400 35.8633 -0.0301
53.8600 35.8766 -0.0154
53.8800 35.8899 -0.0165
53.9000 35.9032 -0.0282
53.9200 35.9166 -0.0192
53.9400 35.9299 -0.0175
53.9600 35.9432 -0.0248
53.9800 35.9565 -0.0161
54.0000 35.9698 -0.0197
54.0200 35.9832 -0.0283
54.0400 35.9965 -0.0176
54.0600 36.0098 -0.0198
54.0800 36.0232 -0.0312
54.1000 36.0365 -0.0223
54.1200 36.0499 -0.0251
54.1400 36.0632 -0.0278
54.1600 36.0765 -0.0214
54.1800 36.0899 -0.0274
54.2000 36.1032 -0.0267
54.2200 36.1166 -0.0246
54.2400 36.1299 -0.0325
54.2600 36.1432 -0.0253
54.2800 36.1566 -0.0291
54.3000 36.1699 -0.0313
54.3200 36.1832 -0.0282
54.3400 36.1965 -0.0290
54.3600 36.2099 -0.0322
54.3800 36.2232 -0.0254
54.4000 36.2365 -0.0327
54.4200 36.2498 -0.0308
54.4400 36.2631 -0.0253
54.4600 36.2765 -0.0373
54.4800 36.2898 -0.0308
54.5000 36.3032 -0.0287
54.5200 36.3165 -0.0361
54.5400 36.3299 -0.0333
54.5600 36.3433 -0.0332
54.5800 36.3566 -0.0393
54.6000 36.3699 -0.0301
54.6200 36.3832 -0.0311
54.6400 36.3966 -0.0435
54.6600 36.4099 -0.0349
54.6800 36.4232 -0.0310
54.7000 36.4365 -0.0424
54.7200 36.4498 -0.0374
54.7400 36.4632 -0.0354
54.7600 36.4765 -0.0400
54.7800 36.4898 -0.0364
54.8000 36.5032 -0.0378
54.8200 36.5165 -0.0374
54.8400 36.5298 -0.0359
54.8600 36.5432 -0.0388
54.8800 36.5565 -0.0391
54.9000 36.5699 -0.0404
54.9200 36.5832 -0.0374
54.9400 36.5966 -0.0452
54.9600 36.6099 -0.0412
54.9800 36.6232 -0.0392
55.0000 36.6366 -0.0416
55.0200 36.6499 -0.0453
55.0400 36.6632 -0.0397
55.0600 36.6765 -0.0466
55.0800 36.6898 -0.0481
55.1000 36.7032 -0.0381
55.1200 36.7165 -0.0472
55.1400 36.7298 -0.0472
55.1600 36.7431 -0.0427
55.1800 36.7565 -0.0516
55.2000 36.7699 -0.0490
55.2200 36.7832 -0.0422
55.2400 36.7965 -0.0488
55.2600 36.8098 -0.0497
55.2800 36.8232 -0.0481
55.3000 36.8365 -0.0551
55.3200 36.8498 -0.0486
55.3400 36.8632 -0.0483
55.3600 36.8766 -0.0560
55.3800 36.8899 -0.0478
55.4000 36.9032 -0.0500
55.4200 36.9166 -0.0530
55.4400 36.9299 -0.0483
55.4600 36.9433 -0.0521
55.4800 36.9566 -0.0558
55.5000 36.9698 -0.0461
55.5200 36.9831 -0.0570
55.5400 36.9964 -0.0607
55.5600 37.0098 -0.0490
55.5800 37.0231 -0.0552
55.6000 37.0365 -0.0601
55.6200 37.0499 -0.0483
55.6400 37.0633 -0.0569
55.6600 37.0766 -0.0645
55.6800 37.0899 -0.0464
55.7000 37.1033 -0.0547
55.7200 37.1166 -0.0644
55.7400 37.1299 -0.0494
55.7600 37.1432 -0.0572
55.7800 37.1565 -0.0627
55.8000 37.1699 -0.0522
55.8200 37.1832 -0.0569
55.8400 37.1965 -0.0644
55.8600 37.2098 -0.0532
55.8800 37.2231 -0.0604
55.9000 37.2365 -0.0662
55.9200 37.2498 -0.0527
55.9400 37.2632 -0.0631
55.9600 37.2765 -0.0608
55.9800 37.2899 -0.0574
56.0000 37.3032 -0.0645
56.0200 37.3166 -0.0580
56.0400 37.3299 -0.0556
56.0600 37.3433 -0.0641
56.0800 37.3566 -0.0656
56.1000 37.3699 -0.0603
56.1200 37.3832 -0.0653
56.1400 37.3965 -0.0671
56.1600 37.4098 -0.0578
56.1800 37.4232 -0.0676
56.2000 37.4365 -0.0650
56.2200 37.4498 -0.0616
56.2400 37.4631 -0.0628
56.2600 37.4765 -0.0688
56.2800 37.4898 -0.0650
56.3000 37.5032 -0.0614
56.3200 37.5165 -0.0693
56.3400 37.5299 -0.0686
56.3600 37.5432 -0.0656
56.3800 37.5566 -0.0760
56.4000 37.5699 -0.0684
56.4200 37.5832 -0.0664
56.4400 37.5966 -0.0706
56.4600 37.6099 -0.0666
56.4800 37.6232 -0.0687
56.5000 37.6365 -0.0734
56.5200 37.6499 -0.0679
56.5400 37.6632 -0.0680
56.5600 37.6765 -0.0785
56.5800 37.6898 -0.0730
56.6000 37.7031 -0.0731
56.6200 37.7165 -0.0776
56.6400 37.7298 -0.0743
56.6600 37.7432 -0.0738
56.6800 37.7565 -0.0780
56.7000 37.7699 -0.0774
56.7200 37.7833 -0.0771
56.7400 37.7966 -0.0801
56.7600 37.8099 -0.0757
56.7800 37.8232 -0.0731
56.8000 37.8366 -0.0861
56.8200 37.8499 -0.0780
56.8400 37.8632 -0.0788
56.8600 37.8765 -0.0783
56.8800 37.8898 -0.0800
56.9000 37.9032 -0.0788
56.9200 37.9165 -0.0865
56.9400 37.9298 -0.0830
56.9600 37.9431 -0.0796
56.9800 37.9565 -0.0873
57.0000 37.9698 -0.0811
57.0200 37.9832 -0.0799
57.0400 37.9965 -0.0873
57.0600 38.0099 -0.0794
57.0800 38.0233 -0.0883
57.1000 38.0366 -0.0886
57.1200 38.0499 -0.0833
57.1400 38.0632 -0.0860
57.1600 38.0766 -0.0906
57.1800 38.0900 -0.0868
57.2000 38.1033 -0.0864
57.2200 38.1166 -0.0922
57.2400 38.1299 -0.0880
57.2600 38.1432 -0.0881
57.2800 38.1565 -0.0917
57.3000 38.1698 -0.0856
57.3200 38.1831 -0.0941
57.3400 38.1965 -0.0908
57.3600 38.2098 -0.0888
57.3800 38.2232 -0.0930
57.4000 38.2365 -0.0936
57.4200 38.2499 -0.0923
57.4400 38.2632 -0.0959
57.4600 38.2766 -0.0936
57.4800 38.2899 -0.0902
57.5000 38.3032 -0.1000
57.5200 38.3166 -0.0960
57.5400 38.3299 -0.0928
57.5600 38.3432 -0.0973
57.5800 38.3565 -0.0970
57.6000 38.3699 -0.0948
57.6200 38.3832 -0.0953
57.6400 38.3965 -0.0976
57.6600 38.4098 -0.0975
57.6800 38.4231 -0.0963
57.7000 38.4364 -0.1035
57.7200 38.4498 -0.0988
57.7400 38.4631 -0.0982
57.7600 38.4765 -0.0991
57.7800 38.4898 -0.1008
57.8000 38.5032 -0.1007
57.8200 38.5166 -0.0997
57.8400 38.5299 -0.1010
57.8600 38.5433 -0.1004
57.8800 38.5566 -0.0987
57.9000 38.5700 -0.1038
57.9200 38.5832 -0.1041
57.9400 38.5965 -0.0972
57.9600 38.6098 -0.1046
57.9800 38.6232 -0.1006
58.0000 38.6365 -0.1003
58.0200 38.6498 -0.1088
58.0400 38.6632 -0.1055
58.0600 38.6765 -0.1026
58.0800 38.6899 -0.1067
58.1000 38.7032 -0.1123
58.1200 38.7166 -0.1022
58.1400 38.7299 -0.1102
58.1600 38.7433 -0.1133
58.1800 38.7566 -0.1025
58.2000 38.7699 -0.1070
58.2200 38.7832 -0.1138
58.2400 38.7966 -0.1090
58.2600 38.8099 -0.1079
58.2800 38.8232 -0.1156
58.3000 38.8365 -0.1122
58.3200 38.8498 -0.1102
58.3400 38.8632 -0.1205
58.3600 38.8765 -0.1132
58.3800 38.8898 -0.1121
58.4000 38.9032 -0.1175
58.4200 38.9165 -0.1153
58.4400 38.9299 -0.1160
58.4600 38.9432 -0.1222
58.4800 38.9565 -0.1157
58.5000 38.9699 -0.1063
58.5200 38.9833 -0.1071
58.5400 38.9966 -0.0869
58.5600 39.0099 -0.0888
58.5800 39.0232 -0.0880
58.6000 39.0366 -0.0864
58.6200 39.0499 -0.0851
58.6400 39.0633 -0.0820
58.6600 39.0765 -0.0801
58.6800 39.0898 -0.0801
58.7000 39.1032 -0.0845
58.7200 39.1165 -0.0759
58.7400 39.1298 -0.0813
58.7600 39.1431 -0.0789
58.7800 39.1565 -0.0709
58.8000 39.1698 -0.0799
58.8200 39.1832 -0.0748
58.8400 39.1965 -0.0719
58.8600 39.2099 -0.0826
58.8800 39.2232 -0.0747
58.9000 39.2366 -0.0720
58.9200 39.2499 -0.0802
58.9400 39.2632 -0.0756
58.9600 39.2766 -0.0690
58.9800 39.2899 -0.0832
59.0000 39.3032 -0.0752
59.0200 39.3165 -0.0669
59.0400 39.3298 -0.0778
59.0600 39.3432 -0.0776
59.0800 39.3565 -0.0729
59.1000 39.3698 -0.0787
59.1200 39.3832 -0.0757
59.1400 39.3965 -0.0738
59.1600 39.4098 -0.0768
59.1800 39.4232 -0.0748
59.2000 39.4365 -0.0690
59.2200 39.4498 -0.0752
59.2400 39.4632 -0.0731
59.2600 39.4766 -0.0665
59.2800 39.4899 -0.0741
59.3000 39.5032 -0.0704
59.3200 39.5166 -0.0688
59.3400 39.5299 -0.0729
59.3600 39.5433 -0.0695
59.3800 39.5566 -0.0694
59.4000 39.5699 -0.0677
59.4200 39.5832 -0.0672
59.4400 39.5965 -0.0661
59.4600 39.6098 -0.0668
59.4800 39.6231 -0.0651
59.5000 39.6365 -0.0672
59.5200 39.6498 -0.0685
59.5400 39.6632 -0.0701
59.5600 39.6765 -0.0683
59.5800 39.6899 -0.0642
59.6000 39.7033 -0.0748
59.6200 39.7166 -0.0689
59.6400 39.7299 -0.0663
59.6600 39.7432 -0.0750
59.6800 39.7566 -0.0684
59.7000 39.7699 -0.0714
59.7200 39.7833 -0.0810
59.7400 39.7966 -0.0660
59.7600 39.8098 -0.0693
59.7800 39.8232 -0.0821
59.8000 39.8366 -0.0664
59.8200 39.8499 -0.0747
59.8400 39.8632 -0.0844
59.8600 39.8765 -0.0641
59.8800 39.8898 -0.0776
59.9000 39.9032 -0.0807
59.9200 39.9165 -0.0631
59.9400 39.9298 -0.0799
59.9600 39.9432 -0.0827
59.9800 39.9566 -0.0656
60.0000 39.9699 -0.0837
60.0200 39.9832 -0.0847
60.0400 39.9965 -0.0719
60.0460 40.0004 -0.0884
