Raw Data
Time Displacement Force
(s) (mm) (N)
0.0000 0.0000 -0.5318
0.0200 0.0000 -0.5312
0.0400 0.0008 -0.4824
0.0600 0.0039 -0.3804
0.0800 0.0093 -0.3601
0.1000 0.0150 -0.3480
0.1200 0.0208 -0.3044
0.1400 0.0275 -0.2976
0.1600 0.0349 -0.2654
0.1800 0.0424 -0.2310
0.2000 0.0496 -0.1978
0.2200 0.0564 -0.1642
0.2400 0.0631 -0.1312
0.2600 0.0698 -0.1009
0.2800 0.0764 -0.0672
0.3000 0.0831 -0.0362
0.3200 0.0899 -0.0091
0.3400 0.0966 0.0301
0.3600 0.1033 0.0469
0.3800 0.1099 0.0776
0.4000 0.1166 0.1083
0.4200 0.1233 0.1194
0.4400 0.1300 0.1502
0.4600 0.1366 0.1838
0.4800 0.1433 0.2116
0.5000 0.1500 0.2734
0.5200 0.1567 0.3107
0.5400 0.1633 0.3543
0.5600 0.1699 0.4131
0.5800 0.1765 0.4549
0.6000 0.1832 0.4955
0.6200 0.1899 0.5535
0.6400 0.1966 0.5939
0.6600 0.2033 0.6315
0.6800 0.2100 0.6679
0.7000 0.2167 0.6647
0.7200 0.2233 0.6627
0.7400 0.2299 0.6721
0.7600 0.2365 0.6692
0.7800 0.2432 0.6616
0.8000 0.2499 0.6758
0.8200 0.2566 0.6673
0.8400 0.2633 0.6627
0.8600 0.2700 0.6782
0.8800 0.2766 0.6680
0.9000 0.2833 0.6600
0.9200 0.2899 0.6835
0.9400 0.2965 0.6670
0.9600 0.3032 0.6684
0.9800 0.3099 0.6813
1.0000 0.3166 0.6672
1.0200 0.3233 0.6693
1.0400 0.3299 0.6827
1.0600 0.3366 0.6632
1.0800 0.3432 0.6683
1.1000 0.3499 0.6825
1.1200 0.3565 0.6653
1.1400 0.3632 0.6666
1.1600 0.3699 0.6866
1.1800 0.3766 0.6658
1.2000 0.3833 0.6653
1.2200 0.3900 0.6814
1.2400 0.3967 0.6643
1.2600 0.4033 0.6680
1.2800 0.4100 0.6765
1.3000 0.4166 0.6682
1.3200 0.4233 0.6709
1.3400 0.4300 0.6781
1.3600 0.4366 0.6578
1.3800 0.4433 0.6670
1.4000 0.4500 0.6717
1.4200 0.4567 0.6581
1.4400 0.4633 0.6672
1.4600 0.4699 0.6687
1.4800 0.4765 0.6550
1.5000 0.4832 0.6627
1.5200 0.4899 0.6635
1.5400 0.4966 0.6520
1.5600 0.5033 0.6577
1.5800 0.5099 0.6555
1.6000 0.5166 0.6433
1.6200 0.5233 0.6550
1.6400 0.5299 0.6493
1.6600 0.5365 0.6406
1.6800 0.5432 0.6476
1.7000 0.5499 0.6413
1.7200 0.5566 0.6354
1.7400 0.5633 0.6387
1.7600 0.5699 0.6363
1.7800 0.5766 0.6277
1.8000 0.5833 0.6333
1.8200 0.5899 0.6220
1.8400 0.5966 0.6236
1.8600 0.6032 0.6263
1.8800 0.6099 0.6172
1.9000 0.6166 0.6150
1.9200 0.6233 0.6179
1.9400 0.6300 0.6112
1.9600 0.6367 0.6105
1.9800 0.6433 0.6072
2.0000 0.6499 0.6015
2.0200 0.6565 0.6066
2.0400 0.6632 0.6027
2.0600 0.6699 0.5935
2.0800 0.6766 0.6041
2.1000 0.6833 0.5980
2.1200 0.6900 0.5850
2.1400 0.6967 0.5985
2.1600 0.7033 0.5899
2.1800 0.7099 0.5853
2.2000 0.7165 0.5912
2.2200 0.7232 0.5791
2.2400 0.7299 0.5773
2.2600 0.7366 0.5876
2.2800 0.7433 0.5695
2.3000 0.7499 0.5749
2.3200 0.7566 0.5799
2.3400 0.7633 0.5688
2.3600 0.7699 0.5707
2.3800 0.7765 0.5772
2.4000 0.7832 0.5639
2.4200 0.7899 0.5668
2.4400 0.7966 0.5676
2.4600 0.8032 0.5550
2.4800 0.8099 0.5669
2.5000 0.8167 0.5631
2.5200 0.8233 0.5517
2.5400 0.8299 0.5633
2.5600 0.8365 0.5652
2.5800 0.8432 0.5514
2.6000 0.8499 0.5583
2.6200 0.8566 0.5544
2.6400 0.8633 0.5458
2.6600 0.8700 0.5498
2.6800 0.8767 0.5543
2.7000 0.8833 0.5407
2.7200 0.8899 0.5494
2.7400 0.8965 0.5499
2.7600 0.9032 0.5357
2.7800 0.9099 0.5420
2.8000 0.9166 0.5422
2.8200 0.9233 0.5317
2.8400 0.9300 0.5356
2.8600 0.9367 0.5404
2.8800 0.9433 0.5271
2.9000 0.9499 0.5326
2.9200 0.9565 0.5363
2.9400 0.9632 0.5260
2.9600 0.9699 0.5283
2.9800 0.9766 0.5280
3.0000 0.9833 0.5216
3.0200 0.9900 0.5240
3.0400 0.9967 0.5225
3.0600 1.0033 0.5237
3.0800 1.0099 0.5129
3.1000 1.0164 0.5193
3.1200 1.0231 0.5241
3.1400 1.0298 0.5109
3.1600 1.0366 0.5106
3.1800 1.0433 0.5171
3.2000 1.0500 0.5055
3.2200 1.0566 0.5072
3.2400 1.0633 0.5097
3.2600 1.0699 0.5009
3.2800 1.0766 0.5074
3.3000 1.0832 0.5089
3.3200 1.0899 0.4886
3.3400 1.0966 0.5053
3.3600 1.1033 0.5043
3.3800 1.1100 0.4894
3.4000 1.1167 0.4946
3.4200 1.1234 0.4955
3.4400 1.1300 0.4908
3.4600 1.1366 0.4885
3.4800 1.1432 0.4994
3.5000 1.1499 0.4788
3.5200 1.1566 0.4906
3.5400 1.1633 0.4917
3.5600 1.1700 0.4742
3.5800 1.1767 0.4855
3.6000 1.1833 0.4875
3.6200 1.1899 0.4709
3.6400 1.1965 0.4827
3.6600 1.2032 0.4838
3.6800 1.2099 0.4655
3.7000 1.2166 0.4741
3.7200 1.2233 0.4827
3.7400 1.2300 0.4617
3.7600 1.2366 0.4751
3.7800 1.2433 0.4773
3.8000 1.2499 0.4515
3.8200 1.2565 0.4707
3.8400 1.2632 0.4755
3.8600 1.2699 0.4475
3.8800 1.2766 0.4639
3.9000 1.2833 0.4719
3.9200 1.2899 0.4392
3.9400 1.2966 0.4674
3.9600 1.3033 0.4588
3.9800 1.3100 0.4385
4.0000 1.3166 0.4684
4.0200 1.3232 0.4560
4.0400 1.3299 0.4338
4.0600 1.3366 0.4719
4.0800 1.3433 0.4508
4.1000 1.3500 0.4262
4.1200 1.3567 0.4638
4.1400 1.3633 0.4439
4.1600 1.3699 0.4299
4.1800 1.3765 0.4582
4.2000 1.3832 0.4380
4.2200 1.3899 0.4327
4.2400 1.3966 0.4554
4.2600 1.4033 0.4364
4.2800 1.4100 0.4277
4.3000 1.4167 0.4490
4.3200 1.4233 0.4315
4.3400 1.4300 0.4315
4.3600 1.4366 0.4442
4.3800 1.4432 0.4287
4.4000 1.4499 0.4370
4.4200 1.4566 0.4323
4.4400 1.4633 0.4262
4.4600 1.4700 0.4326
4.4800 1.4766 0.4323
4.5000 1.4833 0.4225
4.5200 1.4900 0.4259
4.5400 1.4966 0.4223
4.5600 1.5032 0.4300
4.5800 1.5099 0.4220
4.6000 1.5166 0.4173
4.6200 1.5233 0.4253
4.6400 1.5300 0.4182
4.6600 1.5367 0.4093
4.6800 1.5433 0.4260
4.7000 1.5499 0.4113
4.7200 1.5565 0.4038
4.7400 1.5632 0.4255
4.7600 1.5699 0.4047
4.7800 1.5766 0.3996
4.8000 1.5833 0.4178
4.8200 1.5900 0.4045
4.8400 1.5967 0.4003
4.8600 1.6034 0.4120
4.8800 1.6100 0.3928
4.9000 1.6166 0.3985
4.9200 1.6232 0.4092
4.9400 1.6299 0.3909
4.9600 1.6366 0.3895
4.9800 1.6433 0.4044
5.0000 1.6500 0.3841
5.0200 1.6567 0.3871
5.0400 1.6633 0.3966
5.0600 1.6700 0.3801
5.0800 1.6766 0.3795
5.1000 1.6832 0.3951
5.1200 1.6898 0.3771
5.1400 1.6965 0.3737
5.1600 1.7032 0.3916
5.1800 1.7100 0.3725
5.2000 1.7167 0.3672
5.2200 1.7234 0.3857
5.2400 1.7300 0.3680
5.2600 1.7366 0.3667
5.2800 1.7432 0.3828
5.3000 1.7498 0.3589
5.3200 1.7566 0.3685
5.3400 1.7633 0.3768
5.3600 1.7699 0.3521
5.3800 1.7766 0.3626
5.4000 1.7833 0.3697
5.4200 1.7899 0.3455
5.4400 1.7966 0.3629
5.4600 1.8032 0.3635
5.4800 1.8099 0.3433
5.5000 1.8166 0.3610
5.5200 1.8233 0.3561
5.5400 1.8300 0.3400
5.5600 1.8367 0.3556
5.5800 1.8434 0.3497
5.6000 1.8500 0.3381
5.6200 1.8566 0.3522
5.6400 1.8632 0.3481
5.6600 1.8699 0.3394
5.6800 1.8766 0.3470
5.7000 1.8833 0.3383
5.7200 1.8900 0.3384
5.7400 1.8967 0.3426
5.7600 1.9033 0.3333
5.7800 1.9099 0.3397
5.8000 1.9166 0.3334
5.8200 1.9232 0.3339
5.8400 1.9299 0.3340
5.8600 1.9366 0.3296
5.8800 1.9433 0.3310
5.9000 1.9499 0.3354
5.9200 1.9566 0.3256
5.9400 1.9633 0.3260
5.9600 1.9699 0.3297
5.9800 1.9765 0.3244
6.0000 1.9832 0.3231
6.0200 1.9899 0.3234
6.0400 1.9966 0.3189
6.0600 2.0033 0.3210
6.0800 2.0099 0.3226
6.1000 2.0166 0.3118
6.1200 2.0233 0.3225
6.1400 2.0300 0.3157
6.1600 2.0366 0.3073
6.1800 2.0432 0.3164
6.2000 2.0499 0.3183
6.2200 2.0566 0.3052
6.2400 2.0633 0.3162
6.2600 2.0700 0.3104
6.2800 2.0767 0.3059
6.3000 2.0833 0.3065
6.3200 2.0900 0.3076
6.3400 2.0966 0.3027
6.3600 2.1032 0.3105
6.3800 2.1099 0.3044
6.4000 2.1166 0.2939
6.4200 2.1233 0.3000
6.4400 2.1300 0.3019
6.4600 2.1366 0.2972
6.4800 2.1433 0.2943
6.5000 2.1500 0.2950
6.5200 2.1566 0.2942
6.5400 2.1633 0.2885
6.5600 2.1699 0.2945
6.5800 2.1766 0.2928
6.6000 2.1833 0.2820
6.6200 2.1900 0.2900
6.6400 2.1967 0.2845
6.6600 2.2034 0.2819
6.6800 2.2100 0.2864
6.7000 2.2166 0.2786
6.7200 2.2231 0.2745
6.7400 2.2298 0.2921
6.7600 2.2365 0.2735
6.7800 2.2432 0.2700
6.8000 2.2499 0.2840
6.8200 2.2566 0.2693
6.8400 2.2633 0.2682
6.8600 2.2700 0.2762
6.8800 2.2766 0.2696
6.9000 2.2832 0.2649
6.9200 2.2899 0.2738
6.9400 2.2966 0.2662
6.9600 2.3033 0.2615
6.9800 2.3100 0.2700
7.0000 2.3166 0.2598
7.0200 2.3233 0.2556
7.0400 2.3300 0.2697
7.0600 2.3366 0.2547
7.0800 2.3432 0.2573
7.1000 2.3499 0.2643
7.1200 2.3566 0.2504
7.1400 2.3633 0.2511
7.1600 2.3700 0.2612
7.1800 2.3767 0.2455
7.2000 2.3834 0.2496
7.2200 2.3900 0.2551
7.2400 2.3966 0.2429
7.2600 2.4032 0.2515
7.2800 2.4099 0.2516
7.3000 2.4166 0.2409
7.3200 2.4233 0.2458
7.3400 2.4300 0.2455
7.3600 2.4367 0.2440
7.3800 2.4433 0.2463
7.4000 2.4500 0.2381
7.4200 2.4566 0.2423
7.4400 2.4632 0.2414
7.4600 2.4699 0.2400
7.4800 2.4766 0.2390
7.5000 2.4833 0.2364
7.5200 2.4899 0.2308
7.5400 2.4966 0.2375
7.5600 2.5032 0.2288
7.5800 2.5099 0.2326
7.6000 2.5166 0.2338
7.6200 2.5232 0.2262
7.6400 2.5299 0.2337
7.6600 2.5366 0.2309
7.6800 2.5433 0.2161
7.7000 2.5500 0.2342
7.7200 2.5567 0.2246
7.7400 2.5634 0.2152
7.7600 2.5700 0.2308
7.7800 2.5766 0.2174
7.8000 2.5832 0.2141
7.8200 2.5899 0.2292
7.8400 2.5966 0.2182
7.8600 2.6033 0.2103
7.8800 2.6100 0.2255
7.9000 2.6167 0.2109
7.9200 2.6233 0.2066
7.9400 2.6300 0.2245
7.9600 2.6366 0.2134
7.9800 2.6432 0.1988
8.0000 2.6499 0.2201
8.0200 2.6566 0.2113
8.0400 2.6633 0.1931
8.0600 2.6700 0.2135
8.0800 2.6766 0.2092
8.1000 2.6833 0.1897
8.1200 2.6900 0.2155
8.1400 2.6966 0.1967
8.1600 2.7032 0.1921
8.1800 2.7098 0.2126
8.2000 2.7165 0.1925
8.2200 2.7233 0.1867
8.2400 2.7300 0.2081
8.2600 2.7366 0.1949
8.2800 2.7433 0.1791
8.3000 2.7500 0.2011
8.3200 2.7566 0.1907
8.3400 2.7632 0.1816
8.3600 2.7698 0.1993
8.3800 2.7765 0.1914
8.4000 2.7832 0.1744
8.4200 2.7899 0.1916
8.4400 2.7966 0.1865
8.4600 2.8033 0.1744
8.4800 2.8100 0.1865
8.5000 2.8166 0.1829
8.5200 2.8232 0.1657
8.5400 2.8299 0.1839
8.5600 2.8366 0.1826
8.5800 2.8433 0.1702
8.6000 2.8500 0.1775
8.6200 2.8567 0.1787
8.6400 2.8633 0.1630
8.6600 2.8700 0.1751
8.6800 2.8766 0.1751
8.7000 2.8832 0.1575
8.7200 2.8899 0.1755
8.7400 2.8965 0.1676
8.7600 2.9033 0.1544
8.7800 2.9100 0.1698
8.8000 2.9166 0.1716
8.8200 2.9233 0.1533
8.8400 2.9300 0.1651
8.8600 2.9366 0.1670
8.8800 2.9432 0.1517
8.9000 2.9498 0.1650
8.9200 2.9565 0.1640
8.9400 2.9632 0.1422
8.9600 2.9699 0.1646
8.9800 2.9766 0.1615
9.0000 2.9833 0.1406
9.0200 2.9900 0.1602
9.0400 2.9966 0.1554
9.0600 3.0032 0.1383
9.0800 3.0099 0.1571
9.1000 3.0166 0.1527
9.1200 3.0233 0.1374
9.1400 3.0300 0.1531
9.1600 3.0366 0.1449
9.1800 3.0433 0.1412
9.2000 3.0500 0.1510
9.2200 3.0566 0.1423
9.2400 3.0633 0.1366
9.2600 3.0699 0.1501
9.2800 3.0766 0.1403
9.3000 3.0833 0.1312
9.3200 3.0900 0.1428
9.3400 3.0967 0.1431
9.3600 3.1034 0.1288
9.3800 3.1100 0.1359
9.4000 3.1166 0.1410
9.4200 3.1232 0.1315
9.4400 3.1299 0.1295
9.4600 3.1366 0.1389
9.4800 3.1433 0.1262
9.5000 3.1500 0.1261
9.5200 3.1566 0.1378
9.5400 3.1633 0.1216
9.5600 3.1700 0.1272
9.5800 3.1766 0.1343
9.6000 3.1833 0.1170
9.6200 3.1899 0.1225
9.6400 3.1966 0.1352
9.6600 3.2032 0.1166
9.6800 3.2099 0.1211
9.7000 3.2166 0.1282
9.7200 3.2233 0.1120
9.7400 3.2299 0.1217
9.7600 3.2366 0.1241
9.7800 3.2432 0.1074
9.8000 3.2498 0.1211
9.8200 3.2565 0.1156
9.8400 3.2633 0.1088
9.8600 3.2700 0.1181
9.8800 3.2767 0.1120
9.9000 3.2834 0.1036
9.9200 3.2900 0.1121
9.9400 3.2966 0.1031
9.9600 3.3032 0.1067
9.9800 3.3099 0.1087
10.0000 3.3166 0.1014
10.0200 3.3233 0.1011
10.0400 3.3300 0.1004
10.0600 3.3367 0.1000
10.0800 3.3434 0.1028
10.1000 3.3500 0.0992
10.1200 3.3566 0.0921
10.1400 3.3633 0.0988
10.1600 3.3699 0.0926
10.1800 3.3765 0.0950
10.2000 3.3832 0.0949
10.2200 3.3899 0.0878
10.2400 3.3966 0.0917
10.2600 3.4033 0.0913
10.2800 3.4100 0.0825
10.3000 3.4166 0.0924
10.3200 3.4232 0.0838
10.3400 3.4298 0.0841
10.3600 3.4365 0.0884
10.3800 3.4432 0.0814
10.4000 3.4499 0.0825
10.4200 3.4566 0.0840
10.4400 3.4633 0.0800
10.4600 3.4700 0.0813
10.4800 3.4766 0.0792
10.5000 3.4832 0.0756
10.5200 3.4899 0.0786
10.5400 3.4966 0.0793
10.5600 3.5033 0.0738
10.5800 3.5100 0.0657
10.6000 3.5166 0.0741
10.6200 3.5233 0.0722
10.6400 3.5300 0.0728
10.6600 3.5367 0.0658
10.6800 3.5433 0.0670
10.7000 3.5499 0.0719
10.7200 3.5565 0.0653
10.7400 3.5632 0.0620
10.7600 3.5699 0.0698
10.7800 3.5766 0.0620
10.8000 3.5833 0.0611
10.8200 3.5899 0.0623
10.8400 3.5966 0.0641
10.8600 3.6032 0.0673
10.8800 3.6099 0.0585
10.9000 3.6166 0.0541
10.9200 3.6233 0.0643
10.9400 3.6300 0.0576
10.9600 3.6367 0.0545
10.9800 3.6433 0.0650
11.0000 3.6500 0.0526
11.0200 3.6566 0.0484
11.0400 3.6632 0.0588
11.0600 3.6699 0.0531
11.0800 3.6765 0.0482
11.1000 3.6832 0.0622
11.1200 3.6899 0.0411
11.1400 3.6966 0.0478
11.1600 3.7032 0.0602
11.1800 3.7099 0.0369
11.2000 3.7166 0.0442
11.2200 3.7232 0.0549
11.2400 3.7299 0.0356
11.2600 3.7365 0.0448
11.2800 3.7432 0.0481
11.3000 3.7500 0.0375
11.3200 3.7567 0.0431
11.3400 3.7634 0.0397
11.3600 3.7701 0.0344
11.3800 3.7767 0.0372
11.4000 3.7833 0.0418
11.4200 3.7899 0.0364
11.4400 3.7965 0.0346
11.4600 3.8033 0.0389
11.4800 3.8100 0.0338
11.5000 3.8167 0.0299
11.5200 3.8234 0.0382
11.5400 3.8300 0.0290
11.5600 3.8367 0.0297
11.5800 3.8432 0.0297
11.6000 3.8498 0.0315
11.6200 3.8565 0.0269
11.6400 3.8632 0.0310
11.6600 3.8699 0.0277
11.6800 3.8766 0.0202
11.7000 3.8833 0.0310
11.7200 3.8900 0.0258
11.7400 3.8967 0.0139
11.7600 3.9033 0.0259
11.7800 3.9098 0.0239
11.8000 3.9165 0.0145
11.8200 3.9232 0.0250
11.8400 3.9299 0.0196
11.8600 3.9366 0.0161
11.8800 3.9433 0.0245
11.9000 3.9500 0.0155
11.9200 3.9566 0.0131
11.9400 3.9632 0.0217
11.9600 3.9699 0.0108
11.9800 3.9765 0.0114
12.0000 3.9833 0.0173
12.0200 3.9900 0.0072
12.0400 3.9967 0.0082
12.0600 4.0034 0.0194
12.0800 4.0100 0.0075
12.1000 4.0167 -0.0009
12.1200 4.0233 0.0103
12.1400 4.0299 0.0064
12.1600 4.0366 -0.0026
12.1800 4.0433 0.0065
12.2000 4.0500 0.0005
12.2200 4.0566 -0.0023
12.2400 4.0633 0.0036
12.2600 4.0700 0.0010
12.2800 4.0767 -0.0063
12.3000 4.0833 -0.0001
12.3200 4.0899 -0.0031
12.3400 4.0965 -0.0116
12.3600 4.1032 0.0022
12.3800 4.1099 -0.0103
12.4000 4.1166 -0.0127
12.4200 4.1232 -0.0005
12.4400 4.1299 -0.0088
12.4600 4.1366 -0.0197
12.4800 4.1433 -0.0039
12.5000 4.1499 -0.0118
12.5200 4.1565 -0.0176
12.5400 4.1632 -0.0099
12.5600 4.1699 -0.0174
12.5800 4.1766 -0.0205
12.6000 4.1833 -0.0112
12.6200 4.1900 -0.0179
12.6400 4.1967 -0.0255
12.6600 4.2033 -0.0195
12.6800 4.2099 -0.0200
12.7000 4.2166 -0.0248
12.7200 4.2233 -0.0170
12.7400 4.2299 -0.0252
12.7600 4.2366 -0.0339
12.7800 4.2433 -0.0173
12.8000 4.2500 -0.0272
12.8200 4.2567 -0.0312
12.8400 4.2633 -0.0231
12.8600 4.2699 -0.0262
12.8800 4.2766 -0.0371
12.9000 4.2832 -0.0242
12.9200 4.2900 -0.0292
12.9400 4.2967 -0.0374
12.9600 4.3033 -0.0328
12.9800 4.3100 -0.0344
13.0000 4.3167 -0.0363
13.0200 4.3233 -0.0349
13.0400 4.3299 -0.0355
13.0600 4.3365 -0.0385
13.0800 4.3433 -0.0394
13.1000 4.3500 -0.0386
13.1200 4.3566 -0.0451
13.1400 4.3633 -0.0393
13.1600 4.3700 -0.0343
13.1800 4.3767 -0.0488
13.2000 4.3833 -0.0445
13.2200 4.3898 -0.0384
13.2400 4.3965 -0.0455
13.2600 4.4032 -0.0469
13.2800 4.4099 -0.0416
13.3000 4.4166 -0.0518
13.3200 4.4233 -0.0483
13.3400 4.4300 -0.0444
13.3600 4.4367 -0.0563
13.3800 4.4433 -0.0537
13.4000 4.4499 -0.0410
13.4200 4.4565 -0.0638
13.4400 4.4632 -0.0507
13.4600 4.4700 -0.0469
13.4800 4.4767 -0.0674
13.5000 4.4834 -0.0573
13.5200 4.4900 -0.0469
13.5400 4.4967 -0.0707
13.5600 4.5033 -0.0573
13.5800 4.5099 -0.0517
13.6000 4.5166 -0.0711
13.6200 4.5233 -0.0590
13.6400 4.5300 -0.0553
13.6600 4.5366 -0.0727
13.6800 4.5433 -0.0627
13.7000 4.5500 -0.0592
13.7200 4.5567 -0.0790
13.7400 4.5633 -0.0621
13.7600 4.5699 -0.0647
13.7800 4.5765 -0.0741
13.8000 4.5832 -0.0649
13.8200 4.5899 -0.0727
13.8400 4.5966 -0.0787
13.8600 4.6033 -0.0641
13.8800 4.6100 -0.0746
13.9000 4.6167 -0.0787
13.9200 4.6233 -0.0709
13.9400 4.6299 -0.0725
13.9600 4.6365 -0.0814
13.9800 4.6432 -0.0741
14.0000 4.6498 -0.0745
14.0200 4.6565 -0.0863
14.0400 4.6632 -0.0796
14.0600 4.6700 -0.0803
14.0800 4.6766 -0.0866
14.1000 4.6833 -0.0812
14.1200 4.6899 -0.0826
14.1400 4.6965 -0.0859
14.1600 4.7032 -0.0853
14.1800 4.7100 -0.0888
14.2000 4.7167 -0.0872
14.2200 4.7233 -0.0899
14.2400 4.7300 -0.0890
14.2600 4.7367 -0.0889
14.2800 4.7433 -0.0914
14.3000 4.7499 -0.0950
14.3200 4.7566 -0.0823
14.3400 4.7632 -0.0970
14.3600 4.7699 -0.0926
14.3800 4.7766 -0.0904
14.4000 4.7833 -0.1023
14.4200 4.7900 -0.0915
14.4400 4.7967 -0.0896
14.4600 4.8033 -0.1054
14.4800 4.8099 -0.0962
14.5000 4.8165 -0.0937
14.5200 4.8232 -0.1050
14.5400 4.8299 -0.0949
14.5600 4.8366 -0.1010
14.5800 4.8433 -0.1071
14.6000 4.8499 -0.1001
14.6200 4.8566 -0.1059
14.6400 4.8632 -0.1068
14.6600 4.8699 -0.0985
14.6800 4.8765 -0.1091
14.7000 4.8832 -0.1112
14.7200 4.8899 -0.1026
14.7400 4.8966 -0.1087
14.7600 4.9032 -0.1110
14.7800 4.9099 -0.1045
14.8000 4.9166 -0.1137
14.8200 4.9232 -0.1187
14.8400 4.9298 -0.1081
14.8600 4.9365 -0.1058
14.8800 4.9432 -0.1203
14.9000 4.9500 -0.1089
14.9200 4.9567 -0.1149
14.9400 4.9633 -0.1270
14.9600 4.9700 -0.1089
14.9800 4.9767 -0.1158
15.0000 4.9833 -0.1260
15.0200 4.9899 -0.1122
15.0400 4.9965 -0.1200
15.0600 5.0032 -0.1287
15.0800 5.0099 -0.1137
15.1000 5.0167 -0.1272
15.1200 5.0233 -0.1294
15.1400 5.0300 -0.1192
15.1600 5.0367 -0.1283
15.1800 5.0433 -0.1312
15.2000 5.0499 -0.1200
15.2200 5.0566 -0.1344
15.2400 5.0632 -0.1344
15.2600 5.0699 -0.1248
15.2800 5.0766 -0.1315
15.3000 5.0833 -0.1353
15.3200 5.0900 -0.1258
15.3400 5.0967 -0.1361
15.3600 5.1033 -0.1375
15.3800 5.1099 -0.1279
15.4000 5.1165 -0.1391
15.4200 5.1231 -0.1380
15.4400 5.1298 -0.1327
15.4600 5.1366 -0.1503
15.4800 5.1433 -0.1705
15.5000 5.1499 -0.1590
15.5200 5.1566 -0.1651
15.5400 5.1633 -0.1664
15.5600 5.1699 -0.1586
15.5800 5.1765 -0.1571
15.6000 5.1832 -0.1668
15.6200 5.1899 -0.1591
15.6400 5.1966 -0.1644
15.6600 5.2032 -0.1687
15.6800 5.2100 -0.1627
15.7000 5.2167 -0.1638
15.7200 5.2234 -0.1711
15.7400 5.2300 -0.1625
15.7600 5.2366 -0.1654
15.7800 5.2433 -0.1714
15.8000 5.2500 -0.1644
15.8200 5.2567 -0.1637
15.8400 5.2634 -0.1720
15.8600 5.2700 -0.1664
15.8800 5.2767 -0.1654
15.9000 5.2833 -0.1713
15.9200 5.2899 -0.1703
15.9400 5.2965 -0.1683
15.9600 5.3032 -0.1724
15.9800 5.3099 -0.1732
16.0000 5.3166 -0.1724
16.0200 5.3233 -0.1738
16.0400 5.3300 -0.1712
16.0600 5.3366 -0.1779
16.0800 5.3433 -0.1705
16.1000 5.3499 -0.1752
16.1200 5.3565 -0.1759
16.1400 5.3632 -0.1744
16.1600 5.3699 -0.1733
16.1800 5.3766 -0.1799
16.2000 5.3833 -0.1769
16.2200 5.3899 -0.1785
16.2400 5.3966 -0.1726
16.2600 5.4033 -0.1805
16.2800 5.4100 -0.1788
16.3000 5.4166 -0.1753
16.3200 5.4233 -0.1830
16.3400 5.4299 -0.1845
16.3600 5.4366 -0.1790
16.3800 5.4433 -0.1805
16.4000 5.4500 -0.1862
16.4200 5.4566 -0.1823
16.4400 5.4633 -0.1880
16.4600 5.4699 -0.1813
16.4800 5.4765 -0.1822
16.5000 5.4832 -0.1853
16.5200 5.4900 -0.1882
16.5400 5.4967 -0.1868
16.5600 5.5034 -0.1919
16.5800 5.5100 -0.1874
16.6000 5.5167 -0.1929
16.6200 5.5233 -0.1893
16.6400 5.5299 -0.1898
16.6600 5.5365 -0.1937
16.6800 5.5432 -0.1913
16.7000 5.5499 -0.1941
16.7200 5.5566 -0.1949
16.7400 5.5633 -0.1943
16.7600 5.5700 -0.1987
16.7800 5.5766 -0.1984
16.8000 5.5833 -0.1942
16.8200 5.5899 -0.2055
16.8400 5.5965 -0.1972
16.8600 5.6032 -0.1933
16.8800 5.6099 -0.2125
16.9000 5.6166 -0.2021
16.9200 5.6233 -0.1962
16.9400 5.6299 -0.2077
16.9600 5.6367 -0.2022
16.9800 5.6433 -0.2041
17.0000 5.6499 -0.2074
17.0200 5.6565 -0.2053
17.0400 5.6632 -0.2040
17.0600 5.6699 -0.2133
17.0800 5.6767 -0.2027
17.1000 5.6833 -0.2099
17.1200 5.6900 -0.2151
17.1400 5.6967 -0.2045
17.1600 5.7033 -0.2148
17.1800 5.7099 -0.2156
17.2000 5.7165 -0.2029
17.2200 5.7232 -0.2186
17.2400 5.7298 -0.2193
17.2600 5.7365 -0.2117
17.2800 5.7432 -0.2155
17.3000 5.7500 -0.2217
17.3200 5.7567 -0.2148
17.3400 5.7634 -0.2161
17.3600 5.7700 -0.2290
17.3800 5.7766 -0.2121
17.4000 5.7832 -0.2228
17.4200 5.7899 -0.2186
17.4400 5.7966 -0.2178
17.4600 5.8033 -0.2255
17.4800 5.8100 -0.2264
17.5000 5.8167 -0.2165
17.5200 5.8233 -0.2248
17.5400 5.8299 -0.2357
17.5600 5.8365 -0.2175
17.5800 5.8431 -0.2202
17.6000 5.8498 -0.2348
17.6200 5.8566 -0.2289
17.6400 5.8633 -0.2290
17.6600 5.8700 -0.2238
17.6800 5.8766 -0.2322
17.7000 5.8833 -0.2355
17.7200 5.8899 -0.2282
17.7400 5.8966 -0.2291
17.7600 5.9032 -0.2365
17.7800 5.9099 -0.2401
17.8000 5.9166 -0.2237
17.8200 5.9233 -0.2373
17.8400 5.9300 -0.2474
17.8600 5.9367 -0.2339
17.8800 5.9434 -0.2319
17.9000 5.9500 -0.2437
17.9200 5.9566 -0.2388
17.9400 5.9632 -0.2377
17.9600 5.9699 -0.2404
17.9800 5.9766 -0.2428
18.0000 5.9833 -0.2381
18.0200 5.9900 -0.2438
18.0400 5.9966 -0.2478
18.0600 6.0033 -0.2429
18.0800 6.0099 -0.2364
18.1000 6.0165 -0.2473
18.1200 6.0232 -0.2477
18.1400 6.0299 -0.2436
18.1600 6.0366 -0.2483
18.1800 6.0433 -0.2493
18.2000 6.0500 -0.2493
18.2200 6.0567 -0.2452
18.2400 6.0633 -0.2530
18.2600 6.0700 -0.2594
18.2800 6.0766 -0.2474
18.3000 6.0832 -0.2416
18.3200 6.0899 -0.2633
18.3400 6.0966 -0.2585
18.3600 6.1033 -0.2489
18.3800 6.1099 -0.2559
18.4000 6.1166 -0.2565
18.4200 6.1233 -0.2535
18.4400 6.1300 -0.2656
18.4600 6.1366 -0.2596
18.4800 6.1432 -0.2515
18.5000 6.1499 -0.2645
18.5200 6.1566 -0.2612
18.5400 6.1633 -0.2556
18.5600 6.1700 -0.2611
18.5800 6.1767 -0.2713
18.6000 6.1834 -0.2614
18.6200 6.1900 -0.2571
18.6400 6.1966 -0.2752
18.6600 6.2032 -0.2610
18.6800 6.2099 -0.2615
18.7000 6.2166 -0.2725
18.7200 6.2233 -0.2635
18.7400 6.2300 -0.2728
18.7600 6.2367 -0.2722
18.7800 6.2433 -0.2615
18.8000 6.2500 -0.2723
18.8200 6.2566 -0.2853
18.8400 6.2632 -0.2604
18.8600 6.2699 -0.2677
18.8800 6.2766 -0.2810
18.9000 6.2832 -0.2674
18.9200 6.2899 -0.2744
18.9400 6.2966 -0.2773
18.9600 6.3033 -0.2705
18.9800 6.3100 -0.2857
19.0000 6.3166 -0.2718
19.0200 6.3232 -0.2680
19.0400 6.3298 -0.2905
19.0600 6.3366 -0.2797
19.0800 6.3433 -0.2666
19.1000 6.3500 -0.2917
19.1200 6.3566 -0.2855
19.1400 6.3633 -0.2680
19.1600 6.3699 -0.2957
19.1800 6.3766 -0.2818
19.2000 6.3832 -0.2720
19.2200 6.3899 -0.2899
19.2400 6.3966 -0.2884
19.2600 6.4033 -0.2806
19.2800 6.4100 -0.2909
19.3000 6.4167 -0.2862
19.3200 6.4233 -0.2844
19.3400 6.4300 -0.2924
19.3600 6.4366 -0.2906
19.3800 6.4432 -0.2820
19.4000 6.4499 -0.2938
19.4200 6.4566 -0.2911
19.4400 6.4633 -0.2921
19.4600 6.4700 -0.2960
19.4800 6.4767 -0.2917
19.5000 6.4833 -0.2950
19.5200 6.4900 -0.2966
19.5400 6.4966 -0.2946
19.5600 6.5032 -0.2944
19.5800 6.5099 -0.2965
19.6000 6.5166 -0.3006
19.6200 6.5233 -0.2959
19.6400 6.5299 -0.2983
19.6600 6.5366 -0.3059
19.6800 6.5433 -0.2999
19.7000 6.5500 -0.2964
19.7200 6.5566 -0.3055
19.7400 6.5632 -0.3034
19.7600 6.5698 -0.2911
19.7800 6.5766 -0.3133
19.8000 6.5833 -0.3024
19.8200 6.5899 -0.2967
19.8400 6.5966 -0.3196
19.8600 6.6033 -0.3074
19.8800 6.6099 -0.2944
19.9000 6.6166 -0.3236
19.9200 6.6232 -0.3068
19.9400 6.6299 -0.2958
19.9600 6.6366 -0.3276
19.9800 6.6433 -0.3049
20.0000 6.6500 -0.2989
20.0200 6.6567 -0.3270
20.0400 6.6634 -0.3077
20.0600 6.6700 -0.3054
20.0800 6.6766 -0.3232
20.1000 6.6832 -0.3072
20.1200 6.6899 -0.3098
20.1400 6.6966 -0.3174
20.1600 6.7033 -0.3139
20.1800 6.7100 -0.3152
20.2000 6.7167 -0.3188
20.2200 6.7234 -0.3129
20.2400 6.7300 -0.3187
20.2600 6.7366 -0.3164
20.2800 6.7432 -0.3179
20.3000 6.7499 -0.3206
20.3200 6.7566 -0.3143
20.3400 6.7633 -0.3176
20.3600 6.7699 -0.3261
20.3800 6.7766 -0.3125
20.4000 6.7833 -0.3205
20.4200 6.7900 -0.3286
20.4400 6.7966 -0.3201
20.4600 6.8032 -0.3220
20.4800 6.8098 -0.3230
20.5000 6.8166 -0.3232
20.5200 6.8233 -0.3260
20.5400 6.8300 -0.3256
20.5600 6.8366 -0.3232
20.5800 6.8433 -0.3309
20.6000 6.8500 -0.3254
20.6200 6.8566 -0.3274
20.6400 6.8632 -0.3314
20.6600 6.8699 -0.3215
20.6800 6.8766 -0.3332
20.7000 6.8833 -0.3385
20.7200 6.8900 -0.3232
20.7400 6.8967 -0.3368
20.7600 6.9034 -0.3404
20.7800 6.9100 -0.3319
20.8000 6.9166 -0.3315
20.8200 6.9232 -0.3373
20.8400 6.9299 -0.3339
20.8600 6.9366 -0.3385
20.8800 6.9433 -0.3401
20.9000 6.9500 -0.3365
20.9200 6.9567 -0.3426
20.9400 6.9633 -0.3386
20.9600 6.9700 -0.3428
20.9800 6.9766 -0.3443
21.0000 6.9832 -0.3421
21.0200 6.9899 -0.3426
21.0400 6.9966 -0.3453
21.0600 7.0033 -0.3414
21.0800 7.0099 -0.3518
21.1000 7.0166 -0.3455
21.1200 7.0233 -0.3456
21.1400 7.0300 -0.3459
21.1600 7.0366 -0.3519
21.1800 7.0432 -0.3471
21.2000 7.0498 -0.3496
21.2200 7.0565 -0.3527
21.2400 7.0632 -0.3502
21.2600 7.0699 -0.3454
21.2800 7.0766 -0.3549
21.3000 7.0833 -0.3602
21.3200 7.0899 -0.3525
21.3400 7.0966 -0.3544
21.3600 7.1032 -0.3556
21.3800 7.1099 -0.3540
21.4000 7.1165 -0.3568
21.4200 7.1233 -0.3610
21.4400 7.1300 -0.3603
21.4600 7.1366 -0.3575
21.4800 7.1434 -0.3586
21.5000 7.1500 -0.3643
21.5200 7.1566 -0.3608
21.5400 7.1632 -0.3656
21.5600 7.1699 -0.3603
21.5800 7.1765 -0.3578
21.6000 7.1832 -0.3687
21.6200 7.1899 -0.3677
21.6400 7.1967 -0.3586
21.6600 7.2034 -0.3732
21.6800 7.2100 -0.3743
21.7000 7.2166 -0.3571
21.7200 7.2232 -0.3678
21.7400 7.2298 -0.3763
21.7600 7.2366 -0.3604
21.7800 7.2433 -0.3745
21.8000 7.2500 -0.3732
21.8200 7.2566 -0.3597
21.8400 7.2633 -0.3865
21.8600 7.2700 -0.3729
21.8800 7.2766 -0.3585
21.9000 7.2832 -0.3904
21.9200 7.2899 -0.3789
21.9400 7.2965 -0.3525
21.9600 7.3032 -0.3898
21.9800 7.3099 -0.3846
22.0000 7.3166 -0.3639
22.0200 7.3233 -0.3880
22.0400 7.3299 -0.3803
22.0600 7.3366 -0.3679
22.0800 7.3432 -0.3929
22.1000 7.3499 -0.3786
22.1200 7.3566 -0.3717
22.1400 7.3633 -0.3923
22.1600 7.3700 -0.3800
22.1800 7.3767 -0.3739
22.2000 7.3834 -0.3950
22.2200 7.3900 -0.3840
22.2400 7.3966 -0.3741
22.2600 7.4032 -0.3893
22.2800 7.4099 -0.3931
22.3000 7.4166 -0.3826
22.3200 7.4233 -0.3809
22.3400 7.4300 -0.3950
22.3600 7.4367 -0.3863
22.3800 7.4433 -0.3860
22.4000 7.4500 -0.3995
22.4200 7.4566 -0.3830
22.4400 7.4632 -0.3797
22.4600 7.4698 -0.4119
22.4800 7.4765 -0.3854
22.5000 7.4833 -0.3860
22.5200 7.4899 -0.4030
22.5400 7.4966 -0.3924
22.5600 7.5033 -0.3941
22.5800 7.5100 -0.4034
22.6000 7.5166 -0.3889
22.6200 7.5232 -0.3986
22.6400 7.5298 -0.4049
22.6600 7.5365 -0.3934
22.6800 7.5433 -0.4044
22.7000 7.5500 -0.3986
22.7200 7.5566 -0.3929
22.7400 7.5633 -0.4129
22.7600 7.5700 -0.4030
22.7800 7.5766 -0.3946
22.8000 7.5832 -0.4108
22.8200 7.5899 -0.3943
22.8400 7.5966 -0.4014
22.8600 7.6033 -0.4197
22.8800 7.6100 -0.3955
22.9000 7.6166 -0.3966
22.9200 7.6233 -0.4266
22.9400 7.6300 -0.4021
22.9600 7.6367 -0.4072
22.9800 7.6433 -0.4184
23.0000 7.6499 -0.3954
23.0200 7.6566 -0.4154
23.0400 7.6633 -0.4243
23.0600 7.6700 -0.4010
23.0800 7.6767 -0.4153
23.1000 7.6834 -0.4194
23.1200 7.6901 -0.4023
23.1400 7.6967 -0.4205
23.1600 7.7032 -0.4277
23.1800 7.7098 -0.4010
23.2000 7.7165 -0.4171
23.2200 7.7233 -0.4257
23.2400 7.7300 -0.4094
23.2600 7.7366 -0.4241
23.2800 7.7433 -0.4242
23.3000 7.7500 -0.4113
23.3200 7.7566 -0.4264
23.3400 7.7632 -0.4279
23.3600 7.7698 -0.4077
23.3800 7.7765 -0.4267
23.4000 7.7832 -0.4287
23.4200 7.7899 -0.4202
23.4400 7.7966 -0.4294
23.4600 7.8032 -0.4277
23.4800 7.8099 -0.4188
23.5000 7.8166 -0.4335
23.5200 7.8232 -0.4286
23.5400 7.8299 -0.4198
23.5600 7.8366 -0.4310
23.5800 7.8433 -0.4323
23.6000 7.8500 -0.4257
23.6200 7.8567 -0.4347
23.6400 7.8634 -0.4316
23.6600 7.8700 -0.4263
23.6800 7.8767 -0.4350
23.7000 7.8833 -0.4325
23.7200 7.8899 -0.4338
23.7400 7.8966 -0.4359
23.7600 7.9033 -0.4340
23.7800 7.9100 -0.4411
23.8000 7.9167 -0.4378
23.8200 7.9234 -0.4330
23.8400 7.9300 -0.4427
23.8600 7.9366 -0.4403
23.8800 7.9432 -0.4405
23.9000 7.9498 -0.4405
23.9200 7.9565 -0.4370
23.9400 7.9633 -0.4391
23.9600 7.9700 -0.4496
23.9800 7.9766 -0.4362
24.0000 7.9833 -0.4447
24.0200 7.9900 -0.4526
24.0400 7.9967 -0.4346
24.0600 8.0033 -0.4438
24.0800 8.0099 -0.4495
24.1000 8.0165 -0.4406
24.1200 8.0232 -0.4467
24.1400 8.0299 -0.4459
24.1600 8.0366 -0.4478
24.1800 8.0433 -0.4477
24.2000 8.0500 -0.4440
24.2200 8.0566 -0.4532
24.2400 8.0632 -0.4512
24.2600 8.0699 -0.4471
24.2800 8.0765 -0.4532
24.3000 8.0833 -0.4522
24.3200 8.0900 -0.4507
24.3400 8.0967 -0.4578
24.3600 8.1033 -0.4497
24.3800 8.1100 -0.4531
24.4000 8.1166 -0.4587
24.4200 8.1232 -0.4498
24.4400 8.1299 -0.4564
24.4600 8.1365 -0.4638
24.4800 8.1433 -0.4545
24.5000 8.1500 -0.4599
24.5200 8.1567 -0.4579
24.5400 8.1634 -0.4544
24.5600 8.1700 -0.4681
24.5800 8.1767 -0.4642
24.6000 8.1833 -0.4538
24.6200 8.1899 -0.4664
24.6400 8.1965 -0.4639
24.6600 8.2032 -0.4572
24.6800 8.2099 -0.4677
24.7000 8.2166 -0.4630
24.7200 8.2233 -0.4637
24.7400 8.2300 -0.4707
24.7600 8.2366 -0.4645
24.7800 8.2432 -0.4663
24.8000 8.2498 -0.4796
24.8200 8.2565 -0.4596
24.8400 8.2632 -0.4641
24.8600 8.2699 -0.4810
24.8800 8.2766 -0.4658
24.9000 8.2833 -0.4640
24.9200 8.2900 -0.4827
24.9400 8.2966 -0.4677
24.9600 8.3033 -0.4697
24.9800 8.3099 -0.4835
25.0000 8.3166 -0.4657
25.0200 8.3233 -0.4795
25.0400 8.3300 -0.4846
25.0600 8.3366 -0.4626
25.0800 8.3433 -0.4780
25.1000 8.3500 -0.4882
25.1200 8.3567 -0.4646
25.1400 8.3633 -0.4828
25.1600 8.3699 -0.4816
25.1800 8.3765 -0.4681
25.2000 8.3832 -0.4878
25.2200 8.3899 -0.4813
25.2400 8.3966 -0.4665
25.2600 8.4033 -0.4951
25.2800 8.4100 -0.4824
25.3000 8.4167 -0.4726
25.3200 8.4233 -0.4932
25.3400 8.4299 -0.4770
25.3600 8.4366 -0.4801
25.3800 8.4433 -0.4934
25.4000 8.4500 -0.4736
25.4200 8.4567 -0.4955
25.4400 8.4633 -0.4915
25.4600 8.4700 -0.4717
25.4800 8.4766 -0.5032
25.5000 8.4833 -0.4863
25.5200 8.4898 -0.4710
25.5400 8.4965 -0.5065
25.5600 8.5032 -0.4845
25.5800 8.5099 -0.4746
25.6000 8.5166 -0.5137
25.6200 8.5232 -0.4773
25.6400 8.5299 -0.4927
25.6600 8.5366 -0.5202
25.6800 8.5432 -0.4632
25.7000 8.5499 -0.4923
25.7200 8.5565 -0.5203
25.7400 8.5632 -0.4672
25.7600 8.5700 -0.5053
25.7800 8.5767 -0.5111
25.8000 8.5834 -0.4714
25.8200 8.5901 -0.5108
25.8400 8.5967 -0.5054
25.8600 8.6033 -0.4799
25.8800 8.6099 -0.5168
25.9000 8.6166 -0.4943
25.9200 8.6233 -0.4845
25.9400 8.6300 -0.5242
25.9600 8.6367 -0.4972
25.9800 8.6433 -0.4942
26.0000 8.6500 -0.5215
26.0200 8.6567 -0.4939
26.0400 8.6633 -0.5010
26.0600 8.6699 -0.5191
26.0800 8.6765 -0.4922
26.1000 8.6832 -0.5112
26.1200 8.6899 -0.5123
26.1400 8.6966 -0.4971
26.1600 8.7033 -0.5145
26.1800 8.7100 -0.5116
26.2000 8.7167 -0.5026
26.2200 8.7233 -0.5211
26.2400 8.7299 -0.5050
26.2600 8.7365 -0.5045
26.2800 8.7432 -0.5183
26.3000 8.7499 -0.5110
26.3200 8.7566 -0.5127
26.3400 8.7633 -0.5159
26.3600 8.7699 -0.5079
26.3800 8.7766 -0.5190
26.4000 8.7833 -0.5191
26.4200 8.7899 -0.5105
26.4400 8.7965 -0.5228
26.4600 8.8032 -0.5161
26.4800 8.8100 -0.5169
26.5000 8.8167 -0.5227
26.5200 8.8233 -0.5201
26.5400 8.8300 -0.5172
26.5600 8.8367 -0.5270
26.5800 8.8433 -0.5176
26.6000 8.8499 -0.5183
26.6200 8.8566 -0.5249
26.6400 8.8633 -0.5196
26.6600 8.8700 -0.5241
26.6800 8.8766 -0.5273
26.7000 8.8833 -0.5168
26.7200 8.8900 -0.5243
26.7400 8.8967 -0.5291
26.7600 8.9033 -0.5252
26.7800 8.9099 -0.5273
26.8000 8.9165 -0.5243
26.8200 8.9232 -0.5256
26.8400 8.9299 -0.5336
26.8600 8.9366 -0.5310
26.8800 8.9433 -0.5200
26.9000 8.9500 -0.5404
26.9200 8.9566 -0.5320
26.9400 8.9633 -0.5211
26.9600 8.9699 -0.5418
26.9800 8.9765 -0.5344
27.0000 8.9832 -0.5219
27.0200 8.9899 -0.5368
27.0400 8.9966 -0.5366
27.0600 9.0033 -0.5294
27.0800 9.0099 -0.5361
27.1000 9.0166 -0.5367
27.1200 9.0233 -0.5336
27.1400 9.0299 -0.5388
27.1600 9.0365 -0.5327
27.1800 9.0432 -0.5338
27.2000 9.0499 -0.5372
27.2200 9.0566 -0.5429
27.2400 9.0633 -0.5355
27.2600 9.0700 -0.5384
27.2800 9.0767 -0.5434
27.3000 9.0833 -0.5293
27.3200 9.0899 -0.5457
27.3400 9.0965 -0.5467
27.3600 9.1032 -0.5302
27.3800 9.1100 -0.5426
27.4000 9.1167 -0.5503
27.4200 9.1234 -0.5332
27.4400 9.1300 -0.5469
27.4600 9.1367 -0.5508
27.4800 9.1433 -0.5355
27.5000 9.1499 -0.5436
27.5200 9.1565 -0.5544
27.5400 9.1632 -0.5402
27.5600 9.1700 -0.5486
27.5800 9.1766 -0.5502
27.6000 9.1833 -0.5406
27.6200 9.1900 -0.5492
27.6400 9.1967 -0.5524
27.6600 9.2033 -0.5434
27.6800 9.2099 -0.5484
27.7000 9.2165 -0.5571
27.7200 9.2232 -0.5471
27.7400 9.2299 -0.5497
27.7600 9.2366 -0.5555
27.7800 9.2433 -0.5507
27.8000 9.2500 -0.5518
27.8200 9.2566 -0.5583
27.8400 9.2633 -0.5567
27.8600 9.2699 -0.5533
27.8800 9.2765 -0.5588
27.9000 9.2832 -0.5598
27.9200 9.2899 -0.5543
27.9400 9.2967 -0.5613
27.9600 9.3034 -0.5588
27.9800 9.3100 -0.5582
28.0000 9.3167 -0.5612
28.0200 9.3233 -0.5661
28.0400 9.3299 -0.5562
28.0600 9.3366 -0.5590
28.0800 9.3433 -0.5698
28.1000 9.3500 -0.5645
28.1200 9.3567 -0.5597
28.1400 9.3633 -0.5649
28.1600 9.3700 -0.5640
28.1800 9.3767 -0.5682
28.2000 9.3833 -0.5693
28.2200 9.3899 -0.5594
28.2400 9.3965 -0.5659
28.2600 9.4032 -0.5706
28.2800 9.4099 -0.5691
28.3000 9.4166 -0.5702
28.3200 9.4233 -0.5676
28.3400 9.4300 -0.5698
28.3600 9.4367 -0.5766
28.3800 9.4433 -0.5687
28.4000 9.4499 -0.5784
28.4200 9.4565 -0.5722
28.4400 9.4632 -0.5674
28.4600 9.4699 -0.5761
28.4800 9.4766 -0.5752
28.5000 9.4833 -0.5741
28.5200 9.4900 -0.5739
28.5400 9.4966 -0.5742
28.5600 9.5033 -0.5790
28.5800 9.5099 -0.5764
28.6000 9.5166 -0.5753
28.6200 9.5232 -0.5815
28.6400 9.5299 -0.5761
28.6600 9.5366 -0.5727
28.6800 9.5433 -0.5809
28.7000 9.5500 -0.5798
28.7200 9.5567 -0.5743
28.7400 9.5633 -0.5833
28.7600 9.5699 -0.5745
28.7800 9.5766 -0.5783
28.8000 9.5832 -0.5829
28.8200 9.5899 -0.5827
28.8400 9.5967 -0.5792
28.8600 9.6033 -0.5837
28.8800 9.6100 -0.5865
28.9000 9.6167 -0.5839
28.9200 9.6233 -0.5792
28.9400 9.6299 -0.5909
28.9600 9.6365 -0.5800
28.9800 9.6432 -0.5796
29.0000 9.6499 -0.5919
29.0200 9.6566 -0.5858
29.0400 9.6633 -0.5838
29.0600 9.6699 -0.5898
29.0800 9.6766 -0.5804
29.1000 9.6833 -0.5893
29.1200 9.6899 -0.5969
29.1400 9.6965 -0.5793
29.1600 9.7032 -0.5890
29.1800 9.7099 -0.5959
29.2000 9.7166 -0.5830
29.2200 9.7232 -0.5918
29.2400 9.7299 -0.6004
29.2600 9.7366 -0.5843
29.2800 9.7433 -0.5955
29.3000 9.7499 -0.5918
29.3200 9.7566 -0.5915
29.3400 9.7632 -0.5996
29.3600 9.7699 -0.5936
29.3800 9.7766 -0.5875
29.4000 9.7833 -0.6060
29.4200 9.7900 -0.5930
29.4400 9.7967 -0.5978
29.4600 9.8033 -0.6072
29.4800 9.8099 -0.5937
29.5000 9.8165 -0.5943
29.5200 9.8232 -0.6064
29.5400 9.8299 -0.5966
29.5600 9.8366 -0.5958
29.5800 9.8433 -0.6103
29.6000 9.8500 -0.5932
29.6200 9.8567 -0.5995
29.6400 9.8633 -0.6117
29.6600 9.8699 -0.6006
29.6800 9.8765 -0.6003
29.7000 9.8832 -0.6098
29.7200 9.8899 -0.6017
29.7400 9.8966 -0.6070
29.7600 9.9033 -0.6059
29.7800 9.9100 -0.6057
29.8000 9.9166 -0.6063
29.8200 9.9233 -0.6090
29.8400 9.9299 -0.6056
29.8600 9.9365 -0.6099
29.8800 9.9431 -0.6047
29.9000 9.9499 -0.6117
29.9200 9.9566 -0.6149
29.9400 9.9633 -0.6078
29.9600 9.9699 -0.6093
29.9800 9.9766 -0.6133
30.0000 9.9833 -0.6146
30.0200 9.9899 -0.6122
30.0400 9.9965 -0.6081
30.0600 10.0032 -0.6207
30.0800 10.0099 -0.6141
30.1000 10.0166 -0.6059
30.1200 10.0233 -0.6207
30.1400 10.0300 -0.6223
30.1600 10.0367 -0.6131
30.1800 10.0433 -0.6181
30.2000 10.0500 -0.6191
30.2200 10.0566 -0.6156
30.2400 10.0632 -0.6277
30.2600 10.0699 -0.6102
30.2800 10.0766 -0.6168
30.3000 10.0833 -0.6275
30.3200 10.0900 -0.6154
30.3400 10.0967 -0.6210
30.3600 10.1034 -0.6277
30.3800 10.1100 -0.6114
30.4000 10.1165 -0.6216
30.4200 10.1232 -0.6321
30.4400 10.1299 -0.6142
30.4600 10.1366 -0.6263
30.4800 10.1433 -0.6281
30.5000 10.1499 -0.6152
30.5200 10.1566 -0.6327
30.5400 10.1633 -0.6349
30.5600 10.1699 -0.6172
30.5800 10.1765 -0.6299
30.6000 10.1832 -0.6248
30.6200 10.1899 -0.6249
30.6400 10.1966 -0.6334
30.6600 10.2033 -0.6270
30.6800 10.2100 -0.6261
30.7000 10.2166 -0.6329
30.7200 10.2233 -0.6274
30.7400 10.2300 -0.6302
30.7600 10.2366 -0.6354
30.7800 10.2432 -0.6269
30.8000 10.2499 -0.6307
30.8200 10.2566 -0.6383
30.8400 10.2633 -0.6260
30.8600 10.2700 -0.6319
30.8800 10.2767 -0.6409
30.9000 10.2834 -0.6322
30.9200 10.2900 -0.6332
30.9400 10.2965 -0.6430
30.9600 10.3032 -0.6296
30.9800 10.3099 -0.6310
31.0000 10.3166 -0.6494
31.0200 10.3233 -0.6320
31.0400 10.3300 -0.6377
31.0600 10.3367 -0.6418
31.0800 10.3433 -0.6377
31.1000 10.3499 -0.6426
31.1200 10.3565 -0.6425
31.1400 10.3632 -0.6396
31.1600 10.3699 -0.6440
31.1800 10.3766 -0.6418
31.2000 10.3833 -0.6411
31.2200 10.3899 -0.6473
31.2400 10.3966 -0.6466
31.2600 10.4033 -0.6393
31.2800 10.4099 -0.6549
31.3000 10.4165 -0.6448
31.3200 10.4232 -0.6402
31.3400 10.4299 -0.6548
31.3600 10.4366 -0.6462
31.3800 10.4433 -0.6485
31.4000 10.4500 -0.6552
31.4200 10.4567 -0.6503
31.4400 10.4633 -0.6506
31.4600 10.4700 -0.6545
31.4800 10.4766 -0.6489
31.5000 10.4832 -0.6531
31.5200 10.4899 -0.6569
31.5400 10.4966 -0.6520
31.5600 10.5033 -0.6543
31.5800 10.5100 -0.6583
31.6000 10.5167 -0.6481
31.6200 10.5233 -0.6590
31.6400 10.5300 -0.6543
31.6600 10.5366 -0.6540
31.6800 10.5432 -0.6599
31.7000 10.5499 -0.6556
31.7200 10.5566 -0.6533
31.7400 10.5633 -0.6698
31.7600 10.5700 -0.6565
31.7800 10.5767 -0.6500
31.8000 10.5833 -0.6687
31.8200 10.5900 -0.6616
31.8400 10.5966 -0.6588
31.8600 10.6032 -0.6633
31.8800 10.6099 -0.6584
31.9000 10.6166 -0.6632
31.9200 10.6233 -0.6673
31.9400 10.6300 -0.6606
31.9600 10.6367 -0.6644
31.9800 10.6433 -0.6687
32.0000 10.6499 -0.6666
32.0200 10.6565 -0.6607
32.0400 10.6631 -0.6682
32.0600 10.6698 -0.6629
32.0800 10.6766 -0.6606
32.1000 10.6833 -0.6693
32.1200 10.6900 -0.6673
32.1400 10.6966 -0.6672
32.1600 10.7033 -0.6726
32.1800 10.7100 -0.6646
32.2000 10.7166 -0.6705
32.2200 10.7232 -0.6733
32.2400 10.7299 -0.6661
32.2600 10.7366 -0.6674
32.2800 10.7433 -0.6762
32.3000 10.7500 -0.6681
32.3200 10.7567 -0.6742
32.3400 10.7634 -0.6777
32.3600 10.7700 -0.6621
32.3800 10.7766 -0.6800
32.4000 10.7832 -0.6731
32.4200 10.7899 -0.6687
32.4400 10.7966 -0.6864
32.4600 10.8033 -0.6741
32.4800 10.8100 -0.6737
32.5000 10.8167 -0.6859
32.5200 10.8233 -0.6684
32.5400 10.8299 -0.6813
32.5600 10.8365 -0.6822
32.5800 10.8432 -0.6700
32.6000 10.8499 -0.6835
32.6200 10.8566 -0.6836
32.6400 10.8633 -0.6709
32.6600 10.8700 -0.6827
32.6800 10.8766 -0.6848
32.7000 10.8833 -0.6755
32.7200 10.8900 -0.6852
32.7400 10.8966 -0.6855
32.7600 10.9032 -0.6765
32.7800 10.9099 -0.6867
32.8000 10.9166 -0.6886
32.8200 10.9233 -0.6815
32.8400 10.9299 -0.6917
32.8600 10.9366 -0.6837
32.8800 10.9433 -0.6840
32.9000 10.9500 -0.6933
32.9200 10.9566 -0.6892
32.9400 10.9632 -0.6844
32.9600 10.9699 -0.6926
32.9800 10.9766 -0.6879
33.0000 10.9833 -0.6893
33.0200 10.9900 -0.6955
33.0400 10.9967 -0.6907
33.0600 11.0033 -0.6929
33.0800 11.0100 -0.6981
33.1000 11.0166 -0.6892
33.1200 11.0232 -0.6949
33.1400 11.0299 -0.6982
33.1600 11.0366 -0.6889
33.1800 11.0433 -0.6958
33.2000 11.0500 -0.7002
33.2200 11.0567 -0.6951
33.2400 11.0634 -0.7007
33.2600 11.0700 -0.7006
33.2800 11.0766 -0.6925
33.3000 11.0832 -0.7031
33.3200 11.0899 -0.6982
33.3400 11.0966 -0.7044
33.3600 11.1033 -0.7042
33.3800 11.1099 -0.6974
33.4000 11.1166 -0.7030
33.4200 11.1233 -0.7074
33.4400 11.1300 -0.6963
33.4600 11.1366 -0.7107
33.4800 11.1432 -0.7030
33.5000 11.1499 -0.6923
33.5200 11.1566 -0.7100
33.5400 11.1633 -0.7054
33.5600 11.1699 -0.6972
33.5800 11.1766 -0.7125
33.6000 11.1833 -0.7009
33.6200 11.1900 -0.7016
33.6400 11.1966 -0.7181
33.6600 11.2032 -0.7002
33.6800 11.2099 -0.6970
33.7000 11.2166 -0.7206
33.7200 11.2233 -0.7064
33.7400 11.2300 -0.6991
33.7600 11.2367 -0.7182
33.7800 11.2434 -0.7091
33.8000 11.2500 -0.7042
33.8200 11.2566 -0.7101
33.8400 11.2632 -0.7138
33.8600 11.2699 -0.7040
33.8800 11.2766 -0.7150
33.9000 11.2833 -0.7146
33.9200 11.2900 -0.7045
33.9400 11.2967 -0.7142
33.9600 11.3033 -0.7211
33.9800 11.3100 -0.7009
34.0000 11.3166 -0.7160
34.0200 11.3232 -0.7168
34.0400 11.3298 -0.7075
34.0600 11.3365 -0.7189
34.0800 11.3433 -0.7162
34.1000 11.3500 -0.7063
34.1200 11.3567 -0.7172
34.1400 11.3634 -0.7194
34.1600 11.3700 -0.7091
34.1800 11.3766 -0.7251
34.2000 11.3832 -0.7160
34.2200 11.3898 -0.7125
34.2400 11.3965 -0.7292
34.2600 11.4033 -0.7182
34.2800 11.4099 -0.7129
34.3000 11.4166 -0.7280
34.3200 11.4233 -0.7172
34.3400 11.4299 -0.7205
34.3600 11.4366 -0.7255
34.3800 11.4432 -0.7160
34.4000 11.4499 -0.7182
34.4200 11.4566 -0.7347
34.4400 11.4633 -0.7135
34.4600 11.4700 -0.7227
34.4800 11.4767 -0.7298
34.5000 11.4833 -0.7186
34.5200 11.4900 -0.7251
34.5400 11.4966 -0.7352
34.5600 11.5033 -0.7207
34.5800 11.5099 -0.7249
34.6000 11.5166 -0.7331
34.6200 11.5233 -0.7240
34.6400 11.5300 -0.7309
34.6600 11.5367 -0.7350
34.6800 11.5433 -0.7228
34.7000 11.5500 -0.7306
34.7200 11.5566 -0.7349
34.7400 11.5632 -0.7285
34.7600 11.5698 -0.7344
34.7800 11.5766 -0.7335
34.8000 11.5833 -0.7303
34.8200 11.5899 -0.7314
34.8400 11.5966 -0.7421
34.8600 11.6033 -0.7315
34.8800 11.6100 -0.7398
34.9000 11.6166 -0.7363
34.9200 11.6232 -0.7313
34.9400 11.6298 -0.7411
34.9600 11.6365 -0.7410
34.9800 11.6433 -0.7346
35.0000 11.6500 -0.7429
35.0200 11.6566 -0.7423
35.0400 11.6633 -0.7334
35.0600 11.6700 -0.7394
35.0800 11.6766 -0.7524
35.1000 11.6832 -0.7348
35.1200 11.6899 -0.7409
35.1400 11.6966 -0.7509
35.1600 11.7033 -0.7336
35.1800 11.7100 -0.7430
35.2000 11.7167 -0.7507
35.2200 11.7233 -0.7406
35.2400 11.7300 -0.7478
35.2600 11.7366 -0.7499
35.2800 11.7432 -0.7377
35.3000 11.7499 -0.7485
35.3200 11.7566 -0.7506
35.3400 11.7633 -0.7416
35.3600 11.7700 -0.7507
35.3800 11.7767 -0.7560
35.4000 11.7834 -0.7412
35.4200 11.7900 -0.7511
35.4400 11.7966 -0.7584
35.4600 11.8033 -0.7452
35.4800 11.8099 -0.7476
35.5000 11.8166 -0.7581
35.5200 11.8233 -0.7447
35.5400 11.8299 -0.7499
35.5600 11.8366 -0.7607
35.5800 11.8433 -0.7423
35.6000 11.8500 -0.7545
35.6200 11.8566 -0.7603
35.6400 11.8632 -0.7465
35.6600 11.8698 -0.7533
35.6800 11.8765 -0.7577
35.7000 11.8832 -0.7488
35.7200 11.8899 -0.7606
35.7400 11.8966 -0.7553
35.7600 11.9033 -0.7515
35.7800 11.9100 -0.7622
35.8000 11.9166 -0.7532
35.8200 11.9232 -0.7528
35.8400 11.9299 -0.7659
35.8600 11.9366 -0.7472
35.8800 11.9433 -0.7570
35.9000 11.9500 -0.7669
35.9200 11.9566 -0.7489
35.9400 11.9633 -0.7579
35.9600 11.9700 -0.7670
35.9800 11.9766 -0.7522
36.0000 11.9833 -0.7627
36.0200 11.9899 -0.7694
36.0400 11.9966 -0.7470
36.0600 12.0033 -0.7631
36.0800 12.0100 -0.7659
36.1000 12.0166 -0.7553
36.1200 12.0233 -0.7644
36.1400 12.0300 -0.7663
36.1600 12.0366 -0.7560
36.1800 12.0432 -0.7665
36.2000 12.0499 -0.7598
36.2200 12.0566 -0.7575
36.2400 12.0633 -0.7684
36.2600 12.0700 -0.7657
36.2800 12.0766 -0.7581
36.3000 12.0833 -0.7696
36.3200 12.0900 -0.7659
36.3400 12.0966 -0.7601
36.3600 12.1032 -0.7683
36.3800 12.1098 -0.7639
36.4000 12.1165 -0.7664
36.4200 12.1232 -0.7725
36.4400 12.1299 -0.7613
36.4600 12.1366 -0.7668
36.4800 12.1433 -0.7728
36.5000 12.1500 -0.7673
36.5200 12.1566 -0.7717
36.5400 12.1632 -0.7683
36.5600 12.1699 -0.7636
36.5800 12.1766 -0.7744
36.6000 12.1833 -0.7741
36.6200 12.1900 -0.7656
36.6400 12.1967 -0.7782
36.6600 12.2034 -0.7707
36.6800 12.2100 -0.7689
36.7000 12.2167 -0.7834
36.7200 12.2233 -0.7757
36.7400 12.2299 -0.7660
36.7600 12.2366 -0.7838
36.7800 12.2433 -0.7737
36.8000 12.2500 -0.7751
36.8200 12.2567 -0.7809
36.8400 12.2633 -0.7741
36.8600 12.2700 -0.7803
36.8800 12.2766 -0.7807
36.9000 12.2832 -0.7771
36.9200 12.2898 -0.7798
36.9400 12.2965 -0.7842
36.9600 12.3032 -0.7805
36.9800 12.3099 -0.7788
37.0000 12.3166 -0.7822
37.0200 12.3233 -0.7879
37.0400 12.3300 -0.7780
37.0600 12.3366 -0.7840
37.0800 12.3432 -0.7891
37.1000 12.3498 -0.7816
37.1200 12.3565 -0.7789
37.1400 12.3632 -0.7935
37.1600 12.3699 -0.7835
37.1800 12.3766 -0.7827
37.2000 12.3833 -0.7966
37.2200 12.3900 -0.7861
37.2400 12.3966 -0.7830
37.2600 12.4032 -0.7972
37.2800 12.4099 -0.7825
37.3000 12.4165 -0.7889
37.3200 12.4233 -0.7955
37.3400 12.4300 -0.7878
37.3600 12.4366 -0.7928
37.3800 12.4433 -0.7932
37.4000 12.4500 -0.7935
37.4200 12.4567 -0.8020
37.4400 12.4633 -0.7931
37.4600 12.4699 -0.7919
37.4800 12.4766 -0.8017
37.5000 12.4833 -0.7873
37.5200 12.4900 -0.8040
37.5400 12.4967 -0.8008
37.5600 12.5033 -0.7907
37.5800 12.5100 -0.8038
37.6000 12.5167 -0.8028
37.6200 12.5232 -0.7973
37.6400 12.5298 -0.8074
37.6600 12.5365 -0.7982
37.6800 12.5432 -0.7981
37.7000 12.5499 -0.8039
37.7200 12.5566 -0.8031
37.7400 12.5633 -0.8030
37.7600 12.5700 -0.8079
37.7800 12.5766 -0.8010
37.8000 12.5832 -0.8044
37.8200 12.5898 -0.8109
37.8400 12.5965 -0.7997
37.8600 12.6032 -0.8059
37.8800 12.6099 -0.8091
37.9000 12.6166 -0.8051
37.9200 12.6233 -0.8068
37.9400 12.6300 -0.8110
37.9600 12.6366 -0.8061
37.9800 12.6432 -0.8091
38.0000 12.6499 -0.8087
38.0200 12.6565 -0.8089
38.0400 12.6633 -0.8094
38.0600 12.6700 -0.8108
38.0800 12.6767 -0.8103
38.1000 12.6833 -0.8165
38.1200 12.6900 -0.8098
38.1400 12.6967 -0.8150
38.1600 12.7033 -0.8158
38.1800 12.7099 -0.8096
38.2000 12.7165 -0.8150
38.2200 12.7232 -0.8213
38.2400 12.7300 -0.8105
38.2600 12.7367 -0.8154
38.2800 12.7433 -0.8204
38.3000 12.7500 -0.8136
38.3200 12.7567 -0.8201
38.3400 12.7633 -0.8213
38.3600 12.7699 -0.8111
38.3800 12.7765 -0.8168
38.4000 12.7832 -0.8281
38.4200 12.7899 -0.8143
38.4400 12.7966 -0.8221
38.4600 12.8033 -0.8247
38.4800 12.8100 -0.8193
38.5000 12.8166 -0.8247
38.5200 12.8232 -0.8296
38.5400 12.8298 -0.8130
38.5600 12.8365 -0.8275
38.5800 12.8432 -0.8324
38.6000 12.8499 -0.8178
38.6200 12.8566 -0.8290
38.6400 12.8633 -0.8327
38.6600 12.8700 -0.8159
38.6800 12.8766 -0.8357
38.7000 12.8832 -0.8315
38.7200 12.8899 -0.8197
38.7400 12.8965 -0.8342
38.7600 12.9033 -0.8315
38.7800 12.9100 -0.8215
38.8000 12.9167 -0.8358
38.8200 12.9233 -0.8301
38.8400 12.9300 -0.8254
38.8600 12.9367 -0.8379
38.8800 12.9433 -0.8270
38.9000 12.9499 -0.8306
38.9200 12.9566 -0.8365
38.9400 12.9633 -0.8268
38.9600 12.9700 -0.8312
38.9800 12.9767 -0.8346
39.0000 12.9833 -0.8346
39.0200 12.9900 -0.8380
39.0400 12.9967 -0.8342
39.0600 13.0033 -0.8379
39.0800 13.0099 -0.8355
39.1000 13.0165 -0.8387
39.1200 13.0232 -0.8366
39.1400 13.0299 -0.8406
39.1600 13.0366 -0.8378
39.1800 13.0433 -0.8357
39.2000 13.0500 -0.8415
39.2200 13.0566 -0.8400
39.2400 13.0632 -0.8391
39.2600 13.0698 -0.8398
39.2800 13.0765 -0.8383
39.3000 13.0832 -0.8359
39.3200 13.0899 -0.8462
39.3400 13.0966 -0.8422
39.3600 13.1033 -0.8415
39.3800 13.1100 -0.8455
39.4000 13.1166 -0.8449
39.4200 13.1233 -0.8443
39.4400 13.1299 -0.8469
39.4600 13.1366 -0.8449
39.4800 13.1433 -0.8466
39.5000 13.1500 -0.8464
39.5200 13.1566 -0.8458
39.5400 13.1633 -0.8478
39.5600 13.1700 -0.8558
39.5800 13.1767 -0.8417
39.6000 13.1833 -0.8524
39.6200 13.1899 -0.8505
39.6400 13.1965 -0.8455
39.6600 13.2032 -0.8544
39.6800 13.2099 -0.8498
39.7000 13.2166 -0.8518
39.7200 13.2233 -0.8515
39.7400 13.2300 -0.8510
39.7600 13.2367 -0.8535
39.7800 13.2433 -0.8593
39.8000 13.2499 -0.8511
39.8200 13.2565 -0.8527
39.8400 13.2632 -0.8634
39.8600 13.2700 -0.8555
39.8800 13.2767 -0.8543
39.9000 13.2834 -0.8616
39.9200 13.2900 -0.8545
39.9400 13.2967 -0.8565
39.9600 13.3033 -0.8621
39.9800 13.3099 -0.8630
40.0000 13.3165 -0.8521
40.0200 13.3232 -0.8654
40.0400 13.3299 -0.8628
40.0600 13.3366 -0.8565
40.0800 13.3432 -0.8663
40.1000 13.3499 -0.8655
40.1200 13.3566 -0.8588
40.1400 13.3632 -0.8689
40.1600 13.3698 -0.8669
40.1800 13.3765 -0.8563
40.2000 13.3832 -0.8679
40.2200 13.3900 -0.8666
40.2400 13.3967 -0.8641
40.2600 13.4034 -0.8767
40.2800 13.4101 -0.8660
40.3000 13.4167 -0.8619
40.3200 13.4233 -0.8771
40.3400 13.4299 -0.8599
40.3600 13.4365 -0.8679
40.3800 13.4433 -0.8740
40.4000 13.4500 -0.8669
40.4200 13.4567 -0.8646
40.4400 13.4633 -0.8805
40.4600 13.4700 -0.8677
40.4800 13.4767 -0.8703
40.5000 13.4833 -0.8785
40.5200 13.4899 -0.8694
40.5400 13.4965 -0.8702
40.5600 13.5032 -0.8776
40.5800 13.5099 -0.8702
40.6000 13.5166 -0.8724
40.6200 13.5233 -0.8828
40.6400 13.5300 -0.8697
40.6600 13.5366 -0.8756
40.6800 13.5433 -0.8802
40.7000 13.5499 -0.8686
40.7200 13.5565 -0.8731
40.7400 13.5632 -0.8805
40.7600 13.5699 -0.8709
40.7800 13.5766 -0.8794
40.8000 13.5833 -0.8808
40.8200 13.5899 -0.8744
40.8400 13.5966 -0.8809
40.8600 13.6032 -0.8834
40.8800 13.6098 -0.8711
40.9000 13.6165 -0.8823
40.9200 13.6232 -0.8839
40.9400 13.6300 -0.8787
40.9600 13.6366 -0.8804
40.9800 13.6433 -0.8873
41.0000 13.6500 -0.8736
41.0200 13.6567 -0.8810
41.0400 13.6634 -0.8872
41.0600 13.6700 -0.8764
41.0800 13.6766 -0.8890
41.1000 13.6833 -0.8857
41.1200 13.6900 -0.8785
41.1400 13.6966 -0.8890
41.1600 13.7033 -0.8879
41.1800 13.7100 -0.8827
41.2000 13.7167 -0.8879
41.2200 13.7233 -0.8883
41.2400 13.7299 -0.8895
41.2600 13.7365 -0.8860
41.2800 13.7432 -0.8885
41.3000 13.7499 -0.8854
41.3200 13.7566 -0.8891
41.3400 13.7633 -0.8878
41.3600 13.7700 -0.8912
41.3800 13.7766 -0.8872
41.4000 13.7833 -0.8920
41.4200 13.7899 -0.8958
41.4400 13.7965 -0.8879
41.4600 13.8032 -0.8906
41.4800 13.8099 -0.8967
41.5000 13.8166 -0.8835
41.5200 13.8233 -0.8973
41.5400 13.8300 -0.8979
41.5600 13.8366 -0.8886
41.5800 13.8433 -0.8971
41.6000 13.8499 -0.8998
41.6200 13.8565 -0.8950
41.6400 13.8632 -0.8967
41.6600 13.8699 -0.9004
41.6800 13.8766 -0.8930
41.7000 13.8833 -0.9018
41.7200 13.8900 -0.8994
41.7400 13.8967 -0.8997
41.7600 13.9034 -0.9031
41.7800 13.9099 -0.9002
41.8000 13.9166 -0.9001
41.8200 13.9232 -0.9057
41.8400 13.9300 -0.9039
41.8600 13.9367 -0.9040
41.8800 13.9434 -0.9062
41.9000 13.9500 -0.9052
41.9200 13.9567 -0.9017
41.9400 13.9633 -0.9094
41.9600 13.9699 -0.9024
41.9800 13.9765 -0.9046
42.0000 13.9832 -0.9081
42.0200 13.9899 -0.9108
42.0400 13.9966 -0.9042
42.0600 14.0033 -0.9077
42.0800 14.0100 -0.9110
42.1000 14.0166 -0.9063
42.1200 14.0233 -0.9123
42.1400 14.0299 -0.9134
42.1600 14.0365 -0.9052
42.1800 14.0432 -0.9116
42.2000 14.0499 -0.9136
42.2200 14.0566 -0.9092
42.2400 14.0633 -0.9179
42.2600 14.0700 -0.9102
42.2800 14.0767 -0.9091
42.3000 14.0833 -0.9132
42.3200 14.0899 -0.9185
42.3400 14.0965 -0.9126
42.3600 14.1032 -0.9214
42.3800 14.1099 -0.9101
42.4000 14.1166 -0.9136
42.4200 14.1233 -0.9220
42.4400 14.1300 -0.9122
42.4600 14.1367 -0.9179
42.4800 14.1433 -0.9198
42.5000 14.1499 -0.9114
42.5200 14.1566 -0.9210
42.5400 14.1633 -0.9189
42.5600 14.1700 -0.9152
42.5800 14.1767 -0.9255
42.6000 14.1833 -0.9192
42.6200 14.1900 -0.9187
42.6400 14.1967 -0.9238
42.6600 14.2033 -0.9183
42.6800 14.2099 -0.9178
42.7000 14.2165 -0.9313
42.7200 14.2232 -0.9204
42.7400 14.2299 -0.9194
42.7600 14.2366 -0.9244
42.7800 14.2433 -0.9206
42.8000 14.2500 -0.9253
42.8200 14.2567 -0.9247
42.8400 14.2633 -0.9189
42.8600 14.2699 -0.9299
42.8800 14.2765 -0.9215
42.9000 14.2832 -0.9220
42.9200 14.2899 -0.9263
42.9400 14.2966 -0.9297
42.9600 14.3033 -0.9216
42.9800 14.3100 -0.9284
43.0000 14.3166 -0.9295
43.0200 14.3233 -0.9261
43.0400 14.3299 -0.9305
43.0600 14.3366 -0.9259
43.0800 14.3432 -0.9277
43.1000 14.3499 -0.9318
43.1200 14.3566 -0.9302
43.1400 14.3633 -0.9330
43.1600 14.3700 -0.9313
43.1800 14.3767 -0.9280
43.2000 14.3833 -0.9397
43.2200 14.3899 -0.9328
43.2400 14.3965 -0.9281
43.2600 14.4032 -0.9348
43.2800 14.4099 -0.9342
43.3000 14.4166 -0.9286
43.3200 14.4233 -0.9417
43.3400 14.4300 -0.9322
43.3600 14.4367 -0.9315
43.3800 14.4434 -0.9420
43.4000 14.4499 -0.9350
43.4200 14.4565 -0.9347
43.4400 14.4632 -0.9456
43.4600 14.4699 -0.9371
43.4800 14.4766 -0.9357
43.5000 14.4833 -0.9422
43.5200 14.4900 -0.9380
43.5400 14.4966 -0.9456
43.5600 14.5033 -0.9402
43.5800 14.5099 -0.9373
43.6000 14.5165 -0.9490
43.6200 14.5232 -0.9412
43.6400 14.5299 -0.9357
43.6600 14.5366 -0.9541
43.6800 14.5432 -0.9386
43.7000 14.5499 -0.9393
43.7200 14.5566 -0.9528
43.7400 14.5633 -0.9419
43.7600 14.5699 -0.9463
43.7800 14.5766 -0.9526
43.8000 14.5832 -0.9400
43.8200 14.5899 -0.9518
43.8400 14.5966 -0.9509
43.8600 14.6033 -0.9426
43.8800 14.6100 -0.9580
43.9000 14.6167 -0.9512
43.9200 14.6233 -0.9402
43.9400 14.6299 -0.9571
43.9600 14.6365 -0.9500
43.9800 14.6432 -0.9430
44.0000 14.6499 -0.9572
44.0200 14.6566 -0.9523
44.0400 14.6633 -0.9515
44.0600 14.6699 -0.9570
44.0800 14.6766 -0.9548
44.1000 14.6833 -0.9540
44.1200 14.6900 -0.9612
44.1400 14.6966 -0.9485
44.1600 14.7032 -0.9567
44.1800 14.7099 -0.9616
44.2000 14.7166 -0.9562
44.2200 14.7233 -0.9577
44.2400 14.7300 -0.9638
44.2600 14.7367 -0.9548
44.2800 14.7433 -0.9602
44.3000 14.7499 -0.9646
44.3200 14.7565 -0.9540
44.3400 14.7631 -0.9584
44.3600 14.7698 -0.9637
44.3800 14.7766 -0.9575
44.4000 14.7832 -0.9624
44.4200 14.7899 -0.9670
44.4400 14.7966 -0.9603
44.4600 14.8033 -0.9646
44.4800 14.8099 -0.9675
44.5000 14.8165 -0.9565
44.5200 14.8232 -0.9704
44.5400 14.8299 -0.9687
44.5600 14.8366 -0.9566
44.5800 14.8433 -0.9748
44.6000 14.8500 -0.9624
44.6200 14.8567 -0.9637
44.6400 14.8634 -0.9757
44.6600 14.8700 -0.9662
44.6800 14.8766 -0.9635
44.7000 14.8833 -0.9752
44.7200 14.8900 -0.9644
44.7400 14.8967 -0.9728
44.7600 14.9033 -0.9720
44.7800 14.9100 -0.9669
44.8000 14.9167 -0.9723
44.8200 14.9234 -0.9694
44.8400 14.9300 -0.9696
44.8600 14.9365 -0.9774
44.8800 14.9431 -0.9733
44.9000 14.9498 -0.9660
44.9200 14.9565 -0.9776
44.9400 14.9633 -0.9742
44.9600 14.9700 -0.9711
44.9800 14.9767 -0.9782
45.0000 14.9833 -0.9764
45.0200 14.9899 -0.9759
45.0400 14.9965 -0.9771
45.0600 15.0032 -0.9711
45.0800 15.0099 -0.9829
45.1000 15.0166 -0.9778
45.1200 15.0233 -0.9767
45.1400 15.0299 -0.9776
45.1600 15.0366 -0.9763
45.1800 15.0433 -0.9813
45.2000 15.0500 -0.9831
45.2200 15.0566 -0.9752
45.2400 15.0633 -0.9821
45.2600 15.0699 -0.9829
45.2800 15.0766 -0.9790
45.3000 15.0833 -0.9856
45.3200 15.0900 -0.9868
45.3400 15.0967 -0.9788
45.3600 15.1034 -0.9855
45.3800 15.1100 -0.9884
45.4000 15.1166 -0.9847
45.4200 15.1232 -0.9857
45.4400 15.1299 -0.9867
45.4600 15.1366 -0.9864
45.4800 15.1433 -0.9933
45.5000 15.1500 -0.9896
45.5200 15.1567 -0.9876
45.5400 15.1633 -0.9950
45.5600 15.1700 -0.9913
45.5800 15.1765 -0.9925
45.6000 15.1832 -0.9908
45.6200 15.1899 -0.9953
45.6400 15.1966 -0.9949
45.6600 15.2033 -0.9974
45.6800 15.2099 -1.0000
45.7000 15.2166 -0.9968
45.7200 15.2233 -0.9910
45.7400 15.2299 -1.0039
45.7600 15.2366 -1.0003
45.7800 15.2432 -0.9959
45.8000 15.2499 -1.0009
45.8200 15.2566 -0.9976
45.8400 15.2632 -0.9996
45.8600 15.2699 -1.0066
45.8800 15.2766 -0.9987
45.9000 15.2833 -1.0039
45.9200 15.2900 -1.0048
45.9400 15.2966 -0.9993
45.9600 15.3032 -1.0056
45.9800 15.3099 -1.0079
46.0000 15.3166 -1.0019
46.0200 15.3233 -1.0041
46.0400 15.3300 -1.0091
46.0600 15.3367 -1.0018
46.0800 15.3433 -1.0154
46.1000 15.3500 -1.0100
46.1200 15.3566 -1.0001
46.1400 15.3632 -1.0135
46.1600 15.3699 -1.0122
46.1800 15.3766 -1.0068
46.2000 15.3833 -1.0171
46.2200 15.3900 -1.0128
46.2400 15.3967 -1.0037
46.2600 15.4034 -1.0160
46.2800 15.4100 -1.0193
46.3000 15.4166 -1.0064
46.3200 15.4232 -1.0156
46.3400 15.4299 -1.0141
46.3600 15.4366 -1.0054
46.3800 15.4433 -1.0233
46.4000 15.4500 -1.0193
46.4200 15.4567 -1.0125
46.4400 15.4633 -1.0240
46.4600 15.4699 -1.0176
46.4800 15.4765 -1.0127
46.5000 15.4831 -1.0286
46.5200 15.4898 -1.0170
46.5400 15.4965 -1.0147
46.5600 15.5033 -1.0249
46.5800 15.5100 -1.0193
46.6000 15.5166 -1.0187
46.6200 15.5233 -1.0272
46.6400 15.5300 -1.0175
46.6600 15.5366 -1.0232
46.6800 15.5432 -1.0265
46.7000 15.5499 -1.0205
46.7200 15.5566 -1.0244
46.7400 15.5633 -1.0254
46.7600 15.5700 -1.0229
46.7800 15.5767 -1.0260
46.8000 15.5834 -1.0273
46.8200 15.5900 -1.0282
46.8400 15.5966 -1.0269
46.8600 15.6032 -1.0256
46.8800 15.6099 -1.0318
46.9000 15.6166 -1.0257
46.9200 15.6233 -1.0280
46.9400 15.6300 -1.0284
46.9600 15.6367 -1.0277
46.9800 15.6434 -1.0328
47.0000 15.6500 -1.0312
47.0200 15.6566 -1.0215
47.0400 15.6632 -1.0354
47.0600 15.6699 -1.0300
47.0800 15.6766 -1.0297
47.1000 15.6833 -1.0378
47.1200 15.6900 -1.0346
47.1400 15.6967 -1.0272
47.1600 15.7033 -1.0440
47.1800 15.7100 -1.0346
47.2000 15.7166 -1.0266
47.2200 15.7232 -1.0431
47.2400 15.7299 -1.0308
47.2600 15.7366 -1.0280
47.2800 15.7433 -1.0434
47.3000 15.7499 -1.0332
47.3200 15.7566 -1.0313
47.3400 15.7633 -1.0447
47.3600 15.7700 -1.0338
47.3800 15.7766 -1.0346
47.4000 15.7832 -1.0425
47.4200 15.7899 -1.0318
47.4400 15.7966 -1.0360
47.4600 15.8033 -1.0508
47.4800 15.8100 -1.0316
47.5000 15.8167 -1.0357
47.5200 15.8233 -1.0496
47.5400 15.8300 -1.0392
47.5600 15.8366 -1.0343
47.5800 15.8432 -1.0509
47.6000 15.8499 -1.0373
47.6200 15.8566 -1.0416
47.6400 15.8633 -1.0531
47.6600 15.8700 -1.0366
47.6800 15.8767 -1.0414
47.7000 15.8834 -1.0529
47.7200 15.8900 -1.0406
47.7400 15.8966 -1.0406
47.7600 15.9032 -1.0504
47.7800 15.9099 -1.0401
47.8000 15.9166 -1.0428
47.8200 15.9233 -1.0558
47.8400 15.9300 -1.0425
47.8600 15.9366 -1.0406
47.8800 15.9433 -1.0526
47.9000 15.9500 -1.0414
47.9200 15.9566 -1.0483
47.9400 15.9632 -1.0535
47.9600 15.9698 -1.0463
47.9800 15.9765 -1.0430
48.0000 15.9833 -1.0572
48.0200 15.9900 -1.0495
48.0400 15.9966 -1.0497
48.0600 16.0033 -1.0557
48.0800 16.0100 -1.0513
48.1000 16.0166 -1.0514
48.1200 16.0232 -1.0533
48.1400 16.0299 -1.0499
48.1600 16.0366 -1.0546
48.1800 16.0434 -1.0569
48.2000 16.0500 -1.0527
48.2200 16.0567 -1.0551
48.2400 16.0634 -1.0567
48.2600 16.0700 -1.0564
48.2800 16.0766 -1.0573
48.3000 16.0832 -1.0599
48.3200 16.0899 -1.0533
48.3400 16.0966 -1.0593
48.3600 16.1033 -1.0597
48.3800 16.1100 -1.0580
48.4000 16.1167 -1.0570
48.4200 16.1234 -1.0624
48.4400 16.1300 -1.0600
48.4600 16.1366 -1.0616
48.4800 16.1432 -1.0607
48.5000 16.1498 -1.0604
48.5200 16.1565 -1.0605
48.5400 16.1632 -1.0671
48.5600 16.1699 -1.0626
48.5800 16.1766 -1.0647
48.6000 16.1833 -1.0636
48.6200 16.1900 -1.0666
48.6400 16.1966 -1.0649
48.6600 16.2032 -1.0650
48.6800 16.2098 -1.0697
48.7000 16.2165 -1.0630
48.7200 16.2233 -1.0638
48.7400 16.2299 -1.0724
48.7600 16.2366 -1.0680
48.7800 16.2433 -1.0652
48.8000 16.2500 -1.0726
48.8200 16.2566 -1.0659
48.8400 16.2632 -1.0724
48.8600 16.2699 -1.0735
48.8800 16.2766 -1.0729
48.9000 16.2833 -1.0697
48.9200 16.2900 -1.0718
48.9400 16.2966 -1.0702
48.9600 16.3034 -1.0738
48.9800 16.3100 -1.0739
49.0000 16.3167 -1.0760
49.0200 16.3232 -1.0726
49.0400 16.3299 -1.0775
49.0600 16.3366 -1.0706
49.0800 16.3433 -1.0735
49.1000 16.3500 -1.0817
49.1200 16.3567 -1.0768
49.1400 16.3633 -1.0714
49.1600 16.3700 -1.0797
49.1800 16.3766 -1.0824
49.2000 16.3832 -1.0768
49.2200 16.3898 -1.0749
49.2400 16.3966 -1.0770
49.2600 16.4033 -1.0808
49.2800 16.4099 -1.0784
49.3000 16.4166 -1.0850
49.3200 16.4233 -1.0764
49.3400 16.4299 -1.0831
49.3600 16.4366 -1.0848
49.3800 16.4432 -1.0782
49.4000 16.4498 -1.0800
49.4200 16.4565 -1.0961
49.4400 16.4632 -1.0852
49.4600 16.4699 -1.0751
49.4800 16.4766 -1.0877
49.5000 16.4833 -1.0933
49.5200 16.4900 -1.0806
49.5400 16.4967 -1.0907
49.5600 16.5032 -1.0843
49.5800 16.5099 -1.0794
49.6000 16.5166 -1.1008
49.6200 16.5233 -1.0882
49.6400 16.5300 -1.0812
49.6600 16.5367 -1.1013
49.6800 16.5433 -1.0869
49.7000 16.5500 -1.0822
49.7200 16.5566 -1.1032
49.7400 16.5632 -1.0922
49.7600 16.5699 -1.0861
49.7800 16.5766 -1.1003
49.8000 16.5833 -1.0889
49.8200 16.5900 -1.0942
49.8400 16.5966 -1.1083
49.8600 16.6033 -1.0851
49.8800 16.6100 -1.0992
49.9000 16.6167 -1.1097
49.9200 16.6233 -1.0905
49.9400 16.6299 -1.0966
49.9600 16.6366 -1.1062
49.9800 16.6433 -1.0919
50.0000 16.6500 -1.1008
50.0200 16.6567 -1.1008
50.0400 16.6633 -1.0952
50.0600 16.6700 -1.1100
50.0800 16.6766 -1.1051
50.1000 16.6832 -1.0957
50.1200 16.6898 -1.1033
50.1400 16.6965 -1.1081
50.1600 16.7032 -1.1061
50.1800 16.7099 -1.1030
50.2000 16.7166 -1.1036
50.2200 16.7233 -1.1113
50.2400 16.7300 -1.1022
50.2600 16.7366 -1.1071
50.2800 16.7432 -1.1126
50.3000 16.7499 -1.1032
50.3200 16.7566 -1.1041
50.3400 16.7633 -1.1191
50.3600 16.7700 -1.1035
50.3800 16.7766 -1.1120
50.4000 16.7833 -1.1198
50.4200 16.7900 -1.1061
50.4400 16.7967 -1.1135
50.4600 16.8033 -1.1252
50.4800 16.8099 -1.1049
50.5000 16.8166 -1.1166
50.5200 16.8233 -1.1262
50.5400 16.8300 -1.1077
50.5600 16.8367 -1.1214
50.5800 16.8434 -1.1261
50.6000 16.8500 -1.1098
50.6200 16.8567 -1.1264
50.6400 16.8632 -1.1259
50.6600 16.8699 -1.1070
50.6800 16.8765 -1.1323
50.7000 16.8833 -1.1264
50.7200 16.8900 -1.1125
50.7400 16.8967 -1.1303
50.7600 16.9033 -1.1262
50.7800 16.9100 -1.1127
50.8000 16.9166 -1.1351
50.8200 16.9232 -1.1224
50.8400 16.9298 -1.1165
50.8600 16.9365 -1.1370
50.8800 16.9432 -1.1190
50.9000 16.9499 -1.1237
50.9200 16.9566 -1.1458
50.9400 16.9633 -1.1164
50.9600 16.9699 -1.1242
50.9800 16.9766 -1.1456
51.0000 16.9832 -1.1248
51.0200 16.9899 -1.1256
51.0400 16.9965 -1.1376
51.0600 17.0032 -1.1274
51.0800 17.0100 -1.1370
51.1000 17.0166 -1.1392
51.1200 17.0233 -1.1249
51.1400 17.0300 -1.1377
51.1600 17.0367 -1.1391
51.1800 17.0432 -1.1278
51.2000 17.0499 -1.1378
51.2200 17.0566 -1.1431
51.2400 17.0633 -1.1298
51.2600 17.0700 -1.1444
51.2800 17.0766 -1.1426
51.3000 17.0833 -1.1367
51.3200 17.0900 -1.1429
51.3400 17.0966 -1.1451
51.3600 17.1032 -1.1350
51.3800 17.1099 -1.1484
51.4000 17.1165 -1.1422
51.4200 17.1232 -1.1439
51.4400 17.1299 -1.1447
51.4600 17.1366 -1.1446
51.4800 17.1433 -1.1448
51.5000 17.1500 -1.1482
51.5200 17.1566 -1.1498
51.5400 17.1632 -1.1469
51.5600 17.1698 -1.1431
51.5800 17.1765 -1.1516
51.6000 17.1832 -1.1507
51.6200 17.1899 -1.1471
51.6400 17.1966 -1.1578
51.6600 17.2033 -1.1470
51.6800 17.2100 -1.1468
51.7000 17.2166 -1.1594
51.7200 17.2232 -1.1506
51.7400 17.2299 -1.1478
51.7600 17.2365 -1.1593
51.7800 17.2432 -1.1494
51.8000 17.2499 -1.1572
51.8200 17.2566 -1.1578
51.8400 17.2633 -1.1518
51.8600 17.2700 -1.1563
51.8800 17.2767 -1.1676
51.9000 17.2833 -1.1495
51.9200 17.2899 -1.1556
51.9400 17.2966 -1.1693
51.9600 17.3033 -1.1524
51.9800 17.3100 -1.1581
52.0000 17.3167 -1.1673
52.0200 17.3234 -1.1579
52.0400 17.3300 -1.1615
52.0600 17.3367 -1.1664
52.0800 17.3432 -1.1605
52.1000 17.3498 -1.1690
52.1200 17.3565 -1.1642
52.1400 17.3632 -1.1629
52.1600 17.3700 -1.1689
52.1800 17.3767 -1.1661
52.2000 17.3834 -1.1660
52.2200 17.3900 -1.1704
52.2400 17.3966 -1.1685
52.2600 17.4032 -1.1736
52.2800 17.4098 -1.1659
52.3000 17.4165 -1.1696
52.3200 17.4232 -1.1738
52.3400 17.4299 -1.1728
52.3600 17.4366 -1.1728
52.3800 17.4432 -1.1778
52.4000 17.4499 -1.1740
52.4200 17.4566 -1.1753
52.4400 17.4633 -1.1755
52.4600 17.4699 -1.1741
52.4800 17.4766 -1.1809
52.5000 17.4833 -1.1791
52.5200 17.4900 -1.1774
52.5400 17.4967 -1.1828
52.5600 17.5033 -1.1784
52.5800 17.5100 -1.1760
52.6000 17.5167 -1.1900
52.6200 17.5233 -1.1776
52.6400 17.5299 -1.1788
52.6600 17.5365 -1.1874
52.6800 17.5433 -1.1840
52.7000 17.5500 -1.1815
52.7200 17.5566 -1.1867
52.7400 17.5633 -1.1829
52.7600 17.5700 -1.1878
52.7800 17.5767 -1.1886
52.8000 17.5833 -1.1880
52.8200 17.5899 -1.1891
52.8400 17.5965 -1.1913
52.8600 17.6032 -1.1840
52.8800 17.6100 -1.1958
52.9000 17.6166 -1.1919
52.9200 17.6233 -1.1858
52.9400 17.6300 -1.1930
52.9600 17.6366 -1.1923
52.9800 17.6433 -1.1949
53.0000 17.6499 -1.1964
53.0200 17.6565 -1.1922
53.0400 17.6632 -1.1934
53.0600 17.6699 -1.1958
53.0800 17.6766 -1.1936
53.1000 17.6833 -1.1975
53.1200 17.6899 -1.1964
53.1400 17.6966 -1.2000
53.1600 17.7033 -1.1992
53.1800 17.7099 -1.1942
53.2000 17.7165 -1.1976
53.2200 17.7233 -1.2071
53.2400 17.7300 -1.1961
53.2600 17.7367 -1.1934
53.2800 17.7434 -1.2026
53.3000 17.7500 -1.2062
53.3200 17.7567 -1.1963
53.3400 17.7633 -1.2036
53.3600 17.7699 -1.2067
53.3800 17.7765 -1.1952
53.4000 17.7833 -1.2013
53.4200 17.7900 -1.2087
53.4400 17.7967 -1.2061
53.4600 17.8033 -1.2060
53.4800 17.8100 -1.2070
53.5000 17.8167 -1.2031
53.5200 17.8233 -1.2145
53.5400 17.8299 -1.2060
53.5600 17.8365 -1.2022
53.5800 17.8432 -1.2123
53.6000 17.8499 -1.2095
53.6200 17.8566 -1.1999
53.6400 17.8633 -1.2176
53.6600 17.8700 -1.2106
53.6800 17.8766 -1.2027
53.7000 17.8833 -1.2177
53.7200 17.8899 -1.2114
53.7400 17.8965 -1.2056
53.7600 17.9032 -1.2245
53.7800 17.9099 -1.2107
53.8000 17.9166 -1.2080
53.8200 17.9233 -1.2252
53.8400 17.9300 -1.2136
53.8600 17.9366 -1.2201
53.8800 17.9433 -1.2205
53.9000 17.9499 -1.2102
53.9200 17.9565 -1.2172
53.9400 17.9632 -1.2227
53.9600 17.9700 -1.2137
53.9800 17.9766 -1.2248
54.0000 17.9833 -1.2243
54.0200 17.9900 -1.2161
54.0400 17.9967 -1.2241
54.0600 18.0033 -1.2267
54.0800 18.0099 -1.2182
54.1000 18.0165 -1.2292
54.1200 18.0232 -1.2239
54.1400 18.0299 -1.2285
54.1600 18.0366 -1.2290
54.1800 18.0433 -1.2313
54.2000 18.0500 -1.2283
54.2200 18.0567 -1.2277
54.2400 18.0633 -1.2371
54.2600 18.0699 -1.2329
54.2800 18.0765 -1.2234
54.3000 18.0833 -1.2353
54.3200 18.0900 -1.2406
54.3400 18.0966 -1.2278
54.3600 18.1033 -1.2376
54.3800 18.1100 -1.2404
54.4000 18.1167 -1.2305
54.4200 18.1233 -1.2388
54.4400 18.1299 -1.2413
54.4600 18.1365 -1.2294
54.4800 18.1432 -1.2429
54.5000 18.1499 -1.2419
54.5200 18.1566 -1.2358
54.5400 18.1632 -1.2385
54.5600 18.1699 -1.2436
54.5800 18.1766 -1.2376
54.6000 18.1833 -1.2474
54.6200 18.1899 -1.2456
54.6400 18.1965 -1.2400
54.6600 18.2032 -1.2472
54.6800 18.2099 -1.2455
54.7000 18.2167 -1.2425
54.7200 18.2233 -1.2524
54.7400 18.2300 -1.2460
54.7600 18.2367 -1.2464
54.7800 18.2433 -1.2491
54.8000 18.2499 -1.2501
54.8200 18.2565 -1.2421
54.8400 18.2632 -1.2539
54.8600 18.2700 -1.2552
54.8800 18.2767 -1.2452
54.9000 18.2834 -1.2553
54.9200 18.2900 -1.2528
54.9400 18.2967 -1.2525
54.9600 18.3033 -1.2547
54.9800 18.3099 -1.2583
55.0000 18.3165 -1.2447
55.0200 18.3232 -1.2588
55.0400 18.3299 -1.2651
55.0600 18.3366 -1.2531
55.0800 18.3433 -1.2616
55.1000 18.3500 -1.2651
55.1200 18.3567 -1.2490
55.1400 18.3633 -1.2656
55.1600 18.3699 -1.2665
55.1800 18.3765 -1.2506
55.2000 18.3831 -1.2629
55.2200 18.3899 -1.2699
55.2400 18.3966 -1.2568
55.2600 18.4032 -1.2684
55.2800 18.4099 -1.2714
55.3000 18.4166 -1.2608
55.3200 18.4233 -1.2697
55.3400 18.4299 -1.2690
55.3600 18.4365 -1.2642
55.3800 18.4432 -1.2706
55.4000 18.4500 -1.2699
55.4200 18.4567 -1.2662
55.4400 18.4633 -1.2757
55.4600 18.4700 -1.2684
55.4800 18.4767 -1.2700
55.5000 18.4833 -1.2737
55.5200 18.4900 -1.2734
55.5400 18.4966 -1.2708
55.5600 18.5033 -1.2773
55.5800 18.5099 -1.2703
55.6000 18.5166 -1.2774
55.6200 18.5233 -1.2779
55.6400 18.5300 -1.2780
55.6600 18.5367 -1.2770
55.6800 18.5433 -1.2820
55.7000 18.5499 -1.2824
55.7200 18.5565 -1.2797
55.7400 18.5632 -1.2802
55.7600 18.5699 -1.2831
55.7800 18.5766 -1.2825
55.8000 18.5833 -1.2800
55.8200 18.5900 -1.2844
55.8400 18.5966 -1.2851
55.8600 18.6033 -1.2833
55.8800 18.6099 -1.2885
55.9000 18.6165 -1.2856
55.9200 18.6232 -1.2842
55.9400 18.6299 -1.2907
55.9600 18.6366 -1.2860
55.9800 18.6433 -1.2916
56.0000 18.6499 -1.2910
56.0200 18.6566 -1.2875
56.0400 18.6633 -1.2920
56.0600 18.6699 -1.2882
56.0800 18.6766 -1.2917
56.1000 18.6832 -1.2981
56.1200 18.6899 -1.2864
56.1400 18.6966 -1.2948
56.1600 18.7033 -1.2950
56.1800 18.7100 -1.2918
56.2000 18.7167 -1.2952
56.2200 18.7234 -1.2980
56.2400 18.7299 -1.2936
56.2600 18.7365 -1.2960
56.2800 18.7432 -1.2982
56.3000 18.7499 -1.2944
56.3200 18.7566 -1.3033
56.3400 18.7633 -1.3017
56.3600 18.7700 -1.3000
56.3800 18.7767 -1.3016
56.4000 18.7833 -1.3075
56.4200 18.7899 -1.3003
56.4400 18.7965 -1.3038
56.4600 18.8032 -1.3058
56.4800 18.8099 -1.3011
56.5000 18.8166 -1.3071
56.5200 18.8233 -1.3073
56.5400 18.8300 -1.3009
56.5600 18.8366 -1.3134
56.5800 18.8433 -1.3067
56.6000 18.8499 -1.3123
56.6200 18.8565 -1.3091
56.6400 18.8631 -1.3079
56.6600 18.8698 -1.3139
56.6800 18.8766 -1.3163
56.7000 18.8833 -1.3113
56.7200 18.8900 -1.3129
56.7400 18.8967 -1.3151
56.7600 18.9033 -1.3124
56.7800 18.9099 -1.3195
56.8000 18.9165 -1.3178
56.8200 18.9232 -1.3152
56.8400 18.9299 -1.3194
56.8600 18.9366 -1.3217
56.8800 18.9433 -1.3137
56.9000 18.9500 -1.3207
56.9200 18.9567 -1.3239
56.9400 18.9633 -1.3180
56.9600 18.9699 -1.3221
56.9800 18.9765 -1.3296
57.0000 18.9832 -1.3226
57.0200 18.9899 -1.3269
57.0400 18.9967 -1.3238
57.0600 19.0033 -1.3232
57.0800 19.0100 -1.3277
57.1000 19.0167 -1.3299
57.1200 19.0233 -1.3268
57.1400 19.0299 -1.3273
57.1600 19.0365 -1.3312
57.1800 19.0432 -1.3301
57.2000 19.0499 -1.3305
57.2200 19.0566 -1.3350
57.2400 19.0633 -1.3357
57.2600 19.0700 -1.3334
57.2800 19.0766 -1.3378
57.3000 19.0833 -1.3402
57.3200 19.0899 -1.3398
57.3400 19.0965 -1.3401
57.3600 19.1032 -1.3411
57.3800 19.1099 -1.3382
57.4000 19.1166 -1.3466
57.4200 19.1233 -1.3406
57.4400 19.1300 -1.3440
57.4600 19.1366 -1.3498
57.4800 19.1433 -1.3457
57.5000 19.1499 -1.3438
57.5200 19.1565 -1.3545
57.5400 19.1632 -1.3458
57.5600 19.1699 -1.3486
57.5800 19.1766 -1.3608
57.6000 19.1833 -1.3452
57.6200 19.1900 -1.3477
57.6400 19.1967 -1.3633
57.6600 19.2034 -1.3484
57.6800 19.2100 -1.3526
57.7000 19.2166 -1.3662
57.7200 19.2232 -1.3487
57.7400 19.2299 -1.3544
57.7600 19.2366 -1.3683
57.7800 19.2433 -1.3586
57.8000 19.2500 -1.3588
57.8200 19.2567 -1.3691
57.8400 19.2634 -1.3568
57.8600 19.2700 -1.3639
57.8800 19.2765 -1.3658
57.9000 19.2832 -1.3628
57.9200 19.2899 -1.3719
57.9400 19.2966 -1.3716
57.9600 19.3033 -1.3620
57.9800 19.3099 -1.3717
58.0000 19.3166 -1.3729
58.0200 19.3233 -1.3690
58.0400 19.3299 -1.3727
58.0600 19.3365 -1.3729
58.0800 19.3432 -1.3709
58.1000 19.3499 -1.3753
58.1200 19.3566 -1.3798
58.1400 19.3633 -1.3744
58.1600 19.3699 -1.3726
58.1800 19.3766 -1.3782
58.2000 19.3833 -1.3843
58.2200 19.3899 -1.3761
58.2400 19.3966 -1.3850
58.2600 19.4032 -1.3806
58.2800 19.4099 -1.3789
58.3000 19.4166 -1.3914
58.3200 19.4233 -1.3872
58.3400 19.4300 -1.3770
58.3600 19.4367 -1.3951
58.3800 19.4434 -1.3849
58.4000 19.4500 -1.3816
58.4200 19.4566 -1.3997
58.4400 19.4632 -1.3848
58.4600 19.4699 -1.3808
58.4800 19.4766 -1.4060
58.5000 19.4833 -1.3877
58.5200 19.4900 -1.3871
58.5400 19.4967 -1.4041
58.5600 19.5033 -1.3911
58.5800 19.5100 -1.3920
58.6000 19.5166 -1.4034
58.6200 19.5232 -1.3909
58.6400 19.5299 -1.3959
58.6600 19.5366 -1.4103
58.6800 19.5433 -1.3968
58.7000 19.5500 -1.3978
58.7200 19.5566 -1.4125
58.7400 19.5633 -1.4024
58.7600 19.5699 -1.3983
58.7800 19.5765 -1.4135
58.8000 19.5831 -1.4023
58.8200 19.5898 -1.4094
58.8400 19.5966 -1.4136
58.8600 19.6033 -1.4032
58.8800 19.6099 -1.4095
58.9000 19.6166 -1.4196
58.9200 19.6233 -1.4101
58.9400 19.6299 -1.4162
58.9600 19.6365 -1.4186
58.9800 19.6432 -1.4136
59.0000 19.6499 -1.4150
59.0200 19.6566 -1.4218
59.0400 19.6633 -1.4194
59.0600 19.6700 -1.4244
59.0800 19.6767 -1.4233
59.1000 19.6834 -1.4222
59.1200 19.6900 -1.4280
59.1400 19.6966 -1.4239
59.1600 19.7033 -1.4297
59.1800 19.7099 -1.4245
59.2000 19.7166 -1.4300
59.2200 19.7233 -1.4375
59.2400 19.7300 -1.4261
59.2600 19.7367 -1.4329
59.2800 19.7433 -1.4419
59.3000 19.7499 -1.4408
59.3010 19.7502 -1.4421
