Raw Data
Time Displacement Force
(s) (mm) (N)
0.0000 0.0000 -0.4515
0.0200 0.0000 -0.4413
0.0400 0.0008 -0.4010
0.0600 0.0039 -0.2915
0.0800 0.0094 -0.2652
0.1000 0.0152 -0.2629
0.1200 0.0210 -0.2166
0.1400 0.0275 -0.1958
0.1600 0.0348 -0.1725
0.1800 0.0423 -0.1249
0.2000 0.0495 -0.1008
0.2200 0.0564 -0.0863
0.2400 0.0631 -0.0299
0.2600 0.0698 0.0087
0.2800 0.0764 0.0349
0.3000 0.0831 0.0861
0.3200 0.0899 0.1158
0.3400 0.0966 0.1477
0.3600 0.1033 0.1944
0.3800 0.1099 0.2245
0.4000 0.1166 0.2603
0.4200 0.1233 0.2976
0.4400 0.1299 0.3283
0.4600 0.1366 0.3540
0.4800 0.1433 0.4039
0.5000 0.1500 0.4318
0.5200 0.1567 0.4630
0.5400 0.1633 0.5068
0.5600 0.1699 0.5508
0.5800 0.1765 0.5935
0.6000 0.1832 0.6336
0.6200 0.1899 0.6517
0.6400 0.1966 0.6579
0.6600 0.2033 0.6588
0.6800 0.2100 0.6561
0.7000 0.2167 0.6545
0.7200 0.2233 0.6558
0.7400 0.2299 0.6646
0.7600 0.2365 0.6608
0.7800 0.2432 0.6513
0.8000 0.2499 0.6660
0.8200 0.2565 0.6623
0.8400 0.2632 0.6549
0.8600 0.2699 0.6712
0.8800 0.2766 0.6591
0.9000 0.2832 0.6570
0.9200 0.2898 0.6686
0.9400 0.2964 0.6635
0.9600 0.3031 0.6580
0.9800 0.3098 0.6729
1.0000 0.3166 0.6613
1.0200 0.3233 0.6629
1.0400 0.3300 0.6715
1.0600 0.3366 0.6630
1.0800 0.3433 0.6616
1.1000 0.3499 0.6753
1.1200 0.3565 0.6628
1.1400 0.3632 0.6634
1.1600 0.3699 0.6779
1.1800 0.3766 0.6610
1.2000 0.3833 0.6649
1.2200 0.3900 0.6783
1.2400 0.3967 0.6613
1.2600 0.4033 0.6637
1.2800 0.4099 0.6756
1.3000 0.4166 0.6637
1.3200 0.4233 0.6631
1.3400 0.4300 0.6708
1.3600 0.4366 0.6614
1.3800 0.4433 0.6590
1.4000 0.4500 0.6709
1.4200 0.4567 0.6533
1.4400 0.4633 0.6594
1.4600 0.4699 0.6668
1.4800 0.4765 0.6528
1.5000 0.4832 0.6560
1.5200 0.4899 0.6622
1.5400 0.4966 0.6462
1.5600 0.5032 0.6517
1.5800 0.5099 0.6577
1.6000 0.5166 0.6405
1.6200 0.5232 0.6476
1.6400 0.5298 0.6459
1.6600 0.5365 0.6405
1.6800 0.5432 0.6472
1.7000 0.5499 0.6383
1.7200 0.5566 0.6277
1.7400 0.5633 0.6419
1.7600 0.5699 0.6326
1.7800 0.5766 0.6262
1.8000 0.5833 0.6261
1.8200 0.5899 0.6268
1.8400 0.5965 0.6202
1.8600 0.6032 0.6200
1.8800 0.6099 0.6214
1.9000 0.6166 0.6150
1.9200 0.6233 0.6135
1.9400 0.6300 0.6124
1.9600 0.6367 0.6080
1.9800 0.6433 0.6059
2.0000 0.6499 0.6058
2.0200 0.6565 0.5979
2.0400 0.6632 0.5959
2.0600 0.6699 0.6012
2.0800 0.6766 0.5915
2.1000 0.6833 0.5851
2.1200 0.6900 0.5952
2.1400 0.6966 0.5840
2.1600 0.7033 0.5846
2.1800 0.7099 0.5824
2.2000 0.7165 0.5781
2.2200 0.7232 0.5796
2.2400 0.7299 0.5798
2.2600 0.7366 0.5722
2.2800 0.7433 0.5757
2.3000 0.7499 0.5700
2.3200 0.7566 0.5671
2.3400 0.7633 0.5669
2.3600 0.7699 0.5630
2.3800 0.7765 0.5605
2.4000 0.7832 0.5647
2.4200 0.7899 0.5517
2.4400 0.7965 0.5560
2.4600 0.8032 0.5631
2.4800 0.8099 0.5503
2.5000 0.8167 0.5509
2.5200 0.8233 0.5511
2.5400 0.8299 0.5486
2.5600 0.8365 0.5476
2.5800 0.8432 0.5480
2.6000 0.8499 0.5394
2.6200 0.8566 0.5424
2.6400 0.8633 0.5398
2.6600 0.8700 0.5361
2.6800 0.8767 0.5361
2.7000 0.8833 0.5317
2.7200 0.8899 0.5324
2.7400 0.8965 0.5393
2.7600 0.9032 0.5291
2.7800 0.9099 0.5255
2.8000 0.9166 0.5227
2.8200 0.9233 0.5249
2.8400 0.9300 0.5207
2.8600 0.9367 0.5235
2.8800 0.9433 0.5162
2.9000 0.9499 0.5202
2.9200 0.9565 0.5247
2.9400 0.9632 0.5095
2.9600 0.9699 0.5168
2.9800 0.9766 0.5165
3.0000 0.9833 0.5062
3.0200 0.9900 0.5095
3.0400 0.9966 0.5169
3.0600 1.0033 0.5047
3.0800 1.0099 0.5011
3.1000 1.0165 0.5077
3.1200 1.0231 0.5041
3.1400 1.0299 0.5021
3.1600 1.0366 0.5055
3.1800 1.0433 0.4866
3.2000 1.0499 0.5011
3.2200 1.0566 0.5048
3.2400 1.0633 0.4872
3.2600 1.0699 0.4947
3.2800 1.0765 0.4972
3.3000 1.0832 0.4850
3.3200 1.0899 0.4905
3.3400 1.0966 0.4939
3.3600 1.1033 0.4876
3.3800 1.1100 0.4861
3.4000 1.1167 0.4858
3.4200 1.1234 0.4841
3.4400 1.1300 0.4856
3.4600 1.1366 0.4833
3.4800 1.1432 0.4819
3.5000 1.1499 0.4769
3.5200 1.1566 0.4788
3.5400 1.1633 0.4853
3.5600 1.1700 0.4669
3.5800 1.1766 0.4745
3.6000 1.1833 0.4763
3.6200 1.1899 0.4634
3.6400 1.1965 0.4793
3.6600 1.2032 0.4784
3.6800 1.2099 0.4561
3.7000 1.2166 0.4701
3.7200 1.2233 0.4694
3.7400 1.2299 0.4589
3.7600 1.2366 0.4718
3.7800 1.2433 0.4632
3.8000 1.2499 0.4507
3.8200 1.2565 0.4671
3.8400 1.2632 0.4607
3.8600 1.2699 0.4493
3.8800 1.2766 0.4643
3.9000 1.2833 0.4566
3.9200 1.2899 0.4486
3.9400 1.2966 0.4525
3.9600 1.3033 0.4580
3.9800 1.3099 0.4449
4.0000 1.3165 0.4523
4.0200 1.3232 0.4508
4.0400 1.3299 0.4454
4.0600 1.3366 0.4470
4.0800 1.3433 0.4477
4.1000 1.3500 0.4388
4.1200 1.3566 0.4430
4.1400 1.3633 0.4443
4.1600 1.3699 0.4363
4.1800 1.3765 0.4392
4.2000 1.3832 0.4449
4.2200 1.3899 0.4289
4.2400 1.3966 0.4375
4.2600 1.4033 0.4429
4.2800 1.4100 0.4254
4.3000 1.4167 0.4368
4.3200 1.4233 0.4324
4.3400 1.4299 0.4226
4.3600 1.4365 0.4330
4.3800 1.4432 0.4388
4.4000 1.4499 0.4180
4.4200 1.4566 0.4300
4.4400 1.4632 0.4299
4.4600 1.4699 0.4131
4.4800 1.4766 0.4308
4.5000 1.4833 0.4292
4.5200 1.4899 0.4056
4.5400 1.4965 0.4333
4.5600 1.5031 0.4251
4.5800 1.5098 0.4055
4.6000 1.5166 0.4291
4.6200 1.5233 0.4219
4.6400 1.5300 0.4041
4.6600 1.5366 0.4231
4.6800 1.5433 0.4102
4.7000 1.5499 0.4028
4.7200 1.5565 0.4197
4.7400 1.5632 0.4049
4.7600 1.5699 0.4055
4.7800 1.5766 0.4105
4.8000 1.5833 0.3976
4.8200 1.5900 0.4005
4.8400 1.5967 0.4038
4.8600 1.6033 0.3939
4.8800 1.6099 0.3981
4.9000 1.6165 0.3956
4.9200 1.6232 0.3954
4.9400 1.6299 0.3932
4.9600 1.6366 0.3908
4.9800 1.6433 0.3915
5.0000 1.6500 0.3908
5.0200 1.6567 0.3828
5.0400 1.6633 0.3857
5.0600 1.6700 0.3802
5.0800 1.6766 0.3774
5.1000 1.6832 0.3885
5.1200 1.6898 0.3770
5.1400 1.6966 0.3727
5.1600 1.7033 0.3782
5.1800 1.7100 0.3661
5.2000 1.7166 0.3720
5.2200 1.7233 0.3841
5.2400 1.7300 0.3616
5.2600 1.7365 0.3692
5.2800 1.7432 0.3720
5.3000 1.7498 0.3580
5.3200 1.7566 0.3697
5.3400 1.7633 0.3695
5.3600 1.7699 0.3505
5.3800 1.7766 0.3677
5.4000 1.7832 0.3621
5.4200 1.7899 0.3528
5.4400 1.7965 0.3639
5.4600 1.8032 0.3546
5.4800 1.8099 0.3469
5.5000 1.8166 0.3610
5.5200 1.8233 0.3502
5.5400 1.8300 0.3473
5.5600 1.8367 0.3576
5.5800 1.8434 0.3438
5.6000 1.8500 0.3421
5.6200 1.8566 0.3524
5.6400 1.8632 0.3452
5.6600 1.8699 0.3413
5.6800 1.8766 0.3464
5.7000 1.8833 0.3367
5.7200 1.8900 0.3427
5.7400 1.8966 0.3404
5.7600 1.9033 0.3361
5.7800 1.9099 0.3399
5.8000 1.9165 0.3330
5.8200 1.9232 0.3361
5.8400 1.9299 0.3427
5.8600 1.9366 0.3275
5.8800 1.9432 0.3336
5.9000 1.9499 0.3331
5.9200 1.9566 0.3291
5.9400 1.9633 0.3325
5.9600 1.9699 0.3294
5.9800 1.9765 0.3206
6.0000 1.9832 0.3297
6.0200 1.9898 0.3266
6.0400 1.9965 0.3173
6.0600 2.0032 0.3302
6.0800 2.0099 0.3196
6.1000 2.0166 0.3195
6.1200 2.0233 0.3220
6.1400 2.0300 0.3138
6.1600 2.0366 0.3119
6.1800 2.0432 0.3252
6.2000 2.0498 0.3093
6.2200 2.0566 0.3119
6.2400 2.0633 0.3145
6.2600 2.0700 0.3070
6.2800 2.0767 0.3103
6.3000 2.0833 0.3089
6.3200 2.0900 0.2973
6.3400 2.0966 0.3112
6.3600 2.1032 0.3045
6.3800 2.1099 0.2972
6.4000 2.1166 0.3054
6.4200 2.1233 0.2960
6.4400 2.1299 0.2953
6.4600 2.1366 0.3032
6.4800 2.1433 0.2937
6.5000 2.1500 0.2908
6.5200 2.1566 0.2969
6.5400 2.1632 0.2863
6.5600 2.1699 0.2906
6.5800 2.1766 0.2957
6.6000 2.1833 0.2823
6.6200 2.1899 0.2864
6.6400 2.1966 0.2902
6.6600 2.2033 0.2748
6.6800 2.2100 0.2909
6.7000 2.2166 0.2792
6.7200 2.2232 0.2757
6.7400 2.2298 0.2877
6.7600 2.2365 0.2773
6.7800 2.2433 0.2738
6.8000 2.2499 0.2777
6.8200 2.2566 0.2698
6.8400 2.2633 0.2732
6.8600 2.2700 0.2719
6.8800 2.2766 0.2672
6.9000 2.2832 0.2775
6.9200 2.2899 0.2621
6.9400 2.2966 0.2606
6.9600 2.3033 0.2694
6.9800 2.3099 0.2621
7.0000 2.3166 0.2637
7.0200 2.3233 0.2650
7.0400 2.3300 0.2535
7.0600 2.3366 0.2614
7.0800 2.3432 0.2629
7.1000 2.3499 0.2543
7.1200 2.3566 0.2532
7.1400 2.3633 0.2535
7.1600 2.3700 0.2526
7.1800 2.3767 0.2558
7.2000 2.3833 0.2504
7.2200 2.3900 0.2490
7.2400 2.3966 0.2533
7.2600 2.4032 0.2436
7.2800 2.4098 0.2458
7.3000 2.4166 0.2491
7.3200 2.4233 0.2417
7.3400 2.4300 0.2476
7.3600 2.4366 0.2459
7.3800 2.4433 0.2386
7.4000 2.4500 0.2399
7.4200 2.4566 0.2374
7.4400 2.4632 0.2359
7.4600 2.4698 0.2440
7.4800 2.4765 0.2375
7.5000 2.4832 0.2279
7.5200 2.4899 0.2415
7.5400 2.4966 0.2339
7.5600 2.5033 0.2280
7.5800 2.5099 0.2348
7.6000 2.5166 0.2286
7.6200 2.5232 0.2189
7.6400 2.5299 0.2354
7.6600 2.5366 0.2206
7.6800 2.5433 0.2205
7.7000 2.5500 0.2335
7.7200 2.5567 0.2149
7.7400 2.5634 0.2159
7.7600 2.5700 0.2275
7.7800 2.5766 0.2104
7.8000 2.5832 0.2144
7.8200 2.5898 0.2265
7.8400 2.5966 0.2068
7.8600 2.6033 0.2129
7.8800 2.6100 0.2230
7.9000 2.6167 0.2042
7.9200 2.6233 0.2060
7.9400 2.6300 0.2197
7.9600 2.6366 0.2002
7.9800 2.6432 0.2036
8.0000 2.6499 0.2122
8.0200 2.6566 0.1990
8.0400 2.6633 0.2001
8.0600 2.6699 0.2053
8.0800 2.6766 0.1968
8.1000 2.6833 0.2019
8.1200 2.6900 0.1974
8.1400 2.6966 0.1897
8.1600 2.7032 0.2009
8.1800 2.7098 0.2012
8.2000 2.7165 0.1853
8.2200 2.7232 0.1959
8.2400 2.7299 0.1947
8.2600 2.7366 0.1886
8.2800 2.7433 0.1847
8.3000 2.7500 0.1882
8.3200 2.7566 0.1831
8.3400 2.7632 0.1827
8.3600 2.7699 0.1884
8.3800 2.7766 0.1781
8.4000 2.7833 0.1814
8.4200 2.7899 0.1858
8.4400 2.7966 0.1730
8.4600 2.8033 0.1819
8.4800 2.8100 0.1870
8.5000 2.8166 0.1656
8.5200 2.8232 0.1788
8.5400 2.8299 0.1750
8.5600 2.8366 0.1635
8.5800 2.8433 0.1730
8.6000 2.8499 0.1762
8.6200 2.8566 0.1568
8.6400 2.8633 0.1697
8.6600 2.8700 0.1702
8.6800 2.8767 0.1564
8.7000 2.8833 0.1702
8.7200 2.8899 0.1664
8.7400 2.8965 0.1575
8.7600 2.9032 0.1675
8.7800 2.9099 0.1616
8.8000 2.9166 0.1518
8.8200 2.9233 0.1657
8.8400 2.9300 0.1584
8.8600 2.9366 0.1524
8.8800 2.9431 0.1601
8.9000 2.9498 0.1544
8.9200 2.9565 0.1515
8.9400 2.9632 0.1554
8.9600 2.9699 0.1503
8.9800 2.9766 0.1537
9.0000 2.9833 0.1441
9.0200 2.9899 0.1481
9.0400 2.9966 0.1499
9.0600 3.0032 0.1451
9.0800 3.0099 0.1463
9.1000 3.0166 0.1455
9.1200 3.0233 0.1430
9.1400 3.0300 0.1429
9.1600 3.0366 0.1475
9.1800 3.0433 0.1416
9.2000 3.0500 0.1382
9.2200 3.0566 0.1437
9.2400 3.0632 0.1393
9.2600 3.0699 0.1412
9.2800 3.0765 0.1426
9.3000 3.0833 0.1304
9.3200 3.0900 0.1433
9.3400 3.0967 0.1369
9.3600 3.1033 0.1311
9.3800 3.1100 0.1407
9.4000 3.1166 0.1320
9.4200 3.1232 0.1274
9.4400 3.1298 0.1411
9.4600 3.1366 0.1276
9.4800 3.1433 0.1286
9.5000 3.1499 0.1350
9.5200 3.1566 0.1196
9.5400 3.1633 0.1233
9.5600 3.1700 0.1381
9.5800 3.1766 0.1181
9.6000 3.1832 0.1190
9.6200 3.1899 0.1320
9.6400 3.1965 0.1170
9.6600 3.2032 0.1186
9.6800 3.2099 0.1310
9.7000 3.2166 0.1115
9.7200 3.2232 0.1142
9.7400 3.2299 0.1251
9.7600 3.2366 0.1066
9.7800 3.2432 0.1177
9.8000 3.2498 0.1157
9.8200 3.2566 0.1043
9.8400 3.2633 0.1072
9.8600 3.2700 0.1142
9.8800 3.2766 0.1039
9.9000 3.2833 0.1106
9.9200 3.2900 0.1040
9.9400 3.2966 0.0999
9.9600 3.3032 0.1133
9.9800 3.3099 0.1074
10.0000 3.3166 0.0932
10.0200 3.3233 0.1039
10.0400 3.3300 0.1010
10.0600 3.3367 0.0945
10.0800 3.3433 0.1033
10.1000 3.3500 0.0981
10.1200 3.3566 0.0923
10.1400 3.3632 0.0980
10.1600 3.3699 0.0942
10.1800 3.3765 0.0913
10.2000 3.3832 0.1010
10.2200 3.3899 0.0844
10.2400 3.3966 0.0848
10.2600 3.4033 0.0955
10.2800 3.4100 0.0854
10.3000 3.4166 0.0827
10.3200 3.4232 0.0975
10.3400 3.4298 0.0805
10.3600 3.4365 0.0778
10.3800 3.4432 0.0899
10.4000 3.4499 0.0781
10.4200 3.4566 0.0816
10.4400 3.4633 0.0870
10.4600 3.4699 0.0755
10.4800 3.4766 0.0775
10.5000 3.4832 0.0830
10.5200 3.4899 0.0765
10.5400 3.4966 0.0782
10.5600 3.5033 0.0784
10.5800 3.5100 0.0716
10.6000 3.5166 0.0724
10.6200 3.5233 0.0782
10.6400 3.5300 0.0738
10.6600 3.5366 0.0702
10.6800 3.5432 0.0697
10.7000 3.5499 0.0751
10.7200 3.5565 0.0706
10.7400 3.5632 0.0652
10.7600 3.5699 0.0677
10.7800 3.5766 0.0660
10.8000 3.5833 0.0588
10.8200 3.5900 0.0669
10.8400 3.5967 0.0601
10.8600 3.6033 0.0633
10.8800 3.6099 0.0664
10.9000 3.6165 0.0559
10.9200 3.6233 0.0584
10.9400 3.6300 0.0643
10.9600 3.6366 0.0528
10.9800 3.6433 0.0567
11.0000 3.6500 0.0633
11.0200 3.6566 0.0507
11.0400 3.6632 0.0544
11.0600 3.6698 0.0543
11.0800 3.6765 0.0454
11.1000 3.6832 0.0542
11.1200 3.6899 0.0528
11.1400 3.6966 0.0400
11.1600 3.7033 0.0540
11.1800 3.7099 0.0461
11.2000 3.7166 0.0442
11.2200 3.7232 0.0483
11.2400 3.7298 0.0403
11.2600 3.7365 0.0450
11.2800 3.7432 0.0486
11.3000 3.7499 0.0372
11.3200 3.7566 0.0392
11.3400 3.7634 0.0422
11.3600 3.7701 0.0386
11.3800 3.7767 0.0408
11.4000 3.7833 0.0367
11.4200 3.7899 0.0253
11.4400 3.7966 0.0324
11.4600 3.8033 0.0376
11.4800 3.8100 0.0277
11.5000 3.8167 0.0313
11.5200 3.8233 0.0312
11.5400 3.8300 0.0250
11.5600 3.8366 0.0262
11.5800 3.8433 0.0353
11.6000 3.8499 0.0243
11.6200 3.8565 0.0233
11.6400 3.8632 0.0241
11.6600 3.8699 0.0268
11.6800 3.8766 0.0183
11.7000 3.8832 0.0272
11.7200 3.8899 0.0197
11.7400 3.8966 0.0122
11.7600 3.9032 0.0225
11.7800 3.9098 0.0172
11.8000 3.9165 0.0090
11.8200 3.9231 0.0208
11.8400 3.9298 0.0170
11.8600 3.9365 0.0047
11.8800 3.9432 0.0170
11.9000 3.9499 0.0071
11.9200 3.9566 0.0050
11.9400 3.9632 0.0156
11.9600 3.9699 0.0105
11.9800 3.9765 0.0035
12.0000 3.9833 0.0125
12.0200 3.9900 -0.0008
12.0400 3.9967 0.0035
12.0600 4.0033 0.0152
12.0800 4.0100 -0.0015
12.1000 4.0166 -0.0048
12.1200 4.0233 0.0104
12.1400 4.0299 -0.0045
12.1600 4.0366 -0.0007
12.1800 4.0433 0.0055
12.2000 4.0499 -0.0074
12.2200 4.0566 -0.0036
12.2400 4.0633 0.0043
12.2600 4.0700 -0.0126
12.2800 4.0767 -0.0067
12.3000 4.0833 -0.0021
12.3200 4.0898 -0.0129
12.3400 4.0965 -0.0063
12.3600 4.1032 -0.0087
12.3800 4.1099 -0.0112
12.4000 4.1166 -0.0092
12.4200 4.1233 -0.0121
12.4400 4.1300 -0.0174
12.4600 4.1366 -0.0134
12.4800 4.1432 -0.0171
12.5000 4.1498 -0.0167
12.5200 4.1565 -0.0168
12.5400 4.1632 -0.0155
12.5600 4.1699 -0.0256
12.5800 4.1766 -0.0184
12.6000 4.1833 -0.0205
12.6200 4.1899 -0.0222
12.6400 4.1966 -0.0183
12.6600 4.2032 -0.0264
12.6800 4.2099 -0.0242
12.7000 4.2165 -0.0228
12.7200 4.2232 -0.0338
12.7400 4.2299 -0.0243
12.7600 4.2366 -0.0209
12.7800 4.2433 -0.0346
12.8000 4.2500 -0.0282
12.8200 4.2567 -0.0279
12.8400 4.2633 -0.0367
12.8600 4.2699 -0.0281
12.8800 4.2765 -0.0333
12.9000 4.2832 -0.0403
12.9200 4.2899 -0.0305
12.9400 4.2966 -0.0338
12.9600 4.3033 -0.0404
12.9800 4.3100 -0.0347
13.0000 4.3167 -0.0351
13.0200 4.3233 -0.0441
13.0400 4.3299 -0.0405
13.0600 4.3365 -0.0385
13.0800 4.3432 -0.0430
13.1000 4.3500 -0.0458
13.1200 4.3566 -0.0425
13.1400 4.3633 -0.0434
13.1600 4.3700 -0.0483
13.1800 4.3766 -0.0455
13.2000 4.3832 -0.0482
13.2200 4.3898 -0.0522
13.2400 4.3965 -0.0442
13.2600 4.4032 -0.0500
13.2800 4.4099 -0.0575
13.3000 4.4166 -0.0486
13.3200 4.4233 -0.0511
13.3400 4.4300 -0.0529
13.3600 4.4367 -0.0504
13.3800 4.4433 -0.0583
13.4000 4.4499 -0.0575
13.4200 4.4565 -0.0486
13.4400 4.4632 -0.0639
13.4600 4.4699 -0.0583
13.4800 4.4766 -0.0570
13.5000 4.4833 -0.0669
13.5200 4.4900 -0.0610
13.5400 4.4967 -0.0580
13.5600 4.5033 -0.0694
13.5800 4.5099 -0.0653
13.6000 4.5166 -0.0609
13.6200 4.5233 -0.0681
13.6400 4.5300 -0.0661
13.6600 4.5366 -0.0700
13.6800 4.5433 -0.0726
13.7000 4.5500 -0.0607
13.7200 4.5566 -0.0753
13.7400 4.5632 -0.0750
13.7600 4.5699 -0.0667
13.7800 4.5765 -0.0737
13.8000 4.5832 -0.0718
13.8200 4.5899 -0.0785
13.8400 4.5966 -0.0703
13.8600 4.6033 -0.0754
13.8800 4.6100 -0.0819
13.9000 4.6166 -0.0793
13.9200 4.6233 -0.0760
13.9400 4.6299 -0.0831
13.9600 4.6365 -0.0814
13.9800 4.6432 -0.0837
14.0000 4.6499 -0.0809
14.0200 4.6566 -0.0802
14.0400 4.6633 -0.0933
14.0600 4.6700 -0.0859
14.0800 4.6766 -0.0826
14.1000 4.6833 -0.0920
14.1200 4.6899 -0.0898
14.1400 4.6965 -0.0828
14.1600 4.7032 -0.0945
14.1800 4.7099 -0.0954
14.2000 4.7166 -0.0927
14.2200 4.7233 -0.0917
14.2400 4.7299 -0.0904
14.2600 4.7365 -0.0962
14.2800 4.7432 -0.1014
14.3000 4.7498 -0.0872
14.3200 4.7565 -0.0960
14.3400 4.7633 -0.1023
14.3600 4.7700 -0.0938
14.3800 4.7767 -0.1053
14.4000 4.7834 -0.1011
14.4200 4.7900 -0.0907
14.4400 4.7967 -0.1102
14.4600 4.8033 -0.1088
14.4800 4.8099 -0.0955
14.5000 4.8165 -0.1089
14.5200 4.8232 -0.1109
14.5400 4.8299 -0.1002
14.5600 4.8366 -0.1098
14.5800 4.8432 -0.1120
14.6000 4.8499 -0.1053
14.6200 4.8566 -0.1117
14.6400 4.8632 -0.1106
14.6600 4.8698 -0.1090
14.6800 4.8765 -0.1150
14.7000 4.8832 -0.1136
14.7200 4.8899 -0.1050
14.7400 4.8966 -0.1186
14.7600 4.9032 -0.1176
14.7800 4.9099 -0.1116
14.8000 4.9166 -0.1159
14.8200 4.9233 -0.1238
14.8400 4.9299 -0.1146
14.8600 4.9366 -0.1221
14.8800 4.9432 -0.1261
14.9000 4.9499 -0.1125
14.9200 4.9566 -0.1229
14.9400 4.9633 -0.1227
14.9600 4.9700 -0.1202
14.9800 4.9767 -0.1289
15.0000 4.9833 -0.1280
15.0200 4.9899 -0.1212
15.0400 4.9965 -0.1289
15.0600 5.0031 -0.1268
15.0800 5.0098 -0.1268
15.1000 5.0166 -0.1326
15.1200 5.0233 -0.1291
15.1400 5.0300 -0.1308
15.1600 5.0367 -0.1364
15.1800 5.0433 -0.1289
15.2000 5.0499 -0.1350
15.2200 5.0566 -0.1371
15.2400 5.0632 -0.1322
15.2600 5.0699 -0.1371
15.2800 5.0766 -0.1394
15.3000 5.0833 -0.1363
15.3200 5.0900 -0.1432
15.3400 5.0967 -0.1390
15.3600 5.1033 -0.1455
15.3800 5.1099 -0.1442
15.4000 5.1165 -0.1383
15.4200 5.1231 -0.1485
15.4400 5.1298 -0.1406
15.4600 5.1366 -0.1433
15.4800 5.1433 -0.1523
15.5000 5.1499 -0.1422
15.5200 5.1566 -0.1481
15.5400 5.1633 -0.1549
15.5600 5.1699 -0.1440
15.5800 5.1765 -0.1511
15.6000 5.1832 -0.1577
15.6200 5.1899 -0.1452
15.6400 5.1966 -0.1510
15.6600 5.2033 -0.1639
15.6800 5.2100 -0.1409
15.7000 5.2167 -0.1622
15.7200 5.2233 -0.1603
15.7400 5.2299 -0.1463
15.7600 5.2366 -0.1656
15.7800 5.2432 -0.1568
15.8000 5.2499 -0.1500
15.8200 5.2566 -0.1684
15.8400 5.2633 -0.1619
15.8600 5.2699 -0.1498
15.8800 5.2766 -0.1711
15.9000 5.2833 -0.1608
15.9200 5.2899 -0.1570
15.9400 5.2965 -0.1696
15.9600 5.3032 -0.1611
15.9800 5.3099 -0.1650
16.0000 5.3166 -0.1714
16.0200 5.3233 -0.1615
16.0400 5.3300 -0.1721
16.0600 5.3366 -0.1744
16.0800 5.3433 -0.1643
16.1000 5.3499 -0.1739
16.1200 5.3565 -0.1740
16.1400 5.3632 -0.1659
16.1600 5.3699 -0.1752
16.1800 5.3766 -0.1757
16.2000 5.3833 -0.1746
16.2200 5.3899 -0.1773
16.2400 5.3966 -0.1742
16.2600 5.4033 -0.1768
16.2800 5.4099 -0.1764
16.3000 5.4166 -0.1725
16.3200 5.4232 -0.1796
16.3400 5.4299 -0.1798
16.3600 5.4366 -0.1803
16.3800 5.4433 -0.1846
16.4000 5.4500 -0.1733
16.4200 5.4567 -0.1863
16.4400 5.4633 -0.1894
16.4600 5.4699 -0.1839
16.4800 5.4765 -0.1824
16.5000 5.4832 -0.1874
16.5200 5.4899 -0.1797
16.5400 5.4966 -0.1870
16.5600 5.5033 -0.1930
16.5800 5.5100 -0.1825
16.6000 5.5166 -0.1878
16.6200 5.5233 -0.1949
16.6400 5.5299 -0.1843
16.6600 5.5365 -0.1944
16.6800 5.5431 -0.1984
16.7000 5.5498 -0.1849
16.7200 5.5565 -0.1902
16.7400 5.5633 -0.1993
16.7600 5.5700 -0.1872
16.7800 5.5767 -0.1919
16.8000 5.5833 -0.2011
16.8200 5.5899 -0.1886
16.8400 5.5965 -0.1993
16.8600 5.6032 -0.1974
16.8800 5.6099 -0.1959
16.9000 5.6166 -0.2039
16.9200 5.6233 -0.2016
16.9400 5.6299 -0.1923
16.9600 5.6367 -0.2039
16.9800 5.6433 -0.2073
17.0000 5.6499 -0.1968
17.0200 5.6565 -0.2065
17.0400 5.6632 -0.2063
17.0600 5.6699 -0.1986
17.0800 5.6766 -0.2104
17.1000 5.6833 -0.2059
17.1200 5.6900 -0.2037
17.1400 5.6967 -0.2114
17.1600 5.7033 -0.2097
17.1800 5.7099 -0.2070
17.2000 5.7165 -0.2156
17.2200 5.7232 -0.2156
17.2400 5.7299 -0.2026
17.2600 5.7366 -0.2200
17.2800 5.7433 -0.2146
17.3000 5.7500 -0.2072
17.3200 5.7567 -0.2190
17.3400 5.7633 -0.2182
17.3600 5.7699 -0.2111
17.3800 5.7765 -0.2230
17.4000 5.7832 -0.2139
17.4200 5.7898 -0.2129
17.4400 5.7966 -0.2241
17.4600 5.8032 -0.2229
17.4800 5.8099 -0.2189
17.5000 5.8166 -0.2227
17.5200 5.8233 -0.2260
17.5400 5.8299 -0.2250
17.5600 5.8365 -0.2282
17.5800 5.8432 -0.2230
17.6000 5.8499 -0.2239
17.6200 5.8566 -0.2259
17.6400 5.8633 -0.2300
17.6600 5.8699 -0.2264
17.6800 5.8766 -0.2335
17.7000 5.8833 -0.2340
17.7200 5.8900 -0.2259
17.7400 5.8966 -0.2333
17.7600 5.9032 -0.2404
17.7800 5.9099 -0.2299
17.8000 5.9166 -0.2386
17.8200 5.9233 -0.2374
17.8400 5.9300 -0.2326
17.8600 5.9367 -0.2403
17.8800 5.9434 -0.2452
17.9000 5.9500 -0.2313
17.9200 5.9566 -0.2417
17.9400 5.9632 -0.2387
17.9600 5.9699 -0.2372
17.9800 5.9766 -0.2513
18.0000 5.9833 -0.2394
18.0200 5.9900 -0.2376
18.0400 5.9967 -0.2508
18.0600 6.0033 -0.2462
18.0800 6.0099 -0.2453
18.1000 6.0165 -0.2520
18.1200 6.0231 -0.2420
18.1400 6.0299 -0.2469
18.1600 6.0366 -0.2604
18.1800 6.0433 -0.2447
18.2000 6.0499 -0.2485
18.2200 6.0566 -0.2618
18.2400 6.0633 -0.2454
18.2600 6.0699 -0.2548
18.2800 6.0765 -0.2580
18.3000 6.0831 -0.2495
18.3200 6.0898 -0.2553
18.3400 6.0966 -0.2650
18.3600 6.1033 -0.2531
18.3800 6.1099 -0.2597
18.4000 6.1166 -0.2642
18.4200 6.1233 -0.2484
18.4400 6.1300 -0.2666
18.4600 6.1366 -0.2704
18.4800 6.1432 -0.2488
18.5000 6.1499 -0.2658
18.5200 6.1566 -0.2650
18.5400 6.1633 -0.2518
18.5600 6.1700 -0.2725
18.5800 6.1767 -0.2663
18.6000 6.1833 -0.2594
18.6200 6.1899 -0.2692
18.6400 6.1965 -0.2654
18.6600 6.2032 -0.2562
18.6800 6.2099 -0.2773
18.7000 6.2166 -0.2671
18.7200 6.2233 -0.2646
18.7400 6.2300 -0.2810
18.7600 6.2366 -0.2683
18.7800 6.2433 -0.2673
18.8000 6.2500 -0.2781
18.8200 6.2566 -0.2660
18.8400 6.2632 -0.2724
18.8600 6.2699 -0.2783
18.8800 6.2766 -0.2681
18.9000 6.2833 -0.2754
18.9200 6.2899 -0.2787
18.9400 6.2966 -0.2715
18.9600 6.3033 -0.2779
18.9800 6.3099 -0.2795
19.0000 6.3165 -0.2768
19.0200 6.3231 -0.2781
19.0400 6.3298 -0.2766
19.0600 6.3365 -0.2863
19.0800 6.3432 -0.2789
19.1000 6.3499 -0.2799
19.1200 6.3566 -0.2851
19.1400 6.3633 -0.2797
19.1600 6.3699 -0.2863
19.1800 6.3765 -0.2866
19.2000 6.3832 -0.2776
19.2200 6.3899 -0.2848
19.2400 6.3966 -0.2863
19.2600 6.4033 -0.2891
19.2800 6.4100 -0.2856
19.3000 6.4167 -0.2850
19.3200 6.4233 -0.2868
19.3400 6.4300 -0.2910
19.3600 6.4366 -0.2903
19.3800 6.4432 -0.2874
19.4000 6.4499 -0.2953
19.4200 6.4566 -0.2900
19.4400 6.4633 -0.2944
19.4600 6.4700 -0.2933
19.4800 6.4766 -0.2881
19.5000 6.4833 -0.2976
19.5200 6.4900 -0.2945
19.5400 6.4966 -0.2890
19.5600 6.5032 -0.2986
19.5800 6.5098 -0.2956
19.6000 6.5165 -0.2964
19.6200 6.5232 -0.2973
19.6400 6.5299 -0.2948
19.6600 6.5366 -0.2978
19.6800 6.5433 -0.3017
19.7000 6.5500 -0.2995
19.7200 6.5565 -0.3016
19.7400 6.5631 -0.2991
19.7600 6.5698 -0.2973
19.7800 6.5765 -0.3062
19.8000 6.5833 -0.3042
19.8200 6.5899 -0.3032
19.8400 6.5966 -0.3041
19.8600 6.6032 -0.3026
19.8800 6.6099 -0.3052
19.9000 6.6165 -0.3115
19.9200 6.6232 -0.3043
19.9400 6.6299 -0.3063
19.9600 6.6366 -0.3132
19.9800 6.6433 -0.3113
20.0000 6.6500 -0.3086
20.0200 6.6567 -0.3159
20.0400 6.6634 -0.3078
20.0600 6.6700 -0.3128
20.0800 6.6766 -0.3144
20.1000 6.6832 -0.3087
20.1200 6.6899 -0.3171
20.1400 6.6966 -0.3166
20.1600 6.7033 -0.3116
20.1800 6.7100 -0.3233
20.2000 6.7167 -0.3143
20.2200 6.7233 -0.3123
20.2400 6.7300 -0.3249
20.2600 6.7366 -0.3139
20.2800 6.7432 -0.3181
20.3000 6.7499 -0.3276
20.3200 6.7566 -0.3194
20.3400 6.7633 -0.3168
20.3600 6.7699 -0.3311
20.3800 6.7766 -0.3208
20.4000 6.7833 -0.3261
20.4200 6.7899 -0.3315
20.4400 6.7965 -0.3194
20.4600 6.8032 -0.3196
20.4800 6.8098 -0.3298
20.5000 6.8165 -0.3251
20.5200 6.8232 -0.3276
20.5400 6.8299 -0.3328
20.5600 6.8366 -0.3247
20.5800 6.8433 -0.3227
20.6000 6.8500 -0.3379
20.6200 6.8566 -0.3312
20.6400 6.8632 -0.3262
20.6600 6.8699 -0.3348
20.6800 6.8766 -0.3349
20.7000 6.8833 -0.3294
20.7200 6.8900 -0.3425
20.7400 6.8967 -0.3354
20.7600 6.9034 -0.3283
20.7800 6.9100 -0.3487
20.8000 6.9166 -0.3306
20.8200 6.9232 -0.3324
20.8400 6.9299 -0.3468
20.8600 6.9366 -0.3338
20.8800 6.9433 -0.3334
20.9000 6.9500 -0.3551
20.9200 6.9566 -0.3347
20.9400 6.9633 -0.3327
20.9600 6.9700 -0.3552
20.9800 6.9766 -0.3380
21.0000 6.9832 -0.3367
21.0200 6.9899 -0.3562
21.0400 6.9966 -0.3370
21.0600 7.0032 -0.3422
21.0800 7.0099 -0.3577
21.1000 7.0166 -0.3393
21.1200 7.0233 -0.3490
21.1400 7.0300 -0.3526
21.1600 7.0366 -0.3392
21.1800 7.0432 -0.3529
21.2000 7.0498 -0.3564
21.2200 7.0565 -0.3409
21.2400 7.0632 -0.3590
21.2600 7.0699 -0.3535
21.2800 7.0766 -0.3457
21.3000 7.0833 -0.3598
21.3200 7.0899 -0.3560
21.3400 7.0965 -0.3469
21.3600 7.1032 -0.3604
21.3800 7.1098 -0.3588
21.4000 7.1166 -0.3517
21.4200 7.1233 -0.3645
21.4400 7.1299 -0.3581
21.4600 7.1366 -0.3587
21.4800 7.1433 -0.3650
21.5000 7.1500 -0.3589
21.5200 7.1566 -0.3608
21.5400 7.1632 -0.3636
21.5600 7.1699 -0.3601
21.5800 7.1765 -0.3655
21.6000 7.1832 -0.3624
21.6200 7.1899 -0.3618
21.6400 7.1966 -0.3676
21.6600 7.2033 -0.3641
21.6800 7.2100 -0.3667
21.7000 7.2166 -0.3738
21.7200 7.2232 -0.3604
21.7400 7.2298 -0.3714
21.7600 7.2366 -0.3684
21.7800 7.2433 -0.3609
21.8000 7.2500 -0.3749
21.8200 7.2566 -0.3702
21.8400 7.2633 -0.3670
21.8600 7.2700 -0.3802
21.8800 7.2766 -0.3720
21.9000 7.2832 -0.3657
21.9200 7.2898 -0.3767
21.9400 7.2965 -0.3747
21.9600 7.3032 -0.3731
21.9800 7.3099 -0.3791
22.0000 7.3166 -0.3697
22.0200 7.3233 -0.3764
22.0400 7.3299 -0.3804
22.0600 7.3366 -0.3712
22.0800 7.3432 -0.3809
22.1000 7.3498 -0.3800
22.1200 7.3565 -0.3704
22.1400 7.3632 -0.3813
22.1600 7.3700 -0.3841
22.1800 7.3766 -0.3735
22.2000 7.3834 -0.3873
22.2200 7.3900 -0.3830
22.2400 7.3966 -0.3759
22.2600 7.4032 -0.3893
22.2800 7.4099 -0.3811
22.3000 7.4166 -0.3819
22.3200 7.4233 -0.3909
22.3400 7.4300 -0.3846
22.3600 7.4366 -0.3839
22.3800 7.4433 -0.3848
22.4000 7.4500 -0.3913
22.4200 7.4566 -0.3800
22.4400 7.4632 -0.3877
22.4600 7.4698 -0.3899
22.4800 7.4765 -0.3852
22.5000 7.4832 -0.3972
22.5200 7.4899 -0.3879
22.5400 7.4966 -0.3915
22.5600 7.5033 -0.3928
22.5800 7.5100 -0.3930
22.6000 7.5166 -0.3899
22.6200 7.5232 -0.3939
22.6400 7.5298 -0.3893
22.6600 7.5365 -0.3938
22.6800 7.5432 -0.4023
22.7000 7.5499 -0.3894
22.7200 7.5566 -0.3918
22.7400 7.5633 -0.4011
22.7600 7.5700 -0.3961
22.7800 7.5766 -0.3988
22.8000 7.5832 -0.3975
22.8200 7.5899 -0.3987
22.8400 7.5965 -0.4002
22.8600 7.6032 -0.3972
22.8800 7.6099 -0.4010
22.9000 7.6166 -0.3945
22.9200 7.6233 -0.3976
22.9400 7.6300 -0.4027
22.9600 7.6367 -0.4037
22.9800 7.6433 -0.3906
23.0000 7.6499 -0.4105
23.0200 7.6566 -0.4092
23.0400 7.6633 -0.3923
23.0600 7.6700 -0.4113
23.0800 7.6766 -0.4089
23.1000 7.6833 -0.3963
23.1200 7.6900 -0.4119
23.1400 7.6966 -0.4058
23.1600 7.7032 -0.4045
23.1800 7.7098 -0.4142
23.2000 7.7165 -0.4064
23.2200 7.7232 -0.4112
23.2400 7.7299 -0.4155
23.2600 7.7366 -0.4099
23.2800 7.7433 -0.4072
23.3000 7.7500 -0.4139
23.3200 7.7566 -0.4148
23.3400 7.7632 -0.4147
23.3600 7.7698 -0.4046
23.3800 7.7765 -0.4138
23.4000 7.7832 -0.4164
23.4200 7.7899 -0.4166
23.4400 7.7966 -0.4184
23.4600 7.8032 -0.4163
23.4800 7.8099 -0.4149
23.5000 7.8166 -0.4236
23.5200 7.8232 -0.4183
23.5400 7.8298 -0.4161
23.5600 7.8365 -0.4225
23.5800 7.8432 -0.4223
23.6000 7.8500 -0.4186
23.6200 7.8567 -0.4250
23.6400 7.8634 -0.4231
23.6600 7.8700 -0.4262
23.6800 7.8767 -0.4303
23.7000 7.8832 -0.4240
23.7200 7.8899 -0.4263
23.7400 7.8965 -0.4309
23.7600 7.9032 -0.4250
23.7800 7.9100 -0.4235
23.8000 7.9166 -0.4377
23.8200 7.9233 -0.4290
23.8400 7.9300 -0.4252
23.8600 7.9366 -0.4304
23.8800 7.9432 -0.4368
23.9000 7.9499 -0.4315
23.9200 7.9565 -0.4293
23.9400 7.9633 -0.4367
23.9600 7.9699 -0.4360
23.9800 7.9766 -0.4366
24.0000 7.9833 -0.4362
24.0200 7.9900 -0.4361
24.0400 7.9966 -0.4416
24.0600 8.0032 -0.4343
24.0800 8.0099 -0.4384
24.1000 8.0165 -0.4429
24.1200 8.0232 -0.4397
24.1400 8.0299 -0.4397
24.1600 8.0366 -0.4405
24.1800 8.0433 -0.4411
24.2000 8.0499 -0.4444
24.2200 8.0566 -0.4475
24.2400 8.0632 -0.4434
24.2600 8.0698 -0.4471
24.2800 8.0765 -0.4424
24.3000 8.0833 -0.4462
24.3200 8.0900 -0.4501
24.3400 8.0967 -0.4479
24.3600 8.1033 -0.4446
24.3800 8.1100 -0.4540
24.4000 8.1166 -0.4511
24.4200 8.1232 -0.4481
24.4400 8.1298 -0.4528
24.4600 8.1365 -0.4491
24.4800 8.1433 -0.4483
24.5000 8.1500 -0.4582
24.5200 8.1567 -0.4517
24.5400 8.1633 -0.4559
24.5600 8.1700 -0.4564
24.5800 8.1766 -0.4490
24.6000 8.1832 -0.4606
24.6200 8.1899 -0.4541
24.6400 8.1965 -0.4521
24.6600 8.2032 -0.4634
24.6800 8.2099 -0.4580
24.7000 8.2166 -0.4539
24.7200 8.2233 -0.4697
24.7400 8.2300 -0.4618
24.7600 8.2366 -0.4553
24.7800 8.2432 -0.4695
24.8000 8.2498 -0.4600
24.8200 8.2565 -0.4515
24.8400 8.2632 -0.4749
24.8600 8.2699 -0.4610
24.8800 8.2766 -0.4577
24.9000 8.2833 -0.4733
24.9200 8.2900 -0.4632
24.9400 8.2966 -0.4608
24.9600 8.3032 -0.4773
24.9800 8.3099 -0.4612
25.0000 8.3165 -0.4601
25.0200 8.3232 -0.4819
25.0400 8.3299 -0.4583
25.0600 8.3366 -0.4655
25.0800 8.3433 -0.4789
25.1000 8.3500 -0.4711
25.1200 8.3567 -0.4871
25.1400 8.3633 -0.5051
25.1600 8.3699 -0.4909
25.1800 8.3765 -0.4946
25.2000 8.3832 -0.4975
25.2200 8.3899 -0.4879
25.2400 8.3966 -0.4965
25.2600 8.4033 -0.4989
25.2800 8.4100 -0.4852
25.3000 8.4167 -0.4981
25.3200 8.4232 -0.4975
25.3400 8.4299 -0.4918
25.3600 8.4365 -0.4924
25.3800 8.4432 -0.4963
25.4000 8.4500 -0.4978
25.4200 8.4566 -0.4936
25.4400 8.4633 -0.4971
25.4600 8.4700 -0.4960
25.4800 8.4766 -0.4949
25.5000 8.4832 -0.4976
25.5200 8.4898 -0.5000
25.5400 8.4965 -0.4903
25.5600 8.5032 -0.4962
25.5800 8.5099 -0.5057
25.6000 8.5165 -0.4929
25.6200 8.5232 -0.4947
25.6400 8.5299 -0.5082
25.6600 8.5366 -0.4950
25.6800 8.5432 -0.4975
25.7000 8.5499 -0.4996
25.7200 8.5565 -0.4957
25.7400 8.5632 -0.5028
25.7600 8.5699 -0.5002
25.7800 8.5766 -0.4929
25.8000 8.5833 -0.5080
25.8200 8.5900 -0.5021
25.8400 8.5967 -0.4967
25.8600 8.6033 -0.5092
25.8800 8.6099 -0.5022
25.9000 8.6165 -0.4959
25.9200 8.6233 -0.5076
25.9400 8.6300 -0.5053
25.9600 8.6367 -0.5070
25.9800 8.6433 -0.5064
26.0000 8.6500 -0.4988
26.0200 8.6567 -0.5138
26.0400 8.6633 -0.5091
26.0600 8.6699 -0.4999
26.0800 8.6765 -0.5095
26.1000 8.6832 -0.5123
26.1200 8.6899 -0.5013
26.1400 8.6966 -0.5138
26.1600 8.7033 -0.5148
26.1800 8.7099 -0.5026
26.2000 8.7166 -0.5122
26.2200 8.7232 -0.5153
26.2400 8.7298 -0.5063
26.2600 8.7365 -0.5125
26.2800 8.7432 -0.5131
26.3000 8.7499 -0.5119
26.3200 8.7566 -0.5174
26.3400 8.7632 -0.5091
26.3600 8.7699 -0.5152
26.3800 8.7766 -0.5243
26.4000 8.7832 -0.5117
26.4200 8.7898 -0.5158
26.4400 8.7965 -0.5256
26.4600 8.8032 -0.5102
26.4800 8.8100 -0.5193
26.5000 8.8167 -0.5203
26.5200 8.8233 -0.5165
26.5400 8.8300 -0.5229
26.5600 8.8367 -0.5241
26.5800 8.8433 -0.5218
26.6000 8.8499 -0.5281
26.6200 8.8566 -0.5184
26.6400 8.8632 -0.5205
26.6600 8.8699 -0.5355
26.6800 8.8766 -0.5213
26.7000 8.8833 -0.5212
26.7200 8.8900 -0.5377
26.7400 8.8967 -0.5234
26.7600 8.9033 -0.5264
26.7800 8.9099 -0.5351
26.8000 8.9165 -0.5220
26.8200 8.9232 -0.5333
26.8400 8.9299 -0.5306
26.8600 8.9366 -0.5284
26.8800 8.9433 -0.5371
26.9000 8.9500 -0.5355
26.9200 8.9566 -0.5307
26.9400 8.9632 -0.5416
26.9600 8.9698 -0.5345
26.9800 8.9765 -0.5313
27.0000 8.9832 -0.5418
27.0200 8.9899 -0.5350
27.0400 8.9966 -0.5374
27.0600 9.0032 -0.5419
27.0800 9.0099 -0.5373
27.1000 9.0166 -0.5422
27.1200 9.0233 -0.5439
27.1400 9.0299 -0.5385
27.1600 9.0365 -0.5456
27.1800 9.0432 -0.5431
27.2000 9.0499 -0.5382
27.2200 9.0566 -0.5445
27.2400 9.0633 -0.5434
27.2600 9.0700 -0.5367
27.2800 9.0767 -0.5503
27.3000 9.0833 -0.5456
27.3200 9.0899 -0.5425
27.3400 9.0965 -0.5489
27.3600 9.1032 -0.5432
27.3800 9.1099 -0.5406
27.4000 9.1167 -0.5576
27.4200 9.1233 -0.5435
27.4400 9.1300 -0.5481
27.4600 9.1367 -0.5590
27.4800 9.1433 -0.5450
27.5000 9.1499 -0.5438
27.5200 9.1565 -0.5599
27.5400 9.1632 -0.5500
27.5600 9.1699 -0.5452
27.5800 9.1766 -0.5513
27.6000 9.1833 -0.5553
27.6200 9.1900 -0.5601
27.6400 9.1966 -0.5459
27.6600 9.2033 -0.5499
27.6800 9.2099 -0.5617
27.7000 9.2165 -0.5582
27.7200 9.2231 -0.5517
27.7400 9.2299 -0.5586
27.7600 9.2366 -0.5510
27.7800 9.2433 -0.5570
27.8000 9.2500 -0.5631
27.8200 9.2566 -0.5499
27.8400 9.2633 -0.5536
27.8600 9.2699 -0.5684
27.8800 9.2765 -0.5530
27.9000 9.2832 -0.5540
27.9200 9.2899 -0.5612
27.9400 9.2967 -0.5587
27.9600 9.3033 -0.5687
27.9800 9.3100 -0.5636
28.0000 9.3167 -0.5475
28.0200 9.3233 -0.5709
28.0400 9.3299 -0.5802
28.0600 9.3365 -0.5459
28.0800 9.3432 -0.5652
28.1000 9.3499 -0.5771
28.1200 9.3566 -0.5559
28.1400 9.3633 -0.5673
28.1600 9.3700 -0.5762
28.1800 9.3766 -0.5521
28.2000 9.3833 -0.5688
28.2200 9.3899 -0.5825
28.2400 9.3965 -0.5573
28.2600 9.4032 -0.5645
28.2800 9.4099 -0.5748
28.3000 9.4166 -0.5610
28.3200 9.4233 -0.5780
28.3400 9.4300 -0.5744
28.3600 9.4366 -0.5648
28.3800 9.4433 -0.5782
28.4000 9.4499 -0.5724
28.4200 9.4565 -0.5668
28.4400 9.4632 -0.5885
28.4600 9.4699 -0.5673
28.4800 9.4766 -0.5614
28.5000 9.4833 -0.5869
28.5200 9.4899 -0.5737
28.5400 9.4966 -0.5686
28.5600 9.5033 -0.5847
28.5800 9.5099 -0.5754
28.6000 9.5165 -0.5690
28.6200 9.5232 -0.5823
28.6400 9.5299 -0.5726
28.6600 9.5366 -0.5824
28.6800 9.5433 -0.5784
28.7000 9.5500 -0.5725
28.7200 9.5567 -0.5857
28.7400 9.5633 -0.5795
28.7600 9.5699 -0.5747
28.7800 9.5766 -0.5847
28.8000 9.5832 -0.5768
28.8200 9.5899 -0.5762
28.8400 9.5966 -0.5870
28.8600 9.6033 -0.5827
28.8800 9.6100 -0.5720
28.9000 9.6167 -0.5898
28.9200 9.6233 -0.5902
28.9400 9.6299 -0.5769
28.9600 9.6365 -0.5850
28.9800 9.6432 -0.5815
29.0000 9.6499 -0.5874
29.0200 9.6566 -0.5901
29.0400 9.6632 -0.5845
29.0600 9.6699 -0.5827
29.0800 9.6766 -0.5953
29.1000 9.6833 -0.5833
29.1200 9.6899 -0.5860
29.1400 9.6965 -0.5926
29.1600 9.7032 -0.5833
29.1800 9.7099 -0.5930
29.2000 9.7166 -0.5977
29.2200 9.7232 -0.5834
29.2400 9.7299 -0.5944
29.2600 9.7366 -0.5990
29.2800 9.7433 -0.5884
29.3000 9.7499 -0.5938
29.3200 9.7565 -0.5992
29.3400 9.7632 -0.5830
29.3600 9.7699 -0.5993
29.3800 9.7766 -0.5999
29.4000 9.7833 -0.5847
29.4200 9.7900 -0.6016
29.4400 9.7967 -0.6017
29.4600 9.8033 -0.5929
29.4800 9.8099 -0.5982
29.5000 9.8165 -0.6041
29.5200 9.8232 -0.5906
29.5400 9.8299 -0.6005
29.5600 9.8366 -0.6052
29.5800 9.8433 -0.5967
29.6000 9.8500 -0.6016
29.6200 9.8567 -0.6076
29.6400 9.8633 -0.5962
29.6600 9.8699 -0.6092
29.6800 9.8765 -0.6060
29.7000 9.8832 -0.5921
29.7200 9.8899 -0.6095
29.7400 9.8966 -0.6088
29.7600 9.9033 -0.6011
29.7800 9.9099 -0.6094
29.8000 9.9166 -0.6116
29.8200 9.9233 -0.6062
29.8400 9.9299 -0.6132
29.8600 9.9365 -0.6139
29.8800 9.9431 -0.6020
29.9000 9.9498 -0.6074
29.9200 9.9565 -0.6188
29.9400 9.9632 -0.6092
29.9600 9.9699 -0.6107
29.9800 9.9766 -0.6136
30.0000 9.9833 -0.6155
30.0200 9.9899 -0.6106
30.0400 9.9965 -0.6171
30.0600 10.0032 -0.6161
30.0800 10.0099 -0.6080
30.1000 10.0166 -0.6189
30.1200 10.0233 -0.6185
30.1400 10.0300 -0.6125
30.1600 10.0367 -0.6199
30.1800 10.0433 -0.6209
30.2000 10.0500 -0.6159
30.2200 10.0566 -0.6200
30.2400 10.0632 -0.6202
30.2600 10.0699 -0.6215
30.2800 10.0766 -0.6273
30.3000 10.0833 -0.6201
30.3200 10.0900 -0.6156
30.3400 10.0967 -0.6280
30.3600 10.1033 -0.6227
30.3800 10.1099 -0.6300
30.4000 10.1165 -0.6241
30.4200 10.1232 -0.6209
30.4400 10.1298 -0.6338
30.4600 10.1366 -0.6308
30.4800 10.1432 -0.6189
30.5000 10.1499 -0.6262
30.5200 10.1566 -0.6368
30.5400 10.1633 -0.6305
30.5600 10.1699 -0.6253
30.5800 10.1765 -0.6308
30.6000 10.1832 -0.6245
30.6200 10.1899 -0.6319
30.6400 10.1966 -0.6360
30.6600 10.2033 -0.6245
30.6800 10.2099 -0.6318
30.7000 10.2166 -0.6416
30.7200 10.2233 -0.6316
30.7400 10.2299 -0.6271
30.7600 10.2366 -0.6331
30.7800 10.2432 -0.6382
30.8000 10.2499 -0.6362
30.8200 10.2566 -0.6269
30.8400 10.2633 -0.6433
30.8600 10.2700 -0.6400
30.8800 10.2767 -0.6321
30.9000 10.2833 -0.6401
30.9200 10.2899 -0.6453
30.9400 10.2965 -0.6295
30.9600 10.3032 -0.6379
30.9800 10.3099 -0.6423
31.0000 10.3166 -0.6413
31.0200 10.3233 -0.6407
31.0400 10.3300 -0.6364
31.0600 10.3366 -0.6459
31.0800 10.3433 -0.6486
31.1000 10.3499 -0.6369
31.1200 10.3565 -0.6427
31.1400 10.3631 -0.6520
31.1600 10.3699 -0.6379
31.1800 10.3766 -0.6436
31.2000 10.3833 -0.6529
31.2200 10.3899 -0.6397
31.2400 10.3966 -0.6428
31.2600 10.4033 -0.6546
31.2800 10.4099 -0.6413
31.3000 10.4165 -0.6477
31.3200 10.4232 -0.6478
31.3400 10.4299 -0.6497
31.3600 10.4366 -0.6489
31.3800 10.4432 -0.6479
31.4000 10.4499 -0.6492
31.4200 10.4566 -0.6552
31.4400 10.4633 -0.6469
31.4600 10.4700 -0.6482
31.4800 10.4765 -0.6548
31.5000 10.4832 -0.6513
31.5200 10.4899 -0.6465
31.5400 10.4966 -0.6539
31.5600 10.5033 -0.6570
31.5800 10.5100 -0.6538
31.6000 10.5167 -0.6539
31.6200 10.5233 -0.6513
31.6400 10.5300 -0.6508
31.6600 10.5366 -0.6571
31.6800 10.5432 -0.6595
31.7000 10.5499 -0.6493
31.7200 10.5566 -0.6639
31.7400 10.5633 -0.6570
31.7600 10.5700 -0.6519
31.7800 10.5767 -0.6623
31.8000 10.5833 -0.6579
31.8200 10.5900 -0.6608
31.8400 10.5966 -0.6612
31.8600 10.6032 -0.6503
31.8800 10.6099 -0.6568
31.9000 10.6166 -0.6701
31.9200 10.6233 -0.6623
31.9400 10.6300 -0.6548
31.9600 10.6366 -0.6656
31.9800 10.6433 -0.6617
32.0000 10.6499 -0.6640
32.0200 10.6565 -0.6676
32.0400 10.6631 -0.6520
32.0600 10.6698 -0.6642
32.0800 10.6766 -0.6692
32.1000 10.6833 -0.6600
32.1200 10.6899 -0.6686
32.1400 10.6966 -0.6755
32.1600 10.7033 -0.6612
32.1800 10.7099 -0.6661
32.2000 10.7165 -0.6740
32.2200 10.7232 -0.6657
32.2400 10.7299 -0.6640
32.2600 10.7366 -0.6753
32.2800 10.7433 -0.6706
32.3000 10.7500 -0.6632
32.3200 10.7567 -0.6726
32.3400 10.7634 -0.6777
32.3600 10.7700 -0.6689
32.3800 10.7766 -0.6705
32.4000 10.7832 -0.6774
32.4200 10.7899 -0.6694
32.4400 10.7966 -0.6764
32.4600 10.8033 -0.6786
32.4800 10.8100 -0.6701
32.5000 10.8167 -0.6739
32.5200 10.8233 -0.6817
32.5400 10.8299 -0.6656
32.5600 10.8365 -0.6791
32.5800 10.8431 -0.6791
32.6000 10.8499 -0.6700
32.6200 10.8566 -0.6779
32.6400 10.8633 -0.6845
32.6600 10.8700 -0.6733
32.6800 10.8766 -0.6797
32.7000 10.8833 -0.6804
32.7200 10.8899 -0.6770
32.7400 10.8966 -0.6849
32.7600 10.9032 -0.6811
32.7800 10.9099 -0.6742
32.8000 10.9166 -0.6834
32.8200 10.9233 -0.6863
32.8400 10.9299 -0.6832
32.8600 10.9366 -0.6811
32.8800 10.9433 -0.6846
32.9000 10.9500 -0.6882
32.9200 10.9566 -0.6798
32.9400 10.9632 -0.6885
32.9600 10.9698 -0.6899
32.9800 10.9766 -0.6812
33.0000 10.9833 -0.6892
33.0200 10.9900 -0.6970
33.0400 10.9966 -0.6755
33.0600 11.0033 -0.6918
33.0800 11.0100 -0.7017
33.1000 11.0166 -0.6770
33.1200 11.0232 -0.6933
33.1400 11.0299 -0.6994
33.1600 11.0366 -0.6784
33.1800 11.0433 -0.6990
33.2000 11.0500 -0.7000
33.2200 11.0567 -0.6779
33.2400 11.0633 -0.7017
33.2600 11.0700 -0.7033
33.2800 11.0766 -0.6815
33.3000 11.0832 -0.7016
33.3200 11.0899 -0.6992
33.3400 11.0966 -0.6863
33.3600 11.1033 -0.7075
33.3800 11.1099 -0.6990
33.4000 11.1166 -0.6898
33.4200 11.1233 -0.7063
33.4400 11.1299 -0.7048
33.4600 11.1366 -0.6889
33.4800 11.1432 -0.7060
33.5000 11.1498 -0.7067
33.5200 11.1565 -0.6930
33.5400 11.1632 -0.7067
33.5600 11.1699 -0.7083
33.5800 11.1766 -0.6931
33.6000 11.1833 -0.7072
33.6200 11.1900 -0.7096
33.6400 11.1966 -0.6990
33.6600 11.2032 -0.7042
33.6800 11.2099 -0.7113
33.7000 11.2166 -0.7010
33.7200 11.2233 -0.7086
33.7400 11.2300 -0.7145
33.7600 11.2367 -0.6929
33.7800 11.2433 -0.7140
33.8000 11.2500 -0.7187
33.8200 11.2566 -0.6973
33.8400 11.2632 -0.7086
33.8600 11.2698 -0.7236
33.8800 11.2766 -0.7040
33.9000 11.2833 -0.7109
33.9200 11.2900 -0.7236
33.9400 11.2967 -0.7030
33.9600 11.3033 -0.7141
33.9800 11.3100 -0.7250
34.0000 11.3166 -0.6983
34.0200 11.3232 -0.7238
34.0400 11.3298 -0.7279
34.0600 11.3365 -0.6953
34.0800 11.3432 -0.7220
34.1000 11.3499 -0.7301
34.1200 11.3566 -0.7005
34.1400 11.3633 -0.7213
34.1600 11.3700 -0.7319
34.1800 11.3766 -0.7037
34.2000 11.3831 -0.7240
34.2200 11.3898 -0.7232
34.2400 11.3965 -0.7082
34.2600 11.4032 -0.7297
34.2800 11.4099 -0.7255
34.3000 11.4166 -0.7072
34.3200 11.4233 -0.7297
34.3400 11.4299 -0.7235
34.3600 11.4366 -0.7134
34.3800 11.4432 -0.7326
34.4000 11.4499 -0.7216
34.4200 11.4566 -0.7158
34.4400 11.4633 -0.7365
34.4600 11.4700 -0.7260
34.4800 11.4767 -0.7165
34.5000 11.4834 -0.7318
34.5200 11.4900 -0.7234
34.5400 11.4966 -0.7244
34.5600 11.5032 -0.7322
34.5800 11.5099 -0.7221
34.6000 11.5166 -0.7292
34.6200 11.5233 -0.7310
34.6400 11.5300 -0.7239
34.6600 11.5367 -0.7382
34.6800 11.5433 -0.7263
34.7000 11.5500 -0.7253
34.7200 11.5566 -0.7443
34.7400 11.5632 -0.7353
34.7600 11.5698 -0.7209
34.7800 11.5766 -0.7385
34.8000 11.5833 -0.7378
34.8200 11.5899 -0.7306
34.8400 11.5966 -0.7372
34.8600 11.6033 -0.7335
34.8800 11.6099 -0.7323
34.9000 11.6165 -0.7434
34.9200 11.6231 -0.7339
34.9400 11.6298 -0.7346
34.9600 11.6365 -0.7456
34.9800 11.6432 -0.7285
35.0000 11.6499 -0.7345
35.0200 11.6566 -0.7474
35.0400 11.6633 -0.7324
35.0600 11.6700 -0.7363
35.0800 11.6766 -0.7478
35.1000 11.6832 -0.7306
35.1200 11.6899 -0.7407
35.1400 11.6966 -0.7433
35.1600 11.7033 -0.7390
35.1800 11.7100 -0.7455
35.2000 11.7166 -0.7429
35.2200 11.7233 -0.7402
35.2400 11.7300 -0.7465
35.2600 11.7366 -0.7387
35.2800 11.7432 -0.7473
35.3000 11.7499 -0.7465
35.3200 11.7566 -0.7356
35.3400 11.7633 -0.7494
35.3600 11.7700 -0.7523
35.3800 11.7766 -0.7372
35.4000 11.7833 -0.7487
35.4200 11.7900 -0.7523
35.4400 11.7966 -0.7378
35.4600 11.8032 -0.7525
35.4800 11.8099 -0.7507
35.5000 11.8166 -0.7373
35.5200 11.8233 -0.7542
35.5400 11.8299 -0.7492
35.5600 11.8366 -0.7433
35.5800 11.8433 -0.7528
35.6000 11.8500 -0.7486
35.6200 11.8566 -0.7501
35.6400 11.8632 -0.7524
35.6600 11.8698 -0.7506
35.6800 11.8765 -0.7485
35.7000 11.8832 -0.7505
35.7200 11.8899 -0.7522
35.7400 11.8966 -0.7556
35.7600 11.9033 -0.7492
35.7800 11.9099 -0.7547
35.8000 11.9166 -0.7621
35.8200 11.9232 -0.7480
35.8400 11.9299 -0.7546
35.8600 11.9366 -0.7590
35.8800 11.9433 -0.7522
35.9000 11.9499 -0.7580
35.9200 11.9566 -0.7574
35.9400 11.9633 -0.7524
35.9600 11.9700 -0.7606
35.9800 11.9766 -0.7547
36.0000 11.9832 -0.7550
36.0200 11.9899 -0.7652
36.0400 11.9966 -0.7584
36.0600 12.0032 -0.7477
36.0800 12.0099 -0.7740
36.1000 12.0166 -0.7616
36.1200 12.0233 -0.7546
36.1400 12.0300 -0.7698
36.1600 12.0366 -0.7607
36.1800 12.0432 -0.7641
36.2000 12.0498 -0.7682
36.2200 12.0565 -0.7553
36.2400 12.0633 -0.7661
36.2600 12.0699 -0.7716
36.2800 12.0766 -0.7589
36.3000 12.0833 -0.7690
36.3200 12.0900 -0.7738
36.3400 12.0966 -0.7638
36.3600 12.1032 -0.7687
36.3800 12.1098 -0.7703
36.4000 12.1165 -0.7622
36.4200 12.1232 -0.7742
36.4400 12.1299 -0.7666
36.4600 12.1366 -0.7710
36.4800 12.1432 -0.7731
36.5000 12.1500 -0.7648
36.5200 12.1566 -0.7767
36.5400 12.1632 -0.7784
36.5600 12.1699 -0.7642
36.5800 12.1765 -0.7801
36.6000 12.1833 -0.7734
36.6200 12.1900 -0.7671
36.6400 12.1967 -0.7860
36.6600 12.2033 -0.7744
36.6800 12.2100 -0.7696
36.7000 12.2166 -0.7853
36.7200 12.2232 -0.7763
36.7400 12.2299 -0.7732
36.7600 12.2366 -0.7861
36.7800 12.2433 -0.7775
36.8000 12.2500 -0.7780
36.8200 12.2567 -0.7810
36.8400 12.2633 -0.7784
36.8600 12.2700 -0.7816
36.8800 12.2766 -0.7866
36.9000 12.2832 -0.7767
36.9200 12.2898 -0.7794
36.9400 12.2965 -0.7832
36.9600 12.3032 -0.7836
36.9800 12.3099 -0.7857
37.0000 12.3166 -0.7835
37.0200 12.3233 -0.7854
37.0400 12.3300 -0.7843
37.0600 12.3366 -0.7797
37.0800 12.3432 -0.7947
37.1000 12.3498 -0.7844
37.1200 12.3565 -0.7814
37.1400 12.3632 -0.7965
37.1600 12.3699 -0.7837
37.1800 12.3766 -0.7919
37.2000 12.3833 -0.7975
37.2200 12.3900 -0.7819
37.2400 12.3966 -0.7947
37.2600 12.4032 -0.7981
37.2800 12.4098 -0.7801
37.3000 12.4165 -0.7952
37.3200 12.4233 -0.7996
37.3400 12.4300 -0.7844
37.3600 12.4366 -0.7984
37.3800 12.4433 -0.8034
37.4000 12.4500 -0.7815
37.4200 12.4567 -0.8050
37.4400 12.4633 -0.7984
37.4600 12.4699 -0.7855
37.4800 12.4765 -0.8046
37.5000 12.4832 -0.7950
37.5200 12.4900 -0.7963
37.5400 12.4966 -0.8025
37.5600 12.5033 -0.7956
37.5800 12.5100 -0.8016
37.6000 12.5167 -0.8051
37.6200 12.5232 -0.7911
37.6400 12.5298 -0.8040
37.6600 12.5365 -0.8095
37.6800 12.5432 -0.7987
37.7000 12.5499 -0.8028
37.7200 12.5566 -0.8114
37.7400 12.5633 -0.7954
37.7600 12.5700 -0.8045
37.7800 12.5766 -0.8043
37.8000 12.5832 -0.8090
37.8200 12.5898 -0.8028
37.8400 12.5964 -0.8007
37.8600 12.6032 -0.8090
37.8800 12.6099 -0.8095
37.9000 12.6166 -0.8037
37.9200 12.6233 -0.8103
37.9400 12.6299 -0.8075
37.9600 12.6366 -0.8068
37.9800 12.6432 -0.8137
38.0000 12.6498 -0.8066
38.0200 12.6565 -0.8071
38.0400 12.6633 -0.8211
38.0600 12.6700 -0.8057
38.0800 12.6766 -0.8049
38.1000 12.6833 -0.8192
38.1200 12.6900 -0.8030
38.1400 12.6967 -0.8169
38.1600 12.7033 -0.8219
38.1800 12.7099 -0.8075
38.2000 12.7165 -0.8108
38.2200 12.7232 -0.8230
38.2400 12.7299 -0.8100
38.2600 12.7366 -0.8205
38.2800 12.7433 -0.8207
38.3000 12.7500 -0.8074
38.3200 12.7567 -0.8209
38.3400 12.7632 -0.8218
38.3600 12.7698 -0.8081
38.3800 12.7765 -0.8233
38.4000 12.7832 -0.8234
38.4200 12.7899 -0.8129
38.4400 12.7966 -0.8235
38.4600 12.8033 -0.8196
38.4800 12.8100 -0.8171
38.5000 12.8166 -0.8253
38.5200 12.8232 -0.8224
38.5400 12.8299 -0.8189
38.5600 12.8365 -0.8255
38.5800 12.8432 -0.8213
38.6000 12.8499 -0.8215
38.6200 12.8566 -0.8257
38.6400 12.8632 -0.8265
38.6600 12.8699 -0.8193
38.6800 12.8766 -0.8149
38.7000 12.8832 -0.8346
38.7200 12.8898 -0.8291
38.7400 12.8965 -0.8152
38.7600 12.9032 -0.8349
38.7800 12.9099 -0.8238
38.8000 12.9166 -0.8215
38.8200 12.9233 -0.8362
38.8400 12.9300 -0.8253
38.8600 12.9367 -0.8271
38.8800 12.9433 -0.8386
38.9000 12.9499 -0.8223
38.9200 12.9565 -0.8288
38.9400 12.9632 -0.8431
38.9600 12.9700 -0.8235
38.9800 12.9767 -0.8341
39.0000 12.9833 -0.8406
39.0200 12.9900 -0.8232
39.0400 12.9966 -0.8356
39.0600 13.0033 -0.8427
39.0800 13.0099 -0.8227
39.1000 13.0165 -0.8385
39.1200 13.0232 -0.8399
39.1400 13.0299 -0.8267
39.1600 13.0366 -0.8418
39.1800 13.0433 -0.8378
39.2000 13.0499 -0.8298
39.2200 13.0566 -0.8444
39.2400 13.0632 -0.8425
39.2600 13.0698 -0.8314
39.2800 13.0765 -0.8446
39.3000 13.0832 -0.8424
39.3200 13.0899 -0.8328
39.3400 13.0966 -0.8442
39.3600 13.1033 -0.8475
39.3800 13.1100 -0.8332
39.4000 13.1166 -0.8394
39.4200 13.1232 -0.8423
39.4400 13.1299 -0.8458
39.4600 13.1365 -0.8518
39.4800 13.1432 -0.8492
39.5000 13.1500 -0.8383
39.5200 13.1566 -0.8530
39.5400 13.1633 -0.8439
39.5600 13.1700 -0.8436
39.5800 13.1766 -0.8545
39.6000 13.1833 -0.8494
39.6200 13.1899 -0.8438
39.6400 13.1965 -0.8544
39.6600 13.2032 -0.8504
39.6800 13.2099 -0.8511
39.7000 13.2166 -0.8548
39.7200 13.2233 -0.8524
39.7400 13.2300 -0.8544
39.7600 13.2366 -0.8552
39.7800 13.2432 -0.8566
39.8000 13.2499 -0.8568
39.8200 13.2565 -0.8574
39.8400 13.2632 -0.8528
39.8600 13.2700 -0.8554
39.8800 13.2767 -0.8587
39.9000 13.2833 -0.8532
39.9200 13.2900 -0.8549
39.9400 13.2966 -0.8622
39.9600 13.3033 -0.8627
39.9800 13.3098 -0.8577
40.0000 13.3165 -0.8511
40.0200 13.3232 -0.8631
40.0400 13.3299 -0.8648
40.0600 13.3366 -0.8623
40.0800 13.3432 -0.8598
40.1000 13.3499 -0.8633
40.1200 13.3566 -0.8592
40.1400 13.3632 -0.8618
40.1600 13.3699 -0.8688
40.1800 13.3765 -0.8625
40.2000 13.3832 -0.8689
40.2200 13.3899 -0.8622
40.2400 13.3966 -0.8651
40.2600 13.4033 -0.8720
40.2800 13.4100 -0.8642
40.3000 13.4167 -0.8629
40.3200 13.4233 -0.8708
40.3400 13.4299 -0.8659
40.3600 13.4365 -0.8661
40.3800 13.4432 -0.8663
40.4000 13.4500 -0.8678
40.4200 13.4567 -0.8700
40.4400 13.4633 -0.8731
40.4600 13.4700 -0.8642
40.4800 13.4767 -0.8750
40.5000 13.4833 -0.8759
40.5200 13.4898 -0.8667
40.5400 13.4965 -0.8643
40.5600 13.5032 -0.8765
40.5800 13.5099 -0.8795
40.6000 13.5166 -0.8718
40.6200 13.5233 -0.8692
40.6400 13.5299 -0.8781
40.6600 13.5366 -0.8723
40.6800 13.5432 -0.8698
40.7000 13.5498 -0.8822
40.7200 13.5565 -0.8707
40.7400 13.5632 -0.8788
40.7600 13.5699 -0.8794
40.7800 13.5766 -0.8718
40.8000 13.5833 -0.8780
40.8200 13.5899 -0.8818
40.8400 13.5966 -0.8709
40.8600 13.6032 -0.8791
40.8800 13.6098 -0.8855
40.9000 13.6165 -0.8722
40.9200 13.6232 -0.8783
40.9400 13.6299 -0.8802
40.9600 13.6367 -0.8786
40.9800 13.6433 -0.8880
41.0000 13.6500 -0.8776
41.0200 13.6567 -0.8752
41.0400 13.6633 -0.8868
41.0600 13.6699 -0.8814
41.0800 13.6765 -0.8745
41.1000 13.6832 -0.8876
41.1200 13.6899 -0.8852
41.1400 13.6966 -0.8784
41.1600 13.7033 -0.8884
41.1800 13.7100 -0.8840
41.2000 13.7167 -0.8841
41.2200 13.7233 -0.8777
41.2400 13.7299 -0.8877
41.2600 13.7365 -0.8879
41.2800 13.7432 -0.8784
41.3000 13.7499 -0.8917
41.3200 13.7566 -0.8888
41.3400 13.7633 -0.8808
41.3600 13.7700 -0.8931
41.3800 13.7766 -0.8892
41.4000 13.7833 -0.8871
41.4200 13.7898 -0.8952
41.4400 13.7965 -0.8859
41.4600 13.8032 -0.8861
41.4800 13.8099 -0.8981
41.5000 13.8166 -0.8883
41.5200 13.8233 -0.8840
41.5400 13.8299 -0.9012
41.5600 13.8366 -0.8909
41.5800 13.8433 -0.8895
41.6000 13.8499 -0.9019
41.6200 13.8565 -0.8856
41.6400 13.8632 -0.8919
41.6600 13.8699 -0.9086
41.6800 13.8766 -0.8896
41.7000 13.8833 -0.8906
41.7200 13.8900 -0.9064
41.7400 13.8967 -0.8944
41.7600 13.9033 -0.8931
41.7800 13.9099 -0.9097
41.8000 13.9165 -0.8947
41.8200 13.9232 -0.8930
41.8400 13.9299 -0.9117
41.8600 13.9366 -0.8941
41.8800 13.9433 -0.8948
41.9000 13.9500 -0.9113
41.9200 13.9566 -0.8896
41.9400 13.9633 -0.8945
41.9600 13.9699 -0.9139
41.9800 13.9766 -0.8934
42.0000 13.9832 -0.9053
42.0200 13.9900 -0.9110
42.0400 13.9966 -0.8966
42.0600 14.0033 -0.9058
42.0800 14.0099 -0.9096
42.1000 14.0166 -0.9000
42.1200 14.0233 -0.9096
42.1400 14.0299 -0.9067
42.1600 14.0365 -0.9044
42.1800 14.0432 -0.9106
42.2000 14.0498 -0.9083
42.2200 14.0565 -0.9034
42.2400 14.0632 -0.9086
42.2600 14.0699 -0.9126
42.2800 14.0767 -0.9113
42.3000 14.0833 -0.9148
42.3200 14.0899 -0.9133
42.3400 14.0965 -0.9092
42.3600 14.1032 -0.9067
42.3800 14.1099 -0.9190
42.4000 14.1166 -0.9193
42.4200 14.1233 -0.9126
42.4400 14.1300 -0.9150
42.4600 14.1367 -0.9167
42.4800 14.1433 -0.9116
42.5000 14.1499 -0.9202
42.5200 14.1565 -0.9176
42.5400 14.1632 -0.9156
42.5600 14.1699 -0.9201
42.5800 14.1766 -0.9197
42.6000 14.1833 -0.9111
42.6200 14.1900 -0.9239
42.6400 14.1966 -0.9222
42.6600 14.2033 -0.9138
42.6800 14.2099 -0.9240
42.7000 14.2165 -0.9235
42.7200 14.2232 -0.9156
42.7400 14.2299 -0.9276
42.7600 14.2366 -0.9262
42.7800 14.2433 -0.9180
42.8000 14.2500 -0.9258
42.8200 14.2567 -0.9305
42.8400 14.2633 -0.9210
42.8600 14.2699 -0.9251
42.8800 14.2765 -0.9283
42.9000 14.2832 -0.9210
42.9200 14.2899 -0.9338
42.9400 14.2966 -0.9236
42.9600 14.3033 -0.9272
42.9800 14.3100 -0.9322
43.0000 14.3166 -0.9267
43.0200 14.3233 -0.9287
43.0400 14.3299 -0.9344
43.0600 14.3365 -0.9270
43.0800 14.3432 -0.9299
43.1000 14.3499 -0.9345
43.1200 14.3566 -0.9303
43.1400 14.3633 -0.9296
43.1600 14.3700 -0.9347
43.1800 14.3767 -0.9322
43.2000 14.3833 -0.9304
43.2200 14.3899 -0.9344
43.2400 14.3965 -0.9325
43.2600 14.4032 -0.9309
43.2800 14.4099 -0.9349
43.3000 14.4166 -0.9358
43.3200 14.4233 -0.9285
43.3400 14.4300 -0.9363
43.3600 14.4367 -0.9355
43.3800 14.4434 -0.9364
43.4000 14.4499 -0.9384
43.4200 14.4565 -0.9341
43.4400 14.4632 -0.9319
43.4600 14.4699 -0.9393
43.4800 14.4766 -0.9389
43.5000 14.4832 -0.9391
43.5200 14.4899 -0.9425
43.5400 14.4966 -0.9415
43.5600 14.5033 -0.9343
43.5800 14.5099 -0.9445
43.6000 14.5165 -0.9435
43.6200 14.5232 -0.9361
43.6400 14.5299 -0.9410
43.6600 14.5366 -0.9469
43.6800 14.5432 -0.9404
43.7000 14.5499 -0.9419
43.7200 14.5566 -0.9509
43.7400 14.5633 -0.9395
43.7600 14.5699 -0.9484
43.7800 14.5766 -0.9466
43.8000 14.5832 -0.9429
43.8200 14.5899 -0.9542
43.8400 14.5966 -0.9534
43.8600 14.6033 -0.9370
43.8800 14.6100 -0.9535
43.9000 14.6167 -0.9529
43.9200 14.6233 -0.9431
43.9400 14.6299 -0.9515
43.9600 14.6365 -0.9528
43.9800 14.6432 -0.9428
44.0000 14.6499 -0.9563
44.0200 14.6566 -0.9601
44.0400 14.6633 -0.9479
44.0600 14.6700 -0.9577
44.0800 14.6767 -0.9529
44.1000 14.6833 -0.9516
44.1200 14.6899 -0.9612
44.1400 14.6965 -0.9570
44.1600 14.7032 -0.9496
44.1800 14.7099 -0.9571
44.2000 14.7166 -0.9608
44.2200 14.7233 -0.9520
44.2400 14.7299 -0.9594
44.2600 14.7366 -0.9601
44.2800 14.7433 -0.9505
44.3000 14.7499 -0.9683
44.3200 14.7565 -0.9567
44.3400 14.7631 -0.9580
44.3600 14.7698 -0.9643
44.3800 14.7766 -0.9577
44.4000 14.7833 -0.9630
44.4200 14.7899 -0.9670
44.4400 14.7966 -0.9561
44.4600 14.8033 -0.9676
44.4800 14.8099 -0.9651
44.5000 14.8165 -0.9570
44.5200 14.8232 -0.9688
44.5400 14.8299 -0.9680
44.5600 14.8366 -0.9627
44.5800 14.8433 -0.9734
44.6000 14.8500 -0.9649
44.6200 14.8567 -0.9608
44.6400 14.8633 -0.9764
44.6600 14.8700 -0.9581
44.6800 14.8766 -0.9688
44.7000 14.8832 -0.9760
44.7200 14.8899 -0.9611
44.7400 14.8966 -0.9748
44.7600 14.9033 -0.9769
44.7800 14.9100 -0.9584
44.8000 14.9167 -0.9751
44.8200 14.9233 -0.9756
44.8400 14.9299 -0.9643
44.8600 14.9365 -0.9762
44.8800 14.9431 -0.9765
44.9000 14.9498 -0.9652
44.9200 14.9565 -0.9784
44.9400 14.9632 -0.9746
44.9600 14.9699 -0.9702
44.9800 14.9766 -0.9786
45.0000 14.9833 -0.9782
45.0200 14.9899 -0.9708
45.0400 14.9965 -0.9767
45.0600 15.0032 -0.9835
45.0800 15.0099 -0.9718
45.1000 15.0166 -0.9814
45.1200 15.0232 -0.9830
45.1400 15.0299 -0.9722
45.1600 15.0366 -0.9813
45.1800 15.0433 -0.9852
45.2000 15.0500 -0.9739
45.2200 15.0566 -0.9811
45.2400 15.0632 -0.9813
45.2600 15.0699 -0.9775
45.2800 15.0766 -0.9836
45.3000 15.0833 -0.9862
45.3200 15.0900 -0.9797
45.3400 15.0967 -0.9868
45.3600 15.1034 -0.9862
45.3800 15.1100 -0.9814
45.4000 15.1166 -0.9905
45.4200 15.1232 -0.9854
45.4400 15.1299 -0.9833
45.4600 15.1366 -0.9866
45.4800 15.1433 -0.9926
45.5000 15.1500 -0.9813
45.5200 15.1567 -0.9889
45.5400 15.1633 -0.9915
45.5600 15.1699 -0.9919
45.5800 15.1765 -0.9882
45.6000 15.1832 -0.9890
45.6200 15.1899 -0.9928
45.6400 15.1966 -0.9917
45.6600 15.2033 -0.9916
45.6800 15.2100 -0.9946
45.7000 15.2166 -0.9943
45.7200 15.2233 -0.9974
45.7400 15.2299 -0.9927
45.7600 15.2365 -0.9965
45.7800 15.2432 -0.9997
45.8000 15.2498 -0.9951
45.8200 15.2565 -0.9969
45.8400 15.2632 -0.9966
45.8600 15.2699 -1.0022
45.8800 15.2766 -1.0013
45.9000 15.2833 -0.9993
45.9200 15.2899 -0.9999
45.9400 15.2966 -1.0002
45.9600 15.3032 -1.0012
45.9800 15.3099 -1.0032
46.0000 15.3166 -1.0030
46.0200 15.3233 -1.0064
46.0400 15.3300 -1.0063
46.0600 15.3367 -1.0016
46.0800 15.3433 -1.0050
46.1000 15.3500 -1.0146
46.1200 15.3566 -1.0012
46.1400 15.3632 -1.0020
46.1600 15.3699 -1.0087
46.1800 15.3766 -1.0080
46.2000 15.3833 -1.0080
46.2200 15.3900 -1.0091
46.2400 15.3967 -1.0080
46.2600 15.4033 -1.0145
46.2800 15.4100 -1.0081
46.3000 15.4166 -1.0070
46.3200 15.4232 -1.0235
46.3400 15.4299 -1.0034
46.3600 15.4366 -1.0090
46.3800 15.4433 -1.0192
46.4000 15.4500 -1.0108
46.4200 15.4566 -1.0119
46.4400 15.4633 -1.0206
46.4600 15.4699 -1.0106
46.4800 15.4765 -1.0094
46.5000 15.4831 -1.0193
46.5200 15.4898 -1.0095
46.5400 15.4965 -1.0163
46.5600 15.5033 -1.0227
46.5800 15.5099 -1.0109
46.6000 15.5166 -1.0156
46.6200 15.5233 -1.0228
46.6400 15.5299 -1.0194
46.6600 15.5365 -1.0161
46.6800 15.5432 -1.0241
46.7000 15.5499 -1.0171
46.7200 15.5566 -1.0160
46.7400 15.5632 -1.0279
46.7600 15.5699 -1.0168
46.7800 15.5766 -1.0196
46.8000 15.5834 -1.0261
46.8200 15.5900 -1.0268
46.8400 15.5966 -1.0174
46.8600 15.6032 -1.0296
46.8800 15.6099 -1.0277
46.9000 15.6166 -1.0187
46.9200 15.6233 -1.0277
46.9400 15.6300 -1.0265
46.9600 15.6367 -1.0248
46.9800 15.6433 -1.0358
47.0000 15.6500 -1.0286
47.0200 15.6565 -1.0179
47.0400 15.6632 -1.0369
47.0600 15.6699 -1.0356
47.0800 15.6766 -1.0207
47.1000 15.6833 -1.0406
47.1200 15.6899 -1.0320
47.1400 15.6966 -1.0210
47.1600 15.7033 -1.0399
47.1800 15.7100 -1.0326
47.2000 15.7166 -1.0261
47.2200 15.7232 -1.0395
47.2400 15.7298 -1.0324
47.2600 15.7366 -1.0306
47.2800 15.7433 -1.0483
47.3000 15.7499 -1.0283
47.3200 15.7566 -1.0305
47.3400 15.7633 -1.0478
47.3600 15.7700 -1.0304
47.3800 15.7766 -1.0328
47.4000 15.7832 -1.0509
47.4200 15.7899 -1.0269
47.4400 15.7966 -1.0341
47.4600 15.8033 -1.0477
47.4800 15.8100 -1.0347
47.5000 15.8166 -1.0420
47.5200 15.8233 -1.0389
47.5400 15.8299 -1.0368
47.5600 15.8365 -1.0406
47.5800 15.8432 -1.0388
47.6000 15.8499 -1.0424
47.6200 15.8566 -1.0482
47.6400 15.8633 -1.0422
47.6600 15.8700 -1.0407
47.6800 15.8767 -1.0432
47.7000 15.8833 -1.0408
47.7200 15.8900 -1.0483
47.7400 15.8966 -1.0474
47.7600 15.9032 -1.0388
47.7800 15.9099 -1.0531
47.8000 15.9166 -1.0437
47.8200 15.9233 -1.0463
47.8400 15.9299 -1.0554
47.8600 15.9366 -1.0465
47.8800 15.9433 -1.0447
47.9000 15.9500 -1.0565
47.9200 15.9566 -1.0448
47.9400 15.9632 -1.0453
47.9600 15.9698 -1.0571
47.9800 15.9765 -1.0497
48.0000 15.9832 -1.0517
48.0200 15.9899 -1.0583
48.0400 15.9966 -1.0460
48.0600 16.0033 -1.0535
48.0800 16.0100 -1.0589
48.1000 16.0166 -1.0471
48.1200 16.0232 -1.0548
48.1400 16.0299 -1.0583
48.1600 16.0366 -1.0512
48.1800 16.0433 -1.0570
48.2000 16.0500 -1.0615
48.2200 16.0567 -1.0506
48.2400 16.0633 -1.0612
48.2600 16.0700 -1.0618
48.2800 16.0766 -1.0549
48.3000 16.0832 -1.0613
48.3200 16.0898 -1.0620
48.3400 16.0966 -1.0590
48.3600 16.1033 -1.0621
48.3800 16.1100 -1.0618
48.4000 16.1167 -1.0614
48.4200 16.1233 -1.0609
48.4400 16.1300 -1.0636
48.4600 16.1366 -1.0634
48.4800 16.1432 -1.0595
48.5000 16.1498 -1.0651
48.5200 16.1565 -1.0612
48.5400 16.1632 -1.0637
48.5600 16.1699 -1.0705
48.5800 16.1766 -1.0664
48.6000 16.1833 -1.0585
48.6200 16.1900 -1.0727
48.6400 16.1966 -1.0644
48.6600 16.2032 -1.0608
48.6800 16.2098 -1.0777
48.7000 16.2165 -1.0627
48.7200 16.2233 -1.0600
48.7400 16.2299 -1.0818
48.7600 16.2366 -1.0630
48.7800 16.2433 -1.0635
48.8000 16.2499 -1.0792
48.8200 16.2566 -1.0657
48.8400 16.2632 -1.0640
48.8600 16.2698 -1.0813
48.8800 16.2765 -1.0681
48.9000 16.2832 -1.0675
48.9200 16.2899 -1.0880
48.9400 16.2966 -1.0638
48.9600 16.3034 -1.0748
48.9800 16.3100 -1.0831
49.0000 16.3166 -1.0706
49.0200 16.3232 -1.0753
49.0400 16.3299 -1.0839
49.0600 16.3366 -1.0735
49.0800 16.3433 -1.0716
49.1000 16.3500 -1.0859
49.1200 16.3567 -1.0793
49.1400 16.3633 -1.0698
49.1600 16.3700 -1.0930
49.1800 16.3766 -1.0762
49.2000 16.3832 -1.0731
49.2200 16.3898 -1.0894
49.2400 16.3965 -1.0785
49.2600 16.4033 -1.0829
49.2800 16.4099 -1.0924
49.3000 16.4166 -1.0798
49.3200 16.4233 -1.0829
49.3400 16.4299 -1.0986
49.3600 16.4366 -1.0824
49.3800 16.4432 -1.0815
49.4000 16.4498 -1.0928
49.4200 16.4565 -1.0848
49.4400 16.4632 -1.0852
49.4600 16.4699 -1.0996
49.4800 16.4766 -1.0896
49.5000 16.4833 -1.0881
49.5200 16.4900 -1.1009
49.5400 16.4966 -1.0949
49.5600 16.5032 -1.0880
49.5800 16.5098 -1.1026
49.6000 16.5166 -1.0924
49.6200 16.5233 -1.0903
49.6400 16.5300 -1.1015
49.6600 16.5367 -1.0922
49.6800 16.5433 -1.0933
49.7000 16.5500 -1.1048
49.7200 16.5566 -1.0937
49.7400 16.5632 -1.0928
49.7600 16.5698 -1.1049
49.7800 16.5766 -1.0958
49.8000 16.5833 -1.0962
49.8200 16.5900 -1.1093
49.8400 16.5966 -1.0963
49.8600 16.6033 -1.0988
49.8800 16.6100 -1.1128
49.9000 16.6166 -1.0986
49.9200 16.6233 -1.1012
49.9400 16.6299 -1.1073
49.9600 16.6366 -1.1046
49.9800 16.6432 -1.1036
50.0000 16.6499 -1.1077
50.0200 16.6566 -1.1082
50.0400 16.6633 -1.1072
50.0600 16.6700 -1.1067
50.0800 16.6766 -1.1089
50.1000 16.6832 -1.1041
50.1200 16.6898 -1.1087
50.1400 16.6965 -1.1141
50.1600 16.7032 -1.1040
50.1800 16.7099 -1.1112
50.2000 16.7166 -1.1120
50.2200 16.7233 -1.1063
50.2400 16.7300 -1.1155
50.2600 16.7366 -1.1153
50.2800 16.7432 -1.1027
50.3000 16.7498 -1.1179
50.3200 16.7565 -1.1173
50.3400 16.7632 -1.1083
50.3600 16.7699 -1.1171
50.3800 16.7766 -1.1178
50.4000 16.7833 -1.1112
50.4200 16.7900 -1.1247
50.4400 16.7966 -1.1175
50.4600 16.8032 -1.1104
50.4800 16.8099 -1.1232
50.5000 16.8165 -1.1180
50.5200 16.8232 -1.1135
50.5400 16.8300 -1.1281
50.5600 16.8366 -1.1159
50.5800 16.8433 -1.1134
50.6000 16.8500 -1.1251
50.6200 16.8567 -1.1193
50.6400 16.8632 -1.1189
50.6600 16.8698 -1.1256
50.6800 16.8765 -1.1192
50.7000 16.8833 -1.1177
50.7200 16.8900 -1.1252
50.7400 16.8966 -1.1249
50.7600 16.9033 -1.1232
50.7800 16.9100 -1.1274
50.8000 16.9166 -1.1267
50.8200 16.9232 -1.1200
50.8400 16.9298 -1.1298
50.8600 16.9365 -1.1246
50.8800 16.9432 -1.1257
50.9000 16.9499 -1.1281
50.9200 16.9566 -1.1306
50.9400 16.9632 -1.1272
50.9600 16.9699 -1.1308
50.9800 16.9766 -1.1290
51.0000 16.9832 -1.1306
51.0200 16.9898 -1.1321
51.0400 16.9965 -1.1347
51.0600 17.0032 -1.1315
51.0800 17.0100 -1.1354
51.1000 17.0166 -1.1359
51.1200 17.0233 -1.1325
51.1400 17.0300 -1.1343
51.1600 17.0366 -1.1390
51.1800 17.0432 -1.1323
51.2000 17.0499 -1.1318
51.2200 17.0566 -1.1408
51.2400 17.0633 -1.1379
51.2600 17.0700 -1.1382
51.2800 17.0766 -1.1410
51.3000 17.0833 -1.1365
51.3200 17.0900 -1.1442
51.3400 17.0966 -1.1466
51.3600 17.1032 -1.1328
51.3800 17.1098 -1.1457
51.4000 17.1165 -1.1438
51.4200 17.1232 -1.1390
51.4400 17.1299 -1.1456
51.4600 17.1366 -1.1441
51.4800 17.1433 -1.1433
51.5000 17.1500 -1.1491
51.5200 17.1566 -1.1464
51.5400 17.1632 -1.1431
51.5600 17.1698 -1.1487
51.5800 17.1765 -1.1426
51.6000 17.1832 -1.1494
51.6200 17.1899 -1.1539
51.6400 17.1966 -1.1460
51.6600 17.2033 -1.1488
51.6800 17.2100 -1.1524
51.7000 17.2166 -1.1507
51.7200 17.2232 -1.1534
51.7400 17.2298 -1.1471
51.7600 17.2365 -1.1556
51.7800 17.2432 -1.1581
51.8000 17.2499 -1.1515
51.8200 17.2566 -1.1533
51.8400 17.2633 -1.1583
51.8600 17.2700 -1.1544
51.8800 17.2766 -1.1624
51.9000 17.2833 -1.1596
51.9200 17.2899 -1.1546
51.9400 17.2965 -1.1621
51.9600 17.3032 -1.1613
51.9800 17.3099 -1.1564
52.0000 17.3166 -1.1670
52.0200 17.3233 -1.1616
52.0400 17.3300 -1.1590
52.0600 17.3367 -1.1703
52.0800 17.3433 -1.1611
52.1000 17.3498 -1.1582
52.1200 17.3565 -1.1681
52.1400 17.3632 -1.1633
52.1600 17.3699 -1.1626
52.1800 17.3766 -1.1695
52.2000 17.3833 -1.1667
52.2200 17.3900 -1.1672
52.2400 17.3966 -1.1707
52.2600 17.4032 -1.1738
52.2800 17.4098 -1.1620
52.3000 17.4165 -1.1721
52.3200 17.4232 -1.1750
52.3400 17.4299 -1.1719
52.3600 17.4365 -1.1732
52.3800 17.4432 -1.1726
52.4000 17.4499 -1.1761
52.4200 17.4566 -1.1775
52.4400 17.4632 -1.1790
52.4600 17.4699 -1.1723
52.4800 17.4765 -1.1747
52.5000 17.4832 -1.1813
52.5200 17.4900 -1.1727
52.5400 17.4966 -1.1782
52.5600 17.5033 -1.1858
52.5800 17.5100 -1.1741
52.6000 17.5167 -1.1821
52.6200 17.5233 -1.1859
52.6400 17.5299 -1.1792
52.6600 17.5365 -1.1816
52.6800 17.5432 -1.1851
52.7000 17.5499 -1.1796
52.7200 17.5566 -1.1897
52.7400 17.5633 -1.1887
52.7600 17.5700 -1.1813
52.7800 17.5767 -1.1918
52.8000 17.5833 -1.1885
52.8200 17.5899 -1.1856
52.8400 17.5965 -1.1891
52.8600 17.6032 -1.1883
52.8800 17.6100 -1.1866
52.9000 17.6166 -1.1923
52.9200 17.6233 -1.1923
52.9400 17.6300 -1.1889
52.9600 17.6366 -1.1889
52.9800 17.6433 -1.1986
53.0000 17.6499 -1.1889
53.0200 17.6565 -1.1905
53.0400 17.6632 -1.1965
53.0600 17.6699 -1.1941
53.0800 17.6766 -1.1929
53.1000 17.6832 -1.1968
53.1200 17.6899 -1.1945
53.1400 17.6966 -1.1974
53.1600 17.7032 -1.2009
53.1800 17.7099 -1.1925
53.2000 17.7165 -1.1939
53.2200 17.7232 -1.2047
53.2400 17.7299 -1.1981
53.2600 17.7367 -1.1987
53.2800 17.7433 -1.2093
53.3000 17.7500 -1.1956
53.3200 17.7567 -1.1990
53.3400 17.7633 -1.2119
53.3600 17.7699 -1.1989
53.3800 17.7765 -1.1999
53.4000 17.7832 -1.2125
53.4200 17.7900 -1.1951
53.4400 17.7967 -1.2032
53.4600 17.8033 -1.2147
53.4800 17.8100 -1.1968
53.5000 17.8167 -1.2078
53.5200 17.8233 -1.2197
53.5400 17.8299 -1.1986
53.5600 17.8365 -1.2065
53.5800 17.8432 -1.2151
53.6000 17.8499 -1.2035
53.6200 17.8566 -1.2123
53.6400 17.8632 -1.2169
53.6600 17.8699 -1.2040
53.6800 17.8766 -1.2197
53.7000 17.8832 -1.2154
53.7200 17.8898 -1.2096
53.7400 17.8965 -1.2226
53.7600 17.9032 -1.2148
53.7800 17.9099 -1.2146
53.8000 17.9166 -1.2246
53.8200 17.9233 -1.2187
53.8400 17.9300 -1.2180
53.8600 17.9366 -1.2266
53.8800 17.9433 -1.2187
53.9000 17.9499 -1.2180
53.9200 17.9565 -1.2256
53.9400 17.9632 -1.2273
53.9600 17.9699 -1.2198
53.9800 17.9766 -1.2272
54.0000 17.9833 -1.2227
54.0200 17.9900 -1.2243
54.0400 17.9967 -1.2261
54.0600 18.0033 -1.2275
54.0800 18.0099 -1.2326
54.1000 18.0165 -1.2220
54.1200 18.0232 -1.2299
54.1400 18.0299 -1.2339
54.1600 18.0366 -1.2250
54.1800 18.0433 -1.2371
54.2000 18.0500 -1.2350
54.2200 18.0567 -1.2256
54.2400 18.0633 -1.2401
54.2600 18.0699 -1.2330
54.2800 18.0765 -1.2284
54.3000 18.0832 -1.2366
54.3200 18.0900 -1.2386
54.3400 18.0966 -1.2304
54.3600 18.1033 -1.2437
54.3800 18.1100 -1.2370
54.4000 18.1166 -1.2403
54.4200 18.1233 -1.2461
54.4400 18.1299 -1.2361
54.4600 18.1365 -1.2420
54.4800 18.1432 -1.2485
54.5000 18.1499 -1.2424
54.5200 18.1566 -1.2418
54.5400 18.1632 -1.2461
54.5600 18.1699 -1.2421
54.5800 18.1766 -1.2459
54.6000 18.1833 -1.2492
54.6200 18.1899 -1.2432
54.6400 18.1965 -1.2464
54.6600 18.2032 -1.2510
54.6800 18.2099 -1.2445
54.7000 18.2166 -1.2561
54.7200 18.2233 -1.2506
54.7400 18.2300 -1.2494
54.7600 18.2367 -1.2527
54.7800 18.2433 -1.2585
54.8000 18.2499 -1.2492
54.8200 18.2565 -1.2512
54.8400 18.2632 -1.2554
54.8600 18.2699 -1.2540
54.8800 18.2767 -1.2572
54.9000 18.2833 -1.2575
54.9200 18.2900 -1.2600
54.9400 18.2967 -1.2593
54.9600 18.3033 -1.2571
54.9800 18.3099 -1.2627
55.0000 18.3165 -1.2561
55.0200 18.3232 -1.2592
55.0400 18.3299 -1.2694
55.0600 18.3366 -1.2589
55.0800 18.3433 -1.2599
55.1000 18.3499 -1.2737
55.1200 18.3566 -1.2627
55.1400 18.3633 -1.2623
55.1600 18.3699 -1.2744
55.1800 18.3765 -1.2614
55.2000 18.3831 -1.2708
55.2200 18.3899 -1.2700
55.2400 18.3966 -1.2653
55.2600 18.4032 -1.2720
55.2800 18.4099 -1.2698
55.3000 18.4166 -1.2676
55.3200 18.4233 -1.2833
55.3400 18.4299 -1.2724
55.3600 18.4365 -1.2673
55.3800 18.4432 -1.2766
55.4000 18.4499 -1.2734
55.4200 18.4566 -1.2763
55.4400 18.4633 -1.2803
55.4600 18.4700 -1.2756
55.4800 18.4767 -1.2750
55.5000 18.4833 -1.2829
55.5200 18.4900 -1.2783
55.5400 18.4966 -1.2805
55.5600 18.5032 -1.2811
55.5800 18.5099 -1.2862
55.6000 18.5166 -1.2792
55.6200 18.5233 -1.2796
55.6400 18.5300 -1.2903
55.6600 18.5367 -1.2887
55.6800 18.5433 -1.2811
55.7000 18.5499 -1.2965
55.7200 18.5565 -1.2862
55.7400 18.5632 -1.2854
55.7600 18.5699 -1.2940
55.7800 18.5766 -1.2879
55.8000 18.5833 -1.2858
55.8200 18.5900 -1.2981
55.8400 18.5966 -1.2903
55.8600 18.6033 -1.2901
55.8800 18.6099 -1.2958
55.9000 18.6165 -1.2900
55.9200 18.6232 -1.2946
55.9400 18.6299 -1.2984
55.9600 18.6366 -1.2958
55.9800 18.6433 -1.2981
56.0000 18.6499 -1.2951
56.0200 18.6566 -1.2939
56.0400 18.6633 -1.3036
56.0600 18.6699 -1.3002
56.0800 18.6765 -1.2970
56.1000 18.6832 -1.3001
56.1200 18.6899 -1.3077
56.1400 18.6966 -1.3007
56.1600 18.7033 -1.3020
56.1800 18.7100 -1.3099
56.2000 18.7167 -1.3056
56.2200 18.7234 -1.3016
56.2400 18.7299 -1.3089
56.2600 18.7365 -1.3033
56.2800 18.7432 -1.3052
56.3000 18.7499 -1.3121
56.3200 18.7566 -1.3050
56.3400 18.7633 -1.3063
56.3600 18.7700 -1.3159
56.3800 18.7767 -1.3092
56.4000 18.7833 -1.3054
56.4200 18.7899 -1.3182
56.4400 18.7965 -1.3116
56.4600 18.8032 -1.3096
56.4800 18.8099 -1.3155
56.5000 18.8166 -1.3172
56.5200 18.8233 -1.3139
56.5400 18.8299 -1.3210
56.5600 18.8366 -1.3160
56.5800 18.8433 -1.3156
56.6000 18.8499 -1.3254
56.6200 18.8565 -1.3187
56.6400 18.8631 -1.3105
56.6600 18.8698 -1.3238
56.6800 18.8765 -1.3242
56.7000 18.8832 -1.3213
56.7200 18.8899 -1.3189
56.7400 18.8966 -1.3215
56.7600 18.9033 -1.3275
56.7800 18.9099 -1.3208
56.8000 18.9165 -1.3253
56.8200 18.9232 -1.3306
56.8400 18.9299 -1.3271
56.8600 18.9366 -1.3228
56.8800 18.9433 -1.3345
56.9000 18.9500 -1.3278
56.9200 18.9567 -1.3355
56.9400 18.9633 -1.3324
56.9600 18.9699 -1.3243
56.9800 18.9765 -1.3369
57.0000 18.9832 -1.3354
57.0200 18.9899 -1.3282
57.0400 18.9966 -1.3406
57.0600 19.0033 -1.3336
57.0800 19.0100 -1.3320
57.1000 19.0166 -1.3403
57.1200 19.0233 -1.3398
57.1400 19.0299 -1.3356
57.1600 19.0365 -1.3467
57.1800 19.0432 -1.3418
57.2000 19.0499 -1.3311
57.2200 19.0566 -1.3534
57.2400 19.0633 -1.3410
57.2600 19.0699 -1.3403
57.2800 19.0766 -1.3534
57.3000 19.0833 -1.3394
57.3200 19.0899 -1.3451
57.3400 19.0965 -1.3575
57.3600 19.1032 -1.3341
57.3800 19.1099 -1.3494
57.4000 19.1166 -1.3606
57.4200 19.1233 -1.3376
57.4400 19.1299 -1.3486
57.4600 19.1366 -1.3620
57.4800 19.1433 -1.3422
57.5000 19.1499 -1.3612
57.5200 19.1565 -1.3554
57.5400 19.1632 -1.3416
57.5600 19.1699 -1.3596
57.5800 19.1766 -1.3641
57.6000 19.1833 -1.3517
57.6200 19.1900 -1.3662
57.6400 19.1967 -1.3643
57.6600 19.2033 -1.3525
57.6800 19.2100 -1.3642
57.7000 19.2166 -1.3642
57.7200 19.2232 -1.3606
57.7400 19.2299 -1.3687
57.7600 19.2366 -1.3674
57.7800 19.2433 -1.3648
57.8000 19.2500 -1.3699
57.8200 19.2567 -1.3666
57.8400 19.2633 -1.3710
57.8600 19.2699 -1.3724
57.8800 19.2765 -1.3674
57.9000 19.2832 -1.3654
57.9200 19.2899 -1.3764
57.9400 19.2966 -1.3758
57.9600 19.3032 -1.3736
57.9800 19.3099 -1.3728
58.0000 19.3166 -1.3814
58.0200 19.3233 -1.3728
58.0400 19.3299 -1.3784
58.0600 19.3365 -1.3878
58.0800 19.3432 -1.3767
58.1000 19.3499 -1.3791
58.1200 19.3566 -1.3876
58.1400 19.3632 -1.3800
58.1600 19.3699 -1.3867
58.1800 19.3766 -1.3922
58.2000 19.3833 -1.3791
58.2200 19.3899 -1.3868
58.2400 19.3966 -1.3980
58.2600 19.4032 -1.3802
58.2800 19.4099 -1.3833
58.3000 19.4166 -1.4026
58.3200 19.4233 -1.3875
58.3400 19.4300 -1.3886
58.3600 19.4367 -1.4034
58.3800 19.4434 -1.3964
58.4000 19.4500 -1.3931
58.4200 19.4566 -1.4010
58.4400 19.4632 -1.3912
58.4600 19.4699 -1.3970
58.4800 19.4766 -1.4100
58.5000 19.4833 -1.4010
58.5200 19.4900 -1.3939
58.5400 19.4966 -1.4064
58.5600 19.5033 -1.4031
58.5800 19.5099 -1.3959
58.6000 19.5166 -1.4172
58.6200 19.5232 -1.4069
58.6400 19.5299 -1.3996
58.6600 19.5366 -1.4187
58.6800 19.5433 -1.4104
58.7000 19.5499 -1.4016
58.7200 19.5566 -1.4223
58.7400 19.5633 -1.4120
58.7600 19.5699 -1.4131
58.7800 19.5765 -1.4240
58.8000 19.5831 -1.4129
58.8200 19.5898 -1.4171
58.8400 19.5965 -1.4302
58.8600 19.6032 -1.4133
58.8800 19.6099 -1.4199
58.9000 19.6166 -1.4377
58.9200 19.6233 -1.4193
58.9400 19.6299 -1.4249
58.9600 19.6365 -1.4426
58.9800 19.6432 -1.4206
59.0000 19.6499 -1.4281
59.0200 19.6566 -1.4388
59.0400 19.6633 -1.4264
59.0600 19.6700 -1.4355
59.0800 19.6767 -1.4460
59.1000 19.6833 -1.4257
59.1200 19.6900 -1.4318
59.1400 19.6966 -1.4494
59.1600 19.7032 -1.4326
59.1800 19.7099 -1.4403
59.2000 19.7166 -1.4481
59.2200 19.7233 -1.4395
59.2400 19.7300 -1.4416
59.2600 19.7367 -1.4475
59.2800 19.7433 -1.4417
59.3000 19.7499 -1.4598
59.3010 19.7502 -1.4617
