Raw Data
Time Displacement Force
(s) (mm) (N)
0.0000 0.0000 -0.2878
0.0200 0.0000 -0.2825
0.0400 0.0008 -0.2466
0.0600 0.0039 -0.1400
0.0800 0.0093 -0.1671
0.1000 0.0149 -0.1854
0.1200 0.0207 -0.1227
0.1400 0.0274 -0.1067
0.1600 0.0348 -0.0871
0.1800 0.0423 -0.0293
0.2000 0.0495 0.0131
0.2200 0.0564 0.0367
0.2400 0.0631 0.0978
0.2600 0.0697 0.1260
0.2800 0.0764 0.1542
0.3000 0.0831 0.2189
0.3200 0.0899 0.2575
0.3400 0.0966 0.2946
0.3600 0.1033 0.3608
0.3800 0.1099 0.3968
0.4000 0.1165 0.4363
0.4200 0.1232 0.4941
0.4400 0.1299 0.5291
0.4600 0.1366 0.5661
0.4800 0.1433 0.6183
0.5000 0.1500 0.6440
0.5200 0.1567 0.6526
0.5400 0.1633 0.6601
0.5600 0.1699 0.6568
0.5800 0.1765 0.6563
0.6000 0.1832 0.6549
0.6200 0.1899 0.6597
0.6400 0.1966 0.6544
0.6600 0.2033 0.6592
0.6800 0.2100 0.6615
0.7000 0.2166 0.6525
0.7200 0.2233 0.6593
0.7400 0.2299 0.6695
0.7600 0.2365 0.6586
0.7800 0.2432 0.6626
0.8000 0.2499 0.6587
0.8200 0.2566 0.6645
0.8400 0.2632 0.6608
0.8600 0.2699 0.6617
0.8800 0.2766 0.6596
0.9000 0.2833 0.6618
0.9200 0.2898 0.6610
0.9400 0.2964 0.6636
0.9600 0.3031 0.6627
0.9800 0.3098 0.6580
1.0000 0.3165 0.6628
1.0200 0.3232 0.6602
1.0400 0.3299 0.6570
1.0600 0.3366 0.6607
1.0800 0.3432 0.6571
1.1000 0.3498 0.6546
1.1200 0.3565 0.6601
1.1400 0.3632 0.6536
1.1600 0.3699 0.6588
1.1800 0.3766 0.6557
1.2000 0.3833 0.6505
1.2200 0.3900 0.6508
1.2400 0.3967 0.6538
1.2600 0.4033 0.6471
1.2800 0.4099 0.6473
1.3000 0.4166 0.6471
1.3200 0.4232 0.6438
1.3400 0.4299 0.6408
1.3600 0.4366 0.6419
1.3800 0.4433 0.6364
1.4000 0.4500 0.6419
1.4200 0.4567 0.6343
1.4400 0.4633 0.6316
1.4600 0.4699 0.6351
1.4800 0.4765 0.6293
1.5000 0.4831 0.6273
1.5200 0.4898 0.6284
1.5400 0.4965 0.6238
1.5600 0.5032 0.6202
1.5800 0.5099 0.6245
1.6000 0.5166 0.6165
1.6200 0.5232 0.6198
1.6400 0.5298 0.6178
1.6600 0.5364 0.6101
1.6800 0.5432 0.6123
1.7000 0.5499 0.6136
1.7200 0.5566 0.6005
1.7400 0.5633 0.6057
1.7600 0.5699 0.6051
1.7800 0.5766 0.5994
1.8000 0.5833 0.5980
1.8200 0.5899 0.5959
1.8400 0.5966 0.5933
1.8600 0.6032 0.5960
1.8800 0.6099 0.5882
1.9000 0.6166 0.5868
1.9200 0.6233 0.5895
1.9400 0.6299 0.5833
1.9600 0.6366 0.5812
1.9800 0.6433 0.5804
2.0000 0.6499 0.5760
2.0200 0.6565 0.5762
2.0400 0.6632 0.5808
2.0600 0.6699 0.5688
2.0800 0.6766 0.5727
2.1000 0.6833 0.5748
2.1200 0.6899 0.5621
2.1400 0.6966 0.5633
2.1600 0.7033 0.5709
2.1800 0.7099 0.5590
2.2000 0.7165 0.5608
2.2200 0.7232 0.5634
2.2400 0.7299 0.5583
2.2600 0.7366 0.5582
2.2800 0.7433 0.5586
2.3000 0.7499 0.5491
2.3200 0.7566 0.5573
2.3400 0.7633 0.5527
2.3600 0.7699 0.5440
2.3800 0.7765 0.5528
2.4000 0.7831 0.5475
2.4200 0.7898 0.5422
2.4400 0.7965 0.5423
2.4600 0.8032 0.5389
2.4800 0.8099 0.5385
2.5000 0.8166 0.5420
2.5200 0.8233 0.5358
2.5400 0.8299 0.5362
2.5600 0.8365 0.5363
2.5800 0.8432 0.5302
2.6000 0.8499 0.5299
2.6200 0.8566 0.5323
2.6400 0.8633 0.5267
2.6600 0.8700 0.5255
2.6800 0.8766 0.5221
2.7000 0.8833 0.5275
2.7200 0.8899 0.5183
2.7400 0.8965 0.5205
2.7600 0.9032 0.5260
2.7800 0.9099 0.5171
2.8000 0.9166 0.5164
2.8200 0.9233 0.5201
2.8400 0.9300 0.5133
2.8600 0.9366 0.5149
2.8800 0.9433 0.5184
2.9000 0.9499 0.5069
2.9200 0.9565 0.5131
2.9400 0.9632 0.5169
2.9600 0.9699 0.4981
2.9800 0.9766 0.5090
3.0000 0.9832 0.5130
3.0200 0.9899 0.4952
3.0400 0.9966 0.5081
3.0600 1.0033 0.5023
3.0800 1.0099 0.4912
3.1000 1.0165 0.5040
3.1200 1.0231 0.5046
3.1400 1.0298 0.4850
3.1600 1.0365 0.5053
3.1800 1.0432 0.4954
3.2000 1.0499 0.4810
3.2200 1.0566 0.5019
3.2400 1.0633 0.4894
3.2600 1.0699 0.4832
3.2800 1.0765 0.4972
3.3000 1.0832 0.4801
3.3200 1.0899 0.4804
3.3400 1.0966 0.4945
3.3600 1.1033 0.4790
3.3800 1.1100 0.4743
3.4000 1.1167 0.4840
3.4200 1.1234 0.4699
3.4400 1.1300 0.4718
3.4600 1.1366 0.4884
3.4800 1.1432 0.4660
3.5000 1.1499 0.4746
3.5200 1.1566 0.4752
3.5400 1.1633 0.4645
3.5600 1.1700 0.4677
3.5800 1.1766 0.4719
3.6000 1.1833 0.4601
3.6200 1.1899 0.4629
3.6400 1.1965 0.4702
3.6600 1.2031 0.4585
3.6800 1.2099 0.4608
3.7000 1.2166 0.4616
3.7200 1.2233 0.4503
3.7400 1.2299 0.4569
3.7600 1.2366 0.4604
3.7800 1.2433 0.4495
3.8000 1.2499 0.4497
3.8200 1.2565 0.4540
3.8400 1.2632 0.4452
3.8600 1.2699 0.4449
3.8800 1.2766 0.4518
3.9000 1.2832 0.4389
3.9200 1.2899 0.4443
3.9400 1.2966 0.4447
3.9600 1.3033 0.4388
3.9800 1.3099 0.4339
4.0000 1.3165 0.4410
4.0200 1.3232 0.4381
4.0400 1.3299 0.4345
4.0600 1.3366 0.4358
4.0800 1.3433 0.4284
4.1000 1.3500 0.4262
4.1200 1.3566 0.4377
4.1400 1.3633 0.4250
4.1600 1.3699 0.4241
4.1800 1.3765 0.4323
4.2000 1.3832 0.4231
4.2200 1.3899 0.4196
4.2400 1.3966 0.4276
4.2600 1.4033 0.4186
4.2800 1.4100 0.4155
4.3000 1.4166 0.4255
4.3200 1.4233 0.4160
4.3400 1.4299 0.4161
4.3600 1.4365 0.4181
4.3800 1.4432 0.4156
4.4000 1.4499 0.4128
4.4200 1.4566 0.4148
4.4400 1.4632 0.4090
4.4600 1.4699 0.4150
4.4800 1.4766 0.4154
4.5000 1.4833 0.4078
4.5200 1.4899 0.4039
4.5400 1.4965 0.4161
4.5600 1.5032 0.4066
4.5800 1.5098 0.4031
4.6000 1.5166 0.4089
4.6200 1.5233 0.4029
4.6400 1.5299 0.3997
4.6600 1.5366 0.3997
4.6800 1.5433 0.4035
4.7000 1.5499 0.3955
4.7200 1.5565 0.3981
4.7400 1.5632 0.4017
4.7600 1.5699 0.3896
4.7800 1.5766 0.3933
4.8000 1.5833 0.3943
4.8200 1.5900 0.3821
4.8400 1.5967 0.3881
4.8600 1.6033 0.3880
4.8800 1.6099 0.3799
4.9000 1.6165 0.3840
4.9200 1.6231 0.3859
4.9400 1.6298 0.3765
4.9600 1.6366 0.3847
4.9800 1.6433 0.3781
5.0000 1.6500 0.3763
5.0200 1.6567 0.3756
5.0400 1.6633 0.3726
5.0600 1.6699 0.3621
5.0800 1.6765 0.3726
5.1000 1.6831 0.3769
5.1200 1.6898 0.3598
5.1400 1.6965 0.3641
5.1600 1.7032 0.3647
5.1800 1.7099 0.3605
5.2000 1.7166 0.3657
5.2200 1.7233 0.3560
5.2400 1.7299 0.3541
5.2600 1.7365 0.3589
5.2800 1.7431 0.3511
5.3000 1.7498 0.3542
5.3200 1.7566 0.3538
5.3400 1.7633 0.3483
5.3600 1.7699 0.3487
5.3800 1.7766 0.3520
5.4000 1.7832 0.3430
5.4200 1.7899 0.3448
5.4400 1.7965 0.3467
5.4600 1.8032 0.3423
5.4800 1.8099 0.3432
5.5000 1.8166 0.3411
5.5200 1.8233 0.3387
5.5400 1.8300 0.3419
5.5600 1.8367 0.3332
5.5800 1.8433 0.3373
5.6000 1.8500 0.3355
5.6200 1.8565 0.3306
5.6400 1.8632 0.3395
5.6600 1.8699 0.3353
5.6800 1.8766 0.3279
5.7000 1.8833 0.3288
5.7200 1.8900 0.3322
5.7400 1.8966 0.3236
5.7600 1.9033 0.3303
5.7800 1.9099 0.3218
5.8000 1.9165 0.3251
5.8200 1.9232 0.3261
5.8400 1.9298 0.3199
5.8600 1.9366 0.3202
5.8800 1.9432 0.3212
5.9000 1.9499 0.3163
5.9200 1.9566 0.3183
5.9400 1.9633 0.3185
5.9600 1.9699 0.3168
5.9800 1.9765 0.3157
6.0000 1.9831 0.3142
6.0200 1.9898 0.3146
6.0400 1.9965 0.3119
6.0600 2.0032 0.3090
6.0800 2.0099 0.3079
6.1000 2.0166 0.3102
6.1200 2.0233 0.3019
6.1400 2.0300 0.3065
6.1600 2.0366 0.3043
6.1800 2.0432 0.3019
6.2000 2.0499 0.3001
6.2200 2.0566 0.3016
6.2400 2.0633 0.2977
6.2600 2.0700 0.2971
6.2800 2.0766 0.2976
6.3000 2.0833 0.2915
6.3200 2.0899 0.2895
6.3400 2.0965 0.2942
6.3600 2.1032 0.2926
6.3800 2.1098 0.2934
6.4000 2.1166 0.2881
6.4200 2.1233 0.2896
6.4400 2.1299 0.2861
6.4600 2.1366 0.2882
6.4800 2.1433 0.2846
6.5000 2.1500 0.2824
6.5200 2.1566 0.2834
6.5400 2.1632 0.2792
6.5600 2.1699 0.2808
6.5800 2.1765 0.2738
6.6000 2.1832 0.2769
6.6200 2.1899 0.2751
6.6400 2.1966 0.2723
6.6600 2.2033 0.2693
6.6800 2.2100 0.2733
6.7000 2.2166 0.2727
6.7200 2.2231 0.2689
6.7400 2.2298 0.2690
6.7600 2.2365 0.2688
6.7800 2.2432 0.2591
6.8000 2.2499 0.2684
6.8200 2.2566 0.2678
6.8400 2.2633 0.2619
6.8600 2.2699 0.2594
6.8800 2.2766 0.2617
6.9000 2.2832 0.2552
6.9200 2.2898 0.2612
6.9400 2.2966 0.2577
6.9600 2.3033 0.2524
6.9800 2.3099 0.2609
7.0000 2.3166 0.2475
7.0200 2.3233 0.2537
7.0400 2.3300 0.2555
7.0600 2.3366 0.2469
7.0800 2.3432 0.2501
7.1000 2.3498 0.2529
7.1200 2.3565 0.2418
7.1400 2.3633 0.2507
7.1600 2.3699 0.2464
7.1800 2.3766 0.2399
7.2000 2.3833 0.2433
7.2200 2.3900 0.2459
7.2400 2.3966 0.2351
7.2600 2.4032 0.2454
7.2800 2.4098 0.2407
7.3000 2.4165 0.2352
7.3200 2.4233 0.2383
7.3400 2.4300 0.2329
7.3600 2.4366 0.2336
7.3800 2.4433 0.2382
7.4000 2.4499 0.2323
7.4200 2.4565 0.2260
7.4400 2.4631 0.2320
7.4600 2.4698 0.2347
7.4800 2.4765 0.2240
7.5000 2.4832 0.2245
7.5200 2.4899 0.2283
7.5400 2.4966 0.2216
7.5600 2.5033 0.2274
7.5800 2.5099 0.2252
7.6000 2.5166 0.2183
7.6200 2.5232 0.2211
7.6400 2.5299 0.2254
7.6600 2.5366 0.2091
7.6800 2.5433 0.2199
7.7000 2.5500 0.2204
7.7200 2.5566 0.2107
7.7400 2.5633 0.2145
7.7600 2.5700 0.2121
7.7800 2.5766 0.2096
7.8000 2.5832 0.2139
7.8200 2.5899 0.2089
7.8400 2.5966 0.2100
7.8600 2.6033 0.2051
7.8800 2.6100 0.2070
7.9000 2.6166 0.2034
7.9200 2.6233 0.2006
7.9400 2.6299 0.2069
7.9600 2.6366 0.1972
7.9800 2.6432 0.2000
8.0000 2.6498 0.1981
8.0200 2.6565 0.1967
8.0400 2.6632 0.1917
8.0600 2.6699 0.1967
8.0800 2.6766 0.1932
8.1000 2.6833 0.1895
8.1200 2.6900 0.1913
8.1400 2.6966 0.1821
8.1600 2.7032 0.1853
8.1800 2.7098 0.1952
8.2000 2.7165 0.1800
8.2200 2.7232 0.1824
8.2400 2.7299 0.1897
8.2600 2.7366 0.1756
8.2800 2.7433 0.1808
8.3000 2.7500 0.1870
8.3200 2.7566 0.1715
8.3400 2.7632 0.1838
8.3600 2.7698 0.1837
8.3800 2.7765 0.1629
8.4000 2.7832 0.1819
8.4200 2.7899 0.1742
8.4400 2.7966 0.1665
8.4600 2.8033 0.1729
8.4800 2.8100 0.1713
8.5000 2.8166 0.1628
8.5200 2.8232 0.1689
8.5400 2.8299 0.1675
8.5600 2.8366 0.1623
8.5800 2.8433 0.1673
8.6000 2.8500 0.1597
8.6200 2.8566 0.1588
8.6400 2.8633 0.1646
8.6600 2.8700 0.1509
8.6800 2.8766 0.1603
8.7000 2.8832 0.1579
8.7200 2.8898 0.1522
8.7400 2.8965 0.1575
8.7600 2.9032 0.1508
8.7800 2.9099 0.1493
8.8000 2.9166 0.1545
8.8200 2.9233 0.1508
8.8400 2.9299 0.1489
8.8600 2.9365 0.1512
8.8800 2.9431 0.1425
8.9000 2.9498 0.1505
8.9200 2.9565 0.1508
8.9400 2.9632 0.1400
8.9600 2.9699 0.1460
8.9800 2.9766 0.1482
9.0000 2.9832 0.1342
9.0200 2.9899 0.1485
9.0400 2.9966 0.1413
9.0600 3.0032 0.1331
9.0800 3.0099 0.1395
9.1000 3.0165 0.1386
9.1200 3.0232 0.1325
9.1400 3.0299 0.1429
9.1600 3.0366 0.1345
9.1800 3.0433 0.1260
9.2000 3.0500 0.1390
9.2200 3.0566 0.1323
9.2400 3.0632 0.1281
9.2600 3.0699 0.1381
9.2800 3.0765 0.1286
9.3000 3.0833 0.1260
9.3200 3.0900 0.1281
9.3400 3.0966 0.1260
9.3600 3.1033 0.1291
9.3800 3.1100 0.1191
9.4000 3.1166 0.1254
9.4200 3.1232 0.1203
9.4400 3.1298 0.1211
9.4600 3.1365 0.1260
9.4800 3.1432 0.1191
9.5000 3.1499 0.1127
9.5200 3.1566 0.1228
9.5400 3.1633 0.1198
9.5600 3.1700 0.1097
9.5800 3.1766 0.1145
9.6000 3.1832 0.1191
9.6200 3.1898 0.1062
9.6400 3.1965 0.1120
9.6600 3.2032 0.1101
9.6800 3.2099 0.1059
9.7000 3.2165 0.1126
9.7200 3.2232 0.1042
9.7400 3.2299 0.1040
9.7600 3.2366 0.1059
9.7800 3.2432 0.0993
9.8000 3.2498 0.0997
9.8200 3.2565 0.1093
9.8400 3.2632 0.0919
9.8600 3.2699 0.0980
9.8800 3.2766 0.0999
9.9000 3.2833 0.0929
9.9200 3.2900 0.0935
9.9400 3.2966 0.0979
9.9600 3.3032 0.0893
9.9800 3.3099 0.0978
10.0000 3.3166 0.0923
10.0200 3.3233 0.0873
10.0400 3.3300 0.0897
10.0600 3.3366 0.0890
10.0800 3.3433 0.0861
10.1000 3.3500 0.0866
10.1200 3.3566 0.0812
10.1400 3.3632 0.0885
10.1600 3.3698 0.0878
10.1800 3.3765 0.0744
10.2000 3.3832 0.0889
10.2200 3.3899 0.0824
10.2400 3.3966 0.0740
10.2600 3.4033 0.0858
10.2800 3.4100 0.0750
10.3000 3.4166 0.0705
10.3200 3.4232 0.0869
10.3400 3.4298 0.0712
10.3600 3.4365 0.0723
10.3800 3.4432 0.0779
10.4000 3.4499 0.0726
10.4200 3.4566 0.0699
10.4400 3.4632 0.0776
10.4600 3.4699 0.0693
10.4800 3.4766 0.0729
10.5000 3.4832 0.0705
10.5200 3.4899 0.0672
10.5400 3.4965 0.0696
10.5600 3.5033 0.0652
10.5800 3.5099 0.0612
10.6000 3.5166 0.0710
10.6200 3.5233 0.0621
10.6400 3.5300 0.0618
10.6600 3.5366 0.0627
10.6800 3.5433 0.0601
10.7000 3.5499 0.0658
10.7200 3.5565 0.0594
10.7400 3.5632 0.0566
10.7600 3.5699 0.0553
10.7800 3.5766 0.0630
10.8000 3.5833 0.0554
10.8200 3.5900 0.0532
10.8400 3.5966 0.0554
10.8600 3.6032 0.0551
10.8800 3.6098 0.0503
10.9000 3.6165 0.0532
10.9200 3.6232 0.0487
10.9400 3.6300 0.0497
10.9600 3.6366 0.0472
10.9800 3.6433 0.0516
11.0000 3.6500 0.0462
11.0200 3.6566 0.0462
11.0400 3.6632 0.0480
11.0600 3.6698 0.0424
11.0800 3.6765 0.0430
11.1000 3.6832 0.0458
11.1200 3.6899 0.0380
11.1400 3.6965 0.0387
11.1600 3.7032 0.0500
11.1800 3.7099 0.0357
11.2000 3.7166 0.0377
11.2200 3.7232 0.0415
11.2400 3.7298 0.0322
11.2600 3.7365 0.0408
11.2800 3.7432 0.0395
11.3000 3.7499 0.0247
11.3200 3.7566 0.0417
11.3400 3.7634 0.0339
11.3600 3.7701 0.0233
11.3800 3.7767 0.0364
11.4000 3.7833 0.0357
11.4200 3.7899 0.0230
11.4400 3.7965 0.0340
11.4600 3.8033 0.0241
11.4800 3.8100 0.0288
11.5000 3.8167 0.0317
11.5200 3.8233 0.0170
11.5400 3.8300 0.0270
11.5600 3.8366 0.0268
11.5800 3.8432 0.0198
11.6000 3.8498 0.0260
11.6200 3.8565 0.0265
11.6400 3.8632 0.0181
11.6600 3.8699 0.0190
11.6800 3.8765 0.0177
11.7000 3.8832 0.0186
11.7200 3.8899 0.0188
11.7400 3.8966 0.0139
11.7600 3.9032 0.0097
11.7800 3.9098 0.0167
11.8000 3.9165 0.0130
11.8200 3.9232 0.0144
11.8400 3.9299 0.0094
11.8600 3.9366 0.0074
11.8800 3.9432 0.0099
11.9000 3.9499 0.0059
11.9200 3.9566 0.0013
11.9400 3.9632 0.0137
11.9600 3.9698 0.0077
11.9800 3.9765 -0.0033
12.0000 3.9832 0.0073
12.0200 3.9900 0.0020
12.0400 3.9966 -0.0025
12.0600 4.0033 0.0067
12.0800 4.0099 -0.0035
12.1000 4.0166 -0.0043
12.1200 4.0232 0.0080
12.1400 4.0299 -0.0103
12.1600 4.0366 -0.0036
12.1800 4.0433 0.0011
12.2000 4.0500 -0.0133
12.2200 4.0566 -0.0064
12.2400 4.0633 -0.0001
12.2600 4.0700 -0.0170
12.2800 4.0767 -0.0063
12.3000 4.0833 -0.0092
12.3200 4.0898 -0.0165
12.3400 4.0965 -0.0040
12.3600 4.1032 -0.0087
12.3800 4.1099 -0.0268
12.4000 4.1166 -0.0084
12.4200 4.1233 -0.0163
12.4400 4.1300 -0.0253
12.4600 4.1366 -0.0079
12.4800 4.1432 -0.0240
12.5000 4.1498 -0.0206
12.5200 4.1565 -0.0139
12.5400 4.1632 -0.0239
12.5600 4.1699 -0.0272
12.5800 4.1766 -0.0148
12.6000 4.1832 -0.0277
12.6200 4.1899 -0.0313
12.6400 4.1966 -0.0200
12.6600 4.2033 -0.0306
12.6800 4.2099 -0.0326
12.7000 4.2165 -0.0197
12.7200 4.2232 -0.0364
12.7400 4.2299 -0.0337
12.7600 4.2366 -0.0241
12.7800 4.2433 -0.0357
12.8000 4.2500 -0.0406
12.8200 4.2567 -0.0287
12.8400 4.2633 -0.0428
12.8600 4.2698 -0.0352
12.8800 4.2765 -0.0309
12.9000 4.2832 -0.0448
12.9200 4.2899 -0.0406
12.9400 4.2966 -0.0345
12.9600 4.3033 -0.0458
12.9800 4.3100 -0.0429
13.0000 4.3167 -0.0351
13.0200 4.3233 -0.0508
13.0400 4.3299 -0.0416
13.0600 4.3365 -0.0391
13.0800 4.3432 -0.0529
13.1000 4.3499 -0.0446
13.1200 4.3566 -0.0391
13.1400 4.3633 -0.0578
13.1600 4.3700 -0.0440
13.1800 4.3766 -0.0507
13.2000 4.3832 -0.0590
13.2200 4.3898 -0.0472
13.2400 4.3965 -0.0536
13.2600 4.4031 -0.0536
13.2800 4.4099 -0.0495
13.3000 4.4166 -0.0563
13.3200 4.4232 -0.0569
13.3400 4.4299 -0.0577
13.3600 4.4366 -0.0624
13.3800 4.4433 -0.0581
13.4000 4.4499 -0.0590
13.4200 4.4565 -0.0592
13.4400 4.4632 -0.0556
13.4600 4.4699 -0.0633
13.4800 4.4766 -0.0664
13.5000 4.4833 -0.0581
13.5200 4.4900 -0.0661
13.5400 4.4967 -0.0666
13.5600 4.5033 -0.0648
13.5800 4.5099 -0.0657
13.6000 4.5165 -0.0692
13.6200 4.5232 -0.0645
13.6400 4.5299 -0.0758
13.6600 4.5366 -0.0661
13.6800 4.5432 -0.0673
13.7000 4.5499 -0.0748
13.7200 4.5565 -0.0673
13.7400 4.5632 -0.0737
13.7600 4.5698 -0.0761
13.7800 4.5765 -0.0726
13.8000 4.5832 -0.0737
13.8200 4.5899 -0.0812
13.8400 4.5966 -0.0772
13.8600 4.6033 -0.0777
13.8800 4.6100 -0.0825
13.9000 4.6167 -0.0785
13.9200 4.6233 -0.0827
13.9400 4.6299 -0.0837
13.9600 4.6365 -0.0786
13.9800 4.6432 -0.0915
14.0000 4.6499 -0.0837
14.0200 4.6566 -0.0836
14.0400 4.6633 -0.0874
14.0600 4.6699 -0.0837
14.0800 4.6766 -0.0824
14.1000 4.6832 -0.0932
14.1200 4.6899 -0.0875
14.1400 4.6965 -0.0899
14.1600 4.7032 -0.0937
14.1800 4.7099 -0.0915
14.2000 4.7166 -0.0924
14.2200 4.7233 -0.0930
14.2400 4.7300 -0.0920
14.2600 4.7367 -0.0985
14.2800 4.7433 -0.0936
14.3000 4.7499 -0.0936
14.3200 4.7565 -0.0982
14.3400 4.7632 -0.0979
14.3600 4.7699 -0.1008
14.3800 4.7766 -0.0967
14.4000 4.7833 -0.0999
14.4200 4.7900 -0.0992
14.4400 4.7967 -0.1040
14.4600 4.8033 -0.1018
14.4800 4.8098 -0.1038
14.5000 4.8164 -0.1023
14.5200 4.8231 -0.1015
14.5400 4.8298 -0.1040
14.5600 4.8366 -0.1043
14.5800 4.8433 -0.1064
14.6000 4.8499 -0.1078
14.6200 4.8566 -0.1074
14.6400 4.8633 -0.1123
14.6600 4.8699 -0.1090
14.6800 4.8765 -0.1136
14.7000 4.8832 -0.1136
14.7200 4.8899 -0.1113
14.7400 4.8966 -0.1114
14.7600 4.9032 -0.1139
14.7800 4.9099 -0.1135
14.8000 4.9166 -0.1159
14.8200 4.9233 -0.1193
14.8400 4.9299 -0.1158
14.8600 4.9365 -0.1172
14.8800 4.9432 -0.1211
14.9000 4.9499 -0.1224
14.9200 4.9566 -0.1207
14.9400 4.9633 -0.1226
14.9600 4.9700 -0.1164
14.9800 4.9767 -0.1295
15.0000 4.9833 -0.1278
15.0200 4.9899 -0.1194
15.0400 4.9965 -0.1297
15.0600 5.0032 -0.1278
15.0800 5.0099 -0.1239
15.1000 5.0166 -0.1335
15.1200 5.0233 -0.1311
15.1400 5.0300 -0.1270
15.1600 5.0366 -0.1385
15.1800 5.0433 -0.1335
15.2000 5.0499 -0.1287
15.2200 5.0565 -0.1376
15.2400 5.0632 -0.1357
15.2600 5.0699 -0.1332
15.2800 5.0766 -0.1413
15.3000 5.0832 -0.1364
15.3200 5.0899 -0.1365
15.3400 5.0966 -0.1435
15.3600 5.1033 -0.1427
15.3800 5.1099 -0.1356
15.4000 5.1165 -0.1461
15.4200 5.1232 -0.1427
15.4400 5.1298 -0.1412
15.4600 5.1365 -0.1511
15.4800 5.1432 -0.1482
15.5000 5.1499 -0.1413
15.5200 5.1566 -0.1506
15.5400 5.1633 -0.1504
15.5600 5.1699 -0.1487
15.5800 5.1765 -0.1551
15.6000 5.1832 -0.1480
15.6200 5.1899 -0.1535
15.6400 5.1966 -0.1548
15.6600 5.2033 -0.1480
15.6800 5.2100 -0.1558
15.7000 5.2167 -0.1599
15.7200 5.2233 -0.1579
15.7400 5.2299 -0.1550
15.7600 5.2366 -0.1571
15.7800 5.2432 -0.1620
15.8000 5.2499 -0.1553
15.8200 5.2566 -0.1651
15.8400 5.2633 -0.1609
15.8600 5.2700 -0.1573
15.8800 5.2767 -0.1627
15.9000 5.2833 -0.1647
15.9200 5.2899 -0.1621
15.9400 5.2965 -0.1659
15.9600 5.3031 -0.1602
15.9800 5.3099 -0.1595
16.0000 5.3166 -0.1682
16.0200 5.3233 -0.1676
16.0400 5.3299 -0.1640
16.0600 5.3366 -0.1712
16.0800 5.3432 -0.1676
16.1000 5.3498 -0.1676
16.1200 5.3564 -0.1752
16.1400 5.3631 -0.1632
16.1600 5.3699 -0.1720
16.1800 5.3766 -0.1752
16.2000 5.3833 -0.1691
16.2200 5.3899 -0.1751
16.2400 5.3966 -0.1771
16.2600 5.4033 -0.1695
16.2800 5.4099 -0.1790
16.3000 5.4166 -0.1736
16.3200 5.4232 -0.1755
16.3400 5.4299 -0.1807
16.3600 5.4366 -0.1799
16.3800 5.4433 -0.1784
16.4000 5.4500 -0.1825
16.4200 5.4567 -0.1814
16.4400 5.4633 -0.1806
16.4600 5.4699 -0.1782
16.4800 5.4765 -0.1820
16.5000 5.4832 -0.1839
16.5200 5.4899 -0.1782
16.5400 5.4966 -0.1873
16.5600 5.5033 -0.1889
16.5800 5.5100 -0.1782
16.6000 5.5166 -0.1897
16.6200 5.5233 -0.1923
16.6400 5.5299 -0.1796
16.6600 5.5365 -0.1941
16.6800 5.5432 -0.1916
16.7000 5.5499 -0.1858
16.7200 5.5566 -0.1984
16.7400 5.5633 -0.1991
16.7600 5.5699 -0.1827
16.7800 5.5766 -0.1991
16.8000 5.5833 -0.1975
16.8200 5.5899 -0.1913
16.8400 5.5965 -0.2022
16.8600 5.6032 -0.1975
16.8800 5.6098 -0.1964
16.9000 5.6165 -0.2046
16.9200 5.6232 -0.1928
16.9400 5.6298 -0.2014
16.9600 5.6366 -0.2095
16.9800 5.6433 -0.1949
17.0000 5.6499 -0.2026
17.0200 5.6566 -0.2089
17.0400 5.6632 -0.1939
17.0600 5.6699 -0.2039
17.0800 5.6766 -0.2078
17.1000 5.6833 -0.1947
17.1200 5.6900 -0.2170
17.1400 5.6967 -0.2029
17.1600 5.7033 -0.1994
17.1800 5.7099 -0.2145
17.2000 5.7165 -0.2076
17.2200 5.7232 -0.2048
17.2400 5.7299 -0.2155
17.2600 5.7366 -0.2061
17.2800 5.7433 -0.2135
17.3000 5.7500 -0.2167
17.3200 5.7567 -0.2115
17.3400 5.7633 -0.2155
17.3600 5.7699 -0.2154
17.3800 5.7765 -0.2125
17.4000 5.7832 -0.2188
17.4200 5.7898 -0.2122
17.4400 5.7965 -0.2170
17.4600 5.8032 -0.2230
17.4800 5.8099 -0.2166
17.5000 5.8166 -0.2205
17.5200 5.8233 -0.2207
17.5400 5.8299 -0.2213
17.5600 5.8365 -0.2237
17.5800 5.8431 -0.2225
17.6000 5.8498 -0.2195
17.6200 5.8566 -0.2313
17.6400 5.8633 -0.2269
17.6600 5.8699 -0.2242
17.6800 5.8766 -0.2318
17.7000 5.8832 -0.2304
17.7200 5.8899 -0.2297
17.7400 5.8965 -0.2325
17.7600 5.9032 -0.2214
17.7800 5.9099 -0.2342
17.8000 5.9166 -0.2372
17.8200 5.9233 -0.2264
17.8400 5.9300 -0.2378
17.8600 5.9367 -0.2383
17.8800 5.9434 -0.2296
17.9000 5.9500 -0.2421
17.9200 5.9566 -0.2395
17.9400 5.9632 -0.2329
17.9600 5.9699 -0.2490
17.9800 5.9766 -0.2362
18.0000 5.9833 -0.2375
18.0200 5.9900 -0.2492
18.0400 5.9967 -0.2435
18.0600 6.0033 -0.2469
18.0800 6.0099 -0.2540
18.1000 6.0165 -0.2368
18.1200 6.0231 -0.2448
18.1400 6.0299 -0.2546
18.1600 6.0366 -0.2405
18.1800 6.0433 -0.2479
18.2000 6.0499 -0.2543
18.2200 6.0566 -0.2417
18.2400 6.0633 -0.2526
18.2600 6.0699 -0.2577
18.2800 6.0765 -0.2424
18.3000 6.0832 -0.2513
18.3200 6.0898 -0.2584
18.3400 6.0965 -0.2473
18.3600 6.1032 -0.2560
18.3800 6.1099 -0.2572
18.4000 6.1166 -0.2470
18.4200 6.1233 -0.2592
18.4400 6.1299 -0.2562
18.4600 6.1365 -0.2519
18.4800 6.1432 -0.2613
18.5000 6.1498 -0.2579
18.5200 6.1565 -0.2490
18.5400 6.1632 -0.2680
18.5600 6.1699 -0.2593
18.5800 6.1767 -0.2566
18.6000 6.1833 -0.2684
18.6200 6.1900 -0.2584
18.6400 6.1965 -0.2565
18.6600 6.2032 -0.2714
18.6800 6.2099 -0.2606
18.7000 6.2166 -0.2614
18.7200 6.2233 -0.2709
18.7400 6.2300 -0.2591
18.7600 6.2366 -0.2636
18.7800 6.2433 -0.2737
18.8000 6.2500 -0.2649
18.8200 6.2566 -0.2635
18.8400 6.2632 -0.2690
18.8600 6.2699 -0.2665
18.8800 6.2766 -0.2694
18.9000 6.2832 -0.2723
18.9200 6.2899 -0.2683
18.9400 6.2966 -0.2723
18.9600 6.3033 -0.2788
18.9800 6.3099 -0.2656
19.0000 6.3165 -0.2759
19.0200 6.3231 -0.2767
19.0400 6.3298 -0.2679
19.0600 6.3365 -0.2748
19.0800 6.3432 -0.2758
19.1000 6.3499 -0.2713
19.1200 6.3566 -0.2777
19.1400 6.3633 -0.2752
19.1600 6.3699 -0.2783
19.1800 6.3765 -0.2765
19.2000 6.3832 -0.2764
19.2200 6.3899 -0.2802
19.2400 6.3966 -0.2799
19.2600 6.4033 -0.2812
19.2800 6.4100 -0.2836
19.3000 6.4166 -0.2830
19.3200 6.4233 -0.2790
19.3400 6.4299 -0.2857
19.3600 6.4365 -0.2780
19.3800 6.4432 -0.2814
19.4000 6.4499 -0.2843
19.4200 6.4566 -0.2846
19.4400 6.4633 -0.2835
19.4600 6.4699 -0.2881
19.4800 6.4766 -0.2785
19.5000 6.4833 -0.2926
19.5200 6.4900 -0.2944
19.5400 6.4966 -0.2840
19.5600 6.5032 -0.2931
19.5800 6.5098 -0.2924
19.6000 6.5165 -0.2819
19.6200 6.5233 -0.2928
19.6400 6.5300 -0.2946
19.6600 6.5366 -0.2880
19.6800 6.5433 -0.2954
19.7000 6.5499 -0.2939
19.7200 6.5565 -0.2885
19.7400 6.5631 -0.2957
19.7600 6.5698 -0.2964
19.7800 6.5765 -0.2886
19.8000 6.5832 -0.3033
19.8200 6.5899 -0.2966
19.8400 6.5966 -0.2910
19.8600 6.6032 -0.3041
19.8800 6.6099 -0.3056
19.9000 6.6165 -0.2913
19.9200 6.6232 -0.3025
19.9400 6.6298 -0.3036
19.9600 6.6365 -0.2957
19.9800 6.6432 -0.3039
20.0000 6.6499 -0.3062
20.0200 6.6566 -0.2970
20.0400 6.6633 -0.3059
20.0600 6.6700 -0.3045
20.0800 6.6766 -0.3004
20.1000 6.6832 -0.3109
20.1200 6.6899 -0.3092
20.1400 6.6966 -0.3048
20.1600 6.7033 -0.3101
20.1800 6.7100 -0.3096
20.2000 6.7167 -0.3069
20.2200 6.7233 -0.3138
20.2400 6.7300 -0.3124
20.2600 6.7365 -0.3100
20.2800 6.7432 -0.3110
20.3000 6.7498 -0.3119
20.3200 6.7565 -0.3102
20.3400 6.7632 -0.3194
20.3600 6.7699 -0.3161
20.3800 6.7766 -0.3154
20.4000 6.7833 -0.3160
20.4200 6.7899 -0.3188
20.4400 6.7965 -0.3155
20.4600 6.8032 -0.3202
20.4800 6.8098 -0.3212
20.5000 6.8165 -0.3188
20.5200 6.8232 -0.3180
20.5400 6.8299 -0.3233
20.5600 6.8366 -0.3188
20.5800 6.8433 -0.3253
20.6000 6.8500 -0.3282
20.6200 6.8566 -0.3178
20.6400 6.8632 -0.3241
20.6600 6.8698 -0.3301
20.6800 6.8766 -0.3224
20.7000 6.8833 -0.3296
20.7200 6.8900 -0.3283
20.7400 6.8967 -0.3204
20.7600 6.9033 -0.3362
20.7800 6.9100 -0.3290
20.8000 6.9165 -0.3257
20.8200 6.9232 -0.3350
20.8400 6.9298 -0.3319
20.8600 6.9366 -0.3259
20.8800 6.9433 -0.3366
20.9000 6.9500 -0.3330
20.9200 6.9566 -0.3324
20.9400 6.9633 -0.3316
20.9600 6.9700 -0.3387
20.9800 6.9766 -0.3383
21.0000 6.9832 -0.3364
21.0200 6.9899 -0.3341
21.0400 6.9965 -0.3384
21.0600 7.0032 -0.3388
21.0800 7.0099 -0.3414
21.1000 7.0166 -0.3411
21.1200 7.0233 -0.3405
21.1400 7.0300 -0.3444
21.1600 7.0366 -0.3382
21.1800 7.0431 -0.3439
21.2000 7.0498 -0.3411
21.2200 7.0565 -0.3442
21.2400 7.0632 -0.3461
21.2600 7.0699 -0.3455
21.2800 7.0766 -0.3450
21.3000 7.0833 -0.3505
21.3200 7.0899 -0.3469
21.3400 7.0965 -0.3448
21.3600 7.1032 -0.3470
21.3800 7.1098 -0.3506
21.4000 7.1165 -0.3440
21.4200 7.1232 -0.3586
21.4400 7.1299 -0.3488
21.4600 7.1366 -0.3448
21.4800 7.1433 -0.3604
21.5000 7.1500 -0.3480
21.5200 7.1566 -0.3484
21.5400 7.1632 -0.3613
21.5600 7.1699 -0.3526
21.5800 7.1765 -0.3506
21.6000 7.1832 -0.3647
21.6200 7.1899 -0.3446
21.6400 7.1966 -0.3564
21.6600 7.2033 -0.3674
21.6800 7.2100 -0.3506
21.7000 7.2166 -0.3596
21.7200 7.2232 -0.3645
21.7400 7.2298 -0.3434
21.7600 7.2365 -0.3679
21.7800 7.2433 -0.3654
21.8000 7.2500 -0.3551
21.8200 7.2566 -0.3685
21.8400 7.2633 -0.3613
21.8600 7.2699 -0.3546
21.8800 7.2766 -0.3755
21.9000 7.2832 -0.3615
21.9200 7.2898 -0.3567
21.9400 7.2965 -0.3750
21.9600 7.3032 -0.3625
21.9800 7.3099 -0.3596
22.0000 7.3166 -0.3770
22.0200 7.3232 -0.3621
22.0400 7.3299 -0.3645
22.0600 7.3366 -0.3785
22.0800 7.3432 -0.3621
22.1000 7.3498 -0.3708
22.1200 7.3565 -0.3728
22.1400 7.3632 -0.3660
22.1600 7.3699 -0.3669
22.1800 7.3766 -0.3740
22.2000 7.3833 -0.3654
22.2200 7.3900 -0.3732
22.2400 7.3966 -0.3769
22.2600 7.4032 -0.3712
22.2800 7.4099 -0.3749
22.3000 7.4166 -0.3794
22.3200 7.4233 -0.3712
22.3400 7.4300 -0.3746
22.3600 7.4366 -0.3798
22.3800 7.4433 -0.3724
22.4000 7.4499 -0.3744
22.4200 7.4566 -0.3839
22.4400 7.4632 -0.3738
22.4600 7.4698 -0.3735
22.4800 7.4765 -0.3796
22.5000 7.4832 -0.3782
22.5200 7.4899 -0.3815
22.5400 7.4966 -0.3811
22.5600 7.5033 -0.3803
22.5800 7.5100 -0.3818
22.6000 7.5166 -0.3900
22.6200 7.5232 -0.3784
22.6400 7.5298 -0.3797
22.6600 7.5365 -0.3887
22.6800 7.5432 -0.3851
22.7000 7.5499 -0.3806
22.7200 7.5566 -0.3901
22.7400 7.5633 -0.3918
22.7600 7.5700 -0.3851
22.7800 7.5766 -0.3857
22.8000 7.5832 -0.3906
22.8200 7.5898 -0.3855
22.8400 7.5965 -0.3949
22.8600 7.6032 -0.3917
22.8800 7.6099 -0.3822
22.9000 7.6166 -0.3981
22.9200 7.6233 -0.3901
22.9400 7.6300 -0.3817
22.9600 7.6366 -0.4042
22.9800 7.6432 -0.3964
23.0000 7.6499 -0.3865
23.0200 7.6565 -0.4076
23.0400 7.6632 -0.3941
23.0600 7.6699 -0.3943
23.0800 7.6766 -0.4098
23.1000 7.6833 -0.3945
23.1200 7.6900 -0.3952
23.1400 7.6967 -0.4170
23.1600 7.7032 -0.3914
23.1800 7.7098 -0.4008
23.2000 7.7165 -0.4131
23.2200 7.7232 -0.3906
23.2400 7.7299 -0.4045
23.2600 7.7366 -0.4173
23.2800 7.7433 -0.3981
23.3000 7.7500 -0.4128
23.3200 7.7566 -0.4115
23.3400 7.7632 -0.3982
23.3600 7.7698 -0.4140
23.3800 7.7765 -0.4166
23.4000 7.7832 -0.4013
23.4200 7.7899 -0.4151
23.4400 7.7966 -0.4159
23.4600 7.8032 -0.4019
23.4800 7.8099 -0.4199
23.5000 7.8166 -0.4125
23.5200 7.8232 -0.4135
23.5400 7.8298 -0.4199
23.5600 7.8365 -0.4111
23.5800 7.8432 -0.4160
23.6000 7.8499 -0.4240
23.6200 7.8566 -0.4132
23.6400 7.8633 -0.4204
23.6600 7.8700 -0.4217
23.6800 7.8766 -0.4198
23.7000 7.8832 -0.4218
23.7200 7.8898 -0.4194
23.7400 7.8965 -0.4250
23.7600 7.9032 -0.4276
23.7800 7.9100 -0.4192
23.8000 7.9166 -0.4265
23.8200 7.9233 -0.4299
23.8400 7.9300 -0.4219
23.8600 7.9366 -0.4352
23.8800 7.9432 -0.4275
23.9000 7.9498 -0.4206
23.9200 7.9565 -0.4342
23.9400 7.9632 -0.4288
23.9600 7.9699 -0.4246
23.9800 7.9766 -0.4442
24.0000 7.9833 -0.4280
24.0200 7.9900 -0.4234
24.0400 7.9966 -0.4445
24.0600 8.0032 -0.4326
24.0800 8.0098 -0.4255
24.1000 8.0165 -0.4497
24.1200 8.0232 -0.4310
24.1400 8.0299 -0.4291
24.1600 8.0366 -0.4475
24.1800 8.0433 -0.4334
24.2000 8.0499 -0.4347
24.2200 8.0566 -0.4474
24.2400 8.0632 -0.4366
24.2600 8.0698 -0.4348
24.2800 8.0765 -0.4474
24.3000 8.0832 -0.4356
24.3200 8.0900 -0.4415
24.3400 8.0967 -0.4496
24.3600 8.1033 -0.4358
24.3800 8.1100 -0.4444
24.4000 8.1166 -0.4467
24.4200 8.1232 -0.4389
24.4400 8.1298 -0.4502
24.4600 8.1365 -0.4437
24.4800 8.1433 -0.4459
24.5000 8.1500 -0.4485
24.5200 8.1567 -0.4454
24.5400 8.1633 -0.4437
24.5600 8.1700 -0.4593
24.5800 8.1766 -0.4738
24.6000 8.1832 -0.4784
24.6200 8.1898 -0.4773
24.6400 8.1965 -0.4646
24.6600 8.2032 -0.4754
24.6800 8.2099 -0.4721
24.7000 8.2166 -0.4674
24.7200 8.2233 -0.4796
24.7400 8.2299 -0.4693
24.7600 8.2366 -0.4745
24.7800 8.2432 -0.4766
24.8000 8.2498 -0.4684
24.8200 8.2565 -0.4726
24.8400 8.2632 -0.4750
24.8600 8.2699 -0.4719
24.8800 8.2766 -0.4725
24.9000 8.2833 -0.4812
24.9200 8.2900 -0.4649
24.9400 8.2966 -0.4733
24.9600 8.3032 -0.4790
24.9800 8.3098 -0.4707
25.0000 8.3165 -0.4731
25.0200 8.3232 -0.4782
25.0400 8.3299 -0.4736
25.0600 8.3366 -0.4762
25.0800 8.3433 -0.4766
25.1000 8.3500 -0.4743
25.1200 8.3566 -0.4778
25.1400 8.3632 -0.4806
25.1600 8.3699 -0.4675
25.1800 8.3765 -0.4772
25.2000 8.3832 -0.4842
25.2200 8.3899 -0.4675
25.2400 8.3966 -0.4786
25.2600 8.4033 -0.4823
25.2800 8.4100 -0.4761
25.3000 8.4167 -0.4767
25.3200 8.4233 -0.4842
25.3400 8.4299 -0.4749
25.3600 8.4365 -0.4805
25.3800 8.4432 -0.4810
25.4000 8.4499 -0.4815
25.4200 8.4566 -0.4838
25.4400 8.4633 -0.4812
25.4600 8.4700 -0.4771
25.4800 8.4766 -0.4882
25.5000 8.4832 -0.4824
25.5200 8.4898 -0.4810
25.5400 8.4965 -0.4868
25.5600 8.5032 -0.4816
25.5800 8.5099 -0.4844
25.6000 8.5165 -0.4872
25.6200 8.5232 -0.4806
25.6400 8.5299 -0.4835
25.6600 8.5366 -0.4942
25.6800 8.5432 -0.4832
25.7000 8.5498 -0.4893
25.7200 8.5565 -0.4907
25.7400 8.5632 -0.4865
25.7600 8.5699 -0.4922
25.7800 8.5766 -0.4922
25.8000 8.5833 -0.4920
25.8200 8.5900 -0.4945
25.8400 8.5967 -0.4931
25.8600 8.6033 -0.4948
25.8800 8.6099 -0.4884
25.9000 8.6165 -0.4959
25.9200 8.6232 -0.4942
25.9400 8.6300 -0.4947
25.9600 8.6367 -0.4943
25.9800 8.6433 -0.4989
26.0000 8.6500 -0.4973
26.0200 8.6567 -0.4930
26.0400 8.6633 -0.4982
26.0600 8.6699 -0.5003
26.0800 8.6765 -0.5018
26.1000 8.6832 -0.4984
26.1200 8.6899 -0.4997
26.1400 8.6966 -0.5055
26.1600 8.7032 -0.4979
26.1800 8.7099 -0.5023
26.2000 8.7166 -0.5059
26.2200 8.7232 -0.5045
26.2400 8.7298 -0.5087
26.2600 8.7365 -0.4996
26.2800 8.7431 -0.5093
26.3000 8.7499 -0.5103
26.3200 8.7565 -0.5074
26.3400 8.7632 -0.5052
26.3600 8.7699 -0.5169
26.3800 8.7766 -0.5058
26.4000 8.7832 -0.5052
26.4200 8.7898 -0.5162
26.4400 8.7965 -0.5085
26.4600 8.8032 -0.5081
26.4800 8.8099 -0.5178
26.5000 8.8166 -0.5087
26.5200 8.8233 -0.5157
26.5400 8.8300 -0.5216
26.5600 8.8367 -0.5073
26.5800 8.8433 -0.5189
26.6000 8.8499 -0.5278
26.6200 8.8566 -0.5079
26.6400 8.8632 -0.5184
26.6600 8.8699 -0.5308
26.6800 8.8766 -0.5098
26.7000 8.8833 -0.5195
26.7200 8.8900 -0.5257
26.7400 8.8967 -0.5178
26.7600 8.9033 -0.5266
26.7800 8.9099 -0.5232
26.8000 8.9165 -0.5128
26.8200 8.9232 -0.5248
26.8400 8.9299 -0.5278
26.8600 8.9366 -0.5216
26.8800 8.9433 -0.5271
26.9000 8.9500 -0.5243
26.9200 8.9566 -0.5247
26.9400 8.9632 -0.5318
26.9600 8.9698 -0.5259
26.9800 8.9765 -0.5290
27.0000 8.9832 -0.5275
27.0200 8.9899 -0.5230
27.0400 8.9966 -0.5334
27.0600 9.0032 -0.5296
27.0800 9.0099 -0.5302
27.1000 9.0166 -0.5317
27.1200 9.0233 -0.5323
27.1400 9.0299 -0.5291
27.1600 9.0365 -0.5297
27.1800 9.0432 -0.5326
27.2000 9.0499 -0.5369
27.2200 9.0566 -0.5326
27.2400 9.0633 -0.5294
27.2600 9.0700 -0.5383
27.2800 9.0767 -0.5401
27.3000 9.0833 -0.5271
27.3200 9.0899 -0.5441
27.3400 9.0965 -0.5366
27.3600 9.1032 -0.5317
27.3800 9.1099 -0.5426
27.4000 9.1166 -0.5366
27.4200 9.1233 -0.5379
27.4400 9.1300 -0.5395
27.4600 9.1366 -0.5379
27.4800 9.1433 -0.5416
27.5000 9.1499 -0.5477
27.5200 9.1565 -0.5347
27.5400 9.1632 -0.5386
27.5600 9.1699 -0.5504
27.5800 9.1766 -0.5405
27.6000 9.1833 -0.5396
27.6200 9.1899 -0.5540
27.6400 9.1966 -0.5377
27.6600 9.2033 -0.5442
27.6800 9.2099 -0.5539
27.7000 9.2165 -0.5416
27.7200 9.2231 -0.5433
27.7400 9.2299 -0.5536
27.7600 9.2366 -0.5402
27.7800 9.2432 -0.5495
27.8000 9.2499 -0.5577
27.8200 9.2566 -0.5469
27.8400 9.2633 -0.5470
27.8600 9.2699 -0.5554
27.8800 9.2765 -0.5468
27.9000 9.2832 -0.5461
27.9200 9.2899 -0.5576
27.9400 9.2966 -0.5508
27.9600 9.3033 -0.5476
27.9800 9.3100 -0.5574
28.0000 9.3167 -0.5534
28.0200 9.3233 -0.5519
28.0400 9.3299 -0.5636
28.0600 9.3365 -0.5488
28.0800 9.3432 -0.5523
28.1000 9.3499 -0.5615
28.1200 9.3566 -0.5534
28.1400 9.3633 -0.5556
28.1600 9.3700 -0.5651
28.1800 9.3766 -0.5519
28.2000 9.3833 -0.5591
28.2200 9.3899 -0.5662
28.2400 9.3965 -0.5523
28.2600 9.4032 -0.5617
28.2800 9.4099 -0.5647
28.3000 9.4166 -0.5512
28.3200 9.4233 -0.5637
28.3400 9.4299 -0.5663
28.3600 9.4366 -0.5524
28.3800 9.4433 -0.5668
28.4000 9.4499 -0.5681
28.4200 9.4565 -0.5533
28.4400 9.4631 -0.5689
28.4600 9.4699 -0.5716
28.4800 9.4766 -0.5570
28.5000 9.4833 -0.5737
28.5200 9.4899 -0.5635
28.5400 9.4966 -0.5612
28.5600 9.5033 -0.5759
28.5800 9.5099 -0.5670
28.6000 9.5165 -0.5617
28.6200 9.5232 -0.5779
28.6400 9.5299 -0.5661
28.6600 9.5366 -0.5632
28.6800 9.5433 -0.5760
28.7000 9.5500 -0.5684
28.7200 9.5567 -0.5654
28.7400 9.5633 -0.5746
28.7600 9.5699 -0.5668
28.7800 9.5765 -0.5705
28.8000 9.5832 -0.5754
28.8200 9.5899 -0.5638
28.8400 9.5966 -0.5763
28.8600 9.6033 -0.5699
28.8800 9.6100 -0.5712
28.9000 9.6167 -0.5820
28.9200 9.6233 -0.5706
28.9400 9.6299 -0.5724
28.9600 9.6365 -0.5787
28.9800 9.6432 -0.5665
29.0000 9.6499 -0.5828
29.0200 9.6566 -0.5813
29.0400 9.6632 -0.5685
29.0600 9.6699 -0.5865
29.0800 9.6766 -0.5810
29.1000 9.6833 -0.5646
29.1200 9.6899 -0.5922
29.1400 9.6965 -0.5792
29.1600 9.7032 -0.5678
29.1800 9.7099 -0.5941
29.2000 9.7166 -0.5808
29.2200 9.7232 -0.5757
29.2400 9.7299 -0.5954
29.2600 9.7366 -0.5776
29.2800 9.7433 -0.5777
29.3000 9.7499 -0.5991
29.3200 9.7565 -0.5755
29.3400 9.7632 -0.5835
29.3600 9.7699 -0.5978
29.3800 9.7766 -0.5755
29.4000 9.7833 -0.5865
29.4200 9.7900 -0.5944
29.4400 9.7967 -0.5764
29.4600 9.8033 -0.5934
29.4800 9.8099 -0.5908
29.5000 9.8165 -0.5839
29.5200 9.8232 -0.5928
29.5400 9.8299 -0.5873
29.5600 9.8366 -0.5886
29.5800 9.8433 -0.5996
29.6000 9.8500 -0.5872
29.6200 9.8566 -0.5921
29.6400 9.8633 -0.5993
29.6600 9.8699 -0.5860
29.6800 9.8765 -0.5989
29.7000 9.8832 -0.5977
29.7200 9.8899 -0.5902
29.7400 9.8966 -0.5987
29.7600 9.9032 -0.5960
29.7800 9.9099 -0.5922
29.8000 9.9166 -0.6071
29.8200 9.9233 -0.5954
29.8400 9.9299 -0.5933
29.8600 9.9365 -0.6055
29.8800 9.9431 -0.5965
29.9000 9.9498 -0.5892
29.9200 9.9565 -0.6162
29.9400 9.9632 -0.6004
29.9600 9.9699 -0.5959
29.9800 9.9766 -0.6080
30.0000 9.9832 -0.5986
30.0200 9.9899 -0.6018
30.0400 9.9965 -0.6062
30.0600 10.0032 -0.5991
30.0800 10.0099 -0.6093
30.1000 10.0166 -0.6108
30.1200 10.0233 -0.6012
30.1400 10.0300 -0.6103
30.1600 10.0367 -0.6071
30.1800 10.0433 -0.6092
30.2000 10.0499 -0.6082
30.2200 10.0566 -0.6040
30.2400 10.0632 -0.6129
30.2600 10.0699 -0.6110
30.2800 10.0766 -0.6002
30.3000 10.0833 -0.6169
30.3200 10.0900 -0.6104
30.3400 10.0967 -0.6141
30.3600 10.1033 -0.6152
30.3800 10.1099 -0.6049
30.4000 10.1165 -0.6113
30.4200 10.1231 -0.6190
30.4400 10.1298 -0.6054
30.4600 10.1365 -0.6138
30.4800 10.1432 -0.6234
30.5000 10.1499 -0.6037
30.5200 10.1566 -0.6182
30.5400 10.1633 -0.6250
30.5600 10.1699 -0.6119
30.5800 10.1765 -0.6214
30.6000 10.1831 -0.6177
30.6200 10.1899 -0.6080
30.6400 10.1966 -0.6296
30.6600 10.2033 -0.6236
30.6800 10.2099 -0.6107
30.7000 10.2166 -0.6280
30.7200 10.2233 -0.6223
30.7400 10.2299 -0.6121
30.7600 10.2366 -0.6365
30.7800 10.2432 -0.6163
30.8000 10.2499 -0.6167
30.8200 10.2566 -0.6362
30.8400 10.2633 -0.6173
30.8600 10.2700 -0.6181
30.8800 10.2767 -0.6365
30.9000 10.2833 -0.6209
30.9200 10.2899 -0.6259
30.9400 10.2965 -0.6334
30.9600 10.3032 -0.6190
30.9800 10.3099 -0.6279
31.0000 10.3166 -0.6334
31.0200 10.3233 -0.6256
31.0400 10.3300 -0.6352
31.0600 10.3366 -0.6293
31.0800 10.3433 -0.6242
31.1000 10.3499 -0.6361
31.1200 10.3565 -0.6308
31.1400 10.3631 -0.6330
31.1600 10.3699 -0.6312
31.1800 10.3766 -0.6320
31.2000 10.3832 -0.6362
31.2200 10.3899 -0.6395
31.2400 10.3966 -0.6302
31.2600 10.4033 -0.6369
31.2800 10.4099 -0.6389
31.3000 10.4165 -0.6402
31.3200 10.4231 -0.6374
31.3400 10.4298 -0.6385
31.3600 10.4365 -0.6426
31.3800 10.4432 -0.6382
31.4000 10.4499 -0.6343
31.4200 10.4566 -0.6499
31.4400 10.4633 -0.6440
31.4600 10.4699 -0.6326
31.4800 10.4765 -0.6467
31.5000 10.4832 -0.6451
31.5200 10.4899 -0.6370
31.5400 10.4966 -0.6556
31.5600 10.5033 -0.6463
31.5800 10.5100 -0.6354
31.6000 10.5167 -0.6544
31.6200 10.5233 -0.6475
31.6400 10.5300 -0.6461
31.6600 10.5366 -0.6528
31.6800 10.5432 -0.6427
31.7000 10.5499 -0.6443
31.7200 10.5566 -0.6569
31.7400 10.5633 -0.6477
31.7600 10.5700 -0.6481
31.7800 10.5767 -0.6515
31.8000 10.5833 -0.6507
31.8200 10.5899 -0.6524
31.8400 10.5965 -0.6590
31.8600 10.6032 -0.6475
31.8800 10.6098 -0.6488
31.9000 10.6166 -0.6565
31.9200 10.6233 -0.6541
31.9400 10.6299 -0.6536
31.9600 10.6366 -0.6533
31.9800 10.6433 -0.6539
32.0000 10.6499 -0.6539
32.0200 10.6565 -0.6584
32.0400 10.6631 -0.6546
32.0600 10.6698 -0.6593
32.0800 10.6765 -0.6567
32.1000 10.6833 -0.6554
32.1200 10.6899 -0.6544
32.1400 10.6966 -0.6654
32.1600 10.7033 -0.6591
32.1800 10.7099 -0.6515
32.2000 10.7165 -0.6605
32.2200 10.7232 -0.6653
32.2400 10.7299 -0.6542
32.2600 10.7366 -0.6608
32.2800 10.7433 -0.6663
32.3000 10.7500 -0.6582
32.3200 10.7567 -0.6593
32.3400 10.7634 -0.6728
32.3600 10.7700 -0.6593
32.3800 10.7766 -0.6594
32.4000 10.7832 -0.6675
32.4200 10.7899 -0.6582
32.4400 10.7966 -0.6695
32.4600 10.8033 -0.6705
32.4800 10.8100 -0.6629
32.5000 10.8166 -0.6681
32.5200 10.8233 -0.6738
32.5400 10.8299 -0.6589
32.5600 10.8365 -0.6687
32.5800 10.8431 -0.6712
32.6000 10.8498 -0.6607
32.6200 10.8566 -0.6707
32.6400 10.8633 -0.6785
32.6600 10.8699 -0.6604
32.6800 10.8766 -0.6720
32.7000 10.8833 -0.6795
32.7200 10.8899 -0.6684
32.7400 10.8965 -0.6735
32.7600 10.9032 -0.6750
32.7800 10.9099 -0.6686
32.8000 10.9166 -0.6785
32.8200 10.9232 -0.6758
32.8400 10.9299 -0.6674
32.8600 10.9366 -0.6783
32.8800 10.9433 -0.6769
32.9000 10.9499 -0.6724
32.9200 10.9566 -0.6810
32.9400 10.9632 -0.6821
32.9600 10.9698 -0.6727
32.9800 10.9765 -0.6790
33.0000 10.9833 -0.6804
33.0200 10.9899 -0.6841
33.0400 10.9966 -0.6768
33.0600 11.0033 -0.6771
33.0800 11.0099 -0.6842
33.1000 11.0165 -0.6805
33.1200 11.0232 -0.6789
33.1400 11.0299 -0.6861
33.1600 11.0366 -0.6803
33.1800 11.0433 -0.6830
33.2000 11.0500 -0.6845
33.2200 11.0566 -0.6803
33.2400 11.0633 -0.6941
33.2600 11.0700 -0.6853
33.2800 11.0766 -0.6771
33.3000 11.0832 -0.6888
33.3200 11.0899 -0.6909
33.3400 11.0966 -0.6802
33.3600 11.1033 -0.6928
33.3800 11.1099 -0.6884
33.4000 11.1166 -0.6821
33.4200 11.1233 -0.6936
33.4400 11.1299 -0.6947
33.4600 11.1365 -0.6855
33.4800 11.1431 -0.6968
33.5000 11.1498 -0.6879
33.5200 11.1565 -0.6850
33.5400 11.1632 -0.6983
33.5600 11.1699 -0.6977
33.5800 11.1766 -0.6831
33.6000 11.1833 -0.6981
33.6200 11.1899 -0.6977
33.6400 11.1965 -0.6886
33.6600 11.2032 -0.6959
33.6800 11.2099 -0.6923
33.7000 11.2166 -0.6979
33.7200 11.2233 -0.6969
33.7400 11.2300 -0.6981
33.7600 11.2367 -0.6996
33.7800 11.2433 -0.6987
33.8000 11.2500 -0.6964
33.8200 11.2566 -0.6941
33.8400 11.2632 -0.6969
33.8600 11.2698 -0.7062
33.8800 11.2765 -0.6951
33.9000 11.2833 -0.6958
33.9200 11.2899 -0.7023
33.9400 11.2966 -0.7019
33.9600 11.3033 -0.6987
33.9800 11.3100 -0.7081
34.0000 11.3166 -0.6947
34.0200 11.3232 -0.7000
34.0400 11.3298 -0.7078
34.0600 11.3365 -0.6952
34.0800 11.3432 -0.7100
34.1000 11.3499 -0.7090
34.1200 11.3566 -0.6925
34.1400 11.3633 -0.7092
34.1600 11.3700 -0.7184
34.1800 11.3766 -0.6964
34.2000 11.3831 -0.7019
34.2200 11.3898 -0.7118
34.2400 11.3965 -0.7009
34.2600 11.4032 -0.7088
34.2800 11.4099 -0.7145
34.3000 11.4166 -0.6977
34.3200 11.4232 -0.7134
34.3400 11.4299 -0.7156
34.3600 11.4365 -0.7011
34.3800 11.4432 -0.7092
34.4000 11.4499 -0.7148
34.4200 11.4566 -0.7046
34.4400 11.4633 -0.7167
34.4600 11.4700 -0.7175
34.4800 11.4766 -0.7030
34.5000 11.4833 -0.7125
34.5200 11.4900 -0.7199
34.5400 11.4966 -0.7062
34.5600 11.5032 -0.7165
34.5800 11.5099 -0.7186
34.6000 11.5166 -0.7049
34.6200 11.5233 -0.7151
34.6400 11.5300 -0.7231
34.6600 11.5367 -0.7117
34.6800 11.5433 -0.7164
34.7000 11.5500 -0.7168
34.7200 11.5566 -0.7108
34.7400 11.5632 -0.7216
34.7600 11.5698 -0.7227
34.7800 11.5765 -0.7146
34.8000 11.5832 -0.7173
34.8200 11.5899 -0.7220
34.8400 11.5966 -0.7171
34.8600 11.6033 -0.7199
34.8800 11.6099 -0.7237
34.9000 11.6166 -0.7219
34.9200 11.6232 -0.7102
34.9400 11.6298 -0.7246
34.9600 11.6365 -0.7235
34.9800 11.6432 -0.7206
35.0000 11.6499 -0.7254
35.0200 11.6566 -0.7224
35.0400 11.6633 -0.7238
35.0600 11.6700 -0.7310
35.0800 11.6766 -0.7229
35.1000 11.6832 -0.7175
35.1200 11.6898 -0.7313
35.1400 11.6966 -0.7268
35.1600 11.7033 -0.7269
35.1800 11.7099 -0.7362
35.2000 11.7166 -0.7218
35.2200 11.7233 -0.7243
35.2400 11.7300 -0.7371
35.2600 11.7366 -0.7227
35.2800 11.7432 -0.7299
35.3000 11.7498 -0.7414
35.3200 11.7565 -0.7253
35.3400 11.7633 -0.7252
35.3600 11.7700 -0.7427
35.3800 11.7766 -0.7297
35.4000 11.7833 -0.7279
35.4200 11.7900 -0.7383
35.4400 11.7966 -0.7350
35.4600 11.8032 -0.7334
35.4800 11.8099 -0.7352
35.5000 11.8165 -0.7316
35.5200 11.8232 -0.7371
35.5400 11.8299 -0.7411
35.5600 11.8366 -0.7286
35.5800 11.8433 -0.7391
35.6000 11.8500 -0.7461
35.6200 11.8566 -0.7351
35.6400 11.8632 -0.7369
35.6600 11.8698 -0.7464
35.6800 11.8765 -0.7338
35.7000 11.8832 -0.7401
35.7200 11.8899 -0.7420
35.7400 11.8966 -0.7406
35.7600 11.9033 -0.7443
35.7800 11.9099 -0.7465
35.8000 11.9166 -0.7405
35.8200 11.9232 -0.7434
35.8400 11.9298 -0.7453
35.8600 11.9365 -0.7463
35.8800 11.9432 -0.7455
35.9000 11.9499 -0.7487
35.9200 11.9566 -0.7472
35.9400 11.9633 -0.7445
35.9600 11.9700 -0.7527
35.9800 11.9766 -0.7470
36.0000 11.9832 -0.7509
36.0200 11.9899 -0.7558
36.0400 11.9965 -0.7448
36.0600 12.0032 -0.7488
36.0800 12.0099 -0.7587
36.1000 12.0166 -0.7486
36.1200 12.0233 -0.7495
36.1400 12.0300 -0.7599
36.1600 12.0366 -0.7535
36.1800 12.0432 -0.7479
36.2000 12.0498 -0.7589
36.2200 12.0565 -0.7573
36.2400 12.0632 -0.7540
36.2600 12.0699 -0.7610
36.2800 12.0766 -0.7555
36.3000 12.0833 -0.7540
36.3200 12.0900 -0.7625
36.3400 12.0966 -0.7583
36.3600 12.1032 -0.7573
36.3800 12.1098 -0.7627
36.4000 12.1165 -0.7578
36.4200 12.1232 -0.7575
36.4400 12.1299 -0.7642
36.4600 12.1365 -0.7641
36.4800 12.1432 -0.7562
36.5000 12.1500 -0.7703
36.5200 12.1566 -0.7643
36.5400 12.1632 -0.7584
36.5600 12.1699 -0.7661
36.5800 12.1765 -0.7646
36.6000 12.1832 -0.7592
36.6200 12.1899 -0.7727
36.6400 12.1966 -0.7710
36.6600 12.2033 -0.7603
36.6800 12.2100 -0.7711
36.7000 12.2166 -0.7730
36.7200 12.2232 -0.7619
36.7400 12.2298 -0.7697
36.7600 12.2365 -0.7719
36.7800 12.2433 -0.7657
36.8000 12.2500 -0.7734
36.8200 12.2566 -0.7708
36.8400 12.2633 -0.7653
36.8600 12.2700 -0.7801
36.8800 12.2766 -0.7753
36.9000 12.2832 -0.7655
36.9200 12.2898 -0.7756
36.9400 12.2965 -0.7735
36.9600 12.3032 -0.7707
36.9800 12.3099 -0.7780
37.0000 12.3166 -0.7755
37.0200 12.3233 -0.7686
37.0400 12.3300 -0.7815
37.0600 12.3366 -0.7792
37.0800 12.3432 -0.7769
37.1000 12.3498 -0.7794
37.1200 12.3565 -0.7768
37.1400 12.3632 -0.7759
37.1600 12.3699 -0.7852
37.1800 12.3766 -0.7760
37.2000 12.3833 -0.7798
37.2200 12.3900 -0.7849
37.2400 12.3966 -0.7766
37.2600 12.4032 -0.7809
37.2800 12.4098 -0.7836
37.3000 12.4165 -0.7769
37.3200 12.4232 -0.7826
37.3400 12.4300 -0.7856
37.3600 12.4366 -0.7797
37.3800 12.4433 -0.7840
37.4000 12.4500 -0.7796
37.4200 12.4566 -0.7840
37.4400 12.4632 -0.7920
37.4600 12.4699 -0.7846
37.4800 12.4765 -0.7821
37.5000 12.4832 -0.7950
37.5200 12.4899 -0.7827
37.5400 12.4966 -0.7862
37.5600 12.5033 -0.7924
37.5800 12.5100 -0.7854
37.6000 12.5166 -0.7920
37.6200 12.5232 -0.7937
37.6400 12.5298 -0.7772
37.6600 12.5365 -0.7952
37.6800 12.5432 -0.7956
37.7000 12.5499 -0.7809
37.7200 12.5566 -0.7991
37.7400 12.5633 -0.7934
37.7600 12.5700 -0.7860
37.7800 12.5766 -0.7994
37.8000 12.5832 -0.7899
37.8200 12.5898 -0.7873
37.8400 12.5964 -0.8069
37.8600 12.6032 -0.7857
37.8800 12.6099 -0.7903
37.9000 12.6165 -0.8069
37.9200 12.6232 -0.7946
37.9400 12.6299 -0.7917
37.9600 12.6366 -0.8051
37.9800 12.6432 -0.7975
38.0000 12.6498 -0.8018
38.0200 12.6565 -0.8028
38.0400 12.6632 -0.8004
38.0600 12.6699 -0.8048
38.0800 12.6766 -0.8013
38.1000 12.6833 -0.7995
38.1200 12.6900 -0.8056
38.1400 12.6967 -0.8034
38.1600 12.7033 -0.8060
38.1800 12.7099 -0.8010
38.2000 12.7165 -0.8022
38.2200 12.7232 -0.8136
38.2400 12.7300 -0.7993
38.2600 12.7366 -0.8030
38.2800 12.7433 -0.8203
38.3000 12.7500 -0.8017
38.3200 12.7566 -0.8049
38.3400 12.7632 -0.8186
38.3600 12.7698 -0.7969
38.3800 12.7765 -0.8133
38.4000 12.7832 -0.8164
38.4200 12.7899 -0.8014
38.4400 12.7966 -0.8155
38.4600 12.8032 -0.8161
38.4800 12.8100 -0.8013
38.5000 12.8166 -0.8203
38.5200 12.8233 -0.8205
38.5400 12.8299 -0.8040
38.5600 12.8365 -0.8203
38.5800 12.8432 -0.8194
38.6000 12.8499 -0.8046
38.6200 12.8566 -0.8228
38.6400 12.8632 -0.8185
38.6600 12.8699 -0.8062
38.6800 12.8766 -0.8269
38.7000 12.8832 -0.8199
38.7200 12.8898 -0.8070
38.7400 12.8965 -0.8228
38.7600 12.9032 -0.8231
38.7800 12.9099 -0.8091
38.8000 12.9166 -0.8280
38.8200 12.9233 -0.8214
38.8400 12.9300 -0.8165
38.8600 12.9366 -0.8302
38.8800 12.9432 -0.8179
38.9000 12.9498 -0.8191
38.9200 12.9565 -0.8293
38.9400 12.9633 -0.8192
38.9600 12.9700 -0.8222
38.9800 12.9767 -0.8335
39.0000 12.9833 -0.8214
39.0200 12.9900 -0.8194
39.0400 12.9966 -0.8360
39.0600 13.0032 -0.8234
39.0800 13.0099 -0.8163
39.1000 13.0165 -0.8329
39.1200 13.0232 -0.8315
39.1400 13.0299 -0.8232
39.1600 13.0366 -0.8273
39.1800 13.0432 -0.8335
39.2000 13.0499 -0.8216
39.2200 13.0566 -0.8314
39.2400 13.0632 -0.8397
39.2600 13.0698 -0.8222
39.2800 13.0765 -0.8279
39.3000 13.0832 -0.8393
39.3200 13.0899 -0.8238
39.3400 13.0966 -0.8340
39.3600 13.1033 -0.8394
39.3800 13.1100 -0.8266
39.4000 13.1166 -0.8443
39.4200 13.1233 -0.8375
39.4400 13.1299 -0.8149
39.4600 13.1365 -0.8511
39.4800 13.1432 -0.8420
39.5000 13.1499 -0.8204
39.5200 13.1566 -0.8577
39.5400 13.1633 -0.8292
39.5600 13.1699 -0.8202
39.5800 13.1766 -0.8643
39.6000 13.1833 -0.8418
39.6200 13.1899 -0.8277
39.6400 13.1965 -0.8526
39.6600 13.2032 -0.8310
39.6800 13.2099 -0.8346
39.7000 13.2166 -0.8622
39.7200 13.2233 -0.8379
39.7400 13.2300 -0.8400
39.7600 13.2367 -0.8524
39.7800 13.2433 -0.8322
39.8000 13.2499 -0.8531
39.8200 13.2565 -0.8522
39.8400 13.2632 -0.8329
39.8600 13.2699 -0.8542
39.8800 13.2766 -0.8450
39.9000 13.2833 -0.8372
39.9200 13.2900 -0.8611
39.9400 13.2966 -0.8475
39.9600 13.3032 -0.8446
39.9800 13.3098 -0.8543
40.0000 13.3165 -0.8445
40.0200 13.3232 -0.8505
40.0400 13.3299 -0.8538
40.0600 13.3365 -0.8479
40.0800 13.3432 -0.8569
40.1000 13.3499 -0.8559
40.1200 13.3566 -0.8405
40.1400 13.3633 -0.8658
40.1600 13.3699 -0.8558
40.1800 13.3765 -0.8436
40.2000 13.3832 -0.8657
40.2200 13.3899 -0.8514
40.2400 13.3966 -0.8433
40.2600 13.4033 -0.8691
40.2800 13.4100 -0.8556
40.3000 13.4167 -0.8510
40.3200 13.4233 -0.8674
40.3400 13.4299 -0.8514
40.3600 13.4365 -0.8539
40.3800 13.4432 -0.8690
40.4000 13.4500 -0.8546
40.4200 13.4567 -0.8575
40.4400 13.4633 -0.8658
40.4600 13.4699 -0.8525
40.4800 13.4766 -0.8610
40.5000 13.4832 -0.8646
40.5200 13.4898 -0.8589
40.5400 13.4965 -0.8555
40.5600 13.5032 -0.8616
40.5800 13.5099 -0.8650
40.6000 13.5166 -0.8630
40.6200 13.5233 -0.8633
40.6400 13.5300 -0.8672
40.6600 13.5366 -0.8603
40.6800 13.5433 -0.8645
40.7000 13.5498 -0.8682
40.7200 13.5565 -0.8599
40.7400 13.5631 -0.8638
40.7600 13.5699 -0.8742
40.7800 13.5766 -0.8551
40.8000 13.5832 -0.8663
40.8200 13.5899 -0.8765
40.8400 13.5966 -0.8570
40.8600 13.6032 -0.8712
40.8800 13.6098 -0.8735
40.9000 13.6165 -0.8613
40.9200 13.6232 -0.8700
40.9400 13.6299 -0.8742
40.9600 13.6366 -0.8662
40.9800 13.6433 -0.8757
41.0000 13.6500 -0.8736
41.0200 13.6566 -0.8682
41.0400 13.6633 -0.8725
41.0600 13.6699 -0.8777
41.0800 13.6766 -0.8709
41.1000 13.6832 -0.8769
41.1200 13.6899 -0.8767
41.1400 13.6966 -0.8704
41.1600 13.7033 -0.8745
41.1800 13.7100 -0.8814
41.2000 13.7167 -0.8739
41.2200 13.7233 -0.8787
41.2400 13.7299 -0.8802
41.2600 13.7365 -0.8769
41.2800 13.7431 -0.8797
41.3000 13.7498 -0.8791
41.3200 13.7565 -0.8850
41.3400 13.7632 -0.8768
41.3600 13.7699 -0.8813
41.3800 13.7766 -0.8857
41.4000 13.7833 -0.8811
41.4200 13.7899 -0.8829
41.4400 13.7965 -0.8830
41.4600 13.8032 -0.8749
41.4800 13.8099 -0.8877
41.5000 13.8166 -0.8921
41.5200 13.8232 -0.8817
41.5400 13.8299 -0.8838
41.5600 13.8366 -0.8955
41.5800 13.8433 -0.8823
41.6000 13.8499 -0.8891
41.6200 13.8565 -0.8950
41.6400 13.8632 -0.8849
41.6600 13.8699 -0.8914
41.6800 13.8766 -0.8908
41.7000 13.8833 -0.8853
41.7200 13.8900 -0.8970
41.7400 13.8967 -0.8907
41.7600 13.9033 -0.8841
41.7800 13.9099 -0.9037
41.8000 13.9165 -0.8889
41.8200 13.9232 -0.8855
41.8400 13.9299 -0.9038
41.8600 13.9366 -0.8915
41.8800 13.9433 -0.8874
41.9000 13.9500 -0.9064
41.9200 13.9566 -0.8892
41.9400 13.9633 -0.8921
41.9600 13.9699 -0.9072
41.9800 13.9765 -0.8875
42.0000 13.9832 -0.8967
42.0200 13.9899 -0.9094
42.0400 13.9966 -0.8851
42.0600 14.0033 -0.9059
42.0800 14.0099 -0.9088
42.1000 14.0166 -0.8870
42.1200 14.0232 -0.9047
42.1400 14.0298 -0.9125
42.1600 14.0365 -0.8932
42.1800 14.0432 -0.9022
42.2000 14.0499 -0.9138
42.2200 14.0566 -0.8907
42.2400 14.0632 -0.9070
42.2600 14.0699 -0.9120
42.2800 14.0766 -0.9002
42.3000 14.0833 -0.9080
42.3200 14.0899 -0.9071
42.3400 14.0965 -0.9024
42.3600 14.1032 -0.9112
42.3800 14.1099 -0.9084
42.4000 14.1166 -0.9051
42.4200 14.1233 -0.9077
42.4400 14.1300 -0.9123
42.4600 14.1367 -0.9090
42.4800 14.1433 -0.9117
42.5000 14.1499 -0.9118
42.5200 14.1565 -0.9045
42.5400 14.1632 -0.9121
42.5600 14.1699 -0.9197
42.5800 14.1766 -0.9126
42.6000 14.1833 -0.9074
42.6200 14.1900 -0.9211
42.6400 14.1966 -0.9105
42.6600 14.2033 -0.9145
42.6800 14.2099 -0.9209
42.7000 14.2165 -0.9145
42.7200 14.2231 -0.9137
42.7400 14.2299 -0.9261
42.7600 14.2366 -0.9143
42.7800 14.2433 -0.9151
42.8000 14.2500 -0.9246
42.8200 14.2567 -0.9163
42.8400 14.2633 -0.9179
42.8600 14.2699 -0.9275
42.8800 14.2764 -0.9138
42.9000 14.2831 -0.9244
42.9200 14.2898 -0.9220
42.9400 14.2965 -0.9161
42.9600 14.3033 -0.9245
42.9800 14.3099 -0.9302
43.0000 14.3166 -0.9180
43.0200 14.3233 -0.9223
43.0400 14.3299 -0.9216
43.0600 14.3365 -0.9192
43.0800 14.3432 -0.9267
43.1000 14.3499 -0.9242
43.1200 14.3566 -0.9290
43.1400 14.3633 -0.9260
43.1600 14.3700 -0.9208
43.1800 14.3766 -0.9266
43.2000 14.3833 -0.9323
43.2200 14.3899 -0.9271
43.2400 14.3965 -0.9307
43.2600 14.4032 -0.9214
43.2800 14.4099 -0.9314
43.3000 14.4166 -0.9314
43.3200 14.4233 -0.9214
43.3400 14.4300 -0.9343
43.3600 14.4367 -0.9359
43.3800 14.4433 -0.9176
43.4000 14.4499 -0.9355
43.4200 14.4565 -0.9354
43.4400 14.4632 -0.9236
43.4600 14.4699 -0.9355
43.4800 14.4766 -0.9331
43.5000 14.4832 -0.9234
43.5200 14.4899 -0.9360
43.5400 14.4966 -0.9334
43.5600 14.5033 -0.9248
43.5800 14.5099 -0.9415
43.6000 14.5165 -0.9301
43.6200 14.5231 -0.9250
43.6400 14.5298 -0.9374
43.6600 14.5365 -0.9329
43.6800 14.5432 -0.9341
43.7000 14.5498 -0.9418
43.7200 14.5565 -0.9317
43.7400 14.5632 -0.9357
43.7600 14.5699 -0.9427
43.7800 14.5765 -0.9304
43.8000 14.5832 -0.9355
43.8200 14.5899 -0.9460
43.8400 14.5966 -0.9325
43.8600 14.6033 -0.9314
43.8800 14.6100 -0.9413
43.9000 14.6167 -0.9358
43.9200 14.6233 -0.9435
43.9400 14.6299 -0.9398
43.9600 14.6365 -0.9346
43.9800 14.6432 -0.9403
44.0000 14.6499 -0.9467
44.0200 14.6566 -0.9408
44.0400 14.6633 -0.9382
44.0600 14.6700 -0.9455
44.0800 14.6766 -0.9456
44.1000 14.6833 -0.9411
44.1200 14.6899 -0.9449
44.1400 14.6965 -0.9465
44.1600 14.7032 -0.9452
44.1800 14.7099 -0.9393
44.2000 14.7166 -0.9499
44.2200 14.7233 -0.9509
44.2400 14.7300 -0.9411
44.2600 14.7366 -0.9489
44.2800 14.7433 -0.9503
44.3000 14.7499 -0.9476
44.3200 14.7565 -0.9540
44.3400 14.7631 -0.9482
44.3600 14.7698 -0.9470
44.3800 14.7765 -0.9610
44.4000 14.7832 -0.9484
44.4200 14.7899 -0.9510
44.4400 14.7966 -0.9597
44.4600 14.8032 -0.9497
44.4800 14.8098 -0.9516
44.5000 14.8164 -0.9589
44.5200 14.8231 -0.9480
44.5400 14.8298 -0.9569
44.5600 14.8366 -0.9632
44.5800 14.8433 -0.9483
44.6000 14.8500 -0.9557
44.6200 14.8567 -0.9653
44.6400 14.8634 -0.9477
44.6600 14.8700 -0.9586
44.6800 14.8766 -0.9661
44.7000 14.8832 -0.9527
44.7200 14.8899 -0.9626
44.7400 14.8966 -0.9648
44.7600 14.9033 -0.9500
44.7800 14.9100 -0.9684
44.8000 14.9167 -0.9669
44.8200 14.9233 -0.9533
44.8400 14.9299 -0.9698
44.8600 14.9365 -0.9642
44.8800 14.9431 -0.9556
44.9000 14.9498 -0.9651
44.9200 14.9565 -0.9680
44.9400 14.9632 -0.9624
44.9600 14.9699 -0.9682
44.9800 14.9766 -0.9670
45.0000 14.9833 -0.9663
45.0200 14.9899 -0.9715
45.0400 14.9965 -0.9637
45.0600 15.0032 -0.9666
45.0800 15.0099 -0.9740
45.1000 15.0166 -0.9644
45.1200 15.0233 -0.9759
45.1400 15.0299 -0.9686
45.1600 15.0366 -0.9690
45.1800 15.0433 -0.9810
45.2000 15.0499 -0.9673
45.2200 15.0565 -0.9700
45.2400 15.0632 -0.9839
45.2600 15.0699 -0.9691
45.2800 15.0766 -0.9700
45.3000 15.0833 -0.9829
45.3200 15.0899 -0.9678
45.3400 15.0966 -0.9769
45.3600 15.1033 -0.9835
45.3800 15.1100 -0.9721
45.4000 15.1166 -0.9797
45.4200 15.1232 -0.9806
45.4400 15.1299 -0.9710
45.4600 15.1366 -0.9859
45.4800 15.1433 -0.9786
45.5000 15.1500 -0.9764
45.5200 15.1567 -0.9834
45.5400 15.1633 -0.9836
45.5600 15.1699 -0.9788
45.5800 15.1765 -0.9885
45.6000 15.1832 -0.9820
45.6200 15.1899 -0.9791
45.6400 15.1966 -0.9936
45.6600 15.2033 -0.9818
45.6800 15.2099 -0.9836
45.7000 15.2166 -0.9976
45.7200 15.2233 -0.9872
45.7400 15.2299 -0.9830
45.7600 15.2365 -0.9934
45.7800 15.2432 -0.9897
45.8000 15.2498 -0.9890
45.8200 15.2565 -0.9923
45.8400 15.2632 -0.9907
45.8600 15.2699 -0.9847
45.8800 15.2766 -0.9994
45.9000 15.2833 -0.9949
45.9200 15.2899 -0.9903
45.9400 15.2965 -0.9946
45.9600 15.3032 -0.9994
45.9800 15.3098 -0.9904
46.0000 15.3166 -1.0010
46.0200 15.3233 -1.0031
46.0400 15.3300 -0.9906
46.0600 15.3366 -0.9995
46.0800 15.3433 -1.0002
46.1000 15.3499 -0.9936
46.1200 15.3566 -1.0026
46.1400 15.3632 -0.9999
46.1600 15.3699 -0.9895
46.1800 15.3766 -1.0104
46.2000 15.3833 -1.0065
46.2200 15.3900 -0.9850
46.2400 15.3967 -1.0081
46.2600 15.4033 -1.0119
46.2800 15.4099 -0.9901
46.3000 15.4165 -1.0097
46.3200 15.4232 -1.0080
46.3400 15.4298 -0.9988
46.3600 15.4366 -1.0062
46.3800 15.4433 -1.0092
46.4000 15.4500 -1.0003
46.4200 15.4566 -1.0066
46.4400 15.4633 -1.0081
46.4600 15.4699 -1.0009
46.4800 15.4765 -1.0161
46.5000 15.4831 -1.0079
46.5200 15.4898 -1.0028
46.5400 15.4965 -1.0151
46.5600 15.5032 -1.0141
46.5800 15.5099 -1.0054
46.6000 15.5166 -1.0093
46.6200 15.5233 -1.0168
46.6400 15.5299 -1.0115
46.6600 15.5365 -1.0125
46.6800 15.5432 -1.0138
46.7000 15.5498 -1.0085
46.7200 15.5565 -1.0175
46.7400 15.5632 -1.0165
46.7600 15.5699 -1.0187
46.7800 15.5766 -1.0152
46.8000 15.5833 -1.0190
46.8200 15.5900 -1.0163
46.8400 15.5966 -1.0171
46.8600 15.6032 -1.0181
46.8800 15.6099 -1.0196
46.9000 15.6166 -1.0188
46.9200 15.6233 -1.0208
46.9400 15.6300 -1.0197
46.9600 15.6366 -1.0193
46.9800 15.6433 -1.0266
47.0000 15.6499 -1.0214
47.0200 15.6566 -1.0192
47.0400 15.6632 -1.0249
47.0600 15.6699 -1.0206
47.0800 15.6766 -1.0201
47.1000 15.6833 -1.0267
47.1200 15.6899 -1.0219
47.1400 15.6966 -1.0233
47.1600 15.7033 -1.0303
47.1800 15.7099 -1.0244
47.2000 15.7165 -1.0228
47.2200 15.7232 -1.0351
47.2400 15.7298 -1.0210
47.2600 15.7366 -1.0267
47.2800 15.7432 -1.0383
47.3000 15.7499 -1.0280
47.3200 15.7566 -1.0213
47.3400 15.7633 -1.0375
47.3600 15.7700 -1.0361
47.3800 15.7766 -1.0256
47.4000 15.7832 -1.0383
47.4200 15.7898 -1.0306
47.4400 15.7965 -1.0219
47.4600 15.8033 -1.0476
47.4800 15.8100 -1.0427
47.5000 15.8166 -1.0170
47.5200 15.8233 -1.0469
47.5400 15.8299 -1.0466
47.5600 15.8365 -1.0152
47.5800 15.8432 -1.0443
47.6000 15.8498 -1.0510
47.6200 15.8566 -1.0255
47.6400 15.8633 -1.0423
47.6600 15.8700 -1.0464
47.6800 15.8767 -1.0249
47.7000 15.8833 -1.0470
47.7200 15.8900 -1.0580
47.7400 15.8966 -1.0256
47.7600 15.9032 -1.0415
47.7800 15.9098 -1.0477
47.8000 15.9165 -1.0312
47.8200 15.9233 -1.0486
47.8400 15.9299 -1.0492
47.8600 15.9366 -1.0358
47.8800 15.9433 -1.0513
47.9000 15.9499 -1.0442
47.9200 15.9566 -1.0348
47.9400 15.9632 -1.0624
47.9600 15.9698 -1.0480
47.9800 15.9765 -1.0367
48.0000 15.9832 -1.0574
48.0200 15.9899 -1.0480
48.0400 15.9966 -1.0400
48.0600 16.0033 -1.0608
48.0800 16.0100 -1.0472
48.1000 16.0166 -1.0460
48.1200 16.0232 -1.0549
48.1400 16.0299 -1.0458
48.1600 16.0366 -1.0513
48.1800 16.0433 -1.0625
48.2000 16.0500 -1.0498
48.2200 16.0567 -1.0505
48.2400 16.0633 -1.0546
48.2600 16.0700 -1.0537
48.2800 16.0766 -1.0577
48.3000 16.0832 -1.0560
48.3200 16.0898 -1.0514
48.3400 16.0965 -1.0566
48.3600 16.1033 -1.0552
48.3800 16.1099 -1.0514
48.4000 16.1166 -1.0633
48.4200 16.1233 -1.0583
48.4400 16.1300 -1.0559
48.4600 16.1366 -1.0588
48.4800 16.1432 -1.0596
48.5000 16.1498 -1.0584
48.5200 16.1565 -1.0578
48.5400 16.1632 -1.0600
48.5600 16.1699 -1.0658
48.5800 16.1766 -1.0623
48.6000 16.1833 -1.0603
48.6200 16.1900 -1.0640
48.6400 16.1966 -1.0639
48.6600 16.2032 -1.0603
48.6800 16.2098 -1.0681
48.7000 16.2165 -1.0613
48.7200 16.2232 -1.0620
48.7400 16.2299 -1.0693
48.7600 16.2366 -1.0632
48.7800 16.2433 -1.0659
48.8000 16.2499 -1.0745
48.8200 16.2566 -1.0652
48.8400 16.2632 -1.0668
48.8600 16.2698 -1.0763
48.8800 16.2765 -1.0622
48.9000 16.2832 -1.0688
48.9200 16.2899 -1.0749
48.9400 16.2966 -1.0675
48.9600 16.3033 -1.0667
48.9800 16.3100 -1.0800
49.0000 16.3166 -1.0675
49.0200 16.3232 -1.0736
49.0400 16.3298 -1.0800
49.0600 16.3366 -1.0696
49.0800 16.3433 -1.0735
49.1000 16.3500 -1.0847
49.1200 16.3566 -1.0717
49.1400 16.3633 -1.0765
49.1600 16.3699 -1.0863
49.1800 16.3765 -1.0723
49.2000 16.3832 -1.0763
49.2200 16.3898 -1.0851
49.2400 16.3965 -1.0741
49.2600 16.4032 -1.0790
49.2800 16.4099 -1.0886
49.3000 16.4166 -1.0717
49.3200 16.4232 -1.0794
49.3400 16.4299 -1.0925
49.3600 16.4366 -1.0812
49.3800 16.4432 -1.0750
49.4000 16.4498 -1.0925
49.4200 16.4565 -1.0829
49.4400 16.4632 -1.0816
49.4600 16.4699 -1.0942
49.4800 16.4766 -1.0839
49.5000 16.4833 -1.0873
49.5200 16.4900 -1.0956
49.5400 16.4966 -1.0826
49.5600 16.5032 -1.0867
49.5800 16.5098 -1.0959
49.6000 16.5165 -1.0876
49.6200 16.5233 -1.0882
49.6400 16.5300 -1.0969
49.6600 16.5366 -1.0909
49.6800 16.5433 -1.0878
49.7000 16.5500 -1.0978
49.7200 16.5566 -1.0936
49.7400 16.5632 -1.0931
49.7600 16.5698 -1.1003
49.7800 16.5765 -1.0993
49.8000 16.5832 -1.0954
49.8200 16.5899 -1.1006
49.8400 16.5966 -1.0979
49.8600 16.6033 -1.0988
49.8800 16.6100 -1.1057
49.9000 16.6166 -1.1036
49.9200 16.6233 -1.0985
49.9400 16.6299 -1.1020
49.9600 16.6365 -1.1031
49.9800 16.6432 -1.1011
50.0000 16.6499 -1.1067
50.0200 16.6566 -1.1053
50.0400 16.6633 -1.1010
50.0600 16.6700 -1.1130
50.0800 16.6766 -1.1097
50.1000 16.6832 -1.1006
50.1200 16.6898 -1.1085
50.1400 16.6965 -1.1054
50.1600 16.7032 -1.1110
50.1800 16.7099 -1.1109
50.2000 16.7166 -1.1073
50.2200 16.7233 -1.1136
50.2400 16.7299 -1.1143
50.2600 16.7366 -1.1056
50.2800 16.7432 -1.1154
50.3000 16.7498 -1.1152
50.3200 16.7565 -1.1153
50.3400 16.7632 -1.1135
50.3600 16.7699 -1.1163
50.3800 16.7766 -1.1166
50.4000 16.7833 -1.1170
50.4200 16.7900 -1.1171
50.4400 16.7966 -1.1241
50.4600 16.8032 -1.1141
50.4800 16.8099 -1.1187
50.5000 16.8165 -1.1268
50.5200 16.8232 -1.1095
50.5400 16.8299 -1.1244
50.5600 16.8366 -1.1368
50.5800 16.8433 -1.1046
50.6000 16.8500 -1.1259
50.6200 16.8566 -1.1467
50.6400 16.8632 -1.0972
50.6600 16.8698 -1.1220
50.6800 16.8765 -1.1496
50.7000 16.8833 -1.1091
50.7200 16.8900 -1.1220
50.7400 16.8966 -1.1409
50.7600 16.9033 -1.1134
50.7800 16.9100 -1.1311
50.8000 16.9166 -1.1399
50.8200 16.9232 -1.1187
50.8400 16.9298 -1.1307
50.8600 16.9365 -1.1338
50.8800 16.9432 -1.1293
50.9000 16.9499 -1.1421
50.9200 16.9565 -1.1281
50.9400 16.9632 -1.1253
50.9600 16.9699 -1.1480
50.9800 16.9766 -1.1299
51.0000 16.9832 -1.1303
51.0200 16.9898 -1.1487
51.0400 16.9965 -1.1270
51.0600 17.0032 -1.1294
51.0800 17.0099 -1.1559
51.1000 17.0166 -1.1354
51.1200 17.0233 -1.1273
51.1400 17.0300 -1.1483
51.1600 17.0366 -1.1449
51.1800 17.0432 -1.1340
51.2000 17.0498 -1.1455
51.2200 17.0565 -1.1437
51.2400 17.0632 -1.1389
51.2600 17.0699 -1.1403
51.2800 17.0766 -1.1525
51.3000 17.0833 -1.1420
51.3200 17.0900 -1.1381
51.3400 17.0966 -1.1551
51.3600 17.1032 -1.1413
51.3800 17.1098 -1.1393
51.4000 17.1165 -1.1599
51.4200 17.1232 -1.1419
51.4400 17.1299 -1.1453
51.4600 17.1366 -1.1571
51.4800 17.1433 -1.1437
51.5000 17.1500 -1.1527
51.5200 17.1566 -1.1573
51.5400 17.1632 -1.1420
51.5600 17.1698 -1.1533
51.5800 17.1765 -1.1634
51.6000 17.1832 -1.1349
51.6200 17.1899 -1.1592
51.6400 17.1966 -1.1678
51.6600 17.2033 -1.1391
51.6800 17.2100 -1.1596
51.7000 17.2166 -1.1657
51.7200 17.2232 -1.1421
51.7400 17.2298 -1.1632
51.7600 17.2365 -1.1609
51.7800 17.2432 -1.1482
51.8000 17.2499 -1.1669
51.8200 17.2566 -1.1630
51.8400 17.2633 -1.1483
51.8600 17.2700 -1.1707
51.8800 17.2766 -1.1635
51.9000 17.2833 -1.1522
51.9200 17.2899 -1.1716
51.9400 17.2965 -1.1634
51.9600 17.3032 -1.1615
51.9800 17.3099 -1.1695
52.0000 17.3166 -1.1649
52.0200 17.3233 -1.1640
52.0400 17.3300 -1.1737
52.0600 17.3366 -1.1633
52.0800 17.3432 -1.1678
52.1000 17.3498 -1.1762
52.1200 17.3565 -1.1701
52.1400 17.3632 -1.1686
52.1600 17.3699 -1.1742
52.1800 17.3766 -1.1717
52.2000 17.3833 -1.1772
52.2200 17.3900 -1.1726
52.2400 17.3966 -1.1733
52.2600 17.4032 -1.1777
52.2800 17.4098 -1.1756
52.3000 17.4165 -1.1734
52.3200 17.4232 -1.1788
52.3400 17.4299 -1.1778
52.3600 17.4365 -1.1768
52.3800 17.4432 -1.1824
52.4000 17.4499 -1.1754
52.4200 17.4566 -1.1842
52.4400 17.4632 -1.1843
52.4600 17.4699 -1.1752
52.4800 17.4765 -1.1882
52.5000 17.4832 -1.1908
52.5200 17.4899 -1.1697
52.5400 17.4966 -1.1912
52.5600 17.5033 -1.1880
52.5800 17.5100 -1.1777
52.6000 17.5167 -1.1962
52.6200 17.5233 -1.1854
52.6400 17.5299 -1.1756
52.6600 17.5365 -1.1940
52.6800 17.5432 -1.1907
52.7000 17.5499 -1.1822
52.7200 17.5566 -1.1919
52.7400 17.5633 -1.1896
52.7600 17.5700 -1.1844
52.7800 17.5766 -1.1968
52.8000 17.5832 -1.1981
52.8200 17.5898 -1.1826
52.8400 17.5965 -1.1922
52.8600 17.6032 -1.1947
52.8800 17.6099 -1.1904
52.9000 17.6166 -1.1973
52.9200 17.6233 -1.1995
52.9400 17.6299 -1.1885
52.9600 17.6366 -1.1979
52.9800 17.6432 -1.1995
53.0000 17.6499 -1.1943
53.0200 17.6565 -1.2000
53.0400 17.6632 -1.2056
53.0600 17.6699 -1.1930
53.0800 17.6766 -1.2000
53.1000 17.6832 -1.2054
53.1200 17.6899 -1.1970
53.1400 17.6966 -1.1999
53.1600 17.7032 -1.2106
53.1800 17.7098 -1.1998
53.2000 17.7165 -1.2016
53.2200 17.7232 -1.2108
53.2400 17.7299 -1.2008
53.2600 17.7366 -1.2050
53.2800 17.7433 -1.2081
53.3000 17.7500 -1.2112
53.3200 17.7567 -1.2071
53.3400 17.7633 -1.2100
53.3600 17.7699 -1.2080
53.3800 17.7765 -1.2076
53.4000 17.7832 -1.2111
53.4200 17.7900 -1.2165
53.4400 17.7967 -1.2111
53.4600 17.8033 -1.2157
53.4800 17.8100 -1.2137
53.5000 17.8166 -1.2130
53.5200 17.8232 -1.2230
53.5400 17.8298 -1.2132
53.5600 17.8365 -1.2048
53.5800 17.8432 -1.2240
53.6000 17.8499 -1.2201
53.6200 17.8566 -1.2106
53.6400 17.8632 -1.2226
53.6600 17.8699 -1.2222
53.6800 17.8766 -1.2142
53.7000 17.8832 -1.2229
53.7200 17.8898 -1.2213
53.7400 17.8965 -1.2234
53.7600 17.9032 -1.2278
53.7800 17.9099 -1.2181
53.8000 17.9166 -1.2254
53.8200 17.9233 -1.2342
53.8400 17.9299 -1.2222
53.8600 17.9366 -1.2217
53.8800 17.9432 -1.2360
53.9000 17.9499 -1.2246
53.9200 17.9565 -1.2310
53.9400 17.9632 -1.2334
53.9600 17.9699 -1.2284
53.9800 17.9766 -1.2314
54.0000 17.9833 -1.2358
54.0200 17.9900 -1.2327
54.0400 17.9966 -1.2307
54.0600 18.0033 -1.2333
54.0800 18.0099 -1.2373
54.1000 18.0165 -1.2319
54.1200 18.0232 -1.2349
54.1400 18.0299 -1.2422
54.1600 18.0366 -1.2350
54.1800 18.0433 -1.2357
54.2000 18.0500 -1.2436
54.2200 18.0567 -1.2395
54.2400 18.0633 -1.2401
54.2600 18.0699 -1.2469
54.2800 18.0765 -1.2314
54.3000 18.0832 -1.2462
54.3200 18.0899 -1.2518
54.3400 18.0966 -1.2359
54.3600 18.1033 -1.2424
54.3800 18.1100 -1.2571
54.4000 18.1166 -1.2395
54.4200 18.1232 -1.2451
54.4400 18.1298 -1.2568
54.4600 18.1365 -1.2414
54.4800 18.1432 -1.2500
54.5000 18.1499 -1.2593
54.5200 18.1566 -1.2428
54.5400 18.1632 -1.2535
54.5600 18.1699 -1.2546
54.5800 18.1766 -1.2485
54.6000 18.1832 -1.2598
54.6200 18.1898 -1.2529
54.6400 18.1965 -1.2484
54.6600 18.2032 -1.2631
54.6800 18.2099 -1.2524
54.7000 18.2166 -1.2510
54.7200 18.2233 -1.2709
54.7400 18.2300 -1.2545
54.7600 18.2367 -1.2483
54.7800 18.2433 -1.2728
54.8000 18.2499 -1.2588
54.8200 18.2565 -1.2492
54.8400 18.2632 -1.2782
54.8600 18.2699 -1.2609
54.8800 18.2767 -1.2497
54.9000 18.2833 -1.2800
54.9200 18.2900 -1.2649
54.9400 18.2966 -1.2530
54.9600 18.3033 -1.2863
54.9800 18.3099 -1.2618
55.0000 18.3165 -1.2543
55.0200 18.3232 -1.2859
55.0400 18.3299 -1.2648
55.0600 18.3366 -1.2617
55.0800 18.3433 -1.2858
55.1000 18.3499 -1.2666
55.1200 18.3566 -1.2641
55.1400 18.3633 -1.2937
55.1600 18.3698 -1.2636
55.1800 18.3764 -1.2713
55.2000 18.3831 -1.2873
55.2200 18.3898 -1.2682
55.2400 18.3965 -1.2767
55.2600 18.4032 -1.2912
55.2800 18.4099 -1.2686
55.3000 18.4166 -1.2756
55.3200 18.4232 -1.2913
55.3400 18.4298 -1.2775
55.3600 18.4365 -1.2814
55.3800 18.4432 -1.2878
55.4000 18.4499 -1.2774
55.4200 18.4566 -1.2904
55.4400 18.4633 -1.2896
55.4600 18.4700 -1.2782
55.4800 18.4767 -1.2943
55.5000 18.4833 -1.2855
55.5200 18.4899 -1.2890
55.5400 18.4966 -1.2919
55.5600 18.5032 -1.2887
55.5800 18.5099 -1.2904
55.6000 18.5166 -1.2912
55.6200 18.5233 -1.2856
55.6400 18.5300 -1.2955
55.6600 18.5367 -1.2948
55.6800 18.5433 -1.2944
55.7000 18.5499 -1.2976
55.7200 18.5565 -1.2931
55.7400 18.5632 -1.2928
55.7600 18.5699 -1.3024
55.7800 18.5766 -1.2944
55.8000 18.5833 -1.2992
55.8200 18.5900 -1.3044
55.8400 18.5966 -1.2931
55.8600 18.6033 -1.3007
55.8800 18.6099 -1.3028
55.9000 18.6165 -1.2987
55.9200 18.6232 -1.3042
55.9400 18.6299 -1.3033
55.9600 18.6366 -1.3054
55.9800 18.6432 -1.3103
56.0000 18.6499 -1.3043
56.0200 18.6566 -1.3065
56.0400 18.6633 -1.3137
56.0600 18.6699 -1.3027
56.0800 18.6765 -1.3075
56.1000 18.6832 -1.3167
56.1200 18.6899 -1.3016
56.1400 18.6966 -1.3165
56.1600 18.7033 -1.3179
56.1800 18.7100 -1.3043
56.2000 18.7167 -1.3186
56.2200 18.7233 -1.3187
56.2400 18.7299 -1.3073
56.2600 18.7365 -1.3188
56.2800 18.7432 -1.3160
56.3000 18.7499 -1.3119
56.3200 18.7566 -1.3250
56.3400 18.7633 -1.3129
56.3600 18.7700 -1.3174
56.3800 18.7766 -1.3285
56.4000 18.7833 -1.3136
56.4200 18.7899 -1.3194
56.4400 18.7965 -1.3324
56.4600 18.8032 -1.3133
56.4800 18.8099 -1.3271
56.5000 18.8166 -1.3252
56.5200 18.8232 -1.3186
56.5400 18.8299 -1.3299
56.5600 18.8366 -1.3312
56.5800 18.8433 -1.3163
56.6000 18.8499 -1.3342
56.6200 18.8565 -1.3255
56.6400 18.8631 -1.3214
56.6600 18.8698 -1.3362
56.6800 18.8765 -1.3276
56.7000 18.8832 -1.3263
56.7200 18.8899 -1.3338
56.7400 18.8966 -1.3286
56.7600 18.9033 -1.3341
56.7800 18.9099 -1.3362
56.8000 18.9165 -1.3308
56.8200 18.9232 -1.3360
56.8400 18.9299 -1.3346
56.8600 18.9366 -1.3321
56.8800 18.9433 -1.3328
56.9000 18.9500 -1.3429
56.9200 18.9567 -1.3368
56.9400 18.9633 -1.3410
56.9600 18.9699 -1.3381
56.9800 18.9765 -1.3452
57.0000 18.9832 -1.3425
57.0200 18.9899 -1.3403
57.0400 18.9966 -1.3467
57.0600 19.0033 -1.3506
57.0800 19.0100 -1.3398
57.1000 19.0166 -1.3454
57.1200 19.0233 -1.3502
57.1400 19.0299 -1.3464
57.1600 19.0365 -1.3483
57.1800 19.0431 -1.3533
57.2000 19.0498 -1.3489
57.2200 19.0566 -1.3534
57.2400 19.0632 -1.3544
57.2600 19.0699 -1.3503
57.2800 19.0766 -1.3604
57.3000 19.0833 -1.3542
57.3200 19.0899 -1.3562
57.3400 19.0965 -1.3590
57.3600 19.1031 -1.3573
57.3800 19.1098 -1.3578
57.4000 19.1166 -1.3635
57.4200 19.1232 -1.3609
57.4400 19.1299 -1.3621
57.4600 19.1366 -1.3676
57.4800 19.1433 -1.3658
57.5000 19.1499 -1.3637
57.5200 19.1565 -1.3712
57.5400 19.1632 -1.3677
57.5600 19.1699 -1.3727
57.5800 19.1766 -1.3724
57.6000 19.1833 -1.3661
57.6200 19.1900 -1.3726
57.6400 19.1966 -1.3761
57.6600 19.2033 -1.3767
57.6800 19.2099 -1.3781
57.7000 19.2165 -1.3773
57.7200 19.2232 -1.3730
57.7400 19.2299 -1.3812
57.7600 19.2366 -1.3857
57.7800 19.2433 -1.3826
57.8000 19.2500 -1.3812
57.8200 19.2567 -1.3834
57.8400 19.2634 -1.3825
57.8600 19.2700 -1.3886
57.8800 19.2765 -1.3890
57.9000 19.2831 -1.3824
57.9200 19.2898 -1.3845
57.9400 19.2965 -1.3980
57.9600 19.3032 -1.3880
57.9800 19.3099 -1.3875
58.0000 19.3166 -1.3944
58.0200 19.3233 -1.3942
58.0400 19.3299 -1.3937
58.0600 19.3365 -1.3953
58.0800 19.3431 -1.3978
58.1000 19.3498 -1.3907
58.1200 19.3566 -1.4055
58.1400 19.3632 -1.4009
58.1600 19.3699 -1.3926
58.1800 19.3766 -1.4042
58.2000 19.3833 -1.3986
58.2200 19.3899 -1.3980
58.2400 19.3965 -1.4099
58.2600 19.4032 -1.4026
58.2800 19.4099 -1.4028
58.3000 19.4166 -1.4048
58.3200 19.4233 -1.4026
58.3400 19.4300 -1.4070
58.3600 19.4367 -1.4175
58.3800 19.4433 -1.4014
58.4000 19.4499 -1.4048
58.4200 19.4565 -1.4154
58.4400 19.4632 -1.4040
58.4600 19.4699 -1.4119
58.4800 19.4766 -1.4195
58.5000 19.4833 -1.4039
58.5200 19.4900 -1.4118
58.5400 19.4966 -1.4225
58.5600 19.5033 -1.4186
58.5800 19.5099 -1.4170
58.6000 19.5165 -1.4185
58.6200 19.5232 -1.4152
58.6400 19.5299 -1.4177
58.6600 19.5366 -1.4278
58.6800 19.5433 -1.4132
58.7000 19.5499 -1.4193
58.7200 19.5566 -1.4265
58.7400 19.5633 -1.4221
58.7600 19.5699 -1.4236
58.7800 19.5765 -1.4286
58.8000 19.5831 -1.4243
58.8200 19.5898 -1.4297
58.8400 19.5965 -1.4324
58.8600 19.6032 -1.4264
58.8800 19.6099 -1.4246
58.9000 19.6166 -1.4375
58.9200 19.6233 -1.4325
58.9400 19.6299 -1.4306
58.9600 19.6365 -1.4390
58.9800 19.6431 -1.4357
59.0000 19.6499 -1.4345
59.0200 19.6566 -1.4439
59.0400 19.6633 -1.4399
59.0600 19.6700 -1.4401
59.0800 19.6766 -1.4449
59.1000 19.6833 -1.4411
59.1200 19.6900 -1.4506
59.1400 19.6966 -1.4478
59.1600 19.7032 -1.4463
59.1800 19.7099 -1.4471
59.2000 19.7166 -1.4538
59.2200 19.7233 -1.4517
59.2400 19.7300 -1.4504
59.2600 19.7366 -1.4570
59.2800 19.7433 -1.4598
59.3000 19.7499 -1.4658
59.3010 19.7502 -1.4674
