Raw Data
Time Displacement Force
(s) (mm) (N)
0.0000 0.0000 0.6498
0.0200 0.0001 0.6718
0.0400 0.0023 0.7568
0.0600 0.0102 0.7889
0.0800 0.0221 0.7758
0.1000 0.0346 0.8468
0.1200 0.0473 0.8766
0.1400 0.0607 0.8461
0.1600 0.0748 0.8577
0.1800 0.0889 0.8464
0.2000 0.1028 0.8285
0.2200 0.1164 0.8478
0.2400 0.1298 0.8473
0.2600 0.1430 0.8389
0.2800 0.1564 0.8529
0.3000 0.1698 0.8428
0.3200 0.1832 0.8388
0.3400 0.1965 0.8483
0.3600 0.2098 0.8374
0.3800 0.2232 0.8380
0.4000 0.2365 0.8510
0.4200 0.2498 0.8364
0.4400 0.2631 0.8381
0.4600 0.2764 0.8512
0.4800 0.2898 0.8403
0.5000 0.3032 0.8333
0.5200 0.3165 0.8470
0.5400 0.3298 0.8363
0.5600 0.3431 0.8318
0.5800 0.3565 0.8406
0.6000 0.3698 0.8277
0.6200 0.3832 0.8256
0.6400 0.3965 0.8431
0.6600 0.4099 0.8149
0.6800 0.4232 0.8265
0.7000 0.4365 0.8375
0.7200 0.4499 0.8150
0.7400 0.4632 0.8241
0.7600 0.4766 0.8302
0.7800 0.4899 0.8093
0.8000 0.5032 0.8207
0.8200 0.5165 0.8244
0.8400 0.5298 0.8017
0.8600 0.5432 0.8168
0.8800 0.5565 0.8170
0.9000 0.5697 0.7988
0.9200 0.5831 0.8153
0.9400 0.5964 0.8084
0.9600 0.6098 0.7944
0.9800 0.6231 0.8111
1.0000 0.6365 0.8015
1.0200 0.6498 0.7923
1.0400 0.6632 0.7995
1.0600 0.6766 0.7990
1.0800 0.6899 0.7913
1.1000 0.7032 0.7966
1.1200 0.7165 0.7879
1.1400 0.7299 0.7899
1.1600 0.7432 0.7888
1.1800 0.7565 0.7861
1.2000 0.7698 0.7871
1.2200 0.7832 0.7786
1.2400 0.7965 0.7773
1.2600 0.8098 0.7822
1.2800 0.8231 0.7689
1.3000 0.8365 0.7818
1.3200 0.8498 0.7708
1.3400 0.8631 0.7641
1.3600 0.8765 0.7779
1.3800 0.8898 0.7685
1.4000 0.9032 0.7622
1.4200 0.9165 0.7750
1.4400 0.9298 0.7629
1.4600 0.9432 0.7591
1.4800 0.9566 0.7721
1.5000 0.9699 0.7554
1.5200 0.9832 0.7568
1.5400 0.9965 0.7710
1.5600 1.0098 0.7457
1.5800 1.0232 0.7550
1.6000 1.0365 0.7667
1.6200 1.0498 0.7434
1.6400 1.0631 0.7576
1.6600 1.0765 0.7581
1.6800 1.0898 0.7409
1.7000 1.1031 0.7533
1.7200 1.1165 0.7555
1.7400 1.1299 0.7341
1.7600 1.1433 0.7513
1.7800 1.1566 0.7408
1.8000 1.1699 0.7349
1.8200 1.1832 0.7554
1.8400 1.1966 0.7315
1.8600 1.2099 0.7289
1.8800 1.2232 0.7548
1.9000 1.2365 0.7233
1.9200 1.2498 0.7312
1.9400 1.2632 0.7481
1.9600 1.2765 0.7252
1.9800 1.2898 0.7298
2.0000 1.3031 0.7409
2.0200 1.3165 0.7179
2.0400 1.3298 0.7340
2.0600 1.3431 0.7368
2.0800 1.3565 0.7079
2.1000 1.3699 0.7327
2.1200 1.3833 0.7301
2.1400 1.3966 0.7035
2.1600 1.4099 0.7266
2.1800 1.4232 0.7277
2.2000 1.4366 0.7053
2.2200 1.4499 0.7228
2.2400 1.4632 0.7146
2.2600 1.4765 0.7082
2.2800 1.4898 0.7257
2.3000 1.5031 0.7046
2.3200 1.5164 0.6964
2.3400 1.5298 0.7272
2.3600 1.5431 0.7068
2.3800 1.5565 0.6987
2.4000 1.5699 0.7095
2.4200 1.5832 0.7025
2.4400 1.5965 0.6971
2.4600 1.6098 0.7108
2.4800 1.6232 0.6974
2.5000 1.6365 0.7028
2.5200 1.6498 0.7040
2.5400 1.6632 0.6879
2.5600 1.6765 0.6980
2.5800 1.6899 0.7047
2.6000 1.7032 0.6863
2.6200 1.7165 0.6933
2.6400 1.7299 0.6990
2.6600 1.7432 0.6836
2.6800 1.7565 0.6925
2.7000 1.7698 0.6929
2.7200 1.7831 0.6832
2.7400 1.7965 0.6891
2.7600 1.8098 0.6892
2.7800 1.8231 0.6761
2.8000 1.8365 0.6845
2.8200 1.8498 0.6875
2.8400 1.8632 0.6735
2.8600 1.8765 0.6785
2.8800 1.8899 0.6859
2.9000 1.9032 0.6686
2.9200 1.9165 0.6767
2.9400 1.9299 0.6776
2.9600 1.9432 0.6641
2.9800 1.9565 0.6705
3.0000 1.9699 0.6730
3.0200 1.9832 0.6558
3.0400 1.9965 0.6653
3.0600 2.0098 0.6686
3.0800 2.0231 0.6573
3.1000 2.0364 0.6630
3.1200 2.0498 0.6639
3.1400 2.0631 0.6477
3.1600 2.0765 0.6625
3.1800 2.0898 0.6597
3.2000 2.1032 0.6461
3.2200 2.1166 0.6579
3.2400 2.1299 0.6545
3.2600 2.1432 0.6411
3.2800 2.1566 0.6561
3.3000 2.1699 0.6531
3.3200 2.1832 0.6386
3.3400 2.1965 0.6512
3.3600 2.2098 0.6516
3.3800 2.2232 0.6396
3.4000 2.2365 0.6498
3.4200 2.2498 0.6456
3.4400 2.2631 0.6320
3.4600 2.2765 0.6435
3.4800 2.2898 0.6384
3.5000 2.3032 0.6342
3.5200 2.3165 0.6376
3.5400 2.3298 0.6392
3.5600 2.3432 0.6278
3.5800 2.3566 0.6350
3.6000 2.3699 0.6322
3.6200 2.3832 0.6266
3.6400 2.3966 0.6284
3.6600 2.4099 0.6285
3.6800 2.4232 0.6240
3.7000 2.4365 0.6247
3.7200 2.4498 0.6222
3.7400 2.4632 0.6209
3.7600 2.4765 0.6209
3.7800 2.4898 0.6176
3.8000 2.5031 0.6195
3.8200 2.5164 0.6201
3.8400 2.5298 0.6109
3.8600 2.5431 0.6126
3.8800 2.5565 0.6185
3.9000 2.5698 0.6142
3.9200 2.5832 0.6072
3.9400 2.5966 0.6110
3.9600 2.6099 0.6099
3.9800 2.6232 0.6055
4.0000 2.6365 0.6145
4.0200 2.6499 0.6007
4.0400 2.6632 0.6016
4.0600 2.6765 0.6096
4.0800 2.6898 0.6019
4.1000 2.7032 0.5960
4.1200 2.7165 0.6113
4.1400 2.7298 0.5984
4.1600 2.7431 0.5922
4.1800 2.7565 0.6006
4.2000 2.7698 0.5924
4.2200 2.7831 0.5906
4.2400 2.7964 0.6021
4.2600 2.8098 0.5882
4.2800 2.8232 0.5910
4.3000 2.8366 0.5962
4.3200 2.8499 0.5836
4.3400 2.8632 0.5909
4.3600 2.8766 0.5930
4.3800 2.8899 0.5788
4.4000 2.9032 0.5903
4.4200 2.9165 0.5861
4.4400 2.9298 0.5790
4.4600 2.9431 0.5845
4.4800 2.9565 0.5806
4.5000 2.9698 0.5727
4.5200 2.9831 0.5812
4.5400 2.9965 0.5802
4.5600 3.0098 0.5727
4.5800 3.0232 0.5758
4.6000 3.0365 0.5706
4.6200 3.0498 0.5690
4.6400 3.0632 0.5696
4.6600 3.0765 0.5682
4.6800 3.0898 0.5633
4.7000 3.1032 0.5707
4.7200 3.1165 0.5659
4.7400 3.1299 0.5589
4.7600 3.1432 0.5654
4.7800 3.1565 0.5653
4.8000 3.1699 0.5534
4.8200 3.1832 0.5656
4.8400 3.1965 0.5629
4.8600 3.2099 0.5518
4.8800 3.2231 0.5588
4.9000 3.2365 0.5598
4.9200 3.2498 0.5482
4.9400 3.2631 0.5575
4.9600 3.2765 0.5541
4.9800 3.2898 0.5475
5.0000 3.3032 0.5554
5.0200 3.3166 0.5474
5.0400 3.3299 0.5490
5.0600 3.3432 0.5540
5.0800 3.3566 0.5462
5.1000 3.3699 0.5414
5.1200 3.3832 0.5442
5.1400 3.3965 0.5458
5.1600 3.4098 0.5448
5.1800 3.4232 0.5344
5.2000 3.4365 0.5426
5.2200 3.4498 0.5416
5.2400 3.4631 0.5373
5.2600 3.4764 0.5360
5.2800 3.4898 0.5452
5.3000 3.5031 0.5274
5.3200 3.5165 0.5318
5.3400 3.5298 0.5414
5.3600 3.5432 0.5276
5.3800 3.5566 0.5260
5.4000 3.5699 0.5309
5.4200 3.5832 0.5235
5.4400 3.5966 0.5290
5.4600 3.6099 0.5244
5.4800 3.6232 0.5185
5.5000 3.6365 0.5250
5.5200 3.6498 0.5239
5.5400 3.6632 0.5163
5.5600 3.6765 0.5228
5.5800 3.6898 0.5228
5.6000 3.7031 0.5101
5.6200 3.7164 0.5164
5.6400 3.7298 0.5143
5.6600 3.7432 0.5079
5.6800 3.7565 0.5117
5.7000 3.7698 0.5113
5.7200 3.7832 0.5097
5.7400 3.7966 0.5056
5.7600 3.8099 0.5092
5.7800 3.8232 0.5053
5.8000 3.8365 0.5025
5.8200 3.8499 0.5076
5.8400 3.8632 0.5019
5.8600 3.8765 0.4979
5.8800 3.8899 0.5033
5.9000 3.9032 0.5056
5.9200 3.9165 0.4939
5.9400 3.9298 0.5007
5.9600 3.9431 0.4969
5.9800 3.9564 0.4927
6.0000 3.9698 0.4934
6.0200 3.9832 0.4930
6.0400 3.9965 0.4897
6.0600 4.0098 0.5003
6.0800 4.0232 0.4854
6.1000 4.0366 0.4801
6.1200 4.0499 0.4952
6.1400 4.0632 0.4855
6.1600 4.0766 0.4823
6.1800 4.0899 0.4854
6.2000 4.1032 0.4845
6.2200 4.1165 0.4857
6.2400 4.1298 0.4814
6.2600 4.1431 0.4811
6.2800 4.1565 0.4810
6.3000 4.1698 0.4757
6.3200 4.1831 0.4768
6.3400 4.1965 0.4818
6.3600 4.2098 0.4738
6.3800 4.2231 0.4760
6.4000 4.2365 0.4824
6.4200 4.2498 0.4692
6.4400 4.2632 0.4767
6.4600 4.2766 0.4801
6.4800 4.2899 0.4682
6.5000 4.3032 0.4716
6.5200 4.3165 0.4797
6.5400 4.3299 0.4640
6.5600 4.3432 0.4724
6.5800 4.3566 0.4767
6.6000 4.3698 0.4681
6.6200 4.3832 0.4682
6.6400 4.3965 0.4735
6.6600 4.4098 0.4620
6.6800 4.4231 0.4641
6.7000 4.4364 0.4717
6.7200 4.4498 0.4595
6.7400 4.4631 0.4654
6.7600 4.4765 0.4655
6.7800 4.4898 0.4583
6.8000 4.5032 0.4610
6.8200 4.5166 0.4609
6.8400 4.5299 0.4522
6.8600 4.5432 0.4609
6.8800 4.5565 0.4610
6.9000 4.5699 0.4468
6.9200 4.5832 0.4598
6.9400 4.5965 0.4554
6.9600 4.6098 0.4463
6.9800 4.6232 0.4588
7.0000 4.6365 0.4539
7.0200 4.6498 0.4428
7.0400 4.6631 0.4506
7.0600 4.6764 0.4525
7.0800 4.6898 0.4366
7.1000 4.7031 0.4513
7.1200 4.7164 0.4434
7.1400 4.7298 0.4362
7.1600 4.7432 0.4484
7.1800 4.7566 0.4330
7.2000 4.7699 0.4334
7.2200 4.7833 0.4465
7.2400 4.7966 0.4329
7.2600 4.8099 0.4316
7.2800 4.8233 0.4413
7.3000 4.8365 0.4291
7.3200 4.8498 0.4317
7.3400 4.8631 0.4417
7.3600 4.8765 0.4243
7.3800 4.8898 0.4307
7.4000 4.9031 0.4337
7.4200 4.9165 0.4166
7.4400 4.9298 0.4306
7.4600 4.9432 0.4298
7.4800 4.9565 0.4184
7.5000 4.9699 0.4268
7.5200 4.9832 0.4302
7.5400 4.9966 0.4105
7.5600 5.0099 0.4257
7.5800 5.0232 0.4205
7.6000 5.0365 0.4125
7.6200 5.0499 0.4229
7.6400 5.0632 0.4204
7.6600 5.0765 0.4095
7.6800 5.0898 0.4200
7.7000 5.1031 0.4165
7.7200 5.1165 0.4090
7.7400 5.1298 0.4149
7.7600 5.1431 0.4115
7.7800 5.1564 0.4097
7.8000 5.1698 0.4161
7.8200 5.1831 0.4087
7.8400 5.1965 0.4076
7.8600 5.2098 0.4128
7.8800 5.2232 0.4035
7.9000 5.2365 0.4026
7.9200 5.2499 0.4109
7.9400 5.2632 0.4012
7.9600 5.2765 0.4009
7.9800 5.2899 0.4085
8.0000 5.3032 0.4004
8.0200 5.3166 0.3971
8.0400 5.3298 0.4048
8.0600 5.3432 0.3994
8.0800 5.3565 0.3959
8.1000 5.3698 0.4028
8.1200 5.3831 0.3898
8.1400 5.3964 0.3957
8.1600 5.4098 0.3976
8.1800 5.4231 0.3881
8.2000 5.4365 0.3895
8.2200 5.4498 0.3944
8.2400 5.4632 0.3838
8.2600 5.4765 0.3813
8.2800 5.4899 0.3909
8.3000 5.5032 0.3791
8.3200 5.5165 0.3783
8.3400 5.5299 0.3894
8.3600 5.5432 0.3731
8.3800 5.5565 0.3760
8.4000 5.5698 0.3758
8.4200 5.5832 0.3766
8.4400 5.5965 0.3725
8.4600 5.6098 0.3752
8.4800 5.6231 0.3706
8.5000 5.6365 0.3640
8.5200 5.6498 0.3735
8.5400 5.6632 0.3647
8.5600 5.6765 0.3627
8.5800 5.6898 0.3733
8.6000 5.7032 0.3602
8.6200 5.7165 0.3593
8.6400 5.7299 0.3692
8.6600 5.7432 0.3589
8.6800 5.7565 0.3598
8.7000 5.7699 0.3671
8.7200 5.7833 0.3549
8.7400 5.7966 0.3567
8.7600 5.8099 0.3710
8.7800 5.8232 0.3515
8.8000 5.8365 0.3606
8.8200 5.8498 0.3634
8.8400 5.8631 0.3522
8.8600 5.8764 0.3586
8.8800 5.8898 0.3599
8.9000 5.9031 0.3519
8.9200 5.9165 0.3575
8.9400 5.9298 0.3560
8.9600 5.9432 0.3538
8.9800 5.9566 0.3581
9.0000 5.9699 0.3502
9.0200 5.9832 0.3509
9.0400 5.9965 0.3606
9.0600 6.0099 0.3494
9.0800 6.0232 0.3494
9.1000 6.0365 0.3589
9.1200 6.0498 0.3462
9.1400 6.0631 0.3504
9.1600 6.0765 0.3559
9.1800 6.0898 0.3469
9.2000 6.1031 0.3452
9.2200 6.1164 0.3523
9.2400 6.1298 0.3416
9.2600 6.1431 0.3433
9.2800 6.1565 0.3485
9.3000 6.1698 0.3379
9.3200 6.1832 0.3405
9.3400 6.1965 0.3468
9.3600 6.2099 0.3289
9.3800 6.2232 0.3409
9.4000 6.2366 0.3425
9.4200 6.2499 0.3340
9.4400 6.2632 0.3362
9.4600 6.2765 0.3383
9.4800 6.2898 0.3286
9.5000 6.3031 0.3350
9.5200 6.3165 0.3317
9.5400 6.3298 0.3248
9.5600 6.3431 0.3353
9.5800 6.3564 0.3271
9.6000 6.3698 0.3254
9.6200 6.3832 0.3291
9.6400 6.3965 0.3249
9.6600 6.4099 0.3204
9.6800 6.4232 0.3236
9.7000 6.4366 0.3243
9.7200 6.4499 0.3190
9.7400 6.4632 0.3211
9.7600 6.4765 0.3203
9.7800 6.4898 0.3134
9.8000 6.5032 0.3185
9.8200 6.5166 0.3173
9.8400 6.5299 0.3157
9.8600 6.5432 0.3143
9.8800 6.5565 0.3133
9.9000 6.5699 0.3070
9.9200 6.5832 0.3102
9.9400 6.5965 0.3167
9.9600 6.6098 0.3077
9.9800 6.6231 0.3052
10.0000 6.6365 0.3150
10.0200 6.6498 0.2981
10.0400 6.6631 0.3085
10.0600 6.6765 0.3123
10.0800 6.6899 0.2934
10.1000 6.7032 0.3038
10.1200 6.7165 0.3108
10.1400 6.7299 0.2907
10.1600 6.7432 0.3016
10.1800 6.7566 0.3076
10.2000 6.7699 0.2934
10.2200 6.7832 0.3026
10.2400 6.7965 0.3016
10.2600 6.8099 0.2868
10.2800 6.8232 0.3081
10.3000 6.8365 0.2951
10.3200 6.8498 0.2889
10.3400 6.8631 0.2964
10.3600 6.8765 0.2866
10.3800 6.8898 0.2940
10.4000 6.9032 0.2918
10.4200 6.9165 0.2882
10.4400 6.9299 0.2859
10.4600 6.9432 0.2868
10.4800 6.9565 0.2816
10.5000 6.9699 0.2904
10.5200 6.9832 0.2820
10.5400 6.9966 0.2793
10.5600 7.0098 0.2853
10.5800 7.0231 0.2832
10.6000 7.0365 0.2830
10.6200 7.0498 0.2850
10.6400 7.0632 0.2704
10.6600 7.0765 0.2800
10.6800 7.0898 0.2818
10.7000 7.1032 0.2728
10.7200 7.1165 0.2716
10.7400 7.1298 0.2792
10.7600 7.1432 0.2656
10.7800 7.1565 0.2687
10.8000 7.1699 0.2817
10.8200 7.1832 0.2629
10.8400 7.1965 0.2664
10.8600 7.2099 0.2781
10.8800 7.2232 0.2599
10.9000 7.2366 0.2668
10.9200 7.2499 0.2763
10.9400 7.2632 0.2546
10.9600 7.2765 0.2678
10.9800 7.2899 0.2697
11.0000 7.3032 0.2566
11.0200 7.3165 0.2648
11.0400 7.3298 0.2642
11.0600 7.3431 0.2499
11.0800 7.3565 0.2659
11.1000 7.3698 0.2615
11.1200 7.3832 0.2522
11.1400 7.3965 0.2597
11.1600 7.4099 0.2644
11.1800 7.4233 0.2470
11.2000 7.4366 0.2585
11.2200 7.4499 0.2566
11.2400 7.4632 0.2522
11.2600 7.4766 0.2555
11.2800 7.4899 0.2586
11.3000 7.5032 0.2475
11.3200 7.5165 0.2518
11.3400 7.5299 0.2549
11.3600 7.5432 0.2467
11.3800 7.5565 0.2494
11.4000 7.5698 0.2513
11.4200 7.5831 0.2439
11.4400 7.5965 0.2445
11.4600 7.6098 0.2500
11.4800 7.6231 0.2438
11.5000 7.6365 0.2410
11.5200 7.6499 0.2438
11.5400 7.6632 0.2357
11.5600 7.6765 0.2385
11.5800 7.6899 0.2484
11.6000 7.7032 0.2303
11.6200 7.7166 0.2364
11.6400 7.7299 0.2438
11.6600 7.7432 0.2288
11.6800 7.7565 0.2313
11.7000 7.7698 0.2442
11.7200 7.7832 0.2268
11.7400 7.7965 0.2285
11.7600 7.8098 0.2370
11.7800 7.8231 0.2312
11.8000 7.8365 0.2236
11.8200 7.8498 0.2365
11.8400 7.8631 0.2283
11.8600 7.8765 0.2233
11.8800 7.8898 0.2260
11.9000 7.9032 0.2232
11.9200 7.9165 0.2217
11.9400 7.9298 0.2320
11.9600 7.9432 0.2215
11.9800 7.9565 0.2192
12.0000 7.9699 0.2287
12.0200 7.9832 0.2225
12.0400 7.9965 0.2126
12.0600 8.0099 0.2311
12.0800 8.0232 0.2189
12.1000 8.0365 0.2111
12.1200 8.0498 0.2289
12.1400 8.0631 0.2177
12.1600 8.0764 0.2121
12.1800 8.0898 0.2301
12.2000 8.1031 0.2130
12.2200 8.1165 0.2089
12.2400 8.1299 0.2263
12.2600 8.1433 0.2091
12.2800 8.1566 0.2106
12.3000 8.1699 0.2262
12.3200 8.1832 0.2031
12.3400 8.1966 0.2063
12.3600 8.2099 0.2235
12.3800 8.2232 0.2038
12.4000 8.2365 0.2134
12.4200 8.2498 0.2152
12.4400 8.2631 0.2071
12.4600 8.2764 0.2094
12.4800 8.2897 0.2100
12.5000 8.3031 0.2057
12.5200 8.3165 0.2093
12.5400 8.3298 0.2016
12.5600 8.3431 0.2038
12.5800 8.3565 0.2104
12.6000 8.3699 0.1992
12.6200 8.3833 0.2034
12.6400 8.3966 0.1992
12.6600 8.4099 0.1986
12.6800 8.4232 0.2007
12.7000 8.4366 0.1915
12.7200 8.4499 0.1976
12.7400 8.4632 0.2082
12.7600 8.4765 0.1806
12.7800 8.4898 0.1919
12.8000 8.5031 0.2076
12.8200 8.5164 0.1835
12.8400 8.5298 0.1905
12.8600 8.5431 0.2053
12.8800 8.5565 0.1739
12.9000 8.5699 0.1875
12.9200 8.5832 0.1981
12.9400 8.5965 0.1716
12.9600 8.6099 0.1834
12.9800 8.6232 0.1931
13.0000 8.6365 0.1708
13.0200 8.6499 0.1822
13.0400 8.6632 0.1864
13.0600 8.6766 0.1718
13.0800 8.6899 0.1806
13.1000 8.7032 0.1873
13.1200 8.7165 0.1659
13.1400 8.7299 0.1844
13.1600 8.7432 0.1805
13.1800 8.7565 0.1663
13.2000 8.7698 0.1839
13.2200 8.7831 0.1748
13.2400 8.7965 0.1615
13.2600 8.8098 0.1766
13.2800 8.8232 0.1812
13.3000 8.8365 0.1573
13.3200 8.8499 0.1747
13.3400 8.8633 0.1740
13.3600 8.8766 0.1590
13.3800 8.8899 0.1739
13.4000 8.9032 0.1700
13.4200 8.9166 0.1576
13.4400 8.9299 0.1712
13.4600 8.9432 0.1663
13.4800 8.9565 0.1599
13.5000 8.9698 0.1696
13.5200 8.9832 0.1702
13.5400 8.9965 0.1509
13.5600 9.0098 0.1738
13.5800 9.0231 0.1647
13.6000 9.0365 0.1483
13.6200 9.0498 0.1676
13.6400 9.0631 0.1674
13.6600 9.0765 0.1444
13.6800 9.0899 0.1641
13.7000 9.1032 0.1622
13.7200 9.1166 0.1460
13.7400 9.1299 0.1665
13.7600 9.1432 0.1588
13.7800 9.1566 0.1411
13.8000 9.1699 0.1594
13.8200 9.1832 0.1578
13.8400 9.1965 0.1451
13.8600 9.2098 0.1576
13.8800 9.2232 0.1496
13.9000 9.2365 0.1479
13.9200 9.2498 0.1492
13.9400 9.2631 0.1470
13.9600 9.2765 0.1459
13.9800 9.2898 0.1507
14.0000 9.3032 0.1396
14.0200 9.3165 0.1457
14.0400 9.3299 0.1425
14.0600 9.3432 0.1412
14.0800 9.3565 0.1423
14.1000 9.3698 0.1406
14.1200 9.3832 0.1369
14.1400 9.3965 0.1376
14.1600 9.4099 0.1363
14.1800 9.4232 0.1379
14.2000 9.4365 0.1380
14.2200 9.4499 0.1313
14.2400 9.4632 0.1331
14.2600 9.4765 0.1332
14.2800 9.4898 0.1307
14.3000 9.5031 0.1375
14.3200 9.5164 0.1235
14.3400 9.5298 0.1281
14.3600 9.5431 0.1345
14.3800 9.5565 0.1210
14.4000 9.5699 0.1224
14.4200 9.5832 0.1311
14.4400 9.5966 0.1152
14.4600 9.6099 0.1259
14.4800 9.6232 0.1267
14.5000 9.6366 0.1108
14.5200 9.6499 0.1296
14.5400 9.6632 0.1205
14.5600 9.6764 0.1102
14.5800 9.6898 0.1274
14.6000 9.7031 0.1144
14.6200 9.7165 0.1064
14.6400 9.7298 0.1302
14.6600 9.7431 0.1074
14.6800 9.7565 0.1070
14.7000 9.7699 0.1274
14.7200 9.7832 0.1103
14.7400 9.7965 0.1059
14.7600 9.8099 0.1199
14.7800 9.8233 0.1039
14.8000 9.8366 0.1084
14.8200 9.8499 0.1159
14.8400 9.8632 0.1038
14.8600 9.8765 0.1068
14.8800 9.8899 0.1069
14.9000 9.9032 0.1056
14.9200 9.9165 0.1093
14.9400 9.9298 0.1041
14.9600 9.9432 0.1044
14.9800 9.9565 0.1028
15.0000 9.9698 0.0986
15.0200 9.9831 0.1046
15.0400 9.9965 0.0978
15.0600 10.0098 0.0951
15.0800 10.0232 0.1007
15.1000 10.0365 0.0945
15.1200 10.0499 0.0946
15.1400 10.0632 0.1000
15.1600 10.0766 0.0926
15.1800 10.0899 0.0920
15.2000 10.1032 0.0967
15.2200 10.1166 0.0926
15.2400 10.1299 0.0916
15.2600 10.1432 0.0928
15.2800 10.1565 0.0885
15.3000 10.1698 0.0973
15.3200 10.1832 0.0855
15.3400 10.1965 0.0878
15.3600 10.2098 0.0942
15.3800 10.2231 0.0878
15.4000 10.2364 0.0893
15.4200 10.2498 0.0918
15.4400 10.2632 0.0775
15.4600 10.2765 0.0867
15.4800 10.2899 0.0960
15.5000 10.3032 0.0745
15.5200 10.3166 0.0826
15.5400 10.3299 0.0909
15.5600 10.3432 0.0763
15.5800 10.3566 0.0830
15.6000 10.3699 0.0901
15.6200 10.3832 0.0690
15.6400 10.3965 0.0836
15.6600 10.4098 0.0873
15.6800 10.4232 0.0686
15.7000 10.4365 0.0784
15.7200 10.4498 0.0808
15.7400 10.4631 0.0654
15.7600 10.4765 0.0823
15.7800 10.4898 0.0802
15.8000 10.5031 0.0656
15.8200 10.5165 0.0744
15.8400 10.5298 0.0791
15.8600 10.5432 0.0665
15.8800 10.5565 0.0705
15.9000 10.5698 0.0724
15.9200 10.5832 0.0683
15.9400 10.5965 0.0721
15.9600 10.6099 0.0641
15.9800 10.6232 0.0606
16.0000 10.6365 0.0776
16.0200 10.6498 0.0618
16.0400 10.6632 0.0571
16.0600 10.6765 0.0747
16.0800 10.6898 0.0656
16.1000 10.7031 0.0565
16.1200 10.7165 0.0708
16.1400 10.7298 0.0623
16.1600 10.7431 0.0503
16.1800 10.7565 0.0722
16.2000 10.7699 0.0593
16.2200 10.7832 0.0520
16.2400 10.7966 0.0683
16.2600 10.8099 0.0593
16.2800 10.8232 0.0526
16.3000 10.8365 0.0663
16.3200 10.8499 0.0514
16.3400 10.8632 0.0547
16.3600 10.8765 0.0668
16.3800 10.8898 0.0564
16.4000 10.9032 0.0499
16.4200 10.9165 0.0597
16.4400 10.9298 0.0531
16.4600 10.9431 0.0527
16.4800 10.9564 0.0556
16.5000 10.9698 0.0491
16.5200 10.9831 0.0502
16.5400 10.9965 0.0546
16.5600 11.0098 0.0452
16.5800 11.0232 0.0426
16.6000 11.0366 0.0518
16.6200 11.0499 0.0454
16.6400 11.0632 0.0421
16.6600 11.0766 0.0519
16.6800 11.0899 0.0397
16.7000 11.1032 0.0356
16.7200 11.1165 0.0542
16.7400 11.1298 0.0357
16.7600 11.1431 0.0338
16.7800 11.1565 0.0501
16.8000 11.1698 0.0348
16.8200 11.1831 0.0327
16.8400 11.1965 0.0459
16.8600 11.2099 0.0311
16.8800 11.2232 0.0300
16.9000 11.2365 0.0420
16.9200 11.2498 0.0325
16.9400 11.2632 0.0229
16.9600 11.2765 0.0403
16.9800 11.2898 0.0319
17.0000 11.3032 0.0266
17.0200 11.3165 0.0325
17.0400 11.3299 0.0257
17.0600 11.3432 0.0248
17.0800 11.3565 0.0316
17.1000 11.3698 0.0290
17.1200 11.3832 0.0211
17.1400 11.3965 0.0286
17.1600 11.4098 0.0271
17.1800 11.4231 0.0223
17.2000 11.4365 0.0298
17.2200 11.4498 0.0239
17.2400 11.4631 0.0171
17.2600 11.4765 0.0297
17.2800 11.4898 0.0218
17.3000 11.5032 0.0164
17.3200 11.5165 0.0231
17.3400 11.5299 0.0190
17.3600 11.5432 0.0179
17.3800 11.5565 0.0240
17.4000 11.5699 0.0103
17.4200 11.5832 0.0121
17.4400 11.5965 0.0235
17.4600 11.6098 0.0087
17.4800 11.6232 0.0109
17.5000 11.6365 0.0216
17.5200 11.6498 0.0071
17.5400 11.6631 0.0125
17.5600 11.6764 0.0179
17.5800 11.6898 0.0094
17.6000 11.7031 0.0074
17.6200 11.7165 0.0140
17.6400 11.7298 0.0078
17.6600 11.7432 0.0035
17.6800 11.7566 0.0074
17.7000 11.7699 0.0036
17.7200 11.7832 0.0024
17.7400 11.7966 0.0069
17.7600 11.8099 0.0053
17.7800 11.8232 -0.0032
17.8000 11.8365 0.0092
17.8200 11.8498 0.0066
17.8400 11.8632 -0.0125
17.8600 11.8765 0.0059
17.8800 11.8898 0.0118
17.9000 11.9031 -0.0144
17.9200 11.9165 -0.0034
17.9400 11.9299 0.0062
17.9600 11.9432 -0.0097
17.9800 11.9565 -0.0041
18.0000 11.9698 0.0037
18.0200 11.9832 -0.0150
18.0400 11.9965 -0.0062
18.0600 12.0099 -0.0069
18.0800 12.0232 -0.0159
18.1000 12.0365 0.0015
18.1200 12.0499 -0.0074
18.1400 12.0632 -0.0336
18.1600 12.0765 0.0090
18.1800 12.0898 0.0004
18.2000 12.1032 -0.0377
18.2200 12.1165 0.0045
18.2400 12.1298 -0.0037
18.2600 12.1431 -0.0397
18.2800 12.1564 -0.0007
18.3000 12.1698 -0.0080
18.3200 12.1831 -0.0381
18.3400 12.1965 -0.0013
18.3600 12.2098 -0.0160
18.3800 12.2232 -0.0335
18.4000 12.2366 -0.0084
18.4200 12.2499 -0.0246
18.4400 12.2632 -0.0249
18.4600 12.2765 -0.0069
18.4800 12.2899 -0.0325
18.5000 12.3032 -0.0274
18.5200 12.3165 -0.0114
18.5400 12.3298 -0.0309
18.5600 12.3432 -0.0233
18.5800 12.3565 -0.0133
18.6000 12.3698 -0.0427
18.6200 12.3832 -0.0255
18.6400 12.3965 -0.0147
18.6600 12.4098 -0.0371
18.6800 12.4231 -0.0321
18.7000 12.4365 -0.0194
18.7200 12.4498 -0.0343
18.7400 12.4632 -0.0326
18.7600 12.4766 -0.0288
18.7800 12.4899 -0.0344
18.8000 12.5032 -0.0344
18.8200 12.5165 -0.0346
18.8400 12.5299 -0.0362
18.8600 12.5432 -0.0330
18.8800 12.5565 -0.0395
18.9000 12.5698 -0.0433
18.9200 12.5831 -0.0376
18.9400 12.5965 -0.0320
18.9600 12.6098 -0.0445
18.9800 12.6231 -0.0424
19.0000 12.6364 -0.0372
19.0200 12.6498 -0.0528
19.0400 12.6632 -0.0397
19.0600 12.6765 -0.0415
19.0800 12.6898 -0.0532
19.1000 12.7032 -0.0495
19.1200 12.7165 -0.0435
19.1400 12.7298 -0.0578
19.1600 12.7432 -0.0516
19.1800 12.7565 -0.0401
19.2000 12.7699 -0.0588
19.2200 12.7832 -0.0585
19.2400 12.7965 -0.0419
19.2600 12.8099 -0.0613
19.2800 12.8232 -0.0577
19.3000 12.8366 -0.0473
19.3200 12.8499 -0.0651
19.3400 12.8631 -0.0629
19.3600 12.8764 -0.0515
19.3800 12.8898 -0.0650
19.4000 12.9031 -0.0608
19.4200 12.9165 -0.0594
19.4400 12.9298 -0.0645
19.4600 12.9432 -0.0624
19.4800 12.9566 -0.0588
19.5000 12.9699 -0.0683
19.5200 12.9832 -0.0644
19.5400 12.9966 -0.0649
19.5600 13.0099 -0.0693
19.5800 13.0233 -0.0654
19.6000 13.0365 -0.0667
19.6200 13.0498 -0.0708
19.6400 13.0631 -0.0705
19.6600 13.0765 -0.0707
19.6800 13.0898 -0.0688
19.7000 13.1031 -0.0714
19.7200 13.1164 -0.0707
19.7400 13.1298 -0.0745
19.7600 13.1431 -0.0797
19.7800 13.1565 -0.0660
19.8000 13.1698 -0.0773
19.8200 13.1832 -0.0867
19.8400 13.1966 -0.0755
19.8600 13.2099 -0.0667
19.8800 13.2232 -0.0828
19.9000 13.2365 -0.0800
19.9200 13.2499 -0.0758
19.9400 13.2632 -0.0794
19.9600 13.2765 -0.0784
19.9800 13.2898 -0.0796
20.0000 13.3032 -0.0742
20.0200 13.3165 -0.0817
20.0400 13.3298 -0.0827
20.0600 13.3431 -0.0767
20.0800 13.3564 -0.0828
20.1000 13.3698 -0.0873
20.1200 13.3832 -0.0788
20.1400 13.3965 -0.0766
20.1600 13.4098 -0.0908
20.1800 13.4232 -0.0898
20.2000 13.4365 -0.0809
20.2200 13.4499 -0.0946
20.2400 13.4632 -0.0940
20.2600 13.4765 -0.0802
20.2800 13.4899 -0.0922
20.3000 13.5032 -0.1056
20.3200 13.5166 -0.0786
20.3400 13.5299 -0.0920
20.3600 13.5432 -0.1022
20.3800 13.5565 -0.0869
20.4000 13.5698 -0.1021
20.4200 13.5831 -0.1013
20.4400 13.5964 -0.0874
20.4600 13.6098 -0.1048
20.4800 13.6232 -0.1004
20.5000 13.6365 -0.0991
20.5200 13.6498 -0.1065
20.5400 13.6632 -0.0976
20.5600 13.6766 -0.0989
20.5800 13.6899 -0.1119
20.6000 13.7032 -0.0966
20.6200 13.7165 -0.1035
20.6400 13.7299 -0.1135
20.6600 13.7432 -0.0994
20.6800 13.7565 -0.1087
20.7000 13.7698 -0.1084
20.7200 13.7831 -0.1045
20.7400 13.7965 -0.1115
20.7600 13.8098 -0.1096
20.7800 13.8231 -0.1084
20.8000 13.8365 -0.1174
20.8200 13.8498 -0.1053
20.8400 13.8632 -0.1165
20.8600 13.8765 -0.1202
20.8800 13.8898 -0.1055
20.9000 13.9032 -0.1179
20.9200 13.9166 -0.1244
20.9400 13.9299 -0.1105
20.9600 13.9432 -0.1227
20.9800 13.9566 -0.1268
21.0000 13.9699 -0.1135
21.0200 13.9833 -0.1132
21.0400 13.9966 -0.1348
21.0600 14.0098 -0.1213
21.0800 14.0232 -0.1177
21.1000 14.0365 -0.1268
21.1200 14.0498 -0.1280
21.1400 14.0632 -0.1218
21.1600 14.0765 -0.1314
21.1800 14.0898 -0.1281
21.2000 14.1031 -0.1200
21.2200 14.1165 -0.1384
21.2400 14.1298 -0.1310
21.2600 14.1432 -0.1211
21.2800 14.1566 -0.1434
21.3000 14.1699 -0.1336
21.3200 14.1832 -0.1167
21.3400 14.1965 -0.1438
21.3600 14.2099 -0.1386
21.3800 14.2232 -0.1251
21.4000 14.2365 -0.1484
21.4200 14.2498 -0.1401
21.4400 14.2632 -0.1202
21.4600 14.2765 -0.1497
21.4800 14.2898 -0.1387
21.5000 14.3031 -0.1271
21.5200 14.3164 -0.1510
21.5400 14.3298 -0.1428
21.5600 14.3431 -0.1246
21.5800 14.3564 -0.1571
21.6000 14.3698 -0.1457
21.6200 14.3831 -0.1273
21.6400 14.3966 -0.1585
21.6600 14.4099 -0.1474
21.6800 14.4233 -0.1370
21.7000 14.4366 -0.1588
21.7200 14.4499 -0.1406
21.7400 14.4632 -0.1411
21.7600 14.4765 -0.1610
21.7800 14.4898 -0.1426
21.8000 14.5031 -0.1460
21.8200 14.5165 -0.1616
21.8400 14.5298 -0.1466
21.8600 14.5431 -0.1452
21.8800 14.5564 -0.1634
21.9000 14.5698 -0.1498
21.9200 14.5831 -0.1482
21.9400 14.5965 -0.1631
21.9600 14.6098 -0.1548
21.9800 14.6232 -0.1522
22.0000 14.6366 -0.1670
22.0200 14.6499 -0.1516
22.0400 14.6632 -0.1583
22.0600 14.6765 -0.1701
22.0800 14.6899 -0.1495
22.1000 14.7032 -0.1576
22.1200 14.7165 -0.1783
22.1400 14.7298 -0.1543
22.1600 14.7431 -0.1572
22.1800 14.7565 -0.1770
22.2000 14.7698 -0.1632
22.2200 14.7832 -0.1573
22.2400 14.7965 -0.1748
22.2600 14.8098 -0.1603
22.2800 14.8232 -0.1677
22.3000 14.8365 -0.1823
22.3200 14.8498 -0.1604
22.3400 14.8632 -0.1655
22.3600 14.8766 -0.1881
22.3800 14.8899 -0.1695
22.4000 14.9032 -0.1640
22.4200 14.9165 -0.1874
22.4400 14.9299 -0.1716
22.4600 14.9433 -0.1652
22.4800 14.9566 -0.1898
22.5000 14.9699 -0.1802
22.5200 14.9831 -0.1635
22.5400 14.9965 -0.1888
22.5600 15.0098 -0.1807
22.5800 15.0231 -0.1624
22.6000 15.0364 -0.1972
22.6200 15.0498 -0.1870
22.6400 15.0631 -0.1597
22.6600 15.0765 -0.2016
22.6800 15.0898 -0.1864
22.7000 15.1032 -0.1706
22.7200 15.1165 -0.1996
22.7400 15.1299 -0.1865
22.7600 15.1432 -0.1723
22.7800 15.1566 -0.2098
22.8000 15.1699 -0.1827
22.8200 15.1832 -0.1757
22.8400 15.1965 -0.2122
22.8600 15.2098 -0.1859
22.8800 15.2231 -0.1755
22.9000 15.2365 -0.2129
22.9200 15.2499 -0.1885
22.9400 15.2632 -0.1851
22.9600 15.2765 -0.2083
22.9800 15.2898 -0.1853
23.0000 15.3031 -0.1978
23.0200 15.3165 -0.2112
23.0400 15.3298 -0.1845
23.0600 15.3432 -0.1928
23.0800 15.3565 -0.2183
23.1000 15.3699 -0.1906
23.1200 15.3832 -0.1953
23.1400 15.3965 -0.2194
23.1600 15.4099 -0.1963
23.1800 15.4232 -0.1929
23.2000 15.4366 -0.2226
23.2200 15.4499 -0.1991
23.2400 15.4632 -0.1989
23.2600 15.4765 -0.2206
23.2800 15.4898 -0.2060
23.3000 15.5031 -0.2022
23.3200 15.5164 -0.2230
23.3400 15.5298 -0.2014
23.3600 15.5431 -0.2097
23.3800 15.5565 -0.2244
23.4000 15.5698 -0.2048
23.4200 15.5832 -0.2085
23.4400 15.5966 -0.2248
23.4600 15.6099 -0.2106
23.4800 15.6232 -0.2128
23.5000 15.6365 -0.2236
23.5200 15.6499 -0.2124
23.5400 15.6632 -0.2124
23.5600 15.6766 -0.2257
23.5800 15.6899 -0.2179
23.6000 15.7032 -0.2085
23.6200 15.7165 -0.2257
23.6400 15.7299 -0.2266
23.6600 15.7432 -0.2147
23.6800 15.7565 -0.2286
23.7000 15.7698 -0.2216
23.7200 15.7831 -0.2184
23.7400 15.7965 -0.2321
23.7600 15.8098 -0.2245
23.7800 15.8231 -0.2193
23.8000 15.8365 -0.2312
23.8200 15.8499 -0.2302
23.8400 15.8632 -0.2183
23.8600 15.8765 -0.2403
23.8800 15.8899 -0.2264
23.9000 15.9032 -0.2214
23.9200 15.9165 -0.2361
23.9400 15.9298 -0.2347
23.9600 15.9431 -0.2242
23.9800 15.9565 -0.2392
24.0000 15.9698 -0.2341
24.0200 15.9831 -0.2303
24.0400 15.9964 -0.2428
24.0600 16.0098 -0.2359
24.0800 16.0232 -0.2324
24.1000 16.0365 -0.2445
24.1200 16.0498 -0.2377
24.1400 16.0632 -0.2338
24.1600 16.0765 -0.2490
24.1800 16.0899 -0.2445
24.2000 16.1032 -0.2403
24.2200 16.1165 -0.2449
24.2400 16.1298 -0.2506
24.2600 16.1432 -0.2418
24.2800 16.1565 -0.2480
24.3000 16.1699 -0.2502
24.3200 16.1832 -0.2436
24.3400 16.1965 -0.2509
24.3600 16.2099 -0.2528
24.3800 16.2232 -0.2427
24.4000 16.2365 -0.2531
24.4200 16.2498 -0.2591
24.4400 16.2631 -0.2497
24.4600 16.2765 -0.2533
24.4800 16.2898 -0.2616
24.5000 16.3031 -0.2498
24.5200 16.3165 -0.2594
24.5400 16.3299 -0.2618
24.5600 16.3432 -0.2589
24.5800 16.3565 -0.2582
24.6000 16.3699 -0.2591
24.6200 16.3832 -0.2606
24.6400 16.3966 -0.2662
24.6600 16.4099 -0.2652
24.6800 16.4232 -0.2604
24.7000 16.4365 -0.2678
24.7200 16.4499 -0.2667
24.7400 16.4632 -0.2703
24.7600 16.4765 -0.2691
24.7800 16.4898 -0.2677
24.8000 16.5031 -0.2724
24.8200 16.5165 -0.2709
24.8400 16.5298 -0.2703
24.8600 16.5431 -0.2754
24.8800 16.5565 -0.2769
24.9000 16.5699 -0.2733
24.9200 16.5832 -0.2738
24.9400 16.5966 -0.2827
24.9600 16.6099 -0.2767
24.9800 16.6232 -0.2764
25.0000 16.6366 -0.2780
25.0200 16.6499 -0.2861
25.0400 16.6632 -0.2732
25.0600 16.6765 -0.2825
25.0800 16.6898 -0.2902
25.1000 16.7032 -0.2809
25.1200 16.7164 -0.2797
25.1400 16.7298 -0.2885
25.1600 16.7431 -0.2829
25.1800 16.7565 -0.2901
25.2000 16.7698 -0.2887
25.2200 16.7831 -0.2855
25.2400 16.7965 -0.2906
25.2600 16.8099 -0.2870
25.2800 16.8232 -0.2950
25.3000 16.8365 -0.2918
25.3200 16.8499 -0.2916
25.3400 16.8632 -0.2955
25.3600 16.8766 -0.2965
25.3800 16.8899 -0.2952
25.4000 16.9032 -0.2952
25.4200 16.9165 -0.2919
25.4400 16.9299 -0.2988
25.4600 16.9432 -0.2981
25.4800 16.9565 -0.2938
25.5000 16.9698 -0.3016
25.5200 16.9831 -0.3016
25.5400 16.9964 -0.2936
25.5600 17.0098 -0.3068
25.5800 17.0231 -0.3048
25.6000 17.0365 -0.3039
25.6200 17.0499 -0.3082
25.6400 17.0632 -0.3069
25.6600 17.0765 -0.3063
25.6800 17.0899 -0.3111
25.7000 17.1032 -0.3038
25.7200 17.1166 -0.3138
25.7400 17.1299 -0.3154
25.7600 17.1432 -0.3045
25.7800 17.1565 -0.3139
25.8000 17.1699 -0.3139
25.8200 17.1832 -0.3089
25.8400 17.1965 -0.3198
25.8600 17.2098 -0.3172
25.8800 17.2231 -0.3126
25.9000 17.2365 -0.3234
25.9200 17.2498 -0.3157
25.9400 17.2631 -0.3221
25.9600 17.2765 -0.3227
25.9800 17.2899 -0.3226
26.0000 17.3033 -0.3221
26.0200 17.3166 -0.3260
26.0400 17.3299 -0.3234
26.0600 17.3432 -0.3271
26.0800 17.3566 -0.3288
26.1000 17.3699 -0.3302
26.1200 17.3832 -0.3221
26.1400 17.3965 -0.3327
26.1600 17.4098 -0.3290
26.1800 17.4232 -0.3297
26.2000 17.4365 -0.3347
26.2200 17.4498 -0.3348
26.2400 17.4631 -0.3280
26.2600 17.4765 -0.3381
26.2800 17.4899 -0.3477
26.3000 17.5032 -0.3297
26.3200 17.5165 -0.3402
26.3400 17.5299 -0.3507
26.3600 17.5432 -0.3313
26.3800 17.5565 -0.3478
26.4000 17.5698 -0.3465
26.4200 17.5832 -0.3359
26.4400 17.5965 -0.3491
26.4600 17.6099 -0.3467
26.4800 17.6232 -0.3436
26.5000 17.6365 -0.3518
26.5200 17.6499 -0.3528
26.5400 17.6632 -0.3449
26.5600 17.6765 -0.3599
26.5800 17.6898 -0.3500
26.6000 17.7031 -0.3499
26.6200 17.7165 -0.3608
26.6400 17.7298 -0.3534
26.6600 17.7431 -0.3538
26.6800 17.7565 -0.3597
26.7000 17.7699 -0.3565
26.7200 17.7833 -0.3611
26.7400 17.7966 -0.3617
26.7600 17.8099 -0.3595
26.7800 17.8232 -0.3586
26.8000 17.8366 -0.3706
26.8200 17.8499 -0.3647
26.8400 17.8632 -0.3659
26.8600 17.8765 -0.3605
26.8800 17.8898 -0.3685
26.9000 17.9031 -0.3707
26.9200 17.9164 -0.3624
26.9400 17.9297 -0.3651
26.9600 17.9431 -0.3741
26.9800 17.9564 -0.3712
27.0000 17.9698 -0.3657
27.0200 17.9831 -0.3695
27.0400 17.9965 -0.3823
27.0600 18.0099 -0.3756
27.0800 18.0232 -0.3701
27.1000 18.0366 -0.3812
27.1200 18.0499 -0.3833
27.1400 18.0632 -0.3605
27.1600 18.0766 -0.3827
27.1800 18.0899 -0.4049
27.2000 18.1032 -0.3565
27.2200 18.1165 -0.3714
27.2400 18.1298 -0.4094
27.2600 18.1432 -0.3783
27.2800 18.1565 -0.3667
27.3000 18.1698 -0.4058
27.3200 18.1831 -0.3908
27.3400 18.1965 -0.3697
27.3600 18.2098 -0.4032
27.3800 18.2232 -0.4007
27.4000 18.2365 -0.3809
27.4200 18.2499 -0.3831
27.4400 18.2632 -0.4136
27.4600 18.2765 -0.4080
27.4800 18.2899 -0.3740
27.5000 18.3032 -0.4053
27.5200 18.3166 -0.4169
27.5400 18.3299 -0.3824
27.5600 18.3432 -0.3993
27.5800 18.3565 -0.4217
27.6000 18.3699 -0.3912
27.6200 18.3832 -0.3932
27.6400 18.3965 -0.4282
27.6600 18.4098 -0.3953
27.6800 18.4231 -0.4014
27.7000 18.4365 -0.4243
27.7200 18.4498 -0.4026
27.7400 18.4632 -0.4104
27.7600 18.4765 -0.4250
27.7800 18.4899 -0.4048
27.8000 18.5032 -0.4244
27.8200 18.5166 -0.4263
27.8400 18.5299 -0.4053
27.8600 18.5432 -0.4311
27.8800 18.5566 -0.4232
27.9000 18.5699 -0.4111
27.9200 18.5831 -0.4376
27.9400 18.5965 -0.4219
27.9600 18.6098 -0.4155
27.9800 18.6232 -0.4322
28.0000 18.6365 -0.4374
28.0200 18.6498 -0.4205
28.0400 18.6631 -0.4280
28.0600 18.6765 -0.4313
28.0800 18.6898 -0.4290
28.1000 18.7031 -0.4265
28.1200 18.7165 -0.4344
28.1400 18.7299 -0.4406
28.1600 18.7432 -0.4221
28.1800 18.7566 -0.4359
28.2000 18.7699 -0.4407
28.2200 18.7832 -0.4348
28.2400 18.7966 -0.4455
28.2600 18.8099 -0.4360
28.2800 18.8232 -0.4329
28.3000 18.8365 -0.4524
28.3200 18.8498 -0.4350
28.3400 18.8632 -0.4410
28.3600 18.8765 -0.4566
28.3800 18.8898 -0.4356
28.4000 18.9031 -0.4391
28.4200 18.9165 -0.4650
28.4400 18.9298 -0.4376
28.4600 18.9432 -0.4527
28.4800 18.9565 -0.4599
28.5000 18.9699 -0.4340
28.5200 18.9832 -0.4610
28.5400 18.9965 -0.4676
28.5600 19.0098 -0.4358
28.5800 19.0232 -0.4631
28.6000 19.0365 -0.4699
28.6200 19.0499 -0.4444
28.6400 19.0632 -0.4675
28.6600 19.0765 -0.4701
28.6800 19.0899 -0.4490
28.7000 19.1032 -0.4763
28.7200 19.1165 -0.4731
28.7400 19.1298 -0.4543
28.7600 19.1431 -0.4781
28.7800 19.1564 -0.4725
28.8000 19.1698 -0.4628
28.8200 19.1831 -0.4850
28.8400 19.1965 -0.4735
28.8600 19.2099 -0.4701
28.8800 19.2232 -0.4911
28.9000 19.2366 -0.4748
28.9200 19.2499 -0.4806
28.9400 19.2633 -0.4866
28.9600 19.2766 -0.4814
28.9800 19.2899 -0.4830
29.0000 19.3032 -0.4921
29.0200 19.3165 -0.4781
29.0400 19.3298 -0.4923
29.0600 19.3432 -0.4934
29.0800 19.3565 -0.4828
29.1000 19.3698 -0.4977
29.1200 19.3832 -0.4949
29.1400 19.3965 -0.4883
29.1600 19.4099 -0.5052
29.1800 19.4232 -0.4953
29.2000 19.4365 -0.4910
29.2200 19.4499 -0.5099
29.2400 19.4632 -0.5012
29.2600 19.4766 -0.4947
29.2800 19.4899 -0.5138
29.3000 19.5032 -0.5035
29.3200 19.5165 -0.5028
29.3400 19.5299 -0.5163
29.3600 19.5432 -0.5046
29.3800 19.5565 -0.5140
29.4000 19.5698 -0.5170
29.4200 19.5831 -0.5129
29.4400 19.5965 -0.5184
29.4600 19.6098 -0.5169
29.4800 19.6231 -0.5150
29.5000 19.6365 -0.5227
29.5200 19.6498 -0.5232
29.5400 19.6632 -0.5231
29.5600 19.6765 -0.5283
29.5800 19.6899 -0.5270
29.6000 19.7032 -0.5313
29.6200 19.7165 -0.5323
29.6400 19.7298 -0.5276
29.6600 19.7432 -0.5393
29.6800 19.7565 -0.5346
29.7000 19.7699 -0.5371
29.7200 19.7832 -0.5484
29.7400 19.7965 -0.5334
29.7600 19.8098 -0.5424
29.7800 19.8232 -0.5528
29.8000 19.8365 -0.5360
29.8200 19.8498 -0.5492
29.8400 19.8631 -0.5570
29.8600 19.8765 -0.5400
29.8800 19.8898 -0.5602
29.9000 19.9032 -0.5564
29.9200 19.9165 -0.5499
29.9400 19.9299 -0.5682
29.9600 19.9432 -0.5563
29.9800 19.9566 -0.5540
30.0000 19.9699 -0.5842
30.0200 19.9832 -0.5561
30.0400 19.9966 -0.5580
30.0600 20.0099 -0.5812
30.0800 20.0232 -0.5647
30.1000 20.0365 -0.5656
30.1200 20.0498 -0.5785
30.1400 20.0632 -0.5666
30.1600 20.0765 -0.5786
30.1800 20.0898 -0.5749
30.2000 20.1031 -0.5679
30.2200 20.1165 -0.5834
30.2400 20.1298 -0.5755
30.2600 20.1432 -0.5714
30.2800 20.1565 -0.5894
30.3000 20.1698 -0.5778
30.3200 20.1832 -0.5813
30.3400 20.1965 -0.5923
30.3600 20.2099 -0.5782
30.3800 20.2232 -0.5869
30.4000 20.2366 -0.5975
30.4200 20.2499 -0.5847
30.4400 20.2632 -0.5949
30.4600 20.2765 -0.6021
30.4800 20.2898 -0.5862
30.5000 20.3032 -0.6077
30.5200 20.3165 -0.6028
30.5400 20.3298 -0.5983
30.5600 20.3431 -0.6125
30.5800 20.3564 -0.6074
30.6000 20.3698 -0.5913
30.6200 20.3831 -0.5113
30.6400 20.3965 -0.3576
30.6600 20.4099 -0.2264
30.6800 20.4233 -0.1275
30.7000 20.4366 -0.0403
30.7200 20.4499 -0.0096
30.7400 20.4632 -0.0006
30.7600 20.4765 0.0483
30.7800 20.4899 0.0743
30.8000 20.5032 0.1300
30.8200 20.5165 0.2091
30.8400 20.5298 0.2445
30.8600 20.5432 0.3062
30.8800 20.5565 0.3720
30.9000 20.5698 0.3964
30.9200 20.5831 0.4626
30.9400 20.5964 0.5252
30.9600 20.6098 0.5563
30.9800 20.6231 0.6317
31.0000 20.6365 0.6734
31.0200 20.6498 0.6649
31.0400 20.6632 0.7349
31.0600 20.6766 0.7963
31.0800 20.6899 0.8180
31.1000 20.7032 0.8896
31.1200 20.7166 0.9315
31.1400 20.7299 0.9596
31.1600 20.7432 1.0289
31.1800 20.7565 1.0628
31.2000 20.7698 1.0757
31.2200 20.7831 1.1442
31.2400 20.7965 1.1701
31.2600 20.8098 1.1611
31.2800 20.8231 1.1795
31.3000 20.8365 1.1812
31.3200 20.8499 1.1657
31.3400 20.8632 1.1741
31.3600 20.8765 1.1840
31.3800 20.8899 1.1755
31.4000 20.9032 1.1779
31.4200 20.9166 1.1858
31.4400 20.9299 1.1680
31.4600 20.9432 1.1829
31.4800 20.9565 1.1965
31.5000 20.9699 1.1674
31.5200 20.9832 1.1817
31.5400 20.9965 1.1953
31.5600 21.0098 1.1763
31.5800 21.0232 1.1844
31.6000 21.0365 1.1863
31.6200 21.0499 1.1825
31.6400 21.0632 1.1902
31.6600 21.0765 1.1819
31.6800 21.0898 1.1749
31.7000 21.1031 1.1875
31.7200 21.1165 1.1861
31.7400 21.1298 1.1756
31.7600 21.1432 1.1819
31.7800 21.1565 1.1755
31.8000 21.1698 1.1807
31.8200 21.1832 1.1751
31.8400 21.1965 1.1762
31.8600 21.2099 1.1816
31.8800 21.2232 1.1684
31.9000 21.2365 1.1666
31.9200 21.2498 1.1761
31.9400 21.2632 1.1722
31.9600 21.2765 1.1696
31.9800 21.2898 1.1660
32.0000 21.3031 1.1639
32.0200 21.3165 1.1663
32.0400 21.3298 1.1701
32.0600 21.3431 1.1574
32.0800 21.3565 1.1649
32.1000 21.3698 1.1598
32.1200 21.3832 1.1549
32.1400 21.3966 1.1616
32.1600 21.4099 1.1576
32.1800 21.4232 1.1593
32.2000 21.4365 1.1573
32.2200 21.4499 1.1518
32.2400 21.4632 1.1522
32.2600 21.4765 1.1593
32.2800 21.4898 1.1527
32.3000 21.5032 1.1534
32.3200 21.5165 1.1511
32.3400 21.5298 1.1511
32.3600 21.5431 1.1511
32.3800 21.5564 1.1495
32.4000 21.5698 1.1471
32.4200 21.5832 1.1494
32.4400 21.5965 1.1438
32.4600 21.6098 1.1490
32.4800 21.6232 1.1491
32.5000 21.6365 1.1428
32.5200 21.6499 1.1461
32.5400 21.6632 1.1410
32.5600 21.6766 1.1406
32.5800 21.6899 1.1469
32.6000 21.7033 1.1358
32.6200 21.7165 1.1465
32.6400 21.7298 1.1409
32.6600 21.7432 1.1319
32.6800 21.7565 1.1431
32.7000 21.7698 1.1385
32.7200 21.7831 1.1333
32.7400 21.7964 1.1445
32.7600 21.8098 1.1349
32.7800 21.8231 1.1296
32.8000 21.8365 1.1454
32.8200 21.8498 1.1325
32.8400 21.8632 1.1274
32.8600 21.8766 1.1392
32.8800 21.8899 1.1283
32.9000 21.9032 1.1239
32.9200 21.9165 1.1394
32.9400 21.9299 1.1254
32.9600 21.9432 1.1238
32.9800 21.9565 1.1334
33.0000 21.9698 1.1256
33.0200 21.9832 1.1219
33.0400 21.9965 1.1274
33.0600 22.0099 1.1198
33.0800 22.0232 1.1205
33.1000 22.0365 1.1213
33.1200 22.0498 1.1216
33.1400 22.0631 1.1165
33.1600 22.0765 1.1215
33.1800 22.0898 1.1170
33.2000 22.1032 1.1125
33.2200 22.1166 1.1175
33.2400 22.1299 1.1201
33.2600 22.1432 1.1047
33.2800 22.1565 1.1165
33.3000 22.1699 1.1176
33.3200 22.1832 1.1048
33.3400 22.1965 1.1199
33.3600 22.2098 1.1119
33.3800 22.2231 1.1001
33.4000 22.2365 1.1138
33.4200 22.2498 1.1148
33.4400 22.2631 1.0971
33.4600 22.2764 1.1146
33.4800 22.2898 1.1138
33.5000 22.3032 1.0911
33.5200 22.3165 1.1077
33.5400 22.3298 1.1144
33.5600 22.3432 1.0904
33.5800 22.3565 1.1055
33.6000 22.3699 1.1011
33.6200 22.3832 1.0931
33.6400 22.3965 1.1087
33.6600 22.4099 1.0993
33.6800 22.4232 1.0825
33.7000 22.4365 1.1105
33.7200 22.4499 1.0974
33.7400 22.4632 1.0886
33.7600 22.4766 1.1050
33.7800 22.4899 1.0953
33.8000 22.5031 1.0839
33.8200 22.5164 1.1007
33.8400 22.5298 1.0875
33.8600 22.5431 1.0837
33.8800 22.5565 1.0957
33.9000 22.5698 1.0847
33.9200 22.5832 1.0798
33.9400 22.5966 1.0919
33.9600 22.6099 1.0825
33.9800 22.6232 1.0755
34.0000 22.6366 1.0828
34.0200 22.6499 1.0802
34.0400 22.6633 1.0787
34.0600 22.6766 1.0802
34.0800 22.6899 1.0800
34.1000 22.7032 1.0725
34.1200 22.7165 1.0764
34.1400 22.7298 1.0741
34.1600 22.7431 1.0771
34.1800 22.7564 1.0715
34.2000 22.7698 1.0756
34.2200 22.7831 1.0682
34.2400 22.7965 1.0756
34.2600 22.8098 1.0738
34.2800 22.8232 1.0661
34.3000 22.8366 1.0723
34.3200 22.8499 1.0676
34.3400 22.8632 1.0631
34.3600 22.8766 1.0784
34.3800 22.8899 1.0672
34.4000 22.9033 1.0585
34.4200 22.9166 1.0735
34.4400 22.9298 1.0685
34.4600 22.9432 1.0644
34.4800 22.9565 1.0724
34.5000 22.9698 1.0653
34.5200 22.9831 1.0628
34.5400 22.9964 1.0670
34.5600 23.0098 1.0645
34.5800 23.0231 1.0657
34.6000 23.0365 1.0606
34.6200 23.0498 1.0572
34.6400 23.0632 1.0653
34.6600 23.0765 1.0617
34.6800 23.0899 1.0554
34.7000 23.1032 1.0676
34.7200 23.1165 1.0521
34.7400 23.1299 1.0533
34.7600 23.1432 1.0650
34.7800 23.1565 1.0512
34.8000 23.1699 1.0559
34.8200 23.1832 1.0607
34.8400 23.1965 1.0450
34.8600 23.2099 1.0579
34.8800 23.2231 1.0579
34.9000 23.2364 1.0400
34.9200 23.2498 1.0569
34.9400 23.2632 1.0526
34.9600 23.2765 1.0334
34.9800 23.2898 1.0617
35.0000 23.3032 1.0502
35.0200 23.3166 1.0347
35.0400 23.3299 1.0540
35.0600 23.3432 1.0493
35.0800 23.3565 1.0345
35.1000 23.3699 1.0484
35.1200 23.3832 1.0423
35.1400 23.3965 1.0308
35.1600 23.4098 1.0518
35.1800 23.4231 1.0406
35.2000 23.4365 1.0319
35.2200 23.4498 1.0450
35.2400 23.4632 1.0376
35.2600 23.4765 1.0308
35.2800 23.4898 1.0435
35.3000 23.5032 1.0359
35.3200 23.5165 1.0280
35.3400 23.5298 1.0342
35.3600 23.5432 1.0405
35.3800 23.5565 1.0260
35.4000 23.5699 1.0402
35.4200 23.5832 1.0327
35.4400 23.5965 1.0257
35.4600 23.6099 1.0322
35.4800 23.6233 1.0319
35.5000 23.6366 1.0196
35.5200 23.6499 1.0270
35.5400 23.6632 1.0327
35.5600 23.6765 1.0233
35.5800 23.6898 1.0246
35.6000 23.7032 1.0320
35.6200 23.7165 1.0170
35.6400 23.7298 1.0222
35.6600 23.7431 1.0243
35.6800 23.7565 1.0162
35.7000 23.7698 1.0223
35.7200 23.7832 1.0185
35.7400 23.7965 1.0130
35.7600 23.8099 1.0164
35.7800 23.8232 1.0219
35.8000 23.8365 1.0074
35.8200 23.8499 1.0190
35.8400 23.8632 1.0143
35.8600 23.8765 1.0053
35.8800 23.8899 1.0164
35.9000 23.9032 1.0155
35.9200 23.9165 0.9969
35.9400 23.9299 1.0136
35.9600 23.9431 1.0114
35.9800 23.9564 1.0011
36.0000 23.9697 1.0097
36.0200 23.9831 1.0058
36.0400 23.9964 0.9936
36.0600 24.0098 1.0096
36.0800 24.0231 0.9992
36.1000 24.0365 0.9903
36.1200 24.0499 1.0079
36.1400 24.0633 0.9945
36.1600 24.0766 0.9922
36.1800 24.0899 1.0091
36.2000 24.1033 0.9916
36.2200 24.1166 0.9870
36.2400 24.1298 1.0047
36.2600 24.1431 0.9957
36.2800 24.1565 0.9881
36.3000 24.1698 0.9965
36.3200 24.1831 0.9890
36.3400 24.1964 0.9906
36.3600 24.2098 0.9968
36.3800 24.2232 0.9854
36.4000 24.2365 0.9897
36.4200 24.2498 0.9920
36.4400 24.2632 0.9880
36.4600 24.2766 0.9837
36.4800 24.2899 0.9891
36.5000 24.3032 0.9847
36.5200 24.3165 0.9856
36.5400 24.3299 0.9864
36.5600 24.3432 0.9873
36.5800 24.3565 0.9793
36.6000 24.3698 0.9822
36.6200 24.3832 0.9808
36.6400 24.3965 0.9810
36.6600 24.4098 0.9806
36.6800 24.4231 0.9808
36.7000 24.4365 0.9771
36.7200 24.4498 0.9797
36.7400 24.4632 0.9843
36.7600 24.4765 0.9755
36.7800 24.4898 0.9764
36.8000 24.5032 0.9823
36.8200 24.5165 0.9710
36.8400 24.5299 0.9729
36.8600 24.5432 0.9792
36.8800 24.5565 0.9729
36.9000 24.5699 0.9684
36.9200 24.5832 0.9729
36.9400 24.5966 0.9725
36.9600 24.6099 0.9675
36.9800 24.6232 0.9757
37.0000 24.6365 0.9682
37.0200 24.6499 0.9671
37.0400 24.6632 0.9694
37.0600 24.6765 0.9715
37.0800 24.6898 0.9611
37.1000 24.7031 0.9689
37.1200 24.7165 0.9650
37.1400 24.7298 0.9571
37.1600 24.7432 0.9705
37.1800 24.7565 0.9648
37.2000 24.7699 0.9520
37.2200 24.7832 0.9686
37.2400 24.7965 0.9619
37.2600 24.8099 0.9520
37.2800 24.8232 0.9626
37.3000 24.8365 0.9580
37.3200 24.8498 0.9454
37.3400 24.8631 0.9668
37.3600 24.8765 0.9566
37.3800 24.8899 0.9432
37.4000 24.9032 0.9621
37.4200 24.9165 0.9558
37.4400 24.9298 0.9477
37.4600 24.9432 0.9546
37.4800 24.9565 0.9481
37.5000 24.9698 0.9454
37.5200 24.9831 0.9586
37.5400 24.9965 0.9418
37.5600 25.0099 0.9431
37.5800 25.0232 0.9551
37.6000 25.0365 0.9417
37.6200 25.0498 0.9394
37.6400 25.0632 0.9542
37.6600 25.0766 0.9371
37.6800 25.0899 0.9405
37.7000 25.1032 0.9476
37.7200 25.1165 0.9352
37.7400 25.1299 0.9408
37.7600 25.1432 0.9438
37.7800 25.1564 0.9301
37.8000 25.1698 0.9370
37.8200 25.1831 0.9419
37.8400 25.1965 0.9306
37.8600 25.2098 0.9287
37.8800 25.2232 0.9389
37.9000 25.2365 0.9323
37.9200 25.2499 0.9278
37.9400 25.2632 0.9316
37.9600 25.2765 0.9344
37.9800 25.2899 0.9250
38.0000 25.3032 0.9325
38.0200 25.3166 0.9266
38.0400 25.3299 0.9194
38.0600 25.3432 0.9374
38.0800 25.3565 0.9265
38.1000 25.3699 0.9177
38.1200 25.3832 0.9309
38.1400 25.3965 0.9317
38.1600 25.4098 0.9172
38.1800 25.4231 0.9307
38.2000 25.4365 0.9212
38.2200 25.4498 0.9170
38.2400 25.4631 0.9267
38.2600 25.4765 0.9222
38.2800 25.4899 0.9149
38.3000 25.5032 0.9269
38.3200 25.5166 0.9163
38.3400 25.5299 0.9182
38.3600 25.5432 0.9235
38.3800 25.5566 0.9148
38.4000 25.5698 0.9219
38.4200 25.5831 0.9228
38.4400 25.5965 0.9119
38.4600 25.6098 0.9184
38.4800 25.6231 0.9205
38.5000 25.6364 0.9121
38.5200 25.6498 0.9196
38.5400 25.6631 0.9196
38.5600 25.6765 0.9130
38.5800 25.6899 0.9181
38.6000 25.7032 0.9113
38.6200 25.7165 0.9121
38.6400 25.7299 0.9193
38.6600 25.7432 0.9066
38.6800 25.7565 0.9154
38.7000 25.7698 0.9222
38.7200 25.7832 0.9040
38.7400 25.7966 0.9133
38.7600 25.8099 0.9130
38.7800 25.8232 0.8998
38.8000 25.8365 0.9167
38.8200 25.8499 0.9076
38.8400 25.8632 0.8962
38.8600 25.8765 0.9111
38.8800 25.8898 0.9075
38.9000 25.9031 0.8922
38.9200 25.9165 0.9078
38.9400 25.9298 0.9022
38.9600 25.9431 0.8907
38.9800 25.9565 0.9081
39.0000 25.9699 0.8977
39.0200 25.9832 0.8919
39.0400 25.9965 0.9017
39.0600 26.0098 0.8904
39.0800 26.0232 0.8979
39.1000 26.0365 0.9000
39.1200 26.0499 0.8914
39.1400 26.0632 0.8937
39.1600 26.0765 0.8944
39.1800 26.0899 0.8892
39.2000 26.1032 0.8923
39.2200 26.1165 0.8941
39.2400 26.1298 0.8874
39.2600 26.1431 0.8895
39.2800 26.1565 0.8846
39.3000 26.1698 0.8923
39.3200 26.1831 0.8807
39.3400 26.1965 0.8853
39.3600 26.2099 0.8875
39.3800 26.2232 0.8783
39.4000 26.2366 0.8807
39.4200 26.2499 0.8918
39.4400 26.2632 0.8749
39.4600 26.2766 0.8775
39.4800 26.2899 0.8827
39.5000 26.3031 0.8699
39.5200 26.3165 0.8751
39.5400 26.3298 0.8820
39.5600 26.3432 0.8650
39.5800 26.3565 0.8786
39.6000 26.3698 0.8770
39.6200 26.3832 0.8589
39.6400 26.3965 0.8722
39.6600 26.4099 0.8714
39.6800 26.4232 0.8557
39.7000 26.4365 0.8752
39.7200 26.4499 0.8665
39.7400 26.4632 0.8565
39.7600 26.4765 0.8768
39.7800 26.4899 0.8656
39.8000 26.5032 0.8634
39.8200 26.5166 0.8673
39.8400 26.5299 0.8659
39.8600 26.5432 0.8590
39.8800 26.5565 0.8698
39.9000 26.5698 0.8608
39.9200 26.5832 0.8648
39.9400 26.5965 0.8633
39.9600 26.6098 0.8541
39.9800 26.6231 0.8668
40.0000 26.6365 0.8612
40.0200 26.6498 0.8492
40.0400 26.6631 0.8674
40.0600 26.6765 0.8628
40.0800 26.6899 0.8457
40.1000 26.7033 0.8581
40.1200 26.7166 0.8625
40.1400 26.7299 0.8465
40.1600 26.7432 0.8618
40.1800 26.7565 0.8440
40.2000 26.7699 0.8477
40.2200 26.7832 0.8619
40.2400 26.7965 0.8451
40.2600 26.8098 0.8453
40.2800 26.8232 0.8579
40.3000 26.8365 0.8360
40.3200 26.8498 0.8460
40.3400 26.8631 0.8547
40.3600 26.8765 0.8331
40.3800 26.8898 0.8493
40.4000 26.9031 0.8503
40.4200 26.9165 0.8225
40.4400 26.9299 0.8554
40.4600 26.9432 0.8473
40.4800 26.9565 0.8122
40.5000 26.9699 0.8604
40.5200 26.9832 0.8376
40.5400 26.9966 0.8130
40.5600 27.0099 0.8576
40.5800 27.0232 0.8274
40.6000 27.0365 0.8163
40.6200 27.0498 0.8654
40.6400 27.0632 0.8141
40.6600 27.0765 0.8131
40.6800 27.0898 0.8569
40.7000 27.1031 0.8081
40.7200 27.1165 0.8213
40.7400 27.1298 0.8525
40.7600 27.1432 0.8025
40.7800 27.1565 0.8231
40.8000 27.1699 0.8455
40.8200 27.1832 0.8030
40.8400 27.1965 0.8248
40.8600 27.2098 0.8348
40.8800 27.2232 0.8032
40.9000 27.2366 0.8216
40.9200 27.2499 0.8216
40.9400 27.2632 0.8157
40.9600 27.2765 0.8192
40.9800 27.2899 0.8114
41.0000 27.3032 0.8179
41.0200 27.3165 0.8172
41.0400 27.3298 0.8102
41.0600 27.3432 0.8117
41.0800 27.3565 0.8166
41.1000 27.3698 0.8103
41.1200 27.3831 0.8110
41.1400 27.3965 0.8029
41.1600 27.4099 0.8148
41.1800 27.4233 0.8177
41.2000 27.4366 0.7973
41.2200 27.4499 0.8142
41.2400 27.4632 0.8170
41.2600 27.4766 0.7934
41.2800 27.4899 0.8140
41.3000 27.5032 0.8144
41.3200 27.5165 0.7947
41.3400 27.5298 0.8128
41.3600 27.5432 0.8103
41.3800 27.5565 0.7896
41.4000 27.5698 0.8158
41.4200 27.5831 0.8058
41.4400 27.5965 0.7840
41.4600 27.6098 0.8138
41.4800 27.6231 0.8034
41.5000 27.6365 0.7910
41.5200 27.6499 0.8081
41.5400 27.6632 0.8015
41.5600 27.6766 0.7924
41.5800 27.6899 0.8060
41.6000 27.7032 0.7981
41.6200 27.7166 0.7901
41.6400 27.7299 0.8078
41.6600 27.7432 0.8029
41.6800 27.7565 0.7823
41.7000 27.7698 0.8085
41.7200 27.7832 0.7976
41.7400 27.7965 0.7874
41.7600 27.8098 0.8093
41.7800 27.8231 0.7981
41.8000 27.8365 0.7836
41.8200 27.8498 0.8043
41.8400 27.8632 0.8012
41.8600 27.8765 0.7874
41.8800 27.8899 0.7999
41.9000 27.9032 0.8046
41.9200 27.9166 0.7860
41.9400 27.9299 0.8007
41.9600 27.9432 0.8065
41.9800 27.9566 0.7875
42.0000 27.9699 0.7981
42.0200 27.9832 0.8043
42.0400 27.9965 0.7872
42.0600 28.0098 0.7991
42.0800 28.0232 0.8068
42.1000 28.0365 0.7797
42.1200 28.0498 0.8040
42.1400 28.0631 0.8026
42.1600 28.0765 0.7734
42.1800 28.0898 0.8036
42.2000 28.1031 0.8009
42.2200 28.1165 0.7721
42.2400 28.1299 0.8018
42.2600 28.1433 0.7927
42.2800 28.1566 0.7732
42.3000 28.1699 0.7998
42.3200 28.1832 0.7957
42.3400 28.1966 0.7642
42.3600 28.2099 0.7981
42.3800 28.2232 0.7912
42.4000 28.2365 0.7634
42.4200 28.2498 0.7930
42.4400 28.2632 0.7826
42.4600 28.2765 0.7628
42.4800 28.2898 0.7887
42.5000 28.3031 0.7810
42.5200 28.3165 0.7619
42.5400 28.3298 0.7775
42.5600 28.3431 0.7768
42.5800 28.3565 0.7604
42.6000 28.3698 0.7807
42.6200 28.3832 0.7733
42.6400 28.3966 0.7547
42.6600 28.4099 0.7760
42.6800 28.4232 0.7691
42.7000 28.4366 0.7520
42.7200 28.4499 0.7752
42.7400 28.4632 0.7677
42.7600 28.4765 0.7400
42.7800 28.4898 0.7763
42.8000 28.5032 0.7660
42.8200 28.5165 0.7356
42.8400 28.5298 0.7697
42.8600 28.5431 0.7635
42.8800 28.5565 0.7330
42.9000 28.5698 0.7658
42.9200 28.5832 0.7593
42.9400 28.5965 0.7353
42.9600 28.6098 0.7646
42.9800 28.6232 0.7521
43.0000 28.6365 0.7301
43.0200 28.6498 0.7633
43.0400 28.6632 0.7490
43.0600 28.6765 0.7316
43.0800 28.6899 0.7514
43.1000 28.7032 0.7444
43.1200 28.7165 0.7347
43.1400 28.7298 0.7506
43.1600 28.7432 0.7435
43.1800 28.7565 0.7334
43.2000 28.7698 0.7429
43.2200 28.7831 0.7379
43.2400 28.7964 0.7369
43.2600 28.8098 0.7455
43.2800 28.8231 0.7395
43.3000 28.8364 0.7308
43.3200 28.8498 0.7413
43.3400 28.8632 0.7316
43.3600 28.8766 0.7322
43.3800 28.8899 0.7386
43.4000 28.9033 0.7373
43.4200 28.9166 0.7267
43.4400 28.9299 0.7372
43.4600 28.9432 0.7371
43.4800 28.9565 0.7331
43.5000 28.9698 0.7359
43.5200 28.9831 0.7380
43.5400 28.9965 0.7292
43.5600 29.0098 0.7384
43.5800 29.0231 0.7386
43.6000 29.0365 0.7297
43.6200 29.0499 0.7373
43.6400 29.0632 0.7358
43.6600 29.0765 0.7277
43.6800 29.0899 0.7418
43.7000 29.1033 0.7346
43.7200 29.1166 0.7242
43.7400 29.1299 0.7358
43.7600 29.1432 0.7433
43.7800 29.1565 0.7198
43.8000 29.1699 0.7288
43.8200 29.1832 0.7457
43.8400 29.1965 0.7203
43.8600 29.2098 0.7291
43.8800 29.2232 0.7425
43.9000 29.2365 0.7214
43.9200 29.2498 0.7244
43.9400 29.2631 0.7388
43.9600 29.2765 0.7178
43.9800 29.2898 0.7266
44.0000 29.3032 0.7412
44.0200 29.3165 0.7132
44.0400 29.3299 0.7311
44.0600 29.3432 0.7399
44.0800 29.3566 0.7083
44.1000 29.3699 0.7313
44.1200 29.3832 0.7392
44.1400 29.3965 0.7120
44.1600 29.4099 0.7220
44.1800 29.4232 0.7360
44.2000 29.4365 0.7057
44.2200 29.4498 0.7242
44.2400 29.4632 0.7347
44.2600 29.4765 0.7034
44.2800 29.4898 0.7205
44.3000 29.5031 0.7307
44.3200 29.5164 0.7007
44.3400 29.5298 0.7173
44.3600 29.5431 0.7241
44.3800 29.5565 0.7033
44.4000 29.5698 0.7158
44.4200 29.5832 0.7170
44.4400 29.5966 0.7022
44.4600 29.6099 0.7119
44.4800 29.6232 0.7129
44.5000 29.6365 0.6967
44.5200 29.6499 0.7137
44.5400 29.6632 0.7066
44.5600 29.6765 0.6980
44.5800 29.6898 0.7105
44.6000 29.7032 0.7042
44.6200 29.7165 0.6922
44.6400 29.7298 0.7062
44.6600 29.7431 0.6992
44.6800 29.7565 0.6929
44.7000 29.7698 0.6993
44.7200 29.7832 0.6966
44.7400 29.7965 0.6940
44.7600 29.8098 0.6990
44.7800 29.8232 0.6899
44.8000 29.8365 0.6916
44.8200 29.8499 0.6943
44.8400 29.8632 0.6914
44.8600 29.8766 0.6915
44.8800 29.8899 0.6913
44.9000 29.9032 0.6853
44.9200 29.9165 0.6892
44.9400 29.9298 0.6865
44.9600 29.9432 0.6793
44.9800 29.9565 0.6938
45.0000 29.9698 0.6843
45.0200 29.9831 0.6796
45.0400 29.9965 0.6906
45.0600 30.0098 0.6800
45.0800 30.0231 0.6718
45.1000 30.0365 0.6939
45.1200 30.0499 0.6774
45.1400 30.0632 0.6711
45.1600 30.0766 0.6897
45.1800 30.0899 0.6716
45.2000 30.1032 0.6648
45.2200 30.1165 0.6919
45.2400 30.1299 0.6678
45.2600 30.1432 0.6671
45.2800 30.1565 0.6866
45.3000 30.1698 0.6678
45.3200 30.1832 0.6657
45.3400 30.1965 0.6881
45.3600 30.2098 0.6630
45.3800 30.2231 0.6662
45.4000 30.2364 0.6868
45.4200 30.2498 0.6561
45.4400 30.2631 0.6628
45.4600 30.2765 0.6822
45.4800 30.2898 0.6527
45.5000 30.3032 0.6652
45.5200 30.3166 0.6771
45.5400 30.3299 0.6504
45.5600 30.3432 0.6612
45.5800 30.3566 0.6765
45.6000 30.3699 0.6434
45.6200 30.3832 0.6605
45.6400 30.3965 0.6753
45.6600 30.4098 0.6441
45.6800 30.4231 0.6614
45.7000 30.4365 0.6686
45.7200 30.4498 0.6450
45.7400 30.4631 0.6567
45.7600 30.4765 0.6713
45.7800 30.4898 0.6384
45.8000 30.5032 0.6532
45.8200 30.5165 0.6722
45.8400 30.5298 0.6406
45.8600 30.5432 0.6516
45.8800 30.5566 0.6661
45.9000 30.5699 0.6343
45.9200 30.5832 0.6572
45.9400 30.5965 0.6621
45.9600 30.6099 0.6359
45.9800 30.6232 0.6495
46.0000 30.6365 0.6591
46.0200 30.6499 0.6319
46.0400 30.6632 0.6506
46.0600 30.6766 0.6551
46.0800 30.6899 0.6297
46.1000 30.7031 0.6514
46.1200 30.7165 0.6506
46.1400 30.7298 0.6324
46.1600 30.7432 0.6463
46.1800 30.7565 0.6466
46.2000 30.7698 0.6309
46.2200 30.7832 0.6407
46.2400 30.7965 0.6440
46.2600 30.8099 0.6296
46.2800 30.8232 0.6364
46.3000 30.8365 0.6457
46.3200 30.8499 0.6263
46.3400 30.8632 0.6348
46.3600 30.8765 0.6418
46.3800 30.8899 0.6232
46.4000 30.9032 0.6344
46.4200 30.9165 0.6441
46.4400 30.9299 0.6187
46.4600 30.9432 0.6297
46.4800 30.9565 0.6420
46.5000 30.9698 0.6186
46.5200 30.9831 0.6274
46.5400 30.9965 0.6417
46.5600 31.0098 0.6189
46.5800 31.0232 0.6238
46.6000 31.0366 0.6368
46.6200 31.0499 0.6164
46.6400 31.0632 0.6212
46.6600 31.0765 0.6352
46.6800 31.0899 0.6074
46.7000 31.1032 0.6224
46.7200 31.1165 0.6348
46.7400 31.1298 0.6062
46.7600 31.1432 0.6226
46.7800 31.1565 0.6313
46.8000 31.1698 0.6049
46.8200 31.1831 0.6257
46.8400 31.1965 0.6293
46.8600 31.2098 0.6042
46.8800 31.2232 0.6206
46.9000 31.2365 0.6230
46.9200 31.2498 0.6056
46.9400 31.2632 0.6205
46.9600 31.2765 0.6212
46.9800 31.2899 0.5992
47.0000 31.3032 0.6259
47.0200 31.3165 0.6179
47.0400 31.3299 0.6039
47.0600 31.3432 0.6215
47.0800 31.3565 0.6121
47.1000 31.3698 0.6001
47.1200 31.3832 0.6241
47.1400 31.3965 0.6099
47.1600 31.4098 0.6024
47.1800 31.4231 0.6176
47.2000 31.4364 0.6120
47.2200 31.4498 0.6046
47.2400 31.4631 0.6171
47.2600 31.4765 0.6088
47.2800 31.4898 0.6071
47.3000 31.5032 0.6176
47.3200 31.5166 0.6068
47.3400 31.5299 0.6035
47.3600 31.5432 0.6158
47.3800 31.5565 0.6076
47.4000 31.5699 0.6064
47.4200 31.5832 0.6146
47.4400 31.5965 0.6017
47.4600 31.6098 0.6063
47.4800 31.6232 0.6103
47.5000 31.6365 0.6025
47.5200 31.6498 0.6058
47.5400 31.6631 0.6115
47.5600 31.6765 0.5947
47.5800 31.6898 0.6086
47.6000 31.7032 0.6019
47.6200 31.7165 0.5982
47.6400 31.7298 0.6054
47.6600 31.7432 0.6007
47.6800 31.7566 0.5925
47.7000 31.7699 0.6040
47.7200 31.7832 0.5963
47.7400 31.7965 0.5912
47.7600 31.8099 0.5986
47.7800 31.8232 0.5890
47.8000 31.8365 0.5840
47.8200 31.8498 0.6004
47.8400 31.8631 0.5888
47.8600 31.8765 0.5831
47.8800 31.8898 0.5953
47.9000 31.9031 0.5823
47.9200 31.9165 0.5801
47.9400 31.9298 0.5912
47.9600 31.9432 0.5773
47.9800 31.9565 0.5785
48.0000 31.9698 0.5924
48.0200 31.9831 0.5726
48.0400 31.9965 0.5785
48.0600 32.0099 0.5880
48.0800 32.0232 0.5708
48.1000 32.0365 0.5729
48.1200 32.0498 0.5882
48.1400 32.0632 0.5663
48.1600 32.0765 0.5729
48.1800 32.0899 0.5809
48.2000 32.1032 0.5674
48.2200 32.1166 0.5700
48.2400 32.1299 0.5818
48.2600 32.1432 0.5649
48.2800 32.1564 0.5708
48.3000 32.1698 0.5761
48.3200 32.1831 0.5653
48.3400 32.1964 0.5693
48.3600 32.2098 0.5734
48.3800 32.2232 0.5578
48.4000 32.2366 0.5678
48.4200 32.2499 0.5687
48.4400 32.2632 0.5528
48.4600 32.2766 0.5658
48.4800 32.2899 0.5662
48.5000 32.3033 0.5537
48.5200 32.3166 0.5641
48.5400 32.3299 0.5663
48.5600 32.3432 0.5547
48.5800 32.3565 0.5602
48.6000 32.3698 0.5621
48.6200 32.3831 0.5566
48.6400 32.3964 0.5544
48.6600 32.4098 0.5616
48.6800 32.4231 0.5523
48.7000 32.4365 0.5545
48.7200 32.4498 0.5587
48.7400 32.4632 0.5490
48.7600 32.4766 0.5545
48.7800 32.4899 0.5623
48.8000 32.5033 0.5450
48.8200 32.5166 0.5525
48.8400 32.5299 0.5588
48.8600 32.5433 0.5435
48.8800 32.5565 0.5497
48.9000 32.5698 0.5580
48.9200 32.5831 0.5428
48.9400 32.5965 0.5445
48.9600 32.6099 0.5530
48.9800 32.6232 0.5436
49.0000 32.6365 0.5436
49.0200 32.6498 0.5506
49.0400 32.6632 0.5473
49.0600 32.6765 0.5375
49.0800 32.6898 0.5451
49.1000 32.7032 0.5429
49.1200 32.7165 0.5345
49.1400 32.7299 0.5459
49.1600 32.7432 0.5393
49.1800 32.7565 0.5285
49.2000 32.7699 0.5501
49.2200 32.7832 0.5328
49.2400 32.7966 0.5273
49.2600 32.8099 0.5514
49.2800 32.8232 0.5349
49.3000 32.8365 0.5183
49.3200 32.8499 0.5472
49.3400 32.8631 0.5298
49.3600 32.8764 0.5233
49.3800 32.8898 0.5426
49.4000 32.9031 0.5254
49.4200 32.9165 0.5237
49.4400 32.9298 0.5409
49.4600 32.9432 0.5185
49.4800 32.9566 0.5280
49.5000 32.9699 0.5369
49.5200 32.9832 0.5161
49.5400 32.9965 0.5262
49.5600 33.0099 0.5323
49.5800 33.0232 0.5162
49.6000 33.0365 0.5289
49.6200 33.0498 0.5308
49.6400 33.0631 0.5178
49.6600 33.0765 0.5271
49.6800 33.0898 0.5269
49.7000 33.1031 0.5180
49.7200 33.1164 0.5220
49.7400 33.1298 0.5318
49.7600 33.1431 0.5157
49.7800 33.1565 0.5165
49.8000 33.1698 0.5281
49.8200 33.1832 0.5213
49.8400 33.1965 0.5111
49.8600 33.2099 0.5314
49.8800 33.2232 0.5168
49.9000 33.2365 0.5090
49.9200 33.2499 0.5284
49.9400 33.2633 0.5162
49.9600 33.2766 0.5051
49.9800 33.2899 0.5309
50.0000 33.3032 0.5116
50.0200 33.3165 0.5035
50.0400 33.3298 0.5290
50.0600 33.3432 0.5100
50.0800 33.3565 0.5011
50.1000 33.3698 0.5239
50.1200 33.3831 0.5026
50.1400 33.3965 0.5030
50.1600 33.4098 0.5218
50.1800 33.4232 0.5022
50.2000 33.4365 0.5013
50.2200 33.4499 0.5163
50.2400 33.4632 0.4956
50.2600 33.4765 0.4968
50.2800 33.4899 0.5206
50.3000 33.5032 0.4916
50.3200 33.5166 0.4940
50.3400 33.5299 0.5134
50.3600 33.5432 0.4927
50.3800 33.5565 0.4907
50.4000 33.5699 0.5055
50.4200 33.5832 0.4889
50.4400 33.5965 0.4985
50.4600 33.6098 0.4966
50.4800 33.6231 0.4856
50.5000 33.6365 0.4935
50.5200 33.6498 0.4963
50.5400 33.6631 0.4835
50.5600 33.6765 0.4914
50.5800 33.6899 0.4888
50.6000 33.7032 0.4807
50.6200 33.7166 0.4907
50.6400 33.7299 0.4886
50.6600 33.7432 0.4778
50.6800 33.7566 0.4878
50.7000 33.7698 0.4842
50.7200 33.7831 0.4812
50.7400 33.7965 0.4819
50.7600 33.8098 0.4786
50.7800 33.8231 0.4764
50.8000 33.8365 0.4779
50.8200 33.8498 0.4827
50.8400 33.8632 0.4745
50.8600 33.8765 0.4775
50.8800 33.8899 0.4726
50.9000 33.9032 0.4755
50.9200 33.9166 0.4777
50.9400 33.9299 0.4711
50.9600 33.9432 0.4711
50.9800 33.9565 0.4740
51.0000 33.9698 0.4645
51.0200 33.9832 0.4706
51.0400 33.9965 0.4708
51.0600 34.0098 0.4669
51.0800 34.0232 0.4670
51.1000 34.0365 0.4716
51.1200 34.0498 0.4632
51.1400 34.0631 0.4679
51.1600 34.0765 0.4669
51.1800 34.0898 0.4651
51.2000 34.1031 0.4674
51.2200 34.1165 0.4648
51.2400 34.1298 0.4600
51.2600 34.1432 0.4663
51.2800 34.1566 0.4641
51.3000 34.1699 0.4593
51.3200 34.1832 0.4611
51.3400 34.1965 0.4622
51.3600 34.2099 0.4614
51.3800 34.2232 0.4531
51.4000 34.2366 0.4599
51.4200 34.2499 0.4591
51.4400 34.2632 0.4554
51.4600 34.2765 0.4562
51.4800 34.2899 0.4557
51.5000 34.3032 0.4511
51.5200 34.3164 0.4530
51.5400 34.3298 0.4503
51.5600 34.3431 0.4451
51.5800 34.3565 0.4493
51.6000 34.3698 0.4509
51.6200 34.3832 0.4439
51.6400 34.3965 0.4507
51.6600 34.4099 0.4457
51.6800 34.4232 0.4412
51.7000 34.4366 0.4473
51.7200 34.4499 0.4491
51.7400 34.4632 0.4358
51.7600 34.4766 0.4465
51.7800 34.4898 0.4423
51.8000 34.5031 0.4367
51.8200 34.5165 0.4459
51.8400 34.5298 0.4362
51.8600 34.5432 0.4291
51.8800 34.5565 0.4418
51.9000 34.5698 0.4343
51.9200 34.5832 0.4313
51.9400 34.5965 0.4380
51.9600 34.6098 0.4296
51.9800 34.6231 0.4261
52.0000 34.6365 0.4348
52.0200 34.6498 0.4264
52.0400 34.6632 0.4252
52.0600 34.6765 0.4329
52.0800 34.6898 0.4251
52.1000 34.7032 0.4212
52.1200 34.7166 0.4240
52.1400 34.7299 0.4196
52.1600 34.7432 0.4175
52.1800 34.7565 0.4234
52.2000 34.7698 0.4137
52.2200 34.7832 0.4206
52.2400 34.7965 0.4173
52.2600 34.8098 0.4110
52.2800 34.8231 0.4172
52.3000 34.8365 0.4196
52.3200 34.8498 0.4103
52.3400 34.8632 0.4129
52.3600 34.8765 0.4166
52.3800 34.8899 0.4097
52.4000 34.9032 0.4079
52.4200 34.9165 0.4175
52.4400 34.9299 0.4084
52.4600 34.9432 0.4079
52.4800 34.9566 0.4156
52.5000 34.9699 0.4021
52.5200 34.9832 0.4071
52.5400 34.9965 0.4198
52.5600 35.0098 0.4011
52.5800 35.0232 0.4019
52.6000 35.0365 0.4202
52.6200 35.0498 0.3998
52.6400 35.0631 0.4083
52.6600 35.0765 0.4198
52.6800 35.0898 0.3993
52.7000 35.1031 0.4046
52.7200 35.1165 0.4212
52.7400 35.1299 0.3930
52.7600 35.1432 0.4054
52.7800 35.1565 0.4193
52.8000 35.1699 0.3950
52.8200 35.1832 0.4025
52.8400 35.1966 0.4117
52.8600 35.2099 0.3956
52.8800 35.2231 0.4040
52.9000 35.2365 0.4060
52.9200 35.2498 0.3951
52.9400 35.2631 0.4027
52.9600 35.2765 0.4055
52.9800 35.2898 0.3932
53.0000 35.3032 0.4013
53.0200 35.3165 0.3969
53.0400 35.3299 0.3908
53.0600 35.3432 0.3984
53.0800 35.3565 0.3927
53.1000 35.3699 0.3897
53.1200 35.3832 0.3973
53.1400 35.3966 0.3910
53.1600 35.4099 0.3861
53.1800 35.4232 0.3966
53.2000 35.4365 0.3871
53.2200 35.4499 0.3851
53.2400 35.4632 0.3910
53.2600 35.4765 0.3873
53.2800 35.4899 0.3856
53.3000 35.5032 0.3858
53.3200 35.5165 0.3815
53.3400 35.5298 0.3909
53.3600 35.5431 0.3773
53.3800 35.5565 0.3838
53.4000 35.5698 0.3832
53.4200 35.5831 0.3800
53.4400 35.5965 0.3819
53.4600 35.6098 0.3764
53.4800 35.6232 0.3722
53.5000 35.6365 0.3773
53.5200 35.6499 0.3726
53.5400 35.6632 0.3715
53.5600 35.6766 0.3692
53.5800 35.6899 0.3681
53.6000 35.7032 0.3701
53.6200 35.7165 0.3728
53.6400 35.7299 0.3660
53.6600 35.7432 0.3659
53.6800 35.7565 0.3657
53.7000 35.7698 0.3640
53.7200 35.7831 0.3703
53.7400 35.7965 0.3579
53.7600 35.8098 0.3576
53.7800 35.8231 0.3652
53.8000 35.8365 0.3562
53.8200 35.8499 0.3545
53.8400 35.8632 0.3609
53.8600 35.8765 0.3523
53.8800 35.8899 0.3568
53.9000 35.9032 0.3582
53.9200 35.9166 0.3511
53.9400 35.9299 0.3546
53.9600 35.9432 0.3608
53.9800 35.9565 0.3450
54.0000 35.9698 0.3551
54.0200 35.9832 0.3523
54.0400 35.9965 0.3454
54.0600 36.0098 0.3514
54.0800 36.0231 0.3507
54.1000 36.0365 0.3449
54.1200 36.0499 0.3449
54.1400 36.0632 0.3441
54.1600 36.0765 0.3491
54.1800 36.0899 0.3498
54.2000 36.1032 0.3401
54.2200 36.1165 0.3371
54.2400 36.1299 0.3523
54.2600 36.1432 0.3407
54.2800 36.1566 0.3356
54.3000 36.1699 0.3495
54.3200 36.1832 0.3352
54.3400 36.1965 0.3415
54.3600 36.2098 0.3426
54.3800 36.2232 0.3339
54.4000 36.2365 0.3384
54.4200 36.2498 0.3396
54.4400 36.2631 0.3302
54.4600 36.2765 0.3329
54.4800 36.2898 0.3369
54.5000 36.3032 0.3280
54.5200 36.3165 0.3266
54.5400 36.3299 0.3357
54.5600 36.3433 0.3224
54.5800 36.3566 0.3279
54.6000 36.3699 0.3266
54.6200 36.3832 0.3205
54.6400 36.3966 0.3147
54.6600 36.4099 0.3219
54.6800 36.4232 0.3125
54.7000 36.4365 0.3074
54.7200 36.4498 0.3253
54.7400 36.4632 0.3066
54.7600 36.4765 0.3026
54.7800 36.4898 0.3207
54.8000 36.5031 0.3053
54.8200 36.5165 0.2999
54.8400 36.5298 0.3141
54.8600 36.5431 0.2992
54.8800 36.5565 0.2990
54.9000 36.5699 0.3091
54.9200 36.5832 0.2959
54.9400 36.5965 0.2973
54.9600 36.6099 0.3082
54.9800 36.6232 0.2904
55.0000 36.6366 0.3003
55.0200 36.6499 0.3012
55.0400 36.6632 0.2935
55.0600 36.6765 0.2992
55.0800 36.6898 0.2967
55.1000 36.7031 0.2865
55.1200 36.7164 0.3031
55.1400 36.7298 0.2955
55.1600 36.7431 0.2843
55.1800 36.7565 0.2993
55.2000 36.7698 0.2943
55.2200 36.7831 0.2815
55.2400 36.7965 0.3003
55.2600 36.8099 0.2874
55.2800 36.8232 0.2833
55.3000 36.8365 0.2964
55.3200 36.8498 0.2838
55.3400 36.8632 0.2833
55.3600 36.8765 0.2940
55.3800 36.8899 0.2787
55.4000 36.9032 0.2818
55.4200 36.9165 0.2880
55.4400 36.9299 0.2795
55.4600 36.9432 0.2780
55.4800 36.9565 0.2842
55.5000 36.9698 0.2810
55.5200 36.9831 0.2778
55.5400 36.9964 0.2847
55.5600 37.0098 0.2756
55.5800 37.0231 0.2784
55.6000 37.0365 0.2763
55.6200 37.0499 0.2782
55.6400 37.0633 0.2769
55.6600 37.0766 0.2737
55.6800 37.0899 0.2750
55.7000 37.1032 0.2792
55.7200 37.1166 0.2689
55.7400 37.1299 0.2773
55.7600 37.1432 0.2785
55.7800 37.1565 0.2615
55.8000 37.1698 0.2772
55.8200 37.1832 0.2742
55.8400 37.1965 0.2573
55.8600 37.2098 0.2776
55.8800 37.2231 0.2710
55.9000 37.2365 0.2558
55.9200 37.2498 0.2749
55.9400 37.2631 0.2678
55.9600 37.2765 0.2519
55.9800 37.2899 0.2701
56.0000 37.3032 0.2664
56.0200 37.3166 0.2484
56.0400 37.3299 0.2695
56.0600 37.3432 0.2601
56.0800 37.3566 0.2497
56.1000 37.3699 0.2677
56.1200 37.3832 0.2579
56.1400 37.3965 0.2448
56.1600 37.4098 0.2659
56.1800 37.4232 0.2480
56.2000 37.4365 0.2451
56.2200 37.4498 0.2604
56.2400 37.4631 0.2510
56.2600 37.4765 0.2428
56.2800 37.4898 0.2572
56.3000 37.5032 0.2477
56.3200 37.5165 0.2397
56.3400 37.5298 0.2535
56.3600 37.5432 0.2486
56.3800 37.5566 0.2337
56.4000 37.5699 0.2491
56.4200 37.5832 0.2481
56.4400 37.5965 0.2292
56.4600 37.6099 0.2422
56.4800 37.6232 0.2413
56.5000 37.6365 0.2288
56.5200 37.6499 0.2436
56.5400 37.6632 0.2370
56.5600 37.6765 0.2219
56.5800 37.6898 0.2425
56.6000 37.7031 0.2385
56.6200 37.7165 0.2197
56.6400 37.7298 0.2411
56.6600 37.7432 0.2296
56.6800 37.7565 0.2165
56.7000 37.7699 0.2452
56.7200 37.7832 0.2187
56.7400 37.7966 0.2193
56.7600 37.8099 0.2379
56.7800 37.8232 0.2188
56.8000 37.8366 0.2170
56.8200 37.8499 0.2389
56.8400 37.8632 0.2062
56.8600 37.8765 0.2203
56.8800 37.8898 0.2336
56.9000 37.9032 0.2056
56.9200 37.9165 0.2153
56.9400 37.9298 0.2313
56.9600 37.9431 0.2036
56.9800 37.9565 0.2143
57.0000 37.9698 0.2226
57.0200 37.9832 0.2025
57.0400 37.9965 0.2113
57.0600 38.0099 0.2226
57.0800 38.0232 0.1935
57.1000 38.0366 0.2096
57.1200 38.0499 0.2168
57.1400 38.0632 0.1911
57.1600 38.0766 0.2108
57.1800 38.0899 0.2060
57.2000 38.1032 0.1910
57.2200 38.1165 0.2035
57.2400 38.1298 0.2030
57.2600 38.1431 0.1885
57.2800 38.1565 0.2051
57.3000 38.1698 0.1932
57.3200 38.1831 0.1825
57.3400 38.1965 0.2046
57.3600 38.2098 0.1867
57.3800 38.2231 0.1782
57.4000 38.2365 0.2051
57.4200 38.2498 0.1797
57.4400 38.2632 0.1719
57.4600 38.2766 0.1970
57.4800 38.2899 0.1857
57.5000 38.3032 0.1662
57.5200 38.3165 0.1898
57.5400 38.3299 0.1802
57.5600 38.3432 0.1699
57.5800 38.3565 0.1851
57.6000 38.3698 0.1843
57.6200 38.3832 0.1657
57.6400 38.3965 0.1675
57.6600 38.4098 0.1885
57.6800 38.4231 0.1665
57.7000 38.4364 0.1566
57.7200 38.4498 0.1815
57.7400 38.4631 0.1806
57.7600 38.4765 0.1503
57.7800 38.4898 0.1690
57.8000 38.5032 0.1775
57.8200 38.5166 0.1600
57.8400 38.5299 0.1583
57.8600 38.5432 0.1803
57.8800 38.5566 0.1509
57.9000 38.5699 0.1503
57.9200 38.5832 0.1820
57.9400 38.5965 0.1568
57.9600 38.6098 0.1382
57.9800 38.6231 0.1739
58.0000 38.6365 0.1601
58.0200 38.6498 0.1382
58.0400 38.6631 0.1660
58.0600 38.6765 0.1543
58.0800 38.6898 0.1359
58.1000 38.7032 0.1651
58.1200 38.7165 0.1419
58.1400 38.7299 0.1344
58.1600 38.7432 0.1621
58.1800 38.7566 0.1261
58.2000 38.7699 0.1364
58.2200 38.7832 0.1595
58.2400 38.7965 0.1189
58.2600 38.8099 0.1287
58.2800 38.8232 0.1509
58.3000 38.8365 0.1147
58.3200 38.8498 0.1305
58.3400 38.8632 0.1425
58.3600 38.8765 0.1056
58.3800 38.8898 0.1287
58.4000 38.9031 0.1278
58.4200 38.9165 0.1061
58.4400 38.9298 0.1331
58.4600 38.9432 0.1099
58.4800 38.9565 0.1067
58.5000 38.9699 0.1288
58.5200 38.9832 0.1036
58.5400 38.9966 0.1011
58.5600 39.0099 0.1252
58.5800 39.0232 0.0924
58.6000 39.0365 0.1065
58.6200 39.0499 0.1178
58.6400 39.0632 0.0889
58.6600 39.0765 0.1044
58.6800 39.0898 0.1103
58.7000 39.1032 0.0906
58.7200 39.1165 0.1073
58.7400 39.1298 0.0953
58.7600 39.1431 0.0883
58.7800 39.1564 0.1054
58.8000 39.1698 0.0909
58.8200 39.1831 0.0836
58.8400 39.1965 0.0989
58.8600 39.2098 0.0821
58.8800 39.2232 0.0849
58.9000 39.2366 0.0985
58.9200 39.2499 0.0719
58.9400 39.2632 0.0875
58.9600 39.2765 0.0897
58.9800 39.2899 0.0692
59.0000 39.3032 0.0860
59.0200 39.3165 0.0866
59.0400 39.3298 0.0692
59.0600 39.3432 0.0817
59.0800 39.3565 0.0718
59.1000 39.3698 0.0658
59.1200 39.3831 0.0805
59.1400 39.3965 0.0676
59.1600 39.4098 0.0618
59.1800 39.4232 0.0790
59.2000 39.4365 0.0584
59.2200 39.4498 0.0615
59.2400 39.4632 0.0734
59.2600 39.4765 0.0537
59.2800 39.4899 0.0548
59.3000 39.5032 0.0682
59.3200 39.5165 0.0554
59.3400 39.5299 0.0580
59.3600 39.5432 0.0599
59.3800 39.5565 0.0493
59.4000 39.5698 0.0565
59.4200 39.5832 0.0606
59.4400 39.5965 0.0541
59.4600 39.6098 0.0479
59.4800 39.6231 0.0642
59.5000 39.6365 0.0542
59.5200 39.6498 0.0438
59.5400 39.6632 0.0595
59.5600 39.6765 0.0531
59.5800 39.6898 0.0391
59.6000 39.7032 0.0611
59.6200 39.7166 0.0500
59.6400 39.7299 0.0391
59.6600 39.7432 0.0598
59.6800 39.7565 0.0474
59.7000 39.7699 0.0329
59.7200 39.7832 0.0621
59.7400 39.7965 0.0426
59.7600 39.8098 0.0282
59.7800 39.8232 0.0539
59.8000 39.8365 0.0410
59.8200 39.8498 0.0260
59.8400 39.8631 0.0458
59.8600 39.8764 0.0348
59.8800 39.8898 0.0227
59.9000 39.9031 0.0398
59.9200 39.9165 0.0278
59.9400 39.9298 0.0188
59.9600 39.9432 0.0276
59.9800 39.9566 0.0166
60.0000 39.9699 0.0137
60.0200 39.9832 0.0218
60.0400 39.9965 0.0013
60.0460 40.0004 -0.0153
