Raw Data
Time Displacement Force
(s) (mm) (N)
0.0000 0.0000 0.3979
0.0200 0.0001 0.4328
0.0400 0.0022 0.4982
0.0600 0.0101 0.4778
0.0800 0.0220 0.4220
0.1000 0.0345 0.4197
0.1200 0.0472 0.4366
0.1400 0.0606 0.4291
0.1600 0.0747 0.4200
0.1800 0.0888 0.4132
0.2000 0.1027 0.4214
0.2200 0.1163 0.4192
0.2400 0.1297 0.4149
0.2600 0.1429 0.4256
0.2800 0.1563 0.4241
0.3000 0.1697 0.4179
0.3200 0.1831 0.4237
0.3400 0.1964 0.4282
0.3600 0.2097 0.4133
0.3800 0.2231 0.4241
0.4000 0.2364 0.4194
0.4200 0.2497 0.4187
0.4400 0.2630 0.4235
0.4600 0.2763 0.4183
0.4800 0.2897 0.4143
0.5000 0.3030 0.4244
0.5200 0.3164 0.4161
0.5400 0.3297 0.4155
0.5600 0.3430 0.4226
0.5800 0.3564 0.4189
0.6000 0.3697 0.4101
0.6200 0.3831 0.4194
0.6400 0.3964 0.4125
0.6600 0.4098 0.4114
0.6800 0.4231 0.4122
0.7000 0.4364 0.4127
0.7200 0.4498 0.4133
0.7400 0.4631 0.4138
0.7600 0.4765 0.4133
0.7800 0.4898 0.4103
0.8000 0.5031 0.4110
0.8200 0.5164 0.4116
0.8400 0.5297 0.4087
0.8600 0.5431 0.4073
0.8800 0.5563 0.4092
0.9000 0.5696 0.4075
0.9200 0.5830 0.4087
0.9400 0.5963 0.4094
0.9600 0.6097 0.4058
0.9800 0.6230 0.3976
1.0000 0.6364 0.4092
1.0200 0.6497 0.4031
1.0400 0.6631 0.4006
1.0600 0.6765 0.4049
1.0800 0.6898 0.4010
1.1000 0.7031 0.3967
1.1200 0.7164 0.4000
1.1400 0.7297 0.3916
1.1600 0.7431 0.4008
1.1800 0.7564 0.4014
1.2000 0.7697 0.3894
1.2200 0.7831 0.3946
1.2400 0.7964 0.4000
1.2600 0.8097 0.3904
1.2800 0.8230 0.3926
1.3000 0.8364 0.3989
1.3200 0.8497 0.3906
1.3400 0.8630 0.3882
1.3600 0.8764 0.3925
1.3800 0.8897 0.3916
1.4000 0.9031 0.3877
1.4200 0.9164 0.3933
1.4400 0.9297 0.3838
1.4600 0.9431 0.3859
1.4800 0.9565 0.3953
1.5000 0.9698 0.3862
1.5200 0.9831 0.3817
1.5400 0.9964 0.3932
1.5600 1.0097 0.3853
1.5800 1.0230 0.3837
1.6000 1.0364 0.3936
1.6200 1.0497 0.3824
1.6400 1.0630 0.3826
1.6600 1.0764 0.3925
1.6800 1.0897 0.3766
1.7000 1.1030 0.3833
1.7200 1.1164 0.3917
1.7400 1.1298 0.3759
1.7600 1.1431 0.3795
1.7800 1.1565 0.3906
1.8000 1.1698 0.3710
1.8200 1.1831 0.3776
1.8400 1.1964 0.3853
1.8600 1.2098 0.3688
1.8800 1.2231 0.3786
1.9000 1.2364 0.3831
1.9200 1.2497 0.3729
1.9400 1.2631 0.3762
1.9600 1.2764 0.3783
1.9800 1.2897 0.3722
2.0000 1.3030 0.3763
2.0200 1.3163 0.3753
2.0400 1.3297 0.3711
2.0600 1.3430 0.3728
2.0800 1.3564 0.3739
2.1000 1.3698 0.3700
2.1200 1.3831 0.3720
2.1400 1.3965 0.3682
2.1600 1.4098 0.3720
2.1800 1.4231 0.3662
2.2000 1.4364 0.3702
2.2200 1.4498 0.3706
2.2400 1.4631 0.3693
2.2600 1.4764 0.3644
2.2800 1.4897 0.3725
2.3000 1.5030 0.3637
2.3200 1.5164 0.3668
2.3400 1.5297 0.3701
2.3600 1.5430 0.3624
2.3800 1.5564 0.3666
2.4000 1.5698 0.3703
2.4200 1.5831 0.3570
2.4400 1.5964 0.3644
2.4600 1.6097 0.3684
2.4800 1.6231 0.3553
2.5000 1.6364 0.3611
2.5200 1.6497 0.3675
2.5400 1.6630 0.3541
2.5600 1.6764 0.3604
2.5800 1.6898 0.3666
2.6000 1.7031 0.3506
2.6200 1.7164 0.3638
2.6400 1.7298 0.3669
2.6600 1.7431 0.3459
2.6800 1.7564 0.3644
2.7000 1.7697 0.3656
2.7200 1.7830 0.3447
2.7400 1.7964 0.3642
2.7600 1.8097 0.3566
2.7800 1.8230 0.3450
2.8000 1.8363 0.3601
2.8200 1.8497 0.3591
2.8400 1.8631 0.3404
2.8600 1.8764 0.3644
2.8800 1.8897 0.3524
2.9000 1.9031 0.3443
2.9200 1.9164 0.3587
2.9400 1.9298 0.3468
2.9600 1.9431 0.3439
2.9800 1.9564 0.3539
3.0000 1.9697 0.3450
3.0200 1.9831 0.3434
3.0400 1.9964 0.3502
3.0600 2.0097 0.3425
3.0800 2.0230 0.3442
3.1000 2.0363 0.3518
3.1200 2.0497 0.3386
3.1400 2.0630 0.3455
3.1600 2.0764 0.3475
3.1800 2.0897 0.3378
3.2000 2.1031 0.3453
3.2200 2.1165 0.3448
3.2400 2.1298 0.3432
3.2600 2.1431 0.3395
3.2800 2.1565 0.3417
3.3000 2.1698 0.3407
3.3200 2.1831 0.3379
3.3400 2.1964 0.3450
3.3600 2.2097 0.3452
3.3800 2.2231 0.3323
3.4000 2.2364 0.3401
3.4200 2.2497 0.3431
3.4400 2.2630 0.3350
3.4600 2.2764 0.3352
3.4800 2.2897 0.3415
3.5000 2.3031 0.3286
3.5200 2.3164 0.3374
3.5400 2.3297 0.3406
3.5600 2.3431 0.3282
3.5800 2.3564 0.3368
3.6000 2.3698 0.3353
3.6200 2.3831 0.3263
3.6400 2.3965 0.3356
3.6600 2.4098 0.3318
3.6800 2.4231 0.3275
3.7000 2.4364 0.3364
3.7200 2.4497 0.3314
3.7400 2.4631 0.3288
3.7600 2.4764 0.3322
3.7800 2.4897 0.3275
3.8000 2.5030 0.3246
3.8200 2.5163 0.3332
3.8400 2.5297 0.3205
3.8600 2.5430 0.3253
3.8800 2.5564 0.3271
3.9000 2.5697 0.3232
3.9200 2.5831 0.3243
3.9400 2.5965 0.3251
3.9600 2.6098 0.3178
3.9800 2.6231 0.3269
4.0000 2.6364 0.3210
4.0200 2.6498 0.3180
4.0400 2.6631 0.3238
4.0600 2.6764 0.3219
4.0800 2.6897 0.3158
4.1000 2.7031 0.3210
4.1200 2.7164 0.3178
4.1400 2.7297 0.3198
4.1600 2.7430 0.3160
4.1800 2.7563 0.3171
4.2000 2.7697 0.3188
4.2200 2.7830 0.3114
4.2400 2.7963 0.3154
4.2600 2.8097 0.3166
4.2800 2.8231 0.3147
4.3000 2.8364 0.3090
4.3200 2.8498 0.3154
4.3400 2.8631 0.3098
4.3600 2.8764 0.3102
4.3800 2.8898 0.3150
4.4000 2.9031 0.3039
4.4200 2.9164 0.3087
4.4400 2.9297 0.3195
4.4600 2.9430 0.3008
4.4800 2.9564 0.3093
4.5000 2.9697 0.3140
4.5200 2.9830 0.3092
4.5400 2.9964 0.3073
4.5600 3.0097 0.3101
4.5800 3.0230 0.2995
4.6000 3.0364 0.3118
4.6200 3.0497 0.3055
4.6400 3.0631 0.3033
4.6600 3.0764 0.3076
4.6800 3.0897 0.3049
4.7000 3.1030 0.3096
4.7200 3.1164 0.3054
4.7400 3.1298 0.2978
4.7600 3.1431 0.3058
4.7800 3.1564 0.3060
4.8000 3.1698 0.2937
4.8200 3.1831 0.3086
4.8400 3.1965 0.3071
4.8600 3.2097 0.2931
4.8800 3.2230 0.3056
4.9000 3.2363 0.3038
4.9200 3.2497 0.2919
4.9400 3.2630 0.3094
4.9600 3.2763 0.2934
4.9800 3.2897 0.2925
5.0000 3.3031 0.3115
5.0200 3.3165 0.2892
5.0400 3.3298 0.2922
5.0600 3.3431 0.3115
5.0800 3.3565 0.2837
5.1000 3.3698 0.2961
5.1200 3.3831 0.3038
5.1400 3.3964 0.2829
5.1600 3.4097 0.2965
5.1800 3.4230 0.3041
5.2000 3.4364 0.2792
5.2200 3.4497 0.3011
5.2400 3.4630 0.2994
5.2600 3.4763 0.2773
5.2800 3.4897 0.3009
5.3000 3.5030 0.2961
5.3200 3.5163 0.2770
5.3400 3.5297 0.2983
5.3600 3.5431 0.2913
5.3800 3.5565 0.2797
5.4000 3.5698 0.3005
5.4200 3.5831 0.2830
5.4400 3.5965 0.2791
5.4600 3.6098 0.2963
5.4800 3.6231 0.2810
5.5000 3.6364 0.2805
5.5200 3.6497 0.2979
5.5400 3.6630 0.2764
5.5600 3.6764 0.2808
5.5800 3.6897 0.2895
5.6000 3.7030 0.2781
5.6200 3.7163 0.2815
5.6400 3.7297 0.2868
5.6600 3.7430 0.2700
5.6800 3.7564 0.2851
5.7000 3.7697 0.2828
5.7200 3.7831 0.2747
5.7400 3.7964 0.2806
5.7600 3.8098 0.2774
5.7800 3.8231 0.2738
5.8000 3.8364 0.2816
5.8200 3.8498 0.2729
5.8400 3.8631 0.2756
5.8600 3.8764 0.2765
5.8800 3.8898 0.2658
5.9000 3.9031 0.2770
5.9200 3.9164 0.2751
5.9400 3.9297 0.2604
5.9600 3.9430 0.2779
5.9800 3.9563 0.2692
6.0000 3.9697 0.2616
6.0200 3.9831 0.2803
6.0400 3.9964 0.2617
6.0600 4.0097 0.2616
6.0800 4.0231 0.2772
6.1000 4.0365 0.2607
6.1200 4.0498 0.2599
6.1400 4.0631 0.2803
6.1600 4.0764 0.2561
6.1800 4.0898 0.2598
6.2000 4.1031 0.2801
6.2200 4.1164 0.2578
6.2400 4.1297 0.2645
6.2600 4.1430 0.2756
6.2800 4.1564 0.2542
6.3000 4.1697 0.2681
6.3200 4.1830 0.2677
6.3400 4.1963 0.2616
6.3600 4.2097 0.2646
6.3800 4.2230 0.2709
6.4000 4.2363 0.2624
6.4200 4.2497 0.2647
6.4400 4.2631 0.2694
6.4600 4.2765 0.2638
6.4800 4.2898 0.2625
6.5000 4.3031 0.2714
6.5200 4.3164 0.2619
6.5400 4.3298 0.2590
6.5600 4.3431 0.2681
6.5800 4.3564 0.2656
6.6000 4.3697 0.2607
6.6200 4.3831 0.2692
6.6400 4.3964 0.2629
6.6600 4.4097 0.2556
6.6800 4.4230 0.2683
6.7000 4.4363 0.2594
6.7200 4.4497 0.2574
6.7400 4.4630 0.2640
6.7600 4.4764 0.2553
6.7800 4.4897 0.2571
6.8000 4.5031 0.2682
6.8200 4.5164 0.2475
6.8400 4.5298 0.2538
6.8600 4.5431 0.2651
6.8800 4.5564 0.2494
6.9000 4.5697 0.2539
6.9200 4.5831 0.2640
6.9400 4.5964 0.2424
6.9600 4.6097 0.2545
6.9800 4.6231 0.2630
7.0000 4.6364 0.2412
7.0200 4.6497 0.2536
7.0400 4.6630 0.2593
7.0600 4.6763 0.2403
7.0800 4.6896 0.2555
7.1000 4.7030 0.2531
7.1200 4.7163 0.2383
7.1400 4.7297 0.2518
7.1600 4.7431 0.2468
7.1800 4.7565 0.2369
7.2000 4.7698 0.2542
7.2200 4.7832 0.2431
7.2400 4.7965 0.2403
7.2600 4.8098 0.2511
7.2800 4.8232 0.2395
7.3000 4.8364 0.2415
7.3200 4.8497 0.2547
7.3400 4.8630 0.2406
7.3600 4.8763 0.2388
7.3800 4.8897 0.2518
7.4000 4.9030 0.2334
7.4200 4.9164 0.2467
7.4400 4.9297 0.2434
7.4600 4.9431 0.2339
7.4800 4.9564 0.2436
7.5000 4.9697 0.2417
7.5200 4.9831 0.2356
7.5400 4.9965 0.2420
7.5600 5.0098 0.2382
7.5800 5.0231 0.2361
7.6000 5.0364 0.2398
7.6200 5.0498 0.2364
7.6400 5.0631 0.2378
7.6600 5.0764 0.2391
7.6800 5.0897 0.2342
7.7000 5.1030 0.2421
7.7200 5.1164 0.2366
7.7400 5.1297 0.2304
7.7600 5.1430 0.2414
7.7800 5.1563 0.2313
7.8000 5.1697 0.2352
7.8200 5.1830 0.2361
7.8400 5.1964 0.2305
7.8600 5.2097 0.2300
7.8800 5.2231 0.2374
7.9000 5.2364 0.2248
7.9200 5.2498 0.2287
7.9400 5.2631 0.2347
7.9600 5.2764 0.2272
7.9800 5.2898 0.2273
8.0000 5.3031 0.2298
8.0200 5.3164 0.2207
8.0400 5.3297 0.2265
8.0600 5.3430 0.2326
8.0800 5.3564 0.2212
8.1000 5.3697 0.2176
8.1200 5.3830 0.2290
8.1400 5.3963 0.2204
8.1600 5.4097 0.2225
8.1800 5.4230 0.2266
8.2000 5.4364 0.2124
8.2200 5.4497 0.2190
8.2400 5.4630 0.2280
8.2600 5.4764 0.2082
8.2800 5.4898 0.2207
8.3000 5.5031 0.2249
8.3200 5.5164 0.2095
8.3400 5.5298 0.2157
8.3600 5.5431 0.2194
8.3800 5.5564 0.2103
8.4000 5.5697 0.2138
8.4200 5.5830 0.2159
8.4400 5.5964 0.2074
8.4600 5.6097 0.2136
8.4800 5.6230 0.2081
8.5000 5.6364 0.2129
8.5200 5.6497 0.2159
8.5400 5.6631 0.2126
8.5600 5.6764 0.2032
8.5800 5.6897 0.2137
8.6000 5.7030 0.2120
8.6200 5.7164 0.2075
8.6400 5.7298 0.2092
8.6600 5.7431 0.2106
8.6800 5.7564 0.2103
8.7000 5.7698 0.2093
8.7200 5.7831 0.2092
8.7400 5.7965 0.2127
8.7600 5.8098 0.2085
8.7800 5.8231 0.2103
8.8000 5.8364 0.2112
8.8200 5.8497 0.2097
8.8400 5.8630 0.2082
8.8600 5.8763 0.2109
8.8800 5.8897 0.2133
8.9000 5.9030 0.2068
8.9200 5.9164 0.2092
8.9400 5.9297 0.2088
8.9600 5.9431 0.2129
8.9800 5.9565 0.2088
9.0000 5.9698 0.2079
9.0200 5.9831 0.2100
9.0400 5.9964 0.2078
9.0600 6.0098 0.2079
9.0800 6.0231 0.2109
9.1000 6.0364 0.2036
9.1200 6.0497 0.2064
9.1400 6.0630 0.2089
9.1600 6.0764 0.2103
9.1800 6.0897 0.1994
9.2000 6.1030 0.2103
9.2200 6.1163 0.2058
9.2400 6.1297 0.2047
9.2600 6.1430 0.2064
9.2800 6.1564 0.2011
9.3000 6.1697 0.2007
9.3200 6.1830 0.2038
9.3400 6.1964 0.1992
9.3600 6.2098 0.1971
9.3800 6.2231 0.2018
9.4000 6.2364 0.1938
9.4200 6.2498 0.1957
9.4400 6.2631 0.1979
9.4600 6.2764 0.1964
9.4800 6.2897 0.1898
9.5000 6.3030 0.1993
9.5200 6.3163 0.1945
9.5400 6.3297 0.1935
9.5600 6.3430 0.1968
9.5800 6.3563 0.1927
9.6000 6.3697 0.1925
9.6200 6.3831 0.1963
9.6400 6.3964 0.1909
9.6600 6.4097 0.1931
9.6800 6.4231 0.1918
9.7000 6.4364 0.1886
9.7200 6.4498 0.1869
9.7400 6.4631 0.1944
9.7600 6.4764 0.1867
9.7800 6.4897 0.1898
9.8000 6.5031 0.1878
9.8200 6.5164 0.1910
9.8400 6.5298 0.1864
9.8600 6.5431 0.1880
9.8800 6.5564 0.1901
9.9000 6.5698 0.1849
9.9200 6.5831 0.1832
9.9400 6.5964 0.1912
9.9600 6.6097 0.1890
9.9800 6.6230 0.1803
10.0000 6.6364 0.1913
10.0200 6.6497 0.1890
10.0400 6.6630 0.1799
10.0600 6.6764 0.1911
10.0800 6.6898 0.1882
10.1000 6.7031 0.1781
10.1200 6.7164 0.1859
10.1400 6.7298 0.1889
10.1600 6.7431 0.1788
10.1800 6.7565 0.1836
10.2000 6.7698 0.1901
10.2200 6.7831 0.1759
10.2400 6.7964 0.1874
10.2600 6.8098 0.1864
10.2800 6.8231 0.1729
10.3000 6.8364 0.1845
10.3200 6.8497 0.1869
10.3400 6.8630 0.1713
10.3600 6.8764 0.1898
10.3800 6.8897 0.1825
10.4000 6.9030 0.1730
10.4200 6.9164 0.1882
10.4400 6.9298 0.1796
10.4600 6.9431 0.1721
10.4800 6.9564 0.1914
10.5000 6.9698 0.1774
10.5200 6.9831 0.1681
10.5400 6.9964 0.1905
10.5600 7.0097 0.1751
10.5800 7.0230 0.1656
10.6000 7.0364 0.1914
10.6200 7.0497 0.1726
10.6400 7.0630 0.1683
10.6600 7.0764 0.1897
10.6800 7.0897 0.1676
10.7000 7.1031 0.1741
10.7200 7.1164 0.1808
10.7400 7.1297 0.1656
10.7600 7.1430 0.1730
10.7800 7.1564 0.1804
10.8000 7.1697 0.1624
10.8200 7.1831 0.1738
10.8400 7.1964 0.1784
10.8600 7.2098 0.1641
10.8800 7.2231 0.1740
10.9000 7.2365 0.1732
10.9200 7.2498 0.1607
10.9400 7.2631 0.1747
10.9600 7.2764 0.1731
10.9800 7.2897 0.1638
11.0000 7.3031 0.1632
11.0200 7.3163 0.1710
11.0400 7.3296 0.1627
11.0600 7.3430 0.1675
11.0800 7.3564 0.1647
11.1000 7.3697 0.1634
11.1200 7.3831 0.1633
11.1400 7.3964 0.1616
11.1600 7.4098 0.1721
11.1800 7.4231 0.1622
11.2000 7.4364 0.1590
11.2200 7.4498 0.1665
11.2400 7.4631 0.1578
11.2600 7.4765 0.1613
11.2800 7.4898 0.1696
11.3000 7.5031 0.1536
11.3200 7.5164 0.1629
11.3400 7.5298 0.1632
11.3600 7.5431 0.1546
11.3800 7.5564 0.1620
11.4000 7.5697 0.1658
11.4200 7.5830 0.1490
11.4400 7.5964 0.1585
11.4600 7.6097 0.1655
11.4800 7.6230 0.1480
11.5000 7.6364 0.1569
11.5200 7.6498 0.1655
11.5400 7.6631 0.1432
11.5600 7.6764 0.1596
11.5800 7.6898 0.1628
11.6000 7.7031 0.1436
11.6200 7.7165 0.1577
11.6400 7.7298 0.1659
11.6600 7.7430 0.1408
11.6800 7.7564 0.1614
11.7000 7.7697 0.1637
11.7200 7.7830 0.1381
11.7400 7.7963 0.1577
11.7600 7.8097 0.1607
11.7800 7.8230 0.1408
11.8000 7.8364 0.1598
11.8200 7.8497 0.1587
11.8400 7.8630 0.1374
11.8600 7.8764 0.1585
11.8800 7.8897 0.1538
11.9000 7.9031 0.1405
11.9200 7.9164 0.1600
11.9400 7.9297 0.1506
11.9600 7.9431 0.1380
11.9800 7.9564 0.1601
12.0000 7.9698 0.1467
12.0200 7.9831 0.1401
12.0400 7.9964 0.1517
12.0600 8.0098 0.1481
12.0800 8.0231 0.1364
12.1000 8.0364 0.1565
12.1200 8.0497 0.1423
12.1400 8.0630 0.1374
12.1600 8.0763 0.1544
12.1800 8.0897 0.1443
12.2000 8.1030 0.1364
12.2200 8.1164 0.1557
12.2400 8.1298 0.1406
12.2600 8.1432 0.1380
12.2800 8.1565 0.1481
12.3000 8.1698 0.1408
12.3200 8.1831 0.1375
12.3400 8.1965 0.1487
12.3600 8.2098 0.1353
12.3800 8.2231 0.1332
12.4000 8.2364 0.1514
12.4200 8.2497 0.1326
12.4400 8.2631 0.1361
12.4600 8.2763 0.1486
12.4800 8.2896 0.1347
12.5000 8.3030 0.1367
12.5200 8.3164 0.1446
12.5400 8.3297 0.1332
12.5600 8.3430 0.1316
12.5800 8.3564 0.1427
12.6000 8.3698 0.1339
12.6200 8.3831 0.1281
12.6400 8.3965 0.1437
12.6600 8.4098 0.1353
12.6800 8.4231 0.1345
12.7000 8.4365 0.1357
12.7200 8.4498 0.1336
12.7400 8.4631 0.1279
12.7600 8.4764 0.1352
12.7800 8.4897 0.1367
12.8000 8.5030 0.1236
12.8200 8.5163 0.1287
12.8400 8.5296 0.1304
12.8600 8.5430 0.1286
12.8800 8.5564 0.1324
12.9000 8.5698 0.1261
12.9200 8.5831 0.1249
12.9400 8.5964 0.1272
12.9600 8.6098 0.1270
12.9800 8.6231 0.1210
13.0000 8.6364 0.1303
13.0200 8.6498 0.1324
13.0400 8.6631 0.1180
13.0600 8.6765 0.1316
13.0800 8.6898 0.1266
13.1000 8.7031 0.1231
13.1200 8.7164 0.1247
13.1400 8.7298 0.1267
13.1600 8.7431 0.1216
13.1800 8.7564 0.1288
13.2000 8.7697 0.1221
13.2200 8.7830 0.1255
13.2400 8.7964 0.1253
13.2600 8.8097 0.1202
13.2800 8.8231 0.1187
13.3000 8.8364 0.1271
13.3200 8.8498 0.1247
13.3400 8.8631 0.1167
13.3600 8.8764 0.1192
13.3800 8.8898 0.1268
13.4000 8.9031 0.1169
13.4200 8.9165 0.1182
13.4400 8.9298 0.1236
13.4600 8.9431 0.1140
13.4800 8.9564 0.1215
13.5000 8.9697 0.1258
13.5200 8.9831 0.1104
13.5400 8.9964 0.1154
13.5600 9.0097 0.1239
13.5800 9.0230 0.1096
13.6000 9.0364 0.1183
13.6200 9.0497 0.1246
13.6400 9.0630 0.1114
13.6600 9.0764 0.1148
13.6800 9.0897 0.1235
13.7000 9.1031 0.1071
13.7200 9.1164 0.1182
13.7400 9.1298 0.1231
13.7600 9.1431 0.1131
13.7800 9.1565 0.1149
13.8000 9.1698 0.1181
13.8200 9.1831 0.1109
13.8400 9.1964 0.1191
13.8600 9.2097 0.1150
13.8800 9.2231 0.1126
13.9000 9.2364 0.1180
13.9200 9.2497 0.1181
13.9400 9.2630 0.1082
13.9600 9.2764 0.1204
13.9800 9.2897 0.1106
14.0000 9.3031 0.1066
14.0200 9.3164 0.1190
14.0400 9.3297 0.1085
14.0600 9.3431 0.1085
14.0800 9.3564 0.1169
14.1000 9.3697 0.1083
14.1200 9.3831 0.1097
14.1400 9.3964 0.1177
14.1600 9.4098 0.1022
14.1800 9.4231 0.1089
14.2000 9.4364 0.1166
14.2200 9.4497 0.0999
14.2400 9.4631 0.1086
14.2600 9.4764 0.1151
14.2800 9.4897 0.0966
14.3000 9.5030 0.1125
14.3200 9.5163 0.1101
14.3400 9.5297 0.0999
14.3600 9.5430 0.1083
14.3800 9.5564 0.1103
14.4000 9.5698 0.0976
14.4200 9.5831 0.1123
14.4400 9.5965 0.1013
14.4600 9.6098 0.0981
14.4800 9.6231 0.1099
14.5000 9.6365 0.1014
14.5200 9.6498 0.0995
14.5400 9.6630 0.1056
14.5600 9.6763 0.1024
14.5800 9.6897 0.0962
14.6000 9.7030 0.1036
14.6200 9.7163 0.0996
14.6400 9.7297 0.0964
14.6600 9.7430 0.1017
14.6800 9.7564 0.0984
14.7000 9.7697 0.0953
14.7200 9.7831 0.1017
14.7400 9.7964 0.0929
14.7600 9.8098 0.0951
14.7800 9.8231 0.0960
14.8000 9.8365 0.0974
14.8200 9.8498 0.0928
14.8400 9.8631 0.1021
14.8600 9.8764 0.0927
14.8800 9.8898 0.0877
14.9000 9.9031 0.0984
14.9200 9.9164 0.0960
14.9400 9.9297 0.0922
14.9600 9.9431 0.0980
14.9800 9.9564 0.0872
15.0000 9.9697 0.0952
15.0200 9.9830 0.0916
15.0400 9.9964 0.0890
15.0600 10.0097 0.0975
15.0800 10.0231 0.0861
15.1000 10.0364 0.0822
15.1200 10.0498 0.0992
15.1400 10.0631 0.0850
15.1600 10.0765 0.0828
15.1800 10.0898 0.1020
15.2000 10.1031 0.0820
15.2200 10.1165 0.0881
15.2400 10.1298 0.0994
15.2600 10.1431 0.0809
15.2800 10.1564 0.0882
15.3000 10.1697 0.1007
15.3200 10.1831 0.0790
15.3400 10.1964 0.0892
15.3600 10.2097 0.0956
15.3800 10.2230 0.0792
15.4000 10.2363 0.0876
15.4200 10.2497 0.0962
15.4400 10.2630 0.0741
15.4600 10.2764 0.0949
15.4800 10.2897 0.0913
15.5000 10.3031 0.0745
15.5200 10.3165 0.0905
15.5400 10.3298 0.0919
15.5600 10.3431 0.0728
15.5800 10.3565 0.0939
15.6000 10.3698 0.0910
15.6200 10.3831 0.0716
15.6400 10.3964 0.0978
15.6600 10.4097 0.0889
15.6800 10.4231 0.0690
15.7000 10.4364 0.0950
15.7200 10.4497 0.0869
15.7400 10.4630 0.0676
15.7600 10.4764 0.0928
15.7800 10.4897 0.0858
15.8000 10.5030 0.0706
15.8200 10.5164 0.0883
15.8400 10.5297 0.0856
15.8600 10.5431 0.0732
15.8800 10.5564 0.0905
15.9000 10.5697 0.0753
15.9200 10.5831 0.0770
15.9400 10.5965 0.0902
15.9600 10.6098 0.0719
15.9800 10.6231 0.0699
16.0000 10.6364 0.0905
16.0200 10.6497 0.0723
16.0400 10.6631 0.0747
16.0600 10.6764 0.0821
16.0800 10.6897 0.0721
16.1000 10.7030 0.0725
16.1200 10.7164 0.0792
16.1400 10.7297 0.0694
16.1600 10.7430 0.0736
16.1800 10.7564 0.0738
16.2000 10.7698 0.0684
16.2200 10.7831 0.0745
16.2400 10.7965 0.0752
16.2600 10.8098 0.0700
16.2800 10.8231 0.0725
16.3000 10.8364 0.0731
16.3200 10.8498 0.0652
16.3400 10.8631 0.0715
16.3600 10.8764 0.0681
16.3800 10.8897 0.0698
16.4000 10.9031 0.0698
16.4200 10.9164 0.0654
16.4400 10.9297 0.0655
16.4600 10.9430 0.0734
16.4800 10.9563 0.0623
16.5000 10.9697 0.0666
16.5200 10.9830 0.0691
16.5400 10.9964 0.0651
16.5600 11.0097 0.0644
16.5800 11.0231 0.0650
16.6000 11.0365 0.0598
16.6200 11.0498 0.0646
16.6400 11.0631 0.0671
16.6600 11.0765 0.0663
16.6800 11.0898 0.0575
16.7000 11.1031 0.0647
16.7200 11.1163 0.0680
16.7400 11.1297 0.0609
16.7600 11.1430 0.0602
16.7800 11.1564 0.0650
16.8000 11.1697 0.0547
16.8200 11.1830 0.0608
16.8400 11.1964 0.0645
16.8600 11.2098 0.0553
16.8800 11.2231 0.0617
16.9000 11.2364 0.0588
16.9200 11.2497 0.0540
16.9400 11.2631 0.0630
16.9600 11.2764 0.0614
16.9800 11.2897 0.0463
17.0000 11.3031 0.0620
17.0200 11.3164 0.0590
17.0400 11.3298 0.0454
17.0600 11.3431 0.0654
17.0800 11.3564 0.0628
17.1000 11.3697 0.0419
17.1200 11.3831 0.0656
17.1400 11.3964 0.0562
17.1600 11.4097 0.0487
17.1800 11.4230 0.0612
17.2000 11.4364 0.0537
17.2200 11.4497 0.0462
17.2400 11.4630 0.0628
17.2600 11.4764 0.0549
17.2800 11.4897 0.0500
17.3000 11.5031 0.0577
17.3200 11.5164 0.0517
17.3400 11.5297 0.0474
17.3600 11.5431 0.0604
17.3800 11.5564 0.0505
17.4000 11.5698 0.0482
17.4200 11.5831 0.0536
17.4400 11.5964 0.0448
17.4600 11.6097 0.0520
17.4800 11.6231 0.0543
17.5000 11.6364 0.0449
17.5200 11.6497 0.0479
17.5400 11.6630 0.0558
17.5600 11.6763 0.0477
17.5800 11.6897 0.0479
17.6000 11.7030 0.0448
17.6200 11.7164 0.0461
17.6400 11.7297 0.0485
17.6600 11.7431 0.0468
17.6800 11.7565 0.0432
17.7000 11.7698 0.0471
17.7200 11.7831 0.0462
17.7400 11.7965 0.0480
17.7600 11.8098 0.0417
17.7800 11.8231 0.0460
17.8000 11.8364 0.0464
17.8200 11.8497 0.0381
17.8400 11.8630 0.0415
17.8600 11.8764 0.0455
17.8800 11.8897 0.0399
17.9000 11.9030 0.0449
17.9200 11.9164 0.0446
17.9400 11.9297 0.0413
17.9600 11.9431 0.0391
17.9800 11.9564 0.0431
18.0000 11.9697 0.0397
18.0200 11.9831 0.0367
18.0400 11.9964 0.0430
18.0600 12.0098 0.0349
18.0800 12.0231 0.0363
18.1000 12.0364 0.0434
18.1200 12.0498 0.0381
18.1400 12.0631 0.0331
18.1600 12.0764 0.0379
18.1800 12.0897 0.0392
18.2000 12.1031 0.0332
18.2200 12.1164 0.0379
18.2400 12.1297 0.0369
18.2600 12.1430 0.0279
18.2800 12.1563 0.0451
18.3000 12.1697 0.0398
18.3200 12.1830 0.0298
18.3400 12.1964 0.0347
18.3600 12.2097 0.0382
18.3800 12.2231 0.0339
18.4000 12.2365 0.0365
18.4200 12.2498 0.0338
18.4400 12.2631 0.0295
18.4600 12.2764 0.0386
18.4800 12.2898 0.0335
18.5000 12.3031 0.0343
18.5200 12.3164 0.0412
18.5400 12.3297 0.0312
18.5600 12.3430 0.0269
18.5800 12.3564 0.0394
18.6000 12.3697 0.0293
18.6200 12.3831 0.0257
18.6400 12.3964 0.0401
18.6600 12.4097 0.0309
18.6800 12.4230 0.0274
18.7000 12.4364 0.0341
18.7200 12.4497 0.0224
18.7400 12.4631 0.0304
18.7600 12.4765 0.0366
18.7800 12.4898 0.0244
18.8000 12.5031 0.0233
18.8200 12.5164 0.0352
18.8400 12.5298 0.0229
18.8600 12.5431 0.0328
18.8800 12.5564 0.0331
18.9000 12.5697 0.0136
18.9200 12.5830 0.0259
18.9400 12.5964 0.0415
18.9600 12.6097 0.0224
18.9800 12.6230 0.0271
19.0000 12.6363 0.0253
19.0200 12.6497 0.0100
19.0400 12.6630 0.0302
19.0600 12.6764 0.0374
19.0800 12.6897 0.0168
19.1000 12.7030 0.0214
19.1200 12.7164 0.0200
19.1400 12.7297 0.0159
19.1600 12.7431 0.0311
19.1800 12.7564 0.0256
19.2000 12.7698 0.0123
19.2200 12.7831 0.0126
19.2400 12.7964 0.0247
19.2600 12.8097 0.0151
19.2800 12.8231 0.0266
19.3000 12.8364 0.0210
19.3200 12.8498 0.0078
19.3400 12.8630 0.0179
19.3600 12.8763 0.0176
19.3800 12.8897 0.0122
19.4000 12.9030 0.0213
19.4200 12.9163 0.0168
19.4400 12.9297 0.0099
19.4600 12.9431 0.0155
19.4800 12.9565 0.0219
19.5000 12.9698 0.0056
19.5200 12.9831 0.0228
19.5400 12.9965 0.0175
19.5600 13.0098 0.0056
19.5800 13.0231 0.0203
19.6000 13.0364 0.0133
19.6200 13.0497 0.0109
19.6400 13.0630 0.0205
19.6600 13.0764 0.0126
19.6800 13.0897 0.0083
19.7000 13.1030 0.0189
19.7200 13.1163 0.0079
19.7400 13.1297 0.0074
19.7600 13.1430 0.0145
19.7800 13.1564 0.0062
19.8000 13.1697 0.0114
19.8200 13.1831 0.0205
19.8400 13.1965 -0.0008
19.8600 13.2098 0.0152
19.8800 13.2231 0.0096
19.9000 13.2364 0.0010
19.9200 13.2498 0.0142
19.9400 13.2631 0.0100
19.9600 13.2764 -0.0016
19.9800 13.2897 0.0122
20.0000 13.3030 0.0123
20.0200 13.3164 -0.0001
20.0400 13.3297 0.0137
20.0600 13.3430 0.0061
20.0800 13.3563 -0.0041
20.1000 13.3697 0.0143
20.1200 13.3831 0.0047
20.1400 13.3964 -0.0015
20.1600 13.4097 0.0121
20.1800 13.4231 0.0025
20.2000 13.4364 -0.0071
20.2200 13.4498 0.0105
20.2400 13.4631 0.0056
20.2600 13.4764 -0.0082
20.2800 13.4898 0.0108
20.3000 13.5031 0.0011
20.3200 13.5164 -0.0066
20.3400 13.5297 0.0075
20.3600 13.5431 0.0022
20.3800 13.5564 -0.0067
20.4000 13.5697 0.0072
20.4200 13.5830 -0.0037
20.4400 13.5963 -0.0054
20.4600 13.6097 0.0026
20.4800 13.6230 -0.0020
20.5000 13.6364 -0.0061
20.5200 13.6497 0.0050
20.5400 13.6631 -0.0062
20.5600 13.6765 -0.0032
20.5800 13.6898 0.0005
20.6000 13.7031 -0.0064
20.6200 13.7164 -0.0041
20.6400 13.7298 0.0020
20.6600 13.7431 -0.0102
20.6800 13.7564 -0.0054
20.7000 13.7697 0.0008
20.7200 13.7830 -0.0040
20.7400 13.7964 -0.0036
20.7600 13.8097 -0.0054
20.7800 13.8230 -0.0092
20.8000 13.8363 -0.0086
20.8200 13.8497 -0.0020
20.8400 13.8630 -0.0068
20.8600 13.8764 -0.0061
20.8800 13.8897 -0.0086
20.9000 13.9031 -0.0070
20.9200 13.9165 -0.0095
20.9400 13.9298 -0.0047
20.9600 13.9431 -0.0021
20.9800 13.9564 -0.0122
21.0000 13.9698 -0.0099
21.0200 13.9832 -0.0029
21.0400 13.9965 -0.0154
21.0600 14.0097 -0.0080
21.0800 14.0230 -0.0056
21.1000 14.0364 -0.0135
21.1200 14.0497 -0.0129
21.1400 14.0630 -0.0097
21.1600 14.0763 -0.0141
21.1800 14.0897 -0.0063
21.2000 14.1030 -0.0188
21.2200 14.1164 -0.0207
21.2400 14.1297 -0.0055
21.2600 14.1430 -0.0204
21.2800 14.1564 -0.0251
21.3000 14.1698 -0.0062
21.3200 14.1831 -0.0143
21.3400 14.1964 -0.0247
21.3600 14.2098 -0.0155
21.3800 14.2231 -0.0191
21.4000 14.2364 -0.0149
21.4200 14.2497 -0.0125
21.4400 14.2631 -0.0193
21.4600 14.2764 -0.0236
21.4800 14.2897 -0.0139
21.5000 14.3030 -0.0174
21.5200 14.3163 -0.0246
21.5400 14.3296 -0.0140
21.5600 14.3430 -0.0171
21.5800 14.3563 -0.0308
21.6000 14.3696 -0.0154
21.6200 14.3830 -0.0177
21.6400 14.3964 -0.0231
21.6600 14.4098 -0.0241
21.6800 14.4232 -0.0152
21.7000 14.4365 -0.0234
21.7200 14.4498 -0.0238
21.7400 14.4631 -0.0199
21.7600 14.4764 -0.0259
21.7800 14.4897 -0.0208
21.8000 14.5030 -0.0195
21.8200 14.5164 -0.0317
21.8400 14.5297 -0.0277
21.8600 14.5430 -0.0250
21.8800 14.5563 -0.0305
21.9000 14.5697 -0.0238
21.9200 14.5831 -0.0270
21.9400 14.5964 -0.0343
21.9600 14.6097 -0.0276
21.9800 14.6231 -0.0196
22.0000 14.6365 -0.0273
22.0200 14.6498 -0.0278
22.0400 14.6631 -0.0327
22.0600 14.6764 -0.0273
22.0800 14.6897 -0.0278
22.1000 14.7031 -0.0226
22.1200 14.7164 -0.0289
22.1400 14.7297 -0.0342
22.1600 14.7430 -0.0249
22.1800 14.7564 -0.0224
22.2000 14.7697 -0.0399
22.2200 14.7830 -0.0250
22.2400 14.7964 -0.0269
22.2600 14.8097 -0.0348
22.2800 14.8230 -0.0280
22.3000 14.8364 -0.0269
22.3200 14.8497 -0.0346
22.3400 14.8631 -0.0287
22.3600 14.8765 -0.0295
22.3800 14.8898 -0.0346
22.4000 14.9031 -0.0316
22.4200 14.9164 -0.0322
22.4400 14.9298 -0.0381
22.4600 14.9431 -0.0328
22.4800 14.9565 -0.0346
22.5000 14.9698 -0.0339
22.5200 14.9831 -0.0304
22.5400 14.9964 -0.0408
22.5600 15.0097 -0.0369
22.5800 15.0230 -0.0347
22.6000 15.0363 -0.0330
22.6200 15.0497 -0.0341
22.6400 15.0630 -0.0348
22.6600 15.0764 -0.0458
22.6800 15.0897 -0.0416
22.7000 15.1030 -0.0299
22.7200 15.1164 -0.0346
22.7400 15.1298 -0.0462
22.7600 15.1431 -0.0381
22.7800 15.1564 -0.0434
22.8000 15.1698 -0.0432
22.8200 15.1831 -0.0328
22.8400 15.1964 -0.0397
22.8600 15.2097 -0.0515
22.8800 15.2230 -0.0352
22.9000 15.2364 -0.0437
22.9200 15.2497 -0.0489
22.9400 15.2631 -0.0290
22.9600 15.2764 -0.0476
22.9800 15.2897 -0.0532
23.0000 15.3030 -0.0319
23.0200 15.3164 -0.0439
23.0400 15.3297 -0.0537
23.0600 15.3430 -0.0404
23.0800 15.3564 -0.0489
23.1000 15.3697 -0.0539
23.1200 15.3831 -0.0336
23.1400 15.3964 -0.0484
23.1600 15.4098 -0.0640
23.1800 15.4231 -0.0376
23.2000 15.4365 -0.0504
23.2200 15.4498 -0.0489
23.2400 15.4631 -0.0377
23.2600 15.4764 -0.0577
23.2800 15.4897 -0.0600
23.3000 15.5030 -0.0364
23.3200 15.5163 -0.0496
23.3400 15.5297 -0.0530
23.3600 15.5430 -0.0464
23.3800 15.5564 -0.0600
23.4000 15.5697 -0.0550
23.4200 15.5831 -0.0370
23.4400 15.5965 -0.0572
23.4600 15.6098 -0.0549
23.4800 15.6231 -0.0548
23.5000 15.6364 -0.0523
23.5200 15.6498 -0.0499
23.5400 15.6631 -0.0488
23.5600 15.6765 -0.0521
23.5800 15.6898 -0.0638
23.6000 15.7031 -0.0491
23.6200 15.7164 -0.0508
23.6400 15.7297 -0.0556
23.6600 15.7431 -0.0539
23.6800 15.7564 -0.0590
23.7000 15.7697 -0.0652
23.7200 15.7830 -0.0479
23.7400 15.7964 -0.0583
23.7600 15.8097 -0.0682
23.7800 15.8230 -0.0523
23.8000 15.8364 -0.0556
23.8200 15.8498 -0.0701
23.8400 15.8631 -0.0520
23.8600 15.8764 -0.0624
23.8800 15.8898 -0.0702
23.9000 15.9031 -0.0565
23.9200 15.9164 -0.0593
23.9400 15.9297 -0.0641
23.9600 15.9430 -0.0545
23.9800 15.9564 -0.0695
24.0000 15.9697 -0.0743
24.0200 15.9830 -0.0517
24.0400 15.9963 -0.0660
24.0600 16.0097 -0.0729
24.0800 16.0231 -0.0591
24.1000 16.0364 -0.0731
24.1200 16.0497 -0.0674
24.1400 16.0631 -0.0500
24.1600 16.0764 -0.0769
24.1800 16.0898 -0.0761
24.2000 16.1031 -0.0602
24.2200 16.1164 -0.0672
24.2400 16.1297 -0.0667
24.2600 16.1431 -0.0643
24.2800 16.1564 -0.0877
24.3000 16.1697 -0.0690
24.3200 16.1831 -0.0620
24.3400 16.1964 -0.0776
24.3600 16.2098 -0.0713
24.3800 16.2231 -0.0740
24.4000 16.2364 -0.0920
24.4200 16.2497 -0.0649
24.4400 16.2630 -0.0606
24.4600 16.2764 -0.0747
24.4800 16.2897 -0.0818
24.5000 16.3030 -0.0883
24.5200 16.3164 -0.0832
24.5400 16.3298 -0.0575
24.5600 16.3431 -0.0724
24.5800 16.3564 -0.0926
24.6000 16.3697 -0.0870
24.6200 16.3831 -0.0733
24.6400 16.3965 -0.0727
24.6600 16.4098 -0.0740
24.6800 16.4231 -0.0805
24.7000 16.4364 -0.0923
24.7200 16.4498 -0.0839
24.7400 16.4631 -0.0739
24.7600 16.4764 -0.0672
24.7800 16.4897 -0.0788
24.8000 16.5030 -0.0962
24.8200 16.5164 -0.0875
24.8400 16.5297 -0.0623
24.8600 16.5430 -0.0731
24.8800 16.5564 -0.0890
24.9000 16.5698 -0.0945
24.9200 16.5831 -0.0757
24.9400 16.5965 -0.0727
24.9600 16.6098 -0.0811
24.9800 16.6231 -0.0879
25.0000 16.6365 -0.0783
25.0200 16.6498 -0.0792
25.0400 16.6631 -0.0829
25.0600 16.6764 -0.0797
25.0800 16.6897 -0.0750
25.1000 16.7030 -0.0915
25.1200 16.7163 -0.0883
25.1400 16.7297 -0.0720
25.1600 16.7430 -0.0813
25.1800 16.7564 -0.0854
25.2000 16.7697 -0.0957
25.2200 16.7830 -0.1005
25.2400 16.7964 -0.0586
25.2600 16.8097 -0.0659
25.2800 16.8231 -0.1144
25.3000 16.8364 -0.0974
25.3200 16.8498 -0.0737
25.3400 16.8631 -0.0796
25.3600 16.8765 -0.0783
25.3800 16.8898 -0.0902
25.4000 16.9031 -0.1009
25.4200 16.9164 -0.0834
25.4400 16.9297 -0.0920
25.4600 16.9430 -0.0784
25.4800 16.9563 -0.0643
25.5000 16.9696 -0.1081
25.5200 16.9830 -0.1211
25.5400 16.9963 -0.0691
25.5600 17.0097 -0.0674
25.5800 17.0230 -0.0930
25.6000 17.0364 -0.1140
25.6200 17.0498 -0.1089
25.6400 17.0631 -0.0734
25.6600 17.0764 -0.0689
25.6800 17.0897 -0.1086
25.7000 17.1031 -0.1147
25.7200 17.1165 -0.0943
25.7400 17.1298 -0.0765
25.7600 17.1431 -0.0843
25.7800 17.1564 -0.1063
25.8000 17.1697 -0.1121
25.8200 17.1831 -0.1008
25.8400 17.1964 -0.0737
25.8600 17.2097 -0.0772
25.8800 17.2230 -0.1162
25.9000 17.2364 -0.1234
25.9200 17.2497 -0.0910
25.9400 17.2630 -0.0774
25.9600 17.2764 -0.0805
25.9800 17.2898 -0.1179
26.0000 17.3031 -0.1311
26.0200 17.3164 -0.0921
26.0400 17.3298 -0.0669
26.0600 17.3431 -0.0987
26.0800 17.3565 -0.1211
26.1000 17.3698 -0.1111
26.1200 17.3831 -0.0993
26.1400 17.3964 -0.0887
26.1600 17.4097 -0.0972
26.1800 17.4230 -0.1271
26.2000 17.4363 -0.1074
26.2200 17.4497 -0.0948
26.2400 17.4630 -0.1022
26.2600 17.4764 -0.1109
26.2800 17.4897 -0.1091
26.3000 17.5031 -0.1193
26.3200 17.5164 -0.1037
26.3400 17.5298 -0.0941
26.3600 17.5431 -0.1194
26.3800 17.5564 -0.1229
26.4000 17.5697 -0.1010
26.4200 17.5831 -0.1105
26.4400 17.5964 -0.1144
26.4600 17.6098 -0.1068
26.4800 17.6231 -0.1253
26.5000 17.6364 -0.1147
26.5200 17.6498 -0.1087
26.5400 17.6631 -0.1127
26.5600 17.6764 -0.1187
26.5800 17.6897 -0.1193
26.6000 17.7030 -0.1197
26.6200 17.7163 -0.1138
26.6400 17.7297 -0.1094
26.6600 17.7430 -0.1222
26.6800 17.7564 -0.1264
26.7000 17.7698 -0.1093
26.7200 17.7832 -0.1192
26.7400 17.7965 -0.1214
26.7600 17.8098 -0.1186
26.7800 17.8231 -0.1221
26.8000 17.8365 -0.1217
26.8200 17.8498 -0.1147
26.8400 17.8631 -0.1263
26.8600 17.8764 -0.1265
26.8800 17.8897 -0.1113
26.9000 17.9030 -0.1231
26.9200 17.9163 -0.1295
26.9400 17.9296 -0.1195
26.9600 17.9430 -0.1249
26.9800 17.9563 -0.1300
27.0000 17.9697 -0.1184
27.0200 17.9830 -0.1283
27.0400 17.9964 -0.1250
27.0600 18.0098 -0.1242
27.0800 18.0231 -0.1366
27.1000 18.0365 -0.1254
27.1200 18.0498 -0.1168
27.1400 18.0631 -0.1369
27.1600 18.0765 -0.1322
27.1800 18.0898 -0.1196
27.2000 18.1031 -0.1307
27.2200 18.1164 -0.1306
27.2400 18.1297 -0.1218
27.2600 18.1431 -0.1365
27.2800 18.1564 -0.1272
27.3000 18.1697 -0.1216
27.3200 18.1830 -0.1408
27.3400 18.1964 -0.1353
27.3600 18.2097 -0.1176
27.3800 18.2231 -0.1401
27.4000 18.2364 -0.1370
27.4200 18.2498 -0.1264
27.4400 18.2631 -0.1419
27.4600 18.2764 -0.1366
27.4800 18.2898 -0.1243
27.5000 18.3031 -0.1432
27.5200 18.3165 -0.1370
27.5400 18.3298 -0.1299
27.5600 18.3431 -0.1495
27.5800 18.3564 -0.1368
27.6000 18.3698 -0.1186
27.6200 18.3831 -0.1487
27.6400 18.3964 -0.1534
27.6600 18.4097 -0.1208
27.6800 18.4230 -0.1398
27.7000 18.4364 -0.1449
27.7200 18.4497 -0.1299
27.7400 18.4630 -0.1408
27.7600 18.4764 -0.1570
27.7800 18.4898 -0.1319
27.8000 18.5031 -0.1407
27.8200 18.5165 -0.1504
27.8400 18.5298 -0.1368
27.8600 18.5431 -0.1428
27.8800 18.5564 -0.1614
27.9000 18.5698 -0.1354
27.9200 18.5830 -0.1309
27.9400 18.5963 -0.1595
27.9600 18.6097 -0.1461
27.9800 18.6231 -0.1322
28.0000 18.6364 -0.1602
28.0200 18.6497 -0.1407
28.0400 18.6630 -0.1363
28.0600 18.6764 -0.1559
28.0800 18.6897 -0.1476
28.1000 18.7030 -0.1552
28.1200 18.7164 -0.1491
28.1400 18.7297 -0.1346
28.1600 18.7431 -0.1581
28.1800 18.7565 -0.1635
28.2000 18.7698 -0.1380
28.2200 18.7831 -0.1547
28.2400 18.7965 -0.1510
28.2600 18.8098 -0.1338
28.2800 18.8231 -0.1680
28.3000 18.8364 -0.1688
28.3200 18.8497 -0.1257
28.3400 18.8631 -0.1530
28.3600 18.8764 -0.1637
28.3800 18.8897 -0.1499
28.4000 18.9030 -0.1746
28.4200 18.9163 -0.1597
28.4400 18.9297 -0.1148
28.4600 18.9430 -0.1623
28.4800 18.9564 -0.1932
28.5000 18.9697 -0.1561
28.5200 18.9831 -0.1472
28.5400 18.9964 -0.1566
28.5600 19.0098 -0.1468
28.5800 19.0231 -0.1692
28.6000 19.0365 -0.1900
28.6200 19.0498 -0.1631
28.6400 19.0631 -0.1369
28.6600 19.0764 -0.1585
28.6800 19.0897 -0.1835
28.7000 19.1031 -0.1737
28.7200 19.1164 -0.1640
28.7400 19.1297 -0.1570
28.7600 19.1430 -0.1574
28.7800 19.1563 -0.1794
28.8000 19.1697 -0.1799
28.8200 19.1830 -0.1588
28.8400 19.1964 -0.1694
28.8600 19.2097 -0.1742
28.8800 19.2231 -0.1789
28.9000 19.2365 -0.1704
28.9200 19.2498 -0.1548
28.9400 19.2631 -0.1750
28.9600 19.2765 -0.2027
28.9800 19.2898 -0.1641
29.0000 19.3031 -0.1541
29.0200 19.3164 -0.1817
29.0400 19.3297 -0.1785
29.0600 19.3430 -0.1770
29.0800 19.3564 -0.1885
29.1000 19.3697 -0.1747
29.1200 19.3830 -0.1518
29.1400 19.3964 -0.1787
29.1600 19.4098 -0.1984
29.1800 19.4231 -0.1803
29.2000 19.4364 -0.1710
29.2200 19.4498 -0.1763
29.2400 19.4631 -0.1786
29.2600 19.4765 -0.1786
29.2800 19.4897 -0.1919
29.3000 19.5031 -0.1778
29.3200 19.5164 -0.1745
29.3400 19.5297 -0.1945
29.3600 19.5431 -0.1724
29.3800 19.5564 -0.1690
29.4000 19.5697 -0.1910
29.4200 19.5831 -0.2049
29.4400 19.5964 -0.1786
29.4600 19.6097 -0.1712
29.4800 19.6230 -0.1798
29.5000 19.6363 -0.1870
29.5200 19.6497 -0.2001
29.5400 19.6631 -0.1980
29.5600 19.6764 -0.1835
29.5800 19.6897 -0.1690
29.6000 19.7031 -0.1887
29.6200 19.7164 -0.2108
29.6400 19.7297 -0.1933
29.6600 19.7430 -0.1896
29.6800 19.7564 -0.1890
29.7000 19.7698 -0.1891
29.7200 19.7831 -0.1965
29.7400 19.7964 -0.2052
29.7600 19.8097 -0.2001
29.7800 19.8231 -0.1903
29.8000 19.8364 -0.1922
29.8200 19.8497 -0.1976
29.8400 19.8630 -0.2078
29.8600 19.8763 -0.2005
29.8800 19.8897 -0.1915
29.9000 19.9030 -0.1993
29.9200 19.9164 -0.2103
29.9400 19.9297 -0.1980
29.9600 19.9431 -0.1947
29.9800 19.9565 -0.2077
30.0000 19.9698 -0.2137
30.0200 19.9831 -0.2006
30.0400 19.9965 -0.2027
30.0600 20.0098 -0.2031
30.0800 20.0231 -0.2060
30.1000 20.0364 -0.2118
30.1200 20.0497 -0.2108
30.1400 20.0631 -0.2071
30.1600 20.0764 -0.2085
30.1800 20.0897 -0.2048
30.2000 20.1030 -0.2144
30.2200 20.1164 -0.2203
30.2400 20.1297 -0.2106
30.2600 20.1430 -0.2075
30.2800 20.1563 -0.2145
30.3000 20.1697 -0.2110
30.3200 20.1831 -0.2235
30.3400 20.1964 -0.2210
30.3600 20.2098 -0.2116
30.3800 20.2231 -0.2212
30.4000 20.2364 -0.2156
30.4200 20.2498 -0.2158
30.4400 20.2631 -0.2256
30.4600 20.2764 -0.2225
30.4800 20.2897 -0.2180
30.5000 20.3031 -0.2285
30.5200 20.3164 -0.2199
30.5400 20.3297 -0.2209
30.5600 20.3430 -0.2377
30.5800 20.3563 -0.2214
30.6000 20.3697 -0.2249
30.6200 20.3830 -0.2412
30.6400 20.3964 -0.2211
30.6600 20.4098 -0.2328
30.6800 20.4231 -0.2410
30.7000 20.4365 -0.1912
30.7200 20.4498 -0.1277
30.7400 20.4631 -0.0647
30.7600 20.4764 -0.0021
30.7800 20.4898 0.0255
30.8000 20.5031 0.0685
30.8200 20.5164 0.1340
30.8400 20.5297 0.1853
30.8600 20.5431 0.2446
30.8800 20.5564 0.2987
30.9000 20.5697 0.3172
30.9200 20.5830 0.3610
30.9400 20.5963 0.3999
30.9600 20.6097 0.4205
30.9800 20.6230 0.4760
31.0000 20.6363 0.5183
31.0200 20.6497 0.5539
31.0400 20.6631 0.6083
31.0600 20.6765 0.6283
31.0800 20.6898 0.6255
31.1000 20.7031 0.6397
31.1200 20.7164 0.6346
31.1400 20.7298 0.6257
31.1600 20.7431 0.6411
31.1800 20.7564 0.6414
31.2000 20.7697 0.6216
31.2200 20.7830 0.6470
31.2400 20.7964 0.6387
31.2600 20.8097 0.6316
31.2800 20.8230 0.6532
31.3000 20.8364 0.6404
31.3200 20.8497 0.6285
31.3400 20.8631 0.6518
31.3600 20.8764 0.6426
31.3800 20.8898 0.6300
31.4000 20.9031 0.6545
31.4200 20.9165 0.6422
31.4400 20.9298 0.6287
31.4600 20.9431 0.6533
31.4800 20.9564 0.6434
31.5000 20.9698 0.6327
31.5200 20.9831 0.6514
31.5400 20.9964 0.6375
31.5600 21.0097 0.6363
31.5800 21.0231 0.6471
31.6000 21.0365 0.6370
31.6200 21.0497 0.6338
31.6400 21.0630 0.6516
31.6600 21.0764 0.6420
31.6800 21.0897 0.6311
31.7000 21.1030 0.6419
31.7200 21.1164 0.6477
31.7400 21.1297 0.6309
31.7600 21.1431 0.6413
31.7800 21.1564 0.6437
31.8000 21.1697 0.6276
31.8200 21.1830 0.6383
31.8400 21.1964 0.6468
31.8600 21.2098 0.6238
31.8800 21.2231 0.6321
31.9000 21.2364 0.6486
31.9200 21.2497 0.6237
31.9400 21.2631 0.6260
31.9600 21.2764 0.6535
31.9800 21.2897 0.6207
32.0000 21.3030 0.6250
32.0200 21.3163 0.6476
32.0400 21.3297 0.6208
32.0600 21.3431 0.6279
32.0800 21.3564 0.6408
32.1000 21.3697 0.6178
32.1200 21.3831 0.6311
32.1400 21.3965 0.6417
32.1600 21.4098 0.6096
32.1800 21.4231 0.6340
32.2000 21.4364 0.6417
32.2200 21.4498 0.6094
32.2400 21.4631 0.6318
32.2600 21.4764 0.6371
32.2800 21.4897 0.6103
32.3000 21.5030 0.6313
32.3200 21.5164 0.6358
32.3400 21.5297 0.6127
32.3600 21.5430 0.6264
32.3800 21.5563 0.6364
32.4000 21.5697 0.6092
32.4200 21.5830 0.6268
32.4400 21.5964 0.6311
32.4600 21.6097 0.6144
32.4800 21.6231 0.6186
32.5000 21.6364 0.6290
32.5200 21.6498 0.6218
32.5400 21.6631 0.6155
32.5600 21.6764 0.6228
32.5800 21.6898 0.6140
32.6000 21.7031 0.6232
32.6200 21.7164 0.6312
32.6400 21.7297 0.6082
32.6600 21.7431 0.6211
32.6800 21.7564 0.6351
32.7000 21.7697 0.6090
32.7200 21.7830 0.6265
32.7400 21.7963 0.6328
32.7600 21.8097 0.6046
32.7800 21.8230 0.6225
32.8000 21.8363 0.6388
32.8200 21.8497 0.6028
32.8400 21.8631 0.6201
32.8600 21.8765 0.6337
32.8800 21.8898 0.6117
32.9000 21.9031 0.6239
32.9200 21.9164 0.6251
32.9400 21.9298 0.6061
32.9600 21.9431 0.6262
32.9800 21.9564 0.6245
33.0000 21.9697 0.6083
33.0200 21.9831 0.6196
33.0400 21.9964 0.6212
33.0600 22.0098 0.6069
33.0800 22.0231 0.6276
33.1000 22.0364 0.6140
33.1200 22.0497 0.6048
33.1400 22.0630 0.6230
33.1600 22.0764 0.6155
33.1800 22.0897 0.6067
33.2000 22.1031 0.6092
33.2200 22.1165 0.6195
33.2400 22.1298 0.6219
33.2600 22.1431 0.6001
33.2800 22.1564 0.5968
33.3000 22.1698 0.6252
33.3200 22.1831 0.6076
33.3400 22.1964 0.6149
33.3600 22.2097 0.6121
33.3800 22.2230 0.5728
33.4000 22.2364 0.6202
33.4200 22.2497 0.6587
33.4400 22.2630 0.5599
33.4600 22.2763 0.5814
33.4800 22.2897 0.6498
33.5000 22.3030 0.5895
33.5200 22.3164 0.5938
33.5400 22.3297 0.6264
33.5600 22.3431 0.5716
33.5800 22.3564 0.6108
33.6000 22.3697 0.6252
33.6200 22.3831 0.5549
33.6400 22.3964 0.6077
33.6600 22.4098 0.6367
33.6800 22.4231 0.5624
33.7000 22.4364 0.6044
33.7200 22.4498 0.6192
33.7400 22.4631 0.5710
33.7600 22.4764 0.6117
33.7800 22.4898 0.6107
33.8000 22.5030 0.5695
33.8200 22.5163 0.6086
33.8400 22.5297 0.6010
33.8600 22.5430 0.5830
33.8800 22.5563 0.6168
33.9000 22.5697 0.5881
33.9200 22.5831 0.5718
33.9400 22.5965 0.6119
33.9600 22.6098 0.6155
33.9800 22.6231 0.5739
34.0000 22.6365 0.5758
34.0200 22.6498 0.5945
34.0400 22.6632 0.6218
34.0600 22.6765 0.5964
34.0800 22.6897 0.5585
34.1000 22.7031 0.5826
34.1200 22.7164 0.6202
34.1400 22.7297 0.6165
34.1600 22.7430 0.5581
34.1800 22.7563 0.5533
34.2000 22.7697 0.6333
34.2200 22.7830 0.6210
34.2400 22.7964 0.5504
34.2600 22.8097 0.5796
34.2800 22.8231 0.6003
34.3000 22.8364 0.5835
34.3200 22.8498 0.6176
34.3400 22.8631 0.5734
34.3600 22.8764 0.5475
34.3800 22.8898 0.6273
34.4000 22.9032 0.5784
34.4200 22.9165 0.5697
34.4400 22.9297 0.6252
34.4600 22.9431 0.5552
34.4800 22.9564 0.5661
34.5000 22.9697 0.6249
34.5200 22.9830 0.5687
34.5400 22.9963 0.5858
34.5600 23.0097 0.5985
34.5800 23.0230 0.5468
34.6000 23.0364 0.6039
34.6200 23.0497 0.6076
34.6400 23.0630 0.5486
34.6600 23.0764 0.6017
34.6800 23.0898 0.5951
34.7000 23.1031 0.5610
34.7200 23.1164 0.5977
34.7400 23.1298 0.5780
34.7600 23.1431 0.5755
34.7800 23.1564 0.6014
34.8000 23.1698 0.5693
34.8200 23.1831 0.5801
34.8400 23.1964 0.5944
34.8600 23.2097 0.5612
34.8800 23.2230 0.5906
34.9000 23.2363 0.5958
34.9200 23.2497 0.5637
34.9400 23.2630 0.5837
34.9600 23.2764 0.5745
34.9800 23.2897 0.5653
35.0000 23.3031 0.6043
35.0200 23.3165 0.5765
35.0400 23.3298 0.5529
35.0600 23.3431 0.5814
35.0800 23.3564 0.5743
35.1000 23.3698 0.5778
35.1200 23.3831 0.5894
35.1400 23.3964 0.5571
35.1600 23.4097 0.5740
35.1800 23.4231 0.5858
35.2000 23.4364 0.5613
35.2200 23.4497 0.5763
35.2400 23.4630 0.5885
35.2600 23.4763 0.5550
35.2800 23.4897 0.5706
35.3000 23.5030 0.5766
35.3200 23.5164 0.5554
35.3400 23.5297 0.5847
35.3600 23.5430 0.5822
35.3800 23.5564 0.5458
35.4000 23.5698 0.5710
35.4200 23.5831 0.5727
35.4400 23.5964 0.5623
35.4600 23.6098 0.5889
35.4800 23.6232 0.5646
35.5000 23.6365 0.5422
35.5200 23.6498 0.5765
35.5400 23.6631 0.5773
35.5600 23.6764 0.5608
35.5800 23.6897 0.5768
35.6000 23.7030 0.5506
35.6200 23.7163 0.5577
35.6400 23.7297 0.5780
35.6600 23.7430 0.5591
35.6800 23.7564 0.5585
35.7000 23.7697 0.5723
35.7200 23.7831 0.5486
35.7400 23.7964 0.5548
35.7600 23.8098 0.5735
35.7800 23.8231 0.5614
35.8000 23.8364 0.5548
35.8200 23.8498 0.5599
35.8400 23.8631 0.5543
35.8600 23.8764 0.5612
35.8800 23.8897 0.5617
35.9000 23.9031 0.5637
35.9200 23.9164 0.5586
35.9400 23.9297 0.5501
35.9600 23.9430 0.5585
35.9800 23.9563 0.5587
36.0000 23.9696 0.5592
36.0200 23.9830 0.5588
36.0400 23.9963 0.5495
36.0600 24.0097 0.5468
36.0800 24.0230 0.5582
36.1000 24.0364 0.5517
36.1200 24.0498 0.5557
36.1400 24.0632 0.5552
36.1600 24.0765 0.5398
36.1800 24.0898 0.5572
36.2000 24.1031 0.5652
36.2200 24.1164 0.5397
36.2400 24.1297 0.5582
36.2600 24.1430 0.5616
36.2800 24.1564 0.5430
36.3000 24.1697 0.5533
36.3200 24.1830 0.5639
36.3400 24.1963 0.5392
36.3600 24.2097 0.5531
36.3800 24.2231 0.5625
36.4000 24.2364 0.5386
36.4200 24.2497 0.5476
36.4400 24.2631 0.5638
36.4600 24.2765 0.5378
36.4800 24.2898 0.5505
36.5000 24.3031 0.5550
36.5200 24.3164 0.5384
36.5400 24.3298 0.5487
36.5600 24.3431 0.5539
36.5800 24.3564 0.5407
36.6000 24.3697 0.5455
36.6200 24.3830 0.5518
36.6400 24.3964 0.5343
36.6600 24.4097 0.5403
36.6800 24.4230 0.5508
36.7000 24.4363 0.5447
36.7200 24.4497 0.5346
36.7400 24.4631 0.5383
36.7600 24.4764 0.5433
36.7800 24.4897 0.5477
36.8000 24.5031 0.5420
36.8200 24.5164 0.5276
36.8400 24.5298 0.5380
36.8600 24.5431 0.5553
36.8800 24.5564 0.5342
36.9000 24.5698 0.5281
36.9200 24.5831 0.5445
36.9400 24.5965 0.5409
36.9600 24.6098 0.5321
36.9800 24.6231 0.5386
37.0000 24.6364 0.5334
37.0200 24.6497 0.5428
37.0400 24.6630 0.5349
37.0600 24.6763 0.5205
37.0800 24.6897 0.5410
37.1000 24.7030 0.5473
37.1200 24.7164 0.5212
37.1400 24.7297 0.5296
37.1600 24.7430 0.5409
37.1800 24.7564 0.5306
37.2000 24.7698 0.5324
37.2200 24.7831 0.5281
37.2400 24.7965 0.5273
37.2600 24.8098 0.5339
37.2800 24.8231 0.5227
37.3000 24.8364 0.5217
37.3200 24.8497 0.5412
37.3400 24.8630 0.5237
37.3600 24.8764 0.5257
37.3800 24.8897 0.5236
37.4000 24.9031 0.5218
37.4200 24.9164 0.5327
37.4400 24.9297 0.5253
37.4600 24.9431 0.5178
37.4800 24.9564 0.5325
37.5000 24.9697 0.5216
37.5200 24.9830 0.5138
37.5400 24.9964 0.5340
37.5600 25.0098 0.5218
37.5800 25.0231 0.5204
37.6000 25.0364 0.5367
37.6200 25.0497 0.5033
37.6400 25.0631 0.5151
37.6600 25.0765 0.5469
37.6800 25.0898 0.5201
37.7000 25.1031 0.5091
37.7200 25.1164 0.5183
37.7400 25.1297 0.5253
37.7600 25.1430 0.5313
37.7800 25.1563 0.5128
37.8000 25.1696 0.5150
37.8200 25.1830 0.5452
37.8400 25.1964 0.5001
37.8600 25.2097 0.4942
37.8800 25.2231 0.5478
37.9000 25.2364 0.5300
37.9200 25.2498 0.4919
37.9400 25.2631 0.5236
37.9600 25.2764 0.5218
37.9800 25.2898 0.5062
38.0000 25.3031 0.5178
38.0200 25.3165 0.5085
38.0400 25.3298 0.5182
38.0600 25.3431 0.5317
38.0800 25.3564 0.4917
38.1000 25.3698 0.4985
38.1200 25.3831 0.5364
38.1400 25.3963 0.5234
38.1600 25.4097 0.4986
38.1800 25.4230 0.5098
38.2000 25.4363 0.5037
38.2200 25.4497 0.5138
38.2400 25.4630 0.5293
38.2600 25.4764 0.5240
38.2800 25.4898 0.4905
38.3000 25.5031 0.4868
38.3200 25.5165 0.5258
38.3400 25.5298 0.5314
38.3600 25.5431 0.5034
38.3800 25.5565 0.4935
38.4000 25.5697 0.4962
38.4200 25.5830 0.5155
38.4400 25.5963 0.5323
38.4600 25.6097 0.4906
38.4800 25.6230 0.5053
38.5000 25.6363 0.5202
38.5200 25.6497 0.4856
38.5400 25.6630 0.5193
38.5600 25.6764 0.5374
38.5800 25.6897 0.4650
38.6000 25.7031 0.4997
38.6200 25.7164 0.5458
38.6400 25.7298 0.4885
38.6600 25.7431 0.4842
38.6800 25.7564 0.5209
38.7000 25.7697 0.4975
38.7200 25.7831 0.5065
38.7400 25.7964 0.5095
38.7600 25.8098 0.4873
38.7800 25.8231 0.5016
38.8000 25.8364 0.5081
38.8200 25.8498 0.4994
38.8400 25.8631 0.5095
38.8600 25.8764 0.4971
38.8800 25.8897 0.4833
38.9000 25.9030 0.5064
38.9200 25.9164 0.5084
38.9400 25.9297 0.5018
38.9600 25.9430 0.4998
38.9800 25.9564 0.4814
39.0000 25.9697 0.4950
39.0200 25.9831 0.5148
39.0400 25.9964 0.4941
39.0600 26.0097 0.4926
39.0800 26.0231 0.4973
39.1000 26.0364 0.4863
39.1200 26.0498 0.5006
39.1400 26.0631 0.5021
39.1600 26.0764 0.4880
39.1800 26.0898 0.4970
39.2000 26.1031 0.4833
39.2200 26.1164 0.4937
39.2400 26.1297 0.5074
39.2600 26.1430 0.4855
39.2800 26.1563 0.4826
39.3000 26.1697 0.4930
39.3200 26.1830 0.4841
39.3400 26.1964 0.5023
39.3600 26.2098 0.4938
39.3800 26.2231 0.4683
39.4000 26.2365 0.4953
39.4200 26.2498 0.4936
39.4400 26.2631 0.4767
39.4600 26.2765 0.4994
39.4800 26.2897 0.4836
39.5000 26.3030 0.4689
39.5200 26.3164 0.5063
39.5400 26.3297 0.4872
39.5600 26.3431 0.4746
39.5800 26.3564 0.4969
39.6000 26.3697 0.4815
39.6200 26.3830 0.4780
39.6400 26.3964 0.4988
39.6600 26.4097 0.4820
39.6800 26.4231 0.4759
39.7000 26.4364 0.4878
39.7200 26.4498 0.4875
39.7400 26.4631 0.4802
39.7600 26.4764 0.4857
39.7800 26.4898 0.4835
39.8000 26.5031 0.4802
39.8200 26.5165 0.4832
39.8400 26.5298 0.4853
39.8600 26.5431 0.4755
39.8800 26.5564 0.4826
39.9000 26.5697 0.4871
39.9200 26.5831 0.4755
39.9400 26.5963 0.4804
39.9600 26.6096 0.4848
39.9800 26.6230 0.4697
40.0000 26.6363 0.4752
40.0200 26.6497 0.4909
40.0400 26.6630 0.4673
40.0600 26.6764 0.4741
40.0800 26.6898 0.4807
40.1000 26.7031 0.4624
40.1200 26.7164 0.4809
40.1400 26.7298 0.4854
40.1600 26.7431 0.4554
40.1800 26.7564 0.4797
40.2000 26.7698 0.4751
40.2200 26.7831 0.4655
40.2400 26.7964 0.4841
40.2600 26.8097 0.4799
40.2800 26.8231 0.4580
40.3000 26.8364 0.4775
40.3200 26.8497 0.4716
40.3400 26.8630 0.4627
40.3600 26.8764 0.4806
40.3800 26.8897 0.4652
40.4000 26.9030 0.4573
40.4200 26.9164 0.4729
40.4400 26.9298 0.4639
40.4600 26.9431 0.4666
40.4800 26.9564 0.4679
40.5000 26.9697 0.4584
40.5200 26.9831 0.4655
40.5400 26.9965 0.4661
40.5600 27.0098 0.4633
40.5800 27.0231 0.4654
40.6000 27.0364 0.4636
40.6200 27.0497 0.4618
40.6400 27.0630 0.4639
40.6600 27.0764 0.4586
40.6800 27.0897 0.4679
40.7000 27.1030 0.4636
40.7200 27.1164 0.4523
40.7400 27.1297 0.4595
40.7600 27.1430 0.4652
40.7800 27.1564 0.4566
40.8000 27.1697 0.4620
40.8200 27.1831 0.4507
40.8400 27.1964 0.4579
40.8600 27.2097 0.4647
40.8800 27.2231 0.4536
40.9000 27.2364 0.4555
40.9200 27.2498 0.4585
40.9400 27.2631 0.4528
40.9600 27.2764 0.4591
40.9800 27.2898 0.4568
41.0000 27.3031 0.4542
41.0200 27.3164 0.4628
41.0400 27.3297 0.4554
41.0600 27.3430 0.4484
41.0800 27.3563 0.4634
41.1000 27.3697 0.4573
41.1200 27.3830 0.4525
41.1400 27.3964 0.4609
41.1600 27.4098 0.4449
41.1800 27.4232 0.4520
41.2000 27.4365 0.4617
41.2200 27.4498 0.4506
41.2400 27.4631 0.4531
41.2600 27.4765 0.4525
41.2800 27.4898 0.4442
41.3000 27.5031 0.4574
41.3200 27.5164 0.4560
41.3400 27.5297 0.4457
41.3600 27.5431 0.4486
41.3800 27.5564 0.4561
41.4000 27.5697 0.4506
41.4200 27.5830 0.4502
41.4400 27.5964 0.4510
41.4600 27.6097 0.4498
41.4800 27.6230 0.4466
41.5000 27.6364 0.4512
41.5200 27.6497 0.4498
41.5400 27.6631 0.4464
41.5600 27.6765 0.4485
41.5800 27.6898 0.4577
41.6000 27.7031 0.4429
41.6200 27.7165 0.4417
41.6400 27.7298 0.4572
41.6600 27.7431 0.4501
41.6800 27.7564 0.4446
41.7000 27.7697 0.4506
41.7200 27.7830 0.4470
41.7400 27.7964 0.4434
41.7600 27.8097 0.4558
41.7800 27.8230 0.4489
41.8000 27.8364 0.4460
41.8200 27.8497 0.4460
41.8400 27.8631 0.4475
41.8600 27.8764 0.4486
41.8800 27.8898 0.4531
41.9000 27.9031 0.4472
41.9200 27.9165 0.4504
41.9400 27.9298 0.4537
41.9600 27.9431 0.4510
41.9800 27.9565 0.4500
42.0000 27.9698 0.4548
42.0200 27.9831 0.4479
42.0400 27.9964 0.4475
42.0600 28.0097 0.4538
42.0800 28.0231 0.4498
42.1000 28.0364 0.4431
42.1200 28.0497 0.4542
42.1400 28.0630 0.4518
42.1600 28.0763 0.4421
42.1800 28.0897 0.4515
42.2000 28.1030 0.4450
42.2200 28.1164 0.4426
42.2400 28.1298 0.4545
42.2600 28.1431 0.4410
42.2800 28.1565 0.4369
42.3000 28.1698 0.4523
42.3200 28.1831 0.4411
42.3400 28.1964 0.4379
42.3600 28.2098 0.4416
42.3800 28.2231 0.4413
42.4000 28.2364 0.4398
42.4200 28.2497 0.4469
42.4400 28.2631 0.4326
42.4600 28.2764 0.4353
42.4800 28.2897 0.4456
42.5000 28.3030 0.4374
42.5200 28.3164 0.4244
42.5400 28.3297 0.4364
42.5600 28.3430 0.4382
42.5800 28.3564 0.4301
42.6000 28.3697 0.4372
42.6200 28.3831 0.4342
42.6400 28.3964 0.4215
42.6600 28.4098 0.4309
42.6800 28.4231 0.4349
42.7000 28.4365 0.4286
42.7200 28.4498 0.4308
42.7400 28.4631 0.4277
42.7600 28.4764 0.4247
42.7800 28.4897 0.4298
42.8000 28.5031 0.4277
42.8200 28.5164 0.4220
42.8400 28.5297 0.4236
42.8600 28.5430 0.4269
42.8800 28.5563 0.4222
42.9000 28.5697 0.4210
42.9200 28.5830 0.4265
42.9400 28.5964 0.4196
42.9600 28.6097 0.4184
42.9800 28.6231 0.4206
43.0000 28.6364 0.4231
43.0200 28.6497 0.4171
43.0400 28.6631 0.4209
43.0600 28.6764 0.4190
43.0800 28.6898 0.4165
43.1000 28.7031 0.4184
43.1200 28.7164 0.4160
43.1400 28.7297 0.4137
43.1600 28.7431 0.4257
43.1800 28.7564 0.4121
43.2000 28.7697 0.4129
43.2200 28.7830 0.4153
43.2400 28.7963 0.4182
43.2600 28.8097 0.4139
43.2800 28.8230 0.4159
43.3000 28.8363 0.4128
43.3200 28.8497 0.4129
43.3400 28.8631 0.4129
43.3600 28.8765 0.4131
43.3800 28.8898 0.4184
43.4000 28.9031 0.4082
43.4200 28.9165 0.4130
43.4400 28.9298 0.4176
43.4600 28.9431 0.4093
43.4800 28.9564 0.4172
43.5000 28.9697 0.4244
43.5200 28.9830 0.4049
43.5400 28.9964 0.4167
43.5600 29.0097 0.4199
43.5800 29.0230 0.4078
43.6000 29.0364 0.4192
43.6200 29.0497 0.4210
43.6400 29.0631 0.4057
43.6600 29.0764 0.4167
43.6800 29.0898 0.4161
43.7000 29.1032 0.4156
43.7200 29.1165 0.4182
43.7400 29.1298 0.4096
43.7600 29.1431 0.4100
43.7800 29.1564 0.4216
43.8000 29.1698 0.4126
43.8200 29.1831 0.4139
43.8400 29.1964 0.4112
43.8600 29.2097 0.4082
43.8800 29.2230 0.4219
43.9000 29.2364 0.4130
43.9200 29.2497 0.4109
43.9400 29.2630 0.4150
43.9600 29.2763 0.4086
43.9800 29.2897 0.4107
44.0000 29.3031 0.4200
44.0200 29.3164 0.4076
44.0400 29.3298 0.4089
44.0600 29.3431 0.4129
44.0800 29.3564 0.4143
44.1000 29.3697 0.4123
44.1200 29.3831 0.4141
44.1400 29.3964 0.4056
44.1600 29.4098 0.4117
44.1800 29.4231 0.4065
44.2000 29.4364 0.4165
44.2200 29.4497 0.4129
44.2400 29.4631 0.3988
44.2600 29.4764 0.4097
44.2800 29.4897 0.4103
44.3000 29.5030 0.4023
44.3200 29.5163 0.4113
44.3400 29.5297 0.4001
44.3600 29.5430 0.3971
44.3800 29.5564 0.4154
44.4000 29.5697 0.4059
44.4200 29.5831 0.3962
44.4400 29.5965 0.4081
44.4600 29.6098 0.3957
44.4800 29.6231 0.3991
44.5000 29.6364 0.4113
44.5200 29.6498 0.3953
44.5400 29.6631 0.3932
44.5600 29.6764 0.4059
44.5800 29.6897 0.3997
44.6000 29.7031 0.3944
44.6200 29.7164 0.4017
44.6400 29.7297 0.3868
44.6600 29.7430 0.4001
44.6800 29.7563 0.4042
44.7000 29.7697 0.3832
44.7200 29.7830 0.3906
44.7400 29.7964 0.4058
44.7600 29.8097 0.3832
44.7800 29.8231 0.3950
44.8000 29.8364 0.3997
44.8200 29.8497 0.3834
44.8400 29.8631 0.3948
44.8600 29.8765 0.3973
44.8800 29.8898 0.3764
44.9000 29.9031 0.3989
44.9200 29.9164 0.3929
44.9400 29.9297 0.3757
44.9600 29.9431 0.3976
44.9800 29.9564 0.3955
45.0000 29.9697 0.3747
45.0200 29.9830 0.3959
45.0400 29.9963 0.3873
45.0600 30.0097 0.3771
45.0800 30.0231 0.3926
45.1000 30.0364 0.3864
45.1200 30.0498 0.3752
45.1400 30.0631 0.3873
45.1600 30.0765 0.3837
45.1800 30.0898 0.3750
45.2000 30.1031 0.3901
45.2200 30.1164 0.3857
45.2400 30.1298 0.3760
45.2600 30.1431 0.3796
45.2800 30.1564 0.3856
45.3000 30.1697 0.3761
45.3200 30.1830 0.3808
45.3400 30.1964 0.3816
45.3600 30.2097 0.3765
45.3800 30.2230 0.3751
45.4000 30.2363 0.3806
45.4200 30.2497 0.3725
45.4400 30.2630 0.3733
45.4600 30.2764 0.3827
45.4800 30.2897 0.3698
45.5000 30.3031 0.3739
45.5200 30.3165 0.3800
45.5400 30.3298 0.3682
45.5600 30.3431 0.3739
45.5800 30.3565 0.3819
45.6000 30.3698 0.3640
45.6200 30.3831 0.3751
45.6400 30.3964 0.3775
45.6600 30.4097 0.3658
45.6800 30.4230 0.3712
45.7000 30.4364 0.3784
45.7200 30.4497 0.3615
45.7400 30.4630 0.3722
45.7600 30.4764 0.3751
45.7800 30.4897 0.3586
45.8000 30.5031 0.3706
45.8200 30.5164 0.3795
45.8400 30.5297 0.3547
45.8600 30.5431 0.3738
45.8800 30.5564 0.3794
45.9000 30.5698 0.3542
45.9200 30.5830 0.3718
45.9400 30.5964 0.3772
45.9600 30.6097 0.3587
45.9800 30.6231 0.3689
46.0000 30.6365 0.3697
46.0200 30.6498 0.3602
46.0400 30.6631 0.3654
46.0600 30.6765 0.3730
46.0800 30.6898 0.3576
46.1000 30.7030 0.3708
46.1200 30.7163 0.3672
46.1400 30.7297 0.3553
46.1600 30.7430 0.3697
46.1800 30.7564 0.3677
46.2000 30.7697 0.3588
46.2200 30.7831 0.3648
46.2400 30.7964 0.3649
46.2600 30.8098 0.3573
46.2800 30.8231 0.3648
46.3000 30.8364 0.3619
46.3200 30.8498 0.3568
46.3400 30.8631 0.3604
46.3600 30.8764 0.3635
46.3800 30.8897 0.3586
46.4000 30.9031 0.3660
46.4200 30.9164 0.3572
46.4400 30.9298 0.3578
46.4600 30.9430 0.3622
46.4800 30.9564 0.3628
46.5000 30.9697 0.3573
46.5200 30.9830 0.3647
46.5400 30.9963 0.3552
46.5600 31.0097 0.3629
46.5800 31.0231 0.3638
46.6000 31.0365 0.3533
46.6200 31.0498 0.3613
46.6400 31.0631 0.3642
46.6600 31.0764 0.3527
46.6800 31.0898 0.3612
46.7000 31.1031 0.3626
46.7200 31.1164 0.3505
46.7400 31.1297 0.3593
46.7600 31.1431 0.3609
46.7800 31.1564 0.3503
46.8000 31.1697 0.3623
46.8200 31.1830 0.3577
46.8400 31.1964 0.3483
46.8600 31.2097 0.3630
46.8800 31.2231 0.3544
46.9000 31.2364 0.3524
46.9200 31.2497 0.3631
46.9400 31.2631 0.3551
46.9600 31.2764 0.3489
46.9800 31.2898 0.3637
47.0000 31.3031 0.3534
47.0200 31.3164 0.3530
47.0400 31.3298 0.3655
47.0600 31.3431 0.3464
47.0800 31.3564 0.3529
47.1000 31.3697 0.3688
47.1200 31.3831 0.3479
47.1400 31.3964 0.3550
47.1600 31.4097 0.3622
47.1800 31.4230 0.3462
47.2000 31.4363 0.3502
47.2200 31.4497 0.3649
47.2400 31.4630 0.3510
47.2600 31.4764 0.3508
47.2800 31.4897 0.3611
47.3000 31.5031 0.3477
47.3200 31.5164 0.3497
47.3400 31.5298 0.3568
47.3600 31.5431 0.3505
47.3800 31.5564 0.3471
47.4000 31.5698 0.3545
47.4200 31.5831 0.3478
47.4400 31.5964 0.3533
47.4600 31.6097 0.3552
47.4800 31.6230 0.3482
47.5000 31.6364 0.3476
47.5200 31.6497 0.3523
47.5400 31.6630 0.3500
47.5600 31.6764 0.3504
47.5800 31.6897 0.3483
47.6000 31.7030 0.3432
47.6200 31.7164 0.3449
47.6400 31.7297 0.3485
47.6600 31.7431 0.3435
47.6800 31.7565 0.3464
47.7000 31.7698 0.3451
47.7200 31.7831 0.3422
47.7400 31.7964 0.3375
47.7600 31.8098 0.3419
47.7800 31.8231 0.3429
47.8000 31.8364 0.3360
47.8200 31.8497 0.3427
47.8400 31.8630 0.3432
47.8600 31.8764 0.3360
47.8800 31.8897 0.3376
47.9000 31.9030 0.3434
47.9200 31.9164 0.3292
47.9400 31.9297 0.3401
47.9600 31.9430 0.3377
47.9800 31.9564 0.3283
48.0000 31.9697 0.3427
48.0200 31.9830 0.3352
48.0400 31.9964 0.3214
48.0600 32.0097 0.3444
48.0800 32.0231 0.3268
48.1000 32.0364 0.3262
48.1200 32.0497 0.3390
48.1400 32.0631 0.3254
48.1600 32.0764 0.3243
48.1800 32.0897 0.3390
48.2000 32.1031 0.3206
48.2200 32.1164 0.3287
48.2400 32.1298 0.3355
48.2600 32.1430 0.3186
48.2800 32.1563 0.3310
48.3000 32.1697 0.3367
48.3200 32.1830 0.3169
48.3400 32.1963 0.3249
48.3600 32.2097 0.3282
48.3800 32.2230 0.3225
48.4000 32.2365 0.3265
48.4200 32.2498 0.3209
48.4400 32.2631 0.3233
48.4600 32.2764 0.3269
48.4800 32.2898 0.3192
48.5000 32.3032 0.3221
48.5200 32.3165 0.3284
48.5400 32.3298 0.3185
48.5600 32.3431 0.3231
48.5800 32.3564 0.3192
48.6000 32.3697 0.3195
48.6200 32.3830 0.3248
48.6400 32.3963 0.3206
48.6600 32.4097 0.3194
48.6800 32.4230 0.3219
48.7000 32.4364 0.3125
48.7200 32.4497 0.3196
48.7400 32.4631 0.3220
48.7600 32.4764 0.3101
48.7800 32.4898 0.3165
48.8000 32.5031 0.3222
48.8200 32.5165 0.3069
48.8400 32.5298 0.3153
48.8600 32.5431 0.3209
48.8800 32.5564 0.3069
48.9000 32.5697 0.3184
48.9200 32.5830 0.3194
48.9400 32.5964 0.3042
48.9600 32.6097 0.3113
48.9800 32.6230 0.3164
49.0000 32.6363 0.3046
49.0200 32.6497 0.3126
49.0400 32.6630 0.3124
49.0600 32.6764 0.3030
49.0800 32.6897 0.3144
49.1000 32.7030 0.3133
49.1200 32.7164 0.2975
49.1400 32.7298 0.3148
49.1600 32.7431 0.3087
49.1800 32.7564 0.3004
49.2000 32.7698 0.3088
49.2200 32.7831 0.3084
49.2400 32.7964 0.2959
49.2600 32.8097 0.3109
49.2800 32.8231 0.3036
49.3000 32.8364 0.3025
49.3200 32.8498 0.3043
49.3400 32.8630 0.3025
49.3600 32.8763 0.3047
49.3800 32.8897 0.3069
49.4000 32.9030 0.2992
49.4200 32.9164 0.3039
49.4400 32.9297 0.3078
49.4600 32.9431 0.3015
49.4800 32.9565 0.3010
49.5000 32.9698 0.3044
49.5200 32.9831 0.3052
49.5400 32.9964 0.2998
49.5600 33.0098 0.3048
49.5800 33.0231 0.3000
49.6000 33.0364 0.3043
49.6200 33.0497 0.3058
49.6400 33.0630 0.3030
49.6600 33.0764 0.2960
49.6800 33.0897 0.3031
49.7000 33.1031 0.3003
49.7200 33.1164 0.2986
49.7400 33.1297 0.3053
49.7600 33.1430 0.2988
49.7800 33.1564 0.2927
49.8000 33.1697 0.3052
49.8200 33.1830 0.2929
49.8400 33.1964 0.2984
49.8600 33.2098 0.3058
49.8800 33.2231 0.2941
49.9000 33.2364 0.2943
49.9200 33.2498 0.3049
49.9400 33.2631 0.2911
49.9600 33.2765 0.2963
49.9800 33.2898 0.3042
50.0000 33.3031 0.2873
50.0200 33.3164 0.2935
50.0400 33.3297 0.2991
50.0600 33.3431 0.2894
50.0800 33.3564 0.2956
50.1000 33.3697 0.2999
50.1200 33.3830 0.2830
50.1400 33.3964 0.2931
50.1600 33.4097 0.2968
50.1800 33.4230 0.2864
50.2000 33.4364 0.2922
50.2200 33.4498 0.2930
50.2400 33.4631 0.2790
50.2600 33.4764 0.2927
50.2800 33.4897 0.2889
50.3000 33.5031 0.2833
50.3200 33.5164 0.2916
50.3400 33.5297 0.2859
50.3600 33.5431 0.2807
50.3800 33.5564 0.2897
50.4000 33.5698 0.2800
50.4200 33.5831 0.2791
50.4400 33.5964 0.2903
50.4600 33.6097 0.2723
50.4800 33.6230 0.2825
50.5000 33.6363 0.2888
50.5200 33.6497 0.2703
50.5400 33.6630 0.2850
50.5600 33.6764 0.2763
50.5800 33.6898 0.2673
50.6000 33.7031 0.2858
50.6200 33.7165 0.2762
50.6400 33.7298 0.2716
50.6600 33.7431 0.2811
50.6800 33.7564 0.2740
50.7000 33.7697 0.2717
50.7200 33.7830 0.2880
50.7400 33.7964 0.2697
50.7600 33.8097 0.2692
50.7800 33.8230 0.2852
50.8000 33.8363 0.2681
50.8200 33.8497 0.2695
50.8400 33.8631 0.2855
50.8600 33.8764 0.2627
50.8800 33.8897 0.2724
50.9000 33.9031 0.2801
50.9200 33.9164 0.2656
50.9400 33.9298 0.2699
50.9600 33.9431 0.2806
50.9800 33.9564 0.2587
51.0000 33.9697 0.2682
51.0200 33.9831 0.2811
51.0400 33.9964 0.2577
51.0600 34.0097 0.2722
51.0800 34.0230 0.2785
51.1000 34.0364 0.2589
51.1200 34.0497 0.2734
51.1400 34.0630 0.2751
51.1600 34.0763 0.2641
51.1800 34.0897 0.2720
51.2000 34.1030 0.2759
51.2200 34.1164 0.2673
51.2400 34.1297 0.2671
51.2600 34.1431 0.2805
51.2800 34.1564 0.2593
51.3000 34.1698 0.2722
51.3200 34.1831 0.2816
51.3400 34.1964 0.2623
51.3600 34.2098 0.2705
51.3800 34.2231 0.2856
51.4000 34.2365 0.2601
51.4200 34.2498 0.2684
51.4400 34.2631 0.2844
51.4600 34.2764 0.2589
51.4800 34.2898 0.2688
51.5000 34.3031 0.2871
51.5200 34.3163 0.2591
51.5400 34.3297 0.2762
51.5600 34.3430 0.2796
51.5800 34.3564 0.2498
51.6000 34.3697 0.2751
51.6200 34.3830 0.2797
51.6400 34.3964 0.2500
51.6600 34.4098 0.2735
51.6800 34.4231 0.2763
51.7000 34.4365 0.2465
51.7200 34.4498 0.2753
51.7400 34.4631 0.2692
51.7600 34.4764 0.2446
51.7800 34.4897 0.2711
51.8000 34.5030 0.2682
51.8200 34.5164 0.2494
51.8400 34.5297 0.2772
51.8600 34.5431 0.2607
51.8800 34.5564 0.2468
51.9000 34.5697 0.2719
51.9200 34.5830 0.2595
51.9400 34.5964 0.2510
51.9600 34.6097 0.2684
51.9800 34.6230 0.2538
52.0000 34.6364 0.2514
52.0200 34.6497 0.2660
52.0400 34.6631 0.2538
52.0600 34.6764 0.2503
52.0800 34.6897 0.2666
52.1000 34.7031 0.2492
52.1200 34.7165 0.2483
52.1400 34.7298 0.2638
52.1600 34.7431 0.2479
52.1800 34.7564 0.2542
52.2000 34.7697 0.2581
52.2200 34.7830 0.2458
52.2400 34.7963 0.2489
52.2600 34.8097 0.2665
52.2800 34.8230 0.2472
52.3000 34.8364 0.2495
52.3200 34.8497 0.2562
52.3400 34.8630 0.2485
52.3600 34.8764 0.2541
52.3800 34.8898 0.2546
52.4000 34.9031 0.2428
52.4200 34.9164 0.2528
52.4400 34.9297 0.2554
52.4600 34.9431 0.2469
52.4800 34.9564 0.2544
52.5000 34.9698 0.2573
52.5200 34.9831 0.2461
52.5400 34.9964 0.2554
52.5600 35.0097 0.2522
52.5800 35.0231 0.2517
52.6000 35.0364 0.2511
52.6200 35.0497 0.2496
52.6400 35.0630 0.2513
52.6600 35.0764 0.2485
52.6800 35.0897 0.2463
52.7000 35.1030 0.2545
52.7200 35.1164 0.2469
52.7400 35.1298 0.2470
52.7600 35.1431 0.2504
52.7800 35.1564 0.2414
52.8000 35.1698 0.2469
52.8200 35.1831 0.2488
52.8400 35.1965 0.2376
52.8600 35.2097 0.2475
52.8800 35.2230 0.2546
52.9000 35.2363 0.2379
52.9200 35.2497 0.2472
52.9400 35.2630 0.2464
52.9600 35.2763 0.2381
52.9800 35.2897 0.2455
53.0000 35.3031 0.2473
53.0200 35.3164 0.2344
53.0400 35.3298 0.2466
53.0600 35.3431 0.2411
53.0800 35.3564 0.2339
53.1000 35.3698 0.2458
53.1200 35.3831 0.2385
53.1400 35.3964 0.2373
53.1600 35.4097 0.2431
53.1800 35.4231 0.2303
53.2000 35.4364 0.2392
53.2200 35.4498 0.2428
53.2400 35.4631 0.2301
53.2600 35.4764 0.2392
53.2800 35.4898 0.2370
53.3000 35.5031 0.2282
53.3200 35.5164 0.2452
53.3400 35.5297 0.2338
53.3600 35.5430 0.2273
53.3800 35.5564 0.2440
53.4000 35.5697 0.2286
53.4200 35.5830 0.2310
53.4400 35.5964 0.2430
53.4600 35.6097 0.2280
53.4800 35.6231 0.2279
53.5000 35.6364 0.2419
53.5200 35.6497 0.2271
53.5400 35.6631 0.2299
53.5600 35.6765 0.2325
53.5800 35.6898 0.2230
53.6000 35.7031 0.2324
53.6200 35.7164 0.2321
53.6400 35.7298 0.2204
53.6600 35.7431 0.2310
53.6800 35.7564 0.2292
53.7000 35.7697 0.2189
53.7200 35.7830 0.2252
53.7400 35.7964 0.2234
53.7600 35.8097 0.2184
53.7800 35.8230 0.2257
53.8000 35.8364 0.2232
53.8200 35.8498 0.2202
53.8400 35.8631 0.2196
53.8600 35.8764 0.2177
53.8800 35.8898 0.2162
53.9000 35.9031 0.2171
53.9200 35.9165 0.2172
53.9400 35.9298 0.2158
53.9600 35.9431 0.2189
53.9800 35.9564 0.2160
54.0000 35.9697 0.2170
54.0200 35.9831 0.2105
54.0400 35.9964 0.2148
54.0600 36.0097 0.2163
54.0800 36.0230 0.2121
54.1000 36.0364 0.2072
54.1200 36.0497 0.2173
54.1400 36.0631 0.2065
54.1600 36.0764 0.2108
54.1800 36.0898 0.2131
54.2000 36.1031 0.2084
54.2200 36.1164 0.2119
54.2400 36.1298 0.2131
54.2600 36.1431 0.2056
54.2800 36.1565 0.2096
54.3000 36.1698 0.2128
54.3200 36.1831 0.2028
54.3400 36.1964 0.2105
54.3600 36.2097 0.2101
54.3800 36.2231 0.2002
54.4000 36.2364 0.2108
54.4200 36.2497 0.2074
54.4400 36.2630 0.2031
54.4600 36.2764 0.2122
54.4800 36.2897 0.2005
54.5000 36.3030 0.2041
54.5200 36.3164 0.2067
54.5400 36.3298 0.1966
54.5600 36.3431 0.2013
54.5800 36.3565 0.2094
54.6000 36.3698 0.1951
54.6200 36.3831 0.2051
54.6400 36.3965 0.2016
54.6600 36.4098 0.1932
54.6800 36.4231 0.2074
54.7000 36.4364 0.1988
54.7200 36.4497 0.1905
54.7400 36.4631 0.2083
54.7600 36.4764 0.1932
54.7800 36.4897 0.1914
54.8000 36.5030 0.2093
54.8200 36.5164 0.1877
54.8400 36.5297 0.1859
54.8600 36.5430 0.2049
54.8800 36.5564 0.1875
54.9000 36.5697 0.1869
54.9200 36.5831 0.2008
54.9400 36.5964 0.1832
54.9600 36.6097 0.1876
54.9800 36.6231 0.1968
55.0000 36.6365 0.1836
55.0200 36.6498 0.1870
55.0400 36.6631 0.1938
55.0600 36.6764 0.1752
55.0800 36.6897 0.1906
55.1000 36.7030 0.1898
55.1200 36.7163 0.1773
55.1400 36.7296 0.1873
55.1600 36.7430 0.1918
55.1800 36.7564 0.1760
55.2000 36.7697 0.1904
55.2200 36.7830 0.1857
55.2400 36.7964 0.1799
55.2600 36.8097 0.1887
55.2800 36.8231 0.1839
55.3000 36.8364 0.1799
55.3200 36.8497 0.1926
55.3400 36.8631 0.1787
55.3600 36.8764 0.1793
55.3800 36.8898 0.1845
55.4000 36.9031 0.1807
55.4200 36.9164 0.1761
55.4400 36.9297 0.1919
55.4600 36.9431 0.1781
55.4800 36.9564 0.1766
55.5000 36.9697 0.1883
55.5200 36.9830 0.1743
55.5400 36.9963 0.1770
55.5600 37.0097 0.1874
55.5800 37.0230 0.1798
55.6000 37.0364 0.1758
55.6200 37.0498 0.1827
55.6400 37.0632 0.1731
55.6600 37.0765 0.1757
55.6800 37.0898 0.1845
55.7000 37.1031 0.1751
55.7200 37.1165 0.1680
55.7400 37.1298 0.1873
55.7600 37.1431 0.1725
55.7800 37.1564 0.1695
55.8000 37.1697 0.1853
55.8200 37.1831 0.1752
55.8400 37.1964 0.1689
55.8600 37.2097 0.1873
55.8800 37.2230 0.1728
55.9000 37.2364 0.1658
55.9200 37.2497 0.1810
55.9400 37.2630 0.1754
55.9600 37.2764 0.1692
55.9800 37.2897 0.1808
56.0000 37.3031 0.1643
56.0200 37.3165 0.1673
56.0400 37.3298 0.1850
56.0600 37.3431 0.1679
56.0800 37.3565 0.1617
56.1000 37.3698 0.1767
56.1200 37.3831 0.1685
56.1400 37.3964 0.1579
56.1600 37.4097 0.1796
56.1800 37.4231 0.1677
56.2000 37.4364 0.1588
56.2200 37.4497 0.1718
56.2400 37.4630 0.1636
56.2600 37.4764 0.1571
56.2800 37.4897 0.1667
56.3000 37.5031 0.1569
56.3200 37.5164 0.1595
56.3400 37.5297 0.1634
56.3600 37.5431 0.1601
56.3800 37.5564 0.1569
56.4000 37.5697 0.1612
56.4200 37.5831 0.1540
56.4400 37.5964 0.1552
56.4600 37.6098 0.1580
56.4800 37.6231 0.1571
56.5000 37.6364 0.1501
56.5200 37.6497 0.1527
56.5400 37.6631 0.1591
56.5600 37.6764 0.1413
56.5800 37.6897 0.1526
56.6000 37.7030 0.1556
56.6200 37.7163 0.1424
56.6400 37.7297 0.1491
56.6600 37.7430 0.1480
56.6800 37.7564 0.1416
56.7000 37.7698 0.1494
56.7200 37.7831 0.1444
56.7400 37.7965 0.1446
56.7600 37.8098 0.1518
56.7800 37.8231 0.1377
56.8000 37.8364 0.1490
56.8200 37.8498 0.1539
56.8400 37.8631 0.1252
56.8600 37.8764 0.1506
56.8800 37.8897 0.1503
56.9000 37.9031 0.1348
56.9200 37.9164 0.1471
56.9400 37.9297 0.1458
56.9600 37.9430 0.1354
56.9800 37.9564 0.1493
57.0000 37.9697 0.1413
57.0200 37.9830 0.1420
57.0400 37.9964 0.1481
57.0600 38.0097 0.1410
57.0800 38.0231 0.1408
57.1000 38.0365 0.1414
57.1200 38.0498 0.1389
57.1400 38.0631 0.1495
57.1600 38.0765 0.1370
57.1800 38.0898 0.1366
57.2000 38.1031 0.1502
57.2200 38.1164 0.1353
57.2400 38.1297 0.1394
57.2600 38.1431 0.1455
57.2800 38.1564 0.1337
57.3000 38.1697 0.1379
57.3200 38.1830 0.1450
57.3400 38.1963 0.1313
57.3600 38.2097 0.1404
57.3800 38.2230 0.1375
57.4000 38.2364 0.1326
57.4200 38.2497 0.1410
57.4400 38.2631 0.1398
57.4600 38.2764 0.1254
57.4800 38.2898 0.1413
57.5000 38.3031 0.1335
57.5200 38.3164 0.1253
57.5400 38.3298 0.1370
57.5600 38.3431 0.1319
57.5800 38.3564 0.1212
57.6000 38.3697 0.1402
57.6200 38.3831 0.1228
57.6400 38.3964 0.1205
57.6600 38.4097 0.1426
57.6800 38.4230 0.1161
57.7000 38.4363 0.1207
57.7200 38.4497 0.1421
57.7400 38.4630 0.1126
57.7600 38.4763 0.1195
57.7800 38.4897 0.1399
57.8000 38.5031 0.1090
57.8200 38.5165 0.1210
57.8400 38.5298 0.1358
57.8600 38.5431 0.1083
57.8800 38.5565 0.1219
57.9000 38.5698 0.1309
57.9200 38.5831 0.0995
57.9400 38.5964 0.1267
57.9600 38.6097 0.1241
57.9800 38.6230 0.1023
58.0000 38.6364 0.1259
58.0200 38.6497 0.1133
58.0400 38.6630 0.0994
58.0600 38.6764 0.1278
58.0800 38.6897 0.1112
58.1000 38.7031 0.1052
58.1200 38.7164 0.1196
58.1400 38.7298 0.1075
58.1600 38.7431 0.1034
58.1800 38.7565 0.1128
58.2000 38.7698 0.1062
58.2200 38.7831 0.1049
58.2400 38.7964 0.1070
58.2600 38.8098 0.1037
58.2800 38.8231 0.1036
58.3000 38.8364 0.1006
58.3200 38.8497 0.1022
58.3400 38.8631 0.0988
58.3600 38.8764 0.0906
58.3800 38.8897 0.1028
58.4000 38.9030 0.0954
58.4200 38.9164 0.0836
58.4400 38.9297 0.1093
58.4600 38.9431 0.0789
58.4800 38.9564 0.0876
58.5000 38.9698 0.1072
58.5200 38.9831 0.0711
58.5400 38.9965 0.0830
58.5600 39.0098 0.1041
58.5800 39.0231 0.0668
58.6000 39.0364 0.0878
58.6200 39.0498 0.0956
58.6400 39.0631 0.0631
58.6600 39.0764 0.0854
58.6800 39.0897 0.0942
58.7000 39.1031 0.0571
58.7200 39.1164 0.0870
58.7400 39.1297 0.0850
58.7600 39.1430 0.0630
58.7800 39.1563 0.0866
58.8000 39.1697 0.0802
58.8200 39.1830 0.0601
58.8400 39.1964 0.0856
58.8600 39.2097 0.0762
58.8800 39.2231 0.0623
58.9000 39.2365 0.0827
58.9200 39.2498 0.0656
58.9400 39.2631 0.0671
58.9600 39.2764 0.0807
58.9800 39.2898 0.0623
59.0000 39.3031 0.0697
59.0200 39.3164 0.0784
59.0400 39.3297 0.0552
59.0600 39.3431 0.0702
59.0800 39.3564 0.0719
59.1000 39.3697 0.0549
59.1200 39.3830 0.0688
59.1400 39.3964 0.0683
59.1600 39.4097 0.0542
59.1800 39.4230 0.0721
59.2000 39.4364 0.0614
59.2200 39.4497 0.0498
59.2400 39.4631 0.0685
59.2600 39.4764 0.0599
59.2800 39.4897 0.0511
59.3000 39.5031 0.0703
59.3200 39.5164 0.0536
59.3400 39.5298 0.0534
59.3600 39.5431 0.0683
59.3800 39.5564 0.0521
59.4000 39.5697 0.0555
59.4200 39.5830 0.0673
59.4400 39.5964 0.0547
59.4600 39.6097 0.0536
59.4800 39.6230 0.0677
59.5000 39.6363 0.0523
59.5200 39.6497 0.0573
59.5400 39.6630 0.0658
59.5600 39.6764 0.0545
59.5800 39.6897 0.0575
59.6000 39.7031 0.0641
59.6200 39.7165 0.0508
59.6400 39.7298 0.0577
59.6600 39.7431 0.0649
59.6800 39.7564 0.0551
59.7000 39.7698 0.0590
59.7200 39.7831 0.0610
59.7400 39.7964 0.0494
59.7600 39.8097 0.0637
59.7800 39.8231 0.0650
59.8000 39.8364 0.0492
59.8200 39.8497 0.0556
59.8400 39.8630 0.0604
59.8600 39.8763 0.0566
59.8800 39.8897 0.0554
59.9000 39.9030 0.0529
59.9200 39.9163 0.0507
59.9400 39.9297 0.0536
59.9600 39.9431 0.0497
59.9800 39.9565 0.0477
60.0000 39.9698 0.0500
60.0200 39.9831 0.0458
60.0400 39.9964 0.0364
60.0460 40.0003 0.0238
