Raw Data
Time Displacement Force
(s) (mm) (N)
0.0000 0.0000 0.4083
0.0200 0.0001 0.4302
0.0400 0.0021 0.5136
0.0600 0.0098 0.4955
0.0800 0.0217 0.4227
0.1000 0.0342 0.4264
0.1200 0.0468 0.4529
0.1400 0.0602 0.4301
0.1600 0.0742 0.4331
0.1800 0.0884 0.4336
0.2000 0.1023 0.4193
0.2200 0.1160 0.4228
0.2400 0.1293 0.4323
0.2600 0.1426 0.4214
0.2800 0.1559 0.4315
0.3000 0.1693 0.4266
0.3200 0.1827 0.4163
0.3400 0.1960 0.4260
0.3600 0.2093 0.4268
0.3800 0.2227 0.4175
0.4000 0.2360 0.4227
0.4200 0.2493 0.4181
0.4400 0.2626 0.4201
0.4600 0.2760 0.4205
0.4800 0.2893 0.4186
0.5000 0.3027 0.4155
0.5200 0.3160 0.4162
0.5400 0.3293 0.4181
0.5600 0.3426 0.4163
0.5800 0.3560 0.4206
0.6000 0.3694 0.4141
0.6200 0.3827 0.4110
0.6400 0.3960 0.4186
0.6600 0.4094 0.4120
0.6800 0.4227 0.4130
0.7000 0.4361 0.4137
0.7200 0.4494 0.4097
0.7400 0.4627 0.4093
0.7600 0.4761 0.4132
0.7800 0.4894 0.4105
0.8000 0.5027 0.4039
0.8200 0.5160 0.4178
0.8400 0.5293 0.4031
0.8600 0.5427 0.4005
0.8800 0.5560 0.4110
0.9000 0.5692 0.4087
0.9200 0.5826 0.4030
0.9400 0.5959 0.4095
0.9600 0.6093 0.4010
0.9800 0.6226 0.4014
1.0000 0.6360 0.4105
1.0200 0.6493 0.4003
1.0400 0.6627 0.3958
1.0600 0.6760 0.4042
1.0800 0.6894 0.4001
1.1000 0.7027 0.3972
1.1200 0.7160 0.4037
1.1400 0.7294 0.3980
1.1600 0.7427 0.3930
1.1800 0.7560 0.4042
1.2000 0.7693 0.3998
1.2200 0.7827 0.3920
1.2400 0.7960 0.4045
1.2600 0.8093 0.3921
1.2800 0.8226 0.3888
1.3000 0.8360 0.4015
1.3200 0.8493 0.3915
1.3400 0.8626 0.3870
1.3600 0.8760 0.4019
1.3800 0.8893 0.3867
1.4000 0.9027 0.3882
1.4200 0.9160 0.3960
1.4400 0.9293 0.3879
1.4600 0.9427 0.3870
1.4800 0.9561 0.3944
1.5000 0.9694 0.3835
1.5200 0.9827 0.3868
1.5400 0.9960 0.3954
1.5600 1.0093 0.3826
1.5800 1.0226 0.3816
1.6000 1.0359 0.3901
1.6200 1.0493 0.3817
1.6400 1.0626 0.3852
1.6600 1.0760 0.3913
1.6800 1.0893 0.3782
1.7000 1.1026 0.3828
1.7200 1.1160 0.3851
1.7400 1.1294 0.3804
1.7600 1.1428 0.3818
1.7800 1.1561 0.3851
1.8000 1.1694 0.3772
1.8200 1.1827 0.3777
1.8400 1.1960 0.3853
1.8600 1.2094 0.3814
1.8800 1.2227 0.3759
1.9000 1.2360 0.3817
1.9200 1.2493 0.3772
1.9400 1.2627 0.3741
1.9600 1.2760 0.3831
1.9800 1.2893 0.3793
2.0000 1.3026 0.3752
2.0200 1.3160 0.3808
2.0400 1.3293 0.3706
2.0600 1.3426 0.3724
2.0800 1.3560 0.3798
2.1000 1.3693 0.3684
2.1200 1.3827 0.3686
2.1400 1.3961 0.3731
2.1600 1.4094 0.3695
2.1800 1.4227 0.3794
2.2000 1.4360 0.3723
2.2200 1.4494 0.3663
2.2400 1.4627 0.3749
2.2600 1.4760 0.3737
2.2800 1.4893 0.3672
2.3000 1.5026 0.3739
2.3200 1.5160 0.3706
2.3400 1.5293 0.3594
2.3600 1.5426 0.3789
2.3800 1.5560 0.3645
2.4000 1.5694 0.3612
2.4200 1.5827 0.3718
2.4400 1.5960 0.3634
2.4600 1.6093 0.3627
2.4800 1.6227 0.3750
2.5000 1.6360 0.3615
2.5200 1.6493 0.3673
2.5400 1.6626 0.3703
2.5600 1.6760 0.3573
2.5800 1.6894 0.3636
2.6000 1.7027 0.3708
2.6200 1.7160 0.3547
2.6400 1.7294 0.3626
2.6600 1.7427 0.3664
2.6800 1.7560 0.3523
2.7000 1.7693 0.3658
2.7200 1.7826 0.3592
2.7400 1.7960 0.3554
2.7600 1.8093 0.3649
2.7800 1.8226 0.3540
2.8000 1.8359 0.3551
2.8200 1.8493 0.3691
2.8400 1.8627 0.3526
2.8600 1.8760 0.3569
2.8800 1.8894 0.3574
2.9000 1.9027 0.3545
2.9200 1.9160 0.3576
2.9400 1.9294 0.3573
2.9600 1.9427 0.3507
2.9800 1.9560 0.3560
3.0000 1.9693 0.3496
3.0200 1.9827 0.3499
3.0400 1.9960 0.3544
3.0600 2.0093 0.3502
3.0800 2.0226 0.3533
3.1000 2.0359 0.3540
3.1200 2.0493 0.3404
3.1400 2.0626 0.3534
3.1600 2.0760 0.3495
3.1800 2.0893 0.3414
3.2000 2.1027 0.3513
3.2200 2.1161 0.3449
3.2400 2.1294 0.3423
3.2600 2.1427 0.3561
3.2800 2.1561 0.3436
3.3000 2.1694 0.3371
3.3200 2.1827 0.3529
3.3400 2.1960 0.3402
3.3600 2.2093 0.3405
3.3800 2.2227 0.3512
3.4000 2.2360 0.3398
3.4200 2.2493 0.3403
3.4400 2.2626 0.3483
3.4600 2.2760 0.3372
3.4800 2.2893 0.3417
3.5000 2.3027 0.3431
3.5200 2.3160 0.3334
3.5400 2.3293 0.3397
3.5600 2.3427 0.3472
3.5800 2.3560 0.3312
3.6000 2.3694 0.3343
3.6200 2.3827 0.3386
3.6400 2.3961 0.3320
3.6600 2.4094 0.3320
3.6800 2.4227 0.3378
3.7000 2.4360 0.3306
3.7200 2.4493 0.3327
3.7400 2.4627 0.3349
3.7600 2.4760 0.3282
3.7800 2.4893 0.3289
3.8000 2.5026 0.3382
3.8200 2.5159 0.3286
3.8400 2.5293 0.3217
3.8600 2.5426 0.3363
3.8800 2.5560 0.3223
3.9000 2.5693 0.3285
3.9200 2.5827 0.3328
3.9400 2.5961 0.3170
3.9600 2.6094 0.3220
3.9800 2.6227 0.3377
4.0000 2.6360 0.3219
4.0200 2.6494 0.3239
4.0400 2.6627 0.3342
4.0600 2.6760 0.3183
4.0800 2.6893 0.3210
4.1000 2.7027 0.3345
4.1200 2.7160 0.3143
4.1400 2.7293 0.3221
4.1600 2.7426 0.3316
4.1800 2.7559 0.3153
4.2000 2.7693 0.3214
4.2200 2.7826 0.3289
4.2400 2.7959 0.3106
4.2600 2.8093 0.3218
4.2800 2.8227 0.3235
4.3000 2.8361 0.3071
4.3200 2.8494 0.3215
4.3400 2.8627 0.3252
4.3600 2.8760 0.3050
4.3800 2.8894 0.3157
4.4000 2.9027 0.3245
4.4200 2.9160 0.3061
4.4400 2.9293 0.3199
4.4600 2.9426 0.3178
4.4800 2.9560 0.3024
4.5000 2.9693 0.3163
4.5200 2.9826 0.3189
4.5400 2.9960 0.3013
4.5600 3.0093 0.3195
4.5800 3.0226 0.3116
4.6000 3.0360 0.3014
4.6200 3.0493 0.3184
4.6400 3.0627 0.3148
4.6600 3.0760 0.3008
4.6800 3.0893 0.3165
4.7000 3.1027 0.3048
4.7200 3.1160 0.3036
4.7400 3.1294 0.3130
4.7600 3.1427 0.3014
4.7800 3.1561 0.3071
4.8000 3.1694 0.3113
4.8200 3.1827 0.3010
4.8400 3.1961 0.3047
4.8600 3.2093 0.3091
4.8800 3.2226 0.3016
4.9000 3.2359 0.3064
4.9200 3.2492 0.3065
4.9400 3.2626 0.3010
4.9600 3.2759 0.3048
4.9800 3.2893 0.3094
5.0000 3.3027 0.2946
5.0200 3.3161 0.3040
5.0400 3.3294 0.3014
5.0600 3.3427 0.2989
5.0800 3.3561 0.3040
5.1000 3.3694 0.3023
5.1200 3.3827 0.2943
5.1400 3.3960 0.3015
5.1600 3.4093 0.2970
5.1800 3.4226 0.3000
5.2000 3.4360 0.3000
5.2200 3.4493 0.2960
5.2400 3.4626 0.2954
5.2600 3.4759 0.2992
5.2800 3.4893 0.2924
5.3000 3.5026 0.2949
5.3200 3.5160 0.2934
5.3400 3.5293 0.2949
5.3600 3.5427 0.2929
5.3800 3.5561 0.2899
5.4000 3.5694 0.2924
5.4200 3.5827 0.2906
5.4400 3.5961 0.2924
5.4600 3.6094 0.2907
5.4800 3.6227 0.2898
5.5000 3.6360 0.2918
5.5200 3.6493 0.2849
5.5400 3.6626 0.2889
5.5600 3.6760 0.2899
5.5800 3.6893 0.2808
5.6000 3.7026 0.2934
5.6200 3.7159 0.2867
5.6400 3.7293 0.2818
5.6600 3.7427 0.2849
5.6800 3.7560 0.2877
5.7000 3.7693 0.2795
5.7200 3.7827 0.2862
5.7400 3.7960 0.2813
5.7600 3.8094 0.2810
5.7800 3.8227 0.2868
5.8000 3.8360 0.2792
5.8200 3.8494 0.2828
5.8400 3.8627 0.2871
5.8600 3.8760 0.2798
5.8800 3.8894 0.2774
5.9000 3.9027 0.2790
5.9200 3.9160 0.2781
5.9400 3.9293 0.2774
5.9600 3.9426 0.2784
5.9800 3.9559 0.2795
6.0000 3.9693 0.2780
6.0200 3.9827 0.2754
6.0400 3.9960 0.2776
6.0600 4.0093 0.2776
6.0800 4.0227 0.2683
6.1000 4.0361 0.2782
6.1200 4.0494 0.2744
6.1400 4.0627 0.2760
6.1600 4.0760 0.2768
6.1800 4.0894 0.2733
6.2000 4.1027 0.2678
6.2200 4.1160 0.2752
6.2400 4.1293 0.2714
6.2600 4.1426 0.2719
6.2800 4.1560 0.2731
6.3000 4.1693 0.2715
6.3200 4.1826 0.2692
6.3400 4.1959 0.2736
6.3600 4.2093 0.2704
6.3800 4.2226 0.2688
6.4000 4.2360 0.2736
6.4200 4.2493 0.2652
6.4400 4.2627 0.2654
6.4600 4.2760 0.2721
6.4800 4.2894 0.2697
6.5000 4.3027 0.2673
6.5200 4.3160 0.2640
6.5400 4.3294 0.2688
6.5600 4.3428 0.2699
6.5800 4.3561 0.2617
6.6000 4.3693 0.2725
6.6200 4.3827 0.2705
6.6400 4.3960 0.2637
6.6600 4.4093 0.2673
6.6800 4.4226 0.2645
6.7000 4.4359 0.2615
6.7200 4.4493 0.2727
6.7400 4.4626 0.2591
6.7600 4.4760 0.2603
6.7800 4.4893 0.2684
6.8000 4.5027 0.2611
6.8200 4.5160 0.2542
6.8400 4.5294 0.2670
6.8600 4.5427 0.2561
6.8800 4.5560 0.2588
6.9000 4.5693 0.2628
6.9200 4.5827 0.2526
6.9400 4.5960 0.2612
6.9600 4.6093 0.2639
6.9800 4.6227 0.2472
7.0000 4.6360 0.2602
7.0200 4.6493 0.2610
7.0400 4.6626 0.2443
7.0600 4.6759 0.2563
7.0800 4.6893 0.2593
7.1000 4.7026 0.2448
7.1200 4.7159 0.2526
7.1400 4.7293 0.2559
7.1600 4.7427 0.2449
7.1800 4.7561 0.2582
7.2000 4.7694 0.2513
7.2200 4.7828 0.2451
7.2400 4.7961 0.2572
7.2600 4.8094 0.2483
7.2800 4.8228 0.2403
7.3000 4.8360 0.2566
7.3200 4.8493 0.2493
7.3400 4.8626 0.2475
7.3600 4.8759 0.2504
7.3800 4.8893 0.2460
7.4000 4.9026 0.2379
7.4200 4.9160 0.2544
7.4400 4.9293 0.2477
7.4600 4.9427 0.2406
7.4800 4.9560 0.2461
7.5000 4.9694 0.2452
7.5200 4.9827 0.2378
7.5400 4.9961 0.2443
7.5600 5.0094 0.2449
7.5800 5.0227 0.2339
7.6000 5.0360 0.2440
7.6200 5.0494 0.2419
7.6400 5.0627 0.2343
7.6600 5.0760 0.2460
7.6800 5.0893 0.2401
7.7000 5.1026 0.2304
7.7200 5.1160 0.2444
7.7400 5.1293 0.2367
7.7600 5.1426 0.2339
7.7800 5.1559 0.2425
7.8000 5.1693 0.2386
7.8200 5.1826 0.2282
7.8400 5.1960 0.2460
7.8600 5.2093 0.2327
7.8800 5.2227 0.2313
7.9000 5.2360 0.2427
7.9200 5.2494 0.2289
7.9400 5.2627 0.2278
7.9600 5.2760 0.2460
7.9800 5.2894 0.2279
8.0000 5.3027 0.2250
8.0200 5.3161 0.2358
8.0400 5.3294 0.2281
8.0600 5.3427 0.2288
8.0800 5.3560 0.2360
8.1000 5.3693 0.2230
8.1200 5.3826 0.2257
8.1400 5.3959 0.2341
8.1600 5.4093 0.2187
8.1800 5.4226 0.2298
8.2000 5.4360 0.2299
8.2200 5.4493 0.2246
8.2400 5.4626 0.2219
8.2600 5.4760 0.2263
8.2800 5.4894 0.2249
8.3000 5.5027 0.2167
8.3200 5.5160 0.2229
8.3400 5.5294 0.2262
8.3600 5.5427 0.2148
8.3800 5.5560 0.2192
8.4000 5.5693 0.2239
8.4200 5.5826 0.2200
8.4400 5.5960 0.2153
8.4600 5.6093 0.2233
8.4800 5.6227 0.2137
8.5000 5.6360 0.2187
8.5200 5.6493 0.2203
8.5400 5.6626 0.2118
8.5600 5.6760 0.2199
8.5800 5.6893 0.2235
8.6000 5.7027 0.2081
8.6200 5.7160 0.2187
8.6400 5.7294 0.2199
8.6600 5.7427 0.2052
8.6800 5.7560 0.2212
8.7000 5.7694 0.2223
8.7200 5.7827 0.2099
8.7400 5.7961 0.2190
8.7600 5.8094 0.2195
8.7800 5.8227 0.2056
8.8000 5.8360 0.2229
8.8200 5.8493 0.2161
8.8400 5.8626 0.2074
8.8600 5.8759 0.2202
8.8800 5.8893 0.2185
8.9000 5.9026 0.2101
8.9200 5.9160 0.2217
8.9400 5.9293 0.2119
8.9600 5.9427 0.2125
8.9800 5.9561 0.2161
9.0000 5.9694 0.2104
9.0200 5.9827 0.2115
9.0400 5.9960 0.2210
9.0600 6.0093 0.2048
9.0800 6.0227 0.2098
9.1000 6.0360 0.2139
9.1200 6.0493 0.2061
9.1400 6.0626 0.2132
9.1600 6.0760 0.2114
9.1800 6.0893 0.2070
9.2000 6.1026 0.2088
9.2200 6.1159 0.2068
9.2400 6.1293 0.2111
9.2600 6.1426 0.2072
9.2800 6.1560 0.2033
9.3000 6.1693 0.2096
9.3200 6.1826 0.2018
9.3400 6.1960 0.2043
9.3600 6.2094 0.2080
9.3800 6.2227 0.2037
9.4000 6.2360 0.1956
9.4200 6.2494 0.2091
9.4400 6.2627 0.1968
9.4600 6.2760 0.2018
9.4800 6.2893 0.2096
9.5000 6.3026 0.1960
9.5200 6.3160 0.2020
9.5400 6.3293 0.2056
9.5600 6.3426 0.1931
9.5800 6.3560 0.2051
9.6000 6.3693 0.2044
9.6200 6.3827 0.1902
9.6400 6.3960 0.2017
9.6600 6.4094 0.2020
9.6800 6.4227 0.1891
9.7000 6.4360 0.2043
9.7200 6.4494 0.2028
9.7400 6.4627 0.1876
9.7600 6.4760 0.2054
9.7800 6.4893 0.1959
9.8000 6.5027 0.1900
9.8200 6.5160 0.2028
9.8400 6.5294 0.1971
9.8600 6.5427 0.1902
9.8800 6.5560 0.1988
9.9000 6.5694 0.1953
9.9200 6.5827 0.1923
9.9400 6.5960 0.1984
9.9600 6.6093 0.1946
9.9800 6.6226 0.1871
10.0000 6.6360 0.2008
10.0200 6.6493 0.1877
10.0400 6.6626 0.1908
10.0600 6.6760 0.1949
10.0800 6.6894 0.1858
10.1000 6.7027 0.1902
10.1200 6.7160 0.1990
10.1400 6.7294 0.1882
10.1600 6.7427 0.1843
10.1800 6.7561 0.1897
10.2000 6.7694 0.1882
10.2200 6.7827 0.1914
10.2400 6.7960 0.1896
10.2600 6.8094 0.1803
10.2800 6.8227 0.1943
10.3000 6.8360 0.1838
10.3200 6.8493 0.1853
10.3400 6.8626 0.1974
10.3600 6.8760 0.1810
10.3800 6.8893 0.1821
10.4000 6.9026 0.1900
10.4200 6.9160 0.1845
10.4400 6.9294 0.1825
10.4600 6.9427 0.1914
10.4800 6.9560 0.1760
10.5000 6.9694 0.1836
10.5200 6.9827 0.1895
10.5400 6.9960 0.1837
10.5600 7.0093 0.1800
10.5800 7.0226 0.1868
10.6000 7.0360 0.1825
10.6200 7.0493 0.1807
10.6400 7.0627 0.1820
10.6600 7.0760 0.1816
10.6800 7.0893 0.1733
10.7000 7.1027 0.1744
10.7200 7.1160 0.1787
10.7400 7.1293 0.1774
10.7600 7.1426 0.1771
10.7800 7.1560 0.1784
10.8000 7.1694 0.1684
10.8200 7.1827 0.1795
10.8400 7.1960 0.1803
10.8600 7.2094 0.1713
10.8800 7.2227 0.1819
10.9000 7.2361 0.1696
10.9200 7.2494 0.1641
10.9400 7.2627 0.1822
10.9600 7.2760 0.1726
10.9800 7.2893 0.1604
11.0000 7.3027 0.1792
11.0200 7.3159 0.1648
11.0400 7.3292 0.1638
11.0600 7.3426 0.1790
11.0800 7.3560 0.1648
11.1000 7.3693 0.1624
11.1200 7.3827 0.1821
11.1400 7.3960 0.1583
11.1600 7.4094 0.1601
11.1800 7.4227 0.1794
11.2000 7.4360 0.1622
11.2200 7.4494 0.1598
11.2400 7.4627 0.1765
11.2600 7.4761 0.1587
11.2800 7.4894 0.1603
11.3000 7.5027 0.1743
11.3200 7.5160 0.1596
11.3400 7.5294 0.1648
11.3600 7.5427 0.1687
11.3800 7.5560 0.1565
11.4000 7.5693 0.1603
11.4200 7.5826 0.1670
11.4400 7.5960 0.1600
11.4600 7.6093 0.1604
11.4800 7.6226 0.1628
11.5000 7.6360 0.1597
11.5200 7.6494 0.1565
11.5400 7.6627 0.1671
11.5600 7.6760 0.1541
11.5800 7.6894 0.1594
11.6000 7.7027 0.1640
11.6200 7.7161 0.1555
11.6400 7.7294 0.1546
11.6600 7.7427 0.1631
11.6800 7.7560 0.1549
11.7000 7.7693 0.1570
11.7200 7.7826 0.1609
11.7400 7.7960 0.1577
11.7600 7.8093 0.1552
11.7800 7.8226 0.1644
11.8000 7.8360 0.1552
11.8200 7.8493 0.1576
11.8400 7.8626 0.1622
11.8600 7.8760 0.1610
11.8800 7.8893 0.1541
11.9000 7.9027 0.1596
11.9200 7.9160 0.1590
11.9400 7.9293 0.1488
11.9600 7.9427 0.1616
11.9800 7.9561 0.1595
12.0000 7.9694 0.1447
12.0200 7.9827 0.1554
12.0400 7.9960 0.1622
12.0600 8.0094 0.1472
12.0800 8.0227 0.1536
12.1000 8.0360 0.1543
12.1200 8.0493 0.1425
12.1400 8.0626 0.1554
12.1600 8.0759 0.1540
12.1800 8.0892 0.1376
12.2000 8.1026 0.1589
12.2200 8.1160 0.1486
12.2400 8.1294 0.1364
12.2600 8.1428 0.1554
12.2800 8.1561 0.1517
12.3000 8.1694 0.1398
12.3200 8.1828 0.1535
12.3400 8.1961 0.1456
12.3600 8.2094 0.1372
12.3800 8.2227 0.1568
12.4000 8.2360 0.1464
12.4200 8.2493 0.1317
12.4400 8.2626 0.1526
12.4600 8.2759 0.1462
12.4800 8.2892 0.1344
12.5000 8.3026 0.1491
12.5200 8.3160 0.1462
12.5400 8.3293 0.1356
12.5600 8.3426 0.1425
12.5800 8.3560 0.1470
12.6000 8.3694 0.1315
12.6200 8.3827 0.1414
12.6400 8.3961 0.1431
12.6600 8.4094 0.1284
12.6800 8.4227 0.1430
12.7000 8.4361 0.1507
12.7200 8.4494 0.1252
12.7400 8.4627 0.1445
12.7600 8.4760 0.1459
12.7800 8.4893 0.1281
12.8000 8.5026 0.1352
12.8200 8.5159 0.1454
12.8400 8.5292 0.1249
12.8600 8.5426 0.1425
12.8800 8.5560 0.1372
12.9000 8.5693 0.1203
12.9200 8.5827 0.1447
12.9400 8.5960 0.1394
12.9600 8.6094 0.1208
12.9800 8.6227 0.1418
13.0000 8.6360 0.1392
13.0200 8.6494 0.1198
13.0400 8.6627 0.1384
13.0600 8.6761 0.1346
13.0800 8.6894 0.1236
13.1000 8.7027 0.1365
13.1200 8.7160 0.1336
13.1400 8.7294 0.1269
13.1600 8.7427 0.1389
13.1800 8.7560 0.1275
13.2000 8.7693 0.1272
13.2200 8.7826 0.1347
13.2400 8.7960 0.1265
13.2600 8.8093 0.1198
13.2800 8.8227 0.1352
13.3000 8.8360 0.1264
13.3200 8.8494 0.1255
13.3400 8.8628 0.1251
13.3600 8.8761 0.1230
13.3800 8.8894 0.1246
13.4000 8.9027 0.1292
13.4200 8.9161 0.1202
13.4400 8.9294 0.1268
13.4600 8.9427 0.1257
13.4800 8.9560 0.1232
13.5000 8.9693 0.1233
13.5200 8.9827 0.1236
13.5400 8.9960 0.1247
13.5600 9.0093 0.1246
13.5800 9.0226 0.1173
13.6000 9.0360 0.1169
13.6200 9.0493 0.1275
13.6400 9.0626 0.1149
13.6600 9.0760 0.1204
13.6800 9.0893 0.1263
13.7000 9.1027 0.1164
13.7200 9.1160 0.1189
13.7400 9.1294 0.1276
13.7600 9.1427 0.1134
13.7800 9.1561 0.1211
13.8000 9.1694 0.1169
13.8200 9.1827 0.1149
13.8400 9.1960 0.1234
13.8600 9.2093 0.1222
13.8800 9.2227 0.1125
13.9000 9.2360 0.1189
13.9200 9.2493 0.1237
13.9400 9.2626 0.1101
13.9600 9.2760 0.1196
13.9800 9.2893 0.1193
14.0000 9.3027 0.1097
14.0200 9.3160 0.1241
14.0400 9.3294 0.1158
14.0600 9.3427 0.1053
14.0800 9.3560 0.1204
14.1000 9.3693 0.1171
14.1200 9.3827 0.1113
14.1400 9.3960 0.1163
14.1600 9.4094 0.1174
14.1800 9.4227 0.1066
14.2000 9.4360 0.1170
14.2200 9.4493 0.1130
14.2400 9.4627 0.1079
14.2600 9.4760 0.1129
14.2800 9.4893 0.1115
14.3000 9.5026 0.1037
14.3200 9.5159 0.1158
14.3400 9.5293 0.1116
14.3600 9.5426 0.1047
14.3800 9.5560 0.1137
14.4000 9.5693 0.1049
14.4200 9.5827 0.1017
14.4400 9.5961 0.1134
14.4600 9.6094 0.1057
14.4800 9.6228 0.1034
14.5000 9.6361 0.1138
14.5200 9.6494 0.1040
14.5400 9.6626 0.1029
14.5600 9.6759 0.1176
14.5800 9.6892 0.1024
14.6000 9.7026 0.1003
14.6200 9.7159 0.1131
14.6400 9.7293 0.1016
14.6600 9.7426 0.0996
14.6800 9.7560 0.1089
14.7000 9.7694 0.0988
14.7200 9.7827 0.0996
14.7400 9.7960 0.1118
14.7600 9.8094 0.0977
14.7800 9.8228 0.0969
14.8000 9.8361 0.1072
14.8200 9.8494 0.0996
14.8400 9.8627 0.0987
14.8600 9.8760 0.1085
14.8800 9.8894 0.0952
14.9000 9.9027 0.1026
14.9200 9.9160 0.1066
14.9400 9.9293 0.0994
14.9600 9.9427 0.0997
14.9800 9.9560 0.1042
15.0000 9.9693 0.0950
15.0200 9.9826 0.0953
15.0400 9.9960 0.1012
15.0600 10.0093 0.0946
15.0800 10.0227 0.0959
15.1000 10.0360 0.0997
15.1200 10.0494 0.0897
15.1400 10.0627 0.0956
15.1600 10.0760 0.0961
15.1800 10.0894 0.0911
15.2000 10.1027 0.0966
15.2200 10.1161 0.0952
15.2400 10.1294 0.0883
15.2600 10.1427 0.0948
15.2800 10.1560 0.0938
15.3000 10.1693 0.0896
15.3200 10.1827 0.0949
15.3400 10.1960 0.0840
15.3600 10.2093 0.0911
15.3800 10.2226 0.0983
15.4000 10.2359 0.0839
15.4200 10.2493 0.0876
15.4400 10.2626 0.0963
15.4600 10.2760 0.0837
15.4800 10.2893 0.0880
15.5000 10.3027 0.0864
15.5200 10.3161 0.0875
15.5400 10.3294 0.0902
15.5600 10.3427 0.0841
15.5800 10.3561 0.0833
15.6000 10.3694 0.0874
15.6200 10.3827 0.0845
15.6400 10.3960 0.0853
15.6600 10.4093 0.0884
15.6800 10.4227 0.0804
15.7000 10.4360 0.0883
15.7200 10.4493 0.0822
15.7400 10.4626 0.0797
15.7600 10.4760 0.0839
15.7800 10.4893 0.0884
15.8000 10.5026 0.0765
15.8200 10.5160 0.0831
15.8400 10.5293 0.0883
15.8600 10.5427 0.0794
15.8800 10.5560 0.0770
15.9000 10.5693 0.0877
15.9200 10.5827 0.0791
15.9400 10.5960 0.0802
15.9600 10.6094 0.0792
15.9800 10.6227 0.0775
16.0000 10.6360 0.0803
16.0200 10.6493 0.0821
16.0400 10.6627 0.0748
16.0600 10.6760 0.0784
16.0800 10.6893 0.0847
16.1000 10.7026 0.0732
16.1200 10.7160 0.0696
16.1400 10.7293 0.0798
16.1600 10.7426 0.0786
16.1800 10.7560 0.0807
16.2000 10.7694 0.0805
16.2200 10.7827 0.0700
16.2400 10.7961 0.0793
16.2600 10.8094 0.0766
16.2800 10.8227 0.0724
16.3000 10.8360 0.0778
16.3200 10.8494 0.0775
16.3400 10.8627 0.0672
16.3600 10.8760 0.0769
16.3800 10.8893 0.0777
16.4000 10.9027 0.0728
16.4200 10.9160 0.0738
16.4400 10.9293 0.0722
16.4600 10.9426 0.0706
16.4800 10.9559 0.0724
16.5000 10.9693 0.0726
16.5200 10.9826 0.0724
16.5400 10.9960 0.0669
16.5600 11.0093 0.0696
16.5800 11.0227 0.0693
16.6000 11.0361 0.0682
16.6200 11.0494 0.0719
16.6400 11.0627 0.0727
16.6600 11.0761 0.0630
16.6800 11.0894 0.0699
16.7000 11.1027 0.0669
16.7200 11.1160 0.0643
16.7400 11.1293 0.0682
16.7600 11.1426 0.0657
16.7800 11.1560 0.0613
16.8000 11.1693 0.0707
16.8200 11.1826 0.0598
16.8400 11.1960 0.0606
16.8600 11.2094 0.0708
16.8800 11.2227 0.0584
16.9000 11.2360 0.0664
16.9200 11.2493 0.0623
16.9400 11.2627 0.0545
16.9600 11.2760 0.0665
16.9800 11.2893 0.0583
17.0000 11.3026 0.0560
17.0200 11.3160 0.0702
17.0400 11.3294 0.0509
17.0600 11.3427 0.0585
17.0800 11.3560 0.0629
17.1000 11.3694 0.0539
17.1200 11.3827 0.0608
17.1400 11.3960 0.0617
17.1600 11.4093 0.0504
17.1800 11.4226 0.0605
17.2000 11.4360 0.0603
17.2200 11.4493 0.0515
17.2400 11.4626 0.0623
17.2600 11.4759 0.0573
17.2800 11.4893 0.0526
17.3000 11.5027 0.0600
17.3200 11.5160 0.0527
17.3400 11.5294 0.0486
17.3600 11.5427 0.0632
17.3800 11.5560 0.0525
17.4000 11.5694 0.0499
17.4200 11.5827 0.0585
17.4400 11.5960 0.0493
17.4600 11.6093 0.0496
17.4800 11.6227 0.0574
17.5000 11.6360 0.0456
17.5200 11.6493 0.0515
17.5400 11.6626 0.0528
17.5600 11.6759 0.0550
17.5800 11.6893 0.0478
17.6000 11.7026 0.0535
17.6200 11.7160 0.0492
17.6400 11.7293 0.0488
17.6600 11.7427 0.0529
17.6800 11.7561 0.0482
17.7000 11.7694 0.0475
17.7200 11.7827 0.0562
17.7400 11.7961 0.0446
17.7600 11.8094 0.0463
17.7800 11.8227 0.0527
17.8000 11.8360 0.0455
17.8200 11.8493 0.0485
17.8400 11.8627 0.0535
17.8600 11.8760 0.0406
17.8800 11.8893 0.0458
17.9000 11.9026 0.0557
17.9200 11.9160 0.0359
17.9400 11.9293 0.0463
17.9600 11.9427 0.0557
17.9800 11.9560 0.0346
18.0000 11.9693 0.0475
18.0200 11.9827 0.0491
18.0400 11.9960 0.0328
18.0600 12.0094 0.0531
18.0800 12.0227 0.0448
18.1000 12.0360 0.0361
18.1200 12.0494 0.0463
18.1400 12.0627 0.0444
18.1600 12.0760 0.0363
18.1800 12.0893 0.0508
18.2000 12.1027 0.0393
18.2200 12.1160 0.0389
18.2400 12.1293 0.0470
18.2600 12.1426 0.0390
18.2800 12.1559 0.0435
18.3000 12.1693 0.0431
18.3200 12.1826 0.0362
18.3400 12.1960 0.0436
18.3600 12.2093 0.0389
18.3800 12.2227 0.0363
18.4000 12.2361 0.0484
18.4200 12.2494 0.0343
18.4400 12.2627 0.0345
18.4600 12.2760 0.0483
18.4800 12.2894 0.0331
18.5000 12.3027 0.0350
18.5200 12.3160 0.0467
18.5400 12.3293 0.0272
18.5600 12.3426 0.0393
18.5800 12.3560 0.0390
18.6000 12.3693 0.0275
18.6200 12.3827 0.0394
18.6400 12.3960 0.0434
18.6600 12.4093 0.0248
18.6800 12.4226 0.0383
18.7000 12.4360 0.0363
18.7200 12.4493 0.0299
18.7400 12.4627 0.0355
18.7600 12.4761 0.0304
18.7800 12.4894 0.0313
18.8000 12.5027 0.0430
18.8200 12.5160 0.0220
18.8400 12.5294 0.0286
18.8600 12.5427 0.0394
18.8800 12.5560 0.0170
18.9000 12.5693 0.0351
18.9200 12.5826 0.0447
18.9400 12.5960 0.0155
18.9600 12.6093 0.0325
18.9800 12.6226 0.0372
19.0000 12.6359 0.0129
19.0200 12.6493 0.0337
19.0400 12.6626 0.0332
19.0600 12.6760 0.0151
19.0800 12.6893 0.0324
19.1000 12.7026 0.0310
19.1200 12.7160 0.0143
19.1400 12.7293 0.0364
19.1600 12.7427 0.0200
19.1800 12.7560 0.0172
19.2000 12.7694 0.0339
19.2200 12.7827 0.0149
19.2400 12.7960 0.0188
19.2600 12.8094 0.0359
19.2800 12.8227 0.0210
19.3000 12.8361 0.0128
19.3200 12.8494 0.0253
19.3400 12.8626 0.0217
19.3600 12.8759 0.0206
19.3800 12.8893 0.0303
19.4000 12.9026 0.0067
19.4200 12.9159 0.0257
19.4400 12.9293 0.0307
19.4600 12.9427 0.0058
19.4800 12.9561 0.0258
19.5000 12.9694 0.0291
19.5200 12.9827 0.0084
19.5400 12.9961 0.0265
19.5600 13.0094 0.0232
19.5800 13.0228 0.0087
19.6000 13.0361 0.0325
19.6200 13.0493 0.0189
19.6400 13.0626 0.0042
19.6600 13.0760 0.0371
19.6800 13.0893 0.0193
19.7000 13.1026 -0.0026
19.7200 13.1159 0.0365
19.7400 13.1293 0.0160
19.7600 13.1426 0.0096
19.7800 13.1560 0.0268
19.8000 13.1693 0.0030
19.8200 13.1827 0.0139
19.8400 13.1961 0.0348
19.8600 13.2094 -0.0045
19.8800 13.2227 0.0099
19.9000 13.2360 0.0304
19.9200 13.2494 0.0000
19.9400 13.2627 0.0155
19.9600 13.2760 0.0231
19.9800 13.2893 -0.0017
20.0000 13.3027 0.0138
20.0200 13.3160 0.0169
20.0400 13.3293 0.0028
20.0600 13.3426 0.0236
20.0800 13.3559 0.0088
20.1000 13.3693 -0.0054
20.1200 13.3827 0.0190
20.1400 13.3960 0.0160
20.1600 13.4093 -0.0033
20.1800 13.4227 0.0185
20.2000 13.4360 0.0068
20.2200 13.4494 -0.0015
20.2400 13.4627 0.0125
20.2600 13.4760 0.0111
20.2800 13.4894 0.0031
20.3000 13.5027 0.0125
20.3200 13.5160 0.0022
20.3400 13.5293 0.0088
20.3600 13.5427 0.0088
20.3800 13.5560 0.0071
20.4000 13.5693 0.0032
20.4200 13.5826 0.0055
20.4400 13.5959 0.0042
20.4600 13.6093 0.0036
20.4800 13.6226 0.0032
20.5000 13.6360 0.0033
20.5200 13.6493 0.0000
20.5400 13.6627 0.0031
20.5600 13.6761 0.0028
20.5800 13.6894 0.0015
20.6000 13.7027 -0.0018
20.6200 13.7160 0.0026
20.6400 13.7294 -0.0022
20.6600 13.7427 -0.0016
20.6800 13.7560 0.0035
20.7000 13.7693 -0.0079
20.7200 13.7826 -0.0019
20.7400 13.7960 0.0059
20.7600 13.8093 -0.0068
20.7800 13.8226 -0.0079
20.8000 13.8360 0.0065
20.8200 13.8493 -0.0079
20.8400 13.8626 -0.0070
20.8600 13.8760 0.0009
20.8800 13.8893 -0.0059
20.9000 13.9027 -0.0062
20.9200 13.9161 0.0007
20.9400 13.9294 -0.0172
20.9600 13.9427 -0.0050
20.9800 13.9560 0.0047
21.0000 13.9694 -0.0138
21.0200 13.9828 -0.0101
21.0400 13.9961 0.0082
21.0600 14.0093 -0.0165
21.0800 14.0226 -0.0069
21.1000 14.0360 0.0018
21.1200 14.0493 -0.0149
21.1400 14.0626 -0.0034
21.1600 14.0760 -0.0048
21.1800 14.0893 -0.0145
21.2000 14.1026 -0.0069
21.2200 14.1160 -0.0055
21.2400 14.1293 -0.0143
21.2600 14.1427 -0.0061
21.2800 14.1560 -0.0115
21.3000 14.1694 -0.0191
21.3200 14.1827 -0.0097
21.3400 14.1960 -0.0085
21.3600 14.2094 -0.0178
21.3800 14.2227 -0.0120
21.4000 14.2360 -0.0135
21.4200 14.2493 -0.0160
21.4400 14.2627 -0.0119
21.4600 14.2760 -0.0127
21.4800 14.2893 -0.0200
21.5000 14.3026 -0.0119
21.5200 14.3159 -0.0156
21.5400 14.3292 -0.0123
21.5600 14.3426 -0.0202
21.5800 14.3559 -0.0188
21.6000 14.3693 -0.0149
21.6200 14.3826 -0.0206
21.6400 14.3961 -0.0186
21.6600 14.4094 -0.0137
21.6800 14.4228 -0.0210
21.7000 14.4361 -0.0238
21.7200 14.4494 -0.0123
21.7400 14.4627 -0.0203
21.7600 14.4760 -0.0232
21.7800 14.4893 -0.0152
21.8000 14.5026 -0.0224
21.8200 14.5159 -0.0266
21.8400 14.5293 -0.0154
21.8600 14.5426 -0.0260
21.8800 14.5559 -0.0200
21.9000 14.5693 -0.0224
21.9200 14.5827 -0.0283
21.9400 14.5960 -0.0230
21.9600 14.6093 -0.0218
21.9800 14.6227 -0.0310
22.0000 14.6361 -0.0200
22.0200 14.6494 -0.0256
22.0400 14.6627 -0.0319
22.0600 14.6760 -0.0162
22.0800 14.6893 -0.0248
22.1000 14.7027 -0.0352
22.1200 14.7160 -0.0200
22.1400 14.7293 -0.0324
22.1600 14.7426 -0.0316
22.1800 14.7560 -0.0221
22.2000 14.7693 -0.0348
22.2200 14.7826 -0.0292
22.2400 14.7960 -0.0223
22.2600 14.8093 -0.0334
22.2800 14.8227 -0.0316
22.3000 14.8360 -0.0277
22.3200 14.8493 -0.0354
22.3400 14.8627 -0.0319
22.3600 14.8761 -0.0337
22.3800 14.8894 -0.0344
22.4000 14.9027 -0.0303
22.4200 14.9160 -0.0369
22.4400 14.9294 -0.0355
22.4600 14.9427 -0.0281
22.4800 14.9561 -0.0387
22.5000 14.9694 -0.0321
22.5200 14.9827 -0.0303
22.5400 14.9960 -0.0425
22.5600 15.0093 -0.0350
22.5800 15.0226 -0.0252
22.6000 15.0359 -0.0463
22.6200 15.0493 -0.0385
22.6400 15.0626 -0.0328
22.6600 15.0760 -0.0373
22.6800 15.0893 -0.0408
22.7000 15.1027 -0.0365
22.7200 15.1160 -0.0317
22.7400 15.1294 -0.0486
22.7600 15.1427 -0.0340
22.7800 15.1560 -0.0271
22.8000 15.1694 -0.0537
22.8200 15.1827 -0.0369
22.8400 15.1960 -0.0212
22.8600 15.2093 -0.0603
22.8800 15.2226 -0.0423
22.9000 15.2360 -0.0132
22.9200 15.2493 -0.0553
22.9400 15.2626 -0.0502
22.9600 15.2760 -0.0161
22.9800 15.2893 -0.0594
23.0000 15.3026 -0.0438
23.0200 15.3160 -0.0146
23.0400 15.3293 -0.0640
23.0600 15.3427 -0.0513
23.0800 15.3560 -0.0166
23.1000 15.3694 -0.0530
23.1200 15.3827 -0.0522
23.1400 15.3960 -0.0276
23.1600 15.4094 -0.0541
23.1800 15.4227 -0.0541
23.2000 15.4361 -0.0284
23.2200 15.4494 -0.0548
23.2400 15.4627 -0.0485
23.2600 15.4760 -0.0371
23.2800 15.4893 -0.0559
23.3000 15.5026 -0.0469
23.3200 15.5159 -0.0417
23.3400 15.5293 -0.0561
23.3600 15.5426 -0.0477
23.3800 15.5560 -0.0452
23.4000 15.5693 -0.0540
23.4200 15.5827 -0.0432
23.4400 15.5961 -0.0539
23.4600 15.6094 -0.0492
23.4800 15.6227 -0.0508
23.5000 15.6360 -0.0556
23.5200 15.6494 -0.0471
23.5400 15.6627 -0.0520
23.5600 15.6761 -0.0592
23.5800 15.6894 -0.0447
23.6000 15.7027 -0.0562
23.6200 15.7160 -0.0519
23.6400 15.7293 -0.0489
23.6600 15.7427 -0.0608
23.6800 15.7560 -0.0547
23.7000 15.7693 -0.0422
23.7200 15.7826 -0.0629
23.7400 15.7960 -0.0567
23.7600 15.8093 -0.0452
23.7800 15.8226 -0.0685
23.8000 15.8360 -0.0604
23.8200 15.8494 -0.0493
23.8400 15.8627 -0.0631
23.8600 15.8760 -0.0625
23.8800 15.8894 -0.0571
23.9000 15.9027 -0.0643
23.9200 15.9160 -0.0596
23.9400 15.9293 -0.0636
23.9600 15.9426 -0.0602
23.9800 15.9559 -0.0578
24.0000 15.9693 -0.0657
24.0200 15.9826 -0.0660
24.0400 15.9959 -0.0577
24.0600 16.0093 -0.0611
24.0800 16.0227 -0.0686
24.1000 16.0360 -0.0669
24.1200 16.0493 -0.0662
24.1400 16.0627 -0.0653
24.1600 16.0760 -0.0626
24.1800 16.0894 -0.0727
24.2000 16.1027 -0.0682
24.2200 16.1160 -0.0660
24.2400 16.1293 -0.0714
24.2600 16.1427 -0.0688
24.2800 16.1560 -0.0663
24.3000 16.1694 -0.0763
24.3200 16.1827 -0.0696
24.3400 16.1960 -0.0663
24.3600 16.2094 -0.0746
24.3800 16.2227 -0.0745
24.4000 16.2360 -0.0663
24.4200 16.2493 -0.0731
24.4400 16.2626 -0.0759
24.4600 16.2760 -0.0679
24.4800 16.2893 -0.0764
24.5000 16.3026 -0.0733
24.5200 16.3160 -0.0735
24.5400 16.3293 -0.0742
24.5600 16.3427 -0.0800
24.5800 16.3560 -0.0729
24.6000 16.3694 -0.0782
24.6200 16.3827 -0.0766
24.6400 16.3961 -0.0771
24.6600 16.4094 -0.0806
24.6800 16.4227 -0.0743
24.7000 16.4360 -0.0771
24.7200 16.4494 -0.0813
24.7400 16.4627 -0.0821
24.7600 16.4760 -0.0763
24.7800 16.4893 -0.0788
24.8000 16.5026 -0.0795
24.8200 16.5160 -0.0809
24.8400 16.5293 -0.0886
24.8600 16.5426 -0.0723
24.8800 16.5560 -0.0866
24.9000 16.5694 -0.0891
24.9200 16.5827 -0.0705
24.9400 16.5961 -0.0872
24.9600 16.6094 -0.0854
24.9800 16.6227 -0.0680
25.0000 16.6361 -0.0820
25.0200 16.6494 -0.0899
25.0400 16.6627 -0.0659
25.0600 16.6760 -0.0886
25.0800 16.6893 -0.0868
25.1000 16.7026 -0.0709
25.1200 16.7159 -0.0871
25.1400 16.7293 -0.0902
25.1600 16.7426 -0.0691
25.1800 16.7560 -0.0879
25.2000 16.7693 -0.0809
25.2200 16.7826 -0.0768
25.2400 16.7960 -0.0911
25.2600 16.8093 -0.0804
25.2800 16.8227 -0.0748
25.3000 16.8360 -0.0895
25.3200 16.8494 -0.0777
25.3400 16.8627 -0.0809
25.3600 16.8761 -0.0929
25.3800 16.8894 -0.0785
25.4000 16.9027 -0.0802
25.4200 16.9160 -0.0935
25.4400 16.9293 -0.0757
25.4600 16.9427 -0.0855
25.4800 16.9559 -0.0954
25.5000 16.9692 -0.0818
25.5200 16.9826 -0.0861
25.5400 16.9959 -0.0934
25.5600 17.0093 -0.0829
25.5800 17.0226 -0.0883
25.6000 17.0360 -0.0897
25.6200 17.0494 -0.0861
25.6400 17.0627 -0.1002
25.6600 17.0760 -0.0875
25.6800 17.0893 -0.0861
25.7000 17.1027 -0.0987
25.7200 17.1160 -0.0898
25.7400 17.1294 -0.0921
25.7600 17.1427 -0.0977
25.7800 17.1560 -0.0903
25.8000 17.1693 -0.0944
25.8200 17.1827 -0.0943
25.8400 17.1960 -0.0944
25.8600 17.2093 -0.0972
25.8800 17.2226 -0.0991
25.9000 17.2360 -0.0922
25.9200 17.2493 -0.1004
25.9400 17.2626 -0.0938
25.9600 17.2760 -0.0950
25.9800 17.2894 -0.1084
26.0000 17.3027 -0.0957
26.0200 17.3161 -0.0979
26.0400 17.3294 -0.1038
26.0600 17.3427 -0.0990
26.0800 17.3561 -0.1039
26.1000 17.3694 -0.1060
26.1200 17.3827 -0.0986
26.1400 17.3960 -0.1033
26.1600 17.4093 -0.1020
26.1800 17.4226 -0.1018
26.2000 17.4360 -0.1100
26.2200 17.4493 -0.1090
26.2400 17.4626 -0.0989
26.2600 17.4760 -0.1113
26.2800 17.4894 -0.1053
26.3000 17.5027 -0.1061
26.3200 17.5160 -0.1117
26.3400 17.5294 -0.1105
26.3600 17.5427 -0.1057
26.3800 17.5560 -0.1137
26.4000 17.5693 -0.1075
26.4200 17.5827 -0.1120
26.4400 17.5960 -0.1147
26.4600 17.6094 -0.1091
26.4800 17.6227 -0.1114
26.5000 17.6360 -0.1085
26.5200 17.6494 -0.1114
26.5400 17.6627 -0.1203
26.5600 17.6760 -0.1104
26.5800 17.6892 -0.1132
26.6000 17.7026 -0.1181
26.6200 17.7159 -0.1073
26.6400 17.7293 -0.1169
26.6600 17.7426 -0.1214
26.6800 17.7560 -0.1098
26.7000 17.7694 -0.1125
26.7200 17.7828 -0.1306
26.7400 17.7961 -0.1092
26.7600 17.8094 -0.1201
26.7800 17.8227 -0.1264
26.8000 17.8361 -0.1056
26.8200 17.8494 -0.1276
26.8400 17.8627 -0.1243
26.8600 17.8760 -0.1021
26.8800 17.8893 -0.1335
26.9000 17.9026 -0.1196
26.9200 17.9159 -0.1066
26.9400 17.9292 -0.1351
26.9600 17.9426 -0.1245
26.9800 17.9559 -0.1051
27.0000 17.9693 -0.1375
27.0200 17.9826 -0.1238
27.0400 17.9960 -0.1097
27.0600 18.0094 -0.1418
27.0800 18.0227 -0.1185
27.1000 18.0361 -0.1135
27.1200 18.0494 -0.1388
27.1400 18.0627 -0.1127
27.1600 18.0761 -0.1225
27.1800 18.0894 -0.1404
27.2000 18.1027 -0.1108
27.2200 18.1160 -0.1209
27.2400 18.1293 -0.1383
27.2600 18.1427 -0.1208
27.2800 18.1560 -0.1283
27.3000 18.1693 -0.1404
27.3200 18.1826 -0.1185
27.3400 18.1960 -0.1331
27.3600 18.2093 -0.1377
27.3800 18.2227 -0.1238
27.4000 18.2360 -0.1315
27.4200 18.2494 -0.1339
27.4400 18.2627 -0.1270
27.4600 18.2760 -0.1329
27.4800 18.2894 -0.1364
27.5000 18.3027 -0.1326
27.5200 18.3161 -0.1297
27.5400 18.3294 -0.1357
27.5600 18.3427 -0.1361
27.5800 18.3560 -0.1362
27.6000 18.3694 -0.1389
27.6200 18.3827 -0.1406
27.6400 18.3960 -0.1331
27.6600 18.4093 -0.1426
27.6800 18.4226 -0.1430
27.7000 18.4360 -0.1353
27.7200 18.4493 -0.1429
27.7400 18.4626 -0.1377
27.7600 18.4760 -0.1422
27.7800 18.4894 -0.1505
27.8000 18.5027 -0.1386
27.8200 18.5161 -0.1393
27.8400 18.5294 -0.1578
27.8600 18.5427 -0.1392
27.8800 18.5560 -0.1397
27.9000 18.5694 -0.1572
27.9200 18.5826 -0.1382
27.9400 18.5960 -0.1359
27.9600 18.6093 -0.1613
27.9800 18.6227 -0.1427
28.0000 18.6360 -0.1458
28.0200 18.6493 -0.1537
28.0400 18.6626 -0.1382
28.0600 18.6760 -0.1516
28.0800 18.6893 -0.1549
28.1000 18.7026 -0.1403
28.1200 18.7160 -0.1478
28.1400 18.7293 -0.1474
28.1600 18.7427 -0.1442
28.1800 18.7561 -0.1521
28.2000 18.7694 -0.1487
28.2200 18.7827 -0.1493
28.2400 18.7961 -0.1551
28.2600 18.8094 -0.1447
28.2800 18.8227 -0.1541
28.3000 18.8360 -0.1536
28.3200 18.8493 -0.1455
28.3400 18.8627 -0.1609
28.3600 18.8760 -0.1471
28.3800 18.8893 -0.1531
28.4000 18.9026 -0.1573
28.4200 18.9159 -0.1471
28.4400 18.9293 -0.1557
28.4600 18.9426 -0.1629
28.4800 18.9560 -0.1451
28.5000 18.9693 -0.1660
28.5200 18.9827 -0.1650
28.5400 18.9960 -0.1487
28.5600 19.0093 -0.1689
28.5800 19.0227 -0.1636
28.6000 19.0361 -0.1424
28.6200 19.0494 -0.1767
28.6400 19.0627 -0.1647
28.6600 19.0760 -0.1460
28.6800 19.0893 -0.1803
28.7000 19.1027 -0.1644
28.7200 19.1160 -0.1513
28.7400 19.1293 -0.1859
28.7600 19.1426 -0.1598
28.7800 19.1559 -0.1583
28.8000 19.1693 -0.1879
28.8200 19.1826 -0.1610
28.8400 19.1960 -0.1623
28.8600 19.2093 -0.1904
28.8800 19.2227 -0.1618
28.9000 19.2361 -0.1673
28.9200 19.2494 -0.1928
28.9400 19.2628 -0.1622
28.9600 19.2761 -0.1741
28.9800 19.2894 -0.1901
29.0000 19.3027 -0.1662
29.0200 19.3160 -0.1750
29.0400 19.3293 -0.1827
29.0600 19.3426 -0.1657
29.0800 19.3560 -0.1804
29.1000 19.3693 -0.1838
29.1200 19.3826 -0.1669
29.1400 19.3960 -0.1766
29.1600 19.4094 -0.1864
29.1800 19.4227 -0.1715
29.2000 19.4360 -0.1806
29.2200 19.4494 -0.1798
29.2400 19.4627 -0.1766
29.2600 19.4761 -0.1835
29.2800 19.4894 -0.1810
29.3000 19.5027 -0.1763
29.3200 19.5160 -0.1838
29.3400 19.5293 -0.1823
29.3600 19.5427 -0.1766
29.3800 19.5560 -0.1876
29.4000 19.5693 -0.1886
29.4200 19.5827 -0.1828
29.4400 19.5960 -0.1856
29.4600 19.6093 -0.1909
29.4800 19.6226 -0.1812
29.5000 19.6360 -0.1922
29.5200 19.6493 -0.1932
29.5400 19.6627 -0.1869
29.5600 19.6760 -0.1887
29.5800 19.6894 -0.1948
29.6000 19.7027 -0.1854
29.6200 19.7160 -0.1960
29.6400 19.7293 -0.1919
29.6600 19.7427 -0.1892
29.6800 19.7560 -0.1945
29.7000 19.7694 -0.1975
29.7200 19.7827 -0.1925
29.7400 19.7960 -0.1966
29.7600 19.8093 -0.1942
29.7800 19.8227 -0.1918
29.8000 19.8360 -0.2061
29.8200 19.8493 -0.1968
29.8400 19.8626 -0.1877
29.8600 19.8759 -0.2040
29.8800 19.8893 -0.1982
29.9000 19.9027 -0.1942
29.9200 19.9160 -0.2096
29.9400 19.9293 -0.1979
29.9600 19.9427 -0.1995
29.9800 19.9561 -0.2108
30.0000 19.9694 -0.2008
30.0200 19.9827 -0.1999
30.0400 19.9961 -0.2089
30.0600 20.0094 -0.1992
30.0800 20.0227 -0.2081
30.1000 20.0360 -0.2154
30.1200 20.0493 -0.2002
30.1400 20.0627 -0.2063
30.1600 20.0760 -0.2216
30.1800 20.0893 -0.2024
30.2000 20.1026 -0.2143
30.2200 20.1160 -0.2186
30.2400 20.1293 -0.2069
30.2600 20.1427 -0.2192
30.2800 20.1560 -0.2205
30.3000 20.1693 -0.2063
30.3200 20.1827 -0.2254
30.3400 20.1960 -0.2195
30.3600 20.2093 -0.2104
30.3800 20.2227 -0.2281
30.4000 20.2360 -0.2216
30.4200 20.2494 -0.2175
30.4400 20.2627 -0.2256
30.4600 20.2760 -0.2236
30.4800 20.2893 -0.2191
30.5000 20.3027 -0.2304
30.5200 20.3160 -0.2265
30.5400 20.3293 -0.2273
30.5600 20.3426 -0.2312
30.5800 20.3559 -0.2263
30.6000 20.3693 -0.2336
30.6200 20.3826 -0.2321
30.6400 20.3960 -0.2343
30.6600 20.4094 -0.2345
30.6800 20.4228 -0.2331
30.7000 20.4361 -0.2420
30.7200 20.4494 -0.2114
30.7400 20.4627 -0.1486
30.7600 20.4760 -0.0727
30.7800 20.4894 0.0016
30.8000 20.5027 0.0664
30.8200 20.5160 0.1235
30.8400 20.5293 0.1801
30.8600 20.5427 0.2214
30.8800 20.5560 0.2562
30.9000 20.5693 0.3029
30.9200 20.5826 0.3391
30.9400 20.5959 0.3812
30.9600 20.6093 0.4352
30.9800 20.6226 0.4731
31.0000 20.6360 0.5135
31.0200 20.6493 0.5680
31.0400 20.6627 0.5997
31.0600 20.6761 0.6389
31.0800 20.6894 0.6741
31.1000 20.7027 0.6731
31.1200 20.7161 0.6699
31.1400 20.7294 0.6859
31.1600 20.7427 0.6655
31.1800 20.7560 0.6742
31.2000 20.7693 0.6836
31.2200 20.7826 0.6683
31.2400 20.7960 0.6704
31.2600 20.8093 0.6860
31.2800 20.8226 0.6691
31.3000 20.8360 0.6761
31.3200 20.8493 0.6831
31.3400 20.8627 0.6684
31.3600 20.8760 0.6777
31.3800 20.8894 0.6846
31.4000 20.9027 0.6684
31.4200 20.9161 0.6768
31.4400 20.9293 0.6816
31.4600 20.9426 0.6690
31.4800 20.9560 0.6772
31.5000 20.9693 0.6755
31.5200 20.9827 0.6691
31.5400 20.9960 0.6794
31.5600 21.0093 0.6753
31.5800 21.0227 0.6705
31.6000 21.0361 0.6758
31.6200 21.0493 0.6694
31.6400 21.0626 0.6726
31.6600 21.0760 0.6721
31.6800 21.0893 0.6684
31.7000 21.1026 0.6714
31.7200 21.1160 0.6717
31.7400 21.1293 0.6671
31.7600 21.1427 0.6748
31.7800 21.1560 0.6645
31.8000 21.1693 0.6681
31.8200 21.1827 0.6722
31.8400 21.1960 0.6681
31.8600 21.2094 0.6646
31.8800 21.2227 0.6732
31.9000 21.2360 0.6631
31.9200 21.2493 0.6658
31.9400 21.2627 0.6672
31.9600 21.2760 0.6614
31.9800 21.2893 0.6676
32.0000 21.3026 0.6672
32.0200 21.3159 0.6568
32.0400 21.3293 0.6635
32.0600 21.3426 0.6661
32.0800 21.3560 0.6527
32.1000 21.3693 0.6661
32.1200 21.3827 0.6628
32.1400 21.3961 0.6549
32.1600 21.4094 0.6594
32.1800 21.4227 0.6620
32.2000 21.4360 0.6548
32.2200 21.4494 0.6619
32.2400 21.4627 0.6554
32.2600 21.4760 0.6535
32.2800 21.4893 0.6550
32.3000 21.5027 0.6567
32.3200 21.5160 0.6507
32.3400 21.5293 0.6590
32.3600 21.5426 0.6538
32.3800 21.5559 0.6513
32.4000 21.5693 0.6558
32.4200 21.5826 0.6493
32.4400 21.5960 0.6488
32.4600 21.6093 0.6531
32.4800 21.6227 0.6471
32.5000 21.6360 0.6504
32.5200 21.6494 0.6498
32.5400 21.6627 0.6452
32.5600 21.6760 0.6484
32.5800 21.6894 0.6491
32.6000 21.7028 0.6440
32.6200 21.7160 0.6494
32.6400 21.7293 0.6477
32.6600 21.7427 0.6491
32.6800 21.7560 0.6497
32.7000 21.7693 0.6410
32.7200 21.7826 0.6522
32.7400 21.7959 0.6525
32.7600 21.8093 0.6414
32.7800 21.8226 0.6448
32.8000 21.8359 0.6443
32.8200 21.8493 0.6402
32.8400 21.8627 0.6506
32.8600 21.8761 0.6313
32.8800 21.8894 0.6361
32.9000 21.9027 0.6573
32.9200 21.9160 0.6372
32.9400 21.9294 0.6272
32.9600 21.9427 0.6530
32.9800 21.9560 0.6356
33.0000 21.9693 0.6348
33.0200 21.9827 0.6525
33.0400 21.9960 0.6286
33.0600 22.0094 0.6257
33.0800 22.0227 0.6520
33.1000 22.0360 0.6222
33.1200 22.0493 0.6273
33.1400 22.0626 0.6525
33.1600 22.0760 0.6232
33.1800 22.0893 0.6289
33.2000 22.1027 0.6500
33.2200 22.1161 0.6258
33.2400 22.1294 0.6284
33.2600 22.1427 0.6433
33.2800 22.1560 0.6205
33.3000 22.1694 0.6255
33.3200 22.1827 0.6394
33.3400 22.1960 0.6243
33.3600 22.2093 0.6252
33.3800 22.2226 0.6378
33.4000 22.2360 0.6169
33.4200 22.2493 0.6249
33.4400 22.2626 0.6362
33.4600 22.2760 0.6204
33.4800 22.2893 0.6228
33.5000 22.3026 0.6318
33.5200 22.3160 0.6136
33.5400 22.3293 0.6232
33.5600 22.3427 0.6299
33.5800 22.3560 0.6174
33.6000 22.3694 0.6135
33.6200 22.3827 0.6266
33.6400 22.3960 0.6167
33.6600 22.4093 0.6169
33.6800 22.4227 0.6195
33.7000 22.4360 0.6172
33.7200 22.4494 0.6115
33.7400 22.4627 0.6174
33.7600 22.4761 0.6221
33.7800 22.4894 0.6079
33.8000 22.5026 0.6214
33.8200 22.5159 0.6170
33.8400 22.5293 0.6088
33.8600 22.5426 0.6213
33.8800 22.5559 0.6136
33.9000 22.5693 0.6059
33.9200 22.5827 0.6216
33.9400 22.5961 0.6098
33.9600 22.6094 0.6028
33.9800 22.6227 0.6156
34.0000 22.6361 0.6146
34.0200 22.6494 0.6030
34.0400 22.6628 0.6180
34.0600 22.6761 0.6096
34.0800 22.6894 0.6065
34.1000 22.7027 0.6102
34.1200 22.7160 0.6100
34.1400 22.7293 0.6092
34.1600 22.7426 0.6028
34.1800 22.7559 0.6082
34.2000 22.7693 0.6115
34.2200 22.7826 0.6019
34.2400 22.7960 0.6031
34.2600 22.8093 0.6097
34.2800 22.8227 0.6007
34.3000 22.8361 0.6035
34.3200 22.8494 0.6032
34.3400 22.8627 0.5963
34.3600 22.8761 0.6064
34.3800 22.8894 0.6053
34.4000 22.9028 0.5913
34.4200 22.9161 0.6105
34.4400 22.9293 0.6002
34.4600 22.9426 0.5905
34.4800 22.9560 0.6081
34.5000 22.9693 0.5994
34.5200 22.9826 0.5916
34.5400 22.9960 0.6094
34.5600 23.0093 0.5970
34.5800 23.0226 0.5874
34.6000 23.0360 0.6022
34.6200 23.0493 0.6017
34.6400 23.0626 0.5895
34.6600 23.0760 0.6035
34.6800 23.0894 0.5914
34.7000 23.1027 0.5943
34.7200 23.1160 0.6040
34.7400 23.1294 0.5930
34.7600 23.1427 0.5928
34.7800 23.1560 0.5960
34.8000 23.1694 0.5908
34.8200 23.1827 0.5954
34.8400 23.1960 0.5929
34.8600 23.2094 0.5856
34.8800 23.2226 0.5955
34.9000 23.2359 0.5931
34.9200 23.2493 0.5864
34.9400 23.2626 0.5915
34.9600 23.2760 0.5908
34.9800 23.2893 0.5810
35.0000 23.3027 0.5924
35.0200 23.3161 0.5864
35.0400 23.3294 0.5805
35.0600 23.3427 0.5908
35.0800 23.3560 0.5811
35.1000 23.3694 0.5804
35.1200 23.3827 0.5941
35.1400 23.3960 0.5771
35.1600 23.4093 0.5818
35.1800 23.4226 0.5905
35.2000 23.4360 0.5728
35.2200 23.4493 0.5788
35.2400 23.4626 0.5900
35.2600 23.4760 0.5734
35.2800 23.4893 0.5794
35.3000 23.5026 0.5863
35.3200 23.5160 0.5690
35.3400 23.5293 0.5858
35.3600 23.5427 0.5820
35.3800 23.5560 0.5719
35.4000 23.5694 0.5838
35.4200 23.5827 0.5789
35.4400 23.5960 0.5722
35.4600 23.6094 0.5828
35.4800 23.6228 0.5728
35.5000 23.6361 0.5759
35.5200 23.6494 0.5791
35.5400 23.6627 0.5720
35.5600 23.6760 0.5787
35.5800 23.6893 0.5791
35.6000 23.7026 0.5619
35.6200 23.7160 0.5828
35.6400 23.7293 0.5739
35.6600 23.7426 0.5602
35.6800 23.7560 0.5766
35.7000 23.7693 0.5759
35.7200 23.7827 0.5608
35.7400 23.7960 0.5738
35.7600 23.8094 0.5686
35.7800 23.8227 0.5561
35.8000 23.8360 0.5721
35.8200 23.8493 0.5726
35.8400 23.8627 0.5560
35.8600 23.8760 0.5709
35.8800 23.8894 0.5651
35.9000 23.9027 0.5599
35.9200 23.9160 0.5691
35.9400 23.9293 0.5598
35.9600 23.9426 0.5623
35.9800 23.9559 0.5688
36.0000 23.9692 0.5617
36.0200 23.9826 0.5608
36.0400 23.9959 0.5647
36.0600 24.0093 0.5575
36.0800 24.0226 0.5639
36.1000 24.0361 0.5622
36.1200 24.0494 0.5569
36.1400 24.0628 0.5640
36.1600 24.0761 0.5590
36.1800 24.0894 0.5587
36.2000 24.1027 0.5620
36.2200 24.1160 0.5547
36.2400 24.1293 0.5650
36.2600 24.1426 0.5608
36.2800 24.1560 0.5534
36.3000 24.1693 0.5582
36.3200 24.1826 0.5585
36.3400 24.1959 0.5519
36.3600 24.2093 0.5640
36.3800 24.2227 0.5526
36.4000 24.2360 0.5450
36.4200 24.2493 0.5647
36.4400 24.2627 0.5495
36.4600 24.2761 0.5469
36.4800 24.2894 0.5620
36.5000 24.3027 0.5456
36.5200 24.3160 0.5490
36.5400 24.3294 0.5624
36.5600 24.3427 0.5399
36.5800 24.3560 0.5521
36.6000 24.3693 0.5546
36.6200 24.3826 0.5381
36.6400 24.3960 0.5528
36.6600 24.4093 0.5560
36.6800 24.4226 0.5319
36.7000 24.4359 0.5576
36.7200 24.4493 0.5497
36.7400 24.4626 0.5317
36.7600 24.4760 0.5528
36.7800 24.4893 0.5456
36.8000 24.5027 0.5331
36.8200 24.5160 0.5489
36.8400 24.5294 0.5452
36.8600 24.5427 0.5351
36.8800 24.5560 0.5428
36.9000 24.5694 0.5385
36.9200 24.5827 0.5387
36.9400 24.5960 0.5421
36.9600 24.6094 0.5349
36.9800 24.6227 0.5404
37.0000 24.6360 0.5432
37.0200 24.6493 0.5349
37.0400 24.6626 0.5414
37.0600 24.6759 0.5427
37.0800 24.6893 0.5376
37.1000 24.7026 0.5327
37.1200 24.7160 0.5422
37.1400 24.7293 0.5388
37.1600 24.7426 0.5362
37.1800 24.7560 0.5411
37.2000 24.7694 0.5350
37.2200 24.7827 0.5325
37.2400 24.7960 0.5399
37.2600 24.8094 0.5396
37.2800 24.8227 0.5330
37.3000 24.8360 0.5325
37.3200 24.8493 0.5386
37.3400 24.8626 0.5306
37.3600 24.8760 0.5391
37.3800 24.8893 0.5288
37.4000 24.9027 0.5328
37.4200 24.9160 0.5352
37.4400 24.9293 0.5259
37.4600 24.9426 0.5352
37.4800 24.9560 0.5295
37.5000 24.9693 0.5266
37.5200 24.9826 0.5343
37.5400 24.9960 0.5311
37.5600 25.0094 0.5249
37.5800 25.0227 0.5305
37.6000 25.0360 0.5309
37.6200 25.0494 0.5290
37.6400 25.0627 0.5310
37.6600 25.0761 0.5222
37.6800 25.0894 0.5309
37.7000 25.1027 0.5375
37.7200 25.1160 0.5176
37.7400 25.1293 0.5260
37.7600 25.1426 0.5277
37.7800 25.1559 0.5196
37.8000 25.1693 0.5285
37.8200 25.1826 0.5272
37.8400 25.1960 0.5138
37.8600 25.2093 0.5245
37.8800 25.2227 0.5258
37.9000 25.2360 0.5119
37.9200 25.2494 0.5244
37.9400 25.2627 0.5207
37.9600 25.2760 0.5084
37.9800 25.2894 0.5275
38.0000 25.3027 0.5242
38.0200 25.3161 0.5076
38.0400 25.3294 0.5221
38.0600 25.3427 0.5213
38.0800 25.3560 0.5074
38.1000 25.3693 0.5263
38.1200 25.3827 0.5181
38.1400 25.3960 0.5107
38.1600 25.4093 0.5260
38.1800 25.4226 0.5113
38.2000 25.4360 0.5114
38.2200 25.4493 0.5222
38.2400 25.4626 0.5120
38.2600 25.4760 0.5126
38.2800 25.4894 0.5211
38.3000 25.5027 0.5064
38.3200 25.5161 0.5168
38.3400 25.5294 0.5171
38.3600 25.5427 0.5066
38.3800 25.5561 0.5111
38.4000 25.5693 0.5221
38.4200 25.5826 0.5062
38.4400 25.5959 0.5149
38.4600 25.6093 0.5160
38.4800 25.6226 0.5044
38.5000 25.6359 0.5191
38.5200 25.6493 0.5116
38.5400 25.6627 0.5107
38.5600 25.6760 0.5199
38.5800 25.6894 0.5066
38.6000 25.7027 0.5112
38.6200 25.7160 0.5133
38.6400 25.7294 0.5070
38.6600 25.7427 0.5117
38.6800 25.7560 0.5119
38.7000 25.7693 0.5021
38.7200 25.7827 0.5052
38.7400 25.7961 0.5111
38.7600 25.8094 0.4995
38.7800 25.8227 0.5067
38.8000 25.8360 0.5094
38.8200 25.8494 0.5009
38.8400 25.8627 0.5008
38.8600 25.8760 0.5088
38.8800 25.8893 0.5015
38.9000 25.9026 0.5044
38.9200 25.9160 0.5072
38.9400 25.9293 0.5005
38.9600 25.9426 0.5036
38.9800 25.9560 0.5075
39.0000 25.9694 0.4965
39.0200 25.9827 0.5008
39.0400 25.9960 0.5054
39.0600 26.0093 0.5017
39.0800 26.0227 0.4999
39.1000 26.0360 0.5015
39.1200 26.0494 0.5037
39.1400 26.0627 0.5025
39.1600 26.0760 0.4962
39.1800 26.0894 0.5013
39.2000 26.1027 0.5004
39.2200 26.1160 0.4991
39.2400 26.1293 0.4993
39.2600 26.1426 0.4974
39.2800 26.1559 0.4936
39.3000 26.1693 0.4967
39.3200 26.1826 0.4995
39.3400 26.1960 0.4881
39.3600 26.2094 0.5036
39.3800 26.2227 0.4920
39.4000 26.2361 0.4877
39.4200 26.2494 0.4971
39.4400 26.2627 0.4913
39.4600 26.2761 0.4859
39.4800 26.2894 0.4943
39.5000 26.3026 0.4941
39.5200 26.3160 0.4893
39.5400 26.3293 0.4867
39.5600 26.3427 0.4908
39.5800 26.3560 0.4895
39.6000 26.3693 0.4941
39.6200 26.3826 0.4856
39.6400 26.3960 0.4851
39.6600 26.4093 0.4845
39.6800 26.4227 0.4875
39.7000 26.4360 0.4887
39.7200 26.4494 0.4876
39.7400 26.4627 0.4879
39.7600 26.4760 0.4860
39.7800 26.4894 0.4831
39.8000 26.5027 0.4867
39.8200 26.5161 0.4881
39.8400 26.5294 0.4821
39.8600 26.5427 0.4816
39.8800 26.5560 0.4850
39.9000 26.5693 0.4833
39.9200 26.5827 0.4812
39.9400 26.5959 0.4860
39.9600 26.6092 0.4851
39.9800 26.6226 0.4807
40.0000 26.6359 0.4826
40.0200 26.6493 0.4851
40.0400 26.6626 0.4803
40.0600 26.6760 0.4906
40.0800 26.6894 0.4778
40.1000 26.7027 0.4729
40.1200 26.7160 0.4874
40.1400 26.7294 0.4780
40.1600 26.7427 0.4721
40.1800 26.7561 0.4857
40.2000 26.7694 0.4706
40.2200 26.7827 0.4757
40.2400 26.7960 0.4837
40.2600 26.8093 0.4685
40.2800 26.8227 0.4716
40.3000 26.8360 0.4808
40.3200 26.8493 0.4679
40.3400 26.8626 0.4687
40.3600 26.8760 0.4800
40.3800 26.8893 0.4663
40.4000 26.9026 0.4707
40.4200 26.9160 0.4766
40.4400 26.9294 0.4662
40.4600 26.9427 0.4659
40.4800 26.9560 0.4694
40.5000 26.9693 0.4645
40.5200 26.9827 0.4662
40.5400 26.9961 0.4693
40.5600 27.0094 0.4598
40.5800 27.0227 0.4596
40.6000 27.0360 0.4675
40.6200 27.0493 0.4578
40.6400 27.0627 0.4594
40.6600 27.0760 0.4643
40.6800 27.0893 0.4604
40.7000 27.1026 0.4546
40.7200 27.1160 0.4675
40.7400 27.1293 0.4564
40.7600 27.1427 0.4566
40.7800 27.1560 0.4634
40.8000 27.1693 0.4555
40.8200 27.1827 0.4544
40.8400 27.1960 0.4607
40.8600 27.2093 0.4557
40.8800 27.2227 0.4559
40.9000 27.2360 0.4641
40.9200 27.2494 0.4573
40.9400 27.2627 0.4588
40.9600 27.2760 0.4608
40.9800 27.2894 0.4589
41.0000 27.3027 0.4550
41.0200 27.3160 0.4595
41.0400 27.3293 0.4644
41.0600 27.3426 0.4549
41.0800 27.3559 0.4522
41.1000 27.3693 0.4640
41.1200 27.3826 0.4501
41.1400 27.3959 0.4591
41.1600 27.4094 0.4602
41.1800 27.4228 0.4492
41.2000 27.4361 0.4498
41.2200 27.4494 0.4592
41.2400 27.4627 0.4505
41.2600 27.4761 0.4535
41.2800 27.4894 0.4588
41.3000 27.5027 0.4468
41.3200 27.5160 0.4498
41.3400 27.5293 0.4611
41.3600 27.5427 0.4465
41.3800 27.5560 0.4508
41.4000 27.5693 0.4573
41.4200 27.5826 0.4455
41.4400 27.5960 0.4464
41.4600 27.6093 0.4550
41.4800 27.6226 0.4461
41.5000 27.6360 0.4440
41.5200 27.6494 0.4573
41.5400 27.6627 0.4451
41.5600 27.6761 0.4475
41.5800 27.6894 0.4574
41.6000 27.7027 0.4453
41.6200 27.7161 0.4404
41.6400 27.7294 0.4594
41.6600 27.7427 0.4466
41.6800 27.7560 0.4458
41.7000 27.7693 0.4585
41.7200 27.7827 0.4456
41.7400 27.7960 0.4483
41.7600 27.8093 0.4613
41.7800 27.8226 0.4400
41.8000 27.8360 0.4503
41.8200 27.8493 0.4556
41.8400 27.8627 0.4427
41.8600 27.8760 0.4507
41.8800 27.8894 0.4584
41.9000 27.9027 0.4351
41.9200 27.9160 0.4489
41.9400 27.9294 0.4595
41.9600 27.9427 0.4371
41.9800 27.9560 0.4505
42.0000 27.9694 0.4546
42.0200 27.9827 0.4307
42.0400 27.9960 0.4545
42.0600 28.0094 0.4549
42.0800 28.0227 0.4333
42.1000 28.0360 0.4524
42.1200 28.0493 0.4504
42.1400 28.0626 0.4346
42.1600 28.0759 0.4503
42.1800 28.0893 0.4517
42.2000 28.1026 0.4323
42.2200 28.1160 0.4524
42.2400 28.1294 0.4419
42.2600 28.1427 0.4339
42.2800 28.1561 0.4434
42.3000 28.1694 0.4418
42.3200 28.1827 0.4342
42.3400 28.1960 0.4459
42.3600 28.2094 0.4398
42.3800 28.2227 0.4334
42.4000 28.2360 0.4416
42.4200 28.2493 0.4403
42.4400 28.2627 0.4277
42.4600 28.2760 0.4420
42.4800 28.2893 0.4363
42.5000 28.3026 0.4288
42.5200 28.3160 0.4363
42.5400 28.3293 0.4333
42.5600 28.3426 0.4302
42.5800 28.3560 0.4331
42.6000 28.3693 0.4286
42.6200 28.3827 0.4256
42.6400 28.3960 0.4289
42.6600 28.4094 0.4304
42.6800 28.4227 0.4271
42.7000 28.4361 0.4285
42.7200 28.4494 0.4217
42.7400 28.4627 0.4250
42.7600 28.4760 0.4327
42.7800 28.4893 0.4182
42.8000 28.5027 0.4248
42.8200 28.5160 0.4251
42.8400 28.5293 0.4184
42.8600 28.5426 0.4200
42.8800 28.5560 0.4265
42.9000 28.5693 0.4136
42.9200 28.5827 0.4211
42.9400 28.5960 0.4212
42.9600 28.6093 0.4137
42.9800 28.6227 0.4194
43.0000 28.6360 0.4171
43.0200 28.6493 0.4151
43.0400 28.6627 0.4186
43.0600 28.6760 0.4147
43.0800 28.6894 0.4142
43.1000 28.7027 0.4166
43.1200 28.7160 0.4211
43.1400 28.7293 0.4171
43.1600 28.7427 0.4174
43.1800 28.7560 0.4174
43.2000 28.7693 0.4122
43.2200 28.7826 0.4192
43.2400 28.7959 0.4206
43.2600 28.8093 0.4104
43.2800 28.8226 0.4187
43.3000 28.8359 0.4243
43.3200 28.8493 0.4077
43.3400 28.8627 0.4183
43.3600 28.8761 0.4203
43.3800 28.8894 0.4106
43.4000 28.9028 0.4205
43.4200 28.9161 0.4202
43.4400 28.9294 0.4029
43.4600 28.9427 0.4290
43.4800 28.9560 0.4230
43.5000 28.9693 0.4006
43.5200 28.9826 0.4282
43.5400 28.9959 0.4256
43.5600 29.0093 0.4009
43.5800 29.0226 0.4325
43.6000 29.0360 0.4301
43.6200 29.0494 0.3962
43.6400 29.0627 0.4240
43.6600 29.0760 0.4329
43.6800 29.0894 0.3989
43.7000 29.1028 0.4231
43.7200 29.1161 0.4239
43.7400 29.1294 0.3993
43.7600 29.1427 0.4350
43.7800 29.1560 0.4106
43.8000 29.1694 0.3953
43.8200 29.1827 0.4421
43.8400 29.1960 0.4170
43.8600 29.2093 0.3915
43.8800 29.2226 0.4419
43.9000 29.2360 0.4062
43.9200 29.2493 0.3942
43.9400 29.2626 0.4478
43.9600 29.2759 0.4040
43.9800 29.2893 0.3925
44.0000 29.3026 0.4435
44.0200 29.3160 0.3948
44.0400 29.3293 0.4067
44.0600 29.3427 0.4367
44.0800 29.3561 0.3918
44.1000 29.3694 0.4076
44.1200 29.3827 0.4340
44.1400 29.3960 0.3860
44.1600 29.4094 0.4138
44.1800 29.4227 0.4224
44.2000 29.4360 0.3876
44.2200 29.4493 0.4231
44.2400 29.4627 0.4129
44.2600 29.4760 0.3906
44.2800 29.4893 0.4236
44.3000 29.5026 0.4044
44.3200 29.5159 0.3972
44.3400 29.5293 0.4185
44.3600 29.5426 0.3961
44.3800 29.5560 0.4025
44.4000 29.5693 0.4145
44.4200 29.5827 0.3947
44.4400 29.5961 0.4054
44.4600 29.6094 0.4063
44.4800 29.6227 0.3932
44.5000 29.6360 0.4046
44.5200 29.6494 0.3975
44.5400 29.6627 0.3990
44.5600 29.6760 0.4050
44.5800 29.6893 0.3902
44.6000 29.7027 0.3948
44.6200 29.7160 0.4113
44.6400 29.7293 0.3837
44.6600 29.7426 0.3936
44.6800 29.7560 0.4085
44.7000 29.7693 0.3916
44.7200 29.7826 0.3886
44.7400 29.7960 0.3976
44.7600 29.8093 0.3867
44.7800 29.8227 0.3928
44.8000 29.8360 0.3935
44.8200 29.8494 0.3844
44.8400 29.8627 0.3934
44.8600 29.8760 0.3914
44.8800 29.8894 0.3828
44.9000 29.9027 0.3867
44.9200 29.9160 0.3928
44.9400 29.9293 0.3837
44.9600 29.9427 0.3848
44.9800 29.9560 0.3883
45.0000 29.9693 0.3801
45.0200 29.9826 0.3867
45.0400 29.9960 0.3892
45.0600 30.0093 0.3799
45.0800 30.0226 0.3840
45.1000 30.0360 0.3885
45.1200 30.0494 0.3820
45.1400 30.0627 0.3763
45.1600 30.0761 0.3855
45.1800 30.0894 0.3819
45.2000 30.1027 0.3798
45.2200 30.1160 0.3797
45.2400 30.1294 0.3819
45.2600 30.1427 0.3766
45.2800 30.1560 0.3818
45.3000 30.1693 0.3782
45.3200 30.1826 0.3791
45.3400 30.1960 0.3766
45.3600 30.2093 0.3779
45.3800 30.2226 0.3819
45.4000 30.2359 0.3703
45.4200 30.2493 0.3772
45.4400 30.2626 0.3816
45.4600 30.2760 0.3703
45.4800 30.2893 0.3748
45.5000 30.3027 0.3859
45.5200 30.3161 0.3703
45.5400 30.3294 0.3706
45.5600 30.3427 0.3774
45.5800 30.3561 0.3744
45.6000 30.3694 0.3699
45.6200 30.3827 0.3803
45.6400 30.3960 0.3632
45.6600 30.4093 0.3737
45.6800 30.4226 0.3762
45.7000 30.4360 0.3657
45.7200 30.4493 0.3747
45.7400 30.4626 0.3751
45.7600 30.4760 0.3592
45.7800 30.4893 0.3761
45.8000 30.5027 0.3702
45.8200 30.5160 0.3620
45.8400 30.5293 0.3749
45.8600 30.5427 0.3662
45.8800 30.5560 0.3599
45.9000 30.5694 0.3743
45.9200 30.5827 0.3650
45.9400 30.5960 0.3612
45.9600 30.6093 0.3759
45.9800 30.6227 0.3647
46.0000 30.6360 0.3614
46.0200 30.6493 0.3715
46.0400 30.6627 0.3595
46.0600 30.6760 0.3580
46.0800 30.6894 0.3755
46.1000 30.7026 0.3594
46.1200 30.7160 0.3606
46.1400 30.7293 0.3708
46.1600 30.7426 0.3579
46.1800 30.7560 0.3584
46.2000 30.7693 0.3754
46.2200 30.7827 0.3504
46.2400 30.7960 0.3606
46.2600 30.8094 0.3670
46.2800 30.8227 0.3532
46.3000 30.8360 0.3595
46.3200 30.8494 0.3673
46.3400 30.8627 0.3539
46.3600 30.8760 0.3601
46.3800 30.8893 0.3608
46.4000 30.9027 0.3584
46.4200 30.9160 0.3645
46.4400 30.9294 0.3566
46.4600 30.9427 0.3547
46.4800 30.9560 0.3661
46.5000 30.9693 0.3612
46.5200 30.9826 0.3557
46.5400 30.9960 0.3586
46.5600 31.0093 0.3608
46.5800 31.0227 0.3591
46.6000 31.0361 0.3482
46.6200 31.0494 0.3646
46.6400 31.0627 0.3634
46.6600 31.0760 0.3481
46.6800 31.0894 0.3571
46.7000 31.1027 0.3643
46.7200 31.1160 0.3529
46.7400 31.1293 0.3636
46.7600 31.1427 0.3516
46.7800 31.1560 0.3522
46.8000 31.1693 0.3711
46.8200 31.1826 0.3480
46.8400 31.1960 0.3505
46.8600 31.2093 0.3772
46.8800 31.2227 0.3415
46.9000 31.2360 0.3521
46.9200 31.2493 0.3732
46.9400 31.2627 0.3444
46.9600 31.2760 0.3499
46.9800 31.2894 0.3701
47.0000 31.3027 0.3436
47.0200 31.3160 0.3549
47.0400 31.3294 0.3716
47.0600 31.3427 0.3326
47.0800 31.3560 0.3561
47.1000 31.3693 0.3679
47.1200 31.3827 0.3367
47.1400 31.3960 0.3532
47.1600 31.4093 0.3576
47.1800 31.4226 0.3425
47.2000 31.4359 0.3545
47.2200 31.4493 0.3570
47.2400 31.4626 0.3407
47.2600 31.4760 0.3509
47.2800 31.4893 0.3603
47.3000 31.5027 0.3412
47.3200 31.5160 0.3546
47.3400 31.5294 0.3538
47.3600 31.5427 0.3452
47.3800 31.5560 0.3544
47.4000 31.5694 0.3601
47.4200 31.5827 0.3404
47.4400 31.5960 0.3512
47.4600 31.6093 0.3604
47.4800 31.6226 0.3392
47.5000 31.6360 0.3497
47.5200 31.6493 0.3606
47.5400 31.6626 0.3364
47.5600 31.6760 0.3497
47.5800 31.6893 0.3591
47.6000 31.7026 0.3400
47.6200 31.7160 0.3448
47.6400 31.7293 0.3542
47.6600 31.7427 0.3418
47.6800 31.7561 0.3455
47.7000 31.7694 0.3544
47.7200 31.7827 0.3340
47.7400 31.7960 0.3506
47.7600 31.8094 0.3510
47.7800 31.8227 0.3327
47.8000 31.8360 0.3456
47.8200 31.8493 0.3515
47.8400 31.8626 0.3316
47.8600 31.8760 0.3414
47.8800 31.8893 0.3485
47.9000 31.9026 0.3305
47.9200 31.9160 0.3382
47.9400 31.9293 0.3498
47.9600 31.9426 0.3255
47.9800 31.9560 0.3413
48.0000 31.9693 0.3401
48.0200 31.9826 0.3288
48.0400 31.9960 0.3370
48.0600 32.0093 0.3363
48.0800 32.0227 0.3296
48.1000 32.0360 0.3310
48.1200 32.0493 0.3356
48.1400 32.0627 0.3243
48.1600 32.0760 0.3316
48.1800 32.0894 0.3394
48.2000 32.1027 0.3219
48.2200 32.1160 0.3223
48.2400 32.1294 0.3338
48.2600 32.1426 0.3215
48.2800 32.1559 0.3245
48.3000 32.1693 0.3348
48.3200 32.1826 0.3260
48.3400 32.1959 0.3174
48.3600 32.2093 0.3359
48.3800 32.2226 0.3203
48.4000 32.2361 0.3193
48.4200 32.2494 0.3289
48.4400 32.2627 0.3185
48.4600 32.2761 0.3209
48.4800 32.2894 0.3309
48.5000 32.3028 0.3174
48.5200 32.3161 0.3189
48.5400 32.3293 0.3257
48.5600 32.3426 0.3174
48.5800 32.3560 0.3206
48.6000 32.3693 0.3261
48.6200 32.3826 0.3149
48.6400 32.3959 0.3187
48.6600 32.4093 0.3235
48.6800 32.4226 0.3188
48.7000 32.4360 0.3262
48.7200 32.4493 0.3174
48.7400 32.4627 0.3140
48.7600 32.4760 0.3182
48.7800 32.4894 0.3209
48.8000 32.5027 0.3174
48.8200 32.5161 0.3178
48.8400 32.5294 0.3204
48.8600 32.5427 0.3170
48.8800 32.5560 0.3091
48.9000 32.5693 0.3233
48.9200 32.5826 0.3203
48.9400 32.5960 0.3124
48.9600 32.6093 0.3145
48.9800 32.6226 0.3193
49.0000 32.6360 0.3125
49.0200 32.6493 0.3137
49.0400 32.6627 0.3139
49.0600 32.6760 0.3054
49.0800 32.6893 0.3190
49.1000 32.7027 0.3210
49.1200 32.7160 0.3038
49.1400 32.7294 0.3138
49.1600 32.7427 0.3151
49.1800 32.7560 0.3045
49.2000 32.7694 0.3199
49.2200 32.7827 0.3144
49.2400 32.7960 0.2963
49.2600 32.8093 0.3184
49.2800 32.8227 0.3145
49.3000 32.8360 0.2968
49.3200 32.8493 0.3206
49.3400 32.8626 0.3077
49.3600 32.8759 0.2966
49.3800 32.8893 0.3238
49.4000 32.9026 0.3096
49.4200 32.9160 0.2927
49.4400 32.9293 0.3231
49.4600 32.9427 0.3018
49.4800 32.9561 0.3015
49.5000 32.9694 0.3201
49.5200 32.9827 0.3026
49.5400 32.9960 0.3010
49.5600 33.0094 0.3168
49.5800 33.0227 0.2966
49.6000 33.0360 0.3067
49.6200 33.0493 0.3201
49.6400 33.0626 0.2991
49.6600 33.0760 0.3077
49.6800 33.0893 0.3098
49.7000 33.1026 0.3029
49.7200 33.1160 0.3122
49.7400 33.1293 0.3077
49.7600 33.1426 0.2992
49.7800 33.1560 0.3038
49.8000 33.1693 0.3051
49.8200 33.1826 0.2962
49.8400 33.1960 0.3074
49.8600 33.2094 0.2975
49.8800 33.2227 0.2919
49.9000 33.2360 0.3064
49.9200 33.2494 0.2967
49.9400 33.2627 0.2963
49.9600 33.2761 0.3029
49.9800 33.2894 0.2989
50.0000 33.3027 0.2975
50.0200 33.3160 0.3039
50.0400 33.3293 0.2943
50.0600 33.3427 0.2943
50.0800 33.3560 0.2988
50.1000 33.3693 0.2914
50.1200 33.3826 0.2910
50.1400 33.3960 0.2997
50.1600 33.4093 0.2872
50.1800 33.4227 0.2891
50.2000 33.4360 0.2926
50.2200 33.4494 0.2890
50.2400 33.4627 0.2900
50.2600 33.4760 0.2932
50.2800 33.4893 0.2861
50.3000 33.5027 0.2870
50.3200 33.5160 0.2881
50.3400 33.5294 0.2843
50.3600 33.5427 0.2863
50.3800 33.5560 0.2867
50.4000 33.5694 0.2830
50.4200 33.5827 0.2823
50.4400 33.5960 0.2833
50.4600 33.6093 0.2800
50.4800 33.6226 0.2869
50.5000 33.6359 0.2753
50.5200 33.6493 0.2775
50.5400 33.6626 0.2846
50.5600 33.6760 0.2771
50.5800 33.6894 0.2768
50.6000 33.7028 0.2826
50.6200 33.7161 0.2723
50.6400 33.7294 0.2780
50.6600 33.7427 0.2772
50.6800 33.7561 0.2761
50.7000 33.7693 0.2731
50.7200 33.7826 0.2778
50.7400 33.7960 0.2713
50.7600 33.8093 0.2700
50.7800 33.8226 0.2761
50.8000 33.8359 0.2736
50.8200 33.8493 0.2693
50.8400 33.8627 0.2714
50.8600 33.8760 0.2695
50.8800 33.8893 0.2659
50.9000 33.9027 0.2709
50.9200 33.9160 0.2730
50.9400 33.9294 0.2647
50.9600 33.9427 0.2671
50.9800 33.9560 0.2691
51.0000 33.9693 0.2641
51.0200 33.9827 0.2732
51.0400 33.9960 0.2682
51.0600 34.0093 0.2609
51.0800 34.0226 0.2679
51.1000 34.0360 0.2717
51.1200 34.0493 0.2577
51.1400 34.0626 0.2633
51.1600 34.0760 0.2687
51.1800 34.0893 0.2639
51.2000 34.1026 0.2652
51.2200 34.1160 0.2667
51.2400 34.1293 0.2622
51.2600 34.1427 0.2669
51.2800 34.1560 0.2595
51.3000 34.1694 0.2622
51.3200 34.1827 0.2700
51.3400 34.1960 0.2635
51.3600 34.2094 0.2592
51.3800 34.2227 0.2660
51.4000 34.2361 0.2652
51.4200 34.2494 0.2626
51.4400 34.2627 0.2642
51.4600 34.2760 0.2666
51.4800 34.2894 0.2582
51.5000 34.3027 0.2594
51.5200 34.3159 0.2684
51.5400 34.3292 0.2589
51.5600 34.3426 0.2610
51.5800 34.3560 0.2624
51.6000 34.3693 0.2596
51.6200 34.3826 0.2666
51.6400 34.3960 0.2651
51.6600 34.4094 0.2485
51.6800 34.4227 0.2594
51.7000 34.4361 0.2616
51.7200 34.4494 0.2516
51.7400 34.4627 0.2587
51.7600 34.4761 0.2631
51.7800 34.4893 0.2480
51.8000 34.5026 0.2634
51.8200 34.5160 0.2619
51.8400 34.5293 0.2500
51.8600 34.5427 0.2623
51.8800 34.5560 0.2592
51.9000 34.5693 0.2446
51.9200 34.5826 0.2573
51.9400 34.5960 0.2618
51.9600 34.6093 0.2433
51.9800 34.6226 0.2577
52.0000 34.6360 0.2585
52.0200 34.6493 0.2435
52.0400 34.6627 0.2553
52.0600 34.6760 0.2544
52.0800 34.6893 0.2430
52.1000 34.7027 0.2544
52.1200 34.7161 0.2535
52.1400 34.7294 0.2437
52.1600 34.7427 0.2464
52.1800 34.7560 0.2566
52.2000 34.7693 0.2390
52.2200 34.7827 0.2472
52.2400 34.7960 0.2600
52.2600 34.8093 0.2410
52.2800 34.8226 0.2342
52.3000 34.8360 0.2647
52.3200 34.8493 0.2485
52.3400 34.8626 0.2276
52.3600 34.8760 0.2660
52.3800 34.8894 0.2501
52.4000 34.9027 0.2194
52.4200 34.9160 0.2687
52.4400 34.9293 0.2510
52.4600 34.9427 0.2233
52.4800 34.9561 0.2630
52.5000 34.9694 0.2565
52.5200 34.9827 0.2291
52.5400 34.9960 0.2541
52.5600 35.0093 0.2522
52.5800 35.0227 0.2375
52.6000 35.0360 0.2545
52.6200 35.0493 0.2403
52.6400 35.0626 0.2464
52.6600 35.0760 0.2573
52.6800 35.0893 0.2295
52.7000 35.1026 0.2568
52.7200 35.1160 0.2620
52.7400 35.1294 0.2153
52.7600 35.1427 0.2585
52.7800 35.1561 0.2638
52.8000 35.1694 0.2171
52.8200 35.1827 0.2573
52.8400 35.1960 0.2608
52.8600 35.2093 0.2157
52.8800 35.2226 0.2647
52.9000 35.2359 0.2524
52.9200 35.2493 0.2166
52.9400 35.2626 0.2613
52.9600 35.2760 0.2451
52.9800 35.2893 0.2259
53.0000 35.3026 0.2644
53.0200 35.3160 0.2372
53.0400 35.3294 0.2295
53.0600 35.3427 0.2580
53.0800 35.3560 0.2355
53.1000 35.3694 0.2319
53.1200 35.3827 0.2510
53.1400 35.3960 0.2278
53.1600 35.4093 0.2375
53.1800 35.4227 0.2504
53.2000 35.4360 0.2268
53.2200 35.4494 0.2391
53.2400 35.4627 0.2409
53.2600 35.4760 0.2277
53.2800 35.4894 0.2381
53.3000 35.5027 0.2384
53.3200 35.5160 0.2261
53.3400 35.5293 0.2381
53.3600 35.5426 0.2269
53.3800 35.5560 0.2339
53.4000 35.5693 0.2361
53.4200 35.5826 0.2245
53.4400 35.5960 0.2301
53.4600 35.6093 0.2338
53.4800 35.6227 0.2202
53.5000 35.6360 0.2304
53.5200 35.6494 0.2304
53.5400 35.6627 0.2250
53.5600 35.6761 0.2248
53.5800 35.6894 0.2196
53.6000 35.7027 0.2268
53.6200 35.7160 0.2323
53.6400 35.7294 0.2097
53.6600 35.7427 0.2241
53.6800 35.7560 0.2252
53.7000 35.7693 0.2120
53.7200 35.7826 0.2256
53.7400 35.7960 0.2207
53.7600 35.8093 0.2136
53.7800 35.8226 0.2224
53.8000 35.8360 0.2158
53.8200 35.8494 0.2117
53.8400 35.8627 0.2322
53.8600 35.8760 0.2054
53.8800 35.8894 0.2137
53.9000 35.9027 0.2272
53.9200 35.9161 0.2077
53.9400 35.9294 0.2166
53.9600 35.9427 0.2189
53.9800 35.9560 0.2028
54.0000 35.9693 0.2214
54.0200 35.9827 0.2101
54.0400 35.9960 0.2032
54.0600 36.0093 0.2266
54.0800 36.0226 0.2072
54.1000 36.0360 0.2005
54.1200 36.0493 0.2243
54.1400 36.0627 0.2017
54.1600 36.0760 0.2058
54.1800 36.0894 0.2222
54.2000 36.1027 0.1945
54.2200 36.1160 0.2127
54.2400 36.1294 0.2169
54.2600 36.1427 0.1927
54.2800 36.1561 0.2130
54.3000 36.1694 0.2107
54.3200 36.1827 0.1853
54.3400 36.1960 0.2170
54.3600 36.2093 0.2122
54.3800 36.2227 0.1835
54.4000 36.2360 0.2131
54.4200 36.2493 0.2115
54.4400 36.2626 0.1818
54.4600 36.2760 0.2135
54.4800 36.2893 0.2065
54.5000 36.3026 0.1830
54.5200 36.3160 0.2076
54.5400 36.3294 0.2048
54.5600 36.3428 0.1805
54.5800 36.3561 0.2114
54.6000 36.3694 0.1967
54.6200 36.3827 0.1786
54.6400 36.3960 0.2077
54.6600 36.4094 0.1964
54.6800 36.4227 0.1774
54.7000 36.4360 0.2087
54.7200 36.4493 0.1902
54.7400 36.4627 0.1744
54.7600 36.4760 0.2030
54.7800 36.4893 0.1851
54.8000 36.5026 0.1796
54.8200 36.5160 0.1998
54.8400 36.5293 0.1812
54.8600 36.5426 0.1835
54.8800 36.5560 0.1964
54.9000 36.5694 0.1765
54.9200 36.5827 0.1812
54.9400 36.5960 0.1902
54.9600 36.6093 0.1773
54.9800 36.6227 0.1855
55.0000 36.6361 0.1907
55.0200 36.6494 0.1717
55.0400 36.6627 0.1846
55.0600 36.6760 0.1828
55.0800 36.6893 0.1814
55.1000 36.7026 0.1781
55.1200 36.7159 0.1854
55.1400 36.7292 0.1806
55.1600 36.7426 0.1797
55.1800 36.7560 0.1799
55.2000 36.7693 0.1781
55.2200 36.7827 0.1791
55.2400 36.7960 0.1805
55.2600 36.8093 0.1789
55.2800 36.8227 0.1754
55.3000 36.8360 0.1816
55.3200 36.8493 0.1804
55.3400 36.8627 0.1655
55.3600 36.8760 0.1781
55.3800 36.8894 0.1834
55.4000 36.9027 0.1656
55.4200 36.9160 0.1750
55.4400 36.9294 0.1804
55.4600 36.9427 0.1677
55.4800 36.9560 0.1723
55.5000 36.9693 0.1815
55.5200 36.9826 0.1647
55.5400 36.9959 0.1775
55.5600 37.0092 0.1788
55.5800 37.0226 0.1640
55.6000 37.0360 0.1766
55.6200 37.0494 0.1757
55.6400 37.0628 0.1607
55.6600 37.0761 0.1771
55.6800 37.0894 0.1693
55.7000 37.1027 0.1667
55.7200 37.1161 0.1778
55.7400 37.1294 0.1693
55.7600 37.1427 0.1650
55.7800 37.1560 0.1795
55.8000 37.1693 0.1666
55.8200 37.1827 0.1653
55.8400 37.1960 0.1731
55.8600 37.2093 0.1649
55.8800 37.2226 0.1675
55.9000 37.2359 0.1684
55.9200 37.2493 0.1669
55.9400 37.2626 0.1678
55.9600 37.2760 0.1666
55.9800 37.2893 0.1674
56.0000 37.3027 0.1668
56.0200 37.3161 0.1624
56.0400 37.3294 0.1670
56.0600 37.3427 0.1736
56.0800 37.3561 0.1564
56.1000 37.3694 0.1589
56.1200 37.3827 0.1730
56.1400 37.3960 0.1562
56.1600 37.4093 0.1626
56.1800 37.4227 0.1651
56.2000 37.4360 0.1528
56.2200 37.4493 0.1570
56.2400 37.4626 0.1642
56.2600 37.4759 0.1525
56.2800 37.4893 0.1544
56.3000 37.5026 0.1624
56.3200 37.5160 0.1500
56.3400 37.5293 0.1498
56.3600 37.5427 0.1586
56.3800 37.5560 0.1501
56.4000 37.5694 0.1458
56.4200 37.5827 0.1590
56.4400 37.5960 0.1483
56.4600 37.6094 0.1453
56.4800 37.6227 0.1559
56.5000 37.6360 0.1463
56.5200 37.6493 0.1416
56.5400 37.6627 0.1580
56.5600 37.6760 0.1413
56.5800 37.6893 0.1392
56.6000 37.7026 0.1570
56.6200 37.7159 0.1452
56.6400 37.7293 0.1331
56.6600 37.7426 0.1544
56.6800 37.7560 0.1443
56.7000 37.7694 0.1344
56.7200 37.7827 0.1485
56.7400 37.7961 0.1431
56.7600 37.8094 0.1321
56.7800 37.8227 0.1533
56.8000 37.8361 0.1378
56.8200 37.8494 0.1372
56.8400 37.8627 0.1503
56.8600 37.8760 0.1362
56.8800 37.8893 0.1335
56.9000 37.9027 0.1488
56.9200 37.9160 0.1308
56.9400 37.9293 0.1350
56.9600 37.9426 0.1461
56.9800 37.9560 0.1269
57.0000 37.9693 0.1342
57.0200 37.9826 0.1418
57.0400 37.9960 0.1285
57.0600 38.0093 0.1317
57.0800 38.0227 0.1384
57.1000 38.0361 0.1206
57.1200 38.0494 0.1294
57.1400 38.0627 0.1314
57.1600 38.0761 0.1235
57.1800 38.0894 0.1221
57.2000 38.1027 0.1300
57.2200 38.1160 0.1198
57.2400 38.1293 0.1255
57.2600 38.1427 0.1332
57.2800 38.1560 0.1191
57.3000 38.1693 0.1164
57.3200 38.1826 0.1321
57.3400 38.1959 0.1150
57.3600 38.2093 0.1161
57.3800 38.2226 0.1317
57.4000 38.2360 0.1154
57.4200 38.2493 0.1191
57.4400 38.2627 0.1313
57.4600 38.2761 0.1114
57.4800 38.2894 0.1214
57.5000 38.3027 0.1325
57.5200 38.3160 0.1152
57.5400 38.3294 0.1234
57.5600 38.3427 0.1298
57.5800 38.3560 0.1171
57.6000 38.3693 0.1217
57.6200 38.3827 0.1326
57.6400 38.3960 0.1186
57.6600 38.4093 0.1227
57.6800 38.4226 0.1275
57.7000 38.4359 0.1218
57.7200 38.4493 0.1182
57.7400 38.4626 0.1253
57.7600 38.4759 0.1213
57.7800 38.4893 0.1209
57.8000 38.5027 0.1182
57.8200 38.5161 0.1194
57.8400 38.5294 0.1168
57.8600 38.5427 0.1240
57.8800 38.5561 0.1144
57.9000 38.5694 0.1144
57.9200 38.5827 0.1161
57.9400 38.5960 0.1156
57.9600 38.6093 0.1148
57.9800 38.6226 0.1111
58.0000 38.6360 0.1127
58.0200 38.6493 0.1139
58.0400 38.6626 0.1098
58.0600 38.6760 0.1141
58.0800 38.6893 0.1082
58.1000 38.7027 0.1009
58.1200 38.7160 0.1120
58.1400 38.7294 0.1042
58.1600 38.7427 0.1042
58.1800 38.7561 0.1054
58.2000 38.7694 0.1049
58.2200 38.7827 0.1020
58.2400 38.7960 0.1110
58.2600 38.8094 0.0993
58.2800 38.8227 0.1019
58.3000 38.8360 0.1036
58.3200 38.8493 0.0941
58.3400 38.8627 0.0986
58.3600 38.8760 0.1041
58.3800 38.8893 0.0859
58.4000 38.9026 0.1005
58.4200 38.9159 0.0976
58.4400 38.9293 0.0856
58.4600 38.9427 0.0912
58.4800 38.9560 0.0979
58.5000 38.9694 0.0833
58.5200 38.9827 0.0884
58.5400 38.9961 0.0913
58.5600 39.0094 0.0799
58.5800 39.0227 0.0910
58.6000 39.0360 0.0917
58.6200 39.0494 0.0767
58.6400 39.0627 0.0882
58.6600 39.0760 0.0899
58.6800 39.0893 0.0761
58.7000 39.1027 0.0849
58.7200 39.1160 0.0871
58.7400 39.1293 0.0748
58.7600 39.1426 0.0840
58.7800 39.1559 0.0868
58.8000 39.1693 0.0683
58.8200 39.1826 0.0841
58.8400 39.1960 0.0857
58.8600 39.2093 0.0657
58.8800 39.2227 0.0809
58.9000 39.2361 0.0808
58.9200 39.2494 0.0660
58.9400 39.2627 0.0856
58.9600 39.2760 0.0783
58.9800 39.2894 0.0639
59.0000 39.3027 0.0768
59.0200 39.3160 0.0818
59.0400 39.3293 0.0618
59.0600 39.3427 0.0771
59.0800 39.3560 0.0737
59.1000 39.3693 0.0616
59.1200 39.3826 0.0714
59.1400 39.3960 0.0775
59.1600 39.4093 0.0621
59.1800 39.4226 0.0632
59.2000 39.4360 0.0751
59.2200 39.4493 0.0596
59.2400 39.4626 0.0663
59.2600 39.4760 0.0728
59.2800 39.4894 0.0539
59.3000 39.5027 0.0623
59.3200 39.5160 0.0748
59.3400 39.5294 0.0540
59.3600 39.5427 0.0594
59.3800 39.5560 0.0661
59.4000 39.5693 0.0546
59.4200 39.5827 0.0614
59.4400 39.5960 0.0710
59.4600 39.6093 0.0507
59.4800 39.6226 0.0630
59.5000 39.6359 0.0682
59.5200 39.6493 0.0501
59.5400 39.6626 0.0584
59.5600 39.6760 0.0669
59.5800 39.6893 0.0512
59.6000 39.7027 0.0589
59.6200 39.7161 0.0629
59.6400 39.7294 0.0464
59.6600 39.7427 0.0649
59.6800 39.7560 0.0650
59.7000 39.7694 0.0433
59.7200 39.7827 0.0608
59.7400 39.7960 0.0606
59.7600 39.8093 0.0435
59.7800 39.8227 0.0635
59.8000 39.8360 0.0576
59.8200 39.8493 0.0442
59.8400 39.8626 0.0596
59.8600 39.8760 0.0543
59.8800 39.8893 0.0399
59.9000 39.9026 0.0575
59.9200 39.9160 0.0493
59.9400 39.9293 0.0395
59.9600 39.9427 0.0486
59.9800 39.9561 0.0438
60.0000 39.9694 0.0305
60.0200 39.9827 0.0499
60.0400 39.9960 0.0343
60.0470 40.0005 0.0137
