Raw Data
Time Displacement Force
(s) (mm) (N)
0.0000 0.0000 0.5679
0.0200 0.0001 0.5725
0.0400 0.0021 0.6537
0.0600 0.0098 0.7113
0.0800 0.0217 0.6894
0.1000 0.0343 0.7654
0.1200 0.0469 0.8734
0.1400 0.0602 0.8818
0.1600 0.0742 0.8826
0.1800 0.0884 0.8873
0.2000 0.1024 0.8565
0.2200 0.1160 0.8719
0.2400 0.1293 0.8876
0.2600 0.1426 0.8584
0.2800 0.1559 0.8796
0.3000 0.1693 0.8812
0.3200 0.1827 0.8534
0.3400 0.1960 0.8846
0.3600 0.2094 0.8700
0.3800 0.2227 0.8570
0.4000 0.2360 0.8782
0.4200 0.2494 0.8642
0.4400 0.2626 0.8553
0.4600 0.2759 0.8784
0.4800 0.2893 0.8630
0.5000 0.3026 0.8566
0.5200 0.3160 0.8660
0.5400 0.3293 0.8563
0.5600 0.3426 0.8554
0.5800 0.3560 0.8632
0.6000 0.3694 0.8446
0.6200 0.3827 0.8547
0.6400 0.3961 0.8553
0.6600 0.4094 0.8440
0.6800 0.4228 0.8504
0.7000 0.4361 0.8468
0.7200 0.4494 0.8412
0.7400 0.4627 0.8428
0.7600 0.4761 0.8417
0.7800 0.4894 0.8344
0.8000 0.5027 0.8417
0.8200 0.5160 0.8353
0.8400 0.5294 0.8355
0.8600 0.5427 0.8300
0.8800 0.5560 0.8278
0.9000 0.5693 0.8355
0.9200 0.5826 0.8238
0.9400 0.5960 0.8282
0.9600 0.6093 0.8295
0.9800 0.6226 0.8099
1.0000 0.6360 0.8240
1.0200 0.6493 0.8206
1.0400 0.6627 0.8060
1.0600 0.6761 0.8183
1.0800 0.6894 0.8162
1.1000 0.7027 0.8042
1.1200 0.7161 0.8158
1.1400 0.7294 0.8076
1.1600 0.7427 0.8036
1.1800 0.7560 0.8149
1.2000 0.7693 0.8017
1.2200 0.7827 0.7969
1.2400 0.7960 0.8067
1.2600 0.8093 0.7978
1.2800 0.8226 0.7947
1.3000 0.8360 0.8013
1.3200 0.8493 0.7957
1.3400 0.8627 0.7869
1.3600 0.8760 0.7940
1.3800 0.8894 0.7905
1.4000 0.9027 0.7793
1.4200 0.9160 0.7899
1.4400 0.9294 0.7844
1.4600 0.9427 0.7789
1.4800 0.9561 0.7861
1.5000 0.9694 0.7793
1.5200 0.9827 0.7769
1.5400 0.9960 0.7800
1.5600 1.0093 0.7756
1.5800 1.0227 0.7774
1.6000 1.0360 0.7753
1.6200 1.0493 0.7702
1.6400 1.0626 0.7675
1.6600 1.0760 0.7740
1.6800 1.0893 0.7630
1.7000 1.1027 0.7696
1.7200 1.1160 0.7681
1.7400 1.1294 0.7615
1.7600 1.1428 0.7591
1.7800 1.1561 0.7625
1.8000 1.1694 0.7616
1.8200 1.1827 0.7572
1.8400 1.1961 0.7562
1.8600 1.2094 0.7539
1.8800 1.2227 0.7511
1.9000 1.2360 0.7553
1.9200 1.2494 0.7488
1.9400 1.2627 0.7493
1.9600 1.2760 0.7463
1.9800 1.2893 0.7456
2.0000 1.3026 0.7471
2.0200 1.3160 0.7425
2.0400 1.3293 0.7500
2.0600 1.3427 0.7397
2.0800 1.3560 0.7371
2.1000 1.3694 0.7397
2.1200 1.3828 0.7391
2.1400 1.3961 0.7370
2.1600 1.4094 0.7356
2.1800 1.4227 0.7332
2.2000 1.4361 0.7326
2.2200 1.4494 0.7316
2.2400 1.4627 0.7294
2.2600 1.4760 0.7290
2.2800 1.4893 0.7331
2.3000 1.5026 0.7191
2.3200 1.5160 0.7278
2.3400 1.5293 0.7237
2.3600 1.5427 0.7165
2.3800 1.5560 0.7209
2.4000 1.5694 0.7168
2.4200 1.5827 0.7158
2.4400 1.5960 0.7163
2.4600 1.6094 0.7114
2.4800 1.6227 0.7090
2.5000 1.6360 0.7187
2.5200 1.6493 0.7183
2.5400 1.6627 0.7025
2.5600 1.6760 0.7130
2.5800 1.6894 0.7075
2.6000 1.7027 0.7052
2.6200 1.7161 0.7190
2.6400 1.7294 0.7043
2.6600 1.7427 0.6944
2.6800 1.7561 0.7098
2.7000 1.7694 0.7034
2.7200 1.7827 0.6928
2.7400 1.7960 0.7087
2.7600 1.8093 0.6921
2.7800 1.8226 0.6903
2.8000 1.8360 0.7048
2.8200 1.8493 0.6908
2.8400 1.8627 0.6862
2.8600 1.8761 0.7016
2.8800 1.8894 0.6819
2.9000 1.9027 0.6840
2.9200 1.9161 0.6924
2.9400 1.9294 0.6807
2.9600 1.9427 0.6855
2.9800 1.9560 0.6873
3.0000 1.9694 0.6759
3.0200 1.9827 0.6855
3.0400 1.9960 0.6752
3.0600 2.0093 0.6733
3.0800 2.0226 0.6888
3.1000 2.0360 0.6692
3.1200 2.0493 0.6677
3.1400 2.0627 0.6812
3.1600 2.0760 0.6636
3.1800 2.0894 0.6668
3.2000 2.1027 0.6739
3.2200 2.1161 0.6591
3.2400 2.1294 0.6669
3.2600 2.1428 0.6655
3.2800 2.1561 0.6579
3.3000 2.1694 0.6598
3.3200 2.1827 0.6683
3.3400 2.1960 0.6488
3.3600 2.2093 0.6621
3.3800 2.2227 0.6626
3.4000 2.2360 0.6459
3.4200 2.2493 0.6581
3.4400 2.2626 0.6544
3.4600 2.2760 0.6491
3.4800 2.2894 0.6525
3.5000 2.3027 0.6491
3.5200 2.3160 0.6455
3.5400 2.3293 0.6453
3.5600 2.3427 0.6486
3.5800 2.3561 0.6373
3.6000 2.3694 0.6424
3.6200 2.3827 0.6406
3.6400 2.3961 0.6333
3.6600 2.4095 0.6361
3.6800 2.4228 0.6366
3.7000 2.4361 0.6310
3.7200 2.4494 0.6319
3.7400 2.4627 0.6344
3.7600 2.4760 0.6278
3.7800 2.4893 0.6287
3.8000 2.5026 0.6265
3.8200 2.5159 0.6262
3.8400 2.5293 0.6203
3.8600 2.5426 0.6211
3.8800 2.5560 0.6228
3.9000 2.5694 0.6201
3.9200 2.5828 0.6183
3.9400 2.5961 0.6229
3.9600 2.6094 0.6123
3.9800 2.6227 0.6191
4.0000 2.6360 0.6183
4.0200 2.6494 0.6092
4.0400 2.6627 0.6165
4.0600 2.6760 0.6145
4.0800 2.6893 0.6088
4.1000 2.7027 0.6177
4.1200 2.7160 0.6067
4.1400 2.7294 0.6077
4.1600 2.7427 0.6133
4.1800 2.7560 0.6041
4.2000 2.7693 0.5973
4.2200 2.7826 0.6181
4.2400 2.7960 0.6007
4.2600 2.8093 0.5908
4.2800 2.8227 0.6109
4.3000 2.8361 0.5947
4.3200 2.8494 0.5872
4.3400 2.8627 0.6054
4.3600 2.8761 0.5963
4.3800 2.8894 0.5857
4.4000 2.9027 0.5977
4.4200 2.9160 0.5925
4.4400 2.9293 0.5884
4.4600 2.9427 0.5982
4.4800 2.9560 0.5899
4.5000 2.9693 0.5802
4.5200 2.9827 0.5967
4.5400 2.9960 0.5856
4.5600 3.0093 0.5816
4.5800 3.0227 0.5887
4.6000 3.0360 0.5867
4.6200 3.0493 0.5721
4.6400 3.0627 0.5862
4.6600 3.0760 0.5789
4.6800 3.0893 0.5714
4.7000 3.1027 0.5835
4.7200 3.1160 0.5770
4.7400 3.1294 0.5657
4.7600 3.1428 0.5761
4.7800 3.1561 0.5758
4.8000 3.1694 0.5674
4.8200 3.1827 0.5740
4.8400 3.1961 0.5742
4.8600 3.2094 0.5568
4.8800 3.2227 0.5745
4.9000 3.2359 0.5672
4.9200 3.2493 0.5548
4.9400 3.2626 0.5653
4.9600 3.2760 0.5590
4.9800 3.2893 0.5588
5.0000 3.3027 0.5603
5.0200 3.3161 0.5558
5.0400 3.3295 0.5516
5.0600 3.3428 0.5610
5.0800 3.3561 0.5559
5.1000 3.3695 0.5489
5.1200 3.3828 0.5513
5.1400 3.3960 0.5549
5.1600 3.4093 0.5406
5.1800 3.4227 0.5506
5.2000 3.4360 0.5503
5.2200 3.4493 0.5410
5.2400 3.4626 0.5479
5.2600 3.4759 0.5465
5.2800 3.4893 0.5370
5.3000 3.5026 0.5473
5.3200 3.5160 0.5402
5.3400 3.5293 0.5311
5.3600 3.5427 0.5464
5.3800 3.5561 0.5408
5.4000 3.5694 0.5236
5.4200 3.5827 0.5427
5.4400 3.5961 0.5400
5.4600 3.6094 0.5211
5.4800 3.6228 0.5395
5.5000 3.6360 0.5330
5.5200 3.6493 0.5206
5.5400 3.6627 0.5346
5.5600 3.6760 0.5274
5.5800 3.6893 0.5167
5.6000 3.7026 0.5335
5.6200 3.7160 0.5241
5.6400 3.7293 0.5151
5.6600 3.7427 0.5248
5.6800 3.7560 0.5181
5.7000 3.7693 0.5121
5.7200 3.7827 0.5286
5.7400 3.7961 0.5125
5.7600 3.8094 0.5076
5.7800 3.8227 0.5197
5.8000 3.8361 0.5120
5.8200 3.8494 0.5088
5.8400 3.8628 0.5167
5.8600 3.8761 0.5021
5.8800 3.8894 0.5094
5.9000 3.9027 0.5102
5.9200 3.9161 0.5005
5.9400 3.9294 0.5032
5.9600 3.9426 0.5035
5.9800 3.9560 0.5002
6.0000 3.9693 0.5027
6.0200 3.9827 0.4947
6.0400 3.9960 0.4932
6.0600 4.0094 0.5004
6.0800 4.0227 0.4913
6.1000 4.0361 0.4935
6.1200 4.0494 0.4934
6.1400 4.0627 0.4911
6.1600 4.0761 0.4909
6.1800 4.0894 0.4889
6.2000 4.1027 0.4891
6.2200 4.1160 0.4890
6.2400 4.1293 0.4817
6.2600 4.1427 0.4870
6.2800 4.1560 0.4828
6.3000 4.1694 0.4847
6.3200 4.1827 0.4865
6.3400 4.1960 0.4850
6.3600 4.2093 0.4780
6.3800 4.2226 0.4883
6.4000 4.2360 0.4759
6.4200 4.2493 0.4814
6.4400 4.2627 0.4846
6.4600 4.2761 0.4737
6.4800 4.2894 0.4761
6.5000 4.3027 0.4802
6.5200 4.3161 0.4727
6.5400 4.3294 0.4738
6.5600 4.3428 0.4788
6.5800 4.3561 0.4729
6.6000 4.3694 0.4734
6.6200 4.3827 0.4730
6.6400 4.3960 0.4697
6.6600 4.4093 0.4742
6.6800 4.4226 0.4695
6.7000 4.4360 0.4675
6.7200 4.4493 0.4732
6.7400 4.4626 0.4645
6.7600 4.4760 0.4669
6.7800 4.4893 0.4650
6.8000 4.5027 0.4649
6.8200 4.5161 0.4632
6.8400 4.5294 0.4637
6.8600 4.5427 0.4629
6.8800 4.5560 0.4610
6.9000 4.5694 0.4597
6.9200 4.5827 0.4566
6.9400 4.5960 0.4549
6.9600 4.6094 0.4619
6.9800 4.6227 0.4521
7.0000 4.6360 0.4571
7.0200 4.6493 0.4521
7.0400 4.6626 0.4519
7.0600 4.6759 0.4505
7.0800 4.6893 0.4496
7.1000 4.7026 0.4463
7.1200 4.7160 0.4472
7.1400 4.7293 0.4487
7.1600 4.7427 0.4473
7.1800 4.7561 0.4438
7.2000 4.7695 0.4426
7.2200 4.7828 0.4396
7.2400 4.7961 0.4381
7.2600 4.8095 0.4417
7.2800 4.8228 0.4398
7.3000 4.8361 0.4347
7.3200 4.8493 0.4399
7.3400 4.8626 0.4380
7.3600 4.8760 0.4243
7.3800 4.8893 0.4473
7.4000 4.9026 0.4344
7.4200 4.9160 0.4242
7.4400 4.9294 0.4411
7.4600 4.9427 0.4277
7.4800 4.9561 0.4217
7.5000 4.9694 0.4453
7.5200 4.9827 0.4166
7.5400 4.9961 0.4209
7.5600 5.0094 0.4432
7.5800 5.0227 0.4131
7.6000 5.0361 0.4165
7.6200 5.0494 0.4404
7.6400 5.0627 0.4048
7.6600 5.0760 0.4159
7.6800 5.0893 0.4382
7.7000 5.1027 0.4065
7.7200 5.1160 0.4175
7.7400 5.1293 0.4299
7.7600 5.1426 0.3976
7.7800 5.1559 0.4171
7.8000 5.1693 0.4297
7.8200 5.1827 0.3980
7.8400 5.1960 0.4111
7.8600 5.2093 0.4240
7.8800 5.2227 0.3990
7.9000 5.2361 0.4058
7.9200 5.2494 0.4176
7.9400 5.2627 0.3987
7.9600 5.2760 0.4071
7.9800 5.2894 0.4072
8.0000 5.3028 0.3942
8.0200 5.3161 0.4052
8.0400 5.3294 0.4051
8.0600 5.3427 0.3913
8.0800 5.3560 0.4013
8.1000 5.3694 0.3996
8.1200 5.3826 0.3938
8.1400 5.3960 0.3896
8.1600 5.4093 0.4020
8.1800 5.4227 0.3930
8.2000 5.4360 0.3817
8.2200 5.4493 0.3945
8.2400 5.4627 0.3924
8.2600 5.4761 0.3765
8.2800 5.4894 0.3909
8.3000 5.5028 0.3860
8.3200 5.5161 0.3781
8.3400 5.5294 0.3863
8.3600 5.5427 0.3809
8.3800 5.5560 0.3713
8.4000 5.5693 0.3866
8.4200 5.5827 0.3782
8.4400 5.5960 0.3670
8.4600 5.6094 0.3836
8.4800 5.6227 0.3706
8.5000 5.6360 0.3644
8.5200 5.6493 0.3805
8.5400 5.6627 0.3700
8.5600 5.6760 0.3604
8.5800 5.6893 0.3767
8.6000 5.7027 0.3634
8.6200 5.7161 0.3598
8.6400 5.7294 0.3749
8.6600 5.7427 0.3666
8.6800 5.7560 0.3569
8.7000 5.7694 0.3726
8.7200 5.7828 0.3619
8.7400 5.7961 0.3516
8.7600 5.8094 0.3682
8.7800 5.8227 0.3673
8.8000 5.8360 0.3473
8.8200 5.8493 0.3683
8.8400 5.8626 0.3581
8.8600 5.8760 0.3475
8.8800 5.8893 0.3706
8.9000 5.9027 0.3598
8.9200 5.9160 0.3468
8.9400 5.9294 0.3663
8.9600 5.9427 0.3572
8.9800 5.9561 0.3482
9.0000 5.9694 0.3636
9.0200 5.9827 0.3593
9.0400 5.9960 0.3419
9.0600 6.0094 0.3636
9.0800 6.0228 0.3549
9.1000 6.0361 0.3452
9.1200 6.0494 0.3671
9.1400 6.0627 0.3484
9.1600 6.0760 0.3458
9.1800 6.0893 0.3560
9.2000 6.1026 0.3487
9.2200 6.1160 0.3442
9.2400 6.1293 0.3534
9.2600 6.1426 0.3430
9.2800 6.1560 0.3393
9.3000 6.1693 0.3466
9.3200 6.1827 0.3422
9.3400 6.1961 0.3380
9.3600 6.2094 0.3433
9.3800 6.2228 0.3372
9.4000 6.2361 0.3320
9.4200 6.2494 0.3381
9.4400 6.2627 0.3389
9.4600 6.2760 0.3268
9.4800 6.2893 0.3322
9.5000 6.3026 0.3398
9.5200 6.3160 0.3271
9.5400 6.3293 0.3274
9.5600 6.3426 0.3340
9.5800 6.3560 0.3216
9.6000 6.3693 0.3289
9.6200 6.3827 0.3347
9.6400 6.3960 0.3154
9.6600 6.4094 0.3231
9.6800 6.4227 0.3340
9.7000 6.4361 0.3114
9.7200 6.4494 0.3150
9.7400 6.4627 0.3329
9.7600 6.4760 0.3115
9.7800 6.4893 0.3174
9.8000 6.5027 0.3247
9.8200 6.5161 0.3059
9.8400 6.5294 0.3203
9.8600 6.5427 0.3244
9.8800 6.5561 0.3023
9.9000 6.5694 0.3199
9.9200 6.5827 0.3228
9.9400 6.5960 0.2976
9.9600 6.6093 0.3117
9.9800 6.6227 0.3236
10.0000 6.6360 0.2966
10.0200 6.6493 0.3053
10.0400 6.6627 0.3154
10.0600 6.6760 0.3008
10.0800 6.6894 0.3066
10.1000 6.7027 0.3103
10.1200 6.7161 0.2946
10.1400 6.7294 0.3053
10.1600 6.7428 0.3116
10.1800 6.7561 0.2939
10.2000 6.7694 0.3015
10.2200 6.7827 0.3082
10.2400 6.7961 0.2949
10.2600 6.8094 0.2973
10.2800 6.8227 0.3059
10.3000 6.8360 0.2916
10.3200 6.8493 0.3035
10.3400 6.8626 0.2936
10.3600 6.8760 0.2854
10.3800 6.8893 0.3051
10.4000 6.9027 0.2961
10.4200 6.9160 0.2793
10.4400 6.9294 0.2989
10.4600 6.9427 0.2937
10.4800 6.9561 0.2828
10.5000 6.9694 0.2942
10.5200 6.9827 0.2918
10.5400 6.9961 0.2813
10.5600 7.0094 0.2897
10.5800 7.0227 0.2855
10.6000 7.0360 0.2870
10.6200 7.0494 0.2828
10.6400 7.0627 0.2849
10.6600 7.0760 0.2823
10.6800 7.0893 0.2802
10.7000 7.1027 0.2856
10.7200 7.1160 0.2754
10.7400 7.1293 0.2784
10.7600 7.1427 0.2851
10.7800 7.1560 0.2790
10.8000 7.1694 0.2734
10.8200 7.1827 0.2795
10.8400 7.1961 0.2796
10.8600 7.2094 0.2715
10.8800 7.2228 0.2806
10.9000 7.2361 0.2729
10.9200 7.2494 0.2683
10.9400 7.2627 0.2801
10.9600 7.2760 0.2660
10.9800 7.2894 0.2700
11.0000 7.3027 0.2728
11.0200 7.3160 0.2678
11.0400 7.3293 0.2641
11.0600 7.3426 0.2686
11.0800 7.3560 0.2656
11.1000 7.3693 0.2676
11.1200 7.3827 0.2620
11.1400 7.3961 0.2611
11.1600 7.4094 0.2631
11.1800 7.4228 0.2607
11.2000 7.4361 0.2611
11.2200 7.4494 0.2648
11.2400 7.4627 0.2616
11.2600 7.4761 0.2568
11.2800 7.4894 0.2560
11.3000 7.5027 0.2606
11.3200 7.5160 0.2606
11.3400 7.5294 0.2556
11.3600 7.5427 0.2565
11.3800 7.5560 0.2581
11.4000 7.5693 0.2521
11.4200 7.5827 0.2499
11.4400 7.5960 0.2571
11.4600 7.6093 0.2497
11.4800 7.6227 0.2470
11.5000 7.6360 0.2558
11.5200 7.6494 0.2423
11.5400 7.6628 0.2395
11.5600 7.6761 0.2567
11.5800 7.6894 0.2381
11.6000 7.7028 0.2388
11.6200 7.7161 0.2534
11.6400 7.7294 0.2371
11.6600 7.7427 0.2326
11.6800 7.7560 0.2534
11.7000 7.7693 0.2357
11.7200 7.7827 0.2285
11.7400 7.7960 0.2479
11.7600 7.8093 0.2339
11.7800 7.8226 0.2283
11.8000 7.8360 0.2481
11.8200 7.8493 0.2241
11.8400 7.8627 0.2284
11.8600 7.8760 0.2460
11.8800 7.8894 0.2210
11.9000 7.9027 0.2240
11.9200 7.9160 0.2388
11.9400 7.9293 0.2231
11.9600 7.9427 0.2241
11.9800 7.9561 0.2336
12.0000 7.9694 0.2174
12.0200 7.9827 0.2235
12.0400 7.9961 0.2286
12.0600 8.0094 0.2144
12.0800 8.0227 0.2185
12.1000 8.0360 0.2329
12.1200 8.0493 0.2158
12.1400 8.0626 0.2169
12.1600 8.0759 0.2267
12.1800 8.0893 0.2166
12.2000 8.1026 0.2141
12.2200 8.1160 0.2248
12.2400 8.1294 0.2135
12.2600 8.1428 0.2072
12.2800 8.1561 0.2229
12.3000 8.1694 0.2187
12.3200 8.1828 0.2039
12.3400 8.1961 0.2232
12.3600 8.2094 0.2121
12.3800 8.2227 0.2042
12.4000 8.2360 0.2202
12.4200 8.2494 0.2097
12.4400 8.2627 0.1999
12.4600 8.2760 0.2214
12.4800 8.2893 0.2045
12.5000 8.3026 0.1949
12.5200 8.3160 0.2189
12.5400 8.3293 0.2023
12.5600 8.3427 0.1945
12.5800 8.3560 0.2173
12.6000 8.3694 0.2009
12.6200 8.3828 0.1940
12.6400 8.3961 0.2125
12.6600 8.4094 0.1960
12.6800 8.4228 0.1911
12.7000 8.4361 0.2051
12.7200 8.4494 0.1924
12.7400 8.4627 0.1890
12.7600 8.4760 0.2081
12.7800 8.4893 0.1862
12.8000 8.5027 0.1913
12.8200 8.5160 0.2020
12.8400 8.5293 0.1894
12.8600 8.5426 0.1850
12.8800 8.5560 0.1976
12.9000 8.5694 0.1862
12.9200 8.5827 0.1828
12.9400 8.5960 0.1912
12.9600 8.6094 0.1851
12.9800 8.6227 0.1775
13.0000 8.6361 0.1867
13.0200 8.6494 0.1855
13.0400 8.6627 0.1826
13.0600 8.6761 0.1863
13.0800 8.6894 0.1785
13.1000 8.7027 0.1757
13.1200 8.7160 0.1852
13.1400 8.7294 0.1811
13.1600 8.7427 0.1688
13.1800 8.7560 0.1802
13.2000 8.7693 0.1842
13.2200 8.7826 0.1681
13.2400 8.7960 0.1765
13.2600 8.8094 0.1768
13.2800 8.8227 0.1666
13.3000 8.8360 0.1779
13.3200 8.8494 0.1661
13.3400 8.8628 0.1650
13.3600 8.8761 0.1809
13.3800 8.8894 0.1712
13.4000 8.9027 0.1601
13.4200 8.9161 0.1799
13.4400 8.9294 0.1633
13.4600 8.9427 0.1610
13.4800 8.9560 0.1847
13.5000 8.9693 0.1606
13.5200 8.9827 0.1520
13.5400 8.9960 0.1827
13.5600 9.0093 0.1561
13.5800 9.0226 0.1573
13.6000 9.0360 0.1743
13.6200 9.0493 0.1506
13.6400 9.0626 0.1543
13.6600 9.0760 0.1759
13.6800 9.0894 0.1472
13.7000 9.1028 0.1591
13.7200 9.1161 0.1647
13.7400 9.1294 0.1403
13.7600 9.1427 0.1606
13.7800 9.1561 0.1629
13.8000 9.1694 0.1399
13.8200 9.1827 0.1604
13.8400 9.1960 0.1555
13.8600 9.2093 0.1387
13.8800 9.2227 0.1625
13.9000 9.2360 0.1467
13.9200 9.2493 0.1442
13.9400 9.2626 0.1569
13.9600 9.2760 0.1433
13.9800 9.2893 0.1438
14.0000 9.3027 0.1584
14.0200 9.3160 0.1391
14.0400 9.3294 0.1421
14.0600 9.3427 0.1513
14.0800 9.3561 0.1345
14.1000 9.3694 0.1457
14.1200 9.3827 0.1517
14.1400 9.3961 0.1274
14.1600 9.4094 0.1438
14.1800 9.4227 0.1458
14.2000 9.4360 0.1303
14.2200 9.4494 0.1450
14.2400 9.4627 0.1376
14.2600 9.4760 0.1236
14.2800 9.4893 0.1431
14.3000 9.5026 0.1309
14.3200 9.5160 0.1267
14.3400 9.5293 0.1377
14.3600 9.5426 0.1269
14.3800 9.5560 0.1260
14.4000 9.5694 0.1310
14.4200 9.5828 0.1229
14.4400 9.5961 0.1265
14.4600 9.6094 0.1274
14.4800 9.6228 0.1207
14.5000 9.6361 0.1296
14.5200 9.6494 0.1200
14.5400 9.6627 0.1204
14.5600 9.6760 0.1260
14.5800 9.6893 0.1202
14.6000 9.7026 0.1190
14.6200 9.7160 0.1240
14.6400 9.7293 0.1106
14.6600 9.7427 0.1216
14.6800 9.7560 0.1193
14.7000 9.7694 0.1102
14.7200 9.7827 0.1174
14.7400 9.7961 0.1137
14.7600 9.8094 0.1083
14.7800 9.8228 0.1170
14.8000 9.8361 0.1086
14.8200 9.8494 0.1145
14.8400 9.8627 0.1168
14.8600 9.8761 0.1050
14.8800 9.8894 0.1106
14.9000 9.9027 0.1132
14.9200 9.9160 0.1031
14.9400 9.9293 0.1172
14.9600 9.9427 0.1136
14.9800 9.9560 0.0956
15.0000 9.9693 0.1126
15.0200 9.9826 0.1132
15.0400 9.9960 0.0935
15.0600 10.0094 0.1121
15.0800 10.0227 0.1103
15.1000 10.0360 0.0882
15.1200 10.0494 0.1107
15.1400 10.0628 0.1061
15.1600 10.0761 0.0887
15.1800 10.0894 0.1059
15.2000 10.1027 0.0999
15.2200 10.1161 0.0864
15.2400 10.1294 0.1071
15.2600 10.1427 0.0919
15.2800 10.1560 0.0927
15.3000 10.1694 0.1037
15.3200 10.1827 0.0906
15.3400 10.1960 0.0892
15.3600 10.2093 0.1039
15.3800 10.2226 0.0885
15.4000 10.2360 0.0852
15.4200 10.2493 0.0956
15.4400 10.2627 0.0886
15.4600 10.2760 0.0874
15.4800 10.2894 0.0912
15.5000 10.3028 0.0827
15.5200 10.3161 0.0825
15.5400 10.3294 0.0906
15.5600 10.3427 0.0875
15.5800 10.3561 0.0796
15.6000 10.3694 0.0871
15.6200 10.3827 0.0871
15.6400 10.3960 0.0807
15.6600 10.4093 0.0897
15.6800 10.4227 0.0818
15.7000 10.4360 0.0770
15.7200 10.4493 0.0833
15.7400 10.4626 0.0887
15.7600 10.4760 0.0708
15.7800 10.4894 0.0832
15.8000 10.5027 0.0863
15.8200 10.5160 0.0694
15.8400 10.5293 0.0806
15.8600 10.5427 0.0852
15.8800 10.5560 0.0671
15.9000 10.5694 0.0834
15.9200 10.5827 0.0788
15.9400 10.5961 0.0657
15.9600 10.6094 0.0794
15.9800 10.6227 0.0734
16.0000 10.6360 0.0646
16.0200 10.6494 0.0762
16.0400 10.6627 0.0685
16.0600 10.6760 0.0656
16.0800 10.6893 0.0756
16.1000 10.7026 0.0640
16.1200 10.7160 0.0622
16.1400 10.7293 0.0673
16.1600 10.7427 0.0617
16.1800 10.7560 0.0644
16.2000 10.7694 0.0663
16.2200 10.7828 0.0585
16.2400 10.7961 0.0591
16.2600 10.8094 0.0618
16.2800 10.8227 0.0614
16.3000 10.8361 0.0622
16.3200 10.8494 0.0586
16.3400 10.8627 0.0539
16.3600 10.8760 0.0617
16.3800 10.8894 0.0572
16.4000 10.9027 0.0573
16.4200 10.9160 0.0542
16.4400 10.9293 0.0520
16.4600 10.9426 0.0499
16.4800 10.9560 0.0580
16.5000 10.9693 0.0518
16.5200 10.9827 0.0535
16.5400 10.9960 0.0516
16.5600 11.0093 0.0436
16.5800 11.0227 0.0537
16.6000 11.0361 0.0487
16.6200 11.0494 0.0444
16.6400 11.0627 0.0532
16.6600 11.0761 0.0428
16.6800 11.0894 0.0445
16.7000 11.1027 0.0490
16.7200 11.1160 0.0464
16.7400 11.1293 0.0387
16.7600 11.1427 0.0485
16.7800 11.1560 0.0395
16.8000 11.1693 0.0388
16.8200 11.1826 0.0475
16.8400 11.1960 0.0318
16.8600 11.2094 0.0368
16.8800 11.2227 0.0413
16.9000 11.2360 0.0318
16.9200 11.2494 0.0330
16.9400 11.2627 0.0429
16.9600 11.2761 0.0282
16.9800 11.2894 0.0307
17.0000 11.3027 0.0402
17.0200 11.3160 0.0270
17.0400 11.3294 0.0231
17.0600 11.3427 0.0377
17.0800 11.3560 0.0239
17.1000 11.3694 0.0293
17.1200 11.3827 0.0354
17.1400 11.3961 0.0194
17.1600 11.4094 0.0209
17.1800 11.4226 0.0369
17.2000 11.4360 0.0174
17.2200 11.4493 0.0205
17.2400 11.4627 0.0315
17.2600 11.4760 0.0120
17.2800 11.4893 0.0208
17.3000 11.5027 0.0316
17.3200 11.5161 0.0101
17.3400 11.5294 0.0167
17.3600 11.5427 0.0265
17.3800 11.5560 0.0138
17.4000 11.5694 0.0168
17.4200 11.5827 0.0250
17.4400 11.5960 0.0145
17.4600 11.6094 0.0110
17.4800 11.6227 0.0241
17.5000 11.6361 0.0075
17.5200 11.6493 0.0123
17.5400 11.6626 0.0189
17.5600 11.6760 0.0131
17.5800 11.6893 0.0060
17.6000 11.7027 0.0218
17.6200 11.7160 0.0081
17.6400 11.7293 0.0031
17.6600 11.7427 0.0180
17.6800 11.7561 0.0040
17.7000 11.7694 0.0029
17.7200 11.7827 0.0197
17.7400 11.7961 -0.0012
17.7600 11.8094 -0.0016
17.7800 11.8227 0.0116
17.8000 11.8360 0.0015
17.8200 11.8493 -0.0021
17.8400 11.8627 0.0112
17.8600 11.8760 -0.0036
17.8800 11.8893 -0.0066
17.9000 11.9027 0.0091
17.9200 11.9160 -0.0088
17.9400 11.9294 -0.0053
17.9600 11.9427 -0.0005
17.9800 11.9560 -0.0085
18.0000 11.9694 -0.0080
18.0200 11.9827 0.0007
18.0400 11.9961 -0.0142
18.0600 12.0094 -0.0086
18.0800 12.0227 -0.0057
18.1000 12.0361 -0.0105
18.1200 12.0494 -0.0085
18.1400 12.0628 -0.0088
18.1600 12.0761 -0.0151
18.1800 12.0894 -0.0142
18.2000 12.1027 -0.0126
18.2200 12.1161 -0.0088
18.2400 12.1294 -0.0184
18.2600 12.1426 -0.0137
18.2800 12.1560 -0.0124
18.3000 12.1693 -0.0201
18.3200 12.1827 -0.0143
18.3400 12.1960 -0.0137
18.3600 12.2094 -0.0250
18.3800 12.2227 -0.0184
18.4000 12.2361 -0.0160
18.4200 12.2494 -0.0274
18.4400 12.2627 -0.0181
18.4600 12.2761 -0.0188
18.4800 12.2894 -0.0307
18.5000 12.3027 -0.0169
18.5200 12.3160 -0.0220
18.5400 12.3293 -0.0326
18.5600 12.3427 -0.0163
18.5800 12.3560 -0.0264
18.6000 12.3694 -0.0342
18.6200 12.3827 -0.0166
18.6400 12.3960 -0.0274
18.6600 12.4093 -0.0401
18.6800 12.4227 -0.0194
18.7000 12.4360 -0.0351
18.7200 12.4493 -0.0363
18.7400 12.4627 -0.0224
18.7600 12.4761 -0.0354
18.7800 12.4894 -0.0422
18.8000 12.5027 -0.0241
18.8200 12.5161 -0.0416
18.8400 12.5294 -0.0392
18.8600 12.5428 -0.0282
18.8800 12.5560 -0.0417
18.9000 12.5693 -0.0432
18.9200 12.5827 -0.0285
18.9400 12.5960 -0.0468
18.9600 12.6093 -0.0411
18.9800 12.6226 -0.0373
19.0000 12.6360 -0.0498
19.0200 12.6493 -0.0449
19.0400 12.6627 -0.0402
19.0600 12.6760 -0.0470
19.0800 12.6893 -0.0480
19.1000 12.7027 -0.0494
19.1200 12.7160 -0.0494
19.1400 12.7294 -0.0507
19.1600 12.7427 -0.0509
19.1800 12.7560 -0.0489
19.2000 12.7694 -0.0559
19.2200 12.7827 -0.0516
19.2400 12.7960 -0.0472
19.2600 12.8094 -0.0521
19.2800 12.8227 -0.0558
19.3000 12.8361 -0.0497
19.3200 12.8494 -0.0583
19.3400 12.8627 -0.0559
19.3600 12.8760 -0.0540
19.3800 12.8893 -0.0563
19.4000 12.9026 -0.0643
19.4200 12.9160 -0.0556
19.4400 12.9293 -0.0597
19.4600 12.9427 -0.0621
19.4800 12.9561 -0.0581
19.5000 12.9694 -0.0676
19.5200 12.9828 -0.0708
19.5400 12.9961 -0.0563
19.5600 13.0094 -0.0687
19.5800 13.0228 -0.0699
19.6000 13.0361 -0.0600
19.6200 13.0493 -0.0698
19.6400 13.0627 -0.0640
19.6600 13.0760 -0.0603
19.6800 13.0893 -0.0760
19.7000 13.1026 -0.0728
19.7200 13.1159 -0.0630
19.7400 13.1293 -0.0789
19.7600 13.1427 -0.0707
19.7800 13.1560 -0.0686
19.8000 13.1693 -0.0800
19.8200 13.1827 -0.0735
19.8400 13.1961 -0.0747
19.8600 13.2094 -0.0789
19.8800 13.2227 -0.0663
19.9000 13.2361 -0.0791
19.9200 13.2494 -0.0821
19.9400 13.2628 -0.0726
19.9600 13.2760 -0.0776
19.9800 13.2894 -0.0765
20.0000 13.3027 -0.0700
20.0200 13.3160 -0.0863
20.0400 13.3294 -0.0787
20.0600 13.3427 -0.0773
20.0800 13.3560 -0.0856
20.1000 13.3693 -0.0826
20.1200 13.3827 -0.0793
20.1400 13.3960 -0.0895
20.1600 13.4094 -0.0814
20.1800 13.4227 -0.0812
20.2000 13.4361 -0.0977
20.2200 13.4494 -0.0814
20.2400 13.4627 -0.0848
20.2600 13.4760 -0.0911
20.2800 13.4894 -0.0847
20.3000 13.5028 -0.0856
20.3200 13.5161 -0.0933
20.3400 13.5294 -0.0868
20.3600 13.5427 -0.0901
20.3800 13.5560 -0.0953
20.4000 13.5693 -0.0922
20.4200 13.5826 -0.0958
20.4400 13.5959 -0.0973
20.4600 13.6093 -0.0911
20.4800 13.6227 -0.1030
20.5000 13.6360 -0.0985
20.5200 13.6493 -0.0937
20.5400 13.6627 -0.1023
20.5600 13.6761 -0.1021
20.5800 13.6894 -0.0965
20.6000 13.7028 -0.1079
20.6200 13.7161 -0.0992
20.6400 13.7294 -0.0997
20.6600 13.7427 -0.1098
20.6800 13.7560 -0.1031
20.7000 13.7693 -0.1028
20.7200 13.7827 -0.1168
20.7400 13.7960 -0.1033
20.7600 13.8093 -0.1054
20.7800 13.8227 -0.1184
20.8000 13.8360 -0.1059
20.8200 13.8493 -0.1106
20.8400 13.8627 -0.1221
20.8600 13.8760 -0.1057
20.8800 13.8893 -0.1049
20.9000 13.9027 -0.1246
20.9200 13.9161 -0.1091
20.9400 13.9294 -0.1093
20.9600 13.9428 -0.1272
20.9800 13.9561 -0.1129
21.0000 13.9694 -0.1057
21.0200 13.9828 -0.1331
21.0400 13.9961 -0.1170
21.0600 14.0094 -0.1052
21.0800 14.0227 -0.1286
21.1000 14.0360 -0.1191
21.1200 14.0494 -0.1143
21.1400 14.0627 -0.1308
21.1600 14.0760 -0.1172
21.1800 14.0893 -0.1168
21.2000 14.1026 -0.1308
21.2200 14.1160 -0.1215
21.2400 14.1293 -0.1149
21.2600 14.1427 -0.1401
21.2800 14.1561 -0.1205
21.3000 14.1694 -0.1227
21.3200 14.1827 -0.1461
21.3400 14.1961 -0.1195
21.3600 14.2094 -0.1236
21.3800 14.2228 -0.1452
21.4000 14.2361 -0.1251
21.4200 14.2494 -0.1272
21.4400 14.2627 -0.1455
21.4600 14.2760 -0.1280
21.4800 14.2894 -0.1303
21.5000 14.3026 -0.1424
21.5200 14.3159 -0.1346
21.5400 14.3293 -0.1277
21.5600 14.3426 -0.1506
21.5800 14.3560 -0.1366
21.6000 14.3693 -0.1359
21.6200 14.3827 -0.1472
21.6400 14.3961 -0.1415
21.6600 14.4094 -0.1378
21.6800 14.4228 -0.1552
21.7000 14.4361 -0.1435
21.7200 14.4494 -0.1381
21.7400 14.4628 -0.1572
21.7600 14.4761 -0.1504
21.7800 14.4893 -0.1383
21.8000 14.5026 -0.1580
21.8200 14.5160 -0.1492
21.8400 14.5293 -0.1419
21.8600 14.5426 -0.1627
21.8800 14.5560 -0.1508
21.9000 14.5693 -0.1404
21.9200 14.5827 -0.1670
21.9400 14.5960 -0.1527
21.9600 14.6094 -0.1437
21.9800 14.6227 -0.1665
22.0000 14.6361 -0.1547
22.0200 14.6494 -0.1503
22.0400 14.6627 -0.1630
22.0600 14.6760 -0.1554
22.0800 14.6894 -0.1542
22.1000 14.7027 -0.1654
22.1200 14.7161 -0.1569
22.1400 14.7294 -0.1578
22.1600 14.7427 -0.1640
22.1800 14.7560 -0.1623
22.2000 14.7694 -0.1612
22.2200 14.7827 -0.1674
22.2400 14.7960 -0.1585
22.2600 14.8093 -0.1632
22.2800 14.8227 -0.1658
22.3000 14.8360 -0.1688
22.3200 14.8494 -0.1666
22.3400 14.8627 -0.1674
22.3600 14.8761 -0.1677
22.3800 14.8894 -0.1710
22.4000 14.9027 -0.1725
22.4200 14.9161 -0.1715
22.4400 14.9294 -0.1663
22.4600 14.9428 -0.1733
22.4800 14.9561 -0.1724
22.5000 14.9694 -0.1646
22.5200 14.9827 -0.1747
22.5400 14.9960 -0.1840
22.5600 15.0094 -0.1673
22.5800 15.0226 -0.1764
22.6000 15.0359 -0.1845
22.6200 15.0493 -0.1715
22.6400 15.0626 -0.1796
22.6600 15.0760 -0.1822
22.6800 15.0893 -0.1788
22.7000 15.1027 -0.1865
22.7200 15.1161 -0.1861
22.7400 15.1294 -0.1776
22.7600 15.1428 -0.1913
22.7800 15.1561 -0.1866
22.8000 15.1694 -0.1794
22.8200 15.1827 -0.1968
22.8400 15.1960 -0.1981
22.8600 15.2093 -0.1805
22.8800 15.2226 -0.1957
22.9000 15.2360 -0.1998
22.9200 15.2494 -0.1831
22.9400 15.2627 -0.2006
22.9600 15.2760 -0.2041
22.9800 15.2893 -0.1812
23.0000 15.3027 -0.2096
23.0200 15.3160 -0.2013
23.0400 15.3293 -0.1847
23.0600 15.3427 -0.2156
23.0800 15.3560 -0.2026
23.1000 15.3694 -0.1876
23.1200 15.3827 -0.2199
23.1400 15.3960 -0.2011
23.1600 15.4094 -0.1929
23.1800 15.4228 -0.2239
23.2000 15.4361 -0.1998
23.2200 15.4494 -0.1963
23.2400 15.4627 -0.2209
23.2600 15.4760 -0.1999
23.2800 15.4893 -0.2015
23.3000 15.5026 -0.2240
23.3200 15.5159 -0.1992
23.3400 15.5293 -0.2064
23.3600 15.5426 -0.2255
23.3800 15.5560 -0.2047
23.4000 15.5693 -0.2089
23.4200 15.5827 -0.2228
23.4400 15.5961 -0.2045
23.4600 15.6094 -0.2175
23.4800 15.6228 -0.2228
23.5000 15.6361 -0.2055
23.5200 15.6494 -0.2169
23.5400 15.6628 -0.2261
23.5600 15.6761 -0.2087
23.5800 15.6894 -0.2193
23.6000 15.7027 -0.2219
23.6200 15.7160 -0.2133
23.6400 15.7294 -0.2245
23.6600 15.7427 -0.2265
23.6800 15.7560 -0.2170
23.7000 15.7693 -0.2207
23.7200 15.7826 -0.2273
23.7400 15.7960 -0.2231
23.7600 15.8093 -0.2232
23.7800 15.8226 -0.2312
23.8000 15.8360 -0.2268
23.8200 15.8494 -0.2278
23.8400 15.8628 -0.2331
23.8600 15.8761 -0.2283
23.8800 15.8894 -0.2272
23.9000 15.9027 -0.2377
23.9200 15.9160 -0.2290
23.9400 15.9293 -0.2280
23.9600 15.9426 -0.2422
23.9800 15.9560 -0.2300
24.0000 15.9693 -0.2342
24.0200 15.9827 -0.2397
24.0400 15.9960 -0.2355
24.0600 16.0093 -0.2325
24.0800 16.0227 -0.2468
24.1000 16.0360 -0.2332
24.1200 16.0494 -0.2392
24.1400 16.0627 -0.2505
24.1600 16.0760 -0.2386
24.1800 16.0894 -0.2414
24.2000 16.1027 -0.2522
24.2200 16.1160 -0.2389
24.2400 16.1293 -0.2422
24.2600 16.1427 -0.2511
24.2800 16.1561 -0.2455
24.3000 16.1694 -0.2411
24.3200 16.1827 -0.2530
24.3400 16.1960 -0.2503
24.3600 16.2094 -0.2440
24.3800 16.2227 -0.2545
24.4000 16.2360 -0.2501
24.4200 16.2493 -0.2527
24.4400 16.2627 -0.2554
24.4600 16.2760 -0.2560
24.4800 16.2893 -0.2536
24.5000 16.3026 -0.2594
24.5200 16.3160 -0.2573
24.5400 16.3294 -0.2559
24.5600 16.3427 -0.2633
24.5800 16.3561 -0.2614
24.6000 16.3694 -0.2552
24.6200 16.3827 -0.2667
24.6400 16.3961 -0.2624
24.6600 16.4094 -0.2558
24.6800 16.4227 -0.2671
24.7000 16.4361 -0.2674
24.7200 16.4494 -0.2586
24.7400 16.4627 -0.2689
24.7600 16.4760 -0.2691
24.7800 16.4893 -0.2620
24.8000 16.5026 -0.2728
24.8200 16.5160 -0.2696
24.8400 16.5293 -0.2628
24.8600 16.5427 -0.2782
24.8800 16.5560 -0.2697
24.9000 16.5694 -0.2698
24.9200 16.5828 -0.2829
24.9400 16.5961 -0.2677
24.9600 16.6094 -0.2704
24.9800 16.6228 -0.2870
25.0000 16.6361 -0.2690
25.0200 16.6494 -0.2761
25.0400 16.6627 -0.2854
25.0600 16.6760 -0.2709
25.0800 16.6893 -0.2790
25.1000 16.7027 -0.2921
25.1200 16.7160 -0.2713
25.1400 16.7293 -0.2799
25.1600 16.7427 -0.2982
25.1800 16.7560 -0.2749
25.2000 16.7693 -0.2880
25.2200 16.7827 -0.2968
25.2400 16.7960 -0.2762
25.2600 16.8094 -0.2906
25.2800 16.8227 -0.2992
25.3000 16.8361 -0.2745
25.3200 16.8494 -0.2959
25.3400 16.8628 -0.2942
25.3600 16.8761 -0.2796
25.3800 16.8894 -0.2989
25.4000 16.9027 -0.2921
25.4200 16.9160 -0.2810
25.4400 16.9294 -0.3028
25.4600 16.9427 -0.2948
25.4800 16.9560 -0.2862
25.5000 16.9693 -0.3031
25.5200 16.9826 -0.2939
25.5400 16.9960 -0.2921
25.5600 17.0093 -0.3045
25.5800 17.0226 -0.2973
25.6000 17.0360 -0.2977
25.6200 17.0494 -0.3058
25.6400 17.0628 -0.3054
25.6600 17.0761 -0.2986
25.6800 17.0894 -0.3090
25.7000 17.1027 -0.3075
25.7200 17.1161 -0.3027
25.7400 17.1294 -0.3147
25.7600 17.1427 -0.3101
25.7800 17.1560 -0.3067
25.8000 17.1694 -0.3122
25.8200 17.1827 -0.3165
25.8400 17.1960 -0.3063
25.8600 17.2093 -0.3165
25.8800 17.2227 -0.3191
25.9000 17.2360 -0.3115
25.9200 17.2493 -0.3231
25.9400 17.2627 -0.3228
25.9600 17.2760 -0.3133
25.9800 17.2894 -0.3257
26.0000 17.3028 -0.3269
26.0200 17.3161 -0.3188
26.0400 17.3294 -0.3238
26.0600 17.3428 -0.3296
26.0800 17.3561 -0.3198
26.1000 17.3694 -0.3287
26.1200 17.3827 -0.3365
26.1400 17.3960 -0.3198
26.1600 17.4093 -0.3320
26.1800 17.4227 -0.3364
26.2000 17.4360 -0.3244
26.2200 17.4493 -0.3358
26.2400 17.4627 -0.3336
26.2600 17.4760 -0.3278
26.2800 17.4894 -0.3411
26.3000 17.5027 -0.3396
26.3200 17.5160 -0.3320
26.3400 17.5294 -0.3414
26.3600 17.5427 -0.3442
26.3800 17.5560 -0.3350
26.4000 17.5693 -0.3442
26.4200 17.5827 -0.3429
26.4400 17.5961 -0.3418
26.4600 17.6094 -0.3448
26.4800 17.6227 -0.3487
26.5000 17.6360 -0.3463
26.5200 17.6494 -0.3514
26.5400 17.6627 -0.3533
26.5600 17.6760 -0.3449
26.5800 17.6893 -0.3502
26.6000 17.7026 -0.3604
26.6200 17.7160 -0.3441
26.6400 17.7293 -0.3594
26.6600 17.7426 -0.3606
26.6800 17.7560 -0.3464
26.7000 17.7694 -0.3604
26.7200 17.7828 -0.3660
26.7400 17.7961 -0.3455
26.7600 17.8094 -0.3645
26.7800 17.8227 -0.3644
26.8000 17.8361 -0.3458
26.8200 17.8494 -0.3756
26.8400 17.8627 -0.3620
26.8600 17.8760 -0.3484
26.8800 17.8893 -0.3774
26.9000 17.9027 -0.3641
26.9200 17.9160 -0.3541
26.9400 17.9293 -0.3755
26.9600 17.9426 -0.3695
26.9800 17.9560 -0.3612
27.0000 17.9693 -0.3786
27.0200 17.9826 -0.3718
27.0400 17.9960 -0.3639
27.0600 18.0094 -0.3875
27.0800 18.0228 -0.3741
27.1000 18.0361 -0.3667
27.1200 18.0494 -0.3884
27.1400 18.0627 -0.3786
27.1600 18.0761 -0.3687
27.1800 18.0894 -0.3929
27.2000 18.1027 -0.3828
27.2200 18.1160 -0.3704
27.2400 18.1294 -0.3870
27.2600 18.1427 -0.3969
27.2800 18.1560 -0.3783
27.3000 18.1693 -0.3903
27.3200 18.1826 -0.3974
27.3400 18.1960 -0.3824
27.3600 18.2094 -0.3952
27.3800 18.2227 -0.4048
27.4000 18.2360 -0.3817
27.4200 18.2494 -0.3973
27.4400 18.2627 -0.4021
27.4600 18.2761 -0.3889
27.4800 18.2894 -0.4011
27.5000 18.3027 -0.4039
27.5200 18.3161 -0.3931
27.5400 18.3294 -0.4061
27.5600 18.3427 -0.4050
27.5800 18.3560 -0.3948
27.6000 18.3694 -0.4123
27.6200 18.3827 -0.4073
27.6400 18.3960 -0.3977
27.6600 18.4093 -0.4118
27.6800 18.4226 -0.4099
27.7000 18.4360 -0.3995
27.7200 18.4494 -0.4170
27.7400 18.4627 -0.4100
27.7600 18.4760 -0.4063
27.7800 18.4894 -0.4166
27.8000 18.5028 -0.4162
27.8200 18.5161 -0.4070
27.8400 18.5294 -0.4192
27.8600 18.5427 -0.4127
27.8800 18.5561 -0.4160
27.9000 18.5694 -0.4215
27.9200 18.5827 -0.4162
27.9400 18.5960 -0.4151
27.9600 18.6093 -0.4245
27.9800 18.6227 -0.4237
28.0000 18.6360 -0.4213
28.0200 18.6493 -0.4280
28.0400 18.6627 -0.4251
28.0600 18.6760 -0.4249
28.0800 18.6893 -0.4336
28.1000 18.7026 -0.4255
28.1200 18.7160 -0.4290
28.1400 18.7294 -0.4375
28.1600 18.7428 -0.4274
28.1800 18.7561 -0.4340
28.2000 18.7694 -0.4425
28.2200 18.7827 -0.4302
28.2400 18.7961 -0.4357
28.2600 18.8094 -0.4455
28.2800 18.8227 -0.4372
28.3000 18.8360 -0.4436
28.3200 18.8494 -0.4451
28.3400 18.8627 -0.4497
28.3600 18.8760 -0.4473
28.3800 18.8893 -0.4460
28.4000 18.9026 -0.4510
28.4200 18.9160 -0.4522
28.4400 18.9293 -0.4517
28.4600 18.9427 -0.4601
28.4800 18.9560 -0.4517
28.5000 18.9694 -0.4588
28.5200 18.9827 -0.4639
28.5400 18.9961 -0.4594
28.5600 19.0094 -0.4561
28.5800 19.0227 -0.4679
28.6000 19.0361 -0.4618
28.6200 19.0494 -0.4615
28.6400 19.0627 -0.4750
28.6600 19.0760 -0.4655
28.6800 19.0894 -0.4643
28.7000 19.1027 -0.4787
28.7200 19.1160 -0.4732
28.7400 19.1293 -0.4711
28.7600 19.1426 -0.4813
28.7800 19.1559 -0.4754
28.8000 19.1693 -0.4767
28.8200 19.1826 -0.4880
28.8400 19.1960 -0.4854
28.8600 19.2094 -0.4798
28.8800 19.2228 -0.4866
28.9000 19.2361 -0.4884
28.9200 19.2494 -0.4857
28.9400 19.2628 -0.4862
28.9600 19.2761 -0.4967
28.9800 19.2894 -0.4900
29.0000 19.3027 -0.4882
29.0200 19.3160 -0.4966
29.0400 19.3293 -0.5002
29.0600 19.3427 -0.4922
29.0800 19.3560 -0.4982
29.1000 19.3693 -0.4958
29.1200 19.3827 -0.5057
29.1400 19.3960 -0.5064
29.1600 19.4094 -0.4971
29.1800 19.4227 -0.5080
29.2000 19.4360 -0.5106
29.2200 19.4494 -0.4992
29.2400 19.4628 -0.5148
29.2600 19.4761 -0.5133
29.2800 19.4894 -0.5020
29.3000 19.5027 -0.5154
29.3200 19.5160 -0.5170
29.3400 19.5294 -0.5120
29.3600 19.5427 -0.5142
29.3800 19.5560 -0.5130
29.4000 19.5693 -0.5186
29.4200 19.5827 -0.5218
29.4400 19.5960 -0.5187
29.4600 19.6093 -0.5210
29.4800 19.6226 -0.5190
29.5000 19.6360 -0.5285
29.5200 19.6493 -0.5312
29.5400 19.6627 -0.5269
29.5600 19.6760 -0.5283
29.5800 19.6894 -0.5346
29.6000 19.7027 -0.5317
29.6200 19.7161 -0.5361
29.6400 19.7294 -0.5372
29.6600 19.7427 -0.5343
29.6800 19.7560 -0.5379
29.7000 19.7694 -0.5419
29.7200 19.7827 -0.5379
29.7400 19.7960 -0.5453
29.7600 19.8094 -0.5443
29.7800 19.8227 -0.5433
29.8000 19.8360 -0.5492
29.8200 19.8493 -0.5494
29.8400 19.8626 -0.5518
29.8600 19.8760 -0.5532
29.8800 19.8893 -0.5551
29.9000 19.9027 -0.5544
29.9200 19.9160 -0.5582
29.9400 19.9294 -0.5581
29.9600 19.9427 -0.5598
29.9800 19.9561 -0.5643
30.0000 19.9694 -0.5589
30.0200 19.9827 -0.5623
30.0400 19.9961 -0.5712
30.0600 20.0094 -0.5688
30.0800 20.0227 -0.5737
30.1000 20.0360 -0.5676
30.1200 20.0493 -0.5731
30.1400 20.0627 -0.5777
30.1600 20.0760 -0.5754
30.1800 20.0893 -0.5721
30.2000 20.1027 -0.5830
30.2200 20.1160 -0.5770
30.2400 20.1293 -0.5812
30.2600 20.1427 -0.5852
30.2800 20.1560 -0.5793
30.3000 20.1693 -0.5856
30.3200 20.1827 -0.5875
30.3400 20.1961 -0.5829
30.3600 20.2094 -0.5993
30.3800 20.2227 -0.5895
30.4000 20.2361 -0.5843
30.4200 20.2494 -0.6047
30.4400 20.2627 -0.5964
30.4600 20.2760 -0.5862
30.4800 20.2893 -0.6100
30.5000 20.3027 -0.5987
30.5200 20.3160 -0.5957
30.5400 20.3293 -0.6195
30.5600 20.3426 -0.6065
30.5800 20.3560 -0.6064
30.6000 20.3693 -0.6109
30.6200 20.3827 -0.5007
30.6400 20.3960 -0.3709
30.6600 20.4094 -0.2660
30.6800 20.4228 -0.1457
30.7000 20.4361 -0.0801
30.7200 20.4494 -0.0434
30.7400 20.4627 0.0115
30.7600 20.4761 0.0350
30.7800 20.4894 0.0676
30.8000 20.5027 0.1392
30.8200 20.5160 0.1892
30.8400 20.5293 0.2408
30.8600 20.5427 0.3013
30.8800 20.5560 0.3477
30.9000 20.5693 0.3954
30.9200 20.5826 0.4580
30.9400 20.5960 0.5070
30.9600 20.6093 0.5580
30.9800 20.6226 0.5984
31.0000 20.6360 0.6357
31.0200 20.6493 0.6742
31.0400 20.6627 0.7328
31.0600 20.6761 0.7838
31.0800 20.6894 0.8213
31.1000 20.7027 0.8693
31.1200 20.7161 0.9282
31.1400 20.7294 0.9576
31.1600 20.7427 1.0070
31.1800 20.7560 1.0670
31.2000 20.7693 1.0950
31.2200 20.7826 1.1507
31.2400 20.7960 1.2005
31.2600 20.8093 1.2037
31.2800 20.8226 1.2186
31.3000 20.8360 1.2249
31.3200 20.8494 1.1974
31.3400 20.8627 1.2211
31.3600 20.8760 1.2285
31.3800 20.8894 1.2006
31.4000 20.9028 1.2245
31.4200 20.9161 1.2276
31.4400 20.9294 1.2009
31.4600 20.9427 1.2269
31.4800 20.9560 1.2272
31.5000 20.9694 1.2052
31.5200 20.9827 1.2318
31.5400 20.9960 1.2228
31.5600 21.0094 1.2061
31.5800 21.0227 1.2398
31.6000 21.0361 1.2174
31.6200 21.0494 1.2101
31.6400 21.0627 1.2403
31.6600 21.0760 1.2158
31.6800 21.0894 1.2139
31.7000 21.1027 1.2382
31.7200 21.1160 1.2157
31.7400 21.1293 1.2126
31.7600 21.1427 1.2324
31.7800 21.1561 1.2109
31.8000 21.1694 1.2156
31.8200 21.1827 1.2322
31.8400 21.1960 1.2139
31.8600 21.2094 1.2159
31.8800 21.2227 1.2273
31.9000 21.2360 1.2113
31.9200 21.2494 1.2167
31.9400 21.2627 1.2211
31.9600 21.2760 1.2131
31.9800 21.2893 1.2092
32.0000 21.3026 1.2220
32.0200 21.3160 1.2079
32.0400 21.3293 1.2117
32.0600 21.3427 1.2126
32.0800 21.3560 1.2013
32.1000 21.3694 1.2040
32.1200 21.3827 1.2124
32.1400 21.3961 1.1982
32.1600 21.4094 1.1972
32.1800 21.4227 1.2065
32.2000 21.4361 1.1965
32.2200 21.4494 1.1921
32.2400 21.4627 1.2078
32.2600 21.4760 1.1974
32.2800 21.4893 1.1902
32.3000 21.5027 1.2073
32.3200 21.5160 1.1921
32.3400 21.5293 1.1909
32.3600 21.5426 1.2082
32.3800 21.5560 1.1873
32.4000 21.5693 1.1868
32.4200 21.5827 1.2047
32.4400 21.5960 1.1814
32.4600 21.6093 1.1886
32.4800 21.6227 1.2079
32.5000 21.6360 1.1813
32.5200 21.6494 1.1819
32.5400 21.6627 1.2067
32.5600 21.6761 1.1743
32.5800 21.6894 1.1871
32.6000 21.7028 1.1991
32.6200 21.7161 1.1740
32.6400 21.7294 1.1866
32.6600 21.7427 1.1943
32.6800 21.7560 1.1695
32.7000 21.7693 1.1904
32.7200 21.7826 1.1869
32.7400 21.7959 1.1647
32.7600 21.8093 1.1903
32.7800 21.8226 1.1864
32.8000 21.8360 1.1606
32.8200 21.8493 1.1833
32.8400 21.8627 1.1825
32.8600 21.8761 1.1665
32.8800 21.8894 1.1708
32.9000 21.9027 1.1799
32.9200 21.9161 1.1640
32.9400 21.9294 1.1696
32.9600 21.9428 1.1688
32.9800 21.9561 1.1655
33.0000 21.9694 1.1713
33.0200 21.9827 1.1626
33.0400 21.9960 1.1631
33.0600 22.0094 1.1672
33.0800 22.0227 1.1665
33.1000 22.0360 1.1646
33.1200 22.0493 1.1594
33.1400 22.0627 1.1643
33.1600 22.0760 1.1600
33.1800 22.0893 1.1525
33.2000 22.1027 1.1627
33.2200 22.1161 1.1556
33.2400 22.1294 1.1506
33.2600 22.1427 1.1579
33.2800 22.1560 1.1567
33.3000 22.1694 1.1446
33.3200 22.1828 1.1581
33.3400 22.1960 1.1484
33.3600 22.2093 1.1450
33.3800 22.2226 1.1561
33.4000 22.2360 1.1459
33.4200 22.2493 1.1430
33.4400 22.2626 1.1548
33.4600 22.2760 1.1439
33.4800 22.2893 1.1446
33.5000 22.3027 1.1523
33.5200 22.3160 1.1403
33.5400 22.3293 1.1404
33.5600 22.3427 1.1500
33.5800 22.3560 1.1360
33.6000 22.3694 1.1383
33.6200 22.3827 1.1471
33.6400 22.3960 1.1344
33.6600 22.4094 1.1427
33.6800 22.4227 1.1369
33.7000 22.4361 1.1393
33.7200 22.4494 1.1423
33.7400 22.4627 1.1330
33.7600 22.4761 1.1329
33.7800 22.4894 1.1390
33.8000 22.5027 1.1312
33.8200 22.5160 1.1315
33.8400 22.5293 1.1360
33.8600 22.5426 1.1253
33.8800 22.5560 1.1250
33.9000 22.5693 1.1286
33.9200 22.5827 1.1208
33.9400 22.5961 1.1286
33.9600 22.6094 1.1233
33.9800 22.6228 1.1200
34.0000 22.6361 1.1247
34.0200 22.6495 1.1258
34.0400 22.6628 1.1189
34.0600 22.6761 1.1239
34.0800 22.6894 1.1257
34.1000 22.7027 1.1172
34.1200 22.7160 1.1196
34.1400 22.7293 1.1209
34.1600 22.7426 1.1151
34.1800 22.7559 1.1138
34.2000 22.7693 1.1157
34.2200 22.7827 1.1141
34.2400 22.7960 1.1099
34.2600 22.8093 1.1162
34.2800 22.8227 1.1121
34.3000 22.8361 1.1113
34.3200 22.8494 1.1124
34.3400 22.8628 1.1050
34.3600 22.8761 1.1124
34.3800 22.8894 1.1050
34.4000 22.9028 1.1058
34.4200 22.9161 1.1096
34.4400 22.9294 1.1022
34.4600 22.9427 1.1048
34.4800 22.9560 1.1053
34.5000 22.9694 1.1006
34.5200 22.9826 1.1134
34.5400 22.9960 1.1001
34.5600 23.0093 1.1004
34.5800 23.0227 1.1118
34.6000 23.0360 1.0965
34.6200 23.0493 1.0937
34.6400 23.0627 1.1123
34.6600 23.0761 1.0914
34.6800 23.0894 1.0944
34.7000 23.1027 1.1067
34.7200 23.1160 1.0839
34.7400 23.1294 1.0904
34.7600 23.1427 1.1037
34.7800 23.1561 1.0817
34.8000 23.1694 1.0908
34.8200 23.1827 1.0953
34.8400 23.1961 1.0779
34.8600 23.2094 1.0921
34.8800 23.2227 1.0880
34.9000 23.2360 1.0779
34.9200 23.2493 1.0920
34.9400 23.2627 1.0829
34.9600 23.2760 1.0725
34.9800 23.2893 1.0949
35.0000 23.3027 1.0820
35.0200 23.3161 1.0752
35.0400 23.3294 1.0828
35.0600 23.3428 1.0769
35.0800 23.3561 1.0768
35.1000 23.3694 1.0825
35.1200 23.3827 1.0754
35.1400 23.3960 1.0744
35.1600 23.4093 1.0756
35.1800 23.4227 1.0740
35.2000 23.4360 1.0697
35.2200 23.4494 1.0755
35.2400 23.4627 1.0743
35.2600 23.4760 1.0704
35.2800 23.4893 1.0723
35.3000 23.5027 1.0737
35.3200 23.5160 1.0650
35.3400 23.5293 1.0683
35.3600 23.5427 1.0733
35.3800 23.5561 1.0589
35.4000 23.5694 1.0665
35.4200 23.5828 1.0689
35.4400 23.5961 1.0575
35.4600 23.6094 1.0699
35.4800 23.6228 1.0625
35.5000 23.6361 1.0524
35.5200 23.6494 1.0701
35.5400 23.6627 1.0586
35.5600 23.6760 1.0494
35.5800 23.6893 1.0657
35.6000 23.7027 1.0559
35.6200 23.7160 1.0508
35.6400 23.7293 1.0627
35.6600 23.7427 1.0487
35.6800 23.7560 1.0546
35.7000 23.7693 1.0510
35.7200 23.7827 1.0482
35.7400 23.7961 1.0517
35.7600 23.8094 1.0477
35.7800 23.8227 1.0396
35.8000 23.8361 1.0520
35.8200 23.8494 1.0498
35.8400 23.8627 1.0392
35.8600 23.8761 1.0473
35.8800 23.8894 1.0425
35.9000 23.9027 1.0345
35.9200 23.9160 1.0455
35.9400 23.9294 1.0401
35.9600 23.9427 1.0290
35.9800 23.9559 1.0398
36.0000 23.9693 1.0388
36.0200 23.9826 1.0288
36.0400 23.9960 1.0373
36.0600 24.0093 1.0312
36.0800 24.0227 1.0314
36.1000 24.0361 1.0333
36.1200 24.0494 1.0247
36.1400 24.0628 1.0279
36.1600 24.0761 1.0268
36.1800 24.0894 1.0268
36.2000 24.1028 1.0228
36.2200 24.1161 1.0240
36.2400 24.1294 1.0257
36.2600 24.1427 1.0256
36.2800 24.1560 1.0201
36.3000 24.1693 1.0254
36.3200 24.1826 1.0210
36.3400 24.1960 1.0240
36.3600 24.2093 1.0217
36.3800 24.2227 1.0185
36.4000 24.2360 1.0140
36.4200 24.2494 1.0257
36.4400 24.2627 1.0172
36.4600 24.2761 1.0152
36.4800 24.2894 1.0230
36.5000 24.3027 1.0117
36.5200 24.3160 1.0122
36.5400 24.3294 1.0243
36.5600 24.3427 1.0092
36.5800 24.3561 1.0138
36.6000 24.3694 1.0167
36.6200 24.3827 1.0102
36.6400 24.3960 1.0122
36.6600 24.4093 1.0149
36.6800 24.4227 1.0015
36.7000 24.4360 1.0087
36.7200 24.4493 1.0120
36.7400 24.4627 0.9982
36.7600 24.4760 1.0064
36.7800 24.4894 1.0060
36.8000 24.5027 0.9997
36.8200 24.5161 1.0031
36.8400 24.5294 1.0028
36.8600 24.5427 0.9961
36.8800 24.5560 1.0027
36.9000 24.5694 0.9974
36.9200 24.5827 0.9957
36.9400 24.5961 1.0023
36.9600 24.6094 0.9920
36.9800 24.6227 0.9892
37.0000 24.6360 1.0025
37.0200 24.6494 0.9918
37.0400 24.6627 0.9902
37.0600 24.6760 0.9966
37.0800 24.6893 0.9913
37.1000 24.7027 0.9895
37.1200 24.7160 0.9927
37.1400 24.7293 0.9880
37.1600 24.7427 0.9910
37.1800 24.7560 0.9871
37.2000 24.7694 0.9821
37.2200 24.7828 0.9873
37.2400 24.7961 0.9898
37.2600 24.8094 0.9852
37.2800 24.8227 0.9836
37.3000 24.8361 0.9887
37.3200 24.8494 0.9826
37.3400 24.8627 0.9851
37.3600 24.8760 0.9852
37.3800 24.8894 0.9773
37.4000 24.9027 0.9835
37.4200 24.9160 0.9839
37.4400 24.9293 0.9773
37.4600 24.9427 0.9853
37.4800 24.9560 0.9799
37.5000 24.9693 0.9735
37.5200 24.9827 0.9823
37.5400 24.9960 0.9807
37.5600 25.0094 0.9670
37.5800 25.0227 0.9843
37.6000 25.0360 0.9773
37.6200 25.0494 0.9711
37.6400 25.0627 0.9796
37.6600 25.0761 0.9703
37.6800 25.0894 0.9639
37.7000 25.1027 0.9802
37.7200 25.1160 0.9643
37.7400 25.1294 0.9618
37.7600 25.1427 0.9825
37.7800 25.1560 0.9585
37.8000 25.1693 0.9614
37.8200 25.1826 0.9781
37.8400 25.1960 0.9499
37.8600 25.2093 0.9604
37.8800 25.2227 0.9741
37.9000 25.2361 0.9464
37.9200 25.2494 0.9619
37.9400 25.2628 0.9636
37.9600 25.2761 0.9438
37.9800 25.2894 0.9648
38.0000 25.3028 0.9617
38.0200 25.3161 0.9355
38.0400 25.3294 0.9681
38.0600 25.3427 0.9583
38.0800 25.3560 0.9405
38.1000 25.3694 0.9652
38.1200 25.3827 0.9520
38.1400 25.3960 0.9397
38.1600 25.4093 0.9625
38.1800 25.4226 0.9465
38.2000 25.4360 0.9423
38.2200 25.4493 0.9573
38.2400 25.4626 0.9437
38.2600 25.4760 0.9406
38.2800 25.4894 0.9594
38.3000 25.5028 0.9445
38.3200 25.5161 0.9478
38.3400 25.5294 0.9530
38.3600 25.5428 0.9400
38.3800 25.5561 0.9456
38.4000 25.5694 0.9525
38.4200 25.5827 0.9417
38.4400 25.5960 0.9457
38.4600 25.6093 0.9461
38.4800 25.6226 0.9375
38.5000 25.6360 0.9466
38.5200 25.6493 0.9465
38.5400 25.6627 0.9389
38.5600 25.6760 0.9391
38.5800 25.6894 0.9381
38.6000 25.7027 0.9410
38.6200 25.7160 0.9436
38.6400 25.7294 0.9314
38.6600 25.7427 0.9381
38.6800 25.7560 0.9379
38.7000 25.7694 0.9347
38.7200 25.7827 0.9335
38.7400 25.7961 0.9366
38.7600 25.8094 0.9314
38.7800 25.8227 0.9307
38.8000 25.8360 0.9267
38.8200 25.8494 0.9319
38.8400 25.8627 0.9259
38.8600 25.8760 0.9238
38.8800 25.8893 0.9314
38.9000 25.9026 0.9237
38.9200 25.9160 0.9182
38.9400 25.9293 0.9264
38.9600 25.9426 0.9132
38.9800 25.9560 0.9238
39.0000 25.9694 0.9248
39.0200 25.9827 0.9088
39.0400 25.9960 0.9208
39.0600 26.0094 0.9208
39.0800 26.0227 0.9086
39.1000 26.0361 0.9243
39.1200 26.0494 0.9182
39.1400 26.0627 0.9020
39.1600 26.0760 0.9201
39.1800 26.0894 0.9108
39.2000 26.1027 0.9044
39.2200 26.1160 0.9201
39.2400 26.1293 0.9069
39.2600 26.1426 0.9035
39.2800 26.1560 0.9189
39.3000 26.1693 0.9012
39.3200 26.1827 0.9070
39.3400 26.1960 0.9137
39.3600 26.2094 0.8976
39.3800 26.2228 0.9031
39.4000 26.2361 0.9089
39.4200 26.2494 0.8980
39.4400 26.2628 0.9010
39.4600 26.2761 0.9008
39.4800 26.2894 0.9019
39.5000 26.3027 0.8951
39.5200 26.3160 0.9012
39.5400 26.3294 0.9015
39.5600 26.3427 0.8964
39.5800 26.3560 0.8939
39.6000 26.3693 0.8970
39.6200 26.3827 0.8941
39.6400 26.3960 0.8908
39.6600 26.4094 0.9003
39.6800 26.4227 0.8838
39.7000 26.4360 0.8903
39.7200 26.4494 0.9002
39.7400 26.4627 0.8813
39.7600 26.4761 0.8885
39.7800 26.4894 0.9034
39.8000 26.5028 0.8777
39.8200 26.5161 0.8857
39.8400 26.5294 0.8996
39.8600 26.5427 0.8787
39.8800 26.5560 0.8850
39.9000 26.5694 0.8924
39.9200 26.5827 0.8744
39.9400 26.5960 0.8881
39.9600 26.6093 0.8888
39.9800 26.6226 0.8801
40.0000 26.6360 0.8843
40.0200 26.6493 0.8829
40.0400 26.6627 0.8744
40.0600 26.6760 0.8848
40.0800 26.6894 0.8801
40.1000 26.7028 0.8715
40.1200 26.7161 0.8789
40.1400 26.7294 0.8781
40.1600 26.7427 0.8728
40.1800 26.7561 0.8734
40.2000 26.7694 0.8772
40.2200 26.7827 0.8732
40.2400 26.7960 0.8696
40.2600 26.8094 0.8752
40.2800 26.8227 0.8710
40.3000 26.8360 0.8616
40.3200 26.8493 0.8706
40.3400 26.8627 0.8668
40.3600 26.8760 0.8618
40.3800 26.8893 0.8677
40.4000 26.9026 0.8640
40.4200 26.9160 0.8612
40.4400 26.9294 0.8682
40.4600 26.9427 0.8576
40.4800 26.9561 0.8608
40.5000 26.9694 0.8615
40.5200 26.9827 0.8577
40.5400 26.9961 0.8533
40.5600 27.0094 0.8600
40.5800 27.0227 0.8564
40.6000 27.0360 0.8538
40.6200 27.0493 0.8535
40.6400 27.0627 0.8554
40.6600 27.0760 0.8515
40.6800 27.0893 0.8509
40.7000 27.1026 0.8464
40.7200 27.1160 0.8483
40.7400 27.1294 0.8468
40.7600 27.1427 0.8438
40.7800 27.1560 0.8446
40.8000 27.1694 0.8459
40.8200 27.1827 0.8411
40.8400 27.1960 0.8380
40.8600 27.2093 0.8479
40.8800 27.2227 0.8415
40.9000 27.2361 0.8346
40.9200 27.2494 0.8416
40.9400 27.2627 0.8405
40.9600 27.2760 0.8326
40.9800 27.2894 0.8425
41.0000 27.3027 0.8323
41.0200 27.3160 0.8358
41.0400 27.3293 0.8387
41.0600 27.3426 0.8363
41.0800 27.3560 0.8333
41.1000 27.3693 0.8397
41.1200 27.3826 0.8270
41.1400 27.3960 0.8359
41.1600 27.4094 0.8356
41.1800 27.4228 0.8262
41.2000 27.4361 0.8348
41.2200 27.4494 0.8292
41.2400 27.4628 0.8270
41.2600 27.4761 0.8341
41.2800 27.4894 0.8250
41.3000 27.5027 0.8309
41.3200 27.5160 0.8304
41.3400 27.5293 0.8265
41.3600 27.5427 0.8242
41.3800 27.5560 0.8305
41.4000 27.5693 0.8271
41.4200 27.5826 0.8252
41.4400 27.5960 0.8255
41.4600 27.6093 0.8186
41.4800 27.6227 0.8234
41.5000 27.6360 0.8234
41.5200 27.6494 0.8234
41.5400 27.6628 0.8212
41.5600 27.6761 0.8203
41.5800 27.6894 0.8170
41.6000 27.7027 0.8234
41.6200 27.7161 0.8244
41.6400 27.7294 0.8146
41.6600 27.7427 0.8209
41.6800 27.7560 0.8233
41.7000 27.7693 0.8134
41.7200 27.7827 0.8236
41.7400 27.7960 0.8218
41.7600 27.8093 0.8160
41.7800 27.8226 0.8276
41.8000 27.8360 0.8193
41.8200 27.8493 0.8104
41.8400 27.8627 0.8297
41.8600 27.8760 0.8192
41.8800 27.8894 0.8157
41.9000 27.9028 0.8277
41.9200 27.9161 0.8163
41.9400 27.9294 0.8164
41.9600 27.9427 0.8308
41.9800 27.9561 0.8143
42.0000 27.9694 0.8176
42.0200 27.9827 0.8244
42.0400 27.9960 0.8168
42.0600 28.0094 0.8159
42.0800 28.0227 0.8220
42.1000 28.0360 0.8200
42.1200 28.0493 0.8140
42.1400 28.0626 0.8197
42.1600 28.0760 0.8166
42.1800 28.0893 0.8100
42.2000 28.1027 0.8101
42.2200 28.1160 0.8204
42.2400 28.1294 0.8076
42.2600 28.1428 0.8062
42.2800 28.1561 0.8173
42.3000 28.1694 0.8015
42.3200 28.1827 0.8054
42.3400 28.1961 0.8168
42.3600 28.2094 0.7952
42.3800 28.2227 0.8018
42.4000 28.2360 0.8148
42.4200 28.2493 0.7936
42.4400 28.2627 0.7993
42.4600 28.2760 0.8073
42.4800 28.2893 0.7888
42.5000 28.3026 0.8017
42.5200 28.3160 0.8032
42.5400 28.3293 0.7828
42.5600 28.3427 0.8003
42.5800 28.3560 0.8008
42.6000 28.3694 0.7810
42.6200 28.3827 0.7929
42.6400 28.3961 0.7928
42.6600 28.4094 0.7760
42.6800 28.4227 0.7919
42.7000 28.4361 0.7869
42.7200 28.4495 0.7771
42.7400 28.4628 0.7880
42.7600 28.4760 0.7830
42.7800 28.4894 0.7754
42.8000 28.5027 0.7844
42.8200 28.5160 0.7752
42.8400 28.5293 0.7715
42.8600 28.5426 0.7784
42.8800 28.5560 0.7683
42.9000 28.5693 0.7694
42.9200 28.5827 0.7743
42.9400 28.5960 0.7659
42.9600 28.6094 0.7676
42.9800 28.6227 0.7677
43.0000 28.6361 0.7636
43.0200 28.6494 0.7610
43.0400 28.6627 0.7714
43.0600 28.6761 0.7567
43.0800 28.6894 0.7582
43.1000 28.7027 0.7636
43.1200 28.7160 0.7607
43.1400 28.7294 0.7613
43.1600 28.7427 0.7553
43.1800 28.7560 0.7530
43.2000 28.7693 0.7605
43.2200 28.7826 0.7544
43.2400 28.7960 0.7478
43.2600 28.8093 0.7609
43.2800 28.8226 0.7551
43.3000 28.8360 0.7513
43.3200 28.8494 0.7516
43.3400 28.8628 0.7542
43.3600 28.8761 0.7503
43.3800 28.8895 0.7495
43.4000 28.9028 0.7520
43.4200 28.9161 0.7513
43.4400 28.9294 0.7441
43.4600 28.9427 0.7528
43.4800 28.9560 0.7465
43.5000 28.9693 0.7503
43.5200 28.9826 0.7507
43.5400 28.9960 0.7465
43.5600 29.0093 0.7460
43.5800 29.0226 0.7496
43.6000 29.0360 0.7450
43.6200 29.0494 0.7459
43.6400 29.0627 0.7485
43.6600 29.0761 0.7439
43.6800 29.0894 0.7468
43.7000 29.1028 0.7471
43.7200 29.1161 0.7424
43.7400 29.1294 0.7464
43.7600 29.1427 0.7450
43.7800 29.1561 0.7392
43.8000 29.1694 0.7508
43.8200 29.1827 0.7448
43.8400 29.1960 0.7390
43.8600 29.2093 0.7539
43.8800 29.2227 0.7401
43.9000 29.2360 0.7379
43.9200 29.2493 0.7522
43.9400 29.2626 0.7372
43.9600 29.2760 0.7436
43.9800 29.2893 0.7479
44.0000 29.3027 0.7362
44.0200 29.3160 0.7401
44.0400 29.3294 0.7508
44.0600 29.3427 0.7363
44.0800 29.3561 0.7362
44.1000 29.3694 0.7443
44.1200 29.3827 0.7351
44.1400 29.3961 0.7343
44.1600 29.4094 0.7473
44.1800 29.4227 0.7303
44.2000 29.4360 0.7290
44.2200 29.4493 0.7391
44.2400 29.4627 0.7288
44.2600 29.4760 0.7269
44.2800 29.4893 0.7352
44.3000 29.5026 0.7302
44.3200 29.5160 0.7289
44.3400 29.5293 0.7308
44.3600 29.5427 0.7289
44.3800 29.5560 0.7269
44.4000 29.5693 0.7300
44.4200 29.5827 0.7259
44.4400 29.5961 0.7193
44.4600 29.6094 0.7244
44.4800 29.6227 0.7277
44.5000 29.6361 0.7147
44.5200 29.6494 0.7249
44.5400 29.6627 0.7279
44.5600 29.6760 0.7071
44.5800 29.6893 0.7261
44.6000 29.7027 0.7213
44.6200 29.7160 0.7068
44.6400 29.7293 0.7187
44.6600 29.7427 0.7185
44.6800 29.7560 0.7025
44.7000 29.7693 0.7148
44.7200 29.7827 0.7166
44.7400 29.7960 0.7035
44.7600 29.8093 0.7129
44.7800 29.8227 0.7097
44.8000 29.8361 0.6973
44.8200 29.8494 0.7108
44.8400 29.8627 0.7027
44.8600 29.8761 0.7006
44.8800 29.8894 0.7103
44.9000 29.9028 0.6979
44.9200 29.9161 0.6963
44.9400 29.9294 0.7071
44.9600 29.9427 0.6962
44.9800 29.9560 0.6925
45.0000 29.9693 0.7039
45.0200 29.9826 0.6911
45.0400 29.9960 0.6982
45.0600 30.0093 0.6938
45.0800 30.0227 0.6875
45.1000 30.0360 0.6988
45.1200 30.0494 0.6928
45.1400 30.0628 0.6856
45.1600 30.0761 0.6960
45.1800 30.0894 0.6849
45.2000 30.1027 0.6819
45.2200 30.1161 0.6917
45.2400 30.1294 0.6807
45.2600 30.1427 0.6801
45.2800 30.1560 0.6891
45.3000 30.1693 0.6709
45.3200 30.1827 0.6853
45.3400 30.1960 0.6799
45.3600 30.2093 0.6705
45.3800 30.2226 0.6891
45.4000 30.2360 0.6801
45.4200 30.2493 0.6645
45.4400 30.2626 0.6831
45.4600 30.2760 0.6743
45.4800 30.2893 0.6675
45.5000 30.3027 0.6839
45.5200 30.3161 0.6686
45.5400 30.3294 0.6621
45.5600 30.3427 0.6776
45.5800 30.3561 0.6711
45.6000 30.3694 0.6660
45.6200 30.3827 0.6722
45.6400 30.3960 0.6613
45.6600 30.4093 0.6663
45.6800 30.4226 0.6717
45.7000 30.4360 0.6596
45.7200 30.4493 0.6705
45.7400 30.4626 0.6709
45.7600 30.4760 0.6542
45.7800 30.4894 0.6689
45.8000 30.5027 0.6650
45.8200 30.5160 0.6577
45.8400 30.5294 0.6628
45.8600 30.5427 0.6603
45.8800 30.5561 0.6594
45.9000 30.5694 0.6631
45.9200 30.5827 0.6498
45.9400 30.5960 0.6567
45.9600 30.6094 0.6604
45.9800 30.6227 0.6477
46.0000 30.6361 0.6582
46.0200 30.6494 0.6576
46.0400 30.6627 0.6456
46.0600 30.6761 0.6635
46.0800 30.6894 0.6517
46.1000 30.7027 0.6447
46.1200 30.7160 0.6594
46.1400 30.7293 0.6456
46.1600 30.7427 0.6440
46.1800 30.7560 0.6551
46.2000 30.7693 0.6470
46.2200 30.7827 0.6382
46.2400 30.7961 0.6520
46.2600 30.8094 0.6455
46.2800 30.8227 0.6401
46.3000 30.8360 0.6519
46.3200 30.8494 0.6444
46.3400 30.8628 0.6360
46.3600 30.8761 0.6476
46.3800 30.8894 0.6436
46.4000 30.9027 0.6342
46.4200 30.9161 0.6439
46.4400 30.9294 0.6462
46.4600 30.9427 0.6274
46.4800 30.9560 0.6460
46.5000 30.9693 0.6440
46.5200 30.9827 0.6279
46.5400 30.9960 0.6436
46.5600 31.0093 0.6442
46.5800 31.0227 0.6244
46.6000 31.0361 0.6386
46.6200 31.0494 0.6377
46.6400 31.0627 0.6219
46.6600 31.0760 0.6412
46.6800 31.0894 0.6421
46.7000 31.1027 0.6195
46.7200 31.1160 0.6404
46.7400 31.1294 0.6407
46.7600 31.1427 0.6198
46.7800 31.1560 0.6382
46.8000 31.1694 0.6336
46.8200 31.1827 0.6179
46.8400 31.1960 0.6360
46.8600 31.2093 0.6313
46.8800 31.2227 0.6137
46.9000 31.2360 0.6349
46.9200 31.2493 0.6236
46.9400 31.2627 0.6171
46.9600 31.2761 0.6350
46.9800 31.2894 0.6237
47.0000 31.3027 0.6161
47.0200 31.3161 0.6316
47.0400 31.3294 0.6251
47.0600 31.3428 0.6179
47.0800 31.3561 0.6292
47.1000 31.3694 0.6273
47.1200 31.3827 0.6134
47.1400 31.3960 0.6306
47.1600 31.4093 0.6218
47.1800 31.4226 0.6129
47.2000 31.4359 0.6320
47.2200 31.4493 0.6186
47.2400 31.4627 0.6127
47.2600 31.4760 0.6292
47.2800 31.4893 0.6132
47.3000 31.5027 0.6145
47.3200 31.5161 0.6228
47.3400 31.5294 0.6132
47.3600 31.5427 0.6156
47.3800 31.5560 0.6205
47.4000 31.5694 0.6091
47.4200 31.5827 0.6159
47.4400 31.5961 0.6218
47.4600 31.6094 0.6043
47.4800 31.6227 0.6170
47.5000 31.6360 0.6177
47.5200 31.6494 0.6034
47.5400 31.6627 0.6134
47.5600 31.6760 0.6156
47.5800 31.6893 0.6007
47.6000 31.7027 0.6129
47.6200 31.7160 0.6082
47.6400 31.7293 0.6031
47.6600 31.7427 0.6140
47.6800 31.7561 0.6043
47.7000 31.7694 0.5953
47.7200 31.7827 0.6163
47.7400 31.7961 0.6022
47.7600 31.8094 0.5943
47.7800 31.8228 0.6094
47.8000 31.8361 0.5980
47.8200 31.8494 0.5967
47.8400 31.8627 0.6088
47.8600 31.8760 0.5961
47.8800 31.8893 0.5898
47.9000 31.9027 0.6073
47.9200 31.9160 0.5889
47.9400 31.9293 0.5916
47.9600 31.9427 0.6026
47.9800 31.9560 0.5862
48.0000 31.9693 0.5903
48.0200 31.9827 0.5969
48.0400 31.9960 0.5816
48.0600 32.0094 0.5930
48.0800 32.0227 0.5875
48.1000 32.0360 0.5852
48.1200 32.0494 0.5870
48.1400 32.0627 0.5868
48.1600 32.0760 0.5805
48.1800 32.0894 0.5868
48.2000 32.1027 0.5886
48.2200 32.1161 0.5789
48.2400 32.1294 0.5807
48.2600 32.1427 0.5860
48.2800 32.1560 0.5788
48.3000 32.1693 0.5829
48.3200 32.1826 0.5801
48.3400 32.1960 0.5763
48.3600 32.2093 0.5748
48.3800 32.2227 0.5803
48.4000 32.2361 0.5714
48.4200 32.2494 0.5772
48.4400 32.2627 0.5779
48.4600 32.2761 0.5709
48.4800 32.2894 0.5775
48.5000 32.3028 0.5766
48.5200 32.3161 0.5715
48.5400 32.3294 0.5736
48.5600 32.3427 0.5740
48.5800 32.3560 0.5682
48.6000 32.3693 0.5728
48.6200 32.3826 0.5735
48.6400 32.3960 0.5627
48.6600 32.4093 0.5715
48.6800 32.4227 0.5724
48.7000 32.4360 0.5599
48.7200 32.4493 0.5745
48.7400 32.4627 0.5706
48.7600 32.4761 0.5617
48.7800 32.4894 0.5677
48.8000 32.5028 0.5673
48.8200 32.5161 0.5603
48.8400 32.5294 0.5720
48.8600 32.5428 0.5613
48.8800 32.5561 0.5526
48.9000 32.5694 0.5701
48.9200 32.5827 0.5618
48.9400 32.5960 0.5525
48.9600 32.6094 0.5696
48.9800 32.6227 0.5536
49.0000 32.6360 0.5526
49.0200 32.6493 0.5651
49.0400 32.6627 0.5543
49.0600 32.6760 0.5504
49.0800 32.6893 0.5615
49.1000 32.7027 0.5511
49.1200 32.7160 0.5520
49.1400 32.7294 0.5551
49.1600 32.7427 0.5511
49.1800 32.7560 0.5529
49.2000 32.7694 0.5521
49.2200 32.7827 0.5510
49.2400 32.7961 0.5457
49.2600 32.8094 0.5535
49.2800 32.8227 0.5500
49.3000 32.8361 0.5432
49.3200 32.8494 0.5423
49.3400 32.8627 0.5543
49.3600 32.8759 0.5422
49.3800 32.8893 0.5441
49.4000 32.9027 0.5507
49.4200 32.9160 0.5404
49.4400 32.9293 0.5397
49.4600 32.9427 0.5499
49.4800 32.9561 0.5408
49.5000 32.9694 0.5376
49.5200 32.9828 0.5463
49.5400 32.9961 0.5392
49.5600 33.0094 0.5376
49.5800 33.0227 0.5492
49.6000 33.0360 0.5321
49.6200 33.0493 0.5336
49.6400 33.0627 0.5505
49.6600 33.0760 0.5332
49.6800 33.0894 0.5300
49.7000 33.1027 0.5468
49.7200 33.1160 0.5308
49.7400 33.1293 0.5290
49.7600 33.1427 0.5446
49.7800 33.1560 0.5284
49.8000 33.1693 0.5302
49.8200 33.1827 0.5412
49.8400 33.1960 0.5274
49.8600 33.2094 0.5294
49.8800 33.2227 0.5390
49.9000 33.2361 0.5254
49.9200 33.2494 0.5304
49.9400 33.2628 0.5334
49.9600 33.2761 0.5256
49.9800 33.2894 0.5282
50.0000 33.3027 0.5334
50.0200 33.3160 0.5212
50.0400 33.3294 0.5272
50.0600 33.3427 0.5321
50.0800 33.3560 0.5245
50.1000 33.3693 0.5210
50.1200 33.3827 0.5256
50.1400 33.3960 0.5242
50.1600 33.4093 0.5187
50.1800 33.4227 0.5181
50.2000 33.4360 0.5227
50.2200 33.4494 0.5124
50.2400 33.4627 0.5163
50.2600 33.4760 0.5173
50.2800 33.4894 0.5106
50.3000 33.5027 0.5159
50.3200 33.5161 0.5078
50.3400 33.5294 0.5107
50.3600 33.5427 0.5130
50.3800 33.5561 0.5084
50.4000 33.5694 0.5012
50.4200 33.5827 0.5101
50.4400 33.5960 0.5026
50.4600 33.6093 0.4974
50.4800 33.6226 0.5048
50.5000 33.6360 0.4988
50.5200 33.6493 0.4965
50.5400 33.6626 0.5077
50.5600 33.6760 0.4946
50.5800 33.6894 0.4969
50.6000 33.7028 0.5002
50.6200 33.7161 0.4975
50.6400 33.7294 0.4919
50.6600 33.7428 0.4998
50.6800 33.7561 0.4912
50.7000 33.7694 0.4886
50.7200 33.7827 0.4951
50.7400 33.7960 0.4923
50.7600 33.8093 0.4854
50.7800 33.8227 0.4929
50.8000 33.8360 0.4861
50.8200 33.8493 0.4854
50.8400 33.8627 0.4894
50.8600 33.8761 0.4845
50.8800 33.8894 0.4814
50.9000 33.9027 0.4833
50.9200 33.9161 0.4872
50.9400 33.9294 0.4747
50.9600 33.9427 0.4818
50.9800 33.9560 0.4881
51.0000 33.9693 0.4732
51.0200 33.9827 0.4776
51.0400 33.9960 0.4897
51.0600 34.0093 0.4652
51.0800 34.0227 0.4764
51.1000 34.0360 0.4885
51.1200 34.0493 0.4647
51.1400 34.0627 0.4741
51.1600 34.0760 0.4919
51.1800 34.0893 0.4594
51.2000 34.1027 0.4784
51.2200 34.1160 0.4849
51.2400 34.1294 0.4548
51.2600 34.1427 0.4787
51.2800 34.1561 0.4829
51.3000 34.1694 0.4497
51.3200 34.1827 0.4792
51.3400 34.1960 0.4814
51.3600 34.2094 0.4540
51.3800 34.2227 0.4781
51.4000 34.2361 0.4751
51.4200 34.2494 0.4514
51.4400 34.2627 0.4780
51.4600 34.2760 0.4693
51.4800 34.2894 0.4476
51.5000 34.3027 0.4758
51.5200 34.3160 0.4678
51.5400 34.3293 0.4503
51.5600 34.3426 0.4699
51.5800 34.3560 0.4656
51.6000 34.3693 0.4471
51.6200 34.3827 0.4676
51.6400 34.3960 0.4590
51.6600 34.4094 0.4485
51.6800 34.4228 0.4634
51.7000 34.4361 0.4559
51.7200 34.4494 0.4442
51.7400 34.4628 0.4610
51.7600 34.4761 0.4521
51.7800 34.4894 0.4470
51.8000 34.5027 0.4578
51.8200 34.5160 0.4523
51.8400 34.5294 0.4428
51.8600 34.5427 0.4552
51.8800 34.5560 0.4482
51.9000 34.5693 0.4438
51.9200 34.5827 0.4522
51.9400 34.5960 0.4478
51.9600 34.6093 0.4396
51.9800 34.6226 0.4477
52.0000 34.6360 0.4447
52.0200 34.6493 0.4390
52.0400 34.6627 0.4409
52.0600 34.6760 0.4404
52.0800 34.6894 0.4385
52.1000 34.7028 0.4396
52.1200 34.7161 0.4372
52.1400 34.7294 0.4324
52.1600 34.7427 0.4404
52.1800 34.7560 0.4345
52.2000 34.7693 0.4387
52.2200 34.7827 0.4285
52.2400 34.7960 0.4324
52.2600 34.8093 0.4376
52.2800 34.8226 0.4321
52.3000 34.8360 0.4295
52.3200 34.8493 0.4376
52.3400 34.8627 0.4278
52.3600 34.8761 0.4290
52.3800 34.8894 0.4317
52.4000 34.9028 0.4271
52.4200 34.9161 0.4282
52.4400 34.9294 0.4297
52.4600 34.9427 0.4190
52.4800 34.9561 0.4311
52.5000 34.9694 0.4301
52.5200 34.9827 0.4199
52.5400 34.9960 0.4277
52.5600 35.0094 0.4266
52.5800 35.0227 0.4194
52.6000 35.0360 0.4225
52.6200 35.0493 0.4248
52.6400 35.0626 0.4206
52.6600 35.0760 0.4229
52.6800 35.0893 0.4155
52.7000 35.1027 0.4180
52.7200 35.1160 0.4233
52.7400 35.1294 0.4161
52.7600 35.1427 0.4148
52.7800 35.1561 0.4204
52.8000 35.1694 0.4143
52.8200 35.1827 0.4195
52.8400 35.1961 0.4117
52.8600 35.2094 0.4148
52.8800 35.2226 0.4191
52.9000 35.2360 0.4114
52.9200 35.2493 0.4058
52.9400 35.2627 0.4167
52.9600 35.2760 0.4077
52.9800 35.2893 0.4088
53.0000 35.3027 0.4178
53.0200 35.3161 0.3955
53.0400 35.3294 0.4053
53.0600 35.3427 0.4147
53.0800 35.3561 0.3955
53.1000 35.3694 0.4126
53.1200 35.3828 0.4089
53.1400 35.3961 0.3934
53.1600 35.4094 0.4090
53.1800 35.4227 0.4035
53.2000 35.4361 0.3908
53.2200 35.4494 0.4061
53.2400 35.4627 0.3986
53.2600 35.4760 0.3878
53.2800 35.4894 0.4104
53.3000 35.5027 0.3919
53.3200 35.5160 0.3919
53.3400 35.5293 0.4055
53.3600 35.5426 0.3902
53.3800 35.5560 0.3838
53.4000 35.5693 0.4046
53.4200 35.5826 0.3900
53.4400 35.5960 0.3812
53.4600 35.6094 0.3946
53.4800 35.6227 0.3879
53.5000 35.6361 0.3797
53.5200 35.6494 0.3934
53.5400 35.6627 0.3767
53.5600 35.6761 0.3753
53.5800 35.6894 0.3869
53.6000 35.7027 0.3755
53.6200 35.7160 0.3757
53.6400 35.7294 0.3855
53.6600 35.7427 0.3663
53.6800 35.7560 0.3699
53.7000 35.7693 0.3879
53.7200 35.7826 0.3705
53.7400 35.7960 0.3627
53.7600 35.8093 0.3792
53.7800 35.8227 0.3692
53.8000 35.8360 0.3552
53.8200 35.8494 0.3742
53.8400 35.8627 0.3655
53.8600 35.8761 0.3586
53.8800 35.8894 0.3696
53.9000 35.9028 0.3592
53.9200 35.9161 0.3554
53.9400 35.9294 0.3731
53.9600 35.9427 0.3543
53.9800 35.9560 0.3581
54.0000 35.9693 0.3704
54.0200 35.9827 0.3511
54.0400 35.9960 0.3481
54.0600 36.0093 0.3743
54.0800 36.0226 0.3474
54.1000 36.0360 0.3462
54.1200 36.0494 0.3679
54.1400 36.0627 0.3468
54.1600 36.0760 0.3434
54.1800 36.0894 0.3606
54.2000 36.1027 0.3460
54.2200 36.1160 0.3483
54.2400 36.1294 0.3542
54.2600 36.1427 0.3428
54.2800 36.1561 0.3433
54.3000 36.1694 0.3544
54.3200 36.1827 0.3421
54.3400 36.1960 0.3411
54.3600 36.2094 0.3469
54.3800 36.2227 0.3446
54.4000 36.2360 0.3361
54.4200 36.2493 0.3478
54.4400 36.2626 0.3490
54.4600 36.2760 0.3283
54.4800 36.2893 0.3432
54.5000 36.3027 0.3449
54.5200 36.3160 0.3329
54.5400 36.3294 0.3433
54.5600 36.3428 0.3427
54.5800 36.3561 0.3214
54.6000 36.3694 0.3429
54.6200 36.3827 0.3415
54.6400 36.3961 0.3159
54.6600 36.4094 0.3425
54.6800 36.4227 0.3380
54.7000 36.4360 0.3124
54.7200 36.4493 0.3426
54.7400 36.4627 0.3317
54.7600 36.4760 0.3151
54.7800 36.4893 0.3369
54.8000 36.5027 0.3283
54.8200 36.5160 0.3108
54.8400 36.5293 0.3291
54.8600 36.5427 0.3221
54.8800 36.5560 0.3113
54.9000 36.5694 0.3275
54.9200 36.5827 0.3142
54.9400 36.5961 0.3115
54.9600 36.6094 0.3233
54.9800 36.6227 0.3111
55.0000 36.6361 0.3091
55.0200 36.6494 0.3182
55.0400 36.6627 0.3108
55.0600 36.6760 0.3048
55.0800 36.6893 0.3112
55.1000 36.7026 0.3091
55.1200 36.7160 0.2958
55.1400 36.7293 0.3117
55.1600 36.7426 0.3089
55.1800 36.7560 0.2930
55.2000 36.7694 0.3043
55.2200 36.7827 0.3067
55.2400 36.7960 0.2899
55.2600 36.8094 0.3055
55.2800 36.8227 0.3022
55.3000 36.8360 0.2904
55.3200 36.8493 0.3029
55.3400 36.8627 0.3014
55.3600 36.8761 0.2866
55.3800 36.8894 0.3037
55.4000 36.9027 0.2961
55.4200 36.9160 0.2852
55.4400 36.9294 0.3025
55.4600 36.9427 0.2896
55.4800 36.9561 0.2875
55.5000 36.9693 0.3005
55.5200 36.9826 0.2880
55.5400 36.9960 0.2867
55.5600 37.0093 0.2954
55.5800 37.0226 0.2821
55.6000 37.0360 0.2859
55.6200 37.0494 0.2913
55.6400 37.0628 0.2811
55.6600 37.0761 0.2838
55.6800 37.0894 0.2877
55.7000 37.1028 0.2774
55.7200 37.1161 0.2897
55.7400 37.1294 0.2786
55.7600 37.1427 0.2780
55.7800 37.1560 0.2857
55.8000 37.1693 0.2757
55.8200 37.1827 0.2748
55.8400 37.1960 0.2811
55.8600 37.2093 0.2642
55.8800 37.2226 0.2816
55.9000 37.2360 0.2728
55.9200 37.2493 0.2550
55.9400 37.2627 0.2807
55.9600 37.2760 0.2731
55.9800 37.2894 0.2482
56.0000 37.3027 0.2822
56.0200 37.3161 0.2642
56.0400 37.3294 0.2412
56.0600 37.3427 0.2793
56.0800 37.3561 0.2540
56.1000 37.3695 0.2440
56.1200 37.3827 0.2755
56.1400 37.3960 0.2481
56.1600 37.4094 0.2412
56.1800 37.4227 0.2724
56.2000 37.4360 0.2448
56.2200 37.4493 0.2390
56.2400 37.4626 0.2675
56.2600 37.4760 0.2364
56.2800 37.4893 0.2348
56.3000 37.5027 0.2657
56.3200 37.5160 0.2341
56.3400 37.5294 0.2374
56.3600 37.5427 0.2514
56.3800 37.5561 0.2330
56.4000 37.5694 0.2365
56.4200 37.5827 0.2493
56.4400 37.5961 0.2326
56.4600 37.6094 0.2340
56.4800 37.6227 0.2376
56.5000 37.6360 0.2349
56.5200 37.6494 0.2288
56.5400 37.6627 0.2356
56.5600 37.6760 0.2284
56.5800 37.6893 0.2248
56.6000 37.7026 0.2297
56.6200 37.7160 0.2291
56.6400 37.7293 0.2228
56.6600 37.7427 0.2224
56.6800 37.7560 0.2271
56.7000 37.7694 0.2203
56.7200 37.7828 0.2191
56.7400 37.7961 0.2243
56.7600 37.8094 0.2090
56.7800 37.8227 0.2151
56.8000 37.8361 0.2248
56.8200 37.8494 0.2030
56.8400 37.8627 0.2129
56.8600 37.8760 0.2257
56.8800 37.8893 0.1988
56.9000 37.9027 0.2044
56.9200 37.9160 0.2238
56.9400 37.9293 0.1957
56.9600 37.9426 0.2059
56.9800 37.9560 0.2164
57.0000 37.9693 0.1910
57.0200 37.9827 0.2053
57.0400 37.9960 0.2163
57.0600 38.0094 0.1822
57.0800 38.0228 0.2041
57.1000 38.0361 0.2146
57.1200 38.0494 0.1798
57.1400 38.0627 0.2019
57.1600 38.0761 0.2119
57.1800 38.0894 0.1776
57.2000 38.1027 0.2016
57.2200 38.1160 0.2063
57.2400 38.1293 0.1794
57.2600 38.1427 0.2038
57.2800 38.1560 0.2009
57.3000 38.1693 0.1745
57.3200 38.1827 0.2003
57.3400 38.1960 0.2000
57.3600 38.2093 0.1688
57.3800 38.2226 0.2037
57.4000 38.2360 0.1959
57.4200 38.2494 0.1681
57.4400 38.2627 0.1966
57.4600 38.2761 0.1909
57.4800 38.2894 0.1660
57.5000 38.3027 0.1999
57.5200 38.3161 0.1871
57.5400 38.3294 0.1639
57.5600 38.3427 0.1875
57.5800 38.3560 0.1821
57.6000 38.3693 0.1669
57.6200 38.3827 0.1850
57.6400 38.3960 0.1777
57.6600 38.4093 0.1699
57.6800 38.4226 0.1736
57.7000 38.4360 0.1736
57.7200 38.4493 0.1672
57.7400 38.4626 0.1734
57.7600 38.4760 0.1679
57.7800 38.4893 0.1625
57.8000 38.5027 0.1683
57.8200 38.5161 0.1662
57.8400 38.5294 0.1584
57.8600 38.5428 0.1666
57.8800 38.5561 0.1657
57.9000 38.5694 0.1549
57.9200 38.5827 0.1610
57.9400 38.5960 0.1653
57.9600 38.6093 0.1573
57.9800 38.6226 0.1546
58.0000 38.6360 0.1615
58.0200 38.6493 0.1485
58.0400 38.6626 0.1554
58.0600 38.6760 0.1524
58.0800 38.6894 0.1481
58.1000 38.7027 0.1454
58.1200 38.7161 0.1495
58.1400 38.7294 0.1448
58.1600 38.7428 0.1435
58.1800 38.7561 0.1395
58.2000 38.7694 0.1415
58.2200 38.7827 0.1376
58.2400 38.7961 0.1451
58.2600 38.8094 0.1364
58.2800 38.8227 0.1278
58.3000 38.8360 0.1400
58.3200 38.8493 0.1332
58.3400 38.8627 0.1192
58.3600 38.8760 0.1410
58.3800 38.8893 0.1260
58.4000 38.9026 0.1146
58.4200 38.9159 0.1328
58.4400 38.9293 0.1172
58.4600 38.9427 0.1124
58.4800 38.9561 0.1309
58.5000 38.9694 0.1122
58.5200 38.9828 0.1066
58.5400 38.9961 0.1302
58.5600 39.0094 0.1045
58.5800 39.0227 0.1039
58.6000 39.0361 0.1274
58.6200 39.0494 0.1041
58.6400 39.0628 0.0966
58.6600 39.0760 0.1220
58.6800 39.0893 0.1002
58.7000 39.1027 0.0956
58.7200 39.1160 0.1144
58.7400 39.1293 0.0974
58.7600 39.1426 0.0952
58.7800 39.1560 0.1129
58.8000 39.1693 0.0907
58.8200 39.1827 0.0899
58.8400 39.1960 0.1111
58.8600 39.2093 0.0872
58.8800 39.2227 0.0869
58.9000 39.2361 0.1040
58.9200 39.2494 0.0834
58.9400 39.2627 0.0820
58.9600 39.2761 0.1001
58.9800 39.2894 0.0813
59.0000 39.3027 0.0793
59.0200 39.3160 0.0957
59.0400 39.3293 0.0803
59.0600 39.3427 0.0722
59.0800 39.3560 0.0904
59.1000 39.3693 0.0774
59.1200 39.3826 0.0696
59.1400 39.3960 0.0830
59.1600 39.4093 0.0748
59.1800 39.4227 0.0651
59.2000 39.4360 0.0796
59.2200 39.4493 0.0710
59.2400 39.4627 0.0620
59.2600 39.4760 0.0741
59.2800 39.4894 0.0700
59.3000 39.5027 0.0552
59.3200 39.5161 0.0697
59.3400 39.5294 0.0592
59.3600 39.5428 0.0520
59.3800 39.5561 0.0655
59.4000 39.5693 0.0582
59.4200 39.5827 0.0522
59.4400 39.5960 0.0635
59.4600 39.6093 0.0548
59.4800 39.6226 0.0466
59.5000 39.6360 0.0598
59.5200 39.6493 0.0542
59.5400 39.6627 0.0437
59.5600 39.6760 0.0548
59.5800 39.6894 0.0525
59.6000 39.7027 0.0436
59.6200 39.7161 0.0585
59.6400 39.7294 0.0566
59.6600 39.7427 0.0381
59.6800 39.7561 0.0577
59.7000 39.7694 0.0532
59.7200 39.7828 0.0330
59.7400 39.7961 0.0549
59.7600 39.8093 0.0496
59.7800 39.8227 0.0357
59.8000 39.8360 0.0501
59.8200 39.8494 0.0448
59.8400 39.8627 0.0254
59.8600 39.8760 0.0510
59.8800 39.8893 0.0360
59.9000 39.9026 0.0180
59.9200 39.9160 0.0453
59.9400 39.9293 0.0267
59.9600 39.9427 0.0062
59.9800 39.9561 0.0427
60.0000 39.9694 0.0181
60.0200 39.9827 0.0050
60.0400 39.9960 0.0249
60.0470 40.0006 0.0089
