Raw Data
Time Displacement Force
(s) (mm) (N)
0.0000 0.0000 0.6236
0.0200 0.0001 0.6470
0.0400 0.0021 0.7161
0.0600 0.0098 0.7709
0.0800 0.0218 0.7609
0.1000 0.0343 0.8254
0.1200 0.0469 0.8874
0.1400 0.0603 0.8589
0.1600 0.0743 0.8426
0.1800 0.0884 0.8505
0.2000 0.1024 0.8357
0.2200 0.1160 0.8446
0.2400 0.1293 0.8540
0.2600 0.1426 0.8333
0.2800 0.1559 0.8460
0.3000 0.1693 0.8544
0.3200 0.1827 0.8342
0.3400 0.1961 0.8594
0.3600 0.2094 0.8424
0.3800 0.2227 0.8290
0.4000 0.2361 0.8556
0.4200 0.2494 0.8430
0.4400 0.2627 0.8377
0.4600 0.2760 0.8501
0.4800 0.2894 0.8353
0.5000 0.3027 0.8345
0.5200 0.3160 0.8535
0.5400 0.3293 0.8307
0.5600 0.3427 0.8318
0.5800 0.3560 0.8446
0.6000 0.3694 0.8195
0.6200 0.3827 0.8331
0.6400 0.3961 0.8500
0.6600 0.4094 0.8145
0.6800 0.4228 0.8265
0.7000 0.4361 0.8312
0.7200 0.4494 0.8155
0.7400 0.4628 0.8251
0.7600 0.4761 0.8273
0.7800 0.4894 0.8007
0.8000 0.5027 0.8201
0.8200 0.5160 0.8197
0.8400 0.5294 0.8067
0.8600 0.5427 0.8181
0.8800 0.5560 0.8071
0.9000 0.5693 0.8019
0.9200 0.5826 0.8186
0.9400 0.5960 0.8030
0.9600 0.6093 0.7981
0.9800 0.6227 0.8054
1.0000 0.6360 0.7995
1.0200 0.6494 0.7895
1.0400 0.6628 0.8053
1.0600 0.6761 0.7980
1.0800 0.6894 0.7858
1.1000 0.7027 0.7983
1.1200 0.7161 0.7928
1.1400 0.7294 0.7876
1.1600 0.7427 0.7930
1.1800 0.7560 0.7852
1.2000 0.7694 0.7811
1.2200 0.7827 0.7896
1.2400 0.7960 0.7821
1.2600 0.8093 0.7740
1.2800 0.8227 0.7810
1.3000 0.8360 0.7819
1.3200 0.8494 0.7686
1.3400 0.8627 0.7787
1.3600 0.8760 0.7704
1.3800 0.8894 0.7645
1.4000 0.9027 0.7709
1.4200 0.9161 0.7698
1.4400 0.9294 0.7640
1.4600 0.9427 0.7662
1.4800 0.9561 0.7576
1.5000 0.9694 0.7585
1.5200 0.9827 0.7614
1.5400 0.9960 0.7641
1.5600 1.0094 0.7539
1.5800 1.0227 0.7517
1.6000 1.0360 0.7532
1.6200 1.0493 0.7554
1.6400 1.0626 0.7573
1.6600 1.0760 0.7533
1.6800 1.0894 0.7466
1.7000 1.1027 0.7439
1.7200 1.1160 0.7562
1.7400 1.1294 0.7459
1.7600 1.1428 0.7434
1.7800 1.1561 0.7448
1.8000 1.1694 0.7444
1.8200 1.1827 0.7324
1.8400 1.1961 0.7444
1.8600 1.2095 0.7422
1.8800 1.2227 0.7297
1.9000 1.2360 0.7422
1.9200 1.2494 0.7391
1.9400 1.2627 0.7307
1.9600 1.2760 0.7393
1.9800 1.2893 0.7269
2.0000 1.3027 0.7279
2.0200 1.3160 0.7286
2.0400 1.3293 0.7294
2.0600 1.3427 0.7200
2.0800 1.3560 0.7287
2.1000 1.3694 0.7223
2.1200 1.3828 0.7135
2.1400 1.3961 0.7205
2.1600 1.4094 0.7174
2.1800 1.4228 0.7186
2.2000 1.4361 0.7145
2.2200 1.4494 0.7121
2.2400 1.4627 0.7112
2.2600 1.4760 0.7134
2.2800 1.4893 0.7134
2.3000 1.5027 0.7035
2.3200 1.5160 0.7082
2.3400 1.5293 0.7087
2.3600 1.5427 0.6972
2.3800 1.5561 0.7066
2.4000 1.5694 0.7043
2.4200 1.5827 0.6952
2.4400 1.5961 0.6967
2.4600 1.6094 0.7076
2.4800 1.6227 0.6859
2.5000 1.6360 0.6969
2.5200 1.6493 0.7022
2.5400 1.6627 0.6851
2.5600 1.6760 0.6924
2.5800 1.6894 0.6906
2.6000 1.7028 0.6837
2.6200 1.7161 0.6911
2.6400 1.7294 0.6878
2.6600 1.7428 0.6823
2.6800 1.7561 0.6830
2.7000 1.7694 0.6860
2.7200 1.7827 0.6782
2.7400 1.7960 0.6826
2.7600 1.8094 0.6828
2.7800 1.8227 0.6769
2.8000 1.8360 0.6774
2.8200 1.8493 0.6760
2.8400 1.8627 0.6771
2.8600 1.8761 0.6708
2.8800 1.8894 0.6741
2.9000 1.9027 0.6704
2.9200 1.9161 0.6675
2.9400 1.9294 0.6708
2.9600 1.9427 0.6757
2.9800 1.9560 0.6647
3.0000 1.9694 0.6608
3.0200 1.9828 0.6643
3.0400 1.9961 0.6571
3.0600 2.0094 0.6605
3.0800 2.0227 0.6675
3.1000 2.0360 0.6538
3.1200 2.0493 0.6578
3.1400 2.0627 0.6534
3.1600 2.0760 0.6538
3.1800 2.0894 0.6549
3.2000 2.1028 0.6502
3.2200 2.1161 0.6435
3.2400 2.1294 0.6537
3.2600 2.1428 0.6436
3.2800 2.1561 0.6436
3.3000 2.1694 0.6595
3.3200 2.1827 0.6426
3.3400 2.1960 0.6335
3.3600 2.2094 0.6556
3.3800 2.2227 0.6488
3.4000 2.2360 0.6397
3.4200 2.2493 0.6486
3.4400 2.2627 0.6289
3.4600 2.2760 0.6409
3.4800 2.2894 0.6461
3.5000 2.3027 0.6286
3.5200 2.3161 0.6315
3.5400 2.3294 0.6340
3.5600 2.3427 0.6260
3.5800 2.3561 0.6300
3.6000 2.3694 0.6317
3.6200 2.3828 0.6322
3.6400 2.3961 0.6182
3.6600 2.4095 0.6152
3.6800 2.4228 0.6331
3.7000 2.4361 0.6233
3.7200 2.4494 0.6100
3.7400 2.4627 0.6305
3.7600 2.4761 0.6147
3.7800 2.4893 0.6078
3.8000 2.5026 0.6271
3.8200 2.5160 0.6089
3.8400 2.5293 0.6058
3.8600 2.5427 0.6223
3.8800 2.5560 0.6031
3.9000 2.5694 0.6040
3.9200 2.5828 0.6227
3.9400 2.5961 0.5942
3.9600 2.6094 0.6011
3.9800 2.6227 0.6187
4.0000 2.6361 0.5965
4.0200 2.6494 0.5960
4.0400 2.6627 0.6149
4.0600 2.6761 0.5900
4.0800 2.6894 0.6031
4.1000 2.7027 0.6091
4.1200 2.7161 0.5868
4.1400 2.7294 0.6026
4.1600 2.7427 0.6077
4.1800 2.7560 0.5830
4.2000 2.7693 0.5949
4.2200 2.7827 0.6015
4.2400 2.7960 0.5812
4.2600 2.8093 0.5891
4.2800 2.8227 0.5969
4.3000 2.8361 0.5727
4.3200 2.8494 0.5917
4.3400 2.8628 0.5994
4.3600 2.8761 0.5700
4.3800 2.8894 0.5854
4.4000 2.9028 0.5935
4.4200 2.9160 0.5678
4.4400 2.9294 0.5844
4.4600 2.9427 0.5905
4.4800 2.9561 0.5630
4.5000 2.9694 0.5769
4.5200 2.9827 0.5865
4.5400 2.9960 0.5621
4.5600 3.0094 0.5760
4.5800 3.0227 0.5764
4.6000 3.0360 0.5561
4.6200 3.0494 0.5735
4.6400 3.0627 0.5728
4.6600 3.0761 0.5565
4.6800 3.0894 0.5671
4.7000 3.1027 0.5721
4.7200 3.1160 0.5501
4.7400 3.1294 0.5665
4.7600 3.1428 0.5667
4.7800 3.1561 0.5502
4.8000 3.1694 0.5620
4.8200 3.1828 0.5592
4.8400 3.1961 0.5474
4.8600 3.2094 0.5593
4.8800 3.2227 0.5590
4.9000 3.2360 0.5465
4.9200 3.2493 0.5529
4.9400 3.2627 0.5546
4.9600 3.2760 0.5445
4.9800 3.2893 0.5562
5.0000 3.3028 0.5476
5.0200 3.3162 0.5393
5.0400 3.3295 0.5500
5.0600 3.3428 0.5436
5.0800 3.3561 0.5452
5.1000 3.3695 0.5434
5.1200 3.3828 0.5393
5.1400 3.3961 0.5406
5.1600 3.4094 0.5438
5.1800 3.4227 0.5414
5.2000 3.4360 0.5378
5.2200 3.4494 0.5347
5.2400 3.4626 0.5334
5.2600 3.4760 0.5362
5.2800 3.4893 0.5342
5.3000 3.5027 0.5336
5.3200 3.5160 0.5322
5.3400 3.5293 0.5252
5.3600 3.5427 0.5310
5.3800 3.5561 0.5337
5.4000 3.5694 0.5253
5.4200 3.5828 0.5276
5.4400 3.5961 0.5258
5.4600 3.6095 0.5101
5.4800 3.6228 0.5315
5.5000 3.6361 0.5281
5.5200 3.6494 0.5082
5.5400 3.6627 0.5266
5.5600 3.6761 0.5176
5.5800 3.6894 0.5056
5.6000 3.7027 0.5240
5.6200 3.7160 0.5161
5.6400 3.7294 0.5022
5.6600 3.7427 0.5212
5.6800 3.7560 0.5052
5.7000 3.7694 0.5024
5.7200 3.7827 0.5280
5.7400 3.7961 0.5009
5.7600 3.8094 0.4913
5.7800 3.8227 0.5252
5.8000 3.8361 0.4999
5.8200 3.8494 0.4957
5.8400 3.8628 0.5160
5.8600 3.8761 0.4959
5.8800 3.8894 0.4947
5.9000 3.9027 0.5158
5.9200 3.9161 0.4906
5.9400 3.9294 0.4948
5.9600 3.9427 0.5069
5.9800 3.9560 0.4851
6.0000 3.9694 0.4933
6.0200 3.9827 0.5009
6.0400 3.9960 0.4848
6.0600 4.0094 0.4933
6.0800 4.0227 0.4933
6.1000 4.0361 0.4778
6.1200 4.0495 0.4928
6.1400 4.0628 0.4932
6.1600 4.0761 0.4732
6.1800 4.0894 0.4865
6.2000 4.1028 0.4923
6.2200 4.1161 0.4716
6.2400 4.1294 0.4821
6.2600 4.1427 0.4881
6.2800 4.1561 0.4685
6.3000 4.1694 0.4765
6.3200 4.1827 0.4910
6.3400 4.1960 0.4692
6.3600 4.2093 0.4762
6.3800 4.2227 0.4845
6.4000 4.2360 0.4658
6.4200 4.2493 0.4749
6.4400 4.2627 0.4879
6.4600 4.2761 0.4608
6.4800 4.2894 0.4733
6.5000 4.3027 0.4820
6.5200 4.3161 0.4645
6.5400 4.3294 0.4725
6.5600 4.3428 0.4813
6.5800 4.3561 0.4574
6.6000 4.3694 0.4726
6.6200 4.3827 0.4810
6.6400 4.3960 0.4571
6.6600 4.4094 0.4699
6.6800 4.4227 0.4726
6.7000 4.4360 0.4532
6.7200 4.4493 0.4682
6.7400 4.4627 0.4700
6.7600 4.4760 0.4541
6.7800 4.4893 0.4678
6.8000 4.5027 0.4626
6.8200 4.5161 0.4536
6.8400 4.5294 0.4606
6.8600 4.5427 0.4585
6.8800 4.5561 0.4528
6.9000 4.5694 0.4615
6.9200 4.5827 0.4488
6.9400 4.5961 0.4526
6.9600 4.6094 0.4616
6.9800 4.6227 0.4462
7.0000 4.6361 0.4482
7.0200 4.6494 0.4531
7.0400 4.6627 0.4423
7.0600 4.6760 0.4505
7.0800 4.6893 0.4486
7.1000 4.7026 0.4379
7.1200 4.7160 0.4511
7.1400 4.7293 0.4447
7.1600 4.7427 0.4373
7.1800 4.7561 0.4526
7.2000 4.7695 0.4395
7.2200 4.7828 0.4315
7.2400 4.7961 0.4485
7.2600 4.8095 0.4352
7.2800 4.8228 0.4295
7.3000 4.8361 0.4445
7.3200 4.8494 0.4289
7.3400 4.8627 0.4287
7.3600 4.8760 0.4489
7.3800 4.8893 0.4261
7.4000 4.9027 0.4268
7.4200 4.9160 0.4367
7.4400 4.9294 0.4225
7.4600 4.9427 0.4308
7.4800 4.9561 0.4352
7.5000 4.9694 0.4168
7.5200 4.9828 0.4259
7.5400 4.9961 0.4228
7.5600 5.0095 0.4133
7.5800 5.0228 0.4236
7.6000 5.0361 0.4250
7.6200 5.0494 0.4103
7.6400 5.0628 0.4223
7.6600 5.0761 0.4158
7.6800 5.0894 0.4118
7.7000 5.1027 0.4176
7.7200 5.1160 0.4117
7.7400 5.1294 0.4055
7.7600 5.1427 0.4125
7.7800 5.1560 0.4094
7.8000 5.1693 0.4064
7.8200 5.1827 0.4138
7.8400 5.1960 0.4050
7.8600 5.2094 0.3980
7.8800 5.2227 0.4096
7.9000 5.2361 0.4009
7.9200 5.2494 0.3944
7.9400 5.2627 0.4049
7.9600 5.2761 0.3969
7.9800 5.2894 0.3941
8.0000 5.3028 0.3997
8.0200 5.3161 0.3992
8.0400 5.3294 0.3913
8.0600 5.3427 0.4013
8.0800 5.3561 0.3925
8.1000 5.3694 0.3823
8.1200 5.3827 0.3970
8.1400 5.3960 0.3906
8.1600 5.4093 0.3833
8.1800 5.4227 0.3957
8.2000 5.4360 0.3830
8.2200 5.4494 0.3835
8.2400 5.4627 0.3898
8.2600 5.4761 0.3828
8.2800 5.4895 0.3737
8.3000 5.5028 0.3834
8.3200 5.5161 0.3819
8.3400 5.5294 0.3726
8.3600 5.5428 0.3817
8.3800 5.5561 0.3740
8.4000 5.5694 0.3683
8.4200 5.5827 0.3775
8.4400 5.5961 0.3727
8.4600 5.6094 0.3666
8.4800 5.6227 0.3768
8.5000 5.6360 0.3676
8.5200 5.6493 0.3660
8.5400 5.6627 0.3690
8.5600 5.6760 0.3625
8.5800 5.6894 0.3642
8.6000 5.7027 0.3667
8.6200 5.7161 0.3585
8.6400 5.7294 0.3645
8.6600 5.7427 0.3622
8.6800 5.7561 0.3634
8.7000 5.7694 0.3576
8.7200 5.7828 0.3615
8.7400 5.7961 0.3572
8.7600 5.8094 0.3617
8.7800 5.8227 0.3567
8.8000 5.8360 0.3595
8.8200 5.8494 0.3579
8.8400 5.8627 0.3570
8.8600 5.8760 0.3558
8.8800 5.8893 0.3591
8.9000 5.9027 0.3558
8.9200 5.9160 0.3561
8.9400 5.9294 0.3537
8.9600 5.9428 0.3535
8.9800 5.9561 0.3520
9.0000 5.9695 0.3514
9.0200 5.9828 0.3564
9.0400 5.9961 0.3466
9.0600 6.0094 0.3541
9.0800 6.0228 0.3569
9.1000 6.0361 0.3434
9.1200 6.0494 0.3485
9.1400 6.0627 0.3537
9.1600 6.0760 0.3359
9.1800 6.0894 0.3484
9.2000 6.1027 0.3452
9.2200 6.1160 0.3388
9.2400 6.1293 0.3460
9.2600 6.1427 0.3395
9.2800 6.1560 0.3339
9.3000 6.1693 0.3449
9.3200 6.1827 0.3338
9.3400 6.1961 0.3335
9.3600 6.2095 0.3361
9.3800 6.2228 0.3285
9.4000 6.2361 0.3293
9.4200 6.2494 0.3385
9.4400 6.2628 0.3273
9.4600 6.2761 0.3243
9.4800 6.2894 0.3355
9.5000 6.3027 0.3245
9.5200 6.3160 0.3230
9.5400 6.3293 0.3279
9.5600 6.3427 0.3255
9.5800 6.3560 0.3184
9.6000 6.3693 0.3276
9.6200 6.3827 0.3198
9.6400 6.3961 0.3168
9.6600 6.4094 0.3252
9.6800 6.4227 0.3122
9.7000 6.4361 0.3147
9.7200 6.4495 0.3208
9.7400 6.4628 0.3093
9.7600 6.4761 0.3119
9.7800 6.4894 0.3193
9.8000 6.5027 0.3131
9.8200 6.5161 0.3011
9.8400 6.5294 0.3183
9.8600 6.5427 0.3080
9.8800 6.5561 0.3056
9.9000 6.5694 0.3146
9.9200 6.5827 0.3080
9.9400 6.5960 0.3064
9.9600 6.6093 0.3127
9.9800 6.6227 0.3039
10.0000 6.6360 0.3006
10.0200 6.6493 0.3115
10.0400 6.6627 0.3011
10.0600 6.6760 0.2961
10.0800 6.6894 0.3098
10.1000 6.7028 0.2936
10.1200 6.7161 0.2952
10.1400 6.7294 0.3060
10.1600 6.7428 0.2915
10.1800 6.7561 0.2969
10.2000 6.7694 0.3040
10.2200 6.7827 0.2936
10.2400 6.7961 0.2919
10.2600 6.8094 0.3024
10.2800 6.8227 0.2839
10.3000 6.8360 0.2931
10.3200 6.8493 0.2996
10.3400 6.8627 0.2812
10.3600 6.8760 0.2881
10.3800 6.8893 0.2943
10.4000 6.9027 0.2808
10.4200 6.9160 0.2892
10.4400 6.9294 0.2903
10.4600 6.9428 0.2826
10.4800 6.9561 0.2880
10.5000 6.9694 0.2865
10.5200 6.9828 0.2792
10.5400 6.9961 0.2904
10.5600 7.0094 0.2797
10.5800 7.0227 0.2795
10.6000 7.0360 0.2861
10.6200 7.0494 0.2821
10.6400 7.0627 0.2821
10.6600 7.0760 0.2793
10.6800 7.0893 0.2791
10.7000 7.1027 0.2794
10.7200 7.1161 0.2772
10.7400 7.1294 0.2747
10.7600 7.1427 0.2807
10.7800 7.1560 0.2692
10.8000 7.1694 0.2750
10.8200 7.1827 0.2747
10.8400 7.1961 0.2691
10.8600 7.2094 0.2696
10.8800 7.2228 0.2718
10.9000 7.2361 0.2601
10.9200 7.2494 0.2667
10.9400 7.2627 0.2671
10.9600 7.2761 0.2603
10.9800 7.2894 0.2664
11.0000 7.3027 0.2667
11.0200 7.3160 0.2535
11.0400 7.3293 0.2646
11.0600 7.3426 0.2591
11.0800 7.3560 0.2559
11.1000 7.3694 0.2650
11.1200 7.3827 0.2535
11.1400 7.3961 0.2510
11.1600 7.4095 0.2646
11.1800 7.4228 0.2510
11.2000 7.4361 0.2520
11.2200 7.4494 0.2669
11.2400 7.4628 0.2437
11.2600 7.4761 0.2477
11.2800 7.4894 0.2615
11.3000 7.5027 0.2465
11.3200 7.5161 0.2505
11.3400 7.5294 0.2577
11.3600 7.5427 0.2410
11.3800 7.5560 0.2516
11.4000 7.5693 0.2534
11.4200 7.5827 0.2422
11.4400 7.5960 0.2447
11.4600 7.6093 0.2519
11.4800 7.6227 0.2353
11.5000 7.6361 0.2455
11.5200 7.6494 0.2415
11.5400 7.6628 0.2344
11.5600 7.6761 0.2440
11.5800 7.6894 0.2430
11.6000 7.7028 0.2298
11.6200 7.7161 0.2393
11.6400 7.7294 0.2428
11.6600 7.7427 0.2270
11.6800 7.7560 0.2386
11.7000 7.7694 0.2388
11.7200 7.7827 0.2189
11.7400 7.7960 0.2386
11.7600 7.8093 0.2395
11.7800 7.8227 0.2170
11.8000 7.8360 0.2350
11.8200 7.8494 0.2319
11.8400 7.8627 0.2175
11.8600 7.8760 0.2304
11.8800 7.8894 0.2323
11.9000 7.9027 0.2177
11.9200 7.9160 0.2310
11.9400 7.9294 0.2252
11.9600 7.9427 0.2189
11.9800 7.9561 0.2262
12.0000 7.9694 0.2242
12.0200 7.9827 0.2186
12.0400 7.9961 0.2243
12.0600 8.0094 0.2224
12.0800 8.0227 0.2160
12.1000 8.0360 0.2184
12.1200 8.0493 0.2227
12.1400 8.0626 0.2124
12.1600 8.0760 0.2157
12.1800 8.0893 0.2162
12.2000 8.1026 0.2103
12.2200 8.1160 0.2132
12.2400 8.1295 0.2152
12.2600 8.1428 0.2114
12.2800 8.1561 0.2102
12.3000 8.1694 0.2121
12.3200 8.1828 0.2060
12.3400 8.1961 0.2070
12.3600 8.2094 0.2112
12.3800 8.2227 0.2043
12.4000 8.2360 0.2072
12.4200 8.2494 0.2039
12.4400 8.2627 0.2018
12.4600 8.2760 0.2096
12.4800 8.2893 0.1982
12.5000 8.3026 0.2095
12.5200 8.3160 0.2021
12.5400 8.3293 0.1958
12.5600 8.3427 0.2051
12.5800 8.3560 0.2076
12.6000 8.3694 0.1866
12.6200 8.3828 0.2037
12.6400 8.3961 0.1981
12.6600 8.4094 0.1909
12.6800 8.4228 0.1990
12.7000 8.4361 0.1970
12.7200 8.4494 0.1883
12.7400 8.4627 0.1980
12.7600 8.4760 0.1897
12.7800 8.4894 0.1890
12.8000 8.5027 0.1965
12.8200 8.5160 0.1820
12.8400 8.5293 0.1832
12.8600 8.5427 0.1949
12.8800 8.5560 0.1777
12.9000 8.5694 0.1832
12.9200 8.5827 0.1882
12.9400 8.5960 0.1801
12.9600 8.6094 0.1762
12.9800 8.6228 0.1801
13.0000 8.6361 0.1842
13.0200 8.6494 0.1819
13.0400 8.6628 0.1781
13.0600 8.6761 0.1742
13.0800 8.6894 0.1760
13.1000 8.7028 0.1744
13.1200 8.7161 0.1786
13.1400 8.7294 0.1699
13.1600 8.7427 0.1691
13.1800 8.7560 0.1716
13.2000 8.7693 0.1734
13.2200 8.7826 0.1706
13.2400 8.7960 0.1701
13.2600 8.8094 0.1637
13.2800 8.8227 0.1718
13.3000 8.8361 0.1639
13.3200 8.8495 0.1620
13.3400 8.8628 0.1709
13.3600 8.8761 0.1675
13.3800 8.8894 0.1582
13.4000 8.9028 0.1674
13.4200 8.9161 0.1605
13.4400 8.9294 0.1607
13.4600 8.9427 0.1660
13.4800 8.9560 0.1569
13.5000 8.9694 0.1596
13.5200 8.9827 0.1581
13.5400 8.9960 0.1572
13.5600 9.0093 0.1568
13.5800 9.0227 0.1594
13.6000 9.0360 0.1527
13.6200 9.0493 0.1516
13.6400 9.0626 0.1579
13.6600 9.0760 0.1517
13.6800 9.0894 0.1478
13.7000 9.1028 0.1518
13.7200 9.1161 0.1511
13.7400 9.1294 0.1513
13.7600 9.1428 0.1479
13.7800 9.1561 0.1466
13.8000 9.1695 0.1437
13.8200 9.1828 0.1502
13.8400 9.1960 0.1452
13.8600 9.2094 0.1460
13.8800 9.2227 0.1493
13.9000 9.2360 0.1419
13.9200 9.2493 0.1418
13.9400 9.2627 0.1430
13.9600 9.2760 0.1401
13.9800 9.2894 0.1400
14.0000 9.3027 0.1348
14.0200 9.3160 0.1450
14.0400 9.3294 0.1359
14.0600 9.3428 0.1341
14.0800 9.3561 0.1442
14.1000 9.3694 0.1359
14.1200 9.3827 0.1306
14.1400 9.3961 0.1368
14.1600 9.4094 0.1356
14.1800 9.4227 0.1283
14.2000 9.4361 0.1404
14.2200 9.4494 0.1307
14.2400 9.4627 0.1266
14.2600 9.4760 0.1358
14.2800 9.4893 0.1327
14.3000 9.5026 0.1266
14.3200 9.5160 0.1353
14.3400 9.5293 0.1247
14.3600 9.5426 0.1229
14.3800 9.5560 0.1362
14.4000 9.5694 0.1243
14.4200 9.5828 0.1167
14.4400 9.5961 0.1371
14.4600 9.6095 0.1202
14.4800 9.6228 0.1137
14.5000 9.6361 0.1302
14.5200 9.6494 0.1199
14.5400 9.6627 0.1158
14.5600 9.6760 0.1289
14.5800 9.6893 0.1168
14.6000 9.7027 0.1106
14.6200 9.7160 0.1266
14.6400 9.7293 0.1155
14.6600 9.7427 0.1131
14.6800 9.7561 0.1246
14.7000 9.7694 0.1064
14.7200 9.7827 0.1138
14.7400 9.7961 0.1202
14.7600 9.8094 0.1033
14.7800 9.8228 0.1143
14.8000 9.8361 0.1185
14.8200 9.8494 0.1063
14.8400 9.8628 0.1123
14.8600 9.8761 0.1178
14.8800 9.8894 0.0990
14.9000 9.9027 0.1140
14.9200 9.9160 0.1116
14.9400 9.9294 0.1016
14.9600 9.9427 0.1078
14.9800 9.9560 0.1128
15.0000 9.9693 0.0981
15.0200 9.9827 0.1033
15.0400 9.9960 0.1085
15.0600 10.0094 0.1014
15.0800 10.0227 0.1009
15.1000 10.0360 0.1080
15.1200 10.0494 0.0993
15.1400 10.0628 0.0994
15.1600 10.0761 0.1029
15.1800 10.0894 0.0957
15.2000 10.1027 0.0956
15.2200 10.1161 0.1025
15.2400 10.1294 0.0978
15.2600 10.1427 0.0872
15.2800 10.1560 0.1081
15.3000 10.1694 0.0945
15.3200 10.1827 0.0813
15.3400 10.1960 0.1024
15.3600 10.2093 0.0946
15.3800 10.2226 0.0782
15.4000 10.2360 0.1036
15.4200 10.2494 0.0849
15.4400 10.2627 0.0809
15.4600 10.2760 0.1005
15.4800 10.2894 0.0856
15.5000 10.3028 0.0789
15.5200 10.3161 0.0972
15.5400 10.3294 0.0816
15.5600 10.3428 0.0810
15.5800 10.3561 0.0954
15.6000 10.3694 0.0790
15.6200 10.3827 0.0801
15.6400 10.3960 0.0954
15.6600 10.4094 0.0746
15.6800 10.4227 0.0813
15.7000 10.4360 0.0883
15.7200 10.4493 0.0717
15.7400 10.4627 0.0856
15.7600 10.4760 0.0885
15.7800 10.4894 0.0670
15.8000 10.5027 0.0823
15.8200 10.5160 0.0878
15.8400 10.5294 0.0672
15.8600 10.5427 0.0765
15.8800 10.5561 0.0772
15.9000 10.5694 0.0689
15.9200 10.5827 0.0717
15.9400 10.5961 0.0777
15.9600 10.6095 0.0639
15.9800 10.6228 0.0701
16.0000 10.6361 0.0742
16.0200 10.6494 0.0631
16.0400 10.6627 0.0690
16.0600 10.6760 0.0712
16.0800 10.6893 0.0586
16.1000 10.7027 0.0699
16.1200 10.7160 0.0682
16.1400 10.7294 0.0564
16.1600 10.7427 0.0651
16.1800 10.7560 0.0708
16.2000 10.7694 0.0555
16.2200 10.7828 0.0616
16.2400 10.7961 0.0621
16.2600 10.8094 0.0570
16.2800 10.8227 0.0654
16.3000 10.8361 0.0575
16.3200 10.8494 0.0516
16.3400 10.8628 0.0601
16.3600 10.8760 0.0589
16.3800 10.8894 0.0517
16.4000 10.9027 0.0586
16.4200 10.9161 0.0537
16.4400 10.9294 0.0523
16.4600 10.9427 0.0530
16.4800 10.9560 0.0587
16.5000 10.9693 0.0522
16.5200 10.9827 0.0483
16.5400 10.9960 0.0558
16.5600 11.0094 0.0471
16.5800 11.0228 0.0450
16.6000 11.0361 0.0527
16.6200 11.0494 0.0423
16.6400 11.0628 0.0450
16.6600 11.0761 0.0488
16.6800 11.0894 0.0382
16.7000 11.1027 0.0471
16.7200 11.1160 0.0474
16.7400 11.1293 0.0328
16.7600 11.1427 0.0489
16.7800 11.1560 0.0451
16.8000 11.1693 0.0292
16.8200 11.1827 0.0434
16.8400 11.1960 0.0448
16.8600 11.2094 0.0245
16.8800 11.2227 0.0403
16.9000 11.2361 0.0400
16.9200 11.2494 0.0244
16.9400 11.2627 0.0398
16.9600 11.2761 0.0348
16.9800 11.2894 0.0224
17.0000 11.3027 0.0406
17.0200 11.3160 0.0329
17.0400 11.3294 0.0208
17.0600 11.3428 0.0391
17.0800 11.3561 0.0249
17.1000 11.3694 0.0175
17.1200 11.3827 0.0366
17.1400 11.3961 0.0246
17.1600 11.4094 0.0187
17.1800 11.4227 0.0381
17.2000 11.4360 0.0202
17.2200 11.4494 0.0210
17.2400 11.4627 0.0351
17.2600 11.4760 0.0199
17.2800 11.4894 0.0179
17.3000 11.5027 0.0314
17.3200 11.5161 0.0142
17.3400 11.5294 0.0179
17.3600 11.5427 0.0244
17.3800 11.5561 0.0129
17.4000 11.5694 0.0133
17.4200 11.5828 0.0224
17.4400 11.5961 0.0123
17.4600 11.6094 0.0137
17.4800 11.6227 0.0214
17.5000 11.6361 0.0091
17.5200 11.6494 0.0112
17.5400 11.6627 0.0150
17.5600 11.6760 0.0082
17.5800 11.6893 0.0086
17.6000 11.7027 0.0160
17.6200 11.7160 0.0030
17.6400 11.7294 0.0073
17.6600 11.7428 0.0127
17.6800 11.7561 -0.0027
17.7000 11.7694 0.0059
17.7200 11.7828 0.0186
17.7400 11.7961 -0.0079
17.7600 11.8094 0.0006
17.7800 11.8228 0.0142
17.8000 11.8360 -0.0029
17.8200 11.8494 -0.0023
17.8400 11.8627 0.0148
17.8600 11.8760 -0.0093
17.8800 11.8894 -0.0057
17.9000 11.9027 0.0141
17.9200 11.9160 -0.0103
17.9400 11.9294 -0.0055
17.9600 11.9427 0.0130
17.9800 11.9561 -0.0164
18.0000 11.9694 -0.0076
18.0200 11.9827 0.0088
18.0400 11.9961 -0.0206
18.0600 12.0094 -0.0105
18.0800 12.0227 0.0095
18.1000 12.0361 -0.0237
18.1200 12.0495 -0.0151
18.1400 12.0628 0.0071
18.1600 12.0761 -0.0291
18.1800 12.0894 -0.0092
18.2000 12.1027 0.0038
18.2200 12.1161 -0.0252
18.2400 12.1294 -0.0126
18.2600 12.1427 -0.0020
18.2800 12.1560 -0.0288
18.3000 12.1693 -0.0097
18.3200 12.1827 -0.0042
18.3400 12.1960 -0.0270
18.3600 12.2094 -0.0165
18.3800 12.2228 -0.0096
18.4000 12.2361 -0.0276
18.4200 12.2495 -0.0155
18.4400 12.2627 -0.0161
18.4600 12.2761 -0.0230
18.4800 12.2894 -0.0250
18.5000 12.3027 -0.0191
18.5200 12.3160 -0.0220
18.5400 12.3294 -0.0248
18.5600 12.3427 -0.0201
18.5800 12.3561 -0.0269
18.6000 12.3694 -0.0300
18.6200 12.3827 -0.0213
18.6400 12.3960 -0.0243
18.6600 12.4094 -0.0363
18.6800 12.4227 -0.0223
18.7000 12.4360 -0.0249
18.7200 12.4494 -0.0372
18.7400 12.4627 -0.0226
18.7600 12.4761 -0.0312
18.7800 12.4894 -0.0429
18.8000 12.5027 -0.0192
18.8200 12.5161 -0.0396
18.8400 12.5294 -0.0437
18.8600 12.5428 -0.0237
18.8800 12.5561 -0.0411
18.9000 12.5693 -0.0444
18.9200 12.5827 -0.0200
18.9400 12.5960 -0.0465
18.9600 12.6093 -0.0467
18.9800 12.6227 -0.0207
19.0000 12.6360 -0.0507
19.0200 12.6494 -0.0455
19.0400 12.6627 -0.0293
19.0600 12.6760 -0.0575
19.0800 12.6893 -0.0453
19.1000 12.7027 -0.0320
19.1200 12.7161 -0.0575
19.1400 12.7294 -0.0447
19.1600 12.7427 -0.0345
19.1800 12.7560 -0.0596
19.2000 12.7694 -0.0476
19.2200 12.7828 -0.0377
19.2400 12.7961 -0.0615
19.2600 12.8094 -0.0469
19.2800 12.8227 -0.0428
19.3000 12.8361 -0.0664
19.3200 12.8494 -0.0484
19.3400 12.8627 -0.0472
19.3600 12.8760 -0.0639
19.3800 12.8893 -0.0493
19.4000 12.9027 -0.0537
19.4200 12.9160 -0.0638
19.4400 12.9293 -0.0516
19.4600 12.9427 -0.0537
19.4800 12.9561 -0.0674
19.5000 12.9695 -0.0490
19.5200 12.9828 -0.0590
19.5400 12.9961 -0.0648
19.5600 13.0095 -0.0546
19.5800 13.0228 -0.0609
19.6000 13.0361 -0.0694
19.6200 13.0494 -0.0583
19.6400 13.0627 -0.0604
19.6600 13.0760 -0.0687
19.6800 13.0894 -0.0658
19.7000 13.1026 -0.0597
19.7200 13.1160 -0.0669
19.7400 13.1293 -0.0719
19.7600 13.1427 -0.0634
19.7800 13.1560 -0.0689
19.8000 13.1694 -0.0734
19.8200 13.1827 -0.0672
19.8400 13.1961 -0.0648
19.8600 13.2095 -0.0775
19.8800 13.2228 -0.0652
19.9000 13.2361 -0.0683
19.9200 13.2494 -0.0805
19.9400 13.2628 -0.0742
19.9600 13.2761 -0.0704
19.9800 13.2894 -0.0783
20.0000 13.3027 -0.0711
20.0200 13.3161 -0.0751
20.0400 13.3294 -0.0791
20.0600 13.3427 -0.0766
20.0800 13.3560 -0.0712
20.1000 13.3693 -0.0846
20.1200 13.3827 -0.0780
20.1400 13.3960 -0.0780
20.1600 13.4094 -0.0877
20.1800 13.4227 -0.0792
20.2000 13.4361 -0.0795
20.2200 13.4494 -0.0913
20.2400 13.4627 -0.0865
20.2600 13.4761 -0.0829
20.2800 13.4894 -0.0902
20.3000 13.5028 -0.0896
20.3200 13.5161 -0.0828
20.3400 13.5294 -0.0955
20.3600 13.5427 -0.0905
20.3800 13.5561 -0.0781
20.4000 13.5694 -0.1056
20.4200 13.5827 -0.0877
20.4400 13.5960 -0.0838
20.4600 13.6093 -0.1092
20.4800 13.6227 -0.0951
20.5000 13.6360 -0.0865
20.5200 13.6494 -0.1096
20.5400 13.6627 -0.0980
20.5600 13.6761 -0.0920
20.5800 13.6895 -0.1131
20.6000 13.7028 -0.0962
20.6200 13.7161 -0.0929
20.6400 13.7294 -0.1156
20.6600 13.7428 -0.0968
20.6800 13.7561 -0.1039
20.7000 13.7693 -0.1126
20.7200 13.7827 -0.0955
20.7400 13.7960 -0.1022
20.7600 13.8094 -0.1207
20.7800 13.8227 -0.1015
20.8000 13.8360 -0.1048
20.8200 13.8493 -0.1210
20.8400 13.8627 -0.1052
20.8600 13.8760 -0.1075
20.8800 13.8894 -0.1234
20.9000 13.9027 -0.1078
20.9200 13.9161 -0.1105
20.9400 13.9294 -0.1229
20.9600 13.9428 -0.1122
20.9800 13.9561 -0.1146
21.0000 13.9695 -0.1227
21.0200 13.9828 -0.1185
21.0400 13.9961 -0.1178
21.0600 14.0094 -0.1259
21.0800 14.0227 -0.1161
21.1000 14.0360 -0.1221
21.1200 14.0494 -0.1271
21.1400 14.0627 -0.1264
21.1600 14.0760 -0.1201
21.1800 14.0893 -0.1293
21.2000 14.1027 -0.1254
21.2200 14.1160 -0.1247
21.2400 14.1294 -0.1324
21.2600 14.1427 -0.1297
21.2800 14.1561 -0.1255
21.3000 14.1694 -0.1382
21.3200 14.1828 -0.1327
21.3400 14.1961 -0.1268
21.3600 14.2094 -0.1366
21.3800 14.2228 -0.1354
21.4000 14.2361 -0.1259
21.4200 14.2494 -0.1413
21.4400 14.2627 -0.1384
21.4600 14.2761 -0.1315
21.4800 14.2894 -0.1435
21.5000 14.3027 -0.1316
21.5200 14.3160 -0.1413
21.5400 14.3293 -0.1433
21.5600 14.3426 -0.1391
21.5800 14.3560 -0.1390
21.6000 14.3693 -0.1459
21.6200 14.3827 -0.1354
21.6400 14.3961 -0.1447
21.6600 14.4095 -0.1479
21.6800 14.4228 -0.1404
21.7000 14.4361 -0.1421
21.7200 14.4495 -0.1473
21.7400 14.4628 -0.1452
21.7600 14.4761 -0.1439
21.7800 14.4894 -0.1443
21.8000 14.5027 -0.1438
21.8200 14.5160 -0.1452
21.8400 14.5293 -0.1506
21.8600 14.5426 -0.1459
21.8800 14.5560 -0.1502
21.9000 14.5693 -0.1538
21.9200 14.5827 -0.1458
21.9400 14.5961 -0.1492
21.9600 14.6094 -0.1571
21.9800 14.6227 -0.1517
22.0000 14.6361 -0.1483
22.0200 14.6495 -0.1599
22.0400 14.6628 -0.1533
22.0600 14.6761 -0.1496
22.0800 14.6894 -0.1641
22.1000 14.7028 -0.1608
22.1200 14.7161 -0.1526
22.1400 14.7294 -0.1620
22.1600 14.7427 -0.1554
22.1800 14.7560 -0.1590
22.2000 14.7694 -0.1672
22.2200 14.7827 -0.1597
22.2400 14.7960 -0.1536
22.2600 14.8093 -0.1751
22.2800 14.8227 -0.1592
22.3000 14.8361 -0.1602
22.3200 14.8494 -0.1780
22.3400 14.8627 -0.1633
22.3600 14.8761 -0.1621
22.3800 14.8895 -0.1759
22.4000 14.9028 -0.1647
22.4200 14.9161 -0.1717
22.4400 14.9294 -0.1751
22.4600 14.9428 -0.1664
22.4800 14.9561 -0.1705
22.5000 14.9694 -0.1797
22.5200 14.9827 -0.1678
22.5400 14.9960 -0.1773
22.5600 15.0094 -0.1839
22.5800 15.0227 -0.1712
22.6000 15.0360 -0.1773
22.6200 15.0493 -0.1872
22.6400 15.0627 -0.1777
22.6600 15.0760 -0.1783
22.6800 15.0894 -0.1854
22.7000 15.1027 -0.1768
22.7200 15.1161 -0.1857
22.7400 15.1295 -0.1876
22.7600 15.1428 -0.1844
22.7800 15.1561 -0.1852
22.8000 15.1694 -0.1883
22.8200 15.1828 -0.1875
22.8400 15.1961 -0.1940
22.8600 15.2094 -0.1907
22.8800 15.2227 -0.1930
22.9000 15.2360 -0.1917
22.9200 15.2494 -0.1941
22.9400 15.2627 -0.1965
22.9600 15.2760 -0.1974
22.9800 15.2893 -0.1942
23.0000 15.3027 -0.1978
23.0200 15.3160 -0.1995
23.0400 15.3293 -0.1988
23.0600 15.3427 -0.2007
23.0800 15.3560 -0.2040
23.1000 15.3694 -0.2003
23.1200 15.3827 -0.2056
23.1400 15.3961 -0.2041
23.1600 15.4094 -0.2001
23.1800 15.4228 -0.2164
23.2000 15.4361 -0.2084
23.2200 15.4494 -0.2000
23.2400 15.4627 -0.2180
23.2600 15.4760 -0.2071
23.2800 15.4894 -0.2004
23.3000 15.5027 -0.2276
23.3200 15.5160 -0.2050
23.3400 15.5293 -0.2024
23.3600 15.5427 -0.2254
23.3800 15.5560 -0.2129
23.4000 15.5694 -0.2062
23.4200 15.5827 -0.2293
23.4400 15.5961 -0.2098
23.4600 15.6095 -0.2144
23.4800 15.6228 -0.2281
23.5000 15.6361 -0.2104
23.5200 15.6494 -0.2161
23.5400 15.6628 -0.2283
23.5600 15.6761 -0.2058
23.5800 15.6894 -0.2226
23.6000 15.7027 -0.2265
23.6200 15.7160 -0.2083
23.6400 15.7294 -0.2273
23.6600 15.7427 -0.2283
23.6800 15.7560 -0.2131
23.7000 15.7693 -0.2282
23.7200 15.7827 -0.2267
23.7400 15.7960 -0.2156
23.7600 15.8093 -0.2319
23.7800 15.8227 -0.2278
23.8000 15.8361 -0.2230
23.8200 15.8494 -0.2340
23.8400 15.8628 -0.2329
23.8600 15.8761 -0.2271
23.8800 15.8894 -0.2380
23.9000 15.9028 -0.2305
23.9200 15.9161 -0.2323
23.9400 15.9294 -0.2364
23.9600 15.9427 -0.2319
23.9800 15.9560 -0.2314
24.0000 15.9694 -0.2430
24.0200 15.9827 -0.2332
24.0400 15.9960 -0.2422
24.0600 16.0093 -0.2399
24.0800 16.0227 -0.2358
24.1000 16.0361 -0.2433
24.1200 16.0494 -0.2418
24.1400 16.0627 -0.2407
24.1600 16.0761 -0.2431
24.1800 16.0894 -0.2408
24.2000 16.1027 -0.2485
24.2200 16.1160 -0.2499
24.2400 16.1294 -0.2387
24.2600 16.1427 -0.2516
24.2800 16.1561 -0.2565
24.3000 16.1694 -0.2395
24.3200 16.1827 -0.2514
24.3400 16.1961 -0.2614
24.3600 16.2094 -0.2429
24.3800 16.2227 -0.2584
24.4000 16.2360 -0.2572
24.4200 16.2493 -0.2468
24.4400 16.2627 -0.2614
24.4600 16.2760 -0.2620
24.4800 16.2893 -0.2509
24.5000 16.3027 -0.2646
24.5200 16.3160 -0.2648
24.5400 16.3294 -0.2568
24.5600 16.3428 -0.2695
24.5800 16.3561 -0.2686
24.6000 16.3694 -0.2606
24.6200 16.3828 -0.2719
24.6400 16.3961 -0.2694
24.6600 16.4094 -0.2656
24.6800 16.4227 -0.2668
24.7000 16.4361 -0.2723
24.7200 16.4494 -0.2681
24.7400 16.4627 -0.2732
24.7600 16.4760 -0.2716
24.7800 16.4893 -0.2689
24.8000 16.5027 -0.2735
24.8200 16.5160 -0.2760
24.8400 16.5294 -0.2723
24.8600 16.5427 -0.2776
24.8800 16.5560 -0.2779
24.9000 16.5694 -0.2715
24.9200 16.5828 -0.2843
24.9400 16.5961 -0.2791
24.9600 16.6094 -0.2753
24.9800 16.6228 -0.2818
25.0000 16.6361 -0.2870
25.0200 16.6494 -0.2739
25.0400 16.6627 -0.2832
25.0600 16.6760 -0.2862
25.0800 16.6894 -0.2798
25.1000 16.7027 -0.2886
25.1200 16.7160 -0.2920
25.1400 16.7293 -0.2804
25.1600 16.7427 -0.2910
25.1800 16.7560 -0.2908
25.2000 16.7694 -0.2840
25.2200 16.7827 -0.2929
25.2400 16.7960 -0.2914
25.2600 16.8094 -0.2834
25.2800 16.8228 -0.2926
25.3000 16.8361 -0.2995
25.3200 16.8494 -0.2840
25.3400 16.8628 -0.2957
25.3600 16.8761 -0.2957
25.3800 16.8894 -0.2891
25.4000 16.9027 -0.3004
25.4200 16.9160 -0.2980
25.4400 16.9294 -0.2892
25.4600 16.9427 -0.3081
25.4800 16.9560 -0.2995
25.5000 16.9693 -0.2933
25.5200 16.9826 -0.3089
25.5400 16.9960 -0.3016
25.5600 17.0093 -0.2974
25.5800 17.0227 -0.3097
25.6000 17.0361 -0.3027
25.6200 17.0494 -0.3046
25.6400 17.0628 -0.3100
25.6600 17.0761 -0.3067
25.6800 17.0894 -0.3045
25.7000 17.1028 -0.3128
25.7200 17.1161 -0.3103
25.7400 17.1294 -0.3141
25.7600 17.1427 -0.3100
25.7800 17.1560 -0.3138
25.8000 17.1694 -0.3180
25.8200 17.1827 -0.3139
25.8400 17.1961 -0.3181
25.8600 17.2094 -0.3216
25.8800 17.2227 -0.3141
25.9000 17.2360 -0.3203
25.9200 17.2493 -0.3274
25.9400 17.2627 -0.3145
25.9600 17.2760 -0.3249
25.9800 17.2894 -0.3294
26.0000 17.3028 -0.3177
26.0200 17.3161 -0.3295
26.0400 17.3294 -0.3276
26.0600 17.3428 -0.3166
26.0800 17.3561 -0.3357
26.1000 17.3694 -0.3292
26.1200 17.3827 -0.3240
26.1400 17.3960 -0.3353
26.1600 17.4094 -0.3340
26.1800 17.4227 -0.3264
26.2000 17.4360 -0.3407
26.2200 17.4493 -0.3323
26.2400 17.4627 -0.3338
26.2600 17.4760 -0.3385
26.2800 17.4894 -0.3334
26.3000 17.5027 -0.3346
26.3200 17.5161 -0.3427
26.3400 17.5294 -0.3390
26.3600 17.5427 -0.3422
26.3800 17.5561 -0.3456
26.4000 17.5694 -0.3418
26.4200 17.5827 -0.3427
26.4400 17.5961 -0.3462
26.4600 17.6094 -0.3449
26.4800 17.6227 -0.3457
26.5000 17.6361 -0.3496
26.5200 17.6494 -0.3467
26.5400 17.6627 -0.3471
26.5600 17.6760 -0.3496
26.5800 17.6893 -0.3515
26.6000 17.7026 -0.3490
26.6200 17.7160 -0.3554
26.6400 17.7293 -0.3525
26.6600 17.7427 -0.3514
26.6800 17.7560 -0.3596
26.7000 17.7694 -0.3547
26.7200 17.7828 -0.3596
26.7400 17.7961 -0.3636
26.7600 17.8094 -0.3505
26.7800 17.8228 -0.3641
26.8000 17.8361 -0.3660
26.8200 17.8494 -0.3554
26.8400 17.8627 -0.3635
26.8600 17.8760 -0.3658
26.8800 17.8893 -0.3555
26.9000 17.9027 -0.3712
26.9200 17.9160 -0.3715
26.9400 17.9293 -0.3574
26.9600 17.9426 -0.3742
26.9800 17.9560 -0.3712
27.0000 17.9693 -0.3620
27.0200 17.9827 -0.3778
27.0400 17.9960 -0.3754
27.0600 18.0094 -0.3650
27.0800 18.0228 -0.3783
27.1000 18.0361 -0.3722
27.1200 18.0494 -0.3708
27.1400 18.0628 -0.3799
27.1600 18.0761 -0.3766
27.1800 18.0894 -0.3757
27.2000 18.1027 -0.3857
27.2200 18.1160 -0.3759
27.2400 18.1294 -0.3804
27.2600 18.1427 -0.3887
27.2800 18.1560 -0.3807
27.3000 18.1693 -0.3832
27.3200 18.1827 -0.3954
27.3400 18.1960 -0.3806
27.3600 18.2094 -0.3885
27.3800 18.2227 -0.3942
27.4000 18.2360 -0.3858
27.4200 18.2494 -0.3928
27.4400 18.2628 -0.3970
27.4600 18.2761 -0.3908
27.4800 18.2894 -0.3953
27.5000 18.3027 -0.4006
27.5200 18.3161 -0.3967
27.5400 18.3294 -0.4003
27.5600 18.3428 -0.4022
27.5800 18.3561 -0.4010
27.6000 18.3694 -0.4019
27.6200 18.3828 -0.4027
27.6400 18.3960 -0.4010
27.6600 18.4093 -0.4107
27.6800 18.4227 -0.4026
27.7000 18.4360 -0.4076
27.7200 18.4494 -0.4145
27.7400 18.4627 -0.4125
27.7600 18.4760 -0.4079
27.7800 18.4894 -0.4188
27.8000 18.5028 -0.4113
27.8200 18.5161 -0.4125
27.8400 18.5294 -0.4158
27.8600 18.5428 -0.4133
27.8800 18.5561 -0.4175
27.9000 18.5694 -0.4238
27.9200 18.5827 -0.4165
27.9400 18.5960 -0.4230
27.9600 18.6094 -0.4246
27.9800 18.6227 -0.4188
28.0000 18.6360 -0.4238
28.0200 18.6494 -0.4324
28.0400 18.6627 -0.4219
28.0600 18.6760 -0.4320
28.0800 18.6894 -0.4391
28.1000 18.7027 -0.4259
28.1200 18.7160 -0.4327
28.1400 18.7294 -0.4422
28.1600 18.7428 -0.4326
28.1800 18.7561 -0.4394
28.2000 18.7694 -0.4417
28.2200 18.7828 -0.4322
28.2400 18.7961 -0.4438
28.2600 18.8095 -0.4439
28.2800 18.8228 -0.4422
28.3000 18.8361 -0.4465
28.3200 18.8494 -0.4468
28.3400 18.8627 -0.4457
28.3600 18.8760 -0.4475
28.3800 18.8893 -0.4503
28.4000 18.9026 -0.4539
28.4200 18.9160 -0.4444
28.4400 18.9294 -0.4558
28.4600 18.9427 -0.4556
28.4800 18.9560 -0.4469
28.5000 18.9694 -0.4626
28.5200 18.9828 -0.4616
28.5400 18.9961 -0.4459
28.5600 19.0094 -0.4669
28.5800 19.0227 -0.4633
28.6000 19.0361 -0.4539
28.6200 19.0494 -0.4726
28.6400 19.0627 -0.4651
28.6600 19.0761 -0.4523
28.6800 19.0894 -0.4733
28.7000 19.1027 -0.4697
28.7200 19.1161 -0.4636
28.7400 19.1293 -0.4807
28.7600 19.1426 -0.4634
28.7800 19.1560 -0.4683
28.8000 19.1693 -0.4852
28.8200 19.1826 -0.4671
28.8400 19.1960 -0.4717
28.8600 19.2094 -0.4932
28.8800 19.2228 -0.4686
28.9000 19.2361 -0.4795
28.9200 19.2495 -0.4906
28.9400 19.2628 -0.4744
28.9600 19.2761 -0.4829
28.9800 19.2895 -0.4909
29.0000 19.3027 -0.4740
29.0200 19.3160 -0.4879
29.0400 19.3293 -0.4941
29.0600 19.3427 -0.4843
29.0800 19.3560 -0.4912
29.1000 19.3693 -0.4934
29.1200 19.3827 -0.4865
29.1400 19.3961 -0.4990
29.1600 19.4094 -0.4949
29.1800 19.4227 -0.4928
29.2000 19.4361 -0.4979
29.2200 19.4494 -0.4979
29.2400 19.4628 -0.5040
29.2600 19.4761 -0.5039
29.2800 19.4894 -0.5007
29.3000 19.5027 -0.5049
29.3200 19.5161 -0.5068
29.3400 19.5294 -0.5083
29.3600 19.5427 -0.5148
29.3800 19.5560 -0.5067
29.4000 19.5694 -0.5143
29.4200 19.5827 -0.5170
29.4400 19.5961 -0.5121
29.4600 19.6094 -0.5217
29.4800 19.6227 -0.5248
29.5000 19.6360 -0.5148
29.5200 19.6494 -0.5271
29.5400 19.6627 -0.5237
29.5600 19.6760 -0.5256
29.5800 19.6894 -0.5307
29.6000 19.7028 -0.5305
29.6200 19.7161 -0.5289
29.6400 19.7294 -0.5376
29.6600 19.7427 -0.5299
29.6800 19.7561 -0.5345
29.7000 19.7694 -0.5484
29.7200 19.7827 -0.5353
29.7400 19.7960 -0.5405
29.7600 19.8094 -0.5483
29.7800 19.8227 -0.5384
29.8000 19.8361 -0.5569
29.8200 19.8493 -0.5464
29.8400 19.8626 -0.5398
29.8600 19.8760 -0.5596
29.8800 19.8894 -0.5567
29.9000 19.9027 -0.5491
29.9200 19.9160 -0.5606
29.9400 19.9294 -0.5591
29.9600 19.9428 -0.5520
29.9800 19.9561 -0.5705
30.0000 19.9695 -0.5612
30.0200 19.9828 -0.5663
30.0400 19.9961 -0.5691
30.0600 20.0094 -0.5628
30.0800 20.0227 -0.5721
30.1000 20.0360 -0.5699
30.1200 20.0493 -0.5650
30.1400 20.0627 -0.5741
30.1600 20.0761 -0.5700
30.1800 20.0894 -0.5742
30.2000 20.1027 -0.5745
30.2200 20.1160 -0.5748
30.2400 20.1294 -0.5769
30.2600 20.1427 -0.5855
30.2800 20.1560 -0.5755
30.3000 20.1694 -0.5797
30.3200 20.1827 -0.5908
30.3400 20.1961 -0.5814
30.3600 20.2094 -0.5923
30.3800 20.2227 -0.5954
30.4000 20.2361 -0.5797
30.4200 20.2495 -0.6003
30.4400 20.2628 -0.6018
30.4600 20.2761 -0.5856
30.4800 20.2894 -0.6029
30.5000 20.3027 -0.6067
30.5200 20.3160 -0.5948
30.5400 20.3293 -0.6127
30.5600 20.3426 -0.6161
30.5800 20.3560 -0.5942
30.6000 20.3693 -0.6046
30.6200 20.3827 -0.4961
30.6400 20.3960 -0.3419
30.6600 20.4094 -0.2300
30.6800 20.4228 -0.1171
30.7000 20.4361 -0.0393
30.7200 20.4494 -0.0188
30.7400 20.4627 0.0117
30.7600 20.4761 0.0380
30.7800 20.4894 0.0733
30.8000 20.5027 0.1376
30.8200 20.5160 0.1999
30.8400 20.5293 0.2485
30.8600 20.5427 0.3110
30.8800 20.5560 0.3587
30.9000 20.5693 0.4042
30.9200 20.5827 0.4686
30.9400 20.5960 0.5147
30.9600 20.6093 0.5683
30.9800 20.6227 0.6195
31.0000 20.6360 0.6428
31.0200 20.6494 0.6830
31.0400 20.6628 0.7294
31.0600 20.6761 0.7779
31.0800 20.6894 0.8371
31.1000 20.7028 0.8797
31.1200 20.7161 0.9231
31.1400 20.7294 0.9719
31.1600 20.7427 1.0155
31.1800 20.7560 1.0465
31.2000 20.7693 1.0937
31.2200 20.7827 1.1298
31.2400 20.7960 1.1598
31.2600 20.8093 1.1738
31.2800 20.8227 1.1667
31.3000 20.8360 1.1668
31.3200 20.8494 1.1749
31.3400 20.8627 1.1687
31.3600 20.8761 1.1764
31.3800 20.8894 1.1760
31.4000 20.9028 1.1751
31.4200 20.9161 1.1762
31.4400 20.9294 1.1799
31.4600 20.9427 1.1761
31.4800 20.9560 1.1807
31.5000 20.9694 1.1788
31.5200 20.9827 1.1753
31.5400 20.9961 1.1866
31.5600 21.0094 1.1798
31.5800 21.0228 1.1777
31.6000 21.0361 1.1872
31.6200 21.0494 1.1803
31.6400 21.0627 1.1772
31.6600 21.0760 1.1813
31.6800 21.0894 1.1795
31.7000 21.1027 1.1791
31.7200 21.1160 1.1791
31.7400 21.1293 1.1805
31.7600 21.1427 1.1782
31.7800 21.1561 1.1757
31.8000 21.1694 1.1705
31.8200 21.1827 1.1797
31.8400 21.1961 1.1722
31.8600 21.2094 1.1703
31.8800 21.2228 1.1720
31.9000 21.2361 1.1768
31.9200 21.2494 1.1694
31.9400 21.2627 1.1646
31.9600 21.2761 1.1706
31.9800 21.2894 1.1663
32.0000 21.3027 1.1594
32.0200 21.3160 1.1724
32.0400 21.3293 1.1560
32.0600 21.3427 1.1531
32.0800 21.3560 1.1706
32.1000 21.3694 1.1500
32.1200 21.3827 1.1557
32.1400 21.3961 1.1618
32.1600 21.4094 1.1481
32.1800 21.4227 1.1519
32.2000 21.4361 1.1582
32.2200 21.4494 1.1401
32.2400 21.4628 1.1539
32.2600 21.4761 1.1516
32.2800 21.4894 1.1354
32.3000 21.5027 1.1562
32.3200 21.5160 1.1496
32.3400 21.5293 1.1321
32.3600 21.5426 1.1602
32.3800 21.5560 1.1377
32.4000 21.5694 1.1377
32.4200 21.5827 1.1547
32.4400 21.5960 1.1360
32.4600 21.6094 1.1323
32.4800 21.6227 1.1507
32.5000 21.6361 1.1333
32.5200 21.6494 1.1345
32.5400 21.6628 1.1505
32.5600 21.6761 1.1255
32.5800 21.6895 1.1364
32.6000 21.7028 1.1479
32.6200 21.7161 1.1236
32.6400 21.7294 1.1397
32.6600 21.7427 1.1440
32.6800 21.7561 1.1216
32.7000 21.7694 1.1389
32.7200 21.7826 1.1358
32.7400 21.7960 1.1216
32.7600 21.8093 1.1363
32.7800 21.8227 1.1370
32.8000 21.8360 1.1186
32.8200 21.8494 1.1395
32.8400 21.8627 1.1256
32.8600 21.8761 1.1189
32.8800 21.8895 1.1326
32.9000 21.9028 1.1286
32.9200 21.9161 1.1225
32.9400 21.9294 1.1288
32.9600 21.9428 1.1224
32.9800 21.9561 1.1226
33.0000 21.9694 1.1281
33.0200 21.9827 1.1208
33.0400 21.9961 1.1134
33.0600 22.0094 1.1261
33.0800 22.0227 1.1157
33.1000 22.0360 1.1176
33.1200 22.0494 1.1211
33.1400 22.0627 1.1167
33.1600 22.0760 1.1119
33.1800 22.0894 1.1184
33.2000 22.1027 1.1152
33.2200 22.1161 1.1048
33.2400 22.1294 1.1119
33.2600 22.1427 1.1126
33.2800 22.1561 1.1062
33.3000 22.1694 1.1123
33.3200 22.1827 1.1087
33.3400 22.1960 1.1029
33.3600 22.2094 1.1133
33.3800 22.2227 1.1086
33.4000 22.2360 1.1020
33.4200 22.2494 1.1074
33.4400 22.2627 1.1079
33.4600 22.2760 1.0989
33.4800 22.2894 1.1099
33.5000 22.3027 1.0987
33.5200 22.3160 1.1000
33.5400 22.3294 1.1143
33.5600 22.3427 1.0963
33.5800 22.3561 1.0949
33.6000 22.3694 1.1120
33.6200 22.3827 1.0930
33.6400 22.3960 1.0989
33.6600 22.4094 1.1037
33.6800 22.4228 1.0846
33.7000 22.4361 1.0909
33.7200 22.4494 1.1052
33.7400 22.4627 1.0858
33.7600 22.4761 1.0909
33.7800 22.4894 1.0984
33.8000 22.5027 1.0795
33.8200 22.5160 1.0908
33.8400 22.5293 1.0983
33.8600 22.5427 1.0787
33.8800 22.5560 1.0844
33.9000 22.5693 1.0937
33.9200 22.5827 1.0768
33.9400 22.5961 1.0830
33.9600 22.6095 1.0884
33.9800 22.6228 1.0778
34.0000 22.6361 1.0811
34.0200 22.6495 1.0848
34.0400 22.6628 1.0726
34.0600 22.6761 1.0870
34.0800 22.6894 1.0864
34.1000 22.7027 1.0744
34.1200 22.7160 1.0777
34.1400 22.7293 1.0800
34.1600 22.7426 1.0759
34.1800 22.7559 1.0800
34.2000 22.7693 1.0766
34.2200 22.7827 1.0748
34.2400 22.7960 1.0768
34.2600 22.8094 1.0760
34.2800 22.8227 1.0738
34.3000 22.8361 1.0706
34.3200 22.8495 1.0698
34.3400 22.8628 1.0682
34.3600 22.8761 1.0715
34.3800 22.8895 1.0742
34.4000 22.9028 1.0650
34.4200 22.9161 1.0644
34.4400 22.9294 1.0761
34.4600 22.9427 1.0585
34.4800 22.9561 1.0606
34.5000 22.9694 1.0686
34.5200 22.9827 1.0555
34.5400 22.9960 1.0569
34.5600 23.0093 1.0663
34.5800 23.0227 1.0496
34.6000 23.0360 1.0545
34.6200 23.0493 1.0637
34.6400 23.0627 1.0507
34.6600 23.0761 1.0464
34.6800 23.0894 1.0598
34.7000 23.1027 1.0474
34.7200 23.1161 1.0498
34.7400 23.1294 1.0547
34.7600 23.1428 1.0422
34.7800 23.1561 1.0462
34.8000 23.1694 1.0563
34.8200 23.1827 1.0445
34.8400 23.1961 1.0425
34.8600 23.2094 1.0481
34.8800 23.2227 1.0410
34.9000 23.2360 1.0362
34.9200 23.2493 1.0499
34.9400 23.2627 1.0439
34.9600 23.2760 1.0281
34.9800 23.2894 1.0473
35.0000 23.3027 1.0459
35.0200 23.3161 1.0316
35.0400 23.3295 1.0403
35.0600 23.3428 1.0437
35.0800 23.3561 1.0228
35.1000 23.3694 1.0436
35.1200 23.3828 1.0361
35.1400 23.3961 1.0245
35.1600 23.4094 1.0410
35.1800 23.4227 1.0336
35.2000 23.4360 1.0210
35.2200 23.4494 1.0435
35.2400 23.4627 1.0323
35.2600 23.4760 1.0180
35.2800 23.4893 1.0429
35.3000 23.5027 1.0299
35.3200 23.5160 1.0234
35.3400 23.5293 1.0399
35.3600 23.5427 1.0254
35.3800 23.5561 1.0249
35.4000 23.5695 1.0350
35.4200 23.5828 1.0164
35.4400 23.5961 1.0271
35.4600 23.6094 1.0335
35.4800 23.6228 1.0181
35.5000 23.6361 1.0206
35.5200 23.6494 1.0313
35.5400 23.6627 1.0162
35.5600 23.6760 1.0218
35.5800 23.6894 1.0247
35.6000 23.7027 1.0176
35.6200 23.7160 1.0132
35.6400 23.7293 1.0195
35.6600 23.7427 1.0160
35.6800 23.7560 1.0155
35.7000 23.7694 1.0165
35.7200 23.7827 1.0156
35.7400 23.7961 1.0065
35.7600 23.8094 1.0090
35.7800 23.8228 1.0166
35.8000 23.8361 1.0093
35.8200 23.8494 1.0049
35.8400 23.8628 1.0165
35.8600 23.8761 1.0021
35.8800 23.8894 1.0054
35.9000 23.9027 1.0168
35.9200 23.9161 0.9961
35.9400 23.9294 1.0012
35.9600 23.9427 1.0098
35.9800 23.9560 0.9880
36.0000 23.9693 1.0051
36.0200 23.9826 1.0046
36.0400 23.9960 0.9808
36.0600 24.0093 1.0089
36.0800 24.0227 1.0037
36.1000 24.0361 0.9815
36.1200 24.0495 1.0008
36.1400 24.0628 0.9955
36.1600 24.0761 0.9814
36.1800 24.0895 1.0049
36.2000 24.1028 0.9856
36.2200 24.1161 0.9813
36.2400 24.1294 1.0034
36.2600 24.1427 0.9827
36.2800 24.1560 0.9816
36.3000 24.1694 1.0029
36.3200 24.1827 0.9748
36.3400 24.1960 0.9870
36.3600 24.2093 0.9931
36.3800 24.2227 0.9786
36.4000 24.2361 0.9898
36.4200 24.2494 0.9889
36.4400 24.2627 0.9715
36.4600 24.2761 0.9878
36.4800 24.2895 0.9839
36.5000 24.3028 0.9743
36.5200 24.3161 0.9892
36.5400 24.3294 0.9775
36.5600 24.3428 0.9750
36.5800 24.3561 0.9829
36.6000 24.3694 0.9778
36.6200 24.3827 0.9768
36.6400 24.3960 0.9815
36.6600 24.4094 0.9668
36.6800 24.4227 0.9785
36.7000 24.4360 0.9744
36.7200 24.4493 0.9655
36.7400 24.4627 0.9772
36.7600 24.4760 0.9710
36.7800 24.4894 0.9629
36.8000 24.5027 0.9745
36.8200 24.5161 0.9635
36.8400 24.5294 0.9667
36.8600 24.5428 0.9698
36.8800 24.5561 0.9609
36.9000 24.5694 0.9652
36.9200 24.5828 0.9650
36.9400 24.5961 0.9550
36.9600 24.6094 0.9699
36.9800 24.6227 0.9592
37.0000 24.6361 0.9557
37.0200 24.6494 0.9672
37.0400 24.6627 0.9535
37.0600 24.6760 0.9608
37.0800 24.6893 0.9666
37.1000 24.7027 0.9510
37.1200 24.7160 0.9588
37.1400 24.7294 0.9609
37.1600 24.7427 0.9492
37.1800 24.7561 0.9605
37.2000 24.7695 0.9526
37.2200 24.7828 0.9458
37.2400 24.7961 0.9585
37.2600 24.8094 0.9524
37.2800 24.8228 0.9435
37.3000 24.8361 0.9561
37.3200 24.8494 0.9420
37.3400 24.8627 0.9528
37.3600 24.8760 0.9555
37.3800 24.8894 0.9372
37.4000 24.9027 0.9494
37.4200 24.9160 0.9523
37.4400 24.9294 0.9334
37.4600 24.9427 0.9530
37.4800 24.9560 0.9479
37.5000 24.9694 0.9317
37.5200 24.9827 0.9479
37.5400 24.9960 0.9436
37.5600 25.0094 0.9292
37.5800 25.0227 0.9465
37.6000 25.0361 0.9377
37.6200 25.0494 0.9300
37.6400 25.0628 0.9464
37.6600 25.0761 0.9352
37.6800 25.0894 0.9323
37.7000 25.1027 0.9439
37.7200 25.1160 0.9357
37.7400 25.1294 0.9239
37.7600 25.1427 0.9416
37.7800 25.1560 0.9280
37.8000 25.1693 0.9285
37.8200 25.1827 0.9359
37.8400 25.1960 0.9271
37.8600 25.2093 0.9300
37.8800 25.2227 0.9287
37.9000 25.2361 0.9204
37.9200 25.2495 0.9260
37.9400 25.2628 0.9267
37.9600 25.2761 0.9240
37.9800 25.2894 0.9219
38.0000 25.3028 0.9254
38.0200 25.3161 0.9211
38.0400 25.3294 0.9198
38.0600 25.3427 0.9231
38.0800 25.3561 0.9241
38.1000 25.3694 0.9166
38.1200 25.3827 0.9192
38.1400 25.3960 0.9256
38.1600 25.4093 0.9177
38.1800 25.4227 0.9155
38.2000 25.4360 0.9253
38.2200 25.4493 0.9160
38.2400 25.4627 0.9166
38.2600 25.4760 0.9239
38.2800 25.4894 0.9078
38.3000 25.5028 0.9137
38.3200 25.5161 0.9257
38.3400 25.5294 0.9110
38.3600 25.5428 0.9129
38.3800 25.5561 0.9219
38.4000 25.5694 0.9062
38.4200 25.5827 0.9195
38.4400 25.5960 0.9203
38.4600 25.6093 0.9066
38.4800 25.6227 0.9138
38.5000 25.6360 0.9177
38.5200 25.6493 0.9059
38.5400 25.6627 0.9122
38.5600 25.6761 0.9120
38.5800 25.6894 0.9057
38.6000 25.7027 0.9072
38.6200 25.7161 0.9099
38.6400 25.7294 0.9020
38.6600 25.7428 0.9019
38.6800 25.7561 0.9075
38.7000 25.7694 0.9034
38.7200 25.7827 0.8996
38.7400 25.7961 0.9030
38.7600 25.8094 0.8966
38.7800 25.8227 0.8937
38.8000 25.8361 0.9032
38.8200 25.8494 0.8921
38.8400 25.8627 0.8917
38.8600 25.8760 0.9007
38.8800 25.8893 0.8868
38.9000 25.9027 0.8875
38.9200 25.9160 0.8998
38.9400 25.9293 0.8823
38.9600 25.9427 0.8887
38.9800 25.9560 0.8945
39.0000 25.9694 0.8846
39.0200 25.9828 0.8855
39.0400 25.9961 0.8935
39.0600 26.0094 0.8848
39.0800 26.0227 0.8793
39.1000 26.0361 0.8864
39.1200 26.0494 0.8881
39.1400 26.0627 0.8806
39.1600 26.0760 0.8891
39.1800 26.0894 0.8823
39.2000 26.1027 0.8790
39.2200 26.1160 0.8875
39.2400 26.1293 0.8793
39.2600 26.1427 0.8759
39.2800 26.1560 0.8898
39.3000 26.1693 0.8786
39.3200 26.1827 0.8689
39.3400 26.1961 0.8900
39.3600 26.2094 0.8691
39.3800 26.2228 0.8655
39.4000 26.2361 0.8878
39.4200 26.2494 0.8713
39.4400 26.2628 0.8656
39.4600 26.2761 0.8814
39.4800 26.2894 0.8617
39.5000 26.3027 0.8651
39.5200 26.3160 0.8840
39.5400 26.3294 0.8635
39.5600 26.3427 0.8606
39.5800 26.3560 0.8803
39.6000 26.3693 0.8566
39.6200 26.3827 0.8628
39.6400 26.3961 0.8734
39.6600 26.4094 0.8588
39.6800 26.4227 0.8608
39.7000 26.4360 0.8711
39.7200 26.4494 0.8615
39.7400 26.4628 0.8571
39.7600 26.4761 0.8620
39.7800 26.4894 0.8656
39.8000 26.5028 0.8586
39.8200 26.5161 0.8607
39.8400 26.5295 0.8569
39.8600 26.5427 0.8596
39.8800 26.5561 0.8594
39.9000 26.5694 0.8616
39.9200 26.5827 0.8546
39.9400 26.5960 0.8540
39.9600 26.6093 0.8677
39.9800 26.6226 0.8477
40.0000 26.6360 0.8508
40.0200 26.6493 0.8643
40.0400 26.6627 0.8440
40.0600 26.6761 0.8460
40.0800 26.6894 0.8658
40.1000 26.7028 0.8366
40.1200 26.7161 0.8466
40.1400 26.7294 0.8637
40.1600 26.7427 0.8359
40.1800 26.7561 0.8444
40.2000 26.7694 0.8615
40.2200 26.7827 0.8328
40.2400 26.7960 0.8453
40.2600 26.8094 0.8556
40.2800 26.8227 0.8331
40.3000 26.8360 0.8404
40.3200 26.8494 0.8538
40.3400 26.8627 0.8253
40.3600 26.8760 0.8379
40.3800 26.8893 0.8547
40.4000 26.9027 0.8229
40.4200 26.9160 0.8380
40.4400 26.9294 0.8461
40.4600 26.9428 0.8198
40.4800 26.9561 0.8398
40.5000 26.9694 0.8461
40.5200 26.9827 0.8187
40.5400 26.9961 0.8354
40.5600 27.0094 0.8402
40.5800 27.0227 0.8174
40.6000 27.0360 0.8332
40.6200 27.0494 0.8394
40.6400 27.0627 0.8116
40.6600 27.0760 0.8280
40.6800 27.0893 0.8417
40.7000 27.1027 0.8093
40.7200 27.1160 0.8251
40.7400 27.1294 0.8381
40.7600 27.1427 0.7999
40.7800 27.1560 0.8234
40.8000 27.1694 0.8381
40.8200 27.1827 0.8011
40.8400 27.1961 0.8179
40.8600 27.2094 0.8379
40.8800 27.2227 0.7966
40.9000 27.2361 0.8224
40.9200 27.2494 0.8306
40.9400 27.2627 0.7949
40.9600 27.2761 0.8225
40.9800 27.2894 0.8237
41.0000 27.3028 0.7984
41.0200 27.3161 0.8215
41.0400 27.3294 0.8211
41.0600 27.3427 0.7974
41.0800 27.3560 0.8195
41.1000 27.3693 0.8166
41.1200 27.3827 0.7979
41.1400 27.3960 0.8187
41.1600 27.4094 0.8153
41.1800 27.4228 0.7967
41.2000 27.4361 0.8202
41.2200 27.4494 0.8124
41.2400 27.4628 0.8007
41.2600 27.4761 0.8136
41.2800 27.4894 0.8099
41.3000 27.5027 0.8010
41.3200 27.5160 0.8110
41.3400 27.5294 0.8106
41.3600 27.5427 0.7983
41.3800 27.5560 0.8050
41.4000 27.5693 0.8110
41.4200 27.5826 0.7989
41.4400 27.5960 0.7991
41.4600 27.6093 0.8055
41.4800 27.6227 0.8014
41.5000 27.6360 0.8001
41.5200 27.6494 0.8050
41.5400 27.6628 0.7983
41.5600 27.6761 0.7962
41.5800 27.6894 0.8113
41.6000 27.7028 0.7923
41.6200 27.7161 0.7954
41.6400 27.7294 0.8074
41.6600 27.7427 0.7909
41.6800 27.7560 0.7932
41.7000 27.7694 0.8046
41.7200 27.7827 0.7864
41.7400 27.7960 0.7938
41.7600 27.8093 0.8006
41.7800 27.8227 0.7835
41.8000 27.8360 0.7941
41.8200 27.8494 0.8006
41.8400 27.8627 0.7861
41.8600 27.8760 0.7949
41.8800 27.8894 0.7938
41.9000 27.9028 0.7903
41.9200 27.9161 0.7914
41.9400 27.9294 0.7943
41.9600 27.9428 0.7925
41.9800 27.9561 0.7924
42.0000 27.9694 0.7898
42.0200 27.9827 0.7925
42.0400 27.9960 0.7871
42.0600 28.0094 0.7922
42.0800 28.0227 0.7923
42.1000 28.0360 0.7901
42.1200 28.0493 0.7853
42.1400 28.0626 0.7884
42.1600 28.0760 0.7868
42.1800 28.0894 0.7832
42.2000 28.1027 0.7900
42.2200 28.1160 0.7837
42.2400 28.1294 0.7855
42.2600 28.1428 0.7840
42.2800 28.1561 0.7782
42.3000 28.1694 0.7877
42.3200 28.1828 0.7823
42.3400 28.1961 0.7725
42.3600 28.2094 0.7854
42.3800 28.2227 0.7741
42.4000 28.2360 0.7751
42.4200 28.2493 0.7822
42.4400 28.2627 0.7775
42.4600 28.2760 0.7715
42.4800 28.2894 0.7766
42.5000 28.3027 0.7718
42.5200 28.3160 0.7732
42.5400 28.3294 0.7754
42.5600 28.3427 0.7684
42.5800 28.3560 0.7694
42.6000 28.3694 0.7727
42.6200 28.3828 0.7646
42.6400 28.3961 0.7629
42.6600 28.4094 0.7672
42.6800 28.4228 0.7658
42.7000 28.4361 0.7573
42.7200 28.4495 0.7598
42.7400 28.4628 0.7636
42.7600 28.4761 0.7572
42.7800 28.4894 0.7594
42.8000 28.5027 0.7555
42.8200 28.5160 0.7547
42.8400 28.5293 0.7541
42.8600 28.5427 0.7564
42.8800 28.5560 0.7503
42.9000 28.5694 0.7505
42.9200 28.5827 0.7519
42.9400 28.5960 0.7492
42.9600 28.6094 0.7466
42.9800 28.6228 0.7492
43.0000 28.6361 0.7425
43.0200 28.6494 0.7486
43.0400 28.6627 0.7402
43.0600 28.6761 0.7440
43.0800 28.6894 0.7411
43.1000 28.7027 0.7374
43.1200 28.7161 0.7499
43.1400 28.7294 0.7375
43.1600 28.7427 0.7401
43.1800 28.7561 0.7382
43.2000 28.7693 0.7398
43.2200 28.7826 0.7394
43.2400 28.7960 0.7379
43.2600 28.8093 0.7330
43.2800 28.8226 0.7344
43.3000 28.8360 0.7370
43.3200 28.8494 0.7292
43.3400 28.8628 0.7321
43.3600 28.8762 0.7416
43.3800 28.8895 0.7318
43.4000 28.9028 0.7364
43.4200 28.9161 0.7348
43.4400 28.9295 0.7343
43.4600 28.9427 0.7351
43.4800 28.9560 0.7370
43.5000 28.9693 0.7289
43.5200 28.9827 0.7393
43.5400 28.9960 0.7348
43.5600 29.0093 0.7253
43.5800 29.0227 0.7418
43.6000 29.0360 0.7342
43.6200 29.0494 0.7261
43.6400 29.0627 0.7369
43.6600 29.0761 0.7309
43.6800 29.0894 0.7291
43.7000 29.1028 0.7372
43.7200 29.1161 0.7289
43.7400 29.1294 0.7253
43.7600 29.1427 0.7394
43.7800 29.1561 0.7293
43.8000 29.1694 0.7225
43.8200 29.1827 0.7400
43.8400 29.1960 0.7277
43.8600 29.2093 0.7249
43.8800 29.2227 0.7372
43.9000 29.2360 0.7266
43.9200 29.2494 0.7227
43.9400 29.2627 0.7367
43.9600 29.2760 0.7249
43.9800 29.2894 0.7205
44.0000 29.3027 0.7324
44.0200 29.3160 0.7249
44.0400 29.3294 0.7218
44.0600 29.3428 0.7346
44.0800 29.3561 0.7189
44.1000 29.3694 0.7178
44.1200 29.3827 0.7275
44.1400 29.3961 0.7210
44.1600 29.4095 0.7196
44.1800 29.4228 0.7248
44.2000 29.4360 0.7101
44.2200 29.4494 0.7182
44.2400 29.4627 0.7253
44.2600 29.4760 0.7068
44.2800 29.4893 0.7147
44.3000 29.5026 0.7208
44.3200 29.5160 0.7056
44.3400 29.5293 0.7113
44.3600 29.5427 0.7179
44.3800 29.5560 0.7020
44.4000 29.5694 0.7118
44.4200 29.5828 0.7105
44.4400 29.5961 0.6999
44.4600 29.6094 0.7044
44.4800 29.6228 0.7089
44.5000 29.6361 0.6954
44.5200 29.6494 0.7045
44.5400 29.6627 0.7014
44.5600 29.6760 0.6977
44.5800 29.6894 0.7010
44.6000 29.7027 0.6969
44.6200 29.7161 0.6950
44.6400 29.7294 0.6962
44.6600 29.7427 0.6889
44.6800 29.7560 0.6997
44.7000 29.7694 0.6922
44.7200 29.7827 0.6846
44.7400 29.7960 0.7006
44.7600 29.8094 0.6905
44.7800 29.8227 0.6765
44.8000 29.8361 0.6946
44.8200 29.8494 0.6889
44.8400 29.8627 0.6810
44.8600 29.8761 0.6913
44.8800 29.8895 0.6772
44.9000 29.9028 0.6805
44.9200 29.9161 0.6881
44.9400 29.9294 0.6740
44.9600 29.9427 0.6784
44.9800 29.9561 0.6873
45.0000 29.9694 0.6672
45.0200 29.9827 0.6789
45.0400 29.9960 0.6839
45.0600 30.0094 0.6667
45.0800 30.0227 0.6796
45.1000 30.0360 0.6810
45.1200 30.0494 0.6573
45.1400 30.0628 0.6778
45.1600 30.0761 0.6734
45.1800 30.0894 0.6609
45.2000 30.1027 0.6762
45.2200 30.1161 0.6712
45.2400 30.1294 0.6530
45.2600 30.1427 0.6716
45.2800 30.1560 0.6685
45.3000 30.1694 0.6562
45.3200 30.1827 0.6761
45.3400 30.1960 0.6645
45.3600 30.2094 0.6534
45.3800 30.2227 0.6723
45.4000 30.2360 0.6626
45.4200 30.2493 0.6506
45.4400 30.2627 0.6712
45.4600 30.2760 0.6533
45.4800 30.2894 0.6497
45.5000 30.3028 0.6660
45.5200 30.3161 0.6568
45.5400 30.3295 0.6498
45.5600 30.3428 0.6638
45.5800 30.3561 0.6523
45.6000 30.3694 0.6482
45.6200 30.3828 0.6573
45.6400 30.3960 0.6518
45.6600 30.4093 0.6462
45.6800 30.4227 0.6584
45.7000 30.4360 0.6432
45.7200 30.4493 0.6444
45.7400 30.4627 0.6515
45.7600 30.4760 0.6503
45.7800 30.4894 0.6406
45.8000 30.5027 0.6463
45.8200 30.5161 0.6461
45.8400 30.5294 0.6398
45.8600 30.5427 0.6426
45.8800 30.5561 0.6428
45.9000 30.5694 0.6422
45.9200 30.5827 0.6428
45.9400 30.5961 0.6459
45.9600 30.6094 0.6375
45.9800 30.6228 0.6418
46.0000 30.6361 0.6494
46.0200 30.6494 0.6311
46.0400 30.6628 0.6375
46.0600 30.6761 0.6518
46.0800 30.6894 0.6254
46.1000 30.7027 0.6370
46.1200 30.7160 0.6502
46.1400 30.7294 0.6252
46.1600 30.7427 0.6299
46.1800 30.7560 0.6491
46.2000 30.7693 0.6188
46.2200 30.7827 0.6339
46.2400 30.7961 0.6443
46.2600 30.8094 0.6125
46.2800 30.8227 0.6326
46.3000 30.8361 0.6419
46.3200 30.8494 0.6085
46.3400 30.8628 0.6335
46.3600 30.8761 0.6375
46.3800 30.8894 0.6104
46.4000 30.9028 0.6334
46.4200 30.9161 0.6319
46.4400 30.9294 0.6085
46.4600 30.9427 0.6299
46.4800 30.9560 0.6276
46.5000 30.9693 0.6074
46.5200 30.9827 0.6285
46.5400 30.9960 0.6235
46.5600 31.0094 0.6104
46.5800 31.0227 0.6233
46.6000 31.0361 0.6183
46.6200 31.0494 0.6088
46.6400 31.0627 0.6189
46.6600 31.0761 0.6150
46.6800 31.0894 0.6119
46.7000 31.1028 0.6122
46.7200 31.1161 0.6182
46.7400 31.1294 0.6107
46.7600 31.1427 0.6145
46.7800 31.1561 0.6141
46.8000 31.1694 0.6156
46.8200 31.1827 0.6065
46.8400 31.1960 0.6170
46.8600 31.2094 0.6116
46.8800 31.2227 0.6005
46.9000 31.2360 0.6180
46.9200 31.2494 0.6097
46.9400 31.2627 0.6015
46.9600 31.2761 0.6161
46.9800 31.2894 0.6057
47.0000 31.3027 0.6048
47.0200 31.3161 0.6151
47.0400 31.3294 0.6050
47.0600 31.3428 0.6059
47.0800 31.3561 0.6142
47.1000 31.3694 0.6019
47.1200 31.3827 0.6046
47.1400 31.3961 0.6126
47.1600 31.4094 0.5958
47.1800 31.4227 0.6079
47.2000 31.4360 0.6124
47.2200 31.4493 0.5943
47.2400 31.4627 0.6050
47.2600 31.4760 0.6090
47.2800 31.4894 0.5930
47.3000 31.5027 0.6063
47.3200 31.5161 0.6022
47.3400 31.5294 0.5952
47.3600 31.5427 0.6013
47.3800 31.5561 0.5990
47.4000 31.5694 0.5905
47.4200 31.5828 0.6035
47.4400 31.5961 0.5991
47.4600 31.6094 0.5895
47.4800 31.6227 0.5982
47.5000 31.6360 0.5980
47.5200 31.6494 0.5889
47.5400 31.6627 0.5954
47.5600 31.6760 0.5945
47.5800 31.6894 0.5901
47.6000 31.7027 0.5895
47.6200 31.7160 0.5944
47.6400 31.7294 0.5912
47.6600 31.7427 0.5908
47.6800 31.7561 0.5915
47.7000 31.7694 0.5852
47.7200 31.7828 0.5913
47.7400 31.7961 0.5903
47.7600 31.8094 0.5848
47.7800 31.8228 0.5838
47.8000 31.8361 0.5916
47.8200 31.8494 0.5797
47.8400 31.8627 0.5852
47.8600 31.8760 0.5843
47.8800 31.8894 0.5817
47.9000 31.9027 0.5825
47.9200 31.9160 0.5816
47.9400 31.9294 0.5804
47.9600 31.9427 0.5795
47.9800 31.9560 0.5789
48.0000 31.9693 0.5806
48.0200 31.9827 0.5758
48.0400 31.9961 0.5758
48.0600 32.0094 0.5760
48.0800 32.0227 0.5713
48.1000 32.0360 0.5775
48.1200 32.0494 0.5734
48.1400 32.0627 0.5709
48.1600 32.0761 0.5721
48.1800 32.0894 0.5712
48.2000 32.1027 0.5727
48.2200 32.1161 0.5675
48.2400 32.1294 0.5677
48.2600 32.1427 0.5716
48.2800 32.1560 0.5590
48.3000 32.1693 0.5674
48.3200 32.1827 0.5728
48.3400 32.1960 0.5665
48.3600 32.2093 0.5555
48.3800 32.2227 0.5703
48.4000 32.2361 0.5574
48.4200 32.2495 0.5562
48.4400 32.2628 0.5691
48.4600 32.2761 0.5608
48.4800 32.2895 0.5454
48.5000 32.3028 0.5689
48.5200 32.3161 0.5631
48.5400 32.3294 0.5412
48.5600 32.3427 0.5562
48.5800 32.3560 0.5714
48.6000 32.3694 0.5428
48.6200 32.3827 0.5447
48.6400 32.3960 0.5661
48.6600 32.4093 0.5460
48.6800 32.4227 0.5429
48.7000 32.4360 0.5642
48.7200 32.4493 0.5526
48.7400 32.4627 0.5353
48.7600 32.4761 0.5592
48.7800 32.4895 0.5511
48.8000 32.5028 0.5376
48.8200 32.5161 0.5607
48.8400 32.5295 0.5522
48.8600 32.5428 0.5300
48.8800 32.5561 0.5630
48.9000 32.5694 0.5520
48.9200 32.5827 0.5337
48.9400 32.5960 0.5563
48.9600 32.6094 0.5463
48.9800 32.6227 0.5346
49.0000 32.6360 0.5581
49.0200 32.6493 0.5401
49.0400 32.6627 0.5401
49.0600 32.6760 0.5491
49.0800 32.6894 0.5412
49.1000 32.7027 0.5417
49.1200 32.7161 0.5469
49.1400 32.7294 0.5339
49.1600 32.7428 0.5436
49.1800 32.7561 0.5410
49.2000 32.7694 0.5285
49.2200 32.7828 0.5486
49.2400 32.7961 0.5357
49.2600 32.8094 0.5231
49.2800 32.8227 0.5465
49.3000 32.8361 0.5375
49.3200 32.8494 0.5239
49.3400 32.8627 0.5405
49.3600 32.8760 0.5331
49.3800 32.8893 0.5278
49.4000 32.9027 0.5349
49.4200 32.9160 0.5271
49.4400 32.9294 0.5237
49.4600 32.9427 0.5376
49.4800 32.9561 0.5221
49.5000 32.9695 0.5220
49.5200 32.9828 0.5263
49.5400 32.9961 0.5175
49.5600 33.0094 0.5261
49.5800 33.0228 0.5215
49.6000 33.0361 0.5149
49.6200 33.0494 0.5309
49.6400 33.0627 0.5180
49.6600 33.0760 0.5147
49.6800 33.0894 0.5280
49.7000 33.1027 0.5125
49.7200 33.1160 0.5120
49.7400 33.1293 0.5306
49.7600 33.1427 0.5084
49.7800 33.1560 0.5074
49.8000 33.1694 0.5312
49.8200 33.1827 0.5055
49.8400 33.1961 0.5052
49.8600 33.2094 0.5314
49.8800 33.2228 0.5047
49.9000 33.2361 0.5036
49.9200 33.2494 0.5308
49.9400 33.2628 0.5048
49.9600 33.2761 0.4986
49.9800 33.2894 0.5247
50.0000 33.3027 0.5014
50.0200 33.3161 0.4994
50.0400 33.3294 0.5306
50.0600 33.3427 0.4896
50.0800 33.3560 0.5019
50.1000 33.3693 0.5194
50.1200 33.3827 0.4940
50.1400 33.3960 0.4963
50.1600 33.4094 0.5142
50.1800 33.4227 0.4925
50.2000 33.4361 0.4945
50.2200 33.4494 0.5117
50.2400 33.4627 0.4941
50.2600 33.4761 0.4940
50.2800 33.4894 0.5055
50.3000 33.5028 0.4903
50.3200 33.5161 0.4900
50.3400 33.5294 0.5021
50.3600 33.5427 0.4936
50.3800 33.5561 0.4856
50.4000 33.5694 0.4930
50.4200 33.5827 0.4937
50.4400 33.5960 0.4838
50.4600 33.6093 0.4953
50.4800 33.6227 0.4851
50.5000 33.6360 0.4787
50.5200 33.6493 0.4899
50.5400 33.6627 0.4853
50.5600 33.6761 0.4732
50.5800 33.6894 0.4897
50.6000 33.7028 0.4827
50.6200 33.7161 0.4753
50.6400 33.7294 0.4858
50.6600 33.7428 0.4815
50.6800 33.7561 0.4732
50.7000 33.7694 0.4856
50.7200 33.7827 0.4763
50.7400 33.7960 0.4759
50.7600 33.8094 0.4770
50.7800 33.8227 0.4744
50.8000 33.8360 0.4751
50.8200 33.8494 0.4746
50.8400 33.8627 0.4754
50.8600 33.8761 0.4705
50.8800 33.8894 0.4725
50.9000 33.9027 0.4704
50.9200 33.9161 0.4649
50.9400 33.9295 0.4681
50.9600 33.9428 0.4720
50.9800 33.9561 0.4603
51.0000 33.9694 0.4607
51.0200 33.9827 0.4735
51.0400 33.9961 0.4583
51.0600 34.0094 0.4584
51.0800 34.0227 0.4729
51.1000 34.0360 0.4587
51.1200 34.0494 0.4579
51.1400 34.0627 0.4658
51.1600 34.0760 0.4632
51.1800 34.0893 0.4579
51.2000 34.1027 0.4658
51.2200 34.1160 0.4609
51.2400 34.1294 0.4585
51.2600 34.1427 0.4614
51.2800 34.1561 0.4629
51.3000 34.1694 0.4561
51.3200 34.1828 0.4654
51.3400 34.1961 0.4597
51.3600 34.2094 0.4528
51.3800 34.2228 0.4630
51.4000 34.2361 0.4606
51.4200 34.2494 0.4528
51.4400 34.2627 0.4608
51.4600 34.2761 0.4576
51.4800 34.2894 0.4467
51.5000 34.3027 0.4627
51.5200 34.3160 0.4570
51.5400 34.3293 0.4406
51.5600 34.3427 0.4594
51.5800 34.3560 0.4574
51.6000 34.3694 0.4351
51.6200 34.3827 0.4609
51.6400 34.3960 0.4544
51.6600 34.4094 0.4348
51.6800 34.4228 0.4520
51.7000 34.4361 0.4581
51.7200 34.4494 0.4284
51.7400 34.4628 0.4535
51.7600 34.4761 0.4520
51.7800 34.4894 0.4294
51.8000 34.5027 0.4532
51.8200 34.5160 0.4535
51.8400 34.5294 0.4277
51.8600 34.5427 0.4518
51.8800 34.5560 0.4429
51.9000 34.5693 0.4325
51.9200 34.5827 0.4481
51.9400 34.5960 0.4407
51.9600 34.6094 0.4289
51.9800 34.6227 0.4500
52.0000 34.6360 0.4320
52.0200 34.6494 0.4275
52.0400 34.6627 0.4465
52.0600 34.6760 0.4307
52.0800 34.6894 0.4270
52.1000 34.7028 0.4371
52.1200 34.7161 0.4323
52.1400 34.7294 0.4248
52.1600 34.7427 0.4328
52.1800 34.7560 0.4361
52.2000 34.7694 0.4257
52.2200 34.7827 0.4282
52.2400 34.7960 0.4331
52.2600 34.8093 0.4179
52.2800 34.8227 0.4229
52.3000 34.8360 0.4322
52.3200 34.8494 0.4184
52.3400 34.8627 0.4166
52.3600 34.8761 0.4361
52.3800 34.8895 0.4123
52.4000 34.9028 0.4195
52.4200 34.9161 0.4359
52.4400 34.9294 0.4104
52.4600 34.9427 0.4178
52.4800 34.9561 0.4321
52.5000 34.9694 0.4057
52.5200 34.9827 0.4243
52.5400 34.9960 0.4280
52.5600 35.0094 0.4027
52.5800 35.0227 0.4180
52.6000 35.0360 0.4275
52.6200 35.0493 0.4062
52.6400 35.0627 0.4187
52.6600 35.0760 0.4281
52.6800 35.0894 0.4015
52.7000 35.1027 0.4237
52.7200 35.1160 0.4228
52.7400 35.1294 0.4031
52.7600 35.1428 0.4170
52.7800 35.1561 0.4208
52.8000 35.1694 0.4033
52.8200 35.1828 0.4109
52.8400 35.1961 0.4195
52.8600 35.2094 0.4049
52.8800 35.2227 0.4091
52.9000 35.2360 0.4238
52.9200 35.2493 0.4004
52.9400 35.2627 0.4066
52.9600 35.2760 0.4165
52.9800 35.2893 0.3981
53.0000 35.3027 0.4085
53.0200 35.3161 0.4099
53.0400 35.3294 0.3947
53.0600 35.3428 0.4043
53.0800 35.3561 0.4105
53.1000 35.3695 0.3890
53.1200 35.3828 0.4028
53.1400 35.3961 0.4047
53.1600 35.4094 0.3875
53.1800 35.4227 0.3993
53.2000 35.4361 0.3978
53.2200 35.4494 0.3892
53.2400 35.4627 0.3971
53.2600 35.4760 0.3959
53.2800 35.4894 0.3885
53.3000 35.5027 0.3870
53.3200 35.5160 0.3902
53.3400 35.5293 0.3877
53.3600 35.5427 0.3892
53.3800 35.5560 0.3827
53.4000 35.5694 0.3832
53.4200 35.5827 0.3857
53.4400 35.5960 0.3836
53.4600 35.6094 0.3731
53.4800 35.6228 0.3844
53.5000 35.6361 0.3830
53.5200 35.6494 0.3766
53.5400 35.6627 0.3783
53.5600 35.6761 0.3791
53.5800 35.6894 0.3720
53.6000 35.7027 0.3754
53.6200 35.7161 0.3716
53.6400 35.7294 0.3749
53.6600 35.7427 0.3760
53.6800 35.7560 0.3649
53.7000 35.7693 0.3727
53.7200 35.7826 0.3735
53.7400 35.7960 0.3632
53.7600 35.8094 0.3694
53.7800 35.8227 0.3677
53.8000 35.8361 0.3575
53.8200 35.8494 0.3670
53.8400 35.8628 0.3605
53.8600 35.8761 0.3609
53.8800 35.8894 0.3662
53.9000 35.9028 0.3576
53.9200 35.9161 0.3569
53.9400 35.9294 0.3667
53.9600 35.9427 0.3513
53.9800 35.9560 0.3631
54.0000 35.9694 0.3644
54.0200 35.9827 0.3480
54.0400 35.9960 0.3519
54.0600 36.0093 0.3624
54.0800 36.0227 0.3433
54.1000 36.0361 0.3574
54.1200 36.0494 0.3552
54.1400 36.0627 0.3367
54.1600 36.0761 0.3554
54.1800 36.0894 0.3548
54.2000 36.1028 0.3348
54.2200 36.1161 0.3532
54.2400 36.1294 0.3469
54.2600 36.1428 0.3351
54.2800 36.1561 0.3518
54.3000 36.1695 0.3426
54.3200 36.1827 0.3354
54.3400 36.1960 0.3492
54.3600 36.2094 0.3381
54.3800 36.2227 0.3374
54.4000 36.2360 0.3459
54.4200 36.2493 0.3308
54.4400 36.2627 0.3348
54.4600 36.2760 0.3384
54.4800 36.2894 0.3305
54.5000 36.3027 0.3310
54.5200 36.3161 0.3384
54.5400 36.3294 0.3215
54.5600 36.3428 0.3293
54.5800 36.3561 0.3296
54.6000 36.3694 0.3244
54.6200 36.3828 0.3243
54.6400 36.3961 0.3247
54.6600 36.4094 0.3191
54.6800 36.4227 0.3242
54.7000 36.4360 0.3208
54.7200 36.4494 0.3214
54.7400 36.4627 0.3194
54.7600 36.4760 0.3154
54.7800 36.4893 0.3183
54.8000 36.5027 0.3162
54.8200 36.5160 0.3156
54.8400 36.5294 0.3161
54.8600 36.5427 0.3101
54.8800 36.5560 0.3096
54.9000 36.5694 0.3156
54.9200 36.5828 0.3077
54.9400 36.5961 0.3051
54.9600 36.6094 0.3099
54.9800 36.6227 0.3083
55.0000 36.6361 0.3021
55.0200 36.6494 0.3072
55.0400 36.6627 0.3000
55.0600 36.6760 0.3039
55.0800 36.6893 0.3037
55.1000 36.7027 0.2999
55.1200 36.7160 0.2937
55.1400 36.7293 0.3021
55.1600 36.7426 0.2943
55.1800 36.7560 0.2901
55.2000 36.7694 0.3063
55.2200 36.7827 0.2909
55.2400 36.7960 0.2818
55.2600 36.8094 0.3057
55.2800 36.8227 0.2880
55.3000 36.8361 0.2830
55.3200 36.8494 0.3058
55.3400 36.8627 0.2862
55.3600 36.8761 0.2828
55.3800 36.8894 0.2996
55.4000 36.9027 0.2801
55.4200 36.9161 0.2860
55.4400 36.9294 0.3040
55.4600 36.9428 0.2732
55.4800 36.9561 0.2870
55.5000 36.9694 0.3012
55.5200 36.9827 0.2780
55.5400 36.9960 0.2859
55.5600 37.0093 0.3006
55.5800 37.0227 0.2727
55.6000 37.0360 0.2829
55.6200 37.0494 0.2942
55.6400 37.0628 0.2760
55.6600 37.0761 0.2812
55.6800 37.0895 0.2862
55.7000 37.1028 0.2765
55.7200 37.1161 0.2806
55.7400 37.1295 0.2854
55.7600 37.1428 0.2741
55.7800 37.1560 0.2694
55.8000 37.1694 0.2815
55.8200 37.1827 0.2668
55.8400 37.1960 0.2689
55.8600 37.2093 0.2761
55.8800 37.2226 0.2681
55.9000 37.2360 0.2626
55.9200 37.2493 0.2724
55.9400 37.2627 0.2610
55.9600 37.2760 0.2572
55.9800 37.2894 0.2720
56.0000 37.3028 0.2607
56.0200 37.3161 0.2535
56.0400 37.3294 0.2629
56.0600 37.3428 0.2595
56.0800 37.3561 0.2465
56.1000 37.3695 0.2614
56.1200 37.3828 0.2520
56.1400 37.3960 0.2463
56.1600 37.4094 0.2578
56.1800 37.4227 0.2455
56.2000 37.4360 0.2375
56.2200 37.4493 0.2574
56.2400 37.4627 0.2406
56.2600 37.4760 0.2339
56.2800 37.4894 0.2491
56.3000 37.5027 0.2354
56.3200 37.5160 0.2273
56.3400 37.5294 0.2478
56.3600 37.5428 0.2296
56.3800 37.5561 0.2233
56.4000 37.5694 0.2444
56.4200 37.5827 0.2287
56.4400 37.5961 0.2269
56.4600 37.6094 0.2427
56.4800 37.6227 0.2190
56.5000 37.6361 0.2265
56.5200 37.6494 0.2405
56.5400 37.6627 0.2162
56.5600 37.6761 0.2207
56.5800 37.6893 0.2366
56.6000 37.7026 0.2142
56.6200 37.7160 0.2165
56.6400 37.7294 0.2373
56.6600 37.7427 0.2082
56.6800 37.7560 0.2182
56.7000 37.7694 0.2307
56.7200 37.7828 0.2071
56.7400 37.7961 0.2145
56.7600 37.8094 0.2259
56.7800 37.8228 0.2037
56.8000 37.8361 0.2202
56.8200 37.8494 0.2189
56.8400 37.8627 0.2022
56.8600 37.8760 0.2190
56.8800 37.8893 0.2202
56.9000 37.9027 0.1939
56.9200 37.9160 0.2112
56.9400 37.9294 0.2154
56.9600 37.9427 0.1991
56.9800 37.9560 0.2080
57.0000 37.9694 0.2086
57.0200 37.9827 0.1981
57.0400 37.9960 0.2017
57.0600 38.0094 0.2051
57.0800 38.0228 0.1966
57.1000 38.0361 0.1966
57.1200 38.0494 0.2008
57.1400 38.0628 0.1986
57.1600 38.0761 0.1984
57.1800 38.0895 0.1990
57.2000 38.1028 0.1925
57.2200 38.1161 0.1922
57.2400 38.1294 0.1994
57.2600 38.1427 0.1916
57.2800 38.1560 0.1844
57.3000 38.1693 0.1990
57.3200 38.1826 0.1841
57.3400 38.1960 0.1823
57.3600 38.2093 0.1954
57.3800 38.2227 0.1884
57.4000 38.2360 0.1803
57.4200 38.2494 0.1914
57.4400 38.2628 0.1791
57.4600 38.2761 0.1791
57.4800 38.2894 0.1852
57.5000 38.3027 0.1794
57.5200 38.3161 0.1779
57.5400 38.3294 0.1809
57.5600 38.3428 0.1815
57.5800 38.3561 0.1751
57.6000 38.3694 0.1814
57.6200 38.3827 0.1695
57.6400 38.3961 0.1719
57.6600 38.4094 0.1763
57.6800 38.4226 0.1686
57.7000 38.4360 0.1717
57.7200 38.4493 0.1732
57.7400 38.4626 0.1670
57.7600 38.4760 0.1711
57.7800 38.4894 0.1643
57.8000 38.5028 0.1689
57.8200 38.5161 0.1669
57.8400 38.5295 0.1618
57.8600 38.5428 0.1636
57.8800 38.5561 0.1724
57.9000 38.5695 0.1543
57.9200 38.5828 0.1625
57.9400 38.5960 0.1735
57.9600 38.6093 0.1525
57.9800 38.6227 0.1549
58.0000 38.6360 0.1714
58.0200 38.6493 0.1489
58.0400 38.6627 0.1518
58.0600 38.6760 0.1658
58.0800 38.6894 0.1450
58.1000 38.7027 0.1488
58.1200 38.7161 0.1649
58.1400 38.7294 0.1341
58.1600 38.7428 0.1484
58.1800 38.7561 0.1600
58.2000 38.7694 0.1256
58.2200 38.7827 0.1467
58.2400 38.7961 0.1507
58.2600 38.8094 0.1222
58.2800 38.8227 0.1415
58.3000 38.8360 0.1481
58.3200 38.8494 0.1146
58.3400 38.8627 0.1412
58.3600 38.8760 0.1396
58.3800 38.8894 0.1106
58.4000 38.9027 0.1378
58.4200 38.9160 0.1317
58.4400 38.9294 0.1045
58.4600 38.9427 0.1331
58.4800 38.9561 0.1225
58.5000 38.9694 0.1045
58.5200 38.9828 0.1289
58.5400 38.9961 0.1193
58.5600 39.0094 0.0966
58.5800 39.0227 0.1233
58.6000 39.0361 0.1154
58.6200 39.0494 0.0985
58.6400 39.0628 0.1171
58.6600 39.0761 0.1115
58.6800 39.0894 0.0992
58.7000 39.1027 0.1157
58.7200 39.1160 0.1028
58.7400 39.1293 0.0967
58.7600 39.1426 0.1164
58.7800 39.1560 0.0961
58.8000 39.1693 0.0886
58.8200 39.1827 0.1098
58.8400 39.1960 0.0951
58.8600 39.2094 0.0861
58.8800 39.2228 0.1100
58.9000 39.2361 0.0874
58.9200 39.2495 0.0816
58.9400 39.2628 0.1046
58.9600 39.2761 0.0813
58.9800 39.2894 0.0787
59.0000 39.3027 0.0986
59.0200 39.3160 0.0780
59.0400 39.3293 0.0785
59.0600 39.3427 0.0922
59.0800 39.3561 0.0767
59.1000 39.3694 0.0673
59.1200 39.3827 0.0854
59.1400 39.3960 0.0742
59.1600 39.4094 0.0650
59.1800 39.4227 0.0806
59.2000 39.4360 0.0755
59.2200 39.4494 0.0586
59.2400 39.4627 0.0733
59.2600 39.4761 0.0698
59.2800 39.4894 0.0532
59.3000 39.5027 0.0703
59.3200 39.5161 0.0655
59.3400 39.5294 0.0500
59.3600 39.5428 0.0647
59.3800 39.5561 0.0665
59.4000 39.5694 0.0404
59.4200 39.5827 0.0618
59.4400 39.5961 0.0637
59.4600 39.6094 0.0368
59.4800 39.6227 0.0576
59.5000 39.6360 0.0627
59.5200 39.6494 0.0362
59.5400 39.6627 0.0578
59.5600 39.6760 0.0563
59.5800 39.6894 0.0429
59.6000 39.7028 0.0510
59.6200 39.7161 0.0584
59.6400 39.7295 0.0373
59.6600 39.7428 0.0539
59.6800 39.7561 0.0547
59.7000 39.7694 0.0334
59.7200 39.7828 0.0493
59.7400 39.7961 0.0562
59.7600 39.8094 0.0341
59.7800 39.8227 0.0485
59.8000 39.8361 0.0486
59.8200 39.8494 0.0302
59.8400 39.8627 0.0418
59.8600 39.8760 0.0417
59.8800 39.8893 0.0281
59.9000 39.9027 0.0339
59.9200 39.9160 0.0428
59.9400 39.9293 0.0170
59.9600 39.9427 0.0231
59.9800 39.9561 0.0323
60.0000 39.9694 0.0112
60.0200 39.9827 0.0148
60.0400 39.9961 0.0230
60.0470 40.0006 0.0007
