Raw Data
Time Displacement Force
(s) (mm) (N)
0.0000 0.0000 0.4117
0.0200 0.0001 0.4284
0.0400 0.0022 0.4909
0.0600 0.0101 0.4908
0.0800 0.0220 0.4109
0.1000 0.0345 0.4089
0.1200 0.0472 0.4557
0.1400 0.0606 0.4106
0.1600 0.0747 0.4097
0.1800 0.0889 0.4365
0.2000 0.1028 0.4057
0.2200 0.1163 0.4074
0.2400 0.1297 0.4386
0.2600 0.1430 0.4105
0.2800 0.1563 0.4183
0.3000 0.1697 0.4323
0.3200 0.1831 0.4119
0.3400 0.1964 0.4230
0.3600 0.2097 0.4301
0.3800 0.2231 0.4126
0.4000 0.2364 0.4195
0.4200 0.2497 0.4274
0.4400 0.2630 0.4214
0.4600 0.2764 0.4213
0.4800 0.2897 0.4215
0.5000 0.3031 0.4217
0.5200 0.3164 0.4213
0.5400 0.3297 0.4204
0.5600 0.3430 0.4140
0.5800 0.3564 0.4225
0.6000 0.3698 0.4132
0.6200 0.3831 0.4134
0.6400 0.3964 0.4208
0.6600 0.4098 0.4114
0.6800 0.4232 0.4110
0.7000 0.4365 0.4153
0.7200 0.4498 0.4086
0.7400 0.4631 0.4099
0.7600 0.4765 0.4137
0.7800 0.4898 0.4056
0.8000 0.5031 0.4062
0.8200 0.5164 0.4173
0.8400 0.5298 0.4040
0.8600 0.5431 0.4058
0.8800 0.5564 0.4160
0.9000 0.5697 0.4011
0.9200 0.5830 0.4048
0.9400 0.5964 0.4127
0.9600 0.6097 0.3990
0.9800 0.6230 0.4024
1.0000 0.6364 0.4093
1.0200 0.6498 0.3960
1.0400 0.6631 0.4014
1.0600 0.6765 0.4036
1.0800 0.6898 0.3923
1.1000 0.7031 0.3992
1.1200 0.7165 0.4052
1.1400 0.7298 0.3938
1.1600 0.7431 0.4019
1.1800 0.7564 0.3992
1.2000 0.7698 0.3889
1.2200 0.7831 0.3903
1.2400 0.7964 0.3980
1.2600 0.8097 0.3877
1.2800 0.8231 0.3977
1.3000 0.8364 0.3920
1.3200 0.8497 0.3887
1.3400 0.8631 0.3934
1.3600 0.8764 0.3906
1.3800 0.8898 0.3859
1.4000 0.9031 0.3940
1.4200 0.9165 0.3868
1.4400 0.9298 0.3835
1.4600 0.9431 0.3894
1.4800 0.9565 0.3874
1.5000 0.9698 0.3818
1.5200 0.9831 0.3915
1.5400 0.9964 0.3873
1.5600 1.0098 0.3790
1.5800 1.0231 0.3901
1.6000 1.0364 0.3863
1.6200 1.0497 0.3765
1.6400 1.0630 0.3863
1.6600 1.0764 0.3863
1.6800 1.0897 0.3771
1.7000 1.1031 0.3897
1.7200 1.1164 0.3780
1.7400 1.1298 0.3766
1.7600 1.1432 0.3893
1.7800 1.1565 0.3804
1.8000 1.1698 0.3753
1.8200 1.1831 0.3870
1.8400 1.1965 0.3759
1.8600 1.2098 0.3761
1.8800 1.2231 0.3861
1.9000 1.2364 0.3761
1.9200 1.2498 0.3732
1.9400 1.2631 0.3816
1.9600 1.2764 0.3677
1.9800 1.2897 0.3778
2.0000 1.3030 0.3820
2.0200 1.3164 0.3628
2.0400 1.3297 0.3743
2.0600 1.3431 0.3771
2.0800 1.3564 0.3684
2.1000 1.3698 0.3693
2.1200 1.3832 0.3739
2.1400 1.3965 0.3693
2.1600 1.4098 0.3689
2.1800 1.4231 0.3739
2.2000 1.4365 0.3699
2.2200 1.4498 0.3660
2.2400 1.4631 0.3677
2.2600 1.4764 0.3705
2.2800 1.4897 0.3628
2.3000 1.5031 0.3668
2.3200 1.5164 0.3756
2.3400 1.5297 0.3579
2.3600 1.5430 0.3634
2.3800 1.5564 0.3679
2.4000 1.5698 0.3586
2.4200 1.5831 0.3662
2.4400 1.5964 0.3717
2.4600 1.6098 0.3539
2.4800 1.6231 0.3595
2.5000 1.6365 0.3653
2.5200 1.6498 0.3561
2.5400 1.6631 0.3623
2.5600 1.6764 0.3659
2.5800 1.6898 0.3476
2.6000 1.7031 0.3608
2.6200 1.7165 0.3684
2.6400 1.7298 0.3493
2.6600 1.7431 0.3584
2.6800 1.7565 0.3594
2.7000 1.7698 0.3479
2.7200 1.7831 0.3538
2.7400 1.7964 0.3584
2.7600 1.8097 0.3477
2.7800 1.8231 0.3534
2.8000 1.8364 0.3575
2.8200 1.8497 0.3471
2.8400 1.8631 0.3469
2.8600 1.8765 0.3565
2.8800 1.8898 0.3464
2.9000 1.9031 0.3468
2.9200 1.9165 0.3483
2.9400 1.9298 0.3501
2.9600 1.9431 0.3418
2.9800 1.9564 0.3518
3.0000 1.9698 0.3530
3.0200 1.9831 0.3393
3.0400 1.9964 0.3460
3.0600 2.0097 0.3491
3.0800 2.0230 0.3418
3.1000 2.0364 0.3540
3.1200 2.0497 0.3439
3.1400 2.0631 0.3310
3.1600 2.0764 0.3544
3.1800 2.0898 0.3455
3.2000 2.1032 0.3281
3.2200 2.1165 0.3529
3.2400 2.1298 0.3426
3.2600 2.1432 0.3350
3.2800 2.1565 0.3503
3.3000 2.1698 0.3339
3.3200 2.1831 0.3308
3.3400 2.1964 0.3541
3.3600 2.2097 0.3331
3.3800 2.2231 0.3269
3.4000 2.2364 0.3520
3.4200 2.2497 0.3309
3.4400 2.2630 0.3285
3.4600 2.2764 0.3490
3.4800 2.2898 0.3269
3.5000 2.3031 0.3305
3.5200 2.3164 0.3483
3.5400 2.3298 0.3236
3.5600 2.3431 0.3297
3.5800 2.3565 0.3421
3.6000 2.3698 0.3224
3.6200 2.3831 0.3234
3.6400 2.3965 0.3418
3.6600 2.4099 0.3182
3.6800 2.4232 0.3259
3.7000 2.4365 0.3382
3.7200 2.4498 0.3238
3.7400 2.4631 0.3279
3.7600 2.4764 0.3344
3.7800 2.4897 0.3243
3.8000 2.5030 0.3273
3.8200 2.5163 0.3298
3.8400 2.5297 0.3205
3.8600 2.5430 0.3228
3.8800 2.5564 0.3298
3.9000 2.5698 0.3280
3.9200 2.5831 0.3193
3.9400 2.5965 0.3230
3.9600 2.6098 0.3301
3.9800 2.6231 0.3214
4.0000 2.6365 0.3255
4.0200 2.6498 0.3260
4.0400 2.6631 0.3110
4.0600 2.6764 0.3264
4.0800 2.6898 0.3271
4.1000 2.7031 0.3113
4.1200 2.7164 0.3276
4.1400 2.7297 0.3222
4.1600 2.7431 0.3029
4.1800 2.7564 0.3339
4.2000 2.7697 0.3148
4.2200 2.7830 0.3053
4.2400 2.7964 0.3317
4.2600 2.8097 0.3112
4.2800 2.8231 0.3025
4.3000 2.8365 0.3370
4.3200 2.8498 0.3041
4.3400 2.8631 0.3049
4.3600 2.8765 0.3363
4.3800 2.8898 0.2984
4.4000 2.9032 0.3064
4.4200 2.9164 0.3376
4.4400 2.9297 0.2948
4.4600 2.9431 0.3032
4.4800 2.9564 0.3321
4.5000 2.9697 0.2909
4.5200 2.9831 0.3120
4.5400 2.9964 0.3272
4.5600 3.0098 0.2878
4.5800 3.0231 0.3092
4.6000 3.0364 0.3243
4.6200 3.0497 0.2867
4.6400 3.0631 0.3134
4.6600 3.0765 0.3180
4.6800 3.0898 0.2876
4.7000 3.1031 0.3096
4.7200 3.1164 0.3180
4.7400 3.1298 0.2897
4.7600 3.1432 0.3092
4.7800 3.1565 0.3100
4.8000 3.1698 0.2921
4.8200 3.1831 0.3062
4.8400 3.1965 0.3090
4.8600 3.2098 0.2927
4.8800 3.2231 0.3038
4.9000 3.2364 0.3076
4.9200 3.2497 0.2936
4.9400 3.2630 0.2948
4.9600 3.2764 0.3071
4.9800 3.2897 0.2935
5.0000 3.3031 0.2969
5.0200 3.3165 0.3053
5.0400 3.3299 0.2927
5.0600 3.3432 0.2954
5.0800 3.3565 0.3061
5.1000 3.3698 0.2903
5.1200 3.3832 0.2893
5.1400 3.3965 0.3077
5.1600 3.4097 0.2925
5.1800 3.4231 0.2891
5.2000 3.4364 0.3008
5.2200 3.4497 0.2936
5.2400 3.4630 0.2881
5.2600 3.4764 0.3048
5.2800 3.4897 0.2879
5.3000 3.5031 0.2837
5.3200 3.5164 0.3007
5.3400 3.5297 0.2899
5.3600 3.5431 0.2860
5.3800 3.5565 0.3012
5.4000 3.5698 0.2818
5.4200 3.5832 0.2858
5.4400 3.5965 0.2982
5.4600 3.6098 0.2847
5.4800 3.6232 0.2822
5.5000 3.6364 0.2971
5.5200 3.6497 0.2798
5.5400 3.6631 0.2827
5.5600 3.6764 0.2905
5.5800 3.6897 0.2826
5.6000 3.7030 0.2808
5.6200 3.7164 0.2843
5.6400 3.7297 0.2805
5.6600 3.7431 0.2764
5.6800 3.7564 0.2850
5.7000 3.7698 0.2810
5.7200 3.7831 0.2743
5.7400 3.7965 0.2824
5.7600 3.8098 0.2811
5.7800 3.8231 0.2756
5.8000 3.8365 0.2809
5.8200 3.8498 0.2779
5.8400 3.8632 0.2726
5.8600 3.8765 0.2796
5.8800 3.8898 0.2804
5.9000 3.9031 0.2697
5.9200 3.9165 0.2769
5.9400 3.9298 0.2718
5.9600 3.9431 0.2693
5.9800 3.9564 0.2727
6.0000 3.9697 0.2778
6.0200 3.9831 0.2642
6.0400 3.9964 0.2709
6.0600 4.0098 0.2764
6.0800 4.0231 0.2621
6.1000 4.0365 0.2685
6.1200 4.0498 0.2748
6.1400 4.0632 0.2611
6.1600 4.0765 0.2727
6.1800 4.0898 0.2688
6.2000 4.1031 0.2590
6.2200 4.1164 0.2725
6.2400 4.1297 0.2711
6.2600 4.1431 0.2607
6.2800 4.1564 0.2652
6.3000 4.1698 0.2721
6.3200 4.1831 0.2602
6.3400 4.1964 0.2688
6.3600 4.2097 0.2672
6.3800 4.2231 0.2581
6.4000 4.2364 0.2666
6.4200 4.2497 0.2675
6.4400 4.2631 0.2612
6.4600 4.2765 0.2652
6.4800 4.2898 0.2630
6.5000 4.3031 0.2660
6.5200 4.3165 0.2587
6.5400 4.3298 0.2672
6.5600 4.3432 0.2593
6.5800 4.3565 0.2647
6.6000 4.3698 0.2643
6.6200 4.3831 0.2579
6.6400 4.3964 0.2613
6.6600 4.4098 0.2596
6.6800 4.4231 0.2603
6.7000 4.4364 0.2596
6.7200 4.4497 0.2629
6.7400 4.4630 0.2559
6.7600 4.4764 0.2573
6.7800 4.4897 0.2638
6.8000 4.5031 0.2534
6.8200 4.5165 0.2555
6.8400 4.5298 0.2580
6.8600 4.5431 0.2507
6.8800 4.5564 0.2555
6.9000 4.5698 0.2592
6.9200 4.5831 0.2484
6.9400 4.5964 0.2515
6.9600 4.6098 0.2596
6.9800 4.6231 0.2448
7.0000 4.6364 0.2569
7.0200 4.6498 0.2514
7.0400 4.6630 0.2477
7.0600 4.6763 0.2536
7.0800 4.6897 0.2505
7.1000 4.7030 0.2457
7.1200 4.7164 0.2558
7.1400 4.7297 0.2492
7.1600 4.7431 0.2468
7.1800 4.7565 0.2508
7.2000 4.7699 0.2464
7.2200 4.7832 0.2425
7.2400 4.7965 0.2530
7.2600 4.8099 0.2393
7.2800 4.8232 0.2437
7.3000 4.8365 0.2505
7.3200 4.8497 0.2446
7.3400 4.8630 0.2478
7.3600 4.8764 0.2465
7.3800 4.8897 0.2375
7.4000 4.9030 0.2460
7.4200 4.9164 0.2425
7.4400 4.9298 0.2374
7.4600 4.9431 0.2539
7.4800 4.9564 0.2385
7.5000 4.9698 0.2364
7.5200 4.9831 0.2520
7.5400 4.9965 0.2346
7.5600 5.0098 0.2350
7.5800 5.0232 0.2504
7.6000 5.0365 0.2292
7.6200 5.0498 0.2411
7.6400 5.0632 0.2479
7.6600 5.0764 0.2288
7.6800 5.0897 0.2404
7.7000 5.1031 0.2486
7.7200 5.1164 0.2240
7.7400 5.1297 0.2404
7.7600 5.1430 0.2428
7.7800 5.1564 0.2236
7.8000 5.1697 0.2409
7.8200 5.1831 0.2354
7.8400 5.1964 0.2230
7.8600 5.2097 0.2425
7.8800 5.2231 0.2296
7.9000 5.2365 0.2272
7.9200 5.2498 0.2372
7.9400 5.2631 0.2266
7.9600 5.2764 0.2283
7.9800 5.2898 0.2376
8.0000 5.3032 0.2218
8.0200 5.3165 0.2267
8.0400 5.3298 0.2353
8.0600 5.3431 0.2237
8.0800 5.3564 0.2274
8.1000 5.3698 0.2222
8.1200 5.3831 0.2224
8.1400 5.3964 0.2262
8.1600 5.4097 0.2216
8.1800 5.4231 0.2194
8.2000 5.4364 0.2298
8.2200 5.4497 0.2155
8.2400 5.4631 0.2169
8.2600 5.4765 0.2273
8.2800 5.4898 0.2143
8.3000 5.5032 0.2155
8.3200 5.5165 0.2296
8.3400 5.5298 0.2058
8.3600 5.5432 0.2187
8.3800 5.5565 0.2203
8.4000 5.5698 0.2036
8.4200 5.5831 0.2211
8.4400 5.5964 0.2183
8.4600 5.6098 0.2038
8.4800 5.6231 0.2182
8.5000 5.6364 0.2211
8.5200 5.6497 0.2033
8.5400 5.6631 0.2143
8.5600 5.6764 0.2152
8.5800 5.6897 0.1992
8.6000 5.7031 0.2217
8.6200 5.7165 0.2104
8.6400 5.7298 0.2026
8.6600 5.7431 0.2248
8.6800 5.7564 0.2065
8.7000 5.7698 0.2071
8.7200 5.7832 0.2192
8.7400 5.7965 0.2114
8.7600 5.8098 0.2048
8.7800 5.8231 0.2216
8.8000 5.8364 0.2117
8.8200 5.8498 0.2030
8.8400 5.8631 0.2173
8.8600 5.8764 0.2180
8.8800 5.8897 0.2008
8.9000 5.9031 0.2190
8.9200 5.9164 0.2174
8.9400 5.9298 0.2027
8.9600 5.9431 0.2177
8.9800 5.9565 0.2185
9.0000 5.9698 0.1984
9.0200 5.9831 0.2179
9.0400 5.9964 0.2167
9.0600 6.0098 0.1979
9.0800 6.0232 0.2173
9.1000 6.0365 0.2188
9.1200 6.0498 0.1940
9.1400 6.0630 0.2185
9.1600 6.0764 0.2193
9.1800 6.0897 0.1894
9.2000 6.1031 0.2120
9.2200 6.1164 0.2108
9.2400 6.1297 0.1886
9.2600 6.1430 0.2141
9.2800 6.1564 0.2134
9.3000 6.1697 0.1847
9.3200 6.1831 0.2135
9.3400 6.1965 0.2049
9.3600 6.2098 0.1868
9.3800 6.2232 0.2149
9.4000 6.2365 0.1989
9.4200 6.2498 0.1895
9.4400 6.2632 0.2124
9.4600 6.2765 0.1982
9.4800 6.2897 0.1900
9.5000 6.3030 0.2059
9.5200 6.3164 0.1992
9.5400 6.3297 0.1855
9.5600 6.3431 0.2104
9.5800 6.3564 0.1926
9.6000 6.3697 0.1896
9.6200 6.3831 0.2005
9.6400 6.3964 0.1903
9.6600 6.4098 0.1886
9.6800 6.4231 0.2022
9.7000 6.4365 0.1927
9.7200 6.4498 0.1862
9.7400 6.4631 0.1977
9.7600 6.4764 0.1935
9.7800 6.4898 0.1876
9.8000 6.5031 0.1956
9.8200 6.5165 0.1932
9.8400 6.5298 0.1861
9.8600 6.5431 0.1908
9.8800 6.5565 0.1910
9.9000 6.5698 0.1898
9.9200 6.5831 0.1864
9.9400 6.5964 0.1962
9.9600 6.6097 0.1832
9.9800 6.6231 0.1889
10.0000 6.6364 0.1943
10.0200 6.6497 0.1834
10.0400 6.6630 0.1820
10.0600 6.6764 0.1964
10.0800 6.6898 0.1762
10.1000 6.7031 0.1861
10.1200 6.7165 0.1989
10.1400 6.7298 0.1738
10.1600 6.7432 0.1849
10.1800 6.7565 0.2017
10.2000 6.7698 0.1653
10.2200 6.7831 0.1877
10.2400 6.7965 0.1978
10.2600 6.8098 0.1642
10.2800 6.8231 0.1918
10.3000 6.8364 0.1911
10.3200 6.8497 0.1648
10.3400 6.8631 0.1914
10.3600 6.8764 0.1867
10.3800 6.8897 0.1651
10.4000 6.9031 0.1905
10.4200 6.9164 0.1842
10.4400 6.9298 0.1594
10.4600 6.9432 0.1850
10.4800 6.9565 0.1846
10.5000 6.9698 0.1642
10.5200 6.9831 0.1845
10.5400 6.9965 0.1776
10.5600 7.0098 0.1638
10.5800 7.0231 0.1817
10.6000 7.0364 0.1779
10.6200 7.0498 0.1635
10.6400 7.0631 0.1781
10.6600 7.0764 0.1723
10.6800 7.0897 0.1631
10.7000 7.1031 0.1729
10.7200 7.1164 0.1757
10.7400 7.1297 0.1645
10.7600 7.1431 0.1724
10.7800 7.1564 0.1724
10.8000 7.1698 0.1641
10.8200 7.1831 0.1692
10.8400 7.1965 0.1740
10.8600 7.2098 0.1634
10.8800 7.2232 0.1627
10.9000 7.2365 0.1722
10.9200 7.2498 0.1680
10.9400 7.2631 0.1656
10.9600 7.2764 0.1726
10.9800 7.2898 0.1619
11.0000 7.3031 0.1615
11.0200 7.3164 0.1744
11.0400 7.3297 0.1619
11.0600 7.3430 0.1610
11.0800 7.3564 0.1728
11.1000 7.3697 0.1602
11.1200 7.3831 0.1549
11.1400 7.3965 0.1779
11.1600 7.4098 0.1587
11.1800 7.4232 0.1505
11.2000 7.4365 0.1766
11.2200 7.4498 0.1605
11.2400 7.4632 0.1539
11.2600 7.4765 0.1726
11.2800 7.4898 0.1516
11.3000 7.5031 0.1543
11.3200 7.5164 0.1767
11.3400 7.5298 0.1541
11.3600 7.5431 0.1507
11.3800 7.5564 0.1711
11.4000 7.5697 0.1502
11.4200 7.5831 0.1523
11.4400 7.5964 0.1723
11.4600 7.6097 0.1518
11.4800 7.6231 0.1534
11.5000 7.6364 0.1630
11.5200 7.6498 0.1462
11.5400 7.6631 0.1544
11.5600 7.6765 0.1633
11.5800 7.6898 0.1455
11.6000 7.7032 0.1516
11.6200 7.7165 0.1574
11.6400 7.7298 0.1508
11.6600 7.7431 0.1522
11.6800 7.7564 0.1581
11.7000 7.7697 0.1491
11.7200 7.7831 0.1487
11.7400 7.7964 0.1515
11.7600 7.8097 0.1570
11.7800 7.8231 0.1460
11.8000 7.8364 0.1513
11.8200 7.8497 0.1489
11.8400 7.8631 0.1488
11.8600 7.8764 0.1541
11.8800 7.8898 0.1481
11.9000 7.9031 0.1442
11.9200 7.9164 0.1497
11.9400 7.9298 0.1502
11.9600 7.9431 0.1461
11.9800 7.9565 0.1495
12.0000 7.9698 0.1540
12.0200 7.9831 0.1408
12.0400 7.9965 0.1489
12.0600 8.0098 0.1492
12.0800 8.0231 0.1417
12.1000 8.0364 0.1498
12.1200 8.0497 0.1428
12.1400 8.0630 0.1423
12.1600 8.0764 0.1435
12.1800 8.0897 0.1472
12.2000 8.1030 0.1389
12.2200 8.1164 0.1423
12.2400 8.1298 0.1468
12.2600 8.1432 0.1370
12.2800 8.1565 0.1418
12.3000 8.1698 0.1482
12.3200 8.1832 0.1366
12.3400 8.1965 0.1433
12.3600 8.2098 0.1432
12.3800 8.2231 0.1385
12.4000 8.2364 0.1445
12.4200 8.2497 0.1464
12.4400 8.2631 0.1301
12.4600 8.2764 0.1436
12.4800 8.2897 0.1452
12.5000 8.3030 0.1346
12.5200 8.3164 0.1429
12.5400 8.3297 0.1360
12.5600 8.3431 0.1313
12.5800 8.3564 0.1463
12.6000 8.3698 0.1380
12.6200 8.3832 0.1328
12.6400 8.3965 0.1424
12.6600 8.4098 0.1378
12.6800 8.4232 0.1339
12.7000 8.4365 0.1408
12.7200 8.4498 0.1369
12.7400 8.4631 0.1316
12.7600 8.4764 0.1393
12.7800 8.4897 0.1316
12.8000 8.5031 0.1325
12.8200 8.5164 0.1338
12.8400 8.5297 0.1303
12.8600 8.5430 0.1286
12.8800 8.5564 0.1331
12.9000 8.5698 0.1287
12.9200 8.5831 0.1261
12.9400 8.5964 0.1298
12.9600 8.6098 0.1297
12.9800 8.6232 0.1253
13.0000 8.6365 0.1278
13.0200 8.6498 0.1259
13.0400 8.6631 0.1274
13.0600 8.6765 0.1241
13.0800 8.6898 0.1279
13.1000 8.7031 0.1273
13.1200 8.7165 0.1288
13.1400 8.7298 0.1244
13.1600 8.7431 0.1241
13.1800 8.7564 0.1225
13.2000 8.7697 0.1235
13.2200 8.7830 0.1257
13.2400 8.7964 0.1228
13.2600 8.8098 0.1215
13.2800 8.8231 0.1236
13.3000 8.8365 0.1219
13.3200 8.8498 0.1225
13.3400 8.8632 0.1264
13.3600 8.8765 0.1164
13.3800 8.8898 0.1224
13.4000 8.9031 0.1253
13.4200 8.9165 0.1135
13.4400 8.9298 0.1215
13.4600 8.9431 0.1251
13.4800 8.9564 0.1094
13.5000 8.9697 0.1208
13.5200 8.9831 0.1220
13.5400 8.9964 0.1067
13.5600 9.0097 0.1248
13.5800 9.0231 0.1209
13.6000 9.0364 0.1038
13.6200 9.0497 0.1304
13.6400 9.0630 0.1156
13.6600 9.0764 0.1091
13.6800 9.0898 0.1231
13.7000 9.1032 0.1116
13.7200 9.1165 0.1092
13.7400 9.1298 0.1244
13.7600 9.1432 0.1122
13.7800 9.1565 0.1116
13.8000 9.1698 0.1266
13.8200 9.1831 0.1051
13.8400 9.1964 0.1110
13.8600 9.2097 0.1268
13.8800 9.2231 0.1058
13.9000 9.2364 0.1092
13.9200 9.2497 0.1220
13.9400 9.2630 0.1109
13.9600 9.2764 0.1130
13.9800 9.2898 0.1184
14.0000 9.3031 0.1108
14.0200 9.3164 0.1100
14.0400 9.3298 0.1132
14.0600 9.3431 0.1133
14.0800 9.3565 0.1111
14.1000 9.3698 0.1129
14.1200 9.3831 0.1111
14.1400 9.3965 0.1069
14.1600 9.4098 0.1169
14.1800 9.4231 0.1107
14.2000 9.4365 0.1020
14.2200 9.4498 0.1126
14.2400 9.4632 0.1124
14.2600 9.4764 0.0987
14.2800 9.4897 0.1112
14.3000 9.5030 0.1096
14.3200 9.5164 0.0972
14.3400 9.5297 0.1066
14.3600 9.5430 0.1099
14.3800 9.5564 0.1006
14.4000 9.5698 0.1032
14.4200 9.5832 0.1092
14.4400 9.5965 0.0967
14.4600 9.6098 0.1055
14.4800 9.6232 0.1080
14.5000 9.6365 0.0928
14.5200 9.6498 0.1065
14.5400 9.6631 0.1061
14.5600 9.6764 0.0934
14.5800 9.6897 0.1059
14.6000 9.7031 0.1001
14.6200 9.7164 0.0940
14.6400 9.7297 0.1063
14.6600 9.7431 0.1046
14.6800 9.7564 0.0875
14.7000 9.7698 0.1070
14.7200 9.7831 0.0982
14.7400 9.7964 0.0888
14.7600 9.8098 0.1055
14.7800 9.8232 0.0981
14.8000 9.8365 0.0883
14.8200 9.8498 0.1061
14.8400 9.8631 0.0952
14.8600 9.8765 0.0872
14.8800 9.8898 0.1027
14.9000 9.9031 0.0936
14.9200 9.9164 0.0922
14.9400 9.9297 0.1019
14.9600 9.9431 0.0921
14.9800 9.9564 0.0914
15.0000 9.9697 0.1011
15.0200 9.9830 0.0919
15.0400 9.9964 0.0909
15.0600 10.0098 0.0988
15.0800 10.0231 0.0925
15.1000 10.0364 0.0847
15.1200 10.0498 0.1004
15.1400 10.0632 0.0914
15.1600 10.0765 0.0846
15.1800 10.0898 0.0950
15.2000 10.1031 0.0936
15.2200 10.1165 0.0863
15.2400 10.1298 0.0936
15.2600 10.1431 0.0897
15.2800 10.1564 0.0923
15.3000 10.1698 0.0915
15.3200 10.1831 0.0918
15.3400 10.1964 0.0876
15.3600 10.2097 0.0946
15.3800 10.2230 0.0959
15.4000 10.2364 0.0842
15.4200 10.2497 0.0922
15.4400 10.2631 0.0957
15.4600 10.2764 0.0825
15.4800 10.2898 0.0920
15.5000 10.3032 0.0941
15.5200 10.3165 0.0838
15.5400 10.3298 0.0868
15.5600 10.3432 0.0941
15.5800 10.3565 0.0837
15.6000 10.3698 0.0878
15.6200 10.3831 0.0943
15.6400 10.3964 0.0813
15.6600 10.4097 0.0882
15.6800 10.4231 0.0903
15.7000 10.4364 0.0794
15.7200 10.4497 0.0887
15.7400 10.4630 0.0921
15.7600 10.4764 0.0772
15.7800 10.4898 0.0844
15.8000 10.5031 0.0868
15.8200 10.5164 0.0757
15.8400 10.5297 0.0813
15.8600 10.5431 0.0892
15.8800 10.5564 0.0737
15.9000 10.5698 0.0799
15.9200 10.5831 0.0846
15.9400 10.5965 0.0753
15.9600 10.6098 0.0753
15.9800 10.6231 0.0849
16.0000 10.6364 0.0770
16.0200 10.6497 0.0766
16.0400 10.6631 0.0810
16.0600 10.6764 0.0726
16.0800 10.6897 0.0748
16.1000 10.7030 0.0824
16.1200 10.7164 0.0739
16.1400 10.7297 0.0722
16.1600 10.7431 0.0767
16.1800 10.7564 0.0766
16.2000 10.7698 0.0724
16.2200 10.7832 0.0747
16.2400 10.7965 0.0722
16.2600 10.8098 0.0681
16.2800 10.8231 0.0777
16.3000 10.8365 0.0688
16.3200 10.8498 0.0707
16.3400 10.8631 0.0764
16.3600 10.8764 0.0734
16.3800 10.8898 0.0688
16.4000 10.9031 0.0753
16.4200 10.9164 0.0706
16.4400 10.9297 0.0719
16.4600 10.9430 0.0774
16.4800 10.9564 0.0680
16.5000 10.9697 0.0653
16.5200 10.9831 0.0759
16.5400 10.9964 0.0660
16.5600 11.0097 0.0689
16.5800 11.0231 0.0736
16.6000 11.0365 0.0614
16.6200 11.0498 0.0644
16.6400 11.0631 0.0709
16.6600 11.0765 0.0639
16.6800 11.0898 0.0676
16.7000 11.1031 0.0666
16.7200 11.1164 0.0618
16.7400 11.1297 0.0662
16.7600 11.1431 0.0676
16.7800 11.1564 0.0587
16.8000 11.1697 0.0634
16.8200 11.1830 0.0655
16.8400 11.1964 0.0584
16.8600 11.2098 0.0640
16.8800 11.2231 0.0583
16.9000 11.2364 0.0621
16.9200 11.2498 0.0600
16.9400 11.2631 0.0586
16.9600 11.2765 0.0616
16.9800 11.2898 0.0648
17.0000 11.3031 0.0557
17.0200 11.3165 0.0608
17.0400 11.3298 0.0588
17.0600 11.3432 0.0576
17.0800 11.3565 0.0570
17.1000 11.3698 0.0647
17.1200 11.3831 0.0540
17.1400 11.3965 0.0541
17.1600 11.4097 0.0589
17.1800 11.4231 0.0595
17.2000 11.4364 0.0557
17.2200 11.4497 0.0574
17.2400 11.4631 0.0543
17.2600 11.4764 0.0555
17.2800 11.4897 0.0578
17.3000 11.5031 0.0531
17.3200 11.5165 0.0586
17.3400 11.5298 0.0538
17.3600 11.5431 0.0530
17.3800 11.5565 0.0585
17.4000 11.5698 0.0579
17.4200 11.5831 0.0495
17.4400 11.5964 0.0590
17.4600 11.6098 0.0576
17.4800 11.6231 0.0513
17.5000 11.6365 0.0580
17.5200 11.6497 0.0541
17.5400 11.6630 0.0464
17.5600 11.6764 0.0634
17.5800 11.6897 0.0476
17.6000 11.7031 0.0444
17.6200 11.7164 0.0619
17.6400 11.7297 0.0478
17.6600 11.7431 0.0390
17.6800 11.7565 0.0635
17.7000 11.7698 0.0399
17.7200 11.7831 0.0367
17.7400 11.7965 0.0646
17.7600 11.8098 0.0375
17.7800 11.8231 0.0337
17.8000 11.8364 0.0645
17.8200 11.8497 0.0336
17.8400 11.8631 0.0368
17.8600 11.8764 0.0627
17.8800 11.8897 0.0311
17.9000 11.9030 0.0406
17.9200 11.9164 0.0584
17.9400 11.9298 0.0327
17.9600 11.9431 0.0374
17.9800 11.9564 0.0534
18.0000 11.9698 0.0355
18.0200 11.9831 0.0372
18.0400 11.9965 0.0500
18.0600 12.0098 0.0365
18.0800 12.0231 0.0355
18.1000 12.0365 0.0558
18.1200 12.0498 0.0371
18.1400 12.0631 0.0360
18.1600 12.0765 0.0479
18.1800 12.0898 0.0418
18.2000 12.1031 0.0319
18.2200 12.1165 0.0489
18.2400 12.1298 0.0399
18.2600 12.1430 0.0342
18.2800 12.1564 0.0500
18.3000 12.1697 0.0397
18.3200 12.1831 0.0305
18.3400 12.1964 0.0481
18.3600 12.2098 0.0350
18.3800 12.2231 0.0298
18.4000 12.2365 0.0484
18.4200 12.2498 0.0354
18.4400 12.2631 0.0289
18.4600 12.2765 0.0480
18.4800 12.2898 0.0308
18.5000 12.3031 0.0296
18.5200 12.3164 0.0449
18.5400 12.3297 0.0310
18.5600 12.3431 0.0296
18.5800 12.3565 0.0329
18.6000 12.3698 0.0336
18.6200 12.3831 0.0290
18.6400 12.3964 0.0381
18.6600 12.4097 0.0334
18.6800 12.4231 0.0279
18.7000 12.4364 0.0332
18.7200 12.4498 0.0397
18.7400 12.4631 0.0214
18.7600 12.4765 0.0333
18.7800 12.4898 0.0334
18.8000 12.5031 0.0248
18.8200 12.5165 0.0273
18.8400 12.5298 0.0354
18.8600 12.5432 0.0220
18.8800 12.5564 0.0292
18.9000 12.5697 0.0339
18.9200 12.5831 0.0238
18.9400 12.5964 0.0290
18.9600 12.6097 0.0346
18.9800 12.6230 0.0199
19.0000 12.6364 0.0267
19.0200 12.6497 0.0317
19.0400 12.6631 0.0169
19.0600 12.6764 0.0266
19.0800 12.6897 0.0319
19.1000 12.7031 0.0163
19.1200 12.7165 0.0267
19.1400 12.7298 0.0293
19.1600 12.7431 0.0151
19.1800 12.7564 0.0254
19.2000 12.7698 0.0224
19.2200 12.7831 0.0131
19.2400 12.7964 0.0246
19.2600 12.8098 0.0282
19.2800 12.8231 0.0142
19.3000 12.8365 0.0232
19.3200 12.8498 0.0215
19.3400 12.8631 0.0146
19.3600 12.8764 0.0284
19.3800 12.8897 0.0170
19.4000 12.9030 0.0075
19.4200 12.9164 0.0223
19.4400 12.9297 0.0133
19.4600 12.9431 0.0124
19.4800 12.9565 0.0217
19.5000 12.9699 0.0122
19.5200 12.9832 0.0129
19.5400 12.9965 0.0231
19.5600 13.0099 0.0093
19.5800 13.0232 0.0084
19.6000 13.0365 0.0247
19.6200 13.0497 0.0096
19.6400 13.0631 0.0094
19.6600 13.0764 0.0205
19.6800 13.0897 0.0102
19.7000 13.1030 0.0088
19.7200 13.1163 0.0206
19.7400 13.1297 0.0083
19.7600 13.1431 0.0087
19.7800 13.1564 0.0213
19.8000 13.1698 0.0110
19.8200 13.1831 0.0060
19.8400 13.1965 0.0254
19.8600 13.2098 0.0048
19.8800 13.2231 0.0095
19.9000 13.2365 0.0212
19.9200 13.2498 0.0075
19.9400 13.2632 0.0044
19.9600 13.2765 0.0212
19.9800 13.2897 0.0043
20.0000 13.3031 0.0082
20.0200 13.3164 0.0198
20.0400 13.3297 0.0000
20.0600 13.3431 0.0048
20.0800 13.3564 0.0132
20.1000 13.3697 -0.0016
20.1200 13.3831 0.0083
20.1400 13.3964 0.0143
20.1600 13.4098 -0.0038
20.1800 13.4231 0.0059
20.2000 13.4365 0.0129
20.2200 13.4498 -0.0045
20.2400 13.4631 0.0092
20.2600 13.4765 0.0108
20.2800 13.4898 -0.0029
20.3000 13.5032 0.0058
20.3200 13.5165 0.0013
20.3400 13.5298 0.0014
20.3600 13.5431 0.0062
20.3800 13.5565 -0.0013
20.4000 13.5697 -0.0036
20.4200 13.5830 0.0110
20.4400 13.5964 -0.0040
20.4600 13.6097 -0.0006
20.4800 13.6231 0.0017
20.5000 13.6364 -0.0043
20.5200 13.6498 -0.0038
20.5400 13.6631 0.0020
20.5600 13.6765 -0.0082
20.5800 13.6898 -0.0031
20.6000 13.7032 -0.0015
20.6200 13.7165 -0.0075
20.6400 13.7298 0.0021
20.6600 13.7431 -0.0029
20.6800 13.7564 -0.0118
20.7000 13.7697 0.0013
20.7200 13.7831 -0.0027
20.7400 13.7964 -0.0095
20.7600 13.8098 -0.0005
20.7800 13.8231 -0.0061
20.8000 13.8364 -0.0086
20.8200 13.8497 0.0018
20.8400 13.8631 -0.0083
20.8600 13.8764 -0.0088
20.8800 13.8897 0.0017
20.9000 13.9031 -0.0169
20.9200 13.9165 -0.0074
20.9400 13.9298 0.0026
20.9600 13.9432 -0.0151
20.9800 13.9565 -0.0073
21.0000 13.9699 -0.0008
21.0200 13.9832 -0.0149
21.0400 13.9965 -0.0043
21.0600 14.0098 -0.0048
21.0800 14.0231 -0.0125
21.1000 14.0364 -0.0090
21.1200 14.0498 -0.0081
21.1400 14.0631 -0.0142
21.1600 14.0764 -0.0111
21.1800 14.0897 -0.0040
21.2000 14.1030 -0.0186
21.2200 14.1164 -0.0127
21.2400 14.1297 -0.0086
21.2600 14.1431 -0.0189
21.2800 14.1565 -0.0132
21.3000 14.1698 -0.0096
21.3200 14.1831 -0.0139
21.3400 14.1965 -0.0147
21.3600 14.2098 -0.0130
21.3800 14.2232 -0.0172
21.4000 14.2365 -0.0180
21.4200 14.2498 -0.0129
21.4400 14.2631 -0.0181
21.4600 14.2764 -0.0183
21.4800 14.2898 -0.0193
21.5000 14.3031 -0.0168
21.5200 14.3163 -0.0228
21.5400 14.3297 -0.0183
21.5600 14.3430 -0.0206
21.5800 14.3564 -0.0158
21.6000 14.3697 -0.0220
21.6200 14.3831 -0.0172
21.6400 14.3965 -0.0177
21.6600 14.4098 -0.0267
21.6800 14.4232 -0.0197
21.7000 14.4365 -0.0178
21.7200 14.4498 -0.0299
21.7400 14.4632 -0.0179
21.7600 14.4765 -0.0212
21.7800 14.4897 -0.0247
21.8000 14.5030 -0.0223
21.8200 14.5164 -0.0200
21.8400 14.5297 -0.0291
21.8600 14.5430 -0.0221
21.8800 14.5564 -0.0215
21.9000 14.5697 -0.0319
21.9200 14.5831 -0.0211
21.9400 14.5964 -0.0258
21.9600 14.6098 -0.0335
21.9800 14.6231 -0.0217
22.0000 14.6365 -0.0256
22.0200 14.6498 -0.0328
22.0400 14.6631 -0.0231
22.0600 14.6764 -0.0275
22.0800 14.6898 -0.0281
22.1000 14.7031 -0.0232
22.1200 14.7164 -0.0271
22.1400 14.7298 -0.0306
22.1600 14.7431 -0.0229
22.1800 14.7564 -0.0320
22.2000 14.7698 -0.0309
22.2200 14.7831 -0.0239
22.2400 14.7964 -0.0279
22.2600 14.8097 -0.0336
22.2800 14.8231 -0.0266
22.3000 14.8364 -0.0310
22.3200 14.8498 -0.0318
22.3400 14.8631 -0.0289
22.3600 14.8765 -0.0300
22.3800 14.8898 -0.0342
22.4000 14.9031 -0.0321
22.4200 14.9165 -0.0298
22.4400 14.9298 -0.0330
22.4600 14.9432 -0.0338
22.4800 14.9565 -0.0325
22.5000 14.9698 -0.0349
22.5200 14.9831 -0.0285
22.5400 14.9964 -0.0294
22.5600 15.0098 -0.0395
22.5800 15.0231 -0.0325
22.6000 15.0364 -0.0305
22.6200 15.0497 -0.0395
22.6400 15.0631 -0.0318
22.6600 15.0764 -0.0329
22.6800 15.0897 -0.0396
22.7000 15.1031 -0.0324
22.7200 15.1165 -0.0415
22.7400 15.1298 -0.0431
22.7600 15.1432 -0.0290
22.7800 15.1565 -0.0418
22.8000 15.1698 -0.0445
22.8200 15.1831 -0.0314
22.8400 15.1965 -0.0463
22.8600 15.2097 -0.0438
22.8800 15.2231 -0.0334
22.9000 15.2364 -0.0453
22.9200 15.2498 -0.0452
22.9400 15.2631 -0.0336
22.9600 15.2764 -0.0472
22.9800 15.2897 -0.0449
23.0000 15.3031 -0.0374
23.0200 15.3164 -0.0470
23.0400 15.3297 -0.0440
23.0600 15.3431 -0.0363
23.0800 15.3564 -0.0483
23.1000 15.3698 -0.0482
23.1200 15.3831 -0.0388
23.1400 15.3965 -0.0466
23.1600 15.4098 -0.0457
23.1800 15.4232 -0.0412
23.2000 15.4365 -0.0513
23.2200 15.4498 -0.0516
23.2400 15.4631 -0.0351
23.2600 15.4764 -0.0528
23.2800 15.4897 -0.0480
23.3000 15.5030 -0.0375
23.3200 15.5164 -0.0519
23.3400 15.5297 -0.0496
23.3600 15.5431 -0.0405
23.3800 15.5564 -0.0530
23.4000 15.5698 -0.0505
23.4200 15.5831 -0.0450
23.4400 15.5965 -0.0517
23.4600 15.6098 -0.0535
23.4800 15.6232 -0.0455
23.5000 15.6365 -0.0550
23.5200 15.6498 -0.0498
23.5400 15.6632 -0.0532
23.5600 15.6765 -0.0548
23.5800 15.6898 -0.0527
23.6000 15.7031 -0.0532
23.6200 15.7164 -0.0517
23.6400 15.7298 -0.0572
23.6600 15.7431 -0.0535
23.6800 15.7564 -0.0562
23.7000 15.7697 -0.0563
23.7200 15.7831 -0.0566
23.7400 15.7964 -0.0546
23.7600 15.8097 -0.0583
23.7800 15.8231 -0.0539
23.8000 15.8364 -0.0555
23.8200 15.8498 -0.0624
23.8400 15.8632 -0.0545
23.8600 15.8765 -0.0604
23.8800 15.8898 -0.0655
23.9000 15.9031 -0.0535
23.9200 15.9165 -0.0613
23.9400 15.9298 -0.0648
23.9600 15.9431 -0.0557
23.9800 15.9564 -0.0617
24.0000 15.9697 -0.0666
24.0200 15.9831 -0.0512
24.0400 15.9964 -0.0656
24.0600 16.0097 -0.0640
24.0800 16.0231 -0.0561
24.1000 16.0364 -0.0682
24.1200 16.0498 -0.0676
24.1400 16.0631 -0.0579
24.1600 16.0764 -0.0692
24.1800 16.0898 -0.0687
24.2000 16.1031 -0.0620
24.2200 16.1164 -0.0691
24.2400 16.1297 -0.0638
24.2600 16.1431 -0.0667
24.2800 16.1565 -0.0745
24.3000 16.1698 -0.0627
24.3200 16.1831 -0.0695
24.3400 16.1965 -0.0726
24.3600 16.2098 -0.0633
24.3800 16.2231 -0.0736
24.4000 16.2364 -0.0721
24.4200 16.2497 -0.0668
24.4400 16.2631 -0.0744
24.4600 16.2764 -0.0726
24.4800 16.2897 -0.0654
24.5000 16.3031 -0.0814
24.5200 16.3164 -0.0678
24.5400 16.3298 -0.0703
24.5600 16.3431 -0.0782
24.5800 16.3565 -0.0663
24.6000 16.3698 -0.0741
24.6200 16.3832 -0.0790
24.6400 16.3965 -0.0670
24.6600 16.4098 -0.0796
24.6800 16.4231 -0.0755
24.7000 16.4365 -0.0711
24.7200 16.4498 -0.0795
24.7400 16.4631 -0.0815
24.7600 16.4764 -0.0682
24.7800 16.4897 -0.0825
24.8000 16.5031 -0.0836
24.8200 16.5164 -0.0677
24.8400 16.5297 -0.0845
24.8600 16.5431 -0.0759
24.8800 16.5564 -0.0724
24.9000 16.5698 -0.0858
24.9200 16.5832 -0.0790
24.9400 16.5965 -0.0756
24.9600 16.6098 -0.0836
24.9800 16.6232 -0.0813
25.0000 16.6365 -0.0784
25.0200 16.6498 -0.0843
25.0400 16.6631 -0.0814
25.0600 16.6764 -0.0769
25.0800 16.6897 -0.0849
25.1000 16.7031 -0.0772
25.1200 16.7164 -0.0815
25.1400 16.7297 -0.0846
25.1600 16.7431 -0.0810
25.1800 16.7564 -0.0889
25.2000 16.7698 -0.0843
25.2200 16.7831 -0.0772
25.2400 16.7964 -0.0900
25.2600 16.8098 -0.0865
25.2800 16.8231 -0.0843
25.3000 16.8365 -0.0883
25.3200 16.8498 -0.0803
25.3400 16.8632 -0.0826
25.3600 16.8765 -0.0937
25.3800 16.8898 -0.0822
25.4000 16.9031 -0.0782
25.4200 16.9164 -0.0901
25.4400 16.9298 -0.0822
25.4600 16.9431 -0.0870
25.4800 16.9564 -0.0876
25.5000 16.9697 -0.0843
25.5200 16.9830 -0.0889
25.5400 16.9964 -0.0883
25.5600 17.0097 -0.0843
25.5800 17.0231 -0.0935
25.6000 17.0364 -0.0883
25.6200 17.0498 -0.0916
25.6400 17.0632 -0.0955
25.6600 17.0765 -0.0898
25.6800 17.0898 -0.0887
25.7000 17.1031 -0.0937
25.7200 17.1165 -0.0916
25.7400 17.1298 -0.0975
25.7600 17.1431 -0.0933
25.7800 17.1564 -0.0891
25.8000 17.1698 -0.0982
25.8200 17.1831 -0.0917
25.8400 17.1964 -0.0918
25.8600 17.2097 -0.0992
25.8800 17.2231 -0.0953
25.9000 17.2364 -0.0971
25.9200 17.2497 -0.0993
25.9400 17.2631 -0.1011
25.9600 17.2764 -0.0962
25.9800 17.2898 -0.1007
26.0000 17.3032 -0.1025
26.0200 17.3165 -0.0941
26.0400 17.3298 -0.1001
26.0600 17.3432 -0.1032
26.0800 17.3565 -0.0996
26.1000 17.3698 -0.0987
26.1200 17.3831 -0.1066
26.1400 17.3964 -0.1000
26.1600 17.4097 -0.1029
26.1800 17.4231 -0.1064
26.2000 17.4364 -0.1034
26.2200 17.4497 -0.1022
26.2400 17.4631 -0.1079
26.2600 17.4764 -0.1009
26.2800 17.4898 -0.1100
26.3000 17.5031 -0.1060
26.3200 17.5164 -0.1035
26.3400 17.5298 -0.1129
26.3600 17.5431 -0.1073
26.3800 17.5564 -0.1085
26.4000 17.5698 -0.1118
26.4200 17.5831 -0.1060
26.4400 17.5965 -0.1131
26.4600 17.6098 -0.1164
26.4800 17.6231 -0.1046
26.5000 17.6364 -0.1116
26.5200 17.6498 -0.1170
26.5400 17.6631 -0.1060
26.5600 17.6764 -0.1167
26.5800 17.6897 -0.1154
26.6000 17.7030 -0.1070
26.6200 17.7164 -0.1190
26.6400 17.7297 -0.1126
26.6600 17.7431 -0.1171
26.6800 17.7564 -0.1199
26.7000 17.7698 -0.1142
26.7200 17.7832 -0.1188
26.7400 17.7965 -0.1237
26.7600 17.8098 -0.1135
26.7800 17.8232 -0.1208
26.8000 17.8365 -0.1187
26.8200 17.8498 -0.1197
26.8400 17.8631 -0.1210
26.8600 17.8764 -0.1188
26.8800 17.8897 -0.1184
26.9000 17.9031 -0.1272
26.9200 17.9164 -0.1153
26.9400 17.9297 -0.1227
26.9600 17.9430 -0.1268
26.9800 17.9564 -0.1134
27.0000 17.9697 -0.1261
27.0200 17.9830 -0.1316
27.0400 17.9964 -0.1132
27.0600 18.0098 -0.1280
27.0800 18.0232 -0.1302
27.1000 18.0365 -0.1147
27.1200 18.0498 -0.1278
27.1400 18.0631 -0.1324
27.1600 18.0765 -0.1157
27.1800 18.0898 -0.1292
27.2000 18.1031 -0.1298
27.2200 18.1164 -0.1125
27.2400 18.1298 -0.1351
27.2600 18.1431 -0.1286
27.2800 18.1564 -0.1188
27.3000 18.1697 -0.1354
27.3200 18.1830 -0.1269
27.3400 18.1964 -0.1194
27.3600 18.2098 -0.1416
27.3800 18.2231 -0.1270
27.4000 18.2364 -0.1251
27.4200 18.2498 -0.1386
27.4400 18.2631 -0.1300
27.4600 18.2765 -0.1296
27.4800 18.2898 -0.1404
27.5000 18.3031 -0.1276
27.5200 18.3165 -0.1337
27.5400 18.3298 -0.1438
27.5600 18.3431 -0.1312
27.5800 18.3565 -0.1365
27.6000 18.3698 -0.1411
27.6200 18.3831 -0.1369
27.6400 18.3964 -0.1393
27.6600 18.4097 -0.1393
27.6800 18.4230 -0.1447
27.7000 18.4364 -0.1409
27.7200 18.4498 -0.1360
27.7400 18.4631 -0.1438
27.7600 18.4764 -0.1437
27.7800 18.4898 -0.1379
27.8000 18.5032 -0.1458
27.8200 18.5165 -0.1437
27.8400 18.5298 -0.1355
27.8600 18.5431 -0.1558
27.8800 18.5565 -0.1461
27.9000 18.5698 -0.1400
27.9200 18.5831 -0.1555
27.9400 18.5964 -0.1467
27.9600 18.6097 -0.1359
27.9800 18.6231 -0.1573
28.0000 18.6364 -0.1473
28.0200 18.6497 -0.1482
28.0400 18.6631 -0.1557
28.0600 18.6764 -0.1409
28.0800 18.6898 -0.1515
28.1000 18.7031 -0.1608
28.1200 18.7164 -0.1393
28.1400 18.7298 -0.1549
28.1600 18.7432 -0.1557
28.1800 18.7565 -0.1451
28.2000 18.7698 -0.1570
28.2200 18.7831 -0.1522
28.2400 18.7965 -0.1499
28.2600 18.8098 -0.1544
28.2800 18.8231 -0.1504
28.3000 18.8364 -0.1519
28.3200 18.8497 -0.1551
28.3400 18.8631 -0.1538
28.3600 18.8764 -0.1573
28.3800 18.8897 -0.1528
28.4000 18.9030 -0.1530
28.4200 18.9164 -0.1607
28.4400 18.9297 -0.1558
28.4600 18.9431 -0.1498
28.4800 18.9564 -0.1635
28.5000 18.9698 -0.1558
28.5200 18.9831 -0.1599
28.5400 18.9965 -0.1681
28.5600 19.0098 -0.1555
28.5800 19.0231 -0.1593
28.6000 19.0365 -0.1684
28.6200 19.0498 -0.1562
28.6400 19.0631 -0.1646
28.6600 19.0764 -0.1677
28.6800 19.0898 -0.1627
28.7000 19.1031 -0.1686
28.7200 19.1164 -0.1685
28.7400 19.1297 -0.1637
28.7600 19.1430 -0.1729
28.7800 19.1563 -0.1661
28.8000 19.1697 -0.1661
28.8200 19.1830 -0.1784
28.8400 19.1964 -0.1646
28.8600 19.2098 -0.1708
28.8800 19.2232 -0.1761
28.9000 19.2365 -0.1683
28.9200 19.2499 -0.1706
28.9400 19.2632 -0.1804
28.9600 19.2765 -0.1688
28.9800 19.2898 -0.1747
29.0000 19.3031 -0.1787
29.0200 19.3164 -0.1681
29.0400 19.3297 -0.1732
29.0600 19.3431 -0.1833
29.0800 19.3564 -0.1668
29.1000 19.3697 -0.1787
29.1200 19.3831 -0.1819
29.1400 19.3964 -0.1720
29.1600 19.4098 -0.1802
29.1800 19.4231 -0.1876
29.2000 19.4364 -0.1710
29.2200 19.4498 -0.1839
29.2400 19.4632 -0.1876
29.2600 19.4765 -0.1758
29.2800 19.4898 -0.1848
29.3000 19.5031 -0.1885
29.3200 19.5165 -0.1754
29.3400 19.5298 -0.1877
29.3600 19.5431 -0.1883
29.3800 19.5564 -0.1824
29.4000 19.5697 -0.1843
29.4200 19.5831 -0.1866
29.4400 19.5964 -0.1886
29.4600 19.6097 -0.1843
29.4800 19.6230 -0.1885
29.5000 19.6364 -0.1900
29.5200 19.6498 -0.1919
29.5400 19.6631 -0.1887
29.5600 19.6764 -0.1948
29.5800 19.6898 -0.1898
29.6000 19.7031 -0.1970
29.6200 19.7165 -0.1880
29.6400 19.7298 -0.1906
29.6600 19.7431 -0.2013
29.6800 19.7565 -0.1948
29.7000 19.7698 -0.1896
29.7200 19.7831 -0.2037
29.7400 19.7964 -0.1962
29.7600 19.8098 -0.1921
29.7800 19.8231 -0.2012
29.8000 19.8364 -0.2010
29.8200 19.8497 -0.1962
29.8400 19.8630 -0.2035
29.8600 19.8764 -0.2007
29.8800 19.8897 -0.2036
29.9000 19.9031 -0.2013
29.9200 19.9164 -0.2056
29.9400 19.9298 -0.2006
29.9600 19.9432 -0.2067
29.9800 19.9565 -0.2079
30.0000 19.9698 -0.1965
30.0200 19.9832 -0.2024
30.0400 19.9965 -0.2131
30.0600 20.0098 -0.2029
30.0800 20.0231 -0.2039
30.1000 20.0364 -0.2148
30.1200 20.0497 -0.1965
30.1400 20.0631 -0.2096
30.1600 20.0764 -0.2190
30.1800 20.0897 -0.1990
30.2000 20.1031 -0.2073
30.2200 20.1164 -0.2188
30.2400 20.1298 -0.2015
30.2600 20.1431 -0.2127
30.2800 20.1564 -0.2198
30.3000 20.1698 -0.2042
30.3200 20.1831 -0.2079
30.3400 20.1965 -0.2224
30.3600 20.2098 -0.2044
30.3800 20.2231 -0.2156
30.4000 20.2365 -0.2151
30.4200 20.2498 -0.2084
30.4400 20.2632 -0.2217
30.4600 20.2764 -0.2239
30.4800 20.2898 -0.2079
30.5000 20.3031 -0.2261
30.5200 20.3164 -0.2273
30.5400 20.3297 -0.2102
30.5600 20.3430 -0.2308
30.5800 20.3564 -0.2252
30.6000 20.3697 -0.2167
30.6200 20.3831 -0.2359
30.6400 20.3964 -0.2243
30.6600 20.4098 -0.2252
30.6800 20.4232 -0.2417
30.7000 20.4365 -0.2107
30.7200 20.4498 -0.1442
30.7400 20.4631 -0.0847
30.7600 20.4765 -0.0105
30.7800 20.4898 0.0275
30.8000 20.5031 0.0509
30.8200 20.5164 0.1286
30.8400 20.5297 0.1743
30.8600 20.5431 0.2292
30.8800 20.5564 0.2984
30.9000 20.5697 0.3355
30.9200 20.5830 0.3672
30.9400 20.5964 0.4121
30.9600 20.6097 0.4285
30.9800 20.6231 0.4762
31.0000 20.6364 0.5280
31.0200 20.6497 0.5572
31.0400 20.6631 0.5978
31.0600 20.6765 0.6278
31.0800 20.6898 0.6251
31.1000 20.7031 0.6255
31.1200 20.7165 0.6206
31.1400 20.7298 0.6208
31.1600 20.7431 0.6334
31.1800 20.7564 0.6259
31.2000 20.7697 0.6252
31.2200 20.7831 0.6366
31.2400 20.7964 0.6328
31.2600 20.8097 0.6241
31.2800 20.8230 0.6368
31.3000 20.8364 0.6362
31.3200 20.8498 0.6315
31.3400 20.8631 0.6343
31.3600 20.8764 0.6384
31.3800 20.8898 0.6289
31.4000 20.9032 0.6400
31.4200 20.9165 0.6401
31.4400 20.9298 0.6301
31.4600 20.9431 0.6384
31.4800 20.9564 0.6400
31.5000 20.9698 0.6274
31.5200 20.9831 0.6403
31.5400 20.9965 0.6389
31.5600 21.0098 0.6274
31.5800 21.0231 0.6350
31.6000 21.0365 0.6381
31.6200 21.0498 0.6270
31.6400 21.0631 0.6410
31.6600 21.0764 0.6330
31.6800 21.0898 0.6318
31.7000 21.1031 0.6369
31.7200 21.1164 0.6302
31.7400 21.1297 0.6319
31.7600 21.1431 0.6363
31.7800 21.1565 0.6270
31.8000 21.1698 0.6284
31.8200 21.1831 0.6383
31.8400 21.1964 0.6241
31.8600 21.2098 0.6275
31.8800 21.2231 0.6339
31.9000 21.2364 0.6254
31.9200 21.2498 0.6276
31.9400 21.2631 0.6326
31.9600 21.2764 0.6254
31.9800 21.2897 0.6268
32.0000 21.3030 0.6268
32.0200 21.3164 0.6237
32.0400 21.3297 0.6237
32.0600 21.3431 0.6270
32.0800 21.3564 0.6193
32.1000 21.3698 0.6240
32.1200 21.3831 0.6237
32.1400 21.3965 0.6214
32.1600 21.4098 0.6158
32.1800 21.4231 0.6229
32.2000 21.4365 0.6205
32.2200 21.4498 0.6163
32.2400 21.4631 0.6198
32.2600 21.4764 0.6247
32.2800 21.4897 0.6200
32.3000 21.5031 0.6171
32.3200 21.5164 0.6186
32.3400 21.5297 0.6203
32.3600 21.5430 0.6179
32.3800 21.5564 0.6191
32.4000 21.5697 0.6195
32.4200 21.5831 0.6134
32.4400 21.5964 0.6167
32.4600 21.6097 0.6133
32.4800 21.6231 0.6160
32.5000 21.6364 0.6156
32.5200 21.6498 0.6134
32.5400 21.6631 0.6093
32.5600 21.6765 0.6168
32.5800 21.6898 0.6149
32.6000 21.7032 0.6074
32.6200 21.7165 0.6181
32.6400 21.7298 0.6211
32.6600 21.7431 0.6022
32.6800 21.7564 0.6164
32.7000 21.7697 0.6155
32.7200 21.7830 0.6064
32.7400 21.7964 0.6208
32.7600 21.8097 0.6122
32.7800 21.8230 0.6003
32.8000 21.8364 0.6189
32.8200 21.8498 0.6108
32.8400 21.8631 0.6006
32.8600 21.8765 0.6130
32.8800 21.8899 0.6115
32.9000 21.9032 0.5978
32.9200 21.9165 0.6150
32.9400 21.9298 0.6044
32.9600 21.9432 0.5986
32.9800 21.9565 0.6216
33.0000 21.9698 0.6007
33.0200 21.9831 0.6013
33.0400 21.9965 0.6141
33.0600 22.0098 0.6027
33.0800 22.0231 0.5982
33.1000 22.0364 0.6145
33.1200 22.0497 0.6023
33.1400 22.0631 0.6011
33.1600 22.0764 0.6119
33.1800 22.0897 0.6033
33.2000 22.1031 0.6065
33.2200 22.1165 0.6088
33.2400 22.1298 0.5998
33.2600 22.1431 0.6101
33.2800 22.1565 0.6030
33.3000 22.1698 0.6016
33.3200 22.1832 0.6044
33.3400 22.1964 0.6033
33.3600 22.2097 0.5992
33.3800 22.2231 0.5995
33.4000 22.2364 0.5989
33.4200 22.2497 0.6025
33.4400 22.2631 0.6012
33.4600 22.2764 0.5967
33.4800 22.2897 0.6012
33.5000 22.3031 0.5949
33.5200 22.3164 0.5942
33.5400 22.3297 0.6031
33.5600 22.3431 0.5970
33.5800 22.3565 0.5865
33.6000 22.3698 0.5975
33.6200 22.3831 0.5968
33.6400 22.3964 0.5888
33.6600 22.4098 0.5953
33.6800 22.4231 0.5919
33.7000 22.4365 0.5838
33.7200 22.4498 0.5963
33.7400 22.4631 0.5911
33.7600 22.4765 0.5864
33.7800 22.4898 0.5958
33.8000 22.5031 0.5868
33.8200 22.5164 0.5812
33.8400 22.5297 0.5963
33.8600 22.5431 0.5873
33.8800 22.5564 0.5829
33.9000 22.5697 0.5912
33.9200 22.5831 0.5841
33.9400 22.5965 0.5808
33.9600 22.6099 0.5895
33.9800 22.6232 0.5804
34.0000 22.6365 0.5817
34.0200 22.6499 0.5870
34.0400 22.6632 0.5842
34.0600 22.6765 0.5804
34.0800 22.6898 0.5809
34.1000 22.7031 0.5864
34.1200 22.7164 0.5815
34.1400 22.7297 0.5816
34.1600 22.7430 0.5818
34.1800 22.7563 0.5826
34.2000 22.7697 0.5797
34.2200 22.7831 0.5838
34.2400 22.7964 0.5760
34.2600 22.8097 0.5819
34.2800 22.8231 0.5822
34.3000 22.8365 0.5744
34.3200 22.8498 0.5786
34.3400 22.8632 0.5864
34.3600 22.8765 0.5773
34.3800 22.8898 0.5733
34.4000 22.9032 0.5805
34.4200 22.9165 0.5736
34.4400 22.9298 0.5722
34.4600 22.9431 0.5836
34.4800 22.9564 0.5712
34.5000 22.9698 0.5681
34.5200 22.9831 0.5806
34.5400 22.9964 0.5736
34.5600 23.0097 0.5698
34.5800 23.0231 0.5772
34.6000 23.0364 0.5688
34.6200 23.0497 0.5709
34.6400 23.0631 0.5782
34.6600 23.0765 0.5654
34.6800 23.0898 0.5713
34.7000 23.1031 0.5729
34.7200 23.1164 0.5697
34.7400 23.1298 0.5732
34.7600 23.1432 0.5748
34.7800 23.1565 0.5675
34.8000 23.1698 0.5710
34.8200 23.1831 0.5678
34.8400 23.1965 0.5699
34.8600 23.2098 0.5715
34.8800 23.2231 0.5670
34.9000 23.2364 0.5677
34.9200 23.2497 0.5752
34.9400 23.2631 0.5640
34.9600 23.2764 0.5661
34.9800 23.2898 0.5691
35.0000 23.3031 0.5689
35.0200 23.3165 0.5612
35.0400 23.3298 0.5687
35.0600 23.3431 0.5697
35.0800 23.3565 0.5592
35.1000 23.3698 0.5633
35.1200 23.3832 0.5686
35.1400 23.3965 0.5611
35.1600 23.4098 0.5642
35.1800 23.4231 0.5677
35.2000 23.4364 0.5581
35.2200 23.4498 0.5648
35.2400 23.4631 0.5698
35.2600 23.4764 0.5596
35.2800 23.4897 0.5617
35.3000 23.5031 0.5641
35.3200 23.5164 0.5606
35.3400 23.5297 0.5641
35.3600 23.5431 0.5608
35.3800 23.5565 0.5652
35.4000 23.5698 0.5521
35.4200 23.5832 0.5572
35.4400 23.5965 0.5676
35.4600 23.6098 0.5589
35.4800 23.6232 0.5552
35.5000 23.6365 0.5626
35.5200 23.6498 0.5597
35.5400 23.6631 0.5577
35.5600 23.6764 0.5573
35.5800 23.6898 0.5537
35.6000 23.7031 0.5539
35.6200 23.7164 0.5579
35.6400 23.7297 0.5455
35.6600 23.7431 0.5558
35.6800 23.7564 0.5591
35.7000 23.7698 0.5388
35.7200 23.7831 0.5583
35.7400 23.7965 0.5597
35.7600 23.8098 0.5342
35.7800 23.8231 0.5553
35.8000 23.8364 0.5606
35.8200 23.8498 0.5327
35.8400 23.8632 0.5562
35.8600 23.8765 0.5602
35.8800 23.8898 0.5303
35.9000 23.9031 0.5535
35.9200 23.9164 0.5527
35.9400 23.9298 0.5340
35.9600 23.9431 0.5547
35.9800 23.9563 0.5508
36.0000 23.9697 0.5329
36.0200 23.9830 0.5503
36.0400 23.9964 0.5420
36.0600 24.0097 0.5317
36.0800 24.0231 0.5571
36.1000 24.0365 0.5381
36.1200 24.0498 0.5322
36.1400 24.0632 0.5500
36.1600 24.0765 0.5360
36.1800 24.0898 0.5395
36.2000 24.1032 0.5475
36.2200 24.1165 0.5338
36.2400 24.1298 0.5403
36.2600 24.1431 0.5364
36.2800 24.1564 0.5404
36.3000 24.1697 0.5407
36.3200 24.1831 0.5308
36.3400 24.1964 0.5424
36.3600 24.2097 0.5433
36.3800 24.2231 0.5258
36.4000 24.2364 0.5396
36.4200 24.2498 0.5471
36.4400 24.2631 0.5220
36.4600 24.2765 0.5411
36.4800 24.2898 0.5428
36.5000 24.3031 0.5255
36.5200 24.3165 0.5444
36.5400 24.3298 0.5430
36.5600 24.3431 0.5257
36.5800 24.3565 0.5415
36.6000 24.3698 0.5417
36.6200 24.3831 0.5310
36.6400 24.3964 0.5427
36.6600 24.4098 0.5327
36.6800 24.4231 0.5281
36.7000 24.4364 0.5480
36.7200 24.4497 0.5306
36.7400 24.4631 0.5296
36.7600 24.4764 0.5415
36.7800 24.4898 0.5361
36.8000 24.5031 0.5255
36.8200 24.5165 0.5410
36.8400 24.5298 0.5299
36.8600 24.5431 0.5229
36.8800 24.5565 0.5395
36.9000 24.5698 0.5304
36.9200 24.5831 0.5241
36.9400 24.5965 0.5322
36.9600 24.6098 0.5284
36.9800 24.6231 0.5286
37.0000 24.6364 0.5317
37.0200 24.6498 0.5312
37.0400 24.6631 0.5271
37.0600 24.6764 0.5242
37.0800 24.6897 0.5292
37.1000 24.7031 0.5335
37.1200 24.7164 0.5284
37.1400 24.7297 0.5151
37.1600 24.7431 0.5358
37.1800 24.7565 0.5268
37.2000 24.7698 0.5164
37.2200 24.7832 0.5254
37.2400 24.7965 0.5274
37.2600 24.8098 0.5217
37.2800 24.8232 0.5227
37.3000 24.8365 0.5209
37.3200 24.8498 0.5171
37.3400 24.8631 0.5267
37.3600 24.8764 0.5289
37.3800 24.8898 0.5100
37.4000 24.9031 0.5198
37.4200 24.9164 0.5249
37.4400 24.9297 0.5189
37.4600 24.9431 0.5181
37.4800 24.9564 0.5224
37.5000 24.9697 0.5205
37.5200 24.9831 0.5105
37.5400 24.9964 0.5194
37.5600 25.0098 0.5241
37.5800 25.0231 0.5136
37.6000 25.0364 0.5158
37.6200 25.0498 0.5191
37.6400 25.0632 0.5157
37.6600 25.0765 0.5158
37.6800 25.0898 0.5141
37.7000 25.1031 0.5144
37.7200 25.1164 0.5200
37.7400 25.1298 0.5205
37.7600 25.1431 0.5060
37.7800 25.1564 0.5194
37.8000 25.1697 0.5191
37.8200 25.1830 0.5108
37.8400 25.1964 0.5135
37.8600 25.2097 0.5059
37.8800 25.2231 0.5144
37.9000 25.2365 0.5171
37.9200 25.2498 0.5021
37.9400 25.2632 0.5133
37.9600 25.2765 0.5162
37.9800 25.2898 0.4968
38.0000 25.3032 0.5114
38.0200 25.3165 0.5229
38.0400 25.3298 0.4901
38.0600 25.3431 0.5151
38.0800 25.3564 0.5173
38.1000 25.3698 0.4870
38.1200 25.3831 0.5184
38.1400 25.3964 0.5138
38.1600 25.4097 0.4848
38.1800 25.4230 0.5226
38.2000 25.4364 0.5098
38.2200 25.4497 0.4809
38.2400 25.4631 0.5268
38.2600 25.4764 0.5046
38.2800 25.4898 0.4787
38.3000 25.5032 0.5303
38.3200 25.5165 0.5003
38.3400 25.5298 0.4773
38.3600 25.5432 0.5352
38.3800 25.5565 0.4969
38.4000 25.5698 0.4849
38.4200 25.5831 0.5277
38.4400 25.5964 0.4988
38.4600 25.6097 0.4819
38.4800 25.6231 0.5199
38.5000 25.6364 0.5068
38.5200 25.6497 0.4890
38.5400 25.6631 0.5037
38.5600 25.6765 0.5011
38.5800 25.6898 0.4909
38.6000 25.7031 0.5034
38.6200 25.7164 0.4977
38.6400 25.7298 0.4938
38.6600 25.7431 0.4973
38.6800 25.7564 0.4966
38.7000 25.7698 0.4927
38.7200 25.7831 0.5003
38.7400 25.7965 0.4951
38.7600 25.8098 0.4908
38.7800 25.8231 0.5001
38.8000 25.8364 0.4962
38.8200 25.8498 0.4869
38.8400 25.8631 0.4964
38.8600 25.8764 0.4978
38.8800 25.8897 0.4833
38.9000 25.9031 0.4938
38.9200 25.9164 0.4975
38.9400 25.9297 0.4846
38.9600 25.9430 0.4899
38.9800 25.9564 0.4964
39.0000 25.9698 0.4897
39.0200 25.9831 0.4921
39.0400 25.9964 0.4862
39.0600 26.0098 0.4938
39.0800 26.0231 0.4927
39.1000 26.0365 0.4899
39.1200 26.0498 0.4884
39.1400 26.0631 0.4903
39.1600 26.0764 0.4829
39.1800 26.0898 0.4940
39.2000 26.1031 0.4880
39.2200 26.1164 0.4815
39.2400 26.1297 0.4921
39.2600 26.1430 0.4829
39.2800 26.1564 0.4846
39.3000 26.1697 0.4924
39.3200 26.1831 0.4844
39.3400 26.1964 0.4895
39.3600 26.2098 0.4853
39.3800 26.2232 0.4696
39.4000 26.2365 0.4949
39.4200 26.2498 0.4892
39.4400 26.2632 0.4653
39.4600 26.2765 0.4870
39.4800 26.2898 0.4883
39.5000 26.3031 0.4692
39.5200 26.3164 0.4890
39.5400 26.3298 0.4854
39.5600 26.3431 0.4724
39.5800 26.3564 0.4824
39.6000 26.3697 0.4840
39.6200 26.3831 0.4791
39.6400 26.3965 0.4832
39.6600 26.4098 0.4755
39.6800 26.4231 0.4741
39.7000 26.4364 0.4828
39.7200 26.4498 0.4776
39.7400 26.4631 0.4742
39.7600 26.4765 0.4770
39.7800 26.4898 0.4729
39.8000 26.5031 0.4810
39.8200 26.5165 0.4735
39.8400 26.5298 0.4744
39.8600 26.5431 0.4770
39.8800 26.5564 0.4712
39.9000 26.5698 0.4765
39.9200 26.5831 0.4757
39.9400 26.5964 0.4690
39.9600 26.6097 0.4775
39.9800 26.6230 0.4688
40.0000 26.6364 0.4686
40.0200 26.6497 0.4850
40.0400 26.6631 0.4645
40.0600 26.6764 0.4680
40.0800 26.6898 0.4817
40.1000 26.7032 0.4591
40.1200 26.7165 0.4686
40.1400 26.7298 0.4863
40.1600 26.7431 0.4525
40.1800 26.7565 0.4673
40.2000 26.7698 0.4769
40.2200 26.7831 0.4539
40.2400 26.7964 0.4750
40.2600 26.8098 0.4754
40.2800 26.8231 0.4469
40.3000 26.8364 0.4768
40.3200 26.8497 0.4660
40.3400 26.8631 0.4512
40.3600 26.8764 0.4768
40.3800 26.8897 0.4630
40.4000 26.9030 0.4526
40.4200 26.9164 0.4760
40.4400 26.9298 0.4604
40.4600 26.9431 0.4552
40.4800 26.9565 0.4707
40.5000 26.9698 0.4553
40.5200 26.9831 0.4532
40.5400 26.9965 0.4686
40.5600 27.0098 0.4579
40.5800 27.0231 0.4538
40.6000 27.0364 0.4665
40.6200 27.0497 0.4582
40.6400 27.0631 0.4548
40.6600 27.0764 0.4550
40.6800 27.0897 0.4647
40.7000 27.1030 0.4564
40.7200 27.1164 0.4497
40.7400 27.1298 0.4628
40.7600 27.1431 0.4575
40.7800 27.1564 0.4444
40.8000 27.1698 0.4611
40.8200 27.1831 0.4543
40.8400 27.1964 0.4525
40.8600 27.2097 0.4557
40.8800 27.2231 0.4511
40.9000 27.2365 0.4523
40.9200 27.2498 0.4584
40.9400 27.2631 0.4462
40.9600 27.2765 0.4564
40.9800 27.2898 0.4548
41.0000 27.3032 0.4461
41.0200 27.3165 0.4575
41.0400 27.3297 0.4537
41.0600 27.3431 0.4456
41.0800 27.3564 0.4574
41.1000 27.3697 0.4480
41.1200 27.3830 0.4473
41.1400 27.3964 0.4550
41.1600 27.4098 0.4445
41.1800 27.4232 0.4482
41.2000 27.4365 0.4470
41.2200 27.4498 0.4402
41.2400 27.4632 0.4487
41.2600 27.4765 0.4420
41.2800 27.4898 0.4409
41.3000 27.5031 0.4593
41.3200 27.5164 0.4325
41.3400 27.5297 0.4360
41.3600 27.5431 0.4551
41.3800 27.5564 0.4355
41.4000 27.5697 0.4406
41.4200 27.5830 0.4591
41.4400 27.5964 0.4283
41.4600 27.6097 0.4386
41.4800 27.6230 0.4533
41.5000 27.6364 0.4351
41.5200 27.6498 0.4425
41.5400 27.6632 0.4497
41.5600 27.6765 0.4238
41.5800 27.6898 0.4490
41.6000 27.7031 0.4509
41.6200 27.7165 0.4311
41.6400 27.7298 0.4463
41.6600 27.7431 0.4440
41.6800 27.7564 0.4405
41.7000 27.7697 0.4432
41.7200 27.7831 0.4439
41.7400 27.7964 0.4451
41.7600 27.8097 0.4390
41.7800 27.8230 0.4425
41.8000 27.8364 0.4455
41.8200 27.8498 0.4351
41.8400 27.8631 0.4512
41.8600 27.8764 0.4503
41.8800 27.8898 0.4344
41.9000 27.9032 0.4424
41.9200 27.9165 0.4512
41.9400 27.9298 0.4353
41.9600 27.9431 0.4460
41.9800 27.9565 0.4492
42.0000 27.9698 0.4362
42.0200 27.9831 0.4423
42.0400 27.9964 0.4437
42.0600 28.0098 0.4404
42.0800 28.0231 0.4469
42.1000 28.0364 0.4326
42.1200 28.0497 0.4377
42.1400 28.0630 0.4505
42.1600 28.0764 0.4352
42.1800 28.0897 0.4306
42.2000 28.1031 0.4475
42.2200 28.1164 0.4330
42.2400 28.1298 0.4336
42.2600 28.1432 0.4434
42.2800 28.1565 0.4245
42.3000 28.1698 0.4332
42.3200 28.1831 0.4415
42.3400 28.1965 0.4298
42.3600 28.2098 0.4347
42.3800 28.2231 0.4317
42.4000 28.2364 0.4216
42.4200 28.2497 0.4377
42.4400 28.2631 0.4284
42.4600 28.2764 0.4219
42.4800 28.2897 0.4360
42.5000 28.3031 0.4284
42.5200 28.3164 0.4147
42.5400 28.3297 0.4362
42.5600 28.3431 0.4200
42.5800 28.3564 0.4186
42.6000 28.3698 0.4243
42.6200 28.3831 0.4215
42.6400 28.3965 0.4208
42.6600 28.4098 0.4230
42.6800 28.4231 0.4183
42.7000 28.4365 0.4234
42.7200 28.4499 0.4163
42.7400 28.4632 0.4182
42.7600 28.4764 0.4192
42.7800 28.4898 0.4172
42.8000 28.5031 0.4159
42.8200 28.5164 0.4133
42.8400 28.5297 0.4145
42.8600 28.5430 0.4141
42.8800 28.5564 0.4161
42.9000 28.5697 0.4059
42.9200 28.5831 0.4180
42.9400 28.5964 0.4102
42.9600 28.6098 0.4148
42.9800 28.6231 0.4092
43.0000 28.6365 0.4073
43.0200 28.6498 0.4109
43.0400 28.6631 0.4082
43.0600 28.6765 0.4062
43.0800 28.6898 0.4120
43.1000 28.7031 0.4110
43.1200 28.7164 0.4039
43.1400 28.7298 0.4078
43.1600 28.7431 0.4118
43.1800 28.7564 0.4066
43.2000 28.7697 0.4170
43.2200 28.7830 0.4065
43.2400 28.7964 0.4017
43.2600 28.8097 0.4095
43.2800 28.8230 0.4117
43.3000 28.8364 0.4006
43.3200 28.8498 0.4097
43.3400 28.8632 0.4105
43.3600 28.8765 0.3993
43.3800 28.8899 0.4163
43.4000 28.9032 0.4135
43.4200 28.9165 0.3979
43.4400 28.9299 0.4172
43.4600 28.9431 0.4108
43.4800 28.9564 0.4019
43.5000 28.9697 0.4246
43.5200 28.9830 0.4081
43.5400 28.9964 0.3978
43.5600 29.0097 0.4273
43.5800 29.0231 0.4102
43.6000 29.0364 0.3991
43.6200 29.0498 0.4248
43.6400 29.0631 0.4088
43.6600 29.0765 0.4026
43.6800 29.0898 0.4262
43.7000 29.1032 0.4065
43.7200 29.1165 0.3984
43.7400 29.1298 0.4317
43.7600 29.1431 0.4001
43.7800 29.1565 0.4027
43.8000 29.1698 0.4276
43.8200 29.1831 0.3983
43.8400 29.1964 0.3996
43.8600 29.2097 0.4269
43.8800 29.2231 0.4036
43.9000 29.2364 0.4022
43.9200 29.2497 0.4245
43.9400 29.2630 0.4018
43.9600 29.2764 0.3988
43.9800 29.2897 0.4219
44.0000 29.3031 0.4060
44.0200 29.3164 0.4012
44.0400 29.3298 0.4194
44.0600 29.3431 0.4024
44.0800 29.3565 0.4018
44.1000 29.3698 0.4166
44.1200 29.3831 0.4071
44.1400 29.3965 0.3978
44.1600 29.4098 0.4135
44.1800 29.4231 0.4015
44.2000 29.4364 0.4023
44.2200 29.4497 0.4102
44.2400 29.4631 0.4053
44.2600 29.4764 0.3968
44.2800 29.4897 0.4141
44.3000 29.5030 0.4028
44.3200 29.5164 0.3996
44.3400 29.5297 0.4079
44.3600 29.5431 0.3983
44.3800 29.5564 0.4010
44.4000 29.5697 0.4059
44.4200 29.5831 0.3931
44.4400 29.5965 0.4043
44.4600 29.6098 0.3995
44.4800 29.6231 0.3884
44.5000 29.6365 0.4139
44.5200 29.6498 0.4054
44.5400 29.6631 0.3759
44.5600 29.6764 0.4076
44.5800 29.6897 0.4016
44.6000 29.7031 0.3817
44.6200 29.7164 0.4154
44.6400 29.7297 0.3855
44.6600 29.7431 0.3639
44.6800 29.7564 0.4257
44.7000 29.7697 0.4000
44.7200 29.7831 0.3474
44.7400 29.7964 0.4185
44.7600 29.8097 0.4046
44.7800 29.8231 0.3580
44.8000 29.8365 0.4074
44.8200 29.8498 0.3976
44.8400 29.8631 0.3609
44.8600 29.8765 0.4175
44.8800 29.8898 0.3866
44.9000 29.9032 0.3493
44.9200 29.9165 0.4185
44.9400 29.9298 0.4005
44.9600 29.9431 0.3511
44.9800 29.9564 0.4000
45.0000 29.9697 0.3957
45.0200 29.9831 0.3628
45.0400 29.9964 0.3980
45.0600 30.0097 0.3931
45.0800 30.0231 0.3620
45.1000 30.0364 0.4015
45.1200 30.0498 0.3787
45.1400 30.0632 0.3599
45.1600 30.0765 0.4000
45.1800 30.0898 0.3818
45.2000 30.1031 0.3654
45.2200 30.1164 0.3965
45.2400 30.1298 0.3772
45.2600 30.1431 0.3744
45.2800 30.1564 0.3883
45.3000 30.1697 0.3667
45.3200 30.1831 0.3846
45.3400 30.1964 0.3810
45.3600 30.2097 0.3573
45.3800 30.2230 0.3857
45.4000 30.2364 0.3855
45.4200 30.2497 0.3566
45.4400 30.2631 0.3773
45.4600 30.2764 0.3783
45.4800 30.2898 0.3692
45.5000 30.3031 0.3735
45.5200 30.3165 0.3728
45.5400 30.3298 0.3684
45.5600 30.3431 0.3718
45.5800 30.3565 0.3726
45.6000 30.3698 0.3667
45.6200 30.3831 0.3604
45.6400 30.3964 0.3803
45.6600 30.4097 0.3738
45.6800 30.4230 0.3519
45.7000 30.4364 0.3719
45.7200 30.4497 0.3823
45.7400 30.4630 0.3557
45.7600 30.4764 0.3660
45.7800 30.4898 0.3771
45.8000 30.5031 0.3532
45.8200 30.5164 0.3773
45.8400 30.5298 0.3681
45.8600 30.5431 0.3473
45.8800 30.5565 0.3839
45.9000 30.5698 0.3679
45.9200 30.5831 0.3405
45.9400 30.5964 0.3827
45.9600 30.6098 0.3711
45.9800 30.6231 0.3403
46.0000 30.6365 0.3787
46.0200 30.6498 0.3659
46.0400 30.6631 0.3466
46.0600 30.6765 0.3870
46.0800 30.6898 0.3483
46.1000 30.7031 0.3525
46.1200 30.7164 0.3913
46.1400 30.7297 0.3434
46.1600 30.7431 0.3389
46.1800 30.7564 0.3986
46.2000 30.7697 0.3456
46.2200 30.7831 0.3389
46.2400 30.7965 0.3904
46.2600 30.8098 0.3400
46.2800 30.8231 0.3517
46.3000 30.8365 0.3871
46.3200 30.8498 0.3216
46.3400 30.8632 0.3569
46.3600 30.8765 0.3903
46.3800 30.8898 0.3195
46.4000 30.9031 0.3593
46.4200 30.9165 0.3846
46.4400 30.9298 0.3215
46.4600 30.9431 0.3579
46.4800 30.9564 0.3709
46.5000 30.9697 0.3255
46.5200 30.9831 0.3814
46.5400 30.9964 0.3514
46.5600 31.0097 0.3260
46.5800 31.0231 0.3817
46.6000 31.0365 0.3428
46.6200 31.0498 0.3365
46.6400 31.0631 0.3799
46.6600 31.0765 0.3313
46.6800 31.0898 0.3490
46.7000 31.1031 0.3690
46.7200 31.1165 0.3302
46.7400 31.1298 0.3624
46.7600 31.1431 0.3698
46.7800 31.1565 0.3212
46.8000 31.1698 0.3591
46.8200 31.1831 0.3661
46.8400 31.1964 0.3327
46.8600 31.2098 0.3555
46.8800 31.2231 0.3554
46.9000 31.2364 0.3383
46.9200 31.2498 0.3580
46.9400 31.2631 0.3494
46.9600 31.2765 0.3454
46.9800 31.2898 0.3541
47.0000 31.3031 0.3486
47.0200 31.3165 0.3494
47.0400 31.3298 0.3482
47.0600 31.3432 0.3539
47.0800 31.3565 0.3553
47.1000 31.3698 0.3408
47.1200 31.3831 0.3421
47.1400 31.3964 0.3605
47.1600 31.4097 0.3445
47.1800 31.4230 0.3400
47.2000 31.4363 0.3560
47.2200 31.4497 0.3491
47.2400 31.4631 0.3408
47.2600 31.4764 0.3534
47.2800 31.4897 0.3451
47.3000 31.5031 0.3464
47.3200 31.5165 0.3518
47.3400 31.5298 0.3441
47.3600 31.5431 0.3457
47.3800 31.5564 0.3596
47.4000 31.5698 0.3426
47.4200 31.5832 0.3462
47.4400 31.5965 0.3575
47.4600 31.6098 0.3438
47.4800 31.6231 0.3468
47.5000 31.6364 0.3489
47.5200 31.6498 0.3404
47.5400 31.6631 0.3515
47.5600 31.6764 0.3501
47.5800 31.6897 0.3355
47.6000 31.7031 0.3496
47.6200 31.7164 0.3531
47.6400 31.7297 0.3368
47.6600 31.7431 0.3409
47.6800 31.7565 0.3548
47.7000 31.7698 0.3340
47.7200 31.7831 0.3342
47.7400 31.7965 0.3490
47.7600 31.8098 0.3473
47.7800 31.8232 0.3322
47.8000 31.8365 0.3403
47.8200 31.8498 0.3427
47.8400 31.8631 0.3330
47.8600 31.8764 0.3392
47.8800 31.8898 0.3435
47.9000 31.9031 0.3286
47.9200 31.9164 0.3377
47.9400 31.9297 0.3385
47.9600 31.9431 0.3252
47.9800 31.9564 0.3325
48.0000 31.9697 0.3387
48.0200 31.9831 0.3315
48.0400 31.9964 0.3280
48.0600 32.0098 0.3334
48.0800 32.0231 0.3292
48.1000 32.0364 0.3345
48.1200 32.0498 0.3330
48.1400 32.0631 0.3270
48.1600 32.0765 0.3294
48.1800 32.0898 0.3290
48.2000 32.1031 0.3294
48.2200 32.1165 0.3291
48.2400 32.1298 0.3273
48.2600 32.1431 0.3315
48.2800 32.1564 0.3254
48.3000 32.1697 0.3278
48.3200 32.1830 0.3261
48.3400 32.1964 0.3319
48.3600 32.2097 0.3270
48.3800 32.2231 0.3215
48.4000 32.2365 0.3272
48.4200 32.2498 0.3261
48.4400 32.2631 0.3189
48.4600 32.2765 0.3279
48.4800 32.2898 0.3268
48.5000 32.3032 0.3151
48.5200 32.3165 0.3258
48.5400 32.3298 0.3280
48.5600 32.3431 0.3131
48.5800 32.3564 0.3292
48.6000 32.3698 0.3238
48.6200 32.3830 0.3116
48.6400 32.3964 0.3204
48.6600 32.4097 0.3251
48.6800 32.4231 0.3113
48.7000 32.4364 0.3226
48.7200 32.4497 0.3217
48.7400 32.4631 0.3092
48.7600 32.4765 0.3221
48.7800 32.4898 0.3151
48.8000 32.5032 0.3089
48.8200 32.5165 0.3246
48.8400 32.5298 0.3187
48.8600 32.5432 0.3025
48.8800 32.5565 0.3222
48.9000 32.5698 0.3181
48.9200 32.5831 0.3094
48.9400 32.5964 0.3185
48.9600 32.6098 0.3166
48.9800 32.6231 0.3032
49.0000 32.6364 0.3201
49.0200 32.6497 0.3160
49.0400 32.6631 0.3051
49.0600 32.6764 0.3153
49.0800 32.6898 0.3126
49.1000 32.7031 0.3065
49.1200 32.7165 0.3123
49.1400 32.7298 0.3069
49.1600 32.7431 0.3100
49.1800 32.7565 0.3128
49.2000 32.7698 0.3099
49.2200 32.7832 0.3061
49.2400 32.7965 0.3146
49.2600 32.8098 0.3143
49.2800 32.8231 0.3004
49.3000 32.8364 0.3156
49.3200 32.8498 0.3151
49.3400 32.8631 0.2991
49.3600 32.8764 0.3160
49.3800 32.8897 0.3150
49.4000 32.9031 0.3040
49.4200 32.9164 0.3164
49.4400 32.9298 0.3178
49.4600 32.9431 0.3028
49.4800 32.9565 0.3175
49.5000 32.9698 0.3183
49.5200 32.9832 0.2952
49.5400 32.9965 0.3193
49.5600 33.0098 0.3157
49.5800 33.0232 0.2998
49.6000 33.0365 0.3136
49.6200 33.0497 0.3167
49.6400 33.0630 0.3004
49.6600 33.0764 0.3132
49.6800 33.0898 0.3102
49.7000 33.1031 0.3002
49.7200 33.1164 0.3115
49.7400 33.1297 0.3082
49.7600 33.1431 0.2972
49.7800 33.1564 0.3096
49.8000 33.1697 0.3052
49.8200 33.1831 0.3002
49.8400 33.1965 0.3044
49.8600 33.2098 0.3018
49.8800 33.2231 0.3018
49.9000 33.2365 0.3015
49.9200 33.2498 0.3049
49.9400 33.2632 0.2982
49.9600 33.2765 0.3005
49.9800 33.2898 0.3043
50.0000 33.3031 0.2955
50.0200 33.3164 0.2954
50.0400 33.3298 0.2998
50.0600 33.3431 0.2943
50.0800 33.3564 0.2967
50.1000 33.3697 0.2954
50.1200 33.3831 0.2957
50.1400 33.3964 0.2867
50.1600 33.4098 0.2952
50.1800 33.4231 0.2932
50.2000 33.4364 0.2937
50.2200 33.4498 0.2940
50.2400 33.4631 0.2864
50.2600 33.4764 0.2951
50.2800 33.4898 0.2932
50.3000 33.5032 0.2845
50.3200 33.5165 0.2948
50.3400 33.5298 0.2885
50.3600 33.5431 0.2871
50.3800 33.5564 0.2931
50.4000 33.5698 0.2876
50.4200 33.5831 0.2831
50.4400 33.5964 0.2935
50.4600 33.6097 0.2817
50.4800 33.6230 0.2840
50.5000 33.6364 0.2949
50.5200 33.6497 0.2792
50.5400 33.6631 0.2818
50.5600 33.6764 0.2867
50.5800 33.6898 0.2827
50.6000 33.7032 0.2797
50.6200 33.7165 0.2897
50.6400 33.7298 0.2793
50.6600 33.7432 0.2783
50.6800 33.7565 0.2884
50.7000 33.7698 0.2778
50.7200 33.7831 0.2764
50.7400 33.7964 0.2901
50.7600 33.8097 0.2734
50.7800 33.8231 0.2789
50.8000 33.8364 0.2870
50.8200 33.8497 0.2764
50.8400 33.8631 0.2737
50.8600 33.8765 0.2828
50.8800 33.8898 0.2703
50.9000 33.9031 0.2699
50.9200 33.9165 0.2826
50.9400 33.9298 0.2753
50.9600 33.9431 0.2660
50.9800 33.9564 0.2788
51.0000 33.9698 0.2733
51.0200 33.9831 0.2677
51.0400 33.9965 0.2725
51.0600 34.0098 0.2755
51.0800 34.0231 0.2608
51.1000 34.0364 0.2698
51.1200 34.0498 0.2732
51.1400 34.0631 0.2582
51.1600 34.0764 0.2710
51.1800 34.0897 0.2708
51.2000 34.1031 0.2555
51.2200 34.1164 0.2705
51.2400 34.1298 0.2778
51.2600 34.1431 0.2519
51.2800 34.1565 0.2704
51.3000 34.1698 0.2731
51.3200 34.1832 0.2529
51.3400 34.1965 0.2675
51.3600 34.2098 0.2767
51.3800 34.2232 0.2466
51.4000 34.2365 0.2700
51.4200 34.2498 0.2674
51.4400 34.2631 0.2475
51.4600 34.2764 0.2665
51.4800 34.2898 0.2683
51.5000 34.3031 0.2440
51.5200 34.3164 0.2693
51.5400 34.3297 0.2646
51.5600 34.3430 0.2487
51.5800 34.3564 0.2724
51.6000 34.3697 0.2564
51.6200 34.3831 0.2480
51.6400 34.3964 0.2709
51.6600 34.4098 0.2543
51.6800 34.4232 0.2488
51.7000 34.4365 0.2685
51.7200 34.4498 0.2516
51.7400 34.4632 0.2509
51.7600 34.4765 0.2654
51.7800 34.4898 0.2536
51.8000 34.5031 0.2521
51.8200 34.5164 0.2629
51.8400 34.5298 0.2460
51.8600 34.5431 0.2495
51.8800 34.5564 0.2589
51.9000 34.5697 0.2495
51.9200 34.5831 0.2521
51.9400 34.5964 0.2550
51.9600 34.6097 0.2459
51.9800 34.6231 0.2540
52.0000 34.6364 0.2553
52.0200 34.6498 0.2462
52.0400 34.6631 0.2506
52.0600 34.6764 0.2532
52.0800 34.6898 0.2425
52.1000 34.7032 0.2469
52.1200 34.7165 0.2429
52.1400 34.7298 0.2472
52.1600 34.7431 0.2440
52.1800 34.7564 0.2439
52.2000 34.7698 0.2474
52.2200 34.7831 0.2418
52.2400 34.7964 0.2461
52.2600 34.8097 0.2481
52.2800 34.8230 0.2430
52.3000 34.8364 0.2432
52.3200 34.8497 0.2475
52.3400 34.8631 0.2435
52.3600 34.8765 0.2460
52.3800 34.8898 0.2457
52.4000 34.9032 0.2402
52.4200 34.9165 0.2469
52.4400 34.9298 0.2529
52.4600 34.9431 0.2318
52.4800 34.9565 0.2537
52.5000 34.9698 0.2476
52.5200 34.9831 0.2313
52.5400 34.9964 0.2542
52.5600 35.0098 0.2498
52.5800 35.0231 0.2320
52.6000 35.0364 0.2589
52.6200 35.0497 0.2430
52.6400 35.0630 0.2315
52.6600 35.0764 0.2588
52.6800 35.0897 0.2403
52.7000 35.1031 0.2294
52.7200 35.1164 0.2604
52.7400 35.1298 0.2370
52.7600 35.1432 0.2312
52.7800 35.1565 0.2559
52.8000 35.1698 0.2354
52.8200 35.1832 0.2328
52.8400 35.1965 0.2549
52.8600 35.2098 0.2312
52.8800 35.2230 0.2390
52.9000 35.2364 0.2500
52.9200 35.2497 0.2308
52.9400 35.2631 0.2417
52.9600 35.2764 0.2483
52.9800 35.2897 0.2317
53.0000 35.3031 0.2436
53.0200 35.3165 0.2473
53.0400 35.3298 0.2243
53.0600 35.3431 0.2451
53.0800 35.3565 0.2450
53.1000 35.3698 0.2270
53.1200 35.3832 0.2412
53.1400 35.3965 0.2428
53.1600 35.4098 0.2214
53.1800 35.4231 0.2398
53.2000 35.4365 0.2409
53.2200 35.4498 0.2250
53.2400 35.4631 0.2443
53.2600 35.4764 0.2410
53.2800 35.4898 0.2217
53.3000 35.5031 0.2451
53.3200 35.5164 0.2382
53.3400 35.5297 0.2236
53.3600 35.5430 0.2430
53.3800 35.5564 0.2334
53.4000 35.5697 0.2250
53.4200 35.5831 0.2407
53.4400 35.5964 0.2293
53.4600 35.6098 0.2234
53.4800 35.6231 0.2409
53.5000 35.6365 0.2270
53.5200 35.6498 0.2238
53.5400 35.6631 0.2410
53.5600 35.6765 0.2238
53.5800 35.6898 0.2205
53.6000 35.7031 0.2388
53.6200 35.7164 0.2235
53.6400 35.7298 0.2214
53.6600 35.7431 0.2337
53.6800 35.7564 0.2199
53.7000 35.7697 0.2190
53.7200 35.7830 0.2356
53.7400 35.7964 0.2150
53.7600 35.8097 0.2204
53.7800 35.8231 0.2343
53.8000 35.8364 0.2154
53.8200 35.8498 0.2131
53.8400 35.8631 0.2283
53.8600 35.8765 0.2164
53.8800 35.8898 0.2174
53.9000 35.9032 0.2255
53.9200 35.9165 0.2103
53.9400 35.9298 0.2202
53.9600 35.9431 0.2286
53.9800 35.9564 0.2106
54.0000 35.9697 0.2180
54.0200 35.9831 0.2244
54.0400 35.9964 0.2086
54.0600 36.0097 0.2197
54.0800 36.0231 0.2194
54.1000 36.0364 0.2092
54.1200 36.0498 0.2144
54.1400 36.0631 0.2151
54.1600 36.0764 0.2085
54.1800 36.0898 0.2193
54.2000 36.1031 0.2129
54.2200 36.1165 0.2058
54.2400 36.1298 0.2120
54.2600 36.1431 0.2201
54.2800 36.1565 0.2051
54.3000 36.1698 0.2115
54.3200 36.1831 0.2153
54.3400 36.1964 0.2098
54.3600 36.2098 0.2048
54.3800 36.2231 0.2172
54.4000 36.2364 0.2057
54.4200 36.2497 0.2046
54.4400 36.2630 0.2171
54.4600 36.2764 0.2017
54.4800 36.2897 0.1975
54.5000 36.3031 0.2211
54.5200 36.3164 0.1987
54.5400 36.3298 0.1923
54.5600 36.3432 0.2234
54.5800 36.3565 0.1955
54.6000 36.3698 0.1934
54.6200 36.3831 0.2212
54.6400 36.3965 0.1884
54.6600 36.4098 0.1914
54.6800 36.4231 0.2178
54.7000 36.4364 0.1856
54.7200 36.4497 0.1914
54.7400 36.4631 0.2180
54.7600 36.4764 0.1818
54.7800 36.4897 0.1867
54.8000 36.5030 0.2193
54.8200 36.5164 0.1768
54.8400 36.5297 0.1902
54.8600 36.5431 0.2085
54.8800 36.5564 0.1854
54.9000 36.5698 0.1866
54.9200 36.5832 0.2027
54.9400 36.5965 0.1794
54.9600 36.6098 0.1862
54.9800 36.6231 0.1996
55.0000 36.6365 0.1805
55.0200 36.6498 0.1828
55.0400 36.6631 0.1995
55.0600 36.6764 0.1720
55.0800 36.6897 0.1848
55.1000 36.7031 0.1986
55.1200 36.7164 0.1750
55.1400 36.7297 0.1802
55.1600 36.7430 0.1908
55.1800 36.7564 0.1749
55.2000 36.7698 0.1814
55.2200 36.7831 0.1897
55.2400 36.7964 0.1774
55.2600 36.8098 0.1787
55.2800 36.8231 0.1813
55.3000 36.8364 0.1744
55.3200 36.8498 0.1813
55.3400 36.8631 0.1847
55.3600 36.8765 0.1782
55.3800 36.8898 0.1805
55.4000 36.9031 0.1814
55.4200 36.9165 0.1764
55.4400 36.9298 0.1749
55.4600 36.9432 0.1761
55.4800 36.9565 0.1799
55.5000 36.9697 0.1731
55.5200 36.9830 0.1745
55.5400 36.9964 0.1807
55.5600 37.0097 0.1695
55.5800 37.0230 0.1714
55.6000 37.0364 0.1813
55.6200 37.0498 0.1750
55.6400 37.0632 0.1680
55.6600 37.0765 0.1798
55.6800 37.0898 0.1692
55.7000 37.1032 0.1677
55.7200 37.1165 0.1783
55.7400 37.1298 0.1691
55.7600 37.1431 0.1758
55.7800 37.1564 0.1824
55.8000 37.1698 0.1648
55.8200 37.1831 0.1723
55.8400 37.1964 0.1817
55.8600 37.2097 0.1611
55.8800 37.2230 0.1752
55.9000 37.2364 0.1780
55.9200 37.2497 0.1591
55.9400 37.2631 0.1733
55.9600 37.2764 0.1777
55.9800 37.2898 0.1569
56.0000 37.3032 0.1727
56.0200 37.3165 0.1726
56.0400 37.3298 0.1592
56.0600 37.3432 0.1716
56.0800 37.3565 0.1708
56.1000 37.3699 0.1528
56.1200 37.3831 0.1770
56.1400 37.3964 0.1702
56.1600 37.4097 0.1555
56.1800 37.4231 0.1715
56.2000 37.4364 0.1678
56.2200 37.4497 0.1506
56.2400 37.4630 0.1741
56.2600 37.4764 0.1623
56.2800 37.4897 0.1459
56.3000 37.5031 0.1722
56.3200 37.5164 0.1606
56.3400 37.5298 0.1479
56.3600 37.5431 0.1710
56.3800 37.5565 0.1589
56.4000 37.5698 0.1476
56.4200 37.5831 0.1683
56.4400 37.5965 0.1533
56.4600 37.6098 0.1484
56.4800 37.6231 0.1633
56.5000 37.6364 0.1512
56.5200 37.6498 0.1470
56.5400 37.6631 0.1667
56.5600 37.6764 0.1463
56.5800 37.6897 0.1486
56.6000 37.7030 0.1590
56.6200 37.7164 0.1487
56.6400 37.7298 0.1418
56.6600 37.7431 0.1606
56.6800 37.7564 0.1467
56.7000 37.7698 0.1402
56.7200 37.7832 0.1528
56.7400 37.7965 0.1464
56.7600 37.8098 0.1395
56.7800 37.8231 0.1483
56.8000 37.8365 0.1430
56.8200 37.8498 0.1429
56.8400 37.8631 0.1442
56.8600 37.8764 0.1400
56.8800 37.8897 0.1448
56.9000 37.9031 0.1431
56.9200 37.9164 0.1393
56.9400 37.9297 0.1432
56.9600 37.9431 0.1387
56.9800 37.9564 0.1449
57.0000 37.9697 0.1450
57.0200 37.9831 0.1372
57.0400 37.9964 0.1437
57.0600 38.0098 0.1402
57.0800 38.0232 0.1306
57.1000 38.0365 0.1409
57.1200 38.0498 0.1423
57.1400 38.0631 0.1298
57.1600 38.0765 0.1385
57.1800 38.0899 0.1366
57.2000 38.1032 0.1290
57.2200 38.1164 0.1352
57.2400 38.1297 0.1394
57.2600 38.1431 0.1257
57.2800 38.1564 0.1330
57.3000 38.1697 0.1394
57.3200 38.1830 0.1245
57.3400 38.1964 0.1317
57.3600 38.2097 0.1379
57.3800 38.2231 0.1233
57.4000 38.2364 0.1310
57.4200 38.2497 0.1344
57.4400 38.2631 0.1240
57.4600 38.2765 0.1284
57.4800 38.2898 0.1335
57.5000 38.3031 0.1135
57.5200 38.3165 0.1342
57.5400 38.3298 0.1343
57.5600 38.3432 0.1128
57.5800 38.3565 0.1342
57.6000 38.3698 0.1276
57.6200 38.3831 0.1086
57.6400 38.3964 0.1372
57.6600 38.4097 0.1312
57.6800 38.4230 0.1123
57.7000 38.4364 0.1377
57.7200 38.4497 0.1213
57.7400 38.4630 0.1123
57.7600 38.4764 0.1387
57.7800 38.4897 0.1233
57.8000 38.5031 0.1115
57.8200 38.5165 0.1347
57.8400 38.5298 0.1175
57.8600 38.5432 0.1173
57.8800 38.5565 0.1303
57.9000 38.5698 0.1186
57.9200 38.5831 0.1099
57.9400 38.5964 0.1257
57.9600 38.6097 0.1143
57.9800 38.6231 0.1136
58.0000 38.6364 0.1188
58.0200 38.6497 0.1096
58.0400 38.6630 0.1125
58.0600 38.6764 0.1119
58.0800 38.6898 0.1097
58.1000 38.7031 0.1044
58.1200 38.7164 0.1119
58.1400 38.7298 0.1107
58.1600 38.7432 0.0989
58.1800 38.7565 0.1103
58.2000 38.7698 0.1108
58.2200 38.7831 0.0915
58.2400 38.7965 0.1088
58.2600 38.8098 0.1069
58.2800 38.8231 0.0898
58.3000 38.8364 0.1079
58.3200 38.8498 0.1016
58.3400 38.8631 0.0839
58.3600 38.8764 0.1050
58.3800 38.8897 0.0941
58.4000 38.9030 0.0857
58.4200 38.9164 0.1046
58.4400 38.9298 0.0943
58.4600 38.9431 0.0772
58.4800 38.9564 0.1039
58.5000 38.9698 0.0876
58.5200 38.9832 0.0787
58.5400 38.9965 0.1009
58.5600 39.0098 0.0865
58.5800 39.0231 0.0755
58.6000 39.0365 0.0970
58.6200 39.0498 0.0823
58.6400 39.0632 0.0750
58.6600 39.0764 0.0913
58.6800 39.0897 0.0835
58.7000 39.1031 0.0760
58.7200 39.1164 0.0867
58.7400 39.1297 0.0811
58.7600 39.1430 0.0798
58.7800 39.1564 0.0798
58.8000 39.1697 0.0749
58.8200 39.1831 0.0777
58.8400 39.1964 0.0735
58.8600 39.2097 0.0775
58.8800 39.2231 0.0743
58.9000 39.2365 0.0677
58.9200 39.2498 0.0729
58.9400 39.2631 0.0775
58.9600 39.2765 0.0678
58.9800 39.2898 0.0736
59.0000 39.3031 0.0701
59.0200 39.3164 0.0621
59.0400 39.3298 0.0728
59.0600 39.3431 0.0704
59.0800 39.3564 0.0642
59.1000 39.3697 0.0720
59.1200 39.3830 0.0650
59.1400 39.3964 0.0618
59.1600 39.4098 0.0703
59.1800 39.4231 0.0652
59.2000 39.4364 0.0590
59.2200 39.4497 0.0672
59.2400 39.4631 0.0606
59.2600 39.4765 0.0545
59.2800 39.4898 0.0601
59.3000 39.5031 0.0651
59.3200 39.5165 0.0567
59.3400 39.5298 0.0560
59.3600 39.5432 0.0601
59.3800 39.5565 0.0530
59.4000 39.5698 0.0587
59.4200 39.5831 0.0649
59.4400 39.5964 0.0444
59.4600 39.6097 0.0547
59.4800 39.6231 0.0635
59.5000 39.6364 0.0470
59.5200 39.6497 0.0569
59.5400 39.6631 0.0623
59.5600 39.6764 0.0451
59.5800 39.6898 0.0583
59.6000 39.7031 0.0623
59.6200 39.7165 0.0385
59.6400 39.7298 0.0605
59.6600 39.7431 0.0612
59.6800 39.7565 0.0369
59.7000 39.7698 0.0592
59.7200 39.7832 0.0556
59.7400 39.7965 0.0370
59.7600 39.8098 0.0637
59.7800 39.8231 0.0520
59.8000 39.8364 0.0364
59.8200 39.8498 0.0569
59.8400 39.8631 0.0516
59.8600 39.8764 0.0399
59.8800 39.8897 0.0545
59.9000 39.9031 0.0424
59.9200 39.9164 0.0368
59.9400 39.9297 0.0506
59.9600 39.9431 0.0455
59.9800 39.9565 0.0269
60.0000 39.9698 0.0405
60.0200 39.9831 0.0452
60.0400 39.9964 0.0229
60.0460 40.0003 0.0109
