Raw Data
Time Displacement Force
(s) (mm) (N)
0.0000 0.0000 0.2765
0.0200 0.0001 0.3025
0.0400 0.0022 0.3625
0.0600 0.0101 0.3739
0.0800 0.0220 0.2946
0.1000 0.0344 0.2844
0.1200 0.0471 0.3198
0.1400 0.0606 0.2893
0.1600 0.0747 0.2847
0.1800 0.0888 0.2906
0.2000 0.1028 0.2749
0.2200 0.1163 0.2907
0.2400 0.1297 0.3014
0.2600 0.1430 0.2808
0.2800 0.1563 0.2960
0.3000 0.1697 0.2919
0.3200 0.1831 0.2753
0.3400 0.1964 0.2994
0.3600 0.2097 0.2864
0.3800 0.2231 0.2712
0.4000 0.2364 0.2898
0.4200 0.2497 0.2851
0.4400 0.2630 0.2798
0.4600 0.2764 0.2857
0.4800 0.2897 0.2839
0.5000 0.3031 0.2784
0.5200 0.3164 0.2793
0.5400 0.3297 0.2810
0.5600 0.3430 0.2844
0.5800 0.3563 0.2790
0.6000 0.3697 0.2784
0.6200 0.3831 0.2833
0.6400 0.3964 0.2806
0.6600 0.4098 0.2769
0.6800 0.4232 0.2842
0.7000 0.4365 0.2749
0.7200 0.4498 0.2781
0.7400 0.4631 0.2785
0.7600 0.4765 0.2745
0.7800 0.4898 0.2816
0.8000 0.5031 0.2754
0.8200 0.5164 0.2763
0.8400 0.5298 0.2803
0.8600 0.5431 0.2713
0.8800 0.5564 0.2749
0.9000 0.5697 0.2820
0.9200 0.5830 0.2717
0.9400 0.5963 0.2800
0.9600 0.6097 0.2788
0.9800 0.6230 0.2740
1.0000 0.6364 0.2744
1.0200 0.6497 0.2738
1.0400 0.6631 0.2605
1.0600 0.6764 0.2691
1.0800 0.6898 0.2717
1.1000 0.7031 0.2657
1.1200 0.7164 0.2646
1.1400 0.7298 0.2646
1.1600 0.7431 0.2646
1.1800 0.7564 0.2643
1.2000 0.7697 0.2607
1.2200 0.7831 0.2572
1.2400 0.7964 0.2599
1.2600 0.8097 0.2649
1.2800 0.8230 0.2589
1.3000 0.8364 0.2639
1.3200 0.8497 0.2632
1.3400 0.8630 0.2601
1.3600 0.8764 0.2603
1.3800 0.8897 0.2601
1.4000 0.9031 0.2585
1.4200 0.9164 0.2558
1.4400 0.9297 0.2638
1.4600 0.9431 0.2627
1.4800 0.9565 0.2598
1.5000 0.9698 0.2612
1.5200 0.9831 0.2585
1.5400 0.9964 0.2565
1.5600 1.0097 0.2628
1.5800 1.0231 0.2567
1.6000 1.0364 0.2560
1.6200 1.0497 0.2595
1.6400 1.0630 0.2564
1.6600 1.0764 0.2527
1.6800 1.0897 0.2593
1.7000 1.1030 0.2567
1.7200 1.1164 0.2510
1.7400 1.1298 0.2591
1.7600 1.1432 0.2551
1.7800 1.1565 0.2489
1.8000 1.1698 0.2615
1.8200 1.1831 0.2512
1.8400 1.1965 0.2481
1.8600 1.2098 0.2522
1.8800 1.2231 0.2515
1.9000 1.2364 0.2463
1.9200 1.2497 0.2553
1.9400 1.2631 0.2485
1.9600 1.2764 0.2439
1.9800 1.2897 0.2530
2.0000 1.3030 0.2450
2.0200 1.3164 0.2406
2.0400 1.3297 0.2513
2.0600 1.3430 0.2429
2.0800 1.3564 0.2440
2.1000 1.3698 0.2481
2.1200 1.3831 0.2436
2.1400 1.3965 0.2434
2.1600 1.4098 0.2524
2.1800 1.4231 0.2402
2.2000 1.4365 0.2387
2.2200 1.4498 0.2460
2.2400 1.4631 0.2393
2.2600 1.4764 0.2446
2.2800 1.4897 0.2465
2.3000 1.5030 0.2388
2.3200 1.5164 0.2409
2.3400 1.5297 0.2459
2.3600 1.5431 0.2383
2.3800 1.5564 0.2448
2.4000 1.5698 0.2495
2.4200 1.5831 0.2356
2.4400 1.5964 0.2424
2.4600 1.6097 0.2445
2.4800 1.6231 0.2358
2.5000 1.6364 0.2433
2.5200 1.6497 0.2406
2.5400 1.6630 0.2366
2.5600 1.6764 0.2453
2.5800 1.6898 0.2371
2.6000 1.7031 0.2372
2.6200 1.7164 0.2428
2.6400 1.7298 0.2372
2.6600 1.7431 0.2405
2.6800 1.7565 0.2370
2.7000 1.7697 0.2418
2.7200 1.7831 0.2407
2.7400 1.7964 0.2344
2.7600 1.8097 0.2352
2.7800 1.8230 0.2383
2.8000 1.8364 0.2337
2.8200 1.8497 0.2405
2.8400 1.8631 0.2362
2.8600 1.8764 0.2269
2.8800 1.8898 0.2367
2.9000 1.9031 0.2363
2.9200 1.9164 0.2279
2.9400 1.9298 0.2385
2.9600 1.9431 0.2300
2.9800 1.9564 0.2272
3.0000 1.9698 0.2360
3.0200 1.9831 0.2307
3.0400 1.9964 0.2273
3.0600 2.0097 0.2338
3.0800 2.0230 0.2262
3.1000 2.0364 0.2277
3.1200 2.0497 0.2365
3.1400 2.0630 0.2255
3.1600 2.0764 0.2276
3.1800 2.0898 0.2291
3.2000 2.1031 0.2235
3.2200 2.1165 0.2285
3.2400 2.1298 0.2316
3.2600 2.1431 0.2257
3.2800 2.1565 0.2280
3.3000 2.1698 0.2290
3.3200 2.1831 0.2249
3.3400 2.1964 0.2252
3.3600 2.2097 0.2296
3.3800 2.2231 0.2276
3.4000 2.2364 0.2196
3.4200 2.2497 0.2298
3.4400 2.2630 0.2298
3.4600 2.2764 0.2225
3.4800 2.2897 0.2292
3.5000 2.3031 0.2294
3.5200 2.3164 0.2189
3.5400 2.3297 0.2218
3.5600 2.3431 0.2303
3.5800 2.3565 0.2162
3.6000 2.3698 0.2207
3.6200 2.3831 0.2289
3.6400 2.3965 0.2165
3.6600 2.4098 0.2190
3.6800 2.4231 0.2309
3.7000 2.4364 0.2164
3.7200 2.4498 0.2153
3.7400 2.4631 0.2263
3.7600 2.4764 0.2211
3.7800 2.4897 0.2159
3.8000 2.5030 0.2228
3.8200 2.5163 0.2161
3.8400 2.5297 0.2166
3.8600 2.5430 0.2204
3.8800 2.5564 0.2179
3.9000 2.5697 0.2192
3.9200 2.5831 0.2143
3.9400 2.5965 0.2146
3.9600 2.6098 0.2189
3.9800 2.6231 0.2175
4.0000 2.6364 0.2119
4.0200 2.6498 0.2200
4.0400 2.6631 0.2118
4.0600 2.6764 0.2164
4.0800 2.6897 0.2172
4.1000 2.7031 0.2112
4.1200 2.7164 0.2146
4.1400 2.7297 0.2162
4.1600 2.7431 0.2144
4.1800 2.7564 0.2114
4.2000 2.7697 0.2183
4.2200 2.7830 0.2158
4.2400 2.7963 0.2072
4.2600 2.8097 0.2191
4.2800 2.8231 0.2136
4.3000 2.8365 0.2076
4.3200 2.8498 0.2147
4.3400 2.8631 0.2150
4.3600 2.8765 0.2066
4.3800 2.8898 0.2146
4.4000 2.9031 0.2118
4.4200 2.9164 0.2051
4.4400 2.9297 0.2176
4.4600 2.9431 0.2128
4.4800 2.9564 0.2012
4.5000 2.9697 0.2208
4.5200 2.9830 0.2126
4.5400 2.9964 0.2030
4.5600 3.0097 0.2198
4.5800 3.0231 0.2074
4.6000 3.0364 0.2081
4.6200 3.0497 0.2159
4.6400 3.0631 0.2073
4.6600 3.0764 0.2032
4.6800 3.0897 0.2193
4.7000 3.1031 0.2080
4.7200 3.1164 0.2004
4.7400 3.1298 0.2180
4.7600 3.1431 0.2061
4.7800 3.1565 0.2076
4.8000 3.1698 0.2158
4.8200 3.1831 0.2017
4.8400 3.1965 0.2090
4.8600 3.2098 0.2130
4.8800 3.2230 0.2049
4.9000 3.2363 0.2067
4.9200 3.2496 0.2135
4.9400 3.2630 0.2001
4.9600 3.2763 0.2047
4.9800 3.2897 0.2111
5.0000 3.3031 0.2022
5.0200 3.3165 0.2036
5.0400 3.3298 0.2044
5.0600 3.3432 0.2042
5.0800 3.3565 0.2074
5.1000 3.3698 0.2065
5.1200 3.3831 0.2027
5.1400 3.3964 0.2070
5.1600 3.4097 0.2023
5.1800 3.4231 0.2020
5.2000 3.4364 0.2035
5.2200 3.4497 0.2027
5.2400 3.4630 0.2026
5.2600 3.4763 0.2013
5.2800 3.4897 0.2022
5.3000 3.5030 0.2042
5.3200 3.5164 0.2019
5.3400 3.5297 0.2068
5.3600 3.5431 0.1987
5.3800 3.5565 0.1968
5.4000 3.5698 0.2027
5.4200 3.5831 0.1981
5.4400 3.5965 0.1980
5.4600 3.6098 0.2065
5.4800 3.6231 0.1952
5.5000 3.6364 0.1982
5.5200 3.6497 0.2033
5.5400 3.6631 0.1942
5.5600 3.6764 0.1980
5.5800 3.6897 0.2019
5.6000 3.7030 0.1941
5.6200 3.7163 0.1995
5.6400 3.7297 0.2019
5.6600 3.7431 0.1885
5.6800 3.7564 0.2007
5.7000 3.7697 0.2025
5.7200 3.7831 0.1915
5.7400 3.7965 0.2043
5.7600 3.8098 0.1927
5.7800 3.8231 0.1937
5.8000 3.8364 0.1994
5.8200 3.8498 0.1933
5.8400 3.8631 0.1974
5.8600 3.8765 0.2007
5.8800 3.8898 0.1880
5.9000 3.9031 0.1924
5.9200 3.9164 0.1976
5.9400 3.9297 0.1866
5.9600 3.9430 0.1980
5.9800 3.9563 0.1985
6.0000 3.9697 0.1854
6.0200 3.9831 0.1951
6.0400 3.9964 0.1969
6.0600 4.0097 0.1860
6.0800 4.0231 0.1960
6.1000 4.0365 0.1938
6.1200 4.0498 0.1847
6.1400 4.0631 0.1971
6.1600 4.0765 0.1931
6.1800 4.0898 0.1902
6.2000 4.1031 0.1982
6.2200 4.1164 0.1899
6.2400 4.1297 0.1909
6.2600 4.1431 0.1962
6.2800 4.1564 0.1922
6.3000 4.1697 0.1928
6.3200 4.1830 0.1905
6.3400 4.1964 0.1870
6.3600 4.2097 0.1929
6.3800 4.2231 0.1935
6.4000 4.2364 0.1907
6.4200 4.2497 0.1941
6.4400 4.2631 0.1885
6.4600 4.2764 0.1890
6.4800 4.2898 0.1958
6.5000 4.3031 0.1860
6.5200 4.3164 0.1966
6.5400 4.3298 0.1930
6.5600 4.3432 0.1799
6.5800 4.3565 0.1954
6.6000 4.3698 0.1943
6.6200 4.3831 0.1827
6.6400 4.3964 0.1926
6.6600 4.4097 0.1871
6.6800 4.4231 0.1824
6.7000 4.4364 0.1914
6.7200 4.4497 0.1863
6.7400 4.4630 0.1833
6.7600 4.4764 0.1901
6.7800 4.4897 0.1846
6.8000 4.5031 0.1803
6.8200 4.5165 0.1918
6.8400 4.5298 0.1834
6.8600 4.5431 0.1753
6.8800 4.5564 0.1913
6.9000 4.5698 0.1845
6.9200 4.5831 0.1728
6.9400 4.5964 0.1905
6.9600 4.6097 0.1864
6.9800 4.6231 0.1746
7.0000 4.6364 0.1921
7.0200 4.6497 0.1852
7.0400 4.6630 0.1777
7.0600 4.6763 0.1902
7.0800 4.6897 0.1787
7.1000 4.7030 0.1714
7.1200 4.7163 0.1921
7.1400 4.7297 0.1855
7.1600 4.7431 0.1684
7.1800 4.7565 0.1882
7.2000 4.7699 0.1864
7.2200 4.7832 0.1651
7.2400 4.7965 0.1896
7.2600 4.8098 0.1837
7.2800 4.8232 0.1678
7.3000 4.8364 0.1921
7.3200 4.8497 0.1792
7.3400 4.8630 0.1685
7.3600 4.8763 0.1932
7.3800 4.8897 0.1765
7.4000 4.9030 0.1641
7.4200 4.9164 0.1931
7.4400 4.9297 0.1746
7.4600 4.9431 0.1693
7.4800 4.9564 0.1953
7.5000 4.9698 0.1710
7.5200 4.9831 0.1674
7.5400 4.9965 0.1912
7.5600 5.0098 0.1697
7.5800 5.0231 0.1725
7.6000 5.0364 0.1890
7.6200 5.0498 0.1642
7.6400 5.0631 0.1723
7.6600 5.0764 0.1870
7.6800 5.0897 0.1643
7.7000 5.1030 0.1748
7.7200 5.1164 0.1773
7.7400 5.1297 0.1623
7.7600 5.1430 0.1763
7.7800 5.1563 0.1753
7.8000 5.1697 0.1639
7.8200 5.1830 0.1769
7.8400 5.1964 0.1770
7.8600 5.2097 0.1625
7.8800 5.2231 0.1762
7.9000 5.2365 0.1732
7.9200 5.2498 0.1657
7.9400 5.2631 0.1753
7.9600 5.2764 0.1719
7.9800 5.2898 0.1675
8.0000 5.3032 0.1725
8.0200 5.3165 0.1687
8.0400 5.3298 0.1671
8.0600 5.3431 0.1678
8.0800 5.3564 0.1719
8.1000 5.3697 0.1649
8.1200 5.3830 0.1715
8.1400 5.3964 0.1757
8.1600 5.4097 0.1668
8.1800 5.4230 0.1656
8.2000 5.4364 0.1732
8.2200 5.4497 0.1650
8.2400 5.4631 0.1685
8.2600 5.4764 0.1746
8.2800 5.4898 0.1615
8.3000 5.5031 0.1649
8.3200 5.5164 0.1749
8.3400 5.5298 0.1610
8.3600 5.5431 0.1647
8.3800 5.5564 0.1799
8.4000 5.5697 0.1624
8.4200 5.5831 0.1628
8.4400 5.5964 0.1783
8.4600 5.6098 0.1554
8.4800 5.6231 0.1664
8.5000 5.6364 0.1772
8.5200 5.6497 0.1582
8.5400 5.6631 0.1656
8.5600 5.6764 0.1782
8.5800 5.6897 0.1579
8.6000 5.7031 0.1632
8.6200 5.7164 0.1775
8.6400 5.7298 0.1533
8.6600 5.7431 0.1635
8.6800 5.7564 0.1768
8.7000 5.7698 0.1557
8.7200 5.7832 0.1607
8.7400 5.7965 0.1711
8.7600 5.8098 0.1511
8.7800 5.8231 0.1668
8.8000 5.8364 0.1699
8.8200 5.8497 0.1538
8.8400 5.8630 0.1631
8.8600 5.8763 0.1650
8.8800 5.8897 0.1520
8.9000 5.9030 0.1634
8.9200 5.9164 0.1661
8.9400 5.9297 0.1547
8.9600 5.9431 0.1617
8.9800 5.9565 0.1605
9.0000 5.9698 0.1564
9.0200 5.9831 0.1637
9.0400 5.9964 0.1582
9.0600 6.0098 0.1619
9.0800 6.0231 0.1593
9.1000 6.0365 0.1581
9.1200 6.0497 0.1613
9.1400 6.0630 0.1617
9.1600 6.0764 0.1587
9.1800 6.0897 0.1575
9.2000 6.1030 0.1590
9.2200 6.1163 0.1610
9.2400 6.1297 0.1616
9.2600 6.1430 0.1574
9.2800 6.1564 0.1556
9.3000 6.1697 0.1588
9.3200 6.1831 0.1553
9.3400 6.1964 0.1550
9.3600 6.2098 0.1604
9.3800 6.2231 0.1574
9.4000 6.2365 0.1518
9.4200 6.2498 0.1619
9.4400 6.2631 0.1591
9.4600 6.2764 0.1536
9.4800 6.2897 0.1582
9.5000 6.3030 0.1562
9.5200 6.3164 0.1531
9.5400 6.3297 0.1547
9.5600 6.3430 0.1591
9.5800 6.3564 0.1545
9.6000 6.3697 0.1535
9.6200 6.3831 0.1541
9.6400 6.3964 0.1533
9.6600 6.4098 0.1580
9.6800 6.4231 0.1571
9.7000 6.4364 0.1505
9.7200 6.4498 0.1546
9.7400 6.4631 0.1560
9.7600 6.4764 0.1510
9.7800 6.4897 0.1553
9.8000 6.5031 0.1545
9.8200 6.5164 0.1506
9.8400 6.5298 0.1544
9.8600 6.5431 0.1515
9.8800 6.5564 0.1514
9.9000 6.5698 0.1582
9.9200 6.5831 0.1446
9.9400 6.5964 0.1499
9.9600 6.6097 0.1630
9.9800 6.6231 0.1386
10.0000 6.6364 0.1512
10.0200 6.6497 0.1564
10.0400 6.6630 0.1390
10.0600 6.6764 0.1553
10.0800 6.6898 0.1507
10.1000 6.7031 0.1436
10.1200 6.7164 0.1541
10.1400 6.7298 0.1468
10.1600 6.7431 0.1402
10.1800 6.7565 0.1560
10.2000 6.7698 0.1470
10.2200 6.7831 0.1425
10.2400 6.7964 0.1530
10.2600 6.8098 0.1442
10.2800 6.8231 0.1441
10.3000 6.8364 0.1522
10.3200 6.8497 0.1467
10.3400 6.8630 0.1406
10.3600 6.8764 0.1494
10.3800 6.8897 0.1438
10.4000 6.9031 0.1437
10.4200 6.9164 0.1533
10.4400 6.9298 0.1401
10.4600 6.9431 0.1429
10.4800 6.9564 0.1507
10.5000 6.9698 0.1428
10.5200 6.9831 0.1360
10.5400 6.9965 0.1508
10.5600 7.0097 0.1377
10.5800 7.0231 0.1368
10.6000 7.0364 0.1531
10.6200 7.0497 0.1394
10.6400 7.0631 0.1377
10.6600 7.0764 0.1509
10.6800 7.0897 0.1397
10.7000 7.1031 0.1411
10.7200 7.1164 0.1471
10.7400 7.1297 0.1360
10.7600 7.1431 0.1414
10.7800 7.1564 0.1457
10.8000 7.1698 0.1407
10.8200 7.1831 0.1403
10.8400 7.1964 0.1450
10.8600 7.2098 0.1420
10.8800 7.2231 0.1389
10.9000 7.2365 0.1459
10.9200 7.2498 0.1478
10.9400 7.2631 0.1388
10.9600 7.2764 0.1404
10.9800 7.2898 0.1441
11.0000 7.3031 0.1365
11.0200 7.3164 0.1389
11.0400 7.3297 0.1442
11.0600 7.3430 0.1399
11.0800 7.3564 0.1382
11.1000 7.3697 0.1426
11.1200 7.3831 0.1375
11.1400 7.3964 0.1369
11.1600 7.4098 0.1410
11.1800 7.4231 0.1347
11.2000 7.4364 0.1417
11.2200 7.4498 0.1378
11.2400 7.4631 0.1401
11.2600 7.4765 0.1349
11.2800 7.4898 0.1376
11.3000 7.5031 0.1392
11.3200 7.5164 0.1341
11.3400 7.5298 0.1325
11.3600 7.5431 0.1386
11.3800 7.5564 0.1352
11.4000 7.5697 0.1374
11.4200 7.5831 0.1379
11.4400 7.5964 0.1331
11.4600 7.6097 0.1372
11.4800 7.6231 0.1358
11.5000 7.6364 0.1327
11.5200 7.6498 0.1375
11.5400 7.6631 0.1299
11.5600 7.6764 0.1332
11.5800 7.6898 0.1354
11.6000 7.7031 0.1307
11.6200 7.7165 0.1323
11.6400 7.7298 0.1336
11.6600 7.7431 0.1337
11.6800 7.7564 0.1283
11.7000 7.7697 0.1288
11.7200 7.7831 0.1346
11.7400 7.7964 0.1317
11.7600 7.8097 0.1277
11.7800 7.8230 0.1353
11.8000 7.8364 0.1325
11.8200 7.8497 0.1272
11.8400 7.8631 0.1338
11.8600 7.8764 0.1276
11.8800 7.8898 0.1202
11.9000 7.9031 0.1324
11.9200 7.9164 0.1246
11.9400 7.9297 0.1246
11.9600 7.9431 0.1316
11.9800 7.9565 0.1232
12.0000 7.9698 0.1227
12.0200 7.9831 0.1339
12.0400 7.9964 0.1265
12.0600 8.0098 0.1229
12.0800 8.0231 0.1323
12.1000 8.0364 0.1229
12.1200 8.0497 0.1233
12.1400 8.0630 0.1367
12.1600 8.0763 0.1230
12.1800 8.0896 0.1235
12.2000 8.1030 0.1328
12.2200 8.1164 0.1230
12.2400 8.1298 0.1235
12.2600 8.1432 0.1303
12.2800 8.1565 0.1230
12.3000 8.1698 0.1229
12.3200 8.1832 0.1298
12.3400 8.1965 0.1199
12.3600 8.2098 0.1232
12.3800 8.2231 0.1304
12.4000 8.2364 0.1252
12.4200 8.2497 0.1212
12.4400 8.2631 0.1255
12.4600 8.2764 0.1239
12.4800 8.2897 0.1226
12.5000 8.3030 0.1256
12.5200 8.3164 0.1191
12.5400 8.3297 0.1187
12.5600 8.3431 0.1295
12.5800 8.3564 0.1197
12.6000 8.3698 0.1196
12.6200 8.3832 0.1255
12.6400 8.3965 0.1177
12.6600 8.4098 0.1239
12.6800 8.4231 0.1259
12.7000 8.4365 0.1174
12.7200 8.4498 0.1193
12.7400 8.4631 0.1237
12.7600 8.4764 0.1201
12.7800 8.4897 0.1221
12.8000 8.5030 0.1260
12.8200 8.5163 0.1161
12.8400 8.5296 0.1221
12.8600 8.5430 0.1260
12.8800 8.5564 0.1161
12.9000 8.5698 0.1204
12.9200 8.5831 0.1227
12.9400 8.5964 0.1117
12.9600 8.6098 0.1207
12.9800 8.6231 0.1221
13.0000 8.6365 0.1118
13.0200 8.6498 0.1185
13.0400 8.6631 0.1223
13.0600 8.6765 0.1146
13.0800 8.6898 0.1182
13.1000 8.7031 0.1188
13.1200 8.7164 0.1160
13.1400 8.7298 0.1187
13.1600 8.7431 0.1196
13.1800 8.7564 0.1158
13.2000 8.7697 0.1193
13.2200 8.7830 0.1191
13.2400 8.7964 0.1134
13.2600 8.8097 0.1158
13.2800 8.8231 0.1181
13.3000 8.8364 0.1144
13.3200 8.8498 0.1094
13.3400 8.8632 0.1214
13.3600 8.8765 0.1115
13.3800 8.8898 0.1042
13.4000 8.9031 0.1225
13.4200 8.9165 0.1146
13.4400 8.9298 0.1047
13.4600 8.9431 0.1261
13.4800 8.9564 0.1139
13.5000 8.9697 0.1061
13.5200 8.9831 0.1228
13.5400 8.9964 0.1148
13.5600 9.0097 0.1090
13.5800 9.0230 0.1249
13.6000 9.0364 0.1104
13.6200 9.0497 0.1057
13.6400 9.0630 0.1210
13.6600 9.0764 0.1089
13.6800 9.0897 0.1144
13.7000 9.1031 0.1205
13.7200 9.1165 0.1051
13.7400 9.1298 0.1157
13.7600 9.1431 0.1181
13.7800 9.1565 0.1088
13.8000 9.1698 0.1086
13.8200 9.1831 0.1169
13.8400 9.1964 0.1085
13.8600 9.2097 0.1134
13.8800 9.2231 0.1192
13.9000 9.2364 0.1021
13.9200 9.2497 0.1151
13.9400 9.2630 0.1148
13.9600 9.2764 0.1045
13.9800 9.2897 0.1140
14.0000 9.3031 0.1133
14.0200 9.3164 0.1052
14.0400 9.3298 0.1129
14.0600 9.3431 0.1136
14.0800 9.3564 0.1042
14.1000 9.3697 0.1108
14.1200 9.3831 0.1100
14.1400 9.3964 0.1044
14.1600 9.4098 0.1069
14.1800 9.4231 0.1079
14.2000 9.4364 0.1099
14.2200 9.4498 0.1060
14.2400 9.4631 0.1059
14.2600 9.4764 0.1035
14.2800 9.4897 0.1075
14.3000 9.5030 0.1060
14.3200 9.5163 0.1055
14.3400 9.5297 0.1053
14.3600 9.5430 0.1026
14.3800 9.5564 0.1014
14.4000 9.5698 0.1086
14.4200 9.5832 0.1010
14.4400 9.5965 0.1005
14.4600 9.6098 0.1089
14.4800 9.6231 0.0989
14.5000 9.6365 0.0992
14.5200 9.6498 0.1093
14.5400 9.6630 0.1012
14.5600 9.6763 0.1014
14.5800 9.6896 0.1086
14.6000 9.7030 0.0980
14.6200 9.7164 0.0975
14.6400 9.7297 0.1131
14.6600 9.7431 0.0968
14.6800 9.7564 0.0982
14.7000 9.7698 0.1023
14.7200 9.7831 0.0952
14.7400 9.7964 0.1021
14.7600 9.8098 0.1037
14.7800 9.8232 0.0966
14.8000 9.8365 0.0983
14.8200 9.8498 0.1042
14.8400 9.8631 0.0950
14.8600 9.8765 0.1005
14.8800 9.8898 0.1024
14.9000 9.9031 0.0940
14.9200 9.9164 0.0994
14.9400 9.9297 0.1035
14.9600 9.9431 0.0937
14.9800 9.9564 0.1034
15.0000 9.9697 0.0992
15.0200 9.9830 0.0938
15.0400 9.9964 0.1052
15.0600 10.0097 0.0996
15.0800 10.0231 0.0913
15.1000 10.0364 0.1042
15.1200 10.0498 0.0973
15.1400 10.0631 0.0897
15.1600 10.0765 0.1048
15.1800 10.0898 0.0993
15.2000 10.1031 0.0932
15.2200 10.1165 0.0987
15.2400 10.1298 0.0932
15.2600 10.1431 0.0959
15.2800 10.1564 0.1009
15.3000 10.1697 0.0980
15.3200 10.1831 0.0947
15.3400 10.1964 0.0977
15.3600 10.2097 0.1013
15.3800 10.2230 0.0912
15.4000 10.2363 0.0997
15.4200 10.2497 0.0991
15.4400 10.2631 0.0899
15.4600 10.2764 0.1006
15.4800 10.2898 0.0996
15.5000 10.3031 0.0897
15.5200 10.3165 0.1002
15.5400 10.3298 0.1003
15.5600 10.3431 0.0875
15.5800 10.3565 0.0990
15.6000 10.3698 0.0984
15.6200 10.3831 0.0856
15.6400 10.3964 0.1017
15.6600 10.4097 0.0971
15.6800 10.4231 0.0890
15.7000 10.4364 0.0992
15.7200 10.4497 0.0945
15.7400 10.4630 0.0916
15.7600 10.4764 0.1005
15.7800 10.4897 0.0934
15.8000 10.5030 0.0916
15.8200 10.5164 0.0987
15.8400 10.5297 0.0917
15.8600 10.5431 0.0900
15.8800 10.5564 0.0938
15.9000 10.5697 0.0906
15.9200 10.5831 0.0933
15.9400 10.5965 0.0897
15.9600 10.6098 0.0940
15.9800 10.6231 0.0889
16.0000 10.6364 0.0855
16.0200 10.6497 0.0937
16.0400 10.6631 0.0926
16.0600 10.6764 0.0894
16.0800 10.6897 0.0938
16.1000 10.7030 0.0903
16.1200 10.7164 0.0871
16.1400 10.7297 0.0903
16.1600 10.7430 0.0889
16.1800 10.7564 0.0859
16.2000 10.7698 0.0917
16.2200 10.7831 0.0823
16.2400 10.7965 0.0877
16.2600 10.8098 0.0928
16.2800 10.8231 0.0850
16.3000 10.8364 0.0876
16.3200 10.8498 0.0885
16.3400 10.8631 0.0862
16.3600 10.8764 0.0893
16.3800 10.8897 0.0918
16.4000 10.9031 0.0864
16.4200 10.9164 0.0876
16.4400 10.9297 0.0921
16.4600 10.9430 0.0842
16.4800 10.9564 0.0884
16.5000 10.9697 0.0886
16.5200 10.9830 0.0800
16.5400 10.9964 0.0912
16.5600 11.0097 0.0906
16.5800 11.0231 0.0805
16.6000 11.0365 0.0886
16.6200 11.0498 0.0899
16.6400 11.0631 0.0802
16.6600 11.0765 0.0869
16.6800 11.0898 0.0898
16.7000 11.1031 0.0797
16.7200 11.1164 0.0859
16.7400 11.1297 0.0879
16.7600 11.1430 0.0785
16.7800 11.1564 0.0871
16.8000 11.1697 0.0853
16.8200 11.1831 0.0784
16.8400 11.1964 0.0851
16.8600 11.2098 0.0787
16.8800 11.2231 0.0754
16.9000 11.2364 0.0907
16.9200 11.2497 0.0804
16.9400 11.2631 0.0755
16.9600 11.2764 0.0883
16.9800 11.2897 0.0799
17.0000 11.3030 0.0772
17.0200 11.3164 0.0883
17.0400 11.3298 0.0778
17.0600 11.3431 0.0758
17.0800 11.3564 0.0861
17.1000 11.3698 0.0791
17.1200 11.3831 0.0807
17.1400 11.3965 0.0815
17.1600 11.4097 0.0817
17.1800 11.4230 0.0739
17.2000 11.4364 0.0810
17.2200 11.4497 0.0756
17.2400 11.4630 0.0779
17.2600 11.4764 0.0806
17.2800 11.4897 0.0764
17.3000 11.5031 0.0766
17.3200 11.5164 0.0758
17.3400 11.5298 0.0773
17.3600 11.5431 0.0805
17.3800 11.5564 0.0790
17.4000 11.5698 0.0749
17.4200 11.5831 0.0761
17.4400 11.5964 0.0813
17.4600 11.6098 0.0759
17.4800 11.6231 0.0793
17.5000 11.6364 0.0778
17.5200 11.6497 0.0718
17.5400 11.6630 0.0798
17.5600 11.6763 0.0812
17.5800 11.6897 0.0703
17.6000 11.7030 0.0785
17.6200 11.7164 0.0776
17.6400 11.7297 0.0729
17.6600 11.7431 0.0786
17.6800 11.7565 0.0747
17.7000 11.7698 0.0750
17.7200 11.7831 0.0782
17.7400 11.7965 0.0708
17.7600 11.8098 0.0713
17.7800 11.8231 0.0774
17.8000 11.8364 0.0703
17.8200 11.8497 0.0748
17.8400 11.8631 0.0774
17.8600 11.8764 0.0656
17.8800 11.8897 0.0736
17.9000 11.9030 0.0759
17.9200 11.9164 0.0678
17.9400 11.9298 0.0698
17.9600 11.9431 0.0761
17.9800 11.9564 0.0692
18.0000 11.9697 0.0760
18.0200 11.9831 0.0740
18.0400 11.9964 0.0645
18.0600 12.0098 0.0757
18.0800 12.0231 0.0700
18.1000 12.0364 0.0693
18.1200 12.0498 0.0747
18.1400 12.0631 0.0713
18.1600 12.0764 0.0638
18.1800 12.0897 0.0758
18.2000 12.1031 0.0728
18.2200 12.1164 0.0691
18.2400 12.1297 0.0717
18.2600 12.1430 0.0739
18.2800 12.1563 0.0724
18.3000 12.1697 0.0693
18.3200 12.1830 0.0689
18.3400 12.1964 0.0698
18.3600 12.2097 0.0679
18.3800 12.2231 0.0694
18.4000 12.2365 0.0725
18.4200 12.2498 0.0645
18.4400 12.2631 0.0639
18.4600 12.2764 0.0688
18.4800 12.2898 0.0638
18.5000 12.3031 0.0677
18.5200 12.3164 0.0712
18.5400 12.3297 0.0624
18.5600 12.3431 0.0678
18.5800 12.3564 0.0693
18.6000 12.3698 0.0600
18.6200 12.3831 0.0672
18.6400 12.3964 0.0693
18.6600 12.4097 0.0634
18.6800 12.4231 0.0670
18.7000 12.4364 0.0642
18.7200 12.4497 0.0647
18.7400 12.4631 0.0718
18.7600 12.4765 0.0654
18.7800 12.4898 0.0568
18.8000 12.5031 0.0743
18.8200 12.5164 0.0623
18.8400 12.5298 0.0592
18.8600 12.5431 0.0714
18.8800 12.5564 0.0616
18.9000 12.5697 0.0601
18.9200 12.5830 0.0746
18.9400 12.5964 0.0603
18.9600 12.6097 0.0559
18.9800 12.6230 0.0726
19.0000 12.6364 0.0588
19.0200 12.6497 0.0570
19.0400 12.6631 0.0709
19.0600 12.6764 0.0618
19.0800 12.6897 0.0632
19.1000 12.7031 0.0651
19.1200 12.7164 0.0611
19.1400 12.7298 0.0611
19.1600 12.7431 0.0626
19.1800 12.7564 0.0595
19.2000 12.7698 0.0655
19.2200 12.7831 0.0622
19.2400 12.7965 0.0589
19.2600 12.8098 0.0630
19.2800 12.8231 0.0612
19.3000 12.8365 0.0615
19.3200 12.8498 0.0648
19.3400 12.8630 0.0604
19.3600 12.8763 0.0661
19.3800 12.8897 0.0585
19.4000 12.9030 0.0596
19.4200 12.9163 0.0611
19.4400 12.9297 0.0577
19.4600 12.9431 0.0636
19.4800 12.9565 0.0619
19.5000 12.9698 0.0547
19.5200 12.9831 0.0596
19.5400 12.9965 0.0657
19.5600 13.0099 0.0527
19.5800 13.0232 0.0591
19.6000 13.0365 0.0638
19.6200 13.0497 0.0522
19.6400 13.0631 0.0587
19.6600 13.0764 0.0635
19.6800 13.0897 0.0526
19.7000 13.1030 0.0580
19.7200 13.1163 0.0605
19.7400 13.1297 0.0508
19.7600 13.1430 0.0566
19.7800 13.1564 0.0645
19.8000 13.1697 0.0495
19.8200 13.1831 0.0557
19.8400 13.1965 0.0641
19.8600 13.2098 0.0535
19.8800 13.2231 0.0521
19.9000 13.2365 0.0590
19.9200 13.2498 0.0527
19.9400 13.2632 0.0535
19.9600 13.2764 0.0560
19.9800 13.2897 0.0512
20.0000 13.3031 0.0567
20.0200 13.3164 0.0570
20.0400 13.3297 0.0487
20.0600 13.3430 0.0548
20.0800 13.3564 0.0566
20.1000 13.3697 0.0460
20.1200 13.3831 0.0523
20.1400 13.3964 0.0572
20.1600 13.4097 0.0502
20.1800 13.4231 0.0556
20.2000 13.4365 0.0551
20.2200 13.4498 0.0484
20.2400 13.4631 0.0534
20.2600 13.4764 0.0547
20.2800 13.4898 0.0515
20.3000 13.5031 0.0488
20.3200 13.5164 0.0537
20.3400 13.5298 0.0467
20.3600 13.5431 0.0527
20.3800 13.5564 0.0568
20.4000 13.5697 0.0445
20.4200 13.5830 0.0557
20.4400 13.5963 0.0547
20.4600 13.6097 0.0491
20.4800 13.6231 0.0540
20.5000 13.6364 0.0524
20.5200 13.6497 0.0461
20.5400 13.6631 0.0514
20.5600 13.6765 0.0567
20.5800 13.6898 0.0400
20.6000 13.7031 0.0541
20.6200 13.7165 0.0548
20.6400 13.7298 0.0458
20.6600 13.7431 0.0557
20.6800 13.7564 0.0492
20.7000 13.7697 0.0487
20.7200 13.7830 0.0567
20.7400 13.7964 0.0478
20.7600 13.8097 0.0470
20.7800 13.8231 0.0576
20.8000 13.8364 0.0474
20.8200 13.8497 0.0465
20.8400 13.8631 0.0559
20.8600 13.8764 0.0480
20.8800 13.8897 0.0477
20.9000 13.9031 0.0539
20.9200 13.9165 0.0446
20.9400 13.9298 0.0497
20.9600 13.9431 0.0545
20.9800 13.9565 0.0454
21.0000 13.9698 0.0479
21.0200 13.9832 0.0503
21.0400 13.9965 0.0430
21.0600 14.0098 0.0518
21.0800 14.0231 0.0473
21.1000 14.0364 0.0446
21.1200 14.0497 0.0510
21.1400 14.0630 0.0410
21.1600 14.0764 0.0457
21.1800 14.0897 0.0514
21.2000 14.1030 0.0375
21.2200 14.1164 0.0495
21.2400 14.1297 0.0466
21.2600 14.1431 0.0413
21.2800 14.1565 0.0503
21.3000 14.1698 0.0458
21.3200 14.1831 0.0380
21.3400 14.1964 0.0537
21.3600 14.2098 0.0442
21.3800 14.2231 0.0379
21.4000 14.2364 0.0526
21.4200 14.2498 0.0417
21.4400 14.2631 0.0410
21.4600 14.2764 0.0556
21.4800 14.2898 0.0393
21.5000 14.3030 0.0416
21.5200 14.3163 0.0528
21.5400 14.3297 0.0370
21.5600 14.3430 0.0412
21.5800 14.3563 0.0558
21.6000 14.3697 0.0349
21.6200 14.3831 0.0407
21.6400 14.3965 0.0535
21.6600 14.4098 0.0284
21.6800 14.4232 0.0457
21.7000 14.4365 0.0531
21.7200 14.4498 0.0263
21.7400 14.4632 0.0480
21.7600 14.4764 0.0496
21.7800 14.4897 0.0263
21.8000 14.5030 0.0465
21.8200 14.5163 0.0518
21.8400 14.5297 0.0265
21.8600 14.5430 0.0454
21.8800 14.5563 0.0488
21.9000 14.5697 0.0264
21.9200 14.5831 0.0473
21.9400 14.5964 0.0419
21.9600 14.6098 0.0251
21.9800 14.6231 0.0510
22.0000 14.6365 0.0415
22.0200 14.6498 0.0284
22.0400 14.6631 0.0474
22.0600 14.6764 0.0422
22.0800 14.6898 0.0300
22.1000 14.7031 0.0426
22.1200 14.7164 0.0420
22.1400 14.7297 0.0316
22.1600 14.7431 0.0470
22.1800 14.7564 0.0395
22.2000 14.7697 0.0292
22.2200 14.7831 0.0423
22.2400 14.7964 0.0402
22.2600 14.8097 0.0303
22.2800 14.8231 0.0441
22.3000 14.8364 0.0370
22.3200 14.8497 0.0319
22.3400 14.8631 0.0463
22.3600 14.8765 0.0316
22.3800 14.8898 0.0304
22.4000 14.9031 0.0454
22.4200 14.9164 0.0298
22.4400 14.9298 0.0361
22.4600 14.9432 0.0404
22.4800 14.9565 0.0307
22.5000 14.9698 0.0355
22.5200 14.9831 0.0389
22.5400 14.9964 0.0319
22.5600 15.0097 0.0359
22.5800 15.0230 0.0385
22.6000 15.0363 0.0307
22.6200 15.0497 0.0360
22.6400 15.0631 0.0318
22.6600 15.0764 0.0305
22.6800 15.0897 0.0390
22.7000 15.1031 0.0304
22.7200 15.1164 0.0302
22.7400 15.1298 0.0356
22.7600 15.1431 0.0315
22.7800 15.1564 0.0319
22.8000 15.1698 0.0373
22.8200 15.1831 0.0338
22.8400 15.1964 0.0300
22.8600 15.2097 0.0372
22.8800 15.2230 0.0321
22.9000 15.2364 0.0347
22.9200 15.2497 0.0389
22.9400 15.2631 0.0299
22.9600 15.2764 0.0378
22.9800 15.2897 0.0340
23.0000 15.3031 0.0280
23.0200 15.3164 0.0351
23.0400 15.3297 0.0313
23.0600 15.3431 0.0316
23.0800 15.3564 0.0361
23.1000 15.3698 0.0292
23.1200 15.3831 0.0293
23.1400 15.3964 0.0388
23.1600 15.4098 0.0290
23.1800 15.4231 0.0285
23.2000 15.4365 0.0367
23.2200 15.4498 0.0334
23.2400 15.4631 0.0271
23.2600 15.4764 0.0340
23.2800 15.4897 0.0293
23.3000 15.5030 0.0304
23.3200 15.5163 0.0355
23.3400 15.5297 0.0284
23.3600 15.5430 0.0334
23.3800 15.5564 0.0336
23.4000 15.5697 0.0243
23.4200 15.5831 0.0306
23.4400 15.5965 0.0340
23.4600 15.6098 0.0231
23.4800 15.6231 0.0254
23.5000 15.6364 0.0335
23.5200 15.6498 0.0292
23.5400 15.6632 0.0237
23.5600 15.6765 0.0283
23.5800 15.6898 0.0280
23.6000 15.7031 0.0282
23.6200 15.7164 0.0263
23.6400 15.7297 0.0245
23.6600 15.7431 0.0215
23.6800 15.7564 0.0279
23.7000 15.7697 0.0297
23.7200 15.7830 0.0210
23.7400 15.7964 0.0258
23.7600 15.8097 0.0269
23.7800 15.8230 0.0209
23.8000 15.8364 0.0253
23.8200 15.8498 0.0219
23.8400 15.8631 0.0215
23.8600 15.8765 0.0236
23.8800 15.8898 0.0232
23.9000 15.9031 0.0224
23.9200 15.9164 0.0238
23.9400 15.9297 0.0252
23.9600 15.9430 0.0181
23.9800 15.9564 0.0274
24.0000 15.9697 0.0221
24.0200 15.9831 0.0149
24.0400 15.9964 0.0219
24.0600 16.0097 0.0200
24.0800 16.0231 0.0171
24.1000 16.0364 0.0216
24.1200 16.0497 0.0230
24.1400 16.0631 0.0204
24.1600 16.0764 0.0218
24.1800 16.0898 0.0192
24.2000 16.1031 0.0200
24.2200 16.1164 0.0243
24.2400 16.1297 0.0173
24.2600 16.1431 0.0231
24.2800 16.1564 0.0232
24.3000 16.1698 0.0201
24.3200 16.1831 0.0230
24.3400 16.1964 0.0176
24.3600 16.2098 0.0213
24.3800 16.2231 0.0237
24.4000 16.2364 0.0149
24.4200 16.2497 0.0188
24.4400 16.2630 0.0230
24.4600 16.2764 0.0170
24.4800 16.2897 0.0135
24.5000 16.3030 0.0253
24.5200 16.3164 0.0130
24.5400 16.3298 0.0202
24.5600 16.3431 0.0203
24.5800 16.3564 0.0092
24.6000 16.3698 0.0213
24.6200 16.3831 0.0206
24.6400 16.3965 0.0123
24.6600 16.4098 0.0169
24.6800 16.4231 0.0229
24.7000 16.4364 0.0136
24.7200 16.4498 0.0133
24.7400 16.4631 0.0194
24.7600 16.4764 0.0076
24.7800 16.4897 0.0147
24.8000 16.5030 0.0192
24.8200 16.5164 0.0107
24.8400 16.5297 0.0156
24.8600 16.5430 0.0147
24.8800 16.5564 0.0134
24.9000 16.5698 0.0150
24.9200 16.5832 0.0163
24.9400 16.5965 0.0113
24.9600 16.6098 0.0130
24.9800 16.6232 0.0160
25.0000 16.6365 0.0065
25.0200 16.6498 0.0120
25.0400 16.6631 0.0181
25.0600 16.6764 0.0059
25.0800 16.6897 0.0153
25.1000 16.7031 0.0164
25.1200 16.7164 0.0070
25.1400 16.7297 0.0086
25.1600 16.7430 0.0165
25.1800 16.7564 0.0036
25.2000 16.7697 0.0125
25.2200 16.7830 0.0151
25.2400 16.7964 0.0056
25.2600 16.8097 0.0116
25.2800 16.8231 0.0136
25.3000 16.8364 0.0009
25.3200 16.8498 0.0115
25.3400 16.8631 0.0081
25.3600 16.8765 0.0032
25.3800 16.8898 0.0129
25.4000 16.9031 0.0102
25.4200 16.9164 0.0042
25.4400 16.9298 0.0100
25.4600 16.9431 0.0084
25.4800 16.9564 0.0046
25.5000 16.9696 0.0100
25.5200 16.9830 0.0093
25.5400 16.9963 0.0044
25.5600 17.0097 0.0085
25.5800 17.0230 0.0088
25.6000 17.0364 0.0088
25.6200 17.0498 0.0027
25.6400 17.0631 0.0039
25.6600 17.0764 0.0092
25.6800 17.0897 0.0036
25.7000 17.1031 0.0065
25.7200 17.1164 0.0013
25.7400 17.1298 -0.0009
25.7600 17.1431 0.0116
25.7800 17.1564 0.0063
25.8000 17.1698 0.0019
25.8200 17.1831 0.0112
25.8400 17.1964 0.0036
25.8600 17.2097 0.0019
25.8800 17.2231 0.0134
25.9000 17.2364 -0.0008
25.9200 17.2497 0.0042
25.9400 17.2631 0.0136
25.9600 17.2764 -0.0057
25.9800 17.2898 0.0077
26.0000 17.3031 0.0088
26.0200 17.3165 -0.0065
26.0400 17.3298 0.0112
26.0600 17.3431 0.0109
26.0800 17.3565 -0.0075
26.1000 17.3698 0.0077
26.1200 17.3831 0.0088
26.1400 17.3964 -0.0013
26.1600 17.4097 0.0136
26.1800 17.4231 0.0006
26.2000 17.4364 -0.0050
26.2200 17.4497 0.0134
26.2400 17.4630 0.0008
26.2600 17.4764 -0.0062
26.2800 17.4898 0.0100
26.3000 17.5031 0.0010
26.3200 17.5164 -0.0078
26.3400 17.5298 0.0092
26.3600 17.5431 0.0022
26.3800 17.5564 -0.0063
26.4000 17.5697 0.0097
26.4200 17.5831 -0.0030
26.4400 17.5965 -0.0009
26.4600 17.6098 0.0085
26.4800 17.6231 -0.0054
26.5000 17.6364 -0.0004
26.5200 17.6498 0.0059
26.5400 17.6631 -0.0057
26.5600 17.6764 -0.0016
26.5800 17.6897 0.0031
26.6000 17.7030 0.0001
26.6200 17.7163 -0.0042
26.6400 17.7297 0.0032
26.6600 17.7430 -0.0054
26.6800 17.7564 0.0000
26.7000 17.7698 0.0017
26.7200 17.7832 -0.0075
26.7400 17.7965 -0.0019
26.7600 17.8098 -0.0009
26.7800 17.8232 -0.0048
26.8000 17.8365 -0.0004
26.8200 17.8498 0.0000
26.8400 17.8631 -0.0038
26.8600 17.8764 -0.0026
26.8800 17.8897 0.0029
26.9000 17.9030 -0.0061
26.9200 17.9163 -0.0043
26.9400 17.9296 -0.0016
26.9600 17.9430 -0.0057
26.9800 17.9564 -0.0089
27.0000 17.9697 -0.0051
27.0200 17.9830 -0.0060
27.0400 17.9964 -0.0054
27.0600 18.0098 -0.0030
27.0800 18.0231 -0.0082
27.1000 18.0365 -0.0047
27.1200 18.0498 0.0014
27.1400 18.0631 -0.0076
27.1600 18.0765 -0.0078
27.1800 18.0898 -0.0018
27.2000 18.1031 -0.0090
27.2200 18.1164 -0.0079
27.2400 18.1298 -0.0034
27.2600 18.1431 -0.0091
27.2800 18.1564 -0.0105
27.3000 18.1697 -0.0024
27.3200 18.1830 -0.0107
27.3400 18.1964 -0.0089
27.3600 18.2097 -0.0091
27.3800 18.2231 -0.0105
27.4000 18.2364 -0.0066
27.4200 18.2498 -0.0084
27.4400 18.2631 -0.0130
27.4600 18.2765 -0.0093
27.4800 18.2898 -0.0067
27.5000 18.3031 -0.0125
27.5200 18.3165 -0.0139
27.5400 18.3298 -0.0010
27.5600 18.3431 -0.0161
27.5800 18.3564 -0.0082
27.6000 18.3698 -0.0049
27.6200 18.3831 -0.0188
27.6400 18.3964 -0.0066
27.6600 18.4097 -0.0034
27.6800 18.4230 -0.0179
27.7000 18.4364 -0.0080
27.7200 18.4497 -0.0092
27.7400 18.4631 -0.0209
27.7600 18.4764 -0.0091
27.7800 18.4898 -0.0066
27.8000 18.5031 -0.0189
27.8200 18.5165 -0.0102
27.8400 18.5298 -0.0117
27.8600 18.5431 -0.0178
27.8800 18.5565 -0.0100
27.9000 18.5698 -0.0112
27.9200 18.5831 -0.0188
27.9400 18.5964 -0.0119
27.9600 18.6097 -0.0139
27.9800 18.6231 -0.0249
28.0000 18.6364 -0.0124
28.0200 18.6497 -0.0131
28.0400 18.6630 -0.0257
28.0600 18.6764 -0.0120
28.0800 18.6897 -0.0140
28.1000 18.7030 -0.0274
28.1200 18.7164 -0.0125
28.1400 18.7297 -0.0190
28.1600 18.7431 -0.0256
28.1800 18.7565 -0.0082
28.2000 18.7698 -0.0195
28.2200 18.7831 -0.0250
28.2400 18.7965 -0.0115
28.2600 18.8098 -0.0245
28.2800 18.8231 -0.0257
28.3000 18.8364 -0.0139
28.3200 18.8497 -0.0213
28.3400 18.8631 -0.0277
28.3600 18.8764 -0.0140
28.3800 18.8897 -0.0220
28.4000 18.9030 -0.0260
28.4200 18.9164 -0.0169
28.4400 18.9297 -0.0257
28.4600 18.9431 -0.0256
28.4800 18.9564 -0.0159
28.5000 18.9697 -0.0252
28.5200 18.9831 -0.0245
28.5400 18.9964 -0.0167
28.5600 19.0098 -0.0256
28.5800 19.0231 -0.0265
28.6000 19.0364 -0.0167
28.6200 19.0498 -0.0254
28.6400 19.0631 -0.0257
28.6600 19.0764 -0.0190
28.6800 19.0898 -0.0271
28.7000 19.1031 -0.0241
28.7200 19.1164 -0.0210
28.7400 19.1297 -0.0262
28.7600 19.1430 -0.0229
28.7800 19.1563 -0.0217
28.8000 19.1697 -0.0293
28.8200 19.1830 -0.0273
28.8400 19.1964 -0.0195
28.8600 19.2098 -0.0309
28.8800 19.2232 -0.0240
28.9000 19.2365 -0.0239
28.9200 19.2499 -0.0318
28.9400 19.2632 -0.0196
28.9600 19.2765 -0.0293
28.9800 19.2898 -0.0358
29.0000 19.3031 -0.0207
29.0200 19.3163 -0.0240
29.0400 19.3297 -0.0366
29.0600 19.3430 -0.0205
29.0800 19.3564 -0.0263
29.1000 19.3697 -0.0372
29.1200 19.3831 -0.0215
29.1400 19.3964 -0.0289
29.1600 19.4098 -0.0334
29.1800 19.4231 -0.0201
29.2000 19.4364 -0.0338
29.2200 19.4498 -0.0308
29.2400 19.4631 -0.0268
29.2600 19.4765 -0.0320
29.2800 19.4898 -0.0278
29.3000 19.5031 -0.0278
29.3200 19.5164 -0.0326
29.3400 19.5298 -0.0296
29.3600 19.5431 -0.0295
29.3800 19.5564 -0.0338
29.4000 19.5697 -0.0249
29.4200 19.5831 -0.0364
29.4400 19.5964 -0.0347
29.4600 19.6097 -0.0263
29.4800 19.6230 -0.0361
29.5000 19.6364 -0.0314
29.5200 19.6498 -0.0348
29.5400 19.6631 -0.0365
29.5600 19.6764 -0.0329
29.5800 19.6897 -0.0387
29.6000 19.7031 -0.0379
29.6200 19.7164 -0.0361
29.6400 19.7297 -0.0358
29.6600 19.7431 -0.0380
29.6800 19.7564 -0.0350
29.7000 19.7698 -0.0438
29.7200 19.7831 -0.0389
29.7400 19.7964 -0.0326
29.7600 19.8097 -0.0430
29.7800 19.8231 -0.0375
29.8000 19.8364 -0.0360
29.8200 19.8497 -0.0391
29.8400 19.8630 -0.0374
29.8600 19.8764 -0.0336
29.8800 19.8897 -0.0398
29.9000 19.9031 -0.0429
29.9200 19.9164 -0.0388
29.9400 19.9297 -0.0426
29.9600 19.9431 -0.0422
29.9800 19.9565 -0.0435
30.0000 19.9698 -0.0402
30.0200 19.9831 -0.0446
30.0400 19.9965 -0.0427
30.0600 20.0098 -0.0479
30.0800 20.0231 -0.0428
30.1000 20.0364 -0.0395
30.1200 20.0497 -0.0488
30.1400 20.0631 -0.0439
30.1600 20.0764 -0.0433
30.1800 20.0897 -0.0410
30.2000 20.1030 -0.0464
30.2200 20.1164 -0.0452
30.2400 20.1297 -0.0435
30.2600 20.1431 -0.0488
30.2800 20.1564 -0.0417
30.3000 20.1697 -0.0481
30.3200 20.1831 -0.0466
30.3400 20.1964 -0.0437
30.3600 20.2098 -0.0528
30.3800 20.2231 -0.0470
30.4000 20.2365 -0.0399
30.4200 20.2498 -0.0536
30.4400 20.2631 -0.0536
30.4600 20.2764 -0.0389
30.4800 20.2897 -0.0530
30.5000 20.3031 -0.0509
30.5200 20.3164 -0.0470
30.5400 20.3297 -0.0576
30.5600 20.3430 -0.0482
30.5800 20.3563 -0.0474
30.6000 20.3697 -0.0573
30.6200 20.3831 -0.0496
30.6400 20.3964 -0.0487
30.6600 20.4098 -0.0579
30.6800 20.4232 -0.0519
30.7000 20.4365 -0.0534
30.7200 20.4498 -0.0594
30.7400 20.4631 -0.0506
30.7600 20.4764 -0.0612
30.7800 20.4898 -0.0563
30.8000 20.5031 -0.0075
30.8200 20.5164 0.0438
30.8400 20.5297 0.0970
30.8600 20.5431 0.1657
30.8800 20.5564 0.2110
30.9000 20.5697 0.2555
30.9200 20.5830 0.3112
30.9400 20.5963 0.3490
30.9600 20.6097 0.3673
30.9800 20.6230 0.3748
31.0000 20.6364 0.3729
31.0200 20.6497 0.3697
31.0400 20.6631 0.3763
31.0600 20.6765 0.3689
31.0800 20.6898 0.3661
31.1000 20.7031 0.3783
31.1200 20.7165 0.3739
31.1400 20.7298 0.3672
31.1600 20.7431 0.3751
31.1800 20.7564 0.3778
31.2000 20.7697 0.3685
31.2200 20.7830 0.3706
31.2400 20.7964 0.3758
31.2600 20.8097 0.3683
31.2800 20.8230 0.3707
31.3000 20.8364 0.3723
31.3200 20.8498 0.3674
31.3400 20.8631 0.3664
31.3600 20.8764 0.3775
31.3800 20.8898 0.3690
31.4000 20.9031 0.3596
31.4200 20.9164 0.3735
31.4400 20.9297 0.3588
31.4600 20.9430 0.3680
31.4800 20.9564 0.3729
31.5000 20.9698 0.3586
31.5200 20.9831 0.3678
31.5400 20.9964 0.3666
31.5600 21.0098 0.3623
31.5800 21.0231 0.3648
31.6000 21.0365 0.3634
31.6200 21.0498 0.3599
31.6400 21.0631 0.3669
31.6600 21.0764 0.3585
31.6800 21.0897 0.3591
31.7000 21.1031 0.3670
31.7200 21.1164 0.3532
31.7400 21.1297 0.3662
31.7600 21.1431 0.3632
31.7800 21.1564 0.3460
31.8000 21.1698 0.3623
31.8200 21.1831 0.3622
31.8400 21.1964 0.3511
31.8600 21.2098 0.3621
31.8800 21.2231 0.3536
31.9000 21.2364 0.3501
31.9200 21.2497 0.3622
31.9400 21.2631 0.3514
31.9600 21.2764 0.3486
31.9800 21.2897 0.3589
32.0000 21.3030 0.3526
32.0200 21.3164 0.3481
32.0400 21.3297 0.3511
32.0600 21.3430 0.3493
32.0800 21.3564 0.3436
32.1000 21.3697 0.3457
32.1200 21.3831 0.3480
32.1400 21.3965 0.3451
32.1600 21.4098 0.3439
32.1800 21.4231 0.3471
32.2000 21.4365 0.3422
32.2200 21.4498 0.3445
32.2400 21.4631 0.3470
32.2600 21.4764 0.3363
32.2800 21.4897 0.3450
32.3000 21.5030 0.3456
32.3200 21.5164 0.3361
32.3400 21.5297 0.3410
32.3600 21.5430 0.3434
32.3800 21.5563 0.3356
32.4000 21.5697 0.3383
32.4200 21.5831 0.3407
32.4400 21.5964 0.3310
32.4600 21.6097 0.3389
32.4800 21.6231 0.3395
32.5000 21.6364 0.3304
32.5200 21.6498 0.3393
32.5400 21.6631 0.3351
32.5600 21.6764 0.3269
32.5800 21.6898 0.3352
32.6000 21.7032 0.3375
32.6200 21.7164 0.3218
32.6400 21.7297 0.3384
32.6600 21.7431 0.3400
32.6800 21.7564 0.3141
32.7000 21.7697 0.3326
32.7200 21.7830 0.3354
32.7400 21.7963 0.3145
32.7600 21.8097 0.3282
32.7800 21.8230 0.3272
32.8000 21.8364 0.3166
32.8200 21.8497 0.3202
32.8400 21.8631 0.3228
32.8600 21.8765 0.3128
32.8800 21.8898 0.3244
32.9000 21.9031 0.3152
32.9200 21.9164 0.3070
32.9400 21.9298 0.3210
32.9600 21.9431 0.3215
32.9800 21.9564 0.3069
33.0000 21.9697 0.3170
33.0200 21.9831 0.3147
33.0400 21.9964 0.3057
33.0600 22.0098 0.3174
33.0800 22.0231 0.3157
33.1000 22.0364 0.3083
33.1200 22.0497 0.3118
33.1400 22.0631 0.3163
33.1600 22.0764 0.3081
33.1800 22.0897 0.3107
33.2000 22.1031 0.3150
33.2200 22.1165 0.3050
33.2400 22.1298 0.3087
33.2600 22.1431 0.3192
33.2800 22.1564 0.3133
33.3000 22.1698 0.3085
33.3200 22.1831 0.3125
33.3400 22.1964 0.3078
33.3600 22.2097 0.3110
33.3800 22.2230 0.3163
33.4000 22.2364 0.3036
33.4200 22.2497 0.3101
33.4400 22.2630 0.3136
33.4600 22.2764 0.2982
33.4800 22.2897 0.3053
33.5000 22.3031 0.3151
33.5200 22.3164 0.2994
33.5400 22.3297 0.3044
33.5600 22.3431 0.3068
33.5800 22.3564 0.2986
33.6000 22.3698 0.3044
33.6200 22.3831 0.3083
33.6400 22.3964 0.2952
33.6600 22.4098 0.3034
33.6800 22.4231 0.3018
33.7000 22.4365 0.2921
33.7200 22.4498 0.3006
33.7400 22.4631 0.3043
33.7600 22.4765 0.2946
33.7800 22.4898 0.2981
33.8000 22.5030 0.2997
33.8200 22.5163 0.2940
33.8400 22.5297 0.2942
33.8600 22.5430 0.2961
33.8800 22.5563 0.2912
33.9000 22.5697 0.2941
33.9200 22.5831 0.2938
33.9400 22.5965 0.2848
33.9600 22.6098 0.2923
33.9800 22.6232 0.2956
34.0000 22.6365 0.2897
34.0200 22.6498 0.2885
34.0400 22.6632 0.2934
34.0600 22.6765 0.2887
34.0800 22.6898 0.2870
34.1000 22.7031 0.2956
34.1200 22.7164 0.2868
34.1400 22.7297 0.2859
34.1600 22.7430 0.2914
34.1800 22.7563 0.2844
34.2000 22.7697 0.2887
34.2200 22.7830 0.2875
34.2400 22.7964 0.2798
34.2600 22.8097 0.2886
34.2800 22.8231 0.2860
34.3000 22.8365 0.2728
34.3200 22.8498 0.2861
34.3400 22.8631 0.2845
34.3600 22.8765 0.2787
34.3800 22.8898 0.2827
34.4000 22.9032 0.2830
34.4200 22.9165 0.2753
34.4400 22.9297 0.2804
34.4600 22.9431 0.2820
34.4800 22.9564 0.2716
34.5000 22.9697 0.2830
34.5200 22.9830 0.2814
34.5400 22.9964 0.2690
34.5600 23.0097 0.2829
34.5800 23.0230 0.2768
34.6000 23.0364 0.2712
34.6200 23.0497 0.2823
34.6400 23.0630 0.2742
34.6600 23.0764 0.2689
34.6800 23.0898 0.2737
34.7000 23.1031 0.2751
34.7200 23.1164 0.2772
34.7400 23.1298 0.2671
34.7600 23.1431 0.2714
34.7800 23.1564 0.2745
34.8000 23.1698 0.2653
34.8200 23.1831 0.2743
34.8400 23.1965 0.2738
34.8600 23.2098 0.2582
34.8800 23.2231 0.2735
34.9000 23.2363 0.2701
34.9200 23.2497 0.2595
34.9400 23.2631 0.2750
34.9600 23.2764 0.2661
34.9800 23.2897 0.2588
35.0000 23.3031 0.2709
35.0200 23.3165 0.2702
35.0400 23.3298 0.2585
35.0600 23.3431 0.2682
35.0800 23.3564 0.2616
35.1000 23.3698 0.2609
35.1200 23.3831 0.2672
35.1400 23.3964 0.2581
35.1600 23.4097 0.2628
35.1800 23.4231 0.2689
35.2000 23.4364 0.2513
35.2200 23.4498 0.2566
35.2400 23.4631 0.2684
35.2600 23.4764 0.2601
35.2800 23.4897 0.2493
35.3000 23.5031 0.2619
35.3200 23.5164 0.2568
35.3400 23.5297 0.2492
35.3600 23.5430 0.2591
35.3800 23.5564 0.2531
35.4000 23.5698 0.2470
35.4200 23.5831 0.2522
35.4400 23.5964 0.2536
35.4600 23.6098 0.2452
35.4800 23.6232 0.2554
35.5000 23.6365 0.2523
35.5200 23.6498 0.2443
35.5400 23.6631 0.2552
35.5600 23.6764 0.2472
35.5800 23.6898 0.2490
35.6000 23.7031 0.2556
35.6200 23.7164 0.2423
35.6400 23.7297 0.2452
35.6600 23.7431 0.2565
35.6800 23.7564 0.2400
35.7000 23.7697 0.2453
35.7200 23.7831 0.2530
35.7400 23.7964 0.2390
35.7600 23.8098 0.2464
35.7800 23.8231 0.2464
35.8000 23.8364 0.2406
35.8200 23.8498 0.2507
35.8400 23.8631 0.2448
35.8600 23.8765 0.2394
35.8800 23.8898 0.2504
35.9000 23.9031 0.2439
35.9200 23.9164 0.2410
35.9400 23.9298 0.2461
35.9600 23.9430 0.2367
35.9800 23.9563 0.2365
36.0000 23.9697 0.2499
36.0200 23.9830 0.2376
36.0400 23.9963 0.2354
36.0600 24.0097 0.2466
36.0800 24.0231 0.2394
36.1000 24.0365 0.2292
36.1200 24.0499 0.2434
36.1400 24.0632 0.2401
36.1600 24.0765 0.2264
36.1800 24.0898 0.2416
36.2000 24.1032 0.2346
36.2200 24.1164 0.2272
36.2400 24.1297 0.2411
36.2600 24.1430 0.2326
36.2800 24.1563 0.2263
36.3000 24.1697 0.2368
36.3200 24.1830 0.2353
36.3400 24.1963 0.2260
36.3600 24.2097 0.2315
36.3800 24.2231 0.2340
36.4000 24.2364 0.2158
36.4200 24.2498 0.2312
36.4400 24.2631 0.2271
36.4600 24.2765 0.2194
36.4800 24.2898 0.2291
36.5000 24.3031 0.2201
36.5200 24.3164 0.2206
36.5400 24.3298 0.2276
36.5600 24.3431 0.2246
36.5800 24.3564 0.2213
36.6000 24.3697 0.2219
36.6200 24.3831 0.2230
36.6400 24.3964 0.2185
36.6600 24.4097 0.2189
36.6800 24.4230 0.2227
36.7000 24.4364 0.2229
36.7200 24.4497 0.2162
36.7400 24.4631 0.2219
36.7600 24.4764 0.2150
36.7800 24.4897 0.2135
36.8000 24.5031 0.2229
36.8200 24.5164 0.2188
36.8400 24.5298 0.2102
36.8600 24.5431 0.2167
36.8800 24.5564 0.2156
36.9000 24.5698 0.2124
36.9200 24.5831 0.2199
36.9400 24.5965 0.2073
36.9600 24.6098 0.2104
36.9800 24.6231 0.2192
37.0000 24.6364 0.2106
37.0200 24.6498 0.2127
37.0400 24.6631 0.2136
37.0600 24.6764 0.2054
37.0800 24.6897 0.2132
37.1000 24.7030 0.2102
37.1200 24.7164 0.2044
37.1400 24.7297 0.2146
37.1600 24.7430 0.2059
37.1800 24.7564 0.1984
37.2000 24.7698 0.2127
37.2200 24.7831 0.2025
37.2400 24.7965 0.2039
37.2600 24.8098 0.2117
37.2800 24.8231 0.1941
37.3000 24.8364 0.2045
37.3200 24.8497 0.2139
37.3400 24.8631 0.1923
37.3600 24.8764 0.2028
37.3800 24.8898 0.2125
37.4000 24.9031 0.1895
37.4200 24.9164 0.2005
37.4400 24.9297 0.2070
37.4600 24.9431 0.1924
37.4800 24.9564 0.1997
37.5000 24.9697 0.2014
37.5200 24.9830 0.1938
37.5400 24.9964 0.2018
37.5600 25.0098 0.1991
37.5800 25.0231 0.1906
37.6000 25.0364 0.2035
37.6200 25.0498 0.1997
37.6400 25.0631 0.1921
37.6600 25.0765 0.2013
37.6800 25.0898 0.1965
37.7000 25.1031 0.1895
37.7200 25.1164 0.1971
37.7400 25.1298 0.1980
37.7600 25.1431 0.1836
37.7800 25.1564 0.1984
37.8000 25.1697 0.2001
37.8200 25.1830 0.1868
37.8400 25.1964 0.1948
37.8600 25.2097 0.2014
37.8800 25.2231 0.1893
37.9000 25.2365 0.1950
37.9200 25.2498 0.1963
37.9400 25.2632 0.1810
37.9600 25.2765 0.1975
37.9800 25.2898 0.1965
38.0000 25.3031 0.1778
38.0200 25.3165 0.1990
38.0400 25.3298 0.1917
38.0600 25.3431 0.1779
38.0800 25.3564 0.1933
38.1000 25.3698 0.1904
38.1200 25.3831 0.1796
38.1400 25.3964 0.1916
38.1600 25.4097 0.1868
38.1800 25.4230 0.1815
38.2000 25.4364 0.1859
38.2200 25.4497 0.1923
38.2400 25.4630 0.1827
38.2600 25.4764 0.1752
38.2800 25.4898 0.1914
38.3000 25.5031 0.1819
38.3200 25.5165 0.1802
38.3400 25.5298 0.1906
38.3600 25.5431 0.1718
38.3800 25.5565 0.1810
38.4000 25.5697 0.1930
38.4200 25.5830 0.1722
38.4400 25.5963 0.1818
38.4600 25.6097 0.1869
38.4800 25.6230 0.1702
38.5000 25.6364 0.1794
38.5200 25.6497 0.1863
38.5400 25.6631 0.1724
38.5600 25.6764 0.1759
38.5800 25.6898 0.1801
38.6000 25.7031 0.1729
38.6200 25.7164 0.1812
38.6400 25.7298 0.1792
38.6600 25.7431 0.1718
38.6800 25.7564 0.1803
38.7000 25.7697 0.1769
38.7200 25.7831 0.1719
38.7400 25.7965 0.1786
38.7600 25.8098 0.1756
38.7800 25.8231 0.1734
38.8000 25.8364 0.1759
38.8200 25.8498 0.1740
38.8400 25.8631 0.1746
38.8600 25.8764 0.1697
38.8800 25.8897 0.1789
38.9000 25.9030 0.1709
38.9200 25.9164 0.1665
38.9400 25.9297 0.1799
38.9600 25.9430 0.1698
38.9800 25.9564 0.1717
39.0000 25.9698 0.1768
39.0200 25.9831 0.1595
39.0400 25.9964 0.1721
39.0600 26.0097 0.1821
39.0800 26.0231 0.1633
39.1000 26.0364 0.1665
39.1200 26.0498 0.1806
39.1400 26.0631 0.1586
39.1600 26.0764 0.1692
39.1800 26.0898 0.1826
39.2000 26.1031 0.1555
39.2200 26.1164 0.1726
39.2400 26.1297 0.1793
39.2600 26.1430 0.1586
39.2800 26.1564 0.1749
39.3000 26.1697 0.1731
39.3200 26.1831 0.1579
39.3400 26.1964 0.1721
39.3600 26.2098 0.1710
39.3800 26.2232 0.1595
39.4000 26.2365 0.1679
39.4200 26.2498 0.1647
39.4400 26.2632 0.1601
39.4600 26.2765 0.1661
39.4800 26.2898 0.1604
39.5000 26.3031 0.1643
39.5200 26.3164 0.1615
39.5400 26.3297 0.1636
39.5600 26.3431 0.1656
39.5800 26.3564 0.1601
39.6000 26.3697 0.1612
39.6200 26.3830 0.1654
39.6400 26.3964 0.1540
39.6600 26.4098 0.1622
39.6800 26.4231 0.1644
39.7000 26.4364 0.1538
39.7200 26.4498 0.1563
39.7400 26.4631 0.1657
39.7600 26.4764 0.1540
39.7800 26.4898 0.1581
39.8000 26.5031 0.1611
39.8200 26.5165 0.1516
39.8400 26.5298 0.1565
39.8600 26.5431 0.1594
39.8800 26.5564 0.1505
39.9000 26.5697 0.1550
39.9200 26.5831 0.1576
39.9400 26.5964 0.1465
39.9600 26.6097 0.1546
39.9800 26.6230 0.1521
40.0000 26.6364 0.1499
40.0200 26.6497 0.1494
40.0400 26.6630 0.1491
40.0600 26.6764 0.1451
40.0800 26.6898 0.1486
40.1000 26.7031 0.1481
40.1200 26.7165 0.1448
40.1400 26.7298 0.1427
40.1600 26.7431 0.1459
40.1800 26.7564 0.1431
40.2000 26.7698 0.1399
40.2200 26.7831 0.1451
40.2400 26.7964 0.1422
40.2600 26.8097 0.1379
40.2800 26.8231 0.1443
40.3000 26.8364 0.1352
40.3200 26.8497 0.1374
40.3400 26.8630 0.1450
40.3600 26.8764 0.1363
40.3800 26.8897 0.1289
40.4000 26.9030 0.1435
40.4200 26.9164 0.1297
40.4400 26.9298 0.1287
40.4600 26.9431 0.1446
40.4800 26.9564 0.1249
40.5000 26.9698 0.1325
40.5200 26.9831 0.1386
40.5400 26.9965 0.1235
40.5600 27.0098 0.1325
40.5800 27.0231 0.1357
40.6000 27.0364 0.1264
40.6200 27.0497 0.1331
40.6400 27.0631 0.1366
40.6600 27.0764 0.1231
40.6800 27.0897 0.1307
40.7000 27.1030 0.1323
40.7200 27.1164 0.1245
40.7400 27.1297 0.1311
40.7600 27.1431 0.1272
40.7800 27.1564 0.1276
40.8000 27.1698 0.1351
40.8200 27.1831 0.1239
40.8400 27.1964 0.1239
40.8600 27.2097 0.1303
40.8800 27.2231 0.1226
40.9000 27.2364 0.1269
40.9200 27.2498 0.1277
40.9400 27.2631 0.1228
40.9600 27.2765 0.1305
40.9800 27.2898 0.1267
41.0000 27.3031 0.1199
41.0200 27.3164 0.1275
41.0400 27.3297 0.1187
41.0600 27.3430 0.1258
41.0800 27.3563 0.1265
41.1000 27.3697 0.1172
41.1200 27.3830 0.1266
41.1400 27.3964 0.1282
41.1600 27.4098 0.1102
41.1800 27.4232 0.1253
41.2000 27.4365 0.1233
41.2200 27.4498 0.1097
41.2400 27.4632 0.1322
41.2600 27.4765 0.1228
41.2800 27.4898 0.1092
41.3000 27.5031 0.1315
41.3200 27.5164 0.1187
41.3400 27.5297 0.1136
41.3600 27.5431 0.1301
41.3800 27.5564 0.1168
41.4000 27.5697 0.1169
41.4200 27.5830 0.1296
41.4400 27.5964 0.1155
41.4600 27.6097 0.1136
41.4800 27.6230 0.1274
41.5000 27.6364 0.1149
41.5200 27.6498 0.1156
41.5400 27.6631 0.1239
41.5600 27.6765 0.1139
41.5800 27.6898 0.1137
41.6000 27.7031 0.1242
41.6200 27.7165 0.1158
41.6400 27.7298 0.1128
41.6600 27.7431 0.1221
41.6800 27.7564 0.1129
41.7000 27.7697 0.1096
41.7200 27.7831 0.1221
41.7400 27.7964 0.1153
41.7600 27.8097 0.1064
41.7800 27.8230 0.1192
41.8000 27.8364 0.1166
41.8200 27.8497 0.1030
41.8400 27.8631 0.1167
41.8600 27.8764 0.1155
41.8800 27.8898 0.1031
41.9000 27.9031 0.1150
41.9200 27.9165 0.1098
41.9400 27.9298 0.1027
41.9600 27.9431 0.1143
41.9800 27.9565 0.1078
42.0000 27.9698 0.1028
42.0200 27.9831 0.1112
42.0400 27.9964 0.1093
42.0600 28.0098 0.0985
42.0800 28.0231 0.1110
42.1000 28.0364 0.1048
42.1200 28.0497 0.0973
42.1400 28.0630 0.1112
42.1600 28.0764 0.0998
42.1800 28.0897 0.1002
42.2000 28.1031 0.1041
42.2200 28.1164 0.0947
42.2400 28.1298 0.0967
42.2600 28.1432 0.1015
42.2800 28.1565 0.0951
42.3000 28.1698 0.0930
42.3200 28.1831 0.0994
42.3400 28.1965 0.0916
42.3600 28.2098 0.0951
42.3800 28.2231 0.0970
42.4000 28.2364 0.0944
42.4200 28.2497 0.0913
42.4400 28.2631 0.0874
42.4600 28.2764 0.0996
42.4800 28.2897 0.0885
42.5000 28.3030 0.0911
42.5200 28.3164 0.0986
42.5400 28.3297 0.0895
42.5600 28.3430 0.0865
42.5800 28.3564 0.0981
42.6000 28.3697 0.0892
42.6200 28.3831 0.0865
42.6400 28.3965 0.0970
42.6600 28.4098 0.0884
42.6800 28.4231 0.0875
42.7000 28.4365 0.0984
42.7200 28.4498 0.0830
42.7400 28.4631 0.0903
42.7600 28.4764 0.0973
42.7800 28.4897 0.0813
42.8000 28.5031 0.0909
42.8200 28.5164 0.0920
42.8400 28.5297 0.0765
42.8600 28.5430 0.0988
42.8800 28.5564 0.0961
42.9000 28.5697 0.0703
42.9200 28.5831 0.0986
42.9400 28.5964 0.0939
42.9600 28.6097 0.0723
42.9800 28.6231 0.0974
43.0000 28.6364 0.0877
43.0200 28.6497 0.0790
43.0400 28.6631 0.0989
43.0600 28.6764 0.0807
43.0800 28.6898 0.0777
43.1000 28.7031 0.0949
43.1200 28.7164 0.0777
43.1400 28.7297 0.0809
43.1600 28.7431 0.0949
43.1800 28.7564 0.0723
43.2000 28.7697 0.0822
43.2200 28.7830 0.0905
43.2400 28.7963 0.0770
43.2600 28.8097 0.0807
43.2800 28.8230 0.0886
43.3000 28.8364 0.0797
43.3200 28.8497 0.0832
43.3400 28.8632 0.0911
43.3600 28.8765 0.0782
43.3800 28.8899 0.0780
43.4000 28.9032 0.0876
43.4200 28.9165 0.0821
43.4400 28.9298 0.0803
43.4600 28.9431 0.0885
43.4800 28.9564 0.0814
43.5000 28.9697 0.0780
43.5200 28.9830 0.0897
43.5400 28.9963 0.0798
43.5600 29.0097 0.0781
43.5800 29.0230 0.0856
43.6000 29.0364 0.0800
43.6200 29.0498 0.0760
43.6400 29.0631 0.0822
43.6600 29.0765 0.0804
43.6800 29.0898 0.0784
43.7000 29.1032 0.0822
43.7200 29.1165 0.0767
43.7400 29.1298 0.0821
43.7600 29.1431 0.0814
43.7800 29.1565 0.0711
43.8000 29.1698 0.0808
43.8200 29.1831 0.0824
43.8400 29.1964 0.0740
43.8600 29.2097 0.0843
43.8800 29.2231 0.0792
43.9000 29.2364 0.0719
43.9200 29.2497 0.0764
43.9400 29.2630 0.0829
43.9600 29.2764 0.0716
43.9800 29.2897 0.0768
44.0000 29.3030 0.0781
44.0200 29.3164 0.0727
44.0400 29.3298 0.0789
44.0600 29.3431 0.0722
44.0800 29.3565 0.0716
44.1000 29.3698 0.0751
44.1200 29.3831 0.0765
44.1400 29.3965 0.0719
44.1600 29.4098 0.0722
44.1800 29.4231 0.0740
44.2000 29.4364 0.0651
44.2200 29.4497 0.0728
44.2400 29.4631 0.0766
44.2600 29.4764 0.0631
44.2800 29.4897 0.0651
44.3000 29.5030 0.0730
44.3200 29.5163 0.0682
44.3400 29.5297 0.0696
44.3600 29.5430 0.0682
44.3800 29.5564 0.0608
44.4000 29.5697 0.0665
44.4200 29.5831 0.0640
44.4400 29.5965 0.0658
44.4600 29.6098 0.0618
44.4800 29.6231 0.0581
44.5000 29.6364 0.0619
44.5200 29.6498 0.0674
44.5400 29.6631 0.0533
44.5600 29.6764 0.0586
44.5800 29.6897 0.0653
44.6000 29.7031 0.0488
44.6200 29.7164 0.0569
44.6400 29.7297 0.0596
44.6600 29.7430 0.0486
44.6800 29.7564 0.0549
44.7000 29.7697 0.0553
44.7200 29.7831 0.0501
44.7400 29.7964 0.0542
44.7600 29.8097 0.0501
44.7800 29.8231 0.0468
44.8000 29.8365 0.0539
44.8200 29.8498 0.0513
44.8400 29.8631 0.0496
44.8600 29.8764 0.0486
44.8800 29.8898 0.0475
44.9000 29.9031 0.0509
44.9200 29.9164 0.0472
44.9400 29.9297 0.0453
44.9600 29.9431 0.0463
44.9800 29.9564 0.0453
45.0000 29.9697 0.0445
45.0200 29.9830 0.0465
45.0400 29.9964 0.0461
45.0600 30.0097 0.0452
45.0800 30.0231 0.0499
45.1000 30.0364 0.0428
45.1200 30.0498 0.0471
45.1400 30.0631 0.0485
45.1600 30.0765 0.0332
45.1800 30.0898 0.0530
45.2000 30.1031 0.0440
45.2200 30.1164 0.0397
45.2400 30.1298 0.0517
45.2600 30.1431 0.0391
45.2800 30.1564 0.0392
45.3000 30.1697 0.0525
45.3200 30.1830 0.0364
45.3400 30.1964 0.0376
45.3600 30.2097 0.0465
45.3800 30.2230 0.0364
45.4000 30.2363 0.0375
45.4200 30.2497 0.0509
45.4400 30.2630 0.0301
45.4600 30.2764 0.0419
45.4800 30.2897 0.0449
45.5000 30.3031 0.0291
45.5200 30.3165 0.0416
45.5400 30.3298 0.0388
45.5600 30.3431 0.0288
45.5800 30.3565 0.0397
45.6000 30.3698 0.0388
45.6200 30.3831 0.0305
45.6400 30.3964 0.0400
45.6600 30.4097 0.0382
45.6800 30.4230 0.0285
45.7000 30.4364 0.0367
45.7200 30.4497 0.0359
45.7400 30.4630 0.0296
45.7600 30.4764 0.0387
45.7800 30.4898 0.0310
45.8000 30.5031 0.0310
45.8200 30.5164 0.0357
45.8400 30.5297 0.0298
45.8600 30.5431 0.0311
45.8800 30.5564 0.0304
45.9000 30.5697 0.0313
45.9200 30.5830 0.0325
45.9400 30.5964 0.0277
45.9600 30.6098 0.0311
45.9800 30.6231 0.0317
46.0000 30.6364 0.0287
46.0200 30.6498 0.0327
46.0400 30.6631 0.0303
46.0600 30.6765 0.0228
46.0800 30.6898 0.0344
46.1000 30.7031 0.0310
46.1200 30.7164 0.0215
46.1400 30.7297 0.0323
46.1600 30.7431 0.0295
46.1800 30.7564 0.0208
46.2000 30.7697 0.0342
46.2200 30.7831 0.0254
46.2400 30.7964 0.0220
46.2600 30.8098 0.0321
46.2800 30.8231 0.0239
46.3000 30.8364 0.0226
46.3200 30.8498 0.0320
46.3400 30.8631 0.0181
46.3600 30.8764 0.0265
46.3800 30.8898 0.0355
46.4000 30.9031 0.0239
46.4200 30.9165 0.0244
46.4400 30.9298 0.0277
46.4600 30.9431 0.0240
46.4800 30.9564 0.0254
46.5000 30.9697 0.0231
46.5200 30.9830 0.0256
46.5400 30.9964 0.0252
46.5600 31.0097 0.0238
46.5800 31.0231 0.0213
46.6000 31.0365 0.0248
46.6200 31.0498 0.0227
46.6400 31.0631 0.0178
46.6600 31.0764 0.0234
46.6800 31.0898 0.0190
46.7000 31.1031 0.0189
46.7200 31.1164 0.0208
46.7400 31.1297 0.0243
46.7600 31.1431 0.0204
46.7800 31.1564 0.0236
46.8000 31.1698 0.0205
46.8200 31.1830 0.0186
46.8400 31.1964 0.0273
46.8600 31.2097 0.0223
46.8800 31.2231 0.0179
46.9000 31.2364 0.0238
46.9200 31.2497 0.0221
46.9400 31.2631 0.0217
46.9600 31.2764 0.0219
46.9800 31.2898 0.0209
47.0000 31.3031 0.0203
47.0200 31.3164 0.0257
47.0400 31.3298 0.0233
47.0600 31.3432 0.0195
47.0800 31.3565 0.0207
47.1000 31.3697 0.0208
47.1200 31.3831 0.0189
47.1400 31.3964 0.0232
47.1600 31.4097 0.0173
47.1800 31.4230 0.0208
47.2000 31.4363 0.0221
47.2200 31.4497 0.0167
47.2400 31.4630 0.0219
47.2600 31.4764 0.0180
47.2800 31.4897 0.0150
47.3000 31.5031 0.0243
47.3200 31.5165 0.0163
47.3400 31.5298 0.0118
47.3600 31.5431 0.0216
47.3800 31.5564 0.0190
47.4000 31.5698 0.0096
47.4200 31.5831 0.0176
47.4400 31.5964 0.0164
47.4600 31.6097 0.0068
47.4800 31.6231 0.0196
47.5000 31.6364 0.0114
47.5200 31.6497 0.0069
47.5400 31.6631 0.0181
47.5600 31.6764 0.0076
47.5800 31.6897 0.0035
47.6000 31.7031 0.0160
47.6200 31.7164 0.0072
47.6400 31.7297 0.0064
47.6600 31.7431 0.0112
47.6800 31.7565 0.0044
47.7000 31.7698 0.0057
47.7200 31.7831 0.0100
47.7400 31.7964 0.0026
47.7600 31.8098 0.0094
47.7800 31.8231 0.0088
47.8000 31.8364 -0.0013
47.8200 31.8497 0.0099
47.8400 31.8630 0.0119
47.8600 31.8764 0.0010
47.8800 31.8897 0.0071
47.9000 31.9030 0.0059
47.9200 31.9164 0.0012
47.9400 31.9297 0.0080
47.9600 31.9431 0.0013
47.9800 31.9564 0.0016
48.0000 31.9697 0.0064
48.0200 31.9830 0.0030
48.0400 31.9964 0.0025
48.0600 32.0098 0.0050
48.0800 32.0231 0.0003
48.1000 32.0364 0.0012
48.1200 32.0498 0.0019
48.1400 32.0631 0.0037
48.1600 32.0765 -0.0071
48.1800 32.0898 0.0029
48.2000 32.1031 -0.0011
48.2200 32.1165 -0.0049
48.2400 32.1298 0.0034
48.2600 32.1431 -0.0036
48.2800 32.1563 -0.0055
48.3000 32.1696 0.0059
48.3200 32.1830 -0.0061
48.3400 32.1963 -0.0077
48.3600 32.2097 -0.0016
48.3800 32.2231 -0.0074
48.4000 32.2365 -0.0110
48.4200 32.2498 -0.0025
48.4400 32.2631 -0.0102
48.4600 32.2765 -0.0065
48.4800 32.2898 -0.0054
48.5000 32.3032 -0.0098
48.5200 32.3165 -0.0083
48.5400 32.3298 -0.0084
48.5600 32.3431 -0.0095
48.5800 32.3564 -0.0098
48.6000 32.3697 -0.0102
48.6200 32.3830 -0.0100
48.6400 32.3963 -0.0122
48.6600 32.4097 -0.0120
48.6800 32.4230 -0.0129
48.7000 32.4364 -0.0127
48.7200 32.4497 -0.0178
48.7400 32.4631 -0.0117
48.7600 32.4764 -0.0154
48.7800 32.4898 -0.0176
48.8000 32.5032 -0.0109
48.8200 32.5165 -0.0183
48.8400 32.5298 -0.0186
48.8600 32.5431 -0.0116
48.8800 32.5564 -0.0177
48.9000 32.5697 -0.0194
48.9200 32.5831 -0.0119
48.9400 32.5964 -0.0187
48.9600 32.6097 -0.0220
48.9800 32.6230 -0.0119
49.0000 32.6364 -0.0135
49.0200 32.6497 -0.0257
49.0400 32.6631 -0.0103
49.0600 32.6764 -0.0148
49.0800 32.6897 -0.0268
49.1000 32.7031 -0.0095
49.1200 32.7164 -0.0167
49.1400 32.7298 -0.0283
49.1600 32.7431 -0.0062
49.1800 32.7564 -0.0177
49.2000 32.7698 -0.0288
49.2200 32.7831 -0.0101
49.2400 32.7964 -0.0152
49.2600 32.8098 -0.0262
49.2800 32.8231 -0.0099
49.3000 32.8364 -0.0197
49.3200 32.8498 -0.0297
49.3400 32.8630 -0.0133
49.3600 32.8763 -0.0127
49.3800 32.8897 -0.0228
49.4000 32.9030 -0.0146
49.4200 32.9164 -0.0187
49.4400 32.9297 -0.0241
49.4600 32.9431 -0.0114
49.4800 32.9565 -0.0189
49.5000 32.9698 -0.0308
49.5200 32.9831 -0.0145
49.5400 32.9964 -0.0149
49.5600 33.0098 -0.0303
49.5800 33.0231 -0.0174
49.6000 33.0364 -0.0179
49.6200 33.0497 -0.0307
49.6400 33.0630 -0.0214
49.6600 33.0764 -0.0168
49.6800 33.0897 -0.0354
49.7000 33.1030 -0.0236
49.7200 33.1164 -0.0174
49.7400 33.1297 -0.0371
49.7600 33.1430 -0.0231
49.7800 33.1564 -0.0156
49.8000 33.1697 -0.0357
49.8200 33.1830 -0.0232
49.8400 33.1964 -0.0174
49.8600 33.2098 -0.0403
49.8800 33.2231 -0.0212
49.9000 33.2364 -0.0170
49.9200 33.2498 -0.0396
49.9400 33.2632 -0.0219
49.9600 33.2765 -0.0207
49.9800 33.2898 -0.0393
50.0000 33.3031 -0.0220
50.0200 33.3164 -0.0245
50.0400 33.3298 -0.0412
50.0600 33.3431 -0.0210
50.0800 33.3564 -0.0293
50.1000 33.3697 -0.0400
50.1200 33.3831 -0.0269
50.1400 33.3964 -0.0356
50.1600 33.4097 -0.0423
50.1800 33.4231 -0.0307
50.2000 33.4364 -0.0369
50.2200 33.4498 -0.0394
50.2400 33.4631 -0.0358
50.2600 33.4764 -0.0359
50.2800 33.4898 -0.0370
50.3000 33.5031 -0.0425
50.3200 33.5165 -0.0407
50.3400 33.5298 -0.0407
50.3600 33.5431 -0.0439
50.3800 33.5564 -0.0375
50.4000 33.5698 -0.0407
50.4200 33.5831 -0.0527
50.4400 33.5964 -0.0346
50.4600 33.6097 -0.0428
50.4800 33.6230 -0.0505
50.5000 33.6364 -0.0353
50.5200 33.6497 -0.0503
50.5400 33.6630 -0.0457
50.5600 33.6764 -0.0354
50.5800 33.6898 -0.0583
50.6000 33.7032 -0.0452
50.6200 33.7165 -0.0384
50.6400 33.7298 -0.0556
50.6600 33.7432 -0.0451
50.6800 33.7565 -0.0362
50.7000 33.7697 -0.0547
50.7200 33.7830 -0.0428
50.7400 33.7963 -0.0361
50.7600 33.8097 -0.0549
50.7800 33.8230 -0.0413
50.8000 33.8364 -0.0458
50.8200 33.8497 -0.0511
50.8400 33.8631 -0.0405
50.8600 33.8764 -0.0434
50.8800 33.8898 -0.0470
50.9000 33.9031 -0.0457
50.9200 33.9165 -0.0406
50.9400 33.9298 -0.0443
50.9600 33.9431 -0.0441
50.9800 33.9564 -0.0445
51.0000 33.9697 -0.0479
51.0200 33.9831 -0.0451
51.0400 33.9964 -0.0423
51.0600 34.0097 -0.0455
51.0800 34.0230 -0.0478
51.1000 34.0364 -0.0389
51.1200 34.0497 -0.0503
51.1400 34.0631 -0.0466
51.1600 34.0764 -0.0374
51.1800 34.0897 -0.0494
51.2000 34.1031 -0.0497
51.2200 34.1164 -0.0399
51.2400 34.1297 -0.0509
51.2600 34.1431 -0.0432
51.2800 34.1564 -0.0461
51.3000 34.1698 -0.0538
51.3200 34.1831 -0.0463
51.3400 34.1964 -0.0441
51.3600 34.2098 -0.0510
51.3800 34.2232 -0.0488
51.4000 34.2365 -0.0499
51.4200 34.2498 -0.0480
51.4400 34.2631 -0.0547
51.4600 34.2764 -0.0489
51.4800 34.2898 -0.0493
51.5000 34.3031 -0.0571
51.5200 34.3164 -0.0442
51.5400 34.3297 -0.0535
51.5600 34.3430 -0.0588
51.5800 34.3564 -0.0475
51.6000 34.3697 -0.0625
51.6200 34.3831 -0.0575
51.6400 34.3964 -0.0480
51.6600 34.4098 -0.0609
51.6800 34.4231 -0.0612
51.7000 34.4365 -0.0503
51.7200 34.4498 -0.0600
51.7400 34.4631 -0.0606
51.7600 34.4765 -0.0559
51.7800 34.4897 -0.0626
51.8000 34.5031 -0.0550
51.8200 34.5164 -0.0563
51.8400 34.5297 -0.0624
51.8600 34.5430 -0.0598
51.8800 34.5564 -0.0592
51.9000 34.5697 -0.0609
51.9200 34.5830 -0.0626
51.9400 34.5964 -0.0607
51.9600 34.6097 -0.0618
51.9800 34.6231 -0.0618
52.0000 34.6364 -0.0600
52.0200 34.6497 -0.0650
52.0400 34.6631 -0.0681
52.0600 34.6764 -0.0629
52.0800 34.6898 -0.0647
52.1000 34.7031 -0.0684
52.1200 34.7165 -0.0648
52.1400 34.7298 -0.0668
52.1600 34.7431 -0.0696
52.1800 34.7564 -0.0795
52.2000 34.7697 -0.1017
52.2200 34.7831 0.0314
52.2400 34.7964 0.0603
52.2600 34.8097 0.0598
52.2800 34.8230 0.0496
52.3000 34.8364 0.0379
52.3200 34.8497 0.0399
52.3400 34.8631 0.0490
52.3600 34.8764 0.0348
52.3800 34.8898 0.0453
52.4000 34.9032 0.0494
52.4200 34.9165 0.0396
52.4400 34.9298 0.0490
52.4600 34.9431 0.0485
52.4800 34.9565 0.0314
52.5000 34.9698 0.0511
52.5200 34.9831 0.0487
52.5400 34.9964 0.0325
52.5600 35.0097 0.0505
52.5800 35.0231 0.0480
52.6000 35.0364 0.0384
52.6200 35.0497 0.0506
52.6400 35.0630 0.0437
52.6600 35.0764 0.0424
52.6800 35.0897 0.0436
52.7000 35.1030 0.0433
52.7200 35.1164 0.0453
52.7400 35.1298 0.0441
52.7600 35.1431 0.0418
52.7800 35.1565 0.0445
52.8000 35.1698 0.0453
52.8200 35.1831 0.0415
52.8400 35.1965 0.0482
52.8600 35.2098 0.0413
52.8800 35.2230 0.0418
52.9000 35.2363 0.0503
52.9200 35.2497 0.0409
52.9400 35.2630 0.0423
52.9600 35.2764 0.0453
52.9800 35.2897 0.0437
53.0000 35.3031 0.0388
53.0200 35.3165 0.0465
53.0400 35.3298 0.0468
53.0600 35.3431 0.0387
53.0800 35.3564 0.0483
53.1000 35.3698 0.0458
53.1200 35.3831 0.0391
53.1400 35.3964 0.0414
53.1600 35.4097 0.0517
53.1800 35.4231 0.0392
53.2000 35.4364 0.0322
53.2200 35.4498 0.0538
53.2400 35.4631 0.0366
53.2600 35.4764 0.0359
53.2800 35.4898 0.0510
53.3000 35.5031 0.0357
53.3200 35.5164 0.0379
53.3400 35.5297 0.0483
53.3600 35.5430 0.0381
53.3800 35.5564 0.0340
53.4000 35.5697 0.0508
53.4200 35.5830 0.0336
53.4400 35.5964 0.0399
53.4600 35.6097 0.0437
53.4800 35.6231 0.0352
53.5000 35.6365 0.0417
53.5200 35.6498 0.0406
53.5400 35.6631 0.0359
53.5600 35.6765 0.0433
53.5800 35.6898 0.0384
53.6000 35.7031 0.0307
53.6200 35.7164 0.0450
53.6400 35.7298 0.0391
53.6600 35.7431 0.0359
53.6800 35.7564 0.0411
53.7000 35.7697 0.0335
53.7200 35.7830 0.0455
53.7400 35.7964 0.0399
53.7600 35.8097 0.0348
53.7800 35.8230 0.0427
53.8000 35.8364 0.0350
53.8200 35.8498 0.0350
53.8400 35.8631 0.0406
53.8600 35.8764 0.0360
53.8800 35.8898 0.0322
53.9000 35.9031 0.0442
53.9200 35.9165 0.0311
53.9400 35.9298 0.0335
53.9600 35.9431 0.0481
53.9800 35.9564 0.0268
54.0000 35.9697 0.0339
54.0200 35.9831 0.0450
54.0400 35.9964 0.0294
54.0600 36.0097 0.0362
54.0800 36.0230 0.0460
54.1000 36.0364 0.0282
54.1200 36.0498 0.0350
54.1400 36.0631 0.0495
54.1600 36.0764 0.0274
54.1800 36.0898 0.0359
54.2000 36.1031 0.0455
54.2200 36.1164 0.0306
54.2400 36.1298 0.0366
54.2600 36.1431 0.0410
54.2800 36.1565 0.0277
54.3000 36.1698 0.0362
54.3200 36.1831 0.0419
54.3400 36.1964 0.0276
54.3600 36.2097 0.0310
54.3800 36.2231 0.0425
54.4000 36.2364 0.0250
54.4200 36.2497 0.0351
54.4400 36.2630 0.0432
54.4600 36.2764 0.0270
54.4800 36.2897 0.0318
54.5000 36.3031 0.0405
54.5200 36.3164 0.0256
54.5400 36.3298 0.0328
54.5600 36.3432 0.0408
54.5800 36.3565 0.0262
54.6000 36.3698 0.0299
54.6200 36.3831 0.0381
54.6400 36.3965 0.0259
54.6600 36.4098 0.0325
54.6800 36.4231 0.0413
54.7000 36.4364 0.0235
54.7200 36.4497 0.0319
54.7400 36.4631 0.0372
54.7600 36.4764 0.0269
54.7800 36.4897 0.0287
54.8000 36.5030 0.0367
54.8200 36.5164 0.0247
54.8400 36.5297 0.0234
54.8600 36.5430 0.0365
54.8800 36.5564 0.0241
54.9000 36.5698 0.0261
54.9200 36.5831 0.0359
54.9400 36.5965 0.0183
54.9600 36.6098 0.0264
54.9800 36.6231 0.0360
55.0000 36.6365 0.0266
55.0200 36.6498 0.0251
55.0400 36.6631 0.0340
55.0600 36.6764 0.0182
55.0800 36.6897 0.0286
55.1000 36.7030 0.0360
55.1200 36.7164 0.0177
55.1400 36.7297 0.0279
55.1600 36.7430 0.0322
55.1800 36.7564 0.0170
55.2000 36.7697 0.0318
55.2200 36.7831 0.0278
55.2400 36.7964 0.0202
55.2600 36.8098 0.0278
55.2800 36.8231 0.0305
55.3000 36.8364 0.0213
55.3200 36.8497 0.0284
55.3400 36.8631 0.0286
55.3600 36.8764 0.0228
55.3800 36.8898 0.0212
55.4000 36.9031 0.0325
55.4200 36.9165 0.0210
55.4400 36.9298 0.0216
55.4600 36.9431 0.0277
55.4800 36.9564 0.0206
55.5000 36.9697 0.0237
55.5200 36.9830 0.0318
55.5400 36.9963 0.0206
55.5600 37.0097 0.0197
55.5800 37.0230 0.0293
55.6000 37.0364 0.0256
55.6200 37.0498 0.0204
55.6400 37.0632 0.0294
55.6600 37.0765 0.0214
55.6800 37.0898 0.0222
55.7000 37.1032 0.0324
55.7200 37.1165 0.0167
55.7400 37.1298 0.0168
55.7600 37.1431 0.0340
55.7800 37.1564 0.0205
55.8000 37.1697 0.0189
55.8200 37.1831 0.0308
55.8400 37.1964 0.0155
55.8600 37.2097 0.0199
55.8800 37.2230 0.0313
55.9000 37.2363 0.0165
55.9200 37.2497 0.0174
55.9400 37.2630 0.0293
55.9600 37.2764 0.0193
55.9800 37.2898 0.0141
56.0000 37.3031 0.0237
56.0200 37.3165 0.0234
56.0400 37.3298 0.0186
56.0600 37.3431 0.0161
56.0800 37.3565 0.0154
56.1000 37.3698 0.0195
56.1200 37.3831 0.0276
56.1400 37.3964 0.0206
56.1600 37.4097 0.0064
56.1800 37.4231 0.0247
56.2000 37.4364 0.0313
56.2200 37.4497 0.0122
56.2400 37.4630 0.0161
56.2600 37.4764 0.0258
56.2800 37.4897 0.0095
56.3000 37.5031 0.0239
56.3200 37.5164 0.0201
56.3400 37.5297 0.0058
56.3600 37.5431 0.0218
56.3800 37.5565 0.0220
56.4000 37.5698 0.0086
56.4200 37.5831 0.0235
56.4400 37.5964 0.0216
56.4600 37.6098 0.0103
56.4800 37.6231 0.0223
56.5000 37.6364 0.0214
56.5200 37.6498 0.0147
56.5400 37.6631 0.0138
56.5600 37.6764 0.0146
56.5800 37.6897 0.0196
56.6000 37.7030 0.0173
56.6200 37.7164 0.0116
56.6400 37.7297 0.0167
56.6600 37.7431 0.0193
56.6800 37.7564 0.0136
56.7000 37.7697 0.0106
56.7200 37.7831 0.0179
56.7400 37.7965 0.0088
56.7600 37.8098 0.0149
56.7800 37.8231 0.0172
56.8000 37.8365 0.0125
56.8200 37.8498 0.0071
56.8400 37.8631 0.0152
56.8600 37.8764 0.0171
56.8800 37.8897 0.0129
56.9000 37.9031 0.0135
56.9200 37.9164 0.0159
56.9400 37.9297 0.0083
56.9600 37.9430 0.0106
56.9800 37.9564 0.0165
57.0000 37.9697 0.0111
57.0200 37.9830 0.0109
57.0400 37.9964 0.0132
57.0600 38.0097 0.0113
57.0800 38.0231 0.0111
57.1000 38.0365 0.0142
57.1200 38.0498 0.0066
57.1400 38.0631 0.0103
57.1600 38.0765 0.0152
57.1800 38.0898 0.0092
57.2000 38.1032 0.0087
57.2200 38.1164 0.0122
57.2400 38.1297 0.0128
57.2600 38.1431 0.0070
57.2800 38.1564 0.0092
57.3000 38.1697 0.0143
57.3200 38.1830 0.0075
57.3400 38.1963 0.0068
57.3600 38.2097 0.0080
57.3800 38.2230 0.0060
57.4000 38.2364 0.0117
57.4200 38.2497 0.0120
57.4400 38.2631 0.0024
57.4600 38.2765 0.0096
57.4800 38.2898 0.0081
57.5000 38.3031 0.0085
57.5200 38.3164 0.0107
57.5400 38.3298 0.0073
57.5600 38.3431 0.0012
57.5800 38.3564 0.0131
57.6000 38.3698 0.0088
57.6200 38.3831 0.0026
57.6400 38.3964 0.0104
57.6600 38.4097 0.0035
57.6800 38.4230 0.0023
57.7000 38.4363 0.0147
57.7200 38.4497 0.0011
57.7400 38.4630 0.0024
57.7600 38.4763 0.0119
57.7800 38.4897 0.0012
57.8000 38.5031 -0.0009
57.8200 38.5165 0.0117
57.8400 38.5298 -0.0010
57.8600 38.5432 0.0048
57.8800 38.5565 0.0073
57.9000 38.5698 -0.0065
57.9200 38.5831 0.0074
57.9400 38.5964 0.0058
57.9600 38.6097 -0.0027
57.9800 38.6230 0.0065
58.0000 38.6364 0.0027
58.0200 38.6497 -0.0051
58.0400 38.6630 0.0056
58.0600 38.6764 0.0014
58.0800 38.6898 -0.0018
58.1000 38.7031 0.0076
58.1200 38.7164 0.0018
58.1400 38.7298 -0.0021
58.1600 38.7431 0.0027
58.1800 38.7565 0.0017
58.2000 38.7698 -0.0015
58.2200 38.7831 0.0039
58.2400 38.7964 0.0025
58.2600 38.8098 -0.0025
58.2800 38.8231 -0.0034
58.3000 38.8364 -0.0004
58.3200 38.8497 0.0054
58.3400 38.8631 -0.0098
58.3600 38.8764 -0.0021
58.3800 38.8897 -0.0003
58.4000 38.9030 -0.0048
58.4200 38.9164 -0.0050
58.4400 38.9297 0.0006
58.4600 38.9431 -0.0111
58.4800 38.9564 -0.0005
58.5000 38.9698 -0.0027
58.5200 38.9831 -0.0111
58.5400 38.9965 0.0046
58.5600 39.0098 -0.0098
58.5800 39.0231 -0.0107
58.6000 39.0364 0.0059
58.6200 39.0498 -0.0106
58.6400 39.0631 -0.0169
58.6600 39.0764 0.0065
58.6800 39.0897 -0.0064
58.7000 39.1031 -0.0180
58.7200 39.1164 0.0036
58.7400 39.1297 -0.0105
58.7600 39.1430 -0.0200
58.7800 39.1564 0.0038
58.8000 39.1697 -0.0111
58.8200 39.1831 -0.0160
58.8400 39.1964 -0.0009
58.8600 39.2097 -0.0128
58.8800 39.2231 -0.0154
58.9000 39.2365 -0.0052
58.9200 39.2498 -0.0089
58.9400 39.2631 -0.0095
58.9600 39.2765 -0.0105
58.9800 39.2898 -0.0090
59.0000 39.3031 -0.0078
59.0200 39.3164 -0.0100
59.0400 39.3297 -0.0104
59.0600 39.3431 -0.0127
59.0800 39.3564 -0.0057
59.1000 39.3697 -0.0097
59.1200 39.3830 -0.0166
59.1400 39.3964 -0.0042
59.1600 39.4097 -0.0099
59.1800 39.4231 -0.0224
59.2000 39.4364 -0.0038
59.2200 39.4497 -0.0094
59.2400 39.4631 -0.0205
59.2600 39.4764 -0.0016
59.2800 39.4898 -0.0113
59.3000 39.5031 -0.0199
59.3200 39.5164 -0.0015
59.3400 39.5298 -0.0149
59.3600 39.5431 -0.0188
59.3800 39.5564 -0.0023
59.4000 39.5697 -0.0160
59.4200 39.5831 -0.0202
59.4400 39.5964 -0.0067
59.4600 39.6097 -0.0150
59.4800 39.6230 -0.0166
59.5000 39.6363 -0.0095
59.5200 39.6497 -0.0152
59.5400 39.6630 -0.0199
59.5600 39.6764 -0.0108
59.5800 39.6897 -0.0142
59.6000 39.7031 -0.0269
59.6200 39.7165 -0.0123
59.6400 39.7298 -0.0165
59.6600 39.7431 -0.0258
59.6800 39.7564 -0.0097
59.7000 39.7698 -0.0165
59.7200 39.7831 -0.0255
59.7400 39.7964 -0.0110
59.7600 39.8097 -0.0144
59.7800 39.8231 -0.0274
59.8000 39.8364 -0.0141
59.8200 39.8498 -0.0179
59.8400 39.8630 -0.0249
59.8600 39.8764 -0.0173
59.8800 39.8897 -0.0178
59.9000 39.9030 -0.0250
59.9200 39.9164 -0.0187
59.9400 39.9297 -0.0195
59.9600 39.9431 -0.0276
59.9800 39.9565 -0.0183
60.0000 39.9698 -0.0165
60.0200 39.9831 -0.0271
60.0400 39.9964 -0.0252
60.0460 40.0003 -0.0362
