Raw Data
Time Displacement Force
(s) (mm) (N)
0.0000 0.0000 0.2479
0.0200 0.0001 0.2568
0.0400 0.0021 0.3333
0.0600 0.0097 0.3683
0.0800 0.0216 0.3050
0.1000 0.0340 0.3020
0.1200 0.0466 0.3363
0.1400 0.0600 0.2872
0.1600 0.0741 0.2845
0.1800 0.0883 0.2961
0.2000 0.1023 0.2648
0.2200 0.1159 0.2874
0.2400 0.1293 0.3004
0.2600 0.1426 0.2686
0.2800 0.1559 0.2911
0.3000 0.1693 0.2912
0.3200 0.1827 0.2620
0.3400 0.1960 0.2937
0.3600 0.2093 0.2802
0.3800 0.2226 0.2564
0.4000 0.2360 0.2880
0.4200 0.2493 0.2771
0.4400 0.2626 0.2641
0.4600 0.2759 0.2880
0.4800 0.2893 0.2694
0.5000 0.3026 0.2635
0.5200 0.3160 0.2877
0.5400 0.3293 0.2703
0.5600 0.3426 0.2705
0.5800 0.3560 0.2906
0.6000 0.3693 0.2631
0.6200 0.3827 0.2733
0.6400 0.3960 0.2917
0.6600 0.4094 0.2658
0.6800 0.4227 0.2802
0.7000 0.4360 0.2833
0.7200 0.4494 0.2704
0.7400 0.4627 0.2840
0.7600 0.4760 0.2763
0.7800 0.4894 0.2705
0.8000 0.5027 0.2847
0.8200 0.5160 0.2749
0.8400 0.5293 0.2636
0.8600 0.5427 0.2779
0.8800 0.5560 0.2696
0.9000 0.5692 0.2638
0.9200 0.5826 0.2793
0.9400 0.5959 0.2661
0.9600 0.6093 0.2681
0.9800 0.6226 0.2747
1.0000 0.6359 0.2687
1.0200 0.6493 0.2669
1.0400 0.6627 0.2686
1.0600 0.6760 0.2709
1.0800 0.6893 0.2645
1.1000 0.7027 0.2700
1.1200 0.7160 0.2678
1.1400 0.7293 0.2627
1.1600 0.7426 0.2690
1.1800 0.7559 0.2637
1.2000 0.7693 0.2619
1.2200 0.7827 0.2633
1.2400 0.7960 0.2611
1.2600 0.8093 0.2608
1.2800 0.8226 0.2722
1.3000 0.8359 0.2617
1.3200 0.8493 0.2580
1.3400 0.8626 0.2704
1.3600 0.8759 0.2578
1.3800 0.8893 0.2582
1.4000 0.9027 0.2679
1.4200 0.9160 0.2541
1.4400 0.9293 0.2666
1.4600 0.9427 0.2690
1.4800 0.9560 0.2574
1.5000 0.9694 0.2597
1.5200 0.9827 0.2678
1.5400 0.9960 0.2579
1.5600 1.0093 0.2595
1.5800 1.0226 0.2648
1.6000 1.0359 0.2548
1.6200 1.0492 0.2576
1.6400 1.0626 0.2635
1.6600 1.0759 0.2571
1.6800 1.0893 0.2587
1.7000 1.1026 0.2577
1.7200 1.1160 0.2552
1.7400 1.1294 0.2566
1.7600 1.1427 0.2574
1.7800 1.1561 0.2612
1.8000 1.1694 0.2540
1.8200 1.1827 0.2611
1.8400 1.1960 0.2586
1.8600 1.2094 0.2488
1.8800 1.2227 0.2574
1.9000 1.2360 0.2569
1.9200 1.2493 0.2485
1.9400 1.2627 0.2597
1.9600 1.2760 0.2554
1.9800 1.2893 0.2376
2.0000 1.3026 0.2573
2.0200 1.3159 0.2568
2.0400 1.3293 0.2358
2.0600 1.3426 0.2552
2.0800 1.3560 0.2537
2.1000 1.3693 0.2384
2.1200 1.3827 0.2485
2.1400 1.3960 0.2514
2.1600 1.4094 0.2371
2.1800 1.4227 0.2531
2.2000 1.4360 0.2516
2.2200 1.4494 0.2349
2.2400 1.4627 0.2502
2.2600 1.4759 0.2516
2.2800 1.4893 0.2379
2.3000 1.5026 0.2526
2.3200 1.5160 0.2460
2.3400 1.5293 0.2375
2.3600 1.5426 0.2489
2.3800 1.5560 0.2462
2.4000 1.5694 0.2363
2.4200 1.5827 0.2483
2.4400 1.5960 0.2446
2.4600 1.6093 0.2320
2.4800 1.6226 0.2492
2.5000 1.6359 0.2428
2.5200 1.6492 0.2338
2.5400 1.6625 0.2509
2.5600 1.6759 0.2357
2.5800 1.6893 0.2332
2.6000 1.7027 0.2501
2.6200 1.7160 0.2409
2.6400 1.7294 0.2339
2.6600 1.7427 0.2470
2.6800 1.7560 0.2392
2.7000 1.7693 0.2262
2.7200 1.7826 0.2530
2.7400 1.7960 0.2454
2.7600 1.8093 0.2285
2.7800 1.8226 0.2476
2.8000 1.8359 0.2399
2.8200 1.8493 0.2287
2.8400 1.8626 0.2444
2.8600 1.8760 0.2425
2.8800 1.8893 0.2215
2.9000 1.9027 0.2450
2.9200 1.9160 0.2478
2.9400 1.9294 0.2183
2.9600 1.9427 0.2439
2.9800 1.9560 0.2467
3.0000 1.9693 0.2178
3.0200 1.9827 0.2381
3.0400 1.9960 0.2416
3.0600 2.0093 0.2230
3.0800 2.0226 0.2518
3.1000 2.0359 0.2276
3.1200 2.0493 0.2162
3.1400 2.0626 0.2527
3.1600 2.0760 0.2262
3.1800 2.0893 0.2164
3.2000 2.1027 0.2505
3.2200 2.1161 0.2295
3.2400 2.1294 0.2199
3.2600 2.1427 0.2515
3.2800 2.1560 0.2266
3.3000 2.1694 0.2216
3.3200 2.1827 0.2492
3.3400 2.1960 0.2236
3.3600 2.2093 0.2247
3.3800 2.2226 0.2445
3.4000 2.2360 0.2219
3.4200 2.2492 0.2243
3.4400 2.2626 0.2379
3.4600 2.2759 0.2287
3.4800 2.2893 0.2215
3.5000 2.3027 0.2379
3.5200 2.3160 0.2226
3.5400 2.3293 0.2271
3.5600 2.3427 0.2335
3.5800 2.3560 0.2193
3.6000 2.3694 0.2263
3.6200 2.3827 0.2314
3.6400 2.3960 0.2198
3.6600 2.4094 0.2257
3.6800 2.4227 0.2315
3.7000 2.4360 0.2191
3.7200 2.4493 0.2218
3.7400 2.4627 0.2331
3.7600 2.4760 0.2209
3.7800 2.4893 0.2249
3.8000 2.5026 0.2288
3.8200 2.5159 0.2244
3.8400 2.5293 0.2206
3.8600 2.5426 0.2249
3.8800 2.5559 0.2266
3.9000 2.5693 0.2194
3.9200 2.5827 0.2238
3.9400 2.5961 0.2199
3.9600 2.6094 0.2181
3.9800 2.6227 0.2256
4.0000 2.6360 0.2220
4.0200 2.6493 0.2194
4.0400 2.6627 0.2236
4.0600 2.6760 0.2252
4.0800 2.6893 0.2156
4.1000 2.7026 0.2251
4.1200 2.7160 0.2230
4.1400 2.7293 0.2180
4.1600 2.7426 0.2181
4.1800 2.7559 0.2198
4.2000 2.7693 0.2181
4.2200 2.7826 0.2148
4.2400 2.7959 0.2215
4.2600 2.8093 0.2168
4.2800 2.8227 0.2163
4.3000 2.8360 0.2219
4.3200 2.8494 0.2141
4.3400 2.8627 0.2170
4.3600 2.8760 0.2206
4.3800 2.8894 0.2134
4.4000 2.9027 0.2145
4.4200 2.9160 0.2211
4.4400 2.9293 0.2169
4.4600 2.9426 0.2138
4.4800 2.9560 0.2180
4.5000 2.9693 0.2150
4.5200 2.9826 0.2169
4.5400 2.9959 0.2206
4.5600 3.0093 0.2128
4.5800 3.0226 0.2117
4.6000 3.0359 0.2221
4.6200 3.0493 0.2084
4.6400 3.0626 0.2142
4.6600 3.0760 0.2193
4.6800 3.0893 0.2106
4.7000 3.1026 0.2141
4.7200 3.1160 0.2166
4.7400 3.1294 0.2137
4.7600 3.1427 0.2118
4.7800 3.1561 0.2094
4.8000 3.1694 0.2149
4.8200 3.1827 0.2112
4.8400 3.1960 0.2114
4.8600 3.2093 0.2109
4.8800 3.2226 0.2150
4.9000 3.2358 0.2133
4.9200 3.2492 0.2090
4.9400 3.2625 0.2092
4.9600 3.2759 0.2084
4.9800 3.2893 0.2156
5.0000 3.3027 0.2026
5.0200 3.3161 0.2084
5.0400 3.3294 0.2113
5.0600 3.3427 0.2036
5.0800 3.3561 0.2115
5.1000 3.3694 0.2089
5.1200 3.3827 0.1990
5.1400 3.3960 0.2163
5.1600 3.4093 0.2085
5.1800 3.4226 0.2001
5.2000 3.4360 0.2179
5.2200 3.4493 0.2044
5.2400 3.4626 0.1951
5.2600 3.4759 0.2184
5.2800 3.4893 0.2034
5.3000 3.5026 0.1995
5.3200 3.5159 0.2160
5.3400 3.5293 0.2004
5.3600 3.5427 0.2018
5.3800 3.5560 0.2086
5.4000 3.5694 0.1935
5.4200 3.5827 0.2052
5.4400 3.5960 0.2085
5.4600 3.6094 0.1913
5.4800 3.6227 0.2087
5.5000 3.6360 0.2135
5.5200 3.6493 0.1909
5.5400 3.6626 0.2098
5.5600 3.6760 0.2097
5.5800 3.6893 0.1921
5.6000 3.7026 0.2090
5.6200 3.7159 0.2073
5.6400 3.7293 0.1919
5.6600 3.7427 0.2054
5.6800 3.7560 0.2047
5.7000 3.7693 0.1929
5.7200 3.7827 0.2032
5.7400 3.7960 0.2027
5.7600 3.8094 0.1910
5.7800 3.8227 0.1999
5.8000 3.8360 0.2026
5.8200 3.8494 0.1948
5.8400 3.8627 0.1986
5.8600 3.8760 0.1993
5.8800 3.8893 0.1988
5.9000 3.9027 0.1970
5.9200 3.9160 0.1949
5.9400 3.9293 0.1948
5.9600 3.9426 0.1977
5.9800 3.9559 0.2003
6.0000 3.9693 0.1912
6.0200 3.9826 0.1972
6.0400 3.9960 0.2061
6.0600 4.0093 0.1906
6.0800 4.0227 0.1975
6.1000 4.0360 0.2064
6.1200 4.0494 0.1958
6.1400 4.0627 0.1941
6.1600 4.0760 0.2026
6.1800 4.0894 0.1991
6.2000 4.1027 0.1973
6.2200 4.1160 0.1985
6.2400 4.1293 0.1967
6.2600 4.1426 0.2059
6.2800 4.1560 0.1950
6.3000 4.1693 0.1854
6.3200 4.1826 0.2062
6.3400 4.1959 0.1981
6.3600 4.2093 0.1930
6.3800 4.2226 0.1982
6.4000 4.2359 0.1937
6.4200 4.2493 0.2017
6.4400 4.2626 0.1982
6.4600 4.2760 0.1825
6.4800 4.2893 0.1980
6.5000 4.3027 0.2099
6.5200 4.3160 0.1835
6.5400 4.3294 0.1978
6.5600 4.3427 0.2042
6.5800 4.3560 0.1843
6.6000 4.3693 0.1980
6.6200 4.3826 0.1983
6.6400 4.3960 0.1845
6.6600 4.4093 0.2010
6.6800 4.4226 0.1899
6.7000 4.4359 0.1862
6.7200 4.4493 0.1979
6.7400 4.4626 0.1943
6.7600 4.4759 0.1835
6.7800 4.4893 0.1928
6.8000 4.5026 0.1916
6.8200 4.5160 0.1858
6.8400 4.5293 0.1900
6.8600 4.5427 0.1917
6.8800 4.5560 0.1872
6.9000 4.5693 0.1944
6.9200 4.5827 0.1921
6.9400 4.5960 0.1846
6.9600 4.6093 0.1909
6.9800 4.6226 0.1908
7.0000 4.6360 0.1848
7.0200 4.6493 0.1876
7.0400 4.6626 0.1891
7.0600 4.6759 0.1874
7.0800 4.6892 0.1861
7.1000 4.7026 0.1880
7.1200 4.7159 0.1850
7.1400 4.7293 0.1883
7.1600 4.7427 0.1837
7.1800 4.7561 0.1794
7.2000 4.7694 0.1888
7.2200 4.7828 0.1805
7.2400 4.7961 0.1796
7.2600 4.8094 0.1910
7.2800 4.8227 0.1792
7.3000 4.8360 0.1780
7.3200 4.8492 0.1911
7.3400 4.8625 0.1799
7.3600 4.8759 0.1833
7.3800 4.8892 0.1893
7.4000 4.9026 0.1742
7.4200 4.9159 0.1807
7.4400 4.9293 0.1921
7.4600 4.9427 0.1749
7.4800 4.9560 0.1837
7.5000 4.9694 0.1849
7.5200 4.9827 0.1758
7.5400 4.9961 0.1812
7.5600 5.0094 0.1805
7.5800 5.0227 0.1746
7.6000 5.0360 0.1864
7.6200 5.0494 0.1770
7.6400 5.0627 0.1761
7.6600 5.0760 0.1847
7.6800 5.0893 0.1764
7.7000 5.1026 0.1772
7.7200 5.1160 0.1868
7.7400 5.1293 0.1723
7.7600 5.1426 0.1748
7.7800 5.1559 0.1799
7.8000 5.1693 0.1747
7.8200 5.1826 0.1772
7.8400 5.1960 0.1772
7.8600 5.2093 0.1709
7.8800 5.2226 0.1806
7.9000 5.2360 0.1724
7.9200 5.2494 0.1690
7.9400 5.2627 0.1825
7.9600 5.2760 0.1714
7.9800 5.2894 0.1703
8.0000 5.3027 0.1805
8.0200 5.3160 0.1695
8.0400 5.3293 0.1735
8.0600 5.3426 0.1852
8.0800 5.3560 0.1661
8.1000 5.3693 0.1744
8.1200 5.3826 0.1867
8.1400 5.3959 0.1660
8.1600 5.4093 0.1723
8.1800 5.4226 0.1859
8.2000 5.4360 0.1662
8.2200 5.4493 0.1737
8.2400 5.4626 0.1808
8.2600 5.4760 0.1683
8.2800 5.4894 0.1736
8.3000 5.5027 0.1781
8.3200 5.5160 0.1670
8.3400 5.5293 0.1759
8.3600 5.5427 0.1798
8.3800 5.5560 0.1632
8.4000 5.5693 0.1767
8.4200 5.5826 0.1792
8.4400 5.5960 0.1630
8.4600 5.6093 0.1776
8.4800 5.6226 0.1752
8.5000 5.6359 0.1698
8.5200 5.6493 0.1747
8.5400 5.6626 0.1714
8.5600 5.6760 0.1659
8.5800 5.6893 0.1768
8.6000 5.7026 0.1712
8.6200 5.7160 0.1651
8.6400 5.7294 0.1741
8.6600 5.7427 0.1694
8.6800 5.7560 0.1679
8.7000 5.7693 0.1712
8.7200 5.7827 0.1719
8.7400 5.7960 0.1677
8.7600 5.8093 0.1690
8.7800 5.8226 0.1670
8.8000 5.8360 0.1659
8.8200 5.8493 0.1684
8.8400 5.8626 0.1694
8.8600 5.8759 0.1640
8.8800 5.8892 0.1671
8.9000 5.9026 0.1700
8.9200 5.9160 0.1612
8.9400 5.9293 0.1614
8.9600 5.9427 0.1696
8.9800 5.9561 0.1617
9.0000 5.9694 0.1587
9.0200 5.9827 0.1660
9.0400 5.9960 0.1570
9.0600 6.0093 0.1628
9.0800 6.0227 0.1632
9.1000 6.0360 0.1554
9.1200 6.0493 0.1675
9.1400 6.0626 0.1620
9.1600 6.0759 0.1601
9.1800 6.0893 0.1608
9.2000 6.1026 0.1617
9.2200 6.1159 0.1613
9.2400 6.1292 0.1613
9.2600 6.1426 0.1623
9.2800 6.1559 0.1611
9.3000 6.1693 0.1593
9.3200 6.1826 0.1581
9.3400 6.1960 0.1622
9.3600 6.2094 0.1586
9.3800 6.2227 0.1582
9.4000 6.2360 0.1619
9.4200 6.2494 0.1591
9.4400 6.2627 0.1587
9.4600 6.2760 0.1584
9.4800 6.2893 0.1531
9.5000 6.3026 0.1621
9.5200 6.3159 0.1623
9.5400 6.3293 0.1505
9.5600 6.3426 0.1616
9.5800 6.3559 0.1621
9.6000 6.3693 0.1495
9.6200 6.3827 0.1604
9.6400 6.3960 0.1578
9.6600 6.4093 0.1495
9.6800 6.4227 0.1609
9.7000 6.4360 0.1647
9.7200 6.4493 0.1467
9.7400 6.4626 0.1647
9.7600 6.4759 0.1618
9.7800 6.4893 0.1426
9.8000 6.5026 0.1619
9.8200 6.5160 0.1588
9.8400 6.5293 0.1428
9.8600 6.5427 0.1651
9.8800 6.5560 0.1569
9.9000 6.5694 0.1447
9.9200 6.5827 0.1629
9.9400 6.5960 0.1563
9.9600 6.6093 0.1451
9.9800 6.6226 0.1624
10.0000 6.6360 0.1488
10.0200 6.6493 0.1458
10.0400 6.6626 0.1658
10.0600 6.6760 0.1495
10.0800 6.6893 0.1431
10.1000 6.7027 0.1630
10.1200 6.7160 0.1495
10.1400 6.7293 0.1439
10.1600 6.7427 0.1602
10.1800 6.7560 0.1487
10.2000 6.7693 0.1443
10.2200 6.7827 0.1627
10.2400 6.7960 0.1465
10.2600 6.8093 0.1457
10.2800 6.8227 0.1584
10.3000 6.8360 0.1440
10.3200 6.8493 0.1467
10.3400 6.8626 0.1581
10.3600 6.8759 0.1458
10.3800 6.8893 0.1453
10.4000 6.9026 0.1600
10.4200 6.9160 0.1483
10.4400 6.9294 0.1430
10.4600 6.9427 0.1540
10.4800 6.9560 0.1485
10.5000 6.9694 0.1411
10.5200 6.9827 0.1514
10.5400 6.9960 0.1485
10.5600 7.0093 0.1398
10.5800 7.0226 0.1539
10.6000 7.0360 0.1513
10.6200 7.0493 0.1347
10.6400 7.0626 0.1517
10.6600 7.0759 0.1497
10.6800 7.0893 0.1351
10.7000 7.1026 0.1512
10.7200 7.1160 0.1470
10.7400 7.1293 0.1321
10.7600 7.1426 0.1536
10.7800 7.1560 0.1459
10.8000 7.1693 0.1309
10.8200 7.1827 0.1538
10.8400 7.1960 0.1508
10.8600 7.2093 0.1273
10.8800 7.2227 0.1528
10.9000 7.2360 0.1480
10.9200 7.2493 0.1327
10.9400 7.2626 0.1543
10.9600 7.2760 0.1482
10.9800 7.2893 0.1325
11.0000 7.3026 0.1480
11.0200 7.3159 0.1473
11.0400 7.3292 0.1330
11.0600 7.3426 0.1473
11.0800 7.3559 0.1490
11.1000 7.3693 0.1279
11.1200 7.3826 0.1469
11.1400 7.3960 0.1541
11.1600 7.4094 0.1262
11.1800 7.4227 0.1471
11.2000 7.4360 0.1503
11.2200 7.4493 0.1254
11.2400 7.4627 0.1434
11.2600 7.4760 0.1489
11.2800 7.4893 0.1216
11.3000 7.5026 0.1465
11.3200 7.5160 0.1490
11.3400 7.5293 0.1185
11.3600 7.5427 0.1418
11.3800 7.5560 0.1509
11.4000 7.5693 0.1190
11.4200 7.5826 0.1455
11.4400 7.5960 0.1478
11.4600 7.6093 0.1187
11.4800 7.6226 0.1442
11.5000 7.6360 0.1421
11.5200 7.6494 0.1192
11.5400 7.6627 0.1411
11.5600 7.6760 0.1396
11.5800 7.6893 0.1249
11.6000 7.7027 0.1420
11.6200 7.7160 0.1360
11.6400 7.7294 0.1239
11.6600 7.7426 0.1441
11.6800 7.7559 0.1365
11.7000 7.7693 0.1242
11.7200 7.7826 0.1426
11.7400 7.7959 0.1367
11.7600 7.8092 0.1312
11.7800 7.8226 0.1415
11.8000 7.8360 0.1325
11.8200 7.8493 0.1303
11.8400 7.8626 0.1355
11.8600 7.8760 0.1377
11.8800 7.8893 0.1288
11.9000 7.9027 0.1327
11.9200 7.9160 0.1318
11.9400 7.9293 0.1293
11.9600 7.9427 0.1334
11.9800 7.9561 0.1339
12.0000 7.9694 0.1265
12.0200 7.9827 0.1312
12.0400 7.9960 0.1346
12.0600 8.0094 0.1205
12.0800 8.0227 0.1300
12.1000 8.0360 0.1356
12.1200 8.0492 0.1232
12.1400 8.0625 0.1342
12.1600 8.0758 0.1328
12.1800 8.0892 0.1216
12.2000 8.1025 0.1360
12.2200 8.1159 0.1323
12.2400 8.1294 0.1237
12.2600 8.1428 0.1323
12.2800 8.1561 0.1312
12.3000 8.1694 0.1231
12.3200 8.1828 0.1306
12.3400 8.1961 0.1293
12.3600 8.2094 0.1248
12.3800 8.2226 0.1304
12.4000 8.2359 0.1289
12.4200 8.2493 0.1286
12.4400 8.2626 0.1305
12.4600 8.2759 0.1284
12.4800 8.2892 0.1277
12.5000 8.3026 0.1312
12.5200 8.3159 0.1248
12.5400 8.3293 0.1267
12.5600 8.3426 0.1301
12.5800 8.3560 0.1271
12.6000 8.3694 0.1224
12.6200 8.3827 0.1228
12.6400 8.3961 0.1254
12.6600 8.4094 0.1256
12.6800 8.4227 0.1237
12.7000 8.4360 0.1245
12.7200 8.4494 0.1225
12.7400 8.4627 0.1232
12.7600 8.4760 0.1292
12.7800 8.4893 0.1229
12.8000 8.5026 0.1180
12.8200 8.5159 0.1308
12.8400 8.5292 0.1218
12.8600 8.5426 0.1242
12.8800 8.5560 0.1257
12.9000 8.5693 0.1180
12.9200 8.5827 0.1229
12.9400 8.5960 0.1237
12.9600 8.6094 0.1199
12.9800 8.6227 0.1204
13.0000 8.6360 0.1227
13.0200 8.6493 0.1225
13.0400 8.6627 0.1201
13.0600 8.6760 0.1222
13.0800 8.6894 0.1186
13.1000 8.7027 0.1187
13.1200 8.7160 0.1176
13.1400 8.7293 0.1252
13.1600 8.7426 0.1145
13.1800 8.7559 0.1171
13.2000 8.7692 0.1241
13.2200 8.7826 0.1117
13.2400 8.7960 0.1197
13.2600 8.8093 0.1218
13.2800 8.8226 0.1116
13.3000 8.8360 0.1225
13.3200 8.8494 0.1239
13.3400 8.8627 0.1115
13.3600 8.8761 0.1223
13.3800 8.8894 0.1229
13.4000 8.9027 0.1069
13.4200 8.9160 0.1227
13.4400 8.9294 0.1277
13.4600 8.9426 0.1066
13.4800 8.9559 0.1233
13.5000 8.9693 0.1200
13.5200 8.9826 0.1071
13.5400 8.9960 0.1205
13.5600 9.0093 0.1224
13.5800 9.0226 0.1106
13.6000 9.0359 0.1171
13.6200 9.0492 0.1206
13.6400 9.0626 0.1104
13.6600 9.0759 0.1155
13.6800 9.0893 0.1241
13.7000 9.1027 0.1071
13.7200 9.1160 0.1143
13.7400 9.1294 0.1218
13.7600 9.1427 0.1097
13.7800 9.1561 0.1100
13.8000 9.1694 0.1242
13.8200 9.1827 0.1051
13.8400 9.1960 0.1089
13.8600 9.2093 0.1236
13.8800 9.2227 0.1091
13.9000 9.2360 0.1089
13.9200 9.2493 0.1254
13.9400 9.2626 0.1024
13.9600 9.2760 0.1069
13.9800 9.2893 0.1267
14.0000 9.3026 0.1014
14.0200 9.3160 0.1068
14.0400 9.3293 0.1278
14.0600 9.3427 0.0989
14.0800 9.3560 0.1062
14.1000 9.3693 0.1225
14.1200 9.3827 0.0986
14.1400 9.3960 0.1082
14.1600 9.4093 0.1183
14.1800 9.4227 0.0998
14.2000 9.4360 0.1152
14.2200 9.4493 0.1152
14.2400 9.4627 0.0960
14.2600 9.4760 0.1125
14.2800 9.4893 0.1137
14.3000 9.5026 0.0993
14.3200 9.5159 0.1106
14.3400 9.5292 0.1066
14.3600 9.5426 0.0975
14.3800 9.5560 0.1164
14.4000 9.5694 0.1034
14.4200 9.5827 0.0992
14.4400 9.5961 0.1103
14.4600 9.6094 0.0996
14.4800 9.6227 0.1038
14.5000 9.6360 0.1071
14.5200 9.6493 0.1032
14.5400 9.6626 0.1045
14.5600 9.6758 0.1056
14.5800 9.6892 0.1065
14.6000 9.7025 0.1062
14.6200 9.7159 0.1014
14.6400 9.7293 0.1014
14.6600 9.7426 0.1071
14.6800 9.7560 0.0994
14.7000 9.7693 0.1018
14.7200 9.7827 0.1049
14.7400 9.7960 0.0966
14.7600 9.8094 0.1062
14.7800 9.8227 0.0980
14.8000 9.8361 0.0948
14.8200 9.8494 0.1106
14.8400 9.8627 0.0937
14.8600 9.8760 0.0938
14.8800 9.8893 0.1117
14.9000 9.9026 0.0965
14.9200 9.9159 0.0939
14.9400 9.9293 0.1137
14.9600 9.9426 0.0939
14.9800 9.9560 0.0923
15.0000 9.9693 0.1102
15.0200 9.9826 0.0980
15.0400 9.9959 0.0919
15.0600 10.0093 0.1116
15.0800 10.0226 0.0976
15.1000 10.0360 0.0918
15.1200 10.0493 0.1126
15.1400 10.0627 0.0934
15.1600 10.0760 0.0911
15.1800 10.0893 0.1128
15.2000 10.1027 0.0941
15.2200 10.1160 0.0959
15.2400 10.1294 0.1111
15.2600 10.1427 0.0954
15.2800 10.1560 0.0943
15.3000 10.1693 0.1112
15.3200 10.1827 0.0941
15.3400 10.1960 0.0969
15.3600 10.2093 0.1095
15.3800 10.2226 0.0953
15.4000 10.2359 0.0971
15.4200 10.2493 0.1035
15.4400 10.2626 0.0945
15.4600 10.2760 0.0947
15.4800 10.2893 0.1032
15.5000 10.3027 0.0949
15.5200 10.3161 0.0954
15.5400 10.3294 0.0994
15.5600 10.3427 0.0956
15.5800 10.3560 0.0969
15.6000 10.3694 0.0993
15.6200 10.3827 0.0965
15.6400 10.3960 0.0964
15.6600 10.4093 0.1002
15.6800 10.4226 0.0961
15.7000 10.4360 0.0974
15.7200 10.4493 0.0996
15.7400 10.4626 0.0911
15.7600 10.4759 0.0964
15.7800 10.4893 0.0977
15.8000 10.5026 0.0921
15.8200 10.5159 0.0958
15.8400 10.5293 0.1002
15.8600 10.5427 0.0864
15.8800 10.5560 0.0926
15.9000 10.5693 0.0966
15.9200 10.5827 0.0904
15.9400 10.5960 0.0945
15.9600 10.6094 0.0907
15.9800 10.6227 0.0935
16.0000 10.6360 0.0907
16.0200 10.6493 0.0927
16.0400 10.6626 0.0947
16.0600 10.6760 0.0889
16.0800 10.6893 0.0925
16.1000 10.7026 0.0895
16.1200 10.7159 0.0871
16.1400 10.7293 0.0927
16.1600 10.7426 0.0906
16.1800 10.7560 0.0851
16.2000 10.7693 0.0883
16.2200 10.7827 0.0892
16.2400 10.7961 0.0798
16.2600 10.8094 0.0932
16.2800 10.8227 0.0869
16.3000 10.8360 0.0792
16.3200 10.8494 0.0907
16.3400 10.8627 0.0863
16.3600 10.8760 0.0827
16.3800 10.8893 0.0957
16.4000 10.9027 0.0846
16.4200 10.9160 0.0808
16.4400 10.9293 0.0931
16.4600 10.9426 0.0861
16.4800 10.9559 0.0814
16.5000 10.9693 0.0899
16.5200 10.9826 0.0810
16.5400 10.9959 0.0823
16.5600 11.0093 0.0939
16.5800 11.0227 0.0817
16.6000 11.0360 0.0834
16.6200 11.0494 0.0869
16.6400 11.0627 0.0842
16.6600 11.0760 0.0862
16.6800 11.0894 0.0877
16.7000 11.1027 0.0833
16.7200 11.1160 0.0841
16.7400 11.1293 0.0866
16.7600 11.1426 0.0875
16.7800 11.1560 0.0824
16.8000 11.1693 0.0830
16.8200 11.1826 0.0902
16.8400 11.1960 0.0806
16.8600 11.2093 0.0801
16.8800 11.2227 0.0895
16.9000 11.2360 0.0794
16.9200 11.2493 0.0813
16.9400 11.2627 0.0857
16.9600 11.2760 0.0801
16.9800 11.2893 0.0828
17.0000 11.3026 0.0887
17.0200 11.3160 0.0798
17.0400 11.3293 0.0810
17.0600 11.3427 0.0839
17.0800 11.3560 0.0815
17.1000 11.3693 0.0835
17.1200 11.3827 0.0830
17.1400 11.3960 0.0773
17.1600 11.4093 0.0881
17.1800 11.4226 0.0782
17.2000 11.4359 0.0808
17.2200 11.4493 0.0847
17.2400 11.4626 0.0772
17.2600 11.4759 0.0847
17.2800 11.4893 0.0807
17.3000 11.5027 0.0728
17.3200 11.5160 0.0855
17.3400 11.5293 0.0757
17.3600 11.5426 0.0779
17.3800 11.5560 0.0900
17.4000 11.5694 0.0727
17.4200 11.5827 0.0728
17.4400 11.5960 0.0898
17.4600 11.6093 0.0767
17.4800 11.6227 0.0749
17.5000 11.6360 0.0859
17.5200 11.6493 0.0761
17.5400 11.6626 0.0755
17.5600 11.6759 0.0873
17.5800 11.6893 0.0759
17.6000 11.7026 0.0749
17.6200 11.7159 0.0833
17.6400 11.7293 0.0738
17.6600 11.7427 0.0748
17.6800 11.7560 0.0796
17.7000 11.7694 0.0749
17.7200 11.7827 0.0739
17.7400 11.7960 0.0793
17.7600 11.8094 0.0717
17.7800 11.8227 0.0763
17.8000 11.8360 0.0778
17.8200 11.8493 0.0773
17.8400 11.8626 0.0728
17.8600 11.8760 0.0794
17.8800 11.8893 0.0753
17.9000 11.9026 0.0707
17.9200 11.9159 0.0825
17.9400 11.9293 0.0730
17.9600 11.9427 0.0672
17.9800 11.9560 0.0833
18.0000 11.9693 0.0734
18.0200 11.9826 0.0691
18.0400 11.9960 0.0798
18.0600 12.0093 0.0742
18.0800 12.0227 0.0641
18.1000 12.0360 0.0863
18.1200 12.0494 0.0720
18.1400 12.0627 0.0618
18.1600 12.0760 0.0861
18.1800 12.0893 0.0690
18.2000 12.1027 0.0716
18.2200 12.1160 0.0835
18.2400 12.1293 0.0669
18.2600 12.1426 0.0755
18.2800 12.1559 0.0779
18.3000 12.1693 0.0633
18.3200 12.1826 0.0768
18.3400 12.1960 0.0763
18.3600 12.2093 0.0647
18.3800 12.2227 0.0747
18.4000 12.2360 0.0750
18.4200 12.2494 0.0638
18.4400 12.2627 0.0784
18.4600 12.2760 0.0707
18.4800 12.2894 0.0624
18.5000 12.3027 0.0786
18.5200 12.3160 0.0712
18.5400 12.3293 0.0692
18.5600 12.3426 0.0743
18.5800 12.3560 0.0655
18.6000 12.3693 0.0715
18.6200 12.3826 0.0689
18.6400 12.3960 0.0746
18.6600 12.4093 0.0698
18.6800 12.4226 0.0656
18.7000 12.4359 0.0705
18.7200 12.4493 0.0657
18.7400 12.4627 0.0638
18.7600 12.4760 0.0680
18.7800 12.4894 0.0677
18.8000 12.5027 0.0648
18.8200 12.5160 0.0726
18.8400 12.5294 0.0674
18.8600 12.5427 0.0610
18.8800 12.5560 0.0781
18.9000 12.5693 0.0646
18.9200 12.5826 0.0623
18.9400 12.5960 0.0765
18.9600 12.6093 0.0584
18.9800 12.6226 0.0668
19.0000 12.6359 0.0735
19.0200 12.6493 0.0589
19.0400 12.6626 0.0656
19.0600 12.6759 0.0746
19.0800 12.6893 0.0576
19.1000 12.7026 0.0605
19.1200 12.7160 0.0734
19.1400 12.7293 0.0575
19.1600 12.7426 0.0631
19.1800 12.7560 0.0721
19.2000 12.7694 0.0546
19.2200 12.7827 0.0640
19.2400 12.7960 0.0683
19.2600 12.8094 0.0575
19.2800 12.8227 0.0627
19.3000 12.8360 0.0734
19.3200 12.8493 0.0564
19.3400 12.8626 0.0573
19.3600 12.8759 0.0706
19.3800 12.8892 0.0583
19.4000 12.9025 0.0612
19.4200 12.9159 0.0690
19.4400 12.9293 0.0545
19.4600 12.9427 0.0598
19.4800 12.9560 0.0652
19.5000 12.9694 0.0554
19.5200 12.9827 0.0628
19.5400 12.9961 0.0714
19.5600 13.0094 0.0500
19.5800 13.0227 0.0616
19.6000 13.0360 0.0721
19.6200 13.0493 0.0490
19.6400 13.0626 0.0649
19.6600 13.0760 0.0695
19.6800 13.0893 0.0469
19.7000 13.1026 0.0663
19.7200 13.1159 0.0670
19.7400 13.1293 0.0492
19.7600 13.1426 0.0596
19.7800 13.1559 0.0652
19.8000 13.1693 0.0535
19.8200 13.1827 0.0614
19.8400 13.1960 0.0619
19.8600 13.2094 0.0485
19.8800 13.2227 0.0595
19.9000 13.2360 0.0606
19.9200 13.2494 0.0564
19.9400 13.2627 0.0592
19.9600 13.2760 0.0630
19.9800 13.2893 0.0543
20.0000 13.3026 0.0561
20.0200 13.3160 0.0627
20.0400 13.3293 0.0559
20.0600 13.3426 0.0546
20.0800 13.3559 0.0602
20.1000 13.3693 0.0513
20.1200 13.3827 0.0558
20.1400 13.3960 0.0567
20.1600 13.4093 0.0522
20.1800 13.4227 0.0576
20.2000 13.4360 0.0576
20.2200 13.4494 0.0524
20.2400 13.4627 0.0557
20.2600 13.4760 0.0537
20.2800 13.4894 0.0550
20.3000 13.5027 0.0560
20.3200 13.5160 0.0521
20.3400 13.5293 0.0542
20.3600 13.5427 0.0568
20.3800 13.5560 0.0521
20.4000 13.5693 0.0525
20.4200 13.5826 0.0569
20.4400 13.5959 0.0546
20.4600 13.6092 0.0536
20.4800 13.6226 0.0568
20.5000 13.6360 0.0541
20.5200 13.6493 0.0497
20.5400 13.6627 0.0537
20.5600 13.6760 0.0522
20.5800 13.6894 0.0511
20.6000 13.7027 0.0538
20.6200 13.7160 0.0538
20.6400 13.7294 0.0507
20.6600 13.7427 0.0541
20.6800 13.7560 0.0533
20.7000 13.7693 0.0557
20.7200 13.7826 0.0537
20.7400 13.7960 0.0522
20.7600 13.8093 0.0525
20.7800 13.8226 0.0498
20.8000 13.8359 0.0539
20.8200 13.8493 0.0565
20.8400 13.8626 0.0513
20.8600 13.8759 0.0490
20.8800 13.8893 0.0531
20.9000 13.9026 0.0513
20.9200 13.9160 0.0452
20.9400 13.9294 0.0570
20.9600 13.9427 0.0498
20.9800 13.9560 0.0484
21.0000 13.9694 0.0576
21.0200 13.9827 0.0508
21.0400 13.9961 0.0508
21.0600 14.0093 0.0538
21.0800 14.0226 0.0457
21.1000 14.0360 0.0510
21.1200 14.0493 0.0546
21.1400 14.0626 0.0452
21.1600 14.0759 0.0474
21.1800 14.0893 0.0530
21.2000 14.1026 0.0473
21.2200 14.1159 0.0426
21.2400 14.1293 0.0502
21.2600 14.1426 0.0519
21.2800 14.1560 0.0413
21.3000 14.1694 0.0479
21.3200 14.1827 0.0499
21.3400 14.1960 0.0429
21.3600 14.2093 0.0509
21.3800 14.2227 0.0442
21.4000 14.2360 0.0415
21.4200 14.2493 0.0501
21.4400 14.2626 0.0437
21.4600 14.2760 0.0381
21.4800 14.2893 0.0512
21.5000 14.3026 0.0390
21.5200 14.3159 0.0370
21.5400 14.3292 0.0523
21.5600 14.3426 0.0418
21.5800 14.3559 0.0387
21.6000 14.3692 0.0552
21.6200 14.3826 0.0372
21.6400 14.3961 0.0394
21.6600 14.4094 0.0519
21.6800 14.4228 0.0367
21.7000 14.4361 0.0411
21.7200 14.4494 0.0514
21.7400 14.4627 0.0385
21.7600 14.4760 0.0403
21.7800 14.4892 0.0502
21.8000 14.5025 0.0441
21.8200 14.5159 0.0393
21.8400 14.5292 0.0466
21.8600 14.5426 0.0377
21.8800 14.5559 0.0420
21.9000 14.5693 0.0485
21.9200 14.5827 0.0381
21.9400 14.5960 0.0403
21.9600 14.6093 0.0462
21.9800 14.6227 0.0432
22.0000 14.6360 0.0403
22.0200 14.6494 0.0466
22.0400 14.6627 0.0430
22.0600 14.6760 0.0381
22.0800 14.6893 0.0453
22.1000 14.7027 0.0430
22.1200 14.7160 0.0351
22.1400 14.7293 0.0450
22.1600 14.7426 0.0449
22.1800 14.7560 0.0331
22.2000 14.7693 0.0473
22.2200 14.7826 0.0456
22.2400 14.7959 0.0312
22.2600 14.8093 0.0475
22.2800 14.8226 0.0420
22.3000 14.8360 0.0287
22.3200 14.8493 0.0479
22.3400 14.8627 0.0427
22.3600 14.8760 0.0295
22.3800 14.8894 0.0426
22.4000 14.9027 0.0404
22.4200 14.9160 0.0325
22.4400 14.9294 0.0432
22.4600 14.9427 0.0365
22.4800 14.9561 0.0325
22.5000 14.9693 0.0426
22.5200 14.9826 0.0334
22.5400 14.9960 0.0356
22.5600 15.0093 0.0406
22.5800 15.0226 0.0341
22.6000 15.0359 0.0353
22.6200 15.0493 0.0391
22.6400 15.0626 0.0369
22.6600 15.0760 0.0347
22.6800 15.0893 0.0387
22.7000 15.1026 0.0371
22.7200 15.1160 0.0324
22.7400 15.1294 0.0327
22.7600 15.1427 0.0405
22.7800 15.1560 0.0314
22.8000 15.1693 0.0324
22.8200 15.1827 0.0413
22.8400 15.1960 0.0279
22.8600 15.2093 0.0324
22.8800 15.2226 0.0421
22.9000 15.2360 0.0268
22.9200 15.2493 0.0338
22.9400 15.2626 0.0381
22.9600 15.2759 0.0277
22.9800 15.2893 0.0341
23.0000 15.3026 0.0422
23.0200 15.3160 0.0233
23.0400 15.3293 0.0371
23.0600 15.3426 0.0375
23.0800 15.3560 0.0239
23.1000 15.3693 0.0363
23.1200 15.3827 0.0348
23.1400 15.3960 0.0259
23.1600 15.4093 0.0398
23.1800 15.4227 0.0348
23.2000 15.4361 0.0253
23.2200 15.4493 0.0358
23.2400 15.4626 0.0338
23.2600 15.4760 0.0236
23.2800 15.4893 0.0331
23.3000 15.5026 0.0327
23.3200 15.5159 0.0267
23.3400 15.5292 0.0310
23.3600 15.5426 0.0326
23.3800 15.5559 0.0267
23.4000 15.5693 0.0288
23.4200 15.5827 0.0301
23.4400 15.5960 0.0246
23.4600 15.6094 0.0268
23.4800 15.6227 0.0288
23.5000 15.6360 0.0274
23.5200 15.6493 0.0276
23.5400 15.6627 0.0280
23.5600 15.6760 0.0284
23.5800 15.6893 0.0246
23.6000 15.7026 0.0313
23.6200 15.7160 0.0297
23.6400 15.7293 0.0198
23.6600 15.7426 0.0335
23.6800 15.7559 0.0244
23.7000 15.7692 0.0230
23.7200 15.7826 0.0325
23.7400 15.7959 0.0221
23.7600 15.8093 0.0241
23.7800 15.8226 0.0341
23.8000 15.8360 0.0205
23.8200 15.8494 0.0214
23.8400 15.8627 0.0321
23.8600 15.8760 0.0219
23.8800 15.8893 0.0270
23.9000 15.9027 0.0286
23.9200 15.9160 0.0157
23.9400 15.9293 0.0300
23.9600 15.9426 0.0283
23.9800 15.9559 0.0174
24.0000 15.9693 0.0285
24.0200 15.9826 0.0303
24.0400 15.9959 0.0102
24.0600 16.0093 0.0338
24.0800 16.0226 0.0259
24.1000 16.0360 0.0141
24.1200 16.0493 0.0273
24.1400 16.0626 0.0236
24.1600 16.0760 0.0197
24.1800 16.0893 0.0229
24.2000 16.1026 0.0226
24.2200 16.1159 0.0198
24.2400 16.1292 0.0208
24.2600 16.1426 0.0238
24.2800 16.1560 0.0194
24.3000 16.1693 0.0213
24.3200 16.1827 0.0199
24.3400 16.1960 0.0237
24.3600 16.2094 0.0184
24.3800 16.2227 0.0201
24.4000 16.2360 0.0250
24.4200 16.2493 0.0153
24.4400 16.2626 0.0223
24.4600 16.2759 0.0173
24.4800 16.2893 0.0161
24.5000 16.3026 0.0232
24.5200 16.3160 0.0193
24.5400 16.3293 0.0144
24.5600 16.3427 0.0186
24.5800 16.3560 0.0201
24.6000 16.3693 0.0146
24.6200 16.3827 0.0208
24.6400 16.3960 0.0148
24.6600 16.4094 0.0138
24.6800 16.4227 0.0235
24.7000 16.4360 0.0096
24.7200 16.4494 0.0169
24.7400 16.4627 0.0185
24.7600 16.4759 0.0105
24.7800 16.4892 0.0161
24.8000 16.5026 0.0217
24.8200 16.5159 0.0084
24.8400 16.5293 0.0196
24.8600 16.5426 0.0182
24.8800 16.5560 0.0114
24.9000 16.5694 0.0181
24.9200 16.5827 0.0150
24.9400 16.5960 0.0160
24.9600 16.6094 0.0221
24.9800 16.6227 0.0102
25.0000 16.6361 0.0145
25.0200 16.6494 0.0216
25.0400 16.6626 0.0089
25.0600 16.6760 0.0151
25.0800 16.6893 0.0199
25.1000 16.7026 0.0051
25.1200 16.7159 0.0192
25.1400 16.7292 0.0170
25.1600 16.7426 0.0066
25.1800 16.7560 0.0191
25.2000 16.7693 0.0136
25.2200 16.7826 0.0065
25.2400 16.7959 0.0256
25.2600 16.8093 0.0111
25.2800 16.8227 0.0081
25.3000 16.8360 0.0256
25.3200 16.8493 0.0094
25.3400 16.8627 0.0108
25.3600 16.8761 0.0221
25.3800 16.8894 0.0089
25.4000 16.9027 0.0099
25.4200 16.9160 0.0240
25.4400 16.9293 0.0083
25.4600 16.9426 0.0099
25.4800 16.9559 0.0241
25.5000 16.9692 0.0075
25.5200 16.9825 0.0137
25.5400 16.9959 0.0205
25.5600 17.0092 0.0072
25.5800 17.0226 0.0144
25.6000 17.0360 0.0162
25.6200 17.0494 0.0137
25.6400 17.0627 0.0137
25.6600 17.0760 0.0155
25.6800 17.0893 0.0135
25.7000 17.1027 0.0123
25.7200 17.1160 0.0147
25.7400 17.1293 0.0111
25.7600 17.1426 0.0078
25.7800 17.1560 0.0183
25.8000 17.1693 0.0122
25.8200 17.1827 0.0056
25.8400 17.1960 0.0118
25.8600 17.2093 0.0121
25.8800 17.2226 0.0008
25.9000 17.2360 0.0126
25.9200 17.2493 0.0123
25.9400 17.2626 0.0018
25.9600 17.2760 0.0124
25.9800 17.2894 0.0083
26.0000 17.3027 0.0028
26.0200 17.3160 0.0152
26.0400 17.3294 0.0065
26.0600 17.3427 0.0064
26.0800 17.3561 0.0155
26.1000 17.3694 0.0044
26.1200 17.3826 0.0037
26.1400 17.3960 0.0143
26.1600 17.4093 0.0067
26.1800 17.4226 0.0000
26.2000 17.4359 0.0096
26.2200 17.4492 0.0072
26.2400 17.4626 0.0028
26.2600 17.4760 0.0078
26.2800 17.4893 0.0095
26.3000 17.5027 0.0005
26.3200 17.5160 0.0065
26.3400 17.5293 0.0068
26.3600 17.5427 -0.0039
26.3800 17.5560 0.0082
26.4000 17.5693 0.0081
26.4200 17.5827 -0.0048
26.4400 17.5960 0.0091
26.4600 17.6094 0.0066
26.4800 17.6227 -0.0044
26.5000 17.6360 0.0048
26.5200 17.6494 0.0038
26.5400 17.6627 -0.0077
26.5600 17.6760 0.0043
26.5800 17.6892 0.0037
26.6000 17.7025 -0.0071
26.6200 17.7159 0.0057
26.6400 17.7292 -0.0016
26.6600 17.7426 -0.0083
26.6800 17.7559 0.0060
26.7000 17.7694 0.0032
26.7200 17.7827 -0.0100
26.7400 17.7961 0.0032
26.7600 17.8094 0.0012
26.7800 17.8227 -0.0079
26.8000 17.8361 0.0036
26.8200 17.8494 -0.0011
26.8400 17.8627 -0.0075
26.8600 17.8760 0.0038
26.8800 17.8893 0.0007
26.9000 17.9026 -0.0064
26.9200 17.9159 0.0049
26.9400 17.9292 -0.0013
26.9600 17.9426 -0.0122
26.9800 17.9559 0.0023
27.0000 17.9693 0.0022
27.0200 17.9826 -0.0100
27.0400 17.9959 0.0018
27.0600 18.0093 -0.0003
27.0800 18.0227 -0.0135
27.1000 18.0361 0.0046
27.1200 18.0494 -0.0020
27.1400 18.0627 -0.0142
27.1600 18.0760 0.0073
27.1800 18.0894 -0.0042
27.2000 18.1026 -0.0176
27.2200 18.1160 0.0058
27.2400 18.1293 -0.0036
27.2600 18.1427 -0.0149
27.2800 18.1560 0.0060
27.3000 18.1693 -0.0023
27.3200 18.1826 -0.0147
27.3400 18.1960 0.0033
27.3600 18.2093 -0.0072
27.3800 18.2226 -0.0151
27.4000 18.2360 0.0037
27.4200 18.2493 -0.0060
27.4400 18.2627 -0.0149
27.4600 18.2760 0.0027
27.4800 18.2893 -0.0095
27.5000 18.3027 -0.0183
27.5200 18.3160 0.0016
27.5400 18.3294 -0.0079
27.5600 18.3427 -0.0215
27.5800 18.3560 0.0009
27.6000 18.3694 -0.0122
27.6200 18.3827 -0.0198
27.6400 18.3960 0.0001
27.6600 18.4093 -0.0075
27.6800 18.4226 -0.0208
27.7000 18.4360 -0.0074
27.7200 18.4493 -0.0085
27.7400 18.4626 -0.0220
27.7600 18.4760 -0.0026
27.7800 18.4893 -0.0071
27.8000 18.5027 -0.0260
27.8200 18.5160 -0.0077
27.8400 18.5294 -0.0055
27.8600 18.5427 -0.0231
27.8800 18.5560 -0.0074
27.9000 18.5693 -0.0103
27.9200 18.5826 -0.0266
27.9400 18.5959 -0.0060
27.9600 18.6093 -0.0092
27.9800 18.6227 -0.0295
28.0000 18.6360 -0.0112
28.0200 18.6493 -0.0061
28.0400 18.6626 -0.0250
28.0600 18.6760 -0.0133
28.0800 18.6893 -0.0082
28.1000 18.7026 -0.0297
28.1200 18.7159 -0.0126
28.1400 18.7293 -0.0137
28.1600 18.7427 -0.0286
28.1800 18.7560 -0.0106
28.2000 18.7693 -0.0165
28.2200 18.7827 -0.0252
28.2400 18.7961 -0.0105
28.2600 18.8094 -0.0180
28.2800 18.8227 -0.0204
28.3000 18.8360 -0.0127
28.3200 18.8493 -0.0210
28.3400 18.8627 -0.0228
28.3600 18.8760 -0.0145
28.3800 18.8893 -0.0172
28.4000 18.9026 -0.0232
28.4200 18.9159 -0.0192
28.4400 18.9293 -0.0173
28.4600 18.9426 -0.0223
28.4800 18.9560 -0.0204
28.5000 18.9693 -0.0191
28.5200 18.9827 -0.0221
28.5400 18.9960 -0.0252
28.5600 19.0093 -0.0177
28.5800 19.0227 -0.0204
28.6000 19.0360 -0.0245
28.6200 19.0494 -0.0153
28.6400 19.0627 -0.0278
28.6600 19.0760 -0.0183
28.6800 19.0893 -0.0147
28.7000 19.1027 -0.0294
28.7200 19.1160 -0.0222
28.7400 19.1292 -0.0152
28.7600 19.1425 -0.0265
28.7800 19.1559 -0.0224
28.8000 19.1692 -0.0214
28.8200 19.1826 -0.0245
28.8400 19.1960 -0.0242
28.8600 19.2094 -0.0204
28.8800 19.2228 -0.0268
28.9000 19.2361 -0.0233
28.9200 19.2494 -0.0230
28.9400 19.2627 -0.0242
28.9600 19.2761 -0.0230
28.9800 19.2894 -0.0263
29.0000 19.3026 -0.0251
29.0200 19.3159 -0.0230
29.0400 19.3292 -0.0245
29.0600 19.3426 -0.0231
29.0800 19.3559 -0.0262
29.1000 19.3693 -0.0244
29.1200 19.3826 -0.0282
29.1400 19.3960 -0.0309
29.1600 19.4093 -0.0242
29.1800 19.4227 -0.0268
29.2000 19.4360 -0.0323
29.2200 19.4494 -0.0281
29.2400 19.4627 -0.0250
29.2600 19.4760 -0.0328
29.2800 19.4893 -0.0257
29.3000 19.5026 -0.0278
29.3200 19.5160 -0.0268
29.3400 19.5293 -0.0325
29.3600 19.5426 -0.0282
29.3800 19.5560 -0.0282
29.4000 19.5693 -0.0324
29.4200 19.5827 -0.0317
29.4400 19.5960 -0.0300
29.4600 19.6093 -0.0332
29.4800 19.6226 -0.0318
29.5000 19.6360 -0.0300
29.5200 19.6493 -0.0359
29.5400 19.6626 -0.0337
29.5600 19.6760 -0.0280
29.5800 19.6893 -0.0434
29.6000 19.7027 -0.0300
29.6200 19.7160 -0.0288
29.6400 19.7293 -0.0432
29.6600 19.7426 -0.0294
29.6800 19.7560 -0.0308
29.7000 19.7693 -0.0464
29.7200 19.7827 -0.0312
29.7400 19.7960 -0.0352
29.7600 19.8093 -0.0461
29.7800 19.8227 -0.0329
29.8000 19.8360 -0.0402
29.8200 19.8493 -0.0497
29.8400 19.8626 -0.0253
29.8600 19.8759 -0.0378
29.8800 19.8893 -0.0526
29.9000 19.9026 -0.0227
29.9200 19.9160 -0.0438
29.9400 19.9293 -0.0492
29.9600 19.9427 -0.0210
29.9800 19.9561 -0.0508
30.0000 19.9694 -0.0508
30.0200 19.9827 -0.0240
30.0400 19.9960 -0.0521
30.0600 20.0094 -0.0462
30.0800 20.0227 -0.0250
30.1000 20.0359 -0.0544
30.1200 20.0493 -0.0445
30.1400 20.0626 -0.0288
30.1600 20.0760 -0.0603
30.1800 20.0893 -0.0443
30.2000 20.1026 -0.0305
30.2200 20.1160 -0.0608
30.2400 20.1293 -0.0406
30.2600 20.1426 -0.0330
30.2800 20.1559 -0.0619
30.3000 20.1693 -0.0465
30.3200 20.1827 -0.0363
30.3400 20.1960 -0.0561
30.3600 20.2093 -0.0457
30.3800 20.2227 -0.0370
30.4000 20.2360 -0.0599
30.4200 20.2494 -0.0471
30.4400 20.2627 -0.0440
30.4600 20.2760 -0.0540
30.4800 20.2893 -0.0480
30.5000 20.3027 -0.0425
30.5200 20.3160 -0.0536
30.5400 20.3293 -0.0498
30.5600 20.3426 -0.0422
30.5800 20.3559 -0.0502
30.6000 20.3693 -0.0541
30.6200 20.3826 -0.0437
30.6400 20.3960 -0.0495
30.6600 20.4093 -0.0535
30.6800 20.4227 -0.0447
30.7000 20.4361 -0.0531
30.7200 20.4494 -0.0537
30.7400 20.4627 -0.0449
30.7600 20.4760 -0.0572
30.7800 20.4894 -0.0576
30.8000 20.5027 -0.0230
30.8200 20.5160 0.0165
30.8400 20.5293 0.0801
30.8600 20.5426 0.1509
30.8800 20.5560 0.1861
30.9000 20.5693 0.2291
30.9200 20.5826 0.2858
30.9400 20.5959 0.3097
30.9600 20.6093 0.3526
30.9800 20.6226 0.3903
31.0000 20.6359 0.3848
31.0200 20.6493 0.3832
31.0400 20.6627 0.3957
31.0600 20.6760 0.3801
31.0800 20.6894 0.3837
31.1000 20.7027 0.3920
31.1200 20.7160 0.3825
31.1400 20.7294 0.3837
31.1600 20.7427 0.3931
31.1800 20.7560 0.3777
31.2000 20.7693 0.3811
31.2200 20.7826 0.3939
31.2400 20.7959 0.3754
31.2600 20.8093 0.3817
31.2800 20.8226 0.3848
31.3000 20.8360 0.3742
31.3200 20.8494 0.3800
31.3400 20.8627 0.3729
31.3600 20.8760 0.3785
31.3800 20.8893 0.3727
31.4000 20.9027 0.3717
31.4200 20.9160 0.3718
31.4400 20.9293 0.3679
31.4600 20.9426 0.3723
31.4800 20.9559 0.3729
31.5000 20.9693 0.3664
31.5200 20.9827 0.3662
31.5400 20.9960 0.3745
31.5600 21.0093 0.3629
31.5800 21.0227 0.3702
31.6000 21.0360 0.3749
31.6200 21.0493 0.3585
31.6400 21.0626 0.3729
31.6600 21.0760 0.3742
31.6800 21.0893 0.3573
31.7000 21.1026 0.3711
31.7200 21.1159 0.3733
31.7400 21.1293 0.3553
31.7600 21.1426 0.3728
31.7800 21.1560 0.3681
31.8000 21.1693 0.3515
31.8200 21.1826 0.3728
31.8400 21.1960 0.3643
31.8600 21.2094 0.3591
31.8800 21.2227 0.3719
31.9000 21.2360 0.3621
31.9200 21.2493 0.3602
31.9400 21.2626 0.3696
31.9600 21.2760 0.3622
31.9800 21.2893 0.3589
32.0000 21.3026 0.3673
32.0200 21.3159 0.3555
32.0400 21.3293 0.3561
32.0600 21.3426 0.3666
32.0800 21.3559 0.3520
32.1000 21.3693 0.3558
32.1200 21.3827 0.3594
32.1400 21.3960 0.3501
32.1600 21.4094 0.3518
32.1800 21.4227 0.3555
32.2000 21.4360 0.3500
32.2200 21.4494 0.3515
32.2400 21.4627 0.3548
32.2600 21.4760 0.3499
32.2800 21.4893 0.3500
32.3000 21.5026 0.3529
32.3200 21.5160 0.3473
32.3400 21.5293 0.3483
32.3600 21.5426 0.3473
32.3800 21.5559 0.3487
32.4000 21.5693 0.3444
32.4200 21.5826 0.3442
32.4400 21.5960 0.3480
32.4600 21.6093 0.3388
32.4800 21.6226 0.3461
32.5000 21.6360 0.3446
32.5200 21.6493 0.3374
32.5400 21.6627 0.3427
32.5600 21.6760 0.3420
32.5800 21.6894 0.3310
32.6000 21.7027 0.3441
32.6200 21.7160 0.3400
32.6400 21.7293 0.3352
32.6600 21.7426 0.3455
32.6800 21.7560 0.3361
32.7000 21.7693 0.3290
32.7200 21.7826 0.3446
32.7400 21.7959 0.3346
32.7600 21.8093 0.3265
32.7800 21.8226 0.3407
32.8000 21.8359 0.3279
32.8200 21.8493 0.3253
32.8400 21.8627 0.3389
32.8600 21.8761 0.3227
32.8800 21.8894 0.3203
32.9000 21.9027 0.3331
32.9200 21.9160 0.3254
32.9400 21.9294 0.3210
32.9600 21.9427 0.3269
32.9800 21.9560 0.3252
33.0000 21.9693 0.3187
33.0200 21.9826 0.3255
33.0400 21.9960 0.3216
33.0600 22.0093 0.3171
33.0800 22.0226 0.3258
33.1000 22.0360 0.3229
33.1200 22.0493 0.3141
33.1400 22.0626 0.3227
33.1600 22.0759 0.3226
33.1800 22.0893 0.3170
33.2000 22.1027 0.3207
33.2200 22.1160 0.3217
33.2400 22.1294 0.3140
33.2600 22.1427 0.3237
33.2800 22.1560 0.3182
33.3000 22.1693 0.3157
33.3200 22.1827 0.3203
33.3400 22.1960 0.3199
33.3600 22.2093 0.3136
33.3800 22.2226 0.3209
33.4000 22.2360 0.3177
33.4200 22.2493 0.3131
33.4400 22.2626 0.3135
33.4600 22.2759 0.3167
33.4800 22.2893 0.3157
33.5000 22.3026 0.3143
33.5200 22.3160 0.3162
33.5400 22.3293 0.3093
33.5600 22.3426 0.3087
33.5800 22.3560 0.3147
33.6000 22.3693 0.3064
33.6200 22.3826 0.3119
33.6400 22.3960 0.3132
33.6600 22.4093 0.3060
33.6800 22.4227 0.3092
33.7000 22.4360 0.3088
33.7200 22.4494 0.3049
33.7400 22.4627 0.3080
33.7600 22.4760 0.3015
33.7800 22.4893 0.3022
33.8000 22.5026 0.3083
33.8200 22.5159 0.3010
33.8400 22.5292 0.3049
33.8600 22.5425 0.3036
33.8800 22.5559 0.2959
33.9000 22.5692 0.3033
33.9200 22.5826 0.3055
33.9400 22.5960 0.2958
33.9600 22.6094 0.2989
33.9800 22.6227 0.2998
34.0000 22.6361 0.2958
34.0200 22.6494 0.2979
34.0400 22.6628 0.2979
34.0600 22.6761 0.2958
34.0800 22.6893 0.2980
34.1000 22.7026 0.2943
34.1200 22.7160 0.2928
34.1400 22.7293 0.2982
34.1600 22.7426 0.2968
34.1800 22.7559 0.2895
34.2000 22.7692 0.3023
34.2200 22.7826 0.2882
34.2400 22.7959 0.2891
34.2600 22.8093 0.2986
34.2800 22.8226 0.2893
34.3000 22.8360 0.2894
34.3200 22.8494 0.2986
34.3400 22.8627 0.2838
34.3600 22.8761 0.2856
34.3800 22.8894 0.2961
34.4000 22.9027 0.2814
34.4200 22.9160 0.2846
34.4400 22.9293 0.2972
34.4600 22.9426 0.2749
34.4800 22.9560 0.2880
34.5000 22.9693 0.2871
34.5200 22.9826 0.2730
34.5400 22.9959 0.2892
34.5600 23.0093 0.2861
34.5800 23.0226 0.2717
34.6000 23.0359 0.2830
34.6200 23.0493 0.2843
34.6400 23.0626 0.2720
34.6600 23.0760 0.2840
34.6800 23.0894 0.2812
34.7000 23.1027 0.2697
34.7200 23.1160 0.2802
34.7400 23.1293 0.2805
34.7600 23.1427 0.2710
34.7800 23.1560 0.2743
34.8000 23.1693 0.2795
34.8200 23.1827 0.2724
34.8400 23.1960 0.2677
34.8600 23.2093 0.2760
34.8800 23.2226 0.2677
34.9000 23.2359 0.2708
34.9200 23.2493 0.2755
34.9400 23.2626 0.2649
34.9600 23.2760 0.2668
34.9800 23.2893 0.2766
35.0000 23.3027 0.2640
35.0200 23.3160 0.2640
35.0400 23.3294 0.2771
35.0600 23.3427 0.2631
35.0800 23.3560 0.2615
35.1000 23.3693 0.2801
35.1200 23.3827 0.2589
35.1400 23.3960 0.2649
35.1600 23.4093 0.2797
35.1800 23.4226 0.2549
35.2000 23.4360 0.2658
35.2200 23.4493 0.2730
35.2400 23.4626 0.2500
35.2600 23.4759 0.2660
35.2800 23.4893 0.2775
35.3000 23.5026 0.2481
35.3200 23.5159 0.2612
35.3400 23.5293 0.2719
35.3600 23.5426 0.2471
35.3800 23.5560 0.2641
35.4000 23.5694 0.2618
35.4200 23.5827 0.2426
35.4400 23.5960 0.2693
35.4600 23.6094 0.2576
35.4800 23.6227 0.2467
35.5000 23.6361 0.2626
35.5200 23.6494 0.2488
35.5400 23.6627 0.2503
35.5600 23.6760 0.2634
35.5800 23.6893 0.2478
35.6000 23.7026 0.2538
35.6200 23.7160 0.2537
35.6400 23.7293 0.2461
35.6600 23.7426 0.2532
35.6800 23.7560 0.2489
35.7000 23.7693 0.2484
35.7200 23.7826 0.2550
35.7400 23.7960 0.2450
35.7600 23.8094 0.2457
35.7800 23.8227 0.2547
35.8000 23.8360 0.2457
35.8200 23.8493 0.2465
35.8400 23.8627 0.2540
35.8600 23.8760 0.2443
35.8800 23.8893 0.2468
35.9000 23.9026 0.2555
35.9200 23.9160 0.2364
35.9400 23.9293 0.2449
35.9600 23.9426 0.2493
35.9800 23.9559 0.2397
36.0000 23.9692 0.2471
36.0200 23.9826 0.2450
36.0400 23.9959 0.2370
36.0600 24.0093 0.2460
36.0800 24.0226 0.2465
36.1000 24.0360 0.2325
36.1200 24.0494 0.2474
36.1400 24.0628 0.2408
36.1600 24.0761 0.2278
36.1800 24.0894 0.2471
36.2000 24.1027 0.2403
36.2200 24.1160 0.2311
36.2400 24.1293 0.2427
36.2600 24.1425 0.2388
36.2800 24.1559 0.2312
36.3000 24.1692 0.2370
36.3200 24.1826 0.2306
36.3400 24.1959 0.2312
36.3600 24.2093 0.2387
36.3800 24.2226 0.2283
36.4000 24.2360 0.2284
36.4200 24.2493 0.2365
36.4400 24.2627 0.2288
36.4600 24.2761 0.2266
36.4800 24.2894 0.2324
36.5000 24.3027 0.2269
36.5200 24.3160 0.2291
36.5400 24.3293 0.2295
36.5600 24.3427 0.2266
36.5800 24.3560 0.2242
36.6000 24.3693 0.2247
36.6200 24.3826 0.2295
36.6400 24.3959 0.2253
36.6600 24.4093 0.2236
36.6800 24.4226 0.2278
36.7000 24.4359 0.2218
36.7200 24.4493 0.2236
36.7400 24.4626 0.2259
36.7600 24.4760 0.2179
36.7800 24.4893 0.2227
36.8000 24.5026 0.2263
36.8200 24.5160 0.2133
36.8400 24.5294 0.2218
36.8600 24.5427 0.2241
36.8800 24.5560 0.2129
36.9000 24.5693 0.2216
36.9200 24.5827 0.2192
36.9400 24.5960 0.2106
36.9600 24.6093 0.2237
36.9800 24.6226 0.2119
37.0000 24.6360 0.2110
37.0200 24.6493 0.2251
37.0400 24.6626 0.2053
37.0600 24.6759 0.2117
37.0800 24.6893 0.2285
37.1000 24.7026 0.1993
37.1200 24.7160 0.2130
37.1400 24.7293 0.2212
37.1600 24.7426 0.2043
37.1800 24.7560 0.2158
37.2000 24.7694 0.2199
37.2200 24.7827 0.2008
37.2400 24.7960 0.2126
37.2600 24.8093 0.2137
37.2800 24.8227 0.2030
37.3000 24.8360 0.2115
37.3200 24.8493 0.2120
37.3400 24.8626 0.2014
37.3600 24.8760 0.2138
37.3800 24.8893 0.2089
37.4000 24.9026 0.2024
37.4200 24.9159 0.2088
37.4400 24.9293 0.2052
37.4600 24.9426 0.2054
37.4800 24.9560 0.2043
37.5000 24.9693 0.2056
37.5200 24.9826 0.2062
37.5400 24.9960 0.2030
37.5600 25.0093 0.1987
37.5800 25.0227 0.2028
37.6000 25.0360 0.2022
37.6200 25.0493 0.1989
37.6400 25.0627 0.2060
37.6600 25.0760 0.1969
37.6800 25.0894 0.2003
37.7000 25.1027 0.2032
37.7200 25.1160 0.1944
37.7400 25.1293 0.1999
37.7600 25.1426 0.1991
37.7800 25.1559 0.1944
37.8000 25.1692 0.1981
37.8200 25.1826 0.1997
37.8400 25.1959 0.1884
37.8600 25.2093 0.1943
37.8800 25.2226 0.1989
37.9000 25.2360 0.1864
37.9200 25.2494 0.1916
37.9400 25.2627 0.1996
37.9600 25.2760 0.1847
37.9800 25.2893 0.1927
38.0000 25.3027 0.1981
38.0200 25.3161 0.1845
38.0400 25.3293 0.1885
38.0600 25.3426 0.2010
38.0800 25.3559 0.1815
38.1000 25.3693 0.1900
38.1200 25.3827 0.1952
38.1400 25.3960 0.1784
38.1600 25.4093 0.1890
38.1800 25.4226 0.1927
38.2000 25.4359 0.1746
38.2200 25.4492 0.1893
38.2400 25.4626 0.1911
38.2600 25.4759 0.1740
38.2800 25.4893 0.1872
38.3000 25.5027 0.1888
38.3200 25.5160 0.1724
38.3400 25.5294 0.1869
38.3600 25.5427 0.1857
38.3800 25.5560 0.1731
38.4000 25.5693 0.1889
38.4200 25.5826 0.1813
38.4400 25.5959 0.1762
38.4600 25.6093 0.1861
38.4800 25.6226 0.1820
38.5000 25.6359 0.1766
38.5200 25.6493 0.1846
38.5400 25.6626 0.1815
38.5600 25.6760 0.1742
38.5800 25.6893 0.1831
38.6000 25.7026 0.1835
38.6200 25.7160 0.1727
38.6400 25.7293 0.1788
38.6600 25.7426 0.1820
38.6800 25.7559 0.1760
38.7000 25.7693 0.1774
38.7200 25.7826 0.1816
38.7400 25.7960 0.1714
38.7600 25.8094 0.1708
38.7800 25.8227 0.1839
38.8000 25.8360 0.1735
38.8200 25.8494 0.1726
38.8400 25.8627 0.1836
38.8600 25.8760 0.1702
38.8800 25.8893 0.1713
38.9000 25.9026 0.1804
38.9200 25.9160 0.1692
38.9400 25.9293 0.1702
38.9600 25.9426 0.1844
38.9800 25.9559 0.1681
39.0000 25.9693 0.1655
39.0200 25.9827 0.1839
39.0400 25.9960 0.1658
39.0600 26.0093 0.1708
39.0800 26.0227 0.1813
39.1000 26.0360 0.1615
39.1200 26.0493 0.1715
39.1400 26.0627 0.1789
39.1600 26.0760 0.1634
39.1800 26.0893 0.1753
39.2000 26.1027 0.1791
39.2200 26.1160 0.1646
39.2400 26.1293 0.1721
39.2600 26.1426 0.1754
39.2800 26.1559 0.1657
39.3000 26.1693 0.1754
39.3200 26.1826 0.1713
39.3400 26.1960 0.1610
39.3600 26.2094 0.1709
39.3800 26.2227 0.1712
39.4000 26.2360 0.1650
39.4200 26.2494 0.1685
39.4400 26.2627 0.1650
39.4600 26.2761 0.1651
39.4800 26.2893 0.1638
39.5000 26.3026 0.1661
39.5200 26.3160 0.1650
39.5400 26.3293 0.1627
39.5600 26.3426 0.1599
39.5800 26.3559 0.1650
39.6000 26.3692 0.1628
39.6200 26.3826 0.1598
39.6400 26.3960 0.1578
39.6600 26.4093 0.1588
39.6800 26.4226 0.1609
39.7000 26.4360 0.1574
39.7200 26.4493 0.1535
39.7400 26.4627 0.1611
39.7600 26.4760 0.1571
39.7800 26.4893 0.1539
39.8000 26.5027 0.1572
39.8200 26.5161 0.1533
39.8400 26.5294 0.1550
39.8600 26.5427 0.1558
39.8800 26.5560 0.1560
39.9000 26.5693 0.1597
39.9200 26.5826 0.1556
39.9400 26.5959 0.1471
39.9600 26.6092 0.1582
39.9800 26.6226 0.1537
40.0000 26.6359 0.1487
40.0200 26.6493 0.1565
40.0400 26.6626 0.1468
40.0600 26.6760 0.1496
40.0800 26.6893 0.1532
40.1000 26.7027 0.1414
40.1200 26.7160 0.1502
40.1400 26.7293 0.1534
40.1600 26.7427 0.1420
40.1800 26.7560 0.1453
40.2000 26.7693 0.1549
40.2200 26.7826 0.1381
40.2400 26.7960 0.1464
40.2600 26.8093 0.1535
40.2800 26.8227 0.1310
40.3000 26.8360 0.1467
40.3200 26.8493 0.1492
40.3400 26.8626 0.1302
40.3600 26.8759 0.1442
40.3800 26.8893 0.1431
40.4000 26.9026 0.1319
40.4200 26.9160 0.1401
40.4400 26.9293 0.1423
40.4600 26.9427 0.1271
40.4800 26.9560 0.1368
40.5000 26.9693 0.1423
40.5200 26.9827 0.1292
40.5400 26.9960 0.1340
40.5600 27.0094 0.1399
40.5800 27.0227 0.1249
40.6000 27.0359 0.1366
40.6200 27.0493 0.1409
40.6400 27.0626 0.1249
40.6600 27.0759 0.1352
40.6800 27.0893 0.1361
40.7000 27.1026 0.1219
40.7200 27.1160 0.1338
40.7400 27.1293 0.1329
40.7600 27.1426 0.1226
40.7800 27.1560 0.1317
40.8000 27.1693 0.1347
40.8200 27.1827 0.1186
40.8400 27.1960 0.1323
40.8600 27.2093 0.1327
40.8800 27.2227 0.1220
40.9000 27.2360 0.1310
40.9200 27.2494 0.1314
40.9400 27.2627 0.1265
40.9600 27.2760 0.1241
40.9800 27.2894 0.1287
41.0000 27.3027 0.1229
41.0200 27.3160 0.1219
41.0400 27.3293 0.1269
41.0600 27.3426 0.1230
41.0800 27.3559 0.1203
41.1000 27.3692 0.1271
41.1200 27.3826 0.1214
41.1400 27.3959 0.1248
41.1600 27.4093 0.1285
41.1800 27.4227 0.1192
41.2000 27.4361 0.1209
41.2200 27.4494 0.1267
41.2400 27.4627 0.1226
41.2600 27.4761 0.1218
41.2800 27.4894 0.1243
41.3000 27.5027 0.1202
41.3200 27.5160 0.1249
41.3400 27.5293 0.1323
41.3600 27.5426 0.1188
41.3800 27.5559 0.1222
41.4000 27.5692 0.1286
41.4200 27.5826 0.1234
41.4400 27.5959 0.1235
41.4600 27.6093 0.1210
41.4800 27.6226 0.1187
41.5000 27.6359 0.1260
41.5200 27.6493 0.1242
41.5400 27.6627 0.1165
41.5600 27.6760 0.1213
41.5800 27.6894 0.1255
41.6000 27.7027 0.1167
41.6200 27.7160 0.1182
41.6400 27.7294 0.1264
41.6600 27.7427 0.1179
41.6800 27.7560 0.1153
41.7000 27.7693 0.1251
41.7200 27.7826 0.1177
41.7400 27.7960 0.1115
41.7600 27.8093 0.1215
41.7800 27.8226 0.1138
41.8000 27.8360 0.1079
41.8200 27.8493 0.1162
41.8400 27.8626 0.1142
41.8600 27.8760 0.1043
41.8800 27.8893 0.1166
41.9000 27.9027 0.1116
41.9200 27.9160 0.1049
41.9400 27.9294 0.1188
41.9600 27.9427 0.1108
41.9800 27.9560 0.1038
42.0000 27.9694 0.1150
42.0200 27.9827 0.1057
42.0400 27.9960 0.1001
42.0600 28.0093 0.1164
42.0800 28.0227 0.1037
42.1000 28.0360 0.0940
42.1200 28.0493 0.1177
42.1400 28.0626 0.1026
42.1600 28.0759 0.0971
42.1800 28.0893 0.1164
42.2000 28.1026 0.0984
42.2200 28.1160 0.0970
42.2400 28.1293 0.1094
42.2600 28.1427 0.0959
42.2800 28.1561 0.0945
42.3000 28.1694 0.1099
42.3200 28.1827 0.0984
42.3400 28.1960 0.0936
42.3600 28.2093 0.1074
42.3800 28.2226 0.0922
42.4000 28.2359 0.0950
42.4200 28.2493 0.1051
42.4400 28.2626 0.0939
42.4600 28.2760 0.0936
42.4800 28.2893 0.1043
42.5000 28.3026 0.0933
42.5200 28.3160 0.0895
42.5400 28.3293 0.1017
42.5600 28.3426 0.0889
42.5800 28.3559 0.0892
42.6000 28.3693 0.0998
42.6200 28.3827 0.0887
42.6400 28.3960 0.0867
42.6600 28.4093 0.1025
42.6800 28.4227 0.0861
42.7000 28.4361 0.0897
42.7200 28.4494 0.1017
42.7400 28.4627 0.0828
42.7600 28.4760 0.0886
42.7800 28.4893 0.1016
42.8000 28.5026 0.0818
42.8200 28.5160 0.0860
42.8400 28.5293 0.0952
42.8600 28.5426 0.0846
42.8800 28.5559 0.0887
42.9000 28.5693 0.0926
42.9200 28.5826 0.0840
42.9400 28.5960 0.0890
42.9600 28.6093 0.0916
42.9800 28.6227 0.0799
43.0000 28.6360 0.0871
43.0200 28.6493 0.0899
43.0400 28.6626 0.0800
43.0600 28.6760 0.0881
43.0800 28.6894 0.0888
43.1000 28.7027 0.0778
43.1200 28.7160 0.0857
43.1400 28.7293 0.0899
43.1600 28.7427 0.0846
43.1800 28.7560 0.0794
43.2000 28.7693 0.0869
43.2200 28.7826 0.0852
43.2400 28.7959 0.0805
43.2600 28.8093 0.0830
43.2800 28.8226 0.0885
43.3000 28.8359 0.0824
43.3200 28.8493 0.0829
43.3400 28.8627 0.0865
43.3600 28.8761 0.0778
43.3800 28.8894 0.0844
43.4000 28.9027 0.0888
43.4200 28.9161 0.0713
43.4400 28.9294 0.0872
43.4600 28.9427 0.0880
43.4800 28.9559 0.0748
43.5000 28.9692 0.0834
43.5200 28.9826 0.0860
43.5400 28.9959 0.0785
43.5600 29.0092 0.0853
43.5800 29.0226 0.0845
43.6000 29.0360 0.0734
43.6200 29.0493 0.0901
43.6400 29.0627 0.0811
43.6600 29.0760 0.0702
43.6800 29.0894 0.0940
43.7000 29.1027 0.0832
43.7200 29.1161 0.0683
43.7400 29.1294 0.0874
43.7600 29.1427 0.0827
43.7800 29.1560 0.0691
43.8000 29.1694 0.0874
43.8200 29.1827 0.0811
43.8400 29.1960 0.0686
43.8600 29.2093 0.0900
43.8800 29.2226 0.0782
43.9000 29.2360 0.0672
43.9200 29.2493 0.0886
43.9400 29.2626 0.0797
43.9600 29.2759 0.0685
43.9800 29.2893 0.0845
44.0000 29.3026 0.0726
44.0200 29.3160 0.0679
44.0400 29.3293 0.0855
44.0600 29.3427 0.0699
44.0800 29.3560 0.0680
44.1000 29.3693 0.0841
44.1200 29.3827 0.0702
44.1400 29.3960 0.0685
44.1600 29.4094 0.0805
44.1800 29.4227 0.0710
44.2000 29.4360 0.0649
44.2200 29.4493 0.0828
44.2400 29.4626 0.0692
44.2600 29.4760 0.0596
44.2800 29.4893 0.0808
44.3000 29.5026 0.0689
44.3200 29.5159 0.0638
44.3400 29.5293 0.0768
44.3600 29.5426 0.0675
44.3800 29.5559 0.0682
44.4000 29.5693 0.0683
44.4200 29.5827 0.0680
44.4400 29.5960 0.0655
44.4600 29.6094 0.0627
44.4800 29.6227 0.0699
44.5000 29.6360 0.0641
44.5200 29.6494 0.0642
44.5400 29.6627 0.0691
44.5600 29.6760 0.0615
44.5800 29.6893 0.0582
44.6000 29.7026 0.0680
44.6200 29.7160 0.0569
44.6400 29.7293 0.0581
44.6600 29.7426 0.0703
44.6800 29.7559 0.0541
44.7000 29.7693 0.0562
44.7200 29.7826 0.0632
44.7400 29.7959 0.0513
44.7600 29.8093 0.0539
44.7800 29.8227 0.0611
44.8000 29.8360 0.0504
44.8200 29.8493 0.0483
44.8400 29.8627 0.0629
44.8600 29.8760 0.0444
44.8800 29.8894 0.0547
44.9000 29.9027 0.0575
44.9200 29.9160 0.0439
44.9400 29.9293 0.0545
44.9600 29.9426 0.0464
44.9800 29.9560 0.0458
45.0000 29.9693 0.0509
45.0200 29.9826 0.0466
45.0400 29.9959 0.0478
45.0600 30.0093 0.0429
45.0800 30.0226 0.0485
45.1000 30.0360 0.0428
45.1200 30.0493 0.0485
45.1400 30.0627 0.0441
45.1600 30.0761 0.0398
45.1800 30.0894 0.0416
45.2000 30.1027 0.0465
45.2200 30.1160 0.0426
45.2400 30.1294 0.0352
45.2600 30.1427 0.0492
45.2800 30.1560 0.0424
45.3000 30.1693 0.0349
45.3200 30.1826 0.0465
45.3400 30.1960 0.0367
45.3600 30.2093 0.0337
45.3800 30.2226 0.0467
45.4000 30.2359 0.0387
45.4200 30.2493 0.0368
45.4400 30.2626 0.0427
45.4600 30.2759 0.0406
45.4800 30.2893 0.0345
45.5000 30.3027 0.0433
45.5200 30.3160 0.0385
45.5400 30.3294 0.0315
45.5600 30.3427 0.0406
45.5800 30.3560 0.0392
45.6000 30.3694 0.0339
45.6200 30.3827 0.0428
45.6400 30.3960 0.0352
45.6600 30.4093 0.0359
45.6800 30.4226 0.0419
45.7000 30.4359 0.0312
45.7200 30.4493 0.0350
45.7400 30.4626 0.0404
45.7600 30.4760 0.0322
45.7800 30.4893 0.0344
45.8000 30.5027 0.0378
45.8200 30.5160 0.0315
45.8400 30.5293 0.0344
45.8600 30.5427 0.0390
45.8800 30.5560 0.0289
45.9000 30.5693 0.0376
45.9200 30.5826 0.0318
45.9400 30.5959 0.0286
45.9600 30.6093 0.0360
45.9800 30.6227 0.0320
46.0000 30.6360 0.0306
46.0200 30.6493 0.0355
46.0400 30.6627 0.0295
46.0600 30.6761 0.0245
46.0800 30.6894 0.0311
46.1000 30.7026 0.0349
46.1200 30.7160 0.0311
46.1400 30.7293 0.0289
46.1600 30.7426 0.0292
46.1800 30.7559 0.0280
46.2000 30.7693 0.0268
46.2200 30.7826 0.0316
46.2400 30.7960 0.0299
46.2600 30.8093 0.0261
46.2800 30.8227 0.0277
46.3000 30.8360 0.0264
46.3200 30.8494 0.0255
46.3400 30.8627 0.0258
46.3600 30.8760 0.0253
46.3800 30.8893 0.0240
46.4000 30.9027 0.0290
46.4200 30.9160 0.0226
46.4400 30.9293 0.0244
46.4600 30.9426 0.0239
46.4800 30.9559 0.0203
46.5000 30.9693 0.0245
46.5200 30.9826 0.0243
46.5400 30.9959 0.0228
46.5600 31.0093 0.0263
46.5800 31.0227 0.0188
46.6000 31.0360 0.0229
46.6200 31.0494 0.0255
46.6400 31.0627 0.0182
46.6600 31.0760 0.0210
46.6800 31.0894 0.0247
46.7000 31.1027 0.0194
46.7200 31.1160 0.0283
46.7400 31.1293 0.0213
46.7600 31.1426 0.0149
46.7800 31.1560 0.0228
46.8000 31.1693 0.0216
46.8200 31.1826 0.0169
46.8400 31.1959 0.0284
46.8600 31.2093 0.0210
46.8800 31.2227 0.0126
46.9000 31.2360 0.0297
46.9200 31.2493 0.0213
46.9400 31.2626 0.0134
46.9600 31.2760 0.0260
46.9800 31.2893 0.0196
47.0000 31.3027 0.0176
47.0200 31.3160 0.0263
47.0400 31.3294 0.0226
47.0600 31.3427 0.0178
47.0800 31.3560 0.0271
47.1000 31.3693 0.0199
47.1200 31.3826 0.0160
47.1400 31.3960 0.0247
47.1600 31.4093 0.0165
47.1800 31.4226 0.0221
47.2000 31.4359 0.0261
47.2200 31.4492 0.0184
47.2400 31.4626 0.0229
47.2600 31.4759 0.0255
47.2800 31.4893 0.0144
47.3000 31.5027 0.0203
47.3200 31.5160 0.0200
47.3400 31.5294 0.0130
47.3600 31.5427 0.0190
47.3800 31.5560 0.0180
47.4000 31.5693 0.0161
47.4200 31.5827 0.0208
47.4400 31.5960 0.0106
47.4600 31.6093 0.0187
47.4800 31.6226 0.0220
47.5000 31.6360 0.0113
47.5200 31.6493 0.0139
47.5400 31.6626 0.0196
47.5600 31.6759 0.0118
47.5800 31.6893 0.0149
47.6000 31.7026 0.0129
47.6200 31.7160 0.0153
47.6400 31.7293 0.0122
47.6600 31.7427 0.0101
47.6800 31.7560 0.0142
47.7000 31.7694 0.0095
47.7200 31.7827 0.0117
47.7400 31.7960 0.0139
47.7600 31.8094 0.0136
47.7800 31.8227 0.0092
47.8000 31.8360 0.0142
47.8200 31.8493 0.0123
47.8400 31.8626 0.0078
47.8600 31.8760 0.0114
47.8800 31.8893 0.0110
47.9000 31.9026 0.0108
47.9200 31.9159 0.0156
47.9400 31.9293 0.0092
47.9600 31.9426 0.0087
47.9800 31.9559 0.0140
48.0000 31.9693 0.0058
48.0200 31.9826 0.0068
48.0400 31.9960 0.0103
48.0600 32.0093 0.0056
48.0800 32.0226 0.0027
48.1000 32.0360 0.0080
48.1200 32.0493 0.0079
48.1400 32.0627 -0.0016
48.1600 32.0760 0.0083
48.1800 32.0894 0.0084
48.2000 32.1027 -0.0009
48.2200 32.1160 0.0051
48.2400 32.1294 0.0027
48.2600 32.1426 -0.0053
48.2800 32.1559 0.0076
48.3000 32.1692 0.0034
48.3200 32.1825 -0.0079
48.3400 32.1959 0.0077
48.3600 32.2092 0.0021
48.3800 32.2226 -0.0115
48.4000 32.2360 0.0049
48.4200 32.2494 0.0006
48.4400 32.2627 -0.0112
48.4600 32.2760 0.0010
48.4800 32.2894 -0.0033
48.5000 32.3027 -0.0110
48.5200 32.3161 0.0010
48.5400 32.3293 -0.0039
48.5600 32.3426 -0.0128
48.5800 32.3560 0.0024
48.6000 32.3693 -0.0074
48.6200 32.3826 -0.0107
48.6400 32.3959 -0.0018
48.6600 32.4092 -0.0006
48.6800 32.4226 -0.0155
48.7000 32.4359 -0.0052
48.7200 32.4493 -0.0002
48.7400 32.4626 -0.0171
48.7600 32.4760 -0.0095
48.7800 32.4894 -0.0037
48.8000 32.5027 -0.0105
48.8200 32.5160 -0.0078
48.8400 32.5294 -0.0083
48.8600 32.5427 -0.0131
48.8800 32.5560 -0.0116
48.9000 32.5693 -0.0021
48.9200 32.5826 -0.0136
48.9400 32.5960 -0.0110
48.9600 32.6093 -0.0104
48.9800 32.6226 -0.0199
49.0000 32.6359 -0.0079
49.0200 32.6493 -0.0022
49.0400 32.6626 -0.0197
49.0600 32.6760 -0.0109
49.0800 32.6893 -0.0060
49.1000 32.7026 -0.0194
49.1200 32.7160 -0.0113
49.1400 32.7294 -0.0040
49.1600 32.7427 -0.0189
49.1800 32.7560 -0.0081
49.2000 32.7693 -0.0078
49.2200 32.7827 -0.0209
49.2400 32.7960 -0.0050
49.2600 32.8093 -0.0097
49.2800 32.8227 -0.0197
49.3000 32.8360 -0.0073
49.3200 32.8493 -0.0137
49.3400 32.8626 -0.0213
49.3600 32.8759 -0.0036
49.3800 32.8892 -0.0135
49.4000 32.9026 -0.0216
49.4200 32.9160 -0.0067
49.4400 32.9293 -0.0149
49.4600 32.9427 -0.0259
49.4800 32.9560 -0.0068
49.5000 32.9694 -0.0231
49.5200 32.9827 -0.0252
49.5400 32.9960 -0.0063
49.5600 33.0093 -0.0211
49.5800 33.0227 -0.0232
49.6000 33.0360 -0.0070
49.6200 33.0493 -0.0229
49.6400 33.0626 -0.0221
49.6600 33.0760 -0.0147
49.6800 33.0893 -0.0260
49.7000 33.1026 -0.0219
49.7200 33.1159 -0.0161
49.7400 33.1293 -0.0243
49.7600 33.1426 -0.0208
49.7800 33.1559 -0.0184
49.8000 33.1693 -0.0246
49.8200 33.1826 -0.0220
49.8400 33.1960 -0.0214
49.8600 33.2094 -0.0259
49.8800 33.2227 -0.0203
49.9000 33.2360 -0.0250
49.9200 33.2494 -0.0249
49.9400 33.2627 -0.0200
49.9600 33.2761 -0.0281
49.9800 33.2894 -0.0250
50.0000 33.3027 -0.0213
50.0200 33.3160 -0.0312
50.0400 33.3293 -0.0289
50.0600 33.3426 -0.0258
50.0800 33.3559 -0.0294
50.1000 33.3693 -0.0280
50.1200 33.3826 -0.0278
50.1400 33.3960 -0.0356
50.1600 33.4093 -0.0308
50.1800 33.4226 -0.0304
50.2000 33.4360 -0.0343
50.2200 33.4493 -0.0286
50.2400 33.4627 -0.0387
50.2600 33.4760 -0.0347
50.2800 33.4893 -0.0335
50.3000 33.5027 -0.0391
50.3200 33.5160 -0.0387
50.3400 33.5293 -0.0380
50.3600 33.5426 -0.0438
50.3800 33.5560 -0.0360
50.4000 33.5694 -0.0411
50.4200 33.5827 -0.0375
50.4400 33.5959 -0.0369
50.4600 33.6093 -0.0453
50.4800 33.6226 -0.0368
50.5000 33.6359 -0.0434
50.5200 33.6492 -0.0467
50.5400 33.6626 -0.0319
50.5600 33.6760 -0.0473
50.5800 33.6894 -0.0465
50.6000 33.7028 -0.0354
50.6200 33.7161 -0.0472
50.6400 33.7294 -0.0456
50.6600 33.7427 -0.0346
50.6800 33.7560 -0.0521
50.7000 33.7693 -0.0457
50.7200 33.7826 -0.0351
50.7400 33.7959 -0.0498
50.7600 33.8092 -0.0446
50.7800 33.8226 -0.0370
50.8000 33.8359 -0.0499
50.8200 33.8493 -0.0497
50.8400 33.8627 -0.0368
50.8600 33.8760 -0.0486
50.8800 33.8893 -0.0470
50.9000 33.9027 -0.0340
50.9200 33.9160 -0.0522
50.9400 33.9294 -0.0437
50.9600 33.9427 -0.0384
50.9800 33.9560 -0.0569
51.0000 33.9693 -0.0403
51.0200 33.9826 -0.0324
51.0400 33.9960 -0.0553
51.0600 34.0093 -0.0462
51.0800 34.0226 -0.0348
51.1000 34.0360 -0.0557
51.1200 34.0493 -0.0399
51.1400 34.0626 -0.0391
51.1600 34.0759 -0.0528
51.1800 34.0892 -0.0417
51.2000 34.1026 -0.0401
51.2200 34.1160 -0.0515
51.2400 34.1293 -0.0377
51.2600 34.1426 -0.0413
51.2800 34.1560 -0.0523
51.3000 34.1694 -0.0376
51.3200 34.1827 -0.0390
51.3400 34.1960 -0.0498
51.3600 34.2093 -0.0370
51.3800 34.2227 -0.0421
51.4000 34.2361 -0.0517
51.4200 34.2494 -0.0417
51.4400 34.2627 -0.0435
51.4600 34.2760 -0.0530
51.4800 34.2894 -0.0375
51.5000 34.3027 -0.0485
51.5200 34.3160 -0.0530
51.5400 34.3293 -0.0408
51.5600 34.3426 -0.0467
51.5800 34.3560 -0.0543
51.6000 34.3693 -0.0433
51.6200 34.3826 -0.0485
51.6400 34.3960 -0.0549
51.6600 34.4094 -0.0500
51.6800 34.4227 -0.0546
51.7000 34.4360 -0.0541
51.7200 34.4494 -0.0548
51.7400 34.4627 -0.0575
51.7600 34.4760 -0.0557
51.7800 34.4893 -0.0575
51.8000 34.5026 -0.0548
51.8200 34.5160 -0.0547
51.8400 34.5293 -0.0556
51.8600 34.5426 -0.0529
51.8800 34.5560 -0.0607
51.9000 34.5693 -0.0561
51.9200 34.5826 -0.0536
51.9400 34.5960 -0.0566
51.9600 34.6093 -0.0568
51.9800 34.6226 -0.0587
52.0000 34.6359 -0.0618
52.0200 34.6493 -0.0593
52.0400 34.6626 -0.0564
52.0600 34.6760 -0.0617
52.0800 34.6893 -0.0578
52.1000 34.7027 -0.0569
52.1200 34.7161 -0.0680
52.1400 34.7294 -0.0544
52.1600 34.7427 -0.0586
52.1800 34.7560 -0.0675
52.2000 34.7693 -0.0561
52.2200 34.7826 -0.0598
52.2400 34.7959 -0.0622
52.2600 34.8092 -0.0580
52.2800 34.8226 -0.0595
52.3000 34.8359 -0.0645
52.3200 34.8493 -0.0634
52.3400 34.8626 -0.0602
52.3600 34.8760 -0.0621
52.3800 34.8894 -0.0647
52.4000 34.9027 -0.0599
52.4200 34.9160 -0.0622
52.4400 34.9293 -0.0644
52.4600 34.9427 -0.0552
52.4800 34.9560 -0.0638
52.5000 34.9694 -0.0661
52.5200 34.9826 -0.0514
52.5400 34.9960 -0.0673
52.5600 35.0093 -0.0689
52.5800 35.0226 -0.0528
52.6000 35.0359 -0.0654
52.6200 35.0492 -0.0658
52.6400 35.0626 -0.0535
52.6600 35.0759 -0.0698
52.6800 35.0893 -0.0633
52.7000 35.1026 -0.0512
52.7200 35.1160 -0.0725
52.7400 35.1294 -0.0643
52.7600 35.1427 -0.0561
52.7800 35.1560 -0.0780
52.8000 35.1693 -0.0566
52.8200 35.1827 -0.0598
52.8400 35.1960 -0.0792
52.8600 35.2093 -0.0629
52.8800 35.2226 -0.0589
52.9000 35.2359 -0.0808
52.9200 35.2493 -0.0566
52.9400 35.2626 -0.0645
52.9600 35.2759 -0.0796
52.9800 35.2893 -0.0641
53.0000 35.3027 -0.1013
53.0200 35.3160 -0.0503
53.0400 35.3294 0.0640
53.0600 35.3427 0.0539
53.0800 35.3560 0.0372
53.1000 35.3694 0.0495
53.1200 35.3827 0.0248
53.1400 35.3960 0.0335
53.1600 35.4093 0.0493
53.1800 35.4226 0.0274
53.2000 35.4360 0.0292
53.2200 35.4493 0.0506
53.2400 35.4627 0.0291
53.2600 35.4760 0.0374
53.2800 35.4894 0.0441
53.3000 35.5027 0.0266
53.3200 35.5160 0.0351
53.3400 35.5293 0.0448
53.3600 35.5426 0.0308
53.3800 35.5559 0.0381
53.4000 35.5693 0.0416
53.4200 35.5826 0.0292
53.4400 35.5959 0.0421
53.4600 35.6093 0.0421
53.4800 35.6227 0.0345
53.5000 35.6360 0.0416
53.5200 35.6493 0.0405
53.5400 35.6627 0.0370
53.5600 35.6760 0.0419
53.5800 35.6894 0.0425
53.6000 35.7027 0.0343
53.6200 35.7160 0.0374
53.6400 35.7293 0.0380
53.6600 35.7427 0.0386
53.6800 35.7560 0.0367
53.7000 35.7693 0.0355
53.7200 35.7826 0.0396
53.7400 35.7959 0.0372
53.7600 35.8093 0.0388
53.7800 35.8226 0.0368
53.8000 35.8360 0.0351
53.8200 35.8493 0.0392
53.8400 35.8627 0.0312
53.8600 35.8760 0.0377
53.8800 35.8894 0.0370
53.9000 35.9027 0.0320
53.9200 35.9160 0.0391
53.9400 35.9294 0.0321
53.9600 35.9427 0.0328
53.9800 35.9560 0.0401
54.0000 35.9693 0.0354
54.0200 35.9826 0.0301
54.0400 35.9959 0.0406
54.0600 36.0092 0.0349
54.0800 36.0226 0.0299
54.1000 36.0360 0.0424
54.1200 36.0493 0.0315
54.1400 36.0626 0.0251
54.1600 36.0760 0.0445
54.1800 36.0893 0.0279
54.2000 36.1027 0.0224
54.2200 36.1160 0.0453
54.2400 36.1293 0.0318
54.2600 36.1427 0.0246
54.2800 36.1561 0.0418
54.3000 36.1694 0.0302
54.3200 36.1827 0.0226
54.3400 36.1960 0.0431
54.3600 36.2093 0.0295
54.3800 36.2227 0.0213
54.4000 36.2360 0.0417
54.4200 36.2492 0.0328
54.4400 36.2626 0.0219
54.4600 36.2759 0.0371
54.4800 36.2893 0.0320
54.5000 36.3026 0.0215
54.5200 36.3160 0.0340
54.5400 36.3294 0.0353
54.5600 36.3427 0.0240
54.5800 36.3560 0.0338
54.6000 36.3694 0.0298
54.6200 36.3827 0.0182
54.6400 36.3960 0.0433
54.6600 36.4093 0.0345
54.6800 36.4226 0.0081
54.7000 36.4360 0.0408
54.7200 36.4493 0.0371
54.7400 36.4626 0.0107
54.7600 36.4760 0.0418
54.7800 36.4893 0.0284
54.8000 36.5026 0.0110
54.8200 36.5160 0.0441
54.8400 36.5293 0.0207
54.8600 36.5426 0.0129
54.8800 36.5560 0.0490
54.9000 36.5693 0.0197
54.9200 36.5827 0.0070
54.9400 36.5960 0.0474
54.9600 36.6093 0.0215
54.9800 36.6227 0.0165
55.0000 36.6360 0.0436
55.0200 36.6494 0.0157
55.0400 36.6627 0.0213
55.0600 36.6759 0.0441
55.0800 36.6893 0.0141
55.1000 36.7026 0.0268
55.1200 36.7159 0.0398
55.1400 36.7292 0.0171
55.1600 36.7426 0.0291
55.1800 36.7559 0.0330
55.2000 36.7693 0.0197
55.2200 36.7826 0.0326
55.2400 36.7960 0.0295
55.2600 36.8093 0.0205
55.2800 36.8226 0.0310
55.3000 36.8360 0.0287
55.3200 36.8493 0.0204
55.3400 36.8626 0.0309
55.3600 36.8760 0.0249
55.3800 36.8894 0.0168
55.4000 36.9027 0.0317
55.4200 36.9160 0.0228
55.4400 36.9294 0.0239
55.4600 36.9427 0.0235
55.4800 36.9560 0.0193
55.5000 36.9693 0.0232
55.5200 36.9826 0.0247
55.5400 36.9959 0.0237
55.5600 37.0092 0.0221
55.5800 37.0225 0.0187
55.6000 37.0359 0.0219
55.6200 37.0493 0.0241
55.6400 37.0627 0.0192
55.6600 37.0761 0.0196
55.6800 37.0894 0.0234
55.7000 37.1027 0.0176
55.7200 37.1161 0.0210
55.7400 37.1294 0.0261
55.7600 37.1427 0.0185
55.7800 37.1560 0.0250
55.8000 37.1693 0.0262
55.8200 37.1826 0.0128
55.8400 37.1960 0.0242
55.8600 37.2093 0.0260
55.8800 37.2226 0.0186
55.9000 37.2359 0.0180
55.9200 37.2493 0.0226
55.9400 37.2626 0.0190
55.9600 37.2760 0.0236
55.9800 37.2893 0.0198
56.0000 37.3027 0.0147
56.0200 37.3160 0.0259
56.0400 37.3293 0.0177
56.0600 37.3427 0.0170
56.0800 37.3561 0.0269
56.1000 37.3694 0.0158
56.1200 37.3827 0.0162
56.1400 37.3960 0.0295
56.1600 37.4093 0.0204
56.1800 37.4226 0.0126
56.2000 37.4360 0.0288
56.2200 37.4493 0.0177
56.2400 37.4626 0.0100
56.2600 37.4760 0.0246
56.2800 37.4893 0.0194
56.3000 37.5026 0.0174
56.3200 37.5160 0.0202
56.3400 37.5293 0.0196
56.3600 37.5427 0.0134
56.3800 37.5560 0.0203
56.4000 37.5693 0.0218
56.4200 37.5827 0.0112
56.4400 37.5960 0.0209
56.4600 37.6094 0.0158
56.4800 37.6227 0.0087
56.5000 37.6360 0.0216
56.5200 37.6493 0.0177
56.5400 37.6627 0.0131
56.5600 37.6760 0.0189
56.5800 37.6893 0.0194
56.6000 37.7026 0.0120
56.6200 37.7159 0.0201
56.6400 37.7293 0.0137
56.6600 37.7426 0.0111
56.6800 37.7560 0.0205
56.7000 37.7693 0.0097
56.7200 37.7827 0.0122
56.7400 37.7960 0.0198
56.7600 37.8094 0.0122
56.7800 37.8227 0.0149
56.8000 37.8360 0.0120
56.8200 37.8494 0.0124
56.8400 37.8627 0.0101
56.8600 37.8760 0.0179
56.8800 37.8893 0.0128
56.9000 37.9026 0.0111
56.9200 37.9160 0.0141
56.9400 37.9293 0.0114
56.9600 37.9426 0.0145
56.9800 37.9559 0.0094
57.0000 37.9693 0.0141
57.0200 37.9826 0.0147
57.0400 37.9959 0.0083
57.0600 38.0093 0.0104
57.0800 38.0227 0.0136
57.1000 38.0360 0.0063
57.1200 38.0494 0.0127
57.1400 38.0627 0.0136
57.1600 38.0760 0.0014
57.1800 38.0894 0.0139
57.2000 38.1027 0.0160
57.2200 38.1160 0.0019
57.2400 38.1293 0.0176
57.2600 38.1426 0.0091
57.2800 38.1560 0.0024
57.3000 38.1693 0.0196
57.3200 38.1826 0.0092
57.3400 38.1959 0.0031
57.3600 38.2093 0.0125
57.3800 38.2226 0.0090
57.4000 38.2359 0.0092
57.4200 38.2493 0.0146
57.4400 38.2627 0.0048
57.4600 38.2760 0.0105
57.4800 38.2893 0.0107
57.5000 38.3027 0.0058
57.5200 38.3160 0.0118
57.5400 38.3294 0.0053
57.5600 38.3427 0.0094
57.5800 38.3560 0.0081
57.6000 38.3693 0.0059
57.6200 38.3827 0.0086
57.6400 38.3960 0.0062
57.6600 38.4093 0.0065
57.6800 38.4226 0.0070
57.7000 38.4359 0.0109
57.7200 38.4492 0.0019
57.7400 38.4626 0.0122
57.7600 38.4759 0.0042
57.7800 38.4893 -0.0006
57.8000 38.5027 0.0126
57.8200 38.5161 0.0014
57.8400 38.5294 -0.0006
57.8600 38.5427 0.0115
57.8800 38.5561 -0.0007
57.9000 38.5694 -0.0011
57.9200 38.5827 0.0111
57.9400 38.5959 0.0010
57.9600 38.6092 0.0003
57.9800 38.6226 0.0131
58.0000 38.6359 -0.0063
58.0200 38.6493 -0.0004
58.0400 38.6626 0.0119
58.0600 38.6760 -0.0093
58.0800 38.6893 0.0070
58.1000 38.7027 0.0034
58.1200 38.7160 -0.0055
58.1400 38.7294 0.0093
58.1600 38.7427 0.0044
58.1800 38.7561 -0.0081
58.2000 38.7694 0.0023
58.2200 38.7827 0.0060
58.2400 38.7960 -0.0081
58.2600 38.8093 0.0017
58.2800 38.8227 0.0028
58.3000 38.8360 -0.0072
58.3200 38.8493 0.0035
58.3400 38.8627 0.0000
58.3600 38.8760 -0.0072
58.3800 38.8893 -0.0006
58.4000 38.9026 -0.0001
58.4200 38.9159 -0.0093
58.4400 38.9293 -0.0028
58.4600 38.9427 0.0004
58.4800 38.9560 -0.0097
58.5000 38.9693 0.0024
58.5200 38.9827 -0.0002
58.5400 38.9961 -0.0098
58.5600 39.0094 -0.0028
58.5800 39.0227 0.0036
58.6000 39.0360 -0.0112
58.6200 39.0494 -0.0102
58.6400 39.0627 -0.0007
58.6600 39.0760 -0.0093
58.6800 39.0893 -0.0052
58.7000 39.1026 -0.0018
58.7200 39.1160 -0.0128
58.7400 39.1293 -0.0070
58.7600 39.1426 -0.0023
58.7800 39.1559 -0.0130
58.8000 39.1693 -0.0036
58.8200 39.1826 -0.0060
58.8400 39.1959 -0.0154
58.8600 39.2093 -0.0064
58.8800 39.2227 -0.0050
58.9000 39.2360 -0.0130
58.9200 39.2494 -0.0043
58.9400 39.2627 -0.0068
58.9600 39.2760 -0.0143
58.9800 39.2894 -0.0041
59.0000 39.3027 -0.0072
59.0200 39.3160 -0.0172
59.0400 39.3293 -0.0073
59.0600 39.3426 -0.0105
59.0800 39.3560 -0.0177
59.1000 39.3693 -0.0098
59.1200 39.3826 -0.0041
59.1400 39.3959 -0.0169
59.1600 39.4093 -0.0104
59.1800 39.4226 -0.0057
59.2000 39.4360 -0.0235
59.2200 39.4493 -0.0064
59.2400 39.4626 -0.0071
59.2600 39.4760 -0.0250
59.2800 39.4893 -0.0053
59.3000 39.5027 -0.0099
59.3200 39.5160 -0.0228
59.3400 39.5294 -0.0083
59.3600 39.5427 -0.0166
59.3800 39.5560 -0.0218
59.4000 39.5693 -0.0106
59.4200 39.5826 -0.0136
59.4400 39.5960 -0.0211
59.4600 39.6093 -0.0053
59.4800 39.6226 -0.0150
59.5000 39.6359 -0.0220
59.5200 39.6493 -0.0097
59.5400 39.6626 -0.0173
59.5600 39.6759 -0.0200
59.5800 39.6893 -0.0136
59.6000 39.7027 -0.0126
59.6200 39.7161 -0.0229
59.6400 39.7294 -0.0159
59.6600 39.7427 -0.0131
59.6800 39.7560 -0.0283
59.7000 39.7694 -0.0133
59.7200 39.7827 -0.0161
59.7400 39.7960 -0.0278
59.7600 39.8093 -0.0148
59.7800 39.8226 -0.0161
59.8000 39.8360 -0.0281
59.8200 39.8493 -0.0134
59.8400 39.8626 -0.0174
59.8600 39.8759 -0.0296
59.8800 39.8893 -0.0126
59.9000 39.9026 -0.0177
59.9200 39.9159 -0.0250
59.9400 39.9293 -0.0161
59.9600 39.9427 -0.0217
59.9800 39.9561 -0.0274
60.0000 39.9694 -0.0178
60.0200 39.9827 -0.0232
60.0400 39.9960 -0.0317
60.0470 40.0005 -0.0422
