Raw Data
Time Displacement Force
(s) (mm) (N)
0.0000 0.0000 0.2865
0.0200 0.0001 0.2883
0.0400 0.0021 0.3729
0.0600 0.0099 0.3863
0.0800 0.0219 0.2887
0.1000 0.0344 0.2956
0.1200 0.0470 0.3137
0.1400 0.0604 0.2862
0.1600 0.0744 0.2897
0.1800 0.0885 0.2895
0.2000 0.1025 0.2690
0.2200 0.1161 0.2982
0.2400 0.1294 0.2960
0.2600 0.1427 0.2787
0.2800 0.1560 0.3017
0.3000 0.1694 0.2920
0.3200 0.1828 0.2782
0.3400 0.1961 0.2969
0.3600 0.2095 0.2755
0.3800 0.2228 0.2840
0.4000 0.2362 0.2905
0.4200 0.2495 0.2677
0.4400 0.2628 0.2900
0.4600 0.2761 0.2966
0.4800 0.2895 0.2692
0.5000 0.3028 0.2814
0.5200 0.3161 0.2903
0.5400 0.3294 0.2758
0.5600 0.3428 0.2819
0.5800 0.3561 0.2856
0.6000 0.3695 0.2736
0.6200 0.3828 0.2884
0.6400 0.3962 0.2849
0.6600 0.4095 0.2698
0.6800 0.4229 0.2884
0.7000 0.4362 0.2808
0.7200 0.4495 0.2698
0.7400 0.4629 0.2817
0.7600 0.4762 0.2875
0.7800 0.4895 0.2642
0.8000 0.5028 0.2750
0.8200 0.5161 0.2886
0.8400 0.5295 0.2604
0.8600 0.5428 0.2744
0.8800 0.5561 0.2741
0.9000 0.5694 0.2609
0.9200 0.5827 0.2790
0.9400 0.5961 0.2744
0.9600 0.6094 0.2573
0.9800 0.6228 0.2727
1.0000 0.6361 0.2742
1.0200 0.6495 0.2542
1.0400 0.6629 0.2763
1.0600 0.6762 0.2687
1.0800 0.6895 0.2592
1.1000 0.7028 0.2746
1.1200 0.7162 0.2635
1.1400 0.7295 0.2593
1.1600 0.7428 0.2691
1.1800 0.7561 0.2637
1.2000 0.7695 0.2617
1.2200 0.7828 0.2647
1.2400 0.7961 0.2632
1.2600 0.8094 0.2607
1.2800 0.8228 0.2684
1.3000 0.8361 0.2658
1.3200 0.8495 0.2592
1.3400 0.8628 0.2581
1.3600 0.8761 0.2662
1.3800 0.8895 0.2636
1.4000 0.9028 0.2544
1.4200 0.9162 0.2621
1.4400 0.9295 0.2612
1.4600 0.9428 0.2627
1.4800 0.9562 0.2675
1.5000 0.9695 0.2623
1.5200 0.9829 0.2581
1.5400 0.9961 0.2631
1.5600 1.0095 0.2604
1.5800 1.0228 0.2554
1.6000 1.0361 0.2619
1.6200 1.0494 0.2583
1.6400 1.0627 0.2516
1.6600 1.0761 0.2631
1.6800 1.0894 0.2568
1.7000 1.1028 0.2546
1.7200 1.1161 0.2617
1.7400 1.1295 0.2535
1.7600 1.1429 0.2530
1.7800 1.1562 0.2614
1.8000 1.1695 0.2520
1.8200 1.1828 0.2535
1.8400 1.1962 0.2638
1.8600 1.2096 0.2475
1.8800 1.2229 0.2549
1.9000 1.2361 0.2606
1.9200 1.2495 0.2434
1.9400 1.2628 0.2546
1.9600 1.2761 0.2592
1.9800 1.2894 0.2370
2.0000 1.3027 0.2524
2.0200 1.3161 0.2560
2.0400 1.3294 0.2386
2.0600 1.3428 0.2527
2.0800 1.3561 0.2498
2.1000 1.3695 0.2380
2.1200 1.3829 0.2524
2.1400 1.3962 0.2466
2.1600 1.4095 0.2358
2.1800 1.4228 0.2503
2.2000 1.4362 0.2465
2.2200 1.4495 0.2349
2.2400 1.4628 0.2489
2.2600 1.4761 0.2478
2.2800 1.4894 0.2392
2.3000 1.5028 0.2481
2.3200 1.5161 0.2440
2.3400 1.5294 0.2350
2.3600 1.5428 0.2465
2.3800 1.5562 0.2471
2.4000 1.5695 0.2376
2.4200 1.5828 0.2453
2.4400 1.5962 0.2408
2.4600 1.6095 0.2340
2.4800 1.6228 0.2435
2.5000 1.6361 0.2396
2.5200 1.6494 0.2346
2.5400 1.6627 0.2466
2.5600 1.6761 0.2415
2.5800 1.6895 0.2326
2.6000 1.7028 0.2434
2.6200 1.7162 0.2382
2.6400 1.7295 0.2382
2.6600 1.7429 0.2391
2.6800 1.7562 0.2333
2.7000 1.7695 0.2390
2.7200 1.7828 0.2339
2.7400 1.7961 0.2382
2.7600 1.8095 0.2421
2.7800 1.8228 0.2301
2.8000 1.8361 0.2387
2.8200 1.8494 0.2395
2.8400 1.8628 0.2231
2.8600 1.8762 0.2439
2.8800 1.8895 0.2388
2.9000 1.9028 0.2206
2.9200 1.9162 0.2431
2.9400 1.9295 0.2371
2.9600 1.9428 0.2236
2.9800 1.9561 0.2427
3.0000 1.9695 0.2284
3.0200 1.9829 0.2233
3.0400 1.9962 0.2380
3.0600 2.0095 0.2276
3.0800 2.0228 0.2247
3.1000 2.0361 0.2403
3.1200 2.0494 0.2218
3.1400 2.0628 0.2275
3.1600 2.0761 0.2384
3.1800 2.0895 0.2191
3.2000 2.1029 0.2287
3.2200 2.1162 0.2331
3.2400 2.1295 0.2220
3.2600 2.1429 0.2362
3.2800 2.1562 0.2296
3.3000 2.1695 0.2172
3.3200 2.1828 0.2380
3.3400 2.1961 0.2305
3.3600 2.2095 0.2140
3.3800 2.2228 0.2399
3.4000 2.2361 0.2252
3.4200 2.2494 0.2155
3.4400 2.2628 0.2353
3.4600 2.2761 0.2274
3.4800 2.2895 0.2113
3.5000 2.3028 0.2381
3.5200 2.3161 0.2211
3.5400 2.3295 0.2139
3.5600 2.3428 0.2368
3.5800 2.3562 0.2241
3.6000 2.3695 0.2165
3.6200 2.3829 0.2313
3.6400 2.3962 0.2245
3.6600 2.4096 0.2159
3.6800 2.4229 0.2293
3.7000 2.4362 0.2207
3.7200 2.4495 0.2169
3.7400 2.4628 0.2283
3.7600 2.4762 0.2236
3.7800 2.4894 0.2181
3.8000 2.5027 0.2246
3.8200 2.5161 0.2190
3.8400 2.5294 0.2172
3.8600 2.5428 0.2211
3.8800 2.5561 0.2233
3.9000 2.5695 0.2152
3.9200 2.5829 0.2199
3.9400 2.5962 0.2148
3.9600 2.6095 0.2136
3.9800 2.6228 0.2224
4.0000 2.6362 0.2196
4.0200 2.6495 0.2079
4.0400 2.6628 0.2178
4.0600 2.6761 0.2218
4.0800 2.6895 0.2102
4.1000 2.7028 0.2203
4.1200 2.7161 0.2169
4.1400 2.7295 0.2083
4.1600 2.7428 0.2194
4.1800 2.7561 0.2170
4.2000 2.7694 0.2101
4.2200 2.7828 0.2192
4.2400 2.7961 0.2177
4.2600 2.8094 0.2092
4.2800 2.8228 0.2237
4.3000 2.8362 0.2160
4.3200 2.8495 0.2091
4.3400 2.8628 0.2219
4.3600 2.8762 0.2186
4.3800 2.8895 0.2085
4.4000 2.9029 0.2177
4.4200 2.9162 0.2167
4.4400 2.9295 0.2091
4.4600 2.9428 0.2185
4.4800 2.9561 0.2163
4.5000 2.9694 0.2148
4.5200 2.9828 0.2173
4.5400 2.9961 0.2154
4.5600 3.0095 0.2145
4.5800 3.0228 0.2121
4.6000 3.0361 0.2098
4.6200 3.0495 0.2185
4.6400 3.0628 0.2115
4.6600 3.0762 0.2064
4.6800 3.0895 0.2162
4.7000 3.1028 0.2156
4.7200 3.1161 0.2011
4.7400 3.1295 0.2142
4.7600 3.1429 0.2150
4.7800 3.1562 0.2058
4.8000 3.1695 0.2155
4.8200 3.1829 0.2108
4.8400 3.1962 0.2016
4.8600 3.2095 0.2137
4.8800 3.2228 0.2069
4.9000 3.2360 0.2058
4.9200 3.2494 0.2183
4.9400 3.2627 0.2025
4.9600 3.2761 0.2004
4.9800 3.2894 0.2177
5.0000 3.3028 0.2046
5.0200 3.3162 0.1992
5.0400 3.3296 0.2152
5.0600 3.3429 0.2024
5.0800 3.3562 0.2016
5.1000 3.3696 0.2150
5.1200 3.3829 0.1982
5.1400 3.3962 0.2010
5.1600 3.4095 0.2165
5.1800 3.4228 0.1978
5.2000 3.4361 0.2003
5.2200 3.4494 0.2180
5.2400 3.4627 0.1967
5.2600 3.4761 0.1992
5.2800 3.4894 0.2156
5.3000 3.5028 0.1961
5.3200 3.5161 0.2005
5.3400 3.5295 0.2140
5.3600 3.5428 0.1928
5.3800 3.5562 0.1978
5.4000 3.5695 0.2159
5.4200 3.5829 0.1919
5.4400 3.5962 0.2037
5.4600 3.6095 0.2125
5.4800 3.6229 0.1911
5.5000 3.6362 0.1982
5.5200 3.6495 0.2117
5.5400 3.6628 0.1965
5.5600 3.6761 0.1969
5.5800 3.6895 0.2039
5.6000 3.7028 0.1949
5.6200 3.7161 0.1983
5.6400 3.7295 0.2060
5.6600 3.7428 0.1928
5.6800 3.7561 0.2003
5.7000 3.7695 0.2058
5.7200 3.7828 0.1912
5.7400 3.7962 0.1953
5.7600 3.8095 0.1997
5.7800 3.8228 0.1928
5.8000 3.8362 0.1937
5.8200 3.8495 0.2003
5.8400 3.8629 0.1902
5.8600 3.8762 0.1936
5.8800 3.8895 0.2029
5.9000 3.9028 0.1914
5.9200 3.9162 0.1919
5.9400 3.9295 0.2004
5.9600 3.9428 0.1908
5.9800 3.9561 0.1966
6.0000 3.9694 0.1982
6.0200 3.9828 0.1906
6.0400 3.9961 0.1916
6.0600 4.0095 0.1980
6.0800 4.0228 0.1949
6.1000 4.0362 0.1919
6.1200 4.0495 0.1976
6.1400 4.0629 0.1949
6.1600 4.0762 0.1913
6.1800 4.0895 0.1960
6.2000 4.1029 0.1980
6.2200 4.1162 0.1902
6.2400 4.1295 0.1913
6.2600 4.1428 0.1970
6.2800 4.1562 0.1904
6.3000 4.1695 0.1927
6.3200 4.1828 0.1955
6.3400 4.1961 0.1939
6.3600 4.2094 0.1879
6.3800 4.2228 0.1943
6.4000 4.2361 0.1916
6.4200 4.2494 0.1910
6.4400 4.2628 0.1964
6.4600 4.2762 0.1873
6.4800 4.2895 0.1847
6.5000 4.3028 0.1979
6.5200 4.3162 0.1940
6.5400 4.3295 0.1896
6.5600 4.3429 0.1948
6.5800 4.3562 0.1904
6.6000 4.3695 0.1859
6.6200 4.3828 0.1959
6.6400 4.3962 0.1901
6.6600 4.4095 0.1895
6.6800 4.4228 0.1931
6.7000 4.4361 0.1830
6.7200 4.4494 0.1924
6.7400 4.4628 0.1864
6.7600 4.4761 0.1873
6.7800 4.4894 0.1883
6.8000 4.5028 0.1872
6.8200 4.5162 0.1881
6.8400 4.5295 0.1832
6.8600 4.5428 0.1862
6.8800 4.5561 0.1897
6.9000 4.5695 0.1793
6.9200 4.5828 0.1823
6.9400 4.5962 0.1913
6.9600 4.6095 0.1808
6.9800 4.6228 0.1834
7.0000 4.6362 0.1913
7.0200 4.6495 0.1798
7.0400 4.6628 0.1829
7.0600 4.6760 0.1870
7.0800 4.6894 0.1805
7.1000 4.7027 0.1815
7.1200 4.7161 0.1836
7.1400 4.7294 0.1797
7.1600 4.7428 0.1827
7.1800 4.7562 0.1820
7.2000 4.7696 0.1779
7.2200 4.7829 0.1802
7.2400 4.7962 0.1818
7.2600 4.8096 0.1812
7.2800 4.8229 0.1821
7.3000 4.8361 0.1766
7.3200 4.8494 0.1817
7.3400 4.8627 0.1810
7.3600 4.8761 0.1807
7.3800 4.8894 0.1837
7.4000 4.9028 0.1780
7.4200 4.9161 0.1816
7.4400 4.9295 0.1775
7.4600 4.9428 0.1768
7.4800 4.9562 0.1826
7.5000 4.9695 0.1769
7.5200 4.9829 0.1760
7.5400 4.9962 0.1785
7.5600 5.0096 0.1735
7.5800 5.0229 0.1781
7.6000 5.0362 0.1842
7.6200 5.0495 0.1718
7.6400 5.0629 0.1751
7.6600 5.0762 0.1865
7.6800 5.0894 0.1674
7.7000 5.1028 0.1754
7.7200 5.1161 0.1819
7.7400 5.1295 0.1677
7.7600 5.1428 0.1741
7.7800 5.1561 0.1836
7.8000 5.1694 0.1715
7.8200 5.1828 0.1729
7.8400 5.1961 0.1791
7.8600 5.2095 0.1694
7.8800 5.2228 0.1731
7.9000 5.2362 0.1848
7.9200 5.2495 0.1646
7.9400 5.2628 0.1702
7.9600 5.2762 0.1808
7.9800 5.2895 0.1676
8.0000 5.3029 0.1729
8.0200 5.3162 0.1801
8.0400 5.3295 0.1655
8.0600 5.3428 0.1741
8.0800 5.3562 0.1813
8.1000 5.3695 0.1612
8.1200 5.3828 0.1742
8.1400 5.3961 0.1828
8.1600 5.4094 0.1614
8.1800 5.4228 0.1734
8.2000 5.4361 0.1799
8.2200 5.4494 0.1638
8.2400 5.4628 0.1774
8.2600 5.4762 0.1781
8.2800 5.4895 0.1617
8.3000 5.5029 0.1721
8.3200 5.5162 0.1796
8.3400 5.5295 0.1612
8.3600 5.5429 0.1723
8.3800 5.5562 0.1754
8.4000 5.5695 0.1615
8.4200 5.5828 0.1755
8.4400 5.5961 0.1740
8.4600 5.6095 0.1630
8.4800 5.6228 0.1732
8.5000 5.6361 0.1755
8.5200 5.6494 0.1644
8.5400 5.6628 0.1698
8.5600 5.6761 0.1747
8.5800 5.6895 0.1589
8.6000 5.7028 0.1727
8.6200 5.7162 0.1673
8.6400 5.7295 0.1638
8.6600 5.7428 0.1723
8.6800 5.7562 0.1662
8.7000 5.7695 0.1684
8.7200 5.7829 0.1688
8.7400 5.7962 0.1654
8.7600 5.8095 0.1721
8.7800 5.8228 0.1683
8.8000 5.8361 0.1634
8.8200 5.8495 0.1648
8.8400 5.8628 0.1692
8.8600 5.8761 0.1676
8.8800 5.8894 0.1637
8.9000 5.9028 0.1623
8.9200 5.9161 0.1673
8.9400 5.9295 0.1657
8.9600 5.9428 0.1617
8.9800 5.9562 0.1696
9.0000 5.9696 0.1608
9.0200 5.9829 0.1588
9.0400 5.9962 0.1707
9.0600 6.0095 0.1600
9.0800 6.0229 0.1584
9.1000 6.0362 0.1672
9.1200 6.0495 0.1587
9.1400 6.0628 0.1601
9.1600 6.0761 0.1669
9.1800 6.0895 0.1600
9.2000 6.1028 0.1581
9.2200 6.1161 0.1707
9.2400 6.1294 0.1535
9.2600 6.1428 0.1580
9.2800 6.1561 0.1668
9.3000 6.1694 0.1493
9.3200 6.1828 0.1615
9.3400 6.1962 0.1616
9.3600 6.2096 0.1508
9.3800 6.2229 0.1642
9.4000 6.2362 0.1578
9.4200 6.2495 0.1544
9.4400 6.2629 0.1620
9.4600 6.2762 0.1599
9.4800 6.2895 0.1517
9.5000 6.3028 0.1583
9.5200 6.3161 0.1630
9.5400 6.3294 0.1517
9.5600 6.3428 0.1602
9.5800 6.3561 0.1575
9.6000 6.3695 0.1536
9.6200 6.3828 0.1576
9.6400 6.3962 0.1573
9.6600 6.4095 0.1555
9.6800 6.4228 0.1564
9.7000 6.4362 0.1581
9.7200 6.4495 0.1523
9.7400 6.4628 0.1589
9.7600 6.4761 0.1589
9.7800 6.4894 0.1525
9.8000 6.5028 0.1587
9.8200 6.5162 0.1567
9.8400 6.5295 0.1526
9.8600 6.5428 0.1543
9.8800 6.5562 0.1546
9.9000 6.5696 0.1498
9.9200 6.5828 0.1540
9.9400 6.5961 0.1529
9.9600 6.6094 0.1513
9.9800 6.6228 0.1550
10.0000 6.6361 0.1531
10.0200 6.6494 0.1516
10.0400 6.6628 0.1560
10.0600 6.6761 0.1510
10.0800 6.6895 0.1494
10.1000 6.7028 0.1529
10.1200 6.7162 0.1478
10.1400 6.7295 0.1489
10.1600 6.7429 0.1533
10.1800 6.7562 0.1456
10.2000 6.7695 0.1472
10.2200 6.7828 0.1521
10.2400 6.7962 0.1473
10.2600 6.8095 0.1506
10.2800 6.8228 0.1495
10.3000 6.8361 0.1461
10.3200 6.8494 0.1531
10.3400 6.8628 0.1473
10.3600 6.8761 0.1474
10.3800 6.8895 0.1532
10.4000 6.9028 0.1453
10.4200 6.9162 0.1488
10.4400 6.9295 0.1505
10.4600 6.9429 0.1401
10.4800 6.9562 0.1442
10.5000 6.9695 0.1530
10.5200 6.9829 0.1402
10.5400 6.9962 0.1483
10.5600 7.0095 0.1536
10.5800 7.0228 0.1416
10.6000 7.0361 0.1486
10.6200 7.0495 0.1518
10.6400 7.0628 0.1377
10.6600 7.0761 0.1482
10.6800 7.0894 0.1491
10.7000 7.1028 0.1373
10.7200 7.1161 0.1482
10.7400 7.1295 0.1488
10.7600 7.1428 0.1386
10.7800 7.1561 0.1518
10.8000 7.1695 0.1435
10.8200 7.1829 0.1393
10.8400 7.1962 0.1526
10.8600 7.2095 0.1452
10.8800 7.2229 0.1432
10.9000 7.2362 0.1453
10.9200 7.2495 0.1432
10.9400 7.2628 0.1394
10.9600 7.2761 0.1452
10.9800 7.2895 0.1438
11.0000 7.3028 0.1380
11.0200 7.3161 0.1415
11.0400 7.3294 0.1449
11.0600 7.3427 0.1419
11.0800 7.3561 0.1411
11.1000 7.3695 0.1449
11.1200 7.3828 0.1420
11.1400 7.3962 0.1392
11.1600 7.4096 0.1451
11.1800 7.4229 0.1384
11.2000 7.4362 0.1376
11.2200 7.4495 0.1454
11.2400 7.4629 0.1390
11.2600 7.4762 0.1338
11.2800 7.4895 0.1431
11.3000 7.5028 0.1358
11.3200 7.5161 0.1306
11.3400 7.5295 0.1423
11.3600 7.5428 0.1369
11.3800 7.5562 0.1340
11.4000 7.5695 0.1418
11.4200 7.5828 0.1348
11.4400 7.5961 0.1327
11.4600 7.6094 0.1416
11.4800 7.6228 0.1341
11.5000 7.6361 0.1282
11.5200 7.6495 0.1412
11.5400 7.6629 0.1360
11.5600 7.6762 0.1288
11.5800 7.6895 0.1387
11.6000 7.7029 0.1345
11.6200 7.7162 0.1306
11.6400 7.7295 0.1424
11.6600 7.7428 0.1302
11.6800 7.7561 0.1301
11.7000 7.7695 0.1374
11.7200 7.7828 0.1302
11.7400 7.7961 0.1307
11.7600 7.8094 0.1339
11.7800 7.8228 0.1268
11.8000 7.8361 0.1289
11.8200 7.8495 0.1319
11.8400 7.8628 0.1274
11.8600 7.8761 0.1292
11.8800 7.8895 0.1343
11.9000 7.9028 0.1262
11.9200 7.9161 0.1256
11.9400 7.9295 0.1344
11.9600 7.9428 0.1241
11.9800 7.9562 0.1244
12.0000 7.9695 0.1362
12.0200 7.9829 0.1245
12.0400 7.9962 0.1231
12.0600 8.0095 0.1373
12.0800 8.0228 0.1237
12.1000 8.0361 0.1205
12.1200 8.0494 0.1368
12.1400 8.0627 0.1255
12.1600 8.0760 0.1221
12.1800 8.0894 0.1331
12.2000 8.1027 0.1244
12.2200 8.1161 0.1277
12.2400 8.1295 0.1309
12.2600 8.1429 0.1228
12.2800 8.1563 0.1231
12.3000 8.1696 0.1331
12.3200 8.1829 0.1298
12.3400 8.1963 0.1230
12.3600 8.2095 0.1337
12.3800 8.2228 0.1299
12.4000 8.2361 0.1200
12.4200 8.2495 0.1329
12.4400 8.2628 0.1274
12.4600 8.2761 0.1193
12.4800 8.2894 0.1303
12.5000 8.3027 0.1303
12.5200 8.3161 0.1145
12.5400 8.3294 0.1293
12.5600 8.3428 0.1277
12.5800 8.3561 0.1132
12.6000 8.3695 0.1281
12.6200 8.3829 0.1240
12.6400 8.3962 0.1138
12.6600 8.4095 0.1317
12.6800 8.4229 0.1251
12.7000 8.4362 0.1132
12.7200 8.4495 0.1323
12.7400 8.4628 0.1257
12.7600 8.4761 0.1137
12.7800 8.4894 0.1292
12.8000 8.5028 0.1237
12.8200 8.5161 0.1125
12.8400 8.5294 0.1301
12.8600 8.5428 0.1204
12.8800 8.5561 0.1121
12.9000 8.5695 0.1259
12.9200 8.5828 0.1198
12.9400 8.5962 0.1106
12.9600 8.6095 0.1269
12.9800 8.6229 0.1168
13.0000 8.6362 0.1141
13.0200 8.6495 0.1282
13.0400 8.6628 0.1144
13.0600 8.6762 0.1136
13.0800 8.6895 0.1310
13.1000 8.7029 0.1130
13.1200 8.7162 0.1119
13.1400 8.7295 0.1283
13.1600 8.7428 0.1132
13.1800 8.7561 0.1140
13.2000 8.7694 0.1299
13.2200 8.7827 0.1133
13.2400 8.7961 0.1171
13.2600 8.8095 0.1239
13.2800 8.8228 0.1111
13.3000 8.8362 0.1210
13.3200 8.8495 0.1247
13.3400 8.8629 0.1081
13.3600 8.8762 0.1162
13.3800 8.8895 0.1229
13.4000 8.9029 0.1133
13.4200 8.9162 0.1138
13.4400 8.9295 0.1236
13.4600 8.9428 0.1142
13.4800 8.9561 0.1141
13.5000 8.9695 0.1238
13.5200 8.9828 0.1114
13.5400 8.9961 0.1161
13.5600 9.0095 0.1213
13.5800 9.0228 0.1144
13.6000 9.0361 0.1161
13.6200 9.0494 0.1183
13.6400 9.0627 0.1117
13.6600 9.0761 0.1161
13.6800 9.0895 0.1183
13.7000 9.1029 0.1144
13.7200 9.1162 0.1216
13.7400 9.1295 0.1181
13.7600 9.1428 0.1134
13.7800 9.1562 0.1208
13.8000 9.1696 0.1149
13.8200 9.1829 0.1111
13.8400 9.1962 0.1190
13.8600 9.2095 0.1133
13.8800 9.2228 0.1102
13.9000 9.2361 0.1200
13.9200 9.2494 0.1108
13.9400 9.2628 0.1167
13.9600 9.2761 0.1187
13.9800 9.2895 0.1032
14.0000 9.3028 0.1148
14.0200 9.3161 0.1167
14.0400 9.3295 0.1024
14.0600 9.3429 0.1179
14.0800 9.3562 0.1116
14.1000 9.3695 0.1035
14.1200 9.3828 0.1206
14.1400 9.3962 0.1043
14.1600 9.4095 0.1025
14.1800 9.4228 0.1199
14.2000 9.4362 0.1069
14.2200 9.4495 0.1016
14.2400 9.4629 0.1187
14.2600 9.4761 0.1008
14.2800 9.4894 0.0968
14.3000 9.5027 0.1166
14.3200 9.5161 0.1019
14.3400 9.5294 0.1042
14.3600 9.5428 0.1135
14.3800 9.5561 0.0953
14.4000 9.5695 0.1026
14.4200 9.5829 0.1119
14.4400 9.5962 0.0991
14.4600 9.6096 0.1025
14.4800 9.6229 0.1118
14.5000 9.6362 0.0999
14.5200 9.6495 0.1020
14.5400 9.6628 0.1073
14.5600 9.6760 0.1018
14.5800 9.6894 0.1064
14.6000 9.7027 0.1027
14.6200 9.7161 0.1044
14.6400 9.7294 0.1101
14.6600 9.7428 0.0992
14.6800 9.7562 0.1077
14.7000 9.7695 0.1000
14.7200 9.7828 0.0990
14.7400 9.7962 0.1116
14.7600 9.8095 0.0998
14.7800 9.8229 0.0978
14.8000 9.8362 0.1097
14.8200 9.8495 0.0952
14.8400 9.8628 0.0980
14.8600 9.8762 0.1125
14.8800 9.8895 0.0904
14.9000 9.9028 0.0994
14.9200 9.9161 0.1129
14.9400 9.9295 0.0915
14.9600 9.9428 0.1032
14.9800 9.9561 0.1078
15.0000 9.9694 0.0881
15.0200 9.9827 0.1091
15.0400 9.9961 0.1040
15.0600 10.0095 0.0879
15.0800 10.0228 0.1093
15.1000 10.0361 0.1046
15.1200 10.0495 0.0840
15.1400 10.0629 0.1089
15.1600 10.0762 0.1036
15.1800 10.0895 0.0894
15.2000 10.1028 0.1075
15.2200 10.1162 0.0996
15.2400 10.1295 0.0912
15.2600 10.1428 0.1032
15.2800 10.1561 0.1012
15.3000 10.1695 0.0930
15.3200 10.1828 0.0986
15.3400 10.1961 0.0985
15.3600 10.2094 0.0948
15.3800 10.2227 0.1005
15.4000 10.2361 0.0994
15.4200 10.2495 0.0948
15.4400 10.2628 0.0927
15.4600 10.2761 0.1039
15.4800 10.2895 0.0955
15.5000 10.3029 0.0922
15.5200 10.3162 0.1008
15.5400 10.3295 0.0922
15.5600 10.3429 0.0970
15.5800 10.3562 0.0987
15.6000 10.3695 0.0899
15.6200 10.3828 0.0997
15.6400 10.3961 0.1014
15.6600 10.4095 0.0889
15.6800 10.4228 0.0920
15.7000 10.4361 0.0983
15.7200 10.4494 0.0890
15.7400 10.4628 0.0927
15.7600 10.4761 0.0959
15.7800 10.4895 0.0848
15.8000 10.5028 0.0977
15.8200 10.5161 0.0940
15.8400 10.5294 0.0886
15.8600 10.5428 0.0975
15.8800 10.5562 0.0951
15.9000 10.5695 0.0882
15.9200 10.5828 0.0934
15.9400 10.5962 0.0962
15.9600 10.6095 0.0879
15.9800 10.6229 0.0891
16.0000 10.6362 0.0968
16.0200 10.6495 0.0861
16.0400 10.6628 0.0917
16.0600 10.6761 0.0932
16.0800 10.6894 0.0878
16.1000 10.7027 0.0904
16.1200 10.7161 0.0947
16.1400 10.7295 0.0844
16.1600 10.7428 0.0916
16.1800 10.7561 0.0939
16.2000 10.7695 0.0825
16.2200 10.7829 0.0878
16.2400 10.7962 0.0936
16.2600 10.8095 0.0810
16.2800 10.8228 0.0899
16.3000 10.8362 0.0902
16.3200 10.8495 0.0804
16.3400 10.8628 0.0910
16.3600 10.8761 0.0891
16.3800 10.8895 0.0813
16.4000 10.9028 0.0939
16.4200 10.9162 0.0863
16.4400 10.9295 0.0776
16.4600 10.9428 0.0939
16.4800 10.9561 0.0860
16.5000 10.9694 0.0810
16.5200 10.9828 0.0904
16.5400 10.9961 0.0866
16.5600 11.0095 0.0777
16.5800 11.0229 0.0891
16.6000 11.0362 0.0811
16.6200 11.0495 0.0810
16.6400 11.0629 0.0873
16.6600 11.0762 0.0837
16.6800 11.0895 0.0812
16.7000 11.1028 0.0830
16.7200 11.1161 0.0846
16.7400 11.1294 0.0864
16.7600 11.1428 0.0832
16.7800 11.1561 0.0863
16.8000 11.1695 0.0848
16.8200 11.1828 0.0767
16.8400 11.1962 0.0855
16.8600 11.2095 0.0869
16.8800 11.2228 0.0772
16.9000 11.2362 0.0831
16.9200 11.2495 0.0885
16.9400 11.2628 0.0796
16.9600 11.2761 0.0842
16.9800 11.2894 0.0845
17.0000 11.3028 0.0778
17.0200 11.3161 0.0878
17.0400 11.3295 0.0803
17.0600 11.3429 0.0797
17.0800 11.3562 0.0894
17.1000 11.3695 0.0805
17.1200 11.3829 0.0731
17.1400 11.3962 0.0882
17.1600 11.4095 0.0835
17.1800 11.4228 0.0743
17.2000 11.4361 0.0881
17.2200 11.4495 0.0801
17.2400 11.4628 0.0734
17.2600 11.4761 0.0882
17.2800 11.4894 0.0769
17.3000 11.5028 0.0766
17.3200 11.5162 0.0861
17.3400 11.5295 0.0711
17.3600 11.5428 0.0789
17.3800 11.5562 0.0894
17.4000 11.5695 0.0703
17.4200 11.5829 0.0801
17.4400 11.5962 0.0865
17.4600 11.6095 0.0680
17.4800 11.6228 0.0809
17.5000 11.6362 0.0788
17.5200 11.6495 0.0740
17.5400 11.6628 0.0841
17.5600 11.6761 0.0766
17.5800 11.6894 0.0724
17.6000 11.7028 0.0791
17.6200 11.7161 0.0760
17.6400 11.7295 0.0740
17.6600 11.7428 0.0778
17.6800 11.7562 0.0733
17.7000 11.7695 0.0770
17.7200 11.7829 0.0758
17.7400 11.7962 0.0716
17.7600 11.8095 0.0802
17.7800 11.8229 0.0691
17.8000 11.8362 0.0745
17.8200 11.8495 0.0787
17.8400 11.8628 0.0682
17.8600 11.8761 0.0735
17.8800 11.8894 0.0781
17.9000 11.9028 0.0664
17.9200 11.9161 0.0737
17.9400 11.9295 0.0773
17.9600 11.9428 0.0656
17.9800 11.9561 0.0746
18.0000 11.9695 0.0774
18.0200 11.9828 0.0705
18.0400 11.9962 0.0715
18.0600 12.0095 0.0761
18.0800 12.0228 0.0659
18.1000 12.0362 0.0742
18.1200 12.0495 0.0757
18.1400 12.0629 0.0689
18.1600 12.0762 0.0729
18.1800 12.0895 0.0787
18.2000 12.1028 0.0628
18.2200 12.1162 0.0725
18.2400 12.1295 0.0762
18.2600 12.1428 0.0658
18.2800 12.1561 0.0741
18.3000 12.1694 0.0741
18.3200 12.1828 0.0691
18.3400 12.1961 0.0733
18.3600 12.2095 0.0759
18.3800 12.2229 0.0687
18.4000 12.2362 0.0718
18.4200 12.2495 0.0720
18.4400 12.2628 0.0685
18.4600 12.2762 0.0786
18.4800 12.2895 0.0690
18.5000 12.3028 0.0681
18.5200 12.3161 0.0732
18.5400 12.3295 0.0732
18.5600 12.3428 0.0669
18.5800 12.3562 0.0704
18.6000 12.3695 0.0720
18.6200 12.3828 0.0632
18.6400 12.3961 0.0701
18.6600 12.4095 0.0706
18.6800 12.4228 0.0611
18.7000 12.4361 0.0701
18.7200 12.4495 0.0732
18.7400 12.4628 0.0634
18.7600 12.4762 0.0682
18.7800 12.4895 0.0693
18.8000 12.5028 0.0610
18.8200 12.5162 0.0687
18.8400 12.5295 0.0692
18.8600 12.5429 0.0609
18.8800 12.5561 0.0716
18.9000 12.5694 0.0684
18.9200 12.5828 0.0613
18.9400 12.5961 0.0664
18.9600 12.6094 0.0651
18.9800 12.6228 0.0581
19.0000 12.6361 0.0641
19.0200 12.6495 0.0635
19.0400 12.6628 0.0608
19.0600 12.6761 0.0652
19.0800 12.6894 0.0661
19.1000 12.7028 0.0565
19.1200 12.7162 0.0663
19.1400 12.7295 0.0620
19.1600 12.7428 0.0598
19.1800 12.7561 0.0637
19.2000 12.7695 0.0623
19.2200 12.7829 0.0597
19.2400 12.7962 0.0620
19.2600 12.8095 0.0629
19.2800 12.8229 0.0630
19.3000 12.8362 0.0595
19.3200 12.8495 0.0616
19.3400 12.8628 0.0648
19.3600 12.8761 0.0560
19.3800 12.8894 0.0626
19.4000 12.9027 0.0636
19.4200 12.9161 0.0519
19.4400 12.9294 0.0711
19.4600 12.9428 0.0585
19.4800 12.9562 0.0546
19.5000 12.9696 0.0665
19.5200 12.9829 0.0545
19.5400 12.9962 0.0573
19.5600 13.0096 0.0661
19.5800 13.0229 0.0559
19.6000 13.0362 0.0570
19.6200 13.0495 0.0671
19.6400 13.0628 0.0606
19.6600 13.0761 0.0581
19.6800 13.0895 0.0629
19.7000 13.1027 0.0517
19.7200 13.1161 0.0607
19.7400 13.1294 0.0661
19.7600 13.1428 0.0490
19.7800 13.1561 0.0626
19.8000 13.1695 0.0615
19.8200 13.1828 0.0528
19.8400 13.1962 0.0624
19.8600 13.2095 0.0586
19.8800 13.2229 0.0482
19.9000 13.2362 0.0615
19.9200 13.2495 0.0576
19.9400 13.2629 0.0490
19.9600 13.2762 0.0636
19.9800 13.2895 0.0551
20.0000 13.3028 0.0509
20.0200 13.3162 0.0584
20.0400 13.3295 0.0547
20.0600 13.3428 0.0531
20.0800 13.3561 0.0570
20.1000 13.3694 0.0553
20.1200 13.3828 0.0493
20.1400 13.3961 0.0590
20.1600 13.4095 0.0556
20.1800 13.4228 0.0536
20.2000 13.4362 0.0563
20.2200 13.4495 0.0503
20.2400 13.4628 0.0555
20.2600 13.4762 0.0564
20.2800 13.4895 0.0497
20.3000 13.5029 0.0541
20.3200 13.5162 0.0540
20.3400 13.5295 0.0498
20.3600 13.5428 0.0543
20.3800 13.5562 0.0542
20.4000 13.5695 0.0481
20.4200 13.5828 0.0559
20.4400 13.5961 0.0534
20.4600 13.6094 0.0471
20.4800 13.6228 0.0537
20.5000 13.6361 0.0499
20.5200 13.6495 0.0487
20.5400 13.6628 0.0515
20.5600 13.6762 0.0546
20.5800 13.6896 0.0458
20.6000 13.7029 0.0533
20.6200 13.7162 0.0538
20.6400 13.7295 0.0452
20.6600 13.7429 0.0544
20.6800 13.7562 0.0458
20.7000 13.7695 0.0462
20.7200 13.7828 0.0592
20.7400 13.7961 0.0433
20.7600 13.8095 0.0431
20.7800 13.8228 0.0598
20.8000 13.8361 0.0492
20.8200 13.8495 0.0425
20.8400 13.8628 0.0589
20.8600 13.8761 0.0448
20.8800 13.8894 0.0416
20.9000 13.9028 0.0564
20.9200 13.9162 0.0444
20.9400 13.9295 0.0413
20.9600 13.9429 0.0555
20.9800 13.9562 0.0427
21.0000 13.9696 0.0392
21.0200 13.9829 0.0556
21.0400 13.9962 0.0402
21.0600 14.0095 0.0404
21.0800 14.0228 0.0511
21.1000 14.0361 0.0396
21.1200 14.0495 0.0418
21.1400 14.0628 0.0494
21.1600 14.0761 0.0430
21.1800 14.0894 0.0436
21.2000 14.1028 0.0410
21.2200 14.1161 0.0415
21.2400 14.1294 0.0460
21.2600 14.1428 0.0472
21.2800 14.1562 0.0402
21.3000 14.1695 0.0393
21.3200 14.1828 0.0419
21.3400 14.1962 0.0398
21.3600 14.2095 0.0428
21.3800 14.2229 0.0436
21.4000 14.2362 0.0389
21.4200 14.2495 0.0415
21.4400 14.2628 0.0386
21.4600 14.2762 0.0442
21.4800 14.2895 0.0440
21.5000 14.3028 0.0388
21.5200 14.3161 0.0410
21.5400 14.3294 0.0455
21.5600 14.3428 0.0372
21.5800 14.3561 0.0436
21.6000 14.3694 0.0452
21.6200 14.3828 0.0348
21.6400 14.3962 0.0423
21.6600 14.4096 0.0445
21.6800 14.4229 0.0314
21.7000 14.4362 0.0414
21.7200 14.4495 0.0439
21.7400 14.4629 0.0309
21.7600 14.4762 0.0437
21.7800 14.4894 0.0482
21.8000 14.5027 0.0330
21.8200 14.5161 0.0454
21.8400 14.5294 0.0398
21.8600 14.5427 0.0368
21.8800 14.5561 0.0455
21.9000 14.5695 0.0383
21.9200 14.5828 0.0364
21.9400 14.5962 0.0433
21.9600 14.6095 0.0371
21.9800 14.6228 0.0398
22.0000 14.6362 0.0445
22.0200 14.6496 0.0342
22.0400 14.6629 0.0397
22.0600 14.6762 0.0461
22.0800 14.6895 0.0300
22.1000 14.7029 0.0419
22.1200 14.7162 0.0443
22.1400 14.7295 0.0302
22.1600 14.7428 0.0467
22.1800 14.7561 0.0425
22.2000 14.7695 0.0324
22.2200 14.7828 0.0454
22.2400 14.7961 0.0412
22.2600 14.8094 0.0278
22.2800 14.8228 0.0441
22.3000 14.8361 0.0410
22.3200 14.8495 0.0307
22.3400 14.8628 0.0428
22.3600 14.8762 0.0354
22.3800 14.8896 0.0306
22.4000 14.9029 0.0444
22.4200 14.9162 0.0340
22.4400 14.9295 0.0317
22.4600 14.9429 0.0422
22.4800 14.9562 0.0314
22.5000 14.9695 0.0273
22.5200 14.9828 0.0487
22.5400 14.9961 0.0356
22.5600 15.0095 0.0248
22.5800 15.0228 0.0479
22.6000 15.0361 0.0318
22.6200 15.0494 0.0262
22.6400 15.0628 0.0445
22.6600 15.0761 0.0331
22.6800 15.0895 0.0271
22.7000 15.1028 0.0447
22.7200 15.1162 0.0326
22.7400 15.1295 0.0266
22.7600 15.1429 0.0407
22.7800 15.1562 0.0309
22.8000 15.1695 0.0268
22.8200 15.1828 0.0389
22.8400 15.1962 0.0286
22.8600 15.2095 0.0300
22.8800 15.2228 0.0381
22.9000 15.2361 0.0255
22.9200 15.2495 0.0342
22.9400 15.2628 0.0375
22.9600 15.2761 0.0274
22.9800 15.2894 0.0342
23.0000 15.3028 0.0305
23.0200 15.3161 0.0298
23.0400 15.3295 0.0334
23.0600 15.3428 0.0337
23.0800 15.3562 0.0260
23.1000 15.3695 0.0324
23.1200 15.3828 0.0322
23.1400 15.3962 0.0311
23.1600 15.4095 0.0348
23.1800 15.4229 0.0256
23.2000 15.4362 0.0316
23.2200 15.4495 0.0328
23.2400 15.4628 0.0229
23.2600 15.4761 0.0333
23.2800 15.4895 0.0259
23.3000 15.5028 0.0223
23.3200 15.5161 0.0320
23.3400 15.5294 0.0305
23.3600 15.5428 0.0225
23.3800 15.5561 0.0275
23.4000 15.5695 0.0277
23.4200 15.5828 0.0223
23.4400 15.5962 0.0310
23.4600 15.6096 0.0263
23.4800 15.6229 0.0234
23.5000 15.6362 0.0362
23.5200 15.6495 0.0263
23.5400 15.6629 0.0233
23.5600 15.6762 0.0309
23.5800 15.6895 0.0260
23.6000 15.7028 0.0265
23.6200 15.7161 0.0305
23.6400 15.7295 0.0243
23.6600 15.7428 0.0257
23.6800 15.7561 0.0321
23.7000 15.7694 0.0213
23.7200 15.7828 0.0248
23.7400 15.7961 0.0283
23.7600 15.8094 0.0229
23.7800 15.8228 0.0237
23.8000 15.8361 0.0299
23.8200 15.8495 0.0231
23.8400 15.8629 0.0173
23.8600 15.8762 0.0309
23.8800 15.8895 0.0262
23.9000 15.9029 0.0127
23.9200 15.9162 0.0321
23.9400 15.9295 0.0247
23.9600 15.9428 0.0155
23.9800 15.9561 0.0358
24.0000 15.9695 0.0190
24.0200 15.9828 0.0135
24.0400 15.9961 0.0327
24.0600 16.0094 0.0220
24.0800 16.0228 0.0117
24.1000 16.0362 0.0337
24.1200 16.0495 0.0207
24.1400 16.0628 0.0119
24.1600 16.0761 0.0361
24.1800 16.0895 0.0122
24.2000 16.1028 0.0130
24.2200 16.1161 0.0287
24.2400 16.1294 0.0122
24.2600 16.1428 0.0174
24.2800 16.1562 0.0249
24.3000 16.1695 0.0167
24.3200 16.1828 0.0203
24.3400 16.1962 0.0201
24.3600 16.2095 0.0156
24.3800 16.2229 0.0171
24.4000 16.2361 0.0169
24.4200 16.2495 0.0204
24.4400 16.2628 0.0187
24.4600 16.2761 0.0136
24.4800 16.2894 0.0171
24.5000 16.3028 0.0206
24.5200 16.3161 0.0120
24.5400 16.3295 0.0149
24.5600 16.3428 0.0177
24.5800 16.3562 0.0121
24.6000 16.3695 0.0173
24.6200 16.3829 0.0187
24.6400 16.3962 0.0070
24.6600 16.4095 0.0210
24.6800 16.4228 0.0135
24.7000 16.4362 0.0140
24.7200 16.4495 0.0172
24.7400 16.4628 0.0098
24.7600 16.4761 0.0113
24.7800 16.4894 0.0180
24.8000 16.5028 0.0104
24.8200 16.5161 0.0091
24.8400 16.5295 0.0201
24.8600 16.5428 0.0104
24.8800 16.5562 0.0121
24.9000 16.5695 0.0197
24.9200 16.5829 0.0075
24.9400 16.5962 0.0099
24.9600 16.6095 0.0206
24.9800 16.6229 0.0067
25.0000 16.6362 0.0100
25.0200 16.6495 0.0176
25.0400 16.6628 0.0082
25.0600 16.6761 0.0113
25.0800 16.6895 0.0199
25.1000 16.7028 0.0038
25.1200 16.7161 0.0121
25.1400 16.7294 0.0207
25.1600 16.7428 0.0051
25.1800 16.7561 0.0119
25.2000 16.7695 0.0188
25.2200 16.7828 0.0042
25.2400 16.7961 0.0137
25.2600 16.8095 0.0183
25.2800 16.8228 0.0032
25.3000 16.8362 0.0111
25.3200 16.8495 0.0212
25.3400 16.8629 -0.0002
25.3600 16.8762 0.0134
25.3800 16.8895 0.0172
25.4000 16.9028 0.0014
25.4200 16.9161 0.0110
25.4400 16.9295 0.0148
25.4600 16.9428 0.0031
25.4800 16.9561 0.0149
25.5000 16.9694 0.0140
25.5200 16.9827 0.0065
25.5400 16.9960 0.0112
25.5600 17.0094 0.0119
25.5800 17.0228 0.0023
25.6000 17.0361 0.0131
25.6200 17.0495 0.0082
25.6400 17.0629 0.0012
25.6600 17.0762 0.0083
25.6800 17.0895 0.0106
25.7000 17.1028 0.0024
25.7200 17.1162 0.0073
25.7400 17.1295 0.0074
25.7600 17.1428 0.0042
25.7800 17.1561 0.0046
25.8000 17.1695 0.0071
25.8200 17.1828 0.0063
25.8400 17.1962 0.0078
25.8600 17.2095 0.0084
25.8800 17.2228 -0.0001
25.9000 17.2361 0.0019
25.9200 17.2495 0.0069
25.9400 17.2628 0.0008
25.9600 17.2762 0.0007
25.9800 17.2895 0.0108
26.0000 17.3029 -0.0025
26.0200 17.3162 0.0018
26.0400 17.3295 0.0094
26.0600 17.3429 -0.0024
26.0800 17.3562 0.0045
26.1000 17.3695 0.0073
26.1200 17.3828 -0.0027
26.1400 17.3961 0.0089
26.1600 17.4095 -0.0010
26.1800 17.4228 -0.0002
26.2000 17.4361 0.0056
26.2200 17.4494 0.0022
26.2400 17.4628 -0.0026
26.2600 17.4762 -0.0001
26.2800 17.4895 0.0042
26.3000 17.5028 -0.0023
26.3200 17.5162 -0.0011
26.3400 17.5295 0.0012
26.3600 17.5429 -0.0009
26.3800 17.5562 -0.0053
26.4000 17.5695 0.0023
26.4200 17.5828 -0.0013
26.4400 17.5962 -0.0090
26.4600 17.6095 0.0051
26.4800 17.6229 -0.0029
26.5000 17.6362 -0.0079
26.5200 17.6495 0.0030
26.5400 17.6628 -0.0025
26.5600 17.6761 -0.0047
26.5800 17.6894 0.0049
26.6000 17.7027 -0.0035
26.6200 17.7160 -0.0081
26.6400 17.7294 0.0056
26.6600 17.7427 -0.0051
26.6800 17.7561 -0.0089
26.7000 17.7695 0.0075
26.7200 17.7829 -0.0098
26.7400 17.7962 -0.0096
26.7600 17.8095 0.0061
26.7800 17.8229 -0.0117
26.8000 17.8362 -0.0052
26.8200 17.8496 0.0069
26.8400 17.8628 -0.0113
26.8600 17.8761 -0.0077
26.8800 17.8895 0.0104
26.9000 17.9028 -0.0091
26.9200 17.9161 -0.0071
26.9400 17.9294 0.0083
26.9600 17.9427 -0.0094
26.9800 17.9561 -0.0081
27.0000 17.9694 0.0036
27.0200 17.9828 -0.0074
27.0400 17.9961 -0.0045
27.0600 18.0095 0.0034
27.0800 18.0229 -0.0140
27.1000 18.0362 -0.0045
27.1200 18.0495 0.0025
27.1400 18.0629 -0.0118
27.1600 18.0762 -0.0043
27.1800 18.0895 -0.0006
27.2000 18.1028 -0.0111
27.2200 18.1161 -0.0033
27.2400 18.1295 -0.0002
27.2600 18.1428 -0.0112
27.2800 18.1561 -0.0050
27.3000 18.1694 -0.0001
27.3200 18.1828 -0.0130
27.3400 18.1961 -0.0065
27.3600 18.2095 -0.0051
27.3800 18.2228 -0.0129
27.4000 18.2361 -0.0072
27.4200 18.2495 -0.0019
27.4400 18.2629 -0.0130
27.4600 18.2762 -0.0087
27.4800 18.2895 -0.0065
27.5000 18.3028 -0.0121
27.5200 18.3162 -0.0089
27.5400 18.3295 -0.0032
27.5600 18.3429 -0.0159
27.5800 18.3562 -0.0087
27.6000 18.3695 -0.0057
27.6200 18.3829 -0.0178
27.6400 18.3962 -0.0107
27.6600 18.4094 -0.0022
27.6800 18.4228 -0.0215
27.7000 18.4361 -0.0107
27.7200 18.4495 -0.0071
27.7400 18.4628 -0.0175
27.7600 18.4761 -0.0119
27.7800 18.4895 -0.0066
27.8000 18.5029 -0.0226
27.8200 18.5162 -0.0158
27.8400 18.5295 -0.0042
27.8600 18.5429 -0.0221
27.8800 18.5562 -0.0124
27.9000 18.5695 -0.0048
27.9200 18.5828 -0.0241
27.9400 18.5961 -0.0105
27.9600 18.6095 -0.0068
27.9800 18.6228 -0.0244
28.0000 18.6362 -0.0090
28.0200 18.6495 -0.0109
28.0400 18.6628 -0.0263
28.0600 18.6761 -0.0078
28.0800 18.6894 -0.0122
28.1000 18.7028 -0.0262
28.1200 18.7161 -0.0108
28.1400 18.7295 -0.0142
28.1600 18.7429 -0.0241
28.1800 18.7562 -0.0076
28.2000 18.7695 -0.0191
28.2200 18.7828 -0.0216
28.2400 18.7962 -0.0076
28.2600 18.8096 -0.0241
28.2800 18.8229 -0.0191
28.3000 18.8362 -0.0066
28.3200 18.8495 -0.0220
28.3400 18.8628 -0.0203
28.3600 18.8761 -0.0155
28.3800 18.8894 -0.0224
28.4000 18.9027 -0.0145
28.4200 18.9161 -0.0171
28.4400 18.9295 -0.0228
28.4600 18.9428 -0.0188
28.4800 18.9561 -0.0194
28.5000 18.9695 -0.0224
28.5200 18.9829 -0.0221
28.5400 18.9962 -0.0266
28.5600 19.0095 -0.0175
28.5800 19.0228 -0.0227
28.6000 19.0362 -0.0247
28.6200 19.0495 -0.0177
28.6400 19.0628 -0.0209
28.6600 19.0762 -0.0261
28.6800 19.0895 -0.0182
28.7000 19.1028 -0.0246
28.7200 19.1161 -0.0258
28.7400 19.1294 -0.0205
28.7600 19.1427 -0.0281
28.7800 19.1561 -0.0223
28.8000 19.1694 -0.0210
28.8200 19.1828 -0.0309
28.8400 19.1961 -0.0227
28.8600 19.2095 -0.0236
28.8800 19.2229 -0.0309
28.9000 19.2363 -0.0234
28.9200 19.2496 -0.0227
28.9400 19.2629 -0.0326
28.9600 19.2762 -0.0255
28.9800 19.2896 -0.0267
29.0000 19.3028 -0.0309
29.0200 19.3161 -0.0189
29.0400 19.3294 -0.0315
29.0600 19.3428 -0.0326
29.0800 19.3561 -0.0182
29.1000 19.3694 -0.0329
29.1200 19.3828 -0.0318
29.1400 19.3962 -0.0246
29.1600 19.4095 -0.0379
29.1800 19.4228 -0.0294
29.2000 19.4362 -0.0261
29.2200 19.4495 -0.0345
29.2400 19.4629 -0.0306
29.2600 19.4762 -0.0265
29.2800 19.4895 -0.0377
29.3000 19.5028 -0.0313
29.3200 19.5162 -0.0244
29.3400 19.5295 -0.0394
29.3600 19.5428 -0.0299
29.3800 19.5561 -0.0272
29.4000 19.5695 -0.0357
29.4200 19.5828 -0.0310
29.4400 19.5961 -0.0372
29.4600 19.6094 -0.0366
29.4800 19.6228 -0.0303
29.5000 19.6361 -0.0323
29.5200 19.6495 -0.0402
29.5400 19.6628 -0.0342
29.5600 19.6761 -0.0375
29.5800 19.6895 -0.0431
29.6000 19.7028 -0.0290
29.6200 19.7162 -0.0359
29.6400 19.7295 -0.0377
29.6600 19.7428 -0.0300
29.6800 19.7562 -0.0388
29.7000 19.7695 -0.0404
29.7200 19.7828 -0.0339
29.7400 19.7961 -0.0352
29.7600 19.8095 -0.0390
29.7800 19.8228 -0.0388
29.8000 19.8361 -0.0370
29.8200 19.8494 -0.0374
29.8400 19.8627 -0.0379
29.8600 19.8761 -0.0396
29.8800 19.8894 -0.0387
29.9000 19.9028 -0.0390
29.9200 19.9161 -0.0384
29.9400 19.9295 -0.0424
29.9600 19.9429 -0.0385
29.9800 19.9562 -0.0400
30.0000 19.9696 -0.0445
30.0200 19.9829 -0.0372
30.0400 19.9962 -0.0397
30.0600 20.0095 -0.0483
30.0800 20.0228 -0.0393
30.1000 20.0361 -0.0357
30.1200 20.0494 -0.0445
30.1400 20.0628 -0.0399
30.1600 20.0762 -0.0400
30.1800 20.0895 -0.0488
30.2000 20.1028 -0.0407
30.2200 20.1161 -0.0410
30.2400 20.1295 -0.0477
30.2600 20.1428 -0.0438
30.2800 20.1561 -0.0411
30.3000 20.1695 -0.0508
30.3200 20.1828 -0.0433
30.3400 20.1962 -0.0427
30.3600 20.2095 -0.0550
30.3800 20.2228 -0.0447
30.4000 20.2362 -0.0426
30.4200 20.2496 -0.0541
30.4400 20.2629 -0.0429
30.4600 20.2762 -0.0441
30.4800 20.2895 -0.0568
30.5000 20.3028 -0.0440
30.5200 20.3161 -0.0403
30.5400 20.3294 -0.0575
30.5600 20.3427 -0.0432
30.5800 20.3561 -0.0419
30.6000 20.3694 -0.0590
30.6200 20.3828 -0.0438
30.6400 20.3961 -0.0453
30.6600 20.4095 -0.0586
30.6800 20.4229 -0.0467
30.7000 20.4363 -0.0461
30.7200 20.4495 -0.0609
30.7400 20.4628 -0.0468
30.7600 20.4762 -0.0457
30.7800 20.4895 -0.0508
30.8000 20.5029 0.0038
30.8200 20.5161 0.0660
30.8400 20.5295 0.1133
30.8600 20.5428 0.1756
30.8800 20.5561 0.2300
30.9000 20.5694 0.2728
30.9200 20.5828 0.3171
30.9400 20.5961 0.3572
30.9600 20.6094 0.3733
30.9800 20.6228 0.3769
31.0000 20.6361 0.3782
31.0200 20.6494 0.3723
31.0400 20.6628 0.3748
31.0600 20.6762 0.3753
31.0800 20.6895 0.3702
31.1000 20.7029 0.3750
31.1200 20.7162 0.3836
31.1400 20.7295 0.3747
31.1600 20.7428 0.3730
31.1800 20.7561 0.3849
31.2000 20.7694 0.3684
31.2200 20.7828 0.3721
31.2400 20.7961 0.3858
31.2600 20.8094 0.3649
31.2800 20.8228 0.3713
31.3000 20.8361 0.3824
31.3200 20.8495 0.3682
31.3400 20.8629 0.3703
31.3600 20.8762 0.3773
31.3800 20.8895 0.3632
31.4000 20.9029 0.3665
31.4200 20.9162 0.3736
31.4400 20.9295 0.3636
31.4600 20.9428 0.3714
31.4800 20.9561 0.3718
31.5000 20.9695 0.3619
31.5200 20.9829 0.3708
31.5400 20.9962 0.3660
31.5600 21.0095 0.3634
31.5800 21.0229 0.3691
31.6000 21.0362 0.3633
31.6200 21.0495 0.3663
31.6400 21.0628 0.3667
31.6600 21.0761 0.3562
31.6800 21.0895 0.3671
31.7000 21.1028 0.3631
31.7200 21.1161 0.3565
31.7400 21.1294 0.3695
31.7600 21.1428 0.3591
31.7800 21.1562 0.3593
31.8000 21.1695 0.3611
31.8200 21.1828 0.3571
31.8400 21.1962 0.3592
31.8600 21.2095 0.3593
31.8800 21.2229 0.3575
31.9000 21.2362 0.3596
31.9200 21.2495 0.3582
31.9400 21.2628 0.3563
31.9600 21.2762 0.3563
31.9800 21.2895 0.3542
32.0000 21.3028 0.3511
32.0200 21.3161 0.3548
32.0400 21.3294 0.3472
32.0600 21.3428 0.3511
32.0800 21.3561 0.3518
32.1000 21.3695 0.3480
32.1200 21.3828 0.3484
32.1400 21.3962 0.3455
32.1600 21.4095 0.3473
32.1800 21.4229 0.3470
32.2000 21.4362 0.3466
32.2200 21.4495 0.3441
32.2400 21.4628 0.3428
32.2600 21.4761 0.3457
32.2800 21.4895 0.3419
32.3000 21.5028 0.3436
32.3200 21.5161 0.3405
32.3400 21.5294 0.3406
32.3600 21.5427 0.3361
32.3800 21.5561 0.3407
32.4000 21.5695 0.3427
32.4200 21.5828 0.3342
32.4400 21.5961 0.3366
32.4600 21.6095 0.3358
32.4800 21.6228 0.3340
32.5000 21.6362 0.3388
32.5200 21.6495 0.3351
32.5400 21.6628 0.3340
32.5600 21.6762 0.3362
32.5800 21.6895 0.3313
32.6000 21.7029 0.3305
32.6200 21.7162 0.3329
32.6400 21.7295 0.3318
32.6600 21.7428 0.3340
32.6800 21.7562 0.3281
32.7000 21.7695 0.3226
32.7200 21.7828 0.3369
32.7400 21.7961 0.3266
32.7600 21.8094 0.3220
32.7800 21.8228 0.3307
32.8000 21.8361 0.3221
32.8200 21.8495 0.3233
32.8400 21.8628 0.3236
32.8600 21.8762 0.3219
32.8800 21.8896 0.3209
32.9000 21.9029 0.3219
32.9200 21.9162 0.3220
32.9400 21.9295 0.3196
32.9600 21.9429 0.3224
32.9800 21.9562 0.3170
33.0000 21.9695 0.3207
33.0200 21.9828 0.3173
33.0400 21.9962 0.3166
33.0600 22.0095 0.3203
33.0800 22.0228 0.3181
33.1000 22.0361 0.3192
33.1200 22.0495 0.3181
33.1400 22.0628 0.3171
33.1600 22.0761 0.3141
33.1800 22.0895 0.3151
33.2000 22.1028 0.3157
33.2200 22.1162 0.3115
33.2400 22.1295 0.3152
33.2600 22.1428 0.3105
33.2800 22.1562 0.3171
33.3000 22.1695 0.3128
33.3200 22.1829 0.3043
33.3400 22.1962 0.3159
33.3600 22.2095 0.3114
33.3800 22.2228 0.3090
33.4000 22.2361 0.3152
33.4200 22.2495 0.3105
33.4400 22.2628 0.3083
33.4600 22.2761 0.3121
33.4800 22.2895 0.3065
33.5000 22.3028 0.3071
33.5200 22.3161 0.3084
33.5400 22.3295 0.3056
33.5600 22.3428 0.3127
33.5800 22.3562 0.3034
33.6000 22.3695 0.3017
33.6200 22.3828 0.3132
33.6400 22.3961 0.3018
33.6600 22.4095 0.3030
33.6800 22.4229 0.3080
33.7000 22.4362 0.3016
33.7200 22.4495 0.3011
33.7400 22.4629 0.3085
33.7600 22.4762 0.2913
33.7800 22.4895 0.3021
33.8000 22.5028 0.3066
33.8200 22.5161 0.2904
33.8400 22.5294 0.3026
33.8600 22.5427 0.3025
33.8800 22.5561 0.2858
33.9000 22.5694 0.3021
33.9200 22.5828 0.3039
33.9400 22.5962 0.2865
33.9600 22.6096 0.2946
33.9800 22.6229 0.3003
34.0000 22.6362 0.2860
34.0200 22.6496 0.2952
34.0400 22.6629 0.2984
34.0600 22.6762 0.2839
34.0800 22.6895 0.2883
34.1000 22.7028 0.2990
34.1200 22.7161 0.2834
34.1400 22.7294 0.2903
34.1600 22.7427 0.2964
34.1800 22.7561 0.2816
34.2000 22.7694 0.2878
34.2200 22.7828 0.2940
34.2400 22.7961 0.2822
34.2600 22.8095 0.2871
34.2800 22.8228 0.2933
34.3000 22.8362 0.2783
34.3200 22.8496 0.2834
34.3400 22.8629 0.2929
34.3600 22.8762 0.2771
34.3800 22.8895 0.2871
34.4000 22.9029 0.2897
34.4200 22.9162 0.2750
34.4400 22.9295 0.2841
34.4600 22.9428 0.2887
34.4800 22.9562 0.2716
34.5000 22.9695 0.2794
34.5200 22.9828 0.2863
34.5400 22.9961 0.2659
34.5600 23.0094 0.2820
34.5800 23.0228 0.2878
34.6000 23.0361 0.2643
34.6200 23.0494 0.2762
34.6400 23.0628 0.2855
34.6600 23.0762 0.2579
34.6800 23.0895 0.2772
34.7000 23.1028 0.2805
34.7200 23.1162 0.2613
34.7400 23.1295 0.2713
34.7600 23.1429 0.2804
34.7800 23.1562 0.2569
34.8000 23.1695 0.2723
34.8200 23.1828 0.2814
34.8400 23.1962 0.2521
34.8600 23.2095 0.2720
34.8800 23.2228 0.2763
34.9000 23.2361 0.2533
34.9200 23.2494 0.2752
34.9400 23.2628 0.2721
34.9600 23.2761 0.2545
34.9800 23.2895 0.2714
35.0000 23.3028 0.2687
35.0200 23.3162 0.2566
35.0400 23.3295 0.2704
35.0600 23.3429 0.2675
35.0800 23.3562 0.2560
35.1000 23.3695 0.2730
35.1200 23.3829 0.2640
35.1400 23.3962 0.2560
35.1600 23.4095 0.2689
35.1800 23.4228 0.2621
35.2000 23.4362 0.2564
35.2200 23.4495 0.2645
35.2400 23.4628 0.2620
35.2600 23.4761 0.2566
35.2800 23.4894 0.2627
35.3000 23.5028 0.2627
35.3200 23.5161 0.2551
35.3400 23.5294 0.2573
35.3600 23.5428 0.2557
35.3800 23.5562 0.2554
35.4000 23.5695 0.2561
35.4200 23.5829 0.2586
35.4400 23.5962 0.2508
35.4600 23.6095 0.2578
35.4800 23.6229 0.2556
35.5000 23.6362 0.2525
35.5200 23.6495 0.2500
35.5400 23.6628 0.2553
35.5600 23.6762 0.2539
35.5800 23.6895 0.2488
35.6000 23.7028 0.2524
35.6200 23.7161 0.2477
35.6400 23.7295 0.2456
35.6600 23.7428 0.2543
35.6800 23.7561 0.2446
35.7000 23.7694 0.2451
35.7200 23.7828 0.2519
35.7400 23.7962 0.2433
35.7600 23.8095 0.2404
35.7800 23.8229 0.2525
35.8000 23.8362 0.2424
35.8200 23.8495 0.2410
35.8400 23.8629 0.2504
35.8600 23.8762 0.2445
35.8800 23.8895 0.2340
35.9000 23.9028 0.2491
35.9200 23.9162 0.2419
35.9400 23.9295 0.2307
35.9600 23.9428 0.2503
35.9800 23.9561 0.2411
36.0000 23.9694 0.2331
36.0200 23.9827 0.2481
36.0400 23.9961 0.2408
36.0600 24.0094 0.2245
36.0800 24.0228 0.2516
36.1000 24.0362 0.2362
36.1200 24.0496 0.2236
36.1400 24.0629 0.2505
36.1600 24.0762 0.2321
36.1800 24.0896 0.2231
36.2000 24.1029 0.2517
36.2200 24.1162 0.2279
36.2400 24.1294 0.2270
36.2600 24.1427 0.2484
36.2800 24.1561 0.2221
36.3000 24.1694 0.2229
36.3200 24.1827 0.2504
36.3400 24.1961 0.2185
36.3600 24.2094 0.2231
36.3800 24.2228 0.2447
36.4000 24.2362 0.2147
36.4200 24.2495 0.2269
36.4400 24.2629 0.2423
36.4600 24.2762 0.2140
36.4800 24.2896 0.2241
36.5000 24.3029 0.2342
36.5200 24.3162 0.2142
36.5400 24.3295 0.2271
36.5600 24.3429 0.2309
36.5800 24.3562 0.2102
36.6000 24.3695 0.2309
36.6200 24.3828 0.2307
36.6400 24.3961 0.2130
36.6600 24.4095 0.2266
36.6800 24.4228 0.2254
36.7000 24.4361 0.2153
36.7200 24.4494 0.2266
36.7400 24.4628 0.2247
36.7600 24.4761 0.2159
36.7800 24.4895 0.2197
36.8000 24.5028 0.2220
36.8200 24.5162 0.2150
36.8400 24.5295 0.2177
36.8600 24.5429 0.2202
36.8800 24.5562 0.2163
36.9000 24.5695 0.2148
36.9200 24.5829 0.2192
36.9400 24.5962 0.2167
36.9600 24.6095 0.2134
36.9800 24.6228 0.2203
37.0000 24.6362 0.2172
37.0200 24.6495 0.2081
37.0400 24.6628 0.2178
37.0600 24.6761 0.2144
37.0800 24.6894 0.2071
37.1000 24.7028 0.2164
37.1200 24.7161 0.2073
37.1400 24.7295 0.2070
37.1600 24.7428 0.2155
37.1800 24.7562 0.2090
37.2000 24.7695 0.2057
37.2200 24.7829 0.2170
37.2400 24.7962 0.2057
37.2600 24.8095 0.2028
37.2800 24.8229 0.2121
37.3000 24.8362 0.2026
37.3200 24.8495 0.2061
37.3400 24.8628 0.2033
37.3600 24.8761 0.2016
37.3800 24.8895 0.2026
37.4000 24.9028 0.2025
37.4200 24.9161 0.2054
37.4400 24.9294 0.1992
37.4600 24.9428 0.1991
37.4800 24.9561 0.2053
37.5000 24.9695 0.1979
37.5200 24.9828 0.1986
37.5400 24.9961 0.2043
37.5600 25.0095 0.1956
37.5800 25.0228 0.1981
37.6000 25.0362 0.2009
37.6200 25.0495 0.1929
37.6400 25.0629 0.1985
37.6600 25.0762 0.1998
37.6800 25.0895 0.1949
37.7000 25.1028 0.1950
37.7200 25.1162 0.1981
37.7400 25.1295 0.1942
37.7600 25.1428 0.1932
37.7800 25.1561 0.1977
37.8000 25.1694 0.1927
37.8200 25.1828 0.1937
37.8400 25.1961 0.1945
37.8600 25.2094 0.1900
37.8800 25.2228 0.1918
37.9000 25.2362 0.1978
37.9200 25.2496 0.1883
37.9400 25.2629 0.1861
37.9600 25.2762 0.2000
37.9800 25.2895 0.1869
38.0000 25.3029 0.1906
38.0200 25.3162 0.1957
38.0400 25.3295 0.1853
38.0600 25.3428 0.1916
38.0800 25.3561 0.1934
38.1000 25.3695 0.1840
38.1200 25.3828 0.1891
38.1400 25.3961 0.1964
38.1600 25.4094 0.1845
38.1800 25.4228 0.1873
38.2000 25.4361 0.1947
38.2200 25.4494 0.1799
38.2400 25.4627 0.1884
38.2600 25.4761 0.1916
38.2800 25.4895 0.1790
38.3000 25.5029 0.1851
38.3200 25.5162 0.1838
38.3400 25.5295 0.1813
38.3600 25.5429 0.1862
38.3800 25.5562 0.1838
38.4000 25.5695 0.1784
38.4200 25.5828 0.1904
38.4400 25.5961 0.1824
38.4600 25.6094 0.1776
38.4800 25.6228 0.1824
38.5000 25.6361 0.1803
38.5200 25.6495 0.1814
38.5400 25.6628 0.1815
38.5600 25.6762 0.1725
38.5800 25.6895 0.1823
38.6000 25.7028 0.1842
38.6200 25.7162 0.1738
38.6400 25.7295 0.1816
38.6600 25.7428 0.1844
38.6800 25.7561 0.1719
38.7000 25.7694 0.1802
38.7200 25.7828 0.1796
38.7400 25.7962 0.1722
38.7600 25.8095 0.1792
38.7800 25.8228 0.1728
38.8000 25.8362 0.1723
38.8200 25.8496 0.1818
38.8400 25.8629 0.1706
38.8600 25.8762 0.1685
38.8800 25.8895 0.1815
38.9000 25.9028 0.1718
38.9200 25.9161 0.1671
38.9400 25.9294 0.1801
38.9600 25.9428 0.1680
38.9800 25.9561 0.1665
39.0000 25.9695 0.1819
39.0200 25.9828 0.1618
39.0400 25.9962 0.1654
39.0600 26.0095 0.1808
39.0800 26.0228 0.1601
39.1000 26.0362 0.1659
39.1200 26.0495 0.1822
39.1400 26.0628 0.1601
39.1600 26.0762 0.1693
39.1800 26.0895 0.1777
39.2000 26.1028 0.1584
39.2200 26.1161 0.1702
39.2400 26.1294 0.1827
39.2600 26.1428 0.1560
39.2800 26.1561 0.1702
39.3000 26.1694 0.1749
39.3200 26.1828 0.1571
39.3400 26.1962 0.1724
39.3600 26.2095 0.1712
39.3800 26.2229 0.1575
39.4000 26.2362 0.1697
39.4200 26.2495 0.1718
39.4400 26.2629 0.1582
39.4600 26.2762 0.1637
39.4800 26.2895 0.1708
39.5000 26.3028 0.1542
39.5200 26.3161 0.1626
39.5400 26.3295 0.1687
39.5600 26.3428 0.1589
39.5800 26.3561 0.1633
39.6000 26.3694 0.1652
39.6200 26.3828 0.1592
39.6400 26.3961 0.1575
39.6600 26.4095 0.1662
39.6800 26.4228 0.1557
39.7000 26.4361 0.1559
39.7200 26.4495 0.1634
39.7400 26.4629 0.1588
39.7600 26.4762 0.1494
39.7800 26.4895 0.1681
39.8000 26.5029 0.1581
39.8200 26.5162 0.1490
39.8400 26.5295 0.1703
39.8600 26.5428 0.1540
39.8800 26.5561 0.1503
39.9000 26.5695 0.1682
39.9200 26.5828 0.1558
39.9400 26.5961 0.1516
39.9600 26.6094 0.1660
39.9800 26.6227 0.1486
40.0000 26.6361 0.1466
40.0200 26.6494 0.1678
40.0400 26.6628 0.1485
40.0600 26.6761 0.1487
40.0800 26.6895 0.1642
40.1000 26.7029 0.1459
40.1200 26.7162 0.1464
40.1400 26.7295 0.1615
40.1600 26.7428 0.1382
40.1800 26.7562 0.1462
40.2000 26.7695 0.1608
40.2200 26.7828 0.1406
40.2400 26.7961 0.1491
40.2600 26.8095 0.1550
40.2800 26.8228 0.1380
40.3000 26.8362 0.1432
40.3200 26.8495 0.1505
40.3400 26.8628 0.1403
40.3600 26.8761 0.1431
40.3800 26.8894 0.1488
40.4000 26.9028 0.1374
40.4200 26.9161 0.1417
40.4400 26.9295 0.1441
40.4600 26.9429 0.1346
40.4800 26.9562 0.1348
40.5000 26.9695 0.1427
40.5200 26.9828 0.1398
40.5400 26.9962 0.1279
40.5600 27.0095 0.1408
40.5800 27.0228 0.1330
40.6000 27.0361 0.1305
40.6200 27.0495 0.1445
40.6400 27.0628 0.1301
40.6600 27.0761 0.1264
40.6800 27.0894 0.1446
40.7000 27.1028 0.1278
40.7200 27.1161 0.1253
40.7400 27.1295 0.1434
40.7600 27.1428 0.1268
40.7800 27.1561 0.1234
40.8000 27.1695 0.1460
40.8200 27.1828 0.1225
40.8400 27.1961 0.1214
40.8600 27.2095 0.1424
40.8800 27.2228 0.1179
40.9000 27.2362 0.1229
40.9200 27.2495 0.1419
40.9400 27.2629 0.1141
40.9600 27.2762 0.1248
40.9800 27.2895 0.1403
41.0000 27.3029 0.1106
41.0200 27.3162 0.1254
41.0400 27.3295 0.1347
41.0600 27.3427 0.1161
41.0800 27.3561 0.1269
41.1000 27.3694 0.1286
41.1200 27.3827 0.1194
41.1400 27.3961 0.1265
41.1600 27.4095 0.1252
41.1800 27.4229 0.1143
41.2000 27.4362 0.1233
41.2200 27.4495 0.1257
41.2400 27.4629 0.1177
41.2600 27.4762 0.1264
41.2800 27.4896 0.1235
41.3000 27.5028 0.1189
41.3200 27.5161 0.1257
41.3400 27.5295 0.1230
41.3600 27.5428 0.1216
41.3800 27.5561 0.1250
41.4000 27.5694 0.1210
41.4200 27.5827 0.1200
41.4400 27.5961 0.1218
41.4600 27.6094 0.1211
41.4800 27.6228 0.1166
41.5000 27.6361 0.1268
41.5200 27.6495 0.1169
41.5400 27.6629 0.1195
41.5600 27.6762 0.1241
41.5800 27.6895 0.1191
41.6000 27.7029 0.1207
41.6200 27.7162 0.1195
41.6400 27.7295 0.1170
41.6600 27.7428 0.1217
41.6800 27.7561 0.1150
41.7000 27.7695 0.1166
41.7200 27.7828 0.1163
41.7400 27.7961 0.1154
41.7600 27.8094 0.1193
41.7800 27.8228 0.1151
41.8000 27.8361 0.1145
41.8200 27.8495 0.1125
41.8400 27.8628 0.1161
41.8600 27.8762 0.1103
41.8800 27.8895 0.1096
41.9000 27.9029 0.1121
41.9200 27.9162 0.1112
41.9400 27.9295 0.1053
41.9600 27.9428 0.1102
41.9800 27.9562 0.1138
42.0000 27.9695 0.1033
42.0200 27.9828 0.1060
42.0400 27.9962 0.1067
42.0600 28.0095 0.1054
42.0800 28.0228 0.1090
42.1000 28.0362 0.1002
42.1200 28.0494 0.1011
42.1400 28.0627 0.1067
42.1600 28.0761 0.1016
42.1800 28.0894 0.0998
42.2000 28.1028 0.1109
42.2200 28.1161 0.0957
42.2400 28.1295 0.0954
42.2600 28.1429 0.1086
42.2800 28.1562 0.0958
42.3000 28.1695 0.0938
42.3200 28.1828 0.1073
42.3400 28.1962 0.0932
42.3600 28.2095 0.0913
42.3800 28.2228 0.1043
42.4000 28.2361 0.0939
42.4200 28.2494 0.0972
42.4400 28.2628 0.0999
42.4600 28.2761 0.0881
42.4800 28.2895 0.0988
42.5000 28.3028 0.0983
42.5200 28.3161 0.0874
42.5400 28.3295 0.0978
42.5600 28.3428 0.0945
42.5800 28.3561 0.0841
42.6000 28.3695 0.0976
42.6200 28.3828 0.0920
42.6400 28.3962 0.0843
42.6600 28.4095 0.0967
42.6800 28.4228 0.0910
42.7000 28.4362 0.0855
42.7200 28.4496 0.0942
42.7400 28.4629 0.0898
42.7600 28.4762 0.0855
42.7800 28.4895 0.0963
42.8000 28.5028 0.0809
42.8200 28.5161 0.0858
42.8400 28.5294 0.0950
42.8600 28.5428 0.0818
42.8800 28.5561 0.0854
42.9000 28.5695 0.0911
42.9200 28.5828 0.0812
42.9400 28.5961 0.0865
42.9600 28.6095 0.0855
42.9800 28.6229 0.0799
43.0000 28.6362 0.0866
43.0200 28.6495 0.0842
43.0400 28.6628 0.0755
43.0600 28.6762 0.0886
43.0800 28.6895 0.0834
43.1000 28.7029 0.0759
43.1200 28.7162 0.0911
43.1400 28.7295 0.0768
43.1600 28.7428 0.0787
43.1800 28.7562 0.0891
43.2000 28.7694 0.0747
43.2200 28.7827 0.0840
43.2400 28.7961 0.0881
43.2600 28.8094 0.0714
43.2800 28.8227 0.0797
43.3000 28.8361 0.0880
43.3200 28.8495 0.0728
43.3400 28.8629 0.0766
43.3600 28.8763 0.0798
43.3800 28.8896 0.0718
43.4000 28.9029 0.0800
43.4200 28.9162 0.0802
43.4400 28.9296 0.0719
43.4600 28.9428 0.0808
43.4800 28.9561 0.0805
43.5000 28.9694 0.0720
43.5200 28.9827 0.0809
43.5400 28.9961 0.0753
43.5600 29.0094 0.0694
43.5800 29.0228 0.0796
43.6000 29.0361 0.0741
43.6200 29.0495 0.0676
43.6400 29.0628 0.0756
43.6600 29.0762 0.0723
43.6800 29.0895 0.0696
43.7000 29.1029 0.0761
43.7200 29.1162 0.0755
43.7400 29.1295 0.0673
43.7600 29.1428 0.0794
43.7800 29.1562 0.0748
43.8000 29.1695 0.0648
43.8200 29.1828 0.0767
43.8400 29.1961 0.0784
43.8600 29.2095 0.0697
43.8800 29.2228 0.0765
43.9000 29.2361 0.0768
43.9200 29.2494 0.0673
43.9400 29.2627 0.0759
43.9600 29.2761 0.0769
43.9800 29.2895 0.0670
44.0000 29.3028 0.0777
44.0200 29.3161 0.0771
44.0400 29.3295 0.0712
44.0600 29.3428 0.0755
44.0800 29.3562 0.0740
44.1000 29.3695 0.0667
44.1200 29.3828 0.0758
44.1400 29.3962 0.0749
44.1600 29.4096 0.0681
44.1800 29.4229 0.0742
44.2000 29.4362 0.0688
44.2200 29.4495 0.0711
44.2400 29.4628 0.0745
44.2600 29.4761 0.0655
44.2800 29.4894 0.0675
44.3000 29.5027 0.0708
44.3200 29.5161 0.0639
44.3400 29.5294 0.0643
44.3600 29.5428 0.0708
44.3800 29.5561 0.0648
44.4000 29.5695 0.0594
44.4200 29.5828 0.0671
44.4400 29.5962 0.0564
44.4600 29.6095 0.0612
44.4800 29.6228 0.0666
44.5000 29.6362 0.0537
44.5200 29.6495 0.0552
44.5400 29.6628 0.0598
44.5600 29.6761 0.0568
44.5800 29.6894 0.0599
44.6000 29.7028 0.0568
44.6200 29.7162 0.0542
44.6400 29.7295 0.0528
44.6600 29.7428 0.0547
44.6800 29.7561 0.0524
44.7000 29.7695 0.0531
44.7200 29.7828 0.0513
44.7400 29.7961 0.0560
44.7600 29.8095 0.0505
44.7800 29.8228 0.0550
44.8000 29.8362 0.0563
44.8200 29.8495 0.0480
44.8400 29.8628 0.0562
44.8600 29.8762 0.0532
44.8800 29.8895 0.0453
44.9000 29.9029 0.0550
44.9200 29.9162 0.0484
44.9400 29.9295 0.0452
44.9600 29.9428 0.0561
44.9800 29.9561 0.0505
45.0000 29.9694 0.0465
45.0200 29.9828 0.0561
45.0400 29.9961 0.0493
45.0600 30.0095 0.0428
45.0800 30.0228 0.0544
45.1000 30.0361 0.0424
45.1200 30.0495 0.0420
45.1400 30.0629 0.0500
45.1600 30.0762 0.0441
45.1800 30.0895 0.0391
45.2000 30.1028 0.0486
45.2200 30.1162 0.0486
45.2400 30.1295 0.0401
45.2600 30.1429 0.0441
45.2800 30.1562 0.0459
45.3000 30.1694 0.0394
45.3200 30.1828 0.0483
45.3400 30.1961 0.0418
45.3600 30.2094 0.0384
45.3800 30.2227 0.0412
45.4000 30.2361 0.0407
45.4200 30.2494 0.0415
45.4400 30.2628 0.0402
45.4600 30.2761 0.0420
45.4800 30.2895 0.0421
45.5000 30.3028 0.0361
45.5200 30.3162 0.0389
45.5400 30.3295 0.0386
45.5600 30.3429 0.0315
45.5800 30.3562 0.0393
45.6000 30.3696 0.0377
45.6200 30.3829 0.0322
45.6400 30.3961 0.0410
45.6600 30.4094 0.0402
45.6800 30.4228 0.0341
45.7000 30.4361 0.0370
45.7200 30.4494 0.0332
45.7400 30.4628 0.0329
45.7600 30.4761 0.0383
45.7800 30.4895 0.0310
45.8000 30.5028 0.0341
45.8200 30.5162 0.0340
45.8400 30.5295 0.0304
45.8600 30.5428 0.0338
45.8800 30.5562 0.0341
45.9000 30.5695 0.0328
45.9200 30.5828 0.0320
45.9400 30.5961 0.0316
45.9600 30.6095 0.0285
45.9800 30.6229 0.0329
46.0000 30.6362 0.0275
46.0200 30.6495 0.0307
46.0400 30.6629 0.0303
46.0600 30.6762 0.0242
46.0800 30.6895 0.0267
46.1000 30.7028 0.0306
46.1200 30.7161 0.0223
46.1400 30.7295 0.0228
46.1600 30.7428 0.0316
46.1800 30.7561 0.0217
46.2000 30.7694 0.0232
46.2200 30.7828 0.0273
46.2400 30.7962 0.0171
46.2600 30.8095 0.0257
46.2800 30.8228 0.0313
46.3000 30.8362 0.0170
46.3200 30.8495 0.0238
46.3400 30.8629 0.0249
46.3600 30.8762 0.0154
46.3800 30.8895 0.0297
46.4000 30.9029 0.0282
46.4200 30.9162 0.0131
46.4400 30.9295 0.0306
46.4600 30.9428 0.0232
46.4800 30.9561 0.0152
46.5000 30.9694 0.0312
46.5200 30.9828 0.0216
46.5400 30.9961 0.0168
46.5600 31.0095 0.0311
46.5800 31.0228 0.0198
46.6000 31.0362 0.0140
46.6200 31.0495 0.0306
46.6400 31.0628 0.0180
46.6600 31.0762 0.0175
46.6800 31.0895 0.0282
46.7000 31.1029 0.0116
46.7200 31.1162 0.0196
46.7400 31.1295 0.0270
46.7600 31.1428 0.0146
46.7800 31.1562 0.0190
46.8000 31.1695 0.0309
46.8200 31.1828 0.0130
46.8400 31.1961 0.0188
46.8600 31.2095 0.0263
46.8800 31.2228 0.0145
46.9000 31.2361 0.0169
46.9200 31.2495 0.0245
46.9400 31.2628 0.0163
46.9600 31.2762 0.0136
46.9800 31.2895 0.0213
47.0000 31.3028 0.0202
47.0200 31.3162 0.0092
47.0400 31.3295 0.0222
47.0600 31.3429 0.0184
47.0800 31.3562 0.0044
47.1000 31.3695 0.0247
47.1200 31.3828 0.0151
47.1400 31.3962 0.0000
47.1600 31.4095 0.0240
47.1800 31.4228 0.0106
47.2000 31.4361 0.0027
47.2200 31.4494 0.0249
47.2400 31.4628 0.0082
47.2600 31.4761 0.0013
47.2800 31.4895 0.0250
47.3000 31.5028 0.0086
47.3200 31.5162 -0.0029
47.3400 31.5295 0.0243
47.3600 31.5428 0.0041
47.3800 31.5561 -0.0033
47.4000 31.5695 0.0255
47.4200 31.5828 0.0030
47.4400 31.5961 0.0024
47.4600 31.6095 0.0230
47.4800 31.6228 -0.0006
47.5000 31.6362 0.0063
47.5200 31.6495 0.0169
47.5400 31.6628 0.0003
47.5600 31.6761 0.0081
47.5800 31.6895 0.0154
47.6000 31.7028 -0.0028
47.6200 31.7161 0.0080
47.6400 31.7295 0.0097
47.6600 31.7428 -0.0049
47.6800 31.7562 0.0055
47.7000 31.7695 0.0119
47.7200 31.7829 -0.0047
47.7400 31.7962 0.0046
47.7600 31.8095 0.0033
47.7800 31.8229 -0.0014
47.8000 31.8362 0.0042
47.8200 31.8495 0.0040
47.8400 31.8628 -0.0015
47.8600 31.8761 -0.0018
47.8800 31.8895 0.0039
47.9000 31.9028 -0.0023
47.9200 31.9161 -0.0026
47.9400 31.9294 0.0071
47.9600 31.9428 0.0012
47.9800 31.9561 -0.0079
48.0000 31.9694 0.0013
48.0200 31.9828 0.0026
48.0400 31.9962 -0.0087
48.0600 32.0095 0.0022
48.0800 32.0228 0.0061
48.1000 32.0361 -0.0077
48.1200 32.0495 0.0030
48.1400 32.0629 0.0065
48.1600 32.0762 -0.0073
48.1800 32.0895 0.0008
48.2000 32.1028 0.0014
48.2200 32.1162 -0.0086
48.2400 32.1295 0.0037
48.2600 32.1428 -0.0006
48.2800 32.1561 -0.0106
48.3000 32.1694 0.0052
48.3200 32.1827 -0.0051
48.3400 32.1961 -0.0110
48.3600 32.2094 0.0061
48.3800 32.2228 -0.0093
48.4000 32.2362 -0.0109
48.4200 32.2496 0.0015
48.4400 32.2629 -0.0092
48.4600 32.2762 -0.0110
48.4800 32.2896 -0.0010
48.5000 32.3029 -0.0106
48.5200 32.3162 -0.0141
48.5400 32.3295 -0.0026
48.5600 32.3428 -0.0109
48.5800 32.3561 -0.0128
48.6000 32.3695 -0.0064
48.6200 32.3828 -0.0109
48.6400 32.3961 -0.0155
48.6600 32.4094 -0.0057
48.6800 32.4228 -0.0173
48.7000 32.4361 -0.0170
48.7200 32.4495 -0.0044
48.7400 32.4628 -0.0162
48.7600 32.4762 -0.0225
48.7800 32.4896 -0.0075
48.8000 32.5029 -0.0169
48.8200 32.5162 -0.0204
48.8400 32.5295 -0.0114
48.8600 32.5429 -0.0132
48.8800 32.5562 -0.0228
48.9000 32.5695 -0.0165
48.9200 32.5828 -0.0112
48.9400 32.5961 -0.0241
48.9600 32.6095 -0.0192
48.9800 32.6228 -0.0142
49.0000 32.6361 -0.0223
49.0200 32.6494 -0.0193
49.0400 32.6628 -0.0203
49.0600 32.6761 -0.0228
49.0800 32.6895 -0.0161
49.1000 32.7028 -0.0202
49.1200 32.7162 -0.0236
49.1400 32.7295 -0.0189
49.1600 32.7429 -0.0192
49.1800 32.7562 -0.0231
49.2000 32.7695 -0.0179
49.2200 32.7829 -0.0155
49.2400 32.7962 -0.0249
49.2600 32.8095 -0.0131
49.2800 32.8228 -0.0162
49.3000 32.8362 -0.0319
49.3200 32.8495 -0.0143
49.3400 32.8628 -0.0156
49.3600 32.8761 -0.0295
49.3800 32.8894 -0.0119
49.4000 32.9028 -0.0156
49.4200 32.9161 -0.0293
49.4400 32.9295 -0.0119
49.4600 32.9428 -0.0134
49.4800 32.9562 -0.0296
49.5000 32.9696 -0.0141
49.5200 32.9829 -0.0184
49.5400 32.9962 -0.0315
49.5600 33.0095 -0.0185
49.5800 33.0229 -0.0213
49.6000 33.0362 -0.0291
49.6200 33.0495 -0.0190
49.6400 33.0628 -0.0231
49.6600 33.0761 -0.0301
49.6800 33.0895 -0.0201
49.7000 33.1028 -0.0235
49.7200 33.1161 -0.0295
49.7400 33.1294 -0.0262
49.7600 33.1428 -0.0216
49.7800 33.1561 -0.0297
49.8000 33.1694 -0.0277
49.8200 33.1828 -0.0296
49.8400 33.1962 -0.0302
49.8600 33.2095 -0.0289
49.8800 33.2229 -0.0257
49.9000 33.2362 -0.0341
49.9200 33.2495 -0.0299
49.9400 33.2629 -0.0291
49.9600 33.2762 -0.0372
49.9800 33.2895 -0.0329
50.0000 33.3028 -0.0313
50.0200 33.3162 -0.0391
50.0400 33.3295 -0.0362
50.0600 33.3428 -0.0345
50.0800 33.3561 -0.0352
50.1000 33.3694 -0.0419
50.1200 33.3828 -0.0376
50.1400 33.3961 -0.0361
50.1600 33.4095 -0.0482
50.1800 33.4228 -0.0366
50.2000 33.4362 -0.0372
50.2200 33.4495 -0.0489
50.2400 33.4628 -0.0384
50.2600 33.4762 -0.0390
50.2800 33.4895 -0.0461
50.3000 33.5029 -0.0403
50.3200 33.5162 -0.0435
50.3400 33.5295 -0.0448
50.3600 33.5428 -0.0377
50.3800 33.5562 -0.0471
50.4000 33.5695 -0.0512
50.4200 33.5828 -0.0361
50.4400 33.5961 -0.0392
50.4600 33.6094 -0.0525
50.4800 33.6228 -0.0401
50.5000 33.6361 -0.0442
50.5200 33.6494 -0.0561
50.5400 33.6628 -0.0346
50.5600 33.6762 -0.0457
50.5800 33.6896 -0.0571
50.6000 33.7029 -0.0409
50.6200 33.7162 -0.0456
50.6400 33.7296 -0.0549
50.6600 33.7429 -0.0373
50.6800 33.7562 -0.0483
50.7000 33.7695 -0.0570
50.7200 33.7827 -0.0388
50.7400 33.7961 -0.0454
50.7600 33.8094 -0.0591
50.7800 33.8228 -0.0397
50.8000 33.8361 -0.0493
50.8200 33.8495 -0.0593
50.8400 33.8628 -0.0402
50.8600 33.8762 -0.0522
50.8800 33.8895 -0.0566
50.9000 33.9029 -0.0456
50.9200 33.9162 -0.0568
50.9400 33.9295 -0.0578
50.9600 33.9428 -0.0425
50.9800 33.9561 -0.0483
51.0000 33.9695 -0.0569
51.0200 33.9828 -0.0399
51.0400 33.9961 -0.0538
51.0600 34.0095 -0.0578
51.0800 34.0228 -0.0426
51.1000 34.0361 -0.0539
51.1200 34.0495 -0.0575
51.1400 34.0628 -0.0466
51.1600 34.0761 -0.0550
51.1800 34.0894 -0.0529
51.2000 34.1028 -0.0436
51.2200 34.1161 -0.0584
51.2400 34.1295 -0.0530
51.2600 34.1428 -0.0479
51.2800 34.1562 -0.0529
51.3000 34.1696 -0.0546
51.3200 34.1829 -0.0528
51.3400 34.1962 -0.0507
51.3600 34.2095 -0.0528
51.3800 34.2229 -0.0501
51.4000 34.2362 -0.0525
51.4200 34.2495 -0.0532
51.4400 34.2628 -0.0467
51.4600 34.2762 -0.0568
51.4800 34.2895 -0.0526
51.5000 34.3028 -0.0573
51.5200 34.3161 -0.0510
51.5400 34.3294 -0.0562
51.5600 34.3428 -0.0613
51.5800 34.3561 -0.0520
51.6000 34.3694 -0.0576
51.6200 34.3828 -0.0607
51.6400 34.3961 -0.0513
51.6600 34.4095 -0.0607
51.6800 34.4229 -0.0617
51.7000 34.4362 -0.0557
51.7200 34.4496 -0.0632
51.7400 34.4629 -0.0610
51.7600 34.4762 -0.0561
51.7800 34.4895 -0.0660
51.8000 34.5028 -0.0584
51.8200 34.5161 -0.0569
51.8400 34.5295 -0.0675
51.8600 34.5428 -0.0585
51.8800 34.5561 -0.0609
51.9000 34.5694 -0.0731
51.9200 34.5828 -0.0619
51.9400 34.5961 -0.0647
51.9600 34.6094 -0.0678
51.9800 34.6228 -0.0582
52.0000 34.6361 -0.0652
52.0200 34.6495 -0.0711
52.0400 34.6628 -0.0596
52.0600 34.6762 -0.0636
52.0800 34.6895 -0.0678
52.1000 34.7029 -0.0627
52.1200 34.7162 -0.0688
52.1400 34.7295 -0.0642
52.1600 34.7428 -0.0621
52.1800 34.7561 -0.0655
52.2000 34.7695 -0.0632
52.2200 34.7828 -0.0661
52.2400 34.7961 -0.0652
52.2600 34.8094 -0.0640
52.2800 34.8228 -0.0686
52.3000 34.8361 -0.0655
52.3200 34.8494 -0.0616
52.3400 34.8628 -0.0671
52.3600 34.8762 -0.0644
52.3800 34.8896 -0.0660
52.4000 34.9029 -0.0717
52.4200 34.9162 -0.0627
52.4400 34.9295 -0.0681
52.4600 34.9429 -0.0718
52.4800 34.9562 -0.0653
52.5000 34.9695 -0.0719
52.5200 34.9828 -0.0849
52.5400 34.9961 -0.1054
52.5600 35.0095 0.0263
52.5800 35.0228 0.0633
52.6000 35.0361 0.0609
52.6200 35.0494 0.0405
52.6400 35.0628 0.0401
52.6600 35.0761 0.0453
52.6800 35.0894 0.0285
52.7000 35.1028 0.0421
52.7200 35.1161 0.0480
52.7400 35.1295 0.0310
52.7600 35.1429 0.0450
52.7800 35.1562 0.0427
52.8000 35.1695 0.0323
52.8200 35.1829 0.0471
52.8400 35.1962 0.0441
52.8600 35.2095 0.0292
52.8800 35.2228 0.0509
52.9000 35.2361 0.0443
52.9200 35.2494 0.0346
52.9400 35.2628 0.0490
52.9600 35.2761 0.0442
52.9800 35.2894 0.0345
53.0000 35.3028 0.0489
53.0200 35.3162 0.0374
53.0400 35.3295 0.0380
53.0600 35.3428 0.0501
53.0800 35.3562 0.0380
53.1000 35.3695 0.0418
53.1200 35.3829 0.0489
53.1400 35.3961 0.0365
53.1600 35.4095 0.0442
53.1800 35.4228 0.0484
53.2000 35.4362 0.0371
53.2200 35.4495 0.0405
53.2400 35.4628 0.0448
53.2600 35.4762 0.0370
53.2800 35.4895 0.0441
53.3000 35.5029 0.0405
53.3200 35.5162 0.0337
53.3400 35.5294 0.0440
53.3600 35.5428 0.0391
53.3800 35.5561 0.0360
53.4000 35.5694 0.0412
53.4200 35.5828 0.0409
53.4400 35.5961 0.0357
53.4600 35.6095 0.0395
53.4800 35.6229 0.0372
53.5000 35.6362 0.0398
53.5200 35.6495 0.0426
53.5400 35.6628 0.0375
53.5600 35.6762 0.0366
53.5800 35.6895 0.0405
53.6000 35.7028 0.0343
53.6200 35.7162 0.0342
53.6400 35.7295 0.0367
53.6600 35.7428 0.0364
53.6800 35.7561 0.0376
53.7000 35.7694 0.0421
53.7200 35.7827 0.0355
53.7400 35.7961 0.0344
53.7600 35.8094 0.0357
53.7800 35.8228 0.0378
53.8000 35.8361 0.0340
53.8200 35.8495 0.0378
53.8400 35.8629 0.0351
53.8600 35.8762 0.0336
53.8800 35.8895 0.0356
53.9000 35.9029 0.0380
53.9200 35.9162 0.0289
53.9400 35.9295 0.0395
53.9600 35.9428 0.0368
53.9800 35.9561 0.0302
54.0000 35.9695 0.0435
54.0200 35.9828 0.0328
54.0400 35.9961 0.0305
54.0600 36.0094 0.0432
54.0800 36.0228 0.0354
54.1000 36.0361 0.0309
54.1200 36.0495 0.0432
54.1400 36.0628 0.0313
54.1600 36.0761 0.0319
54.1800 36.0895 0.0426
54.2000 36.1028 0.0274
54.2200 36.1162 0.0315
54.2400 36.1295 0.0413
54.2600 36.1429 0.0304
54.2800 36.1562 0.0321
54.3000 36.1696 0.0389
54.3200 36.1828 0.0316
54.3400 36.1962 0.0335
54.3600 36.2095 0.0406
54.3800 36.2228 0.0273
54.4000 36.2361 0.0292
54.4200 36.2494 0.0438
54.4400 36.2627 0.0284
54.4600 36.2761 0.0279
54.4800 36.2895 0.0403
54.5000 36.3028 0.0298
54.5200 36.3161 0.0277
54.5400 36.3295 0.0380
54.5600 36.3429 0.0312
54.5800 36.3562 0.0263
54.6000 36.3695 0.0384
54.6200 36.3828 0.0261
54.6400 36.3962 0.0229
54.6600 36.4095 0.0414
54.6800 36.4228 0.0275
54.7000 36.4361 0.0270
54.7200 36.4495 0.0434
54.7400 36.4628 0.0251
54.7600 36.4761 0.0273
54.7800 36.4894 0.0410
54.8000 36.5028 0.0235
54.8200 36.5161 0.0275
54.8400 36.5295 0.0343
54.8600 36.5428 0.0225
54.8800 36.5561 0.0277
54.9000 36.5695 0.0311
54.9200 36.5829 0.0238
54.9400 36.5962 0.0278
54.9600 36.6095 0.0298
54.9800 36.6229 0.0232
55.0000 36.6362 0.0285
55.0200 36.6495 0.0334
55.0400 36.6628 0.0245
55.0600 36.6761 0.0270
55.0800 36.6894 0.0298
55.1000 36.7028 0.0227
55.1200 36.7161 0.0261
55.1400 36.7294 0.0275
55.1600 36.7427 0.0262
55.1800 36.7561 0.0269
55.2000 36.7695 0.0249
55.2200 36.7828 0.0261
55.2400 36.7961 0.0265
55.2600 36.8095 0.0285
55.2800 36.8228 0.0249
55.3000 36.8362 0.0224
55.3200 36.8495 0.0259
55.3400 36.8628 0.0279
55.3600 36.8762 0.0206
55.3800 36.8896 0.0253
55.4000 36.9029 0.0338
55.4200 36.9162 0.0215
55.4400 36.9295 0.0228
55.4600 36.9429 0.0324
55.4800 36.9562 0.0172
55.5000 36.9694 0.0231
55.5200 36.9827 0.0310
55.5400 36.9960 0.0172
55.5600 37.0094 0.0268
55.5800 37.0227 0.0257
55.6000 37.0361 0.0155
55.6200 37.0495 0.0255
55.6400 37.0629 0.0256
55.6600 37.0762 0.0159
55.6800 37.0895 0.0284
55.7000 37.1029 0.0265
55.7200 37.1162 0.0129
55.7400 37.1296 0.0299
55.7600 37.1429 0.0240
55.7800 37.1562 0.0173
55.8000 37.1695 0.0302
55.8200 37.1828 0.0203
55.8400 37.1961 0.0160
55.8600 37.2094 0.0249
55.8800 37.2227 0.0213
55.9000 37.2361 0.0146
55.9200 37.2494 0.0257
55.9400 37.2628 0.0234
55.9600 37.2761 0.0208
55.9800 37.2895 0.0224
56.0000 37.3029 0.0216
56.0200 37.3162 0.0226
56.0400 37.3295 0.0177
56.0600 37.3429 0.0237
56.0800 37.3562 0.0198
56.1000 37.3696 0.0174
56.1200 37.3829 0.0271
56.1400 37.3962 0.0120
56.1600 37.4095 0.0217
56.1800 37.4228 0.0252
56.2000 37.4361 0.0102
56.2200 37.4494 0.0205
56.2400 37.4628 0.0231
56.2600 37.4761 0.0093
56.2800 37.4895 0.0221
56.3000 37.5028 0.0243
56.3200 37.5161 0.0100
56.3400 37.5295 0.0227
56.3600 37.5429 0.0193
56.3800 37.5562 0.0107
56.4000 37.5695 0.0237
56.4200 37.5828 0.0195
56.4400 37.5962 0.0116
56.4600 37.6095 0.0212
56.4800 37.6228 0.0171
56.5000 37.6362 0.0138
56.5200 37.6495 0.0211
56.5400 37.6628 0.0132
56.5600 37.6762 0.0115
56.5800 37.6894 0.0216
56.6000 37.7027 0.0118
56.6200 37.7161 0.0150
56.6400 37.7295 0.0173
56.6600 37.7428 0.0141
56.6800 37.7561 0.0127
56.7000 37.7695 0.0145
56.7200 37.7829 0.0118
56.7400 37.7962 0.0134
56.7600 37.8095 0.0110
56.7800 37.8229 0.0141
56.8000 37.8362 0.0105
56.8200 37.8495 0.0107
56.8400 37.8628 0.0165
56.8600 37.8761 0.0132
56.8800 37.8894 0.0102
56.9000 37.9028 0.0139
56.9200 37.9161 0.0108
56.9400 37.9295 0.0095
56.9600 37.9428 0.0151
56.9800 37.9561 0.0094
57.0000 37.9695 0.0133
57.0200 37.9828 0.0150
57.0400 37.9961 0.0093
57.0600 38.0095 0.0134
57.0800 38.0229 0.0089
57.1000 38.0362 0.0107
57.1200 38.0495 0.0131
57.1400 38.0628 0.0076
57.1600 38.0762 0.0121
57.1800 38.0896 0.0089
57.2000 38.1029 0.0063
57.2200 38.1162 0.0125
57.2400 38.1295 0.0062
57.2600 38.1428 0.0075
57.2800 38.1561 0.0103
57.3000 38.1695 0.0047
57.3200 38.1828 0.0043
57.3400 38.1961 0.0128
57.3600 38.2094 0.0039
57.3800 38.2228 0.0050
57.4000 38.2361 0.0104
57.4200 38.2495 0.0026
57.4400 38.2629 0.0044
57.4600 38.2762 0.0082
57.4800 38.2895 0.0035
57.5000 38.3028 0.0039
57.5200 38.3162 0.0108
57.5400 38.3295 -0.0037
57.5600 38.3429 0.0052
57.5800 38.3562 0.0109
57.6000 38.3695 0.0016
57.6200 38.3828 0.0068
57.6400 38.3961 0.0075
57.6600 38.4094 -0.0017
57.6800 38.4227 0.0079
57.7000 38.4361 0.0068
57.7200 38.4494 -0.0028
57.7400 38.4627 0.0066
57.7600 38.4761 0.0055
57.7800 38.4895 0.0020
57.8000 38.5029 0.0058
57.8200 38.5162 0.0041
57.8400 38.5296 -0.0002
57.8600 38.5429 0.0033
57.8800 38.5562 0.0051
57.9000 38.5696 -0.0010
57.9200 38.5828 0.0032
57.9400 38.5961 0.0105
57.9600 38.6094 -0.0017
57.9800 38.6227 0.0004
58.0000 38.6361 0.0089
58.0200 38.6494 -0.0059
58.0400 38.6628 -0.0007
58.0600 38.6761 0.0056
58.0800 38.6895 -0.0086
58.1000 38.7028 0.0016
58.1200 38.7162 0.0077
58.1400 38.7295 -0.0102
58.1600 38.7429 0.0047
58.1800 38.7562 0.0073
58.2000 38.7695 -0.0106
58.2200 38.7828 0.0050
58.2400 38.7962 0.0047
58.2600 38.8095 -0.0110
58.2800 38.8228 0.0005
58.3000 38.8362 0.0033
58.3200 38.8495 -0.0043
58.3400 38.8628 0.0076
58.3600 38.8762 -0.0039
58.3800 38.8895 -0.0067
58.4000 38.9028 0.0064
58.4200 38.9161 -0.0002
58.4400 38.9295 -0.0049
58.4600 38.9428 0.0051
58.4800 38.9562 -0.0026
58.5000 38.9695 -0.0045
58.5200 38.9829 -0.0004
58.5400 38.9962 -0.0029
58.5600 39.0095 -0.0038
58.5800 39.0228 -0.0002
58.6000 39.0362 -0.0067
58.6200 39.0495 -0.0041
58.6400 39.0629 -0.0029
58.6600 39.0762 -0.0066
58.6800 39.0895 -0.0027
58.7000 39.1028 -0.0070
58.7200 39.1162 -0.0082
58.7400 39.1295 -0.0090
58.7600 39.1428 -0.0069
58.7800 39.1561 -0.0065
58.8000 39.1694 -0.0074
58.8200 39.1828 -0.0118
58.8400 39.1961 -0.0059
58.8600 39.2095 -0.0118
58.8800 39.2228 -0.0120
58.9000 39.2362 -0.0065
58.9200 39.2495 -0.0144
58.9400 39.2629 -0.0133
58.9600 39.2762 -0.0047
58.9800 39.2895 -0.0155
59.0000 39.3028 -0.0131
59.0200 39.3161 -0.0026
59.0400 39.3295 -0.0151
59.0600 39.3428 -0.0141
59.0800 39.3562 -0.0065
59.1000 39.3695 -0.0174
59.1200 39.3828 -0.0103
59.1400 39.3961 -0.0021
59.1600 39.4095 -0.0222
59.1800 39.4228 -0.0138
59.2000 39.4361 -0.0036
59.2200 39.4494 -0.0183
59.2400 39.4628 -0.0093
59.2600 39.4762 -0.0088
59.2800 39.4895 -0.0217
59.3000 39.5028 -0.0079
59.3200 39.5162 -0.0089
59.3400 39.5296 -0.0185
59.3600 39.5429 -0.0074
59.3800 39.5562 -0.0099
59.4000 39.5695 -0.0169
59.4200 39.5828 -0.0085
59.4400 39.5961 -0.0146
59.4600 39.6094 -0.0194
59.4800 39.6227 -0.0109
59.5000 39.6361 -0.0170
59.5200 39.6494 -0.0144
59.5400 39.6628 -0.0134
59.5600 39.6761 -0.0192
59.5800 39.6895 -0.0144
59.6000 39.7029 -0.0162
59.6200 39.7162 -0.0176
59.6400 39.7296 -0.0162
59.6600 39.7429 -0.0130
59.6800 39.7562 -0.0217
59.7000 39.7695 -0.0183
59.7200 39.7829 -0.0203
59.7400 39.7962 -0.0192
59.7600 39.8095 -0.0194
59.7800 39.8228 -0.0238
59.8000 39.8362 -0.0178
59.8200 39.8495 -0.0226
59.8400 39.8628 -0.0259
59.8600 39.8761 -0.0115
59.8800 39.8894 -0.0272
59.9000 39.9028 -0.0251
59.9200 39.9161 -0.0130
59.9400 39.9295 -0.0242
59.9600 39.9428 -0.0284
59.9800 39.9562 -0.0150
60.0000 39.9695 -0.0249
60.0200 39.9828 -0.0296
60.0400 39.9962 -0.0208
60.0460 40.0001 -0.0332
