Raw Data
Time Displacement Force
(s) (mm) (N)
0.0000 0.0000 0.4516
0.0200 0.0001 0.4649
0.0400 0.0022 0.5513
0.0600 0.0101 0.5665
0.0800 0.0220 0.4942
0.1000 0.0344 0.5031
0.1200 0.0471 0.5223
0.1400 0.0606 0.4808
0.1600 0.0747 0.4901
0.1800 0.0888 0.4873
0.2000 0.1028 0.4646
0.2200 0.1163 0.4817
0.2400 0.1297 0.4785
0.2600 0.1430 0.4671
0.2800 0.1563 0.4839
0.3000 0.1697 0.4740
0.3200 0.1831 0.4759
0.3400 0.1964 0.5047
0.3600 0.2097 0.4766
0.3800 0.2231 0.4831
0.4000 0.2364 0.4940
0.4200 0.2497 0.4678
0.4400 0.2630 0.4848
0.4600 0.2764 0.4824
0.4800 0.2897 0.4598
0.5000 0.3031 0.4776
0.5200 0.3164 0.4756
0.5400 0.3297 0.4577
0.5600 0.3430 0.4762
0.5800 0.3564 0.4755
0.6000 0.3698 0.4536
0.6200 0.3831 0.4771
0.6400 0.3964 0.4689
0.6600 0.4098 0.4529
0.6800 0.4232 0.4702
0.7000 0.4365 0.4581
0.7200 0.4498 0.4527
0.7400 0.4631 0.4673
0.7600 0.4765 0.4577
0.7800 0.4898 0.4509
0.8000 0.5031 0.4645
0.8200 0.5164 0.4563
0.8400 0.5298 0.4518
0.8600 0.5431 0.4540
0.8800 0.5564 0.4487
0.9000 0.5697 0.4567
0.9200 0.5830 0.4537
0.9400 0.5963 0.4460
0.9600 0.6097 0.4466
0.9800 0.6230 0.4421
1.0000 0.6364 0.4461
1.0200 0.6498 0.4438
1.0400 0.6631 0.4392
1.0600 0.6765 0.4505
1.0800 0.6898 0.4393
1.1000 0.7031 0.4400
1.1200 0.7164 0.4467
1.1400 0.7298 0.4346
1.1600 0.7431 0.4415
1.1800 0.7564 0.4427
1.2000 0.7697 0.4303
1.2200 0.7831 0.4351
1.2400 0.7964 0.4399
1.2600 0.8097 0.4252
1.2800 0.8230 0.4382
1.3000 0.8364 0.4357
1.3200 0.8497 0.4230
1.3400 0.8630 0.4376
1.3600 0.8764 0.4325
1.3800 0.8897 0.4219
1.4000 0.9031 0.4406
1.4200 0.9165 0.4262
1.4400 0.9298 0.4168
1.4600 0.9431 0.4392
1.4800 0.9565 0.4279
1.5000 0.9698 0.4171
1.5200 0.9831 0.4362
1.5400 0.9964 0.4324
1.5600 1.0097 0.4263
1.5800 1.0231 0.4325
1.6000 1.0364 0.4315
1.6200 1.0497 0.4177
1.6400 1.0630 0.4280
1.6600 1.0764 0.4292
1.6800 1.0897 0.4173
1.7000 1.1031 0.4292
1.7200 1.1164 0.4270
1.7400 1.1298 0.4171
1.7600 1.1431 0.4265
1.7800 1.1565 0.4255
1.8000 1.1698 0.4158
1.8200 1.1831 0.4209
1.8400 1.1965 0.4218
1.8600 1.2098 0.4153
1.8800 1.2231 0.4178
1.9000 1.2364 0.4277
1.9200 1.2497 0.4149
1.9400 1.2631 0.4126
1.9600 1.2764 0.4245
1.9800 1.2897 0.4126
2.0000 1.3030 0.4126
2.0200 1.3164 0.4198
2.0400 1.3297 0.4051
2.0600 1.3430 0.4090
2.0800 1.3563 0.4180
2.1000 1.3697 0.4066
2.1200 1.3831 0.4079
2.1400 1.3965 0.4159
2.1600 1.4098 0.3991
2.1800 1.4231 0.4073
2.2000 1.4365 0.4150
2.2200 1.4498 0.3994
2.2400 1.4631 0.4060
2.2600 1.4764 0.4113
2.2800 1.4897 0.3953
2.3000 1.5030 0.4086
2.3200 1.5164 0.4096
2.3400 1.5297 0.3924
2.3600 1.5430 0.4073
2.3800 1.5564 0.4024
2.4000 1.5698 0.3956
2.4200 1.5831 0.4065
2.4400 1.5964 0.4007
2.4600 1.6098 0.3929
2.4800 1.6231 0.4022
2.5000 1.6364 0.4009
2.5200 1.6497 0.3951
2.5400 1.6630 0.4029
2.5600 1.6764 0.3949
2.5800 1.6898 0.3924
2.6000 1.7031 0.3956
2.6200 1.7164 0.3932
2.6400 1.7298 0.3954
2.6600 1.7431 0.3921
2.6800 1.7565 0.3918
2.7000 1.7697 0.3901
2.7200 1.7830 0.3920
2.7400 1.7964 0.3890
2.7600 1.8097 0.3905
2.7800 1.8230 0.3927
2.8000 1.8364 0.3907
2.8200 1.8497 0.3789
2.8400 1.8631 0.3893
2.8600 1.8764 0.3910
2.8800 1.8898 0.3809
2.9000 1.9031 0.3878
2.9200 1.9165 0.3865
2.9400 1.9298 0.3801
2.9600 1.9431 0.3838
2.9800 1.9564 0.3845
3.0000 1.9698 0.3809
3.0200 1.9831 0.3790
3.0400 1.9964 0.3820
3.0600 2.0097 0.3736
3.0800 2.0230 0.3812
3.1000 2.0364 0.3846
3.1200 2.0497 0.3734
3.1400 2.0630 0.3751
3.1600 2.0764 0.3767
3.1800 2.0898 0.3723
3.2000 2.1031 0.3722
3.2200 2.1165 0.3799
3.2400 2.1298 0.3696
3.2600 2.1431 0.3705
3.2800 2.1565 0.3789
3.3000 2.1698 0.3659
3.3200 2.1831 0.3700
3.3400 2.1964 0.3785
3.3600 2.2097 0.3661
3.3800 2.2231 0.3688
3.4000 2.2364 0.3685
3.4200 2.2497 0.3664
3.4400 2.2630 0.3666
3.4600 2.2764 0.3672
3.4800 2.2897 0.3642
3.5000 2.3031 0.3691
3.5200 2.3164 0.3665
3.5400 2.3297 0.3632
3.5600 2.3431 0.3629
3.5800 2.3565 0.3662
3.6000 2.3698 0.3636
3.6200 2.3831 0.3613
3.6400 2.3965 0.3602
3.6600 2.4098 0.3627
3.6800 2.4232 0.3594
3.7000 2.4364 0.3588
3.7200 2.4498 0.3672
3.7400 2.4631 0.3591
3.7600 2.4764 0.3503
3.7800 2.4897 0.3626
3.8000 2.5030 0.3602
3.8200 2.5163 0.3539
3.8400 2.5297 0.3570
3.8600 2.5430 0.3547
3.8800 2.5564 0.3502
3.9000 2.5697 0.3547
3.9200 2.5831 0.3519
3.9400 2.5965 0.3513
3.9600 2.6098 0.3586
3.9800 2.6231 0.3474
4.0000 2.6364 0.3490
4.0200 2.6498 0.3531
4.0400 2.6631 0.3451
4.0600 2.6764 0.3519
4.0800 2.6897 0.3593
4.1000 2.7031 0.3416
4.1200 2.7164 0.3451
4.1400 2.7297 0.3507
4.1600 2.7431 0.3446
4.1800 2.7564 0.3467
4.2000 2.7697 0.3491
4.2200 2.7830 0.3414
4.2400 2.7964 0.3418
4.2600 2.8097 0.3478
4.2800 2.8231 0.3429
4.3000 2.8365 0.3361
4.3200 2.8498 0.3419
4.3400 2.8631 0.3415
4.3600 2.8765 0.3392
4.3800 2.8898 0.3471
4.4000 2.9031 0.3401
4.4200 2.9164 0.3366
4.4400 2.9297 0.3462
4.4600 2.9431 0.3372
4.4800 2.9564 0.3357
4.5000 2.9697 0.3442
4.5200 2.9830 0.3375
4.5400 2.9964 0.3317
4.5600 3.0097 0.3427
4.5800 3.0231 0.3315
4.6000 3.0364 0.3304
4.6200 3.0497 0.3427
4.6400 3.0631 0.3294
4.6600 3.0764 0.3359
4.6800 3.0897 0.3412
4.7000 3.1031 0.3253
4.7200 3.1164 0.3342
4.7400 3.1298 0.3370
4.7600 3.1432 0.3261
4.7800 3.1565 0.3310
4.8000 3.1698 0.3330
4.8200 3.1831 0.3248
4.8400 3.1965 0.3338
4.8600 3.2098 0.3333
4.8800 3.2230 0.3215
4.9000 3.2363 0.3321
4.9200 3.2497 0.3292
4.9400 3.2630 0.3238
4.9600 3.2763 0.3232
4.9800 3.2897 0.3317
5.0000 3.3031 0.3235
5.0200 3.3165 0.3193
5.0400 3.3298 0.3287
5.0600 3.3432 0.3193
5.0800 3.3565 0.3184
5.1000 3.3698 0.3238
5.1200 3.3831 0.3186
5.1400 3.3964 0.3190
5.1600 3.4097 0.3243
5.1800 3.4231 0.3172
5.2000 3.4364 0.3147
5.2200 3.4497 0.3275
5.2400 3.4630 0.3178
5.2600 3.4763 0.3156
5.2800 3.4897 0.3240
5.3000 3.5030 0.3162
5.3200 3.5164 0.3099
5.3400 3.5297 0.3257
5.3600 3.5431 0.3141
5.3800 3.5565 0.3051
5.4000 3.5698 0.3219
5.4200 3.5831 0.3109
5.4400 3.5965 0.3088
5.4600 3.6098 0.3235
5.4800 3.6231 0.3032
5.5000 3.6364 0.3100
5.5200 3.6497 0.3250
5.5400 3.6631 0.2982
5.5600 3.6764 0.3052
5.5800 3.6897 0.3241
5.6000 3.7030 0.2990
5.6200 3.7164 0.3001
5.6400 3.7297 0.3199
5.6600 3.7431 0.2912
5.6800 3.7564 0.3023
5.7000 3.7697 0.3143
5.7200 3.7831 0.3001
5.7400 3.7965 0.3052
5.7600 3.8098 0.3074
5.7800 3.8231 0.2939
5.8000 3.8364 0.3051
5.8200 3.8498 0.3031
5.8400 3.8631 0.2959
5.8600 3.8765 0.3056
5.8800 3.8898 0.2984
5.9000 3.9031 0.2929
5.9200 3.9165 0.3017
5.9400 3.9298 0.2939
5.9600 3.9430 0.2990
5.9800 3.9564 0.3030
6.0000 3.9697 0.2909
6.0200 3.9831 0.2955
6.0400 3.9964 0.3001
6.0600 4.0097 0.2892
6.0800 4.0231 0.2945
6.1000 4.0365 0.2937
6.1200 4.0498 0.2891
6.1400 4.0631 0.2964
6.1600 4.0765 0.2921
6.1800 4.0898 0.2938
6.2000 4.1031 0.2944
6.2200 4.1164 0.2890
6.2400 4.1297 0.3007
6.2600 4.1431 0.2967
6.2800 4.1564 0.2841
6.3000 4.1698 0.2977
6.3200 4.1830 0.2914
6.3400 4.1964 0.2833
6.3600 4.2097 0.3011
6.3800 4.2231 0.2909
6.4000 4.2364 0.2806
6.4200 4.2497 0.3009
6.4400 4.2631 0.2878
6.4600 4.2764 0.2806
6.4800 4.2898 0.2990
6.5000 4.3031 0.2838
6.5200 4.3164 0.2806
6.5400 4.3298 0.3001
6.5600 4.3432 0.2775
6.5800 4.3565 0.2834
6.6000 4.3698 0.2980
6.6200 4.3831 0.2814
6.6400 4.3964 0.2819
6.6600 4.4097 0.2941
6.6800 4.4231 0.2785
6.7000 4.4364 0.2779
6.7200 4.4497 0.2939
6.7400 4.4630 0.2759
6.7600 4.4764 0.2768
6.7800 4.4897 0.2881
6.8000 4.5031 0.2778
6.8200 4.5165 0.2774
6.8400 4.5298 0.2781
6.8600 4.5431 0.2794
6.8800 4.5564 0.2804
6.9000 4.5698 0.2758
6.9200 4.5831 0.2755
6.9400 4.5964 0.2737
6.9600 4.6097 0.2780
6.9800 4.6231 0.2746
7.0000 4.6364 0.2733
7.0200 4.6497 0.2758
7.0400 4.6630 0.2770
7.0600 4.6763 0.2655
7.0800 4.6897 0.2737
7.1000 4.7030 0.2750
7.1200 4.7164 0.2675
7.1400 4.7297 0.2706
7.1600 4.7431 0.2739
7.1800 4.7565 0.2629
7.2000 4.7699 0.2665
7.2200 4.7832 0.2730
7.2400 4.7965 0.2646
7.2600 4.8098 0.2644
7.2800 4.8232 0.2692
7.3000 4.8364 0.2603
7.3200 4.8497 0.2706
7.3400 4.8630 0.2674
7.3600 4.8764 0.2592
7.3800 4.8897 0.2653
7.4000 4.9030 0.2686
7.4200 4.9164 0.2555
7.4400 4.9298 0.2649
7.4600 4.9431 0.2641
7.4800 4.9565 0.2496
7.5000 4.9698 0.2631
7.5200 4.9831 0.2631
7.5400 4.9965 0.2517
7.5600 5.0098 0.2616
7.5800 5.0231 0.2589
7.6000 5.0364 0.2477
7.6200 5.0498 0.2635
7.6400 5.0631 0.2561
7.6600 5.0764 0.2511
7.6800 5.0897 0.2597
7.7000 5.1030 0.2540
7.7200 5.1164 0.2514
7.7400 5.1297 0.2548
7.7600 5.1430 0.2570
7.7800 5.1563 0.2551
7.8000 5.1697 0.2532
7.8200 5.1831 0.2555
7.8400 5.1964 0.2485
7.8600 5.2097 0.2581
7.8800 5.2231 0.2512
7.9000 5.2365 0.2472
7.9200 5.2498 0.2518
7.9400 5.2631 0.2484
7.9600 5.2764 0.2489
7.9800 5.2898 0.2494
8.0000 5.3032 0.2481
8.0200 5.3165 0.2464
8.0400 5.3298 0.2489
8.0600 5.3431 0.2468
8.0800 5.3564 0.2458
8.1000 5.3698 0.2503
8.1200 5.3831 0.2425
8.1400 5.3963 0.2496
8.1600 5.4097 0.2489
8.1800 5.4230 0.2426
8.2000 5.4364 0.2490
8.2200 5.4497 0.2439
8.2400 5.4631 0.2455
8.2600 5.4765 0.2474
8.2800 5.4898 0.2418
8.3000 5.5031 0.2442
8.3200 5.5164 0.2464
8.3400 5.5298 0.2439
8.3600 5.5431 0.2455
8.3800 5.5564 0.2403
8.4000 5.5697 0.2411
8.4200 5.5831 0.2470
8.4400 5.5964 0.2389
8.4600 5.6098 0.2377
8.4800 5.6231 0.2433
8.5000 5.6364 0.2377
8.5200 5.6497 0.2410
8.5400 5.6631 0.2393
8.5600 5.6764 0.2350
8.5800 5.6897 0.2414
8.6000 5.7031 0.2373
8.6200 5.7165 0.2328
8.6400 5.7298 0.2425
8.6600 5.7431 0.2319
8.6800 5.7564 0.2321
8.7000 5.7698 0.2397
8.7200 5.7832 0.2290
8.7400 5.7965 0.2347
8.7600 5.8098 0.2373
8.7800 5.8231 0.2286
8.8000 5.8364 0.2358
8.8200 5.8497 0.2312
8.8400 5.8630 0.2249
8.8600 5.8763 0.2381
8.8800 5.8897 0.2308
8.9000 5.9030 0.2246
8.9200 5.9164 0.2380
8.9400 5.9297 0.2272
8.9600 5.9431 0.2233
8.9800 5.9565 0.2322
9.0000 5.9698 0.2212
9.0200 5.9831 0.2275
9.0400 5.9964 0.2332
9.0600 6.0098 0.2227
9.0800 6.0231 0.2258
9.1000 6.0365 0.2281
9.1200 6.0497 0.2189
9.1400 6.0630 0.2233
9.1600 6.0764 0.2277
9.1800 6.0897 0.2197
9.2000 6.1030 0.2182
9.2200 6.1163 0.2264
9.2400 6.1297 0.2194
9.2600 6.1430 0.2201
9.2800 6.1564 0.2195
9.3000 6.1697 0.2175
9.3200 6.1831 0.2169
9.3400 6.1965 0.2189
9.3600 6.2098 0.2171
9.3800 6.2231 0.2186
9.4000 6.2365 0.2194
9.4200 6.2498 0.2155
9.4400 6.2631 0.2135
9.4600 6.2764 0.2223
9.4800 6.2897 0.2155
9.5000 6.3030 0.2153
9.5200 6.3164 0.2177
9.5400 6.3297 0.2177
9.5600 6.3430 0.2060
9.5800 6.3564 0.2200
9.6000 6.3697 0.2147
9.6200 6.3831 0.2102
9.6400 6.3964 0.2185
9.6600 6.4098 0.2134
9.6800 6.4231 0.2122
9.7000 6.4365 0.2166
9.7200 6.4498 0.2129
9.7400 6.4631 0.2039
9.7600 6.4764 0.2201
9.7800 6.4897 0.2115
9.8000 6.5031 0.2054
9.8200 6.5164 0.2210
9.8400 6.5298 0.2079
9.8600 6.5431 0.2034
9.8800 6.5565 0.2163
9.9000 6.5698 0.2081
9.9200 6.5831 0.2073
9.9400 6.5964 0.2164
9.9600 6.6097 0.2046
9.9800 6.6231 0.1979
10.0000 6.6364 0.2218
10.0200 6.6497 0.2001
10.0400 6.6630 0.1975
10.0600 6.6764 0.2170
10.0800 6.6898 0.1953
10.1000 6.7031 0.1958
10.1200 6.7164 0.2125
10.1400 6.7298 0.1966
10.1600 6.7431 0.1986
10.1800 6.7565 0.2025
10.2000 6.7698 0.1958
10.2200 6.7831 0.1980
10.2400 6.7964 0.2070
10.2600 6.8098 0.1889
10.2800 6.8231 0.1926
10.3000 6.8364 0.2044
10.3200 6.8497 0.1912
10.3400 6.8630 0.1903
10.3600 6.8764 0.2000
10.3800 6.8897 0.1939
10.4000 6.9030 0.1916
10.4200 6.9164 0.1998
10.4400 6.9298 0.1917
10.4600 6.9432 0.1885
10.4800 6.9565 0.2008
10.5000 6.9698 0.1966
10.5200 6.9831 0.1828
10.5400 6.9965 0.1936
10.5600 7.0097 0.1959
10.5800 7.0231 0.1852
10.6000 7.0364 0.1962
10.6200 7.0497 0.1941
10.6400 7.0631 0.1807
10.6600 7.0764 0.1973
10.6800 7.0897 0.1909
10.7000 7.1031 0.1820
10.7200 7.1164 0.1955
10.7400 7.1297 0.1838
10.7600 7.1431 0.1812
10.7800 7.1564 0.1944
10.8000 7.1698 0.1864
10.8200 7.1831 0.1814
10.8400 7.1964 0.1983
10.8600 7.2098 0.1847
10.8800 7.2231 0.1770
10.9000 7.2365 0.1923
10.9200 7.2498 0.1859
10.9400 7.2631 0.1812
10.9600 7.2764 0.1930
10.9800 7.2898 0.1784
11.0000 7.3031 0.1820
11.0200 7.3164 0.1921
11.0400 7.3297 0.1799
11.0600 7.3430 0.1825
11.0800 7.3564 0.1884
11.1000 7.3697 0.1791
11.1200 7.3831 0.1770
11.1400 7.3965 0.1863
11.1600 7.4098 0.1770
11.1800 7.4232 0.1781
11.2000 7.4364 0.1842
11.2200 7.4498 0.1781
11.2400 7.4631 0.1758
11.2600 7.4765 0.1802
11.2800 7.4898 0.1766
11.3000 7.5031 0.1762
11.3200 7.5164 0.1797
11.3400 7.5298 0.1770
11.3600 7.5431 0.1730
11.3800 7.5564 0.1817
11.4000 7.5697 0.1741
11.4200 7.5831 0.1725
11.4400 7.5964 0.1784
11.4600 7.6097 0.1696
11.4800 7.6231 0.1740
11.5000 7.6364 0.1760
11.5200 7.6498 0.1696
11.5400 7.6631 0.1663
11.5600 7.6765 0.1759
11.5800 7.6898 0.1695
11.6000 7.7031 0.1668
11.6200 7.7165 0.1727
11.6400 7.7298 0.1692
11.6600 7.7431 0.1700
11.6800 7.7564 0.1717
11.7000 7.7697 0.1689
11.7200 7.7831 0.1646
11.7400 7.7964 0.1674
11.7600 7.8097 0.1709
11.7800 7.8230 0.1590
11.8000 7.8364 0.1683
11.8200 7.8497 0.1661
11.8400 7.8631 0.1567
11.8600 7.8764 0.1704
11.8800 7.8898 0.1590
11.9000 7.9031 0.1545
11.9200 7.9164 0.1687
11.9400 7.9297 0.1604
11.9600 7.9431 0.1557
11.9800 7.9565 0.1665
12.0000 7.9698 0.1587
12.0200 7.9831 0.1552
12.0400 7.9964 0.1657
12.0600 8.0098 0.1554
12.0800 8.0231 0.1549
12.1000 8.0364 0.1625
12.1200 8.0496 0.1532
12.1400 8.0630 0.1588
12.1600 8.0763 0.1602
12.1800 8.0897 0.1550
12.2000 8.1030 0.1593
12.2200 8.1164 0.1573
12.2400 8.1298 0.1508
12.2600 8.1432 0.1518
12.2800 8.1565 0.1560
12.3000 8.1698 0.1541
12.3200 8.1832 0.1559
12.3400 8.1965 0.1525
12.3600 8.2098 0.1472
12.3800 8.2231 0.1566
12.4000 8.2364 0.1540
12.4200 8.2497 0.1482
12.4400 8.2631 0.1514
12.4600 8.2764 0.1508
12.4800 8.2897 0.1444
12.5000 8.3030 0.1552
12.5200 8.3164 0.1527
12.5400 8.3297 0.1439
12.5600 8.3431 0.1503
12.5800 8.3564 0.1503
12.6000 8.3698 0.1450
12.6200 8.3832 0.1529
12.6400 8.3965 0.1452
12.6600 8.4098 0.1463
12.6800 8.4231 0.1513
12.7000 8.4365 0.1406
12.7200 8.4498 0.1479
12.7400 8.4631 0.1492
12.7600 8.4764 0.1387
12.7800 8.4897 0.1449
12.8000 8.5031 0.1442
12.8200 8.5163 0.1414
12.8400 8.5297 0.1453
12.8600 8.5430 0.1452
12.8800 8.5564 0.1374
12.9000 8.5698 0.1439
12.9200 8.5831 0.1417
12.9400 8.5964 0.1370
12.9600 8.6098 0.1393
12.9800 8.6232 0.1415
13.0000 8.6365 0.1367
13.0200 8.6498 0.1394
13.0400 8.6631 0.1459
13.0600 8.6765 0.1339
13.0800 8.6898 0.1379
13.1000 8.7031 0.1391
13.1200 8.7164 0.1310
13.1400 8.7298 0.1401
13.1600 8.7431 0.1413
13.1800 8.7564 0.1314
13.2000 8.7697 0.1416
13.2200 8.7830 0.1389
13.2400 8.7964 0.1298
13.2600 8.8097 0.1421
13.2800 8.8231 0.1392
13.3000 8.8364 0.1297
13.3200 8.8498 0.1403
13.3400 8.8632 0.1310
13.3600 8.8765 0.1337
13.3800 8.8898 0.1410
13.4000 8.9031 0.1337
13.4200 8.9165 0.1256
13.4400 8.9298 0.1398
13.4600 8.9431 0.1338
13.4800 8.9564 0.1309
13.5000 8.9697 0.1351
13.5200 8.9831 0.1291
13.5400 8.9964 0.1302
13.5600 9.0097 0.1348
13.5800 9.0231 0.1328
13.6000 9.0364 0.1320
13.6200 9.0497 0.1277
13.6400 9.0630 0.1316
13.6600 9.0764 0.1242
13.6800 9.0898 0.1274
13.7000 9.1031 0.1298
13.7200 9.1165 0.1241
13.7400 9.1298 0.1287
13.7600 9.1431 0.1289
13.7800 9.1565 0.1212
13.8000 9.1698 0.1264
13.8200 9.1831 0.1290
13.8400 9.1964 0.1222
13.8600 9.2097 0.1285
13.8800 9.2231 0.1245
13.9000 9.2364 0.1200
13.9200 9.2497 0.1271
13.9400 9.2630 0.1286
13.9600 9.2764 0.1181
13.9800 9.2897 0.1223
14.0000 9.3031 0.1263
14.0200 9.3164 0.1186
14.0400 9.3297 0.1248
14.0600 9.3431 0.1227
14.0800 9.3565 0.1153
14.1000 9.3698 0.1245
14.1200 9.3831 0.1226
14.1400 9.3965 0.1138
14.1600 9.4098 0.1202
14.1800 9.4231 0.1236
14.2000 9.4364 0.1125
14.2200 9.4498 0.1168
14.2400 9.4631 0.1192
14.2600 9.4764 0.1106
14.2800 9.4897 0.1187
14.3000 9.5030 0.1184
14.3200 9.5163 0.1067
14.3400 9.5297 0.1181
14.3600 9.5430 0.1138
14.3800 9.5564 0.1094
14.4000 9.5698 0.1157
14.4200 9.5832 0.1101
14.4400 9.5965 0.1084
14.4600 9.6098 0.1097
14.4800 9.6232 0.1140
14.5000 9.6365 0.1106
14.5200 9.6498 0.1106
14.5400 9.6630 0.1112
14.5600 9.6763 0.1081
14.5800 9.6897 0.1092
14.6000 9.7030 0.1118
14.6200 9.7164 0.1095
14.6400 9.7297 0.1096
14.6600 9.7431 0.1102
14.6800 9.7564 0.1051
14.7000 9.7698 0.0985
14.7200 9.7831 0.1089
14.7400 9.7964 0.1056
14.7600 9.8098 0.0959
14.7800 9.8232 0.1125
14.8000 9.8365 0.1015
14.8200 9.8498 0.0971
14.8400 9.8631 0.1115
14.8600 9.8765 0.0997
14.8800 9.8898 0.0984
14.9000 9.9031 0.1119
14.9200 9.9164 0.0977
14.9400 9.9297 0.0987
14.9600 9.9431 0.1134
14.9800 9.9564 0.0931
15.0000 9.9697 0.0979
15.0200 9.9830 0.1100
15.0400 9.9964 0.0972
15.0600 10.0097 0.0965
15.0800 10.0231 0.1070
15.1000 10.0364 0.0940
15.1200 10.0498 0.0986
15.1400 10.0632 0.1067
15.1600 10.0765 0.0895
15.1800 10.0898 0.0977
15.2000 10.1031 0.1077
15.2200 10.1165 0.0906
15.2400 10.1298 0.0983
15.2600 10.1431 0.1034
15.2800 10.1564 0.0901
15.3000 10.1698 0.0996
15.3200 10.1831 0.0974
15.3400 10.1964 0.0920
15.3600 10.2097 0.1025
15.3800 10.2230 0.1012
15.4000 10.2364 0.0902
15.4200 10.2497 0.0945
15.4400 10.2631 0.1006
15.4600 10.2764 0.0919
15.4800 10.2898 0.0918
15.5000 10.3031 0.0974
15.5200 10.3165 0.0916
15.5400 10.3298 0.0914
15.5600 10.3431 0.0984
15.5800 10.3565 0.0937
15.6000 10.3698 0.0883
15.6200 10.3831 0.0948
15.6400 10.3964 0.0886
15.6600 10.4097 0.0906
15.6800 10.4231 0.0947
15.7000 10.4364 0.0837
15.7200 10.4497 0.0887
15.7400 10.4630 0.0937
15.7600 10.4764 0.0842
15.7800 10.4897 0.0882
15.8000 10.5030 0.0944
15.8200 10.5164 0.0923
15.8400 10.5297 0.0818
15.8600 10.5431 0.0915
15.8800 10.5564 0.0885
15.9000 10.5698 0.0856
15.9200 10.5831 0.0963
15.9400 10.5965 0.0814
15.9600 10.6098 0.0782
15.9800 10.6231 0.0905
16.0000 10.6364 0.0836
16.0200 10.6497 0.0796
16.0400 10.6631 0.0936
16.0600 10.6764 0.0839
16.0800 10.6897 0.0761
16.1000 10.7030 0.0895
16.1200 10.7164 0.0795
16.1400 10.7297 0.0758
16.1600 10.7430 0.0904
16.1800 10.7564 0.0761
16.2000 10.7698 0.0811
16.2200 10.7832 0.0836
16.2400 10.7965 0.0732
16.2600 10.8098 0.0780
16.2800 10.8231 0.0856
16.3000 10.8364 0.0695
16.3200 10.8498 0.0793
16.3400 10.8631 0.0841
16.3600 10.8764 0.0688
16.3800 10.8897 0.0809
16.4000 10.9031 0.0791
16.4200 10.9164 0.0637
16.4400 10.9297 0.0825
16.4600 10.9430 0.0782
16.4800 10.9564 0.0680
16.5000 10.9697 0.0788
16.5200 10.9830 0.0766
16.5400 10.9964 0.0702
16.5600 11.0097 0.0729
16.5800 11.0231 0.0752
16.6000 11.0365 0.0713
16.6200 11.0498 0.0686
16.6400 11.0631 0.0779
16.6600 11.0765 0.0709
16.6800 11.0898 0.0713
16.7000 11.1031 0.0749
16.7200 11.1164 0.0700
16.7400 11.1297 0.0689
16.7600 11.1430 0.0754
16.7800 11.1564 0.0675
16.8000 11.1697 0.0663
16.8200 11.1831 0.0760
16.8400 11.1964 0.0664
16.8600 11.2098 0.0646
16.8800 11.2231 0.0709
16.9000 11.2364 0.0624
16.9200 11.2498 0.0646
16.9400 11.2631 0.0688
16.9600 11.2764 0.0625
16.9800 11.2897 0.0652
17.0000 11.3030 0.0682
17.0200 11.3164 0.0652
17.0400 11.3298 0.0606
17.0600 11.3431 0.0643
17.0800 11.3564 0.0631
17.1000 11.3698 0.0672
17.1200 11.3831 0.0614
17.1400 11.3965 0.0554
17.1600 11.4098 0.0646
17.1800 11.4231 0.0625
17.2000 11.4364 0.0590
17.2200 11.4497 0.0644
17.2400 11.4631 0.0597
17.2600 11.4764 0.0537
17.2800 11.4897 0.0630
17.3000 11.5031 0.0632
17.3200 11.5164 0.0544
17.3400 11.5298 0.0599
17.3600 11.5431 0.0566
17.3800 11.5564 0.0548
17.4000 11.5698 0.0595
17.4200 11.5831 0.0534
17.4400 11.5964 0.0562
17.4600 11.6098 0.0614
17.4800 11.6231 0.0478
17.5000 11.6364 0.0541
17.5200 11.6497 0.0666
17.5400 11.6630 0.0480
17.5600 11.6764 0.0535
17.5800 11.6897 0.0615
17.6000 11.7030 0.0459
17.6200 11.7164 0.0561
17.6400 11.7297 0.0596
17.6600 11.7431 0.0457
17.6800 11.7565 0.0599
17.7000 11.7698 0.0521
17.7200 11.7831 0.0442
17.7400 11.7965 0.0603
17.7600 11.8098 0.0543
17.7800 11.8231 0.0467
17.8000 11.8364 0.0607
17.8200 11.8497 0.0524
17.8400 11.8631 0.0456
17.8600 11.8764 0.0580
17.8800 11.8897 0.0529
17.9000 11.9030 0.0435
17.9200 11.9164 0.0584
17.9400 11.9298 0.0498
17.9600 11.9431 0.0445
17.9800 11.9564 0.0577
18.0000 11.9697 0.0523
18.0200 11.9831 0.0413
18.0400 11.9964 0.0498
18.0600 12.0098 0.0492
18.0800 12.0231 0.0409
18.1000 12.0364 0.0483
18.1200 12.0498 0.0531
18.1400 12.0631 0.0380
18.1600 12.0764 0.0472
18.1800 12.0897 0.0504
18.2000 12.1031 0.0349
18.2200 12.1164 0.0472
18.2400 12.1297 0.0460
18.2600 12.1430 0.0369
18.2800 12.1564 0.0473
18.3000 12.1697 0.0410
18.3200 12.1831 0.0350
18.3400 12.1964 0.0486
18.3600 12.2097 0.0403
18.3800 12.2231 0.0333
18.4000 12.2365 0.0485
18.4200 12.2498 0.0380
18.4400 12.2631 0.0327
18.4600 12.2764 0.0478
18.4800 12.2898 0.0373
18.5000 12.3031 0.0332
18.5200 12.3164 0.0435
18.5400 12.3297 0.0381
18.5600 12.3431 0.0320
18.5800 12.3564 0.0372
18.6000 12.3698 0.0390
18.6200 12.3831 0.0343
18.6400 12.3964 0.0364
18.6600 12.4097 0.0379
18.6800 12.4231 0.0282
18.7000 12.4364 0.0365
18.7200 12.4497 0.0369
18.7400 12.4631 0.0297
18.7600 12.4765 0.0334
18.7800 12.4898 0.0371
18.8000 12.5031 0.0290
18.8200 12.5164 0.0352
18.8400 12.5298 0.0316
18.8600 12.5431 0.0243
18.8800 12.5564 0.0343
18.9000 12.5697 0.0322
18.9200 12.5830 0.0278
18.9400 12.5964 0.0365
18.9600 12.6097 0.0331
18.9800 12.6230 0.0230
19.0000 12.6364 0.0339
19.0200 12.6497 0.0287
19.0400 12.6631 0.0213
19.0600 12.6764 0.0347
19.0800 12.6897 0.0259
19.1000 12.7031 0.0236
19.1200 12.7164 0.0341
19.1400 12.7298 0.0204
19.1600 12.7431 0.0296
19.1800 12.7564 0.0317
19.2000 12.7698 0.0251
19.2200 12.7831 0.0241
19.2400 12.7965 0.0291
19.2600 12.8098 0.0263
19.2800 12.8231 0.0233
19.3000 12.8365 0.0259
19.3200 12.8498 0.0274
19.3400 12.8631 0.0245
19.3600 12.8763 0.0243
19.3800 12.8897 0.0299
19.4000 12.9030 0.0251
19.4200 12.9163 0.0237
19.4400 12.9297 0.0307
19.4600 12.9431 0.0167
19.4800 12.9565 0.0260
19.5000 12.9698 0.0296
19.5200 12.9831 0.0143
19.5400 12.9965 0.0238
19.5600 13.0099 0.0299
19.5800 13.0232 0.0143
19.6000 13.0365 0.0236
19.6200 13.0497 0.0336
19.6400 13.0631 0.0163
19.6600 13.0764 0.0217
19.6800 13.0897 0.0312
19.7000 13.1030 0.0132
19.7200 13.1163 0.0239
19.7400 13.1297 0.0238
19.7600 13.1431 0.0105
19.7800 13.1564 0.0242
19.8000 13.1697 0.0236
19.8200 13.1831 0.0101
19.8400 13.1965 0.0232
19.8600 13.2098 0.0193
19.8800 13.2231 0.0118
19.9000 13.2364 0.0250
19.9200 13.2498 0.0130
19.9400 13.2632 0.0126
19.9600 13.2765 0.0215
19.9800 13.2898 0.0114
20.0000 13.3031 0.0154
20.0200 13.3164 0.0163
20.0400 13.3297 0.0099
20.0600 13.3430 0.0130
20.0800 13.3564 0.0142
20.1000 13.3697 0.0099
20.1200 13.3831 0.0086
20.1400 13.3964 0.0142
20.1600 13.4097 0.0090
20.1800 13.4231 0.0106
20.2000 13.4365 0.0096
20.2200 13.4498 0.0112
20.2400 13.4631 0.0101
20.2600 13.4764 0.0045
20.2800 13.4898 0.0104
20.3000 13.5031 0.0076
20.3200 13.5164 0.0036
20.3400 13.5298 0.0125
20.3600 13.5431 0.0051
20.3800 13.5564 0.0075
20.4000 13.5698 0.0094
20.4200 13.5830 0.0029
20.4400 13.5963 0.0078
20.4600 13.6097 0.0100
20.4800 13.6231 0.0008
20.5000 13.6364 0.0008
20.5200 13.6497 0.0123
20.5400 13.6631 0.0007
20.5600 13.6765 0.0037
20.5800 13.6898 0.0080
20.6000 13.7031 -0.0014
20.6200 13.7165 0.0072
20.6400 13.7298 0.0068
20.6600 13.7431 -0.0006
20.6800 13.7564 0.0092
20.7000 13.7697 0.0030
20.7200 13.7831 0.0011
20.7400 13.7964 0.0030
20.7600 13.8098 0.0025
20.7800 13.8231 0.0009
20.8000 13.8364 0.0084
20.8200 13.8497 -0.0003
20.8400 13.8631 0.0020
20.8600 13.8764 0.0049
20.8800 13.8897 -0.0037
20.9000 13.9031 0.0034
20.9200 13.9165 0.0019
20.9400 13.9298 -0.0079
20.9600 13.9431 0.0019
20.9800 13.9565 -0.0002
21.0000 13.9698 -0.0046
21.0200 13.9832 0.0000
21.0400 13.9965 -0.0014
21.0600 14.0098 -0.0038
21.0800 14.0231 0.0002
21.1000 14.0364 -0.0014
21.1200 14.0497 -0.0048
21.1400 14.0631 -0.0028
21.1600 14.0764 -0.0042
21.1800 14.0897 -0.0091
21.2000 14.1030 -0.0028
21.2200 14.1164 -0.0049
21.2400 14.1297 -0.0082
21.2600 14.1431 -0.0057
21.2800 14.1565 -0.0095
21.3000 14.1698 -0.0062
21.3200 14.1831 -0.0056
21.3400 14.1964 -0.0118
21.3600 14.2098 -0.0063
21.3800 14.2231 -0.0048
21.4000 14.2365 -0.0126
21.4200 14.2498 -0.0101
21.4400 14.2631 -0.0010
21.4600 14.2764 -0.0172
21.4800 14.2898 -0.0106
21.5000 14.3030 -0.0034
21.5200 14.3163 -0.0165
21.5400 14.3297 -0.0025
21.5600 14.3430 -0.0108
21.5800 14.3563 -0.0156
21.6000 14.3697 -0.0077
21.6200 14.3831 -0.0099
21.6400 14.3965 -0.0160
21.6600 14.4098 -0.0063
21.6800 14.4232 -0.0153
21.7000 14.4365 -0.0153
21.7200 14.4498 -0.0104
21.7400 14.4632 -0.0129
21.7600 14.4764 -0.0137
21.7800 14.4897 -0.0153
21.8000 14.5030 -0.0151
21.8200 14.5164 -0.0151
21.8400 14.5297 -0.0181
21.8600 14.5430 -0.0163
21.8800 14.5564 -0.0165
21.9000 14.5697 -0.0197
21.9200 14.5831 -0.0161
21.9400 14.5964 -0.0152
21.9600 14.6098 -0.0227
21.9800 14.6231 -0.0152
22.0000 14.6365 -0.0181
22.0200 14.6498 -0.0233
22.0400 14.6631 -0.0194
22.0600 14.6764 -0.0158
22.0800 14.6898 -0.0270
22.1000 14.7031 -0.0164
22.1200 14.7164 -0.0206
22.1400 14.7297 -0.0298
22.1600 14.7431 -0.0145
22.1800 14.7564 -0.0218
22.2000 14.7697 -0.0263
22.2200 14.7831 -0.0163
22.2400 14.7964 -0.0210
22.2600 14.8097 -0.0304
22.2800 14.8231 -0.0209
22.3000 14.8364 -0.0212
22.3200 14.8497 -0.0344
22.3400 14.8631 -0.0196
22.3600 14.8765 -0.0223
22.3800 14.8898 -0.0401
22.4000 14.9031 -0.0137
22.4200 14.9165 -0.0248
22.4400 14.9298 -0.0342
22.4600 14.9432 -0.0204
22.4800 14.9565 -0.0309
22.5000 14.9698 -0.0322
22.5200 14.9831 -0.0136
22.5400 14.9964 -0.0342
22.5600 15.0097 -0.0369
22.5800 15.0230 -0.0153
22.6000 15.0363 -0.0307
22.6200 15.0497 -0.0372
22.6400 15.0631 -0.0173
22.6600 15.0764 -0.0361
22.6800 15.0897 -0.0365
22.7000 15.1031 -0.0270
22.7200 15.1164 -0.0331
22.7400 15.1298 -0.0318
22.7600 15.1431 -0.0265
22.7800 15.1565 -0.0368
22.8000 15.1698 -0.0317
22.8200 15.1831 -0.0259
22.8400 15.1964 -0.0329
22.8600 15.2097 -0.0360
22.8800 15.2231 -0.0279
22.9000 15.2364 -0.0345
22.9200 15.2498 -0.0393
22.9400 15.2631 -0.0279
22.9600 15.2764 -0.0284
22.9800 15.2897 -0.0414
23.0000 15.3030 -0.0313
23.0200 15.3164 -0.0314
23.0400 15.3297 -0.0434
23.0600 15.3431 -0.0331
23.0800 15.3564 -0.0374
23.1000 15.3698 -0.0429
23.1200 15.3831 -0.0312
23.1400 15.3964 -0.0336
23.1600 15.4098 -0.0425
23.1800 15.4232 -0.0313
23.2000 15.4365 -0.0395
23.2200 15.4498 -0.0482
23.2400 15.4631 -0.0324
23.2600 15.4764 -0.0394
23.2800 15.4897 -0.0493
23.3000 15.5030 -0.0331
23.3200 15.5163 -0.0442
23.3400 15.5297 -0.0460
23.3600 15.5430 -0.0363
23.3800 15.5564 -0.0474
23.4000 15.5697 -0.0482
23.4200 15.5831 -0.0372
23.4400 15.5965 -0.0523
23.4600 15.6098 -0.0477
23.4800 15.6232 -0.0388
23.5000 15.6364 -0.0491
23.5200 15.6498 -0.0462
23.5400 15.6631 -0.0434
23.5600 15.6765 -0.0519
23.5800 15.6898 -0.0476
23.6000 15.7031 -0.0414
23.6200 15.7164 -0.0497
23.6400 15.7298 -0.0527
23.6600 15.7431 -0.0432
23.6800 15.7564 -0.0504
23.7000 15.7697 -0.0514
23.7200 15.7830 -0.0433
23.7400 15.7964 -0.0512
23.7600 15.8097 -0.0506
23.7800 15.8230 -0.0496
23.8000 15.8364 -0.0479
23.8200 15.8498 -0.0544
23.8400 15.8632 -0.0511
23.8600 15.8765 -0.0522
23.8800 15.8898 -0.0527
23.9000 15.9031 -0.0510
23.9200 15.9164 -0.0546
23.9400 15.9297 -0.0529
23.9600 15.9430 -0.0507
23.9800 15.9564 -0.0576
24.0000 15.9697 -0.0558
24.0200 15.9830 -0.0513
24.0400 15.9964 -0.0579
24.0600 16.0097 -0.0559
24.0800 16.0231 -0.0549
24.1000 16.0364 -0.0594
24.1200 16.0498 -0.0570
24.1400 16.0631 -0.0579
24.1600 16.0764 -0.0597
24.1800 16.0898 -0.0620
24.2000 16.1031 -0.0586
24.2200 16.1164 -0.0631
24.2400 16.1297 -0.0560
24.2600 16.1431 -0.0559
24.2800 16.1565 -0.0651
24.3000 16.1698 -0.0555
24.3200 16.1831 -0.0581
24.3400 16.1964 -0.0652
24.3600 16.2098 -0.0574
24.3800 16.2231 -0.0612
24.4000 16.2364 -0.0692
24.4200 16.2497 -0.0547
24.4400 16.2631 -0.0668
24.4600 16.2764 -0.0669
24.4800 16.2897 -0.0570
24.5000 16.3030 -0.0654
24.5200 16.3164 -0.0699
24.5400 16.3298 -0.0626
24.5600 16.3431 -0.0681
24.5800 16.3564 -0.0673
24.6000 16.3698 -0.0623
24.6200 16.3831 -0.0728
24.6400 16.3965 -0.0717
24.6600 16.4098 -0.0613
24.6800 16.4231 -0.0705
24.7000 16.4364 -0.0691
24.7200 16.4498 -0.0674
24.7400 16.4631 -0.0763
24.7600 16.4764 -0.0708
24.7800 16.4897 -0.0643
24.8000 16.5030 -0.0784
24.8200 16.5164 -0.0723
24.8400 16.5297 -0.0665
24.8600 16.5431 -0.0793
24.8800 16.5564 -0.0726
24.9000 16.5698 -0.0673
24.9200 16.5832 -0.0797
24.9400 16.5965 -0.0767
24.9600 16.6098 -0.0701
24.9800 16.6232 -0.0773
25.0000 16.6365 -0.0801
25.0200 16.6498 -0.0677
25.0400 16.6631 -0.0772
25.0600 16.6764 -0.0791
25.0800 16.6897 -0.0686
25.1000 16.7031 -0.0820
25.1200 16.7164 -0.0783
25.1400 16.7297 -0.0682
25.1600 16.7430 -0.0817
25.1800 16.7564 -0.0770
25.2000 16.7697 -0.0735
25.2200 16.7830 -0.0866
25.2400 16.7964 -0.0780
25.2600 16.8098 -0.0797
25.2800 16.8231 -0.0898
25.3000 16.8365 -0.0775
25.3200 16.8498 -0.0761
25.3400 16.8631 -0.0900
25.3600 16.8765 -0.0742
25.3800 16.8898 -0.0773
25.4000 16.9031 -0.0888
25.4200 16.9164 -0.0796
25.4400 16.9298 -0.0782
25.4600 16.9431 -0.0900
25.4800 16.9564 -0.0781
25.5000 16.9697 -0.0816
25.5200 16.9830 -0.0860
25.5400 16.9963 -0.0785
25.5600 17.0097 -0.0883
25.5800 17.0230 -0.0885
25.6000 17.0364 -0.0759
25.6200 17.0498 -0.0892
25.6400 17.0632 -0.0934
25.6600 17.0765 -0.0810
25.6800 17.0898 -0.0869
25.7000 17.1031 -0.0958
25.7200 17.1165 -0.0824
25.7400 17.1298 -0.0840
25.7600 17.1431 -0.0957
25.7800 17.1564 -0.0817
25.8000 17.1698 -0.0823
25.8200 17.1831 -0.1004
25.8400 17.1964 -0.0856
25.8600 17.2097 -0.0841
25.8800 17.2231 -0.0982
25.9000 17.2364 -0.0875
25.9200 17.2497 -0.0879
25.9400 17.2631 -0.1049
25.9600 17.2764 -0.0848
25.9800 17.2898 -0.0861
26.0000 17.3032 -0.1049
26.0200 17.3165 -0.0875
26.0400 17.3298 -0.0885
26.0600 17.3431 -0.1030
26.0800 17.3565 -0.0914
26.1000 17.3698 -0.0910
26.1200 17.3831 -0.1014
26.1400 17.3964 -0.0917
26.1600 17.4097 -0.0967
26.1800 17.4231 -0.1047
26.2000 17.4364 -0.0963
26.2200 17.4497 -0.0934
26.2400 17.4631 -0.1061
26.2600 17.4764 -0.1048
26.2800 17.4898 -0.0943
26.3000 17.5031 -0.1030
26.3200 17.5164 -0.1011
26.3400 17.5298 -0.0996
26.3600 17.5431 -0.1096
26.3800 17.5564 -0.1042
26.4000 17.5697 -0.1029
26.4200 17.5831 -0.1044
26.4400 17.5965 -0.1109
26.4600 17.6098 -0.1057
26.4800 17.6231 -0.1074
26.5000 17.6365 -0.1086
26.5200 17.6498 -0.1031
26.5400 17.6631 -0.1066
26.5600 17.6764 -0.1125
26.5800 17.6897 -0.1075
26.6000 17.7030 -0.1080
26.6200 17.7163 -0.1148
26.6400 17.7297 -0.1068
26.6600 17.7430 -0.1109
26.6800 17.7564 -0.1178
26.7000 17.7698 -0.1101
26.7200 17.7832 -0.1149
26.7400 17.7965 -0.1167
26.7600 17.8098 -0.1078
26.7800 17.8232 -0.1120
26.8000 17.8365 -0.1209
26.8200 17.8498 -0.1087
26.8400 17.8631 -0.1179
26.8600 17.8764 -0.1187
26.8800 17.8897 -0.1048
26.9000 17.9031 -0.1219
26.9200 17.9164 -0.1206
26.9400 17.9297 -0.1045
26.9600 17.9430 -0.1232
26.9800 17.9563 -0.1244
27.0000 17.9697 -0.1070
27.0200 17.9830 -0.1256
27.0400 17.9964 -0.1217
27.0600 18.0098 -0.1122
27.0800 18.0232 -0.1265
27.1000 18.0365 -0.1219
27.1200 18.0498 -0.1130
27.1400 18.0631 -0.1274
27.1600 18.0765 -0.1181
27.1800 18.0898 -0.1167
27.2000 18.1031 -0.1280
27.2200 18.1164 -0.1194
27.2400 18.1298 -0.1187
27.2600 18.1431 -0.1306
27.2800 18.1564 -0.1263
27.3000 18.1697 -0.1179
27.3200 18.1830 -0.1300
27.3400 18.1964 -0.1283
27.3600 18.2098 -0.1204
27.3800 18.2231 -0.1326
27.4000 18.2364 -0.1258
27.4200 18.2498 -0.1222
27.4400 18.2631 -0.1353
27.4600 18.2765 -0.1258
27.4800 18.2898 -0.1257
27.5000 18.3031 -0.1336
27.5200 18.3165 -0.1264
27.5400 18.3298 -0.1236
27.5600 18.3431 -0.1374
27.5800 18.3564 -0.1240
27.6000 18.3698 -0.1249
27.6200 18.3831 -0.1373
27.6400 18.3964 -0.1270
27.6600 18.4097 -0.1259
27.6800 18.4230 -0.1337
27.7000 18.4364 -0.1280
27.7200 18.4497 -0.1285
27.7400 18.4631 -0.1352
27.7600 18.4764 -0.1313
27.7800 18.4898 -0.1296
27.8000 18.5032 -0.1378
27.8200 18.5165 -0.1317
27.8400 18.5298 -0.1300
27.8600 18.5431 -0.1357
27.8800 18.5565 -0.1377
27.9000 18.5698 -0.1338
27.9200 18.5831 -0.1380
27.9400 18.5964 -0.1370
27.9600 18.6097 -0.1370
27.9800 18.6231 -0.1416
28.0000 18.6364 -0.1413
28.0200 18.6497 -0.1356
28.0400 18.6631 -0.1397
28.0600 18.6764 -0.1435
28.0800 18.6897 -0.1392
28.1000 18.7030 -0.1442
28.1200 18.7164 -0.1463
28.1400 18.7297 -0.1430
28.1600 18.7431 -0.1442
28.1800 18.7565 -0.1458
28.2000 18.7698 -0.1470
28.2200 18.7831 -0.1476
28.2400 18.7965 -0.1478
28.2600 18.8098 -0.1471
28.2800 18.8231 -0.1480
28.3000 18.8364 -0.1477
28.3200 18.8498 -0.1470
28.3400 18.8631 -0.1547
28.3600 18.8764 -0.1529
28.3800 18.8897 -0.1472
28.4000 18.9030 -0.1531
28.4200 18.9164 -0.1598
28.4400 18.9297 -0.1469
28.4600 18.9431 -0.1525
28.4800 18.9564 -0.1623
28.5000 18.9698 -0.1511
28.5200 18.9831 -0.1554
28.5400 18.9965 -0.1549
28.5600 19.0098 -0.1536
28.5800 19.0231 -0.1586
28.6000 19.0364 -0.1573
28.6200 19.0498 -0.1559
28.6400 19.0631 -0.1631
28.6600 19.0764 -0.1594
28.6800 19.0898 -0.1572
28.7000 19.1031 -0.1675
28.7200 19.1164 -0.1633
28.7400 19.1297 -0.1586
28.7600 19.1430 -0.1643
28.7800 19.1563 -0.1661
28.8000 19.1697 -0.1622
28.8200 19.1830 -0.1657
28.8400 19.1964 -0.1608
28.8600 19.2098 -0.1613
28.8800 19.2232 -0.1661
28.9000 19.2365 -0.1661
28.9200 19.2498 -0.1629
28.9400 19.2632 -0.1700
28.9600 19.2765 -0.1688
28.9800 19.2898 -0.1630
29.0000 19.3031 -0.1726
29.0200 19.3164 -0.1678
29.0400 19.3297 -0.1657
29.0600 19.3430 -0.1745
29.0800 19.3564 -0.1680
29.1000 19.3697 -0.1716
29.1200 19.3830 -0.1725
29.1400 19.3964 -0.1664
29.1600 19.4098 -0.1753
29.1800 19.4231 -0.1731
29.2000 19.4364 -0.1690
29.2200 19.4498 -0.1739
29.2400 19.4632 -0.1759
29.2600 19.4765 -0.1682
29.2800 19.4898 -0.1773
29.3000 19.5031 -0.1761
29.3200 19.5164 -0.1689
29.3400 19.5298 -0.1799
29.3600 19.5431 -0.1758
29.3800 19.5564 -0.1717
29.4000 19.5697 -0.1776
29.4200 19.5831 -0.1791
29.4400 19.5964 -0.1756
29.4600 19.6097 -0.1755
29.4800 19.6230 -0.1816
29.5000 19.6364 -0.1779
29.5200 19.6497 -0.1855
29.5400 19.6631 -0.1788
29.5600 19.6764 -0.1805
29.5800 19.6898 -0.1862
29.6000 19.7031 -0.1829
29.6200 19.7165 -0.1848
29.6400 19.7298 -0.1889
29.6600 19.7431 -0.1880
29.6800 19.7564 -0.1843
29.7000 19.7698 -0.1961
29.7200 19.7831 -0.1911
29.7400 19.7964 -0.1857
29.7600 19.8097 -0.1930
29.7800 19.8231 -0.1933
29.8000 19.8364 -0.1887
29.8200 19.8497 -0.1934
29.8400 19.8630 -0.1961
29.8600 19.8764 -0.1868
29.8800 19.8897 -0.2023
29.9000 19.9031 -0.1987
29.9200 19.9164 -0.1875
29.9400 19.9298 -0.2046
29.9600 19.9431 -0.1995
29.9800 19.9565 -0.1946
30.0000 19.9698 -0.2056
30.0200 19.9831 -0.1998
30.0400 19.9965 -0.1920
30.0600 20.0098 -0.2087
30.0800 20.0231 -0.2024
30.1000 20.0364 -0.1937
30.1200 20.0497 -0.2088
30.1400 20.0631 -0.2024
30.1600 20.0764 -0.2031
30.1800 20.0897 -0.2121
30.2000 20.1031 -0.1980
30.2200 20.1164 -0.2068
30.2400 20.1297 -0.2159
30.2600 20.1431 -0.2010
30.2800 20.1564 -0.2131
30.3000 20.1697 -0.2137
30.3200 20.1831 -0.2013
30.3400 20.1965 -0.2132
30.3600 20.2098 -0.2127
30.3800 20.2231 -0.2082
30.4000 20.2365 -0.2156
30.4200 20.2498 -0.2127
30.4400 20.2631 -0.2105
30.4600 20.2764 -0.2177
30.4800 20.2897 -0.2115
30.5000 20.3031 -0.2160
30.5200 20.3164 -0.2197
30.5400 20.3297 -0.2149
30.5600 20.3430 -0.2207
30.5800 20.3564 -0.2217
30.6000 20.3697 -0.2185
30.6200 20.3831 -0.2240
30.6400 20.3964 -0.2185
30.6600 20.4098 -0.2181
30.6800 20.4232 -0.2253
30.7000 20.4365 -0.2126
30.7200 20.4498 -0.1541
30.7400 20.4631 -0.0724
30.7600 20.4765 -0.0156
30.7800 20.4898 0.0143
30.8000 20.5031 0.0548
30.8200 20.5164 0.1162
30.8400 20.5297 0.1592
30.8600 20.5431 0.2235
30.8800 20.5564 0.2786
30.9000 20.5697 0.3274
30.9200 20.5830 0.3815
30.9400 20.5963 0.4292
30.9600 20.6097 0.4698
30.9800 20.6230 0.5179
31.0000 20.6364 0.5640
31.0200 20.6497 0.6064
31.0400 20.6631 0.6578
31.0600 20.6765 0.6895
31.0800 20.6898 0.6868
31.1000 20.7031 0.6944
31.1200 20.7165 0.6933
31.1400 20.7298 0.6835
31.1600 20.7431 0.6924
31.1800 20.7564 0.6952
31.2000 20.7697 0.6870
31.2200 20.7830 0.6954
31.2400 20.7964 0.6910
31.2600 20.8097 0.6860
31.2800 20.8230 0.6910
31.3000 20.8364 0.6888
31.3200 20.8498 0.6845
31.3400 20.8631 0.6875
31.3600 20.8764 0.6884
31.3800 20.8898 0.6850
31.4000 20.9031 0.6860
31.4200 20.9165 0.6807
31.4400 20.9297 0.6802
31.4600 20.9431 0.6865
31.4800 20.9564 0.6826
31.5000 20.9698 0.6748
31.5200 20.9831 0.6843
31.5400 20.9964 0.6783
31.5600 21.0098 0.6745
31.5800 21.0231 0.6824
31.6000 21.0365 0.6777
31.6200 21.0498 0.6734
31.6400 21.0631 0.6803
31.6600 21.0764 0.6762
31.6800 21.0897 0.6688
31.7000 21.1031 0.6792
31.7200 21.1164 0.6722
31.7400 21.1297 0.6679
31.7600 21.1431 0.6797
31.7800 21.1564 0.6660
31.8000 21.1698 0.6649
31.8200 21.1831 0.6787
31.8400 21.1964 0.6679
31.8600 21.2098 0.6642
31.8800 21.2231 0.6761
31.9000 21.2364 0.6638
31.9200 21.2498 0.6666
31.9400 21.2631 0.6697
31.9600 21.2764 0.6595
31.9800 21.2897 0.6617
32.0000 21.3030 0.6660
32.0200 21.3164 0.6587
32.0400 21.3297 0.6572
32.0600 21.3431 0.6614
32.0800 21.3564 0.6501
32.1000 21.3697 0.6536
32.1200 21.3831 0.6553
32.1400 21.3965 0.6466
32.1600 21.4098 0.6512
32.1800 21.4231 0.6488
32.2000 21.4365 0.6413
32.2200 21.4498 0.6474
32.2400 21.4631 0.6402
32.2600 21.4764 0.6392
32.2800 21.4897 0.6453
32.3000 21.5031 0.6333
32.3200 21.5164 0.6358
32.3400 21.5297 0.6331
32.3600 21.5430 0.6326
32.3800 21.5564 0.6321
32.4000 21.5697 0.6292
32.4200 21.5831 0.6261
32.4400 21.5964 0.6273
32.4600 21.6097 0.6292
32.4800 21.6231 0.6204
32.5000 21.6364 0.6256
32.5200 21.6498 0.6209
32.5400 21.6631 0.6196
32.5600 21.6764 0.6227
32.5800 21.6898 0.6151
32.6000 21.7031 0.6156
32.6200 21.7164 0.6205
32.6400 21.7298 0.6159
32.6600 21.7431 0.6170
32.6800 21.7564 0.6177
32.7000 21.7697 0.6114
32.7200 21.7830 0.6106
32.7400 21.7964 0.6108
32.7600 21.8097 0.6065
32.7800 21.8230 0.6081
32.8000 21.8364 0.6067
32.8200 21.8497 0.6018
32.8400 21.8631 0.6063
32.8600 21.8765 0.6014
32.8800 21.8898 0.5931
32.9000 21.9031 0.6023
32.9200 21.9164 0.6014
32.9400 21.9298 0.5871
32.9600 21.9431 0.5979
32.9800 21.9564 0.5918
33.0000 21.9697 0.5835
33.0200 21.9831 0.5983
33.0400 21.9964 0.5901
33.0600 22.0098 0.5807
33.0800 22.0231 0.5949
33.1000 22.0364 0.5882
33.1200 22.0497 0.5775
33.1400 22.0631 0.5908
33.1600 22.0764 0.5821
33.1800 22.0897 0.5789
33.2000 22.1031 0.5875
33.2200 22.1165 0.5747
33.2400 22.1298 0.5827
33.2600 22.1431 0.5830
33.2800 22.1564 0.5730
33.3000 22.1698 0.5793
33.3200 22.1831 0.5788
33.3400 22.1964 0.5709
33.3600 22.2097 0.5808
33.3800 22.2230 0.5798
33.4000 22.2364 0.5680
33.4200 22.2497 0.5766
33.4400 22.2630 0.5729
33.4600 22.2764 0.5698
33.4800 22.2897 0.5785
33.5000 22.3031 0.5645
33.5200 22.3164 0.5683
33.5400 22.3297 0.5746
33.5600 22.3431 0.5626
33.5800 22.3564 0.5648
33.6000 22.3698 0.5695
33.6200 22.3831 0.5647
33.6400 22.3964 0.5565
33.6600 22.4098 0.5637
33.6800 22.4231 0.5598
33.7000 22.4365 0.5577
33.7200 22.4498 0.5565
33.7400 22.4631 0.5531
33.7600 22.4765 0.5560
33.7800 22.4898 0.5539
33.8000 22.5031 0.5536
33.8200 22.5163 0.5535
33.8400 22.5297 0.5524
33.8600 22.5430 0.5485
33.8800 22.5563 0.5480
33.9000 22.5697 0.5491
33.9200 22.5831 0.5449
33.9400 22.5965 0.5390
33.9600 22.6098 0.5391
33.9800 22.6232 0.5418
34.0000 22.6365 0.5357
34.0200 22.6499 0.5401
34.0400 22.6632 0.5381
34.0600 22.6765 0.5320
34.0800 22.6898 0.5392
34.1000 22.7031 0.5327
34.1200 22.7164 0.5296
34.1400 22.7297 0.5374
34.1600 22.7430 0.5311
34.1800 22.7563 0.5256
34.2000 22.7697 0.5349
34.2200 22.7830 0.5269
34.2400 22.7964 0.5246
34.2600 22.8097 0.5317
34.2800 22.8231 0.5215
34.3000 22.8365 0.5225
34.3200 22.8498 0.5282
34.3400 22.8632 0.5139
34.3600 22.8765 0.5162
34.3800 22.8898 0.5254
34.4000 22.9032 0.5111
34.4200 22.9165 0.5147
34.4400 22.9298 0.5212
34.4600 22.9431 0.5061
34.4800 22.9564 0.5129
34.5000 22.9697 0.5153
34.5200 22.9830 0.5029
34.5400 22.9964 0.5139
34.5600 23.0097 0.5128
34.5800 23.0231 0.4969
34.6000 23.0364 0.5089
34.6200 23.0497 0.5084
34.6400 23.0630 0.4956
34.6600 23.0764 0.5066
34.6800 23.0898 0.5059
34.7000 23.1031 0.4920
34.7200 23.1164 0.5073
34.7400 23.1298 0.5004
34.7600 23.1431 0.4924
34.7800 23.1564 0.5071
34.8000 23.1698 0.4926
34.8200 23.1831 0.4871
34.8400 23.1965 0.5059
34.8600 23.2098 0.4868
34.8800 23.2231 0.4918
34.9000 23.2364 0.4983
34.9200 23.2497 0.4875
34.9400 23.2631 0.4861
34.9600 23.2764 0.4893
34.9800 23.2897 0.4902
35.0000 23.3031 0.4812
35.0200 23.3165 0.4829
35.0400 23.3298 0.4838
35.0600 23.3431 0.4821
35.0800 23.3564 0.4784
35.1000 23.3698 0.4795
35.1200 23.3831 0.4819
35.1400 23.3964 0.4739
35.1600 23.4097 0.4784
35.1800 23.4231 0.4767
35.2000 23.4364 0.4755
35.2200 23.4498 0.4741
35.2400 23.4631 0.4726
35.2600 23.4764 0.4713
35.2800 23.4897 0.4735
35.3000 23.5031 0.4698
35.3200 23.5164 0.4634
35.3400 23.5297 0.4735
35.3600 23.5431 0.4697
35.3800 23.5564 0.4579
35.4000 23.5698 0.4654
35.4200 23.5831 0.4653
35.4400 23.5965 0.4561
35.4600 23.6098 0.4640
35.4800 23.6232 0.4601
35.5000 23.6365 0.4498
35.5200 23.6498 0.4621
35.5400 23.6631 0.4602
35.5600 23.6764 0.4428
35.5800 23.6898 0.4592
35.6000 23.7031 0.4564
35.6200 23.7164 0.4411
35.6400 23.7297 0.4610
35.6600 23.7431 0.4486
35.6800 23.7564 0.4336
35.7000 23.7697 0.4607
35.7200 23.7831 0.4422
35.7400 23.7965 0.4385
35.7600 23.8098 0.4571
35.7800 23.8231 0.4384
35.8000 23.8364 0.4400
35.8200 23.8498 0.4541
35.8400 23.8631 0.4397
35.8600 23.8765 0.4412
35.8800 23.8898 0.4498
35.9000 23.9031 0.4416
35.9200 23.9164 0.4399
35.9400 23.9298 0.4448
35.9600 23.9430 0.4337
35.9800 23.9563 0.4455
36.0000 23.9696 0.4390
36.0200 23.9830 0.4319
36.0400 23.9963 0.4382
36.0600 24.0097 0.4316
36.0800 24.0231 0.4392
36.1000 24.0365 0.4316
36.1200 24.0499 0.4298
36.1400 24.0632 0.4337
36.1600 24.0765 0.4260
36.1800 24.0898 0.4302
36.2000 24.1032 0.4334
36.2200 24.1165 0.4236
36.2400 24.1297 0.4237
36.2600 24.1430 0.4302
36.2800 24.1564 0.4161
36.3000 24.1697 0.4223
36.3200 24.1830 0.4296
36.3400 24.1964 0.4099
36.3600 24.2097 0.4260
36.3800 24.2231 0.4249
36.4000 24.2364 0.4098
36.4200 24.2498 0.4221
36.4400 24.2631 0.4220
36.4600 24.2765 0.4081
36.4800 24.2898 0.4198
36.5000 24.3031 0.4119
36.5200 24.3164 0.4046
36.5400 24.3298 0.4177
36.5600 24.3431 0.4073
36.5800 24.3565 0.4069
36.6000 24.3698 0.4131
36.6200 24.3831 0.4020
36.6400 24.3964 0.4064
36.6600 24.4097 0.4083
36.6800 24.4230 0.3992
36.7000 24.4364 0.4076
36.7200 24.4497 0.4019
36.7400 24.4631 0.3988
36.7600 24.4764 0.4042
36.7800 24.4897 0.3963
36.8000 24.5031 0.3967
36.8200 24.5164 0.4017
36.8400 24.5298 0.3964
36.8600 24.5431 0.3915
36.8800 24.5564 0.3985
36.9000 24.5698 0.3944
36.9200 24.5831 0.3893
36.9400 24.5965 0.3946
36.9600 24.6098 0.3883
36.9800 24.6231 0.3932
37.0000 24.6364 0.3860
37.0200 24.6498 0.3844
37.0400 24.6631 0.3894
37.0600 24.6764 0.3813
37.0800 24.6897 0.3863
37.1000 24.7030 0.3852
37.1200 24.7164 0.3789
37.1400 24.7297 0.3871
37.1600 24.7431 0.3833
37.1800 24.7564 0.3751
37.2000 24.7698 0.3771
37.2200 24.7832 0.3820
37.2400 24.7965 0.3744
37.2600 24.8098 0.3749
37.2800 24.8231 0.3783
37.3000 24.8364 0.3739
37.3200 24.8497 0.3724
37.3400 24.8631 0.3747
37.3600 24.8764 0.3714
37.3800 24.8898 0.3685
37.4000 24.9031 0.3725
37.4200 24.9164 0.3694
37.4400 24.9297 0.3639
37.4600 24.9431 0.3701
37.4800 24.9564 0.3650
37.5000 24.9697 0.3621
37.5200 24.9830 0.3636
37.5400 24.9964 0.3576
37.5600 25.0098 0.3629
37.5800 25.0231 0.3633
37.6000 25.0364 0.3540
37.6200 25.0498 0.3611
37.6400 25.0631 0.3618
37.6600 25.0765 0.3476
37.6800 25.0898 0.3608
37.7000 25.1031 0.3550
37.7200 25.1164 0.3512
37.7400 25.1298 0.3576
37.7600 25.1431 0.3490
37.7800 25.1564 0.3441
37.8000 25.1697 0.3624
37.8200 25.1830 0.3455
37.8400 25.1964 0.3405
37.8600 25.2097 0.3591
37.8800 25.2231 0.3431
37.9000 25.2365 0.3474
37.9200 25.2498 0.3574
37.9400 25.2632 0.3360
37.9600 25.2765 0.3451
37.9800 25.2898 0.3475
38.0000 25.3032 0.3356
38.0200 25.3165 0.3466
38.0400 25.3298 0.3452
38.0600 25.3431 0.3319
38.0800 25.3564 0.3441
38.1000 25.3698 0.3371
38.1200 25.3831 0.3305
38.1400 25.3964 0.3470
38.1600 25.4097 0.3334
38.1800 25.4230 0.3292
38.2000 25.4364 0.3442
38.2200 25.4497 0.3270
38.2400 25.4630 0.3305
38.2600 25.4764 0.3401
38.2800 25.4898 0.3205
38.3000 25.5031 0.3286
38.3200 25.5165 0.3408
38.3400 25.5298 0.3220
38.3600 25.5431 0.3338
38.3800 25.5565 0.3290
38.4000 25.5697 0.3168
38.4200 25.5830 0.3362
38.4400 25.5964 0.3306
38.4600 25.6097 0.3172
38.4800 25.6231 0.3297
38.5000 25.6364 0.3272
38.5200 25.6497 0.3178
38.5400 25.6631 0.3284
38.5600 25.6765 0.3217
38.5800 25.6898 0.3186
38.6000 25.7031 0.3216
38.6200 25.7164 0.3228
38.6400 25.7298 0.3203
38.6600 25.7431 0.3166
38.6800 25.7564 0.3200
38.7000 25.7697 0.3190
38.7200 25.7831 0.3098
38.7400 25.7965 0.3162
38.7600 25.8098 0.3152
38.7800 25.8231 0.3058
38.8000 25.8364 0.3159
38.8200 25.8498 0.3103
38.8400 25.8631 0.3021
38.8600 25.8764 0.3179
38.8800 25.8897 0.3032
38.9000 25.9031 0.3027
38.9200 25.9164 0.3115
38.9400 25.9297 0.2935
38.9600 25.9430 0.3016
38.9800 25.9564 0.3101
39.0000 25.9698 0.2955
39.0200 25.9831 0.2969
39.0400 25.9964 0.3041
39.0600 26.0098 0.2948
39.0800 26.0231 0.2973
39.1000 26.0365 0.2996
39.1200 26.0498 0.2895
39.1400 26.0631 0.2966
39.1600 26.0764 0.2960
39.1800 26.0898 0.2892
39.2000 26.1031 0.2983
39.2200 26.1164 0.2948
39.2400 26.1297 0.2900
39.2600 26.1430 0.2921
39.2800 26.1564 0.2875
39.3000 26.1697 0.2838
39.3200 26.1831 0.3027
39.3400 26.1964 0.2887
39.3600 26.2098 0.2788
39.3800 26.2232 0.3015
39.4000 26.2365 0.2892
39.4200 26.2498 0.2791
39.4400 26.2632 0.3032
39.4600 26.2765 0.2853
39.4800 26.2898 0.2813
39.5000 26.3031 0.2960
39.5200 26.3164 0.2833
39.5400 26.3297 0.2865
39.5600 26.3431 0.2922
39.5800 26.3564 0.2777
39.6000 26.3697 0.2802
39.6200 26.3830 0.2925
39.6400 26.3964 0.2744
39.6600 26.4098 0.2792
39.6800 26.4231 0.2830
39.7000 26.4364 0.2745
39.7200 26.4498 0.2844
39.7400 26.4631 0.2746
39.7600 26.4765 0.2712
39.7800 26.4898 0.2783
39.8000 26.5031 0.2768
39.8200 26.5165 0.2678
39.8400 26.5298 0.2716
39.8600 26.5431 0.2734
39.8800 26.5564 0.2680
39.9000 26.5697 0.2650
39.9200 26.5831 0.2687
39.9400 26.5964 0.2693
39.9600 26.6097 0.2617
39.9800 26.6230 0.2648
40.0000 26.6364 0.2634
40.0200 26.6497 0.2588
40.0400 26.6631 0.2605
40.0600 26.6764 0.2657
40.0800 26.6898 0.2549
40.1000 26.7032 0.2559
40.1200 26.7165 0.2595
40.1400 26.7298 0.2484
40.1600 26.7431 0.2523
40.1800 26.7565 0.2552
40.2000 26.7698 0.2448
40.2200 26.7831 0.2491
40.2400 26.7964 0.2478
40.2600 26.8097 0.2484
40.2800 26.8231 0.2438
40.3000 26.8364 0.2467
40.3200 26.8497 0.2442
40.3400 26.8630 0.2376
40.3600 26.8764 0.2406
40.3800 26.8897 0.2430
40.4000 26.9031 0.2359
40.4200 26.9164 0.2351
40.4400 26.9298 0.2358
40.4600 26.9431 0.2252
40.4800 26.9564 0.2340
40.5000 26.9698 0.2336
40.5200 26.9831 0.2252
40.5400 26.9965 0.2316
40.5600 27.0098 0.2275
40.5800 27.0231 0.2264
40.6000 27.0364 0.2321
40.6200 27.0497 0.2271
40.6400 27.0631 0.2209
40.6600 27.0764 0.2281
40.6800 27.0897 0.2299
40.7000 27.1030 0.2214
40.7200 27.1164 0.2251
40.7400 27.1298 0.2218
40.7600 27.1431 0.2202
40.7800 27.1564 0.2193
40.8000 27.1698 0.2206
40.8200 27.1831 0.2206
40.8400 27.1964 0.2213
40.8600 27.2097 0.2130
40.8800 27.2231 0.2154
40.9000 27.2365 0.2167
40.9200 27.2498 0.2129
40.9400 27.2631 0.2142
40.9600 27.2765 0.2181
40.9800 27.2898 0.2100
41.0000 27.3032 0.2132
41.0200 27.3165 0.2137
41.0400 27.3297 0.2102
41.0600 27.3430 0.2141
41.0800 27.3563 0.2093
41.1000 27.3697 0.2069
41.1200 27.3830 0.2117
41.1400 27.3964 0.2109
41.1600 27.4098 0.2086
41.1800 27.4232 0.2077
41.2000 27.4365 0.2036
41.2200 27.4498 0.2107
41.2400 27.4632 0.2082
41.2600 27.4765 0.2031
41.2800 27.4898 0.2085
41.3000 27.5031 0.2112
41.3200 27.5164 0.2032
41.3400 27.5297 0.2114
41.3600 27.5431 0.2055
41.3800 27.5564 0.1987
41.4000 27.5697 0.2119
41.4200 27.5830 0.2068
41.4400 27.5964 0.1970
41.4600 27.6097 0.2113
41.4800 27.6230 0.2012
41.5000 27.6364 0.1973
41.5200 27.6498 0.2104
41.5400 27.6632 0.2002
41.5600 27.6765 0.1950
41.5800 27.6898 0.2071
41.6000 27.7031 0.1965
41.6200 27.7165 0.2009
41.6400 27.7298 0.2031
41.6600 27.7431 0.1952
41.6800 27.7564 0.1991
41.7000 27.7697 0.2019
41.7200 27.7831 0.1916
41.7400 27.7964 0.1950
41.7600 27.8097 0.2011
41.7800 27.8230 0.1917
41.8000 27.8364 0.1933
41.8200 27.8498 0.1943
41.8400 27.8631 0.1855
41.8600 27.8764 0.1978
41.8800 27.8898 0.1877
41.9000 27.9031 0.1849
41.9200 27.9165 0.1910
41.9400 27.9298 0.1844
41.9600 27.9431 0.1853
41.9800 27.9565 0.1864
42.0000 27.9698 0.1818
42.0200 27.9831 0.1820
42.0400 27.9964 0.1813
42.0600 28.0098 0.1776
42.0800 28.0231 0.1849
42.1000 28.0364 0.1779
42.1200 28.0497 0.1733
42.1400 28.0630 0.1847
42.1600 28.0764 0.1723
42.1800 28.0897 0.1723
42.2000 28.1031 0.1796
42.2200 28.1164 0.1638
42.2400 28.1298 0.1721
42.2600 28.1432 0.1698
42.2800 28.1565 0.1630
42.3000 28.1698 0.1722
42.3200 28.1831 0.1674
42.3400 28.1965 0.1602
42.3600 28.2098 0.1719
42.3800 28.2231 0.1617
42.4000 28.2364 0.1586
42.4200 28.2497 0.1684
42.4400 28.2631 0.1545
42.4600 28.2764 0.1567
42.4800 28.2897 0.1643
42.5000 28.3030 0.1522
42.5200 28.3164 0.1568
42.5400 28.3297 0.1615
42.5600 28.3430 0.1510
42.5800 28.3564 0.1601
42.6000 28.3697 0.1570
42.6200 28.3831 0.1494
42.6400 28.3965 0.1541
42.6600 28.4098 0.1554
42.6800 28.4231 0.1484
42.7000 28.4365 0.1554
42.7200 28.4498 0.1569
42.7400 28.4631 0.1466
42.7600 28.4764 0.1504
42.7800 28.4897 0.1523
42.8000 28.5031 0.1498
42.8200 28.5164 0.1503
42.8400 28.5297 0.1463
42.8600 28.5430 0.1489
42.8800 28.5564 0.1393
42.9000 28.5697 0.1401
42.9200 28.5831 0.1540
42.9400 28.5964 0.1376
42.9600 28.6097 0.1392
42.9800 28.6231 0.1480
43.0000 28.6365 0.1325
43.0200 28.6498 0.1309
43.0400 28.6631 0.1500
43.0600 28.6765 0.1326
43.0800 28.6898 0.1267
43.1000 28.7031 0.1472
43.1200 28.7164 0.1359
43.1400 28.7297 0.1282
43.1600 28.7431 0.1457
43.1800 28.7564 0.1313
43.2000 28.7697 0.1265
43.2200 28.7830 0.1380
43.2400 28.7963 0.1331
43.2600 28.8097 0.1324
43.2800 28.8230 0.1339
43.3000 28.8364 0.1326
43.3200 28.8498 0.1315
43.3400 28.8632 0.1277
43.3600 28.8765 0.1298
43.3800 28.8899 0.1333
43.4000 28.9032 0.1275
43.4200 28.9165 0.1297
43.4400 28.9298 0.1323
43.4600 28.9431 0.1247
43.4800 28.9564 0.1312
43.5000 28.9697 0.1317
43.5200 28.9830 0.1280
43.5400 28.9963 0.1301
43.5600 29.0097 0.1258
43.5800 29.0230 0.1274
43.6000 29.0364 0.1274
43.6200 29.0498 0.1263
43.6400 29.0631 0.1271
43.6600 29.0765 0.1279
43.6800 29.0898 0.1271
43.7000 29.1032 0.1255
43.7200 29.1165 0.1265
43.7400 29.1298 0.1217
43.7600 29.1431 0.1288
43.7800 29.1565 0.1253
43.8000 29.1698 0.1218
43.8200 29.1831 0.1232
43.8400 29.1964 0.1194
43.8600 29.2097 0.1244
43.8800 29.2231 0.1233
43.9000 29.2364 0.1161
43.9200 29.2497 0.1234
43.9400 29.2630 0.1198
43.9600 29.2764 0.1126
43.9800 29.2897 0.1154
44.0000 29.3031 0.1205
44.0200 29.3164 0.1144
44.0400 29.3298 0.1141
44.0600 29.3431 0.1142
44.0800 29.3565 0.1110
44.1000 29.3698 0.1083
44.1200 29.3831 0.1149
44.1400 29.3964 0.1104
44.1600 29.4098 0.1041
44.1800 29.4231 0.1121
44.2000 29.4364 0.1098
44.2200 29.4497 0.1019
44.2400 29.4631 0.1125
44.2600 29.4764 0.1024
44.2800 29.4897 0.0961
44.3000 29.5030 0.1137
44.3200 29.5163 0.0991
44.3400 29.5297 0.0978
44.3600 29.5430 0.1076
44.3800 29.5564 0.0896
44.4000 29.5697 0.0960
44.4200 29.5831 0.1022
44.4400 29.5965 0.0888
44.4600 29.6098 0.0970
44.4800 29.6231 0.1016
44.5000 29.6364 0.0870
44.5200 29.6498 0.0949
44.5400 29.6631 0.0963
44.5600 29.6764 0.0801
44.5800 29.6897 0.0940
44.6000 29.7031 0.0958
44.6200 29.7164 0.0784
44.6400 29.7297 0.0906
44.6600 29.7430 0.0888
44.6800 29.7564 0.0806
44.7000 29.7697 0.0867
44.7200 29.7831 0.0824
44.7400 29.7964 0.0790
44.7600 29.8097 0.0827
44.7800 29.8231 0.0829
44.8000 29.8365 0.0781
44.8200 29.8498 0.0832
44.8400 29.8631 0.0741
44.8600 29.8765 0.0762
44.8800 29.8898 0.0853
44.9000 29.9031 0.0715
44.9200 29.9164 0.0732
44.9400 29.9297 0.0824
44.9600 29.9431 0.0664
44.9800 29.9564 0.0749
45.0000 29.9697 0.0769
45.0200 29.9830 0.0603
45.0400 29.9964 0.0800
45.0600 30.0097 0.0725
45.0800 30.0231 0.0578
45.1000 30.0364 0.0781
45.1200 30.0498 0.0696
45.1400 30.0632 0.0581
45.1600 30.0765 0.0738
45.1800 30.0898 0.0625
45.2000 30.1031 0.0623
45.2200 30.1164 0.0741
45.2400 30.1298 0.0561
45.2600 30.1431 0.0620
45.2800 30.1564 0.0721
45.3000 30.1697 0.0589
45.3200 30.1831 0.0635
45.3400 30.1964 0.0636
45.3600 30.2097 0.0538
45.3800 30.2230 0.0633
45.4000 30.2363 0.0583
45.4200 30.2497 0.0526
45.4400 30.2630 0.0630
45.4600 30.2764 0.0475
45.4800 30.2897 0.0549
45.5000 30.3031 0.0601
45.5200 30.3165 0.0459
45.5400 30.3298 0.0529
45.5600 30.3431 0.0557
45.5800 30.3565 0.0484
45.6000 30.3698 0.0515
45.6200 30.3831 0.0463
45.6400 30.3964 0.0525
45.6600 30.4097 0.0516
45.6800 30.4230 0.0426
45.7000 30.4364 0.0528
45.7200 30.4497 0.0508
45.7400 30.4630 0.0429
45.7600 30.4764 0.0493
45.7800 30.4898 0.0432
45.8000 30.5031 0.0392
45.8200 30.5164 0.0529
45.8400 30.5298 0.0371
45.8600 30.5431 0.0419
45.8800 30.5564 0.0473
45.9000 30.5698 0.0346
45.9200 30.5831 0.0484
45.9400 30.5964 0.0406
45.9600 30.6098 0.0352
45.9800 30.6231 0.0440
46.0000 30.6364 0.0383
46.0200 30.6498 0.0329
46.0400 30.6631 0.0432
46.0600 30.6765 0.0357
46.0800 30.6898 0.0321
46.1000 30.7031 0.0430
46.1200 30.7164 0.0326
46.1400 30.7297 0.0319
46.1600 30.7431 0.0359
46.1800 30.7564 0.0342
46.2000 30.7697 0.0302
46.2200 30.7831 0.0287
46.2400 30.7964 0.0301
46.2600 30.8098 0.0283
46.2800 30.8231 0.0277
46.3000 30.8364 0.0286
46.3200 30.8498 0.0291
46.3400 30.8632 0.0239
46.3600 30.8765 0.0224
46.3800 30.8898 0.0348
46.4000 30.9031 0.0206
46.4200 30.9165 0.0221
46.4400 30.9298 0.0266
46.4600 30.9431 0.0179
46.4800 30.9564 0.0257
46.5000 30.9697 0.0258
46.5200 30.9830 0.0164
46.5400 30.9964 0.0199
46.5600 31.0097 0.0251
46.5800 31.0231 0.0129
46.6000 31.0365 0.0198
46.6200 31.0498 0.0260
46.6400 31.0631 0.0111
46.6600 31.0764 0.0174
46.6800 31.0898 0.0179
46.7000 31.1031 0.0111
46.7200 31.1164 0.0178
46.7400 31.1297 0.0159
46.7600 31.1431 0.0097
46.7800 31.1564 0.0147
46.8000 31.1697 0.0126
46.8200 31.1830 0.0062
46.8400 31.1964 0.0186
46.8600 31.2097 0.0087
46.8800 31.2231 0.0014
46.9000 31.2364 0.0147
46.9200 31.2497 0.0080
46.9400 31.2631 0.0051
46.9600 31.2764 0.0118
46.9800 31.2898 0.0034
47.0000 31.3031 0.0047
47.0200 31.3164 0.0093
47.0400 31.3298 0.0030
47.0600 31.3431 0.0034
47.0800 31.3565 0.0057
47.1000 31.3698 0.0013
47.1200 31.3831 0.0043
47.1400 31.3964 0.0000
47.1600 31.4097 0.0046
47.1800 31.4230 0.0034
47.2000 31.4363 -0.0005
47.2200 31.4497 0.0015
47.2400 31.4630 0.0006
47.2600 31.4764 0.0008
47.2800 31.4897 0.0015
47.3000 31.5031 0.0000
47.3200 31.5165 -0.0052
47.3400 31.5298 0.0031
47.3600 31.5431 0.0017
47.3800 31.5564 -0.0043
47.4000 31.5698 0.0070
47.4200 31.5831 -0.0045
47.4400 31.5964 -0.0073
47.4600 31.6097 0.0070
47.4800 31.6231 -0.0090
47.5000 31.6364 -0.0049
47.5200 31.6497 0.0049
47.5400 31.6631 -0.0152
47.5600 31.6764 -0.0032
47.5800 31.6897 0.0078
47.6000 31.7031 -0.0166
47.6200 31.7164 -0.0005
47.6400 31.7297 0.0040
47.6600 31.7431 -0.0231
47.6800 31.7565 -0.0044
47.7000 31.7698 0.0002
47.7200 31.7831 -0.0218
47.7400 31.7965 -0.0016
47.7600 31.8098 -0.0058
47.7800 31.8232 -0.0179
47.8000 31.8364 -0.0024
47.8200 31.8497 -0.0088
47.8400 31.8630 -0.0195
47.8600 31.8764 -0.0048
47.8800 31.8897 -0.0132
47.9000 31.9031 -0.0189
47.9200 31.9164 -0.0107
47.9400 31.9297 -0.0130
47.9600 31.9431 -0.0211
47.9800 31.9564 -0.0120
48.0000 31.9697 -0.0139
48.0200 31.9830 -0.0160
48.0400 31.9964 -0.0149
48.0600 32.0098 -0.0193
48.0800 32.0231 -0.0177
48.1000 32.0364 -0.0138
48.1200 32.0498 -0.0141
48.1400 32.0631 -0.0230
48.1600 32.0765 -0.0224
48.1800 32.0898 -0.0155
48.2000 32.1031 -0.0236
48.2200 32.1165 -0.0249
48.2400 32.1298 -0.0204
48.2600 32.1431 -0.0265
48.2800 32.1563 -0.0256
48.3000 32.1696 -0.0241
48.3200 32.1830 -0.0271
48.3400 32.1963 -0.0295
48.3600 32.2097 -0.0240
48.3800 32.2231 -0.0353
48.4000 32.2365 -0.0350
48.4200 32.2498 -0.0284
48.4400 32.2631 -0.0346
48.4600 32.2765 -0.0335
48.4800 32.2898 -0.0336
48.5000 32.3032 -0.0389
48.5200 32.3165 -0.0354
48.5400 32.3298 -0.0374
48.5600 32.3431 -0.0439
48.5800 32.3564 -0.0387
48.6000 32.3697 -0.0394
48.6200 32.3830 -0.0479
48.6400 32.3964 -0.0407
48.6600 32.4097 -0.0422
48.6800 32.4231 -0.0494
48.7000 32.4364 -0.0432
48.7200 32.4497 -0.0441
48.7400 32.4631 -0.0479
48.7600 32.4765 -0.0467
48.7800 32.4898 -0.0547
48.8000 32.5032 -0.0531
48.8200 32.5165 -0.0477
48.8400 32.5298 -0.0525
48.8600 32.5432 -0.0514
48.8800 32.5565 -0.0499
48.9000 32.5697 -0.0520
48.9200 32.5831 -0.0538
48.9400 32.5964 -0.0572
48.9600 32.6098 -0.0537
48.9800 32.6231 -0.0528
49.0000 32.6364 -0.0626
49.0200 32.6497 -0.0523
49.0400 32.6631 -0.0558
49.0600 32.6764 -0.0638
49.0800 32.6897 -0.0506
49.1000 32.7031 -0.0613
49.1200 32.7164 -0.0617
49.1400 32.7298 -0.0510
49.1600 32.7431 -0.0680
49.1800 32.7564 -0.0595
49.2000 32.7698 -0.0496
49.2200 32.7831 -0.0716
49.2400 32.7964 -0.0620
49.2600 32.8098 -0.0478
49.2800 32.8231 -0.0778
49.3000 32.8364 -0.0593
49.3200 32.8498 -0.0500
49.3400 32.8631 -0.0790
49.3600 32.8763 -0.0524
49.3800 32.8897 -0.0548
49.4000 32.9031 -0.0843
49.4200 32.9164 -0.0555
49.4400 32.9297 -0.0606
49.4600 32.9431 -0.0809
49.4800 32.9565 -0.0618
49.5000 32.9698 -0.0687
49.5200 32.9831 -0.0769
49.5400 32.9965 -0.0625
49.5600 33.0098 -0.0751
49.5800 33.0231 -0.0772
49.6000 33.0364 -0.0631
49.6200 33.0497 -0.0834
49.6400 33.0630 -0.0779
49.6600 33.0764 -0.0652
49.6800 33.0897 -0.0886
49.7000 33.1031 -0.0815
49.7200 33.1164 -0.0749
49.7400 33.1297 -0.0822
49.7600 33.1431 -0.0786
49.7800 33.1564 -0.0798
49.8000 33.1697 -0.0864
49.8200 33.1831 -0.0825
49.8400 33.1964 -0.0836
49.8600 33.2098 -0.0890
49.8800 33.2231 -0.0783
49.9000 33.2364 -0.0914
49.9200 33.2498 -0.0913
49.9400 33.2632 -0.0810
49.9600 33.2765 -0.0951
49.9800 33.2898 -0.0902
50.0000 33.3031 -0.0811
50.0200 33.3164 -0.0941
50.0400 33.3298 -0.0947
50.0600 33.3431 -0.0879
50.0800 33.3564 -0.0898
50.1000 33.3697 -0.0965
50.1200 33.3831 -0.0886
50.1400 33.3964 -0.1004
50.1600 33.4097 -0.1011
50.1800 33.4231 -0.0927
50.2000 33.4364 -0.1036
50.2200 33.4498 -0.1014
50.2400 33.4631 -0.0952
50.2600 33.4764 -0.1056
50.2800 33.4898 -0.1028
50.3000 33.5031 -0.0979
50.3200 33.5165 -0.1083
50.3400 33.5298 -0.1031
50.3600 33.5431 -0.0974
50.3800 33.5564 -0.1094
50.4000 33.5698 -0.1084
50.4200 33.5831 -0.1045
50.4400 33.5964 -0.1100
50.4600 33.6097 -0.1071
50.4800 33.6230 -0.1093
50.5000 33.6364 -0.1101
50.5200 33.6497 -0.1085
50.5400 33.6630 -0.1091
50.5600 33.6764 -0.1146
50.5800 33.6898 -0.1119
50.6000 33.7032 -0.1142
50.6200 33.7165 -0.1130
50.6400 33.7298 -0.1132
50.6600 33.7431 -0.1144
50.6800 33.7565 -0.1134
50.7000 33.7697 -0.1173
50.7200 33.7830 -0.1160
50.7400 33.7964 -0.1143
50.7600 33.8097 -0.1214
50.7800 33.8230 -0.1141
50.8000 33.8364 -0.1154
50.8200 33.8497 -0.1149
50.8400 33.8631 -0.1124
50.8600 33.8764 -0.1222
50.8800 33.8898 -0.1211
50.9000 33.9031 -0.1116
50.9200 33.9165 -0.1209
50.9400 33.9298 -0.1209
50.9600 33.9431 -0.1146
50.9800 33.9564 -0.1176
51.0000 33.9697 -0.1243
51.0200 33.9831 -0.1152
51.0400 33.9964 -0.1248
51.0600 34.0097 -0.1274
51.0800 34.0231 -0.1143
51.1000 34.0364 -0.1274
51.1200 34.0498 -0.1264
51.1400 34.0631 -0.1161
51.1600 34.0764 -0.1254
51.1800 34.0897 -0.1252
51.2000 34.1031 -0.1167
51.2200 34.1164 -0.1260
51.2400 34.1298 -0.1285
51.2600 34.1431 -0.1180
51.2800 34.1565 -0.1280
51.3000 34.1698 -0.1323
51.3200 34.1831 -0.1175
51.3400 34.1964 -0.1294
51.3600 34.2098 -0.1312
51.3800 34.2231 -0.1218
51.4000 34.2365 -0.1331
51.4200 34.2498 -0.1333
51.4400 34.2631 -0.1253
51.4600 34.2764 -0.1300
51.4800 34.2898 -0.1308
51.5000 34.3031 -0.1309
51.5200 34.3164 -0.1324
51.5400 34.3297 -0.1354
51.5600 34.3430 -0.1318
51.5800 34.3564 -0.1336
51.6000 34.3697 -0.1358
51.6200 34.3831 -0.1301
51.6400 34.3964 -0.1390
51.6600 34.4098 -0.1437
51.6800 34.4232 -0.1302
51.7000 34.4365 -0.1328
51.7200 34.4498 -0.1490
51.7400 34.4632 -0.1383
51.7600 34.4765 -0.1339
51.7800 34.4897 -0.1490
51.8000 34.5030 -0.1363
51.8200 34.5164 -0.1394
51.8400 34.5297 -0.1506
51.8600 34.5431 -0.1347
51.8800 34.5564 -0.1440
51.9000 34.5697 -0.1549
51.9200 34.5831 -0.1402
51.9400 34.5964 -0.1437
51.9600 34.6097 -0.1534
51.9800 34.6230 -0.1393
52.0000 34.6364 -0.1502
52.0200 34.6497 -0.1561
52.0400 34.6631 -0.1400
52.0600 34.6764 -0.1564
52.0800 34.6898 -0.1535
52.1000 34.7031 -0.1385
52.1200 34.7165 -0.1581
52.1400 34.7298 -0.1510
52.1600 34.7431 -0.1382
52.1800 34.7564 -0.1611
52.2000 34.7697 -0.1536
52.2200 34.7831 -0.1368
52.2400 34.7964 -0.1589
52.2600 34.8097 -0.1539
52.2800 34.8230 -0.1451
52.3000 34.8364 -0.1591
52.3200 34.8497 -0.1484
52.3400 34.8631 -0.1490
52.3600 34.8764 -0.1587
52.3800 34.8898 -0.1567
52.4000 34.9032 -0.1520
52.4200 34.9165 -0.1495
52.4400 34.9298 -0.1567
52.4600 34.9431 -0.1520
52.4800 34.9565 -0.1531
52.5000 34.9698 -0.1649
52.5200 34.9831 -0.1526
52.5400 34.9964 -0.1487
52.5600 35.0098 -0.1616
52.5800 35.0231 -0.1557
52.6000 35.0364 -0.1543
52.6200 35.0497 -0.1650
52.6400 35.0630 -0.1522
52.6600 35.0764 -0.1542
52.6800 35.0897 -0.1697
52.7000 35.1031 -0.1535
52.7200 35.1164 -0.1565
52.7400 35.1298 -0.1698
52.7600 35.1431 -0.1588
52.7800 35.1565 -0.1595
52.8000 35.1698 -0.1680
52.8200 35.1831 -0.1641
52.8400 35.1965 -0.1646
52.8600 35.2098 -0.1690
52.8800 35.2230 -0.1632
52.9000 35.2364 -0.1734
52.9200 35.2497 -0.1717
52.9400 35.2630 -0.1682
52.9600 35.2764 -0.1771
52.9800 35.2897 -0.1703
53.0000 35.3031 -0.1722
53.0200 35.3165 -0.1822
53.0400 35.3298 -0.1739
53.0600 35.3431 -0.1709
53.0800 35.3565 -0.1805
53.1000 35.3698 -0.1822
53.1200 35.3831 -0.1783
53.1400 35.3964 -0.1861
53.1600 35.4097 -0.1803
53.1800 35.4231 -0.1809
53.2000 35.4364 -0.1857
53.2200 35.4498 -0.1862
53.2400 35.4631 -0.1860
53.2600 35.4764 -0.1901
53.2800 35.4898 -0.1921
53.3000 35.5031 -0.1890
53.3200 35.5164 -0.1948
53.3400 35.5297 -0.1876
53.3600 35.5430 -0.1882
53.3800 35.5564 -0.2026
53.4000 35.5697 -0.1904
53.4200 35.5830 -0.1930
53.4400 35.5964 -0.1979
53.4600 35.6098 -0.1902
53.4800 35.6231 -0.2003
53.5000 35.6364 -0.1973
53.5200 35.6498 -0.1945
53.5400 35.6631 -0.2030
53.5600 35.6765 -0.1968
53.5800 35.6898 -0.1995
53.6000 35.7031 -0.2011
53.6200 35.7164 -0.2006
53.6400 35.7298 -0.2036
53.6600 35.7431 -0.2007
53.6800 35.7564 -0.1987
53.7000 35.7697 -0.2051
53.7200 35.7830 -0.2072
53.7400 35.7964 -0.2020
53.7600 35.8097 -0.2101
53.7800 35.8231 -0.2060
53.8000 35.8364 -0.2086
53.8200 35.8498 -0.2123
53.8400 35.8631 -0.2101
53.8600 35.8765 -0.2082
53.8800 35.8898 -0.2197
53.9000 35.9031 -0.2126
53.9200 35.9165 -0.2091
53.9400 35.9298 -0.2131
53.9600 35.9431 -0.2147
53.9800 35.9564 -0.2133
54.0000 35.9697 -0.2179
54.0200 35.9831 -0.2164
54.0400 35.9964 -0.2164
54.0600 36.0097 -0.2209
54.0800 36.0230 -0.2210
54.1000 36.0364 -0.2183
54.1200 36.0498 -0.2211
54.1400 36.0631 -0.2281
54.1600 36.0764 -0.2201
54.1800 36.0898 -0.2246
54.2000 36.1031 -0.2319
54.2200 36.1165 -0.2244
54.2400 36.1298 -0.2297
54.2600 36.1431 -0.2373
54.2800 36.1565 -0.2286
54.3000 36.1698 -0.2452
54.3200 36.1831 -0.2910
54.3400 36.1964 -0.1134
54.3600 36.2098 -0.0402
54.3800 36.2231 -0.0525
54.4000 36.2364 -0.0442
54.4200 36.2497 -0.0578
54.4400 36.2630 -0.0627
54.4600 36.2764 -0.0578
54.4800 36.2897 -0.0544
54.5000 36.3031 -0.0658
54.5200 36.3164 -0.0486
54.5400 36.3298 -0.0594
54.5600 36.3432 -0.0585
54.5800 36.3565 -0.0580
54.6000 36.3698 -0.0556
54.6200 36.3831 -0.0598
54.6400 36.3965 -0.0591
54.6600 36.4098 -0.0606
54.6800 36.4231 -0.0595
54.7000 36.4364 -0.0563
54.7200 36.4497 -0.0582
54.7400 36.4631 -0.0616
54.7600 36.4764 -0.0548
54.7800 36.4897 -0.0617
54.8000 36.5030 -0.0624
54.8200 36.5164 -0.0556
54.8400 36.5297 -0.0597
54.8600 36.5431 -0.0628
54.8800 36.5564 -0.0599
54.9000 36.5698 -0.0584
54.9200 36.5831 -0.0637
54.9400 36.5965 -0.0591
54.9600 36.6098 -0.0597
54.9800 36.6231 -0.0639
55.0000 36.6365 -0.0582
55.0200 36.6498 -0.0640
55.0400 36.6631 -0.0617
55.0600 36.6764 -0.0577
55.0800 36.6897 -0.0693
55.1000 36.7030 -0.0616
55.1200 36.7164 -0.0656
55.1400 36.7297 -0.0656
55.1600 36.7430 -0.0623
55.1800 36.7564 -0.0661
55.2000 36.7697 -0.0679
55.2200 36.7831 -0.0642
55.2400 36.7964 -0.0666
55.2600 36.8098 -0.0679
55.2800 36.8231 -0.0692
55.3000 36.8364 -0.0690
55.3200 36.8497 -0.0635
55.3400 36.8631 -0.0729
55.3600 36.8765 -0.0709
55.3800 36.8898 -0.0639
55.4000 36.9031 -0.0725
55.4200 36.9165 -0.0730
55.4400 36.9298 -0.0678
55.4600 36.9431 -0.0729
55.4800 36.9564 -0.0748
55.5000 36.9697 -0.0653
55.5200 36.9830 -0.0724
55.5400 36.9963 -0.0735
55.5600 37.0096 -0.0682
55.5800 37.0230 -0.0713
55.6000 37.0363 -0.0725
55.6200 37.0498 -0.0662
55.6400 37.0632 -0.0725
55.6600 37.0765 -0.0754
55.6800 37.0899 -0.0699
55.7000 37.1032 -0.0732
55.7200 37.1165 -0.0753
55.7400 37.1298 -0.0688
55.7600 37.1431 -0.0818
55.7800 37.1564 -0.0769
55.8000 37.1697 -0.0663
55.8200 37.1831 -0.0857
55.8400 37.1964 -0.0777
55.8600 37.2097 -0.0653
55.8800 37.2230 -0.0811
55.9000 37.2364 -0.0843
55.9200 37.2497 -0.0642
55.9400 37.2630 -0.0837
55.9600 37.2764 -0.0807
55.9800 37.2897 -0.0731
56.0000 37.3031 -0.0847
56.0200 37.3165 -0.0808
56.0400 37.3298 -0.0760
56.0600 37.3432 -0.0876
56.0800 37.3565 -0.0816
56.1000 37.3698 -0.0807
56.1200 37.3831 -0.0860
56.1400 37.3964 -0.0744
56.1600 37.4097 -0.0762
56.1800 37.4231 -0.0954
56.2000 37.4364 -0.0789
56.2200 37.4497 -0.0800
56.2400 37.4630 -0.0871
56.2600 37.4764 -0.0803
56.2800 37.4897 -0.0859
56.3000 37.5031 -0.0872
56.3200 37.5164 -0.0757
56.3400 37.5297 -0.0813
56.3600 37.5431 -0.0969
56.3800 37.5565 -0.0804
56.4000 37.5698 -0.0828
56.4200 37.5831 -0.0967
56.4400 37.5965 -0.0823
56.4600 37.6098 -0.0855
56.4800 37.6231 -0.0904
56.5000 37.6364 -0.0872
56.5200 37.6498 -0.0911
56.5400 37.6631 -0.0877
56.5600 37.6764 -0.0866
56.5800 37.6897 -0.0871
56.6000 37.7030 -0.0937
56.6200 37.7164 -0.0884
56.6400 37.7297 -0.0881
56.6600 37.7430 -0.0934
56.6800 37.7564 -0.0912
56.7000 37.7698 -0.0877
56.7200 37.7831 -0.0990
56.7400 37.7965 -0.0935
56.7600 37.8098 -0.0872
56.7800 37.8231 -0.0959
56.8000 37.8365 -0.0933
56.8200 37.8498 -0.0846
56.8400 37.8631 -0.1005
56.8600 37.8764 -0.0905
56.8800 37.8897 -0.0901
56.9000 37.9031 -0.0968
56.9200 37.9164 -0.0919
56.9400 37.9297 -0.0945
56.9600 37.9430 -0.0981
56.9800 37.9564 -0.0914
57.0000 37.9697 -0.0944
57.0200 37.9830 -0.0990
57.0400 37.9964 -0.0953
57.0600 38.0098 -0.0978
57.0800 38.0231 -0.0979
57.1000 38.0365 -0.0951
57.1200 38.0498 -0.1004
57.1400 38.0631 -0.0977
57.1600 38.0765 -0.0985
57.1800 38.0899 -0.1027
57.2000 38.1032 -0.0987
57.2200 38.1164 -0.1025
57.2400 38.1297 -0.1045
57.2600 38.1431 -0.0954
57.2800 38.1564 -0.1072
57.3000 38.1697 -0.1043
57.3200 38.1830 -0.0986
57.3400 38.1964 -0.1115
57.3600 38.2097 -0.1051
57.3800 38.2230 -0.0986
57.4000 38.2364 -0.1099
57.4200 38.2497 -0.1065
57.4400 38.2631 -0.0994
57.4600 38.2765 -0.1100
57.4800 38.2898 -0.1065
57.5000 38.3031 -0.1042
57.5200 38.3165 -0.1108
57.5400 38.3298 -0.1103
57.5600 38.3431 -0.1074
57.5800 38.3564 -0.1155
57.6000 38.3698 -0.1086
57.6200 38.3831 -0.1068
57.6400 38.3964 -0.1130
57.6600 38.4097 -0.1094
57.6800 38.4230 -0.1094
57.7000 38.4363 -0.1166
57.7200 38.4497 -0.1094
57.7400 38.4630 -0.1138
57.7600 38.4764 -0.1162
57.7800 38.4897 -0.1115
57.8000 38.5031 -0.1182
57.8200 38.5165 -0.1203
57.8400 38.5298 -0.1124
57.8600 38.5432 -0.1162
57.8800 38.5565 -0.1169
57.9000 38.5698 -0.1183
57.9200 38.5831 -0.1171
57.9400 38.5964 -0.1130
57.9600 38.6097 -0.1223
57.9800 38.6230 -0.1120
58.0000 38.6364 -0.1159
58.0200 38.6497 -0.1265
58.0400 38.6630 -0.1116
58.0600 38.6764 -0.1144
58.0800 38.6898 -0.1262
58.1000 38.7031 -0.1097
58.1200 38.7164 -0.1201
58.1400 38.7298 -0.1286
58.1600 38.7432 -0.1086
58.1800 38.7565 -0.1224
58.2000 38.7698 -0.1309
58.2200 38.7831 -0.1102
58.2400 38.7964 -0.1244
58.2600 38.8098 -0.1311
58.2800 38.8231 -0.1070
58.3000 38.8364 -0.1250
58.3200 38.8497 -0.1356
58.3400 38.8631 -0.1117
58.3600 38.8764 -0.1319
58.3800 38.8897 -0.1302
58.4000 38.9030 -0.1109
58.4200 38.9164 -0.1387
58.4400 38.9297 -0.1290
58.4600 38.9431 -0.1172
58.4800 38.9564 -0.1391
58.5000 38.9698 -0.1277
58.5200 38.9832 -0.1208
58.5400 38.9965 -0.1384
58.5600 39.0098 -0.1330
58.5800 39.0231 -0.1248
58.6000 39.0365 -0.1377
58.6200 39.0498 -0.1315
58.6400 39.0631 -0.1333
58.6600 39.0764 -0.1384
58.6800 39.0897 -0.1282
58.7000 39.1031 -0.1335
58.7200 39.1164 -0.1386
58.7400 39.1297 -0.1312
58.7600 39.1430 -0.1340
58.7800 39.1564 -0.1413
58.8000 39.1697 -0.1371
58.8200 39.1831 -0.1364
58.8400 39.1964 -0.1407
58.8600 39.2097 -0.1405
58.8800 39.2231 -0.1367
58.9000 39.2365 -0.1423
58.9200 39.2498 -0.1408
58.9400 39.2631 -0.1345
58.9600 39.2765 -0.1426
58.9800 39.2898 -0.1413
59.0000 39.3031 -0.1366
59.0200 39.3164 -0.1471
59.0400 39.3297 -0.1425
59.0600 39.3431 -0.1389
59.0800 39.3564 -0.1499
59.1000 39.3697 -0.1466
59.1200 39.3831 -0.1375
59.1400 39.3964 -0.1519
59.1600 39.4097 -0.1473
59.1800 39.4231 -0.1408
59.2000 39.4364 -0.1540
59.2200 39.4497 -0.1414
59.2400 39.4631 -0.1425
59.2600 39.4764 -0.1580
59.2800 39.4898 -0.1435
59.3000 39.5031 -0.1452
59.3200 39.5165 -0.1571
59.3400 39.5298 -0.1479
59.3600 39.5431 -0.1493
59.3800 39.5564 -0.1550
59.4000 39.5697 -0.1527
59.4200 39.5830 -0.1539
59.4400 39.5964 -0.1498
59.4600 39.6097 -0.1579
59.4800 39.6230 -0.1548
59.5000 39.6364 -0.1504
59.5200 39.6497 -0.1607
59.5400 39.6631 -0.1566
59.5600 39.6764 -0.1530
59.5800 39.6897 -0.1627
59.6000 39.7031 -0.1536
59.6200 39.7165 -0.1507
59.6400 39.7298 -0.1671
59.6600 39.7431 -0.1513
59.6800 39.7565 -0.1521
59.7000 39.7698 -0.1702
59.7200 39.7832 -0.1534
59.7400 39.7964 -0.1556
59.7600 39.8097 -0.1732
59.7800 39.8231 -0.1493
59.8000 39.8364 -0.1649
59.8200 39.8498 -0.1725
59.8400 39.8630 -0.1505
59.8600 39.8764 -0.1655
59.8800 39.8897 -0.1740
59.9000 39.9030 -0.1556
59.9200 39.9164 -0.1661
59.9400 39.9297 -0.1763
59.9600 39.9431 -0.1599
59.9800 39.9565 -0.1703
60.0000 39.9698 -0.1761
60.0200 39.9831 -0.1601
60.0400 39.9964 -0.1803
60.0460 40.0003 -0.1965
