Raw Data
Time Displacement Force
(s) (mm) (N)
0.0000 0.0000 0.4381
0.0200 0.0001 0.4595
0.0400 0.0021 0.5230
0.0600 0.0098 0.5621
0.0800 0.0215 0.5056
0.1000 0.0338 0.4942
0.1200 0.0465 0.5279
0.1400 0.0601 0.4903
0.1600 0.0742 0.4808
0.1800 0.0885 0.4862
0.2000 0.1024 0.4733
0.2200 0.1160 0.4685
0.2400 0.1293 0.4784
0.2600 0.1426 0.4711
0.2800 0.1559 0.4745
0.3000 0.1693 0.4774
0.3200 0.1827 0.4772
0.3400 0.1961 0.4944
0.3600 0.2094 0.4832
0.3800 0.2227 0.4836
0.4000 0.2361 0.4877
0.4200 0.2494 0.4736
0.4400 0.2627 0.4847
0.4600 0.2760 0.4752
0.4800 0.2894 0.4653
0.5000 0.3027 0.4727
0.5200 0.3160 0.4652
0.5400 0.3293 0.4655
0.5600 0.3427 0.4715
0.5800 0.3560 0.4620
0.6000 0.3694 0.4626
0.6200 0.3827 0.4688
0.6400 0.3961 0.4619
0.6600 0.4094 0.4590
0.6800 0.4228 0.4657
0.7000 0.4361 0.4586
0.7200 0.4494 0.4565
0.7400 0.4628 0.4634
0.7600 0.4761 0.4561
0.7800 0.4895 0.4555
0.8000 0.5028 0.4555
0.8200 0.5161 0.4555
0.8400 0.5294 0.4514
0.8600 0.5427 0.4558
0.8800 0.5560 0.4516
0.9000 0.5693 0.4496
0.9200 0.5826 0.4506
0.9400 0.5960 0.4482
0.9600 0.6094 0.4435
0.9800 0.6227 0.4432
1.0000 0.6360 0.4453
1.0200 0.6494 0.4390
1.0400 0.6628 0.4410
1.0600 0.6761 0.4433
1.0800 0.6894 0.4345
1.1000 0.7027 0.4396
1.1200 0.7161 0.4408
1.1400 0.7294 0.4300
1.1600 0.7427 0.4388
1.1800 0.7560 0.4426
1.2000 0.7694 0.4294
1.2200 0.7827 0.4348
1.2400 0.7961 0.4373
1.2600 0.8094 0.4272
1.2800 0.8227 0.4362
1.3000 0.8360 0.4296
1.3200 0.8494 0.4273
1.3400 0.8627 0.4376
1.3600 0.8760 0.4297
1.3800 0.8894 0.4271
1.4000 0.9028 0.4340
1.4200 0.9161 0.4307
1.4400 0.9294 0.4247
1.4600 0.9427 0.4267
1.4800 0.9561 0.4339
1.5000 0.9695 0.4204
1.5200 0.9828 0.4329
1.5400 0.9961 0.4377
1.5600 1.0094 0.4261
1.5800 1.0227 0.4342
1.6000 1.0360 0.4284
1.6200 1.0493 0.4207
1.6400 1.0626 0.4322
1.6600 1.0760 0.4235
1.6800 1.0894 0.4185
1.7000 1.1027 0.4292
1.7200 1.1161 0.4257
1.7400 1.1294 0.4147
1.7600 1.1428 0.4264
1.7800 1.1562 0.4228
1.8000 1.1695 0.4152
1.8200 1.1828 0.4284
1.8400 1.1961 0.4166
1.8600 1.2095 0.4123
1.8800 1.2228 0.4215
1.9000 1.2361 0.4160
1.9200 1.2494 0.4160
1.9400 1.2627 0.4220
1.9600 1.2761 0.4105
1.9800 1.2893 0.4094
2.0000 1.3027 0.4143
2.0200 1.3160 0.4063
2.0400 1.3294 0.4113
2.0600 1.3427 0.4119
2.0800 1.3560 0.4035
2.1000 1.3694 0.4104
2.1200 1.3828 0.4033
2.1400 1.3961 0.4072
2.1600 1.4095 0.4053
2.1800 1.4228 0.4054
2.2000 1.4361 0.4062
2.2200 1.4494 0.4019
2.2400 1.4627 0.4023
2.2600 1.4760 0.4052
2.2800 1.4893 0.4032
2.3000 1.5027 0.3998
2.3200 1.5160 0.3993
2.3400 1.5294 0.3962
2.3600 1.5427 0.3969
2.3800 1.5561 0.4037
2.4000 1.5694 0.3926
2.4200 1.5828 0.3955
2.4400 1.5961 0.4018
2.4600 1.6094 0.3922
2.4800 1.6228 0.3961
2.5000 1.6360 0.3976
2.5200 1.6493 0.3942
2.5400 1.6627 0.3993
2.5600 1.6761 0.3946
2.5800 1.6894 0.3912
2.6000 1.7028 0.3966
2.6200 1.7161 0.3883
2.6400 1.7294 0.3893
2.6600 1.7428 0.3947
2.6800 1.7561 0.3869
2.7000 1.7694 0.3920
2.7200 1.7827 0.3931
2.7400 1.7960 0.3834
2.7600 1.8094 0.3869
2.7800 1.8227 0.3858
2.8000 1.8360 0.3891
2.8200 1.8494 0.3869
2.8400 1.8627 0.3868
2.8600 1.8761 0.3822
2.8800 1.8894 0.3860
2.9000 1.9027 0.3871
2.9200 1.9161 0.3787
2.9400 1.9295 0.3853
2.9600 1.9428 0.3833
2.9800 1.9561 0.3764
3.0000 1.9694 0.3837
3.0200 1.9828 0.3769
3.0400 1.9961 0.3722
3.0600 2.0094 0.3830
3.0800 2.0227 0.3759
3.1000 2.0360 0.3715
3.1200 2.0494 0.3833
3.1400 2.0627 0.3710
3.1600 2.0760 0.3694
3.1800 2.0894 0.3845
3.2000 2.1028 0.3648
3.2200 2.1161 0.3707
3.2400 2.1295 0.3798
3.2600 2.1428 0.3644
3.2800 2.1561 0.3684
3.3000 2.1695 0.3766
3.3200 2.1828 0.3622
3.3400 2.1961 0.3697
3.3600 2.2094 0.3726
3.3800 2.2227 0.3584
3.4000 2.2361 0.3672
3.4200 2.2494 0.3687
3.4400 2.2627 0.3612
3.4600 2.2760 0.3695
3.4800 2.2894 0.3675
3.5000 2.3027 0.3587
3.5200 2.3161 0.3688
3.5400 2.3294 0.3705
3.5600 2.3428 0.3537
3.5800 2.3561 0.3641
3.6000 2.3694 0.3657
3.6200 2.3828 0.3544
3.6400 2.3961 0.3623
3.6600 2.4095 0.3616
3.6800 2.4228 0.3535
3.7000 2.4361 0.3630
3.7200 2.4494 0.3611
3.7400 2.4628 0.3542
3.7600 2.4761 0.3595
3.7800 2.4894 0.3585
3.8000 2.5027 0.3509
3.8200 2.5160 0.3576
3.8400 2.5293 0.3548
3.8600 2.5427 0.3530
3.8800 2.5560 0.3569
3.9000 2.5694 0.3496
3.9200 2.5828 0.3466
3.9400 2.5961 0.3548
3.9600 2.6095 0.3551
3.9800 2.6228 0.3491
4.0000 2.6361 0.3526
4.0200 2.6494 0.3537
4.0400 2.6628 0.3502
4.0600 2.6761 0.3475
4.0800 2.6894 0.3514
4.1000 2.7027 0.3503
4.1200 2.7161 0.3480
4.1400 2.7294 0.3512
4.1600 2.7427 0.3436
4.1800 2.7560 0.3395
4.2000 2.7694 0.3559
4.2200 2.7827 0.3379
4.2400 2.7960 0.3440
4.2600 2.8094 0.3523
4.2800 2.8228 0.3356
4.3000 2.8361 0.3391
4.3200 2.8494 0.3501
4.3400 2.8628 0.3366
4.3600 2.8761 0.3399
4.3800 2.8895 0.3464
4.4000 2.9028 0.3325
4.4200 2.9161 0.3331
4.4400 2.9294 0.3449
4.4600 2.9427 0.3356
4.4800 2.9561 0.3402
4.5000 2.9694 0.3412
4.5200 2.9827 0.3297
4.5400 2.9960 0.3342
4.5600 3.0094 0.3418
4.5800 3.0227 0.3313
4.6000 3.0360 0.3320
4.6200 3.0494 0.3384
4.6400 3.0627 0.3305
4.6600 3.0761 0.3298
4.6800 3.0894 0.3380
4.7000 3.1027 0.3315
4.7200 3.1161 0.3319
4.7400 3.1295 0.3319
4.7600 3.1428 0.3263
4.7800 3.1561 0.3298
4.8000 3.1694 0.3323
4.8200 3.1828 0.3270
4.8400 3.1961 0.3292
4.8600 3.2094 0.3298
4.8800 3.2227 0.3282
4.9000 3.2360 0.3224
4.9200 3.2493 0.3271
4.9400 3.2626 0.3264
4.9600 3.2760 0.3191
4.9800 3.2894 0.3304
5.0000 3.3028 0.3222
5.0200 3.3162 0.3152
5.0400 3.3295 0.3265
5.0600 3.3428 0.3237
5.0800 3.3561 0.3156
5.1000 3.3695 0.3241
5.1200 3.3828 0.3195
5.1400 3.3961 0.3127
5.1600 3.4094 0.3260
5.1800 3.4227 0.3170
5.2000 3.4361 0.3129
5.2200 3.4494 0.3223
5.2400 3.4627 0.3101
5.2600 3.4760 0.3173
5.2800 3.4894 0.3220
5.3000 3.5027 0.3104
5.3200 3.5160 0.3123
5.3400 3.5294 0.3200
5.3600 3.5427 0.3106
5.3800 3.5561 0.3129
5.4000 3.5695 0.3164
5.4200 3.5828 0.3091
5.4400 3.5961 0.3138
5.4600 3.6095 0.3131
5.4800 3.6228 0.3083
5.5000 3.6361 0.3140
5.5200 3.6494 0.3084
5.5400 3.6627 0.3074
5.5600 3.6761 0.3100
5.5800 3.6894 0.3096
5.6000 3.7027 0.3085
5.6200 3.7160 0.3058
5.6400 3.7294 0.3075
5.6600 3.7427 0.3081
5.6800 3.7561 0.3018
5.7000 3.7694 0.3089
5.7200 3.7827 0.3128
5.7400 3.7961 0.2933
5.7600 3.8094 0.3065
5.7800 3.8227 0.3085
5.8000 3.8361 0.2916
5.8200 3.8495 0.3059
5.8400 3.8628 0.3079
5.8600 3.8761 0.2910
5.8800 3.8894 0.3055
5.9000 3.9028 0.3036
5.9200 3.9161 0.2888
5.9400 3.9294 0.3060
5.9600 3.9427 0.2982
5.9800 3.9560 0.2870
6.0000 3.9694 0.3069
6.0200 3.9827 0.2938
6.0400 3.9961 0.2889
6.0600 4.0094 0.3065
6.0800 4.0228 0.2942
6.1000 4.0361 0.2911
6.1200 4.0495 0.3030
6.1400 4.0628 0.2915
6.1600 4.0761 0.2925
6.1800 4.0894 0.3024
6.2000 4.1028 0.2919
6.2200 4.1161 0.2888
6.2400 4.1294 0.3008
6.2600 4.1427 0.2920
6.2800 4.1561 0.2927
6.3000 4.1694 0.2972
6.3200 4.1827 0.2876
6.3400 4.1960 0.2939
6.3600 4.2094 0.2905
6.3800 4.2227 0.2900
6.4000 4.2360 0.2948
6.4200 4.2494 0.2917
6.4400 4.2627 0.2885
6.4600 4.2761 0.2925
6.4800 4.2894 0.2901
6.5000 4.3028 0.2884
6.5200 4.3161 0.2901
6.5400 4.3295 0.2841
6.5600 4.3428 0.2889
6.5800 4.3561 0.2877
6.6000 4.3694 0.2843
6.6200 4.3827 0.2882
6.6400 4.3961 0.2849
6.6600 4.4094 0.2833
6.6800 4.4227 0.2840
6.7000 4.4360 0.2821
6.7200 4.4493 0.2818
6.7400 4.4627 0.2854
6.7600 4.4760 0.2784
6.7800 4.4894 0.2748
6.8000 4.5027 0.2849
6.8200 4.5161 0.2767
6.8400 4.5294 0.2745
6.8600 4.5427 0.2807
6.8800 4.5561 0.2742
6.9000 4.5694 0.2732
6.9200 4.5828 0.2786
6.9400 4.5961 0.2753
6.9600 4.6094 0.2732
6.9800 4.6227 0.2810
7.0000 4.6361 0.2720
7.0200 4.6494 0.2702
7.0400 4.6627 0.2772
7.0600 4.6760 0.2716
7.0800 4.6893 0.2706
7.1000 4.7026 0.2740
7.1200 4.7160 0.2710
7.1400 4.7294 0.2672
7.1600 4.7427 0.2740
7.1800 4.7561 0.2726
7.2000 4.7695 0.2629
7.2200 4.7828 0.2708
7.2400 4.7962 0.2721
7.2600 4.8095 0.2633
7.2800 4.8228 0.2705
7.3000 4.8361 0.2689
7.3200 4.8493 0.2658
7.3400 4.8626 0.2665
7.3600 4.8760 0.2671
7.3800 4.8893 0.2622
7.4000 4.9027 0.2679
7.4200 4.9160 0.2636
7.4400 4.9294 0.2579
7.4600 4.9428 0.2653
7.4800 4.9561 0.2618
7.5000 4.9694 0.2557
7.5200 4.9828 0.2641
7.5400 4.9961 0.2577
7.5600 5.0095 0.2557
7.5800 5.0228 0.2602
7.6000 5.0361 0.2591
7.6200 5.0494 0.2517
7.6400 5.0628 0.2555
7.6600 5.0761 0.2581
7.6800 5.0894 0.2541
7.7000 5.1027 0.2548
7.7200 5.1161 0.2557
7.7400 5.1294 0.2487
7.7600 5.1427 0.2505
7.7800 5.1560 0.2590
7.8000 5.1693 0.2475
7.8200 5.1827 0.2532
7.8400 5.1960 0.2553
7.8600 5.2094 0.2477
7.8800 5.2227 0.2541
7.9000 5.2361 0.2536
7.9200 5.2494 0.2419
7.9400 5.2628 0.2481
7.9600 5.2761 0.2515
7.9800 5.2894 0.2418
8.0000 5.3028 0.2477
8.0200 5.3161 0.2545
8.0400 5.3294 0.2354
8.0600 5.3427 0.2496
8.0800 5.3561 0.2511
8.1000 5.3694 0.2403
8.1200 5.3827 0.2490
8.1400 5.3960 0.2477
8.1600 5.4093 0.2403
8.1800 5.4227 0.2474
8.2000 5.4360 0.2522
8.2200 5.4494 0.2406
8.2400 5.4627 0.2460
8.2600 5.4761 0.2498
8.2800 5.4895 0.2367
8.3000 5.5028 0.2471
8.3200 5.5161 0.2517
8.3400 5.5294 0.2366
8.3600 5.5428 0.2428
8.3800 5.5561 0.2492
8.4000 5.5694 0.2368
8.4200 5.5827 0.2454
8.4400 5.5961 0.2482
8.4600 5.6094 0.2332
8.4800 5.6227 0.2447
8.5000 5.6360 0.2473
8.5200 5.6494 0.2338
8.5400 5.6627 0.2452
8.5600 5.6761 0.2433
8.5800 5.6894 0.2329
8.6000 5.7027 0.2410
8.6200 5.7161 0.2437
8.6400 5.7294 0.2301
8.6600 5.7428 0.2386
8.6800 5.7561 0.2454
8.7000 5.7694 0.2280
8.7200 5.7828 0.2386
8.7400 5.7961 0.2413
8.7600 5.8094 0.2284
8.7800 5.8227 0.2375
8.8000 5.8361 0.2386
8.8200 5.8494 0.2276
8.8400 5.8627 0.2340
8.8600 5.8760 0.2378
8.8800 5.8893 0.2258
8.9000 5.9027 0.2278
8.9200 5.9161 0.2381
8.9400 5.9294 0.2254
8.9600 5.9428 0.2296
8.9800 5.9561 0.2352
9.0000 5.9695 0.2212
9.0200 5.9828 0.2240
9.0400 5.9961 0.2365
9.0600 6.0094 0.2216
9.0800 6.0228 0.2262
9.1000 6.0361 0.2304
9.1200 6.0494 0.2201
9.1400 6.0627 0.2206
9.1600 6.0760 0.2294
9.1800 6.0894 0.2216
9.2000 6.1027 0.2244
9.2200 6.1160 0.2232
9.2400 6.1293 0.2205
9.2600 6.1427 0.2228
9.2800 6.1560 0.2227
9.3000 6.1694 0.2211
9.3200 6.1827 0.2198
9.3400 6.1961 0.2234
9.3600 6.2095 0.2170
9.3800 6.2228 0.2135
9.4000 6.2361 0.2251
9.4200 6.2494 0.2205
9.4400 6.2628 0.2134
9.4600 6.2761 0.2214
9.4800 6.2894 0.2171
9.5000 6.3027 0.2152
9.5200 6.3160 0.2221
9.5400 6.3294 0.2167
9.5600 6.3427 0.2142
9.5800 6.3560 0.2140
9.6000 6.3694 0.2129
9.6200 6.3827 0.2138
9.6400 6.3961 0.2159
9.6600 6.4094 0.2100
9.6800 6.4228 0.2150
9.7000 6.4361 0.2145
9.7200 6.4495 0.2057
9.7400 6.4628 0.2157
9.7600 6.4760 0.2136
9.7800 6.4894 0.2088
9.8000 6.5027 0.2120
9.8200 6.5161 0.2113
9.8400 6.5294 0.2063
9.8600 6.5428 0.2083
9.8800 6.5561 0.2053
9.9000 6.5695 0.2059
9.9200 6.5828 0.2081
9.9400 6.5961 0.2067
9.9600 6.6094 0.2047
9.9800 6.6227 0.2041
10.0000 6.6360 0.1979
10.0200 6.6494 0.2080
10.0400 6.6627 0.2000
10.0600 6.6761 0.2011
10.0800 6.6894 0.2063
10.1000 6.7028 0.1947
10.1200 6.7161 0.1973
10.1400 6.7294 0.2040
10.1600 6.7428 0.1986
10.1800 6.7561 0.1991
10.2000 6.7694 0.2024
10.2200 6.7827 0.1917
10.2400 6.7961 0.1994
10.2600 6.8094 0.2011
10.2800 6.8227 0.1885
10.3000 6.8360 0.2009
10.3200 6.8494 0.1984
10.3400 6.8627 0.1886
10.3600 6.8760 0.1975
10.3800 6.8894 0.1959
10.4000 6.9027 0.1902
10.4200 6.9161 0.1958
10.4400 6.9295 0.1969
10.4600 6.9428 0.1873
10.4800 6.9561 0.1906
10.5000 6.9694 0.1967
10.5200 6.9828 0.1883
10.5400 6.9961 0.1865
10.5600 7.0094 0.1985
10.5800 7.0227 0.1862
10.6000 7.0360 0.1858
10.6200 7.0494 0.1978
10.6400 7.0627 0.1876
10.6600 7.0760 0.1845
10.6800 7.0894 0.1995
10.7000 7.1027 0.1850
10.7200 7.1161 0.1839
10.7400 7.1294 0.1946
10.7600 7.1427 0.1856
10.7800 7.1561 0.1884
10.8000 7.1694 0.1969
10.8200 7.1828 0.1805
10.8400 7.1961 0.1823
10.8600 7.2094 0.1930
10.8800 7.2228 0.1807
10.9000 7.2361 0.1825
10.9200 7.2494 0.1880
10.9400 7.2627 0.1852
10.9600 7.2761 0.1828
10.9800 7.2894 0.1878
11.0000 7.3027 0.1807
11.0200 7.3160 0.1791
11.0400 7.3293 0.1870
11.0600 7.3427 0.1788
11.0800 7.3560 0.1750
11.1000 7.3694 0.1839
11.1200 7.3827 0.1802
11.1400 7.3961 0.1746
11.1600 7.4095 0.1808
11.1800 7.4228 0.1808
11.2000 7.4361 0.1729
11.2200 7.4494 0.1779
11.2400 7.4628 0.1778
11.2600 7.4761 0.1743
11.2800 7.4894 0.1774
11.3000 7.5027 0.1765
11.3200 7.5161 0.1721
11.3400 7.5294 0.1766
11.3600 7.5427 0.1750
11.3800 7.5561 0.1690
11.4000 7.5694 0.1802
11.4200 7.5827 0.1771
11.4400 7.5960 0.1661
11.4600 7.6094 0.1748
11.4800 7.6227 0.1734
11.5000 7.6361 0.1726
11.5200 7.6495 0.1698
11.5400 7.6628 0.1707
11.5600 7.6761 0.1711
11.5800 7.6894 0.1707
11.6000 7.7028 0.1729
11.6200 7.7161 0.1650
11.6400 7.7294 0.1654
11.6600 7.7427 0.1734
11.6800 7.7560 0.1619
11.7000 7.7694 0.1644
11.7200 7.7827 0.1738
11.7400 7.7960 0.1587
11.7600 7.8093 0.1649
11.7800 7.8227 0.1717
11.8000 7.8360 0.1570
11.8200 7.8494 0.1624
11.8400 7.8627 0.1686
11.8600 7.8760 0.1535
11.8800 7.8894 0.1647
11.9000 7.9027 0.1666
11.9200 7.9160 0.1516
11.9400 7.9294 0.1690
11.9600 7.9427 0.1644
11.9800 7.9561 0.1460
12.0000 7.9695 0.1665
12.0200 7.9828 0.1574
12.0400 7.9961 0.1505
12.0600 8.0094 0.1628
12.0800 8.0228 0.1569
12.1000 8.0360 0.1500
12.1200 8.0493 0.1657
12.1400 8.0626 0.1588
12.1600 8.0760 0.1485
12.1800 8.0893 0.1658
12.2000 8.1027 0.1539
12.2200 8.1160 0.1471
12.2400 8.1295 0.1616
12.2600 8.1428 0.1508
12.2800 8.1562 0.1451
12.3000 8.1695 0.1589
12.3200 8.1828 0.1512
12.3400 8.1962 0.1440
12.3600 8.2095 0.1599
12.3800 8.2227 0.1478
12.4000 8.2360 0.1448
12.4200 8.2494 0.1523
12.4400 8.2627 0.1480
12.4600 8.2760 0.1503
12.4800 8.2893 0.1519
12.5000 8.3027 0.1433
12.5200 8.3160 0.1454
12.5400 8.3294 0.1499
12.5600 8.3427 0.1434
12.5800 8.3560 0.1491
12.6000 8.3694 0.1472
12.6200 8.3828 0.1408
12.6400 8.3962 0.1462
12.6600 8.4095 0.1462
12.6800 8.4228 0.1429
12.7000 8.4361 0.1419
12.7200 8.4494 0.1452
12.7400 8.4627 0.1448
12.7600 8.4760 0.1364
12.7800 8.4894 0.1447
12.8000 8.5027 0.1412
12.8200 8.5160 0.1394
12.8400 8.5293 0.1412
12.8600 8.5427 0.1384
12.8800 8.5561 0.1359
12.9000 8.5694 0.1381
12.9200 8.5827 0.1397
12.9400 8.5961 0.1381
12.9600 8.6094 0.1390
12.9800 8.6228 0.1402
13.0000 8.6361 0.1337
13.0200 8.6494 0.1360
13.0400 8.6628 0.1386
13.0600 8.6761 0.1346
13.0800 8.6895 0.1363
13.1000 8.7028 0.1341
13.1200 8.7161 0.1348
13.1400 8.7294 0.1361
13.1600 8.7427 0.1350
13.1800 8.7560 0.1327
13.2000 8.7693 0.1353
13.2200 8.7827 0.1340
13.2400 8.7960 0.1302
13.2600 8.8094 0.1351
13.2800 8.8227 0.1355
13.3000 8.8361 0.1299
13.3200 8.8495 0.1314
13.3400 8.8628 0.1333
13.3600 8.8761 0.1319
13.3800 8.8894 0.1267
13.4000 8.9028 0.1308
13.4200 8.9161 0.1280
13.4400 8.9294 0.1312
13.4600 8.9427 0.1319
13.4800 8.9560 0.1301
13.5000 8.9694 0.1276
13.5200 8.9827 0.1323
13.5400 8.9961 0.1284
13.5600 9.0094 0.1272
13.5800 9.0227 0.1320
13.6000 9.0360 0.1276
13.6200 9.0494 0.1225
13.6400 9.0627 0.1318
13.6600 9.0760 0.1246
13.6800 9.0894 0.1223
13.7000 9.1028 0.1292
13.7200 9.1161 0.1228
13.7400 9.1294 0.1212
13.7600 9.1428 0.1296
13.7800 9.1562 0.1173
13.8000 9.1695 0.1215
13.8200 9.1828 0.1294
13.8400 9.1961 0.1162
13.8600 9.2094 0.1219
13.8800 9.2227 0.1274
13.9000 9.2360 0.1166
13.9200 9.2494 0.1242
13.9400 9.2627 0.1254
13.9600 9.2760 0.1167
13.9800 9.2894 0.1246
14.0000 9.3027 0.1207
14.0200 9.3160 0.1166
14.0400 9.3294 0.1211
14.0600 9.3427 0.1176
14.0800 9.3561 0.1169
14.1000 9.3694 0.1207
14.1200 9.3828 0.1186
14.1400 9.3961 0.1123
14.1600 9.4095 0.1127
14.1800 9.4228 0.1142
14.2000 9.4361 0.1179
14.2200 9.4494 0.1153
14.2400 9.4628 0.1072
14.2600 9.4761 0.1170
14.2800 9.4893 0.1096
14.3000 9.5026 0.1092
14.3200 9.5160 0.1167
14.3400 9.5293 0.1064
14.3600 9.5427 0.1069
14.3800 9.5560 0.1139
14.4000 9.5694 0.1066
14.4200 9.5828 0.1109
14.4400 9.5962 0.1105
14.4600 9.6095 0.1042
14.4800 9.6228 0.1092
14.5000 9.6361 0.1151
14.5200 9.6494 0.0991
14.5400 9.6627 0.1098
14.5600 9.6760 0.1134
14.5800 9.6893 0.0996
14.6000 9.7027 0.1062
14.6200 9.7160 0.1091
14.6400 9.7294 0.0999
14.6600 9.7427 0.1032
14.6800 9.7561 0.1087
14.7000 9.7694 0.0982
14.7200 9.7828 0.1016
14.7400 9.7961 0.1057
14.7600 9.8095 0.0977
14.7800 9.8228 0.1003
14.8000 9.8361 0.1011
14.8200 9.8494 0.1035
14.8400 9.8627 0.0977
14.8600 9.8761 0.0990
14.8800 9.8894 0.0996
14.9000 9.9027 0.0977
14.9200 9.9160 0.1004
14.9400 9.9294 0.0989
14.9600 9.9427 0.0970
14.9800 9.9561 0.0965
15.0000 9.9694 0.0996
15.0200 9.9827 0.0988
15.0400 9.9960 0.0997
15.0600 10.0094 0.0987
15.0800 10.0227 0.0963
15.1000 10.0361 0.0991
15.1200 10.0494 0.1016
15.1400 10.0628 0.0937
15.1600 10.0761 0.0984
15.1800 10.0894 0.1024
15.2000 10.1028 0.0909
15.2200 10.1161 0.1014
15.2400 10.1295 0.0961
15.2600 10.1428 0.0893
15.2800 10.1561 0.1058
15.3000 10.1694 0.0938
15.3200 10.1828 0.0904
15.3400 10.1961 0.0990
15.3600 10.2093 0.0944
15.3800 10.2226 0.0924
15.4000 10.2360 0.0997
15.4200 10.2494 0.0900
15.4400 10.2627 0.0919
15.4600 10.2760 0.0948
15.4800 10.2894 0.0894
15.5000 10.3028 0.0937
15.5200 10.3161 0.0917
15.5400 10.3295 0.0876
15.5600 10.3428 0.0899
15.5800 10.3561 0.0918
15.6000 10.3695 0.0861
15.6200 10.3827 0.0895
15.6400 10.3960 0.0934
15.6600 10.4094 0.0898
15.6800 10.4227 0.0873
15.7000 10.4361 0.0877
15.7200 10.4494 0.0886
15.7400 10.4627 0.0879
15.7600 10.4760 0.0883
15.7800 10.4894 0.0875
15.8000 10.5027 0.0826
15.8200 10.5160 0.0901
15.8400 10.5294 0.0846
15.8600 10.5427 0.0800
15.8800 10.5561 0.0943
15.9000 10.5694 0.0835
15.9200 10.5827 0.0821
15.9400 10.5961 0.0946
15.9600 10.6095 0.0802
15.9800 10.6228 0.0815
16.0000 10.6361 0.0910
16.0200 10.6494 0.0819
16.0400 10.6627 0.0802
16.0600 10.6760 0.0871
16.0800 10.6894 0.0806
16.1000 10.7027 0.0766
16.1200 10.7160 0.0894
16.1400 10.7294 0.0803
16.1600 10.7427 0.0776
16.1800 10.7561 0.0845
16.2000 10.7694 0.0795
16.2200 10.7828 0.0744
16.2400 10.7961 0.0813
16.2600 10.8094 0.0813
16.2800 10.8228 0.0726
16.3000 10.8361 0.0807
16.3200 10.8495 0.0763
16.3400 10.8628 0.0722
16.3600 10.8761 0.0867
16.3800 10.8894 0.0753
16.4000 10.9027 0.0707
16.4200 10.9161 0.0831
16.4400 10.9294 0.0724
16.4600 10.9427 0.0695
16.4800 10.9560 0.0830
16.5000 10.9694 0.0743
16.5200 10.9827 0.0703
16.5400 10.9960 0.0820
16.5600 11.0094 0.0679
16.5800 11.0228 0.0676
16.6000 11.0361 0.0800
16.6200 11.0494 0.0641
16.6400 11.0628 0.0685
16.6600 11.0761 0.0779
16.6800 11.0895 0.0633
16.7000 11.1027 0.0667
16.7200 11.1160 0.0808
16.7400 11.1293 0.0667
16.7600 11.1427 0.0639
16.7800 11.1560 0.0741
16.8000 11.1694 0.0694
16.8200 11.1827 0.0611
16.8400 11.1961 0.0724
16.8600 11.2094 0.0677
16.8800 11.2228 0.0589
16.9000 11.2361 0.0728
16.9200 11.2494 0.0683
16.9400 11.2628 0.0533
16.9600 11.2761 0.0685
16.9800 11.2894 0.0705
17.0000 11.3027 0.0516
17.0200 11.3161 0.0642
17.0400 11.3294 0.0717
17.0600 11.3428 0.0509
17.0800 11.3561 0.0637
17.1000 11.3694 0.0714
17.1200 11.3828 0.0513
17.1400 11.3961 0.0679
17.1600 11.4094 0.0610
17.1800 11.4227 0.0503
17.2000 11.4360 0.0682
17.2200 11.4494 0.0597
17.2400 11.4627 0.0468
17.2600 11.4760 0.0685
17.2800 11.4894 0.0612
17.3000 11.5027 0.0460
17.3200 11.5161 0.0661
17.3400 11.5294 0.0604
17.3600 11.5427 0.0523
17.3800 11.5561 0.0664
17.4000 11.5695 0.0503
17.4200 11.5828 0.0516
17.4400 11.5961 0.0649
17.4600 11.6094 0.0534
17.4800 11.6228 0.0490
17.5000 11.6361 0.0634
17.5200 11.6494 0.0557
17.5400 11.6627 0.0480
17.5600 11.6760 0.0630
17.5800 11.6893 0.0568
17.6000 11.7027 0.0496
17.6200 11.7160 0.0565
17.6400 11.7294 0.0562
17.6600 11.7428 0.0522
17.6800 11.7561 0.0486
17.7000 11.7695 0.0562
17.7200 11.7828 0.0460
17.7400 11.7961 0.0523
17.7600 11.8095 0.0571
17.7800 11.8228 0.0470
17.8000 11.8361 0.0539
17.8200 11.8494 0.0546
17.8400 11.8627 0.0493
17.8600 11.8761 0.0516
17.8800 11.8894 0.0529
17.9000 11.9027 0.0455
17.9200 11.9160 0.0502
17.9400 11.9294 0.0540
17.9600 11.9427 0.0421
17.9800 11.9561 0.0531
18.0000 11.9694 0.0539
18.0200 11.9827 0.0351
18.0400 11.9961 0.0532
18.0600 12.0094 0.0501
18.0800 12.0227 0.0394
18.1000 12.0361 0.0501
18.1200 12.0495 0.0462
18.1400 12.0628 0.0396
18.1600 12.0761 0.0503
18.1800 12.0894 0.0503
18.2000 12.1028 0.0380
18.2200 12.1161 0.0474
18.2400 12.1294 0.0456
18.2600 12.1427 0.0364
18.2800 12.1560 0.0520
18.3000 12.1694 0.0410
18.3200 12.1827 0.0348
18.3400 12.1960 0.0479
18.3600 12.2094 0.0463
18.3800 12.2228 0.0352
18.4000 12.2361 0.0425
18.4200 12.2494 0.0483
18.4400 12.2628 0.0331
18.4600 12.2761 0.0427
18.4800 12.2894 0.0432
18.5000 12.3028 0.0387
18.5200 12.3161 0.0408
18.5400 12.3294 0.0398
18.5600 12.3427 0.0456
18.5800 12.3561 0.0384
18.6000 12.3694 0.0320
18.6200 12.3827 0.0433
18.6400 12.3961 0.0379
18.6600 12.4094 0.0337
18.6800 12.4227 0.0424
18.7000 12.4360 0.0353
18.7200 12.4494 0.0339
18.7400 12.4628 0.0424
18.7600 12.4761 0.0298
18.7800 12.4894 0.0374
18.8000 12.5028 0.0413
18.8200 12.5161 0.0298
18.8400 12.5295 0.0346
18.8600 12.5428 0.0364
18.8800 12.5561 0.0322
18.9000 12.5694 0.0398
18.9200 12.5827 0.0347
18.9400 12.5961 0.0249
18.9600 12.6094 0.0363
18.9800 12.6227 0.0364
19.0000 12.6360 0.0272
19.0200 12.6494 0.0356
19.0400 12.6627 0.0319
19.0600 12.6760 0.0232
19.0800 12.6894 0.0371
19.1000 12.7027 0.0333
19.1200 12.7161 0.0244
19.1400 12.7294 0.0310
19.1600 12.7427 0.0338
19.1800 12.7561 0.0258
19.2000 12.7694 0.0324
19.2200 12.7828 0.0289
19.2400 12.7961 0.0227
19.2600 12.8094 0.0334
19.2800 12.8228 0.0248
19.3000 12.8361 0.0265
19.3200 12.8494 0.0333
19.3400 12.8627 0.0244
19.3600 12.8760 0.0260
19.3800 12.8893 0.0274
19.4000 12.9027 0.0233
19.4200 12.9160 0.0247
19.4400 12.9293 0.0297
19.4600 12.9427 0.0194
19.4800 12.9561 0.0220
19.5000 12.9695 0.0290
19.5200 12.9828 0.0183
19.5400 12.9961 0.0264
19.5600 13.0095 0.0232
19.5800 13.0228 0.0160
19.6000 13.0361 0.0249
19.6200 13.0494 0.0198
19.6400 13.0627 0.0235
19.6600 13.0761 0.0199
19.6800 13.0894 0.0181
19.7000 13.1027 0.0201
19.7200 13.1160 0.0220
19.7400 13.1293 0.0153
19.7600 13.1427 0.0209
19.7800 13.1560 0.0163
19.8000 13.1694 0.0146
19.8200 13.1827 0.0231
19.8400 13.1961 0.0128
19.8600 13.2095 0.0137
19.8800 13.2228 0.0204
19.9000 13.2361 0.0164
19.9200 13.2495 0.0122
19.9400 13.2628 0.0199
19.9600 13.2761 0.0148
19.9800 13.2894 0.0100
20.0000 13.3027 0.0200
20.0200 13.3161 0.0134
20.0400 13.3294 0.0062
20.0600 13.3427 0.0222
20.0800 13.3560 0.0119
20.1000 13.3694 0.0030
20.1200 13.3827 0.0222
20.1400 13.3961 0.0101
20.1600 13.4094 0.0032
20.1800 13.4227 0.0228
20.2000 13.4361 0.0044
20.2200 13.4494 0.0045
20.2400 13.4628 0.0228
20.2600 13.4761 0.0045
20.2800 13.4894 0.0052
20.3000 13.5028 0.0166
20.3200 13.5161 0.0048
20.3400 13.5294 0.0076
20.3600 13.5427 0.0205
20.3800 13.5561 0.0055
20.4000 13.5694 0.0034
20.4200 13.5827 0.0156
20.4400 13.5960 0.0018
20.4600 13.6094 0.0027
20.4800 13.6227 0.0135
20.5000 13.6361 0.0044
20.5200 13.6494 -0.0018
20.5400 13.6627 0.0169
20.5600 13.6761 -0.0020
20.5800 13.6895 -0.0034
20.6000 13.7028 0.0215
20.6200 13.7161 0.0020
20.6400 13.7294 -0.0018
20.6600 13.7428 0.0148
20.6800 13.7561 -0.0030
20.7000 13.7694 0.0046
20.7200 13.7827 0.0147
20.7400 13.7961 -0.0051
20.7600 13.8094 -0.0024
20.7800 13.8227 0.0138
20.8000 13.8360 -0.0045
20.8200 13.8494 -0.0017
20.8400 13.8627 0.0139
20.8600 13.8760 -0.0089
20.8800 13.8894 0.0036
20.9000 13.9027 0.0100
20.9200 13.9161 -0.0065
20.9400 13.9295 -0.0008
20.9600 13.9428 0.0074
20.9800 13.9561 -0.0034
21.0000 13.9695 -0.0018
21.0200 13.9828 0.0083
21.0400 13.9961 -0.0086
21.0600 14.0094 -0.0043
21.0800 14.0227 0.0082
21.1000 14.0361 -0.0120
21.1200 14.0494 -0.0017
21.1400 14.0627 0.0054
21.1600 14.0760 -0.0101
21.1800 14.0893 -0.0049
21.2000 14.1027 0.0013
21.2200 14.1160 -0.0117
21.2400 14.1294 -0.0057
21.2600 14.1427 0.0022
21.2800 14.1561 -0.0119
21.3000 14.1694 -0.0069
21.3200 14.1828 -0.0024
21.3400 14.1961 -0.0093
21.3600 14.2094 -0.0089
21.3800 14.2228 -0.0065
21.4000 14.2361 -0.0083
21.4200 14.2494 -0.0139
21.4400 14.2627 -0.0040
21.4600 14.2761 -0.0044
21.4800 14.2894 -0.0159
21.5000 14.3027 -0.0091
21.5200 14.3160 -0.0088
21.5400 14.3293 -0.0181
21.5600 14.3427 -0.0096
21.5800 14.3560 -0.0091
21.6000 14.3693 -0.0214
21.6200 14.3827 -0.0049
21.6400 14.3961 -0.0171
21.6600 14.4095 -0.0215
21.6800 14.4228 -0.0062
21.7000 14.4361 -0.0171
21.7200 14.4495 -0.0228
21.7400 14.4628 -0.0118
21.7600 14.4761 -0.0181
21.7800 14.4894 -0.0183
21.8000 14.5027 -0.0123
21.8200 14.5160 -0.0147
21.8400 14.5293 -0.0207
21.8600 14.5427 -0.0152
21.8800 14.5560 -0.0212
21.9000 14.5694 -0.0193
21.9200 14.5827 -0.0187
21.9400 14.5961 -0.0213
21.9600 14.6094 -0.0203
21.9800 14.6228 -0.0223
22.0000 14.6361 -0.0159
22.0200 14.6495 -0.0275
22.0400 14.6628 -0.0255
22.0600 14.6761 -0.0193
22.0800 14.6894 -0.0268
22.1000 14.7028 -0.0240
22.1200 14.7161 -0.0203
22.1400 14.7294 -0.0260
22.1600 14.7427 -0.0266
22.1800 14.7561 -0.0202
22.2000 14.7694 -0.0335
22.2200 14.7827 -0.0216
22.2400 14.7960 -0.0231
22.2600 14.8094 -0.0350
22.2800 14.8227 -0.0209
22.3000 14.8361 -0.0260
22.3200 14.8494 -0.0343
22.3400 14.8628 -0.0198
22.3600 14.8761 -0.0247
22.3800 14.8895 -0.0381
22.4000 14.9028 -0.0221
22.4200 14.9161 -0.0221
22.4400 14.9294 -0.0357
22.4600 14.9428 -0.0254
22.4800 14.9561 -0.0289
22.5000 14.9694 -0.0333
22.5200 14.9827 -0.0249
22.5400 14.9961 -0.0314
22.5600 15.0094 -0.0330
22.5800 15.0227 -0.0276
22.6000 15.0360 -0.0337
22.6200 15.0493 -0.0349
22.6400 15.0627 -0.0268
22.6600 15.0761 -0.0372
22.6800 15.0894 -0.0375
22.7000 15.1027 -0.0273
22.7200 15.1161 -0.0360
22.7400 15.1295 -0.0392
22.7600 15.1428 -0.0341
22.7800 15.1561 -0.0357
22.8000 15.1694 -0.0358
22.8200 15.1828 -0.0350
22.8400 15.1961 -0.0372
22.8600 15.2094 -0.0333
22.8800 15.2227 -0.0374
22.9000 15.2361 -0.0388
22.9200 15.2494 -0.0352
22.9400 15.2627 -0.0396
22.9600 15.2760 -0.0372
22.9800 15.2894 -0.0360
23.0000 15.3027 -0.0393
23.0200 15.3160 -0.0403
23.0400 15.3294 -0.0335
23.0600 15.3427 -0.0373
23.0800 15.3561 -0.0377
23.1000 15.3694 -0.0353
23.1200 15.3828 -0.0476
23.1400 15.3961 -0.0381
23.1600 15.4094 -0.0347
23.1800 15.4228 -0.0413
23.2000 15.4361 -0.0450
23.2200 15.4494 -0.0394
23.2400 15.4627 -0.0383
23.2600 15.4760 -0.0447
23.2800 15.4894 -0.0377
23.3000 15.5027 -0.0434
23.3200 15.5160 -0.0427
23.3400 15.5293 -0.0379
23.3600 15.5427 -0.0463
23.3800 15.5560 -0.0389
23.4000 15.5694 -0.0422
23.4200 15.5827 -0.0429
23.4400 15.5961 -0.0437
23.4600 15.6095 -0.0430
23.4800 15.6228 -0.0448
23.5000 15.6361 -0.0427
23.5200 15.6494 -0.0492
23.5400 15.6628 -0.0490
23.5600 15.6761 -0.0463
23.5800 15.6894 -0.0480
23.6000 15.7027 -0.0474
23.6200 15.7161 -0.0508
23.6400 15.7294 -0.0492
23.6600 15.7427 -0.0510
23.6800 15.7560 -0.0512
23.7000 15.7693 -0.0443
23.7200 15.7827 -0.0521
23.7400 15.7960 -0.0548
23.7600 15.8093 -0.0449
23.7800 15.8227 -0.0540
23.8000 15.8361 -0.0553
23.8200 15.8495 -0.0521
23.8400 15.8628 -0.0589
23.8600 15.8761 -0.0529
23.8800 15.8894 -0.0442
23.9000 15.9028 -0.0588
23.9200 15.9161 -0.0559
23.9400 15.9294 -0.0449
23.9600 15.9427 -0.0641
23.9800 15.9560 -0.0546
24.0000 15.9694 -0.0478
24.0200 15.9827 -0.0640
24.0400 15.9960 -0.0572
24.0600 16.0094 -0.0492
24.0800 16.0227 -0.0640
24.1000 16.0361 -0.0563
24.1200 16.0494 -0.0569
24.1400 16.0628 -0.0645
24.1600 16.0761 -0.0574
24.1800 16.0894 -0.0569
24.2000 16.1027 -0.0664
24.2200 16.1160 -0.0578
24.2400 16.1294 -0.0565
24.2600 16.1427 -0.0660
24.2800 16.1561 -0.0614
24.3000 16.1694 -0.0594
24.3200 16.1828 -0.0628
24.3400 16.1961 -0.0622
24.3600 16.2095 -0.0602
24.3800 16.2228 -0.0679
24.4000 16.2361 -0.0659
24.4200 16.2494 -0.0543
24.4400 16.2627 -0.0683
24.4600 16.2760 -0.0701
24.4800 16.2894 -0.0568
24.5000 16.3027 -0.0718
24.5200 16.3161 -0.0701
24.5400 16.3294 -0.0608
24.5600 16.3428 -0.0713
24.5800 16.3561 -0.0704
24.6000 16.3694 -0.0613
24.6200 16.3828 -0.0724
24.6400 16.3961 -0.0732
24.6600 16.4094 -0.0628
24.6800 16.4227 -0.0736
24.7000 16.4361 -0.0704
24.7200 16.4494 -0.0635
24.7400 16.4628 -0.0749
24.7600 16.4760 -0.0706
24.7800 16.4893 -0.0623
24.8000 16.5027 -0.0736
24.8200 16.5160 -0.0758
24.8400 16.5294 -0.0668
24.8600 16.5427 -0.0748
24.8800 16.5561 -0.0754
24.9000 16.5694 -0.0661
24.9200 16.5828 -0.0803
24.9400 16.5961 -0.0752
24.9600 16.6095 -0.0676
24.9800 16.6228 -0.0793
25.0000 16.6361 -0.0779
25.0200 16.6494 -0.0699
25.0400 16.6627 -0.0735
25.0600 16.6760 -0.0793
25.0800 16.6894 -0.0743
25.1000 16.7027 -0.0761
25.1200 16.7160 -0.0796
25.1400 16.7293 -0.0718
25.1600 16.7427 -0.0784
25.1800 16.7561 -0.0812
25.2000 16.7694 -0.0734
25.2200 16.7827 -0.0819
25.2400 16.7960 -0.0784
25.2600 16.8094 -0.0765
25.2800 16.8228 -0.0822
25.3000 16.8361 -0.0824
25.3200 16.8494 -0.0778
25.3400 16.8628 -0.0840
25.3600 16.8762 -0.0865
25.3800 16.8895 -0.0798
25.4000 16.9027 -0.0854
25.4200 16.9161 -0.0830
25.4400 16.9294 -0.0789
25.4600 16.9427 -0.0894
25.4800 16.9560 -0.0856
25.5000 16.9693 -0.0801
25.5200 16.9826 -0.0894
25.5400 16.9960 -0.0847
25.5600 17.0093 -0.0817
25.5800 17.0227 -0.0901
25.6000 17.0361 -0.0816
25.6200 17.0495 -0.0881
25.6400 17.0628 -0.0901
25.6600 17.0761 -0.0866
25.6800 17.0894 -0.0874
25.7000 17.1028 -0.0890
25.7200 17.1161 -0.0870
25.7400 17.1294 -0.0889
25.7600 17.1427 -0.0907
25.7800 17.1561 -0.0921
25.8000 17.1694 -0.0905
25.8200 17.1828 -0.0895
25.8400 17.1961 -0.0953
25.8600 17.2094 -0.0920
25.8800 17.2227 -0.0917
25.9000 17.2360 -0.0942
25.9200 17.2494 -0.0920
25.9400 17.2627 -0.0928
25.9600 17.2761 -0.0985
25.9800 17.2895 -0.0958
26.0000 17.3028 -0.0944
26.0200 17.3161 -0.0968
26.0400 17.3294 -0.0922
26.0600 17.3428 -0.1006
26.0800 17.3561 -0.0984
26.1000 17.3694 -0.0900
26.1200 17.3827 -0.1030
26.1400 17.3960 -0.0983
26.1600 17.4094 -0.0976
26.1800 17.4227 -0.1077
26.2000 17.4360 -0.0992
26.2200 17.4493 -0.0931
26.2400 17.4627 -0.1073
26.2600 17.4761 -0.0971
26.2800 17.4894 -0.0983
26.3000 17.5027 -0.1083
26.3200 17.5161 -0.0969
26.3400 17.5294 -0.1024
26.3600 17.5428 -0.1095
26.3800 17.5561 -0.1005
26.4000 17.5694 -0.1032
26.4200 17.5828 -0.1104
26.4400 17.5961 -0.1015
26.4600 17.6095 -0.1042
26.4800 17.6228 -0.1115
26.5000 17.6361 -0.1005
26.5200 17.6494 -0.1100
26.5400 17.6628 -0.1094
26.5600 17.6760 -0.1032
26.5800 17.6893 -0.1082
26.6000 17.7026 -0.1067
26.6200 17.7160 -0.1080
26.6400 17.7293 -0.1118
26.6600 17.7427 -0.1038
26.6800 17.7560 -0.1086
26.7000 17.7694 -0.1099
26.7200 17.7828 -0.1085
26.7400 17.7961 -0.1078
26.7600 17.8095 -0.1115
26.7800 17.8228 -0.1084
26.8000 17.8362 -0.1137
26.8200 17.8495 -0.1126
26.8400 17.8628 -0.1055
26.8600 17.8760 -0.1167
26.8800 17.8894 -0.1109
26.9000 17.9027 -0.1135
26.9200 17.9160 -0.1185
26.9400 17.9293 -0.1111
26.9600 17.9426 -0.1160
26.9800 17.9560 -0.1196
27.0000 17.9693 -0.1177
27.0200 17.9827 -0.1155
27.0400 17.9961 -0.1239
27.0600 18.0094 -0.1168
27.0800 18.0228 -0.1159
27.1000 18.0361 -0.1240
27.1200 18.0495 -0.1162
27.1400 18.0628 -0.1195
27.1600 18.0761 -0.1206
27.1800 18.0894 -0.1187
27.2000 18.1027 -0.1198
27.2200 18.1160 -0.1226
27.2400 18.1294 -0.1222
27.2600 18.1427 -0.1243
27.2800 18.1561 -0.1242
27.3000 18.1694 -0.1164
27.3200 18.1827 -0.1253
27.3400 18.1961 -0.1271
27.3600 18.2094 -0.1224
27.3800 18.2227 -0.1272
27.4000 18.2361 -0.1223
27.4200 18.2494 -0.1240
27.4400 18.2628 -0.1283
27.4600 18.2761 -0.1258
27.4800 18.2894 -0.1267
27.5000 18.3028 -0.1283
27.5200 18.3161 -0.1246
27.5400 18.3295 -0.1287
27.5600 18.3428 -0.1307
27.5800 18.3561 -0.1245
27.6000 18.3694 -0.1353
27.6200 18.3828 -0.1328
27.6400 18.3961 -0.1288
27.6600 18.4093 -0.1320
27.6800 18.4227 -0.1300
27.7000 18.4360 -0.1322
27.7200 18.4494 -0.1371
27.7400 18.4627 -0.1325
27.7600 18.4760 -0.1300
27.7800 18.4894 -0.1410
27.8000 18.5028 -0.1332
27.8200 18.5161 -0.1333
27.8400 18.5294 -0.1455
27.8600 18.5428 -0.1332
27.8800 18.5561 -0.1383
27.9000 18.5694 -0.1450
27.9200 18.5827 -0.1346
27.9400 18.5960 -0.1422
27.9600 18.6094 -0.1451
27.9800 18.6227 -0.1392
28.0000 18.6361 -0.1394
28.0200 18.6494 -0.1446
28.0400 18.6627 -0.1430
28.0600 18.6761 -0.1413
28.0800 18.6894 -0.1485
28.1000 18.7027 -0.1427
28.1200 18.7160 -0.1419
28.1400 18.7294 -0.1485
28.1600 18.7428 -0.1434
28.1800 18.7561 -0.1438
28.2000 18.7694 -0.1500
28.2200 18.7828 -0.1408
28.2400 18.7962 -0.1442
28.2600 18.8095 -0.1543
28.2800 18.8228 -0.1419
28.3000 18.8361 -0.1430
28.3200 18.8494 -0.1523
28.3400 18.8627 -0.1454
28.3600 18.8761 -0.1479
28.3800 18.8894 -0.1557
28.4000 18.9027 -0.1452
28.4200 18.9160 -0.1500
28.4400 18.9294 -0.1564
28.4600 18.9427 -0.1451
28.4800 18.9561 -0.1486
28.5000 18.9694 -0.1550
28.5200 18.9828 -0.1486
28.5400 18.9961 -0.1536
28.5600 19.0094 -0.1587
28.5800 19.0227 -0.1501
28.6000 19.0361 -0.1522
28.6200 19.0495 -0.1610
28.6400 19.0628 -0.1537
28.6600 19.0761 -0.1560
28.6800 19.0894 -0.1637
28.7000 19.1028 -0.1551
28.7200 19.1161 -0.1563
28.7400 19.1293 -0.1669
28.7600 19.1426 -0.1597
28.7800 19.1560 -0.1604
28.8000 19.1693 -0.1687
28.8200 19.1827 -0.1588
28.8400 19.1960 -0.1604
28.8600 19.2094 -0.1728
28.8800 19.2228 -0.1590
28.9000 19.2362 -0.1658
28.9200 19.2495 -0.1695
28.9400 19.2628 -0.1552
28.9600 19.2762 -0.1691
28.9800 19.2895 -0.1742
29.0000 19.3027 -0.1620
29.0200 19.3160 -0.1660
29.0400 19.3293 -0.1710
29.0600 19.3427 -0.1654
29.0800 19.3560 -0.1688
29.1000 19.3694 -0.1726
29.1200 19.3827 -0.1703
29.1400 19.3961 -0.1687
29.1600 19.4094 -0.1724
29.1800 19.4227 -0.1737
29.2000 19.4361 -0.1698
29.2200 19.4494 -0.1748
29.2400 19.4628 -0.1764
29.2600 19.4761 -0.1687
29.2800 19.4894 -0.1756
29.3000 19.5027 -0.1818
29.3200 19.5161 -0.1668
29.3400 19.5294 -0.1794
29.3600 19.5427 -0.1842
29.3800 19.5560 -0.1656
29.4000 19.5694 -0.1843
29.4200 19.5827 -0.1830
29.4400 19.5961 -0.1720
29.4600 19.6094 -0.1866
29.4800 19.6227 -0.1840
29.5000 19.6360 -0.1747
29.5200 19.6494 -0.1901
29.5400 19.6627 -0.1819
29.5600 19.6761 -0.1801
29.5800 19.6894 -0.1946
29.6000 19.7028 -0.1821
29.6200 19.7161 -0.1837
29.6400 19.7294 -0.1981
29.6600 19.7427 -0.1811
29.6800 19.7561 -0.1878
29.7000 19.7694 -0.2016
29.7200 19.7828 -0.1843
29.7400 19.7961 -0.1876
29.7600 19.8094 -0.2007
29.7800 19.8227 -0.1851
29.8000 19.8361 -0.1951
29.8200 19.8494 -0.1974
29.8400 19.8627 -0.1894
29.8600 19.8760 -0.1963
29.8800 19.8894 -0.1990
29.9000 19.9027 -0.1987
29.9200 19.9160 -0.1967
29.9400 19.9294 -0.1985
29.9600 19.9428 -0.1979
29.9800 19.9562 -0.1999
30.0000 19.9695 -0.1973
30.0200 19.9828 -0.2008
30.0400 19.9961 -0.2024
30.0600 20.0095 -0.2022
30.0800 20.0227 -0.2045
30.1000 20.0360 -0.2042
30.1200 20.0494 -0.1994
30.1400 20.0627 -0.2089
30.1600 20.0761 -0.2010
30.1800 20.0894 -0.2041
30.2000 20.1027 -0.2117
30.2200 20.1160 -0.2049
30.2400 20.1294 -0.2088
30.2600 20.1427 -0.2111
30.2800 20.1560 -0.2043
30.3000 20.1694 -0.2121
30.3200 20.1828 -0.2115
30.3400 20.1961 -0.2089
30.3600 20.2094 -0.2140
30.3800 20.2227 -0.2135
30.4000 20.2361 -0.2101
30.4200 20.2495 -0.2161
30.4400 20.2628 -0.2165
30.4600 20.2761 -0.2121
30.4800 20.2894 -0.2202
30.5000 20.3027 -0.2205
30.5200 20.3161 -0.2144
30.5400 20.3293 -0.2232
30.5600 20.3427 -0.2169
30.5800 20.3560 -0.2153
30.6000 20.3694 -0.2269
30.6200 20.3827 -0.2218
30.6400 20.3961 -0.2210
30.6600 20.4094 -0.2280
30.6800 20.4228 -0.2213
30.7000 20.4362 -0.2125
30.7200 20.4495 -0.1500
30.7400 20.4628 -0.0623
30.7600 20.4761 -0.0156
30.7800 20.4895 0.0202
30.8000 20.5028 0.0647
30.8200 20.5161 0.1166
30.8400 20.5294 0.1641
30.8600 20.5427 0.2314
30.8800 20.5561 0.2788
30.9000 20.5694 0.3315
30.9200 20.5827 0.3898
30.9400 20.5960 0.4268
30.9600 20.6094 0.4748
30.9800 20.6227 0.5252
31.0000 20.6360 0.5605
31.0200 20.6494 0.6128
31.0400 20.6628 0.6653
31.0600 20.6761 0.6787
31.0800 20.6895 0.6822
31.1000 20.7028 0.6910
31.1200 20.7161 0.6811
31.1400 20.7295 0.6814
31.1600 20.7427 0.6870
31.1800 20.7560 0.6816
31.2000 20.7693 0.6837
31.2200 20.7827 0.6853
31.2400 20.7960 0.6842
31.2600 20.8094 0.6806
31.2800 20.8227 0.6850
31.3000 20.8361 0.6805
31.3200 20.8494 0.6774
31.3400 20.8628 0.6866
31.3600 20.8761 0.6781
31.3800 20.8894 0.6759
31.4000 20.9028 0.6819
31.4200 20.9161 0.6771
31.4400 20.9294 0.6754
31.4600 20.9427 0.6797
31.4800 20.9561 0.6744
31.5000 20.9694 0.6669
31.5200 20.9828 0.6815
31.5400 20.9961 0.6724
31.5600 21.0094 0.6761
31.5800 21.0228 0.6775
31.6000 21.0361 0.6664
31.6200 21.0494 0.6762
31.6400 21.0627 0.6744
31.6600 21.0760 0.6660
31.6800 21.0894 0.6709
31.7000 21.1027 0.6665
31.7200 21.1160 0.6625
31.7400 21.1294 0.6715
31.7600 21.1427 0.6675
31.7800 21.1561 0.6605
31.8000 21.1694 0.6699
31.8200 21.1827 0.6631
31.8400 21.1961 0.6585
31.8600 21.2095 0.6663
31.8800 21.2228 0.6633
31.9000 21.2361 0.6568
31.9200 21.2494 0.6651
31.9400 21.2627 0.6608
31.9600 21.2761 0.6560
31.9800 21.2894 0.6590
32.0000 21.3027 0.6540
32.0200 21.3160 0.6512
32.0400 21.3294 0.6581
32.0600 21.3427 0.6469
32.0800 21.3560 0.6424
32.1000 21.3694 0.6540
32.1200 21.3828 0.6423
32.1400 21.3961 0.6400
32.1600 21.4094 0.6443
32.1800 21.4228 0.6381
32.2000 21.4361 0.6395
32.2200 21.4494 0.6436
32.2400 21.4628 0.6305
32.2600 21.4761 0.6305
32.2800 21.4894 0.6426
32.3000 21.5027 0.6305
32.3200 21.5161 0.6231
32.3400 21.5294 0.6344
32.3600 21.5427 0.6268
32.3800 21.5560 0.6236
32.4000 21.5694 0.6262
32.4200 21.5827 0.6239
32.4400 21.5961 0.6146
32.4600 21.6094 0.6219
32.4800 21.6227 0.6171
32.5000 21.6361 0.6078
32.5200 21.6494 0.6192
32.5400 21.6628 0.6159
32.5600 21.6761 0.6041
32.5800 21.6895 0.6160
32.6000 21.7028 0.6137
32.6200 21.7161 0.6028
32.6400 21.7294 0.6165
32.6600 21.7427 0.6100
32.6800 21.7561 0.5965
32.7000 21.7694 0.6108
32.7200 21.7827 0.6071
32.7400 21.7960 0.5990
32.7600 21.8093 0.6105
32.7800 21.8227 0.5977
32.8000 21.8360 0.5925
32.8200 21.8494 0.6065
32.8400 21.8628 0.5912
32.8600 21.8762 0.5905
32.8800 21.8895 0.6035
32.9000 21.9028 0.5892
32.9200 21.9161 0.5874
32.9400 21.9294 0.5982
32.9600 21.9428 0.5876
32.9800 21.9561 0.5848
33.0000 21.9694 0.5951
33.0200 21.9827 0.5772
33.0400 21.9961 0.5802
33.0600 22.0094 0.5947
33.0800 22.0227 0.5755
33.1000 22.0361 0.5759
33.1200 22.0494 0.5857
33.1400 22.0627 0.5713
33.1600 22.0760 0.5749
33.1800 22.0894 0.5839
33.2000 22.1027 0.5704
33.2200 22.1161 0.5654
33.2400 22.1294 0.5795
33.2600 22.1427 0.5721
33.2800 22.1561 0.5693
33.3000 22.1694 0.5767
33.3200 22.1828 0.5644
33.3400 22.1961 0.5674
33.3600 22.2094 0.5742
33.3800 22.2227 0.5688
33.4000 22.2360 0.5660
33.4200 22.2494 0.5694
33.4400 22.2627 0.5651
33.4600 22.2760 0.5653
33.4800 22.2894 0.5702
33.5000 22.3027 0.5620
33.5200 22.3161 0.5589
33.5400 22.3294 0.5649
33.5600 22.3427 0.5606
33.5800 22.3561 0.5551
33.6000 22.3694 0.5657
33.6200 22.3827 0.5582
33.6400 22.3960 0.5522
33.6600 22.4094 0.5628
33.6800 22.4228 0.5537
33.7000 22.4361 0.5530
33.7200 22.4494 0.5572
33.7400 22.4628 0.5491
33.7600 22.4761 0.5477
33.7800 22.4894 0.5538
33.8000 22.5027 0.5443
33.8200 22.5160 0.5482
33.8400 22.5293 0.5508
33.8600 22.5427 0.5375
33.8800 22.5560 0.5431
33.9000 22.5693 0.5510
33.9200 22.5827 0.5356
33.9400 22.5961 0.5388
33.9600 22.6095 0.5419
33.9800 22.6228 0.5301
34.0000 22.6361 0.5412
34.0200 22.6495 0.5375
34.0400 22.6628 0.5268
34.0600 22.6761 0.5391
34.0800 22.6894 0.5353
34.1000 22.7027 0.5305
34.1200 22.7160 0.5306
34.1400 22.7294 0.5340
34.1600 22.7427 0.5226
34.1800 22.7560 0.5308
34.2000 22.7693 0.5295
34.2200 22.7827 0.5155
34.2400 22.7960 0.5266
34.2600 22.8094 0.5252
34.2800 22.8228 0.5182
34.3000 22.8361 0.5226
34.3200 22.8495 0.5184
34.3400 22.8628 0.5144
34.3600 22.8761 0.5213
34.3800 22.8895 0.5132
34.4000 22.9028 0.5115
34.4200 22.9161 0.5183
34.4400 22.9294 0.5072
34.4600 22.9427 0.5112
34.4800 22.9561 0.5193
34.5000 22.9694 0.5056
34.5200 22.9827 0.5068
34.5400 22.9960 0.5147
34.5600 23.0094 0.5034
34.5800 23.0227 0.5075
34.6000 23.0360 0.5111
34.6200 23.0494 0.4986
34.6400 23.0627 0.5034
34.6600 23.0761 0.5020
34.6800 23.0894 0.4968
34.7000 23.1028 0.5005
34.7200 23.1161 0.5000
34.7400 23.1294 0.4992
34.7600 23.1428 0.4960
34.7800 23.1561 0.4948
34.8000 23.1694 0.4966
34.8200 23.1827 0.4934
34.8400 23.1961 0.4947
34.8600 23.2094 0.4891
34.8800 23.2227 0.4941
34.9000 23.2360 0.4894
34.9200 23.2493 0.4865
34.9400 23.2627 0.4870
34.9600 23.2761 0.4874
34.9800 23.2894 0.4813
35.0000 23.3027 0.4824
35.0200 23.3161 0.4850
35.0400 23.3295 0.4731
35.0600 23.3428 0.4781
35.0800 23.3561 0.4839
35.1000 23.3694 0.4734
35.1200 23.3828 0.4751
35.1400 23.3961 0.4759
35.1600 23.4094 0.4731
35.1800 23.4227 0.4714
35.2000 23.4361 0.4694
35.2200 23.4494 0.4683
35.2400 23.4627 0.4658
35.2600 23.4760 0.4664
35.2800 23.4894 0.4678
35.3000 23.5027 0.4657
35.3200 23.5160 0.4639
35.3400 23.5294 0.4682
35.3600 23.5427 0.4599
35.3800 23.5561 0.4629
35.4000 23.5695 0.4610
35.4200 23.5828 0.4546
35.4400 23.5961 0.4607
35.4600 23.6094 0.4590
35.4800 23.6228 0.4509
35.5000 23.6362 0.4627
35.5200 23.6494 0.4561
35.5400 23.6627 0.4481
35.5600 23.6761 0.4565
35.5800 23.6894 0.4508
35.6000 23.7027 0.4405
35.6200 23.7160 0.4579
35.6400 23.7294 0.4453
35.6600 23.7427 0.4410
35.6800 23.7561 0.4563
35.7000 23.7694 0.4453
35.7200 23.7827 0.4364
35.7400 23.7961 0.4485
35.7600 23.8095 0.4391
35.7800 23.8228 0.4356
35.8000 23.8361 0.4473
35.8200 23.8494 0.4404
35.8400 23.8628 0.4340
35.8600 23.8761 0.4445
35.8800 23.8894 0.4336
35.9000 23.9027 0.4375
35.9200 23.9161 0.4393
35.9400 23.9294 0.4266
35.9600 23.9427 0.4355
35.9800 23.9560 0.4386
36.0000 23.9693 0.4269
36.0200 23.9827 0.4294
36.0400 23.9960 0.4353
36.0600 24.0093 0.4200
36.0800 24.0227 0.4308
36.1000 24.0361 0.4324
36.1200 24.0495 0.4159
36.1400 24.0628 0.4303
36.1600 24.0762 0.4299
36.1800 24.0895 0.4136
36.2000 24.1028 0.4242
36.2200 24.1161 0.4230
36.2400 24.1294 0.4128
36.2600 24.1427 0.4207
36.2800 24.1560 0.4236
36.3000 24.1693 0.4107
36.3200 24.1827 0.4189
36.3400 24.1960 0.4178
36.3600 24.2094 0.4081
36.3800 24.2227 0.4185
36.4000 24.2361 0.4125
36.4200 24.2494 0.4052
36.4400 24.2628 0.4188
36.4600 24.2761 0.4074
36.4800 24.2895 0.4031
36.5000 24.3028 0.4125
36.5200 24.3161 0.4056
36.5400 24.3294 0.4040
36.5600 24.3428 0.4109
36.5800 24.3561 0.4024
36.6000 24.3694 0.3973
36.6200 24.3827 0.4088
36.6400 24.3960 0.3959
36.6600 24.4094 0.4001
36.6800 24.4227 0.3987
36.7000 24.4360 0.3924
36.7200 24.4494 0.4011
36.7400 24.4627 0.3908
36.7600 24.4761 0.3927
36.7800 24.4894 0.3957
36.8000 24.5027 0.3874
36.8200 24.5161 0.3898
36.8400 24.5294 0.3918
36.8600 24.5428 0.3809
36.8800 24.5561 0.3886
36.9000 24.5694 0.3870
36.9200 24.5828 0.3794
36.9400 24.5961 0.3890
36.9600 24.6094 0.3828
36.9800 24.6227 0.3811
37.0000 24.6361 0.3864
37.0200 24.6494 0.3768
37.0400 24.6627 0.3786
37.0600 24.6760 0.3851
37.0800 24.6893 0.3761
37.1000 24.7027 0.3803
37.1200 24.7161 0.3776
37.1400 24.7294 0.3727
37.1600 24.7427 0.3778
37.1800 24.7561 0.3773
37.2000 24.7694 0.3721
37.2200 24.7828 0.3712
37.2400 24.7961 0.3745
37.2600 24.8094 0.3711
37.2800 24.8228 0.3732
37.3000 24.8361 0.3671
37.3200 24.8494 0.3669
37.3400 24.8627 0.3735
37.3600 24.8761 0.3667
37.3800 24.8894 0.3639
37.4000 24.9027 0.3683
37.4200 24.9160 0.3620
37.4400 24.9294 0.3617
37.4600 24.9427 0.3638
37.4800 24.9560 0.3586
37.5000 24.9694 0.3588
37.5200 24.9827 0.3602
37.5400 24.9961 0.3539
37.5600 25.0094 0.3592
37.5800 25.0228 0.3569
37.6000 25.0361 0.3510
37.6200 25.0494 0.3567
37.6400 25.0628 0.3578
37.6600 25.0761 0.3472
37.6800 25.0894 0.3568
37.7000 25.1027 0.3486
37.7200 25.1161 0.3481
37.7400 25.1294 0.3514
37.7600 25.1427 0.3452
37.7800 25.1560 0.3500
37.8000 25.1693 0.3518
37.8200 25.1827 0.3423
37.8400 25.1960 0.3508
37.8600 25.2094 0.3455
37.8800 25.2227 0.3367
37.9000 25.2361 0.3456
37.9200 25.2495 0.3452
37.9400 25.2628 0.3298
37.9600 25.2761 0.3474
37.9800 25.2894 0.3429
38.0000 25.3028 0.3319
38.0200 25.3162 0.3418
38.0400 25.3295 0.3357
38.0600 25.3428 0.3290
38.0800 25.3561 0.3380
38.1000 25.3694 0.3331
38.1200 25.3827 0.3267
38.1400 25.3960 0.3367
38.1600 25.4093 0.3328
38.1800 25.4227 0.3264
38.2000 25.4360 0.3287
38.2200 25.4493 0.3286
38.2400 25.4627 0.3243
38.2600 25.4760 0.3316
38.2800 25.4894 0.3268
38.3000 25.5028 0.3191
38.3200 25.5161 0.3273
38.3400 25.5294 0.3253
38.3600 25.5428 0.3177
38.3800 25.5561 0.3293
38.4000 25.5694 0.3223
38.4200 25.5827 0.3203
38.4400 25.5960 0.3255
38.4600 25.6094 0.3202
38.4800 25.6227 0.3153
38.5000 25.6360 0.3227
38.5200 25.6494 0.3175
38.5400 25.6627 0.3130
38.5600 25.6761 0.3198
38.5800 25.6894 0.3160
38.6000 25.7027 0.3136
38.6200 25.7161 0.3194
38.6400 25.7294 0.3115
38.6600 25.7427 0.3130
38.6800 25.7560 0.3149
38.7000 25.7694 0.3140
38.7200 25.7827 0.3101
38.7400 25.7961 0.3086
38.7600 25.8094 0.3076
38.7800 25.8228 0.3098
38.8000 25.8361 0.3071
38.8200 25.8495 0.3059
38.8400 25.8628 0.3043
38.8600 25.8761 0.3045
38.8800 25.8894 0.3085
38.9000 25.9027 0.2960
38.9200 25.9160 0.2991
38.9400 25.9294 0.3047
38.9600 25.9427 0.2940
38.9800 25.9560 0.2977
39.0000 25.9694 0.3030
39.0200 25.9828 0.2897
39.0400 25.9961 0.2983
39.0600 26.0094 0.3005
39.0800 26.0228 0.2884
39.1000 26.0361 0.2990
39.1200 26.0494 0.2962
39.1400 26.0627 0.2872
39.1600 26.0761 0.2966
39.1800 26.0894 0.2923
39.2000 26.1028 0.2832
39.2200 26.1161 0.2935
39.2400 26.1293 0.2925
39.2600 26.1427 0.2823
39.2800 26.1560 0.2901
39.3000 26.1694 0.2889
39.3200 26.1827 0.2736
39.3400 26.1961 0.2897
39.3600 26.2095 0.2879
39.3800 26.2228 0.2735
39.4000 26.2361 0.2868
39.4200 26.2495 0.2846
39.4400 26.2628 0.2729
39.4600 26.2761 0.2841
39.4800 26.2894 0.2887
39.5000 26.3027 0.2684
39.5200 26.3160 0.2810
39.5400 26.3294 0.2820
39.5600 26.3427 0.2666
39.5800 26.3560 0.2843
39.6000 26.3693 0.2779
39.6200 26.3827 0.2704
39.6400 26.3961 0.2778
39.6600 26.4094 0.2757
39.6800 26.4227 0.2667
39.7000 26.4361 0.2781
39.7200 26.4494 0.2739
39.7400 26.4628 0.2685
39.7600 26.4761 0.2748
39.7800 26.4894 0.2696
39.8000 26.5028 0.2670
39.8200 26.5161 0.2700
39.8400 26.5295 0.2700
39.8600 26.5427 0.2663
39.8800 26.5561 0.2708
39.9000 26.5694 0.2652
39.9200 26.5827 0.2634
39.9400 26.5960 0.2653
39.9600 26.6093 0.2623
39.9800 26.6226 0.2652
40.0000 26.6360 0.2616
40.0200 26.6494 0.2604
40.0400 26.6627 0.2562
40.0600 26.6761 0.2580
40.0800 26.6894 0.2587
40.1000 26.7028 0.2546
40.1200 26.7161 0.2488
40.1400 26.7294 0.2568
40.1600 26.7428 0.2523
40.1800 26.7561 0.2438
40.2000 26.7694 0.2550
40.2200 26.7827 0.2476
40.2400 26.7960 0.2470
40.2600 26.8094 0.2491
40.2800 26.8227 0.2403
40.3000 26.8361 0.2442
40.3200 26.8494 0.2444
40.3400 26.8627 0.2389
40.3600 26.8760 0.2394
40.3800 26.8894 0.2425
40.4000 26.9027 0.2356
40.4200 26.9161 0.2319
40.4400 26.9294 0.2432
40.4600 26.9428 0.2297
40.4800 26.9561 0.2280
40.5000 26.9694 0.2375
40.5200 26.9828 0.2291
40.5400 26.9961 0.2275
40.5600 27.0094 0.2290
40.5800 27.0227 0.2254
40.6000 27.0360 0.2253
40.6200 27.0494 0.2265
40.6400 27.0627 0.2216
40.6600 27.0760 0.2205
40.6800 27.0894 0.2265
40.7000 27.1027 0.2191
40.7200 27.1161 0.2200
40.7400 27.1294 0.2200
40.7600 27.1427 0.2161
40.7800 27.1561 0.2198
40.8000 27.1694 0.2189
40.8200 27.1827 0.2154
40.8400 27.1961 0.2180
40.8600 27.2094 0.2197
40.8800 27.2227 0.2122
40.9000 27.2361 0.2150
40.9200 27.2495 0.2169
40.9400 27.2628 0.2085
40.9600 27.2761 0.2200
40.9800 27.2895 0.2100
41.0000 27.3028 0.2131
41.0200 27.3161 0.2186
41.0400 27.3294 0.2085
41.0600 27.3427 0.2142
41.0800 27.3560 0.2172
41.1000 27.3693 0.2105
41.1200 27.3827 0.2114
41.1400 27.3960 0.2143
41.1600 27.4094 0.2082
41.1800 27.4228 0.2100
41.2000 27.4362 0.2143
41.2200 27.4495 0.2056
41.2400 27.4628 0.2108
41.2600 27.4762 0.2083
41.2800 27.4895 0.2040
41.3000 27.5028 0.2150
41.3200 27.5160 0.2092
41.3400 27.5294 0.2070
41.3600 27.5427 0.2070
41.3800 27.5560 0.2028
41.4000 27.5693 0.2049
41.4200 27.5827 0.2109
41.4400 27.5960 0.2066
41.4600 27.6094 0.2022
41.4800 27.6227 0.2062
41.5000 27.6360 0.2060
41.5200 27.6494 0.2050
41.5400 27.6628 0.2048
41.5600 27.6761 0.2025
41.5800 27.6895 0.2025
41.6000 27.7028 0.2055
41.6200 27.7161 0.2008
41.6400 27.7295 0.2020
41.6600 27.7427 0.2014
41.6800 27.7560 0.2011
41.7000 27.7694 0.2032
41.7200 27.7827 0.1982
41.7400 27.7960 0.1963
41.7600 27.8093 0.1998
41.7800 27.8227 0.1950
41.8000 27.8360 0.1927
41.8200 27.8494 0.1944
41.8400 27.8627 0.1933
41.8600 27.8761 0.1913
41.8800 27.8894 0.1937
41.9000 27.9028 0.1822
41.9200 27.9161 0.1878
41.9400 27.9294 0.1908
41.9600 27.9428 0.1805
41.9800 27.9561 0.1861
42.0000 27.9695 0.1853
42.0200 27.9828 0.1774
42.0400 27.9961 0.1856
42.0600 28.0094 0.1869
42.0800 28.0228 0.1709
42.1000 28.0361 0.1790
42.1200 28.0494 0.1815
42.1400 28.0627 0.1682
42.1600 28.0760 0.1841
42.1800 28.0894 0.1678
42.2000 28.1027 0.1644
42.2200 28.1161 0.1784
42.2400 28.1294 0.1651
42.2600 28.1428 0.1633
42.2800 28.1561 0.1723
42.3000 28.1694 0.1607
42.3200 28.1828 0.1602
42.3400 28.1961 0.1676
42.3600 28.2094 0.1590
42.3800 28.2227 0.1593
42.4000 28.2360 0.1742
42.4200 28.2494 0.1545
42.4400 28.2627 0.1548
42.4600 28.2761 0.1710
42.4800 28.2894 0.1479
42.5000 28.3027 0.1543
42.5200 28.3160 0.1645
42.5400 28.3294 0.1478
42.5600 28.3427 0.1548
42.5800 28.3560 0.1603
42.6000 28.3694 0.1448
42.6200 28.3828 0.1502
42.6400 28.3961 0.1538
42.6600 28.4094 0.1416
42.6800 28.4228 0.1483
42.7000 28.4361 0.1535
42.7200 28.4495 0.1408
42.7400 28.4628 0.1478
42.7600 28.4761 0.1510
42.7800 28.4894 0.1457
42.8000 28.5027 0.1406
42.8200 28.5161 0.1472
42.8400 28.5294 0.1403
42.8600 28.5427 0.1407
42.8800 28.5560 0.1445
42.9000 28.5694 0.1355
42.9200 28.5827 0.1415
42.9400 28.5961 0.1453
42.9600 28.6094 0.1360
42.9800 28.6228 0.1377
43.0000 28.6361 0.1431
43.0200 28.6494 0.1350
43.0400 28.6627 0.1326
43.0600 28.6761 0.1467
43.0800 28.6894 0.1324
43.1000 28.7028 0.1305
43.1200 28.7161 0.1492
43.1400 28.7294 0.1311
43.1600 28.7428 0.1323
43.1800 28.7561 0.1437
43.2000 28.7694 0.1266
43.2200 28.7826 0.1289
43.2400 28.7960 0.1487
43.2600 28.8093 0.1263
43.2800 28.8227 0.1340
43.3000 28.8360 0.1490
43.3200 28.8494 0.1184
43.3400 28.8628 0.1308
43.3600 28.8762 0.1439
43.3800 28.8895 0.1197
43.4000 28.9028 0.1348
43.4200 28.9162 0.1426
43.4400 28.9295 0.1140
43.4600 28.9428 0.1354
43.4800 28.9560 0.1466
43.5000 28.9693 0.1165
43.5200 28.9827 0.1373
43.5400 28.9960 0.1386
43.5600 29.0093 0.1155
43.5800 29.0227 0.1382
43.6000 29.0361 0.1390
43.6200 29.0494 0.1145
43.6400 29.0628 0.1343
43.6600 29.0761 0.1302
43.6800 29.0895 0.1196
43.7000 29.1028 0.1357
43.7200 29.1162 0.1270
43.7400 29.1295 0.1173
43.7600 29.1428 0.1317
43.7800 29.1561 0.1250
43.8000 29.1695 0.1122
43.8200 29.1828 0.1326
43.8400 29.1961 0.1176
43.8600 29.2094 0.1153
43.8800 29.2227 0.1305
43.9000 29.2360 0.1129
43.9200 29.2493 0.1172
43.9400 29.2627 0.1242
43.9600 29.2760 0.1077
43.9800 29.2894 0.1133
44.0000 29.3027 0.1163
44.0200 29.3161 0.1138
44.0400 29.3294 0.1109
44.0600 29.3428 0.1110
44.0800 29.3561 0.1088
44.1000 29.3694 0.1080
44.1200 29.3827 0.1120
44.1400 29.3961 0.1067
44.1600 29.4095 0.1068
44.1800 29.4228 0.1020
44.2000 29.4361 0.1071
44.2200 29.4494 0.1055
44.2400 29.4627 0.1008
44.2600 29.4761 0.1049
44.2800 29.4893 0.0993
44.3000 29.5027 0.1006
44.3200 29.5160 0.0988
44.3400 29.5294 0.0984
44.3600 29.5427 0.0991
44.3800 29.5560 0.0944
44.4000 29.5694 0.0976
44.4200 29.5828 0.1017
44.4400 29.5961 0.0905
44.4600 29.6095 0.0949
44.4800 29.6228 0.0977
44.5000 29.6361 0.0908
44.5200 29.6494 0.0896
44.5400 29.6627 0.0979
44.5600 29.6760 0.0868
44.5800 29.6894 0.0881
44.6000 29.7027 0.0960
44.6200 29.7161 0.0821
44.6400 29.7294 0.0870
44.6600 29.7427 0.0925
44.6800 29.7560 0.0839
44.7000 29.7694 0.0839
44.7200 29.7827 0.0821
44.7400 29.7960 0.0820
44.7600 29.8094 0.0885
44.7800 29.8227 0.0825
44.8000 29.8361 0.0776
44.8200 29.8494 0.0820
44.8400 29.8628 0.0756
44.8600 29.8761 0.0803
44.8800 29.8895 0.0852
44.9000 29.9028 0.0727
44.9200 29.9161 0.0815
44.9400 29.9294 0.0775
44.9600 29.9427 0.0709
44.9800 29.9561 0.0782
45.0000 29.9694 0.0744
45.0200 29.9827 0.0727
45.0400 29.9960 0.0804
45.0600 30.0094 0.0707
45.0800 30.0227 0.0713
45.1000 30.0360 0.0789
45.1200 30.0494 0.0682
45.1400 30.0628 0.0689
45.1600 30.0762 0.0738
45.1800 30.0895 0.0604
45.2000 30.1028 0.0762
45.2200 30.1161 0.0703
45.2400 30.1295 0.0612
45.2600 30.1428 0.0693
45.2800 30.1561 0.0613
45.3000 30.1694 0.0647
45.3200 30.1827 0.0713
45.3400 30.1960 0.0572
45.3600 30.2094 0.0582
45.3800 30.2227 0.0691
45.4000 30.2360 0.0514
45.4200 30.2493 0.0604
45.4400 30.2627 0.0715
45.4600 30.2760 0.0436
45.4800 30.2894 0.0624
45.5000 30.3028 0.0606
45.5200 30.3161 0.0400
45.5400 30.3295 0.0591
45.5600 30.3428 0.0539
45.5800 30.3561 0.0414
45.6000 30.3695 0.0554
45.6200 30.3828 0.0540
45.6400 30.3960 0.0399
45.6600 30.4093 0.0562
45.6800 30.4227 0.0508
45.7000 30.4360 0.0377
45.7200 30.4494 0.0537
45.7400 30.4627 0.0460
45.7600 30.4760 0.0404
45.7800 30.4894 0.0539
45.8000 30.5028 0.0436
45.8200 30.5161 0.0405
45.8400 30.5294 0.0496
45.8600 30.5428 0.0432
45.8800 30.5561 0.0375
45.9000 30.5694 0.0509
45.9200 30.5827 0.0415
45.9400 30.5960 0.0388
45.9600 30.6094 0.0466
45.9800 30.6228 0.0397
46.0000 30.6361 0.0377
46.0200 30.6494 0.0422
46.0400 30.6628 0.0346
46.0600 30.6761 0.0347
46.0800 30.6894 0.0353
46.1000 30.7027 0.0319
46.1200 30.7160 0.0376
46.1400 30.7294 0.0340
46.1600 30.7427 0.0312
46.1800 30.7560 0.0364
46.2000 30.7694 0.0309
46.2200 30.7827 0.0273
46.2400 30.7961 0.0334
46.2600 30.8094 0.0285
46.2800 30.8227 0.0254
46.3000 30.8361 0.0281
46.3200 30.8495 0.0267
46.3400 30.8628 0.0190
46.3600 30.8761 0.0246
46.3800 30.8894 0.0295
46.4000 30.9028 0.0186
46.4200 30.9161 0.0176
46.4400 30.9294 0.0277
46.4600 30.9427 0.0170
46.4800 30.9560 0.0192
46.5000 30.9693 0.0238
46.5200 30.9827 0.0146
46.5400 30.9960 0.0142
46.5600 31.0094 0.0223
46.5800 31.0227 0.0120
46.6000 31.0361 0.0169
46.6200 31.0494 0.0210
46.6400 31.0628 0.0105
46.6600 31.0761 0.0163
46.6800 31.0894 0.0174
46.7000 31.1028 0.0092
46.7200 31.1161 0.0197
46.7400 31.1294 0.0187
46.7600 31.1427 0.0092
46.7800 31.1561 0.0166
46.8000 31.1694 0.0169
46.8200 31.1827 0.0116
46.8400 31.1960 0.0150
46.8600 31.2094 0.0148
46.8800 31.2227 0.0151
46.9000 31.2361 0.0154
46.9200 31.2494 0.0138
46.9400 31.2627 0.0144
46.9600 31.2761 0.0158
46.9800 31.2894 0.0111
47.0000 31.3027 0.0114
47.0200 31.3161 0.0169
47.0400 31.3295 0.0094
47.0600 31.3428 0.0132
47.0800 31.3561 0.0143
47.1000 31.3694 0.0099
47.1200 31.3827 0.0157
47.1400 31.3960 0.0120
47.1600 31.4094 0.0077
47.1800 31.4227 0.0151
47.2000 31.4360 0.0105
47.2200 31.4493 0.0072
47.2400 31.4627 0.0115
47.2600 31.4760 0.0087
47.2800 31.4894 0.0085
47.3000 31.5027 0.0108
47.3200 31.5161 0.0013
47.3400 31.5294 0.0050
47.3600 31.5427 0.0102
47.3800 31.5561 0.0036
47.4000 31.5694 0.0088
47.4200 31.5828 0.0042
47.4400 31.5961 -0.0002
47.4600 31.6094 0.0092
47.4800 31.6227 0.0000
47.5000 31.6361 0.0013
47.5200 31.6494 0.0018
47.5400 31.6627 -0.0020
47.5600 31.6760 0.0000
47.5800 31.6894 0.0014
47.6000 31.7027 -0.0010
47.6200 31.7160 -0.0033
47.6400 31.7294 0.0008
47.6600 31.7427 -0.0036
47.6800 31.7561 -0.0046
47.7000 31.7695 -0.0041
47.7200 31.7828 -0.0090
47.7400 31.7961 -0.0019
47.7600 31.8095 -0.0025
47.7800 31.8228 -0.0157
47.8000 31.8361 -0.0059
47.8200 31.8494 -0.0017
47.8400 31.8627 -0.0127
47.8600 31.8760 -0.0089
47.8800 31.8894 -0.0031
47.9000 31.9027 -0.0171
47.9200 31.9160 -0.0107
47.9400 31.9294 -0.0069
47.9600 31.9427 -0.0184
47.9800 31.9560 -0.0126
48.0000 31.9694 -0.0066
48.0200 31.9827 -0.0191
48.0400 31.9961 -0.0132
48.0600 32.0094 -0.0101
48.0800 32.0227 -0.0198
48.1000 32.0360 -0.0140
48.1200 32.0494 -0.0096
48.1400 32.0628 -0.0250
48.1600 32.0761 -0.0182
48.1800 32.0894 -0.0161
48.2000 32.1028 -0.0292
48.2200 32.1161 -0.0164
48.2400 32.1294 -0.0182
48.2600 32.1427 -0.0303
48.2800 32.1560 -0.0213
48.3000 32.1693 -0.0231
48.3200 32.1826 -0.0331
48.3400 32.1960 -0.0249
48.3600 32.2093 -0.0244
48.3800 32.2227 -0.0347
48.4000 32.2361 -0.0314
48.4200 32.2495 -0.0285
48.4400 32.2628 -0.0376
48.4600 32.2761 -0.0327
48.4800 32.2895 -0.0341
48.5000 32.3028 -0.0418
48.5200 32.3161 -0.0331
48.5400 32.3294 -0.0301
48.5600 32.3427 -0.0397
48.5800 32.3560 -0.0353
48.6000 32.3694 -0.0347
48.6200 32.3827 -0.0420
48.6400 32.3960 -0.0372
48.6600 32.4094 -0.0349
48.6800 32.4227 -0.0439
48.7000 32.4360 -0.0365
48.7200 32.4494 -0.0428
48.7400 32.4627 -0.0434
48.7600 32.4761 -0.0411
48.7800 32.4895 -0.0429
48.8000 32.5028 -0.0402
48.8200 32.5161 -0.0441
48.8400 32.5295 -0.0446
48.8600 32.5428 -0.0404
48.8800 32.5561 -0.0396
48.9000 32.5694 -0.0467
48.9200 32.5827 -0.0470
48.9400 32.5961 -0.0430
48.9600 32.6094 -0.0514
48.9800 32.6227 -0.0481
49.0000 32.6360 -0.0491
49.0200 32.6493 -0.0454
49.0400 32.6627 -0.0468
49.0600 32.6761 -0.0552
49.0800 32.6894 -0.0474
49.1000 32.7027 -0.0526
49.1200 32.7161 -0.0512
49.1400 32.7295 -0.0520
49.1600 32.7428 -0.0567
49.1800 32.7561 -0.0556
49.2000 32.7694 -0.0512
49.2200 32.7828 -0.0561
49.2400 32.7961 -0.0554
49.2600 32.8094 -0.0505
49.2800 32.8227 -0.0586
49.3000 32.8361 -0.0579
49.3200 32.8494 -0.0496
49.3400 32.8627 -0.0569
49.3600 32.8760 -0.0569
49.3800 32.8893 -0.0563
49.4000 32.9027 -0.0631
49.4200 32.9161 -0.0575
49.4400 32.9294 -0.0577
49.4600 32.9427 -0.0634
49.4800 32.9561 -0.0579
49.5000 32.9695 -0.0604
49.5200 32.9828 -0.0643
49.5400 32.9961 -0.0628
49.5600 33.0094 -0.0571
49.5800 33.0228 -0.0715
49.6000 33.0361 -0.0677
49.6200 33.0494 -0.0625
49.6400 33.0627 -0.0692
49.6600 33.0760 -0.0664
49.6800 33.0894 -0.0670
49.7000 33.1027 -0.0749
49.7200 33.1160 -0.0720
49.7400 33.1294 -0.0698
49.7600 33.1427 -0.0772
49.7800 33.1560 -0.0745
49.8000 33.1693 -0.0753
49.8200 33.1827 -0.0792
49.8400 33.1961 -0.0749
49.8600 33.2094 -0.0803
49.8800 33.2228 -0.0826
49.9000 33.2361 -0.0774
49.9200 33.2495 -0.0796
49.9400 33.2628 -0.0830
49.9600 33.2762 -0.0790
49.9800 33.2894 -0.0814
50.0000 33.3028 -0.0832
50.0200 33.3161 -0.0800
50.0400 33.3294 -0.0833
50.0600 33.3427 -0.0838
50.0800 33.3560 -0.0815
50.1000 33.3693 -0.0834
50.1200 33.3827 -0.0871
50.1400 33.3960 -0.0827
50.1600 33.4094 -0.0891
50.1800 33.4227 -0.0876
50.2000 33.4361 -0.0896
50.2200 33.4494 -0.0916
50.2400 33.4627 -0.0941
50.2600 33.4761 -0.0870
50.2800 33.4894 -0.0970
50.3000 33.5028 -0.0943
50.3200 33.5161 -0.0904
50.3400 33.5294 -0.0972
50.3600 33.5427 -0.0932
50.3800 33.5561 -0.0913
50.4000 33.5694 -0.1006
50.4200 33.5827 -0.0963
50.4400 33.5960 -0.0978
50.4600 33.6093 -0.1011
50.4800 33.6227 -0.0964
50.5000 33.6360 -0.1018
50.5200 33.6493 -0.1043
50.5400 33.6627 -0.1008
50.5600 33.6761 -0.1048
50.5800 33.6895 -0.1034
50.6000 33.7028 -0.0994
50.6200 33.7162 -0.1088
50.6400 33.7295 -0.1029
50.6600 33.7428 -0.1008
50.6800 33.7561 -0.1149
50.7000 33.7694 -0.1015
50.7200 33.7827 -0.1017
50.7400 33.7960 -0.1100
50.7600 33.8094 -0.1012
50.7800 33.8227 -0.1093
50.8000 33.8360 -0.1107
50.8200 33.8494 -0.1029
50.8400 33.8627 -0.1086
50.8600 33.8761 -0.1112
50.8800 33.8894 -0.1052
50.9000 33.9028 -0.1172
50.9200 33.9161 -0.1079
50.9400 33.9295 -0.1101
50.9600 33.9428 -0.1171
50.9800 33.9561 -0.1068
51.0000 33.9694 -0.1123
51.0200 33.9827 -0.1232
51.0400 33.9961 -0.1093
51.0600 34.0094 -0.1150
51.0800 34.0227 -0.1210
51.1000 34.0360 -0.1074
51.1200 34.0494 -0.1223
51.1400 34.0627 -0.1240
51.1600 34.0760 -0.1098
51.1800 34.0893 -0.1224
51.2000 34.1027 -0.1257
51.2200 34.1161 -0.1162
51.2400 34.1294 -0.1290
51.2600 34.1427 -0.1256
51.2800 34.1561 -0.1112
51.3000 34.1695 -0.1300
51.3200 34.1828 -0.1253
51.3400 34.1961 -0.1142
51.3600 34.2094 -0.1331
51.3800 34.2228 -0.1236
51.4000 34.2361 -0.1188
51.4200 34.2494 -0.1357
51.4400 34.2627 -0.1240
51.4600 34.2761 -0.1206
51.4800 34.2894 -0.1398
51.5000 34.3028 -0.1283
51.5200 34.3160 -0.1231
51.5400 34.3293 -0.1396
51.5600 34.3427 -0.1304
51.5800 34.3560 -0.1271
51.6000 34.3694 -0.1414
51.6200 34.3827 -0.1301
51.6400 34.3961 -0.1287
51.6600 34.4094 -0.1436
51.6800 34.4228 -0.1327
51.7000 34.4361 -0.1391
51.7200 34.4495 -0.1437
51.7400 34.4628 -0.1369
51.7600 34.4761 -0.1420
51.7800 34.4894 -0.1411
51.8000 34.5027 -0.1383
51.8200 34.5160 -0.1392
51.8400 34.5294 -0.1497
51.8600 34.5427 -0.1417
51.8800 34.5561 -0.1422
51.9000 34.5694 -0.1495
51.9200 34.5827 -0.1396
51.9400 34.5960 -0.1426
51.9600 34.6093 -0.1492
51.9800 34.6227 -0.1424
52.0000 34.6360 -0.1459
52.0200 34.6494 -0.1525
52.0400 34.6628 -0.1425
52.0600 34.6761 -0.1465
52.0800 34.6894 -0.1554
52.1000 34.7028 -0.1424
52.1200 34.7162 -0.1484
52.1400 34.7295 -0.1515
52.1600 34.7427 -0.1431
52.1800 34.7560 -0.1522
52.2000 34.7694 -0.1510
52.2200 34.7827 -0.1457
52.2400 34.7960 -0.1481
52.2600 34.8093 -0.1502
52.2800 34.8227 -0.1480
52.3000 34.8360 -0.1537
52.3200 34.8494 -0.1537
52.3400 34.8627 -0.1498
52.3600 34.8761 -0.1530
52.3800 34.8895 -0.1527
52.4000 34.9028 -0.1571
52.4200 34.9161 -0.1559
52.4400 34.9294 -0.1548
52.4600 34.9428 -0.1545
52.4800 34.9561 -0.1532
52.5000 34.9694 -0.1624
52.5200 34.9827 -0.1528
52.5400 34.9960 -0.1574
52.5600 35.0094 -0.1581
52.5800 35.0227 -0.1573
52.6000 35.0360 -0.1602
52.6200 35.0493 -0.1565
52.6400 35.0627 -0.1625
52.6600 35.0760 -0.1623
52.6800 35.0894 -0.1597
52.7000 35.1027 -0.1657
52.7200 35.1161 -0.1640
52.7400 35.1294 -0.1621
52.7600 35.1428 -0.1665
52.7800 35.1561 -0.1646
52.8000 35.1694 -0.1605
52.8200 35.1828 -0.1668
52.8400 35.1961 -0.1674
52.8600 35.2094 -0.1630
52.8800 35.2227 -0.1734
52.9000 35.2360 -0.1699
52.9200 35.2494 -0.1661
52.9400 35.2627 -0.1780
52.9600 35.2760 -0.1707
52.9800 35.2894 -0.1747
53.0000 35.3027 -0.1811
53.0200 35.3161 -0.1742
53.0400 35.3294 -0.1775
53.0600 35.3428 -0.1782
53.0800 35.3561 -0.1789
53.1000 35.3695 -0.1781
53.1200 35.3828 -0.1875
53.1400 35.3961 -0.1772
53.1600 35.4094 -0.1769
53.1800 35.4227 -0.1896
53.2000 35.4361 -0.1812
53.2200 35.4494 -0.1851
53.2400 35.4627 -0.1911
53.2600 35.4761 -0.1815
53.2800 35.4894 -0.1853
53.3000 35.5028 -0.1953
53.3200 35.5161 -0.1847
53.3400 35.5294 -0.1866
53.3600 35.5427 -0.1988
53.3800 35.5560 -0.1852
53.4000 35.5694 -0.1940
53.4200 35.5827 -0.2002
53.4400 35.5960 -0.1865
53.4600 35.6094 -0.2004
53.4800 35.6228 -0.1999
53.5000 35.6361 -0.1930
53.5200 35.6494 -0.2037
53.5400 35.6628 -0.1958
53.5600 35.6761 -0.1948
53.5800 35.6894 -0.2049
53.6000 35.7027 -0.1968
53.6200 35.7161 -0.1992
53.6400 35.7294 -0.2068
53.6600 35.7428 -0.1958
53.6800 35.7561 -0.2022
53.7000 35.7694 -0.2056
53.7200 35.7827 -0.1976
53.7400 35.7960 -0.2097
53.7600 35.8094 -0.2038
53.7800 35.8227 -0.1944
53.8000 35.8361 -0.2095
53.8200 35.8494 -0.2077
53.8400 35.8628 -0.2004
53.8600 35.8761 -0.2071
53.8800 35.8894 -0.2034
53.9000 35.9028 -0.2016
53.9200 35.9161 -0.2135
53.9400 35.9294 -0.2040
53.9600 35.9427 -0.2059
53.9800 35.9560 -0.2100
54.0000 35.9694 -0.2027
54.0200 35.9827 -0.2098
54.0400 35.9960 -0.2126
54.0600 36.0093 -0.2089
54.0800 36.0227 -0.2118
54.1000 36.0361 -0.2127
54.1200 36.0494 -0.2104
54.1400 36.0627 -0.2141
54.1600 36.0761 -0.2172
54.1800 36.0894 -0.2159
54.2000 36.1028 -0.2162
54.2200 36.1161 -0.2184
54.2400 36.1294 -0.2161
54.2600 36.1428 -0.2164
54.2800 36.1561 -0.2248
54.3000 36.1695 -0.2175
54.3200 36.1828 -0.2166
54.3400 36.1961 -0.2271
54.3600 36.2094 -0.2212
54.3800 36.2227 -0.2192
54.4000 36.2360 -0.2287
54.4200 36.2494 -0.2247
54.4400 36.2627 -0.2152
54.4600 36.2760 -0.2306
54.4800 36.2894 -0.2280
54.5000 36.3027 -0.2205
54.5200 36.3161 -0.2316
54.5400 36.3295 -0.2217
54.5600 36.3428 -0.2241
54.5800 36.3561 -0.2335
54.6000 36.3694 -0.2258
54.6200 36.3828 -0.2248
54.6400 36.3961 -0.2354
54.6600 36.4094 -0.2228
54.6800 36.4227 -0.2314
54.7000 36.4360 -0.2374
54.7200 36.4494 -0.2265
54.7400 36.4627 -0.2443
54.7600 36.4761 -0.2943
54.7800 36.4894 -0.1190
54.8000 36.5027 -0.0481
54.8200 36.5160 -0.0616
54.8400 36.5294 -0.0548
54.8600 36.5427 -0.0710
54.8800 36.5561 -0.0681
54.9000 36.5694 -0.0653
54.9200 36.5828 -0.0731
54.9400 36.5961 -0.0697
54.9600 36.6094 -0.0620
54.9800 36.6228 -0.0694
55.0000 36.6361 -0.0639
55.0200 36.6494 -0.0651
55.0400 36.6627 -0.0647
55.0600 36.6760 -0.0676
55.0800 36.6894 -0.0604
55.1000 36.7027 -0.0669
55.1200 36.7160 -0.0726
55.1400 36.7293 -0.0656
55.1600 36.7427 -0.0586
55.1800 36.7560 -0.0730
55.2000 36.7694 -0.0638
55.2200 36.7827 -0.0610
55.2400 36.7961 -0.0773
55.2600 36.8094 -0.0648
55.2800 36.8227 -0.0605
55.3000 36.8361 -0.0751
55.3200 36.8494 -0.0641
55.3400 36.8627 -0.0665
55.3600 36.8761 -0.0781
55.3800 36.8895 -0.0657
55.4000 36.9028 -0.0635
55.4200 36.9161 -0.0774
55.4400 36.9295 -0.0620
55.4600 36.9428 -0.0680
55.4800 36.9561 -0.0759
55.5000 36.9694 -0.0635
55.5200 36.9826 -0.0680
55.5400 36.9959 -0.0775
55.5600 37.0093 -0.0668
55.5800 37.0227 -0.0711
55.6000 37.0360 -0.0750
55.6200 37.0494 -0.0718
55.6400 37.0628 -0.0700
55.6600 37.0762 -0.0801
55.6800 37.0895 -0.0726
55.7000 37.1028 -0.0700
55.7200 37.1162 -0.0802
55.7400 37.1295 -0.0731
55.7600 37.1428 -0.0706
55.7800 37.1561 -0.0849
55.8000 37.1694 -0.0732
55.8200 37.1827 -0.0752
55.8400 37.1960 -0.0817
55.8600 37.2093 -0.0718
55.8800 37.2226 -0.0772
55.9000 37.2360 -0.0856
55.9200 37.2494 -0.0784
55.9400 37.2627 -0.0727
55.9600 37.2760 -0.0845
55.9800 37.2894 -0.0807
56.0000 37.3028 -0.0760
56.0200 37.3161 -0.0874
56.0400 37.3294 -0.0780
56.0600 37.3428 -0.0769
56.0800 37.3561 -0.0854
56.1000 37.3695 -0.0755
56.1200 37.3828 -0.0820
56.1400 37.3961 -0.0861
56.1600 37.4094 -0.0766
56.1800 37.4227 -0.0852
56.2000 37.4361 -0.0843
56.2200 37.4494 -0.0799
56.2400 37.4627 -0.0885
56.2600 37.4760 -0.0831
56.2800 37.4894 -0.0823
56.3000 37.5027 -0.0864
56.3200 37.5161 -0.0850
56.3400 37.5294 -0.0829
56.3600 37.5428 -0.0873
56.3800 37.5561 -0.0850
56.4000 37.5694 -0.0809
56.4200 37.5827 -0.0895
56.4400 37.5961 -0.0850
56.4600 37.6094 -0.0866
56.4800 37.6228 -0.0928
56.5000 37.6361 -0.0858
56.5200 37.6494 -0.0877
56.5400 37.6628 -0.0901
56.5600 37.6761 -0.0878
56.5800 37.6894 -0.0893
56.6000 37.7027 -0.0935
56.6200 37.7160 -0.0857
56.6400 37.7294 -0.0917
56.6600 37.7427 -0.0939
56.6800 37.7560 -0.0870
56.7000 37.7694 -0.0975
56.7200 37.7828 -0.0938
56.7400 37.7961 -0.0883
56.7600 37.8095 -0.0962
56.7800 37.8228 -0.0927
56.8000 37.8361 -0.0913
56.8200 37.8494 -0.0942
56.8400 37.8627 -0.0909
56.8600 37.8760 -0.0942
56.8800 37.8894 -0.0919
56.9000 37.9027 -0.0908
56.9200 37.9161 -0.0987
56.9400 37.9294 -0.0939
56.9600 37.9427 -0.0888
56.9800 37.9560 -0.0986
57.0000 37.9694 -0.0908
57.0200 37.9827 -0.0996
57.0400 37.9960 -0.0963
57.0600 38.0094 -0.0919
57.0800 38.0228 -0.0987
57.1000 38.0361 -0.0983
57.1200 38.0495 -0.0974
57.1400 38.0628 -0.1006
57.1600 38.0761 -0.1005
57.1800 38.0895 -0.0968
57.2000 38.1028 -0.1026
57.2200 38.1161 -0.1039
57.2400 38.1294 -0.1000
57.2600 38.1427 -0.1034
57.2800 38.1560 -0.1003
57.3000 38.1694 -0.1058
57.3200 38.1827 -0.1036
57.3400 38.1960 -0.1027
57.3600 38.2094 -0.1062
57.3800 38.2227 -0.1045
57.4000 38.2360 -0.1079
57.4200 38.2494 -0.1061
57.4400 38.2628 -0.1023
57.4600 38.2761 -0.1118
57.4800 38.2894 -0.1044
57.5000 38.3028 -0.1029
57.5200 38.3161 -0.1119
57.5400 38.3295 -0.1080
57.5600 38.3428 -0.1061
57.5800 38.3561 -0.1070
57.6000 38.3694 -0.1102
57.6200 38.3828 -0.1080
57.6400 38.3961 -0.1093
57.6600 38.4094 -0.1032
57.6800 38.4226 -0.1093
57.7000 38.4360 -0.1097
57.7200 38.4493 -0.1108
57.7400 38.4627 -0.1135
57.7600 38.4760 -0.1132
57.7800 38.4894 -0.1112
57.8000 38.5028 -0.1138
57.8200 38.5162 -0.1124
57.8400 38.5295 -0.1166
57.8600 38.5428 -0.1156
57.8800 38.5561 -0.1149
57.9000 38.5695 -0.1152
57.9200 38.5828 -0.1157
57.9400 38.5960 -0.1165
57.9600 38.6093 -0.1145
57.9800 38.6227 -0.1177
58.0000 38.6360 -0.1174
58.0200 38.6493 -0.1156
58.0400 38.6627 -0.1193
58.0600 38.6760 -0.1161
58.0800 38.6894 -0.1213
58.1000 38.7028 -0.1191
58.1200 38.7161 -0.1206
58.1400 38.7294 -0.1197
58.1600 38.7428 -0.1220
58.1800 38.7562 -0.1268
58.2000 38.7695 -0.1213
58.2200 38.7828 -0.1213
58.2400 38.7961 -0.1222
58.2600 38.8094 -0.1218
58.2800 38.8228 -0.1229
58.3000 38.8361 -0.1260
58.3200 38.8494 -0.1241
58.3400 38.8627 -0.1235
58.3600 38.8761 -0.1268
58.3800 38.8894 -0.1235
58.4000 38.9027 -0.1263
58.4200 38.9160 -0.1303
58.4400 38.9294 -0.1225
58.4600 38.9427 -0.1259
58.4800 38.9561 -0.1318
58.5000 38.9694 -0.1275
58.5200 38.9828 -0.1262
58.5400 38.9961 -0.1338
58.5600 39.0095 -0.1288
58.5800 39.0228 -0.1328
58.6000 39.0361 -0.1336
58.6200 39.0495 -0.1315
58.6400 39.0628 -0.1367
58.6600 39.0761 -0.1335
58.6800 39.0894 -0.1277
58.7000 39.1027 -0.1410
58.7200 39.1161 -0.1366
58.7400 39.1293 -0.1340
58.7600 39.1427 -0.1339
58.7800 39.1560 -0.1351
58.8000 39.1694 -0.1371
58.8200 39.1827 -0.1407
58.8400 39.1960 -0.1362
58.8600 39.2094 -0.1349
58.8800 39.2228 -0.1427
58.9000 39.2361 -0.1367
58.9200 39.2495 -0.1389
58.9400 39.2628 -0.1402
58.9600 39.2761 -0.1426
58.9800 39.2894 -0.1424
59.0000 39.3028 -0.1411
59.0200 39.3161 -0.1443
59.0400 39.3294 -0.1407
59.0600 39.3427 -0.1425
59.0800 39.3561 -0.1474
59.1000 39.3694 -0.1422
59.1200 39.3827 -0.1483
59.1400 39.3960 -0.1477
59.1600 39.4094 -0.1424
59.1800 39.4227 -0.1507
59.2000 39.4360 -0.1508
59.2200 39.4494 -0.1428
59.2400 39.4627 -0.1530
59.2600 39.4761 -0.1494
59.2800 39.4894 -0.1515
59.3000 39.5028 -0.1548
59.3200 39.5161 -0.1509
59.3400 39.5295 -0.1507
59.3600 39.5428 -0.1548
59.3800 39.5561 -0.1517
59.4000 39.5694 -0.1482
59.4200 39.5827 -0.1612
59.4400 39.5960 -0.1523
59.4600 39.6094 -0.1535
59.4800 39.6227 -0.1568
59.5000 39.6360 -0.1541
59.5200 39.6494 -0.1573
59.5400 39.6627 -0.1593
59.5600 39.6760 -0.1579
59.5800 39.6894 -0.1588
59.6000 39.7028 -0.1617
59.6200 39.7162 -0.1561
59.6400 39.7295 -0.1566
59.6600 39.7428 -0.1660
59.6800 39.7561 -0.1581
59.7000 39.7695 -0.1609
59.7200 39.7828 -0.1653
59.7400 39.7961 -0.1632
59.7600 39.8094 -0.1635
59.7800 39.8227 -0.1633
59.8000 39.8361 -0.1685
59.8200 39.8494 -0.1695
59.8400 39.8627 -0.1640
59.8600 39.8760 -0.1673
59.8800 39.8894 -0.1664
59.9000 39.9027 -0.1665
59.9200 39.9160 -0.1685
59.9400 39.9294 -0.1695
59.9600 39.9427 -0.1676
59.9800 39.9561 -0.1758
60.0000 39.9695 -0.1669
60.0200 39.9828 -0.1711
60.0400 39.9961 -0.1831
60.0470 40.0006 -0.1955
