Raw Data
Time Displacement Force
(s) (mm) (N)
0.0000 0.0000 0.4410
0.0200 0.0001 0.4459
0.0400 0.0021 0.5441
0.0600 0.0098 0.5775
0.0800 0.0217 0.4978
0.1000 0.0343 0.5118
0.1200 0.0469 0.5330
0.1400 0.0602 0.4967
0.1600 0.0743 0.5064
0.1800 0.0884 0.4996
0.2000 0.1024 0.4797
0.2200 0.1160 0.5062
0.2400 0.1294 0.4978
0.2600 0.1426 0.4796
0.2800 0.1560 0.5031
0.3000 0.1693 0.4884
0.3200 0.1827 0.4803
0.3400 0.1961 0.5112
0.3600 0.2094 0.4963
0.3800 0.2227 0.4927
0.4000 0.2361 0.5109
0.4200 0.2494 0.4885
0.4400 0.2627 0.4922
0.4600 0.2760 0.5047
0.4800 0.2894 0.4823
0.5000 0.3027 0.4833
0.5200 0.3160 0.4906
0.5400 0.3293 0.4746
0.5600 0.3427 0.4867
0.5800 0.3560 0.4930
0.6000 0.3694 0.4708
0.6200 0.3827 0.4814
0.6400 0.3961 0.4936
0.6600 0.4094 0.4681
0.6800 0.4228 0.4856
0.7000 0.4361 0.4876
0.7200 0.4494 0.4692
0.7400 0.4627 0.4811
0.7600 0.4761 0.4816
0.7800 0.4894 0.4703
0.8000 0.5028 0.4792
0.8200 0.5161 0.4766
0.8400 0.5294 0.4739
0.8600 0.5428 0.4739
0.8800 0.5560 0.4768
0.9000 0.5693 0.4741
0.9200 0.5826 0.4735
0.9400 0.5960 0.4757
0.9600 0.6093 0.4701
0.9800 0.6227 0.4663
1.0000 0.6360 0.4717
1.0200 0.6494 0.4676
1.0400 0.6628 0.4570
1.0600 0.6761 0.4698
1.0800 0.6894 0.4697
1.1000 0.7027 0.4622
1.1200 0.7161 0.4688
1.1400 0.7294 0.4594
1.1600 0.7427 0.4568
1.1800 0.7560 0.4658
1.2000 0.7694 0.4606
1.2200 0.7827 0.4549
1.2400 0.7960 0.4623
1.2600 0.8093 0.4533
1.2800 0.8227 0.4515
1.3000 0.8360 0.4642
1.3200 0.8494 0.4502
1.3400 0.8627 0.4498
1.3600 0.8760 0.4597
1.3800 0.8894 0.4488
1.4000 0.9028 0.4448
1.4200 0.9161 0.4611
1.4400 0.9294 0.4490
1.4600 0.9427 0.4418
1.4800 0.9561 0.4529
1.5000 0.9695 0.4443
1.5200 0.9828 0.4416
1.5400 0.9960 0.4533
1.5600 1.0094 0.4437
1.5800 1.0227 0.4467
1.6000 1.0360 0.4513
1.6200 1.0493 0.4400
1.6400 1.0626 0.4416
1.6600 1.0760 0.4452
1.6800 1.0894 0.4398
1.7000 1.1027 0.4373
1.7200 1.1161 0.4424
1.7400 1.1294 0.4391
1.7600 1.1428 0.4307
1.7800 1.1561 0.4386
1.8000 1.1694 0.4395
1.8200 1.1828 0.4305
1.8400 1.1961 0.4342
1.8600 1.2095 0.4383
1.8800 1.2228 0.4284
1.9000 1.2360 0.4365
1.9200 1.2494 0.4352
1.9400 1.2627 0.4224
1.9600 1.2761 0.4342
1.9800 1.2893 0.4306
2.0000 1.3027 0.4231
2.0200 1.3160 0.4323
2.0400 1.3293 0.4248
2.0600 1.3427 0.4192
2.0800 1.3560 0.4298
2.1000 1.3694 0.4204
2.1200 1.3828 0.4180
2.1400 1.3961 0.4234
2.1600 1.4094 0.4160
2.1800 1.4228 0.4162
2.2000 1.4361 0.4233
2.2200 1.4494 0.4108
2.2400 1.4627 0.4236
2.2600 1.4760 0.4153
2.2800 1.4893 0.4122
2.3000 1.5027 0.4208
2.3200 1.5160 0.4082
2.3400 1.5294 0.4156
2.3600 1.5427 0.4144
2.3800 1.5561 0.4074
2.4000 1.5694 0.4180
2.4200 1.5827 0.4103
2.4400 1.5961 0.4055
2.4600 1.6094 0.4158
2.4800 1.6227 0.4073
2.5000 1.6360 0.4066
2.5200 1.6493 0.4204
2.5400 1.6627 0.4061
2.5600 1.6760 0.4025
2.5800 1.6894 0.4153
2.6000 1.7028 0.3994
2.6200 1.7161 0.4031
2.6400 1.7294 0.4127
2.6600 1.7428 0.3948
2.6800 1.7561 0.4065
2.7000 1.7694 0.4101
2.7200 1.7827 0.3924
2.7400 1.7960 0.4040
2.7600 1.8094 0.4058
2.7800 1.8227 0.3891
2.8000 1.8360 0.4017
2.8200 1.8493 0.4063
2.8400 1.8627 0.3867
2.8600 1.8761 0.4043
2.8800 1.8894 0.3968
2.9000 1.9027 0.3866
2.9200 1.9161 0.4019
2.9400 1.9294 0.3971
2.9600 1.9428 0.3903
2.9800 1.9561 0.3963
3.0000 1.9694 0.3909
3.0200 1.9828 0.3915
3.0400 1.9961 0.3946
3.0600 2.0094 0.3895
3.0800 2.0227 0.3925
3.1000 2.0360 0.3891
3.1200 2.0494 0.3873
3.1400 2.0627 0.3941
3.1600 2.0760 0.3823
3.1800 2.0894 0.3870
3.2000 2.1028 0.3922
3.2200 2.1161 0.3803
3.2400 2.1295 0.3831
3.2600 2.1428 0.3907
3.2800 2.1561 0.3772
3.3000 2.1695 0.3874
3.3200 2.1828 0.3877
3.3400 2.1961 0.3792
3.3600 2.2094 0.3871
3.3800 2.2227 0.3845
3.4000 2.2360 0.3795
3.4200 2.2493 0.3905
3.4400 2.2627 0.3777
3.4600 2.2760 0.3752
3.4800 2.2894 0.3870
3.5000 2.3027 0.3779
3.5200 2.3160 0.3738
3.5400 2.3294 0.3830
3.5600 2.3427 0.3738
3.5800 2.3561 0.3713
3.6000 2.3694 0.3783
3.6200 2.3828 0.3690
3.6400 2.3961 0.3766
3.6600 2.4095 0.3723
3.6800 2.4228 0.3695
3.7000 2.4361 0.3762
3.7200 2.4494 0.3708
3.7400 2.4627 0.3653
3.7600 2.4761 0.3801
3.7800 2.4893 0.3667
3.8000 2.5026 0.3645
3.8200 2.5160 0.3732
3.8400 2.5293 0.3599
3.8600 2.5427 0.3662
3.8800 2.5560 0.3835
3.9000 2.5694 0.3549
3.9200 2.5828 0.3592
3.9400 2.5961 0.3820
3.9600 2.6095 0.3501
3.9800 2.6227 0.3602
4.0000 2.6361 0.3734
4.0200 2.6494 0.3579
4.0400 2.6628 0.3600
4.0600 2.6761 0.3726
4.0800 2.6894 0.3489
4.1000 2.7027 0.3652
4.1200 2.7161 0.3678
4.1400 2.7294 0.3481
4.1600 2.7427 0.3660
4.1800 2.7560 0.3568
4.2000 2.7694 0.3448
4.2200 2.7827 0.3665
4.2400 2.7960 0.3506
4.2600 2.8094 0.3493
4.2800 2.8227 0.3626
4.3000 2.8361 0.3450
4.3200 2.8494 0.3484
4.3400 2.8628 0.3635
4.3600 2.8761 0.3441
4.3800 2.8895 0.3472
4.4000 2.9028 0.3592
4.4200 2.9161 0.3451
4.4400 2.9294 0.3512
4.4600 2.9427 0.3546
4.4800 2.9560 0.3429
4.5000 2.9694 0.3526
4.5200 2.9827 0.3514
4.5400 2.9960 0.3405
4.5600 3.0094 0.3501
4.5800 3.0227 0.3469
4.6000 3.0360 0.3424
4.6200 3.0494 0.3499
4.6400 3.0627 0.3460
4.6600 3.0761 0.3436
4.6800 3.0894 0.3431
4.7000 3.1027 0.3449
4.7200 3.1161 0.3389
4.7400 3.1294 0.3456
4.7600 3.1428 0.3446
4.7800 3.1561 0.3390
4.8000 3.1694 0.3413
4.8200 3.1828 0.3411
4.8400 3.1961 0.3403
4.8600 3.2094 0.3382
4.8800 3.2227 0.3433
4.9000 3.2359 0.3322
4.9200 3.2493 0.3420
4.9400 3.2626 0.3461
4.9600 3.2760 0.3294
4.9800 3.2893 0.3368
5.0000 3.3028 0.3422
5.0200 3.3162 0.3262
5.0400 3.3295 0.3314
5.0600 3.3428 0.3374
5.0800 3.3561 0.3312
5.1000 3.3695 0.3273
5.1200 3.3828 0.3378
5.1400 3.3961 0.3251
5.1600 3.4094 0.3258
5.1800 3.4227 0.3339
5.2000 3.4360 0.3251
5.2200 3.4494 0.3265
5.2400 3.4627 0.3329
5.2600 3.4760 0.3247
5.2800 3.4893 0.3185
5.3000 3.5027 0.3292
5.3200 3.5160 0.3240
5.3400 3.5294 0.3167
5.3600 3.5428 0.3286
5.3800 3.5561 0.3205
5.4000 3.5695 0.3134
5.4200 3.5828 0.3263
5.4400 3.5961 0.3191
5.4600 3.6095 0.3147
5.4800 3.6228 0.3261
5.5000 3.6361 0.3165
5.5200 3.6494 0.3137
5.5400 3.6627 0.3279
5.5600 3.6761 0.3166
5.5800 3.6894 0.3086
5.6000 3.7027 0.3248
5.6200 3.7160 0.3185
5.6400 3.7294 0.3090
5.6600 3.7427 0.3207
5.6800 3.7561 0.3097
5.7000 3.7694 0.3006
5.7200 3.7828 0.3212
5.7400 3.7961 0.3111
5.7600 3.8094 0.2973
5.7800 3.8228 0.3267
5.8000 3.8361 0.3075
5.8200 3.8494 0.2945
5.8400 3.8628 0.3243
5.8600 3.8761 0.3065
5.8800 3.8894 0.2951
5.9000 3.9027 0.3245
5.9200 3.9161 0.3010
5.9400 3.9294 0.2949
5.9600 3.9427 0.3224
5.9800 3.9560 0.3053
6.0000 3.9693 0.2947
6.0200 3.9827 0.3249
6.0400 3.9960 0.2951
6.0600 4.0094 0.2968
6.0800 4.0227 0.3238
6.1000 4.0361 0.2949
6.1200 4.0495 0.2950
6.1400 4.0628 0.3214
6.1600 4.0761 0.2930
6.1800 4.0895 0.2960
6.2000 4.1028 0.3166
6.2200 4.1161 0.2940
6.2400 4.1294 0.2984
6.2600 4.1427 0.3179
6.2800 4.1561 0.2912
6.3000 4.1694 0.2885
6.3200 4.1827 0.3153
6.3400 4.1960 0.2921
6.3600 4.2093 0.2949
6.3800 4.2227 0.3110
6.4000 4.2360 0.2883
6.4200 4.2493 0.2964
6.4400 4.2627 0.3081
6.4600 4.2761 0.2884
6.4800 4.2894 0.2953
6.5000 4.3027 0.3071
6.5200 4.3161 0.2914
6.5400 4.3294 0.2922
6.5600 4.3428 0.3034
6.5800 4.3561 0.2923
6.6000 4.3694 0.2907
6.6200 4.3827 0.3037
6.6400 4.3961 0.2907
6.6600 4.4094 0.2862
6.6800 4.4227 0.3037
6.7000 4.4360 0.2905
6.7200 4.4493 0.2873
6.7400 4.4627 0.3002
6.7600 4.4760 0.2856
6.7800 4.4894 0.2843
6.8000 4.5027 0.2995
6.8200 4.5161 0.2833
6.8400 4.5294 0.2762
6.8600 4.5427 0.2947
6.8800 4.5560 0.2840
6.9000 4.5693 0.2781
6.9200 4.5827 0.2973
6.9400 4.5960 0.2788
6.9600 4.6094 0.2770
6.9800 4.6228 0.2919
7.0000 4.6361 0.2793
7.0200 4.6494 0.2745
7.0400 4.6627 0.2900
7.0600 4.6760 0.2785
7.0800 4.6893 0.2768
7.1000 4.7027 0.2922
7.1200 4.7160 0.2728
7.1400 4.7294 0.2772
7.1600 4.7427 0.2818
7.1800 4.7561 0.2698
7.2000 4.7695 0.2780
7.2200 4.7828 0.2808
7.2400 4.7961 0.2687
7.2600 4.8095 0.2771
7.2800 4.8228 0.2755
7.3000 4.8361 0.2689
7.3200 4.8493 0.2822
7.3400 4.8626 0.2741
7.3600 4.8760 0.2651
7.3800 4.8893 0.2756
7.4000 4.9027 0.2670
7.4200 4.9160 0.2679
7.4400 4.9294 0.2723
7.4600 4.9428 0.2639
7.4800 4.9561 0.2704
7.5000 4.9694 0.2716
7.5200 4.9828 0.2643
7.5400 4.9961 0.2724
7.5600 5.0095 0.2601
7.5800 5.0228 0.2582
7.6000 5.0361 0.2765
7.6200 5.0494 0.2615
7.6400 5.0628 0.2566
7.6600 5.0761 0.2765
7.6800 5.0894 0.2548
7.7000 5.1027 0.2603
7.7200 5.1160 0.2702
7.7400 5.1294 0.2462
7.7600 5.1427 0.2634
7.7800 5.1560 0.2648
7.8000 5.1693 0.2460
7.8200 5.1827 0.2651
7.8400 5.1960 0.2637
7.8600 5.2094 0.2449
7.8800 5.2227 0.2634
7.9000 5.2361 0.2582
7.9200 5.2495 0.2453
7.9400 5.2628 0.2642
7.9600 5.2761 0.2558
7.9800 5.2894 0.2482
8.0000 5.3028 0.2620
8.0200 5.3161 0.2494
8.0400 5.3294 0.2505
8.0600 5.3427 0.2586
8.0800 5.3561 0.2468
8.1000 5.3694 0.2516
8.1200 5.3827 0.2590
8.1400 5.3960 0.2483
8.1600 5.4093 0.2558
8.1800 5.4227 0.2512
8.2000 5.4360 0.2512
8.2200 5.4494 0.2539
8.2400 5.4627 0.2502
8.2600 5.4761 0.2512
8.2800 5.4895 0.2575
8.3000 5.5028 0.2447
8.3200 5.5161 0.2525
8.3400 5.5294 0.2578
8.3600 5.5428 0.2462
8.3800 5.5561 0.2491
8.4000 5.5694 0.2552
8.4200 5.5827 0.2475
8.4400 5.5960 0.2497
8.4600 5.6094 0.2550
8.4800 5.6227 0.2437
8.5000 5.6360 0.2516
8.5200 5.6493 0.2499
8.5400 5.6627 0.2396
8.5600 5.6761 0.2454
8.5800 5.6894 0.2471
8.6000 5.7027 0.2443
8.6200 5.7161 0.2456
8.6400 5.7294 0.2407
8.6600 5.7427 0.2380
8.6800 5.7561 0.2446
8.7000 5.7694 0.2421
8.7200 5.7828 0.2300
8.7400 5.7961 0.2422
8.7600 5.8094 0.2357
8.7800 5.8227 0.2360
8.8000 5.8360 0.2381
8.8200 5.8494 0.2324
8.8400 5.8627 0.2350
8.8600 5.8760 0.2359
8.8800 5.8893 0.2336
8.9000 5.9027 0.2321
8.9200 5.9160 0.2380
8.9400 5.9294 0.2343
8.9600 5.9427 0.2292
8.9800 5.9561 0.2360
9.0000 5.9695 0.2257
9.0200 5.9828 0.2287
9.0400 5.9961 0.2320
9.0600 6.0094 0.2322
9.0800 6.0228 0.2212
9.1000 6.0361 0.2243
9.1200 6.0494 0.2353
9.1400 6.0627 0.2198
9.1600 6.0760 0.2253
9.1800 6.0894 0.2339
9.2000 6.1027 0.2177
9.2200 6.1160 0.2251
9.2400 6.1293 0.2313
9.2600 6.1427 0.2169
9.2800 6.1560 0.2265
9.3000 6.1694 0.2280
9.3200 6.1827 0.2143
9.3400 6.1961 0.2273
9.3600 6.2095 0.2289
9.3800 6.2228 0.2099
9.4000 6.2361 0.2239
9.4200 6.2494 0.2263
9.4400 6.2628 0.2127
9.4600 6.2761 0.2233
9.4800 6.2894 0.2227
9.5000 6.3027 0.2112
9.5200 6.3160 0.2238
9.5400 6.3294 0.2232
9.5600 6.3427 0.2152
9.5800 6.3560 0.2214
9.6000 6.3694 0.2225
9.6200 6.3827 0.2096
9.6400 6.3961 0.2166
9.6600 6.4094 0.2214
9.6800 6.4227 0.2161
9.7000 6.4361 0.2158
9.7200 6.4494 0.2196
9.7400 6.4627 0.2141
9.7600 6.4760 0.2165
9.7800 6.4894 0.2183
9.8000 6.5027 0.2117
9.8200 6.5161 0.2132
9.8400 6.5294 0.2193
9.8600 6.5427 0.2137
9.8800 6.5561 0.2153
9.9000 6.5695 0.2203
9.9200 6.5828 0.2089
9.9400 6.5960 0.2091
9.9600 6.6094 0.2183
9.9800 6.6227 0.2059
10.0000 6.6360 0.2099
10.0200 6.6493 0.2146
10.0400 6.6627 0.2007
10.0600 6.6761 0.2115
10.0800 6.6894 0.2110
10.1000 6.7028 0.1976
10.1200 6.7161 0.2102
10.1400 6.7294 0.2092
10.1600 6.7428 0.2007
10.1800 6.7561 0.2068
10.2000 6.7694 0.2061
10.2200 6.7827 0.2045
10.2400 6.7961 0.2035
10.2600 6.8094 0.2070
10.2800 6.8227 0.1976
10.3000 6.8360 0.2031
10.3200 6.8493 0.2037
10.3400 6.8627 0.1969
10.3600 6.8760 0.2025
10.3800 6.8894 0.2010
10.4000 6.9027 0.1977
10.4200 6.9161 0.1999
10.4400 6.9295 0.1987
10.4600 6.9428 0.1976
10.4800 6.9561 0.1936
10.5000 6.9694 0.1998
10.5200 6.9828 0.1951
10.5400 6.9961 0.1940
10.5600 7.0094 0.2013
10.5800 7.0227 0.1962
10.6000 7.0360 0.1929
10.6200 7.0494 0.2047
10.6400 7.0627 0.1935
10.6600 7.0760 0.1888
10.6800 7.0893 0.2037
10.7000 7.1027 0.1872
10.7200 7.1161 0.1927
10.7400 7.1294 0.2017
10.7600 7.1427 0.1884
10.7800 7.1560 0.1890
10.8000 7.1694 0.2006
10.8200 7.1828 0.1841
10.8400 7.1961 0.1895
10.8600 7.2094 0.1989
10.8800 7.2228 0.1835
10.9000 7.2361 0.1940
10.9200 7.2494 0.1948
10.9400 7.2627 0.1833
10.9600 7.2761 0.1945
10.9800 7.2894 0.1914
11.0000 7.3027 0.1829
11.0200 7.3160 0.1922
11.0400 7.3293 0.1914
11.0600 7.3427 0.1816
11.0800 7.3560 0.1910
11.1000 7.3694 0.1878
11.1200 7.3827 0.1816
11.1400 7.3961 0.1885
11.1600 7.4095 0.1868
11.1800 7.4228 0.1797
11.2000 7.4361 0.1850
11.2200 7.4494 0.1818
11.2400 7.4628 0.1836
11.2600 7.4761 0.1849
11.2800 7.4894 0.1775
11.3000 7.5027 0.1812
11.3200 7.5161 0.1893
11.3400 7.5294 0.1776
11.3600 7.5427 0.1783
11.3800 7.5561 0.1812
11.4000 7.5694 0.1779
11.4200 7.5827 0.1796
11.4400 7.5960 0.1814
11.4600 7.6094 0.1754
11.4800 7.6227 0.1766
11.5000 7.6361 0.1792
11.5200 7.6494 0.1751
11.5400 7.6628 0.1760
11.5600 7.6761 0.1723
11.5800 7.6894 0.1757
11.6000 7.7028 0.1749
11.6200 7.7161 0.1707
11.6400 7.7294 0.1772
11.6600 7.7427 0.1740
11.6800 7.7560 0.1706
11.7000 7.7694 0.1752
11.7200 7.7827 0.1711
11.7400 7.7960 0.1720
11.7600 7.8093 0.1753
11.7800 7.8227 0.1693
11.8000 7.8360 0.1680
11.8200 7.8494 0.1759
11.8400 7.8627 0.1679
11.8600 7.8760 0.1721
11.8800 7.8894 0.1714
11.9000 7.9027 0.1645
11.9200 7.9161 0.1704
11.9400 7.9294 0.1659
11.9600 7.9427 0.1660
11.9800 7.9561 0.1671
12.0000 7.9694 0.1604
12.0200 7.9828 0.1646
12.0400 7.9961 0.1698
12.0600 8.0094 0.1603
12.0800 8.0227 0.1645
12.1000 8.0360 0.1668
12.1200 8.0493 0.1567
12.1400 8.0626 0.1660
12.1600 8.0759 0.1640
12.1800 8.0893 0.1592
12.2000 8.1026 0.1654
12.2200 8.1160 0.1594
12.2400 8.1294 0.1558
12.2600 8.1428 0.1653
12.2800 8.1562 0.1619
12.3000 8.1695 0.1564
12.3200 8.1828 0.1639
12.3400 8.1962 0.1553
12.3600 8.2094 0.1527
12.3800 8.2227 0.1698
12.4000 8.2360 0.1518
12.4200 8.2494 0.1568
12.4400 8.2627 0.1615
12.4600 8.2760 0.1475
12.4800 8.2893 0.1610
12.5000 8.3026 0.1586
12.5200 8.3160 0.1507
12.5400 8.3294 0.1579
12.5600 8.3427 0.1548
12.5800 8.3561 0.1486
12.6000 8.3694 0.1579
12.6200 8.3828 0.1491
12.6400 8.3961 0.1468
12.6600 8.4095 0.1618
12.6800 8.4228 0.1445
12.7000 8.4361 0.1494
12.7200 8.4494 0.1634
12.7400 8.4627 0.1408
12.7600 8.4760 0.1501
12.7800 8.4894 0.1580
12.8000 8.5027 0.1419
12.8200 8.5160 0.1509
12.8400 8.5293 0.1552
12.8600 8.5426 0.1401
12.8800 8.5560 0.1523
12.9000 8.5694 0.1439
12.9200 8.5827 0.1422
12.9400 8.5961 0.1568
12.9600 8.6094 0.1418
12.9800 8.6228 0.1397
13.0000 8.6361 0.1529
13.0200 8.6494 0.1405
13.0400 8.6628 0.1400
13.0600 8.6761 0.1452
13.0800 8.6894 0.1381
13.1000 8.7028 0.1434
13.1200 8.7161 0.1450
13.1400 8.7294 0.1412
13.1600 8.7427 0.1390
13.1800 8.7560 0.1461
13.2000 8.7693 0.1377
13.2200 8.7826 0.1412
13.2400 8.7960 0.1427
13.2600 8.8094 0.1378
13.2800 8.8227 0.1451
13.3000 8.8361 0.1393
13.3200 8.8495 0.1377
13.3400 8.8628 0.1391
13.3600 8.8761 0.1382
13.3800 8.8894 0.1367
13.4000 8.9028 0.1390
13.4200 8.9161 0.1366
13.4400 8.9294 0.1356
13.4600 8.9427 0.1372
13.4800 8.9560 0.1376
13.5000 8.9694 0.1359
13.5200 8.9827 0.1340
13.5400 8.9960 0.1375
13.5600 9.0094 0.1383
13.5800 9.0227 0.1342
13.6000 9.0360 0.1345
13.6200 9.0493 0.1345
13.6400 9.0627 0.1337
13.6600 9.0760 0.1360
13.6800 9.0894 0.1325
13.7000 9.1028 0.1301
13.7200 9.1161 0.1345
13.7400 9.1294 0.1284
13.7600 9.1428 0.1294
13.7800 9.1561 0.1335
13.8000 9.1695 0.1293
13.8200 9.1828 0.1312
13.8400 9.1961 0.1336
13.8600 9.2094 0.1274
13.8800 9.2227 0.1322
13.9000 9.2360 0.1315
13.9200 9.2493 0.1245
13.9400 9.2627 0.1347
13.9600 9.2760 0.1320
13.9800 9.2894 0.1184
14.0000 9.3027 0.1334
14.0200 9.3160 0.1291
14.0400 9.3294 0.1181
14.0600 9.3428 0.1294
14.0800 9.3561 0.1321
14.1000 9.3694 0.1176
14.1200 9.3827 0.1287
14.1400 9.3961 0.1239
14.1600 9.4094 0.1191
14.1800 9.4227 0.1306
14.2000 9.4361 0.1222
14.2200 9.4494 0.1201
14.2400 9.4627 0.1241
14.2600 9.4760 0.1178
14.2800 9.4893 0.1215
14.3000 9.5026 0.1226
14.3200 9.5160 0.1216
14.3400 9.5293 0.1209
14.3600 9.5426 0.1222
14.3800 9.5560 0.1188
14.4000 9.5694 0.1180
14.4200 9.5828 0.1171
14.4400 9.5962 0.1156
14.4600 9.6095 0.1170
14.4800 9.6228 0.1195
14.5000 9.6361 0.1130
14.5200 9.6494 0.1160
14.5400 9.6627 0.1192
14.5600 9.6760 0.1157
14.5800 9.6893 0.1140
14.6000 9.7026 0.1140
14.6200 9.7160 0.1145
14.6400 9.7293 0.1112
14.6600 9.7427 0.1130
14.6800 9.7561 0.1152
14.7000 9.7694 0.1091
14.7200 9.7828 0.1107
14.7400 9.7961 0.1139
14.7600 9.8094 0.1105
14.7800 9.8228 0.1154
14.8000 9.8361 0.1073
14.8200 9.8494 0.1071
14.8400 9.8628 0.1117
14.8600 9.8761 0.1100
14.8800 9.8894 0.1021
14.9000 9.9027 0.1142
14.9200 9.9160 0.1084
14.9400 9.9293 0.1016
14.9600 9.9427 0.1180
14.9800 9.9560 0.1041
15.0000 9.9694 0.0987
15.0200 9.9827 0.1158
15.0400 9.9960 0.1061
15.0600 10.0094 0.1017
15.0800 10.0227 0.1109
15.1000 10.0361 0.1002
15.1200 10.0494 0.1042
15.1400 10.0628 0.1096
15.1600 10.0761 0.1017
15.1800 10.0894 0.1074
15.2000 10.1028 0.1055
15.2200 10.1161 0.1050
15.2400 10.1295 0.1046
15.2600 10.1428 0.1031
15.2800 10.1561 0.1049
15.3000 10.1694 0.1059
15.3200 10.1828 0.1016
15.3400 10.1961 0.1029
15.3600 10.2093 0.1044
15.3800 10.2226 0.1010
15.4000 10.2360 0.1054
15.4200 10.2494 0.0979
15.4400 10.2627 0.1007
15.4600 10.2760 0.1030
15.4800 10.2894 0.0960
15.5000 10.3028 0.0987
15.5200 10.3161 0.1040
15.5400 10.3295 0.0955
15.5600 10.3428 0.0998
15.5800 10.3561 0.1028
15.6000 10.3695 0.0966
15.6200 10.3827 0.0968
15.6400 10.3960 0.1032
15.6600 10.4094 0.0983
15.6800 10.4227 0.0929
15.7000 10.4360 0.0982
15.7200 10.4494 0.0972
15.7400 10.4627 0.0955
15.7600 10.4760 0.1020
15.7800 10.4894 0.0934
15.8000 10.5027 0.0924
15.8200 10.5160 0.0960
15.8400 10.5294 0.0947
15.8600 10.5427 0.0904
15.8800 10.5561 0.0982
15.9000 10.5694 0.0897
15.9200 10.5827 0.0891
15.9400 10.5961 0.0947
15.9600 10.6095 0.0882
15.9800 10.6228 0.0922
16.0000 10.6361 0.0933
16.0200 10.6494 0.0832
16.0400 10.6627 0.0957
16.0600 10.6760 0.0873
16.0800 10.6893 0.0838
16.1000 10.7027 0.0921
16.1200 10.7160 0.0884
16.1400 10.7294 0.0808
16.1600 10.7427 0.0899
16.1800 10.7560 0.0827
16.2000 10.7694 0.0839
16.2200 10.7828 0.0931
16.2400 10.7961 0.0736
16.2600 10.8094 0.0840
16.2800 10.8227 0.0909
16.3000 10.8361 0.0807
16.3200 10.8495 0.0829
16.3400 10.8628 0.0853
16.3600 10.8761 0.0741
16.3800 10.8894 0.0883
16.4000 10.9027 0.0863
16.4200 10.9161 0.0760
16.4400 10.9294 0.0875
16.4600 10.9427 0.0806
16.4800 10.9560 0.0747
16.5000 10.9693 0.0886
16.5200 10.9827 0.0751
16.5400 10.9960 0.0749
16.5600 11.0094 0.0884
16.5800 11.0228 0.0724
16.6000 11.0361 0.0772
16.6200 11.0494 0.0858
16.6400 11.0628 0.0766
16.6600 11.0761 0.0765
16.6800 11.0895 0.0810
16.7000 11.1027 0.0763
16.7200 11.1160 0.0756
16.7400 11.1293 0.0793
16.7600 11.1427 0.0745
16.7800 11.1560 0.0761
16.8000 11.1694 0.0777
16.8200 11.1827 0.0717
16.8400 11.1961 0.0768
16.8600 11.2094 0.0709
16.8800 11.2228 0.0695
16.9000 11.2361 0.0741
16.9200 11.2494 0.0729
16.9400 11.2627 0.0704
16.9600 11.2761 0.0732
16.9800 11.2894 0.0720
17.0000 11.3027 0.0708
17.0200 11.3160 0.0722
17.0400 11.3294 0.0678
17.0600 11.3428 0.0696
17.0800 11.3561 0.0661
17.1000 11.3694 0.0666
17.1200 11.3828 0.0709
17.1400 11.3961 0.0644
17.1600 11.4094 0.0690
17.1800 11.4227 0.0724
17.2000 11.4360 0.0630
17.2200 11.4494 0.0641
17.2400 11.4627 0.0693
17.2600 11.4760 0.0574
17.2800 11.4894 0.0672
17.3000 11.5027 0.0719
17.3200 11.5161 0.0531
17.3400 11.5294 0.0674
17.3600 11.5427 0.0697
17.3800 11.5561 0.0524
17.4000 11.5694 0.0677
17.4200 11.5828 0.0654
17.4400 11.5961 0.0532
17.4600 11.6094 0.0707
17.4800 11.6228 0.0637
17.5000 11.6361 0.0526
17.5200 11.6494 0.0703
17.5400 11.6627 0.0604
17.5600 11.6760 0.0528
17.5800 11.6893 0.0698
17.6000 11.7027 0.0563
17.6200 11.7160 0.0553
17.6400 11.7294 0.0654
17.6600 11.7428 0.0577
17.6800 11.7561 0.0547
17.7000 11.7694 0.0619
17.7200 11.7828 0.0592
17.7400 11.7961 0.0549
17.7600 11.8095 0.0584
17.7800 11.8228 0.0575
17.8000 11.8361 0.0564
17.8200 11.8494 0.0606
17.8400 11.8627 0.0525
17.8600 11.8760 0.0546
17.8800 11.8893 0.0612
17.9000 11.9027 0.0543
17.9200 11.9160 0.0544
17.9400 11.9294 0.0616
17.9600 11.9427 0.0518
17.9800 11.9561 0.0502
18.0000 11.9694 0.0591
18.0200 11.9827 0.0557
18.0400 11.9961 0.0476
18.0600 12.0094 0.0591
18.0800 12.0227 0.0479
18.1000 12.0361 0.0497
18.1200 12.0495 0.0579
18.1400 12.0628 0.0506
18.1600 12.0761 0.0487
18.1800 12.0894 0.0544
18.2000 12.1027 0.0485
18.2200 12.1161 0.0442
18.2400 12.1294 0.0536
18.2600 12.1427 0.0480
18.2800 12.1560 0.0411
18.3000 12.1693 0.0540
18.3200 12.1827 0.0420
18.3400 12.1960 0.0420
18.3600 12.2094 0.0564
18.3800 12.2228 0.0419
18.4000 12.2361 0.0389
18.4200 12.2494 0.0481
18.4400 12.2627 0.0399
18.4600 12.2761 0.0405
18.4800 12.2894 0.0493
18.5000 12.3028 0.0379
18.5200 12.3160 0.0430
18.5400 12.3294 0.0439
18.5600 12.3427 0.0380
18.5800 12.3561 0.0442
18.6000 12.3694 0.0497
18.6200 12.3827 0.0358
18.6400 12.3960 0.0423
18.6600 12.4094 0.0469
18.6800 12.4227 0.0367
18.7000 12.4360 0.0398
18.7200 12.4494 0.0453
18.7400 12.4628 0.0362
18.7600 12.4761 0.0361
18.7800 12.4894 0.0426
18.8000 12.5027 0.0388
18.8200 12.5161 0.0347
18.8400 12.5294 0.0400
18.8600 12.5428 0.0351
18.8800 12.5561 0.0345
18.9000 12.5694 0.0415
18.9200 12.5827 0.0416
18.9400 12.5960 0.0312
18.9600 12.6094 0.0386
18.9800 12.6227 0.0414
19.0000 12.6360 0.0288
19.0200 12.6494 0.0392
19.0400 12.6627 0.0318
19.0600 12.6760 0.0313
19.0800 12.6894 0.0401
19.1000 12.7027 0.0309
19.1200 12.7161 0.0286
19.1400 12.7294 0.0386
19.1600 12.7427 0.0249
19.1800 12.7561 0.0259
19.2000 12.7694 0.0394
19.2200 12.7828 0.0245
19.2400 12.7961 0.0304
19.2600 12.8094 0.0396
19.2800 12.8228 0.0203
19.3000 12.8361 0.0352
19.3200 12.8494 0.0331
19.3400 12.8627 0.0210
19.3600 12.8760 0.0353
19.3800 12.8893 0.0307
19.4000 12.9026 0.0225
19.4200 12.9160 0.0315
19.4400 12.9293 0.0304
19.4600 12.9427 0.0226
19.4800 12.9561 0.0268
19.5000 12.9695 0.0304
19.5200 12.9828 0.0274
19.5400 12.9961 0.0302
19.5600 13.0095 0.0244
19.5800 13.0228 0.0253
19.6000 13.0361 0.0256
19.6200 13.0494 0.0226
19.6400 13.0627 0.0259
19.6600 13.0760 0.0187
19.6800 13.0894 0.0275
19.7000 13.1027 0.0246
19.7200 13.1160 0.0154
19.7400 13.1293 0.0239
19.7600 13.1427 0.0254
19.7800 13.1560 0.0164
19.8000 13.1693 0.0235
19.8200 13.1827 0.0236
19.8400 13.1961 0.0148
19.8600 13.2095 0.0192
19.8800 13.2228 0.0253
19.9000 13.2361 0.0110
19.9200 13.2494 0.0177
19.9400 13.2628 0.0225
19.9600 13.2761 0.0118
19.9800 13.2894 0.0220
20.0000 13.3027 0.0225
20.0200 13.3161 0.0083
20.0400 13.3294 0.0201
20.0600 13.3427 0.0140
20.0800 13.3560 0.0129
20.1000 13.3694 0.0140
20.1200 13.3827 0.0144
20.1400 13.3961 0.0097
20.1600 13.4094 0.0150
20.1800 13.4227 0.0113
20.2000 13.4361 0.0107
20.2200 13.4494 0.0185
20.2400 13.4627 0.0077
20.2600 13.4761 0.0134
20.2800 13.4894 0.0154
20.3000 13.5028 0.0107
20.3200 13.5161 0.0121
20.3400 13.5294 0.0109
20.3600 13.5427 0.0135
20.3800 13.5561 0.0028
20.4000 13.5694 0.0101
20.4200 13.5827 0.0104
20.4400 13.5960 0.0101
20.4600 13.6093 0.0101
20.4800 13.6227 0.0070
20.5000 13.6360 0.0117
20.5200 13.6494 0.0129
20.5400 13.6627 0.0109
20.5600 13.6761 0.0031
20.5800 13.6895 0.0081
20.6000 13.7028 0.0067
20.6200 13.7161 0.0068
20.6400 13.7294 0.0089
20.6600 13.7428 0.0029
20.6800 13.7561 0.0060
20.7000 13.7694 0.0070
20.7200 13.7827 0.0023
20.7400 13.7961 0.0076
20.7600 13.8094 0.0058
20.7800 13.8227 -0.0021
20.8000 13.8360 0.0089
20.8200 13.8494 0.0073
20.8400 13.8627 -0.0064
20.8600 13.8760 0.0096
20.8800 13.8894 0.0011
20.9000 13.9027 -0.0024
20.9200 13.9161 0.0139
20.9400 13.9295 -0.0053
20.9600 13.9428 -0.0059
20.9800 13.9561 0.0107
21.0000 13.9695 -0.0054
21.0200 13.9828 -0.0026
21.0400 13.9961 0.0059
21.0600 14.0094 -0.0055
21.0800 14.0227 -0.0005
21.1000 14.0361 0.0034
21.1200 14.0494 -0.0122
21.1400 14.0627 0.0041
21.1600 14.0760 0.0038
21.1800 14.0893 -0.0124
21.2000 14.1027 0.0030
21.2200 14.1160 0.0002
21.2400 14.1294 -0.0120
21.2600 14.1427 0.0025
21.2800 14.1561 -0.0014
21.3000 14.1694 -0.0151
21.3200 14.1828 0.0013
21.3400 14.1961 -0.0010
21.3600 14.2094 -0.0124
21.3800 14.2228 -0.0011
21.4000 14.2361 -0.0012
21.4200 14.2494 -0.0119
21.4400 14.2627 0.0000
21.4600 14.2761 -0.0046
21.4800 14.2894 -0.0109
21.5000 14.3027 -0.0038
21.5200 14.3160 -0.0063
21.5400 14.3293 -0.0098
21.5600 14.3427 -0.0043
21.5800 14.3560 -0.0099
21.6000 14.3693 -0.0109
21.6200 14.3827 -0.0055
21.6400 14.3961 -0.0101
21.6600 14.4095 -0.0155
21.6800 14.4228 -0.0043
21.7000 14.4361 -0.0091
21.7200 14.4495 -0.0185
21.7400 14.4628 -0.0045
21.7600 14.4761 -0.0129
21.7800 14.4893 -0.0149
21.8000 14.5026 -0.0093
21.8200 14.5160 -0.0176
21.8400 14.5293 -0.0126
21.8600 14.5426 -0.0129
21.8800 14.5560 -0.0155
21.9000 14.5693 -0.0169
21.9200 14.5827 -0.0170
21.9400 14.5961 -0.0139
21.9600 14.6094 -0.0162
21.9800 14.6227 -0.0157
22.0000 14.6361 -0.0162
22.0200 14.6495 -0.0182
22.0400 14.6628 -0.0209
22.0600 14.6761 -0.0112
22.0800 14.6894 -0.0173
22.1000 14.7028 -0.0188
22.1200 14.7161 -0.0209
22.1400 14.7294 -0.0192
22.1600 14.7427 -0.0158
22.1800 14.7561 -0.0185
22.2000 14.7694 -0.0221
22.2200 14.7827 -0.0203
22.2400 14.7960 -0.0223
22.2600 14.8093 -0.0195
22.2800 14.8227 -0.0199
22.3000 14.8361 -0.0223
22.3200 14.8494 -0.0191
22.3400 14.8627 -0.0249
22.3600 14.8761 -0.0226
22.3800 14.8895 -0.0161
22.4000 14.9028 -0.0289
22.4200 14.9161 -0.0227
22.4400 14.9294 -0.0211
22.4600 14.9428 -0.0291
22.4800 14.9561 -0.0225
22.5000 14.9694 -0.0216
22.5200 14.9827 -0.0324
22.5400 14.9961 -0.0227
22.5600 15.0094 -0.0221
22.5800 15.0227 -0.0361
22.6000 15.0360 -0.0183
22.6200 15.0493 -0.0237
22.6400 15.0627 -0.0375
22.6600 15.0760 -0.0228
22.6800 15.0894 -0.0270
22.7000 15.1027 -0.0332
22.7200 15.1161 -0.0253
22.7400 15.1294 -0.0299
22.7600 15.1428 -0.0358
22.7800 15.1561 -0.0185
22.8000 15.1694 -0.0328
22.8200 15.1828 -0.0382
22.8400 15.1961 -0.0172
22.8600 15.2094 -0.0393
22.8800 15.2227 -0.0405
22.9000 15.2361 -0.0220
22.9200 15.2494 -0.0351
22.9400 15.2627 -0.0436
22.9600 15.2760 -0.0224
22.9800 15.2893 -0.0379
23.0000 15.3027 -0.0368
23.0200 15.3160 -0.0249
23.0400 15.3294 -0.0424
23.0600 15.3427 -0.0388
23.0800 15.3561 -0.0256
23.1000 15.3694 -0.0441
23.1200 15.3827 -0.0395
23.1400 15.3961 -0.0282
23.1600 15.4094 -0.0449
23.1800 15.4228 -0.0403
23.2000 15.4361 -0.0375
23.2200 15.4494 -0.0410
23.2400 15.4627 -0.0400
23.2600 15.4760 -0.0414
23.2800 15.4894 -0.0388
23.3000 15.5027 -0.0408
23.3200 15.5160 -0.0398
23.3400 15.5293 -0.0401
23.3600 15.5427 -0.0412
23.3800 15.5560 -0.0423
23.4000 15.5694 -0.0395
23.4200 15.5827 -0.0433
23.4400 15.5961 -0.0469
23.4600 15.6095 -0.0406
23.4800 15.6228 -0.0440
23.5000 15.6361 -0.0470
23.5200 15.6494 -0.0417
23.5400 15.6628 -0.0455
23.5600 15.6761 -0.0542
23.5800 15.6894 -0.0415
23.6000 15.7027 -0.0430
23.6200 15.7160 -0.0558
23.6400 15.7294 -0.0444
23.6600 15.7427 -0.0464
23.6800 15.7560 -0.0555
23.7000 15.7693 -0.0454
23.7200 15.7827 -0.0447
23.7400 15.7960 -0.0559
23.7600 15.8093 -0.0455
23.7800 15.8227 -0.0465
23.8000 15.8361 -0.0598
23.8200 15.8495 -0.0481
23.8400 15.8628 -0.0504
23.8600 15.8761 -0.0586
23.8800 15.8894 -0.0493
23.9000 15.9028 -0.0527
23.9200 15.9161 -0.0597
23.9400 15.9294 -0.0484
23.9600 15.9427 -0.0550
23.9800 15.9560 -0.0599
24.0000 15.9694 -0.0518
24.0200 15.9827 -0.0588
24.0400 15.9960 -0.0596
24.0600 16.0094 -0.0482
24.0800 16.0227 -0.0631
24.1000 16.0361 -0.0547
24.1200 16.0494 -0.0497
24.1400 16.0627 -0.0594
24.1600 16.0761 -0.0615
24.1800 16.0894 -0.0554
24.2000 16.1027 -0.0594
24.2200 16.1160 -0.0599
24.2400 16.1293 -0.0523
24.2600 16.1427 -0.0645
24.2800 16.1561 -0.0568
24.3000 16.1694 -0.0558
24.3200 16.1828 -0.0644
24.3400 16.1961 -0.0595
24.3600 16.2095 -0.0574
24.3800 16.2228 -0.0664
24.4000 16.2361 -0.0585
24.4200 16.2494 -0.0584
24.4400 16.2627 -0.0674
24.4600 16.2760 -0.0617
24.4800 16.2894 -0.0576
24.5000 16.3027 -0.0672
24.5200 16.3160 -0.0649
24.5400 16.3294 -0.0609
24.5600 16.3428 -0.0690
24.5800 16.3561 -0.0662
24.6000 16.3694 -0.0598
24.6200 16.3828 -0.0692
24.6400 16.3961 -0.0672
24.6600 16.4094 -0.0607
24.6800 16.4227 -0.0710
24.7000 16.4361 -0.0674
24.7200 16.4494 -0.0679
24.7400 16.4627 -0.0728
24.7600 16.4760 -0.0655
24.7800 16.4893 -0.0680
24.8000 16.5027 -0.0698
24.8200 16.5160 -0.0721
24.8400 16.5294 -0.0756
24.8600 16.5427 -0.0704
24.8800 16.5561 -0.0695
24.9000 16.5694 -0.0769
24.9200 16.5828 -0.0718
24.9400 16.5961 -0.0713
24.9600 16.6095 -0.0726
24.9800 16.6228 -0.0695
25.0000 16.6361 -0.0766
25.0200 16.6494 -0.0766
25.0400 16.6627 -0.0685
25.0600 16.6760 -0.0805
25.0800 16.6894 -0.0777
25.1000 16.7027 -0.0724
25.1200 16.7160 -0.0817
25.1400 16.7293 -0.0723
25.1600 16.7427 -0.0777
25.1800 16.7560 -0.0847
25.2000 16.7694 -0.0794
25.2200 16.7827 -0.0761
25.2400 16.7960 -0.0862
25.2600 16.8094 -0.0769
25.2800 16.8228 -0.0786
25.3000 16.8361 -0.0820
25.3200 16.8494 -0.0775
25.3400 16.8628 -0.0804
25.3600 16.8761 -0.0818
25.3800 16.8894 -0.0799
25.4000 16.9027 -0.0826
25.4200 16.9161 -0.0818
25.4400 16.9294 -0.0800
25.4600 16.9427 -0.0848
25.4800 16.9560 -0.0848
25.5000 16.9693 -0.0778
25.5200 16.9826 -0.0786
25.5400 16.9960 -0.0904
25.5600 17.0093 -0.0845
25.5800 17.0227 -0.0807
25.6000 17.0360 -0.0874
25.6200 17.0494 -0.0826
25.6400 17.0628 -0.0828
25.6600 17.0761 -0.0901
25.6800 17.0894 -0.0846
25.7000 17.1027 -0.0827
25.7200 17.1161 -0.0922
25.7400 17.1294 -0.0848
25.7600 17.1427 -0.0791
25.7800 17.1560 -0.0949
25.8000 17.1694 -0.0878
25.8200 17.1827 -0.0877
25.8400 17.1961 -0.0924
25.8600 17.2094 -0.0883
25.8800 17.2227 -0.0907
25.9000 17.2360 -0.0965
25.9200 17.2493 -0.0901
25.9400 17.2627 -0.0901
25.9600 17.2761 -0.0953
25.9800 17.2895 -0.0931
26.0000 17.3028 -0.0934
26.0200 17.3161 -0.0969
26.0400 17.3294 -0.0926
26.0600 17.3428 -0.0961
26.0800 17.3561 -0.0971
26.1000 17.3694 -0.1000
26.1200 17.3827 -0.0988
26.1400 17.3960 -0.0993
26.1600 17.4094 -0.0986
26.1800 17.4227 -0.0999
26.2000 17.4360 -0.1001
26.2200 17.4493 -0.1005
26.2400 17.4627 -0.1018
26.2600 17.4761 -0.1019
26.2800 17.4894 -0.1032
26.3000 17.5027 -0.1035
26.3200 17.5161 -0.0981
26.3400 17.5294 -0.1066
26.3600 17.5428 -0.1004
26.3800 17.5561 -0.1045
26.4000 17.5694 -0.1078
26.4200 17.5827 -0.0990
26.4400 17.5961 -0.1111
26.4600 17.6094 -0.1038
26.4800 17.6228 -0.1014
26.5000 17.6361 -0.1049
26.5200 17.6494 -0.1065
26.5400 17.6628 -0.1088
26.5600 17.6760 -0.1058
26.5800 17.6893 -0.1043
26.6000 17.7026 -0.1083
26.6200 17.7160 -0.1064
26.6400 17.7293 -0.1114
26.6600 17.7427 -0.1085
26.6800 17.7560 -0.1070
26.7000 17.7694 -0.1098
26.7200 17.7828 -0.1110
26.7400 17.7961 -0.1052
26.7600 17.8094 -0.1149
26.7800 17.8228 -0.1122
26.8000 17.8362 -0.1050
26.8200 17.8495 -0.1175
26.8400 17.8628 -0.1150
26.8600 17.8760 -0.1124
26.8800 17.8894 -0.1182
26.9000 17.9027 -0.1121
26.9200 17.9160 -0.1128
26.9400 17.9293 -0.1175
26.9600 17.9426 -0.1149
26.9800 17.9560 -0.1151
27.0000 17.9693 -0.1200
27.0200 17.9827 -0.1130
27.0400 17.9960 -0.1171
27.0600 18.0094 -0.1274
27.0800 18.0228 -0.1149
27.1000 18.0361 -0.1182
27.1200 18.0494 -0.1215
27.1400 18.0628 -0.1138
27.1600 18.0761 -0.1198
27.1800 18.0894 -0.1247
27.2000 18.1027 -0.1134
27.2200 18.1160 -0.1226
27.2400 18.1294 -0.1259
27.2600 18.1427 -0.1151
27.2800 18.1560 -0.1267
27.3000 18.1693 -0.1263
27.3200 18.1827 -0.1151
27.3400 18.1960 -0.1299
27.3600 18.2094 -0.1273
27.3800 18.2227 -0.1158
27.4000 18.2361 -0.1259
27.4200 18.2494 -0.1254
27.4400 18.2628 -0.1190
27.4600 18.2761 -0.1263
27.4800 18.2894 -0.1272
27.5000 18.3028 -0.1206
27.5200 18.3161 -0.1270
27.5400 18.3295 -0.1327
27.5600 18.3428 -0.1219
27.5800 18.3561 -0.1347
27.6000 18.3694 -0.1240
27.6200 18.3828 -0.1272
27.6400 18.3961 -0.1323
27.6600 18.4093 -0.1281
27.6800 18.4227 -0.1273
27.7000 18.4360 -0.1285
27.7200 18.4494 -0.1338
27.7400 18.4627 -0.1338
27.7600 18.4760 -0.1306
27.7800 18.4894 -0.1348
27.8000 18.5028 -0.1381
27.8200 18.5161 -0.1311
27.8400 18.5294 -0.1371
27.8600 18.5428 -0.1446
27.8800 18.5561 -0.1329
27.9000 18.5694 -0.1371
27.9200 18.5827 -0.1439
27.9400 18.5960 -0.1310
27.9600 18.6094 -0.1448
27.9800 18.6227 -0.1447
28.0000 18.6360 -0.1339
28.0200 18.6493 -0.1473
28.0400 18.6627 -0.1455
28.0600 18.6760 -0.1375
28.0800 18.6894 -0.1503
28.1000 18.7027 -0.1461
28.1200 18.7160 -0.1406
28.1400 18.7294 -0.1478
28.1600 18.7428 -0.1458
28.1800 18.7561 -0.1419
28.2000 18.7694 -0.1505
28.2200 18.7828 -0.1398
28.2400 18.7961 -0.1450
28.2600 18.8095 -0.1540
28.2800 18.8228 -0.1430
28.3000 18.8361 -0.1504
28.3200 18.8494 -0.1514
28.3400 18.8627 -0.1465
28.3600 18.8761 -0.1515
28.3800 18.8894 -0.1530
28.4000 18.9027 -0.1465
28.4200 18.9160 -0.1517
28.4400 18.9294 -0.1540
28.4600 18.9427 -0.1480
28.4800 18.9560 -0.1546
28.5000 18.9694 -0.1509
28.5200 18.9828 -0.1551
28.5400 18.9961 -0.1593
28.5600 19.0094 -0.1496
28.5800 19.0227 -0.1551
28.6000 19.0361 -0.1575
28.6200 19.0494 -0.1549
28.6400 19.0628 -0.1545
28.6600 19.0761 -0.1593
28.6800 19.0894 -0.1581
28.7000 19.1028 -0.1580
28.7200 19.1161 -0.1620
28.7400 19.1293 -0.1581
28.7600 19.1426 -0.1606
28.7800 19.1560 -0.1600
28.8000 19.1693 -0.1591
28.8200 19.1827 -0.1668
28.8400 19.1960 -0.1606
28.8600 19.2094 -0.1618
28.8800 19.2228 -0.1670
28.9000 19.2362 -0.1591
28.9200 19.2495 -0.1636
28.9400 19.2628 -0.1714
28.9600 19.2761 -0.1595
28.9800 19.2895 -0.1647
29.0000 19.3027 -0.1742
29.0200 19.3160 -0.1602
29.0400 19.3293 -0.1635
29.0600 19.3427 -0.1747
29.0800 19.3560 -0.1649
29.1000 19.3693 -0.1669
29.1200 19.3827 -0.1724
29.1400 19.3960 -0.1671
29.1600 19.4094 -0.1699
29.1800 19.4227 -0.1784
29.2000 19.4361 -0.1663
29.2200 19.4494 -0.1713
29.2400 19.4628 -0.1830
29.2600 19.4761 -0.1668
29.2800 19.4894 -0.1734
29.3000 19.5027 -0.1805
29.3200 19.5161 -0.1662
29.3400 19.5294 -0.1719
29.3600 19.5427 -0.1844
29.3800 19.5560 -0.1680
29.4000 19.5694 -0.1792
29.4200 19.5827 -0.1826
29.4400 19.5960 -0.1753
29.4600 19.6094 -0.1806
29.4800 19.6227 -0.1912
29.5000 19.6360 -0.1758
29.5200 19.6494 -0.1826
29.5400 19.6627 -0.1880
29.5600 19.6760 -0.1726
29.5800 19.6894 -0.1836
29.6000 19.7028 -0.1933
29.6200 19.7161 -0.1781
29.6400 19.7294 -0.1880
29.6600 19.7427 -0.1920
29.6800 19.7561 -0.1821
29.7000 19.7694 -0.1864
29.7200 19.7827 -0.1949
29.7400 19.7960 -0.1829
29.7600 19.8094 -0.1902
29.7800 19.8227 -0.1978
29.8000 19.8361 -0.1854
29.8200 19.8493 -0.1920
29.8400 19.8626 -0.2014
29.8600 19.8760 -0.1886
29.8800 19.8894 -0.1962
29.9000 19.9027 -0.2014
29.9200 19.9160 -0.1943
29.9400 19.9294 -0.1998
29.9600 19.9428 -0.2042
29.9800 19.9561 -0.1987
30.0000 19.9695 -0.2023
30.0200 19.9828 -0.2030
30.0400 19.9961 -0.1966
30.0600 20.0094 -0.2060
30.0800 20.0227 -0.2077
30.1000 20.0360 -0.1968
30.1200 20.0494 -0.2088
30.1400 20.0627 -0.2125
30.1600 20.0761 -0.1984
30.1800 20.0894 -0.2067
30.2000 20.1027 -0.2144
30.2200 20.1160 -0.2015
30.2400 20.1294 -0.2117
30.2600 20.1427 -0.2193
30.2800 20.1560 -0.1971
30.3000 20.1694 -0.2154
30.3200 20.1827 -0.2173
30.3400 20.1961 -0.2030
30.3600 20.2094 -0.2157
30.3800 20.2227 -0.2183
30.4000 20.2361 -0.2069
30.4200 20.2495 -0.2205
30.4400 20.2628 -0.2189
30.4600 20.2761 -0.2086
30.4800 20.2894 -0.2218
30.5000 20.3027 -0.2198
30.5200 20.3160 -0.2133
30.5400 20.3293 -0.2271
30.5600 20.3426 -0.2166
30.5800 20.3560 -0.2152
30.6000 20.3694 -0.2330
30.6200 20.3827 -0.2223
30.6400 20.3960 -0.2140
30.6600 20.4094 -0.2345
30.6800 20.4228 -0.2248
30.7000 20.4362 -0.2230
30.7200 20.4495 -0.2227
30.7400 20.4628 -0.1403
30.7600 20.4761 -0.0730
30.7800 20.4894 -0.0144
30.8000 20.5028 0.0480
30.8200 20.5161 0.0974
30.8400 20.5294 0.1507
30.8600 20.5427 0.2066
30.8800 20.5560 0.2513
30.9000 20.5693 0.3064
30.9200 20.5827 0.3639
30.9400 20.5960 0.4034
30.9600 20.6093 0.4580
30.9800 20.6227 0.5015
31.0000 20.6360 0.5280
31.0200 20.6494 0.5827
31.0400 20.6627 0.6194
31.0600 20.6761 0.6575
31.0800 20.6894 0.7022
31.1000 20.7028 0.7062
31.1200 20.7161 0.7072
31.1400 20.7294 0.7107
31.1600 20.7427 0.6995
31.1800 20.7560 0.7086
31.2000 20.7693 0.7107
31.2200 20.7827 0.6977
31.2400 20.7960 0.7086
31.2600 20.8093 0.7108
31.2800 20.8227 0.7001
31.3000 20.8360 0.7067
31.3200 20.8494 0.7040
31.3400 20.8628 0.6964
31.3600 20.8761 0.7018
31.3800 20.8894 0.7037
31.4000 20.9028 0.6939
31.4200 20.9161 0.6959
31.4400 20.9294 0.6972
31.4600 20.9427 0.6934
31.4800 20.9560 0.6976
31.5000 20.9694 0.6892
31.5200 20.9828 0.6889
31.5400 20.9961 0.6940
31.5600 21.0094 0.6855
31.5800 21.0228 0.6855
31.6000 21.0361 0.6898
31.6200 21.0494 0.6805
31.6400 21.0627 0.6836
31.6600 21.0760 0.6829
31.6800 21.0894 0.6841
31.7000 21.1027 0.6823
31.7200 21.1160 0.6787
31.7400 21.1294 0.6818
31.7600 21.1427 0.6749
31.7800 21.1561 0.6767
31.8000 21.1694 0.6798
31.8200 21.1827 0.6729
31.8400 21.1961 0.6818
31.8600 21.2094 0.6713
31.8800 21.2228 0.6711
31.9000 21.2361 0.6772
31.9200 21.2494 0.6756
31.9400 21.2627 0.6649
31.9600 21.2761 0.6744
31.9800 21.2894 0.6667
32.0000 21.3027 0.6648
32.0200 21.3160 0.6732
32.0400 21.3293 0.6584
32.0600 21.3427 0.6633
32.0800 21.3560 0.6645
32.1000 21.3694 0.6518
32.1200 21.3828 0.6541
32.1400 21.3961 0.6569
32.1600 21.4094 0.6537
32.1800 21.4228 0.6495
32.2000 21.4361 0.6489
32.2200 21.4494 0.6450
32.2400 21.4628 0.6461
32.2600 21.4761 0.6479
32.2800 21.4894 0.6416
32.3000 21.5027 0.6462
32.3200 21.5160 0.6376
32.3400 21.5293 0.6369
32.3600 21.5426 0.6370
32.3800 21.5560 0.6371
32.4000 21.5694 0.6361
32.4200 21.5827 0.6295
32.4400 21.5960 0.6327
32.4600 21.6094 0.6332
32.4800 21.6227 0.6302
32.5000 21.6361 0.6278
32.5200 21.6494 0.6251
32.5400 21.6628 0.6272
32.5600 21.6761 0.6266
32.5800 21.6895 0.6224
32.6000 21.7028 0.6199
32.6200 21.7161 0.6250
32.6400 21.7294 0.6162
32.6600 21.7427 0.6173
32.6800 21.7561 0.6182
32.7000 21.7694 0.6106
32.7200 21.7827 0.6151
32.7400 21.7960 0.6188
32.7600 21.8093 0.6054
32.7800 21.8227 0.6087
32.8000 21.8360 0.6167
32.8200 21.8494 0.5981
32.8400 21.8628 0.6091
32.8600 21.8761 0.6113
32.8800 21.8895 0.5936
32.9000 21.9028 0.6068
32.9200 21.9161 0.6065
32.9400 21.9294 0.5879
32.9600 21.9428 0.6040
32.9800 21.9561 0.5996
33.0000 21.9694 0.5831
33.0200 21.9827 0.6014
33.0400 21.9961 0.5912
33.0600 22.0094 0.5793
33.0800 22.0227 0.5980
33.1000 22.0360 0.5875
33.1200 22.0494 0.5784
33.1400 22.0627 0.5900
33.1600 22.0760 0.5840
33.1800 22.0894 0.5774
33.2000 22.1027 0.5883
33.2200 22.1161 0.5783
33.2400 22.1294 0.5796
33.2600 22.1427 0.5827
33.2800 22.1561 0.5784
33.3000 22.1694 0.5773
33.3200 22.1828 0.5785
33.3400 22.1961 0.5757
33.3600 22.2094 0.5743
33.3800 22.2227 0.5757
33.4000 22.2360 0.5757
33.4200 22.2494 0.5654
33.4400 22.2627 0.5749
33.4600 22.2760 0.5733
33.4800 22.2894 0.5639
33.5000 22.3027 0.5686
33.5200 22.3160 0.5718
33.5400 22.3294 0.5668
33.5600 22.3427 0.5680
33.5800 22.3561 0.5696
33.6000 22.3694 0.5592
33.6200 22.3827 0.5648
33.6400 22.3960 0.5675
33.6600 22.4094 0.5592
33.6800 22.4228 0.5645
33.7000 22.4361 0.5627
33.7200 22.4494 0.5509
33.7400 22.4628 0.5630
33.7600 22.4761 0.5588
33.7800 22.4894 0.5475
33.8000 22.5027 0.5621
33.8200 22.5160 0.5542
33.8400 22.5293 0.5441
33.8600 22.5426 0.5586
33.8800 22.5560 0.5507
33.9000 22.5693 0.5408
33.9200 22.5827 0.5543
33.9400 22.5961 0.5453
33.9600 22.6095 0.5358
33.9800 22.6228 0.5525
34.0000 22.6361 0.5406
34.0200 22.6495 0.5347
34.0400 22.6628 0.5489
34.0600 22.6761 0.5358
34.0800 22.6894 0.5334
34.1000 22.7027 0.5454
34.1200 22.7160 0.5291
34.1400 22.7294 0.5346
34.1600 22.7427 0.5418
34.1800 22.7560 0.5245
34.2000 22.7693 0.5296
34.2200 22.7827 0.5344
34.2400 22.7960 0.5192
34.2600 22.8094 0.5294
34.2800 22.8227 0.5336
34.3000 22.8361 0.5194
34.3200 22.8495 0.5270
34.3400 22.8628 0.5240
34.3600 22.8761 0.5201
34.3800 22.8895 0.5230
34.4000 22.9028 0.5186
34.4200 22.9161 0.5148
34.4400 22.9294 0.5217
34.4600 22.9427 0.5193
34.4800 22.9561 0.5132
34.5000 22.9694 0.5107
34.5200 22.9827 0.5129
34.5400 22.9960 0.5120
34.5600 23.0093 0.5077
34.5800 23.0227 0.5133
34.6000 23.0360 0.5027
34.6200 23.0493 0.5031
34.6400 23.0627 0.5102
34.6600 23.0761 0.4976
34.6800 23.0894 0.5045
34.7000 23.1027 0.5039
34.7200 23.1161 0.4939
34.7400 23.1294 0.4986
34.7600 23.1428 0.5033
34.7800 23.1561 0.4888
34.8000 23.1694 0.5000
34.8200 23.1827 0.4991
34.8400 23.1961 0.4849
34.8600 23.2094 0.4976
34.8800 23.2227 0.4955
34.9000 23.2360 0.4846
34.9200 23.2493 0.4976
34.9400 23.2627 0.4874
34.9600 23.2760 0.4816
34.9800 23.2894 0.4924
35.0000 23.3027 0.4830
35.0200 23.3161 0.4788
35.0400 23.3294 0.4864
35.0600 23.3428 0.4817
35.0800 23.3561 0.4783
35.1000 23.3694 0.4848
35.1200 23.3828 0.4759
35.1400 23.3961 0.4758
35.1600 23.4094 0.4815
35.1800 23.4227 0.4738
35.2000 23.4361 0.4750
35.2200 23.4494 0.4802
35.2400 23.4627 0.4706
35.2600 23.4760 0.4751
35.2800 23.4893 0.4752
35.3000 23.5027 0.4694
35.3200 23.5160 0.4711
35.3400 23.5293 0.4731
35.3600 23.5427 0.4690
35.3800 23.5561 0.4644
35.4000 23.5694 0.4660
35.4200 23.5828 0.4642
35.4400 23.5961 0.4669
35.4600 23.6094 0.4645
35.4800 23.6228 0.4596
35.5000 23.6361 0.4624
35.5200 23.6494 0.4549
35.5400 23.6627 0.4578
35.5600 23.6761 0.4598
35.5800 23.6894 0.4532
35.6000 23.7027 0.4559
35.6200 23.7160 0.4554
35.6400 23.7294 0.4499
35.6600 23.7427 0.4528
35.6800 23.7560 0.4493
35.7000 23.7694 0.4462
35.7200 23.7827 0.4531
35.7400 23.7961 0.4452
35.7600 23.8094 0.4392
35.7800 23.8228 0.4508
35.8000 23.8361 0.4433
35.8200 23.8494 0.4416
35.8400 23.8628 0.4466
35.8600 23.8761 0.4386
35.8800 23.8894 0.4389
35.9000 23.9027 0.4414
35.9200 23.9161 0.4347
35.9400 23.9294 0.4360
35.9600 23.9427 0.4389
35.9800 23.9560 0.4356
36.0000 23.9693 0.4322
36.0200 23.9826 0.4331
36.0400 23.9960 0.4336
36.0600 24.0093 0.4271
36.0800 24.0227 0.4313
36.1000 24.0361 0.4271
36.1200 24.0495 0.4256
36.1400 24.0628 0.4231
36.1600 24.0761 0.4287
36.1800 24.0895 0.4218
36.2000 24.1028 0.4205
36.2200 24.1161 0.4264
36.2400 24.1294 0.4198
36.2600 24.1426 0.4200
36.2800 24.1560 0.4236
36.3000 24.1693 0.4182
36.3200 24.1827 0.4139
36.3400 24.1960 0.4225
36.3600 24.2093 0.4153
36.3800 24.2227 0.4110
36.4000 24.2361 0.4195
36.4200 24.2494 0.4112
36.4400 24.2628 0.4084
36.4600 24.2761 0.4159
36.4800 24.2895 0.4102
36.5000 24.3028 0.4070
36.5200 24.3161 0.4138
36.5400 24.3294 0.4074
36.5600 24.3428 0.4040
36.5800 24.3561 0.4095
36.6000 24.3694 0.4010
36.6200 24.3827 0.4060
36.6400 24.3960 0.4077
36.6600 24.4094 0.3962
36.6800 24.4227 0.4021
36.7000 24.4360 0.4039
36.7200 24.4493 0.3956
36.7400 24.4627 0.4022
36.7600 24.4761 0.3959
36.7800 24.4894 0.3917
36.8000 24.5027 0.4010
36.8200 24.5161 0.3938
36.8400 24.5294 0.3918
36.8600 24.5428 0.3952
36.8800 24.5561 0.3929
36.9000 24.5694 0.3904
36.9200 24.5828 0.3906
36.9400 24.5961 0.3869
36.9600 24.6094 0.3878
36.9800 24.6227 0.3904
37.0000 24.6361 0.3798
37.0200 24.6494 0.3861
37.0400 24.6627 0.3854
37.0600 24.6760 0.3828
37.0800 24.6893 0.3838
37.1000 24.7027 0.3793
37.1200 24.7160 0.3813
37.1400 24.7294 0.3796
37.1600 24.7427 0.3766
37.1800 24.7561 0.3763
37.2000 24.7694 0.3761
37.2200 24.7828 0.3720
37.2400 24.7961 0.3705
37.2600 24.8094 0.3750
37.2800 24.8228 0.3726
37.3000 24.8361 0.3686
37.3200 24.8494 0.3733
37.3400 24.8627 0.3687
37.3600 24.8760 0.3697
37.3800 24.8894 0.3680
37.4000 24.9027 0.3641
37.4200 24.9160 0.3595
37.4400 24.9294 0.3665
37.4600 24.9427 0.3614
37.4800 24.9560 0.3601
37.5000 24.9693 0.3662
37.5200 24.9827 0.3587
37.5400 24.9960 0.3599
37.5600 25.0094 0.3646
37.5800 25.0227 0.3527
37.6000 25.0361 0.3579
37.6200 25.0494 0.3612
37.6400 25.0628 0.3486
37.6600 25.0761 0.3556
37.6800 25.0894 0.3589
37.7000 25.1027 0.3439
37.7200 25.1161 0.3587
37.7400 25.1294 0.3505
37.7600 25.1427 0.3418
37.7800 25.1560 0.3577
37.8000 25.1693 0.3480
37.8200 25.1827 0.3406
37.8400 25.1960 0.3517
37.8600 25.2094 0.3470
37.8800 25.2227 0.3423
37.9000 25.2361 0.3434
37.9200 25.2495 0.3408
37.9400 25.2628 0.3394
37.9600 25.2761 0.3431
37.9800 25.2894 0.3365
38.0000 25.3028 0.3445
38.0200 25.3161 0.3410
38.0400 25.3294 0.3317
38.0600 25.3427 0.3419
38.0800 25.3561 0.3373
38.1000 25.3694 0.3333
38.1200 25.3827 0.3365
38.1400 25.3960 0.3310
38.1600 25.4093 0.3363
38.1800 25.4227 0.3357
38.2000 25.4360 0.3266
38.2200 25.4493 0.3356
38.2400 25.4627 0.3308
38.2600 25.4760 0.3244
38.2800 25.4894 0.3333
38.3000 25.5028 0.3308
38.3200 25.5161 0.3210
38.3400 25.5294 0.3358
38.3600 25.5428 0.3241
38.3800 25.5561 0.3218
38.4000 25.5694 0.3357
38.4200 25.5827 0.3204
38.4400 25.5960 0.3260
38.4600 25.6094 0.3318
38.4800 25.6227 0.3146
38.5000 25.6360 0.3209
38.5200 25.6494 0.3267
38.5400 25.6627 0.3140
38.5600 25.6761 0.3193
38.5800 25.6894 0.3264
38.6000 25.7027 0.3106
38.6200 25.7161 0.3187
38.6400 25.7294 0.3206
38.6600 25.7427 0.3081
38.6800 25.7560 0.3176
38.7000 25.7694 0.3144
38.7200 25.7827 0.3052
38.7400 25.7961 0.3175
38.7600 25.8094 0.3086
38.7800 25.8227 0.3041
38.8000 25.8361 0.3136
38.8200 25.8494 0.3031
38.8400 25.8628 0.2995
38.8600 25.8761 0.3101
38.8800 25.8894 0.3024
38.9000 25.9027 0.2977
38.9200 25.9160 0.3048
38.9400 25.9294 0.2985
38.9600 25.9427 0.2981
38.9800 25.9560 0.3003
39.0000 25.9694 0.3000
39.0200 25.9827 0.2944
39.0400 25.9961 0.2981
39.0600 26.0094 0.2974
39.0800 26.0227 0.2951
39.1000 26.0361 0.2942
39.1200 26.0494 0.2933
39.1400 26.0627 0.2918
39.1600 26.0761 0.2913
39.1800 26.0894 0.2978
39.2000 26.1027 0.2848
39.2200 26.1160 0.2864
39.2400 26.1293 0.2963
39.2600 26.1427 0.2814
39.2800 26.1560 0.2873
39.3000 26.1693 0.2980
39.3200 26.1827 0.2790
39.3400 26.1961 0.2849
39.3600 26.2094 0.2927
39.3800 26.2228 0.2777
39.4000 26.2361 0.2837
39.4200 26.2495 0.2931
39.4400 26.2628 0.2752
39.4600 26.2761 0.2833
39.4800 26.2894 0.2855
39.5000 26.3027 0.2765
39.5200 26.3160 0.2831
39.5400 26.3294 0.2835
39.5600 26.3427 0.2730
39.5800 26.3560 0.2786
39.6000 26.3693 0.2790
39.6200 26.3827 0.2720
39.6400 26.3961 0.2722
39.6600 26.4094 0.2760
39.6800 26.4227 0.2757
39.7000 26.4361 0.2721
39.7200 26.4494 0.2690
39.7400 26.4628 0.2716
39.7600 26.4761 0.2688
39.7800 26.4894 0.2694
39.8000 26.5028 0.2681
39.8200 26.5161 0.2656
39.8400 26.5295 0.2624
39.8600 26.5427 0.2652
39.8800 26.5560 0.2614
39.9000 26.5694 0.2638
39.9200 26.5827 0.2667
39.9400 26.5960 0.2585
39.9600 26.6093 0.2585
39.9800 26.6226 0.2645
40.0000 26.6360 0.2526
40.0200 26.6493 0.2630
40.0400 26.6627 0.2630
40.0600 26.6761 0.2474
40.0800 26.6894 0.2634
40.1000 26.7028 0.2593
40.1200 26.7161 0.2434
40.1400 26.7294 0.2621
40.1600 26.7427 0.2585
40.1800 26.7561 0.2373
40.2000 26.7694 0.2533
40.2200 26.7827 0.2503
40.2400 26.7960 0.2357
40.2600 26.8094 0.2539
40.2800 26.8227 0.2461
40.3000 26.8361 0.2329
40.3200 26.8494 0.2499
40.3400 26.8627 0.2360
40.3600 26.8760 0.2305
40.3800 26.8893 0.2414
40.4000 26.9027 0.2354
40.4200 26.9160 0.2240
40.4400 26.9294 0.2378
40.4600 26.9428 0.2292
40.4800 26.9561 0.2231
40.5000 26.9694 0.2337
40.5200 26.9828 0.2237
40.5400 26.9961 0.2204
40.5600 27.0094 0.2347
40.5800 27.0227 0.2210
40.6000 27.0360 0.2185
40.6200 27.0494 0.2296
40.6400 27.0627 0.2185
40.6600 27.0760 0.2157
40.6800 27.0893 0.2280
40.7000 27.1027 0.2182
40.7200 27.1160 0.2158
40.7400 27.1294 0.2199
40.7600 27.1427 0.2147
40.7800 27.1561 0.2164
40.8000 27.1694 0.2209
40.8200 27.1827 0.2088
40.8400 27.1960 0.2156
40.8600 27.2094 0.2160
40.8800 27.2227 0.2034
40.9000 27.2361 0.2188
40.9200 27.2495 0.2139
40.9400 27.2628 0.2040
40.9600 27.2761 0.2162
40.9800 27.2894 0.2100
41.0000 27.3028 0.2048
41.0200 27.3161 0.2179
41.0400 27.3294 0.2063
41.0600 27.3427 0.2060
41.0800 27.3560 0.2144
41.1000 27.3693 0.2037
41.1200 27.3826 0.2069
41.1400 27.3960 0.2161
41.1600 27.4094 0.2000
41.1800 27.4228 0.2046
41.2000 27.4361 0.2129
41.2200 27.4495 0.1998
41.2400 27.4628 0.2094
41.2600 27.4761 0.2135
41.2800 27.4895 0.1950
41.3000 27.5027 0.2089
41.3200 27.5160 0.2097
41.3400 27.5294 0.1955
41.3600 27.5427 0.2103
41.3800 27.5560 0.2113
41.4000 27.5693 0.1941
41.4200 27.5826 0.2096
41.4400 27.5960 0.2048
41.4600 27.6094 0.1931
41.4800 27.6227 0.2099
41.5000 27.6360 0.1992
41.5200 27.6494 0.1933
41.5400 27.6628 0.2084
41.5600 27.6761 0.1969
41.5800 27.6894 0.1953
41.6000 27.7028 0.2079
41.6200 27.7161 0.1968
41.6400 27.7294 0.1966
41.6600 27.7427 0.2059
41.6800 27.7560 0.1940
41.7000 27.7694 0.1952
41.7200 27.7827 0.1992
41.7400 27.7960 0.1911
41.7600 27.8093 0.1956
41.7800 27.8227 0.1947
41.8000 27.8360 0.1895
41.8200 27.8494 0.1890
41.8400 27.8627 0.1926
41.8600 27.8761 0.1902
41.8800 27.8894 0.1855
41.9000 27.9028 0.1906
41.9200 27.9161 0.1883
41.9400 27.9294 0.1870
41.9600 27.9427 0.1869
41.9800 27.9561 0.1827
42.0000 27.9695 0.1840
42.0200 27.9828 0.1845
42.0400 27.9961 0.1823
42.0600 28.0094 0.1769
42.0800 28.0227 0.1802
42.1000 28.0361 0.1773
42.1200 28.0494 0.1730
42.1400 28.0627 0.1739
42.1600 28.0760 0.1736
42.1800 28.0894 0.1695
42.2000 28.1027 0.1718
42.2200 28.1160 0.1717
42.2400 28.1294 0.1670
42.2600 28.1428 0.1696
42.2800 28.1561 0.1657
42.3000 28.1694 0.1668
42.3200 28.1828 0.1684
42.3400 28.1961 0.1595
42.3600 28.2094 0.1650
42.3800 28.2227 0.1654
42.4000 28.2360 0.1576
42.4200 28.2494 0.1609
42.4400 28.2627 0.1601
42.4600 28.2761 0.1560
42.4800 28.2894 0.1586
42.5000 28.3027 0.1599
42.5200 28.3160 0.1511
42.5400 28.3294 0.1588
42.5600 28.3427 0.1539
42.5800 28.3560 0.1515
42.6000 28.3694 0.1552
42.6200 28.3827 0.1531
42.6400 28.3961 0.1480
42.6600 28.4094 0.1518
42.6800 28.4228 0.1484
42.7000 28.4361 0.1500
42.7200 28.4495 0.1470
42.7400 28.4628 0.1489
42.7600 28.4761 0.1541
42.7800 28.4894 0.1431
42.8000 28.5027 0.1482
42.8200 28.5160 0.1498
42.8400 28.5294 0.1381
42.8600 28.5427 0.1487
42.8800 28.5560 0.1497
42.9000 28.5694 0.1336
42.9200 28.5827 0.1427
42.9400 28.5960 0.1463
42.9600 28.6094 0.1322
42.9800 28.6227 0.1465
43.0000 28.6361 0.1419
43.0200 28.6494 0.1302
43.0400 28.6627 0.1475
43.0600 28.6761 0.1391
43.0800 28.6894 0.1269
43.1000 28.7028 0.1424
43.1200 28.7161 0.1349
43.1400 28.7294 0.1261
43.1600 28.7427 0.1458
43.1800 28.7561 0.1294
43.2000 28.7693 0.1264
43.2200 28.7827 0.1433
43.2400 28.7960 0.1300
43.2600 28.8093 0.1257
43.2800 28.8227 0.1349
43.3000 28.8360 0.1294
43.3200 28.8494 0.1274
43.3400 28.8628 0.1295
43.3600 28.8762 0.1301
43.3800 28.8895 0.1258
43.4000 28.9028 0.1338
43.4200 28.9162 0.1286
43.4400 28.9295 0.1218
43.4600 28.9427 0.1301
43.4800 28.9560 0.1222
43.5000 28.9693 0.1273
43.5200 28.9827 0.1297
43.5400 28.9960 0.1216
43.5600 29.0093 0.1291
43.5800 29.0227 0.1285
43.6000 29.0360 0.1212
43.6200 29.0494 0.1242
43.6400 29.0628 0.1233
43.6600 29.0761 0.1221
43.6800 29.0895 0.1262
43.7000 29.1028 0.1189
43.7200 29.1161 0.1199
43.7400 29.1294 0.1241
43.7600 29.1427 0.1177
43.7800 29.1561 0.1238
43.8000 29.1694 0.1186
43.8200 29.1827 0.1138
43.8400 29.1960 0.1255
43.8600 29.2094 0.1199
43.8800 29.2227 0.1183
43.9000 29.2360 0.1197
43.9200 29.2493 0.1179
43.9400 29.2627 0.1201
43.9600 29.2760 0.1172
43.9800 29.2894 0.1112
44.0000 29.3027 0.1132
44.0200 29.3160 0.1151
44.0400 29.3294 0.1067
44.0600 29.3428 0.1147
44.0800 29.3561 0.1072
44.1000 29.3694 0.1088
44.1200 29.3827 0.1130
44.1400 29.3961 0.1003
44.1600 29.4095 0.1065
44.1800 29.4228 0.1060
44.2000 29.4361 0.0989
44.2200 29.4494 0.1060
44.2400 29.4627 0.1051
44.2600 29.4761 0.0933
44.2800 29.4893 0.1042
44.3000 29.5026 0.0995
44.3200 29.5160 0.0923
44.3400 29.5294 0.1007
44.3600 29.5427 0.0927
44.3800 29.5560 0.0920
44.4000 29.5694 0.0963
44.4200 29.5827 0.0864
44.4400 29.5961 0.0867
44.4600 29.6094 0.0912
44.4800 29.6228 0.0879
44.5000 29.6361 0.0854
44.5200 29.6494 0.0903
44.5400 29.6627 0.0805
44.5600 29.6760 0.0810
44.5800 29.6894 0.0894
44.6000 29.7027 0.0743
44.6200 29.7161 0.0808
44.6400 29.7294 0.0843
44.6600 29.7427 0.0730
44.6800 29.7560 0.0807
44.7000 29.7694 0.0787
44.7200 29.7827 0.0712
44.7400 29.7960 0.0755
44.7600 29.8094 0.0741
44.7800 29.8227 0.0693
44.8000 29.8361 0.0731
44.8200 29.8494 0.0746
44.8400 29.8628 0.0713
44.8600 29.8761 0.0692
44.8800 29.8895 0.0709
44.9000 29.9028 0.0662
44.9200 29.9161 0.0730
44.9400 29.9294 0.0727
44.9600 29.9427 0.0650
44.9800 29.9560 0.0733
45.0000 29.9694 0.0689
45.0200 29.9827 0.0625
45.0400 29.9960 0.0715
45.0600 30.0094 0.0663
45.0800 30.0227 0.0634
45.1000 30.0360 0.0687
45.1200 30.0494 0.0629
45.1400 30.0628 0.0636
45.1600 30.0761 0.0662
45.1800 30.0895 0.0627
45.2000 30.1028 0.0589
45.2200 30.1161 0.0631
45.2400 30.1294 0.0626
45.2600 30.1428 0.0608
45.2800 30.1561 0.0588
45.3000 30.1694 0.0615
45.3200 30.1827 0.0595
45.3400 30.1960 0.0521
45.3600 30.2093 0.0580
45.3800 30.2227 0.0611
45.4000 30.2360 0.0497
45.4200 30.2493 0.0515
45.4400 30.2627 0.0573
45.4600 30.2760 0.0503
45.4800 30.2894 0.0505
45.5000 30.3027 0.0524
45.5200 30.3161 0.0429
45.5400 30.3295 0.0504
45.5600 30.3428 0.0508
45.5800 30.3561 0.0440
45.6000 30.3695 0.0534
45.6200 30.3828 0.0442
45.6400 30.3960 0.0382
45.6600 30.4093 0.0517
45.6800 30.4227 0.0418
45.7000 30.4360 0.0389
45.7200 30.4494 0.0499
45.7400 30.4627 0.0380
45.7600 30.4760 0.0365
45.7800 30.4894 0.0472
45.8000 30.5027 0.0315
45.8200 30.5161 0.0356
45.8400 30.5294 0.0497
45.8600 30.5427 0.0310
45.8800 30.5561 0.0370
45.9000 30.5694 0.0416
45.9200 30.5827 0.0306
45.9400 30.5960 0.0344
45.9600 30.6094 0.0391
45.9800 30.6228 0.0271
46.0000 30.6361 0.0291
46.0200 30.6494 0.0324
46.0400 30.6628 0.0307
46.0600 30.6761 0.0328
46.0800 30.6894 0.0319
46.1000 30.7027 0.0247
46.1200 30.7160 0.0311
46.1400 30.7294 0.0254
46.1600 30.7427 0.0227
46.1800 30.7560 0.0290
46.2000 30.7693 0.0244
46.2200 30.7827 0.0238
46.2400 30.7961 0.0198
46.2600 30.8094 0.0240
46.2800 30.8227 0.0259
46.3000 30.8361 0.0166
46.3200 30.8495 0.0253
46.3400 30.8628 0.0190
46.3600 30.8761 0.0211
46.3800 30.8894 0.0290
46.4000 30.9028 0.0128
46.4200 30.9161 0.0129
46.4400 30.9294 0.0229
46.4600 30.9427 0.0114
46.4800 30.9560 0.0166
46.5000 30.9693 0.0180
46.5200 30.9827 0.0089
46.5400 30.9960 0.0163
46.5600 31.0094 0.0216
46.5800 31.0227 0.0073
46.6000 31.0361 0.0149
46.6200 31.0494 0.0153
46.6400 31.0628 0.0067
46.6600 31.0761 0.0133
46.6800 31.0894 0.0202
46.7000 31.1028 0.0095
46.7200 31.1161 0.0028
46.7400 31.1294 0.0207
46.7600 31.1427 0.0152
46.7800 31.1561 0.0050
46.8000 31.1694 0.0202
46.8200 31.1827 0.0119
46.8400 31.1960 0.0058
46.8600 31.2094 0.0152
46.8800 31.2227 0.0093
46.9000 31.2361 0.0088
46.9200 31.2494 0.0159
46.9400 31.2627 0.0108
46.9600 31.2761 0.0024
46.9800 31.2894 0.0140
47.0000 31.3027 0.0102
47.0200 31.3161 0.0127
47.0400 31.3294 0.0063
47.0600 31.3428 -0.0035
47.0800 31.3561 0.0125
47.1000 31.3694 0.0086
47.1200 31.3827 0.0019
47.1400 31.3961 0.0130
47.1600 31.4094 0.0041
47.1800 31.4227 -0.0061
47.2000 31.4360 0.0077
47.2200 31.4493 0.0104
47.2400 31.4627 -0.0059
47.2600 31.4760 -0.0024
47.2800 31.4894 0.0064
47.3000 31.5027 -0.0048
47.3200 31.5161 -0.0048
47.3400 31.5294 0.0042
47.3600 31.5428 -0.0041
47.3800 31.5561 -0.0047
47.4000 31.5694 -0.0026
47.4200 31.5828 -0.0080
47.4400 31.5961 -0.0055
47.4600 31.6094 -0.0044
47.4800 31.6227 -0.0094
47.5000 31.6361 -0.0079
47.5200 31.6494 -0.0049
47.5400 31.6627 -0.0084
47.5600 31.6760 -0.0152
47.5800 31.6894 -0.0105
47.6000 31.7027 -0.0018
47.6200 31.7160 -0.0074
47.6400 31.7294 -0.0199
47.6600 31.7427 -0.0170
47.6800 31.7561 -0.0093
47.7000 31.7694 -0.0084
47.7200 31.7828 -0.0095
47.7400 31.7961 -0.0206
47.7600 31.8094 -0.0170
47.7800 31.8228 -0.0115
47.8000 31.8361 -0.0181
47.8200 31.8494 -0.0143
47.8400 31.8627 -0.0074
47.8600 31.8760 -0.0202
47.8800 31.8894 -0.0277
47.9000 31.9027 -0.0170
47.9200 31.9160 -0.0107
47.9400 31.9294 -0.0147
47.9600 31.9427 -0.0324
47.9800 31.9560 -0.0257
48.0000 31.9694 -0.0075
48.0200 31.9827 -0.0185
48.0400 31.9961 -0.0295
48.0600 32.0094 -0.0249
48.0800 32.0227 -0.0199
48.1000 32.0360 -0.0215
48.1200 32.0494 -0.0296
48.1400 32.0628 -0.0294
48.1600 32.0761 -0.0230
48.1800 32.0894 -0.0249
48.2000 32.1028 -0.0286
48.2200 32.1161 -0.0303
48.2400 32.1294 -0.0311
48.2600 32.1427 -0.0350
48.2800 32.1560 -0.0283
48.3000 32.1693 -0.0327
48.3200 32.1826 -0.0392
48.3400 32.1960 -0.0325
48.3600 32.2093 -0.0350
48.3800 32.2227 -0.0466
48.4000 32.2361 -0.0383
48.4200 32.2495 -0.0344
48.4400 32.2628 -0.0435
48.4600 32.2761 -0.0413
48.4800 32.2895 -0.0453
48.5000 32.3028 -0.0435
48.5200 32.3161 -0.0385
48.5400 32.3294 -0.0427
48.5600 32.3427 -0.0439
48.5800 32.3560 -0.0446
48.6000 32.3694 -0.0512
48.6200 32.3827 -0.0394
48.6400 32.3960 -0.0442
48.6600 32.4093 -0.0505
48.6800 32.4227 -0.0496
48.7000 32.4360 -0.0518
48.7200 32.4494 -0.0494
48.7400 32.4627 -0.0401
48.7600 32.4761 -0.0558
48.7800 32.4895 -0.0604
48.8000 32.5028 -0.0420
48.8200 32.5161 -0.0528
48.8400 32.5295 -0.0572
48.8600 32.5428 -0.0479
48.8800 32.5561 -0.0555
48.9000 32.5694 -0.0525
48.9200 32.5827 -0.0575
48.9400 32.5960 -0.0556
48.9600 32.6094 -0.0490
48.9800 32.6227 -0.0600
49.0000 32.6360 -0.0654
49.0200 32.6494 -0.0532
49.0400 32.6627 -0.0491
49.0600 32.6761 -0.0713
49.0800 32.6894 -0.0580
49.1000 32.7027 -0.0460
49.1200 32.7161 -0.0709
49.1400 32.7295 -0.0669
49.1600 32.7428 -0.0510
49.1800 32.7561 -0.0604
49.2000 32.7694 -0.0633
49.2200 32.7827 -0.0616
49.2400 32.7961 -0.0593
49.2600 32.8094 -0.0585
49.2800 32.8227 -0.0655
49.3000 32.8361 -0.0606
49.3200 32.8494 -0.0571
49.3400 32.8627 -0.0714
49.3600 32.8760 -0.0611
49.3800 32.8893 -0.0582
49.4000 32.9027 -0.0680
49.4200 32.9160 -0.0710
49.4400 32.9294 -0.0649
49.4600 32.9427 -0.0644
49.4800 32.9561 -0.0714
49.5000 32.9695 -0.0694
49.5200 32.9828 -0.0643
49.5400 32.9961 -0.0764
49.5600 33.0094 -0.0739
49.5800 33.0228 -0.0596
49.6000 33.0361 -0.0723
49.6200 33.0494 -0.0848
49.6400 33.0627 -0.0730
49.6600 33.0760 -0.0605
49.6800 33.0894 -0.0808
49.7000 33.1027 -0.0850
49.7200 33.1160 -0.0637
49.7400 33.1293 -0.0801
49.7600 33.1427 -0.0857
49.7800 33.1560 -0.0684
49.8000 33.1693 -0.0783
49.8200 33.1827 -0.0864
49.8400 33.1961 -0.0709
49.8600 33.2094 -0.0808
49.8800 33.2228 -0.0839
49.9000 33.2361 -0.0755
49.9200 33.2494 -0.0923
49.9400 33.2628 -0.0802
49.9600 33.2761 -0.0747
49.9800 33.2894 -0.0992
50.0000 33.3027 -0.0849
50.0200 33.3161 -0.0743
50.0400 33.3294 -0.0954
50.0600 33.3427 -0.0870
50.0800 33.3560 -0.0842
50.1000 33.3693 -0.0941
50.1200 33.3827 -0.0924
50.1400 33.3960 -0.0896
50.1600 33.4094 -0.0986
50.1800 33.4227 -0.0936
50.2000 33.4361 -0.0963
50.2200 33.4494 -0.1039
50.2400 33.4627 -0.0968
50.2600 33.4761 -0.1003
50.2800 33.4894 -0.1039
50.3000 33.5028 -0.0993
50.3200 33.5161 -0.1071
50.3400 33.5294 -0.1071
50.3600 33.5427 -0.0993
50.3800 33.5561 -0.1124
50.4000 33.5694 -0.1113
50.4200 33.5827 -0.0987
50.4400 33.5960 -0.1116
50.4600 33.6093 -0.1225
50.4800 33.6227 -0.1071
50.5000 33.6360 -0.0994
50.5200 33.6493 -0.1216
50.5400 33.6627 -0.1110
50.5600 33.6761 -0.1183
50.5800 33.6895 -0.1237
50.6000 33.7028 -0.1020
50.6200 33.7161 -0.1082
50.6400 33.7295 -0.1281
50.6600 33.7428 -0.1147
50.6800 33.7561 -0.1084
50.7000 33.7694 -0.1215
50.7200 33.7826 -0.1122
50.7400 33.7960 -0.1186
50.7600 33.8093 -0.1240
50.7800 33.8227 -0.1096
50.8000 33.8360 -0.1138
50.8200 33.8494 -0.1179
50.8400 33.8627 -0.1139
50.8600 33.8761 -0.1316
50.8800 33.8894 -0.1192
50.9000 33.9028 -0.1044
50.9200 33.9161 -0.1215
50.9400 33.9295 -0.1276
50.9600 33.9428 -0.1198
50.9800 33.9560 -0.1120
51.0000 33.9694 -0.1177
51.0200 33.9827 -0.1225
51.0400 33.9961 -0.1235
51.0600 34.0094 -0.1246
51.0800 34.0227 -0.1205
51.1000 34.0360 -0.1181
51.1200 34.0494 -0.1231
51.1400 34.0627 -0.1268
51.1600 34.0760 -0.1204
51.1800 34.0893 -0.1224
51.2000 34.1027 -0.1257
51.2200 34.1161 -0.1212
51.2400 34.1294 -0.1367
51.2600 34.1427 -0.1211
51.2800 34.1561 -0.1152
51.3000 34.1695 -0.1388
51.3200 34.1828 -0.1294
51.3400 34.1961 -0.1235
51.3600 34.2094 -0.1342
51.3800 34.2228 -0.1231
51.4000 34.2361 -0.1195
51.4200 34.2494 -0.1447
51.4400 34.2627 -0.1366
51.4600 34.2761 -0.1116
51.4800 34.2894 -0.1336
51.5000 34.3027 -0.1308
51.5200 34.3160 -0.1266
51.5400 34.3293 -0.1438
51.5600 34.3427 -0.1294
51.5800 34.3560 -0.1246
51.6000 34.3694 -0.1430
51.6200 34.3827 -0.1337
51.6400 34.3961 -0.1418
51.6600 34.4094 -0.1510
51.6800 34.4228 -0.1174
51.7000 34.4361 -0.1366
51.7200 34.4495 -0.1659
51.7400 34.4628 -0.1234
51.7600 34.4761 -0.1378
51.7800 34.4894 -0.1598
51.8000 34.5027 -0.1289
51.8200 34.5160 -0.1465
51.8400 34.5294 -0.1586
51.8600 34.5427 -0.1376
51.8800 34.5561 -0.1476
51.9000 34.5694 -0.1458
51.9200 34.5827 -0.1452
51.9400 34.5960 -0.1585
51.9600 34.6093 -0.1443
51.9800 34.6227 -0.1411
52.0000 34.6360 -0.1594
52.0200 34.6494 -0.1545
52.0400 34.6627 -0.1473
52.0600 34.6761 -0.1541
52.0800 34.6894 -0.1439
52.1000 34.7028 -0.1514
52.1200 34.7161 -0.1590
52.1400 34.7294 -0.1452
52.1600 34.7427 -0.1525
52.1800 34.7560 -0.1566
52.2000 34.7694 -0.1522
52.2200 34.7827 -0.1603
52.2400 34.7960 -0.1515
52.2600 34.8093 -0.1531
52.2800 34.8227 -0.1620
52.3000 34.8360 -0.1498
52.3200 34.8494 -0.1554
52.3400 34.8627 -0.1696
52.3600 34.8761 -0.1452
52.3800 34.8895 -0.1559
52.4000 34.9028 -0.1690
52.4200 34.9161 -0.1529
52.4400 34.9294 -0.1571
52.4600 34.9428 -0.1624
52.4800 34.9561 -0.1528
52.5000 34.9694 -0.1689
52.5200 34.9827 -0.1551
52.5400 34.9960 -0.1487
52.5600 35.0094 -0.1678
52.5800 35.0227 -0.1615
52.6000 35.0360 -0.1491
52.6200 35.0493 -0.1658
52.6400 35.0627 -0.1647
52.6600 35.0760 -0.1566
52.6800 35.0894 -0.1618
52.7000 35.1027 -0.1601
52.7200 35.1160 -0.1668
52.7400 35.1294 -0.1606
52.7600 35.1428 -0.1578
52.7800 35.1561 -0.1687
52.8000 35.1694 -0.1596
52.8200 35.1828 -0.1607
52.8400 35.1961 -0.1657
52.8600 35.2094 -0.1652
52.8800 35.2227 -0.1649
52.9000 35.2360 -0.1650
52.9200 35.2493 -0.1597
52.9400 35.2627 -0.1723
52.9600 35.2760 -0.1735
52.9800 35.2894 -0.1610
53.0000 35.3027 -0.1734
53.0200 35.3161 -0.1735
53.0400 35.3294 -0.1681
53.0600 35.3428 -0.1817
53.0800 35.3561 -0.1749
53.1000 35.3694 -0.1710
53.1200 35.3828 -0.1861
53.1400 35.3960 -0.1744
53.1600 35.4094 -0.1800
53.1800 35.4227 -0.1913
53.2000 35.4361 -0.1805
53.2200 35.4494 -0.1814
53.2400 35.4627 -0.1937
53.2600 35.4761 -0.1819
53.2800 35.4894 -0.1866
53.3000 35.5028 -0.1961
53.3200 35.5161 -0.1847
53.3400 35.5293 -0.1915
53.3600 35.5427 -0.1973
53.3800 35.5560 -0.1896
53.4000 35.5693 -0.1979
53.4200 35.5827 -0.1987
53.4400 35.5960 -0.1954
53.4600 35.6094 -0.2040
53.4800 35.6228 -0.2012
53.5000 35.6361 -0.1976
53.5200 35.6494 -0.2004
53.5400 35.6627 -0.2023
53.5600 35.6761 -0.2038
53.5800 35.6894 -0.2015
53.6000 35.7027 -0.2033
53.6200 35.7161 -0.2046
53.6400 35.7294 -0.2003
53.6600 35.7427 -0.2033
53.6800 35.7560 -0.2084
53.7000 35.7693 -0.2037
53.7200 35.7826 -0.1984
53.7400 35.7960 -0.2049
53.7600 35.8094 -0.2027
53.7800 35.8227 -0.2059
53.8000 35.8360 -0.2024
53.8200 35.8494 -0.2051
53.8400 35.8628 -0.2044
53.8600 35.8761 -0.2057
53.8800 35.8894 -0.2056
53.9000 35.9028 -0.2050
53.9200 35.9161 -0.2097
53.9400 35.9294 -0.2025
53.9600 35.9427 -0.2103
53.9800 35.9560 -0.2128
54.0000 35.9694 -0.2019
54.0200 35.9827 -0.2139
54.0400 35.9960 -0.2172
54.0600 36.0093 -0.2058
54.0800 36.0227 -0.2146
54.1000 36.0361 -0.2263
54.1200 36.0494 -0.2047
54.1400 36.0627 -0.2191
54.1600 36.0761 -0.2317
54.1800 36.0894 -0.2104
54.2000 36.1028 -0.2226
54.2200 36.1161 -0.2311
54.2400 36.1294 -0.2171
54.2600 36.1428 -0.2254
54.2800 36.1561 -0.2356
54.3000 36.1695 -0.2229
54.3200 36.1828 -0.2273
54.3400 36.1960 -0.2401
54.3600 36.2094 -0.2277
54.3800 36.2227 -0.2335
54.4000 36.2360 -0.2471
54.4200 36.2493 -0.2360
54.4400 36.2627 -0.2654
54.4600 36.2760 -0.1445
54.4800 36.2894 -0.0596
54.5000 36.3027 -0.0348
54.5200 36.3161 -0.0640
54.5400 36.3294 -0.0566
54.5600 36.3428 -0.0581
54.5800 36.3561 -0.0696
54.6000 36.3694 -0.0548
54.6200 36.3827 -0.0635
54.6400 36.3961 -0.0750
54.6600 36.4094 -0.0508
54.6800 36.4227 -0.0557
54.7000 36.4360 -0.0752
54.7200 36.4494 -0.0628
54.7400 36.4627 -0.0506
54.7600 36.4760 -0.0619
54.7800 36.4893 -0.0732
54.8000 36.5027 -0.0566
54.8200 36.5160 -0.0492
54.8400 36.5294 -0.0708
54.8600 36.5427 -0.0704
54.8800 36.5560 -0.0568
54.9000 36.5694 -0.0582
54.9200 36.5828 -0.0640
54.9400 36.5961 -0.0686
54.9600 36.6094 -0.0699
54.9800 36.6228 -0.0496
55.0000 36.6361 -0.0548
55.0200 36.6494 -0.0793
55.0400 36.6627 -0.0590
55.0600 36.6760 -0.0620
55.0800 36.6894 -0.0685
55.1000 36.7027 -0.0498
55.1200 36.7160 -0.0753
55.1400 36.7293 -0.0791
55.1600 36.7426 -0.0483
55.1800 36.7560 -0.0601
55.2000 36.7694 -0.0862
55.2200 36.7827 -0.0678
55.2400 36.7960 -0.0508
55.2600 36.8094 -0.0751
55.2800 36.8227 -0.0727
55.3000 36.8361 -0.0650
55.3200 36.8494 -0.0800
55.3400 36.8627 -0.0583
55.3600 36.8761 -0.0498
55.3800 36.8895 -0.0954
55.4000 36.9028 -0.0819
55.4200 36.9161 -0.0436
55.4400 36.9294 -0.0747
55.4600 36.9428 -0.0788
55.4800 36.9561 -0.0624
55.5000 36.9693 -0.0881
55.5200 36.9826 -0.0615
55.5400 36.9960 -0.0578
55.5600 37.0093 -0.0912
55.5800 37.0226 -0.0622
55.6000 37.0360 -0.0658
55.6200 37.0494 -0.0948
55.6400 37.0628 -0.0613
55.6600 37.0761 -0.0657
55.6800 37.0895 -0.0948
55.7000 37.1028 -0.0659
55.7200 37.1161 -0.0716
55.7400 37.1295 -0.0844
55.7600 37.1428 -0.0626
55.7800 37.1561 -0.0839
55.8000 37.1694 -0.0776
55.8200 37.1827 -0.0633
55.8400 37.1960 -0.0896
55.8600 37.2093 -0.0836
55.8800 37.2226 -0.0715
55.9000 37.2360 -0.0821
55.9200 37.2494 -0.0782
55.9400 37.2627 -0.0759
55.9600 37.2760 -0.0882
55.9800 37.2894 -0.0769
56.0000 37.3028 -0.0817
56.0200 37.3161 -0.0876
56.0400 37.3294 -0.0721
56.0600 37.3428 -0.0837
56.0800 37.3561 -0.0899
56.1000 37.3695 -0.0816
56.1200 37.3828 -0.0793
56.1400 37.3961 -0.0770
56.1600 37.4094 -0.0855
56.1800 37.4227 -0.0888
56.2000 37.4361 -0.0799
56.2200 37.4493 -0.0801
56.2400 37.4627 -0.0927
56.2600 37.4760 -0.0871
56.2800 37.4894 -0.0789
56.3000 37.5027 -0.0880
56.3200 37.5160 -0.0883
56.3400 37.5294 -0.0828
56.3600 37.5428 -0.0917
56.3800 37.5561 -0.0855
56.4000 37.5694 -0.0837
56.4200 37.5827 -0.0908
56.4400 37.5961 -0.0858
56.4600 37.6094 -0.0875
56.4800 37.6227 -0.0912
56.5000 37.6361 -0.0834
56.5200 37.6494 -0.0919
56.5400 37.6627 -0.0911
56.5600 37.6761 -0.0867
56.5800 37.6893 -0.0872
56.6000 37.7026 -0.0917
56.6200 37.7160 -0.0879
56.6400 37.7294 -0.0899
56.6600 37.7427 -0.0933
56.6800 37.7560 -0.0837
56.7000 37.7694 -0.0955
56.7200 37.7828 -0.0965
56.7400 37.7961 -0.0799
56.7600 37.8094 -0.0952
56.7800 37.8228 -0.0967
56.8000 37.8361 -0.0858
56.8200 37.8494 -0.1003
56.8400 37.8627 -0.0930
56.8600 37.8760 -0.0831
56.8800 37.8894 -0.1072
56.9000 37.9027 -0.0931
56.9200 37.9160 -0.0848
56.9400 37.9294 -0.1097
56.9600 37.9427 -0.0861
56.9800 37.9560 -0.0941
57.0000 37.9694 -0.1121
57.0200 37.9827 -0.0857
57.0400 37.9960 -0.0963
57.0600 38.0094 -0.1089
57.0800 38.0228 -0.0887
57.1000 38.0361 -0.1030
57.1200 38.0494 -0.1031
57.1400 38.0628 -0.0888
57.1600 38.0761 -0.1084
57.1800 38.0895 -0.1107
57.2000 38.1028 -0.0850
57.2200 38.1161 -0.1076
57.2400 38.1294 -0.1067
57.2600 38.1427 -0.0892
57.2800 38.1560 -0.1109
57.3000 38.1694 -0.1023
57.3200 38.1827 -0.0900
57.3400 38.1960 -0.1091
57.3600 38.2093 -0.1081
57.3800 38.2227 -0.0962
57.4000 38.2360 -0.1069
57.4200 38.2494 -0.1053
57.4400 38.2628 -0.1004
57.4600 38.2761 -0.1105
57.4800 38.2894 -0.1076
57.5000 38.3027 -0.1011
57.5200 38.3161 -0.1120
57.5400 38.3294 -0.1064
57.5600 38.3428 -0.1005
57.5800 38.3561 -0.1148
57.6000 38.3694 -0.1069
57.6200 38.3827 -0.1045
57.6400 38.3961 -0.1120
57.6600 38.4094 -0.1098
57.6800 38.4226 -0.1133
57.7000 38.4360 -0.1102
57.7200 38.4493 -0.1105
57.7400 38.4626 -0.1116
57.7600 38.4760 -0.1096
57.7800 38.4894 -0.1092
57.8000 38.5028 -0.1203
57.8200 38.5162 -0.1114
57.8400 38.5295 -0.1159
57.8600 38.5428 -0.1193
57.8800 38.5561 -0.1074
57.9000 38.5695 -0.1172
57.9200 38.5828 -0.1197
57.9400 38.5960 -0.1110
57.9600 38.6093 -0.1182
57.9800 38.6227 -0.1191
58.0000 38.6360 -0.1145
58.0200 38.6493 -0.1199
58.0400 38.6627 -0.1220
58.0600 38.6760 -0.1141
58.0800 38.6894 -0.1233
58.1000 38.7027 -0.1231
58.1200 38.7161 -0.1144
58.1400 38.7294 -0.1236
58.1600 38.7428 -0.1210
58.1800 38.7561 -0.1139
58.2000 38.7695 -0.1287
58.2200 38.7828 -0.1239
58.2400 38.7961 -0.1146
58.2600 38.8094 -0.1295
58.2800 38.8227 -0.1226
58.3000 38.8360 -0.1151
58.3200 38.8494 -0.1300
58.3400 38.8627 -0.1260
58.3600 38.8761 -0.1195
58.3800 38.8894 -0.1354
58.4000 38.9027 -0.1191
58.4200 38.9160 -0.1234
58.4400 38.9294 -0.1414
58.4600 38.9427 -0.1221
58.4800 38.9561 -0.1278
58.5000 38.9694 -0.1395
58.5200 38.9828 -0.1226
58.5400 38.9961 -0.1311
58.5600 39.0094 -0.1432
58.5800 39.0227 -0.1225
58.6000 39.0361 -0.1299
58.6200 39.0495 -0.1480
58.6400 39.0628 -0.1256
58.6600 39.0761 -0.1352
58.6800 39.0894 -0.1444
58.7000 39.1027 -0.1287
58.7200 39.1161 -0.1351
58.7400 39.1294 -0.1447
58.7600 39.1427 -0.1273
58.7800 39.1560 -0.1387
58.8000 39.1694 -0.1458
58.8200 39.1827 -0.1350
58.8400 39.1960 -0.1412
58.8600 39.2094 -0.1400
58.8800 39.2227 -0.1344
58.9000 39.2361 -0.1410
58.9200 39.2494 -0.1440
58.9400 39.2628 -0.1404
58.9600 39.2761 -0.1353
58.9800 39.2894 -0.1443
59.0000 39.3028 -0.1444
59.0200 39.3161 -0.1363
59.0400 39.3294 -0.1418
59.0600 39.3427 -0.1502
59.0800 39.3561 -0.1398
59.1000 39.3694 -0.1411
59.1200 39.3827 -0.1420
59.1400 39.3960 -0.1423
59.1600 39.4094 -0.1523
59.1800 39.4227 -0.1493
59.2000 39.4360 -0.1423
59.2200 39.4494 -0.1468
59.2400 39.4627 -0.1521
59.2600 39.4761 -0.1471
59.2800 39.4894 -0.1508
59.3000 39.5027 -0.1497
59.3200 39.5161 -0.1445
59.3400 39.5295 -0.1486
59.3600 39.5428 -0.1559
59.3800 39.5561 -0.1503
59.4000 39.5694 -0.1515
59.4200 39.5827 -0.1516
59.4400 39.5960 -0.1542
59.4600 39.6094 -0.1594
59.4800 39.6227 -0.1571
59.5000 39.6360 -0.1555
59.5200 39.6494 -0.1561
59.5400 39.6627 -0.1608
59.5600 39.6760 -0.1576
59.5800 39.6894 -0.1602
59.6000 39.7028 -0.1671
59.6200 39.7161 -0.1577
59.6400 39.7295 -0.1695
59.6600 39.7428 -0.1585
59.6800 39.7561 -0.1637
59.7000 39.7695 -0.1662
59.7200 39.7828 -0.1623
59.7400 39.7961 -0.1625
59.7600 39.8094 -0.1608
59.7800 39.8227 -0.1693
59.8000 39.8361 -0.1696
59.8200 39.8494 -0.1625
59.8400 39.8627 -0.1684
59.8600 39.8760 -0.1683
59.8800 39.8893 -0.1646
59.9000 39.9027 -0.1704
59.9200 39.9160 -0.1701
59.9400 39.9294 -0.1663
59.9600 39.9427 -0.1694
59.9800 39.9561 -0.1772
60.0000 39.9694 -0.1678
60.0200 39.9827 -0.1720
60.0400 39.9961 -0.1781
60.0470 40.0006 -0.1907
