Raw Data
Time Displacement Force
(s) (mm) (N)
0.0000 0.0000 0.9154
0.0200 0.0000 0.9017
0.0400 0.0008 0.9374
0.0600 0.0039 0.9617
0.0800 0.0094 0.9075
0.1000 0.0151 0.9054
0.1200 0.0210 0.9471
0.1400 0.0276 0.9216
0.1600 0.0350 0.9141
0.1800 0.0424 0.9345
0.2000 0.0496 0.9122
0.2200 0.0565 0.9193
0.2400 0.0632 0.9403
0.2600 0.0698 0.9187
0.2800 0.0765 0.9316
0.3000 0.0832 0.9449
0.3200 0.0899 0.9160
0.3400 0.0967 0.9411
0.3600 0.1033 0.9430
0.3800 0.1100 0.9241
0.4000 0.1166 0.9492
0.4200 0.1233 0.9448
0.4400 0.1300 0.9344
0.4600 0.1367 0.9541
0.4800 0.1434 0.9435
0.5000 0.1501 0.9438
0.5200 0.1568 0.9595
0.5400 0.1634 0.9464
0.5600 0.1700 0.9536
0.5800 0.1766 0.9699
0.6000 0.1833 0.9436
0.6200 0.1900 0.9638
0.6400 0.1967 0.9648
0.6600 0.2034 0.9517
0.6800 0.2100 0.9742
0.7000 0.2167 0.9610
0.7200 0.2233 0.9548
0.7400 0.2300 0.9808
0.7600 0.2366 0.9670
0.7800 0.2433 0.9657
0.8000 0.2500 0.9831
0.8200 0.2566 0.9661
0.8400 0.2633 0.9720
0.8600 0.2700 0.9810
0.8800 0.2767 0.9662
0.9000 0.2833 0.9805
0.9200 0.2899 0.9842
0.9400 0.2965 0.9674
0.9600 0.3032 0.9837
0.9800 0.3099 0.9856
1.0000 0.3166 0.9648
1.0200 0.3233 0.9870
1.0400 0.3300 0.9846
1.0600 0.3367 0.9691
1.0800 0.3433 0.9924
1.1000 0.3499 0.9750
1.1200 0.3566 0.9778
1.1400 0.3633 0.9944
1.1600 0.3700 0.9786
1.1800 0.3767 0.9759
1.2000 0.3834 0.9946
1.2200 0.3901 0.9740
1.2400 0.3967 0.9775
1.2600 0.4034 0.9878
1.2800 0.4100 0.9748
1.3000 0.4166 0.9838
1.3200 0.4233 0.9850
1.3400 0.4300 0.9747
1.3600 0.4367 0.9876
1.3800 0.4434 0.9840
1.4000 0.4500 0.9761
1.4200 0.4567 0.9861
1.4400 0.4634 0.9835
1.4600 0.4700 0.9800
1.4800 0.4766 0.9889
1.5000 0.4832 0.9847
1.5200 0.4899 0.9811
1.5400 0.4966 0.9856
1.5600 0.5033 0.9844
1.5800 0.5100 0.9808
1.6000 0.5167 0.9808
1.6200 0.5233 0.9838
1.6400 0.5299 0.9781
1.6600 0.5366 0.9841
1.6800 0.5433 0.9908
1.7000 0.5500 0.9815
1.7200 0.5567 0.9726
1.7400 0.5633 0.9906
1.7600 0.5700 0.9832
1.7800 0.5767 0.9792
1.8000 0.5833 0.9868
1.8200 0.5900 0.9776
1.8400 0.5966 0.9792
1.8600 0.6033 0.9883
1.8800 0.6100 0.9779
1.9000 0.6167 0.9849
1.9200 0.6233 0.9907
1.9400 0.6300 0.9748
1.9600 0.6367 0.9828
1.9800 0.6434 0.9893
2.0000 0.6500 0.9755
2.0200 0.6566 0.9866
2.0400 0.6633 0.9893
2.0600 0.6700 0.9774
2.0800 0.6767 0.9864
2.1000 0.6834 0.9855
2.1200 0.6900 0.9742
2.1400 0.6967 0.9867
2.1600 0.7034 0.9875
2.1800 0.7100 0.9729
2.2000 0.7166 0.9892
2.2200 0.7232 0.9862
2.2400 0.7300 0.9784
2.2600 0.7367 0.9876
2.2800 0.7433 0.9846
2.3000 0.7500 0.9778
2.3200 0.7567 0.9885
2.3400 0.7634 0.9826
2.3600 0.7700 0.9794
2.3800 0.7766 0.9901
2.4000 0.7832 0.9893
2.4200 0.7899 0.9774
2.4400 0.7966 0.9867
2.4600 0.8033 0.9830
2.4800 0.8100 0.9788
2.5000 0.8167 0.9854
2.5200 0.8234 0.9777
2.5400 0.8300 0.9812
2.5600 0.8366 0.9867
2.5800 0.8433 0.9795
2.6000 0.8500 0.9823
2.6200 0.8567 0.9833
2.6400 0.8634 0.9824
2.6600 0.8701 0.9862
2.6800 0.8767 0.9839
2.7000 0.8834 0.9793
2.7200 0.8900 0.9856
2.7400 0.8966 0.9832
2.7600 0.9033 0.9752
2.7800 0.9100 0.9858
2.8000 0.9167 0.9858
2.8200 0.9234 0.9758
2.8400 0.9301 0.9829
2.8600 0.9367 0.9825
2.8800 0.9434 0.9760
2.9000 0.9500 0.9848
2.9200 0.9566 0.9819
2.9400 0.9632 0.9785
2.9600 0.9699 0.9820
2.9800 0.9767 0.9827
3.0000 0.9833 0.9822
3.0200 0.9900 0.9838
3.0400 0.9967 0.9776
3.0600 1.0034 0.9818
3.0800 1.0100 0.9766
3.1000 1.0165 0.9816
3.1200 1.0232 0.9869
3.1400 1.0299 0.9822
3.1600 1.0366 0.9787
3.1800 1.0433 0.9825
3.2000 1.0500 0.9809
3.2200 1.0567 0.9835
3.2400 1.0634 0.9843
3.2600 1.0700 0.9784
3.2800 1.0766 0.9845
3.3000 1.0833 0.9833
3.3200 1.0900 0.9798
3.3400 1.0967 0.9911
3.3600 1.1034 0.9824
3.3800 1.1101 0.9743
3.4000 1.1168 0.9894
3.4200 1.1234 0.9871
3.4400 1.1300 0.9762
3.4600 1.1366 0.9932
3.4800 1.1433 0.9903
3.5000 1.1500 0.9795
3.5200 1.1567 0.9913
3.5400 1.1634 0.9817
3.5600 1.1701 0.9851
3.5800 1.1767 0.9925
3.6000 1.1834 0.9818
3.6200 1.1900 0.9849
3.6400 1.1966 0.9923
3.6600 1.2032 0.9840
3.6800 1.2100 0.9890
3.7000 1.2167 0.9856
3.7200 1.2234 0.9837
3.7400 1.2300 0.9927
3.7600 1.2367 0.9848
3.7800 1.2434 0.9813
3.8000 1.2500 0.9942
3.8200 1.2566 0.9869
3.8400 1.2633 0.9847
3.8600 1.2700 0.9923
3.8800 1.2767 0.9849
3.9000 1.2833 0.9846
3.9200 1.2900 0.9911
3.9400 1.2967 0.9838
3.9600 1.3034 0.9867
3.9800 1.3100 0.9889
4.0000 1.3166 0.9847
4.0200 1.3232 0.9874
4.0400 1.3299 0.9903
4.0600 1.3366 0.9876
4.0800 1.3433 0.9881
4.1000 1.3500 0.9870
4.1200 1.3567 0.9866
4.1400 1.3634 0.9877
4.1600 1.3700 0.9895
4.1800 1.3766 0.9921
4.2000 1.3833 0.9827
4.2200 1.3900 0.9872
4.2400 1.3967 0.9928
4.2600 1.4034 0.9907
4.2800 1.4101 0.9884
4.3000 1.4167 0.9836
4.3200 1.4234 0.9841
4.3400 1.4300 0.9936
4.3600 1.4366 0.9872
4.3800 1.4432 0.9813
4.4000 1.4499 0.9918
4.4200 1.4566 0.9888
4.4400 1.4633 0.9794
4.4600 1.4700 0.9923
4.4800 1.4767 0.9892
4.5000 1.4834 0.9807
4.5200 1.4900 0.9861
4.5400 1.4966 0.9886
4.5600 1.5032 0.9833
4.5800 1.5099 0.9864
4.6000 1.5166 0.9897
4.6200 1.5233 0.9835
4.6400 1.5300 0.9848
4.6600 1.5367 0.9845
4.6800 1.5434 0.9829
4.7000 1.5500 0.9854
4.7200 1.5566 0.9821
4.7400 1.5633 0.9855
4.7600 1.5700 0.9831
4.7800 1.5767 0.9806
4.8000 1.5834 0.9834
4.8200 1.5901 0.9815
4.8400 1.5967 0.9839
4.8600 1.6034 0.9817
4.8800 1.6100 0.9785
4.9000 1.6166 0.9817
4.9200 1.6232 0.9850
4.9400 1.6299 0.9752
4.9600 1.6366 0.9887
4.9800 1.6433 0.9818
5.0000 1.6500 0.9734
5.0200 1.6567 0.9841
5.0400 1.6634 0.9805
5.0600 1.6700 0.9774
5.0800 1.6766 0.9850
5.1000 1.6832 0.9801
5.1200 1.6899 0.9809
5.1400 1.6966 0.9815
5.1600 1.7033 0.9743
5.1800 1.7100 0.9799
5.2000 1.7167 0.9852
5.2200 1.7234 0.9711
5.2400 1.7300 0.9799
5.2600 1.7366 0.9881
5.2800 1.7432 0.9689
5.3000 1.7499 0.9817
5.3200 1.7566 0.9858
5.3400 1.7633 0.9671
5.3600 1.7700 0.9798
5.3800 1.7766 0.9846
5.4000 1.7833 0.9747
5.4200 1.7900 0.9816
5.4400 1.7966 0.9825
5.4600 1.8033 0.9744
5.4800 1.8099 0.9817
5.5000 1.8167 0.9845
5.5200 1.8234 0.9685
5.5400 1.8301 0.9866
5.5600 1.8367 0.9783
5.5800 1.8434 0.9686
5.6000 1.8501 0.9844
5.6200 1.8566 0.9793
5.6400 1.8633 0.9773
5.6600 1.8699 0.9837
5.6800 1.8767 0.9727
5.7000 1.8834 0.9758
5.7200 1.8900 0.9878
5.7400 1.8967 0.9779
5.7600 1.9034 0.9710
5.7800 1.9100 0.9849
5.8000 1.9166 0.9713
5.8200 1.9232 0.9768
5.8400 1.9299 0.9842
5.8600 1.9366 0.9718
5.8800 1.9433 0.9751
5.9000 1.9500 0.9817
5.9200 1.9567 0.9700
5.9400 1.9634 0.9750
5.9600 1.9700 0.9811
5.9800 1.9766 0.9722
6.0000 1.9832 0.9779
6.0200 1.9899 0.9790
6.0400 1.9966 0.9750
6.0600 2.0033 0.9794
6.0800 2.0100 0.9760
6.1000 2.0167 0.9741
6.1200 2.0234 0.9799
6.1400 2.0301 0.9754
6.1600 2.0366 0.9757
6.1800 2.0433 0.9723
6.2000 2.0499 0.9757
6.2200 2.0567 0.9735
6.2400 2.0634 0.9761
6.2600 2.0700 0.9757
6.2800 2.0767 0.9750
6.3000 2.0834 0.9718
6.3200 2.0900 0.9730
6.3400 2.0966 0.9742
6.3600 2.1032 0.9753
6.3800 2.1099 0.9747
6.4000 2.1167 0.9732
6.4200 2.1234 0.9678
6.4400 2.1300 0.9757
6.4600 2.1367 0.9732
6.4800 2.1434 0.9676
6.5000 2.1501 0.9728
6.5200 2.1567 0.9785
6.5400 2.1633 0.9656
6.5600 2.1699 0.9726
6.5800 2.1766 0.9737
6.6000 2.1833 0.9648
6.6200 2.1900 0.9727
6.6400 2.1967 0.9703
6.6600 2.2034 0.9637
6.6800 2.2100 0.9733
6.7000 2.2166 0.9714
6.7200 2.2232 0.9634
6.7400 2.2299 0.9746
6.7600 2.2366 0.9746
6.7800 2.2433 0.9645
6.8000 2.2500 0.9687
6.8200 2.2567 0.9757
6.8400 2.2634 0.9645
6.8600 2.2700 0.9678
6.8800 2.2766 0.9739
6.9000 2.2833 0.9664
6.9200 2.2899 0.9742
6.9400 2.2966 0.9711
6.9600 2.3033 0.9598
6.9800 2.3100 0.9706
7.0000 2.3167 0.9718
7.0200 2.3234 0.9651
7.0400 2.3301 0.9691
7.0600 2.3367 0.9726
7.0800 2.3433 0.9632
7.1000 2.3499 0.9705
7.1200 2.3566 0.9716
7.1400 2.3633 0.9668
7.1600 2.3700 0.9692
7.1800 2.3767 0.9744
7.2000 2.3834 0.9650
7.2200 2.3901 0.9701
7.2400 2.3967 0.9722
7.2600 2.4032 0.9647
7.2800 2.4099 0.9709
7.3000 2.4166 0.9704
7.3200 2.4234 0.9640
7.3400 2.4300 0.9649
7.3600 2.4367 0.9736
7.3800 2.4434 0.9618
7.4000 2.4500 0.9666
7.4200 2.4566 0.9697
7.4400 2.4632 0.9639
7.4600 2.4699 0.9698
7.4800 2.4766 0.9689
7.5000 2.4833 0.9602
7.5200 2.4900 0.9665
7.5400 2.4967 0.9669
7.5600 2.5034 0.9676
7.5800 2.5100 0.9637
7.6000 2.5167 0.9654
7.6200 2.5233 0.9702
7.6400 2.5299 0.9658
7.6600 2.5366 0.9599
7.6800 2.5433 0.9689
7.7000 2.5500 0.9635
7.7200 2.5567 0.9644
7.7400 2.5634 0.9662
7.7600 2.5701 0.9633
7.7800 2.5767 0.9625
7.8000 2.5833 0.9650
7.8200 2.5899 0.9619
7.8400 2.5967 0.9684
7.8600 2.6034 0.9603
7.8800 2.6100 0.9578
7.9000 2.6167 0.9673
7.9200 2.6234 0.9621
7.9400 2.6300 0.9603
7.9600 2.6367 0.9675
7.9800 2.6433 0.9637
8.0000 2.6499 0.9603
8.0200 2.6566 0.9708
8.0400 2.6633 0.9593
8.0600 2.6700 0.9595
8.0800 2.6767 0.9715
8.1000 2.6834 0.9544
8.1200 2.6900 0.9592
8.1400 2.6966 0.9710
8.1600 2.7032 0.9491
8.1800 2.7099 0.9679
8.2000 2.7166 0.9699
8.2200 2.7233 0.9418
8.2400 2.7300 0.9639
8.2600 2.7367 0.9785
8.2800 2.7434 0.9370
8.3000 2.7500 0.9610
8.3200 2.7566 0.9733
8.3400 2.7633 0.9466
8.3600 2.7699 0.9523
8.3800 2.7766 0.9776
8.4000 2.7833 0.9445
8.4200 2.7900 0.9446
8.4400 2.7967 0.9752
8.4600 2.8034 0.9629
8.4800 2.8100 0.9403
8.5000 2.8167 0.9511
8.5200 2.8233 0.9729
8.5400 2.8299 0.9596
8.5600 2.8366 0.9400
8.5800 2.8433 0.9635
8.6000 2.8500 0.9613
8.6200 2.8567 0.9431
8.6400 2.8634 0.9635
8.6600 2.8701 0.9628
8.6800 2.8767 0.9304
8.7000 2.8833 0.9661
8.7200 2.8899 0.9712
8.7400 2.8966 0.9346
8.7600 2.9033 0.9574
8.7800 2.9100 0.9636
8.8000 2.9167 0.9466
8.8200 2.9234 0.9557
8.8400 2.9300 0.9602
8.8600 2.9366 0.9439
8.8800 2.9432 0.9569
8.9000 2.9499 0.9586
8.9200 2.9565 0.9510
8.9400 2.9633 0.9606
8.9600 2.9699 0.9492
8.9800 2.9766 0.9467
9.0000 2.9833 0.9699
9.0200 2.9900 0.9455
9.0400 2.9967 0.9466
9.0600 3.0033 0.9627
9.0800 3.0099 0.9523
9.1000 3.0166 0.9462
9.1200 3.0233 0.9591
9.1400 3.0300 0.9510
9.1600 3.0367 0.9485
9.1800 3.0434 0.9530
9.2000 3.0501 0.9539
9.2200 3.0567 0.9548
9.2400 3.0633 0.9439
9.2600 3.0699 0.9505
9.2800 3.0766 0.9568
9.3000 3.0833 0.9472
9.3200 3.0901 0.9519
9.3400 3.0967 0.9534
9.3600 3.1034 0.9455
9.3800 3.1101 0.9512
9.4000 3.1167 0.9523
9.4200 3.1233 0.9535
9.4400 3.1299 0.9522
9.4600 3.1366 0.9493
9.4800 3.1433 0.9493
9.5000 3.1500 0.9511
9.5200 3.1567 0.9466
9.5400 3.1634 0.9506
9.5600 3.1701 0.9491
9.5800 3.1767 0.9494
9.6000 3.1833 0.9528
9.6200 3.1899 0.9523
9.6400 3.1966 0.9449
9.6600 3.2033 0.9502
9.6800 3.2100 0.9514
9.7000 3.2167 0.9461
9.7200 3.2233 0.9484
9.7400 3.2300 0.9473
9.7600 3.2366 0.9484
9.7800 3.2432 0.9493
9.8000 3.2499 0.9437
9.8200 3.2566 0.9468
9.8400 3.2633 0.9501
9.8600 3.2700 0.9484
9.8800 3.2767 0.9412
9.9000 3.2834 0.9487
9.9200 3.2901 0.9482
9.9400 3.2967 0.9368
9.9600 3.3033 0.9502
9.9800 3.3099 0.9521
10.0000 3.3166 0.9410
10.0200 3.3234 0.9461
10.0400 3.3301 0.9481
10.0600 3.3367 0.9397
10.0800 3.3434 0.9493
10.1000 3.3500 0.9464
10.1200 3.3567 0.9404
10.1400 3.3633 0.9520
10.1600 3.3699 0.9469
10.1800 3.3766 0.9347
10.2000 3.3833 0.9562
10.2200 3.3900 0.9433
10.2400 3.3967 0.9378
10.2600 3.4034 0.9514
10.2800 3.4100 0.9453
10.3000 3.4167 0.9378
10.3200 3.4233 0.9513
10.3400 3.4299 0.9444
10.3600 3.4365 0.9358
10.3800 3.4433 0.9448
10.4000 3.4500 0.9418
10.4200 3.4567 0.9354
10.4400 3.4634 0.9450
10.4600 3.4700 0.9376
10.4800 3.4767 0.9399
10.5000 3.4833 0.9441
10.5200 3.4899 0.9404
10.5400 3.4966 0.9381
10.5600 3.5033 0.9437
10.5800 3.5100 0.9397
10.6000 3.5167 0.9335
10.6200 3.5234 0.9441
10.6400 3.5301 0.9342
10.6600 3.5367 0.9331
10.6800 3.5433 0.9405
10.7000 3.5499 0.9395
10.7200 3.5566 0.9361
10.7400 3.5633 0.9379
10.7600 3.5700 0.9382
10.7800 3.5767 0.9354
10.8000 3.5834 0.9342
10.8200 3.5901 0.9409
10.8400 3.5967 0.9284
10.8600 3.6033 0.9408
10.8800 3.6099 0.9358
10.9000 3.6166 0.9290
10.9200 3.6233 0.9371
10.9400 3.6300 0.9384
10.9600 3.6367 0.9279
10.9800 3.6434 0.9356
11.0000 3.6500 0.9416
11.0200 3.6567 0.9229
11.0400 3.6633 0.9382
11.0600 3.6699 0.9427
11.0800 3.6766 0.9238
11.1000 3.6833 0.9429
11.1200 3.6900 0.9339
11.1400 3.6967 0.9208
11.1600 3.7033 0.9436
11.1800 3.7100 0.9344
11.2000 3.7167 0.9227
11.2200 3.7233 0.9394
11.2400 3.7299 0.9336
11.2600 3.7366 0.9253
11.2800 3.7433 0.9431
11.3000 3.7500 0.9277
11.3200 3.7567 0.9247
11.3400 3.7634 0.9387
11.3600 3.7701 0.9306
11.3800 3.7768 0.9255
11.4000 3.7833 0.9383
11.4200 3.7899 0.9342
11.4400 3.7966 0.9226
11.4600 3.8033 0.9348
11.4800 3.8101 0.9336
11.5000 3.8167 0.9221
11.5200 3.8234 0.9375
11.5400 3.8300 0.9321
11.5600 3.8367 0.9192
11.5800 3.8433 0.9381
11.6000 3.8499 0.9318
11.6200 3.8566 0.9205
11.6400 3.8633 0.9410
11.6600 3.8700 0.9283
11.6800 3.8767 0.9182
11.7000 3.8833 0.9395
11.7200 3.8900 0.9296
11.7400 3.8967 0.9214
11.7600 3.9033 0.9356
11.7800 3.9099 0.9282
11.8000 3.9165 0.9265
11.8200 3.9232 0.9311
11.8400 3.9300 0.9274
11.8600 3.9367 0.9301
11.8800 3.9433 0.9278
11.9000 3.9500 0.9221
11.9200 3.9567 0.9313
11.9400 3.9633 0.9282
11.9600 3.9699 0.9225
11.9800 3.9766 0.9310
12.0000 3.9833 0.9235
12.0200 3.9900 0.9257
12.0400 3.9967 0.9304
12.0600 4.0034 0.9253
12.0800 4.0101 0.9260
12.1000 4.0167 0.9304
12.1200 4.0234 0.9209
12.1400 4.0300 0.9314
12.1600 4.0366 0.9279
12.1800 4.0433 0.9176
12.2000 4.0500 0.9275
12.2200 4.0567 0.9271
12.2400 4.0634 0.9181
12.2600 4.0701 0.9284
12.2800 4.0768 0.9236
12.3000 4.0833 0.9190
12.3200 4.0899 0.9271
12.3400 4.0965 0.9230
12.3600 4.1032 0.9251
12.3800 4.1100 0.9303
12.4000 4.1167 0.9136
12.4200 4.1234 0.9237
12.4400 4.1301 0.9285
12.4600 4.1367 0.9099
12.4800 4.1433 0.9277
12.5000 4.1499 0.9295
12.5200 4.1566 0.9108
12.5400 4.1633 0.9230
12.5600 4.1700 0.9262
12.5800 4.1767 0.9093
12.6000 4.1833 0.9293
12.6200 4.1900 0.9212
12.6400 4.1967 0.9108
12.6600 4.2034 0.9283
12.6800 4.2100 0.9236
12.7000 4.2166 0.9130
12.7200 4.2233 0.9239
12.7400 4.2300 0.9183
12.7600 4.2367 0.9139
12.7800 4.2434 0.9206
12.8000 4.2501 0.9199
12.8200 4.2568 0.9134
12.8400 4.2634 0.9184
12.8600 4.2700 0.9180
12.8800 4.2766 0.9201
12.9000 4.2833 0.9149
12.9200 4.2900 0.9214
12.9400 4.2967 0.9176
12.9600 4.3034 0.9115
12.9800 4.3101 0.9178
13.0000 4.3167 0.9210
13.0200 4.3233 0.9147
13.0400 4.3299 0.9171
13.0600 4.3366 0.9206
13.0800 4.3433 0.9097
13.1000 4.3500 0.9129
13.1200 4.3567 0.9209
13.1400 4.3633 0.9038
13.1600 4.3700 0.9186
13.1800 4.3767 0.9165
13.2000 4.3833 0.9089
13.2200 4.3899 0.9172
13.2400 4.3966 0.9135
13.2600 4.4032 0.9134
13.2800 4.4100 0.9160
13.3000 4.4166 0.9112
13.3200 4.4233 0.9116
13.3400 4.4300 0.9182
13.3600 4.4367 0.9078
13.3800 4.4433 0.9125
13.4000 4.4499 0.9141
13.4200 4.4566 0.9096
13.4400 4.4633 0.9160
13.4600 4.4700 0.9076
13.4800 4.4767 0.9085
13.5000 4.4834 0.9164
13.5200 4.4901 0.9019
13.5400 4.4967 0.9140
13.5600 4.5033 0.9156
13.5800 4.5100 0.9064
13.6000 4.5166 0.9129
13.6200 4.5233 0.9155
13.6400 4.5300 0.9014
13.6600 4.5367 0.9102
13.6800 4.5434 0.9099
13.7000 4.5500 0.9078
13.7200 4.5567 0.9153
13.7400 4.5633 0.9058
13.7600 4.5699 0.9079
13.7800 4.5765 0.9197
13.8000 4.5832 0.9043
13.8200 4.5900 0.9062
13.8400 4.5967 0.9151
13.8600 4.6033 0.9011
13.8800 4.6100 0.9086
13.9000 4.6167 0.9091
13.9200 4.6233 0.8978
13.9400 4.6299 0.9095
13.9600 4.6365 0.9146
13.9800 4.6432 0.8972
14.0000 4.6500 0.9092
14.0200 4.6567 0.9134
14.0400 4.6634 0.8972
14.0600 4.6701 0.9091
14.0800 4.6767 0.9128
14.1000 4.6833 0.8938
14.1200 4.6899 0.9078
14.1400 4.6966 0.9101
14.1600 4.7033 0.8968
14.1800 4.7100 0.9043
14.2000 4.7167 0.9124
14.2200 4.7234 0.8975
14.2400 4.7301 0.9071
14.2600 4.7367 0.9084
14.2800 4.7434 0.9013
14.3000 4.7500 0.9069
14.3200 4.7566 0.9068
14.3400 4.7633 0.8970
14.3600 4.7700 0.9005
14.3800 4.7767 0.9028
14.4000 4.7834 0.8975
14.4200 4.7901 0.9045
14.4400 4.7968 0.9027
14.4600 4.8034 0.8982
14.4800 4.8100 0.9024
14.5000 4.8166 0.9067
14.5200 4.8233 0.9019
14.5400 4.8300 0.9006
14.5600 4.8366 0.9013
14.5800 4.8433 0.9059
14.6000 4.8500 0.9026
14.6200 4.8567 0.8982
14.6400 4.8633 0.9022
14.6600 4.8699 0.9000
14.6800 4.8765 0.8965
14.7000 4.8832 0.9022
14.7200 4.8899 0.8974
14.7400 4.8966 0.9042
14.7600 4.9032 0.8984
14.7800 4.9100 0.8965
14.8000 4.9167 0.9054
14.8200 4.9234 0.9035
14.8400 4.9300 0.8904
14.8600 4.9366 0.9065
14.8800 4.9433 0.9006
14.9000 4.9500 0.8889
14.9200 4.9567 0.9093
14.9400 4.9634 0.9026
14.9600 4.9701 0.8804
14.9800 4.9768 0.9097
15.0000 4.9834 0.9068
15.0200 4.9900 0.8825
15.0400 4.9966 0.9048
15.0600 5.0033 0.9073
15.0800 5.0100 0.8853
15.1000 5.0167 0.9049
15.1200 5.0234 0.9009
15.1400 5.0301 0.8853
15.1600 5.0367 0.9065
15.1800 5.0434 0.8978
15.2000 5.0500 0.8876
15.2200 5.0566 0.9058
15.2400 5.0633 0.8983
15.2600 5.0700 0.8866
15.2800 5.0767 0.9085
15.3000 5.0834 0.8943
15.3200 5.0900 0.8910
15.3400 5.0967 0.9025
15.3600 5.1034 0.8957
15.3800 5.1100 0.8910
15.4000 5.1166 0.9020
15.4200 5.1232 0.8946
15.4400 5.1299 0.8874
15.4600 5.1366 0.8981
15.4800 5.1433 0.8965
15.5000 5.1500 0.8902
15.5200 5.1566 0.8961
15.5400 5.1633 0.8955
15.5600 5.1698 0.8921
15.5800 5.1765 0.8951
15.6000 5.1832 0.9038
15.6200 5.1900 0.8887
15.6400 5.1967 0.8867
15.6600 5.2034 0.8992
15.6800 5.2101 0.8921
15.7000 5.2168 0.8903
15.7200 5.2234 0.8970
15.7400 5.2300 0.8871
15.7600 5.2367 0.8943
15.7800 5.2433 0.8991
15.8000 5.2500 0.8840
15.8200 5.2567 0.8928
15.8400 5.2634 0.8955
15.8600 5.2701 0.8819
15.8800 5.2768 0.8936
15.9000 5.2834 0.8967
15.9200 5.2900 0.8798
15.9400 5.2966 0.8929
15.9600 5.3032 0.8961
15.9800 5.3099 0.8811
16.0000 5.3167 0.8937
16.0200 5.3233 0.8959
16.0400 5.3300 0.8822
16.0600 5.3367 0.8945
16.0800 5.3433 0.8914
16.1000 5.3500 0.8842
16.1200 5.3566 0.8906
16.1400 5.3633 0.8928
16.1600 5.3700 0.8844
16.1800 5.3767 0.8876
16.2000 5.3834 0.8849
16.2200 5.3900 0.8891
16.2400 5.3967 0.8896
16.2600 5.4034 0.8872
16.2800 5.4100 0.8864
16.3000 5.4166 0.8882
16.3200 5.4233 0.8857
16.3400 5.4299 0.8814
16.3600 5.4366 0.8921
16.3800 5.4433 0.8944
16.4000 5.4500 0.8786
16.4200 5.4568 0.8860
16.4400 5.4635 0.8917
16.4600 5.4701 0.8815
16.4800 5.4766 0.8879
16.5000 5.4833 0.8938
16.5200 5.4900 0.8801
16.5400 5.4967 0.8827
16.5600 5.5034 0.8940
16.5800 5.5101 0.8786
16.6000 5.5167 0.8900
16.6200 5.5234 0.8864
16.6400 5.5300 0.8787
16.6600 5.5366 0.8897
16.6800 5.5432 0.8903
16.7000 5.5500 0.8790
16.7200 5.5567 0.8880
16.7400 5.5633 0.8863
16.7600 5.5700 0.8774
16.7800 5.5767 0.8892
16.8000 5.5834 0.8863
16.8200 5.5900 0.8774
16.8400 5.5966 0.8874
16.8600 5.6032 0.8824
16.8800 5.6099 0.8866
16.9000 5.6166 0.8852
16.9200 5.6233 0.8821
16.9400 5.6300 0.8850
16.9600 5.6367 0.8837
16.9800 5.6434 0.8800
17.0000 5.6500 0.8866
17.0200 5.6566 0.8820
17.0400 5.6632 0.8876
17.0600 5.6700 0.8838
17.0800 5.6767 0.8800
17.1000 5.6834 0.8831
17.1200 5.6901 0.8806
17.1400 5.6967 0.8773
17.1600 5.7033 0.8855
17.1800 5.7099 0.8857
17.2000 5.7165 0.8796
17.2200 5.7233 0.8852
17.2400 5.7300 0.8812
17.2600 5.7367 0.8789
17.2800 5.7434 0.8830
17.3000 5.7501 0.8782
17.3200 5.7567 0.8768
17.3400 5.7634 0.8836
17.3600 5.7700 0.8733
17.3800 5.7766 0.8822
17.4000 5.7833 0.8846
17.4200 5.7899 0.8750
17.4400 5.7966 0.8735
17.4600 5.8033 0.8842
17.4800 5.8100 0.8777
17.5000 5.8167 0.8768
17.5200 5.8234 0.8788
17.5400 5.8300 0.8769
17.5600 5.8366 0.8755
17.5800 5.8432 0.8835
17.6000 5.8499 0.8769
17.6200 5.8566 0.8716
17.6400 5.8633 0.8797
17.6600 5.8700 0.8743
17.6800 5.8767 0.8749
17.7000 5.8833 0.8745
17.7200 5.8900 0.8749
17.7400 5.8966 0.8729
17.7600 5.9033 0.8744
17.7800 5.9100 0.8789
17.8000 5.9167 0.8731
17.8200 5.9234 0.8744
17.8400 5.9300 0.8747
17.8600 5.9368 0.8690
17.8800 5.9434 0.8763
17.9000 5.9501 0.8749
17.9200 5.9567 0.8672
17.9400 5.9633 0.8729
17.9600 5.9699 0.8792
17.9800 5.9766 0.8627
18.0000 5.9833 0.8771
18.0200 5.9901 0.8740
18.0400 5.9968 0.8655
18.0600 6.0034 0.8769
18.0800 6.0100 0.8749
18.1000 6.0166 0.8666
18.1200 6.0232 0.8797
18.1400 6.0299 0.8719
18.1600 6.0367 0.8609
18.1800 6.0434 0.8751
18.2000 6.0500 0.8751
18.2200 6.0567 0.8601
18.2400 6.0634 0.8757
18.2600 6.0700 0.8721
18.2800 6.0766 0.8633
18.3000 6.0833 0.8725
18.3200 6.0899 0.8740
18.3400 6.0966 0.8659
18.3600 6.1033 0.8692
18.3800 6.1100 0.8685
18.4000 6.1167 0.8641
18.4200 6.1234 0.8672
18.4400 6.1300 0.8734
18.4600 6.1366 0.8635
18.4800 6.1433 0.8644
18.5000 6.1499 0.8747
18.5200 6.1567 0.8645
18.5400 6.1634 0.8624
18.5600 6.1700 0.8758
18.5800 6.1767 0.8643
18.6000 6.1834 0.8565
18.6200 6.1900 0.8716
18.6400 6.1966 0.8593
18.6600 6.2033 0.8645
18.6800 6.2100 0.8727
18.7000 6.2167 0.8562
18.7200 6.2234 0.8610
18.7400 6.2300 0.8751
18.7600 6.2367 0.8539
18.7800 6.2433 0.8613
18.8000 6.2500 0.8727
18.8200 6.2567 0.8581
18.8400 6.2633 0.8568
18.8600 6.2700 0.8728
18.8800 6.2767 0.8540
18.9000 6.2833 0.8594
18.9200 6.2900 0.8666
18.9400 6.2967 0.8540
18.9600 6.3034 0.8635
18.9800 6.3100 0.8667
19.0000 6.3166 0.8560
19.0200 6.3232 0.8581
19.0400 6.3299 0.8674
19.0600 6.3366 0.8557
19.0800 6.3433 0.8553
19.1000 6.3500 0.8684
19.1200 6.3567 0.8541
19.1400 6.3634 0.8547
19.1600 6.3700 0.8645
19.1800 6.3766 0.8527
19.2000 6.3833 0.8589
19.2200 6.3900 0.8623
19.2400 6.3967 0.8549
19.2600 6.4034 0.8540
19.2800 6.4101 0.8622
19.3000 6.4167 0.8565
19.3200 6.4234 0.8557
19.3400 6.4300 0.8588
19.3600 6.4366 0.8554
19.3800 6.4433 0.8536
19.4000 6.4499 0.8643
19.4200 6.4566 0.8506
19.4400 6.4633 0.8488
19.4600 6.4700 0.8625
19.4800 6.4767 0.8528
19.5000 6.4834 0.8456
19.5200 6.4901 0.8650
19.5400 6.4966 0.8494
19.5600 6.5032 0.8485
19.5800 6.5099 0.8651
19.6000 6.5166 0.8474
19.6200 6.5233 0.8470
19.6400 6.5300 0.8651
19.6600 6.5367 0.8483
19.6800 6.5434 0.8484
19.7000 6.5500 0.8609
19.7200 6.5566 0.8472
19.7400 6.5632 0.8525
19.7600 6.5699 0.8604
19.7800 6.5766 0.8478
19.8000 6.5833 0.8516
19.8200 6.5900 0.8569
19.8400 6.5967 0.8460
19.8600 6.6033 0.8528
19.8800 6.6100 0.8548
19.9000 6.6166 0.8495
19.9200 6.6233 0.8504
19.9400 6.6299 0.8556
19.9600 6.6366 0.8497
19.9800 6.6433 0.8509
20.0000 6.6500 0.8546
20.0200 6.6567 0.8533
20.0400 6.6634 0.8440
20.0600 6.6701 0.8523
20.0800 6.6767 0.8534
20.1000 6.6833 0.8449
20.1200 6.6900 0.8522
20.1400 6.6967 0.8521
20.1600 6.7034 0.8407
20.1800 6.7101 0.8572
20.2000 6.7167 0.8497
20.2200 6.7234 0.8441
20.2400 6.7300 0.8573
20.2600 6.7366 0.8499
20.2800 6.7432 0.8422
20.3000 6.7499 0.8563
20.3200 6.7566 0.8511
20.3400 6.7633 0.8435
20.3600 6.7700 0.8533
20.3800 6.7767 0.8465
20.4000 6.7833 0.8454
20.4200 6.7900 0.8532
20.4400 6.7966 0.8478
20.4600 6.8032 0.8422
20.4800 6.8099 0.8577
20.5000 6.8166 0.8499
20.5200 6.8233 0.8438
20.5400 6.8300 0.8540
20.5600 6.8367 0.8482
20.5800 6.8434 0.8442
20.6000 6.8501 0.8518
20.6200 6.8567 0.8450
20.6400 6.8633 0.8472
20.6600 6.8699 0.8546
20.6800 6.8766 0.8451
20.7000 6.8834 0.8422
20.7200 6.8901 0.8553
20.7400 6.8967 0.8442
20.7600 6.9034 0.8408
20.7800 6.9100 0.8498
20.8000 6.9166 0.8508
20.8200 6.9233 0.8425
20.8400 6.9299 0.8521
20.8600 6.9366 0.8458
20.8800 6.9434 0.8419
20.9000 6.9500 0.8486
20.9200 6.9567 0.8451
20.9400 6.9634 0.8448
20.9600 6.9701 0.8486
20.9800 6.9767 0.8469
21.0000 6.9833 0.8446
21.0200 6.9900 0.8473
21.0400 6.9966 0.8504
21.0600 7.0033 0.8409
21.0800 7.0100 0.8451
21.1000 7.0167 0.8520
21.1200 7.0234 0.8404
21.1400 7.0301 0.8462
21.1600 7.0367 0.8480
21.1800 7.0432 0.8444
21.2000 7.0499 0.8435
21.2200 7.0566 0.8499
21.2400 7.0633 0.8408
21.2600 7.0700 0.8421
21.2800 7.0767 0.8473
21.3000 7.0833 0.8415
21.3200 7.0900 0.8426
21.3400 7.0966 0.8472
21.3600 7.1032 0.8415
21.3800 7.1099 0.8436
21.4000 7.1166 0.8467
21.4200 7.1233 0.8407
21.4400 7.1300 0.8390
21.4600 7.1367 0.8476
21.4800 7.1434 0.8407
21.5000 7.1501 0.8392
21.5200 7.1567 0.8443
21.5400 7.1633 0.8350
21.5600 7.1699 0.8394
21.5800 7.1766 0.8482
21.6000 7.1833 0.8379
21.6200 7.1900 0.8380
21.6400 7.1967 0.8449
21.6600 7.2034 0.8354
21.6800 7.2101 0.8381
21.7000 7.2167 0.8446
21.7200 7.2233 0.8377
21.7400 7.2299 0.8394
21.7600 7.2366 0.8433
21.7800 7.2434 0.8311
21.8000 7.2500 0.8424
21.8200 7.2567 0.8434
21.8400 7.2634 0.8322
21.8600 7.2700 0.8378
21.8800 7.2766 0.8384
21.9000 7.2832 0.8335
21.9200 7.2899 0.8428
21.9400 7.2966 0.8350
21.9600 7.3033 0.8348
21.9800 7.3100 0.8393
22.0000 7.3167 0.8368
22.0200 7.3233 0.8339
22.0400 7.3300 0.8367
22.0600 7.3367 0.8339
22.0800 7.3433 0.8301
22.1000 7.3499 0.8396
22.1200 7.3566 0.8343
22.1400 7.3633 0.8306
22.1600 7.3700 0.8358
22.1800 7.3767 0.8347
22.2000 7.3834 0.8304
22.2200 7.3901 0.8332
22.2400 7.3967 0.8353
22.2600 7.4033 0.8336
22.2800 7.4099 0.8333
22.3000 7.4167 0.8322
22.3200 7.4234 0.8352
22.3400 7.4301 0.8301
22.3600 7.4367 0.8297
22.3800 7.4434 0.8374
22.4000 7.4500 0.8266
22.4200 7.4566 0.8302
22.4400 7.4633 0.8344
22.4600 7.4699 0.8253
22.4800 7.4766 0.8316
22.5000 7.4833 0.8378
22.5200 7.4900 0.8226
22.5400 7.4967 0.8295
22.5600 7.5033 0.8392
22.5800 7.5100 0.8227
22.6000 7.5167 0.8272
22.6200 7.5233 0.8401
22.6400 7.5299 0.8175
22.6600 7.5366 0.8318
22.6800 7.5433 0.8389
22.7000 7.5500 0.8201
22.7200 7.5567 0.8317
22.7400 7.5634 0.8370
22.7600 7.5701 0.8149
22.7800 7.5767 0.8308
22.8000 7.5833 0.8393
22.8200 7.5899 0.8186
22.8400 7.5966 0.8337
22.8600 7.6033 0.8340
22.8800 7.6100 0.8174
22.9000 7.6167 0.8353
22.9200 7.6234 0.8355
22.9400 7.6301 0.8196
22.9600 7.6367 0.8306
22.9800 7.6433 0.8363
23.0000 7.6499 0.8209
23.0200 7.6566 0.8336
23.0400 7.6633 0.8324
23.0600 7.6700 0.8173
23.0800 7.6767 0.8307
23.1000 7.6834 0.8300
23.1200 7.6901 0.8222
23.1400 7.6967 0.8280
23.1600 7.7033 0.8294
23.1800 7.7099 0.8231
23.2000 7.7166 0.8287
23.2200 7.7233 0.8307
23.2400 7.7300 0.8230
23.2600 7.7367 0.8267
23.2800 7.7434 0.8312
23.3000 7.7501 0.8179
23.3200 7.7567 0.8267
23.3400 7.7633 0.8326
23.3600 7.7699 0.8205
23.3800 7.7766 0.8219
23.4000 7.7833 0.8298
23.4200 7.7899 0.8229
23.4400 7.7966 0.8264
23.4600 7.8033 0.8244
23.4800 7.8100 0.8209
23.5000 7.8167 0.8188
23.5200 7.8233 0.8254
23.5400 7.8299 0.8244
23.5600 7.8366 0.8218
23.5800 7.8433 0.8236
23.6000 7.8500 0.8175
23.6200 7.8567 0.8169
23.6400 7.8634 0.8269
23.6600 7.8701 0.8202
23.6800 7.8767 0.8153
23.7000 7.8833 0.8239
23.7200 7.8899 0.8197
23.7400 7.8966 0.8156
23.7600 7.9033 0.8238
23.7800 7.9100 0.8158
23.8000 7.9167 0.8101
23.8200 7.9234 0.8267
23.8400 7.9301 0.8094
23.8600 7.9367 0.8146
23.8800 7.9433 0.8279
23.9000 7.9499 0.8107
23.9200 7.9566 0.8114
23.9400 7.9633 0.8271
23.9600 7.9700 0.8066
23.9800 7.9767 0.8123
24.0000 7.9834 0.8254
24.0200 7.9901 0.8058
24.0400 7.9967 0.8134
24.0600 8.0033 0.8259
24.0800 8.0099 0.8042
24.1000 8.0166 0.8143
24.1200 8.0233 0.8199
24.1400 8.0300 0.8070
24.1600 8.0367 0.8145
24.1800 8.0433 0.8175
24.2000 8.0500 0.8080
24.2200 8.0567 0.8113
24.2400 8.0633 0.8141
24.2600 8.0699 0.8098
24.2800 8.0766 0.8163
24.3000 8.0833 0.8141
24.3200 8.0900 0.8032
24.3400 8.0967 0.8138
24.3600 8.1034 0.8175
24.3800 8.1101 0.8051
24.4000 8.1167 0.8079
24.4200 8.1233 0.8154
24.4400 8.1299 0.8146
24.4600 8.1366 0.8077
24.4800 8.1434 0.8187
24.5000 8.1501 0.8095
24.5200 8.1567 0.8058
24.5400 8.1634 0.8150
24.5600 8.1701 0.8135
24.5800 8.1767 0.8031
24.6000 8.1833 0.8157
24.6200 8.1899 0.8141
24.6400 8.1966 0.8026
24.6600 8.2033 0.8164
24.6800 8.2100 0.8123
24.7000 8.2167 0.8020
24.7200 8.2233 0.8165
24.7400 8.2300 0.8081
24.7600 8.2367 0.8041
24.7800 8.2433 0.8097
24.8000 8.2499 0.8090
24.8200 8.2566 0.8062
24.8400 8.2633 0.8154
24.8600 8.2700 0.8054
24.8800 8.2767 0.8000
24.9000 8.2834 0.8153
24.9200 8.2900 0.8074
24.9400 8.2967 0.8009
24.9600 8.3033 0.8133
24.9800 8.3099 0.8097
25.0000 8.3166 0.8041
25.0200 8.3233 0.8124
25.0400 8.3300 0.8067
25.0600 8.3367 0.8078
25.0800 8.3434 0.8105
25.1000 8.3501 0.8003
25.1200 8.3567 0.8016
25.1400 8.3633 0.8115
25.1600 8.3699 0.8065
25.1800 8.3766 0.8017
25.2000 8.3833 0.8083
25.2200 8.3900 0.8077
25.2400 8.3967 0.7988
25.2600 8.4034 0.8077
25.2800 8.4101 0.8047
25.3000 8.4167 0.8018
25.3200 8.4233 0.8054
25.3400 8.4299 0.8041
25.3600 8.4366 0.7995
25.3800 8.4433 0.8083
25.4000 8.4500 0.8020
25.4200 8.4567 0.7994
25.4400 8.4634 0.8054
25.4600 8.4700 0.8042
25.4800 8.4767 0.7935
25.5000 8.4833 0.8069
25.5200 8.4899 0.8062
25.5400 8.4965 0.7965
25.5600 8.5032 0.8045
25.5800 8.5099 0.8047
25.6000 8.5166 0.7992
25.6200 8.5233 0.8021
25.6400 8.5300 0.8009
25.6600 8.5367 0.7972
25.6800 8.5433 0.8004
25.7000 8.5499 0.8031
25.7200 8.5566 0.8004
25.7400 8.5633 0.7960
25.7600 8.5700 0.8010
25.7800 8.5767 0.7984
25.8000 8.5834 0.7976
25.8200 8.5901 0.8031
25.8400 8.5968 0.7974
25.8600 8.6033 0.7950
25.8800 8.6099 0.8063
25.9000 8.6166 0.7942
25.9200 8.6233 0.7985
25.9400 8.6301 0.8028
25.9600 8.6367 0.7944
25.9800 8.6434 0.7977
26.0000 8.6501 0.8029
26.0200 8.6567 0.7936
26.0400 8.6633 0.8024
26.0600 8.6699 0.7993
26.0800 8.6766 0.7919
26.1000 8.6833 0.8023
26.1200 8.6900 0.8020
26.1400 8.6967 0.7918
26.1600 8.7033 0.8017
26.1800 8.7100 0.8022
26.2000 8.7167 0.7913
26.2200 8.7233 0.7943
26.2400 8.7299 0.8010
26.2600 8.7365 0.7977
26.2800 8.7432 0.7929
26.3000 8.7500 0.7928
26.3200 8.7566 0.7951
26.3400 8.7633 0.7943
26.3600 8.7700 0.7952
26.3800 8.7767 0.7911
26.4000 8.7833 0.7909
26.4200 8.7899 0.8002
26.4400 8.7966 0.7882
26.4600 8.8033 0.7908
26.4800 8.8100 0.7994
26.5000 8.8167 0.7929
26.5200 8.8234 0.7888
26.5400 8.8301 0.7966
26.5600 8.8368 0.7899
26.5800 8.8434 0.7900
26.6000 8.8500 0.7972
26.6200 8.8566 0.7924
26.6400 8.8633 0.7880
26.6600 8.8700 0.7974
26.6800 8.8767 0.7894
26.7000 8.8834 0.7842
26.7200 8.8901 0.7949
26.7400 8.8968 0.7910
26.7600 8.9034 0.7792
26.7800 8.9099 0.7965
26.8000 8.9166 0.7924
26.8200 8.9233 0.7847
26.8400 8.9300 0.7910
26.8600 8.9367 0.7887
26.8800 8.9434 0.7840
26.9000 8.9500 0.7947
26.9200 8.9567 0.7871
26.9400 8.9633 0.7801
26.9600 8.9699 0.7946
26.9800 8.9765 0.7921
27.0000 8.9832 0.7798
27.0200 8.9900 0.7889
27.0400 8.9967 0.7894
27.0600 9.0033 0.7840
27.0800 9.0100 0.7881
27.1000 9.0167 0.7856
27.1200 9.0234 0.7867
27.1400 9.0300 0.7869
27.1600 9.0366 0.7883
27.1800 9.0433 0.7828
27.2000 9.0500 0.7857
27.2200 9.0567 0.7859
27.2400 9.0634 0.7833
27.2600 9.0701 0.7849
27.2800 9.0768 0.7902
27.3000 9.0834 0.7786
27.3200 9.0900 0.7812
27.3400 9.0966 0.7900
27.3600 9.1033 0.7810
27.3800 9.1100 0.7799
27.4000 9.1167 0.7882
27.4200 9.1234 0.7764
27.4400 9.1301 0.7819
27.4600 9.1367 0.7883
27.4800 9.1434 0.7737
27.5000 9.1500 0.7808
27.5200 9.1566 0.7946
27.5400 9.1633 0.7735
27.5600 9.1700 0.7814
27.5800 9.1767 0.7915
27.6000 9.1833 0.7737
27.6200 9.1900 0.7827
27.6400 9.1967 0.7870
27.6600 9.2034 0.7742
27.6800 9.2099 0.7864
27.7000 9.2165 0.7853
27.7200 9.2232 0.7693
27.7400 9.2299 0.7829
27.7600 9.2366 0.7873
27.7800 9.2433 0.7682
27.8000 9.2500 0.7810
27.8200 9.2567 0.7839
27.8400 9.2634 0.7673
27.8600 9.2699 0.7825
27.8800 9.2766 0.7820
27.9000 9.2833 0.7739
27.9200 9.2900 0.7767
27.9400 9.2967 0.7809
27.9600 9.3034 0.7711
27.9800 9.3101 0.7799
28.0000 9.3168 0.7776
28.0200 9.3234 0.7704
28.0400 9.3300 0.7765
28.0600 9.3366 0.7788
28.0800 9.3433 0.7757
28.1000 9.3500 0.7742
28.1200 9.3567 0.7785
28.1400 9.3634 0.7748
28.1600 9.3700 0.7711
28.1800 9.3767 0.7775
28.2000 9.3834 0.7708
28.2200 9.3899 0.7727
28.2400 9.3965 0.7796
28.2600 9.4032 0.7708
28.2800 9.4099 0.7723
28.3000 9.4166 0.7808
28.3200 9.4233 0.7737
28.3400 9.4300 0.7703
28.3600 9.4367 0.7799
28.3800 9.4434 0.7688
28.4000 9.4500 0.7720
28.4200 9.4566 0.7786
28.4400 9.4632 0.7677
28.4600 9.4700 0.7689
28.4800 9.4767 0.7800
28.5000 9.4833 0.7663
28.5200 9.4900 0.7686
28.5400 9.4967 0.7816
28.5600 9.5034 0.7661
28.5800 9.5100 0.7658
28.6000 9.5166 0.7811
28.6200 9.5233 0.7659
28.6400 9.5300 0.7705
28.6600 9.5367 0.7778
28.6800 9.5434 0.7686
28.7000 9.5500 0.7703
28.7200 9.5567 0.7764
28.7400 9.5634 0.7611
28.7600 9.5700 0.7701
28.7800 9.5766 0.7779
28.8000 9.5833 0.7671
28.8200 9.5900 0.7679
28.8400 9.5967 0.7772
28.8600 9.6034 0.7663
28.8800 9.6101 0.7677
28.9000 9.6168 0.7758
28.9200 9.6234 0.7644
28.9400 9.6300 0.7666
28.9600 9.6366 0.7746
28.9800 9.6432 0.7685
29.0000 9.6499 0.7639
29.0200 9.6566 0.7759
29.0400 9.6633 0.7701
29.0600 9.6700 0.7645
29.0800 9.6767 0.7708
29.1000 9.6834 0.7688
29.1200 9.6900 0.7632
29.1400 9.6966 0.7744
29.1600 9.7032 0.7680
29.1800 9.7099 0.7637
29.2000 9.7166 0.7642
29.2200 9.7233 0.7662
29.2400 9.7300 0.7655
29.2600 9.7367 0.7691
29.2800 9.7434 0.7628
29.3000 9.7500 0.7643
29.3200 9.7566 0.7707
29.3400 9.7633 0.7597
29.3600 9.7700 0.7620
29.3800 9.7767 0.7740
29.4000 9.7834 0.7583
29.4200 9.7901 0.7637
29.4400 9.7968 0.7697
29.4600 9.8034 0.7558
29.4800 9.8100 0.7656
29.5000 9.8166 0.7684
29.5200 9.8232 0.7628
29.5400 9.8300 0.7634
29.5600 9.8367 0.7646
29.5800 9.8434 0.7613
29.6000 9.8501 0.7618
29.6200 9.8567 0.7652
29.6400 9.8634 0.7620
29.6600 9.8700 0.7604
29.6800 9.8766 0.7643
29.7000 9.8833 0.7616
29.7200 9.8900 0.7620
29.7400 9.8967 0.7636
29.7600 9.9033 0.7629
29.7800 9.9100 0.7564
29.8000 9.9167 0.7667
29.8200 9.9234 0.7591
29.8400 9.9300 0.7604
29.8600 9.9365 0.7667
29.8800 9.9432 0.7633
29.9000 9.9499 0.7588
29.9200 9.9566 0.7641
29.9400 9.9633 0.7578
29.9600 9.9700 0.7597
29.9800 9.9767 0.7631
30.0000 9.9833 0.7573
30.0200 9.9899 0.7583
30.0400 9.9966 0.7675
30.0600 10.0033 0.7583
30.0800 10.0100 0.7590
30.1000 10.0167 0.7608
30.1200 10.0234 0.7581
30.1400 10.0300 0.7612
30.1600 10.0367 0.7629
30.1800 10.0434 0.7535
30.2000 10.0501 0.7569
30.2200 10.0567 0.7600
30.2400 10.0633 0.7561
30.2600 10.0700 0.7565
30.2800 10.0767 0.7573
30.3000 10.0834 0.7558
30.3200 10.0901 0.7532
30.3400 10.0967 0.7622
30.3600 10.1034 0.7550
30.3800 10.1100 0.7540
30.4000 10.1166 0.7593
30.4200 10.1232 0.7578
30.4400 10.1299 0.7528
30.4600 10.1366 0.7572
30.4800 10.1433 0.7584
30.5000 10.1500 0.7540
30.5200 10.1567 0.7514
30.5400 10.1634 0.7610
30.5600 10.1699 0.7512
30.5800 10.1765 0.7543
30.6000 10.1832 0.7631
30.6200 10.1899 0.7518
30.6400 10.1967 0.7485
30.6600 10.2034 0.7665
30.6800 10.2100 0.7496
30.7000 10.2167 0.7495
30.7200 10.2234 0.7631
30.7400 10.2300 0.7488
30.7600 10.2366 0.7516
30.7800 10.2433 0.7614
30.8000 10.2500 0.7531
30.8200 10.2567 0.7504
30.8400 10.2634 0.7597
30.8600 10.2700 0.7488
30.8800 10.2767 0.7484
30.9000 10.2834 0.7594
30.9200 10.2900 0.7472
30.9400 10.2966 0.7481
30.9600 10.3032 0.7624
30.9800 10.3099 0.7481
31.0000 10.3167 0.7480
31.0200 10.3234 0.7596
31.0400 10.3301 0.7460
31.0600 10.3367 0.7456
31.0800 10.3434 0.7591
31.1000 10.3500 0.7456
31.1200 10.3566 0.7517
31.1400 10.3632 0.7601
31.1600 10.3699 0.7460
31.1800 10.3767 0.7451
31.2000 10.3833 0.7547
31.2200 10.3900 0.7466
31.2400 10.3967 0.7459
31.2600 10.4034 0.7484
31.2800 10.4100 0.7480
31.3000 10.4166 0.7468
31.3200 10.4232 0.7522
31.3400 10.4299 0.7512
31.3600 10.4366 0.7452
31.3800 10.4433 0.7478
31.4000 10.4500 0.7495
31.4200 10.4567 0.7429
31.4400 10.4634 0.7510
31.4600 10.4700 0.7452
31.4800 10.4766 0.7389
31.5000 10.4832 0.7513
31.5200 10.4899 0.7486
31.5400 10.4967 0.7372
31.5600 10.5034 0.7499
31.5800 10.5101 0.7494
31.6000 10.5168 0.7370
31.6200 10.5234 0.7476
31.6400 10.5300 0.7413
31.6600 10.5366 0.7389
31.6800 10.5433 0.7481
31.7000 10.5500 0.7429
31.7200 10.5567 0.7374
31.7400 10.5634 0.7465
31.7600 10.5701 0.7363
31.7800 10.5767 0.7406
31.8000 10.5834 0.7440
31.8200 10.5900 0.7372
31.8400 10.5966 0.7371
31.8600 10.6032 0.7440
31.8800 10.6099 0.7370
31.9000 10.6166 0.7417
31.9200 10.6233 0.7387
31.9400 10.6300 0.7406
31.9600 10.6367 0.7385
31.9800 10.6434 0.7330
32.0000 10.6500 0.7415
32.0200 10.6566 0.7408
32.0400 10.6632 0.7369
32.0600 10.6699 0.7423
32.0800 10.6766 0.7379
32.1000 10.6833 0.7330
32.1200 10.6900 0.7453
32.1400 10.6967 0.7348
32.1600 10.7034 0.7283
32.1800 10.7100 0.7456
32.2000 10.7166 0.7328
32.2200 10.7233 0.7307
32.2400 10.7300 0.7482
32.2600 10.7367 0.7322
32.2800 10.7434 0.7310
32.3000 10.7500 0.7457
32.3200 10.7567 0.7338
32.3400 10.7634 0.7300
32.3600 10.7701 0.7457
32.3800 10.7767 0.7269
32.4000 10.7833 0.7341
32.4200 10.7900 0.7487
32.4400 10.7966 0.7231
32.4600 10.8033 0.7352
32.4800 10.8100 0.7485
32.5000 10.8167 0.7196
32.5200 10.8234 0.7326
32.5400 10.8300 0.7435
32.5600 10.8366 0.7242
32.5800 10.8432 0.7378
32.6000 10.8499 0.7456
32.6200 10.8566 0.7148
32.6400 10.8633 0.7387
32.6600 10.8700 0.7414
32.6800 10.8767 0.7194
32.7000 10.8834 0.7358
32.7200 10.8900 0.7384
32.7400 10.8966 0.7247
32.7600 10.9032 0.7322
32.7800 10.9099 0.7354
32.8000 10.9166 0.7247
32.8200 10.9233 0.7295
32.8400 10.9300 0.7351
32.8600 10.9367 0.7283
32.8800 10.9434 0.7338
32.9000 10.9500 0.7317
32.9200 10.9566 0.7240
32.9400 10.9633 0.7334
32.9600 10.9699 0.7330
32.9800 10.9766 0.7260
33.0000 10.9834 0.7291
33.0200 10.9900 0.7374
33.0400 10.9967 0.7213
33.0600 11.0034 0.7278
33.0800 11.0100 0.7341
33.1000 11.0166 0.7266
33.1200 11.0232 0.7278
33.1400 11.0299 0.7355
33.1600 11.0367 0.7183
33.1800 11.0434 0.7259
33.2000 11.0501 0.7366
33.2200 11.0567 0.7209
33.2400 11.0634 0.7269
33.2600 11.0700 0.7347
33.2800 11.0766 0.7190
33.3000 11.0832 0.7267
33.3200 11.0899 0.7318
33.3400 11.0966 0.7207
33.3600 11.1033 0.7261
33.3800 11.1100 0.7328
33.4000 11.1167 0.7193
33.4200 11.1234 0.7235
33.4400 11.1300 0.7311
33.4600 11.1366 0.7162
33.4800 11.1432 0.7265
33.5000 11.1499 0.7305
33.5200 11.1566 0.7158
33.5400 11.1633 0.7265
33.5600 11.1700 0.7310
33.5800 11.1767 0.7152
33.6000 11.1834 0.7307
33.6200 11.1900 0.7262
33.6400 11.1966 0.7196
33.6600 11.2033 0.7291
33.6800 11.2100 0.7222
33.7000 11.2167 0.7176
33.7200 11.2234 0.7277
33.7400 11.2301 0.7219
33.7600 11.2367 0.7219
33.7800 11.2434 0.7227
33.8000 11.2500 0.7182
33.8200 11.2566 0.7233
33.8400 11.2633 0.7280
33.8600 11.2699 0.7207
33.8800 11.2766 0.7215
33.9000 11.2833 0.7197
33.9200 11.2900 0.7196
33.9400 11.2967 0.7291
33.9600 11.3034 0.7165
33.9800 11.3100 0.7178
34.0000 11.3167 0.7334
34.0200 11.3233 0.7107
34.0400 11.3299 0.7178
34.0600 11.3366 0.7341
34.0800 11.3433 0.7094
34.1000 11.3500 0.7192
34.1200 11.3567 0.7302
34.1400 11.3634 0.7109
34.1600 11.3701 0.7204
34.1800 11.3766 0.7275
34.2000 11.3832 0.7084
34.2200 11.3899 0.7268
34.2400 11.3966 0.7205
34.2600 11.4033 0.7062
34.2800 11.4100 0.7301
34.3000 11.4166 0.7211
34.3200 11.4233 0.7057
34.3400 11.4300 0.7278
34.3600 11.4366 0.7191
34.3800 11.4432 0.7121
34.4000 11.4499 0.7262
34.4200 11.4567 0.7129
34.4400 11.4634 0.7118
34.4600 11.4701 0.7261
34.4800 11.4767 0.7092
34.5000 11.4834 0.7138
34.5200 11.4901 0.7243
34.5400 11.4967 0.7069
34.5600 11.5033 0.7186
34.5800 11.5099 0.7235
34.6000 11.5166 0.7078
34.6200 11.5234 0.7199
34.6400 11.5300 0.7147
34.6600 11.5367 0.7097
34.6800 11.5434 0.7188
34.7000 11.5500 0.7130
34.7200 11.5566 0.7137
34.7400 11.5632 0.7183
34.7600 11.5699 0.7117
34.7800 11.5766 0.7123
34.8000 11.5833 0.7149
34.8200 11.5900 0.7079
34.8400 11.5966 0.7173
34.8600 11.6033 0.7146
34.8800 11.6100 0.7060
34.9000 11.6166 0.7121
34.9200 11.6232 0.7151
34.9400 11.6299 0.7104
34.9600 11.6366 0.7178
34.9800 11.6433 0.7081
35.0000 11.6500 0.7041
35.0200 11.6567 0.7165
35.0400 11.6634 0.7098
35.0600 11.6701 0.7031
35.0800 11.6767 0.7143
35.1000 11.6833 0.7107
35.1200 11.6899 0.7085
35.1400 11.6966 0.7117
35.1600 11.7033 0.7090
35.1800 11.7100 0.7067
35.2000 11.7167 0.7122
35.2200 11.7234 0.7084
35.2400 11.7301 0.7062
35.2600 11.7367 0.7137
35.2800 11.7433 0.7049
35.3000 11.7499 0.7034
35.3200 11.7566 0.7139
35.3400 11.7633 0.7049
35.3600 11.7700 0.6998
35.3800 11.7767 0.7114
35.4000 11.7834 0.7058
35.4200 11.7901 0.6996
35.4400 11.7967 0.7123
35.4600 11.8033 0.7057
35.4800 11.8100 0.7011
35.5000 11.8166 0.7118
35.5200 11.8233 0.7030
35.5400 11.8300 0.6978
35.5600 11.8367 0.7112
35.5800 11.8434 0.7055
35.6000 11.8501 0.6963
35.6200 11.8567 0.7100
35.6400 11.8632 0.7049
35.6600 11.8699 0.7000
35.6800 11.8766 0.7099
35.7000 11.8833 0.7013
35.7200 11.8900 0.6985
35.7400 11.8967 0.7106
35.7600 11.9034 0.6989
35.7800 11.9100 0.6958
35.8000 11.9166 0.7052
35.8200 11.9233 0.7033
35.8400 11.9299 0.6965
35.8600 11.9366 0.7097
35.8800 11.9433 0.6968
35.9000 11.9500 0.6990
35.9200 11.9567 0.7093
35.9400 11.9634 0.6991
35.9600 11.9700 0.6994
35.9800 11.9767 0.7052
36.0000 11.9833 0.6981
36.0200 11.9899 0.7012
36.0400 11.9966 0.7050
36.0600 12.0033 0.6977
36.0800 12.0100 0.7001
36.1000 12.0167 0.7038
36.1200 12.0234 0.6955
36.1400 12.0301 0.7013
36.1600 12.0367 0.7018
36.1800 12.0433 0.7000
36.2000 12.0499 0.7078
36.2200 12.0566 0.6962
36.2400 12.0633 0.6993
36.2600 12.0700 0.7008
36.2800 12.0767 0.6966
36.3000 12.0834 0.6975
36.3200 12.0900 0.6997
36.3400 12.0967 0.6954
36.3600 12.1033 0.7019
36.3800 12.1099 0.6951
36.4000 12.1166 0.6975
36.4200 12.1233 0.6983
36.4400 12.1300 0.6928
36.4600 12.1366 0.6941
36.4800 12.1433 0.7010
36.5000 12.1500 0.6909
36.5200 12.1567 0.6910
36.5400 12.1633 0.7016
36.5600 12.1699 0.6890
36.5800 12.1766 0.6928
36.6000 12.1833 0.6983
36.6200 12.1900 0.6834
36.6400 12.1967 0.6886
36.6600 12.2034 0.6988
36.6800 12.2101 0.6854
36.7000 12.2167 0.6889
36.7200 12.2233 0.6964
36.7400 12.2299 0.6857
36.7600 12.2366 0.6919
36.7800 12.2433 0.6952
36.8000 12.2501 0.6872
36.8200 12.2567 0.6915
36.8400 12.2634 0.6899
36.8600 12.2701 0.6857
36.8800 12.2767 0.6894
36.9000 12.2833 0.6883
36.9200 12.2899 0.6837
36.9400 12.2966 0.6871
36.9600 12.3033 0.6868
36.9800 12.3100 0.6863
37.0000 12.3167 0.6841
37.0200 12.3234 0.6902
37.0400 12.3300 0.6830
37.0600 12.3367 0.6865
37.0800 12.3433 0.6885
37.1000 12.3499 0.6854
37.1200 12.3566 0.6834
37.1400 12.3633 0.6900
37.1600 12.3700 0.6800
37.1800 12.3767 0.6793
37.2000 12.3834 0.6916
37.2200 12.3901 0.6811
37.2400 12.3967 0.6779
37.2600 12.4033 0.6891
37.2800 12.4099 0.6780
37.3000 12.4166 0.6802
37.3200 12.4233 0.6918
37.3400 12.4300 0.6747
37.3600 12.4367 0.6813
37.3800 12.4434 0.6921
37.4000 12.4501 0.6724
37.4200 12.4567 0.6777
37.4400 12.4633 0.6954
37.4600 12.4699 0.6727
37.4800 12.4766 0.6784
37.5000 12.4833 0.6913
37.5200 12.4900 0.6723
37.5400 12.4967 0.6753
37.5600 12.5034 0.6907
37.5800 12.5101 0.6714
37.6000 12.5167 0.6781
37.6200 12.5233 0.6938
37.6400 12.5299 0.6732
37.6600 12.5366 0.6721
37.6800 12.5433 0.6969
37.7000 12.5500 0.6673
37.7200 12.5567 0.6754
37.7400 12.5634 0.6907
37.7600 12.5700 0.6706
37.7800 12.5767 0.6763
37.8000 12.5832 0.6842
37.8200 12.5899 0.6750
37.8400 12.5965 0.6743
37.8600 12.6032 0.6872
37.8800 12.6100 0.6754
37.9000 12.6166 0.6717
37.9200 12.6233 0.6853
37.9400 12.6300 0.6712
37.9600 12.6367 0.6741
37.9800 12.6433 0.6811
38.0000 12.6499 0.6785
38.0200 12.6566 0.6686
38.0400 12.6633 0.6789
38.0600 12.6700 0.6817
38.0800 12.6767 0.6645
38.1000 12.6834 0.6826
38.1200 12.6901 0.6771
38.1400 12.6968 0.6626
38.1600 12.7033 0.6804
38.1800 12.7099 0.6803
38.2000 12.7166 0.6659
38.2200 12.7233 0.6790
38.2400 12.7300 0.6758
38.2600 12.7367 0.6661
38.2800 12.7434 0.6804
38.3000 12.7501 0.6751
38.3200 12.7567 0.6636
38.3400 12.7633 0.6841
38.3600 12.7699 0.6702
38.3800 12.7766 0.6682
38.4000 12.7833 0.6795
38.4200 12.7900 0.6676
38.4400 12.7967 0.6685
38.4600 12.8034 0.6809
38.4800 12.8101 0.6688
38.5000 12.8167 0.6651
38.5200 12.8233 0.6803
38.5400 12.8299 0.6679
38.5600 12.8366 0.6651
38.5800 12.8433 0.6842
38.6000 12.8500 0.6656
38.6200 12.8567 0.6620
38.6400 12.8633 0.6804
38.6600 12.8700 0.6666
38.6800 12.8767 0.6617
38.7000 12.8833 0.6769
38.7200 12.8899 0.6700
38.7400 12.8966 0.6628
38.7600 12.9033 0.6714
38.7800 12.9100 0.6619
38.8000 12.9167 0.6679
38.8200 12.9234 0.6744
38.8400 12.9301 0.6641
38.8600 12.9367 0.6632
38.8800 12.9433 0.6693
38.9000 12.9499 0.6668
38.9200 12.9566 0.6644
38.9400 12.9633 0.6647
38.9600 12.9701 0.6677
38.9800 12.9767 0.6610
39.0000 12.9834 0.6664
39.0200 12.9901 0.6650
39.0400 12.9967 0.6602
39.0600 13.0033 0.6662
39.0800 13.0099 0.6643
39.1000 13.0166 0.6591
39.1200 13.0233 0.6645
39.1400 13.0300 0.6627
39.1600 13.0366 0.6559
39.1800 13.0433 0.6668
39.2000 13.0500 0.6636
39.2200 13.0567 0.6531
39.2400 13.0633 0.6664
39.2600 13.0699 0.6623
39.2800 13.0766 0.6554
39.3000 13.0833 0.6636
39.3200 13.0900 0.6591
39.3400 13.0967 0.6583
39.3600 13.1034 0.6630
39.3800 13.1100 0.6574
39.4000 13.1167 0.6531
39.4200 13.1233 0.6600
39.4400 13.1299 0.6593
39.4600 13.1366 0.6574
39.4800 13.1433 0.6617
39.5000 13.1500 0.6596
39.5200 13.1567 0.6464
39.5400 13.1634 0.6631
39.5600 13.1700 0.6583
39.5800 13.1767 0.6524
39.6000 13.1833 0.6559
39.6200 13.1899 0.6591
39.6400 13.1966 0.6519
39.6600 13.2033 0.6589
39.6800 13.2100 0.6561
39.7000 13.2167 0.6538
39.7200 13.2234 0.6544
39.7400 13.2301 0.6528
39.7600 13.2367 0.6541
39.7800 13.2433 0.6564
39.8000 13.2499 0.6549
39.8200 13.2566 0.6563
39.8400 13.2633 0.6542
39.8600 13.2700 0.6513
39.8800 13.2767 0.6545
39.9000 13.2834 0.6532
39.9200 13.2901 0.6542
39.9400 13.2967 0.6565
39.9600 13.3033 0.6512
39.9800 13.3099 0.6543
40.0000 13.3165 0.6567
40.0200 13.3232 0.6514
40.0400 13.3300 0.6558
40.0600 13.3366 0.6486
40.0800 13.3433 0.6473
40.1000 13.3500 0.6568
40.1200 13.3567 0.6494
40.1400 13.3633 0.6488
40.1600 13.3699 0.6636
40.1800 13.3766 0.6484
40.2000 13.3833 0.6498
40.2200 13.3900 0.6541
40.2400 13.3967 0.6468
40.2600 13.4034 0.6508
40.2800 13.4101 0.6539
40.3000 13.4168 0.6429
40.3200 13.4234 0.6524
40.3400 13.4300 0.6524
40.3600 13.4366 0.6477
40.3800 13.4433 0.6519
40.4000 13.4500 0.6517
40.4200 13.4567 0.6491
40.4400 13.4634 0.6502
40.4600 13.4701 0.6523
40.4800 13.4767 0.6523
40.5000 13.4833 0.6482
40.5200 13.4899 0.6522
40.5400 13.4966 0.6537
40.5600 13.5033 0.6467
40.5800 13.5100 0.6480
40.6000 13.5167 0.6496
40.6200 13.5233 0.6480
40.6400 13.5300 0.6511
40.6600 13.5367 0.6518
40.6800 13.5433 0.6445
40.7000 13.5499 0.6502
40.7200 13.5565 0.6496
40.7400 13.5632 0.6429
40.7600 13.5699 0.6491
40.7800 13.5766 0.6478
40.8000 13.5833 0.6434
40.8200 13.5900 0.6524
40.8400 13.5967 0.6435
40.8600 13.6033 0.6456
40.8800 13.6099 0.6492
40.9000 13.6166 0.6458
40.9200 13.6233 0.6413
40.9400 13.6300 0.6446
40.9600 13.6367 0.6493
40.9800 13.6434 0.6421
41.0000 13.6501 0.6419
41.0200 13.6567 0.6500
41.0400 13.6634 0.6402
41.0600 13.6700 0.6482
41.0800 13.6766 0.6498
41.1000 13.6833 0.6400
41.1200 13.6900 0.6431
41.1400 13.6967 0.6487
41.1600 13.7033 0.6384
41.1800 13.7100 0.6417
41.2000 13.7167 0.6491
41.2200 13.7234 0.6373
41.2400 13.7299 0.6422
41.2600 13.7365 0.6469
41.2800 13.7432 0.6388
41.3000 13.7500 0.6407
41.3200 13.7567 0.6488
41.3400 13.7634 0.6356
41.3600 13.7700 0.6393
41.3800 13.7767 0.6428
41.4000 13.7833 0.6343
41.4200 13.7899 0.6381
41.4400 13.7965 0.6444
41.4600 13.8032 0.6342
41.4800 13.8100 0.6393
41.5000 13.8167 0.6430
41.5200 13.8233 0.6346
41.5400 13.8300 0.6374
41.5600 13.8367 0.6402
41.5800 13.8433 0.6283
41.6000 13.8500 0.6379
41.6200 13.8566 0.6402
41.6400 13.8633 0.6338
41.6600 13.8700 0.6385
41.6800 13.8767 0.6416
41.7000 13.8834 0.6312
41.7200 13.8901 0.6343
41.7400 13.8968 0.6342
41.7600 13.9034 0.6269
41.7800 13.9100 0.6365
41.8000 13.9166 0.6394
41.8200 13.9233 0.6278
41.8400 13.9300 0.6312
41.8600 13.9367 0.6350
41.8800 13.9434 0.6304
41.9000 13.9501 0.6336
41.9200 13.9567 0.6341
41.9400 13.9634 0.6267
41.9600 13.9700 0.6320
41.9800 13.9766 0.6362
42.0000 13.9833 0.6289
42.0200 13.9900 0.6305
42.0400 13.9967 0.6392
42.0600 14.0033 0.6271
42.0800 14.0100 0.6244
42.1000 14.0167 0.6396
42.1200 14.0234 0.6280
42.1400 14.0300 0.6288
42.1600 14.0366 0.6359
42.1800 14.0432 0.6263
42.2000 14.0499 0.6302
42.2200 14.0566 0.6352
42.2400 14.0633 0.6249
42.2600 14.0700 0.6298
42.2800 14.0767 0.6313
42.3000 14.0834 0.6239
42.3200 14.0900 0.6314
42.3400 14.0966 0.6336
42.3600 14.1033 0.6227
42.3800 14.1100 0.6306
42.4000 14.1167 0.6372
42.4200 14.1234 0.6228
42.4400 14.1301 0.6273
42.4600 14.1368 0.6363
42.4800 14.1434 0.6191
42.5000 14.1500 0.6285
42.5200 14.1566 0.6350
42.5400 14.1633 0.6203
42.5600 14.1700 0.6285
42.5800 14.1767 0.6322
42.6000 14.1834 0.6192
42.6200 14.1900 0.6285
42.6400 14.1967 0.6348
42.6600 14.2034 0.6182
42.6800 14.2100 0.6278
42.7000 14.2166 0.6312
42.7200 14.2232 0.6202
42.7400 14.2299 0.6265
42.7600 14.2367 0.6329
42.7800 14.2434 0.6143
42.8000 14.2500 0.6246
42.8200 14.2567 0.6295
42.8400 14.2634 0.6226
42.8600 14.2700 0.6200
42.8800 14.2766 0.6310
42.9000 14.2832 0.6201
42.9200 14.2899 0.6228
42.9400 14.2967 0.6289
42.9600 14.3033 0.6204
42.9800 14.3100 0.6219
43.0000 14.3167 0.6266
43.0200 14.3234 0.6169
43.0400 14.3300 0.6189
43.0600 14.3366 0.6303
43.0800 14.3433 0.6219
43.1000 14.3500 0.6126
43.1200 14.3567 0.6301
43.1400 14.3634 0.6225
43.1600 14.3700 0.6138
43.1800 14.3767 0.6294
43.2000 14.3834 0.6188
43.2200 14.3900 0.6131
43.2400 14.3966 0.6295
43.2600 14.4033 0.6216
43.2800 14.4100 0.6161
43.3000 14.4167 0.6249
43.3200 14.4234 0.6160
43.3400 14.4301 0.6155
43.3600 14.4368 0.6241
43.3800 14.4434 0.6148
43.4000 14.4500 0.6180
43.4200 14.4566 0.6250
43.4400 14.4632 0.6135
43.4600 14.4700 0.6189
43.4800 14.4767 0.6160
43.5000 14.4834 0.6157
43.5200 14.4900 0.6165
43.5400 14.4967 0.6177
43.5600 14.5034 0.6182
43.5800 14.5100 0.6145
43.6000 14.5166 0.6154
43.6200 14.5232 0.6208
43.6400 14.5299 0.6124
43.6600 14.5366 0.6106
43.6800 14.5433 0.6195
43.7000 14.5500 0.6123
43.7200 14.5567 0.6138
43.7400 14.5634 0.6149
43.7600 14.5700 0.6096
43.7800 14.5766 0.6169
43.8000 14.5833 0.6175
43.8200 14.5900 0.6033
43.8400 14.5967 0.6188
43.8600 14.6034 0.6153
43.8800 14.6100 0.6006
43.9000 14.6167 0.6174
43.9200 14.6234 0.6168
43.9400 14.6300 0.6004
43.9600 14.6366 0.6148
43.9800 14.6432 0.6131
44.0000 14.6500 0.6035
44.0200 14.6567 0.6170
44.0400 14.6634 0.6094
44.0600 14.6701 0.6065
44.0800 14.6767 0.6188
44.1000 14.6834 0.5987
44.1200 14.6900 0.6072
44.1400 14.6966 0.6140
44.1600 14.7032 0.6041
44.1800 14.7099 0.6054
44.2000 14.7167 0.6103
44.2200 14.7233 0.6054
44.2400 14.7300 0.6060
44.2600 14.7367 0.6093
44.2800 14.7434 0.6095
44.3000 14.7500 0.6009
44.3200 14.7566 0.6060
44.3400 14.7632 0.6096
44.3600 14.7699 0.6048
44.3800 14.7766 0.6041
44.4000 14.7833 0.6109
44.4200 14.7900 0.6052
44.4400 14.7967 0.5984
44.4600 14.8033 0.6097
44.4800 14.8099 0.6025
44.5000 14.8166 0.6019
44.5200 14.8232 0.6090
44.5400 14.8300 0.5978
44.5600 14.8367 0.6023
44.5800 14.8434 0.6102
44.6000 14.8500 0.5983
44.6200 14.8567 0.6012
44.6400 14.8634 0.6061
44.6600 14.8701 0.5999
44.6800 14.8767 0.6033
44.7000 14.8833 0.6078
44.7200 14.8900 0.5972
44.7400 14.8967 0.6018
44.7600 14.9034 0.6009
44.7800 14.9101 0.6033
44.8000 14.9168 0.5981
44.8200 14.9234 0.6007
44.8400 14.9300 0.6005
44.8600 14.9366 0.5954
44.8800 14.9432 0.6039
44.9000 14.9499 0.6037
44.9200 14.9566 0.5956
44.9400 14.9633 0.6005
44.9600 14.9700 0.5986
44.9800 14.9767 0.5955
45.0000 14.9834 0.5993
45.0200 14.9900 0.6022
45.0400 14.9966 0.5937
45.0600 15.0032 0.6005
45.0800 15.0099 0.6009
45.1000 15.0167 0.5916
45.1200 15.0233 0.6025
45.1400 15.0300 0.5994
45.1600 15.0367 0.5878
45.1800 15.0434 0.5990
45.2000 15.0500 0.5972
45.2200 15.0567 0.5886
45.2400 15.0633 0.6019
45.2600 15.0700 0.5958
45.2800 15.0767 0.5879
45.3000 15.0834 0.6004
45.3200 15.0900 0.5924
45.3400 15.0967 0.5889
45.3600 15.1034 0.5999
45.3800 15.1101 0.5924
45.4000 15.1166 0.5860
45.4200 15.1233 0.5948
45.4400 15.1299 0.5991
45.4600 15.1367 0.5873
45.4800 15.1434 0.5982
45.5000 15.1501 0.5912
45.5200 15.1567 0.5845
45.5400 15.1634 0.5952
45.5600 15.1700 0.5888
45.5800 15.1766 0.5887
45.6000 15.1832 0.5929
45.6200 15.1899 0.5917
45.6400 15.1967 0.5878
45.6600 15.2034 0.5914
45.6800 15.2100 0.5936
45.7000 15.2167 0.5835
45.7200 15.2234 0.5893
45.7400 15.2300 0.5885
45.7600 15.2366 0.5817
45.7800 15.2432 0.5890
45.8000 15.2499 0.5916
45.8200 15.2566 0.5811
45.8400 15.2633 0.5855
45.8600 15.2700 0.5907
45.8800 15.2767 0.5782
45.9000 15.2834 0.5875
45.9200 15.2900 0.5892
45.9400 15.2966 0.5759
45.9600 15.3032 0.5893
45.9800 15.3099 0.5921
46.0000 15.3167 0.5726
46.0200 15.3234 0.5895
46.0400 15.3301 0.5824
46.0600 15.3367 0.5767
46.0800 15.3434 0.5881
46.1000 15.3500 0.5839
46.1200 15.3566 0.5743
46.1400 15.3633 0.5898
46.1600 15.3700 0.5788
46.1800 15.3767 0.5781
46.2000 15.3834 0.5890
46.2200 15.3901 0.5750
46.2400 15.3967 0.5784
46.2600 15.4034 0.5843
46.2800 15.4100 0.5724
46.3000 15.4166 0.5838
46.3200 15.4232 0.5844
46.3400 15.4299 0.5743
46.3600 15.4366 0.5784
46.3800 15.4433 0.5799
46.4000 15.4500 0.5733
46.4200 15.4567 0.5805
46.4400 15.4634 0.5732
46.4600 15.4700 0.5757
46.4800 15.4766 0.5818
46.5000 15.4832 0.5710
46.5200 15.4899 0.5775
46.5400 15.4966 0.5786
46.5600 15.5033 0.5706
46.5800 15.5100 0.5759
46.6000 15.5167 0.5775
46.6200 15.5234 0.5664
46.6400 15.5300 0.5757
46.6600 15.5366 0.5724
46.6800 15.5432 0.5698
46.7000 15.5499 0.5796
46.7200 15.5566 0.5680
46.7400 15.5633 0.5630
46.7600 15.5700 0.5804
46.7800 15.5767 0.5699
46.8000 15.5834 0.5655
46.8200 15.5901 0.5752
46.8400 15.5967 0.5664
46.8600 15.6033 0.5699
46.8800 15.6100 0.5778
46.9000 15.6167 0.5649
46.9200 15.6234 0.5664
46.9400 15.6301 0.5777
46.9600 15.6367 0.5638
46.9800 15.6434 0.5675
47.0000 15.6500 0.5762
47.0200 15.6566 0.5605
47.0400 15.6632 0.5661
47.0600 15.6699 0.5734
47.0800 15.6766 0.5621
47.1000 15.6833 0.5655
47.1200 15.6900 0.5702
47.1400 15.6967 0.5604
47.1600 15.7034 0.5691
47.1800 15.7100 0.5712
47.2000 15.7167 0.5602
47.2200 15.7233 0.5708
47.2400 15.7299 0.5698
47.2600 15.7366 0.5603
47.2800 15.7433 0.5657
47.3000 15.7500 0.5686
47.3200 15.7567 0.5609
47.3400 15.7634 0.5672
47.3600 15.7700 0.5646
47.3800 15.7767 0.5604
47.4000 15.7833 0.5685
47.4200 15.7899 0.5675
47.4400 15.7966 0.5587
47.4600 15.8033 0.5617
47.4800 15.8100 0.5629
47.5000 15.8167 0.5640
47.5200 15.8234 0.5560
47.5400 15.8300 0.5672
47.5600 15.8366 0.5612
47.5800 15.8432 0.5582
47.6000 15.8499 0.5640
47.6200 15.8566 0.5637
47.6400 15.8634 0.5585
47.6600 15.8701 0.5584
47.6800 15.8767 0.5591
47.7000 15.8834 0.5551
47.7200 15.8901 0.5626
47.7400 15.8967 0.5579
47.7600 15.9033 0.5586
47.7800 15.9099 0.5593
47.8000 15.9167 0.5564
47.8200 15.9234 0.5544
47.8400 15.9300 0.5615
47.8600 15.9367 0.5570
47.8800 15.9434 0.5583
47.9000 15.9500 0.5545
47.9200 15.9566 0.5531
47.9400 15.9632 0.5588
47.9600 15.9699 0.5573
47.9800 15.9766 0.5553
48.0000 15.9833 0.5587
48.0200 15.9900 0.5565
48.0400 15.9967 0.5521
48.0600 16.0034 0.5528
48.0800 16.0100 0.5567
48.1000 16.0167 0.5511
48.1200 16.0233 0.5567
48.1400 16.0299 0.5488
48.1600 16.0367 0.5535
48.1800 16.0434 0.5541
48.2000 16.0501 0.5502
48.2200 16.0567 0.5546
48.2400 16.0634 0.5545
48.2600 16.0701 0.5485
48.2800 16.0767 0.5558
48.3000 16.0833 0.5505
48.3200 16.0899 0.5509
48.3400 16.0966 0.5556
48.3600 16.1033 0.5465
48.3800 16.1100 0.5485
48.4000 16.1167 0.5553
48.4200 16.1234 0.5498
48.4400 16.1301 0.5461
48.4600 16.1367 0.5549
48.4800 16.1433 0.5480
48.5000 16.1499 0.5508
48.5200 16.1566 0.5504
48.5400 16.1633 0.5500
48.5600 16.1700 0.5491
48.5800 16.1767 0.5468
48.6000 16.1834 0.5519
48.6200 16.1901 0.5457
48.6400 16.1967 0.5481
48.6600 16.2032 0.5557
48.6800 16.2099 0.5430
48.7000 16.2166 0.5498
48.7200 16.2233 0.5511
48.7400 16.2300 0.5429
48.7600 16.2367 0.5422
48.7800 16.2433 0.5490
48.8000 16.2500 0.5420
48.8200 16.2566 0.5489
48.8400 16.2633 0.5503
48.8600 16.2699 0.5376
48.8800 16.2766 0.5493
48.9000 16.2833 0.5468
48.9200 16.2900 0.5383
48.9400 16.2967 0.5539
48.9600 16.3034 0.5415
48.9800 16.3101 0.5382
49.0000 16.3167 0.5519
49.0200 16.3233 0.5444
49.0400 16.3299 0.5394
49.0600 16.3366 0.5515
49.0800 16.3434 0.5358
49.1000 16.3501 0.5360
49.1200 16.3567 0.5494
49.1400 16.3634 0.5351
49.1600 16.3700 0.5390
49.1800 16.3766 0.5419
49.2000 16.3832 0.5364
49.2200 16.3899 0.5430
49.2400 16.3966 0.5426
49.2600 16.4033 0.5332
49.2800 16.4100 0.5414
49.3000 16.4166 0.5403
49.3200 16.4233 0.5366
49.3400 16.4300 0.5379
49.3600 16.4366 0.5388
49.3800 16.4432 0.5376
49.4000 16.4499 0.5411
49.4200 16.4566 0.5366
49.4400 16.4633 0.5397
49.4600 16.4700 0.5392
49.4800 16.4767 0.5365
49.5000 16.4834 0.5353
49.5200 16.4901 0.5370
49.5400 16.4967 0.5342
49.5600 16.5033 0.5374
49.5800 16.5099 0.5353
49.6000 16.5166 0.5375
49.6200 16.5233 0.5353
49.6400 16.5301 0.5330
49.6600 16.5367 0.5299
49.6800 16.5434 0.5364
49.7000 16.5501 0.5324
49.7200 16.5567 0.5308
49.7400 16.5633 0.5349
49.7600 16.5699 0.5322
49.7800 16.5766 0.5349
49.8000 16.5833 0.5346
49.8200 16.5900 0.5317
49.8400 16.5967 0.5315
49.8600 16.6034 0.5338
49.8800 16.6101 0.5237
49.9000 16.6167 0.5329
49.9200 16.6233 0.5354
49.9400 16.6300 0.5300
49.9600 16.6366 0.5301
49.9800 16.6433 0.5286
50.0000 16.6500 0.5290
50.0200 16.6567 0.5310
50.0400 16.6634 0.5286
50.0600 16.6701 0.5245
50.0800 16.6767 0.5255
50.1000 16.6833 0.5336
50.1200 16.6899 0.5209
50.1400 16.6966 0.5297
50.1600 16.7033 0.5273
50.1800 16.7100 0.5257
50.2000 16.7167 0.5282
50.2200 16.7234 0.5273
50.2400 16.7300 0.5234
50.2600 16.7367 0.5288
50.2800 16.7433 0.5276
50.3000 16.7499 0.5221
50.3200 16.7566 0.5246
50.3400 16.7633 0.5250
50.3600 16.7700 0.5217
50.3800 16.7767 0.5250
50.4000 16.7834 0.5215
50.4200 16.7901 0.5197
50.4400 16.7967 0.5228
50.4600 16.8033 0.5203
50.4800 16.8099 0.5170
50.5000 16.8166 0.5248
50.5200 16.8233 0.5197
50.5400 16.8300 0.5143
50.5600 16.8367 0.5237
50.5800 16.8434 0.5227
50.6000 16.8501 0.5130
50.6200 16.8567 0.5188
50.6400 16.8633 0.5254
50.6600 16.8699 0.5111
50.6800 16.8766 0.5191
50.7000 16.8833 0.5180
50.7200 16.8901 0.5103
50.7400 16.8967 0.5152
50.7600 16.9034 0.5196
50.7800 16.9100 0.5075
50.8000 16.9167 0.5131
50.8200 16.9233 0.5184
50.8400 16.9299 0.5067
50.8600 16.9366 0.5132
50.8800 16.9433 0.5166
50.9000 16.9500 0.5038
50.9200 16.9566 0.5149
50.9400 16.9633 0.5181
50.9600 16.9700 0.5045
50.9800 16.9767 0.5133
51.0000 16.9833 0.5131
51.0200 16.9899 0.5052
51.0400 16.9966 0.5102
51.0600 17.0033 0.5153
51.0800 17.0100 0.4975
51.1000 17.0167 0.5094
51.1200 17.0234 0.5131
51.1400 17.0301 0.5027
51.1600 17.0367 0.5056
51.1800 17.0433 0.5115
51.2000 17.0499 0.5018
51.2200 17.0566 0.5061
51.2400 17.0633 0.5104
51.2600 17.0700 0.4974
51.2800 17.0767 0.5067
51.3000 17.0834 0.5119
51.3200 17.0900 0.4956
51.3400 17.0967 0.5093
51.3600 17.1033 0.5032
51.3800 17.1099 0.4971
51.4000 17.1166 0.5095
51.4200 17.1233 0.5061
51.4400 17.1300 0.4963
51.4600 17.1367 0.5081
51.4800 17.1434 0.4998
51.5000 17.1500 0.4934
51.5200 17.1567 0.5080
51.5400 17.1633 0.5023
51.5600 17.1699 0.4983
51.5800 17.1766 0.5065
51.6000 17.1833 0.4991
51.6200 17.1900 0.4958
51.6400 17.1967 0.5018
51.6600 17.2034 0.4972
51.6800 17.2101 0.4966
51.7000 17.2167 0.4981
51.7200 17.2233 0.5011
51.7400 17.2299 0.4990
51.7600 17.2366 0.4971
51.7800 17.2433 0.4956
51.8000 17.2500 0.4956
51.8200 17.2566 0.4963
51.8400 17.2633 0.4996
51.8600 17.2700 0.4920
51.8800 17.2767 0.4963
51.9000 17.2833 0.4947
51.9200 17.2900 0.4954
51.9400 17.2966 0.4966
51.9600 17.3033 0.4945
51.9800 17.3100 0.4893
52.0000 17.3167 0.4998
52.0200 17.3234 0.4958
52.0400 17.3301 0.4899
52.0600 17.3367 0.4936
52.0800 17.3433 0.4979
52.1000 17.3499 0.4911
52.1200 17.3566 0.4968
52.1400 17.3633 0.4902
52.1600 17.3700 0.4906
52.1800 17.3767 0.4913
52.2000 17.3834 0.4907
52.2200 17.3901 0.4905
52.2400 17.3967 0.4931
52.2600 17.4033 0.4896
52.2800 17.4099 0.4838
52.3000 17.4165 0.4950
52.3200 17.4232 0.4872
52.3400 17.4299 0.4837
52.3600 17.4366 0.4927
52.3800 17.4433 0.4845
52.4000 17.4500 0.4873
52.4200 17.4567 0.4880
52.4400 17.4633 0.4826
52.4600 17.4699 0.4921
52.4800 17.4766 0.4847
52.5000 17.4833 0.4838
52.5200 17.4900 0.4853
52.5400 17.4967 0.4867
52.5600 17.5034 0.4827
52.5800 17.5101 0.4876
52.6000 17.5168 0.4785
52.6200 17.5233 0.4855
52.6400 17.5299 0.4868
52.6600 17.5366 0.4784
52.6800 17.5433 0.4864
52.7000 17.5500 0.4863
52.7200 17.5567 0.4741
52.7400 17.5634 0.4842
52.7600 17.5701 0.4806
52.7800 17.5767 0.4807
52.8000 17.5833 0.4828
52.8200 17.5899 0.4797
52.8400 17.5966 0.4794
52.8600 17.6033 0.4829
52.8800 17.6100 0.4730
52.9000 17.6167 0.4832
52.9200 17.6234 0.4837
52.9400 17.6300 0.4742
52.9600 17.6367 0.4809
52.9800 17.6433 0.4769
53.0000 17.6499 0.4777
53.0200 17.6566 0.4824
53.0400 17.6633 0.4757
53.0600 17.6700 0.4765
53.0800 17.6767 0.4840
53.1000 17.6833 0.4683
53.1200 17.6900 0.4792
53.1400 17.6967 0.4807
53.1600 17.7033 0.4722
53.1800 17.7099 0.4790
53.2000 17.7166 0.4809
53.2200 17.7233 0.4690
53.2400 17.7300 0.4824
53.2600 17.7367 0.4759
53.2800 17.7434 0.4686
53.3000 17.7501 0.4807
53.3200 17.7567 0.4694
53.3400 17.7633 0.4642
53.3600 17.7699 0.4834
53.3800 17.7766 0.4703
53.4000 17.7833 0.4691
53.4200 17.7901 0.4746
53.4400 17.7967 0.4673
53.4600 17.8034 0.4674
53.4800 17.8101 0.4753
53.5000 17.8167 0.4650
53.5200 17.8233 0.4617
53.5400 17.8299 0.4744
53.5600 17.8366 0.4664
53.5800 17.8433 0.4657
53.6000 17.8500 0.4710
53.6200 17.8566 0.4597
53.6400 17.8633 0.4675
53.6600 17.8700 0.4730
53.6800 17.8767 0.4584
53.7000 17.8833 0.4648
53.7200 17.8899 0.4742
53.7400 17.8965 0.4598
53.7600 17.9032 0.4613
53.7800 17.9100 0.4697
53.8000 17.9167 0.4585
53.8200 17.9233 0.4656
53.8400 17.9300 0.4664
53.8600 17.9367 0.4616
53.8800 17.9433 0.4627
53.9000 17.9499 0.4710
53.9200 17.9566 0.4578
53.9400 17.9633 0.4621
53.9600 17.9700 0.4665
53.9800 17.9767 0.4556
54.0000 17.9834 0.4580
54.0200 17.9901 0.4597
54.0400 17.9967 0.4564
54.0600 18.0034 0.4598
54.0800 18.0099 0.4586
54.1000 18.0166 0.4587
54.1200 18.0233 0.4558
54.1400 18.0300 0.4632
54.1600 18.0367 0.4526
54.1800 18.0434 0.4512
54.2000 18.0501 0.4653
54.2200 18.0568 0.4517
54.2400 18.0634 0.4495
54.2600 18.0700 0.4625
54.2800 18.0766 0.4549
54.3000 18.0833 0.4487
54.3200 18.0900 0.4588
54.3400 18.0967 0.4520
54.3600 18.1034 0.4426
54.3800 18.1101 0.4601
54.4000 18.1167 0.4482
54.4200 18.1233 0.4445
54.4400 18.1299 0.4583
54.4600 18.1366 0.4458
54.4800 18.1432 0.4529
54.5000 18.1500 0.4519
54.5200 18.1567 0.4464
54.5400 18.1633 0.4478
54.5600 18.1700 0.4551
54.5800 18.1767 0.4417
54.6000 18.1833 0.4475
54.6200 18.1899 0.4523
54.6400 18.1966 0.4383
54.6600 18.2033 0.4456
54.6800 18.2100 0.4556
54.7000 18.2167 0.4341
54.7200 18.2234 0.4387
54.7400 18.2301 0.4446
54.7600 18.2368 0.4442
54.7800 18.2434 0.4391
54.8000 18.2500 0.4453
54.8200 18.2566 0.4428
54.8400 18.2633 0.4424
54.8600 18.2700 0.4409
54.8800 18.2767 0.4363
54.9000 18.2834 0.4410
54.9200 18.2901 0.4411
54.9400 18.2967 0.4368
54.9600 18.3034 0.4372
54.9800 18.3099 0.4420
55.0000 18.3166 0.4392
55.0200 18.3233 0.4345
55.0400 18.3300 0.4358
55.0600 18.3366 0.4417
55.0800 18.3433 0.4315
55.1000 18.3500 0.4377
55.1200 18.3567 0.4379
55.1400 18.3633 0.4327
55.1600 18.3699 0.4371
55.1800 18.3765 0.4346
55.2000 18.3832 0.4282
55.2200 18.3899 0.4378
55.2400 18.3966 0.4337
55.2600 18.4033 0.4261
55.2800 18.4100 0.4355
55.3000 18.4167 0.4327
55.3200 18.4233 0.4253
55.3400 18.4299 0.4388
55.3600 18.4366 0.4304
55.3800 18.4433 0.4259
55.4000 18.4500 0.4351
55.4200 18.4567 0.4279
55.4400 18.4634 0.4254
55.4600 18.4701 0.4305
55.4800 18.4767 0.4228
55.5000 18.4834 0.4274
55.5200 18.4900 0.4317
55.5400 18.4967 0.4280
55.5600 18.5033 0.4244
55.5800 18.5100 0.4245
55.6000 18.5167 0.4211
55.6200 18.5234 0.4252
55.6400 18.5301 0.4257
55.6600 18.5367 0.4187
55.6800 18.5434 0.4203
55.7000 18.5500 0.4191
55.7200 18.5566 0.4250
55.7400 18.5632 0.4207
55.7600 18.5700 0.4197
55.7800 18.5767 0.4242
55.8000 18.5833 0.4168
55.8200 18.5900 0.4150
55.8400 18.5967 0.4259
55.8600 18.6034 0.4142
55.8800 18.6100 0.4181
55.9000 18.6166 0.4238
55.9200 18.6232 0.4070
55.9400 18.6299 0.4166
55.9600 18.6367 0.4211
55.9800 18.6433 0.4049
56.0000 18.6500 0.4223
56.0200 18.6567 0.4186
56.0400 18.6634 0.4008
56.0600 18.6700 0.4213
56.0800 18.6766 0.4171
56.1000 18.6833 0.4032
56.1200 18.6900 0.4212
56.1400 18.6967 0.4127
56.1600 18.7034 0.4020
56.1800 18.7101 0.4189
56.2000 18.7168 0.4113
56.2200 18.7234 0.4005
56.2400 18.7300 0.4170
56.2600 18.7366 0.4081
56.2800 18.7433 0.4020
56.3000 18.7500 0.4163
56.3200 18.7567 0.4033
56.3400 18.7634 0.4042
56.3600 18.7701 0.4102
56.3800 18.7767 0.3987
56.4000 18.7834 0.4041
56.4200 18.7900 0.4123
56.4400 18.7966 0.3992
56.4600 18.8033 0.4076
56.4800 18.8100 0.4056
56.5000 18.8167 0.4010
56.5200 18.8233 0.4067
56.5400 18.8300 0.4046
56.5600 18.8367 0.3982
56.5800 18.8434 0.4076
56.6000 18.8500 0.4019
56.6200 18.8566 0.3988
56.6400 18.8632 0.4054
56.6600 18.8699 0.4028
56.6800 18.8766 0.4002
56.7000 18.8833 0.4028
56.7200 18.8900 0.3993
56.7400 18.8967 0.4045
56.7600 18.9034 0.3961
56.7800 18.9100 0.4002
56.8000 18.9166 0.4055
56.8200 18.9233 0.3989
56.8400 18.9300 0.4009
56.8600 18.9367 0.4023
56.8800 18.9434 0.3979
56.9000 18.9501 0.3984
56.9200 18.9567 0.4019
56.9400 18.9634 0.3931
56.9600 18.9700 0.4009
56.9800 18.9766 0.3993
57.0000 18.9833 0.3963
57.0200 18.9900 0.4022
57.0400 18.9967 0.3933
57.0600 19.0034 0.3934
57.0800 19.0100 0.3998
57.1000 19.0167 0.3929
57.1200 19.0234 0.3934
57.1400 19.0300 0.3978
57.1600 19.0366 0.3919
57.1800 19.0432 0.3931
57.2000 19.0499 0.4006
57.2200 19.0566 0.3890
57.2400 19.0633 0.3931
57.2600 19.0700 0.3977
57.2800 19.0767 0.3918
57.3000 19.0834 0.3911
57.3200 19.0900 0.3951
57.3400 19.0966 0.3921
57.3600 19.1032 0.3935
57.3800 19.1099 0.3902
57.4000 19.1167 0.3869
57.4200 19.1233 0.3926
57.4400 19.1300 0.3899
57.4600 19.1367 0.3840
57.4800 19.1434 0.3929
57.5000 19.1500 0.3921
57.5200 19.1566 0.3865
57.5400 19.1633 0.3894
57.5600 19.1700 0.3894
57.5800 19.1767 0.3848
57.6000 19.1834 0.3869
57.6200 19.1900 0.3865
57.6400 19.1967 0.3862
57.6600 19.2034 0.3818
57.6800 19.2100 0.3834
57.7000 19.2166 0.3914
57.7200 19.2233 0.3814
57.7400 19.2300 0.3839
57.7600 19.2367 0.3855
57.7800 19.2434 0.3794
57.8000 19.2501 0.3820
57.8200 19.2568 0.3865
57.8400 19.2634 0.3729
57.8600 19.2700 0.3858
57.8800 19.2766 0.3817
57.9000 19.2832 0.3750
57.9200 19.2899 0.3859
57.9400 19.2966 0.3778
57.9600 19.3033 0.3713
57.9800 19.3100 0.3855
58.0000 19.3167 0.3735
58.0200 19.3234 0.3773
58.0400 19.3300 0.3831
58.0600 19.3366 0.3691
58.0800 19.3432 0.3780
58.1000 19.3499 0.3805
58.1200 19.3566 0.3627
58.1400 19.3633 0.3795
58.1600 19.3700 0.3790
58.1800 19.3767 0.3623
58.2000 19.3833 0.3777
58.2200 19.3900 0.3755
58.2400 19.3966 0.3648
58.2600 19.4033 0.3786
58.2800 19.4100 0.3745
58.3000 19.4167 0.3638
58.3200 19.4233 0.3774
58.3400 19.4300 0.3683
58.3600 19.4367 0.3605
58.3800 19.4434 0.3769
58.4000 19.4500 0.3634
58.4200 19.4566 0.3604
58.4400 19.4632 0.3773
58.4600 19.4699 0.3641
58.4800 19.4767 0.3612
58.5000 19.4834 0.3705
58.5200 19.4901 0.3628
58.5400 19.4967 0.3624
58.5600 19.5034 0.3679
58.5800 19.5100 0.3566
58.6000 19.5166 0.3625
58.6200 19.5233 0.3636
58.6400 19.5300 0.3572
58.6600 19.5367 0.3595
58.6800 19.5434 0.3609
58.7000 19.5500 0.3570
58.7200 19.5567 0.3582
58.7400 19.5634 0.3544
58.7600 19.5700 0.3578
58.7800 19.5766 0.3565
58.8000 19.5832 0.3539
58.8200 19.5899 0.3567
58.8400 19.5966 0.3528
58.8600 19.6033 0.3539
58.8800 19.6100 0.3550
58.9000 19.6167 0.3490
58.9200 19.6233 0.3566
58.9400 19.6300 0.3560
58.9600 19.6366 0.3427
58.9800 19.6432 0.3558
59.0000 19.6499 0.3521
59.0200 19.6567 0.3395
59.0400 19.6634 0.3539
59.0600 19.6700 0.3522
59.0800 19.6767 0.3369
59.1000 19.6834 0.3546
59.1200 19.6901 0.3466
59.1400 19.6967 0.3384
59.1600 19.7033 0.3541
59.1800 19.7100 0.3449
59.2000 19.7167 0.3358
59.2200 19.7234 0.3540
59.2400 19.7301 0.3428
59.2600 19.7367 0.3394
59.2800 19.7434 0.3454
59.3000 19.7500 0.3291
59.3010 19.7503 0.3273
