Raw Data
Time Displacement Force
(s) (mm) (N)
0.0000 0.0000 0.3452
0.0200 0.0000 0.3613
0.0400 0.0008 0.3752
0.0600 0.0039 0.3888
0.0800 0.0094 0.3551
0.1000 0.0150 0.3420
0.1200 0.0209 0.3732
0.1400 0.0275 0.3681
0.1600 0.0349 0.3480
0.1800 0.0424 0.3597
0.2000 0.0496 0.3543
0.2200 0.0565 0.3523
0.2400 0.0632 0.3628
0.2600 0.0698 0.3641
0.2800 0.0765 0.3627
0.3000 0.0832 0.3678
0.3200 0.0899 0.3575
0.3400 0.0966 0.3665
0.3600 0.1033 0.3647
0.3800 0.1100 0.3682
0.4000 0.1166 0.3689
0.4200 0.1233 0.3656
0.4400 0.1300 0.3731
0.4600 0.1367 0.3749
0.4800 0.1433 0.3685
0.5000 0.1500 0.3754
0.5200 0.1567 0.3751
0.5400 0.1634 0.3719
0.5600 0.1700 0.3811
0.5800 0.1766 0.3860
0.6000 0.1833 0.3790
0.6200 0.1900 0.3813
0.6400 0.1967 0.3830
0.6600 0.2034 0.3835
0.6800 0.2100 0.3900
0.7000 0.2167 0.3840
0.7200 0.2233 0.3836
0.7400 0.2300 0.3899
0.7600 0.2366 0.3943
0.7800 0.2433 0.3896
0.8000 0.2499 0.3931
0.8200 0.2566 0.4037
0.8400 0.2633 0.3891
0.8600 0.2700 0.3940
0.8800 0.2767 0.4011
0.9000 0.2833 0.3916
0.9200 0.2899 0.4036
0.9400 0.2965 0.3996
0.9600 0.3032 0.3973
0.9800 0.3099 0.4056
1.0000 0.3166 0.4034
1.0200 0.3233 0.4024
1.0400 0.3300 0.4070
1.0600 0.3367 0.4049
1.0800 0.3433 0.4023
1.1000 0.3499 0.4063
1.1200 0.3566 0.4051
1.1400 0.3632 0.4091
1.1600 0.3700 0.4080
1.1800 0.3767 0.4082
1.2000 0.3834 0.4103
1.2200 0.3900 0.4066
1.2400 0.3967 0.4097
1.2600 0.4034 0.4069
1.2800 0.4100 0.4054
1.3000 0.4166 0.4136
1.3200 0.4233 0.4084
1.3400 0.4300 0.4047
1.3600 0.4367 0.4103
1.3800 0.4434 0.4116
1.4000 0.4501 0.4056
1.4200 0.4567 0.4115
1.4400 0.4633 0.4070
1.4600 0.4699 0.4070
1.4800 0.4765 0.4128
1.5000 0.4832 0.4097
1.5200 0.4899 0.4069
1.5400 0.4966 0.4138
1.5600 0.5033 0.4058
1.5800 0.5100 0.4050
1.6000 0.5167 0.4089
1.6200 0.5233 0.4063
1.6400 0.5299 0.4036
1.6600 0.5366 0.4089
1.6800 0.5432 0.4054
1.7000 0.5500 0.4077
1.7200 0.5567 0.4057
1.7400 0.5633 0.4052
1.7600 0.5700 0.4061
1.7800 0.5767 0.4046
1.8000 0.5834 0.3999
1.8200 0.5900 0.4091
1.8400 0.5966 0.4056
1.8600 0.6033 0.4066
1.8800 0.6100 0.4078
1.9000 0.6167 0.4039
1.9200 0.6234 0.4071
1.9400 0.6300 0.4029
1.9600 0.6367 0.4021
1.9800 0.6434 0.4044
2.0000 0.6500 0.4086
2.0200 0.6566 0.4055
2.0400 0.6632 0.4058
2.0600 0.6700 0.4030
2.0800 0.6767 0.4055
2.1000 0.6833 0.4072
2.1200 0.6900 0.4053
2.1400 0.6967 0.4059
2.1600 0.7034 0.4086
2.1800 0.7100 0.3994
2.2000 0.7166 0.4151
2.2200 0.7232 0.4016
2.2400 0.7300 0.4007
2.2600 0.7367 0.4101
2.2800 0.7433 0.4028
2.3000 0.7500 0.4031
2.3200 0.7567 0.4074
2.3400 0.7633 0.4055
2.3600 0.7700 0.4061
2.3800 0.7766 0.4041
2.4000 0.7832 0.4094
2.4200 0.7899 0.4077
2.4400 0.7966 0.4086
2.4600 0.8033 0.4090
2.4800 0.8100 0.4066
2.5000 0.8167 0.4047
2.5200 0.8234 0.4131
2.5400 0.8300 0.4025
2.5600 0.8366 0.4047
2.5800 0.8432 0.4205
2.6000 0.8500 0.3959
2.6200 0.8567 0.4057
2.6400 0.8634 0.4182
2.6600 0.8701 0.3968
2.6800 0.8767 0.4073
2.7000 0.8834 0.4209
2.7200 0.8900 0.3905
2.7400 0.8966 0.4117
2.7600 0.9033 0.4189
2.7800 0.9100 0.3897
2.8000 0.9167 0.4156
2.8200 0.9234 0.4198
2.8400 0.9300 0.3840
2.8600 0.9367 0.4168
2.8800 0.9434 0.4135
2.9000 0.9500 0.3901
2.9200 0.9566 0.4200
2.9400 0.9632 0.4097
2.9600 0.9699 0.3920
2.9800 0.9766 0.4231
3.0000 0.9833 0.4053
3.0200 0.9900 0.3943
3.0400 0.9967 0.4203
3.0600 1.0034 0.4037
3.0800 1.0099 0.3946
3.1000 1.0165 0.4244
3.1200 1.0232 0.4092
3.1400 1.0299 0.3959
3.1600 1.0366 0.4133
3.1800 1.0433 0.4029
3.2000 1.0500 0.4011
3.2200 1.0567 0.4140
3.2400 1.0633 0.4043
3.2600 1.0700 0.4006
3.2800 1.0766 0.4146
3.3000 1.0833 0.4041
3.3200 1.0900 0.4018
3.3400 1.0967 0.4120
3.3600 1.1033 0.4081
3.3800 1.1100 0.4042
3.4000 1.1168 0.4060
3.4200 1.1234 0.4025
3.4400 1.1300 0.4043
3.4600 1.1366 0.4052
3.4800 1.1433 0.4069
3.5000 1.1500 0.4051
3.5200 1.1567 0.4107
3.5400 1.1634 0.4077
3.5600 1.1700 0.4052
3.5800 1.1767 0.4076
3.6000 1.1834 0.4100
3.6200 1.1900 0.4032
3.6400 1.1966 0.4086
3.6600 1.2032 0.4145
3.6800 1.2100 0.4062
3.7000 1.2167 0.4075
3.7200 1.2233 0.4178
3.7400 1.2300 0.4060
3.7600 1.2367 0.4064
3.7800 1.2434 0.4171
3.8000 1.2500 0.3998
3.8200 1.2566 0.4121
3.8400 1.2632 0.4159
3.8600 1.2699 0.4013
3.8800 1.2766 0.4131
3.9000 1.2833 0.4168
3.9200 1.2900 0.4001
3.9400 1.2967 0.4141
3.9600 1.3034 0.4131
3.9800 1.3100 0.4051
4.0000 1.3166 0.4152
4.0200 1.3232 0.4111
4.0400 1.3299 0.4067
4.0600 1.3366 0.4186
4.0800 1.3433 0.4101
4.1000 1.3500 0.4092
4.1200 1.3567 0.4180
4.1400 1.3634 0.4122
4.1600 1.3700 0.4098
4.1800 1.3766 0.4179
4.2000 1.3833 0.4113
4.2200 1.3900 0.4119
4.2400 1.3967 0.4138
4.2600 1.4034 0.4080
4.2800 1.4100 0.4110
4.3000 1.4167 0.4173
4.3200 1.4234 0.4135
4.3400 1.4300 0.4090
4.3600 1.4366 0.4183
4.3800 1.4433 0.4132
4.4000 1.4500 0.4073
4.4200 1.4566 0.4134
4.4400 1.4633 0.4130
4.4600 1.4700 0.4075
4.4800 1.4767 0.4167
4.5000 1.4834 0.4129
4.5200 1.4900 0.4090
4.5400 1.4966 0.4174
4.5600 1.5032 0.4164
4.5800 1.5099 0.4059
4.6000 1.5166 0.4125
4.6200 1.5233 0.4134
4.6400 1.5300 0.4098
4.6600 1.5367 0.4054
4.6800 1.5434 0.4126
4.7000 1.5500 0.4008
4.7200 1.5566 0.4128
4.7400 1.5632 0.4122
4.7600 1.5700 0.4055
4.7800 1.5767 0.4133
4.8000 1.5834 0.4139
4.8200 1.5901 0.4026
4.8400 1.5967 0.4120
4.8600 1.6034 0.4126
4.8800 1.6100 0.4002
4.9000 1.6166 0.4146
4.9200 1.6232 0.4078
4.9400 1.6299 0.4049
4.9600 1.6366 0.4159
4.9800 1.6433 0.4039
5.0000 1.6500 0.4070
5.0200 1.6567 0.4106
5.0400 1.6634 0.4029
5.0600 1.6700 0.4068
5.0800 1.6766 0.4082
5.1000 1.6832 0.4054
5.1200 1.6899 0.4059
5.1400 1.6966 0.4092
5.1600 1.7033 0.4061
5.1800 1.7100 0.4095
5.2000 1.7167 0.4073
5.2200 1.7234 0.4074
5.2400 1.7300 0.4078
5.2600 1.7366 0.4065
5.2800 1.7432 0.4062
5.3000 1.7499 0.4100
5.3200 1.7566 0.4081
5.3400 1.7633 0.4044
5.3600 1.7700 0.4029
5.3800 1.7766 0.4080
5.4000 1.7833 0.3998
5.4200 1.7900 0.4061
5.4400 1.7966 0.4064
5.4600 1.8032 0.4047
5.4800 1.8099 0.4053
5.5000 1.8166 0.4027
5.5200 1.8233 0.4037
5.5400 1.8300 0.4072
5.5600 1.8367 0.4043
5.5800 1.8434 0.4011
5.6000 1.8500 0.4029
5.6200 1.8566 0.4044
5.6400 1.8632 0.4054
5.6600 1.8699 0.4040
5.6800 1.8767 0.4029
5.7000 1.8834 0.4024
5.7200 1.8900 0.4064
5.7400 1.8967 0.4046
5.7600 1.9034 0.4011
5.7800 1.9100 0.4043
5.8000 1.9166 0.4087
5.8200 1.9232 0.3981
5.8400 1.9299 0.4054
5.8600 1.9366 0.4089
5.8800 1.9433 0.3989
5.9000 1.9500 0.4023
5.9200 1.9566 0.4086
5.9400 1.9633 0.3954
5.9600 1.9700 0.4027
5.9800 1.9766 0.4093
6.0000 1.9832 0.3960
6.0200 1.9899 0.4039
6.0400 1.9966 0.4125
6.0600 2.0033 0.3923
6.0800 2.0100 0.4065
6.1000 2.0167 0.4062
6.1200 2.0234 0.3935
6.1400 2.0300 0.4037
6.1600 2.0366 0.4062
6.1800 2.0433 0.3959
6.2000 2.0499 0.4066
6.2200 2.0566 0.4032
6.2400 2.0633 0.3947
6.2600 2.0700 0.4076
6.2800 2.0767 0.4006
6.3000 2.0834 0.3946
6.3200 2.0900 0.4119
6.3400 2.0966 0.3983
6.3600 2.1032 0.4003
6.3800 2.1099 0.4139
6.4000 2.1167 0.3964
6.4200 2.1233 0.4022
6.4400 2.1300 0.4074
6.4600 2.1367 0.4019
6.4800 2.1434 0.4015
6.5000 2.1501 0.4051
6.5200 2.1567 0.4003
6.5400 2.1633 0.4055
6.5600 2.1699 0.4061
6.5800 2.1766 0.4020
6.6000 2.1833 0.4042
6.6200 2.1900 0.4041
6.6400 2.1967 0.4040
6.6600 2.2034 0.4033
6.6800 2.2100 0.3986
6.7000 2.2166 0.4048
6.7200 2.2232 0.4046
6.7400 2.2299 0.4044
6.7600 2.2366 0.4028
6.7800 2.2433 0.4014
6.8000 2.2500 0.3992
6.8200 2.2567 0.4038
6.8400 2.2634 0.3979
6.8600 2.2700 0.4058
6.8800 2.2766 0.4040
6.9000 2.2832 0.3978
6.9200 2.2899 0.4091
6.9400 2.2966 0.4034
6.9600 2.3033 0.3960
6.9800 2.3100 0.4072
7.0000 2.3167 0.4003
7.0200 2.3234 0.3946
7.0400 2.3300 0.4071
7.0600 2.3367 0.4031
7.0800 2.3433 0.3977
7.1000 2.3499 0.4060
7.1200 2.3566 0.4042
7.1400 2.3633 0.3960
7.1600 2.3700 0.4064
7.1800 2.3767 0.4024
7.2000 2.3834 0.3951
7.2200 2.3901 0.4021
7.2400 2.3966 0.4033
7.2600 2.4032 0.3968
7.2800 2.4099 0.4057
7.3000 2.4166 0.4026
7.3200 2.4233 0.3941
7.3400 2.4300 0.3970
7.3600 2.4367 0.4056
7.3800 2.4434 0.3989
7.4000 2.4500 0.3977
7.4200 2.4566 0.4040
7.4400 2.4632 0.3986
7.4600 2.4699 0.4017
7.4800 2.4766 0.4024
7.5000 2.4833 0.3948
7.5200 2.4900 0.3947
7.5400 2.4966 0.4021
7.5600 2.5033 0.3966
7.5800 2.5100 0.3951
7.6000 2.5166 0.4019
7.6200 2.5233 0.3976
7.6400 2.5299 0.4001
7.6600 2.5366 0.4005
7.6800 2.5433 0.3947
7.7000 2.5500 0.4062
7.7200 2.5567 0.3932
7.7400 2.5634 0.3955
7.7600 2.5701 0.4028
7.7800 2.5767 0.3969
7.8000 2.5833 0.3946
7.8200 2.5899 0.4037
7.8400 2.5966 0.3945
7.8600 2.6034 0.3957
7.8800 2.6100 0.3941
7.9000 2.6167 0.4002
7.9200 2.6234 0.4000
7.9400 2.6300 0.3955
7.9600 2.6366 0.3971
7.9800 2.6432 0.3956
8.0000 2.6499 0.4013
8.0200 2.6566 0.3992
8.0400 2.6633 0.3943
8.0600 2.6700 0.4049
8.0800 2.6767 0.4000
8.1000 2.6834 0.3928
8.1200 2.6900 0.3982
8.1400 2.6966 0.4001
8.1600 2.7032 0.3949
8.1800 2.7099 0.4022
8.2000 2.7166 0.4015
8.2200 2.7233 0.3885
8.2400 2.7300 0.4028
8.2600 2.7367 0.4005
8.2800 2.7434 0.3917
8.3000 2.7500 0.4023
8.3200 2.7567 0.3985
8.3400 2.7633 0.3914
8.3600 2.7699 0.4020
8.3800 2.7766 0.4005
8.4000 2.7833 0.3917
8.4200 2.7900 0.3999
8.4400 2.7967 0.3985
8.4600 2.8034 0.3909
8.4800 2.8100 0.3961
8.5000 2.8167 0.4005
8.5200 2.8233 0.3987
8.5400 2.8299 0.3949
8.5600 2.8366 0.3996
8.5800 2.8433 0.3961
8.6000 2.8500 0.3982
8.6200 2.8567 0.4003
8.6400 2.8634 0.3937
8.6600 2.8701 0.3965
8.6800 2.8767 0.4004
8.7000 2.8833 0.3960
8.7200 2.8899 0.3995
8.7400 2.8966 0.3987
8.7600 2.9033 0.3954
8.7800 2.9100 0.3960
8.8000 2.9167 0.4004
8.8200 2.9234 0.3970
8.8400 2.9300 0.3966
8.8600 2.9366 0.3972
8.8800 2.9432 0.3958
8.9000 2.9498 0.3991
8.9200 2.9565 0.3996
8.9400 2.9632 0.3960
8.9600 2.9699 0.3975
8.9800 2.9766 0.4026
9.0000 2.9833 0.3910
9.0200 2.9900 0.4003
9.0400 2.9966 0.3977
9.0600 3.0033 0.3956
9.0800 3.0099 0.3982
9.1000 3.0166 0.4005
9.1200 3.0233 0.3938
9.1400 3.0300 0.3971
9.1600 3.0367 0.4024
9.1800 3.0434 0.3964
9.2000 3.0501 0.3938
9.2200 3.0567 0.3969
9.2400 3.0633 0.3947
9.2600 3.0699 0.4024
9.2800 3.0766 0.3961
9.3000 3.0833 0.3917
9.3200 3.0900 0.4032
9.3400 3.0967 0.3950
9.3600 3.1034 0.3930
9.3800 3.1101 0.4036
9.4000 3.1167 0.3927
9.4200 3.1233 0.3966
9.4400 3.1299 0.3994
9.4600 3.1366 0.3965
9.4800 3.1433 0.3993
9.5000 3.1500 0.3955
9.5200 3.1567 0.4009
9.5400 3.1633 0.4015
9.5600 3.1700 0.3938
9.5800 3.1767 0.3984
9.6000 3.1833 0.4028
9.6200 3.1899 0.3853
9.6400 3.1966 0.4006
9.6600 3.2033 0.3995
9.6800 3.2100 0.3903
9.7000 3.2166 0.4006
9.7200 3.2233 0.3973
9.7400 3.2300 0.3885
9.7600 3.2366 0.4065
9.7800 3.2432 0.3910
9.8000 3.2499 0.3916
9.8200 3.2566 0.4081
9.8400 3.2633 0.3891
9.8600 3.2700 0.3880
9.8800 3.2767 0.4038
9.9000 3.2834 0.3894
9.9200 3.2901 0.3957
9.9400 3.2967 0.4008
9.9600 3.3033 0.3868
9.9800 3.3099 0.3980
10.0000 3.3166 0.4025
10.0200 3.3233 0.3874
10.0400 3.3301 0.3982
10.0600 3.3367 0.3966
10.0800 3.3434 0.3886
10.1000 3.3500 0.3962
10.1200 3.3567 0.3943
10.1400 3.3633 0.3924
10.1600 3.3699 0.3992
10.1800 3.3766 0.3893
10.2000 3.3833 0.3923
10.2200 3.3900 0.3978
10.2400 3.3966 0.3852
10.2600 3.4033 0.3994
10.2800 3.4100 0.3935
10.3000 3.4167 0.3831
10.3200 3.4233 0.3982
10.3400 3.4299 0.3964
10.3600 3.4365 0.3856
10.3800 3.4433 0.4005
10.4000 3.4500 0.3895
10.4200 3.4567 0.3789
10.4400 3.4633 0.3990
10.4600 3.4700 0.3910
10.4800 3.4767 0.3821
10.5000 3.4833 0.3999
10.5200 3.4899 0.3846
10.5400 3.4966 0.3912
10.5600 3.5033 0.3968
10.5800 3.5100 0.3813
10.6000 3.5167 0.3920
10.6200 3.5234 0.3986
10.6400 3.5301 0.3806
10.6600 3.5367 0.3897
10.6800 3.5433 0.3958
10.7000 3.5499 0.3873
10.7200 3.5566 0.3933
10.7400 3.5633 0.3903
10.7600 3.5700 0.3851
10.7800 3.5767 0.3939
10.8000 3.5834 0.3898
10.8200 3.5901 0.3892
10.8400 3.5967 0.3927
10.8600 3.6033 0.3884
10.8800 3.6099 0.3903
10.9000 3.6166 0.3860
10.9200 3.6233 0.3936
10.9400 3.6300 0.3912
10.9600 3.6367 0.3828
10.9800 3.6434 0.3949
11.0000 3.6500 0.3924
11.0200 3.6567 0.3825
11.0400 3.6633 0.3955
11.0600 3.6699 0.3920
11.0800 3.6766 0.3837
11.1000 3.6833 0.3967
11.1200 3.6900 0.3858
11.1400 3.6966 0.3825
11.1600 3.7033 0.4034
11.1800 3.7100 0.3852
11.2000 3.7166 0.3828
11.2200 3.7233 0.4002
11.2400 3.7299 0.3844
11.2600 3.7366 0.3830
11.2800 3.7433 0.3990
11.3000 3.7500 0.3822
11.3200 3.7567 0.3830
11.3400 3.7634 0.3997
11.3600 3.7701 0.3838
11.3800 3.7767 0.3827
11.4000 3.7833 0.3971
11.4200 3.7899 0.3845
11.4400 3.7966 0.3899
11.4600 3.8033 0.3961
11.4800 3.8100 0.3799
11.5000 3.8167 0.3926
11.5200 3.8234 0.3910
11.5400 3.8300 0.3801
11.5600 3.8367 0.3931
11.5800 3.8433 0.3929
11.6000 3.8499 0.3849
11.6200 3.8566 0.3854
11.6400 3.8633 0.3921
11.6600 3.8699 0.3887
11.6800 3.8766 0.3847
11.7000 3.8833 0.3927
11.7200 3.8900 0.3871
11.7400 3.8967 0.3850
11.7600 3.9033 0.3856
11.7800 3.9099 0.3945
11.8000 3.9165 0.3907
11.8200 3.9232 0.3874
11.8400 3.9299 0.3862
11.8600 3.9366 0.3802
11.8800 3.9433 0.3921
11.9000 3.9500 0.3919
11.9200 3.9567 0.3797
11.9400 3.9633 0.3928
11.9600 3.9699 0.3885
11.9800 3.9766 0.3817
12.0000 3.9833 0.3918
12.0200 3.9900 0.3886
12.0400 3.9967 0.3808
12.0600 4.0034 0.3940
12.0800 4.0101 0.3845
12.1000 4.0167 0.3774
12.1200 4.0233 0.3969
12.1400 4.0300 0.3804
12.1600 4.0366 0.3841
12.1800 4.0433 0.3903
12.2000 4.0500 0.3795
12.2200 4.0567 0.3851
12.2400 4.0634 0.3912
12.2600 4.0701 0.3802
12.2800 4.0767 0.3809
12.3000 4.0833 0.3888
12.3200 4.0899 0.3850
12.3400 4.0965 0.3837
12.3600 4.1032 0.3948
12.3800 4.1100 0.3801
12.4000 4.1167 0.3813
12.4200 4.1234 0.3906
12.4400 4.1300 0.3875
12.4600 4.1367 0.3812
12.4800 4.1433 0.3830
12.5000 4.1499 0.3858
12.5200 4.1565 0.3841
12.5400 4.1632 0.3844
12.5600 4.1700 0.3887
12.5800 4.1767 0.3809
12.6000 4.1833 0.3841
12.6200 4.1900 0.3862
12.6400 4.1967 0.3792
12.6600 4.2033 0.3910
12.6800 4.2100 0.3861
12.7000 4.2166 0.3788
12.7200 4.2233 0.3880
12.7400 4.2300 0.3900
12.7600 4.2367 0.3799
12.7800 4.2433 0.3878
12.8000 4.2501 0.3871
12.8200 4.2567 0.3788
12.8400 4.2633 0.3863
12.8600 4.2699 0.3878
12.8800 4.2766 0.3802
12.9000 4.2833 0.3873
12.9200 4.2900 0.3857
12.9400 4.2967 0.3779
12.9600 4.3034 0.3851
12.9800 4.3101 0.3904
13.0000 4.3167 0.3764
13.0200 4.3233 0.3844
13.0400 4.3299 0.3871
13.0600 4.3366 0.3842
13.0800 4.3433 0.3865
13.1000 4.3500 0.3849
13.1200 4.3567 0.3770
13.1400 4.3634 0.3880
13.1600 4.3700 0.3855
13.1800 4.3767 0.3769
13.2000 4.3833 0.3883
13.2200 4.3899 0.3827
13.2400 4.3965 0.3804
13.2600 4.4032 0.3905
13.2800 4.4099 0.3853
13.3000 4.4166 0.3756
13.3200 4.4233 0.3888
13.3400 4.4300 0.3799
13.3600 4.4367 0.3800
13.3800 4.4433 0.3894
13.4000 4.4499 0.3830
13.4200 4.4566 0.3799
13.4400 4.4633 0.3894
13.4600 4.4700 0.3832
13.4800 4.4767 0.3819
13.5000 4.4834 0.3854
13.5200 4.4901 0.3873
13.5400 4.4967 0.3808
13.5600 4.5033 0.3849
13.5800 4.5099 0.3831
13.6000 4.5166 0.3851
13.6200 4.5233 0.3828
13.6400 4.5300 0.3799
13.6600 4.5367 0.3818
13.6800 4.5433 0.3832
13.7000 4.5500 0.3829
13.7200 4.5567 0.3783
13.7400 4.5633 0.3814
13.7600 4.5699 0.3866
13.7800 4.5765 0.3805
13.8000 4.5832 0.3806
13.8200 4.5900 0.3838
13.8400 4.5967 0.3833
13.8600 4.6033 0.3793
13.8800 4.6100 0.3848
13.9000 4.6167 0.3807
13.9200 4.6233 0.3749
13.9400 4.6299 0.3885
13.9600 4.6366 0.3761
13.9800 4.6432 0.3815
14.0000 4.6499 0.3905
14.0200 4.6567 0.3716
14.0400 4.6633 0.3835
14.0600 4.6700 0.3901
14.0800 4.6767 0.3669
14.1000 4.6833 0.3879
14.1200 4.6899 0.3856
14.1400 4.6966 0.3709
14.1600 4.7033 0.3873
14.1800 4.7100 0.3814
14.2000 4.7167 0.3663
14.2200 4.7234 0.3880
14.2400 4.7301 0.3826
14.2600 4.7367 0.3702
14.2800 4.7434 0.3841
14.3000 4.7500 0.3786
14.3200 4.7566 0.3722
14.3400 4.7633 0.3891
14.3600 4.7700 0.3752
14.3800 4.7767 0.3770
14.4000 4.7834 0.3853
14.4200 4.7901 0.3757
14.4400 4.7968 0.3756
14.4600 4.8034 0.3827
14.4800 4.8100 0.3763
14.5000 4.8166 0.3787
14.5200 4.8232 0.3826
14.5400 4.8300 0.3746
14.5600 4.8366 0.3781
14.5800 4.8433 0.3772
14.6000 4.8500 0.3848
14.6200 4.8567 0.3758
14.6400 4.8633 0.3739
14.6600 4.8699 0.3841
14.6800 4.8765 0.3764
14.7000 4.8832 0.3726
14.7200 4.8899 0.3812
14.7400 4.8966 0.3761
14.7600 4.9033 0.3755
14.7800 4.9100 0.3827
14.8000 4.9167 0.3758
14.8200 4.9233 0.3722
14.8400 4.9300 0.3882
14.8600 4.9366 0.3726
14.8800 4.9433 0.3737
14.9000 4.9500 0.3835
14.9200 4.9567 0.3719
14.9400 4.9633 0.3775
14.9600 4.9700 0.3798
14.9800 4.9767 0.3663
15.0000 4.9834 0.3775
15.0200 4.9899 0.3820
15.0400 4.9966 0.3715
15.0600 5.0032 0.3808
15.0800 5.0100 0.3742
15.1000 5.0167 0.3675
15.1200 5.0234 0.3822
15.1400 5.0301 0.3706
15.1600 5.0367 0.3706
15.1800 5.0434 0.3811
15.2000 5.0500 0.3714
15.2200 5.0566 0.3716
15.2400 5.0633 0.3783
15.2600 5.0700 0.3699
15.2800 5.0767 0.3722
15.3000 5.0833 0.3781
15.3200 5.0900 0.3664
15.3400 5.0967 0.3720
15.3600 5.1034 0.3802
15.3800 5.1099 0.3707
15.4000 5.1165 0.3753
15.4200 5.1232 0.3745
15.4400 5.1299 0.3718
15.4600 5.1366 0.3799
15.4800 5.1433 0.3699
15.5000 5.1500 0.3733
15.5200 5.1566 0.3792
15.5400 5.1633 0.3700
15.5600 5.1699 0.3656
15.5800 5.1766 0.3812
15.6000 5.1832 0.3748
15.6200 5.1900 0.3675
15.6400 5.1967 0.3694
15.6600 5.2034 0.3747
15.6800 5.2101 0.3712
15.7000 5.2167 0.3709
15.7200 5.2234 0.3755
15.7400 5.2300 0.3711
15.7600 5.2366 0.3752
15.7800 5.2433 0.3735
15.8000 5.2500 0.3674
15.8200 5.2567 0.3750
15.8400 5.2634 0.3729
15.8600 5.2701 0.3633
15.8800 5.2767 0.3767
15.9000 5.2834 0.3736
15.9200 5.2900 0.3665
15.9400 5.2966 0.3759
15.9600 5.3032 0.3728
15.9800 5.3099 0.3637
16.0000 5.3166 0.3790
16.0200 5.3233 0.3710
16.0400 5.3300 0.3646
16.0600 5.3367 0.3772
16.0800 5.3433 0.3718
16.1000 5.3499 0.3638
16.1200 5.3566 0.3815
16.1400 5.3632 0.3683
16.1600 5.3700 0.3662
16.1800 5.3767 0.3719
16.2000 5.3833 0.3674
16.2200 5.3900 0.3689
16.2400 5.3967 0.3752
16.2600 5.4034 0.3598
16.2800 5.4100 0.3693
16.3000 5.4166 0.3768
16.3200 5.4233 0.3617
16.3400 5.4300 0.3743
16.3600 5.4367 0.3733
16.3800 5.4433 0.3642
16.4000 5.4500 0.3712
16.4200 5.4567 0.3690
16.4400 5.4634 0.3623
16.4600 5.4700 0.3724
16.4800 5.4766 0.3692
16.5000 5.4832 0.3684
16.5200 5.4899 0.3716
16.5400 5.4967 0.3712
16.5600 5.5034 0.3671
16.5800 5.5100 0.3706
16.6000 5.5167 0.3680
16.6200 5.5233 0.3655
16.6400 5.5299 0.3680
16.6600 5.5366 0.3721
16.6800 5.5432 0.3696
16.7000 5.5499 0.3674
16.7200 5.5567 0.3672
16.7400 5.5633 0.3681
16.7600 5.5700 0.3687
16.7800 5.5767 0.3723
16.8000 5.5833 0.3670
16.8200 5.5900 0.3653
16.8400 5.5966 0.3655
16.8600 5.6032 0.3667
16.8800 5.6099 0.3712
16.9000 5.6166 0.3726
16.9200 5.6233 0.3644
16.9400 5.6300 0.3663
16.9600 5.6367 0.3709
16.9800 5.6434 0.3662
17.0000 5.6500 0.3659
17.0200 5.6566 0.3731
17.0400 5.6632 0.3648
17.0600 5.6700 0.3643
17.0800 5.6767 0.3718
17.1000 5.6834 0.3662
17.1200 5.6900 0.3678
17.1400 5.6967 0.3711
17.1600 5.7034 0.3650
17.1800 5.7100 0.3657
17.2000 5.7166 0.3727
17.2200 5.7233 0.3677
17.2400 5.7300 0.3646
17.2600 5.7367 0.3668
17.2800 5.7434 0.3664
17.3000 5.7500 0.3621
17.3200 5.7567 0.3700
17.3400 5.7634 0.3653
17.3600 5.7700 0.3627
17.3800 5.7766 0.3716
17.4000 5.7832 0.3646
17.4200 5.7899 0.3652
17.4400 5.7966 0.3687
17.4600 5.8033 0.3612
17.4800 5.8100 0.3661
17.5000 5.8167 0.3664
17.5200 5.8234 0.3586
17.5400 5.8300 0.3673
17.5600 5.8366 0.3686
17.5800 5.8432 0.3598
17.6000 5.8499 0.3653
17.6200 5.8566 0.3691
17.6400 5.8633 0.3586
17.6600 5.8700 0.3664
17.6800 5.8767 0.3660
17.7000 5.8833 0.3574
17.7200 5.8900 0.3650
17.7400 5.8966 0.3702
17.7600 5.9033 0.3593
17.7800 5.9100 0.3656
17.8000 5.9167 0.3626
17.8200 5.9233 0.3606
17.8400 5.9300 0.3686
17.8600 5.9367 0.3630
17.8800 5.9434 0.3543
17.9000 5.9501 0.3714
17.9200 5.9566 0.3607
17.9400 5.9633 0.3605
17.9600 5.9700 0.3686
17.9800 5.9767 0.3637
18.0000 5.9834 0.3597
18.0200 5.9901 0.3629
18.0400 5.9967 0.3645
18.0600 6.0034 0.3604
18.0800 6.0100 0.3647
18.1000 6.0166 0.3619
18.1200 6.0232 0.3606
18.1400 6.0299 0.3679
18.1600 6.0366 0.3588
18.1800 6.0433 0.3612
18.2000 6.0500 0.3684
18.2200 6.0567 0.3598
18.2400 6.0634 0.3563
18.2600 6.0700 0.3683
18.2800 6.0766 0.3627
18.3000 6.0832 0.3549
18.3200 6.0899 0.3676
18.3400 6.0966 0.3549
18.3600 6.1033 0.3642
18.3800 6.1100 0.3661
18.4000 6.1167 0.3589
18.4200 6.1233 0.3629
18.4400 6.1300 0.3611
18.4600 6.1366 0.3641
18.4800 6.1432 0.3625
18.5000 6.1499 0.3587
18.5200 6.1566 0.3662
18.5400 6.1633 0.3630
18.5600 6.1700 0.3588
18.5800 6.1767 0.3636
18.6000 6.1834 0.3653
18.6200 6.1900 0.3560
18.6400 6.1966 0.3621
18.6600 6.2032 0.3663
18.6800 6.2100 0.3603
18.7000 6.2167 0.3647
18.7200 6.2234 0.3614
18.7400 6.2300 0.3570
18.7600 6.2367 0.3684
18.7800 6.2434 0.3580
18.8000 6.2500 0.3542
18.8200 6.2566 0.3680
18.8400 6.2633 0.3645
18.8600 6.2699 0.3579
18.8800 6.2766 0.3635
18.9000 6.2833 0.3625
18.9200 6.2900 0.3597
18.9400 6.2967 0.3623
18.9600 6.3034 0.3606
18.9800 6.3100 0.3611
19.0000 6.3166 0.3644
19.0200 6.3232 0.3598
19.0400 6.3299 0.3596
19.0600 6.3366 0.3697
19.0800 6.3433 0.3597
19.1000 6.3500 0.3584
19.1200 6.3567 0.3641
19.1400 6.3634 0.3645
19.1600 6.3700 0.3545
19.1800 6.3766 0.3633
19.2000 6.3833 0.3639
19.2200 6.3899 0.3572
19.2400 6.3967 0.3615
19.2600 6.4034 0.3649
19.2800 6.4100 0.3545
19.3000 6.4167 0.3597
19.3200 6.4234 0.3598
19.3400 6.4300 0.3604
19.3600 6.4366 0.3588
19.3800 6.4433 0.3645
19.4000 6.4499 0.3581
19.4200 6.4566 0.3573
19.4400 6.4633 0.3654
19.4600 6.4700 0.3576
19.4800 6.4767 0.3593
19.5000 6.4834 0.3592
19.5200 6.4901 0.3544
19.5400 6.4967 0.3596
19.5600 6.5032 0.3657
19.5800 6.5099 0.3546
19.6000 6.5166 0.3556
19.6200 6.5233 0.3650
19.6400 6.5300 0.3554
19.6600 6.5367 0.3557
19.6800 6.5434 0.3656
19.7000 6.5500 0.3514
19.7200 6.5566 0.3608
19.7400 6.5632 0.3645
19.7600 6.5699 0.3607
19.7800 6.5766 0.3577
19.8000 6.5833 0.3603
19.8200 6.5900 0.3550
19.8400 6.5966 0.3591
19.8600 6.6033 0.3614
19.8800 6.6100 0.3497
19.9000 6.6166 0.3576
19.9200 6.6232 0.3674
19.9400 6.6299 0.3539
19.9600 6.6366 0.3561
19.9800 6.6433 0.3573
20.0000 6.6500 0.3546
20.0200 6.6567 0.3587
20.0400 6.6634 0.3561
20.0600 6.6701 0.3557
20.0800 6.6767 0.3592
20.1000 6.6833 0.3549
20.1200 6.6899 0.3547
20.1400 6.6967 0.3599
20.1600 6.7034 0.3521
20.1800 6.7101 0.3563
20.2000 6.7167 0.3561
20.2200 6.7234 0.3474
20.2400 6.7300 0.3608
20.2600 6.7366 0.3600
20.2800 6.7432 0.3503
20.3000 6.7499 0.3578
20.3200 6.7566 0.3559
20.3400 6.7633 0.3535
20.3600 6.7700 0.3550
20.3800 6.7766 0.3558
20.4000 6.7833 0.3494
20.4200 6.7900 0.3619
20.4400 6.7966 0.3506
20.4600 6.8032 0.3508
20.4800 6.8099 0.3626
20.5000 6.8166 0.3534
20.5200 6.8233 0.3527
20.5400 6.8300 0.3613
20.5600 6.8367 0.3508
20.5800 6.8434 0.3573
20.6000 6.8501 0.3527
20.6200 6.8567 0.3504
20.6400 6.8633 0.3601
20.6600 6.8699 0.3548
20.6800 6.8766 0.3498
20.7000 6.8833 0.3570
20.7200 6.8900 0.3533
20.7400 6.8967 0.3501
20.7600 6.9034 0.3559
20.7800 6.9100 0.3517
20.8000 6.9166 0.3536
20.8200 6.9232 0.3579
20.8400 6.9299 0.3502
20.8600 6.9366 0.3552
20.8800 6.9433 0.3556
20.9000 6.9500 0.3514
20.9200 6.9567 0.3576
20.9400 6.9634 0.3473
20.9600 6.9700 0.3537
20.9800 6.9767 0.3569
21.0000 6.9833 0.3522
21.0200 6.9899 0.3571
21.0400 6.9966 0.3589
21.0600 7.0033 0.3471
21.0800 7.0100 0.3548
21.1000 7.0167 0.3587
21.1200 7.0234 0.3508
21.1400 7.0300 0.3527
21.1600 7.0366 0.3507
21.1800 7.0432 0.3508
21.2000 7.0498 0.3603
21.2200 7.0565 0.3474
21.2400 7.0633 0.3514
21.2600 7.0700 0.3544
21.2800 7.0766 0.3472
21.3000 7.0833 0.3502
21.3200 7.0900 0.3579
21.3400 7.0966 0.3483
21.3600 7.1032 0.3529
21.3800 7.1099 0.3570
21.4000 7.1166 0.3461
21.4200 7.1233 0.3508
21.4400 7.1300 0.3527
21.4600 7.1367 0.3478
21.4800 7.1434 0.3519
21.5000 7.1501 0.3535
21.5200 7.1567 0.3485
21.5400 7.1633 0.3517
21.5600 7.1699 0.3544
21.5800 7.1766 0.3472
21.6000 7.1833 0.3520
21.6200 7.1900 0.3534
21.6400 7.1967 0.3451
21.6600 7.2034 0.3521
21.6800 7.2101 0.3494
21.7000 7.2167 0.3497
21.7200 7.2232 0.3525
21.7400 7.2299 0.3553
21.7600 7.2366 0.3474
21.7800 7.2433 0.3471
21.8000 7.2500 0.3512
21.8200 7.2567 0.3477
21.8400 7.2634 0.3548
21.8600 7.2700 0.3518
21.8800 7.2766 0.3426
21.9000 7.2832 0.3525
21.9200 7.2899 0.3531
21.9400 7.2966 0.3437
21.9600 7.3033 0.3522
21.9800 7.3100 0.3536
22.0000 7.3166 0.3401
22.0200 7.3233 0.3527
22.0400 7.3300 0.3513
22.0600 7.3367 0.3420
22.0800 7.3433 0.3565
22.1000 7.3499 0.3501
22.1200 7.3566 0.3397
22.1400 7.3633 0.3560
22.1600 7.3700 0.3483
22.1800 7.3767 0.3414
22.2000 7.3834 0.3546
22.2200 7.3901 0.3459
22.2400 7.3967 0.3429
22.2600 7.4033 0.3519
22.2800 7.4099 0.3493
22.3000 7.4166 0.3455
22.3200 7.4233 0.3542
22.3400 7.4300 0.3446
22.3600 7.4367 0.3441
22.3800 7.4434 0.3540
22.4000 7.4500 0.3496
22.4200 7.4567 0.3440
22.4400 7.4633 0.3507
22.4600 7.4699 0.3496
22.4800 7.4766 0.3452
22.5000 7.4833 0.3490
22.5200 7.4900 0.3551
22.5400 7.4966 0.3433
22.5600 7.5033 0.3469
22.5800 7.5100 0.3508
22.6000 7.5167 0.3413
22.6200 7.5233 0.3468
22.6400 7.5299 0.3514
22.6600 7.5366 0.3432
22.6800 7.5433 0.3449
22.7000 7.5500 0.3526
22.7200 7.5567 0.3415
22.7400 7.5634 0.3466
22.7600 7.5700 0.3546
22.7800 7.5767 0.3454
22.8000 7.5832 0.3463
22.8200 7.5899 0.3554
22.8400 7.5966 0.3407
22.8600 7.6033 0.3472
22.8800 7.6100 0.3530
22.9000 7.6167 0.3456
22.9200 7.6234 0.3429
22.9400 7.6301 0.3516
22.9600 7.6367 0.3407
22.9800 7.6433 0.3450
23.0000 7.6500 0.3502
23.0200 7.6566 0.3424
23.0400 7.6633 0.3468
23.0600 7.6700 0.3481
23.0800 7.6767 0.3439
23.1000 7.6834 0.3506
23.1200 7.6901 0.3480
23.1400 7.6967 0.3425
23.1600 7.7033 0.3442
23.1800 7.7099 0.3482
23.2000 7.7166 0.3458
23.2200 7.7233 0.3456
23.2400 7.7300 0.3453
23.2600 7.7367 0.3440
23.2800 7.7434 0.3447
23.3000 7.7500 0.3438
23.3200 7.7567 0.3474
23.3400 7.7632 0.3461
23.3600 7.7699 0.3433
23.3800 7.7765 0.3484
23.4000 7.7833 0.3429
23.4200 7.7899 0.3408
23.4400 7.7966 0.3445
23.4600 7.8033 0.3398
23.4800 7.8100 0.3485
23.5000 7.8167 0.3409
23.5200 7.8233 0.3413
23.5400 7.8299 0.3443
23.5600 7.8366 0.3441
23.5800 7.8433 0.3404
23.6000 7.8500 0.3432
23.6200 7.8567 0.3411
23.6400 7.8634 0.3436
23.6600 7.8701 0.3418
23.6800 7.8767 0.3380
23.7000 7.8833 0.3475
23.7200 7.8899 0.3438
23.7400 7.8966 0.3343
23.7600 7.9033 0.3447
23.7800 7.9100 0.3448
23.8000 7.9167 0.3378
23.8200 7.9234 0.3417
23.8400 7.9301 0.3412
23.8600 7.9367 0.3338
23.8800 7.9433 0.3444
23.9000 7.9499 0.3471
23.9200 7.9566 0.3354
23.9400 7.9633 0.3384
23.9600 7.9700 0.3428
23.9800 7.9767 0.3395
24.0000 7.9833 0.3443
24.0200 7.9900 0.3370
24.0400 7.9967 0.3362
24.0600 8.0033 0.3450
24.0800 8.0099 0.3425
24.1000 8.0166 0.3356
24.1200 8.0233 0.3373
24.1400 8.0300 0.3429
24.1600 8.0366 0.3323
24.1800 8.0433 0.3440
24.2000 8.0500 0.3397
24.2200 8.0567 0.3319
24.2400 8.0633 0.3418
24.2600 8.0699 0.3419
24.2800 8.0766 0.3330
24.3000 8.0833 0.3406
24.3200 8.0900 0.3361
24.3400 8.0967 0.3375
24.3600 8.1034 0.3430
24.3800 8.1101 0.3382
24.4000 8.1167 0.3373
24.4200 8.1233 0.3379
24.4400 8.1299 0.3379
24.4600 8.1366 0.3391
24.4800 8.1433 0.3351
24.5000 8.1500 0.3387
24.5200 8.1567 0.3438
24.5400 8.1634 0.3339
24.5600 8.1701 0.3360
24.5800 8.1767 0.3406
24.6000 8.1833 0.3351
24.6200 8.1899 0.3363
24.6400 8.1966 0.3414
24.6600 8.2033 0.3349
24.6800 8.2100 0.3354
24.7000 8.2166 0.3392
24.7200 8.2233 0.3364
24.7400 8.2300 0.3346
24.7600 8.2367 0.3411
24.7800 8.2433 0.3335
24.8000 8.2499 0.3421
24.8200 8.2565 0.3363
24.8400 8.2633 0.3347
24.8600 8.2700 0.3388
24.8800 8.2767 0.3355
24.9000 8.2834 0.3342
24.9200 8.2900 0.3352
24.9400 8.2967 0.3371
24.9600 8.3033 0.3396
24.9800 8.3099 0.3334
25.0000 8.3166 0.3382
25.0200 8.3233 0.3334
25.0400 8.3300 0.3361
25.0600 8.3367 0.3396
25.0800 8.3434 0.3364
25.1000 8.3501 0.3335
25.1200 8.3567 0.3320
25.1400 8.3633 0.3390
25.1600 8.3699 0.3380
25.1800 8.3766 0.3392
25.2000 8.3833 0.3383
25.2200 8.3900 0.3328
25.2400 8.3967 0.3376
25.2600 8.4034 0.3402
25.2800 8.4101 0.3295
25.3000 8.4167 0.3340
25.3200 8.4233 0.3370
25.3400 8.4299 0.3352
25.3600 8.4366 0.3325
25.3800 8.4433 0.3423
25.4000 8.4500 0.3320
25.4200 8.4567 0.3356
25.4400 8.4634 0.3379
25.4600 8.4700 0.3297
25.4800 8.4767 0.3375
25.5000 8.4833 0.3381
25.5200 8.4899 0.3286
25.5400 8.4965 0.3355
25.5600 8.5032 0.3405
25.5800 8.5099 0.3345
25.6000 8.5166 0.3338
25.6200 8.5233 0.3381
25.6400 8.5300 0.3333
25.6600 8.5367 0.3350
25.6800 8.5433 0.3377
25.7000 8.5499 0.3365
25.7200 8.5566 0.3361
25.7400 8.5633 0.3368
25.7600 8.5700 0.3325
25.7800 8.5767 0.3359
25.8000 8.5834 0.3369
25.8200 8.5901 0.3344
25.8400 8.5968 0.3291
25.8600 8.6033 0.3370
25.8800 8.6099 0.3421
25.9000 8.6166 0.3312
25.9200 8.6233 0.3374
25.9400 8.6300 0.3357
25.9600 8.6367 0.3321
25.9800 8.6434 0.3355
26.0000 8.6501 0.3351
26.0200 8.6567 0.3312
26.0400 8.6633 0.3388
26.0600 8.6699 0.3309
26.0800 8.6766 0.3355
26.1000 8.6833 0.3401
26.1200 8.6900 0.3296
26.1400 8.6966 0.3316
26.1600 8.7033 0.3423
26.1800 8.7100 0.3270
26.2000 8.7167 0.3391
26.2200 8.7233 0.3322
26.2400 8.7299 0.3268
26.2600 8.7365 0.3380
26.2800 8.7432 0.3397
26.3000 8.7499 0.3237
26.3200 8.7566 0.3358
26.3400 8.7633 0.3383
26.3600 8.7700 0.3230
26.3800 8.7767 0.3345
26.4000 8.7833 0.3378
26.4200 8.7899 0.3238
26.4400 8.7966 0.3357
26.4600 8.8033 0.3377
26.4800 8.8100 0.3281
26.5000 8.8167 0.3368
26.5200 8.8234 0.3395
26.5400 8.8301 0.3273
26.5600 8.8367 0.3329
26.5800 8.8434 0.3390
26.6000 8.8500 0.3262
26.6200 8.8566 0.3365
26.6400 8.8633 0.3361
26.6600 8.8700 0.3285
26.6800 8.8767 0.3329
26.7000 8.8834 0.3436
26.7200 8.8901 0.3253
26.7400 8.8967 0.3357
26.7600 8.9033 0.3373
26.7800 8.9099 0.3311
26.8000 8.9165 0.3392
26.8200 8.9232 0.3402
26.8400 8.9300 0.3243
26.8600 8.9367 0.3335
26.8800 8.9434 0.3407
26.9000 8.9500 0.3198
26.9200 8.9567 0.3360
26.9400 8.9633 0.3390
26.9600 8.9699 0.3189
26.9800 8.9765 0.3396
27.0000 8.9832 0.3385
27.0200 8.9900 0.3210
27.0400 8.9966 0.3400
27.0600 9.0033 0.3363
27.0800 9.0100 0.3210
27.1000 9.0167 0.3399
27.1200 9.0233 0.3334
27.1400 9.0299 0.3220
27.1600 9.0366 0.3436
27.1800 9.0433 0.3284
27.2000 9.0500 0.3283
27.2200 9.0567 0.3377
27.2400 9.0634 0.3291
27.2600 9.0701 0.3275
27.2800 9.0767 0.3371
27.3000 9.0833 0.3269
27.3200 9.0899 0.3342
27.3400 9.0966 0.3353
27.3600 9.1033 0.3286
27.3800 9.1100 0.3306
27.4000 9.1167 0.3351
27.4200 9.1234 0.3311
27.4400 9.1300 0.3278
27.4600 9.1367 0.3325
27.4800 9.1433 0.3305
27.5000 9.1500 0.3275
27.5200 9.1566 0.3349
27.5400 9.1633 0.3325
27.5600 9.1700 0.3230
27.5800 9.1767 0.3346
27.6000 9.1833 0.3325
27.6200 9.1900 0.3200
27.6400 9.1967 0.3398
27.6600 9.2033 0.3317
27.6800 9.2099 0.3216
27.7000 9.2165 0.3380
27.7200 9.2232 0.3291
27.7400 9.2299 0.3305
27.7600 9.2366 0.3338
27.7800 9.2433 0.3310
27.8000 9.2500 0.3215
27.8200 9.2567 0.3314
27.8400 9.2633 0.3267
27.8600 9.2699 0.3276
27.8800 9.2766 0.3359
27.9000 9.2833 0.3285
27.9200 9.2900 0.3251
27.9400 9.2967 0.3320
27.9600 9.3034 0.3248
27.9800 9.3101 0.3364
28.0000 9.3167 0.3306
28.0200 9.3234 0.3225
28.0400 9.3300 0.3291
28.0600 9.3366 0.3319
28.0800 9.3433 0.3274
28.1000 9.3500 0.3295
28.1200 9.3567 0.3282
28.1400 9.3634 0.3274
28.1600 9.3700 0.3310
28.1800 9.3767 0.3297
28.2000 9.3833 0.3286
28.2200 9.3899 0.3305
28.2400 9.3965 0.3271
28.2600 9.4032 0.3329
28.2800 9.4099 0.3292
28.3000 9.4167 0.3271
28.3200 9.4233 0.3292
28.3400 9.4300 0.3237
28.3600 9.4367 0.3248
28.3800 9.4433 0.3296
28.4000 9.4499 0.3294
28.4200 9.4565 0.3280
28.4400 9.4632 0.3294
28.4600 9.4699 0.3222
28.4800 9.4766 0.3278
28.5000 9.4833 0.3326
28.5200 9.4900 0.3306
28.5400 9.4967 0.3223
28.5600 9.5033 0.3221
28.5800 9.5099 0.3247
28.6000 9.5166 0.3304
28.6200 9.5232 0.3228
28.6400 9.5300 0.3291
28.6600 9.5367 0.3225
28.6800 9.5434 0.3245
28.7000 9.5500 0.3282
28.7200 9.5567 0.3267
28.7400 9.5634 0.3234
28.7600 9.5700 0.3246
28.7800 9.5766 0.3228
28.8000 9.5833 0.3250
28.8200 9.5900 0.3282
28.8400 9.5967 0.3227
28.8600 9.6034 0.3253
28.8800 9.6101 0.3304
28.9000 9.6167 0.3210
28.9200 9.6234 0.3248
28.9400 9.6300 0.3313
28.9600 9.6366 0.3205
28.9800 9.6432 0.3281
29.0000 9.6499 0.3267
29.0200 9.6566 0.3226
29.0400 9.6633 0.3246
29.0600 9.6700 0.3271
29.0800 9.6767 0.3220
29.1000 9.6834 0.3265
29.1200 9.6900 0.3283
29.1400 9.6966 0.3213
29.1600 9.7032 0.3278
29.1800 9.7099 0.3238
29.2000 9.7166 0.3159
29.2200 9.7233 0.3285
29.2400 9.7300 0.3245
29.2600 9.7367 0.3193
29.2800 9.7434 0.3229
29.3000 9.7500 0.3197
29.3200 9.7566 0.3183
29.3400 9.7633 0.3275
29.3600 9.7700 0.3217
29.3800 9.7767 0.3210
29.4000 9.7834 0.3232
29.4200 9.7901 0.3200
29.4400 9.7967 0.3185
29.4600 9.8034 0.3243
29.4800 9.8100 0.3247
29.5000 9.8166 0.3204
29.5200 9.8233 0.3216
29.5400 9.8300 0.3216
29.5600 9.8367 0.3241
29.5800 9.8434 0.3154
29.6000 9.8500 0.3212
29.6200 9.8567 0.3216
29.6400 9.8634 0.3146
29.6600 9.8700 0.3194
29.6800 9.8766 0.3208
29.7000 9.8833 0.3150
29.7200 9.8900 0.3275
29.7400 9.8967 0.3149
29.7600 9.9033 0.3134
29.7800 9.9100 0.3271
29.8000 9.9167 0.3178
29.8200 9.9234 0.3110
29.8400 9.9299 0.3269
29.8600 9.9365 0.3128
29.8800 9.9432 0.3207
29.9000 9.9499 0.3261
29.9200 9.9566 0.3071
29.9400 9.9633 0.3205
29.9600 9.9700 0.3267
29.9800 9.9767 0.3048
30.0000 9.9833 0.3162
30.0200 9.9899 0.3261
30.0400 9.9966 0.3091
30.0600 10.0032 0.3166
30.0800 10.0100 0.3215
30.1000 10.0167 0.3100
30.1200 10.0234 0.3217
30.1400 10.0300 0.3155
30.1600 10.0367 0.3083
30.1800 10.0434 0.3217
30.2000 10.0500 0.3144
30.2200 10.0566 0.3145
30.2400 10.0633 0.3220
30.2600 10.0700 0.3178
30.2800 10.0767 0.3101
30.3000 10.0834 0.3142
30.3200 10.0900 0.3141
30.3400 10.0967 0.3193
30.3600 10.1034 0.3073
30.3800 10.1100 0.3120
30.4000 10.1166 0.3238
30.4200 10.1232 0.3110
30.4400 10.1299 0.3114
30.4600 10.1366 0.3246
30.4800 10.1433 0.3059
30.5000 10.1500 0.3144
30.5200 10.1567 0.3198
30.5400 10.1633 0.3101
30.5600 10.1699 0.3133
30.5800 10.1765 0.3181
30.6000 10.1832 0.3067
30.6200 10.1899 0.3149
30.6400 10.1967 0.3170
30.6600 10.2033 0.3066
30.6800 10.2100 0.3182
30.7000 10.2167 0.3136
30.7200 10.2234 0.3035
30.7400 10.2300 0.3181
30.7600 10.2366 0.3168
30.7800 10.2433 0.3046
30.8000 10.2500 0.3192
30.8200 10.2566 0.3080
30.8400 10.2633 0.3040
30.8600 10.2700 0.3238
30.8800 10.2767 0.3089
30.9000 10.2834 0.3034
30.9200 10.2900 0.3242
30.9400 10.2966 0.3050
30.9600 10.3032 0.3080
30.9800 10.3099 0.3218
31.0000 10.3167 0.3053
31.0200 10.3234 0.3099
31.0400 10.3300 0.3199
31.0600 10.3367 0.3041
31.0800 10.3434 0.3084
31.1000 10.3500 0.3191
31.1200 10.3566 0.3087
31.1400 10.3632 0.3048
31.1600 10.3699 0.3183
31.1800 10.3766 0.3082
31.2000 10.3833 0.3029
31.2200 10.3900 0.3163
31.2400 10.3967 0.3119
31.2600 10.4034 0.3018
31.2800 10.4100 0.3135
31.3000 10.4166 0.3151
31.3200 10.4232 0.3029
31.3400 10.4299 0.3150
31.3600 10.4366 0.3096
31.3800 10.4433 0.3036
31.4000 10.4500 0.3190
31.4200 10.4567 0.3096
31.4400 10.4634 0.3027
31.4600 10.4700 0.3145
31.4800 10.4766 0.3116
31.5000 10.4832 0.3065
31.5200 10.4899 0.3128
31.5400 10.4967 0.3131
31.5600 10.5034 0.3052
31.5800 10.5101 0.3105
31.6000 10.5167 0.3072
31.6200 10.5234 0.3079
31.6400 10.5300 0.3095
31.6600 10.5366 0.3055
31.6800 10.5433 0.3065
31.7000 10.5500 0.3146
31.7200 10.5567 0.3071
31.7400 10.5634 0.3093
31.7600 10.5701 0.3130
31.7800 10.5767 0.3074
31.8000 10.5834 0.3014
31.8200 10.5900 0.3131
31.8400 10.5966 0.3077
31.8600 10.6032 0.3078
31.8800 10.6099 0.3063
31.9000 10.6166 0.3056
31.9200 10.6233 0.3094
31.9400 10.6300 0.3073
31.9600 10.6367 0.3064
31.9800 10.6434 0.3091
32.0000 10.6500 0.3064
32.0200 10.6566 0.3074
32.0400 10.6632 0.3113
32.0600 10.6699 0.3053
32.0800 10.6766 0.3056
32.1000 10.6833 0.3077
32.1200 10.6900 0.3043
32.1400 10.6967 0.3068
32.1600 10.7033 0.3120
32.1800 10.7100 0.2987
32.2000 10.7166 0.3105
32.2200 10.7233 0.3085
32.2400 10.7299 0.3034
32.2600 10.7367 0.3109
32.2800 10.7434 0.3044
32.3000 10.7500 0.3039
32.3200 10.7567 0.3131
32.3400 10.7634 0.3039
32.3600 10.7701 0.3035
32.3800 10.7767 0.3101
32.4000 10.7833 0.3082
32.4200 10.7899 0.3044
32.4400 10.7966 0.3115
32.4600 10.8034 0.3055
32.4800 10.8100 0.3036
32.5000 10.8167 0.3091
32.5200 10.8234 0.3067
32.5400 10.8300 0.3037
32.5600 10.8366 0.3098
32.5800 10.8432 0.3081
32.6000 10.8499 0.3011
32.6200 10.8566 0.3113
32.6400 10.8633 0.3057
32.6600 10.8700 0.3006
32.6800 10.8767 0.3107
32.7000 10.8834 0.3063
32.7200 10.8900 0.3024
32.7400 10.8966 0.3107
32.7600 10.9032 0.3058
32.7800 10.9099 0.3010
32.8000 10.9166 0.3091
32.8200 10.9233 0.3087
32.8400 10.9300 0.3042
32.8600 10.9366 0.3073
32.8800 10.9433 0.3028
32.9000 10.9500 0.3031
32.9200 10.9566 0.3064
32.9400 10.9632 0.3070
32.9600 10.9699 0.3048
32.9800 10.9766 0.3058
33.0000 10.9833 0.3056
33.0200 10.9900 0.3030
33.0400 10.9967 0.3055
33.0600 11.0034 0.3090
33.0800 11.0100 0.2975
33.1000 11.0166 0.3075
33.1200 11.0233 0.3114
33.1400 11.0299 0.3009
33.1600 11.0367 0.3046
33.1800 11.0434 0.3084
33.2000 11.0500 0.3060
33.2200 11.0567 0.3053
33.2400 11.0634 0.3051
33.2600 11.0700 0.3046
33.2800 11.0766 0.3069
33.3000 11.0832 0.3063
33.3200 11.0899 0.3019
33.3400 11.0966 0.3116
33.3600 11.1033 0.3083
33.3800 11.1100 0.2991
33.4000 11.1167 0.3111
33.4200 11.1234 0.3047
33.4400 11.1300 0.2998
33.4600 11.1366 0.3065
33.4800 11.1432 0.3102
33.5000 11.1499 0.2985
33.5200 11.1566 0.3077
33.5400 11.1633 0.3057
33.5600 11.1700 0.2979
33.5800 11.1767 0.3078
33.6000 11.1834 0.3053
33.6200 11.1900 0.3001
33.6400 11.1966 0.3057
33.6600 11.2032 0.3043
33.6800 11.2099 0.3053
33.7000 11.2167 0.3055
33.7200 11.2234 0.3007
33.7400 11.2301 0.3039
33.7600 11.2367 0.3080
33.7800 11.2434 0.3004
33.8000 11.2500 0.3010
33.8200 11.2566 0.3068
33.8400 11.2633 0.3079
33.8600 11.2699 0.3034
33.8800 11.2766 0.2991
33.9000 11.2833 0.3087
33.9200 11.2900 0.3063
33.9400 11.2967 0.3009
33.9600 11.3034 0.3047
33.9800 11.3101 0.3082
34.0000 11.3166 0.3001
34.0200 11.3232 0.3102
34.0400 11.3299 0.3084
34.0600 11.3366 0.2986
34.0800 11.3433 0.3058
34.1000 11.3500 0.3066
34.1200 11.3567 0.3019
34.1400 11.3634 0.3102
34.1600 11.3700 0.2996
34.1800 11.3766 0.2997
34.2000 11.3832 0.3100
34.2200 11.3899 0.3012
34.2400 11.3966 0.3012
34.2600 11.4033 0.3097
34.2800 11.4100 0.2989
34.3000 11.4166 0.2999
34.3200 11.4233 0.3098
34.3400 11.4300 0.3035
34.3600 11.4366 0.2993
34.3800 11.4432 0.3055
34.4000 11.4499 0.2997
34.4200 11.4566 0.3021
34.4400 11.4633 0.3042
34.4600 11.4700 0.3023
34.4800 11.4767 0.3013
34.5000 11.4834 0.2987
34.5200 11.4901 0.3044
34.5400 11.4967 0.2969
34.5600 11.5033 0.3045
34.5800 11.5099 0.3013
34.6000 11.5166 0.2958
34.6200 11.5234 0.3079
34.6400 11.5301 0.3018
34.6600 11.5367 0.2920
34.6800 11.5434 0.3048
34.7000 11.5500 0.3023
34.7200 11.5566 0.2951
34.7400 11.5632 0.3041
34.7600 11.5699 0.3038
34.7800 11.5766 0.2926
34.8000 11.5833 0.3113
34.8200 11.5900 0.2976
34.8400 11.5966 0.2906
34.8600 11.6033 0.3106
34.8800 11.6100 0.2942
34.9000 11.6166 0.2915
34.9200 11.6232 0.3153
34.9400 11.6299 0.2926
34.9600 11.6366 0.2911
34.9800 11.6433 0.3062
35.0000 11.6500 0.2948
35.0200 11.6567 0.2930
35.0400 11.6634 0.3090
35.0600 11.6701 0.2898
35.0800 11.6767 0.2893
35.1000 11.6833 0.3099
35.1200 11.6899 0.2946
35.1400 11.6966 0.2915
35.1600 11.7033 0.3017
35.1800 11.7100 0.2937
35.2000 11.7167 0.2932
35.2200 11.7234 0.3022
35.2400 11.7301 0.2883
35.2600 11.7367 0.2935
35.2800 11.7433 0.2990
35.3000 11.7499 0.2898
35.3200 11.7566 0.2976
35.3400 11.7633 0.2992
35.3600 11.7700 0.2898
35.3800 11.7767 0.2936
35.4000 11.7834 0.2942
35.4200 11.7901 0.2971
35.4400 11.7967 0.2887
35.4600 11.8033 0.2943
35.4800 11.8099 0.3004
35.5000 11.8166 0.2908
35.5200 11.8233 0.2927
35.5400 11.8300 0.2975
35.5600 11.8367 0.2858
35.5800 11.8434 0.2950
35.6000 11.8501 0.2987
35.6200 11.8567 0.2851
35.6400 11.8632 0.2969
35.6600 11.8698 0.2965
35.6800 11.8765 0.2822
35.7000 11.8833 0.3036
35.7200 11.8900 0.2931
35.7400 11.8967 0.2823
35.7600 11.9033 0.3070
35.7800 11.9100 0.2896
35.8000 11.9166 0.2869
35.8200 11.9232 0.3052
35.8400 11.9299 0.2941
35.8600 11.9366 0.2846
35.8800 11.9433 0.3015
35.9000 11.9500 0.2899
35.9200 11.9567 0.2892
35.9400 11.9634 0.3033
35.9600 11.9701 0.2868
35.9800 11.9767 0.2869
36.0000 11.9833 0.3051
36.0200 11.9899 0.2840
36.0400 11.9966 0.2928
36.0600 12.0033 0.3029
36.0800 12.0100 0.2891
36.1000 12.0167 0.2910
36.1200 12.0234 0.3025
36.1400 12.0301 0.2922
36.1600 12.0367 0.2907
36.1800 12.0433 0.2953
36.2000 12.0499 0.2971
36.2200 12.0566 0.2940
36.2400 12.0633 0.2916
36.2600 12.0700 0.2913
36.2800 12.0767 0.2962
36.3000 12.0833 0.2916
36.3200 12.0900 0.2950
36.3400 12.0966 0.2967
36.3600 12.1032 0.2899
36.3800 12.1099 0.2946
36.4000 12.1166 0.2951
36.4200 12.1233 0.2927
36.4400 12.1300 0.2952
36.4600 12.1366 0.2948
36.4800 12.1433 0.2898
36.5000 12.1500 0.2957
36.5200 12.1567 0.2952
36.5400 12.1633 0.2887
36.5600 12.1699 0.2963
36.5800 12.1766 0.2990
36.6000 12.1833 0.2858
36.6200 12.1900 0.2962
36.6400 12.1967 0.2939
36.6600 12.2034 0.2917
36.6800 12.2101 0.2941
36.7000 12.2167 0.2931
36.7200 12.2233 0.2914
36.7400 12.2299 0.3026
36.7600 12.2366 0.2917
36.7800 12.2434 0.2895
36.8000 12.2500 0.2936
36.8200 12.2567 0.2900
36.8400 12.2634 0.2907
36.8600 12.2700 0.2924
36.8800 12.2766 0.2885
36.9000 12.2833 0.2915
36.9200 12.2899 0.2961
36.9400 12.2966 0.2914
36.9600 12.3033 0.2881
36.9800 12.3100 0.2981
37.0000 12.3167 0.2901
37.0200 12.3233 0.2902
37.0400 12.3300 0.2955
37.0600 12.3367 0.2845
37.0800 12.3433 0.2949
37.1000 12.3499 0.2926
37.1200 12.3565 0.2885
37.1400 12.3633 0.2896
37.1600 12.3700 0.2933
37.1800 12.3767 0.2896
37.2000 12.3834 0.2905
37.2200 12.3901 0.2921
37.2400 12.3967 0.2873
37.2600 12.4033 0.2891
37.2800 12.4099 0.2966
37.3000 12.4166 0.2891
37.3200 12.4233 0.2887
37.3400 12.4300 0.2881
37.3600 12.4367 0.2916
37.3800 12.4434 0.2857
37.4000 12.4501 0.2900
37.4200 12.4567 0.2925
37.4400 12.4633 0.2837
37.4600 12.4699 0.2920
37.4800 12.4766 0.2926
37.5000 12.4833 0.2840
37.5200 12.4900 0.2923
37.5400 12.4967 0.2929
37.5600 12.5034 0.2779
37.5800 12.5101 0.2944
37.6000 12.5167 0.2995
37.6200 12.5233 0.2791
37.6400 12.5299 0.2912
37.6600 12.5366 0.2986
37.6800 12.5433 0.2765
37.7000 12.5500 0.2932
37.7200 12.5567 0.2947
37.7400 12.5634 0.2785
37.7600 12.5700 0.2891
37.7800 12.5766 0.2935
37.8000 12.5832 0.2766
37.8200 12.5898 0.2974
37.8400 12.5965 0.2936
37.8600 12.6032 0.2726
37.8800 12.6099 0.2915
37.9000 12.6166 0.2941
37.9200 12.6233 0.2762
37.9400 12.6300 0.2937
37.9600 12.6366 0.2904
37.9800 12.6433 0.2775
38.0000 12.6499 0.2897
38.0200 12.6566 0.2961
38.0400 12.6633 0.2740
38.0600 12.6700 0.2875
38.0800 12.6767 0.2889
38.1000 12.6834 0.2752
38.1200 12.6901 0.2889
38.1400 12.6967 0.2914
38.1600 12.7033 0.2769
38.1800 12.7099 0.2876
38.2000 12.7166 0.2899
38.2200 12.7233 0.2754
38.2400 12.7300 0.2864
38.2600 12.7367 0.2881
38.2800 12.7434 0.2791
38.3000 12.7500 0.2846
38.3200 12.7567 0.2858
38.3400 12.7633 0.2772
38.3600 12.7699 0.2864
38.3800 12.7766 0.2844
38.4000 12.7833 0.2804
38.4200 12.7900 0.2831
38.4400 12.7967 0.2825
38.4600 12.8033 0.2762
38.4800 12.8100 0.2849
38.5000 12.8167 0.2883
38.5200 12.8233 0.2733
38.5400 12.8299 0.2829
38.5600 12.8366 0.2900
38.5800 12.8433 0.2688
38.6000 12.8500 0.2856
38.6200 12.8566 0.2890
38.6400 12.8633 0.2709
38.6600 12.8700 0.2796
38.6800 12.8767 0.2820
38.7000 12.8833 0.2762
38.7200 12.8899 0.2892
38.7400 12.8966 0.2816
38.7600 12.9033 0.2729
38.7800 12.9100 0.2836
38.8000 12.9167 0.2836
38.8200 12.9234 0.2822
38.8400 12.9301 0.2783
38.8600 12.9367 0.2790
38.8800 12.9433 0.2800
38.9000 12.9499 0.2802
38.9200 12.9566 0.2807
38.9400 12.9633 0.2841
38.9600 12.9701 0.2709
38.9800 12.9767 0.2867
39.0000 12.9834 0.2835
39.0200 12.9901 0.2686
39.0400 12.9967 0.2882
39.0600 13.0033 0.2784
39.0800 13.0099 0.2705
39.1000 13.0166 0.2925
39.1200 13.0232 0.2771
39.1400 13.0300 0.2680
39.1600 13.0366 0.2948
39.1800 13.0433 0.2767
39.2000 13.0500 0.2667
39.2200 13.0567 0.3002
39.2400 13.0633 0.2682
39.2600 13.0699 0.2725
39.2800 13.0765 0.3032
39.3000 13.0832 0.2702
39.3200 13.0900 0.2743
39.3400 13.0967 0.3001
39.3600 13.1034 0.2644
39.3800 13.1100 0.2740
39.4000 13.1167 0.2943
39.4200 13.1233 0.2657
39.4400 13.1299 0.2818
39.4600 13.1366 0.2930
39.4800 13.1433 0.2659
39.5000 13.1500 0.2800
39.5200 13.1567 0.2928
39.5400 13.1633 0.2651
39.5600 13.1700 0.2823
39.5800 13.1767 0.2902
39.6000 13.1833 0.2681
39.6200 13.1899 0.2772
39.6400 13.1966 0.2865
39.6600 13.2033 0.2688
39.6800 13.2100 0.2802
39.7000 13.2167 0.2811
39.7200 13.2234 0.2708
39.7400 13.2301 0.2803
39.7600 13.2367 0.2817
39.7800 13.2433 0.2743
39.8000 13.2499 0.2790
39.8200 13.2566 0.2792
39.8400 13.2633 0.2814
39.8600 13.2700 0.2693
39.8800 13.2767 0.2765
39.9000 13.2834 0.2810
39.9200 13.2900 0.2746
39.9400 13.2967 0.2754
39.9600 13.3033 0.2744
39.9800 13.3099 0.2719
40.0000 13.3166 0.2808
40.0200 13.3233 0.2773
40.0400 13.3300 0.2691
40.0600 13.3366 0.2804
40.0800 13.3433 0.2791
40.1000 13.3500 0.2684
40.1200 13.3566 0.2830
40.1400 13.3633 0.2741
40.1600 13.3699 0.2685
40.1800 13.3766 0.2824
40.2000 13.3833 0.2715
40.2200 13.3900 0.2732
40.2400 13.3967 0.2817
40.2600 13.4034 0.2700
40.2800 13.4101 0.2749
40.3000 13.4168 0.2761
40.3200 13.4234 0.2702
40.3400 13.4299 0.2749
40.3600 13.4366 0.2754
40.3800 13.4433 0.2762
40.4000 13.4500 0.2732
40.4200 13.4567 0.2743
40.4400 13.4634 0.2802
40.4600 13.4701 0.2756
40.4800 13.4767 0.2647
40.5000 13.4833 0.2774
40.5200 13.4899 0.2720
40.5400 13.4966 0.2689
40.5600 13.5032 0.2845
40.5800 13.5100 0.2706
40.6000 13.5166 0.2681
40.6200 13.5233 0.2849
40.6400 13.5300 0.2676
40.6600 13.5367 0.2708
40.6800 13.5433 0.2811
40.7000 13.5499 0.2637
40.7200 13.5565 0.2737
40.7400 13.5632 0.2829
40.7600 13.5699 0.2648
40.7800 13.5766 0.2711
40.8000 13.5833 0.2846
40.8200 13.5900 0.2605
40.8400 13.5967 0.2715
40.8600 13.6033 0.2813
40.8800 13.6099 0.2673
40.9000 13.6165 0.2711
40.9200 13.6233 0.2767
40.9400 13.6300 0.2632
40.9600 13.6367 0.2774
40.9800 13.6434 0.2737
41.0000 13.6501 0.2665
41.0200 13.6567 0.2736
41.0400 13.6634 0.2718
41.0600 13.6700 0.2668
41.0800 13.6766 0.2766
41.1000 13.6833 0.2717
41.1200 13.6900 0.2708
41.1400 13.6967 0.2741
41.1600 13.7033 0.2694
41.1800 13.7100 0.2708
41.2000 13.7167 0.2716
41.2200 13.7233 0.2674
41.2400 13.7299 0.2712
41.2600 13.7366 0.2690
41.2800 13.7433 0.2724
41.3000 13.7500 0.2757
41.3200 13.7567 0.2653
41.3400 13.7633 0.2731
41.3600 13.7700 0.2733
41.3800 13.7767 0.2621
41.4000 13.7833 0.2709
41.4200 13.7899 0.2766
41.4400 13.7965 0.2606
41.4600 13.8032 0.2732
41.4800 13.8099 0.2738
41.5000 13.8166 0.2614
41.5200 13.8233 0.2688
41.5400 13.8300 0.2730
41.5600 13.8367 0.2642
41.5800 13.8433 0.2679
41.6000 13.8499 0.2675
41.6200 13.8566 0.2701
41.6400 13.8633 0.2750
41.6600 13.8700 0.2631
41.6800 13.8766 0.2650
41.7000 13.8833 0.2793
41.7200 13.8900 0.2599
41.7400 13.8967 0.2569
41.7600 13.9034 0.2776
41.7800 13.9100 0.2697
41.8000 13.9166 0.2588
41.8200 13.9233 0.2653
41.8400 13.9300 0.2660
41.8600 13.9367 0.2666
41.8800 13.9434 0.2665
41.9000 13.9501 0.2585
41.9200 13.9567 0.2619
41.9400 13.9634 0.2662
41.9600 13.9700 0.2669
41.9800 13.9766 0.2649
42.0000 13.9833 0.2630
42.0200 13.9900 0.2678
42.0400 13.9966 0.2629
42.0600 14.0033 0.2607
42.0800 14.0100 0.2695
42.1000 14.0167 0.2595
42.1200 14.0234 0.2623
42.1400 14.0300 0.2689
42.1600 14.0365 0.2607
42.1800 14.0432 0.2596
42.2000 14.0499 0.2743
42.2200 14.0566 0.2575
42.2400 14.0633 0.2600
42.2600 14.0700 0.2735
42.2800 14.0767 0.2571
42.3000 14.0833 0.2599
42.3200 14.0899 0.2757
42.3400 14.0966 0.2558
42.3600 14.1033 0.2619
42.3800 14.1100 0.2740
42.4000 14.1167 0.2515
42.4200 14.1234 0.2616
42.4400 14.1301 0.2755
42.4600 14.1368 0.2491
42.4800 14.1434 0.2622
42.5000 14.1500 0.2696
42.5200 14.1566 0.2562
42.5400 14.1633 0.2672
42.5600 14.1700 0.2670
42.5800 14.1767 0.2532
42.6000 14.1834 0.2684
42.6200 14.1900 0.2637
42.6400 14.1967 0.2529
42.6600 14.2034 0.2738
42.6800 14.2100 0.2655
42.7000 14.2166 0.2474
42.7200 14.2232 0.2703
42.7400 14.2299 0.2721
42.7600 14.2366 0.2487
42.7800 14.2433 0.2697
42.8000 14.2500 0.2670
42.8200 14.2567 0.2557
42.8400 14.2633 0.2650
42.8600 14.2699 0.2642
42.8800 14.2765 0.2594
42.9000 14.2832 0.2625
42.9200 14.2899 0.2651
42.9400 14.2967 0.2587
42.9600 14.3033 0.2600
42.9800 14.3100 0.2661
43.0000 14.3167 0.2574
43.0200 14.3233 0.2610
43.0400 14.3300 0.2633
43.0600 14.3366 0.2605
43.0800 14.3433 0.2586
43.1000 14.3500 0.2607
43.1200 14.3567 0.2569
43.1400 14.3634 0.2626
43.1600 14.3700 0.2660
43.1800 14.3767 0.2507
43.2000 14.3834 0.2606
43.2200 14.3900 0.2682
43.2400 14.3966 0.2567
43.2600 14.4033 0.2579
43.2800 14.4100 0.2675
43.3000 14.4167 0.2523
43.3200 14.4234 0.2542
43.3400 14.4301 0.2689
43.3600 14.4367 0.2562
43.3800 14.4434 0.2517
43.4000 14.4500 0.2692
43.4200 14.4566 0.2520
43.4400 14.4632 0.2596
43.4600 14.4699 0.2678
43.4800 14.4766 0.2513
43.5000 14.4833 0.2581
43.5200 14.4900 0.2699
43.5400 14.4967 0.2497
43.5600 14.5033 0.2570
43.5800 14.5099 0.2668
43.6000 14.5165 0.2491
43.6200 14.5232 0.2603
43.6400 14.5299 0.2669
43.6600 14.5366 0.2457
43.6800 14.5433 0.2604
43.7000 14.5500 0.2657
43.7200 14.5567 0.2455
43.7400 14.5634 0.2579
43.7600 14.5700 0.2669
43.7800 14.5766 0.2514
43.8000 14.5832 0.2564
43.8200 14.5899 0.2602
43.8400 14.5966 0.2496
43.8600 14.6033 0.2580
43.8800 14.6100 0.2577
43.9000 14.6167 0.2560
43.9200 14.6234 0.2554
43.9400 14.6300 0.2547
43.9600 14.6366 0.2550
43.9800 14.6432 0.2573
44.0000 14.6499 0.2591
44.0200 14.6567 0.2533
44.0400 14.6634 0.2492
44.0600 14.6700 0.2607
44.0800 14.6767 0.2537
44.1000 14.6834 0.2551
44.1200 14.6900 0.2604
44.1400 14.6966 0.2556
44.1600 14.7032 0.2545
44.1800 14.7099 0.2611
44.2000 14.7166 0.2503
44.2200 14.7233 0.2551
44.2400 14.7300 0.2647
44.2600 14.7367 0.2517
44.2800 14.7434 0.2537
44.3000 14.7500 0.2597
44.3200 14.7566 0.2532
44.3400 14.7632 0.2607
44.3600 14.7699 0.2597
44.3800 14.7766 0.2528
44.4000 14.7833 0.2613
44.4200 14.7900 0.2596
44.4400 14.7966 0.2459
44.4600 14.8033 0.2571
44.4800 14.8099 0.2606
44.5000 14.8165 0.2523
44.5200 14.8232 0.2588
44.5400 14.8299 0.2552
44.5600 14.8367 0.2558
44.5800 14.8434 0.2583
44.6000 14.8500 0.2534
44.6200 14.8567 0.2553
44.6400 14.8634 0.2613
44.6600 14.8700 0.2528
44.6800 14.8766 0.2553
44.7000 14.8833 0.2590
44.7200 14.8900 0.2579
44.7400 14.8967 0.2528
44.7600 14.9034 0.2601
44.7800 14.9100 0.2516
44.8000 14.9167 0.2610
44.8200 14.9234 0.2580
44.8400 14.9300 0.2515
44.8600 14.9366 0.2591
44.8800 14.9432 0.2590
44.9000 14.9499 0.2562
44.9200 14.9566 0.2562
44.9400 14.9633 0.2571
44.9600 14.9700 0.2582
44.9800 14.9767 0.2594
45.0000 14.9834 0.2533
45.0200 14.9900 0.2552
45.0400 14.9966 0.2674
45.0600 15.0032 0.2531
45.0800 15.0099 0.2525
45.1000 15.0166 0.2620
45.1200 15.0233 0.2511
45.1400 15.0300 0.2572
45.1600 15.0367 0.2620
45.1800 15.0434 0.2536
45.2000 15.0500 0.2591
45.2200 15.0566 0.2584
45.2400 15.0633 0.2480
45.2600 15.0699 0.2630
45.2800 15.0766 0.2583
45.3000 15.0833 0.2515
45.3200 15.0900 0.2599
45.3400 15.0967 0.2626
45.3600 15.1034 0.2483
45.3800 15.1101 0.2547
45.4000 15.1166 0.2600
45.4200 15.1232 0.2584
45.4400 15.1299 0.2542
45.4600 15.1367 0.2590
45.4800 15.1434 0.2513
45.5000 15.1501 0.2509
45.5200 15.1567 0.2608
45.5400 15.1634 0.2558
45.5600 15.1700 0.2481
45.5800 15.1766 0.2643
45.6000 15.1832 0.2575
45.6200 15.1899 0.2466
45.6400 15.1967 0.2649
45.6600 15.2034 0.2593
45.6800 15.2100 0.2418
45.7000 15.2167 0.2632
45.7200 15.2234 0.2639
45.7400 15.2300 0.2375
45.7600 15.2366 0.2622
45.7800 15.2432 0.2584
45.8000 15.2499 0.2420
45.8200 15.2566 0.2655
45.8400 15.2633 0.2551
45.8600 15.2700 0.2410
45.8800 15.2767 0.2687
45.9000 15.2834 0.2540
45.9200 15.2900 0.2365
45.9400 15.2966 0.2684
45.9600 15.3032 0.2602
45.9800 15.3099 0.2427
46.0000 15.3167 0.2642
46.0200 15.3233 0.2519
46.0400 15.3300 0.2425
46.0600 15.3367 0.2601
46.0800 15.3434 0.2512
46.1000 15.3500 0.2441
46.1200 15.3566 0.2573
46.1400 15.3633 0.2526
46.1600 15.3700 0.2455
46.1800 15.3767 0.2561
46.2000 15.3834 0.2531
46.2200 15.3900 0.2439
46.2400 15.3967 0.2534
46.2600 15.4034 0.2548
46.2800 15.4100 0.2444
46.3000 15.4166 0.2492
46.3200 15.4232 0.2540
46.3400 15.4299 0.2442
46.3600 15.4366 0.2513
46.3800 15.4433 0.2544
46.4000 15.4500 0.2385
46.4200 15.4567 0.2551
46.4400 15.4634 0.2543
46.4600 15.4700 0.2389
46.4800 15.4766 0.2512
46.5000 15.4832 0.2535
46.5200 15.4899 0.2406
46.5400 15.4966 0.2510
46.5600 15.5033 0.2526
46.5800 15.5100 0.2425
46.6000 15.5167 0.2479
46.6200 15.5234 0.2506
46.6400 15.5300 0.2420
46.6600 15.5366 0.2518
46.6800 15.5432 0.2498
46.7000 15.5499 0.2479
46.7200 15.5566 0.2442
46.7400 15.5633 0.2518
46.7600 15.5700 0.2457
46.7800 15.5767 0.2448
46.8000 15.5834 0.2544
46.8200 15.5901 0.2395
46.8400 15.5966 0.2475
46.8600 15.6032 0.2557
46.8800 15.6099 0.2401
46.9000 15.6166 0.2486
46.9200 15.6234 0.2547
46.9400 15.6301 0.2370
46.9600 15.6367 0.2449
46.9800 15.6434 0.2556
47.0000 15.6500 0.2354
47.0200 15.6566 0.2427
47.0400 15.6632 0.2627
47.0600 15.6699 0.2334
47.0800 15.6766 0.2433
47.1000 15.6833 0.2530
47.1200 15.6900 0.2331
47.1400 15.6967 0.2496
47.1600 15.7034 0.2534
47.1800 15.7100 0.2299
47.2000 15.7166 0.2482
47.2200 15.7232 0.2506
47.2400 15.7299 0.2341
47.2600 15.7366 0.2490
47.2800 15.7433 0.2507
47.3000 15.7500 0.2327
47.3200 15.7567 0.2508
47.3400 15.7634 0.2485
47.3600 15.7700 0.2349
47.3800 15.7766 0.2450
47.4000 15.7833 0.2490
47.4200 15.7899 0.2347
47.4400 15.7966 0.2463
47.4600 15.8033 0.2463
47.4800 15.8100 0.2364
47.5000 15.8167 0.2483
47.5200 15.8234 0.2460
47.5400 15.8300 0.2360
47.5600 15.8366 0.2444
47.5800 15.8432 0.2447
47.6000 15.8499 0.2401
47.6200 15.8566 0.2423
47.6400 15.8634 0.2454
47.6600 15.8700 0.2404
47.6800 15.8767 0.2419
47.7000 15.8834 0.2510
47.7200 15.8901 0.2315
47.7400 15.8967 0.2406
47.7600 15.9033 0.2505
47.7800 15.9099 0.2341
47.8000 15.9166 0.2401
47.8200 15.9233 0.2528
47.8400 15.9300 0.2296
47.8600 15.9367 0.2456
47.8800 15.9434 0.2519
47.9000 15.9500 0.2305
47.9200 15.9566 0.2429
47.9400 15.9632 0.2540
47.9600 15.9699 0.2305
47.9800 15.9766 0.2472
48.0000 15.9833 0.2468
48.0200 15.9900 0.2277
48.0400 15.9967 0.2509
48.0600 16.0034 0.2458
48.0800 16.0100 0.2307
48.1000 16.0166 0.2506
48.1200 16.0233 0.2448
48.1400 16.0299 0.2356
48.1600 16.0367 0.2484
48.1800 16.0434 0.2404
48.2000 16.0501 0.2381
48.2200 16.0567 0.2454
48.2400 16.0634 0.2423
48.2600 16.0700 0.2373
48.2800 16.0767 0.2467
48.3000 16.0833 0.2433
48.3200 16.0899 0.2397
48.3400 16.0966 0.2413
48.3600 16.1033 0.2441
48.3800 16.1100 0.2400
48.4000 16.1167 0.2403
48.4200 16.1234 0.2474
48.4400 16.1300 0.2424
48.4600 16.1366 0.2345
48.4800 16.1432 0.2492
48.5000 16.1499 0.2438
48.5200 16.1566 0.2372
48.5400 16.1633 0.2432
48.5600 16.1700 0.2436
48.5800 16.1767 0.2364
48.6000 16.1834 0.2433
48.6200 16.1900 0.2439
48.6400 16.1966 0.2351
48.6600 16.2032 0.2440
48.6800 16.2099 0.2431
48.7000 16.2166 0.2349
48.7200 16.2233 0.2445
48.7400 16.2300 0.2382
48.7600 16.2367 0.2343
48.7800 16.2433 0.2468
48.8000 16.2500 0.2430
48.8200 16.2566 0.2315
48.8400 16.2633 0.2450
48.8600 16.2699 0.2416
48.8800 16.2766 0.2306
48.9000 16.2833 0.2459
48.9200 16.2900 0.2409
48.9400 16.2967 0.2337
48.9600 16.3034 0.2409
48.9800 16.3101 0.2395
49.0000 16.3167 0.2373
49.0200 16.3233 0.2408
49.0400 16.3299 0.2342
49.0600 16.3366 0.2390
49.0800 16.3433 0.2366
49.1000 16.3500 0.2362
49.1200 16.3567 0.2385
49.1400 16.3634 0.2388
49.1600 16.3700 0.2343
49.1800 16.3766 0.2377
49.2000 16.3833 0.2328
49.2200 16.3899 0.2400
49.2400 16.3966 0.2334
49.2600 16.4033 0.2366
49.2800 16.4100 0.2379
49.3000 16.4166 0.2327
49.3200 16.4233 0.2334
49.3400 16.4300 0.2373
49.3600 16.4366 0.2309
49.3800 16.4432 0.2371
49.4000 16.4499 0.2367
49.4200 16.4566 0.2284
49.4400 16.4633 0.2400
49.4600 16.4700 0.2366
49.4800 16.4767 0.2259
49.5000 16.4834 0.2376
49.5200 16.4901 0.2374
49.5400 16.4967 0.2248
49.5600 16.5033 0.2336
49.5800 16.5099 0.2398
49.6000 16.5166 0.2328
49.6200 16.5233 0.2277
49.6400 16.5300 0.2397
49.6600 16.5367 0.2296
49.6800 16.5434 0.2304
49.7000 16.5501 0.2337
49.7200 16.5567 0.2327
49.7400 16.5633 0.2298
49.7600 16.5699 0.2342
49.7800 16.5766 0.2337
49.8000 16.5833 0.2285
49.8200 16.5900 0.2318
49.8400 16.5967 0.2327
49.8600 16.6034 0.2308
49.8800 16.6101 0.2344
49.9000 16.6167 0.2277
49.9200 16.6233 0.2302
49.9400 16.6299 0.2378
49.9600 16.6366 0.2304
49.9800 16.6433 0.2289
50.0000 16.6500 0.2392
50.0200 16.6567 0.2265
50.0400 16.6634 0.2238
50.0600 16.6701 0.2390
50.0800 16.6767 0.2211
50.1000 16.6833 0.2283
50.1200 16.6899 0.2381
50.1400 16.6965 0.2230
50.1600 16.7033 0.2272
50.1800 16.7100 0.2420
50.2000 16.7167 0.2260
50.2200 16.7234 0.2225
50.2400 16.7300 0.2364
50.2600 16.7367 0.2252
50.2800 16.7433 0.2222
50.3000 16.7499 0.2382
50.3200 16.7566 0.2266
50.3400 16.7633 0.2251
50.3600 16.7700 0.2333
50.3800 16.7767 0.2252
50.4000 16.7834 0.2261
50.4200 16.7901 0.2359
50.4400 16.7967 0.2254
50.4600 16.8033 0.2244
50.4800 16.8099 0.2331
50.5000 16.8166 0.2245
50.5200 16.8233 0.2195
50.5400 16.8300 0.2368
50.5600 16.8367 0.2244
50.5800 16.8434 0.2235
50.6000 16.8501 0.2327
50.6200 16.8567 0.2238
50.6400 16.8633 0.2226
50.6600 16.8699 0.2311
50.6800 16.8766 0.2260
50.7000 16.8833 0.2181
50.7200 16.8900 0.2345
50.7400 16.8967 0.2243
50.7600 16.9034 0.2226
50.7800 16.9100 0.2329
50.8000 16.9167 0.2229
50.8200 16.9233 0.2179
50.8400 16.9299 0.2342
50.8600 16.9366 0.2270
50.8800 16.9433 0.2182
50.9000 16.9500 0.2281
50.9200 16.9566 0.2289
50.9400 16.9633 0.2171
50.9600 16.9700 0.2324
50.9800 16.9767 0.2211
51.0000 16.9833 0.2176
51.0200 16.9899 0.2332
51.0400 16.9966 0.2263
51.0600 17.0033 0.2163
51.0800 17.0100 0.2321
51.1000 17.0167 0.2264
51.1200 17.0234 0.2119
51.1400 17.0301 0.2278
51.1600 17.0367 0.2267
51.1800 17.0433 0.2116
51.2000 17.0499 0.2293
51.2200 17.0566 0.2274
51.2400 17.0633 0.2103
51.2600 17.0700 0.2273
51.2800 17.0767 0.2254
51.3000 17.0834 0.2120
51.3200 17.0900 0.2313
51.3400 17.0967 0.2229
51.3600 17.1033 0.2149
51.3800 17.1099 0.2301
51.4000 17.1166 0.2207
51.4200 17.1233 0.2142
51.4400 17.1300 0.2293
51.4600 17.1367 0.2226
51.4800 17.1433 0.2110
51.5000 17.1500 0.2301
51.5200 17.1567 0.2279
51.5400 17.1633 0.2122
51.5600 17.1699 0.2252
51.5800 17.1766 0.2261
51.6000 17.1833 0.2137
51.6200 17.1900 0.2270
51.6400 17.1967 0.2178
51.6600 17.2034 0.2169
51.6800 17.2100 0.2259
51.7000 17.2167 0.2194
51.7200 17.2233 0.2150
51.7400 17.2299 0.2276
51.7600 17.2366 0.2247
51.7800 17.2433 0.2138
51.8000 17.2500 0.2166
51.8200 17.2567 0.2256
51.8400 17.2634 0.2130
51.8600 17.2701 0.2173
51.8800 17.2767 0.2270
51.9000 17.2833 0.2126
51.9200 17.2900 0.2174
51.9400 17.2966 0.2242
51.9600 17.3033 0.2132
51.9800 17.3100 0.2156
52.0000 17.3167 0.2259
52.0200 17.3234 0.2105
52.0400 17.3301 0.2244
52.0600 17.3367 0.2265
52.0800 17.3433 0.2074
52.1000 17.3499 0.2217
52.1200 17.3566 0.2280
52.1400 17.3633 0.2068
52.1600 17.3700 0.2223
52.1800 17.3767 0.2215
52.2000 17.3834 0.2038
52.2200 17.3900 0.2231
52.2400 17.3967 0.2198
52.2600 17.4033 0.2031
52.2800 17.4099 0.2268
52.3000 17.4165 0.2171
52.3200 17.4232 0.2112
52.3400 17.4299 0.2226
52.3600 17.4366 0.2173
52.3800 17.4433 0.2117
52.4000 17.4500 0.2198
52.4200 17.4567 0.2136
52.4400 17.4633 0.2150
52.4600 17.4699 0.2200
52.4800 17.4766 0.2142
52.5000 17.4833 0.2170
52.5200 17.4900 0.2146
52.5400 17.4967 0.2127
52.5600 17.5034 0.2176
52.5800 17.5101 0.2152
52.6000 17.5167 0.2148
52.6200 17.5233 0.2154
52.6400 17.5299 0.2138
52.6600 17.5366 0.2196
52.6800 17.5433 0.2112
52.7000 17.5500 0.2133
52.7200 17.5567 0.2209
52.7400 17.5634 0.2132
52.7600 17.5701 0.2075
52.7800 17.5767 0.2233
52.8000 17.5833 0.2142
52.8200 17.5899 0.2118
52.8400 17.5966 0.2168
52.8600 17.6033 0.2113
52.8800 17.6100 0.2146
52.9000 17.6167 0.2202
52.9200 17.6233 0.2094
52.9400 17.6300 0.2145
52.9600 17.6367 0.2151
52.9800 17.6433 0.2117
53.0000 17.6499 0.2114
53.0200 17.6566 0.2194
53.0400 17.6633 0.2120
53.0600 17.6700 0.2073
53.0800 17.6766 0.2178
53.1000 17.6833 0.2137
53.1200 17.6900 0.2150
53.1400 17.6967 0.2120
53.1600 17.7033 0.2110
53.1800 17.7099 0.2147
53.2000 17.7166 0.2152
53.2200 17.7233 0.2143
53.2400 17.7300 0.2153
53.2600 17.7367 0.2133
53.2800 17.7434 0.2106
53.3000 17.7501 0.2145
53.3200 17.7567 0.2130
53.3400 17.7633 0.2084
53.3600 17.7699 0.2137
53.3800 17.7766 0.2155
53.4000 17.7833 0.2122
53.4200 17.7900 0.2161
53.4400 17.7967 0.2165
53.4600 17.8034 0.2108
53.4800 17.8100 0.2112
53.5000 17.8167 0.2097
53.5200 17.8233 0.2193
53.5400 17.8299 0.2127
53.5600 17.8366 0.2058
53.5800 17.8433 0.2148
53.6000 17.8500 0.2107
53.6200 17.8566 0.2027
53.6400 17.8633 0.2202
53.6600 17.8700 0.2090
53.6800 17.8767 0.2021
53.7000 17.8833 0.2164
53.7200 17.8899 0.2072
53.7400 17.8965 0.2108
53.7600 17.9032 0.2164
53.7800 17.9100 0.1972
53.8000 17.9167 0.2139
53.8200 17.9233 0.2167
53.8400 17.9300 0.1994
53.8600 17.9367 0.2110
53.8800 17.9433 0.2160
53.9000 17.9499 0.1984
53.9200 17.9566 0.2048
53.9400 17.9633 0.2138
53.9600 17.9700 0.1981
53.9800 17.9767 0.2097
54.0000 17.9834 0.2161
54.0200 17.9900 0.1980
54.0400 17.9967 0.2041
54.0600 18.0033 0.2123
54.0800 18.0099 0.1968
54.1000 18.0166 0.2068
54.1200 18.0233 0.2135
54.1400 18.0300 0.1988
54.1600 18.0367 0.2039
54.1800 18.0434 0.2145
54.2000 18.0501 0.1976
54.2200 18.0567 0.2060
54.2400 18.0634 0.2080
54.2600 18.0699 0.1989
54.2800 18.0766 0.2074
54.3000 18.0833 0.2077
54.3200 18.0900 0.1929
54.3400 18.0967 0.2061
54.3600 18.1034 0.2061
54.3800 18.1100 0.1950
54.4000 18.1167 0.2030
54.4200 18.1233 0.2041
54.4400 18.1299 0.1965
54.4600 18.1365 0.2007
54.4800 18.1432 0.2083
54.5000 18.1499 0.1974
54.5200 18.1566 0.1954
54.5400 18.1633 0.2075
54.5600 18.1700 0.2015
54.5800 18.1767 0.1937
54.6000 18.1833 0.2030
54.6200 18.1899 0.1990
54.6400 18.1966 0.1955
54.6600 18.2032 0.2068
54.6800 18.2100 0.1986
54.7000 18.2167 0.1938
54.7200 18.2234 0.2108
54.7400 18.2301 0.1946
54.7600 18.2368 0.1950
54.7800 18.2434 0.2060
54.8000 18.2500 0.1969
54.8200 18.2566 0.1942
54.8400 18.2633 0.2069
54.8600 18.2700 0.1971
54.8800 18.2767 0.1897
54.9000 18.2834 0.2072
54.9200 18.2901 0.1964
54.9400 18.2967 0.1876
54.9600 18.3033 0.2064
54.9800 18.3099 0.1941
55.0000 18.3166 0.1926
55.0200 18.3233 0.2087
55.0400 18.3300 0.1933
55.0600 18.3366 0.1924
55.0800 18.3433 0.2071
55.1000 18.3500 0.1945
55.1200 18.3567 0.1921
55.1400 18.3633 0.2064
55.1600 18.3699 0.1961
55.1800 18.3765 0.1908
55.2000 18.3832 0.2070
55.2200 18.3899 0.1981
55.2400 18.3966 0.1889
55.2600 18.4033 0.1997
55.2800 18.4100 0.1932
55.3000 18.4167 0.1936
55.3200 18.4233 0.1963
55.3400 18.4299 0.1949
55.3600 18.4366 0.1887
55.3800 18.4433 0.2041
55.4000 18.4500 0.1920
55.4200 18.4567 0.1890
55.4400 18.4634 0.2046
55.4600 18.4700 0.1910
55.4800 18.4767 0.1873
55.5000 18.4834 0.2012
55.5200 18.4900 0.1935
55.5400 18.4966 0.1883
55.5600 18.5033 0.1981
55.5800 18.5100 0.1937
55.6000 18.5167 0.1866
55.6200 18.5233 0.2001
55.6400 18.5300 0.1931
55.6600 18.5367 0.1863
55.6800 18.5434 0.1964
55.7000 18.5500 0.1966
55.7200 18.5566 0.1839
55.7400 18.5632 0.1916
55.7600 18.5699 0.1948
55.7800 18.5766 0.1841
55.8000 18.5833 0.1926
55.8200 18.5900 0.1911
55.8400 18.5967 0.1835
55.8600 18.6033 0.1940
55.8800 18.6099 0.1904
55.9000 18.6165 0.1839
55.9200 18.6232 0.1976
55.9400 18.6299 0.1890
55.9600 18.6367 0.1828
55.9800 18.6433 0.1919
56.0000 18.6500 0.1941
56.0200 18.6567 0.1837
56.0400 18.6634 0.1914
56.0600 18.6700 0.1911
56.0800 18.6766 0.1865
56.1000 18.6833 0.1900
56.1200 18.6900 0.1889
56.1400 18.6967 0.1907
56.1600 18.7033 0.1867
56.1800 18.7101 0.1853
56.2000 18.7168 0.1850
56.2200 18.7234 0.1866
56.2400 18.7300 0.1916
56.2600 18.7366 0.1879
56.2800 18.7433 0.1911
56.3000 18.7500 0.1901
56.3200 18.7567 0.1790
56.3400 18.7634 0.1894
56.3600 18.7701 0.1909
56.3800 18.7767 0.1848
56.4000 18.7834 0.1882
56.4200 18.7900 0.1896
56.4400 18.7966 0.1842
56.4600 18.8033 0.1905
56.4800 18.8100 0.1928
56.5000 18.8167 0.1828
56.5200 18.8233 0.1888
56.5400 18.8300 0.1931
56.5600 18.8367 0.1788
56.5800 18.8433 0.1900
56.6000 18.8499 0.1926
56.6200 18.8565 0.1809
56.6400 18.8632 0.1907
56.6600 18.8699 0.1966
56.6800 18.8766 0.1805
56.7000 18.8833 0.1875
56.7200 18.8900 0.1946
56.7400 18.8967 0.1820
56.7600 18.9034 0.1855
56.7800 18.9100 0.1938
56.8000 18.9166 0.1870
56.8200 18.9232 0.1902
56.8400 18.9300 0.1881
56.8600 18.9367 0.1825
56.8800 18.9434 0.1927
56.9000 18.9501 0.1950
56.9200 18.9567 0.1794
56.9400 18.9634 0.1891
56.9600 18.9700 0.1874
56.9800 18.9766 0.1841
57.0000 18.9833 0.1912
57.0200 18.9900 0.1899
57.0400 18.9967 0.1782
57.0600 19.0034 0.1878
57.0800 19.0100 0.1892
57.1000 19.0167 0.1777
57.1200 19.0234 0.1904
57.1400 19.0300 0.1884
57.1600 19.0366 0.1771
57.1800 19.0432 0.1872
57.2000 19.0499 0.1925
57.2200 19.0566 0.1806
57.2400 19.0633 0.1899
57.2600 19.0700 0.1880
57.2800 19.0767 0.1820
57.3000 19.0834 0.1824
57.3200 19.0900 0.1858
57.3400 19.0966 0.1841
57.3600 19.1032 0.1878
57.3800 19.1099 0.1848
57.4000 19.1166 0.1799
57.4200 19.1233 0.1842
57.4400 19.1300 0.1886
57.4600 19.1367 0.1785
57.4800 19.1433 0.1822
57.5000 19.1500 0.1856
57.5200 19.1566 0.1801
57.5400 19.1632 0.1808
57.5600 19.1699 0.1849
57.5800 19.1767 0.1836
57.6000 19.1834 0.1813
57.6200 19.1900 0.1798
57.6400 19.1967 0.1848
57.6600 19.2034 0.1837
57.6800 19.2100 0.1740
57.7000 19.2166 0.1819
57.7200 19.2233 0.1793
57.7400 19.2299 0.1780
57.7600 19.2367 0.1788
57.7800 19.2434 0.1813
57.8000 19.2501 0.1786
57.8200 19.2568 0.1789
57.8400 19.2634 0.1740
57.8600 19.2700 0.1787
57.8800 19.2766 0.1755
57.9000 19.2832 0.1798
57.9200 19.2899 0.1768
57.9400 19.2966 0.1741
57.9600 19.3033 0.1762
57.9800 19.3100 0.1803
58.0000 19.3167 0.1742
58.0200 19.3234 0.1738
58.0400 19.3300 0.1791
58.0600 19.3366 0.1778
58.0800 19.3432 0.1718
58.1000 19.3499 0.1795
58.1200 19.3566 0.1801
58.1400 19.3633 0.1713
58.1600 19.3700 0.1765
58.1800 19.3766 0.1803
58.2000 19.3833 0.1737
58.2200 19.3900 0.1737
58.2400 19.3966 0.1796
58.2600 19.4033 0.1752
58.2800 19.4100 0.1750
58.3000 19.4166 0.1728
58.3200 19.4233 0.1742
58.3400 19.4300 0.1765
58.3600 19.4367 0.1726
58.3800 19.4434 0.1683
58.4000 19.4500 0.1784
58.4200 19.4566 0.1758
58.4400 19.4632 0.1738
58.4600 19.4699 0.1746
58.4800 19.4767 0.1756
58.5000 19.4834 0.1710
58.5200 19.4900 0.1756
58.5400 19.4967 0.1751
58.5600 19.5034 0.1702
58.5800 19.5100 0.1683
58.6000 19.5166 0.1783
58.6200 19.5233 0.1718
58.6400 19.5299 0.1724
58.6600 19.5367 0.1751
58.6800 19.5433 0.1686
58.7000 19.5500 0.1701
58.7200 19.5567 0.1735
58.7400 19.5634 0.1711
58.7600 19.5700 0.1697
58.7800 19.5766 0.1732
58.8000 19.5832 0.1721
58.8200 19.5899 0.1666
58.8400 19.5966 0.1704
58.8600 19.6033 0.1706
58.8800 19.6100 0.1717
58.9000 19.6167 0.1668
58.9200 19.6233 0.1648
58.9400 19.6300 0.1728
58.9600 19.6366 0.1669
58.9800 19.6432 0.1675
59.0000 19.6499 0.1712
59.0200 19.6566 0.1739
59.0400 19.6633 0.1616
59.0600 19.6700 0.1670
59.0800 19.6767 0.1750
59.1000 19.6834 0.1627
59.1200 19.6900 0.1634
59.1400 19.6967 0.1719
59.1600 19.7033 0.1609
59.1800 19.7100 0.1669
59.2000 19.7167 0.1679
59.2200 19.7234 0.1609
59.2400 19.7300 0.1683
59.2600 19.7367 0.1676
59.2800 19.7434 0.1584
59.3000 19.7500 0.1580
59.3010 19.7503 0.1568
