Raw Data
Time Displacement Force
(s) (mm) (N)
0.0000 0.0000 0.8028
0.0200 0.0000 0.8107
0.0400 0.0008 0.8310
0.0600 0.0040 0.8461
0.0800 0.0094 0.8196
0.1000 0.0152 0.8030
0.1200 0.0211 0.8316
0.1400 0.0277 0.8330
0.1600 0.0350 0.8083
0.1800 0.0425 0.8219
0.2000 0.0496 0.8207
0.2200 0.0565 0.8066
0.2400 0.0632 0.8289
0.2600 0.0699 0.8259
0.2800 0.0765 0.8222
0.3000 0.0832 0.8381
0.3200 0.0899 0.8276
0.3400 0.0967 0.8300
0.3600 0.1034 0.8388
0.3800 0.1100 0.8300
0.4000 0.1166 0.8446
0.4200 0.1233 0.8444
0.4400 0.1300 0.8383
0.4600 0.1367 0.8451
0.4800 0.1434 0.8460
0.5000 0.1501 0.8432
0.5200 0.1568 0.8602
0.5400 0.1634 0.8457
0.5600 0.1700 0.8490
0.5800 0.1766 0.8666
0.6000 0.1833 0.8510
0.6200 0.1900 0.8548
0.6400 0.1967 0.8759
0.6600 0.2034 0.8545
0.6800 0.2101 0.8689
0.7000 0.2167 0.8759
0.7200 0.2234 0.8616
0.7400 0.2300 0.8757
0.7600 0.2366 0.8827
0.7800 0.2433 0.8674
0.8000 0.2500 0.8807
0.8200 0.2567 0.8874
0.8400 0.2633 0.8743
0.8600 0.2700 0.8827
0.8800 0.2767 0.8882
0.9000 0.2833 0.8813
0.9200 0.2899 0.8927
0.9400 0.2966 0.8920
0.9600 0.3032 0.8824
0.9800 0.3100 0.9004
1.0000 0.3166 0.8926
1.0200 0.3233 0.8899
1.0400 0.3300 0.8994
1.0600 0.3367 0.8964
1.0800 0.3433 0.8873
1.1000 0.3499 0.8994
1.1200 0.3566 0.9014
1.1400 0.3633 0.8974
1.1600 0.3700 0.8982
1.1800 0.3767 0.9013
1.2000 0.3834 0.8966
1.2200 0.3900 0.9041
1.2400 0.3967 0.8978
1.2600 0.4034 0.8993
1.2800 0.4100 0.9014
1.3000 0.4167 0.8997
1.3200 0.4234 0.8989
1.3400 0.4300 0.9020
1.3600 0.4367 0.9027
1.3800 0.4434 0.9003
1.4000 0.4501 0.9005
1.4200 0.4567 0.9012
1.4400 0.4634 0.9007
1.4600 0.4700 0.8957
1.4800 0.4766 0.9047
1.5000 0.4832 0.9054
1.5200 0.4899 0.8991
1.5400 0.4966 0.9021
1.5600 0.5033 0.9036
1.5800 0.5100 0.8953
1.6000 0.5167 0.9025
1.6200 0.5233 0.8989
1.6400 0.5299 0.8977
1.6600 0.5366 0.9034
1.6800 0.5433 0.9021
1.7000 0.5500 0.8883
1.7200 0.5567 0.9052
1.7400 0.5634 0.9022
1.7600 0.5700 0.8892
1.7800 0.5767 0.9035
1.8000 0.5834 0.9013
1.8200 0.5900 0.8837
1.8400 0.5966 0.9062
1.8600 0.6033 0.9055
1.8800 0.6100 0.8881
1.9000 0.6167 0.9005
1.9200 0.6234 0.8986
1.9400 0.6301 0.8903
1.9600 0.6368 0.9059
1.9800 0.6434 0.8997
2.0000 0.6500 0.8887
2.0200 0.6566 0.9052
2.0400 0.6633 0.9003
2.0600 0.6700 0.8916
2.0800 0.6767 0.9034
2.1000 0.6834 0.9001
2.1200 0.6901 0.8919
2.1400 0.6967 0.9030
2.1600 0.7034 0.9001
2.1800 0.7100 0.8924
2.2000 0.7166 0.9003
2.2200 0.7233 0.9014
2.2400 0.7300 0.8936
2.2600 0.7367 0.9043
2.2800 0.7433 0.8980
2.3000 0.7500 0.9021
2.3200 0.7567 0.9055
2.3400 0.7634 0.9010
2.3600 0.7700 0.8932
2.3800 0.7766 0.9053
2.4000 0.7832 0.9046
2.4200 0.7899 0.8963
2.4400 0.7966 0.8976
2.4600 0.8033 0.9090
2.4800 0.8100 0.8999
2.5000 0.8167 0.8985
2.5200 0.8234 0.9089
2.5400 0.8300 0.9022
2.5600 0.8366 0.8960
2.5800 0.8433 0.9140
2.6000 0.8500 0.9051
2.6200 0.8567 0.8980
2.6400 0.8634 0.9091
2.6600 0.8701 0.9025
2.6800 0.8767 0.8992
2.7000 0.8834 0.9130
2.7200 0.8900 0.9008
2.7400 0.8966 0.8981
2.7600 0.9033 0.9152
2.7800 0.9100 0.8986
2.8000 0.9167 0.9019
2.8200 0.9234 0.9146
2.8400 0.9301 0.8944
2.8600 0.9367 0.9003
2.8800 0.9434 0.9175
2.9000 0.9500 0.8958
2.9200 0.9566 0.9007
2.9400 0.9633 0.9137
2.9600 0.9700 0.8956
2.9800 0.9767 0.9063
3.0000 0.9833 0.9123
3.0200 0.9900 0.8982
3.0400 0.9967 0.9052
3.0600 1.0034 0.9034
3.0800 1.0100 0.9039
3.1000 1.0165 0.9068
3.1200 1.0232 0.9077
3.1400 1.0299 0.9014
3.1600 1.0367 0.8986
3.1800 1.0433 0.9113
3.2000 1.0500 0.9056
3.2200 1.0567 0.8990
3.2400 1.0634 0.9063
3.2600 1.0700 0.9039
3.2800 1.0766 0.8996
3.3000 1.0833 0.9106
3.3200 1.0900 0.9051
3.3400 1.0967 0.8988
3.3600 1.1034 0.9139
3.3800 1.1101 0.9063
3.4000 1.1168 0.8944
3.4200 1.1234 0.9176
3.4400 1.1300 0.9020
3.4600 1.1367 0.8946
3.4800 1.1433 0.9125
3.5000 1.1500 0.9050
3.5200 1.1567 0.9012
3.5400 1.1634 0.9159
3.5600 1.1701 0.8989
3.5800 1.1767 0.9043
3.6000 1.1834 0.9136
3.6200 1.1900 0.9014
3.6400 1.1966 0.9029
3.6600 1.2033 0.9203
3.6800 1.2100 0.9004
3.7000 1.2167 0.8983
3.7200 1.2234 0.9170
3.7400 1.2300 0.9151
3.7600 1.2367 0.8965
3.7800 1.2434 0.9064
3.8000 1.2500 0.9118
3.8200 1.2566 0.9033
3.8400 1.2633 0.9175
3.8600 1.2700 0.9072
3.8800 1.2767 0.9035
3.9000 1.2833 0.9195
3.9200 1.2900 0.9058
3.9400 1.2967 0.9022
3.9600 1.3034 0.9209
3.9800 1.3100 0.9064
4.0000 1.3166 0.8950
4.0200 1.3233 0.9222
4.0400 1.3299 0.9118
4.0600 1.3367 0.9079
4.0800 1.3434 0.9159
4.1000 1.3500 0.9038
4.1200 1.3567 0.9145
4.1400 1.3634 0.9240
4.1600 1.3700 0.9032
4.1800 1.3766 0.9094
4.2000 1.3833 0.9307
4.2200 1.3900 0.8984
4.2400 1.3967 0.9071
4.2600 1.4034 0.9267
4.2800 1.4101 0.9048
4.3000 1.4167 0.9079
4.3200 1.4234 0.9191
4.3400 1.4300 0.9020
4.3600 1.4366 0.9195
4.3800 1.4433 0.9272
4.4000 1.4500 0.9029
4.4200 1.4567 0.9111
4.4400 1.4633 0.9262
4.4600 1.4700 0.9083
4.4800 1.4767 0.9079
4.5000 1.4834 0.9252
4.5200 1.4900 0.9169
4.5400 1.4966 0.9073
4.5600 1.5032 0.9158
4.5800 1.5099 0.9200
4.6000 1.5167 0.9189
4.6200 1.5234 0.9140
4.6400 1.5300 0.9093
4.6600 1.5367 0.9170
4.6800 1.5434 0.9241
4.7000 1.5500 0.9145
4.7200 1.5566 0.9110
4.7400 1.5633 0.9227
4.7600 1.5700 0.9173
4.7800 1.5767 0.9113
4.8000 1.5834 0.9174
4.8200 1.5901 0.9116
4.8400 1.5968 0.9095
4.8600 1.6034 0.9239
4.8800 1.6100 0.9073
4.9000 1.6166 0.9100
4.9200 1.6233 0.9266
4.9400 1.6300 0.9064
4.9600 1.6367 0.9117
4.9800 1.6434 0.9301
5.0000 1.6501 0.9070
5.0200 1.6568 0.9058
5.0400 1.6634 0.9202
5.0600 1.6700 0.9145
5.0800 1.6766 0.9160
5.1000 1.6832 0.9175
5.1200 1.6899 0.9097
5.1400 1.6966 0.9180
5.1600 1.7033 0.9153
5.1800 1.7100 0.9098
5.2000 1.7167 0.9197
5.2200 1.7234 0.9094
5.2400 1.7300 0.9083
5.2600 1.7366 0.9191
5.2800 1.7432 0.9080
5.3000 1.7499 0.9144
5.3200 1.7567 0.9154
5.3400 1.7633 0.9100
5.3600 1.7700 0.9172
5.3800 1.7767 0.9179
5.4000 1.7833 0.9075
5.4200 1.7900 0.9155
5.4400 1.7966 0.9125
5.4600 1.8033 0.9071
5.4800 1.8100 0.9246
5.5000 1.8167 0.9077
5.5200 1.8234 0.9041
5.5400 1.8301 0.9262
5.5600 1.8367 0.9073
5.5800 1.8434 0.9008
5.6000 1.8501 0.9211
5.6200 1.8567 0.9067
5.6400 1.8633 0.9113
5.6600 1.8700 0.9169
5.6800 1.8767 0.9076
5.7000 1.8834 0.9094
5.7200 1.8901 0.9218
5.7400 1.8967 0.9095
5.7600 1.9034 0.9102
5.7800 1.9100 0.9166
5.8000 1.9166 0.9096
5.8200 1.9233 0.9121
5.8400 1.9299 0.9125
5.8600 1.9367 0.9100
5.8800 1.9433 0.9118
5.9000 1.9500 0.9122
5.9200 1.9567 0.9120
5.9400 1.9634 0.9086
5.9600 1.9700 0.9120
5.9800 1.9766 0.9189
6.0000 1.9832 0.9095
6.0200 1.9899 0.9091
6.0400 1.9966 0.9170
6.0600 2.0033 0.9093
6.0800 2.0100 0.9094
6.1000 2.0167 0.9196
6.1200 2.0234 0.9045
6.1400 2.0301 0.9069
6.1600 2.0367 0.9145
6.1800 2.0433 0.9075
6.2000 2.0499 0.9100
6.2200 2.0567 0.9143
6.2400 2.0634 0.9077
6.2600 2.0701 0.9084
6.2800 2.0767 0.9147
6.3000 2.0834 0.9043
6.3200 2.0900 0.9094
6.3400 2.0966 0.9164
6.3600 2.1033 0.9022
6.3800 2.1099 0.9121
6.4000 2.1167 0.9123
6.4200 2.1234 0.9051
6.4400 2.1300 0.9077
6.4600 2.1367 0.9123
6.4800 2.1434 0.9055
6.5000 2.1501 0.9061
6.5200 2.1567 0.9131
6.5400 2.1633 0.9034
6.5600 2.1700 0.9127
6.5800 2.1767 0.9145
6.6000 2.1833 0.9011
6.6200 2.1900 0.9074
6.6400 2.1967 0.9155
6.6600 2.2034 0.9045
6.6800 2.2101 0.9022
6.7000 2.2166 0.9133
6.7200 2.2232 0.9082
6.7400 2.2299 0.9051
6.7600 2.2366 0.9150
6.7800 2.2433 0.9044
6.8000 2.2500 0.9132
6.8200 2.2567 0.9103
6.8400 2.2634 0.9051
6.8600 2.2700 0.9081
6.8800 2.2766 0.9083
6.9000 2.2833 0.9037
6.9200 2.2900 0.9124
6.9400 2.2967 0.9081
6.9600 2.3033 0.9011
6.9800 2.3100 0.9159
7.0000 2.3167 0.9105
7.0200 2.3234 0.8956
7.0400 2.3301 0.9192
7.0600 2.3367 0.9075
7.0800 2.3433 0.8953
7.1000 2.3500 0.9183
7.1200 2.3566 0.9108
7.1400 2.3633 0.8987
7.1600 2.3700 0.9093
7.1800 2.3767 0.9070
7.2000 2.3834 0.9030
7.2200 2.3901 0.9131
7.2400 2.3967 0.9079
7.2600 2.4033 0.9041
7.2800 2.4099 0.9140
7.3000 2.4166 0.9118
7.3200 2.4234 0.8994
7.3400 2.4300 0.9133
7.3600 2.4367 0.9085
7.3800 2.4434 0.9022
7.4000 2.4500 0.9083
7.4200 2.4567 0.9139
7.4400 2.4633 0.9013
7.4600 2.4699 0.9085
7.4800 2.4766 0.9097
7.5000 2.4833 0.9035
7.5200 2.4900 0.9010
7.5400 2.4967 0.9115
7.5600 2.5034 0.9035
7.5800 2.5100 0.8934
7.6000 2.5167 0.9168
7.6200 2.5233 0.9132
7.6400 2.5299 0.8847
7.6600 2.5367 0.9138
7.6800 2.5434 0.9209
7.7000 2.5500 0.8906
7.7200 2.5567 0.9054
7.7400 2.5634 0.9189
7.7600 2.5701 0.8948
7.7800 2.5767 0.9049
7.8000 2.5833 0.9106
7.8200 2.5899 0.8953
7.8400 2.5966 0.9057
7.8600 2.6034 0.9054
7.8800 2.6101 0.8946
7.9000 2.6167 0.9096
7.9200 2.6234 0.9043
7.9400 2.6301 0.8936
7.9600 2.6367 0.9162
7.9800 2.6433 0.9022
8.0000 2.6499 0.8951
8.0200 2.6566 0.9114
8.0400 2.6633 0.9014
8.0600 2.6700 0.8928
8.0800 2.6767 0.9165
8.1000 2.6834 0.9012
8.1200 2.6900 0.8900
8.1400 2.6967 0.9110
8.1600 2.7033 0.9025
8.1800 2.7099 0.8966
8.2000 2.7166 0.9106
8.2200 2.7233 0.8966
8.2400 2.7300 0.8948
8.2600 2.7367 0.9096
8.2800 2.7434 0.9009
8.3000 2.7501 0.9061
8.3200 2.7567 0.8938
8.3400 2.7633 0.8874
8.3600 2.7699 0.9226
8.3800 2.7766 0.9069
8.4000 2.7833 0.8770
8.4200 2.7900 0.9063
8.4400 2.7967 0.9134
8.4600 2.8034 0.8887
8.4800 2.8101 0.8940
8.5000 2.8167 0.9079
8.5200 2.8233 0.9014
8.5400 2.8300 0.8991
8.5600 2.8367 0.8900
8.5800 2.8434 0.8918
8.6000 2.8500 0.9209
8.6200 2.8567 0.8983
8.6400 2.8634 0.8731
8.6600 2.8701 0.9049
8.6800 2.8767 0.9111
8.7000 2.8833 0.8978
8.7200 2.8899 0.8875
8.7400 2.8966 0.8946
8.7600 2.9033 0.9114
8.7800 2.9100 0.8977
8.8000 2.9167 0.8864
8.8200 2.9234 0.9036
8.8400 2.9300 0.9033
8.8600 2.9366 0.8959
8.8800 2.9432 0.8911
8.9000 2.9499 0.8948
8.9200 2.9566 0.9100
8.9400 2.9633 0.9023
8.9600 2.9700 0.8715
8.9800 2.9766 0.9057
9.0000 2.9833 0.9166
9.0200 2.9900 0.8794
9.0400 2.9967 0.8942
9.0600 3.0033 0.9057
9.0800 3.0099 0.8948
9.1000 3.0166 0.9011
9.1200 3.0234 0.8836
9.1400 3.0300 0.8959
9.1600 3.0367 0.9210
9.1800 3.0434 0.8870
9.2000 3.0501 0.8787
9.2200 3.0567 0.9173
9.2400 3.0633 0.8950
9.2600 3.0699 0.8839
9.2800 3.0766 0.9121
9.3000 3.0833 0.8947
9.3200 3.0900 0.8940
9.3400 3.0967 0.8956
9.3600 3.1034 0.8944
9.3800 3.1101 0.9045
9.4000 3.1167 0.8941
9.4200 3.1233 0.8905
9.4400 3.1299 0.9038
9.4600 3.1366 0.8939
9.4800 3.1433 0.8975
9.5000 3.1500 0.9024
9.5200 3.1567 0.8908
9.5400 3.1634 0.8906
9.5600 3.1701 0.9064
9.5800 3.1767 0.8896
9.6000 3.1833 0.8947
9.6200 3.1899 0.8999
9.6400 3.1966 0.8931
9.6600 3.2033 0.8983
9.6800 3.2100 0.8928
9.7000 3.2167 0.8889
9.7200 3.2233 0.9020
9.7400 3.2300 0.8922
9.7600 3.2367 0.8823
9.7800 3.2433 0.9087
9.8000 3.2499 0.8943
9.8200 3.2566 0.8831
9.8400 3.2634 0.9029
9.8600 3.2701 0.8906
9.8800 3.2767 0.8862
9.9000 3.2834 0.9053
9.9200 3.2901 0.8870
9.9400 3.2967 0.8937
9.9600 3.3033 0.9001
9.9800 3.3099 0.8900
10.0000 3.3167 0.8953
10.0200 3.3234 0.9012
10.0400 3.3301 0.8883
10.0600 3.3367 0.8916
10.0800 3.3434 0.8967
10.1000 3.3501 0.8922
10.1200 3.3567 0.8912
10.1400 3.3633 0.8906
10.1600 3.3699 0.8944
10.1800 3.3766 0.8969
10.2000 3.3833 0.8897
10.2200 3.3900 0.8918
10.2400 3.3967 0.8903
10.2600 3.4033 0.8927
10.2800 3.4101 0.8890
10.3000 3.4167 0.8895
10.3200 3.4233 0.8946
10.3400 3.4299 0.8929
10.3600 3.4366 0.8851
10.3800 3.4433 0.8942
10.4000 3.4500 0.8908
10.4200 3.4567 0.8798
10.4400 3.4634 0.8950
10.4600 3.4700 0.8923
10.4800 3.4767 0.8756
10.5000 3.4833 0.8951
10.5200 3.4900 0.8916
10.5400 3.4966 0.8809
10.5600 3.5033 0.8956
10.5800 3.5100 0.8891
10.6000 3.5167 0.8835
10.6200 3.5234 0.8864
10.6400 3.5301 0.8866
10.6600 3.5367 0.8851
10.6800 3.5434 0.8896
10.7000 3.5500 0.8866
10.7200 3.5566 0.8846
10.7400 3.5633 0.8873
10.7600 3.5700 0.8890
10.7800 3.5767 0.8853
10.8000 3.5834 0.8853
10.8200 3.5901 0.8846
10.8400 3.5967 0.8870
10.8600 3.6033 0.8864
10.8800 3.6099 0.8888
10.9000 3.6166 0.8832
10.9200 3.6233 0.8872
10.9400 3.6300 0.8879
10.9600 3.6367 0.8799
10.9800 3.6434 0.8891
11.0000 3.6501 0.8879
11.0200 3.6567 0.8776
11.0400 3.6633 0.8844
11.0600 3.6699 0.8915
11.0800 3.6766 0.8762
11.1000 3.6833 0.8840
11.1200 3.6900 0.8904
11.1400 3.6967 0.8810
11.1600 3.7033 0.8838
11.1800 3.7100 0.8912
11.2000 3.7167 0.8796
11.2200 3.7233 0.8764
11.2400 3.7299 0.8938
11.2600 3.7366 0.8831
11.2800 3.7433 0.8767
11.3000 3.7500 0.8951
11.3200 3.7567 0.8767
11.3400 3.7634 0.8824
11.3600 3.7701 0.8906
11.3800 3.7768 0.8784
11.4000 3.7833 0.8806
11.4200 3.7899 0.8878
11.4400 3.7966 0.8739
11.4600 3.8034 0.8826
11.4800 3.8101 0.8912
11.5000 3.8168 0.8700
11.5200 3.8234 0.8752
11.5400 3.8301 0.8944
11.5600 3.8367 0.8699
11.5800 3.8433 0.8809
11.6000 3.8499 0.8953
11.6200 3.8566 0.8679
11.6400 3.8633 0.8796
11.6600 3.8700 0.8950
11.6800 3.8766 0.8727
11.7000 3.8833 0.8799
11.7200 3.8900 0.8903
11.7400 3.8967 0.8680
11.7600 3.9033 0.8807
11.7800 3.9099 0.8854
11.8000 3.9165 0.8778
11.8200 3.9232 0.8855
11.8400 3.9300 0.8738
11.8600 3.9366 0.8741
11.8800 3.9433 0.8937
11.9000 3.9500 0.8784
11.9200 3.9567 0.8692
11.9400 3.9633 0.8828
11.9600 3.9699 0.8789
11.9800 3.9766 0.8731
12.0000 3.9833 0.8830
12.0200 3.9900 0.8729
12.0400 3.9967 0.8792
12.0600 4.0034 0.8805
12.0800 4.0101 0.8690
12.1000 4.0167 0.8808
12.1200 4.0234 0.8863
12.1400 4.0300 0.8589
12.1600 4.0366 0.8805
12.1800 4.0433 0.8893
12.2000 4.0500 0.8593
12.2200 4.0567 0.8795
12.2400 4.0634 0.8791
12.2600 4.0701 0.8599
12.2800 4.0768 0.8811
12.3000 4.0834 0.8771
12.3200 4.0899 0.8702
12.3400 4.0966 0.8818
12.3600 4.1033 0.8703
12.3800 4.1100 0.8718
12.4000 4.1167 0.8854
12.4200 4.1234 0.8678
12.4400 4.1300 0.8719
12.4600 4.1367 0.8793
12.4800 4.1433 0.8640
12.5000 4.1499 0.8756
12.5200 4.1566 0.8860
12.5400 4.1633 0.8664
12.5600 4.1700 0.8694
12.5800 4.1767 0.8805
12.6000 4.1833 0.8680
12.6200 4.1900 0.8817
12.6400 4.1967 0.8754
12.6600 4.2033 0.8638
12.6800 4.2100 0.8809
12.7000 4.2166 0.8756
12.7200 4.2233 0.8629
12.7400 4.2300 0.8853
12.7600 4.2367 0.8758
12.7800 4.2434 0.8628
12.8000 4.2501 0.8769
12.8200 4.2568 0.8812
12.8400 4.2634 0.8656
12.8600 4.2700 0.8687
12.8800 4.2766 0.8788
12.9000 4.2833 0.8735
12.9200 4.2900 0.8603
12.9400 4.2967 0.8727
12.9600 4.3034 0.8760
12.9800 4.3101 0.8650
13.0000 4.3167 0.8729
13.0200 4.3233 0.8706
13.0400 4.3299 0.8623
13.0600 4.3366 0.8788
13.0800 4.3433 0.8773
13.1000 4.3500 0.8578
13.1200 4.3567 0.8747
13.1400 4.3634 0.8656
13.1600 4.3700 0.8668
13.1800 4.3767 0.8813
13.2000 4.3833 0.8641
13.2200 4.3899 0.8669
13.2400 4.3966 0.8775
13.2600 4.4032 0.8606
13.2800 4.4100 0.8755
13.3000 4.4167 0.8764
13.3200 4.4234 0.8558
13.3400 4.4301 0.8740
13.3600 4.4367 0.8711
13.3800 4.4434 0.8557
13.4000 4.4499 0.8815
13.4200 4.4566 0.8673
13.4400 4.4633 0.8609
13.4600 4.4700 0.8793
13.4800 4.4767 0.8615
13.5000 4.4834 0.8639
13.5200 4.4901 0.8830
13.5400 4.4968 0.8509
13.5600 4.5034 0.8650
13.5800 4.5100 0.8859
13.6000 4.5166 0.8529
13.6200 4.5233 0.8634
13.6400 4.5301 0.8766
13.6600 4.5367 0.8549
13.6800 4.5434 0.8640
13.7000 4.5500 0.8745
13.7200 4.5567 0.8622
13.7400 4.5633 0.8664
13.7600 4.5699 0.8642
13.7800 4.5766 0.8686
13.8000 4.5833 0.8684
13.8200 4.5900 0.8621
13.8400 4.5967 0.8696
13.8600 4.6034 0.8650
13.8800 4.6101 0.8601
13.9000 4.6167 0.8667
13.9200 4.6234 0.8588
13.9400 4.6300 0.8683
13.9600 4.6366 0.8671
13.9800 4.6433 0.8588
14.0000 4.6500 0.8619
14.0200 4.6567 0.8652
14.0400 4.6634 0.8602
14.0600 4.6700 0.8660
14.0800 4.6767 0.8611
14.1000 4.6833 0.8556
14.1200 4.6900 0.8659
14.1400 4.6966 0.8658
14.1600 4.7033 0.8535
14.1800 4.7100 0.8661
14.2000 4.7167 0.8607
14.2200 4.7234 0.8586
14.2400 4.7301 0.8610
14.2600 4.7367 0.8642
14.2800 4.7434 0.8615
14.3000 4.7500 0.8564
14.3200 4.7566 0.8648
14.3400 4.7633 0.8615
14.3600 4.7700 0.8578
14.3800 4.7767 0.8604
14.4000 4.7834 0.8586
14.4200 4.7901 0.8527
14.4400 4.7968 0.8643
14.4600 4.8034 0.8578
14.4800 4.8100 0.8535
14.5000 4.8166 0.8617
14.5200 4.8233 0.8637
14.5400 4.8300 0.8510
14.5600 4.8367 0.8589
14.5800 4.8433 0.8646
14.6000 4.8500 0.8493
14.6200 4.8567 0.8581
14.6400 4.8633 0.8635
14.6600 4.8699 0.8465
14.6800 4.8766 0.8638
14.7000 4.8833 0.8592
14.7200 4.8900 0.8476
14.7400 4.8967 0.8616
14.7600 4.9033 0.8616
14.7800 4.9100 0.8415
14.8000 4.9167 0.8642
14.8200 4.9234 0.8602
14.8400 4.9300 0.8456
14.8600 4.9366 0.8650
14.8800 4.9433 0.8541
14.9000 4.9500 0.8435
14.9200 4.9567 0.8638
14.9400 4.9634 0.8559
14.9600 4.9701 0.8416
14.9800 4.9768 0.8634
15.0000 4.9834 0.8462
15.0200 4.9900 0.8480
15.0400 4.9966 0.8654
15.0600 5.0032 0.8455
15.0800 5.0100 0.8431
15.1000 5.0167 0.8681
15.1200 5.0233 0.8453
15.1400 5.0300 0.8456
15.1600 5.0367 0.8640
15.1800 5.0434 0.8502
15.2000 5.0500 0.8421
15.2200 5.0566 0.8622
15.2400 5.0633 0.8506
15.2600 5.0700 0.8493
15.2800 5.0767 0.8566
15.3000 5.0834 0.8508
15.3200 5.0901 0.8449
15.3400 5.0967 0.8490
15.3600 5.1034 0.8547
15.3800 5.1100 0.8477
15.4000 5.1166 0.8545
15.4200 5.1232 0.8588
15.4400 5.1299 0.8437
15.4600 5.1366 0.8514
15.4800 5.1433 0.8556
15.5000 5.1500 0.8464
15.5200 5.1567 0.8543
15.5400 5.1633 0.8534
15.5600 5.1699 0.8419
15.5800 5.1766 0.8525
15.6000 5.1833 0.8523
15.6200 5.1900 0.8389
15.6400 5.1967 0.8544
15.6600 5.2034 0.8480
15.6800 5.2101 0.8375
15.7000 5.2168 0.8586
15.7200 5.2234 0.8497
15.7400 5.2300 0.8311
15.7600 5.2367 0.8636
15.7800 5.2433 0.8524
15.8000 5.2500 0.8310
15.8200 5.2567 0.8583
15.8400 5.2634 0.8493
15.8600 5.2701 0.8355
15.8800 5.2767 0.8611
15.9000 5.2833 0.8417
15.9200 5.2899 0.8381
15.9400 5.2965 0.8603
15.9600 5.3032 0.8404
15.9800 5.3100 0.8399
16.0000 5.3167 0.8585
16.0200 5.3234 0.8406
16.0400 5.3301 0.8434
16.0600 5.3367 0.8511
16.0800 5.3434 0.8425
16.1000 5.3500 0.8435
16.1200 5.3566 0.8503
16.1400 5.3633 0.8452
16.1600 5.3700 0.8438
16.1800 5.3767 0.8490
16.2000 5.3834 0.8401
16.2200 5.3900 0.8455
16.2400 5.3967 0.8478
16.2600 5.4034 0.8414
16.2800 5.4100 0.8440
16.3000 5.4167 0.8477
16.3200 5.4233 0.8455
16.3400 5.4300 0.8386
16.3600 5.4367 0.8421
16.3800 5.4434 0.8449
16.4000 5.4501 0.8434
16.4200 5.4568 0.8407
16.4400 5.4634 0.8405
16.4600 5.4700 0.8443
16.4800 5.4766 0.8421
16.5000 5.4833 0.8472
16.5200 5.4900 0.8410
16.5400 5.4967 0.8421
16.5600 5.5034 0.8467
16.5800 5.5101 0.8397
16.6000 5.5167 0.8426
16.6200 5.5234 0.8484
16.6400 5.5300 0.8404
16.6600 5.5366 0.8432
16.6800 5.5432 0.8454
16.7000 5.5499 0.8415
16.7200 5.5566 0.8405
16.7400 5.5633 0.8459
16.7600 5.5700 0.8377
16.7800 5.5767 0.8396
16.8000 5.5834 0.8401
16.8200 5.5900 0.8361
16.8400 5.5966 0.8464
16.8600 5.6033 0.8421
16.8800 5.6100 0.8353
16.9000 5.6167 0.8436
16.9200 5.6233 0.8389
16.9400 5.6300 0.8347
16.9600 5.6367 0.8437
16.9800 5.6434 0.8380
17.0000 5.6500 0.8378
17.0200 5.6566 0.8409
17.0400 5.6633 0.8376
17.0600 5.6700 0.8371
17.0800 5.6767 0.8431
17.1000 5.6834 0.8314
17.1200 5.6901 0.8440
17.1400 5.6967 0.8382
17.1600 5.7034 0.8318
17.1800 5.7100 0.8422
17.2000 5.7166 0.8391
17.2200 5.7233 0.8338
17.2400 5.7300 0.8432
17.2600 5.7367 0.8365
17.2800 5.7434 0.8337
17.3000 5.7501 0.8383
17.3200 5.7568 0.8354
17.3400 5.7634 0.8347
17.3600 5.7700 0.8358
17.3800 5.7766 0.8315
17.4000 5.7833 0.8405
17.4200 5.7899 0.8365
17.4400 5.7967 0.8300
17.4600 5.8033 0.8378
17.4800 5.8100 0.8374
17.5000 5.8167 0.8293
17.5200 5.8233 0.8376
17.5400 5.8299 0.8361
17.5600 5.8366 0.8314
17.5800 5.8432 0.8404
17.6000 5.8499 0.8318
17.6200 5.8567 0.8307
17.6400 5.8634 0.8391
17.6600 5.8700 0.8304
17.6800 5.8767 0.8324
17.7000 5.8834 0.8350
17.7200 5.8900 0.8296
17.7400 5.8966 0.8343
17.7600 5.9033 0.8361
17.7800 5.9100 0.8296
17.8000 5.9167 0.8318
17.8200 5.9234 0.8368
17.8400 5.9301 0.8249
17.8600 5.9368 0.8326
17.8800 5.9435 0.8347
17.9000 5.9501 0.8281
17.9200 5.9567 0.8331
17.9400 5.9633 0.8310
17.9600 5.9700 0.8269
17.9800 5.9767 0.8346
18.0000 5.9834 0.8274
18.0200 5.9901 0.8291
18.0400 5.9968 0.8320
18.0600 6.0034 0.8303
18.0800 6.0100 0.8271
18.1000 6.0166 0.8286
18.1200 6.0232 0.8299
18.1400 6.0299 0.8331
18.1600 6.0367 0.8246
18.1800 6.0434 0.8243
18.2000 6.0500 0.8352
18.2200 6.0567 0.8238
18.2400 6.0634 0.8239
18.2600 6.0700 0.8350
18.2800 6.0766 0.8218
18.3000 6.0832 0.8251
18.3200 6.0899 0.8363
18.3400 6.0966 0.8221
18.3600 6.1033 0.8257
18.3800 6.1100 0.8320
18.4000 6.1167 0.8222
18.4200 6.1234 0.8218
18.4400 6.1301 0.8323
18.4600 6.1367 0.8185
18.4800 6.1433 0.8280
18.5000 6.1500 0.8291
18.5200 6.1567 0.8215
18.5400 6.1634 0.8275
18.5600 6.1701 0.8259
18.5800 6.1767 0.8206
18.6000 6.1834 0.8251
18.6200 6.1900 0.8221
18.6400 6.1966 0.8216
18.6600 6.2033 0.8264
18.6800 6.2100 0.8274
18.7000 6.2167 0.8176
18.7200 6.2234 0.8245
18.7400 6.2301 0.8224
18.7600 6.2367 0.8223
18.7800 6.2434 0.8275
18.8000 6.2500 0.8214
18.8200 6.2566 0.8182
18.8400 6.2633 0.8248
18.8600 6.2700 0.8278
18.8800 6.2767 0.8156
18.9000 6.2833 0.8263
18.9200 6.2900 0.8254
18.9400 6.2967 0.8138
18.9600 6.3034 0.8232
18.9800 6.3100 0.8193
19.0000 6.3166 0.8179
19.0200 6.3232 0.8290
19.0400 6.3299 0.8177
19.0600 6.3366 0.8176
19.0800 6.3433 0.8321
19.1000 6.3500 0.8190
19.1200 6.3567 0.8141
19.1400 6.3634 0.8311
19.1600 6.3700 0.8147
19.1800 6.3766 0.8180
19.2000 6.3833 0.8242
19.2200 6.3900 0.8187
19.2400 6.3967 0.8186
19.2600 6.4034 0.8186
19.2800 6.4101 0.8188
19.3000 6.4167 0.8223
19.3200 6.4234 0.8159
19.3400 6.4301 0.8170
19.3600 6.4367 0.8249
19.3800 6.4433 0.8203
19.4000 6.4500 0.8171
19.4200 6.4567 0.8172
19.4400 6.4634 0.8151
19.4600 6.4700 0.8228
19.4800 6.4767 0.8175
19.5000 6.4834 0.8123
19.5200 6.4901 0.8205
19.5400 6.4967 0.8136
19.5600 6.5033 0.8138
19.5800 6.5099 0.8246
19.6000 6.5166 0.8138
19.6200 6.5233 0.8112
19.6400 6.5300 0.8250
19.6600 6.5367 0.8079
19.6800 6.5434 0.8134
19.7000 6.5500 0.8251
19.7200 6.5566 0.8062
19.7400 6.5632 0.8107
19.7600 6.5699 0.8238
19.7800 6.5766 0.8082
19.8000 6.5833 0.8140
19.8200 6.5900 0.8181
19.8400 6.5967 0.8110
19.8600 6.6033 0.8182
19.8800 6.6100 0.8181
19.9000 6.6166 0.8084
19.9200 6.6233 0.8157
19.9400 6.6299 0.8147
19.9600 6.6367 0.8092
19.9800 6.6434 0.8188
20.0000 6.6501 0.8125
20.0200 6.6567 0.8099
20.0400 6.6634 0.8223
20.0600 6.6701 0.8061
20.0800 6.6767 0.8121
20.1000 6.6833 0.8242
20.1200 6.6900 0.8078
20.1400 6.6967 0.8114
20.1600 6.7034 0.8185
20.1800 6.7101 0.8090
20.2000 6.7168 0.8182
20.2200 6.7234 0.8090
20.2400 6.7301 0.8058
20.2600 6.7366 0.8250
20.2800 6.7432 0.8118
20.3000 6.7499 0.8039
20.3200 6.7566 0.8160
20.3400 6.7633 0.8145
20.3600 6.7700 0.8034
20.3800 6.7767 0.8167
20.4000 6.7834 0.8080
20.4200 6.7900 0.8072
20.4400 6.7966 0.8136
20.4600 6.8032 0.8103
20.4800 6.8099 0.8144
20.5000 6.8166 0.8131
20.5200 6.8233 0.8017
20.5400 6.8300 0.8115
20.5600 6.8367 0.8149
20.5800 6.8434 0.8070
20.6000 6.8501 0.8096
20.6200 6.8567 0.8088
20.6400 6.8633 0.8074
20.6600 6.8700 0.8159
20.6800 6.8767 0.8069
20.7000 6.8834 0.8063
20.7200 6.8901 0.8109
20.7400 6.8968 0.8093
20.7600 6.9034 0.8057
20.7800 6.9101 0.8065
20.8000 6.9167 0.8062
20.8200 6.9233 0.8115
20.8400 6.9299 0.8040
20.8600 6.9366 0.8033
20.8800 6.9434 0.8091
20.9000 6.9501 0.8050
20.9200 6.9567 0.8068
20.9400 6.9634 0.8129
20.9600 6.9701 0.8057
20.9800 6.9767 0.8012
21.0000 6.9833 0.8106
21.0200 6.9900 0.8051
21.0400 6.9966 0.8043
21.0600 7.0033 0.8090
21.0800 7.0100 0.8028
21.1000 7.0167 0.8045
21.1200 7.0234 0.8075
21.1400 7.0301 0.8025
21.1600 7.0367 0.8080
21.1800 7.0432 0.8047
21.2000 7.0499 0.8014
21.2200 7.0566 0.8048
21.2400 7.0633 0.8056
21.2600 7.0700 0.8007
21.2800 7.0767 0.8082
21.3000 7.0833 0.8033
21.3200 7.0900 0.8011
21.3400 7.0966 0.8052
21.3600 7.1033 0.8066
21.3800 7.1099 0.8018
21.4000 7.1166 0.8055
21.4200 7.1233 0.7991
21.4400 7.1300 0.7997
21.4600 7.1367 0.8101
21.4800 7.1434 0.8029
21.5000 7.1501 0.7962
21.5200 7.1567 0.8061
21.5400 7.1633 0.8051
21.5600 7.1699 0.7953
21.5800 7.1766 0.8078
21.6000 7.1833 0.8048
21.6200 7.1900 0.7919
21.6400 7.1967 0.8062
21.6600 7.2034 0.8017
21.6800 7.2101 0.7949
21.7000 7.2167 0.8086
21.7200 7.2233 0.7978
21.7400 7.2299 0.7974
21.7600 7.2366 0.8088
21.7800 7.2434 0.7989
21.8000 7.2501 0.7954
21.8200 7.2567 0.8096
21.8400 7.2634 0.7928
21.8600 7.2700 0.7971
21.8800 7.2767 0.8018
21.9000 7.2833 0.8000
21.9200 7.2899 0.8015
21.9400 7.2966 0.8028
21.9600 7.3033 0.7922
21.9800 7.3100 0.7983
22.0000 7.3167 0.8017
22.0200 7.3233 0.7930
22.0400 7.3300 0.7969
22.0600 7.3367 0.7999
22.0800 7.3433 0.7948
22.1000 7.3499 0.7981
22.1200 7.3566 0.8031
22.1400 7.3633 0.7939
22.1600 7.3700 0.7944
22.1800 7.3767 0.8020
22.2000 7.3834 0.7932
22.2200 7.3901 0.7955
22.2400 7.3967 0.7994
22.2600 7.4033 0.7953
22.2800 7.4099 0.7951
22.3000 7.4166 0.7976
22.3200 7.4234 0.7950
22.3400 7.4301 0.7947
22.3600 7.4367 0.7966
22.3800 7.4434 0.7969
22.4000 7.4500 0.7923
22.4200 7.4567 0.7946
22.4400 7.4633 0.7992
22.4600 7.4699 0.7925
22.4800 7.4766 0.7977
22.5000 7.4833 0.7969
22.5200 7.4900 0.7883
22.5400 7.4967 0.7945
22.5600 7.5034 0.8006
22.5800 7.5100 0.7865
22.6000 7.5167 0.7968
22.6200 7.5233 0.7988
22.6400 7.5299 0.7843
22.6600 7.5366 0.7958
22.6800 7.5433 0.7998
22.7000 7.5500 0.7847
22.7200 7.5567 0.7965
22.7400 7.5634 0.7945
22.7600 7.5700 0.7800
22.7800 7.5767 0.7995
22.8000 7.5833 0.7964
22.8200 7.5899 0.7768
22.8400 7.5966 0.8011
22.8600 7.6033 0.7911
22.8800 7.6100 0.7810
22.9000 7.6167 0.8016
22.9200 7.6234 0.7873
22.9400 7.6301 0.7848
22.9600 7.6367 0.7957
22.9800 7.6433 0.7852
23.0000 7.6500 0.7855
23.0200 7.6566 0.8009
23.0400 7.6633 0.7826
23.0600 7.6700 0.7874
23.0800 7.6767 0.7959
23.1000 7.6834 0.7814
23.1200 7.6901 0.7882
23.1400 7.6967 0.7919
23.1600 7.7033 0.7790
23.1800 7.7099 0.7963
23.2000 7.7166 0.7897
23.2200 7.7233 0.7792
23.2400 7.7300 0.7921
23.2600 7.7367 0.7916
23.2800 7.7434 0.7822
23.3000 7.7501 0.7870
23.3200 7.7567 0.7847
23.3400 7.7632 0.7861
23.3600 7.7699 0.7856
23.3800 7.7766 0.7805
23.4000 7.7833 0.7880
23.4200 7.7900 0.7836
23.4400 7.7966 0.7841
23.4600 7.8033 0.7888
23.4800 7.8100 0.7824
23.5000 7.8167 0.7846
23.5200 7.8233 0.7889
23.5400 7.8299 0.7813
23.5600 7.8366 0.7849
23.5800 7.8433 0.7889
23.6000 7.8501 0.7770
23.6200 7.8567 0.7819
23.6400 7.8634 0.7918
23.6600 7.8701 0.7778
23.6800 7.8767 0.7865
23.7000 7.8833 0.7816
23.7200 7.8899 0.7813
23.7400 7.8966 0.7880
23.7600 7.9034 0.7789
23.7800 7.9101 0.7776
23.8000 7.9167 0.7877
23.8200 7.9234 0.7785
23.8400 7.9301 0.7763
23.8600 7.9367 0.7875
23.8800 7.9433 0.7827
23.9000 7.9499 0.7776
23.9200 7.9566 0.7841
23.9400 7.9633 0.7778
23.9600 7.9700 0.7803
23.9800 7.9767 0.7815
24.0000 7.9834 0.7781
24.0200 7.9901 0.7823
24.0400 7.9967 0.7771
24.0600 8.0033 0.7778
24.0800 8.0099 0.7844
24.1000 8.0166 0.7792
24.1200 8.0233 0.7827
24.1400 8.0300 0.7732
24.1600 8.0367 0.7767
24.1800 8.0434 0.7812
24.2000 8.0500 0.7792
24.2200 8.0567 0.7787
24.2400 8.0633 0.7775
24.2600 8.0699 0.7850
24.2800 8.0766 0.7746
24.3000 8.0833 0.7795
24.3200 8.0901 0.7791
24.3400 8.0967 0.7795
24.3600 8.1034 0.7782
24.3800 8.1101 0.7787
24.4000 8.1167 0.7798
24.4200 8.1233 0.7747
24.4400 8.1299 0.7812
24.4600 8.1366 0.7805
24.4800 8.1433 0.7722
24.5000 8.1501 0.7801
24.5200 8.1567 0.7758
24.5400 8.1634 0.7739
24.5600 8.1701 0.7798
24.5800 8.1767 0.7788
24.6000 8.1833 0.7701
24.6200 8.1899 0.7845
24.6400 8.1966 0.7784
24.6600 8.2033 0.7688
24.6800 8.2100 0.7818
24.7000 8.2167 0.7739
24.7200 8.2234 0.7722
24.7400 8.2300 0.7806
24.7600 8.2367 0.7725
24.7800 8.2433 0.7733
24.8000 8.2499 0.7817
24.8200 8.2566 0.7693
24.8400 8.2633 0.7705
24.8600 8.2700 0.7845
24.8800 8.2767 0.7698
24.9000 8.2834 0.7638
24.9200 8.2900 0.7829
24.9400 8.2967 0.7673
24.9600 8.3033 0.7709
24.9800 8.3099 0.7820
25.0000 8.3166 0.7659
25.0200 8.3233 0.7686
25.0400 8.3300 0.7821
25.0600 8.3367 0.7662
25.0800 8.3434 0.7705
25.1000 8.3501 0.7774
25.1200 8.3567 0.7652
25.1400 8.3633 0.7677
25.1600 8.3699 0.7819
25.1800 8.3766 0.7625
25.2000 8.3833 0.7665
25.2200 8.3900 0.7801
25.2400 8.3967 0.7640
25.2600 8.4034 0.7659
25.2800 8.4101 0.7762
25.3000 8.4167 0.7651
25.3200 8.4233 0.7723
25.3400 8.4299 0.7728
25.3600 8.4366 0.7673
25.3800 8.4433 0.7677
25.4000 8.4500 0.7657
25.4200 8.4567 0.7671
25.4400 8.4634 0.7726
25.4600 8.4701 0.7645
25.4800 8.4767 0.7671
25.5000 8.4833 0.7698
25.5200 8.4899 0.7647
25.5400 8.4966 0.7699
25.5600 8.5033 0.7667
25.5800 8.5100 0.7661
25.6000 8.5166 0.7698
25.6200 8.5233 0.7593
25.6400 8.5300 0.7621
25.6600 8.5367 0.7742
25.6800 8.5433 0.7636
25.7000 8.5499 0.7651
25.7200 8.5566 0.7705
25.7400 8.5633 0.7600
25.7600 8.5700 0.7643
25.7800 8.5767 0.7725
25.8000 8.5834 0.7594
25.8200 8.5901 0.7662
25.8400 8.5968 0.7646
25.8600 8.6034 0.7563
25.8800 8.6100 0.7726
25.9000 8.6166 0.7692
25.9200 8.6233 0.7511
25.9400 8.6301 0.7683
25.9600 8.6368 0.7595
25.9800 8.6434 0.7572
26.0000 8.6501 0.7737
26.0200 8.6567 0.7568
26.0400 8.6633 0.7552
26.0600 8.6699 0.7708
26.0800 8.6766 0.7563
26.1000 8.6833 0.7589
26.1200 8.6900 0.7680
26.1400 8.6967 0.7549
26.1600 8.7033 0.7622
26.1800 8.7100 0.7682
26.2000 8.7167 0.7498
26.2200 8.7233 0.7559
26.2400 8.7299 0.7677
26.2600 8.7365 0.7552
26.2800 8.7432 0.7603
26.3000 8.7500 0.7648
26.3200 8.7567 0.7549
26.3400 8.7633 0.7546
26.3600 8.7700 0.7669
26.3800 8.7767 0.7520
26.4000 8.7833 0.7549
26.4200 8.7899 0.7718
26.4400 8.7966 0.7541
26.4600 8.8033 0.7499
26.4800 8.8100 0.7717
26.5000 8.8167 0.7538
26.5200 8.8234 0.7522
26.5400 8.8301 0.7636
26.5600 8.8368 0.7524
26.5800 8.8434 0.7536
26.6000 8.8500 0.7700
26.6200 8.8566 0.7518
26.6400 8.8633 0.7525
26.6600 8.8700 0.7673
26.6800 8.8767 0.7447
26.7000 8.8834 0.7558
26.7200 8.8901 0.7690
26.7400 8.8968 0.7429
26.7600 8.9034 0.7517
26.7800 8.9100 0.7661
26.8000 8.9166 0.7455
26.8200 8.9233 0.7575
26.8400 8.9300 0.7610
26.8600 8.9367 0.7403
26.8800 8.9434 0.7551
26.9000 8.9500 0.7651
26.9200 8.9567 0.7396
26.9400 8.9633 0.7562
26.9600 8.9699 0.7615
26.9800 8.9766 0.7451
27.0000 8.9833 0.7551
27.0200 8.9900 0.7580
27.0400 8.9967 0.7428
27.0600 9.0033 0.7582
27.0800 9.0100 0.7540
27.1000 9.0167 0.7462
27.1200 9.0234 0.7569
27.1400 9.0300 0.7521
27.1600 9.0366 0.7405
27.1800 9.0433 0.7578
27.2000 9.0500 0.7529
27.2200 9.0567 0.7457
27.2400 9.0634 0.7470
27.2600 9.0701 0.7517
27.2800 9.0768 0.7538
27.3000 9.0834 0.7444
27.3200 9.0900 0.7452
27.3400 9.0966 0.7579
27.3600 9.1033 0.7440
27.3800 9.1100 0.7444
27.4000 9.1167 0.7550
27.4200 9.1234 0.7425
27.4400 9.1300 0.7491
27.4600 9.1367 0.7536
27.4800 9.1434 0.7364
27.5000 9.1500 0.7473
27.5200 9.1566 0.7564
27.5400 9.1633 0.7351
27.5600 9.1700 0.7512
27.5800 9.1767 0.7518
27.6000 9.1834 0.7404
27.6200 9.1900 0.7443
27.6400 9.1967 0.7441
27.6600 9.2034 0.7420
27.6800 9.2099 0.7524
27.7000 9.2165 0.7399
27.7200 9.2232 0.7413
27.7400 9.2299 0.7528
27.7600 9.2367 0.7400
27.7800 9.2434 0.7380
27.8000 9.2501 0.7523
27.8200 9.2567 0.7376
27.8400 9.2634 0.7426
27.8600 9.2699 0.7498
27.8800 9.2766 0.7350
27.9000 9.2833 0.7435
27.9200 9.2900 0.7439
27.9400 9.2967 0.7352
27.9600 9.3034 0.7484
27.9800 9.3101 0.7456
28.0000 9.3168 0.7353
28.0200 9.3234 0.7454
28.0400 9.3300 0.7430
28.0600 9.3366 0.7363
28.0800 9.3433 0.7454
28.1000 9.3500 0.7426
28.1200 9.3567 0.7304
28.1400 9.3634 0.7478
28.1600 9.3700 0.7429
28.1800 9.3767 0.7316
28.2000 9.3833 0.7449
28.2200 9.3899 0.7458
28.2400 9.3965 0.7330
28.2600 9.4032 0.7449
28.2800 9.4100 0.7406
28.3000 9.4167 0.7375
28.3200 9.4234 0.7439
28.3400 9.4300 0.7389
28.3600 9.4367 0.7300
28.3800 9.4434 0.7472
28.4000 9.4499 0.7369
28.4200 9.4566 0.7306
28.4400 9.4633 0.7497
28.4600 9.4700 0.7415
28.4800 9.4767 0.7325
28.5000 9.4834 0.7441
28.5200 9.4900 0.7381
28.5400 9.4967 0.7353
28.5600 9.5034 0.7436
28.5800 9.5100 0.7335
28.6000 9.5166 0.7343
28.6200 9.5233 0.7435
28.6400 9.5300 0.7342
28.6600 9.5367 0.7389
28.6800 9.5434 0.7447
28.7000 9.5501 0.7307
28.7200 9.5568 0.7364
28.7400 9.5634 0.7394
28.7600 9.5700 0.7388
28.7800 9.5766 0.7397
28.8000 9.5833 0.7346
28.8200 9.5900 0.7315
28.8400 9.5967 0.7457
28.8600 9.6034 0.7355
28.8800 9.6101 0.7309
28.9000 9.6168 0.7409
28.9200 9.6234 0.7331
28.9400 9.6300 0.7352
28.9600 9.6366 0.7410
28.9800 9.6433 0.7358
29.0000 9.6500 0.7323
29.0200 9.6567 0.7398
29.0400 9.6633 0.7392
29.0600 9.6700 0.7330
29.0800 9.6767 0.7409
29.1000 9.6834 0.7314
29.1200 9.6900 0.7301
29.1400 9.6966 0.7405
29.1600 9.7033 0.7382
29.1800 9.7100 0.7311
29.2000 9.7167 0.7363
29.2200 9.7233 0.7380
29.2400 9.7300 0.7321
29.2600 9.7367 0.7386
29.2800 9.7434 0.7345
29.3000 9.7500 0.7269
29.3200 9.7566 0.7394
29.3400 9.7633 0.7296
29.3600 9.7700 0.7306
29.3800 9.7767 0.7423
29.4000 9.7834 0.7296
29.4200 9.7901 0.7303
29.4400 9.7968 0.7375
29.4600 9.8034 0.7333
29.4800 9.8100 0.7285
29.5000 9.8166 0.7370
29.5200 9.8233 0.7320
29.5400 9.8300 0.7323
29.5600 9.8367 0.7316
29.5800 9.8434 0.7315
29.6000 9.8501 0.7296
29.6200 9.8567 0.7301
29.6400 9.8634 0.7315
29.6600 9.8700 0.7377
29.6800 9.8766 0.7305
29.7000 9.8833 0.7261
29.7200 9.8900 0.7331
29.7400 9.8967 0.7353
29.7600 9.9033 0.7272
29.7800 9.9100 0.7327
29.8000 9.9167 0.7300
29.8200 9.9234 0.7253
29.8400 9.9300 0.7309
29.8600 9.9366 0.7329
29.8800 9.9432 0.7286
29.9000 9.9499 0.7309
29.9200 9.9566 0.7328
29.9400 9.9633 0.7255
29.9600 9.9700 0.7279
29.9800 9.9767 0.7315
30.0000 9.9833 0.7224
30.0200 9.9899 0.7233
30.0400 9.9966 0.7349
30.0600 10.0033 0.7267
30.0800 10.0100 0.7216
30.1000 10.0167 0.7342
30.1200 10.0234 0.7267
30.1400 10.0301 0.7195
30.1600 10.0368 0.7294
30.1800 10.0434 0.7275
30.2000 10.0500 0.7233
30.2200 10.0567 0.7295
30.2400 10.0633 0.7271
30.2600 10.0700 0.7188
30.2800 10.0767 0.7288
30.3000 10.0834 0.7316
30.3200 10.0901 0.7184
30.3400 10.0968 0.7242
30.3600 10.1034 0.7274
30.3800 10.1100 0.7160
30.4000 10.1166 0.7301
30.4200 10.1232 0.7297
30.4400 10.1299 0.7170
30.4600 10.1367 0.7260
30.4800 10.1434 0.7285
30.5000 10.1500 0.7154
30.5200 10.1567 0.7286
30.5400 10.1634 0.7243
30.5600 10.1700 0.7146
30.5800 10.1766 0.7320
30.6000 10.1832 0.7275
30.6200 10.1900 0.7141
30.6400 10.1967 0.7283
30.6600 10.2034 0.7257
30.6800 10.2100 0.7154
30.7000 10.2167 0.7316
30.7200 10.2234 0.7189
30.7400 10.2300 0.7153
30.7600 10.2366 0.7324
30.7800 10.2433 0.7179
30.8000 10.2500 0.7187
30.8200 10.2567 0.7327
30.8400 10.2634 0.7146
30.8600 10.2701 0.7159
30.8800 10.2768 0.7293
30.9000 10.2834 0.7181
30.9200 10.2900 0.7162
30.9400 10.2966 0.7251
30.9600 10.3033 0.7142
30.9800 10.3100 0.7247
31.0000 10.3167 0.7216
31.0200 10.3234 0.7142
31.0400 10.3301 0.7226
31.0600 10.3367 0.7174
31.0800 10.3434 0.7126
31.1000 10.3500 0.7238
31.1200 10.3566 0.7207
31.1400 10.3632 0.7223
31.1600 10.3699 0.7201
31.1800 10.3767 0.7199
31.2000 10.3834 0.7184
31.2200 10.3900 0.7178
31.2400 10.3967 0.7174
31.2600 10.4034 0.7175
31.2800 10.4100 0.7152
31.3000 10.4166 0.7189
31.3200 10.4233 0.7213
31.3400 10.4299 0.7118
31.3600 10.4366 0.7175
31.3800 10.4433 0.7199
31.4000 10.4500 0.7138
31.4200 10.4567 0.7201
31.4400 10.4634 0.7172
31.4600 10.4700 0.7091
31.4800 10.4766 0.7177
31.5000 10.4833 0.7173
31.5200 10.4900 0.7113
31.5400 10.4967 0.7170
31.5600 10.5034 0.7136
31.5800 10.5101 0.7105
31.6000 10.5168 0.7212
31.6200 10.5234 0.7062
31.6400 10.5300 0.7119
31.6600 10.5367 0.7190
31.6800 10.5433 0.7080
31.7000 10.5500 0.7121
31.7200 10.5567 0.7191
31.7400 10.5634 0.7063
31.7600 10.5701 0.7136
31.7800 10.5768 0.7172
31.8000 10.5834 0.7046
31.8200 10.5901 0.7120
31.8400 10.5966 0.7138
31.8600 10.6033 0.7140
31.8800 10.6099 0.7134
31.9000 10.6167 0.7035
31.9200 10.6234 0.7143
31.9400 10.6301 0.7126
31.9600 10.6367 0.7021
31.9800 10.6434 0.7129
32.0000 10.6500 0.7174
32.0200 10.6566 0.7014
32.0400 10.6632 0.7077
32.0600 10.6699 0.7202
32.0800 10.6767 0.7009
32.1000 10.6834 0.7056
32.1200 10.6900 0.7138
32.1400 10.6967 0.7082
32.1600 10.7034 0.7090
32.1800 10.7100 0.7061
32.2000 10.7166 0.7045
32.2200 10.7233 0.7170
32.2400 10.7300 0.6992
32.2600 10.7367 0.7072
32.2800 10.7434 0.7156
32.3000 10.7501 0.6982
32.3200 10.7568 0.7013
32.3400 10.7634 0.7123
32.3600 10.7701 0.7044
32.3800 10.7767 0.7021
32.4000 10.7833 0.7066
32.4200 10.7900 0.7019
32.4400 10.7967 0.7055
32.4600 10.8034 0.7082
32.4800 10.8101 0.7026
32.5000 10.8167 0.7042
32.5200 10.8234 0.7009
32.5400 10.8300 0.7038
32.5600 10.8366 0.6997
32.5800 10.8432 0.7021
32.6000 10.8499 0.7105
32.6200 10.8567 0.7037
32.6400 10.8634 0.6962
32.6600 10.8700 0.7041
32.6800 10.8767 0.7046
32.7000 10.8834 0.7052
32.7200 10.8900 0.7039
32.7400 10.8966 0.6980
32.7600 10.9032 0.7046
32.7800 10.9099 0.7071
32.8000 10.9167 0.6944
32.8200 10.9234 0.7004
32.8400 10.9300 0.7109
32.8600 10.9367 0.6928
32.8800 10.9434 0.7006
32.9000 10.9500 0.7008
32.9200 10.9567 0.6989
32.9400 10.9633 0.7052
32.9600 10.9699 0.6996
32.9800 10.9766 0.6911
33.0000 10.9834 0.7047
33.0200 10.9900 0.7030
33.0400 10.9967 0.6936
33.0600 11.0034 0.7026
33.0800 11.0100 0.6987
33.1000 11.0166 0.6898
33.1200 11.0233 0.7078
33.1400 11.0300 0.6931
33.1600 11.0367 0.6979
33.1800 11.0434 0.7010
33.2000 11.0501 0.6906
33.2200 11.0567 0.6958
33.2400 11.0634 0.7054
33.2600 11.0701 0.6950
33.2800 11.0767 0.6893
33.3000 11.0833 0.6954
33.3200 11.0900 0.7009
33.3400 11.0966 0.6984
33.3600 11.1033 0.6956
33.3800 11.1100 0.6926
33.4000 11.1167 0.6974
33.4200 11.1234 0.6884
33.4400 11.1300 0.7015
33.4600 11.1366 0.7028
33.4800 11.1432 0.6820
33.5000 11.1499 0.6985
33.5200 11.1566 0.6989
33.5400 11.1633 0.6910
33.5600 11.1700 0.6975
33.5800 11.1767 0.6953
33.6000 11.1834 0.6865
33.6200 11.1900 0.6980
33.6400 11.1966 0.6947
33.6600 11.2033 0.6932
33.6800 11.2099 0.7059
33.7000 11.2167 0.6786
33.7200 11.2234 0.6878
33.7400 11.2301 0.7154
33.7600 11.2368 0.6778
33.7800 11.2434 0.6949
33.8000 11.2501 0.7007
33.8200 11.2567 0.6725
33.8400 11.2633 0.6997
33.8600 11.2699 0.7045
33.8800 11.2767 0.6738
33.9000 11.2834 0.7005
33.9200 11.2900 0.6909
33.9400 11.2967 0.6713
33.9600 11.3034 0.7048
33.9800 11.3101 0.6937
34.0000 11.3167 0.6744
34.0200 11.3233 0.7006
34.0400 11.3299 0.6869
34.0600 11.3366 0.6863
34.0800 11.3433 0.7040
34.1000 11.3500 0.6804
34.1200 11.3567 0.6846
34.1400 11.3634 0.6977
34.1600 11.3701 0.6784
34.1800 11.3766 0.6884
34.2000 11.3832 0.6993
34.2200 11.3899 0.6830
34.2400 11.3966 0.6842
34.2600 11.4033 0.6913
34.2800 11.4100 0.6922
34.3000 11.4167 0.6850
34.3200 11.4234 0.6892
34.3400 11.4300 0.6838
34.3600 11.4366 0.6864
34.3800 11.4433 0.6930
34.4000 11.4499 0.6876
34.4200 11.4566 0.6809
34.4400 11.4634 0.6924
34.4600 11.4701 0.6825
34.4800 11.4767 0.6840
34.5000 11.4834 0.6896
34.5200 11.4901 0.6839
34.5400 11.4967 0.6801
34.5600 11.5033 0.6877
34.5800 11.5100 0.6848
34.6000 11.5167 0.6792
34.6200 11.5234 0.6860
34.6400 11.5301 0.6863
34.6600 11.5367 0.6804
34.6800 11.5434 0.6799
34.7000 11.5500 0.6895
34.7200 11.5566 0.6784
34.7400 11.5632 0.6814
34.7600 11.5699 0.6854
34.7800 11.5766 0.6802
34.8000 11.5833 0.6804
34.8200 11.5900 0.6842
34.8400 11.5967 0.6781
34.8600 11.6033 0.6862
34.8800 11.6100 0.6845
34.9000 11.6166 0.6693
34.9200 11.6232 0.6845
34.9400 11.6299 0.6898
34.9600 11.6366 0.6668
34.9800 11.6433 0.6842
35.0000 11.6500 0.6819
35.0200 11.6567 0.6690
35.0400 11.6634 0.6838
35.0600 11.6701 0.6811
35.0800 11.6767 0.6708
35.1000 11.6833 0.6829
35.1200 11.6899 0.6787
35.1400 11.6966 0.6749
35.1600 11.7034 0.6790
35.1800 11.7100 0.6791
35.2000 11.7167 0.6712
35.2200 11.7234 0.6850
35.2400 11.7301 0.6743
35.2600 11.7367 0.6741
35.2800 11.7433 0.6761
35.3000 11.7499 0.6779
35.3200 11.7566 0.6815
35.3400 11.7634 0.6730
35.3600 11.7700 0.6763
35.3800 11.7767 0.6766
35.4000 11.7834 0.6790
35.4200 11.7901 0.6725
35.4400 11.7967 0.6709
35.4600 11.8033 0.6726
35.4800 11.8100 0.6774
35.5000 11.8166 0.6755
35.5200 11.8233 0.6745
35.5400 11.8300 0.6759
35.5600 11.8367 0.6759
35.5800 11.8434 0.6740
35.6000 11.8501 0.6741
35.6200 11.8567 0.6762
35.6400 11.8633 0.6751
35.6600 11.8699 0.6703
35.6800 11.8766 0.6801
35.7000 11.8833 0.6762
35.7200 11.8900 0.6755
35.7400 11.8967 0.6725
35.7600 11.9034 0.6764
35.7800 11.9100 0.6695
35.8000 11.9167 0.6746
35.8200 11.9233 0.6800
35.8400 11.9299 0.6724
35.8600 11.9366 0.6701
35.8800 11.9433 0.6750
35.9000 11.9500 0.6752
35.9200 11.9567 0.6718
35.9400 11.9634 0.6745
35.9600 11.9701 0.6753
35.9800 11.9767 0.6658
36.0000 11.9833 0.6769
36.0200 11.9900 0.6808
36.0400 11.9966 0.6697
36.0600 12.0033 0.6778
36.0800 12.0100 0.6754
36.1000 12.0167 0.6686
36.1200 12.0234 0.6715
36.1400 12.0301 0.6772
36.1600 12.0367 0.6690
36.1800 12.0433 0.6750
36.2000 12.0499 0.6681
36.2200 12.0566 0.6764
36.2400 12.0633 0.6706
36.2600 12.0700 0.6682
36.2800 12.0767 0.6787
36.3000 12.0834 0.6700
36.3200 12.0900 0.6648
36.3400 12.0967 0.6759
36.3600 12.1033 0.6711
36.3800 12.1099 0.6716
36.4000 12.1166 0.6758
36.4200 12.1233 0.6646
36.4400 12.1300 0.6730
36.4600 12.1367 0.6742
36.4800 12.1433 0.6593
36.5000 12.1500 0.6779
36.5200 12.1567 0.6731
36.5400 12.1633 0.6568
36.5600 12.1699 0.6733
36.5800 12.1766 0.6784
36.6000 12.1833 0.6602
36.6200 12.1901 0.6691
36.6400 12.1967 0.6750
36.6600 12.2034 0.6613
36.6800 12.2101 0.6711
36.7000 12.2167 0.6729
36.7200 12.2233 0.6586
36.7400 12.2300 0.6717
36.7600 12.2367 0.6721
36.7800 12.2434 0.6630
36.8000 12.2501 0.6707
36.8200 12.2567 0.6683
36.8400 12.2634 0.6640
36.8600 12.2701 0.6685
36.8800 12.2767 0.6628
36.9000 12.2833 0.6665
36.9200 12.2899 0.6697
36.9400 12.2966 0.6559
36.9600 12.3033 0.6696
36.9800 12.3100 0.6748
37.0000 12.3167 0.6514
37.0200 12.3234 0.6658
37.0400 12.3300 0.6723
37.0600 12.3367 0.6481
37.0800 12.3433 0.6715
37.1000 12.3499 0.6681
37.1200 12.3566 0.6538
37.1400 12.3633 0.6644
37.1600 12.3700 0.6595
37.1800 12.3767 0.6576
37.2000 12.3834 0.6689
37.2200 12.3901 0.6558
37.2400 12.3967 0.6550
37.2600 12.4033 0.6687
37.2800 12.4099 0.6578
37.3000 12.4166 0.6598
37.3200 12.4233 0.6622
37.3400 12.4300 0.6590
37.3600 12.4367 0.6583
37.3800 12.4434 0.6614
37.4000 12.4501 0.6609
37.4200 12.4567 0.6603
37.4400 12.4633 0.6523
37.4600 12.4700 0.6564
37.4800 12.4766 0.6643
37.5000 12.4833 0.6458
37.5200 12.4900 0.6570
37.5400 12.4967 0.6752
37.5600 12.5034 0.6475
37.5800 12.5101 0.6501
37.6000 12.5167 0.6682
37.6200 12.5233 0.6539
37.6400 12.5299 0.6468
37.6600 12.5366 0.6725
37.6800 12.5433 0.6564
37.7000 12.5500 0.6473
37.7200 12.5567 0.6664
37.7400 12.5634 0.6561
37.7600 12.5701 0.6501
37.7800 12.5767 0.6640
37.8000 12.5833 0.6604
37.8200 12.5899 0.6446
37.8400 12.5965 0.6653
37.8600 12.6032 0.6621
37.8800 12.6100 0.6414
37.9000 12.6166 0.6659
37.9200 12.6233 0.6569
37.9400 12.6300 0.6454
37.9600 12.6367 0.6592
37.9800 12.6433 0.6581
38.0000 12.6499 0.6513
38.0200 12.6566 0.6596
38.0400 12.6633 0.6527
38.0600 12.6700 0.6483
38.0800 12.6767 0.6649
38.1000 12.6834 0.6456
38.1200 12.6901 0.6479
38.1400 12.6968 0.6678
38.1600 12.7034 0.6464
38.1800 12.7099 0.6482
38.2000 12.7166 0.6644
38.2200 12.7233 0.6513
38.2400 12.7300 0.6514
38.2600 12.7367 0.6601
38.2800 12.7434 0.6517
38.3000 12.7501 0.6498
38.3200 12.7567 0.6560
38.3400 12.7633 0.6555
38.3600 12.7699 0.6543
38.3800 12.7766 0.6499
38.4000 12.7833 0.6542
38.4200 12.7900 0.6561
38.4400 12.7967 0.6491
38.4600 12.8033 0.6552
38.4800 12.8100 0.6560
38.5000 12.8167 0.6509
38.5200 12.8233 0.6547
38.5400 12.8299 0.6460
38.5600 12.8366 0.6596
38.5800 12.8433 0.6537
38.6000 12.8500 0.6419
38.6200 12.8567 0.6570
38.6400 12.8633 0.6564
38.6600 12.8700 0.6396
38.6800 12.8767 0.6559
38.7000 12.8833 0.6523
38.7200 12.8899 0.6394
38.7400 12.8966 0.6571
38.7600 12.9033 0.6487
38.7800 12.9100 0.6347
38.8000 12.9167 0.6643
38.8200 12.9234 0.6492
38.8400 12.9301 0.6324
38.8600 12.9367 0.6655
38.8800 12.9433 0.6464
38.9000 12.9499 0.6362
38.9200 12.9566 0.6575
38.9400 12.9633 0.6444
38.9600 12.9701 0.6406
38.9800 12.9767 0.6563
39.0000 12.9834 0.6409
39.0200 12.9901 0.6398
39.0400 12.9967 0.6542
39.0600 13.0033 0.6417
39.0800 13.0100 0.6449
39.1000 13.0166 0.6532
39.1200 13.0233 0.6365
39.1400 13.0300 0.6432
39.1600 13.0367 0.6474
39.1800 13.0433 0.6442
39.2000 13.0500 0.6400
39.2200 13.0567 0.6397
39.2400 13.0633 0.6411
39.2600 13.0699 0.6399
39.2800 13.0765 0.6404
39.3000 13.0832 0.6449
39.3200 13.0900 0.6395
39.3400 13.0967 0.6379
39.3600 13.1034 0.6415
39.3800 13.1101 0.6348
39.4000 13.1167 0.6367
39.4200 13.1234 0.6476
39.4400 13.1300 0.6377
39.4600 13.1366 0.6369
39.4800 13.1433 0.6417
39.5000 13.1500 0.6307
39.5200 13.1567 0.6453
39.5400 13.1634 0.6363
39.5600 13.1700 0.6275
39.5800 13.1767 0.6453
39.6000 13.1833 0.6396
39.6200 13.1900 0.6282
39.6400 13.1966 0.6422
39.6600 13.2033 0.6369
39.6800 13.2100 0.6351
39.7000 13.2167 0.6395
39.7200 13.2234 0.6322
39.7400 13.2301 0.6335
39.7600 13.2367 0.6423
39.7800 13.2434 0.6268
39.8000 13.2500 0.6394
39.8200 13.2566 0.6385
39.8400 13.2633 0.6274
39.8600 13.2700 0.6337
39.8800 13.2767 0.6366
39.9000 13.2834 0.6302
39.9200 13.2901 0.6356
39.9400 13.2967 0.6375
39.9600 13.3033 0.6287
39.9800 13.3099 0.6377
40.0000 13.3166 0.6399
40.0200 13.3233 0.6292
40.0400 13.3300 0.6351
40.0600 13.3367 0.6351
40.0800 13.3433 0.6295
40.1000 13.3500 0.6388
40.1200 13.3566 0.6278
40.1400 13.3633 0.6288
40.1600 13.3699 0.6361
40.1800 13.3766 0.6306
40.2000 13.3833 0.6333
40.2200 13.3900 0.6352
40.2400 13.3967 0.6299
40.2600 13.4034 0.6365
40.2800 13.4101 0.6353
40.3000 13.4168 0.6270
40.3200 13.4234 0.6347
40.3400 13.4300 0.6288
40.3600 13.4366 0.6237
40.3800 13.4433 0.6375
40.4000 13.4500 0.6273
40.4200 13.4567 0.6280
40.4400 13.4634 0.6349
40.4600 13.4701 0.6287
40.4800 13.4767 0.6255
40.5000 13.4833 0.6319
40.5200 13.4899 0.6299
40.5400 13.4966 0.6334
40.5600 13.5033 0.6260
40.5800 13.5100 0.6214
40.6000 13.5167 0.6363
40.6200 13.5233 0.6284
40.6400 13.5300 0.6177
40.6600 13.5367 0.6384
40.6800 13.5433 0.6269
40.7000 13.5499 0.6189
40.7200 13.5566 0.6351
40.7400 13.5632 0.6269
40.7600 13.5700 0.6214
40.7800 13.5766 0.6318
40.8000 13.5833 0.6210
40.8200 13.5900 0.6228
40.8400 13.5967 0.6316
40.8600 13.6033 0.6158
40.8800 13.6099 0.6246
40.9000 13.6165 0.6385
40.9200 13.6233 0.6167
40.9400 13.6300 0.6239
40.9600 13.6367 0.6337
40.9800 13.6434 0.6149
41.0000 13.6501 0.6248
41.0200 13.6568 0.6260
41.0400 13.6634 0.6173
41.0600 13.6700 0.6245
41.0800 13.6766 0.6199
41.1000 13.6833 0.6173
41.1200 13.6900 0.6299
41.1400 13.6967 0.6180
41.1600 13.7034 0.6183
41.1800 13.7101 0.6353
41.2000 13.7168 0.6123
41.2200 13.7234 0.6107
41.2400 13.7300 0.6347
41.2600 13.7366 0.6141
41.2800 13.7433 0.6187
41.3000 13.7500 0.6247
41.3200 13.7567 0.6162
41.3400 13.7634 0.6297
41.3600 13.7700 0.6142
41.3800 13.7767 0.6043
41.4000 13.7833 0.6444
41.4200 13.7899 0.6231
41.4400 13.7966 0.5883
41.4600 13.8032 0.6354
41.4800 13.8100 0.6274
41.5000 13.8167 0.6059
41.5200 13.8233 0.6310
41.5400 13.8300 0.6055
41.5600 13.8367 0.6145
41.5800 13.8434 0.6368
41.6000 13.8500 0.6023
41.6200 13.8566 0.6158
41.6400 13.8633 0.6409
41.6600 13.8700 0.6066
41.6800 13.8767 0.6133
41.7000 13.8834 0.6305
41.7200 13.8901 0.6020
41.7400 13.8968 0.6207
41.7600 13.9034 0.6208
41.7800 13.9100 0.6089
41.8000 13.9166 0.6285
41.8200 13.9233 0.6035
41.8400 13.9300 0.6042
41.8600 13.9367 0.6301
41.8800 13.9434 0.6165
41.9000 13.9500 0.6113
41.9200 13.9567 0.6088
41.9400 13.9634 0.6115
41.9600 13.9700 0.6269
41.9800 13.9766 0.6083
42.0000 13.9833 0.6098
42.0200 13.9900 0.6297
42.0400 13.9967 0.5983
42.0600 14.0034 0.6074
42.0800 14.0100 0.6311
42.1000 14.0167 0.6027
42.1200 14.0234 0.6097
42.1400 14.0300 0.6206
42.1600 14.0366 0.5943
42.1800 14.0432 0.6139
42.2000 14.0499 0.6240
42.2200 14.0566 0.5969
42.2400 14.0633 0.6159
42.2600 14.0700 0.6161
42.2800 14.0767 0.5935
42.3000 14.0834 0.6156
42.3200 14.0900 0.6164
42.3400 14.0966 0.6007
42.3600 14.1033 0.6172
42.3800 14.1100 0.6058
42.4000 14.1167 0.5984
42.4200 14.1234 0.6114
42.4400 14.1301 0.6174
42.4600 14.1368 0.6053
42.4800 14.1434 0.6028
42.5000 14.1500 0.6017
42.5200 14.1566 0.6121
42.5400 14.1633 0.6045
42.5600 14.1700 0.6066
42.5800 14.1767 0.6056
42.6000 14.1834 0.5988
42.6200 14.1901 0.6065
42.6400 14.1967 0.6027
42.6600 14.2034 0.6050
42.6800 14.2099 0.6066
42.7000 14.2165 0.5968
42.7200 14.2232 0.6048
42.7400 14.2299 0.6062
42.7600 14.2367 0.6001
42.7800 14.2434 0.6034
42.8000 14.2501 0.6072
42.8200 14.2568 0.5963
42.8400 14.2634 0.6039
42.8600 14.2700 0.6060
42.8800 14.2766 0.6012
42.9000 14.2832 0.6098
42.9200 14.2900 0.5998
42.9400 14.2967 0.6011
42.9600 14.3034 0.6039
42.9800 14.3100 0.6000
43.0000 14.3167 0.6020
43.0200 14.3234 0.6040
43.0400 14.3300 0.6005
43.0600 14.3366 0.6019
43.0800 14.3433 0.6047
43.1000 14.3500 0.5981
43.1200 14.3567 0.5985
43.1400 14.3634 0.6045
43.1600 14.3701 0.5964
43.1800 14.3767 0.6035
43.2000 14.3834 0.6029
43.2200 14.3900 0.5998
43.2400 14.3966 0.5973
43.2600 14.4033 0.6011
43.2800 14.4100 0.6025
43.3000 14.4167 0.5943
43.3200 14.4234 0.6010
43.3400 14.4301 0.6069
43.3600 14.4368 0.5951
43.3800 14.4434 0.5994
43.4000 14.4500 0.6023
43.4200 14.4566 0.5993
43.4400 14.4633 0.5968
43.4600 14.4700 0.6027
43.4800 14.4767 0.5969
43.5000 14.4833 0.5951
43.5200 14.4900 0.6003
43.5400 14.4967 0.5978
43.5600 14.5034 0.5981
43.5800 14.5100 0.6031
43.6000 14.5166 0.6017
43.6200 14.5233 0.5911
43.6400 14.5300 0.6042
43.6600 14.5367 0.5964
43.6800 14.5433 0.5883
43.7000 14.5500 0.6101
43.7200 14.5567 0.5937
43.7400 14.5634 0.5840
43.7600 14.5700 0.6059
43.7800 14.5766 0.5952
43.8000 14.5833 0.5866
43.8200 14.5900 0.6050
43.8400 14.5967 0.5898
43.8600 14.6034 0.5878
43.8800 14.6101 0.6108
43.9000 14.6167 0.5826
43.9200 14.6234 0.5854
43.9400 14.6300 0.6127
43.9600 14.6366 0.5858
43.9800 14.6433 0.5907
44.0000 14.6500 0.6050
44.0200 14.6567 0.5787
44.0400 14.6634 0.5996
44.0600 14.6701 0.5984
44.0800 14.6767 0.5811
44.1000 14.6834 0.6029
44.1200 14.6900 0.5874
44.1400 14.6966 0.5819
44.1600 14.7033 0.6083
44.1800 14.7100 0.5828
44.2000 14.7167 0.5849
44.2200 14.7233 0.6050
44.2400 14.7300 0.5751
44.2600 14.7367 0.5942
44.2800 14.7434 0.6039
44.3000 14.7500 0.5678
44.3200 14.7566 0.6018
44.3400 14.7632 0.6038
44.3600 14.7699 0.5692
44.3800 14.7767 0.5999
44.4000 14.7833 0.5936
44.4200 14.7900 0.5741
44.4400 14.7967 0.6021
44.4600 14.8033 0.5816
44.4800 14.8100 0.5757
44.5000 14.8166 0.6106
44.5200 14.8232 0.5773
44.5400 14.8300 0.5784
44.5600 14.8367 0.6044
44.5800 14.8434 0.5786
44.6000 14.8501 0.5835
44.6200 14.8567 0.5934
44.6400 14.8634 0.5770
44.6600 14.8701 0.5908
44.6800 14.8767 0.5854
44.7000 14.8833 0.5771
44.7200 14.8900 0.5865
44.7400 14.8967 0.5875
44.7600 14.9034 0.5785
44.7800 14.9101 0.5859
44.8000 14.9168 0.5868
44.8200 14.9234 0.5768
44.8400 14.9300 0.5850
44.8600 14.9366 0.5769
44.8800 14.9432 0.5894
44.9000 14.9499 0.5877
44.9200 14.9566 0.5747
44.9400 14.9633 0.5850
44.9600 14.9700 0.5815
44.9800 14.9767 0.5841
45.0000 14.9834 0.5845
45.0200 14.9900 0.5769
45.0400 14.9966 0.5847
45.0600 15.0033 0.5802
45.0800 15.0099 0.5768
45.1000 15.0167 0.5799
45.1200 15.0233 0.5813
45.1400 15.0300 0.5769
45.1600 15.0367 0.5847
45.1800 15.0434 0.5732
45.2000 15.0500 0.5784
45.2200 15.0567 0.5886
45.2400 15.0633 0.5694
45.2600 15.0700 0.5730
45.2800 15.0767 0.5899
45.3000 15.0834 0.5738
45.3200 15.0901 0.5721
45.3400 15.0968 0.5822
45.3600 15.1035 0.5758
45.3800 15.1101 0.5719
45.4000 15.1167 0.5836
45.4200 15.1233 0.5703
45.4400 15.1300 0.5760
45.4600 15.1367 0.5838
45.4800 15.1434 0.5689
45.5000 15.1501 0.5706
45.5200 15.1567 0.5868
45.5400 15.1634 0.5710
45.5600 15.1700 0.5675
45.5800 15.1766 0.5837
45.6000 15.1833 0.5764
45.6200 15.1900 0.5662
45.6400 15.1967 0.5798
45.6600 15.2034 0.5739
45.6800 15.2100 0.5664
45.7000 15.2167 0.5798
45.7200 15.2234 0.5714
45.7400 15.2300 0.5684
45.7600 15.2366 0.5765
45.7800 15.2433 0.5717
45.8000 15.2499 0.5630
45.8200 15.2566 0.5790
45.8400 15.2633 0.5665
45.8600 15.2700 0.5685
45.8800 15.2767 0.5814
45.9000 15.2834 0.5639
45.9200 15.2900 0.5648
45.9400 15.2966 0.5802
45.9600 15.3033 0.5617
45.9800 15.3100 0.5690
46.0000 15.3167 0.5813
46.0200 15.3234 0.5580
46.0400 15.3301 0.5593
46.0600 15.3368 0.5792
46.0800 15.3434 0.5611
46.1000 15.3500 0.5632
46.1200 15.3566 0.5773
46.1400 15.3633 0.5613
46.1600 15.3700 0.5654
46.1800 15.3767 0.5702
46.2000 15.3834 0.5598
46.2200 15.3901 0.5668
46.2400 15.3967 0.5643
46.2600 15.4034 0.5615
46.2800 15.4100 0.5633
46.3000 15.4166 0.5659
46.3200 15.4232 0.5656
46.3400 15.4299 0.5593
46.3600 15.4366 0.5645
46.3800 15.4434 0.5674
46.4000 15.4501 0.5562
46.4200 15.4567 0.5570
46.4400 15.4634 0.5677
46.4600 15.4700 0.5531
46.4800 15.4766 0.5642
46.5000 15.4832 0.5640
46.5200 15.4899 0.5516
46.5400 15.4966 0.5642
46.5600 15.5033 0.5669
46.5800 15.5100 0.5550
46.6000 15.5167 0.5617
46.6200 15.5234 0.5610
46.6400 15.5300 0.5444
46.6600 15.5366 0.5689
46.6800 15.5433 0.5689
46.7000 15.5499 0.5422
46.7200 15.5566 0.5667
46.7400 15.5633 0.5552
46.7600 15.5700 0.5510
46.7800 15.5767 0.5720
46.8000 15.5834 0.5526
46.8200 15.5901 0.5441
46.8400 15.5967 0.5630
46.8600 15.6033 0.5579
46.8800 15.6100 0.5528
46.9000 15.6167 0.5644
46.9200 15.6234 0.5518
46.9400 15.6301 0.5512
46.9600 15.6368 0.5672
46.9800 15.6434 0.5503
47.0000 15.6500 0.5533
47.0200 15.6566 0.5565
47.0400 15.6632 0.5540
47.0600 15.6699 0.5574
47.0800 15.6767 0.5509
47.1000 15.6834 0.5577
47.1200 15.6900 0.5459
47.1400 15.6967 0.5497
47.1600 15.7034 0.5568
47.1800 15.7100 0.5535
47.2000 15.7167 0.5472
47.2200 15.7233 0.5519
47.2400 15.7299 0.5523
47.2600 15.7367 0.5546
47.2800 15.7433 0.5495
47.3000 15.7500 0.5461
47.3200 15.7567 0.5490
47.3400 15.7634 0.5532
47.3600 15.7701 0.5474
47.3800 15.7767 0.5522
47.4000 15.7833 0.5527
47.4200 15.7899 0.5498
47.4400 15.7966 0.5515
47.4600 15.8033 0.5479
47.4800 15.8100 0.5466
47.5000 15.8167 0.5543
47.5200 15.8234 0.5474
47.5400 15.8300 0.5427
47.5600 15.8366 0.5513
47.5800 15.8432 0.5526
47.6000 15.8499 0.5409
47.6200 15.8567 0.5434
47.6400 15.8634 0.5482
47.6600 15.8701 0.5456
47.6800 15.8768 0.5438
47.7000 15.8834 0.5468
47.7200 15.8901 0.5516
47.7400 15.8967 0.5431
47.7600 15.9033 0.5446
47.7800 15.9100 0.5503
47.8000 15.9167 0.5424
47.8200 15.9234 0.5459
47.8400 15.9300 0.5446
47.8600 15.9367 0.5399
47.8800 15.9434 0.5520
47.9000 15.9500 0.5454
47.9200 15.9566 0.5378
47.9400 15.9632 0.5470
47.9600 15.9699 0.5518
47.9800 15.9766 0.5398
48.0000 15.9833 0.5458
48.0200 15.9900 0.5448
48.0400 15.9967 0.5417
48.0600 16.0034 0.5466
48.0800 16.0100 0.5430
48.1000 16.0167 0.5425
48.1200 16.0233 0.5467
48.1400 16.0300 0.5387
48.1600 16.0367 0.5415
48.1800 16.0434 0.5409
48.2000 16.0501 0.5450
48.2200 16.0568 0.5389
48.2400 16.0634 0.5367
48.2600 16.0701 0.5388
48.2800 16.0767 0.5399
48.3000 16.0833 0.5404
48.3200 16.0900 0.5366
48.3400 16.0967 0.5409
48.3600 16.1034 0.5375
48.3800 16.1100 0.5413
48.4000 16.1167 0.5381
48.4200 16.1234 0.5343
48.4400 16.1301 0.5444
48.4600 16.1367 0.5352
48.4800 16.1433 0.5347
48.5000 16.1499 0.5426
48.5200 16.1566 0.5326
48.5400 16.1633 0.5364
48.5600 16.1700 0.5379
48.5800 16.1767 0.5349
48.6000 16.1834 0.5318
48.6200 16.1901 0.5378
48.6400 16.1967 0.5316
48.6600 16.2033 0.5398
48.6800 16.2099 0.5384
48.7000 16.2166 0.5267
48.7200 16.2233 0.5390
48.7400 16.2300 0.5333
48.7600 16.2367 0.5280
48.7800 16.2434 0.5398
48.8000 16.2500 0.5295
48.8200 16.2566 0.5291
48.8400 16.2633 0.5338
48.8600 16.2699 0.5335
48.8800 16.2766 0.5245
48.9000 16.2833 0.5330
48.9200 16.2900 0.5361
48.9400 16.2967 0.5259
48.9600 16.3034 0.5293
48.9800 16.3101 0.5360
49.0000 16.3167 0.5288
49.0200 16.3233 0.5274
49.0400 16.3299 0.5315
49.0600 16.3366 0.5268
49.0800 16.3434 0.5246
49.1000 16.3501 0.5345
49.1200 16.3567 0.5231
49.1400 16.3634 0.5236
49.1600 16.3701 0.5373
49.1800 16.3766 0.5204
49.2000 16.3833 0.5277
49.2200 16.3899 0.5350
49.2400 16.3966 0.5224
49.2600 16.4033 0.5258
49.2800 16.4100 0.5280
49.3000 16.4167 0.5206
49.3200 16.4233 0.5296
49.3400 16.4300 0.5238
49.3600 16.4367 0.5193
49.3800 16.4433 0.5303
49.4000 16.4499 0.5306
49.4200 16.4566 0.5210
49.4400 16.4633 0.5265
49.4600 16.4700 0.5246
49.4800 16.4767 0.5270
49.5000 16.4834 0.5209
49.5200 16.4901 0.5271
49.5400 16.4967 0.5237
49.5600 16.5033 0.5213
49.5800 16.5099 0.5276
49.6000 16.5166 0.5223
49.6200 16.5234 0.5171
49.6400 16.5301 0.5276
49.6600 16.5367 0.5231
49.6800 16.5434 0.5151
49.7000 16.5501 0.5265
49.7200 16.5567 0.5217
49.7400 16.5633 0.5138
49.7600 16.5699 0.5317
49.7800 16.5766 0.5229
49.8000 16.5834 0.5141
49.8200 16.5900 0.5271
49.8400 16.5967 0.5186
49.8600 16.6034 0.5207
49.8800 16.6101 0.5214
49.9000 16.6167 0.5148
49.9200 16.6233 0.5158
49.9400 16.6300 0.5247
49.9600 16.6366 0.5169
49.9800 16.6433 0.5181
50.0000 16.6500 0.5248
50.0200 16.6567 0.5132
50.0400 16.6634 0.5206
50.0600 16.6701 0.5222
50.0800 16.6767 0.5127
50.1000 16.6833 0.5209
50.1200 16.6899 0.5203
50.1400 16.6966 0.5118
50.1600 16.7033 0.5144
50.1800 16.7100 0.5278
50.2000 16.7167 0.5089
50.2200 16.7234 0.5131
50.2400 16.7300 0.5237
50.2600 16.7367 0.5117
50.2800 16.7433 0.5109
50.3000 16.7499 0.5204
50.3200 16.7566 0.5156
50.3400 16.7633 0.5077
50.3600 16.7700 0.5183
50.3800 16.7767 0.5174
50.4000 16.7834 0.5040
50.4200 16.7901 0.5173
50.4400 16.7967 0.5166
50.4600 16.8033 0.5058
50.4800 16.8099 0.5191
50.5000 16.8166 0.5083
50.5200 16.8233 0.5015
50.5400 16.8300 0.5197
50.5600 16.8367 0.5112
50.5800 16.8434 0.5059
50.6000 16.8501 0.5191
50.6200 16.8567 0.5016
50.6400 16.8633 0.5084
50.6600 16.8699 0.5222
50.6800 16.8766 0.5049
50.7000 16.8834 0.5055
50.7200 16.8901 0.5110
50.7400 16.8967 0.5035
50.7600 16.9034 0.5116
50.7800 16.9101 0.5115
50.8000 16.9167 0.5045
50.8200 16.9233 0.5025
50.8400 16.9299 0.5081
50.8600 16.9366 0.5017
50.8800 16.9433 0.5094
50.9000 16.9500 0.5074
50.9200 16.9566 0.5017
50.9400 16.9633 0.5099
50.9600 16.9700 0.5065
50.9800 16.9767 0.5019
51.0000 16.9833 0.5036
51.0200 16.9899 0.5135
51.0400 16.9966 0.5061
51.0600 17.0033 0.4970
51.0800 17.0100 0.5110
51.1000 17.0167 0.5047
51.1200 17.0234 0.4969
51.1400 17.0301 0.5098
51.1600 17.0367 0.5062
51.1800 17.0433 0.4949
51.2000 17.0499 0.5085
51.2200 17.0566 0.5091
51.2400 17.0633 0.4984
51.2600 17.0701 0.5018
51.2800 17.0767 0.5032
51.3000 17.0834 0.5035
51.3200 17.0901 0.4974
51.3400 17.0967 0.5048
51.3600 17.1033 0.5014
51.3800 17.1099 0.4950
51.4000 17.1166 0.4987
51.4200 17.1233 0.5015
51.4400 17.1300 0.4985
51.4600 17.1367 0.4971
51.4800 17.1434 0.4995
51.5000 17.1501 0.4961
51.5200 17.1567 0.4965
51.5400 17.1633 0.4996
51.5600 17.1699 0.5003
51.5800 17.1766 0.4996
51.6000 17.1833 0.4928
51.6200 17.1900 0.4972
51.6400 17.1967 0.5017
51.6600 17.2034 0.4959
51.6800 17.2101 0.4936
51.7000 17.2167 0.4976
51.7200 17.2233 0.4977
51.7400 17.2299 0.5009
51.7600 17.2366 0.4937
51.7800 17.2433 0.4894
51.8000 17.2500 0.4980
51.8200 17.2567 0.4965
51.8400 17.2634 0.4860
51.8600 17.2701 0.5005
51.8800 17.2767 0.4963
51.9000 17.2833 0.4819
51.9200 17.2900 0.4987
51.9400 17.2966 0.4943
51.9600 17.3033 0.4866
51.9800 17.3100 0.4943
52.0000 17.3167 0.4910
52.0200 17.3234 0.4877
52.0400 17.3301 0.4931
52.0600 17.3368 0.4895
52.0800 17.3433 0.4845
52.1000 17.3499 0.4950
52.1200 17.3566 0.4888
52.1400 17.3633 0.4836
52.1600 17.3700 0.4923
52.1800 17.3767 0.4824
52.2000 17.3834 0.4837
52.2200 17.3900 0.4874
52.2400 17.3967 0.4861
52.2600 17.4033 0.4808
52.2800 17.4099 0.4856
52.3000 17.4166 0.4888
52.3200 17.4233 0.4847
52.3400 17.4300 0.4815
52.3600 17.4366 0.4834
52.3800 17.4433 0.4864
52.4000 17.4500 0.4826
52.4200 17.4567 0.4835
52.4400 17.4633 0.4856
52.4600 17.4699 0.4792
52.4800 17.4766 0.4860
52.5000 17.4833 0.4788
52.5200 17.4900 0.4806
52.5400 17.4967 0.4828
52.5600 17.5034 0.4775
52.5800 17.5101 0.4754
52.6000 17.5168 0.4848
52.6200 17.5234 0.4787
52.6400 17.5300 0.4744
52.6600 17.5366 0.4858
52.6800 17.5433 0.4748
52.7000 17.5500 0.4794
52.7200 17.5567 0.4802
52.7400 17.5634 0.4743
52.7600 17.5701 0.4795
52.7800 17.5768 0.4798
52.8000 17.5833 0.4744
52.8200 17.5899 0.4749
52.8400 17.5966 0.4750
52.8600 17.6033 0.4797
52.8800 17.6100 0.4740
52.9000 17.6167 0.4772
52.9200 17.6234 0.4800
52.9400 17.6300 0.4719
52.9600 17.6367 0.4746
52.9800 17.6433 0.4802
53.0000 17.6499 0.4693
53.0200 17.6566 0.4774
53.0400 17.6633 0.4777
53.0600 17.6700 0.4631
53.0800 17.6767 0.4785
53.1000 17.6833 0.4825
53.1200 17.6900 0.4623
53.1400 17.6967 0.4741
53.1600 17.7033 0.4787
53.1800 17.7100 0.4636
53.2000 17.7166 0.4746
53.2200 17.7233 0.4733
53.2400 17.7300 0.4679
53.2600 17.7367 0.4739
53.2800 17.7434 0.4658
53.3000 17.7501 0.4698
53.3200 17.7567 0.4732
53.3400 17.7633 0.4632
53.3600 17.7699 0.4650
53.3800 17.7766 0.4728
53.4000 17.7833 0.4646
53.4200 17.7901 0.4618
53.4400 17.7968 0.4706
53.4600 17.8034 0.4621
53.4800 17.8101 0.4634
53.5000 17.8167 0.4615
53.5200 17.8233 0.4688
53.5400 17.8300 0.4633
53.5600 17.8366 0.4658
53.5800 17.8433 0.4693
53.6000 17.8500 0.4600
53.6200 17.8566 0.4652
53.6400 17.8633 0.4699
53.6600 17.8700 0.4546
53.6800 17.8767 0.4666
53.7000 17.8833 0.4643
53.7200 17.8899 0.4528
53.7400 17.8966 0.4665
53.7600 17.9033 0.4688
53.7800 17.9100 0.4513
53.8000 17.9167 0.4676
53.8200 17.9234 0.4683
53.8400 17.9300 0.4522
53.8600 17.9367 0.4639
53.8800 17.9433 0.4651
53.9000 17.9499 0.4511
53.9200 17.9566 0.4665
53.9400 17.9633 0.4610
53.9600 17.9700 0.4485
53.9800 17.9767 0.4694
54.0000 17.9834 0.4574
54.0200 17.9901 0.4468
54.0400 17.9968 0.4587
54.0600 18.0034 0.4626
54.0800 18.0100 0.4513
54.1000 18.0166 0.4609
54.1200 18.0233 0.4596
54.1400 18.0300 0.4521
54.1600 18.0367 0.4530
54.1800 18.0434 0.4610
54.2000 18.0501 0.4542
54.2200 18.0568 0.4493
54.2400 18.0634 0.4601
54.2600 18.0700 0.4502
54.2800 18.0766 0.4488
54.3000 18.0833 0.4639
54.3200 18.0900 0.4470
54.3400 18.0967 0.4456
54.3600 18.1034 0.4578
54.3800 18.1101 0.4520
54.4000 18.1167 0.4464
54.4200 18.1233 0.4589
54.4400 18.1299 0.4472
54.4600 18.1366 0.4470
54.4800 18.1432 0.4599
54.5000 18.1500 0.4458
54.5200 18.1566 0.4435
54.5400 18.1633 0.4551
54.5600 18.1700 0.4427
54.5800 18.1767 0.4437
54.6000 18.1833 0.4531
54.6200 18.1899 0.4445
54.6400 18.1966 0.4398
54.6600 18.2033 0.4495
54.6800 18.2100 0.4450
54.7000 18.2167 0.4393
54.7200 18.2234 0.4502
54.7400 18.2301 0.4390
54.7600 18.2368 0.4430
54.7800 18.2434 0.4427
54.8000 18.2500 0.4414
54.8200 18.2566 0.4443
54.8400 18.2633 0.4468
54.8600 18.2700 0.4388
54.8800 18.2767 0.4393
54.9000 18.2834 0.4462
54.9200 18.2901 0.4380
54.9400 18.2968 0.4409
54.9600 18.3034 0.4380
54.9800 18.3100 0.4415
55.0000 18.3166 0.4448
55.0200 18.3233 0.4331
55.0400 18.3300 0.4476
55.0600 18.3367 0.4374
55.0800 18.3434 0.4325
55.1000 18.3500 0.4412
55.1200 18.3567 0.4310
55.1400 18.3633 0.4399
55.1600 18.3699 0.4458
55.1800 18.3765 0.4253
55.2000 18.3832 0.4356
55.2200 18.3899 0.4497
55.2400 18.3967 0.4247
55.2600 18.4033 0.4296
55.2800 18.4100 0.4443
55.3000 18.4167 0.4312
55.3200 18.4233 0.4335
55.3400 18.4299 0.4263
55.3600 18.4366 0.4321
55.3800 18.4433 0.4452
55.4000 18.4500 0.4286
55.4200 18.4567 0.4208
55.4400 18.4634 0.4361
55.4600 18.4701 0.4335
55.4800 18.4768 0.4258
55.5000 18.4834 0.4280
55.5200 18.4900 0.4237
55.5400 18.4967 0.4305
55.5600 18.5033 0.4340
55.5800 18.5100 0.4152
55.6000 18.5167 0.4229
55.6200 18.5234 0.4399
55.6400 18.5300 0.4200
55.6600 18.5367 0.4179
55.6800 18.5434 0.4264
55.7000 18.5500 0.4314
55.7200 18.5566 0.4202
55.7400 18.5633 0.4219
55.7600 18.5700 0.4243
55.7800 18.5767 0.4257
55.8000 18.5834 0.4196
55.8200 18.5901 0.4180
55.8400 18.5967 0.4224
55.8600 18.6034 0.4190
55.8800 18.6100 0.4200
55.9000 18.6166 0.4176
55.9200 18.6232 0.4192
55.9400 18.6300 0.4271
55.9600 18.6367 0.4088
55.9800 18.6433 0.4121
56.0000 18.6500 0.4264
56.0200 18.6567 0.4136
56.0400 18.6634 0.4144
56.0600 18.6700 0.4190
56.0800 18.6766 0.4060
56.1000 18.6833 0.4171
56.1200 18.6900 0.4229
56.1400 18.6967 0.3988
56.1600 18.7034 0.4176
56.1800 18.7101 0.4250
56.2000 18.7168 0.3928
56.2200 18.7234 0.4117
56.2400 18.7300 0.4286
56.2600 18.7366 0.4051
56.2800 18.7433 0.4085
56.3000 18.7500 0.4134
56.3200 18.7567 0.4065
56.3400 18.7634 0.4090
56.3600 18.7701 0.4106
56.3800 18.7767 0.4056
56.4000 18.7834 0.4115
56.4200 18.7900 0.4070
56.4400 18.7966 0.4022
56.4600 18.8033 0.4057
56.4800 18.8100 0.4146
56.5000 18.8167 0.3994
56.5200 18.8234 0.4006
56.5400 18.8300 0.4140
56.5600 18.8367 0.4061
56.5800 18.8434 0.4006
56.6000 18.8500 0.4117
56.6200 18.8566 0.4023
56.6400 18.8632 0.3973
56.6600 18.8699 0.4130
56.6800 18.8766 0.3997
56.7000 18.8833 0.3914
56.7200 18.8900 0.4189
56.7400 18.8967 0.3961
56.7600 18.9034 0.3907
56.7800 18.9100 0.4241
56.8000 18.9166 0.3916
56.8200 18.9233 0.3959
56.8400 18.9300 0.4155
56.8600 18.9367 0.3867
56.8800 18.9434 0.3988
56.9000 18.9501 0.4178
56.9200 18.9568 0.3843
56.9400 18.9634 0.4008
56.9600 18.9700 0.4135
56.9800 18.9766 0.3879
57.0000 18.9833 0.4020
57.0200 18.9900 0.4107
57.0400 18.9967 0.3858
57.0600 19.0034 0.4030
57.0800 19.0101 0.4100
57.1000 19.0167 0.3791
57.1200 19.0234 0.3989
57.1400 19.0300 0.4112
57.1600 19.0366 0.3800
57.1800 19.0432 0.4010
57.2000 19.0499 0.4126
57.2200 19.0567 0.3865
57.2400 19.0634 0.3924
57.2600 19.0700 0.4086
57.2800 19.0767 0.3907
57.3000 19.0834 0.3943
57.3200 19.0900 0.4044
57.3400 19.0966 0.3900
57.3600 19.1032 0.3952
57.3800 19.1100 0.4013
57.4000 19.1167 0.3898
57.4200 19.1233 0.3934
57.4400 19.1300 0.3966
57.4600 19.1367 0.3861
57.4800 19.1433 0.3973
57.5000 19.1500 0.3991
57.5200 19.1566 0.3856
57.5400 19.1633 0.3911
57.5600 19.1700 0.3953
57.5800 19.1767 0.3834
57.6000 19.1834 0.3865
57.6200 19.1901 0.3938
57.6400 19.1967 0.3867
57.6600 19.2034 0.3832
57.6800 19.2100 0.3914
57.7000 19.2167 0.3832
57.7200 19.2233 0.3873
57.7400 19.2300 0.3898
57.7600 19.2367 0.3866
57.7800 19.2434 0.3832
57.8000 19.2501 0.3825
57.8200 19.2568 0.3865
57.8400 19.2634 0.3810
57.8600 19.2700 0.3777
57.8800 19.2766 0.3858
57.9000 19.2832 0.3876
57.9200 19.2899 0.3750
57.9400 19.2967 0.3789
57.9600 19.3034 0.3835
57.9800 19.3100 0.3766
58.0000 19.3167 0.3792
58.0200 19.3234 0.3791
58.0400 19.3300 0.3736
58.0600 19.3366 0.3864
58.0800 19.3432 0.3772
58.1000 19.3499 0.3628
58.1200 19.3567 0.3824
58.1400 19.3633 0.3785
58.1600 19.3700 0.3650
58.1800 19.3767 0.3797
58.2000 19.3834 0.3729
58.2200 19.3900 0.3682
58.2400 19.3966 0.3757
58.2600 19.4033 0.3690
58.2800 19.4100 0.3712
58.3000 19.4167 0.3821
58.3200 19.4234 0.3583
58.3400 19.4301 0.3732
58.3600 19.4368 0.3769
58.3800 19.4434 0.3585
58.4000 19.4500 0.3741
58.4200 19.4566 0.3686
58.4400 19.4633 0.3593
58.4600 19.4700 0.3775
58.4800 19.4767 0.3613
58.5000 19.4834 0.3541
58.5200 19.4901 0.3764
58.5400 19.4967 0.3580
58.5600 19.5034 0.3523
58.5800 19.5100 0.3741
58.6000 19.5166 0.3619
58.6200 19.5233 0.3561
58.6400 19.5300 0.3611
58.6600 19.5367 0.3617
58.6800 19.5434 0.3578
58.7000 19.5500 0.3613
58.7200 19.5567 0.3532
58.7400 19.5634 0.3502
58.7600 19.5700 0.3663
58.7800 19.5766 0.3563
58.8000 19.5832 0.3461
58.8200 19.5899 0.3624
58.8400 19.5966 0.3564
58.8600 19.6033 0.3419
58.8800 19.6100 0.3591
58.9000 19.6167 0.3539
58.9200 19.6234 0.3487
58.9400 19.6300 0.3617
58.9600 19.6366 0.3448
58.9800 19.6433 0.3417
59.0000 19.6500 0.3665
59.0200 19.6567 0.3409
59.0400 19.6634 0.3389
59.0600 19.6701 0.3563
59.0800 19.6767 0.3379
59.1000 19.6834 0.3463
59.1200 19.6901 0.3524
59.1400 19.6967 0.3402
59.1600 19.7033 0.3561
59.1800 19.7100 0.3343
59.2000 19.7167 0.3398
59.2200 19.7234 0.3594
59.2400 19.7301 0.3282
59.2600 19.7367 0.3397
59.2800 19.7434 0.3588
59.3000 19.7500 0.3173
59.3010 19.7503 0.3154
