Raw Data
Time Displacement Force
(s) (mm) (N)
0.0000 0.0000 0.3417
0.0200 0.0000 0.3660
0.0400 0.0008 0.3954
0.0600 0.0039 0.3818
0.0800 0.0093 0.3604
0.1000 0.0150 0.3592
0.1200 0.0209 0.3705
0.1400 0.0275 0.3710
0.1600 0.0349 0.3630
0.1800 0.0424 0.3573
0.2000 0.0496 0.3625
0.2200 0.0564 0.3620
0.2400 0.0631 0.3588
0.2600 0.0698 0.3749
0.2800 0.0765 0.3720
0.3000 0.0832 0.3679
0.3200 0.0899 0.3721
0.3400 0.0966 0.3718
0.3600 0.1033 0.3660
0.3800 0.1099 0.3744
0.4000 0.1166 0.3768
0.4200 0.1233 0.3724
0.4400 0.1300 0.3742
0.4600 0.1366 0.3743
0.4800 0.1433 0.3725
0.5000 0.1500 0.3761
0.5200 0.1567 0.3780
0.5400 0.1633 0.3755
0.5600 0.1699 0.3767
0.5800 0.1766 0.3797
0.6000 0.1832 0.3804
0.6200 0.1900 0.3807
0.6400 0.1967 0.3803
0.6600 0.2033 0.3805
0.6800 0.2100 0.3846
0.7000 0.2167 0.3820
0.7200 0.2233 0.3859
0.7400 0.2299 0.3831
0.7600 0.2366 0.3912
0.7800 0.2432 0.3852
0.8000 0.2499 0.3871
0.8200 0.2566 0.3936
0.8400 0.2633 0.3904
0.8600 0.2700 0.3854
0.8800 0.2766 0.3994
0.9000 0.2833 0.3962
0.9200 0.2899 0.3893
0.9400 0.2965 0.4013
0.9600 0.3032 0.3975
0.9800 0.3099 0.3914
1.0000 0.3166 0.4045
1.0200 0.3233 0.3975
1.0400 0.3300 0.3917
1.0600 0.3366 0.4064
1.0800 0.3433 0.4027
1.1000 0.3499 0.3930
1.1200 0.3565 0.4073
1.1400 0.3632 0.4021
1.1600 0.3700 0.3958
1.1800 0.3767 0.4053
1.2000 0.3833 0.4016
1.2200 0.3900 0.4001
1.2400 0.3967 0.4088
1.2600 0.4033 0.4000
1.2800 0.4100 0.4022
1.3000 0.4166 0.4097
1.3200 0.4233 0.4004
1.3400 0.4300 0.4040
1.3600 0.4367 0.4077
1.3800 0.4433 0.4038
1.4000 0.4500 0.4042
1.4200 0.4567 0.4049
1.4400 0.4633 0.4028
1.4600 0.4699 0.4035
1.4800 0.4765 0.4002
1.5000 0.4832 0.4114
1.5200 0.4899 0.4006
1.5400 0.4966 0.4047
1.5600 0.5033 0.4071
1.5800 0.5100 0.3985
1.6000 0.5167 0.4035
1.6200 0.5233 0.4097
1.6400 0.5299 0.3969
1.6600 0.5365 0.4035
1.6800 0.5432 0.4111
1.7000 0.5499 0.3939
1.7200 0.5566 0.4038
1.7400 0.5633 0.4086
1.7600 0.5700 0.3957
1.7800 0.5766 0.4078
1.8000 0.5833 0.4054
1.8200 0.5899 0.3948
1.8400 0.5966 0.4128
1.8600 0.6032 0.4044
1.8800 0.6099 0.3911
1.9000 0.6166 0.4083
1.9200 0.6233 0.4058
1.9400 0.6300 0.3945
1.9600 0.6367 0.4109
1.9800 0.6433 0.4049
2.0000 0.6499 0.3959
2.0200 0.6565 0.4075
2.0400 0.6632 0.4042
2.0600 0.6699 0.3941
2.0800 0.6767 0.4101
2.1000 0.6833 0.4035
2.1200 0.6900 0.3996
2.1400 0.6967 0.4080
2.1600 0.7033 0.4050
2.1800 0.7099 0.3971
2.2000 0.7165 0.4110
2.2200 0.7232 0.4022
2.2400 0.7299 0.3982
2.2600 0.7367 0.4102
2.2800 0.7433 0.4009
2.3000 0.7500 0.4028
2.3200 0.7567 0.4062
2.3400 0.7633 0.4012
2.3600 0.7699 0.4034
2.3800 0.7765 0.4040
2.4000 0.7832 0.4091
2.4200 0.7899 0.4025
2.4400 0.7966 0.4008
2.4600 0.8033 0.4085
2.4800 0.8100 0.4052
2.5000 0.8167 0.4036
2.5200 0.8234 0.4071
2.5400 0.8299 0.4050
2.5600 0.8365 0.3971
2.5800 0.8432 0.4137
2.6000 0.8499 0.3991
2.6200 0.8567 0.3993
2.6400 0.8634 0.4100
2.6600 0.8700 0.3983
2.6800 0.8767 0.4001
2.7000 0.8833 0.4097
2.7200 0.8899 0.3979
2.7400 0.8966 0.4001
2.7600 0.9032 0.4122
2.7800 0.9100 0.4017
2.8000 0.9167 0.3997
2.8200 0.9233 0.4115
2.8400 0.9300 0.3999
2.8600 0.9367 0.3985
2.8800 0.9433 0.4138
2.9000 0.9500 0.4014
2.9200 0.9566 0.3961
2.9400 0.9632 0.4150
2.9600 0.9699 0.3989
2.9800 0.9766 0.3971
3.0000 0.9833 0.4131
3.0200 0.9900 0.4008
3.0400 0.9967 0.3931
3.0600 1.0033 0.4100
3.0800 1.0099 0.4028
3.1000 1.0165 0.3956
3.1200 1.0232 0.4144
3.1400 1.0299 0.3996
3.1600 1.0366 0.3940
3.1800 1.0433 0.4084
3.2000 1.0500 0.4019
3.2200 1.0566 0.3994
3.2400 1.0633 0.4067
3.2600 1.0699 0.3994
3.2800 1.0766 0.3967
3.3000 1.0832 0.4104
3.3200 1.0899 0.4015
3.3400 1.0966 0.3956
3.3600 1.1033 0.4074
3.3800 1.1100 0.3962
3.4000 1.1167 0.3959
3.4200 1.1234 0.4087
3.4400 1.1300 0.4019
3.4600 1.1366 0.3925
3.4800 1.1432 0.4071
3.5000 1.1499 0.4033
3.5200 1.1567 0.3918
3.5400 1.1633 0.4074
3.5600 1.1700 0.4018
3.5800 1.1767 0.3913
3.6000 1.1833 0.4057
3.6200 1.1899 0.3984
3.6400 1.1965 0.3967
3.6600 1.2032 0.4085
3.6800 1.2099 0.4032
3.7000 1.2166 0.3943
3.7200 1.2233 0.4059
3.7400 1.2300 0.4040
3.7600 1.2367 0.3972
3.7800 1.2433 0.4031
3.8000 1.2499 0.4023
3.8200 1.2566 0.3972
3.8400 1.2632 0.4031
3.8600 1.2699 0.4016
3.8800 1.2766 0.3977
3.9000 1.2833 0.4034
3.9200 1.2899 0.4056
3.9400 1.2966 0.3957
3.9600 1.3033 0.3986
3.9800 1.3100 0.4080
4.0000 1.3166 0.3995
4.0200 1.3232 0.4039
4.0400 1.3299 0.4057
4.0600 1.3366 0.3970
4.0800 1.3433 0.4007
4.1000 1.3500 0.4099
4.1200 1.3567 0.3973
4.1400 1.3633 0.4074
4.1600 1.3699 0.4076
4.1800 1.3766 0.3971
4.2000 1.3832 0.4063
4.2200 1.3899 0.4145
4.2400 1.3967 0.3922
4.2600 1.4034 0.4004
4.2800 1.4100 0.4134
4.3000 1.4167 0.3997
4.3200 1.4234 0.4049
4.3400 1.4300 0.4063
4.3600 1.4366 0.3924
4.3800 1.4432 0.4089
4.4000 1.4499 0.4103
4.4200 1.4566 0.3908
4.4400 1.4633 0.4081
4.4600 1.4699 0.4072
4.4800 1.4766 0.3928
4.5000 1.4833 0.4047
4.5200 1.4900 0.4088
4.5400 1.4966 0.3960
4.5600 1.5032 0.4013
4.5800 1.5099 0.4070
4.6000 1.5166 0.3979
4.6200 1.5233 0.4054
4.6400 1.5300 0.4056
4.6600 1.5367 0.3948
4.6800 1.5433 0.4068
4.7000 1.5500 0.4035
4.7200 1.5566 0.3977
4.7400 1.5632 0.4083
4.7600 1.5699 0.4025
4.7800 1.5767 0.3946
4.8000 1.5834 0.4052
4.8200 1.5900 0.3992
4.8400 1.5967 0.4003
4.8600 1.6034 0.4032
4.8800 1.6100 0.3999
4.9000 1.6166 0.4008
4.9200 1.6232 0.4044
4.9400 1.6299 0.4011
4.9600 1.6366 0.4007
4.9800 1.6433 0.4005
5.0000 1.6500 0.4027
5.0200 1.6567 0.3958
5.0400 1.6634 0.3986
5.0600 1.6700 0.3988
5.0800 1.6766 0.4002
5.1000 1.6832 0.4022
5.1200 1.6899 0.4016
5.1400 1.6966 0.3969
5.1600 1.7033 0.3973
5.1800 1.7100 0.4015
5.2000 1.7167 0.3915
5.2200 1.7234 0.4003
5.2400 1.7300 0.4013
5.2600 1.7366 0.3968
5.2800 1.7432 0.3987
5.3000 1.7499 0.4029
5.3200 1.7566 0.3988
5.3400 1.7633 0.3992
5.3600 1.7700 0.3925
5.3800 1.7766 0.3987
5.4000 1.7833 0.3977
5.4200 1.7900 0.3942
5.4400 1.7966 0.3975
5.4600 1.8032 0.3994
5.4800 1.8099 0.4019
5.5000 1.8166 0.3948
5.5200 1.8233 0.3912
5.5400 1.8300 0.4025
5.5600 1.8367 0.3975
5.5800 1.8434 0.3881
5.6000 1.8500 0.3991
5.6200 1.8566 0.4001
5.6400 1.8632 0.3910
5.6600 1.8699 0.3995
5.6800 1.8766 0.3947
5.7000 1.8833 0.3975
5.7200 1.8900 0.4014
5.7400 1.8967 0.3950
5.7600 1.9033 0.3951
5.7800 1.9100 0.3997
5.8000 1.9166 0.3958
5.8200 1.9232 0.3956
5.8400 1.9299 0.4013
5.8600 1.9366 0.3956
5.8800 1.9433 0.3919
5.9000 1.9499 0.3979
5.9200 1.9566 0.3913
5.9400 1.9633 0.3950
5.9600 1.9699 0.3999
5.9800 1.9766 0.3893
6.0000 1.9832 0.3945
6.0200 1.9899 0.3971
6.0400 1.9966 0.3909
6.0600 2.0033 0.3936
6.0800 2.0100 0.3969
6.1000 2.0167 0.3927
6.1200 2.0234 0.3946
6.1400 2.0300 0.3939
6.1600 2.0366 0.3971
6.1800 2.0432 0.3926
6.2000 2.0499 0.3951
6.2200 2.0566 0.3938
6.2400 2.0633 0.3922
6.2600 2.0700 0.3919
6.2800 2.0767 0.3958
6.3000 2.0834 0.3931
6.3200 2.0900 0.3894
6.3400 2.0966 0.3985
6.3600 2.1032 0.3968
6.3800 2.1099 0.3892
6.4000 2.1166 0.3962
6.4200 2.1233 0.3959
6.4400 2.1300 0.3897
6.4600 2.1367 0.3986
6.4800 2.1434 0.3932
6.5000 2.1500 0.3878
6.5200 2.1567 0.3987
6.5400 2.1633 0.3931
6.5600 2.1699 0.3880
6.5800 2.1766 0.4006
6.6000 2.1833 0.3925
6.6200 2.1900 0.3889
6.6400 2.1967 0.3981
6.6600 2.2034 0.3907
6.6800 2.2100 0.3878
6.7000 2.2166 0.4036
6.7200 2.2232 0.3868
6.7400 2.2298 0.3912
6.7600 2.2365 0.4018
6.7800 2.2433 0.3847
6.8000 2.2500 0.3869
6.8200 2.2567 0.4045
6.8400 2.2633 0.3864
6.8600 2.2700 0.3888
6.8800 2.2766 0.4083
6.9000 2.2832 0.3894
6.9200 2.2899 0.3895
6.9400 2.2966 0.4014
6.9600 2.3033 0.3830
6.9800 2.3100 0.3930
7.0000 2.3167 0.4002
7.0200 2.3233 0.3818
7.0400 2.3300 0.3946
7.0600 2.3366 0.3979
7.0800 2.3432 0.3864
7.1000 2.3499 0.3943
7.1200 2.3566 0.3996
7.1400 2.3633 0.3860
7.1600 2.3700 0.3947
7.1800 2.3767 0.3909
7.2000 2.3834 0.3879
7.2200 2.3900 0.3958
7.2400 2.3966 0.3889
7.2600 2.4032 0.3880
7.2800 2.4099 0.3979
7.3000 2.4166 0.3861
7.3200 2.4233 0.3902
7.3400 2.4300 0.3971
7.3600 2.4367 0.3873
7.3800 2.4433 0.3887
7.4000 2.4500 0.3985
7.4200 2.4566 0.3833
7.4400 2.4632 0.3954
7.4600 2.4699 0.3961
7.4800 2.4766 0.3905
7.5000 2.4833 0.3896
7.5200 2.4899 0.3918
7.5400 2.4966 0.3924
7.5600 2.5033 0.3912
7.5800 2.5100 0.3886
7.6000 2.5166 0.3908
7.6200 2.5232 0.3952
7.6400 2.5299 0.3894
7.6600 2.5366 0.3919
7.6800 2.5433 0.3959
7.7000 2.5500 0.3867
7.7200 2.5567 0.3952
7.7400 2.5634 0.3981
7.7600 2.5701 0.3831
7.7800 2.5767 0.3954
7.8000 2.5833 0.3931
7.8200 2.5899 0.3863
7.8400 2.5966 0.3937
7.8600 2.6033 0.3946
7.8800 2.6100 0.3831
7.9000 2.6167 0.3982
7.9200 2.6233 0.3962
7.9400 2.6300 0.3836
7.9600 2.6366 0.3938
7.9800 2.6432 0.4030
8.0000 2.6499 0.3810
8.0200 2.6566 0.3995
8.0400 2.6633 0.3917
8.0600 2.6700 0.3817
8.0800 2.6766 0.3993
8.1000 2.6833 0.3897
8.1200 2.6900 0.3829
8.1400 2.6966 0.4002
8.1600 2.7032 0.3915
8.1800 2.7098 0.3859
8.2000 2.7165 0.3952
8.2200 2.7233 0.3927
8.2400 2.7300 0.3849
8.2600 2.7367 0.3964
8.2800 2.7434 0.3918
8.3000 2.7500 0.3878
8.3200 2.7566 0.3953
8.3400 2.7632 0.3908
8.3600 2.7699 0.3927
8.3800 2.7766 0.3888
8.4000 2.7833 0.3937
8.4200 2.7900 0.3880
8.4400 2.7967 0.3907
8.4600 2.8033 0.3893
8.4800 2.8100 0.3884
8.5000 2.8166 0.3886
8.5200 2.8232 0.3906
8.5400 2.8299 0.3872
8.5600 2.8366 0.3923
8.5800 2.8433 0.3904
8.6000 2.8500 0.3853
8.6200 2.8567 0.3888
8.6400 2.8634 0.3962
8.6600 2.8700 0.3816
8.6800 2.8767 0.3921
8.7000 2.8833 0.3952
8.7200 2.8899 0.3823
8.7400 2.8966 0.3929
8.7600 2.9033 0.3911
8.7800 2.9100 0.3800
8.8000 2.9166 0.3973
8.8200 2.9233 0.3933
8.8400 2.9300 0.3788
8.8600 2.9366 0.3973
8.8800 2.9432 0.3923
8.9000 2.9498 0.3829
8.9200 2.9565 0.3985
8.9400 2.9632 0.3880
8.9600 2.9699 0.3821
8.9800 2.9766 0.3986
9.0000 2.9833 0.3841
9.0200 2.9900 0.3845
9.0400 2.9966 0.3999
9.0600 3.0032 0.3907
9.0800 3.0099 0.3833
9.1000 3.0166 0.3971
9.1200 3.0233 0.3918
9.1400 3.0300 0.3838
9.1600 3.0367 0.3939
9.1800 3.0434 0.3911
9.2000 3.0501 0.3833
9.2200 3.0567 0.3953
9.2400 3.0633 0.3832
9.2600 3.0699 0.3882
9.2800 3.0766 0.3913
9.3000 3.0833 0.3876
9.3200 3.0900 0.3823
9.3400 3.0967 0.3926
9.3600 3.1034 0.3895
9.3800 3.1100 0.3795
9.4000 3.1167 0.3929
9.4200 3.1232 0.3910
9.4400 3.1299 0.3842
9.4600 3.1366 0.3920
9.4800 3.1433 0.3879
9.5000 3.1500 0.3824
9.5200 3.1566 0.3929
9.5400 3.1633 0.3905
9.5600 3.1700 0.3811
9.5800 3.1767 0.3922
9.6000 3.1833 0.3901
9.6200 3.1899 0.3806
9.6400 3.1966 0.3929
9.6600 3.2033 0.3853
9.6800 3.2100 0.3802
9.7000 3.2166 0.3934
9.7200 3.2233 0.3871
9.7400 3.2299 0.3805
9.7600 3.2366 0.3951
9.7800 3.2432 0.3786
9.8000 3.2498 0.3859
9.8200 3.2565 0.3940
9.8400 3.2633 0.3808
9.8600 3.2700 0.3860
9.8800 3.2767 0.3908
9.9000 3.2834 0.3807
9.9200 3.2900 0.3887
9.9400 3.2967 0.3840
9.9600 3.3032 0.3876
9.9800 3.3099 0.3855
10.0000 3.3166 0.3873
10.0200 3.3233 0.3844
10.0400 3.3300 0.3880
10.0600 3.3367 0.3850
10.0800 3.3433 0.3824
10.1000 3.3500 0.3876
10.1200 3.3566 0.3814
10.1400 3.3633 0.3891
10.1600 3.3699 0.3894
10.1800 3.3765 0.3836
10.2000 3.3832 0.3812
10.2200 3.3899 0.3876
10.2400 3.3966 0.3810
10.2600 3.4033 0.3871
10.2800 3.4100 0.3880
10.3000 3.4166 0.3788
10.3200 3.4232 0.3852
10.3400 3.4298 0.3875
10.3600 3.4365 0.3786
10.3800 3.4432 0.3890
10.4000 3.4500 0.3801
10.4200 3.4566 0.3808
10.4400 3.4633 0.3882
10.4600 3.4700 0.3823
10.4800 3.4767 0.3776
10.5000 3.4833 0.3902
10.5200 3.4899 0.3844
10.5400 3.4966 0.3791
10.5600 3.5033 0.3876
10.5800 3.5100 0.3761
10.6000 3.5166 0.3806
10.6200 3.5233 0.3873
10.6400 3.5300 0.3776
10.6600 3.5367 0.3795
10.6800 3.5433 0.3843
10.7000 3.5499 0.3821
10.7200 3.5566 0.3777
10.7400 3.5632 0.3817
10.7600 3.5700 0.3827
10.7800 3.5766 0.3844
10.8000 3.5833 0.3784
10.8200 3.5900 0.3807
10.8400 3.5967 0.3801
10.8600 3.6033 0.3776
10.8800 3.6099 0.3844
10.9000 3.6166 0.3776
10.9200 3.6233 0.3799
10.9400 3.6300 0.3835
10.9600 3.6367 0.3750
10.9800 3.6433 0.3767
11.0000 3.6500 0.3869
11.0200 3.6567 0.3718
11.0400 3.6633 0.3797
11.0600 3.6699 0.3839
11.0800 3.6765 0.3729
11.1000 3.6833 0.3826
11.1200 3.6899 0.3861
11.1400 3.6966 0.3711
11.1600 3.7033 0.3805
11.1800 3.7100 0.3814
11.2000 3.7166 0.3704
11.2200 3.7232 0.3795
11.2400 3.7299 0.3850
11.2600 3.7366 0.3760
11.2800 3.7433 0.3808
11.3000 3.7500 0.3808
11.3200 3.7567 0.3763
11.3400 3.7634 0.3846
11.3600 3.7701 0.3802
11.3800 3.7767 0.3733
11.4000 3.7833 0.3812
11.4200 3.7899 0.3833
11.4400 3.7965 0.3750
11.4600 3.8033 0.3824
11.4800 3.8100 0.3786
11.5000 3.8167 0.3766
11.5200 3.8234 0.3791
11.5400 3.8300 0.3813
11.5600 3.8367 0.3803
11.5800 3.8433 0.3766
11.6000 3.8499 0.3796
11.6200 3.8566 0.3824
11.6400 3.8633 0.3779
11.6600 3.8699 0.3790
11.6800 3.8766 0.3785
11.7000 3.8833 0.3777
11.7200 3.8900 0.3808
11.7400 3.8966 0.3794
11.7600 3.9032 0.3705
11.7800 3.9098 0.3851
11.8000 3.9165 0.3817
11.8200 3.9232 0.3738
11.8400 3.9299 0.3834
11.8600 3.9366 0.3800
11.8800 3.9433 0.3698
11.9000 3.9500 0.3877
11.9200 3.9566 0.3768
11.9400 3.9633 0.3690
11.9600 3.9699 0.3859
11.9800 3.9766 0.3791
12.0000 3.9833 0.3677
12.0200 3.9900 0.3901
12.0400 3.9967 0.3762
12.0600 4.0033 0.3710
12.0800 4.0100 0.3873
12.1000 4.0167 0.3701
12.1200 4.0233 0.3749
12.1400 4.0299 0.3868
12.1600 4.0366 0.3696
12.1800 4.0433 0.3760
12.2000 4.0500 0.3904
12.2200 4.0567 0.3662
12.2400 4.0633 0.3779
12.2600 4.0700 0.3866
12.2800 4.0767 0.3610
12.3000 4.0833 0.3809
12.3200 4.0899 0.3855
12.3400 4.0965 0.3656
12.3600 4.1032 0.3867
12.3800 4.1099 0.3778
12.4000 4.1166 0.3689
12.4200 4.1233 0.3874
12.4400 4.1300 0.3791
12.4600 4.1367 0.3665
12.4800 4.1433 0.3818
12.5000 4.1499 0.3760
12.5200 4.1565 0.3720
12.5400 4.1632 0.3850
12.5600 4.1699 0.3731
12.5800 4.1766 0.3718
12.6000 4.1833 0.3822
12.6200 4.1900 0.3676
12.6400 4.1967 0.3777
12.6600 4.2033 0.3829
12.6800 4.2099 0.3687
12.7000 4.2166 0.3778
12.7200 4.2233 0.3781
12.7400 4.2300 0.3734
12.7600 4.2366 0.3781
12.7800 4.2433 0.3755
12.8000 4.2500 0.3717
12.8200 4.2567 0.3774
12.8400 4.2633 0.3758
12.8600 4.2699 0.3762
12.8800 4.2766 0.3796
12.9000 4.2833 0.3760
12.9200 4.2900 0.3734
12.9400 4.2967 0.3754
12.9600 4.3034 0.3712
12.9800 4.3100 0.3786
13.0000 4.3167 0.3761
13.0200 4.3233 0.3683
13.0400 4.3299 0.3783
13.0600 4.3366 0.3770
13.0800 4.3433 0.3699
13.1000 4.3500 0.3770
13.1200 4.3567 0.3758
13.1400 4.3633 0.3721
13.1600 4.3700 0.3764
13.1800 4.3767 0.3705
13.2000 4.3833 0.3731
13.2200 4.3899 0.3820
13.2400 4.3965 0.3683
13.2600 4.4032 0.3725
13.2800 4.4099 0.3820
13.3000 4.4166 0.3705
13.3200 4.4233 0.3714
13.3400 4.4300 0.3779
13.3600 4.4367 0.3723
13.3800 4.4433 0.3694
13.4000 4.4499 0.3796
13.4200 4.4565 0.3722
13.4400 4.4632 0.3699
13.4600 4.4700 0.3763
13.4800 4.4767 0.3702
13.5000 4.4834 0.3704
13.5200 4.4900 0.3830
13.5400 4.4967 0.3695
13.5600 4.5033 0.3710
13.5800 4.5099 0.3792
13.6000 4.5166 0.3733
13.6200 4.5233 0.3740
13.6400 4.5300 0.3709
13.6600 4.5367 0.3649
13.6800 4.5433 0.3748
13.7000 4.5500 0.3738
13.7200 4.5567 0.3634
13.7400 4.5633 0.3737
13.7600 4.5699 0.3730
13.7800 4.5765 0.3677
13.8000 4.5832 0.3723
13.8200 4.5899 0.3684
13.8400 4.5966 0.3721
13.8600 4.6033 0.3738
13.8800 4.6100 0.3681
13.9000 4.6167 0.3681
13.9200 4.6233 0.3702
13.9400 4.6299 0.3701
13.9600 4.6365 0.3753
13.9800 4.6432 0.3703
14.0000 4.6499 0.3642
14.0200 4.6566 0.3760
14.0400 4.6633 0.3687
14.0600 4.6700 0.3617
14.0800 4.6767 0.3785
14.1000 4.6833 0.3649
14.1200 4.6899 0.3618
14.1400 4.6965 0.3807
14.1600 4.7032 0.3657
14.1800 4.7099 0.3669
14.2000 4.7166 0.3718
14.2200 4.7233 0.3690
14.2400 4.7300 0.3626
14.2600 4.7367 0.3749
14.2800 4.7434 0.3634
14.3000 4.7500 0.3695
14.3200 4.7566 0.3771
14.3400 4.7633 0.3603
14.3600 4.7700 0.3705
14.3800 4.7767 0.3772
14.4000 4.7834 0.3594
14.4200 4.7901 0.3698
14.4400 4.7967 0.3732
14.4600 4.8034 0.3621
14.4800 4.8099 0.3684
14.5000 4.8165 0.3784
14.5200 4.8232 0.3631
14.5400 4.8299 0.3710
14.5600 4.8366 0.3716
14.5800 4.8433 0.3640
14.6000 4.8499 0.3691
14.6200 4.8566 0.3693
14.6400 4.8633 0.3666
14.6600 4.8699 0.3667
14.6800 4.8765 0.3652
14.7000 4.8832 0.3696
14.7200 4.8899 0.3698
14.7400 4.8966 0.3632
14.7600 4.9033 0.3679
14.7800 4.9100 0.3726
14.8000 4.9166 0.3670
14.8200 4.9233 0.3640
14.8400 4.9299 0.3708
14.8600 4.9366 0.3658
14.8800 4.9433 0.3708
14.9000 4.9499 0.3683
14.9200 4.9566 0.3642
14.9400 4.9633 0.3714
14.9600 4.9700 0.3651
14.9800 4.9767 0.3642
15.0000 4.9833 0.3727
15.0200 4.9899 0.3683
15.0400 4.9965 0.3663
15.0600 5.0032 0.3686
15.0800 5.0100 0.3669
15.1000 5.0167 0.3643
15.1200 5.0234 0.3729
15.1400 5.0300 0.3670
15.1600 5.0367 0.3650
15.1800 5.0433 0.3721
15.2000 5.0500 0.3615
15.2200 5.0566 0.3685
15.2400 5.0632 0.3713
15.2600 5.0699 0.3639
15.2800 5.0766 0.3674
15.3000 5.0833 0.3713
15.3200 5.0900 0.3643
15.3400 5.0967 0.3669
15.3600 5.1033 0.3743
15.3800 5.1099 0.3581
15.4000 5.1165 0.3663
15.4200 5.1232 0.3753
15.4400 5.1299 0.3615
15.4600 5.1366 0.3697
15.4800 5.1433 0.3650
15.5000 5.1499 0.3643
15.5200 5.1566 0.3690
15.5400 5.1633 0.3644
15.5600 5.1699 0.3604
15.5800 5.1765 0.3712
15.6000 5.1832 0.3692
15.6200 5.1900 0.3588
15.6400 5.1967 0.3683
15.6600 5.2033 0.3668
15.6800 5.2100 0.3590
15.7000 5.2167 0.3695
15.7200 5.2234 0.3591
15.7400 5.2300 0.3647
15.7600 5.2366 0.3693
15.7800 5.2433 0.3592
15.8000 5.2499 0.3606
15.8200 5.2566 0.3696
15.8400 5.2633 0.3661
15.8600 5.2700 0.3581
15.8800 5.2767 0.3662
15.9000 5.2834 0.3614
15.9200 5.2900 0.3617
15.9400 5.2965 0.3665
15.9600 5.3032 0.3630
15.9800 5.3099 0.3577
16.0000 5.3166 0.3673
16.0200 5.3233 0.3589
16.0400 5.3300 0.3638
16.0600 5.3367 0.3653
16.0800 5.3433 0.3595
16.1000 5.3499 0.3613
16.1200 5.3565 0.3658
16.1400 5.3632 0.3592
16.1600 5.3699 0.3646
16.1800 5.3767 0.3587
16.2000 5.3833 0.3576
16.2200 5.3900 0.3664
16.2400 5.3966 0.3623
16.2600 5.4033 0.3558
16.2800 5.4099 0.3596
16.3000 5.4166 0.3623
16.3200 5.4233 0.3596
16.3400 5.4299 0.3591
16.3600 5.4366 0.3583
16.3800 5.4433 0.3624
16.4000 5.4500 0.3617
16.4200 5.4567 0.3546
16.4400 5.4634 0.3616
16.4600 5.4700 0.3599
16.4800 5.4765 0.3607
16.5000 5.4832 0.3606
16.5200 5.4899 0.3585
16.5400 5.4967 0.3615
16.5600 5.5033 0.3587
16.5800 5.5100 0.3560
16.6000 5.5166 0.3613
16.6200 5.5233 0.3636
16.6400 5.5299 0.3531
16.6600 5.5366 0.3651
16.6800 5.5432 0.3651
16.7000 5.5500 0.3543
16.7200 5.5567 0.3590
16.7400 5.5633 0.3601
16.7600 5.5700 0.3503
16.7800 5.5767 0.3680
16.8000 5.5833 0.3576
16.8200 5.5900 0.3510
16.8400 5.5966 0.3663
16.8600 5.6032 0.3607
16.8800 5.6099 0.3507
16.9000 5.6166 0.3659
16.9200 5.6233 0.3598
16.9400 5.6300 0.3525
16.9600 5.6367 0.3648
16.9800 5.6433 0.3563
17.0000 5.6500 0.3538
17.0200 5.6566 0.3670
17.0400 5.6632 0.3547
17.0600 5.6699 0.3565
17.0800 5.6767 0.3617
17.1000 5.6834 0.3566
17.1200 5.6900 0.3540
17.1400 5.6967 0.3651
17.1600 5.7033 0.3577
17.1800 5.7100 0.3523
17.2000 5.7166 0.3601
17.2200 5.7232 0.3528
17.2400 5.7299 0.3607
17.2600 5.7367 0.3550
17.2800 5.7433 0.3527
17.3000 5.7500 0.3578
17.3200 5.7567 0.3598
17.3400 5.7634 0.3528
17.3600 5.7700 0.3576
17.3800 5.7766 0.3588
17.4000 5.7832 0.3554
17.4200 5.7898 0.3601
17.4400 5.7966 0.3553
17.4600 5.8033 0.3528
17.4800 5.8100 0.3602
17.5000 5.8167 0.3520
17.5200 5.8234 0.3567
17.5400 5.8300 0.3507
17.5600 5.8365 0.3534
17.5800 5.8432 0.3595
17.6000 5.8499 0.3528
17.6200 5.8566 0.3554
17.6400 5.8633 0.3612
17.6600 5.8700 0.3484
17.6800 5.8766 0.3560
17.7000 5.8833 0.3588
17.7200 5.8900 0.3482
17.7400 5.8966 0.3559
17.7600 5.9032 0.3593
17.7800 5.9099 0.3449
17.8000 5.9166 0.3583
17.8200 5.9233 0.3587
17.8400 5.9300 0.3438
17.8600 5.9367 0.3565
17.8800 5.9434 0.3546
17.9000 5.9500 0.3462
17.9200 5.9566 0.3556
17.9400 5.9632 0.3577
17.9600 5.9699 0.3486
17.9800 5.9766 0.3519
18.0000 5.9834 0.3515
18.0200 5.9900 0.3501
18.0400 5.9967 0.3523
18.0600 6.0034 0.3515
18.0800 6.0100 0.3466
18.1000 6.0165 0.3510
18.1200 6.0232 0.3537
18.1400 6.0299 0.3523
18.1600 6.0366 0.3453
18.1800 6.0433 0.3502
18.2000 6.0499 0.3501
18.2200 6.0566 0.3486
18.2400 6.0633 0.3520
18.2600 6.0700 0.3501
18.2800 6.0766 0.3487
18.3000 6.0832 0.3564
18.3200 6.0899 0.3486
18.3400 6.0966 0.3476
18.3600 6.1033 0.3514
18.3800 6.1100 0.3478
18.4000 6.1166 0.3464
18.4200 6.1233 0.3523
18.4400 6.1300 0.3477
18.4600 6.1366 0.3440
18.4800 6.1432 0.3576
18.5000 6.1499 0.3432
18.5200 6.1566 0.3458
18.5400 6.1633 0.3535
18.5600 6.1700 0.3444
18.5800 6.1767 0.3476
18.6000 6.1834 0.3542
18.6200 6.1900 0.3404
18.6400 6.1966 0.3498
18.6600 6.2032 0.3528
18.6800 6.2099 0.3409
18.7000 6.2166 0.3489
18.7200 6.2234 0.3466
18.7400 6.2300 0.3425
18.7600 6.2367 0.3549
18.7800 6.2434 0.3439
18.8000 6.2500 0.3446
18.8200 6.2566 0.3518
18.8400 6.2632 0.3473
18.8600 6.2699 0.3437
18.8800 6.2766 0.3516
18.9000 6.2833 0.3477
18.9200 6.2900 0.3445
18.9400 6.2966 0.3488
18.9600 6.3033 0.3463
18.9800 6.3100 0.3475
19.0000 6.3165 0.3502
19.0200 6.3232 0.3438
19.0400 6.3298 0.3504
19.0600 6.3366 0.3479
19.0800 6.3433 0.3474
19.1000 6.3500 0.3495
19.1200 6.3567 0.3457
19.1400 6.3633 0.3443
19.1600 6.3700 0.3481
19.1800 6.3766 0.3484
19.2000 6.3832 0.3405
19.2200 6.3899 0.3509
19.2400 6.3966 0.3467
19.2600 6.4034 0.3441
19.2800 6.4100 0.3467
19.3000 6.4167 0.3466
19.3200 6.4234 0.3459
19.3400 6.4300 0.3495
19.3600 6.4366 0.3426
19.3800 6.4432 0.3495
19.4000 6.4499 0.3480
19.4200 6.4566 0.3441
19.4400 6.4633 0.3429
19.4600 6.4700 0.3522
19.4800 6.4767 0.3445
19.5000 6.4834 0.3417
19.5200 6.4900 0.3474
19.5400 6.4966 0.3442
19.5600 6.5032 0.3439
19.5800 6.5099 0.3490
19.6000 6.5166 0.3463
19.6200 6.5233 0.3493
19.6400 6.5300 0.3456
19.6600 6.5367 0.3495
19.6800 6.5434 0.3461
19.7000 6.5500 0.3472
19.7200 6.5566 0.3514
19.7400 6.5632 0.3412
19.7600 6.5698 0.3516
19.7800 6.5766 0.3488
19.8000 6.5833 0.3405
19.8200 6.5900 0.3507
19.8400 6.5966 0.3512
19.8600 6.6033 0.3410
19.8800 6.6100 0.3500
19.9000 6.6166 0.3479
19.9200 6.6232 0.3444
19.9400 6.6299 0.3546
19.9600 6.6366 0.3429
19.9800 6.6433 0.3425
20.0000 6.6500 0.3557
20.0200 6.6567 0.3423
20.0400 6.6634 0.3446
20.0600 6.6701 0.3503
20.0800 6.6766 0.3430
20.1000 6.6832 0.3440
20.1200 6.6899 0.3551
20.1400 6.6966 0.3420
20.1600 6.7033 0.3466
20.1800 6.7100 0.3497
20.2000 6.7167 0.3389
20.2200 6.7234 0.3468
20.2400 6.7300 0.3506
20.2600 6.7366 0.3428
20.2800 6.7432 0.3493
20.3000 6.7499 0.3463
20.3200 6.7566 0.3451
20.3400 6.7633 0.3504
20.3600 6.7699 0.3446
20.3800 6.7766 0.3442
20.4000 6.7833 0.3491
20.4200 6.7900 0.3464
20.4400 6.7966 0.3400
20.4600 6.8032 0.3499
20.4800 6.8099 0.3498
20.5000 6.8166 0.3436
20.5200 6.8233 0.3469
20.5400 6.8300 0.3456
20.5600 6.8367 0.3490
20.5800 6.8434 0.3507
20.6000 6.8500 0.3387
20.6200 6.8566 0.3513
20.6400 6.8632 0.3441
20.6600 6.8699 0.3460
20.6800 6.8766 0.3488
20.7000 6.8833 0.3448
20.7200 6.8900 0.3440
20.7400 6.8967 0.3495
20.7600 6.9034 0.3371
20.7800 6.9100 0.3466
20.8000 6.9166 0.3477
20.8200 6.9232 0.3358
20.8400 6.9299 0.3499
20.8600 6.9366 0.3448
20.8800 6.9433 0.3342
20.9000 6.9500 0.3573
20.9200 6.9567 0.3424
20.9400 6.9634 0.3381
20.9600 6.9700 0.3536
20.9800 6.9767 0.3404
21.0000 6.9833 0.3422
21.0200 6.9899 0.3552
21.0400 6.9966 0.3402
21.0600 7.0033 0.3372
21.0800 7.0099 0.3551
21.1000 7.0166 0.3404
21.1200 7.0233 0.3406
21.1400 7.0300 0.3481
21.1600 7.0366 0.3369
21.1800 7.0432 0.3448
21.2000 7.0498 0.3518
21.2200 7.0565 0.3362
21.2400 7.0633 0.3460
21.2600 7.0700 0.3426
21.2800 7.0766 0.3422
21.3000 7.0833 0.3438
21.3200 7.0899 0.3435
21.3400 7.0966 0.3445
21.3600 7.1032 0.3440
21.3800 7.1099 0.3400
21.4000 7.1166 0.3426
21.4200 7.1233 0.3394
21.4400 7.1300 0.3404
21.4600 7.1367 0.3432
21.4800 7.1434 0.3407
21.5000 7.1500 0.3353
21.5200 7.1566 0.3425
21.5400 7.1633 0.3407
21.5600 7.1699 0.3391
21.5800 7.1766 0.3434
21.6000 7.1833 0.3406
21.6200 7.1900 0.3400
21.6400 7.1967 0.3444
21.6600 7.2034 0.3385
21.6800 7.2100 0.3388
21.7000 7.2166 0.3444
21.7200 7.2232 0.3387
21.7400 7.2299 0.3461
21.7600 7.2366 0.3432
21.7800 7.2433 0.3356
21.8000 7.2500 0.3443
21.8200 7.2567 0.3416
21.8400 7.2633 0.3322
21.8600 7.2700 0.3445
21.8800 7.2766 0.3391
21.9000 7.2832 0.3349
21.9200 7.2899 0.3424
21.9400 7.2966 0.3402
21.9600 7.3033 0.3363
21.9800 7.3099 0.3466
22.0000 7.3166 0.3392
22.0200 7.3233 0.3380
22.0400 7.3300 0.3409
22.0600 7.3366 0.3401
22.0800 7.3432 0.3369
22.1000 7.3499 0.3461
22.1200 7.3566 0.3383
22.1400 7.3633 0.3360
22.1600 7.3700 0.3419
22.1800 7.3767 0.3408
22.2000 7.3834 0.3395
22.2200 7.3901 0.3389
22.2400 7.3967 0.3427
22.2600 7.4033 0.3408
22.2800 7.4099 0.3410
22.3000 7.4166 0.3438
22.3200 7.4233 0.3396
22.3400 7.4300 0.3420
22.3600 7.4367 0.3409
22.3800 7.4433 0.3356
22.4000 7.4500 0.3410
22.4200 7.4566 0.3419
22.4400 7.4632 0.3348
22.4600 7.4699 0.3428
22.4800 7.4766 0.3459
22.5000 7.4833 0.3271
22.5200 7.4899 0.3423
22.5400 7.4966 0.3422
22.5600 7.5033 0.3336
22.5800 7.5100 0.3441
22.6000 7.5166 0.3426
22.6200 7.5232 0.3311
22.6400 7.5298 0.3433
22.6600 7.5365 0.3394
22.6800 7.5433 0.3290
22.7000 7.5500 0.3445
22.7200 7.5567 0.3394
22.7400 7.5634 0.3297
22.7600 7.5700 0.3440
22.7800 7.5766 0.3376
22.8000 7.5832 0.3317
22.8200 7.5899 0.3451
22.8400 7.5966 0.3355
22.8600 7.6033 0.3311
22.8800 7.6100 0.3434
22.9000 7.6167 0.3408
22.9200 7.6234 0.3302
22.9400 7.6300 0.3411
22.9600 7.6367 0.3406
22.9800 7.6433 0.3313
23.0000 7.6499 0.3408
23.0200 7.6566 0.3383
23.0400 7.6633 0.3281
23.0600 7.6700 0.3477
23.0800 7.6767 0.3328
23.1000 7.6834 0.3273
23.1200 7.6901 0.3429
23.1400 7.6967 0.3324
23.1600 7.7033 0.3325
23.1800 7.7099 0.3460
23.2000 7.7166 0.3289
23.2200 7.7233 0.3332
23.2400 7.7300 0.3430
23.2600 7.7367 0.3321
23.2800 7.7433 0.3351
23.3000 7.7500 0.3451
23.3200 7.7566 0.3298
23.3400 7.7632 0.3356
23.3600 7.7698 0.3387
23.3800 7.7765 0.3331
23.4000 7.7832 0.3376
23.4200 7.7899 0.3366
23.4400 7.7966 0.3321
23.4600 7.8033 0.3352
23.4800 7.8100 0.3394
23.5000 7.8166 0.3368
23.5200 7.8233 0.3282
23.5400 7.8299 0.3317
23.5600 7.8366 0.3402
23.5800 7.8433 0.3314
23.6000 7.8500 0.3342
23.6200 7.8567 0.3373
23.6400 7.8634 0.3359
23.6600 7.8701 0.3291
23.6800 7.8767 0.3342
23.7000 7.8833 0.3340
23.7200 7.8899 0.3335
23.7400 7.8966 0.3359
23.7600 7.9033 0.3296
23.7800 7.9100 0.3380
23.8000 7.9167 0.3348
23.8200 7.9234 0.3239
23.8400 7.9301 0.3380
23.8600 7.9367 0.3332
23.8800 7.9433 0.3263
23.9000 7.9499 0.3366
23.9200 7.9566 0.3371
23.9400 7.9633 0.3233
23.9600 7.9700 0.3410
23.9800 7.9766 0.3364
24.0000 7.9833 0.3252
24.0200 7.9900 0.3391
24.0400 7.9967 0.3339
24.0600 8.0033 0.3263
24.0800 8.0099 0.3383
24.1000 8.0166 0.3347
24.1200 8.0233 0.3280
24.1400 8.0299 0.3360
24.1600 8.0366 0.3345
24.1800 8.0433 0.3295
24.2000 8.0500 0.3366
24.2200 8.0566 0.3278
24.2400 8.0632 0.3283
24.2600 8.0699 0.3375
24.2800 8.0765 0.3294
24.3000 8.0833 0.3261
24.3200 8.0900 0.3339
24.3400 8.0967 0.3333
24.3600 8.1034 0.3217
24.3800 8.1100 0.3365
24.4000 8.1167 0.3313
24.4200 8.1233 0.3271
24.4400 8.1299 0.3368
24.4600 8.1366 0.3325
24.4800 8.1433 0.3290
24.5000 8.1500 0.3349
24.5200 8.1567 0.3281
24.5400 8.1634 0.3319
24.5600 8.1700 0.3350
24.5800 8.1767 0.3266
24.6000 8.1833 0.3304
24.6200 8.1899 0.3395
24.6400 8.1966 0.3224
24.6600 8.2032 0.3298
24.6800 8.2099 0.3368
24.7000 8.2166 0.3266
24.7200 8.2233 0.3318
24.7400 8.2300 0.3373
24.7600 8.2367 0.3228
24.7800 8.2433 0.3316
24.8000 8.2499 0.3367
24.8200 8.2565 0.3280
24.8400 8.2632 0.3372
24.8600 8.2700 0.3298
24.8800 8.2766 0.3268
24.9000 8.2833 0.3357
24.9200 8.2900 0.3306
24.9400 8.2967 0.3259
24.9600 8.3033 0.3359
24.9800 8.3099 0.3286
25.0000 8.3166 0.3323
25.0200 8.3233 0.3314
25.0400 8.3300 0.3257
25.0600 8.3367 0.3298
25.0800 8.3433 0.3331
25.1000 8.3500 0.3237
25.1200 8.3567 0.3341
25.1400 8.3633 0.3337
25.1600 8.3699 0.3263
25.1800 8.3765 0.3296
25.2000 8.3832 0.3324
25.2200 8.3900 0.3321
25.2400 8.3966 0.3310
25.2600 8.4033 0.3240
25.2800 8.4100 0.3333
25.3000 8.4167 0.3280
25.3200 8.4233 0.3253
25.3400 8.4299 0.3334
25.3600 8.4365 0.3299
25.3800 8.4433 0.3248
25.4000 8.4500 0.3313
25.4200 8.4567 0.3268
25.4400 8.4633 0.3320
25.4600 8.4700 0.3325
25.4800 8.4767 0.3217
25.5000 8.4833 0.3266
25.5200 8.4898 0.3349
25.5400 8.4965 0.3221
25.5600 8.5032 0.3276
25.5800 8.5099 0.3317
25.6000 8.5166 0.3195
25.6200 8.5233 0.3339
25.6400 8.5300 0.3258
25.6600 8.5367 0.3224
25.6800 8.5433 0.3357
25.7000 8.5499 0.3300
25.7200 8.5565 0.3225
25.7400 8.5632 0.3337
25.7600 8.5700 0.3235
25.7800 8.5767 0.3240
25.8000 8.5834 0.3371
25.8200 8.5901 0.3204
25.8400 8.5967 0.3215
25.8600 8.6033 0.3358
25.8800 8.6099 0.3204
25.9000 8.6166 0.3297
25.9200 8.6233 0.3314
25.9400 8.6300 0.3177
25.9600 8.6367 0.3275
25.9800 8.6434 0.3307
26.0000 8.6500 0.3213
26.0200 8.6567 0.3286
26.0400 8.6633 0.3312
26.0600 8.6699 0.3187
26.0800 8.6765 0.3257
26.1000 8.6832 0.3314
26.1200 8.6899 0.3201
26.1400 8.6966 0.3241
26.1600 8.7033 0.3313
26.1800 8.7100 0.3195
26.2000 8.7167 0.3276
26.2200 8.7233 0.3313
26.2400 8.7299 0.3223
26.2600 8.7365 0.3259
26.2800 8.7432 0.3271
26.3000 8.7499 0.3210
26.3200 8.7566 0.3257
26.3400 8.7633 0.3283
26.3600 8.7700 0.3215
26.3800 8.7766 0.3205
26.4000 8.7833 0.3258
26.4200 8.7899 0.3271
26.4400 8.7965 0.3247
26.4600 8.8033 0.3230
26.4800 8.8100 0.3219
26.5000 8.8167 0.3227
26.5200 8.8234 0.3285
26.5400 8.8300 0.3184
26.5600 8.8367 0.3242
26.5800 8.8433 0.3265
26.6000 8.8500 0.3186
26.6200 8.8566 0.3224
26.6400 8.8633 0.3286
26.6600 8.8700 0.3215
26.6800 8.8767 0.3227
26.7000 8.8834 0.3277
26.7200 8.8900 0.3177
26.7400 8.8967 0.3232
26.7600 8.9033 0.3293
26.7800 8.9099 0.3189
26.8000 8.9165 0.3199
26.8200 8.9232 0.3298
26.8400 8.9300 0.3193
26.8600 8.9366 0.3186
26.8800 8.9433 0.3259
26.9000 8.9500 0.3227
26.9200 8.9567 0.3165
26.9400 8.9633 0.3217
26.9600 8.9699 0.3224
26.9800 8.9765 0.3234
27.0000 8.9832 0.3231
27.0200 8.9899 0.3190
27.0400 8.9966 0.3218
27.0600 9.0033 0.3269
27.0800 9.0100 0.3214
27.1000 9.0167 0.3203
27.1200 9.0233 0.3208
27.1400 9.0299 0.3239
27.1600 9.0365 0.3202
27.1800 9.0432 0.3250
27.2000 9.0499 0.3218
27.2200 9.0566 0.3168
27.2400 9.0633 0.3235
27.2600 9.0700 0.3228
27.2800 9.0767 0.3161
27.3000 9.0833 0.3205
27.3200 9.0899 0.3266
27.3400 9.0966 0.3204
27.3600 9.1033 0.3280
27.3800 9.1100 0.3218
27.4000 9.1167 0.3113
27.4200 9.1234 0.3262
27.4400 9.1300 0.3227
27.4600 9.1367 0.3108
27.4800 9.1433 0.3255
27.5000 9.1499 0.3177
27.5200 9.1566 0.3175
27.5400 9.1633 0.3249
27.5600 9.1700 0.3156
27.5800 9.1767 0.3179
27.6000 9.1833 0.3309
27.6200 9.1900 0.3140
27.6400 9.1967 0.3173
27.6600 9.2033 0.3235
27.6800 9.2099 0.3147
27.7000 9.2165 0.3190
27.7200 9.2232 0.3232
27.7400 9.2299 0.3161
27.7600 9.2366 0.3224
27.7800 9.2433 0.3208
27.8000 9.2500 0.3169
27.8200 9.2567 0.3186
27.8400 9.2633 0.3199
27.8600 9.2699 0.3201
27.8800 9.2765 0.3225
27.9000 9.2832 0.3180
27.9200 9.2900 0.3172
27.9400 9.2967 0.3240
27.9600 9.3034 0.3125
27.9800 9.3101 0.3194
28.0000 9.3167 0.3184
28.0200 9.3233 0.3122
28.0400 9.3299 0.3215
28.0600 9.3366 0.3195
28.0800 9.3433 0.3166
28.1000 9.3500 0.3166
28.1200 9.3567 0.3150
28.1400 9.3633 0.3163
28.1600 9.3700 0.3187
28.1800 9.3767 0.3190
28.2000 9.3833 0.3146
28.2200 9.3899 0.3189
28.2400 9.3965 0.3149
28.2600 9.4032 0.3150
28.2800 9.4099 0.3181
28.3000 9.4166 0.3184
28.3200 9.4233 0.3134
28.3400 9.4300 0.3200
28.3600 9.4367 0.3126
28.3800 9.4433 0.3154
28.4000 9.4499 0.3221
28.4200 9.4565 0.3127
28.4400 9.4632 0.3167
28.4600 9.4699 0.3198
28.4800 9.4766 0.3147
28.5000 9.4833 0.3137
28.5200 9.4900 0.3184
28.5400 9.4967 0.3167
28.5600 9.5033 0.3156
28.5800 9.5099 0.3197
28.6000 9.5166 0.3141
28.6200 9.5232 0.3160
28.6400 9.5300 0.3169
28.6600 9.5367 0.3163
28.6800 9.5433 0.3158
28.7000 9.5500 0.3173
28.7200 9.5567 0.3156
28.7400 9.5634 0.3119
28.7600 9.5700 0.3230
28.7800 9.5766 0.3112
28.8000 9.5832 0.3124
28.8200 9.5899 0.3195
28.8400 9.5967 0.3124
28.8600 9.6034 0.3103
28.8800 9.6100 0.3195
28.9000 9.6167 0.3133
28.9200 9.6234 0.3125
28.9400 9.6299 0.3182
28.9600 9.6365 0.3144
28.9800 9.6432 0.3143
29.0000 9.6499 0.3210
29.0200 9.6566 0.3097
29.0400 9.6633 0.3183
29.0600 9.6699 0.3174
29.0800 9.6766 0.3071
29.1000 9.6833 0.3189
29.1200 9.6899 0.3136
29.1400 9.6965 0.3073
29.1600 9.7032 0.3260
29.1800 9.7099 0.3155
29.2000 9.7166 0.3071
29.2200 9.7233 0.3203
29.2400 9.7300 0.3154
29.2600 9.7367 0.3085
29.2800 9.7433 0.3184
29.3000 9.7500 0.3129
29.3200 9.7566 0.3101
29.3400 9.7632 0.3215
29.3600 9.7699 0.3086
29.3800 9.7766 0.3135
29.4000 9.7833 0.3174
29.4200 9.7900 0.3113
29.4400 9.7967 0.3128
29.4600 9.8034 0.3215
29.4800 9.8099 0.3116
29.5000 9.8165 0.3172
29.5200 9.8232 0.3185
29.5400 9.8299 0.3124
29.5600 9.8367 0.3119
29.5800 9.8434 0.3156
29.6000 9.8500 0.3101
29.6200 9.8567 0.3215
29.6400 9.8633 0.3111
29.6600 9.8700 0.3118
29.6800 9.8766 0.3223
29.7000 9.8832 0.3127
29.7200 9.8899 0.3088
29.7400 9.8966 0.3140
29.7600 9.9033 0.3132
29.7800 9.9100 0.3129
29.8000 9.9167 0.3152
29.8200 9.9233 0.3110
29.8400 9.9299 0.3112
29.8600 9.9365 0.3176
29.8800 9.9432 0.3131
29.9000 9.9499 0.3127
29.9200 9.9566 0.3181
29.9400 9.9633 0.3096
29.9600 9.9700 0.3141
29.9800 9.9766 0.3157
30.0000 9.9833 0.3117
30.0200 9.9899 0.3131
30.0400 9.9965 0.3191
30.0600 10.0032 0.3093
30.0800 10.0099 0.3107
30.1000 10.0166 0.3156
30.1200 10.0233 0.3105
30.1400 10.0300 0.3109
30.1600 10.0367 0.3141
30.1800 10.0434 0.3044
30.2000 10.0500 0.3158
30.2200 10.0566 0.3166
30.2400 10.0633 0.3069
30.2600 10.0700 0.3096
30.2800 10.0767 0.3177
30.3000 10.0833 0.3042
30.3200 10.0900 0.3100
30.3400 10.0967 0.3168
30.3600 10.1034 0.3064
30.3800 10.1100 0.3140
30.4000 10.1166 0.3143
30.4200 10.1232 0.3061
30.4400 10.1299 0.3126
30.4600 10.1366 0.3136
30.4800 10.1433 0.3079
30.5000 10.1500 0.3104
30.5200 10.1567 0.3141
30.5400 10.1633 0.3095
30.5600 10.1699 0.3047
30.5800 10.1765 0.3126
30.6000 10.1832 0.3127
30.6200 10.1899 0.3081
30.6400 10.1966 0.3130
30.6600 10.2033 0.3097
30.6800 10.2100 0.3059
30.7000 10.2167 0.3160
30.7200 10.2233 0.3079
30.7400 10.2300 0.3093
30.7600 10.2366 0.3136
30.7800 10.2433 0.3075
30.8000 10.2499 0.3028
30.8200 10.2566 0.3178
30.8400 10.2633 0.3027
30.8600 10.2700 0.3060
30.8800 10.2767 0.3174
30.9000 10.2834 0.2990
30.9200 10.2900 0.3084
30.9400 10.2966 0.3152
30.9600 10.3032 0.2986
30.9800 10.3099 0.3100
31.0000 10.3166 0.3113
31.0200 10.3233 0.3013
31.0400 10.3300 0.3094
31.0600 10.3367 0.3072
31.0800 10.3433 0.3039
31.1000 10.3499 0.3057
31.1200 10.3565 0.3092
31.1400 10.3632 0.3091
31.1600 10.3699 0.3085
31.1800 10.3766 0.3009
31.2000 10.3833 0.3084
31.2200 10.3900 0.3092
31.2400 10.3966 0.3055
31.2600 10.4033 0.3089
31.2800 10.4100 0.2997
31.3000 10.4166 0.3063
31.3200 10.4232 0.3163
31.3400 10.4299 0.3007
31.3600 10.4366 0.3112
31.3800 10.4433 0.3128
31.4000 10.4500 0.3014
31.4200 10.4567 0.3075
31.4400 10.4634 0.3095
31.4600 10.4700 0.2922
31.4800 10.4766 0.3139
31.5000 10.4832 0.3123
31.5200 10.4899 0.2920
31.5400 10.4966 0.3138
31.5600 10.5034 0.3116
31.5800 10.5100 0.2887
31.6000 10.5167 0.3179
31.6200 10.5234 0.3080
31.6400 10.5300 0.2863
31.6600 10.5366 0.3201
31.6800 10.5432 0.3087
31.7000 10.5499 0.2926
31.7200 10.5567 0.3185
31.7400 10.5634 0.3044
31.7600 10.5700 0.2901
31.7800 10.5767 0.3253
31.8000 10.5834 0.2997
31.8200 10.5900 0.2944
31.8400 10.5966 0.3209
31.8600 10.6032 0.3033
31.8800 10.6099 0.2967
31.9000 10.6166 0.3185
31.9200 10.6233 0.2995
31.9400 10.6300 0.2961
31.9600 10.6367 0.3172
31.9800 10.6434 0.3032
32.0000 10.6500 0.2984
32.0200 10.6565 0.3194
32.0400 10.6631 0.3015
32.0600 10.6698 0.3015
32.0800 10.6766 0.3144
32.1000 10.6833 0.3017
32.1200 10.6900 0.2981
32.1400 10.6966 0.3137
32.1600 10.7033 0.2984
32.1800 10.7100 0.3007
32.2000 10.7166 0.3130
32.2200 10.7232 0.2988
32.2400 10.7299 0.2980
32.2600 10.7366 0.3169
32.2800 10.7433 0.2964
32.3000 10.7500 0.3000
32.3200 10.7567 0.3139
32.3400 10.7634 0.2961
32.3600 10.7700 0.3029
32.3800 10.7766 0.3101
32.4000 10.7832 0.3042
32.4200 10.7899 0.3052
32.4400 10.7966 0.3052
32.4600 10.8033 0.2985
32.4800 10.8100 0.3073
32.5000 10.8167 0.3070
32.5200 10.8233 0.2981
32.5400 10.8300 0.3047
32.5600 10.8366 0.3065
32.5800 10.8432 0.3047
32.6000 10.8499 0.3028
32.6200 10.8566 0.3032
32.6400 10.8633 0.3068
32.6600 10.8700 0.2997
32.6800 10.8767 0.3050
32.7000 10.8833 0.3052
32.7200 10.8900 0.2979
32.7400 10.8966 0.2987
32.7600 10.9032 0.3065
32.7800 10.9099 0.3010
32.8000 10.9166 0.3035
32.8200 10.9233 0.3048
32.8400 10.9299 0.2977
32.8600 10.9366 0.3067
32.8800 10.9433 0.3057
32.9000 10.9500 0.2902
32.9200 10.9566 0.3091
32.9400 10.9632 0.3059
32.9600 10.9699 0.2926
32.9800 10.9766 0.3051
33.0000 10.9833 0.2995
33.0200 10.9900 0.2925
33.0400 10.9967 0.3050
33.0600 11.0033 0.3020
33.0800 11.0100 0.2920
33.1000 11.0166 0.3042
33.1200 11.0232 0.3047
33.1400 11.0299 0.2950
33.1600 11.0366 0.2985
33.1800 11.0433 0.3014
33.2000 11.0500 0.2967
33.2200 11.0567 0.2995
33.2400 11.0634 0.2988
33.2600 11.0700 0.2989
33.2800 11.0766 0.2966
33.3000 11.0832 0.3044
33.3200 11.0899 0.2921
33.3400 11.0966 0.2959
33.3600 11.1033 0.3057
33.3800 11.1100 0.2985
33.4000 11.1166 0.2909
33.4200 11.1233 0.3012
33.4400 11.1300 0.2980
33.4600 11.1366 0.2933
33.4800 11.1432 0.3031
33.5000 11.1499 0.2982
33.5200 11.1566 0.2945
33.5400 11.1633 0.2974
33.5600 11.1700 0.2988
33.5800 11.1767 0.2977
33.6000 11.1833 0.2978
33.6200 11.1900 0.2988
33.6400 11.1966 0.2970
33.6600 11.2032 0.2967
33.6800 11.2099 0.3023
33.7000 11.2166 0.2956
33.7200 11.2234 0.2987
33.7400 11.2301 0.2986
33.7600 11.2367 0.2975
33.7800 11.2434 0.2958
33.8000 11.2500 0.3031
33.8200 11.2566 0.2942
33.8400 11.2632 0.2951
33.8600 11.2699 0.3001
33.8800 11.2766 0.2970
33.9000 11.2833 0.2945
33.9200 11.2900 0.3019
33.9400 11.2967 0.2905
33.9600 11.3034 0.2947
33.9800 11.3100 0.3071
34.0000 11.3166 0.2933
34.0200 11.3232 0.2960
34.0400 11.3299 0.3082
34.0600 11.3366 0.2914
34.0800 11.3433 0.2945
34.1000 11.3500 0.3082
34.1200 11.3567 0.2959
34.1400 11.3634 0.2947
34.1600 11.3700 0.3032
34.1800 11.3766 0.2891
34.2000 11.3832 0.3008
34.2200 11.3898 0.3074
34.2400 11.3966 0.2901
34.2600 11.4033 0.3030
34.2800 11.4100 0.3018
34.3000 11.4166 0.2871
34.3200 11.4233 0.3015
34.3400 11.4300 0.3024
34.3600 11.4366 0.2886
34.3800 11.4432 0.3045
34.4000 11.4499 0.2958
34.4200 11.4566 0.2900
34.4400 11.4633 0.3031
34.4600 11.4700 0.2966
34.4800 11.4767 0.2930
34.5000 11.4834 0.3014
34.5200 11.4901 0.2887
34.5400 11.4967 0.2948
34.5600 11.5033 0.3011
34.5800 11.5099 0.2929
34.6000 11.5166 0.2938
34.6200 11.5233 0.2984
34.6400 11.5300 0.2912
34.6600 11.5367 0.2934
34.6800 11.5433 0.2950
34.7000 11.5500 0.2948
34.7200 11.5566 0.2936
34.7400 11.5632 0.2920
34.7600 11.5699 0.2983
34.7800 11.5766 0.2980
34.8000 11.5833 0.2916
34.8200 11.5900 0.2950
34.8400 11.5966 0.2964
34.8600 11.6033 0.2932
34.8800 11.6100 0.2960
34.9000 11.6166 0.2892
34.9200 11.6232 0.2942
34.9400 11.6298 0.3024
34.9600 11.6365 0.2871
34.9800 11.6433 0.2898
35.0000 11.6500 0.3024
35.0200 11.6567 0.2855
35.0400 11.6634 0.2913
35.0600 11.6700 0.2962
35.0800 11.6767 0.2878
35.1000 11.6832 0.2953
35.1200 11.6899 0.2991
35.1400 11.6966 0.2868
35.1600 11.7033 0.2943
35.1800 11.7100 0.2969
35.2000 11.7167 0.2864
35.2200 11.7234 0.2924
35.2400 11.7300 0.2933
35.2600 11.7366 0.2875
35.2800 11.7432 0.2972
35.3000 11.7499 0.2980
35.3200 11.7566 0.2886
35.3400 11.7633 0.2965
35.3600 11.7700 0.2961
35.3800 11.7767 0.2848
35.4000 11.7834 0.2939
35.4200 11.7900 0.2945
35.4400 11.7967 0.2869
35.4600 11.8033 0.2925
35.4800 11.8099 0.2921
35.5000 11.8166 0.2952
35.5200 11.8233 0.2889
35.5400 11.8300 0.2931
35.5600 11.8366 0.2918
35.5800 11.8433 0.2866
35.6000 11.8500 0.2940
35.6200 11.8566 0.2923
35.6400 11.8632 0.2888
35.6600 11.8698 0.2960
35.6800 11.8765 0.2892
35.7000 11.8833 0.2868
35.7200 11.8900 0.2933
35.7400 11.8966 0.2925
35.7600 11.9033 0.2858
35.7800 11.9100 0.2956
35.8000 11.9166 0.2898
35.8200 11.9232 0.2901
35.8400 11.9299 0.2957
35.8600 11.9366 0.2905
35.8800 11.9433 0.2899
35.9000 11.9500 0.2910
35.9200 11.9567 0.2913
35.9400 11.9633 0.2903
35.9600 11.9700 0.2934
35.9800 11.9767 0.2915
36.0000 11.9833 0.2872
36.0200 11.9899 0.2947
36.0400 11.9966 0.2889
36.0600 12.0033 0.2940
36.0800 12.0100 0.2922
36.1000 12.0167 0.2870
36.1200 12.0234 0.2923
36.1400 12.0300 0.2891
36.1600 12.0366 0.2928
36.1800 12.0432 0.2915
36.2000 12.0499 0.2921
36.2200 12.0566 0.2902
36.2400 12.0633 0.2894
36.2600 12.0700 0.2935
36.2800 12.0767 0.2903
36.3000 12.0833 0.2862
36.3200 12.0900 0.2927
36.3400 12.0966 0.2909
36.3600 12.1032 0.2850
36.3800 12.1099 0.2917
36.4000 12.1166 0.2934
36.4200 12.1233 0.2831
36.4400 12.1299 0.2991
36.4600 12.1366 0.2885
36.4800 12.1433 0.2805
36.5000 12.1500 0.2977
36.5200 12.1566 0.2890
36.5400 12.1633 0.2801
36.5600 12.1699 0.2990
36.5800 12.1766 0.2859
36.6000 12.1833 0.2780
36.6200 12.1900 0.2974
36.6400 12.1967 0.2829
36.6600 12.2034 0.2791
36.6800 12.2101 0.2946
36.7000 12.2167 0.2850
36.7200 12.2233 0.2807
36.7400 12.2299 0.2942
36.7600 12.2366 0.2891
36.7800 12.2433 0.2818
36.8000 12.2500 0.2865
36.8200 12.2567 0.2881
36.8400 12.2633 0.2807
36.8600 12.2700 0.2916
36.8800 12.2766 0.2848
36.9000 12.2832 0.2819
36.9200 12.2899 0.2919
36.9400 12.2965 0.2865
36.9600 12.3033 0.2845
36.9800 12.3100 0.2922
37.0000 12.3166 0.2871
37.0200 12.3233 0.2819
37.0400 12.3300 0.2882
37.0600 12.3366 0.2810
37.0800 12.3432 0.2829
37.1000 12.3498 0.2943
37.1200 12.3565 0.2790
37.1400 12.3632 0.2842
37.1600 12.3699 0.2909
37.1800 12.3767 0.2822
37.2000 12.3833 0.2809
37.2200 12.3900 0.2872
37.2400 12.3967 0.2821
37.2600 12.4032 0.2869
37.2800 12.4099 0.2888
37.3000 12.4166 0.2808
37.3200 12.4233 0.2853
37.3400 12.4300 0.2877
37.3600 12.4367 0.2792
37.3800 12.4434 0.2809
37.4000 12.4500 0.2936
37.4200 12.4567 0.2808
37.4400 12.4633 0.2803
37.4600 12.4699 0.2868
37.4800 12.4766 0.2843
37.5000 12.4833 0.2810
37.5200 12.4900 0.2891
37.5400 12.4967 0.2833
37.5600 12.5034 0.2823
37.5800 12.5101 0.2906
37.6000 12.5167 0.2845
37.6200 12.5233 0.2800
37.6400 12.5299 0.2895
37.6600 12.5365 0.2837
37.6800 12.5433 0.2811
37.7000 12.5500 0.2886
37.7200 12.5566 0.2850
37.7400 12.5633 0.2785
37.7600 12.5700 0.2881
37.7800 12.5766 0.2868
37.8000 12.5832 0.2844
37.8200 12.5898 0.2846
37.8400 12.5965 0.2886
37.8600 12.6032 0.2852
37.8800 12.6099 0.2829
37.9000 12.6166 0.2847
37.9200 12.6233 0.2836
37.9400 12.6300 0.2898
37.9600 12.6366 0.2846
37.9800 12.6432 0.2816
38.0000 12.6499 0.2894
38.0200 12.6566 0.2840
38.0400 12.6633 0.2796
38.0600 12.6700 0.2923
38.0800 12.6767 0.2826
38.1000 12.6834 0.2803
38.1200 12.6901 0.2861
38.1400 12.6967 0.2830
38.1600 12.7033 0.2757
38.1800 12.7099 0.2914
38.2000 12.7166 0.2827
38.2200 12.7233 0.2805
38.2400 12.7300 0.2874
38.2600 12.7367 0.2835
38.2800 12.7434 0.2861
38.3000 12.7500 0.2857
38.3200 12.7567 0.2777
38.3400 12.7633 0.2884
38.3600 12.7699 0.2836
38.3800 12.7766 0.2822
38.4000 12.7833 0.2876
38.4200 12.7900 0.2798
38.4400 12.7966 0.2806
38.4600 12.8033 0.2913
38.4800 12.8100 0.2783
38.5000 12.8167 0.2815
38.5200 12.8233 0.2867
38.5400 12.8299 0.2729
38.5600 12.8365 0.2838
38.5800 12.8432 0.2909
38.6000 12.8499 0.2747
38.6200 12.8566 0.2838
38.6400 12.8633 0.2909
38.6600 12.8700 0.2729
38.6800 12.8766 0.2829
38.7000 12.8832 0.2845
38.7200 12.8898 0.2748
38.7400 12.8965 0.2867
38.7600 12.9032 0.2818
38.7800 12.9099 0.2728
38.8000 12.9167 0.2955
38.8200 12.9234 0.2765
38.8400 12.9301 0.2721
38.8600 12.9367 0.2879
38.8800 12.9433 0.2796
38.9000 12.9499 0.2759
38.9200 12.9566 0.2887
38.9400 12.9633 0.2782
38.9600 12.9700 0.2715
38.9800 12.9767 0.2830
39.0000 12.9834 0.2762
39.0200 12.9900 0.2813
39.0400 12.9967 0.2878
39.0600 13.0033 0.2682
39.0800 13.0099 0.2827
39.1000 13.0166 0.2847
39.1200 13.0232 0.2733
39.1400 13.0299 0.2761
39.1600 13.0366 0.2845
39.1800 13.0433 0.2730
39.2000 13.0500 0.2758
39.2200 13.0567 0.2813
39.2400 13.0633 0.2731
39.2600 13.0699 0.2801
39.2800 13.0765 0.2787
39.3000 13.0832 0.2739
39.3200 13.0899 0.2775
39.3400 13.0966 0.2801
39.3600 13.1033 0.2801
39.3800 13.1100 0.2680
39.4000 13.1167 0.2746
39.4200 13.1233 0.2854
39.4400 13.1299 0.2691
39.4600 13.1366 0.2798
39.4800 13.1433 0.2829
39.5000 13.1500 0.2684
39.5200 13.1566 0.2780
39.5400 13.1633 0.2883
39.5600 13.1700 0.2636
39.5800 13.1766 0.2773
39.6000 13.1833 0.2822
39.6200 13.1899 0.2660
39.6400 13.1966 0.2777
39.6600 13.2033 0.2846
39.6800 13.2100 0.2677
39.7000 13.2167 0.2773
39.7200 13.2233 0.2761
39.7400 13.2300 0.2673
39.7600 13.2367 0.2778
39.7800 13.2433 0.2801
39.8000 13.2499 0.2695
39.8200 13.2565 0.2772
39.8400 13.2633 0.2783
39.8600 13.2700 0.2689
39.8800 13.2767 0.2778
39.9000 13.2834 0.2763
39.9200 13.2900 0.2718
39.9400 13.2967 0.2707
39.9600 13.3033 0.2723
39.9800 13.3099 0.2730
40.0000 13.3165 0.2782
40.0200 13.3232 0.2767
40.0400 13.3299 0.2687
40.0600 13.3366 0.2684
40.0800 13.3433 0.2842
40.1000 13.3499 0.2697
40.1200 13.3566 0.2688
40.1400 13.3633 0.2797
40.1600 13.3699 0.2706
40.1800 13.3765 0.2633
40.2000 13.3832 0.2827
40.2200 13.3900 0.2692
40.2400 13.3967 0.2665
40.2600 13.4034 0.2838
40.2800 13.4101 0.2658
40.3000 13.4168 0.2656
40.3200 13.4233 0.2853
40.3400 13.4299 0.2668
40.3600 13.4365 0.2689
40.3800 13.4432 0.2860
40.4000 13.4500 0.2640
40.4200 13.4567 0.2639
40.4400 13.4634 0.2837
40.4600 13.4701 0.2645
40.4800 13.4767 0.2663
40.5000 13.4833 0.2769
40.5200 13.4899 0.2646
40.5400 13.4965 0.2755
40.5600 13.5032 0.2752
40.5800 13.5099 0.2652
40.6000 13.5166 0.2741
40.6200 13.5233 0.2742
40.6400 13.5300 0.2692
40.6600 13.5367 0.2761
40.6800 13.5433 0.2694
40.7000 13.5499 0.2696
40.7200 13.5565 0.2744
40.7400 13.5632 0.2738
40.7600 13.5699 0.2702
40.7800 13.5766 0.2747
40.8000 13.5833 0.2702
40.8200 13.5900 0.2746
40.8400 13.5967 0.2713
40.8600 13.6033 0.2697
40.8800 13.6099 0.2731
40.9000 13.6165 0.2758
40.9200 13.6232 0.2624
40.9400 13.6300 0.2765
40.9600 13.6367 0.2721
40.9800 13.6433 0.2685
41.0000 13.6500 0.2754
41.0200 13.6567 0.2661
41.0400 13.6633 0.2697
41.0600 13.6700 0.2717
41.0800 13.6766 0.2663
41.1000 13.6833 0.2753
41.1200 13.6900 0.2702
41.1400 13.6967 0.2603
41.1600 13.7033 0.2765
41.1800 13.7100 0.2720
41.2000 13.7167 0.2648
41.2200 13.7233 0.2711
41.2400 13.7299 0.2702
41.2600 13.7365 0.2698
41.2800 13.7432 0.2750
41.3000 13.7499 0.2673
41.3200 13.7566 0.2709
41.3400 13.7633 0.2735
41.3600 13.7700 0.2675
41.3800 13.7767 0.2646
41.4000 13.7833 0.2720
41.4200 13.7899 0.2672
41.4400 13.7965 0.2666
41.4600 13.8032 0.2683
41.4800 13.8099 0.2672
41.5000 13.8166 0.2680
41.5200 13.8233 0.2727
41.5400 13.8300 0.2594
41.5600 13.8367 0.2684
41.5800 13.8433 0.2712
41.6000 13.8499 0.2649
41.6200 13.8566 0.2663
41.6400 13.8632 0.2698
41.6600 13.8699 0.2692
41.6800 13.8766 0.2617
41.7000 13.8833 0.2716
41.7200 13.8900 0.2680
41.7400 13.8967 0.2633
41.7600 13.9033 0.2630
41.7800 13.9099 0.2665
41.8000 13.9165 0.2657
41.8200 13.9232 0.2657
41.8400 13.9300 0.2736
41.8600 13.9367 0.2600
41.8800 13.9434 0.2629
41.9000 13.9501 0.2712
41.9200 13.9567 0.2591
41.9400 13.9633 0.2648
41.9600 13.9699 0.2649
41.9800 13.9766 0.2634
42.0000 13.9832 0.2638
42.0200 13.9900 0.2721
42.0400 13.9966 0.2619
42.0600 14.0033 0.2647
42.0800 14.0100 0.2703
42.1000 14.0167 0.2565
42.1200 14.0233 0.2685
42.1400 14.0299 0.2666
42.1600 14.0365 0.2567
42.1800 14.0432 0.2736
42.2000 14.0499 0.2646
42.2200 14.0566 0.2587
42.2400 14.0633 0.2694
42.2600 14.0700 0.2670
42.2800 14.0767 0.2584
42.3000 14.0833 0.2652
42.3200 14.0899 0.2691
42.3400 14.0966 0.2541
42.3600 14.1032 0.2727
42.3800 14.1100 0.2611
42.4000 14.1167 0.2548
42.4200 14.1234 0.2710
42.4400 14.1300 0.2615
42.4600 14.1367 0.2569
42.4800 14.1434 0.2676
42.5000 14.1500 0.2652
42.5200 14.1566 0.2598
42.5400 14.1633 0.2657
42.5600 14.1700 0.2631
42.5800 14.1766 0.2557
42.6000 14.1833 0.2682
42.6200 14.1900 0.2556
42.6400 14.1967 0.2620
42.6600 14.2033 0.2643
42.6800 14.2100 0.2571
42.7000 14.2166 0.2635
42.7200 14.2232 0.2642
42.7400 14.2299 0.2555
42.7600 14.2366 0.2648
42.7800 14.2433 0.2614
42.8000 14.2500 0.2619
42.8200 14.2567 0.2579
42.8400 14.2633 0.2628
42.8600 14.2699 0.2608
42.8800 14.2765 0.2636
42.9000 14.2832 0.2606
42.9200 14.2899 0.2649
42.9400 14.2966 0.2624
42.9600 14.3033 0.2550
42.9800 14.3100 0.2688
43.0000 14.3167 0.2574
43.0200 14.3233 0.2561
43.0400 14.3299 0.2637
43.0600 14.3366 0.2607
43.0800 14.3432 0.2571
43.1000 14.3499 0.2632
43.1200 14.3567 0.2590
43.1400 14.3633 0.2582
43.1600 14.3700 0.2664
43.1800 14.3767 0.2588
43.2000 14.3834 0.2531
43.2200 14.3900 0.2675
43.2400 14.3966 0.2565
43.2600 14.4032 0.2606
43.2800 14.4099 0.2627
43.3000 14.4167 0.2580
43.3200 14.4234 0.2615
43.3400 14.4301 0.2594
43.3600 14.4367 0.2606
43.3800 14.4433 0.2638
43.4000 14.4499 0.2557
43.4200 14.4565 0.2606
43.4400 14.4632 0.2602
43.4600 14.4699 0.2587
43.4800 14.4766 0.2581
43.5000 14.4833 0.2573
43.5200 14.4900 0.2568
43.5400 14.4967 0.2610
43.5600 14.5033 0.2578
43.5800 14.5099 0.2541
43.6000 14.5165 0.2646
43.6200 14.5232 0.2557
43.6400 14.5299 0.2589
43.6600 14.5366 0.2594
43.6800 14.5433 0.2547
43.7000 14.5499 0.2592
43.7200 14.5566 0.2604
43.7400 14.5633 0.2516
43.7600 14.5700 0.2628
43.7800 14.5766 0.2606
43.8000 14.5832 0.2551
43.8200 14.5899 0.2542
43.8400 14.5966 0.2646
43.8600 14.6033 0.2494
43.8800 14.6100 0.2578
43.9000 14.6167 0.2625
43.9200 14.6234 0.2528
43.9400 14.6300 0.2570
43.9600 14.6366 0.2604
43.9800 14.6432 0.2571
44.0000 14.6499 0.2587
44.0200 14.6566 0.2558
44.0400 14.6633 0.2536
44.0600 14.6700 0.2562
44.0800 14.6767 0.2600
44.1000 14.6833 0.2554
44.1200 14.6900 0.2540
44.1400 14.6966 0.2628
44.1600 14.7032 0.2565
44.1800 14.7099 0.2509
44.2000 14.7166 0.2604
44.2200 14.7233 0.2583
44.2400 14.7300 0.2498
44.2600 14.7367 0.2629
44.2800 14.7434 0.2534
44.3000 14.7500 0.2515
44.3200 14.7566 0.2660
44.3400 14.7632 0.2517
44.3600 14.7699 0.2529
44.3800 14.7766 0.2652
44.4000 14.7833 0.2482
44.4200 14.7899 0.2523
44.4400 14.7966 0.2620
44.4600 14.8033 0.2468
44.4800 14.8099 0.2510
44.5000 14.8165 0.2656
44.5200 14.8232 0.2441
44.5400 14.8299 0.2554
44.5600 14.8366 0.2670
44.5800 14.8433 0.2428
44.6000 14.8500 0.2536
44.6200 14.8567 0.2647
44.6400 14.8634 0.2429
44.6600 14.8700 0.2555
44.6800 14.8766 0.2664
44.7000 14.8833 0.2445
44.7200 14.8900 0.2582
44.7400 14.8967 0.2632
44.7600 14.9033 0.2410
44.7800 14.9100 0.2586
44.8000 14.9167 0.2608
44.8200 14.9234 0.2413
44.8400 14.9300 0.2591
44.8600 14.9366 0.2595
44.8800 14.9432 0.2494
44.9000 14.9499 0.2589
44.9200 14.9566 0.2568
44.9400 14.9633 0.2451
44.9600 14.9700 0.2626
44.9800 14.9766 0.2571
45.0000 14.9833 0.2461
45.0200 14.9899 0.2613
45.0400 14.9965 0.2581
45.0600 15.0032 0.2478
45.0800 15.0099 0.2576
45.1000 15.0166 0.2591
45.1200 15.0233 0.2529
45.1400 15.0300 0.2516
45.1600 15.0367 0.2594
45.1800 15.0433 0.2494
45.2000 15.0500 0.2549
45.2200 15.0566 0.2580
45.2400 15.0633 0.2510
45.2600 15.0699 0.2528
45.2800 15.0766 0.2545
45.3000 15.0833 0.2520
45.3200 15.0900 0.2500
45.3400 15.0967 0.2541
45.3600 15.1034 0.2542
45.3800 15.1100 0.2535
45.4000 15.1166 0.2526
45.4200 15.1232 0.2569
45.4400 15.1299 0.2515
45.4600 15.1366 0.2526
45.4800 15.1434 0.2544
45.5000 15.1500 0.2440
45.5200 15.1567 0.2544
45.5400 15.1634 0.2582
45.5600 15.1700 0.2432
45.5800 15.1766 0.2533
45.6000 15.1832 0.2627
45.6200 15.1899 0.2438
45.6400 15.1966 0.2509
45.6600 15.2033 0.2603
45.6800 15.2100 0.2387
45.7000 15.2167 0.2535
45.7200 15.2233 0.2557
45.7400 15.2300 0.2421
45.7600 15.2366 0.2538
45.7800 15.2432 0.2520
45.8000 15.2498 0.2375
45.8200 15.2565 0.2582
45.8400 15.2632 0.2547
45.8600 15.2699 0.2367
45.8800 15.2767 0.2559
45.9000 15.2834 0.2511
45.9200 15.2900 0.2339
45.9400 15.2966 0.2543
45.9600 15.3032 0.2518
45.9800 15.3099 0.2430
46.0000 15.3166 0.2508
46.0200 15.3233 0.2400
46.0400 15.3300 0.2448
46.0600 15.3367 0.2646
46.0800 15.3434 0.2375
46.1000 15.3500 0.2346
46.1200 15.3566 0.2686
46.1400 15.3632 0.2394
46.1600 15.3699 0.2379
46.1800 15.3767 0.2589
46.2000 15.3834 0.2442
46.2200 15.3900 0.2396
46.2400 15.3967 0.2498
46.2600 15.4034 0.2414
46.2800 15.4100 0.2482
46.3000 15.4166 0.2519
46.3200 15.4232 0.2384
46.3400 15.4299 0.2450
46.3600 15.4366 0.2634
46.3800 15.4433 0.2391
46.4000 15.4500 0.2357
46.4200 15.4567 0.2523
46.4400 15.4634 0.2486
46.4600 15.4700 0.2354
46.4800 15.4766 0.2433
46.5000 15.4832 0.2520
46.5200 15.4898 0.2443
46.5400 15.4966 0.2401
46.5600 15.5033 0.2401
46.5800 15.5099 0.2463
46.6000 15.5166 0.2517
46.6200 15.5233 0.2404
46.6400 15.5300 0.2368
46.6600 15.5366 0.2591
46.6800 15.5432 0.2464
46.7000 15.5499 0.2300
46.7200 15.5566 0.2511
46.7400 15.5633 0.2484
46.7600 15.5700 0.2357
46.7800 15.5767 0.2505
46.8000 15.5834 0.2384
46.8200 15.5900 0.2378
46.8400 15.5966 0.2541
46.8600 15.6033 0.2398
46.8800 15.6099 0.2371
46.9000 15.6166 0.2463
46.9200 15.6233 0.2387
46.9400 15.6300 0.2441
46.9600 15.6367 0.2395
46.9800 15.6434 0.2441
47.0000 15.6500 0.2400
47.0200 15.6566 0.2393
47.0400 15.6632 0.2456
47.0600 15.6699 0.2434
47.0800 15.6766 0.2384
47.1000 15.6833 0.2446
47.1200 15.6900 0.2384
47.1400 15.6967 0.2391
47.1600 15.7033 0.2500
47.1800 15.7100 0.2323
47.2000 15.7166 0.2396
47.2200 15.7232 0.2504
47.2400 15.7299 0.2344
47.2600 15.7366 0.2415
47.2800 15.7433 0.2480
47.3000 15.7500 0.2342
47.3200 15.7566 0.2403
47.3400 15.7633 0.2436
47.3600 15.7700 0.2320
47.3800 15.7766 0.2404
47.4000 15.7832 0.2487
47.4200 15.7899 0.2311
47.4400 15.7966 0.2409
47.4600 15.8033 0.2473
47.4800 15.8100 0.2349
47.5000 15.8167 0.2389
47.5200 15.8234 0.2437
47.5400 15.8300 0.2329
47.5600 15.8366 0.2406
47.5800 15.8432 0.2436
47.6000 15.8499 0.2395
47.6200 15.8566 0.2362
47.6400 15.8633 0.2430
47.6600 15.8700 0.2385
47.6800 15.8767 0.2357
47.7000 15.8834 0.2388
47.7200 15.8900 0.2391
47.7400 15.8966 0.2360
47.7600 15.9032 0.2388
47.7800 15.9099 0.2430
47.8000 15.9166 0.2297
47.8200 15.9233 0.2388
47.8400 15.9300 0.2376
47.8600 15.9367 0.2332
47.8800 15.9433 0.2427
47.9000 15.9500 0.2348
47.9200 15.9566 0.2273
47.9400 15.9632 0.2413
47.9600 15.9699 0.2417
47.9800 15.9766 0.2317
48.0000 15.9833 0.2367
48.0200 15.9900 0.2409
48.0400 15.9967 0.2302
48.0600 16.0033 0.2397
48.0800 16.0100 0.2371
48.1000 16.0166 0.2288
48.1200 16.0232 0.2456
48.1400 16.0299 0.2360
48.1600 16.0366 0.2256
48.1800 16.0433 0.2418
48.2000 16.0500 0.2361
48.2200 16.0567 0.2304
48.2400 16.0634 0.2380
48.2600 16.0700 0.2411
48.2800 16.0766 0.2276
48.3000 16.0832 0.2403
48.3200 16.0899 0.2358
48.3400 16.0966 0.2288
48.3600 16.1033 0.2388
48.3800 16.1100 0.2326
48.4000 16.1167 0.2330
48.4200 16.1234 0.2361
48.4400 16.1300 0.2300
48.4600 16.1366 0.2332
48.4800 16.1432 0.2355
48.5000 16.1498 0.2317
48.5200 16.1565 0.2340
48.5400 16.1633 0.2282
48.5600 16.1700 0.2337
48.5800 16.1767 0.2322
48.6000 16.1833 0.2321
48.6200 16.1900 0.2295
48.6400 16.1966 0.2306
48.6600 16.2032 0.2314
48.6800 16.2099 0.2327
48.7000 16.2166 0.2329
48.7200 16.2233 0.2286
48.7400 16.2300 0.2350
48.7600 16.2366 0.2294
48.7800 16.2433 0.2243
48.8000 16.2500 0.2368
48.8200 16.2566 0.2259
48.8400 16.2632 0.2295
48.8600 16.2699 0.2337
48.8800 16.2766 0.2261
48.9000 16.2833 0.2307
48.9200 16.2900 0.2352
48.9400 16.2967 0.2278
48.9600 16.3034 0.2292
48.9800 16.3100 0.2346
49.0000 16.3166 0.2268
49.0200 16.3232 0.2306
49.0400 16.3299 0.2373
49.0600 16.3366 0.2301
49.0800 16.3433 0.2243
49.1000 16.3500 0.2327
49.1200 16.3567 0.2299
49.1400 16.3634 0.2310
49.1600 16.3700 0.2324
49.1800 16.3766 0.2263
49.2000 16.3832 0.2257
49.2200 16.3899 0.2383
49.2400 16.3966 0.2299
49.2600 16.4033 0.2250
49.2800 16.4099 0.2364
49.3000 16.4166 0.2301
49.3200 16.4233 0.2303
49.3400 16.4300 0.2330
49.3600 16.4366 0.2249
49.3800 16.4432 0.2344
49.4000 16.4499 0.2347
49.4200 16.4565 0.2231
49.4400 16.4632 0.2298
49.4600 16.4699 0.2367
49.4800 16.4767 0.2211
49.5000 16.4834 0.2282
49.5200 16.4900 0.2310
49.5400 16.4967 0.2228
49.5600 16.5032 0.2296
49.5800 16.5099 0.2300
49.6000 16.5166 0.2260
49.6200 16.5233 0.2278
49.6400 16.5300 0.2306
49.6600 16.5367 0.2234
49.6800 16.5434 0.2263
49.7000 16.5500 0.2326
49.7200 16.5566 0.2211
49.7400 16.5632 0.2270
49.7600 16.5699 0.2298
49.7800 16.5766 0.2261
49.8000 16.5833 0.2278
49.8200 16.5900 0.2261
49.8400 16.5967 0.2282
49.8600 16.6034 0.2194
49.8800 16.6100 0.2277
49.9000 16.6167 0.2281
49.9200 16.6233 0.2228
49.9400 16.6299 0.2261
49.9600 16.6366 0.2265
49.9800 16.6433 0.2223
50.0000 16.6500 0.2263
50.0200 16.6567 0.2254
50.0400 16.6634 0.2216
50.0600 16.6701 0.2229
50.0800 16.6767 0.2257
50.1000 16.6832 0.2204
50.1200 16.6898 0.2290
50.1400 16.6965 0.2259
50.1600 16.7033 0.2161
50.1800 16.7100 0.2307
50.2000 16.7167 0.2257
50.2200 16.7233 0.2134
50.2400 16.7300 0.2259
50.2600 16.7366 0.2313
50.2800 16.7432 0.2141
50.3000 16.7499 0.2280
50.3200 16.7566 0.2267
50.3400 16.7633 0.2113
50.3600 16.7700 0.2266
50.3800 16.7767 0.2330
50.4000 16.7833 0.2122
50.4200 16.7900 0.2266
50.4400 16.7967 0.2275
50.4600 16.8033 0.2164
50.4800 16.8099 0.2249
50.5000 16.8166 0.2272
50.5200 16.8233 0.2147
50.5400 16.8300 0.2265
50.5600 16.8367 0.2245
50.5800 16.8434 0.2191
50.6000 16.8500 0.2199
50.6200 16.8567 0.2274
50.6400 16.8633 0.2166
50.6600 16.8699 0.2238
50.6800 16.8766 0.2260
50.7000 16.8833 0.2097
50.7200 16.8900 0.2256
50.7400 16.8967 0.2302
50.7600 16.9033 0.2127
50.7800 16.9100 0.2274
50.8000 16.9166 0.2270
50.8200 16.9232 0.2102
50.8400 16.9299 0.2247
50.8600 16.9366 0.2275
50.8800 16.9433 0.2115
50.9000 16.9499 0.2202
50.9200 16.9566 0.2266
50.9400 16.9633 0.2197
50.9600 16.9699 0.2235
50.9800 16.9766 0.2201
51.0000 16.9832 0.2193
51.0200 16.9898 0.2223
51.0400 16.9965 0.2223
51.0600 17.0033 0.2182
51.0800 17.0100 0.2222
51.1000 17.0167 0.2192
51.1200 17.0234 0.2185
51.1400 17.0301 0.2190
51.1600 17.0367 0.2219
51.1800 17.0433 0.2158
51.2000 17.0499 0.2201
51.2200 17.0566 0.2224
51.2400 17.0633 0.2139
51.2600 17.0700 0.2200
51.2800 17.0767 0.2251
51.3000 17.0833 0.2148
51.3200 17.0900 0.2203
51.3400 17.0966 0.2240
51.3600 17.1033 0.2146
51.3800 17.1099 0.2195
51.4000 17.1165 0.2274
51.4200 17.1232 0.2084
51.4400 17.1300 0.2243
51.4600 17.1366 0.2239
51.4800 17.1433 0.2119
51.5000 17.1500 0.2239
51.5200 17.1567 0.2203
51.5400 17.1633 0.2097
51.5600 17.1699 0.2263
51.5800 17.1765 0.2229
51.6000 17.1833 0.2135
51.6200 17.1900 0.2283
51.6400 17.1967 0.2145
51.6600 17.2033 0.2105
51.6800 17.2100 0.2297
51.7000 17.2167 0.2154
51.7200 17.2232 0.2099
51.7400 17.2299 0.2286
51.7600 17.2365 0.2136
51.7800 17.2433 0.2183
51.8000 17.2500 0.2209
51.8200 17.2566 0.2155
51.8400 17.2633 0.2210
51.8600 17.2700 0.2208
51.8800 17.2767 0.2094
51.9000 17.2833 0.2231
51.9200 17.2899 0.2189
51.9400 17.2966 0.2120
51.9600 17.3033 0.2188
51.9800 17.3100 0.2150
52.0000 17.3167 0.2156
52.0200 17.3234 0.2164
52.0400 17.3301 0.2112
52.0600 17.3367 0.2170
52.0800 17.3433 0.2166
52.1000 17.3499 0.2135
52.1200 17.3565 0.2179
52.1400 17.3632 0.2142
52.1600 17.3700 0.2125
52.1800 17.3766 0.2131
52.2000 17.3833 0.2188
52.2200 17.3900 0.2124
52.2400 17.3967 0.2118
52.2600 17.4033 0.2147
52.2800 17.4099 0.2158
52.3000 17.4165 0.2156
52.3200 17.4232 0.2126
52.3400 17.4299 0.2129
52.3600 17.4366 0.2146
52.3800 17.4433 0.2185
52.4000 17.4500 0.2117
52.4200 17.4566 0.2122
52.4400 17.4633 0.2208
52.4600 17.4699 0.2070
52.4800 17.4766 0.2173
52.5000 17.4833 0.2119
52.5200 17.4900 0.2089
52.5400 17.4967 0.2127
52.5600 17.5034 0.2139
52.5800 17.5101 0.2098
52.6000 17.5167 0.2138
52.6200 17.5233 0.2143
52.6400 17.5299 0.2049
52.6600 17.5365 0.2170
52.6800 17.5433 0.2151
52.7000 17.5500 0.2030
52.7200 17.5567 0.2143
52.7400 17.5634 0.2134
52.7600 17.5700 0.2082
52.7800 17.5767 0.2145
52.8000 17.5833 0.2102
52.8200 17.5899 0.2095
52.8400 17.5965 0.2123
52.8600 17.6033 0.2114
52.8800 17.6100 0.2078
52.9000 17.6166 0.2141
52.9200 17.6233 0.2099
52.9400 17.6300 0.2118
52.9600 17.6367 0.2105
52.9800 17.6433 0.2139
53.0000 17.6499 0.2050
53.0200 17.6566 0.2169
53.0400 17.6632 0.2141
53.0600 17.6700 0.2081
53.0800 17.6766 0.2135
53.1000 17.6833 0.2131
53.1200 17.6900 0.2069
53.1400 17.6966 0.2127
53.1600 17.7033 0.2113
53.1800 17.7099 0.2121
53.2000 17.7165 0.2120
53.2200 17.7233 0.2154
53.2400 17.7300 0.2038
53.2600 17.7367 0.2093
53.2800 17.7434 0.2175
53.3000 17.7500 0.2008
53.3200 17.7567 0.2109
53.3400 17.7633 0.2181
53.3600 17.7699 0.2048
53.3800 17.7765 0.2143
53.4000 17.7833 0.2152
53.4200 17.7900 0.2047
53.4400 17.7967 0.2126
53.4600 17.8034 0.2146
53.4800 17.8100 0.2031
53.5000 17.8167 0.2097
53.5200 17.8233 0.2180
53.5400 17.8299 0.2066
53.5600 17.8365 0.2104
53.5800 17.8432 0.2103
53.6000 17.8499 0.2034
53.6200 17.8566 0.2095
53.6400 17.8633 0.2111
53.6600 17.8700 0.2050
53.6800 17.8767 0.2092
53.7000 17.8833 0.2074
53.7200 17.8899 0.2106
53.7400 17.8965 0.2084
53.7600 17.9032 0.2082
53.7800 17.9099 0.2079
53.8000 17.9166 0.2084
53.8200 17.9233 0.2059
53.8400 17.9300 0.2075
53.8600 17.9367 0.2037
53.8800 17.9433 0.2109
53.9000 17.9499 0.2087
53.9200 17.9566 0.2026
53.9400 17.9633 0.2114
53.9600 17.9700 0.2103
53.9800 17.9767 0.2022
54.0000 17.9833 0.2137
54.0200 17.9900 0.2079
54.0400 17.9967 0.1953
54.0600 18.0033 0.2129
54.0800 18.0099 0.2035
54.1000 18.0165 0.1987
54.1200 18.0232 0.2124
54.1400 18.0299 0.2030
54.1600 18.0366 0.1976
54.1800 18.0433 0.2168
54.2000 18.0500 0.1979
54.2200 18.0567 0.1997
54.2400 18.0633 0.2121
54.2600 18.0699 0.1983
54.2800 18.0766 0.2031
54.3000 18.0833 0.2124
54.3200 18.0900 0.1960
54.3400 18.0967 0.2017
54.3600 18.1033 0.2116
54.3800 18.1100 0.2006
54.4000 18.1167 0.2007
54.4200 18.1233 0.2094
54.4400 18.1299 0.1954
54.4600 18.1365 0.2045
54.4800 18.1432 0.2068
54.5000 18.1499 0.1984
54.5200 18.1566 0.2011
54.5400 18.1633 0.2103
54.5600 18.1700 0.1982
54.5800 18.1766 0.1982
54.6000 18.1833 0.2095
54.6200 18.1899 0.2008
54.6400 18.1965 0.2015
54.6600 18.2032 0.2092
54.6800 18.2099 0.1983
54.7000 18.2167 0.1935
54.7200 18.2234 0.2075
54.7400 18.2301 0.2000
54.7600 18.2367 0.1919
54.7800 18.2434 0.2048
54.8000 18.2499 0.2000
54.8200 18.2566 0.1962
54.8400 18.2633 0.2088
54.8600 18.2700 0.2043
54.8800 18.2767 0.1936
54.9000 18.2834 0.2042
54.9200 18.2900 0.2037
54.9400 18.2967 0.1917
54.9600 18.3033 0.2068
54.9800 18.3099 0.1967
55.0000 18.3165 0.1989
55.0200 18.3232 0.2049
55.0400 18.3299 0.1931
55.0600 18.3366 0.1980
55.0800 18.3433 0.2080
55.1000 18.3500 0.1933
55.1200 18.3567 0.1942
55.1400 18.3633 0.2025
55.1600 18.3699 0.1960
55.1800 18.3765 0.1956
55.2000 18.3832 0.2091
55.2200 18.3899 0.1909
55.2400 18.3966 0.1944
55.2600 18.4033 0.2024
55.2800 18.4100 0.1928
55.3000 18.4167 0.1995
55.3200 18.4233 0.1964
55.3400 18.4299 0.1979
55.3600 18.4365 0.1956
55.3800 18.4432 0.1956
55.4000 18.4500 0.1989
55.4200 18.4567 0.1986
55.4400 18.4634 0.1944
55.4600 18.4700 0.1965
55.4800 18.4767 0.1961
55.5000 18.4834 0.1914
55.5200 18.4900 0.1973
55.5400 18.4966 0.2011
55.5600 18.5033 0.1912
55.5800 18.5100 0.1978
55.6000 18.5166 0.1894
55.6200 18.5233 0.1973
55.6400 18.5300 0.1991
55.6600 18.5367 0.1894
55.6800 18.5434 0.1922
55.7000 18.5499 0.1998
55.7200 18.5565 0.1868
55.7400 18.5632 0.1952
55.7600 18.5699 0.2029
55.7800 18.5766 0.1846
55.8000 18.5833 0.1920
55.8200 18.5900 0.2025
55.8400 18.5967 0.1779
55.8600 18.6033 0.1985
55.8800 18.6099 0.1995
55.9000 18.6165 0.1748
55.9200 18.6232 0.2045
55.9400 18.6299 0.1965
55.9600 18.6366 0.1773
55.9800 18.6433 0.2002
56.0000 18.6500 0.1959
56.0200 18.6567 0.1772
56.0400 18.6633 0.1976
56.0600 18.6700 0.1904
56.0800 18.6766 0.1831
56.1000 18.6832 0.2005
56.1200 18.6899 0.1873
56.1400 18.6966 0.1832
56.1600 18.7033 0.2011
56.1800 18.7100 0.1848
56.2000 18.7167 0.1832
56.2200 18.7234 0.1966
56.2400 18.7299 0.1857
56.2600 18.7366 0.1838
56.2800 18.7432 0.1971
56.3000 18.7499 0.1843
56.3200 18.7567 0.1867
56.3400 18.7634 0.1923
56.3600 18.7700 0.1856
56.3800 18.7767 0.1883
56.4000 18.7833 0.1880
56.4200 18.7899 0.1835
56.4400 18.7966 0.1949
56.4600 18.8032 0.1880
56.4800 18.8100 0.1838
56.5000 18.8167 0.1894
56.5200 18.8233 0.1850
56.5400 18.8300 0.1869
56.5600 18.8366 0.1907
56.5800 18.8433 0.1845
56.6000 18.8499 0.1852
56.6200 18.8565 0.1943
56.6400 18.8632 0.1836
56.6600 18.8699 0.1867
56.6800 18.8766 0.1881
56.7000 18.8833 0.1835
56.7200 18.8900 0.1901
56.7400 18.8967 0.1881
56.7600 18.9033 0.1813
56.7800 18.9099 0.1947
56.8000 18.9166 0.1870
56.8200 18.9232 0.1812
56.8400 18.9299 0.1868
56.8600 18.9367 0.1901
56.8800 18.9434 0.1833
56.9000 18.9501 0.1927
56.9200 18.9567 0.1809
56.9400 18.9634 0.1854
56.9600 18.9699 0.1885
56.9800 18.9765 0.1824
57.0000 18.9832 0.1884
57.0200 18.9900 0.1878
57.0400 18.9967 0.1826
57.0600 19.0033 0.1875
57.0800 19.0100 0.1899
57.1000 19.0167 0.1873
57.1200 19.0233 0.1858
57.1400 19.0299 0.1852
57.1600 19.0365 0.1885
57.1800 19.0432 0.1841
57.2000 19.0499 0.1863
57.2200 19.0566 0.1878
57.2400 19.0633 0.1823
57.2600 19.0700 0.1839
57.2800 19.0767 0.1914
57.3000 19.0833 0.1805
57.3200 19.0899 0.1795
57.3400 19.0965 0.1952
57.3600 19.1032 0.1814
57.3800 19.1099 0.1784
57.4000 19.1166 0.1919
57.4200 19.1233 0.1798
57.4400 19.1300 0.1832
57.4600 19.1367 0.1909
57.4800 19.1433 0.1740
57.5000 19.1499 0.1831
57.5200 19.1566 0.1922
57.5400 19.1632 0.1755
57.5600 19.1699 0.1877
57.5800 19.1767 0.1854
57.6000 19.1833 0.1766
57.6200 19.1900 0.1811
57.6400 19.1967 0.1916
57.6600 19.2034 0.1746
57.6800 19.2100 0.1808
57.7000 19.2166 0.1920
57.7200 19.2232 0.1760
57.7400 19.2299 0.1809
57.7600 19.2367 0.1843
57.7800 19.2434 0.1811
57.8000 19.2500 0.1794
57.8200 19.2567 0.1785
57.8400 19.2634 0.1820
57.8600 19.2700 0.1776
57.8800 19.2766 0.1814
57.9000 19.2832 0.1809
57.9200 19.2899 0.1780
57.9400 19.2966 0.1844
57.9600 19.3033 0.1776
57.9800 19.3099 0.1766
58.0000 19.3166 0.1800
58.0200 19.3233 0.1791
58.0400 19.3299 0.1717
58.0600 19.3365 0.1869
58.0800 19.3432 0.1758
58.1000 19.3499 0.1741
58.1200 19.3566 0.1857
58.1400 19.3633 0.1725
58.1600 19.3699 0.1785
58.1800 19.3766 0.1818
58.2000 19.3833 0.1689
58.2200 19.3900 0.1800
58.2400 19.3966 0.1798
58.2600 19.4032 0.1715
58.2800 19.4099 0.1783
58.3000 19.4166 0.1858
58.3200 19.4233 0.1684
58.3400 19.4300 0.1759
58.3600 19.4367 0.1841
58.3800 19.4434 0.1672
58.4000 19.4500 0.1778
58.4200 19.4566 0.1815
58.4400 19.4632 0.1714
58.4600 19.4699 0.1786
58.4800 19.4766 0.1770
58.5000 19.4833 0.1702
58.5200 19.4900 0.1787
58.5400 19.4967 0.1806
58.5600 19.5033 0.1702
58.5800 19.5100 0.1754
58.6000 19.5166 0.1766
58.6200 19.5232 0.1721
58.6400 19.5299 0.1793
58.6600 19.5366 0.1692
58.6800 19.5433 0.1762
58.7000 19.5500 0.1763
58.7200 19.5567 0.1721
58.7400 19.5633 0.1734
58.7600 19.5700 0.1699
58.7800 19.5766 0.1777
58.8000 19.5832 0.1775
58.8200 19.5899 0.1667
58.8400 19.5966 0.1716
58.8600 19.6033 0.1749
58.8800 19.6100 0.1672
58.9000 19.6166 0.1716
58.9200 19.6233 0.1714
58.9400 19.6299 0.1640
58.9600 19.6365 0.1792
58.9800 19.6432 0.1658
59.0000 19.6499 0.1656
59.0200 19.6566 0.1780
59.0400 19.6633 0.1638
59.0600 19.6700 0.1642
59.0800 19.6767 0.1719
59.1000 19.6834 0.1650
59.1200 19.6900 0.1672
59.1400 19.6966 0.1695
59.1600 19.7033 0.1648
59.1800 19.7099 0.1702
59.2000 19.7167 0.1709
59.2200 19.7233 0.1625
59.2400 19.7300 0.1684
59.2600 19.7367 0.1686
59.2800 19.7433 0.1634
59.3000 19.7499 0.1581
59.3010 19.7502 0.1569
