Raw Data
Time Displacement Force
(s) (mm) (N)
0.0000 0.0000 0.3393
0.0200 0.0000 0.3581
0.0400 0.0008 0.3793
0.0600 0.0040 0.3819
0.0800 0.0094 0.3595
0.1000 0.0152 0.3453
0.1200 0.0210 0.3702
0.1400 0.0277 0.3660
0.1600 0.0350 0.3507
0.1800 0.0425 0.3569
0.2000 0.0496 0.3549
0.2200 0.0565 0.3562
0.2400 0.0632 0.3608
0.2600 0.0699 0.3626
0.2800 0.0765 0.3654
0.3000 0.0832 0.3609
0.3200 0.0900 0.3598
0.3400 0.0967 0.3725
0.3600 0.1034 0.3683
0.3800 0.1100 0.3571
0.4000 0.1166 0.3753
0.4200 0.1233 0.3754
0.4400 0.1300 0.3665
0.4600 0.1367 0.3714
0.4800 0.1434 0.3762
0.5000 0.1501 0.3769
0.5200 0.1568 0.3728
0.5400 0.1634 0.3668
0.5600 0.1700 0.3909
0.5800 0.1766 0.3921
0.6000 0.1833 0.3605
0.6200 0.1900 0.3889
0.6400 0.1967 0.3992
0.6600 0.2034 0.3622
0.6800 0.2101 0.3930
0.7000 0.2167 0.4072
0.7200 0.2234 0.3710
0.7400 0.2300 0.3900
0.7600 0.2366 0.4140
0.7800 0.2433 0.3844
0.8000 0.2500 0.3905
0.8200 0.2567 0.4138
0.8400 0.2633 0.3939
0.8600 0.2700 0.3970
0.8800 0.2767 0.4030
0.9000 0.2834 0.3932
0.9200 0.2899 0.4212
0.9400 0.2966 0.4154
0.9600 0.3032 0.3950
0.9800 0.3099 0.4103
1.0000 0.3166 0.4039
1.0200 0.3233 0.4105
1.0400 0.3300 0.4336
1.0600 0.3367 0.4152
1.0800 0.3433 0.3853
1.1000 0.3500 0.4116
1.1200 0.3566 0.4249
1.1400 0.3633 0.4170
1.1600 0.3700 0.4239
1.1800 0.3767 0.4086
1.2000 0.3834 0.3954
1.2200 0.3901 0.4262
1.2400 0.3968 0.4255
1.2600 0.4034 0.4159
1.2800 0.4100 0.4063
1.3000 0.4167 0.4205
1.3200 0.4233 0.4132
1.3400 0.4300 0.4038
1.3600 0.4367 0.4212
1.3800 0.4434 0.4269
1.4000 0.4501 0.4115
1.4200 0.4567 0.4044
1.4400 0.4634 0.4184
1.4600 0.4700 0.4139
1.4800 0.4766 0.4156
1.5000 0.4832 0.4212
1.5200 0.4899 0.4134
1.5400 0.4966 0.4093
1.5600 0.5033 0.4056
1.5800 0.5100 0.4144
1.6000 0.5167 0.4230
1.6200 0.5233 0.4086
1.6400 0.5299 0.4042
1.6600 0.5366 0.4054
1.6800 0.5433 0.4135
1.7000 0.5500 0.4140
1.7200 0.5567 0.4142
1.7400 0.5634 0.4024
1.7600 0.5700 0.4054
1.7800 0.5767 0.4030
1.8000 0.5834 0.4058
1.8200 0.5900 0.4108
1.8400 0.5966 0.4077
1.8600 0.6033 0.4014
1.8800 0.6100 0.4075
1.9000 0.6167 0.3983
1.9200 0.6234 0.4088
1.9400 0.6301 0.4123
1.9600 0.6367 0.3927
1.9800 0.6434 0.3990
2.0000 0.6500 0.4165
2.0200 0.6566 0.4012
2.0400 0.6633 0.4016
2.0600 0.6700 0.4114
2.0800 0.6767 0.3979
2.1000 0.6834 0.4042
2.1200 0.6901 0.4052
2.1400 0.6967 0.3991
2.1600 0.7034 0.4068
2.1800 0.7100 0.4052
2.2000 0.7166 0.3989
2.2200 0.7233 0.4062
2.2400 0.7300 0.3999
2.2600 0.7367 0.4031
2.2800 0.7434 0.4057
2.3000 0.7500 0.3982
2.3200 0.7567 0.3994
2.3400 0.7634 0.4125
2.3600 0.7700 0.3960
2.3800 0.7766 0.3992
2.4000 0.7833 0.4119
2.4200 0.7899 0.3986
2.4400 0.7966 0.3956
2.4600 0.8033 0.4149
2.4800 0.8100 0.4027
2.5000 0.8167 0.3926
2.5200 0.8234 0.4089
2.5400 0.8300 0.4044
2.5600 0.8366 0.4006
2.5800 0.8433 0.4127
2.6000 0.8500 0.3936
2.6200 0.8567 0.4031
2.6400 0.8634 0.4167
2.6600 0.8701 0.3982
2.6800 0.8767 0.3998
2.7000 0.8834 0.4057
2.7200 0.8900 0.4041
2.7400 0.8966 0.4028
2.7600 0.9033 0.4096
2.7800 0.9100 0.4080
2.8000 0.9167 0.4004
2.8200 0.9234 0.4106
2.8400 0.9301 0.4117
2.8600 0.9368 0.4011
2.8800 0.9434 0.4040
2.9000 0.9500 0.4089
2.9200 0.9566 0.4033
2.9400 0.9633 0.4047
2.9600 0.9700 0.4142
2.9800 0.9767 0.4001
3.0000 0.9834 0.4086
3.0200 0.9900 0.4125
3.0400 0.9967 0.4042
3.0600 1.0034 0.4046
3.0800 1.0100 0.4086
3.1000 1.0165 0.4000
3.1200 1.0232 0.4105
3.1400 1.0299 0.4058
3.1600 1.0367 0.3989
3.1800 1.0434 0.4094
3.2000 1.0500 0.4075
3.2200 1.0567 0.4025
3.2400 1.0634 0.4050
3.2600 1.0700 0.4064
3.2800 1.0766 0.4091
3.3000 1.0833 0.4020
3.3200 1.0900 0.4021
3.3400 1.0967 0.4100
3.3600 1.1034 0.4000
3.3800 1.1101 0.4084
3.4000 1.1168 0.4082
3.4200 1.1235 0.3960
3.4400 1.1301 0.4054
3.4600 1.1367 0.4106
3.4800 1.1433 0.3998
3.5000 1.1500 0.4094
3.5200 1.1567 0.4030
3.5400 1.1634 0.3989
3.5600 1.1701 0.4163
3.5800 1.1767 0.4010
3.6000 1.1834 0.3901
3.6200 1.1900 0.4224
3.6400 1.1966 0.4021
3.6600 1.2033 0.3950
3.6800 1.2100 0.4204
3.7000 1.2167 0.4022
3.7200 1.2234 0.3898
3.7400 1.2300 0.4192
3.7600 1.2367 0.4082
3.7800 1.2434 0.3977
3.8000 1.2500 0.4149
3.8200 1.2566 0.3999
3.8400 1.2633 0.4051
3.8600 1.2700 0.4207
3.8800 1.2767 0.3924
3.9000 1.2833 0.3977
3.9200 1.2900 0.4289
3.9400 1.2967 0.3962
3.9600 1.3034 0.3906
3.9800 1.3100 0.4236
4.0000 1.3166 0.4076
4.0200 1.3233 0.4007
4.0400 1.3300 0.4204
4.0600 1.3367 0.4075
4.0800 1.3434 0.4046
4.1000 1.3500 0.4017
4.1200 1.3567 0.4115
4.1400 1.3634 0.4212
4.1600 1.3700 0.4035
4.1800 1.3766 0.3981
4.2000 1.3833 0.4195
4.2200 1.3900 0.4077
4.2400 1.3967 0.4044
4.2600 1.4034 0.4179
4.2800 1.4101 0.4078
4.3000 1.4168 0.4035
4.3200 1.4234 0.4105
4.3400 1.4300 0.4102
4.3600 1.4366 0.4128
4.3800 1.4433 0.4114
4.4000 1.4500 0.4055
4.4200 1.4567 0.4057
4.4400 1.4633 0.4152
4.4600 1.4700 0.4108
4.4800 1.4767 0.4063
4.5000 1.4834 0.4139
4.5200 1.4900 0.4093
4.5400 1.4966 0.4120
4.5600 1.5032 0.4146
4.5800 1.5099 0.4137
4.6000 1.5167 0.4065
4.6200 1.5234 0.4144
4.6400 1.5300 0.4129
4.6600 1.5367 0.4054
4.6800 1.5434 0.4125
4.7000 1.5500 0.4143
4.7200 1.5566 0.4015
4.7400 1.5633 0.4144
4.7600 1.5700 0.4176
4.7800 1.5767 0.4011
4.8000 1.5834 0.4123
4.8200 1.5901 0.4150
4.8400 1.5968 0.4040
4.8600 1.6034 0.4134
4.8800 1.6100 0.4115
4.9000 1.6166 0.4042
4.9200 1.6232 0.4123
4.9400 1.6299 0.4137
4.9600 1.6367 0.4037
4.9800 1.6434 0.4100
5.0000 1.6501 0.4135
5.0200 1.6567 0.4032
5.0400 1.6634 0.4040
5.0600 1.6701 0.4161
5.0800 1.6766 0.4042
5.1000 1.6832 0.4109
5.1200 1.6899 0.4145
5.1400 1.6966 0.4011
5.1600 1.7033 0.4121
5.1800 1.7100 0.4152
5.2000 1.7167 0.4047
5.2200 1.7234 0.4075
5.2400 1.7300 0.4167
5.2600 1.7366 0.4025
5.2800 1.7432 0.4072
5.3000 1.7499 0.4146
5.3200 1.7566 0.4052
5.3400 1.7633 0.4049
5.3600 1.7700 0.4133
5.3800 1.7767 0.4057
5.4000 1.7834 0.4048
5.4200 1.7900 0.4108
5.4400 1.7966 0.4080
5.4600 1.8033 0.4069
5.4800 1.8100 0.4149
5.5000 1.8167 0.4020
5.5200 1.8234 0.4051
5.5400 1.8301 0.4113
5.5600 1.8368 0.4100
5.5800 1.8434 0.4089
5.6000 1.8501 0.4044
5.6200 1.8567 0.4080
5.6400 1.8633 0.4050
5.6600 1.8700 0.4082
5.6800 1.8767 0.4036
5.7000 1.8834 0.4000
5.7200 1.8901 0.4127
5.7400 1.8967 0.4048
5.7600 1.9034 0.3968
5.7800 1.9100 0.4113
5.8000 1.9166 0.4066
5.8200 1.9233 0.4015
5.8400 1.9299 0.4082
5.8600 1.9367 0.4069
5.8800 1.9433 0.3975
5.9000 1.9500 0.4125
5.9200 1.9567 0.4116
5.9400 1.9634 0.3961
5.9600 1.9700 0.4077
5.9800 1.9766 0.4150
6.0000 1.9833 0.3957
6.0200 1.9899 0.4034
6.0400 1.9966 0.4090
6.0600 2.0033 0.4008
6.0800 2.0100 0.4070
6.1000 2.0167 0.4088
6.1200 2.0234 0.3980
6.1400 2.0301 0.4122
6.1600 2.0367 0.4040
6.1800 2.0433 0.3946
6.2000 2.0499 0.4152
6.2200 2.0567 0.4022
6.2400 2.0634 0.3969
6.2600 2.0701 0.4088
6.2800 2.0767 0.4095
6.3000 2.0834 0.3971
6.3200 2.0900 0.4085
6.3400 2.0966 0.4037
6.3600 2.1033 0.3971
6.3800 2.1099 0.4134
6.4000 2.1167 0.4017
6.4200 2.1234 0.3916
6.4400 2.1301 0.4148
6.4600 2.1367 0.3994
6.4800 2.1434 0.3973
6.5000 2.1501 0.4139
6.5200 2.1567 0.4000
6.5400 2.1633 0.3941
6.5600 2.1700 0.4158
6.5800 2.1767 0.4016
6.6000 2.1834 0.3963
6.6200 2.1900 0.4106
6.6400 2.1967 0.4019
6.6600 2.2034 0.3981
6.6800 2.2101 0.4101
6.7000 2.2167 0.3993
6.7200 2.2232 0.3977
6.7400 2.2299 0.4065
6.7600 2.2366 0.4064
6.7800 2.2433 0.4030
6.8000 2.2500 0.3966
6.8200 2.2567 0.4061
6.8400 2.2634 0.4053
6.8600 2.2700 0.3957
6.8800 2.2767 0.4072
6.9000 2.2833 0.4035
6.9200 2.2899 0.3984
6.9400 2.2966 0.4073
6.9600 2.3033 0.3980
6.9800 2.3100 0.3995
7.0000 2.3167 0.4113
7.0200 2.3234 0.3970
7.0400 2.3301 0.3959
7.0600 2.3367 0.4090
7.0800 2.3433 0.3940
7.1000 2.3500 0.3993
7.1200 2.3566 0.4081
7.1400 2.3633 0.3937
7.1600 2.3700 0.3989
7.1800 2.3767 0.4076
7.2000 2.3834 0.3907
7.2200 2.3901 0.4014
7.2400 2.3967 0.4066
7.2600 2.4033 0.3906
7.2800 2.4099 0.4018
7.3000 2.4166 0.4090
7.3200 2.4234 0.3928
7.3400 2.4300 0.4035
7.3600 2.4367 0.4042
7.3800 2.4434 0.3957
7.4000 2.4500 0.4020
7.4200 2.4567 0.3970
7.4400 2.4633 0.4003
7.4600 2.4699 0.4013
7.4800 2.4766 0.3959
7.5000 2.4833 0.4015
7.5200 2.4900 0.4012
7.5400 2.4967 0.3970
7.5600 2.5034 0.4003
7.5800 2.5100 0.3975
7.6000 2.5167 0.3970
7.6200 2.5233 0.4001
7.6400 2.5300 0.3993
7.6600 2.5367 0.3948
7.6800 2.5434 0.3997
7.7000 2.5501 0.3973
7.7200 2.5567 0.3983
7.7400 2.5634 0.3963
7.7600 2.5701 0.3950
7.7800 2.5767 0.4034
7.8000 2.5833 0.3992
7.8200 2.5900 0.3966
7.8400 2.5967 0.4015
7.8600 2.6034 0.3958
7.8800 2.6101 0.3971
7.9000 2.6167 0.3995
7.9200 2.6234 0.3993
7.9400 2.6300 0.3957
7.9600 2.6367 0.3985
7.9800 2.6433 0.3995
8.0000 2.6499 0.3986
8.0200 2.6566 0.4052
8.0400 2.6633 0.3995
8.0600 2.6700 0.3938
8.0800 2.6767 0.4027
8.1000 2.6834 0.3996
8.1200 2.6900 0.3924
8.1400 2.6967 0.4045
8.1600 2.7032 0.4014
8.1800 2.7099 0.3934
8.2000 2.7166 0.4001
8.2200 2.7233 0.3975
8.2400 2.7300 0.3914
8.2600 2.7367 0.4003
8.2800 2.7434 0.3969
8.3000 2.7501 0.3897
8.3200 2.7567 0.3979
8.3400 2.7633 0.4034
8.3600 2.7699 0.3951
8.3800 2.7766 0.3975
8.4000 2.7833 0.3996
8.4200 2.7900 0.3954
8.4400 2.7967 0.3936
8.4600 2.8034 0.4013
8.4800 2.8101 0.3973
8.5000 2.8167 0.3953
8.5200 2.8233 0.3982
8.5400 2.8300 0.3953
8.5600 2.8367 0.3970
8.5800 2.8434 0.3992
8.6000 2.8501 0.3908
8.6200 2.8567 0.3985
8.6400 2.8634 0.4024
8.6600 2.8701 0.3893
8.6800 2.8767 0.3975
8.7000 2.8833 0.4035
8.7200 2.8899 0.3949
8.7400 2.8966 0.3991
8.7600 2.9033 0.3983
8.7800 2.9100 0.3953
8.8000 2.9167 0.3976
8.8200 2.9234 0.3974
8.8400 2.9300 0.3971
8.8600 2.9366 0.3988
8.8800 2.9432 0.4036
8.9000 2.9499 0.3910
8.9200 2.9566 0.3988
8.9400 2.9633 0.3993
8.9600 2.9700 0.3974
8.9800 2.9766 0.3983
9.0000 2.9833 0.3972
9.0200 2.9900 0.3936
9.0400 2.9967 0.3962
9.0600 3.0033 0.4027
9.0800 3.0100 0.3970
9.1000 3.0166 0.3936
9.1200 3.0234 0.4025
9.1400 3.0301 0.3920
9.1600 3.0367 0.3960
9.1800 3.0434 0.4042
9.2000 3.0501 0.3935
9.2200 3.0567 0.3948
9.2400 3.0633 0.4043
9.2600 3.0699 0.3941
9.2800 3.0766 0.3945
9.3000 3.0834 0.4051
9.3200 3.0901 0.3907
9.3400 3.0967 0.3954
9.3600 3.1034 0.4030
9.3800 3.1101 0.3906
9.4000 3.1167 0.3949
9.4200 3.1233 0.4046
9.4400 3.1299 0.3893
9.4600 3.1366 0.3980
9.4800 3.1433 0.4076
9.5000 3.1500 0.3864
9.5200 3.1567 0.3954
9.5400 3.1634 0.4084
9.5600 3.1701 0.3855
9.5800 3.1767 0.4004
9.6000 3.1833 0.4046
9.6200 3.1900 0.3909
9.6400 3.1966 0.3978
9.6600 3.2033 0.4070
9.6800 3.2100 0.3897
9.7000 3.2167 0.3973
9.7200 3.2233 0.4043
9.7400 3.2300 0.3923
9.7600 3.2366 0.3980
9.7800 3.2433 0.4028
9.8000 3.2499 0.3958
9.8200 3.2566 0.4011
9.8400 3.2634 0.4010
9.8600 3.2701 0.3924
9.8800 3.2768 0.3987
9.9000 3.2834 0.4000
9.9200 3.2901 0.3894
9.9400 3.2967 0.3974
9.9600 3.3033 0.4020
9.9800 3.3099 0.3925
10.0000 3.3166 0.3990
10.0200 3.3234 0.3988
10.0400 3.3301 0.3924
10.0600 3.3367 0.3953
10.0800 3.3434 0.4055
10.1000 3.3501 0.3905
10.1200 3.3567 0.3944
10.1400 3.3633 0.3995
10.1600 3.3699 0.3910
10.1800 3.3766 0.3946
10.2000 3.3833 0.4073
10.2200 3.3900 0.3907
10.2400 3.3967 0.3953
10.2600 3.4033 0.4025
10.2800 3.4100 0.3870
10.3000 3.4167 0.3954
10.3200 3.4233 0.4012
10.3400 3.4299 0.3925
10.3600 3.4366 0.3934
10.3800 3.4433 0.3964
10.4000 3.4500 0.3895
10.4200 3.4567 0.3929
10.4400 3.4634 0.4010
10.4600 3.4700 0.3897
10.4800 3.4767 0.3908
10.5000 3.4833 0.3951
10.5200 3.4900 0.3910
10.5400 3.4966 0.3982
10.5600 3.5033 0.3917
10.5800 3.5100 0.3945
10.6000 3.5167 0.3918
10.6200 3.5234 0.3946
10.6400 3.5301 0.3921
10.6600 3.5368 0.3922
10.6800 3.5434 0.3919
10.7000 3.5500 0.3990
10.7200 3.5566 0.3907
10.7400 3.5633 0.3911
10.7600 3.5700 0.3940
10.7800 3.5767 0.3927
10.8000 3.5834 0.3908
10.8200 3.5901 0.3946
10.8400 3.5967 0.3902
10.8600 3.6033 0.3927
10.8800 3.6099 0.3978
10.9000 3.6166 0.3911
10.9200 3.6233 0.3884
10.9400 3.6300 0.3935
10.9600 3.6367 0.3918
10.9800 3.6434 0.3903
11.0000 3.6501 0.3892
11.0200 3.6567 0.3926
11.0400 3.6633 0.3887
11.0600 3.6699 0.3940
11.0800 3.6766 0.3925
11.1000 3.6833 0.3949
11.1200 3.6900 0.3937
11.1400 3.6967 0.3870
11.1600 3.7033 0.3963
11.1800 3.7100 0.3923
11.2000 3.7167 0.3888
11.2200 3.7233 0.3933
11.2400 3.7299 0.4001
11.2600 3.7366 0.3881
11.2800 3.7433 0.3927
11.3000 3.7500 0.3936
11.3200 3.7568 0.3904
11.3400 3.7635 0.3922
11.3600 3.7701 0.3941
11.3800 3.7768 0.3882
11.4000 3.7833 0.3948
11.4200 3.7899 0.3943
11.4400 3.7966 0.3883
11.4600 3.8034 0.3919
11.4800 3.8101 0.3928
11.5000 3.8167 0.3907
11.5200 3.8234 0.3912
11.5400 3.8301 0.3922
11.5600 3.8367 0.3946
11.5800 3.8433 0.3878
11.6000 3.8499 0.3926
11.6200 3.8566 0.3919
11.6400 3.8633 0.3887
11.6600 3.8700 0.3961
11.6800 3.8767 0.3899
11.7000 3.8833 0.3888
11.7200 3.8900 0.3973
11.7400 3.8967 0.3880
11.7600 3.9033 0.3856
11.7800 3.9099 0.4007
11.8000 3.9166 0.3889
11.8200 3.9233 0.3835
11.8400 3.9300 0.3969
11.8600 3.9366 0.3889
11.8800 3.9433 0.3851
11.9000 3.9500 0.3988
11.9200 3.9567 0.3866
11.9400 3.9633 0.3872
11.9600 3.9699 0.3990
11.9800 3.9766 0.3879
12.0000 3.9833 0.3821
12.0200 3.9900 0.3963
12.0400 3.9967 0.3911
12.0600 4.0034 0.3823
12.0800 4.0101 0.3942
12.1000 4.0167 0.3905
12.1200 4.0234 0.3843
12.1400 4.0300 0.3949
12.1600 4.0366 0.3878
12.1800 4.0433 0.3853
12.2000 4.0500 0.3934
12.2200 4.0567 0.3909
12.2400 4.0634 0.3792
12.2600 4.0701 0.3948
12.2800 4.0768 0.3910
12.3000 4.0834 0.3769
12.3200 4.0899 0.3968
12.3400 4.0966 0.3883
12.3600 4.1033 0.3843
12.3800 4.1100 0.3916
12.4000 4.1167 0.3912
12.4200 4.1234 0.3825
12.4400 4.1301 0.3921
12.4600 4.1367 0.3896
12.4800 4.1433 0.3785
12.5000 4.1499 0.3947
12.5200 4.1566 0.3945
12.5400 4.1633 0.3765
12.5600 4.1700 0.3909
12.5800 4.1767 0.3887
12.6000 4.1834 0.3838
12.6200 4.1901 0.3899
12.6400 4.1967 0.3883
12.6600 4.2034 0.3812
12.6800 4.2100 0.3938
12.7000 4.2166 0.3889
12.7200 4.2233 0.3780
12.7400 4.2300 0.3920
12.7600 4.2367 0.3866
12.7800 4.2434 0.3793
12.8000 4.2501 0.3913
12.8200 4.2568 0.3860
12.8400 4.2634 0.3776
12.8600 4.2700 0.3899
12.8800 4.2766 0.3848
12.9000 4.2833 0.3840
12.9200 4.2900 0.3923
12.9400 4.2967 0.3868
12.9600 4.3034 0.3810
12.9800 4.3101 0.3886
13.0000 4.3167 0.3804
13.0200 4.3233 0.3840
13.0400 4.3300 0.3901
13.0600 4.3366 0.3907
13.0800 4.3433 0.3808
13.1000 4.3500 0.3861
13.1200 4.3567 0.3840
13.1400 4.3634 0.3817
13.1600 4.3701 0.3869
13.1800 4.3767 0.3851
13.2000 4.3833 0.3787
13.2200 4.3899 0.3903
13.2400 4.3966 0.3836
13.2600 4.4033 0.3773
13.2800 4.4100 0.3908
13.3000 4.4167 0.3886
13.3200 4.4234 0.3745
13.3400 4.4301 0.3891
13.3600 4.4367 0.3928
13.3800 4.4434 0.3738
13.4000 4.4500 0.3878
13.4200 4.4566 0.3894
13.4400 4.4633 0.3791
13.4600 4.4700 0.3886
13.4800 4.4767 0.3839
13.5000 4.4834 0.3763
13.5200 4.4901 0.3935
13.5400 4.4968 0.3893
13.5600 4.5034 0.3720
13.5800 4.5100 0.3927
13.6000 4.5166 0.3871
13.6200 4.5233 0.3719
13.6400 4.5300 0.3977
13.6600 4.5367 0.3816
13.6800 4.5434 0.3748
13.7000 4.5500 0.3939
13.7200 4.5567 0.3830
13.7400 4.5633 0.3742
13.7600 4.5699 0.3940
13.7800 4.5766 0.3827
13.8000 4.5833 0.3746
13.8200 4.5900 0.3900
13.8400 4.5967 0.3805
13.8600 4.6033 0.3726
13.8800 4.6100 0.3935
13.9000 4.6167 0.3786
13.9200 4.6233 0.3742
13.9400 4.6299 0.3930
13.9600 4.6366 0.3806
13.9800 4.6433 0.3750
14.0000 4.6500 0.3904
14.0200 4.6567 0.3822
14.0400 4.6634 0.3760
14.0600 4.6701 0.3859
14.0800 4.6767 0.3775
14.1000 4.6833 0.3789
14.1200 4.6899 0.3868
14.1400 4.6966 0.3802
14.1600 4.7033 0.3779
14.1800 4.7100 0.3859
14.2000 4.7167 0.3758
14.2200 4.7234 0.3809
14.2400 4.7301 0.3785
14.2600 4.7368 0.3802
14.2800 4.7434 0.3795
14.3000 4.7500 0.3799
14.3200 4.7566 0.3800
14.3400 4.7633 0.3823
14.3600 4.7700 0.3780
14.3800 4.7767 0.3818
14.4000 4.7834 0.3801
14.4200 4.7901 0.3763
14.4400 4.7968 0.3792
14.4600 4.8034 0.3827
14.4800 4.8100 0.3758
14.5000 4.8166 0.3810
14.5200 4.8233 0.3786
14.5400 4.8300 0.3778
14.5600 4.8367 0.3795
14.5800 4.8433 0.3761
14.6000 4.8500 0.3782
14.6200 4.8567 0.3738
14.6400 4.8633 0.3771
14.6600 4.8699 0.3806
14.6800 4.8766 0.3761
14.7000 4.8832 0.3819
14.7200 4.8900 0.3796
14.7400 4.8967 0.3709
14.7600 4.9033 0.3840
14.7800 4.9100 0.3809
14.8000 4.9167 0.3741
14.8200 4.9234 0.3790
14.8400 4.9300 0.3758
14.8600 4.9366 0.3785
14.8800 4.9433 0.3852
14.9000 4.9500 0.3743
14.9200 4.9567 0.3794
14.9400 4.9634 0.3843
14.9600 4.9701 0.3743
14.9800 4.9768 0.3740
15.0000 4.9834 0.3812
15.0200 4.9900 0.3741
15.0400 4.9966 0.3811
15.0600 5.0033 0.3801
15.0800 5.0100 0.3709
15.1000 5.0167 0.3816
15.1200 5.0234 0.3754
15.1400 5.0301 0.3722
15.1600 5.0367 0.3832
15.1800 5.0434 0.3746
15.2000 5.0500 0.3726
15.2200 5.0566 0.3825
15.2400 5.0633 0.3763
15.2600 5.0700 0.3730
15.2800 5.0767 0.3830
15.3000 5.0834 0.3774
15.3200 5.0900 0.3720
15.3400 5.0967 0.3813
15.3600 5.1034 0.3763
15.3800 5.1100 0.3731
15.4000 5.1166 0.3753
15.4200 5.1232 0.3793
15.4400 5.1299 0.3748
15.4600 5.1367 0.3762
15.4800 5.1433 0.3756
15.5000 5.1500 0.3770
15.5200 5.1567 0.3757
15.5400 5.1633 0.3780
15.5600 5.1699 0.3729
15.5800 5.1766 0.3791
15.6000 5.1833 0.3781
15.6200 5.1900 0.3799
15.6400 5.1967 0.3686
15.6600 5.2034 0.3782
15.6800 5.2101 0.3773
15.7000 5.2168 0.3683
15.7200 5.2234 0.3776
15.7400 5.2300 0.3792
15.7600 5.2367 0.3742
15.7800 5.2433 0.3759
15.8000 5.2500 0.3756
15.8200 5.2567 0.3688
15.8400 5.2634 0.3830
15.8600 5.2701 0.3724
15.8800 5.2768 0.3656
15.9000 5.2834 0.3804
15.9200 5.2900 0.3725
15.9400 5.2966 0.3686
15.9600 5.3032 0.3816
15.9800 5.3100 0.3696
16.0000 5.3167 0.3708
16.0200 5.3233 0.3798
16.0400 5.3300 0.3699
16.0600 5.3367 0.3699
16.0800 5.3434 0.3809
16.1000 5.3500 0.3681
16.1200 5.3566 0.3745
16.1400 5.3633 0.3798
16.1600 5.3700 0.3698
16.1800 5.3767 0.3694
16.2000 5.3834 0.3783
16.2200 5.3900 0.3721
16.2400 5.3967 0.3703
16.2600 5.4034 0.3734
16.2800 5.4100 0.3720
16.3000 5.4166 0.3692
16.3200 5.4233 0.3795
16.3400 5.4300 0.3710
16.3600 5.4367 0.3617
16.3800 5.4434 0.3791
16.4000 5.4501 0.3735
16.4200 5.4568 0.3664
16.4400 5.4634 0.3750
16.4600 5.4700 0.3707
16.4800 5.4766 0.3670
16.5000 5.4833 0.3776
16.5200 5.4900 0.3717
16.5400 5.4967 0.3691
16.5600 5.5034 0.3745
16.5800 5.5101 0.3682
16.6000 5.5167 0.3684
16.6200 5.5234 0.3774
16.6400 5.5300 0.3707
16.6600 5.5366 0.3697
16.6800 5.5433 0.3738
16.7000 5.5500 0.3758
16.7200 5.5567 0.3672
16.7400 5.5634 0.3733
16.7600 5.5700 0.3718
16.7800 5.5767 0.3710
16.8000 5.5834 0.3730
16.8200 5.5900 0.3749
16.8400 5.5966 0.3675
16.8600 5.6033 0.3769
16.8800 5.6099 0.3757
16.9000 5.6167 0.3660
16.9200 5.6233 0.3756
16.9400 5.6300 0.3729
16.9600 5.6367 0.3634
16.9800 5.6434 0.3744
17.0000 5.6500 0.3734
17.0200 5.6566 0.3682
17.0400 5.6633 0.3767
17.0600 5.6700 0.3718
17.0800 5.6767 0.3639
17.1000 5.6834 0.3739
17.1200 5.6901 0.3718
17.1400 5.6967 0.3649
17.1600 5.7034 0.3738
17.1800 5.7100 0.3690
17.2000 5.7166 0.3678
17.2200 5.7233 0.3795
17.2400 5.7300 0.3726
17.2600 5.7367 0.3623
17.2800 5.7434 0.3798
17.3000 5.7501 0.3689
17.3200 5.7567 0.3676
17.3400 5.7634 0.3759
17.3600 5.7700 0.3705
17.3800 5.7766 0.3657
17.4000 5.7833 0.3777
17.4200 5.7900 0.3706
17.4400 5.7967 0.3672
17.4600 5.8034 0.3753
17.4800 5.8100 0.3665
17.5000 5.8167 0.3685
17.5200 5.8234 0.3746
17.5400 5.8300 0.3641
17.5600 5.8366 0.3673
17.5800 5.8432 0.3738
17.6000 5.8499 0.3660
17.6200 5.8567 0.3704
17.6400 5.8634 0.3723
17.6600 5.8700 0.3661
17.6800 5.8767 0.3656
17.7000 5.8834 0.3696
17.7200 5.8900 0.3683
17.7400 5.8966 0.3684
17.7600 5.9033 0.3676
17.7800 5.9100 0.3693
17.8000 5.9167 0.3669
17.8200 5.9234 0.3702
17.8400 5.9301 0.3712
17.8600 5.9368 0.3630
17.8800 5.9435 0.3681
17.9000 5.9501 0.3707
17.9200 5.9567 0.3587
17.9400 5.9633 0.3699
17.9600 5.9700 0.3745
17.9800 5.9767 0.3586
18.0000 5.9834 0.3645
18.0200 5.9901 0.3731
18.0400 5.9968 0.3611
18.0600 6.0034 0.3668
18.0800 6.0100 0.3689
18.1000 6.0166 0.3638
18.1200 6.0232 0.3698
18.1400 6.0299 0.3694
18.1600 6.0367 0.3646
18.1800 6.0434 0.3656
18.2000 6.0500 0.3691
18.2200 6.0567 0.3587
18.2400 6.0634 0.3672
18.2600 6.0700 0.3681
18.2800 6.0766 0.3640
18.3000 6.0833 0.3714
18.3200 6.0900 0.3622
18.3400 6.0967 0.3640
18.3600 6.1033 0.3723
18.3800 6.1100 0.3630
18.4000 6.1167 0.3677
18.4200 6.1234 0.3635
18.4400 6.1300 0.3590
18.4600 6.1366 0.3682
18.4800 6.1433 0.3723
18.5000 6.1500 0.3593
18.5200 6.1567 0.3705
18.5400 6.1634 0.3622
18.5600 6.1701 0.3647
18.5800 6.1768 0.3730
18.6000 6.1834 0.3606
18.6200 6.1900 0.3622
18.6400 6.1966 0.3706
18.6600 6.2033 0.3601
18.6800 6.2100 0.3677
18.7000 6.2167 0.3701
18.7200 6.2234 0.3567
18.7400 6.2300 0.3688
18.7600 6.2367 0.3732
18.7800 6.2434 0.3549
18.8000 6.2501 0.3694
18.8200 6.2567 0.3736
18.8400 6.2633 0.3563
18.8600 6.2700 0.3672
18.8800 6.2767 0.3661
18.9000 6.2833 0.3590
18.9200 6.2900 0.3698
18.9400 6.2967 0.3668
18.9600 6.3034 0.3537
18.9800 6.3100 0.3694
19.0000 6.3166 0.3622
19.0200 6.3232 0.3606
19.0400 6.3299 0.3713
19.0600 6.3366 0.3674
19.0800 6.3433 0.3566
19.1000 6.3500 0.3692
19.1200 6.3567 0.3660
19.1400 6.3634 0.3559
19.1600 6.3700 0.3654
19.1800 6.3766 0.3667
19.2000 6.3833 0.3598
19.2200 6.3900 0.3689
19.2400 6.3967 0.3624
19.2600 6.4034 0.3542
19.2800 6.4101 0.3678
19.3000 6.4168 0.3636
19.3200 6.4234 0.3588
19.3400 6.4301 0.3684
19.3600 6.4366 0.3619
19.3800 6.4433 0.3604
19.4000 6.4500 0.3668
19.4200 6.4567 0.3641
19.4400 6.4634 0.3602
19.4600 6.4700 0.3620
19.4800 6.4767 0.3644
19.5000 6.4834 0.3556
19.5200 6.4901 0.3641
19.5400 6.4967 0.3674
19.5600 6.5033 0.3605
19.5800 6.5099 0.3626
19.6000 6.5166 0.3631
19.6200 6.5234 0.3597
19.6400 6.5300 0.3650
19.6600 6.5367 0.3622
19.6800 6.5434 0.3565
19.7000 6.5500 0.3580
19.7200 6.5566 0.3644
19.7400 6.5632 0.3581
19.7600 6.5699 0.3634
19.7800 6.5766 0.3651
19.8000 6.5833 0.3578
19.8200 6.5900 0.3557
19.8400 6.5967 0.3694
19.8600 6.6034 0.3584
19.8800 6.6100 0.3570
19.9000 6.6166 0.3680
19.9200 6.6233 0.3588
19.9400 6.6300 0.3575
19.9600 6.6367 0.3666
19.9800 6.6434 0.3580
20.0000 6.6501 0.3583
20.0200 6.6568 0.3685
20.0400 6.6635 0.3556
20.0600 6.6701 0.3545
20.0800 6.6767 0.3686
20.1000 6.6833 0.3582
20.1200 6.6900 0.3521
20.1400 6.6967 0.3678
20.1600 6.7034 0.3515
20.1800 6.7101 0.3613
20.2000 6.7168 0.3674
20.2200 6.7234 0.3533
20.2400 6.7301 0.3558
20.2600 6.7366 0.3717
20.2800 6.7433 0.3524
20.3000 6.7499 0.3543
20.3200 6.7567 0.3714
20.3400 6.7634 0.3546
20.3600 6.7700 0.3516
20.3800 6.7767 0.3661
20.4000 6.7834 0.3518
20.4200 6.7900 0.3605
20.4400 6.7966 0.3640
20.4600 6.8033 0.3498
20.4800 6.8099 0.3585
20.5000 6.8166 0.3653
20.5200 6.8233 0.3513
20.5400 6.8300 0.3572
20.5600 6.8367 0.3688
20.5800 6.8434 0.3498
20.6000 6.8501 0.3538
20.6200 6.8567 0.3667
20.6400 6.8633 0.3569
20.6600 6.8700 0.3583
20.6800 6.8767 0.3581
20.7000 6.8834 0.3548
20.7200 6.8901 0.3605
20.7400 6.8968 0.3642
20.7600 6.9034 0.3531
20.7800 6.9101 0.3543
20.8000 6.9167 0.3646
20.8200 6.9233 0.3491
20.8400 6.9299 0.3570
20.8600 6.9367 0.3637
20.8800 6.9434 0.3522
20.9000 6.9500 0.3518
20.9200 6.9567 0.3644
20.9400 6.9634 0.3538
20.9600 6.9701 0.3505
20.9800 6.9767 0.3621
21.0000 6.9833 0.3553
21.0200 6.9900 0.3485
21.0400 6.9967 0.3666
21.0600 7.0033 0.3546
21.0800 7.0100 0.3502
21.1000 7.0167 0.3686
21.1200 7.0234 0.3540
21.1400 7.0301 0.3508
21.1600 7.0367 0.3691
21.1800 7.0432 0.3550
21.2000 7.0499 0.3522
21.2200 7.0566 0.3723
21.2400 7.0633 0.3482
21.2600 7.0700 0.3488
21.2800 7.0767 0.3732
21.3000 7.0833 0.3508
21.3200 7.0900 0.3501
21.3400 7.0966 0.3680
21.3600 7.1033 0.3475
21.3800 7.1099 0.3588
21.4000 7.1166 0.3680
21.4200 7.1233 0.3492
21.4400 7.1300 0.3579
21.4600 7.1367 0.3674
21.4800 7.1434 0.3438
21.5000 7.1501 0.3582
21.5200 7.1567 0.3636
21.5400 7.1633 0.3463
21.5600 7.1700 0.3581
21.5800 7.1766 0.3636
21.6000 7.1833 0.3483
21.6200 7.1900 0.3573
21.6400 7.1967 0.3610
21.6600 7.2034 0.3559
21.6800 7.2101 0.3534
21.7000 7.2167 0.3530
21.7200 7.2233 0.3578
21.7400 7.2299 0.3569
21.7600 7.2366 0.3573
21.7800 7.2434 0.3518
21.8000 7.2501 0.3530
21.8200 7.2567 0.3595
21.8400 7.2634 0.3572
21.8600 7.2700 0.3493
21.8800 7.2767 0.3588
21.9000 7.2833 0.3567
21.9200 7.2899 0.3467
21.9400 7.2966 0.3569
21.9600 7.3033 0.3601
21.9800 7.3100 0.3473
22.0000 7.3167 0.3595
22.0200 7.3233 0.3537
22.0400 7.3300 0.3510
22.0600 7.3367 0.3581
22.0800 7.3433 0.3537
22.1000 7.3499 0.3488
22.1200 7.3566 0.3565
22.1400 7.3633 0.3499
22.1600 7.3700 0.3472
22.1800 7.3767 0.3577
22.2000 7.3834 0.3556
22.2200 7.3901 0.3473
22.2400 7.3967 0.3555
22.2600 7.4033 0.3532
22.2800 7.4100 0.3509
22.3000 7.4167 0.3535
22.3200 7.4234 0.3552
22.3400 7.4301 0.3506
22.3600 7.4367 0.3534
22.3800 7.4434 0.3518
22.4000 7.4501 0.3471
22.4200 7.4567 0.3536
22.4400 7.4633 0.3524
22.4600 7.4699 0.3512
22.4800 7.4766 0.3501
22.5000 7.4833 0.3516
22.5200 7.4900 0.3516
22.5400 7.4967 0.3481
22.5600 7.5034 0.3523
22.5800 7.5101 0.3497
22.6000 7.5167 0.3464
22.6200 7.5233 0.3562
22.6400 7.5299 0.3480
22.6600 7.5366 0.3485
22.6800 7.5433 0.3514
22.7000 7.5500 0.3502
22.7200 7.5567 0.3481
22.7400 7.5634 0.3540
22.7600 7.5701 0.3498
22.7800 7.5767 0.3480
22.8000 7.5833 0.3486
22.8200 7.5899 0.3522
22.8400 7.5966 0.3528
22.8600 7.6033 0.3502
22.8800 7.6100 0.3482
22.9000 7.6167 0.3501
22.9200 7.6234 0.3489
22.9400 7.6301 0.3502
22.9600 7.6367 0.3503
22.9800 7.6434 0.3492
23.0000 7.6500 0.3481
23.0200 7.6567 0.3466
23.0400 7.6633 0.3492
23.0600 7.6700 0.3482
23.0800 7.6767 0.3493
23.1000 7.6834 0.3462
23.1200 7.6901 0.3486
23.1400 7.6967 0.3502
23.1600 7.7033 0.3502
23.1800 7.7099 0.3475
23.2000 7.7166 0.3511
23.2200 7.7233 0.3431
23.2400 7.7300 0.3499
23.2600 7.7367 0.3477
23.2800 7.7434 0.3416
23.3000 7.7501 0.3486
23.3200 7.7567 0.3515
23.3400 7.7633 0.3403
23.3600 7.7699 0.3562
23.3800 7.7766 0.3485
23.4000 7.7833 0.3409
23.4200 7.7900 0.3545
23.4400 7.7966 0.3433
23.4600 7.8033 0.3446
23.4800 7.8100 0.3547
23.5000 7.8167 0.3389
23.5200 7.8233 0.3436
23.5400 7.8299 0.3586
23.5600 7.8366 0.3419
23.5800 7.8433 0.3482
23.6000 7.8500 0.3534
23.6200 7.8567 0.3368
23.6400 7.8634 0.3538
23.6600 7.8701 0.3514
23.6800 7.8768 0.3330
23.7000 7.8833 0.3576
23.7200 7.8899 0.3508
23.7400 7.8966 0.3370
23.7600 7.9033 0.3520
23.7800 7.9101 0.3473
23.8000 7.9167 0.3357
23.8200 7.9234 0.3562
23.8400 7.9301 0.3466
23.8600 7.9367 0.3356
23.8800 7.9433 0.3524
23.9000 7.9499 0.3498
23.9200 7.9566 0.3372
23.9400 7.9633 0.3523
23.9600 7.9700 0.3489
23.9800 7.9767 0.3376
24.0000 7.9834 0.3506
24.0200 7.9901 0.3521
24.0400 7.9967 0.3384
24.0600 8.0033 0.3539
24.0800 8.0100 0.3506
24.1000 8.0166 0.3386
24.1200 8.0233 0.3506
24.1400 8.0300 0.3499
24.1600 8.0367 0.3337
24.1800 8.0433 0.3531
24.2000 8.0500 0.3563
24.2200 8.0567 0.3306
24.2400 8.0633 0.3517
24.2600 8.0699 0.3531
24.2800 8.0766 0.3317
24.3000 8.0833 0.3512
24.3200 8.0900 0.3532
24.3400 8.0967 0.3302
24.3600 8.1034 0.3505
24.3800 8.1101 0.3483
24.4000 8.1167 0.3302
24.4200 8.1233 0.3539
24.4400 8.1299 0.3503
24.4600 8.1366 0.3273
24.4800 8.1434 0.3586
24.5000 8.1501 0.3449
24.5200 8.1568 0.3307
24.5400 8.1634 0.3539
24.5600 8.1701 0.3430
24.5800 8.1767 0.3290
24.6000 8.1833 0.3563
24.6200 8.1899 0.3464
24.6400 8.1966 0.3341
24.6600 8.2033 0.3532
24.6800 8.2100 0.3406
24.7000 8.2167 0.3361
24.7200 8.2234 0.3535
24.7400 8.2301 0.3400
24.7600 8.2367 0.3360
24.7800 8.2433 0.3506
24.8000 8.2499 0.3405
24.8200 8.2566 0.3395
24.8400 8.2633 0.3507
24.8600 8.2700 0.3340
24.8800 8.2767 0.3369
24.9000 8.2834 0.3504
24.9200 8.2900 0.3385
24.9400 8.2967 0.3424
24.9600 8.3033 0.3408
24.9800 8.3100 0.3429
25.0000 8.3166 0.3445
25.0200 8.3233 0.3356
25.0400 8.3300 0.3407
25.0600 8.3367 0.3456
25.0800 8.3434 0.3369
25.1000 8.3501 0.3422
25.1200 8.3567 0.3414
25.1400 8.3633 0.3397
25.1600 8.3700 0.3437
25.1800 8.3766 0.3393
25.2000 8.3833 0.3366
25.2200 8.3900 0.3456
25.2400 8.3967 0.3356
25.2600 8.4034 0.3373
25.2800 8.4101 0.3487
25.3000 8.4167 0.3323
25.3200 8.4233 0.3380
25.3400 8.4299 0.3484
25.3600 8.4366 0.3342
25.3800 8.4433 0.3393
25.4000 8.4500 0.3491
25.4200 8.4567 0.3318
25.4400 8.4634 0.3415
25.4600 8.4701 0.3475
25.4800 8.4767 0.3314
25.5000 8.4833 0.3374
25.5200 8.4899 0.3475
25.5400 8.4966 0.3334
25.5600 8.5033 0.3416
25.5800 8.5100 0.3406
25.6000 8.5166 0.3369
25.6200 8.5233 0.3421
25.6400 8.5300 0.3417
25.6600 8.5367 0.3343
25.6800 8.5433 0.3404
25.7000 8.5499 0.3397
25.7200 8.5566 0.3370
25.7400 8.5633 0.3388
25.7600 8.5700 0.3430
25.7800 8.5767 0.3350
25.8000 8.5834 0.3388
25.8200 8.5901 0.3372
25.8400 8.5968 0.3345
25.8600 8.6034 0.3386
25.8800 8.6100 0.3428
25.9000 8.6166 0.3355
25.9200 8.6233 0.3363
25.9400 8.6301 0.3397
25.9600 8.6368 0.3350
25.9800 8.6434 0.3377
26.0000 8.6501 0.3402
26.0200 8.6568 0.3367
26.0400 8.6634 0.3319
26.0600 8.6700 0.3381
26.0800 8.6766 0.3390
26.1000 8.6833 0.3360
26.1200 8.6900 0.3344
26.1400 8.6967 0.3342
26.1600 8.7033 0.3392
26.1800 8.7100 0.3378
26.2000 8.7167 0.3315
26.2200 8.7233 0.3369
26.2400 8.7299 0.3371
26.2600 8.7365 0.3389
26.2800 8.7432 0.3318
26.3000 8.7500 0.3369
26.3200 8.7567 0.3393
26.3400 8.7633 0.3353
26.3600 8.7700 0.3333
26.3800 8.7767 0.3354
26.4000 8.7833 0.3340
26.4200 8.7899 0.3358
26.4400 8.7966 0.3377
26.4600 8.8033 0.3343
26.4800 8.8100 0.3369
26.5000 8.8167 0.3357
26.5200 8.8234 0.3299
26.5400 8.8301 0.3364
26.5600 8.8368 0.3392
26.5800 8.8434 0.3269
26.6000 8.8500 0.3380
26.6200 8.8567 0.3394
26.6400 8.8633 0.3272
26.6600 8.8700 0.3369
26.6800 8.8767 0.3370
26.7000 8.8834 0.3277
26.7200 8.8901 0.3347
26.7400 8.8968 0.3416
26.7600 8.9034 0.3256
26.7800 8.9100 0.3406
26.8000 8.9166 0.3427
26.8200 8.9233 0.3247
26.8400 8.9300 0.3431
26.8600 8.9367 0.3311
26.8800 8.9434 0.3307
26.9000 8.9501 0.3428
26.9200 8.9567 0.3330
26.9400 8.9633 0.3268
26.9600 8.9699 0.3405
26.9800 8.9766 0.3363
27.0000 8.9833 0.3299
27.0200 8.9900 0.3380
27.0400 8.9967 0.3322
27.0600 9.0033 0.3341
27.0800 9.0100 0.3363
27.1000 9.0167 0.3289
27.1200 9.0233 0.3358
27.1400 9.0299 0.3380
27.1600 9.0366 0.3308
27.1800 9.0433 0.3366
27.2000 9.0500 0.3323
27.2200 9.0567 0.3296
27.2400 9.0634 0.3350
27.2600 9.0701 0.3304
27.2800 9.0768 0.3331
27.3000 9.0834 0.3347
27.3200 9.0900 0.3201
27.3400 9.0966 0.3390
27.3600 9.1033 0.3377
27.3800 9.1100 0.3201
27.4000 9.1167 0.3361
27.4200 9.1234 0.3354
27.4400 9.1301 0.3238
27.4600 9.1368 0.3393
27.4800 9.1434 0.3300
27.5000 9.1500 0.3335
27.5200 9.1566 0.3323
27.5400 9.1633 0.3262
27.5600 9.1700 0.3285
27.5800 9.1767 0.3350
27.6000 9.1834 0.3263
27.6200 9.1901 0.3328
27.6400 9.1967 0.3318
27.6600 9.2034 0.3235
27.6800 9.2100 0.3341
27.7000 9.2166 0.3342
27.7200 9.2232 0.3250
27.7400 9.2300 0.3312
27.7600 9.2367 0.3294
27.7800 9.2434 0.3277
27.8000 9.2501 0.3304
27.8200 9.2567 0.3290
27.8400 9.2634 0.3349
27.8600 9.2700 0.3256
27.8800 9.2766 0.3296
27.9000 9.2833 0.3330
27.9200 9.2900 0.3294
27.9400 9.2967 0.3267
27.9600 9.3034 0.3306
27.9800 9.3101 0.3220
28.0000 9.3168 0.3283
28.0200 9.3234 0.3366
28.0400 9.3300 0.3230
28.0600 9.3366 0.3298
28.0800 9.3433 0.3355
28.1000 9.3500 0.3199
28.1200 9.3567 0.3301
28.1400 9.3634 0.3349
28.1600 9.3701 0.3236
28.1800 9.3767 0.3275
28.2000 9.3834 0.3318
28.2200 9.3900 0.3210
28.2400 9.3966 0.3317
28.2600 9.4032 0.3329
28.2800 9.4100 0.3212
28.3000 9.4167 0.3311
28.3200 9.4234 0.3329
28.3400 9.4301 0.3190
28.3600 9.4367 0.3295
28.3800 9.4434 0.3345
28.4000 9.4500 0.3202
28.4200 9.4566 0.3281
28.4400 9.4633 0.3352
28.4600 9.4700 0.3206
28.4800 9.4767 0.3274
28.5000 9.4834 0.3327
28.5200 9.4900 0.3222
28.5400 9.4967 0.3280
28.5600 9.5034 0.3308
28.5800 9.5100 0.3249
28.6000 9.5166 0.3310
28.6200 9.5233 0.3315
28.6400 9.5300 0.3233
28.6600 9.5367 0.3325
28.6800 9.5434 0.3298
28.7000 9.5501 0.3247
28.7200 9.5568 0.3278
28.7400 9.5634 0.3299
28.7600 9.5700 0.3241
28.7800 9.5766 0.3336
28.8000 9.5833 0.3337
28.8200 9.5900 0.3182
28.8400 9.5967 0.3290
28.8600 9.6034 0.3342
28.8800 9.6101 0.3204
28.9000 9.6168 0.3335
28.9200 9.6234 0.3320
28.9400 9.6300 0.3203
28.9600 9.6366 0.3343
28.9800 9.6433 0.3291
29.0000 9.6500 0.3215
29.0200 9.6567 0.3388
29.0400 9.6633 0.3265
29.0600 9.6700 0.3192
29.0800 9.6767 0.3377
29.1000 9.6834 0.3257
29.1200 9.6900 0.3197
29.1400 9.6966 0.3364
29.1600 9.7033 0.3295
29.1800 9.7100 0.3198
29.2000 9.7167 0.3336
29.2200 9.7233 0.3300
29.2400 9.7300 0.3226
29.2600 9.7367 0.3302
29.2800 9.7434 0.3254
29.3000 9.7500 0.3231
29.3200 9.7566 0.3302
29.3400 9.7633 0.3259
29.3600 9.7700 0.3223
29.3800 9.7767 0.3296
29.4000 9.7834 0.3297
29.4200 9.7901 0.3189
29.4400 9.7968 0.3295
29.4600 9.8034 0.3231
29.4800 9.8100 0.3192
29.5000 9.8166 0.3281
29.5200 9.8233 0.3274
29.5400 9.8300 0.3233
29.5600 9.8367 0.3303
29.5800 9.8434 0.3273
29.6000 9.8501 0.3170
29.6200 9.8568 0.3288
29.6400 9.8634 0.3240
29.6600 9.8700 0.3227
29.6800 9.8766 0.3265
29.7000 9.8833 0.3215
29.7200 9.8900 0.3254
29.7400 9.8967 0.3253
29.7600 9.9034 0.3181
29.7800 9.9100 0.3267
29.8000 9.9167 0.3270
29.8200 9.9234 0.3149
29.8400 9.9300 0.3204
29.8600 9.9366 0.3262
29.8800 9.9432 0.3192
29.9000 9.9499 0.3261
29.9200 9.9566 0.3203
29.9400 9.9633 0.3195
29.9600 9.9700 0.3240
29.9800 9.9767 0.3214
30.0000 9.9833 0.3209
30.0200 9.9900 0.3235
30.0400 9.9966 0.3181
30.0600 10.0033 0.3222
30.0800 10.0100 0.3203
30.1000 10.0167 0.3190
30.1200 10.0234 0.3183
30.1400 10.0301 0.3239
30.1600 10.0368 0.3182
30.1800 10.0434 0.3222
30.2000 10.0500 0.3234
30.2200 10.0567 0.3181
30.2400 10.0633 0.3198
30.2600 10.0700 0.3170
30.2800 10.0767 0.3190
30.3000 10.0834 0.3179
30.3200 10.0901 0.3191
30.3400 10.0968 0.3180
30.3600 10.1034 0.3135
30.3800 10.1100 0.3213
30.4000 10.1166 0.3190
30.4200 10.1232 0.3162
30.4400 10.1299 0.3239
30.4600 10.1367 0.3141
30.4800 10.1433 0.3169
30.5000 10.1500 0.3212
30.5200 10.1567 0.3244
30.5400 10.1634 0.3170
30.5600 10.1700 0.3156
30.5800 10.1766 0.3227
30.6000 10.1833 0.3183
30.6200 10.1900 0.3201
30.6400 10.1967 0.3216
30.6600 10.2034 0.3115
30.6800 10.2100 0.3200
30.7000 10.2167 0.3187
30.7200 10.2234 0.3136
30.7400 10.2300 0.3223
30.7600 10.2367 0.3186
30.7800 10.2433 0.3105
30.8000 10.2500 0.3246
30.8200 10.2567 0.3145
30.8400 10.2634 0.3143
30.8600 10.2701 0.3265
30.8800 10.2768 0.3087
30.9000 10.2834 0.3141
30.9200 10.2901 0.3250
30.9400 10.2966 0.3106
30.9600 10.3033 0.3157
30.9800 10.3100 0.3262
31.0000 10.3167 0.3070
31.0200 10.3234 0.3164
31.0400 10.3301 0.3238
31.0600 10.3367 0.3051
31.0800 10.3434 0.3202
31.1000 10.3500 0.3215
31.1200 10.3566 0.3055
31.1400 10.3632 0.3227
31.1600 10.3699 0.3184
31.1800 10.3767 0.3072
31.2000 10.3834 0.3195
31.2200 10.3900 0.3230
31.2400 10.3967 0.3101
31.2600 10.4034 0.3183
31.2800 10.4100 0.3158
31.3000 10.4166 0.3143
31.3200 10.4233 0.3204
31.3400 10.4299 0.3106
31.3600 10.4367 0.3123
31.3800 10.4433 0.3228
31.4000 10.4500 0.3118
31.4200 10.4567 0.3116
31.4400 10.4634 0.3210
31.4600 10.4700 0.3163
31.4800 10.4766 0.3092
31.5000 10.4833 0.3146
31.5200 10.4900 0.3154
31.5400 10.4967 0.3123
31.5600 10.5034 0.3155
31.5800 10.5101 0.3133
31.6000 10.5168 0.3115
31.6200 10.5234 0.3116
31.6400 10.5300 0.3148
31.6600 10.5367 0.3148
31.6800 10.5433 0.3142
31.7000 10.5500 0.3169
31.7200 10.5567 0.3136
31.7400 10.5634 0.3115
31.7600 10.5701 0.3178
31.7800 10.5768 0.3082
31.8000 10.5834 0.3100
31.8200 10.5901 0.3166
31.8400 10.5967 0.3099
31.8600 10.6033 0.3126
31.8800 10.6099 0.3186
31.9000 10.6167 0.3048
31.9200 10.6234 0.3145
31.9400 10.6300 0.3185
31.9600 10.6367 0.3053
31.9800 10.6434 0.3153
32.0000 10.6500 0.3134
32.0200 10.6566 0.3038
32.0400 10.6632 0.3242
32.0600 10.6699 0.3153
32.0800 10.6767 0.3010
32.1000 10.6834 0.3238
32.1200 10.6900 0.3069
32.1400 10.6967 0.3019
32.1600 10.7034 0.3226
32.1800 10.7100 0.3050
32.2000 10.7166 0.3010
32.2200 10.7233 0.3274
32.2400 10.7300 0.3008
32.2600 10.7367 0.3073
32.2800 10.7434 0.3210
32.3000 10.7501 0.2992
32.3200 10.7568 0.3087
32.3400 10.7635 0.3210
32.3600 10.7701 0.2997
32.3800 10.7767 0.3171
32.4000 10.7833 0.3165
32.4200 10.7900 0.3008
32.4400 10.7967 0.3141
32.4600 10.8034 0.3070
32.4800 10.8101 0.2970
32.5000 10.8167 0.3258
32.5200 10.8234 0.3064
32.5400 10.8300 0.3011
32.5600 10.8366 0.3230
32.5800 10.8433 0.3019
32.6000 10.8499 0.3060
32.6200 10.8567 0.3244
32.6400 10.8634 0.2987
32.6600 10.8700 0.3058
32.6800 10.8767 0.3176
32.7000 10.8834 0.2940
32.7200 10.8900 0.3152
32.7400 10.8966 0.3150
32.7600 10.9033 0.2916
32.7800 10.9100 0.3195
32.8000 10.9167 0.3085
32.8200 10.9234 0.2936
32.8400 10.9300 0.3209
32.8600 10.9367 0.3050
32.8800 10.9434 0.2934
32.9000 10.9500 0.3210
32.9200 10.9567 0.3054
32.9400 10.9633 0.2982
32.9600 10.9699 0.3183
32.9800 10.9766 0.3024
33.0000 10.9833 0.2997
33.0200 10.9900 0.3169
33.0400 10.9967 0.3028
33.0600 11.0034 0.3028
33.0800 11.0100 0.3123
33.1000 11.0166 0.3003
33.1200 11.0233 0.3118
33.1400 11.0300 0.3120
33.1600 11.0367 0.2977
33.1800 11.0434 0.3083
33.2000 11.0501 0.3085
33.2200 11.0568 0.2930
33.2400 11.0634 0.3140
33.2600 11.0701 0.3097
33.2800 11.0766 0.2950
33.3000 11.0833 0.3162
33.3200 11.0900 0.3074
33.3400 11.0967 0.2967
33.3600 11.1033 0.3153
33.3800 11.1100 0.3085
33.4000 11.1167 0.2987
33.4200 11.1234 0.3105
33.4400 11.1300 0.3038
33.4600 11.1366 0.3041
33.4800 11.1432 0.3079
33.5000 11.1499 0.3049
33.5200 11.1566 0.3076
33.5400 11.1633 0.3055
33.5600 11.1700 0.2985
33.5800 11.1767 0.3113
33.6000 11.1834 0.3054
33.6200 11.1900 0.3011
33.6400 11.1967 0.3091
33.6600 11.2033 0.3029
33.6800 11.2100 0.3018
33.7000 11.2167 0.3134
33.7200 11.2234 0.2964
33.7400 11.2301 0.3020
33.7600 11.2368 0.3076
33.7800 11.2434 0.2990
33.8000 11.2501 0.3005
33.8200 11.2567 0.3104
33.8400 11.2633 0.2956
33.8600 11.2699 0.3061
33.8800 11.2766 0.3064
33.9000 11.2834 0.2904
33.9200 11.2900 0.3111
33.9400 11.2967 0.3009
33.9600 11.3034 0.2922
33.9800 11.3101 0.3150
34.0000 11.3167 0.3013
34.0200 11.3233 0.2889
34.0400 11.3299 0.3137
34.0600 11.3366 0.3018
34.0800 11.3433 0.2918
34.1000 11.3500 0.3161
34.1200 11.3567 0.3019
34.1400 11.3634 0.2883
34.1600 11.3701 0.3123
34.1800 11.3766 0.2953
34.2000 11.3832 0.3025
34.2200 11.3899 0.3111
34.2400 11.3966 0.2960
34.2600 11.4033 0.2959
34.2800 11.4100 0.3134
34.3000 11.4167 0.2968
34.3200 11.4234 0.2988
34.3400 11.4300 0.3052
34.3600 11.4367 0.2970
34.3800 11.4433 0.2994
34.4000 11.4500 0.3092
34.4200 11.4567 0.2958
34.4400 11.4634 0.3000
34.4600 11.4701 0.3049
34.4800 11.4768 0.2970
34.5000 11.4835 0.3024
34.5200 11.4901 0.2998
34.5400 11.4967 0.2976
34.5600 11.5033 0.3039
34.5800 11.5100 0.2979
34.6000 11.5167 0.2946
34.6200 11.5234 0.3062
34.6400 11.5301 0.2944
34.6600 11.5367 0.2939
34.6800 11.5434 0.3028
34.7000 11.5500 0.2994
34.7200 11.5567 0.2956
34.7400 11.5633 0.3012
34.7600 11.5699 0.3010
34.7800 11.5766 0.2965
34.8000 11.5833 0.2974
34.8200 11.5900 0.2987
34.8400 11.5967 0.2966
34.8600 11.6033 0.2969
34.8800 11.6100 0.2950
34.9000 11.6166 0.2970
34.9200 11.6232 0.2973
34.9400 11.6299 0.3006
34.9600 11.6366 0.2914
34.9800 11.6433 0.2944
35.0000 11.6500 0.2981
35.0200 11.6567 0.2949
35.0400 11.6634 0.2923
35.0600 11.6701 0.2953
35.0800 11.6767 0.2963
35.1000 11.6833 0.2931
35.1200 11.6899 0.2976
35.1400 11.6966 0.2988
35.1600 11.7034 0.2904
35.1800 11.7100 0.2933
35.2000 11.7167 0.2970
35.2200 11.7234 0.2932
35.2400 11.7301 0.2908
35.2600 11.7367 0.2957
35.2800 11.7433 0.2889
35.3000 11.7499 0.2948
35.3200 11.7567 0.2932
35.3400 11.7634 0.2968
35.3600 11.7701 0.2956
35.3800 11.7767 0.2862
35.4000 11.7834 0.2963
35.4200 11.7901 0.2959
35.4400 11.7967 0.2917
35.4600 11.8033 0.2974
35.4800 11.8100 0.2976
35.5000 11.8166 0.2889
35.5200 11.8233 0.2965
35.5400 11.8300 0.2928
35.5600 11.8367 0.2936
35.5800 11.8434 0.2989
35.6000 11.8501 0.2843
35.6200 11.8567 0.2869
35.6400 11.8633 0.3038
35.6600 11.8699 0.2898
35.6800 11.8766 0.2926
35.7000 11.8833 0.2985
35.7200 11.8900 0.2889
35.7400 11.8967 0.2910
35.7600 11.9034 0.2985
35.7800 11.9100 0.2884
35.8000 11.9166 0.2944
35.8200 11.9233 0.2987
35.8400 11.9299 0.2879
35.8600 11.9366 0.2989
35.8800 11.9434 0.2921
35.9000 11.9500 0.2912
35.9200 11.9567 0.2961
35.9400 11.9634 0.2889
35.9600 11.9701 0.2925
35.9800 11.9767 0.2959
36.0000 11.9833 0.2877
36.0200 11.9899 0.2971
36.0400 11.9966 0.2936
36.0600 12.0033 0.2869
36.0800 12.0101 0.3000
36.1000 12.0167 0.2942
36.1200 12.0234 0.2833
36.1400 12.0301 0.2962
36.1600 12.0367 0.2895
36.1800 12.0433 0.2882
36.2000 12.0499 0.2986
36.2200 12.0566 0.2893
36.2400 12.0634 0.2861
36.2600 12.0701 0.2968
36.2800 12.0767 0.2863
36.3000 12.0834 0.2947
36.3200 12.0900 0.2952
36.3400 12.0967 0.2820
36.3600 12.1033 0.2920
36.3800 12.1099 0.2958
36.4000 12.1166 0.2843
36.4200 12.1233 0.2941
36.4400 12.1300 0.2890
36.4600 12.1367 0.2830
36.4800 12.1434 0.2990
36.5000 12.1500 0.2882
36.5200 12.1567 0.2868
36.5400 12.1633 0.2944
36.5600 12.1699 0.2863
36.5800 12.1766 0.2906
36.6000 12.1833 0.2997
36.6200 12.1900 0.2821
36.6400 12.1967 0.2919
36.6600 12.2035 0.2954
36.6800 12.2101 0.2792
36.7000 12.2167 0.2912
36.7200 12.2233 0.2967
36.7400 12.2300 0.2757
36.7600 12.2367 0.2931
36.7800 12.2434 0.2903
36.8000 12.2501 0.2751
36.8200 12.2567 0.2966
36.8400 12.2634 0.2920
36.8600 12.2700 0.2773
36.8800 12.2767 0.2992
36.9000 12.2833 0.2899
36.9200 12.2899 0.2847
36.9400 12.2966 0.2927
36.9600 12.3033 0.2857
36.9800 12.3100 0.2852
37.0000 12.3167 0.2934
37.0200 12.3234 0.2837
37.0400 12.3301 0.2860
37.0600 12.3367 0.2884
37.0800 12.3433 0.2846
37.1000 12.3499 0.2902
37.1200 12.3566 0.2868
37.1400 12.3633 0.2863
37.1600 12.3700 0.2874
37.1800 12.3767 0.2857
37.2000 12.3834 0.2847
37.2200 12.3901 0.2882
37.2400 12.3967 0.2849
37.2600 12.4033 0.2858
37.2800 12.4099 0.2900
37.3000 12.4166 0.2850
37.3200 12.4233 0.2852
37.3400 12.4300 0.2898
37.3600 12.4367 0.2832
37.3800 12.4434 0.2889
37.4000 12.4501 0.2885
37.4200 12.4567 0.2817
37.4400 12.4634 0.2866
37.4600 12.4700 0.2932
37.4800 12.4767 0.2850
37.5000 12.4834 0.2856
37.5200 12.4900 0.2831
37.5400 12.4967 0.2850
37.5600 12.5034 0.2875
37.5800 12.5101 0.2880
37.6000 12.5167 0.2833
37.6200 12.5233 0.2864
37.6400 12.5299 0.2824
37.6600 12.5366 0.2816
37.6800 12.5433 0.2892
37.7000 12.5500 0.2834
37.7200 12.5567 0.2809
37.7400 12.5634 0.2916
37.7600 12.5701 0.2829
37.7800 12.5767 0.2808
37.8000 12.5833 0.2918
37.8200 12.5899 0.2797
37.8400 12.5965 0.2872
37.8600 12.6033 0.2860
37.8800 12.6100 0.2773
37.9000 12.6166 0.2877
37.9200 12.6233 0.2897
37.9400 12.6300 0.2795
37.9600 12.6367 0.2873
37.9800 12.6433 0.2830
38.0000 12.6499 0.2817
38.0200 12.6566 0.2860
38.0400 12.6633 0.2887
38.0600 12.6700 0.2810
38.0800 12.6767 0.2887
38.1000 12.6834 0.2842
38.1200 12.6901 0.2796
38.1400 12.6968 0.2868
38.1600 12.7034 0.2804
38.1800 12.7099 0.2845
38.2000 12.7166 0.2883
38.2200 12.7233 0.2799
38.2400 12.7300 0.2803
38.2600 12.7367 0.2883
38.2800 12.7434 0.2805
38.3000 12.7501 0.2849
38.3200 12.7567 0.2841
38.3400 12.7633 0.2806
38.3600 12.7699 0.2859
38.3800 12.7766 0.2836
38.4000 12.7833 0.2833
38.4200 12.7900 0.2867
38.4400 12.7967 0.2807
38.4600 12.8034 0.2806
38.4800 12.8100 0.2838
38.5000 12.8167 0.2854
38.5200 12.8233 0.2786
38.5400 12.8300 0.2858
38.5600 12.8366 0.2805
38.5800 12.8433 0.2823
38.6000 12.8500 0.2832
38.6200 12.8566 0.2773
38.6400 12.8633 0.2871
38.6600 12.8700 0.2826
38.6800 12.8767 0.2761
38.7000 12.8833 0.2875
38.7200 12.8899 0.2837
38.7400 12.8966 0.2755
38.7600 12.9033 0.2812
38.7800 12.9100 0.2849
38.8000 12.9167 0.2763
38.8200 12.9234 0.2805
38.8400 12.9301 0.2811
38.8600 12.9367 0.2788
38.8800 12.9433 0.2840
38.9000 12.9499 0.2755
38.9200 12.9566 0.2852
38.9400 12.9634 0.2822
38.9600 12.9701 0.2693
38.9800 12.9767 0.2834
39.0000 12.9834 0.2836
39.0200 12.9901 0.2684
39.0400 12.9967 0.2824
39.0600 13.0033 0.2770
39.0800 13.0100 0.2728
39.1000 13.0166 0.2852
39.1200 13.0233 0.2783
39.1400 13.0300 0.2684
39.1600 13.0367 0.2854
39.1800 13.0433 0.2732
39.2000 13.0500 0.2731
39.2200 13.0567 0.2870
39.2400 13.0633 0.2732
39.2600 13.0699 0.2776
39.2800 13.0766 0.2820
39.3000 13.0833 0.2693
39.3200 13.0900 0.2801
39.3400 13.0967 0.2802
39.3600 13.1034 0.2782
39.3800 13.1101 0.2742
39.4000 13.1167 0.2754
39.4200 13.1233 0.2751
39.4400 13.1299 0.2798
39.4600 13.1366 0.2767
39.4800 13.1433 0.2758
39.5000 13.1500 0.2767
39.5200 13.1567 0.2743
39.5400 13.1634 0.2811
39.5600 13.1701 0.2794
39.5800 13.1767 0.2768
39.6000 13.1834 0.2765
39.6200 13.1900 0.2785
39.6400 13.1966 0.2748
39.6600 13.2033 0.2787
39.6800 13.2100 0.2796
39.7000 13.2167 0.2731
39.7200 13.2234 0.2744
39.7400 13.2301 0.2805
39.7600 13.2368 0.2731
39.7800 13.2434 0.2753
39.8000 13.2499 0.2743
39.8200 13.2566 0.2782
39.8400 13.2633 0.2760
39.8600 13.2700 0.2735
39.8800 13.2767 0.2786
39.9000 13.2834 0.2755
39.9200 13.2901 0.2703
39.9400 13.2967 0.2783
39.9600 13.3034 0.2754
39.9800 13.3099 0.2750
40.0000 13.3166 0.2819
40.0200 13.3233 0.2713
40.0400 13.3300 0.2713
40.0600 13.3367 0.2857
40.0800 13.3433 0.2679
40.1000 13.3500 0.2687
40.1200 13.3567 0.2843
40.1400 13.3633 0.2663
40.1600 13.3699 0.2787
40.1800 13.3766 0.2810
40.2000 13.3833 0.2647
40.2200 13.3900 0.2798
40.2400 13.3967 0.2775
40.2600 13.4034 0.2616
40.2800 13.4101 0.2853
40.3000 13.4168 0.2748
40.3200 13.4234 0.2656
40.3400 13.4300 0.2822
40.3600 13.4366 0.2767
40.3800 13.4433 0.2666
40.4000 13.4501 0.2817
40.4200 13.4568 0.2721
40.4400 13.4634 0.2732
40.4600 13.4701 0.2758
40.4800 13.4767 0.2696
40.5000 13.4833 0.2722
40.5200 13.4899 0.2760
40.5400 13.4966 0.2733
40.5600 13.5033 0.2728
40.5800 13.5100 0.2771
40.6000 13.5167 0.2734
40.6200 13.5233 0.2749
40.6400 13.5300 0.2786
40.6600 13.5367 0.2674
40.6800 13.5433 0.2685
40.7000 13.5499 0.2765
40.7200 13.5566 0.2730
40.7400 13.5632 0.2729
40.7600 13.5700 0.2763
40.7800 13.5767 0.2755
40.8000 13.5833 0.2710
40.8200 13.5900 0.2753
40.8400 13.5967 0.2708
40.8600 13.6033 0.2715
40.8800 13.6099 0.2758
40.9000 13.6166 0.2701
40.9200 13.6233 0.2746
40.9400 13.6300 0.2787
40.9600 13.6367 0.2679
40.9800 13.6434 0.2699
41.0000 13.6501 0.2736
41.0200 13.6567 0.2698
41.0400 13.6634 0.2714
41.0600 13.6700 0.2703
41.0800 13.6766 0.2700
41.1000 13.6833 0.2755
41.1200 13.6900 0.2655
41.1400 13.6967 0.2721
41.1600 13.7034 0.2741
41.1800 13.7101 0.2708
41.2000 13.7168 0.2696
41.2200 13.7234 0.2677
41.2400 13.7300 0.2710
41.2600 13.7366 0.2745
41.2800 13.7433 0.2692
41.3000 13.7500 0.2682
41.3200 13.7567 0.2701
41.3400 13.7634 0.2713
41.3600 13.7700 0.2672
41.3800 13.7767 0.2672
41.4000 13.7833 0.2721
41.4200 13.7899 0.2650
41.4400 13.7966 0.2681
41.4600 13.8032 0.2725
41.4800 13.8100 0.2688
41.5000 13.8167 0.2707
41.5200 13.8233 0.2673
41.5400 13.8300 0.2665
41.5600 13.8367 0.2717
41.5800 13.8434 0.2618
41.6000 13.8500 0.2670
41.6200 13.8566 0.2724
41.6400 13.8633 0.2648
41.6600 13.8700 0.2637
41.6800 13.8767 0.2745
41.7000 13.8834 0.2603
41.7200 13.8901 0.2680
41.7400 13.8968 0.2699
41.7600 13.9034 0.2560
41.7800 13.9100 0.2688
41.8000 13.9166 0.2691
41.8200 13.9233 0.2588
41.8400 13.9300 0.2670
41.8600 13.9367 0.2679
41.8800 13.9434 0.2620
41.9000 13.9501 0.2702
41.9200 13.9567 0.2651
41.9400 13.9634 0.2605
41.9600 13.9700 0.2712
41.9800 13.9766 0.2631
42.0000 13.9833 0.2592
42.0200 13.9900 0.2712
42.0400 13.9967 0.2660
42.0600 14.0034 0.2633
42.0800 14.0101 0.2716
42.1000 14.0167 0.2613
42.1200 14.0234 0.2588
42.1400 14.0300 0.2723
42.1600 14.0366 0.2645
42.1800 14.0432 0.2607
42.2000 14.0499 0.2682
42.2200 14.0566 0.2649
42.2400 14.0633 0.2610
42.2600 14.0700 0.2697
42.2800 14.0767 0.2637
42.3000 14.0834 0.2609
42.3200 14.0900 0.2628
42.3400 14.0966 0.2666
42.3600 14.1033 0.2617
42.3800 14.1100 0.2655
42.4000 14.1167 0.2656
42.4200 14.1234 0.2585
42.4400 14.1301 0.2661
42.4600 14.1368 0.2651
42.4800 14.1434 0.2566
42.5000 14.1500 0.2693
42.5200 14.1566 0.2632
42.5400 14.1633 0.2580
42.5600 14.1700 0.2671
42.5800 14.1767 0.2630
42.6000 14.1834 0.2569
42.6200 14.1901 0.2702
42.6400 14.1967 0.2592
42.6600 14.2034 0.2585
42.6800 14.2100 0.2705
42.7000 14.2166 0.2597
42.7200 14.2232 0.2633
42.7400 14.2300 0.2625
42.7600 14.2367 0.2610
42.7800 14.2434 0.2645
42.8000 14.2501 0.2638
42.8200 14.2567 0.2613
42.8400 14.2634 0.2661
42.8600 14.2700 0.2618
42.8800 14.2766 0.2630
42.9000 14.2833 0.2641
42.9200 14.2900 0.2614
42.9400 14.2967 0.2612
42.9600 14.3034 0.2680
42.9800 14.3100 0.2606
43.0000 14.3167 0.2617
43.0200 14.3234 0.2629
43.0400 14.3300 0.2628
43.0600 14.3366 0.2620
43.0800 14.3433 0.2628
43.1000 14.3500 0.2621
43.1200 14.3567 0.2620
43.1400 14.3634 0.2572
43.1600 14.3701 0.2671
43.1800 14.3767 0.2610
43.2000 14.3834 0.2562
43.2200 14.3900 0.2667
43.2400 14.3966 0.2602
43.2600 14.4033 0.2591
43.2800 14.4100 0.2657
43.3000 14.4167 0.2602
43.3200 14.4234 0.2602
43.3400 14.4301 0.2673
43.3600 14.4368 0.2560
43.3800 14.4434 0.2597
43.4000 14.4500 0.2685
43.4200 14.4566 0.2545
43.4400 14.4633 0.2632
43.4600 14.4700 0.2675
43.4800 14.4767 0.2537
43.5000 14.4834 0.2630
43.5200 14.4900 0.2642
43.5400 14.4967 0.2608
43.5600 14.5034 0.2605
43.5800 14.5100 0.2640
43.6000 14.5166 0.2589
43.6200 14.5233 0.2616
43.6400 14.5300 0.2635
43.6600 14.5366 0.2573
43.6800 14.5433 0.2576
43.7000 14.5500 0.2645
43.7200 14.5567 0.2522
43.7400 14.5634 0.2590
43.7600 14.5700 0.2606
43.7800 14.5766 0.2567
43.8000 14.5833 0.2629
43.8200 14.5900 0.2633
43.8400 14.5967 0.2523
43.8600 14.6033 0.2596
43.8800 14.6100 0.2633
43.9000 14.6168 0.2527
43.9200 14.6234 0.2591
43.9400 14.6300 0.2629
43.9600 14.6366 0.2520
43.9800 14.6433 0.2643
44.0000 14.6500 0.2671
44.0200 14.6567 0.2472
44.0400 14.6634 0.2637
44.0600 14.6701 0.2639
44.0800 14.6767 0.2530
44.1000 14.6834 0.2617
44.1200 14.6900 0.2617
44.1400 14.6966 0.2487
44.1600 14.7033 0.2669
44.1800 14.7100 0.2614
44.2000 14.7167 0.2541
44.2200 14.7234 0.2583
44.2400 14.7300 0.2602
44.2600 14.7367 0.2518
44.2800 14.7434 0.2623
44.3000 14.7500 0.2603
44.3200 14.7566 0.2519
44.3400 14.7632 0.2622
44.3600 14.7699 0.2618
44.3800 14.7766 0.2475
44.4000 14.7833 0.2660
44.4200 14.7900 0.2633
44.4400 14.7967 0.2500
44.4600 14.8033 0.2578
44.4800 14.8100 0.2597
44.5000 14.8166 0.2547
44.5200 14.8233 0.2621
44.5400 14.8300 0.2598
44.5600 14.8367 0.2515
44.5800 14.8434 0.2618
44.6000 14.8501 0.2571
44.6200 14.8568 0.2540
44.6400 14.8634 0.2659
44.6600 14.8701 0.2591
44.6800 14.8767 0.2484
44.7000 14.8833 0.2615
44.7200 14.8900 0.2571
44.7400 14.8967 0.2566
44.7600 14.9034 0.2633
44.7800 14.9101 0.2480
44.8000 14.9168 0.2573
44.8200 14.9234 0.2644
44.8400 14.9300 0.2467
44.8600 14.9366 0.2578
44.8800 14.9432 0.2620
44.9000 14.9499 0.2479
44.9200 14.9566 0.2511
44.9400 14.9633 0.2627
44.9600 14.9700 0.2516
44.9800 14.9767 0.2562
45.0000 14.9834 0.2573
45.0200 14.9900 0.2483
45.0400 14.9966 0.2581
45.0600 15.0033 0.2538
45.0800 15.0100 0.2535
45.1000 15.0167 0.2567
45.1200 15.0234 0.2494
45.1400 15.0300 0.2490
45.1600 15.0367 0.2587
45.1800 15.0434 0.2464
45.2000 15.0500 0.2490
45.2200 15.0567 0.2607
45.2400 15.0633 0.2500
45.2600 15.0700 0.2488
45.2800 15.0767 0.2546
45.3000 15.0834 0.2501
45.3200 15.0901 0.2525
45.3400 15.0968 0.2518
45.3600 15.1035 0.2478
45.3800 15.1101 0.2457
45.4000 15.1167 0.2596
45.4200 15.1233 0.2447
45.4400 15.1300 0.2465
45.4600 15.1367 0.2580
45.4800 15.1434 0.2466
45.5000 15.1501 0.2421
45.5200 15.1567 0.2500
45.5400 15.1634 0.2487
45.5600 15.1700 0.2537
45.5800 15.1766 0.2432
45.6000 15.1833 0.2520
45.6200 15.1900 0.2567
45.6400 15.1967 0.2408
45.6600 15.2034 0.2472
45.6800 15.2100 0.2558
45.7000 15.2167 0.2451
45.7200 15.2234 0.2518
45.7400 15.2300 0.2514
45.7600 15.2366 0.2398
45.7800 15.2433 0.2596
45.8000 15.2499 0.2496
45.8200 15.2566 0.2376
45.8400 15.2633 0.2602
45.8600 15.2700 0.2461
45.8800 15.2767 0.2418
45.9000 15.2834 0.2611
45.9200 15.2900 0.2377
45.9400 15.2966 0.2485
45.9600 15.3033 0.2626
45.9800 15.3099 0.2373
46.0000 15.3167 0.2472
46.0200 15.3234 0.2618
46.0400 15.3301 0.2336
46.0600 15.3367 0.2511
46.0800 15.3434 0.2566
46.1000 15.3500 0.2407
46.1200 15.3567 0.2505
46.1400 15.3633 0.2510
46.1600 15.3700 0.2437
46.1800 15.3767 0.2535
46.2000 15.3834 0.2464
46.2200 15.3901 0.2451
46.2400 15.3967 0.2516
46.2600 15.4034 0.2438
46.2800 15.4100 0.2391
46.3000 15.4166 0.2548
46.3200 15.4233 0.2443
46.3400 15.4299 0.2439
46.3600 15.4366 0.2504
46.3800 15.4434 0.2419
46.4000 15.4501 0.2469
46.4200 15.4567 0.2441
46.4400 15.4634 0.2412
46.4600 15.4700 0.2507
46.4800 15.4766 0.2479
46.5000 15.4832 0.2433
46.5200 15.4899 0.2477
46.5400 15.4966 0.2375
46.5600 15.5033 0.2434
46.5800 15.5100 0.2484
46.6000 15.5167 0.2425
46.6200 15.5234 0.2446
46.6400 15.5300 0.2500
46.6600 15.5366 0.2342
46.6800 15.5433 0.2487
46.7000 15.5499 0.2480
46.7200 15.5567 0.2322
46.7400 15.5633 0.2456
46.7600 15.5700 0.2475
46.7800 15.5767 0.2372
46.8000 15.5834 0.2495
46.8200 15.5901 0.2439
46.8400 15.5967 0.2368
46.8600 15.6033 0.2484
46.8800 15.6100 0.2424
46.9000 15.6167 0.2356
46.9200 15.6234 0.2482
46.9400 15.6301 0.2375
46.9600 15.6367 0.2405
46.9800 15.6434 0.2478
47.0000 15.6500 0.2376
47.0200 15.6566 0.2471
47.0400 15.6633 0.2454
47.0600 15.6699 0.2373
47.0800 15.6767 0.2473
47.1000 15.6834 0.2488
47.1200 15.6900 0.2336
47.1400 15.6967 0.2465
47.1600 15.7034 0.2418
47.1800 15.7100 0.2403
47.2000 15.7167 0.2465
47.2200 15.7233 0.2386
47.2400 15.7299 0.2420
47.2600 15.7366 0.2489
47.2800 15.7433 0.2338
47.3000 15.7500 0.2447
47.3200 15.7567 0.2417
47.3400 15.7634 0.2368
47.3600 15.7701 0.2426
47.3800 15.7767 0.2432
47.4000 15.7833 0.2364
47.4200 15.7899 0.2479
47.4400 15.7967 0.2389
47.4600 15.8034 0.2343
47.4800 15.8100 0.2502
47.5000 15.8167 0.2396
47.5200 15.8234 0.2361
47.5400 15.8301 0.2466
47.5600 15.8367 0.2327
47.5800 15.8433 0.2429
47.6000 15.8499 0.2427
47.6200 15.8567 0.2317
47.6400 15.8634 0.2463
47.6600 15.8701 0.2390
47.6800 15.8768 0.2315
47.7000 15.8834 0.2458
47.7200 15.8901 0.2389
47.7400 15.8967 0.2347
47.7600 15.9033 0.2473
47.7800 15.9100 0.2367
47.8000 15.9167 0.2377
47.8200 15.9234 0.2448
47.8400 15.9300 0.2336
47.8600 15.9367 0.2394
47.8800 15.9434 0.2446
47.9000 15.9501 0.2296
47.9200 15.9567 0.2443
47.9400 15.9633 0.2426
47.9600 15.9699 0.2302
47.9800 15.9766 0.2424
48.0000 15.9833 0.2400
48.0200 15.9900 0.2292
48.0400 15.9967 0.2441
48.0600 16.0034 0.2375
48.0800 16.0101 0.2271
48.1000 16.0167 0.2439
48.1200 16.0233 0.2355
48.1400 16.0300 0.2312
48.1600 16.0367 0.2457
48.1800 16.0434 0.2310
48.2000 16.0501 0.2359
48.2200 16.0568 0.2475
48.2400 16.0634 0.2285
48.2600 16.0701 0.2404
48.2800 16.0767 0.2404
48.3000 16.0833 0.2326
48.3200 16.0899 0.2388
48.3400 16.0966 0.2401
48.3600 16.1034 0.2294
48.3800 16.1100 0.2397
48.4000 16.1167 0.2391
48.4200 16.1234 0.2272
48.4400 16.1301 0.2417
48.4600 16.1367 0.2368
48.4800 16.1433 0.2240
48.5000 16.1499 0.2454
48.5200 16.1566 0.2401
48.5400 16.1633 0.2289
48.5600 16.1700 0.2354
48.5800 16.1767 0.2410
48.6000 16.1834 0.2307
48.6200 16.1901 0.2355
48.6400 16.1967 0.2386
48.6600 16.2033 0.2334
48.6800 16.2099 0.2316
48.7000 16.2166 0.2380
48.7200 16.2233 0.2377
48.7400 16.2300 0.2312
48.7600 16.2367 0.2382
48.7800 16.2433 0.2341
48.8000 16.2500 0.2282
48.8200 16.2567 0.2396
48.8400 16.2633 0.2343
48.8600 16.2699 0.2357
48.8800 16.2766 0.2354
48.9000 16.2833 0.2258
48.9200 16.2900 0.2392
48.9400 16.2967 0.2420
48.9600 16.3034 0.2252
48.9800 16.3101 0.2379
49.0000 16.3167 0.2424
49.0200 16.3233 0.2234
49.0400 16.3299 0.2353
49.0600 16.3367 0.2382
49.0800 16.3434 0.2322
49.1000 16.3501 0.2300
49.1200 16.3567 0.2307
49.1400 16.3634 0.2285
49.1600 16.3700 0.2344
49.1800 16.3767 0.2277
49.2000 16.3833 0.2351
49.2200 16.3899 0.2369
49.2400 16.3966 0.2248
49.2600 16.4033 0.2304
49.2800 16.4100 0.2341
49.3000 16.4167 0.2369
49.3200 16.4233 0.2334
49.3400 16.4300 0.2290
49.3600 16.4367 0.2308
49.3800 16.4433 0.2270
49.4000 16.4499 0.2336
49.4200 16.4566 0.2366
49.4400 16.4633 0.2284
49.4600 16.4700 0.2281
49.4800 16.4767 0.2326
49.5000 16.4834 0.2240
49.5200 16.4901 0.2315
49.5400 16.4967 0.2338
49.5600 16.5033 0.2236
49.5800 16.5099 0.2322
49.6000 16.5166 0.2305
49.6200 16.5234 0.2284
49.6400 16.5301 0.2307
49.6600 16.5367 0.2275
49.6800 16.5434 0.2218
49.7000 16.5501 0.2373
49.7200 16.5567 0.2252
49.7400 16.5633 0.2261
49.7600 16.5699 0.2362
49.7800 16.5767 0.2262
49.8000 16.5834 0.2221
49.8200 16.5901 0.2371
49.8400 16.5967 0.2226
49.8600 16.6034 0.2264
49.8800 16.6101 0.2356
49.9000 16.6167 0.2198
49.9200 16.6233 0.2275
49.9400 16.6300 0.2347
49.9600 16.6366 0.2211
49.9800 16.6433 0.2263
50.0000 16.6500 0.2305
50.0200 16.6567 0.2228
50.0400 16.6634 0.2272
50.0600 16.6701 0.2285
50.0800 16.6767 0.2223
50.1000 16.6833 0.2260
50.1200 16.6899 0.2312
50.1400 16.6966 0.2279
50.1600 16.7033 0.2257
50.1800 16.7100 0.2295
50.2000 16.7167 0.2267
50.2200 16.7234 0.2241
50.2400 16.7300 0.2363
50.2600 16.7367 0.2265
50.2800 16.7433 0.2236
50.3000 16.7499 0.2288
50.3200 16.7566 0.2305
50.3400 16.7633 0.2261
50.3600 16.7700 0.2273
50.3800 16.7767 0.2248
50.4000 16.7834 0.2295
50.4200 16.7901 0.2243
50.4400 16.7967 0.2267
50.4600 16.8033 0.2313
50.4800 16.8100 0.2249
50.5000 16.8166 0.2228
50.5200 16.8233 0.2303
50.5400 16.8300 0.2219
50.5600 16.8367 0.2269
50.5800 16.8434 0.2300
50.6000 16.8501 0.2210
50.6200 16.8567 0.2281
50.6400 16.8633 0.2298
50.6600 16.8699 0.2237
50.6800 16.8766 0.2285
50.7000 16.8834 0.2238
50.7200 16.8901 0.2284
50.7400 16.8967 0.2346
50.7600 16.9034 0.2206
50.7800 16.9101 0.2246
50.8000 16.9167 0.2291
50.8200 16.9233 0.2261
50.8400 16.9299 0.2238
50.8600 16.9366 0.2262
50.8800 16.9433 0.2214
50.9000 16.9500 0.2307
50.9200 16.9567 0.2245
50.9400 16.9633 0.2192
50.9600 16.9700 0.2337
50.9800 16.9767 0.2231
51.0000 16.9833 0.2189
51.0200 16.9899 0.2340
51.0400 16.9966 0.2224
51.0600 17.0033 0.2224
51.0800 17.0100 0.2299
51.1000 17.0167 0.2205
51.1200 17.0234 0.2259
51.1400 17.0301 0.2295
51.1600 17.0367 0.2138
51.1800 17.0433 0.2249
51.2000 17.0500 0.2276
51.2200 17.0566 0.2169
51.2400 17.0634 0.2249
51.2600 17.0701 0.2276
51.2800 17.0767 0.2208
51.3000 17.0834 0.2211
51.3200 17.0901 0.2216
51.3400 17.0967 0.2214
51.3600 17.1033 0.2239
51.3800 17.1099 0.2172
51.4000 17.1166 0.2200
51.4200 17.1233 0.2212
51.4400 17.1300 0.2213
51.4600 17.1367 0.2182
51.4800 17.1434 0.2218
51.5000 17.1501 0.2200
51.5200 17.1567 0.2240
51.5400 17.1633 0.2168
51.5600 17.1699 0.2171
51.5800 17.1766 0.2277
51.6000 17.1833 0.2203
51.6200 17.1900 0.2118
51.6400 17.1967 0.2237
51.6600 17.2034 0.2184
51.6800 17.2101 0.2154
51.7000 17.2167 0.2194
51.7200 17.2233 0.2207
51.7400 17.2299 0.2159
51.7600 17.2366 0.2247
51.7800 17.2433 0.2134
51.8000 17.2500 0.2136
51.8200 17.2567 0.2301
51.8400 17.2634 0.2139
51.8600 17.2701 0.2104
51.8800 17.2768 0.2216
51.9000 17.2834 0.2130
51.9200 17.2900 0.2125
51.9400 17.2967 0.2279
51.9600 17.3034 0.2168
51.9800 17.3101 0.2073
52.0000 17.3167 0.2266
52.0200 17.3234 0.2196
52.0400 17.3301 0.2079
52.0600 17.3368 0.2267
52.0800 17.3433 0.2160
52.1000 17.3499 0.2086
52.1200 17.3566 0.2216
52.1400 17.3633 0.2208
52.1600 17.3700 0.2107
52.1800 17.3767 0.2176
52.2000 17.3834 0.2132
52.2200 17.3901 0.2167
52.2400 17.3967 0.2135
52.2600 17.4033 0.2117
52.2800 17.4099 0.2172
52.3000 17.4166 0.2235
52.3200 17.4233 0.2076
52.3400 17.4300 0.2145
52.3600 17.4366 0.2196
52.3800 17.4433 0.2105
52.4000 17.4500 0.2162
52.4200 17.4567 0.2148
52.4400 17.4633 0.2102
52.4600 17.4699 0.2169
52.4800 17.4766 0.2152
52.5000 17.4833 0.2121
52.5200 17.4900 0.2189
52.5400 17.4967 0.2100
52.5600 17.5034 0.2166
52.5800 17.5101 0.2234
52.6000 17.5168 0.2069
52.6200 17.5234 0.2169
52.6400 17.5300 0.2232
52.6600 17.5366 0.2027
52.6800 17.5433 0.2210
52.7000 17.5501 0.2200
52.7200 17.5567 0.2034
52.7400 17.5634 0.2188
52.7600 17.5701 0.2160
52.7800 17.5767 0.2078
52.8000 17.5833 0.2216
52.8200 17.5899 0.2198
52.8400 17.5966 0.2079
52.8600 17.6033 0.2206
52.8800 17.6100 0.2164
52.9000 17.6167 0.2030
52.9200 17.6234 0.2259
52.9400 17.6301 0.2128
52.9600 17.6367 0.2091
52.9800 17.6433 0.2187
53.0000 17.6499 0.2089
53.0200 17.6566 0.2180
53.0400 17.6633 0.2204
53.0600 17.6700 0.2091
53.0800 17.6767 0.2113
53.1000 17.6833 0.2201
53.1200 17.6900 0.2085
53.1400 17.6967 0.2118
53.1600 17.7033 0.2183
53.1800 17.7099 0.2103
53.2000 17.7166 0.2173
53.2200 17.7233 0.2149
53.2400 17.7300 0.2061
53.2600 17.7367 0.2178
53.2800 17.7434 0.2142
53.3000 17.7501 0.2098
53.3200 17.7567 0.2157
53.3400 17.7633 0.2151
53.3600 17.7699 0.2099
53.3800 17.7766 0.2177
53.4000 17.7833 0.2099
53.4200 17.7901 0.2164
53.4400 17.7967 0.2104
53.4600 17.8034 0.2040
53.4800 17.8101 0.2207
53.5000 17.8167 0.2105
53.5200 17.8234 0.2077
53.5400 17.8300 0.2218
53.5600 17.8366 0.2060
53.5800 17.8433 0.2110
53.6000 17.8500 0.2179
53.6200 17.8567 0.2089
53.6400 17.8633 0.2095
53.6600 17.8700 0.2190
53.6800 17.8767 0.2044
53.7000 17.8833 0.2094
53.7200 17.8899 0.2191
53.7400 17.8966 0.2036
53.7600 17.9033 0.2173
53.7800 17.9100 0.2129
53.8000 17.9167 0.2039
53.8200 17.9234 0.2192
53.8400 17.9300 0.2098
53.8600 17.9367 0.2026
53.8800 17.9434 0.2166
53.9000 17.9500 0.2115
53.9200 17.9566 0.2089
53.9400 17.9633 0.2135
53.9600 17.9700 0.2099
53.9800 17.9767 0.2054
54.0000 17.9834 0.2145
54.0200 17.9901 0.2043
54.0400 17.9967 0.2110
54.0600 18.0034 0.2100
54.0800 18.0100 0.2015
54.1000 18.0166 0.2069
54.1200 18.0233 0.2155
54.1400 18.0300 0.2076
54.1600 18.0367 0.2040
54.1800 18.0434 0.2080
54.2000 18.0501 0.2046
54.2200 18.0568 0.2062
54.2400 18.0634 0.2123
54.2600 18.0700 0.2029
54.2800 18.0766 0.2093
54.3000 18.0833 0.2113
54.3200 18.0900 0.2014
54.3400 18.0967 0.2038
54.3600 18.1034 0.2125
54.3800 18.1101 0.2044
54.4000 18.1167 0.2002
54.4200 18.1233 0.2089
54.4400 18.1299 0.2069
54.4600 18.1366 0.2059
54.4800 18.1433 0.2053
54.5000 18.1500 0.2055
54.5200 18.1567 0.2082
54.5400 18.1633 0.2031
54.5600 18.1700 0.2063
54.5800 18.1767 0.2040
54.6000 18.1833 0.1988
54.6200 18.1900 0.2098
54.6400 18.1966 0.2025
54.6600 18.2033 0.2000
54.6800 18.2100 0.2070
54.7000 18.2167 0.1999
54.7200 18.2234 0.2005
54.7400 18.2301 0.2107
54.7600 18.2368 0.2001
54.7800 18.2434 0.1997
54.8000 18.2500 0.2075
54.8200 18.2566 0.1990
54.8400 18.2633 0.2035
54.8600 18.2700 0.2072
54.8800 18.2768 0.1911
54.9000 18.2834 0.2074
54.9200 18.2901 0.2048
54.9400 18.2967 0.1923
54.9600 18.3034 0.2085
54.9800 18.3100 0.2026
55.0000 18.3166 0.1947
55.0200 18.3233 0.2060
55.0400 18.3300 0.2093
55.0600 18.3367 0.1965
55.0800 18.3433 0.2027
55.1000 18.3500 0.2004
55.1200 18.3567 0.1936
55.1400 18.3633 0.2089
55.1600 18.3699 0.2004
55.1800 18.3765 0.1942
55.2000 18.3832 0.2089
55.2200 18.3899 0.1954
55.2400 18.3966 0.2022
55.2600 18.4033 0.2046
55.2800 18.4100 0.1989
55.3000 18.4167 0.1921
55.3200 18.4233 0.2025
55.3400 18.4299 0.2008
55.3600 18.4366 0.1983
55.3800 18.4433 0.1997
55.4000 18.4500 0.2005
55.4200 18.4567 0.1961
55.4400 18.4634 0.2024
55.4600 18.4701 0.2057
55.4800 18.4768 0.1908
55.5000 18.4834 0.1959
55.5200 18.4900 0.2047
55.5400 18.4967 0.1907
55.5600 18.5033 0.1961
55.5800 18.5100 0.1986
55.6000 18.5167 0.1893
55.6200 18.5234 0.2031
55.6400 18.5301 0.1952
55.6600 18.5367 0.1918
55.6800 18.5434 0.1983
55.7000 18.5500 0.1944
55.7200 18.5566 0.1917
55.7400 18.5633 0.2025
55.7600 18.5700 0.1934
55.7800 18.5767 0.1874
55.8000 18.5834 0.1912
55.8200 18.5900 0.1923
55.8400 18.5967 0.1964
55.8600 18.6034 0.1997
55.8800 18.6100 0.1852
55.9000 18.6166 0.1928
55.9200 18.6232 0.1957
55.9400 18.6300 0.1890
55.9600 18.6367 0.1947
55.9800 18.6434 0.1893
56.0000 18.6500 0.1860
56.0200 18.6567 0.1931
56.0400 18.6634 0.1881
56.0600 18.6700 0.1903
56.0800 18.6766 0.1923
56.1000 18.6833 0.1856
56.1200 18.6900 0.1933
56.1400 18.6967 0.1894
56.1600 18.7034 0.1835
56.1800 18.7101 0.1962
56.2000 18.7168 0.1892
56.2200 18.7234 0.1802
56.2400 18.7300 0.1957
56.2600 18.7366 0.1905
56.2800 18.7433 0.1839
56.3000 18.7500 0.1914
56.3200 18.7567 0.1881
56.3400 18.7634 0.1830
56.3600 18.7701 0.1880
56.3800 18.7767 0.1865
56.4000 18.7834 0.1846
56.4200 18.7900 0.1933
56.4400 18.7966 0.1857
56.4600 18.8033 0.1830
56.4800 18.8100 0.1936
56.5000 18.8167 0.1798
56.5200 18.8234 0.1899
56.5400 18.8300 0.1917
56.5600 18.8367 0.1812
56.5800 18.8434 0.1853
56.6000 18.8500 0.1897
56.6200 18.8566 0.1845
56.6400 18.8632 0.1912
56.6600 18.8699 0.1899
56.6800 18.8767 0.1880
56.7000 18.8834 0.1859
56.7200 18.8900 0.1880
56.7400 18.8967 0.1868
56.7600 18.9034 0.1869
56.7800 18.9100 0.1862
56.8000 18.9166 0.1952
56.8200 18.9233 0.1825
56.8400 18.9300 0.1810
56.8600 18.9367 0.1944
56.8800 18.9434 0.1848
56.9000 18.9501 0.1894
56.9200 18.9568 0.1860
56.9400 18.9634 0.1838
56.9600 18.9700 0.1846
56.9800 18.9766 0.1903
57.0000 18.9833 0.1844
57.0200 18.9900 0.1915
57.0400 18.9967 0.1897
57.0600 19.0034 0.1785
57.0800 19.0101 0.1880
57.1000 19.0167 0.1936
57.1200 19.0234 0.1806
57.1400 19.0300 0.1878
57.1600 19.0366 0.1886
57.1800 19.0432 0.1827
57.2000 19.0499 0.1836
57.2200 19.0567 0.1912
57.2400 19.0634 0.1803
57.2600 19.0700 0.1834
57.2800 19.0767 0.1909
57.3000 19.0834 0.1756
57.3200 19.0900 0.1798
57.3400 19.0966 0.1924
57.3600 19.1032 0.1813
57.3800 19.1099 0.1766
57.4000 19.1167 0.1913
57.4200 19.1234 0.1839
57.4400 19.1300 0.1808
57.4600 19.1367 0.1881
57.4800 19.1434 0.1773
57.5000 19.1500 0.1819
57.5200 19.1566 0.1902
57.5400 19.1633 0.1757
57.5600 19.1700 0.1846
57.5800 19.1767 0.1874
57.6000 19.1834 0.1769
57.6200 19.1901 0.1775
57.6400 19.1967 0.1900
57.6600 19.2034 0.1756
57.6800 19.2100 0.1770
57.7000 19.2166 0.1877
57.7200 19.2233 0.1761
57.7400 19.2300 0.1791
57.7600 19.2367 0.1830
57.7800 19.2434 0.1762
57.8000 19.2501 0.1845
57.8200 19.2568 0.1800
57.8400 19.2634 0.1787
57.8600 19.2700 0.1804
57.8800 19.2766 0.1829
57.9000 19.2833 0.1761
57.9200 19.2899 0.1781
57.9400 19.2967 0.1848
57.9600 19.3033 0.1742
57.9800 19.3100 0.1825
58.0000 19.3167 0.1828
58.0200 19.3234 0.1760
58.0400 19.3300 0.1807
58.0600 19.3366 0.1774
58.0800 19.3432 0.1761
58.1000 19.3499 0.1836
58.1200 19.3567 0.1753
58.1400 19.3633 0.1819
58.1600 19.3700 0.1786
58.1800 19.3767 0.1731
58.2000 19.3834 0.1803
58.2200 19.3900 0.1842
58.2400 19.3966 0.1717
58.2600 19.4033 0.1795
58.2800 19.4100 0.1788
58.3000 19.4167 0.1766
58.3200 19.4234 0.1759
58.3400 19.4300 0.1751
58.3600 19.4368 0.1736
58.3800 19.4434 0.1779
58.4000 19.4500 0.1739
58.4200 19.4566 0.1769
58.4400 19.4633 0.1754
58.4600 19.4700 0.1724
58.4800 19.4767 0.1763
58.5000 19.4834 0.1769
58.5200 19.4901 0.1666
58.5400 19.4968 0.1799
58.5600 19.5034 0.1734
58.5800 19.5100 0.1551
58.6000 19.5166 0.1854
58.6200 19.5233 0.1765
58.6400 19.5300 0.1582
58.6600 19.5367 0.1764
58.6800 19.5434 0.1737
58.7000 19.5500 0.1643
58.7200 19.5567 0.1793
58.7400 19.5634 0.1633
58.7600 19.5700 0.1659
58.7800 19.5766 0.1841
58.8000 19.5832 0.1621
58.8200 19.5899 0.1650
58.8400 19.5966 0.1798
58.8600 19.6033 0.1606
58.8800 19.6100 0.1708
58.9000 19.6167 0.1773
58.9200 19.6234 0.1597
58.9400 19.6300 0.1668
58.9600 19.6366 0.1766
58.9800 19.6433 0.1599
59.0000 19.6500 0.1691
59.0200 19.6567 0.1700
59.0400 19.6634 0.1594
59.0600 19.6701 0.1681
59.0800 19.6768 0.1719
59.1000 19.6834 0.1640
59.1200 19.6901 0.1689
59.1400 19.6967 0.1636
59.1600 19.7033 0.1647
59.1800 19.7100 0.1694
59.2000 19.7167 0.1638
59.2200 19.7234 0.1626
59.2400 19.7301 0.1646
59.2600 19.7367 0.1682
59.2800 19.7434 0.1673
59.3000 19.7500 0.1482
59.3010 19.7503 0.1466
