Raw Data
Time Displacement Force
(s) (mm) (N)
0.0000 0.0001 0.7835
0.0200 0.0002 0.7892
0.0400 0.0010 0.8152
0.0600 0.0043 0.8289
0.0800 0.0098 0.7872
0.1000 0.0156 0.7858
0.1200 0.0215 0.8161
0.1400 0.0283 0.7998
0.1600 0.0356 0.7984
0.1800 0.0431 0.8000
0.2000 0.0502 0.7942
0.2200 0.0570 0.8023
0.2400 0.0637 0.8065
0.2600 0.0704 0.8050
0.2800 0.0770 0.8089
0.3000 0.0837 0.8170
0.3200 0.0905 0.8076
0.3400 0.0972 0.8139
0.3600 0.1039 0.8219
0.3800 0.1105 0.8203
0.4000 0.1171 0.8221
0.4200 0.1238 0.8203
0.4400 0.1305 0.8265
0.4600 0.1372 0.8253
0.4800 0.1439 0.8284
0.5000 0.1506 0.8348
0.5200 0.1573 0.8328
0.5400 0.1639 0.8278
0.5600 0.1705 0.8416
0.5800 0.1771 0.8400
0.6000 0.1838 0.8366
0.6200 0.1905 0.8472
0.6400 0.1972 0.8400
0.6600 0.2039 0.8414
0.6800 0.2106 0.8610
0.7000 0.2172 0.8446
0.7200 0.2239 0.8487
0.7400 0.2305 0.8616
0.7600 0.2371 0.8538
0.7800 0.2438 0.8607
0.8000 0.2505 0.8627
0.8200 0.2572 0.8581
0.8400 0.2639 0.8683
0.8600 0.2705 0.8658
0.8800 0.2772 0.8579
0.9000 0.2839 0.8715
0.9200 0.2905 0.8716
0.9400 0.2971 0.8641
0.9600 0.3037 0.8751
0.9800 0.3105 0.8741
1.0000 0.3172 0.8732
1.0200 0.3239 0.8802
1.0400 0.3305 0.8751
1.0600 0.3372 0.8756
1.0800 0.3438 0.8819
1.1000 0.3504 0.8814
1.1200 0.3571 0.8759
1.1400 0.3638 0.8879
1.1600 0.3705 0.8807
1.1800 0.3772 0.8772
1.2000 0.3839 0.8878
1.2200 0.3906 0.8844
1.2400 0.3973 0.8802
1.2600 0.4039 0.8846
1.2800 0.4106 0.8835
1.3000 0.4172 0.8841
1.3200 0.4239 0.8843
1.3400 0.4306 0.8822
1.3600 0.4372 0.8789
1.3800 0.4439 0.8904
1.4000 0.4506 0.8895
1.4200 0.4573 0.8806
1.4400 0.4639 0.8833
1.4600 0.4705 0.8853
1.4800 0.4771 0.8867
1.5000 0.4837 0.8847
1.5200 0.4904 0.8848
1.5400 0.4971 0.8853
1.5600 0.5038 0.8782
1.5800 0.5105 0.8865
1.6000 0.5172 0.8900
1.6200 0.5238 0.8820
1.6400 0.5304 0.8854
1.6600 0.5371 0.8907
1.6800 0.5438 0.8821
1.7000 0.5505 0.8805
1.7200 0.5572 0.8874
1.7400 0.5639 0.8798
1.7600 0.5706 0.8841
1.7800 0.5772 0.8830
1.8000 0.5839 0.8838
1.8200 0.5905 0.8842
1.8400 0.5972 0.8833
1.8600 0.6038 0.8828
1.8800 0.6105 0.8858
1.9000 0.6172 0.8786
1.9200 0.6239 0.8841
1.9400 0.6306 0.8895
1.9600 0.6373 0.8865
1.9800 0.6439 0.8827
2.0000 0.6505 0.8864
2.0200 0.6571 0.8884
2.0400 0.6638 0.8853
2.0600 0.6705 0.8886
2.0800 0.6773 0.8838
2.1000 0.6839 0.8897
2.1200 0.6906 0.8884
2.1400 0.6972 0.8834
2.1600 0.7039 0.8916
2.1800 0.7105 0.8910
2.2000 0.7171 0.8869
2.2200 0.7238 0.8867
2.2400 0.7305 0.8907
2.2600 0.7372 0.8878
2.2800 0.7439 0.8872
2.3000 0.7505 0.8904
2.3200 0.7572 0.8903
2.3400 0.7639 0.8907
2.3600 0.7705 0.8891
2.3800 0.7771 0.8944
2.4000 0.7838 0.8898
2.4200 0.7905 0.8946
2.4400 0.7972 0.8918
2.4600 0.8039 0.8913
2.4800 0.8105 0.8959
2.5000 0.8172 0.8940
2.5200 0.8239 0.8883
2.5400 0.8305 0.8933
2.5600 0.8371 0.8933
2.5800 0.8438 0.8938
2.6000 0.8505 0.8938
2.6200 0.8573 0.8907
2.6400 0.8640 0.8898
2.6600 0.8706 0.8944
2.6800 0.8773 0.8885
2.7000 0.8839 0.8917
2.7200 0.8905 0.8963
2.7400 0.8971 0.8982
2.7600 0.9038 0.8910
2.7800 0.9106 0.8932
2.8000 0.9173 0.8931
2.8200 0.9239 0.8940
2.8400 0.9306 0.8895
2.8600 0.9373 0.8979
2.8800 0.9439 0.8943
2.9000 0.9505 0.8918
2.9200 0.9571 0.8929
2.9400 0.9638 0.8914
2.9600 0.9705 0.8967
2.9800 0.9772 0.8974
3.0000 0.9839 0.8920
3.0200 0.9906 0.8910
3.0400 0.9973 0.8990
3.0600 1.0039 0.8939
3.0800 1.0105 0.8881
3.1000 1.0171 0.9044
3.1200 1.0237 0.8975
3.1400 1.0305 0.8875
3.1600 1.0372 0.9011
3.1800 1.0439 0.8904
3.2000 1.0505 0.8958
3.2200 1.0572 0.9036
3.2400 1.0639 0.8878
3.2600 1.0705 0.8961
3.2800 1.0771 0.9035
3.3000 1.0838 0.8915
3.3200 1.0905 0.8958
3.3400 1.0972 0.9030
3.3600 1.1039 0.8941
3.3800 1.1106 0.8980
3.4000 1.1173 0.9077
3.4200 1.1240 0.8870
3.4400 1.1306 0.9030
3.4600 1.1372 0.9043
3.4800 1.1438 0.8914
3.5000 1.1505 0.9055
3.5200 1.1572 0.9063
3.5400 1.1639 0.8903
3.5600 1.1706 0.8992
3.5800 1.1773 0.9080
3.6000 1.1839 0.8925
3.6200 1.1905 0.9003
3.6400 1.1971 0.9142
3.6600 1.2038 0.8930
3.6800 1.2105 0.9027
3.7000 1.2172 0.9042
3.7200 1.2239 0.8923
3.7400 1.2306 0.9043
3.7600 1.2372 0.9074
3.7800 1.2439 0.8935
3.8000 1.2505 0.9059
3.8200 1.2571 0.9127
3.8400 1.2638 0.8964
3.8600 1.2705 0.9062
3.8800 1.2772 0.9086
3.9000 1.2839 0.9005
3.9200 1.2905 0.9083
3.9400 1.2972 0.9050
3.9600 1.3039 0.9025
3.9800 1.3105 0.9084
4.0000 1.3172 0.9048
4.0200 1.3238 0.9046
4.0400 1.3305 0.9093
4.0600 1.3372 0.9065
4.0800 1.3439 0.9058
4.1000 1.3506 0.9073
4.1200 1.3573 0.9064
4.1400 1.3639 0.9093
4.1600 1.3705 0.9031
4.1800 1.3772 0.9111
4.2000 1.3838 0.9115
4.2200 1.3905 0.9047
4.2400 1.3972 0.9056
4.2600 1.4039 0.9079
4.2800 1.4106 0.9063
4.3000 1.4173 0.9081
4.3200 1.4239 0.9092
4.3400 1.4305 0.9045
4.3600 1.4372 0.9050
4.3800 1.4438 0.9110
4.4000 1.4505 0.9112
4.4200 1.4572 0.9089
4.4400 1.4639 0.9088
4.4600 1.4705 0.9068
4.4800 1.4772 0.9116
4.5000 1.4839 0.9099
4.5200 1.4905 0.9058
4.5400 1.4971 0.9139
4.5600 1.5038 0.9126
4.5800 1.5105 0.9026
4.6000 1.5172 0.9114
4.6200 1.5239 0.9089
4.6400 1.5306 0.9038
4.6600 1.5372 0.9120
4.6800 1.5439 0.9123
4.7000 1.5505 0.9024
4.7200 1.5571 0.9128
4.7400 1.5638 0.9109
4.7600 1.5705 0.9025
4.7800 1.5772 0.9167
4.8000 1.5840 0.9049
4.8200 1.5906 0.9031
4.8400 1.5973 0.9199
4.8600 1.6039 0.9016
4.8800 1.6106 0.9098
4.9000 1.6172 0.9153
4.9200 1.6238 0.9049
4.9400 1.6305 0.9086
4.9600 1.6372 0.9120
4.9800 1.6439 0.9017
5.0000 1.6506 0.9138
5.0200 1.6573 0.9064
5.0400 1.6640 0.8996
5.0600 1.6706 0.9167
5.0800 1.6771 0.9077
5.1000 1.6838 0.9044
5.1200 1.6904 0.9136
5.1400 1.6972 0.9098
5.1600 1.7039 0.9031
5.1800 1.7106 0.9167
5.2000 1.7173 0.9090
5.2200 1.7239 0.9019
5.2400 1.7306 0.9153
5.2600 1.7371 0.9062
5.2800 1.7438 0.9053
5.3000 1.7504 0.9195
5.3200 1.7572 0.9004
5.3400 1.7639 0.9088
5.3600 1.7705 0.9139
5.3800 1.7772 0.9033
5.4000 1.7839 0.9109
5.4200 1.7905 0.9064
5.4400 1.7971 0.8975
5.4600 1.8038 0.9182
5.4800 1.8105 0.9120
5.5000 1.8172 0.9003
5.5200 1.8239 0.9132
5.5400 1.8306 0.9056
5.5600 1.8373 0.9021
5.5800 1.8440 0.9181
5.6000 1.8506 0.9027
5.6200 1.8572 0.9069
5.6400 1.8638 0.9186
5.6600 1.8705 0.9018
5.6800 1.8772 0.9026
5.7000 1.8839 0.9138
5.7200 1.8906 0.9047
5.7400 1.8973 0.9021
5.7600 1.9039 0.9124
5.7800 1.9105 0.9040
5.8000 1.9171 0.9044
5.8200 1.9238 0.9174
5.8400 1.9305 0.9040
5.8600 1.9372 0.8999
5.8800 1.9439 0.9097
5.9000 1.9505 0.9062
5.9200 1.9572 0.9017
5.9400 1.9639 0.9102
5.9600 1.9705 0.9097
5.9800 1.9771 0.9052
6.0000 1.9838 0.9094
6.0200 1.9905 0.9090
6.0400 1.9972 0.9087
6.0600 2.0039 0.9059
6.0800 2.0106 0.9088
6.1000 2.0173 0.9042
6.1200 2.0239 0.9009
6.1400 2.0306 0.9052
6.1600 2.0372 0.9084
6.1800 2.0438 0.9046
6.2000 2.0505 0.9103
6.2200 2.0572 0.9027
6.2400 2.0639 0.9048
6.2600 2.0706 0.9093
6.2800 2.0773 0.9016
6.3000 2.0839 0.8981
6.3200 2.0905 0.9098
6.3400 2.0971 0.8989
6.3600 2.1038 0.9008
6.3800 2.1105 0.9093
6.4000 2.1172 0.9004
6.4200 2.1239 0.9012
6.4400 2.1306 0.9134
6.4600 2.1372 0.9007
6.4800 2.1439 0.8982
6.5000 2.1506 0.9125
6.5200 2.1572 0.8984
6.5400 2.1638 0.9025
6.5600 2.1705 0.9128
6.5800 2.1772 0.9002
6.6000 2.1839 0.9019
6.6200 2.1905 0.9072
6.6400 2.1972 0.9022
6.6600 2.2040 0.9048
6.6800 2.2106 0.9044
6.7000 2.2172 0.9006
6.7200 2.2238 0.9042
6.7400 2.2304 0.9045
6.7600 2.2371 0.9016
6.7800 2.2438 0.9081
6.8000 2.2505 0.8993
6.8200 2.2572 0.9032
6.8400 2.2639 0.9062
6.8600 2.2706 0.9001
6.8800 2.2772 0.9035
6.9000 2.2838 0.9049
6.9200 2.2905 0.9000
6.9400 2.2972 0.9023
6.9600 2.3039 0.9015
6.9800 2.3106 0.9009
7.0000 2.3173 0.9051
7.0200 2.3239 0.9001
7.0400 2.3306 0.8988
7.0600 2.3372 0.9061
7.0800 2.3438 0.8998
7.1000 2.3505 0.9066
7.1200 2.3572 0.9052
7.1400 2.3639 0.8966
7.1600 2.3706 0.9053
7.1800 2.3773 0.9007
7.2000 2.3839 0.8939
7.2200 2.3906 0.9106
7.2400 2.3972 0.8980
7.2600 2.4038 0.8991
7.2800 2.4105 0.9088
7.3000 2.4172 0.8929
7.3200 2.4239 0.9000
7.3400 2.4306 0.9043
7.3600 2.4373 0.8965
7.3800 2.4439 0.8988
7.4000 2.4505 0.9035
7.4200 2.4572 0.8927
7.4400 2.4638 0.9047
7.4600 2.4705 0.9055
7.4800 2.4772 0.8923
7.5000 2.4839 0.8991
7.5200 2.4905 0.8966
7.5400 2.4972 0.8938
7.5600 2.5039 0.9061
7.5800 2.5105 0.8959
7.6000 2.5172 0.8932
7.6200 2.5238 0.9043
7.6400 2.5305 0.8976
7.6600 2.5372 0.8895
7.6800 2.5439 0.9057
7.7000 2.5506 0.8953
7.7200 2.5573 0.8932
7.7400 2.5640 0.9034
7.7600 2.5706 0.8929
7.7800 2.5772 0.8946
7.8000 2.5838 0.9027
7.8200 2.5905 0.8936
7.8400 2.5972 0.8949
7.8600 2.6039 0.8963
7.8800 2.6106 0.8954
7.9000 2.6173 0.8939
7.9200 2.6239 0.8967
7.9400 2.6306 0.8966
7.9600 2.6372 0.8943
7.9800 2.6438 0.8946
8.0000 2.6505 0.8990
8.0200 2.6572 0.8972
8.0400 2.6639 0.8930
8.0600 2.6705 0.8985
8.0800 2.6772 0.8931
8.1000 2.6839 0.8951
8.1200 2.6906 0.8942
8.1400 2.6972 0.8901
8.1600 2.7038 0.8986
8.1800 2.7104 0.9020
8.2000 2.7171 0.8924
8.2200 2.7239 0.8966
8.2400 2.7306 0.8916
8.2600 2.7373 0.8927
8.2800 2.7439 0.8956
8.3000 2.7506 0.8928
8.3200 2.7572 0.8932
8.3400 2.7638 0.8975
8.3600 2.7704 0.8905
8.3800 2.7771 0.8937
8.4000 2.7838 0.8948
8.4200 2.7905 0.8923
8.4400 2.7972 0.8910
8.4600 2.8039 0.8926
8.4800 2.8106 0.8923
8.5000 2.8172 0.8981
8.5200 2.8238 0.8916
8.5400 2.8305 0.8945
8.5600 2.8372 0.8952
8.5800 2.8439 0.8913
8.6000 2.8506 0.8923
8.6200 2.8573 0.8888
8.6400 2.8640 0.8956
8.6600 2.8706 0.8894
8.6800 2.8772 0.8855
8.7000 2.8838 0.8985
8.7200 2.8904 0.8953
8.7400 2.8971 0.8869
8.7600 2.9039 0.8943
8.7800 2.9106 0.8916
8.8000 2.9172 0.8858
8.8200 2.9239 0.8935
8.8400 2.9306 0.8890
8.8600 2.9372 0.8884
8.8800 2.9438 0.9001
8.9000 2.9504 0.8883
8.9200 2.9571 0.8883
8.9400 2.9638 0.8952
8.9600 2.9705 0.8901
8.9800 2.9772 0.8938
9.0000 2.9839 0.8928
9.0200 2.9905 0.8856
9.0400 2.9972 0.8949
9.0600 3.0038 0.8944
9.0800 3.0105 0.8847
9.1000 3.0172 0.8935
9.1200 3.0239 0.8968
9.1400 3.0306 0.8812
9.1600 3.0373 0.8921
9.1800 3.0439 0.8928
9.2000 3.0506 0.8862
9.2200 3.0572 0.8915
9.2400 3.0638 0.8904
9.2600 3.0705 0.8867
9.2800 3.0772 0.8946
9.3000 3.0839 0.8883
9.3200 3.0906 0.8864
9.3400 3.0973 0.8936
9.3600 3.1040 0.8829
9.3800 3.1106 0.8878
9.4000 3.1172 0.8968
9.4200 3.1238 0.8858
9.4400 3.1304 0.8929
9.4600 3.1372 0.8890
9.4800 3.1439 0.8848
9.5000 3.1506 0.8923
9.5200 3.1572 0.8889
9.5400 3.1639 0.8891
9.5600 3.1706 0.8879
9.5800 3.1772 0.8888
9.6000 3.1838 0.8859
9.6200 3.1905 0.8890
9.6400 3.1972 0.8878
9.6600 3.2039 0.8828
9.6800 3.2105 0.8931
9.7000 3.2172 0.8917
9.7200 3.2239 0.8836
9.7400 3.2305 0.8901
9.7600 3.2372 0.8859
9.7800 3.2438 0.8864
9.8000 3.2505 0.8868
9.8200 3.2572 0.8917
9.8400 3.2639 0.8841
9.8600 3.2706 0.8821
9.8800 3.2773 0.8887
9.9000 3.2840 0.8866
9.9200 3.2906 0.8861
9.9400 3.2972 0.8886
9.9600 3.3038 0.8831
9.9800 3.3105 0.8891
10.0000 3.3172 0.8902
10.0200 3.3239 0.8810
10.0400 3.3306 0.8906
10.0600 3.3373 0.8909
10.0800 3.3439 0.8803
10.1000 3.3506 0.8834
10.1200 3.3572 0.8950
10.1400 3.3638 0.8819
10.1600 3.3705 0.8886
10.1800 3.3771 0.8901
10.2000 3.3838 0.8778
10.2200 3.3905 0.8864
10.2400 3.3972 0.8874
10.2600 3.4039 0.8809
10.2800 3.4106 0.8854
10.3000 3.4172 0.8841
10.3200 3.4238 0.8790
10.3400 3.4304 0.8846
10.3600 3.4371 0.8906
10.3800 3.4438 0.8793
10.4000 3.4505 0.8764
10.4200 3.4572 0.8864
10.4400 3.4639 0.8837
10.4600 3.4706 0.8779
10.4800 3.4772 0.8867
10.5000 3.4838 0.8772
10.5200 3.4905 0.8809
10.5400 3.4972 0.8894
10.5600 3.5039 0.8768
10.5800 3.5106 0.8824
10.6000 3.5172 0.8867
10.6200 3.5239 0.8730
10.6400 3.5306 0.8794
10.6600 3.5373 0.8827
10.6800 3.5439 0.8767
10.7000 3.5505 0.8808
10.7200 3.5571 0.8804
10.7400 3.5638 0.8775
10.7600 3.5705 0.8820
10.7800 3.5772 0.8822
10.8000 3.5839 0.8787
10.8200 3.5906 0.8792
10.8400 3.5972 0.8757
10.8600 3.6038 0.8784
10.8800 3.6105 0.8795
10.9000 3.6172 0.8779
10.9200 3.6239 0.8782
10.9400 3.6306 0.8761
10.9600 3.6373 0.8761
10.9800 3.6439 0.8783
11.0000 3.6506 0.8760
11.0200 3.6572 0.8786
11.0400 3.6638 0.8748
11.0600 3.6704 0.8779
11.0800 3.6771 0.8820
11.1000 3.6838 0.8730
11.1200 3.6905 0.8765
11.1400 3.6972 0.8808
11.1600 3.7038 0.8723
11.1800 3.7105 0.8796
11.2000 3.7172 0.8786
11.2200 3.7238 0.8735
11.2400 3.7304 0.8751
11.2600 3.7371 0.8814
11.2800 3.7438 0.8761
11.3000 3.7506 0.8751
11.3200 3.7573 0.8802
11.3400 3.7640 0.8721
11.3600 3.7707 0.8755
11.3800 3.7773 0.8838
11.4000 3.7839 0.8726
11.4200 3.7905 0.8783
11.4400 3.7972 0.8846
11.4600 3.8039 0.8704
11.4800 3.8106 0.8752
11.5000 3.8173 0.8872
11.5200 3.8239 0.8728
11.5400 3.8306 0.8740
11.5600 3.8372 0.8810
11.5800 3.8438 0.8697
11.6000 3.8505 0.8809
11.6200 3.8571 0.8783
11.6400 3.8638 0.8681
11.6600 3.8705 0.8782
11.6800 3.8772 0.8800
11.7000 3.8839 0.8665
11.7200 3.8906 0.8775
11.7400 3.8972 0.8791
11.7600 3.9038 0.8645
11.7800 3.9104 0.8782
11.8000 3.9171 0.8776
11.8200 3.9238 0.8701
11.8400 3.9305 0.8788
11.8600 3.9372 0.8714
11.8800 3.9439 0.8707
11.9000 3.9506 0.8750
11.9200 3.9572 0.8760
11.9400 3.9638 0.8694
11.9600 3.9705 0.8753
11.9800 3.9771 0.8775
12.0000 3.9839 0.8669
12.0200 3.9906 0.8692
12.0400 3.9973 0.8751
12.0600 4.0039 0.8674
12.0800 4.0106 0.8726
12.1000 4.0173 0.8747
12.1200 4.0239 0.8682
12.1400 4.0305 0.8696
12.1600 4.0372 0.8755
12.1800 4.0439 0.8684
12.2000 4.0505 0.8692
12.2200 4.0572 0.8737
12.2400 4.0639 0.8646
12.2600 4.0706 0.8733
12.2800 4.0773 0.8743
12.3000 4.0839 0.8605
12.3200 4.0905 0.8765
12.3400 4.0971 0.8785
12.3600 4.1038 0.8606
12.3800 4.1105 0.8746
12.4000 4.1172 0.8727
12.4200 4.1239 0.8640
12.4400 4.1306 0.8753
12.4600 4.1372 0.8719
12.4800 4.1438 0.8607
12.5000 4.1504 0.8727
12.5200 4.1571 0.8751
12.5400 4.1638 0.8665
12.5600 4.1705 0.8687
12.5800 4.1772 0.8659
12.6000 4.1839 0.8681
12.6200 4.1906 0.8684
12.6400 4.1972 0.8685
12.6600 4.2039 0.8714
12.6800 4.2105 0.8623
12.7000 4.2172 0.8672
12.7200 4.2238 0.8641
12.7400 4.2305 0.8662
12.7600 4.2372 0.8686
12.7800 4.2439 0.8676
12.8000 4.2506 0.8676
12.8200 4.2573 0.8654
12.8400 4.2639 0.8668
12.8600 4.2705 0.8665
12.8800 4.2771 0.8675
12.9000 4.2838 0.8651
12.9200 4.2906 0.8668
12.9400 4.2973 0.8670
12.9600 4.3039 0.8630
12.9800 4.3106 0.8648
13.0000 4.3173 0.8660
13.0200 4.3239 0.8632
13.0400 4.3305 0.8635
13.0600 4.3371 0.8667
13.0800 4.3438 0.8639
13.1000 4.3506 0.8580
13.1200 4.3572 0.8663
13.1400 4.3639 0.8630
13.1600 4.3706 0.8655
13.1800 4.3773 0.8675
13.2000 4.3839 0.8638
13.2200 4.3904 0.8609
13.2400 4.3971 0.8669
13.2600 4.4038 0.8614
13.2800 4.4105 0.8649
13.3000 4.4172 0.8652
13.3200 4.4239 0.8598
13.3400 4.4306 0.8589
13.3600 4.4373 0.8636
13.3800 4.4439 0.8552
13.4000 4.4505 0.8673
13.4200 4.4571 0.8636
13.4400 4.4638 0.8544
13.4600 4.4706 0.8642
13.4800 4.4773 0.8632
13.5000 4.4840 0.8560
13.5200 4.4906 0.8652
13.5400 4.4973 0.8582
13.5600 4.5039 0.8533
13.5800 4.5105 0.8707
13.6000 4.5172 0.8611
13.6200 4.5239 0.8592
13.6400 4.5306 0.8651
13.6600 4.5372 0.8583
13.6800 4.5439 0.8556
13.7000 4.5506 0.8691
13.7200 4.5572 0.8559
13.7400 4.5638 0.8524
13.7600 4.5704 0.8660
13.7800 4.5771 0.8570
13.8000 4.5838 0.8587
13.8200 4.5905 0.8678
13.8400 4.5972 0.8518
13.8600 4.6039 0.8588
13.8800 4.6106 0.8662
13.9000 4.6173 0.8491
13.9200 4.6239 0.8619
13.9400 4.6305 0.8674
13.9600 4.6371 0.8505
13.9800 4.6438 0.8593
14.0000 4.6505 0.8628
14.0200 4.6572 0.8551
14.0400 4.6638 0.8580
14.0600 4.6705 0.8602
14.0800 4.6772 0.8519
14.1000 4.6839 0.8593
14.1200 4.6905 0.8567
14.1400 4.6971 0.8572
14.1600 4.7038 0.8610
14.1800 4.7106 0.8594
14.2000 4.7173 0.8558
14.2200 4.7239 0.8544
14.2400 4.7306 0.8644
14.2600 4.7373 0.8541
14.2800 4.7439 0.8569
14.3000 4.7505 0.8602
14.3200 4.7572 0.8531
14.3400 4.7638 0.8564
14.3600 4.7705 0.8621
14.3800 4.7772 0.8501
14.4000 4.7839 0.8587
14.4200 4.7906 0.8598
14.4400 4.7973 0.8455
14.4600 4.8039 0.8592
14.4800 4.8105 0.8621
14.5000 4.8171 0.8462
14.5200 4.8238 0.8631
14.5400 4.8305 0.8585
14.5600 4.8372 0.8466
14.5800 4.8439 0.8594
14.6000 4.8506 0.8578
14.6200 4.8572 0.8466
14.6400 4.8639 0.8586
14.6600 4.8705 0.8574
14.6800 4.8771 0.8496
14.7000 4.8838 0.8602
14.7200 4.8905 0.8522
14.7400 4.8972 0.8470
14.7600 4.9039 0.8567
14.7800 4.9105 0.8509
14.8000 4.9172 0.8489
14.8200 4.9239 0.8557
14.8400 4.9304 0.8517
14.8600 4.9371 0.8522
14.8800 4.9438 0.8567
14.9000 4.9505 0.8487
14.9200 4.9572 0.8479
14.9400 4.9639 0.8556
14.9600 4.9706 0.8507
14.9800 4.9773 0.8491
15.0000 4.9839 0.8540
15.0200 4.9905 0.8474
15.0400 4.9971 0.8521
15.0600 5.0038 0.8543
15.0800 5.0105 0.8437
15.1000 5.0172 0.8536
15.1200 5.0239 0.8500
15.1400 5.0306 0.8480
15.1600 5.0373 0.8510
15.1800 5.0439 0.8505
15.2000 5.0505 0.8498
15.2200 5.0571 0.8527
15.2400 5.0638 0.8465
15.2600 5.0705 0.8526
15.2800 5.0772 0.8494
15.3000 5.0839 0.8419
15.3200 5.0906 0.8528
15.3400 5.0973 0.8469
15.3600 5.1039 0.8376
15.3800 5.1105 0.8555
15.4000 5.1171 0.8478
15.4200 5.1237 0.8403
15.4400 5.1305 0.8527
15.4600 5.1372 0.8455
15.4800 5.1438 0.8398
15.5000 5.1505 0.8501
15.5200 5.1572 0.8430
15.5400 5.1639 0.8446
15.5600 5.1705 0.8523
15.5800 5.1771 0.8421
15.6000 5.1838 0.8417
15.6200 5.1905 0.8489
15.6400 5.1972 0.8376
15.6600 5.2038 0.8451
15.6800 5.2105 0.8526
15.7000 5.2173 0.8341
15.7200 5.2240 0.8403
15.7400 5.2306 0.8520
15.7600 5.2372 0.8352
15.7800 5.2439 0.8452
15.8000 5.2506 0.8500
15.8200 5.2573 0.8324
15.8400 5.2639 0.8466
15.8600 5.2706 0.8451
15.8800 5.2773 0.8316
15.9000 5.2839 0.8477
15.9200 5.2905 0.8488
15.9400 5.2971 0.8275
15.9600 5.3038 0.8469
15.9800 5.3105 0.8499
16.0000 5.3172 0.8342
16.0200 5.3239 0.8415
16.0400 5.3306 0.8465
16.0600 5.3372 0.8327
16.0800 5.3439 0.8400
16.1000 5.3505 0.8438
16.1200 5.3571 0.8376
16.1400 5.3638 0.8429
16.1600 5.3705 0.8434
16.1800 5.3772 0.8270
16.2000 5.3839 0.8398
16.2200 5.3905 0.8434
16.2400 5.3972 0.8327
16.2600 5.4039 0.8401
16.2800 5.4105 0.8440
16.3000 5.4172 0.8315
16.3200 5.4238 0.8387
16.3400 5.4305 0.8429
16.3600 5.4372 0.8306
16.3800 5.4439 0.8417
16.4000 5.4506 0.8432
16.4200 5.4573 0.8331
16.4400 5.4639 0.8331
16.4600 5.4704 0.8461
16.4800 5.4770 0.8387
16.5000 5.4837 0.8413
16.5200 5.4905 0.8408
16.5400 5.4973 0.8338
16.5600 5.5040 0.8402
16.5800 5.5106 0.8404
16.6000 5.5173 0.8335
16.6200 5.5239 0.8398
16.6400 5.5305 0.8389
16.6600 5.5371 0.8391
16.6800 5.5438 0.8361
16.7000 5.5505 0.8398
16.7200 5.5572 0.8337
16.7400 5.5639 0.8378
16.7600 5.5705 0.8383
16.7800 5.5772 0.8373
16.8000 5.5839 0.8383
16.8200 5.5905 0.8380
16.8400 5.5971 0.8383
16.8600 5.6038 0.8362
16.8800 5.6105 0.8396
16.9000 5.6172 0.8345
16.9200 5.6238 0.8389
16.9400 5.6305 0.8386
16.9600 5.6373 0.8307
16.9800 5.6439 0.8386
17.0000 5.6505 0.8383
17.0200 5.6571 0.8318
17.0400 5.6638 0.8400
17.0600 5.6705 0.8349
17.0800 5.6773 0.8314
17.1000 5.6839 0.8430
17.1200 5.6906 0.8366
17.1400 5.6973 0.8289
17.1600 5.7039 0.8402
17.1800 5.7105 0.8320
17.2000 5.7171 0.8367
17.2200 5.7238 0.8392
17.2400 5.7305 0.8290
17.2600 5.7372 0.8355
17.2800 5.7439 0.8373
17.3000 5.7505 0.8269
17.3200 5.7573 0.8421
17.3400 5.7640 0.8307
17.3600 5.7706 0.8306
17.3800 5.7772 0.8413
17.4000 5.7838 0.8296
17.4200 5.7905 0.8317
17.4400 5.7972 0.8383
17.4600 5.8039 0.8259
17.4800 5.8106 0.8331
17.5000 5.8173 0.8364
17.5200 5.8239 0.8243
17.5400 5.8305 0.8352
17.5600 5.8371 0.8365
17.5800 5.8437 0.8240
17.6000 5.8505 0.8347
17.6200 5.8572 0.8330
17.6400 5.8639 0.8230
17.6600 5.8705 0.8343
17.6800 5.8772 0.8279
17.7000 5.8839 0.8266
17.7200 5.8905 0.8313
17.7400 5.8972 0.8293
17.7600 5.9038 0.8270
17.7800 5.9105 0.8309
17.8000 5.9172 0.8253
17.8200 5.9239 0.8289
17.8400 5.9306 0.8307
17.8600 5.9373 0.8239
17.8800 5.9440 0.8273
17.9000 5.9506 0.8310
17.9200 5.9572 0.8251
17.9400 5.9638 0.8286
17.9600 5.9705 0.8273
17.9800 5.9772 0.8315
18.0000 5.9840 0.8227
18.0200 5.9906 0.8243
18.0400 5.9973 0.8323
18.0600 6.0039 0.8224
18.0800 6.0105 0.8271
18.1000 6.0171 0.8338
18.1200 6.0238 0.8188
18.1400 6.0305 0.8278
18.1600 6.0372 0.8312
18.1800 6.0439 0.8146
18.2000 6.0506 0.8302
18.2200 6.0573 0.8313
18.2400 6.0639 0.8129
18.2600 6.0706 0.8291
18.2800 6.0772 0.8276
18.3000 6.0838 0.8148
18.3200 6.0905 0.8311
18.3400 6.0972 0.8246
18.3600 6.1039 0.8152
18.3800 6.1105 0.8342
18.4000 6.1172 0.8216
18.4200 6.1239 0.8142
18.4400 6.1306 0.8327
18.4600 6.1372 0.8185
18.4800 6.1438 0.8191
18.5000 6.1505 0.8306
18.5200 6.1572 0.8228
18.5400 6.1639 0.8207
18.5600 6.1706 0.8251
18.5800 6.1773 0.8175
18.6000 6.1839 0.8241
18.6200 6.1906 0.8213
18.6400 6.1972 0.8216
18.6600 6.2038 0.8251
18.6800 6.2105 0.8222
18.7000 6.2172 0.8196
18.7200 6.2239 0.8215
18.7400 6.2306 0.8144
18.7600 6.2373 0.8248
18.7800 6.2439 0.8240
18.8000 6.2506 0.8121
18.8200 6.2572 0.8240
18.8400 6.2638 0.8250
18.8600 6.2705 0.8146
18.8800 6.2771 0.8236
18.9000 6.2838 0.8207
18.9200 6.2905 0.8149
18.9400 6.2973 0.8241
18.9600 6.3039 0.8165
18.9800 6.3106 0.8145
19.0000 6.3171 0.8260
19.0200 6.3237 0.8140
19.0400 6.3304 0.8133
19.0600 6.3371 0.8251
19.0800 6.3438 0.8118
19.1000 6.3505 0.8152
19.1200 6.3572 0.8262
19.1400 6.3639 0.8083
19.1600 6.3705 0.8127
19.1800 6.3772 0.8259
19.2000 6.3838 0.8086
19.2200 6.3905 0.8202
19.2400 6.3972 0.8255
19.2600 6.4039 0.8074
19.2800 6.4106 0.8137
19.3000 6.4173 0.8259
19.3200 6.4239 0.8033
19.3400 6.4306 0.8167
19.3600 6.4372 0.8200
19.3800 6.4438 0.8027
19.4000 6.4505 0.8183
19.4200 6.4572 0.8200
19.4400 6.4639 0.8055
19.4600 6.4706 0.8202
19.4800 6.4773 0.8149
19.5000 6.4839 0.8052
19.5200 6.4906 0.8180
19.5400 6.4972 0.8156
19.5600 6.5038 0.8097
19.5800 6.5104 0.8169
19.6000 6.5172 0.8108
19.6200 6.5239 0.8118
19.6400 6.5306 0.8143
19.6600 6.5372 0.8096
19.6800 6.5439 0.8099
19.7000 6.5505 0.8134
19.7200 6.5571 0.8093
19.7400 6.5637 0.8169
19.7600 6.5704 0.8144
19.7800 6.5772 0.8082
19.8000 6.5839 0.8191
19.8200 6.5905 0.8066
19.8400 6.5972 0.8124
19.8600 6.6039 0.8152
19.8800 6.6105 0.8029
19.9000 6.6172 0.8189
19.9200 6.6238 0.8155
19.9400 6.6305 0.8012
19.9600 6.6372 0.8195
19.9800 6.6439 0.8127
20.0000 6.6506 0.8032
20.0200 6.6573 0.8164
20.0400 6.6640 0.8097
20.0600 6.6706 0.8007
20.0800 6.6772 0.8217
20.1000 6.6838 0.8069
20.1200 6.6905 0.8073
20.1400 6.6972 0.8190
20.1600 6.7039 0.8069
20.1800 6.7106 0.8061
20.2000 6.7173 0.8175
20.2200 6.7240 0.8066
20.2400 6.7306 0.8099
20.2600 6.7372 0.8186
20.2800 6.7438 0.8071
20.3000 6.7505 0.8091
20.3200 6.7572 0.8160
20.3400 6.7639 0.8041
20.3600 6.7705 0.8110
20.3800 6.7772 0.8119
20.4000 6.7839 0.8043
20.4200 6.7905 0.8129
20.4400 6.7972 0.8091
20.4600 6.8038 0.8088
20.4800 6.8104 0.8075
20.5000 6.8171 0.8082
20.5200 6.8239 0.8114
20.5400 6.8305 0.8112
20.5600 6.8372 0.8007
20.5800 6.8439 0.8130
20.6000 6.8506 0.8053
20.6200 6.8572 0.8005
20.6400 6.8638 0.8118
20.6600 6.8705 0.8076
20.6800 6.8772 0.7962
20.7000 6.8839 0.8129
20.7200 6.8906 0.8013
20.7400 6.8973 0.8054
20.7600 6.9040 0.8141
20.7800 6.9106 0.7944
20.8000 6.9172 0.8050
20.8200 6.9238 0.8126
20.8400 6.9305 0.7915
20.8600 6.9372 0.8115
20.8800 6.9439 0.8105
20.9000 6.9506 0.7904
20.9200 6.9573 0.8063
20.9400 6.9639 0.8079
20.9600 6.9706 0.7965
20.9800 6.9772 0.8144
21.0000 6.9838 0.8007
21.0200 6.9905 0.7975
21.0400 6.9972 0.8121
21.0600 7.0039 0.7948
21.0800 7.0105 0.8003
21.1000 7.0172 0.8085
21.1200 7.0239 0.7988
21.1400 7.0306 0.8039
21.1600 7.0372 0.8037
21.1800 7.0438 0.7946
21.2000 7.0504 0.8098
21.2200 7.0571 0.8010
21.2400 7.0638 0.7982
21.2600 7.0705 0.8031
21.2800 7.0772 0.7989
21.3000 7.0839 0.7970
21.3200 7.0905 0.8046
21.3400 7.0971 0.7969
21.3600 7.1038 0.7966
21.3800 7.1104 0.8113
21.4000 7.1172 0.7952
21.4200 7.1239 0.8008
21.4400 7.1306 0.8078
21.4600 7.1372 0.7950
21.4800 7.1439 0.7969
21.5000 7.1506 0.7989
21.5200 7.1572 0.7986
21.5400 7.1638 0.7991
21.5600 7.1705 0.7983
21.5800 7.1772 0.7949
21.6000 7.1839 0.8002
21.6200 7.1906 0.7978
21.6400 7.1973 0.7965
21.6600 7.2039 0.7985
21.6800 7.2106 0.7937
21.7000 7.2172 0.7955
21.7200 7.2238 0.7982
21.7400 7.2304 0.7961
21.7600 7.2372 0.7974
21.7800 7.2439 0.7978
21.8000 7.2506 0.7928
21.8200 7.2572 0.8013
21.8400 7.2639 0.7949
21.8600 7.2706 0.7937
21.8800 7.2772 0.7960
21.9000 7.2838 0.7967
21.9200 7.2904 0.7962
21.9400 7.2971 0.7976
21.9600 7.3038 0.7948
21.9800 7.3105 0.7934
22.0000 7.3172 0.7911
22.0200 7.3239 0.7977
22.0400 7.3306 0.7934
22.0600 7.3372 0.7904
22.0800 7.3438 0.7981
22.1000 7.3505 0.7982
22.1200 7.3572 0.7888
22.1400 7.3639 0.7941
22.1600 7.3706 0.7947
22.1800 7.3773 0.7906
22.2000 7.3840 0.7909
22.2200 7.3906 0.7927
22.2400 7.3972 0.7895
22.2600 7.4038 0.7929
22.2800 7.4105 0.7963
22.3000 7.4172 0.7900
22.3200 7.4239 0.7895
22.3400 7.4306 0.7953
22.3600 7.4373 0.7888
22.3800 7.4439 0.7905
22.4000 7.4506 0.7965
22.4200 7.4572 0.7874
22.4400 7.4638 0.7878
22.4600 7.4704 0.7975
22.4800 7.4771 0.7897
22.5000 7.4839 0.7853
22.5200 7.4905 0.7971
22.5400 7.4972 0.7867
22.5600 7.5039 0.7893
22.5800 7.5106 0.7933
22.6000 7.5172 0.7850
22.6200 7.5238 0.7896
22.6400 7.5304 0.7949
22.6600 7.5371 0.7833
22.6800 7.5438 0.7864
22.7000 7.5505 0.7959
22.7200 7.5572 0.7847
22.7400 7.5639 0.7834
22.7600 7.5706 0.7929
22.7800 7.5772 0.7812
22.8000 7.5838 0.7857
22.8200 7.5905 0.7934
22.8400 7.5972 0.7844
22.8600 7.6039 0.7848
22.8800 7.6106 0.7906
22.9000 7.6172 0.7810
22.9200 7.6239 0.7873
22.9400 7.6306 0.7942
22.9600 7.6373 0.7786
22.9800 7.6439 0.7864
23.0000 7.6505 0.7892
23.0200 7.6572 0.7770
23.0400 7.6639 0.7871
23.0600 7.6706 0.7945
23.0800 7.6772 0.7776
23.1000 7.6839 0.7875
23.1200 7.6906 0.7841
23.1400 7.6973 0.7771
23.1600 7.7038 0.7894
23.1800 7.7105 0.7860
23.2000 7.7171 0.7787
23.2200 7.7239 0.7858
23.2400 7.7306 0.7830
23.2600 7.7373 0.7786
23.2800 7.7439 0.7870
23.3000 7.7506 0.7838
23.3200 7.7572 0.7759
23.3400 7.7638 0.7887
23.3600 7.7704 0.7819
23.3800 7.7771 0.7795
23.4000 7.7838 0.7848
23.4200 7.7905 0.7875
23.4400 7.7972 0.7733
23.4600 7.8039 0.7820
23.4800 7.8105 0.7837
23.5000 7.8172 0.7756
23.5200 7.8238 0.7832
23.5400 7.8305 0.7860
23.5600 7.8372 0.7773
23.5800 7.8439 0.7826
23.6000 7.8506 0.7802
23.6200 7.8572 0.7756
23.6400 7.8639 0.7830
23.6600 7.8706 0.7836
23.6800 7.8773 0.7704
23.7000 7.8838 0.7834
23.7200 7.8905 0.7861
23.7400 7.8972 0.7713
23.7600 7.9039 0.7807
23.7800 7.9106 0.7807
23.8000 7.9173 0.7751
23.8200 7.9240 0.7777
23.8400 7.9306 0.7790
23.8600 7.9372 0.7719
23.8800 7.9438 0.7828
23.9000 7.9505 0.7823
23.9200 7.9572 0.7753
23.9400 7.9639 0.7805
23.9600 7.9705 0.7778
23.9800 7.9772 0.7711
24.0000 7.9839 0.7778
24.0200 7.9906 0.7806
24.0400 7.9972 0.7735
24.0600 8.0039 0.7723
24.0800 8.0105 0.7782
24.1000 8.0172 0.7745
24.1200 8.0238 0.7743
24.1400 8.0305 0.7768
24.1600 8.0372 0.7762
24.1800 8.0439 0.7740
24.2000 8.0506 0.7739
24.2200 8.0572 0.7737
24.2400 8.0638 0.7730
24.2600 8.0704 0.7764
24.2800 8.0771 0.7754
24.3000 8.0839 0.7681
24.3200 8.0906 0.7775
24.3400 8.0973 0.7745
24.3600 8.1040 0.7677
24.3800 8.1106 0.7736
24.4000 8.1172 0.7745
24.4200 8.1238 0.7705
24.4400 8.1305 0.7749
24.4600 8.1372 0.7741
24.4800 8.1439 0.7694
24.5000 8.1506 0.7699
24.5200 8.1573 0.7738
24.5400 8.1639 0.7696
24.5600 8.1706 0.7718
24.5800 8.1772 0.7748
24.6000 8.1838 0.7668
24.6200 8.1905 0.7747
24.6400 8.1971 0.7732
24.6600 8.2038 0.7698
24.6800 8.2105 0.7688
24.7000 8.2172 0.7707
24.7200 8.2239 0.7701
24.7400 8.2306 0.7676
24.7600 8.2372 0.7738
24.7800 8.2438 0.7651
24.8000 8.2504 0.7676
24.8200 8.2571 0.7744
24.8400 8.2638 0.7657
24.8600 8.2705 0.7678
24.8800 8.2772 0.7751
24.9000 8.2839 0.7668
24.9200 8.2906 0.7633
24.9400 8.2972 0.7750
24.9600 8.3038 0.7653
24.9800 8.3105 0.7621
25.0000 8.3171 0.7741
25.0200 8.3238 0.7669
25.0400 8.3305 0.7627
25.0600 8.3372 0.7732
25.0800 8.3439 0.7626
25.1000 8.3506 0.7615
25.1200 8.3573 0.7718
25.1400 8.3639 0.7593
25.1600 8.3705 0.7618
25.1800 8.3771 0.7763
25.2000 8.3838 0.7575
25.2200 8.3906 0.7606
25.2400 8.3972 0.7739
25.2600 8.4039 0.7585
25.2800 8.4106 0.7608
25.3000 8.4172 0.7710
25.3200 8.4238 0.7637
25.3400 8.4305 0.7598
25.3600 8.4371 0.7711
25.3800 8.4439 0.7532
25.4000 8.4506 0.7647
25.4200 8.4572 0.7692
25.4400 8.4639 0.7528
25.4600 8.4706 0.7619
25.4800 8.4772 0.7660
25.5000 8.4838 0.7541
25.5200 8.4904 0.7652
25.5400 8.4971 0.7673
25.5600 8.5038 0.7544
25.5800 8.5105 0.7629
25.6000 8.5172 0.7614
25.6200 8.5238 0.7517
25.6400 8.5305 0.7643
25.6600 8.5372 0.7607
25.6800 8.5438 0.7552
25.7000 8.5505 0.7630
25.7200 8.5571 0.7575
25.7400 8.5638 0.7587
25.7600 8.5705 0.7597
25.7800 8.5773 0.7549
25.8000 8.5840 0.7618
25.8200 8.5907 0.7553
25.8400 8.5973 0.7534
25.8600 8.6039 0.7590
25.8800 8.6105 0.7584
25.9000 8.6171 0.7589
25.9200 8.6239 0.7570
25.9400 8.6306 0.7520
25.9600 8.6373 0.7565
25.9800 8.6439 0.7609
26.0000 8.6506 0.7451
26.0200 8.6573 0.7586
26.0400 8.6639 0.7612
26.0600 8.6705 0.7457
26.0800 8.6771 0.7592
26.1000 8.6838 0.7569
26.1200 8.6905 0.7475
26.1400 8.6972 0.7606
26.1600 8.7039 0.7539
26.1800 8.7106 0.7488
26.2000 8.7172 0.7586
26.2200 8.7239 0.7505
26.2400 8.7304 0.7471
26.2600 8.7371 0.7660
26.2800 8.7438 0.7480
26.3000 8.7505 0.7459
26.3200 8.7572 0.7594
26.3400 8.7639 0.7518
26.3600 8.7705 0.7453
26.3800 8.7772 0.7578
26.4000 8.7838 0.7498
26.4200 8.7904 0.7444
26.4400 8.7971 0.7603
26.4600 8.8038 0.7481
26.4800 8.8106 0.7435
26.5000 8.8173 0.7600
26.5200 8.8239 0.7447
26.5400 8.8306 0.7440
26.5600 8.8373 0.7578
26.5800 8.8439 0.7448
26.6000 8.8505 0.7464
26.6200 8.8572 0.7561
26.6400 8.8639 0.7507
26.6600 8.8706 0.7453
26.6800 8.8772 0.7554
26.7000 8.8839 0.7483
26.7200 8.8906 0.7463
26.7400 8.8973 0.7509
26.7600 8.9039 0.7466
26.7800 8.9105 0.7462
26.8000 8.9171 0.7556
26.8200 8.9238 0.7460
26.8400 8.9305 0.7441
26.8600 8.9372 0.7511
26.8800 8.9439 0.7493
26.9000 8.9506 0.7467
26.9200 8.9572 0.7524
26.9400 8.9639 0.7477
26.9600 8.9704 0.7400
26.9800 8.9771 0.7542
27.0000 8.9838 0.7510
27.0200 8.9905 0.7375
27.0400 8.9972 0.7535
27.0600 9.0039 0.7483
27.0800 9.0105 0.7394
27.1000 9.0172 0.7514
27.1200 9.0239 0.7496
27.1400 9.0305 0.7403
27.1600 9.0371 0.7520
27.1800 9.0438 0.7481
27.2000 9.0505 0.7372
27.2200 9.0572 0.7569
27.2400 9.0639 0.7444
27.2600 9.0706 0.7353
27.2800 9.0773 0.7551
27.3000 9.0839 0.7466
27.3200 9.0905 0.7374
27.3400 9.0971 0.7497
27.3600 9.1038 0.7503
27.3800 9.1106 0.7426
27.4000 9.1173 0.7437
27.4200 9.1239 0.7472
27.4400 9.1306 0.7390
27.4600 9.1373 0.7506
27.4800 9.1439 0.7414
27.5000 9.1505 0.7434
27.5200 9.1571 0.7468
27.5400 9.1638 0.7403
27.5600 9.1706 0.7386
27.5800 9.1772 0.7402
27.6000 9.1839 0.7442
27.6200 9.1906 0.7430
27.6400 9.1973 0.7401
27.6600 9.2039 0.7459
27.6800 9.2105 0.7380
27.7000 9.2171 0.7434
27.7200 9.2238 0.7483
27.7400 9.2305 0.7391
27.7600 9.2372 0.7379
27.7800 9.2439 0.7440
27.8000 9.2506 0.7392
27.8200 9.2573 0.7365
27.8400 9.2639 0.7436
27.8600 9.2705 0.7347
27.8800 9.2771 0.7379
27.9000 9.2838 0.7441
27.9200 9.2906 0.7343
27.9400 9.2973 0.7341
27.9600 9.3040 0.7434
27.9800 9.3106 0.7376
28.0000 9.3173 0.7356
28.0200 9.3239 0.7393
28.0400 9.3305 0.7426
28.0600 9.3371 0.7336
28.0800 9.3438 0.7408
28.1000 9.3506 0.7341
28.1200 9.3573 0.7362
28.1400 9.3639 0.7398
28.1600 9.3706 0.7359
28.1800 9.3773 0.7313
28.2000 9.3839 0.7352
28.2200 9.3905 0.7366
28.2400 9.3971 0.7317
28.2600 9.4038 0.7389
28.2800 9.4105 0.7358
28.3000 9.4172 0.7281
28.3200 9.4239 0.7398
28.3400 9.4306 0.7345
28.3600 9.4373 0.7310
28.3800 9.4439 0.7382
28.4000 9.4505 0.7383
28.4200 9.4571 0.7279
28.4400 9.4638 0.7408
28.4600 9.4705 0.7374
28.4800 9.4772 0.7225
28.5000 9.4839 0.7386
28.5200 9.4906 0.7386
28.5400 9.4972 0.7252
28.5600 9.5039 0.7388
28.5800 9.5105 0.7334
28.6000 9.5171 0.7276
28.6200 9.5238 0.7432
28.6400 9.5306 0.7349
28.6600 9.5372 0.7266
28.6800 9.5439 0.7367
28.7000 9.5506 0.7324
28.7200 9.5573 0.7261
28.7400 9.5639 0.7375
28.7600 9.5705 0.7341
28.7800 9.5772 0.7230
28.8000 9.5838 0.7357
28.8200 9.5905 0.7324
28.8400 9.5972 0.7277
28.8600 9.6039 0.7400
28.8800 9.6106 0.7294
28.9000 9.6173 0.7273
28.9200 9.6239 0.7341
28.9400 9.6305 0.7330
28.9600 9.6371 0.7278
28.9800 9.6438 0.7344
29.0000 9.6505 0.7278
29.0200 9.6572 0.7286
29.0400 9.6639 0.7335
29.0600 9.6705 0.7270
29.0800 9.6772 0.7285
29.1000 9.6839 0.7282
29.1200 9.6905 0.7248
29.1400 9.6971 0.7326
29.1600 9.7038 0.7247
29.1800 9.7105 0.7347
29.2000 9.7172 0.7291
29.2200 9.7239 0.7240
29.2400 9.7305 0.7367
29.2600 9.7372 0.7260
29.2800 9.7439 0.7240
29.3000 9.7505 0.7339
29.3200 9.7572 0.7260
29.3400 9.7638 0.7248
29.3600 9.7705 0.7358
29.3800 9.7772 0.7201
29.4000 9.7839 0.7246
29.4200 9.7906 0.7382
29.4400 9.7973 0.7208
29.4600 9.8039 0.7217
29.4800 9.8105 0.7351
29.5000 9.8171 0.7224
29.5200 9.8238 0.7244
29.5400 9.8305 0.7313
29.5600 9.8372 0.7199
29.5800 9.8439 0.7235
29.6000 9.8506 0.7284
29.6200 9.8573 0.7163
29.6400 9.8639 0.7290
29.6600 9.8705 0.7278
29.6800 9.8771 0.7182
29.7000 9.8838 0.7274
29.7200 9.8905 0.7236
29.7400 9.8972 0.7191
29.7600 9.9039 0.7240
29.7800 9.9106 0.7216
29.8000 9.9172 0.7213
29.8200 9.9239 0.7234
29.8400 9.9305 0.7231
29.8600 9.9371 0.7183
29.8800 9.9437 0.7244
29.9000 9.9505 0.7257
29.9200 9.9572 0.7109
29.9400 9.9639 0.7219
29.9600 9.9705 0.7239
29.9800 9.9772 0.7117
30.0000 9.9839 0.7236
30.0200 9.9905 0.7237
30.0400 9.9971 0.7120
30.0600 10.0038 0.7186
30.0800 10.0105 0.7220
30.1000 10.0172 0.7162
30.1200 10.0239 0.7213
30.1400 10.0306 0.7199
30.1600 10.0373 0.7101
30.1800 10.0439 0.7219
30.2000 10.0506 0.7162
30.2200 10.0572 0.7160
30.2400 10.0639 0.7203
30.2600 10.0705 0.7175
30.2800 10.0772 0.7131
30.3000 10.0839 0.7237
30.3200 10.0906 0.7199
30.3400 10.0973 0.7122
30.3600 10.1039 0.7156
30.3800 10.1105 0.7196
30.4000 10.1171 0.7125
30.4200 10.1238 0.7185
30.4400 10.1305 0.7181
30.4600 10.1372 0.7116
30.4800 10.1439 0.7107
30.5000 10.1505 0.7186
30.5200 10.1572 0.7186
30.5400 10.1639 0.7100
30.5600 10.1705 0.7180
30.5800 10.1771 0.7169
30.6000 10.1838 0.7102
30.6200 10.1905 0.7181
30.6400 10.1972 0.7147
30.6600 10.2039 0.7082
30.6800 10.2105 0.7169
30.7000 10.2172 0.7122
30.7200 10.2239 0.7082
30.7400 10.2305 0.7205
30.7600 10.2372 0.7149
30.7800 10.2438 0.7041
30.8000 10.2505 0.7212
30.8200 10.2572 0.7103
30.8400 10.2639 0.7066
30.8600 10.2706 0.7201
30.8800 10.2773 0.7089
30.9000 10.2840 0.7068
30.9200 10.2905 0.7220
30.9400 10.2971 0.7056
30.9600 10.3038 0.7102
30.9800 10.3105 0.7206
31.0000 10.3172 0.7055
31.0200 10.3239 0.7047
31.0400 10.3306 0.7193
31.0600 10.3373 0.7042
31.0800 10.3439 0.7092
31.1000 10.3505 0.7179
31.1200 10.3571 0.7079
31.1400 10.3638 0.7127
31.1600 10.3705 0.7157
31.1800 10.3772 0.7052
31.2000 10.3839 0.7078
31.2200 10.3905 0.7143
31.2400 10.3972 0.7116
31.2600 10.4039 0.7100
31.2800 10.4105 0.7126
31.3000 10.4171 0.7110
31.3200 10.4238 0.7100
31.3400 10.4305 0.7097
31.3600 10.4372 0.7097
31.3800 10.4439 0.7069
31.4000 10.4506 0.7140
31.4200 10.4573 0.7095
31.4400 10.4639 0.7013
31.4600 10.4706 0.7082
31.4800 10.4771 0.7112
31.5000 10.4838 0.7025
31.5200 10.4905 0.7137
31.5400 10.4972 0.7110
31.5600 10.5039 0.7019
31.5800 10.5106 0.7136
31.6000 10.5173 0.7083
31.6200 10.5239 0.7062
31.6400 10.5305 0.7114
31.6600 10.5371 0.7091
31.6800 10.5438 0.6998
31.7000 10.5505 0.7108
31.7200 10.5573 0.7080
31.7400 10.5639 0.7025
31.7600 10.5706 0.7069
31.7800 10.5773 0.7101
31.8000 10.5839 0.6984
31.8200 10.5906 0.7047
31.8400 10.5972 0.7155
31.8600 10.6038 0.6995
31.8800 10.6105 0.7054
31.9000 10.6172 0.7147
31.9200 10.6239 0.6928
31.9400 10.6306 0.7098
31.9600 10.6373 0.7108
31.9800 10.6439 0.6897
32.0000 10.6505 0.7077
32.0200 10.6571 0.7116
32.0400 10.6637 0.6934
32.0600 10.6704 0.7042
32.0800 10.6772 0.7072
32.1000 10.6839 0.6888
32.1200 10.6905 0.7082
32.1400 10.6972 0.7082
32.1600 10.7039 0.6913
32.1800 10.7105 0.7053
32.2000 10.7172 0.7047
32.2200 10.7238 0.6921
32.2400 10.7305 0.7091
32.2600 10.7372 0.7002
32.2800 10.7439 0.6963
32.3000 10.7506 0.7060
32.3200 10.7573 0.7027
32.3400 10.7640 0.6949
32.3600 10.7706 0.6999
32.3800 10.7772 0.7030
32.4000 10.7838 0.6975
32.4200 10.7905 0.6997
32.4400 10.7972 0.6991
32.4600 10.8039 0.6932
32.4800 10.8106 0.7049
32.5000 10.8172 0.6997
32.5200 10.8239 0.6922
32.5400 10.8305 0.6997
32.5600 10.8371 0.6997
32.5800 10.8438 0.6951
32.6000 10.8505 0.7006
32.6200 10.8572 0.6968
32.6400 10.8639 0.6944
32.6600 10.8706 0.6977
32.6800 10.8772 0.6964
32.7000 10.8839 0.6955
32.7200 10.8905 0.6967
32.7400 10.8972 0.6978
32.7600 10.9038 0.6940
32.7800 10.9105 0.6971
32.8000 10.9172 0.7004
32.8200 10.9239 0.6974
32.8400 10.9305 0.6952
32.8600 10.9372 0.6965
32.8800 10.9439 0.7010
32.9000 10.9506 0.6934
32.9200 10.9572 0.6951
32.9400 10.9638 0.7031
32.9600 10.9705 0.6906
32.9800 10.9772 0.6965
33.0000 10.9839 0.7006
33.0200 10.9906 0.6939
33.0400 10.9973 0.6952
33.0600 11.0039 0.7022
33.0800 11.0106 0.6887
33.1000 11.0172 0.6979
33.1200 11.0238 0.7032
33.1400 11.0305 0.6892
33.1600 11.0372 0.6958
33.1800 11.0439 0.6984
33.2000 11.0506 0.6906
33.2200 11.0573 0.6973
33.2400 11.0639 0.6955
33.2600 11.0706 0.6921
33.2800 11.0772 0.6930
33.3000 11.0838 0.6987
33.3200 11.0905 0.6874
33.3400 11.0972 0.7004
33.3600 11.1039 0.6966
33.3800 11.1106 0.6862
33.4000 11.1172 0.6998
33.4200 11.1239 0.6942
33.4400 11.1306 0.6869
33.4600 11.1372 0.6998
33.4800 11.1438 0.6961
33.5000 11.1504 0.6822
33.5200 11.1572 0.7032
33.5400 11.1639 0.6920
33.5600 11.1705 0.6822
33.5800 11.1772 0.7030
33.6000 11.1839 0.6922
33.6200 11.1906 0.6838
33.6400 11.1972 0.6996
33.6600 11.2038 0.6917
33.6800 11.2105 0.6819
33.7000 11.2172 0.6985
33.7200 11.2239 0.6955
33.7400 11.2306 0.6820
33.7600 11.2373 0.6986
33.7800 11.2440 0.6848
33.8000 11.2506 0.6854
33.8200 11.2572 0.6971
33.8400 11.2638 0.6879
33.8600 11.2705 0.6868
33.8800 11.2772 0.6944
33.9000 11.2839 0.6858
33.9200 11.2906 0.6884
33.9400 11.2972 0.6954
33.9600 11.3039 0.6896
33.9800 11.3106 0.6849
34.0000 11.3172 0.6929
34.0200 11.3238 0.6898
34.0400 11.3304 0.6850
34.0600 11.3371 0.6927
34.0800 11.3439 0.6902
34.1000 11.3505 0.6824
34.1200 11.3573 0.6917
34.1400 11.3639 0.6875
34.1600 11.3706 0.6799
34.1800 11.3772 0.6926
34.2000 11.3837 0.6896
34.2200 11.3904 0.6833
34.2400 11.3971 0.6895
34.2600 11.4039 0.6891
34.2800 11.4105 0.6787
34.3000 11.4172 0.6903
34.3200 11.4239 0.6898
34.3400 11.4305 0.6757
34.3600 11.4371 0.6918
34.3800 11.4438 0.6881
34.4000 11.4505 0.6789
34.4200 11.4572 0.6902
34.4400 11.4639 0.6832
34.4600 11.4706 0.6768
34.4800 11.4773 0.6896
34.5000 11.4840 0.6842
34.5200 11.4906 0.6731
34.5400 11.4972 0.6883
34.5600 11.5038 0.6864
34.5800 11.5105 0.6792
34.6000 11.5172 0.6830
34.6200 11.5239 0.6868
34.6400 11.5306 0.6777
34.6600 11.5373 0.6818
34.6800 11.5439 0.6855
34.7000 11.5506 0.6804
34.7200 11.5572 0.6805
34.7400 11.5638 0.6893
34.7600 11.5704 0.6749
34.7800 11.5772 0.6796
34.8000 11.5839 0.6882
34.8200 11.5905 0.6716
34.8400 11.5972 0.6774
34.8600 11.6039 0.6896
34.8800 11.6105 0.6703
34.9000 11.6172 0.6753
34.9200 11.6238 0.6898
34.9400 11.6304 0.6727
34.9600 11.6371 0.6743
34.9800 11.6439 0.6879
35.0000 11.6506 0.6655
35.0200 11.6572 0.6746
35.0400 11.6639 0.6877
35.0600 11.6706 0.6663
35.0800 11.6772 0.6754
35.1000 11.6838 0.6888
35.1200 11.6905 0.6694
35.1400 11.6972 0.6703
35.1600 11.7039 0.6856
35.1800 11.7106 0.6704
35.2000 11.7173 0.6769
35.2200 11.7239 0.6826
35.2400 11.7306 0.6641
35.2600 11.7372 0.6825
35.2800 11.7438 0.6818
35.3000 11.7505 0.6634
35.3200 11.7572 0.6784
35.3400 11.7639 0.6794
35.3600 11.7706 0.6669
35.3800 11.7773 0.6720
35.4000 11.7839 0.6818
35.4200 11.7906 0.6650
35.4400 11.7972 0.6722
35.4600 11.8038 0.6791
35.4800 11.8105 0.6671
35.5000 11.8172 0.6699
35.5200 11.8239 0.6742
35.5400 11.8305 0.6665
35.5600 11.8372 0.6736
35.5800 11.8439 0.6777
35.6000 11.8506 0.6644
35.6200 11.8572 0.6724
35.6400 11.8638 0.6790
35.6600 11.8704 0.6694
35.6800 11.8771 0.6727
35.7000 11.8838 0.6759
35.7200 11.8905 0.6650
35.7400 11.8972 0.6722
35.7600 11.9039 0.6700
35.7800 11.9106 0.6710
35.8000 11.9172 0.6721
35.8200 11.9238 0.6697
35.8400 11.9305 0.6740
35.8600 11.9372 0.6724
35.8800 11.9439 0.6685
35.9000 11.9505 0.6748
35.9200 11.9572 0.6740
35.9400 11.9639 0.6723
35.9600 11.9706 0.6734
35.9800 11.9772 0.6713
36.0000 11.9838 0.6679
36.0200 11.9905 0.6767
36.0400 11.9972 0.6692
36.0600 12.0039 0.6674
36.0800 12.0106 0.6773
36.1000 12.0173 0.6673
36.1200 12.0240 0.6702
36.1400 12.0306 0.6727
36.1600 12.0372 0.6678
36.1800 12.0438 0.6794
36.2000 12.0504 0.6739
36.2200 12.0572 0.6657
36.2400 12.0639 0.6715
36.2600 12.0706 0.6688
36.2800 12.0772 0.6673
36.3000 12.0839 0.6743
36.3200 12.0906 0.6734
36.3400 12.0972 0.6662
36.3600 12.1038 0.6746
36.3800 12.1104 0.6665
36.4000 12.1171 0.6677
36.4200 12.1238 0.6732
36.4400 12.1305 0.6690
36.4600 12.1372 0.6702
36.4800 12.1439 0.6695
36.5000 12.1506 0.6714
36.5200 12.1572 0.6676
36.5400 12.1638 0.6673
36.5600 12.1705 0.6781
36.5800 12.1772 0.6669
36.6000 12.1839 0.6658
36.6200 12.1906 0.6690
36.6400 12.1973 0.6664
36.6600 12.2040 0.6679
36.6800 12.2106 0.6735
36.7000 12.2172 0.6601
36.7200 12.2238 0.6710
36.7400 12.2305 0.6783
36.7600 12.2372 0.6567
36.7800 12.2439 0.6674
36.8000 12.2506 0.6796
36.8200 12.2572 0.6535
36.8400 12.2639 0.6696
36.8600 12.2706 0.6754
36.8800 12.2772 0.6541
36.9000 12.2838 0.6696
36.9200 12.2905 0.6744
36.9400 12.2971 0.6559
36.9600 12.3038 0.6682
36.9800 12.3105 0.6725
37.0000 12.3172 0.6556
37.0200 12.3239 0.6659
37.0400 12.3306 0.6690
37.0600 12.3372 0.6576
37.0800 12.3438 0.6663
37.1000 12.3504 0.6694
37.1200 12.3571 0.6572
37.1400 12.3638 0.6628
37.1600 12.3705 0.6684
37.1800 12.3772 0.6566
37.2000 12.3839 0.6618
37.2200 12.3906 0.6691
37.2400 12.3972 0.6531
37.2600 12.4038 0.6588
37.2800 12.4105 0.6698
37.3000 12.4171 0.6583
37.3200 12.4239 0.6483
37.3400 12.4305 0.6699
37.3600 12.4372 0.6592
37.3800 12.4439 0.6504
37.4000 12.4506 0.6699
37.4200 12.4573 0.6586
37.4400 12.4639 0.6468
37.4600 12.4705 0.6710
37.4800 12.4772 0.6576
37.5000 12.4839 0.6519
37.5200 12.4906 0.6672
37.5400 12.4972 0.6568
37.5600 12.5039 0.6527
37.5800 12.5106 0.6664
37.6000 12.5172 0.6509
37.6200 12.5238 0.6518
37.6400 12.5304 0.6692
37.6600 12.5371 0.6537
37.6800 12.5439 0.6519
37.7000 12.5506 0.6668
37.7200 12.5573 0.6544
37.7400 12.5639 0.6538
37.7600 12.5706 0.6627
37.7800 12.5772 0.6527
37.8000 12.5838 0.6550
37.8200 12.5904 0.6613
37.8400 12.5971 0.6562
37.8600 12.6038 0.6519
37.8800 12.6105 0.6633
37.9000 12.6172 0.6534
37.9200 12.6239 0.6561
37.9400 12.6306 0.6597
37.9600 12.6372 0.6528
37.9800 12.6438 0.6531
38.0000 12.6505 0.6613
38.0200 12.6572 0.6541
38.0400 12.6639 0.6485
38.0600 12.6706 0.6557
38.0800 12.6773 0.6592
38.1000 12.6839 0.6499
38.1200 12.6906 0.6532
38.1400 12.6972 0.6575
38.1600 12.7038 0.6523
38.1800 12.7105 0.6460
38.2000 12.7172 0.6618
38.2200 12.7239 0.6519
38.2400 12.7306 0.6476
38.2600 12.7373 0.6610
38.2800 12.7439 0.6488
38.3000 12.7506 0.6516
38.3200 12.7572 0.6586
38.3400 12.7638 0.6447
38.3600 12.7704 0.6567
38.3800 12.7771 0.6605
38.4000 12.7838 0.6400
38.4200 12.7905 0.6596
38.4400 12.7972 0.6592
38.4600 12.8039 0.6422
38.4800 12.8106 0.6603
38.5000 12.8172 0.6531
38.5200 12.8239 0.6397
38.5400 12.8305 0.6624
38.5600 12.8371 0.6515
38.5800 12.8438 0.6391
38.6000 12.8505 0.6596
38.6200 12.8572 0.6561
38.6400 12.8639 0.6394
38.6600 12.8706 0.6624
38.6800 12.8772 0.6501
38.7000 12.8838 0.6343
38.7200 12.8905 0.6630
38.7400 12.8971 0.6422
38.7600 12.9038 0.6406
38.7800 12.9106 0.6632
38.8000 12.9173 0.6405
38.8200 12.9239 0.6447
38.8400 12.9306 0.6579
38.8600 12.9372 0.6453
38.8800 12.9438 0.6417
38.9000 12.9505 0.6608
38.9200 12.9571 0.6426
38.9400 12.9639 0.6377
38.9600 12.9706 0.6538
38.9800 12.9773 0.6450
39.0000 12.9839 0.6394
39.0200 12.9906 0.6526
39.0400 12.9973 0.6442
39.0600 13.0039 0.6439
39.0800 13.0105 0.6495
39.1000 13.0171 0.6456
39.1200 13.0238 0.6392
39.1400 13.0305 0.6455
39.1600 13.0372 0.6435
39.1800 13.0439 0.6382
39.2000 13.0506 0.6442
39.2200 13.0572 0.6450
39.2400 13.0638 0.6403
39.2600 13.0704 0.6417
39.2800 13.0771 0.6501
39.3000 13.0838 0.6398
39.3200 13.0905 0.6429
39.3400 13.0972 0.6447
39.3600 13.1039 0.6383
39.3800 13.1106 0.6435
39.4000 13.1173 0.6424
39.4200 13.1239 0.6315
39.4400 13.1305 0.6510
39.4600 13.1372 0.6410
39.4800 13.1439 0.6303
39.5000 13.1506 0.6515
39.5200 13.1572 0.6399
39.5400 13.1639 0.6301
39.5600 13.1706 0.6482
39.5800 13.1772 0.6371
39.6000 13.1839 0.6338
39.6200 13.1905 0.6444
39.6400 13.1971 0.6341
39.6600 13.2038 0.6389
39.6800 13.2105 0.6503
39.7000 13.2172 0.6301
39.7200 13.2239 0.6370
39.7400 13.2306 0.6421
39.7600 13.2372 0.6323
39.7800 13.2438 0.6378
39.8000 13.2505 0.6389
39.8200 13.2571 0.6384
39.8400 13.2639 0.6380
39.8600 13.2706 0.6356
39.8800 13.2773 0.6394
39.9000 13.2840 0.6416
39.9200 13.2906 0.6315
39.9400 13.2973 0.6411
39.9600 13.3039 0.6342
39.9800 13.3104 0.6265
40.0000 13.3171 0.6445
40.0200 13.3238 0.6346
40.0400 13.3305 0.6269
40.0600 13.3372 0.6463
40.0800 13.3438 0.6318
40.1000 13.3505 0.6281
40.1200 13.3572 0.6423
40.1400 13.3639 0.6345
40.1600 13.3705 0.6279
40.1800 13.3771 0.6422
40.2000 13.3838 0.6309
40.2200 13.3905 0.6280
40.2400 13.3973 0.6425
40.2600 13.4040 0.6319
40.2800 13.4107 0.6255
40.3000 13.4173 0.6380
40.3200 13.4239 0.6290
40.3400 13.4305 0.6326
40.3600 13.4371 0.6361
40.3800 13.4438 0.6259
40.4000 13.4506 0.6299
40.4200 13.4573 0.6323
40.4400 13.4639 0.6269
40.4600 13.4706 0.6305
40.4800 13.4773 0.6278
40.5000 13.4839 0.6266
40.5200 13.4905 0.6299
40.5400 13.4971 0.6335
40.5600 13.5038 0.6310
40.5800 13.5105 0.6250
40.6000 13.5172 0.6254
40.6200 13.5239 0.6305
40.6400 13.5306 0.6266
40.6600 13.5373 0.6212
40.6800 13.5439 0.6315
40.7000 13.5505 0.6244
40.7200 13.5571 0.6276
40.7400 13.5638 0.6344
40.7600 13.5705 0.6231
40.7800 13.5772 0.6227
40.8000 13.5839 0.6335
40.8200 13.5906 0.6190
40.8400 13.5972 0.6270
40.8600 13.6038 0.6319
40.8800 13.6104 0.6209
40.9000 13.6171 0.6249
40.9200 13.6238 0.6305
40.9400 13.6306 0.6184
40.9600 13.6373 0.6271
40.9800 13.6439 0.6286
41.0000 13.6506 0.6169
41.0200 13.6573 0.6247
41.0400 13.6639 0.6283
41.0600 13.6705 0.6176
41.0800 13.6772 0.6244
41.1000 13.6839 0.6253
41.1200 13.6905 0.6157
41.1400 13.6972 0.6211
41.1600 13.7039 0.6219
41.1800 13.7106 0.6166
41.2000 13.7173 0.6173
41.2200 13.7239 0.6230
41.2400 13.7305 0.6160
41.2600 13.7371 0.6221
41.2800 13.7438 0.6265
41.3000 13.7505 0.6174
41.3200 13.7572 0.6163
41.3400 13.7639 0.6277
41.3600 13.7706 0.6124
41.3800 13.7772 0.6185
41.4000 13.7839 0.6245
41.4200 13.7905 0.6129
41.4400 13.7971 0.6181
41.4600 13.8038 0.6252
41.4800 13.8105 0.6098
41.5000 13.8172 0.6165
41.5200 13.8239 0.6260
41.5400 13.8306 0.6109
41.5600 13.8373 0.6124
41.5800 13.8439 0.6245
41.6000 13.8505 0.6087
41.6200 13.8571 0.6176
41.6400 13.8638 0.6206
41.6600 13.8705 0.6145
41.6800 13.8772 0.6159
41.7000 13.8839 0.6214
41.7200 13.8906 0.6102
41.7400 13.8973 0.6123
41.7600 13.9040 0.6200
41.7800 13.9105 0.6096
41.8000 13.9172 0.6152
41.8200 13.9238 0.6233
41.8400 13.9306 0.6084
41.8600 13.9373 0.6079
41.8800 13.9440 0.6211
41.9000 13.9506 0.6121
41.9200 13.9573 0.6104
41.9400 13.9639 0.6180
41.9600 13.9705 0.6080
41.9800 13.9771 0.6140
42.0000 13.9838 0.6236
42.0200 13.9905 0.6016
42.0400 13.9972 0.6146
42.0600 14.0039 0.6210
42.0800 14.0106 0.5997
42.1000 14.0173 0.6069
42.1200 14.0239 0.6182
42.1400 14.0305 0.6039
42.1600 14.0371 0.6098
42.1800 14.0438 0.6149
42.2000 14.0505 0.5984
42.2200 14.0572 0.6112
42.2400 14.0639 0.6172
42.2600 14.0706 0.5985
42.2800 14.0773 0.6090
42.3000 14.0839 0.6092
42.3200 14.0905 0.5975
42.3400 14.0971 0.6129
42.3600 14.1038 0.6142
42.3800 14.1105 0.5968
42.4000 14.1173 0.6097
42.4200 14.1239 0.6043
42.4400 14.1306 0.5967
42.4600 14.1373 0.6120
42.4800 14.1439 0.6049
42.5000 14.1505 0.5989
42.5200 14.1572 0.6129
42.5400 14.1639 0.6027
42.5600 14.1706 0.6005
42.5800 14.1773 0.6076
42.6000 14.1839 0.6059
42.6200 14.1906 0.6024
42.6400 14.1973 0.6001
42.6600 14.2039 0.6085
42.6800 14.2105 0.6011
42.7000 14.2171 0.6049
42.7200 14.2238 0.6112
42.7400 14.2305 0.5993
42.7600 14.2372 0.5979
42.7800 14.2439 0.6117
42.8000 14.2506 0.5985
42.8200 14.2573 0.5961
42.8400 14.2639 0.6094
42.8600 14.2705 0.6002
42.8800 14.2771 0.6003
42.9000 14.2838 0.6148
42.9200 14.2905 0.5937
42.9400 14.2972 0.5999
42.9600 14.3039 0.6074
42.9800 14.3106 0.5978
43.0000 14.3172 0.6028
43.0200 14.3239 0.6052
43.0400 14.3305 0.5963
43.0600 14.3371 0.5982
43.0800 14.3438 0.6096
43.1000 14.3505 0.5954
43.1200 14.3572 0.5967
43.1400 14.3639 0.6134
43.1600 14.3706 0.5922
43.1800 14.3773 0.5976
43.2000 14.3839 0.6048
43.2200 14.3905 0.5960
43.2400 14.3971 0.6005
43.2600 14.4038 0.5993
43.2800 14.4105 0.5985
43.3000 14.4172 0.5984
43.3200 14.4239 0.5981
43.3400 14.4306 0.5896
43.3600 14.4373 0.6002
43.3800 14.4440 0.5971
43.4000 14.4505 0.5915
43.4200 14.4571 0.6049
43.4400 14.4638 0.5962
43.4600 14.4705 0.5928
43.4800 14.4772 0.5996
43.5000 14.4839 0.5918
43.5200 14.4906 0.5972
43.5400 14.4972 0.5968
43.5600 14.5039 0.5917
43.5800 14.5105 0.5942
43.6000 14.5171 0.5972
43.6200 14.5238 0.5889
43.6400 14.5305 0.6017
43.6600 14.5372 0.5910
43.6800 14.5438 0.5841
43.7000 14.5505 0.6029
43.7200 14.5572 0.5929
43.7400 14.5639 0.5837
43.7600 14.5705 0.6028
43.7800 14.5772 0.5886
43.8000 14.5838 0.5860
43.8200 14.5905 0.5983
43.8400 14.5972 0.5924
43.8600 14.6039 0.5883
43.8800 14.6106 0.5983
43.9000 14.6173 0.5878
43.9200 14.6239 0.5845
43.9400 14.6305 0.5997
43.9600 14.6371 0.5873
43.9800 14.6438 0.5896
44.0000 14.6505 0.5944
44.0200 14.6572 0.5861
44.0400 14.6639 0.5915
44.0600 14.6705 0.5930
44.0800 14.6772 0.5851
44.1000 14.6839 0.5878
44.1200 14.6905 0.5947
44.1400 14.6972 0.5881
44.1600 14.7038 0.5877
44.1800 14.7105 0.5947
44.2000 14.7172 0.5821
44.2200 14.7239 0.5893
44.2400 14.7306 0.5971
44.2600 14.7373 0.5860
44.2800 14.7439 0.5853
44.3000 14.7505 0.5909
44.3200 14.7571 0.5819
44.3400 14.7637 0.5898
44.3600 14.7704 0.5989
44.3800 14.7771 0.5789
44.4000 14.7838 0.5781
44.4200 14.7905 0.5987
44.4400 14.7972 0.5822
44.4600 14.8039 0.5812
44.4800 14.8105 0.5958
44.5000 14.8171 0.5807
44.5200 14.8238 0.5786
44.5400 14.8305 0.5944
44.5600 14.8372 0.5799
44.5800 14.8439 0.5844
44.6000 14.8506 0.5907
44.6200 14.8573 0.5778
44.6400 14.8639 0.5841
44.6600 14.8706 0.5947
44.6800 14.8772 0.5776
44.7000 14.8838 0.5813
44.7200 14.8905 0.5917
44.7400 14.8972 0.5756
44.7600 14.9039 0.5788
44.7800 14.9106 0.5905
44.8000 14.9173 0.5779
44.8200 14.9240 0.5779
44.8400 14.9306 0.5870
44.8600 14.9371 0.5802
44.8800 14.9437 0.5802
44.9000 14.9504 0.5883
44.9200 14.9571 0.5786
44.9400 14.9639 0.5719
44.9600 14.9706 0.5926
44.9800 14.9773 0.5756
45.0000 14.9839 0.5753
45.0200 14.9905 0.5840
45.0400 14.9971 0.5763
45.0600 15.0038 0.5784
45.0800 15.0105 0.5846
45.1000 15.0172 0.5759
45.1200 15.0239 0.5741
45.1400 15.0305 0.5819
45.1600 15.0372 0.5782
45.1800 15.0439 0.5752
45.2000 15.0506 0.5798
45.2200 15.0572 0.5747
45.2400 15.0638 0.5779
45.2600 15.0705 0.5766
45.2800 15.0772 0.5756
45.3000 15.0839 0.5789
45.3200 15.0906 0.5762
45.3400 15.0973 0.5761
45.3600 15.1040 0.5716
45.3800 15.1106 0.5771
45.4000 15.1172 0.5810
45.4200 15.1238 0.5709
45.4400 15.1305 0.5756
45.4600 15.1372 0.5800
45.4800 15.1439 0.5663
45.5000 15.1506 0.5757
45.5200 15.1573 0.5809
45.5400 15.1639 0.5624
45.5600 15.1705 0.5742
45.5800 15.1771 0.5829
45.6000 15.1838 0.5617
45.6200 15.1905 0.5797
45.6400 15.1972 0.5756
45.6600 15.2039 0.5599
45.6800 15.2106 0.5826
45.7000 15.2172 0.5719
45.7200 15.2239 0.5607
45.7400 15.2305 0.5832
45.7600 15.2372 0.5666
45.7800 15.2438 0.5624
45.8000 15.2505 0.5807
45.8200 15.2572 0.5694
45.8400 15.2638 0.5622
45.8600 15.2705 0.5793
45.8800 15.2772 0.5645
45.9000 15.2839 0.5626
45.9200 15.2906 0.5789
45.9400 15.2971 0.5644
45.9600 15.3038 0.5680
45.9800 15.3105 0.5723
46.0000 15.3172 0.5600
46.0200 15.3239 0.5669
46.0400 15.3306 0.5714
46.0600 15.3373 0.5636
46.0800 15.3439 0.5650
46.1000 15.3506 0.5681
46.1200 15.3572 0.5606
46.1400 15.3638 0.5719
46.1600 15.3705 0.5694
46.1800 15.3772 0.5603
46.2000 15.3839 0.5665
46.2200 15.3906 0.5647
46.2400 15.3973 0.5674
46.2600 15.4039 0.5613
46.2800 15.4106 0.5624
46.3000 15.4172 0.5692
46.3200 15.4238 0.5633
46.3400 15.4305 0.5628
46.3600 15.4372 0.5660
46.3800 15.4439 0.5603
46.4000 15.4506 0.5594
46.4200 15.4573 0.5648
46.4400 15.4639 0.5617
46.4600 15.4705 0.5581
46.4800 15.4771 0.5707
46.5000 15.4837 0.5624
46.5200 15.4904 0.5535
46.5400 15.4971 0.5735
46.5600 15.5039 0.5619
46.5800 15.5105 0.5493
46.6000 15.5172 0.5696
46.6200 15.5239 0.5578
46.6400 15.5306 0.5540
46.6600 15.5372 0.5665
46.6800 15.5438 0.5571
46.7000 15.5505 0.5545
46.7200 15.5572 0.5729
46.7400 15.5639 0.5542
46.7600 15.5706 0.5516
46.7800 15.5773 0.5700
46.8000 15.5840 0.5523
46.8200 15.5906 0.5497
46.8400 15.5972 0.5690
46.8600 15.6038 0.5555
46.8800 15.6105 0.5529
46.9000 15.6172 0.5641
46.9200 15.6239 0.5517
46.9400 15.6306 0.5603
46.9600 15.6373 0.5598
46.9800 15.6440 0.5450
47.0000 15.6506 0.5567
47.0200 15.6572 0.5612
47.0400 15.6638 0.5508
47.0600 15.6705 0.5557
47.0800 15.6772 0.5535
47.1000 15.6839 0.5476
47.1200 15.6906 0.5580
47.1400 15.6972 0.5565
47.1600 15.7039 0.5509
47.1800 15.7106 0.5552
47.2000 15.7172 0.5509
47.2200 15.7238 0.5510
47.2400 15.7305 0.5552
47.2600 15.7372 0.5504
47.2800 15.7439 0.5442
47.3000 15.7505 0.5517
47.3200 15.7572 0.5560
47.3400 15.7639 0.5510
47.3600 15.7706 0.5432
47.3800 15.7772 0.5496
47.4000 15.7838 0.5513
47.4200 15.7905 0.5478
47.4400 15.7972 0.5474
47.4600 15.8039 0.5466
47.4800 15.8106 0.5427
47.5000 15.8173 0.5527
47.5200 15.8239 0.5458
47.5400 15.8306 0.5491
47.5600 15.8372 0.5552
47.5800 15.8438 0.5413
47.6000 15.8505 0.5416
47.6200 15.8572 0.5542
47.6400 15.8639 0.5471
47.6600 15.8706 0.5445
47.6800 15.8773 0.5499
47.7000 15.8840 0.5444
47.7200 15.8906 0.5464
47.7400 15.8972 0.5463
47.7600 15.9038 0.5458
47.7800 15.9105 0.5434
47.8000 15.9172 0.5421
47.8200 15.9239 0.5471
47.8400 15.9306 0.5463
47.8600 15.9372 0.5403
47.8800 15.9439 0.5450
47.9000 15.9506 0.5416
47.9200 15.9572 0.5427
47.9400 15.9638 0.5474
47.9600 15.9704 0.5428
47.9800 15.9771 0.5380
48.0000 15.9838 0.5489
48.0200 15.9906 0.5412
48.0400 15.9972 0.5398
48.0600 16.0039 0.5464
48.0800 16.0106 0.5351
48.1000 16.0172 0.5376
48.1200 16.0238 0.5492
48.1400 16.0305 0.5327
48.1600 16.0372 0.5415
48.1800 16.0439 0.5469
48.2000 16.0506 0.5320
48.2200 16.0573 0.5382
48.2400 16.0640 0.5450
48.2600 16.0706 0.5302
48.2800 16.0772 0.5354
48.3000 16.0838 0.5448
48.3200 16.0905 0.5281
48.3400 16.0972 0.5355
48.3600 16.1039 0.5431
48.3800 16.1106 0.5316
48.4000 16.1173 0.5360
48.4200 16.1240 0.5406
48.4400 16.1306 0.5316
48.4600 16.1372 0.5361
48.4800 16.1438 0.5419
48.5000 16.1504 0.5313
48.5200 16.1571 0.5354
48.5400 16.1638 0.5401
48.5600 16.1705 0.5309
48.5800 16.1772 0.5372
48.6000 16.1839 0.5356
48.6200 16.1906 0.5264
48.6400 16.1972 0.5385
48.6600 16.2038 0.5386
48.6800 16.2104 0.5266
48.7000 16.2171 0.5312
48.7200 16.2239 0.5390
48.7400 16.2305 0.5339
48.7600 16.2372 0.5274
48.7800 16.2439 0.5408
48.8000 16.2506 0.5327
48.8200 16.2572 0.5265
48.8400 16.2638 0.5339
48.8600 16.2705 0.5376
48.8800 16.2772 0.5270
48.9000 16.2839 0.5372
48.9200 16.2906 0.5321
48.9400 16.2972 0.5264
48.9600 16.3040 0.5350
48.9800 16.3106 0.5303
49.0000 16.3172 0.5242
49.0200 16.3238 0.5400
49.0400 16.3305 0.5261
49.0600 16.3372 0.5256
49.0800 16.3439 0.5390
49.1000 16.3506 0.5213
49.1200 16.3573 0.5214
49.1400 16.3639 0.5407
49.1600 16.3706 0.5261
49.1800 16.3772 0.5180
49.2000 16.3838 0.5372
49.2200 16.3904 0.5280
49.2400 16.3971 0.5189
49.2600 16.4039 0.5335
49.2800 16.4105 0.5246
49.3000 16.4172 0.5225
49.3200 16.4239 0.5281
49.3400 16.4306 0.5213
49.3600 16.4372 0.5200
49.3800 16.4438 0.5292
49.4000 16.4504 0.5265
49.4200 16.4571 0.5173
49.4400 16.4638 0.5278
49.4600 16.4705 0.5191
49.4800 16.4772 0.5213
49.5000 16.4839 0.5293
49.5200 16.4906 0.5215
49.5400 16.4972 0.5180
49.5600 16.5038 0.5255
49.5800 16.5105 0.5215
49.6000 16.5172 0.5184
49.6200 16.5239 0.5292
49.6400 16.5306 0.5203
49.6600 16.5373 0.5112
49.6800 16.5440 0.5284
49.7000 16.5506 0.5166
49.7200 16.5572 0.5161
49.7400 16.5638 0.5291
49.7600 16.5705 0.5164
49.7800 16.5772 0.5150
49.8000 16.5839 0.5238
49.8200 16.5906 0.5160
49.8400 16.5972 0.5168
49.8600 16.6039 0.5251
49.8800 16.6106 0.5118
49.9000 16.6172 0.5089
49.9200 16.6239 0.5279
49.9400 16.6305 0.5147
49.9600 16.6372 0.5152
49.9800 16.6439 0.5260
50.0000 16.6506 0.5116
50.0200 16.6572 0.5179
50.0400 16.6639 0.5207
50.0600 16.6706 0.5121
50.0800 16.6772 0.5162
50.1000 16.6838 0.5200
50.1200 16.6904 0.5170
50.1400 16.6971 0.5158
50.1600 16.7038 0.5197
50.1800 16.7106 0.5142
50.2000 16.7172 0.5166
50.2200 16.7239 0.5159
50.2400 16.7306 0.5102
50.2600 16.7372 0.5137
50.2800 16.7438 0.5165
50.3000 16.7505 0.5100
50.3200 16.7572 0.5056
50.3400 16.7639 0.5184
50.3600 16.7706 0.5110
50.3800 16.7772 0.5103
50.4000 16.7839 0.5167
50.4200 16.7906 0.5105
50.4400 16.7972 0.5064
50.4600 16.8038 0.5148
50.4800 16.8105 0.5129
50.5000 16.8172 0.5097
50.5200 16.8239 0.5174
50.5400 16.8306 0.5093
50.5600 16.8373 0.5083
50.5800 16.8440 0.5097
50.6000 16.8506 0.5093
50.6200 16.8573 0.5100
50.6400 16.8638 0.5114
50.6600 16.8705 0.5134
50.6800 16.8771 0.5054
50.7000 16.8839 0.5117
50.7200 16.8906 0.5120
50.7400 16.8973 0.5043
50.7600 16.9039 0.5096
50.7800 16.9106 0.5085
50.8000 16.9172 0.5029
50.8200 16.9238 0.5134
50.8400 16.9304 0.5117
50.8600 16.9371 0.4996
50.8800 16.9438 0.5097
50.9000 16.9505 0.5074
50.9200 16.9572 0.5003
50.9400 16.9639 0.5118
50.9600 16.9705 0.5075
50.9800 16.9772 0.4966
51.0000 16.9838 0.5077
51.0200 16.9904 0.5038
51.0400 16.9971 0.4994
51.0600 17.0039 0.5085
51.0800 17.0106 0.5025
51.1000 17.0173 0.4983
51.1200 17.0240 0.5046
51.1400 17.0306 0.4995
51.1600 17.0373 0.5023
51.1800 17.0439 0.5033
51.2000 17.0505 0.5012
51.2200 17.0572 0.4985
51.2400 17.0639 0.5031
51.2600 17.0706 0.5001
51.2800 17.0772 0.4939
51.3000 17.0839 0.5018
51.3200 17.0906 0.4987
51.3400 17.0972 0.4927
51.3600 17.1038 0.5011
51.3800 17.1105 0.5009
51.4000 17.1171 0.4959
51.4200 17.1238 0.4932
51.4400 17.1305 0.4998
51.4600 17.1372 0.4933
51.4800 17.1439 0.4958
51.5000 17.1506 0.4959
51.5200 17.1572 0.4928
51.5400 17.1638 0.4941
51.5600 17.1704 0.4994
51.5800 17.1771 0.4899
51.6000 17.1838 0.4953
51.6200 17.1906 0.4970
51.6400 17.1973 0.4862
51.6600 17.2039 0.4942
51.6800 17.2106 0.4964
51.7000 17.2172 0.4879
51.7200 17.2238 0.4888
51.7400 17.2304 0.4948
51.7600 17.2371 0.4883
51.7800 17.2438 0.4869
51.8000 17.2505 0.4920
51.8200 17.2572 0.4841
51.8400 17.2639 0.4908
51.8600 17.2706 0.4955
51.8800 17.2773 0.4807
51.9000 17.2839 0.4839
51.9200 17.2905 0.4951
51.9400 17.2972 0.4870
51.9600 17.3039 0.4837
51.9800 17.3106 0.4884
52.0000 17.3173 0.4857
52.0200 17.3239 0.4863
52.0400 17.3306 0.4852
52.0600 17.3373 0.4851
52.0800 17.3439 0.4841
52.1000 17.3505 0.4882
52.1200 17.3571 0.4859
52.1400 17.3638 0.4817
52.1600 17.3705 0.4881
52.1800 17.3772 0.4828
52.2000 17.3839 0.4777
52.2200 17.3906 0.4872
52.2400 17.3972 0.4818
52.2600 17.4038 0.4782
52.2800 17.4104 0.4855
52.3000 17.4171 0.4832
52.3200 17.4238 0.4805
52.3400 17.4305 0.4855
52.3600 17.4372 0.4778
52.3800 17.4439 0.4798
52.4000 17.4506 0.4869
52.4200 17.4572 0.4745
52.4400 17.4638 0.4757
52.4600 17.4705 0.4883
52.4800 17.4771 0.4813
52.5000 17.4839 0.4694
52.5200 17.4906 0.4846
52.5400 17.4973 0.4808
52.5600 17.5039 0.4726
52.5800 17.5106 0.4799
52.6000 17.5173 0.4784
52.6200 17.5239 0.4691
52.6400 17.5305 0.4806
52.6600 17.5371 0.4793
52.6800 17.5439 0.4716
52.7000 17.5506 0.4790
52.7200 17.5573 0.4795
52.7400 17.5639 0.4656
52.7600 17.5706 0.4813
52.7800 17.5773 0.4777
52.8000 17.5839 0.4670
52.8200 17.5905 0.4791
52.8400 17.5971 0.4831
52.8600 17.6038 0.4657
52.8800 17.6105 0.4819
52.9000 17.6172 0.4767
52.9200 17.6239 0.4607
52.9400 17.6306 0.4771
52.9600 17.6372 0.4773
52.9800 17.6439 0.4648
53.0000 17.6505 0.4775
53.0200 17.6571 0.4760
53.0400 17.6638 0.4654
53.0600 17.6705 0.4775
53.0800 17.6772 0.4756
53.1000 17.6839 0.4573
53.1200 17.6906 0.4753
53.1400 17.6972 0.4726
53.1600 17.7039 0.4569
53.1800 17.7105 0.4794
53.2000 17.7171 0.4698
53.2200 17.7239 0.4555
53.2400 17.7306 0.4744
53.2600 17.7373 0.4711
53.2800 17.7439 0.4621
53.3000 17.7506 0.4688
53.3200 17.7573 0.4620
53.3400 17.7639 0.4616
53.3600 17.7705 0.4675
53.3800 17.7771 0.4631
53.4000 17.7839 0.4616
53.4200 17.7906 0.4663
53.4400 17.7973 0.4577
53.4600 17.8040 0.4598
53.4800 17.8106 0.4641
53.5000 17.8172 0.4618
53.5200 17.8239 0.4571
53.5400 17.8305 0.4623
53.5600 17.8371 0.4674
53.5800 17.8438 0.4565
53.6000 17.8505 0.4559
53.6200 17.8572 0.4654
53.6400 17.8639 0.4553
53.6600 17.8706 0.4614
53.6800 17.8772 0.4624
53.7000 17.8839 0.4513
53.7200 17.8904 0.4566
53.7400 17.8971 0.4671
53.7600 17.9038 0.4513
53.7800 17.9105 0.4562
53.8000 17.9172 0.4633
53.8200 17.9239 0.4487
53.8400 17.9306 0.4546
53.8600 17.9372 0.4604
53.8800 17.9439 0.4495
53.9000 17.9505 0.4596
53.9200 17.9571 0.4566
53.9400 17.9638 0.4495
53.9600 17.9705 0.4569
53.9800 17.9772 0.4561
54.0000 17.9839 0.4501
54.0200 17.9906 0.4526
54.0400 17.9973 0.4599
54.0600 18.0039 0.4458
54.0800 18.0105 0.4461
54.1000 18.0171 0.4602
54.1200 18.0238 0.4571
54.1400 18.0305 0.4437
54.1600 18.0372 0.4506
54.1800 18.0439 0.4590
54.2000 18.0506 0.4489
54.2200 18.0573 0.4449
54.2400 18.0639 0.4519
54.2600 18.0705 0.4424
54.2800 18.0771 0.4568
54.3000 18.0838 0.4552
54.3200 18.0906 0.4355
54.3400 18.0973 0.4517
54.3600 18.1039 0.4550
54.3800 18.1106 0.4361
54.4000 18.1173 0.4565
54.4200 18.1239 0.4453
54.4400 18.1305 0.4305
54.4600 18.1371 0.4587
54.4800 18.1438 0.4498
54.5000 18.1505 0.4325
54.5200 18.1572 0.4530
54.5400 18.1639 0.4432
54.5600 18.1705 0.4343
54.5800 18.1772 0.4553
54.6000 18.1839 0.4424
54.6200 18.1905 0.4298
54.6400 18.1971 0.4520
54.6600 18.2038 0.4451
54.6800 18.2105 0.4401
54.7000 18.2172 0.4470
54.7200 18.2239 0.4326
54.7400 18.2306 0.4450
54.7600 18.2373 0.4474
54.7800 18.2439 0.4329
54.8000 18.2505 0.4452
54.8200 18.2571 0.4374
54.8400 18.2638 0.4328
54.8600 18.2706 0.4530
54.8800 18.2773 0.4335
54.9000 18.2839 0.4279
54.9200 18.2906 0.4484
54.9400 18.2973 0.4344
54.9600 18.3039 0.4344
54.9800 18.3105 0.4419
55.0000 18.3171 0.4296
55.0200 18.3238 0.4382
55.0400 18.3305 0.4378
55.0600 18.3372 0.4298
55.0800 18.3439 0.4437
55.1000 18.3506 0.4290
55.1200 18.3573 0.4266
55.1400 18.3639 0.4480
55.1600 18.3705 0.4321
55.1800 18.3771 0.4285
55.2000 18.3837 0.4363
55.2200 18.3905 0.4268
55.2400 18.3972 0.4308
55.2600 18.4039 0.4394
55.2800 18.4106 0.4217
55.3000 18.4172 0.4290
55.3200 18.4239 0.4336
55.3400 18.4305 0.4277
55.3600 18.4371 0.4359
55.3800 18.4438 0.4273
55.4000 18.4506 0.4189
55.4200 18.4573 0.4355
55.4400 18.4639 0.4285
55.4600 18.4706 0.4193
55.4800 18.4773 0.4333
55.5000 18.4840 0.4218
55.5200 18.4906 0.4162
55.5400 18.4972 0.4282
55.5600 18.5039 0.4278
55.5800 18.5105 0.4177
55.6000 18.5172 0.4201
55.6200 18.5239 0.4290
55.6400 18.5306 0.4198
55.6600 18.5373 0.4163
55.6800 18.5439 0.4267
55.7000 18.5505 0.4196
55.7200 18.5571 0.4169
55.7400 18.5638 0.4239
55.7600 18.5705 0.4185
55.7800 18.5772 0.4162
55.8000 18.5839 0.4258
55.8200 18.5906 0.4121
55.8400 18.5973 0.4110
55.8600 18.6039 0.4230
55.8800 18.6105 0.4134
55.9000 18.6171 0.4093
55.9200 18.6238 0.4238
55.9400 18.6305 0.4064
55.9600 18.6372 0.4114
55.9800 18.6439 0.4192
56.0000 18.6506 0.4062
56.0200 18.6573 0.4174
56.0400 18.6639 0.4124
56.0600 18.6705 0.3962
56.0800 18.6771 0.4156
56.1000 18.6838 0.4185
56.1200 18.6905 0.4018
56.1400 18.6972 0.4092
56.1600 18.7039 0.4122
56.1800 18.7106 0.4044
56.2000 18.7173 0.4088
56.2200 18.7239 0.4087
56.2400 18.7305 0.4087
56.2600 18.7371 0.4096
56.2800 18.7438 0.4061
56.3000 18.7505 0.4036
56.3200 18.7572 0.4067
56.3400 18.7639 0.4069
56.3600 18.7706 0.4053
56.3800 18.7773 0.4026
56.4000 18.7839 0.4032
56.4200 18.7905 0.4083
56.4400 18.7971 0.4025
56.4600 18.8038 0.4045
56.4800 18.8105 0.4079
56.5000 18.8172 0.3969
56.5200 18.8239 0.4033
56.5400 18.8305 0.4050
56.5600 18.8372 0.3956
56.5800 18.8439 0.4088
56.6000 18.8505 0.4012
56.6200 18.8571 0.3954
56.6400 18.8637 0.4101
56.6600 18.8705 0.4019
56.6800 18.8772 0.3918
56.7000 18.8839 0.4110
56.7200 18.8906 0.4016
56.7400 18.8973 0.3908
56.7600 18.9039 0.4102
56.7800 18.9105 0.4000
56.8000 18.9171 0.3895
56.8200 18.9238 0.4133
56.8400 18.9305 0.4000
56.8600 18.9372 0.3843
56.8800 18.9439 0.4110
56.9000 18.9506 0.4003
56.9200 18.9573 0.3910
56.9400 18.9639 0.4066
56.9600 18.9705 0.4003
56.9800 18.9771 0.3898
57.0000 18.9838 0.4016
57.0200 18.9905 0.3981
57.0400 18.9972 0.3908
57.0600 19.0039 0.4007
57.0800 19.0106 0.3971
57.1000 19.0173 0.3924
57.1200 19.0239 0.3979
57.1400 19.0305 0.4007
57.1600 19.0371 0.3952
57.1800 19.0438 0.3958
57.2000 19.0505 0.3996
57.2200 19.0572 0.3838
57.2400 19.0639 0.3933
57.2600 19.0706 0.4033
57.2800 19.0773 0.3807
57.3000 19.0839 0.3893
57.3200 19.0905 0.3985
57.3400 19.0971 0.3867
57.3600 19.1037 0.3908
57.3800 19.1105 0.3999
57.4000 19.1172 0.3813
57.4200 19.1239 0.3839
57.4400 19.1306 0.3995
57.4600 19.1372 0.3791
57.4800 19.1439 0.3904
57.5000 19.1505 0.3925
57.5200 19.1571 0.3785
57.5400 19.1638 0.3915
57.5600 19.1705 0.3946
57.5800 19.1772 0.3762
57.6000 19.1839 0.3853
57.6200 19.1906 0.3873
57.6400 19.1973 0.3750
57.6600 19.2039 0.3849
57.6800 19.2106 0.3902
57.7000 19.2172 0.3707
57.7200 19.2238 0.3894
57.7400 19.2305 0.3857
57.7600 19.2372 0.3683
57.7800 19.2439 0.3937
57.8000 19.2506 0.3793
57.8200 19.2573 0.3633
57.8400 19.2640 0.3942
57.8600 19.2705 0.3753
57.8800 19.2771 0.3690
57.9000 19.2838 0.3955
57.9200 19.2905 0.3746
57.9400 19.2972 0.3663
57.9600 19.3039 0.3882
57.9800 19.3106 0.3732
58.0000 19.3172 0.3735
58.0200 19.3239 0.3863
58.0400 19.3305 0.3623
58.0600 19.3371 0.3805
58.0800 19.3438 0.3817
58.1000 19.3505 0.3650
58.1200 19.3572 0.3785
58.1400 19.3638 0.3738
58.1600 19.3705 0.3673
58.1800 19.3772 0.3807
58.2000 19.3839 0.3718
58.2200 19.3905 0.3635
58.2400 19.3972 0.3798
58.2600 19.4038 0.3677
58.2800 19.4105 0.3668
58.3000 19.4172 0.3787
58.3200 19.4239 0.3603
58.3400 19.4306 0.3697
58.3600 19.4373 0.3719
58.3800 19.4440 0.3598
58.4000 19.4506 0.3706
58.4200 19.4571 0.3656
58.4400 19.4638 0.3583
58.4600 19.4705 0.3710
58.4800 19.4772 0.3621
58.5000 19.4839 0.3557
58.5200 19.4906 0.3748
58.5400 19.4973 0.3561
58.5600 19.5039 0.3528
58.5800 19.5105 0.3738
58.6000 19.5172 0.3500
58.6200 19.5238 0.3658
58.6400 19.5305 0.3693
58.6600 19.5372 0.3471
58.6800 19.5439 0.3615
58.7000 19.5506 0.3621
58.7200 19.5572 0.3484
58.7400 19.5639 0.3598
58.7600 19.5705 0.3589
58.7800 19.5771 0.3484
58.8000 19.5838 0.3589
58.8200 19.5904 0.3517
58.8400 19.5971 0.3508
58.8600 19.6038 0.3540
58.8800 19.6105 0.3503
58.9000 19.6172 0.3470
58.9200 19.6239 0.3511
58.9400 19.6305 0.3439
58.9600 19.6371 0.3534
58.9800 19.6437 0.3470
59.0000 19.6505 0.3432
59.0200 19.6572 0.3494
59.0400 19.6639 0.3386
59.0600 19.6706 0.3430
59.0800 19.6773 0.3515
59.1000 19.6840 0.3365
59.1200 19.6906 0.3458
59.1400 19.6972 0.3449
59.1600 19.7039 0.3358
59.1800 19.7105 0.3459
59.2000 19.7172 0.3404
59.2200 19.7239 0.3315
59.2400 19.7306 0.3508
59.2600 19.7373 0.3370
59.2800 19.7439 0.3256
59.2990 19.7502 0.3385
