Raw Data
Time Displacement Force
(s) (mm) (N)
0.0000 0.0000 0.8166
0.0200 0.0000 0.8113
0.0400 0.0008 0.8363
0.0600 0.0040 0.8586
0.0800 0.0094 0.8149
0.1000 0.0151 0.8037
0.1200 0.0210 0.8512
0.1400 0.0276 0.8236
0.1600 0.0350 0.8130
0.1800 0.0424 0.8463
0.2000 0.0496 0.8155
0.2200 0.0565 0.8137
0.2400 0.0632 0.8493
0.2600 0.0699 0.8249
0.2800 0.0765 0.8274
0.3000 0.0832 0.8519
0.3200 0.0899 0.8307
0.3400 0.0967 0.8302
0.3600 0.1034 0.8524
0.3800 0.1100 0.8346
0.4000 0.1166 0.8432
0.4200 0.1233 0.8557
0.4400 0.1300 0.8394
0.4600 0.1367 0.8446
0.4800 0.1434 0.8643
0.5000 0.1501 0.8487
0.5200 0.1568 0.8488
0.5400 0.1634 0.8707
0.5600 0.1700 0.8556
0.5800 0.1766 0.8552
0.6000 0.1833 0.8761
0.6200 0.1900 0.8638
0.6400 0.1967 0.8617
0.6600 0.2034 0.8785
0.6800 0.2101 0.8676
0.7000 0.2167 0.8665
0.7200 0.2234 0.8787
0.7400 0.2300 0.8754
0.7600 0.2366 0.8727
0.7800 0.2433 0.8920
0.8000 0.2500 0.8782
0.8200 0.2567 0.8786
0.8400 0.2633 0.8977
0.8600 0.2700 0.8861
0.8800 0.2767 0.8788
0.9000 0.2834 0.9024
0.9200 0.2900 0.8917
0.9400 0.2966 0.8879
0.9600 0.3032 0.9018
0.9800 0.3099 0.8924
1.0000 0.3167 0.8892
1.0200 0.3233 0.9089
1.0400 0.3300 0.8929
1.0600 0.3367 0.8919
1.0800 0.3433 0.9125
1.1000 0.3499 0.8962
1.1200 0.3566 0.8980
1.1400 0.3633 0.9147
1.1600 0.3700 0.8962
1.1800 0.3767 0.9003
1.2000 0.3834 0.9095
1.2200 0.3901 0.9028
1.2400 0.3968 0.9006
1.2600 0.4034 0.9085
1.2800 0.4100 0.9007
1.3000 0.4167 0.9078
1.3200 0.4233 0.9130
1.3400 0.4301 0.8973
1.3600 0.4368 0.9097
1.3800 0.4434 0.9110
1.4000 0.4501 0.9061
1.4200 0.4568 0.9075
1.4400 0.4634 0.9111
1.4600 0.4700 0.9066
1.4800 0.4766 0.9132
1.5000 0.4833 0.9080
1.5200 0.4900 0.9054
1.5400 0.4967 0.9118
1.5600 0.5033 0.9076
1.5800 0.5100 0.9099
1.6000 0.5167 0.9125
1.6200 0.5233 0.9067
1.6400 0.5299 0.9159
1.6600 0.5366 0.9088
1.6800 0.5433 0.9106
1.7000 0.5500 0.9137
1.7200 0.5567 0.9088
1.7400 0.5634 0.9070
1.7600 0.5700 0.9164
1.7800 0.5767 0.9090
1.8000 0.5834 0.9046
1.8200 0.5900 0.9123
1.8400 0.5966 0.9044
1.8600 0.6033 0.9120
1.8800 0.6100 0.9168
1.9000 0.6167 0.8989
1.9200 0.6234 0.9124
1.9400 0.6301 0.9150
1.9600 0.6368 0.8989
1.9800 0.6434 0.9111
2.0000 0.6500 0.9118
2.0200 0.6566 0.9079
2.0400 0.6633 0.9132
2.0600 0.6700 0.9113
2.0800 0.6767 0.8987
2.1000 0.6834 0.9187
2.1200 0.6900 0.9110
2.1400 0.6967 0.9007
2.1600 0.7034 0.9136
2.1800 0.7100 0.9090
2.2000 0.7166 0.9038
2.2200 0.7233 0.9168
2.2400 0.7300 0.9064
2.2600 0.7367 0.9113
2.2800 0.7434 0.9107
2.3000 0.7500 0.9100
2.3200 0.7567 0.9104
2.3400 0.7634 0.9131
2.3600 0.7700 0.9051
2.3800 0.7766 0.9095
2.4000 0.7833 0.9160
2.4200 0.7900 0.9098
2.4400 0.7966 0.9109
2.4600 0.8033 0.9113
2.4800 0.8100 0.9129
2.5000 0.8167 0.9137
2.5200 0.8234 0.9084
2.5400 0.8300 0.9154
2.5600 0.8366 0.9159
2.5800 0.8433 0.9099
2.6000 0.8500 0.9095
2.6200 0.8567 0.9181
2.6400 0.8634 0.9140
2.6600 0.8701 0.9115
2.6800 0.8768 0.9197
2.7000 0.8834 0.9040
2.7200 0.8900 0.9161
2.7400 0.8966 0.9165
2.7600 0.9033 0.9118
2.7800 0.9100 0.9167
2.8000 0.9167 0.9163
2.8200 0.9234 0.9129
2.8400 0.9301 0.9156
2.8600 0.9368 0.9148
2.8800 0.9434 0.9137
2.9000 0.9500 0.9157
2.9200 0.9566 0.9170
2.9400 0.9633 0.9102
2.9600 0.9700 0.9143
2.9800 0.9767 0.9152
3.0000 0.9834 0.9165
3.0200 0.9900 0.9129
3.0400 0.9967 0.9146
3.0600 1.0034 0.9185
3.0800 1.0100 0.9120
3.1000 1.0166 0.9197
3.1200 1.0232 0.9189
3.1400 1.0299 0.9135
3.1600 1.0367 0.9173
3.1800 1.0434 0.9130
3.2000 1.0500 0.9177
3.2200 1.0567 0.9204
3.2400 1.0634 0.9085
3.2600 1.0700 0.9147
3.2800 1.0766 0.9276
3.3000 1.0833 0.9059
3.3200 1.0900 0.9139
3.3400 1.0967 0.9262
3.3600 1.1034 0.9042
3.3800 1.1101 0.9166
3.4000 1.1168 0.9188
3.4200 1.1235 0.9068
3.4400 1.1301 0.9183
3.4600 1.1367 0.9201
3.4800 1.1433 0.9066
3.5000 1.1500 0.9192
3.5200 1.1567 0.9182
3.5400 1.1634 0.9115
3.5600 1.1701 0.9139
3.5800 1.1767 0.9219
3.6000 1.1834 0.9090
3.6200 1.1900 0.9180
3.6400 1.1966 0.9220
3.6600 1.2033 0.9091
3.6800 1.2100 0.9202
3.7000 1.2167 0.9197
3.7200 1.2234 0.9092
3.7400 1.2300 0.9277
3.7600 1.2367 0.9209
3.7800 1.2434 0.9093
3.8000 1.2500 0.9241
3.8200 1.2566 0.9207
3.8400 1.2633 0.9146
3.8600 1.2700 0.9255
3.8800 1.2767 0.9200
3.9000 1.2833 0.9107
3.9200 1.2900 0.9238
3.9400 1.2967 0.9229
3.9600 1.3034 0.9194
3.9800 1.3100 0.9230
4.0000 1.3166 0.9220
4.0200 1.3233 0.9173
4.0400 1.3300 0.9244
4.0600 1.3367 0.9214
4.0800 1.3434 0.9195
4.1000 1.3501 0.9222
4.1200 1.3567 0.9245
4.1400 1.3634 0.9160
4.1600 1.3700 0.9192
4.1800 1.3766 0.9292
4.2000 1.3833 0.9189
4.2200 1.3900 0.9190
4.2400 1.3967 0.9343
4.2600 1.4034 0.9159
4.2800 1.4101 0.9208
4.3000 1.4168 0.9309
4.3200 1.4234 0.9172
4.3400 1.4300 0.9221
4.3600 1.4366 0.9289
4.3800 1.4433 0.9219
4.4000 1.4500 0.9237
4.4200 1.4567 0.9327
4.4400 1.4634 0.9198
4.4600 1.4700 0.9236
4.4800 1.4767 0.9364
4.5000 1.4834 0.9221
4.5200 1.4900 0.9212
4.5400 1.4966 0.9414
4.5600 1.5033 0.9182
4.5800 1.5099 0.9223
4.6000 1.5167 0.9433
4.6200 1.5234 0.9210
4.6400 1.5300 0.9231
4.6600 1.5367 0.9393
4.6800 1.5434 0.9157
4.7000 1.5500 0.9272
4.7200 1.5566 0.9335
4.7400 1.5633 0.9193
4.7600 1.5700 0.9279
4.7800 1.5767 0.9335
4.8000 1.5834 0.9153
4.8200 1.5901 0.9327
4.8400 1.5968 0.9341
4.8600 1.6034 0.9099
4.8800 1.6100 0.9287
4.9000 1.6166 0.9358
4.9200 1.6233 0.9197
4.9400 1.6300 0.9278
4.9600 1.6367 0.9296
4.9800 1.6434 0.9203
5.0000 1.6501 0.9249
5.0200 1.6568 0.9299
5.0400 1.6634 0.9247
5.0600 1.6701 0.9240
5.0800 1.6766 0.9260
5.1000 1.6833 0.9253
5.1200 1.6899 0.9258
5.1400 1.6967 0.9216
5.1600 1.7033 0.9272
5.1800 1.7100 0.9214
5.2000 1.7167 0.9244
5.2200 1.7234 0.9255
5.2400 1.7300 0.9227
5.2600 1.7366 0.9285
5.2800 1.7432 0.9236
5.3000 1.7499 0.9164
5.3200 1.7567 0.9312
5.3400 1.7634 0.9172
5.3600 1.7700 0.9204
5.3800 1.7767 0.9294
5.4000 1.7834 0.9190
5.4200 1.7900 0.9146
5.4400 1.7966 0.9286
5.4600 1.8033 0.9216
5.4800 1.8100 0.9144
5.5000 1.8167 0.9280
5.5200 1.8234 0.9208
5.5400 1.8301 0.9149
5.5600 1.8368 0.9331
5.5800 1.8434 0.9150
5.6000 1.8501 0.9068
5.6200 1.8567 0.9329
5.6400 1.8633 0.9259
5.6600 1.8700 0.9076
5.6800 1.8767 0.9282
5.7000 1.8834 0.9252
5.7200 1.8901 0.9084
5.7400 1.8967 0.9247
5.7600 1.9034 0.9195
5.7800 1.9100 0.9084
5.8000 1.9166 0.9231
5.8200 1.9233 0.9177
5.8400 1.9300 0.9126
5.8600 1.9367 0.9246
5.8800 1.9433 0.9125
5.9000 1.9500 0.9160
5.9200 1.9567 0.9243
5.9400 1.9634 0.9100
5.9600 1.9700 0.9172
5.9800 1.9766 0.9281
6.0000 1.9832 0.9077
6.0200 1.9899 0.9153
6.0400 1.9967 0.9262
6.0600 2.0034 0.9144
6.0800 2.0100 0.9111
6.1000 2.0167 0.9217
6.1200 2.0234 0.9190
6.1400 2.0301 0.9115
6.1600 2.0367 0.9136
6.1800 2.0433 0.9199
6.2000 2.0500 0.9179
6.2200 2.0567 0.9095
6.2400 2.0634 0.9247
6.2600 2.0701 0.9142
6.2800 2.0767 0.9097
6.3000 2.0834 0.9232
6.3200 2.0901 0.9136
6.3400 2.0967 0.9105
6.3600 2.1033 0.9252
6.3800 2.1100 0.9094
6.4000 2.1167 0.9079
6.4200 2.1234 0.9232
6.4400 2.1301 0.9126
6.4600 2.1367 0.9095
6.4800 2.1434 0.9176
6.5000 2.1501 0.9101
6.5200 2.1567 0.9147
6.5400 2.1633 0.9178
6.5600 2.1700 0.9132
6.5800 2.1767 0.9147
6.6000 2.1833 0.9147
6.6200 2.1900 0.9120
6.6400 2.1967 0.9188
6.6600 2.2034 0.9111
6.6800 2.2101 0.9125
6.7000 2.2166 0.9197
6.7200 2.2232 0.9096
6.7400 2.2299 0.9111
6.7600 2.2366 0.9221
6.7800 2.2433 0.9103
6.8000 2.2500 0.9089
6.8200 2.2567 0.9193
6.8400 2.2634 0.9159
6.8600 2.2700 0.9092
6.8800 2.2767 0.9171
6.9000 2.2833 0.9175
6.9200 2.2900 0.9113
6.9400 2.2967 0.9143
6.9600 2.3034 0.9119
6.9800 2.3100 0.9169
7.0000 2.3167 0.9156
7.0200 2.3234 0.9126
7.0400 2.3301 0.9112
7.0600 2.3367 0.9112
7.0800 2.3433 0.9130
7.1000 2.3500 0.9126
7.1200 2.3566 0.9090
7.1400 2.3634 0.9192
7.1600 2.3701 0.9086
7.1800 2.3767 0.9054
7.2000 2.3834 0.9170
7.2200 2.3901 0.9105
7.2400 2.3967 0.9064
7.2600 2.4033 0.9187
7.2800 2.4099 0.9127
7.3000 2.4167 0.9049
7.3200 2.4234 0.9142
7.3400 2.4301 0.9136
7.3600 2.4367 0.9067
7.3800 2.4434 0.9155
7.4000 2.4500 0.9125
7.4200 2.4567 0.9065
7.4400 2.4633 0.9129
7.4600 2.4699 0.9147
7.4800 2.4766 0.9078
7.5000 2.4833 0.9085
7.5200 2.4900 0.9133
7.5400 2.4967 0.9057
7.5600 2.5034 0.9106
7.5800 2.5100 0.9111
7.6000 2.5167 0.9095
7.6200 2.5233 0.9127
7.6400 2.5300 0.9118
7.6600 2.5367 0.9030
7.6800 2.5434 0.9130
7.7000 2.5501 0.9117
7.7200 2.5567 0.9012
7.7400 2.5634 0.9118
7.7600 2.5701 0.9113
7.7800 2.5767 0.8942
7.8000 2.5833 0.9205
7.8200 2.5900 0.9106
7.8400 2.5967 0.8945
7.8600 2.6034 0.9161
7.8800 2.6101 0.9166
7.9000 2.6167 0.8981
7.9200 2.6234 0.9052
7.9400 2.6301 0.9141
7.9600 2.6367 0.9046
7.9800 2.6433 0.9068
8.0000 2.6499 0.9108
8.0200 2.6566 0.9039
8.0400 2.6633 0.9117
8.0600 2.6700 0.9048
8.0800 2.6767 0.9035
8.1000 2.6834 0.9164
8.1200 2.6901 0.9063
8.1400 2.6967 0.9019
8.1600 2.7033 0.9074
8.1800 2.7099 0.9039
8.2000 2.7166 0.9108
8.2200 2.7233 0.9103
8.2400 2.7300 0.8932
8.2600 2.7367 0.9082
8.2800 2.7434 0.9101
8.3000 2.7501 0.9030
8.3200 2.7567 0.8984
8.3400 2.7633 0.9059
8.3600 2.7699 0.9110
8.3800 2.7766 0.8995
8.4000 2.7834 0.9030
8.4200 2.7900 0.9099
8.4400 2.7967 0.9005
8.4600 2.8034 0.9070
8.4800 2.8101 0.9018
8.5000 2.8167 0.8971
8.5200 2.8233 0.9113
8.5400 2.8300 0.9072
8.5600 2.8367 0.8938
8.5800 2.8434 0.9079
8.6000 2.8501 0.9052
8.6200 2.8568 0.8924
8.6400 2.8634 0.9053
8.6600 2.8701 0.9049
8.6800 2.8767 0.8963
8.7000 2.8833 0.9081
8.7200 2.8899 0.8988
8.7400 2.8966 0.8991
8.7600 2.9033 0.9054
8.7800 2.9100 0.9053
8.8000 2.9167 0.8978
8.8200 2.9234 0.8997
8.8400 2.9301 0.9079
8.8600 2.9367 0.8974
8.8800 2.9432 0.8986
8.9000 2.9499 0.9054
8.9200 2.9566 0.8974
8.9400 2.9633 0.8949
8.9600 2.9700 0.9040
8.9800 2.9767 0.8980
9.0000 2.9834 0.8970
9.0200 2.9900 0.8986
9.0400 2.9967 0.8995
9.0600 3.0033 0.9009
9.0800 3.0100 0.9063
9.1000 3.0167 0.8923
9.1200 3.0234 0.8962
9.1400 3.0301 0.9030
9.1600 3.0367 0.8981
9.1800 3.0434 0.9042
9.2000 3.0501 0.9027
9.2200 3.0567 0.8893
9.2400 3.0633 0.8987
9.2600 3.0699 0.9073
9.2800 3.0766 0.8941
9.3000 3.0834 0.8952
9.3200 3.0901 0.9063
9.3400 3.0968 0.8927
9.3600 3.1034 0.8945
9.3800 3.1101 0.9043
9.4000 3.1167 0.9003
9.4200 3.1233 0.8954
9.4400 3.1299 0.9044
9.4600 3.1366 0.8939
9.4800 3.1433 0.8924
9.5000 3.1500 0.9099
9.5200 3.1567 0.8956
9.5400 3.1634 0.8945
9.5600 3.1701 0.9059
9.5800 3.1767 0.8987
9.6000 3.1833 0.8962
9.6200 3.1899 0.9075
9.6400 3.1966 0.8968
9.6600 3.2033 0.8943
9.6800 3.2100 0.9034
9.7000 3.2167 0.8979
9.7200 3.2233 0.8966
9.7400 3.2300 0.9035
9.7600 3.2367 0.8894
9.7800 3.2433 0.8983
9.8000 3.2499 0.9059
9.8200 3.2566 0.8933
9.8400 3.2634 0.8966
9.8600 3.2701 0.9018
9.8800 3.2768 0.8916
9.9000 3.2834 0.8967
9.9200 3.2901 0.8955
9.9400 3.2967 0.8977
9.9600 3.3033 0.8979
9.9800 3.3100 0.9019
10.0000 3.3167 0.8992
10.0200 3.3234 0.8949
10.0400 3.3301 0.9000
10.0600 3.3367 0.8986
10.0800 3.3434 0.8968
10.1000 3.3501 0.9021
10.1200 3.3567 0.8981
10.1400 3.3633 0.8928
10.1600 3.3699 0.9005
10.1800 3.3766 0.8994
10.2000 3.3833 0.8924
10.2200 3.3900 0.9003
10.2400 3.3967 0.9008
10.2600 3.4034 0.8859
10.2800 3.4101 0.9011
10.3000 3.4167 0.8947
10.3200 3.4233 0.8914
10.3400 3.4299 0.9015
10.3600 3.4366 0.8973
10.3800 3.4433 0.8886
10.4000 3.4500 0.9028
10.4200 3.4567 0.8956
10.4400 3.4634 0.8840
10.4600 3.4701 0.9016
10.4800 3.4767 0.8964
10.5000 3.4833 0.8823
10.5200 3.4900 0.9032
10.5400 3.4967 0.8951
10.5600 3.5034 0.8865
10.5800 3.5100 0.9012
10.6000 3.5167 0.8950
10.6200 3.5234 0.8852
10.6400 3.5301 0.9002
10.6600 3.5368 0.8912
10.6800 3.5434 0.8859
10.7000 3.5500 0.9078
10.7200 3.5566 0.8861
10.7400 3.5633 0.8858
10.7600 3.5700 0.9022
10.7800 3.5767 0.8863
10.8000 3.5834 0.8931
10.8200 3.5901 0.8966
10.8400 3.5967 0.8854
10.8600 3.6033 0.8958
10.8800 3.6100 0.8964
10.9000 3.6166 0.8843
10.9200 3.6234 0.8925
10.9400 3.6301 0.8951
10.9600 3.6367 0.8839
10.9800 3.6434 0.8917
11.0000 3.6501 0.8896
11.0200 3.6567 0.8902
11.0400 3.6633 0.8897
11.0600 3.6699 0.8868
11.0800 3.6766 0.8926
11.1000 3.6833 0.8903
11.1200 3.6900 0.8817
11.1400 3.6967 0.8937
11.1600 3.7033 0.8935
11.1800 3.7100 0.8827
11.2000 3.7167 0.8901
11.2200 3.7233 0.8864
11.2400 3.7299 0.8841
11.2600 3.7366 0.8963
11.2800 3.7433 0.8842
11.3000 3.7500 0.8813
11.3200 3.7567 0.8955
11.3400 3.7635 0.8842
11.3600 3.7702 0.8829
11.3800 3.7768 0.8929
11.4000 3.7834 0.8874
11.4200 3.7900 0.8828
11.4400 3.7966 0.8930
11.4600 3.8034 0.8798
11.4800 3.8101 0.8825
11.5000 3.8168 0.8953
11.5200 3.8234 0.8788
11.5400 3.8301 0.8823
11.5600 3.8367 0.8943
11.5800 3.8433 0.8803
11.6000 3.8500 0.8877
11.6200 3.8566 0.8907
11.6400 3.8633 0.8811
11.6600 3.8700 0.8838
11.6800 3.8767 0.8886
11.7000 3.8833 0.8808
11.7200 3.8900 0.8881
11.7400 3.8967 0.8810
11.7600 3.9033 0.8830
11.7800 3.9099 0.8840
11.8000 3.9166 0.8840
11.8200 3.9233 0.8842
11.8400 3.9300 0.8808
11.8600 3.9367 0.8851
11.8800 3.9433 0.8846
11.9000 3.9501 0.8795
11.9200 3.9567 0.8845
11.9400 3.9633 0.8850
11.9600 3.9699 0.8817
11.9800 3.9766 0.8867
12.0000 3.9833 0.8848
12.0200 3.9901 0.8751
12.0400 3.9967 0.8885
12.0600 4.0034 0.8866
12.0800 4.0101 0.8727
12.1000 4.0167 0.8886
12.1200 4.0234 0.8835
12.1400 4.0300 0.8759
12.1600 4.0367 0.8888
12.1800 4.0434 0.8836
12.2000 4.0500 0.8754
12.2200 4.0567 0.8918
12.2400 4.0634 0.8760
12.2600 4.0701 0.8786
12.2800 4.0768 0.8886
12.3000 4.0834 0.8763
12.3200 4.0899 0.8821
12.3400 4.0966 0.8904
12.3600 4.1033 0.8754
12.3800 4.1100 0.8840
12.4000 4.1167 0.8829
12.4200 4.1234 0.8758
12.4400 4.1301 0.8894
12.4600 4.1367 0.8827
12.4800 4.1433 0.8729
12.5000 4.1499 0.8863
12.5200 4.1566 0.8819
12.5400 4.1633 0.8753
12.5600 4.1700 0.8860
12.5800 4.1767 0.8777
12.6000 4.1834 0.8774
12.6200 4.1900 0.8813
12.6400 4.1967 0.8772
12.6600 4.2034 0.8778
12.6800 4.2100 0.8862
12.7000 4.2166 0.8742
12.7200 4.2233 0.8811
12.7400 4.2300 0.8797
12.7600 4.2367 0.8779
12.7800 4.2434 0.8829
12.8000 4.2501 0.8725
12.8200 4.2568 0.8767
12.8400 4.2634 0.8860
12.8600 4.2700 0.8675
12.8800 4.2766 0.8743
12.9000 4.2833 0.8823
12.9200 4.2900 0.8703
12.9400 4.2967 0.8750
12.9600 4.3034 0.8875
12.9800 4.3101 0.8645
13.0000 4.3167 0.8764
13.0200 4.3234 0.8851
13.0400 4.3300 0.8679
13.0600 4.3366 0.8764
13.0800 4.3433 0.8847
13.1000 4.3500 0.8614
13.1200 4.3567 0.8742
13.1400 4.3634 0.8876
13.1600 4.3701 0.8585
13.1800 4.3767 0.8719
13.2000 4.3834 0.8823
13.2200 4.3899 0.8642
13.2400 4.3966 0.8799
13.2600 4.4033 0.8803
13.2800 4.4100 0.8608
13.3000 4.4167 0.8792
13.3200 4.4234 0.8807
13.3400 4.4301 0.8631
13.3600 4.4367 0.8716
13.3800 4.4434 0.8805
13.4000 4.4500 0.8611
13.4200 4.4566 0.8779
13.4400 4.4633 0.8830
13.4600 4.4701 0.8594
13.4800 4.4768 0.8739
13.5000 4.4834 0.8786
13.5200 4.4901 0.8653
13.5400 4.4968 0.8766
13.5600 4.5034 0.8741
13.5800 4.5100 0.8624
13.6000 4.5166 0.8723
13.6200 4.5233 0.8810
13.6400 4.5301 0.8655
13.6600 4.5367 0.8708
13.6800 4.5434 0.8756
13.7000 4.5500 0.8652
13.7200 4.5567 0.8682
13.7400 4.5633 0.8730
13.7600 4.5699 0.8685
13.7800 4.5766 0.8692
13.8000 4.5833 0.8733
13.8200 4.5900 0.8621
13.8400 4.5967 0.8701
13.8600 4.6034 0.8807
13.8800 4.6101 0.8615
13.9000 4.6168 0.8630
13.9200 4.6234 0.8790
13.9400 4.6300 0.8635
13.9600 4.6366 0.8693
13.9800 4.6433 0.8744
14.0000 4.6500 0.8676
14.0200 4.6567 0.8645
14.0400 4.6634 0.8752
14.0600 4.6701 0.8631
14.0800 4.6767 0.8678
14.1000 4.6834 0.8726
14.1200 4.6900 0.8590
14.1400 4.6966 0.8671
14.1600 4.7033 0.8777
14.1800 4.7100 0.8591
14.2000 4.7167 0.8652
14.2200 4.7234 0.8723
14.2400 4.7301 0.8592
14.2600 4.7368 0.8667
14.2800 4.7434 0.8739
14.3000 4.7500 0.8575
14.3200 4.7566 0.8669
14.3400 4.7633 0.8735
14.3600 4.7700 0.8537
14.3800 4.7767 0.8685
14.4000 4.7834 0.8746
14.4200 4.7901 0.8555
14.4400 4.7968 0.8656
14.4600 4.8034 0.8723
14.4800 4.8100 0.8555
14.5000 4.8166 0.8682
14.5200 4.8233 0.8734
14.5400 4.8300 0.8542
14.5600 4.8367 0.8631
14.5800 4.8433 0.8706
14.6000 4.8500 0.8554
14.6200 4.8567 0.8670
14.6400 4.8634 0.8647
14.6600 4.8700 0.8602
14.6800 4.8766 0.8680
14.7000 4.8833 0.8667
14.7200 4.8900 0.8618
14.7400 4.8967 0.8650
14.7600 4.9033 0.8620
14.7800 4.9100 0.8630
14.8000 4.9167 0.8627
14.8200 4.9234 0.8600
14.8400 4.9300 0.8645
14.8600 4.9366 0.8650
14.8800 4.9433 0.8567
14.9000 4.9500 0.8664
14.9200 4.9567 0.8557
14.9400 4.9634 0.8590
14.9600 4.9701 0.8693
14.9800 4.9768 0.8509
15.0000 4.9834 0.8630
15.0200 4.9900 0.8683
15.0400 4.9966 0.8509
15.0600 5.0033 0.8641
15.0800 5.0100 0.8670
15.1000 5.0167 0.8478
15.1200 5.0234 0.8671
15.1400 5.0301 0.8659
15.1600 5.0367 0.8456
15.1800 5.0434 0.8641
15.2000 5.0500 0.8658
15.2200 5.0566 0.8479
15.2400 5.0633 0.8670
15.2600 5.0700 0.8586
15.2800 5.0767 0.8541
15.3000 5.0834 0.8624
15.3200 5.0900 0.8585
15.3400 5.0967 0.8537
15.3600 5.1034 0.8599
15.3800 5.1100 0.8570
15.4000 5.1166 0.8552
15.4200 5.1233 0.8622
15.4400 5.1300 0.8577
15.4600 5.1367 0.8493
15.4800 5.1433 0.8597
15.5000 5.1500 0.8555
15.5200 5.1567 0.8526
15.5400 5.1633 0.8555
15.5600 5.1700 0.8578
15.5800 5.1766 0.8537
15.6000 5.1833 0.8568
15.6200 5.1900 0.8571
15.6400 5.1967 0.8505
15.6600 5.2034 0.8530
15.6800 5.2101 0.8541
15.7000 5.2168 0.8541
15.7200 5.2234 0.8541
15.7400 5.2300 0.8494
15.7600 5.2367 0.8567
15.7800 5.2433 0.8512
15.8000 5.2500 0.8512
15.8200 5.2567 0.8618
15.8400 5.2634 0.8460
15.8600 5.2701 0.8514
15.8800 5.2768 0.8533
15.9000 5.2834 0.8500
15.9200 5.2900 0.8502
15.9400 5.2966 0.8557
15.9600 5.3033 0.8463
15.9800 5.3100 0.8552
16.0000 5.3167 0.8497
16.0200 5.3234 0.8490
16.0400 5.3300 0.8579
16.0600 5.3367 0.8488
16.0800 5.3434 0.8477
16.1000 5.3499 0.8569
16.1200 5.3565 0.8478
16.1400 5.3632 0.8481
16.1600 5.3700 0.8613
16.1800 5.3767 0.8440
16.2000 5.3834 0.8438
16.2200 5.3901 0.8588
16.2400 5.3967 0.8438
16.2600 5.4034 0.8450
16.2800 5.4100 0.8581
16.3000 5.4167 0.8461
16.3200 5.4233 0.8464
16.3400 5.4300 0.8521
16.3600 5.4367 0.8446
16.3800 5.4434 0.8511
16.4000 5.4501 0.8521
16.4200 5.4568 0.8435
16.4400 5.4634 0.8485
16.4600 5.4700 0.8502
16.4800 5.4766 0.8503
16.5000 5.4833 0.8508
16.5200 5.4900 0.8519
16.5400 5.4967 0.8441
16.5600 5.5034 0.8487
16.5800 5.5101 0.8482
16.6000 5.5167 0.8471
16.6200 5.5234 0.8449
16.6400 5.5300 0.8497
16.6600 5.5366 0.8505
16.6800 5.5433 0.8444
16.7000 5.5500 0.8450
16.7200 5.5567 0.8526
16.7400 5.5634 0.8388
16.7600 5.5700 0.8520
16.7800 5.5767 0.8539
16.8000 5.5834 0.8390
16.8200 5.5900 0.8465
16.8400 5.5966 0.8498
16.8600 5.6033 0.8392
16.8800 5.6099 0.8511
16.9000 5.6166 0.8481
16.9200 5.6233 0.8382
16.9400 5.6300 0.8518
16.9600 5.6367 0.8450
16.9800 5.6434 0.8364
17.0000 5.6500 0.8532
17.0200 5.6567 0.8494
17.0400 5.6633 0.8329
17.0600 5.6700 0.8520
17.0800 5.6767 0.8468
17.1000 5.6835 0.8335
17.1200 5.6901 0.8475
17.1400 5.6968 0.8466
17.1600 5.7034 0.8310
17.1800 5.7100 0.8505
17.2000 5.7166 0.8505
17.2200 5.7233 0.8338
17.2400 5.7300 0.8458
17.2600 5.7367 0.8444
17.2800 5.7434 0.8341
17.3000 5.7501 0.8457
17.3200 5.7568 0.8423
17.3400 5.7634 0.8347
17.3600 5.7700 0.8403
17.3800 5.7766 0.8414
17.4000 5.7833 0.8343
17.4200 5.7899 0.8475
17.4400 5.7967 0.8422
17.4600 5.8034 0.8280
17.4800 5.8101 0.8424
17.5000 5.8167 0.8436
17.5200 5.8234 0.8295
17.5400 5.8300 0.8417
17.5600 5.8366 0.8425
17.5800 5.8432 0.8318
17.6000 5.8499 0.8405
17.6200 5.8567 0.8404
17.6400 5.8634 0.8301
17.6600 5.8700 0.8411
17.6800 5.8767 0.8407
17.7000 5.8834 0.8267
17.7200 5.8900 0.8389
17.7400 5.8966 0.8385
17.7600 5.9032 0.8344
17.7800 5.9100 0.8361
17.8000 5.9167 0.8436
17.8200 5.9234 0.8263
17.8400 5.9301 0.8350
17.8600 5.9368 0.8418
17.8800 5.9435 0.8251
17.9000 5.9501 0.8337
17.9200 5.9567 0.8447
17.9400 5.9633 0.8278
17.9600 5.9700 0.8316
17.9800 5.9767 0.8414
18.0000 5.9834 0.8261
18.0200 5.9901 0.8293
18.0400 5.9968 0.8431
18.0600 6.0034 0.8240
18.0800 6.0100 0.8312
18.1000 6.0166 0.8413
18.1200 6.0232 0.8274
18.1400 6.0300 0.8353
18.1600 6.0367 0.8368
18.1800 6.0434 0.8256
18.2000 6.0500 0.8310
18.2200 6.0567 0.8395
18.2400 6.0634 0.8238
18.2600 6.0700 0.8337
18.2800 6.0766 0.8428
18.3000 6.0833 0.8185
18.3200 6.0900 0.8302
18.3400 6.0967 0.8424
18.3600 6.1033 0.8208
18.3800 6.1100 0.8297
18.4000 6.1167 0.8382
18.4200 6.1234 0.8211
18.4400 6.1300 0.8284
18.4600 6.1366 0.8405
18.4800 6.1433 0.8206
18.5000 6.1500 0.8304
18.5200 6.1567 0.8404
18.5400 6.1634 0.8158
18.5600 6.1700 0.8323
18.5800 6.1767 0.8415
18.6000 6.1834 0.8140
18.6200 6.1901 0.8302
18.6400 6.1967 0.8359
18.6600 6.2033 0.8215
18.6800 6.2100 0.8310
18.7000 6.2167 0.8329
18.7200 6.2234 0.8171
18.7400 6.2301 0.8340
18.7600 6.2368 0.8290
18.7800 6.2434 0.8169
18.8000 6.2501 0.8328
18.8200 6.2567 0.8277
18.8400 6.2633 0.8203
18.8600 6.2700 0.8322
18.8800 6.2767 0.8266
18.9000 6.2834 0.8216
18.9200 6.2900 0.8342
18.9400 6.2967 0.8217
18.9600 6.3034 0.8238
18.9800 6.3100 0.8321
19.0000 6.3166 0.8203
19.0200 6.3232 0.8262
19.0400 6.3299 0.8266
19.0600 6.3366 0.8210
19.0800 6.3433 0.8259
19.1000 6.3500 0.8248
19.1200 6.3567 0.8259
19.1400 6.3634 0.8244
19.1600 6.3700 0.8249
19.1800 6.3766 0.8235
19.2000 6.3833 0.8275
19.2200 6.3900 0.8213
19.2400 6.3967 0.8256
19.2600 6.4034 0.8263
19.2800 6.4101 0.8185
19.3000 6.4168 0.8259
19.3200 6.4234 0.8263
19.3400 6.4301 0.8158
19.3600 6.4367 0.8298
19.3800 6.4433 0.8244
19.4000 6.4500 0.8176
19.4200 6.4567 0.8259
19.4400 6.4634 0.8262
19.4600 6.4701 0.8195
19.4800 6.4768 0.8276
19.5000 6.4834 0.8259
19.5200 6.4901 0.8134
19.5400 6.4967 0.8291
19.5600 6.5033 0.8217
19.5800 6.5099 0.8192
19.6000 6.5166 0.8282
19.6200 6.5234 0.8219
19.6400 6.5300 0.8121
19.6600 6.5367 0.8286
19.6800 6.5434 0.8227
19.7000 6.5500 0.8136
19.7200 6.5566 0.8263
19.7400 6.5632 0.8232
19.7600 6.5699 0.8167
19.7800 6.5766 0.8281
19.8000 6.5833 0.8184
19.8200 6.5900 0.8189
19.8400 6.5967 0.8251
19.8600 6.6034 0.8212
19.8800 6.6100 0.8177
19.9000 6.6166 0.8200
19.9200 6.6233 0.8213
19.9400 6.6300 0.8164
19.9600 6.6367 0.8142
19.9800 6.6434 0.8198
20.0000 6.6501 0.8199
20.0200 6.6568 0.8119
20.0400 6.6635 0.8232
20.0600 6.6701 0.8185
20.0800 6.6767 0.8136
20.1000 6.6833 0.8244
20.1200 6.6900 0.8158
20.1400 6.6967 0.8138
20.1600 6.7034 0.8226
20.1800 6.7101 0.8119
20.2000 6.7168 0.8151
20.2200 6.7234 0.8216
20.2400 6.7301 0.8125
20.2600 6.7366 0.8137
20.2800 6.7433 0.8217
20.3000 6.7499 0.8125
20.3200 6.7567 0.8142
20.3400 6.7634 0.8203
20.3600 6.7700 0.8149
20.3800 6.7767 0.8105
20.4000 6.7834 0.8227
20.4200 6.7900 0.8126
20.4400 6.7966 0.8122
20.4600 6.8033 0.8182
20.4800 6.8099 0.8140
20.5000 6.8166 0.8099
20.5200 6.8233 0.8187
20.5400 6.8300 0.8142
20.5600 6.8367 0.8128
20.5800 6.8434 0.8141
20.6000 6.8501 0.8136
20.6200 6.8567 0.8113
20.6400 6.8633 0.8186
20.6600 6.8700 0.8120
20.6800 6.8767 0.8077
20.7000 6.8834 0.8136
20.7200 6.8901 0.8107
20.7400 6.8968 0.8128
20.7600 6.9034 0.8166
20.7800 6.9101 0.8123
20.8000 6.9167 0.8074
20.8200 6.9233 0.8157
20.8400 6.9299 0.8145
20.8600 6.9367 0.8103
20.8800 6.9434 0.8117
20.9000 6.9501 0.8151
20.9200 6.9567 0.8037
20.9400 6.9634 0.8165
20.9600 6.9701 0.8139
20.9800 6.9767 0.8054
21.0000 6.9833 0.8134
21.0200 6.9900 0.8115
21.0400 6.9967 0.8048
21.0600 7.0033 0.8137
21.0800 7.0100 0.8076
21.1000 7.0167 0.8083
21.1200 7.0234 0.8158
21.1400 7.0301 0.8108
21.1600 7.0367 0.8030
21.1800 7.0433 0.8182
21.2000 7.0499 0.8104
21.2200 7.0566 0.8015
21.2400 7.0633 0.8134
21.2600 7.0700 0.8104
21.2800 7.0767 0.8053
21.3000 7.0834 0.8134
21.3200 7.0900 0.8066
21.3400 7.0966 0.8044
21.3600 7.1033 0.8116
21.3800 7.1099 0.8111
21.4000 7.1166 0.8006
21.4200 7.1234 0.8122
21.4400 7.1300 0.8113
21.4600 7.1367 0.7993
21.4800 7.1434 0.8167
21.5000 7.1501 0.8086
21.5200 7.1567 0.8013
21.5400 7.1633 0.8112
21.5600 7.1700 0.8068
21.5800 7.1767 0.7977
21.6000 7.1834 0.8128
21.6200 7.1900 0.8099
21.6400 7.1967 0.7958
21.6600 7.2034 0.8167
21.6800 7.2101 0.8041
21.7000 7.2167 0.7919
21.7200 7.2233 0.8179
21.7400 7.2299 0.8004
21.7600 7.2366 0.7983
21.7800 7.2434 0.8098
21.8000 7.2501 0.8001
21.8200 7.2567 0.7967
21.8400 7.2634 0.8152
21.8600 7.2701 0.8006
21.8800 7.2767 0.7959
21.9000 7.2833 0.8140
21.9200 7.2899 0.8013
21.9400 7.2966 0.7949
21.9600 7.3033 0.8129
21.9800 7.3100 0.8008
22.0000 7.3167 0.7975
22.0200 7.3234 0.8086
22.0400 7.3300 0.7986
22.0600 7.3367 0.7960
22.0800 7.3433 0.8135
22.1000 7.3499 0.7965
22.1200 7.3566 0.7946
22.1400 7.3634 0.8097
22.1600 7.3701 0.7974
22.1800 7.3767 0.7951
22.2000 7.3834 0.8021
22.2200 7.3901 0.7984
22.2400 7.3967 0.7952
22.2600 7.4033 0.8024
22.2800 7.4100 0.7985
22.3000 7.4167 0.7967
22.3200 7.4234 0.7983
22.3400 7.4301 0.7993
22.3600 7.4367 0.7955
22.3800 7.4434 0.8005
22.4000 7.4501 0.7958
22.4200 7.4567 0.7918
22.4400 7.4633 0.7998
22.4600 7.4699 0.8025
22.4800 7.4766 0.7907
22.5000 7.4833 0.7951
22.5200 7.4900 0.8039
22.5400 7.4967 0.7918
22.5600 7.5034 0.7974
22.5800 7.5101 0.8033
22.6000 7.5167 0.7821
22.6200 7.5233 0.8021
22.6400 7.5299 0.8011
22.6600 7.5366 0.7811
22.6800 7.5433 0.8022
22.7000 7.5500 0.8045
22.7200 7.5567 0.7778
22.7400 7.5634 0.7990
22.7600 7.5701 0.7990
22.7800 7.5767 0.7799
22.8000 7.5833 0.8038
22.8200 7.5899 0.7979
22.8400 7.5966 0.7861
22.8600 7.6034 0.7987
22.8800 7.6100 0.7920
22.9000 7.6167 0.7855
22.9200 7.6234 0.8025
22.9400 7.6301 0.7911
22.9600 7.6367 0.7844
22.9800 7.6434 0.8033
23.0000 7.6500 0.7927
23.0200 7.6567 0.7847
23.0400 7.6634 0.8053
23.0600 7.6701 0.7886
23.0800 7.6767 0.7878
23.1000 7.6834 0.7965
23.1200 7.6901 0.7882
23.1400 7.6967 0.7895
23.1600 7.7033 0.8008
23.1800 7.7099 0.7861
23.2000 7.7166 0.7941
23.2200 7.7233 0.7954
23.2400 7.7300 0.7873
23.2600 7.7367 0.7927
23.2800 7.7434 0.7958
23.3000 7.7501 0.7874
23.3200 7.7567 0.7911
23.3400 7.7633 0.7931
23.3600 7.7699 0.7895
23.3800 7.7766 0.7951
23.4000 7.7833 0.7906
23.4200 7.7900 0.7889
23.4400 7.7967 0.7968
23.4600 7.8033 0.7854
23.4800 7.8100 0.7910
23.5000 7.8167 0.7949
23.5200 7.8233 0.7861
23.5400 7.8299 0.7964
23.5600 7.8366 0.7926
23.5800 7.8434 0.7869
23.6000 7.8501 0.7938
23.6200 7.8567 0.7914
23.6400 7.8634 0.7864
23.6600 7.8701 0.7968
23.6800 7.8767 0.7874
23.7000 7.8833 0.7874
23.7200 7.8899 0.7968
23.7400 7.8966 0.7895
23.7600 7.9034 0.7850
23.7800 7.9101 0.7929
23.8000 7.9168 0.7887
23.8200 7.9234 0.7896
23.8400 7.9301 0.7882
23.8600 7.9367 0.7893
23.8800 7.9433 0.7884
23.9000 7.9499 0.7935
23.9200 7.9566 0.7884
23.9400 7.9634 0.7854
23.9600 7.9700 0.7866
23.9800 7.9767 0.7916
24.0000 7.9834 0.7859
24.0200 7.9901 0.7864
24.0400 7.9967 0.7927
24.0600 8.0034 0.7831
24.0800 8.0100 0.7856
24.1000 8.0166 0.7946
24.1200 8.0233 0.7800
24.1400 8.0300 0.7864
24.1600 8.0367 0.7917
24.1800 8.0434 0.7764
24.2000 8.0500 0.7878
24.2200 8.0567 0.7890
24.2400 8.0633 0.7773
24.2600 8.0699 0.7890
24.2800 8.0766 0.7934
24.3000 8.0833 0.7727
24.3200 8.0901 0.7864
24.3400 8.0968 0.7859
24.3600 8.1034 0.7738
24.3800 8.1101 0.7859
24.4000 8.1167 0.7824
24.4200 8.1233 0.7768
24.4400 8.1299 0.7901
24.4600 8.1366 0.7833
24.4800 8.1434 0.7780
24.5000 8.1501 0.7850
24.5200 8.1568 0.7847
24.5400 8.1634 0.7754
24.5600 8.1701 0.7870
24.5800 8.1767 0.7791
24.6000 8.1833 0.7781
24.6200 8.1899 0.7832
24.6400 8.1966 0.7803
24.6600 8.2033 0.7806
24.6800 8.2100 0.7782
24.7000 8.2167 0.7776
24.7200 8.2234 0.7831
24.7400 8.2301 0.7767
24.7600 8.2367 0.7826
24.7800 8.2433 0.7813
24.8000 8.2499 0.7779
24.8200 8.2566 0.7804
24.8400 8.2633 0.7775
24.8600 8.2700 0.7770
24.8800 8.2767 0.7803
24.9000 8.2834 0.7760
24.9200 8.2901 0.7721
24.9400 8.2967 0.7807
24.9600 8.3033 0.7748
24.9800 8.3099 0.7718
25.0000 8.3166 0.7832
25.0200 8.3233 0.7771
25.0400 8.3300 0.7697
25.0600 8.3367 0.7854
25.0800 8.3434 0.7725
25.1000 8.3501 0.7734
25.1200 8.3568 0.7843
25.1400 8.3634 0.7721
25.1600 8.3700 0.7740
25.1800 8.3766 0.7853
25.2000 8.3833 0.7680
25.2200 8.3900 0.7760
25.2400 8.3967 0.7813
25.2600 8.4034 0.7669
25.2800 8.4101 0.7715
25.3000 8.4167 0.7813
25.3200 8.4233 0.7678
25.3400 8.4299 0.7706
25.3600 8.4366 0.7798
25.3800 8.4433 0.7693
25.4000 8.4501 0.7701
25.4200 8.4567 0.7783
25.4400 8.4634 0.7674
25.4600 8.4701 0.7746
25.4800 8.4767 0.7762
25.5000 8.4833 0.7666
25.5200 8.4899 0.7712
25.5400 8.4966 0.7804
25.5600 8.5033 0.7667
25.5800 8.5100 0.7671
25.6000 8.5167 0.7779
25.6200 8.5233 0.7688
25.6400 8.5300 0.7687
25.6600 8.5367 0.7751
25.6800 8.5433 0.7676
25.7000 8.5499 0.7714
25.7200 8.5566 0.7751
25.7400 8.5633 0.7640
25.7600 8.5700 0.7714
25.7800 8.5767 0.7710
25.8000 8.5834 0.7647
25.8200 8.5901 0.7660
25.8400 8.5968 0.7731
25.8600 8.6034 0.7647
25.8800 8.6100 0.7663
25.9000 8.6166 0.7701
25.9200 8.6233 0.7663
25.9400 8.6301 0.7666
25.9600 8.6368 0.7694
25.9800 8.6434 0.7652
26.0000 8.6501 0.7680
26.0200 8.6568 0.7680
26.0400 8.6634 0.7692
26.0600 8.6700 0.7617
26.0800 8.6766 0.7741
26.1000 8.6833 0.7682
26.1200 8.6900 0.7578
26.1400 8.6967 0.7731
26.1600 8.7033 0.7648
26.1800 8.7100 0.7594
26.2000 8.7167 0.7670
26.2200 8.7233 0.7624
26.2400 8.7299 0.7633
26.2600 8.7366 0.7709
26.2800 8.7433 0.7640
26.3000 8.7500 0.7608
26.3200 8.7567 0.7671
26.3400 8.7633 0.7603
26.3600 8.7700 0.7617
26.3800 8.7767 0.7664
26.4000 8.7833 0.7604
26.4200 8.7899 0.7645
26.4400 8.7966 0.7688
26.4600 8.8033 0.7627
26.4800 8.8101 0.7593
26.5000 8.8168 0.7672
26.5200 8.8234 0.7592
26.5400 8.8301 0.7617
26.5600 8.8368 0.7648
26.5800 8.8434 0.7613
26.6000 8.8500 0.7584
26.6200 8.8567 0.7636
26.6400 8.8633 0.7655
26.6600 8.8700 0.7562
26.6800 8.8767 0.7610
26.7000 8.8834 0.7651
26.7200 8.8901 0.7535
26.7400 8.8968 0.7624
26.7600 8.9034 0.7637
26.7800 8.9100 0.7526
26.8000 8.9166 0.7632
26.8200 8.9233 0.7644
26.8400 8.9300 0.7515
26.8600 8.9367 0.7601
26.8800 8.9434 0.7680
26.9000 8.9501 0.7498
26.9200 8.9567 0.7604
26.9400 8.9633 0.7631
26.9600 8.9699 0.7529
26.9800 8.9766 0.7604
27.0000 8.9833 0.7572
27.0200 8.9900 0.7515
27.0400 8.9967 0.7630
27.0600 9.0034 0.7575
27.0800 9.0100 0.7502
27.1000 9.0167 0.7574
27.1200 9.0234 0.7616
27.1400 9.0300 0.7501
27.1600 9.0366 0.7618
27.1800 9.0433 0.7599
27.2000 9.0500 0.7524
27.2200 9.0567 0.7587
27.2400 9.0634 0.7586
27.2600 9.0701 0.7504
27.2800 9.0768 0.7581
27.3000 9.0834 0.7576
27.3200 9.0900 0.7464
27.3400 9.0966 0.7552
27.3600 9.1033 0.7616
27.3800 9.1100 0.7457
27.4000 9.1167 0.7535
27.4200 9.1234 0.7644
27.4400 9.1301 0.7486
27.4600 9.1368 0.7479
27.4800 9.1434 0.7616
27.5000 9.1500 0.7515
27.5200 9.1566 0.7541
27.5400 9.1633 0.7582
27.5600 9.1700 0.7495
27.5800 9.1767 0.7519
27.6000 9.1834 0.7594
27.6200 9.1901 0.7505
27.6400 9.1967 0.7525
27.6600 9.2034 0.7617
27.6800 9.2100 0.7425
27.7000 9.2166 0.7506
27.7200 9.2232 0.7580
27.7400 9.2300 0.7446
27.7600 9.2367 0.7475
27.7800 9.2434 0.7561
27.8000 9.2501 0.7454
27.8200 9.2567 0.7514
27.8400 9.2634 0.7553
27.8600 9.2700 0.7441
27.8800 9.2766 0.7468
27.9000 9.2833 0.7576
27.9200 9.2900 0.7407
27.9400 9.2967 0.7458
27.9600 9.3034 0.7565
27.9800 9.3101 0.7419
28.0000 9.3168 0.7466
28.0200 9.3234 0.7554
28.0400 9.3300 0.7426
28.0600 9.3366 0.7491
28.0800 9.3433 0.7492
28.1000 9.3500 0.7437
28.1200 9.3567 0.7468
28.1400 9.3634 0.7473
28.1600 9.3701 0.7469
28.1800 9.3767 0.7444
28.2000 9.3834 0.7456
28.2200 9.3900 0.7496
28.2400 9.3966 0.7474
28.2600 9.4032 0.7471
28.2800 9.4100 0.7486
28.3000 9.4167 0.7435
28.3200 9.4234 0.7490
28.3400 9.4301 0.7454
28.3600 9.4367 0.7443
28.3800 9.4434 0.7498
28.4000 9.4500 0.7444
28.4200 9.4566 0.7413
28.4400 9.4633 0.7502
28.4600 9.4700 0.7465
28.4800 9.4767 0.7404
28.5000 9.4834 0.7461
28.5200 9.4901 0.7509
28.5400 9.4967 0.7350
28.5600 9.5034 0.7499
28.5800 9.5100 0.7469
28.6000 9.5166 0.7377
28.6200 9.5233 0.7532
28.6400 9.5300 0.7441
28.6600 9.5367 0.7387
28.6800 9.5434 0.7452
28.7000 9.5501 0.7447
28.7200 9.5568 0.7362
28.7400 9.5634 0.7453
28.7600 9.5700 0.7424
28.7800 9.5766 0.7369
28.8000 9.5833 0.7510
28.8200 9.5900 0.7381
28.8400 9.5967 0.7379
28.8600 9.6034 0.7494
28.8800 9.6101 0.7347
28.9000 9.6168 0.7364
28.9200 9.6234 0.7464
28.9400 9.6300 0.7437
28.9600 9.6366 0.7368
28.9800 9.6433 0.7415
29.0000 9.6500 0.7414
29.0200 9.6567 0.7416
29.0400 9.6633 0.7404
29.0600 9.6700 0.7381
29.0800 9.6767 0.7435
29.1000 9.6834 0.7399
29.1200 9.6900 0.7330
29.1400 9.6966 0.7444
29.1600 9.7033 0.7376
29.1800 9.7100 0.7380
29.2000 9.7167 0.7341
29.2200 9.7233 0.7386
29.2400 9.7300 0.7418
29.2600 9.7367 0.7345
29.2800 9.7434 0.7364
29.3000 9.7500 0.7422
29.3200 9.7566 0.7370
29.3400 9.7633 0.7404
29.3600 9.7700 0.7396
29.3800 9.7767 0.7356
29.4000 9.7834 0.7368
29.4200 9.7901 0.7424
29.4400 9.7968 0.7326
29.4600 9.8034 0.7331
29.4800 9.8100 0.7456
29.5000 9.8166 0.7340
29.5200 9.8233 0.7364
29.5400 9.8300 0.7432
29.5600 9.8367 0.7340
29.5800 9.8434 0.7336
29.6000 9.8501 0.7457
29.6200 9.8567 0.7313
29.6400 9.8634 0.7341
29.6600 9.8700 0.7447
29.6800 9.8766 0.7253
29.7000 9.8833 0.7326
29.7200 9.8900 0.7476
29.7400 9.8967 0.7276
29.7600 9.9033 0.7369
29.7800 9.9100 0.7457
29.8000 9.9167 0.7279
29.8200 9.9234 0.7297
29.8400 9.9300 0.7435
29.8600 9.9366 0.7290
29.8800 9.9432 0.7322
29.9000 9.9499 0.7453
29.9200 9.9567 0.7211
29.9400 9.9633 0.7311
29.9600 9.9700 0.7457
29.9800 9.9767 0.7216
30.0000 9.9833 0.7325
30.0200 9.9900 0.7410
30.0400 9.9966 0.7254
30.0600 10.0033 0.7291
30.0800 10.0100 0.7384
30.1000 10.0167 0.7227
30.1200 10.0234 0.7361
30.1400 10.0301 0.7368
30.1600 10.0368 0.7219
30.1800 10.0434 0.7325
30.2000 10.0501 0.7365
30.2200 10.0567 0.7211
30.2400 10.0633 0.7323
30.2600 10.0700 0.7368
30.2800 10.0767 0.7192
30.3000 10.0834 0.7326
30.3200 10.0901 0.7327
30.3400 10.0968 0.7213
30.3600 10.1034 0.7291
30.3800 10.1100 0.7303
30.4000 10.1166 0.7248
30.4200 10.1233 0.7353
30.4400 10.1300 0.7240
30.4600 10.1367 0.7265
30.4800 10.1434 0.7306
30.5000 10.1500 0.7260
30.5200 10.1567 0.7294
30.5400 10.1634 0.7274
30.5600 10.1700 0.7209
30.5800 10.1766 0.7335
30.6000 10.1833 0.7268
30.6200 10.1900 0.7286
30.6400 10.1967 0.7281
30.6600 10.2034 0.7215
30.6800 10.2100 0.7292
30.7000 10.2167 0.7242
30.7200 10.2234 0.7213
30.7400 10.2300 0.7290
30.7600 10.2367 0.7249
30.7800 10.2433 0.7208
30.8000 10.2500 0.7314
30.8200 10.2567 0.7260
30.8400 10.2634 0.7192
30.8600 10.2701 0.7323
30.8800 10.2768 0.7206
30.9000 10.2834 0.7193
30.9200 10.2901 0.7314
30.9400 10.2966 0.7191
30.9600 10.3033 0.7234
30.9800 10.3100 0.7285
31.0000 10.3167 0.7254
31.0200 10.3234 0.7229
31.0400 10.3301 0.7224
31.0600 10.3367 0.7221
31.0800 10.3434 0.7234
31.1000 10.3500 0.7244
31.1200 10.3566 0.7258
31.1400 10.3633 0.7212
31.1600 10.3700 0.7234
31.1800 10.3767 0.7202
31.2000 10.3834 0.7241
31.2200 10.3900 0.7234
31.2400 10.3967 0.7264
31.2600 10.4034 0.7189
31.2800 10.4100 0.7210
31.3000 10.4166 0.7279
31.3200 10.4233 0.7164
31.3400 10.4299 0.7194
31.3600 10.4367 0.7282
31.3800 10.4433 0.7139
31.4000 10.4500 0.7193
31.4200 10.4567 0.7241
31.4400 10.4634 0.7148
31.4600 10.4701 0.7235
31.4800 10.4766 0.7238
31.5000 10.4833 0.7129
31.5200 10.4900 0.7242
31.5400 10.4967 0.7227
31.5600 10.5034 0.7102
31.5800 10.5101 0.7265
31.6000 10.5168 0.7227
31.6200 10.5234 0.7111
31.6400 10.5301 0.7255
31.6600 10.5367 0.7205
31.6800 10.5433 0.7121
31.7000 10.5500 0.7261
31.7200 10.5567 0.7175
31.7400 10.5634 0.7163
31.7600 10.5701 0.7219
31.7800 10.5768 0.7174
31.8000 10.5834 0.7139
31.8200 10.5901 0.7210
31.8400 10.5967 0.7105
31.8600 10.6033 0.7202
31.8800 10.6100 0.7228
31.9000 10.6167 0.7109
31.9200 10.6234 0.7183
31.9400 10.6301 0.7214
31.9600 10.6368 0.7131
31.9800 10.6434 0.7161
32.0000 10.6500 0.7155
32.0200 10.6566 0.7166
32.0400 10.6632 0.7147
32.0600 10.6699 0.7187
32.0800 10.6767 0.7141
32.1000 10.6834 0.7149
32.1200 10.6900 0.7151
32.1400 10.6967 0.7124
32.1600 10.7034 0.7144
32.1800 10.7100 0.7111
32.2000 10.7166 0.7128
32.2200 10.7233 0.7134
32.2400 10.7300 0.7148
32.2600 10.7367 0.7109
32.2800 10.7434 0.7120
32.3000 10.7501 0.7116
32.3200 10.7568 0.7101
32.3400 10.7635 0.7155
32.3600 10.7701 0.7105
32.3800 10.7767 0.7106
32.4000 10.7833 0.7166
32.4200 10.7900 0.7115
32.4400 10.7967 0.7100
32.4600 10.8034 0.7086
32.4800 10.8101 0.7108
32.5000 10.8167 0.7061
32.5200 10.8234 0.7088
32.5400 10.8300 0.7084
32.5600 10.8366 0.7088
32.5800 10.8432 0.7128
32.6000 10.8499 0.7076
32.6200 10.8567 0.7095
32.6400 10.8634 0.7130
32.6600 10.8700 0.7038
32.6800 10.8767 0.7146
32.7000 10.8834 0.7102
32.7200 10.8900 0.7039
32.7400 10.8967 0.7139
32.7600 10.9033 0.7093
32.7800 10.9100 0.7029
32.8000 10.9167 0.7126
32.8200 10.9234 0.7066
32.8400 10.9300 0.7054
32.8600 10.9367 0.7193
32.8800 10.9434 0.7041
32.9000 10.9500 0.7011
32.9200 10.9567 0.7168
32.9400 10.9633 0.7052
32.9600 10.9700 0.7023
32.9800 10.9767 0.7174
33.0000 10.9834 0.6972
33.0200 10.9900 0.7058
33.0400 10.9967 0.7149
33.0600 11.0034 0.6977
33.0800 11.0101 0.7041
33.1000 11.0167 0.7102
33.1200 11.0233 0.7001
33.1400 11.0300 0.7074
33.1600 11.0367 0.7087
33.1800 11.0434 0.6986
33.2000 11.0501 0.7038
33.2200 11.0568 0.7006
33.2400 11.0634 0.6983
33.2600 11.0701 0.7105
33.2800 11.0767 0.7002
33.3000 11.0833 0.7051
33.3200 11.0900 0.7033
33.3400 11.0967 0.6984
33.3600 11.1034 0.7087
33.3800 11.1100 0.7005
33.4000 11.1167 0.6972
33.4200 11.1234 0.7054
33.4400 11.1300 0.6990
33.4600 11.1366 0.6932
33.4800 11.1433 0.7094
33.5000 11.1499 0.7050
33.5200 11.1566 0.6957
33.5400 11.1633 0.7065
33.5600 11.1700 0.6986
33.5800 11.1767 0.6964
33.6000 11.1834 0.7112
33.6200 11.1900 0.6945
33.6400 11.1966 0.6992
33.6600 11.2033 0.7073
33.6800 11.2100 0.6918
33.7000 11.2167 0.6970
33.7200 11.2234 0.7084
33.7400 11.2301 0.6899
33.7600 11.2368 0.7020
33.7800 11.2434 0.6979
33.8000 11.2501 0.6906
33.8200 11.2567 0.7036
33.8400 11.2633 0.6998
33.8600 11.2700 0.6925
33.8800 11.2767 0.7034
33.9000 11.2834 0.6957
33.9200 11.2901 0.6922
33.9400 11.2967 0.7031
33.9600 11.3034 0.6956
33.9800 11.3101 0.6908
34.0000 11.3167 0.6988
34.0200 11.3233 0.6980
34.0400 11.3299 0.6968
34.0600 11.3366 0.6987
34.0800 11.3433 0.6938
34.1000 11.3500 0.6933
34.1200 11.3567 0.7001
34.1400 11.3634 0.6960
34.1600 11.3701 0.6935
34.1800 11.3766 0.6968
34.2000 11.3832 0.7015
34.2200 11.3899 0.6951
34.2400 11.3966 0.6939
34.2600 11.4033 0.7053
34.2800 11.4100 0.6914
34.3000 11.4167 0.6924
34.3200 11.4234 0.7014
34.3400 11.4300 0.6922
34.3600 11.4366 0.6932
34.3800 11.4433 0.7048
34.4000 11.4500 0.6924
34.4200 11.4567 0.6942
34.4400 11.4634 0.6999
34.4600 11.4701 0.6933
34.4800 11.4767 0.6901
34.5000 11.4834 0.7007
34.5200 11.4901 0.6920
34.5400 11.4967 0.6919
34.5600 11.5033 0.7034
34.5800 11.5100 0.6950
34.6000 11.5167 0.6849
34.6200 11.5234 0.6998
34.6400 11.5301 0.6930
34.6600 11.5368 0.6870
34.6800 11.5434 0.7003
34.7000 11.5501 0.6887
34.7200 11.5566 0.6879
34.7400 11.5633 0.7031
34.7600 11.5699 0.6879
34.7800 11.5766 0.6897
34.8000 11.5834 0.7015
34.8200 11.5900 0.6835
34.8400 11.5967 0.6860
34.8600 11.6033 0.7001
34.8800 11.6100 0.6887
34.9000 11.6166 0.6842
34.9200 11.6233 0.7009
34.9400 11.6299 0.6834
34.9600 11.6366 0.6876
34.9800 11.6433 0.6980
35.0000 11.6500 0.6850
35.0200 11.6567 0.6896
35.0400 11.6634 0.6969
35.0600 11.6701 0.6772
35.0800 11.6767 0.6868
35.1000 11.6833 0.6951
35.1200 11.6899 0.6821
35.1400 11.6966 0.6870
35.1600 11.7034 0.6947
35.1800 11.7101 0.6792
35.2000 11.7168 0.6917
35.2200 11.7234 0.6918
35.2400 11.7301 0.6779
35.2600 11.7367 0.6917
35.2800 11.7433 0.6909
35.3000 11.7500 0.6770
35.3200 11.7567 0.6926
35.3400 11.7634 0.6883
35.3600 11.7701 0.6759
35.3800 11.7767 0.6950
35.4000 11.7834 0.6851
35.4200 11.7901 0.6778
35.4400 11.7967 0.6911
35.4600 11.8033 0.6809
35.4800 11.8100 0.6842
35.5000 11.8167 0.6897
35.5200 11.8233 0.6795
35.5400 11.8300 0.6830
35.5600 11.8367 0.6842
35.5800 11.8434 0.6852
35.6000 11.8501 0.6843
35.6200 11.8567 0.6816
35.6400 11.8633 0.6798
35.6600 11.8699 0.6885
35.6800 11.8766 0.6826
35.7000 11.8833 0.6804
35.7200 11.8900 0.6845
35.7400 11.8967 0.6822
35.7600 11.9034 0.6821
35.7800 11.9100 0.6831
35.8000 11.9167 0.6767
35.8200 11.9233 0.6839
35.8400 11.9299 0.6827
35.8600 11.9366 0.6749
35.8800 11.9433 0.6841
35.9000 11.9500 0.6832
35.9200 11.9567 0.6743
35.9400 11.9634 0.6835
35.9600 11.9701 0.6805
35.9800 11.9767 0.6803
36.0000 11.9833 0.6810
36.0200 11.9900 0.6800
36.0400 11.9966 0.6780
36.0600 12.0033 0.6862
36.0800 12.0100 0.6772
36.1000 12.0167 0.6779
36.1200 12.0234 0.6872
36.1400 12.0301 0.6716
36.1600 12.0367 0.6801
36.1800 12.0433 0.6895
36.2000 12.0499 0.6792
36.2200 12.0566 0.6746
36.2400 12.0634 0.6824
36.2600 12.0701 0.6737
36.2800 12.0767 0.6757
36.3000 12.0834 0.6813
36.3200 12.0901 0.6777
36.3400 12.0967 0.6751
36.3600 12.1033 0.6806
36.3800 12.1099 0.6715
36.4000 12.1166 0.6784
36.4200 12.1233 0.6806
36.4400 12.1300 0.6756
36.4600 12.1367 0.6735
36.4800 12.1434 0.6815
36.5000 12.1501 0.6711
36.5200 12.1567 0.6709
36.5400 12.1633 0.6828
36.5600 12.1700 0.6744
36.5800 12.1766 0.6693
36.6000 12.1834 0.6776
36.6200 12.1901 0.6705
36.6400 12.1968 0.6738
36.6600 12.2034 0.6778
36.6800 12.2101 0.6688
36.7000 12.2167 0.6743
36.7200 12.2233 0.6753
36.7400 12.2300 0.6677
36.7600 12.2367 0.6723
36.7800 12.2434 0.6726
36.8000 12.2501 0.6688
36.8200 12.2568 0.6686
36.8400 12.2634 0.6672
36.8600 12.2701 0.6756
36.8800 12.2767 0.6689
36.9000 12.2833 0.6677
36.9200 12.2899 0.6742
36.9400 12.2966 0.6703
36.9600 12.3033 0.6650
36.9800 12.3100 0.6708
37.0000 12.3167 0.6649
37.0200 12.3234 0.6668
37.0400 12.3301 0.6670
37.0600 12.3367 0.6651
37.0800 12.3433 0.6667
37.1000 12.3499 0.6726
37.1200 12.3566 0.6624
37.1400 12.3633 0.6631
37.1600 12.3700 0.6689
37.1800 12.3767 0.6633
37.2000 12.3834 0.6610
37.2200 12.3901 0.6682
37.2400 12.3967 0.6605
37.2600 12.4033 0.6636
37.2800 12.4099 0.6685
37.3000 12.4166 0.6640
37.3200 12.4233 0.6632
37.3400 12.4301 0.6634
37.3600 12.4367 0.6610
37.3800 12.4434 0.6594
37.4000 12.4501 0.6672
37.4200 12.4567 0.6627
37.4400 12.4633 0.6612
37.4600 12.4700 0.6616
37.4800 12.4767 0.6608
37.5000 12.4834 0.6594
37.5200 12.4901 0.6616
37.5400 12.4967 0.6601
37.5600 12.5034 0.6588
37.5800 12.5101 0.6589
37.6000 12.5167 0.6589
37.6200 12.5233 0.6607
37.6400 12.5299 0.6624
37.6600 12.5366 0.6560
37.6800 12.5433 0.6612
37.7000 12.5500 0.6584
37.7200 12.5567 0.6563
37.7400 12.5634 0.6603
37.7600 12.5700 0.6620
37.7800 12.5767 0.6543
37.8000 12.5833 0.6573
37.8200 12.5899 0.6589
37.8400 12.5966 0.6586
37.8600 12.6033 0.6528
37.8800 12.6100 0.6561
37.9000 12.6167 0.6535
37.9200 12.6233 0.6545
37.9400 12.6300 0.6562
37.9600 12.6367 0.6528
37.9800 12.6433 0.6565
38.0000 12.6499 0.6555
38.0200 12.6566 0.6572
38.0400 12.6633 0.6572
38.0600 12.6701 0.6550
38.0800 12.6767 0.6555
38.1000 12.6834 0.6545
38.1200 12.6901 0.6544
38.1400 12.6968 0.6532
38.1600 12.7034 0.6481
38.1800 12.7100 0.6594
38.2000 12.7166 0.6520
38.2200 12.7233 0.6482
38.2400 12.7301 0.6576
38.2600 12.7367 0.6577
38.2800 12.7434 0.6446
38.3000 12.7501 0.6525
38.3200 12.7567 0.6572
38.3400 12.7633 0.6391
38.3600 12.7699 0.6569
38.3800 12.7766 0.6622
38.4000 12.7833 0.6366
38.4200 12.7900 0.6582
38.4400 12.7967 0.6583
38.4600 12.8034 0.6370
38.4800 12.8101 0.6569
38.5000 12.8167 0.6553
38.5200 12.8233 0.6390
38.5400 12.8299 0.6569
38.5600 12.8366 0.6533
38.5800 12.8433 0.6368
38.6000 12.8500 0.6618
38.6200 12.8567 0.6512
38.6400 12.8633 0.6425
38.6600 12.8700 0.6575
38.6800 12.8767 0.6427
38.7000 12.8833 0.6433
38.7200 12.8899 0.6591
38.7400 12.8966 0.6429
38.7600 12.9033 0.6409
38.7800 12.9101 0.6530
38.8000 12.9168 0.6427
38.8200 12.9234 0.6438
38.8400 12.9301 0.6515
38.8600 12.9367 0.6398
38.8800 12.9433 0.6465
38.9000 12.9499 0.6499
38.9200 12.9566 0.6469
38.9400 12.9634 0.6446
38.9600 12.9701 0.6421
38.9800 12.9768 0.6480
39.0000 12.9834 0.6439
39.0200 12.9901 0.6446
39.0400 12.9967 0.6498
39.0600 13.0033 0.6385
39.0800 13.0099 0.6465
39.1000 13.0166 0.6505
39.1200 13.0233 0.6408
39.1400 13.0300 0.6423
39.1600 13.0367 0.6496
39.1800 13.0434 0.6393
39.2000 13.0501 0.6449
39.2200 13.0567 0.6518
39.2400 13.0633 0.6354
39.2600 13.0699 0.6504
39.2800 13.0766 0.6520
39.3000 13.0833 0.6336
39.3200 13.0900 0.6449
39.3400 13.0967 0.6493
39.3600 13.1034 0.6360
39.3800 13.1101 0.6429
39.4000 13.1167 0.6418
39.4200 13.1234 0.6355
39.4400 13.1300 0.6472
39.4600 13.1366 0.6442
39.4800 13.1433 0.6326
39.5000 13.1501 0.6488
39.5200 13.1567 0.6435
39.5400 13.1634 0.6355
39.5600 13.1701 0.6442
39.5800 13.1767 0.6417
39.6000 13.1834 0.6372
39.6200 13.1900 0.6443
39.6400 13.1966 0.6397
39.6600 13.2033 0.6405
39.6800 13.2100 0.6419
39.7000 13.2167 0.6420
39.7200 13.2234 0.6369
39.7400 13.2301 0.6401
39.7600 13.2368 0.6411
39.7800 13.2434 0.6406
39.8000 13.2500 0.6405
39.8200 13.2566 0.6392
39.8400 13.2633 0.6415
39.8600 13.2701 0.6357
39.8800 13.2768 0.6388
39.9000 13.2834 0.6405
39.9200 13.2901 0.6332
39.9400 13.2967 0.6438
39.9600 13.3034 0.6367
39.9800 13.3099 0.6358
40.0000 13.3166 0.6466
40.0200 13.3233 0.6312
40.0400 13.3300 0.6326
40.0600 13.3367 0.6464
40.0800 13.3433 0.6342
40.1000 13.3500 0.6322
40.1200 13.3567 0.6444
40.1400 13.3633 0.6295
40.1600 13.3699 0.6309
40.1800 13.3766 0.6433
40.2000 13.3833 0.6353
40.2200 13.3900 0.6312
40.2400 13.3967 0.6408
40.2600 13.4034 0.6299
40.2800 13.4101 0.6309
40.3000 13.4168 0.6416
40.3200 13.4234 0.6300
40.3400 13.4300 0.6300
40.3600 13.4366 0.6449
40.3800 13.4433 0.6261
40.4000 13.4501 0.6351
40.4200 13.4568 0.6403
40.4400 13.4634 0.6254
40.4600 13.4701 0.6317
40.4800 13.4767 0.6405
40.5000 13.4833 0.6274
40.5200 13.4899 0.6333
40.5400 13.4966 0.6419
40.5600 13.5033 0.6275
40.5800 13.5100 0.6334
40.6000 13.5167 0.6358
40.6200 13.5234 0.6299
40.6400 13.5301 0.6372
40.6600 13.5367 0.6297
40.6800 13.5434 0.6279
40.7000 13.5499 0.6402
40.7200 13.5566 0.6284
40.7400 13.5633 0.6297
40.7600 13.5700 0.6358
40.7800 13.5767 0.6292
40.8000 13.5833 0.6306
40.8200 13.5900 0.6344
40.8400 13.5967 0.6258
40.8600 13.6033 0.6309
40.8800 13.6099 0.6334
40.9000 13.6166 0.6291
40.9200 13.6233 0.6336
40.9400 13.6300 0.6320
40.9600 13.6367 0.6266
40.9800 13.6434 0.6313
41.0000 13.6501 0.6303
41.0200 13.6567 0.6280
41.0400 13.6634 0.6262
41.0600 13.6700 0.6324
41.0800 13.6767 0.6297
41.1000 13.6833 0.6239
41.1200 13.6900 0.6278
41.1400 13.6967 0.6276
41.1600 13.7034 0.6259
41.1800 13.7101 0.6297
41.2000 13.7168 0.6246
41.2200 13.7234 0.6230
41.2400 13.7300 0.6306
41.2600 13.7366 0.6256
41.2800 13.7433 0.6246
41.3000 13.7500 0.6282
41.3200 13.7566 0.6215
41.3400 13.7633 0.6239
41.3600 13.7700 0.6324
41.3800 13.7767 0.6167
41.4000 13.7834 0.6258
41.4200 13.7900 0.6302
41.4400 13.7966 0.6172
41.4600 13.8033 0.6251
41.4800 13.8100 0.6260
41.5000 13.8167 0.6177
41.5200 13.8233 0.6244
41.5400 13.8300 0.6215
41.5600 13.8367 0.6169
41.5800 13.8434 0.6243
41.6000 13.8500 0.6229
41.6200 13.8566 0.6164
41.6400 13.8633 0.6265
41.6600 13.8700 0.6179
41.6800 13.8767 0.6181
41.7000 13.8834 0.6278
41.7200 13.8901 0.6184
41.7400 13.8968 0.6128
41.7600 13.9034 0.6226
41.7800 13.9100 0.6200
41.8000 13.9166 0.6142
41.8200 13.9233 0.6241
41.8400 13.9300 0.6187
41.8600 13.9367 0.6116
41.8800 13.9434 0.6192
41.9000 13.9501 0.6193
41.9200 13.9568 0.6153
41.9400 13.9634 0.6164
41.9600 13.9700 0.6168
41.9800 13.9766 0.6190
42.0000 13.9833 0.6158
42.0200 13.9900 0.6131
42.0400 13.9967 0.6168
42.0600 14.0034 0.6222
42.0800 14.0100 0.6131
42.1000 14.0167 0.6158
42.1200 14.0234 0.6184
42.1400 14.0299 0.6140
42.1600 14.0366 0.6150
42.1800 14.0432 0.6193
42.2000 14.0500 0.6103
42.2200 14.0567 0.6171
42.2400 14.0634 0.6101
42.2600 14.0701 0.6146
42.2800 14.0768 0.6140
42.3000 14.0834 0.6117
42.3200 14.0900 0.6182
42.3400 14.0966 0.6085
42.3600 14.1033 0.6112
42.3800 14.1100 0.6135
42.4000 14.1167 0.6095
42.4200 14.1234 0.6100
42.4400 14.1301 0.6148
42.4600 14.1368 0.6084
42.4800 14.1434 0.6063
42.5000 14.1500 0.6157
42.5200 14.1566 0.6090
42.5400 14.1633 0.6113
42.5600 14.1700 0.6114
42.5800 14.1767 0.6028
42.6000 14.1834 0.6143
42.6200 14.1901 0.6078
42.6400 14.1967 0.6061
42.6600 14.2034 0.6115
42.6800 14.2100 0.6082
42.7000 14.2166 0.6038
42.7200 14.2233 0.6111
42.7400 14.2300 0.6107
42.7600 14.2367 0.6049
42.7800 14.2434 0.6107
42.8000 14.2501 0.6061
42.8200 14.2568 0.6038
42.8400 14.2634 0.6138
42.8600 14.2700 0.6010
42.8800 14.2766 0.6093
42.9000 14.2832 0.6121
42.9200 14.2899 0.5981
42.9400 14.2967 0.6035
42.9600 14.3034 0.6140
42.9800 14.3101 0.6023
43.0000 14.3167 0.6032
43.0200 14.3234 0.6064
43.0400 14.3300 0.6041
43.0600 14.3366 0.6056
43.0800 14.3433 0.6031
43.1000 14.3500 0.6061
43.1200 14.3567 0.6048
43.1400 14.3634 0.6041
43.1600 14.3701 0.6070
43.1800 14.3768 0.5993
43.2000 14.3834 0.6043
43.2200 14.3900 0.6080
43.2400 14.3966 0.5978
43.2600 14.4033 0.6056
43.2800 14.4100 0.6105
43.3000 14.4167 0.5991
43.3200 14.4234 0.6002
43.3400 14.4301 0.6116
43.3600 14.4368 0.5962
43.3800 14.4434 0.6029
43.4000 14.4500 0.6085
43.4200 14.4566 0.5983
43.4400 14.4633 0.6046
43.4600 14.4700 0.6042
43.4800 14.4767 0.5954
43.5000 14.4834 0.6122
43.5200 14.4900 0.6010
43.5400 14.4967 0.5965
43.5600 14.5034 0.6083
43.5800 14.5100 0.6018
43.6000 14.5166 0.5961
43.6200 14.5232 0.6086
43.6400 14.5300 0.6000
43.6600 14.5367 0.5945
43.6800 14.5433 0.6081
43.7000 14.5500 0.6000
43.7200 14.5567 0.5976
43.7400 14.5634 0.6070
43.7600 14.5700 0.5917
43.7800 14.5767 0.5965
43.8000 14.5833 0.6076
43.8200 14.5900 0.5925
43.8400 14.5967 0.5995
43.8600 14.6034 0.6025
43.8800 14.6101 0.5938
43.9000 14.6168 0.5961
43.9200 14.6234 0.6010
43.9400 14.6300 0.5953
43.9600 14.6366 0.5955
43.9800 14.6433 0.5968
44.0000 14.6500 0.5971
44.0200 14.6567 0.5987
44.0400 14.6634 0.5926
44.0600 14.6701 0.5927
44.0800 14.6767 0.6014
44.1000 14.6834 0.5927
44.1200 14.6900 0.5949
44.1400 14.6966 0.5915
44.1600 14.7033 0.5979
44.1800 14.7100 0.5945
44.2000 14.7167 0.5923
44.2200 14.7234 0.5938
44.2400 14.7300 0.5944
44.2600 14.7367 0.5944
44.2800 14.7434 0.5894
44.3000 14.7500 0.5938
44.3200 14.7566 0.5966
44.3400 14.7632 0.5904
44.3600 14.7699 0.5916
44.3800 14.7766 0.5898
44.4000 14.7833 0.5930
44.4200 14.7900 0.5889
44.4400 14.7967 0.5881
44.4600 14.8033 0.5960
44.4800 14.8100 0.5939
44.5000 14.8166 0.5913
44.5200 14.8232 0.5892
44.5400 14.8299 0.5916
44.5600 14.8367 0.5888
44.5800 14.8434 0.5894
44.6000 14.8501 0.5878
44.6200 14.8568 0.5921
44.6400 14.8635 0.5864
44.6600 14.8701 0.5916
44.6800 14.8767 0.5893
44.7000 14.8833 0.5893
44.7200 14.8900 0.5910
44.7400 14.8967 0.5918
44.7600 14.9034 0.5856
44.7800 14.9101 0.5902
44.8000 14.9168 0.5887
44.8200 14.9234 0.5851
44.8400 14.9300 0.5891
44.8600 14.9366 0.5914
44.8800 14.9433 0.5888
44.9000 14.9499 0.5859
44.9200 14.9566 0.5849
44.9400 14.9633 0.5920
44.9600 14.9700 0.5875
44.9800 14.9767 0.5818
45.0000 14.9834 0.5867
45.0200 14.9900 0.5842
45.0400 14.9966 0.5849
45.0600 15.0033 0.5865
45.0800 15.0100 0.5852
45.1000 15.0167 0.5841
45.1200 15.0234 0.5830
45.1400 15.0300 0.5795
45.1600 15.0367 0.5860
45.1800 15.0434 0.5838
45.2000 15.0501 0.5790
45.2200 15.0567 0.5828
45.2400 15.0633 0.5823
45.2600 15.0700 0.5830
45.2800 15.0767 0.5854
45.3000 15.0834 0.5733
45.3200 15.0901 0.5847
45.3400 15.0968 0.5786
45.3600 15.1034 0.5788
45.3800 15.1101 0.5803
45.4000 15.1166 0.5820
45.4200 15.1233 0.5759
45.4400 15.1300 0.5807
45.4600 15.1367 0.5778
45.4800 15.1434 0.5751
45.5000 15.1501 0.5768
45.5200 15.1568 0.5760
45.5400 15.1634 0.5785
45.5600 15.1700 0.5766
45.5800 15.1766 0.5755
45.6000 15.1833 0.5784
45.6200 15.1900 0.5743
45.6400 15.1967 0.5763
45.6600 15.2034 0.5744
45.6800 15.2100 0.5741
45.7000 15.2167 0.5734
45.7200 15.2234 0.5762
45.7400 15.2300 0.5708
45.7600 15.2366 0.5734
45.7800 15.2433 0.5760
45.8000 15.2499 0.5656
45.8200 15.2566 0.5765
45.8400 15.2633 0.5735
45.8600 15.2700 0.5677
45.8800 15.2767 0.5738
45.9000 15.2834 0.5702
45.9200 15.2901 0.5645
45.9400 15.2966 0.5761
45.9600 15.3033 0.5678
45.9800 15.3099 0.5672
46.0000 15.3167 0.5728
46.0200 15.3234 0.5653
46.0400 15.3301 0.5655
46.0600 15.3368 0.5790
46.0800 15.3434 0.5641
46.1000 15.3500 0.5675
46.1200 15.3566 0.5741
46.1400 15.3633 0.5671
46.1600 15.3700 0.5653
46.1800 15.3767 0.5707
46.2000 15.3834 0.5617
46.2200 15.3901 0.5663
46.2400 15.3968 0.5751
46.2600 15.4035 0.5608
46.2800 15.4101 0.5648
46.3000 15.4167 0.5765
46.3200 15.4233 0.5616
46.3400 15.4299 0.5660
46.3600 15.4367 0.5720
46.3800 15.4434 0.5615
46.4000 15.4500 0.5677
46.4200 15.4567 0.5703
46.4400 15.4634 0.5601
46.4600 15.4700 0.5644
46.4800 15.4766 0.5704
46.5000 15.4832 0.5584
46.5200 15.4899 0.5686
46.5400 15.4966 0.5692
46.5600 15.5033 0.5601
46.5800 15.5100 0.5653
46.6000 15.5167 0.5678
46.6200 15.5234 0.5621
46.6400 15.5300 0.5659
46.6600 15.5366 0.5668
46.6800 15.5433 0.5620
46.7000 15.5499 0.5626
46.7200 15.5567 0.5672
46.7400 15.5634 0.5580
46.7600 15.5700 0.5620
46.7800 15.5767 0.5642
46.8000 15.5834 0.5601
46.8200 15.5901 0.5543
46.8400 15.5967 0.5679
46.8600 15.6033 0.5618
46.8800 15.6100 0.5596
46.9000 15.6167 0.5638
46.9200 15.6234 0.5541
46.9400 15.6301 0.5608
46.9600 15.6367 0.5656
46.9800 15.6434 0.5530
47.0000 15.6500 0.5595
47.0200 15.6567 0.5705
47.0400 15.6633 0.5520
47.0600 15.6700 0.5591
47.0800 15.6767 0.5628
47.1000 15.6834 0.5506
47.1200 15.6900 0.5611
47.1400 15.6967 0.5596
47.1600 15.7034 0.5491
47.1800 15.7101 0.5584
47.2000 15.7167 0.5557
47.2200 15.7233 0.5511
47.2400 15.7300 0.5607
47.2600 15.7367 0.5553
47.2800 15.7434 0.5492
47.3000 15.7500 0.5596
47.3200 15.7567 0.5510
47.3400 15.7634 0.5569
47.3600 15.7701 0.5551
47.3800 15.7767 0.5487
47.4000 15.7833 0.5579
47.4200 15.7900 0.5562
47.4400 15.7967 0.5416
47.4600 15.8034 0.5597
47.4800 15.8101 0.5543
47.5000 15.8167 0.5441
47.5200 15.8234 0.5597
47.5400 15.8301 0.5480
47.5600 15.8366 0.5448
47.5800 15.8433 0.5585
47.6000 15.8500 0.5446
47.6200 15.8567 0.5496
47.6400 15.8634 0.5528
47.6600 15.8701 0.5375
47.6800 15.8768 0.5484
47.7000 15.8834 0.5566
47.7200 15.8901 0.5391
47.7400 15.8967 0.5480
47.7600 15.9033 0.5571
47.7800 15.9099 0.5321
47.8000 15.9166 0.5552
47.8200 15.9234 0.5526
47.8400 15.9301 0.5342
47.8600 15.9367 0.5543
47.8800 15.9434 0.5462
47.9000 15.9501 0.5313
47.9200 15.9567 0.5574
47.9400 15.9633 0.5463
47.9600 15.9699 0.5366
47.9800 15.9766 0.5494
48.0000 15.9833 0.5371
48.0200 15.9900 0.5351
48.0400 15.9967 0.5557
48.0600 16.0034 0.5372
48.0800 16.0101 0.5435
48.1000 16.0167 0.5506
48.1200 16.0233 0.5343
48.1400 16.0300 0.5449
48.1600 16.0367 0.5461
48.1800 16.0434 0.5348
48.2000 16.0501 0.5440
48.2200 16.0568 0.5379
48.2400 16.0634 0.5389
48.2600 16.0701 0.5444
48.2800 16.0767 0.5367
48.3000 16.0833 0.5404
48.3200 16.0900 0.5439
48.3400 16.0967 0.5372
48.3600 16.1034 0.5414
48.3800 16.1101 0.5432
48.4000 16.1167 0.5316
48.4200 16.1234 0.5429
48.4400 16.1301 0.5346
48.4600 16.1367 0.5372
48.4800 16.1433 0.5464
48.5000 16.1499 0.5315
48.5200 16.1566 0.5354
48.5400 16.1633 0.5462
48.5600 16.1700 0.5299
48.5800 16.1767 0.5439
48.6000 16.1834 0.5401
48.6200 16.1901 0.5206
48.6400 16.1967 0.5412
48.6600 16.2033 0.5437
48.6800 16.2099 0.5253
48.7000 16.2166 0.5432
48.7200 16.2233 0.5325
48.7400 16.2300 0.5267
48.7600 16.2367 0.5450
48.7800 16.2434 0.5322
48.8000 16.2500 0.5326
48.8200 16.2567 0.5484
48.8400 16.2633 0.5220
48.8600 16.2700 0.5345
48.8800 16.2766 0.5423
48.9000 16.2833 0.5237
48.9200 16.2900 0.5399
48.9400 16.2967 0.5383
48.9600 16.3034 0.5230
48.9800 16.3101 0.5398
49.0000 16.3167 0.5351
49.0200 16.3233 0.5243
49.0400 16.3299 0.5453
49.0600 16.3366 0.5305
49.0800 16.3434 0.5238
49.1000 16.3501 0.5387
49.1200 16.3567 0.5271
49.1400 16.3634 0.5272
49.1600 16.3701 0.5359
49.1800 16.3767 0.5244
49.2000 16.3833 0.5374
49.2200 16.3899 0.5365
49.2400 16.3966 0.5290
49.2600 16.4033 0.5284
49.2800 16.4100 0.5296
49.3000 16.4167 0.5233
49.3200 16.4234 0.5345
49.3400 16.4300 0.5276
49.3600 16.4367 0.5230
49.3800 16.4433 0.5333
49.4000 16.4499 0.5248
49.4200 16.4566 0.5288
49.4400 16.4633 0.5314
49.4600 16.4700 0.5273
49.4800 16.4767 0.5297
49.5000 16.4834 0.5227
49.5200 16.4901 0.5242
49.5400 16.4967 0.5303
49.5600 16.5033 0.5202
49.5800 16.5099 0.5274
49.6000 16.5166 0.5303
49.6200 16.5234 0.5197
49.6400 16.5301 0.5263
49.6600 16.5368 0.5293
49.6800 16.5434 0.5179
49.7000 16.5501 0.5265
49.7200 16.5567 0.5242
49.7400 16.5633 0.5187
49.7600 16.5699 0.5303
49.7800 16.5766 0.5255
49.8000 16.5834 0.5168
49.8200 16.5901 0.5291
49.8400 16.5967 0.5182
49.8600 16.6034 0.5193
49.8800 16.6101 0.5300
49.9000 16.6167 0.5148
49.9200 16.6234 0.5179
49.9400 16.6300 0.5293
49.9600 16.6367 0.5151
49.9800 16.6433 0.5257
50.0000 16.6500 0.5254
50.0200 16.6567 0.5097
50.0400 16.6634 0.5210
50.0600 16.6701 0.5287
50.0800 16.6767 0.5090
50.1000 16.6833 0.5277
50.1200 16.6899 0.5267
50.1400 16.6966 0.5041
50.1600 16.7033 0.5293
50.1800 16.7100 0.5240
50.2000 16.7167 0.5076
50.2200 16.7234 0.5220
50.2400 16.7301 0.5184
50.2600 16.7367 0.5150
50.2800 16.7433 0.5238
50.3000 16.7499 0.5150
50.3200 16.7566 0.5126
50.3400 16.7633 0.5240
50.3600 16.7700 0.5091
50.3800 16.7767 0.5128
50.4000 16.7834 0.5252
50.4200 16.7901 0.5032
50.4400 16.7967 0.5110
50.4600 16.8033 0.5192
50.4800 16.8100 0.5087
50.5000 16.8166 0.5124
50.5200 16.8233 0.5169
50.5400 16.8300 0.5055
50.5600 16.8367 0.5148
50.5800 16.8434 0.5109
50.6000 16.8501 0.5028
50.6200 16.8567 0.5146
50.6400 16.8633 0.5141
50.6600 16.8699 0.5063
50.6800 16.8766 0.5092
50.7000 16.8834 0.5097
50.7200 16.8901 0.5084
50.7400 16.8967 0.5070
50.7600 16.9034 0.5129
50.7800 16.9101 0.5058
50.8000 16.9167 0.5081
50.8200 16.9233 0.5089
50.8400 16.9299 0.5062
50.8600 16.9366 0.5065
50.8800 16.9433 0.5093
50.9000 16.9500 0.5022
50.9200 16.9567 0.5034
50.9400 16.9633 0.5131
50.9600 16.9700 0.5053
50.9800 16.9767 0.5002
51.0000 16.9833 0.5094
51.0200 16.9899 0.5055
51.0400 16.9966 0.5034
51.0600 17.0033 0.5115
51.0800 17.0100 0.4983
51.1000 17.0167 0.5037
51.1200 17.0234 0.5078
51.1400 17.0301 0.5008
51.1600 17.0367 0.5018
51.1800 17.0433 0.5076
51.2000 17.0499 0.5045
51.2200 17.0566 0.5002
51.2400 17.0633 0.5028
51.2600 17.0701 0.5048
51.2800 17.0767 0.4983
51.3000 17.0834 0.5081
51.3200 17.0901 0.5016
51.3400 17.0967 0.4932
51.3600 17.1033 0.5055
51.3800 17.1099 0.5012
51.4000 17.1166 0.4917
51.4200 17.1233 0.5052
51.4400 17.1300 0.5001
51.4600 17.1367 0.4892
51.4800 17.1434 0.5063
51.5000 17.1501 0.4977
51.5200 17.1567 0.4907
51.5400 17.1633 0.5009
51.5600 17.1699 0.4975
51.5800 17.1766 0.4935
51.6000 17.1833 0.5031
51.6200 17.1900 0.4966
51.6400 17.1967 0.4888
51.6600 17.2034 0.5047
51.6800 17.2101 0.4938
51.7000 17.2167 0.4850
51.7200 17.2233 0.5040
51.7400 17.2299 0.4945
51.7600 17.2366 0.4891
51.7800 17.2433 0.4937
51.8000 17.2500 0.4931
51.8200 17.2567 0.4925
51.8400 17.2634 0.4973
51.8600 17.2701 0.4852
51.8800 17.2767 0.4942
51.9000 17.2833 0.4975
51.9200 17.2900 0.4852
51.9400 17.2966 0.4883
51.9600 17.3034 0.4916
51.9800 17.3101 0.4847
52.0000 17.3167 0.4909
52.0200 17.3234 0.4921
52.0400 17.3301 0.4883
52.0600 17.3368 0.4858
52.0800 17.3433 0.4871
52.1000 17.3499 0.4879
52.1200 17.3566 0.4875
52.1400 17.3633 0.4831
52.1600 17.3700 0.4834
52.1800 17.3767 0.4846
52.2000 17.3834 0.4854
52.2200 17.3901 0.4856
52.2400 17.3967 0.4819
52.2600 17.4033 0.4845
52.2800 17.4099 0.4838
52.3000 17.4166 0.4831
52.3200 17.4233 0.4864
52.3400 17.4300 0.4805
52.3600 17.4367 0.4764
52.3800 17.4433 0.4893
52.4000 17.4500 0.4795
52.4200 17.4567 0.4803
52.4400 17.4633 0.4856
52.4600 17.4699 0.4774
52.4800 17.4766 0.4835
52.5000 17.4833 0.4854
52.5200 17.4900 0.4729
52.5400 17.4967 0.4851
52.5600 17.5034 0.4844
52.5800 17.5101 0.4754
52.6000 17.5168 0.4821
52.6200 17.5234 0.4833
52.6400 17.5300 0.4756
52.6600 17.5366 0.4832
52.6800 17.5433 0.4803
52.7000 17.5500 0.4807
52.7200 17.5567 0.4852
52.7400 17.5634 0.4689
52.7600 17.5701 0.4765
52.7800 17.5768 0.4877
52.8000 17.5833 0.4728
52.8200 17.5900 0.4755
52.8400 17.5966 0.4836
52.8600 17.6033 0.4737
52.8800 17.6100 0.4767
52.9000 17.6167 0.4809
52.9200 17.6234 0.4767
52.9400 17.6301 0.4812
52.9600 17.6367 0.4764
52.9800 17.6434 0.4689
53.0000 17.6500 0.4824
53.0200 17.6566 0.4779
53.0400 17.6633 0.4724
53.0600 17.6700 0.4781
53.0800 17.6767 0.4758
53.1000 17.6834 0.4737
53.1200 17.6900 0.4784
53.1400 17.6967 0.4718
53.1600 17.7033 0.4728
53.1800 17.7100 0.4772
53.2000 17.7166 0.4699
53.2200 17.7233 0.4734
53.2400 17.7300 0.4800
53.2600 17.7367 0.4627
53.2800 17.7434 0.4714
53.3000 17.7501 0.4737
53.3200 17.7567 0.4683
53.3400 17.7633 0.4716
53.3600 17.7700 0.4697
53.3800 17.7766 0.4664
53.4000 17.7833 0.4749
53.4200 17.7901 0.4664
53.4400 17.7968 0.4643
53.4600 17.8034 0.4700
53.4800 17.8101 0.4647
53.5000 17.8167 0.4636
53.5200 17.8234 0.4720
53.5400 17.8300 0.4648
53.5600 17.8366 0.4645
53.5800 17.8433 0.4636
53.6000 17.8500 0.4577
53.6200 17.8567 0.4724
53.6400 17.8634 0.4621
53.6600 17.8701 0.4627
53.6800 17.8767 0.4618
53.7000 17.8834 0.4609
53.7200 17.8899 0.4641
53.7400 17.8966 0.4648
53.7600 17.9033 0.4638
53.7800 17.9100 0.4619
53.8000 17.9167 0.4600
53.8200 17.9234 0.4540
53.8400 17.9300 0.4619
53.8600 17.9367 0.4630
53.8800 17.9434 0.4542
53.9000 17.9500 0.4605
53.9200 17.9566 0.4551
53.9400 17.9633 0.4595
53.9600 17.9700 0.4613
53.9800 17.9767 0.4541
54.0000 17.9834 0.4557
54.0200 17.9901 0.4622
54.0400 17.9967 0.4560
54.0600 18.0034 0.4546
54.0800 18.0100 0.4559
54.1000 18.0166 0.4529
54.1200 18.0233 0.4547
54.1400 18.0300 0.4511
54.1600 18.0367 0.4510
54.1800 18.0434 0.4555
54.2000 18.0501 0.4565
54.2200 18.0568 0.4486
54.2400 18.0634 0.4549
54.2600 18.0700 0.4523
54.2800 18.0766 0.4523
54.3000 18.0833 0.4538
54.3200 18.0900 0.4497
54.3400 18.0967 0.4484
54.3600 18.1034 0.4541
54.3800 18.1101 0.4500
54.4000 18.1167 0.4465
54.4200 18.1234 0.4535
54.4400 18.1300 0.4486
54.4600 18.1366 0.4465
54.4800 18.1433 0.4546
54.5000 18.1500 0.4389
54.5200 18.1567 0.4453
54.5400 18.1633 0.4565
54.5600 18.1700 0.4396
54.5800 18.1767 0.4461
54.6000 18.1833 0.4533
54.6200 18.1900 0.4405
54.6400 18.1966 0.4534
54.6600 18.2033 0.4505
54.6800 18.2100 0.4380
54.7000 18.2167 0.4488
54.7200 18.2234 0.4456
54.7400 18.2301 0.4390
54.7600 18.2368 0.4511
54.7800 18.2434 0.4410
54.8000 18.2500 0.4434
54.8200 18.2566 0.4509
54.8400 18.2633 0.4338
54.8600 18.2700 0.4454
54.8800 18.2768 0.4476
54.9000 18.2834 0.4300
54.9200 18.2901 0.4451
54.9400 18.2968 0.4485
54.9600 18.3034 0.4329
54.9800 18.3100 0.4466
55.0000 18.3166 0.4473
55.0200 18.3233 0.4348
55.0400 18.3300 0.4393
55.0600 18.3367 0.4442
55.0800 18.3434 0.4406
55.1000 18.3500 0.4366
55.1200 18.3567 0.4394
55.1400 18.3634 0.4404
55.1600 18.3700 0.4322
55.1800 18.3766 0.4434
55.2000 18.3832 0.4417
55.2200 18.3900 0.4287
55.2400 18.3967 0.4393
55.2600 18.4033 0.4383
55.2800 18.4100 0.4284
55.3000 18.4167 0.4426
55.3200 18.4233 0.4347
55.3400 18.4299 0.4280
55.3600 18.4366 0.4409
55.3800 18.4433 0.4361
55.4000 18.4500 0.4224
55.4200 18.4567 0.4398
55.4400 18.4634 0.4360
55.4600 18.4701 0.4203
55.4800 18.4768 0.4423
55.5000 18.4834 0.4347
55.5200 18.4900 0.4181
55.5400 18.4967 0.4404
55.5600 18.5033 0.4311
55.5800 18.5100 0.4177
55.6000 18.5167 0.4395
55.6200 18.5234 0.4267
55.6400 18.5301 0.4183
55.6600 18.5368 0.4392
55.6800 18.5434 0.4221
55.7000 18.5500 0.4161
55.7200 18.5566 0.4423
55.7400 18.5633 0.4196
55.7600 18.5700 0.4242
55.7800 18.5767 0.4343
55.8000 18.5834 0.4177
55.8200 18.5901 0.4199
55.8400 18.5967 0.4350
55.8600 18.6034 0.4088
55.8800 18.6100 0.4250
55.9000 18.6166 0.4346
55.9200 18.6233 0.4089
55.9400 18.6300 0.4209
55.9600 18.6367 0.4268
55.9800 18.6434 0.4063
56.0000 18.6500 0.4237
56.0200 18.6567 0.4208
56.0400 18.6634 0.4059
56.0600 18.6700 0.4215
56.0800 18.6766 0.4197
56.1000 18.6833 0.4108
56.1200 18.6900 0.4218
56.1400 18.6967 0.4195
56.1600 18.7034 0.4074
56.1800 18.7101 0.4245
56.2000 18.7168 0.4157
56.2200 18.7234 0.4089
56.2400 18.7300 0.4203
56.2600 18.7366 0.4152
56.2800 18.7433 0.4104
56.3000 18.7500 0.4171
56.3200 18.7567 0.4126
56.3400 18.7634 0.4127
56.3600 18.7701 0.4115
56.3800 18.7768 0.4108
56.4000 18.7834 0.4080
56.4200 18.7900 0.4112
56.4400 18.7966 0.4075
56.4600 18.8033 0.4125
56.4800 18.8100 0.4105
56.5000 18.8167 0.4148
56.5200 18.8234 0.4044
56.5400 18.8300 0.4104
56.5600 18.8367 0.4113
56.5800 18.8434 0.4027
56.6000 18.8500 0.4058
56.6200 18.8566 0.4137
56.6400 18.8632 0.4046
56.6600 18.8699 0.4077
56.6800 18.8767 0.4046
56.7000 18.8833 0.4025
56.7200 18.8900 0.4092
56.7400 18.8967 0.4036
56.7600 18.9034 0.4011
56.7800 18.9100 0.4038
56.8000 18.9166 0.4073
56.8200 18.9233 0.3997
56.8400 18.9300 0.4062
56.8600 18.9367 0.4052
56.8800 18.9434 0.3996
56.9000 18.9501 0.4004
56.9200 18.9568 0.3989
56.9400 18.9634 0.4003
56.9600 18.9700 0.4037
56.9800 18.9766 0.3983
57.0000 18.9833 0.4035
57.0200 18.9900 0.3985
57.0400 18.9967 0.3962
57.0600 19.0034 0.3962
57.0800 19.0101 0.3984
57.1000 19.0168 0.3999
57.1200 19.0234 0.3990
57.1400 19.0300 0.3937
57.1600 19.0366 0.3953
57.1800 19.0432 0.3947
57.2000 19.0499 0.3990
57.2200 19.0567 0.3966
57.2400 19.0634 0.3906
57.2600 19.0701 0.3936
57.2800 19.0767 0.3965
57.3000 19.0834 0.3915
57.3200 19.0900 0.3934
57.3400 19.0966 0.3913
57.3600 19.1032 0.3876
57.3800 19.1100 0.3917
57.4000 19.1167 0.3958
57.4200 19.1234 0.3856
57.4400 19.1300 0.3925
57.4600 19.1367 0.3908
57.4800 19.1434 0.3844
57.5000 19.1500 0.3905
57.5200 19.1566 0.3896
57.5400 19.1633 0.3902
57.5600 19.1700 0.3865
57.5800 19.1767 0.3879
57.6000 19.1834 0.3839
57.6200 19.1901 0.3896
57.6400 19.1968 0.3829
57.6600 19.2034 0.3822
57.6800 19.2100 0.3847
57.7000 19.2166 0.3824
57.7200 19.2233 0.3834
57.7400 19.2300 0.3842
57.7600 19.2367 0.3800
57.7800 19.2434 0.3860
57.8000 19.2501 0.3758
57.8200 19.2568 0.3825
57.8400 19.2635 0.3811
57.8600 19.2700 0.3734
57.8800 19.2766 0.3832
57.9000 19.2833 0.3810
57.9200 19.2899 0.3738
57.9400 19.2966 0.3809
57.9600 19.3033 0.3773
57.9800 19.3100 0.3775
58.0000 19.3167 0.3821
58.0200 19.3234 0.3718
58.0400 19.3300 0.3717
58.0600 19.3366 0.3792
58.0800 19.3432 0.3752
58.1000 19.3499 0.3712
58.1200 19.3567 0.3747
58.1400 19.3633 0.3711
58.1600 19.3700 0.3728
58.1800 19.3767 0.3763
58.2000 19.3834 0.3709
58.2200 19.3900 0.3715
58.2400 19.3966 0.3767
58.2600 19.4033 0.3684
58.2800 19.4100 0.3697
58.3000 19.4167 0.3731
58.3200 19.4234 0.3706
58.3400 19.4301 0.3655
58.3600 19.4368 0.3741
58.3800 19.4435 0.3660
58.4000 19.4501 0.3660
58.4200 19.4566 0.3704
58.4400 19.4633 0.3677
58.4600 19.4700 0.3645
58.4800 19.4767 0.3706
58.5000 19.4834 0.3659
58.5200 19.4901 0.3630
58.5400 19.4967 0.3719
58.5600 19.5034 0.3640
58.5800 19.5100 0.3604
58.6000 19.5166 0.3695
58.6200 19.5233 0.3598
58.6400 19.5300 0.3637
58.6600 19.5367 0.3635
58.6800 19.5434 0.3586
58.7000 19.5501 0.3635
58.7200 19.5567 0.3637
58.7400 19.5634 0.3579
58.7600 19.5700 0.3576
58.7800 19.5766 0.3663
58.8000 19.5832 0.3533
58.8200 19.5899 0.3606
58.8400 19.5966 0.3588
58.8600 19.6033 0.3505
58.8800 19.6100 0.3611
58.9000 19.6167 0.3557
58.9200 19.6234 0.3521
58.9400 19.6300 0.3593
58.9600 19.6366 0.3539
58.9800 19.6433 0.3503
59.0000 19.6500 0.3607
59.0200 19.6567 0.3510
59.0400 19.6634 0.3437
59.0600 19.6701 0.3626
59.0800 19.6768 0.3496
59.1000 19.6834 0.3470
59.1200 19.6901 0.3557
59.1400 19.6967 0.3455
59.1600 19.7033 0.3466
59.1800 19.7100 0.3537
59.2000 19.7167 0.3450
59.2200 19.7234 0.3446
59.2400 19.7301 0.3478
59.2600 19.7367 0.3462
59.2800 19.7434 0.3457
59.3000 19.7500 0.3378
59.3010 19.7503 0.3358
