Raw Data
Time Displacement Force
(s) (mm) (N)
0.0000 0.0000 0.2434
0.0200 0.0001 0.2477
0.0400 0.0022 0.3201
0.0600 0.0101 0.3233
0.0800 0.0220 0.2230
0.1000 0.0345 0.2401
0.1200 0.0472 0.2796
0.1400 0.0606 0.2309
0.1600 0.0747 0.2507
0.1800 0.0888 0.2563
0.2000 0.1027 0.2304
0.2200 0.1163 0.2509
0.2400 0.1296 0.2540
0.2600 0.1429 0.2372
0.2800 0.1563 0.2613
0.3000 0.1697 0.2542
0.3200 0.1830 0.2396
0.3400 0.1964 0.2600
0.3600 0.2097 0.2517
0.3800 0.2231 0.2528
0.4000 0.2364 0.2623
0.4200 0.2497 0.2452
0.4400 0.2630 0.2604
0.4600 0.2763 0.2544
0.4800 0.2897 0.2479
0.5000 0.3030 0.2634
0.5200 0.3164 0.2478
0.5400 0.3297 0.2545
0.5600 0.3430 0.2623
0.5800 0.3564 0.2428
0.6000 0.3697 0.2566
0.6200 0.3830 0.2608
0.6400 0.3964 0.2500
0.6600 0.4097 0.2478
0.6800 0.4231 0.2601
0.7000 0.4364 0.2433
0.7200 0.4498 0.2478
0.7400 0.4631 0.2571
0.7600 0.4765 0.2444
0.7800 0.4898 0.2542
0.8000 0.5031 0.2531
0.8200 0.5164 0.2439
0.8400 0.5297 0.2537
0.8600 0.5431 0.2496
0.8800 0.5563 0.2495
0.9000 0.5696 0.2533
0.9200 0.5830 0.2505
0.9400 0.5963 0.2450
0.9600 0.6097 0.2526
0.9800 0.6230 0.2462
1.0000 0.6364 0.2503
1.0200 0.6497 0.2556
1.0400 0.6631 0.2454
1.0600 0.6764 0.2468
1.0800 0.6897 0.2513
1.1000 0.7030 0.2490
1.1200 0.7164 0.2505
1.1400 0.7297 0.2470
1.1600 0.7431 0.2480
1.1800 0.7564 0.2506
1.2000 0.7697 0.2487
1.2200 0.7831 0.2508
1.2400 0.7964 0.2435
1.2600 0.8097 0.2502
1.2800 0.8230 0.2479
1.3000 0.8364 0.2495
1.3200 0.8497 0.2440
1.3400 0.8630 0.2466
1.3600 0.8764 0.2488
1.3800 0.8897 0.2444
1.4000 0.9031 0.2450
1.4200 0.9164 0.2440
1.4400 0.9297 0.2468
1.4600 0.9431 0.2414
1.4800 0.9564 0.2428
1.5000 0.9698 0.2463
1.5200 0.9831 0.2381
1.5400 0.9964 0.2419
1.5600 1.0097 0.2432
1.5800 1.0230 0.2410
1.6000 1.0364 0.2398
1.6200 1.0497 0.2385
1.6400 1.0630 0.2408
1.6600 1.0764 0.2402
1.6800 1.0897 0.2384
1.7000 1.1030 0.2404
1.7200 1.1164 0.2438
1.7400 1.1298 0.2357
1.7600 1.1431 0.2408
1.7800 1.1565 0.2436
1.8000 1.1698 0.2307
1.8200 1.1831 0.2420
1.8400 1.1965 0.2392
1.8600 1.2098 0.2268
1.8800 1.2231 0.2420
1.9000 1.2364 0.2413
1.9200 1.2497 0.2293
1.9400 1.2631 0.2424
1.9600 1.2764 0.2357
1.9800 1.2897 0.2285
2.0000 1.3030 0.2456
2.0200 1.3164 0.2332
2.0400 1.3297 0.2319
2.0600 1.3430 0.2442
2.0800 1.3564 0.2349
2.1000 1.3698 0.2312
2.1200 1.3831 0.2388
2.1400 1.3965 0.2315
2.1600 1.4098 0.2336
2.1800 1.4231 0.2362
2.2000 1.4364 0.2373
2.2200 1.4498 0.2303
2.2400 1.4630 0.2358
2.2600 1.4763 0.2341
2.2800 1.4897 0.2300
2.3000 1.5030 0.2327
2.3200 1.5163 0.2332
2.3400 1.5297 0.2276
2.3600 1.5430 0.2376
2.3800 1.5564 0.2286
2.4000 1.5698 0.2272
2.4200 1.5831 0.2378
2.4400 1.5964 0.2318
2.4600 1.6098 0.2293
2.4800 1.6231 0.2328
2.5000 1.6364 0.2322
2.5200 1.6497 0.2228
2.5400 1.6630 0.2343
2.5600 1.6764 0.2352
2.5800 1.6898 0.2213
2.6000 1.7031 0.2296
2.6200 1.7164 0.2319
2.6400 1.7297 0.2248
2.6600 1.7431 0.2328
2.6800 1.7564 0.2290
2.7000 1.7697 0.2232
2.7200 1.7830 0.2321
2.7400 1.7964 0.2309
2.7600 1.8097 0.2184
2.7800 1.8230 0.2314
2.8000 1.8363 0.2285
2.8200 1.8497 0.2189
2.8400 1.8631 0.2307
2.8600 1.8764 0.2269
2.8800 1.8898 0.2221
2.9000 1.9031 0.2306
2.9200 1.9164 0.2238
2.9400 1.9298 0.2258
2.9600 1.9431 0.2260
2.9800 1.9564 0.2182
3.0000 1.9698 0.2247
3.0200 1.9831 0.2290
3.0400 1.9964 0.2159
3.0600 2.0097 0.2223
3.0800 2.0230 0.2295
3.1000 2.0363 0.2213
3.1200 2.0497 0.2200
3.1400 2.0630 0.2253
3.1600 2.0764 0.2253
3.1800 2.0897 0.2217
3.2000 2.1031 0.2224
3.2200 2.1165 0.2241
3.2400 2.1298 0.2126
3.2600 2.1431 0.2180
3.2800 2.1565 0.2299
3.3000 2.1698 0.2116
3.3200 2.1831 0.2184
3.3400 2.1964 0.2253
3.3600 2.2097 0.2112
3.3800 2.2231 0.2194
3.4000 2.2364 0.2253
3.4200 2.2497 0.2042
3.4400 2.2630 0.2214
3.4600 2.2764 0.2201
3.4800 2.2897 0.2027
3.5000 2.3031 0.2261
3.5200 2.3164 0.2166
3.5400 2.3297 0.2010
3.5600 2.3431 0.2225
3.5800 2.3564 0.2170
3.6000 2.3698 0.2081
3.6200 2.3831 0.2191
3.6400 2.3965 0.2131
3.6600 2.4098 0.2065
3.6800 2.4231 0.2193
3.7000 2.4364 0.2118
3.7200 2.4497 0.2141
3.7400 2.4631 0.2203
3.7600 2.4764 0.2102
3.7800 2.4897 0.2135
3.8000 2.5030 0.2159
3.8200 2.5163 0.2111
3.8400 2.5297 0.2109
3.8600 2.5430 0.2133
3.8800 2.5564 0.2125
3.9000 2.5697 0.2127
3.9200 2.5831 0.2108
3.9400 2.5965 0.2082
3.9600 2.6098 0.2130
3.9800 2.6231 0.2088
4.0000 2.6364 0.2091
4.0200 2.6498 0.2090
4.0400 2.6631 0.2107
4.0600 2.6764 0.2126
4.0800 2.6897 0.2027
4.1000 2.7031 0.2124
4.1200 2.7164 0.2130
4.1400 2.7297 0.2041
4.1600 2.7430 0.2126
4.1800 2.7563 0.2099
4.2000 2.7697 0.2011
4.2200 2.7830 0.2148
4.2400 2.7963 0.2107
4.2600 2.8097 0.2002
4.2800 2.8231 0.2084
4.3000 2.8364 0.2128
4.3200 2.8498 0.1987
4.3400 2.8631 0.2111
4.3600 2.8764 0.2091
4.3800 2.8898 0.1995
4.4000 2.9031 0.2077
4.4200 2.9164 0.2069
4.4400 2.9297 0.2044
4.4600 2.9430 0.2065
4.4800 2.9564 0.2120
4.5000 2.9697 0.2012
4.5200 2.9830 0.2063
4.5400 2.9964 0.2098
4.5600 3.0097 0.1985
4.5800 3.0231 0.2044
4.6000 3.0364 0.2095
4.6200 3.0497 0.2012
4.6400 3.0630 0.2040
4.6600 3.0764 0.2095
4.6800 3.0897 0.1994
4.7000 3.1030 0.2051
4.7200 3.1164 0.2113
4.7400 3.1298 0.1942
4.7600 3.1431 0.2071
4.7800 3.1564 0.2052
4.8000 3.1698 0.1963
4.8200 3.1831 0.2055
4.8400 3.1964 0.2021
4.8600 3.2097 0.1985
4.8800 3.2230 0.2082
4.9000 3.2363 0.2015
4.9200 3.2497 0.1969
4.9400 3.2630 0.2069
4.9600 3.2763 0.1986
4.9800 3.2897 0.1956
5.0000 3.3031 0.2079
5.0200 3.3165 0.1963
5.0400 3.3298 0.1985
5.0600 3.3431 0.2087
5.0800 3.3565 0.1947
5.1000 3.3698 0.1934
5.1200 3.3831 0.2056
5.1400 3.3964 0.1971
5.1600 3.4097 0.1964
5.1800 3.4230 0.2060
5.2000 3.4364 0.1964
5.2200 3.4497 0.1953
5.2400 3.4630 0.2047
5.2600 3.4763 0.1910
5.2800 3.4897 0.1940
5.3000 3.5030 0.2020
5.3200 3.5164 0.1878
5.3400 3.5297 0.1940
5.3600 3.5431 0.2006
5.3800 3.5565 0.1820
5.4000 3.5698 0.1971
5.4200 3.5831 0.1976
5.4400 3.5965 0.1832
5.4600 3.6098 0.1982
5.4800 3.6231 0.1931
5.5000 3.6364 0.1872
5.5200 3.6497 0.1959
5.5400 3.6630 0.1940
5.5600 3.6764 0.1843
5.5800 3.6897 0.1953
5.6000 3.7030 0.1927
5.6200 3.7163 0.1880
5.6400 3.7297 0.1925
5.6600 3.7431 0.1896
5.6800 3.7564 0.1930
5.7000 3.7697 0.1910
5.7200 3.7831 0.1850
5.7400 3.7964 0.1949
5.7600 3.8098 0.1911
5.7800 3.8231 0.1854
5.8000 3.8364 0.1970
5.8200 3.8498 0.1925
5.8400 3.8631 0.1814
5.8600 3.8764 0.1965
5.8800 3.8897 0.1935
5.9000 3.9031 0.1882
5.9200 3.9164 0.1968
5.9400 3.9297 0.1922
5.9600 3.9430 0.1882
5.9800 3.9563 0.1982
6.0000 3.9697 0.1918
6.0200 3.9831 0.1852
6.0400 3.9964 0.1924
6.0600 4.0097 0.1926
6.0800 4.0231 0.1870
6.1000 4.0365 0.1915
6.1200 4.0498 0.1966
6.1400 4.0631 0.1902
6.1600 4.0764 0.1900
6.1800 4.0898 0.1910
6.2000 4.1031 0.1905
6.2200 4.1164 0.1874
6.2400 4.1297 0.1916
6.2600 4.1430 0.1937
6.2800 4.1564 0.1823
6.3000 4.1697 0.1908
6.3200 4.1830 0.1883
6.3400 4.1964 0.1846
6.3600 4.2097 0.1917
6.3800 4.2230 0.1830
6.4000 4.2364 0.1843
6.4200 4.2497 0.1905
6.4400 4.2631 0.1848
6.4600 4.2764 0.1827
6.4800 4.2898 0.1916
6.5000 4.3031 0.1766
6.5200 4.3164 0.1799
6.5400 4.3298 0.1881
6.5600 4.3431 0.1768
6.5800 4.3564 0.1816
6.6000 4.3697 0.1828
6.6200 4.3831 0.1798
6.6400 4.3964 0.1809
6.6600 4.4097 0.1759
6.6800 4.4230 0.1828
6.7000 4.4363 0.1794
6.7200 4.4497 0.1810
6.7400 4.4630 0.1797
6.7600 4.4764 0.1765
6.7800 4.4897 0.1785
6.8000 4.5031 0.1799
6.8200 4.5164 0.1756
6.8400 4.5298 0.1779
6.8600 4.5431 0.1734
6.8800 4.5564 0.1716
6.9000 4.5698 0.1803
6.9200 4.5831 0.1745
6.9400 4.5964 0.1747
6.9600 4.6097 0.1802
6.9800 4.6231 0.1734
7.0000 4.6364 0.1741
7.0200 4.6497 0.1785
7.0400 4.6630 0.1716
7.0600 4.6763 0.1708
7.0800 4.6896 0.1772
7.1000 4.7030 0.1700
7.1200 4.7163 0.1708
7.1400 4.7297 0.1770
7.1600 4.7431 0.1723
7.1800 4.7565 0.1686
7.2000 4.7698 0.1708
7.2200 4.7832 0.1715
7.2400 4.7965 0.1707
7.2600 4.8098 0.1709
7.2800 4.8232 0.1698
7.3000 4.8364 0.1690
7.3200 4.8497 0.1724
7.3400 4.8630 0.1715
7.3600 4.8763 0.1675
7.3800 4.8897 0.1745
7.4000 4.9030 0.1681
7.4200 4.9164 0.1678
7.4400 4.9297 0.1719
7.4600 4.9431 0.1630
7.4800 4.9564 0.1679
7.5000 4.9697 0.1678
7.5200 4.9831 0.1658
7.5400 4.9965 0.1677
7.5600 5.0098 0.1683
7.5800 5.0231 0.1664
7.6000 5.0364 0.1686
7.6200 5.0498 0.1702
7.6400 5.0631 0.1664
7.6600 5.0764 0.1671
7.6800 5.0897 0.1722
7.7000 5.1030 0.1673
7.7200 5.1164 0.1672
7.7400 5.1297 0.1665
7.7600 5.1430 0.1676
7.7800 5.1563 0.1641
7.8000 5.1697 0.1683
7.8200 5.1830 0.1671
7.8400 5.1964 0.1616
7.8600 5.2097 0.1685
7.8800 5.2231 0.1742
7.9000 5.2364 0.1641
7.9200 5.2498 0.1687
7.9400 5.2631 0.1699
7.9600 5.2764 0.1598
7.9800 5.2898 0.1689
8.0000 5.3031 0.1738
8.0200 5.3164 0.1593
8.0400 5.3297 0.1658
8.0600 5.3431 0.1738
8.0800 5.3564 0.1581
8.1000 5.3697 0.1707
8.1200 5.3830 0.1740
8.1400 5.3963 0.1509
8.1600 5.4097 0.1749
8.1800 5.4230 0.1748
8.2000 5.4364 0.1540
8.2200 5.4497 0.1752
8.2400 5.4630 0.1721
8.2600 5.4764 0.1493
8.2800 5.4898 0.1736
8.3000 5.5031 0.1713
8.3200 5.5164 0.1526
8.3400 5.5298 0.1745
8.3600 5.5431 0.1652
8.3800 5.5564 0.1547
8.4000 5.5697 0.1738
8.4200 5.5830 0.1659
8.4400 5.5964 0.1532
8.4600 5.6097 0.1736
8.4800 5.6230 0.1635
8.5000 5.6363 0.1582
8.5200 5.6497 0.1715
8.5400 5.6630 0.1568
8.5600 5.6764 0.1529
8.5800 5.6897 0.1687
8.6000 5.7031 0.1578
8.6200 5.7164 0.1542
8.6400 5.7298 0.1666
8.6600 5.7431 0.1568
8.6800 5.7564 0.1519
8.7000 5.7698 0.1735
8.7200 5.7831 0.1605
8.7400 5.7965 0.1517
8.7600 5.8098 0.1632
8.7800 5.8231 0.1624
8.8000 5.8364 0.1564
8.8200 5.8497 0.1605
8.8400 5.8630 0.1564
8.8600 5.8763 0.1562
8.8800 5.8897 0.1601
8.9000 5.9030 0.1548
8.9200 5.9164 0.1571
8.9400 5.9297 0.1599
8.9600 5.9431 0.1567
8.9800 5.9565 0.1580
9.0000 5.9698 0.1557
9.0200 5.9831 0.1641
9.0400 5.9964 0.1577
9.0600 6.0098 0.1538
9.0800 6.0231 0.1594
9.1000 6.0364 0.1561
9.1200 6.0497 0.1551
9.1400 6.0630 0.1588
9.1600 6.0764 0.1587
9.1800 6.0897 0.1508
9.2000 6.1030 0.1579
9.2200 6.1163 0.1592
9.2400 6.1296 0.1588
9.2600 6.1430 0.1604
9.2800 6.1564 0.1532
9.3000 6.1697 0.1555
9.3200 6.1831 0.1582
9.3400 6.1964 0.1497
9.3600 6.2098 0.1544
9.3800 6.2231 0.1553
9.4000 6.2364 0.1529
9.4200 6.2498 0.1552
9.4400 6.2631 0.1521
9.4600 6.2764 0.1567
9.4800 6.2897 0.1592
9.5000 6.3030 0.1544
9.5200 6.3163 0.1532
9.5400 6.3297 0.1560
9.5600 6.3430 0.1538
9.5800 6.3563 0.1504
9.6000 6.3697 0.1534
9.6200 6.3831 0.1535
9.6400 6.3964 0.1506
9.6600 6.4098 0.1498
9.6800 6.4231 0.1553
9.7000 6.4364 0.1518
9.7200 6.4498 0.1503
9.7400 6.4631 0.1528
9.7600 6.4764 0.1466
9.7800 6.4897 0.1529
9.8000 6.5031 0.1498
9.8200 6.5164 0.1443
9.8400 6.5298 0.1507
9.8600 6.5431 0.1502
9.8800 6.5564 0.1435
9.9000 6.5698 0.1466
9.9200 6.5831 0.1496
9.9400 6.5964 0.1451
9.9600 6.6097 0.1432
9.9800 6.6230 0.1508
10.0000 6.6364 0.1419
10.0200 6.6497 0.1435
10.0400 6.6630 0.1476
10.0600 6.6764 0.1426
10.0800 6.6898 0.1466
10.1000 6.7031 0.1478
10.1200 6.7164 0.1430
10.1400 6.7297 0.1433
10.1600 6.7431 0.1460
10.1800 6.7565 0.1422
10.2000 6.7698 0.1412
10.2200 6.7831 0.1495
10.2400 6.7964 0.1390
10.2600 6.8098 0.1432
10.2800 6.8231 0.1469
10.3000 6.8364 0.1418
10.3200 6.8497 0.1473
10.3400 6.8630 0.1458
10.3600 6.8764 0.1441
10.3800 6.8897 0.1434
10.4000 6.9030 0.1460
10.4200 6.9164 0.1424
10.4400 6.9298 0.1425
10.4600 6.9431 0.1414
10.4800 6.9564 0.1395
10.5000 6.9698 0.1502
10.5200 6.9831 0.1386
10.5400 6.9964 0.1424
10.5600 7.0097 0.1449
10.5800 7.0230 0.1341
10.6000 7.0364 0.1451
10.6200 7.0497 0.1397
10.6400 7.0630 0.1347
10.6600 7.0764 0.1452
10.6800 7.0897 0.1408
10.7000 7.1031 0.1356
10.7200 7.1164 0.1431
10.7400 7.1297 0.1368
10.7600 7.1430 0.1383
10.7800 7.1564 0.1447
10.8000 7.1698 0.1355
10.8200 7.1831 0.1376
10.8400 7.1964 0.1419
10.8600 7.2098 0.1364
10.8800 7.2231 0.1431
10.9000 7.2365 0.1407
10.9200 7.2498 0.1376
10.9400 7.2631 0.1376
10.9600 7.2764 0.1456
10.9800 7.2897 0.1353
11.0000 7.3030 0.1358
11.0200 7.3163 0.1438
11.0400 7.3297 0.1346
11.0600 7.3430 0.1380
11.0800 7.3564 0.1408
11.1000 7.3697 0.1318
11.1200 7.3831 0.1351
11.1400 7.3964 0.1366
11.1600 7.4098 0.1332
11.1800 7.4231 0.1366
11.2000 7.4364 0.1359
11.2200 7.4497 0.1388
11.2400 7.4631 0.1393
11.2600 7.4764 0.1355
11.2800 7.4898 0.1390
11.3000 7.5031 0.1352
11.3200 7.5164 0.1296
11.3400 7.5297 0.1404
11.3600 7.5431 0.1347
11.3800 7.5564 0.1299
11.4000 7.5697 0.1404
11.4200 7.5830 0.1300
11.4400 7.5964 0.1298
11.4600 7.6097 0.1418
11.4800 7.6230 0.1288
11.5000 7.6364 0.1373
11.5200 7.6498 0.1382
11.5400 7.6631 0.1265
11.5600 7.6764 0.1363
11.5800 7.6897 0.1350
11.6000 7.7031 0.1239
11.6200 7.7165 0.1349
11.6400 7.7298 0.1336
11.6600 7.7431 0.1219
11.6800 7.7564 0.1426
11.7000 7.7697 0.1289
11.7200 7.7830 0.1205
11.7400 7.7964 0.1408
11.7600 7.8097 0.1249
11.7800 7.8230 0.1313
11.8000 7.8364 0.1322
11.8200 7.8497 0.1287
11.8400 7.8630 0.1250
11.8600 7.8764 0.1321
11.8800 7.8897 0.1297
11.9000 7.9030 0.1208
11.9200 7.9164 0.1309
11.9400 7.9297 0.1329
11.9600 7.9431 0.1230
11.9800 7.9564 0.1270
12.0000 7.9698 0.1304
12.0200 7.9831 0.1205
12.0400 7.9964 0.1283
12.0600 8.0098 0.1263
12.0800 8.0231 0.1162
12.1000 8.0364 0.1301
12.1200 8.0497 0.1308
12.1400 8.0630 0.1172
12.1600 8.0763 0.1346
12.1800 8.0896 0.1313
12.2000 8.1030 0.1193
12.2200 8.1164 0.1279
12.2400 8.1298 0.1303
12.2600 8.1432 0.1155
12.2800 8.1565 0.1291
12.3000 8.1698 0.1299
12.3200 8.1831 0.1183
12.3400 8.1965 0.1278
12.3600 8.2098 0.1307
12.3800 8.2231 0.1144
12.4000 8.2364 0.1285
12.4200 8.2497 0.1294
12.4400 8.2630 0.1166
12.4600 8.2763 0.1244
12.4800 8.2896 0.1302
12.5000 8.3030 0.1146
12.5200 8.3164 0.1263
12.5400 8.3297 0.1362
12.5600 8.3430 0.1151
12.5800 8.3564 0.1248
12.6000 8.3698 0.1280
12.6200 8.3831 0.1117
12.6400 8.3965 0.1219
12.6600 8.4098 0.1232
12.6800 8.4231 0.1103
12.7000 8.4365 0.1281
12.7200 8.4498 0.1213
12.7400 8.4630 0.1097
12.7600 8.4764 0.1274
12.7800 8.4897 0.1209
12.8000 8.5030 0.1080
12.8200 8.5163 0.1262
12.8400 8.5297 0.1198
12.8600 8.5430 0.1140
12.8800 8.5564 0.1293
12.9000 8.5697 0.1118
12.9200 8.5831 0.1145
12.9400 8.5964 0.1338
12.9600 8.6098 0.1091
12.9800 8.6231 0.1158
13.0000 8.6364 0.1263
13.0200 8.6498 0.1154
13.0400 8.6631 0.1160
13.0600 8.6765 0.1223
13.0800 8.6898 0.1113
13.1000 8.7031 0.1176
13.1200 8.7164 0.1194
13.1400 8.7298 0.1179
13.1600 8.7431 0.1216
13.1800 8.7564 0.1194
13.2000 8.7697 0.1154
13.2200 8.7830 0.1175
13.2400 8.7964 0.1156
13.2600 8.8097 0.1138
13.2800 8.8231 0.1155
13.3000 8.8364 0.1162
13.3200 8.8498 0.1185
13.3400 8.8631 0.1117
13.3600 8.8764 0.1146
13.3800 8.8898 0.1172
13.4000 8.9031 0.1152
13.4200 8.9164 0.1156
13.4400 8.9298 0.1186
13.4600 8.9431 0.1138
13.4800 8.9564 0.1138
13.5000 8.9697 0.1185
13.5200 8.9831 0.1090
13.5400 8.9964 0.1174
13.5600 9.0097 0.1174
13.5800 9.0230 0.1018
13.6000 9.0364 0.1213
13.6200 9.0497 0.1179
13.6400 9.0630 0.1056
13.6600 9.0763 0.1169
13.6800 9.0897 0.1168
13.7000 9.1031 0.1021
13.7200 9.1164 0.1217
13.7400 9.1298 0.1173
13.7600 9.1431 0.1063
13.7800 9.1565 0.1160
13.8000 9.1698 0.1108
13.8200 9.1831 0.1067
13.8400 9.1964 0.1201
13.8600 9.2097 0.1135
13.8800 9.2230 0.1097
13.9000 9.2364 0.1164
13.9200 9.2497 0.1092
13.9400 9.2630 0.1041
13.9600 9.2764 0.1136
13.9800 9.2897 0.1073
14.0000 9.3030 0.1068
14.0200 9.3164 0.1105
14.0400 9.3297 0.1103
14.0600 9.3431 0.1061
14.0800 9.3564 0.1069
14.1000 9.3698 0.1111
14.1200 9.3831 0.1083
14.1400 9.3964 0.1077
14.1600 9.4098 0.1089
14.1800 9.4231 0.1079
14.2000 9.4364 0.1034
14.2200 9.4497 0.1069
14.2400 9.4631 0.1078
14.2600 9.4764 0.1023
14.2800 9.4896 0.1090
14.3000 9.5030 0.1076
14.3200 9.5163 0.0995
14.3400 9.5297 0.1086
14.3600 9.5430 0.1083
14.3800 9.5564 0.0985
14.4000 9.5698 0.1048
14.4200 9.5831 0.1050
14.4400 9.5965 0.0980
14.4600 9.6098 0.1118
14.4800 9.6231 0.1003
14.5000 9.6365 0.0958
14.5200 9.6498 0.1092
14.5400 9.6630 0.1079
14.5600 9.6763 0.0968
14.5800 9.6896 0.1104
14.6000 9.7030 0.0980
14.6200 9.7163 0.0988
14.6400 9.7297 0.1118
14.6600 9.7430 0.0978
14.6800 9.7564 0.1019
14.7000 9.7697 0.1050
14.7200 9.7831 0.0964
14.7400 9.7964 0.1104
14.7600 9.8098 0.1036
14.7800 9.8232 0.0961
14.8000 9.8365 0.1089
14.8200 9.8498 0.1017
14.8400 9.8631 0.1058
14.8600 9.8764 0.1105
14.8800 9.8898 0.1007
14.9000 9.9031 0.1045
14.9200 9.9164 0.1063
14.9400 9.9297 0.0971
14.9600 9.9431 0.1062
14.9800 9.9564 0.1056
15.0000 9.9697 0.0973
15.0200 9.9830 0.1074
15.0400 9.9964 0.1067
15.0600 10.0097 0.0943
15.0800 10.0230 0.1063
15.1000 10.0364 0.1043
15.1200 10.0498 0.0994
15.1400 10.0631 0.1045
15.1600 10.0765 0.0989
15.1800 10.0898 0.0989
15.2000 10.1031 0.1080
15.2200 10.1164 0.0973
15.2400 10.1298 0.0950
15.2600 10.1431 0.1049
15.2800 10.1564 0.0998
15.3000 10.1697 0.0907
15.3200 10.1831 0.1052
15.3400 10.1964 0.0987
15.3600 10.2097 0.0933
15.3800 10.2230 0.1034
15.4000 10.2363 0.0987
15.4200 10.2497 0.0968
15.4400 10.2630 0.0981
15.4600 10.2764 0.0979
15.4800 10.2897 0.0961
15.5000 10.3031 0.0992
15.5200 10.3165 0.0959
15.5400 10.3298 0.0941
15.5600 10.3431 0.0970
15.5800 10.3565 0.0949
15.6000 10.3698 0.0949
15.6200 10.3831 0.1009
15.6400 10.3964 0.0958
15.6600 10.4097 0.0997
15.6800 10.4231 0.1013
15.7000 10.4364 0.0912
15.7200 10.4497 0.0963
15.7400 10.4630 0.1043
15.7600 10.4764 0.0908
15.7800 10.4897 0.0953
15.8000 10.5030 0.1016
15.8200 10.5163 0.0885
15.8400 10.5297 0.0976
15.8600 10.5431 0.1014
15.8800 10.5564 0.0901
15.9000 10.5697 0.0925
15.9200 10.5831 0.0994
15.9400 10.5965 0.0924
15.9600 10.6098 0.0906
15.9800 10.6231 0.1029
16.0000 10.6364 0.0913
16.0200 10.6497 0.0897
16.0400 10.6631 0.0999
16.0600 10.6764 0.0909
16.0800 10.6897 0.0879
16.1000 10.7030 0.0985
16.1200 10.7163 0.0905
16.1400 10.7297 0.0875
16.1600 10.7430 0.0956
16.1800 10.7564 0.0918
16.2000 10.7698 0.0919
16.2200 10.7831 0.0945
16.2400 10.7965 0.0870
16.2600 10.8098 0.0883
16.2800 10.8231 0.0952
16.3000 10.8364 0.0910
16.3200 10.8498 0.0898
16.3400 10.8631 0.0907
16.3600 10.8764 0.0947
16.3800 10.8897 0.0899
16.4000 10.9031 0.0900
16.4200 10.9164 0.0916
16.4400 10.9297 0.0876
16.4600 10.9430 0.0890
16.4800 10.9563 0.0932
16.5000 10.9697 0.0831
16.5200 10.9830 0.0923
16.5400 10.9964 0.0921
16.5600 11.0097 0.0823
16.5800 11.0231 0.0923
16.6000 11.0365 0.0907
16.6200 11.0498 0.0787
16.6400 11.0631 0.0947
16.6600 11.0764 0.0909
16.6800 11.0898 0.0774
16.7000 11.1031 0.0926
16.7200 11.1163 0.0880
16.7400 11.1296 0.0798
16.7600 11.1430 0.0929
16.7800 11.1564 0.0862
16.8000 11.1697 0.0811
16.8200 11.1830 0.0868
16.8400 11.1964 0.0889
16.8600 11.2098 0.0807
16.8800 11.2231 0.0846
16.9000 11.2364 0.0896
16.9200 11.2498 0.0775
16.9400 11.2631 0.0854
16.9600 11.2764 0.0865
16.9800 11.2897 0.0749
17.0000 11.3030 0.0909
17.0200 11.3164 0.0875
17.0400 11.3298 0.0735
17.0600 11.3431 0.0881
17.0800 11.3564 0.0885
17.1000 11.3698 0.0699
17.1200 11.3831 0.0878
17.1400 11.3964 0.0886
17.1600 11.4097 0.0720
17.1800 11.4230 0.0877
17.2000 11.4364 0.0826
17.2200 11.4497 0.0683
17.2400 11.4630 0.0877
17.2600 11.4764 0.0837
17.2800 11.4897 0.0695
17.3000 11.5031 0.0866
17.3200 11.5164 0.0769
17.3400 11.5298 0.0653
17.3600 11.5431 0.0891
17.3800 11.5564 0.0817
17.4000 11.5698 0.0672
17.4200 11.5831 0.0870
17.4400 11.5964 0.0780
17.4600 11.6097 0.0715
17.4800 11.6231 0.0851
17.5000 11.6364 0.0767
17.5200 11.6497 0.0694
17.5400 11.6630 0.0903
17.5600 11.6763 0.0735
17.5800 11.6897 0.0720
17.6000 11.7030 0.0914
17.6200 11.7164 0.0686
17.6400 11.7297 0.0742
17.6600 11.7431 0.0849
17.6800 11.7565 0.0748
17.7000 11.7698 0.0756
17.7200 11.7831 0.0800
17.7400 11.7965 0.0787
17.7600 11.8098 0.0740
17.7800 11.8231 0.0796
17.8000 11.8364 0.0771
17.8200 11.8497 0.0747
17.8400 11.8630 0.0790
17.8600 11.8764 0.0794
17.8800 11.8897 0.0731
17.9000 11.9030 0.0783
17.9200 11.9164 0.0817
17.9400 11.9297 0.0714
17.9600 11.9431 0.0819
17.9800 11.9564 0.0838
18.0000 11.9697 0.0641
18.0200 11.9831 0.0822
18.0400 11.9964 0.0803
18.0600 12.0097 0.0668
18.0800 12.0231 0.0854
18.1000 12.0364 0.0799
18.1200 12.0498 0.0663
18.1400 12.0631 0.0820
18.1600 12.0764 0.0769
18.1800 12.0897 0.0704
18.2000 12.1031 0.0825
18.2200 12.1164 0.0730
18.2400 12.1297 0.0694
18.2600 12.1430 0.0821
18.2800 12.1563 0.0762
18.3000 12.1697 0.0673
18.3200 12.1830 0.0813
18.3400 12.1964 0.0718
18.3600 12.2097 0.0685
18.3800 12.2231 0.0800
18.4000 12.2365 0.0714
18.4200 12.2498 0.0672
18.4400 12.2631 0.0770
18.4600 12.2764 0.0748
18.4800 12.2898 0.0695
18.5000 12.3031 0.0763
18.5200 12.3164 0.0663
18.5400 12.3297 0.0694
18.5600 12.3431 0.0778
18.5800 12.3564 0.0655
18.6000 12.3697 0.0746
18.6200 12.3831 0.0759
18.6400 12.3964 0.0649
18.6600 12.4097 0.0722
18.6800 12.4230 0.0722
18.7000 12.4364 0.0693
18.7200 12.4497 0.0756
18.7400 12.4631 0.0713
18.7600 12.4764 0.0607
18.7800 12.4898 0.0726
18.8000 12.5031 0.0743
18.8200 12.5164 0.0653
18.8400 12.5298 0.0696
18.8600 12.5431 0.0708
18.8800 12.5564 0.0673
18.9000 12.5697 0.0676
18.9200 12.5830 0.0722
18.9400 12.5964 0.0689
18.9600 12.6097 0.0640
18.9800 12.6230 0.0721
19.0000 12.6363 0.0673
19.0200 12.6497 0.0621
19.0400 12.6630 0.0732
19.0600 12.6764 0.0699
19.0800 12.6897 0.0660
19.1000 12.7030 0.0701
19.1200 12.7164 0.0631
19.1400 12.7297 0.0660
19.1600 12.7430 0.0713
19.1800 12.7564 0.0607
19.2000 12.7698 0.0649
19.2200 12.7831 0.0714
19.2400 12.7964 0.0569
19.2600 12.8098 0.0719
19.2800 12.8231 0.0692
19.3000 12.8364 0.0548
19.3200 12.8497 0.0708
19.3400 12.8630 0.0701
19.3600 12.8763 0.0620
19.3800 12.8897 0.0718
19.4000 12.9030 0.0622
19.4200 12.9163 0.0627
19.4400 12.9297 0.0724
19.4600 12.9431 0.0583
19.4800 12.9565 0.0614
19.5000 12.9698 0.0674
19.5200 12.9831 0.0612
19.5400 12.9965 0.0577
19.5600 13.0098 0.0676
19.5800 13.0232 0.0554
19.6000 13.0364 0.0634
19.6200 13.0497 0.0643
19.6400 13.0630 0.0583
19.6600 13.0764 0.0668
19.6800 13.0897 0.0602
19.7000 13.1030 0.0595
19.7200 13.1163 0.0626
19.7400 13.1297 0.0573
19.7600 13.1430 0.0599
19.7800 13.1564 0.0633
19.8000 13.1697 0.0593
19.8200 13.1831 0.0573
19.8400 13.1965 0.0643
19.8600 13.2098 0.0548
19.8800 13.2231 0.0629
19.9000 13.2364 0.0642
19.9200 13.2498 0.0571
19.9400 13.2631 0.0611
19.9600 13.2764 0.0594
19.9800 13.2897 0.0627
20.0000 13.3031 0.0656
20.0200 13.3164 0.0558
20.0400 13.3297 0.0630
20.0600 13.3430 0.0662
20.0800 13.3563 0.0557
20.1000 13.3697 0.0622
20.1200 13.3831 0.0633
20.1400 13.3964 0.0565
20.1600 13.4097 0.0605
20.1800 13.4231 0.0609
20.2000 13.4365 0.0551
20.2200 13.4498 0.0618
20.2400 13.4631 0.0566
20.2600 13.4764 0.0546
20.2800 13.4898 0.0621
20.3000 13.5031 0.0600
20.3200 13.5164 0.0546
20.3400 13.5298 0.0610
20.3600 13.5431 0.0580
20.3800 13.5564 0.0550
20.4000 13.5697 0.0631
20.4200 13.5830 0.0581
20.4400 13.5963 0.0509
20.4600 13.6097 0.0684
20.4800 13.6230 0.0499
20.5000 13.6364 0.0469
20.5200 13.6497 0.0648
20.5400 13.6631 0.0558
20.5600 13.6765 0.0472
20.5800 13.6898 0.0607
20.6000 13.7031 0.0564
20.6200 13.7164 0.0489
20.6400 13.7298 0.0592
20.6600 13.7431 0.0496
20.6800 13.7564 0.0498
20.7000 13.7697 0.0591
20.7200 13.7830 0.0525
20.7400 13.7964 0.0483
20.7600 13.8097 0.0553
20.7800 13.8230 0.0503
20.8000 13.8364 0.0503
20.8200 13.8497 0.0542
20.8400 13.8630 0.0495
20.8600 13.8764 0.0469
20.8800 13.8897 0.0565
20.9000 13.9031 0.0474
20.9200 13.9165 0.0460
20.9400 13.9298 0.0554
20.9600 13.9431 0.0443
20.9800 13.9564 0.0533
21.0000 13.9698 0.0584
21.0200 13.9832 0.0418
21.0400 13.9965 0.0505
21.0600 14.0097 0.0585
21.0800 14.0231 0.0469
21.1000 14.0364 0.0499
21.1200 14.0497 0.0563
21.1400 14.0630 0.0483
21.1600 14.0763 0.0486
21.1800 14.0897 0.0557
21.2000 14.1030 0.0452
21.2200 14.1164 0.0521
21.2400 14.1297 0.0557
21.2600 14.1430 0.0420
21.2800 14.1564 0.0511
21.3000 14.1698 0.0571
21.3200 14.1831 0.0441
21.3400 14.1964 0.0479
21.3600 14.2098 0.0594
21.3800 14.2231 0.0418
21.4000 14.2364 0.0550
21.4200 14.2498 0.0539
21.4400 14.2631 0.0394
21.4600 14.2764 0.0553
21.4800 14.2898 0.0481
21.5000 14.3030 0.0435
21.5200 14.3163 0.0568
21.5400 14.3296 0.0448
21.5600 14.3430 0.0403
21.5800 14.3563 0.0572
21.6000 14.3696 0.0456
21.6200 14.3830 0.0436
21.6400 14.3964 0.0541
21.6600 14.4098 0.0441
21.6800 14.4232 0.0424
21.7000 14.4365 0.0531
21.7200 14.4498 0.0424
21.7400 14.4631 0.0468
21.7600 14.4764 0.0510
21.7800 14.4897 0.0452
21.8000 14.5030 0.0490
21.8200 14.5163 0.0498
21.8400 14.5297 0.0437
21.8600 14.5430 0.0483
21.8800 14.5563 0.0459
21.9000 14.5697 0.0432
21.9200 14.5830 0.0455
21.9400 14.5964 0.0429
21.9600 14.6097 0.0431
21.9800 14.6231 0.0472
22.0000 14.6365 0.0399
22.0200 14.6498 0.0430
22.0400 14.6631 0.0433
22.0600 14.6764 0.0464
22.0800 14.6897 0.0405
22.1000 14.7031 0.0409
22.1200 14.7164 0.0451
22.1400 14.7297 0.0428
22.1600 14.7430 0.0420
22.1800 14.7564 0.0446
22.2000 14.7697 0.0421
22.2200 14.7830 0.0433
22.2400 14.7964 0.0415
22.2600 14.8097 0.0420
22.2800 14.8231 0.0411
22.3000 14.8364 0.0381
22.3200 14.8497 0.0414
22.3400 14.8631 0.0435
22.3600 14.8764 0.0402
22.3800 14.8898 0.0383
22.4000 14.9031 0.0445
22.4200 14.9164 0.0382
22.4400 14.9298 0.0388
22.4600 14.9431 0.0453
22.4800 14.9565 0.0374
22.5000 14.9698 0.0414
22.5200 14.9831 0.0485
22.5400 14.9964 0.0367
22.5600 15.0097 0.0407
22.5800 15.0230 0.0426
22.6000 15.0363 0.0372
22.6200 15.0497 0.0425
22.6400 15.0630 0.0438
22.6600 15.0764 0.0273
22.6800 15.0897 0.0445
22.7000 15.1030 0.0422
22.7200 15.1164 0.0286
22.7400 15.1298 0.0449
22.7600 15.1431 0.0407
22.7800 15.1564 0.0309
22.8000 15.1698 0.0469
22.8200 15.1831 0.0317
22.8400 15.1964 0.0295
22.8600 15.2097 0.0466
22.8800 15.2230 0.0344
22.9000 15.2364 0.0319
22.9200 15.2497 0.0429
22.9400 15.2630 0.0317
22.9600 15.2764 0.0377
22.9800 15.2897 0.0430
23.0000 15.3030 0.0284
23.0200 15.3164 0.0362
23.0400 15.3297 0.0426
23.0600 15.3430 0.0303
23.0800 15.3564 0.0377
23.1000 15.3698 0.0349
23.1200 15.3831 0.0305
23.1400 15.3964 0.0381
23.1600 15.4097 0.0343
23.1800 15.4231 0.0329
23.2000 15.4364 0.0345
23.2200 15.4498 0.0351
23.2400 15.4631 0.0329
23.2600 15.4764 0.0324
23.2800 15.4897 0.0304
23.3000 15.5030 0.0350
23.3200 15.5163 0.0353
23.3400 15.5297 0.0320
23.3600 15.5430 0.0346
23.3800 15.5564 0.0330
23.4000 15.5697 0.0301
23.4200 15.5831 0.0319
23.4400 15.5965 0.0305
23.4600 15.6098 0.0306
23.4800 15.6231 0.0282
23.5000 15.6364 0.0332
23.5200 15.6498 0.0308
23.5400 15.6631 0.0316
23.5600 15.6765 0.0294
23.5800 15.6898 0.0294
23.6000 15.7030 0.0353
23.6200 15.7164 0.0312
23.6400 15.7297 0.0269
23.6600 15.7430 0.0297
23.6800 15.7563 0.0274
23.7000 15.7697 0.0332
23.7200 15.7830 0.0295
23.7400 15.7964 0.0239
23.7600 15.8097 0.0335
23.7800 15.8230 0.0282
23.8000 15.8364 0.0229
23.8200 15.8498 0.0326
23.8400 15.8631 0.0276
23.8600 15.8764 0.0258
23.8800 15.8898 0.0305
23.9000 15.9031 0.0214
23.9200 15.9164 0.0307
23.9400 15.9297 0.0317
23.9600 15.9430 0.0212
23.9800 15.9563 0.0347
24.0000 15.9697 0.0292
24.0200 15.9830 0.0263
24.0400 15.9964 0.0334
24.0600 16.0097 0.0266
24.0800 16.0231 0.0265
24.1000 16.0364 0.0307
24.1200 16.0497 0.0236
24.1400 16.0631 0.0251
24.1600 16.0764 0.0345
24.1800 16.0898 0.0239
24.2000 16.1031 0.0251
24.2200 16.1164 0.0352
24.2400 16.1297 0.0231
24.2600 16.1431 0.0230
24.2800 16.1564 0.0313
24.3000 16.1698 0.0233
24.3200 16.1831 0.0295
24.3400 16.1964 0.0271
24.3600 16.2098 0.0242
24.3800 16.2231 0.0271
24.4000 16.2364 0.0297
24.4200 16.2497 0.0220
24.4400 16.2630 0.0242
24.4600 16.2764 0.0314
24.4800 16.2897 0.0213
24.5000 16.3030 0.0246
24.5200 16.3164 0.0249
24.5400 16.3298 0.0238
24.5600 16.3431 0.0210
24.5800 16.3564 0.0251
24.6000 16.3697 0.0218
24.6200 16.3831 0.0178
24.6400 16.3965 0.0282
24.6600 16.4098 0.0221
24.6800 16.4231 0.0181
24.7000 16.4364 0.0271
24.7200 16.4498 0.0186
24.7400 16.4631 0.0174
24.7600 16.4764 0.0251
24.7800 16.4897 0.0239
24.8000 16.5030 0.0159
24.8200 16.5164 0.0206
24.8400 16.5297 0.0176
24.8600 16.5430 0.0212
24.8800 16.5564 0.0226
24.9000 16.5698 0.0168
24.9200 16.5831 0.0209
24.9400 16.5964 0.0213
24.9600 16.6098 0.0150
24.9800 16.6231 0.0204
25.0000 16.6365 0.0211
25.0200 16.6498 0.0169
25.0400 16.6631 0.0185
25.0600 16.6764 0.0214
25.0800 16.6897 0.0159
25.1000 16.7030 0.0166
25.1200 16.7163 0.0201
25.1400 16.7297 0.0133
25.1600 16.7430 0.0162
25.1800 16.7564 0.0185
25.2000 16.7697 0.0130
25.2200 16.7830 0.0174
25.2400 16.7964 0.0201
25.2600 16.8097 0.0138
25.2800 16.8231 0.0129
25.3000 16.8364 0.0165
25.3200 16.8498 0.0139
25.3400 16.8631 0.0116
25.3600 16.8765 0.0149
25.3800 16.8898 0.0100
25.4000 16.9031 0.0120
25.4200 16.9164 0.0157
25.4400 16.9297 0.0143
25.4600 16.9430 0.0050
25.4800 16.9563 0.0172
25.5000 16.9696 0.0132
25.5200 16.9830 0.0017
25.5400 16.9963 0.0192
25.5600 17.0097 0.0082
25.5800 17.0230 0.0028
25.6000 17.0364 0.0210
25.6200 17.0498 0.0015
25.6400 17.0631 0.0065
25.6600 17.0764 0.0213
25.6800 17.0897 0.0037
25.7000 17.1031 0.0078
25.7200 17.1164 0.0207
25.7400 17.1298 0.0004
25.7600 17.1431 0.0142
25.7800 17.1564 0.0156
25.8000 17.1697 0.0015
25.8200 17.1831 0.0162
25.8400 17.1964 0.0140
25.8600 17.2097 0.0059
25.8800 17.2230 0.0137
25.9000 17.2364 0.0112
25.9200 17.2497 0.0054
25.9400 17.2630 0.0163
25.9600 17.2764 0.0109
25.9800 17.2898 0.0045
26.0000 17.3031 0.0114
26.0200 17.3164 0.0091
26.0400 17.3298 0.0064
26.0600 17.3431 0.0067
26.0800 17.3565 0.0118
26.1000 17.3698 0.0072
26.1200 17.3831 0.0049
26.1400 17.3964 0.0116
26.1600 17.4097 0.0029
26.1800 17.4231 0.0059
26.2000 17.4364 0.0103
26.2200 17.4497 0.0027
26.2400 17.4630 0.0024
26.2600 17.4764 0.0111
26.2800 17.4897 0.0043
26.3000 17.5031 -0.0010
26.3200 17.5164 0.0092
26.3400 17.5297 0.0070
26.3600 17.5431 -0.0005
26.3800 17.5564 0.0106
26.4000 17.5697 0.0047
26.4200 17.5831 0.0000
26.4400 17.5964 0.0095
26.4600 17.6098 0.0035
26.4800 17.6231 0.0004
26.5000 17.6364 0.0131
26.5200 17.6498 -0.0001
26.5400 17.6631 0.0022
26.5600 17.6764 0.0097
26.5800 17.6897 -0.0001
26.6000 17.7030 -0.0020
26.6200 17.7163 0.0082
26.6400 17.7297 0.0017
26.6600 17.7430 0.0017
26.6800 17.7564 0.0067
26.7000 17.7698 -0.0025
26.7200 17.7831 0.0008
26.7400 17.7965 0.0078
26.7600 17.8098 -0.0044
26.7800 17.8231 0.0008
26.8000 17.8365 0.0059
26.8200 17.8498 -0.0030
26.8400 17.8631 0.0020
26.8600 17.8764 0.0057
26.8800 17.8897 -0.0016
26.9000 17.9030 0.0003
26.9200 17.9163 0.0062
26.9400 17.9296 -0.0013
26.9600 17.9430 0.0001
26.9800 17.9563 0.0080
27.0000 17.9697 -0.0037
27.0200 17.9830 -0.0018
27.0400 17.9964 0.0085
27.0600 18.0098 -0.0021
27.0800 18.0231 -0.0029
27.1000 18.0365 0.0036
27.1200 18.0498 -0.0054
27.1400 18.0631 -0.0039
27.1600 18.0765 0.0065
27.1800 18.0898 -0.0063
27.2000 18.1031 -0.0018
27.2200 18.1164 0.0056
27.2400 18.1297 -0.0088
27.2600 18.1431 -0.0002
27.2800 18.1564 0.0038
27.3000 18.1697 -0.0115
27.3200 18.1830 0.0072
27.3400 18.1964 -0.0007
27.3600 18.2097 -0.0208
27.3800 18.2231 0.0089
27.4000 18.2364 0.0012
27.4200 18.2498 -0.0153
27.4400 18.2631 0.0037
27.4600 18.2764 -0.0021
27.4800 18.2898 -0.0130
27.5000 18.3031 0.0020
27.5200 18.3165 -0.0059
27.5400 18.3298 -0.0094
27.5600 18.3431 0.0015
27.5800 18.3564 -0.0112
27.6000 18.3698 -0.0066
27.6200 18.3831 -0.0016
27.6400 18.3964 -0.0104
27.6600 18.4097 -0.0029
27.6800 18.4230 -0.0067
27.7000 18.4364 -0.0119
27.7200 18.4497 -0.0014
27.7400 18.4631 -0.0035
27.7600 18.4764 -0.0144
27.7800 18.4898 -0.0053
27.8000 18.5031 -0.0051
27.8200 18.5165 -0.0115
27.8400 18.5298 -0.0040
27.8600 18.5431 -0.0061
27.8800 18.5564 -0.0159
27.9000 18.5698 -0.0022
27.9200 18.5830 -0.0088
27.9400 18.5964 -0.0085
27.9600 18.6097 -0.0061
27.9800 18.6231 -0.0135
28.0000 18.6364 -0.0097
28.0200 18.6497 -0.0047
28.0400 18.6630 -0.0142
28.0600 18.6764 -0.0113
28.0800 18.6897 -0.0046
28.1000 18.7030 -0.0205
28.1200 18.7163 -0.0084
28.1400 18.7297 -0.0043
28.1600 18.7431 -0.0220
28.1800 18.7565 -0.0097
28.2000 18.7698 -0.0098
28.2200 18.7831 -0.0156
28.2400 18.7965 -0.0104
28.2600 18.8098 -0.0140
28.2800 18.8231 -0.0184
28.3000 18.8364 -0.0124
28.3200 18.8497 -0.0171
28.3400 18.8631 -0.0160
28.3600 18.8764 -0.0111
28.3800 18.8897 -0.0174
28.4000 18.9030 -0.0134
28.4200 18.9163 -0.0184
28.4400 18.9297 -0.0195
28.4600 18.9430 -0.0160
28.4800 18.9564 -0.0156
28.5000 18.9697 -0.0183
28.5200 18.9831 -0.0166
28.5400 18.9964 -0.0181
28.5600 19.0097 -0.0152
28.5800 19.0231 -0.0154
28.6000 19.0364 -0.0201
28.6200 19.0498 -0.0188
28.6400 19.0631 -0.0194
28.6600 19.0764 -0.0217
28.6800 19.0897 -0.0130
28.7000 19.1031 -0.0193
28.7200 19.1164 -0.0168
28.7400 19.1297 -0.0146
28.7600 19.1430 -0.0212
28.7800 19.1563 -0.0131
28.8000 19.1697 -0.0150
28.8200 19.1830 -0.0216
28.8400 19.1964 -0.0131
28.8600 19.2097 -0.0167
28.8800 19.2231 -0.0200
28.9000 19.2365 -0.0148
28.9200 19.2498 -0.0169
28.9400 19.2632 -0.0183
28.9600 19.2765 -0.0210
28.9800 19.2898 -0.0198
29.0000 19.3031 -0.0164
29.0200 19.3164 -0.0201
29.0400 19.3297 -0.0193
29.0600 19.3430 -0.0219
29.0800 19.3564 -0.0182
29.1000 19.3697 -0.0173
29.1200 19.3830 -0.0237
29.1400 19.3964 -0.0239
29.1600 19.4097 -0.0218
29.1800 19.4231 -0.0229
29.2000 19.4364 -0.0258
29.2200 19.4498 -0.0187
29.2400 19.4631 -0.0282
29.2600 19.4765 -0.0239
29.2800 19.4898 -0.0202
29.3000 19.5031 -0.0258
29.3200 19.5164 -0.0200
29.3400 19.5298 -0.0231
29.3600 19.5431 -0.0262
29.3800 19.5564 -0.0230
29.4000 19.5697 -0.0221
29.4200 19.5831 -0.0287
29.4400 19.5964 -0.0283
29.4600 19.6097 -0.0194
29.4800 19.6230 -0.0284
29.5000 19.6364 -0.0267
29.5200 19.6497 -0.0270
29.5400 19.6631 -0.0258
29.5600 19.6764 -0.0317
29.5800 19.6897 -0.0293
29.6000 19.7031 -0.0288
29.6200 19.7164 -0.0312
29.6400 19.7297 -0.0276
29.6600 19.7431 -0.0300
29.6800 19.7564 -0.0254
29.7000 19.7698 -0.0304
29.7200 19.7831 -0.0321
29.7400 19.7964 -0.0268
29.7600 19.8097 -0.0348
29.7800 19.8231 -0.0295
29.8000 19.8364 -0.0316
29.8200 19.8497 -0.0352
29.8400 19.8630 -0.0288
29.8600 19.8763 -0.0330
29.8800 19.8897 -0.0329
29.9000 19.9030 -0.0266
29.9200 19.9164 -0.0336
29.9400 19.9297 -0.0379
29.9600 19.9431 -0.0307
29.9800 19.9565 -0.0340
30.0000 19.9698 -0.0342
30.0200 19.9831 -0.0320
30.0400 19.9965 -0.0352
30.0600 20.0098 -0.0375
30.0800 20.0231 -0.0283
30.1000 20.0364 -0.0367
30.1200 20.0497 -0.0358
30.1400 20.0631 -0.0289
30.1600 20.0764 -0.0386
30.1800 20.0897 -0.0386
30.2000 20.1030 -0.0312
30.2200 20.1164 -0.0397
30.2400 20.1297 -0.0400
30.2600 20.1430 -0.0306
30.2800 20.1564 -0.0364
30.3000 20.1697 -0.0411
30.3200 20.1831 -0.0304
30.3400 20.1964 -0.0451
30.3600 20.2098 -0.0394
30.3800 20.2231 -0.0305
30.4000 20.2365 -0.0473
30.4200 20.2498 -0.0372
30.4400 20.2631 -0.0305
30.4600 20.2764 -0.0477
30.4800 20.2897 -0.0385
30.5000 20.3031 -0.0318
30.5200 20.3164 -0.0498
30.5400 20.3297 -0.0348
30.5600 20.3430 -0.0375
30.5800 20.3563 -0.0535
30.6000 20.3697 -0.0321
30.6200 20.3830 -0.0417
30.6400 20.3964 -0.0526
30.6600 20.4097 -0.0359
30.6800 20.4231 -0.0471
30.7000 20.4365 -0.0480
30.7200 20.4498 -0.0432
30.7400 20.4631 -0.0450
30.7600 20.4764 0.0123
30.7800 20.4898 0.0687
30.8000 20.5031 0.1255
30.8200 20.5164 0.1970
30.8400 20.5297 0.2420
30.8600 20.5431 0.2948
30.8800 20.5564 0.3307
30.9000 20.5697 0.3610
30.9200 20.5830 0.3970
30.9400 20.5963 0.4459
30.9600 20.6097 0.4785
30.9800 20.6230 0.5238
31.0000 20.6363 0.5405
31.0200 20.6497 0.5392
31.0400 20.6631 0.5525
31.0600 20.6765 0.5452
31.0800 20.6898 0.5428
31.1000 20.7031 0.5514
31.1200 20.7164 0.5479
31.1400 20.7298 0.5457
31.1600 20.7431 0.5516
31.1800 20.7563 0.5533
31.2000 20.7697 0.5494
31.2200 20.7830 0.5561
31.2400 20.7964 0.5499
31.2600 20.8097 0.5498
31.2800 20.8230 0.5557
31.3000 20.8364 0.5525
31.3200 20.8498 0.5534
31.3400 20.8631 0.5497
31.3600 20.8764 0.5513
31.3800 20.8897 0.5544
31.4000 20.9031 0.5516
31.4200 20.9164 0.5541
31.4400 20.9297 0.5554
31.4600 20.9431 0.5481
31.4800 20.9564 0.5501
31.5000 20.9698 0.5489
31.5200 20.9831 0.5493
31.5400 20.9964 0.5506
31.5600 21.0097 0.5453
31.5800 21.0231 0.5444
31.6000 21.0364 0.5506
31.6200 21.0497 0.5407
31.6400 21.0630 0.5476
31.6600 21.0764 0.5463
31.6800 21.0897 0.5387
31.7000 21.1030 0.5439
31.7200 21.1164 0.5444
31.7400 21.1297 0.5378
31.7600 21.1431 0.5404
31.7800 21.1564 0.5466
31.8000 21.1697 0.5370
31.8200 21.1831 0.5398
31.8400 21.1964 0.5447
31.8600 21.2098 0.5334
31.8800 21.2231 0.5434
31.9000 21.2364 0.5393
31.9200 21.2497 0.5347
31.9400 21.2631 0.5453
31.9600 21.2764 0.5415
31.9800 21.2897 0.5319
32.0000 21.3030 0.5406
32.0200 21.3163 0.5393
32.0400 21.3297 0.5313
32.0600 21.3430 0.5402
32.0800 21.3564 0.5352
32.1000 21.3697 0.5298
32.1200 21.3831 0.5400
32.1400 21.3965 0.5335
32.1600 21.4098 0.5258
32.1800 21.4231 0.5377
32.2000 21.4364 0.5300
32.2200 21.4498 0.5230
32.2400 21.4631 0.5327
32.2600 21.4764 0.5329
32.2800 21.4897 0.5265
32.3000 21.5030 0.5361
32.3200 21.5164 0.5280
32.3400 21.5297 0.5265
32.3600 21.5430 0.5368
32.3800 21.5563 0.5284
32.4000 21.5697 0.5264
32.4200 21.5831 0.5388
32.4400 21.5964 0.5283
32.4600 21.6097 0.5296
32.4800 21.6231 0.5425
32.5000 21.6364 0.5244
32.5200 21.6497 0.5248
32.5400 21.6631 0.5404
32.5600 21.6764 0.5257
32.5800 21.6898 0.5261
32.6000 21.7031 0.5365
32.6200 21.7164 0.5229
32.6400 21.7297 0.5276
32.6600 21.7431 0.5339
32.6800 21.7564 0.5196
32.7000 21.7697 0.5302
32.7200 21.7830 0.5335
32.7400 21.7963 0.5142
32.7600 21.8097 0.5274
32.7800 21.8230 0.5299
32.8000 21.8364 0.5151
32.8200 21.8497 0.5286
32.8400 21.8631 0.5221
32.8600 21.8765 0.5156
32.8800 21.8898 0.5229
32.9000 21.9031 0.5228
32.9200 21.9164 0.5192
32.9400 21.9298 0.5188
32.9600 21.9431 0.5228
32.9800 21.9564 0.5173
33.0000 21.9697 0.5224
33.0200 21.9831 0.5204
33.0400 21.9964 0.5183
33.0600 22.0098 0.5185
33.0800 22.0231 0.5183
33.1000 22.0364 0.5182
33.1200 22.0497 0.5183
33.1400 22.0630 0.5173
33.1600 22.0764 0.5253
33.1800 22.0897 0.5135
33.2000 22.1031 0.5158
33.2200 22.1165 0.5232
33.2400 22.1298 0.5150
33.2600 22.1431 0.5198
33.2800 22.1564 0.5259
33.3000 22.1698 0.5082
33.3200 22.1831 0.5185
33.3400 22.1964 0.5239
33.3600 22.2097 0.5079
33.3800 22.2230 0.5203
33.4000 22.2364 0.5185
33.4200 22.2497 0.5024
33.4400 22.2630 0.5180
33.4600 22.2764 0.5142
33.4800 22.2897 0.5052
33.5000 22.3030 0.5217
33.5200 22.3164 0.5073
33.5400 22.3297 0.5067
33.5600 22.3430 0.5196
33.5800 22.3564 0.5040
33.6000 22.3697 0.5087
33.6200 22.3830 0.5134
33.6400 22.3964 0.5012
33.6600 22.4097 0.5133
33.6800 22.4231 0.5110
33.7000 22.4364 0.5049
33.7200 22.4498 0.5134
33.7400 22.4631 0.5060
33.7600 22.4765 0.5036
33.7800 22.4898 0.5142
33.8000 22.5030 0.5010
33.8200 22.5163 0.5021
33.8400 22.5296 0.5098
33.8600 22.5430 0.5009
33.8800 22.5563 0.5047
33.9000 22.5697 0.5137
33.9200 22.5831 0.4998
33.9400 22.5965 0.5041
33.9600 22.6098 0.5110
33.9800 22.6231 0.4969
34.0000 22.6365 0.5106
34.0200 22.6498 0.5014
34.0400 22.6632 0.4962
34.0600 22.6765 0.5119
34.0800 22.6897 0.4983
34.1000 22.7030 0.5022
34.1200 22.7164 0.5082
34.1400 22.7297 0.4989
34.1600 22.7430 0.4971
34.1800 22.7563 0.5030
34.2000 22.7697 0.5031
34.2200 22.7830 0.4996
34.2400 22.7964 0.4997
34.2600 22.8097 0.5003
34.2800 22.8231 0.5035
34.3000 22.8365 0.4963
34.3200 22.8498 0.5011
34.3400 22.8631 0.5030
34.3600 22.8765 0.4942
34.3800 22.8898 0.5000
34.4000 22.9031 0.5016
34.4200 22.9164 0.4917
34.4400 22.9297 0.5051
34.4600 22.9430 0.5007
34.4800 22.9564 0.4897
34.5000 22.9697 0.5027
34.5200 22.9830 0.4991
34.5400 22.9963 0.4908
34.5600 23.0097 0.5030
34.5800 23.0230 0.4957
34.6000 23.0364 0.4915
34.6200 23.0497 0.5021
34.6400 23.0630 0.4924
34.6600 23.0764 0.4858
34.6800 23.0898 0.5014
34.7000 23.1031 0.4869
34.7200 23.1164 0.4927
34.7400 23.1297 0.4995
34.7600 23.1431 0.4904
34.7800 23.1564 0.4901
34.8000 23.1698 0.4889
34.8200 23.1831 0.4917
34.8400 23.1964 0.4892
34.8600 23.2098 0.4914
34.8800 23.2230 0.4890
34.9000 23.2363 0.4836
34.9200 23.2497 0.4884
34.9400 23.2630 0.4896
34.9600 23.2764 0.4855
34.9800 23.2897 0.4862
35.0000 23.3031 0.4847
35.0200 23.3165 0.4838
35.0400 23.3298 0.4870
35.0600 23.3431 0.4873
35.0800 23.3564 0.4811
35.1000 23.3697 0.4910
35.1200 23.3831 0.4808
35.1400 23.3964 0.4754
35.1600 23.4097 0.4919
35.1800 23.4230 0.4802
35.2000 23.4364 0.4764
35.2200 23.4497 0.4921
35.2400 23.4630 0.4771
35.2600 23.4764 0.4788
35.2800 23.4897 0.4872
35.3000 23.5030 0.4767
35.3200 23.5164 0.4775
35.3400 23.5297 0.4853
35.3600 23.5430 0.4733
35.3800 23.5564 0.4784
35.4000 23.5698 0.4833
35.4200 23.5831 0.4705
35.4400 23.5964 0.4793
35.4600 23.6098 0.4818
35.4800 23.6231 0.4717
35.5000 23.6365 0.4800
35.5200 23.6498 0.4795
35.5400 23.6631 0.4734
35.5600 23.6764 0.4781
35.5800 23.6897 0.4817
35.6000 23.7031 0.4718
35.6200 23.7164 0.4731
35.6400 23.7297 0.4784
35.6600 23.7430 0.4750
35.6800 23.7564 0.4674
35.7000 23.7697 0.4760
35.7200 23.7830 0.4753
35.7400 23.7964 0.4664
35.7600 23.8098 0.4732
35.7800 23.8231 0.4733
35.8000 23.8364 0.4677
35.8200 23.8498 0.4740
35.8400 23.8631 0.4725
35.8600 23.8764 0.4677
35.8800 23.8897 0.4727
35.9000 23.9031 0.4758
35.9200 23.9164 0.4657
35.9400 23.9297 0.4686
35.9600 23.9430 0.4742
35.9800 23.9563 0.4641
36.0000 23.9696 0.4703
36.0200 23.9830 0.4683
36.0400 23.9963 0.4634
36.0600 24.0097 0.4722
36.0800 24.0230 0.4648
36.1000 24.0364 0.4619
36.1200 24.0498 0.4712
36.1400 24.0632 0.4623
36.1600 24.0765 0.4660
36.1800 24.0898 0.4706
36.2000 24.1031 0.4618
36.2200 24.1164 0.4661
36.2400 24.1297 0.4686
36.2600 24.1430 0.4590
36.2800 24.1563 0.4611
36.3000 24.1697 0.4610
36.3200 24.1830 0.4541
36.3400 24.1963 0.4616
36.3600 24.2097 0.4650
36.3800 24.2230 0.4533
36.4000 24.2364 0.4623
36.4200 24.2497 0.4629
36.4400 24.2631 0.4488
36.4600 24.2765 0.4626
36.4800 24.2898 0.4557
36.5000 24.3031 0.4501
36.5200 24.3164 0.4613
36.5400 24.3298 0.4545
36.5600 24.3431 0.4529
36.5800 24.3564 0.4573
36.6000 24.3697 0.4549
36.6200 24.3830 0.4518
36.6400 24.3964 0.4550
36.6600 24.4097 0.4512
36.6800 24.4230 0.4490
36.7000 24.4364 0.4556
36.7200 24.4497 0.4508
36.7400 24.4631 0.4542
36.7600 24.4764 0.4507
36.7800 24.4897 0.4511
36.8000 24.5031 0.4500
36.8200 24.5164 0.4505
36.8400 24.5298 0.4548
36.8600 24.5431 0.4500
36.8800 24.5564 0.4448
36.9000 24.5698 0.4514
36.9200 24.5831 0.4472
36.9400 24.5964 0.4478
36.9600 24.6097 0.4520
36.9800 24.6230 0.4444
37.0000 24.6364 0.4395
37.0200 24.6497 0.4504
37.0400 24.6630 0.4453
37.0600 24.6764 0.4438
37.0800 24.6897 0.4506
37.1000 24.7030 0.4428
37.1200 24.7164 0.4419
37.1400 24.7297 0.4493
37.1600 24.7430 0.4424
37.1800 24.7564 0.4464
37.2000 24.7698 0.4487
37.2200 24.7831 0.4403
37.2400 24.7964 0.4449
37.2600 24.8098 0.4492
37.2800 24.8231 0.4426
37.3000 24.8364 0.4449
37.3200 24.8497 0.4479
37.3400 24.8630 0.4415
37.3600 24.8764 0.4481
37.3800 24.8897 0.4453
37.4000 24.9031 0.4387
37.4200 24.9164 0.4464
37.4400 24.9297 0.4463
37.4600 24.9431 0.4372
37.4800 24.9564 0.4459
37.5000 24.9697 0.4447
37.5200 24.9830 0.4348
37.5400 24.9964 0.4398
37.5600 25.0098 0.4436
37.5800 25.0231 0.4363
37.6000 25.0364 0.4407
37.6200 25.0498 0.4407
37.6400 25.0631 0.4364
37.6600 25.0765 0.4356
37.6800 25.0898 0.4400
37.7000 25.1031 0.4364
37.7200 25.1164 0.4340
37.7400 25.1297 0.4380
37.7600 25.1430 0.4329
37.7800 25.1563 0.4365
37.8000 25.1696 0.4379
37.8200 25.1830 0.4329
37.8400 25.1964 0.4347
37.8600 25.2097 0.4361
37.8800 25.2231 0.4297
37.9000 25.2364 0.4349
37.9200 25.2498 0.4358
37.9400 25.2631 0.4263
37.9600 25.2764 0.4376
37.9800 25.2898 0.4363
38.0000 25.3031 0.4248
38.0200 25.3165 0.4370
38.0400 25.3298 0.4326
38.0600 25.3431 0.4294
38.0800 25.3564 0.4363
38.1000 25.3697 0.4271
38.1200 25.3831 0.4272
38.1400 25.3963 0.4393
38.1600 25.4097 0.4241
38.1800 25.4230 0.4291
38.2000 25.4363 0.4356
38.2200 25.4497 0.4237
38.2400 25.4630 0.4299
38.2600 25.4764 0.4323
38.2800 25.4898 0.4239
38.3000 25.5031 0.4267
38.3200 25.5164 0.4291
38.3400 25.5298 0.4246
38.3600 25.5431 0.4294
38.3800 25.5564 0.4286
38.4000 25.5697 0.4215
38.4200 25.5830 0.4301
38.4400 25.5963 0.4255
38.4600 25.6097 0.4222
38.4800 25.6230 0.4245
38.5000 25.6364 0.4265
38.5200 25.6497 0.4206
38.5400 25.6631 0.4242
38.5600 25.6764 0.4267
38.5800 25.6898 0.4189
38.6000 25.7031 0.4217
38.6200 25.7164 0.4220
38.6400 25.7298 0.4193
38.6600 25.7431 0.4172
38.6800 25.7564 0.4210
38.7000 25.7697 0.4198
38.7200 25.7831 0.4144
38.7400 25.7964 0.4191
38.7600 25.8098 0.4203
38.7800 25.8231 0.4130
38.8000 25.8364 0.4184
38.8200 25.8498 0.4205
38.8400 25.8631 0.4052
38.8600 25.8764 0.4177
38.8800 25.8897 0.4187
38.9000 25.9030 0.4043
38.9200 25.9164 0.4238
38.9400 25.9297 0.4133
38.9600 25.9430 0.4071
38.9800 25.9564 0.4181
39.0000 25.9697 0.4123
39.0200 25.9831 0.4077
39.0400 25.9964 0.4140
39.0600 26.0097 0.4111
39.0800 26.0231 0.4095
39.1000 26.0364 0.4145
39.1200 26.0497 0.4083
39.1400 26.0631 0.4116
39.1600 26.0764 0.4147
39.1800 26.0898 0.4083
39.2000 26.1031 0.4123
39.2200 26.1164 0.4134
39.2400 26.1297 0.4098
39.2600 26.1430 0.4123
39.2800 26.1563 0.4112
39.3000 26.1697 0.4126
39.3200 26.1830 0.4139
39.3400 26.1964 0.4118
39.3600 26.2098 0.4101
39.3800 26.2231 0.4080
39.4000 26.2365 0.4099
39.4200 26.2498 0.4124
39.4400 26.2631 0.4065
39.4600 26.2765 0.4083
39.4800 26.2898 0.4081
39.5000 26.3030 0.4068
39.5200 26.3164 0.4095
39.5400 26.3297 0.4092
39.5600 26.3431 0.4036
39.5800 26.3564 0.4082
39.6000 26.3697 0.4067
39.6200 26.3830 0.3988
39.6400 26.3964 0.4104
39.6600 26.4097 0.4074
39.6800 26.4231 0.3991
39.7000 26.4364 0.4084
39.7200 26.4498 0.4056
39.7400 26.4631 0.3965
39.7600 26.4764 0.4068
39.7800 26.4898 0.4074
39.8000 26.5031 0.3940
39.8200 26.5165 0.4087
39.8400 26.5298 0.4028
39.8600 26.5431 0.3928
39.8800 26.5564 0.4084
39.9000 26.5697 0.3964
39.9200 26.5830 0.3905
39.9400 26.5963 0.4084
39.9600 26.6096 0.3952
39.9800 26.6230 0.3897
40.0000 26.6363 0.4051
40.0200 26.6497 0.3938
40.0400 26.6630 0.3911
40.0600 26.6764 0.4059
40.0800 26.6898 0.3899
40.1000 26.7031 0.3905
40.1200 26.7164 0.4034
40.1400 26.7297 0.3856
40.1600 26.7431 0.3951
40.1800 26.7564 0.4003
40.2000 26.7698 0.3855
40.2200 26.7831 0.3939
40.2400 26.7964 0.3969
40.2600 26.8097 0.3854
40.2800 26.8231 0.3926
40.3000 26.8364 0.3988
40.3200 26.8497 0.3828
40.3400 26.8630 0.3944
40.3600 26.8764 0.3955
40.3800 26.8897 0.3814
40.4000 26.9030 0.3944
40.4200 26.9164 0.3939
40.4400 26.9298 0.3838
40.4600 26.9431 0.3904
40.4800 26.9564 0.3938
40.5000 26.9697 0.3823
40.5200 26.9831 0.3899
40.5400 26.9965 0.3924
40.5600 27.0098 0.3798
40.5800 27.0231 0.3882
40.6000 27.0364 0.3916
40.6200 27.0497 0.3793
40.6400 27.0631 0.3846
40.6600 27.0764 0.3889
40.6800 27.0897 0.3825
40.7000 27.1030 0.3827
40.7200 27.1164 0.3925
40.7400 27.1297 0.3782
40.7600 27.1431 0.3812
40.7800 27.1564 0.3906
40.8000 27.1697 0.3771
40.8200 27.1831 0.3804
40.8400 27.1964 0.3820
40.8600 27.2097 0.3779
40.8800 27.2230 0.3812
40.9000 27.2364 0.3830
40.9200 27.2498 0.3767
40.9400 27.2631 0.3769
40.9600 27.2764 0.3839
40.9800 27.2898 0.3754
41.0000 27.3031 0.3715
41.0200 27.3164 0.3812
41.0400 27.3297 0.3717
41.0600 27.3430 0.3739
41.0800 27.3563 0.3794
41.1000 27.3697 0.3736
41.1200 27.3830 0.3713
41.1400 27.3964 0.3762
41.1600 27.4098 0.3712
41.1800 27.4232 0.3656
41.2000 27.4365 0.3723
41.2200 27.4498 0.3728
41.2400 27.4631 0.3664
41.2600 27.4765 0.3688
41.2800 27.4898 0.3719
41.3000 27.5031 0.3677
41.3200 27.5164 0.3696
41.3400 27.5297 0.3748
41.3600 27.5431 0.3641
41.3800 27.5564 0.3718
41.4000 27.5696 0.3750
41.4200 27.5830 0.3642
41.4400 27.5963 0.3725
41.4600 27.6097 0.3677
41.4800 27.6230 0.3628
41.5000 27.6364 0.3791
41.5200 27.6498 0.3657
41.5400 27.6631 0.3614
41.5600 27.6765 0.3742
41.5800 27.6898 0.3689
41.6000 27.7031 0.3636
41.6200 27.7165 0.3727
41.6400 27.7298 0.3691
41.6600 27.7431 0.3641
41.6800 27.7564 0.3725
41.7000 27.7697 0.3700
41.7200 27.7830 0.3691
41.7400 27.7964 0.3689
41.7600 27.8097 0.3685
41.7800 27.8230 0.3672
41.8000 27.8364 0.3689
41.8200 27.8497 0.3722
41.8400 27.8631 0.3647
41.8600 27.8764 0.3698
41.8800 27.8898 0.3731
41.9000 27.9031 0.3584
41.9200 27.9165 0.3698
41.9400 27.9298 0.3699
41.9600 27.9431 0.3594
41.9800 27.9565 0.3678
42.0000 27.9698 0.3696
42.0200 27.9831 0.3558
42.0400 27.9964 0.3709
42.0600 28.0097 0.3648
42.0800 28.0231 0.3534
42.1000 28.0364 0.3693
42.1200 28.0497 0.3588
42.1400 28.0630 0.3528
42.1600 28.0763 0.3686
42.1800 28.0897 0.3572
42.2000 28.1030 0.3556
42.2200 28.1164 0.3668
42.2400 28.1298 0.3533
42.2600 28.1431 0.3564
42.2800 28.1565 0.3608
42.3000 28.1698 0.3542
42.3200 28.1831 0.3594
42.3400 28.1964 0.3580
42.3600 28.2098 0.3515
42.3800 28.2231 0.3605
42.4000 28.2364 0.3591
42.4200 28.2497 0.3523
42.4400 28.2631 0.3597
42.4600 28.2764 0.3502
42.4800 28.2897 0.3541
42.5000 28.3030 0.3537
42.5200 28.3164 0.3499
42.5400 28.3297 0.3576
42.5600 28.3430 0.3493
42.5800 28.3563 0.3538
42.6000 28.3697 0.3544
42.6200 28.3831 0.3483
42.6400 28.3964 0.3483
42.6600 28.4098 0.3525
42.6800 28.4231 0.3458
42.7000 28.4365 0.3500
42.7200 28.4498 0.3532
42.7400 28.4631 0.3445
42.7600 28.4764 0.3465
42.7800 28.4897 0.3546
42.8000 28.5031 0.3459
42.8200 28.5164 0.3483
42.8400 28.5297 0.3498
42.8600 28.5430 0.3461
42.8800 28.5564 0.3482
42.9000 28.5697 0.3474
42.9200 28.5830 0.3469
42.9400 28.5964 0.3490
42.9600 28.6097 0.3460
42.9800 28.6231 0.3453
43.0000 28.6364 0.3502
43.0200 28.6497 0.3409
43.0400 28.6631 0.3414
43.0600 28.6764 0.3500
43.0800 28.6898 0.3406
43.1000 28.7031 0.3453
43.1200 28.7164 0.3496
43.1400 28.7297 0.3414
43.1600 28.7431 0.3432
43.1800 28.7564 0.3471
43.2000 28.7697 0.3414
43.2200 28.7830 0.3438
43.2400 28.7963 0.3483
43.2600 28.8096 0.3383
43.2800 28.8230 0.3430
43.3000 28.8363 0.3442
43.3200 28.8497 0.3404
43.3400 28.8631 0.3423
43.3600 28.8765 0.3403
43.3800 28.8898 0.3427
43.4000 28.9032 0.3461
43.4200 28.9165 0.3397
43.4400 28.9298 0.3434
43.4600 28.9431 0.3425
43.4800 28.9564 0.3444
43.5000 28.9697 0.3395
43.5200 28.9830 0.3465
43.5400 28.9963 0.3435
43.5600 29.0097 0.3461
43.5800 29.0230 0.3441
43.6000 29.0364 0.3370
43.6200 29.0497 0.3449
43.6400 29.0631 0.3449
43.6600 29.0764 0.3395
43.6800 29.0898 0.3460
43.7000 29.1031 0.3431
43.7200 29.1165 0.3381
43.7400 29.1298 0.3447
43.7600 29.1431 0.3455
43.7800 29.1564 0.3369
43.8000 29.1698 0.3406
43.8200 29.1831 0.3437
43.8400 29.1964 0.3367
43.8600 29.2097 0.3424
43.8800 29.2231 0.3411
43.9000 29.2364 0.3324
43.9200 29.2497 0.3394
43.9400 29.2630 0.3445
43.9600 29.2763 0.3297
43.9800 29.2897 0.3366
44.0000 29.3030 0.3405
44.0200 29.3164 0.3300
44.0400 29.3297 0.3347
44.0600 29.3431 0.3396
44.0800 29.3564 0.3269
44.1000 29.3698 0.3336
44.1200 29.3831 0.3417
44.1400 29.3964 0.3241
44.1600 29.4098 0.3336
44.1800 29.4231 0.3393
44.2000 29.4364 0.3213
44.2200 29.4497 0.3292
44.2400 29.4631 0.3394
44.2600 29.4764 0.3242
44.2800 29.4897 0.3227
44.3000 29.5030 0.3380
44.3200 29.5163 0.3229
44.3400 29.5297 0.3200
44.3600 29.5430 0.3350
44.3800 29.5564 0.3183
44.4000 29.5697 0.3258
44.4200 29.5831 0.3359
44.4400 29.5964 0.3189
44.4600 29.6098 0.3173
44.4800 29.6231 0.3274
44.5000 29.6365 0.3218
44.5200 29.6498 0.3187
44.5400 29.6631 0.3250
44.5600 29.6764 0.3205
44.5800 29.6897 0.3179
44.6000 29.7031 0.3198
44.6200 29.7164 0.3187
44.6400 29.7297 0.3181
44.6600 29.7430 0.3191
44.6800 29.7563 0.3178
44.7000 29.7697 0.3186
44.7200 29.7831 0.3183
44.7400 29.7964 0.3154
44.7600 29.8097 0.3171
44.7800 29.8231 0.3155
44.8000 29.8364 0.3084
44.8200 29.8497 0.3118
44.8400 29.8631 0.3139
44.8600 29.8764 0.3125
44.8800 29.8898 0.3119
44.9000 29.9031 0.3100
44.9200 29.9164 0.3141
44.9400 29.9297 0.3063
44.9600 29.9431 0.3082
44.9800 29.9564 0.3088
45.0000 29.9697 0.3089
45.0200 29.9830 0.3068
45.0400 29.9963 0.3121
45.0600 30.0097 0.3047
45.0800 30.0230 0.3054
45.1000 30.0364 0.3090
45.1200 30.0497 0.3013
45.1400 30.0631 0.3077
45.1600 30.0765 0.3073
45.1800 30.0898 0.2978
45.2000 30.1031 0.3103
45.2200 30.1164 0.3061
45.2400 30.1298 0.2975
45.2600 30.1431 0.3112
45.2800 30.1564 0.3039
45.3000 30.1697 0.3016
45.3200 30.1830 0.3110
45.3400 30.1964 0.3018
45.3600 30.2097 0.2983
45.3800 30.2230 0.3096
45.4000 30.2363 0.3052
45.4200 30.2497 0.2958
45.4400 30.2630 0.3127
45.4600 30.2764 0.3029
45.4800 30.2897 0.2979
45.5000 30.3031 0.3108
45.5200 30.3165 0.2989
45.5400 30.3298 0.3019
45.5600 30.3431 0.3049
45.5800 30.3564 0.3056
45.6000 30.3698 0.3011
45.6200 30.3831 0.3081
45.6400 30.3964 0.3041
45.6600 30.4097 0.2993
45.6800 30.4230 0.3069
45.7000 30.4363 0.3019
45.7200 30.4497 0.2995
45.7400 30.4630 0.3010
45.7600 30.4764 0.3034
45.7800 30.4897 0.2989
45.8000 30.5031 0.2988
45.8200 30.5164 0.3050
45.8400 30.5297 0.2966
45.8600 30.5431 0.3025
45.8800 30.5564 0.2970
45.9000 30.5697 0.2929
45.9200 30.5831 0.3031
45.9400 30.5964 0.2987
45.9600 30.6097 0.2934
45.9800 30.6231 0.2990
46.0000 30.6364 0.2995
46.0200 30.6497 0.2910
46.0400 30.6631 0.2979
46.0600 30.6764 0.2995
46.0800 30.6897 0.2859
46.1000 30.7030 0.3009
46.1200 30.7164 0.2985
46.1400 30.7297 0.2848
46.1600 30.7431 0.3017
46.1800 30.7564 0.2956
46.2000 30.7697 0.2867
46.2200 30.7831 0.2997
46.2400 30.7964 0.2967
46.2600 30.8097 0.2861
46.2800 30.8231 0.3011
46.3000 30.8364 0.2955
46.3200 30.8498 0.2884
46.3400 30.8631 0.2973
46.3600 30.8764 0.2907
46.3800 30.8897 0.2915
46.4000 30.9031 0.2985
46.4200 30.9164 0.2865
46.4400 30.9298 0.2881
46.4600 30.9431 0.2936
46.4800 30.9563 0.2897
46.5000 30.9697 0.2853
46.5200 30.9830 0.2945
46.5400 30.9964 0.2877
46.5600 31.0097 0.2846
46.5800 31.0231 0.2929
46.6000 31.0365 0.2843
46.6200 31.0498 0.2838
46.6400 31.0631 0.2888
46.6600 31.0764 0.2861
46.6800 31.0898 0.2845
46.7000 31.1031 0.2926
46.7200 31.1164 0.2815
46.7400 31.1297 0.2794
46.7600 31.1431 0.2949
46.7800 31.1564 0.2809
46.8000 31.1697 0.2844
46.8200 31.1830 0.2929
46.8400 31.1964 0.2816
46.8600 31.2097 0.2849
46.8800 31.2231 0.2883
46.9000 31.2364 0.2841
46.9200 31.2497 0.2897
46.9400 31.2631 0.2832
46.9600 31.2764 0.2798
46.9800 31.2898 0.2894
47.0000 31.3031 0.2873
47.0200 31.3164 0.2811
47.0400 31.3298 0.2896
47.0600 31.3431 0.2836
47.0800 31.3564 0.2815
47.1000 31.3697 0.2888
47.1200 31.3831 0.2849
47.1400 31.3964 0.2859
47.1600 31.4097 0.2840
47.1800 31.4230 0.2825
47.2000 31.4363 0.2823
47.2200 31.4497 0.2875
47.2400 31.4630 0.2828
47.2600 31.4764 0.2834
47.2800 31.4897 0.2825
47.3000 31.5031 0.2850
47.3200 31.5164 0.2809
47.3400 31.5298 0.2847
47.3600 31.5431 0.2826
47.3800 31.5564 0.2777
47.4000 31.5698 0.2859
47.4200 31.5831 0.2790
47.4400 31.5964 0.2770
47.4600 31.6097 0.2885
47.4800 31.6230 0.2731
47.5000 31.6364 0.2738
47.5200 31.6497 0.2882
47.5400 31.6630 0.2785
47.5600 31.6764 0.2746
47.5800 31.6897 0.2902
47.6000 31.7031 0.2779
47.6200 31.7164 0.2729
47.6400 31.7297 0.2871
47.6600 31.7431 0.2736
47.6800 31.7565 0.2736
47.7000 31.7698 0.2843
47.7200 31.7831 0.2721
47.7400 31.7964 0.2761
47.7600 31.8098 0.2852
47.7800 31.8231 0.2709
47.8000 31.8364 0.2777
47.8200 31.8497 0.2789
47.8400 31.8630 0.2684
47.8600 31.8764 0.2746
47.8800 31.8897 0.2795
47.9000 31.9030 0.2683
47.9200 31.9164 0.2731
47.9400 31.9297 0.2754
47.9600 31.9431 0.2715
47.9800 31.9564 0.2748
48.0000 31.9697 0.2738
48.0200 31.9830 0.2752
48.0400 31.9964 0.2717
48.0600 32.0097 0.2693
48.0800 32.0230 0.2722
48.1000 32.0364 0.2718
48.1200 32.0497 0.2721
48.1400 32.0631 0.2676
48.1600 32.0764 0.2682
48.1800 32.0898 0.2724
48.2000 32.1031 0.2707
48.2200 32.1165 0.2621
48.2400 32.1298 0.2702
48.2600 32.1430 0.2702
48.2800 32.1563 0.2588
48.3000 32.1696 0.2729
48.3200 32.1830 0.2647
48.3400 32.1963 0.2583
48.3600 32.2097 0.2716
48.3800 32.2230 0.2623
48.4000 32.2364 0.2577
48.4200 32.2498 0.2675
48.4400 32.2631 0.2622
48.4600 32.2764 0.2540
48.4800 32.2898 0.2669
48.5000 32.3032 0.2585
48.5200 32.3165 0.2546
48.5400 32.3297 0.2674
48.5600 32.3430 0.2541
48.5800 32.3564 0.2581
48.6000 32.3697 0.2639
48.6200 32.3830 0.2551
48.6400 32.3963 0.2577
48.6600 32.4097 0.2628
48.6800 32.4230 0.2517
48.7000 32.4364 0.2570
48.7200 32.4497 0.2640
48.7400 32.4631 0.2515
48.7600 32.4764 0.2539
48.7800 32.4898 0.2609
48.8000 32.5031 0.2479
48.8200 32.5165 0.2560
48.8400 32.5298 0.2563
48.8600 32.5431 0.2493
48.8800 32.5564 0.2574
48.9000 32.5697 0.2555
48.9200 32.5830 0.2468
48.9400 32.5964 0.2580
48.9600 32.6097 0.2502
48.9800 32.6230 0.2464
49.0000 32.6363 0.2573
49.0200 32.6497 0.2488
49.0400 32.6630 0.2497
49.0600 32.6764 0.2509
49.0800 32.6897 0.2462
49.1000 32.7031 0.2538
49.1200 32.7164 0.2508
49.1400 32.7298 0.2459
49.1600 32.7431 0.2568
49.1800 32.7564 0.2506
49.2000 32.7698 0.2474
49.2200 32.7831 0.2518
49.2400 32.7964 0.2501
49.2600 32.8098 0.2493
49.2800 32.8231 0.2500
49.3000 32.8364 0.2481
49.3200 32.8497 0.2535
49.3400 32.8630 0.2518
49.3600 32.8763 0.2437
49.3800 32.8896 0.2550
49.4000 32.9030 0.2505
49.4200 32.9164 0.2373
49.4400 32.9297 0.2572
49.4600 32.9431 0.2473
49.4800 32.9565 0.2404
49.5000 32.9698 0.2496
49.5200 32.9831 0.2446
49.5400 32.9964 0.2405
49.5600 33.0098 0.2480
49.5800 33.0231 0.2435
49.6000 33.0364 0.2405
49.6200 33.0497 0.2500
49.6400 33.0630 0.2425
49.6600 33.0764 0.2384
49.6800 33.0897 0.2451
49.7000 33.1030 0.2409
49.7200 33.1163 0.2408
49.7400 33.1297 0.2454
49.7600 33.1430 0.2384
49.7800 33.1564 0.2370
49.8000 33.1697 0.2425
49.8200 33.1830 0.2374
49.8400 33.1964 0.2383
49.8600 33.2098 0.2417
49.8800 33.2231 0.2307
49.9000 33.2364 0.2351
49.9200 33.2498 0.2399
49.9400 33.2631 0.2296
49.9600 33.2765 0.2326
49.9800 33.2898 0.2348
50.0000 33.3031 0.2335
50.0200 33.3164 0.2322
50.0400 33.3298 0.2300
50.0600 33.3431 0.2334
50.0800 33.3564 0.2309
50.1000 33.3697 0.2339
50.1200 33.3830 0.2272
50.1400 33.3964 0.2268
50.1600 33.4097 0.2292
50.1800 33.4230 0.2267
50.2000 33.4364 0.2254
50.2200 33.4498 0.2271
50.2400 33.4631 0.2229
50.2600 33.4764 0.2269
50.2800 33.4897 0.2256
50.3000 33.5031 0.2207
50.3200 33.5164 0.2217
50.3400 33.5298 0.2274
50.3600 33.5431 0.2176
50.3800 33.5564 0.2188
50.4000 33.5698 0.2263
50.4200 33.5831 0.2144
50.4400 33.5963 0.2193
50.4600 33.6096 0.2260
50.4800 33.6230 0.2185
50.5000 33.6363 0.2164
50.5200 33.6497 0.2224
50.5400 33.6630 0.2165
50.5600 33.6764 0.2142
50.5800 33.6898 0.2214
50.6000 33.7032 0.2160
50.6200 33.7165 0.2161
50.6400 33.7298 0.2216
50.6600 33.7431 0.2133
50.6800 33.7564 0.2157
50.7000 33.7697 0.2230
50.7200 33.7830 0.2083
50.7400 33.7964 0.2152
50.7600 33.8097 0.2215
50.7800 33.8230 0.2082
50.8000 33.8363 0.2161
50.8200 33.8497 0.2185
50.8400 33.8631 0.2073
50.8600 33.8764 0.2157
50.8800 33.8897 0.2155
50.9000 33.9031 0.2108
50.9200 33.9164 0.2190
50.9400 33.9298 0.2120
50.9600 33.9431 0.2094
50.9800 33.9564 0.2189
51.0000 33.9697 0.2136
51.0200 33.9831 0.2131
51.0400 33.9964 0.2254
51.0600 34.0097 0.2081
51.0800 34.0230 0.2203
51.1000 34.0364 0.2200
51.1200 34.0497 0.2093
51.1400 34.0630 0.2190
51.1600 34.0763 0.2182
51.1800 34.0897 0.2126
51.2000 34.1030 0.2158
51.2200 34.1164 0.2202
51.2400 34.1297 0.2124
51.2600 34.1431 0.2186
51.2800 34.1564 0.2143
51.3000 34.1698 0.2123
51.3200 34.1831 0.2145
51.3400 34.1964 0.2139
51.3600 34.2097 0.2173
51.3800 34.2231 0.2123
51.4000 34.2365 0.2130
51.4200 34.2498 0.2171
51.4400 34.2631 0.2134
51.4600 34.2764 0.2135
51.4800 34.2898 0.2145
51.5000 34.3031 0.2106
51.5200 34.3163 0.2168
51.5400 34.3296 0.2088
51.5600 34.3430 0.2099
51.5800 34.3564 0.2164
51.6000 34.3697 0.2062
51.6200 34.3831 0.2083
51.6400 34.3964 0.2118
51.6600 34.4098 0.2068
51.6800 34.4231 0.2089
51.7000 34.4365 0.2079
51.7200 34.4498 0.2020
51.7400 34.4631 0.2124
51.7600 34.4764 0.2035
51.7800 34.4897 0.2032
51.8000 34.5030 0.2115
51.8200 34.5164 0.2080
51.8400 34.5297 0.2037
51.8600 34.5431 0.2070
51.8800 34.5564 0.2072
51.9000 34.5697 0.2002
51.9200 34.5830 0.2068
51.9400 34.5964 0.2065
51.9600 34.6097 0.1971
51.9800 34.6230 0.2086
52.0000 34.6364 0.2040
52.0200 34.6497 0.1949
52.0400 34.6631 0.2066
52.0600 34.6764 0.2035
52.0800 34.6898 0.1972
52.1000 34.7031 0.2075
52.1200 34.7165 0.1989
52.1400 34.7298 0.1951
52.1600 34.7431 0.2097
52.1800 34.7564 0.1978
52.2000 34.7697 0.1947
52.2200 34.7830 0.2106
52.2400 34.7963 0.2004
52.2600 34.8097 0.1976
52.2800 34.8230 0.2025
52.3000 34.8364 0.1975
52.3200 34.8497 0.1981
52.3400 34.8630 0.2007
52.3600 34.8764 0.1984
52.3800 34.8898 0.1980
52.4000 34.9031 0.2013
52.4200 34.9164 0.1965
52.4400 34.9297 0.1994
52.4600 34.9431 0.2017
52.4800 34.9565 0.1993
52.5000 34.9698 0.1933
52.5200 34.9831 0.2044
52.5400 34.9964 0.1989
52.5600 35.0097 0.1963
52.5800 35.0231 0.2024
52.6000 35.0364 0.1954
52.6200 35.0497 0.1937
52.6400 35.0630 0.1989
52.6600 35.0764 0.1917
52.6800 35.0897 0.1920
52.7000 35.1030 0.1971
52.7200 35.1164 0.1931
52.7400 35.1298 0.1879
52.7600 35.1431 0.1921
52.7800 35.1564 0.1937
52.8000 35.1698 0.1898
52.8200 35.1831 0.1935
52.8400 35.1964 0.1917
52.8600 35.2097 0.1869
52.8800 35.2230 0.1944
52.9000 35.2363 0.1925
52.9200 35.2497 0.1873
52.9400 35.2630 0.1925
52.9600 35.2764 0.1908
52.9800 35.2897 0.1836
53.0000 35.3031 0.1884
53.0200 35.3164 0.1884
53.0400 35.3298 0.1844
53.0600 35.3431 0.1840
53.0800 35.3564 0.1825
53.1000 35.3698 0.1840
53.1200 35.3831 0.1878
53.1400 35.3964 0.1827
53.1600 35.4097 0.1795
53.1800 35.4231 0.1847
53.2000 35.4364 0.1801
53.2200 35.4498 0.1821
53.2400 35.4631 0.1843
53.2600 35.4764 0.1818
53.2800 35.4898 0.1787
53.3000 35.5031 0.1836
53.3200 35.5164 0.1783
53.3400 35.5297 0.1800
53.3600 35.5430 0.1811
53.3800 35.5564 0.1759
53.4000 35.5697 0.1781
53.4200 35.5830 0.1811
53.4400 35.5964 0.1769
53.4600 35.6097 0.1748
53.4800 35.6231 0.1789
53.5000 35.6364 0.1768
53.5200 35.6497 0.1765
53.5400 35.6631 0.1806
53.5600 35.6765 0.1775
53.5800 35.6898 0.1716
53.6000 35.7031 0.1780
53.6200 35.7164 0.1800
53.6400 35.7298 0.1710
53.6600 35.7431 0.1753
53.6800 35.7564 0.1766
53.7000 35.7697 0.1731
53.7200 35.7830 0.1749
53.7400 35.7964 0.1720
53.7600 35.8097 0.1727
53.7800 35.8230 0.1677
53.8000 35.8364 0.1742
53.8200 35.8498 0.1680
53.8400 35.8631 0.1679
53.8600 35.8764 0.1737
53.8800 35.8898 0.1677
53.9000 35.9031 0.1680
53.9200 35.9165 0.1707
53.9400 35.9298 0.1624
53.9600 35.9431 0.1661
53.9800 35.9564 0.1706
54.0000 35.9697 0.1617
54.0200 35.9830 0.1627
54.0400 35.9963 0.1695
54.0600 36.0097 0.1574
54.0800 36.0230 0.1633
54.1000 36.0364 0.1686
54.1200 36.0497 0.1592
54.1400 36.0631 0.1631
54.1600 36.0764 0.1660
54.1800 36.0897 0.1551
54.2000 36.1031 0.1587
54.2200 36.1164 0.1677
54.2400 36.1298 0.1514
54.2600 36.1431 0.1576
54.2800 36.1565 0.1641
54.3000 36.1698 0.1487
54.3200 36.1831 0.1633
54.3400 36.1964 0.1650
54.3600 36.2097 0.1458
54.3800 36.2231 0.1595
54.4000 36.2364 0.1581
54.4200 36.2497 0.1489
54.4400 36.2630 0.1593
54.4600 36.2764 0.1536
54.4800 36.2897 0.1482
54.5000 36.3031 0.1600
54.5200 36.3164 0.1557
54.5400 36.3298 0.1460
54.5600 36.3431 0.1554
54.5800 36.3565 0.1522
54.6000 36.3698 0.1462
54.6200 36.3831 0.1557
54.6400 36.3964 0.1467
54.6600 36.4098 0.1504
54.6800 36.4231 0.1544
54.7000 36.4364 0.1487
54.7200 36.4497 0.1553
54.7400 36.4631 0.1469
54.7600 36.4764 0.1503
54.7800 36.4897 0.1520
54.8000 36.5030 0.1453
54.8200 36.5164 0.1536
54.8400 36.5297 0.1472
54.8600 36.5430 0.1519
54.8800 36.5564 0.1503
54.9000 36.5697 0.1500
54.9200 36.5831 0.1459
54.9400 36.5964 0.1534
54.9600 36.6098 0.1455
54.9800 36.6231 0.1434
55.0000 36.6365 0.1525
55.0200 36.6498 0.1411
55.0400 36.6631 0.1488
55.0600 36.6763 0.1555
55.0800 36.6897 0.1448
55.1000 36.7030 0.1448
55.1200 36.7163 0.1512
55.1400 36.7296 0.1456
55.1600 36.7430 0.1508
55.1800 36.7564 0.1532
55.2000 36.7697 0.1397
55.2200 36.7830 0.1520
55.2400 36.7964 0.1505
55.2600 36.8097 0.1435
55.2800 36.8231 0.1498
55.3000 36.8364 0.1445
55.3200 36.8497 0.1478
55.3400 36.8630 0.1493
55.3600 36.8764 0.1483
55.3800 36.8898 0.1436
55.4000 36.9031 0.1498
55.4200 36.9164 0.1457
55.4400 36.9298 0.1422
55.4600 36.9431 0.1473
55.4800 36.9564 0.1432
55.5000 36.9697 0.1426
55.5200 36.9830 0.1463
55.5400 36.9963 0.1382
55.5600 37.0097 0.1453
55.5800 37.0230 0.1441
55.6000 37.0364 0.1439
55.6200 37.0497 0.1390
55.6400 37.0631 0.1417
55.6600 37.0765 0.1387
55.6800 37.0898 0.1420
55.7000 37.1031 0.1436
55.7200 37.1165 0.1398
55.7400 37.1298 0.1362
55.7600 37.1431 0.1408
55.7800 37.1564 0.1399
55.8000 37.1697 0.1344
55.8200 37.1831 0.1403
55.8400 37.1964 0.1415
55.8600 37.2097 0.1312
55.8800 37.2230 0.1380
55.9000 37.2363 0.1453
55.9200 37.2497 0.1298
55.9400 37.2630 0.1326
55.9600 37.2764 0.1430
55.9800 37.2897 0.1291
56.0000 37.3031 0.1334
56.0200 37.3164 0.1408
56.0400 37.3298 0.1268
56.0600 37.3431 0.1346
56.0800 37.3565 0.1344
56.1000 37.3698 0.1232
56.1200 37.3831 0.1340
56.1400 37.3964 0.1331
56.1600 37.4097 0.1270
56.1800 37.4231 0.1336
56.2000 37.4364 0.1256
56.2200 37.4497 0.1278
56.2400 37.4630 0.1289
56.2600 37.4764 0.1242
56.2800 37.4897 0.1233
56.3000 37.5031 0.1275
56.3200 37.5164 0.1204
56.3400 37.5297 0.1193
56.3600 37.5431 0.1235
56.3800 37.5564 0.1197
56.4000 37.5697 0.1240
56.4200 37.5831 0.1248
56.4400 37.5964 0.1180
56.4600 37.6098 0.1223
56.4800 37.6231 0.1228
56.5000 37.6364 0.1208
56.5200 37.6497 0.1187
56.5400 37.6631 0.1199
56.5600 37.6764 0.1130
56.5800 37.6897 0.1166
56.6000 37.7030 0.1187
56.6200 37.7163 0.1113
56.6400 37.7297 0.1177
56.6600 37.7430 0.1147
56.6800 37.7564 0.1106
56.7000 37.7697 0.1168
56.7200 37.7831 0.1163
56.7400 37.7965 0.1050
56.7600 37.8098 0.1088
56.7800 37.8231 0.1158
56.8000 37.8364 0.1085
56.8200 37.8498 0.1070
56.8400 37.8631 0.1123
56.8600 37.8764 0.1070
56.8800 37.8897 0.1059
56.9000 37.9031 0.1095
56.9200 37.9164 0.1031
56.9400 37.9297 0.1069
56.9600 37.9430 0.1077
56.9800 37.9564 0.1024
57.0000 37.9697 0.1085
57.0200 37.9830 0.1061
57.0400 37.9964 0.0988
57.0600 38.0097 0.1032
57.0800 38.0231 0.1068
57.1000 38.0365 0.0927
57.1200 38.0498 0.1095
57.1400 38.0631 0.1029
57.1600 38.0765 0.0932
57.1800 38.0898 0.1036
57.2000 38.1031 0.1002
57.2200 38.1164 0.0988
57.2400 38.1297 0.1000
57.2600 38.1431 0.0983
57.2800 38.1564 0.0956
57.3000 38.1697 0.1019
57.3200 38.1830 0.0980
57.3400 38.1963 0.0942
57.3600 38.2097 0.1033
57.3800 38.2230 0.0943
57.4000 38.2364 0.0981
57.4200 38.2497 0.1023
57.4400 38.2631 0.0931
57.4600 38.2765 0.0988
57.4800 38.2898 0.1008
57.5000 38.3031 0.0971
57.5200 38.3164 0.0948
57.5400 38.3298 0.0977
57.5600 38.3431 0.1009
57.5800 38.3564 0.0941
57.6000 38.3697 0.0989
57.6200 38.3831 0.1019
57.6400 38.3964 0.0918
57.6600 38.4097 0.0989
57.6800 38.4230 0.1071
57.7000 38.4363 0.0940
57.7200 38.4497 0.0938
57.7400 38.4630 0.1065
57.7600 38.4763 0.0883
57.7800 38.4897 0.0985
57.8000 38.5031 0.1005
57.8200 38.5165 0.0805
57.8400 38.5298 0.0978
57.8600 38.5431 0.0946
57.8800 38.5565 0.0822
57.9000 38.5698 0.0986
57.9200 38.5831 0.0903
57.9400 38.5964 0.0846
57.9600 38.6097 0.0976
57.9800 38.6230 0.0873
58.0000 38.6364 0.0827
58.0200 38.6497 0.0925
58.0400 38.6630 0.0806
58.0600 38.6764 0.0853
58.0800 38.6897 0.0911
58.1000 38.7031 0.0802
58.1200 38.7164 0.0810
58.1400 38.7298 0.0896
58.1600 38.7431 0.0812
58.1800 38.7565 0.0816
58.2000 38.7698 0.0861
58.2200 38.7831 0.0816
58.2400 38.7964 0.0800
58.2600 38.8098 0.0803
58.2800 38.8231 0.0810
58.3000 38.8364 0.0786
58.3200 38.8497 0.0764
58.3400 38.8631 0.0781
58.3600 38.8764 0.0789
58.3800 38.8897 0.0722
58.4000 38.9030 0.0786
58.4200 38.9164 0.0733
58.4400 38.9297 0.0690
58.4600 38.9431 0.0760
58.4800 38.9564 0.0665
58.5000 38.9698 0.0684
58.5200 38.9831 0.0735
58.5400 38.9965 0.0592
58.5600 39.0098 0.0656
58.5800 39.0231 0.0708
58.6000 39.0364 0.0568
58.6200 39.0498 0.0658
58.6400 39.0631 0.0690
58.6600 39.0764 0.0572
58.6800 39.0897 0.0686
58.7000 39.1031 0.0661
58.7200 39.1164 0.0580
58.7400 39.1297 0.0663
58.7600 39.1430 0.0683
58.7800 39.1563 0.0564
58.8000 39.1697 0.0658
58.8200 39.1830 0.0617
58.8400 39.1964 0.0580
58.8600 39.2097 0.0638
58.8800 39.2231 0.0598
58.9000 39.2365 0.0572
58.9200 39.2498 0.0596
58.9400 39.2631 0.0636
58.9600 39.2764 0.0560
58.9800 39.2898 0.0637
59.0000 39.3031 0.0604
59.0200 39.3164 0.0546
59.0400 39.3297 0.0672
59.0600 39.3430 0.0592
59.0800 39.3564 0.0606
59.1000 39.3697 0.0641
59.1200 39.3830 0.0620
59.1400 39.3964 0.0565
59.1600 39.4097 0.0608
59.1800 39.4230 0.0624
59.2000 39.4363 0.0586
59.2200 39.4497 0.0588
59.2400 39.4630 0.0600
59.2600 39.4764 0.0604
59.2800 39.4898 0.0586
59.3000 39.5031 0.0673
59.3200 39.5164 0.0576
59.3400 39.5298 0.0560
59.3600 39.5431 0.0665
59.3800 39.5564 0.0581
59.4000 39.5697 0.0593
59.4200 39.5830 0.0640
59.4400 39.5964 0.0561
59.4600 39.6097 0.0573
59.4800 39.6230 0.0665
59.5000 39.6363 0.0552
59.5200 39.6497 0.0562
59.5400 39.6630 0.0638
59.5600 39.6764 0.0491
59.5800 39.6897 0.0594
59.6000 39.7031 0.0574
59.6200 39.7165 0.0494
59.6400 39.7298 0.0571
59.6600 39.7431 0.0516
59.6800 39.7564 0.0492
59.7000 39.7698 0.0538
59.7200 39.7831 0.0499
59.7400 39.7964 0.0449
59.7600 39.8097 0.0562
59.7800 39.8230 0.0483
59.8000 39.8364 0.0433
59.8200 39.8497 0.0487
59.8400 39.8630 0.0436
59.8600 39.8764 0.0427
59.8800 39.8897 0.0412
59.9000 39.9030 0.0405
59.9200 39.9164 0.0384
59.9400 39.9297 0.0407
59.9600 39.9431 0.0394
59.9800 39.9565 0.0288
60.0000 39.9698 0.0368
60.0200 39.9831 0.0325
60.0400 39.9964 0.0231
60.0460 40.0003 0.0094
