Raw Data
Time Displacement Force
(s) (mm) (N)
0.0000 0.0000 0.4232
0.0200 0.0001 0.4347
0.0400 0.0022 0.5029
0.0600 0.0100 0.5037
0.0800 0.0219 0.4181
0.1000 0.0344 0.4332
0.1200 0.0471 0.4597
0.1400 0.0605 0.4250
0.1600 0.0746 0.4304
0.1800 0.0888 0.4385
0.2000 0.1027 0.4211
0.2200 0.1163 0.4336
0.2400 0.1296 0.4415
0.2600 0.1429 0.4268
0.2800 0.1562 0.4420
0.3000 0.1696 0.4437
0.3200 0.1830 0.4282
0.3400 0.1964 0.4446
0.3600 0.2097 0.4431
0.3800 0.2230 0.4338
0.4000 0.2364 0.4402
0.4200 0.2497 0.4432
0.4400 0.2630 0.4409
0.4600 0.2763 0.4354
0.4800 0.2897 0.4471
0.5000 0.3030 0.4362
0.5200 0.3163 0.4325
0.5400 0.3296 0.4470
0.5600 0.3430 0.4380
0.5800 0.3563 0.4298
0.6000 0.3697 0.4440
0.6200 0.3830 0.4374
0.6400 0.3964 0.4303
0.6600 0.4098 0.4416
0.6800 0.4231 0.4358
0.7000 0.4364 0.4241
0.7200 0.4497 0.4426
0.7400 0.4631 0.4298
0.7600 0.4764 0.4282
0.7800 0.4898 0.4380
0.8000 0.5031 0.4253
0.8200 0.5164 0.4267
0.8400 0.5297 0.4347
0.8600 0.5430 0.4211
0.8800 0.5563 0.4264
0.9000 0.5696 0.4357
0.9200 0.5829 0.4190
0.9400 0.5963 0.4250
0.9600 0.6097 0.4335
0.9800 0.6230 0.4193
1.0000 0.6363 0.4258
1.0200 0.6497 0.4336
1.0400 0.6631 0.4129
1.0600 0.6764 0.4255
1.0800 0.6897 0.4299
1.1000 0.7031 0.4132
1.1200 0.7164 0.4200
1.1400 0.7297 0.4254
1.1600 0.7430 0.4139
1.1800 0.7563 0.4206
1.2000 0.7697 0.4238
1.2200 0.7830 0.4112
1.2400 0.7964 0.4158
1.2600 0.8097 0.4257
1.2800 0.8230 0.4121
1.3000 0.8363 0.4206
1.3200 0.8497 0.4204
1.3400 0.8630 0.4133
1.3600 0.8763 0.4180
1.3800 0.8897 0.4194
1.4000 0.9031 0.4146
1.4200 0.9164 0.4167
1.4400 0.9297 0.4190
1.4600 0.9431 0.4141
1.4800 0.9564 0.4146
1.5000 0.9698 0.4179
1.5200 0.9831 0.4071
1.5400 0.9964 0.4127
1.5600 1.0097 0.4161
1.5800 1.0230 0.4064
1.6000 1.0363 0.4084
1.6200 1.0496 0.4194
1.6400 1.0630 0.4061
1.6600 1.0763 0.4031
1.6800 1.0897 0.4164
1.7000 1.1030 0.4034
1.7200 1.1164 0.4072
1.7400 1.1297 0.4108
1.7600 1.1431 0.3978
1.7800 1.1565 0.4055
1.8000 1.1698 0.4126
1.8200 1.1831 0.3939
1.8400 1.1964 0.4053
1.8600 1.2098 0.4101
1.8800 1.2231 0.3950
1.9000 1.2364 0.4019
1.9200 1.2497 0.4098
1.9400 1.2631 0.3969
1.9600 1.2764 0.4039
1.9800 1.2897 0.4041
2.0000 1.3030 0.3986
2.0200 1.3163 0.4053
2.0400 1.3297 0.4052
2.0600 1.3430 0.3929
2.0800 1.3564 0.4000
2.1000 1.3697 0.4056
2.1200 1.3831 0.3922
2.1400 1.3965 0.3962
2.1600 1.4098 0.4003
2.1800 1.4231 0.3943
2.2000 1.4364 0.3937
2.2200 1.4497 0.3960
2.2400 1.4630 0.3932
2.2600 1.4763 0.3932
2.2800 1.4896 0.3957
2.3000 1.5030 0.3906
2.3200 1.5163 0.3883
2.3400 1.5296 0.3942
2.3600 1.5430 0.3942
2.3800 1.5564 0.3822
2.4000 1.5697 0.3882
2.4200 1.5831 0.3941
2.4400 1.5964 0.3792
2.4600 1.6097 0.3893
2.4800 1.6231 0.3879
2.5000 1.6364 0.3819
2.5200 1.6497 0.3859
2.5400 1.6630 0.3871
2.5600 1.6764 0.3800
2.5800 1.6898 0.3827
2.6000 1.7031 0.3822
2.6200 1.7164 0.3821
2.6400 1.7297 0.3836
2.6600 1.7431 0.3790
2.6800 1.7564 0.3778
2.7000 1.7697 0.3828
2.7200 1.7830 0.3777
2.7400 1.7963 0.3761
2.7600 1.8097 0.3793
2.7800 1.8230 0.3787
2.8000 1.8363 0.3756
2.8200 1.8497 0.3826
2.8400 1.8630 0.3731
2.8600 1.8764 0.3724
2.8800 1.8897 0.3779
2.9000 1.9031 0.3760
2.9200 1.9164 0.3705
2.9400 1.9298 0.3743
2.9600 1.9431 0.3771
2.9800 1.9564 0.3691
3.0000 1.9697 0.3705
3.0200 1.9831 0.3761
3.0400 1.9964 0.3712
3.0600 2.0097 0.3714
3.0800 2.0230 0.3720
3.1000 2.0363 0.3678
3.1200 2.0497 0.3697
3.1400 2.0630 0.3714
3.1600 2.0763 0.3650
3.1800 2.0897 0.3677
3.2000 2.1031 0.3667
3.2200 2.1164 0.3590
3.2400 2.1298 0.3730
3.2600 2.1431 0.3648
3.2800 2.1564 0.3559
3.3000 2.1698 0.3675
3.3200 2.1831 0.3596
3.3400 2.1964 0.3550
3.3600 2.2097 0.3693
3.3800 2.2230 0.3579
3.4000 2.2364 0.3564
3.4200 2.2497 0.3595
3.4400 2.2630 0.3576
3.4600 2.2763 0.3550
3.4800 2.2897 0.3571
3.5000 2.3030 0.3560
3.5200 2.3164 0.3539
3.5400 2.3297 0.3518
3.5600 2.3431 0.3518
3.5800 2.3564 0.3501
3.6000 2.3697 0.3449
3.6200 2.3831 0.3528
3.6400 2.3964 0.3508
3.6600 2.4098 0.3445
3.6800 2.4231 0.3469
3.7000 2.4364 0.3508
3.7200 2.4497 0.3448
3.7400 2.4630 0.3499
3.7600 2.4764 0.3488
3.7800 2.4897 0.3404
3.8000 2.5030 0.3516
3.8200 2.5163 0.3437
3.8400 2.5297 0.3378
3.8600 2.5430 0.3540
3.8800 2.5563 0.3401
3.9000 2.5697 0.3406
3.9200 2.5831 0.3476
3.9400 2.5965 0.3401
3.9600 2.6098 0.3356
3.9800 2.6231 0.3460
4.0000 2.6364 0.3350
4.0200 2.6498 0.3321
4.0400 2.6631 0.3475
4.0600 2.6764 0.3338
4.0800 2.6897 0.3296
4.1000 2.7030 0.3436
4.1200 2.7164 0.3358
4.1400 2.7297 0.3315
4.1600 2.7430 0.3404
4.1800 2.7563 0.3386
4.2000 2.7697 0.3310
4.2200 2.7830 0.3374
4.2400 2.7963 0.3378
4.2600 2.8097 0.3365
4.2800 2.8231 0.3364
4.3000 2.8364 0.3338
4.3200 2.8498 0.3285
4.3400 2.8631 0.3435
4.3600 2.8764 0.3335
4.3800 2.8898 0.3286
4.4000 2.9031 0.3398
4.4200 2.9164 0.3317
4.4400 2.9297 0.3327
4.4600 2.9430 0.3365
4.4800 2.9564 0.3303
4.5000 2.9697 0.3272
4.5200 2.9830 0.3368
4.5400 2.9963 0.3308
4.5600 3.0097 0.3295
4.5800 3.0230 0.3322
4.6000 3.0363 0.3278
4.6200 3.0497 0.3272
4.6400 3.0630 0.3351
4.6600 3.0764 0.3284
4.6800 3.0897 0.3268
4.7000 3.1030 0.3289
4.7200 3.1164 0.3264
4.7400 3.1298 0.3253
4.7600 3.1431 0.3311
4.7800 3.1564 0.3214
4.8000 3.1697 0.3249
4.8200 3.1831 0.3231
4.8400 3.1964 0.3228
4.8600 3.2097 0.3196
4.8800 3.2230 0.3246
4.9000 3.2363 0.3206
4.9200 3.2496 0.3140
4.9400 3.2630 0.3224
4.9600 3.2763 0.3207
4.9800 3.2897 0.3138
5.0000 3.3031 0.3172
5.0200 3.3165 0.3193
5.0400 3.3298 0.3120
5.0600 3.3431 0.3152
5.0800 3.3564 0.3144
5.1000 3.3698 0.3067
5.1200 3.3831 0.3189
5.1400 3.3964 0.3136
5.1600 3.4097 0.3078
5.1800 3.4230 0.3244
5.2000 3.4364 0.3174
5.2200 3.4497 0.3072
5.2400 3.4630 0.3137
5.2600 3.4763 0.3185
5.2800 3.4897 0.3070
5.3000 3.5030 0.3134
5.3200 3.5163 0.3143
5.3400 3.5297 0.3034
5.3600 3.5431 0.3141
5.3800 3.5564 0.3079
5.4000 3.5698 0.3000
5.4200 3.5831 0.3178
5.4400 3.5964 0.3103
5.4600 3.6098 0.2955
5.4800 3.6231 0.3108
5.5000 3.6364 0.3080
5.5200 3.6497 0.2923
5.5400 3.6630 0.3103
5.5600 3.6764 0.2991
5.5800 3.6897 0.2908
5.6000 3.7030 0.3091
5.6200 3.7163 0.3001
5.6400 3.7297 0.2919
5.6600 3.7430 0.3045
5.6800 3.7564 0.2921
5.7000 3.7697 0.2931
5.7200 3.7830 0.3036
5.7400 3.7964 0.2904
5.7600 3.8097 0.2962
5.7800 3.8231 0.2997
5.8000 3.8364 0.2917
5.8200 3.8498 0.2966
5.8400 3.8631 0.2989
5.8600 3.8764 0.2936
5.8800 3.8897 0.2976
5.9000 3.9031 0.2949
5.9200 3.9164 0.2922
5.9400 3.9297 0.2979
5.9600 3.9430 0.2912
5.9800 3.9563 0.2952
6.0000 3.9697 0.2923
6.0200 3.9830 0.2906
6.0400 3.9964 0.2984
6.0600 4.0097 0.2897
6.0800 4.0231 0.2906
6.1000 4.0364 0.2957
6.1200 4.0498 0.2902
6.1400 4.0631 0.2890
6.1600 4.0764 0.2934
6.1800 4.0898 0.2848
6.2000 4.1031 0.2908
6.2200 4.1164 0.2927
6.2400 4.1297 0.2819
6.2600 4.1430 0.2920
6.2800 4.1564 0.2885
6.3000 4.1697 0.2812
6.3200 4.1830 0.2933
6.3400 4.1963 0.2890
6.3600 4.2097 0.2848
6.3800 4.2230 0.2903
6.4000 4.2363 0.2859
6.4200 4.2497 0.2834
6.4400 4.2630 0.2893
6.4600 4.2764 0.2794
6.4800 4.2897 0.2825
6.5000 4.3031 0.2895
6.5200 4.3164 0.2779
6.5400 4.3298 0.2780
6.5600 4.3431 0.2874
6.5800 4.3564 0.2765
6.6000 4.3697 0.2834
6.6200 4.3830 0.2845
6.6400 4.3964 0.2725
6.6600 4.4097 0.2775
6.6800 4.4230 0.2711
6.7000 4.4363 0.2768
6.7200 4.4497 0.2772
6.7400 4.4630 0.2737
6.7600 4.4763 0.2751
6.7800 4.4897 0.2738
6.8000 4.5030 0.2695
6.8200 4.5164 0.2758
6.8400 4.5297 0.2736
6.8600 4.5430 0.2649
6.8800 4.5564 0.2724
6.9000 4.5697 0.2732
6.9200 4.5831 0.2645
6.9400 4.5964 0.2700
6.9600 4.6097 0.2664
6.9800 4.6230 0.2666
7.0000 4.6364 0.2687
7.0200 4.6497 0.2650
7.0400 4.6630 0.2672
7.0600 4.6763 0.2679
7.0800 4.6896 0.2705
7.1000 4.7030 0.2617
7.1200 4.7163 0.2671
7.1400 4.7296 0.2652
7.1600 4.7430 0.2630
7.1800 4.7564 0.2618
7.2000 4.7698 0.2626
7.2200 4.7831 0.2594
7.2400 4.7965 0.2609
7.2600 4.8098 0.2630
7.2800 4.8231 0.2606
7.3000 4.8364 0.2581
7.3200 4.8497 0.2612
7.3400 4.8630 0.2609
7.3600 4.8763 0.2560
7.3800 4.8897 0.2565
7.4000 4.9030 0.2576
7.4200 4.9163 0.2504
7.4400 4.9297 0.2589
7.4600 4.9431 0.2518
7.4800 4.9564 0.2502
7.5000 4.9697 0.2578
7.5200 4.9831 0.2499
7.5400 4.9964 0.2488
7.5600 5.0098 0.2540
7.5800 5.0231 0.2463
7.6000 5.0364 0.2488
7.6200 5.0498 0.2575
7.6400 5.0631 0.2504
7.6600 5.0764 0.2448
7.6800 5.0897 0.2568
7.7000 5.1030 0.2490
7.7200 5.1164 0.2472
7.7400 5.1297 0.2543
7.7600 5.1430 0.2452
7.7800 5.1563 0.2517
7.8000 5.1696 0.2555
7.8200 5.1830 0.2423
7.8400 5.1964 0.2495
7.8600 5.2097 0.2553
7.8800 5.2230 0.2495
7.9000 5.2364 0.2475
7.9200 5.2498 0.2549
7.9400 5.2631 0.2452
7.9600 5.2764 0.2497
7.9800 5.2897 0.2567
8.0000 5.3031 0.2447
8.0200 5.3164 0.2514
8.0400 5.3297 0.2518
8.0600 5.3430 0.2468
8.0800 5.3564 0.2501
8.1000 5.3697 0.2536
8.1200 5.3830 0.2463
8.1400 5.3963 0.2493
8.1600 5.4096 0.2532
8.1800 5.4230 0.2463
8.2000 5.4363 0.2449
8.2200 5.4497 0.2491
8.2400 5.4630 0.2454
8.2600 5.4764 0.2452
8.2800 5.4898 0.2458
8.3000 5.5031 0.2419
8.3200 5.5164 0.2443
8.3400 5.5297 0.2471
8.3600 5.5431 0.2417
8.3800 5.5564 0.2418
8.4000 5.5697 0.2436
8.4200 5.5830 0.2423
8.4400 5.5964 0.2384
8.4600 5.6097 0.2464
8.4800 5.6230 0.2401
8.5000 5.6363 0.2362
8.5200 5.6497 0.2404
8.5400 5.6630 0.2363
8.5600 5.6764 0.2302
8.5800 5.6897 0.2414
8.6000 5.7030 0.2375
8.6200 5.7164 0.2260
8.6400 5.7298 0.2398
8.6600 5.7431 0.2298
8.6800 5.7564 0.2272
8.7000 5.7697 0.2409
8.7200 5.7831 0.2275
8.7400 5.7964 0.2281
8.7600 5.8097 0.2344
8.7800 5.8230 0.2293
8.8000 5.8364 0.2263
8.8200 5.8497 0.2359
8.8400 5.8630 0.2271
8.8600 5.8763 0.2268
8.8800 5.8896 0.2353
8.9000 5.9030 0.2273
8.9200 5.9164 0.2288
8.9400 5.9297 0.2332
8.9600 5.9431 0.2231
8.9800 5.9564 0.2267
9.0000 5.9698 0.2287
9.0200 5.9831 0.2214
9.0400 5.9964 0.2270
9.0600 6.0097 0.2282
9.0800 6.0231 0.2199
9.1000 6.0364 0.2253
9.1200 6.0497 0.2272
9.1400 6.0630 0.2196
9.1600 6.0763 0.2268
9.1800 6.0897 0.2218
9.2000 6.1030 0.2234
9.2200 6.1163 0.2278
9.2400 6.1296 0.2172
9.2600 6.1430 0.2254
9.2800 6.1563 0.2250
9.3000 6.1697 0.2166
9.3200 6.1830 0.2246
9.3400 6.1964 0.2242
9.3600 6.2098 0.2159
9.3800 6.2231 0.2228
9.4000 6.2364 0.2224
9.4200 6.2497 0.2172
9.4400 6.2631 0.2274
9.4600 6.2764 0.2186
9.4800 6.2897 0.2125
9.5000 6.3030 0.2305
9.5200 6.3163 0.2111
9.5400 6.3297 0.2144
9.5600 6.3430 0.2262
9.5800 6.3563 0.2083
9.6000 6.3697 0.2179
9.6200 6.3830 0.2208
9.6400 6.3964 0.2071
9.6600 6.4097 0.2189
9.6800 6.4231 0.2192
9.7000 6.4364 0.2085
9.7200 6.4498 0.2208
9.7400 6.4631 0.2139
9.7600 6.4764 0.2044
9.7800 6.4897 0.2185
9.8000 6.5031 0.2075
9.8200 6.5164 0.2110
9.8400 6.5297 0.2161
9.8600 6.5431 0.2043
9.8800 6.5564 0.2062
9.9000 6.5698 0.2115
9.9200 6.5831 0.2011
9.9400 6.5964 0.2106
9.9600 6.6097 0.2087
9.9800 6.6230 0.1983
10.0000 6.6363 0.2059
10.0200 6.6497 0.2041
10.0400 6.6630 0.1976
10.0600 6.6764 0.2072
10.0800 6.6897 0.2041
10.1000 6.7031 0.1980
10.1200 6.7164 0.2034
10.1400 6.7297 0.2012
10.1600 6.7431 0.2025
10.1800 6.7564 0.1990
10.2000 6.7697 0.2015
10.2200 6.7830 0.2013
10.2400 6.7964 0.1969
10.2600 6.8097 0.1998
10.2800 6.8230 0.2027
10.3000 6.8363 0.1949
10.3200 6.8497 0.1978
10.3400 6.8630 0.1988
10.3600 6.8764 0.1909
10.3800 6.8897 0.1971
10.4000 6.9030 0.2016
10.4200 6.9164 0.1931
10.4400 6.9298 0.2013
10.4600 6.9431 0.1944
10.4800 6.9564 0.1937
10.5000 6.9697 0.1955
10.5200 6.9831 0.1906
10.5400 6.9964 0.1933
10.5600 7.0097 0.1952
10.5800 7.0230 0.1918
10.6000 7.0363 0.1921
10.6200 7.0497 0.1945
10.6400 7.0630 0.1915
10.6600 7.0763 0.1904
10.6800 7.0897 0.1992
10.7000 7.1030 0.1857
10.7200 7.1164 0.1926
10.7400 7.1297 0.1925
10.7600 7.1430 0.1862
10.7800 7.1564 0.1925
10.8000 7.1697 0.1893
10.8200 7.1831 0.1875
10.8400 7.1964 0.1889
10.8600 7.2097 0.1915
10.8800 7.2231 0.1883
10.9000 7.2365 0.1884
10.9200 7.2498 0.1828
10.9400 7.2630 0.1891
10.9600 7.2764 0.1925
10.9800 7.2897 0.1825
11.0000 7.3030 0.1873
11.0200 7.3163 0.1915
11.0400 7.3296 0.1824
11.0600 7.3430 0.1863
11.0800 7.3563 0.1864
11.1000 7.3697 0.1779
11.1200 7.3830 0.1844
11.1400 7.3964 0.1886
11.1600 7.4098 0.1807
11.1800 7.4231 0.1826
11.2000 7.4364 0.1859
11.2200 7.4497 0.1795
11.2400 7.4631 0.1844
11.2600 7.4764 0.1822
11.2800 7.4897 0.1773
11.3000 7.5031 0.1846
11.3200 7.5164 0.1782
11.3400 7.5297 0.1764
11.3600 7.5431 0.1821
11.3800 7.5564 0.1781
11.4000 7.5697 0.1756
11.4200 7.5830 0.1758
11.4400 7.5964 0.1772
11.4600 7.6097 0.1741
11.4800 7.6230 0.1733
11.5000 7.6364 0.1763
11.5200 7.6498 0.1679
11.5400 7.6631 0.1712
11.5600 7.6764 0.1748
11.5800 7.6897 0.1678
11.6000 7.7031 0.1718
11.6200 7.7164 0.1736
11.6400 7.7297 0.1660
11.6600 7.7430 0.1653
11.6800 7.7563 0.1761
11.7000 7.7697 0.1658
11.7200 7.7830 0.1665
11.7400 7.7963 0.1743
11.7600 7.8096 0.1624
11.7800 7.8230 0.1615
11.8000 7.8363 0.1756
11.8200 7.8497 0.1634
11.8400 7.8630 0.1629
11.8600 7.8763 0.1753
11.8800 7.8897 0.1627
11.9000 7.9030 0.1580
11.9200 7.9164 0.1754
11.9400 7.9297 0.1598
11.9600 7.9431 0.1637
11.9800 7.9564 0.1703
12.0000 7.9697 0.1585
12.0200 7.9831 0.1602
12.0400 7.9964 0.1752
12.0600 8.0098 0.1587
12.0800 8.0231 0.1586
12.1000 8.0364 0.1748
12.1200 8.0496 0.1578
12.1400 8.0630 0.1620
12.1600 8.0763 0.1721
12.1800 8.0896 0.1527
12.2000 8.1030 0.1648
12.2200 8.1164 0.1732
12.2400 8.1298 0.1469
12.2600 8.1431 0.1623
12.2800 8.1565 0.1739
12.3000 8.1698 0.1494
12.3200 8.1831 0.1620
12.3400 8.1965 0.1662
12.3600 8.2098 0.1491
12.3800 8.2230 0.1628
12.4000 8.2363 0.1669
12.4200 8.2497 0.1509
12.4400 8.2630 0.1634
12.4600 8.2763 0.1658
12.4800 8.2896 0.1463
12.5000 8.3030 0.1677
12.5200 8.3163 0.1598
12.5400 8.3297 0.1459
12.5600 8.3430 0.1600
12.5800 8.3564 0.1608
12.6000 8.3697 0.1479
12.6200 8.3831 0.1589
12.6400 8.3965 0.1573
12.6600 8.4098 0.1508
12.6800 8.4231 0.1583
12.7000 8.4365 0.1540
12.7200 8.4498 0.1485
12.7400 8.4630 0.1580
12.7600 8.4763 0.1516
12.7800 8.4897 0.1487
12.8000 8.5030 0.1534
12.8200 8.5163 0.1519
12.8400 8.5296 0.1457
12.8600 8.5430 0.1526
12.8800 8.5564 0.1500
12.9000 8.5697 0.1442
12.9200 8.5830 0.1521
12.9400 8.5964 0.1533
12.9600 8.6097 0.1418
12.9800 8.6231 0.1505
13.0000 8.6364 0.1501
13.0200 8.6497 0.1429
13.0400 8.6631 0.1492
13.0600 8.6765 0.1475
13.0800 8.6898 0.1440
13.1000 8.7031 0.1476
13.1200 8.7164 0.1492
13.1400 8.7297 0.1454
13.1600 8.7431 0.1454
13.1800 8.7563 0.1525
13.2000 8.7696 0.1406
13.2200 8.7830 0.1472
13.2400 8.7964 0.1497
13.2600 8.8097 0.1380
13.2800 8.8230 0.1508
13.3000 8.8364 0.1464
13.3200 8.8498 0.1446
13.3400 8.8631 0.1409
13.3600 8.8764 0.1491
13.3800 8.8898 0.1409
13.4000 8.9031 0.1421
13.4200 8.9164 0.1464
13.4400 8.9297 0.1356
13.4600 8.9430 0.1431
13.4800 8.9563 0.1473
13.5000 8.9697 0.1373
13.5200 8.9831 0.1385
13.5400 8.9964 0.1442
13.5600 9.0097 0.1385
13.5800 9.0230 0.1397
13.6000 9.0363 0.1426
13.6200 9.0497 0.1307
13.6400 9.0630 0.1402
13.6600 9.0763 0.1401
13.6800 9.0897 0.1310
13.7000 9.1031 0.1390
13.7200 9.1164 0.1356
13.7400 9.1297 0.1287
13.7600 9.1431 0.1363
13.7800 9.1565 0.1346
13.8000 9.1698 0.1302
13.8200 9.1831 0.1373
13.8400 9.1964 0.1289
13.8600 9.2097 0.1331
13.8800 9.2230 0.1362
13.9000 9.2363 0.1291
13.9200 9.2497 0.1383
13.9400 9.2630 0.1302
13.9600 9.2763 0.1272
13.9800 9.2897 0.1374
14.0000 9.3030 0.1248
14.0200 9.3163 0.1308
14.0400 9.3297 0.1339
14.0600 9.3431 0.1258
14.0800 9.3564 0.1288
14.1000 9.3697 0.1339
14.1200 9.3831 0.1266
14.1400 9.3964 0.1281
14.1600 9.4097 0.1306
14.1800 9.4231 0.1234
14.2000 9.4364 0.1293
14.2200 9.4497 0.1324
14.2400 9.4631 0.1192
14.2600 9.4764 0.1311
14.2800 9.4896 0.1217
14.3000 9.5029 0.1223
14.3200 9.5163 0.1296
14.3400 9.5296 0.1174
14.3600 9.5430 0.1226
14.3800 9.5563 0.1275
14.4000 9.5697 0.1189
14.4200 9.5831 0.1201
14.4400 9.5965 0.1229
14.4600 9.6098 0.1214
14.4800 9.6231 0.1227
14.5000 9.6365 0.1220
14.5200 9.6498 0.1165
14.5400 9.6630 0.1214
14.5600 9.6763 0.1216
14.5800 9.6896 0.1169
14.6000 9.7030 0.1191
14.6200 9.7163 0.1165
14.6400 9.7297 0.1183
14.6600 9.7430 0.1159
14.6800 9.7564 0.1169
14.7000 9.7697 0.1179
14.7200 9.7831 0.1170
14.7400 9.7964 0.1117
14.7600 9.8098 0.1177
14.7800 9.8231 0.1132
14.8000 9.8365 0.1111
14.8200 9.8498 0.1166
14.8400 9.8631 0.1147
14.8600 9.8764 0.1138
14.8800 9.8897 0.1178
14.9000 9.9030 0.1103
14.9200 9.9163 0.1125
14.9400 9.9297 0.1130
14.9600 9.9430 0.1125
14.9800 9.9564 0.1075
15.0000 9.9697 0.1112
15.0200 9.9830 0.1130
15.0400 9.9963 0.1122
15.0600 10.0097 0.1107
15.0800 10.0230 0.1105
15.1000 10.0364 0.1123
15.1200 10.0497 0.1127
15.1400 10.0631 0.1104
15.1600 10.0764 0.1084
15.1800 10.0897 0.1110
15.2000 10.1031 0.1127
15.2200 10.1164 0.1090
15.2400 10.1298 0.1078
15.2600 10.1431 0.1120
15.2800 10.1564 0.1042
15.3000 10.1697 0.1133
15.3200 10.1831 0.1116
15.3400 10.1964 0.1018
15.3600 10.2096 0.1133
15.3800 10.2230 0.1108
15.4000 10.2363 0.0987
15.4200 10.2497 0.1113
15.4400 10.2630 0.1113
15.4600 10.2764 0.0999
15.4800 10.2897 0.1103
15.5000 10.3031 0.1079
15.5200 10.3164 0.0957
15.5400 10.3298 0.1092
15.5600 10.3431 0.1017
15.5800 10.3564 0.0931
15.6000 10.3698 0.1099
15.6200 10.3831 0.1015
15.6400 10.3964 0.0976
15.6600 10.4097 0.1072
15.6800 10.4230 0.0967
15.7000 10.4364 0.0966
15.7200 10.4497 0.1030
15.7400 10.4630 0.0976
15.7600 10.4763 0.0948
15.7800 10.4897 0.0954
15.8000 10.5030 0.0965
15.8200 10.5163 0.0965
15.8400 10.5297 0.0958
15.8600 10.5431 0.0966
15.8800 10.5564 0.0918
15.9000 10.5697 0.0875
15.9200 10.5831 0.1023
15.9400 10.5964 0.0881
15.9600 10.6098 0.0906
15.9800 10.6231 0.1026
16.0000 10.6364 0.0867
16.0200 10.6497 0.0945
16.0400 10.6630 0.1003
16.0600 10.6763 0.0836
16.0800 10.6897 0.0940
16.1000 10.7030 0.0982
16.1200 10.7163 0.0826
16.1400 10.7297 0.0916
16.1600 10.7430 0.0989
16.1800 10.7564 0.0816
16.2000 10.7697 0.0961
16.2200 10.7831 0.0949
16.2400 10.7964 0.0816
16.2600 10.8097 0.0940
16.2800 10.8230 0.0915
16.3000 10.8364 0.0797
16.3200 10.8498 0.0905
16.3400 10.8631 0.0849
16.3600 10.8764 0.0839
16.3800 10.8897 0.0938
16.4000 10.9031 0.0845
16.4200 10.9164 0.0821
16.4400 10.9297 0.0890
16.4600 10.9430 0.0835
16.4800 10.9563 0.0809
16.5000 10.9697 0.0844
16.5200 10.9830 0.0834
16.5400 10.9963 0.0780
16.5600 11.0097 0.0819
16.5800 11.0231 0.0820
16.6000 11.0364 0.0771
16.6200 11.0498 0.0870
16.6400 11.0631 0.0801
16.6600 11.0764 0.0759
16.6800 11.0898 0.0867
16.7000 11.1030 0.0825
16.7200 11.1163 0.0741
16.7400 11.1296 0.0814
16.7600 11.1430 0.0847
16.7800 11.1563 0.0758
16.8000 11.1697 0.0793
16.8200 11.1830 0.0851
16.8400 11.1964 0.0734
16.8600 11.2097 0.0770
16.8800 11.2231 0.0786
16.9000 11.2364 0.0758
16.9200 11.2497 0.0753
16.9400 11.2631 0.0732
16.9600 11.2764 0.0750
16.9800 11.2897 0.0803
17.0000 11.3030 0.0749
17.0200 11.3164 0.0765
17.0400 11.3297 0.0708
17.0600 11.3431 0.0718
17.0800 11.3564 0.0727
17.1000 11.3697 0.0719
17.1200 11.3831 0.0740
17.1400 11.3964 0.0706
17.1600 11.4097 0.0706
17.1800 11.4230 0.0703
17.2000 11.4363 0.0719
17.2200 11.4497 0.0656
17.2400 11.4630 0.0728
17.2600 11.4763 0.0694
17.2800 11.4897 0.0683
17.3000 11.5030 0.0754
17.3200 11.5164 0.0687
17.3400 11.5297 0.0640
17.3600 11.5430 0.0760
17.3800 11.5564 0.0683
17.4000 11.5698 0.0627
17.4200 11.5831 0.0733
17.4400 11.5964 0.0677
17.4600 11.6097 0.0647
17.4800 11.6231 0.0695
17.5000 11.6364 0.0654
17.5200 11.6497 0.0685
17.5400 11.6630 0.0706
17.5600 11.6763 0.0637
17.5800 11.6897 0.0641
17.6000 11.7030 0.0651
17.6200 11.7163 0.0631
17.6400 11.7297 0.0653
17.6600 11.7431 0.0616
17.6800 11.7564 0.0641
17.7000 11.7698 0.0616
17.7200 11.7831 0.0599
17.7400 11.7964 0.0641
17.7600 11.8098 0.0591
17.7800 11.8231 0.0615
17.8000 11.8364 0.0651
17.8200 11.8497 0.0595
17.8400 11.8630 0.0641
17.8600 11.8764 0.0611
17.8800 11.8897 0.0580
17.9000 11.9030 0.0667
17.9200 11.9163 0.0562
17.9400 11.9297 0.0636
17.9600 11.9431 0.0634
17.9800 11.9564 0.0480
18.0000 11.9697 0.0618
18.0200 11.9831 0.0595
18.0400 11.9964 0.0475
18.0600 12.0097 0.0617
18.0800 12.0231 0.0539
18.1000 12.0364 0.0502
18.1200 12.0498 0.0584
18.1400 12.0631 0.0563
18.1600 12.0764 0.0517
18.1800 12.0897 0.0579
18.2000 12.1031 0.0538
18.2200 12.1164 0.0519
18.2400 12.1297 0.0526
18.2600 12.1430 0.0537
18.2800 12.1563 0.0573
18.3000 12.1697 0.0496
18.3200 12.1830 0.0523
18.3400 12.1964 0.0563
18.3600 12.2097 0.0507
18.3800 12.2231 0.0530
18.4000 12.2365 0.0523
18.4200 12.2498 0.0447
18.4400 12.2631 0.0538
18.4600 12.2764 0.0580
18.4800 12.2897 0.0417
18.5000 12.3031 0.0520
18.5200 12.3164 0.0528
18.5400 12.3297 0.0435
18.5600 12.3430 0.0549
18.5800 12.3564 0.0531
18.6000 12.3697 0.0461
18.6200 12.3830 0.0518
18.6400 12.3964 0.0476
18.6600 12.4097 0.0444
18.6800 12.4230 0.0545
18.7000 12.4363 0.0459
18.7200 12.4497 0.0436
18.7400 12.4631 0.0480
18.7600 12.4764 0.0457
18.7800 12.4897 0.0450
18.8000 12.5031 0.0451
18.8200 12.5164 0.0433
18.8400 12.5298 0.0493
18.8600 12.5431 0.0396
18.8800 12.5564 0.0467
18.9000 12.5697 0.0488
18.9200 12.5830 0.0390
18.9400 12.5964 0.0479
18.9600 12.6097 0.0458
18.9800 12.6230 0.0401
19.0000 12.6363 0.0507
19.0200 12.6497 0.0396
19.0400 12.6630 0.0396
19.0600 12.6763 0.0519
19.0800 12.6897 0.0430
19.1000 12.7030 0.0340
19.1200 12.7164 0.0528
19.1400 12.7297 0.0360
19.1600 12.7430 0.0371
19.1800 12.7564 0.0496
19.2000 12.7697 0.0381
19.2200 12.7831 0.0401
19.2400 12.7964 0.0446
19.2600 12.8097 0.0371
19.2800 12.8231 0.0417
19.3000 12.8364 0.0433
19.3200 12.8497 0.0359
19.3400 12.8630 0.0412
19.3600 12.8763 0.0432
19.3800 12.8896 0.0363
19.4000 12.9030 0.0406
19.4200 12.9163 0.0408
19.4400 12.9297 0.0313
19.4600 12.9431 0.0400
19.4800 12.9565 0.0332
19.5000 12.9698 0.0364
19.5200 12.9831 0.0425
19.5400 12.9964 0.0296
19.5600 13.0098 0.0356
19.5800 13.0231 0.0338
19.6000 13.0364 0.0317
19.6200 13.0497 0.0372
19.6400 13.0630 0.0344
19.6600 13.0764 0.0320
19.6800 13.0897 0.0355
19.7000 13.1030 0.0313
19.7200 13.1163 0.0317
19.7400 13.1296 0.0310
19.7600 13.1430 0.0265
19.7800 13.1563 0.0355
19.8000 13.1697 0.0282
19.8200 13.1830 0.0277
19.8400 13.1964 0.0354
19.8600 13.2097 0.0266
19.8800 13.2231 0.0293
19.9000 13.2364 0.0339
19.9200 13.2498 0.0200
19.9400 13.2631 0.0265
19.9600 13.2764 0.0320
19.9800 13.2897 0.0269
20.0000 13.3030 0.0266
20.0200 13.3164 0.0237
20.0400 13.3297 0.0263
20.0600 13.3430 0.0294
20.0800 13.3563 0.0303
20.1000 13.3697 0.0239
20.1200 13.3830 0.0283
20.1400 13.3964 0.0202
20.1600 13.4097 0.0197
20.1800 13.4231 0.0267
20.2000 13.4364 0.0178
20.2200 13.4498 0.0235
20.2400 13.4631 0.0236
20.2600 13.4764 0.0154
20.2800 13.4897 0.0184
20.3000 13.5031 0.0226
20.3200 13.5164 0.0169
20.3400 13.5297 0.0190
20.3600 13.5431 0.0207
20.3800 13.5564 0.0120
20.4000 13.5697 0.0219
20.4200 13.5830 0.0166
20.4400 13.5963 0.0145
20.4600 13.6097 0.0182
20.4800 13.6230 0.0119
20.5000 13.6364 0.0125
20.5200 13.6497 0.0131
20.5400 13.6631 0.0121
20.5600 13.6764 0.0089
20.5800 13.6898 0.0111
20.6000 13.7031 0.0091
20.6200 13.7164 0.0077
20.6400 13.7298 0.0187
20.6600 13.7431 0.0027
20.6800 13.7564 0.0111
20.7000 13.7697 0.0161
20.7200 13.7830 0.0046
20.7400 13.7964 0.0132
20.7600 13.8097 0.0071
20.7800 13.8230 -0.0005
20.8000 13.8363 0.0148
20.8200 13.8497 0.0086
20.8400 13.8630 0.0050
20.8600 13.8763 0.0143
20.8800 13.8897 0.0059
20.9000 13.9031 0.0048
20.9200 13.9164 0.0095
20.9400 13.9298 0.0064
20.9600 13.9431 0.0043
20.9800 13.9564 0.0099
21.0000 13.9698 0.0062
21.0200 13.9831 0.0073
21.0400 13.9964 0.0065
21.0600 14.0097 0.0055
21.0800 14.0230 0.0084
21.1000 14.0364 0.0049
21.1200 14.0497 0.0029
21.1400 14.0630 0.0088
21.1600 14.0763 0.0027
21.1800 14.0897 0.0055
21.2000 14.1030 0.0058
21.2200 14.1163 -0.0005
21.2400 14.1297 0.0045
21.2600 14.1430 0.0020
21.2800 14.1564 -0.0026
21.3000 14.1698 -0.0007
21.3200 14.1831 0.0041
21.3400 14.1964 0.0025
21.3600 14.2098 -0.0013
21.3800 14.2231 -0.0011
21.4000 14.2364 -0.0009
21.4200 14.2497 0.0015
21.4400 14.2630 -0.0040
21.4600 14.2764 0.0032
21.4800 14.2897 -0.0025
21.5000 14.3030 -0.0063
21.5200 14.3163 0.0077
21.5400 14.3296 -0.0033
21.5600 14.3430 -0.0079
21.5800 14.3563 0.0007
21.6000 14.3696 -0.0079
21.6200 14.3830 -0.0021
21.6400 14.3964 0.0082
21.6600 14.4098 -0.0135
21.6800 14.4231 -0.0137
21.7000 14.4364 0.0082
21.7200 14.4498 -0.0151
21.7400 14.4631 -0.0131
21.7600 14.4764 0.0097
21.7800 14.4897 -0.0148
21.8000 14.5030 -0.0040
21.8200 14.5163 0.0027
21.8400 14.5297 -0.0187
21.8600 14.5430 -0.0035
21.8800 14.5563 0.0030
21.9000 14.5697 -0.0216
21.9200 14.5830 -0.0040
21.9400 14.5964 -0.0013
21.9600 14.6097 -0.0189
21.9800 14.6230 -0.0023
22.0000 14.6364 -0.0117
22.0200 14.6498 -0.0191
22.0400 14.6631 -0.0037
22.0600 14.6764 -0.0205
22.0800 14.6897 -0.0072
22.1000 14.7031 -0.0017
22.1200 14.7164 -0.0218
22.1400 14.7297 -0.0103
22.1600 14.7430 -0.0063
22.1800 14.7564 -0.0225
22.2000 14.7697 -0.0098
22.2200 14.7830 -0.0091
22.2400 14.7963 -0.0275
22.2600 14.8097 -0.0063
22.2800 14.8230 -0.0160
22.3000 14.8364 -0.0254
22.3200 14.8497 0.0010
22.3400 14.8631 -0.0204
22.3600 14.8764 -0.0265
22.3800 14.8898 -0.0034
22.4000 14.9031 -0.0218
22.4200 14.9164 -0.0222
22.4400 14.9298 -0.0094
22.4600 14.9431 -0.0250
22.4800 14.9564 -0.0240
22.5000 14.9697 -0.0088
22.5200 14.9830 -0.0203
22.5400 14.9964 -0.0238
22.5600 15.0097 -0.0119
22.5800 15.0230 -0.0221
22.6000 15.0363 -0.0278
22.6200 15.0496 -0.0135
22.6400 15.0630 -0.0226
22.6600 15.0764 -0.0286
22.6800 15.0897 -0.0167
22.7000 15.1030 -0.0248
22.7200 15.1164 -0.0294
22.7400 15.1298 -0.0183
22.7600 15.1431 -0.0267
22.7800 15.1564 -0.0281
22.8000 15.1697 -0.0231
22.8200 15.1831 -0.0270
22.8400 15.1964 -0.0253
22.8600 15.2097 -0.0214
22.8800 15.2230 -0.0307
22.9000 15.2364 -0.0261
22.9200 15.2497 -0.0228
22.9400 15.2630 -0.0352
22.9600 15.2763 -0.0233
22.9800 15.2897 -0.0222
23.0000 15.3030 -0.0337
23.0200 15.3164 -0.0257
23.0400 15.3297 -0.0274
23.0600 15.3430 -0.0340
23.0800 15.3564 -0.0221
23.1000 15.3697 -0.0330
23.1200 15.3831 -0.0344
23.1400 15.3964 -0.0206
23.1600 15.4097 -0.0373
23.1800 15.4231 -0.0273
23.2000 15.4365 -0.0265
23.2200 15.4498 -0.0378
23.2400 15.4630 -0.0206
23.2600 15.4764 -0.0324
23.2800 15.4897 -0.0361
23.3000 15.5030 -0.0236
23.3200 15.5163 -0.0294
23.3400 15.5296 -0.0384
23.3600 15.5430 -0.0290
23.3800 15.5563 -0.0377
23.4000 15.5697 -0.0344
23.4200 15.5830 -0.0332
23.4400 15.5964 -0.0406
23.4600 15.6098 -0.0359
23.4800 15.6231 -0.0313
23.5000 15.6364 -0.0379
23.5200 15.6497 -0.0363
23.5400 15.6631 -0.0331
23.5600 15.6764 -0.0404
23.5800 15.6897 -0.0394
23.6000 15.7030 -0.0325
23.6200 15.7164 -0.0358
23.6400 15.7297 -0.0404
23.6600 15.7430 -0.0355
23.6800 15.7563 -0.0357
23.7000 15.7697 -0.0415
23.7200 15.7830 -0.0375
23.7400 15.7963 -0.0339
23.7600 15.8097 -0.0475
23.7800 15.8230 -0.0420
23.8000 15.8364 -0.0396
23.8200 15.8498 -0.0503
23.8400 15.8631 -0.0391
23.8600 15.8764 -0.0374
23.8800 15.8897 -0.0517
23.9000 15.9031 -0.0424
23.9200 15.9164 -0.0394
23.9400 15.9297 -0.0515
23.9600 15.9430 -0.0408
23.9800 15.9563 -0.0380
24.0000 15.9697 -0.0541
24.0200 15.9830 -0.0446
24.0400 15.9963 -0.0463
24.0600 16.0097 -0.0512
24.0800 16.0230 -0.0439
24.1000 16.0364 -0.0486
24.1200 16.0497 -0.0519
24.1400 16.0630 -0.0416
24.1600 16.0764 -0.0504
24.1800 16.0897 -0.0574
24.2000 16.1031 -0.0457
24.2200 16.1163 -0.0474
24.2400 16.1297 -0.0552
24.2600 16.1430 -0.0457
24.2800 16.1564 -0.0507
24.3000 16.1697 -0.0559
24.3200 16.1831 -0.0516
24.3400 16.1964 -0.0487
24.3600 16.2098 -0.0579
24.3800 16.2231 -0.0512
24.4000 16.2364 -0.0469
24.4200 16.2497 -0.0633
24.4400 16.2630 -0.0538
24.4600 16.2764 -0.0478
24.4800 16.2897 -0.0636
24.5000 16.3030 -0.0508
24.5200 16.3164 -0.0485
24.5400 16.3297 -0.0694
24.5600 16.3431 -0.0544
24.5800 16.3564 -0.0458
24.6000 16.3697 -0.0706
24.6200 16.3831 -0.0563
24.6400 16.3964 -0.0506
24.6600 16.4098 -0.0711
24.6800 16.4231 -0.0502
24.7000 16.4364 -0.0549
24.7200 16.4498 -0.0727
24.7400 16.4631 -0.0535
24.7600 16.4763 -0.0552
24.7800 16.4896 -0.0705
24.8000 16.5030 -0.0530
24.8200 16.5163 -0.0584
24.8400 16.5297 -0.0676
24.8600 16.5430 -0.0584
24.8800 16.5564 -0.0603
24.9000 16.5697 -0.0629
24.9200 16.5831 -0.0641
24.9400 16.5964 -0.0648
24.9600 16.6098 -0.0646
24.9800 16.6231 -0.0655
25.0000 16.6365 -0.0645
25.0200 16.6498 -0.0670
25.0400 16.6630 -0.0648
25.0600 16.6764 -0.0623
25.0800 16.6897 -0.0690
25.1000 16.7030 -0.0702
25.1200 16.7163 -0.0627
25.1400 16.7296 -0.0689
25.1600 16.7430 -0.0712
25.1800 16.7564 -0.0655
25.2000 16.7697 -0.0696
25.2200 16.7830 -0.0727
25.2400 16.7963 -0.0686
25.2600 16.8097 -0.0708
25.2800 16.8231 -0.0728
25.3000 16.8364 -0.0707
25.3200 16.8497 -0.0739
25.3400 16.8631 -0.0728
25.3600 16.8765 -0.0723
25.3800 16.8898 -0.0759
25.4000 16.9031 -0.0704
25.4200 16.9164 -0.0691
25.4400 16.9297 -0.0787
25.4600 16.9430 -0.0696
25.4800 16.9563 -0.0727
25.5000 16.9696 -0.0750
25.5200 16.9830 -0.0714
25.5400 16.9963 -0.0788
25.5600 17.0096 -0.0795
25.5800 17.0230 -0.0718
25.6000 17.0364 -0.0760
25.6200 17.0498 -0.0793
25.6400 17.0631 -0.0756
25.6600 17.0764 -0.0789
25.6800 17.0897 -0.0787
25.7000 17.1031 -0.0737
25.7200 17.1164 -0.0827
25.7400 17.1297 -0.0755
25.7600 17.1430 -0.0761
25.7800 17.1564 -0.0852
25.8000 17.1697 -0.0764
25.8200 17.1831 -0.0812
25.8400 17.1964 -0.0820
25.8600 17.2097 -0.0754
25.8800 17.2230 -0.0827
25.9000 17.2363 -0.0848
25.9200 17.2497 -0.0767
25.9400 17.2630 -0.0873
25.9600 17.2764 -0.0806
25.9800 17.2898 -0.0866
26.0000 17.3031 -0.0905
26.0200 17.3164 -0.0785
26.0400 17.3298 -0.0897
26.0600 17.3431 -0.0895
26.0800 17.3564 -0.0798
26.1000 17.3697 -0.0951
26.1200 17.3830 -0.0856
26.1400 17.3963 -0.0800
26.1600 17.4097 -0.0946
26.1800 17.4230 -0.0902
26.2000 17.4363 -0.0817
26.2200 17.4496 -0.0996
26.2400 17.4630 -0.0867
26.2600 17.4764 -0.0855
26.2800 17.4897 -0.1003
26.3000 17.5030 -0.0891
26.3200 17.5164 -0.0894
26.3400 17.5297 -0.1013
26.3600 17.5431 -0.0875
26.3800 17.5564 -0.0917
26.4000 17.5697 -0.0967
26.4200 17.5830 -0.0913
26.4400 17.5964 -0.0938
26.4600 17.6097 -0.0984
26.4800 17.6231 -0.0954
26.5000 17.6364 -0.0929
26.5200 17.6498 -0.1010
26.5400 17.6631 -0.0948
26.5600 17.6763 -0.0906
26.5800 17.6896 -0.1066
26.6000 17.7029 -0.0955
26.6200 17.7163 -0.0937
26.6400 17.7296 -0.1076
26.6600 17.7430 -0.0973
26.6800 17.7563 -0.0925
26.7000 17.7698 -0.1060
26.7200 17.7831 -0.1018
26.7400 17.7964 -0.0986
26.7600 17.8097 -0.1080
26.7800 17.8231 -0.0987
26.8000 17.8365 -0.0956
26.8200 17.8498 -0.1054
26.8400 17.8631 -0.0998
26.8600 17.8764 -0.0967
26.8800 17.8897 -0.1088
26.9000 17.9030 -0.0995
26.9200 17.9163 -0.1043
26.9400 17.9296 -0.1101
26.9600 17.9430 -0.1042
26.9800 17.9563 -0.1043
27.0000 17.9696 -0.1118
27.0200 17.9830 -0.0977
27.0400 17.9963 -0.1066
27.0600 18.0097 -0.1147
27.0800 18.0231 -0.1066
27.1000 18.0365 -0.1112
27.1200 18.0498 -0.1150
27.1400 18.0631 -0.1010
27.1600 18.0764 -0.1113
27.1800 18.0897 -0.1208
27.2000 18.1030 -0.1043
27.2200 18.1164 -0.1149
27.2400 18.1297 -0.1200
27.2600 18.1430 -0.1087
27.2800 18.1563 -0.1182
27.3000 18.1696 -0.1192
27.3200 18.1830 -0.1099
27.3400 18.1964 -0.1219
27.3600 18.2097 -0.1220
27.3800 18.2230 -0.1109
27.4000 18.2364 -0.1274
27.4200 18.2497 -0.1247
27.4400 18.2631 -0.1119
27.4600 18.2764 -0.1308
27.4800 18.2897 -0.1280
27.5000 18.3031 -0.1147
27.5200 18.3164 -0.1292
27.5400 18.3298 -0.1281
27.5600 18.3431 -0.1195
27.5800 18.3564 -0.1307
27.6000 18.3697 -0.1255
27.6200 18.3831 -0.1274
27.6400 18.3964 -0.1299
27.6600 18.4097 -0.1221
27.6800 18.4230 -0.1281
27.7000 18.4364 -0.1343
27.7200 18.4497 -0.1235
27.7400 18.4630 -0.1302
27.7600 18.4764 -0.1286
27.7800 18.4897 -0.1279
27.8000 18.5031 -0.1342
27.8200 18.5164 -0.1274
27.8400 18.5297 -0.1285
27.8600 18.5431 -0.1354
27.8800 18.5564 -0.1301
27.9000 18.5697 -0.1255
27.9200 18.5830 -0.1345
27.9400 18.5963 -0.1339
27.9600 18.6097 -0.1226
27.9800 18.6230 -0.1334
28.0000 18.6364 -0.1337
28.0200 18.6497 -0.1257
28.0400 18.6630 -0.1382
28.0600 18.6764 -0.1308
28.0800 18.6897 -0.1313
28.1000 18.7030 -0.1408
28.1200 18.7163 -0.1282
28.1400 18.7297 -0.1316
28.1600 18.7431 -0.1425
28.1800 18.7564 -0.1318
28.2000 18.7697 -0.1343
28.2200 18.7831 -0.1390
28.2400 18.7964 -0.1344
28.2600 18.8098 -0.1380
28.2800 18.8231 -0.1399
28.3000 18.8364 -0.1283
28.3200 18.8497 -0.1370
28.3400 18.8631 -0.1319
28.3600 18.8764 -0.1363
28.3800 18.8897 -0.1328
28.4000 18.9030 -0.1321
28.4200 18.9163 -0.1379
28.4400 18.9297 -0.1325
28.4600 18.9430 -0.1291
28.4800 18.9564 -0.1398
28.5000 18.9697 -0.1325
28.5200 18.9831 -0.1337
28.5400 18.9964 -0.1436
28.5600 19.0097 -0.1307
28.5800 19.0230 -0.1333
28.6000 19.0364 -0.1442
28.6200 19.0498 -0.1324
28.6400 19.0631 -0.1419
28.6600 19.0764 -0.1429
28.6800 19.0897 -0.1320
28.7000 19.1031 -0.1458
28.7200 19.1164 -0.1465
28.7400 19.1297 -0.1333
28.7600 19.1429 -0.1449
28.7800 19.1563 -0.1475
28.8000 19.1696 -0.1378
28.8200 19.1830 -0.1525
28.8400 19.1963 -0.1532
28.8600 19.2097 -0.1416
28.8800 19.2231 -0.1532
28.9000 19.2365 -0.1548
28.9200 19.2498 -0.1426
28.9400 19.2631 -0.1573
28.9600 19.2765 -0.1523
28.9800 19.2898 -0.1511
29.0000 19.3030 -0.1554
29.0200 19.3163 -0.1560
29.0400 19.3297 -0.1499
29.0600 19.3430 -0.1622
29.0800 19.3563 -0.1588
29.1000 19.3697 -0.1466
29.1200 19.3830 -0.1659
29.1400 19.3964 -0.1587
29.1600 19.4097 -0.1540
29.1800 19.4231 -0.1684
29.2000 19.4364 -0.1548
29.2200 19.4497 -0.1607
29.2400 19.4631 -0.1709
29.2600 19.4764 -0.1611
29.2800 19.4897 -0.1594
29.3000 19.5030 -0.1708
29.3200 19.5164 -0.1646
29.3400 19.5297 -0.1608
29.3600 19.5430 -0.1739
29.3800 19.5564 -0.1645
29.4000 19.5697 -0.1636
29.4200 19.5830 -0.1732
29.4400 19.5964 -0.1682
29.4600 19.6097 -0.1661
29.4800 19.6230 -0.1759
29.5000 19.6363 -0.1703
29.5200 19.6497 -0.1701
29.5400 19.6630 -0.1744
29.5600 19.6763 -0.1756
29.5800 19.6897 -0.1702
29.6000 19.7031 -0.1835
29.6200 19.7164 -0.1755
29.6400 19.7297 -0.1710
29.6600 19.7430 -0.1782
29.6800 19.7564 -0.1802
29.7000 19.7697 -0.1720
29.7200 19.7831 -0.1784
29.7400 19.7964 -0.1814
29.7600 19.8097 -0.1742
29.7800 19.8231 -0.1829
29.8000 19.8364 -0.1845
29.8200 19.8497 -0.1725
29.8400 19.8630 -0.1847
29.8600 19.8763 -0.1820
29.8800 19.8897 -0.1789
29.9000 19.9030 -0.1851
29.9200 19.9164 -0.1833
29.9400 19.9297 -0.1812
29.9600 19.9431 -0.1888
29.9800 19.9565 -0.1865
30.0000 19.9698 -0.1854
30.0200 19.9831 -0.1888
30.0400 19.9964 -0.1884
30.0600 20.0098 -0.1910
30.0800 20.0230 -0.1867
30.1000 20.0363 -0.1876
30.1200 20.0497 -0.1910
30.1400 20.0630 -0.1887
30.1600 20.0764 -0.1906
30.1800 20.0897 -0.1945
30.2000 20.1030 -0.1871
30.2200 20.1163 -0.1972
30.2400 20.1297 -0.1981
30.2600 20.1430 -0.1921
30.2800 20.1563 -0.1995
30.3000 20.1697 -0.1984
30.3200 20.1831 -0.1947
30.3400 20.1964 -0.2017
30.3600 20.2097 -0.1968
30.3800 20.2231 -0.1940
30.4000 20.2364 -0.2045
30.4200 20.2498 -0.2028
30.4400 20.2631 -0.1938
30.4600 20.2764 -0.2091
30.4800 20.2897 -0.1997
30.5000 20.3030 -0.1968
30.5200 20.3164 -0.2092
30.5400 20.3297 -0.2001
30.5600 20.3430 -0.2032
30.5800 20.3563 -0.2111
30.6000 20.3697 -0.2081
30.6200 20.3830 -0.2074
30.6400 20.3964 -0.2194
30.6600 20.4097 -0.2062
30.6800 20.4231 -0.1491
30.7000 20.4365 -0.0791
30.7200 20.4498 -0.0070
30.7400 20.4631 0.0288
30.7600 20.4764 0.0771
30.7800 20.4898 0.1406
30.8000 20.5031 0.1902
30.8200 20.5164 0.2517
30.8400 20.5297 0.3085
30.8600 20.5430 0.3596
30.8800 20.5564 0.4173
30.9000 20.5697 0.4782
30.9200 20.5830 0.5285
30.9400 20.5963 0.5756
30.9600 20.6097 0.6055
30.9800 20.6230 0.6376
31.0000 20.6363 0.6949
31.0200 20.6497 0.7404
31.0400 20.6631 0.7809
31.0600 20.6764 0.8449
31.0800 20.6898 0.8790
31.1000 20.7031 0.9287
31.1200 20.7164 0.9801
31.1400 20.7297 1.0206
31.1600 20.7430 1.0590
31.1800 20.7563 1.0673
31.2000 20.7696 1.0659
31.2200 20.7830 1.0662
31.2400 20.7963 1.0715
31.2600 20.8097 1.0634
31.2800 20.8230 1.0730
31.3000 20.8364 1.0768
31.3200 20.8497 1.0638
31.3400 20.8631 1.0755
31.3600 20.8764 1.0759
31.3800 20.8897 1.0736
31.4000 20.9031 1.0762
31.4200 20.9164 1.0757
31.4400 20.9297 1.0732
31.4600 20.9430 1.0801
31.4800 20.9564 1.0745
31.5000 20.9697 1.0705
31.5200 20.9831 1.0815
31.5400 20.9964 1.0740
31.5600 21.0097 1.0747
31.5800 21.0231 1.0821
31.6000 21.0364 1.0708
31.6200 21.0497 1.0723
31.6400 21.0630 1.0785
31.6600 21.0763 1.0690
31.6800 21.0897 1.0688
31.7000 21.1030 1.0757
31.7200 21.1163 1.0682
31.7400 21.1297 1.0631
31.7600 21.1430 1.0721
31.7800 21.1564 1.0643
31.8000 21.1697 1.0625
31.8200 21.1830 1.0638
31.8400 21.1964 1.0599
31.8600 21.2098 1.0561
31.8800 21.2231 1.0624
31.9000 21.2364 1.0585
31.9200 21.2497 1.0564
31.9400 21.2630 1.0599
31.9600 21.2764 1.0559
31.9800 21.2897 1.0494
32.0000 21.3030 1.0587
32.0200 21.3163 1.0532
32.0400 21.3297 1.0467
32.0600 21.3430 1.0549
32.0800 21.3563 1.0481
32.1000 21.3697 1.0436
32.1200 21.3831 1.0511
32.1400 21.3964 1.0494
32.1600 21.4098 1.0376
32.1800 21.4231 1.0501
32.2000 21.4364 1.0457
32.2200 21.4497 1.0347
32.2400 21.4631 1.0461
32.2600 21.4764 1.0432
32.2800 21.4897 1.0332
32.3000 21.5030 1.0426
32.3200 21.5164 1.0412
32.3400 21.5297 1.0274
32.3600 21.5430 1.0392
32.3800 21.5563 1.0412
32.4000 21.5697 1.0256
32.4200 21.5830 1.0310
32.4400 21.5964 1.0344
32.4600 21.6097 1.0239
32.4800 21.6230 1.0363
32.5000 21.6364 1.0394
32.5200 21.6497 1.0222
32.5400 21.6631 1.0329
32.5600 21.6764 1.0387
32.5800 21.6898 1.0202
32.6000 21.7031 1.0319
32.6200 21.7164 1.0366
32.6400 21.7297 1.0191
32.6600 21.7430 1.0319
32.6800 21.7564 1.0348
32.7000 21.7697 1.0221
32.7200 21.7830 1.0290
32.7400 21.7963 1.0334
32.7600 21.8097 1.0148
32.7800 21.8230 1.0312
32.8000 21.8363 1.0260
32.8200 21.8497 1.0102
32.8400 21.8631 1.0256
32.8600 21.8765 1.0194
32.8800 21.8898 1.0104
32.9000 21.9031 1.0233
32.9200 21.9164 1.0176
32.9400 21.9298 1.0094
32.9600 21.9431 1.0196
32.9800 21.9564 1.0167
33.0000 21.9697 1.0094
33.0200 21.9830 1.0188
33.0400 21.9964 1.0119
33.0600 22.0097 1.0033
33.0800 22.0230 1.0157
33.1000 22.0364 1.0094
33.1200 22.0497 1.0094
33.1400 22.0630 1.0124
33.1600 22.0763 1.0029
33.1800 22.0897 1.0031
33.2000 22.1031 1.0102
33.2200 22.1164 1.0024
33.2400 22.1298 1.0048
33.2600 22.1431 1.0091
33.2800 22.1564 0.9985
33.3000 22.1697 0.9988
33.3200 22.1831 1.0100
33.3400 22.1964 1.0010
33.3600 22.2097 0.9960
33.3800 22.2230 1.0018
33.4000 22.2364 0.9964
33.4200 22.2497 0.9939
33.4400 22.2630 1.0033
33.4600 22.2763 0.9940
33.4800 22.2897 0.9952
33.5000 22.3030 0.9984
33.5200 22.3164 0.9906
33.5400 22.3297 0.9924
33.5600 22.3430 0.9994
33.5800 22.3564 0.9883
33.6000 22.3697 0.9890
33.6200 22.3830 0.9974
33.6400 22.3964 0.9844
33.6600 22.4097 0.9889
33.6800 22.4231 0.9903
33.7000 22.4364 0.9852
33.7200 22.4497 0.9877
33.7400 22.4631 0.9847
33.7600 22.4764 0.9850
33.7800 22.4897 0.9855
33.8000 22.5030 0.9798
33.8200 22.5163 0.9822
33.8400 22.5296 0.9810
33.8600 22.5430 0.9793
33.8800 22.5563 0.9806
33.9000 22.5697 0.9787
33.9200 22.5830 0.9794
33.9400 22.5965 0.9809
33.9600 22.6098 0.9709
33.9800 22.6231 0.9758
34.0000 22.6364 0.9771
34.0200 22.6498 0.9690
34.0400 22.6631 0.9746
34.0600 22.6764 0.9754
34.0800 22.6897 0.9693
34.1000 22.7030 0.9762
34.1200 22.7164 0.9694
34.1400 22.7297 0.9688
34.1600 22.7430 0.9750
34.1800 22.7563 0.9697
34.2000 22.7696 0.9643
34.2200 22.7830 0.9718
34.2400 22.7963 0.9659
34.2600 22.8097 0.9638
34.2800 22.8230 0.9709
34.3000 22.8364 0.9622
34.3200 22.8498 0.9635
34.3400 22.8631 0.9644
34.3600 22.8764 0.9588
34.3800 22.8898 0.9637
34.4000 22.9031 0.9644
34.4200 22.9164 0.9507
34.4400 22.9297 0.9633
34.4600 22.9430 0.9609
34.4800 22.9564 0.9515
34.5000 22.9697 0.9604
34.5200 22.9830 0.9582
34.5400 22.9963 0.9476
34.5600 23.0097 0.9610
34.5800 23.0230 0.9553
34.6000 23.0363 0.9494
34.6200 23.0496 0.9602
34.6400 23.0630 0.9506
34.6600 23.0764 0.9427
34.6800 23.0897 0.9573
34.7000 23.1031 0.9481
34.7200 23.1164 0.9499
34.7400 23.1298 0.9575
34.7600 23.1431 0.9462
34.7800 23.1564 0.9475
34.8000 23.1697 0.9530
34.8200 23.1831 0.9392
34.8400 23.1964 0.9479
34.8600 23.2097 0.9493
34.8800 23.2230 0.9392
34.9000 23.2363 0.9479
34.9200 23.2497 0.9504
34.9400 23.2630 0.9385
34.9600 23.2764 0.9460
34.9800 23.2897 0.9461
35.0000 23.3031 0.9351
35.0200 23.3164 0.9457
35.0400 23.3298 0.9438
35.0600 23.3431 0.9330
35.0800 23.3564 0.9415
35.1000 23.3697 0.9397
35.1200 23.3831 0.9286
35.1400 23.3964 0.9396
35.1600 23.4097 0.9385
35.1800 23.4230 0.9276
35.2000 23.4364 0.9357
35.2200 23.4497 0.9323
35.2400 23.4630 0.9278
35.2600 23.4763 0.9285
35.2800 23.4897 0.9289
35.3000 23.5030 0.9256
35.3200 23.5163 0.9264
35.3400 23.5297 0.9289
35.3600 23.5430 0.9237
35.3800 23.5564 0.9275
35.4000 23.5698 0.9214
35.4200 23.5831 0.9223
35.4400 23.5964 0.9237
35.4600 23.6098 0.9231
35.4800 23.6231 0.9248
35.5000 23.6365 0.9170
35.5200 23.6497 0.9191
35.5400 23.6631 0.9235
35.5600 23.6764 0.9176
35.5800 23.6897 0.9192
35.6000 23.7030 0.9175
35.6200 23.7163 0.9162
35.6400 23.7297 0.9151
35.6600 23.7430 0.9154
35.6800 23.7564 0.9111
35.7000 23.7697 0.9154
35.7200 23.7830 0.9147
35.7400 23.7964 0.9099
35.7600 23.8098 0.9107
35.7800 23.8231 0.9092
35.8000 23.8364 0.9083
35.8200 23.8497 0.9095
35.8400 23.8631 0.9102
35.8600 23.8764 0.9009
35.8800 23.8897 0.9097
35.9000 23.9030 0.9081
35.9200 23.9164 0.9000
35.9400 23.9297 0.9073
35.9600 23.9430 0.9052
35.9800 23.9563 0.8996
36.0000 23.9696 0.9047
36.0200 23.9830 0.9018
36.0400 23.9963 0.8970
36.0600 24.0096 0.9018
36.0800 24.0230 0.9015
36.1000 24.0364 0.8930
36.1200 24.0498 0.8998
36.1400 24.0632 0.8969
36.1600 24.0765 0.8923
36.1800 24.0898 0.8926
36.2000 24.1031 0.8967
36.2200 24.1164 0.8929
36.2400 24.1297 0.8887
36.2600 24.1430 0.8967
36.2800 24.1563 0.8883
36.3000 24.1697 0.8820
36.3200 24.1830 0.8939
36.3400 24.1963 0.8877
36.3600 24.2097 0.8781
36.3800 24.2230 0.8918
36.4000 24.2364 0.8790
36.4200 24.2497 0.8783
36.4400 24.2631 0.8903
36.4600 24.2764 0.8775
36.4800 24.2898 0.8811
36.5000 24.3031 0.8837
36.5200 24.3164 0.8716
36.5400 24.3297 0.8814
36.5600 24.3431 0.8818
36.5800 24.3564 0.8700
36.6000 24.3697 0.8799
36.6200 24.3830 0.8813
36.6400 24.3964 0.8664
36.6600 24.4097 0.8848
36.6800 24.4230 0.8707
36.7000 24.4363 0.8647
36.7200 24.4497 0.8835
36.7400 24.4630 0.8640
36.7600 24.4764 0.8676
36.7800 24.4897 0.8809
36.8000 24.5030 0.8624
36.8200 24.5164 0.8672
36.8400 24.5298 0.8736
36.8600 24.5431 0.8597
36.8800 24.5564 0.8633
36.9000 24.5697 0.8747
36.9200 24.5831 0.8562
36.9400 24.5964 0.8629
36.9600 24.6097 0.8688
36.9800 24.6230 0.8563
37.0000 24.6364 0.8598
37.0200 24.6497 0.8613
37.0400 24.6630 0.8567
37.0600 24.6763 0.8581
37.0800 24.6896 0.8636
37.1000 24.7030 0.8553
37.1200 24.7164 0.8504
37.1400 24.7297 0.8563
37.1600 24.7430 0.8525
37.1800 24.7564 0.8494
37.2000 24.7698 0.8546
37.2200 24.7831 0.8489
37.2400 24.7964 0.8483
37.2600 24.8097 0.8497
37.2800 24.8231 0.8453
37.3000 24.8364 0.8457
37.3200 24.8497 0.8492
37.3400 24.8630 0.8423
37.3600 24.8764 0.8415
37.3800 24.8897 0.8475
37.4000 24.9030 0.8445
37.4200 24.9164 0.8439
37.4400 24.9297 0.8425
37.4600 24.9430 0.8377
37.4800 24.9564 0.8450
37.5000 24.9697 0.8413
37.5200 24.9830 0.8376
37.5400 24.9964 0.8397
37.5600 25.0097 0.8377
37.5800 25.0231 0.8335
37.6000 25.0364 0.8419
37.6200 25.0497 0.8322
37.6400 25.0631 0.8374
37.6600 25.0764 0.8359
37.6800 25.0897 0.8248
37.7000 25.1030 0.8382
37.7200 25.1164 0.8317
37.7400 25.1297 0.8270
37.7600 25.1430 0.8347
37.7800 25.1563 0.8274
37.8000 25.1696 0.8243
37.8200 25.1830 0.8393
37.8400 25.1963 0.8271
37.8600 25.2097 0.8229
37.8800 25.2230 0.8399
37.9000 25.2364 0.8238
37.9200 25.2498 0.8202
37.9400 25.2631 0.8379
37.9600 25.2764 0.8238
37.9800 25.2897 0.8232
38.0000 25.3031 0.8371
38.0200 25.3165 0.8222
38.0400 25.3297 0.8224
38.0600 25.3430 0.8354
38.0800 25.3564 0.8229
38.1000 25.3697 0.8223
38.1200 25.3831 0.8316
38.1400 25.3963 0.8166
38.1600 25.4096 0.8248
38.1800 25.4230 0.8302
38.2000 25.4363 0.8119
38.2200 25.4496 0.8290
38.2400 25.4630 0.8268
38.2600 25.4764 0.8098
38.2800 25.4897 0.8253
38.3000 25.5031 0.8231
38.3200 25.5164 0.8105
38.3400 25.5297 0.8250
38.3600 25.5431 0.8197
38.3800 25.5564 0.8099
38.4000 25.5697 0.8216
38.4200 25.5830 0.8123
38.4400 25.5963 0.8138
38.4600 25.6097 0.8186
38.4800 25.6230 0.8071
38.5000 25.6363 0.8134
38.5200 25.6497 0.8173
38.5400 25.6630 0.8074
38.5600 25.6764 0.8094
38.5800 25.6897 0.8069
38.6000 25.7031 0.8075
38.6200 25.7164 0.8103
38.6400 25.7297 0.8062
38.6600 25.7431 0.8082
38.6800 25.7564 0.8104
38.7000 25.7697 0.8004
38.7200 25.7831 0.8081
38.7400 25.7964 0.8077
38.7600 25.8098 0.7989
38.7800 25.8231 0.8068
38.8000 25.8364 0.8024
38.8200 25.8497 0.8025
38.8400 25.8631 0.8088
38.8600 25.8764 0.7994
38.8800 25.8897 0.8024
38.9000 25.9030 0.8016
38.9200 25.9163 0.8013
38.9400 25.9297 0.8004
38.9600 25.9430 0.7973
38.9800 25.9564 0.7979
39.0000 25.9697 0.7930
39.0200 25.9831 0.7926
39.0400 25.9964 0.7964
39.0600 26.0097 0.7943
39.0800 26.0230 0.7928
39.1000 26.0364 0.7900
39.1200 26.0497 0.7867
39.1400 26.0630 0.7869
39.1600 26.0764 0.7943
39.1800 26.0897 0.7844
39.2000 26.1031 0.7800
39.2200 26.1164 0.7962
39.2400 26.1297 0.7807
39.2600 26.1430 0.7805
39.2800 26.1563 0.7928
39.3000 26.1697 0.7831
39.3200 26.1830 0.7796
39.3400 26.1964 0.7876
39.3600 26.2098 0.7752
39.3800 26.2231 0.7742
39.4000 26.2364 0.7873
39.4200 26.2498 0.7819
39.4400 26.2631 0.7693
39.4600 26.2764 0.7820
39.4800 26.2897 0.7760
39.5000 26.3030 0.7734
39.5200 26.3163 0.7762
39.5400 26.3297 0.7769
39.5600 26.3430 0.7669
39.5800 26.3563 0.7788
39.6000 26.3697 0.7712
39.6200 26.3830 0.7657
39.6400 26.3964 0.7733
39.6600 26.4097 0.7656
39.6800 26.4230 0.7643
39.7000 26.4364 0.7711
39.7200 26.4497 0.7624
39.7400 26.4631 0.7649
39.7600 26.4764 0.7709
39.7800 26.4897 0.7613
39.8000 26.5031 0.7621
39.8200 26.5165 0.7693
39.8400 26.5298 0.7642
39.8600 26.5431 0.7628
39.8800 26.5564 0.7681
39.9000 26.5697 0.7599
39.9200 26.5830 0.7591
39.9400 26.5963 0.7634
39.9600 26.6096 0.7636
39.9800 26.6229 0.7612
40.0000 26.6363 0.7583
40.0200 26.6497 0.7613
40.0400 26.6630 0.7635
40.0600 26.6764 0.7580
40.0800 26.6898 0.7582
40.1000 26.7031 0.7604
40.1200 26.7164 0.7584
40.1400 26.7297 0.7555
40.1600 26.7431 0.7601
40.1800 26.7564 0.7506
40.2000 26.7697 0.7570
40.2200 26.7830 0.7547
40.2400 26.7964 0.7483
40.2600 26.8097 0.7536
40.2800 26.8230 0.7493
40.3000 26.8364 0.7500
40.3200 26.8497 0.7529
40.3400 26.8630 0.7447
40.3600 26.8763 0.7457
40.3800 26.8897 0.7468
40.4000 26.9030 0.7437
40.4200 26.9164 0.7435
40.4400 26.9297 0.7492
40.4600 26.9431 0.7394
40.4800 26.9564 0.7415
40.5000 26.9697 0.7444
40.5200 26.9831 0.7349
40.5400 26.9964 0.7450
40.5600 27.0098 0.7368
40.5800 27.0231 0.7336
40.6000 27.0364 0.7466
40.6200 27.0497 0.7387
40.6400 27.0630 0.7249
40.6600 27.0763 0.7394
40.6800 27.0897 0.7386
40.7000 27.1030 0.7290
40.7200 27.1164 0.7345
40.7400 27.1297 0.7329
40.7600 27.1430 0.7261
40.7800 27.1564 0.7396
40.8000 27.1697 0.7313
40.8200 27.1830 0.7248
40.8400 27.1964 0.7327
40.8600 27.2097 0.7303
40.8800 27.2230 0.7222
40.9000 27.2364 0.7298
40.9200 27.2498 0.7316
40.9400 27.2631 0.7187
40.9600 27.2764 0.7242
40.9800 27.2898 0.7309
41.0000 27.3031 0.7157
41.0200 27.3164 0.7220
41.0400 27.3297 0.7289
41.0600 27.3430 0.7132
41.0800 27.3563 0.7152
41.1000 27.3697 0.7265
41.1200 27.3830 0.7033
41.1400 27.3963 0.7177
41.1600 27.4097 0.7253
41.1800 27.4231 0.6975
41.2000 27.4365 0.7159
41.2200 27.4498 0.7202
41.2400 27.4631 0.6989
41.2600 27.4764 0.7147
41.2800 27.4898 0.7121
41.3000 27.5031 0.7006
41.3200 27.5164 0.7159
41.3400 27.5297 0.7105
41.3600 27.5430 0.6996
41.3800 27.5563 0.7126
41.4000 27.5696 0.7077
41.4200 27.5829 0.7008
41.4400 27.5963 0.7153
41.4600 27.6097 0.7007
41.4800 27.6230 0.6996
41.5000 27.6364 0.7095
41.5200 27.6497 0.7035
41.5400 27.6631 0.7026
41.5600 27.6765 0.7056
41.5800 27.6898 0.7010
41.6000 27.7031 0.7052
41.6200 27.7164 0.7031
41.6400 27.7297 0.7035
41.6600 27.7430 0.7030
41.6800 27.7564 0.7004
41.7000 27.7697 0.7040
41.7200 27.7830 0.6988
41.7400 27.7963 0.6981
41.7600 27.8096 0.7094
41.7800 27.8230 0.6958
41.8000 27.8363 0.7004
41.8200 27.8497 0.7029
41.8400 27.8630 0.6946
41.8600 27.8764 0.7025
41.8800 27.8897 0.7045
41.9000 27.9031 0.6882
41.9200 27.9164 0.7028
41.9400 27.9297 0.7029
41.9600 27.9431 0.6864
41.9800 27.9564 0.7023
42.0000 27.9698 0.6989
42.0200 27.9831 0.6844
42.0400 27.9964 0.7017
42.0600 28.0097 0.6997
42.0800 28.0231 0.6784
42.1000 28.0364 0.7005
42.1200 28.0497 0.6926
42.1400 28.0630 0.6868
42.1600 28.0763 0.6975
42.1800 28.0897 0.6890
42.2000 28.1030 0.6794
42.2200 28.1164 0.6960
42.2400 28.1297 0.6855
42.2600 28.1431 0.6739
42.2800 28.1564 0.6898
42.3000 28.1698 0.6853
42.3200 28.1831 0.6733
42.3400 28.1964 0.6898
42.3600 28.2097 0.6837
42.3800 28.2230 0.6702
42.4000 28.2363 0.6928
42.4200 28.2497 0.6817
42.4400 28.2630 0.6672
42.4600 28.2764 0.6867
42.4800 28.2897 0.6734
42.5000 28.3030 0.6656
42.5200 28.3163 0.6841
42.5400 28.3297 0.6726
42.5600 28.3430 0.6630
42.5800 28.3563 0.6735
42.6000 28.3697 0.6725
42.6200 28.3831 0.6644
42.6400 28.3964 0.6714
42.6600 28.4097 0.6669
42.6800 28.4231 0.6603
42.7000 28.4365 0.6663
42.7200 28.4498 0.6588
42.7400 28.4631 0.6635
42.7600 28.4764 0.6641
42.7800 28.4897 0.6588
42.8000 28.5030 0.6625
42.8200 28.5164 0.6525
42.8400 28.5297 0.6608
42.8600 28.5430 0.6610
42.8800 28.5563 0.6560
42.9000 28.5697 0.6570
42.9200 28.5830 0.6511
42.9400 28.5963 0.6517
42.9600 28.6097 0.6602
42.9800 28.6231 0.6509
43.0000 28.6364 0.6528
43.0200 28.6497 0.6577
43.0400 28.6630 0.6481
43.0600 28.6764 0.6556
43.0800 28.6898 0.6573
43.1000 28.7031 0.6436
43.1200 28.7164 0.6559
43.1400 28.7297 0.6565
43.1600 28.7431 0.6465
43.1800 28.7564 0.6515
43.2000 28.7696 0.6562
43.2200 28.7830 0.6431
43.2400 28.7963 0.6555
43.2600 28.8096 0.6491
43.2800 28.8230 0.6465
43.3000 28.8363 0.6575
43.3200 28.8497 0.6447
43.3400 28.8631 0.6449
43.3600 28.8765 0.6506
43.3800 28.8898 0.6461
43.4000 28.9031 0.6455
43.4200 28.9165 0.6463
43.4400 28.9298 0.6467
43.4600 28.9431 0.6480
43.4800 28.9563 0.6491
43.5000 28.9696 0.6449
43.5200 28.9830 0.6461
43.5400 28.9963 0.6430
43.5600 29.0097 0.6444
43.5800 29.0230 0.6459
43.6000 29.0364 0.6377
43.6200 29.0497 0.6461
43.6400 29.0631 0.6388
43.6600 29.0764 0.6365
43.6800 29.0898 0.6468
43.7000 29.1031 0.6396
43.7200 29.1165 0.6355
43.7400 29.1297 0.6475
43.7600 29.1431 0.6336
43.7800 29.1564 0.6342
43.8000 29.1698 0.6408
43.8200 29.1831 0.6329
43.8400 29.1964 0.6364
43.8600 29.2097 0.6355
43.8800 29.2230 0.6282
43.9000 29.2364 0.6322
43.9200 29.2497 0.6340
43.9400 29.2630 0.6308
43.9600 29.2763 0.6347
43.9800 29.2897 0.6311
44.0000 29.3030 0.6277
44.0200 29.3164 0.6318
44.0400 29.3297 0.6308
44.0600 29.3431 0.6268
44.0800 29.3564 0.6240
44.1000 29.3697 0.6243
44.1200 29.3831 0.6273
44.1400 29.3964 0.6258
44.1600 29.4098 0.6256
44.1800 29.4231 0.6206
44.2000 29.4364 0.6273
44.2200 29.4497 0.6213
44.2400 29.4630 0.6154
44.2600 29.4764 0.6227
44.2800 29.4896 0.6188
44.3000 29.5030 0.6193
44.3200 29.5163 0.6224
44.3400 29.5297 0.6136
44.3600 29.5430 0.6175
44.3800 29.5563 0.6222
44.4000 29.5697 0.6117
44.4200 29.5831 0.6169
44.4400 29.5964 0.6182
44.4600 29.6098 0.6023
44.4800 29.6231 0.6166
44.5000 29.6364 0.6146
44.5200 29.6497 0.6023
44.5400 29.6630 0.6133
44.5600 29.6764 0.6116
44.5800 29.6897 0.6014
44.6000 29.7030 0.6136
44.6200 29.7164 0.6053
44.6400 29.7297 0.5964
44.6600 29.7430 0.6146
44.6800 29.7563 0.6015
44.7000 29.7697 0.5979
44.7200 29.7830 0.6061
44.7400 29.7964 0.5971
44.7600 29.8097 0.5976
44.7800 29.8231 0.6018
44.8000 29.8364 0.5917
44.8200 29.8497 0.5964
44.8400 29.8631 0.5986
44.8600 29.8764 0.5870
44.8800 29.8898 0.5911
44.9000 29.9031 0.5994
44.9200 29.9164 0.5848
44.9400 29.9297 0.5900
44.9600 29.9430 0.5979
44.9800 29.9564 0.5821
45.0000 29.9697 0.5834
45.0200 29.9830 0.5926
45.0400 29.9963 0.5811
45.0600 30.0097 0.5822
45.0800 30.0230 0.5893
45.1000 30.0364 0.5774
45.1200 30.0497 0.5823
45.1400 30.0631 0.5849
45.1600 30.0765 0.5736
45.1800 30.0898 0.5791
45.2000 30.1031 0.5778
45.2200 30.1164 0.5782
45.2400 30.1298 0.5777
45.2600 30.1431 0.5741
45.2800 30.1564 0.5708
45.3000 30.1697 0.5872
45.3200 30.1830 0.5830
45.3400 30.1964 0.5690
45.3600 30.2097 0.5805
45.3800 30.2230 0.5765
45.4000 30.2363 0.5719
45.4200 30.2497 0.5729
45.4400 30.2630 0.5766
45.4600 30.2763 0.5728
45.4800 30.2897 0.5689
45.5000 30.3031 0.5769
45.5200 30.3164 0.5737
45.5400 30.3298 0.5674
45.5600 30.3431 0.5777
45.5800 30.3564 0.5722
45.6000 30.3698 0.5644
45.6200 30.3831 0.5733
45.6400 30.3963 0.5685
45.6600 30.4096 0.5650
45.6800 30.4230 0.5746
45.7000 30.4363 0.5669
45.7200 30.4497 0.5648
45.7400 30.4630 0.5680
45.7600 30.4763 0.5677
45.7800 30.4897 0.5588
45.8000 30.5031 0.5673
45.8200 30.5164 0.5584
45.8400 30.5297 0.5583
45.8600 30.5431 0.5624
45.8800 30.5564 0.5578
45.9000 30.5697 0.5619
45.9200 30.5830 0.5659
45.9400 30.5964 0.5555
45.9600 30.6097 0.5559
45.9800 30.6231 0.5636
46.0000 30.6364 0.5513
46.0200 30.6497 0.5514
46.0400 30.6631 0.5616
46.0600 30.6764 0.5531
46.0800 30.6897 0.5481
46.1000 30.7030 0.5603
46.1200 30.7163 0.5550
46.1400 30.7297 0.5449
46.1600 30.7430 0.5572
46.1800 30.7563 0.5492
46.2000 30.7697 0.5386
46.2200 30.7830 0.5543
46.2400 30.7964 0.5445
46.2600 30.8097 0.5415
46.2800 30.8231 0.5550
46.3000 30.8364 0.5415
46.3200 30.8498 0.5370
46.3400 30.8631 0.5511
46.3600 30.8764 0.5361
46.3800 30.8897 0.5381
46.4000 30.9031 0.5467
46.4200 30.9164 0.5335
46.4400 30.9297 0.5393
46.4600 30.9430 0.5473
46.4800 30.9563 0.5327
46.5000 30.9697 0.5425
46.5200 30.9830 0.5430
46.5400 30.9963 0.5307
46.5600 31.0097 0.5384
46.5800 31.0231 0.5393
46.6000 31.0364 0.5234
46.6200 31.0498 0.5336
46.6400 31.0631 0.5375
46.6600 31.0764 0.5336
46.6800 31.0897 0.5360
46.7000 31.1031 0.5281
46.7200 31.1164 0.5328
46.7400 31.1297 0.5343
46.7600 31.1430 0.5316
46.7800 31.1564 0.5344
46.8000 31.1697 0.5273
46.8200 31.1830 0.5306
46.8400 31.1963 0.5317
46.8600 31.2097 0.5267
46.8800 31.2230 0.5320
46.9000 31.2364 0.5295
46.9200 31.2497 0.5264
46.9400 31.2630 0.5302
46.9600 31.2764 0.5336
46.9800 31.2897 0.5282
47.0000 31.3031 0.5313
47.0200 31.3164 0.5333
47.0400 31.3298 0.5252
47.0600 31.3431 0.5285
47.0800 31.3564 0.5305
47.1000 31.3697 0.5266
47.1200 31.3830 0.5330
47.1400 31.3964 0.5228
47.1600 31.4097 0.5277
47.1800 31.4230 0.5235
47.2000 31.4363 0.5187
47.2200 31.4496 0.5253
47.2400 31.4630 0.5202
47.2600 31.4763 0.5201
47.2800 31.4897 0.5245
47.3000 31.5030 0.5201
47.3200 31.5164 0.5175
47.3400 31.5298 0.5167
47.3600 31.5431 0.5211
47.3800 31.5564 0.5210
47.4000 31.5697 0.5182
47.4200 31.5831 0.5185
47.4400 31.5964 0.5207
47.4600 31.6097 0.5132
47.4800 31.6230 0.5182
47.5000 31.6364 0.5235
47.5200 31.6497 0.5091
47.5400 31.6630 0.5152
47.5600 31.6763 0.5224
47.5800 31.6897 0.5021
47.6000 31.7030 0.5155
47.6200 31.7163 0.5200
47.6400 31.7297 0.4997
47.6600 31.7430 0.5176
47.6800 31.7564 0.5209
47.7000 31.7698 0.4973
47.7200 31.7831 0.5152
47.7400 31.7964 0.5195
47.7600 31.8098 0.4953
47.7800 31.8231 0.5125
47.8000 31.8364 0.5094
47.8200 31.8497 0.4948
47.8400 31.8630 0.5155
47.8600 31.8764 0.5056
47.8800 31.8897 0.4958
47.9000 31.9030 0.5143
47.9200 31.9164 0.5018
47.9400 31.9297 0.4984
47.9600 31.9430 0.5115
47.9800 31.9563 0.4990
48.0000 31.9697 0.4973
48.0200 31.9830 0.5105
48.0400 31.9964 0.4922
48.0600 32.0097 0.4972
48.0800 32.0230 0.5095
48.1000 32.0363 0.4916
48.1200 32.0497 0.4971
48.1400 32.0631 0.5014
48.1600 32.0764 0.4973
48.1800 32.0897 0.4951
48.2000 32.1031 0.4977
48.2200 32.1164 0.4959
48.2400 32.1297 0.4908
48.2600 32.1430 0.4981
48.2800 32.1563 0.4919
48.3000 32.1696 0.4877
48.3200 32.1830 0.4953
48.3400 32.1963 0.4847
48.3600 32.2096 0.4856
48.3800 32.2230 0.4896
48.4000 32.2364 0.4834
48.4200 32.2498 0.4791
48.4400 32.2631 0.4895
48.4600 32.2764 0.4798
48.4800 32.2898 0.4805
48.5000 32.3031 0.4826
48.5200 32.3164 0.4762
48.5400 32.3297 0.4765
48.5600 32.3430 0.4805
48.5800 32.3563 0.4742
48.6000 32.3697 0.4770
48.6200 32.3830 0.4740
48.6400 32.3963 0.4703
48.6600 32.4096 0.4751
48.6800 32.4230 0.4720
48.7000 32.4363 0.4656
48.7200 32.4497 0.4733
48.7400 32.4630 0.4693
48.7600 32.4764 0.4623
48.7800 32.4898 0.4672
48.8000 32.5031 0.4633
48.8200 32.5164 0.4646
48.8400 32.5298 0.4680
48.8600 32.5431 0.4624
48.8800 32.5564 0.4619
48.9000 32.5697 0.4660
48.9200 32.5830 0.4620
48.9400 32.5964 0.4650
48.9600 32.6097 0.4638
48.9800 32.6230 0.4607
49.0000 32.6363 0.4625
49.0200 32.6497 0.4614
49.0400 32.6630 0.4576
49.0600 32.6764 0.4623
49.0800 32.6897 0.4552
49.1000 32.7030 0.4586
49.1200 32.7164 0.4614
49.1400 32.7297 0.4600
49.1600 32.7431 0.4602
49.1800 32.7564 0.4610
49.2000 32.7697 0.4570
49.2200 32.7831 0.4569
49.2400 32.7964 0.4597
49.2600 32.8097 0.4605
49.2800 32.8231 0.4547
49.3000 32.8364 0.4548
49.3200 32.8497 0.4601
49.3400 32.8630 0.4576
49.3600 32.8763 0.4558
49.3800 32.8896 0.4605
49.4000 32.9030 0.4554
49.4200 32.9164 0.4549
49.4400 32.9297 0.4594
49.4600 32.9431 0.4549
49.4800 32.9564 0.4538
49.5000 32.9698 0.4538
49.5200 32.9831 0.4559
49.5400 32.9964 0.4494
49.5600 33.0097 0.4605
49.5800 33.0231 0.4480
49.6000 33.0364 0.4434
49.6200 33.0497 0.4557
49.6400 33.0630 0.4441
49.6600 33.0764 0.4431
49.6800 33.0897 0.4538
49.7000 33.1030 0.4375
49.7200 33.1163 0.4418
49.7400 33.1297 0.4485
49.7600 33.1430 0.4407
49.7800 33.1563 0.4356
49.8000 33.1697 0.4464
49.8200 33.1830 0.4336
49.8400 33.1964 0.4364
49.8600 33.2098 0.4389
49.8800 33.2231 0.4332
49.9000 33.2364 0.4328
49.9200 33.2497 0.4388
49.9400 33.2631 0.4285
49.9600 33.2765 0.4251
49.9800 33.2898 0.4347
50.0000 33.3031 0.4307
50.0200 33.3164 0.4274
50.0400 33.3297 0.4315
50.0600 33.3430 0.4254
50.0800 33.3563 0.4208
50.1000 33.3697 0.4282
50.1200 33.3830 0.4287
50.1400 33.3963 0.4169
50.1600 33.4097 0.4306
50.1800 33.4230 0.4227
50.2000 33.4364 0.4152
50.2200 33.4498 0.4301
50.2400 33.4631 0.4158
50.2600 33.4764 0.4162
50.2800 33.4897 0.4274
50.3000 33.5031 0.4138
50.3200 33.5164 0.4146
50.3400 33.5297 0.4277
50.3600 33.5430 0.4135
50.3800 33.5564 0.4084
50.4000 33.5697 0.4171
50.4200 33.5830 0.4093
50.4400 33.5963 0.4102
50.4600 33.6096 0.4183
50.4800 33.6230 0.4098
50.5000 33.6363 0.4099
50.5200 33.6496 0.4105
50.5400 33.6630 0.4149
50.5600 33.6764 0.4081
50.5800 33.6898 0.4100
50.6000 33.7031 0.4069
50.6200 33.7165 0.4032
50.6400 33.7298 0.4072
50.6600 33.7431 0.4068
50.6800 33.7564 0.4004
50.7000 33.7697 0.4035
50.7200 33.7830 0.4079
50.7400 33.7963 0.4002
50.7600 33.8097 0.3969
50.7800 33.8230 0.4070
50.8000 33.8363 0.3991
50.8200 33.8497 0.4029
50.8400 33.8630 0.4052
50.8600 33.8764 0.3890
50.8800 33.8897 0.4044
50.9000 33.9031 0.4019
50.9200 33.9164 0.3926
50.9400 33.9298 0.4028
50.9600 33.9431 0.4009
50.9800 33.9564 0.3909
51.0000 33.9697 0.4044
51.0200 33.9830 0.3997
51.0400 33.9964 0.3856
51.0600 34.0097 0.4040
51.0800 34.0230 0.3962
51.1000 34.0364 0.3819
51.1200 34.0497 0.4069
51.1400 34.0630 0.3909
51.1600 34.0763 0.3832
51.1800 34.0897 0.4009
51.2000 34.1030 0.3903
51.2200 34.1164 0.3788
51.2400 34.1297 0.4021
51.2600 34.1430 0.3890
51.2800 34.1564 0.3786
51.3000 34.1698 0.4016
51.3200 34.1831 0.3805
51.3400 34.1964 0.3854
51.3600 34.2097 0.3987
51.3800 34.2231 0.3779
51.4000 34.2364 0.3879
51.4200 34.2497 0.3925
51.4400 34.2631 0.3797
51.4600 34.2764 0.3881
51.4800 34.2897 0.3833
51.5000 34.3030 0.3788
51.5200 34.3163 0.3847
51.5400 34.3296 0.3825
51.5600 34.3430 0.3821
51.5800 34.3563 0.3794
51.6000 34.3697 0.3777
51.6200 34.3830 0.3824
51.6400 34.3964 0.3769
51.6600 34.4098 0.3753
51.6800 34.4231 0.3806
51.7000 34.4364 0.3689
51.7200 34.4498 0.3728
51.7400 34.4631 0.3795
51.7600 34.4764 0.3638
51.7800 34.4897 0.3776
51.8000 34.5030 0.3717
51.8200 34.5163 0.3663
51.8400 34.5297 0.3696
51.8600 34.5430 0.3672
51.8800 34.5564 0.3650
51.9000 34.5697 0.3708
51.9200 34.5830 0.3637
51.9400 34.5963 0.3573
51.9600 34.6096 0.3695
51.9800 34.6230 0.3606
52.0000 34.6363 0.3591
52.0200 34.6497 0.3645
52.0400 34.6631 0.3532
52.0600 34.6764 0.3629
52.0800 34.6897 0.3648
52.1000 34.7031 0.3558
52.1200 34.7164 0.3564
52.1400 34.7298 0.3553
52.1600 34.7431 0.3511
52.1800 34.7564 0.3564
52.2000 34.7697 0.3550
52.2200 34.7830 0.3497
52.2400 34.7963 0.3553
52.2600 34.8096 0.3510
52.2800 34.8230 0.3497
52.3000 34.8363 0.3524
52.3200 34.8497 0.3492
52.3400 34.8630 0.3490
52.3600 34.8764 0.3502
52.3800 34.8898 0.3494
52.4000 34.9031 0.3440
52.4200 34.9164 0.3416
52.4400 34.9297 0.3490
52.4600 34.9431 0.3423
52.4800 34.9564 0.3424
52.5000 34.9697 0.3428
52.5200 34.9830 0.3476
52.5400 34.9964 0.3363
52.5600 35.0097 0.3449
52.5800 35.0230 0.3420
52.6000 35.0363 0.3353
52.6200 35.0496 0.3490
52.6400 35.0630 0.3354
52.6600 35.0763 0.3353
52.6800 35.0897 0.3465
52.7000 35.1030 0.3320
52.7200 35.1164 0.3391
52.7400 35.1297 0.3408
52.7600 35.1431 0.3267
52.7800 35.1564 0.3350
52.8000 35.1697 0.3451
52.8200 35.1831 0.3276
52.8400 35.1964 0.3343
52.8600 35.2097 0.3422
52.8800 35.2230 0.3264
52.9000 35.2363 0.3350
52.9200 35.2497 0.3405
52.9400 35.2630 0.3234
52.9600 35.2763 0.3322
52.9800 35.2897 0.3383
53.0000 35.3030 0.3215
53.0200 35.3164 0.3288
53.0400 35.3298 0.3357
53.0600 35.3431 0.3241
53.0800 35.3564 0.3248
53.1000 35.3698 0.3262
53.1200 35.3831 0.3256
53.1400 35.3964 0.3251
53.1600 35.4097 0.3214
53.1800 35.4230 0.3199
53.2000 35.4364 0.3182
53.2200 35.4497 0.3203
53.2400 35.4631 0.3165
53.2600 35.4764 0.3155
53.2800 35.4897 0.3155
53.3000 35.5031 0.3168
53.3200 35.5164 0.3147
53.3400 35.5297 0.3106
53.3600 35.5430 0.3124
53.3800 35.5563 0.3112
53.4000 35.5697 0.3100
53.4200 35.5830 0.3115
53.4400 35.5963 0.3123
53.4600 35.6097 0.3059
53.4800 35.6231 0.3062
53.5000 35.6364 0.3086
53.5200 35.6497 0.3047
53.5400 35.6630 0.3076
53.5600 35.6764 0.3038
53.5800 35.6897 0.3003
53.6000 35.7031 0.3082
53.6200 35.7164 0.3030
53.6400 35.7298 0.2991
53.6600 35.7431 0.3034
53.6800 35.7564 0.2989
53.7000 35.7696 0.3022
53.7200 35.7830 0.3041
53.7400 35.7963 0.2859
53.7600 35.8097 0.3009
53.7800 35.8230 0.2995
53.8000 35.8364 0.2866
53.8200 35.8497 0.3002
53.8400 35.8631 0.2922
53.8600 35.8764 0.2806
53.8800 35.8897 0.3006
53.9000 35.9031 0.2907
53.9200 35.9164 0.2793
53.9400 35.9297 0.2964
53.9600 35.9430 0.2843
53.9800 35.9563 0.2827
54.0000 35.9697 0.2944
54.0200 35.9830 0.2786
54.0400 35.9964 0.2842
54.0600 36.0097 0.2909
54.0800 36.0230 0.2763
54.1000 36.0364 0.2790
54.1200 36.0497 0.2880
54.1400 36.0630 0.2761
54.1600 36.0764 0.2770
54.1800 36.0897 0.2855
54.2000 36.1031 0.2730
54.2200 36.1164 0.2785
54.2400 36.1297 0.2819
54.2600 36.1431 0.2678
54.2800 36.1565 0.2762
54.3000 36.1698 0.2731
54.3200 36.1831 0.2661
54.3400 36.1964 0.2768
54.3600 36.2097 0.2715
54.3800 36.2231 0.2640
54.4000 36.2364 0.2722
54.4200 36.2497 0.2645
54.4400 36.2630 0.2610
54.4600 36.2763 0.2626
54.4800 36.2897 0.2606
54.5000 36.3030 0.2637
54.5200 36.3164 0.2581
54.5400 36.3298 0.2597
54.5600 36.3431 0.2606
54.5800 36.3564 0.2569
54.6000 36.3697 0.2557
54.6200 36.3831 0.2570
54.6400 36.3964 0.2542
54.6600 36.4097 0.2539
54.6800 36.4230 0.2575
54.7000 36.4363 0.2519
54.7200 36.4497 0.2495
54.7400 36.4630 0.2515
54.7600 36.4764 0.2480
54.7800 36.4897 0.2520
54.8000 36.5030 0.2519
54.8200 36.5163 0.2482
54.8400 36.5297 0.2511
54.8600 36.5430 0.2422
54.8800 36.5564 0.2451
54.9000 36.5697 0.2479
54.9200 36.5831 0.2398
54.9400 36.5964 0.2426
54.9600 36.6097 0.2457
54.9800 36.6231 0.2393
55.0000 36.6364 0.2430
55.0200 36.6498 0.2405
55.0400 36.6630 0.2383
55.0600 36.6763 0.2440
55.0800 36.6897 0.2447
55.1000 36.7030 0.2326
55.1200 36.7163 0.2446
55.1400 36.7296 0.2381
55.1600 36.7430 0.2308
55.1800 36.7563 0.2443
55.2000 36.7697 0.2362
55.2200 36.7830 0.2258
55.2400 36.7963 0.2447
55.2600 36.8097 0.2419
55.2800 36.8231 0.2254
55.3000 36.8364 0.2427
55.3200 36.8497 0.2409
55.3400 36.8630 0.2262
55.3600 36.8764 0.2449
55.3800 36.8898 0.2348
55.4000 36.9031 0.2272
55.4200 36.9164 0.2414
55.4400 36.9298 0.2351
55.4600 36.9431 0.2247
55.4800 36.9564 0.2394
55.5000 36.9697 0.2303
55.5200 36.9830 0.2248
55.5400 36.9963 0.2443
55.5600 37.0096 0.2281
55.5800 37.0230 0.2279
55.6000 37.0363 0.2417
55.6200 37.0497 0.2238
55.6400 37.0631 0.2285
55.6600 37.0765 0.2363
55.6800 37.0898 0.2231
55.7000 37.1031 0.2265
55.7200 37.1165 0.2360
55.7400 37.1298 0.2198
55.7600 37.1431 0.2237
55.7800 37.1564 0.2352
55.8000 37.1697 0.2132
55.8200 37.1830 0.2223
55.8400 37.1964 0.2262
55.8600 37.2096 0.2150
55.8800 37.2230 0.2222
55.9000 37.2363 0.2232
55.9200 37.2497 0.2096
55.9400 37.2630 0.2171
55.9600 37.2763 0.2164
55.9800 37.2897 0.2133
56.0000 37.3031 0.2077
56.0200 37.3164 0.2146
56.0400 37.3298 0.2041
56.0600 37.3431 0.2053
56.0800 37.3565 0.2111
56.1000 37.3698 0.2032
56.1200 37.3831 0.2034
56.1400 37.3964 0.2102
56.1600 37.4097 0.2048
56.1800 37.4230 0.1998
56.2000 37.4364 0.2055
56.2200 37.4497 0.2054
56.2400 37.4630 0.1926
56.2600 37.4763 0.2022
56.2800 37.4897 0.1982
56.3000 37.5030 0.1869
56.3200 37.5163 0.2019
56.3400 37.5297 0.1947
56.3600 37.5431 0.1853
56.3800 37.5564 0.1993
56.4000 37.5697 0.1908
56.4200 37.5831 0.1816
56.4400 37.5964 0.1981
56.4600 37.6098 0.1867
56.4800 37.6231 0.1801
56.5000 37.6364 0.1972
56.5200 37.6497 0.1802
56.5400 37.6631 0.1797
56.5600 37.6764 0.1859
56.5800 37.6897 0.1771
56.6000 37.7030 0.1823
56.6200 37.7163 0.1842
56.6400 37.7297 0.1700
56.6600 37.7430 0.1721
56.6800 37.7564 0.1836
56.7000 37.7697 0.1703
56.7200 37.7831 0.1746
56.7400 37.7964 0.1744
56.7600 37.8098 0.1648
56.7800 37.8231 0.1750
56.8000 37.8364 0.1743
56.8200 37.8498 0.1689
56.8400 37.8631 0.1730
56.8600 37.8763 0.1706
56.8800 37.8897 0.1704
56.9000 37.9030 0.1653
56.9200 37.9164 0.1653
56.9400 37.9297 0.1704
56.9600 37.9430 0.1580
56.9800 37.9563 0.1620
57.0000 37.9697 0.1701
57.0200 37.9830 0.1506
57.0400 37.9963 0.1651
57.0600 38.0097 0.1687
57.0800 38.0231 0.1458
57.1000 38.0364 0.1649
57.1200 38.0498 0.1585
57.1400 38.0631 0.1453
57.1600 38.0764 0.1579
57.1800 38.0898 0.1529
57.2000 38.1031 0.1454
57.2200 38.1164 0.1583
57.2400 38.1297 0.1499
57.2600 38.1430 0.1427
57.2800 38.1564 0.1587
57.3000 38.1697 0.1446
57.3200 38.1830 0.1417
57.3400 38.1963 0.1589
57.3600 38.2097 0.1391
57.3800 38.2230 0.1420
57.4000 38.2363 0.1599
57.4200 38.2497 0.1379
57.4400 38.2631 0.1389
57.4600 38.2764 0.1496
57.4800 38.2897 0.1348
57.5000 38.3031 0.1427
57.5200 38.3164 0.1487
57.5400 38.3298 0.1361
57.5600 38.3431 0.1384
57.5800 38.3564 0.1462
57.6000 38.3697 0.1281
57.6200 38.3831 0.1435
57.6400 38.3964 0.1450
57.6600 38.4096 0.1275
57.6800 38.4229 0.1388
57.7000 38.4363 0.1373
57.7200 38.4496 0.1235
57.7400 38.4630 0.1349
57.7600 38.4763 0.1298
57.7800 38.4897 0.1208
57.8000 38.5031 0.1333
57.8200 38.5164 0.1256
57.8400 38.5298 0.1123
57.8600 38.5431 0.1251
57.8800 38.5565 0.1188
57.9000 38.5698 0.1103
57.9200 38.5831 0.1185
57.9400 38.5964 0.1166
57.9600 38.6097 0.1094
57.9800 38.6230 0.1109
58.0000 38.6363 0.1070
58.0200 38.6497 0.1097
58.0400 38.6630 0.1084
58.0600 38.6763 0.1005
58.0800 38.6897 0.1092
58.1000 38.7031 0.1043
58.1200 38.7164 0.0987
58.1400 38.7297 0.1034
58.1600 38.7431 0.0973
58.1800 38.7565 0.1006
58.2000 38.7698 0.1063
58.2200 38.7831 0.0954
58.2400 38.7964 0.1049
58.2600 38.8098 0.1000
58.2800 38.8231 0.0933
58.3000 38.8364 0.1034
58.3200 38.8497 0.0961
58.3400 38.8630 0.0914
58.3600 38.8764 0.0986
58.3800 38.8897 0.0860
58.4000 38.9030 0.0865
58.4200 38.9163 0.0910
58.4400 38.9297 0.0834
58.4600 38.9431 0.0856
58.4800 38.9564 0.0868
58.5000 38.9697 0.0783
58.5200 38.9831 0.0844
58.5400 38.9964 0.0774
58.5600 39.0098 0.0743
58.5800 39.0231 0.0863
58.6000 39.0364 0.0687
58.6200 39.0498 0.0688
58.6400 39.0631 0.0780
58.6600 39.0764 0.0632
58.6800 39.0897 0.0698
58.7000 39.1030 0.0718
58.7200 39.1164 0.0558
58.7400 39.1297 0.0682
58.7600 39.1430 0.0633
58.7800 39.1563 0.0542
58.8000 39.1697 0.0712
58.8200 39.1830 0.0555
58.8400 39.1963 0.0490
58.8600 39.2097 0.0721
58.8800 39.2230 0.0470
58.9000 39.2364 0.0517
58.9200 39.2498 0.0652
58.9400 39.2631 0.0398
58.9600 39.2764 0.0520
58.9800 39.2898 0.0575
59.0000 39.3031 0.0370
59.0200 39.3164 0.0560
59.0400 39.3297 0.0499
59.0600 39.3430 0.0327
59.0800 39.3564 0.0535
59.1000 39.3697 0.0432
59.1200 39.3830 0.0362
59.1400 39.3963 0.0540
59.1600 39.4097 0.0405
59.1800 39.4230 0.0376
59.2000 39.4363 0.0519
59.2200 39.4497 0.0367
59.2400 39.4630 0.0390
59.2600 39.4764 0.0492
59.2800 39.4897 0.0344
59.3000 39.5031 0.0470
59.3200 39.5164 0.0487
59.3400 39.5298 0.0310
59.3600 39.5431 0.0472
59.3800 39.5564 0.0471
59.4000 39.5697 0.0327
59.4200 39.5830 0.0425
59.4400 39.5963 0.0443
59.4600 39.6097 0.0294
59.4800 39.6230 0.0421
59.5000 39.6363 0.0405
59.5200 39.6497 0.0263
59.5400 39.6630 0.0327
59.5600 39.6763 0.0354
59.5800 39.6897 0.0288
59.6000 39.7031 0.0359
59.6200 39.7165 0.0252
59.6400 39.7298 0.0253
59.6600 39.7431 0.0326
59.6800 39.7564 0.0202
59.7000 39.7698 0.0175
59.7200 39.7831 0.0233
59.7400 39.7964 0.0134
59.7600 39.8097 0.0102
59.7800 39.8230 0.0207
59.8000 39.8364 0.0091
59.8200 39.8497 0.0051
59.8400 39.8630 0.0137
59.8600 39.8763 0.0059
59.8800 39.8897 0.0044
59.9000 39.9030 0.0050
59.9200 39.9163 -0.0024
59.9400 39.9297 -0.0013
59.9600 39.9431 -0.0046
59.9800 39.9565 -0.0027
60.0000 39.9698 0.0033
60.0200 39.9831 -0.0102
60.0400 39.9964 -0.0200
60.0460 40.0003 -0.0333
