Raw Data
Time Displacement Force
(s) (mm) (N)
0.0000 0.0000 0.4409
0.0200 0.0001 0.4557
0.0400 0.0021 0.5290
0.0600 0.0098 0.5187
0.0800 0.0218 0.4334
0.1000 0.0343 0.4375
0.1200 0.0469 0.4726
0.1400 0.0603 0.4485
0.1600 0.0743 0.4481
0.1800 0.0884 0.4517
0.2000 0.1024 0.4372
0.2200 0.1160 0.4485
0.2400 0.1293 0.4511
0.2600 0.1426 0.4389
0.2800 0.1559 0.4544
0.3000 0.1693 0.4522
0.3200 0.1827 0.4369
0.3400 0.1961 0.4602
0.3600 0.2094 0.4493
0.3800 0.2227 0.4367
0.4000 0.2361 0.4573
0.4200 0.2494 0.4457
0.4400 0.2627 0.4437
0.4600 0.2760 0.4597
0.4800 0.2894 0.4454
0.5000 0.3027 0.4423
0.5200 0.3160 0.4529
0.5400 0.3293 0.4450
0.5600 0.3427 0.4430
0.5800 0.3560 0.4532
0.6000 0.3694 0.4434
0.6200 0.3827 0.4418
0.6400 0.3961 0.4494
0.6600 0.4094 0.4408
0.6800 0.4228 0.4389
0.7000 0.4361 0.4455
0.7200 0.4494 0.4408
0.7400 0.4627 0.4353
0.7600 0.4761 0.4485
0.7800 0.4894 0.4385
0.8000 0.5027 0.4344
0.8200 0.5161 0.4453
0.8400 0.5294 0.4379
0.8600 0.5427 0.4343
0.8800 0.5560 0.4463
0.9000 0.5693 0.4390
0.9200 0.5826 0.4344
0.9400 0.5960 0.4432
0.9600 0.6093 0.4367
0.9800 0.6227 0.4352
1.0000 0.6360 0.4448
1.0200 0.6494 0.4343
1.0400 0.6628 0.4376
1.0600 0.6761 0.4432
1.0800 0.6894 0.4308
1.1000 0.7027 0.4361
1.1200 0.7161 0.4408
1.1400 0.7294 0.4318
1.1600 0.7427 0.4328
1.1800 0.7560 0.4374
1.2000 0.7694 0.4301
1.2200 0.7827 0.4285
1.2400 0.7961 0.4344
1.2600 0.8094 0.4287
1.2800 0.8227 0.4278
1.3000 0.8360 0.4332
1.3200 0.8494 0.4276
1.3400 0.8627 0.4271
1.3600 0.8760 0.4311
1.3800 0.8894 0.4301
1.4000 0.9027 0.4248
1.4200 0.9161 0.4310
1.4400 0.9294 0.4298
1.4600 0.9427 0.4298
1.4800 0.9561 0.4259
1.5000 0.9695 0.4227
1.5200 0.9828 0.4261
1.5400 0.9961 0.4250
1.5600 1.0094 0.4235
1.5800 1.0227 0.4212
1.6000 1.0360 0.4243
1.6200 1.0493 0.4190
1.6400 1.0626 0.4219
1.6600 1.0760 0.4254
1.6800 1.0894 0.4122
1.7000 1.1027 0.4180
1.7200 1.1160 0.4206
1.7400 1.1294 0.4143
1.7600 1.1428 0.4154
1.7800 1.1561 0.4163
1.8000 1.1694 0.4163
1.8200 1.1828 0.4162
1.8400 1.1961 0.4150
1.8600 1.2095 0.4108
1.8800 1.2228 0.4101
1.9000 1.2360 0.4168
1.9200 1.2494 0.4127
1.9400 1.2627 0.4120
1.9600 1.2761 0.4147
1.9800 1.2894 0.4106
2.0000 1.3027 0.4118
2.0200 1.3160 0.4134
2.0400 1.3293 0.4086
2.0600 1.3427 0.4067
2.0800 1.3560 0.4110
2.1000 1.3694 0.4093
2.1200 1.3828 0.4089
2.1400 1.3961 0.4065
2.1600 1.4094 0.4096
2.1800 1.4228 0.4075
2.2000 1.4361 0.4063
2.2200 1.4494 0.4093
2.2400 1.4627 0.4061
2.2600 1.4760 0.4060
2.2800 1.4893 0.4092
2.3000 1.5027 0.3995
2.3200 1.5160 0.4063
2.3400 1.5294 0.4038
2.3600 1.5427 0.4015
2.3800 1.5561 0.4017
2.4000 1.5694 0.4020
2.4200 1.5828 0.3972
2.4400 1.5961 0.4019
2.4600 1.6094 0.3995
2.4800 1.6227 0.3939
2.5000 1.6360 0.4047
2.5200 1.6493 0.3931
2.5400 1.6627 0.3972
2.5600 1.6761 0.3994
2.5800 1.6894 0.3881
2.6000 1.7028 0.3970
2.6200 1.7161 0.3945
2.6400 1.7294 0.3935
2.6600 1.7428 0.3956
2.6800 1.7561 0.3892
2.7000 1.7694 0.3887
2.7200 1.7827 0.3926
2.7400 1.7960 0.3898
2.7600 1.8094 0.3866
2.7800 1.8227 0.3937
2.8000 1.8360 0.3823
2.8200 1.8493 0.3849
2.8400 1.8627 0.3925
2.8600 1.8761 0.3822
2.8800 1.8894 0.3835
2.9000 1.9027 0.3904
2.9200 1.9161 0.3856
2.9400 1.9294 0.3834
2.9600 1.9427 0.3872
2.9800 1.9561 0.3815
3.0000 1.9694 0.3851
3.0200 1.9828 0.3815
3.0400 1.9961 0.3784
3.0600 2.0094 0.3870
3.0800 2.0227 0.3807
3.1000 2.0360 0.3729
3.1200 2.0493 0.3893
3.1400 2.0627 0.3784
3.1600 2.0760 0.3702
3.1800 2.0894 0.3857
3.2000 2.1028 0.3714
3.2200 2.1161 0.3733
3.2400 2.1294 0.3775
3.2600 2.1428 0.3670
3.2800 2.1561 0.3743
3.3000 2.1695 0.3722
3.3200 2.1828 0.3658
3.3400 2.1960 0.3701
3.3600 2.2094 0.3689
3.3800 2.2227 0.3680
3.4000 2.2360 0.3666
3.4200 2.2493 0.3668
3.4400 2.2627 0.3625
3.4600 2.2760 0.3678
3.4800 2.2894 0.3580
3.5000 2.3027 0.3633
3.5200 2.3161 0.3680
3.5400 2.3294 0.3547
3.5600 2.3427 0.3689
3.5800 2.3561 0.3612
3.6000 2.3694 0.3535
3.6200 2.3828 0.3654
3.6400 2.3961 0.3616
3.6600 2.4095 0.3499
3.6800 2.4228 0.3608
3.7000 2.4361 0.3607
3.7200 2.4494 0.3500
3.7400 2.4627 0.3594
3.7600 2.4761 0.3599
3.7800 2.4893 0.3448
3.8000 2.5026 0.3619
3.8200 2.5160 0.3544
3.8400 2.5293 0.3444
3.8600 2.5427 0.3661
3.8800 2.5560 0.3509
3.9000 2.5694 0.3438
3.9200 2.5828 0.3552
3.9400 2.5961 0.3477
3.9600 2.6094 0.3447
3.9800 2.6227 0.3529
4.0000 2.6361 0.3517
4.0200 2.6494 0.3481
4.0400 2.6628 0.3523
4.0600 2.6761 0.3476
4.0800 2.6894 0.3480
4.1000 2.7027 0.3493
4.1200 2.7161 0.3462
4.1400 2.7294 0.3467
4.1600 2.7427 0.3449
4.1800 2.7560 0.3458
4.2000 2.7694 0.3409
4.2200 2.7827 0.3457
4.2400 2.7960 0.3476
4.2600 2.8094 0.3383
4.2800 2.8227 0.3484
4.3000 2.8361 0.3472
4.3200 2.8494 0.3346
4.3400 2.8628 0.3492
4.3600 2.8761 0.3429
4.3800 2.8895 0.3307
4.4000 2.9028 0.3456
4.4200 2.9161 0.3470
4.4400 2.9294 0.3351
4.4600 2.9427 0.3482
4.4800 2.9561 0.3436
4.5000 2.9694 0.3346
4.5200 2.9827 0.3466
4.5400 2.9960 0.3415
4.5600 3.0094 0.3360
4.5800 3.0227 0.3476
4.6000 3.0360 0.3363
4.6200 3.0494 0.3337
4.6400 3.0627 0.3488
4.6600 3.0760 0.3337
4.6800 3.0894 0.3374
4.7000 3.1027 0.3467
4.7200 3.1160 0.3283
4.7400 3.1294 0.3376
4.7600 3.1428 0.3451
4.7800 3.1561 0.3289
4.8000 3.1694 0.3352
4.8200 3.1828 0.3433
4.8400 3.1961 0.3280
4.8600 3.2094 0.3297
4.8800 3.2227 0.3397
4.9000 3.2360 0.3250
4.9200 3.2493 0.3284
4.9400 3.2627 0.3324
4.9600 3.2760 0.3252
4.9800 3.2894 0.3278
5.0000 3.3028 0.3309
5.0200 3.3162 0.3258
5.0400 3.3295 0.3222
5.0600 3.3428 0.3296
5.0800 3.3561 0.3271
5.1000 3.3695 0.3186
5.1200 3.3828 0.3308
5.1400 3.3961 0.3257
5.1600 3.4094 0.3194
5.1800 3.4227 0.3290
5.2000 3.4360 0.3200
5.2200 3.4494 0.3157
5.2400 3.4627 0.3335
5.2600 3.4760 0.3177
5.2800 3.4893 0.3126
5.3000 3.5027 0.3250
5.3200 3.5160 0.3145
5.3400 3.5294 0.3126
5.3600 3.5427 0.3219
5.3800 3.5561 0.3149
5.4000 3.5695 0.3091
5.4200 3.5828 0.3203
5.4400 3.5961 0.3130
5.4600 3.6095 0.3108
5.4800 3.6228 0.3152
5.5000 3.6361 0.3077
5.5200 3.6494 0.3073
5.5400 3.6627 0.3163
5.5600 3.6760 0.3053
5.5800 3.6894 0.3048
5.6000 3.7027 0.3148
5.6200 3.7160 0.3043
5.6400 3.7294 0.3026
5.6600 3.7427 0.3112
5.6800 3.7561 0.3041
5.7000 3.7694 0.3015
5.7200 3.7827 0.3090
5.7400 3.7961 0.2975
5.7600 3.8094 0.2969
5.7800 3.8227 0.3151
5.8000 3.8361 0.2943
5.8200 3.8494 0.2958
5.8400 3.8628 0.3182
5.8600 3.8761 0.3008
5.8800 3.8894 0.2941
5.9000 3.9027 0.3077
5.9200 3.9161 0.2957
5.9400 3.9294 0.2930
5.9600 3.9427 0.3108
5.9800 3.9560 0.3025
6.0000 3.9694 0.2947
6.0200 3.9827 0.3061
6.0400 3.9960 0.2940
6.0600 4.0094 0.2954
6.0800 4.0227 0.3045
6.1000 4.0361 0.2956
6.1200 4.0494 0.2951
6.1400 4.0628 0.3042
6.1600 4.0761 0.2963
6.1800 4.0894 0.2936
6.2000 4.1028 0.3024
6.2200 4.1161 0.2982
6.2400 4.1294 0.2939
6.2600 4.1427 0.3020
6.2800 4.1561 0.2914
6.3000 4.1694 0.2925
6.3200 4.1827 0.2998
6.3400 4.1960 0.2918
6.3600 4.2094 0.2940
6.3800 4.2227 0.2942
6.4000 4.2360 0.2902
6.4200 4.2494 0.2942
6.4400 4.2627 0.2973
6.4600 4.2761 0.2870
6.4800 4.2894 0.2869
6.5000 4.3027 0.2925
6.5200 4.3161 0.2900
6.5400 4.3295 0.2868
6.5600 4.3428 0.2873
6.5800 4.3561 0.2844
6.6000 4.3694 0.2881
6.6200 4.3827 0.2847
6.6400 4.3961 0.2833
6.6600 4.4094 0.2774
6.6800 4.4227 0.2866
6.7000 4.4360 0.2834
6.7200 4.4493 0.2748
6.7400 4.4627 0.2876
6.7600 4.4760 0.2758
6.7800 4.4893 0.2737
6.8000 4.5027 0.2856
6.8200 4.5161 0.2724
6.8400 4.5294 0.2733
6.8600 4.5427 0.2797
6.8800 4.5561 0.2708
6.9000 4.5694 0.2721
6.9200 4.5828 0.2777
6.9400 4.5961 0.2717
6.9600 4.6094 0.2715
6.9800 4.6227 0.2760
7.0000 4.6361 0.2676
7.0200 4.6494 0.2726
7.0400 4.6626 0.2729
7.0600 4.6759 0.2680
7.0800 4.6893 0.2729
7.1000 4.7026 0.2686
7.1200 4.7160 0.2689
7.1400 4.7293 0.2722
7.1600 4.7427 0.2673
7.1800 4.7561 0.2662
7.2000 4.7695 0.2719
7.2200 4.7828 0.2684
7.2400 4.7962 0.2639
7.2600 4.8095 0.2718
7.2800 4.8228 0.2653
7.3000 4.8361 0.2670
7.3200 4.8493 0.2726
7.3400 4.8626 0.2673
7.3600 4.8760 0.2642
7.3800 4.8893 0.2642
7.4000 4.9027 0.2657
7.4200 4.9160 0.2671
7.4400 4.9294 0.2640
7.4600 4.9427 0.2643
7.4800 4.9561 0.2623
7.5000 4.9694 0.2628
7.5200 4.9828 0.2619
7.5400 4.9961 0.2680
7.5600 5.0095 0.2565
7.5800 5.0228 0.2612
7.6000 5.0361 0.2680
7.6200 5.0494 0.2546
7.6400 5.0628 0.2615
7.6600 5.0761 0.2618
7.6800 5.0894 0.2613
7.7000 5.1027 0.2609
7.7200 5.1160 0.2615
7.7400 5.1294 0.2566
7.7600 5.1427 0.2601
7.7800 5.1560 0.2609
7.8000 5.1693 0.2531
7.8200 5.1827 0.2596
7.8400 5.1960 0.2586
7.8600 5.2094 0.2558
7.8800 5.2227 0.2613
7.9000 5.2361 0.2572
7.9200 5.2494 0.2622
7.9400 5.2627 0.2521
7.9600 5.2761 0.2550
7.9800 5.2894 0.2624
8.0000 5.3028 0.2554
8.0200 5.3161 0.2485
8.0400 5.3294 0.2650
8.0600 5.3427 0.2542
8.0800 5.3561 0.2517
8.1000 5.3694 0.2615
8.1200 5.3827 0.2478
8.1400 5.3960 0.2535
8.1600 5.4093 0.2618
8.1800 5.4227 0.2493
8.2000 5.4360 0.2538
8.2200 5.4494 0.2576
8.2400 5.4627 0.2492
8.2600 5.4761 0.2501
8.2800 5.4895 0.2577
8.3000 5.5028 0.2451
8.3200 5.5161 0.2536
8.3400 5.5294 0.2548
8.3600 5.5428 0.2435
8.3800 5.5561 0.2523
8.4000 5.5694 0.2542
8.4200 5.5827 0.2439
8.4400 5.5961 0.2500
8.4600 5.6094 0.2526
8.4800 5.6227 0.2428
8.5000 5.6360 0.2473
8.5200 5.6493 0.2509
8.5400 5.6627 0.2394
8.5600 5.6761 0.2428
8.5800 5.6894 0.2538
8.6000 5.7027 0.2390
8.6200 5.7161 0.2422
8.6400 5.7294 0.2461
8.6600 5.7428 0.2382
8.6800 5.7561 0.2395
8.7000 5.7694 0.2473
8.7200 5.7828 0.2322
8.7400 5.7961 0.2378
8.7600 5.8094 0.2454
8.7800 5.8227 0.2315
8.8000 5.8360 0.2362
8.8200 5.8494 0.2443
8.8400 5.8627 0.2281
8.8600 5.8760 0.2357
8.8800 5.8893 0.2470
8.9000 5.9027 0.2261
8.9200 5.9160 0.2313
8.9400 5.9294 0.2434
8.9600 5.9427 0.2244
8.9800 5.9561 0.2264
9.0000 5.9695 0.2360
9.0200 5.9828 0.2236
9.0400 5.9961 0.2306
9.0600 6.0094 0.2429
9.0800 6.0228 0.2220
9.1000 6.0361 0.2324
9.1200 6.0494 0.2372
9.1400 6.0627 0.2204
9.1600 6.0760 0.2346
9.1800 6.0894 0.2350
9.2000 6.1027 0.2201
9.2200 6.1160 0.2309
9.2400 6.1293 0.2325
9.2600 6.1427 0.2198
9.2800 6.1560 0.2305
9.3000 6.1694 0.2293
9.3200 6.1827 0.2197
9.3400 6.1961 0.2285
9.3600 6.2095 0.2311
9.3800 6.2228 0.2202
9.4000 6.2361 0.2248
9.4200 6.2494 0.2323
9.4400 6.2628 0.2182
9.4600 6.2761 0.2218
9.4800 6.2894 0.2313
9.5000 6.3027 0.2170
9.5200 6.3160 0.2236
9.5400 6.3294 0.2269
9.5600 6.3427 0.2186
9.5800 6.3560 0.2177
9.6000 6.3694 0.2261
9.6200 6.3827 0.2137
9.6400 6.3961 0.2193
9.6600 6.4094 0.2249
9.6800 6.4227 0.2141
9.7000 6.4361 0.2177
9.7200 6.4494 0.2205
9.7400 6.4627 0.2148
9.7600 6.4760 0.2129
9.7800 6.4894 0.2199
9.8000 6.5027 0.2177
9.8200 6.5161 0.2133
9.8400 6.5294 0.2197
9.8600 6.5428 0.2129
9.8800 6.5561 0.2086
9.9000 6.5694 0.2182
9.9200 6.5827 0.2097
9.9400 6.5960 0.2099
9.9600 6.6093 0.2136
9.9800 6.6227 0.2093
10.0000 6.6360 0.2029
10.0200 6.6494 0.2155
10.0400 6.6627 0.2124
10.0600 6.6760 0.1959
10.0800 6.6894 0.2134
10.1000 6.7027 0.2070
10.1200 6.7161 0.1974
10.1400 6.7294 0.2140
10.1600 6.7428 0.2033
10.1800 6.7561 0.2000
10.2000 6.7694 0.2086
10.2200 6.7827 0.2036
10.2400 6.7961 0.2006
10.2600 6.8094 0.2114
10.2800 6.8227 0.1983
10.3000 6.8360 0.1983
10.3200 6.8494 0.2085
10.3400 6.8627 0.1959
10.3600 6.8760 0.2000
10.3800 6.8894 0.2068
10.4000 6.9027 0.1917
10.4200 6.9161 0.2066
10.4400 6.9294 0.2030
10.4600 6.9428 0.1931
10.4800 6.9561 0.2022
10.5000 6.9694 0.2016
10.5200 6.9828 0.1924
10.5400 6.9961 0.2029
10.5600 7.0094 0.2012
10.5800 7.0227 0.1968
10.6000 7.0360 0.2002
10.6200 7.0494 0.1944
10.6400 7.0627 0.2023
10.6600 7.0760 0.2001
10.6800 7.0893 0.1950
10.7000 7.1027 0.2027
10.7200 7.1161 0.1927
10.7400 7.1294 0.1935
10.7600 7.1427 0.2046
10.7800 7.1561 0.1927
10.8000 7.1694 0.1941
10.8200 7.1828 0.2006
10.8400 7.1961 0.1895
10.8600 7.2094 0.1926
10.8800 7.2228 0.2013
10.9000 7.2361 0.1865
10.9200 7.2494 0.1972
10.9400 7.2627 0.1962
10.9600 7.2761 0.1863
10.9800 7.2894 0.1993
11.0000 7.3027 0.1915
11.0200 7.3160 0.1876
11.0400 7.3293 0.1985
11.0600 7.3427 0.1877
11.0800 7.3560 0.1875
11.1000 7.3694 0.1974
11.1200 7.3827 0.1918
11.1400 7.3961 0.1844
11.1600 7.4095 0.1906
11.1800 7.4228 0.1923
11.2000 7.4361 0.1852
11.2200 7.4494 0.1936
11.2400 7.4628 0.1916
11.2600 7.4761 0.1820
11.2800 7.4894 0.1857
11.3000 7.5027 0.1868
11.3200 7.5161 0.1858
11.3400 7.5294 0.1864
11.3600 7.5427 0.1860
11.3800 7.5560 0.1812
11.4000 7.5694 0.1814
11.4200 7.5827 0.1910
11.4400 7.5960 0.1781
11.4600 7.6094 0.1809
11.4800 7.6227 0.1851
11.5000 7.6361 0.1783
11.5200 7.6494 0.1789
11.5400 7.6628 0.1813
11.5600 7.6761 0.1816
11.5800 7.6894 0.1791
11.6000 7.7028 0.1795
11.6200 7.7161 0.1801
11.6400 7.7294 0.1768
11.6600 7.7427 0.1814
11.6800 7.7560 0.1769
11.7000 7.7694 0.1768
11.7200 7.7827 0.1803
11.7400 7.7960 0.1734
11.7600 7.8093 0.1729
11.7800 7.8227 0.1800
11.8000 7.8360 0.1677
11.8200 7.8493 0.1722
11.8400 7.8627 0.1811
11.8600 7.8760 0.1684
11.8800 7.8894 0.1679
11.9000 7.9027 0.1813
11.9200 7.9160 0.1622
11.9400 7.9294 0.1750
11.9600 7.9427 0.1796
11.9800 7.9561 0.1601
12.0000 7.9694 0.1743
12.0200 7.9828 0.1731
12.0400 7.9961 0.1603
12.0600 8.0094 0.1737
12.0800 8.0228 0.1686
12.1000 8.0360 0.1612
12.1200 8.0493 0.1748
12.1400 8.0626 0.1708
12.1600 8.0760 0.1585
12.1800 8.0893 0.1746
12.2000 8.1027 0.1681
12.2200 8.1160 0.1593
12.2400 8.1295 0.1748
12.2600 8.1428 0.1609
12.2800 8.1561 0.1616
12.3000 8.1695 0.1712
12.3200 8.1828 0.1612
12.3400 8.1962 0.1630
12.3600 8.2094 0.1645
12.3800 8.2227 0.1586
12.4000 8.2360 0.1648
12.4200 8.2494 0.1619
12.4400 8.2627 0.1592
12.4600 8.2760 0.1669
12.4800 8.2893 0.1609
12.5000 8.3026 0.1574
12.5200 8.3160 0.1661
12.5400 8.3293 0.1589
12.5600 8.3427 0.1592
12.5800 8.3560 0.1604
12.6000 8.3694 0.1564
12.6200 8.3828 0.1591
12.6400 8.3962 0.1621
12.6600 8.4095 0.1541
12.6800 8.4228 0.1582
12.7000 8.4361 0.1588
12.7200 8.4494 0.1547
12.7400 8.4627 0.1561
12.7600 8.4760 0.1617
12.7800 8.4894 0.1516
12.8000 8.5027 0.1523
12.8200 8.5160 0.1575
12.8400 8.5293 0.1548
12.8600 8.5427 0.1566
12.8800 8.5560 0.1524
12.9000 8.5694 0.1495
12.9200 8.5827 0.1551
12.9400 8.5961 0.1580
12.9600 8.6094 0.1484
12.9800 8.6228 0.1531
13.0000 8.6361 0.1580
13.0200 8.6494 0.1467
13.0400 8.6628 0.1527
13.0600 8.6761 0.1571
13.0800 8.6894 0.1489
13.1000 8.7028 0.1542
13.1200 8.7161 0.1541
13.1400 8.7294 0.1505
13.1600 8.7427 0.1527
13.1800 8.7560 0.1556
13.2000 8.7693 0.1460
13.2200 8.7827 0.1530
13.2400 8.7960 0.1544
13.2600 8.8094 0.1412
13.2800 8.8227 0.1519
13.3000 8.8361 0.1530
13.3200 8.8495 0.1411
13.3400 8.8628 0.1470
13.3600 8.8761 0.1478
13.3800 8.8894 0.1440
13.4000 8.9028 0.1514
13.4200 8.9161 0.1402
13.4400 8.9294 0.1407
13.4600 8.9427 0.1516
13.4800 8.9560 0.1407
13.5000 8.9694 0.1423
13.5200 8.9827 0.1445
13.5400 8.9961 0.1391
13.5600 9.0094 0.1418
13.5800 9.0227 0.1425
13.6000 9.0360 0.1355
13.6200 9.0493 0.1470
13.6400 9.0626 0.1403
13.6600 9.0760 0.1349
13.6800 9.0894 0.1480
13.7000 9.1028 0.1312
13.7200 9.1161 0.1414
13.7400 9.1294 0.1433
13.7600 9.1428 0.1280
13.7800 9.1561 0.1470
13.8000 9.1695 0.1398
13.8200 9.1828 0.1269
13.8400 9.1960 0.1456
13.8600 9.2094 0.1387
13.8800 9.2227 0.1252
13.9000 9.2360 0.1434
13.9200 9.2494 0.1377
13.9400 9.2627 0.1259
13.9600 9.2760 0.1468
13.9800 9.2894 0.1304
14.0000 9.3027 0.1300
14.0200 9.3160 0.1425
14.0400 9.3294 0.1282
14.0600 9.3428 0.1312
14.0800 9.3561 0.1376
14.1000 9.3694 0.1252
14.1200 9.3827 0.1287
14.1400 9.3961 0.1338
14.1600 9.4094 0.1299
14.1800 9.4227 0.1217
14.2000 9.4361 0.1361
14.2200 9.4494 0.1259
14.2400 9.4628 0.1238
14.2600 9.4760 0.1324
14.2800 9.4893 0.1216
14.3000 9.5026 0.1248
14.3200 9.5160 0.1300
14.3400 9.5293 0.1222
14.3600 9.5426 0.1212
14.3800 9.5560 0.1305
14.4000 9.5694 0.1240
14.4200 9.5828 0.1138
14.4400 9.5961 0.1292
14.4600 9.6095 0.1217
14.4800 9.6228 0.1150
14.5000 9.6361 0.1260
14.5200 9.6494 0.1198
14.5400 9.6627 0.1184
14.5600 9.6760 0.1246
14.5800 9.6893 0.1214
14.6000 9.7027 0.1215
14.6200 9.7160 0.1269
14.6400 9.7293 0.1178
14.6600 9.7427 0.1173
14.6800 9.7561 0.1237
14.7000 9.7694 0.1173
14.7200 9.7827 0.1169
14.7400 9.7961 0.1268
14.7600 9.8094 0.1138
14.7800 9.8228 0.1205
14.8000 9.8361 0.1243
14.8200 9.8494 0.1164
14.8400 9.8628 0.1141
14.8600 9.8761 0.1245
14.8800 9.8894 0.1157
14.9000 9.9027 0.1126
14.9200 9.9160 0.1259
14.9400 9.9294 0.1151
14.9600 9.9427 0.1148
14.9800 9.9560 0.1270
15.0000 9.9693 0.1125
15.0200 9.9827 0.1169
15.0400 9.9960 0.1215
15.0600 10.0094 0.1143
15.0800 10.0227 0.1156
15.1000 10.0361 0.1229
15.1200 10.0494 0.1164
15.1400 10.0628 0.1129
15.1600 10.0761 0.1228
15.1800 10.0894 0.1134
15.2000 10.1027 0.1138
15.2200 10.1161 0.1202
15.2400 10.1295 0.1125
15.2600 10.1428 0.1115
15.2800 10.1561 0.1150
15.3000 10.1694 0.1164
15.3200 10.1827 0.1105
15.3400 10.1960 0.1107
15.3600 10.2093 0.1157
15.3800 10.2226 0.1066
15.4000 10.2360 0.1109
15.4200 10.2494 0.1051
15.4400 10.2627 0.1098
15.4600 10.2760 0.1121
15.4800 10.2894 0.1068
15.5000 10.3028 0.1061
15.5200 10.3161 0.1044
15.5400 10.3295 0.1048
15.5600 10.3428 0.1064
15.5800 10.3561 0.1062
15.6000 10.3694 0.0999
15.6200 10.3827 0.1051
15.6400 10.3960 0.1070
15.6600 10.4094 0.0978
15.6800 10.4227 0.1058
15.7000 10.4360 0.1045
15.7200 10.4493 0.0947
15.7400 10.4627 0.1044
15.7600 10.4760 0.1012
15.7800 10.4894 0.0973
15.8000 10.5027 0.1016
15.8200 10.5160 0.0898
15.8400 10.5294 0.0981
15.8600 10.5427 0.0957
15.8800 10.5561 0.0935
15.9000 10.5694 0.1038
15.9200 10.5827 0.0954
15.9400 10.5961 0.0930
15.9600 10.6095 0.0989
15.9800 10.6228 0.0968
16.0000 10.6361 0.0965
16.0200 10.6494 0.0996
16.0400 10.6627 0.0927
16.0600 10.6760 0.0955
16.0800 10.6893 0.0971
16.1000 10.7027 0.0906
16.1200 10.7160 0.0955
16.1400 10.7294 0.0989
16.1600 10.7427 0.0886
16.1800 10.7560 0.0941
16.2000 10.7694 0.0927
16.2200 10.7828 0.0910
16.2400 10.7961 0.0928
16.2600 10.8094 0.0901
16.2800 10.8227 0.0901
16.3000 10.8361 0.0929
16.3200 10.8494 0.0872
16.3400 10.8628 0.0881
16.3600 10.8761 0.0969
16.3800 10.8894 0.0884
16.4000 10.9027 0.0874
16.4200 10.9161 0.0938
16.4400 10.9294 0.0811
16.4600 10.9427 0.0969
16.4800 10.9560 0.0899
16.5000 10.9693 0.0820
16.5200 10.9827 0.0995
16.5400 10.9960 0.0871
16.5600 11.0094 0.0831
16.5800 11.0228 0.0964
16.6000 11.0361 0.0826
16.6200 11.0494 0.0831
16.6400 11.0628 0.0959
16.6600 11.0761 0.0798
16.6800 11.0894 0.0836
16.7000 11.1027 0.0954
16.7200 11.1160 0.0806
16.7400 11.1293 0.0869
16.7600 11.1427 0.0929
16.7800 11.1560 0.0758
16.8000 11.1694 0.0898
16.8200 11.1827 0.0870
16.8400 11.1960 0.0797
16.8600 11.2094 0.0868
16.8800 11.2228 0.0857
16.9000 11.2361 0.0789
16.9200 11.2494 0.0871
16.9400 11.2628 0.0841
16.9600 11.2761 0.0836
16.9800 11.2894 0.0853
17.0000 11.3027 0.0847
17.0200 11.3161 0.0814
17.0400 11.3294 0.0789
17.0600 11.3428 0.0811
17.0800 11.3561 0.0808
17.1000 11.3694 0.0783
17.1200 11.3828 0.0771
17.1400 11.3961 0.0773
17.1600 11.4094 0.0774
17.1800 11.4227 0.0808
17.2000 11.4360 0.0741
17.2200 11.4494 0.0717
17.2400 11.4627 0.0807
17.2600 11.4760 0.0693
17.2800 11.4894 0.0715
17.3000 11.5027 0.0796
17.3200 11.5161 0.0685
17.3400 11.5294 0.0697
17.3600 11.5427 0.0777
17.3800 11.5561 0.0676
17.4000 11.5694 0.0699
17.4200 11.5828 0.0756
17.4400 11.5961 0.0602
17.4600 11.6094 0.0741
17.4800 11.6227 0.0764
17.5000 11.6361 0.0598
17.5200 11.6494 0.0752
17.5400 11.6627 0.0742
17.5600 11.6760 0.0576
17.5800 11.6893 0.0735
17.6000 11.7027 0.0727
17.6200 11.7160 0.0647
17.6400 11.7294 0.0694
17.6600 11.7428 0.0699
17.6800 11.7561 0.0605
17.7000 11.7694 0.0726
17.7200 11.7828 0.0675
17.7400 11.7961 0.0596
17.7600 11.8095 0.0686
17.7800 11.8228 0.0673
17.8000 11.8361 0.0629
17.8200 11.8494 0.0678
17.8400 11.8627 0.0688
17.8600 11.8760 0.0645
17.8800 11.8893 0.0618
17.9000 11.9027 0.0724
17.9200 11.9160 0.0657
17.9400 11.9294 0.0604
17.9600 11.9427 0.0680
17.9800 11.9561 0.0607
18.0000 11.9694 0.0641
18.0200 11.9827 0.0628
18.0400 11.9961 0.0590
18.0600 12.0094 0.0615
18.0800 12.0227 0.0676
18.1000 12.0361 0.0580
18.1200 12.0495 0.0561
18.1400 12.0628 0.0675
18.1600 12.0761 0.0543
18.1800 12.0894 0.0605
18.2000 12.1027 0.0653
18.2200 12.1161 0.0504
18.2400 12.1294 0.0635
18.2600 12.1427 0.0611
18.2800 12.1560 0.0547
18.3000 12.1693 0.0594
18.3200 12.1827 0.0629
18.3400 12.1960 0.0504
18.3600 12.2094 0.0572
18.3800 12.2228 0.0617
18.4000 12.2361 0.0486
18.4200 12.2494 0.0563
18.4400 12.2627 0.0552
18.4600 12.2761 0.0508
18.4800 12.2894 0.0567
18.5000 12.3028 0.0556
18.5200 12.3161 0.0517
18.5400 12.3294 0.0572
18.5600 12.3427 0.0544
18.5800 12.3561 0.0486
18.6000 12.3694 0.0576
18.6200 12.3827 0.0528
18.6400 12.3960 0.0480
18.6600 12.4094 0.0498
18.6800 12.4227 0.0534
18.7000 12.4360 0.0522
18.7200 12.4494 0.0524
18.7400 12.4627 0.0529
18.7600 12.4761 0.0429
18.7800 12.4894 0.0517
18.8000 12.5027 0.0496
18.8200 12.5161 0.0464
18.8400 12.5294 0.0469
18.8600 12.5428 0.0484
18.8800 12.5561 0.0447
18.9000 12.5694 0.0459
18.9200 12.5827 0.0501
18.9400 12.5960 0.0440
18.9600 12.6094 0.0462
18.9800 12.6227 0.0518
19.0000 12.6360 0.0404
19.0200 12.6494 0.0451
19.0400 12.6627 0.0482
19.0600 12.6760 0.0406
19.0800 12.6893 0.0409
19.1000 12.7027 0.0457
19.1200 12.7160 0.0375
19.1400 12.7294 0.0438
19.1600 12.7427 0.0485
19.1800 12.7560 0.0354
19.2000 12.7694 0.0449
19.2200 12.7828 0.0410
19.2400 12.7961 0.0347
19.2600 12.8094 0.0439
19.2800 12.8228 0.0406
19.3000 12.8361 0.0365
19.3200 12.8494 0.0401
19.3400 12.8627 0.0399
19.3600 12.8760 0.0373
19.3800 12.8893 0.0409
19.4000 12.9027 0.0344
19.4200 12.9160 0.0348
19.4400 12.9293 0.0420
19.4600 12.9427 0.0313
19.4800 12.9561 0.0403
19.5000 12.9695 0.0322
19.5200 12.9828 0.0288
19.5400 12.9961 0.0381
19.5600 13.0095 0.0311
19.5800 13.0228 0.0297
19.6000 13.0361 0.0378
19.6200 13.0494 0.0329
19.6400 13.0627 0.0345
19.6600 13.0760 0.0358
19.6800 13.0893 0.0346
19.7000 13.1026 0.0338
19.7200 13.1160 0.0343
19.7400 13.1293 0.0285
19.7600 13.1427 0.0331
19.7800 13.1560 0.0348
19.8000 13.1694 0.0309
19.8200 13.1827 0.0287
19.8400 13.1961 0.0324
19.8600 13.2095 0.0265
19.8800 13.2228 0.0317
19.9000 13.2361 0.0310
19.9200 13.2495 0.0268
19.9400 13.2628 0.0287
19.9600 13.2761 0.0305
19.9800 13.2894 0.0245
20.0000 13.3027 0.0306
20.0200 13.3161 0.0284
20.0400 13.3294 0.0216
20.0600 13.3427 0.0295
20.0800 13.3560 0.0278
20.1000 13.3694 0.0252
20.1200 13.3827 0.0298
20.1400 13.3961 0.0276
20.1600 13.4094 0.0206
20.1800 13.4227 0.0290
20.2000 13.4361 0.0241
20.2200 13.4494 0.0209
20.2400 13.4627 0.0289
20.2600 13.4761 0.0215
20.2800 13.4894 0.0192
20.3000 13.5028 0.0246
20.3200 13.5161 0.0212
20.3400 13.5294 0.0237
20.3600 13.5427 0.0209
20.3800 13.5561 0.0191
20.4000 13.5694 0.0225
20.4200 13.5827 0.0255
20.4400 13.5960 0.0159
20.4600 13.6094 0.0230
20.4800 13.6227 0.0196
20.5000 13.6360 0.0227
20.5200 13.6494 0.0173
20.5400 13.6627 0.0144
20.5600 13.6761 0.0201
20.5800 13.6895 0.0148
20.6000 13.7028 0.0102
20.6200 13.7161 0.0181
20.6400 13.7294 0.0180
20.6600 13.7428 0.0118
20.6800 13.7561 0.0165
20.7000 13.7694 0.0164
20.7200 13.7827 0.0109
20.7400 13.7961 0.0183
20.7600 13.8094 0.0135
20.7800 13.8227 0.0131
20.8000 13.8360 0.0144
20.8200 13.8494 0.0122
20.8400 13.8627 0.0104
20.8600 13.8760 0.0129
20.8800 13.8894 0.0170
20.9000 13.9027 0.0091
20.9200 13.9161 0.0078
20.9400 13.9295 0.0107
20.9600 13.9428 0.0103
20.9800 13.9561 0.0104
21.0000 13.9695 0.0142
21.0200 13.9828 0.0056
21.0400 13.9961 0.0080
21.0600 14.0094 0.0145
21.0800 14.0227 0.0097
21.1000 14.0361 0.0082
21.1200 14.0494 0.0126
21.1400 14.0627 0.0021
21.1600 14.0760 0.0059
21.1800 14.0893 0.0156
21.2000 14.1027 0.0019
21.2200 14.1160 0.0080
21.2400 14.1293 0.0115
21.2600 14.1427 -0.0048
21.2800 14.1561 0.0088
21.3000 14.1694 0.0075
21.3200 14.1828 -0.0022
21.3400 14.1961 0.0065
21.3600 14.2094 0.0074
21.3800 14.2228 -0.0078
21.4000 14.2361 0.0054
21.4200 14.2494 0.0058
21.4400 14.2627 -0.0082
21.4600 14.2761 0.0077
21.4800 14.2894 0.0011
21.5000 14.3027 -0.0082
21.5200 14.3160 0.0092
21.5400 14.3293 -0.0001
21.5600 14.3426 -0.0124
21.5800 14.3560 0.0045
21.6000 14.3693 -0.0053
21.6200 14.3827 -0.0117
21.6400 14.3961 0.0050
21.6600 14.4095 -0.0101
21.6800 14.4228 -0.0100
21.7000 14.4361 0.0046
21.7200 14.4495 -0.0116
21.7400 14.4628 -0.0088
21.7600 14.4761 -0.0018
21.7800 14.4893 -0.0099
21.8000 14.5026 -0.0071
21.8200 14.5160 0.0006
21.8400 14.5293 -0.0152
21.8600 14.5427 -0.0068
21.8800 14.5560 0.0010
21.9000 14.5693 -0.0120
21.9200 14.5827 -0.0090
21.9400 14.5960 -0.0013
21.9600 14.6094 -0.0092
21.9800 14.6227 -0.0071
22.0000 14.6361 -0.0085
22.0200 14.6495 -0.0048
22.0400 14.6628 -0.0079
22.0600 14.6761 -0.0077
22.0800 14.6894 -0.0052
22.1000 14.7028 -0.0137
22.1200 14.7161 -0.0042
22.1400 14.7294 -0.0045
22.1600 14.7427 -0.0189
22.1800 14.7560 -0.0025
22.2000 14.7694 -0.0064
22.2200 14.7827 -0.0191
22.2400 14.7960 -0.0023
22.2600 14.8094 -0.0055
22.2800 14.8227 -0.0208
22.3000 14.8361 -0.0032
22.3200 14.8494 -0.0116
22.3400 14.8627 -0.0213
22.3600 14.8761 -0.0045
22.3800 14.8895 -0.0149
22.4000 14.9028 -0.0234
22.4200 14.9161 -0.0032
22.4400 14.9294 -0.0169
22.4600 14.9428 -0.0248
22.4800 14.9561 -0.0077
22.5000 14.9694 -0.0140
22.5200 14.9827 -0.0212
22.5400 14.9961 -0.0121
22.5600 15.0094 -0.0167
22.5800 15.0227 -0.0238
22.6000 15.0360 -0.0098
22.6200 15.0493 -0.0203
22.6400 15.0627 -0.0251
22.6600 15.0760 -0.0082
22.6800 15.0894 -0.0220
22.7000 15.1027 -0.0255
22.7200 15.1161 -0.0116
22.7400 15.1295 -0.0218
22.7600 15.1428 -0.0269
22.7800 15.1561 -0.0131
22.8000 15.1694 -0.0257
22.8200 15.1828 -0.0279
22.8400 15.1961 -0.0160
22.8600 15.2094 -0.0272
22.8800 15.2227 -0.0219
22.9000 15.2360 -0.0197
22.9200 15.2494 -0.0268
22.9400 15.2627 -0.0257
22.9600 15.2760 -0.0218
22.9800 15.2893 -0.0246
23.0000 15.3027 -0.0250
23.0200 15.3160 -0.0245
23.0400 15.3294 -0.0216
23.0600 15.3427 -0.0266
23.0800 15.3561 -0.0253
23.1000 15.3694 -0.0216
23.1200 15.3827 -0.0328
23.1400 15.3961 -0.0292
23.1600 15.4094 -0.0242
23.1800 15.4228 -0.0318
23.2000 15.4361 -0.0325
23.2200 15.4494 -0.0212
23.2400 15.4627 -0.0367
23.2600 15.4760 -0.0307
23.2800 15.4894 -0.0243
23.3000 15.5027 -0.0408
23.3200 15.5160 -0.0325
23.3400 15.5293 -0.0232
23.3600 15.5427 -0.0410
23.3800 15.5560 -0.0283
23.4000 15.5694 -0.0264
23.4200 15.5827 -0.0414
23.4400 15.5961 -0.0303
23.4600 15.6095 -0.0301
23.4800 15.6228 -0.0468
23.5000 15.6361 -0.0287
23.5200 15.6494 -0.0331
23.5400 15.6628 -0.0426
23.5600 15.6761 -0.0310
23.5800 15.6894 -0.0374
23.6000 15.7027 -0.0411
23.6200 15.7160 -0.0319
23.6400 15.7294 -0.0375
23.6600 15.7427 -0.0396
23.6800 15.7560 -0.0388
23.7000 15.7693 -0.0358
23.7200 15.7827 -0.0405
23.7400 15.7960 -0.0374
23.7600 15.8093 -0.0406
23.7800 15.8227 -0.0433
23.8000 15.8361 -0.0409
23.8200 15.8495 -0.0422
23.8400 15.8628 -0.0427
23.8600 15.8761 -0.0448
23.8800 15.8894 -0.0393
23.9000 15.9028 -0.0421
23.9200 15.9161 -0.0476
23.9400 15.9294 -0.0393
23.9600 15.9427 -0.0447
23.9800 15.9560 -0.0492
24.0000 15.9694 -0.0374
24.0200 15.9827 -0.0488
24.0400 15.9960 -0.0466
24.0600 16.0093 -0.0406
24.0800 16.0227 -0.0537
24.1000 16.0361 -0.0461
24.1200 16.0494 -0.0415
24.1400 16.0627 -0.0549
24.1600 16.0761 -0.0488
24.1800 16.0894 -0.0440
24.2000 16.1027 -0.0532
24.2200 16.1160 -0.0486
24.2400 16.1294 -0.0450
24.2600 16.1427 -0.0575
24.2800 16.1561 -0.0451
24.3000 16.1694 -0.0472
24.3200 16.1828 -0.0575
24.3400 16.1961 -0.0482
24.3600 16.2094 -0.0508
24.3800 16.2228 -0.0570
24.4000 16.2360 -0.0444
24.4200 16.2494 -0.0547
24.4400 16.2627 -0.0562
24.4600 16.2760 -0.0507
24.4800 16.2893 -0.0579
24.5000 16.3027 -0.0570
24.5200 16.3160 -0.0501
24.5400 16.3294 -0.0593
24.5600 16.3428 -0.0540
24.5800 16.3561 -0.0532
24.6000 16.3694 -0.0585
24.6200 16.3828 -0.0532
24.6400 16.3961 -0.0608
24.6600 16.4094 -0.0556
24.6800 16.4227 -0.0515
24.7000 16.4361 -0.0627
24.7200 16.4494 -0.0560
24.7400 16.4627 -0.0551
24.7600 16.4760 -0.0612
24.7800 16.4893 -0.0550
24.8000 16.5027 -0.0566
24.8200 16.5160 -0.0628
24.8400 16.5294 -0.0602
24.8600 16.5427 -0.0603
24.8800 16.5561 -0.0623
24.9000 16.5694 -0.0575
24.9200 16.5828 -0.0599
24.9400 16.5961 -0.0664
24.9600 16.6094 -0.0620
24.9800 16.6228 -0.0604
25.0000 16.6361 -0.0632
25.0200 16.6494 -0.0617
25.0400 16.6627 -0.0654
25.0600 16.6760 -0.0639
25.0800 16.6894 -0.0676
25.1000 16.7027 -0.0676
25.1200 16.7160 -0.0644
25.1400 16.7293 -0.0690
25.1600 16.7427 -0.0677
25.1800 16.7561 -0.0687
25.2000 16.7694 -0.0706
25.2200 16.7827 -0.0656
25.2400 16.7960 -0.0681
25.2600 16.8094 -0.0739
25.2800 16.8228 -0.0688
25.3000 16.8361 -0.0695
25.3200 16.8494 -0.0769
25.3400 16.8628 -0.0677
25.3600 16.8761 -0.0751
25.3800 16.8895 -0.0780
25.4000 16.9028 -0.0683
25.4200 16.9161 -0.0808
25.4400 16.9294 -0.0721
25.4600 16.9427 -0.0732
25.4800 16.9560 -0.0833
25.5000 16.9693 -0.0736
25.5200 16.9826 -0.0682
25.5400 16.9960 -0.0866
25.5600 17.0093 -0.0752
25.5800 17.0227 -0.0754
25.6000 17.0360 -0.0818
25.6200 17.0494 -0.0778
25.6400 17.0628 -0.0766
25.6600 17.0761 -0.0797
25.6800 17.0894 -0.0750
25.7000 17.1028 -0.0766
25.7200 17.1161 -0.0802
25.7400 17.1294 -0.0778
25.7600 17.1427 -0.0817
25.7800 17.1560 -0.0791
25.8000 17.1694 -0.0792
25.8200 17.1827 -0.0836
25.8400 17.1961 -0.0813
25.8600 17.2094 -0.0826
25.8800 17.2227 -0.0808
25.9000 17.2361 -0.0852
25.9200 17.2494 -0.0847
25.9400 17.2627 -0.0813
25.9600 17.2761 -0.0861
25.9800 17.2894 -0.0838
26.0000 17.3028 -0.0862
26.0200 17.3161 -0.0917
26.0400 17.3294 -0.0818
26.0600 17.3428 -0.0826
26.0800 17.3561 -0.1002
26.1000 17.3694 -0.0840
26.1200 17.3827 -0.0838
26.1400 17.3960 -0.0933
26.1600 17.4094 -0.0866
26.1800 17.4227 -0.0868
26.2000 17.4360 -0.0956
26.2200 17.4493 -0.0855
26.2400 17.4627 -0.0861
26.2600 17.4761 -0.0896
26.2800 17.4894 -0.0892
26.3000 17.5027 -0.0913
26.3200 17.5161 -0.0917
26.3400 17.5294 -0.0916
26.3600 17.5427 -0.0947
26.3800 17.5560 -0.0894
26.4000 17.5694 -0.0892
26.4200 17.5827 -0.0937
26.4400 17.5961 -0.0965
26.4600 17.6094 -0.0898
26.4800 17.6228 -0.0946
26.5000 17.6361 -0.0954
26.5200 17.6494 -0.0950
26.5400 17.6628 -0.0977
26.5600 17.6760 -0.0973
26.5800 17.6893 -0.0966
26.6000 17.7026 -0.0983
26.6200 17.7160 -0.0961
26.6400 17.7293 -0.1027
26.6600 17.7427 -0.0994
26.6800 17.7560 -0.0989
26.7000 17.7694 -0.1029
26.7200 17.7828 -0.1004
26.7400 17.7961 -0.0982
26.7600 17.8094 -0.1080
26.7800 17.8228 -0.1001
26.8000 17.8361 -0.1020
26.8200 17.8494 -0.1102
26.8400 17.8627 -0.0984
26.8600 17.8760 -0.1053
26.8800 17.8894 -0.1116
26.9000 17.9027 -0.1023
26.9200 17.9160 -0.1025
26.9400 17.9293 -0.1072
26.9600 17.9426 -0.1018
26.9800 17.9560 -0.1102
27.0000 17.9693 -0.1097
27.0200 17.9827 -0.1013
27.0400 17.9960 -0.1118
27.0600 18.0094 -0.1128
27.0800 18.0228 -0.1056
27.1000 18.0361 -0.1105
27.1200 18.0495 -0.1136
27.1400 18.0628 -0.1067
27.1600 18.0761 -0.1110
27.1800 18.0894 -0.1149
27.2000 18.1027 -0.1123
27.2200 18.1160 -0.1143
27.2400 18.1294 -0.1103
27.2600 18.1427 -0.1169
27.2800 18.1560 -0.1149
27.3000 18.1693 -0.1139
27.3200 18.1827 -0.1189
27.3400 18.1960 -0.1185
27.3600 18.2094 -0.1156
27.3800 18.2227 -0.1198
27.4000 18.2361 -0.1186
27.4200 18.2494 -0.1156
27.4400 18.2628 -0.1219
27.4600 18.2761 -0.1189
27.4800 18.2894 -0.1174
27.5000 18.3028 -0.1257
27.5200 18.3161 -0.1177
27.5400 18.3294 -0.1219
27.5600 18.3428 -0.1253
27.5800 18.3561 -0.1136
27.6000 18.3694 -0.1284
27.6200 18.3828 -0.1216
27.6400 18.3961 -0.1210
27.6600 18.4093 -0.1306
27.6800 18.4227 -0.1218
27.7000 18.4360 -0.1214
27.7200 18.4494 -0.1336
27.7400 18.4627 -0.1258
27.7600 18.4760 -0.1244
27.7800 18.4894 -0.1331
27.8000 18.5028 -0.1299
27.8200 18.5161 -0.1257
27.8400 18.5294 -0.1362
27.8600 18.5428 -0.1275
27.8800 18.5561 -0.1307
27.9000 18.5694 -0.1384
27.9200 18.5827 -0.1285
27.9400 18.5960 -0.1324
27.9600 18.6094 -0.1361
27.9800 18.6227 -0.1289
28.0000 18.6360 -0.1352
28.0200 18.6494 -0.1394
28.0400 18.6627 -0.1323
28.0600 18.6760 -0.1345
28.0800 18.6894 -0.1393
28.1000 18.7027 -0.1383
28.1200 18.7160 -0.1370
28.1400 18.7294 -0.1375
28.1600 18.7428 -0.1414
28.1800 18.7561 -0.1389
28.2000 18.7694 -0.1378
28.2200 18.7828 -0.1411
28.2400 18.7961 -0.1401
28.2600 18.8095 -0.1402
28.2800 18.8228 -0.1391
28.3000 18.8361 -0.1365
28.3200 18.8494 -0.1377
28.3400 18.8627 -0.1389
28.3600 18.8760 -0.1310
28.3800 18.8894 -0.1431
28.4000 18.9027 -0.1382
28.4200 18.9160 -0.1288
28.4400 18.9294 -0.1397
28.4600 18.9427 -0.1377
28.4800 18.9560 -0.1302
28.5000 18.9694 -0.1434
28.5200 18.9828 -0.1366
28.5400 18.9961 -0.1359
28.5600 19.0094 -0.1432
28.5800 19.0227 -0.1340
28.6000 19.0361 -0.1358
28.6200 19.0494 -0.1477
28.6400 19.0628 -0.1373
28.6600 19.0761 -0.1371
28.6800 19.0894 -0.1458
28.7000 19.1028 -0.1421
28.7200 19.1161 -0.1436
28.7400 19.1293 -0.1441
28.7600 19.1426 -0.1420
28.7800 19.1560 -0.1493
28.8000 19.1693 -0.1429
28.8200 19.1827 -0.1433
28.8400 19.1960 -0.1512
28.8600 19.2094 -0.1501
28.8800 19.2228 -0.1465
28.9000 19.2362 -0.1469
28.9200 19.2495 -0.1528
28.9400 19.2628 -0.1512
28.9600 19.2761 -0.1467
28.9800 19.2895 -0.1542
29.0000 19.3027 -0.1538
29.0200 19.3160 -0.1527
29.0400 19.3293 -0.1558
29.0600 19.3427 -0.1535
29.0800 19.3560 -0.1560
29.1000 19.3693 -0.1582
29.1200 19.3827 -0.1612
29.1400 19.3960 -0.1531
29.1600 19.4094 -0.1618
29.1800 19.4227 -0.1638
29.2000 19.4361 -0.1547
29.2200 19.4494 -0.1588
29.2400 19.4628 -0.1645
29.2600 19.4761 -0.1615
29.2800 19.4894 -0.1628
29.3000 19.5027 -0.1636
29.3200 19.5161 -0.1617
29.3400 19.5294 -0.1661
29.3600 19.5427 -0.1667
29.3800 19.5560 -0.1588
29.4000 19.5694 -0.1716
29.4200 19.5827 -0.1698
29.4400 19.5960 -0.1632
29.4600 19.6093 -0.1748
29.4800 19.6227 -0.1725
29.5000 19.6360 -0.1714
29.5200 19.6494 -0.1752
29.5400 19.6627 -0.1742
29.5600 19.6761 -0.1745
29.5800 19.6894 -0.1728
29.6000 19.7028 -0.1771
29.6200 19.7161 -0.1749
29.6400 19.7294 -0.1775
29.6600 19.7427 -0.1735
29.6800 19.7561 -0.1818
29.7000 19.7694 -0.1793
29.7200 19.7827 -0.1782
29.7400 19.7960 -0.1843
29.7600 19.8094 -0.1738
29.7800 19.8227 -0.1810
29.8000 19.8361 -0.1900
29.8200 19.8493 -0.1793
29.8400 19.8627 -0.1785
29.8600 19.8760 -0.1908
29.8800 19.8894 -0.1761
29.9000 19.9027 -0.1872
29.9200 19.9160 -0.1938
29.9400 19.9294 -0.1787
29.9600 19.9428 -0.1904
29.9800 19.9562 -0.1929
30.0000 19.9695 -0.1828
30.0200 19.9828 -0.1946
30.0400 19.9961 -0.1912
30.0600 20.0094 -0.1826
30.0800 20.0227 -0.1934
30.1000 20.0360 -0.1939
30.1200 20.0494 -0.1876
30.1400 20.0627 -0.1963
30.1600 20.0761 -0.1965
30.1800 20.0894 -0.1916
30.2000 20.1027 -0.1970
30.2200 20.1160 -0.1967
30.2400 20.1294 -0.1961
30.2600 20.1427 -0.2002
30.2800 20.1560 -0.1938
30.3000 20.1694 -0.1951
30.3200 20.1827 -0.2033
30.3400 20.1961 -0.1975
30.3600 20.2094 -0.1968
30.3800 20.2227 -0.2020
30.4000 20.2361 -0.2016
30.4200 20.2495 -0.1979
30.4400 20.2628 -0.2045
30.4600 20.2761 -0.2049
30.4800 20.2894 -0.1994
30.5000 20.3027 -0.2041
30.5200 20.3160 -0.2064
30.5400 20.3293 -0.2039
30.5600 20.3426 -0.2023
30.5800 20.3560 -0.2149
30.6000 20.3693 -0.2083
30.6200 20.3827 -0.2056
30.6400 20.3960 -0.2223
30.6600 20.4094 -0.2103
30.6800 20.4228 -0.1864
30.7000 20.4361 -0.1263
30.7200 20.4494 -0.0402
30.7400 20.4628 0.0163
30.7600 20.4761 0.0429
30.7800 20.4895 0.1036
30.8000 20.5028 0.1717
30.8200 20.5160 0.2183
30.8400 20.5293 0.2815
30.8600 20.5427 0.3388
30.8800 20.5560 0.3848
30.9000 20.5694 0.4511
30.9200 20.5827 0.5051
30.9400 20.5960 0.5473
30.9600 20.6093 0.6133
30.9800 20.6227 0.6688
31.0000 20.6360 0.7075
31.0200 20.6494 0.7564
31.0400 20.6628 0.7944
31.0600 20.6761 0.8284
31.0800 20.6895 0.8847
31.1000 20.7028 0.9323
31.1200 20.7161 0.9753
31.1400 20.7294 1.0247
31.1600 20.7427 1.0751
31.1800 20.7560 1.0975
31.2000 20.7693 1.1167
31.2200 20.7827 1.1148
31.2400 20.7960 1.1044
31.2600 20.8093 1.1122
31.2800 20.8227 1.1141
31.3000 20.8360 1.1049
31.3200 20.8494 1.1154
31.3400 20.8628 1.1130
31.3600 20.8761 1.1092
31.3800 20.8894 1.1171
31.4000 20.9028 1.1126
31.4200 20.9161 1.1100
31.4400 20.9294 1.1149
31.4600 20.9427 1.1146
31.4800 20.9561 1.1104
31.5000 20.9694 1.1146
31.5200 20.9828 1.1145
31.5400 20.9961 1.1072
31.5600 21.0094 1.1166
31.5800 21.0228 1.1134
31.6000 21.0361 1.1034
31.6200 21.0494 1.1086
31.6400 21.0627 1.1098
31.6600 21.0760 1.1046
31.6800 21.0894 1.1033
31.7000 21.1027 1.1081
31.7200 21.1160 1.0980
31.7400 21.1294 1.1024
31.7600 21.1427 1.1086
31.7800 21.1561 1.0918
31.8000 21.1694 1.0948
31.8200 21.1827 1.1051
31.8400 21.1961 1.0884
31.8600 21.2094 1.0957
31.8800 21.2228 1.0990
31.9000 21.2361 1.0861
31.9200 21.2494 1.0972
31.9400 21.2627 1.0933
31.9600 21.2761 1.0789
31.9800 21.2894 1.0970
32.0000 21.3027 1.0867
32.0200 21.3160 1.0752
32.0400 21.3294 1.0922
32.0600 21.3427 1.0867
32.0800 21.3560 1.0734
32.1000 21.3694 1.0904
32.1200 21.3827 1.0780
32.1400 21.3961 1.0737
32.1600 21.4094 1.0876
32.1800 21.4227 1.0739
32.2000 21.4361 1.0739
32.2200 21.4494 1.0804
32.2400 21.4628 1.0709
32.2600 21.4761 1.0707
32.2800 21.4894 1.0765
32.3000 21.5027 1.0699
32.3200 21.5160 1.0699
32.3400 21.5293 1.0755
32.3600 21.5426 1.0648
32.3800 21.5560 1.0717
32.4000 21.5694 1.0683
32.4200 21.5827 1.0636
32.4400 21.5960 1.0674
32.4600 21.6094 1.0640
32.4800 21.6227 1.0685
32.5000 21.6361 1.0638
32.5200 21.6494 1.0649
32.5400 21.6627 1.0663
32.5600 21.6761 1.0635
32.5800 21.6895 1.0648
32.6000 21.7028 1.0650
32.6200 21.7161 1.0598
32.6400 21.7294 1.0624
32.6600 21.7427 1.0606
32.6800 21.7561 1.0589
32.7000 21.7694 1.0574
32.7200 21.7827 1.0620
32.7400 21.7960 1.0558
32.7600 21.8093 1.0573
32.7800 21.8227 1.0593
32.8000 21.8360 1.0523
32.8200 21.8494 1.0565
32.8400 21.8628 1.0544
32.8600 21.8761 1.0519
32.8800 21.8895 1.0488
32.9000 21.9028 1.0516
32.9200 21.9161 1.0543
32.9400 21.9294 1.0429
32.9600 21.9428 1.0511
32.9800 21.9561 1.0478
33.0000 21.9694 1.0406
33.0200 21.9827 1.0500
33.0400 21.9961 1.0463
33.0600 22.0094 1.0394
33.0800 22.0227 1.0435
33.1000 22.0360 1.0408
33.1200 22.0494 1.0379
33.1400 22.0627 1.0464
33.1600 22.0760 1.0374
33.1800 22.0894 1.0336
33.2000 22.1027 1.0430
33.2200 22.1161 1.0325
33.2400 22.1294 1.0299
33.2600 22.1427 1.0429
33.2800 22.1561 1.0300
33.3000 22.1694 1.0280
33.3200 22.1828 1.0337
33.3400 22.1961 1.0303
33.3600 22.2094 1.0302
33.3800 22.2227 1.0329
33.4000 22.2360 1.0272
33.4200 22.2494 1.0292
33.4400 22.2627 1.0278
33.4600 22.2760 1.0303
33.4800 22.2894 1.0264
33.5000 22.3027 1.0204
33.5200 22.3160 1.0271
33.5400 22.3294 1.0249
33.5600 22.3427 1.0219
33.5800 22.3561 1.0334
33.6000 22.3694 1.0172
33.6200 22.3827 1.0203
33.6400 22.3960 1.0283
33.6600 22.4094 1.0171
33.6800 22.4228 1.0172
33.7000 22.4361 1.0275
33.7200 22.4494 1.0128
33.7400 22.4628 1.0204
33.7600 22.4761 1.0214
33.7800 22.4894 1.0070
33.8000 22.5027 1.0225
33.8200 22.5160 1.0159
33.8400 22.5293 1.0069
33.8600 22.5427 1.0172
33.8800 22.5560 1.0108
33.9000 22.5693 1.0048
33.9200 22.5827 1.0131
33.9400 22.5961 1.0060
33.9600 22.6095 1.0024
33.9800 22.6228 1.0090
34.0000 22.6361 1.0086
34.0200 22.6495 0.9993
34.0400 22.6628 1.0026
34.0600 22.6761 1.0064
34.0800 22.6894 1.0023
34.1000 22.7027 1.0048
34.1200 22.7160 1.0073
34.1400 22.7294 0.9946
34.1600 22.7427 0.9988
34.1800 22.7560 1.0007
34.2000 22.7693 0.9922
34.2200 22.7827 0.9968
34.2400 22.7960 0.9967
34.2600 22.8094 0.9857
34.2800 22.8227 0.9947
34.3000 22.8361 0.9912
34.3200 22.8495 0.9843
34.3400 22.8628 0.9935
34.3600 22.8761 0.9914
34.3800 22.8895 0.9785
34.4000 22.9028 0.9899
34.4200 22.9161 0.9850
34.4400 22.9294 0.9842
34.4600 22.9427 0.9892
34.4800 22.9561 0.9794
34.5000 22.9694 0.9834
34.5200 22.9827 0.9852
34.5400 22.9960 0.9804
34.5600 23.0093 0.9808
34.5800 23.0227 0.9825
34.6000 23.0360 0.9793
34.6200 23.0493 0.9798
34.6400 23.0627 0.9816
34.6600 23.0761 0.9734
34.6800 23.0894 0.9769
34.7000 23.1028 0.9718
34.7200 23.1161 0.9742
34.7400 23.1294 0.9741
34.7600 23.1428 0.9674
34.7800 23.1561 0.9734
34.8000 23.1694 0.9695
34.8200 23.1827 0.9633
34.8400 23.1961 0.9683
34.8600 23.2094 0.9692
34.8800 23.2227 0.9614
34.9000 23.2360 0.9673
34.9200 23.2493 0.9659
34.9400 23.2627 0.9578
34.9600 23.2761 0.9640
34.9800 23.2894 0.9669
35.0000 23.3027 0.9558
35.0200 23.3161 0.9632
35.0400 23.3295 0.9585
35.0600 23.3428 0.9544
35.0800 23.3561 0.9624
35.1000 23.3694 0.9575
35.1200 23.3828 0.9513
35.1400 23.3961 0.9627
35.1600 23.4094 0.9564
35.1800 23.4227 0.9519
35.2000 23.4361 0.9580
35.2200 23.4494 0.9535
35.2400 23.4627 0.9486
35.2600 23.4760 0.9560
35.2800 23.4893 0.9572
35.3000 23.5027 0.9466
35.3200 23.5160 0.9513
35.3400 23.5294 0.9541
35.3600 23.5427 0.9433
35.3800 23.5561 0.9472
35.4000 23.5694 0.9505
35.4200 23.5828 0.9392
35.4400 23.5961 0.9472
35.4600 23.6094 0.9519
35.4800 23.6228 0.9357
35.5000 23.6361 0.9442
35.5200 23.6494 0.9431
35.5400 23.6627 0.9339
35.5600 23.6761 0.9432
35.5800 23.6894 0.9414
35.6000 23.7027 0.9339
35.6200 23.7160 0.9406
35.6400 23.7294 0.9411
35.6600 23.7427 0.9282
35.6800 23.7560 0.9384
35.7000 23.7694 0.9406
35.7200 23.7827 0.9288
35.7400 23.7961 0.9329
35.7600 23.8094 0.9366
35.7800 23.8228 0.9239
35.8000 23.8361 0.9304
35.8200 23.8494 0.9352
35.8400 23.8628 0.9180
35.8600 23.8761 0.9258
35.8800 23.8894 0.9382
35.9000 23.9027 0.9131
35.9200 23.9161 0.9234
35.9400 23.9294 0.9316
35.9600 23.9427 0.9127
35.9800 23.9560 0.9242
36.0000 23.9693 0.9263
36.0200 23.9826 0.9081
36.0400 23.9960 0.9197
36.0600 24.0093 0.9222
36.0800 24.0227 0.9055
36.1000 24.0361 0.9219
36.1200 24.0495 0.9148
36.1400 24.0628 0.9043
36.1600 24.0761 0.9198
36.1800 24.0895 0.9140
36.2000 24.1028 0.9062
36.2200 24.1161 0.9152
36.2400 24.1294 0.9116
36.2600 24.1427 0.9059
36.2800 24.1560 0.9144
36.3000 24.1693 0.9084
36.3200 24.1827 0.8993
36.3400 24.1960 0.9096
36.3600 24.2093 0.9070
36.3800 24.2227 0.8985
36.4000 24.2361 0.9035
36.4200 24.2494 0.9073
36.4400 24.2628 0.8949
36.4600 24.2761 0.9048
36.4800 24.2895 0.9019
36.5000 24.3028 0.8977
36.5200 24.3161 0.9054
36.5400 24.3294 0.9009
36.5600 24.3428 0.8928
36.5800 24.3561 0.9001
36.6000 24.3694 0.8983
36.6200 24.3827 0.8926
36.6400 24.3960 0.9029
36.6600 24.4094 0.8960
36.6800 24.4227 0.8917
36.7000 24.4360 0.8961
36.7200 24.4493 0.8924
36.7400 24.4627 0.8903
36.7600 24.4761 0.8954
36.7800 24.4894 0.8906
36.8000 24.5027 0.8910
36.8200 24.5161 0.8896
36.8400 24.5294 0.8923
36.8600 24.5428 0.8878
36.8800 24.5561 0.8866
36.9000 24.5694 0.8922
36.9200 24.5828 0.8803
36.9400 24.5961 0.8837
36.9600 24.6094 0.8931
36.9800 24.6227 0.8740
37.0000 24.6361 0.8849
37.0200 24.6494 0.8879
37.0400 24.6627 0.8687
37.0600 24.6760 0.8819
37.0800 24.6893 0.8858
37.1000 24.7027 0.8683
37.1200 24.7160 0.8762
37.1400 24.7294 0.8798
37.1600 24.7427 0.8677
37.1800 24.7561 0.8727
37.2000 24.7694 0.8750
37.2200 24.7828 0.8630
37.2400 24.7961 0.8713
37.2600 24.8094 0.8708
37.2800 24.8228 0.8627
37.3000 24.8361 0.8686
37.3200 24.8494 0.8660
37.3400 24.8627 0.8640
37.3600 24.8761 0.8626
37.3800 24.8894 0.8634
37.4000 24.9027 0.8609
37.4200 24.9160 0.8593
37.4400 24.9294 0.8655
37.4600 24.9427 0.8562
37.4800 24.9560 0.8569
37.5000 24.9694 0.8643
37.5200 24.9827 0.8521
37.5400 24.9960 0.8529
37.5600 25.0094 0.8614
37.5800 25.0227 0.8493
37.6000 25.0361 0.8517
37.6200 25.0494 0.8572
37.6400 25.0628 0.8529
37.6600 25.0761 0.8515
37.6800 25.0894 0.8570
37.7000 25.1027 0.8529
37.7200 25.1161 0.8530
37.7400 25.1294 0.8535
37.7600 25.1427 0.8433
37.7800 25.1560 0.8536
37.8000 25.1693 0.8506
37.8200 25.1827 0.8481
37.8400 25.1960 0.8515
37.8600 25.2093 0.8481
37.8800 25.2227 0.8473
37.9000 25.2361 0.8515
37.9200 25.2495 0.8471
37.9400 25.2628 0.8441
37.9600 25.2761 0.8482
37.9800 25.2894 0.8475
38.0000 25.3028 0.8447
38.0200 25.3161 0.8442
38.0400 25.3294 0.8427
38.0600 25.3427 0.8475
38.0800 25.3561 0.8424
38.1000 25.3694 0.8417
38.1200 25.3827 0.8411
38.1400 25.3960 0.8412
38.1600 25.4093 0.8408
38.1800 25.4227 0.8387
38.2000 25.4360 0.8401
38.2200 25.4493 0.8353
38.2400 25.4627 0.8400
38.2600 25.4760 0.8340
38.2800 25.4894 0.8344
38.3000 25.5028 0.8350
38.3200 25.5161 0.8339
38.3400 25.5294 0.8316
38.3600 25.5428 0.8300
38.3800 25.5561 0.8312
38.4000 25.5694 0.8324
38.4200 25.5827 0.8287
38.4400 25.5960 0.8273
38.4600 25.6094 0.8319
38.4800 25.6227 0.8236
38.5000 25.6360 0.8241
38.5200 25.6493 0.8292
38.5400 25.6627 0.8209
38.5600 25.6761 0.8229
38.5800 25.6894 0.8245
38.6000 25.7027 0.8194
38.6200 25.7161 0.8207
38.6400 25.7294 0.8231
38.6600 25.7427 0.8165
38.6800 25.7560 0.8232
38.7000 25.7694 0.8222
38.7200 25.7827 0.8155
38.7400 25.7961 0.8187
38.7600 25.8094 0.8132
38.7800 25.8228 0.8180
38.8000 25.8361 0.8169
38.8200 25.8494 0.8123
38.8400 25.8628 0.8167
38.8600 25.8761 0.8170
38.8800 25.8894 0.8127
38.9000 25.9027 0.8164
38.9200 25.9160 0.8087
38.9400 25.9293 0.8111
38.9600 25.9427 0.8137
38.9800 25.9560 0.8077
39.0000 25.9694 0.8066
39.0200 25.9827 0.8119
39.0400 25.9961 0.8046
39.0600 26.0094 0.8073
39.0800 26.0227 0.8089
39.1000 26.0361 0.8033
39.1200 26.0494 0.8052
39.1400 26.0627 0.8084
39.1600 26.0761 0.7998
39.1800 26.0894 0.8029
39.2000 26.1028 0.7989
39.2200 26.1160 0.7971
39.2400 26.1293 0.8038
39.2600 26.1427 0.8030
39.2800 26.1560 0.7901
39.3000 26.1693 0.7995
39.3200 26.1827 0.7971
39.3400 26.1961 0.7906
39.3600 26.2094 0.7994
39.3800 26.2228 0.7949
39.4000 26.2361 0.7911
39.4200 26.2495 0.7955
39.4400 26.2628 0.7926
39.4600 26.2761 0.7893
39.4800 26.2894 0.7891
39.5000 26.3027 0.7899
39.5200 26.3160 0.7903
39.5400 26.3294 0.7854
39.5600 26.3427 0.7897
39.5800 26.3560 0.7957
39.6000 26.3693 0.7850
39.6200 26.3827 0.7832
39.6400 26.3961 0.7916
39.6600 26.4094 0.7778
39.6800 26.4227 0.7837
39.7000 26.4361 0.7912
39.7200 26.4494 0.7760
39.7400 26.4628 0.7838
39.7600 26.4761 0.7873
39.7800 26.4894 0.7716
39.8000 26.5028 0.7833
39.8200 26.5161 0.7826
39.8400 26.5294 0.7734
39.8600 26.5427 0.7796
39.8800 26.5560 0.7799
39.9000 26.5694 0.7688
39.9200 26.5827 0.7808
39.9400 26.5960 0.7744
39.9600 26.6093 0.7738
39.9800 26.6226 0.7752
40.0000 26.6360 0.7763
40.0200 26.6493 0.7693
40.0400 26.6627 0.7713
40.0600 26.6761 0.7752
40.0800 26.6894 0.7690
40.1000 26.7028 0.7617
40.1200 26.7161 0.7684
40.1400 26.7294 0.7654
40.1600 26.7427 0.7628
40.1800 26.7561 0.7662
40.2000 26.7694 0.7662
40.2200 26.7827 0.7615
40.2400 26.7960 0.7685
40.2600 26.8094 0.7597
40.2800 26.8227 0.7549
40.3000 26.8361 0.7651
40.3200 26.8494 0.7540
40.3400 26.8627 0.7573
40.3600 26.8760 0.7625
40.3800 26.8894 0.7500
40.4000 26.9027 0.7576
40.4200 26.9160 0.7618
40.4400 26.9294 0.7439
40.4600 26.9428 0.7559
40.4800 26.9561 0.7583
40.5000 26.9694 0.7447
40.5200 26.9828 0.7513
40.5400 26.9961 0.7550
40.5600 27.0094 0.7391
40.5800 27.0227 0.7491
40.6000 27.0360 0.7501
40.6200 27.0494 0.7376
40.6400 27.0627 0.7450
40.6600 27.0760 0.7437
40.6800 27.0894 0.7377
40.7000 27.1027 0.7386
40.7200 27.1160 0.7451
40.7400 27.1294 0.7354
40.7600 27.1427 0.7338
40.7800 27.1560 0.7427
40.8000 27.1694 0.7277
40.8200 27.1827 0.7350
40.8400 27.1960 0.7444
40.8600 27.2094 0.7226
40.8800 27.2227 0.7309
40.9000 27.2361 0.7393
40.9200 27.2494 0.7228
40.9400 27.2628 0.7292
40.9600 27.2761 0.7382
40.9800 27.2894 0.7185
41.0000 27.3028 0.7289
41.0200 27.3161 0.7329
41.0400 27.3294 0.7173
41.0600 27.3427 0.7254
41.0800 27.3560 0.7265
41.1000 27.3693 0.7134
41.1200 27.3827 0.7235
41.1400 27.3960 0.7217
41.1600 27.4094 0.7150
41.1800 27.4228 0.7157
41.2000 27.4362 0.7178
41.2200 27.4495 0.7113
41.2400 27.4628 0.7175
41.2600 27.4761 0.7137
41.2800 27.4895 0.7083
41.3000 27.5027 0.7158
41.3200 27.5160 0.7136
41.3400 27.5294 0.7105
41.3600 27.5427 0.7105
41.3800 27.5560 0.7134
41.4000 27.5693 0.7123
41.4200 27.5826 0.7057
41.4400 27.5960 0.7155
41.4600 27.6094 0.7071
41.4800 27.6227 0.7072
41.5000 27.6360 0.7195
41.5200 27.6494 0.7082
41.5400 27.6628 0.7036
41.5600 27.6761 0.7162
41.5800 27.6894 0.7069
41.6000 27.7028 0.7016
41.6200 27.7161 0.7146
41.6400 27.7294 0.7037
41.6600 27.7427 0.6993
41.6800 27.7560 0.7146
41.7000 27.7694 0.7041
41.7200 27.7827 0.7011
41.7400 27.7960 0.7136
41.7600 27.8093 0.6982
41.7800 27.8227 0.7015
41.8000 27.8360 0.7134
41.8200 27.8494 0.7002
41.8400 27.8627 0.7001
41.8600 27.8761 0.7109
41.8800 27.8894 0.6979
41.9000 27.9028 0.6995
41.9200 27.9161 0.7099
41.9400 27.9294 0.6968
41.9600 27.9427 0.7030
41.9800 27.9561 0.7093
42.0000 27.9695 0.6923
42.0200 27.9828 0.6980
42.0400 27.9961 0.7009
42.0600 28.0094 0.6967
42.0800 28.0228 0.6950
42.1000 28.0361 0.6986
42.1200 28.0494 0.6998
42.1400 28.0627 0.6966
42.1600 28.0760 0.6991
42.1800 28.0894 0.6985
42.2000 28.1027 0.6925
42.2200 28.1160 0.7049
42.2400 28.1294 0.6909
42.2600 28.1428 0.6896
42.2800 28.1561 0.7003
42.3000 28.1694 0.6913
42.3200 28.1828 0.6910
42.3400 28.1961 0.6901
42.3600 28.2094 0.6887
42.3800 28.2227 0.6868
42.4000 28.2360 0.6894
42.4200 28.2494 0.6887
42.4400 28.2627 0.6848
42.4600 28.2761 0.6866
42.4800 28.2894 0.6837
42.5000 28.3027 0.6820
42.5200 28.3160 0.6794
42.5400 28.3294 0.6775
42.5600 28.3427 0.6789
42.5800 28.3560 0.6757
42.6000 28.3694 0.6815
42.6200 28.3828 0.6706
42.6400 28.3961 0.6755
42.6600 28.4094 0.6760
42.6800 28.4228 0.6682
42.7000 28.4361 0.6764
42.7200 28.4495 0.6703
42.7400 28.4628 0.6664
42.7600 28.4761 0.6762
42.7800 28.4894 0.6689
42.8000 28.5027 0.6679
42.8200 28.5161 0.6710
42.8400 28.5294 0.6665
42.8600 28.5427 0.6628
42.8800 28.5560 0.6733
42.9000 28.5694 0.6611
42.9200 28.5827 0.6624
42.9400 28.5960 0.6656
42.9600 28.6094 0.6544
42.9800 28.6228 0.6665
43.0000 28.6361 0.6583
43.0200 28.6494 0.6587
43.0400 28.6627 0.6657
43.0600 28.6761 0.6514
43.0800 28.6894 0.6624
43.1000 28.7028 0.6608
43.1200 28.7161 0.6566
43.1400 28.7294 0.6648
43.1600 28.7428 0.6579
43.1800 28.7561 0.6498
43.2000 28.7693 0.6610
43.2200 28.7826 0.6588
43.2400 28.7960 0.6508
43.2600 28.8093 0.6594
43.2800 28.8226 0.6514
43.3000 28.8360 0.6487
43.3200 28.8494 0.6616
43.3400 28.8628 0.6519
43.3600 28.8762 0.6485
43.3800 28.8895 0.6630
43.4000 28.9028 0.6476
43.4200 28.9162 0.6489
43.4400 28.9295 0.6584
43.4600 28.9428 0.6486
43.4800 28.9560 0.6533
43.5000 28.9693 0.6574
43.5200 28.9827 0.6442
43.5400 28.9960 0.6498
43.5600 29.0093 0.6564
43.5800 29.0227 0.6402
43.6000 29.0360 0.6498
43.6200 29.0494 0.6551
43.6400 29.0627 0.6427
43.6600 29.0761 0.6494
43.6800 29.0894 0.6523
43.7000 29.1028 0.6401
43.7200 29.1162 0.6478
43.7400 29.1294 0.6480
43.7600 29.1427 0.6423
43.7800 29.1561 0.6443
43.8000 29.1694 0.6438
43.8200 29.1827 0.6442
43.8400 29.1960 0.6428
43.8600 29.2094 0.6406
43.8800 29.2227 0.6398
43.9000 29.2360 0.6387
43.9200 29.2494 0.6409
43.9400 29.2627 0.6374
43.9600 29.2760 0.6361
43.9800 29.2894 0.6366
44.0000 29.3027 0.6383
44.0200 29.3160 0.6331
44.0400 29.3294 0.6375
44.0600 29.3428 0.6326
44.0800 29.3561 0.6296
44.1000 29.3694 0.6353
44.1200 29.3827 0.6344
44.1400 29.3961 0.6224
44.1600 29.4094 0.6319
44.1800 29.4228 0.6292
44.2000 29.4360 0.6218
44.2200 29.4494 0.6320
44.2400 29.4627 0.6255
44.2600 29.4761 0.6194
44.2800 29.4894 0.6273
44.3000 29.5027 0.6220
44.3200 29.5160 0.6246
44.3400 29.5294 0.6207
44.3600 29.5427 0.6172
44.3800 29.5560 0.6202
44.4000 29.5694 0.6228
44.4200 29.5828 0.6172
44.4400 29.5961 0.6162
44.4600 29.6094 0.6221
44.4800 29.6228 0.6131
44.5000 29.6361 0.6127
44.5200 29.6494 0.6198
44.5400 29.6627 0.6144
44.5600 29.6760 0.6141
44.5800 29.6894 0.6155
44.6000 29.7027 0.6125
44.6200 29.7161 0.6152
44.6400 29.7294 0.6135
44.6600 29.7427 0.6138
44.6800 29.7560 0.6069
44.7000 29.7694 0.6164
44.7200 29.7827 0.6140
44.7400 29.7960 0.6066
44.7600 29.8094 0.6133
44.7800 29.8228 0.6117
44.8000 29.8361 0.6019
44.8200 29.8494 0.6121
44.8400 29.8627 0.6095
44.8600 29.8761 0.6031
44.8800 29.8895 0.6043
44.9000 29.9028 0.6034
44.9200 29.9161 0.6016
44.9400 29.9294 0.6037
44.9600 29.9427 0.6040
44.9800 29.9560 0.5978
45.0000 29.9694 0.5983
45.0200 29.9827 0.5992
45.0400 29.9960 0.5914
45.0600 30.0094 0.5997
45.0800 30.0227 0.5956
45.1000 30.0360 0.5867
45.1200 30.0494 0.5925
45.1400 30.0628 0.5899
45.1600 30.0762 0.5825
45.1800 30.0895 0.5874
45.2000 30.1028 0.5887
45.2200 30.1161 0.5805
45.2400 30.1294 0.5808
45.2600 30.1428 0.5858
45.2800 30.1561 0.5781
45.3000 30.1694 0.5771
45.3200 30.1827 0.5836
45.3400 30.1960 0.5704
45.3600 30.2093 0.5756
45.3800 30.2227 0.5825
45.4000 30.2360 0.5692
45.4200 30.2493 0.5770
45.4400 30.2627 0.5804
45.4600 30.2760 0.5670
45.4800 30.2894 0.5768
45.5000 30.3028 0.5777
45.5200 30.3161 0.5640
45.5400 30.3295 0.5727
45.5600 30.3428 0.5811
45.5800 30.3561 0.5604
45.6000 30.3695 0.5721
45.6200 30.3827 0.5781
45.6400 30.3960 0.5619
45.6600 30.4093 0.5733
45.6800 30.4227 0.5790
45.7000 30.4360 0.5621
45.7200 30.4493 0.5680
45.7400 30.4627 0.5772
45.7600 30.4760 0.5614
45.7800 30.4894 0.5671
45.8000 30.5027 0.5731
45.8200 30.5161 0.5598
45.8400 30.5294 0.5681
45.8600 30.5427 0.5686
45.8800 30.5561 0.5557
45.9000 30.5694 0.5662
45.9200 30.5827 0.5688
45.9400 30.5960 0.5562
45.9600 30.6094 0.5603
45.9800 30.6228 0.5685
46.0000 30.6361 0.5534
46.0200 30.6494 0.5574
46.0400 30.6628 0.5632
46.0600 30.6761 0.5499
46.0800 30.6894 0.5590
46.1000 30.7027 0.5588
46.1200 30.7160 0.5491
46.1400 30.7294 0.5528
46.1600 30.7427 0.5550
46.1800 30.7560 0.5476
46.2000 30.7694 0.5510
46.2200 30.7827 0.5524
46.2400 30.7961 0.5448
46.2600 30.8094 0.5470
46.2800 30.8227 0.5446
46.3000 30.8361 0.5429
46.3200 30.8494 0.5433
46.3400 30.8628 0.5428
46.3600 30.8761 0.5415
46.3800 30.8894 0.5427
46.4000 30.9028 0.5410
46.4200 30.9161 0.5360
46.4400 30.9294 0.5361
46.4600 30.9427 0.5417
46.4800 30.9560 0.5363
46.5000 30.9693 0.5322
46.5200 30.9827 0.5388
46.5400 30.9960 0.5319
46.5600 31.0094 0.5351
46.5800 31.0227 0.5385
46.6000 31.0361 0.5278
46.6200 31.0494 0.5327
46.6400 31.0628 0.5414
46.6600 31.0761 0.5316
46.6800 31.0894 0.5295
46.7000 31.1028 0.5371
46.7200 31.1161 0.5274
46.7400 31.1294 0.5311
46.7600 31.1427 0.5326
46.7800 31.1561 0.5279
46.8000 31.1694 0.5301
46.8200 31.1827 0.5368
46.8400 31.1960 0.5328
46.8600 31.2094 0.5261
46.8800 31.2227 0.5344
46.9000 31.2361 0.5246
46.9200 31.2494 0.5292
46.9400 31.2627 0.5333
46.9600 31.2761 0.5251
46.9800 31.2894 0.5272
47.0000 31.3028 0.5309
47.0200 31.3161 0.5261
47.0400 31.3295 0.5249
47.0600 31.3428 0.5278
47.0800 31.3561 0.5299
47.1000 31.3694 0.5202
47.1200 31.3827 0.5271
47.1400 31.3961 0.5245
47.1600 31.4094 0.5209
47.1800 31.4227 0.5233
47.2000 31.4360 0.5212
47.2200 31.4493 0.5191
47.2400 31.4627 0.5200
47.2600 31.4760 0.5228
47.2800 31.4894 0.5204
47.3000 31.5027 0.5185
47.3200 31.5161 0.5213
47.3400 31.5294 0.5156
47.3600 31.5427 0.5162
47.3800 31.5561 0.5234
47.4000 31.5694 0.5137
47.4200 31.5828 0.5176
47.4400 31.5961 0.5206
47.4600 31.6094 0.5121
47.4800 31.6227 0.5144
47.5000 31.6361 0.5205
47.5200 31.6494 0.5060
47.5400 31.6627 0.5148
47.5600 31.6760 0.5201
47.5800 31.6894 0.5029
47.6000 31.7027 0.5120
47.6200 31.7160 0.5189
47.6400 31.7294 0.5033
47.6600 31.7427 0.5103
47.6800 31.7561 0.5157
47.7000 31.7695 0.5071
47.7200 31.7828 0.5102
47.7400 31.7961 0.5141
47.7600 31.8094 0.5057
47.7800 31.8228 0.5072
47.8000 31.8361 0.5132
47.8200 31.8494 0.5027
47.8400 31.8627 0.5093
47.8600 31.8760 0.5129
47.8800 31.8894 0.4979
47.9000 31.9027 0.5081
47.9200 31.9160 0.5126
47.9400 31.9294 0.4994
47.9600 31.9427 0.5017
47.9800 31.9560 0.5101
48.0000 31.9693 0.4996
48.0200 31.9827 0.5012
48.0400 31.9960 0.5065
48.0600 32.0094 0.4945
48.0800 32.0227 0.4970
48.1000 32.0360 0.5046
48.1200 32.0494 0.4939
48.1400 32.0628 0.4938
48.1600 32.0761 0.5022
48.1800 32.0894 0.4919
48.2000 32.1028 0.4930
48.2200 32.1161 0.5041
48.2400 32.1294 0.4874
48.2600 32.1427 0.4901
48.2800 32.1560 0.4980
48.3000 32.1693 0.4836
48.3200 32.1827 0.4926
48.3400 32.1960 0.4929
48.3600 32.2093 0.4858
48.3800 32.2227 0.4872
48.4000 32.2361 0.4907
48.4200 32.2495 0.4790
48.4400 32.2628 0.4850
48.4600 32.2761 0.4936
48.4800 32.2895 0.4790
48.5000 32.3028 0.4824
48.5200 32.3161 0.4880
48.5400 32.3294 0.4769
48.5600 32.3427 0.4783
48.5800 32.3560 0.4866
48.6000 32.3694 0.4792
48.6200 32.3827 0.4696
48.6400 32.3960 0.4862
48.6600 32.4093 0.4745
48.6800 32.4227 0.4690
48.7000 32.4360 0.4819
48.7200 32.4494 0.4685
48.7400 32.4627 0.4687
48.7600 32.4761 0.4763
48.7800 32.4895 0.4717
48.8000 32.5028 0.4667
48.8200 32.5161 0.4713
48.8400 32.5295 0.4644
48.8600 32.5428 0.4625
48.8800 32.5561 0.4737
48.9000 32.5694 0.4602
48.9200 32.5827 0.4600
48.9400 32.5960 0.4700
48.9600 32.6094 0.4570
48.9800 32.6227 0.4639
49.0000 32.6360 0.4707
49.0200 32.6493 0.4565
49.0400 32.6627 0.4591
49.0600 32.6761 0.4664
49.0800 32.6894 0.4547
49.1000 32.7027 0.4613
49.1200 32.7161 0.4622
49.1400 32.7295 0.4545
49.1600 32.7428 0.4599
49.1800 32.7561 0.4627
49.2000 32.7694 0.4557
49.2200 32.7828 0.4609
49.2400 32.7961 0.4602
49.2600 32.8094 0.4497
49.2800 32.8227 0.4639
49.3000 32.8361 0.4585
49.3200 32.8494 0.4512
49.3400 32.8627 0.4617
49.3600 32.8760 0.4536
49.3800 32.8893 0.4584
49.4000 32.9027 0.4590
49.4200 32.9161 0.4532
49.4400 32.9294 0.4563
49.4600 32.9427 0.4541
49.4800 32.9561 0.4489
49.5000 32.9695 0.4565
49.5200 32.9828 0.4534
49.5400 32.9961 0.4451
49.5600 33.0094 0.4555
49.5800 33.0228 0.4456
49.6000 33.0361 0.4510
49.6200 33.0494 0.4565
49.6400 33.0627 0.4450
49.6600 33.0760 0.4459
49.6800 33.0894 0.4535
49.7000 33.1027 0.4406
49.7200 33.1160 0.4466
49.7400 33.1294 0.4533
49.7600 33.1427 0.4339
49.7800 33.1560 0.4438
49.8000 33.1694 0.4507
49.8200 33.1827 0.4334
49.8400 33.1961 0.4479
49.8600 33.2094 0.4383
49.8800 33.2228 0.4337
49.9000 33.2361 0.4372
49.9200 33.2494 0.4374
49.9400 33.2628 0.4365
49.9600 33.2761 0.4359
49.9800 33.2894 0.4343
50.0000 33.3027 0.4341
50.0200 33.3161 0.4365
50.0400 33.3294 0.4284
50.0600 33.3427 0.4274
50.0800 33.3560 0.4355
50.1000 33.3693 0.4204
50.1200 33.3827 0.4256
50.1400 33.3960 0.4271
50.1600 33.4094 0.4221
50.1800 33.4227 0.4253
50.2000 33.4361 0.4189
50.2200 33.4494 0.4210
50.2400 33.4627 0.4203
50.2600 33.4761 0.4152
50.2800 33.4894 0.4209
50.3000 33.5028 0.4201
50.3200 33.5161 0.4077
50.3400 33.5294 0.4242
50.3600 33.5427 0.4160
50.3800 33.5561 0.4076
50.4000 33.5694 0.4220
50.4200 33.5827 0.4074
50.4400 33.5960 0.4066
50.4600 33.6093 0.4212
50.4800 33.6227 0.4030
50.5000 33.6360 0.4063
50.5200 33.6493 0.4139
50.5400 33.6627 0.3975
50.5600 33.6761 0.4049
50.5800 33.6895 0.4101
50.6000 33.7028 0.3936
50.6200 33.7161 0.4049
50.6400 33.7295 0.4076
50.6600 33.7428 0.3920
50.6800 33.7561 0.4071
50.7000 33.7694 0.4114
50.7200 33.7827 0.3912
50.7400 33.7960 0.4035
50.7600 33.8094 0.4059
50.7800 33.8227 0.3933
50.8000 33.8360 0.3994
50.8200 33.8494 0.4054
50.8400 33.8627 0.3922
50.8600 33.8761 0.3940
50.8800 33.8894 0.4022
50.9000 33.9027 0.3941
50.9200 33.9161 0.3963
50.9400 33.9295 0.3966
50.9600 33.9428 0.3922
50.9800 33.9561 0.3981
51.0000 33.9694 0.3991
51.0200 33.9827 0.3886
51.0400 33.9961 0.4007
51.0600 34.0094 0.3980
51.0800 34.0227 0.3890
51.1000 34.0360 0.4025
51.1200 34.0494 0.3979
51.1400 34.0627 0.3860
51.1600 34.0760 0.3969
51.1800 34.0893 0.4000
51.2000 34.1027 0.3884
51.2200 34.1161 0.3923
51.2400 34.1294 0.4015
51.2600 34.1427 0.3819
51.2800 34.1561 0.3930
51.3000 34.1695 0.4006
51.3200 34.1828 0.3829
51.3400 34.1961 0.3892
51.3600 34.2094 0.4006
51.3800 34.2228 0.3788
51.4000 34.2361 0.3853
51.4200 34.2494 0.3932
51.4400 34.2627 0.3794
51.4600 34.2761 0.3914
51.4800 34.2894 0.3892
51.5000 34.3027 0.3760
51.5200 34.3160 0.3898
51.5400 34.3293 0.3873
51.5600 34.3427 0.3697
51.5800 34.3560 0.3850
51.6000 34.3694 0.3852
51.6200 34.3827 0.3709
51.6400 34.3961 0.3870
51.6600 34.4094 0.3779
51.6800 34.4228 0.3675
51.7000 34.4361 0.3841
51.7200 34.4494 0.3727
51.7400 34.4628 0.3723
51.7600 34.4761 0.3785
51.7800 34.4894 0.3755
51.8000 34.5027 0.3761
51.8200 34.5160 0.3745
51.8400 34.5294 0.3702
51.8600 34.5427 0.3687
51.8800 34.5560 0.3727
51.9000 34.5694 0.3703
51.9200 34.5827 0.3689
51.9400 34.5960 0.3658
51.9600 34.6094 0.3647
51.9800 34.6227 0.3726
52.0000 34.6360 0.3615
52.0200 34.6494 0.3677
52.0400 34.6627 0.3644
52.0600 34.6761 0.3560
52.0800 34.6894 0.3673
52.1000 34.7028 0.3642
52.1200 34.7161 0.3511
52.1400 34.7294 0.3654
52.1600 34.7427 0.3588
52.1800 34.7560 0.3496
52.2000 34.7694 0.3619
52.2200 34.7827 0.3568
52.2400 34.7960 0.3490
52.2600 34.8093 0.3611
52.2800 34.8227 0.3509
52.3000 34.8360 0.3477
52.3200 34.8494 0.3604
52.3400 34.8627 0.3498
52.3600 34.8761 0.3498
52.3800 34.8895 0.3581
52.4000 34.9028 0.3437
52.4200 34.9161 0.3472
52.4400 34.9294 0.3557
52.4600 34.9428 0.3472
52.4800 34.9561 0.3491
52.5000 34.9694 0.3541
52.5200 34.9827 0.3483
52.5400 34.9960 0.3475
52.5600 35.0094 0.3500
52.5800 35.0227 0.3466
52.6000 35.0360 0.3443
52.6200 35.0493 0.3509
52.6400 35.0627 0.3465
52.6600 35.0760 0.3437
52.6800 35.0894 0.3521
52.7000 35.1027 0.3437
52.7200 35.1161 0.3422
52.7400 35.1294 0.3454
52.7600 35.1428 0.3451
52.7800 35.1561 0.3377
52.8000 35.1694 0.3474
52.8200 35.1828 0.3463
52.8400 35.1961 0.3350
52.8600 35.2094 0.3430
52.8800 35.2227 0.3433
52.9000 35.2360 0.3331
52.9200 35.2493 0.3434
52.9400 35.2627 0.3351
52.9600 35.2760 0.3276
52.9800 35.2893 0.3361
53.0000 35.3027 0.3329
53.0200 35.3161 0.3279
53.0400 35.3294 0.3335
53.0600 35.3428 0.3256
53.0800 35.3561 0.3254
53.1000 35.3695 0.3311
53.1200 35.3828 0.3207
53.1400 35.3961 0.3246
53.1600 35.4094 0.3293
53.1800 35.4227 0.3213
53.2000 35.4361 0.3207
53.2200 35.4494 0.3261
53.2400 35.4627 0.3154
53.2600 35.4761 0.3220
53.2800 35.4894 0.3203
53.3000 35.5028 0.3127
53.3200 35.5161 0.3195
53.3400 35.5293 0.3192
53.3600 35.5427 0.3084
53.3800 35.5560 0.3134
53.4000 35.5693 0.3170
53.4200 35.5827 0.3120
53.4400 35.5960 0.3134
53.4600 35.6094 0.3160
53.4800 35.6228 0.3026
53.5000 35.6361 0.3079
53.5200 35.6494 0.3154
53.5400 35.6628 0.3060
53.5600 35.6761 0.3067
53.5800 35.6894 0.3067
53.6000 35.7027 0.3038
53.6200 35.7161 0.3091
53.6400 35.7294 0.3064
53.6600 35.7427 0.3019
53.6800 35.7560 0.3061
53.7000 35.7693 0.3003
53.7200 35.7827 0.3002
53.7400 35.7960 0.3044
53.7600 35.8094 0.2982
53.7800 35.8227 0.2945
53.8000 35.8360 0.3024
53.8200 35.8494 0.2920
53.8400 35.8628 0.2914
53.8600 35.8761 0.3029
53.8800 35.8894 0.2879
53.9000 35.9028 0.2952
53.9200 35.9161 0.2966
53.9400 35.9294 0.2831
53.9600 35.9427 0.2955
53.9800 35.9560 0.2923
54.0000 35.9694 0.2831
54.0200 35.9827 0.2916
54.0400 35.9960 0.2899
54.0600 36.0093 0.2816
54.0800 36.0227 0.2896
54.1000 36.0360 0.2874
54.1200 36.0494 0.2814
54.1400 36.0627 0.2856
54.1600 36.0760 0.2853
54.1800 36.0894 0.2807
54.2000 36.1027 0.2835
54.2200 36.1161 0.2800
54.2400 36.1294 0.2819
54.2600 36.1428 0.2794
54.2800 36.1562 0.2785
54.3000 36.1695 0.2735
54.3200 36.1828 0.2734
54.3400 36.1961 0.2815
54.3600 36.2094 0.2684
54.3800 36.2227 0.2729
54.4000 36.2360 0.2758
54.4200 36.2493 0.2654
54.4400 36.2627 0.2719
54.4600 36.2760 0.2751
54.4800 36.2894 0.2585
54.5000 36.3027 0.2720
54.5200 36.3161 0.2708
54.5400 36.3294 0.2567
54.5600 36.3428 0.2713
54.5800 36.3561 0.2677
54.6000 36.3694 0.2608
54.6200 36.3828 0.2701
54.6400 36.3961 0.2668
54.6600 36.4094 0.2587
54.6800 36.4227 0.2665
54.7000 36.4360 0.2636
54.7200 36.4494 0.2555
54.7400 36.4627 0.2658
54.7600 36.4760 0.2587
54.7800 36.4894 0.2517
54.8000 36.5027 0.2638
54.8200 36.5160 0.2619
54.8400 36.5294 0.2524
54.8600 36.5427 0.2641
54.8800 36.5560 0.2570
54.9000 36.5694 0.2451
54.9200 36.5828 0.2618
54.9400 36.5961 0.2556
54.9600 36.6094 0.2475
54.9800 36.6227 0.2625
55.0000 36.6361 0.2531
55.0200 36.6494 0.2434
55.0400 36.6627 0.2527
55.0600 36.6760 0.2610
55.0800 36.6893 0.2493
55.1000 36.7027 0.2503
55.1200 36.7160 0.2572
55.1400 36.7293 0.2449
55.1600 36.7426 0.2563
55.1800 36.7560 0.2528
55.2000 36.7694 0.2453
55.2200 36.7827 0.2502
55.2400 36.7960 0.2540
55.2600 36.8094 0.2460
55.2800 36.8227 0.2468
55.3000 36.8360 0.2505
55.3200 36.8494 0.2458
55.3400 36.8627 0.2450
55.3600 36.8761 0.2537
55.3800 36.8895 0.2413
55.4000 36.9028 0.2463
55.4200 36.9161 0.2516
55.4400 36.9294 0.2385
55.4600 36.9428 0.2424
55.4800 36.9561 0.2467
55.5000 36.9694 0.2405
55.5200 36.9826 0.2386
55.5400 36.9960 0.2432
55.5600 37.0093 0.2361
55.5800 37.0227 0.2364
55.6000 37.0360 0.2473
55.6200 37.0494 0.2309
55.6400 37.0628 0.2327
55.6600 37.0762 0.2387
55.6800 37.0895 0.2279
55.7000 37.1028 0.2315
55.7200 37.1161 0.2403
55.7400 37.1295 0.2263
55.7600 37.1428 0.2283
55.7800 37.1561 0.2331
55.8000 37.1694 0.2212
55.8200 37.1827 0.2253
55.8400 37.1960 0.2286
55.8600 37.2093 0.2197
55.8800 37.2226 0.2244
55.9000 37.2360 0.2234
55.9200 37.2493 0.2201
55.9400 37.2627 0.2179
55.9600 37.2760 0.2242
55.9800 37.2894 0.2127
56.0000 37.3028 0.2109
56.0200 37.3161 0.2183
56.0400 37.3294 0.2076
56.0600 37.3428 0.2094
56.0800 37.3561 0.2142
56.1000 37.3695 0.2060
56.1200 37.3828 0.2060
56.1400 37.3961 0.2081
56.1600 37.4094 0.2019
56.1800 37.4227 0.2060
56.2000 37.4360 0.2044
56.2200 37.4493 0.1979
56.2400 37.4627 0.2011
56.2600 37.4760 0.2062
56.2800 37.4894 0.1897
56.3000 37.5027 0.1989
56.3200 37.5160 0.2058
56.3400 37.5294 0.1864
56.3600 37.5428 0.1973
56.3800 37.5561 0.2000
56.4000 37.5694 0.1851
56.4200 37.5827 0.1941
56.4400 37.5961 0.1952
56.4600 37.6094 0.1858
56.4800 37.6228 0.1869
56.5000 37.6361 0.1903
56.5200 37.6494 0.1798
56.5400 37.6627 0.1837
56.5600 37.6761 0.1832
56.5800 37.6893 0.1820
56.6000 37.7026 0.1893
56.6200 37.7160 0.1750
56.6400 37.7294 0.1814
56.6600 37.7427 0.1840
56.6800 37.7560 0.1708
56.7000 37.7694 0.1800
56.7200 37.7828 0.1775
56.7400 37.7961 0.1728
56.7600 37.8094 0.1767
56.7800 37.8228 0.1727
56.8000 37.8361 0.1747
56.8200 37.8494 0.1707
56.8400 37.8627 0.1664
56.8600 37.8760 0.1705
56.8800 37.8894 0.1711
56.9000 37.9027 0.1629
56.9200 37.9161 0.1743
56.9400 37.9294 0.1637
56.9600 37.9427 0.1607
56.9800 37.9560 0.1694
57.0000 37.9694 0.1591
57.0200 37.9827 0.1558
57.0400 37.9960 0.1628
57.0600 38.0094 0.1560
57.0800 38.0228 0.1530
57.1000 38.0361 0.1563
57.1200 38.0494 0.1552
57.1400 38.0628 0.1537
57.1600 38.0761 0.1537
57.1800 38.0895 0.1478
57.2000 38.1028 0.1495
57.2200 38.1161 0.1526
57.2400 38.1294 0.1455
57.2600 38.1427 0.1452
57.2800 38.1561 0.1490
57.3000 38.1694 0.1464
57.3200 38.1827 0.1418
57.3400 38.1960 0.1506
57.3600 38.2094 0.1489
57.3800 38.2227 0.1382
57.4000 38.2360 0.1437
57.4200 38.2494 0.1441
57.4400 38.2628 0.1431
57.4600 38.2761 0.1363
57.4800 38.2894 0.1412
57.5000 38.3027 0.1420
57.5200 38.3161 0.1363
57.5400 38.3295 0.1407
57.5600 38.3428 0.1344
57.5800 38.3561 0.1302
57.6000 38.3694 0.1399
57.6200 38.3827 0.1361
57.6400 38.3961 0.1269
57.6600 38.4093 0.1415
57.6800 38.4226 0.1322
57.7000 38.4360 0.1269
57.7200 38.4493 0.1329
57.7400 38.4627 0.1310
57.7600 38.4760 0.1252
57.7800 38.4894 0.1295
57.8000 38.5028 0.1251
57.8200 38.5161 0.1232
57.8400 38.5295 0.1248
57.8600 38.5428 0.1211
57.8800 38.5561 0.1203
57.9000 38.5695 0.1209
57.9200 38.5828 0.1159
57.9400 38.5960 0.1203
57.9600 38.6093 0.1163
57.9800 38.6227 0.1174
58.0000 38.6360 0.1096
58.0200 38.6493 0.1085
58.0400 38.6627 0.1156
58.0600 38.6760 0.1038
58.0800 38.6894 0.1062
58.1000 38.7027 0.1124
58.1200 38.7161 0.1001
58.1400 38.7294 0.1035
58.1600 38.7428 0.1080
58.1800 38.7561 0.0961
58.2000 38.7694 0.1021
58.2200 38.7827 0.1048
58.2400 38.7961 0.0920
58.2600 38.8094 0.1011
58.2800 38.8228 0.0988
58.3000 38.8361 0.0884
58.3200 38.8494 0.0986
58.3400 38.8627 0.0895
58.3600 38.8761 0.0852
58.3800 38.8894 0.0930
58.4000 38.9027 0.0884
58.4200 38.9160 0.0816
58.4400 38.9294 0.0885
58.4600 38.9427 0.0814
58.4800 38.9561 0.0770
58.5000 38.9694 0.0855
58.5200 38.9828 0.0758
58.5400 38.9961 0.0713
58.5600 39.0094 0.0817
58.5800 39.0227 0.0694
58.6000 39.0361 0.0677
58.6200 39.0495 0.0766
58.6400 39.0628 0.0617
58.6600 39.0761 0.0629
58.6800 39.0894 0.0784
58.7000 39.1027 0.0615
58.7200 39.1161 0.0617
58.7400 39.1293 0.0675
58.7600 39.1427 0.0587
58.7800 39.1560 0.0639
58.8000 39.1694 0.0626
58.8200 39.1827 0.0578
58.8400 39.1960 0.0603
58.8600 39.2094 0.0621
58.8800 39.2227 0.0561
58.9000 39.2361 0.0559
58.9200 39.2494 0.0591
58.9400 39.2628 0.0536
58.9600 39.2761 0.0544
58.9800 39.2895 0.0575
59.0000 39.3028 0.0512
59.0200 39.3161 0.0519
59.0400 39.3294 0.0550
59.0600 39.3427 0.0565
59.0800 39.3561 0.0490
59.1000 39.3694 0.0551
59.1200 39.3827 0.0560
59.1400 39.3960 0.0424
59.1600 39.4094 0.0499
59.1800 39.4227 0.0561
59.2000 39.4360 0.0410
59.2200 39.4494 0.0522
59.2400 39.4627 0.0530
59.2600 39.4761 0.0388
59.2800 39.4894 0.0500
59.3000 39.5027 0.0531
59.3200 39.5161 0.0353
59.3400 39.5295 0.0544
59.3600 39.5428 0.0457
59.3800 39.5561 0.0360
59.4000 39.5694 0.0559
59.4200 39.5827 0.0421
59.4400 39.5960 0.0384
59.4600 39.6094 0.0527
59.4800 39.6227 0.0397
59.5000 39.6360 0.0398
59.5200 39.6494 0.0490
59.5400 39.6627 0.0339
59.5600 39.6760 0.0447
59.5800 39.6894 0.0406
59.6000 39.7028 0.0305
59.6200 39.7161 0.0375
59.6400 39.7295 0.0322
59.6600 39.7428 0.0242
59.6800 39.7561 0.0360
59.7000 39.7694 0.0281
59.7200 39.7828 0.0229
59.7400 39.7961 0.0251
59.7600 39.8094 0.0158
59.7800 39.8227 0.0203
59.8000 39.8361 0.0168
59.8200 39.8494 0.0065
59.8400 39.8627 0.0156
59.8600 39.8760 0.0063
59.8800 39.8893 0.0040
59.9000 39.9027 0.0080
59.9200 39.9160 -0.0017
59.9400 39.9294 -0.0036
59.9600 39.9428 0.0016
59.9800 39.9561 -0.0118
60.0000 39.9695 -0.0070
60.0200 39.9828 0.0001
60.0400 39.9961 -0.0254
60.0470 40.0006 -0.0421
