Raw Data
Time Displacement Force
(s) (mm) (N)
0.0000 0.0000 0.2440
0.0200 0.0001 0.2591
0.0400 0.0022 0.3226
0.0600 0.0100 0.3235
0.0800 0.0218 0.2398
0.1000 0.0343 0.2422
0.1200 0.0470 0.2812
0.1400 0.0604 0.2483
0.1600 0.0745 0.2499
0.1800 0.0887 0.2558
0.2000 0.1026 0.2411
0.2200 0.1162 0.2474
0.2400 0.1295 0.2643
0.2600 0.1428 0.2475
0.2800 0.1562 0.2600
0.3000 0.1696 0.2600
0.3200 0.1829 0.2431
0.3400 0.1963 0.2634
0.3600 0.2096 0.2559
0.3800 0.2230 0.2536
0.4000 0.2363 0.2619
0.4200 0.2496 0.2531
0.4400 0.2629 0.2573
0.4600 0.2762 0.2561
0.4800 0.2896 0.2569
0.5000 0.3029 0.2588
0.5200 0.3163 0.2535
0.5400 0.3296 0.2607
0.5600 0.3429 0.2573
0.5800 0.3563 0.2581
0.6000 0.3696 0.2605
0.6200 0.3830 0.2567
0.6400 0.3963 0.2529
0.6600 0.4097 0.2560
0.6800 0.4230 0.2590
0.7000 0.4363 0.2489
0.7200 0.4497 0.2585
0.7400 0.4630 0.2535
0.7600 0.4763 0.2504
0.7800 0.4897 0.2568
0.8000 0.5030 0.2516
0.8200 0.5163 0.2554
0.8400 0.5296 0.2571
0.8600 0.5430 0.2526
0.8800 0.5562 0.2498
0.9000 0.5695 0.2602
0.9200 0.5829 0.2548
0.9400 0.5962 0.2471
0.9600 0.6096 0.2584
0.9800 0.6229 0.2526
1.0000 0.6363 0.2444
1.0200 0.6496 0.2577
1.0400 0.6630 0.2485
1.0600 0.6763 0.2480
1.0800 0.6897 0.2527
1.1000 0.7030 0.2498
1.1200 0.7163 0.2482
1.1400 0.7296 0.2525
1.1600 0.7429 0.2505
1.1800 0.7563 0.2478
1.2000 0.7696 0.2543
1.2200 0.7830 0.2493
1.2400 0.7963 0.2478
1.2600 0.8096 0.2593
1.2800 0.8229 0.2484
1.3000 0.8363 0.2512
1.3200 0.8496 0.2501
1.3400 0.8629 0.2483
1.3600 0.8763 0.2538
1.3800 0.8896 0.2523
1.4000 0.9030 0.2446
1.4200 0.9163 0.2473
1.4400 0.9296 0.2533
1.4600 0.9430 0.2424
1.4800 0.9563 0.2443
1.5000 0.9697 0.2477
1.5200 0.9830 0.2399
1.5400 0.9963 0.2481
1.5600 1.0096 0.2474
1.5800 1.0229 0.2449
1.6000 1.0363 0.2464
1.6200 1.0496 0.2443
1.6400 1.0629 0.2420
1.6600 1.0763 0.2443
1.6800 1.0896 0.2444
1.7000 1.1029 0.2355
1.7200 1.1163 0.2442
1.7400 1.1297 0.2397
1.7600 1.1431 0.2368
1.7800 1.1564 0.2395
1.8000 1.1697 0.2425
1.8200 1.1830 0.2394
1.8400 1.1964 0.2361
1.8600 1.2097 0.2415
1.8800 1.2230 0.2423
1.9000 1.2363 0.2376
1.9200 1.2496 0.2438
1.9400 1.2630 0.2399
1.9600 1.2763 0.2400
1.9800 1.2896 0.2395
2.0000 1.3029 0.2433
2.0200 1.3162 0.2385
2.0400 1.3296 0.2389
2.0600 1.3429 0.2365
2.0800 1.3563 0.2377
2.1000 1.3697 0.2418
2.1200 1.3830 0.2397
2.1400 1.3964 0.2347
2.1600 1.4097 0.2436
2.1800 1.4230 0.2389
2.2000 1.4363 0.2340
2.2200 1.4497 0.2438
2.2400 1.4629 0.2401
2.2600 1.4762 0.2315
2.2800 1.4896 0.2398
2.3000 1.5029 0.2396
2.3200 1.5163 0.2294
2.3400 1.5296 0.2387
2.3600 1.5429 0.2396
2.3800 1.5563 0.2312
2.4000 1.5697 0.2376
2.4200 1.5830 0.2378
2.4400 1.5963 0.2336
2.4600 1.6096 0.2379
2.4800 1.6230 0.2341
2.5000 1.6363 0.2347
2.5200 1.6496 0.2362
2.5400 1.6629 0.2331
2.5600 1.6763 0.2333
2.5800 1.6897 0.2338
2.6000 1.7030 0.2299
2.6200 1.7163 0.2364
2.6400 1.7296 0.2338
2.6600 1.7430 0.2341
2.6800 1.7563 0.2309
2.7000 1.7696 0.2323
2.7200 1.7829 0.2363
2.7400 1.7963 0.2310
2.7600 1.8096 0.2265
2.7800 1.8229 0.2331
2.8000 1.8362 0.2290
2.8200 1.8496 0.2291
2.8400 1.8630 0.2345
2.8600 1.8763 0.2297
2.8800 1.8897 0.2266
2.9000 1.9030 0.2341
2.9200 1.9163 0.2239
2.9400 1.9297 0.2265
2.9600 1.9430 0.2341
2.9800 1.9563 0.2246
3.0000 1.9696 0.2264
3.0200 1.9830 0.2331
3.0400 1.9963 0.2224
3.0600 2.0096 0.2258
3.0800 2.0229 0.2319
3.1000 2.0362 0.2204
3.1200 2.0496 0.2267
3.1400 2.0629 0.2293
3.1600 2.0763 0.2165
3.1800 2.0896 0.2310
3.2000 2.1030 0.2244
3.2200 2.1164 0.2173
3.2400 2.1297 0.2290
3.2600 2.1430 0.2234
3.2800 2.1564 0.2223
3.3000 2.1697 0.2259
3.3200 2.1830 0.2216
3.3400 2.1963 0.2202
3.3600 2.2096 0.2264
3.3800 2.2230 0.2196
3.4000 2.2363 0.2226
3.4200 2.2496 0.2226
3.4400 2.2629 0.2211
3.4600 2.2763 0.2256
3.4800 2.2896 0.2208
3.5000 2.3030 0.2187
3.5200 2.3163 0.2268
3.5400 2.3296 0.2184
3.5600 2.3430 0.2191
3.5800 2.3563 0.2254
3.6000 2.3697 0.2165
3.6200 2.3830 0.2173
3.6400 2.3964 0.2227
3.6600 2.4097 0.2123
3.6800 2.4230 0.2212
3.7000 2.4363 0.2189
3.7200 2.4496 0.2133
3.7400 2.4630 0.2235
3.7600 2.4763 0.2183
3.7800 2.4896 0.2112
3.8000 2.5029 0.2230
3.8200 2.5162 0.2194
3.8400 2.5296 0.2085
3.8600 2.5429 0.2202
3.8800 2.5563 0.2152
3.9000 2.5696 0.2106
3.9200 2.5830 0.2211
3.9400 2.5964 0.2143
3.9600 2.6097 0.2152
3.9800 2.6230 0.2167
4.0000 2.6363 0.2118
4.0200 2.6497 0.2155
4.0400 2.6630 0.2158
4.0600 2.6763 0.2138
4.0800 2.6896 0.2126
4.1000 2.7029 0.2130
4.1200 2.7163 0.2120
4.1400 2.7296 0.2162
4.1600 2.7429 0.2119
4.1800 2.7562 0.2091
4.2000 2.7696 0.2096
4.2200 2.7829 0.2083
4.2400 2.7962 0.2140
4.2600 2.8096 0.2135
4.2800 2.8230 0.2053
4.3000 2.8364 0.2162
4.3200 2.8497 0.2070
4.3400 2.8630 0.2003
4.3600 2.8763 0.2190
4.3800 2.8897 0.2056
4.4000 2.9030 0.2060
4.4200 2.9163 0.2190
4.4400 2.9296 0.2071
4.4600 2.9429 0.2052
4.4800 2.9563 0.2217
4.5000 2.9696 0.1988
4.5200 2.9829 0.2049
4.5400 2.9963 0.2217
4.5600 3.0096 0.1972
4.5800 3.0230 0.2057
4.6000 3.0363 0.2198
4.6200 3.0496 0.2017
4.6400 3.0629 0.2057
4.6600 3.0763 0.2154
4.6800 3.0896 0.1998
4.7000 3.1029 0.2047
4.7200 3.1163 0.2195
4.7400 3.1297 0.1964
4.7600 3.1430 0.2070
4.7800 3.1563 0.2119
4.8000 3.1697 0.1998
4.8200 3.1830 0.2064
4.8400 3.1963 0.2106
4.8600 3.2096 0.1964
4.8800 3.2229 0.2067
4.9000 3.2362 0.2098
4.9200 3.2496 0.2001
4.9400 3.2629 0.2036
4.9600 3.2762 0.2066
4.9800 3.2896 0.1999
5.0000 3.3030 0.2058
5.0200 3.3164 0.2009
5.0400 3.3297 0.2038
5.0600 3.3430 0.2032
5.0800 3.3564 0.2015
5.1000 3.3697 0.2045
5.1200 3.3830 0.1966
5.1400 3.3963 0.2051
5.1600 3.4096 0.2062
5.1800 3.4229 0.1973
5.2000 3.4363 0.2037
5.2200 3.4496 0.2012
5.2400 3.4629 0.1925
5.2600 3.4762 0.2062
5.2800 3.4896 0.2031
5.3000 3.5029 0.1869
5.3200 3.5162 0.2042
5.3400 3.5296 0.1971
5.3600 3.5430 0.1882
5.3800 3.5564 0.2083
5.4000 3.5697 0.1941
5.4200 3.5830 0.1873
5.4400 3.5964 0.2074
5.4600 3.6097 0.1932
5.4800 3.6230 0.1883
5.5000 3.6363 0.2066
5.5200 3.6496 0.1900
5.5400 3.6629 0.1908
5.5600 3.6763 0.1977
5.5800 3.6896 0.1940
5.6000 3.7029 0.1917
5.6200 3.7162 0.1957
5.6400 3.7296 0.1906
5.6600 3.7430 0.1868
5.6800 3.7563 0.1977
5.7000 3.7696 0.1908
5.7200 3.7830 0.1903
5.7400 3.7963 0.1955
5.7600 3.8097 0.1893
5.7800 3.8230 0.1937
5.8000 3.8363 0.1951
5.8200 3.8497 0.1905
5.8400 3.8630 0.1947
5.8600 3.8763 0.1914
5.8800 3.8897 0.1931
5.9000 3.9030 0.1952
5.9200 3.9163 0.1932
5.9400 3.9296 0.1917
5.9600 3.9429 0.1907
5.9800 3.9562 0.1945
6.0000 3.9696 0.1927
6.0200 3.9829 0.1845
6.0400 3.9963 0.1956
6.0600 4.0096 0.1960
6.0800 4.0230 0.1858
6.1000 4.0364 0.1910
6.1200 4.0497 0.1971
6.1400 4.0630 0.1882
6.1600 4.0763 0.1939
6.1800 4.0897 0.1928
6.2000 4.1030 0.1851
6.2200 4.1163 0.1974
6.2400 4.1296 0.1951
6.2600 4.1430 0.1835
6.2800 4.1563 0.1956
6.3000 4.1696 0.1902
6.3200 4.1829 0.1815
6.3400 4.1962 0.1965
6.3600 4.2096 0.1882
6.3800 4.2229 0.1793
6.4000 4.2362 0.1938
6.4200 4.2496 0.1834
6.4400 4.2630 0.1856
6.4600 4.2763 0.1933
6.4800 4.2897 0.1756
6.5000 4.3030 0.1830
6.5200 4.3163 0.1918
6.5400 4.3297 0.1799
6.5600 4.3430 0.1831
6.5800 4.3563 0.1896
6.6000 4.3696 0.1780
6.6200 4.3829 0.1831
6.6400 4.3963 0.1849
6.6600 4.4096 0.1799
6.6800 4.4229 0.1818
6.7000 4.4362 0.1814
6.7200 4.4496 0.1868
6.7400 4.4629 0.1812
6.7600 4.4763 0.1840
6.7800 4.4896 0.1871
6.8000 4.5030 0.1737
6.8200 4.5163 0.1820
6.8400 4.5297 0.1852
6.8600 4.5430 0.1783
6.8800 4.5563 0.1797
6.9000 4.5697 0.1873
6.9200 4.5830 0.1729
6.9400 4.5963 0.1806
6.9600 4.6096 0.1863
6.9800 4.6230 0.1746
7.0000 4.6363 0.1841
7.0200 4.6496 0.1820
7.0400 4.6629 0.1711
7.0600 4.6762 0.1859
7.0800 4.6895 0.1797
7.1000 4.7029 0.1717
7.1200 4.7162 0.1830
7.1400 4.7296 0.1729
7.1600 4.7430 0.1702
7.1800 4.7564 0.1807
7.2000 4.7697 0.1718
7.2200 4.7831 0.1704
7.2400 4.7964 0.1787
7.2600 4.8097 0.1726
7.2800 4.8231 0.1732
7.3000 4.8363 0.1722
7.3200 4.8496 0.1745
7.3400 4.8629 0.1806
7.3600 4.8763 0.1723
7.3800 4.8896 0.1710
7.4000 4.9029 0.1775
7.4200 4.9163 0.1696
7.4400 4.9296 0.1775
7.4600 4.9430 0.1712
7.4800 4.9563 0.1678
7.5000 4.9696 0.1784
7.5200 4.9830 0.1677
7.5400 4.9964 0.1701
7.5600 5.0097 0.1776
7.5800 5.0230 0.1615
7.6000 5.0363 0.1714
7.6200 5.0497 0.1784
7.6400 5.0630 0.1638
7.6600 5.0763 0.1724
7.6800 5.0896 0.1792
7.7000 5.1029 0.1658
7.7200 5.1163 0.1734
7.7400 5.1296 0.1712
7.7600 5.1429 0.1748
7.7800 5.1562 0.1709
7.8000 5.1696 0.1718
7.8200 5.1829 0.1691
7.8400 5.1963 0.1704
7.8600 5.2096 0.1668
7.8800 5.2230 0.1729
7.9000 5.2363 0.1762
7.9200 5.2497 0.1656
7.9400 5.2630 0.1733
7.9600 5.2763 0.1749
7.9800 5.2897 0.1694
8.0000 5.3030 0.1719
8.0200 5.3163 0.1686
8.0400 5.3296 0.1726
8.0600 5.3430 0.1703
8.0800 5.3563 0.1687
8.1000 5.3696 0.1711
8.1200 5.3829 0.1700
8.1400 5.3962 0.1677
8.1600 5.4096 0.1694
8.1800 5.4229 0.1710
8.2000 5.4363 0.1660
8.2200 5.4496 0.1677
8.2400 5.4629 0.1659
8.2600 5.4763 0.1687
8.2800 5.4897 0.1683
8.3000 5.5030 0.1653
8.3200 5.5163 0.1666
8.3400 5.5297 0.1661
8.3600 5.5430 0.1622
8.3800 5.5563 0.1684
8.4000 5.5696 0.1745
8.4200 5.5829 0.1624
8.4400 5.5963 0.1655
8.4600 5.6096 0.1675
8.4800 5.6229 0.1644
8.5000 5.6363 0.1676
8.5200 5.6496 0.1600
8.5400 5.6629 0.1685
8.5600 5.6763 0.1646
8.5800 5.6896 0.1598
8.6000 5.7029 0.1633
8.6200 5.7163 0.1631
8.6400 5.7297 0.1613
8.6600 5.7430 0.1590
8.6800 5.7563 0.1656
8.7000 5.7697 0.1595
8.7200 5.7831 0.1626
8.7400 5.7964 0.1654
8.7600 5.8097 0.1604
8.7800 5.8230 0.1617
8.8000 5.8363 0.1572
8.8200 5.8496 0.1637
8.8400 5.8629 0.1595
8.8600 5.8762 0.1592
8.8800 5.8896 0.1594
8.9000 5.9029 0.1581
8.9200 5.9163 0.1601
8.9400 5.9296 0.1614
8.9600 5.9430 0.1637
8.9800 5.9564 0.1553
9.0000 5.9697 0.1528
9.0200 5.9830 0.1640
9.0400 5.9963 0.1604
9.0600 6.0097 0.1590
9.0800 6.0230 0.1584
9.1000 6.0363 0.1548
9.1200 6.0496 0.1580
9.1400 6.0629 0.1674
9.1600 6.0763 0.1603
9.1800 6.0896 0.1538
9.2000 6.1029 0.1618
9.2200 6.1162 0.1555
9.2400 6.1295 0.1607
9.2600 6.1429 0.1597
9.2800 6.1563 0.1544
9.3000 6.1696 0.1533
9.3200 6.1830 0.1554
9.3400 6.1963 0.1587
9.3600 6.2097 0.1533
9.3800 6.2230 0.1597
9.4000 6.2363 0.1529
9.4200 6.2497 0.1539
9.4400 6.2630 0.1624
9.4600 6.2763 0.1513
9.4800 6.2896 0.1518
9.5000 6.3029 0.1591
9.5200 6.3162 0.1539
9.5400 6.3296 0.1522
9.5600 6.3429 0.1576
9.5800 6.3562 0.1519
9.6000 6.3696 0.1512
9.6200 6.3830 0.1580
9.6400 6.3963 0.1483
9.6600 6.4097 0.1524
9.6800 6.4230 0.1551
9.7000 6.4363 0.1497
9.7200 6.4497 0.1545
9.7400 6.4630 0.1509
9.7600 6.4763 0.1478
9.7800 6.4896 0.1529
9.8000 6.5030 0.1468
9.8200 6.5163 0.1487
9.8400 6.5297 0.1512
9.8600 6.5430 0.1504
9.8800 6.5563 0.1471
9.9000 6.5697 0.1474
9.9200 6.5830 0.1451
9.9400 6.5963 0.1510
9.9600 6.6096 0.1505
9.9800 6.6229 0.1443
10.0000 6.6363 0.1492
10.0200 6.6496 0.1459
10.0400 6.6629 0.1490
10.0600 6.6763 0.1474
10.0800 6.6897 0.1418
10.1000 6.7030 0.1503
10.1200 6.7163 0.1444
10.1400 6.7297 0.1435
10.1600 6.7430 0.1489
10.1800 6.7564 0.1431
10.2000 6.7697 0.1454
10.2200 6.7830 0.1496
10.2400 6.7963 0.1390
10.2600 6.8097 0.1440
10.2800 6.8230 0.1488
10.3000 6.8363 0.1409
10.3200 6.8496 0.1460
10.3400 6.8629 0.1500
10.3600 6.8763 0.1414
10.3800 6.8896 0.1436
10.4000 6.9029 0.1485
10.4200 6.9163 0.1426
10.4400 6.9297 0.1467
10.4600 6.9430 0.1416
10.4800 6.9563 0.1398
10.5000 6.9697 0.1513
10.5200 6.9830 0.1379
10.5400 6.9963 0.1390
10.5600 7.0096 0.1467
10.5800 7.0229 0.1411
10.6000 7.0363 0.1467
10.6200 7.0496 0.1368
10.6400 7.0629 0.1424
10.6600 7.0763 0.1442
10.6800 7.0896 0.1402
10.7000 7.1029 0.1404
10.7200 7.1163 0.1444
10.7400 7.1296 0.1406
10.7600 7.1429 0.1367
10.7800 7.1563 0.1486
10.8000 7.1697 0.1390
10.8200 7.1830 0.1372
10.8400 7.1963 0.1444
10.8600 7.2097 0.1340
10.8800 7.2230 0.1403
10.9000 7.2364 0.1459
10.9200 7.2497 0.1351
10.9400 7.2630 0.1417
10.9600 7.2763 0.1482
10.9800 7.2896 0.1292
11.0000 7.3029 0.1392
11.0200 7.3162 0.1507
11.0400 7.3296 0.1306
11.0600 7.3429 0.1403
11.0800 7.3563 0.1397
11.1000 7.3696 0.1332
11.1200 7.3829 0.1454
11.1400 7.3963 0.1352
11.1600 7.4097 0.1331
11.1800 7.4230 0.1372
11.2000 7.4363 0.1386
11.2200 7.4496 0.1365
11.2400 7.4630 0.1392
11.2600 7.4764 0.1376
11.2800 7.4897 0.1277
11.3000 7.5030 0.1382
11.3200 7.5163 0.1403
11.3400 7.5296 0.1315
11.3600 7.5430 0.1344
11.3800 7.5563 0.1352
11.4000 7.5696 0.1331
11.4200 7.5829 0.1358
11.4400 7.5963 0.1354
11.4600 7.6096 0.1303
11.4800 7.6229 0.1337
11.5000 7.6363 0.1389
11.5200 7.6497 0.1232
11.5400 7.6630 0.1378
11.5600 7.6763 0.1383
11.5800 7.6897 0.1250
11.6000 7.7030 0.1348
11.6200 7.7164 0.1351
11.6400 7.7297 0.1232
11.6600 7.7429 0.1351
11.6800 7.7563 0.1394
11.7000 7.7696 0.1197
11.7200 7.7829 0.1343
11.7400 7.7962 0.1390
11.7600 7.8096 0.1126
11.7800 7.8229 0.1362
11.8000 7.8363 0.1375
11.8200 7.8496 0.1181
11.8400 7.8629 0.1320
11.8600 7.8763 0.1312
11.8800 7.8896 0.1216
11.9000 7.9030 0.1383
11.9200 7.9163 0.1285
11.9400 7.9296 0.1139
11.9600 7.9430 0.1431
11.9800 7.9563 0.1209
12.0000 7.9697 0.1158
12.0200 7.9830 0.1496
12.0400 7.9963 0.1242
12.0600 8.0097 0.1119
12.0800 8.0230 0.1458
12.1000 8.0363 0.1202
12.1200 8.0496 0.1204
12.1400 8.0629 0.1496
12.1600 8.0762 0.1110
12.1800 8.0895 0.1175
12.2000 8.1029 0.1517
12.2200 8.1163 0.1059
12.2400 8.1297 0.1234
12.2600 8.1431 0.1490
12.2800 8.1564 0.1055
12.3000 8.1697 0.1278
12.3200 8.1831 0.1356
12.3400 8.1964 0.1037
12.3600 8.2097 0.1410
12.3800 8.2230 0.1282
12.4000 8.2363 0.1068
12.4200 8.2496 0.1426
12.4400 8.2629 0.1186
12.4600 8.2762 0.1170
12.4800 8.2895 0.1411
12.5000 8.3029 0.1134
12.5200 8.3162 0.1192
12.5400 8.3296 0.1326
12.5600 8.3429 0.1084
12.5800 8.3563 0.1309
12.6000 8.3697 0.1316
12.6200 8.3831 0.1028
12.6400 8.3964 0.1331
12.6600 8.4097 0.1262
12.6800 8.4230 0.1096
12.7000 8.4364 0.1349
12.7200 8.4497 0.1162
12.7400 8.4630 0.1113
12.7600 8.4763 0.1359
12.7800 8.4896 0.1152
12.8000 8.5029 0.1142
12.8200 8.5162 0.1340
12.8400 8.5296 0.1077
12.8600 8.5429 0.1226
12.8800 8.5563 0.1274
12.9000 8.5696 0.1059
12.9200 8.5830 0.1270
12.9400 8.5963 0.1229
12.9600 8.6097 0.1063
12.9800 8.6230 0.1271
13.0000 8.6363 0.1176
13.0200 8.6497 0.1101
13.0400 8.6630 0.1291
13.0600 8.6764 0.1150
13.0800 8.6897 0.1104
13.1000 8.7030 0.1304
13.1200 8.7163 0.1123
13.1400 8.7297 0.1134
13.1600 8.7430 0.1294
13.1800 8.7563 0.1055
13.2000 8.7696 0.1210
13.2200 8.7829 0.1292
13.2400 8.7963 0.1020
13.2600 8.8096 0.1228
13.2800 8.8230 0.1204
13.3000 8.8363 0.1045
13.3200 8.8497 0.1250
13.3400 8.8630 0.1140
13.3600 8.8763 0.1053
13.3800 8.8897 0.1243
13.4000 8.9030 0.1181
13.4200 8.9164 0.1056
13.4400 8.9297 0.1229
13.4600 8.9430 0.1148
13.4800 8.9563 0.1117
13.5000 8.9696 0.1263
13.5200 8.9830 0.1088
13.5400 8.9963 0.1076
13.5600 9.0096 0.1239
13.5800 9.0229 0.1071
13.6000 9.0363 0.1124
13.6200 9.0496 0.1214
13.6400 9.0629 0.1125
13.6600 9.0763 0.1131
13.6800 9.0896 0.1161
13.7000 9.1030 0.1107
13.7200 9.1163 0.1176
13.7400 9.1297 0.1178
13.7600 9.1430 0.1105
13.7800 9.1564 0.1139
13.8000 9.1697 0.1185
13.8200 9.1830 0.1125
13.8400 9.1963 0.1142
13.8600 9.2096 0.1155
13.8800 9.2230 0.1140
13.9000 9.2363 0.1130
13.9200 9.2496 0.1139
13.9400 9.2629 0.1114
13.9600 9.2763 0.1093
13.9800 9.2896 0.1134
14.0000 9.3029 0.1103
14.0200 9.3163 0.1100
14.0400 9.3296 0.1155
14.0600 9.3430 0.1076
14.0800 9.3563 0.1030
14.1000 9.3696 0.1113
14.1200 9.3830 0.1103
14.1400 9.3964 0.1069
14.1600 9.4097 0.1066
14.1800 9.4230 0.1067
14.2000 9.4363 0.1109
14.2200 9.4496 0.1047
14.2400 9.4630 0.1056
14.2600 9.4763 0.1125
14.2800 9.4896 0.1033
14.3000 9.5029 0.1013
14.3200 9.5162 0.1065
14.3400 9.5295 0.1090
14.3600 9.5429 0.0995
14.3800 9.5563 0.1048
14.4000 9.5697 0.1035
14.4200 9.5830 0.1026
14.4400 9.5964 0.1022
14.4600 9.6097 0.1124
14.4800 9.6230 0.1057
14.5000 9.6364 0.1006
14.5200 9.6497 0.1038
14.5400 9.6629 0.1034
14.5600 9.6762 0.1037
14.5800 9.6895 0.1117
14.6000 9.7029 0.0998
14.6200 9.7162 0.0995
14.6400 9.7296 0.1121
14.6600 9.7429 0.1051
14.6800 9.7563 0.0981
14.7000 9.7697 0.1096
14.7200 9.7830 0.1047
14.7400 9.7963 0.0977
14.7600 9.8097 0.1099
14.7800 9.8230 0.1036
14.8000 9.8364 0.1033
14.8200 9.8497 0.1074
14.8400 9.8630 0.1062
14.8600 9.8764 0.1066
14.8800 9.8897 0.0988
14.9000 9.9030 0.1081
14.9200 9.9163 0.1049
14.9400 9.9296 0.0997
14.9600 9.9430 0.1113
14.9800 9.9563 0.1031
15.0000 9.9696 0.1001
15.0200 9.9829 0.1099
15.0400 9.9963 0.0984
15.0600 10.0096 0.0983
15.0800 10.0229 0.1133
15.1000 10.0363 0.0941
15.1200 10.0497 0.1002
15.1400 10.0630 0.1097
15.1600 10.0763 0.0942
15.1800 10.0897 0.1002
15.2000 10.1030 0.1118
15.2200 10.1164 0.0949
15.2400 10.1297 0.1024
15.2600 10.1430 0.1062
15.2800 10.1563 0.0927
15.3000 10.1696 0.1047
15.3200 10.1830 0.1048
15.3400 10.1963 0.0848
15.3600 10.2096 0.1103
15.3800 10.2229 0.1055
15.4000 10.2362 0.0854
15.4200 10.2496 0.1095
15.4400 10.2629 0.1062
15.4600 10.2763 0.0884
15.4800 10.2896 0.1097
15.5000 10.3030 0.1002
15.5200 10.3164 0.0887
15.5400 10.3297 0.1069
15.5600 10.3430 0.1005
15.5800 10.3564 0.0900
15.6000 10.3697 0.1057
15.6200 10.3830 0.0988
15.6400 10.3963 0.0920
15.6600 10.4096 0.1071
15.6800 10.4230 0.0930
15.7000 10.4363 0.0933
15.7200 10.4496 0.1020
15.7400 10.4629 0.0936
15.7600 10.4763 0.1006
15.7800 10.4896 0.0996
15.8000 10.5029 0.0929
15.8200 10.5162 0.0987
15.8400 10.5296 0.0973
15.8600 10.5430 0.0953
15.8800 10.5563 0.0928
15.9000 10.5696 0.0965
15.9200 10.5830 0.0952
15.9400 10.5963 0.0920
15.9600 10.6097 0.0978
15.9800 10.6230 0.0949
16.0000 10.6363 0.0933
16.0200 10.6496 0.0964
16.0400 10.6630 0.0936
16.0600 10.6763 0.0917
16.0800 10.6896 0.0967
16.1000 10.7029 0.0940
16.1200 10.7162 0.0871
16.1400 10.7296 0.0954
16.1600 10.7429 0.0940
16.1800 10.7563 0.0850
16.2000 10.7696 0.0933
16.2200 10.7830 0.0950
16.2400 10.7964 0.0839
16.2600 10.8097 0.0923
16.2800 10.8230 0.0991
16.3000 10.8363 0.0887
16.3200 10.8497 0.0918
16.3400 10.8630 0.0908
16.3600 10.8763 0.0867
16.3800 10.8896 0.0926
16.4000 10.9030 0.0921
16.4200 10.9163 0.0851
16.4400 10.9296 0.0929
16.4600 10.9429 0.0913
16.4800 10.9562 0.0842
16.5000 10.9696 0.0929
16.5200 10.9829 0.0911
16.5400 10.9963 0.0841
16.5600 11.0096 0.0943
16.5800 11.0230 0.0858
16.6000 11.0364 0.0827
16.6200 11.0497 0.0906
16.6400 11.0630 0.0897
16.6600 11.0764 0.0822
16.6800 11.0897 0.0905
16.7000 11.1030 0.0888
16.7200 11.1162 0.0830
16.7400 11.1295 0.0917
16.7600 11.1429 0.0866
16.7800 11.1563 0.0822
16.8000 11.1696 0.0886
16.8200 11.1829 0.0873
16.8400 11.1963 0.0786
16.8600 11.2097 0.0881
16.8800 11.2230 0.0914
16.9000 11.2363 0.0766
16.9200 11.2496 0.0838
16.9400 11.2630 0.0891
16.9600 11.2763 0.0770
16.9800 11.2896 0.0880
17.0000 11.3029 0.0868
17.0200 11.3163 0.0781
17.0400 11.3297 0.0859
17.0600 11.3430 0.0841
17.0800 11.3563 0.0742
17.1000 11.3696 0.0886
17.1200 11.3830 0.0868
17.1400 11.3963 0.0693
17.1600 11.4096 0.0857
17.1800 11.4229 0.0877
17.2000 11.4363 0.0720
17.2200 11.4496 0.0894
17.2400 11.4629 0.0834
17.2600 11.4763 0.0764
17.2800 11.4896 0.0873
17.3000 11.5030 0.0815
17.3200 11.5163 0.0769
17.3400 11.5296 0.0901
17.3600 11.5430 0.0777
17.3800 11.5563 0.0737
17.4000 11.5697 0.0879
17.4200 11.5830 0.0824
17.4400 11.5963 0.0760
17.4600 11.6096 0.0883
17.4800 11.6230 0.0819
17.5000 11.6363 0.0792
17.5200 11.6496 0.0866
17.5400 11.6629 0.0797
17.5600 11.6762 0.0791
17.5800 11.6896 0.0870
17.6000 11.7029 0.0757
17.6200 11.7163 0.0809
17.6400 11.7296 0.0858
17.6600 11.7430 0.0759
17.6800 11.7563 0.0805
17.7000 11.7697 0.0820
17.7200 11.7830 0.0813
17.7400 11.7964 0.0818
17.7600 11.8097 0.0824
17.7800 11.8230 0.0803
17.8000 11.8363 0.0829
17.8200 11.8496 0.0833
17.8400 11.8629 0.0798
17.8600 11.8763 0.0778
17.8800 11.8896 0.0798
17.9000 11.9029 0.0829
17.9200 11.9163 0.0772
17.9400 11.9296 0.0783
17.9600 11.9430 0.0817
17.9800 11.9563 0.0755
18.0000 11.9696 0.0777
18.0200 11.9830 0.0780
18.0400 11.9963 0.0799
18.0600 12.0097 0.0817
18.0800 12.0230 0.0792
18.1000 12.0363 0.0769
18.1200 12.0497 0.0781
18.1400 12.0630 0.0810
18.1600 12.0763 0.0745
18.1800 12.0896 0.0784
18.2000 12.1030 0.0771
18.2200 12.1163 0.0712
18.2400 12.1296 0.0759
18.2600 12.1429 0.0766
18.2800 12.1562 0.0791
18.3000 12.1696 0.0737
18.3200 12.1829 0.0726
18.3400 12.1963 0.0756
18.3600 12.2096 0.0765
18.3800 12.2230 0.0712
18.4000 12.2364 0.0704
18.4200 12.2497 0.0794
18.4400 12.2630 0.0720
18.4600 12.2763 0.0768
18.4800 12.2897 0.0747
18.5000 12.3030 0.0731
18.5200 12.3163 0.0713
18.5400 12.3296 0.0765
18.5600 12.3429 0.0692
18.5800 12.3563 0.0714
18.6000 12.3696 0.0784
18.6200 12.3829 0.0654
18.6400 12.3963 0.0743
18.6600 12.4096 0.0776
18.6800 12.4229 0.0659
18.7000 12.4363 0.0779
18.7200 12.4496 0.0728
18.7400 12.4630 0.0675
18.7600 12.4763 0.0784
18.7800 12.4897 0.0741
18.8000 12.5030 0.0654
18.8200 12.5163 0.0769
18.8400 12.5297 0.0699
18.8600 12.5430 0.0652
18.8800 12.5563 0.0749
18.9000 12.5696 0.0686
18.9200 12.5829 0.0707
18.9400 12.5963 0.0750
18.9600 12.6096 0.0666
18.9800 12.6229 0.0744
19.0000 12.6362 0.0734
19.0200 12.6496 0.0651
19.0400 12.6629 0.0740
19.0600 12.6763 0.0730
19.0800 12.6896 0.0644
19.1000 12.7029 0.0734
19.1200 12.7163 0.0656
19.1400 12.7296 0.0652
19.1600 12.7429 0.0701
19.1800 12.7563 0.0676
19.2000 12.7696 0.0711
19.2200 12.7830 0.0661
19.2400 12.7963 0.0675
19.2600 12.8097 0.0723
19.2800 12.8230 0.0688
19.3000 12.8364 0.0642
19.3200 12.8496 0.0745
19.3400 12.8629 0.0635
19.3600 12.8762 0.0653
19.3800 12.8896 0.0729
19.4000 12.9029 0.0594
19.4200 12.9162 0.0674
19.4400 12.9296 0.0756
19.4600 12.9430 0.0542
19.4800 12.9564 0.0666
19.5000 12.9697 0.0727
19.5200 12.9830 0.0581
19.5400 12.9964 0.0660
19.5600 13.0097 0.0689
19.5800 13.0231 0.0570
19.6000 13.0363 0.0700
19.6200 13.0496 0.0675
19.6400 13.0629 0.0581
19.6600 13.0763 0.0687
19.6800 13.0896 0.0668
19.7000 13.1029 0.0560
19.7200 13.1162 0.0728
19.7400 13.1296 0.0670
19.7600 13.1429 0.0559
19.7800 13.1562 0.0706
19.8000 13.1696 0.0665
19.8200 13.1830 0.0554
19.8400 13.1964 0.0689
19.8600 13.2097 0.0640
19.8800 13.2230 0.0579
19.9000 13.2363 0.0686
19.9200 13.2497 0.0630
19.9400 13.2630 0.0569
19.9600 13.2763 0.0696
19.9800 13.2896 0.0667
20.0000 13.3030 0.0577
20.0200 13.3163 0.0659
20.0400 13.3296 0.0620
20.0600 13.3429 0.0578
20.0800 13.3562 0.0670
20.1000 13.3696 0.0621
20.1200 13.3830 0.0577
20.1400 13.3963 0.0669
20.1600 13.4096 0.0586
20.1800 13.4230 0.0633
20.2000 13.4363 0.0630
20.2200 13.4497 0.0581
20.2400 13.4630 0.0595
20.2600 13.4763 0.0600
20.2800 13.4897 0.0596
20.3000 13.5030 0.0597
20.3200 13.5163 0.0614
20.3400 13.5297 0.0613
20.3600 13.5430 0.0581
20.3800 13.5563 0.0635
20.4000 13.5696 0.0582
20.4200 13.5829 0.0586
20.4400 13.5962 0.0604
20.4600 13.6096 0.0589
20.4800 13.6229 0.0553
20.5000 13.6363 0.0605
20.5200 13.6496 0.0592
20.5400 13.6630 0.0536
20.5600 13.6764 0.0585
20.5800 13.6897 0.0607
20.6000 13.7030 0.0524
20.6200 13.7163 0.0601
20.6400 13.7297 0.0616
20.6600 13.7430 0.0490
20.6800 13.7563 0.0621
20.7000 13.7696 0.0612
20.7200 13.7829 0.0478
20.7400 13.7963 0.0587
20.7600 13.8096 0.0584
20.7800 13.8229 0.0511
20.8000 13.8363 0.0597
20.8200 13.8496 0.0569
20.8400 13.8629 0.0499
20.8600 13.8763 0.0596
20.8800 13.8896 0.0538
20.9000 13.9030 0.0495
20.9200 13.9163 0.0577
20.9400 13.9297 0.0492
20.9600 13.9430 0.0530
20.9800 13.9563 0.0600
21.0000 13.9697 0.0488
21.0200 13.9831 0.0532
21.0400 13.9964 0.0564
21.0600 14.0096 0.0445
21.0800 14.0229 0.0579
21.1000 14.0363 0.0544
21.1200 14.0496 0.0498
21.1400 14.0629 0.0500
21.1600 14.0762 0.0532
21.1800 14.0896 0.0485
21.2000 14.1029 0.0508
21.2200 14.1163 0.0510
21.2400 14.1296 0.0515
21.2600 14.1429 0.0513
21.2800 14.1563 0.0455
21.3000 14.1697 0.0507
21.3200 14.1830 0.0493
21.3400 14.1963 0.0464
21.3600 14.2097 0.0544
21.3800 14.2230 0.0428
21.4000 14.2363 0.0468
21.4200 14.2496 0.0559
21.4400 14.2630 0.0394
21.4600 14.2763 0.0477
21.4800 14.2896 0.0547
21.5000 14.3029 0.0422
21.5200 14.3162 0.0497
21.5400 14.3295 0.0536
21.5600 14.3429 0.0370
21.5800 14.3562 0.0491
21.6000 14.3695 0.0486
21.6200 14.3829 0.0408
21.6400 14.3963 0.0495
21.6600 14.4097 0.0455
21.6800 14.4231 0.0407
21.7000 14.4364 0.0553
21.7200 14.4497 0.0443
21.7400 14.4630 0.0433
21.7600 14.4763 0.0486
21.7800 14.4896 0.0479
21.8000 14.5029 0.0454
21.8200 14.5162 0.0473
21.8400 14.5296 0.0487
21.8600 14.5429 0.0443
21.8800 14.5562 0.0424
21.9000 14.5696 0.0452
21.9200 14.5829 0.0464
21.9400 14.5963 0.0419
21.9600 14.6096 0.0470
21.9800 14.6230 0.0490
22.0000 14.6364 0.0406
22.0200 14.6497 0.0418
22.0400 14.6630 0.0473
22.0600 14.6763 0.0420
22.0800 14.6896 0.0447
22.1000 14.7030 0.0453
22.1200 14.7163 0.0366
22.1400 14.7296 0.0490
22.1600 14.7429 0.0422
22.1800 14.7563 0.0416
22.2000 14.7696 0.0434
22.2200 14.7829 0.0440
22.2400 14.7963 0.0434
22.2600 14.8096 0.0376
22.2800 14.8230 0.0433
22.3000 14.8363 0.0412
22.3200 14.8496 0.0437
22.3400 14.8630 0.0392
22.3600 14.8763 0.0379
22.3800 14.8897 0.0452
22.4000 14.9030 0.0433
22.4200 14.9163 0.0381
22.4400 14.9297 0.0434
22.4600 14.9430 0.0392
22.4800 14.9564 0.0388
22.5000 14.9697 0.0425
22.5200 14.9830 0.0426
22.5400 14.9963 0.0328
22.5600 15.0096 0.0452
22.5800 15.0229 0.0372
22.6000 15.0362 0.0377
22.6200 15.0496 0.0449
22.6400 15.0629 0.0362
22.6600 15.0763 0.0341
22.6800 15.0896 0.0428
22.7000 15.1029 0.0390
22.7200 15.1163 0.0374
22.7400 15.1297 0.0408
22.7600 15.1430 0.0382
22.7800 15.1563 0.0409
22.8000 15.1697 0.0383
22.8200 15.1830 0.0349
22.8400 15.1963 0.0451
22.8600 15.2096 0.0363
22.8800 15.2229 0.0442
22.9000 15.2363 0.0402
22.9200 15.2496 0.0366
22.9400 15.2629 0.0437
22.9600 15.2763 0.0382
22.9800 15.2896 0.0353
23.0000 15.3029 0.0404
23.0200 15.3163 0.0383
23.0400 15.3296 0.0348
23.0600 15.3429 0.0369
23.0800 15.3563 0.0382
23.1000 15.3697 0.0363
23.1200 15.3830 0.0383
23.1400 15.3963 0.0375
23.1600 15.4096 0.0352
23.1800 15.4230 0.0401
23.2000 15.4364 0.0326
23.2200 15.4497 0.0364
23.2400 15.4630 0.0378
23.2600 15.4763 0.0347
23.2800 15.4896 0.0350
23.3000 15.5029 0.0358
23.3200 15.5162 0.0332
23.3400 15.5296 0.0341
23.3600 15.5429 0.0352
23.3800 15.5563 0.0357
23.4000 15.5696 0.0314
23.4200 15.5830 0.0378
23.4400 15.5963 0.0335
23.4600 15.6097 0.0272
23.4800 15.6230 0.0363
23.5000 15.6363 0.0368
23.5200 15.6497 0.0261
23.5400 15.6630 0.0309
23.5600 15.6764 0.0365
23.5800 15.6897 0.0290
23.6000 15.7030 0.0377
23.6200 15.7163 0.0314
23.6400 15.7296 0.0262
23.6600 15.7429 0.0334
23.6800 15.7562 0.0279
23.7000 15.7696 0.0307
23.7200 15.7829 0.0358
23.7400 15.7963 0.0265
23.7600 15.8096 0.0290
23.7800 15.8229 0.0356
23.8000 15.8363 0.0263
23.8200 15.8497 0.0273
23.8400 15.8630 0.0348
23.8600 15.8763 0.0252
23.8800 15.8897 0.0320
23.9000 15.9030 0.0279
23.9200 15.9163 0.0269
23.9400 15.9296 0.0319
23.9600 15.9429 0.0293
23.9800 15.9562 0.0304
24.0000 15.9696 0.0269
24.0200 15.9829 0.0284
24.0400 15.9962 0.0317
24.0600 16.0096 0.0252
24.0800 16.0230 0.0276
24.1000 16.0363 0.0290
24.1200 16.0496 0.0246
24.1400 16.0630 0.0286
24.1600 16.0763 0.0277
24.1800 16.0897 0.0235
24.2000 16.1030 0.0340
24.2200 16.1163 0.0263
24.2400 16.1296 0.0261
24.2600 16.1430 0.0363
24.2800 16.1563 0.0229
24.3000 16.1697 0.0223
24.3200 16.1830 0.0345
24.3400 16.1963 0.0240
24.3600 16.2097 0.0267
24.3800 16.2230 0.0299
24.4000 16.2363 0.0212
24.4200 16.2496 0.0276
24.4400 16.2629 0.0288
24.4600 16.2763 0.0223
24.4800 16.2896 0.0236
24.5000 16.3029 0.0326
24.5200 16.3163 0.0240
24.5400 16.3297 0.0211
24.5600 16.3430 0.0274
24.5800 16.3563 0.0281
24.6000 16.3697 0.0219
24.6200 16.3830 0.0297
24.6400 16.3964 0.0240
24.6600 16.4097 0.0191
24.6800 16.4230 0.0302
24.7000 16.4363 0.0247
24.7200 16.4497 0.0145
24.7400 16.4630 0.0314
24.7600 16.4763 0.0181
24.7800 16.4896 0.0162
24.8000 16.5029 0.0311
24.8200 16.5163 0.0194
24.8400 16.5296 0.0151
24.8600 16.5429 0.0276
24.8800 16.5563 0.0192
24.9000 16.5697 0.0152
24.9200 16.5830 0.0249
24.9400 16.5963 0.0162
24.9600 16.6097 0.0180
24.9800 16.6230 0.0229
25.0000 16.6364 0.0213
25.0200 16.6497 0.0205
25.0400 16.6630 0.0221
25.0600 16.6763 0.0203
25.0800 16.6896 0.0204
25.1000 16.7029 0.0176
25.1200 16.7162 0.0158
25.1400 16.7296 0.0203
25.1600 16.7429 0.0158
25.1800 16.7563 0.0148
25.2000 16.7696 0.0185
25.2200 16.7829 0.0161
25.2400 16.7963 0.0209
25.2600 16.8096 0.0119
25.2800 16.8230 0.0193
25.3000 16.8363 0.0160
25.3200 16.8497 0.0105
25.3400 16.8630 0.0257
25.3600 16.8764 0.0154
25.3800 16.8897 0.0103
25.4000 16.9030 0.0225
25.4200 16.9163 0.0154
25.4400 16.9296 0.0105
25.4600 16.9429 0.0202
25.4800 16.9562 0.0152
25.5000 16.9695 0.0096
25.5200 16.9829 0.0253
25.5400 16.9962 0.0131
25.5600 17.0096 0.0107
25.5800 17.0229 0.0230
25.6000 17.0363 0.0163
25.6200 17.0497 0.0102
25.6400 17.0630 0.0241
25.6600 17.0763 0.0166
25.6800 17.0896 0.0129
25.7000 17.1030 0.0210
25.7200 17.1163 0.0137
25.7400 17.1297 0.0123
25.7600 17.1430 0.0211
25.7800 17.1563 0.0176
25.8000 17.1696 0.0119
25.8200 17.1830 0.0169
25.8400 17.1963 0.0156
25.8600 17.2096 0.0141
25.8800 17.2229 0.0145
25.9000 17.2363 0.0165
25.9200 17.2496 0.0120
25.9400 17.2629 0.0136
25.9600 17.2763 0.0160
25.9800 17.2897 0.0106
26.0000 17.3030 0.0136
26.0200 17.3164 0.0148
26.0400 17.3297 0.0060
26.0600 17.3430 0.0129
26.0800 17.3564 0.0149
26.1000 17.3697 0.0072
26.1200 17.3830 0.0182
26.1400 17.3963 0.0142
26.1600 17.4096 0.0014
26.1800 17.4229 0.0167
26.2000 17.4363 0.0061
26.2200 17.4496 0.0064
26.2400 17.4629 0.0159
26.2600 17.4763 0.0056
26.2800 17.4896 0.0061
26.3000 17.5030 0.0149
26.3200 17.5163 0.0053
26.3400 17.5296 0.0090
26.3600 17.5430 0.0094
26.3800 17.5563 0.0020
26.4000 17.5696 0.0105
26.4200 17.5830 0.0135
26.4400 17.5963 0.0041
26.4600 17.6097 0.0092
26.4800 17.6230 0.0089
26.5000 17.6363 0.0063
26.5200 17.6497 0.0071
26.5400 17.6630 0.0013
26.5600 17.6763 0.0087
26.5800 17.6896 0.0084
26.6000 17.7029 0.0027
26.6200 17.7162 0.0072
26.6400 17.7296 0.0047
26.6600 17.7429 0.0073
26.6800 17.7563 0.0036
26.7000 17.7697 0.0028
26.7200 17.7830 0.0042
26.7400 17.7964 0.0085
26.7600 17.8097 0.0045
26.7800 17.8230 0.0034
26.8000 17.8364 0.0101
26.8200 17.8497 -0.0012
26.8400 17.8630 0.0075
26.8600 17.8763 0.0062
26.8800 17.8896 -0.0013
26.9000 17.9029 0.0078
26.9200 17.9162 0.0029
26.9400 17.9295 0.0033
26.9600 17.9429 0.0092
26.9800 17.9562 -0.0011
27.0000 17.9696 0.0058
27.0200 17.9829 0.0069
27.0400 17.9963 0.0006
27.0600 18.0097 0.0019
27.0800 18.0230 0.0077
27.1000 18.0364 -0.0016
27.1200 18.0497 0.0003
27.1400 18.0630 0.0062
27.1600 18.0764 -0.0034
27.1800 18.0897 0.0051
27.2000 18.1030 0.0061
27.2200 18.1163 -0.0024
27.2400 18.1296 0.0046
27.2600 18.1430 0.0024
27.2800 18.1563 -0.0001
27.3000 18.1696 0.0034
27.3200 18.1829 0.0021
27.3400 18.1963 -0.0010
27.3600 18.2096 -0.0002
27.3800 18.2230 -0.0025
27.4000 18.2363 -0.0026
27.4200 18.2496 0.0052
27.4400 18.2630 -0.0069
27.4600 18.2763 -0.0015
27.4800 18.2897 -0.0015
27.5000 18.3030 -0.0030
27.5200 18.3164 -0.0091
27.5400 18.3297 -0.0010
27.5600 18.3430 -0.0050
27.5800 18.3563 -0.0097
27.6000 18.3697 0.0014
27.6200 18.3830 -0.0109
27.6400 18.3963 -0.0043
27.6600 18.4096 0.0008
27.6800 18.4229 -0.0130
27.7000 18.4363 -0.0012
27.7200 18.4496 -0.0032
27.7400 18.4630 -0.0091
27.7600 18.4763 -0.0044
27.7800 18.4897 -0.0058
27.8000 18.5030 -0.0122
27.8200 18.5163 -0.0007
27.8400 18.5297 -0.0045
27.8600 18.5430 -0.0148
27.8800 18.5563 -0.0009
27.9000 18.5697 -0.0041
27.9200 18.5829 -0.0104
27.9400 18.5963 -0.0006
27.9600 18.6096 -0.0021
27.9800 18.6230 -0.0115
28.0000 18.6363 -0.0093
28.0200 18.6496 -0.0048
28.0400 18.6629 -0.0104
28.0600 18.6763 -0.0102
28.0800 18.6896 -0.0057
28.1000 18.7029 -0.0147
28.1200 18.7163 -0.0115
28.1400 18.7296 -0.0073
28.1600 18.7430 -0.0114
28.1800 18.7563 -0.0172
28.2000 18.7697 -0.0033
28.2200 18.7830 -0.0135
28.2400 18.7964 -0.0125
28.2600 18.8097 -0.0037
28.2800 18.8230 -0.0105
28.3000 18.8363 -0.0133
28.3200 18.8496 -0.0059
28.3400 18.8630 -0.0107
28.3600 18.8763 -0.0156
28.3800 18.8896 -0.0077
28.4000 18.9029 -0.0114
28.4200 18.9162 -0.0146
28.4400 18.9296 -0.0079
28.4600 18.9429 -0.0148
28.4800 18.9563 -0.0131
28.5000 18.9696 -0.0059
28.5200 18.9830 -0.0142
28.5400 18.9963 -0.0194
28.5600 19.0096 -0.0045
28.5800 19.0230 -0.0175
28.6000 19.0363 -0.0188
28.6200 19.0497 -0.0051
28.6400 19.0630 -0.0197
28.6600 19.0763 -0.0176
28.6800 19.0896 -0.0044
28.7000 19.1030 -0.0224
28.7200 19.1163 -0.0185
28.7400 19.1296 -0.0045
28.7600 19.1429 -0.0280
28.7800 19.1562 -0.0242
28.8000 19.1695 -0.0079
28.8200 19.1829 -0.0234
28.8400 19.1963 -0.0207
28.8600 19.2096 -0.0116
28.8800 19.2230 -0.0243
28.9000 19.2364 -0.0264
28.9200 19.2497 -0.0123
28.9400 19.2631 -0.0243
28.9600 19.2764 -0.0223
28.9800 19.2897 -0.0166
29.0000 19.3030 -0.0284
29.0200 19.3162 -0.0152
29.0400 19.3296 -0.0154
29.0600 19.3429 -0.0247
29.0800 19.3563 -0.0230
29.1000 19.3696 -0.0156
29.1200 19.3829 -0.0260
29.1400 19.3963 -0.0274
29.1600 19.4096 -0.0175
29.1800 19.4230 -0.0284
29.2000 19.4363 -0.0272
29.2200 19.4497 -0.0123
29.2400 19.4630 -0.0262
29.2600 19.4763 -0.0253
29.2800 19.4896 -0.0181
29.3000 19.5030 -0.0261
29.3200 19.5163 -0.0293
29.3400 19.5296 -0.0146
29.3600 19.5430 -0.0271
29.3800 19.5563 -0.0298
29.4000 19.5696 -0.0146
29.4200 19.5830 -0.0312
29.4400 19.5963 -0.0247
29.4600 19.6096 -0.0123
29.4800 19.6229 -0.0308
29.5000 19.6363 -0.0274
29.5200 19.6496 -0.0164
29.5400 19.6630 -0.0318
29.5600 19.6763 -0.0250
29.5800 19.6896 -0.0222
29.6000 19.7030 -0.0350
29.6200 19.7163 -0.0250
29.6400 19.7296 -0.0243
29.6600 19.7430 -0.0369
29.6800 19.7563 -0.0240
29.7000 19.7697 -0.0269
29.7200 19.7830 -0.0323
29.7400 19.7963 -0.0287
29.7600 19.8096 -0.0288
29.7800 19.8230 -0.0341
29.8000 19.8363 -0.0328
29.8200 19.8496 -0.0267
29.8400 19.8629 -0.0308
29.8600 19.8762 -0.0353
29.8800 19.8896 -0.0309
29.9000 19.9029 -0.0314
29.9200 19.9163 -0.0394
29.9400 19.9296 -0.0308
29.9600 19.9430 -0.0303
29.9800 19.9564 -0.0446
30.0000 19.9697 -0.0322
30.0200 19.9830 -0.0325
30.0400 19.9964 -0.0445
30.0600 20.0097 -0.0299
30.0800 20.0230 -0.0367
30.1000 20.0363 -0.0438
30.1200 20.0496 -0.0284
30.1400 20.0630 -0.0377
30.1600 20.0763 -0.0409
30.1800 20.0896 -0.0311
30.2000 20.1029 -0.0337
30.2200 20.1163 -0.0423
30.2400 20.1296 -0.0290
30.2600 20.1429 -0.0366
30.2800 20.1563 -0.0425
30.3000 20.1696 -0.0308
30.3200 20.1830 -0.0385
30.3400 20.1963 -0.0381
30.3600 20.2097 -0.0333
30.3800 20.2230 -0.0405
30.4000 20.2363 -0.0429
30.4200 20.2497 -0.0341
30.4400 20.2630 -0.0389
30.4600 20.2763 -0.0408
30.4800 20.2896 -0.0375
30.5000 20.3030 -0.0397
30.5200 20.3163 -0.0393
30.5400 20.3296 -0.0367
30.5600 20.3429 -0.0416
30.5800 20.3562 -0.0399
30.6000 20.3696 -0.0420
30.6200 20.3829 -0.0427
30.6400 20.3963 -0.0453
30.6600 20.4097 -0.0440
30.6800 20.4230 -0.0416
30.7000 20.4364 -0.0501
30.7200 20.4497 -0.0420
30.7400 20.4630 -0.0364
30.7600 20.4763 -0.0070
30.7800 20.4897 0.0672
30.8000 20.5030 0.1246
30.8200 20.5163 0.1813
30.8400 20.5296 0.2429
30.8600 20.5430 0.2905
30.8800 20.5563 0.3240
30.9000 20.5696 0.3641
30.9200 20.5829 0.3911
30.9400 20.5962 0.4368
30.9600 20.6096 0.4840
30.9800 20.6229 0.5110
31.0000 20.6363 0.5410
31.0200 20.6496 0.5522
31.0400 20.6630 0.5441
31.0600 20.6764 0.5481
31.0800 20.6897 0.5484
31.1000 20.7030 0.5477
31.1200 20.7163 0.5565
31.1400 20.7297 0.5466
31.1600 20.7430 0.5540
31.1800 20.7563 0.5611
31.2000 20.7696 0.5531
31.2200 20.7829 0.5546
31.2400 20.7963 0.5582
31.2600 20.8096 0.5527
31.2800 20.8229 0.5631
31.3000 20.8363 0.5571
31.3200 20.8497 0.5537
31.3400 20.8630 0.5626
31.3600 20.8763 0.5551
31.3800 20.8897 0.5543
31.4000 20.9030 0.5588
31.4200 20.9163 0.5534
31.4400 20.9296 0.5569
31.4600 20.9430 0.5574
31.4800 20.9563 0.5520
31.5000 20.9697 0.5570
31.5200 20.9830 0.5514
31.5400 20.9963 0.5513
31.5600 21.0096 0.5616
31.5800 21.0230 0.5459
31.6000 21.0364 0.5450
31.6200 21.0496 0.5595
31.6400 21.0629 0.5401
31.6600 21.0763 0.5459
31.6800 21.0896 0.5518
31.7000 21.1029 0.5375
31.7200 21.1163 0.5488
31.7400 21.1296 0.5507
31.7600 21.1430 0.5350
31.7800 21.1563 0.5495
31.8000 21.1696 0.5427
31.8200 21.1830 0.5365
31.8400 21.1963 0.5529
31.8600 21.2097 0.5451
31.8800 21.2230 0.5354
31.9000 21.2363 0.5489
31.9200 21.2496 0.5431
31.9400 21.2630 0.5375
31.9600 21.2763 0.5499
31.9800 21.2896 0.5374
32.0000 21.3029 0.5351
32.0200 21.3162 0.5537
32.0400 21.3296 0.5315
32.0600 21.3429 0.5370
32.0800 21.3563 0.5455
32.1000 21.3696 0.5319
32.1200 21.3830 0.5347
32.1400 21.3964 0.5385
32.1600 21.4097 0.5339
32.1800 21.4230 0.5352
32.2000 21.4363 0.5406
32.2200 21.4497 0.5311
32.2400 21.4630 0.5322
32.2600 21.4763 0.5415
32.2800 21.4896 0.5323
32.3000 21.5029 0.5374
32.3200 21.5163 0.5374
32.3400 21.5296 0.5292
32.3600 21.5429 0.5345
32.3800 21.5562 0.5403
32.4000 21.5696 0.5335
32.4200 21.5830 0.5327
32.4400 21.5963 0.5399
32.4600 21.6096 0.5330
32.4800 21.6230 0.5333
32.5000 21.6363 0.5368
32.5200 21.6497 0.5319
32.5400 21.6630 0.5348
32.5600 21.6763 0.5381
32.5800 21.6897 0.5304
32.6000 21.7030 0.5326
32.6200 21.7163 0.5371
32.6400 21.7296 0.5332
32.6600 21.7430 0.5278
32.6800 21.7563 0.5350
32.7000 21.7696 0.5309
32.7200 21.7829 0.5283
32.7400 21.7962 0.5372
32.7600 21.8096 0.5277
32.7800 21.8229 0.5270
32.8000 21.8363 0.5264
32.8200 21.8496 0.5254
32.8400 21.8630 0.5322
32.8600 21.8764 0.5264
32.8800 21.8897 0.5248
32.9000 21.9030 0.5252
32.9200 21.9163 0.5329
32.9400 21.9297 0.5201
32.9600 21.9430 0.5244
32.9800 21.9563 0.5323
33.0000 21.9696 0.5203
33.0200 21.9830 0.5282
33.0400 21.9963 0.5289
33.0600 22.0097 0.5216
33.0800 22.0230 0.5237
33.1000 22.0363 0.5289
33.1200 22.0496 0.5210
33.1400 22.0629 0.5251
33.1600 22.0763 0.5312
33.1800 22.0896 0.5148
33.2000 22.1030 0.5243
33.2200 22.1163 0.5250
33.2400 22.1296 0.5193
33.2600 22.1430 0.5237
33.2800 22.1563 0.5220
33.3000 22.1697 0.5200
33.3200 22.1830 0.5179
33.3400 22.1963 0.5229
33.3600 22.2096 0.5218
33.3800 22.2229 0.5218
33.4000 22.2363 0.5203
33.4200 22.2496 0.5197
33.4400 22.2629 0.5194
33.4600 22.2763 0.5206
33.4800 22.2896 0.5164
33.5000 22.3030 0.5194
33.5200 22.3163 0.5185
33.5400 22.3296 0.5204
33.5600 22.3429 0.5186
33.5800 22.3563 0.5202
33.6000 22.3696 0.5196
33.6200 22.3829 0.5183
33.6400 22.3963 0.5207
33.6600 22.4096 0.5163
33.6800 22.4230 0.5139
33.7000 22.4363 0.5206
33.7200 22.4497 0.5181
33.7400 22.4630 0.5116
33.7600 22.4764 0.5195
33.7800 22.4897 0.5131
33.8000 22.5029 0.5084
33.8200 22.5162 0.5193
33.8400 22.5296 0.5134
33.8600 22.5429 0.5097
33.8800 22.5562 0.5165
33.9000 22.5696 0.5148
33.9200 22.5830 0.5086
33.9400 22.5964 0.5128
33.9600 22.6097 0.5128
33.9800 22.6230 0.5060
34.0000 22.6364 0.5146
34.0200 22.6497 0.5132
34.0400 22.6631 0.5082
34.0600 22.6764 0.5126
34.0800 22.6897 0.5143
34.1000 22.7030 0.5071
34.1200 22.7163 0.5147
34.1400 22.7296 0.5078
34.1600 22.7429 0.5002
34.1800 22.7562 0.5127
34.2000 22.7696 0.5076
34.2200 22.7829 0.5010
34.2400 22.7963 0.5121
34.2600 22.8096 0.5035
34.2800 22.8230 0.5022
34.3000 22.8364 0.5093
34.3200 22.8497 0.5055
34.3400 22.8630 0.4975
34.3600 22.8764 0.5100
34.3800 22.8897 0.5066
34.4000 22.9030 0.4969
34.4200 22.9163 0.5107
34.4400 22.9296 0.5074
34.4600 22.9429 0.4975
34.4800 22.9563 0.5088
34.5000 22.9696 0.5014
34.5200 22.9829 0.4952
34.5400 22.9962 0.5061
34.5600 23.0096 0.5017
34.5800 23.0229 0.4940
34.6000 23.0363 0.5025
34.6200 23.0496 0.4981
34.6400 23.0629 0.4898
34.6600 23.0763 0.5045
34.6800 23.0897 0.4923
34.7000 23.1030 0.4891
34.7200 23.1163 0.5017
34.7400 23.1297 0.4892
34.7600 23.1430 0.4893
34.7800 23.1563 0.4969
34.8000 23.1696 0.4905
34.8200 23.1830 0.4880
34.8400 23.1963 0.4935
34.8600 23.2096 0.4893
34.8800 23.2229 0.4866
34.9000 23.2362 0.4963
34.9200 23.2496 0.4853
34.9400 23.2629 0.4916
34.9600 23.2763 0.4952
34.9800 23.2896 0.4853
35.0000 23.3030 0.4905
35.0200 23.3164 0.4941
35.0400 23.3297 0.4877
35.0600 23.3430 0.4893
35.0800 23.3563 0.4931
35.1000 23.3697 0.4889
35.1200 23.3830 0.4839
35.1400 23.3963 0.4909
35.1600 23.4096 0.4896
35.1800 23.4229 0.4847
35.2000 23.4363 0.4907
35.2200 23.4496 0.4910
35.2400 23.4629 0.4807
35.2600 23.4763 0.4867
35.2800 23.4896 0.4904
35.3000 23.5029 0.4780
35.3200 23.5163 0.4881
35.3400 23.5296 0.4871
35.3600 23.5429 0.4781
35.3800 23.5563 0.4861
35.4000 23.5697 0.4856
35.4200 23.5830 0.4770
35.4400 23.5963 0.4887
35.4600 23.6097 0.4854
35.4800 23.6231 0.4729
35.5000 23.6364 0.4864
35.5200 23.6497 0.4824
35.5400 23.6630 0.4757
35.5600 23.6763 0.4856
35.5800 23.6896 0.4764
35.6000 23.7030 0.4737
35.6200 23.7163 0.4850
35.6400 23.7296 0.4769
35.6600 23.7429 0.4715
35.6800 23.7563 0.4825
35.7000 23.7696 0.4767
35.7200 23.7829 0.4701
35.7400 23.7963 0.4794
35.7600 23.8097 0.4756
35.7800 23.8230 0.4704
35.8000 23.8363 0.4800
35.8200 23.8497 0.4726
35.8400 23.8630 0.4720
35.8600 23.8763 0.4775
35.8800 23.8897 0.4746
35.9000 23.9030 0.4732
35.9200 23.9163 0.4743
35.9400 23.9296 0.4771
35.9600 23.9429 0.4728
35.9800 23.9562 0.4764
36.0000 23.9695 0.4720
36.0200 23.9829 0.4755
36.0400 23.9962 0.4746
36.0600 24.0096 0.4745
36.0800 24.0229 0.4744
36.1000 24.0363 0.4715
36.1200 24.0497 0.4708
36.1400 24.0631 0.4753
36.1600 24.0764 0.4721
36.1800 24.0897 0.4720
36.2000 24.1030 0.4703
36.2200 24.1163 0.4682
36.2400 24.1296 0.4726
36.2600 24.1429 0.4709
36.2800 24.1562 0.4647
36.3000 24.1696 0.4712
36.3200 24.1829 0.4661
36.3400 24.1962 0.4681
36.3600 24.2096 0.4702
36.3800 24.2229 0.4664
36.4000 24.2363 0.4639
36.4200 24.2496 0.4702
36.4400 24.2630 0.4664
36.4600 24.2763 0.4623
36.4800 24.2897 0.4695
36.5000 24.3030 0.4609
36.5200 24.3163 0.4609
36.5400 24.3296 0.4681
36.5600 24.3430 0.4599
36.5800 24.3563 0.4625
36.6000 24.3696 0.4625
36.6200 24.3829 0.4609
36.6400 24.3963 0.4605
36.6600 24.4096 0.4604
36.6800 24.4229 0.4598
36.7000 24.4362 0.4614
36.7200 24.4496 0.4613
36.7400 24.4630 0.4572
36.7600 24.4763 0.4587
36.7800 24.4896 0.4588
36.8000 24.5030 0.4594
36.8200 24.5163 0.4562
36.8400 24.5297 0.4593
36.8600 24.5430 0.4531
36.8800 24.5563 0.4543
36.9000 24.5697 0.4585
36.9200 24.5830 0.4557
36.9400 24.5964 0.4564
36.9600 24.6097 0.4541
36.9800 24.6230 0.4581
37.0000 24.6363 0.4547
37.0200 24.6496 0.4503
37.0400 24.6629 0.4585
37.0600 24.6762 0.4508
37.0800 24.6896 0.4558
37.1000 24.7029 0.4570
37.1200 24.7163 0.4441
37.1400 24.7296 0.4473
37.1600 24.7429 0.4618
37.1800 24.7563 0.4468
37.2000 24.7697 0.4414
37.2200 24.7830 0.4569
37.2400 24.7963 0.4465
37.2600 24.8097 0.4461
37.2800 24.8230 0.4598
37.3000 24.8363 0.4404
37.3200 24.8496 0.4469
37.3400 24.8629 0.4567
37.3600 24.8763 0.4398
37.3800 24.8896 0.4483
37.4000 24.9030 0.4564
37.4200 24.9163 0.4398
37.4400 24.9296 0.4462
37.4600 24.9429 0.4598
37.4800 24.9563 0.4362
37.5000 24.9696 0.4440
37.5200 24.9829 0.4576
37.5400 24.9963 0.4386
37.5600 25.0096 0.4446
37.5800 25.0230 0.4499
37.6000 25.0363 0.4359
37.6200 25.0496 0.4450
37.6400 25.0630 0.4519
37.6600 25.0764 0.4372
37.6800 25.0897 0.4466
37.7000 25.1030 0.4518
37.7200 25.1163 0.4304
37.7400 25.1296 0.4482
37.7600 25.1429 0.4466
37.7800 25.1562 0.4336
37.8000 25.1695 0.4435
37.8200 25.1829 0.4446
37.8400 25.1963 0.4341
37.8600 25.2096 0.4422
37.8800 25.2230 0.4438
37.9000 25.2363 0.4361
37.9200 25.2497 0.4363
37.9400 25.2630 0.4429
37.9600 25.2763 0.4366
37.9800 25.2897 0.4346
38.0000 25.3030 0.4452
38.0200 25.3164 0.4329
38.0400 25.3297 0.4331
38.0600 25.3430 0.4462
38.0800 25.3563 0.4346
38.1000 25.3697 0.4326
38.1200 25.3830 0.4437
38.1400 25.3963 0.4335
38.1600 25.4096 0.4344
38.1800 25.4229 0.4413
38.2000 25.4362 0.4263
38.2200 25.4496 0.4323
38.2400 25.4629 0.4429
38.2600 25.4763 0.4215
38.2800 25.4897 0.4314
38.3000 25.5030 0.4414
38.3200 25.5164 0.4225
38.3400 25.5297 0.4316
38.3600 25.5430 0.4404
38.3800 25.5563 0.4217
38.4000 25.5696 0.4312
38.4200 25.5829 0.4374
38.4400 25.5962 0.4245
38.4600 25.6096 0.4306
38.4800 25.6229 0.4346
38.5000 25.6362 0.4233
38.5200 25.6496 0.4269
38.5400 25.6630 0.4343
38.5600 25.6763 0.4238
38.5800 25.6897 0.4234
38.6000 25.7030 0.4332
38.6200 25.7163 0.4235
38.6400 25.7297 0.4229
38.6600 25.7430 0.4307
38.6800 25.7563 0.4250
38.7000 25.7696 0.4215
38.7200 25.7830 0.4269
38.7400 25.7963 0.4245
38.7600 25.8097 0.4224
38.7800 25.8230 0.4264
38.8000 25.8363 0.4235
38.8200 25.8497 0.4220
38.8400 25.8630 0.4255
38.8600 25.8763 0.4249
38.8800 25.8896 0.4169
38.9000 25.9029 0.4274
38.9200 25.9163 0.4202
38.9400 25.9296 0.4149
38.9600 25.9429 0.4287
38.9800 25.9563 0.4219
39.0000 25.9696 0.4146
39.0200 25.9830 0.4260
39.0400 25.9963 0.4188
39.0600 26.0096 0.4176
39.0800 26.0230 0.4276
39.1000 26.0363 0.4172
39.1200 26.0497 0.4210
39.1400 26.0630 0.4289
39.1600 26.0763 0.4125
39.1800 26.0897 0.4187
39.2000 26.1030 0.4297
39.2200 26.1163 0.4155
39.2400 26.1296 0.4207
39.2600 26.1429 0.4266
39.2800 26.1562 0.4162
39.3000 26.1696 0.4257
39.3200 26.1829 0.4217
39.3400 26.1963 0.4171
39.3600 26.2097 0.4198
39.3800 26.2230 0.4199
39.4000 26.2364 0.4142
39.4200 26.2497 0.4179
39.4400 26.2630 0.4199
39.4600 26.2764 0.4166
39.4800 26.2897 0.4128
39.5000 26.3029 0.4135
39.5200 26.3163 0.4168
39.5400 26.3296 0.4156
39.5600 26.3429 0.4142
39.5800 26.3562 0.4174
39.6000 26.3696 0.4090
39.6200 26.3829 0.4108
39.6400 26.3963 0.4195
39.6600 26.4096 0.4047
39.6800 26.4230 0.4121
39.7000 26.4363 0.4185
39.7200 26.4497 0.4037
39.7400 26.4630 0.4108
39.7600 26.4763 0.4152
39.7800 26.4897 0.4056
39.8000 26.5030 0.4116
39.8200 26.5164 0.4118
39.8400 26.5297 0.4060
39.8600 26.5430 0.4112
39.8800 26.5563 0.4095
39.9000 26.5696 0.4034
39.9200 26.5830 0.4135
39.9400 26.5962 0.4041
39.9600 26.6095 0.4042
39.9800 26.6229 0.4114
40.0000 26.6362 0.4005
40.0200 26.6496 0.4046
40.0400 26.6629 0.4073
40.0600 26.6763 0.3965
40.0800 26.6897 0.4044
40.1000 26.7030 0.4021
40.1200 26.7163 0.3994
40.1400 26.7296 0.4015
40.1600 26.7430 0.4030
40.1800 26.7563 0.3963
40.2000 26.7697 0.3996
40.2200 26.7830 0.3982
40.2400 26.7963 0.3970
40.2600 26.8096 0.3978
40.2800 26.8230 0.3950
40.3000 26.8363 0.3999
40.3200 26.8496 0.3935
40.3400 26.8629 0.3921
40.3600 26.8763 0.3942
40.3800 26.8896 0.3964
40.4000 26.9029 0.3922
40.4200 26.9163 0.3959
40.4400 26.9297 0.3936
40.4600 26.9430 0.3875
40.4800 26.9563 0.3948
40.5000 26.9696 0.3919
40.5200 26.9830 0.3883
40.5400 26.9964 0.3968
40.5600 27.0097 0.3858
40.5800 27.0230 0.3870
40.6000 27.0363 0.3929
40.6200 27.0496 0.3872
40.6400 27.0630 0.3882
40.6600 27.0763 0.3946
40.6800 27.0896 0.3840
40.7000 27.1029 0.3920
40.7200 27.1163 0.3928
40.7400 27.1296 0.3814
40.7600 27.1430 0.3902
40.7800 27.1563 0.3863
40.8000 27.1696 0.3797
40.8200 27.1830 0.3876
40.8400 27.1963 0.3890
40.8600 27.2096 0.3798
40.8800 27.2229 0.3866
40.9000 27.2363 0.3843
40.9200 27.2497 0.3728
40.9400 27.2630 0.3835
40.9600 27.2763 0.3833
40.9800 27.2897 0.3756
41.0000 27.3030 0.3849
41.0200 27.3163 0.3794
41.0400 27.3296 0.3766
41.0600 27.3429 0.3833
41.0800 27.3562 0.3813
41.1000 27.3696 0.3722
41.1200 27.3829 0.3775
41.1400 27.3963 0.3759
41.1600 27.4097 0.3766
41.1800 27.4231 0.3735
41.2000 27.4364 0.3708
41.2200 27.4497 0.3793
41.2400 27.4630 0.3753
41.2600 27.4764 0.3714
41.2800 27.4897 0.3810
41.3000 27.5030 0.3725
41.3200 27.5163 0.3717
41.3400 27.5296 0.3808
41.3600 27.5429 0.3743
41.3800 27.5562 0.3705
41.4000 27.5695 0.3828
41.4200 27.5829 0.3725
41.4400 27.5962 0.3683
41.4600 27.6096 0.3762
41.4800 27.6229 0.3759
41.5000 27.6363 0.3711
41.5200 27.6497 0.3744
41.5400 27.6630 0.3735
41.5600 27.6764 0.3706
41.5800 27.6897 0.3780
41.6000 27.7030 0.3729
41.6200 27.7164 0.3710
41.6400 27.7297 0.3761
41.6600 27.7430 0.3734
41.6800 27.7563 0.3684
41.7000 27.7696 0.3820
41.7200 27.7830 0.3701
41.7400 27.7963 0.3704
41.7600 27.8096 0.3778
41.7800 27.8229 0.3692
41.8000 27.8363 0.3723
41.8200 27.8496 0.3765
41.8400 27.8630 0.3708
41.8600 27.8763 0.3715
41.8800 27.8897 0.3761
41.9000 27.9030 0.3679
41.9200 27.9163 0.3700
41.9400 27.9296 0.3808
41.9600 27.9430 0.3611
41.9800 27.9563 0.3692
42.0000 27.9697 0.3788
42.0200 27.9830 0.3629
42.0400 27.9963 0.3694
42.0600 28.0097 0.3736
42.0800 28.0230 0.3614
42.1000 28.0363 0.3661
42.1200 28.0496 0.3700
42.1400 28.0629 0.3642
42.1600 28.0763 0.3666
42.1800 28.0896 0.3687
42.2000 28.1029 0.3549
42.2200 28.1163 0.3672
42.2400 28.1297 0.3667
42.2600 28.1430 0.3536
42.2800 28.1564 0.3630
42.3000 28.1697 0.3648
42.3200 28.1830 0.3542
42.3400 28.1963 0.3600
42.3600 28.2097 0.3608
42.3800 28.2229 0.3551
42.4000 28.2362 0.3628
42.4200 28.2496 0.3606
42.4400 28.2630 0.3479
42.4600 28.2763 0.3606
42.4800 28.2896 0.3633
42.5000 28.3029 0.3508
42.5200 28.3163 0.3594
42.5400 28.3296 0.3547
42.5600 28.3429 0.3494
42.5800 28.3563 0.3567
42.6000 28.3696 0.3576
42.6200 28.3830 0.3501
42.6400 28.3963 0.3538
42.6600 28.4097 0.3581
42.6800 28.4230 0.3489
42.7000 28.4364 0.3515
42.7200 28.4497 0.3601
42.7400 28.4630 0.3486
42.7600 28.4763 0.3534
42.7800 28.4896 0.3617
42.8000 28.5030 0.3483
42.8200 28.5163 0.3487
42.8400 28.5296 0.3619
42.8600 28.5429 0.3438
42.8800 28.5563 0.3532
42.9000 28.5696 0.3586
42.9200 28.5829 0.3409
42.9400 28.5963 0.3547
42.9600 28.6096 0.3587
42.9800 28.6230 0.3411
43.0000 28.6363 0.3555
43.0200 28.6496 0.3558
43.0400 28.6630 0.3390
43.0600 28.6763 0.3563
43.0800 28.6897 0.3495
43.1000 28.7030 0.3419
43.1200 28.7163 0.3566
43.1400 28.7296 0.3485
43.1600 28.7430 0.3421
43.1800 28.7563 0.3511
43.2000 28.7696 0.3474
43.2200 28.7829 0.3476
43.2400 28.7962 0.3524
43.2600 28.8095 0.3460
43.2800 28.8229 0.3479
43.3000 28.8362 0.3470
43.3200 28.8496 0.3455
43.3400 28.8630 0.3533
43.3600 28.8764 0.3418
43.3800 28.8897 0.3460
43.4000 28.9031 0.3523
43.4200 28.9164 0.3387
43.4400 28.9297 0.3491
43.4600 28.9430 0.3504
43.4800 28.9563 0.3382
43.5000 28.9696 0.3530
43.5200 28.9829 0.3507
43.5400 28.9963 0.3344
43.5600 29.0096 0.3580
43.5800 29.0229 0.3480
43.6000 29.0363 0.3312
43.6200 29.0496 0.3555
43.6400 29.0630 0.3447
43.6600 29.0763 0.3364
43.6800 29.0897 0.3545
43.7000 29.1031 0.3439
43.7200 29.1164 0.3337
43.7400 29.1297 0.3541
43.7600 29.1430 0.3469
43.7800 29.1563 0.3322
43.8000 29.1697 0.3546
43.8200 29.1830 0.3398
43.8400 29.1963 0.3353
43.8600 29.2096 0.3505
43.8800 29.2230 0.3348
43.9000 29.2363 0.3391
43.9200 29.2496 0.3427
43.9400 29.2629 0.3340
43.9600 29.2762 0.3437
43.9800 29.2896 0.3382
44.0000 29.3029 0.3337
44.0200 29.3163 0.3384
44.0400 29.3296 0.3360
44.0600 29.3430 0.3346
44.0800 29.3564 0.3414
44.1000 29.3697 0.3319
44.1200 29.3830 0.3361
44.1400 29.3963 0.3406
44.1600 29.4097 0.3278
44.1800 29.4230 0.3356
44.2000 29.4363 0.3407
44.2200 29.4496 0.3307
44.2400 29.4630 0.3327
44.2600 29.4763 0.3302
44.2800 29.4896 0.3361
44.3000 29.5029 0.3325
44.3200 29.5162 0.3314
44.3400 29.5296 0.3322
44.3600 29.5429 0.3315
44.3800 29.5562 0.3299
44.4000 29.5696 0.3315
44.4200 29.5830 0.3306
44.4400 29.5964 0.3225
44.4600 29.6097 0.3266
44.4800 29.6230 0.3288
44.5000 29.6363 0.3221
44.5200 29.6497 0.3385
44.5400 29.6630 0.3206
44.5600 29.6763 0.3219
44.5800 29.6896 0.3353
44.6000 29.7030 0.3227
44.6200 29.7163 0.3200
44.6400 29.7296 0.3271
44.6600 29.7429 0.3255
44.6800 29.7563 0.3147
44.7000 29.7696 0.3218
44.7200 29.7829 0.3207
44.7400 29.7963 0.3185
44.7600 29.8096 0.3194
44.7800 29.8230 0.3192
44.8000 29.8363 0.3191
44.8200 29.8497 0.3155
44.8400 29.8630 0.3152
44.8600 29.8763 0.3199
44.8800 29.8897 0.3180
44.9000 29.9030 0.3133
44.9200 29.9163 0.3162
44.9400 29.9296 0.3151
44.9600 29.9430 0.3095
44.9800 29.9563 0.3168
45.0000 29.9696 0.3136
45.0200 29.9829 0.3121
45.0400 29.9962 0.3204
45.0600 30.0096 0.3063
45.0800 30.0229 0.3164
45.1000 30.0363 0.3155
45.1200 30.0496 0.3010
45.1400 30.0630 0.3186
45.1600 30.0764 0.3067
45.1800 30.0897 0.3017
45.2000 30.1030 0.3213
45.2200 30.1163 0.3139
45.2400 30.1297 0.2965
45.2600 30.1430 0.3164
45.2800 30.1563 0.3131
45.3000 30.1696 0.2996
45.3200 30.1829 0.3145
45.3400 30.1963 0.3083
45.3600 30.2096 0.2987
45.3800 30.2229 0.3154
45.4000 30.2362 0.3045
45.4200 30.2496 0.3003
45.4400 30.2629 0.3172
45.4600 30.2763 0.3011
45.4800 30.2896 0.3010
45.5000 30.3030 0.3151
45.5200 30.3164 0.3011
45.5400 30.3297 0.3009
45.5600 30.3430 0.3099
45.5800 30.3563 0.3014
45.6000 30.3697 0.3031
45.6200 30.3830 0.3107
45.6400 30.3963 0.3003
45.6600 30.4096 0.3057
45.6800 30.4229 0.3084
45.7000 30.4363 0.2988
45.7200 30.4496 0.3052
45.7400 30.4629 0.3055
45.7600 30.4763 0.3021
45.7800 30.4896 0.2964
45.8000 30.5030 0.3015
45.8200 30.5163 0.3033
45.8400 30.5296 0.3006
45.8600 30.5430 0.3029
45.8800 30.5563 0.3010
45.9000 30.5696 0.2948
45.9200 30.5829 0.3019
45.9400 30.5963 0.2987
45.9600 30.6097 0.3009
45.9800 30.6230 0.2945
46.0000 30.6363 0.2932
46.0200 30.6497 0.3052
46.0400 30.6630 0.3001
46.0600 30.6763 0.2932
46.0800 30.6896 0.2993
46.1000 30.7029 0.2935
46.1200 30.7163 0.2923
46.1400 30.7296 0.3028
46.1600 30.7429 0.2975
46.1800 30.7563 0.2875
46.2000 30.7696 0.2987
46.2200 30.7830 0.2982
46.2400 30.7963 0.2939
46.2600 30.8097 0.2942
46.2800 30.8230 0.2910
46.3000 30.8363 0.3001
46.3200 30.8497 0.2971
46.3400 30.8630 0.2897
46.3600 30.8763 0.2930
46.3800 30.8897 0.2934
46.4000 30.9030 0.3009
46.4200 30.9163 0.2944
46.4400 30.9297 0.2887
46.4600 30.9430 0.2985
46.4800 30.9562 0.3000
46.5000 30.9696 0.2899
46.5200 30.9829 0.3023
46.5400 30.9963 0.2938
46.5600 31.0096 0.2798
46.5800 31.0230 0.2994
46.6000 31.0364 0.2950
46.6200 31.0497 0.2831
46.6400 31.0630 0.3009
46.6600 31.0763 0.2922
46.6800 31.0897 0.2820
46.7000 31.1030 0.3016
46.7200 31.1163 0.2896
46.7400 31.1296 0.2864
46.7600 31.1430 0.2985
46.7800 31.1563 0.2905
46.8000 31.1696 0.2867
46.8200 31.1829 0.2972
46.8400 31.1963 0.2905
46.8600 31.2096 0.2900
46.8800 31.2230 0.2916
46.9000 31.2363 0.2898
46.9200 31.2496 0.2896
46.9400 31.2630 0.2852
46.9600 31.2763 0.2924
46.9800 31.2897 0.2874
47.0000 31.3030 0.2829
47.0200 31.3163 0.2950
47.0400 31.3297 0.2865
47.0600 31.3430 0.2793
47.0800 31.3563 0.2971
47.1000 31.3696 0.2878
47.1200 31.3830 0.2805
47.1400 31.3963 0.2921
47.1600 31.4096 0.2841
47.1800 31.4229 0.2869
47.2000 31.4362 0.2972
47.2200 31.4495 0.2812
47.2400 31.4629 0.2847
47.2600 31.4762 0.2926
47.2800 31.4896 0.2823
47.3000 31.5030 0.2841
47.3200 31.5164 0.2887
47.3400 31.5297 0.2803
47.3600 31.5430 0.2842
47.3800 31.5563 0.2822
47.4000 31.5696 0.2810
47.4200 31.5830 0.2838
47.4400 31.5963 0.2810
47.4600 31.6096 0.2819
47.4800 31.6229 0.2840
47.5000 31.6363 0.2824
47.5200 31.6496 0.2849
47.5400 31.6629 0.2814
47.5600 31.6762 0.2834
47.5800 31.6896 0.2849
47.6000 31.7029 0.2721
47.6200 31.7163 0.2825
47.6400 31.7296 0.2902
47.6600 31.7430 0.2703
47.6800 31.7564 0.2802
47.7000 31.7697 0.2922
47.7200 31.7830 0.2703
47.7400 31.7963 0.2798
47.7600 31.8097 0.2849
47.7800 31.8230 0.2676
47.8000 31.8363 0.2852
47.8200 31.8496 0.2805
47.8400 31.8629 0.2700
47.8600 31.8763 0.2827
47.8800 31.8896 0.2766
47.9000 31.9029 0.2676
47.9200 31.9163 0.2827
47.9400 31.9296 0.2781
47.9600 31.9430 0.2641
47.9800 31.9563 0.2846
48.0000 31.9696 0.2761
48.0200 31.9829 0.2706
48.0400 31.9963 0.2809
48.0600 32.0096 0.2686
48.0800 32.0229 0.2734
48.1000 32.0363 0.2823
48.1200 32.0496 0.2677
48.1400 32.0630 0.2687
48.1600 32.0763 0.2759
48.1800 32.0897 0.2746
48.2000 32.1030 0.2705
48.2200 32.1164 0.2747
48.2400 32.1297 0.2718
48.2600 32.1429 0.2717
48.2800 32.1562 0.2710
48.3000 32.1695 0.2724
48.3200 32.1829 0.2692
48.3400 32.1962 0.2699
48.3600 32.2096 0.2726
48.3800 32.2229 0.2639
48.4000 32.2364 0.2693
48.4200 32.2497 0.2737
48.4400 32.2630 0.2594
48.4600 32.2763 0.2709
48.4800 32.2897 0.2702
48.5000 32.3031 0.2614
48.5200 32.3164 0.2701
48.5400 32.3297 0.2714
48.5600 32.3429 0.2603
48.5800 32.3563 0.2671
48.6000 32.3696 0.2643
48.6200 32.3829 0.2542
48.6400 32.3962 0.2725
48.6600 32.4096 0.2632
48.6800 32.4229 0.2504
48.7000 32.4363 0.2699
48.7200 32.4496 0.2625
48.7400 32.4630 0.2519
48.7600 32.4763 0.2672
48.7800 32.4897 0.2578
48.8000 32.5030 0.2545
48.8200 32.5164 0.2674
48.8400 32.5297 0.2542
48.8600 32.5430 0.2568
48.8800 32.5563 0.2650
48.9000 32.5696 0.2526
48.9200 32.5829 0.2601
48.9400 32.5963 0.2631
48.9600 32.6096 0.2517
48.9800 32.6229 0.2573
49.0000 32.6362 0.2632
49.0200 32.6496 0.2503
49.0400 32.6629 0.2588
49.0600 32.6763 0.2583
49.0800 32.6896 0.2557
49.1000 32.7030 0.2594
49.1200 32.7163 0.2530
49.1400 32.7297 0.2555
49.1600 32.7430 0.2576
49.1800 32.7563 0.2587
49.2000 32.7697 0.2592
49.2200 32.7830 0.2551
49.2400 32.7963 0.2591
49.2600 32.8097 0.2567
49.2800 32.8230 0.2567
49.3000 32.8363 0.2551
49.3200 32.8496 0.2526
49.3400 32.8629 0.2547
49.3600 32.8762 0.2525
49.3800 32.8896 0.2553
49.4000 32.9029 0.2547
49.4200 32.9163 0.2498
49.4400 32.9296 0.2539
49.4600 32.9430 0.2547
49.4800 32.9564 0.2517
49.5000 32.9697 0.2516
49.5200 32.9830 0.2532
49.5400 32.9963 0.2473
49.5600 33.0097 0.2550
49.5800 33.0230 0.2486
49.6000 33.0363 0.2482
49.6200 33.0496 0.2555
49.6400 33.0629 0.2455
49.6600 33.0763 0.2483
49.6800 33.0896 0.2541
49.7000 33.1029 0.2458
49.7200 33.1162 0.2432
49.7400 33.1296 0.2569
49.7600 33.1429 0.2460
49.7800 33.1563 0.2393
49.8000 33.1696 0.2581
49.8200 33.1829 0.2434
49.8400 33.1963 0.2383
49.8600 33.2097 0.2530
49.8800 33.2230 0.2409
49.9000 33.2363 0.2385
49.9200 33.2497 0.2524
49.9400 33.2631 0.2375
49.9600 33.2764 0.2384
49.9800 33.2897 0.2520
50.0000 33.3030 0.2389
50.0200 33.3163 0.2374
50.0400 33.3296 0.2479
50.0600 33.3429 0.2296
50.0800 33.3563 0.2442
50.1000 33.3696 0.2467
50.1200 33.3829 0.2273
50.1400 33.3963 0.2396
50.1600 33.4096 0.2380
50.1800 33.4229 0.2267
50.2000 33.4363 0.2385
50.2200 33.4497 0.2362
50.2400 33.4630 0.2268
50.2600 33.4763 0.2375
50.2800 33.4897 0.2371
50.3000 33.5030 0.2226
50.3200 33.5164 0.2353
50.3400 33.5297 0.2326
50.3600 33.5430 0.2273
50.3800 33.5563 0.2283
50.4000 33.5697 0.2289
50.4200 33.5830 0.2281
50.4400 33.5962 0.2298
50.4600 33.6095 0.2235
50.4800 33.6229 0.2262
50.5000 33.6362 0.2299
50.5200 33.6495 0.2214
50.5400 33.6629 0.2313
50.5600 33.6763 0.2223
50.5800 33.6897 0.2190
50.6000 33.7031 0.2284
50.6200 33.7164 0.2250
50.6400 33.7297 0.2214
50.6600 33.7430 0.2309
50.6800 33.7563 0.2199
50.7000 33.7696 0.2219
50.7200 33.7829 0.2328
50.7400 33.7963 0.2180
50.7600 33.8096 0.2204
50.7800 33.8229 0.2321
50.8000 33.8362 0.2111
50.8200 33.8496 0.2283
50.8400 33.8630 0.2317
50.8600 33.8763 0.2106
50.8800 33.8896 0.2242
50.9000 33.9030 0.2268
50.9200 33.9163 0.2152
50.9400 33.9297 0.2264
50.9600 33.9430 0.2236
50.9800 33.9563 0.2196
51.0000 33.9696 0.2266
51.0200 33.9830 0.2187
51.0400 33.9963 0.2226
51.0600 34.0096 0.2260
51.0800 34.0229 0.2193
51.1000 34.0363 0.2218
51.1200 34.0496 0.2206
51.1400 34.0629 0.2230
51.1600 34.0762 0.2205
51.1800 34.0896 0.2223
51.2000 34.1029 0.2230
51.2200 34.1163 0.2161
51.2400 34.1296 0.2191
51.2600 34.1430 0.2263
51.2800 34.1563 0.2152
51.3000 34.1697 0.2126
51.3200 34.1830 0.2257
51.3400 34.1963 0.2150
51.3600 34.2097 0.2171
51.3800 34.2230 0.2269
51.4000 34.2364 0.2124
51.4200 34.2497 0.2194
51.4400 34.2630 0.2268
51.4600 34.2763 0.2135
51.4800 34.2896 0.2166
51.5000 34.3030 0.2269
51.5200 34.3162 0.2114
51.5400 34.3296 0.2093
51.5600 34.3429 0.2329
51.5800 34.3563 0.2069
51.6000 34.3696 0.2121
51.6200 34.3829 0.2289
51.6400 34.3963 0.2059
51.6600 34.4097 0.2145
51.6800 34.4230 0.2258
51.7000 34.4364 0.2054
51.7200 34.4497 0.2157
51.7400 34.4630 0.2197
51.7600 34.4764 0.2021
51.7800 34.4896 0.2156
51.8000 34.5029 0.2181
51.8200 34.5163 0.2055
51.8400 34.5296 0.2108
51.8600 34.5430 0.2120
51.8800 34.5563 0.2052
51.9000 34.5696 0.2137
51.9200 34.5829 0.2124
51.9400 34.5963 0.2044
51.9600 34.6096 0.2113
51.9800 34.6229 0.2088
52.0000 34.6363 0.2062
52.0200 34.6496 0.2069
52.0400 34.6630 0.2095
52.0600 34.6763 0.2016
52.0800 34.6897 0.2022
52.1000 34.7030 0.2106
52.1200 34.7164 0.1965
52.1400 34.7297 0.2019
52.1600 34.7430 0.2056
52.1800 34.7563 0.1984
52.2000 34.7696 0.2008
52.2200 34.7829 0.2088
52.2400 34.7963 0.2021
52.2600 34.8096 0.1971
52.2800 34.8229 0.2108
52.3000 34.8363 0.2000
52.3200 34.8496 0.1915
52.3400 34.8629 0.2143
52.3600 34.8763 0.1969
52.3800 34.8897 0.1944
52.4000 34.9030 0.2086
52.4200 34.9163 0.1981
52.4400 34.9297 0.2005
52.4600 34.9430 0.2098
52.4800 34.9564 0.1932
52.5000 34.9697 0.2008
52.5200 34.9830 0.2130
52.5400 34.9963 0.1946
52.5600 35.0096 0.2017
52.5800 35.0230 0.2082
52.6000 35.0363 0.1959
52.6200 35.0496 0.2052
52.6400 35.0629 0.2073
52.6600 35.0763 0.1955
52.6800 35.0896 0.1998
52.7000 35.1029 0.2076
52.7200 35.1163 0.1931
52.7400 35.1297 0.1988
52.7600 35.1430 0.2057
52.7800 35.1563 0.1935
52.8000 35.1697 0.2004
52.8200 35.1830 0.2017
52.8400 35.1963 0.1903
52.8600 35.2096 0.1975
52.8800 35.2229 0.2058
52.9000 35.2362 0.1904
52.9200 35.2496 0.1932
52.9400 35.2629 0.2004
52.9600 35.2762 0.1899
52.9800 35.2896 0.1913
53.0000 35.3030 0.1994
53.0200 35.3163 0.1908
53.0400 35.3297 0.1913
53.0600 35.3430 0.1963
53.0800 35.3563 0.1870
53.1000 35.3697 0.1881
53.1200 35.3830 0.1946
53.1400 35.3963 0.1846
53.1600 35.4096 0.1894
53.1800 35.4230 0.1922
53.2000 35.4363 0.1824
53.2200 35.4497 0.1875
53.2400 35.4630 0.1939
53.2600 35.4763 0.1844
53.2800 35.4897 0.1869
53.3000 35.5030 0.1794
53.3200 35.5163 0.1834
53.3400 35.5296 0.1878
53.3600 35.5429 0.1785
53.3800 35.5563 0.1803
53.4000 35.5696 0.1852
53.4200 35.5829 0.1783
53.4400 35.5963 0.1834
53.4600 35.6096 0.1808
53.4800 35.6230 0.1771
53.5000 35.6363 0.1864
53.5200 35.6496 0.1784
53.5400 35.6630 0.1815
53.5600 35.6763 0.1837
53.5800 35.6897 0.1739
53.6000 35.7030 0.1787
53.6200 35.7163 0.1858
53.6400 35.7297 0.1727
53.6600 35.7430 0.1807
53.6800 35.7563 0.1823
53.7000 35.7696 0.1751
53.7200 35.7829 0.1794
53.7400 35.7963 0.1778
53.7600 35.8096 0.1719
53.7800 35.8229 0.1781
53.8000 35.8363 0.1740
53.8200 35.8497 0.1725
53.8400 35.8630 0.1736
53.8600 35.8763 0.1757
53.8800 35.8897 0.1730
53.9000 35.9030 0.1709
53.9200 35.9164 0.1713
53.9400 35.9297 0.1668
53.9600 35.9430 0.1698
53.9800 35.9563 0.1718
54.0000 35.9696 0.1685
54.0200 35.9830 0.1685
54.0400 35.9963 0.1690
54.0600 36.0096 0.1697
54.0800 36.0229 0.1635
54.1000 36.0363 0.1709
54.1200 36.0496 0.1668
54.1400 36.0630 0.1617
54.1600 36.0763 0.1703
54.1800 36.0897 0.1657
54.2000 36.1030 0.1605
54.2200 36.1163 0.1750
54.2400 36.1296 0.1620
54.2600 36.1430 0.1592
54.2800 36.1564 0.1695
54.3000 36.1697 0.1583
54.3200 36.1830 0.1646
54.3400 36.1963 0.1674
54.3600 36.2096 0.1558
54.3800 36.2230 0.1617
54.4000 36.2363 0.1659
54.4200 36.2496 0.1586
54.4400 36.2629 0.1642
54.4600 36.2763 0.1655
54.4800 36.2896 0.1532
54.5000 36.3029 0.1617
54.5200 36.3163 0.1641
54.5400 36.3297 0.1540
54.5600 36.3431 0.1641
54.5800 36.3564 0.1575
54.6000 36.3697 0.1525
54.6200 36.3830 0.1639
54.6400 36.3963 0.1593
54.6600 36.4097 0.1553
54.6800 36.4230 0.1615
54.7000 36.4363 0.1574
54.7200 36.4496 0.1563
54.7400 36.4630 0.1599
54.7600 36.4763 0.1564
54.7800 36.4896 0.1568
54.8000 36.5029 0.1626
54.8200 36.5163 0.1502
54.8400 36.5296 0.1573
54.8600 36.5429 0.1598
54.8800 36.5563 0.1541
54.9000 36.5697 0.1596
54.9200 36.5830 0.1501
54.9400 36.5963 0.1530
54.9600 36.6097 0.1554
54.9800 36.6230 0.1514
55.0000 36.6364 0.1536
55.0200 36.6497 0.1519
55.0400 36.6630 0.1480
55.0600 36.6763 0.1553
55.0800 36.6896 0.1512
55.1000 36.7029 0.1456
55.1200 36.7162 0.1519
55.1400 36.7296 0.1518
55.1600 36.7429 0.1453
55.1800 36.7563 0.1518
55.2000 36.7696 0.1496
55.2200 36.7829 0.1461
55.2400 36.7963 0.1445
55.2600 36.8096 0.1490
55.2800 36.8230 0.1488
55.3000 36.8363 0.1438
55.3200 36.8496 0.1483
55.3400 36.8629 0.1467
55.3600 36.8763 0.1422
55.3800 36.8897 0.1518
55.4000 36.9030 0.1469
55.4200 36.9163 0.1409
55.4400 36.9297 0.1494
55.4600 36.9430 0.1477
55.4800 36.9563 0.1404
55.5000 36.9696 0.1531
55.5200 36.9829 0.1440
55.5400 36.9962 0.1423
55.5600 37.0096 0.1506
55.5800 37.0229 0.1403
55.6000 37.0363 0.1485
55.6200 37.0496 0.1525
55.6400 37.0630 0.1382
55.6600 37.0764 0.1483
55.6800 37.0897 0.1478
55.7000 37.1030 0.1406
55.7200 37.1164 0.1442
55.7400 37.1297 0.1483
55.7600 37.1430 0.1386
55.7800 37.1563 0.1438
55.8000 37.1696 0.1507
55.8200 37.1830 0.1391
55.8400 37.1963 0.1400
55.8600 37.2096 0.1467
55.8800 37.2229 0.1397
55.9000 37.2362 0.1399
55.9200 37.2496 0.1442
55.9400 37.2629 0.1367
55.9600 37.2763 0.1379
55.9800 37.2896 0.1363
56.0000 37.3030 0.1330
56.0200 37.3163 0.1413
56.0400 37.3297 0.1369
56.0600 37.3430 0.1293
56.0800 37.3564 0.1331
56.1000 37.3697 0.1325
56.1200 37.3830 0.1318
56.1400 37.3963 0.1344
56.1600 37.4096 0.1349
56.1800 37.4230 0.1277
56.2000 37.4363 0.1327
56.2200 37.4496 0.1311
56.2400 37.4629 0.1259
56.2600 37.4763 0.1265
56.2800 37.4896 0.1319
56.3000 37.5029 0.1241
56.3200 37.5163 0.1261
56.3400 37.5296 0.1340
56.3600 37.5430 0.1252
56.3800 37.5563 0.1213
56.4000 37.5697 0.1276
56.4200 37.5830 0.1238
56.4400 37.5963 0.1232
56.4600 37.6097 0.1278
56.4800 37.6230 0.1196
56.5000 37.6363 0.1240
56.5200 37.6496 0.1245
56.5400 37.6630 0.1176
56.5600 37.6763 0.1207
56.5800 37.6896 0.1252
56.6000 37.7029 0.1156
56.6200 37.7163 0.1176
56.6400 37.7296 0.1192
56.6600 37.7429 0.1168
56.6800 37.7563 0.1131
56.7000 37.7696 0.1222
56.7200 37.7830 0.1118
56.7400 37.7964 0.1096
56.7600 37.8097 0.1220
56.7800 37.8230 0.1135
56.8000 37.8363 0.1114
56.8200 37.8497 0.1197
56.8400 37.8630 0.1069
56.8600 37.8763 0.1122
56.8800 37.8896 0.1200
56.9000 37.9030 0.1092
56.9200 37.9163 0.1101
56.9400 37.9296 0.1177
56.9600 37.9429 0.1113
56.9800 37.9563 0.1109
57.0000 37.9696 0.1185
57.0200 37.9829 0.1118
57.0400 37.9963 0.1063
57.0600 38.0096 0.1152
57.0800 38.0230 0.1092
57.1000 38.0364 0.1051
57.1200 38.0497 0.1145
57.1400 38.0630 0.1153
57.1600 38.0764 0.1043
57.1800 38.0897 0.1120
57.2000 38.1030 0.1126
57.2200 38.1163 0.1056
57.2400 38.1296 0.1155
57.2600 38.1430 0.1098
57.2800 38.1563 0.1006
57.3000 38.1696 0.1138
57.3200 38.1829 0.1109
57.3400 38.1962 0.0982
57.3600 38.2096 0.1169
57.3800 38.2229 0.1067
57.4000 38.2363 0.0998
57.4200 38.2496 0.1143
57.4400 38.2630 0.1044
57.4600 38.2763 0.1048
57.4800 38.2897 0.1130
57.5000 38.3030 0.1035
57.5200 38.3163 0.1085
57.5400 38.3297 0.1103
57.5600 38.3430 0.1044
57.5800 38.3563 0.1071
57.6000 38.3696 0.1112
57.6200 38.3830 0.1058
57.6400 38.3963 0.1065
57.6600 38.4096 0.1104
57.6800 38.4229 0.1042
57.7000 38.4362 0.1083
57.7200 38.4496 0.1048
57.7400 38.4629 0.1042
57.7600 38.4762 0.1051
57.7800 38.4896 0.1064
57.8000 38.5030 0.1066
57.8200 38.5164 0.0924
57.8400 38.5297 0.1008
57.8600 38.5430 0.1040
57.8800 38.5564 0.0987
57.9000 38.5697 0.0949
57.9200 38.5830 0.1002
57.9400 38.5963 0.0950
57.9600 38.6096 0.0916
57.9800 38.6229 0.0993
58.0000 38.6363 0.0903
58.0200 38.6496 0.0888
58.0400 38.6629 0.0904
58.0600 38.6763 0.0849
58.0800 38.6896 0.0885
58.1000 38.7030 0.0882
58.1200 38.7163 0.0779
58.1400 38.7297 0.0884
58.1600 38.7430 0.0892
58.1800 38.7564 0.0707
58.2000 38.7697 0.0857
58.2200 38.7830 0.0898
58.2400 38.7963 0.0673
58.2600 38.8097 0.0849
58.2800 38.8230 0.0818
58.3000 38.8363 0.0714
58.3200 38.8496 0.0815
58.3400 38.8630 0.0772
58.3600 38.8763 0.0704
58.3800 38.8896 0.0777
58.4000 38.9029 0.0745
58.4200 38.9163 0.0643
58.4400 38.9296 0.0753
58.4600 38.9430 0.0718
58.4800 38.9563 0.0607
58.5000 38.9697 0.0714
58.5200 38.9830 0.0684
58.5400 38.9964 0.0577
58.5600 39.0097 0.0694
58.5800 39.0230 0.0697
58.6000 39.0363 0.0564
58.6200 39.0497 0.0648
58.6400 39.0630 0.0685
58.6600 39.0763 0.0542
58.6800 39.0896 0.0662
58.7000 39.1030 0.0667
58.7200 39.1163 0.0521
58.7400 39.1296 0.0668
58.7600 39.1429 0.0661
58.7800 39.1562 0.0539
58.8000 39.1696 0.0684
58.8200 39.1829 0.0642
58.8400 39.1963 0.0527
58.8600 39.2096 0.0668
58.8800 39.2230 0.0670
58.9000 39.2364 0.0450
58.9200 39.2497 0.0665
58.9400 39.2630 0.0612
58.9600 39.2763 0.0471
58.9800 39.2897 0.0665
59.0000 39.3030 0.0539
59.0200 39.3163 0.0495
59.0400 39.3296 0.0692
59.0600 39.3429 0.0504
59.0800 39.3563 0.0515
59.1000 39.3696 0.0644
59.1200 39.3829 0.0511
59.1400 39.3962 0.0519
59.1600 39.4096 0.0620
59.1800 39.4229 0.0492
59.2000 39.4363 0.0524
59.2200 39.4496 0.0608
59.2400 39.4629 0.0486
59.2600 39.4763 0.0533
59.2800 39.4897 0.0594
59.3000 39.5030 0.0514
59.3200 39.5164 0.0533
59.3400 39.5297 0.0541
59.3600 39.5430 0.0522
59.3800 39.5563 0.0550
59.4000 39.5696 0.0539
59.4200 39.5829 0.0575
59.4400 39.5963 0.0528
59.4600 39.6096 0.0520
59.4800 39.6229 0.0558
59.5000 39.6362 0.0512
59.5200 39.6496 0.0554
59.5400 39.6630 0.0520
59.5600 39.6763 0.0475
59.5800 39.6896 0.0553
59.6000 39.7030 0.0543
59.6200 39.7164 0.0416
59.6400 39.7297 0.0557
59.6600 39.7430 0.0527
59.6800 39.7563 0.0380
59.7000 39.7697 0.0507
59.7200 39.7830 0.0452
59.7400 39.7963 0.0405
59.7600 39.8096 0.0456
59.7800 39.8230 0.0427
59.8000 39.8363 0.0406
59.8200 39.8496 0.0443
59.8400 39.8629 0.0413
59.8600 39.8762 0.0393
59.8800 39.8896 0.0386
59.9000 39.9029 0.0388
59.9200 39.9163 0.0401
59.9400 39.9296 0.0379
59.9600 39.9430 0.0314
59.9800 39.9564 0.0388
60.0000 39.9697 0.0308
60.0200 39.9830 0.0333
60.0400 39.9963 0.0274
60.0460 40.0002 0.0134
