Raw Data
Time Displacement Force
(s) (mm) (N)
0.0000 0.0000 0.2434
0.0200 0.0001 0.2603
0.0400 0.0021 0.3339
0.0600 0.0098 0.3270
0.0800 0.0215 0.2501
0.1000 0.0339 0.2501
0.1200 0.0466 0.2855
0.1400 0.0601 0.2564
0.1600 0.0742 0.2510
0.1800 0.0885 0.2620
0.2000 0.1024 0.2506
0.2200 0.1160 0.2502
0.2400 0.1293 0.2678
0.2600 0.1426 0.2556
0.2800 0.1559 0.2570
0.3000 0.1693 0.2690
0.3200 0.1827 0.2517
0.3400 0.1960 0.2620
0.3600 0.2094 0.2671
0.3800 0.2227 0.2539
0.4000 0.2361 0.2601
0.4200 0.2494 0.2656
0.4400 0.2627 0.2633
0.4600 0.2760 0.2553
0.4800 0.2894 0.2700
0.5000 0.3027 0.2599
0.5200 0.3160 0.2530
0.5400 0.3293 0.2653
0.5600 0.3427 0.2612
0.5800 0.3560 0.2604
0.6000 0.3694 0.2590
0.6200 0.3827 0.2638
0.6400 0.3961 0.2626
0.6600 0.4094 0.2571
0.6800 0.4228 0.2655
0.7000 0.4361 0.2522
0.7200 0.4494 0.2605
0.7400 0.4627 0.2615
0.7600 0.4761 0.2555
0.7800 0.4894 0.2587
0.8000 0.5027 0.2610
0.8200 0.5160 0.2615
0.8400 0.5294 0.2535
0.8600 0.5427 0.2660
0.8800 0.5560 0.2596
0.9000 0.5693 0.2510
0.9200 0.5826 0.2626
0.9400 0.5960 0.2534
0.9600 0.6093 0.2535
0.9800 0.6227 0.2648
1.0000 0.6360 0.2521
1.0200 0.6494 0.2599
1.0400 0.6628 0.2565
1.0600 0.6761 0.2507
1.0800 0.6894 0.2547
1.1000 0.7027 0.2589
1.1200 0.7161 0.2532
1.1400 0.7294 0.2467
1.1600 0.7427 0.2603
1.1800 0.7560 0.2526
1.2000 0.7694 0.2522
1.2200 0.7827 0.2578
1.2400 0.7960 0.2522
1.2600 0.8093 0.2493
1.2800 0.8227 0.2572
1.3000 0.8360 0.2517
1.3200 0.8494 0.2457
1.3400 0.8627 0.2618
1.3600 0.8760 0.2506
1.3800 0.8894 0.2443
1.4000 0.9027 0.2590
1.4200 0.9161 0.2477
1.4400 0.9294 0.2443
1.4600 0.9427 0.2575
1.4800 0.9561 0.2464
1.5000 0.9694 0.2437
1.5200 0.9828 0.2610
1.5400 0.9960 0.2469
1.5600 1.0094 0.2402
1.5800 1.0227 0.2616
1.6000 1.0360 0.2456
1.6200 1.0493 0.2369
1.6400 1.0626 0.2551
1.6600 1.0760 0.2456
1.6800 1.0893 0.2399
1.7000 1.1027 0.2531
1.7200 1.1160 0.2457
1.7400 1.1294 0.2403
1.7600 1.1428 0.2560
1.7800 1.1561 0.2403
1.8000 1.1694 0.2413
1.8200 1.1827 0.2531
1.8400 1.1961 0.2423
1.8600 1.2094 0.2415
1.8800 1.2227 0.2544
1.9000 1.2360 0.2439
1.9200 1.2494 0.2421
1.9400 1.2627 0.2522
1.9600 1.2760 0.2413
1.9800 1.2893 0.2416
2.0000 1.3026 0.2529
2.0200 1.3160 0.2363
2.0400 1.3294 0.2420
2.0600 1.3427 0.2537
2.0800 1.3560 0.2336
2.1000 1.3694 0.2394
2.1200 1.3828 0.2492
2.1400 1.3961 0.2389
2.1600 1.4094 0.2399
2.1800 1.4228 0.2484
2.2000 1.4361 0.2404
2.2200 1.4494 0.2356
2.2400 1.4627 0.2462
2.2600 1.4760 0.2440
2.2800 1.4893 0.2346
2.3000 1.5027 0.2464
2.3200 1.5160 0.2378
2.3400 1.5293 0.2366
2.3600 1.5427 0.2489
2.3800 1.5561 0.2388
2.4000 1.5694 0.2329
2.4200 1.5828 0.2493
2.4400 1.5961 0.2355
2.4600 1.6094 0.2357
2.4800 1.6227 0.2458
2.5000 1.6360 0.2334
2.5200 1.6493 0.2356
2.5400 1.6627 0.2470
2.5600 1.6761 0.2296
2.5800 1.6894 0.2315
2.6000 1.7028 0.2460
2.6200 1.7161 0.2283
2.6400 1.7294 0.2348
2.6600 1.7428 0.2454
2.6800 1.7561 0.2238
2.7000 1.7694 0.2338
2.7200 1.7827 0.2394
2.7400 1.7960 0.2287
2.7600 1.8094 0.2359
2.7800 1.8227 0.2390
2.8000 1.8360 0.2301
2.8200 1.8493 0.2348
2.8400 1.8627 0.2375
2.8600 1.8761 0.2306
2.8800 1.8894 0.2330
2.9000 1.9027 0.2319
2.9200 1.9161 0.2312
2.9400 1.9294 0.2348
2.9600 1.9428 0.2284
2.9800 1.9561 0.2319
3.0000 1.9694 0.2317
3.0200 1.9828 0.2285
3.0400 1.9961 0.2313
3.0600 2.0094 0.2308
3.0800 2.0227 0.2327
3.1000 2.0360 0.2274
3.1200 2.0493 0.2297
3.1400 2.0627 0.2289
3.1600 2.0760 0.2320
3.1800 2.0894 0.2273
3.2000 2.1028 0.2254
3.2200 2.1161 0.2308
3.2400 2.1294 0.2239
3.2600 2.1428 0.2297
3.2800 2.1561 0.2305
3.3000 2.1694 0.2253
3.3200 2.1827 0.2273
3.3400 2.1960 0.2310
3.3600 2.2094 0.2270
3.3800 2.2227 0.2202
3.4000 2.2360 0.2308
3.4200 2.2493 0.2223
3.4400 2.2626 0.2227
3.4600 2.2760 0.2308
3.4800 2.2894 0.2199
3.5000 2.3027 0.2264
3.5200 2.3160 0.2282
3.5400 2.3294 0.2181
3.5600 2.3427 0.2210
3.5800 2.3561 0.2285
3.6000 2.3694 0.2154
3.6200 2.3828 0.2246
3.6400 2.3961 0.2258
3.6600 2.4095 0.2121
3.6800 2.4228 0.2243
3.7000 2.4361 0.2233
3.7200 2.4494 0.2172
3.7400 2.4627 0.2211
3.7600 2.4760 0.2211
3.7800 2.4893 0.2159
3.8000 2.5026 0.2204
3.8200 2.5160 0.2209
3.8400 2.5293 0.2143
3.8600 2.5427 0.2189
3.8800 2.5560 0.2203
3.9000 2.5694 0.2157
3.9200 2.5828 0.2157
3.9400 2.5961 0.2191
3.9600 2.6094 0.2178
3.9800 2.6227 0.2156
4.0000 2.6361 0.2203
4.0200 2.6494 0.2189
4.0400 2.6627 0.2146
4.0600 2.6761 0.2195
4.0800 2.6894 0.2164
4.1000 2.7027 0.2171
4.1200 2.7161 0.2199
4.1400 2.7294 0.2158
4.1600 2.7427 0.2157
4.1800 2.7560 0.2135
4.2000 2.7693 0.2167
4.2200 2.7827 0.2115
4.2400 2.7960 0.2133
4.2600 2.8094 0.2191
4.2800 2.8227 0.2086
4.3000 2.8361 0.2165
4.3200 2.8494 0.2160
4.3400 2.8627 0.2080
4.3600 2.8761 0.2230
4.3800 2.8894 0.2131
4.4000 2.9028 0.2093
4.4200 2.9160 0.2200
4.4400 2.9294 0.2123
4.4600 2.9427 0.2059
4.4800 2.9561 0.2201
4.5000 2.9694 0.2118
4.5200 2.9827 0.2038
4.5400 2.9960 0.2153
4.5600 3.0094 0.2112
4.5800 3.0227 0.2081
4.6000 3.0360 0.2149
4.6200 3.0493 0.2075
4.6400 3.0627 0.2072
4.6600 3.0760 0.2101
4.6800 3.0893 0.2101
4.7000 3.1027 0.2080
4.7200 3.1160 0.2110
4.7400 3.1294 0.2065
4.7600 3.1428 0.2068
4.7800 3.1561 0.2091
4.8000 3.1694 0.2077
4.8200 3.1828 0.2053
4.8400 3.1961 0.2125
4.8600 3.2094 0.2099
4.8800 3.2227 0.2048
4.9000 3.2360 0.2109
4.9200 3.2493 0.2085
4.9400 3.2626 0.2056
4.9600 3.2760 0.2083
4.9800 3.2893 0.2050
5.0000 3.3028 0.2039
5.0200 3.3162 0.2063
5.0400 3.3295 0.2034
5.0600 3.3428 0.2031
5.0800 3.3561 0.2111
5.1000 3.3695 0.2062
5.1200 3.3828 0.2024
5.1400 3.3961 0.2068
5.1600 3.4094 0.2013
5.1800 3.4227 0.2037
5.2000 3.4360 0.2079
5.2200 3.4494 0.1988
5.2400 3.4627 0.1993
5.2600 3.4760 0.2117
5.2800 3.4893 0.1957
5.3000 3.5027 0.2048
5.3200 3.5160 0.2043
5.3400 3.5294 0.1957
5.3600 3.5427 0.2005
5.3800 3.5561 0.2035
5.4000 3.5695 0.1988
5.4200 3.5828 0.1939
5.4400 3.5961 0.2030
5.4600 3.6094 0.1985
5.4800 3.6228 0.1924
5.5000 3.6361 0.2035
5.5200 3.6494 0.1975
5.5400 3.6627 0.1959
5.5600 3.6760 0.1996
5.5800 3.6893 0.1936
5.6000 3.7027 0.1999
5.6200 3.7160 0.1960
5.6400 3.7293 0.1904
5.6600 3.7427 0.1978
5.6800 3.7560 0.1967
5.7000 3.7694 0.1900
5.7200 3.7827 0.2021
5.7400 3.7961 0.1920
5.7600 3.8094 0.1920
5.7800 3.8227 0.2020
5.8000 3.8361 0.1906
5.8200 3.8494 0.1999
5.8400 3.8628 0.1994
5.8600 3.8761 0.1903
5.8800 3.8894 0.2037
5.9000 3.9027 0.1983
5.9200 3.9161 0.1892
5.9400 3.9294 0.2004
5.9600 3.9427 0.1972
5.9800 3.9560 0.1881
6.0000 3.9693 0.2073
6.0200 3.9827 0.1953
6.0400 3.9960 0.1893
6.0600 4.0094 0.2071
6.0800 4.0227 0.1934
6.1000 4.0361 0.1902
6.1200 4.0494 0.2092
6.1400 4.0628 0.1928
6.1600 4.0761 0.1908
6.1800 4.0894 0.2043
6.2000 4.1028 0.1924
6.2200 4.1161 0.1910
6.2400 4.1294 0.2055
6.2600 4.1427 0.1941
6.2800 4.1561 0.1843
6.3000 4.1694 0.2029
6.3200 4.1827 0.1878
6.3400 4.1960 0.1930
6.3600 4.2093 0.2016
6.3800 4.2227 0.1870
6.4000 4.2360 0.1894
6.4200 4.2493 0.1986
6.4400 4.2627 0.1883
6.4600 4.2761 0.1874
6.4800 4.2894 0.1973
6.5000 4.3027 0.1833
6.5200 4.3161 0.1885
6.5400 4.3294 0.1972
6.5600 4.3428 0.1836
6.5800 4.3561 0.1894
6.6000 4.3694 0.1917
6.6200 4.3827 0.1848
6.6400 4.3961 0.1836
6.6600 4.4094 0.1927
6.6800 4.4227 0.1812
6.7000 4.4360 0.1811
6.7200 4.4493 0.1938
6.7400 4.4627 0.1769
6.7600 4.4760 0.1785
6.7800 4.4893 0.1972
6.8000 4.5027 0.1765
6.8200 4.5161 0.1766
6.8400 4.5294 0.1898
6.8600 4.5427 0.1835
6.8800 4.5561 0.1777
6.9000 4.5694 0.1887
6.9200 4.5828 0.1801
6.9400 4.5961 0.1777
6.9600 4.6094 0.1893
6.9800 4.6227 0.1808
7.0000 4.6361 0.1813
7.0200 4.6494 0.1828
7.0400 4.6626 0.1799
7.0600 4.6759 0.1804
7.0800 4.6893 0.1824
7.1000 4.7026 0.1807
7.1200 4.7160 0.1775
7.1400 4.7293 0.1785
7.1600 4.7427 0.1839
7.1800 4.7561 0.1778
7.2000 4.7695 0.1777
7.2200 4.7828 0.1809
7.2400 4.7962 0.1775
7.2600 4.8095 0.1748
7.2800 4.8228 0.1854
7.3000 4.8361 0.1739
7.3200 4.8493 0.1796
7.3400 4.8626 0.1852
7.3600 4.8760 0.1739
7.3800 4.8893 0.1742
7.4000 4.9027 0.1826
7.4200 4.9160 0.1734
7.4400 4.9294 0.1766
7.4600 4.9427 0.1794
7.4800 4.9561 0.1699
7.5000 4.9694 0.1769
7.5200 4.9827 0.1800
7.5400 4.9961 0.1680
7.5600 5.0095 0.1772
7.5800 5.0228 0.1769
7.6000 5.0361 0.1701
7.6200 5.0494 0.1785
7.6400 5.0628 0.1787
7.6600 5.0761 0.1680
7.6800 5.0893 0.1765
7.7000 5.1027 0.1811
7.7200 5.1160 0.1696
7.7400 5.1294 0.1784
7.7600 5.1427 0.1788
7.7800 5.1560 0.1675
7.8000 5.1693 0.1793
7.8200 5.1827 0.1783
7.8400 5.1960 0.1649
7.8600 5.2094 0.1797
7.8800 5.2227 0.1764
7.9000 5.2361 0.1690
7.9200 5.2494 0.1771
7.9400 5.2627 0.1793
7.9600 5.2761 0.1634
7.9800 5.2894 0.1821
8.0000 5.3028 0.1775
8.0200 5.3161 0.1672
8.0400 5.3294 0.1804
8.0600 5.3427 0.1757
8.0800 5.3561 0.1658
8.1000 5.3694 0.1753
8.1200 5.3827 0.1721
8.1400 5.3960 0.1709
8.1600 5.4093 0.1747
8.1800 5.4227 0.1747
8.2000 5.4360 0.1724
8.2200 5.4493 0.1743
8.2400 5.4627 0.1771
8.2600 5.4761 0.1692
8.2800 5.4894 0.1753
8.3000 5.5028 0.1719
8.3200 5.5161 0.1694
8.3400 5.5294 0.1743
8.3600 5.5428 0.1700
8.3800 5.5561 0.1701
8.4000 5.5694 0.1732
8.4200 5.5827 0.1760
8.4400 5.5960 0.1712
8.4600 5.6094 0.1660
8.4800 5.6227 0.1739
8.5000 5.6360 0.1710
8.5200 5.6493 0.1658
8.5400 5.6627 0.1698
8.5600 5.6760 0.1660
8.5800 5.6894 0.1645
8.6000 5.7027 0.1724
8.6200 5.7161 0.1638
8.6400 5.7294 0.1631
8.6600 5.7428 0.1712
8.6800 5.7561 0.1631
8.7000 5.7694 0.1588
8.7200 5.7828 0.1766
8.7400 5.7961 0.1569
8.7600 5.8094 0.1559
8.7800 5.8227 0.1725
8.8000 5.8360 0.1594
8.8200 5.8494 0.1624
8.8400 5.8627 0.1726
8.8600 5.8760 0.1568
8.8800 5.8893 0.1635
8.9000 5.9027 0.1610
8.9200 5.9160 0.1562
8.9400 5.9294 0.1654
8.9600 5.9427 0.1630
8.9800 5.9561 0.1548
9.0000 5.9695 0.1619
9.0200 5.9828 0.1629
9.0400 5.9961 0.1577
9.0600 6.0094 0.1607
9.0800 6.0228 0.1660
9.1000 6.0361 0.1576
9.1200 6.0494 0.1599
9.1400 6.0627 0.1661
9.1600 6.0760 0.1567
9.1800 6.0893 0.1602
9.2000 6.1026 0.1615
9.2200 6.1159 0.1607
9.2400 6.1293 0.1582
9.2600 6.1427 0.1623
9.2800 6.1560 0.1629
9.3000 6.1694 0.1560
9.3200 6.1827 0.1625
9.3400 6.1961 0.1575
9.3600 6.2094 0.1616
9.3800 6.2228 0.1642
9.4000 6.2361 0.1532
9.4200 6.2494 0.1616
9.4400 6.2627 0.1595
9.4600 6.2760 0.1565
9.4800 6.2893 0.1581
9.5000 6.3026 0.1637
9.5200 6.3160 0.1540
9.5400 6.3293 0.1590
9.5600 6.3427 0.1639
9.5800 6.3560 0.1528
9.6000 6.3694 0.1596
9.6200 6.3827 0.1591
9.6400 6.3961 0.1518
9.6600 6.4094 0.1570
9.6800 6.4227 0.1601
9.7000 6.4361 0.1563
9.7200 6.4495 0.1498
9.7400 6.4628 0.1540
9.7600 6.4761 0.1514
9.7800 6.4894 0.1526
9.8000 6.5027 0.1510
9.8200 6.5161 0.1531
9.8400 6.5294 0.1521
9.8600 6.5427 0.1523
9.8800 6.5561 0.1533
9.9000 6.5694 0.1467
9.9200 6.5827 0.1509
9.9400 6.5960 0.1497
9.9600 6.6094 0.1423
9.9800 6.6227 0.1509
10.0000 6.6360 0.1513
10.0200 6.6493 0.1407
10.0400 6.6627 0.1489
10.0600 6.6760 0.1510
10.0800 6.6894 0.1464
10.1000 6.7027 0.1455
10.1200 6.7161 0.1548
10.1400 6.7294 0.1435
10.1600 6.7428 0.1482
10.1800 6.7561 0.1477
10.2000 6.7694 0.1449
10.2200 6.7827 0.1485
10.2400 6.7961 0.1501
10.2600 6.8094 0.1447
10.2800 6.8227 0.1468
10.3000 6.8360 0.1515
10.3200 6.8493 0.1451
10.3400 6.8627 0.1468
10.3600 6.8760 0.1527
10.3800 6.8893 0.1426
10.4000 6.9027 0.1433
10.4200 6.9161 0.1531
10.4400 6.9294 0.1434
10.4600 6.9428 0.1470
10.4800 6.9561 0.1506
10.5000 6.9694 0.1431
10.5200 6.9828 0.1474
10.5400 6.9961 0.1471
10.5600 7.0094 0.1447
10.5800 7.0227 0.1492
10.6000 7.0360 0.1463
10.6200 7.0494 0.1406
10.6400 7.0627 0.1480
10.6600 7.0760 0.1499
10.6800 7.0893 0.1386
10.7000 7.1027 0.1442
10.7200 7.1160 0.1430
10.7400 7.1294 0.1452
10.7600 7.1427 0.1377
10.7800 7.1560 0.1473
10.8000 7.1694 0.1471
10.8200 7.1827 0.1336
10.8400 7.1961 0.1443
10.8600 7.2094 0.1473
10.8800 7.2228 0.1354
10.9000 7.2361 0.1450
10.9200 7.2494 0.1446
10.9400 7.2627 0.1351
10.9600 7.2761 0.1446
10.9800 7.2894 0.1467
11.0000 7.3027 0.1315
11.0200 7.3160 0.1447
11.0400 7.3293 0.1408
11.0600 7.3427 0.1343
11.0800 7.3560 0.1464
11.1000 7.3694 0.1386
11.1200 7.3827 0.1379
11.1400 7.3961 0.1458
11.1600 7.4094 0.1346
11.1800 7.4228 0.1377
11.2000 7.4361 0.1416
11.2200 7.4494 0.1397
11.2400 7.4628 0.1385
11.2600 7.4761 0.1431
11.2800 7.4894 0.1398
11.3000 7.5027 0.1391
11.3200 7.5161 0.1416
11.3400 7.5294 0.1338
11.3600 7.5427 0.1406
11.3800 7.5561 0.1367
11.4000 7.5694 0.1344
11.4200 7.5827 0.1384
11.4400 7.5960 0.1393
11.4600 7.6093 0.1362
11.4800 7.6227 0.1338
11.5000 7.6361 0.1375
11.5200 7.6494 0.1369
11.5400 7.6628 0.1325
11.5600 7.6761 0.1372
11.5800 7.6894 0.1428
11.6000 7.7028 0.1287
11.6200 7.7161 0.1360
11.6400 7.7294 0.1416
11.6600 7.7427 0.1239
11.6800 7.7560 0.1438
11.7000 7.7694 0.1330
11.7200 7.7827 0.1272
11.7400 7.7960 0.1432
11.7600 7.8093 0.1308
11.7800 7.8227 0.1246
11.8000 7.8360 0.1367
11.8200 7.8494 0.1356
11.8400 7.8627 0.1244
11.8600 7.8760 0.1378
11.8800 7.8894 0.1323
11.9000 7.9027 0.1216
11.9200 7.9160 0.1377
11.9400 7.9293 0.1338
11.9600 7.9427 0.1239
11.9800 7.9561 0.1360
12.0000 7.9694 0.1290
12.0200 7.9827 0.1232
12.0400 7.9960 0.1337
12.0600 8.0094 0.1317
12.0800 8.0227 0.1249
12.1000 8.0360 0.1360
12.1200 8.0493 0.1312
12.1400 8.0627 0.1248
12.1600 8.0760 0.1372
12.1800 8.0893 0.1280
12.2000 8.1026 0.1253
12.2200 8.1160 0.1381
12.2400 8.1295 0.1259
12.2600 8.1428 0.1216
12.2800 8.1561 0.1347
12.3000 8.1695 0.1320
12.3200 8.1828 0.1211
12.3400 8.1961 0.1370
12.3600 8.2094 0.1263
12.3800 8.2227 0.1231
12.4000 8.2360 0.1351
12.4200 8.2494 0.1267
12.4400 8.2627 0.1216
12.4600 8.2760 0.1359
12.4800 8.2893 0.1298
12.5000 8.3026 0.1217
12.5200 8.3160 0.1281
12.5400 8.3294 0.1279
12.5600 8.3427 0.1281
12.5800 8.3561 0.1307
12.6000 8.3694 0.1217
12.6200 8.3828 0.1280
12.6400 8.3961 0.1287
12.6600 8.4094 0.1239
12.6800 8.4228 0.1293
12.7000 8.4361 0.1246
12.7200 8.4494 0.1243
12.7400 8.4627 0.1283
12.7600 8.4760 0.1245
12.7800 8.4894 0.1263
12.8000 8.5027 0.1265
12.8200 8.5160 0.1218
12.8400 8.5293 0.1300
12.8600 8.5426 0.1220
12.8800 8.5560 0.1202
12.9000 8.5694 0.1257
12.9200 8.5827 0.1218
12.9400 8.5961 0.1230
12.9600 8.6094 0.1258
12.9800 8.6228 0.1171
13.0000 8.6361 0.1234
13.0200 8.6494 0.1285
13.0400 8.6628 0.1190
13.0600 8.6761 0.1245
13.0800 8.6894 0.1268
13.1000 8.7027 0.1172
13.1200 8.7161 0.1254
13.1400 8.7294 0.1207
13.1600 8.7427 0.1132
13.1800 8.7560 0.1233
13.2000 8.7693 0.1226
13.2200 8.7826 0.1154
13.2400 8.7960 0.1208
13.2600 8.8094 0.1191
13.2800 8.8227 0.1179
13.3000 8.8361 0.1202
13.3200 8.8494 0.1186
13.3400 8.8628 0.1166
13.3600 8.8761 0.1162
13.3800 8.8894 0.1180
13.4000 8.9027 0.1210
13.4200 8.9161 0.1159
13.4400 8.9294 0.1223
13.4600 8.9427 0.1155
13.4800 8.9560 0.1203
13.5000 8.9694 0.1209
13.5200 8.9827 0.1116
13.5400 8.9960 0.1217
13.5600 9.0094 0.1180
13.5800 9.0227 0.1133
13.6000 9.0360 0.1223
13.6200 9.0493 0.1181
13.6400 9.0626 0.1133
13.6600 9.0760 0.1245
13.6800 9.0894 0.1132
13.7000 9.1028 0.1181
13.7200 9.1161 0.1268
13.7400 9.1294 0.1109
13.7600 9.1428 0.1154
13.7800 9.1561 0.1191
13.8000 9.1695 0.1129
13.8200 9.1827 0.1153
13.8400 9.1960 0.1186
13.8600 9.2094 0.1172
13.8800 9.2227 0.1140
13.9000 9.2360 0.1128
13.9200 9.2493 0.1151
13.9400 9.2627 0.1191
13.9600 9.2760 0.1108
13.9800 9.2894 0.1144
14.0000 9.3027 0.1167
14.0200 9.3160 0.1063
14.0400 9.3294 0.1214
14.0600 9.3427 0.1111
14.0800 9.3561 0.1051
14.1000 9.3694 0.1168
14.1200 9.3827 0.1094
14.1400 9.3961 0.1117
14.1600 9.4094 0.1130
14.1800 9.4228 0.1077
14.2000 9.4361 0.1158
14.2200 9.4494 0.1111
14.2400 9.4628 0.1071
14.2600 9.4760 0.1138
14.2800 9.4893 0.1120
14.3000 9.5026 0.1070
14.3200 9.5159 0.1139
14.3400 9.5293 0.1111
14.3600 9.5427 0.1040
14.3800 9.5560 0.1130
14.4000 9.5694 0.1058
14.4200 9.5828 0.1074
14.4400 9.5962 0.1137
14.4600 9.6095 0.1056
14.4800 9.6228 0.1112
14.5000 9.6361 0.1090
14.5200 9.6494 0.1094
14.5400 9.6627 0.1055
14.5600 9.6760 0.1108
14.5800 9.6893 0.1093
14.6000 9.7027 0.1038
14.6200 9.7160 0.1089
14.6400 9.7293 0.1108
14.6600 9.7427 0.1092
14.6800 9.7561 0.1124
14.7000 9.7694 0.1087
14.7200 9.7827 0.1075
14.7400 9.7961 0.1098
14.7600 9.8094 0.1094
14.7800 9.8228 0.1031
14.8000 9.8361 0.1082
14.8200 9.8494 0.1089
14.8400 9.8627 0.1091
14.8600 9.8761 0.1092
14.8800 9.8894 0.1030
14.9000 9.9027 0.1103
14.9200 9.9160 0.1109
14.9400 9.9293 0.1044
14.9600 9.9427 0.1042
14.9800 9.9560 0.1096
15.0000 9.9694 0.1013
15.0200 9.9827 0.1067
15.0400 9.9960 0.1059
15.0600 10.0094 0.1027
15.0800 10.0227 0.1076
15.1000 10.0360 0.1058
15.1200 10.0494 0.1026
15.1400 10.0628 0.1127
15.1600 10.0761 0.1050
15.1800 10.0894 0.1008
15.2000 10.1027 0.1099
15.2200 10.1161 0.1054
15.2400 10.1294 0.0980
15.2600 10.1427 0.1119
15.2800 10.1560 0.1003
15.3000 10.1694 0.1010
15.3200 10.1827 0.1068
15.3400 10.1960 0.1007
15.3600 10.2093 0.1035
15.3800 10.2226 0.1062
15.4000 10.2360 0.1023
15.4200 10.2494 0.1052
15.4400 10.2627 0.1066
15.4600 10.2760 0.1009
15.4800 10.2894 0.0986
15.5000 10.3028 0.1066
15.5200 10.3161 0.0996
15.5400 10.3294 0.1021
15.5600 10.3428 0.1061
15.5800 10.3561 0.1021
15.6000 10.3694 0.0987
15.6200 10.3827 0.1006
15.6400 10.3960 0.1037
15.6600 10.4094 0.0998
15.6800 10.4227 0.1031
15.7000 10.4360 0.0984
15.7200 10.4493 0.0931
15.7400 10.4627 0.1044
15.7600 10.4760 0.1018
15.7800 10.4894 0.0895
15.8000 10.5027 0.1084
15.8200 10.5160 0.0973
15.8400 10.5293 0.0911
15.8600 10.5427 0.1085
15.8800 10.5561 0.0916
15.9000 10.5694 0.0869
15.9200 10.5827 0.1097
15.9400 10.5961 0.0895
15.9600 10.6095 0.0876
15.9800 10.6228 0.1095
16.0000 10.6361 0.0913
16.0200 10.6494 0.0887
16.0400 10.6627 0.1068
16.0600 10.6760 0.0886
16.0800 10.6893 0.0941
16.1000 10.7027 0.1044
16.1200 10.7160 0.0872
16.1400 10.7294 0.0927
16.1600 10.7427 0.1027
16.1800 10.7560 0.0881
16.2000 10.7694 0.0932
16.2200 10.7828 0.0973
16.2400 10.7961 0.0891
16.2600 10.8094 0.0936
16.2800 10.8227 0.0987
16.3000 10.8361 0.0901
16.3200 10.8494 0.0889
16.3400 10.8628 0.0962
16.3600 10.8760 0.0945
16.3800 10.8894 0.0934
16.4000 10.9027 0.0957
16.4200 10.9161 0.0890
16.4400 10.9294 0.0928
16.4600 10.9427 0.0992
16.4800 10.9560 0.0867
16.5000 10.9693 0.0929
16.5200 10.9827 0.0944
16.5400 10.9960 0.0895
16.5600 11.0094 0.0909
16.5800 11.0228 0.0911
16.6000 11.0361 0.0907
16.6200 11.0494 0.0891
16.6400 11.0628 0.0952
16.6600 11.0761 0.0921
16.6800 11.0894 0.0857
16.7000 11.1027 0.0957
16.7200 11.1160 0.0954
16.7400 11.1293 0.0814
16.7600 11.1427 0.0915
16.7800 11.1560 0.0914
16.8000 11.1693 0.0818
16.8200 11.1827 0.0948
16.8400 11.1960 0.0893
16.8600 11.2094 0.0808
16.8800 11.2228 0.0958
16.9000 11.2361 0.0881
16.9200 11.2494 0.0789
16.9400 11.2628 0.0922
16.9600 11.2761 0.0862
16.9800 11.2894 0.0809
17.0000 11.3027 0.0936
17.0200 11.3160 0.0830
17.0400 11.3294 0.0816
17.0600 11.3427 0.0912
17.0800 11.3561 0.0832
17.1000 11.3694 0.0876
17.1200 11.3828 0.0851
17.1400 11.3961 0.0786
17.1600 11.4094 0.0899
17.1800 11.4227 0.0841
17.2000 11.4360 0.0840
17.2200 11.4494 0.0838
17.2400 11.4627 0.0830
17.2600 11.4760 0.0839
17.2800 11.4893 0.0865
17.3000 11.5027 0.0829
17.3200 11.5161 0.0865
17.3400 11.5294 0.0812
17.3600 11.5427 0.0842
17.3800 11.5561 0.0868
17.4000 11.5694 0.0789
17.4200 11.5828 0.0859
17.4400 11.5961 0.0862
17.4600 11.6094 0.0803
17.4800 11.6228 0.0864
17.5000 11.6361 0.0790
17.5200 11.6494 0.0849
17.5400 11.6627 0.0899
17.5600 11.6760 0.0791
17.5800 11.6893 0.0834
17.6000 11.7027 0.0868
17.6200 11.7160 0.0787
17.6400 11.7294 0.0811
17.6600 11.7427 0.0852
17.6800 11.7561 0.0782
17.7000 11.7694 0.0828
17.7200 11.7828 0.0829
17.7400 11.7961 0.0807
17.7600 11.8095 0.0836
17.7800 11.8228 0.0833
17.8000 11.8360 0.0818
17.8200 11.8493 0.0855
17.8400 11.8627 0.0815
17.8600 11.8760 0.0797
17.8800 11.8893 0.0817
17.9000 11.9027 0.0810
17.9200 11.9160 0.0792
17.9400 11.9294 0.0813
17.9600 11.9427 0.0795
17.9800 11.9560 0.0786
18.0000 11.9694 0.0805
18.0200 11.9827 0.0775
18.0400 11.9961 0.0762
18.0600 12.0094 0.0832
18.0800 12.0227 0.0769
18.1000 12.0361 0.0808
18.1200 12.0494 0.0750
18.1400 12.0628 0.0767
18.1600 12.0761 0.0771
18.1800 12.0894 0.0814
18.2000 12.1027 0.0759
18.2200 12.1161 0.0765
18.2400 12.1294 0.0769
18.2600 12.1427 0.0752
18.2800 12.1560 0.0777
18.3000 12.1693 0.0755
18.3200 12.1827 0.0740
18.3400 12.1960 0.0757
18.3600 12.2094 0.0794
18.3800 12.2228 0.0754
18.4000 12.2361 0.0757
18.4200 12.2494 0.0753
18.4400 12.2627 0.0729
18.4600 12.2761 0.0744
18.4800 12.2894 0.0730
18.5000 12.3028 0.0705
18.5200 12.3160 0.0781
18.5400 12.3294 0.0763
18.5600 12.3427 0.0737
18.5800 12.3561 0.0727
18.6000 12.3694 0.0802
18.6200 12.3827 0.0699
18.6400 12.3960 0.0754
18.6600 12.4094 0.0820
18.6800 12.4227 0.0684
18.7000 12.4360 0.0742
18.7200 12.4494 0.0801
18.7400 12.4627 0.0681
18.7600 12.4761 0.0691
18.7800 12.4894 0.0787
18.8000 12.5027 0.0744
18.8200 12.5161 0.0680
18.8400 12.5294 0.0819
18.8600 12.5428 0.0687
18.8800 12.5561 0.0677
18.9000 12.5694 0.0835
18.9200 12.5827 0.0680
18.9400 12.5960 0.0688
18.9600 12.6094 0.0797
18.9800 12.6227 0.0630
19.0000 12.6360 0.0724
19.0200 12.6494 0.0788
19.0400 12.6627 0.0628
19.0600 12.6760 0.0718
19.0800 12.6893 0.0800
19.1000 12.7027 0.0590
19.1200 12.7160 0.0745
19.1400 12.7294 0.0769
19.1600 12.7427 0.0594
19.1800 12.7560 0.0713
19.2000 12.7694 0.0743
19.2200 12.7828 0.0578
19.2400 12.7961 0.0707
19.2600 12.8094 0.0765
19.2800 12.8228 0.0591
19.3000 12.8361 0.0702
19.3200 12.8494 0.0721
19.3400 12.8627 0.0626
19.3600 12.8760 0.0710
19.3800 12.8893 0.0707
19.4000 12.9026 0.0611
19.4200 12.9160 0.0685
19.4400 12.9293 0.0660
19.4600 12.9427 0.0589
19.4800 12.9561 0.0663
19.5000 12.9695 0.0693
19.5200 12.9828 0.0575
19.5400 12.9961 0.0709
19.5600 13.0095 0.0689
19.5800 13.0228 0.0577
19.6000 13.0361 0.0673
19.6200 13.0494 0.0663
19.6400 13.0627 0.0611
19.6600 13.0760 0.0667
19.6800 13.0894 0.0672
19.7000 13.1026 0.0591
19.7200 13.1160 0.0632
19.7400 13.1293 0.0676
19.7600 13.1427 0.0575
19.7800 13.1560 0.0670
19.8000 13.1694 0.0687
19.8200 13.1827 0.0588
19.8400 13.1961 0.0628
19.8600 13.2094 0.0686
19.8800 13.2227 0.0587
19.9000 13.2361 0.0588
19.9200 13.2495 0.0663
19.9400 13.2628 0.0609
19.9600 13.2761 0.0586
19.9800 13.2894 0.0658
20.0000 13.3027 0.0639
20.0200 13.3161 0.0600
20.0400 13.3294 0.0662
20.0600 13.3427 0.0586
20.0800 13.3560 0.0611
20.1000 13.3693 0.0699
20.1200 13.3827 0.0583
20.1400 13.3960 0.0541
20.1600 13.4094 0.0719
20.1800 13.4227 0.0542
20.2000 13.4361 0.0577
20.2200 13.4494 0.0696
20.2400 13.4627 0.0542
20.2600 13.4761 0.0597
20.2800 13.4894 0.0666
20.3000 13.5028 0.0539
20.3200 13.5161 0.0600
20.3400 13.5294 0.0658
20.3600 13.5427 0.0552
20.3800 13.5561 0.0609
20.4000 13.5694 0.0630
20.4200 13.5827 0.0563
20.4400 13.5960 0.0632
20.4600 13.6093 0.0608
20.4800 13.6227 0.0569
20.5000 13.6360 0.0579
20.5200 13.6494 0.0643
20.5400 13.6627 0.0588
20.5600 13.6761 0.0592
20.5800 13.6895 0.0657
20.6000 13.7028 0.0552
20.6200 13.7161 0.0538
20.6400 13.7294 0.0607
20.6600 13.7428 0.0620
20.6800 13.7561 0.0533
20.7000 13.7694 0.0566
20.7200 13.7827 0.0596
20.7400 13.7960 0.0545
20.7600 13.8094 0.0550
20.7800 13.8227 0.0596
20.8000 13.8360 0.0537
20.8200 13.8494 0.0592
20.8400 13.8627 0.0514
20.8600 13.8760 0.0530
20.8800 13.8893 0.0623
20.9000 13.9027 0.0555
20.9200 13.9161 0.0451
20.9400 13.9295 0.0601
20.9600 13.9428 0.0503
20.9800 13.9561 0.0486
21.0000 13.9695 0.0599
21.0200 13.9828 0.0494
21.0400 13.9961 0.0443
21.0600 14.0094 0.0594
21.0800 14.0227 0.0487
21.1000 14.0361 0.0465
21.1200 14.0494 0.0597
21.1400 14.0627 0.0495
21.1600 14.0760 0.0471
21.1800 14.0893 0.0583
21.2000 14.1027 0.0468
21.2200 14.1160 0.0477
21.2400 14.1293 0.0588
21.2600 14.1427 0.0513
21.2800 14.1561 0.0432
21.3000 14.1694 0.0595
21.3200 14.1827 0.0537
21.3400 14.1961 0.0473
21.3600 14.2094 0.0583
21.3800 14.2228 0.0458
21.4000 14.2361 0.0472
21.4200 14.2494 0.0580
21.4400 14.2627 0.0521
21.4600 14.2761 0.0480
21.4800 14.2894 0.0519
21.5000 14.3027 0.0451
21.5200 14.3160 0.0493
21.5400 14.3293 0.0577
21.5600 14.3426 0.0403
21.5800 14.3560 0.0486
21.6000 14.3693 0.0616
21.6200 14.3827 0.0391
21.6400 14.3961 0.0458
21.6600 14.4095 0.0494
21.6800 14.4228 0.0416
21.7000 14.4361 0.0483
21.7200 14.4495 0.0525
21.7400 14.4628 0.0384
21.7600 14.4761 0.0476
21.7800 14.4893 0.0500
21.8000 14.5026 0.0380
21.8200 14.5160 0.0483
21.8400 14.5293 0.0487
21.8600 14.5427 0.0408
21.8800 14.5560 0.0493
21.9000 14.5693 0.0462
21.9200 14.5827 0.0440
21.9400 14.5960 0.0435
21.9600 14.6094 0.0487
21.9800 14.6227 0.0449
22.0000 14.6361 0.0389
22.0200 14.6494 0.0472
22.0400 14.6627 0.0470
22.0600 14.6761 0.0424
22.0800 14.6894 0.0488
22.1000 14.7027 0.0529
22.1200 14.7161 0.0378
22.1400 14.7294 0.0502
22.1600 14.7427 0.0491
22.1800 14.7560 0.0377
22.2000 14.7694 0.0504
22.2200 14.7827 0.0434
22.2400 14.7960 0.0410
22.2600 14.8094 0.0505
22.2800 14.8227 0.0416
22.3000 14.8361 0.0385
22.3200 14.8494 0.0501
22.3400 14.8627 0.0395
22.3600 14.8761 0.0395
22.3800 14.8895 0.0511
22.4000 14.9028 0.0340
22.4200 14.9161 0.0415
22.4400 14.9294 0.0468
22.4600 14.9428 0.0388
22.4800 14.9561 0.0372
22.5000 14.9694 0.0436
22.5200 14.9827 0.0471
22.5400 14.9960 0.0372
22.5600 15.0094 0.0415
22.5800 15.0227 0.0424
22.6000 15.0360 0.0387
22.6200 15.0493 0.0419
22.6400 15.0627 0.0410
22.6600 15.0760 0.0411
22.6800 15.0894 0.0392
22.7000 15.1027 0.0419
22.7200 15.1161 0.0421
22.7400 15.1294 0.0399
22.7600 15.1428 0.0438
22.7800 15.1561 0.0417
22.8000 15.1694 0.0378
22.8200 15.1827 0.0423
22.8400 15.1961 0.0411
22.8600 15.2094 0.0351
22.8800 15.2227 0.0461
22.9000 15.2360 0.0358
22.9200 15.2494 0.0388
22.9400 15.2627 0.0455
22.9600 15.2760 0.0351
22.9800 15.2893 0.0392
23.0000 15.3027 0.0479
23.0200 15.3160 0.0348
23.0400 15.3294 0.0437
23.0600 15.3427 0.0450
23.0800 15.3561 0.0362
23.1000 15.3694 0.0346
23.1200 15.3827 0.0429
23.1400 15.3961 0.0398
23.1600 15.4094 0.0415
23.1800 15.4228 0.0361
23.2000 15.4361 0.0344
23.2200 15.4494 0.0431
23.2400 15.4627 0.0351
23.2600 15.4760 0.0363
23.2800 15.4894 0.0414
23.3000 15.5027 0.0272
23.3200 15.5160 0.0406
23.3400 15.5293 0.0423
23.3600 15.5427 0.0286
23.3800 15.5560 0.0418
23.4000 15.5693 0.0376
23.4200 15.5827 0.0282
23.4400 15.5961 0.0385
23.4600 15.6095 0.0350
23.4800 15.6228 0.0270
23.5000 15.6361 0.0421
23.5200 15.6494 0.0329
23.5400 15.6628 0.0309
23.5600 15.6761 0.0421
23.5800 15.6894 0.0292
23.6000 15.7027 0.0358
23.6200 15.7160 0.0430
23.6400 15.7294 0.0208
23.6600 15.7427 0.0378
23.6800 15.7560 0.0366
23.7000 15.7693 0.0220
23.7200 15.7827 0.0375
23.7400 15.7960 0.0378
23.7600 15.8093 0.0243
23.7800 15.8227 0.0389
23.8000 15.8361 0.0337
23.8200 15.8495 0.0223
23.8400 15.8628 0.0361
23.8600 15.8761 0.0321
23.8800 15.8894 0.0222
23.9000 15.9028 0.0369
23.9200 15.9161 0.0273
23.9400 15.9293 0.0266
23.9600 15.9426 0.0411
23.9800 15.9560 0.0283
24.0000 15.9693 0.0225
24.0200 15.9827 0.0358
24.0400 15.9960 0.0227
24.0600 16.0093 0.0292
24.0800 16.0227 0.0299
24.1000 16.0361 0.0242
24.1200 16.0494 0.0263
24.1400 16.0627 0.0254
24.1600 16.0761 0.0264
24.1800 16.0894 0.0296
24.2000 16.1027 0.0268
24.2200 16.1160 0.0258
24.2400 16.1294 0.0277
24.2600 16.1427 0.0253
24.2800 16.1561 0.0274
24.3000 16.1694 0.0285
24.3200 16.1827 0.0268
24.3400 16.1961 0.0267
24.3600 16.2094 0.0280
24.3800 16.2228 0.0243
24.4000 16.2360 0.0303
24.4200 16.2494 0.0253
24.4400 16.2627 0.0225
24.4600 16.2760 0.0300
24.4800 16.2893 0.0243
24.5000 16.3027 0.0196
24.5200 16.3160 0.0300
24.5400 16.3294 0.0201
24.5600 16.3428 0.0213
24.5800 16.3561 0.0322
24.6000 16.3694 0.0238
24.6200 16.3828 0.0216
24.6400 16.3961 0.0304
24.6600 16.4094 0.0261
24.6800 16.4228 0.0263
24.7000 16.4361 0.0275
24.7200 16.4494 0.0230
24.7400 16.4627 0.0211
24.7600 16.4760 0.0293
24.7800 16.4893 0.0251
24.8000 16.5026 0.0229
24.8200 16.5160 0.0318
24.8400 16.5293 0.0225
24.8600 16.5427 0.0201
24.8800 16.5561 0.0286
24.9000 16.5694 0.0189
24.9200 16.5828 0.0163
24.9400 16.5961 0.0292
24.9600 16.6094 0.0200
24.9800 16.6228 0.0171
25.0000 16.6361 0.0267
25.0200 16.6494 0.0198
25.0400 16.6627 0.0172
25.0600 16.6760 0.0277
25.0800 16.6894 0.0179
25.1000 16.7027 0.0147
25.1200 16.7160 0.0291
25.1400 16.7293 0.0198
25.1600 16.7427 0.0160
25.1800 16.7560 0.0259
25.2000 16.7694 0.0159
25.2200 16.7827 0.0220
25.2400 16.7960 0.0275
25.2600 16.8094 0.0117
25.2800 16.8228 0.0210
25.3000 16.8361 0.0249
25.3200 16.8494 0.0096
25.3400 16.8628 0.0193
25.3600 16.8761 0.0264
25.3800 16.8894 0.0127
25.4000 16.9027 0.0231
25.4200 16.9160 0.0216
25.4400 16.9294 0.0122
25.4600 16.9427 0.0204
25.4800 16.9560 0.0225
25.5000 16.9693 0.0128
25.5200 16.9826 0.0202
25.5400 16.9960 0.0195
25.5600 17.0093 0.0081
25.5800 17.0227 0.0203
25.6000 17.0361 0.0185
25.6200 17.0494 0.0105
25.6400 17.0628 0.0152
25.6600 17.0761 0.0210
25.6800 17.0894 0.0117
25.7000 17.1027 0.0125
25.7200 17.1161 0.0186
25.7400 17.1294 0.0103
25.7600 17.1427 0.0160
25.7800 17.1560 0.0200
25.8000 17.1694 0.0118
25.8200 17.1827 0.0133
25.8400 17.1961 0.0226
25.8600 17.2094 0.0094
25.8800 17.2227 0.0145
25.9000 17.2360 0.0155
25.9200 17.2494 0.0101
25.9400 17.2627 0.0154
25.9600 17.2761 0.0194
25.9800 17.2894 0.0079
26.0000 17.3028 0.0114
26.0200 17.3161 0.0153
26.0400 17.3294 0.0133
26.0600 17.3428 0.0100
26.0800 17.3561 0.0133
26.1000 17.3694 0.0123
26.1200 17.3827 0.0122
26.1400 17.3960 0.0134
26.1600 17.4094 0.0141
26.1800 17.4227 0.0119
26.2000 17.4360 0.0166
26.2200 17.4493 0.0139
26.2400 17.4627 0.0065
26.2600 17.4761 0.0157
26.2800 17.4894 0.0114
26.3000 17.5027 0.0092
26.3200 17.5160 0.0126
26.3400 17.5294 0.0091
26.3600 17.5427 0.0079
26.3800 17.5560 0.0144
26.4000 17.5693 0.0105
26.4200 17.5827 0.0067
26.4400 17.5961 0.0136
26.4600 17.6094 0.0082
26.4800 17.6228 0.0083
26.5000 17.6361 0.0118
26.5200 17.6494 0.0071
26.5400 17.6628 0.0100
26.5600 17.6760 0.0083
26.5800 17.6893 0.0064
26.6000 17.7026 0.0118
26.6200 17.7160 0.0052
26.6400 17.7293 0.0034
26.6600 17.7427 0.0133
26.6800 17.7560 0.0025
26.7000 17.7694 0.0055
26.7200 17.7828 0.0081
26.7400 17.7961 0.0039
26.7600 17.8094 0.0044
26.7800 17.8228 0.0094
26.8000 17.8361 -0.0012
26.8200 17.8494 0.0027
26.8400 17.8627 0.0120
26.8600 17.8760 0.0021
26.8800 17.8894 0.0068
26.9000 17.9027 0.0104
26.9200 17.9160 -0.0028
26.9400 17.9293 0.0107
26.9600 17.9426 0.0083
26.9800 17.9560 -0.0068
27.0000 17.9693 0.0083
27.0200 17.9827 0.0063
27.0400 17.9960 -0.0030
27.0600 18.0094 0.0081
27.0800 18.0228 0.0015
27.1000 18.0361 -0.0012
27.1200 18.0494 0.0095
27.1400 18.0628 -0.0031
27.1600 18.0761 0.0021
27.1800 18.0894 0.0099
27.2000 18.1027 -0.0007
27.2200 18.1160 -0.0016
27.2400 18.1294 0.0080
27.2600 18.1427 -0.0017
27.2800 18.1560 0.0007
27.3000 18.1693 0.0078
27.3200 18.1826 -0.0010
27.3400 18.1960 -0.0044
27.3600 18.2094 0.0065
27.3800 18.2227 0.0001
27.4000 18.2360 0.0011
27.4200 18.2494 0.0025
27.4400 18.2628 -0.0031
27.4600 18.2761 -0.0027
27.4800 18.2894 0.0002
27.5000 18.3027 -0.0040
27.5200 18.3161 0.0008
27.5400 18.3295 0.0016
27.5600 18.3428 -0.0080
27.5800 18.3561 -0.0014
27.6000 18.3694 0.0023
27.6200 18.3828 -0.0059
27.6400 18.3960 -0.0010
27.6600 18.4093 0.0001
27.6800 18.4226 -0.0030
27.7000 18.4360 0.0028
27.7200 18.4494 -0.0012
27.7400 18.4627 -0.0065
27.7600 18.4760 -0.0014
27.7800 18.4894 -0.0029
27.8000 18.5028 -0.0082
27.8200 18.5161 -0.0015
27.8400 18.5294 -0.0022
27.8600 18.5428 -0.0067
27.8800 18.5561 -0.0076
27.9000 18.5694 -0.0026
27.9200 18.5827 -0.0053
27.9400 18.5960 -0.0047
27.9600 18.6093 -0.0059
27.9800 18.6227 -0.0043
28.0000 18.6361 -0.0103
28.0200 18.6494 -0.0064
28.0400 18.6627 -0.0058
28.0600 18.6760 -0.0145
28.0800 18.6894 -0.0094
28.1000 18.7027 -0.0061
28.1200 18.7160 -0.0162
28.1400 18.7294 -0.0034
28.1600 18.7428 -0.0133
28.1800 18.7561 -0.0118
28.2000 18.7694 -0.0051
28.2200 18.7828 -0.0101
28.2400 18.7961 -0.0096
28.2600 18.8095 -0.0086
28.2800 18.8228 -0.0087
28.3000 18.8361 -0.0100
28.3200 18.8494 -0.0081
28.3400 18.8627 -0.0048
28.3600 18.8760 -0.0098
28.3800 18.8893 -0.0105
28.4000 18.9027 -0.0074
28.4200 18.9160 -0.0103
28.4400 18.9294 -0.0123
28.4600 18.9427 -0.0068
28.4800 18.9560 -0.0105
28.5000 18.9694 -0.0174
28.5200 18.9827 -0.0029
28.5400 18.9961 -0.0128
28.5600 19.0094 -0.0150
28.5800 19.0227 -0.0033
28.6000 19.0361 -0.0098
28.6200 19.0494 -0.0181
28.6400 19.0628 -0.0061
28.6600 19.0761 -0.0132
28.6800 19.0894 -0.0190
28.7000 19.1027 -0.0019
28.7200 19.1160 -0.0152
28.7400 19.1293 -0.0239
28.7600 19.1426 -0.0037
28.7800 19.1559 -0.0205
28.8000 19.1693 -0.0211
28.8200 19.1826 -0.0071
28.8400 19.1960 -0.0184
28.8600 19.2094 -0.0185
28.8800 19.2228 -0.0078
28.9000 19.2361 -0.0241
28.9200 19.2495 -0.0158
28.9400 19.2628 -0.0118
28.9600 19.2761 -0.0251
28.9800 19.2895 -0.0213
29.0000 19.3027 -0.0091
29.0200 19.3160 -0.0259
29.0400 19.3293 -0.0203
29.0600 19.3427 -0.0126
29.0800 19.3560 -0.0261
29.1000 19.3693 -0.0224
29.1200 19.3827 -0.0173
29.1400 19.3960 -0.0230
29.1600 19.4094 -0.0258
29.1800 19.4227 -0.0183
29.2000 19.4361 -0.0241
29.2200 19.4494 -0.0254
29.2400 19.4628 -0.0169
29.2600 19.4761 -0.0280
29.2800 19.4894 -0.0299
29.3000 19.5027 -0.0124
29.3200 19.5161 -0.0280
29.3400 19.5294 -0.0287
29.3600 19.5427 -0.0133
29.3800 19.5560 -0.0307
29.4000 19.5694 -0.0285
29.4200 19.5827 -0.0149
29.4400 19.5960 -0.0300
29.4600 19.6093 -0.0260
29.4800 19.6227 -0.0183
29.5000 19.6360 -0.0319
29.5200 19.6494 -0.0311
29.5400 19.6627 -0.0157
29.5600 19.6760 -0.0346
29.5800 19.6894 -0.0293
29.6000 19.7028 -0.0200
29.6200 19.7161 -0.0313
29.6400 19.7294 -0.0280
29.6600 19.7427 -0.0187
29.6800 19.7561 -0.0327
29.7000 19.7694 -0.0249
29.7200 19.7827 -0.0223
29.7400 19.7960 -0.0320
29.7600 19.8094 -0.0226
29.7800 19.8227 -0.0237
29.8000 19.8360 -0.0358
29.8200 19.8493 -0.0259
29.8400 19.8626 -0.0175
29.8600 19.8760 -0.0360
29.8800 19.8894 -0.0313
29.9000 19.9027 -0.0214
29.9200 19.9160 -0.0374
29.9400 19.9294 -0.0259
29.9600 19.9428 -0.0229
29.9800 19.9561 -0.0399
30.0000 19.9694 -0.0316
30.0200 19.9828 -0.0254
30.0400 19.9961 -0.0341
30.0600 20.0094 -0.0322
30.0800 20.0227 -0.0272
30.1000 20.0360 -0.0341
30.1200 20.0493 -0.0339
30.1400 20.0627 -0.0284
30.1600 20.0761 -0.0336
30.1800 20.0894 -0.0379
30.2000 20.1027 -0.0311
30.2200 20.1160 -0.0392
30.2400 20.1294 -0.0380
30.2600 20.1427 -0.0304
30.2800 20.1560 -0.0397
30.3000 20.1694 -0.0367
30.3200 20.1827 -0.0327
30.3400 20.1961 -0.0415
30.3600 20.2094 -0.0370
30.3800 20.2227 -0.0364
30.4000 20.2361 -0.0385
30.4200 20.2495 -0.0436
30.4400 20.2628 -0.0347
30.4600 20.2761 -0.0410
30.4800 20.2894 -0.0431
30.5000 20.3027 -0.0352
30.5200 20.3160 -0.0410
30.5400 20.3293 -0.0394
30.5600 20.3426 -0.0348
30.5800 20.3560 -0.0405
30.6000 20.3693 -0.0441
30.6200 20.3827 -0.0322
30.6400 20.3960 -0.0441
30.6600 20.4094 -0.0454
30.6800 20.4228 -0.0361
30.7000 20.4362 -0.0437
30.7200 20.4494 -0.0492
30.7400 20.4627 -0.0336
30.7600 20.4761 -0.0069
30.7800 20.4894 0.0550
30.8000 20.5027 0.1257
30.8200 20.5160 0.1784
30.8400 20.5293 0.2311
30.8600 20.5427 0.2903
30.8800 20.5560 0.3255
30.9000 20.5693 0.3579
30.9200 20.5826 0.4047
30.9400 20.5960 0.4379
30.9600 20.6093 0.4692
30.9800 20.6227 0.5202
31.0000 20.6360 0.5426
31.0200 20.6494 0.5500
31.0400 20.6628 0.5596
31.0600 20.6761 0.5534
31.0800 20.6894 0.5520
31.1000 20.7028 0.5613
31.1200 20.7161 0.5576
31.1400 20.7294 0.5588
31.1600 20.7427 0.5629
31.1800 20.7560 0.5613
31.2000 20.7693 0.5595
31.2200 20.7827 0.5653
31.2400 20.7960 0.5633
31.2600 20.8093 0.5626
31.2800 20.8227 0.5609
31.3000 20.8360 0.5624
31.3200 20.8494 0.5619
31.3400 20.8628 0.5560
31.3600 20.8761 0.5651
31.3800 20.8894 0.5621
31.4000 20.9028 0.5589
31.4200 20.9161 0.5588
31.4400 20.9294 0.5594
31.4600 20.9427 0.5624
31.4800 20.9560 0.5597
31.5000 20.9694 0.5577
31.5200 20.9827 0.5619
31.5400 20.9961 0.5559
31.5600 21.0094 0.5549
31.5800 21.0228 0.5595
31.6000 21.0361 0.5617
31.6200 21.0494 0.5534
31.6400 21.0627 0.5588
31.6600 21.0760 0.5525
31.6800 21.0894 0.5523
31.7000 21.1027 0.5540
31.7200 21.1160 0.5526
31.7400 21.1294 0.5499
31.7600 21.1427 0.5529
31.7800 21.1561 0.5463
31.8000 21.1694 0.5486
31.8200 21.1827 0.5510
31.8400 21.1961 0.5468
31.8600 21.2094 0.5440
31.8800 21.2228 0.5492
31.9000 21.2361 0.5493
31.9200 21.2494 0.5459
31.9400 21.2627 0.5496
31.9600 21.2761 0.5439
31.9800 21.2894 0.5474
32.0000 21.3027 0.5480
32.0200 21.3160 0.5435
32.0400 21.3293 0.5444
32.0600 21.3427 0.5496
32.0800 21.3560 0.5389
32.1000 21.3694 0.5444
32.1200 21.3828 0.5484
32.1400 21.3961 0.5337
32.1600 21.4094 0.5422
32.1800 21.4228 0.5492
32.2000 21.4361 0.5369
32.2200 21.4494 0.5436
32.2400 21.4627 0.5483
32.2600 21.4760 0.5368
32.2800 21.4893 0.5421
32.3000 21.5027 0.5445
32.3200 21.5160 0.5358
32.3400 21.5294 0.5438
32.3600 21.5427 0.5391
32.3800 21.5560 0.5370
32.4000 21.5694 0.5437
32.4200 21.5827 0.5394
32.4400 21.5960 0.5392
32.4600 21.6094 0.5431
32.4800 21.6227 0.5394
32.5000 21.6361 0.5420
32.5200 21.6494 0.5397
32.5400 21.6627 0.5373
32.5600 21.6761 0.5420
32.5800 21.6895 0.5372
32.6000 21.7028 0.5377
32.6200 21.7161 0.5407
32.6400 21.7294 0.5362
32.6600 21.7427 0.5417
32.6800 21.7560 0.5381
32.7000 21.7693 0.5328
32.7200 21.7826 0.5396
32.7400 21.7960 0.5344
32.7600 21.8093 0.5350
32.7800 21.8227 0.5362
32.8000 21.8360 0.5334
32.8200 21.8494 0.5348
32.8400 21.8628 0.5384
32.8600 21.8761 0.5262
32.8800 21.8895 0.5340
32.9000 21.9028 0.5389
32.9200 21.9161 0.5280
32.9400 21.9294 0.5340
32.9600 21.9428 0.5348
32.9800 21.9561 0.5263
33.0000 21.9694 0.5355
33.0200 21.9827 0.5309
33.0400 21.9961 0.5264
33.0600 22.0094 0.5313
33.0800 22.0227 0.5324
33.1000 22.0360 0.5238
33.1200 22.0494 0.5327
33.1400 22.0627 0.5271
33.1600 22.0760 0.5202
33.1800 22.0894 0.5332
33.2000 22.1027 0.5272
33.2200 22.1161 0.5244
33.2400 22.1294 0.5318
33.2600 22.1427 0.5277
33.2800 22.1561 0.5224
33.3000 22.1694 0.5322
33.3200 22.1828 0.5264
33.3400 22.1961 0.5196
33.3600 22.2094 0.5330
33.3800 22.2227 0.5260
33.4000 22.2360 0.5194
33.4200 22.2494 0.5306
33.4400 22.2627 0.5215
33.4600 22.2760 0.5226
33.4800 22.2894 0.5281
33.5000 22.3027 0.5198
33.5200 22.3160 0.5208
33.5400 22.3294 0.5250
33.5600 22.3427 0.5220
33.5800 22.3560 0.5180
33.6000 22.3694 0.5238
33.6200 22.3827 0.5228
33.6400 22.3960 0.5174
33.6600 22.4094 0.5253
33.6800 22.4228 0.5158
33.7000 22.4361 0.5203
33.7200 22.4494 0.5247
33.7400 22.4628 0.5182
33.7600 22.4761 0.5157
33.7800 22.4894 0.5221
33.8000 22.5027 0.5180
33.8200 22.5160 0.5109
33.8400 22.5293 0.5248
33.8600 22.5427 0.5148
33.8800 22.5560 0.5134
33.9000 22.5693 0.5228
33.9200 22.5827 0.5153
33.9400 22.5961 0.5057
33.9600 22.6095 0.5196
33.9800 22.6228 0.5175
34.0000 22.6361 0.5023
34.0200 22.6495 0.5213
34.0400 22.6628 0.5103
34.0600 22.6761 0.5048
34.0800 22.6894 0.5246
34.1000 22.7027 0.5027
34.1200 22.7160 0.5102
34.1400 22.7293 0.5195
34.1600 22.7426 0.5033
34.1800 22.7560 0.5037
34.2000 22.7693 0.5169
34.2200 22.7827 0.5010
34.2400 22.7960 0.5083
34.2600 22.8094 0.5153
34.2800 22.8227 0.5031
34.3000 22.8361 0.5076
34.3200 22.8495 0.5078
34.3400 22.8628 0.5008
34.3600 22.8761 0.5131
34.3800 22.8895 0.5058
34.4000 22.9028 0.5035
34.4200 22.9161 0.5096
34.4400 22.9294 0.5068
34.4600 22.9427 0.5050
34.4800 22.9560 0.5065
34.5000 22.9694 0.5055
34.5200 22.9827 0.5044
34.5400 22.9960 0.5052
34.5600 23.0093 0.5029
34.5800 23.0227 0.5056
34.6000 23.0360 0.5011
34.6200 23.0493 0.5022
34.6400 23.0627 0.5086
34.6600 23.0760 0.4925
34.6800 23.0894 0.5017
34.7000 23.1027 0.5043
34.7200 23.1161 0.4913
34.7400 23.1294 0.5033
34.7600 23.1428 0.5041
34.7800 23.1561 0.4865
34.8000 23.1694 0.5017
34.8200 23.1827 0.5009
34.8400 23.1961 0.4876
34.8600 23.2094 0.5019
34.8800 23.2227 0.4929
34.9000 23.2360 0.4868
34.9200 23.2493 0.5056
34.9400 23.2627 0.4866
34.9600 23.2760 0.4825
34.9800 23.2894 0.5093
35.0000 23.3027 0.4843
35.0200 23.3161 0.4874
35.0400 23.3295 0.5012
35.0600 23.3428 0.4876
35.0800 23.3561 0.4849
35.1000 23.3694 0.5005
35.1200 23.3828 0.4866
35.1400 23.3961 0.4857
35.1600 23.4094 0.4983
35.1800 23.4227 0.4839
35.2000 23.4361 0.4891
35.2200 23.4494 0.4976
35.2400 23.4627 0.4788
35.2600 23.4760 0.4940
35.2800 23.4893 0.4943
35.3000 23.5027 0.4817
35.3200 23.5160 0.4905
35.3400 23.5293 0.4913
35.3600 23.5427 0.4841
35.3800 23.5561 0.4885
35.4000 23.5694 0.4871
35.4200 23.5828 0.4848
35.4400 23.5961 0.4864
35.4600 23.6094 0.4869
35.4800 23.6228 0.4871
35.5000 23.6361 0.4884
35.5200 23.6494 0.4818
35.5400 23.6627 0.4872
35.5600 23.6761 0.4838
35.5800 23.6894 0.4842
35.6000 23.7027 0.4841
35.6200 23.7160 0.4834
35.6400 23.7293 0.4860
35.6600 23.7427 0.4768
35.6800 23.7560 0.4805
35.7000 23.7694 0.4845
35.7200 23.7827 0.4812
35.7400 23.7961 0.4784
35.7600 23.8094 0.4818
35.7800 23.8227 0.4806
35.8000 23.8361 0.4775
35.8200 23.8494 0.4819
35.8400 23.8628 0.4784
35.8600 23.8761 0.4796
35.8800 23.8894 0.4807
35.9000 23.9027 0.4765
35.9200 23.9161 0.4791
35.9400 23.9294 0.4775
35.9600 23.9427 0.4794
35.9800 23.9559 0.4774
36.0000 23.9693 0.4779
36.0200 23.9826 0.4781
36.0400 23.9960 0.4746
36.0600 24.0093 0.4752
36.0800 24.0227 0.4817
36.1000 24.0361 0.4731
36.1200 24.0495 0.4727
36.1400 24.0628 0.4791
36.1600 24.0761 0.4680
36.1800 24.0895 0.4746
36.2000 24.1028 0.4752
36.2200 24.1161 0.4651
36.2400 24.1294 0.4753
36.2600 24.1427 0.4718
36.2800 24.1560 0.4644
36.3000 24.1693 0.4696
36.3200 24.1827 0.4712
36.3400 24.1960 0.4626
36.3600 24.2093 0.4707
36.3800 24.2227 0.4691
36.4000 24.2361 0.4556
36.4200 24.2494 0.4714
36.4400 24.2627 0.4648
36.4600 24.2761 0.4564
36.4800 24.2895 0.4657
36.5000 24.3028 0.4594
36.5200 24.3161 0.4591
36.5400 24.3294 0.4634
36.5600 24.3428 0.4613
36.5800 24.3561 0.4583
36.6000 24.3694 0.4602
36.6200 24.3827 0.4661
36.6400 24.3960 0.4581
36.6600 24.4094 0.4593
36.6800 24.4227 0.4588
36.7000 24.4360 0.4578
36.7200 24.4493 0.4615
36.7400 24.4627 0.4574
36.7600 24.4761 0.4560
36.7800 24.4894 0.4609
36.8000 24.5027 0.4595
36.8200 24.5161 0.4537
36.8400 24.5294 0.4593
36.8600 24.5428 0.4582
36.8800 24.5561 0.4520
36.9000 24.5694 0.4591
36.9200 24.5828 0.4580
36.9400 24.5961 0.4528
36.9600 24.6094 0.4571
36.9800 24.6227 0.4532
37.0000 24.6361 0.4532
37.0200 24.6494 0.4537
37.0400 24.6627 0.4537
37.0600 24.6760 0.4508
37.0800 24.6893 0.4555
37.1000 24.7027 0.4503
37.1200 24.7160 0.4497
37.1400 24.7294 0.4585
37.1600 24.7427 0.4437
37.1800 24.7561 0.4523
37.2000 24.7694 0.4527
37.2200 24.7828 0.4424
37.2400 24.7961 0.4534
37.2600 24.8094 0.4484
37.2800 24.8228 0.4432
37.3000 24.8361 0.4541
37.3200 24.8494 0.4504
37.3400 24.8627 0.4398
37.3600 24.8760 0.4559
37.3800 24.8894 0.4420
37.4000 24.9027 0.4401
37.4200 24.9160 0.4530
37.4400 24.9294 0.4390
37.4600 24.9427 0.4422
37.4800 24.9560 0.4484
37.5000 24.9693 0.4396
37.5200 24.9827 0.4473
37.5400 24.9960 0.4473
37.5600 25.0094 0.4382
37.5800 25.0227 0.4458
37.6000 25.0361 0.4439
37.6200 25.0494 0.4390
37.6400 25.0628 0.4459
37.6600 25.0761 0.4417
37.6800 25.0894 0.4356
37.7000 25.1027 0.4438
37.7200 25.1160 0.4354
37.7400 25.1294 0.4346
37.7600 25.1427 0.4422
37.7800 25.1560 0.4350
37.8000 25.1693 0.4394
37.8200 25.1826 0.4418
37.8400 25.1960 0.4317
37.8600 25.2093 0.4393
37.8800 25.2227 0.4359
37.9000 25.2361 0.4369
37.9200 25.2495 0.4406
37.9400 25.2628 0.4326
37.9600 25.2761 0.4336
37.9800 25.2894 0.4386
38.0000 25.3028 0.4324
38.0200 25.3161 0.4330
38.0400 25.3294 0.4364
38.0600 25.3427 0.4346
38.0800 25.3560 0.4340
38.1000 25.3694 0.4359
38.1200 25.3827 0.4292
38.1400 25.3960 0.4362
38.1600 25.4093 0.4339
38.1800 25.4227 0.4262
38.2000 25.4360 0.4364
38.2200 25.4493 0.4336
38.2400 25.4627 0.4249
38.2600 25.4760 0.4337
38.2800 25.4894 0.4331
38.3000 25.5028 0.4213
38.3200 25.5161 0.4320
38.3400 25.5294 0.4324
38.3600 25.5428 0.4185
38.3800 25.5561 0.4296
38.4000 25.5694 0.4297
38.4200 25.5827 0.4210
38.4400 25.5960 0.4346
38.4600 25.6093 0.4264
38.4800 25.6227 0.4194
38.5000 25.6360 0.4341
38.5200 25.6493 0.4237
38.5400 25.6627 0.4214
38.5600 25.6761 0.4335
38.5800 25.6894 0.4220
38.6000 25.7027 0.4228
38.6200 25.7161 0.4343
38.6400 25.7294 0.4222
38.6600 25.7427 0.4233
38.6800 25.7560 0.4344
38.7000 25.7694 0.4205
38.7200 25.7827 0.4263
38.7400 25.7961 0.4304
38.7600 25.8094 0.4224
38.7800 25.8227 0.4225
38.8000 25.8361 0.4282
38.8200 25.8494 0.4238
38.8400 25.8628 0.4186
38.8600 25.8761 0.4245
38.8800 25.8894 0.4247
38.9000 25.9027 0.4202
38.9200 25.9160 0.4256
38.9400 25.9293 0.4172
38.9600 25.9427 0.4177
38.9800 25.9560 0.4241
39.0000 25.9694 0.4162
39.0200 25.9827 0.4134
39.0400 25.9961 0.4241
39.0600 26.0094 0.4164
39.0800 26.0227 0.4138
39.1000 26.0361 0.4220
39.1200 26.0494 0.4124
39.1400 26.0627 0.4145
39.1600 26.0761 0.4205
39.1800 26.0894 0.4116
39.2000 26.1027 0.4133
39.2200 26.1160 0.4197
39.2400 26.1293 0.4093
39.2600 26.1426 0.4102
39.2800 26.1560 0.4197
39.3000 26.1693 0.4164
39.3200 26.1827 0.4070
39.3400 26.1961 0.4157
39.3600 26.2094 0.4115
39.3800 26.2228 0.4080
39.4000 26.2361 0.4103
39.4200 26.2494 0.4122
39.4400 26.2628 0.4125
39.4600 26.2761 0.4121
39.4800 26.2894 0.4083
39.5000 26.3027 0.4131
39.5200 26.3160 0.4109
39.5400 26.3294 0.4068
39.5600 26.3427 0.4087
39.5800 26.3560 0.4146
39.6000 26.3693 0.4067
39.6200 26.3827 0.4103
39.6400 26.3961 0.4141
39.6600 26.4094 0.4086
39.6800 26.4227 0.4075
39.7000 26.4361 0.4125
39.7200 26.4494 0.4052
39.7400 26.4628 0.4038
39.7600 26.4761 0.4104
39.7800 26.4894 0.4041
39.8000 26.5028 0.4072
39.8200 26.5161 0.4078
39.8400 26.5294 0.4048
39.8600 26.5427 0.4039
39.8800 26.5560 0.4049
39.9000 26.5694 0.4062
39.9200 26.5827 0.4034
39.9400 26.5960 0.3988
39.9600 26.6093 0.4078
39.9800 26.6226 0.4021
40.0000 26.6360 0.3999
40.0200 26.6493 0.4052
40.0400 26.6627 0.3960
40.0600 26.6760 0.4013
40.0800 26.6894 0.4031
40.1000 26.7028 0.3958
40.1200 26.7161 0.4047
40.1400 26.7294 0.4049
40.1600 26.7427 0.3971
40.1800 26.7561 0.4010
40.2000 26.7694 0.4023
40.2200 26.7827 0.3913
40.2400 26.7960 0.4045
40.2600 26.8094 0.4009
40.2800 26.8227 0.3904
40.3000 26.8360 0.4058
40.3200 26.8494 0.4003
40.3400 26.8627 0.3888
40.3600 26.8760 0.4017
40.3800 26.8893 0.3973
40.4000 26.9027 0.3881
40.4200 26.9160 0.3991
40.4400 26.9294 0.3989
40.4600 26.9428 0.3883
40.4800 26.9561 0.4015
40.5000 26.9694 0.3941
40.5200 26.9828 0.3901
40.5400 26.9961 0.3967
40.5600 27.0094 0.3914
40.5800 27.0227 0.3882
40.6000 27.0360 0.3917
40.6200 27.0494 0.3948
40.6400 27.0627 0.3878
40.6600 27.0760 0.3892
40.6800 27.0893 0.3947
40.7000 27.1027 0.3881
40.7200 27.1160 0.3882
40.7400 27.1294 0.3924
40.7600 27.1427 0.3882
40.7800 27.1560 0.3848
40.8000 27.1694 0.3880
40.8200 27.1827 0.3863
40.8400 27.1960 0.3822
40.8600 27.2093 0.3926
40.8800 27.2227 0.3827
40.9000 27.2361 0.3830
40.9200 27.2494 0.3856
40.9400 27.2628 0.3766
40.9600 27.2761 0.3859
40.9800 27.2894 0.3810
41.0000 27.3028 0.3748
41.0200 27.3161 0.3826
41.0400 27.3294 0.3805
41.0600 27.3427 0.3739
41.0800 27.3560 0.3813
41.1000 27.3693 0.3769
41.1200 27.3827 0.3679
41.1400 27.3960 0.3832
41.1600 27.4094 0.3755
41.1800 27.4228 0.3658
41.2000 27.4361 0.3831
41.2200 27.4494 0.3732
41.2400 27.4628 0.3696
41.2600 27.4761 0.3775
41.2800 27.4895 0.3728
41.3000 27.5027 0.3712
41.3200 27.5160 0.3749
41.3400 27.5294 0.3782
41.3600 27.5427 0.3734
41.3800 27.5560 0.3747
41.4000 27.5693 0.3742
41.4200 27.5826 0.3757
41.4400 27.5960 0.3792
41.4600 27.6093 0.3694
41.4800 27.6227 0.3775
41.5000 27.6360 0.3754
41.5200 27.6494 0.3707
41.5400 27.6628 0.3748
41.5600 27.6761 0.3694
41.5800 27.6894 0.3757
41.6000 27.7028 0.3790
41.6200 27.7161 0.3651
41.6400 27.7294 0.3738
41.6600 27.7427 0.3739
41.6800 27.7560 0.3694
41.7000 27.7694 0.3753
41.7200 27.7827 0.3740
41.7400 27.7960 0.3670
41.7600 27.8093 0.3761
41.7800 27.8226 0.3738
41.8000 27.8360 0.3660
41.8200 27.8494 0.3746
41.8400 27.8627 0.3658
41.8600 27.8760 0.3653
41.8800 27.8894 0.3755
41.9000 27.9028 0.3635
41.9200 27.9161 0.3651
41.9400 27.9294 0.3728
41.9600 27.9427 0.3640
41.9800 27.9561 0.3656
42.0000 27.9694 0.3664
42.0200 27.9827 0.3653
42.0400 27.9961 0.3688
42.0600 28.0094 0.3670
42.0800 28.0227 0.3613
42.1000 28.0361 0.3673
42.1200 28.0493 0.3622
42.1400 28.0626 0.3684
42.1600 28.0760 0.3656
42.1800 28.0894 0.3566
42.2000 28.1027 0.3628
42.2200 28.1160 0.3651
42.2400 28.1294 0.3619
42.2600 28.1428 0.3687
42.2800 28.1561 0.3584
42.3000 28.1694 0.3580
42.3200 28.1827 0.3636
42.3400 28.1961 0.3568
42.3600 28.2094 0.3596
42.3800 28.2227 0.3677
42.4000 28.2360 0.3544
42.4200 28.2493 0.3617
42.4400 28.2627 0.3624
42.4600 28.2761 0.3561
42.4800 28.2894 0.3590
42.5000 28.3027 0.3569
42.5200 28.3160 0.3602
42.5400 28.3294 0.3570
42.5600 28.3427 0.3542
42.5800 28.3560 0.3616
42.6000 28.3694 0.3516
42.6200 28.3828 0.3509
42.6400 28.3961 0.3584
42.6600 28.4094 0.3540
42.6800 28.4228 0.3500
42.7000 28.4361 0.3558
42.7200 28.4495 0.3492
42.7400 28.4628 0.3522
42.7600 28.4761 0.3563
42.7800 28.4894 0.3515
42.8000 28.5027 0.3499
42.8200 28.5160 0.3551
42.8400 28.5293 0.3458
42.8600 28.5427 0.3495
42.8800 28.5560 0.3599
42.9000 28.5694 0.3426
42.9200 28.5827 0.3482
42.9400 28.5960 0.3522
42.9600 28.6094 0.3448
42.9800 28.6227 0.3472
43.0000 28.6361 0.3502
43.0200 28.6494 0.3486
43.0400 28.6627 0.3497
43.0600 28.6761 0.3492
43.0800 28.6894 0.3469
43.1000 28.7028 0.3509
43.1200 28.7161 0.3524
43.1400 28.7294 0.3440
43.1600 28.7427 0.3510
43.1800 28.7561 0.3429
43.2000 28.7693 0.3458
43.2200 28.7826 0.3491
43.2400 28.7960 0.3474
43.2600 28.8093 0.3423
43.2800 28.8226 0.3488
43.3000 28.8360 0.3499
43.3200 28.8494 0.3434
43.3400 28.8628 0.3496
43.3600 28.8762 0.3459
43.3800 28.8895 0.3403
43.4000 28.9028 0.3483
43.4200 28.9162 0.3499
43.4400 28.9295 0.3422
43.4600 28.9427 0.3459
43.4800 28.9560 0.3484
43.5000 28.9693 0.3440
43.5200 28.9827 0.3435
43.5400 28.9960 0.3470
43.5600 29.0093 0.3423
43.5800 29.0227 0.3418
43.6000 29.0360 0.3487
43.6200 29.0494 0.3377
43.6400 29.0627 0.3441
43.6600 29.0761 0.3495
43.6800 29.0894 0.3353
43.7000 29.1028 0.3434
43.7200 29.1161 0.3404
43.7400 29.1294 0.3320
43.7600 29.1427 0.3448
43.7800 29.1561 0.3462
43.8000 29.1694 0.3291
43.8200 29.1827 0.3417
43.8400 29.1960 0.3442
43.8600 29.2094 0.3296
43.8800 29.2227 0.3439
43.9000 29.2360 0.3369
43.9200 29.2493 0.3258
43.9400 29.2626 0.3511
43.9600 29.2760 0.3318
43.9800 29.2894 0.3302
44.0000 29.3027 0.3465
44.0200 29.3160 0.3303
44.0400 29.3294 0.3286
44.0600 29.3428 0.3391
44.0800 29.3561 0.3262
44.1000 29.3694 0.3293
44.1200 29.3827 0.3412
44.1400 29.3961 0.3238
44.1600 29.4094 0.3291
44.1800 29.4228 0.3387
44.2000 29.4361 0.3211
44.2200 29.4494 0.3289
44.2400 29.4627 0.3339
44.2600 29.4760 0.3230
44.2800 29.4893 0.3296
44.3000 29.5026 0.3296
44.3200 29.5160 0.3258
44.3400 29.5293 0.3266
44.3600 29.5427 0.3251
44.3800 29.5560 0.3190
44.4000 29.5693 0.3297
44.4200 29.5827 0.3237
44.4400 29.5961 0.3160
44.4600 29.6095 0.3264
44.4800 29.6228 0.3217
44.5000 29.6361 0.3225
44.5200 29.6494 0.3239
44.5400 29.6627 0.3183
44.5600 29.6760 0.3231
44.5800 29.6893 0.3191
44.6000 29.7027 0.3168
44.6200 29.7161 0.3234
44.6400 29.7294 0.3194
44.6600 29.7427 0.3156
44.6800 29.7560 0.3218
44.7000 29.7694 0.3163
44.7200 29.7827 0.3165
44.7400 29.7960 0.3243
44.7600 29.8094 0.3114
44.7800 29.8227 0.3186
44.8000 29.8361 0.3207
44.8200 29.8494 0.3116
44.8400 29.8627 0.3204
44.8600 29.8761 0.3207
44.8800 29.8895 0.3115
44.9000 29.9028 0.3129
44.9200 29.9161 0.3175
44.9400 29.9294 0.3166
44.9600 29.9427 0.3152
44.9800 29.9560 0.3141
45.0000 29.9693 0.3117
45.0200 29.9827 0.3136
45.0400 29.9960 0.3111
45.0600 30.0094 0.3117
45.0800 30.0227 0.3176
45.1000 30.0360 0.3128
45.1200 30.0494 0.3087
45.1400 30.0628 0.3100
45.1600 30.0761 0.3098
45.1800 30.0895 0.3110
45.2000 30.1028 0.3108
45.2200 30.1161 0.3157
45.2400 30.1294 0.3076
45.2600 30.1428 0.3093
45.2800 30.1560 0.3110
45.3000 30.1693 0.3047
45.3200 30.1827 0.3137
45.3400 30.1960 0.3084
45.3600 30.2094 0.3035
45.3800 30.2227 0.3099
45.4000 30.2360 0.3115
45.4200 30.2493 0.3038
45.4400 30.2627 0.3067
45.4600 30.2760 0.3096
45.4800 30.2894 0.3033
45.5000 30.3028 0.3037
45.5200 30.3161 0.3090
45.5400 30.3294 0.3026
45.5600 30.3428 0.3093
45.5800 30.3561 0.3049
45.6000 30.3694 0.3024
45.6200 30.3827 0.3059
45.6400 30.3960 0.3014
45.6600 30.4093 0.2994
45.6800 30.4226 0.3072
45.7000 30.4360 0.3008
45.7200 30.4493 0.3001
45.7400 30.4627 0.3053
45.7600 30.4760 0.3055
45.7800 30.4894 0.2949
45.8000 30.5028 0.3019
45.8200 30.5161 0.3022
45.8400 30.5294 0.2961
45.8600 30.5427 0.3025
45.8800 30.5561 0.2974
45.9000 30.5694 0.2908
45.9200 30.5827 0.3028
45.9400 30.5960 0.2924
45.9600 30.6094 0.2952
45.9800 30.6228 0.3004
46.0000 30.6361 0.2917
46.0200 30.6494 0.2980
46.0400 30.6628 0.2957
46.0600 30.6761 0.2932
46.0800 30.6894 0.2912
46.1000 30.7027 0.2966
46.1200 30.7160 0.2910
46.1400 30.7294 0.2923
46.1600 30.7427 0.3000
46.1800 30.7560 0.2902
46.2000 30.7693 0.2900
46.2200 30.7827 0.2996
46.2400 30.7961 0.2885
46.2600 30.8094 0.2888
46.2800 30.8227 0.2953
46.3000 30.8361 0.2892
46.3200 30.8494 0.2927
46.3400 30.8628 0.2956
46.3600 30.8761 0.2865
46.3800 30.8894 0.2942
46.4000 30.9028 0.2933
46.4200 30.9161 0.2844
46.4400 30.9294 0.2934
46.4600 30.9427 0.2889
46.4800 30.9560 0.2861
46.5000 30.9693 0.2932
46.5200 30.9827 0.2904
46.5400 30.9960 0.2847
46.5600 31.0093 0.2901
46.5800 31.0227 0.2906
46.6000 31.0361 0.2805
46.6200 31.0494 0.2870
46.6400 31.0628 0.2849
46.6600 31.0761 0.2855
46.6800 31.0894 0.2855
46.7000 31.1028 0.2835
46.7200 31.1161 0.2839
46.7400 31.1294 0.2858
46.7600 31.1427 0.2833
46.7800 31.1561 0.2842
46.8000 31.1694 0.2840
46.8200 31.1827 0.2866
46.8400 31.1960 0.2829
46.8600 31.2094 0.2798
46.8800 31.2227 0.2854
46.9000 31.2360 0.2798
46.9200 31.2494 0.2851
46.9400 31.2627 0.2853
46.9600 31.2761 0.2770
46.9800 31.2894 0.2878
47.0000 31.3027 0.2837
47.0200 31.3161 0.2774
47.0400 31.3294 0.2908
47.0600 31.3428 0.2770
47.0800 31.3561 0.2789
47.1000 31.3694 0.2874
47.1200 31.3827 0.2825
47.1400 31.3960 0.2803
47.1600 31.4094 0.2849
47.1800 31.4227 0.2776
47.2000 31.4360 0.2844
47.2200 31.4493 0.2841
47.2400 31.4627 0.2752
47.2600 31.4760 0.2835
47.2800 31.4893 0.2814
47.3000 31.5027 0.2812
47.3200 31.5161 0.2806
47.3400 31.5294 0.2772
47.3600 31.5427 0.2795
47.3800 31.5560 0.2846
47.4000 31.5694 0.2785
47.4200 31.5827 0.2793
47.4400 31.5961 0.2822
47.4600 31.6094 0.2767
47.4800 31.6227 0.2817
47.5000 31.6360 0.2820
47.5200 31.6494 0.2771
47.5400 31.6627 0.2798
47.5600 31.6760 0.2776
47.5800 31.6894 0.2805
47.6000 31.7027 0.2766
47.6200 31.7160 0.2752
47.6400 31.7294 0.2788
47.6600 31.7427 0.2763
47.6800 31.7561 0.2742
47.7000 31.7694 0.2751
47.7200 31.7827 0.2721
47.7400 31.7961 0.2769
47.7600 31.8094 0.2748
47.7800 31.8228 0.2726
47.8000 31.8361 0.2729
47.8200 31.8494 0.2782
47.8400 31.8627 0.2724
47.8600 31.8760 0.2700
47.8800 31.8894 0.2725
47.9000 31.9027 0.2724
47.9200 31.9160 0.2710
47.9400 31.9294 0.2697
47.9600 31.9427 0.2728
47.9800 31.9560 0.2739
48.0000 31.9693 0.2671
48.0200 31.9827 0.2725
48.0400 31.9960 0.2695
48.0600 32.0094 0.2694
48.0800 32.0227 0.2703
48.1000 32.0360 0.2689
48.1200 32.0494 0.2710
48.1400 32.0627 0.2657
48.1600 32.0761 0.2674
48.1800 32.0894 0.2708
48.2000 32.1028 0.2691
48.2200 32.1161 0.2676
48.2400 32.1294 0.2698
48.2600 32.1427 0.2701
48.2800 32.1560 0.2652
48.3000 32.1693 0.2720
48.3200 32.1826 0.2670
48.3400 32.1960 0.2647
48.3600 32.2093 0.2722
48.3800 32.2227 0.2657
48.4000 32.2361 0.2621
48.4200 32.2495 0.2703
48.4400 32.2628 0.2661
48.4600 32.2761 0.2572
48.4800 32.2895 0.2704
48.5000 32.3028 0.2671
48.5200 32.3161 0.2555
48.5400 32.3294 0.2744
48.5600 32.3427 0.2652
48.5800 32.3560 0.2542
48.6000 32.3694 0.2688
48.6200 32.3827 0.2591
48.6400 32.3960 0.2562
48.6600 32.4093 0.2642
48.6800 32.4227 0.2606
48.7000 32.4360 0.2560
48.7200 32.4494 0.2646
48.7400 32.4627 0.2552
48.7600 32.4761 0.2569
48.7800 32.4895 0.2616
48.8000 32.5028 0.2539
48.8200 32.5161 0.2565
48.8400 32.5295 0.2615
48.8600 32.5428 0.2530
48.8800 32.5561 0.2543
48.9000 32.5694 0.2559
48.9200 32.5827 0.2533
48.9400 32.5960 0.2469
48.9600 32.6094 0.2577
48.9800 32.6227 0.2523
49.0000 32.6360 0.2454
49.0200 32.6493 0.2542
49.0400 32.6627 0.2512
49.0600 32.6761 0.2441
49.0800 32.6894 0.2524
49.1000 32.7027 0.2551
49.1200 32.7161 0.2421
49.1400 32.7294 0.2512
49.1600 32.7428 0.2536
49.1800 32.7561 0.2428
49.2000 32.7694 0.2577
49.2200 32.7828 0.2487
49.2400 32.7961 0.2416
49.2600 32.8094 0.2584
49.2800 32.8227 0.2505
49.3000 32.8361 0.2443
49.3200 32.8494 0.2522
49.3400 32.8627 0.2473
49.3600 32.8759 0.2469
49.3800 32.8893 0.2542
49.4000 32.9027 0.2427
49.4200 32.9160 0.2480
49.4400 32.9294 0.2556
49.4600 32.9427 0.2410
49.4800 32.9561 0.2450
49.5000 32.9695 0.2525
49.5200 32.9828 0.2356
49.5400 32.9961 0.2477
49.5600 33.0094 0.2506
49.5800 33.0228 0.2385
49.6000 33.0361 0.2476
49.6200 33.0494 0.2495
49.6400 33.0627 0.2349
49.6600 33.0760 0.2435
49.6800 33.0894 0.2436
49.7000 33.1027 0.2392
49.7200 33.1160 0.2480
49.7400 33.1293 0.2417
49.7600 33.1427 0.2385
49.7800 33.1560 0.2424
49.8000 33.1693 0.2400
49.8200 33.1827 0.2332
49.8400 33.1961 0.2433
49.8600 33.2094 0.2339
49.8800 33.2228 0.2321
49.9000 33.2361 0.2400
49.9200 33.2494 0.2350
49.9400 33.2628 0.2337
49.9600 33.2761 0.2332
49.9800 33.2894 0.2357
50.0000 33.3027 0.2336
50.0200 33.3161 0.2323
50.0400 33.3294 0.2368
50.0600 33.3427 0.2307
50.0800 33.3560 0.2295
50.1000 33.3693 0.2329
50.1200 33.3827 0.2291
50.1400 33.3960 0.2259
50.1600 33.4094 0.2306
50.1800 33.4227 0.2285
50.2000 33.4361 0.2235
50.2200 33.4494 0.2317
50.2400 33.4627 0.2264
50.2600 33.4761 0.2214
50.2800 33.4894 0.2329
50.3000 33.5028 0.2227
50.3200 33.5161 0.2187
50.3400 33.5294 0.2315
50.3600 33.5427 0.2254
50.3800 33.5561 0.2159
50.4000 33.5694 0.2287
50.4200 33.5827 0.2210
50.4400 33.5960 0.2164
50.4600 33.6093 0.2271
50.4800 33.6226 0.2194
50.5000 33.6360 0.2157
50.5200 33.6493 0.2257
50.5400 33.6627 0.2196
50.5600 33.6761 0.2083
50.5800 33.6895 0.2234
50.6000 33.7028 0.2148
50.6200 33.7161 0.2118
50.6400 33.7295 0.2208
50.6600 33.7428 0.2149
50.6800 33.7561 0.2144
50.7000 33.7694 0.2210
50.7200 33.7827 0.2166
50.7400 33.7960 0.2145
50.7600 33.8093 0.2186
50.7800 33.8227 0.2194
50.8000 33.8360 0.2150
50.8200 33.8494 0.2205
50.8400 33.8627 0.2180
50.8600 33.8761 0.2158
50.8800 33.8894 0.2153
50.9000 33.9027 0.2183
50.9200 33.9161 0.2212
50.9400 33.9294 0.2162
50.9600 33.9428 0.2192
50.9800 33.9561 0.2200
51.0000 33.9694 0.2166
51.0200 33.9827 0.2231
51.0400 33.9961 0.2151
51.0600 34.0094 0.2144
51.0800 34.0227 0.2291
51.1000 34.0360 0.2140
51.1200 34.0494 0.2136
51.1400 34.0627 0.2284
51.1600 34.0760 0.2133
51.1800 34.0893 0.2200
51.2000 34.1027 0.2251
51.2200 34.1160 0.2121
51.2400 34.1294 0.2215
51.2600 34.1427 0.2249
51.2800 34.1561 0.2096
51.3000 34.1695 0.2206
51.3200 34.1828 0.2205
51.3400 34.1961 0.2084
51.3600 34.2094 0.2255
51.3800 34.2228 0.2110
51.4000 34.2361 0.2114
51.4200 34.2494 0.2222
51.4400 34.2627 0.2108
51.4600 34.2761 0.2166
51.4800 34.2894 0.2210
51.5000 34.3027 0.2074
51.5200 34.3160 0.2171
51.5400 34.3293 0.2205
51.5600 34.3427 0.2042
51.5800 34.3560 0.2160
51.6000 34.3694 0.2155
51.6200 34.3827 0.2029
51.6400 34.3961 0.2144
51.6600 34.4094 0.2086
51.6800 34.4228 0.2069
51.7000 34.4361 0.2143
51.7200 34.4494 0.2084
51.7400 34.4628 0.2066
51.7600 34.4761 0.2107
51.7800 34.4894 0.2073
51.8000 34.5027 0.2056
51.8200 34.5160 0.2092
51.8400 34.5294 0.2025
51.8600 34.5427 0.2030
51.8800 34.5560 0.2121
51.9000 34.5693 0.2039
51.9200 34.5827 0.2037
51.9400 34.5960 0.2081
51.9600 34.6093 0.1975
51.9800 34.6227 0.2000
52.0000 34.6360 0.2073
52.0200 34.6494 0.1963
52.0400 34.6627 0.2013
52.0600 34.6761 0.2037
52.0800 34.6894 0.1982
52.1000 34.7028 0.2048
52.1200 34.7161 0.2016
52.1400 34.7294 0.1948
52.1600 34.7427 0.2012
52.1800 34.7560 0.1977
52.2000 34.7694 0.1893
52.2200 34.7827 0.2034
52.2400 34.7960 0.1980
52.2600 34.8093 0.1928
52.2800 34.8227 0.1995
52.3000 34.8360 0.1969
52.3200 34.8493 0.1911
52.3400 34.8627 0.1997
52.3600 34.8761 0.1961
52.3800 34.8895 0.1905
52.4000 34.9028 0.1959
52.4200 34.9161 0.1912
52.4400 34.9294 0.1914
52.4600 34.9427 0.1978
52.4800 34.9561 0.1939
52.5000 34.9694 0.1929
52.5200 34.9827 0.1930
52.5400 34.9960 0.1985
52.5600 35.0094 0.1912
52.5800 35.0227 0.1985
52.6000 35.0360 0.1962
52.6200 35.0493 0.1897
52.6400 35.0627 0.1966
52.6600 35.0760 0.1924
52.6800 35.0893 0.1920
52.7000 35.1027 0.1969
52.7200 35.1160 0.1934
52.7400 35.1294 0.1909
52.7600 35.1428 0.1958
52.7800 35.1561 0.1920
52.8000 35.1694 0.1934
52.8200 35.1828 0.1915
52.8400 35.1961 0.1946
52.8600 35.2094 0.1933
52.8800 35.2227 0.1940
52.9000 35.2360 0.1959
52.9200 35.2493 0.1910
52.9400 35.2627 0.1892
52.9600 35.2760 0.1949
52.9800 35.2893 0.1933
53.0000 35.3027 0.1934
53.0200 35.3161 0.1916
53.0400 35.3294 0.1909
53.0600 35.3428 0.1820
53.0800 35.3561 0.1941
53.1000 35.3694 0.1990
53.1200 35.3828 0.1808
53.1400 35.3961 0.1883
53.1600 35.4094 0.1945
53.1800 35.4227 0.1792
53.2000 35.4361 0.1876
53.2200 35.4494 0.1885
53.2400 35.4627 0.1788
53.2600 35.4761 0.1825
53.2800 35.4894 0.1869
53.3000 35.5028 0.1799
53.3200 35.5160 0.1859
53.3400 35.5293 0.1842
53.3600 35.5427 0.1722
53.3800 35.5560 0.1863
53.4000 35.5693 0.1810
53.4200 35.5827 0.1755
53.4400 35.5960 0.1867
53.4600 35.6094 0.1727
53.4800 35.6228 0.1763
53.5000 35.6361 0.1844
53.5200 35.6494 0.1733
53.5400 35.6627 0.1766
53.5600 35.6761 0.1798
53.5800 35.6894 0.1748
53.6000 35.7027 0.1714
53.6200 35.7161 0.1795
53.6400 35.7294 0.1748
53.6600 35.7427 0.1770
53.6800 35.7560 0.1763
53.7000 35.7693 0.1707
53.7200 35.7826 0.1726
53.7400 35.7960 0.1730
53.7600 35.8093 0.1684
53.7800 35.8227 0.1691
53.8000 35.8360 0.1702
53.8200 35.8494 0.1685
53.8400 35.8628 0.1659
53.8600 35.8761 0.1711
53.8800 35.8894 0.1633
53.9000 35.9028 0.1651
53.9200 35.9161 0.1683
53.9400 35.9294 0.1626
53.9600 35.9427 0.1654
53.9800 35.9560 0.1694
54.0000 35.9694 0.1603
54.0200 35.9827 0.1607
54.0400 35.9960 0.1664
54.0600 36.0093 0.1638
54.0800 36.0227 0.1569
54.1000 36.0360 0.1656
54.1200 36.0494 0.1623
54.1400 36.0627 0.1535
54.1600 36.0760 0.1645
54.1800 36.0894 0.1591
54.2000 36.1027 0.1544
54.2200 36.1161 0.1625
54.2400 36.1294 0.1581
54.2600 36.1428 0.1528
54.2800 36.1561 0.1603
54.3000 36.1695 0.1533
54.3200 36.1827 0.1535
54.3400 36.1960 0.1620
54.3600 36.2094 0.1522
54.3800 36.2227 0.1522
54.4000 36.2360 0.1641
54.4200 36.2493 0.1490
54.4400 36.2627 0.1535
54.4600 36.2760 0.1596
54.4800 36.2894 0.1485
54.5000 36.3027 0.1498
54.5200 36.3160 0.1596
54.5400 36.3294 0.1490
54.5600 36.3428 0.1512
54.5800 36.3561 0.1529
54.6000 36.3694 0.1545
54.6200 36.3828 0.1513
54.6400 36.3961 0.1528
54.6600 36.4094 0.1488
54.6800 36.4227 0.1529
54.7000 36.4360 0.1524
54.7200 36.4494 0.1469
54.7400 36.4627 0.1514
54.7600 36.4760 0.1524
54.7800 36.4893 0.1502
54.8000 36.5027 0.1497
54.8200 36.5160 0.1540
54.8400 36.5294 0.1483
54.8600 36.5427 0.1493
54.8800 36.5560 0.1511
54.9000 36.5694 0.1482
54.9200 36.5828 0.1499
54.9400 36.5961 0.1478
54.9600 36.6094 0.1504
54.9800 36.6227 0.1513
55.0000 36.6361 0.1496
55.0200 36.6494 0.1510
55.0400 36.6627 0.1518
55.0600 36.6760 0.1467
55.0800 36.6893 0.1479
55.1000 36.7027 0.1541
55.1200 36.7160 0.1435
55.1400 36.7293 0.1471
55.1600 36.7426 0.1525
55.1800 36.7560 0.1419
55.2000 36.7694 0.1463
55.2200 36.7827 0.1523
55.2400 36.7960 0.1396
55.2600 36.8094 0.1495
55.2800 36.8227 0.1520
55.3000 36.8360 0.1370
55.3200 36.8493 0.1457
55.3400 36.8627 0.1515
55.3600 36.8761 0.1361
55.3800 36.8894 0.1480
55.4000 36.9028 0.1477
55.4200 36.9161 0.1359
55.4400 36.9295 0.1521
55.4600 36.9428 0.1444
55.4800 36.9561 0.1403
55.5000 36.9694 0.1528
55.5200 36.9826 0.1415
55.5400 36.9960 0.1397
55.5600 37.0093 0.1513
55.5800 37.0226 0.1392
55.6000 37.0360 0.1387
55.6200 37.0494 0.1467
55.6400 37.0628 0.1354
55.6600 37.0761 0.1400
55.6800 37.0894 0.1517
55.7000 37.1028 0.1336
55.7200 37.1161 0.1377
55.7400 37.1295 0.1473
55.7600 37.1428 0.1332
55.7800 37.1561 0.1367
55.8000 37.1694 0.1449
55.8200 37.1827 0.1292
55.8400 37.1960 0.1396
55.8600 37.2093 0.1416
55.8800 37.2226 0.1321
55.9000 37.2360 0.1380
55.9200 37.2493 0.1342
55.9400 37.2627 0.1368
55.9600 37.2760 0.1385
55.9800 37.2894 0.1283
56.0000 37.3028 0.1340
56.0200 37.3161 0.1341
56.0400 37.3294 0.1315
56.0600 37.3428 0.1331
56.0800 37.3561 0.1264
56.1000 37.3695 0.1298
56.1200 37.3828 0.1340
56.1400 37.3960 0.1259
56.1600 37.4094 0.1293
56.1800 37.4227 0.1312
56.2000 37.4360 0.1192
56.2200 37.4493 0.1330
56.2400 37.4627 0.1296
56.2600 37.4760 0.1174
56.2800 37.4894 0.1291
56.3000 37.5027 0.1215
56.3200 37.5160 0.1181
56.3400 37.5294 0.1285
56.3600 37.5428 0.1219
56.3800 37.5561 0.1159
56.4000 37.5694 0.1274
56.4200 37.5827 0.1202
56.4400 37.5961 0.1173
56.4600 37.6094 0.1238
56.4800 37.6227 0.1167
56.5000 37.6361 0.1183
56.5200 37.6494 0.1187
56.5400 37.6627 0.1178
56.5600 37.6761 0.1158
56.5800 37.6893 0.1202
56.6000 37.7026 0.1119
56.6200 37.7160 0.1161
56.6400 37.7294 0.1168
56.6600 37.7427 0.1128
56.6800 37.7560 0.1157
56.7000 37.7694 0.1158
56.7200 37.7828 0.1101
56.7400 37.7961 0.1118
56.7600 37.8094 0.1117
56.7800 37.8227 0.1110
56.8000 37.8361 0.1150
56.8200 37.8494 0.1083
56.8400 37.8627 0.1117
56.8600 37.8760 0.1154
56.8800 37.8894 0.1098
56.9000 37.9027 0.1155
56.9200 37.9160 0.1150
56.9400 37.9294 0.1069
56.9600 37.9427 0.1156
56.9800 37.9560 0.1090
57.0000 37.9694 0.1098
57.0200 37.9827 0.1134
57.0400 37.9960 0.1095
57.0600 38.0094 0.1090
57.0800 38.0228 0.1128
57.1000 38.0361 0.1023
57.1200 38.0494 0.1059
57.1400 38.0627 0.1092
57.1600 38.0761 0.1028
57.1800 38.0895 0.1065
57.2000 38.1028 0.1099
57.2200 38.1161 0.1010
57.2400 38.1294 0.1056
57.2600 38.1427 0.1078
57.2800 38.1560 0.1001
57.3000 38.1694 0.1038
57.3200 38.1827 0.1083
57.3400 38.1960 0.1042
57.3600 38.2093 0.1012
57.3800 38.2227 0.1061
57.4000 38.2360 0.1022
57.4200 38.2494 0.1026
57.4400 38.2628 0.1028
57.4600 38.2761 0.0952
57.4800 38.2894 0.1020
57.5000 38.3027 0.1064
57.5200 38.3161 0.0981
57.5400 38.3294 0.0964
57.5600 38.3428 0.1082
57.5800 38.3561 0.0944
57.6000 38.3694 0.0995
57.6200 38.3827 0.1094
57.6400 38.3960 0.0888
57.6600 38.4093 0.0980
57.6800 38.4226 0.1050
57.7000 38.4360 0.0897
57.7200 38.4493 0.0963
57.7400 38.4626 0.1009
57.7600 38.4760 0.0878
57.7800 38.4894 0.0956
57.8000 38.5028 0.0976
57.8200 38.5161 0.0835
57.8400 38.5295 0.0984
57.8600 38.5428 0.1009
57.8800 38.5561 0.0803
57.9000 38.5695 0.0954
57.9200 38.5827 0.0952
57.9400 38.5960 0.0866
57.9600 38.6093 0.0966
57.9800 38.6227 0.0937
58.0000 38.6360 0.0861
58.0200 38.6493 0.0926
58.0400 38.6626 0.0908
58.0600 38.6760 0.0844
58.0800 38.6894 0.0889
58.1000 38.7028 0.0843
58.1200 38.7161 0.0818
58.1400 38.7294 0.0886
58.1600 38.7428 0.0866
58.1800 38.7561 0.0785
58.2000 38.7694 0.0845
58.2200 38.7827 0.0840
58.2400 38.7961 0.0781
58.2600 38.8094 0.0816
58.2800 38.8227 0.0812
58.3000 38.8360 0.0801
58.3200 38.8494 0.0788
58.3400 38.8627 0.0785
58.3600 38.8760 0.0755
58.3800 38.8894 0.0771
58.4000 38.9027 0.0767
58.4200 38.9160 0.0717
58.4400 38.9293 0.0753
58.4600 38.9427 0.0746
58.4800 38.9561 0.0698
58.5000 38.9694 0.0696
58.5200 38.9828 0.0770
58.5400 38.9961 0.0674
58.5600 39.0094 0.0633
58.5800 39.0227 0.0742
58.6000 39.0361 0.0615
58.6200 39.0494 0.0658
58.6400 39.0628 0.0730
58.6600 39.0761 0.0619
58.6800 39.0894 0.0653
58.7000 39.1027 0.0685
58.7200 39.1161 0.0622
58.7400 39.1293 0.0602
58.7600 39.1427 0.0678
58.7800 39.1560 0.0586
58.8000 39.1694 0.0599
58.8200 39.1827 0.0622
58.8400 39.1960 0.0603
58.8600 39.2094 0.0592
58.8800 39.2227 0.0579
58.9000 39.2361 0.0575
58.9200 39.2495 0.0566
58.9400 39.2628 0.0613
58.9600 39.2761 0.0565
58.9800 39.2894 0.0518
59.0000 39.3027 0.0615
59.0200 39.3160 0.0607
59.0400 39.3293 0.0525
59.0600 39.3427 0.0604
59.0800 39.3560 0.0565
59.1000 39.3694 0.0470
59.1200 39.3827 0.0640
59.1400 39.3960 0.0567
59.1600 39.4094 0.0487
59.1800 39.4227 0.0596
59.2000 39.4360 0.0515
59.2200 39.4493 0.0488
59.2400 39.4627 0.0575
59.2600 39.4761 0.0534
59.2800 39.4894 0.0464
59.3000 39.5027 0.0616
59.3200 39.5161 0.0488
59.3400 39.5295 0.0446
59.3600 39.5428 0.0624
59.3800 39.5561 0.0504
59.4000 39.5694 0.0435
59.4200 39.5827 0.0630
59.4400 39.5960 0.0503
59.4600 39.6094 0.0444
59.4800 39.6227 0.0626
59.5000 39.6360 0.0480
59.5200 39.6494 0.0451
59.5400 39.6627 0.0608
59.5600 39.6760 0.0467
59.5800 39.6894 0.0469
59.6000 39.7028 0.0594
59.6200 39.7161 0.0447
59.6400 39.7295 0.0421
59.6600 39.7428 0.0573
59.6800 39.7561 0.0424
59.7000 39.7694 0.0423
59.7200 39.7828 0.0574
59.7400 39.7961 0.0411
59.7600 39.8094 0.0413
59.7800 39.8227 0.0521
59.8000 39.8361 0.0351
59.8200 39.8494 0.0457
59.8400 39.8627 0.0471
59.8600 39.8760 0.0338
59.8800 39.8894 0.0424
59.9000 39.9027 0.0420
59.9200 39.9160 0.0329
59.9400 39.9294 0.0347
59.9600 39.9427 0.0459
59.9800 39.9561 0.0261
60.0000 39.9695 0.0301
60.0200 39.9828 0.0424
60.0400 39.9961 0.0209
60.0470 40.0006 0.0019
