Raw Data
Time Displacement Force
(s) (mm) (N)
0.0000 0.0000 0.4099
0.0200 0.0001 0.4309
0.0400 0.0022 0.5055
0.0600 0.0101 0.5006
0.0800 0.0220 0.4183
0.1000 0.0345 0.4289
0.1200 0.0472 0.4596
0.1400 0.0606 0.4390
0.1600 0.0747 0.4311
0.1800 0.0888 0.4305
0.2000 0.1028 0.4279
0.2200 0.1164 0.4218
0.2400 0.1297 0.4350
0.2600 0.1430 0.4340
0.2800 0.1564 0.4297
0.3000 0.1697 0.4372
0.3200 0.1831 0.4248
0.3400 0.1964 0.4336
0.3600 0.2098 0.4368
0.3800 0.2231 0.4316
0.4000 0.2365 0.4327
0.4200 0.2498 0.4375
0.4400 0.2631 0.4352
0.4600 0.2764 0.4347
0.4800 0.2897 0.4390
0.5000 0.3031 0.4321
0.5200 0.3164 0.4337
0.5400 0.3297 0.4398
0.5600 0.3431 0.4334
0.5800 0.3564 0.4404
0.6000 0.3698 0.4342
0.6200 0.3831 0.4286
0.6400 0.3964 0.4394
0.6600 0.4098 0.4248
0.6800 0.4232 0.4356
0.7000 0.4365 0.4350
0.7200 0.4498 0.4245
0.7400 0.4631 0.4354
0.7600 0.4765 0.4342
0.7800 0.4898 0.4241
0.8000 0.5031 0.4309
0.8200 0.5164 0.4299
0.8400 0.5298 0.4243
0.8600 0.5431 0.4244
0.8800 0.5564 0.4319
0.9000 0.5697 0.4265
0.9200 0.5830 0.4270
0.9400 0.5963 0.4246
0.9600 0.6097 0.4245
0.9800 0.6230 0.4246
1.0000 0.6364 0.4248
1.0200 0.6497 0.4278
1.0400 0.6631 0.4140
1.0600 0.6765 0.4237
1.0800 0.6898 0.4261
1.1000 0.7031 0.4154
1.1200 0.7164 0.4241
1.1400 0.7298 0.4213
1.1600 0.7431 0.4148
1.1800 0.7564 0.4233
1.2000 0.7697 0.4251
1.2200 0.7831 0.4145
1.2400 0.7964 0.4223
1.2600 0.8097 0.4247
1.2800 0.8230 0.4087
1.3000 0.8364 0.4272
1.3200 0.8497 0.4235
1.3400 0.8631 0.4091
1.3600 0.8764 0.4251
1.3800 0.8897 0.4177
1.4000 0.9031 0.4095
1.4200 0.9164 0.4241
1.4400 0.9298 0.4154
1.4600 0.9431 0.4053
1.4800 0.9565 0.4191
1.5000 0.9698 0.4152
1.5200 0.9831 0.4049
1.5400 0.9964 0.4259
1.5600 1.0097 0.4081
1.5800 1.0231 0.4064
1.6000 1.0364 0.4187
1.6200 1.0497 0.4058
1.6400 1.0630 0.4089
1.6600 1.0764 0.4129
1.6800 1.0897 0.4033
1.7000 1.1031 0.4059
1.7200 1.1164 0.4081
1.7400 1.1298 0.4014
1.7600 1.1432 0.4044
1.7800 1.1565 0.4013
1.8000 1.1698 0.3985
1.8200 1.1831 0.4048
1.8400 1.1965 0.4048
1.8600 1.2098 0.4034
1.8800 1.2231 0.4003
1.9000 1.2364 0.4054
1.9200 1.2497 0.4103
1.9400 1.2631 0.3976
1.9600 1.2764 0.4015
1.9800 1.2897 0.4081
2.0000 1.3030 0.3946
2.0200 1.3164 0.4000
2.0400 1.3297 0.4021
2.0600 1.3431 0.3898
2.0800 1.3564 0.4014
2.1000 1.3698 0.3988
2.1200 1.3832 0.3903
2.1400 1.3965 0.3964
2.1600 1.4098 0.3952
2.1800 1.4231 0.3895
2.2000 1.4365 0.3990
2.2200 1.4498 0.3931
2.2400 1.4631 0.3875
2.2600 1.4764 0.4052
2.2800 1.4897 0.3905
2.3000 1.5030 0.3817
2.3200 1.5164 0.4024
2.3400 1.5297 0.3853
2.3600 1.5430 0.3778
2.3800 1.5564 0.3944
2.4000 1.5698 0.3788
2.4200 1.5831 0.3778
2.4400 1.5964 0.3896
2.4600 1.6098 0.3794
2.4800 1.6231 0.3738
2.5000 1.6364 0.3924
2.5200 1.6497 0.3817
2.5400 1.6631 0.3735
2.5600 1.6764 0.3919
2.5800 1.6898 0.3801
2.6000 1.7031 0.3736
2.6200 1.7165 0.3835
2.6400 1.7298 0.3790
2.6600 1.7431 0.3772
2.6800 1.7565 0.3820
2.7000 1.7698 0.3806
2.7200 1.7831 0.3732
2.7400 1.7964 0.3873
2.7600 1.8097 0.3771
2.7800 1.8231 0.3726
2.8000 1.8364 0.3858
2.8200 1.8497 0.3752
2.8400 1.8631 0.3686
2.8600 1.8764 0.3802
2.8800 1.8898 0.3729
2.9000 1.9031 0.3738
2.9200 1.9165 0.3819
2.9400 1.9298 0.3738
2.9600 1.9431 0.3681
2.9800 1.9564 0.3777
3.0000 1.9698 0.3696
3.0200 1.9831 0.3672
3.0400 1.9965 0.3746
3.0600 2.0098 0.3667
3.0800 2.0230 0.3636
3.1000 2.0364 0.3715
3.1200 2.0497 0.3643
3.1400 2.0631 0.3647
3.1600 2.0764 0.3682
3.1800 2.0897 0.3618
3.2000 2.1031 0.3651
3.2200 2.1165 0.3720
3.2400 2.1298 0.3632
3.2600 2.1432 0.3616
3.2800 2.1565 0.3661
3.3000 2.1698 0.3587
3.3200 2.1831 0.3583
3.3400 2.1964 0.3677
3.3600 2.2097 0.3556
3.3800 2.2231 0.3500
3.4000 2.2364 0.3648
3.4200 2.2497 0.3524
3.4400 2.2630 0.3516
3.4600 2.2764 0.3570
3.4800 2.2898 0.3610
3.5000 2.3031 0.3514
3.5200 2.3164 0.3549
3.5400 2.3298 0.3572
3.5600 2.3431 0.3504
3.5800 2.3565 0.3506
3.6000 2.3698 0.3509
3.6200 2.3831 0.3438
3.6400 2.3965 0.3520
3.6600 2.4098 0.3531
3.6800 2.4231 0.3436
3.7000 2.4364 0.3490
3.7200 2.4498 0.3548
3.7400 2.4631 0.3378
3.7600 2.4764 0.3484
3.7800 2.4897 0.3467
3.8000 2.5030 0.3394
3.8200 2.5163 0.3496
3.8400 2.5297 0.3483
3.8600 2.5430 0.3366
3.8800 2.5564 0.3479
3.9000 2.5697 0.3486
3.9200 2.5831 0.3321
3.9400 2.5965 0.3503
3.9600 2.6098 0.3429
3.9800 2.6231 0.3314
4.0000 2.6364 0.3571
4.0200 2.6498 0.3401
4.0400 2.6631 0.3325
4.0600 2.6764 0.3513
4.0800 2.6897 0.3364
4.1000 2.7031 0.3340
4.1200 2.7164 0.3463
4.1400 2.7297 0.3352
4.1600 2.7430 0.3364
4.1800 2.7564 0.3448
4.2000 2.7697 0.3300
4.2200 2.7830 0.3410
4.2400 2.7964 0.3418
4.2600 2.8097 0.3298
4.2800 2.8231 0.3393
4.3000 2.8365 0.3349
4.3200 2.8498 0.3296
4.3400 2.8631 0.3382
4.3600 2.8765 0.3310
4.3800 2.8898 0.3333
4.4000 2.9031 0.3337
4.4200 2.9164 0.3311
4.4400 2.9297 0.3330
4.4600 2.9431 0.3389
4.4800 2.9564 0.3315
4.5000 2.9697 0.3315
4.5200 2.9831 0.3353
4.5400 2.9964 0.3253
4.5600 3.0097 0.3338
4.5800 3.0231 0.3297
4.6000 3.0364 0.3245
4.6200 3.0497 0.3333
4.6400 3.0631 0.3282
4.6600 3.0764 0.3276
4.6800 3.0897 0.3322
4.7000 3.1031 0.3254
4.7200 3.1164 0.3306
4.7400 3.1298 0.3317
4.7600 3.1432 0.3218
4.7800 3.1565 0.3276
4.8000 3.1698 0.3293
4.8200 3.1831 0.3170
4.8400 3.1965 0.3262
4.8600 3.2098 0.3245
4.8800 3.2231 0.3168
4.9000 3.2363 0.3217
4.9200 3.2497 0.3260
4.9400 3.2630 0.3193
4.9600 3.2764 0.3180
4.9800 3.2897 0.3210
5.0000 3.3031 0.3149
5.0200 3.3165 0.3157
5.0400 3.3299 0.3143
5.0600 3.3432 0.3164
5.0800 3.3565 0.3182
5.1000 3.3698 0.3138
5.1200 3.3832 0.3109
5.1400 3.3964 0.3152
5.1600 3.4097 0.3131
5.1800 3.4231 0.3092
5.2000 3.4364 0.3164
5.2200 3.4497 0.3083
5.2400 3.4630 0.3054
5.2600 3.4763 0.3164
5.2800 3.4897 0.3074
5.3000 3.5031 0.3074
5.3200 3.5164 0.3106
5.3400 3.5297 0.3045
5.3600 3.5431 0.3107
5.3800 3.5565 0.3079
5.4000 3.5698 0.3003
5.4200 3.5832 0.3034
5.4400 3.5965 0.3077
5.4600 3.6098 0.2952
5.4800 3.6231 0.2988
5.5000 3.6364 0.3080
5.5200 3.6497 0.2968
5.5400 3.6631 0.3016
5.5600 3.6764 0.3021
5.5800 3.6897 0.2937
5.6000 3.7030 0.3014
5.6200 3.7164 0.3040
5.6400 3.7297 0.2892
5.6600 3.7431 0.3045
5.6800 3.7564 0.3020
5.7000 3.7698 0.2910
5.7200 3.7831 0.3038
5.7400 3.7965 0.3004
5.7600 3.8098 0.2903
5.7800 3.8231 0.3058
5.8000 3.8365 0.2974
5.8200 3.8498 0.2958
5.8400 3.8632 0.3036
5.8600 3.8765 0.2982
5.8800 3.8898 0.2955
5.9000 3.9031 0.3035
5.9200 3.9165 0.2931
5.9400 3.9298 0.2935
5.9600 3.9431 0.3062
5.9800 3.9564 0.2940
6.0000 3.9697 0.2987
6.0200 3.9831 0.2992
6.0400 3.9964 0.2895
6.0600 4.0098 0.2994
6.0800 4.0231 0.2987
6.1000 4.0365 0.2916
6.1200 4.0498 0.2955
6.1400 4.0631 0.2918
6.1600 4.0765 0.2910
6.1800 4.0898 0.2927
6.2000 4.1031 0.2920
6.2200 4.1164 0.2909
6.2400 4.1297 0.2932
6.2600 4.1431 0.2926
6.2800 4.1564 0.2930
6.3000 4.1698 0.2886
6.3200 4.1831 0.2914
6.3400 4.1964 0.2903
6.3600 4.2097 0.2847
6.3800 4.2231 0.2893
6.4000 4.2364 0.2906
6.4200 4.2497 0.2814
6.4400 4.2631 0.2953
6.4600 4.2765 0.2847
6.4800 4.2898 0.2767
6.5000 4.3031 0.2910
6.5200 4.3164 0.2783
6.5400 4.3298 0.2763
6.5600 4.3432 0.2922
6.5800 4.3565 0.2711
6.6000 4.3698 0.2739
6.6200 4.3831 0.2871
6.6400 4.3964 0.2751
6.6600 4.4098 0.2729
6.6800 4.4231 0.2818
6.7000 4.4364 0.2710
6.7200 4.4497 0.2750
6.7400 4.4631 0.2768
6.7600 4.4764 0.2662
6.7800 4.4897 0.2764
6.8000 4.5031 0.2726
6.8200 4.5165 0.2639
6.8400 4.5298 0.2736
6.8600 4.5431 0.2719
6.8800 4.5564 0.2685
6.9000 4.5698 0.2716
6.9200 4.5831 0.2676
6.9400 4.5965 0.2706
6.9600 4.6098 0.2653
6.9800 4.6231 0.2696
7.0000 4.6364 0.2699
7.0200 4.6497 0.2594
7.0400 4.6630 0.2671
7.0600 4.6763 0.2706
7.0800 4.6897 0.2610
7.1000 4.7030 0.2658
7.1200 4.7163 0.2691
7.1400 4.7297 0.2546
7.1600 4.7431 0.2668
7.1800 4.7565 0.2683
7.2000 4.7699 0.2511
7.2200 4.7832 0.2681
7.2400 4.7965 0.2629
7.2600 4.8099 0.2537
7.2800 4.8232 0.2633
7.3000 4.8365 0.2601
7.3200 4.8497 0.2587
7.3400 4.8630 0.2629
7.3600 4.8764 0.2577
7.3800 4.8897 0.2521
7.4000 4.9030 0.2603
7.4200 4.9164 0.2599
7.4400 4.9297 0.2496
7.4600 4.9431 0.2570
7.4800 4.9565 0.2541
7.5000 4.9698 0.2482
7.5200 4.9831 0.2576
7.5400 4.9965 0.2535
7.5600 5.0098 0.2524
7.5800 5.0231 0.2517
7.6000 5.0365 0.2573
7.6200 5.0498 0.2514
7.6400 5.0631 0.2534
7.6600 5.0764 0.2560
7.6800 5.0897 0.2478
7.7000 5.1031 0.2549
7.7200 5.1164 0.2534
7.7400 5.1297 0.2468
7.7600 5.1431 0.2547
7.7800 5.1564 0.2513
7.8000 5.1697 0.2480
7.8200 5.1831 0.2574
7.8400 5.1964 0.2535
7.8600 5.2097 0.2456
7.8800 5.2231 0.2594
7.9000 5.2365 0.2508
7.9200 5.2498 0.2479
7.9400 5.2631 0.2557
7.9600 5.2764 0.2501
7.9800 5.2898 0.2470
8.0000 5.3032 0.2528
8.0200 5.3165 0.2493
8.0400 5.3298 0.2463
8.0600 5.3431 0.2556
8.0800 5.3564 0.2489
8.1000 5.3698 0.2424
8.1200 5.3831 0.2496
8.1400 5.3964 0.2520
8.1600 5.4097 0.2441
8.1800 5.4231 0.2501
8.2000 5.4364 0.2464
8.2200 5.4497 0.2429
8.2400 5.4631 0.2434
8.2600 5.4764 0.2523
8.2800 5.4898 0.2395
8.3000 5.5032 0.2402
8.3200 5.5165 0.2490
8.3400 5.5298 0.2353
8.3600 5.5431 0.2473
8.3800 5.5564 0.2456
8.4000 5.5697 0.2330
8.4200 5.5831 0.2488
8.4400 5.5964 0.2418
8.4600 5.6098 0.2347
8.4800 5.6231 0.2467
8.5000 5.6364 0.2396
8.5200 5.6497 0.2324
8.5400 5.6631 0.2444
8.5600 5.6764 0.2331
8.5800 5.6897 0.2354
8.6000 5.7031 0.2373
8.6200 5.7164 0.2302
8.6400 5.7298 0.2325
8.6600 5.7431 0.2389
8.6800 5.7564 0.2299
8.7000 5.7698 0.2339
8.7200 5.7832 0.2311
8.7400 5.7965 0.2314
8.7600 5.8098 0.2359
8.7800 5.8231 0.2337
8.8000 5.8364 0.2295
8.8200 5.8497 0.2299
8.8400 5.8631 0.2292
8.8600 5.8764 0.2286
8.8800 5.8897 0.2292
8.9000 5.9031 0.2265
8.9200 5.9164 0.2293
8.9400 5.9298 0.2272
8.9600 5.9431 0.2273
8.9800 5.9565 0.2252
9.0000 5.9698 0.2268
9.0200 5.9831 0.2260
9.0400 5.9964 0.2229
9.0600 6.0098 0.2250
9.0800 6.0231 0.2281
9.1000 6.0365 0.2246
9.1200 6.0498 0.2235
9.1400 6.0630 0.2262
9.1600 6.0764 0.2284
9.1800 6.0897 0.2205
9.2000 6.1030 0.2251
9.2200 6.1163 0.2283
9.2400 6.1297 0.2202
9.2600 6.1430 0.2244
9.2800 6.1564 0.2282
9.3000 6.1697 0.2184
9.3200 6.1831 0.2228
9.3400 6.1965 0.2277
9.3600 6.2098 0.2121
9.3800 6.2232 0.2210
9.4000 6.2365 0.2233
9.4200 6.2498 0.2147
9.4400 6.2631 0.2278
9.4600 6.2764 0.2186
9.4800 6.2897 0.2164
9.5000 6.3030 0.2274
9.5200 6.3164 0.2163
9.5400 6.3297 0.2139
9.5600 6.3430 0.2239
9.5800 6.3564 0.2124
9.6000 6.3697 0.2152
9.6200 6.3831 0.2175
9.6400 6.3965 0.2082
9.6600 6.4098 0.2151
9.6800 6.4231 0.2108
9.7000 6.4365 0.2110
9.7200 6.4498 0.2116
9.7400 6.4631 0.2105
9.7600 6.4764 0.2119
9.7800 6.4898 0.2162
9.8000 6.5031 0.2029
9.8200 6.5165 0.2092
9.8400 6.5298 0.2150
9.8600 6.5431 0.2000
9.8800 6.5564 0.2127
9.9000 6.5698 0.2092
9.9200 6.5831 0.1981
9.9400 6.5964 0.2104
9.9600 6.6097 0.2069
9.9800 6.6231 0.2010
10.0000 6.6364 0.2076
10.0200 6.6497 0.2043
10.0400 6.6630 0.1982
10.0600 6.6764 0.2122
10.0800 6.6898 0.1983
10.1000 6.7031 0.1967
10.1200 6.7164 0.2147
10.1400 6.7298 0.1964
10.1600 6.7431 0.1992
10.1800 6.7565 0.2054
10.2000 6.7698 0.1950
10.2200 6.7831 0.2024
10.2400 6.7964 0.2003
10.2600 6.8098 0.1937
10.2800 6.8231 0.1999
10.3000 6.8364 0.2019
10.3200 6.8497 0.1958
10.3400 6.8631 0.1995
10.3600 6.8764 0.1995
10.3800 6.8897 0.1940
10.4000 6.9031 0.2045
10.4200 6.9164 0.1931
10.4400 6.9298 0.1940
10.4600 6.9431 0.2033
10.4800 6.9565 0.1888
10.5000 6.9698 0.1944
10.5200 6.9831 0.2028
10.5400 6.9965 0.1909
10.5600 7.0098 0.1941
10.5800 7.0231 0.1965
10.6000 7.0364 0.1933
10.6200 7.0498 0.1925
10.6400 7.0631 0.1929
10.6600 7.0764 0.1962
10.6800 7.0897 0.1948
10.7000 7.1031 0.1888
10.7200 7.1164 0.1897
10.7400 7.1297 0.1943
10.7600 7.1431 0.1882
10.7800 7.1564 0.1891
10.8000 7.1698 0.1921
10.8200 7.1831 0.1843
10.8400 7.1965 0.1880
10.8600 7.2098 0.1918
10.8800 7.2231 0.1870
10.9000 7.2365 0.1893
10.9200 7.2498 0.1913
10.9400 7.2631 0.1867
10.9600 7.2764 0.1859
10.9800 7.2898 0.1873
11.0000 7.3031 0.1853
11.0200 7.3164 0.1859
11.0400 7.3297 0.1863
11.0600 7.3430 0.1855
11.0800 7.3564 0.1799
11.1000 7.3697 0.1846
11.1200 7.3831 0.1836
11.1400 7.3965 0.1829
11.1600 7.4098 0.1822
11.1800 7.4232 0.1792
11.2000 7.4365 0.1812
11.2200 7.4498 0.1857
11.2400 7.4631 0.1776
11.2600 7.4765 0.1752
11.2800 7.4898 0.1808
11.3000 7.5031 0.1808
11.3200 7.5164 0.1755
11.3400 7.5298 0.1817
11.3600 7.5431 0.1787
11.3800 7.5564 0.1740
11.4000 7.5697 0.1815
11.4200 7.5831 0.1769
11.4400 7.5964 0.1698
11.4600 7.6097 0.1805
11.4800 7.6231 0.1726
11.5000 7.6364 0.1676
11.5200 7.6498 0.1801
11.5400 7.6631 0.1715
11.5600 7.6765 0.1611
11.5800 7.6898 0.1776
11.6000 7.7031 0.1669
11.6200 7.7165 0.1614
11.6400 7.7298 0.1793
11.6600 7.7431 0.1673
11.6800 7.7564 0.1673
11.7000 7.7697 0.1756
11.7200 7.7831 0.1641
11.7400 7.7964 0.1665
11.7600 7.8097 0.1753
11.7800 7.8230 0.1646
11.8000 7.8364 0.1677
11.8200 7.8497 0.1720
11.8400 7.8631 0.1632
11.8600 7.8764 0.1653
11.8800 7.8898 0.1702
11.9000 7.9031 0.1644
11.9200 7.9164 0.1635
11.9400 7.9297 0.1686
11.9600 7.9431 0.1685
11.9800 7.9565 0.1593
12.0000 7.9698 0.1624
12.0200 7.9831 0.1646
12.0400 7.9965 0.1604
12.0600 8.0098 0.1641
12.0800 8.0231 0.1665
12.1000 8.0364 0.1582
12.1200 8.0497 0.1644
12.1400 8.0630 0.1742
12.1600 8.0763 0.1566
12.1800 8.0897 0.1644
12.2000 8.1030 0.1728
12.2200 8.1164 0.1552
12.2400 8.1298 0.1660
12.2600 8.1432 0.1665
12.2800 8.1565 0.1535
12.3000 8.1698 0.1655
12.3200 8.1832 0.1610
12.3400 8.1965 0.1564
12.3600 8.2098 0.1658
12.3800 8.2231 0.1668
12.4000 8.2364 0.1555
12.4200 8.2497 0.1639
12.4400 8.2631 0.1637
12.4600 8.2764 0.1523
12.4800 8.2897 0.1640
12.5000 8.3030 0.1640
12.5200 8.3164 0.1493
12.5400 8.3297 0.1588
12.5600 8.3431 0.1590
12.5800 8.3564 0.1512
12.6000 8.3698 0.1568
12.6200 8.3832 0.1595
12.6400 8.3965 0.1475
12.6600 8.4098 0.1541
12.6800 8.4231 0.1552
12.7000 8.4365 0.1489
12.7200 8.4498 0.1554
12.7400 8.4631 0.1554
12.7600 8.4764 0.1471
12.7800 8.4897 0.1535
12.8000 8.5031 0.1505
12.8200 8.5164 0.1433
12.8400 8.5297 0.1530
12.8600 8.5430 0.1541
12.8800 8.5564 0.1421
12.9000 8.5698 0.1502
12.9200 8.5831 0.1484
12.9400 8.5964 0.1369
12.9600 8.6098 0.1565
12.9800 8.6231 0.1463
13.0000 8.6365 0.1347
13.0200 8.6498 0.1551
13.0400 8.6631 0.1458
13.0600 8.6765 0.1341
13.0800 8.6898 0.1531
13.1000 8.7031 0.1399
13.1200 8.7165 0.1363
13.1400 8.7298 0.1499
13.1600 8.7431 0.1438
13.1800 8.7564 0.1400
13.2000 8.7697 0.1500
13.2200 8.7830 0.1404
13.2400 8.7964 0.1387
13.2600 8.8098 0.1441
13.2800 8.8231 0.1413
13.3000 8.8364 0.1395
13.3200 8.8498 0.1406
13.3400 8.8632 0.1420
13.3600 8.8765 0.1433
13.3800 8.8898 0.1381
13.4000 8.9031 0.1455
13.4200 8.9165 0.1396
13.4400 8.9298 0.1369
13.4600 8.9431 0.1449
13.4800 8.9564 0.1389
13.5000 8.9697 0.1417
13.5200 8.9831 0.1450
13.5400 8.9964 0.1319
13.5600 9.0097 0.1408
13.5800 9.0231 0.1461
13.6000 9.0364 0.1349
13.6200 9.0497 0.1375
13.6400 9.0630 0.1449
13.6600 9.0764 0.1325
13.6800 9.0898 0.1392
13.7000 9.1031 0.1470
13.7200 9.1165 0.1318
13.7400 9.1298 0.1359
13.7600 9.1431 0.1377
13.7800 9.1565 0.1298
13.8000 9.1698 0.1366
13.8200 9.1831 0.1367
13.8400 9.1964 0.1312
13.8600 9.2097 0.1362
13.8800 9.2231 0.1342
13.9000 9.2364 0.1310
13.9200 9.2497 0.1310
13.9400 9.2630 0.1365
13.9600 9.2764 0.1318
13.9800 9.2898 0.1260
14.0000 9.3031 0.1383
14.0200 9.3164 0.1268
14.0400 9.3298 0.1313
14.0600 9.3431 0.1339
14.0800 9.3565 0.1214
14.1000 9.3698 0.1280
14.1200 9.3831 0.1373
14.1400 9.3965 0.1199
14.1600 9.4098 0.1270
14.1800 9.4231 0.1361
14.2000 9.4364 0.1194
14.2200 9.4498 0.1225
14.2400 9.4631 0.1263
14.2600 9.4764 0.1203
14.2800 9.4897 0.1289
14.3000 9.5030 0.1279
14.3200 9.5163 0.1141
14.3400 9.5297 0.1269
14.3600 9.5430 0.1232
14.3800 9.5564 0.1130
14.4000 9.5698 0.1259
14.4200 9.5832 0.1207
14.4400 9.5965 0.1136
14.4600 9.6098 0.1251
14.4800 9.6232 0.1158
14.5000 9.6365 0.1213
14.5200 9.6498 0.1200
14.5400 9.6631 0.1185
14.5600 9.6763 0.1261
14.5800 9.6897 0.1166
14.6000 9.7030 0.1138
14.6200 9.7164 0.1185
14.6400 9.7297 0.1221
14.6600 9.7431 0.1202
14.6800 9.7564 0.1198
14.7000 9.7698 0.1133
14.7200 9.7831 0.1186
14.7400 9.7965 0.1224
14.7600 9.8098 0.1141
14.7800 9.8232 0.1161
14.8000 9.8365 0.1216
14.8200 9.8498 0.1161
14.8400 9.8631 0.1140
14.8600 9.8765 0.1165
14.8800 9.8898 0.1129
14.9000 9.9031 0.1114
14.9200 9.9164 0.1228
14.9400 9.9297 0.1149
14.9600 9.9431 0.1067
14.9800 9.9564 0.1174
15.0000 9.9697 0.1134
15.0200 9.9830 0.1040
15.0400 9.9964 0.1180
15.0600 10.0097 0.1091
15.0800 10.0231 0.1117
15.1000 10.0364 0.1145
15.1200 10.0498 0.1032
15.1400 10.0631 0.1134
15.1600 10.0765 0.1119
15.1800 10.0898 0.1053
15.2000 10.1031 0.1064
15.2200 10.1165 0.1105
15.2400 10.1298 0.1059
15.2600 10.1431 0.1042
15.2800 10.1564 0.1087
15.3000 10.1698 0.1092
15.3200 10.1831 0.1013
15.3400 10.1964 0.1125
15.3600 10.2097 0.1074
15.3800 10.2230 0.0998
15.4000 10.2364 0.1070
15.4200 10.2497 0.1094
15.4400 10.2631 0.0993
15.4600 10.2764 0.1076
15.4800 10.2898 0.1012
15.5000 10.3032 0.0969
15.5200 10.3165 0.1080
15.5400 10.3298 0.1002
15.5600 10.3431 0.1000
15.5800 10.3565 0.1109
15.6000 10.3698 0.1002
15.6200 10.3831 0.0927
15.6400 10.3964 0.1123
15.6600 10.4097 0.1008
15.6800 10.4231 0.0920
15.7000 10.4364 0.1052
15.7200 10.4497 0.0975
15.7400 10.4630 0.0964
15.7600 10.4764 0.1043
15.7800 10.4897 0.0938
15.8000 10.5031 0.0942
15.8200 10.5164 0.1007
15.8400 10.5297 0.0950
15.8600 10.5431 0.0920
15.8800 10.5564 0.1003
15.9000 10.5698 0.0935
15.9200 10.5831 0.0908
15.9400 10.5965 0.0995
15.9600 10.6098 0.0971
15.9800 10.6231 0.0841
16.0000 10.6364 0.0982
16.0200 10.6497 0.0957
16.0400 10.6631 0.0842
16.0600 10.6764 0.0979
16.0800 10.6897 0.0910
16.1000 10.7030 0.0879
16.1200 10.7164 0.0961
16.1400 10.7297 0.0834
16.1600 10.7430 0.0912
16.1800 10.7564 0.0904
16.2000 10.7698 0.0877
16.2200 10.7832 0.0971
16.2400 10.7965 0.0876
16.2600 10.8098 0.0828
16.2800 10.8231 0.0943
16.3000 10.8365 0.0866
16.3200 10.8498 0.0802
16.3400 10.8631 0.0910
16.3600 10.8764 0.0874
16.3800 10.8898 0.0837
16.4000 10.9031 0.0880
16.4200 10.9164 0.0863
16.4400 10.9297 0.0881
16.4600 10.9430 0.0797
16.4800 10.9564 0.0874
16.5000 10.9697 0.0840
16.5200 10.9831 0.0775
16.5400 10.9964 0.0887
16.5600 11.0097 0.0811
16.5800 11.0231 0.0782
16.6000 11.0365 0.0809
16.6200 11.0498 0.0843
16.6400 11.0631 0.0764
16.6600 11.0765 0.0818
16.6800 11.0898 0.0778
16.7000 11.1031 0.0737
16.7200 11.1164 0.0816
16.7400 11.1297 0.0771
16.7600 11.1430 0.0719
16.7800 11.1564 0.0825
16.8000 11.1697 0.0834
16.8200 11.1831 0.0672
16.8400 11.1964 0.0789
16.8600 11.2098 0.0838
16.8800 11.2231 0.0655
16.9000 11.2364 0.0800
16.9200 11.2498 0.0808
16.9400 11.2631 0.0626
16.9600 11.2765 0.0810
16.9800 11.2898 0.0771
17.0000 11.3031 0.0663
17.0200 11.3164 0.0810
17.0400 11.3298 0.0675
17.0600 11.3431 0.0639
17.0800 11.3565 0.0819
17.1000 11.3698 0.0740
17.1200 11.3831 0.0611
17.1400 11.3965 0.0750
17.1600 11.4098 0.0708
17.1800 11.4231 0.0619
17.2000 11.4364 0.0784
17.2200 11.4497 0.0638
17.2400 11.4631 0.0632
17.2600 11.4764 0.0686
17.2800 11.4897 0.0668
17.3000 11.5031 0.0622
17.3200 11.5164 0.0641
17.3400 11.5298 0.0747
17.3600 11.5431 0.0619
17.3800 11.5564 0.0633
17.4000 11.5698 0.0727
17.4200 11.5831 0.0584
17.4400 11.5964 0.0603
17.4600 11.6098 0.0684
17.4800 11.6231 0.0631
17.5000 11.6365 0.0612
17.5200 11.6497 0.0753
17.5400 11.6630 0.0587
17.5600 11.6764 0.0609
17.5800 11.6897 0.0765
17.6000 11.7031 0.0570
17.6200 11.7164 0.0642
17.6400 11.7297 0.0736
17.6600 11.7431 0.0582
17.6800 11.7565 0.0634
17.7000 11.7698 0.0687
17.7200 11.7831 0.0569
17.7400 11.7965 0.0643
17.7600 11.8098 0.0687
17.7800 11.8231 0.0560
17.8000 11.8364 0.0654
17.8200 11.8498 0.0689
17.8400 11.8631 0.0515
17.8600 11.8764 0.0684
17.8800 11.8897 0.0660
17.9000 11.9030 0.0462
17.9200 11.9164 0.0663
17.9400 11.9298 0.0637
17.9600 11.9431 0.0479
17.9800 11.9564 0.0647
18.0000 11.9698 0.0595
18.0200 11.9831 0.0496
18.0400 11.9965 0.0652
18.0600 12.0098 0.0563
18.0800 12.0231 0.0516
18.1000 12.0365 0.0618
18.1200 12.0498 0.0501
18.1400 12.0632 0.0548
18.1600 12.0765 0.0553
18.1800 12.0898 0.0536
18.2000 12.1031 0.0549
18.2200 12.1164 0.0519
18.2400 12.1297 0.0522
18.2600 12.1430 0.0552
18.2800 12.1564 0.0547
18.3000 12.1697 0.0543
18.3200 12.1831 0.0472
18.3400 12.1964 0.0505
18.3600 12.2098 0.0572
18.3800 12.2231 0.0477
18.4000 12.2365 0.0474
18.4200 12.2498 0.0544
18.4400 12.2631 0.0518
18.4600 12.2764 0.0510
18.4800 12.2898 0.0523
18.5000 12.3031 0.0486
18.5200 12.3164 0.0474
18.5400 12.3297 0.0497
18.5600 12.3431 0.0481
18.5800 12.3564 0.0508
18.6000 12.3698 0.0495
18.6200 12.3831 0.0459
18.6400 12.3964 0.0460
18.6600 12.4097 0.0479
18.6800 12.4231 0.0477
18.7000 12.4364 0.0435
18.7200 12.4497 0.0516
18.7400 12.4631 0.0398
18.7600 12.4765 0.0429
18.7800 12.4898 0.0508
18.8000 12.5031 0.0402
18.8200 12.5164 0.0447
18.8400 12.5298 0.0450
18.8600 12.5431 0.0401
18.8800 12.5564 0.0410
18.9000 12.5697 0.0455
18.9200 12.5831 0.0440
18.9400 12.5964 0.0356
18.9600 12.6097 0.0484
18.9800 12.6230 0.0424
19.0000 12.6364 0.0397
19.0200 12.6497 0.0433
19.0400 12.6631 0.0366
19.0600 12.6764 0.0381
19.0800 12.6897 0.0425
19.1000 12.7030 0.0366
19.1200 12.7164 0.0387
19.1400 12.7298 0.0374
19.1600 12.7431 0.0381
19.1800 12.7564 0.0369
19.2000 12.7698 0.0403
19.2200 12.7831 0.0412
19.2400 12.7964 0.0342
19.2600 12.8098 0.0385
19.2800 12.8231 0.0375
19.3000 12.8365 0.0327
19.3200 12.8498 0.0317
19.3400 12.8631 0.0396
19.3600 12.8764 0.0326
19.3800 12.8897 0.0335
19.4000 12.9030 0.0394
19.4200 12.9164 0.0288
19.4400 12.9297 0.0336
19.4600 12.9431 0.0379
19.4800 12.9565 0.0278
19.5000 12.9698 0.0341
19.5200 12.9832 0.0363
19.5400 12.9965 0.0279
19.5600 13.0098 0.0315
19.5800 13.0232 0.0359
19.6000 13.0365 0.0292
19.6200 13.0498 0.0356
19.6400 13.0631 0.0347
19.6600 13.0764 0.0278
19.6800 13.0897 0.0332
19.7000 13.1030 0.0322
19.7200 13.1163 0.0283
19.7400 13.1297 0.0336
19.7600 13.1430 0.0311
19.7800 13.1564 0.0268
19.8000 13.1697 0.0331
19.8200 13.1831 0.0295
19.8400 13.1965 0.0211
19.8600 13.2098 0.0337
19.8800 13.2231 0.0291
19.9000 13.2365 0.0240
19.9200 13.2498 0.0265
19.9400 13.2632 0.0242
19.9600 13.2764 0.0254
19.9800 13.2897 0.0258
20.0000 13.3031 0.0281
20.0200 13.3164 0.0269
20.0400 13.3298 0.0220
20.0600 13.3431 0.0249
20.0800 13.3564 0.0248
20.1000 13.3697 0.0180
20.1200 13.3831 0.0272
20.1400 13.3964 0.0202
20.1600 13.4098 0.0208
20.1800 13.4231 0.0258
20.2000 13.4365 0.0198
20.2200 13.4498 0.0172
20.2400 13.4631 0.0231
20.2600 13.4764 0.0210
20.2800 13.4898 0.0149
20.3000 13.5032 0.0242
20.3200 13.5165 0.0190
20.3400 13.5298 0.0128
20.3600 13.5431 0.0248
20.3800 13.5564 0.0175
20.4000 13.5697 0.0155
20.4200 13.5830 0.0224
20.4400 13.5964 0.0167
20.4600 13.6097 0.0116
20.4800 13.6231 0.0187
20.5000 13.6364 0.0116
20.5200 13.6497 0.0146
20.5400 13.6631 0.0224
20.5600 13.6765 0.0129
20.5800 13.6898 0.0086
20.6000 13.7031 0.0178
20.6200 13.7165 0.0157
20.6400 13.7298 0.0076
20.6600 13.7431 0.0155
20.6800 13.7564 0.0116
20.7000 13.7697 0.0094
20.7200 13.7831 0.0149
20.7400 13.7964 0.0133
20.7600 13.8098 0.0106
20.7800 13.8231 0.0149
20.8000 13.8364 0.0113
20.8200 13.8497 0.0081
20.8400 13.8631 0.0088
20.8600 13.8764 0.0131
20.8800 13.8897 0.0081
20.9000 13.9031 0.0119
20.9200 13.9165 0.0100
20.9400 13.9298 0.0019
20.9600 13.9431 0.0138
20.9800 13.9565 0.0113
21.0000 13.9698 -0.0024
21.0200 13.9832 0.0110
21.0400 13.9965 0.0145
21.0600 14.0098 0.0014
21.0800 14.0231 0.0099
21.1000 14.0364 0.0129
21.1200 14.0498 -0.0045
21.1400 14.0631 0.0092
21.1600 14.0764 0.0092
21.1800 14.0897 0.0020
21.2000 14.1030 0.0043
21.2200 14.1164 0.0108
21.2400 14.1297 -0.0030
21.2600 14.1431 0.0031
21.2800 14.1565 0.0072
21.3000 14.1698 -0.0054
21.3200 14.1831 0.0080
21.3400 14.1964 0.0056
21.3600 14.2098 -0.0061
21.3800 14.2232 0.0040
21.4000 14.2365 0.0027
21.4200 14.2498 -0.0079
21.4400 14.2631 0.0052
21.4600 14.2764 0.0019
21.4800 14.2898 -0.0129
21.5000 14.3031 0.0015
21.5200 14.3163 0.0034
21.5400 14.3297 -0.0130
21.5600 14.3430 0.0037
21.5800 14.3563 -0.0051
21.6000 14.3697 -0.0124
21.6200 14.3831 0.0076
21.6400 14.3965 -0.0032
21.6600 14.4098 -0.0140
21.6800 14.4232 0.0033
21.7000 14.4365 -0.0068
21.7200 14.4498 -0.0129
21.7400 14.4632 -0.0018
21.7600 14.4765 -0.0034
21.7800 14.4897 -0.0146
21.8000 14.5030 -0.0019
21.8200 14.5164 -0.0074
21.8400 14.5297 -0.0134
21.8600 14.5430 -0.0010
21.8800 14.5564 -0.0112
21.9000 14.5697 -0.0137
21.9200 14.5831 -0.0025
21.9400 14.5964 -0.0105
21.9600 14.6098 -0.0120
21.9800 14.6231 -0.0054
22.0000 14.6365 -0.0086
22.0200 14.6498 -0.0135
22.0400 14.6631 -0.0120
22.0600 14.6764 -0.0043
22.0800 14.6898 -0.0136
22.1000 14.7031 -0.0096
22.1200 14.7164 -0.0049
22.1400 14.7297 -0.0139
22.1600 14.7431 -0.0058
22.1800 14.7564 -0.0115
22.2000 14.7698 -0.0171
22.2200 14.7831 -0.0069
22.2400 14.7964 -0.0121
22.2600 14.8097 -0.0194
22.2800 14.8231 -0.0081
22.3000 14.8364 -0.0148
22.3200 14.8498 -0.0184
22.3400 14.8631 -0.0095
22.3600 14.8765 -0.0205
22.3800 14.8898 -0.0192
22.4000 14.9031 -0.0147
22.4200 14.9164 -0.0180
22.4400 14.9298 -0.0148
22.4600 14.9432 -0.0145
22.4800 14.9565 -0.0166
22.5000 14.9698 -0.0182
22.5200 14.9831 -0.0172
22.5400 14.9964 -0.0152
22.5600 15.0098 -0.0206
22.5800 15.0231 -0.0166
22.6000 15.0364 -0.0169
22.6200 15.0497 -0.0181
22.6400 15.0631 -0.0191
22.6600 15.0764 -0.0195
22.6800 15.0897 -0.0232
22.7000 15.1031 -0.0219
22.7200 15.1164 -0.0246
22.7400 15.1298 -0.0249
22.7600 15.1431 -0.0186
22.7800 15.1565 -0.0279
22.8000 15.1698 -0.0208
22.8200 15.1831 -0.0237
22.8400 15.1964 -0.0297
22.8600 15.2097 -0.0222
22.8800 15.2231 -0.0208
22.9000 15.2364 -0.0268
22.9200 15.2498 -0.0243
22.9400 15.2631 -0.0241
22.9600 15.2764 -0.0299
22.9800 15.2897 -0.0261
23.0000 15.3030 -0.0258
23.0200 15.3164 -0.0325
23.0400 15.3297 -0.0284
23.0600 15.3431 -0.0310
23.0800 15.3564 -0.0299
23.1000 15.3698 -0.0306
23.1200 15.3831 -0.0316
23.1400 15.3964 -0.0309
23.1600 15.4098 -0.0255
23.1800 15.4232 -0.0326
23.2000 15.4365 -0.0322
23.2200 15.4498 -0.0284
23.2400 15.4631 -0.0320
23.2600 15.4764 -0.0332
23.2800 15.4897 -0.0301
23.3000 15.5031 -0.0340
23.3200 15.5164 -0.0336
23.3400 15.5297 -0.0279
23.3600 15.5430 -0.0373
23.3800 15.5564 -0.0368
23.4000 15.5697 -0.0246
23.4200 15.5831 -0.0432
23.4400 15.5965 -0.0331
23.4600 15.6098 -0.0252
23.4800 15.6232 -0.0443
23.5000 15.6365 -0.0330
23.5200 15.6498 -0.0332
23.5400 15.6632 -0.0431
23.5600 15.6765 -0.0318
23.5800 15.6898 -0.0377
23.6000 15.7031 -0.0443
23.6200 15.7164 -0.0313
23.6400 15.7298 -0.0442
23.6600 15.7431 -0.0425
23.6800 15.7564 -0.0304
23.7000 15.7697 -0.0401
23.7200 15.7830 -0.0492
23.7400 15.7964 -0.0339
23.7600 15.8097 -0.0381
23.7800 15.8231 -0.0447
23.8000 15.8364 -0.0422
23.8200 15.8498 -0.0409
23.8400 15.8632 -0.0488
23.8600 15.8765 -0.0403
23.8800 15.8898 -0.0410
23.9000 15.9031 -0.0496
23.9200 15.9164 -0.0419
23.9400 15.9297 -0.0427
23.9600 15.9430 -0.0480
23.9800 15.9564 -0.0453
24.0000 15.9697 -0.0425
24.0200 15.9831 -0.0514
24.0400 15.9964 -0.0483
24.0600 16.0097 -0.0424
24.0800 16.0231 -0.0540
24.1000 16.0364 -0.0453
24.1200 16.0498 -0.0405
24.1400 16.0631 -0.0563
24.1600 16.0764 -0.0434
24.1800 16.0898 -0.0434
24.2000 16.1031 -0.0549
24.2200 16.1164 -0.0434
24.2400 16.1297 -0.0472
24.2600 16.1431 -0.0539
24.2800 16.1565 -0.0444
24.3000 16.1698 -0.0493
24.3200 16.1831 -0.0525
24.3400 16.1964 -0.0468
24.3600 16.2098 -0.0486
24.3800 16.2231 -0.0566
24.4000 16.2364 -0.0478
24.4200 16.2497 -0.0523
24.4400 16.2631 -0.0549
24.4600 16.2764 -0.0511
24.4800 16.2897 -0.0498
24.5000 16.3031 -0.0559
24.5200 16.3164 -0.0539
24.5400 16.3298 -0.0551
24.5600 16.3431 -0.0564
24.5800 16.3564 -0.0550
24.6000 16.3698 -0.0553
24.6200 16.3831 -0.0593
24.6400 16.3965 -0.0645
24.6600 16.4098 -0.0537
24.6800 16.4231 -0.0603
24.7000 16.4365 -0.0643
24.7200 16.4498 -0.0487
24.7400 16.4631 -0.0642
24.7600 16.4764 -0.0572
24.7800 16.4897 -0.0524
24.8000 16.5030 -0.0666
24.8200 16.5164 -0.0581
24.8400 16.5297 -0.0507
24.8600 16.5431 -0.0651
24.8800 16.5564 -0.0557
24.9000 16.5698 -0.0547
24.9200 16.5832 -0.0740
24.9400 16.5965 -0.0542
24.9600 16.6098 -0.0546
24.9800 16.6232 -0.0710
25.0000 16.6365 -0.0534
25.0200 16.6498 -0.0580
25.0400 16.6631 -0.0701
25.0600 16.6764 -0.0536
25.0800 16.6897 -0.0610
25.1000 16.7031 -0.0688
25.1200 16.7164 -0.0605
25.1400 16.7297 -0.0606
25.1600 16.7430 -0.0763
25.1800 16.7564 -0.0622
25.2000 16.7697 -0.0654
25.2200 16.7831 -0.0764
25.2400 16.7964 -0.0622
25.2600 16.8098 -0.0679
25.2800 16.8231 -0.0735
25.3000 16.8365 -0.0684
25.3200 16.8498 -0.0672
25.3400 16.8631 -0.0710
25.3600 16.8765 -0.0767
25.3800 16.8898 -0.0682
25.4000 16.9031 -0.0700
25.4200 16.9164 -0.0771
25.4400 16.9298 -0.0718
25.4600 16.9431 -0.0708
25.4800 16.9564 -0.0756
25.5000 16.9697 -0.0732
25.5200 16.9830 -0.0685
25.5400 16.9963 -0.0855
25.5600 17.0097 -0.0699
25.5800 17.0230 -0.0721
25.6000 17.0364 -0.0870
25.6200 17.0498 -0.0670
25.6400 17.0632 -0.0773
25.6600 17.0765 -0.0844
25.6800 17.0898 -0.0717
25.7000 17.1031 -0.0785
25.7200 17.1165 -0.0814
25.7400 17.1298 -0.0741
25.7600 17.1431 -0.0772
25.7800 17.1564 -0.0859
25.8000 17.1698 -0.0735
25.8200 17.1831 -0.0839
25.8400 17.1964 -0.0828
25.8600 17.2098 -0.0767
25.8800 17.2231 -0.0863
25.9000 17.2364 -0.0845
25.9200 17.2497 -0.0793
25.9400 17.2631 -0.0847
25.9600 17.2764 -0.0855
25.9800 17.2898 -0.0793
26.0000 17.3032 -0.0862
26.0200 17.3165 -0.0936
26.0400 17.3298 -0.0773
26.0600 17.3431 -0.0932
26.0800 17.3565 -0.0903
26.1000 17.3698 -0.0811
26.1200 17.3831 -0.0954
26.1400 17.3964 -0.0850
26.1600 17.4097 -0.0846
26.1800 17.4231 -0.0887
26.2000 17.4364 -0.0921
26.2200 17.4497 -0.0832
26.2400 17.4631 -0.0901
26.2600 17.4764 -0.1012
26.2800 17.4898 -0.0859
26.3000 17.5031 -0.0944
26.3200 17.5164 -0.1002
26.3400 17.5298 -0.0858
26.3600 17.5431 -0.0925
26.3800 17.5564 -0.0952
26.4000 17.5697 -0.0888
26.4200 17.5831 -0.0928
26.4400 17.5965 -0.1026
26.4600 17.6098 -0.0853
26.4800 17.6231 -0.0917
26.5000 17.6365 -0.1028
26.5200 17.6498 -0.0836
26.5400 17.6631 -0.1015
26.5600 17.6764 -0.1090
26.5800 17.6897 -0.0801
26.6000 17.7030 -0.1030
26.6200 17.7163 -0.1029
26.6400 17.7297 -0.0883
26.6600 17.7430 -0.1043
26.6800 17.7564 -0.1049
26.7000 17.7698 -0.0886
26.7200 17.7832 -0.1080
26.7400 17.7965 -0.1012
26.7600 17.8098 -0.0880
26.7800 17.8232 -0.1106
26.8000 17.8365 -0.0974
26.8200 17.8498 -0.0945
26.8400 17.8631 -0.1059
26.8600 17.8764 -0.0957
26.8800 17.8897 -0.0976
26.9000 17.9031 -0.1050
26.9200 17.9164 -0.0986
26.9400 17.9297 -0.1003
26.9600 17.9430 -0.1098
26.9800 17.9564 -0.0973
27.0000 17.9697 -0.1022
27.0200 17.9830 -0.1100
27.0400 17.9964 -0.1003
27.0600 18.0098 -0.1028
27.0800 18.0232 -0.1077
27.1000 18.0365 -0.1038
27.1200 18.0498 -0.1081
27.1400 18.0631 -0.1082
27.1600 18.0765 -0.1046
27.1800 18.0898 -0.1103
27.2000 18.1031 -0.1063
27.2200 18.1164 -0.1116
27.2400 18.1297 -0.1128
27.2600 18.1431 -0.1121
27.2800 18.1564 -0.1110
27.3000 18.1697 -0.1186
27.3200 18.1830 -0.1123
27.3400 18.1964 -0.1175
27.3600 18.2098 -0.1189
27.3800 18.2231 -0.1132
27.4000 18.2364 -0.1191
27.4200 18.2498 -0.1207
27.4400 18.2631 -0.1181
27.4600 18.2765 -0.1203
27.4800 18.2898 -0.1194
27.5000 18.3031 -0.1208
27.5200 18.3165 -0.1240
27.5400 18.3298 -0.1250
27.5600 18.3431 -0.1250
27.5800 18.3565 -0.1209
27.6000 18.3698 -0.1233
27.6200 18.3831 -0.1280
27.6400 18.3964 -0.1273
27.6600 18.4097 -0.1193
27.6800 18.4230 -0.1292
27.7000 18.4364 -0.1221
27.7200 18.4498 -0.1292
27.7400 18.4631 -0.1296
27.7600 18.4764 -0.1230
27.7800 18.4898 -0.1299
27.8000 18.5032 -0.1315
27.8200 18.5165 -0.1273
27.8400 18.5298 -0.1312
27.8600 18.5431 -0.1325
27.8800 18.5565 -0.1245
27.9000 18.5698 -0.1335
27.9200 18.5831 -0.1360
27.9400 18.5964 -0.1232
27.9600 18.6097 -0.1317
27.9800 18.6231 -0.1315
28.0000 18.6364 -0.1291
28.0200 18.6497 -0.1317
28.0400 18.6631 -0.1275
28.0600 18.6764 -0.1303
28.0800 18.6897 -0.1326
28.1000 18.7031 -0.1247
28.1200 18.7164 -0.1281
28.1400 18.7298 -0.1314
28.1600 18.7431 -0.1288
28.1800 18.7565 -0.1315
28.2000 18.7698 -0.1339
28.2200 18.7831 -0.1303
28.2400 18.7965 -0.1347
28.2600 18.8098 -0.1335
28.2800 18.8231 -0.1237
28.3000 18.8365 -0.1332
28.3200 18.8498 -0.1311
28.3400 18.8631 -0.1263
28.3600 18.8764 -0.1397
28.3800 18.8897 -0.1345
28.4000 18.9030 -0.1279
28.4200 18.9164 -0.1410
28.4400 18.9297 -0.1330
28.4600 18.9431 -0.1327
28.4800 18.9564 -0.1378
28.5000 18.9698 -0.1391
28.5200 18.9831 -0.1329
28.5400 18.9964 -0.1429
28.5600 19.0098 -0.1417
28.5800 19.0231 -0.1366
28.6000 19.0365 -0.1443
28.6200 19.0498 -0.1418
28.6400 19.0631 -0.1390
28.6600 19.0764 -0.1474
28.6800 19.0898 -0.1382
28.7000 19.1031 -0.1471
28.7200 19.1164 -0.1484
28.7400 19.1297 -0.1434
28.7600 19.1430 -0.1440
28.7800 19.1563 -0.1484
28.8000 19.1697 -0.1477
28.8200 19.1830 -0.1471
28.8400 19.1964 -0.1499
28.8600 19.2098 -0.1473
28.8800 19.2232 -0.1495
28.9000 19.2365 -0.1489
28.9200 19.2498 -0.1527
28.9400 19.2632 -0.1487
28.9600 19.2765 -0.1508
28.9800 19.2898 -0.1578
29.0000 19.3031 -0.1495
29.0200 19.3164 -0.1531
29.0400 19.3297 -0.1567
29.0600 19.3431 -0.1522
29.0800 19.3564 -0.1571
29.1000 19.3697 -0.1592
29.1200 19.3831 -0.1552
29.1400 19.3964 -0.1553
29.1600 19.4098 -0.1654
29.1800 19.4231 -0.1577
29.2000 19.4364 -0.1580
29.2200 19.4498 -0.1631
29.2400 19.4632 -0.1611
29.2600 19.4765 -0.1612
29.2800 19.4898 -0.1654
29.3000 19.5031 -0.1614
29.3200 19.5164 -0.1611
29.3400 19.5298 -0.1661
29.3600 19.5431 -0.1652
29.3800 19.5564 -0.1597
29.4000 19.5697 -0.1769
29.4200 19.5831 -0.1672
29.4400 19.5964 -0.1621
29.4600 19.6097 -0.1795
29.4800 19.6230 -0.1658
29.5000 19.6364 -0.1693
29.5200 19.6498 -0.1807
29.5400 19.6631 -0.1673
29.5600 19.6764 -0.1723
29.5800 19.6898 -0.1821
29.6000 19.7031 -0.1724
29.6200 19.7165 -0.1738
29.6400 19.7298 -0.1865
29.6600 19.7431 -0.1704
29.6800 19.7564 -0.1759
29.7000 19.7698 -0.1852
29.7200 19.7831 -0.1729
29.7400 19.7964 -0.1829
29.7600 19.8097 -0.1801
29.7800 19.8231 -0.1813
29.8000 19.8364 -0.1881
29.8200 19.8497 -0.1800
29.8400 19.8630 -0.1821
29.8600 19.8764 -0.1878
29.8800 19.8897 -0.1765
29.9000 19.9031 -0.1831
29.9200 19.9164 -0.1895
29.9400 19.9298 -0.1788
29.9600 19.9431 -0.1879
29.9800 19.9565 -0.1900
30.0000 19.9698 -0.1812
30.0200 19.9831 -0.1934
30.0400 19.9965 -0.1873
30.0600 20.0098 -0.1836
30.0800 20.0231 -0.1945
30.1000 20.0364 -0.1865
30.1200 20.0497 -0.1858
30.1400 20.0631 -0.1997
30.1600 20.0764 -0.1862
30.1800 20.0897 -0.1881
30.2000 20.1031 -0.2000
30.2200 20.1164 -0.1890
30.2400 20.1297 -0.1949
30.2600 20.1431 -0.2012
30.2800 20.1564 -0.1919
30.3000 20.1697 -0.1962
30.3200 20.1831 -0.2035
30.3400 20.1965 -0.1941
30.3600 20.2098 -0.1970
30.3800 20.2231 -0.1991
30.4000 20.2365 -0.1996
30.4200 20.2498 -0.2007
30.4400 20.2632 -0.1975
30.4600 20.2764 -0.1997
30.4800 20.2898 -0.2071
30.5000 20.3031 -0.2000
30.5200 20.3164 -0.2016
30.5400 20.3297 -0.2088
30.5600 20.3430 -0.1997
30.5800 20.3564 -0.2039
30.6000 20.3697 -0.2147
30.6200 20.3831 -0.2077
30.6400 20.3964 -0.2088
30.6600 20.4098 -0.2108
30.6800 20.4232 -0.1552
30.7000 20.4365 -0.0694
30.7200 20.4498 -0.0191
30.7400 20.4631 0.0246
30.7600 20.4765 0.0838
30.7800 20.4898 0.1305
30.8000 20.5031 0.1907
30.8200 20.5164 0.2536
30.8400 20.5297 0.3023
30.8600 20.5431 0.3648
30.8800 20.5564 0.4174
30.9000 20.5697 0.4717
30.9200 20.5830 0.5244
30.9400 20.5964 0.5723
30.9600 20.6097 0.5976
30.9800 20.6231 0.6309
31.0000 20.6364 0.6881
31.0200 20.6497 0.7334
31.0400 20.6631 0.7854
31.0600 20.6765 0.8338
31.0800 20.6898 0.8756
31.1000 20.7031 0.9219
31.1200 20.7165 0.9730
31.1400 20.7298 1.0212
31.1600 20.7431 1.0431
31.1800 20.7564 1.0698
31.2000 20.7697 1.0643
31.2200 20.7830 1.0559
31.2400 20.7964 1.0703
31.2600 20.8097 1.0606
31.2800 20.8230 1.0651
31.3000 20.8364 1.0715
31.3200 20.8498 1.0635
31.3400 20.8631 1.0666
31.3600 20.8764 1.0778
31.3800 20.8898 1.0707
31.4000 20.9031 1.0719
31.4200 20.9165 1.0789
31.4400 20.9298 1.0725
31.4600 20.9431 1.0725
31.4800 20.9564 1.0782
31.5000 20.9698 1.0722
31.5200 20.9831 1.0773
31.5400 20.9964 1.0714
31.5600 21.0098 1.0709
31.5800 21.0231 1.0737
31.6000 21.0365 1.0710
31.6200 21.0498 1.0670
31.6400 21.0631 1.0643
31.6600 21.0764 1.0689
31.6800 21.0897 1.0671
31.7000 21.1031 1.0637
31.7200 21.1164 1.0628
31.7400 21.1297 1.0660
31.7600 21.1431 1.0582
31.7800 21.1565 1.0594
31.8000 21.1698 1.0666
31.8200 21.1831 1.0529
31.8400 21.1964 1.0574
31.8600 21.2098 1.0620
31.8800 21.2231 1.0494
31.9000 21.2364 1.0527
31.9200 21.2498 1.0546
31.9400 21.2631 1.0485
31.9600 21.2765 1.0518
31.9800 21.2898 1.0524
32.0000 21.3031 1.0457
32.0200 21.3164 1.0501
32.0400 21.3297 1.0476
32.0600 21.3431 1.0479
32.0800 21.3564 1.0484
32.1000 21.3697 1.0434
32.1200 21.3831 1.0457
32.1400 21.3965 1.0415
32.1600 21.4098 1.0358
32.1800 21.4231 1.0397
32.2000 21.4364 1.0389
32.2200 21.4498 1.0365
32.2400 21.4631 1.0365
32.2600 21.4764 1.0370
32.2800 21.4897 1.0379
32.3000 21.5031 1.0356
32.3200 21.5164 1.0303
32.3400 21.5297 1.0381
32.3600 21.5430 1.0393
32.3800 21.5564 1.0312
32.4000 21.5697 1.0351
32.4200 21.5831 1.0325
32.4400 21.5964 1.0257
32.4600 21.6097 1.0356
32.4800 21.6231 1.0363
32.5000 21.6364 1.0257
32.5200 21.6498 1.0361
32.5400 21.6631 1.0320
32.5600 21.6765 1.0271
32.5800 21.6898 1.0360
32.6000 21.7032 1.0284
32.6200 21.7165 1.0272
32.6400 21.7297 1.0324
32.6600 21.7431 1.0259
32.6800 21.7564 1.0254
32.7000 21.7697 1.0301
32.7200 21.7830 1.0260
32.7400 21.7964 1.0164
32.7600 21.8097 1.0279
32.7800 21.8230 1.0188
32.8000 21.8364 1.0148
32.8200 21.8497 1.0227
32.8400 21.8631 1.0194
32.8600 21.8765 1.0131
32.8800 21.8898 1.0104
32.9000 21.9031 1.0174
32.9200 21.9164 1.0098
32.9400 21.9298 1.0162
32.9600 21.9431 1.0093
32.9800 21.9565 1.0060
33.0000 21.9698 1.0088
33.0200 21.9831 1.0078
33.0400 21.9964 1.0037
33.0600 22.0098 1.0059
33.0800 22.0231 1.0051
33.1000 22.0364 0.9989
33.1200 22.0497 1.0035
33.1400 22.0631 1.0086
33.1600 22.0764 0.9961
33.1800 22.0897 0.9977
33.2000 22.1031 1.0024
33.2200 22.1165 0.9935
33.2400 22.1298 0.9968
33.2600 22.1431 1.0071
33.2800 22.1564 0.9896
33.3000 22.1698 0.9939
33.3200 22.1831 0.9957
33.3400 22.1964 0.9891
33.3600 22.2097 0.9968
33.3800 22.2231 0.9962
33.4000 22.2364 0.9862
33.4200 22.2497 0.9905
33.4400 22.2630 0.9986
33.4600 22.2764 0.9898
33.4800 22.2897 0.9838
33.5000 22.3031 1.0085
33.5200 22.3164 0.9938
33.5400 22.3297 0.9773
33.5600 22.3431 1.0025
33.5800 22.3564 0.9892
33.6000 22.3697 0.9786
33.6200 22.3831 0.9961
33.6400 22.3964 0.9845
33.6600 22.4098 0.9784
33.6800 22.4231 0.9976
33.7000 22.4365 0.9791
33.7200 22.4498 0.9807
33.7400 22.4631 0.9992
33.7600 22.4765 0.9772
33.7800 22.4898 0.9809
33.8000 22.5031 0.9959
33.8200 22.5164 0.9750
33.8400 22.5297 0.9829
33.8600 22.5430 0.9872
33.8800 22.5564 0.9689
33.9000 22.5697 0.9876
33.9200 22.5831 0.9818
33.9400 22.5965 0.9677
33.9600 22.6098 0.9768
33.9800 22.6232 0.9735
34.0000 22.6365 0.9681
34.0200 22.6498 0.9864
34.0400 22.6632 0.9743
34.0600 22.6765 0.9598
34.0800 22.6898 0.9820
34.1000 22.7031 0.9703
34.1200 22.7164 0.9607
34.1400 22.7297 0.9727
34.1600 22.7430 0.9637
34.1800 22.7563 0.9609
34.2000 22.7697 0.9724
34.2200 22.7831 0.9607
34.2400 22.7964 0.9580
34.2600 22.8097 0.9641
34.2800 22.8231 0.9581
34.3000 22.8365 0.9524
34.3200 22.8498 0.9620
34.3400 22.8632 0.9610
34.3600 22.8765 0.9611
34.3800 22.8898 0.9590
34.4000 22.9032 0.9575
34.4200 22.9165 0.9547
34.4400 22.9298 0.9532
34.4600 22.9431 0.9588
34.4800 22.9564 0.9508
34.5000 22.9697 0.9513
34.5200 22.9830 0.9573
34.5400 22.9964 0.9522
34.5600 23.0097 0.9442
34.5800 23.0231 0.9623
34.6000 23.0364 0.9529
34.6200 23.0497 0.9404
34.6400 23.0631 0.9598
34.6600 23.0764 0.9430
34.6800 23.0898 0.9399
34.7000 23.1031 0.9539
34.7200 23.1164 0.9391
34.7400 23.1298 0.9406
34.7600 23.1432 0.9516
34.7800 23.1565 0.9373
34.8000 23.1698 0.9358
34.8200 23.1831 0.9508
34.8400 23.1964 0.9319
34.8600 23.2098 0.9381
34.8800 23.2231 0.9442
34.9000 23.2364 0.9294
34.9200 23.2497 0.9399
34.9400 23.2631 0.9391
34.9600 23.2764 0.9233
34.9800 23.2897 0.9385
35.0000 23.3031 0.9342
35.0200 23.3165 0.9211
35.0400 23.3298 0.9308
35.0600 23.3431 0.9313
35.0800 23.3565 0.9231
35.1000 23.3698 0.9327
35.1200 23.3831 0.9285
35.1400 23.3965 0.9199
35.1600 23.4098 0.9255
35.1800 23.4231 0.9270
35.2000 23.4364 0.9229
35.2200 23.4498 0.9226
35.2400 23.4631 0.9241
35.2600 23.4764 0.9208
35.2800 23.4897 0.9163
35.3000 23.5031 0.9208
35.3200 23.5164 0.9190
35.3400 23.5297 0.9122
35.3600 23.5431 0.9201
35.3800 23.5564 0.9172
35.4000 23.5698 0.9097
35.4200 23.5831 0.9189
35.4400 23.5965 0.9138
35.4600 23.6098 0.9033
35.4800 23.6232 0.9194
35.5000 23.6365 0.9125
35.5200 23.6498 0.9026
35.5400 23.6631 0.9184
35.5600 23.6764 0.9098
35.5800 23.6898 0.9001
35.6000 23.7031 0.9184
35.6200 23.7164 0.9039
35.6400 23.7297 0.9035
35.6600 23.7431 0.9184
35.6800 23.7564 0.8954
35.7000 23.7697 0.9040
35.7200 23.7831 0.9165
35.7400 23.7965 0.8915
35.7600 23.8098 0.8996
35.7800 23.8231 0.9092
35.8000 23.8364 0.8988
35.8200 23.8498 0.9029
35.8400 23.8631 0.9028
35.8600 23.8765 0.8932
35.8800 23.8898 0.9011
35.9000 23.9031 0.8977
35.9200 23.9164 0.8897
35.9400 23.9298 0.9031
35.9600 23.9431 0.8971
35.9800 23.9563 0.8918
36.0000 23.9697 0.8985
36.0200 23.9830 0.8960
36.0400 23.9963 0.8913
36.0600 24.0097 0.8968
36.0800 24.0231 0.8955
36.1000 24.0365 0.8908
36.1200 24.0499 0.8891
36.1400 24.0632 0.8935
36.1600 24.0765 0.8921
36.1800 24.0898 0.8924
36.2000 24.1032 0.8908
36.2200 24.1165 0.8870
36.2400 24.1297 0.8848
36.2600 24.1430 0.8896
36.2800 24.1564 0.8851
36.3000 24.1697 0.8856
36.3200 24.1830 0.8834
36.3400 24.1964 0.8825
36.3600 24.2097 0.8817
36.3800 24.2231 0.8828
36.4000 24.2364 0.8806
36.4200 24.2498 0.8796
36.4400 24.2631 0.8827
36.4600 24.2765 0.8721
36.4800 24.2898 0.8759
36.5000 24.3031 0.8832
36.5200 24.3164 0.8731
36.5400 24.3298 0.8763
36.5600 24.3431 0.8781
36.5800 24.3565 0.8676
36.6000 24.3698 0.8768
36.6200 24.3831 0.8746
36.6400 24.3964 0.8657
36.6600 24.4097 0.8736
36.6800 24.4231 0.8639
36.7000 24.4364 0.8636
36.7200 24.4497 0.8716
36.7400 24.4631 0.8687
36.7600 24.4764 0.8635
36.7800 24.4897 0.8681
36.8000 24.5031 0.8660
36.8200 24.5164 0.8605
36.8400 24.5298 0.8661
36.8600 24.5431 0.8593
36.8800 24.5565 0.8580
36.9000 24.5698 0.8679
36.9200 24.5831 0.8630
36.9400 24.5965 0.8505
36.9600 24.6098 0.8661
36.9800 24.6231 0.8584
37.0000 24.6364 0.8537
37.0200 24.6498 0.8673
37.0400 24.6631 0.8530
37.0600 24.6764 0.8535
37.0800 24.6897 0.8629
37.1000 24.7031 0.8475
37.1200 24.7164 0.8523
37.1400 24.7297 0.8566
37.1600 24.7431 0.8460
37.1800 24.7564 0.8512
37.2000 24.7698 0.8528
37.2200 24.7832 0.8461
37.2400 24.7965 0.8560
37.2600 24.8098 0.8499
37.2800 24.8231 0.8459
37.3000 24.8365 0.8526
37.3200 24.8498 0.8427
37.3400 24.8631 0.8477
37.3600 24.8764 0.8496
37.3800 24.8898 0.8417
37.4000 24.9031 0.8420
37.4200 24.9164 0.8424
37.4400 24.9297 0.8448
37.4600 24.9431 0.8433
37.4800 24.9564 0.8404
37.5000 24.9697 0.8436
37.5200 24.9830 0.8360
37.5400 24.9964 0.8407
37.5600 25.0098 0.8392
37.5800 25.0231 0.8352
37.6000 25.0364 0.8342
37.6200 25.0498 0.8408
37.6400 25.0631 0.8302
37.6600 25.0765 0.8328
37.6800 25.0898 0.8384
37.7000 25.1031 0.8252
37.7200 25.1164 0.8357
37.7400 25.1298 0.8369
37.7600 25.1431 0.8232
37.7800 25.1564 0.8323
37.8000 25.1697 0.8321
37.8200 25.1830 0.8262
37.8400 25.1964 0.8300
37.8600 25.2097 0.8297
37.8800 25.2231 0.8207
37.9000 25.2365 0.8295
37.9200 25.2498 0.8316
37.9400 25.2632 0.8148
37.9600 25.2765 0.8318
37.9800 25.2898 0.8324
38.0000 25.3032 0.8151
38.0200 25.3165 0.8281
38.0400 25.3298 0.8216
38.0600 25.3431 0.8204
38.0800 25.3564 0.8279
38.1000 25.3698 0.8199
38.1200 25.3831 0.8144
38.1400 25.3964 0.8201
38.1600 25.4097 0.8224
38.1800 25.4230 0.8160
38.2000 25.4364 0.8172
38.2200 25.4497 0.8210
38.2400 25.4630 0.8135
38.2600 25.4764 0.8169
38.2800 25.4898 0.8163
38.3000 25.5031 0.8096
38.3200 25.5165 0.8150
38.3400 25.5298 0.8151
38.3600 25.5432 0.8056
38.3800 25.5565 0.8115
38.4000 25.5698 0.8144
38.4200 25.5830 0.8013
38.4400 25.5964 0.8093
38.4600 25.6097 0.8099
38.4800 25.6231 0.7977
38.5000 25.6364 0.8097
38.5200 25.6497 0.8083
38.5400 25.6631 0.7961
38.5600 25.6765 0.8048
38.5800 25.6898 0.8034
38.6000 25.7031 0.7958
38.6200 25.7164 0.8055
38.6400 25.7298 0.7998
38.6600 25.7431 0.7964
38.6800 25.7564 0.7975
38.7000 25.7697 0.8013
38.7200 25.7831 0.7978
38.7400 25.7965 0.7933
38.7600 25.8098 0.8014
38.7800 25.8231 0.7975
38.8000 25.8364 0.7920
38.8200 25.8498 0.8010
38.8400 25.8631 0.7926
38.8600 25.8764 0.7864
38.8800 25.8897 0.7994
38.9000 25.9031 0.7912
38.9200 25.9164 0.7829
38.9400 25.9297 0.8007
38.9600 25.9430 0.7852
38.9800 25.9564 0.7829
39.0000 25.9698 0.7944
39.0200 25.9831 0.7797
39.0400 25.9964 0.7791
39.0600 26.0098 0.7982
39.0800 26.0231 0.7788
39.1000 26.0365 0.7785
39.1200 26.0498 0.7945
39.1400 26.0631 0.7755
39.1600 26.0764 0.7785
39.1800 26.0898 0.7873
39.2000 26.1031 0.7699
39.2200 26.1164 0.7776
39.2400 26.1297 0.7870
39.2600 26.1430 0.7697
39.2800 26.1564 0.7769
39.3000 26.1697 0.7838
39.3200 26.1831 0.7649
39.3400 26.1964 0.7781
39.3600 26.2098 0.7747
39.3800 26.2232 0.7652
39.4000 26.2365 0.7726
39.4200 26.2498 0.7719
39.4400 26.2632 0.7671
39.4600 26.2765 0.7692
39.4800 26.2898 0.7743
39.5000 26.3031 0.7629
39.5200 26.3164 0.7703
39.5400 26.3298 0.7756
39.5600 26.3431 0.7589
39.5800 26.3564 0.7673
39.6000 26.3697 0.7689
39.6200 26.3830 0.7588
39.6400 26.3964 0.7611
39.6600 26.4098 0.7696
39.6800 26.4231 0.7591
39.7000 26.4364 0.7561
39.7200 26.4498 0.7684
39.7400 26.4631 0.7572
39.7600 26.4765 0.7575
39.7800 26.4898 0.7627
39.8000 26.5031 0.7550
39.8200 26.5165 0.7571
39.8400 26.5298 0.7573
39.8600 26.5431 0.7574
39.8800 26.5564 0.7535
39.9000 26.5698 0.7588
39.9200 26.5831 0.7601
39.9400 26.5964 0.7513
39.9600 26.6097 0.7561
39.9800 26.6230 0.7527
40.0000 26.6364 0.7536
40.0200 26.6497 0.7525
40.0400 26.6631 0.7504
40.0600 26.6764 0.7556
40.0800 26.6898 0.7534
40.1000 26.7032 0.7455
40.1200 26.7165 0.7475
40.1400 26.7298 0.7525
40.1600 26.7431 0.7478
40.1800 26.7565 0.7462
40.2000 26.7698 0.7472
40.2200 26.7831 0.7438
40.2400 26.7964 0.7443
40.2600 26.8098 0.7443
40.2800 26.8231 0.7380
40.3000 26.8364 0.7425
40.3200 26.8497 0.7421
40.3400 26.8630 0.7361
40.3600 26.8764 0.7333
40.3800 26.8897 0.7394
40.4000 26.9031 0.7351
40.4200 26.9164 0.7365
40.4400 26.9298 0.7387
40.4600 26.9431 0.7300
40.4800 26.9565 0.7378
40.5000 26.9698 0.7334
40.5200 26.9831 0.7339
40.5400 26.9965 0.7348
40.5600 27.0098 0.7258
40.5800 27.0231 0.7328
40.6000 27.0364 0.7327
40.6200 27.0497 0.7293
40.6400 27.0631 0.7273
40.6600 27.0764 0.7284
40.6800 27.0897 0.7279
40.7000 27.1030 0.7240
40.7200 27.1164 0.7279
40.7400 27.1297 0.7207
40.7600 27.1431 0.7251
40.7800 27.1564 0.7235
40.8000 27.1697 0.7181
40.8200 27.1831 0.7277
40.8400 27.1964 0.7178
40.8600 27.2097 0.7204
40.8800 27.2231 0.7203
40.9000 27.2365 0.7155
40.9200 27.2498 0.7174
40.9400 27.2631 0.7217
40.9600 27.2765 0.7107
40.9800 27.2898 0.7121
41.0000 27.3032 0.7195
41.0200 27.3165 0.7070
41.0400 27.3298 0.7154
41.0600 27.3430 0.7164
41.0800 27.3564 0.7046
41.1000 27.3697 0.7085
41.1200 27.3830 0.7096
41.1400 27.3964 0.7063
41.1600 27.4098 0.7109
41.1800 27.4232 0.7029
41.2000 27.4365 0.6989
41.2200 27.4498 0.7061
41.2400 27.4632 0.7027
41.2600 27.4765 0.7006
41.2800 27.4898 0.7035
41.3000 27.5031 0.6995
41.3200 27.5164 0.7031
41.3400 27.5297 0.6976
41.3600 27.5431 0.7015
41.3800 27.5564 0.7104
41.4000 27.5697 0.6919
41.4200 27.5830 0.7004
41.4400 27.5964 0.7080
41.4600 27.6097 0.6910
41.4800 27.6230 0.7012
41.5000 27.6364 0.7048
41.5200 27.6498 0.6917
41.5400 27.6632 0.7026
41.5600 27.6765 0.7023
41.5800 27.6898 0.6916
41.6000 27.7031 0.7051
41.6200 27.7165 0.7001
41.6400 27.7298 0.6902
41.6600 27.7431 0.7043
41.6800 27.7564 0.6982
41.7000 27.7697 0.6902
41.7200 27.7831 0.7008
41.7400 27.7964 0.6964
41.7600 27.8097 0.6894
41.7800 27.8230 0.7008
41.8000 27.8364 0.6918
41.8200 27.8498 0.6874
41.8400 27.8631 0.6937
41.8600 27.8764 0.6929
41.8800 27.8898 0.6937
41.9000 27.9031 0.6940
41.9200 27.9165 0.6901
41.9400 27.9298 0.6881
41.9600 27.9431 0.6883
41.9800 27.9565 0.6898
42.0000 27.9698 0.6856
42.0200 27.9831 0.6878
42.0400 27.9964 0.6879
42.0600 28.0098 0.6853
42.0800 28.0231 0.6825
42.1000 28.0364 0.6838
42.1200 28.0497 0.6803
42.1400 28.0630 0.6803
42.1600 28.0764 0.6823
42.1800 28.0897 0.6763
42.2000 28.1031 0.6783
42.2200 28.1164 0.6799
42.2400 28.1298 0.6740
42.2600 28.1432 0.6739
42.2800 28.1565 0.6774
42.3000 28.1698 0.6714
42.3200 28.1831 0.6756
42.3400 28.1965 0.6740
42.3600 28.2098 0.6665
42.3800 28.2231 0.6712
42.4000 28.2364 0.6751
42.4200 28.2497 0.6663
42.4400 28.2631 0.6735
42.4600 28.2764 0.6697
42.4800 28.2897 0.6661
42.5000 28.3031 0.6655
42.5200 28.3164 0.6694
42.5400 28.3297 0.6640
42.5600 28.3431 0.6610
42.5800 28.3564 0.6698
42.6000 28.3697 0.6575
42.6200 28.3831 0.6605
42.6400 28.3965 0.6638
42.6600 28.4098 0.6512
42.6800 28.4231 0.6642
42.7000 28.4365 0.6612
42.7200 28.4499 0.6486
42.7400 28.4632 0.6609
42.7600 28.4764 0.6603
42.7800 28.4898 0.6488
42.8000 28.5031 0.6577
42.8200 28.5164 0.6538
42.8400 28.5297 0.6448
42.8600 28.5430 0.6573
42.8800 28.5564 0.6511
42.9000 28.5697 0.6443
42.9200 28.5831 0.6573
42.9400 28.5964 0.6477
42.9600 28.6097 0.6409
42.9800 28.6231 0.6536
43.0000 28.6364 0.6428
43.0200 28.6498 0.6481
43.0400 28.6631 0.6548
43.0600 28.6765 0.6439
43.0800 28.6898 0.6427
43.1000 28.7031 0.6512
43.1200 28.7164 0.6462
43.1400 28.7298 0.6474
43.1600 28.7431 0.6451
43.1800 28.7564 0.6451
43.2000 28.7697 0.6475
43.2200 28.7830 0.6425
43.2400 28.7963 0.6465
43.2600 28.8097 0.6441
43.2800 28.8230 0.6401
43.3000 28.8364 0.6478
43.3200 28.8497 0.6401
43.3400 28.8632 0.6395
43.3600 28.8765 0.6484
43.3800 28.8899 0.6379
43.4000 28.9032 0.6388
43.4200 28.9165 0.6500
43.4400 28.9298 0.6375
43.4600 28.9431 0.6387
43.4800 28.9564 0.6482
43.5000 28.9697 0.6396
43.5200 28.9830 0.6382
43.5400 28.9964 0.6455
43.5600 29.0097 0.6357
43.5800 29.0230 0.6397
43.6000 29.0364 0.6443
43.6200 29.0498 0.6336
43.6400 29.0631 0.6386
43.6600 29.0765 0.6405
43.6800 29.0898 0.6323
43.7000 29.1032 0.6338
43.7200 29.1165 0.6429
43.7400 29.1298 0.6260
43.7600 29.1431 0.6344
43.7800 29.1565 0.6439
43.8000 29.1698 0.6222
43.8200 29.1831 0.6352
43.8400 29.1964 0.6377
43.8600 29.2097 0.6241
43.8800 29.2231 0.6322
43.9000 29.2364 0.6322
43.9200 29.2497 0.6240
43.9400 29.2630 0.6235
43.9600 29.2764 0.6326
43.9800 29.2897 0.6185
44.0000 29.3031 0.6276
44.0200 29.3164 0.6317
44.0400 29.3298 0.6218
44.0600 29.3431 0.6243
44.0800 29.3565 0.6268
44.1000 29.3698 0.6204
44.1200 29.3831 0.6225
44.1400 29.3965 0.6277
44.1600 29.4098 0.6147
44.1800 29.4231 0.6147
44.2000 29.4364 0.6356
44.2200 29.4497 0.6137
44.2400 29.4631 0.6179
44.2600 29.4764 0.6282
44.2800 29.4897 0.6074
44.3000 29.5030 0.6171
44.3200 29.5164 0.6270
44.3400 29.5297 0.6075
44.3600 29.5431 0.6134
44.3800 29.5564 0.6216
44.4000 29.5697 0.6056
44.4200 29.5831 0.6155
44.4400 29.5965 0.6188
44.4600 29.6098 0.6030
44.4800 29.6231 0.6127
44.5000 29.6365 0.6145
44.5200 29.6498 0.6017
44.5400 29.6631 0.6123
44.5600 29.6764 0.6061
44.5800 29.6897 0.5979
44.6000 29.7031 0.6071
44.6200 29.7164 0.6020
44.6400 29.7297 0.5932
44.6600 29.7430 0.6066
44.6800 29.7564 0.5967
44.7000 29.7697 0.5899
44.7200 29.7831 0.5991
44.7400 29.7964 0.5942
44.7600 29.8097 0.5896
44.7800 29.8231 0.5920
44.8000 29.8365 0.5893
44.8200 29.8498 0.5971
44.8400 29.8631 0.5916
44.8600 29.8765 0.5868
44.8800 29.8898 0.5846
44.9000 29.9032 0.5868
44.9200 29.9164 0.5824
44.9400 29.9297 0.5855
44.9600 29.9431 0.5828
44.9800 29.9564 0.5803
45.0000 29.9697 0.5816
45.0200 29.9831 0.5809
45.0400 29.9964 0.5750
45.0600 30.0097 0.5801
45.0800 30.0231 0.5789
45.1000 30.0364 0.5720
45.1200 30.0498 0.5827
45.1400 30.0632 0.5736
45.1600 30.0765 0.5715
45.1800 30.0898 0.5795
45.2000 30.1031 0.5726
45.2200 30.1165 0.5702
45.2400 30.1298 0.5768
45.2600 30.1431 0.5646
45.2800 30.1564 0.5715
45.3000 30.1697 0.5754
45.3200 30.1831 0.5685
45.3400 30.1964 0.5663
45.3600 30.2097 0.5699
45.3800 30.2230 0.5667
45.4000 30.2364 0.5778
45.4200 30.2497 0.5669
45.4400 30.2630 0.5694
45.4600 30.2764 0.5718
45.4800 30.2897 0.5646
45.5000 30.3031 0.5653
45.5200 30.3165 0.5681
45.5400 30.3298 0.5651
45.5600 30.3431 0.5630
45.5800 30.3565 0.5675
45.6000 30.3698 0.5651
45.6200 30.3831 0.5626
45.6400 30.3964 0.5657
45.6600 30.4097 0.5644
45.6800 30.4230 0.5637
45.7000 30.4364 0.5541
45.7200 30.4497 0.5625
45.7400 30.4630 0.5612
45.7600 30.4764 0.5544
45.7800 30.4898 0.5621
45.8000 30.5031 0.5575
45.8200 30.5164 0.5539
45.8400 30.5298 0.5635
45.8600 30.5431 0.5562
45.8800 30.5565 0.5465
45.9000 30.5698 0.5637
45.9200 30.5831 0.5531
45.9400 30.5964 0.5446
45.9600 30.6098 0.5599
45.9800 30.6231 0.5553
46.0000 30.6365 0.5496
46.0200 30.6498 0.5574
46.0400 30.6631 0.5540
46.0600 30.6765 0.5463
46.0800 30.6898 0.5531
46.1000 30.7031 0.5508
46.1200 30.7164 0.5419
46.1400 30.7297 0.5520
46.1600 30.7431 0.5496
46.1800 30.7564 0.5422
46.2000 30.7697 0.5495
46.2200 30.7831 0.5449
46.2400 30.7964 0.5384
46.2600 30.8098 0.5477
46.2800 30.8231 0.5431
46.3000 30.8364 0.5395
46.3200 30.8498 0.5419
46.3400 30.8632 0.5384
46.3600 30.8765 0.5398
46.3800 30.8898 0.5373
46.4000 30.9031 0.5336
46.4200 30.9165 0.5357
46.4400 30.9298 0.5346
46.4600 30.9431 0.5345
46.4800 30.9564 0.5376
46.5000 30.9697 0.5257
46.5200 30.9830 0.5340
46.5400 30.9964 0.5387
46.5600 31.0097 0.5245
46.5800 31.0231 0.5373
46.6000 31.0365 0.5314
46.6200 31.0498 0.5151
46.6400 31.0631 0.5358
46.6600 31.0764 0.5254
46.6800 31.0898 0.5201
46.7000 31.1031 0.5386
46.7200 31.1164 0.5204
46.7400 31.1298 0.5234
46.7600 31.1431 0.5386
46.7800 31.1564 0.5123
46.8000 31.1698 0.5300
46.8200 31.1831 0.5356
46.8400 31.1964 0.5116
46.8600 31.2097 0.5291
46.8800 31.2231 0.5290
46.9000 31.2364 0.5107
46.9200 31.2497 0.5281
46.9400 31.2631 0.5243
46.9600 31.2765 0.5134
46.9800 31.2898 0.5275
47.0000 31.3031 0.5224
47.0200 31.3165 0.5114
47.0400 31.3298 0.5261
47.0600 31.3432 0.5200
47.0800 31.3565 0.5117
47.1000 31.3698 0.5285
47.1200 31.3831 0.5258
47.1400 31.3964 0.5165
47.1600 31.4097 0.5270
47.1800 31.4230 0.5187
47.2000 31.4363 0.5196
47.2200 31.4497 0.5279
47.2400 31.4631 0.5148
47.2600 31.4764 0.5167
47.2800 31.4897 0.5205
47.3000 31.5031 0.5178
47.3200 31.5165 0.5142
47.3400 31.5298 0.5152
47.3600 31.5431 0.5152
47.3800 31.5564 0.5187
47.4000 31.5698 0.5128
47.4200 31.5831 0.5136
47.4400 31.5964 0.5157
47.4600 31.6098 0.5151
47.4800 31.6231 0.5140
47.5000 31.6364 0.5144
47.5200 31.6497 0.5059
47.5400 31.6631 0.5156
47.5600 31.6764 0.5090
47.5800 31.6897 0.5067
47.6000 31.7031 0.5164
47.6200 31.7164 0.5037
47.6400 31.7297 0.5033
47.6600 31.7431 0.5173
47.6800 31.7565 0.4987
47.7000 31.7698 0.5030
47.7200 31.7831 0.5128
47.7400 31.7965 0.4964
47.7600 31.8098 0.5062
47.7800 31.8232 0.5092
47.8000 31.8365 0.4933
47.8200 31.8498 0.5054
47.8400 31.8631 0.5057
47.8600 31.8764 0.4932
47.8800 31.8898 0.5050
47.9000 31.9031 0.5043
47.9200 31.9164 0.4901
47.9400 31.9297 0.5019
47.9600 31.9431 0.5017
47.9800 31.9564 0.4903
48.0000 31.9697 0.5033
48.0200 31.9831 0.4981
48.0400 31.9964 0.4898
48.0600 32.0098 0.4987
48.0800 32.0231 0.4949
48.1000 32.0364 0.4907
48.1200 32.0498 0.4980
48.1400 32.0631 0.4931
48.1600 32.0765 0.4844
48.1800 32.0898 0.4940
48.2000 32.1031 0.4930
48.2200 32.1165 0.4832
48.2400 32.1298 0.4937
48.2600 32.1431 0.4896
48.2800 32.1564 0.4866
48.3000 32.1697 0.4907
48.3200 32.1830 0.4852
48.3400 32.1964 0.4863
48.3600 32.2097 0.4882
48.3800 32.2231 0.4847
48.4000 32.2365 0.4815
48.4200 32.2498 0.4837
48.4400 32.2632 0.4844
48.4600 32.2765 0.4787
48.4800 32.2898 0.4770
48.5000 32.3032 0.4820
48.5200 32.3165 0.4760
48.5400 32.3298 0.4746
48.5600 32.3431 0.4826
48.5800 32.3564 0.4721
48.6000 32.3697 0.4706
48.6200 32.3830 0.4799
48.6400 32.3963 0.4707
48.6600 32.4097 0.4729
48.6800 32.4231 0.4738
48.7000 32.4364 0.4663
48.7200 32.4497 0.4693
48.7400 32.4631 0.4733
48.7600 32.4765 0.4622
48.7800 32.4898 0.4706
48.8000 32.5032 0.4681
48.8200 32.5165 0.4599
48.8400 32.5298 0.4664
48.8600 32.5432 0.4655
48.8800 32.5565 0.4615
48.9000 32.5698 0.4650
48.9200 32.5831 0.4582
48.9400 32.5964 0.4604
48.9600 32.6098 0.4630
48.9800 32.6231 0.4634
49.0000 32.6364 0.4601
49.0200 32.6497 0.4671
49.0400 32.6631 0.4607
49.0600 32.6764 0.4558
49.0800 32.6898 0.4661
49.1000 32.7031 0.4634
49.1200 32.7165 0.4592
49.1400 32.7298 0.4602
49.1600 32.7431 0.4599
49.1800 32.7565 0.4600
49.2000 32.7698 0.4640
49.2200 32.7831 0.4599
49.2400 32.7965 0.4600
49.2600 32.8098 0.4628
49.2800 32.8231 0.4567
49.3000 32.8364 0.4628
49.3200 32.8498 0.4629
49.3400 32.8631 0.4600
49.3600 32.8763 0.4633
49.3800 32.8897 0.4542
49.4000 32.9030 0.4619
49.4200 32.9164 0.4607
49.4400 32.9298 0.4529
49.4600 32.9431 0.4549
49.4800 32.9565 0.4608
49.5000 32.9698 0.4497
49.5200 32.9831 0.4542
49.5400 32.9965 0.4548
49.5600 33.0098 0.4465
49.5800 33.0231 0.4473
49.6000 33.0364 0.4562
49.6200 33.0497 0.4475
49.6400 33.0630 0.4510
49.6600 33.0764 0.4537
49.6800 33.0898 0.4427
49.7000 33.1031 0.4491
49.7200 33.1164 0.4542
49.7400 33.1297 0.4444
49.7600 33.1431 0.4473
49.7800 33.1564 0.4476
49.8000 33.1697 0.4421
49.8200 33.1831 0.4439
49.8400 33.1964 0.4442
49.8600 33.2098 0.4351
49.8800 33.2231 0.4401
49.9000 33.2365 0.4439
49.9200 33.2498 0.4322
49.9400 33.2632 0.4330
49.9600 33.2765 0.4356
49.9800 33.2898 0.4416
50.0000 33.3031 0.4351
50.0200 33.3164 0.4367
50.0400 33.3298 0.4316
50.0600 33.3431 0.4344
50.0800 33.3564 0.4307
50.1000 33.3697 0.4294
50.1200 33.3831 0.4302
50.1400 33.3964 0.4276
50.1600 33.4097 0.4254
50.1800 33.4231 0.4309
50.2000 33.4364 0.4245
50.2200 33.4498 0.4247
50.2400 33.4631 0.4247
50.2600 33.4764 0.4246
50.2800 33.4898 0.4233
50.3000 33.5031 0.4212
50.3200 33.5165 0.4216
50.3400 33.5298 0.4253
50.3600 33.5431 0.4182
50.3800 33.5564 0.4201
50.4000 33.5698 0.4231
50.4200 33.5831 0.4124
50.4400 33.5964 0.4229
50.4600 33.6097 0.4152
50.4800 33.6230 0.4105
50.5000 33.6363 0.4210
50.5200 33.6497 0.4108
50.5400 33.6630 0.4073
50.5600 33.6764 0.4176
50.5800 33.6898 0.4144
50.6000 33.7032 0.3969
50.6200 33.7165 0.4169
50.6400 33.7298 0.4134
50.6600 33.7432 0.3955
50.6800 33.7565 0.4128
50.7000 33.7697 0.4089
50.7200 33.7830 0.3983
50.7400 33.7964 0.4111
50.7600 33.8097 0.4056
50.7800 33.8231 0.4009
50.8000 33.8364 0.4115
50.8200 33.8497 0.3984
50.8400 33.8631 0.4047
50.8600 33.8764 0.4123
50.8800 33.8898 0.3960
50.9000 33.9031 0.4009
50.9200 33.9165 0.4138
50.9400 33.9298 0.3936
50.9600 33.9431 0.3966
50.9800 33.9564 0.4069
51.0000 33.9697 0.3944
51.0200 33.9831 0.3981
51.0400 33.9964 0.4026
51.0600 34.0097 0.3928
51.0800 34.0231 0.4014
51.1000 34.0364 0.3958
51.1200 34.0497 0.3924
51.1400 34.0631 0.3945
51.1600 34.0764 0.3973
51.1800 34.0897 0.3990
51.2000 34.1031 0.3886
51.2200 34.1164 0.3931
51.2400 34.1298 0.3995
51.2600 34.1431 0.3861
51.2800 34.1565 0.3881
51.3000 34.1698 0.3940
51.3200 34.1832 0.3842
51.3400 34.1964 0.3841
51.3600 34.2098 0.3907
51.3800 34.2231 0.3843
51.4000 34.2365 0.3863
51.4200 34.2498 0.3855
51.4400 34.2631 0.3791
51.4600 34.2764 0.3897
51.4800 34.2898 0.3850
51.5000 34.3031 0.3733
51.5200 34.3164 0.3881
51.5400 34.3297 0.3795
51.5600 34.3430 0.3708
51.5800 34.3564 0.3840
51.6000 34.3697 0.3796
51.6200 34.3831 0.3742
51.6400 34.3964 0.3814
51.6600 34.4098 0.3729
51.6800 34.4232 0.3714
51.7000 34.4365 0.3778
51.7200 34.4498 0.3733
51.7400 34.4632 0.3708
51.7600 34.4765 0.3767
51.7800 34.4898 0.3677
51.8000 34.5031 0.3685
51.8200 34.5164 0.3802
51.8400 34.5298 0.3699
51.8600 34.5431 0.3682
51.8800 34.5564 0.3701
51.9000 34.5697 0.3675
51.9200 34.5831 0.3642
51.9400 34.5964 0.3682
51.9600 34.6097 0.3659
51.9800 34.6230 0.3623
52.0000 34.6364 0.3698
52.0200 34.6497 0.3644
52.0400 34.6631 0.3545
52.0600 34.6764 0.3720
52.0800 34.6898 0.3626
52.1000 34.7031 0.3515
52.1200 34.7165 0.3724
52.1400 34.7298 0.3601
52.1600 34.7431 0.3530
52.1800 34.7564 0.3705
52.2000 34.7697 0.3501
52.2200 34.7831 0.3530
52.2400 34.7964 0.3686
52.2600 34.8097 0.3463
52.2800 34.8230 0.3536
52.3000 34.8364 0.3624
52.3200 34.8497 0.3454
52.3400 34.8631 0.3543
52.3600 34.8764 0.3617
52.3800 34.8898 0.3466
52.4000 34.9032 0.3521
52.4200 34.9165 0.3577
52.4400 34.9298 0.3447
52.4600 34.9431 0.3527
52.4800 34.9565 0.3523
52.5000 34.9698 0.3452
52.5200 34.9831 0.3551
52.5400 34.9964 0.3519
52.5600 35.0098 0.3491
52.5800 35.0231 0.3463
52.6000 35.0364 0.3496
52.6200 35.0497 0.3478
52.6400 35.0630 0.3438
52.6600 35.0764 0.3490
52.6800 35.0897 0.3444
52.7000 35.1031 0.3491
52.7200 35.1164 0.3471
52.7400 35.1298 0.3436
52.7600 35.1431 0.3462
52.7800 35.1565 0.3445
52.8000 35.1698 0.3408
52.8200 35.1831 0.3426
52.8400 35.1965 0.3431
52.8600 35.2098 0.3386
52.8800 35.2230 0.3417
52.9000 35.2363 0.3441
52.9200 35.2497 0.3389
52.9400 35.2631 0.3440
52.9600 35.2764 0.3384
52.9800 35.2897 0.3393
53.0000 35.3031 0.3387
53.0200 35.3165 0.3342
53.0400 35.3298 0.3336
53.0600 35.3431 0.3346
53.0800 35.3565 0.3334
53.1000 35.3698 0.3328
53.1200 35.3831 0.3330
53.1400 35.3964 0.3261
53.1600 35.4098 0.3334
53.1800 35.4231 0.3345
53.2000 35.4365 0.3199
53.2200 35.4498 0.3326
53.2400 35.4631 0.3313
53.2600 35.4764 0.3223
53.2800 35.4898 0.3289
53.3000 35.5031 0.3237
53.3200 35.5164 0.3140
53.3400 35.5297 0.3261
53.3600 35.5430 0.3205
53.3800 35.5564 0.3153
53.4000 35.5697 0.3227
53.4200 35.5830 0.3140
53.4400 35.5964 0.3124
53.4600 35.6098 0.3207
53.4800 35.6231 0.3117
53.5000 35.6365 0.3075
53.5200 35.6498 0.3182
53.5400 35.6631 0.3175
53.5600 35.6765 0.3061
53.5800 35.6898 0.3105
53.6000 35.7031 0.3120
53.6200 35.7164 0.3041
53.6400 35.7298 0.3073
53.6600 35.7431 0.3108
53.6800 35.7564 0.3065
53.7000 35.7697 0.3012
53.7200 35.7830 0.3093
53.7400 35.7964 0.3015
53.7600 35.8097 0.2994
53.7800 35.8231 0.3045
53.8000 35.8364 0.2964
53.8200 35.8498 0.2994
53.8400 35.8631 0.3035
53.8600 35.8765 0.2938
53.8800 35.8898 0.3014
53.9000 35.9031 0.2975
53.9200 35.9165 0.2903
53.9400 35.9298 0.2976
53.9600 35.9431 0.2939
53.9800 35.9564 0.2890
54.0000 35.9697 0.2976
54.0200 35.9831 0.2926
54.0400 35.9964 0.2875
54.0600 36.0097 0.2936
54.0800 36.0230 0.2887
54.1000 36.0364 0.2881
54.1200 36.0498 0.2901
54.1400 36.0631 0.2812
54.1600 36.0764 0.2888
54.1800 36.0898 0.2837
54.2000 36.1031 0.2764
54.2200 36.1164 0.2882
54.2400 36.1298 0.2796
54.2600 36.1431 0.2777
54.2800 36.1565 0.2868
54.3000 36.1698 0.2737
54.3200 36.1831 0.2777
54.3400 36.1964 0.2878
54.3600 36.2098 0.2738
54.3800 36.2231 0.2771
54.4000 36.2364 0.2816
54.4200 36.2497 0.2710
54.4400 36.2630 0.2784
54.4600 36.2764 0.2784
54.4800 36.2897 0.2679
54.5000 36.3031 0.2735
54.5200 36.3164 0.2725
54.5400 36.3298 0.2695
54.5600 36.3432 0.2765
54.5800 36.3565 0.2682
54.6000 36.3698 0.2658
54.6200 36.3831 0.2798
54.6400 36.3965 0.2641
54.6600 36.4098 0.2655
54.6800 36.4231 0.2784
54.7000 36.4364 0.2670
54.7200 36.4497 0.2657
54.7400 36.4631 0.2700
54.7600 36.4764 0.2591
54.7800 36.4897 0.2653
54.8000 36.5030 0.2683
54.8200 36.5164 0.2609
54.8400 36.5297 0.2684
54.8600 36.5431 0.2627
54.8800 36.5564 0.2586
54.9000 36.5698 0.2661
54.9200 36.5831 0.2617
54.9400 36.5965 0.2606
54.9600 36.6098 0.2622
54.9800 36.6231 0.2587
55.0000 36.6365 0.2591
55.0200 36.6498 0.2600
55.0400 36.6631 0.2580
55.0600 36.6764 0.2603
55.0800 36.6897 0.2574
55.1000 36.7031 0.2558
55.1200 36.7164 0.2563
55.1400 36.7297 0.2507
55.1600 36.7430 0.2578
55.1800 36.7564 0.2523
55.2000 36.7697 0.2460
55.2200 36.7831 0.2581
55.2400 36.7964 0.2540
55.2600 36.8098 0.2439
55.2800 36.8231 0.2637
55.3000 36.8364 0.2520
55.3200 36.8497 0.2382
55.3400 36.8631 0.2570
55.3600 36.8764 0.2506
55.3800 36.8898 0.2367
55.4000 36.9031 0.2580
55.4200 36.9165 0.2491
55.4400 36.9298 0.2380
55.4600 36.9432 0.2564
55.4800 36.9565 0.2427
55.5000 36.9697 0.2397
55.5200 36.9830 0.2552
55.5400 36.9963 0.2387
55.5600 37.0097 0.2406
55.5800 37.0230 0.2476
55.6000 37.0364 0.2400
55.6200 37.0498 0.2411
55.6400 37.0632 0.2465
55.6600 37.0765 0.2406
55.6800 37.0898 0.2354
55.7000 37.1032 0.2511
55.7200 37.1165 0.2353
55.7400 37.1299 0.2372
55.7600 37.1432 0.2515
55.7800 37.1564 0.2347
55.8000 37.1697 0.2343
55.8200 37.1831 0.2439
55.8400 37.1964 0.2333
55.8600 37.2097 0.2375
55.8800 37.2230 0.2410
55.9000 37.2364 0.2315
55.9200 37.2497 0.2337
55.9400 37.2631 0.2366
55.9600 37.2764 0.2304
55.9800 37.2898 0.2341
56.0000 37.3031 0.2292
56.0200 37.3165 0.2316
56.0400 37.3298 0.2271
56.0600 37.3431 0.2250
56.0800 37.3565 0.2278
56.1000 37.3698 0.2244
56.1200 37.3831 0.2220
56.1400 37.3964 0.2273
56.1600 37.4097 0.2171
56.1800 37.4231 0.2213
56.2000 37.4364 0.2225
56.2200 37.4497 0.2110
56.2400 37.4630 0.2223
56.2600 37.4764 0.2176
56.2800 37.4897 0.2075
56.3000 37.5031 0.2165
56.3200 37.5164 0.2122
56.3400 37.5298 0.2078
56.3600 37.5431 0.2104
56.3800 37.5565 0.2115
56.4000 37.5698 0.2020
56.4200 37.5831 0.2089
56.4400 37.5965 0.2081
56.4600 37.6098 0.2014
56.4800 37.6231 0.2073
56.5000 37.6364 0.2043
56.5200 37.6497 0.1990
56.5400 37.6631 0.2051
56.5600 37.6764 0.2033
56.5800 37.6897 0.1911
56.6000 37.7030 0.1989
56.6200 37.7164 0.1980
56.6400 37.7297 0.1865
56.6600 37.7431 0.1962
56.6800 37.7564 0.1944
56.7000 37.7698 0.1849
56.7200 37.7831 0.1947
56.7400 37.7965 0.1874
56.7600 37.8098 0.1831
56.7800 37.8231 0.1927
56.8000 37.8365 0.1860
56.8200 37.8498 0.1823
56.8400 37.8631 0.1882
56.8600 37.8764 0.1820
56.8800 37.8897 0.1781
56.9000 37.9031 0.1880
56.9200 37.9164 0.1767
56.9400 37.9297 0.1785
56.9600 37.9430 0.1853
56.9800 37.9564 0.1746
57.0000 37.9697 0.1787
57.0200 37.9831 0.1816
57.0400 37.9964 0.1707
57.0600 38.0098 0.1735
57.0800 38.0231 0.1767
57.1000 38.0365 0.1675
57.1200 38.0498 0.1654
57.1400 38.0631 0.1701
57.1600 38.0765 0.1618
57.1800 38.0898 0.1686
57.2000 38.1032 0.1639
57.2200 38.1164 0.1649
57.2400 38.1297 0.1651
57.2600 38.1431 0.1618
57.2800 38.1564 0.1627
57.3000 38.1697 0.1591
57.3200 38.1830 0.1616
57.3400 38.1963 0.1599
57.3600 38.2097 0.1581
57.3800 38.2230 0.1605
57.4000 38.2364 0.1552
57.4200 38.2498 0.1587
57.4400 38.2631 0.1522
57.4600 38.2765 0.1572
57.4800 38.2898 0.1511
57.5000 38.3031 0.1499
57.5200 38.3165 0.1551
57.5400 38.3298 0.1501
57.5600 38.3431 0.1467
57.5800 38.3564 0.1504
57.6000 38.3697 0.1501
57.6200 38.3831 0.1441
57.6400 38.3964 0.1455
57.6600 38.4097 0.1488
57.6800 38.4230 0.1421
57.7000 38.4363 0.1439
57.7200 38.4497 0.1424
57.7400 38.4630 0.1343
57.7600 38.4764 0.1396
57.7800 38.4897 0.1434
57.8000 38.5031 0.1341
57.8200 38.5165 0.1329
57.8400 38.5298 0.1349
57.8600 38.5432 0.1282
57.8800 38.5565 0.1327
57.9000 38.5699 0.1300
57.9200 38.5831 0.1304
57.9400 38.5964 0.1318
57.9600 38.6097 0.1278
57.9800 38.6230 0.1219
58.0000 38.6364 0.1241
58.0200 38.6497 0.1231
58.0400 38.6630 0.1196
58.0600 38.6764 0.1219
58.0800 38.6898 0.1179
58.1000 38.7031 0.1130
58.1200 38.7165 0.1156
58.1400 38.7298 0.1148
58.1600 38.7432 0.1104
58.1800 38.7565 0.1116
58.2000 38.7698 0.1103
58.2200 38.7831 0.1065
58.2400 38.7964 0.1057
58.2600 38.8098 0.1052
58.2800 38.8231 0.1025
58.3000 38.8364 0.0981
58.3200 38.8497 0.1056
58.3400 38.8631 0.0951
58.3600 38.8764 0.0946
58.3800 38.8897 0.0981
58.4000 38.9030 0.0907
58.4200 38.9164 0.0920
58.4400 38.9298 0.0890
58.4600 38.9431 0.0868
58.4800 38.9564 0.0871
58.5000 38.9698 0.0884
58.5200 38.9832 0.0806
58.5400 38.9965 0.0845
58.5600 39.0098 0.0813
58.5800 39.0231 0.0778
58.6000 39.0365 0.0812
58.6200 39.0498 0.0756
58.6400 39.0632 0.0768
58.6600 39.0764 0.0773
58.6800 39.0897 0.0713
58.7000 39.1031 0.0776
58.7200 39.1164 0.0710
58.7400 39.1297 0.0731
58.7600 39.1430 0.0731
58.7800 39.1564 0.0667
58.8000 39.1697 0.0682
58.8200 39.1831 0.0670
58.8400 39.1964 0.0597
58.8600 39.2097 0.0668
58.8800 39.2231 0.0609
58.9000 39.2365 0.0542
58.9200 39.2498 0.0606
58.9400 39.2631 0.0601
58.9600 39.2765 0.0541
58.9800 39.2898 0.0601
59.0000 39.3031 0.0539
59.0200 39.3164 0.0564
59.0400 39.3297 0.0584
59.0600 39.3431 0.0474
59.0800 39.3564 0.0559
59.1000 39.3697 0.0556
59.1200 39.3830 0.0467
59.1400 39.3964 0.0489
59.1600 39.4097 0.0578
59.1800 39.4231 0.0463
59.2000 39.4364 0.0491
59.2200 39.4497 0.0540
59.2400 39.4631 0.0491
59.2600 39.4764 0.0476
59.2800 39.4898 0.0516
59.3000 39.5031 0.0470
59.3200 39.5165 0.0487
59.3400 39.5298 0.0517
59.3600 39.5432 0.0466
59.3800 39.5565 0.0484
59.4000 39.5698 0.0569
59.4200 39.5831 0.0440
59.4400 39.5964 0.0455
59.4600 39.6097 0.0479
59.4800 39.6230 0.0429
59.5000 39.6364 0.0439
59.5200 39.6497 0.0455
59.5400 39.6631 0.0405
59.5600 39.6764 0.0429
59.5800 39.6897 0.0415
59.6000 39.7031 0.0382
59.6200 39.7165 0.0372
59.6400 39.7298 0.0360
59.6600 39.7431 0.0328
59.6800 39.7565 0.0334
59.7000 39.7698 0.0342
59.7200 39.7832 0.0271
59.7400 39.7965 0.0222
59.7600 39.8098 0.0275
59.7800 39.8231 0.0260
59.8000 39.8364 0.0124
59.8200 39.8498 0.0245
59.8400 39.8631 0.0202
59.8600 39.8764 0.0059
59.8800 39.8897 0.0185
59.9000 39.9031 0.0109
59.9200 39.9164 -0.0045
59.9400 39.9297 0.0181
59.9600 39.9431 0.0056
59.9800 39.9565 -0.0087
60.0000 39.9698 0.0076
60.0200 39.9831 0.0017
60.0400 39.9964 -0.0232
60.0460 40.0003 -0.0330
