Raw Data
Time Displacement Force
(s) (mm) (N)
0.0000 0.0000 -0.0093
0.0200 0.0001 -0.0027
0.0400 0.0020 0.0098
0.0600 0.0096 0.0041
0.0800 0.0215 -0.0075
0.1000 0.0340 -0.0062
0.1200 0.0467 -0.0091
0.1400 0.0601 -0.0046
0.1600 0.0741 -0.0078
0.1800 0.0883 -0.0072
0.2000 0.1022 -0.0073
0.2200 0.1158 -0.0107
0.2400 0.1291 -0.0082
0.2600 0.1424 -0.0062
0.2800 0.1557 -0.0068
0.3000 0.1690 -0.0078
0.3200 0.1824 -0.0045
0.3400 0.1958 -0.0079
0.3600 0.2091 -0.0070
0.3800 0.2225 -0.0068
0.4000 0.2359 -0.0058
0.4200 0.2492 -0.0092
0.4400 0.2625 -0.0046
0.4600 0.2758 -0.0072
0.4800 0.2892 -0.0058
0.5000 0.3025 -0.0042
0.5200 0.3158 -0.0064
0.5400 0.3291 -0.0064
0.5600 0.3425 -0.0036
0.5800 0.3558 -0.0043
0.6000 0.3691 -0.0049
0.6200 0.3824 -0.0025
0.6400 0.3958 -0.0032
0.6600 0.4091 -0.0034
0.6800 0.4224 -0.0026
0.7000 0.4358 -0.0028
0.7200 0.4492 -0.0025
0.7400 0.4625 -0.0005
0.7600 0.4759 -0.0016
0.7800 0.4892 -0.0029
0.8000 0.5025 -0.0003
0.8200 0.5159 -0.0009
0.8400 0.5292 0.0009
0.8600 0.5425 0.0029
0.8800 0.5558 0.0013
0.9000 0.5691 0.0014
0.9200 0.5825 0.0018
0.9400 0.5958 0.0021
0.9600 0.6091 0.0003
0.9800 0.6224 0.0023
1.0000 0.6357 0.0034
1.0200 0.6491 0.0033
1.0400 0.6624 0.0066
1.0600 0.6758 0.0044
1.0800 0.6891 0.0033
1.1000 0.7025 0.0066
1.1200 0.7159 0.0062
1.1400 0.7292 0.0066
1.1600 0.7425 0.0089
1.1800 0.7559 0.0103
1.2000 0.7693 0.0090
1.2200 0.7826 0.0116
1.2400 0.7959 0.0120
1.2600 0.8092 0.0118
1.2800 0.8225 0.0135
1.3000 0.8358 0.0141
1.3200 0.8491 0.0158
1.3400 0.8624 0.0176
1.3600 0.8758 0.0173
1.3800 0.8891 0.0172
1.4000 0.9025 0.0215
1.4200 0.9158 0.0210
1.4400 0.9291 0.0228
1.4600 0.9425 0.0222
1.4800 0.9559 0.0235
1.5000 0.9692 0.0237
1.5200 0.9825 0.0245
1.5400 0.9959 0.0253
1.5600 1.0092 0.0261
1.5800 1.0225 0.0320
1.6000 1.0358 0.0309
1.6200 1.0491 0.0317
1.6400 1.0625 0.0343
1.6600 1.0758 0.0359
1.6800 1.0892 0.0348
1.7000 1.1025 0.0367
1.7200 1.1158 0.0382
1.7400 1.1291 0.0382
1.7600 1.1425 0.0422
1.7800 1.1558 0.0431
1.8000 1.1692 0.0442
1.8200 1.1825 0.0482
1.8400 1.1958 0.0469
1.8600 1.2091 0.0486
1.8800 1.2225 0.0509
1.9000 1.2359 0.0515
1.9200 1.2492 0.0510
1.9400 1.2626 0.0547
1.9600 1.2759 0.0559
1.9800 1.2892 0.0584
2.0000 1.3025 0.0591
2.0200 1.3158 0.0622
2.0400 1.3291 0.0593
2.0600 1.3424 0.0633
2.0800 1.3558 0.0644
2.1000 1.3691 0.0651
2.1200 1.3825 0.0688
2.1400 1.3958 0.0691
2.1600 1.4091 0.0686
2.1800 1.4225 0.0728
2.2000 1.4359 0.0732
2.2200 1.4492 0.0738
2.2400 1.4625 0.0752
2.2600 1.4758 0.0766
2.2800 1.4892 0.0768
2.3000 1.5025 0.0781
2.3200 1.5158 0.0807
2.3400 1.5292 0.0791
2.3600 1.5425 0.0822
2.3800 1.5559 0.0835
2.4000 1.5692 0.0840
2.4200 1.5825 0.0874
2.4400 1.5958 0.0880
2.4600 1.6091 0.0882
2.4800 1.6224 0.0910
2.5000 1.6358 0.0949
2.5200 1.6491 0.0935
2.5400 1.6625 0.0954
2.5600 1.6759 0.0962
2.5800 1.6892 0.0950
2.6000 1.7025 0.0971
2.6200 1.7159 0.0988
2.6400 1.7293 0.0988
2.6600 1.7426 0.1014
2.6800 1.7559 0.1024
2.7000 1.7692 0.1027
2.7200 1.7825 0.1059
2.7400 1.7958 0.1069
2.7600 1.8091 0.1065
2.7800 1.8224 0.1070
2.8000 1.8357 0.1086
2.8200 1.8491 0.1099
2.8400 1.8624 0.1121
2.8600 1.8758 0.1126
2.8800 1.8891 0.1121
2.9000 1.9025 0.1124
2.9200 1.9159 0.1144
2.9400 1.9292 0.1139
2.9600 1.9426 0.1180
2.9800 1.9559 0.1183
3.0000 1.9693 0.1193
3.0200 1.9826 0.1204
3.0400 1.9958 0.1218
3.0600 2.0091 0.1195
3.0800 2.0225 0.1215
3.1000 2.0358 0.1234
3.1200 2.0492 0.1228
3.1400 2.0624 0.1253
3.1600 2.0758 0.1282
3.1800 2.0891 0.1269
3.2000 2.1025 0.1293
3.2200 2.1158 0.1281
3.2400 2.1291 0.1278
3.2600 2.1425 0.1310
3.2800 2.1559 0.1328
3.3000 2.1692 0.1306
3.3200 2.1825 0.1340
3.3400 2.1959 0.1354
3.3600 2.2092 0.1353
3.3800 2.2226 0.1357
3.4000 2.2359 0.1391
3.4200 2.2491 0.1374
3.4400 2.2625 0.1386
3.4600 2.2758 0.1380
3.4800 2.2891 0.1392
3.5000 2.3024 0.1435
3.5200 2.3157 0.1427
3.5400 2.3291 0.1432
3.5600 2.3425 0.1448
3.5800 2.3558 0.1443
3.6000 2.3691 0.1445
3.6200 2.3825 0.1449
3.6400 2.3959 0.1470
3.6600 2.4092 0.1473
3.6800 2.4225 0.1490
3.7000 2.4359 0.1503
3.7200 2.4492 0.1503
3.7400 2.4626 0.1512
3.7600 2.4759 0.1520
3.7800 2.4891 0.1523
3.8000 2.5025 0.1546
3.8200 2.5158 0.1571
3.8400 2.5291 0.1557
3.8600 2.5424 0.1567
3.8800 2.5558 0.1587
3.9000 2.5691 0.1591
3.9200 2.5825 0.1608
3.9400 2.5958 0.1618
3.9600 2.6091 0.1602
3.9800 2.6225 0.1628
4.0000 2.6359 0.1628
4.0200 2.6492 0.1643
4.0400 2.6625 0.1649
4.0600 2.6759 0.1666
4.0800 2.6893 0.1659
4.1000 2.7026 0.1652
4.1200 2.7159 0.1677
4.1400 2.7292 0.1684
4.1600 2.7425 0.1688
4.1800 2.7559 0.1714
4.2000 2.7692 0.1711
4.2200 2.7825 0.1714
4.2400 2.7957 0.1729
4.2600 2.8091 0.1729
4.2800 2.8225 0.1741
4.3000 2.8358 0.1761
4.3200 2.8491 0.1754
4.3400 2.8625 0.1793
4.3600 2.8759 0.1801
4.3800 2.8892 0.1806
4.4000 2.9025 0.1798
4.4200 2.9158 0.1816
4.4400 2.9292 0.1789
4.4600 2.9426 0.1837
4.4800 2.9559 0.1842
4.5000 2.9692 0.1835
4.5200 2.9825 0.1841
4.5400 2.9958 0.1873
4.5600 3.0092 0.1848
4.5800 3.0225 0.1896
4.6000 3.0358 0.1891
4.6200 3.0491 0.1884
4.6400 3.0624 0.1897
4.6600 3.0758 0.1921
4.6800 3.0891 0.1913
4.7000 3.1025 0.1902
4.7200 3.1159 0.1932
4.7400 3.1292 0.1910
4.7600 3.1426 0.1950
4.7800 3.1559 0.1951
4.8000 3.1692 0.1929
4.8200 3.1826 0.1944
4.8400 3.1959 0.1975
4.8600 3.2091 0.1982
4.8800 3.2225 0.1995
4.9000 3.2358 0.2015
4.9200 3.2491 0.1978
4.9400 3.2624 0.1999
4.9600 3.2758 0.2017
4.9800 3.2891 0.2027
5.0000 3.3025 0.2028
5.0200 3.3158 0.2041
5.0400 3.3291 0.2017
5.0600 3.3425 0.2050
5.0800 3.3559 0.2065
5.1000 3.3692 0.2065
5.1200 3.3825 0.2071
5.1400 3.3958 0.2078
5.1600 3.4092 0.2084
5.1800 3.4226 0.2079
5.2000 3.4359 0.2111
5.2200 3.4491 0.2108
5.2400 3.4624 0.2116
5.2600 3.4758 0.2114
5.2800 3.4891 0.2143
5.3000 3.5024 0.2146
5.3200 3.5158 0.2178
5.3400 3.5291 0.2138
5.3600 3.5425 0.2169
5.3800 3.5558 0.2158
5.4000 3.5692 0.2160
5.4200 3.5825 0.2181
5.4400 3.5959 0.2195
5.4600 3.6092 0.2179
5.4800 3.6225 0.2202
5.5000 3.6358 0.2195
5.5200 3.6492 0.2213
5.5400 3.6626 0.2215
5.5600 3.6759 0.2237
5.5800 3.6892 0.2217
5.6000 3.7025 0.2227
5.6200 3.7158 0.2228
5.6400 3.7292 0.2254
5.6600 3.7425 0.2248
5.6800 3.7558 0.2274
5.7000 3.7691 0.2269
5.7200 3.7825 0.2273
5.7400 3.7958 0.2292
5.7600 3.8091 0.2281
5.7800 3.8225 0.2281
5.8000 3.8359 0.2298
5.8200 3.8492 0.2288
5.8400 3.8625 0.2306
5.8600 3.8758 0.2326
5.8800 3.8892 0.2320
5.9000 3.9025 0.2349
5.9200 3.9159 0.2350
5.9400 3.9291 0.2348
5.9600 3.9424 0.2361
5.9800 3.9558 0.2350
6.0000 3.9692 0.2356
6.0200 3.9825 0.2373
6.0400 3.9958 0.2395
6.0600 4.0091 0.2380
6.0800 4.0225 0.2377
6.1000 4.0358 0.2405
6.1200 4.0491 0.2383
6.1400 4.0625 0.2414
6.1600 4.0758 0.2414
6.1800 4.0892 0.2417
6.2000 4.1025 0.2423
6.2200 4.1158 0.2435
6.2400 4.1292 0.2424
6.2600 4.1426 0.2439
6.2800 4.1559 0.2465
6.3000 4.1692 0.2463
6.3200 4.1825 0.2461
6.3400 4.1958 0.2465
6.3600 4.2092 0.2480
6.3800 4.2225 0.2492
6.4000 4.2358 0.2497
6.4200 4.2491 0.2474
6.4400 4.2625 0.2492
6.4600 4.2758 0.2511
6.4800 4.2891 0.2508
6.5000 4.3025 0.2501
6.5200 4.3159 0.2518
6.5400 4.3292 0.2525
6.5600 4.3426 0.2524
6.5800 4.3559 0.2538
6.6000 4.3692 0.2544
6.6200 4.3826 0.2565
6.6400 4.3959 0.2583
6.6600 4.4091 0.2575
6.6800 4.4224 0.2568
6.7000 4.4358 0.2592
6.7200 4.4492 0.2585
6.7400 4.4625 0.2598
6.7600 4.4758 0.2587
6.7800 4.4891 0.2607
6.8000 4.5024 0.2578
6.8200 4.5158 0.2600
6.8400 4.5291 0.2597
6.8600 4.5425 0.2601
6.8800 4.5558 0.2629
6.9000 4.5692 0.2634
6.9200 4.5825 0.2631
6.9400 4.5959 0.2673
6.9600 4.6092 0.2632
6.9800 4.6226 0.2648
7.0000 4.6359 0.2659
7.0200 4.6492 0.2676
7.0400 4.6625 0.2662
7.0600 4.6758 0.2670
7.0800 4.6891 0.2669
7.1000 4.7024 0.2688
7.1200 4.7158 0.2689
7.1400 4.7291 0.2716
7.1600 4.7425 0.2694
7.1800 4.7558 0.2693
7.2000 4.7692 0.2695
7.2200 4.7825 0.2691
7.2400 4.7959 0.2716
7.2600 4.8092 0.2715
7.2800 4.8226 0.2727
7.3000 4.8358 0.2734
7.3200 4.8492 0.2740
7.3400 4.8625 0.2733
7.3600 4.8759 0.2761
7.3800 4.8892 0.2758
7.4000 4.9025 0.2780
7.4200 4.9158 0.2790
7.4400 4.9292 0.2763
7.4600 4.9425 0.2772
7.4800 4.9558 0.2769
7.5000 4.9691 0.2788
7.5200 4.9825 0.2773
7.5400 4.9958 0.2802
7.5600 5.0091 0.2803
7.5800 5.0225 0.2784
7.6000 5.0358 0.2821
7.6200 5.0492 0.2813
7.6400 5.0625 0.2823
7.6600 5.0758 0.2826
7.6800 5.0892 0.2830
7.7000 5.1025 0.2825
7.7200 5.1159 0.2848
7.7400 5.1292 0.2844
7.7600 5.1425 0.2853
7.7800 5.1558 0.2856
7.8000 5.1692 0.2847
7.8200 5.1825 0.2847
7.8400 5.1958 0.2855
7.8600 5.2091 0.2883
7.8800 5.2224 0.2880
7.9000 5.2358 0.2887
7.9200 5.2491 0.2895
7.9400 5.2625 0.2877
7.9600 5.2759 0.2901
7.9800 5.2892 0.2924
8.0000 5.3025 0.2929
8.0200 5.3159 0.2922
8.0400 5.3292 0.2926
8.0600 5.3426 0.2922
8.0800 5.3559 0.2931
8.1000 5.3692 0.2923
8.1200 5.3825 0.2921
8.1400 5.3958 0.2925
8.1600 5.4092 0.2939
8.1800 5.4225 0.2946
8.2000 5.4358 0.2970
8.2200 5.4491 0.2963
8.2400 5.4624 0.2956
8.2600 5.4758 0.2965
8.2800 5.4891 0.2986
8.3000 5.5025 0.2968
8.3200 5.5158 0.2979
8.3400 5.5292 0.2976
8.3600 5.5425 0.2978
8.3800 5.5559 0.2982
8.4000 5.5692 0.3015
8.4200 5.5826 0.3011
8.4400 5.5959 0.3008
8.4600 5.6092 0.3004
8.4800 5.6225 0.3017
8.5000 5.6358 0.3031
8.5200 5.6492 0.3052
8.5400 5.6625 0.3032
8.5600 5.6758 0.3050
8.5800 5.6891 0.3052
8.6000 5.7024 0.3055
8.6200 5.7158 0.3052
8.6400 5.7291 0.3055
8.6600 5.7425 0.3055
8.6800 5.7558 0.3066
8.7000 5.7692 0.3086
8.7200 5.7825 0.3073
8.7400 5.7958 0.3079
8.7600 5.8092 0.3106
8.7800 5.8225 0.3088
8.8000 5.8359 0.3117
8.8200 5.8492 0.3103
8.8400 5.8625 0.3089
8.8600 5.8758 0.3109
8.8800 5.8892 0.3103
8.9000 5.9025 0.3126
8.9200 5.9158 0.3126
8.9400 5.9291 0.3147
8.9600 5.9425 0.3115
8.9800 5.9558 0.3144
9.0000 5.9691 0.3129
9.0200 5.9825 0.3146
9.0400 5.9958 0.3124
9.0600 6.0092 0.3133
9.0800 6.0225 0.3135
9.1000 6.0358 0.3161
9.1200 6.0492 0.3142
9.1400 6.0626 0.3148
9.1600 6.0759 0.3160
9.1800 6.0892 0.3163
9.2000 6.1025 0.3180
9.2200 6.1158 0.3185
9.2400 6.1291 0.3194
9.2600 6.1425 0.3183
9.2800 6.1558 0.3206
9.3000 6.1691 0.3187
9.3200 6.1824 0.3192
9.3400 6.1958 0.3202
9.3600 6.2091 0.3205
9.3800 6.2225 0.3213
9.4000 6.2358 0.3224
9.4200 6.2492 0.3228
9.4400 6.2626 0.3221
9.4600 6.2758 0.3232
9.4800 6.2892 0.3252
9.5000 6.3025 0.3277
9.5200 6.3159 0.3253
9.5400 6.3292 0.3269
9.5600 6.3425 0.3230
9.5800 6.3559 0.3237
9.6000 6.3692 0.3251
9.6200 6.3826 0.3249
9.6400 6.3958 0.3255
9.6600 6.4091 0.3261
9.6800 6.4224 0.3278
9.7000 6.4358 0.3280
9.7200 6.4491 0.3299
9.7400 6.4624 0.3281
9.7600 6.4758 0.3291
9.7800 6.4892 0.3295
9.8000 6.5026 0.3303
9.8200 6.5159 0.3298
9.8400 6.5292 0.3310
9.8600 6.5426 0.3290
9.8800 6.5559 0.3313
9.9000 6.5692 0.3305
9.9200 6.5825 0.3307
9.9400 6.5958 0.3322
9.9600 6.6091 0.3314
9.9800 6.6225 0.3346
10.0000 6.6358 0.3324
10.0200 6.6491 0.3350
10.0400 6.6624 0.3347
10.0600 6.6758 0.3355
10.0800 6.6891 0.3366
10.1000 6.7024 0.3362
10.1200 6.7158 0.3361
10.1400 6.7292 0.3373
10.1600 6.7426 0.3353
10.1800 6.7559 0.3370
10.2000 6.7692 0.3369
10.2200 6.7826 0.3385
10.2400 6.7959 0.3385
10.2600 6.8092 0.3401
10.2800 6.8225 0.3409
10.3000 6.8358 0.3402
10.3200 6.8492 0.3407
10.3400 6.8625 0.3388
10.3600 6.8758 0.3393
10.3800 6.8891 0.3404
10.4000 6.9024 0.3422
10.4200 6.9158 0.3412
10.4400 6.9291 0.3430
10.4600 6.9425 0.3425
10.4800 6.9558 0.3457
10.5000 6.9692 0.3427
10.5200 6.9826 0.3440
10.5400 6.9959 0.3410
10.5600 7.0092 0.3452
10.5800 7.0226 0.3439
10.6000 7.0359 0.3445
10.6200 7.0492 0.3452
10.6400 7.0625 0.3451
10.6600 7.0758 0.3458
10.6800 7.0891 0.3473
10.7000 7.1025 0.3458
10.7200 7.1158 0.3474
10.7400 7.1291 0.3455
10.7600 7.1424 0.3479
10.7800 7.1558 0.3494
10.8000 7.1691 0.3488
10.8200 7.1825 0.3495
10.8400 7.1958 0.3491
10.8600 7.2092 0.3492
10.8800 7.2226 0.3500
10.9000 7.2359 0.3517
10.9200 7.2492 0.3502
10.9400 7.2625 0.3524
10.9600 7.2759 0.3513
10.9800 7.2892 0.3527
11.0000 7.3025 0.3526
11.0200 7.3158 0.3548
11.0400 7.3291 0.3525
11.0600 7.3425 0.3528
11.0800 7.3558 0.3522
11.1000 7.3691 0.3553
11.1200 7.3824 0.3548
11.1400 7.3958 0.3539
11.1600 7.4091 0.3564
11.1800 7.4224 0.3562
11.2000 7.4358 0.3563
11.2200 7.4492 0.3572
11.2400 7.4626 0.3554
11.2600 7.4759 0.3569
11.2800 7.4892 0.3573
11.3000 7.5026 0.3587
11.3200 7.5159 0.3577
11.3400 7.5293 0.3580
11.3600 7.5425 0.3584
11.3800 7.5558 0.3593
11.4000 7.5692 0.3602
11.4200 7.5825 0.3602
11.4400 7.5958 0.3587
11.4600 7.6091 0.3590
11.4800 7.6224 0.3616
11.5000 7.6358 0.3617
11.5200 7.6491 0.3625
11.5400 7.6625 0.3634
11.5600 7.6758 0.3632
11.5800 7.6892 0.3630
11.6000 7.7025 0.3632
11.6200 7.7159 0.3616
11.6400 7.7292 0.3635
11.6600 7.7425 0.3648
11.6800 7.7559 0.3630
11.7000 7.7692 0.3669
11.7200 7.7825 0.3638
11.7400 7.7958 0.3654
11.7600 7.8092 0.3635
11.7800 7.8225 0.3673
11.8000 7.8358 0.3662
11.8200 7.8491 0.3687
11.8400 7.8624 0.3677
11.8600 7.8758 0.3665
11.8800 7.8891 0.3676
11.9000 7.9024 0.3695
11.9200 7.9158 0.3679
11.9400 7.9292 0.3681
11.9600 7.9426 0.3706
11.9800 7.9559 0.3696
12.0000 7.9692 0.3705
12.0200 7.9826 0.3703
12.0400 7.9959 0.3715
12.0600 8.0092 0.3705
12.0800 8.0225 0.3720
12.1000 8.0358 0.3724
12.1200 8.0491 0.3733
12.1400 8.0625 0.3722
12.1600 8.0758 0.3728
12.1800 8.0891 0.3724
12.2000 8.1024 0.3713
12.2200 8.1158 0.3732
12.2400 8.1292 0.3733
12.2600 8.1425 0.3729
12.2800 8.1558 0.3733
12.3000 8.1692 0.3749
12.3200 8.1826 0.3736
12.3400 8.1959 0.3769
12.3600 8.2092 0.3747
12.3800 8.2225 0.3765
12.4000 8.2359 0.3749
12.4200 8.2492 0.3752
12.4400 8.2625 0.3763
12.4600 8.2758 0.3765
12.4800 8.2891 0.3785
12.5000 8.3025 0.3792
12.5200 8.3158 0.3802
12.5400 8.3291 0.3776
12.5600 8.3424 0.3805
12.5800 8.3558 0.3778
12.6000 8.3692 0.3807
12.6200 8.3825 0.3797
12.6400 8.3958 0.3820
12.6600 8.4092 0.3791
12.6800 8.4226 0.3830
12.7000 8.4359 0.3825
12.7200 8.4492 0.3812
12.7400 8.4625 0.3826
12.7600 8.4759 0.3827
12.7800 8.4893 0.3849
12.8000 8.5025 0.3835
12.8200 8.5158 0.3844
12.8400 8.5291 0.3835
12.8600 8.5425 0.3849
12.8800 8.5558 0.3852
12.9000 8.5691 0.3842
12.9200 8.5824 0.3856
12.9400 8.5958 0.3854
12.9600 8.6091 0.3856
12.9800 8.6225 0.3854
13.0000 8.6358 0.3858
13.0200 8.6492 0.3844
13.0400 8.6625 0.3863
13.0600 8.6759 0.3877
13.0800 8.6892 0.3881
13.1000 8.7025 0.3886
13.1200 8.7159 0.3884
13.1400 8.7292 0.3888
13.1600 8.7425 0.3903
13.1800 8.7558 0.3903
13.2000 8.7691 0.3899
13.2200 8.7825 0.3924
13.2400 8.7958 0.3915
13.2600 8.8091 0.3910
13.2800 8.8224 0.3911
13.3000 8.8358 0.3912
13.3200 8.8491 0.3900
13.3400 8.8625 0.3929
13.3600 8.8758 0.3929
13.3800 8.8892 0.3920
13.4000 8.9025 0.3929
13.4200 8.9159 0.3934
13.4400 8.9292 0.3909
13.4600 8.9425 0.3951
13.4800 8.9559 0.3947
13.5000 8.9692 0.3942
13.5200 8.9825 0.3953
13.5400 8.9958 0.3941
13.5600 9.0091 0.3921
13.5800 9.0225 0.3950
13.6000 9.0358 0.3944
13.6200 9.0491 0.3959
13.6400 9.0624 0.3965
13.6600 9.0758 0.3988
13.6800 9.0891 0.3963
13.7000 9.1025 0.3963
13.7200 9.1158 0.3986
13.7400 9.1292 0.3971
13.7600 9.1426 0.3979
13.7800 9.1559 0.3992
13.8000 9.1692 0.3997
13.8200 9.1826 0.3990
13.8400 9.1959 0.4009
13.8600 9.2092 0.3986
13.8800 9.2225 0.4001
13.9000 9.2358 0.3984
13.9200 9.2491 0.3987
13.9400 9.2625 0.4017
13.9600 9.2758 0.4034
13.9800 9.2891 0.4014
14.0000 9.3024 0.4019
14.0200 9.3157 0.4037
14.0400 9.3291 0.4019
14.0600 9.3424 0.4032
14.0800 9.3558 0.4028
14.1000 9.3692 0.4041
14.1200 9.3826 0.4036
14.1400 9.3959 0.4053
14.1600 9.4092 0.4037
14.1800 9.4225 0.4037
14.2000 9.4359 0.4036
14.2200 9.4492 0.4041
14.2400 9.4625 0.4062
14.2600 9.4758 0.4084
14.2800 9.4891 0.4061
14.3000 9.5025 0.4076
14.3200 9.5158 0.4073
14.3400 9.5291 0.4070
14.3600 9.5424 0.4095
14.3800 9.5558 0.4103
14.4000 9.5691 0.4088
14.4200 9.5825 0.4094
14.4400 9.5958 0.4076
14.4600 9.6092 0.4079
14.4800 9.6226 0.4101
14.5000 9.6359 0.4099
14.5200 9.6492 0.4075
14.5400 9.6625 0.4093
14.5600 9.6758 0.4108
14.5800 9.6892 0.4094
14.6000 9.7025 0.4124
14.6200 9.7159 0.4126
14.6400 9.7292 0.4116
14.6600 9.7425 0.4145
14.6800 9.7558 0.4114
14.7000 9.7691 0.4114
14.7200 9.7825 0.4113
14.7400 9.7958 0.4136
14.7600 9.8091 0.4121
14.7800 9.8224 0.4122
14.8000 9.8358 0.4140
14.8200 9.8491 0.4140
14.8400 9.8625 0.4152
14.8600 9.8759 0.4145
14.8800 9.8892 0.4139
14.9000 9.9025 0.4153
14.9200 9.9158 0.4192
14.9400 9.9292 0.4150
14.9600 9.9425 0.4176
14.9800 9.9558 0.4165
15.0000 9.9692 0.4173
15.0200 9.9825 0.4156
15.0400 9.9959 0.4191
15.0600 10.0092 0.4163
15.0800 10.0224 0.4194
15.1000 10.0358 0.4196
15.1200 10.0491 0.4167
15.1400 10.0625 0.4182
15.1600 10.0758 0.4169
15.1800 10.0892 0.4187
15.2000 10.1025 0.4194
15.2200 10.1159 0.4221
15.2400 10.1292 0.4216
15.2600 10.1425 0.4222
15.2800 10.1559 0.4216
15.3000 10.1692 0.4204
15.3200 10.1826 0.4198
15.3400 10.1959 0.4218
15.3600 10.2092 0.4207
15.3800 10.2225 0.4225
15.4000 10.2358 0.4235
15.4200 10.2491 0.4231
15.4400 10.2624 0.4260
15.4600 10.2758 0.4244
15.4800 10.2891 0.4237
15.5000 10.3025 0.4241
15.5200 10.3158 0.4255
15.5400 10.3291 0.4256
15.5600 10.3425 0.4262
15.5800 10.3558 0.4264
15.6000 10.3692 0.4242
15.6200 10.3825 0.4260
15.6400 10.3959 0.4253
15.6600 10.4093 0.4254
15.6800 10.4226 0.4283
15.7000 10.4359 0.4300
15.7200 10.4492 0.4270
15.7400 10.4625 0.4299
15.7600 10.4758 0.4285
15.7800 10.4891 0.4292
15.8000 10.5024 0.4291
15.8200 10.5157 0.4293
15.8400 10.5291 0.4267
15.8600 10.5424 0.4288
15.8800 10.5558 0.4304
15.9000 10.5691 0.4296
15.9200 10.5825 0.4301
15.9400 10.5959 0.4316
15.9600 10.6092 0.4305
15.9800 10.6225 0.4316
16.0000 10.6358 0.4312
16.0200 10.6492 0.4309
16.0400 10.6626 0.4314
16.0600 10.6758 0.4328
16.0800 10.6892 0.4323
16.1000 10.7025 0.4340
16.1200 10.7159 0.4342
16.1400 10.7292 0.4334
16.1600 10.7425 0.4324
16.1800 10.7558 0.4348
16.2000 10.7691 0.4332
16.2200 10.7825 0.4361
16.2400 10.7958 0.4347
16.2600 10.8091 0.4362
16.2800 10.8225 0.4339
16.3000 10.8358 0.4361
16.3200 10.8492 0.4360
16.3400 10.8625 0.4377
16.3600 10.8759 0.4376
16.3800 10.8892 0.4357
16.4000 10.9025 0.4353
16.4200 10.9158 0.4382
16.4400 10.9291 0.4370
16.4600 10.9425 0.4392
16.4800 10.9558 0.4411
16.5000 10.9691 0.4390
16.5200 10.9824 0.4391
16.5400 10.9958 0.4399
16.5600 11.0091 0.4389
16.5800 11.0225 0.4395
16.6000 11.0358 0.4403
16.6200 11.0491 0.4413
16.6400 11.0625 0.4405
16.6600 11.0759 0.4416
16.6800 11.0892 0.4407
16.7000 11.1025 0.4420
16.7200 11.1158 0.4430
16.7400 11.1292 0.4419
16.7600 11.1425 0.4426
16.7800 11.1558 0.4447
16.8000 11.1692 0.4438
16.8200 11.1825 0.4420
16.8400 11.1959 0.4435
16.8600 11.2092 0.4443
16.8800 11.2224 0.4449
16.9000 11.2358 0.4464
16.9200 11.2491 0.4463
16.9400 11.2625 0.4446
16.9600 11.2758 0.4466
16.9800 11.2891 0.4442
17.0000 11.3025 0.4447
17.0200 11.3159 0.4452
17.0400 11.3293 0.4457
17.0600 11.3425 0.4461
17.0800 11.3559 0.4467
17.1000 11.3692 0.4469
17.1200 11.3826 0.4466
17.1400 11.3959 0.4488
17.1600 11.4092 0.4479
17.1800 11.4225 0.4484
17.2000 11.4358 0.4512
17.2200 11.4492 0.4489
17.2400 11.4625 0.4483
17.2600 11.4758 0.4503
17.2800 11.4891 0.4495
17.3000 11.5024 0.4502
17.3200 11.5158 0.4511
17.3400 11.5291 0.4505
17.3600 11.5425 0.4508
17.3800 11.5559 0.4490
17.4000 11.5692 0.4506
17.4200 11.5825 0.4500
17.4400 11.5959 0.4535
17.4600 11.6093 0.4534
17.4800 11.6226 0.4530
17.5000 11.6359 0.4545
17.5200 11.6492 0.4532
17.5400 11.6625 0.4533
17.5600 11.6758 0.4540
17.5800 11.6892 0.4521
17.6000 11.7025 0.4546
17.6200 11.7158 0.4561
17.6400 11.7291 0.4558
17.6600 11.7425 0.4534
17.6800 11.7558 0.4552
17.7000 11.7691 0.4543
17.7200 11.7825 0.4568
17.7400 11.7958 0.4573
17.7600 11.8092 0.4558
17.7800 11.8225 0.4546
17.8000 11.8359 0.4582
17.8200 11.8492 0.4564
17.8400 11.8626 0.4575
17.8600 11.8758 0.4580
17.8800 11.8891 0.4573
17.9000 11.9025 0.4578
17.9200 11.9158 0.4596
17.9400 11.9292 0.4593
17.9600 11.9425 0.4579
17.9800 11.9557 0.4602
18.0000 11.9691 0.4590
18.0200 11.9825 0.4573
18.0400 11.9958 0.4604
18.0600 12.0092 0.4595
18.0800 12.0225 0.4611
18.1000 12.0359 0.4634
18.1200 12.0492 0.4625
18.1400 12.0625 0.4617
18.1600 12.0759 0.4607
18.1800 12.0892 0.4608
18.2000 12.1025 0.4610
18.2200 12.1158 0.4636
18.2400 12.1291 0.4626
18.2600 12.1425 0.4618
18.2800 12.1558 0.4639
18.3000 12.1692 0.4643
18.3200 12.1825 0.4649
18.3400 12.1958 0.4690
18.3600 12.2091 0.4637
18.3800 12.2225 0.4620
18.4000 12.2358 0.4643
18.4200 12.2491 0.4655
18.4400 12.2625 0.4656
18.4600 12.2759 0.4676
18.4800 12.2892 0.4670
18.5000 12.3025 0.4653
18.5200 12.3159 0.4668
18.5400 12.3292 0.4686
18.5600 12.3426 0.4663
18.5800 12.3559 0.4709
18.6000 12.3692 0.4684
18.6200 12.3825 0.4680
18.6400 12.3958 0.4702
18.6600 12.4092 0.4696
18.6800 12.4224 0.4680
18.7000 12.4357 0.4690
18.7200 12.4490 0.4705
18.7400 12.4624 0.4680
18.7600 12.4758 0.4723
18.7800 12.4891 0.4709
18.8000 12.5025 0.4704
18.8200 12.5159 0.4721
18.8400 12.5292 0.4713
18.8600 12.5425 0.4690
18.8800 12.5559 0.4732
18.9000 12.5692 0.4718
18.9200 12.5825 0.4722
18.9400 12.5959 0.4739
18.9600 12.6091 0.4739
18.9800 12.6225 0.4718
19.0000 12.6358 0.4735
19.0200 12.6492 0.4742
19.0400 12.6625 0.4736
19.0600 12.6758 0.4756
19.0800 12.6891 0.4737
19.1000 12.7024 0.4732
19.1200 12.7158 0.4743
19.1400 12.7291 0.4770
19.1600 12.7425 0.4747
19.1800 12.7559 0.4776
19.2000 12.7692 0.4772
19.2200 12.7826 0.4760
19.2400 12.7959 0.4774
19.2600 12.8092 0.4781
19.2800 12.8226 0.4765
19.3000 12.8359 0.4780
19.3200 12.8492 0.4794
19.3400 12.8625 0.4776
19.3600 12.8758 0.4797
19.3800 12.8892 0.4799
19.4000 12.9024 0.4787
19.4200 12.9158 0.4800
19.4400 12.9291 0.4780
19.4600 12.9425 0.4777
19.4800 12.9558 0.4793
19.5000 12.9691 0.4809
19.5200 12.9825 0.4809
19.5400 12.9959 0.4821
19.5600 13.0092 0.4815
19.5800 13.0225 0.4812
19.6000 13.0358 0.4810
19.6200 13.0492 0.4822
19.6400 13.0625 0.4798
19.6600 13.0759 0.4841
19.6800 13.0892 0.4822
19.7000 13.1024 0.4815
19.7200 13.1158 0.4836
19.7400 13.1291 0.4834
19.7600 13.1424 0.4826
19.7800 13.1558 0.4832
19.8000 13.1691 0.4849
19.8200 13.1825 0.4826
19.8400 13.1958 0.4854
19.8600 13.2091 0.4855
19.8800 13.2225 0.4849
19.9000 13.2359 0.4877
19.9200 13.2492 0.4887
19.9400 13.2625 0.4860
19.9600 13.2758 0.4865
19.9800 13.2892 0.4849
20.0000 13.3026 0.4859
20.0200 13.3159 0.4885
20.0400 13.3292 0.4884
20.0600 13.3425 0.4866
20.0800 13.3558 0.4885
20.1000 13.3692 0.4876
20.1200 13.3825 0.4883
20.1400 13.3958 0.4881
20.1600 13.4091 0.4911
20.1800 13.4224 0.4881
20.2000 13.4358 0.4914
20.2200 13.4491 0.4915
20.2400 13.4625 0.4906
20.2600 13.4759 0.4894
20.2800 13.4892 0.4902
20.3000 13.5025 0.4889
20.3200 13.5158 0.4898
20.3400 13.5292 0.4921
20.3600 13.5426 0.4905
20.3800 13.5559 0.4937
20.4000 13.5691 0.4945
20.4200 13.5825 0.4921
20.4400 13.5958 0.4944
20.4600 13.6092 0.4959
20.4800 13.6225 0.4945
20.5000 13.6358 0.4944
20.5200 13.6491 0.4930
20.5400 13.6624 0.4930
20.5600 13.6758 0.4960
20.5800 13.6891 0.4966
20.6000 13.7025 0.4953
20.6200 13.7159 0.4946
20.6400 13.7292 0.4959
20.6600 13.7425 0.4950
20.6800 13.7559 0.4974
20.7000 13.7692 0.4989
20.7200 13.7826 0.4945
20.7400 13.7959 0.4965
20.7600 13.8092 0.4978
20.7800 13.8225 0.4972
20.8000 13.8358 0.4989
20.8200 13.8492 0.4994
20.8400 13.8625 0.4996
20.8600 13.8758 0.5007
20.8800 13.8891 0.5012
20.9000 13.9024 0.4984
20.9200 13.9158 0.4989
20.9400 13.9291 0.5009
20.9600 13.9425 0.4992
20.9800 13.9559 0.5021
21.0000 13.9692 0.5000
21.0200 13.9826 0.4990
21.0400 13.9959 0.4992
21.0600 14.0092 0.5018
21.0800 14.0226 0.5008
21.1000 14.0359 0.5036
21.1200 14.0492 0.5039
21.1400 14.0624 0.5034
21.1600 14.0758 0.5042
21.1800 14.0892 0.5052
21.2000 14.1025 0.5017
21.2200 14.1158 0.5044
21.2400 14.1291 0.5042
21.2600 14.1424 0.5032
21.2800 14.1558 0.5037
21.3000 14.1691 0.5061
21.3200 14.1825 0.5055
21.3400 14.1958 0.5077
21.3600 14.2092 0.5074
21.3800 14.2225 0.5051
21.4000 14.2358 0.5069
21.4200 14.2492 0.5081
21.4400 14.2626 0.5079
21.4600 14.2759 0.5077
21.4800 14.2892 0.5077
21.5000 14.3025 0.5069
21.5200 14.3158 0.5074
21.5400 14.3291 0.5084
21.5600 14.3424 0.5070
21.5800 14.3558 0.5102
21.6000 14.3691 0.5095
21.6200 14.3825 0.5058
21.6400 14.3958 0.5073
21.6600 14.4092 0.5102
21.6800 14.4225 0.5100
21.7000 14.4359 0.5089
21.7200 14.4492 0.5104
21.7400 14.4625 0.5115
21.7600 14.4758 0.5138
21.7800 14.4892 0.5150
21.8000 14.5025 0.5130
21.8200 14.5159 0.5134
21.8400 14.5292 0.5132
21.8600 14.5425 0.5117
21.8800 14.5558 0.5109
21.9000 14.5692 0.5132
21.9200 14.5825 0.5140
21.9400 14.5958 0.5133
21.9600 14.6091 0.5153
21.9800 14.6225 0.5122
22.0000 14.6358 0.5126
22.0200 14.6491 0.5135
22.0400 14.6625 0.5134
22.0600 14.6758 0.5141
22.0800 14.6892 0.5162
22.1000 14.7025 0.5151
22.1200 14.7158 0.5168
22.1400 14.7292 0.5184
22.1600 14.7425 0.5177
22.1800 14.7559 0.5184
22.2000 14.7692 0.5186
22.2200 14.7825 0.5177
22.2400 14.7958 0.5169
22.2600 14.8092 0.5201
22.2800 14.8225 0.5188
22.3000 14.8358 0.5181
22.3200 14.8491 0.5185
22.3400 14.8624 0.5160
22.3600 14.8758 0.5187
22.3800 14.8891 0.5215
22.4000 14.9025 0.5209
22.4200 14.9158 0.5211
22.4400 14.9292 0.5218
22.4600 14.9425 0.5197
22.4800 14.9559 0.5203
22.5000 14.9692 0.5220
22.5200 14.9825 0.5200
22.5400 14.9959 0.5209
22.5600 15.0092 0.5229
22.5800 15.0225 0.5234
22.6000 15.0358 0.5248
22.6200 15.0492 0.5247
22.6400 15.0625 0.5208
22.6600 15.0758 0.5230
22.6800 15.0891 0.5241
22.7000 15.1024 0.5218
22.7200 15.1157 0.5237
22.7400 15.1291 0.5258
22.7600 15.1424 0.5245
22.7800 15.1558 0.5227
22.8000 15.1692 0.5254
22.8200 15.1825 0.5257
22.8400 15.1959 0.5260
22.8600 15.2092 0.5275
22.8800 15.2226 0.5262
22.9000 15.2359 0.5260
22.9200 15.2492 0.5280
22.9400 15.2625 0.5272
22.9600 15.2758 0.5274
22.9800 15.2892 0.5262
23.0000 15.3025 0.5253
23.0200 15.3158 0.5268
23.0400 15.3291 0.5314
23.0600 15.3424 0.5316
23.0800 15.3558 0.5296
23.1000 15.3691 0.5294
23.1200 15.3825 0.5299
23.1400 15.3958 0.5304
23.1600 15.4092 0.5305
23.1800 15.4226 0.5285
23.2000 15.4359 0.5297
23.2200 15.4492 0.5322
23.2400 15.4625 0.5305
23.2600 15.4759 0.5295
23.2800 15.4892 0.5331
23.3000 15.5025 0.5334
23.3200 15.5158 0.5313
23.3400 15.5292 0.5352
23.3600 15.5425 0.5336
23.3800 15.5558 0.5357
23.4000 15.5691 0.5352
23.4200 15.5824 0.5332
23.4400 15.5958 0.5326
23.4600 15.6091 0.5368
23.4800 15.6225 0.5355
23.5000 15.6358 0.5361
23.5200 15.6492 0.5366
23.5400 15.6625 0.5369
23.5600 15.6758 0.5359
23.5800 15.6892 0.5375
23.6000 15.7025 0.5364
23.6200 15.7159 0.5364
23.6400 15.7292 0.5377
23.6600 15.7425 0.5377
23.6800 15.7558 0.5375
23.7000 15.7691 0.5405
23.7200 15.7825 0.5369
23.7400 15.7958 0.5368
23.7600 15.8091 0.5384
23.7800 15.8224 0.5378
23.8000 15.8358 0.5378
23.8200 15.8491 0.5390
23.8400 15.8625 0.5412
23.8600 15.8758 0.5392
23.8800 15.8892 0.5422
23.9000 15.9025 0.5412
23.9200 15.9159 0.5409
23.9400 15.9292 0.5431
23.9600 15.9425 0.5417
23.9800 15.9559 0.5405
24.0000 15.9692 0.5425
24.0200 15.9825 0.5413
24.0400 15.9958 0.5430
24.0600 16.0092 0.5443
24.0800 16.0225 0.5456
24.1000 16.0358 0.5422
24.1200 16.0491 0.5442
24.1400 16.0624 0.5443
24.1600 16.0758 0.5437
24.1800 16.0891 0.5452
24.2000 16.1024 0.5470
24.2200 16.1158 0.5470
24.2400 16.1292 0.5478
24.2600 16.1426 0.5438
24.2800 16.1559 0.5457
24.3000 16.1692 0.5477
24.3200 16.1825 0.5477
24.3400 16.1959 0.5473
24.3600 16.2093 0.5490
24.3800 16.2226 0.5481
24.4000 16.2358 0.5468
24.4200 16.2492 0.5489
24.4400 16.2625 0.5502
24.4600 16.2758 0.5488
24.4800 16.2891 0.5491
24.5000 16.3024 0.5478
24.5200 16.3158 0.5482
24.5400 16.3291 0.5484
24.5600 16.3424 0.5511
24.5800 16.3558 0.5496
24.6000 16.3692 0.5520
24.6200 16.3826 0.5530
24.6400 16.3959 0.5514
24.6600 16.4092 0.5524
24.6800 16.4226 0.5503
24.7000 16.4359 0.5502
24.7200 16.4492 0.5505
24.7400 16.4625 0.5515
24.7600 16.4758 0.5506
24.7800 16.4891 0.5535
24.8000 16.5025 0.5534
24.8200 16.5158 0.5550
24.8400 16.5291 0.5558
24.8600 16.5424 0.5555
24.8800 16.5558 0.5526
24.9000 16.5691 0.5535
24.9200 16.5825 0.5547
24.9400 16.5958 0.5538
24.9600 16.6092 0.5548
24.9800 16.6226 0.5576
25.0000 16.6359 0.5571
25.0200 16.6492 0.5571
25.0400 16.6625 0.5573
25.0600 16.6759 0.5559
25.0800 16.6892 0.5587
25.1000 16.7025 0.5588
25.1200 16.7158 0.5592
25.1400 16.7291 0.5601
25.1600 16.7425 0.5592
25.1800 16.7558 0.5565
25.2000 16.7691 0.5576
25.2200 16.7824 0.5600
25.2400 16.7958 0.5582
25.2600 16.8091 0.5608
25.2800 16.8225 0.5599
25.3000 16.8358 0.5590
25.3200 16.8492 0.5614
25.3400 16.8626 0.5620
25.3600 16.8759 0.5616
25.3800 16.8892 0.5624
25.4000 16.9025 0.5643
25.4200 16.9159 0.5628
25.4400 16.9292 0.5641
25.4600 16.9425 0.5650
25.4800 16.9558 0.5635
25.5000 16.9691 0.5649
25.5200 16.9825 0.5641
25.5400 16.9958 0.5616
25.5600 17.0091 0.5660
25.5800 17.0224 0.5675
25.6000 17.0358 0.5658
25.6200 17.0491 0.5653
25.6400 17.0624 0.5652
25.6600 17.0758 0.5647
25.6800 17.0892 0.5669
25.7000 17.1026 0.5671
25.7200 17.1159 0.5661
25.7400 17.1292 0.5674
25.7600 17.1425 0.5656
25.7800 17.1559 0.5674
25.8000 17.1693 0.5699
25.8200 17.1825 0.5720
25.8400 17.1958 0.5684
25.8600 17.2092 0.5713
25.8800 17.2225 0.5680
25.9000 17.2358 0.5695
25.9200 17.2491 0.5706
25.9400 17.2624 0.5694
25.9600 17.2758 0.5698
25.9800 17.2891 0.5716
26.0000 17.3025 0.5734
26.0200 17.3158 0.5709
26.0400 17.3292 0.5738
26.0600 17.3425 0.5726
26.0800 17.3559 0.5714
26.1000 17.3692 0.5712
26.1200 17.3825 0.5716
26.1400 17.3959 0.5711
26.1600 17.4092 0.5737
26.1800 17.4225 0.5743
26.2000 17.4358 0.5743
26.2200 17.4491 0.5737
26.2400 17.4625 0.5749
26.2600 17.4758 0.5743
26.2800 17.4891 0.5740
26.3000 17.5024 0.5762
26.3200 17.5158 0.5748
26.3400 17.5291 0.5769
26.3600 17.5424 0.5780
26.3800 17.5558 0.5746
26.4000 17.5692 0.5766
26.4200 17.5825 0.5761
26.4400 17.5959 0.5772
26.4600 17.6092 0.5767
26.4800 17.6225 0.5788
26.5000 17.6359 0.5771
26.5200 17.6493 0.5784
26.5400 17.6626 0.5804
26.5600 17.6758 0.5781
26.5800 17.6891 0.5799
26.6000 17.7025 0.5804
26.6200 17.7158 0.5821
26.6400 17.7291 0.5822
26.6600 17.7424 0.5825
26.6800 17.7558 0.5800
26.7000 17.7691 0.5813
26.7200 17.7825 0.5812
26.7400 17.7958 0.5819
26.7600 17.8092 0.5825
26.7800 17.8226 0.5823
26.8000 17.8359 0.5826
26.8200 17.8492 0.5835
26.8400 17.8625 0.5845
26.8600 17.8759 0.5825
26.8800 17.8892 0.5843
26.9000 17.9025 0.5844
26.9200 17.9158 0.5863
26.9400 17.9291 0.5848
26.9600 17.9425 0.5847
26.9800 17.9558 0.5841
27.0000 17.9691 0.5865
27.0200 17.9824 0.5856
27.0400 17.9958 0.5864
27.0600 18.0091 0.5841
27.0800 18.0225 0.5882
27.1000 18.0358 0.5873
27.1200 18.0492 0.5876
27.1400 18.0625 0.5880
27.1600 18.0759 0.5881
27.1800 18.0892 0.5883
27.2000 18.1025 0.5901
27.2200 18.1159 0.5882
27.2400 18.1292 0.5890
27.2600 18.1425 0.5893
27.2800 18.1558 0.5912
27.3000 18.1691 0.5910
27.3200 18.1825 0.5917
27.3400 18.1958 0.5887
27.3600 18.2091 0.5908
27.3800 18.2224 0.5918
27.4000 18.2358 0.5904
27.4200 18.2492 0.5909
27.4400 18.2625 0.5932
27.4600 18.2758 0.5923
27.4800 18.2892 0.5940
27.5000 18.3025 0.5939
27.5200 18.3159 0.5943
27.5400 18.3292 0.5954
27.5600 18.3425 0.5962
27.5800 18.3559 0.5955
27.6000 18.3692 0.5956
27.6200 18.3825 0.5979
27.6400 18.3958 0.5964
27.6600 18.4091 0.5972
27.6800 18.4225 0.5965
27.7000 18.4358 0.5971
27.7200 18.4492 0.5973
27.7400 18.4625 0.6000
27.7600 18.4758 0.5956
27.7800 18.4892 0.5986
27.8000 18.5025 0.5970
27.8200 18.5158 0.5990
27.8400 18.5291 0.5992
27.8600 18.5425 0.5988
27.8800 18.5559 0.5967
27.9000 18.5692 0.5989
27.9200 18.5825 0.6000
27.9400 18.5959 0.6020
27.9600 18.6092 0.6014
27.9800 18.6226 0.6025
28.0000 18.6358 0.6020
28.0200 18.6491 0.6007
28.0400 18.6625 0.6001
28.0600 18.6758 0.6006
28.0800 18.6891 0.6021
28.1000 18.7024 0.6037
28.1200 18.7158 0.6036
28.1400 18.7291 0.6028
28.1600 18.7425 0.6041
28.1800 18.7558 0.6029
28.2000 18.7692 0.6048
28.2200 18.7826 0.6049
28.2400 18.7959 0.6036
28.2600 18.8092 0.6023
28.2800 18.8225 0.6041
28.3000 18.8359 0.6066
28.3200 18.8492 0.6063
28.3400 18.8625 0.6068
28.3600 18.8758 0.6074
28.3800 18.8891 0.6073
28.4000 18.9025 0.6089
28.4200 18.9158 0.6091
28.4400 18.9291 0.6083
28.4600 18.9424 0.6098
28.4800 18.9558 0.6075
28.5000 18.9691 0.6071
28.5200 18.9825 0.6088
28.5400 18.9958 0.6093
28.5600 19.0091 0.6100
28.5800 19.0225 0.6088
28.6000 19.0359 0.6083
28.6200 19.0492 0.6090
28.6400 19.0625 0.6099
28.6600 19.0759 0.6123
28.6800 19.0892 0.6120
28.7000 19.1026 0.6142
28.7200 19.1158 0.6138
28.7400 19.1291 0.6124
28.7600 19.1425 0.6129
28.7800 19.1558 0.6119
28.8000 19.1691 0.6130
28.8200 19.1824 0.6132
28.8400 19.1958 0.6128
28.8600 19.2091 0.6142
28.8800 19.2225 0.6159
28.9000 19.2358 0.6172
28.9200 19.2492 0.6152
28.9400 19.2625 0.6164
28.9600 19.2759 0.6169
28.9800 19.2892 0.6153
29.0000 19.3025 0.6174
29.0200 19.3158 0.6147
29.0400 19.3292 0.6163
29.0600 19.3425 0.6179
29.0800 19.3559 0.6195
29.1000 19.3692 0.6177
29.1200 19.3825 0.6194
29.1400 19.3958 0.6180
29.1600 19.4091 0.6184
29.1800 19.4224 0.6189
29.2000 19.4358 0.6199
29.2200 19.4491 0.6179
29.2400 19.4625 0.6190
29.2600 19.4758 0.6191
29.2800 19.4891 0.6194
29.3000 19.5025 0.6203
29.3200 19.5159 0.6219
29.3400 19.5292 0.6224
29.3600 19.5425 0.6247
29.3800 19.5558 0.6231
29.4000 19.5692 0.6241
29.4200 19.5825 0.6222
29.4400 19.5958 0.6243
29.4600 19.6091 0.6223
29.4800 19.6225 0.6242
29.5000 19.6359 0.6251
29.5200 19.6492 0.6257
29.5400 19.6624 0.6242
29.5600 19.6758 0.6251
29.5800 19.6891 0.6246
29.6000 19.7025 0.6255
29.6200 19.7158 0.6260
29.6400 19.7291 0.6257
29.6600 19.7425 0.6261
29.6800 19.7559 0.6272
29.7000 19.7692 0.6264
29.7200 19.7825 0.6269
29.7400 19.7959 0.6279
29.7600 19.8092 0.6285
29.7800 19.8226 0.6298
29.8000 19.8358 0.6295
29.8200 19.8491 0.6286
29.8400 19.8625 0.6297
29.8600 19.8758 0.6296
29.8800 19.8892 0.6320
29.9000 19.9025 0.6316
29.9200 19.9158 0.6300
29.9400 19.9291 0.6332
29.9600 19.9425 0.6331
29.9800 19.9558 0.6335
30.0000 19.9691 0.6330
30.0200 19.9825 0.6334
30.0400 19.9959 0.6342
30.0600 20.0092 0.6321
30.0800 20.0225 0.6338
30.1000 20.0359 0.6362
30.1200 20.0492 0.6353
30.1400 20.0626 0.6350
30.1600 20.0759 0.6357
30.1800 20.0892 0.6351
30.2000 20.1025 0.6359
30.2200 20.1159 0.6356
30.2400 20.1291 0.6348
30.2600 20.1424 0.6352
30.2800 20.1557 0.6374
30.3000 20.1691 0.6372
30.3200 20.1825 0.6390
30.3400 20.1958 0.6396
30.3600 20.2091 0.6382
30.3800 20.2225 0.6397
30.4000 20.2359 0.6387
30.4200 20.2492 0.6388
30.4400 20.2625 0.6397
30.4600 20.2758 0.6434
30.4800 20.2892 0.6406
30.5000 20.3025 0.6422
30.5200 20.3158 0.6404
30.5400 20.3291 0.6400
30.5600 20.3425 0.6387
30.5800 20.3558 0.6406
30.6000 20.3692 0.6398
30.6200 20.3825 0.6419
30.6400 20.3958 0.6421
30.6600 20.4091 0.6439
30.6800 20.4225 0.6435
30.7000 20.4358 0.6449
30.7200 20.4491 0.6436
30.7400 20.4625 0.6432
30.7600 20.4759 0.6452
30.7800 20.4892 0.6442
30.8000 20.5025 0.6440
30.8200 20.5159 0.6461
30.8400 20.5292 0.6448
30.8600 20.5426 0.6464
30.8800 20.5559 0.6479
30.9000 20.5691 0.6473
30.9200 20.5825 0.6494
30.9400 20.5958 0.6499
30.9600 20.6091 0.6500
30.9800 20.6224 0.6498
31.0000 20.6358 0.6475
31.0200 20.6491 0.6498
31.0400 20.6625 0.6488
31.0600 20.6758 0.6497
31.0800 20.6892 0.6505
31.1000 20.7025 0.6520
31.1200 20.7159 0.6513
31.1400 20.7292 0.6505
31.1600 20.7425 0.6508
31.1800 20.7558 0.6513
31.2000 20.7692 0.6503
31.2200 20.7825 0.6520
31.2400 20.7958 0.6526
31.2600 20.8091 0.6544
31.2800 20.8225 0.6540
31.3000 20.8359 0.6532
31.3200 20.8492 0.6545
31.3400 20.8625 0.6557
31.3600 20.8758 0.6570
31.3800 20.8891 0.6552
31.4000 20.9025 0.6575
31.4200 20.9158 0.6560
31.4400 20.9291 0.6580
31.4600 20.9425 0.6578
31.4800 20.9559 0.6581
31.5000 20.9693 0.6560
31.5200 20.9826 0.6568
31.5400 20.9959 0.6569
31.5600 21.0092 0.6600
31.5800 21.0226 0.6602
31.6000 21.0359 0.6608
31.6200 21.0492 0.6592
31.6400 21.0625 0.6594
31.6600 21.0758 0.6600
31.6800 21.0891 0.6596
31.7000 21.1024 0.6611
31.7200 21.1157 0.6614
31.7400 21.1291 0.6624
31.7600 21.1424 0.6604
31.7800 21.1558 0.6632
31.8000 21.1691 0.6624
31.8200 21.1825 0.6632
31.8400 21.1959 0.6633
31.8600 21.2092 0.6640
31.8800 21.2226 0.6641
31.9000 21.2359 0.6645
31.9200 21.2492 0.6643
31.9400 21.2626 0.6661
31.9600 21.2759 0.6670
31.9800 21.2892 0.6659
32.0000 21.3025 0.6668
32.0200 21.3158 0.6664
32.0400 21.3292 0.6661
32.0600 21.3425 0.6667
32.0800 21.3558 0.6665
32.1000 21.3691 0.6686
32.1200 21.3825 0.6693
32.1400 21.3958 0.6691
32.1600 21.4091 0.6697
32.1800 21.4225 0.6698
32.2000 21.4359 0.6714
32.2200 21.4492 0.6700
32.2400 21.4626 0.6692
32.2600 21.4759 0.6688
32.2800 21.4892 0.6706
32.3000 21.5026 0.6703
32.3200 21.5159 0.6725
32.3400 21.5292 0.6725
32.3600 21.5425 0.6711
32.3800 21.5558 0.6724
32.4000 21.5692 0.6713
32.4200 21.5825 0.6740
32.4400 21.5958 0.6749
32.4600 21.6091 0.6761
32.4800 21.6224 0.6743
32.5000 21.6358 0.6767
32.5200 21.6491 0.6744
32.5400 21.6625 0.6755
32.5600 21.6759 0.6732
32.5800 21.6892 0.6768
32.6000 21.7026 0.6762
32.6200 21.7159 0.6781
32.6400 21.7292 0.6781
32.6600 21.7426 0.6791
32.6800 21.7559 0.6785
32.7000 21.7692 0.6789
32.7200 21.7825 0.6792
32.7400 21.7958 0.6791
32.7600 21.8092 0.6783
32.7800 21.8225 0.6777
32.8000 21.8358 0.6790
32.8200 21.8491 0.6794
32.8400 21.8625 0.6808
32.8600 21.8758 0.6796
32.8800 21.8891 0.6824
32.9000 21.9025 0.6813
32.9200 21.9158 0.6828
32.9400 21.9292 0.6826
32.9600 21.9425 0.6820
32.9800 21.9559 0.6829
33.0000 21.9692 0.6830
33.0200 21.9826 0.6824
33.0400 21.9959 0.6834
33.0600 22.0092 0.6861
33.0800 22.0225 0.6854
33.1000 22.0358 0.6861
33.1200 22.0492 0.6866
33.1400 22.0625 0.6860
33.1600 22.0757 0.6857
33.1800 22.0891 0.6873
33.2000 22.1024 0.6863
33.2200 22.1158 0.6891
33.2400 22.1291 0.6890
33.2600 22.1425 0.6883
33.2800 22.1558 0.6886
33.3000 22.1692 0.6880
33.3200 22.1825 0.6898
33.3400 22.1958 0.6889
33.3600 22.2092 0.6930
33.3800 22.2225 0.6884
33.4000 22.2359 0.6915
33.4200 22.2492 0.6900
33.4400 22.2625 0.6930
33.4600 22.2758 0.6904
33.4800 22.2892 0.6934
33.5000 22.3025 0.6936
33.5200 22.3158 0.6957
33.5400 22.3291 0.6939
33.5600 22.3425 0.6944
33.5800 22.3558 0.6961
33.6000 22.3691 0.6953
33.6200 22.3825 0.6954
33.6400 22.3959 0.6946
33.6600 22.4092 0.6955
33.6800 22.4226 0.6944
33.7000 22.4359 0.6963
33.7200 22.4492 0.6995
33.7400 22.4626 0.6978
33.7600 22.4759 0.6969
33.7800 22.4892 0.6986
33.8000 22.5025 0.6973
33.8200 22.5158 0.6986
33.8400 22.5291 0.6990
33.8600 22.5424 0.6987
33.8800 22.5558 0.7006
33.9000 22.5691 0.7001
33.9200 22.5825 0.7014
33.9400 22.5958 0.7015
33.9600 22.6091 0.7034
33.9800 22.6225 0.7014
34.0000 22.6359 0.7018
34.0200 22.6493 0.7017
34.0400 22.6626 0.7021
34.0600 22.6759 0.7025
34.0800 22.6892 0.7037
34.1000 22.7025 0.7021
34.1200 22.7159 0.7034
34.1400 22.7292 0.7041
34.1600 22.7425 0.7057
34.1800 22.7558 0.7046
34.2000 22.7691 0.7067
34.2200 22.7825 0.7059
34.2400 22.7958 0.7051
34.2600 22.8091 0.7066
34.2800 22.8224 0.7068
34.3000 22.8358 0.7062
34.3200 22.8491 0.7077
34.3400 22.8625 0.7079
34.3600 22.8759 0.7087
34.3800 22.8892 0.7093
34.4000 22.9025 0.7101
34.4200 22.9158 0.7109
34.4400 22.9292 0.7109
34.4600 22.9426 0.7094
34.4800 22.9559 0.7072
34.5000 22.9692 0.7105
34.5200 22.9825 0.7096
34.5400 22.9958 0.7121
34.5600 23.0092 0.7138
34.5800 23.0225 0.7134
34.6000 23.0358 0.7148
34.6200 23.0491 0.7142
34.6400 23.0624 0.7143
34.6600 23.0758 0.7134
34.6800 23.0891 0.7148
34.7000 23.1025 0.7143
34.7200 23.1159 0.7154
34.7400 23.1292 0.7158
34.7600 23.1425 0.7166
34.7800 23.1558 0.7163
34.8000 23.1692 0.7181
34.8200 23.1825 0.7169
34.8400 23.1959 0.7155
34.8600 23.2092 0.7180
34.8800 23.2225 0.7170
34.9000 23.2358 0.7201
34.9200 23.2492 0.7189
34.9400 23.2625 0.7203
34.9600 23.2758 0.7177
34.9800 23.2891 0.7217
35.0000 23.3025 0.7204
35.0200 23.3158 0.7211
35.0400 23.3291 0.7192
35.0600 23.3425 0.7195
35.0800 23.3558 0.7190
35.1000 23.3692 0.7236
35.1200 23.3825 0.7228
35.1400 23.3958 0.7226
35.1600 23.4092 0.7240
35.1800 23.4225 0.7238
35.2000 23.4359 0.7231
35.2200 23.4492 0.7256
35.2400 23.4625 0.7260
35.2600 23.4758 0.7257
35.2800 23.4892 0.7270
35.3000 23.5025 0.7285
35.3200 23.5158 0.7266
35.3400 23.5291 0.7282
35.3600 23.5425 0.7281
35.3800 23.5558 0.7257
35.4000 23.5691 0.7281
35.4200 23.5825 0.7277
35.4400 23.5959 0.7277
35.4600 23.6092 0.7300
35.4800 23.6226 0.7294
35.5000 23.6359 0.7294
35.5200 23.6492 0.7332
35.5400 23.6626 0.7320
35.5600 23.6759 0.7301
35.5800 23.6892 0.7324
35.6000 23.7024 0.7337
35.6200 23.7158 0.7317
35.6400 23.7291 0.7348
35.6600 23.7425 0.7336
35.6800 23.7558 0.7346
35.7000 23.7691 0.7338
35.7200 23.7824 0.7354
35.7400 23.7958 0.7349
35.7600 23.8091 0.7377
35.7800 23.8225 0.7382
35.8000 23.8358 0.7369
35.8200 23.8492 0.7373
35.8400 23.8625 0.7364
35.8600 23.8759 0.7373
35.8800 23.8892 0.7391
35.9000 23.9025 0.7382
35.9200 23.9159 0.7379
35.9400 23.9292 0.7388
35.9600 23.9425 0.7394
35.9800 23.9558 0.7382
36.0000 23.9691 0.7402
36.0200 23.9825 0.7407
36.0400 23.9958 0.7413
36.0600 24.0091 0.7424
36.0800 24.0224 0.7441
36.1000 24.0358 0.7424
36.1200 24.0491 0.7443
36.1400 24.0625 0.7430
36.1600 24.0758 0.7437
36.1800 24.0892 0.7442
36.2000 24.1025 0.7442
36.2200 24.1159 0.7456
36.2400 24.1292 0.7456
36.2600 24.1425 0.7446
36.2800 24.1559 0.7440
36.3000 24.1692 0.7470
36.3200 24.1825 0.7490
36.3400 24.1958 0.7478
36.3600 24.2092 0.7483
36.3800 24.2225 0.7480
36.4000 24.2358 0.7485
36.4200 24.2491 0.7503
36.4400 24.2625 0.7502
36.4600 24.2758 0.7481
36.4800 24.2891 0.7492
36.5000 24.3024 0.7476
36.5200 24.3158 0.7492
36.5400 24.3292 0.7502
36.5600 24.3425 0.7516
36.5800 24.3558 0.7512
36.6000 24.3691 0.7533
36.6200 24.3825 0.7540
36.6400 24.3959 0.7537
36.6600 24.4092 0.7537
36.6800 24.4225 0.7556
36.7000 24.4358 0.7549
36.7200 24.4492 0.7562
36.7400 24.4625 0.7557
36.7600 24.4758 0.7563
36.7800 24.4891 0.7566
36.8000 24.5024 0.7579
36.8200 24.5158 0.7576
36.8400 24.5291 0.7579
36.8600 24.5425 0.7603
36.8800 24.5558 0.7566
36.9000 24.5692 0.7612
36.9200 24.5826 0.7608
36.9400 24.5959 0.7608
36.9600 24.6092 0.7594
36.9800 24.6225 0.7608
37.0000 24.6358 0.7587
37.0200 24.6492 0.7631
37.0400 24.6625 0.7622
37.0600 24.6758 0.7622
37.0800 24.6892 0.7633
37.1000 24.7025 0.7644
37.1200 24.7158 0.7652
37.1400 24.7291 0.7662
37.1600 24.7424 0.7676
37.1800 24.7558 0.7629
37.2000 24.7691 0.7645
37.2200 24.7825 0.7645
37.2400 24.7958 0.7623
37.2600 24.8092 0.7632
37.2800 24.8225 0.7658
37.3000 24.8358 0.7668
37.3200 24.8492 0.7678
37.3400 24.8625 0.7685
37.3600 24.8759 0.7671
37.3800 24.8892 0.7701
37.4000 24.9025 0.7695
37.4200 24.9158 0.7703
37.4400 24.9292 0.7709
37.4600 24.9425 0.7717
37.4800 24.9558 0.7706
37.5000 24.9691 0.7729
37.5200 24.9824 0.7728
37.5400 24.9958 0.7714
37.5600 25.0091 0.7733
37.5800 25.0225 0.7734
37.6000 25.0358 0.7745
37.6200 25.0492 0.7746
37.6400 25.0626 0.7770
37.6600 25.0759 0.7744
37.6800 25.0892 0.7756
37.7000 25.1025 0.7759
37.7200 25.1159 0.7750
37.7400 25.1292 0.7775
37.7600 25.1425 0.7781
37.7800 25.1558 0.7773
37.8000 25.1692 0.7795
37.8200 25.1825 0.7806
37.8400 25.1958 0.7794
37.8600 25.2091 0.7801
37.8800 25.2225 0.7792
37.9000 25.2358 0.7791
37.9200 25.2491 0.7792
37.9400 25.2625 0.7823
37.9600 25.2758 0.7800
37.9800 25.2892 0.7828
38.0000 25.3025 0.7825
38.0200 25.3159 0.7823
38.0400 25.3292 0.7845
38.0600 25.3425 0.7856
38.0800 25.3559 0.7823
38.1000 25.3692 0.7836
38.1200 25.3825 0.7855
38.1400 25.3958 0.7832
38.1600 25.4091 0.7859
38.1800 25.4225 0.7872
38.2000 25.4358 0.7889
38.2200 25.4491 0.7871
38.2400 25.4624 0.7874
38.2600 25.4758 0.7856
38.2800 25.4891 0.7895
38.3000 25.5024 0.7919
38.3200 25.5158 0.7906
38.3400 25.5292 0.7906
38.3600 25.5425 0.7916
38.3800 25.5559 0.7910
38.4000 25.5692 0.7905
38.4200 25.5825 0.7917
38.4400 25.5959 0.7930
38.4600 25.6092 0.7927
38.4800 25.6225 0.7942
38.5000 25.6358 0.7914
38.5200 25.6492 0.7935
38.5400 25.6625 0.7953
38.5600 25.6758 0.7943
38.5800 25.6891 0.7965
38.6000 25.7024 0.7970
38.6200 25.7158 0.7941
38.6400 25.7291 0.7978
38.6600 25.7424 0.7976
38.6800 25.7558 0.7984
38.7000 25.7692 0.7964
38.7200 25.7826 0.8001
38.7400 25.7959 0.7987
38.7600 25.8092 0.7990
38.7800 25.8225 0.8000
38.8000 25.8359 0.8001
38.8200 25.8492 0.7995
38.8400 25.8625 0.8024
38.8600 25.8758 0.8019
38.8800 25.8892 0.8029
38.9000 25.9025 0.8025
38.9200 25.9158 0.8014
38.9400 25.9291 0.8015
38.9600 25.9424 0.8042
38.9800 25.9557 0.8041
39.0000 25.9691 0.8044
39.0200 25.9824 0.8084
39.0400 25.9958 0.8033
39.0600 26.0092 0.8059
39.0800 26.0226 0.8076
39.1000 26.0359 0.8065
39.1200 26.0492 0.8080
39.1400 26.0625 0.8109
39.1600 26.0759 0.8084
39.1800 26.0892 0.8093
39.2000 26.1025 0.8089
39.2200 26.1158 0.8084
39.2400 26.1291 0.8106
39.2600 26.1425 0.8127
39.2800 26.1558 0.8116
39.3000 26.1691 0.8098
39.3200 26.1824 0.8146
39.3400 26.1958 0.8133
39.3600 26.2091 0.8124
39.3800 26.2224 0.8143
39.4000 26.2358 0.8133
39.4200 26.2492 0.8148
39.4400 26.2626 0.8173
39.4600 26.2759 0.8148
39.4800 26.2892 0.8155
39.5000 26.3026 0.8162
39.5200 26.3159 0.8161
39.5400 26.3293 0.8166
39.5600 26.3425 0.8191
39.5800 26.3558 0.8184
39.6000 26.3691 0.8187
39.6200 26.3825 0.8211
39.6400 26.3958 0.8193
39.6600 26.4091 0.8204
39.6800 26.4224 0.8221
39.7000 26.4358 0.8212
39.7200 26.4491 0.8192
39.7400 26.4625 0.8228
39.7600 26.4758 0.8249
39.7800 26.4892 0.8234
39.8000 26.5026 0.8258
39.8200 26.5159 0.8258
39.8400 26.5292 0.8243
39.8600 26.5425 0.8265
39.8800 26.5559 0.8243
39.9000 26.5692 0.8243
39.9200 26.5825 0.8276
39.9400 26.5958 0.8267
39.9600 26.6091 0.8285
39.9800 26.6225 0.8319
40.0000 26.6358 0.8303
40.0200 26.6491 0.8287
40.0400 26.6624 0.8305
40.0600 26.6758 0.8281
40.0800 26.6891 0.8280
40.1000 26.7024 0.8316
40.1200 26.7158 0.8311
40.1400 26.7292 0.8314
40.1600 26.7426 0.8352
40.1800 26.7559 0.8325
40.2000 26.7692 0.8336
40.2200 26.7825 0.8378
40.2400 26.7959 0.8360
40.2600 26.8093 0.8353
40.2800 26.8226 0.8359
40.3000 26.8359 0.8355
40.3200 26.8492 0.8352
40.3400 26.8625 0.8386
40.3600 26.8758 0.8377
40.3800 26.8891 0.8364
40.4000 26.9024 0.8390
40.4200 26.9157 0.8387
40.4400 26.9291 0.8382
40.4600 26.9425 0.8419
40.4800 26.9558 0.8394
40.5000 26.9692 0.8393
40.5200 26.9825 0.8417
40.5400 26.9959 0.8401
40.5600 27.0092 0.8405
40.5800 27.0225 0.8437
40.6000 27.0358 0.8433
40.6200 27.0492 0.8425
40.6400 27.0625 0.8448
40.6600 27.0758 0.8449
40.6800 27.0892 0.8452
40.7000 27.1025 0.8461
40.7200 27.1158 0.8449
40.7400 27.1291 0.8478
40.7600 27.1424 0.8492
40.7800 27.1558 0.8486
40.8000 27.1691 0.8468
40.8200 27.1824 0.8497
40.8400 27.1958 0.8497
40.8600 27.2091 0.8499
40.8800 27.2225 0.8509
40.9000 27.2359 0.8508
40.9200 27.2492 0.8503
40.9400 27.2625 0.8528
40.9600 27.2759 0.8513
40.9800 27.2892 0.8528
41.0000 27.3025 0.8559
41.0200 27.3158 0.8560
41.0400 27.3291 0.8549
41.0600 27.3425 0.8569
41.0800 27.3558 0.8559
41.1000 27.3691 0.8541
41.1200 27.3824 0.8555
41.1400 27.3958 0.8576
41.1600 27.4092 0.8551
41.1800 27.4225 0.8583
41.2000 27.4358 0.8585
41.2200 27.4492 0.8597
41.2400 27.4626 0.8633
41.2600 27.4759 0.8591
41.2800 27.4892 0.8589
41.3000 27.5025 0.8599
41.3200 27.5159 0.8609
41.3400 27.5292 0.8608
41.3600 27.5425 0.8634
41.3800 27.5558 0.8638
41.4000 27.5691 0.8641
41.4200 27.5825 0.8656
41.4400 27.5958 0.8644
41.4600 27.6091 0.8645
41.4800 27.6224 0.8658
41.5000 27.6358 0.8656
41.5200 27.6491 0.8659
41.5400 27.6625 0.8680
41.5600 27.6758 0.8668
41.5800 27.6892 0.8678
41.6000 27.7026 0.8704
41.6200 27.7159 0.8698
41.6400 27.7292 0.8697
41.6600 27.7425 0.8719
41.6800 27.7559 0.8711
41.7000 27.7693 0.8706
41.7200 27.7826 0.8733
41.7400 27.7958 0.8737
41.7600 27.8091 0.8743
41.7800 27.8225 0.8751
41.8000 27.8358 0.8726
41.8200 27.8491 0.8738
41.8400 27.8624 0.8766
41.8600 27.8758 0.8762
41.8800 27.8891 0.8764
41.9000 27.9025 0.8777
41.9200 27.9158 0.8775
41.9400 27.9292 0.8758
41.9600 27.9425 0.8776
41.9800 27.9559 0.8791
42.0000 27.9692 0.8780
42.0200 27.9825 0.8809
42.0400 27.9959 0.8802
42.0600 28.0092 0.8805
42.0800 28.0225 0.8808
42.1000 28.0358 0.8817
42.1200 28.0491 0.8815
42.1400 28.0625 0.8837
42.1600 28.0758 0.8816
42.1800 28.0891 0.8834
42.2000 28.1024 0.8857
42.2200 28.1158 0.8878
42.2400 28.1291 0.8841
42.2600 28.1425 0.8876
42.2800 28.1558 0.8882
42.3000 28.1691 0.8873
42.3200 28.1825 0.8888
42.3400 28.1959 0.8880
42.3600 28.2092 0.8868
42.3800 28.2225 0.8875
42.4000 28.2359 0.8897
42.4200 28.2492 0.8905
42.4400 28.2626 0.8924
42.4600 28.2759 0.8914
42.4800 28.2892 0.8903
42.5000 28.3025 0.8938
42.5200 28.3158 0.8937
42.5400 28.3291 0.8921
42.5600 28.3424 0.8963
42.5800 28.3557 0.8964
42.6000 28.3691 0.8935
42.6200 28.3825 0.8967
42.6400 28.3958 0.8975
42.6600 28.4092 0.8970
42.6800 28.4226 0.8984
42.7000 28.4359 0.8997
42.7200 28.4492 0.8986
42.7400 28.4625 0.9003
42.7600 28.4759 0.9022
42.7800 28.4892 0.8998
42.8000 28.5025 0.9021
42.8200 28.5158 0.9017
42.8400 28.5291 0.9027
42.8600 28.5425 0.9058
42.8800 28.5558 0.9036
42.9000 28.5691 0.9027
42.9200 28.5824 0.9048
42.9400 28.5958 0.9050
42.9600 28.6091 0.9050
42.9800 28.6224 0.9063
43.0000 28.6358 0.9074
43.0200 28.6491 0.9061
43.0400 28.6625 0.9085
43.0600 28.6759 0.9085
43.0800 28.6892 0.9096
43.1000 28.7025 0.9093
43.1200 28.7159 0.9107
43.1400 28.7292 0.9103
43.1600 28.7425 0.9122
43.1800 28.7558 0.9139
43.2000 28.7691 0.9127
43.2200 28.7824 0.9135
43.2400 28.7958 0.9142
43.2600 28.8091 0.9137
43.2800 28.8224 0.9142
43.3000 28.8357 0.9164
43.3200 28.8491 0.9163
43.3400 28.8625 0.9162
43.3600 28.8758 0.9168
43.3800 28.8892 0.9173
43.4000 28.9026 0.9184
43.4200 28.9159 0.9189
43.4400 28.9292 0.9176
43.4600 28.9425 0.9179
43.4800 28.9558 0.9206
43.5000 28.9692 0.9231
43.5200 28.9826 0.9224
43.5400 28.9959 0.9227
43.5600 29.0092 0.9212
43.5800 29.0225 0.9231
43.6000 29.0359 0.9236
43.6200 29.0492 0.9231
43.6400 29.0625 0.9244
43.6600 29.0758 0.9251
43.6800 29.0891 0.9268
43.7000 29.1025 0.9277
43.7200 29.1158 0.9272
43.7400 29.1291 0.9289
43.7600 29.1425 0.9304
43.7800 29.1559 0.9301
43.8000 29.1692 0.9293
43.8200 29.1825 0.9288
43.8400 29.1958 0.9308
43.8600 29.2092 0.9307
43.8800 29.2225 0.9324
43.9000 29.2359 0.9321
43.9200 29.2492 0.9325
43.9400 29.2625 0.9320
43.9600 29.2759 0.9351
43.9800 29.2892 0.9345
44.0000 29.3025 0.9362
44.0200 29.3158 0.9371
44.0400 29.3291 0.9341
44.0600 29.3424 0.9348
44.0800 29.3558 0.9397
44.1000 29.3691 0.9387
44.1200 29.3825 0.9393
44.1400 29.3959 0.9415
44.1600 29.4092 0.9395
44.1800 29.4225 0.9419
44.2000 29.4359 0.9421
44.2200 29.4492 0.9408
44.2400 29.4626 0.9413
44.2600 29.4759 0.9442
44.2800 29.4892 0.9432
44.3000 29.5025 0.9455
44.3200 29.5158 0.9487
44.3400 29.5292 0.9461
44.3600 29.5425 0.9455
44.3800 29.5558 0.9481
44.4000 29.5691 0.9477
44.4200 29.5824 0.9471
44.4400 29.5958 0.9494
44.4600 29.6091 0.9463
44.4800 29.6225 0.9499
44.5000 29.6359 0.9496
44.5200 29.6492 0.9514
44.5400 29.6625 0.9506
44.5600 29.6759 0.9530
44.5800 29.6892 0.9514
44.6000 29.7026 0.9513
44.6200 29.7159 0.9563
44.6400 29.7292 0.9558
44.6600 29.7425 0.9555
44.6800 29.7559 0.9565
44.7000 29.7692 0.9571
44.7200 29.7825 0.9575
44.7400 29.7958 0.9603
44.7600 29.8091 0.9559
44.7800 29.8225 0.9587
44.8000 29.8358 0.9611
44.8200 29.8491 0.9626
44.8400 29.8625 0.9607
44.8600 29.8759 0.9636
44.8800 29.8892 0.9612
44.9000 29.9025 0.9626
44.9200 29.9158 0.9652
44.9400 29.9292 0.9643
44.9600 29.9426 0.9659
44.9800 29.9559 0.9661
45.0000 29.9692 0.9665
45.0200 29.9825 0.9674
45.0400 29.9958 0.9686
45.0600 30.0092 0.9692
45.0800 30.0225 0.9706
45.1000 30.0358 0.9716
45.1200 30.0491 0.9699
45.1400 30.0625 0.9702
45.1600 30.0758 0.9712
45.1800 30.0891 0.9716
45.2000 30.1025 0.9735
45.2200 30.1159 0.9751
45.2400 30.1292 0.9724
45.2600 30.1425 0.9754
45.2800 30.1559 0.9757
45.3000 30.1692 0.9754
45.3200 30.1826 0.9754
45.3400 30.1959 0.9784
45.3600 30.2092 0.9782
45.3800 30.2225 0.9782
45.4000 30.2358 0.9797
45.4200 30.2491 0.9798
45.4400 30.2624 0.9813
45.4600 30.2758 0.9825
45.4800 30.2891 0.9827
45.5000 30.3025 0.9827
45.5200 30.3158 0.9848
45.5400 30.3291 0.9838
45.5600 30.3425 0.9858
45.5800 30.3559 0.9856
45.6000 30.3692 0.9847
45.6200 30.3825 0.9848
45.6400 30.3958 0.9870
45.6600 30.4092 0.9865
45.6800 30.4225 0.9879
45.7000 30.4359 0.9922
45.7200 30.4492 0.9914
45.7400 30.4625 0.9905
45.7600 30.4759 0.9906
45.7800 30.4892 0.9888
45.8000 30.5025 0.9928
45.8200 30.5158 0.9930
45.8400 30.5291 0.9940
45.8600 30.5424 0.9949
45.8800 30.5558 0.9981
45.9000 30.5691 0.9956
45.9200 30.5825 0.9949
45.9400 30.5959 0.9963
45.9600 30.6093 0.9963
45.9800 30.6226 0.9973
46.0000 30.6359 1.0007
46.0200 30.6492 0.9994
46.0400 30.6626 1.0008
46.0600 30.6759 1.0015
46.0800 30.6892 1.0008
46.1000 30.7025 1.0013
46.1200 30.7158 1.0034
46.1400 30.7292 1.0036
46.1600 30.7425 1.0035
46.1800 30.7558 1.0051
46.2000 30.7691 1.0060
46.2200 30.7824 1.0058
46.2400 30.7958 1.0096
46.2600 30.8091 1.0085
46.2800 30.8225 1.0081
46.3000 30.8359 1.0104
46.3200 30.8492 1.0076
46.3400 30.8626 1.0089
46.3600 30.8759 1.0108
46.3800 30.8892 1.0087
46.4000 30.9026 1.0099
46.4200 30.9159 1.0135
46.4400 30.9292 1.0129
46.4600 30.9425 1.0145
46.4800 30.9558 1.0145
46.5000 30.9692 1.0158
46.5200 30.9825 1.0160
46.5400 30.9958 1.0185
46.5600 31.0091 1.0168
46.5800 31.0224 1.0181
46.6000 31.0358 1.0202
46.6200 31.0491 1.0200
46.6400 31.0625 1.0206
46.6600 31.0759 1.0205
46.6800 31.0892 1.0189
46.7000 31.1025 1.0185
46.7200 31.1159 1.0214
46.7400 31.1292 1.0225
46.7600 31.1426 1.0233
46.7800 31.1559 1.0265
46.8000 31.1692 1.0264
46.8200 31.1825 1.0256
46.8400 31.1958 1.0282
46.8600 31.2091 1.0280
46.8800 31.2225 1.0283
46.9000 31.2357 1.0300
46.9200 31.2491 1.0296
46.9400 31.2624 1.0317
46.9600 31.2758 1.0313
46.9800 31.2891 1.0317
47.0000 31.3025 1.0333
47.0200 31.3159 1.0354
47.0400 31.3293 1.0352
47.0600 31.3426 1.0357
47.0800 31.3559 1.0361
47.1000 31.3692 1.0362
47.1200 31.3826 1.0355
47.1400 31.3959 1.0388
47.1600 31.4092 1.0391
47.1800 31.4225 1.0411
47.2000 31.4358 1.0423
47.2200 31.4492 1.0415
47.2400 31.4625 1.0417
47.2600 31.4758 1.0442
47.2800 31.4891 1.0443
47.3000 31.5025 1.0421
47.3200 31.5158 1.0455
47.3400 31.5291 1.0464
47.3600 31.5425 1.0471
47.3800 31.5559 1.0488
47.4000 31.5692 1.0475
47.4200 31.5826 1.0480
47.4400 31.5959 1.0503
47.4600 31.6092 1.0508
47.4800 31.6226 1.0518
47.5000 31.6359 1.0531
47.5200 31.6492 1.0544
47.5400 31.6625 1.0521
47.5600 31.6758 1.0537
47.5800 31.6892 1.0538
47.6000 31.7025 1.0545
47.6200 31.7158 1.0560
47.6400 31.7291 1.0571
47.6600 31.7424 1.0576
47.6800 31.7558 1.0597
47.7000 31.7691 1.0573
47.7200 31.7825 1.0609
47.7400 31.7959 1.0620
47.7600 31.8092 1.0616
47.7800 31.8225 1.0617
47.8000 31.8358 1.0617
47.8200 31.8492 1.0639
47.8400 31.8625 1.0633
47.8600 31.8759 1.0644
47.8800 31.8892 1.0659
47.9000 31.9025 1.0667
47.9200 31.9158 1.0689
47.9400 31.9292 1.0691
47.9600 31.9425 1.0705
47.9800 31.9558 1.0705
48.0000 31.9691 1.0699
48.0200 31.9824 1.0703
48.0400 31.9958 1.0729
48.0600 32.0091 1.0740
48.0800 32.0224 1.0726
48.1000 32.0358 1.0723
48.1200 32.0492 1.0755
48.1400 32.0625 1.0751
48.1600 32.0758 1.0773
48.1800 32.0892 1.0781
48.2000 32.1025 1.0788
48.2200 32.1159 1.0798
48.2400 32.1292 1.0813
48.2600 32.1425 1.0805
48.2800 32.1558 1.0814
48.3000 32.1692 1.0813
48.3200 32.1825 1.0815
48.3400 32.1958 1.0824
48.3600 32.2091 1.0849
48.3800 32.2225 1.0838
48.4000 32.2358 1.0841
48.4200 32.2491 1.0843
48.4400 32.2625 1.0857
48.4600 32.2759 1.0871
48.4800 32.2892 1.0883
48.5000 32.3026 1.0880
48.5200 32.3159 1.0906
48.5400 32.3292 1.0914
48.5600 32.3425 1.0926
48.5800 32.3559 1.0930
48.6000 32.3692 1.0952
48.6200 32.3825 1.0940
48.6400 32.3958 1.0948
48.6600 32.4091 1.0955
48.6800 32.4225 1.0965
48.7000 32.4358 1.0962
48.7200 32.4491 1.0977
48.7400 32.4625 1.0989
48.7600 32.4758 1.0997
48.7800 32.4892 1.1017
48.8000 32.5025 1.1018
48.8200 32.5159 1.1018
48.8400 32.5292 1.1020
48.8600 32.5425 1.1043
48.8800 32.5559 1.1037
48.9000 32.5692 1.1066
48.9200 32.5826 1.1049
48.9400 32.5959 1.1064
48.9600 32.6092 1.1088
48.9800 32.6225 1.1090
49.0000 32.6358 1.1097
49.0200 32.6492 1.1104
49.0400 32.6625 1.1109
49.0600 32.6758 1.1122
49.0800 32.6891 1.1132
49.1000 32.7024 1.1135
49.1200 32.7158 1.1146
49.1400 32.7291 1.1163
49.1600 32.7425 1.1160
49.1800 32.7558 1.1173
49.2000 32.7692 1.1188
49.2200 32.7826 1.1160
49.2400 32.7958 1.1152
49.2600 32.8092 1.1206
49.2800 32.8225 1.1200
49.3000 32.8359 1.1234
49.3200 32.8492 1.1231
49.3400 32.8625 1.1237
49.3600 32.8758 1.1246
49.3800 32.8892 1.1269
49.4000 32.9025 1.1235
49.4200 32.9158 1.1261
49.4400 32.9291 1.1269
49.4600 32.9424 1.1285
49.4800 32.9558 1.1301
49.5000 32.9691 1.1314
49.5200 32.9825 1.1300
49.5400 32.9958 1.1305
49.5600 33.0092 1.1297
49.5800 33.0225 1.1313
49.6000 33.0358 1.1351
49.6200 33.0492 1.1362
49.6400 33.0625 1.1371
49.6600 33.0759 1.1383
49.6800 33.0892 1.1395
49.7000 33.1025 1.1400
49.7200 33.1158 1.1424
49.7400 33.1291 1.1439
49.7600 33.1425 1.1411
49.7800 33.1558 1.1415
49.8000 33.1691 1.1426
49.8200 33.1824 1.1421
49.8400 33.1958 1.1438
49.8600 33.2091 1.1438
49.8800 33.2225 1.1457
49.9000 33.2359 1.1470
49.9200 33.2492 1.1503
49.9400 33.2626 1.1492
49.9600 33.2759 1.1500
49.9800 33.2892 1.1512
50.0000 33.3026 1.1531
50.0200 33.3159 1.1531
50.0400 33.3292 1.1553
50.0600 33.3425 1.1525
50.0800 33.3558 1.1546
50.1000 33.3692 1.1538
50.1200 33.3825 1.1561
50.1400 33.3958 1.1573
50.1600 33.4091 1.1583
50.1800 33.4224 1.1605
50.2000 33.4358 1.1620
50.2200 33.4491 1.1616
50.2400 33.4624 1.1622
50.2600 33.4758 1.1631
50.2800 33.4892 1.1649
50.3000 33.5026 1.1642
50.3200 33.5159 1.1665
50.3400 33.5292 1.1690
50.3600 33.5425 1.1703
50.3800 33.5559 1.1717
50.4000 33.5692 1.1710
50.4200 33.5825 1.1707
50.4400 33.5958 1.1732
50.4600 33.6091 1.1737
50.4800 33.6225 1.1752
50.5000 33.6358 1.1735
50.5200 33.6491 1.1754
50.5400 33.6624 1.1730
50.5600 33.6758 1.1757
50.5800 33.6891 1.1781
50.6000 33.7025 1.1797
50.6200 33.7158 1.1788
50.6400 33.7292 1.1807
50.6600 33.7425 1.1808
50.6800 33.7559 1.1839
50.7000 33.7692 1.1834
50.7200 33.7825 1.1834
50.7400 33.7959 1.1834
50.7600 33.8092 1.1875
50.7800 33.8225 1.1874
50.8000 33.8358 1.1876
50.8200 33.8492 1.1908
50.8400 33.8625 1.1893
50.8600 33.8758 1.1923
50.8800 33.8891 1.1909
50.9000 33.9025 1.1930
50.9200 33.9158 1.1945
50.9400 33.9291 1.1966
50.9600 33.9425 1.1963
50.9800 33.9558 1.1975
51.0000 33.9692 1.1976
51.0200 33.9825 1.1976
51.0400 33.9958 1.1971
51.0600 34.0092 1.1991
51.0800 34.0225 1.2014
51.1000 34.0359 1.2028
51.1200 34.0492 1.2042
51.1400 34.0625 1.2027
51.1600 34.0759 1.2050
51.1800 34.0892 1.2037
51.2000 34.1025 1.2072
51.2200 34.1158 1.2093
51.2400 34.1291 1.2093
51.2600 34.1424 1.2123
51.2800 34.1558 1.2122
51.3000 34.1691 1.2126
51.3200 34.1825 1.2131
51.3400 34.1958 1.2132
51.3600 34.2092 1.2153
51.3800 34.2226 1.2144
51.4000 34.2359 1.2150
51.4200 34.2492 1.2171
51.4400 34.2626 1.2164
51.4600 34.2759 1.2191
51.4800 34.2892 1.2188
51.5000 34.3025 1.2228
51.5200 34.3158 1.2220
51.5400 34.3292 1.2226
51.5600 34.3425 1.2239
51.5800 34.3558 1.2257
51.6000 34.3691 1.2261
51.6200 34.3824 1.2280
51.6400 34.3958 1.2277
51.6600 34.4091 1.2289
51.6800 34.4224 1.2292
51.7000 34.4358 1.2313
51.7200 34.4491 1.2312
51.7400 34.4625 1.2322
51.7600 34.4758 1.2338
51.7800 34.4892 1.2356
51.8000 34.5026 1.2372
51.8200 34.5159 1.2385
51.8400 34.5292 1.2394
51.8600 34.5425 1.2399
51.8800 34.5558 1.2398
51.9000 34.5692 1.2415
51.9200 34.5825 1.2412
51.9400 34.5958 1.2435
51.9600 34.6091 1.2442
51.9800 34.6224 1.2452
52.0000 34.6358 1.2455
52.0200 34.6491 1.2455
52.0400 34.6625 1.2475
52.0600 34.6758 1.2478
52.0800 34.6892 1.2486
52.1000 34.7026 1.2519
52.1200 34.7159 1.2510
52.1400 34.7292 1.2534
52.1600 34.7425 1.2537
52.1800 34.7559 1.2551
52.2000 34.7692 1.2563
52.2200 34.7825 1.2590
52.2400 34.7958 1.2572
52.2600 34.8092 1.2587
52.2800 34.8225 1.2594
52.3000 34.8359 1.2617
52.3200 34.8491 1.2628
52.3400 34.8624 1.2641
52.3600 34.8758 1.2660
52.3800 34.8891 1.2661
52.4000 34.9025 1.2685
52.4200 34.9158 1.2684
52.4400 34.9292 1.2699
52.4600 34.9425 1.2689
52.4800 34.9559 1.2713
52.5000 34.9692 1.2707
52.5200 34.9825 1.2735
52.5400 34.9959 1.2747
52.5600 35.0092 1.2753
52.5800 35.0225 1.2771
52.6000 35.0358 1.2785
52.6200 35.0491 1.2780
52.6400 35.0625 1.2816
52.6600 35.0758 1.2807
52.6800 35.0891 1.2815
52.7000 35.1024 1.2827
52.7200 35.1158 1.2840
52.7400 35.1292 1.2835
52.7600 35.1425 1.2853
52.7800 35.1558 1.2862
52.8000 35.1692 1.2889
52.8200 35.1825 1.2898
52.8400 35.1959 1.2941
52.8600 35.2092 1.2915
52.8800 35.2225 1.2932
52.9000 35.2359 1.2939
52.9200 35.2492 1.2958
52.9400 35.2625 1.2974
52.9600 35.2758 1.2976
52.9800 35.2892 1.3004
53.0000 35.3025 1.3027
53.0200 35.3158 1.3026
53.0400 35.3291 1.3017
53.0600 35.3424 1.3028
53.0800 35.3558 1.3040
53.1000 35.3691 1.3022
53.1200 35.3824 1.3051
53.1400 35.3958 1.3068
53.1600 35.4092 1.3075
53.1800 35.4226 1.3089
53.2000 35.4359 1.3109
53.2200 35.4492 1.3127
53.2400 35.4625 1.3121
53.2600 35.4759 1.3140
53.2800 35.4892 1.3136
53.3000 35.5025 1.3158
53.3200 35.5158 1.3179
53.3400 35.5291 1.3181
53.3600 35.5425 1.3201
53.3800 35.5558 1.3208
53.4000 35.5691 1.3216
53.4200 35.5824 1.3251
53.4400 35.5957 1.3248
53.4600 35.6091 1.3230
53.4800 35.6224 1.3260
53.5000 35.6358 1.3278
53.5200 35.6492 1.3296
53.5400 35.6626 1.3280
53.5600 35.6759 1.3293
53.5800 35.6892 1.3315
53.6000 35.7025 1.3344
53.6200 35.7159 1.3354
53.6400 35.7293 1.3355
53.6600 35.7426 1.3387
53.6800 35.7558 1.3391
53.7000 35.7692 1.3405
53.7200 35.7825 1.3420
53.7400 35.7958 1.3416
53.7600 35.8091 1.3416
53.7800 35.8224 1.3440
53.8000 35.8358 1.3456
53.8200 35.8491 1.3467
53.8400 35.8625 1.3472
53.8600 35.8758 1.3498
53.8800 35.8892 1.3487
53.9000 35.9025 1.3513
53.9200 35.9159 1.3514
53.9400 35.9292 1.3515
53.9600 35.9425 1.3536
53.9800 35.9559 1.3561
54.0000 35.9692 1.3577
54.0200 35.9825 1.3594
54.0400 35.9958 1.3594
54.0600 36.0091 1.3614
54.0800 36.0225 1.3616
54.1000 36.0358 1.3627
54.1200 36.0491 1.3653
54.1400 36.0624 1.3659
54.1600 36.0758 1.3687
54.1800 36.0891 1.3659
54.2000 36.1025 1.3687
54.2200 36.1158 1.3718
54.2400 36.1292 1.3715
54.2600 36.1426 1.3752
54.2800 36.1559 1.3741
54.3000 36.1692 1.3744
54.3200 36.1825 1.3764
54.3400 36.1959 1.3761
54.3600 36.2092 1.3772
54.3800 36.2225 1.3804
54.4000 36.2358 1.3817
54.4200 36.2491 1.3820
54.4400 36.2625 1.3848
54.4600 36.2758 1.3842
54.4800 36.2891 1.3865
54.5000 36.3024 1.3873
54.5200 36.3158 1.3892
54.5400 36.3291 1.3904
54.5600 36.3424 1.3933
54.5800 36.3558 1.3931
54.6000 36.3691 1.3946
54.6200 36.3825 1.3938
54.6400 36.3959 1.3979
54.6600 36.4092 1.3983
54.6800 36.4225 1.4015
54.7000 36.4359 1.4026
54.7200 36.4493 1.4011
54.7400 36.4626 1.4035
54.7600 36.4759 1.4044
54.7800 36.4892 1.4044
54.8000 36.5025 1.4084
54.8200 36.5159 1.4096
54.8400 36.5291 1.4110
54.8600 36.5424 1.4123
54.8800 36.5557 1.4135
54.9000 36.5691 1.4135
54.9200 36.5825 1.4135
54.9400 36.5958 1.4167
54.9600 36.6091 1.4173
54.9800 36.6225 1.4184
55.0000 36.6359 1.4190
55.0200 36.6492 1.4217
55.0400 36.6625 1.4223
55.0600 36.6759 1.4242
55.0800 36.6892 1.4237
55.1000 36.7025 1.4274
55.1200 36.7158 1.4276
55.1400 36.7292 1.4304
55.1600 36.7425 1.4301
55.1800 36.7559 1.4324
55.2000 36.7691 1.4333
55.2200 36.7824 1.4363
55.2400 36.7957 1.4388
55.2600 36.8091 1.4379
55.2800 36.8224 1.4386
55.3000 36.8358 1.4397
55.3200 36.8491 1.4417
55.3400 36.8625 1.4432
55.3600 36.8759 1.4462
55.3800 36.8892 1.4451
55.4000 36.9026 1.4472
55.4200 36.9159 1.4495
55.4400 36.9293 1.4513
55.4600 36.9426 1.4525
55.4800 36.9559 1.4538
55.5000 36.9692 1.4517
55.5200 36.9825 1.4547
55.5400 36.9958 1.4597
55.5600 37.0091 1.4584
55.5800 37.0224 1.4615
55.6000 37.0358 1.4615
55.6200 37.0492 1.4621
55.6400 37.0625 1.4631
55.6600 37.0758 1.4651
55.6800 37.0892 1.4660
55.7000 37.1025 1.4684
55.7200 37.1159 1.4713
55.7400 37.1292 1.4720
55.7600 37.1425 1.4726
55.7800 37.1559 1.4765
55.8000 37.1692 1.4753
55.8200 37.1825 1.4755
55.8400 37.1958 1.4783
55.8600 37.2091 1.4772
55.8800 37.2224 1.4806
55.9000 37.2358 1.4828
55.9200 37.2491 1.4829
55.9400 37.2624 1.4836
55.9600 37.2757 1.4872
55.9800 37.2891 1.4888
56.0000 37.3025 1.4907
56.0200 37.3158 1.4919
56.0400 37.3292 1.4916
56.0600 37.3425 1.4932
56.0800 37.3559 1.4956
56.1000 37.3692 1.4959
56.1200 37.3825 1.4978
56.1400 37.3959 1.4999
56.1600 37.4092 1.5001
56.1800 37.4226 1.5020
56.2000 37.4358 1.5035
56.2200 37.4491 1.5058
56.2400 37.4625 1.5073
56.2600 37.4758 1.5095
56.2800 37.4891 1.5070
56.3000 37.5024 1.5107
56.3200 37.5158 1.5144
56.3400 37.5291 1.5149
56.3600 37.5425 1.5152
56.3800 37.5558 1.5181
56.4000 37.5692 1.5171
56.4200 37.5825 1.5209
56.4400 37.5959 1.5211
56.4600 37.6092 1.5227
56.4800 37.6225 1.5256
56.5000 37.6359 1.5288
56.5200 37.6492 1.5290
56.5400 37.6626 1.5296
56.5600 37.6758 1.5326
56.5800 37.6891 1.5327
56.6000 37.7025 1.5337
56.6200 37.7158 1.5374
56.6400 37.7292 1.5381
56.6600 37.7425 1.5375
56.6800 37.7558 1.5404
56.7000 37.7691 1.5403
56.7200 37.7825 1.5427
56.7400 37.7958 1.5453
56.7600 37.8091 1.5459
56.7800 37.8225 1.5466
56.8000 37.8359 1.5510
56.8200 37.8492 1.5508
56.8400 37.8625 1.5521
56.8600 37.8759 1.5557
56.8800 37.8892 1.5546
56.9000 37.9026 1.5572
56.9200 37.9159 1.5596
56.9400 37.9292 1.5594
56.9600 37.9425 1.5624
56.9800 37.9558 1.5647
57.0000 37.9691 1.5643
57.0200 37.9824 1.5645
57.0400 37.9957 1.5661
57.0600 38.0091 1.5681
57.0800 38.0225 1.5701
57.1000 38.0358 1.5740
57.1200 38.0492 1.5747
57.1400 38.0625 1.5746
57.1600 38.0759 1.5789
57.1800 38.0892 1.5804
57.2000 38.1025 1.5812
57.2200 38.1159 1.5845
57.2400 38.1292 1.5842
57.2600 38.1426 1.5855
57.2800 38.1558 1.5899
57.3000 38.1691 1.5888
57.3200 38.1825 1.5912
57.3400 38.1958 1.5929
57.3600 38.2091 1.5966
57.3800 38.2224 1.5955
57.4000 38.2357 1.6000
57.4200 38.2491 1.5983
57.4400 38.2624 1.6007
57.4600 38.2758 1.6040
57.4800 38.2891 1.6044
57.5000 38.3025 1.6054
57.5200 38.3159 1.6076
57.5400 38.3292 1.6087
57.5600 38.3425 1.6102
57.5800 38.3559 1.6142
57.6000 38.3692 1.6135
57.6200 38.3826 1.6140
57.6400 38.3959 1.6165
57.6600 38.4092 1.6172
57.6800 38.4225 1.6187
57.7000 38.4358 1.6221
57.7200 38.4491 1.6237
57.7400 38.4624 1.6245
57.7600 38.4758 1.6279
57.7800 38.4891 1.6278
57.8000 38.5025 1.6269
57.8200 38.5158 1.6302
57.8400 38.5292 1.6320
57.8600 38.5425 1.6342
57.8800 38.5559 1.6389
57.9000 38.5692 1.6406
57.9200 38.5825 1.6394
57.9400 38.5958 1.6430
57.9600 38.6092 1.6435
57.9800 38.6225 1.6450
58.0000 38.6359 1.6489
58.0200 38.6492 1.6488
58.0400 38.6625 1.6485
58.0600 38.6759 1.6520
58.0800 38.6892 1.6525
58.1000 38.7025 1.6557
58.1200 38.7158 1.6595
58.1400 38.7292 1.6591
58.1600 38.7425 1.6595
58.1800 38.7558 1.6631
58.2000 38.7691 1.6635
58.2200 38.7825 1.6667
58.2400 38.7959 1.6690
58.2600 38.8092 1.6706
58.2800 38.8225 1.6701
58.3000 38.8358 1.6731
58.3200 38.8492 1.6758
58.3400 38.8625 1.6774
58.3600 38.8758 1.6808
58.3800 38.8892 1.6819
58.4000 38.9025 1.6830
58.4200 38.9158 1.6861
58.4400 38.9292 1.6888
58.4600 38.9425 1.6898
58.4800 38.9558 1.6934
58.5000 38.9691 1.6916
58.5200 38.9825 1.6925
58.5400 38.9958 1.6966
58.5600 39.0091 1.6969
58.5800 39.0225 1.6989
58.6000 39.0359 1.7010
58.6200 39.0492 1.7022
58.6400 39.0625 1.7043
58.6600 39.0759 1.7077
58.6800 39.0892 1.7079
58.7000 39.1026 1.7102
58.7200 39.1158 1.7140
58.7400 39.1291 1.7126
58.7600 39.1425 1.7148
58.7800 39.1558 1.7183
58.8000 39.1692 1.7195
58.8200 39.1825 1.7201
58.8400 39.1958 1.7222
58.8600 39.2091 1.7249
58.8800 39.2225 1.7274
58.9000 39.2358 1.7310
58.9200 39.2491 1.7309
58.9400 39.2625 1.7312
58.9600 39.2759 1.7332
58.9800 39.2892 1.7360
59.0000 39.3025 1.7357
59.0200 39.3159 1.7397
59.0400 39.3292 1.7418
59.0600 39.3426 1.7420
59.0800 39.3559 1.7466
59.1000 39.3692 1.7471
59.1200 39.3825 1.7484
59.1400 39.3958 1.7521
59.1600 39.4092 1.7544
59.1800 39.4224 1.7569
59.2000 39.4358 1.7575
59.2200 39.4491 1.7611
59.2400 39.4625 1.7603
59.2600 39.4758 1.7642
59.2800 39.4891 1.7661
59.3000 39.5025 1.7644
59.3200 39.5159 1.7689
59.3400 39.5292 1.7717
59.3600 39.5425 1.7714
59.3800 39.5559 1.7757
59.4000 39.5692 1.7755
59.4200 39.5826 1.7773
59.4400 39.5959 1.7797
59.4600 39.6092 1.7829
59.4800 39.6225 1.7809
59.5000 39.6358 1.7866
59.5200 39.6492 1.7873
59.5400 39.6625 1.7890
59.5600 39.6758 1.7919
59.5800 39.6891 1.7916
59.6000 39.7025 1.7926
59.6200 39.7158 1.7980
59.6400 39.7291 1.8011
59.6600 39.7425 1.8017
59.6800 39.7558 1.8033
59.7000 39.7692 1.8053
59.7200 39.7825 1.8079
59.7400 39.7958 1.8093
59.7600 39.8092 1.8119
59.7800 39.8226 1.8121
59.8000 39.8359 1.8156
59.8200 39.8492 1.8189
59.8400 39.8625 1.8194
59.8600 39.8758 1.8206
59.8800 39.8891 1.8244
59.9000 39.9025 1.8257
59.9200 39.9158 1.8270
59.9400 39.9291 1.8296
59.9600 39.9425 1.8295
59.9800 39.9558 1.8333
60.0000 39.9691 1.8360
60.0200 39.9825 1.8371
60.0400 39.9958 1.8368
60.0470 40.0004 1.8343
60.0480 40.0010 1.8338
60.0490 40.0017 1.8333
60.0690 40.0120 1.8193
60.0890 40.0140 1.8077
60.1090 40.0055 1.8246
60.1290 39.9925 1.8304
60.1490 39.9796 1.8239
60.1690 39.9668 1.8211
60.1890 39.9534 1.8146
60.2090 39.9394 1.8076
60.2290 39.9254 1.8063
60.2490 39.9117 1.8002
60.2690 39.8982 1.7966
60.2890 39.8849 1.7945
60.3090 39.8716 1.7873
60.3290 39.8583 1.7827
60.3490 39.8450 1.7808
60.3690 39.8316 1.7762
60.3890 39.8182 1.7713
60.4090 39.8048 1.7696
60.4290 39.7915 1.7657
60.4490 39.7781 1.7604
60.4690 39.7648 1.7569
60.4890 39.7514 1.7521
60.5090 39.7381 1.7487
60.5290 39.7248 1.7443
60.5490 39.7114 1.7423
60.5690 39.6981 1.7353
60.5890 39.6848 1.7355
60.6090 39.6715 1.7312
60.6290 39.6581 1.7270
60.6490 39.6448 1.7253
60.6690 39.6315 1.7222
60.6890 39.6182 1.7174
60.7090 39.6049 1.7180
60.7290 39.5915 1.7099
60.7490 39.5781 1.7059
60.7690 39.5648 1.7060
60.7890 39.5515 1.7026
60.8090 39.5381 1.6995
60.8290 39.5247 1.6976
60.8490 39.5114 1.6936
60.8690 39.4981 1.6895
60.8890 39.4847 1.6864
60.9090 39.4714 1.6822
60.9290 39.4580 1.6763
60.9490 39.4447 1.6759
60.9690 39.4314 1.6740
60.9890 39.4181 1.6687
61.0090 39.4048 1.6650
61.0290 39.3914 1.6637
61.0490 39.3782 1.6576
61.0690 39.3649 1.6579
61.0890 39.3515 1.6525
61.1090 39.3381 1.6484
61.1290 39.3248 1.6472
61.1490 39.3115 1.6439
61.1690 39.2981 1.6410
61.1890 39.2847 1.6394
61.2090 39.2713 1.6378
61.2290 39.2580 1.6310
61.2490 39.2447 1.6311
61.2690 39.2314 1.6277
61.2890 39.2180 1.6238
61.3090 39.2047 1.6218
61.3290 39.1914 1.6207
61.3490 39.1781 1.6151
61.3690 39.1647 1.6136
61.3890 39.1514 1.6106
61.4090 39.1381 1.6091
61.4290 39.1248 1.6066
61.4490 39.1115 1.6024
61.4690 39.0981 1.5983
61.4890 39.0848 1.5974
61.5090 39.0715 1.5956
61.5290 39.0581 1.5903
61.5490 39.0447 1.5908
61.5690 39.0313 1.5860
61.5890 39.0180 1.5825
61.6090 39.0047 1.5802
61.6290 38.9914 1.5766
61.6490 38.9780 1.5733
61.6690 38.9647 1.5727
61.6890 38.9514 1.5685
61.7090 38.9381 1.5656
61.7290 38.9248 1.5661
61.7490 38.9115 1.5631
61.7690 38.8982 1.5604
61.7890 38.8849 1.5568
61.8090 38.8715 1.5583
61.8290 38.8581 1.5521
61.8490 38.8447 1.5523
61.8690 38.8314 1.5490
61.8890 38.8181 1.5441
61.9090 38.8047 1.5406
61.9290 38.7914 1.5412
61.9490 38.7781 1.5348
61.9690 38.7648 1.5366
61.9890 38.7514 1.5346
62.0090 38.7381 1.5293
62.0290 38.7247 1.5295
62.0490 38.7114 1.5275
62.0690 38.6981 1.5224
62.0890 38.6847 1.5190
62.1090 38.6714 1.5182
62.1290 38.6581 1.5134
62.1490 38.6448 1.5137
62.1690 38.6315 1.5104
62.1890 38.6181 1.5089
62.2090 38.6048 1.5064
62.2290 38.5915 1.5045
62.2490 38.5781 1.5005
62.2690 38.5647 1.4981
62.2890 38.5514 1.4968
62.3090 38.5381 1.4928
62.3290 38.5247 1.4921
62.3490 38.5114 1.4899
62.3690 38.4980 1.4851
62.3890 38.4847 1.4840
62.4090 38.4714 1.4829
62.4290 38.4581 1.4794
62.4490 38.4447 1.4777
62.4690 38.4314 1.4764
62.4890 38.4181 1.4726
62.5090 38.4048 1.4725
62.5290 38.3915 1.4689
62.5490 38.3781 1.4675
62.5690 38.3648 1.4653
62.5890 38.3514 1.4635
62.6090 38.3381 1.4588
62.6290 38.3247 1.4583
62.6490 38.3114 1.4560
62.6690 38.2981 1.4516
62.6890 38.2847 1.4506
62.7090 38.2714 1.4488
62.7290 38.2580 1.4467
62.7490 38.2447 1.4443
62.7690 38.2314 1.4440
62.7890 38.2181 1.4408
62.8090 38.2047 1.4404
62.8290 38.1914 1.4388
62.8490 38.1781 1.4350
62.8690 38.1648 1.4326
62.8890 38.1515 1.4310
62.9090 38.1381 1.4257
62.9290 38.1248 1.4262
62.9490 38.1115 1.4256
62.9690 38.0981 1.4234
62.9890 38.0848 1.4208
63.0090 38.0714 1.4181
63.0290 38.0581 1.4151
63.0490 38.0448 1.4132
63.0690 38.0314 1.4128
63.0890 38.0181 1.4096
63.1090 38.0047 1.4072
63.1290 37.9914 1.4063
63.1490 37.9781 1.4022
63.1690 37.9647 1.3999
63.1890 37.9514 1.4002
63.2090 37.9381 1.3968
63.2290 37.9248 1.3971
63.2490 37.9115 1.3953
63.2690 37.8981 1.3920
63.2890 37.8848 1.3909
63.3090 37.8714 1.3892
63.3290 37.8581 1.3861
63.3490 37.8447 1.3858
63.3690 37.8314 1.3826
63.3890 37.8181 1.3806
63.4090 37.8048 1.3783
63.4290 37.7914 1.3757
63.4490 37.7781 1.3742
63.4690 37.7647 1.3750
63.4890 37.7514 1.3724
63.5090 37.7381 1.3699
63.5290 37.7248 1.3663
63.5490 37.7114 1.3664
63.5690 37.6981 1.3634
63.5890 37.6848 1.3613
63.6090 37.6715 1.3595
63.6290 37.6581 1.3557
63.6490 37.6448 1.3563
63.6690 37.6314 1.3554
63.6890 37.6181 1.3508
63.7090 37.6047 1.3518
63.7290 37.5914 1.3491
63.7490 37.5781 1.3459
63.7690 37.5647 1.3456
63.7890 37.5514 1.3436
63.8090 37.5380 1.3414
63.8290 37.5247 1.3397
63.8490 37.5114 1.3362
63.8690 37.4981 1.3345
63.8890 37.4848 1.3342
63.9090 37.4714 1.3343
63.9290 37.4581 1.3287
63.9490 37.4448 1.3276
63.9690 37.4315 1.3280
63.9890 37.4181 1.3233
64.0090 37.4047 1.3240
64.0290 37.3914 1.3229
64.0490 37.3781 1.3202
64.0690 37.3648 1.3171
64.0890 37.3514 1.3164
64.1090 37.3381 1.3146
64.1290 37.3248 1.3131
64.1490 37.3114 1.3118
64.1690 37.2981 1.3100
64.1890 37.2847 1.3075
64.2090 37.2714 1.3087
64.2290 37.2581 1.3040
64.2490 37.2447 1.3026
64.2690 37.2314 1.3017
64.2890 37.2181 1.2982
64.3090 37.2048 1.2957
64.3290 37.1915 1.2960
64.3490 37.1782 1.2937
64.3690 37.1648 1.2912
64.3890 37.1515 1.2901
64.4090 37.1382 1.2892
64.4290 37.1248 1.2870
64.4490 37.1114 1.2875
64.4690 37.0980 1.2828
64.4890 37.0847 1.2815
64.5090 37.0714 1.2815
64.5290 37.0580 1.2791
64.5490 37.0447 1.2784
64.5690 37.0314 1.2775
64.5890 37.0181 1.2733
64.6090 37.0048 1.2717
64.6290 36.9914 1.2721
64.6490 36.9781 1.2697
64.6690 36.9648 1.2691
64.6890 36.9515 1.2684
64.7090 36.9381 1.2645
64.7290 36.9248 1.2638
64.7490 36.9114 1.2630
64.7690 36.8981 1.2612
64.7890 36.8847 1.2597
64.8090 36.8714 1.2586
64.8290 36.8580 1.2567
64.8490 36.8447 1.2554
64.8690 36.8314 1.2528
64.8890 36.8180 1.2518
64.9090 36.8047 1.2503
64.9290 36.7914 1.2506
64.9490 36.7781 1.2467
64.9690 36.7647 1.2456
64.9890 36.7514 1.2449
65.0090 36.7381 1.2441
65.0290 36.7248 1.2410
65.0490 36.7115 1.2412
65.0690 36.6981 1.2358
65.0890 36.6848 1.2356
65.1090 36.6714 1.2344
65.1290 36.6581 1.2316
65.1490 36.6448 1.2316
65.1690 36.6314 1.2317
65.1890 36.6180 1.2299
65.2090 36.6047 1.2255
65.2290 36.5914 1.2262
65.2490 36.5780 1.2242
65.2690 36.5647 1.2222
65.2890 36.5514 1.2218
65.3090 36.5381 1.2191
65.3290 36.5247 1.2171
65.3490 36.5114 1.2199
65.3690 36.4981 1.2163
65.3890 36.4848 1.2160
65.4090 36.4715 1.2141
65.4290 36.4581 1.2122
65.4490 36.4448 1.2080
65.4690 36.4315 1.2111
65.4890 36.4181 1.2062
65.5090 36.4048 1.2050
65.5290 36.3914 1.2044
65.5490 36.3780 1.2040
65.5690 36.3647 1.1992
65.5890 36.3514 1.2011
65.6090 36.3380 1.1998
65.6290 36.3247 1.1986
65.6490 36.3114 1.1974
65.6690 36.2981 1.1958
65.6890 36.2848 1.1942
65.7090 36.2714 1.1921
65.7290 36.2581 1.1913
65.7490 36.2448 1.1884
65.7690 36.2315 1.1894
65.7890 36.2181 1.1870
65.8090 36.2048 1.1839
65.8290 36.1914 1.1845
65.8490 36.1781 1.1817
65.8690 36.1648 1.1805
65.8890 36.1514 1.1812
65.9090 36.1381 1.1783
65.9290 36.1248 1.1759
65.9490 36.1114 1.1766
65.9690 36.0981 1.1756
65.9890 36.0847 1.1736
66.0090 36.0714 1.1725
66.0290 36.0581 1.1692
66.0490 36.0447 1.1678
66.0690 36.0314 1.1690
66.0890 36.0181 1.1662
66.1090 36.0048 1.1630
66.1290 35.9915 1.1656
66.1490 35.9781 1.1620
66.1690 35.9648 1.1599
66.1890 35.9514 1.1604
66.2090 35.9381 1.1583
66.2290 35.9248 1.1581
66.2490 35.9114 1.1570
66.2690 35.8981 1.1565
66.2890 35.8848 1.1537
66.3090 35.8714 1.1532
66.3290 35.8581 1.1532
66.3490 35.8447 1.1518
66.3690 35.8314 1.1508
66.3890 35.8180 1.1485
66.4090 35.8047 1.1448
66.4290 35.7914 1.1430
66.4490 35.7780 1.1433
66.4690 35.7648 1.1410
66.4890 35.7515 1.1413
66.5090 35.7381 1.1385
66.5290 35.7248 1.1380
66.5490 35.7115 1.1372
66.5690 35.6981 1.1352
66.5890 35.6848 1.1334
66.6090 35.6714 1.1331
66.6290 35.6580 1.1316
66.6490 35.6447 1.1300
66.6690 35.6314 1.1323
66.6890 35.6180 1.1273
66.7090 35.6047 1.1268
66.7290 35.5913 1.1253
66.7490 35.5781 1.1267
66.7690 35.5648 1.1225
66.7890 35.5514 1.1238
66.8090 35.5381 1.1225
66.8290 35.5248 1.1201
66.8490 35.5115 1.1192
66.8690 35.4981 1.1186
66.8890 35.4848 1.1151
66.9090 35.4714 1.1131
66.9290 35.4581 1.1132
66.9490 35.4448 1.1102
66.9690 35.4314 1.1141
66.9890 35.4180 1.1084
67.0090 35.4047 1.1082
67.0290 35.3914 1.1062
67.0490 35.3781 1.1061
67.0690 35.3647 1.1032
67.0890 35.3514 1.1071
67.1090 35.3381 1.1032
67.1290 35.3248 1.1010
67.1490 35.3114 1.1000
67.1690 35.2981 1.1001
67.1890 35.2848 1.0975
67.2090 35.2715 1.0979
67.2290 35.2581 1.0959
67.2490 35.2448 1.0940
67.2690 35.2314 1.0930
67.2890 35.2181 1.0916
67.3090 35.2048 1.0910
67.3290 35.1914 1.0915
67.3490 35.1780 1.0893
67.3690 35.1647 1.0869
67.3890 35.1514 1.0862
67.4090 35.1381 1.0870
67.4290 35.1247 1.0841
67.4490 35.1114 1.0843
67.4690 35.0981 1.0828
67.4890 35.0848 1.0813
67.5090 35.0714 1.0814
67.5290 35.0581 1.0804
67.5490 35.0448 1.0765
67.5690 35.0315 1.0770
67.5890 35.0181 1.0760
67.6090 35.0048 1.0756
67.6290 34.9914 1.0735
67.6490 34.9781 1.0722
67.6690 34.9648 1.0700
67.6890 34.9514 1.0705
67.7090 34.9380 1.0697
67.7290 34.9247 1.0670
67.7490 34.9114 1.0696
67.7690 34.8981 1.0658
67.7890 34.8847 1.0652
67.8090 34.8714 1.0639
67.8290 34.8581 1.0638
67.8490 34.8448 1.0611
67.8690 34.8314 1.0612
67.8890 34.8181 1.0597
67.9090 34.8048 1.0572
67.9290 34.7915 1.0581
67.9490 34.7782 1.0560
67.9690 34.7648 1.0546
67.9890 34.7514 1.0563
68.0090 34.7380 1.0546
68.0290 34.7247 1.0511
68.0490 34.7114 1.0499
68.0690 34.6980 1.0502
68.0890 34.6847 1.0494
68.1090 34.6714 1.0481
68.1290 34.6581 1.0472
68.1490 34.6447 1.0438
68.1690 34.6313 1.0443
68.1890 34.6180 1.0446
68.2090 34.6047 1.0414
68.2290 34.5914 1.0433
68.2490 34.5781 1.0407
68.2690 34.5648 1.0395
68.2890 34.5515 1.0395
68.3090 34.5382 1.0397
68.3290 34.5248 1.0360
68.3490 34.5114 1.0358
68.3690 34.4981 1.0331
68.3890 34.4848 1.0323
68.4090 34.4714 1.0320
68.4290 34.4580 1.0312
68.4490 34.4447 1.0286
68.4690 34.4314 1.0290
68.4890 34.4181 1.0268
68.5090 34.4047 1.0260
68.5290 34.3913 1.0269
68.5490 34.3781 1.0249
68.5690 34.3648 1.0234
68.5890 34.3514 1.0238
68.6090 34.3381 1.0229
68.6290 34.3248 1.0226
68.6490 34.3115 1.0219
68.6690 34.2982 1.0211
68.6890 34.2848 1.0186
68.7090 34.2715 1.0170
68.7290 34.2581 1.0158
68.7490 34.2448 1.0142
68.7690 34.2314 1.0166
68.7890 34.2180 1.0130
68.8090 34.2047 1.0105
68.8290 34.1914 1.0110
68.8490 34.1781 1.0099
68.8690 34.1647 1.0086
68.8890 34.1514 1.0085
68.9090 34.1381 1.0065
68.9290 34.1247 1.0074
68.9490 34.1114 1.0068
68.9690 34.0981 1.0064
68.9890 34.0848 1.0024
69.0090 34.0715 1.0011
69.0290 34.0582 0.9993
69.0490 34.0448 0.9980
69.0690 34.0314 0.9987
69.0890 34.0181 1.0011
69.1090 34.0048 0.9982
69.1290 33.9914 0.9977
69.1490 33.9780 0.9954
69.1690 33.9647 0.9951
69.1890 33.9514 0.9926
69.2090 33.9381 0.9953
69.2290 33.9247 0.9932
69.2490 33.9114 0.9917
69.2690 33.8981 0.9895
69.2890 33.8848 0.9893
69.3090 33.8714 0.9880
69.3290 33.8581 0.9875
69.3490 33.8447 0.9857
69.3690 33.8314 0.9855
69.3890 33.8181 0.9837
69.4090 33.8048 0.9850
69.4290 33.7914 0.9836
69.4490 33.7781 0.9825
69.4690 33.7648 0.9791
69.4890 33.7514 0.9791
69.5090 33.7380 0.9794
69.5290 33.7247 0.9788
69.5490 33.7114 0.9770
69.5690 33.6981 0.9794
69.5890 33.6847 0.9761
69.6090 33.6713 0.9757
69.6290 33.6580 0.9739
69.6490 33.6447 0.9743
69.6690 33.6314 0.9733
69.6890 33.6181 0.9717
69.7090 33.6048 0.9716
69.7290 33.5915 0.9709
69.7490 33.5781 0.9693
69.7690 33.5648 0.9672
69.7890 33.5514 0.9667
69.8090 33.5381 0.9668
69.8290 33.5248 0.9638
69.8490 33.5114 0.9628
69.8690 33.4980 0.9620
69.8890 33.4847 0.9612
69.9090 33.4714 0.9617
69.9290 33.4581 0.9597
69.9490 33.4447 0.9599
69.9690 33.4314 0.9589
69.9890 33.4181 0.9589
70.0090 33.4048 0.9572
70.0290 33.3914 0.9541
70.0490 33.3781 0.9552
70.0690 33.3647 0.9550
70.0890 33.3515 0.9533
70.1090 33.3381 0.9523
70.1290 33.3248 0.9527
70.1490 33.3114 0.9504
70.1690 33.2981 0.9508
70.1890 33.2848 0.9496
70.2090 33.2714 0.9472
70.2290 33.2581 0.9467
70.2490 33.2447 0.9468
70.2690 33.2314 0.9455
70.2890 33.2181 0.9471
70.3090 33.2047 0.9462
70.3290 33.1913 0.9438
70.3490 33.1780 0.9429
70.3690 33.1647 0.9404
70.3890 33.1514 0.9394
70.4090 33.1380 0.9385
70.4290 33.1247 0.9383
70.4490 33.1114 0.9374
70.4690 33.0981 0.9383
70.4890 33.0848 0.9387
70.5090 33.0714 0.9369
70.5290 33.0581 0.9353
70.5490 33.0448 0.9332
70.5690 33.0314 0.9322
70.5890 33.0180 0.9330
70.6090 33.0047 0.9311
70.6290 32.9914 0.9310
70.6490 32.9781 0.9290
70.6690 32.9647 0.9279
70.6890 32.9514 0.9266
70.7090 32.9381 0.9271
70.7290 32.9248 0.9243
70.7490 32.9114 0.9260
70.7690 32.8981 0.9242
70.7890 32.8848 0.9248
70.8090 32.8715 0.9227
70.8290 32.8581 0.9246
70.8490 32.8448 0.9227
70.8690 32.8314 0.9230
70.8890 32.8181 0.9196
70.9090 32.8048 0.9212
70.9290 32.7914 0.9185
70.9490 32.7780 0.9193
70.9690 32.7647 0.9161
70.9890 32.7514 0.9166
71.0090 32.7381 0.9144
71.0290 32.7248 0.9141
71.0490 32.7114 0.9122
71.0690 32.6981 0.9123
71.0890 32.6848 0.9116
71.1090 32.6715 0.9116
71.1290 32.6581 0.9107
71.1490 32.6448 0.9112
71.1690 32.6315 0.9078
71.1890 32.6181 0.9077
71.2090 32.6048 0.9065
71.2290 32.5914 0.9069
71.2490 32.5781 0.9062
71.2690 32.5648 0.9063
71.2890 32.5514 0.9055
71.3090 32.5381 0.9041
71.3290 32.5247 0.9044
71.3490 32.5114 0.9007
71.3690 32.4981 0.9022
71.3890 32.4848 0.9003
71.4090 32.4714 0.8999
71.4290 32.4581 0.8991
71.4490 32.4448 0.8992
71.4690 32.4314 0.8963
71.4890 32.4181 0.8965
71.5090 32.4047 0.8955
71.5290 32.3914 0.8955
71.5490 32.3781 0.8941
71.5690 32.3648 0.8940
71.5890 32.3514 0.8913
71.6090 32.3381 0.8917
71.6290 32.3248 0.8923
71.6490 32.3115 0.8915
71.6690 32.2981 0.8901
71.6890 32.2847 0.8905
71.7090 32.2714 0.8868
71.7290 32.2581 0.8890
71.7490 32.2447 0.8865
71.7690 32.2313 0.8869
71.7890 32.2180 0.8847
71.8090 32.2047 0.8847
71.8290 32.1914 0.8852
71.8490 32.1781 0.8841
71.8690 32.1648 0.8834
71.8890 32.1515 0.8816
71.9090 32.1381 0.8815
71.9290 32.1248 0.8826
71.9490 32.1114 0.8790
71.9690 32.0981 0.8787
71.9890 32.0848 0.8777
72.0090 32.0714 0.8777
72.0290 32.0581 0.8755
72.0490 32.0447 0.8770
72.0690 32.0314 0.8740
72.0890 32.0181 0.8746
72.1090 32.0048 0.8730
72.1290 31.9914 0.8721
72.1490 31.9780 0.8722
72.1690 31.9647 0.8714
72.1890 31.9514 0.8699
72.2090 31.9381 0.8717
72.2290 31.9247 0.8711
72.2490 31.9115 0.8695
72.2690 31.8982 0.8675
72.2890 31.8848 0.8686
72.3090 31.8714 0.8673
72.3290 31.8581 0.8648
72.3490 31.8448 0.8658
72.3690 31.8314 0.8646
72.3890 31.8181 0.8616
72.4090 31.8047 0.8640
72.4290 31.7914 0.8640
72.4490 31.7781 0.8613
72.4690 31.7647 0.8597
72.4890 31.7514 0.8574
72.5090 31.7380 0.8580
72.5290 31.7247 0.8587
72.5490 31.7114 0.8581
72.5690 31.6981 0.8587
72.5890 31.6847 0.8574
72.6090 31.6714 0.8554
72.6290 31.6582 0.8536
72.6490 31.6448 0.8559
72.6690 31.6315 0.8538
72.6890 31.6181 0.8541
72.7090 31.6048 0.8522
72.7290 31.5915 0.8507
72.7490 31.5781 0.8504
72.7690 31.5647 0.8492
72.7890 31.5514 0.8470
72.8090 31.5381 0.8490
72.8290 31.5247 0.8499
72.8490 31.5113 0.8496
72.8690 31.4980 0.8490
72.8890 31.4847 0.8452
72.9090 31.4714 0.8470
72.9290 31.4581 0.8439
72.9490 31.4447 0.8456
72.9690 31.4314 0.8436
72.9890 31.4181 0.8455
73.0090 31.4048 0.8419
73.0290 31.3914 0.8432
73.0490 31.3781 0.8400
73.0690 31.3648 0.8406
73.0890 31.3515 0.8394
73.1090 31.3381 0.8385
73.1290 31.3247 0.8391
73.1490 31.3114 0.8382
73.1690 31.2981 0.8364
73.1890 31.2847 0.8356
73.2090 31.2714 0.8372
73.2290 31.2580 0.8355
73.2490 31.2447 0.8352
73.2690 31.2314 0.8331
73.2890 31.2181 0.8308
73.3090 31.2047 0.8312
73.3290 31.1914 0.8313
73.3490 31.1781 0.8328
73.3690 31.1648 0.8312
73.3890 31.1514 0.8322
73.4090 31.1381 0.8291
73.4290 31.1248 0.8280
73.4490 31.1115 0.8262
73.4690 31.0981 0.8244
73.4890 31.0847 0.8256
73.5090 31.0714 0.8254
73.5290 31.0581 0.8232
73.5490 31.0448 0.8253
73.5690 31.0314 0.8250
73.5890 31.0180 0.8219
73.6090 31.0047 0.8210
73.6290 30.9914 0.8219
73.6490 30.9781 0.8205
73.6690 30.9647 0.8206
73.6890 30.9514 0.8220
73.7090 30.9381 0.8178
73.7290 30.9248 0.8204
73.7490 30.9115 0.8194
73.7690 30.8981 0.8176
73.7890 30.8848 0.8169
73.8090 30.8715 0.8176
73.8290 30.8581 0.8128
73.8490 30.8447 0.8134
73.8690 30.8314 0.8154
73.8890 30.8180 0.8147
73.9090 30.8047 0.8151
73.9290 30.7914 0.8125
73.9490 30.7780 0.8131
73.9690 30.7647 0.8100
73.9890 30.7514 0.8119
74.0090 30.7381 0.8075
74.0290 30.7248 0.8093
74.0490 30.7115 0.8099
74.0690 30.6982 0.8088
74.0890 30.6848 0.8073
74.1090 30.6715 0.8075
74.1290 30.6581 0.8067
74.1490 30.6448 0.8035
74.1690 30.6314 0.8038
74.1890 30.6181 0.8009
74.2090 30.6047 0.8023
74.2290 30.5914 0.8017
74.2490 30.5781 0.8002
74.2690 30.5648 0.8008
74.2890 30.5514 0.8010
74.3090 30.5380 0.7985
74.3290 30.5247 0.8000
74.3490 30.5114 0.8005
74.3690 30.4981 0.7997
74.3890 30.4847 0.7987
74.4090 30.4714 0.7996
74.4290 30.4581 0.7969
74.4490 30.4448 0.7968
74.4690 30.4315 0.7971
74.4890 30.4181 0.7941
74.5090 30.4048 0.7927
74.5290 30.3914 0.7955
74.5490 30.3781 0.7935
74.5690 30.3647 0.7920
74.5890 30.3514 0.7934
74.6090 30.3381 0.7901
74.6290 30.3247 0.7903
74.6490 30.3114 0.7902
74.6690 30.2980 0.7877
74.6890 30.2847 0.7894
74.7090 30.2714 0.7869
74.7290 30.2581 0.7881
74.7490 30.2447 0.7855
74.7690 30.2314 0.7870
74.7890 30.2181 0.7840
74.8090 30.2048 0.7855
74.8290 30.1915 0.7845
74.8490 30.1781 0.7830
74.8690 30.1648 0.7830
74.8890 30.1514 0.7842
74.9090 30.1381 0.7820
74.9290 30.1247 0.7815
74.9490 30.1114 0.7824
74.9690 30.0981 0.7801
74.9890 30.0847 0.7793
75.0090 30.0714 0.7780
75.0290 30.0580 0.7777
75.0490 30.0447 0.7760
75.0690 30.0314 0.7802
75.0890 30.0181 0.7747
75.1090 30.0048 0.7761
75.1290 29.9914 0.7749
75.1490 29.9781 0.7752
75.1690 29.9648 0.7773
75.1890 29.9515 0.7756
75.2090 29.9381 0.7719
75.2290 29.9247 0.7730
75.2490 29.9114 0.7719
75.2690 29.8981 0.7695
75.2890 29.8847 0.7715
75.3090 29.8714 0.7690
75.3290 29.8581 0.7697
75.3490 29.8447 0.7670
75.3690 29.8314 0.7705
75.3890 29.8180 0.7666
75.4090 29.8047 0.7683
75.4290 29.7914 0.7670
75.4490 29.7781 0.7668
75.4690 29.7648 0.7652
75.4890 29.7514 0.7664
75.5090 29.7381 0.7648
75.5290 29.7248 0.7646
75.5490 29.7115 0.7657
75.5690 29.6981 0.7619
75.5890 29.6848 0.7607
75.6090 29.6714 0.7615
75.6290 29.6581 0.7629
75.6490 29.6447 0.7597
75.6690 29.6314 0.7614
75.6890 29.6180 0.7579
75.7090 29.6047 0.7605
75.7290 29.5914 0.7585
75.7490 29.5780 0.7579
75.7690 29.5647 0.7559
75.7890 29.5514 0.7594
75.8090 29.5381 0.7564
75.8290 29.5247 0.7571
75.8490 29.5114 0.7558
75.8690 29.4981 0.7556
75.8890 29.4848 0.7533
75.9090 29.4715 0.7551
75.9290 29.4581 0.7511
75.9490 29.4448 0.7515
75.9690 29.4315 0.7535
75.9890 29.4181 0.7508
76.0090 29.4047 0.7510
76.0290 29.3913 0.7510
76.0490 29.3780 0.7491
76.0690 29.3647 0.7490
76.0890 29.3514 0.7510
76.1090 29.3380 0.7467
76.1290 29.3247 0.7469
76.1490 29.3114 0.7467
76.1690 29.2981 0.7452
76.1890 29.2848 0.7457
76.2090 29.2714 0.7477
76.2290 29.2581 0.7455
76.2490 29.2448 0.7440
76.2690 29.2315 0.7443
76.2890 29.2181 0.7420
76.3090 29.2048 0.7437
76.3290 29.1914 0.7417
76.3490 29.1781 0.7412
76.3690 29.1647 0.7401
76.3890 29.1514 0.7423
76.4090 29.1381 0.7395
76.4290 29.1248 0.7400
76.4490 29.1115 0.7387
76.4690 29.0981 0.7386
76.4890 29.0847 0.7376
76.5090 29.0714 0.7376
76.5290 29.0581 0.7380
76.5490 29.0447 0.7348
76.5690 29.0314 0.7372
76.5890 29.0181 0.7364
76.6090 29.0048 0.7358
76.6290 28.9915 0.7356
76.6490 28.9781 0.7363
76.6690 28.9648 0.7340
76.6890 28.9515 0.7363
76.7090 28.9381 0.7313
76.7290 28.9247 0.7313
76.7490 28.9114 0.7311
76.7690 28.8980 0.7307
76.7890 28.8847 0.7302
76.8090 28.8714 0.7310
76.8290 28.8580 0.7266
76.8490 28.8447 0.7285
76.8690 28.8314 0.7285
76.8890 28.8181 0.7274
76.9090 28.8047 0.7271
76.9290 28.7914 0.7278
76.9490 28.7781 0.7265
76.9690 28.7648 0.7219
76.9890 28.7515 0.7259
77.0090 28.7381 0.7223
77.0290 28.7248 0.7241
77.0490 28.7115 0.7231
77.0690 28.6981 0.7237
77.0890 28.6848 0.7212
77.1090 28.6714 0.7236
77.1290 28.6581 0.7197
77.1490 28.6448 0.7198
77.1690 28.6314 0.7210
77.1890 28.6180 0.7172
77.2090 28.6047 0.7170
77.2290 28.5914 0.7199
77.2490 28.5781 0.7176
77.2690 28.5648 0.7177
77.2890 28.5514 0.7162
77.3090 28.5381 0.7150
77.3290 28.5248 0.7128
77.3490 28.5114 0.7153
77.3690 28.4981 0.7137
77.3890 28.4847 0.7142
77.4090 28.4714 0.7139
77.4290 28.4581 0.7108
77.4490 28.4448 0.7106
77.4690 28.4314 0.7116
77.4890 28.4181 0.7132
77.5090 28.4047 0.7105
77.5290 28.3914 0.7124
77.5490 28.3780 0.7096
77.5690 28.3647 0.7099
77.5890 28.3514 0.7086
77.6090 28.3381 0.7111
77.6290 28.3247 0.7080
77.6490 28.3114 0.7100
77.6690 28.2981 0.7059
77.6890 28.2848 0.7060
77.7090 28.2715 0.7075
77.7290 28.2581 0.7052
77.7490 28.2447 0.7064
77.7690 28.2314 0.7048
77.7890 28.2181 0.7053
77.8090 28.2047 0.7038
77.8290 28.1914 0.7076
77.8490 28.1780 0.7043
77.8690 28.1647 0.7024
77.8890 28.1514 0.7003
77.9090 28.1381 0.7016
77.9290 28.1247 0.7006
77.9490 28.1114 0.7033
77.9690 28.0981 0.6999
77.9890 28.0848 0.6970
78.0090 28.0714 0.6985
78.0290 28.0581 0.6978
78.0490 28.0448 0.6967
78.0690 28.0315 0.6971
78.0890 28.0181 0.6984
78.1090 28.0047 0.6955
78.1290 27.9914 0.6966
78.1490 27.9781 0.6945
78.1690 27.9647 0.6943
78.1890 27.9514 0.6935
78.2090 27.9380 0.6935
78.2290 27.9247 0.6927
78.2490 27.9114 0.6938
78.2690 27.8981 0.6936
78.2890 27.8847 0.6916
78.3090 27.8714 0.6930
78.3290 27.8581 0.6915
78.3490 27.8448 0.6889
78.3690 27.8314 0.6918
78.3890 27.8181 0.6911
78.4090 27.8048 0.6890
78.4290 27.7915 0.6903
78.4490 27.7781 0.6902
78.4690 27.7647 0.6891
78.4890 27.7514 0.6882
78.5090 27.7381 0.6885
78.5290 27.7248 0.6836
78.5490 27.7114 0.6860
78.5690 27.6980 0.6830
78.5890 27.6847 0.6837
78.6090 27.6714 0.6858
78.6290 27.6581 0.6852
78.6490 27.6447 0.6846
78.6690 27.6314 0.6847
78.6890 27.6181 0.6824
78.7090 27.6047 0.6818
78.7290 27.5914 0.6807
78.7490 27.5781 0.6818
78.7690 27.5648 0.6819
78.7890 27.5515 0.6824
78.8090 27.5381 0.6809
78.8290 27.5248 0.6782
78.8490 27.5115 0.6781
78.8690 27.4981 0.6790
78.8890 27.4848 0.6764
78.9090 27.4714 0.6781
78.9290 27.4580 0.6772
78.9490 27.4447 0.6764
78.9690 27.4314 0.6767
78.9890 27.4180 0.6779
79.0090 27.4047 0.6746
79.0290 27.3914 0.6747
79.0490 27.3781 0.6754
79.0690 27.3648 0.6727
79.0890 27.3514 0.6741
79.1090 27.3381 0.6734
79.1290 27.3248 0.6706
79.1490 27.3115 0.6727
79.1690 27.2981 0.6718
79.1890 27.2848 0.6713
79.2090 27.2714 0.6705
79.2290 27.2581 0.6710
79.2490 27.2448 0.6683
79.2690 27.2314 0.6694
79.2890 27.2180 0.6693
79.3090 27.2047 0.6659
79.3290 27.1914 0.6675
79.3490 27.1781 0.6678
79.3690 27.1647 0.6662
79.3890 27.1514 0.6647
79.4090 27.1381 0.6661
79.4290 27.1247 0.6653
79.4490 27.1114 0.6670
79.4690 27.0981 0.6635
79.4890 27.0848 0.6645
79.5090 27.0715 0.6638
79.5290 27.0581 0.6656
79.5490 27.0448 0.6617
79.5690 27.0314 0.6624
79.5890 27.0181 0.6623
79.6090 27.0048 0.6595
79.6290 26.9914 0.6606
79.6490 26.9780 0.6608
79.6690 26.9647 0.6593
79.6890 26.9514 0.6601
79.7090 26.9380 0.6590
79.7290 26.9247 0.6584
79.7490 26.9114 0.6592
79.7690 26.8981 0.6597
79.7890 26.8847 0.6562
79.8090 26.8714 0.6569
79.8290 26.8581 0.6565
79.8490 26.8448 0.6554
79.8690 26.8315 0.6545
79.8890 26.8182 0.6572
79.9090 26.8048 0.6548
79.9290 26.7915 0.6558
79.9490 26.7781 0.6552
79.9690 26.7648 0.6517
79.9890 26.7514 0.6522
80.0090 26.7380 0.6522
80.0290 26.7247 0.6513
80.0490 26.7114 0.6511
80.0690 26.6980 0.6512
80.0890 26.6847 0.6470
80.1090 26.6714 0.6500
80.1290 26.6581 0.6490
80.1490 26.6447 0.6484
80.1690 26.6314 0.6480
80.1890 26.6181 0.6511
80.2090 26.6048 0.6472
80.2290 26.5915 0.6497
80.2490 26.5781 0.6492
80.2690 26.5648 0.6478
80.2890 26.5514 0.6466
80.3090 26.5381 0.6480
80.3290 26.5248 0.6457
80.3490 26.5114 0.6448
80.3690 26.4981 0.6453
80.3890 26.4847 0.6433
80.4090 26.4714 0.6423
80.4290 26.4581 0.6446
80.4490 26.4447 0.6410
80.4690 26.4314 0.6444
80.4890 26.4181 0.6444
80.5090 26.4047 0.6433
80.5290 26.3914 0.6410
80.5490 26.3781 0.6445
80.5690 26.3648 0.6407
80.5890 26.3515 0.6410
80.6090 26.3381 0.6414
80.6290 26.3248 0.6388
80.6490 26.3114 0.6390
80.6690 26.2981 0.6401
80.6890 26.2848 0.6384
80.7090 26.2714 0.6377
80.7290 26.2581 0.6394
80.7490 26.2448 0.6348
80.7690 26.2314 0.6375
80.7890 26.2181 0.6379
80.8090 26.2047 0.6368
80.8290 26.1914 0.6363
80.8490 26.1780 0.6367
80.8690 26.1647 0.6345
80.8890 26.1514 0.6329
80.9090 26.1381 0.6355
80.9290 26.1248 0.6295
80.9490 26.1115 0.6314
80.9690 26.0981 0.6323
80.9890 26.0848 0.6313
81.0090 26.0714 0.6318
81.0290 26.0581 0.6325
81.0490 26.0448 0.6270
81.0690 26.0314 0.6304
81.0890 26.0180 0.6299
81.1090 26.0047 0.6281
81.1290 25.9914 0.6298
81.1490 25.9780 0.6290
81.1690 25.9647 0.6279
81.1890 25.9513 0.6277
81.2090 25.9381 0.6288
81.2290 25.9248 0.6250
81.2490 25.9114 0.6260
81.2690 25.8981 0.6281
81.2890 25.8848 0.6270
81.3090 25.8715 0.6248
81.3290 25.8582 0.6230
81.3490 25.8448 0.6232
81.3690 25.8314 0.6227
81.3890 25.8181 0.6255
81.4090 25.8048 0.6242
81.4290 25.7914 0.6223
81.4490 25.7780 0.6231
81.4690 25.7647 0.6216
81.4890 25.7514 0.6206
81.5090 25.7381 0.6217
81.5290 25.7247 0.6201
81.5490 25.7114 0.6211
81.5690 25.6981 0.6208
81.5890 25.6847 0.6188
81.6090 25.6714 0.6207
81.6290 25.6581 0.6198
81.6490 25.6448 0.6188
81.6690 25.6315 0.6186
81.6890 25.6181 0.6195
81.7090 25.6048 0.6166
81.7290 25.5915 0.6177
81.7490 25.5781 0.6158
81.7690 25.5648 0.6145
81.7890 25.5514 0.6149
81.8090 25.5380 0.6178
81.8290 25.5247 0.6159
81.8490 25.5114 0.6143
81.8690 25.4981 0.6134
81.8890 25.4847 0.6127
81.9090 25.4713 0.6120
81.9290 25.4580 0.6138
81.9490 25.4447 0.6119
81.9690 25.4314 0.6119
81.9890 25.4181 0.6112
82.0090 25.4048 0.6110
82.0290 25.3915 0.6096
82.0490 25.3782 0.6105
82.0690 25.3648 0.6073
82.0890 25.3514 0.6080
82.1090 25.3381 0.6106
82.1290 25.3248 0.6094
82.1490 25.3114 0.6094
82.1690 25.2980 0.6084
82.1890 25.2847 0.6093
82.2090 25.2714 0.6067
82.2290 25.2581 0.6053
82.2490 25.2447 0.6052
82.2690 25.2314 0.6058
82.2890 25.2181 0.6054
82.3090 25.2048 0.6043
82.3290 25.1914 0.6061
82.3490 25.1781 0.6042
82.3690 25.1648 0.6042
82.3890 25.1515 0.6032
82.4090 25.1381 0.6045
82.4290 25.1248 0.6023
82.4490 25.1114 0.6030
82.4690 25.0981 0.6027
82.4890 25.0848 0.6008
82.5090 25.0714 0.6007
82.5290 25.0580 0.6036
82.5490 25.0447 0.5995
82.5690 25.0314 0.5994
82.5890 25.0181 0.6019
82.6090 25.0047 0.5989
82.6290 24.9913 0.5989
82.6490 24.9780 0.6003
82.6690 24.9647 0.5979
82.6890 24.9514 0.5973
82.7090 24.9381 0.5984
82.7290 24.9248 0.5974
82.7490 24.9115 0.5952
82.7690 24.8982 0.5982
82.7890 24.8848 0.5972
82.8090 24.8714 0.5966
82.8290 24.8581 0.5949
82.8490 24.8448 0.5943
82.8690 24.8314 0.5930
82.8890 24.8180 0.5943
82.9090 24.8047 0.5937
82.9290 24.7914 0.5934
82.9490 24.7781 0.5935
82.9690 24.7647 0.5904
82.9890 24.7513 0.5907
83.0090 24.7380 0.5917
83.0290 24.7247 0.5934
83.0490 24.7114 0.5901
83.0690 24.6981 0.5937
83.0890 24.6848 0.5903
83.1090 24.6715 0.5911
83.1290 24.6582 0.5918
83.1490 24.6448 0.5899
83.1690 24.6315 0.5888
83.1890 24.6181 0.5919
83.2090 24.6048 0.5870
83.2290 24.5914 0.5891
83.2490 24.5780 0.5882
83.2690 24.5647 0.5883
83.2890 24.5514 0.5860
83.3090 24.5381 0.5877
83.3290 24.5247 0.5857
83.3490 24.5114 0.5857
83.3690 24.4981 0.5865
83.3890 24.4848 0.5850
83.4090 24.4714 0.5839
83.4290 24.4581 0.5855
83.4490 24.4448 0.5837
83.4690 24.4315 0.5828
83.4890 24.4182 0.5825
83.5090 24.4048 0.5828
83.5290 24.3914 0.5812
83.5490 24.3781 0.5838
83.5690 24.3648 0.5821
83.5890 24.3514 0.5801
83.6090 24.3380 0.5818
83.6290 24.3247 0.5809
83.6490 24.3114 0.5791
83.6690 24.2981 0.5806
83.6890 24.2848 0.5797
83.7090 24.2714 0.5789
83.7290 24.2580 0.5817
83.7490 24.2447 0.5803
83.7690 24.2314 0.5795
83.7890 24.2180 0.5783
83.8090 24.2047 0.5791
83.8290 24.1914 0.5747
83.8490 24.1781 0.5771
83.8690 24.1648 0.5756
83.8890 24.1514 0.5760
83.9090 24.1381 0.5766
83.9290 24.1248 0.5779
83.9490 24.1114 0.5733
83.9690 24.0980 0.5762
83.9890 24.0847 0.5732
84.0090 24.0714 0.5733
84.0290 24.0581 0.5744
84.0490 24.0447 0.5731
84.0690 24.0313 0.5693
84.0890 24.0180 0.5729
84.1090 24.0047 0.5704
84.1290 23.9914 0.5697
84.1490 23.9781 0.5705
84.1690 23.9648 0.5713
84.1890 23.9515 0.5704
84.2090 23.9381 0.5723
84.2290 23.9248 0.5693
84.2490 23.9114 0.5680
84.2690 23.8981 0.5686
84.2890 23.8848 0.5671
84.3090 23.8714 0.5667
84.3290 23.8581 0.5683
84.3490 23.8447 0.5697
84.3690 23.8314 0.5677
84.3890 23.8181 0.5685
84.4090 23.8047 0.5669
84.4290 23.7914 0.5651
84.4490 23.7781 0.5671
84.4690 23.7648 0.5646
84.4890 23.7514 0.5642
84.5090 23.7381 0.5650
84.5290 23.7247 0.5663
84.5490 23.7114 0.5647
84.5690 23.6981 0.5663
84.5890 23.6848 0.5651
84.6090 23.6714 0.5625
84.6290 23.6581 0.5626
84.6490 23.6448 0.5620
84.6690 23.6315 0.5606
84.6890 23.6181 0.5623
84.7090 23.6047 0.5604
84.7290 23.5914 0.5593
84.7490 23.5781 0.5608
84.7690 23.5647 0.5579
84.7890 23.5514 0.5579
84.8090 23.5381 0.5580
84.8290 23.5248 0.5600
84.8490 23.5114 0.5588
84.8690 23.4981 0.5579
84.8890 23.4847 0.5583
84.9090 23.4714 0.5562
84.9290 23.4581 0.5560
84.9490 23.4448 0.5550
84.9690 23.4314 0.5547
84.9890 23.4181 0.5562
85.0090 23.4048 0.5570
85.0290 23.3914 0.5546
85.0490 23.3780 0.5553
85.0690 23.3647 0.5572
85.0890 23.3514 0.5561
85.1090 23.3381 0.5553
85.1290 23.3247 0.5543
85.1490 23.3114 0.5526
85.1690 23.2981 0.5525
85.1890 23.2847 0.5537
85.2090 23.2714 0.5504
85.2290 23.2581 0.5539
85.2490 23.2447 0.5519
85.2690 23.2314 0.5503
85.2890 23.2181 0.5499
85.3090 23.2048 0.5525
85.3290 23.1914 0.5504
85.3490 23.1780 0.5528
85.3690 23.1647 0.5517
85.3890 23.1514 0.5494
85.4090 23.1381 0.5480
85.4290 23.1247 0.5495
85.4490 23.1114 0.5473
85.4690 23.0981 0.5474
85.4890 23.0847 0.5461
85.5090 23.0714 0.5445
85.5290 23.0580 0.5465
85.5490 23.0447 0.5461
85.5690 23.0314 0.5457
85.5890 23.0181 0.5456
85.6090 23.0048 0.5455
85.6290 22.9915 0.5436
85.6490 22.9781 0.5461
85.6690 22.9648 0.5448
85.6890 22.9514 0.5404
85.7090 22.9381 0.5433
85.7290 22.9248 0.5440
85.7490 22.9114 0.5429
85.7690 22.8981 0.5415
85.7890 22.8847 0.5448
85.8090 22.8714 0.5409
85.8290 22.8581 0.5413
85.8490 22.8448 0.5416
85.8690 22.8314 0.5409
85.8890 22.8181 0.5423
85.9090 22.8047 0.5416
85.9290 22.7914 0.5398
85.9490 22.7781 0.5397
85.9690 22.7647 0.5429
85.9890 22.7514 0.5387
86.0090 22.7381 0.5385
86.0290 22.7248 0.5380
86.0490 22.7115 0.5378
86.0690 22.6981 0.5390
86.0890 22.6848 0.5392
86.1090 22.6715 0.5355
86.1290 22.6581 0.5366
86.1490 22.6447 0.5358
86.1690 22.6314 0.5351
86.1890 22.6181 0.5350
86.2090 22.6047 0.5353
86.2290 22.5914 0.5335
86.2490 22.5780 0.5341
86.2690 22.5647 0.5365
86.2890 22.5514 0.5340
86.3090 22.5381 0.5337
86.3290 22.5247 0.5333
86.3490 22.5114 0.5320
86.3690 22.4981 0.5330
86.3890 22.4848 0.5331
86.4090 22.4714 0.5319
86.4290 22.4581 0.5329
86.4490 22.4448 0.5326
86.4690 22.4314 0.5306
86.4890 22.4181 0.5291
86.5090 22.4047 0.5304
86.5290 22.3914 0.5282
86.5490 22.3781 0.5280
86.5690 22.3647 0.5287
86.5890 22.3514 0.5268
86.6090 22.3380 0.5308
86.6290 22.3247 0.5313
86.6490 22.3114 0.5286
86.6690 22.2981 0.5269
86.6890 22.2847 0.5294
86.7090 22.2714 0.5265
86.7290 22.2581 0.5274
86.7490 22.2448 0.5287
86.7690 22.2314 0.5275
86.7890 22.2181 0.5277
86.8090 22.2048 0.5273
86.8290 22.1914 0.5222
86.8490 22.1781 0.5229
86.8690 22.1647 0.5245
86.8890 22.1514 0.5233
86.9090 22.1381 0.5222
86.9290 22.1247 0.5247
86.9490 22.1114 0.5209
86.9690 22.0980 0.5243
86.9890 22.0847 0.5239
87.0090 22.0714 0.5243
87.0290 22.0581 0.5230
87.0490 22.0447 0.5242
87.0690 22.0314 0.5224
87.0890 22.0182 0.5213
87.1090 22.0048 0.5216
87.1290 21.9915 0.5196
87.1490 21.9781 0.5200
87.1690 21.9648 0.5208
87.1890 21.9515 0.5201
87.2090 21.9381 0.5197
87.2290 21.9247 0.5201
87.2490 21.9114 0.5188
87.2690 21.8980 0.5169
87.2890 21.8847 0.5174
87.3090 21.8714 0.5175
87.3290 21.8580 0.5176
87.3490 21.8447 0.5198
87.3690 21.8314 0.5162
87.3890 21.8181 0.5160
87.4090 21.8047 0.5149
87.4290 21.7914 0.5147
87.4490 21.7781 0.5150
87.4690 21.7648 0.5146
87.4890 21.7514 0.5144
87.5090 21.7381 0.5149
87.5290 21.7248 0.5148
87.5490 21.7115 0.5140
87.5690 21.6981 0.5136
87.5890 21.6847 0.5155
87.6090 21.6714 0.5129
87.6290 21.6581 0.5126
87.6490 21.6448 0.5124
87.6690 21.6314 0.5124
87.6890 21.6180 0.5095
87.7090 21.6047 0.5129
87.7290 21.5914 0.5095
87.7490 21.5780 0.5103
87.7690 21.5647 0.5087
87.7890 21.5514 0.5096
87.8090 21.5381 0.5092
87.8290 21.5248 0.5116
87.8490 21.5115 0.5109
87.8690 21.4981 0.5086
87.8890 21.4848 0.5080
87.9090 21.4715 0.5067
87.9290 21.4581 0.5085
87.9490 21.4447 0.5068
87.9690 21.4314 0.5069
87.9890 21.4181 0.5053
88.0090 21.4048 0.5072
88.0290 21.3914 0.5059
88.0490 21.3780 0.5058
88.0690 21.3647 0.5046
88.0890 21.3514 0.5054
88.1090 21.3380 0.5040
88.1290 21.3247 0.5051
88.1490 21.3114 0.5055
88.1690 21.2981 0.5035
88.1890 21.2848 0.5043
88.2090 21.2715 0.5019
88.2290 21.2581 0.5035
88.2490 21.2448 0.5032
88.2690 21.2315 0.5033
88.2890 21.2181 0.5015
88.3090 21.2047 0.5026
88.3290 21.1914 0.5009
88.3490 21.1780 0.5012
88.3690 21.1647 0.5012
88.3890 21.1514 0.5011
88.4090 21.1380 0.4986
88.4290 21.1247 0.4996
88.4490 21.1114 0.5001
88.4690 21.0981 0.4996
88.4890 21.0848 0.4995
88.5090 21.0715 0.4978
88.5290 21.0582 0.4980
88.5490 21.0448 0.4980
88.5690 21.0315 0.4981
88.5890 21.0181 0.4961
88.6090 21.0048 0.4965
88.6290 20.9914 0.4987
88.6490 20.9781 0.4956
88.6690 20.9647 0.4960
88.6890 20.9514 0.4959
88.7090 20.9381 0.4947
88.7290 20.9248 0.4946
88.7490 20.9114 0.4938
88.7690 20.8980 0.4939
88.7890 20.8847 0.4958
88.8090 20.8714 0.4943
88.8290 20.8581 0.4939
88.8490 20.8447 0.4939
88.8690 20.8314 0.4927
88.8890 20.8181 0.4905
88.9090 20.8048 0.4922
88.9290 20.7915 0.4945
88.9490 20.7781 0.4915
88.9690 20.7648 0.4920
88.9890 20.7514 0.4911
89.0090 20.7381 0.4902
89.0290 20.7247 0.4903
89.0490 20.7114 0.4913
89.0690 20.6981 0.4894
89.0890 20.6847 0.4905
89.1090 20.6714 0.4886
89.1290 20.6580 0.4878
89.1490 20.6447 0.4903
89.1690 20.6314 0.4908
89.1890 20.6181 0.4877
89.2090 20.6047 0.4866
89.2290 20.5914 0.4888
89.2490 20.5781 0.4864
89.2690 20.5648 0.4867
89.2890 20.5515 0.4857
89.3090 20.5381 0.4867
89.3290 20.5247 0.4870
89.3490 20.5114 0.4886
89.3690 20.4981 0.4838
89.3890 20.4847 0.4839
89.4090 20.4714 0.4863
89.4290 20.4580 0.4863
89.4490 20.4447 0.4854
89.4690 20.4314 0.4856
89.4890 20.4180 0.4829
89.5090 20.4047 0.4839
89.5290 20.3914 0.4836
89.5490 20.3781 0.4809
89.5690 20.3648 0.4832
89.5890 20.3514 0.4810
89.6090 20.3381 0.4806
89.6290 20.3248 0.4807
89.6490 20.3115 0.4803
89.6690 20.2981 0.4819
89.6890 20.2847 0.4817
89.7090 20.2714 0.4804
89.7290 20.2581 0.4789
89.7490 20.2447 0.4799
89.7690 20.2314 0.4809
89.7890 20.2181 0.4791
89.8090 20.2048 0.4794
89.8290 20.1914 0.4791
89.8490 20.1780 0.4774
89.8690 20.1647 0.4776
89.8890 20.1514 0.4804
89.9090 20.1381 0.4775
89.9290 20.1247 0.4791
89.9490 20.1114 0.4758
89.9690 20.0981 0.4768
89.9890 20.0848 0.4744
90.0090 20.0715 0.4787
90.0290 20.0581 0.4746
90.0490 20.0448 0.4763
90.0690 20.0315 0.4733
90.0890 20.0181 0.4735
90.1090 20.0047 0.4732
90.1290 19.9914 0.4745
90.1490 19.9780 0.4716
90.1690 19.9647 0.4726
90.1890 19.9514 0.4725
90.2090 19.9380 0.4739
90.2290 19.9247 0.4731
90.2490 19.9114 0.4728
90.2690 19.8981 0.4720
90.2890 19.8847 0.4703
90.3090 19.8714 0.4733
90.3290 19.8581 0.4694
90.3490 19.8448 0.4712
90.3690 19.8315 0.4714
90.3890 19.8181 0.4697
90.4090 19.8048 0.4711
90.4290 19.7915 0.4731
90.4490 19.7781 0.4701
90.4690 19.7647 0.4685
90.4890 19.7513 0.4694
90.5090 19.7380 0.4677
90.5290 19.7247 0.4677
90.5490 19.7114 0.4679
90.5690 19.6980 0.4663
90.5890 19.6847 0.4669
90.6090 19.6714 0.4656
90.6290 19.6581 0.4647
90.6490 19.6447 0.4671
90.6690 19.6314 0.4676
90.6890 19.6181 0.4648
90.7090 19.6048 0.4661
90.7290 19.5915 0.4669
90.7490 19.5781 0.4660
90.7690 19.5647 0.4635
90.7890 19.5514 0.4638
90.8090 19.5381 0.4615
90.8290 19.5247 0.4633
90.8490 19.5114 0.4639
90.8690 19.4981 0.4625
90.8890 19.4848 0.4632
90.9090 19.4714 0.4624
90.9290 19.4581 0.4637
90.9490 19.4447 0.4647
90.9690 19.4314 0.4629
90.9890 19.4181 0.4624
91.0090 19.4048 0.4614
91.0290 19.3914 0.4597
91.0490 19.3781 0.4603
91.0690 19.3648 0.4597
91.0890 19.3515 0.4614
91.1090 19.3381 0.4587
91.1290 19.3248 0.4595
91.1490 19.3115 0.4586
91.1690 19.2981 0.4567
91.1890 19.2847 0.4586
91.2090 19.2714 0.4576
91.2290 19.2580 0.4574
91.2490 19.2447 0.4573
91.2690 19.2314 0.4560
91.2890 19.2180 0.4553
91.3090 19.2047 0.4579
91.3290 19.1914 0.4584
91.3490 19.1781 0.4574
91.3690 19.1648 0.4551
91.3890 19.1514 0.4545
91.4090 19.1381 0.4531
91.4290 19.1248 0.4554
91.4490 19.1115 0.4560
91.4690 19.0981 0.4541
91.4890 19.0848 0.4533
91.5090 19.0714 0.4515
91.5290 19.0581 0.4542
91.5490 19.0448 0.4537
91.5690 19.0314 0.4529
91.5890 19.0181 0.4511
91.6090 19.0047 0.4509
91.6290 18.9914 0.4543
91.6490 18.9780 0.4520
91.6690 18.9647 0.4513
91.6890 18.9514 0.4510
91.7090 18.9381 0.4496
91.7290 18.9248 0.4505
91.7490 18.9114 0.4504
91.7690 18.8981 0.4505
91.7890 18.8848 0.4488
91.8090 18.8715 0.4488
91.8290 18.8581 0.4484
91.8490 18.8448 0.4493
91.8690 18.8315 0.4495
91.8890 18.8181 0.4486
91.9090 18.8048 0.4474
91.9290 18.7914 0.4484
91.9490 18.7781 0.4464
91.9690 18.7647 0.4475
91.9890 18.7514 0.4472
92.0090 18.7381 0.4456
92.0290 18.7247 0.4445
92.0490 18.7114 0.4456
92.0690 18.6981 0.4443
92.0890 18.6847 0.4463
92.1090 18.6714 0.4463
92.1290 18.6581 0.4465
92.1490 18.6448 0.4436
92.1690 18.6315 0.4456
92.1890 18.6181 0.4425
92.2090 18.6048 0.4441
92.2290 18.5914 0.4424
92.2490 18.5781 0.4423
92.2690 18.5647 0.4423
92.2890 18.5514 0.4430
92.3090 18.5380 0.4423
92.3290 18.5247 0.4415
92.3490 18.5114 0.4434
92.3690 18.4981 0.4434
92.3890 18.4847 0.4407
92.4090 18.4714 0.4398
92.4290 18.4581 0.4407
92.4490 18.4448 0.4393
92.4690 18.4314 0.4408
92.4890 18.4181 0.4401
92.5090 18.4048 0.4406
92.5290 18.3915 0.4402
92.5490 18.3781 0.4397
92.5690 18.3647 0.4399
92.5890 18.3514 0.4368
92.6090 18.3381 0.4383
92.6290 18.3248 0.4372
92.6490 18.3114 0.4376
92.6690 18.2980 0.4373
92.6890 18.2847 0.4355
92.7090 18.2714 0.4340
92.7290 18.2581 0.4362
92.7490 18.2447 0.4353
92.7690 18.2314 0.4354
92.7890 18.2181 0.4332
92.8090 18.2048 0.4355
92.8290 18.1914 0.4345
92.8490 18.1781 0.4351
92.8690 18.1648 0.4336
92.8890 18.1515 0.4339
92.9090 18.1381 0.4343
92.9290 18.1247 0.4332
92.9490 18.1114 0.4345
92.9690 18.0981 0.4348
92.9890 18.0848 0.4349
93.0090 18.0714 0.4323
93.0290 18.0580 0.4326
93.0490 18.0447 0.4314
93.0690 18.0314 0.4313
93.0890 18.0181 0.4309
93.1090 18.0047 0.4314
93.1290 17.9914 0.4292
93.1490 17.9781 0.4297
93.1690 17.9647 0.4283
93.1890 17.9514 0.4305
93.2090 17.9381 0.4314
93.2290 17.9248 0.4287
93.2490 17.9115 0.4298
93.2690 17.8981 0.4283
93.2890 17.8848 0.4290
93.3090 17.8715 0.4288
93.3290 17.8582 0.4300
93.3490 17.8448 0.4289
93.3690 17.8314 0.4274
93.3890 17.8180 0.4287
93.4090 17.8047 0.4254
93.4290 17.7914 0.4260
93.4490 17.7780 0.4244
93.4690 17.7647 0.4253
93.4890 17.7513 0.4244
93.5090 17.7381 0.4263
93.5290 17.7248 0.4241
93.5490 17.7114 0.4273
93.5690 17.6981 0.4261
93.5890 17.6848 0.4246
93.6090 17.6715 0.4239
93.6290 17.6581 0.4258
93.6490 17.6448 0.4241
93.6690 17.6314 0.4248
93.6890 17.6181 0.4227
93.7090 17.6048 0.4221
93.7290 17.5914 0.4230
93.7490 17.5780 0.4235
93.7690 17.5647 0.4207
93.7890 17.5514 0.4220
93.8090 17.5381 0.4222
93.8290 17.5247 0.4206
93.8490 17.5114 0.4195
93.8690 17.4981 0.4189
93.8890 17.4848 0.4192
93.9090 17.4714 0.4195
93.9290 17.4581 0.4200
93.9490 17.4448 0.4186
93.9690 17.4315 0.4177
93.9890 17.4181 0.4177
94.0090 17.4048 0.4161
94.0290 17.3914 0.4171
94.0490 17.3781 0.4199
94.0690 17.3648 0.4185
94.0890 17.3514 0.4176
94.1090 17.3381 0.4182
94.1290 17.3248 0.4183
94.1490 17.3114 0.4148
94.1690 17.2981 0.4167
94.1890 17.2847 0.4139
94.2090 17.2714 0.4156
94.2290 17.2580 0.4149
94.2490 17.2447 0.4153
94.2690 17.2314 0.4140
94.2890 17.2181 0.4151
94.3090 17.2048 0.4139
94.3290 17.1915 0.4147
94.3490 17.1782 0.4130
94.3690 17.1648 0.4146
94.3890 17.1514 0.4136
94.4090 17.1381 0.4136
94.4290 17.1248 0.4129
94.4490 17.1114 0.4125
94.4690 17.0980 0.4121
94.4890 17.0847 0.4125
94.5090 17.0714 0.4108
94.5290 17.0580 0.4121
94.5490 17.0447 0.4093
94.5690 17.0313 0.4102
94.5890 17.0180 0.4092
94.6090 17.0047 0.4094
94.6290 16.9914 0.4102
94.6490 16.9781 0.4108
94.6690 16.9648 0.4096
94.6890 16.9515 0.4102
94.7090 16.9381 0.4091
94.7290 16.9248 0.4092
94.7490 16.9114 0.4087
94.7690 16.8981 0.4089
94.7890 16.8848 0.4066
94.8090 16.8714 0.4059
94.8290 16.8581 0.4078
94.8490 16.8447 0.4058
94.8690 16.8314 0.4073
94.8890 16.8181 0.4061
94.9090 16.8047 0.4057
94.9290 16.7913 0.4047
94.9490 16.7780 0.4060
94.9690 16.7647 0.4057
94.9890 16.7514 0.4048
95.0090 16.7380 0.4052
95.0290 16.7248 0.4031
95.0490 16.7115 0.4012
95.0690 16.6982 0.4028
95.0890 16.6848 0.4034
95.1090 16.6714 0.4033
95.1290 16.6581 0.4025
95.1490 16.6448 0.4017
95.1690 16.6314 0.4010
95.1890 16.6181 0.4020
95.2090 16.6048 0.4018
95.2290 16.5915 0.3994
95.2490 16.5781 0.3993
95.2690 16.5647 0.3999
95.2890 16.5513 0.3987
95.3090 16.5380 0.3998
95.3290 16.5247 0.4017
95.3490 16.5114 0.4005
95.3690 16.4980 0.4008
95.3890 16.4848 0.3992
95.4090 16.4715 0.3985
95.4290 16.4581 0.3997
95.4490 16.4448 0.3995
95.4690 16.4314 0.3988
95.4890 16.4181 0.3964
95.5090 16.4048 0.3978
95.5290 16.3914 0.3955
95.5490 16.3780 0.3991
95.5690 16.3647 0.3975
95.5890 16.3514 0.3967
95.6090 16.3381 0.3958
95.6290 16.3247 0.3961
95.6490 16.3113 0.3951
95.6690 16.2980 0.3952
95.6890 16.2848 0.3954
95.7090 16.2714 0.3953
95.7290 16.2581 0.3945
95.7490 16.2448 0.3934
95.7690 16.2315 0.3934
95.7890 16.2181 0.3938
95.8090 16.2048 0.3940
95.8290 16.1914 0.3932
95.8490 16.1781 0.3929
95.8690 16.1648 0.3937
95.8890 16.1514 0.3912
95.9090 16.1380 0.3933
95.9290 16.1247 0.3910
95.9490 16.1114 0.3907
95.9690 16.0981 0.3930
95.9890 16.0847 0.3941
96.0090 16.0714 0.3900
96.0290 16.0581 0.3905
96.0490 16.0447 0.3900
96.0690 16.0314 0.3885
96.0890 16.0181 0.3898
96.1090 16.0047 0.3905
96.1290 15.9914 0.3898
96.1490 15.9781 0.3912
96.1690 15.9648 0.3919
96.1890 15.9514 0.3890
96.2090 15.9381 0.3897
96.2290 15.9248 0.3891
96.2490 15.9114 0.3881
96.2690 15.8980 0.3860
96.2890 15.8847 0.3875
96.3090 15.8714 0.3859
96.3290 15.8581 0.3883
96.3490 15.8447 0.3887
96.3690 15.8314 0.3859
96.3890 15.8181 0.3869
96.4090 15.8048 0.3861
96.4290 15.7914 0.3838
96.4490 15.7781 0.3859
96.4690 15.7648 0.3842
96.4890 15.7515 0.3842
96.5090 15.7382 0.3840
96.5290 15.7248 0.3841
96.5490 15.7114 0.3819
96.5690 15.6981 0.3831
96.5890 15.6848 0.3833
96.6090 15.6714 0.3807
96.6290 15.6581 0.3796
96.6490 15.6447 0.3824
96.6690 15.6314 0.3811
96.6890 15.6181 0.3826
96.7090 15.6047 0.3817
96.7290 15.5914 0.3819
96.7490 15.5781 0.3824
96.7690 15.5648 0.3820
96.7890 15.5514 0.3794
96.8090 15.5381 0.3799
96.8290 15.5248 0.3800
96.8490 15.5115 0.3762
96.8690 15.4982 0.3784
96.8890 15.4848 0.3788
96.9090 15.4714 0.3772
96.9290 15.4581 0.3779
96.9490 15.4448 0.3782
96.9690 15.4314 0.3772
96.9890 15.4180 0.3777
97.0090 15.4047 0.3788
97.0290 15.3914 0.3767
97.0490 15.3781 0.3768
97.0690 15.3647 0.3781
97.0890 15.3513 0.3765
97.1090 15.3380 0.3759
97.1290 15.3247 0.3764
97.1490 15.3114 0.3725
97.1690 15.2981 0.3759
97.1890 15.2848 0.3753
97.2090 15.2715 0.3750
97.2290 15.2582 0.3751
97.2490 15.2448 0.3760
97.2690 15.2314 0.3718
97.2890 15.2181 0.3739
97.3090 15.2048 0.3716
97.3290 15.1914 0.3726
97.3490 15.1780 0.3719
97.3690 15.1647 0.3722
97.3890 15.1514 0.3698
97.4090 15.1380 0.3701
97.4290 15.1247 0.3716
97.4490 15.1114 0.3706
97.4690 15.0980 0.3715
97.4890 15.0847 0.3715
97.5090 15.0714 0.3679
97.5290 15.0581 0.3705
97.5490 15.0448 0.3698
97.5690 15.0315 0.3683
97.5890 15.0182 0.3681
97.6090 15.0048 0.3707
97.6290 14.9915 0.3681
97.6490 14.9781 0.3683
97.6690 14.9648 0.3697
97.6890 14.9514 0.3667
97.7090 14.9380 0.3670
97.7290 14.9247 0.3667
97.7490 14.9114 0.3659
97.7690 14.8981 0.3658
97.7890 14.8847 0.3663
97.8090 14.8714 0.3631
97.8290 14.8581 0.3645
97.8490 14.8448 0.3652
97.8690 14.8314 0.3649
97.8890 14.8181 0.3634
97.9090 14.8048 0.3672
97.9290 14.7915 0.3625
97.9490 14.7781 0.3636
97.9690 14.7648 0.3633
97.9890 14.7514 0.3617
98.0090 14.7381 0.3639
98.0290 14.7248 0.3638
98.0490 14.7114 0.3628
98.0690 14.6980 0.3629
98.0890 14.6847 0.3618
98.1090 14.6714 0.3608
98.1290 14.6581 0.3603
98.1490 14.6448 0.3607
98.1690 14.6314 0.3599
98.1890 14.6181 0.3584
98.2090 14.6047 0.3612
98.2290 14.5914 0.3620
98.2490 14.5781 0.3595
98.2690 14.5647 0.3612
98.2890 14.5514 0.3585
98.3090 14.5381 0.3588
98.3290 14.5248 0.3617
98.3490 14.5114 0.3586
98.3690 14.4981 0.3588
98.3890 14.4848 0.3596
98.4090 14.4714 0.3561
98.4290 14.4580 0.3588
98.4490 14.4447 0.3600
98.4690 14.4314 0.3560
98.4890 14.4181 0.3575
98.5090 14.4047 0.3558
98.5290 14.3913 0.3566
98.5490 14.3780 0.3570
98.5690 14.3647 0.3563
98.5890 14.3514 0.3538
98.6090 14.3381 0.3546
98.6290 14.3247 0.3559
98.6490 14.3114 0.3538
98.6690 14.2981 0.3536
98.6890 14.2848 0.3531
98.7090 14.2714 0.3534
98.7290 14.2581 0.3544
98.7490 14.2448 0.3567
98.7690 14.2314 0.3518
98.7890 14.2181 0.3525
98.8090 14.2047 0.3536
98.8290 14.1914 0.3536
98.8490 14.1781 0.3544
98.8690 14.1647 0.3534
98.8890 14.1514 0.3518
98.9090 14.1381 0.3523
98.9290 14.1248 0.3519
98.9490 14.1114 0.3507
98.9690 14.0981 0.3496
98.9890 14.0847 0.3504
99.0090 14.0714 0.3504
99.0290 14.0581 0.3485
99.0490 14.0448 0.3513
99.0690 14.0314 0.3484
99.0890 14.0181 0.3493
99.1090 14.0048 0.3492
99.1290 13.9915 0.3471
99.1490 13.9781 0.3444
99.1690 13.9647 0.3478
99.1890 13.9514 0.3468
99.2090 13.9381 0.3476
99.2290 13.9248 0.3489
99.2490 13.9114 0.3461
99.2690 13.8981 0.3457
99.2890 13.8847 0.3467
99.3090 13.8714 0.3448
99.3290 13.8581 0.3450
99.3490 13.8447 0.3452
99.3690 13.8314 0.3447
99.3890 13.8181 0.3422
99.4090 13.8048 0.3457
99.4290 13.7914 0.3436
99.4490 13.7781 0.3424
99.4690 13.7648 0.3438
99.4890 13.7514 0.3442
99.5090 13.7380 0.3412
99.5290 13.7247 0.3446
99.5490 13.7114 0.3427
99.5690 13.6981 0.3415
99.5890 13.6848 0.3433
99.6090 13.6714 0.3390
99.6290 13.6581 0.3386
99.6490 13.6448 0.3398
99.6690 13.6314 0.3406
99.6890 13.6181 0.3409
99.7090 13.6048 0.3415
99.7290 13.5915 0.3376
99.7490 13.5781 0.3370
99.7690 13.5648 0.3395
99.7890 13.5514 0.3387
99.8090 13.5381 0.3390
99.8290 13.5248 0.3391
99.8490 13.5114 0.3384
99.8690 13.4981 0.3364
99.8890 13.4847 0.3389
99.9090 13.4714 0.3374
99.9290 13.4581 0.3379
99.9490 13.4447 0.3365
99.9690 13.4314 0.3367
99.9890 13.4180 0.3367
100.0090 13.4047 0.3368
100.0290 13.3914 0.3348
100.0490 13.3781 0.3336
100.0690 13.3648 0.3360
100.0890 13.3514 0.3350
100.1090 13.3381 0.3345
100.1290 13.3248 0.3385
100.1490 13.3114 0.3346
100.1690 13.2981 0.3337
100.1890 13.2848 0.3328
100.2090 13.2714 0.3306
100.2290 13.2581 0.3319
100.2490 13.2447 0.3320
100.2690 13.2314 0.3324
100.2890 13.2181 0.3315
100.3090 13.2048 0.3320
100.3290 13.1914 0.3324
100.3490 13.1780 0.3298
100.3690 13.1647 0.3305
100.3890 13.1514 0.3281
100.4090 13.1381 0.3298
100.4290 13.1247 0.3288
100.4490 13.1114 0.3299
100.4690 13.0981 0.3290
100.4890 13.0848 0.3304
100.5090 13.0715 0.3296
100.5290 13.0581 0.3288
100.5490 13.0448 0.3277
100.5690 13.0315 0.3275
100.5890 13.0181 0.3264
100.6090 13.0047 0.3287
100.6290 12.9914 0.3284
100.6490 12.9781 0.3252
100.6690 12.9647 0.3270
100.6890 12.9514 0.3243
100.7090 12.9380 0.3243
100.7290 12.9247 0.3241
100.7490 12.9114 0.3263
100.7690 12.8981 0.3245
100.7890 12.8847 0.3243
100.8090 12.8714 0.3236
100.8290 12.8581 0.3232
100.8490 12.8448 0.3238
100.8690 12.8314 0.3245
100.8890 12.8181 0.3235
100.9090 12.8048 0.3247
100.9290 12.7914 0.3247
100.9490 12.7781 0.3210
100.9690 12.7647 0.3224
100.9890 12.7514 0.3225
101.0090 12.7380 0.3193
101.0290 12.7247 0.3213
101.0490 12.7114 0.3200
101.0690 12.6980 0.3199
101.0890 12.6847 0.3205
101.1090 12.6714 0.3223
101.1290 12.6581 0.3169
101.1490 12.6447 0.3205
101.1690 12.6314 0.3195
101.1890 12.6181 0.3176
101.2090 12.6048 0.3200
101.2290 12.5915 0.3192
101.2490 12.5781 0.3166
101.2690 12.5648 0.3177
101.2890 12.5514 0.3180
101.3090 12.5381 0.3166
101.3290 12.5247 0.3188
101.3490 12.5114 0.3165
101.3690 12.4981 0.3168
101.3890 12.4847 0.3161
101.4090 12.4714 0.3166
101.4290 12.4580 0.3146
101.4490 12.4447 0.3148
101.4690 12.4314 0.3147
101.4890 12.4181 0.3149
101.5090 12.4047 0.3149
101.5290 12.3914 0.3145
101.5490 12.3782 0.3136
101.5690 12.3648 0.3139
101.5890 12.3515 0.3130
101.6090 12.3381 0.3126
101.6290 12.3248 0.3119
101.6490 12.3115 0.3144
101.6690 12.2981 0.3107
101.6890 12.2847 0.3120
101.7090 12.2714 0.3115
101.7290 12.2580 0.3097
101.7490 12.2447 0.3109
101.7690 12.2314 0.3111
101.7890 12.2180 0.3090
101.8090 12.2047 0.3128
101.8290 12.1914 0.3089
101.8490 12.1781 0.3090
101.8690 12.1647 0.3089
101.8890 12.1514 0.3109
101.9090 12.1381 0.3098
101.9290 12.1248 0.3097
101.9490 12.1114 0.3085
101.9690 12.0981 0.3057
101.9890 12.0848 0.3076
102.0090 12.0715 0.3051
102.0290 12.0581 0.3050
102.0490 12.0448 0.3033
102.0690 12.0314 0.3051
102.0890 12.0181 0.3049
102.1090 12.0048 0.3055
102.1290 11.9914 0.3049
102.1490 11.9780 0.3032
102.1690 11.9647 0.3050
102.1890 11.9514 0.3060
102.2090 11.9381 0.3032
102.2290 11.9247 0.3032
102.2490 11.9114 0.3048
102.2690 11.8981 0.3019
102.2890 11.8848 0.3048
102.3090 11.8715 0.3033
102.3290 11.8581 0.3032
102.3490 11.8448 0.3019
102.3690 11.8315 0.3007
102.3890 11.8181 0.3007
102.4090 11.8048 0.3021
102.4290 11.7914 0.3011
102.4490 11.7781 0.2990
102.4690 11.7648 0.3004
102.4890 11.7514 0.3010
102.5090 11.7380 0.3007
102.5290 11.7247 0.3002
102.5490 11.7114 0.2997
102.5690 11.6981 0.2985
102.5890 11.6847 0.3002
102.6090 11.6714 0.3005
102.6290 11.6581 0.2985
102.6490 11.6448 0.2996
102.6690 11.6315 0.2985
102.6890 11.6181 0.2973
102.7090 11.6048 0.2939
102.7290 11.5915 0.2977
102.7490 11.5781 0.2946
102.7690 11.5647 0.2957
102.7890 11.5514 0.2968
102.8090 11.5380 0.2940
102.8290 11.5247 0.2957
102.8490 11.5114 0.2971
102.8690 11.4980 0.2937
102.8890 11.4847 0.2949
102.9090 11.4714 0.2967
102.9290 11.4581 0.2940
102.9490 11.4448 0.2961
102.9690 11.4314 0.2956
102.9890 11.4181 0.2927
103.0090 11.4048 0.2916
103.0290 11.3915 0.2952
103.0490 11.3781 0.2911
103.0690 11.3648 0.2924
103.0890 11.3514 0.2923
103.1090 11.3381 0.2921
103.1290 11.3247 0.2917
103.1490 11.3114 0.2926
103.1690 11.2981 0.2894
103.1890 11.2848 0.2897
103.2090 11.2714 0.2902
103.2290 11.2580 0.2901
103.2490 11.2447 0.2891
103.2690 11.2314 0.2913
103.2890 11.2181 0.2893
103.3090 11.2047 0.2873
103.3290 11.1914 0.2902
103.3490 11.1781 0.2861
103.3690 11.1648 0.2876
103.3890 11.1515 0.2867
103.4090 11.1381 0.2867
103.4290 11.1248 0.2867
103.4490 11.1114 0.2879
103.4690 11.0981 0.2867
103.4890 11.0847 0.2873
103.5090 11.0714 0.2864
103.5290 11.0581 0.2844
103.5490 11.0448 0.2862
103.5690 11.0314 0.2862
103.5890 11.0181 0.2854
103.6090 11.0047 0.2844
103.6290 10.9914 0.2851
103.6490 10.9781 0.2815
103.6690 10.9647 0.2838
103.6890 10.9514 0.2831
103.7090 10.9381 0.2836
103.7290 10.9248 0.2819
103.7490 10.9115 0.2832
103.7690 10.8981 0.2816
103.7890 10.8847 0.2816
103.8090 10.8714 0.2829
103.8290 10.8581 0.2788
103.8490 10.8447 0.2799
103.8690 10.8314 0.2820
103.8890 10.8180 0.2784
103.9090 10.8047 0.2798
103.9290 10.7914 0.2796
103.9490 10.7780 0.2783
103.9690 10.7647 0.2789
103.9890 10.7514 0.2801
104.0090 10.7381 0.2791
104.0290 10.7247 0.2788
104.0490 10.7114 0.2787
104.0690 10.6981 0.2770
104.0890 10.6848 0.2748
104.1090 10.6715 0.2765
104.1290 10.6581 0.2747
104.1490 10.6447 0.2755
104.1690 10.6314 0.2753
104.1890 10.6181 0.2746
104.2090 10.6047 0.2729
104.2290 10.5914 0.2738
104.2490 10.5780 0.2739
104.2690 10.5647 0.2742
104.2890 10.5514 0.2763
104.3090 10.5380 0.2739
104.3290 10.5247 0.2727
104.3490 10.5114 0.2719
104.3690 10.4981 0.2712
104.3890 10.4848 0.2711
104.4090 10.4714 0.2740
104.4290 10.4581 0.2728
104.4490 10.4448 0.2715
104.4690 10.4315 0.2716
104.4890 10.4181 0.2715
104.5090 10.4048 0.2723
104.5290 10.3915 0.2728
104.5490 10.3781 0.2690
104.5690 10.3647 0.2687
104.5890 10.3514 0.2689
104.6090 10.3380 0.2681
104.6290 10.3247 0.2676
104.6490 10.3114 0.2689
104.6690 10.2980 0.2662
104.6890 10.2847 0.2670
104.7090 10.2714 0.2680
104.7290 10.2581 0.2674
104.7490 10.2448 0.2662
104.7690 10.2314 0.2672
104.7890 10.2181 0.2651
104.8090 10.2048 0.2665
104.8290 10.1915 0.2657
104.8490 10.1782 0.2654
104.8690 10.1648 0.2635
104.8890 10.1515 0.2657
104.9090 10.1381 0.2634
104.9290 10.1247 0.2642
104.9490 10.1113 0.2649
104.9690 10.0980 0.2622
104.9890 10.0847 0.2629
105.0090 10.0714 0.2645
105.0290 10.0580 0.2634
105.0490 10.0447 0.2628
105.0690 10.0314 0.2621
105.0890 10.0181 0.2610
105.1090 10.0048 0.2615
105.1290 9.9914 0.2631
105.1490 9.9781 0.2620
105.1690 9.9648 0.2591
105.1890 9.9515 0.2596
105.2090 9.9381 0.2575
105.2290 9.9247 0.2594
105.2490 9.9114 0.2606
105.2690 9.8981 0.2572
105.2890 9.8847 0.2575
105.3090 9.8714 0.2575
105.3290 9.8580 0.2569
105.3490 9.8448 0.2564
105.3690 9.8314 0.2551
105.3890 9.8181 0.2547
105.4090 9.8047 0.2542
105.4290 9.7914 0.2564
105.4490 9.7781 0.2561
105.4690 9.7647 0.2550
105.4890 9.7514 0.2556
105.5090 9.7381 0.2529
105.5290 9.7248 0.2526
105.5490 9.7114 0.2564
105.5690 9.6981 0.2549
105.5890 9.6847 0.2543
105.6090 9.6714 0.2535
105.6290 9.6581 0.2530
105.6490 9.6447 0.2527
105.6690 9.6314 0.2528
105.6890 9.6180 0.2513
105.7090 9.6047 0.2497
105.7290 9.5914 0.2509
105.7490 9.5780 0.2517
105.7690 9.5647 0.2513
105.7890 9.5514 0.2499
105.8090 9.5381 0.2509
105.8290 9.5247 0.2497
105.8490 9.5114 0.2503
105.8690 9.4981 0.2504
105.8890 9.4848 0.2457
105.9090 9.4715 0.2485
105.9290 9.4581 0.2500
105.9490 9.4448 0.2478
105.9690 9.4314 0.2480
105.9890 9.4181 0.2472
106.0090 9.4048 0.2458
106.0290 9.3914 0.2475
106.0490 9.3780 0.2449
106.0690 9.3647 0.2440
106.0890 9.3514 0.2450
106.1090 9.3380 0.2461
106.1290 9.3247 0.2447
106.1490 9.3114 0.2452
106.1690 9.2981 0.2454
106.1890 9.2848 0.2451
106.2090 9.2714 0.2439
106.2290 9.2581 0.2454
106.2490 9.2448 0.2429
106.2690 9.2315 0.2445
106.2890 9.2181 0.2435
106.3090 9.2047 0.2413
106.3290 9.1914 0.2426
106.3490 9.1781 0.2410
106.3690 9.1648 0.2385
106.3890 9.1514 0.2411
106.4090 9.1381 0.2410
106.4290 9.1247 0.2386
106.4490 9.1114 0.2402
106.4690 9.0981 0.2383
106.4890 9.0847 0.2347
106.5090 9.0714 0.2381
106.5290 9.0581 0.2391
106.5490 9.0447 0.2369
106.5690 9.0314 0.2384
106.5890 9.0181 0.2373
106.6090 9.0048 0.2357
106.6290 8.9915 0.2355
106.6490 8.9781 0.2357
106.6690 8.9648 0.2365
106.6890 8.9514 0.2364
106.7090 8.9381 0.2360
106.7290 8.9248 0.2326
106.7490 8.9114 0.2355
106.7690 8.8980 0.2356
106.7890 8.8847 0.2323
106.8090 8.8714 0.2351
106.8290 8.8581 0.2342
106.8490 8.8447 0.2317
106.8690 8.8314 0.2330
106.8890 8.8181 0.2322
106.9090 8.8048 0.2305
106.9290 8.7914 0.2303
106.9490 8.7781 0.2317
106.9690 8.7648 0.2312
106.9890 8.7515 0.2316
107.0090 8.7381 0.2289
107.0290 8.7248 0.2283
107.0490 8.7114 0.2297
107.0690 8.6981 0.2290
107.0890 8.6848 0.2281
107.1090 8.6714 0.2286
107.1290 8.6580 0.2277
107.1490 8.6447 0.2277
107.1690 8.6314 0.2301
107.1890 8.6181 0.2303
107.2090 8.6047 0.2278
107.2290 8.5914 0.2254
107.2490 8.5781 0.2259
107.2690 8.5648 0.2224
107.2890 8.5514 0.2239
107.3090 8.5381 0.2237
107.3290 8.5248 0.2239
107.3490 8.5115 0.2241
107.3690 8.4981 0.2252
107.3890 8.4847 0.2222
107.4090 8.4714 0.2244
107.4290 8.4581 0.2227
107.4490 8.4448 0.2232
107.4690 8.4314 0.2228
107.4890 8.4181 0.2246
107.5090 8.4047 0.2229
107.5290 8.3914 0.2241
107.5490 8.3781 0.2241
107.5690 8.3647 0.2208
107.5890 8.3514 0.2192
107.6090 8.3381 0.2195
107.6290 8.3247 0.2180
107.6490 8.3114 0.2208
107.6690 8.2980 0.2180
107.6890 8.2848 0.2189
107.7090 8.2715 0.2194
107.7290 8.2581 0.2194
107.7490 8.2448 0.2158
107.7690 8.2315 0.2166
107.7890 8.2182 0.2154
107.8090 8.2048 0.2154
107.8290 8.1914 0.2137
107.8490 8.1780 0.2154
107.8690 8.1647 0.2139
107.8890 8.1514 0.2164
107.9090 8.1381 0.2177
107.9290 8.1247 0.2143
107.9490 8.1113 0.2142
107.9690 8.0981 0.2136
107.9890 8.0848 0.2138
108.0090 8.0714 0.2125
108.0290 8.0581 0.2131
108.0490 8.0448 0.2115
108.0690 8.0315 0.2105
108.0890 8.0181 0.2123
108.1090 8.0048 0.2119
108.1290 7.9914 0.2109
108.1490 7.9781 0.2088
108.1690 7.9648 0.2083
108.1890 7.9514 0.2091
108.2090 7.9380 0.2086
108.2290 7.9247 0.2085
108.2490 7.9114 0.2067
108.2690 7.8980 0.2087
108.2890 7.8847 0.2079
108.3090 7.8714 0.2094
108.3290 7.8581 0.2071
108.3490 7.8448 0.2080
108.3690 7.8314 0.2055
108.3890 7.8181 0.2079
108.4090 7.8048 0.2057
108.4290 7.7915 0.2063
108.4490 7.7781 0.2030
108.4690 7.7648 0.2045
108.4890 7.7514 0.2037
108.5090 7.7381 0.2042
108.5290 7.7248 0.2033
108.5490 7.7114 0.2034
108.5690 7.6981 0.2054
108.5890 7.6847 0.2041
108.6090 7.6714 0.2023
108.6290 7.6581 0.2024
108.6490 7.6447 0.2018
108.6690 7.6314 0.2031
108.6890 7.6181 0.2008
108.7090 7.6047 0.1992
108.7290 7.5914 0.1999
108.7490 7.5781 0.1993
108.7690 7.5648 0.1979
108.7890 7.5515 0.1984
108.8090 7.5382 0.1982
108.8290 7.5248 0.2003
108.8490 7.5114 0.1991
108.8690 7.4981 0.1986
108.8890 7.4848 0.1949
108.9090 7.4714 0.1957
108.9290 7.4580 0.1971
108.9490 7.4447 0.1954
108.9690 7.4314 0.1968
108.9890 7.4180 0.1940
109.0090 7.4047 0.1942
109.0290 7.3913 0.1928
109.0490 7.3780 0.1932
109.0690 7.3647 0.1938
109.0890 7.3514 0.1948
109.1090 7.3381 0.1926
109.1290 7.3248 0.1928
109.1490 7.3115 0.1932
109.1690 7.2981 0.1934
109.1890 7.2848 0.1915
109.2090 7.2714 0.1908
109.2290 7.2581 0.1895
109.2490 7.2448 0.1902
109.2690 7.2314 0.1891
109.2890 7.2181 0.1898
109.3090 7.2047 0.1904
109.3290 7.1914 0.1883
109.3490 7.1781 0.1904
109.3690 7.1647 0.1881
109.3890 7.1513 0.1868
109.4090 7.1380 0.1880
109.4290 7.1247 0.1866
109.4490 7.1114 0.1856
109.4690 7.0980 0.1872
109.4890 7.0848 0.1870
109.5090 7.0715 0.1851
109.5290 7.0581 0.1862
109.5490 7.0448 0.1843
109.5690 7.0314 0.1860
109.5890 7.0181 0.1843
109.6090 7.0048 0.1848
109.6290 6.9915 0.1823
109.6490 6.9781 0.1839
109.6690 6.9647 0.1812
109.6890 6.9514 0.1803
109.7090 6.9381 0.1834
109.7290 6.9247 0.1825
109.7490 6.9113 0.1823
109.7690 6.8980 0.1808
109.7890 6.8847 0.1799
109.8090 6.8714 0.1810
109.8290 6.8581 0.1795
109.8490 6.8448 0.1795
109.8690 6.8315 0.1791
109.8890 6.8181 0.1789
109.9090 6.8048 0.1780
109.9290 6.7914 0.1758
109.9490 6.7781 0.1776
109.9690 6.7648 0.1773
109.9890 6.7514 0.1764
110.0090 6.7381 0.1777
110.0290 6.7247 0.1750
110.0490 6.7114 0.1748
110.0690 6.6980 0.1738
110.0890 6.6847 0.1749
110.1090 6.6713 0.1761
110.1290 6.6580 0.1739
110.1490 6.6448 0.1740
110.1690 6.6314 0.1717
110.1890 6.6181 0.1723
110.2090 6.6048 0.1731
110.2290 6.5915 0.1720
110.2490 6.5782 0.1705
110.2690 6.5648 0.1730
110.2890 6.5515 0.1708
110.3090 6.5381 0.1721
110.3290 6.5248 0.1707
110.3490 6.5114 0.1704
110.3690 6.4980 0.1686
110.3890 6.4847 0.1695
110.4090 6.4714 0.1686
110.4290 6.4581 0.1698
110.4490 6.4447 0.1685
110.4690 6.4313 0.1689
110.4890 6.4180 0.1686
110.5090 6.4047 0.1676
110.5290 6.3914 0.1661
110.5490 6.3780 0.1665
110.5690 6.3647 0.1666
110.5890 6.3514 0.1646
110.6090 6.3381 0.1641
110.6290 6.3248 0.1643
110.6490 6.3114 0.1636
110.6690 6.2981 0.1638
110.6890 6.2848 0.1638
110.7090 6.2714 0.1634
110.7290 6.2580 0.1634
110.7490 6.2447 0.1626
110.7690 6.2314 0.1615
110.7890 6.2181 0.1617
110.8090 6.2047 0.1625
110.8290 6.1914 0.1608
110.8490 6.1780 0.1617
110.8690 6.1647 0.1596
110.8890 6.1514 0.1617
110.9090 6.1381 0.1603
110.9290 6.1247 0.1608
110.9490 6.1115 0.1595
110.9690 6.0982 0.1583
110.9890 6.0848 0.1575
111.0090 6.0714 0.1566
111.0290 6.0581 0.1557
111.0490 6.0448 0.1549
111.0690 6.0314 0.1566
111.0890 6.0181 0.1575
111.1090 6.0047 0.1570
111.1290 5.9914 0.1552
111.1490 5.9781 0.1547
111.1690 5.9647 0.1548
111.1890 5.9514 0.1550
111.2090 5.9381 0.1540
111.2290 5.9248 0.1541
111.2490 5.9114 0.1524
111.2690 5.8981 0.1523
111.2890 5.8848 0.1527
111.3090 5.8715 0.1503
111.3290 5.8582 0.1524
111.3490 5.8448 0.1531
111.3690 5.8314 0.1521
111.3890 5.8181 0.1509
111.4090 5.8048 0.1488
111.4290 5.7914 0.1499
111.4490 5.7781 0.1494
111.4690 5.7647 0.1502
111.4890 5.7514 0.1479
111.5090 5.7381 0.1480
111.5290 5.7247 0.1470
111.5490 5.7114 0.1481
111.5690 5.6980 0.1475
111.5890 5.6847 0.1461
111.6090 5.6714 0.1449
111.6290 5.6581 0.1451
111.6490 5.6448 0.1442
111.6690 5.6315 0.1456
111.6890 5.6182 0.1448
111.7090 5.6048 0.1441
111.7290 5.5915 0.1427
111.7490 5.5781 0.1434
111.7690 5.5648 0.1443
111.7890 5.5514 0.1445
111.8090 5.5380 0.1426
111.8290 5.5247 0.1436
111.8490 5.5114 0.1403
111.8690 5.4980 0.1403
111.8890 5.4847 0.1405
111.9090 5.4713 0.1400
111.9290 5.4580 0.1404
111.9490 5.4447 0.1392
111.9690 5.4314 0.1400
111.9890 5.4181 0.1390
112.0090 5.4048 0.1401
112.0290 5.3915 0.1370
112.0490 5.3782 0.1396
112.0690 5.3648 0.1378
112.0890 5.3515 0.1391
112.1090 5.3381 0.1361
112.1290 5.3248 0.1359
112.1490 5.3114 0.1354
112.1690 5.2980 0.1370
112.1890 5.2847 0.1357
112.2090 5.2713 0.1352
112.2290 5.2580 0.1343
112.2490 5.2447 0.1321
112.2690 5.2313 0.1330
112.2890 5.2180 0.1331
112.3090 5.2047 0.1343
112.3290 5.1914 0.1316
112.3490 5.1781 0.1303
112.3690 5.1648 0.1306
112.3890 5.1515 0.1310
112.4090 5.1382 0.1308
112.4290 5.1248 0.1302
112.4490 5.1114 0.1282
112.4690 5.0981 0.1286
112.4890 5.0848 0.1270
112.5090 5.0714 0.1273
112.5290 5.0581 0.1290
112.5490 5.0447 0.1281
112.5690 5.0314 0.1276
112.5890 5.0181 0.1255
112.6090 5.0048 0.1267
112.6290 4.9914 0.1254
112.6490 4.9780 0.1257
112.6690 4.9647 0.1256
112.6890 4.9514 0.1247
112.7090 4.9381 0.1237
112.7290 4.9247 0.1232
112.7490 4.9114 0.1245
112.7690 4.8981 0.1232
112.7890 4.8848 0.1241
112.8090 4.8715 0.1212
112.8290 4.8581 0.1219
112.8490 4.8448 0.1215
112.8690 4.8314 0.1204
112.8890 4.8181 0.1198
112.9090 4.8047 0.1199
112.9290 4.7914 0.1191
112.9490 4.7781 0.1187
112.9690 4.7647 0.1194
112.9890 4.7513 0.1200
113.0090 4.7380 0.1204
113.0290 4.7247 0.1161
113.0490 4.7114 0.1183
113.0690 4.6981 0.1162
113.0890 4.6847 0.1191
113.1090 4.6714 0.1190
113.1290 4.6581 0.1154
113.1490 4.6448 0.1159
113.1690 4.6314 0.1155
113.1890 4.6181 0.1148
113.2090 4.6048 0.1149
113.2290 4.5914 0.1144
113.2490 4.5781 0.1124
113.2690 4.5647 0.1155
113.2890 4.5514 0.1136
113.3090 4.5381 0.1143
113.3290 4.5247 0.1120
113.3490 4.5114 0.1109
113.3690 4.4980 0.1119
113.3890 4.4847 0.1107
113.4090 4.4714 0.1125
113.4290 4.4581 0.1100
113.4490 4.4447 0.1126
113.4690 4.4314 0.1104
113.4890 4.4181 0.1087
113.5090 4.4048 0.1083
113.5290 4.3914 0.1092
113.5490 4.3781 0.1098
113.5690 4.3648 0.1095
113.5890 4.3515 0.1097
113.6090 4.3381 0.1068
113.6290 4.3247 0.1067
113.6490 4.3114 0.1048
113.6690 4.2981 0.1061
113.6890 4.2847 0.1050
113.7090 4.2714 0.1053
113.7290 4.2580 0.1053
113.7490 4.2447 0.1057
113.7690 4.2314 0.1044
113.7890 4.2180 0.1047
113.8090 4.2047 0.1036
113.8290 4.1914 0.1049
113.8490 4.1781 0.1034
113.8690 4.1648 0.1019
113.8890 4.1514 0.1024
113.9090 4.1381 0.1016
113.9290 4.1248 0.1023
113.9490 4.1114 0.1020
113.9690 4.0981 0.1023
113.9890 4.0847 0.1031
114.0090 4.0714 0.1018
114.0290 4.0581 0.1004
114.0490 4.0448 0.1006
114.0690 4.0314 0.1014
114.0890 4.0181 0.0995
114.1090 4.0048 0.0987
114.1290 3.9915 0.0999
114.1490 3.9781 0.0994
114.1690 3.9648 0.0980
114.1890 3.9514 0.0994
114.2090 3.9381 0.1000
114.2290 3.9248 0.0990
114.2490 3.9114 0.0992
114.2690 3.8981 0.0961
114.2890 3.8848 0.0979
114.3090 3.8715 0.0991
114.3290 3.8581 0.0964
114.3490 3.8447 0.0962
114.3690 3.8314 0.0956
114.3890 3.8181 0.0982
114.4090 3.8048 0.0969
114.4290 3.7914 0.0979
114.4490 3.7781 0.0962
114.4690 3.7647 0.0973
114.4890 3.7514 0.0976
114.5090 3.7381 0.0959
114.5290 3.7248 0.0971
114.5490 3.7114 0.0963
114.5690 3.6981 0.0945
114.5890 3.6848 0.0948
114.6090 3.6714 0.0944
114.6290 3.6581 0.0938
114.6490 3.6447 0.0941
114.6690 3.6314 0.0932
114.6890 3.6181 0.0933
114.7090 3.6047 0.0923
114.7290 3.5914 0.0914
114.7490 3.5781 0.0904
114.7690 3.5648 0.0914
114.7890 3.5514 0.0902
114.8090 3.5381 0.0892
114.8290 3.5247 0.0885
114.8490 3.5114 0.0883
114.8690 3.4980 0.0851
114.8890 3.4847 0.0856
114.9090 3.4714 0.0875
114.9290 3.4581 0.0875
114.9490 3.4448 0.0867
114.9690 3.4315 0.0879
114.9890 3.4181 0.0844
115.0090 3.4048 0.0837
115.0290 3.3915 0.0836
115.0490 3.3781 0.0824
115.0690 3.3647 0.0822
115.0890 3.3514 0.0830
115.1090 3.3381 0.0791
115.1290 3.3247 0.0791
115.1490 3.3114 0.0771
115.1690 3.2980 0.0793
115.1890 3.2847 0.0757
115.2090 3.2714 0.0789
115.2290 3.2581 0.0749
115.2490 3.2448 0.0795
115.2690 3.2315 0.0774
115.2890 3.2182 0.0762
115.3090 3.2048 0.0746
115.3290 3.1915 0.0775
115.3490 3.1781 0.0740
115.3690 3.1648 0.0764
115.3890 3.1514 0.0729
115.4090 3.1381 0.0721
115.4290 3.1247 0.0734
115.4490 3.1114 0.0721
115.4690 3.0980 0.0710
115.4890 3.0847 0.0695
115.5090 3.0714 0.0710
115.5290 3.0580 0.0674
115.5490 3.0447 0.0701
115.5690 3.0314 0.0682
115.5890 3.0181 0.0682
115.6090 3.0047 0.0669
115.6290 2.9914 0.0672
115.6490 2.9781 0.0658
115.6690 2.9648 0.0641
115.6890 2.9515 0.0652
115.7090 2.9381 0.0650
115.7290 2.9248 0.0642
115.7490 2.9114 0.0631
115.7690 2.8981 0.0629
115.7890 2.8847 0.0598
115.8090 2.8714 0.0612
115.8290 2.8581 0.0596
115.8490 2.8447 0.0624
115.8690 2.8314 0.0622
115.8890 2.8180 0.0605
115.9090 2.8047 0.0603
115.9290 2.7914 0.0594
115.9490 2.7781 0.0599
115.9690 2.7647 0.0560
115.9890 2.7514 0.0596
116.0090 2.7381 0.0568
116.0290 2.7248 0.0586
116.0490 2.7115 0.0579
116.0690 2.6981 0.0567
116.0890 2.6848 0.0543
116.1090 2.6715 0.0553
116.1290 2.6581 0.0524
116.1490 2.6447 0.0536
116.1690 2.6314 0.0531
116.1890 2.6180 0.0518
116.2090 2.6047 0.0507
116.2290 2.5914 0.0510
116.2490 2.5780 0.0502
116.2690 2.5647 0.0493
116.2890 2.5514 0.0514
116.3090 2.5381 0.0510
116.3290 2.5247 0.0489
116.3490 2.5114 0.0496
116.3690 2.4981 0.0474
116.3890 2.4848 0.0484
116.4090 2.4714 0.0487
116.4290 2.4581 0.0473
116.4490 2.4448 0.0451
116.4690 2.4315 0.0466
116.4890 2.4181 0.0441
116.5090 2.4048 0.0446
116.5290 2.3914 0.0446
116.5490 2.3781 0.0458
116.5690 2.3648 0.0419
116.5890 2.3514 0.0441
116.6090 2.3380 0.0422
116.6290 2.3247 0.0424
116.6490 2.3114 0.0410
116.6690 2.2981 0.0396
116.6890 2.2847 0.0401
116.7090 2.2714 0.0404
116.7290 2.2581 0.0378
116.7490 2.2448 0.0369
116.7690 2.2315 0.0381
116.7890 2.2181 0.0387
116.8090 2.2048 0.0374
116.8290 2.1915 0.0353
116.8490 2.1781 0.0357
116.8690 2.1648 0.0336
116.8890 2.1514 0.0352
116.9090 2.1381 0.0341
116.9290 2.1248 0.0329
116.9490 2.1114 0.0332
116.9690 2.0980 0.0323
116.9890 2.0847 0.0331
117.0090 2.0714 0.0332
117.0290 2.0580 0.0324
117.0490 2.0447 0.0317
117.0690 2.0314 0.0333
117.0890 2.0181 0.0311
117.1090 2.0048 0.0287
117.1290 1.9915 0.0285
117.1490 1.9781 0.0262
117.1690 1.9648 0.0264
117.1890 1.9515 0.0254
117.2090 1.9381 0.0245
117.2290 1.9248 0.0235
117.2490 1.9114 0.0276
117.2690 1.8980 0.0252
117.2890 1.8847 0.0251
117.3090 1.8714 0.0233
117.3290 1.8580 0.0259
117.3490 1.8447 0.0232
117.3690 1.8314 0.0246
117.3890 1.8181 0.0219
117.4090 1.8048 0.0214
117.4290 1.7914 0.0202
117.4490 1.7781 0.0189
117.4690 1.7648 0.0182
117.4890 1.7515 0.0195
117.5090 1.7381 0.0184
117.5290 1.7248 0.0175
117.5490 1.7114 0.0175
117.5690 1.6981 0.0176
117.5890 1.6847 0.0167
117.6090 1.6714 0.0175
117.6290 1.6580 0.0155
117.6490 1.6447 0.0138
117.6690 1.6314 0.0152
117.6890 1.6180 0.0140
117.7090 1.6047 0.0127
117.7290 1.5914 0.0125
117.7490 1.5781 0.0110
117.7690 1.5647 0.0105
117.7890 1.5514 0.0093
117.8090 1.5381 0.0104
117.8290 1.5248 0.0098
117.8490 1.5115 0.0114
117.8690 1.4981 0.0118
117.8890 1.4848 0.0084
117.9090 1.4715 0.0099
117.9290 1.4581 0.0085
117.9490 1.4448 0.0066
117.9690 1.4314 0.0092
117.9890 1.4181 0.0079
118.0090 1.4048 0.0063
118.0290 1.3914 0.0071
118.0490 1.3781 0.0078
118.0690 1.3647 0.0061
118.0890 1.3514 0.0064
118.1090 1.3381 0.0050
118.1290 1.3247 0.0043
118.1490 1.3114 0.0035
118.1690 1.2981 0.0033
118.1890 1.2848 0.0025
118.2090 1.2715 0.0057
118.2290 1.2581 0.0034
118.2490 1.2448 0.0032
118.2690 1.2314 0.0022
118.2890 1.2181 0.0003
118.3090 1.2047 -0.0011
118.3290 1.1914 0.0012
118.3490 1.1780 0.0003
118.3690 1.1647 -0.0001
118.3890 1.1514 0.0001
118.4090 1.1381 0.0003
118.4290 1.1247 -0.0023
118.4490 1.1114 -0.0025
118.4690 1.0981 -0.0014
118.4890 1.0848 -0.0041
118.5090 1.0714 -0.0021
118.5290 1.0581 -0.0033
118.5490 1.0448 -0.0040
118.5690 1.0315 -0.0039
118.5890 1.0181 -0.0038
118.6090 1.0047 -0.0050
118.6290 0.9914 -0.0060
118.6490 0.9781 -0.0036
118.6690 0.9647 -0.0079
118.6890 0.9514 -0.0049
118.7090 0.9380 -0.0055
118.7290 0.9247 -0.0073
118.7490 0.9114 -0.0058
118.7690 0.8980 -0.0073
118.7890 0.8847 -0.0076
118.8090 0.8714 -0.0089
118.8290 0.8581 -0.0059
118.8490 0.8447 -0.0097
118.8690 0.8314 -0.0051
118.8890 0.8181 -0.0063
118.9090 0.8048 -0.0053
118.9290 0.7915 -0.0102
118.9490 0.7781 -0.0078
118.9690 0.7647 -0.0124
118.9890 0.7514 -0.0081
119.0090 0.7381 -0.0098
119.0290 0.7247 -0.0111
119.0490 0.7114 -0.0108
119.0690 0.6980 -0.0096
119.0890 0.6847 -0.0100
119.1090 0.6714 -0.0119
119.1290 0.6580 -0.0097
119.1490 0.6447 -0.0123
119.1690 0.6314 -0.0099
119.1890 0.6181 -0.0099
119.2090 0.6047 -0.0094
119.2290 0.5914 -0.0098
119.2490 0.5781 -0.0082
119.2690 0.5648 -0.0111
119.2890 0.5515 -0.0116
119.3090 0.5381 -0.0105
119.3290 0.5248 -0.0135
119.3490 0.5115 -0.0130
119.3690 0.4981 -0.0134
119.3890 0.4848 -0.0121
119.4090 0.4714 -0.0139
119.4290 0.4580 -0.0112
119.4490 0.4447 -0.0135
119.4690 0.4314 -0.0122
119.4890 0.4180 -0.0108
119.5090 0.4047 -0.0144
119.5290 0.3914 -0.0146
119.5490 0.3781 -0.0122
119.5690 0.3648 -0.0125
119.5890 0.3514 -0.0131
119.6090 0.3381 -0.0110
119.6290 0.3248 -0.0143
119.6490 0.3115 -0.0115
119.6690 0.2981 -0.0116
119.6890 0.2847 -0.0125
119.7090 0.2714 -0.0136
119.7290 0.2581 -0.0114
119.7490 0.2448 -0.0122
119.7690 0.2314 -0.0089
119.7890 0.2180 -0.0076
119.8090 0.2048 -0.0100
119.8290 0.1914 -0.0093
119.8490 0.1781 -0.0090
119.8690 0.1647 -0.0096
119.8890 0.1514 -0.0076
119.9090 0.1381 -0.0078
119.9290 0.1247 -0.0090
119.9490 0.1114 -0.0109
119.9690 0.0981 -0.0096
119.9890 0.0848 -0.0120
120.0090 0.0714 -0.0096
120.0290 0.0581 -0.0083
120.0490 0.0448 -0.0095
120.0690 0.0315 -0.0107
120.0890 0.0181 -0.0088
120.1090 0.0048 -0.0108
120.1170 -0.0005 -0.0068
