Raw Data
Time Displacement Force
(s) (mm) (N)
0.0000 0.0000 -0.0018
0.0200 0.0001 -0.0023
0.0400 0.0016 0.0142
0.0600 0.0083 0.0111
0.0800 0.0198 -0.0022
0.1000 0.0321 0.0011
0.1200 0.0447 0.0004
0.1400 0.0579 0.0000
0.1600 0.0720 0.0000
0.1800 0.0862 -0.0005
0.2000 0.1002 -0.0002
0.2200 0.1139 0.0004
0.2400 0.1273 0.0024
0.2600 0.1406 0.0017
0.2800 0.1540 0.0041
0.3000 0.1673 0.0011
0.3200 0.1807 0.0027
0.3400 0.1940 0.0033
0.3600 0.2074 0.0051
0.3800 0.2208 0.0057
0.4000 0.2341 0.0070
0.4200 0.2474 0.0056
0.4400 0.2608 0.0066
0.4600 0.2741 0.0107
0.4800 0.2875 0.0078
0.5000 0.3008 0.0093
0.5200 0.3141 0.0102
0.5400 0.3274 0.0161
0.5600 0.3408 0.0129
0.5800 0.3541 0.0180
0.6000 0.3674 0.0175
0.6200 0.3807 0.0185
0.6400 0.3941 0.0190
0.6600 0.4074 0.0217
0.6800 0.4207 0.0218
0.7000 0.4341 0.0266
0.7200 0.4474 0.0253
0.7400 0.4608 0.0266
0.7600 0.4741 0.0305
0.7800 0.4874 0.0321
0.8000 0.5008 0.0326
0.8200 0.5141 0.0374
0.8400 0.5275 0.0374
0.8600 0.5408 0.0394
0.8800 0.5541 0.0434
0.9000 0.5674 0.0431
0.9200 0.5808 0.0436
0.9400 0.5941 0.0443
0.9600 0.6074 0.0478
0.9800 0.6207 0.0490
1.0000 0.6340 0.0507
1.0200 0.6474 0.0516
1.0400 0.6607 0.0521
1.0600 0.6740 0.0555
1.0800 0.6874 0.0575
1.1000 0.7007 0.0594
1.1200 0.7141 0.0603
1.1400 0.7274 0.0640
1.1600 0.7408 0.0627
1.1800 0.7541 0.0690
1.2000 0.7675 0.0684
1.2200 0.7808 0.0706
1.2400 0.7941 0.0704
1.2600 0.8074 0.0733
1.2800 0.8208 0.0721
1.3000 0.8341 0.0753
1.3200 0.8474 0.0767
1.3400 0.8607 0.0775
1.3600 0.8740 0.0810
1.3800 0.8874 0.0799
1.4000 0.9007 0.0817
1.4200 0.9140 0.0832
1.4400 0.9274 0.0866
1.4600 0.9408 0.0862
1.4800 0.9541 0.0896
1.5000 0.9674 0.0893
1.5200 0.9807 0.0912
1.5400 0.9941 0.0936
1.5600 1.0074 0.0952
1.5800 1.0208 0.0928
1.6000 1.0341 0.0956
1.6200 1.0474 0.0965
1.6400 1.0608 0.0969
1.6600 1.0741 0.1013
1.6800 1.0874 0.1018
1.7000 1.1007 0.1010
1.7200 1.1140 0.1040
1.7400 1.1274 0.1041
1.7600 1.1407 0.1055
1.7800 1.1541 0.1068
1.8000 1.1674 0.1089
1.8200 1.1808 0.1090
1.8400 1.1941 0.1125
1.8600 1.2074 0.1145
1.8800 1.2208 0.1142
1.9000 1.2341 0.1156
1.9200 1.2475 0.1168
1.9400 1.2608 0.1179
1.9600 1.2741 0.1197
1.9800 1.2874 0.1207
2.0000 1.3008 0.1214
2.0200 1.3141 0.1240
2.0400 1.3274 0.1257
2.0600 1.3407 0.1248
2.0800 1.3540 0.1283
2.1000 1.3674 0.1290
2.1200 1.3807 0.1273
2.1400 1.3941 0.1292
2.1600 1.4074 0.1314
2.1800 1.4208 0.1304
2.2000 1.4341 0.1351
2.2200 1.4474 0.1352
2.2400 1.4607 0.1358
2.2600 1.4741 0.1375
2.2800 1.4875 0.1387
2.3000 1.5008 0.1387
2.3200 1.5141 0.1430
2.3400 1.5274 0.1429
2.3600 1.5408 0.1421
2.3800 1.5541 0.1450
2.4000 1.5674 0.1465
2.4200 1.5807 0.1460
2.4400 1.5941 0.1483
2.4600 1.6074 0.1492
2.4800 1.6207 0.1499
2.5000 1.6340 0.1516
2.5200 1.6473 0.1523
2.5400 1.6607 0.1522
2.5600 1.6741 0.1543
2.5800 1.6875 0.1570
2.6000 1.7008 0.1575
2.6200 1.7141 0.1582
2.6400 1.7275 0.1589
2.6600 1.7408 0.1565
2.6800 1.7541 0.1596
2.7000 1.7674 0.1627
2.7200 1.7807 0.1620
2.7400 1.7941 0.1639
2.7600 1.8074 0.1650
2.7800 1.8207 0.1651
2.8000 1.8340 0.1686
2.8200 1.8474 0.1692
2.8400 1.8607 0.1687
2.8600 1.8740 0.1702
2.8800 1.8874 0.1721
2.9000 1.9008 0.1700
2.9200 1.9141 0.1732
2.9400 1.9275 0.1759
2.9600 1.9408 0.1735
2.9800 1.9541 0.1760
3.0000 1.9675 0.1763
3.0200 1.9808 0.1761
3.0400 1.9941 0.1800
3.0600 2.0074 0.1804
3.0800 2.0207 0.1791
3.1000 2.0341 0.1801
3.1200 2.0474 0.1823
3.1400 2.0607 0.1834
3.1600 2.0740 0.1830
3.1800 2.0874 0.1852
3.2000 2.1007 0.1830
3.2200 2.1141 0.1860
3.2400 2.1274 0.1882
3.2600 2.1408 0.1876
3.2800 2.1542 0.1893
3.3000 2.1675 0.1913
3.3200 2.1808 0.1904
3.3400 2.1941 0.1921
3.3600 2.2075 0.1939
3.3800 2.2208 0.1931
3.4000 2.2341 0.1931
3.4200 2.2474 0.1961
3.4400 2.2607 0.1947
3.4600 2.2741 0.1974
3.4800 2.2874 0.1998
3.5000 2.3007 0.1984
3.5200 2.3140 0.2001
3.5400 2.3273 0.2022
3.5600 2.3407 0.2009
3.5800 2.3540 0.2015
3.6000 2.3674 0.2037
3.6200 2.3808 0.2038
3.6400 2.3942 0.2034
3.6600 2.4075 0.2065
3.6800 2.4208 0.2050
3.7000 2.4341 0.2088
3.7200 2.4475 0.2112
3.7400 2.4608 0.2101
3.7600 2.4741 0.2116
3.7800 2.4874 0.2139
3.8000 2.5007 0.2115
3.8200 2.5141 0.2149
3.8400 2.5274 0.2139
3.8600 2.5407 0.2124
3.8800 2.5540 0.2148
3.9000 2.5674 0.2184
3.9200 2.5807 0.2180
3.9400 2.5940 0.2193
3.9600 2.6073 0.2198
3.9800 2.6207 0.2189
4.0000 2.6341 0.2220
4.0200 2.6475 0.2245
4.0400 2.6608 0.2210
4.0600 2.6742 0.2224
4.0800 2.6875 0.2246
4.1000 2.7009 0.2237
4.1200 2.7142 0.2266
4.1400 2.7274 0.2270
4.1600 2.7407 0.2287
4.1800 2.7541 0.2284
4.2000 2.7674 0.2298
4.2200 2.7807 0.2291
4.2400 2.7940 0.2308
4.2600 2.8074 0.2305
4.2800 2.8207 0.2311
4.3000 2.8341 0.2326
4.3200 2.8474 0.2341
4.3400 2.8607 0.2324
4.3600 2.8741 0.2348
4.3800 2.8874 0.2363
4.4000 2.9007 0.2395
4.4200 2.9141 0.2373
4.4400 2.9275 0.2400
4.4600 2.9408 0.2382
4.4800 2.9541 0.2372
4.5000 2.9674 0.2397
4.5200 2.9808 0.2399
4.5400 2.9941 0.2416
4.5600 3.0074 0.2437
4.5800 3.0207 0.2412
4.6000 3.0340 0.2435
4.6200 3.0474 0.2462
4.6400 3.0607 0.2482
4.6600 3.0740 0.2480
4.6800 3.0874 0.2486
4.7000 3.1007 0.2484
4.7200 3.1141 0.2485
4.7400 3.1275 0.2504
4.7600 3.1408 0.2506
4.7800 3.1542 0.2497
4.8000 3.1675 0.2512
4.8200 3.1808 0.2505
4.8400 3.1941 0.2522
4.8600 3.2074 0.2564
4.8800 3.2207 0.2548
4.9000 3.2340 0.2543
4.9200 3.2473 0.2568
4.9400 3.2606 0.2562
4.9600 3.2740 0.2581
4.9800 3.2874 0.2578
5.0000 3.3007 0.2578
5.0200 3.3140 0.2570
5.0400 3.3274 0.2603
5.0600 3.3407 0.2604
5.0800 3.3541 0.2619
5.1000 3.3675 0.2627
5.1200 3.3808 0.2607
5.1400 3.3941 0.2616
5.1600 3.4074 0.2631
5.1800 3.4208 0.2636
5.2000 3.4341 0.2643
5.2200 3.4474 0.2648
5.2400 3.4607 0.2648
5.2600 3.4740 0.2668
5.2800 3.4874 0.2673
5.3000 3.5007 0.2680
5.3200 3.5140 0.2678
5.3400 3.5274 0.2704
5.3600 3.5407 0.2691
5.3800 3.5541 0.2718
5.4000 3.5674 0.2739
5.4200 3.5808 0.2711
5.4400 3.5941 0.2732
5.4600 3.6075 0.2744
5.4800 3.6208 0.2755
5.5000 3.6341 0.2739
5.5200 3.6475 0.2765
5.5400 3.6608 0.2752
5.5600 3.6742 0.2772
5.5800 3.6874 0.2785
5.6000 3.7007 0.2765
5.6200 3.7141 0.2780
5.6400 3.7274 0.2816
5.6600 3.7407 0.2788
5.6800 3.7540 0.2795
5.7000 3.7674 0.2801
5.7200 3.7807 0.2802
5.7400 3.7941 0.2820
5.7600 3.8074 0.2853
5.7800 3.8208 0.2833
5.8000 3.8341 0.2818
5.8200 3.8475 0.2826
5.8400 3.8608 0.2851
5.8600 3.8741 0.2847
5.8800 3.8874 0.2895
5.9000 3.9008 0.2888
5.9200 3.9141 0.2877
5.9400 3.9274 0.2900
5.9600 3.9407 0.2904
5.9800 3.9541 0.2894
6.0000 3.9674 0.2921
6.0200 3.9807 0.2909
6.0400 3.9940 0.2901
6.0600 4.0074 0.2939
6.0800 4.0207 0.2917
6.1000 4.0341 0.2898
6.1200 4.0474 0.2931
6.1400 4.0607 0.2937
6.1600 4.0741 0.2934
6.1800 4.0874 0.2972
6.2000 4.1008 0.2959
6.2200 4.1141 0.2961
6.2400 4.1274 0.2978
6.2600 4.1408 0.2962
6.2800 4.1541 0.2967
6.3000 4.1674 0.2983
6.3200 4.1807 0.2995
6.3400 4.1940 0.2996
6.3600 4.2074 0.3015
6.3800 4.2207 0.3007
6.4000 4.2340 0.2993
6.4200 4.2474 0.3033
6.4400 4.2607 0.3021
6.4600 4.2741 0.3020
6.4800 4.2874 0.3034
6.5000 4.3008 0.3030
6.5200 4.3141 0.3030
6.5400 4.3275 0.3052
6.5600 4.3408 0.3052
6.5800 4.3541 0.3048
6.6000 4.3675 0.3061
6.6200 4.3808 0.3076
6.6400 4.3941 0.3060
6.6600 4.4074 0.3100
6.6800 4.4207 0.3091
6.7000 4.4340 0.3087
6.7200 4.4474 0.3107
6.7400 4.4607 0.3111
6.7600 4.4740 0.3105
6.7800 4.4874 0.3116
6.8000 4.5007 0.3111
6.8200 4.5141 0.3119
6.8400 4.5274 0.3115
6.8600 4.5407 0.3123
6.8800 4.5541 0.3107
6.9000 4.5675 0.3138
6.9200 4.5808 0.3143
6.9400 4.5941 0.3147
6.9600 4.6075 0.3166
6.9800 4.6208 0.3165
7.0000 4.6341 0.3151
7.0200 4.6474 0.3188
7.0400 4.6607 0.3183
7.0600 4.6740 0.3172
7.0800 4.6874 0.3196
7.1000 4.7007 0.3185
7.1200 4.7140 0.3187
7.1400 4.7273 0.3206
7.1600 4.7407 0.3213
7.1800 4.7541 0.3187
7.2000 4.7674 0.3219
7.2200 4.7808 0.3206
7.2400 4.7942 0.3231
7.2600 4.8075 0.3240
7.2800 4.8208 0.3230
7.3000 4.8341 0.3225
7.3200 4.8474 0.3246
7.3400 4.8607 0.3259
7.3600 4.8741 0.3247
7.3800 4.8874 0.3271
7.4000 4.9007 0.3271
7.4200 4.9141 0.3275
7.4400 4.9274 0.3287
7.4600 4.9407 0.3281
7.4800 4.9540 0.3277
7.5000 4.9674 0.3293
7.5200 4.9807 0.3291
7.5400 4.9941 0.3272
7.5600 5.0074 0.3304
7.5800 5.0207 0.3296
7.6000 5.0341 0.3302
7.6200 5.0475 0.3328
7.6400 5.0608 0.3334
7.6600 5.0741 0.3328
7.6800 5.0874 0.3357
7.7000 5.1008 0.3356
7.7200 5.1141 0.3332
7.7400 5.1274 0.3377
7.7600 5.1407 0.3373
7.7800 5.1541 0.3355
7.8000 5.1674 0.3369
7.8200 5.1808 0.3351
7.8400 5.1941 0.3354
7.8600 5.2074 0.3386
7.8800 5.2207 0.3382
7.9000 5.2340 0.3372
7.9200 5.2474 0.3389
7.9400 5.2607 0.3405
7.9600 5.2741 0.3395
7.9800 5.2875 0.3398
8.0000 5.3008 0.3401
8.0200 5.3141 0.3384
8.0400 5.3275 0.3405
8.0600 5.3408 0.3431
8.0800 5.3542 0.3407
8.1000 5.3675 0.3447
8.1200 5.3808 0.3429
8.1400 5.3941 0.3438
8.1600 5.4074 0.3444
8.1800 5.4208 0.3470
8.2000 5.4341 0.3436
8.2200 5.4474 0.3456
8.2400 5.4607 0.3439
8.2600 5.4740 0.3437
8.2800 5.4874 0.3457
8.3000 5.5007 0.3485
8.3200 5.5141 0.3452
8.3400 5.5275 0.3491
8.3600 5.5408 0.3485
8.3800 5.5541 0.3504
8.4000 5.5674 0.3492
8.4200 5.5808 0.3497
8.4400 5.5942 0.3479
8.4600 5.6075 0.3477
8.4800 5.6208 0.3493
8.5000 5.6341 0.3488
8.5200 5.6474 0.3516
8.5400 5.6607 0.3526
8.5600 5.6740 0.3510
8.5800 5.6873 0.3507
8.6000 5.7007 0.3537
8.6200 5.7140 0.3525
8.6400 5.7274 0.3545
8.6600 5.7407 0.3541
8.6800 5.7541 0.3533
8.7000 5.7675 0.3530
8.7200 5.7808 0.3557
8.7400 5.7941 0.3539
8.7600 5.8074 0.3560
8.7800 5.8208 0.3585
8.8000 5.8341 0.3562
8.8200 5.8474 0.3560
8.8400 5.8607 0.3583
8.8600 5.8741 0.3577
8.8800 5.8874 0.3585
8.9000 5.9008 0.3578
8.9200 5.9141 0.3575
8.9400 5.9274 0.3605
8.9600 5.9407 0.3589
8.9800 5.9541 0.3613
9.0000 5.9674 0.3602
9.0200 5.9807 0.3621
9.0400 5.9941 0.3602
9.0600 6.0074 0.3620
9.0800 6.0208 0.3619
9.1000 6.0341 0.3621
9.1200 6.0474 0.3623
9.1400 6.0608 0.3641
9.1600 6.0742 0.3633
9.1800 6.0874 0.3641
9.2000 6.1007 0.3648
9.2200 6.1140 0.3647
9.2400 6.1274 0.3656
9.2600 6.1407 0.3668
9.2800 6.1540 0.3656
9.3000 6.1673 0.3653
9.3200 6.1807 0.3679
9.3400 6.1941 0.3659
9.3600 6.2074 0.3680
9.3800 6.2207 0.3687
9.4000 6.2341 0.3668
9.4200 6.2475 0.3669
9.4400 6.2608 0.3679
9.4600 6.2741 0.3686
9.4800 6.2874 0.3699
9.5000 6.3008 0.3696
9.5200 6.3141 0.3721
9.5400 6.3275 0.3711
9.5600 6.3408 0.3724
9.5800 6.3541 0.3717
9.6000 6.3675 0.3716
9.6200 6.3808 0.3728
9.6400 6.3941 0.3724
9.6600 6.4074 0.3746
9.6800 6.4207 0.3745
9.7000 6.4340 0.3740
9.7200 6.4473 0.3738
9.7400 6.4606 0.3745
9.7600 6.4740 0.3742
9.7800 6.4874 0.3762
9.8000 6.5008 0.3770
9.8200 6.5141 0.3764
9.8400 6.5274 0.3759
9.8600 6.5408 0.3757
9.8800 6.5542 0.3758
9.9000 6.5675 0.3779
9.9200 6.5808 0.3784
9.9400 6.5941 0.3781
9.9600 6.6074 0.3767
9.9800 6.6207 0.3783
10.0000 6.6340 0.3777
10.0200 6.6473 0.3805
10.0400 6.6607 0.3802
10.0600 6.6740 0.3802
10.0800 6.6873 0.3786
10.1000 6.7007 0.3807
10.1200 6.7141 0.3807
10.1400 6.7274 0.3814
10.1600 6.7408 0.3813
10.1800 6.7541 0.3806
10.2000 6.7674 0.3824
10.2200 6.7808 0.3820
10.2400 6.7942 0.3820
10.2600 6.8075 0.3827
10.2800 6.8208 0.3852
10.3000 6.8341 0.3855
10.3200 6.8474 0.3845
10.3400 6.8608 0.3876
10.3600 6.8741 0.3884
10.3800 6.8874 0.3871
10.4000 6.9007 0.3879
10.4200 6.9140 0.3865
10.4400 6.9274 0.3851
10.4600 6.9407 0.3873
10.4800 6.9541 0.3863
10.5000 6.9674 0.3864
10.5200 6.9808 0.3863
10.5400 6.9941 0.3864
10.5600 7.0075 0.3862
10.5800 7.0208 0.3900
10.6000 7.0342 0.3881
10.6200 7.0475 0.3896
10.6400 7.0608 0.3911
10.6600 7.0740 0.3893
10.6800 7.0874 0.3908
10.7000 7.1007 0.3917
10.7200 7.1140 0.3940
10.7400 7.1273 0.3911
10.7600 7.1407 0.3900
10.7800 7.1540 0.3895
10.8000 7.1674 0.3911
10.8200 7.1807 0.3931
10.8400 7.1941 0.3925
10.8600 7.2075 0.3927
10.8800 7.2208 0.3950
10.9000 7.2341 0.3934
10.9200 7.2475 0.3930
10.9400 7.2608 0.3952
10.9600 7.2742 0.3931
10.9800 7.2875 0.3937
11.0000 7.3008 0.3957
11.0200 7.3141 0.3961
11.0400 7.3274 0.3965
11.0600 7.3408 0.3963
11.0800 7.3541 0.3965
11.1000 7.3674 0.3964
11.1200 7.3807 0.3976
11.1400 7.3940 0.3991
11.1600 7.4074 0.3974
11.1800 7.4207 0.3991
11.2000 7.4341 0.3986
11.2200 7.4474 0.3986
11.2400 7.4608 0.3982
11.2600 7.4741 0.3998
11.2800 7.4875 0.4011
11.3000 7.5008 0.4024
11.3200 7.5142 0.4015
11.3400 7.5275 0.4000
11.3600 7.5408 0.4019
11.3800 7.5541 0.4018
11.4000 7.5674 0.4020
11.4200 7.5808 0.4028
11.4400 7.5941 0.4026
11.4600 7.6074 0.4020
11.4800 7.6207 0.4040
11.5000 7.6340 0.4027
11.5200 7.6474 0.4042
11.5400 7.6607 0.4053
11.5600 7.6741 0.4052
11.5800 7.6874 0.4053
11.6000 7.7008 0.4066
11.6200 7.7141 0.4057
11.6400 7.7274 0.4062
11.6600 7.7408 0.4070
11.6800 7.7541 0.4091
11.7000 7.7675 0.4061
11.7200 7.7808 0.4073
11.7400 7.7941 0.4060
11.7600 7.8074 0.4076
11.7800 7.8208 0.4071
11.8000 7.8341 0.4095
11.8200 7.8474 0.4079
11.8400 7.8607 0.4105
11.8600 7.8740 0.4082
11.8800 7.8874 0.4097
11.9000 7.9007 0.4113
11.9200 7.9140 0.4119
11.9400 7.9274 0.4113
11.9600 7.9408 0.4133
11.9800 7.9542 0.4109
12.0000 7.9675 0.4105
12.0200 7.9808 0.4116
12.0400 7.9942 0.4132
12.0600 8.0075 0.4123
12.0800 8.0208 0.4143
12.1000 8.0341 0.4129
12.1200 8.0474 0.4124
12.1400 8.0607 0.4130
12.1600 8.0740 0.4160
12.1800 8.0873 0.4150
12.2000 8.1007 0.4164
12.2200 8.1141 0.4181
12.2400 8.1274 0.4147
12.2600 8.1407 0.4154
12.2800 8.1541 0.4161
12.3000 8.1675 0.4161
12.3200 8.1808 0.4163
12.3400 8.1942 0.4164
12.3600 8.2075 0.4179
12.3800 8.2208 0.4214
12.4000 8.2341 0.4176
12.4200 8.2475 0.4185
12.4400 8.2608 0.4196
12.4600 8.2741 0.4190
12.4800 8.2874 0.4189
12.5000 8.3007 0.4200
12.5200 8.3141 0.4202
12.5400 8.3274 0.4189
12.5600 8.3407 0.4207
12.5800 8.3541 0.4210
12.6000 8.3674 0.4189
12.6200 8.3807 0.4213
12.6400 8.3941 0.4223
12.6600 8.4074 0.4236
12.6800 8.4208 0.4219
12.7000 8.4341 0.4244
12.7200 8.4474 0.4232
12.7400 8.4608 0.4254
12.7600 8.4742 0.4239
12.7800 8.4875 0.4240
12.8000 8.5008 0.4247
12.8200 8.5140 0.4257
12.8400 8.5274 0.4251
12.8600 8.5407 0.4268
12.8800 8.5540 0.4250
12.9000 8.5673 0.4259
12.9200 8.5807 0.4254
12.9400 8.5940 0.4274
12.9600 8.6074 0.4251
12.9800 8.6207 0.4276
13.0000 8.6341 0.4267
13.0200 8.6474 0.4269
13.0400 8.6608 0.4269
13.0600 8.6741 0.4280
13.0800 8.6874 0.4265
13.1000 8.7007 0.4276
13.1200 8.7141 0.4278
13.1400 8.7275 0.4287
13.1600 8.7408 0.4302
13.1800 8.7541 0.4299
13.2000 8.7674 0.4324
13.2200 8.7808 0.4324
13.2400 8.7941 0.4322
13.2600 8.8074 0.4322
13.2800 8.8207 0.4321
13.3000 8.8340 0.4333
13.3200 8.8474 0.4318
13.3400 8.8607 0.4311
13.3600 8.8741 0.4309
13.3800 8.8874 0.4318
13.4000 8.9008 0.4316
13.4200 8.9141 0.4337
13.4400 8.9274 0.4333
13.4600 8.9408 0.4338
13.4800 8.9541 0.4350
13.5000 8.9675 0.4340
13.5200 8.9808 0.4373
13.5400 8.9941 0.4345
13.5600 9.0074 0.4359
13.5800 9.0207 0.4354
13.6000 9.0341 0.4381
13.6200 9.0474 0.4361
13.6400 9.0607 0.4384
13.6600 9.0740 0.4372
13.6800 9.0874 0.4377
13.7000 9.1007 0.4371
13.7200 9.1141 0.4365
13.7400 9.1274 0.4365
13.7600 9.1408 0.4387
13.7800 9.1542 0.4373
13.8000 9.1675 0.4394
13.8200 9.1808 0.4384
13.8400 9.1941 0.4388
13.8600 9.2075 0.4396
13.8800 9.2208 0.4405
13.9000 9.2341 0.4409
13.9200 9.2474 0.4377
13.9400 9.2608 0.4390
13.9600 9.2741 0.4404
13.9800 9.2874 0.4414
14.0000 9.3007 0.4427
14.0200 9.3140 0.4435
14.0400 9.3274 0.4422
14.0600 9.3407 0.4419
14.0800 9.3540 0.4431
14.1000 9.3674 0.4437
14.1200 9.3808 0.4432
14.1400 9.3941 0.4432
14.1600 9.4074 0.4444
14.1800 9.4208 0.4456
14.2000 9.4341 0.4435
14.2200 9.4475 0.4451
14.2400 9.4608 0.4457
14.2600 9.4741 0.4461
14.2800 9.4874 0.4459
14.3000 9.5007 0.4448
14.3200 9.5141 0.4448
14.3400 9.5274 0.4469
14.3600 9.5407 0.4457
14.3800 9.5540 0.4469
14.4000 9.5674 0.4464
14.4200 9.5807 0.4485
14.4400 9.5941 0.4489
14.4600 9.6074 0.4485
14.4800 9.6208 0.4484
14.5000 9.6342 0.4483
14.5200 9.6475 0.4492
14.5400 9.6607 0.4490
14.5600 9.6741 0.4504
14.5800 9.6874 0.4505
14.6000 9.7008 0.4493
14.6200 9.7141 0.4484
14.6400 9.7274 0.4504
14.6600 9.7407 0.4482
14.6800 9.7541 0.4508
14.7000 9.7674 0.4521
14.7200 9.7807 0.4522
14.7400 9.7941 0.4527
14.7600 9.8074 0.4531
14.7800 9.8207 0.4513
14.8000 9.8340 0.4514
14.8200 9.8474 0.4527
14.8400 9.8608 0.4523
14.8600 9.8741 0.4537
14.8800 9.8874 0.4538
14.9000 9.9008 0.4538
14.9200 9.9141 0.4550
14.9400 9.9275 0.4552
14.9600 9.9408 0.4548
14.9800 9.9541 0.4557
15.0000 9.9674 0.4563
15.0200 9.9808 0.4553
15.0400 9.9941 0.4552
15.0600 10.0074 0.4543
15.0800 10.0207 0.4557
15.1000 10.0340 0.4571
15.1200 10.0474 0.4598
15.1400 10.0607 0.4571
15.1600 10.0740 0.4573
15.1800 10.0874 0.4577
15.2000 10.1008 0.4578
15.2200 10.1142 0.4583
15.2400 10.1275 0.4571
15.2600 10.1408 0.4595
15.2800 10.1541 0.4602
15.3000 10.1675 0.4607
15.3200 10.1808 0.4591
15.3400 10.1941 0.4609
15.3600 10.2074 0.4609
15.3800 10.2207 0.4621
15.4000 10.2341 0.4611
15.4200 10.2474 0.4624
15.4400 10.2607 0.4596
15.4600 10.2740 0.4626
15.4800 10.2874 0.4613
15.5000 10.3007 0.4615
15.5200 10.3140 0.4618
15.5400 10.3274 0.4634
15.5600 10.3407 0.4644
15.5800 10.3541 0.4642
15.6000 10.3674 0.4637
15.6200 10.3808 0.4649
15.6400 10.3941 0.4651
15.6600 10.4075 0.4658
15.6800 10.4208 0.4654
15.7000 10.4341 0.4658
15.7200 10.4474 0.4666
15.7400 10.4608 0.4666
15.7600 10.4741 0.4664
15.7800 10.4874 0.4664
15.8000 10.5007 0.4667
15.8200 10.5140 0.4674
15.8400 10.5274 0.4676
15.8600 10.5407 0.4685
15.8800 10.5540 0.4664
15.9000 10.5674 0.4680
15.9200 10.5808 0.4681
15.9400 10.5941 0.4698
15.9600 10.6075 0.4721
15.9800 10.6208 0.4693
16.0000 10.6341 0.4703
16.0200 10.6475 0.4691
16.0400 10.6608 0.4698
16.0600 10.6741 0.4707
16.0800 10.6874 0.4712
16.1000 10.7008 0.4701
16.1200 10.7141 0.4739
16.1400 10.7274 0.4738
16.1600 10.7407 0.4735
16.1800 10.7540 0.4706
16.2000 10.7674 0.4709
16.2200 10.7807 0.4697
16.2400 10.7941 0.4715
16.2600 10.8074 0.4717
16.2800 10.8208 0.4719
16.3000 10.8341 0.4712
16.3200 10.8474 0.4734
16.3400 10.8608 0.4717
16.3600 10.8741 0.4731
16.3800 10.8875 0.4746
16.4000 10.9008 0.4733
16.4200 10.9141 0.4745
16.4400 10.9274 0.4768
16.4600 10.9407 0.4760
16.4800 10.9541 0.4754
16.5000 10.9674 0.4752
16.5200 10.9807 0.4736
16.5400 10.9940 0.4757
16.5600 11.0074 0.4768
16.5800 11.0207 0.4745
16.6000 11.0341 0.4766
16.6200 11.0474 0.4761
16.6400 11.0608 0.4793
16.6600 11.0741 0.4797
16.6800 11.0875 0.4796
16.7000 11.1008 0.4801
16.7200 11.1141 0.4780
16.7400 11.1275 0.4789
16.7600 11.1408 0.4780
16.7800 11.1541 0.4802
16.8000 11.1674 0.4798
16.8200 11.1808 0.4799
16.8400 11.1941 0.4815
16.8600 11.2074 0.4823
16.8800 11.2207 0.4792
16.9000 11.2340 0.4820
16.9200 11.2474 0.4815
16.9400 11.2607 0.4809
16.9600 11.2740 0.4786
16.9800 11.2873 0.4822
17.0000 11.3007 0.4811
17.0200 11.3141 0.4824
17.0400 11.3275 0.4823
17.0600 11.3408 0.4825
17.0800 11.3541 0.4840
17.1000 11.3675 0.4839
17.1200 11.3808 0.4866
17.1400 11.3941 0.4835
17.1600 11.4074 0.4854
17.1800 11.4207 0.4832
17.2000 11.4341 0.4861
17.2200 11.4474 0.4846
17.2400 11.4607 0.4860
17.2600 11.4740 0.4860
17.2800 11.4874 0.4870
17.3000 11.5007 0.4866
17.3200 11.5140 0.4861
17.3400 11.5274 0.4887
17.3600 11.5408 0.4868
17.3800 11.5541 0.4894
17.4000 11.5675 0.4885
17.4200 11.5808 0.4906
17.4400 11.5941 0.4877
17.4600 11.6075 0.4880
17.4800 11.6208 0.4886
17.5000 11.6341 0.4887
17.5200 11.6474 0.4882
17.5400 11.6607 0.4887
17.5600 11.6741 0.4879
17.5800 11.6874 0.4905
17.6000 11.7007 0.4908
17.6200 11.7140 0.4910
17.6400 11.7274 0.4916
17.6600 11.7407 0.4910
17.6800 11.7541 0.4924
17.7000 11.7674 0.4919
17.7200 11.7807 0.4918
17.7400 11.7941 0.4913
17.7600 11.8074 0.4915
17.7800 11.8208 0.4923
17.8000 11.8341 0.4933
17.8200 11.8475 0.4947
17.8400 11.8608 0.4938
17.8600 11.8741 0.4930
17.8800 11.8874 0.4935
17.9000 11.9007 0.4935
17.9200 11.9141 0.4940
17.9400 11.9274 0.4966
17.9600 11.9407 0.4949
17.9800 11.9540 0.4964
18.0000 11.9673 0.4983
18.0200 11.9807 0.4980
18.0400 11.9941 0.4952
18.0600 12.0074 0.4965
18.0800 12.0208 0.4953
18.1000 12.0341 0.4944
18.1200 12.0475 0.4974
18.1400 12.0608 0.4964
18.1600 12.0741 0.4974
18.1800 12.0875 0.4978
18.2000 12.1008 0.4991
18.2200 12.1141 0.4977
18.2400 12.1274 0.4988
18.2600 12.1407 0.4976
18.2800 12.1541 0.4979
18.3000 12.1674 0.4989
18.3200 12.1807 0.4997
18.3400 12.1940 0.4989
18.3600 12.2074 0.4995
18.3800 12.2207 0.4988
18.4000 12.2340 0.5002
18.4200 12.2474 0.5018
18.4400 12.2607 0.5009
18.4600 12.2741 0.5022
18.4800 12.2875 0.5034
18.5000 12.3008 0.5020
18.5200 12.3141 0.5023
18.5400 12.3275 0.5032
18.5600 12.3408 0.5040
18.5800 12.3542 0.5012
18.6000 12.3674 0.5034
18.6200 12.3807 0.5015
18.6400 12.3941 0.5008
18.6600 12.4074 0.5043
18.6800 12.4207 0.5032
18.7000 12.4340 0.5050
18.7200 12.4473 0.5046
18.7400 12.4607 0.5075
18.7600 12.4740 0.5047
18.7800 12.4874 0.5073
18.8000 12.5007 0.5056
18.8200 12.5141 0.5060
18.8400 12.5275 0.5054
18.8600 12.5408 0.5085
18.8800 12.5541 0.5055
18.9000 12.5675 0.5067
18.9200 12.5808 0.5072
18.9400 12.5941 0.5067
18.9600 12.6074 0.5080
18.9800 12.6207 0.5065
19.0000 12.6341 0.5069
19.0200 12.6474 0.5074
19.0400 12.6607 0.5109
19.0600 12.6740 0.5092
19.0800 12.6874 0.5105
19.1000 12.7007 0.5107
19.1200 12.7140 0.5101
19.1400 12.7273 0.5101
19.1600 12.7407 0.5109
19.1800 12.7541 0.5092
19.2000 12.7675 0.5125
19.2200 12.7808 0.5113
19.2400 12.7941 0.5112
19.2600 12.8075 0.5124
19.2800 12.8208 0.5129
19.3000 12.8342 0.5124
19.3200 12.8475 0.5119
19.3400 12.8608 0.5116
19.3600 12.8741 0.5120
19.3800 12.8874 0.5134
19.4000 12.9007 0.5152
19.4200 12.9140 0.5122
19.4400 12.9274 0.5138
19.4600 12.9407 0.5144
19.4800 12.9541 0.5136
19.5000 12.9674 0.5151
19.5200 12.9807 0.5155
19.5400 12.9941 0.5158
19.5600 13.0075 0.5161
19.5800 13.0208 0.5165
19.6000 13.0341 0.5164
19.6200 13.0474 0.5176
19.6400 13.0608 0.5172
19.6600 13.0741 0.5146
19.6800 13.0874 0.5196
19.7000 13.1007 0.5209
19.7200 13.1140 0.5172
19.7400 13.1274 0.5168
19.7600 13.1407 0.5184
19.7800 13.1540 0.5170
19.8000 13.1674 0.5215
19.8200 13.1807 0.5198
19.8400 13.1941 0.5198
19.8600 13.2074 0.5202
19.8800 13.2207 0.5213
19.9000 13.2341 0.5180
19.9200 13.2475 0.5199
19.9400 13.2608 0.5221
19.9600 13.2741 0.5202
19.9800 13.2875 0.5213
20.0000 13.3008 0.5204
20.0200 13.3141 0.5219
20.0400 13.3274 0.5224
20.0600 13.3407 0.5238
20.0800 13.3541 0.5213
20.1000 13.3674 0.5244
20.1200 13.3807 0.5225
20.1400 13.3940 0.5229
20.1600 13.4074 0.5226
20.1800 13.4207 0.5237
20.2000 13.4340 0.5218
20.2200 13.4474 0.5249
20.2400 13.4607 0.5247
20.2600 13.4741 0.5240
20.2800 13.4875 0.5248
20.3000 13.5008 0.5242
20.3200 13.5141 0.5256
20.3400 13.5274 0.5254
20.3600 13.5408 0.5271
20.3800 13.5541 0.5239
20.4000 13.5674 0.5272
20.4200 13.5807 0.5263
20.4400 13.5941 0.5278
20.4600 13.6074 0.5275
20.4800 13.6208 0.5313
20.5000 13.6341 0.5272
20.5200 13.6474 0.5280
20.5400 13.6607 0.5274
20.5600 13.6741 0.5267
20.5800 13.6874 0.5297
20.6000 13.7007 0.5297
20.6200 13.7141 0.5292
20.6400 13.7275 0.5293
20.6600 13.7408 0.5320
20.6800 13.7541 0.5313
20.7000 13.7674 0.5310
20.7200 13.7808 0.5308
20.7400 13.7942 0.5300
20.7600 13.8075 0.5328
20.7800 13.8208 0.5345
20.8000 13.8341 0.5327
20.8200 13.8474 0.5336
20.8400 13.8607 0.5344
20.8600 13.8740 0.5333
20.8800 13.8874 0.5333
20.9000 13.9007 0.5351
20.9200 13.9140 0.5355
20.9400 13.9274 0.5322
20.9600 13.9407 0.5345
20.9800 13.9541 0.5323
21.0000 13.9675 0.5348
21.0200 13.9808 0.5353
21.0400 13.9941 0.5357
21.0600 14.0075 0.5345
21.0800 14.0208 0.5369
21.1000 14.0341 0.5346
21.1200 14.0474 0.5368
21.1400 14.0607 0.5384
21.1600 14.0740 0.5385
21.1800 14.0874 0.5362
21.2000 14.1007 0.5371
21.2200 14.1140 0.5364
21.2400 14.1273 0.5375
21.2600 14.1407 0.5400
21.2800 14.1540 0.5400
21.3000 14.1674 0.5394
21.3200 14.1807 0.5405
21.3400 14.1941 0.5393
21.3600 14.2074 0.5399
21.3800 14.2207 0.5405
21.4000 14.2341 0.5404
21.4200 14.2474 0.5398
21.4400 14.2608 0.5424
21.4600 14.2742 0.5395
21.4800 14.2875 0.5402
21.5000 14.3007 0.5438
21.5200 14.3140 0.5412
21.5400 14.3274 0.5418
21.5600 14.3407 0.5424
21.5800 14.3540 0.5417
21.6000 14.3674 0.5419
21.6200 14.3807 0.5453
21.6400 14.3941 0.5427
21.6600 14.4074 0.5449
21.6800 14.4208 0.5444
21.7000 14.4341 0.5438
21.7200 14.4475 0.5432
21.7400 14.4608 0.5476
21.7600 14.4741 0.5443
21.7800 14.4874 0.5446
21.8000 14.5007 0.5459
21.8200 14.5141 0.5447
21.8400 14.5274 0.5461
21.8600 14.5408 0.5479
21.8800 14.5541 0.5471
21.9000 14.5674 0.5472
21.9200 14.5808 0.5487
21.9400 14.5941 0.5468
21.9600 14.6074 0.5484
21.9800 14.6208 0.5483
22.0000 14.6341 0.5483
22.0200 14.6474 0.5471
22.0400 14.6607 0.5489
22.0600 14.6741 0.5480
22.0800 14.6875 0.5497
22.1000 14.7008 0.5520
22.1200 14.7141 0.5490
22.1400 14.7274 0.5495
22.1600 14.7408 0.5505
22.1800 14.7541 0.5503
22.2000 14.7674 0.5500
22.2200 14.7807 0.5537
22.2400 14.7941 0.5500
22.2600 14.8074 0.5508
22.2800 14.8208 0.5525
22.3000 14.8341 0.5531
22.3200 14.8474 0.5521
22.3400 14.8607 0.5546
22.3600 14.8740 0.5538
22.3800 14.8874 0.5534
22.4000 14.9007 0.5559
22.4200 14.9141 0.5546
22.4400 14.9274 0.5568
22.4600 14.9408 0.5561
22.4800 14.9541 0.5536
22.5000 14.9674 0.5518
22.5200 14.9808 0.5573
22.5400 14.9942 0.5545
22.5600 15.0075 0.5554
22.5800 15.0207 0.5565
22.6000 15.0341 0.5569
22.6200 15.0474 0.5570
22.6400 15.0608 0.5577
22.6600 15.0741 0.5572
22.6800 15.0874 0.5566
22.7000 15.1007 0.5603
22.7200 15.1140 0.5567
22.7400 15.1273 0.5581
22.7600 15.1407 0.5595
22.7800 15.1541 0.5596
22.8000 15.1674 0.5575
22.8200 15.1808 0.5610
22.8400 15.1941 0.5609
22.8600 15.2075 0.5610
22.8800 15.2208 0.5621
22.9000 15.2342 0.5602
22.9200 15.2475 0.5594
22.9400 15.2608 0.5630
22.9600 15.2741 0.5631
22.9800 15.2874 0.5622
23.0000 15.3008 0.5621
23.0200 15.3141 0.5631
23.0400 15.3274 0.5622
23.0600 15.3407 0.5624
23.0800 15.3540 0.5630
23.1000 15.3674 0.5617
23.1200 15.3807 0.5632
23.1400 15.3941 0.5619
23.1600 15.4075 0.5620
23.1800 15.4208 0.5646
23.2000 15.4341 0.5640
23.2200 15.4474 0.5622
23.2400 15.4608 0.5663
23.2600 15.4742 0.5650
23.2800 15.4875 0.5653
23.3000 15.5008 0.5680
23.3200 15.5141 0.5668
23.3400 15.5274 0.5644
23.3600 15.5408 0.5690
23.3800 15.5541 0.5667
23.4000 15.5674 0.5680
23.4200 15.5807 0.5690
23.4400 15.5940 0.5679
23.4600 15.6074 0.5688
23.4800 15.6207 0.5710
23.5000 15.6341 0.5687
23.5200 15.6474 0.5680
23.5400 15.6608 0.5683
23.5600 15.6741 0.5697
23.5800 15.6874 0.5690
23.6000 15.7008 0.5718
23.6200 15.7141 0.5678
23.6400 15.7274 0.5693
23.6600 15.7407 0.5713
23.6800 15.7540 0.5704
23.7000 15.7674 0.5678
23.7200 15.7807 0.5717
23.7400 15.7941 0.5693
23.7600 15.8074 0.5700
23.7800 15.8207 0.5738
23.8000 15.8340 0.5742
23.8200 15.8474 0.5750
23.8400 15.8607 0.5748
23.8600 15.8741 0.5742
23.8800 15.8874 0.5730
23.9000 15.9008 0.5756
23.9200 15.9141 0.5758
23.9400 15.9274 0.5754
23.9600 15.9407 0.5771
23.9800 15.9541 0.5767
24.0000 15.9674 0.5740
24.0200 15.9807 0.5757
24.0400 15.9941 0.5745
24.0600 16.0074 0.5738
24.0800 16.0208 0.5759
24.1000 16.0341 0.5760
24.1200 16.0474 0.5756
24.1400 16.0607 0.5771
24.1600 16.0740 0.5774
24.1800 16.0874 0.5760
24.2000 16.1007 0.5776
24.2200 16.1140 0.5797
24.2400 16.1274 0.5777
24.2600 16.1408 0.5810
24.2800 16.1541 0.5812
24.3000 16.1675 0.5789
24.3200 16.1808 0.5802
24.3400 16.1942 0.5807
24.3600 16.2075 0.5803
24.3800 16.2208 0.5810
24.4000 16.2341 0.5798
24.4200 16.2474 0.5796
24.4400 16.2607 0.5818
24.4600 16.2741 0.5825
24.4800 16.2874 0.5796
24.5000 16.3007 0.5829
24.5200 16.3140 0.5831
24.5400 16.3274 0.5839
24.5600 16.3407 0.5828
24.5800 16.3541 0.5827
24.6000 16.3674 0.5829
24.6200 16.3808 0.5842
24.6400 16.3942 0.5847
24.6600 16.4075 0.5852
24.6800 16.4208 0.5866
24.7000 16.4342 0.5877
24.7200 16.4475 0.5831
24.7400 16.4608 0.5854
24.7600 16.4741 0.5852
24.7800 16.4874 0.5853
24.8000 16.5008 0.5873
24.8200 16.5141 0.5889
24.8400 16.5274 0.5868
24.8600 16.5407 0.5886
24.8800 16.5540 0.5872
24.9000 16.5674 0.5869
24.9200 16.5807 0.5897
24.9400 16.5941 0.5886
24.9600 16.6074 0.5864
24.9800 16.6208 0.5906
25.0000 16.6342 0.5899
25.0200 16.6475 0.5907
25.0400 16.6608 0.5922
25.0600 16.6742 0.5900
25.0800 16.6875 0.5889
25.1000 16.7008 0.5910
25.1200 16.7141 0.5923
25.1400 16.7274 0.5912
25.1600 16.7407 0.5916
25.1800 16.7541 0.5916
25.2000 16.7673 0.5908
25.2200 16.7807 0.5914
25.2400 16.7940 0.5933
25.2600 16.8074 0.5927
25.2800 16.8207 0.5952
25.3000 16.8341 0.5941
25.3200 16.8474 0.5930
25.3400 16.8608 0.5947
25.3600 16.8742 0.5957
25.3800 16.8875 0.5953
25.4000 16.9008 0.5988
25.4200 16.9141 0.5964
25.4400 16.9275 0.5958
25.4600 16.9407 0.5957
25.4800 16.9541 0.5975
25.5000 16.9674 0.5953
25.5200 16.9807 0.5971
25.5400 16.9941 0.5982
25.5600 17.0073 0.5982
25.5800 17.0207 0.5998
25.6000 17.0340 0.6005
25.6200 17.0474 0.5989
25.6400 17.0607 0.5991
25.6600 17.0740 0.5987
25.6800 17.0874 0.5981
25.7000 17.1008 0.5980
25.7200 17.1141 0.5990
25.7400 17.1275 0.5982
25.7600 17.1408 0.5998
25.7800 17.1542 0.6030
25.8000 17.1676 0.6007
25.8200 17.1808 0.6029
25.8400 17.1941 0.6013
25.8600 17.2074 0.5993
25.8800 17.2208 0.6014
25.9000 17.2341 0.6039
25.9200 17.2474 0.6026
25.9400 17.2607 0.6026
25.9600 17.2740 0.6023
25.9800 17.2874 0.6021
26.0000 17.3007 0.6023
26.0200 17.3141 0.6043
26.0400 17.3274 0.6039
26.0600 17.3408 0.6034
26.0800 17.3541 0.6054
26.1000 17.3674 0.6037
26.1200 17.3807 0.6039
26.1400 17.3941 0.6050
26.1600 17.4075 0.6050
26.1800 17.4208 0.6057
26.2000 17.4341 0.6088
26.2200 17.4474 0.6073
26.2400 17.4608 0.6082
26.2600 17.4741 0.6076
26.2800 17.4874 0.6084
26.3000 17.5007 0.6088
26.3200 17.5140 0.6097
26.3400 17.5274 0.6079
26.3600 17.5407 0.6097
26.3800 17.5540 0.6108
26.4000 17.5674 0.6093
26.4200 17.5808 0.6107
26.4400 17.5941 0.6097
26.4600 17.6075 0.6104
26.4800 17.6208 0.6108
26.5000 17.6341 0.6125
26.5200 17.6475 0.6113
26.5400 17.6608 0.6104
26.5600 17.6741 0.6123
26.5800 17.6874 0.6113
26.6000 17.7007 0.6134
26.6200 17.7140 0.6139
26.6400 17.7273 0.6123
26.6600 17.7407 0.6146
26.6800 17.7540 0.6146
26.7000 17.7674 0.6139
26.7200 17.7807 0.6150
26.7400 17.7940 0.6171
26.7600 17.8074 0.6146
26.7800 17.8208 0.6148
26.8000 17.8342 0.6143
26.8200 17.8475 0.6158
26.8400 17.8608 0.6150
26.8600 17.8741 0.6154
26.8800 17.8875 0.6139
26.9000 17.9008 0.6185
26.9200 17.9141 0.6195
26.9400 17.9274 0.6179
26.9600 17.9407 0.6165
26.9800 17.9541 0.6177
27.0000 17.9674 0.6158
27.0200 17.9807 0.6193
27.0400 17.9940 0.6196
27.0600 18.0074 0.6199
27.0800 18.0207 0.6206
27.1000 18.0341 0.6207
27.1200 18.0474 0.6201
27.1400 18.0608 0.6195
27.1600 18.0741 0.6218
27.1800 18.0874 0.6203
27.2000 18.1008 0.6216
27.2200 18.1141 0.6224
27.2400 18.1275 0.6202
27.2600 18.1408 0.6207
27.2800 18.1541 0.6227
27.3000 18.1674 0.6226
27.3200 18.1807 0.6227
27.3400 18.1941 0.6234
27.3600 18.2074 0.6232
27.3800 18.2207 0.6230
27.4000 18.2340 0.6260
27.4200 18.2474 0.6236
27.4400 18.2607 0.6238
27.4600 18.2741 0.6258
27.4800 18.2874 0.6250
27.5000 18.3008 0.6250
27.5200 18.3141 0.6262
27.5400 18.3274 0.6255
27.5600 18.3407 0.6263
27.5800 18.3541 0.6288
27.6000 18.3675 0.6266
27.6200 18.3808 0.6262
27.6400 18.3941 0.6288
27.6600 18.4074 0.6277
27.6800 18.4207 0.6282
27.7000 18.4341 0.6295
27.7200 18.4474 0.6283
27.7400 18.4607 0.6292
27.7600 18.4741 0.6309
27.7800 18.4874 0.6303
27.8000 18.5007 0.6305
27.8200 18.5140 0.6304
27.8400 18.5274 0.6310
27.8600 18.5408 0.6296
27.8800 18.5541 0.6317
27.9000 18.5674 0.6315
27.9200 18.5808 0.6312
27.9400 18.5941 0.6323
27.9600 18.6075 0.6327
27.9800 18.6208 0.6336
28.0000 18.6341 0.6353
28.0200 18.6474 0.6333
28.0400 18.6607 0.6341
28.0600 18.6741 0.6352
28.0800 18.6874 0.6366
28.1000 18.7007 0.6356
28.1200 18.7140 0.6370
28.1400 18.7274 0.6344
28.1600 18.7407 0.6369
28.1800 18.7541 0.6371
28.2000 18.7675 0.6387
28.2200 18.7808 0.6364
28.2400 18.7942 0.6392
28.2600 18.8075 0.6364
28.2800 18.8208 0.6381
28.3000 18.8341 0.6395
28.3200 18.8475 0.6380
28.3400 18.8608 0.6374
28.3600 18.8741 0.6394
28.3800 18.8874 0.6394
28.4000 18.9007 0.6382
28.4200 18.9141 0.6407
28.4400 18.9274 0.6405
28.4600 18.9407 0.6400
28.4800 18.9540 0.6411
28.5000 18.9674 0.6406
28.5200 18.9807 0.6399
28.5400 18.9940 0.6419
28.5600 19.0074 0.6404
28.5800 19.0208 0.6413
28.6000 19.0341 0.6424
28.6200 19.0475 0.6439
28.6400 19.0608 0.6448
28.6600 19.0741 0.6464
28.6800 19.0875 0.6461
28.7000 19.1008 0.6461
28.7200 19.1141 0.6468
28.7400 19.1274 0.6456
28.7600 19.1407 0.6440
28.7800 19.1541 0.6467
28.8000 19.1674 0.6463
28.8200 19.1807 0.6458
28.8400 19.1940 0.6485
28.8600 19.2074 0.6470
28.8800 19.2207 0.6464
28.9000 19.2341 0.6478
28.9200 19.2474 0.6471
28.9400 19.2608 0.6469
28.9600 19.2741 0.6485
28.9800 19.2875 0.6493
29.0000 19.3007 0.6490
29.0200 19.3141 0.6509
29.0400 19.3274 0.6481
29.0600 19.3408 0.6510
29.0800 19.3541 0.6505
29.1000 19.3674 0.6517
29.1200 19.3807 0.6501
29.1400 19.3941 0.6511
29.1600 19.4074 0.6503
29.1800 19.4207 0.6497
29.2000 19.4340 0.6513
29.2200 19.4474 0.6521
29.2400 19.4607 0.6504
29.2600 19.4740 0.6515
29.2800 19.4874 0.6519
29.3000 19.5007 0.6515
29.3200 19.5141 0.6566
29.3400 19.5274 0.6536
29.3600 19.5407 0.6554
29.3800 19.5541 0.6554
29.4000 19.5675 0.6559
29.4200 19.5808 0.6538
29.4400 19.5941 0.6573
29.4600 19.6074 0.6564
29.4800 19.6207 0.6562
29.5000 19.6341 0.6565
29.5200 19.6474 0.6586
29.5400 19.6607 0.6563
29.5600 19.6740 0.6592
29.5800 19.6874 0.6590
29.6000 19.7007 0.6571
29.6200 19.7140 0.6596
29.6400 19.7274 0.6605
29.6600 19.7408 0.6613
29.6800 19.7542 0.6610
29.7000 19.7675 0.6607
29.7200 19.7808 0.6600
29.7400 19.7941 0.6622
29.7600 19.8075 0.6609
29.7800 19.8208 0.6610
29.8000 19.8341 0.6629
29.8200 19.8474 0.6612
29.8400 19.8607 0.6618
29.8600 19.8741 0.6657
29.8800 19.8874 0.6647
29.9000 19.9007 0.6625
29.9200 19.9140 0.6648
29.9400 19.9274 0.6630
29.9600 19.9407 0.6640
29.9800 19.9541 0.6658
30.0000 19.9674 0.6651
30.0200 19.9807 0.6639
30.0400 19.9941 0.6665
30.0600 20.0075 0.6651
30.0800 20.0208 0.6655
30.1000 20.0341 0.6672
30.1200 20.0475 0.6647
30.1400 20.0608 0.6658
30.1600 20.0741 0.6670
30.1800 20.0874 0.6678
30.2000 20.1007 0.6673
30.2200 20.1141 0.6712
30.2400 20.1274 0.6688
30.2600 20.1407 0.6702
30.2800 20.1540 0.6699
30.3000 20.1673 0.6695
30.3200 20.1807 0.6691
30.3400 20.1940 0.6689
30.3600 20.2074 0.6699
30.3800 20.2208 0.6690
30.4000 20.2341 0.6721
30.4200 20.2475 0.6714
30.4400 20.2607 0.6727
30.4600 20.2740 0.6726
30.4800 20.2874 0.6740
30.5000 20.3008 0.6722
30.5200 20.3141 0.6731
30.5400 20.3274 0.6745
30.5600 20.3407 0.6741
30.5800 20.3541 0.6749
30.6000 20.3674 0.6754
30.6200 20.3807 0.6770
30.6400 20.3940 0.6790
30.6600 20.4074 0.6774
30.6800 20.4207 0.6740
30.7000 20.4340 0.6767
30.7200 20.4474 0.6772
30.7400 20.4607 0.6772
30.7600 20.4741 0.6786
30.7800 20.4874 0.6791
30.8000 20.5008 0.6788
30.8200 20.5141 0.6779
30.8400 20.5275 0.6776
30.8600 20.5408 0.6774
30.8800 20.5541 0.6789
30.9000 20.5674 0.6803
30.9200 20.5807 0.6783
30.9400 20.5941 0.6792
30.9600 20.6074 0.6796
30.9800 20.6207 0.6810
31.0000 20.6340 0.6827
31.0200 20.6474 0.6813
31.0400 20.6607 0.6793
31.0600 20.6741 0.6828
31.0800 20.6874 0.6831
31.1000 20.7008 0.6827
31.1200 20.7141 0.6820
31.1400 20.7275 0.6826
31.1600 20.7408 0.6830
31.1800 20.7541 0.6853
31.2000 20.7674 0.6857
31.2200 20.7808 0.6838
31.2400 20.7941 0.6844
31.2600 20.8074 0.6860
31.2800 20.8207 0.6864
31.3000 20.8341 0.6865
31.3200 20.8475 0.6880
31.3400 20.8608 0.6898
31.3600 20.8741 0.6900
31.3800 20.8874 0.6914
31.4000 20.9007 0.6885
31.4200 20.9140 0.6878
31.4400 20.9273 0.6874
31.4600 20.9407 0.6884
31.4800 20.9541 0.6887
31.5000 20.9675 0.6915
31.5200 20.9808 0.6892
31.5400 20.9941 0.6928
31.5600 21.0075 0.6905
31.5800 21.0208 0.6914
31.6000 21.0342 0.6911
31.6200 21.0474 0.6921
31.6400 21.0607 0.6919
31.6600 21.0741 0.6927
31.6800 21.0874 0.6952
31.7000 21.1007 0.6942
31.7200 21.1140 0.6948
31.7400 21.1274 0.6939
31.7600 21.1407 0.6918
31.7800 21.1540 0.6946
31.8000 21.1674 0.6961
31.8200 21.1807 0.6960
31.8400 21.1941 0.6962
31.8600 21.2075 0.6965
31.8800 21.2208 0.6961
31.9000 21.2341 0.6958
31.9200 21.2475 0.6988
31.9400 21.2608 0.6953
31.9600 21.2741 0.6969
31.9800 21.2874 0.6992
32.0000 21.3007 0.6999
32.0200 21.3141 0.6991
32.0400 21.3274 0.7011
32.0600 21.3407 0.7013
32.0800 21.3540 0.7008
32.1000 21.3674 0.7016
32.1200 21.3807 0.7005
32.1400 21.3940 0.7009
32.1600 21.4074 0.7008
32.1800 21.4207 0.7036
32.2000 21.4341 0.7018
32.2200 21.4475 0.7025
32.2400 21.4608 0.7021
32.2600 21.4741 0.7033
32.2800 21.4875 0.7049
32.3000 21.5008 0.7018
32.3200 21.5142 0.7046
32.3400 21.5274 0.7026
32.3600 21.5407 0.7044
32.3800 21.5541 0.7060
32.4000 21.5674 0.7082
32.4200 21.5807 0.7058
32.4400 21.5940 0.7063
32.4600 21.6073 0.7082
32.4800 21.6207 0.7081
32.5000 21.6340 0.7061
32.5200 21.6474 0.7094
32.5400 21.6608 0.7065
32.5600 21.6741 0.7073
32.5800 21.6875 0.7073
32.6000 21.7008 0.7098
32.6200 21.7141 0.7080
32.6400 21.7275 0.7088
32.6600 21.7408 0.7101
32.6800 21.7541 0.7120
32.7000 21.7674 0.7125
32.7200 21.7807 0.7117
32.7400 21.7941 0.7122
32.7600 21.8074 0.7127
32.7800 21.8207 0.7139
32.8000 21.8340 0.7129
32.8200 21.8474 0.7125
32.8400 21.8607 0.7132
32.8600 21.8740 0.7144
32.8800 21.8874 0.7152
32.9000 21.9007 0.7141
32.9200 21.9141 0.7144
32.9400 21.9275 0.7146
32.9600 21.9408 0.7167
32.9800 21.9541 0.7156
33.0000 21.9675 0.7177
33.0200 21.9809 0.7150
33.0400 21.9942 0.7160
33.0600 22.0075 0.7190
33.0800 22.0208 0.7179
33.1000 22.0341 0.7179
33.1200 22.0474 0.7196
33.1400 22.0607 0.7202
33.1600 22.0740 0.7190
33.1800 22.0873 0.7201
33.2000 22.1007 0.7191
33.2200 22.1140 0.7214
33.2400 22.1274 0.7204
33.2600 22.1407 0.7229
33.2800 22.1541 0.7206
33.3000 22.1674 0.7230
33.3200 22.1808 0.7204
33.3400 22.1941 0.7227
33.3600 22.2074 0.7230
33.3800 22.2208 0.7230
33.4000 22.2341 0.7229
33.4200 22.2474 0.7242
33.4400 22.2607 0.7238
33.4600 22.2741 0.7242
33.4800 22.2874 0.7254
33.5000 22.3007 0.7261
33.5200 22.3140 0.7253
33.5400 22.3274 0.7275
33.5600 22.3407 0.7268
33.5800 22.3540 0.7260
33.6000 22.3674 0.7270
33.6200 22.3807 0.7272
33.6400 22.3941 0.7272
33.6600 22.4075 0.7285
33.6800 22.4208 0.7296
33.7000 22.4341 0.7293
33.7200 22.4475 0.7284
33.7400 22.4608 0.7309
33.7600 22.4742 0.7315
33.7800 22.4875 0.7316
33.8000 22.5008 0.7315
33.8200 22.5141 0.7315
33.8400 22.5274 0.7327
33.8600 22.5407 0.7316
33.8800 22.5540 0.7311
33.9000 22.5674 0.7341
33.9200 22.5807 0.7325
33.9400 22.5941 0.7350
33.9600 22.6074 0.7344
33.9800 22.6207 0.7353
34.0000 22.6341 0.7348
34.0200 22.6475 0.7368
34.0400 22.6608 0.7372
34.0600 22.6741 0.7379
34.0800 22.6874 0.7374
34.1000 22.7008 0.7393
34.1200 22.7141 0.7377
34.1400 22.7274 0.7382
34.1600 22.7407 0.7368
34.1800 22.7540 0.7374
34.2000 22.7674 0.7374
34.2200 22.7807 0.7393
34.2400 22.7940 0.7402
34.2600 22.8073 0.7404
34.2800 22.8207 0.7395
34.3000 22.8341 0.7392
34.3200 22.8474 0.7413
34.3400 22.8607 0.7398
34.3600 22.8741 0.7416
34.3800 22.8875 0.7418
34.4000 22.9008 0.7414
34.4200 22.9141 0.7436
34.4400 22.9274 0.7439
34.4600 22.9408 0.7448
34.4800 22.9542 0.7462
34.5000 22.9674 0.7444
34.5200 22.9807 0.7461
34.5400 22.9941 0.7438
34.5600 23.0074 0.7452
34.5800 23.0207 0.7448
34.6000 23.0340 0.7448
34.6200 23.0474 0.7464
34.6400 23.0607 0.7467
34.6600 23.0740 0.7469
34.6800 23.0874 0.7489
34.7000 23.1007 0.7506
34.7200 23.1141 0.7496
34.7400 23.1275 0.7505
34.7600 23.1408 0.7495
34.7800 23.1541 0.7503
34.8000 23.1674 0.7482
34.8200 23.1808 0.7521
34.8400 23.1941 0.7495
34.8600 23.2074 0.7518
34.8800 23.2207 0.7511
34.9000 23.2341 0.7516
34.9200 23.2474 0.7510
34.9400 23.2608 0.7544
34.9600 23.2741 0.7541
34.9800 23.2874 0.7539
35.0000 23.3007 0.7532
35.0200 23.3141 0.7553
35.0400 23.3274 0.7549
35.0600 23.3407 0.7561
35.0800 23.3541 0.7570
35.1000 23.3675 0.7549
35.1200 23.3808 0.7573
35.1400 23.3941 0.7566
35.1600 23.4074 0.7602
35.1800 23.4208 0.7591
35.2000 23.4341 0.7600
35.2200 23.4475 0.7577
35.2400 23.4607 0.7602
35.2600 23.4741 0.7601
35.2800 23.4874 0.7614
35.3000 23.5007 0.7598
35.3200 23.5140 0.7615
35.3400 23.5274 0.7609
35.3600 23.5407 0.7618
35.3800 23.5541 0.7615
35.4000 23.5674 0.7611
35.4200 23.5807 0.7618
35.4400 23.5941 0.7602
35.4600 23.6075 0.7617
35.4800 23.6208 0.7626
35.5000 23.6341 0.7646
35.5200 23.6475 0.7645
35.5400 23.6608 0.7643
35.5600 23.6742 0.7647
35.5800 23.6874 0.7638
35.6000 23.7007 0.7671
35.6200 23.7140 0.7667
35.6400 23.7274 0.7668
35.6600 23.7407 0.7664
35.6800 23.7540 0.7670
35.7000 23.7673 0.7672
35.7200 23.7807 0.7696
35.7400 23.7940 0.7678
35.7600 23.8074 0.7697
35.7800 23.8207 0.7689
35.8000 23.8341 0.7722
35.8200 23.8474 0.7709
35.8400 23.8608 0.7729
35.8600 23.8741 0.7724
35.8800 23.8874 0.7713
35.9000 23.9008 0.7714
35.9200 23.9141 0.7709
35.9400 23.9275 0.7718
35.9600 23.9408 0.7732
35.9800 23.9541 0.7730
36.0000 23.9674 0.7748
36.0200 23.9807 0.7751
36.0400 23.9940 0.7750
36.0600 24.0074 0.7753
36.0800 24.0207 0.7748
36.1000 24.0341 0.7773
36.1200 24.0474 0.7763
36.1400 24.0607 0.7779
36.1600 24.0741 0.7767
36.1800 24.0875 0.7770
36.2000 24.1008 0.7771
36.2200 24.1141 0.7797
36.2400 24.1274 0.7790
36.2600 24.1408 0.7799
36.2800 24.1541 0.7794
36.3000 24.1675 0.7807
36.3200 24.1808 0.7805
36.3400 24.1941 0.7817
36.3600 24.2074 0.7813
36.3800 24.2208 0.7829
36.4000 24.2341 0.7844
36.4200 24.2474 0.7835
36.4400 24.2607 0.7845
36.4600 24.2741 0.7845
36.4800 24.2874 0.7849
36.5000 24.3007 0.7851
36.5200 24.3141 0.7835
36.5400 24.3274 0.7855
36.5600 24.3408 0.7851
36.5800 24.3541 0.7873
36.6000 24.3674 0.7875
36.6200 24.3808 0.7881
36.6400 24.3941 0.7905
36.6600 24.4075 0.7891
36.6800 24.4208 0.7881
36.7000 24.4341 0.7884
36.7200 24.4474 0.7878
36.7400 24.4608 0.7890
36.7600 24.4741 0.7922
36.7800 24.4874 0.7922
36.8000 24.5007 0.7938
36.8200 24.5140 0.7919
36.8400 24.5274 0.7926
36.8600 24.5407 0.7939
36.8800 24.5541 0.7950
36.9000 24.5674 0.7923
36.9200 24.5808 0.7936
36.9400 24.5941 0.7950
36.9600 24.6074 0.7932
36.9800 24.6208 0.7950
37.0000 24.6341 0.7936
37.0200 24.6474 0.7945
37.0400 24.6608 0.7968
37.0600 24.6741 0.7975
37.0800 24.6874 0.7970
37.1000 24.7008 0.7981
37.1200 24.7141 0.7983
37.1400 24.7274 0.7993
37.1600 24.7407 0.7973
37.1800 24.7540 0.8000
37.2000 24.7674 0.7991
37.2200 24.7807 0.8012
37.2400 24.7941 0.7986
37.2600 24.8074 0.8008
37.2800 24.8208 0.8013
37.3000 24.8341 0.8031
37.3200 24.8474 0.8017
37.3400 24.8608 0.8033
37.3600 24.8742 0.8003
37.3800 24.8875 0.8013
37.4000 24.9008 0.8023
37.4200 24.9141 0.8044
37.4400 24.9274 0.8046
37.4600 24.9408 0.8048
37.4800 24.9541 0.8065
37.5000 24.9673 0.8065
37.5200 24.9807 0.8070
37.5400 24.9940 0.8064
37.5600 25.0074 0.8064
37.5800 25.0207 0.8060
37.6000 25.0341 0.8069
37.6200 25.0474 0.8081
37.6400 25.0608 0.8083
37.6600 25.0741 0.8101
37.6800 25.0874 0.8095
37.7000 25.1008 0.8106
37.7200 25.1142 0.8112
37.7400 25.1275 0.8121
37.7600 25.1408 0.8146
37.7800 25.1541 0.8132
37.8000 25.1674 0.8135
37.8200 25.1808 0.8135
37.8400 25.1941 0.8158
37.8600 25.2074 0.8129
37.8800 25.2207 0.8159
37.9000 25.2340 0.8146
37.9200 25.2474 0.8158
37.9400 25.2607 0.8139
37.9600 25.2741 0.8162
37.9800 25.2874 0.8138
38.0000 25.3008 0.8156
38.0200 25.3141 0.8168
38.0400 25.3274 0.8180
38.0600 25.3408 0.8173
38.0800 25.3542 0.8196
38.1000 25.3675 0.8179
38.1200 25.3808 0.8211
38.1400 25.3941 0.8202
38.1600 25.4074 0.8212
38.1800 25.4207 0.8201
38.2000 25.4340 0.8221
38.2200 25.4474 0.8231
38.2400 25.4607 0.8227
38.2600 25.4740 0.8241
38.2800 25.4874 0.8222
38.3000 25.5007 0.8241
38.3200 25.5140 0.8239
38.3400 25.5274 0.8215
38.3600 25.5408 0.8266
38.3800 25.5541 0.8259
38.4000 25.5674 0.8276
38.4200 25.5808 0.8259
38.4400 25.5941 0.8295
38.4600 25.6075 0.8270
38.4800 25.6208 0.8285
38.5000 25.6341 0.8279
38.5200 25.6474 0.8283
38.5400 25.6608 0.8285
38.5600 25.6741 0.8310
38.5800 25.6874 0.8305
38.6000 25.7007 0.8327
38.6200 25.7141 0.8323
38.6400 25.7274 0.8315
38.6600 25.7407 0.8329
38.6800 25.7540 0.8335
38.7000 25.7674 0.8336
38.7200 25.7808 0.8322
38.7400 25.7941 0.8342
38.7600 25.8075 0.8345
38.7800 25.8208 0.8354
38.8000 25.8341 0.8348
38.8200 25.8475 0.8348
38.8400 25.8608 0.8368
38.8600 25.8741 0.8390
38.8800 25.8874 0.8369
38.9000 25.9008 0.8362
38.9200 25.9141 0.8387
38.9400 25.9274 0.8380
38.9600 25.9407 0.8381
38.9800 25.9540 0.8386
39.0000 25.9674 0.8403
39.0200 25.9807 0.8415
39.0400 25.9941 0.8427
39.0600 26.0074 0.8414
39.0800 26.0208 0.8401
39.1000 26.0341 0.8451
39.1200 26.0475 0.8417
39.1400 26.0608 0.8445
39.1600 26.0742 0.8448
39.1800 26.0875 0.8460
39.2000 26.1008 0.8446
39.2200 26.1141 0.8465
39.2400 26.1274 0.8463
39.2600 26.1408 0.8460
39.2800 26.1541 0.8467
39.3000 26.1674 0.8485
39.3200 26.1807 0.8464
39.3400 26.1941 0.8471
39.3600 26.2074 0.8462
39.3800 26.2207 0.8460
39.4000 26.2341 0.8504
39.4200 26.2474 0.8512
39.4400 26.2608 0.8507
39.4600 26.2742 0.8521
39.4800 26.2875 0.8500
39.5000 26.3008 0.8508
39.5200 26.3142 0.8526
39.5400 26.3275 0.8539
39.5600 26.3408 0.8541
39.5800 26.3541 0.8568
39.6000 26.3674 0.8553
39.6200 26.3807 0.8542
39.6400 26.3940 0.8546
39.6600 26.4073 0.8573
39.6800 26.4206 0.8569
39.7000 26.4340 0.8570
39.7200 26.4474 0.8546
39.7400 26.4607 0.8562
39.7600 26.4741 0.8586
39.7800 26.4874 0.8592
39.8000 26.5008 0.8597
39.8200 26.5141 0.8607
39.8400 26.5275 0.8601
39.8600 26.5408 0.8597
39.8800 26.5541 0.8616
39.9000 26.5675 0.8616
39.9200 26.5808 0.8609
39.9400 26.5940 0.8623
39.9600 26.6074 0.8624
39.9800 26.6207 0.8633
40.0000 26.6341 0.8651
40.0200 26.6474 0.8645
40.0400 26.6607 0.8657
40.0600 26.6740 0.8664
40.0800 26.6874 0.8670
40.1000 26.7007 0.8674
40.1200 26.7140 0.8708
40.1400 26.7274 0.8700
40.1600 26.7408 0.8687
40.1800 26.7541 0.8684
40.2000 26.7674 0.8671
40.2200 26.7808 0.8681
40.2400 26.7942 0.8710
40.2600 26.8075 0.8698
40.2800 26.8208 0.8721
40.3000 26.8341 0.8734
40.3200 26.8474 0.8732
40.3400 26.8608 0.8723
40.3600 26.8741 0.8737
40.3800 26.8874 0.8742
40.4000 26.9007 0.8751
40.4200 26.9140 0.8760
40.4400 26.9274 0.8771
40.4600 26.9407 0.8734
40.4800 26.9541 0.8760
40.5000 26.9674 0.8768
40.5200 26.9808 0.8774
40.5400 26.9941 0.8779
40.5600 27.0074 0.8788
40.5800 27.0208 0.8785
40.6000 27.0341 0.8797
40.6200 27.0475 0.8815
40.6400 27.0608 0.8812
40.6600 27.0741 0.8831
40.6800 27.0874 0.8831
40.7000 27.1008 0.8830
40.7200 27.1141 0.8843
40.7400 27.1274 0.8843
40.7600 27.1407 0.8830
40.7800 27.1540 0.8837
40.8000 27.1674 0.8822
40.8200 27.1807 0.8861
40.8400 27.1940 0.8880
40.8600 27.2074 0.8878
40.8800 27.2208 0.8863
40.9000 27.2341 0.8878
40.9200 27.2475 0.8872
40.9400 27.2608 0.8864
40.9600 27.2742 0.8889
40.9800 27.2875 0.8921
41.0000 27.3008 0.8900
41.0200 27.3141 0.8917
41.0400 27.3274 0.8900
41.0600 27.3407 0.8889
41.0800 27.3540 0.8916
41.1000 27.3673 0.8920
41.1200 27.3807 0.8919
41.1400 27.3940 0.8939
41.1600 27.4074 0.8938
41.1800 27.4207 0.8924
41.2000 27.4340 0.8962
41.2200 27.4474 0.8960
41.2400 27.4608 0.8949
41.2600 27.4742 0.8985
41.2800 27.4875 0.8984
41.3000 27.5008 0.8980
41.3200 27.5141 0.8995
41.3400 27.5275 0.9009
41.3600 27.5408 0.8998
41.3800 27.5541 0.9021
41.4000 27.5674 0.9018
41.4200 27.5807 0.9023
41.4400 27.5941 0.9020
41.4600 27.6074 0.9032
41.4800 27.6207 0.9002
41.5000 27.6340 0.9037
41.5200 27.6474 0.9043
41.5400 27.6607 0.9031
41.5600 27.6741 0.9051
41.5800 27.6874 0.9073
41.6000 27.7008 0.9068
41.6200 27.7141 0.9085
41.6400 27.7274 0.9069
41.6600 27.7408 0.9046
41.6800 27.7541 0.9075
41.7000 27.7675 0.9079
41.7200 27.7808 0.9090
41.7400 27.7941 0.9112
41.7600 27.8074 0.9122
41.7800 27.8207 0.9085
41.8000 27.8341 0.9113
41.8200 27.8474 0.9121
41.8400 27.8607 0.9123
41.8600 27.8740 0.9146
41.8800 27.8874 0.9144
41.9000 27.9007 0.9131
41.9200 27.9141 0.9142
41.9400 27.9274 0.9171
41.9600 27.9408 0.9153
41.9800 27.9541 0.9162
42.0000 27.9674 0.9172
42.0200 27.9808 0.9172
42.0400 27.9941 0.9190
42.0600 28.0075 0.9196
42.0800 28.0208 0.9174
42.1000 28.0341 0.9191
42.1200 28.0474 0.9196
42.1400 28.0607 0.9198
42.1600 28.0741 0.9207
42.1800 28.0874 0.9233
42.2000 28.1007 0.9217
42.2200 28.1140 0.9227
42.2400 28.1274 0.9248
42.2600 28.1407 0.9234
42.2800 28.1540 0.9254
42.3000 28.1674 0.9260
42.3200 28.1808 0.9243
42.3400 28.1941 0.9255
42.3600 28.2074 0.9268
42.3800 28.2208 0.9264
42.4000 28.2341 0.9283
42.4200 28.2475 0.9285
42.4400 28.2608 0.9283
42.4600 28.2741 0.9309
42.4800 28.2874 0.9331
42.5000 28.3007 0.9306
42.5200 28.3141 0.9323
42.5400 28.3274 0.9317
42.5600 28.3407 0.9296
42.5800 28.3540 0.9328
42.6000 28.3674 0.9329
42.6200 28.3807 0.9327
42.6400 28.3941 0.9347
42.6600 28.4074 0.9354
42.6800 28.4208 0.9347
42.7000 28.4342 0.9370
42.7200 28.4475 0.9394
42.7400 28.4608 0.9368
42.7600 28.4741 0.9389
42.7800 28.4875 0.9393
42.8000 28.5008 0.9387
42.8200 28.5141 0.9409
42.8400 28.5274 0.9416
42.8600 28.5407 0.9408
42.8800 28.5541 0.9431
42.9000 28.5674 0.9451
42.9200 28.5807 0.9431
42.9400 28.5940 0.9438
42.9600 28.6074 0.9456
42.9800 28.6207 0.9437
43.0000 28.6340 0.9456
43.0200 28.6474 0.9470
43.0400 28.6608 0.9465
43.0600 28.6741 0.9459
43.0800 28.6875 0.9503
43.1000 28.7008 0.9467
43.1200 28.7141 0.9499
43.1400 28.7275 0.9489
43.1600 28.7408 0.9490
43.1800 28.7541 0.9509
43.2000 28.7674 0.9525
43.2200 28.7807 0.9512
43.2400 28.7940 0.9526
43.2600 28.8074 0.9553
43.2800 28.8207 0.9533
43.3000 28.8340 0.9544
43.3200 28.8474 0.9549
43.3400 28.8607 0.9557
43.3600 28.8741 0.9561
43.3800 28.8874 0.9583
43.4000 28.9008 0.9569
43.4200 28.9142 0.9568
43.4400 28.9275 0.9574
43.4600 28.9408 0.9586
43.4800 28.9541 0.9586
43.5000 28.9674 0.9618
43.5200 28.9808 0.9606
43.5400 28.9941 0.9619
43.5600 29.0074 0.9628
43.5800 29.0208 0.9631
43.6000 29.0341 0.9630
43.6200 29.0474 0.9663
43.6400 29.0607 0.9641
43.6600 29.0740 0.9659
43.6800 29.0874 0.9671
43.7000 29.1007 0.9636
43.7200 29.1140 0.9669
43.7400 29.1274 0.9700
43.7600 29.1408 0.9690
43.7800 29.1541 0.9700
43.8000 29.1675 0.9694
43.8200 29.1808 0.9697
43.8400 29.1941 0.9689
43.8600 29.2074 0.9723
43.8800 29.2208 0.9704
43.9000 29.2341 0.9721
43.9200 29.2474 0.9744
43.9400 29.2608 0.9733
43.9600 29.2741 0.9754
43.9800 29.2874 0.9771
44.0000 29.3007 0.9754
44.0200 29.3140 0.9781
44.0400 29.3273 0.9801
44.0600 29.3407 0.9781
44.0800 29.3540 0.9779
44.1000 29.3674 0.9793
44.1200 29.3807 0.9799
44.1400 29.3941 0.9800
44.1600 29.4074 0.9804
44.1800 29.4208 0.9796
44.2000 29.4341 0.9804
44.2200 29.4475 0.9816
44.2400 29.4608 0.9820
44.2600 29.4741 0.9848
44.2800 29.4874 0.9843
44.3000 29.5007 0.9828
44.3200 29.5141 0.9859
44.3400 29.5274 0.9876
44.3600 29.5407 0.9895
44.3800 29.5540 0.9877
44.4000 29.5673 0.9880
44.4200 29.5807 0.9865
44.4400 29.5940 0.9903
44.4600 29.6074 0.9910
44.4800 29.6207 0.9907
44.5000 29.6341 0.9894
44.5200 29.6474 0.9962
44.5400 29.6608 0.9930
44.5600 29.6741 0.9955
44.5800 29.6875 0.9951
44.6000 29.7008 0.9960
44.6200 29.7141 0.9953
44.6400 29.7274 0.9967
44.6600 29.7407 0.9962
44.6800 29.7541 0.9982
44.7000 29.7674 0.9999
44.7200 29.7807 0.9974
44.7400 29.7940 0.9987
44.7600 29.8074 1.0014
44.7800 29.8207 1.0006
44.8000 29.8340 1.0016
44.8200 29.8474 1.0029
44.8400 29.8607 1.0017
44.8600 29.8741 1.0031
44.8800 29.8875 1.0037
44.9000 29.9008 1.0049
44.9200 29.9141 1.0043
44.9400 29.9275 1.0084
44.9600 29.9408 1.0074
44.9800 29.9541 1.0070
45.0000 29.9674 1.0084
45.0200 29.9807 1.0066
45.0400 29.9941 1.0092
45.0600 30.0074 1.0102
45.0800 30.0207 1.0097
45.1000 30.0340 1.0097
45.1200 30.0474 1.0135
45.1400 30.0607 1.0133
45.1600 30.0741 1.0153
45.1800 30.0874 1.0156
45.2000 30.1007 1.0138
45.2200 30.1141 1.0141
45.2400 30.1274 1.0176
45.2600 30.1408 1.0160
45.2800 30.1541 1.0158
45.3000 30.1675 1.0191
45.3200 30.1808 1.0163
45.3400 30.1941 1.0193
45.3600 30.2074 1.0205
45.3800 30.2207 1.0219
45.4000 30.2341 1.0220
45.4200 30.2474 1.0212
45.4400 30.2607 1.0225
45.4600 30.2740 1.0228
45.4800 30.2874 1.0245
45.5000 30.3007 1.0262
45.5200 30.3141 1.0253
45.5400 30.3274 1.0272
45.5600 30.3407 1.0252
45.5800 30.3541 1.0280
45.6000 30.3675 1.0279
45.6200 30.3808 1.0300
45.6400 30.3941 1.0286
45.6600 30.4074 1.0314
45.6800 30.4208 1.0307
45.7000 30.4341 1.0331
45.7200 30.4474 1.0353
45.7400 30.4608 1.0339
45.7600 30.4741 1.0322
45.7800 30.4875 1.0358
45.8000 30.5008 1.0343
45.8200 30.5140 1.0363
45.8400 30.5274 1.0380
45.8600 30.5407 1.0394
45.8800 30.5540 1.0388
45.9000 30.5673 1.0399
45.9200 30.5807 1.0372
45.9400 30.5941 1.0373
45.9600 30.6075 1.0399
45.9800 30.6208 1.0414
46.0000 30.6341 1.0423
46.0200 30.6475 1.0425
46.0400 30.6608 1.0435
46.0600 30.6742 1.0426
46.0800 30.6875 1.0463
46.1000 30.7008 1.0463
46.1200 30.7141 1.0454
46.1400 30.7274 1.0473
46.1600 30.7407 1.0484
46.1800 30.7540 1.0475
46.2000 30.7673 1.0491
46.2200 30.7807 1.0494
46.2400 30.7940 1.0485
46.2600 30.8074 1.0530
46.2800 30.8207 1.0527
46.3000 30.8341 1.0519
46.3200 30.8475 1.0527
46.3400 30.8608 1.0553
46.3600 30.8741 1.0545
46.3800 30.8875 1.0577
46.4000 30.9008 1.0570
46.4200 30.9141 1.0555
46.4400 30.9274 1.0564
46.4600 30.9407 1.0589
46.4800 30.9541 1.0583
46.5000 30.9674 1.0587
46.5200 30.9807 1.0588
46.5400 30.9940 1.0582
46.5600 31.0073 1.0618
46.5800 31.0207 1.0627
46.6000 31.0340 1.0629
46.6200 31.0474 1.0641
46.6400 31.0607 1.0653
46.6600 31.0741 1.0658
46.6800 31.0875 1.0663
46.7000 31.1008 1.0665
46.7200 31.1141 1.0667
46.7400 31.1275 1.0685
46.7600 31.1408 1.0688
46.7800 31.1541 1.0681
46.8000 31.1674 1.0701
46.8200 31.1807 1.0733
46.8400 31.1940 1.0714
46.8600 31.2074 1.0736
46.8800 31.2207 1.0709
46.9000 31.2340 1.0736
46.9200 31.2473 1.0757
46.9400 31.2607 1.0761
46.9600 31.2740 1.0749
46.9800 31.2874 1.0788
47.0000 31.3007 1.0765
47.0200 31.3141 1.0770
47.0400 31.3275 1.0796
47.0600 31.3408 1.0818
47.0800 31.3541 1.0805
47.1000 31.3675 1.0803
47.1200 31.3808 1.0829
47.1400 31.3942 1.0815
47.1600 31.4074 1.0866
47.1800 31.4207 1.0840
47.2000 31.4341 1.0845
47.2200 31.4474 1.0855
47.2400 31.4607 1.0885
47.2600 31.4740 1.0878
47.2800 31.4874 1.0901
47.3000 31.5007 1.0886
47.3200 31.5140 1.0882
47.3400 31.5274 1.0891
47.3600 31.5407 1.0912
47.3800 31.5541 1.0913
47.4000 31.5675 1.0937
47.4200 31.5808 1.0942
47.4400 31.5941 1.0956
47.4600 31.6075 1.0972
47.4800 31.6209 1.0978
47.5000 31.6342 1.0956
47.5200 31.6475 1.0962
47.5400 31.6608 1.0964
47.5600 31.6741 1.0980
47.5800 31.6875 1.0991
47.6000 31.7008 1.1014
47.6200 31.7140 1.1010
47.6400 31.7273 1.1025
47.6600 31.7407 1.1031
47.6800 31.7540 1.1036
47.7000 31.7674 1.1061
47.7200 31.7807 1.1072
47.7400 31.7941 1.1049
47.7600 31.8075 1.1075
47.7800 31.8208 1.1073
47.8000 31.8341 1.1084
47.8200 31.8474 1.1117
47.8400 31.8608 1.1113
47.8600 31.8741 1.1103
47.8800 31.8874 1.1123
47.9000 31.9007 1.1127
47.9200 31.9141 1.1117
47.9400 31.9274 1.1147
47.9600 31.9407 1.1150
47.9800 31.9540 1.1160
48.0000 31.9673 1.1186
48.0200 31.9807 1.1170
48.0400 31.9940 1.1175
48.0600 32.0073 1.1185
48.0800 32.0207 1.1174
48.1000 32.0341 1.1202
48.1200 32.0475 1.1196
48.1400 32.0608 1.1220
48.1600 32.0741 1.1219
48.1800 32.0874 1.1236
48.2000 32.1008 1.1237
48.2200 32.1142 1.1241
48.2400 32.1275 1.1266
48.2600 32.1408 1.1276
48.2800 32.1541 1.1269
48.3000 32.1674 1.1281
48.3200 32.1807 1.1299
48.3400 32.1940 1.1283
48.3600 32.2074 1.1291
48.3800 32.2207 1.1313
48.4000 32.2341 1.1316
48.4200 32.2474 1.1338
48.4400 32.2607 1.1347
48.4600 32.2741 1.1336
48.4800 32.2875 1.1345
48.5000 32.3008 1.1363
48.5200 32.3141 1.1370
48.5400 32.3274 1.1388
48.5600 32.3408 1.1400
48.5800 32.3541 1.1394
48.6000 32.3674 1.1407
48.6200 32.3807 1.1421
48.6400 32.3940 1.1426
48.6600 32.4074 1.1435
48.6800 32.4207 1.1448
48.7000 32.4340 1.1455
48.7200 32.4474 1.1446
48.7400 32.4607 1.1493
48.7600 32.4741 1.1462
48.7800 32.4874 1.1494
48.8000 32.5008 1.1488
48.8200 32.5141 1.1517
48.8400 32.5275 1.1516
48.8600 32.5408 1.1545
48.8800 32.5541 1.1531
48.9000 32.5674 1.1546
48.9200 32.5808 1.1549
48.9400 32.5942 1.1547
48.9600 32.6075 1.1560
48.9800 32.6208 1.1562
49.0000 32.6341 1.1552
49.0200 32.6474 1.1578
49.0400 32.6607 1.1582
49.0600 32.6740 1.1597
49.0800 32.6873 1.1608
49.1000 32.7007 1.1617
49.1200 32.7140 1.1616
49.1400 32.7274 1.1629
49.1600 32.7407 1.1647
49.1800 32.7541 1.1653
49.2000 32.7675 1.1657
49.2200 32.7808 1.1672
49.2400 32.7941 1.1662
49.2600 32.8074 1.1697
49.2800 32.8208 1.1704
49.3000 32.8341 1.1694
49.3200 32.8474 1.1726
49.3400 32.8607 1.1732
49.3600 32.8741 1.1727
49.3800 32.8874 1.1735
49.4000 32.9008 1.1754
49.4200 32.9141 1.1773
49.4400 32.9274 1.1772
49.4600 32.9407 1.1779
49.4800 32.9540 1.1779
49.5000 32.9674 1.1765
49.5200 32.9807 1.1814
49.5400 32.9941 1.1798
49.5600 33.0074 1.1814
49.5800 33.0208 1.1839
49.6000 33.0341 1.1832
49.6200 33.0474 1.1846
49.6400 33.0608 1.1847
49.6600 33.0742 1.1860
49.6800 33.0875 1.1858
49.7000 33.1008 1.1874
49.7200 33.1141 1.1877
49.7400 33.1274 1.1871
49.7600 33.1407 1.1907
49.7800 33.1540 1.1907
49.8000 33.1673 1.1918
49.8200 33.1807 1.1932
49.8400 33.1940 1.1929
49.8600 33.2074 1.1925
49.8800 33.2207 1.1968
49.9000 33.2341 1.1960
49.9200 33.2475 1.1988
49.9400 33.2608 1.2013
49.9600 33.2742 1.2007
49.9800 33.2875 1.1986
50.0000 33.3008 1.2012
50.0200 33.3141 1.2014
50.0400 33.3274 1.2034
50.0600 33.3407 1.2049
50.0800 33.3540 1.2036
50.1000 33.3674 1.2048
50.1200 33.3808 1.2053
50.1400 33.3941 1.2052
50.1600 33.4074 1.2082
50.1800 33.4207 1.2116
50.2000 33.4340 1.2111
50.2200 33.4474 1.2125
50.2400 33.4607 1.2135
50.2600 33.4741 1.2142
50.2800 33.4874 1.2133
50.3000 33.5008 1.2157
50.3200 33.5141 1.2175
50.3400 33.5274 1.2169
50.3600 33.5408 1.2185
50.3800 33.5541 1.2171
50.4000 33.5675 1.2203
50.4200 33.5808 1.2209
50.4400 33.5941 1.2214
50.4600 33.6074 1.2212
50.4800 33.6207 1.2247
50.5000 33.6340 1.2250
50.5200 33.6473 1.2273
50.5400 33.6607 1.2262
50.5600 33.6741 1.2273
50.5800 33.6874 1.2280
50.6000 33.7007 1.2308
50.6200 33.7141 1.2307
50.6400 33.7275 1.2311
50.6600 33.7408 1.2311
50.6800 33.7541 1.2320
50.7000 33.7674 1.2345
50.7200 33.7808 1.2345
50.7400 33.7941 1.2348
50.7600 33.8074 1.2349
50.7800 33.8208 1.2381
50.8000 33.8341 1.2387
50.8200 33.8474 1.2382
50.8400 33.8608 1.2393
50.8600 33.8741 1.2434
50.8800 33.8874 1.2436
50.9000 33.9007 1.2448
50.9200 33.9141 1.2418
50.9400 33.9274 1.2457
50.9600 33.9407 1.2484
50.9800 33.9540 1.2488
51.0000 33.9674 1.2481
51.0200 33.9808 1.2501
51.0400 33.9941 1.2512
51.0600 34.0074 1.2521
51.0800 34.0208 1.2536
51.1000 34.0341 1.2541
51.1200 34.0475 1.2532
51.1400 34.0608 1.2573
51.1600 34.0741 1.2572
51.1800 34.0875 1.2596
51.2000 34.1008 1.2587
51.2200 34.1141 1.2607
51.2400 34.1274 1.2585
51.2600 34.1407 1.2628
51.2800 34.1540 1.2622
51.3000 34.1674 1.2653
51.3200 34.1807 1.2648
51.3400 34.1941 1.2663
51.3600 34.2075 1.2650
51.3800 34.2208 1.2687
51.4000 34.2341 1.2682
51.4200 34.2474 1.2702
51.4400 34.2608 1.2709
51.4600 34.2742 1.2702
51.4800 34.2875 1.2738
51.5000 34.3008 1.2753
51.5200 34.3141 1.2754
51.5400 34.3274 1.2762
51.5600 34.3408 1.2771
51.5800 34.3541 1.2786
51.6000 34.3674 1.2775
51.6200 34.3807 1.2794
51.6400 34.3940 1.2803
51.6600 34.4074 1.2812
51.6800 34.4207 1.2829
51.7000 34.4340 1.2834
51.7200 34.4474 1.2845
51.7400 34.4608 1.2871
51.7600 34.4741 1.2867
51.7800 34.4874 1.2882
51.8000 34.5008 1.2904
51.8200 34.5142 1.2910
51.8400 34.5275 1.2909
51.8600 34.5408 1.2910
51.8800 34.5541 1.2944
51.9000 34.5674 1.2943
51.9200 34.5808 1.2947
51.9400 34.5941 1.2950
51.9600 34.6074 1.2971
51.9800 34.6207 1.2981
52.0000 34.6340 1.2993
52.0200 34.6474 1.2995
52.0400 34.6607 1.3007
52.0600 34.6741 1.3007
52.0800 34.6874 1.3020
52.1000 34.7008 1.3039
52.1200 34.7141 1.3083
52.1400 34.7274 1.3077
52.1600 34.7407 1.3084
52.1800 34.7541 1.3073
52.2000 34.7675 1.3096
52.2200 34.7808 1.3102
52.2400 34.7941 1.3112
52.2600 34.8074 1.3123
52.2800 34.8208 1.3150
52.3000 34.8341 1.3163
52.3200 34.8474 1.3187
52.3400 34.8607 1.3179
52.3600 34.8740 1.3202
52.3800 34.8874 1.3188
52.4000 34.9007 1.3217
52.4200 34.9141 1.3226
52.4400 34.9274 1.3234
52.4600 34.9408 1.3236
52.4800 34.9541 1.3251
52.5000 34.9674 1.3263
52.5200 34.9808 1.3282
52.5400 34.9941 1.3298
52.5600 35.0075 1.3293
52.5800 35.0208 1.3314
52.6000 35.0341 1.3319
52.6200 35.0474 1.3334
52.6400 35.0607 1.3328
52.6600 35.0741 1.3356
52.6800 35.0873 1.3354
52.7000 35.1007 1.3374
52.7200 35.1140 1.3390
52.7400 35.1274 1.3375
52.7600 35.1407 1.3385
52.7800 35.1541 1.3413
52.8000 35.1674 1.3431
52.8200 35.1808 1.3445
52.8400 35.1941 1.3454
52.8600 35.2074 1.3459
52.8800 35.2208 1.3490
52.9000 35.2341 1.3491
52.9200 35.2475 1.3485
52.9400 35.2608 1.3520
52.9600 35.2741 1.3522
52.9800 35.2874 1.3533
53.0000 35.3008 1.3541
53.0200 35.3141 1.3561
53.0400 35.3274 1.3564
53.0600 35.3407 1.3610
53.0800 35.3540 1.3587
53.1000 35.3674 1.3595
53.1200 35.3807 1.3608
53.1400 35.3940 1.3634
53.1600 35.4074 1.3646
53.1800 35.4208 1.3656
53.2000 35.4342 1.3670
53.2200 35.4475 1.3658
53.2400 35.4608 1.3681
53.2600 35.4741 1.3699
53.2800 35.4875 1.3713
53.3000 35.5008 1.3726
53.3200 35.5141 1.3733
53.3400 35.5274 1.3746
53.3600 35.5407 1.3759
53.3800 35.5541 1.3766
53.4000 35.5674 1.3777
53.4200 35.5807 1.3784
53.4400 35.5940 1.3794
53.4600 35.6073 1.3790
53.4800 35.6207 1.3815
53.5000 35.6340 1.3815
53.5200 35.6474 1.3827
53.5400 35.6608 1.3846
53.5600 35.6741 1.3866
53.5800 35.6875 1.3870
53.6000 35.7008 1.3896
53.6200 35.7141 1.3916
53.6400 35.7275 1.3913
53.6600 35.7408 1.3926
53.6800 35.7541 1.3929
53.7000 35.7674 1.3928
53.7200 35.7808 1.3944
53.7400 35.7941 1.3969
53.7600 35.8074 1.3977
53.7800 35.8207 1.3999
53.8000 35.8340 1.4013
53.8200 35.8474 1.4025
53.8400 35.8607 1.4036
53.8600 35.8741 1.4037
53.8800 35.8874 1.4056
53.9000 35.9008 1.4068
53.9200 35.9141 1.4063
53.9400 35.9275 1.4102
53.9600 35.9408 1.4099
53.9800 35.9541 1.4123
54.0000 35.9675 1.4126
54.0200 35.9808 1.4127
54.0400 35.9941 1.4149
54.0600 36.0074 1.4162
54.0800 36.0207 1.4164
54.1000 36.0341 1.4182
54.1200 36.0474 1.4198
54.1400 36.0607 1.4218
54.1600 36.0740 1.4258
54.1800 36.0874 1.4254
54.2000 36.1007 1.4248
54.2200 36.1141 1.4256
54.2400 36.1274 1.4264
54.2600 36.1408 1.4289
54.2800 36.1542 1.4309
54.3000 36.1675 1.4311
54.3200 36.1808 1.4320
54.3400 36.1941 1.4353
54.3600 36.2075 1.4347
54.3800 36.2208 1.4367
54.4000 36.2341 1.4381
54.4200 36.2474 1.4382
54.4400 36.2607 1.4407
54.4600 36.2741 1.4414
54.4800 36.2874 1.4439
54.5000 36.3007 1.4433
54.5200 36.3140 1.4469
54.5400 36.3274 1.4457
54.5600 36.3407 1.4461
54.5800 36.3540 1.4503
54.6000 36.3674 1.4504
54.6200 36.3808 1.4514
54.6400 36.3941 1.4542
54.6600 36.4075 1.4533
54.6800 36.4208 1.4559
54.7000 36.4341 1.4578
54.7200 36.4475 1.4589
54.7400 36.4608 1.4599
54.7600 36.4741 1.4610
54.7800 36.4874 1.4605
54.8000 36.5008 1.4627
54.8200 36.5141 1.4648
54.8400 36.5274 1.4651
54.8600 36.5407 1.4656
54.8800 36.5540 1.4690
54.9000 36.5674 1.4699
54.9200 36.5807 1.4711
54.9400 36.5940 1.4727
54.9600 36.6074 1.4725
54.9800 36.6208 1.4743
55.0000 36.6341 1.4744
55.0200 36.6474 1.4776
55.0400 36.6608 1.4778
55.0600 36.6741 1.4797
55.0800 36.6875 1.4817
55.1000 36.7008 1.4836
55.1200 36.7141 1.4869
55.1400 36.7274 1.4860
55.1600 36.7408 1.4878
55.1800 36.7541 1.4880
55.2000 36.7674 1.4897
55.2200 36.7807 1.4903
55.2400 36.7940 1.4925
55.2600 36.8074 1.4934
55.2800 36.8207 1.4963
55.3000 36.8340 1.4972
55.3200 36.8474 1.4970
55.3400 36.8608 1.4985
55.3600 36.8742 1.5008
55.3800 36.8875 1.5021
55.4000 36.9008 1.5034
55.4200 36.9142 1.5056
55.4400 36.9275 1.5047
55.4600 36.9408 1.5085
55.4800 36.9541 1.5097
55.5000 36.9674 1.5112
55.5200 36.9807 1.5111
55.5400 36.9941 1.5123
55.5600 37.0074 1.5145
55.5800 37.0207 1.5158
55.6000 37.0340 1.5153
55.6200 37.0474 1.5170
55.6400 37.0607 1.5186
55.6600 37.0741 1.5206
55.6800 37.0874 1.5228
55.7000 37.1008 1.5223
55.7200 37.1142 1.5237
55.7400 37.1275 1.5250
55.7600 37.1408 1.5277
55.7800 37.1541 1.5305
55.8000 37.1675 1.5311
55.8200 37.1808 1.5319
55.8400 37.1941 1.5326
55.8600 37.2074 1.5340
55.8800 37.2207 1.5352
55.9000 37.2340 1.5397
55.9200 37.2473 1.5394
55.9400 37.2607 1.5411
55.9600 37.2740 1.5420
55.9800 37.2874 1.5440
56.0000 37.3007 1.5444
56.0200 37.3141 1.5468
56.0400 37.3274 1.5482
56.0600 37.3408 1.5486
56.0800 37.3541 1.5511
56.1000 37.3674 1.5528
56.1200 37.3808 1.5537
56.1400 37.3941 1.5566
56.1600 37.4075 1.5585
56.1800 37.4208 1.5569
56.2000 37.4341 1.5589
56.2200 37.4474 1.5605
56.2400 37.4607 1.5614
56.2600 37.4741 1.5635
56.2800 37.4874 1.5650
56.3000 37.5007 1.5664
56.3200 37.5140 1.5696
56.3400 37.5274 1.5708
56.3600 37.5407 1.5697
56.3800 37.5541 1.5726
56.4000 37.5674 1.5740
56.4200 37.5808 1.5762
56.4400 37.5941 1.5777
56.4600 37.6075 1.5794
56.4800 37.6208 1.5781
56.5000 37.6341 1.5799
56.5200 37.6475 1.5825
56.5400 37.6608 1.5842
56.5600 37.6741 1.5859
56.5800 37.6874 1.5882
56.6000 37.7007 1.5898
56.6200 37.7141 1.5898
56.6400 37.7274 1.5941
56.6600 37.7407 1.5942
56.6800 37.7540 1.5952
56.7000 37.7674 1.5979
56.7200 37.7807 1.5978
56.7400 37.7941 1.5990
56.7600 37.8074 1.6019
56.7800 37.8208 1.6020
56.8000 37.8341 1.6051
56.8200 37.8475 1.6061
56.8400 37.8608 1.6079
56.8600 37.8741 1.6075
56.8800 37.8875 1.6095
56.9000 37.9008 1.6096
56.9200 37.9141 1.6128
56.9400 37.9274 1.6150
56.9600 37.9407 1.6165
56.9800 37.9541 1.6189
57.0000 37.9674 1.6213
57.0200 37.9807 1.6223
57.0400 37.9940 1.6210
57.0600 38.0073 1.6239
57.0800 38.0207 1.6239
57.1000 38.0340 1.6241
57.1200 38.0474 1.6252
57.1400 38.0608 1.6269
57.1600 38.0742 1.6272
57.1800 38.0875 1.6316
57.2000 38.1008 1.6337
57.2200 38.1141 1.6361
57.2400 38.1275 1.6389
57.2600 38.1408 1.6381
57.2800 38.1541 1.6410
57.3000 38.1674 1.6438
57.3200 38.1807 1.6451
57.3400 38.1941 1.6433
57.3600 38.2074 1.6464
57.3800 38.2207 1.6490
57.4000 38.2340 1.6508
57.4200 38.2473 1.6526
57.4400 38.2607 1.6525
57.4600 38.2740 1.6529
57.4800 38.2874 1.6561
57.5000 38.3007 1.6592
57.5200 38.3141 1.6584
57.5400 38.3275 1.6615
57.5600 38.3408 1.6632
57.5800 38.3541 1.6632
57.6000 38.3675 1.6647
57.6200 38.3808 1.6668
57.6400 38.3941 1.6674
57.6600 38.4074 1.6699
57.6800 38.4207 1.6714
57.7000 38.4341 1.6709
57.7200 38.4474 1.6758
57.7400 38.4607 1.6771
57.7600 38.4740 1.6782
57.7800 38.4874 1.6826
57.8000 38.5007 1.6817
57.8200 38.5141 1.6822
57.8400 38.5274 1.6838
57.8600 38.5408 1.6865
57.8800 38.5541 1.6870
57.9000 38.5675 1.6901
57.9200 38.5808 1.6907
57.9400 38.5941 1.6930
57.9600 38.6074 1.6945
57.9800 38.6208 1.6952
58.0000 38.6341 1.6977
58.0200 38.6474 1.7024
58.0400 38.6608 1.7024
58.0600 38.6741 1.7035
58.0800 38.6874 1.7047
58.1000 38.7007 1.7045
58.1200 38.7141 1.7056
58.1400 38.7274 1.7072
58.1600 38.7407 1.7101
58.1800 38.7541 1.7101
58.2000 38.7674 1.7144
58.2200 38.7807 1.7150
58.2400 38.7941 1.7163
58.2600 38.8074 1.7184
58.2800 38.8208 1.7217
58.3000 38.8341 1.7226
58.3200 38.8474 1.7243
58.3400 38.8608 1.7257
58.3600 38.8741 1.7275
58.3800 38.8874 1.7318
58.4000 38.9007 1.7319
58.4200 38.9141 1.7341
58.4400 38.9274 1.7346
58.4600 38.9407 1.7379
58.4800 38.9540 1.7387
58.5000 38.9674 1.7406
58.5200 38.9807 1.7424
58.5400 38.9940 1.7426
58.5600 39.0074 1.7460
58.5800 39.0207 1.7470
58.6000 39.0341 1.7478
58.6200 39.0475 1.7504
58.6400 39.0608 1.7517
58.6600 39.0741 1.7526
58.6800 39.0875 1.7547
58.7000 39.1008 1.7569
58.7200 39.1141 1.7565
58.7400 39.1274 1.7608
58.7600 39.1407 1.7621
58.7800 39.1541 1.7634
58.8000 39.1674 1.7641
58.8200 39.1807 1.7678
58.8400 39.1940 1.7691
58.8600 39.2074 1.7724
58.8800 39.2207 1.7739
58.9000 39.2340 1.7728
58.9200 39.2474 1.7754
58.9400 39.2607 1.7763
58.9600 39.2741 1.7771
58.9800 39.2875 1.7811
59.0000 39.3008 1.7840
59.0200 39.3141 1.7843
59.0400 39.3275 1.7860
59.0600 39.3409 1.7874
59.0800 39.3542 1.7897
59.1000 39.3674 1.7926
59.1200 39.3807 1.7932
59.1400 39.3941 1.7937
59.1600 39.4074 1.7954
59.1800 39.4207 1.7979
59.2000 39.4340 1.7998
59.2200 39.4473 1.8021
59.2400 39.4607 1.8027
59.2600 39.4740 1.8031
59.2800 39.4874 1.8065
59.3000 39.5007 1.8089
59.3200 39.5141 1.8084
59.3400 39.5275 1.8114
59.3600 39.5408 1.8159
59.3800 39.5541 1.8148
59.4000 39.5675 1.8197
59.4200 39.5808 1.8194
59.4400 39.5941 1.8212
59.4600 39.6074 1.8220
59.4800 39.6207 1.8269
59.5000 39.6341 1.8255
59.5200 39.6474 1.8285
59.5400 39.6607 1.8295
59.5600 39.6740 1.8307
59.5800 39.6874 1.8321
59.6000 39.7007 1.8354
59.6200 39.7141 1.8383
59.6400 39.7274 1.8416
59.6600 39.7407 1.8412
59.6800 39.7541 1.8422
59.7000 39.7674 1.8447
59.7200 39.7808 1.8473
59.7400 39.7941 1.8476
59.7600 39.8075 1.8498
59.7800 39.8208 1.8527
59.8000 39.8341 1.8550
59.8200 39.8474 1.8578
59.8400 39.8607 1.8605
59.8600 39.8741 1.8582
59.8800 39.8874 1.8602
59.9000 39.9007 1.8629
59.9200 39.9140 1.8632
59.9400 39.9274 1.8653
59.9600 39.9407 1.8671
59.9800 39.9540 1.8678
60.0000 39.9674 1.8719
60.0200 39.9807 1.8757
60.0400 39.9941 1.8767
60.0490 40.0000 1.8730
60.0500 40.0006 1.8723
60.0510 40.0013 1.8716
60.0710 40.0118 1.8568
60.0910 40.0140 1.8451
60.1110 40.0057 1.8600
60.1310 39.9929 1.8673
60.1510 39.9800 1.8587
60.1710 39.9671 1.8537
60.1910 39.9536 1.8500
60.2110 39.9396 1.8469
60.2310 39.9256 1.8404
60.2510 39.9118 1.8394
60.2710 39.8983 1.8315
60.2910 39.8850 1.8251
60.3110 39.8717 1.8223
60.3310 39.8585 1.8169
60.3510 39.8451 1.8134
60.3710 39.8317 1.8103
60.3910 39.8183 1.8053
60.4110 39.8049 1.7997
60.4310 39.7916 1.7957
60.4510 39.7783 1.7928
60.4710 39.7649 1.7875
60.4910 39.7515 1.7860
60.5110 39.7382 1.7805
60.5310 39.7249 1.7748
60.5510 39.7116 1.7750
60.5710 39.6982 1.7709
60.5910 39.6849 1.7658
60.6110 39.6716 1.7643
60.6310 39.6582 1.7601
60.6510 39.6449 1.7569
60.6710 39.6316 1.7529
60.6910 39.6183 1.7488
60.7110 39.6050 1.7431
60.7310 39.5916 1.7417
60.7510 39.5782 1.7381
60.7710 39.5649 1.7337
60.7910 39.5516 1.7327
60.8110 39.5383 1.7272
60.8310 39.5249 1.7224
60.8510 39.5115 1.7216
60.8710 39.4982 1.7193
60.8910 39.4849 1.7136
60.9110 39.4715 1.7115
60.9310 39.4582 1.7091
60.9510 39.4449 1.7016
60.9710 39.4316 1.7012
60.9910 39.4182 1.6965
61.0110 39.4049 1.6926
61.0310 39.3916 1.6916
61.0510 39.3783 1.6904
61.0710 39.3650 1.6841
61.0910 39.3517 1.6842
61.1110 39.3383 1.6792
61.1310 39.3249 1.6754
61.1510 39.3116 1.6731
61.1710 39.2982 1.6720
61.1910 39.2848 1.6665
61.2110 39.2715 1.6652
61.2310 39.2582 1.6623
61.2510 39.2449 1.6581
61.2710 39.2315 1.6566
61.2910 39.2182 1.6546
61.3110 39.2048 1.6474
61.3310 39.1915 1.6487
61.3510 39.1782 1.6440
61.3710 39.1649 1.6407
61.3910 39.1516 1.6409
61.4110 39.1383 1.6360
61.4310 39.1250 1.6325
61.4510 39.1116 1.6309
61.4710 39.0983 1.6289
61.4910 39.0849 1.6240
61.5110 39.0716 1.6212
61.5310 39.0582 1.6187
61.5510 39.0448 1.6161
61.5710 39.0315 1.6139
61.5910 39.0182 1.6119
61.6110 39.0049 1.6062
61.6310 38.9915 1.6051
61.6510 38.9782 1.6037
61.6710 38.9649 1.5991
61.6910 38.9516 1.5967
61.7110 38.9382 1.5932
61.7310 38.9249 1.5903
61.7510 38.9116 1.5893
61.7710 38.8983 1.5864
61.7910 38.8850 1.5829
61.8110 38.8716 1.5819
61.8310 38.8582 1.5818
61.8510 38.8449 1.5743
61.8710 38.8316 1.5732
61.8910 38.8182 1.5682
61.9110 38.8049 1.5665
61.9310 38.7915 1.5655
61.9510 38.7782 1.5622
61.9710 38.7649 1.5584
61.9910 38.7516 1.5578
62.0110 38.7382 1.5546
62.0310 38.7249 1.5517
62.0510 38.7116 1.5500
62.0710 38.6982 1.5469
62.0910 38.6849 1.5427
62.1110 38.6715 1.5420
62.1310 38.6582 1.5426
62.1510 38.6449 1.5380
62.1710 38.6316 1.5354
62.1910 38.6182 1.5321
62.2110 38.6049 1.5286
62.2310 38.5916 1.5261
62.2510 38.5782 1.5257
62.2710 38.5649 1.5215
62.2910 38.5515 1.5187
62.3110 38.5382 1.5176
62.3310 38.5249 1.5145
62.3510 38.5115 1.5136
62.3710 38.4982 1.5104
62.3910 38.4848 1.5078
62.4110 38.4715 1.5066
62.4310 38.4582 1.5046
62.4510 38.4449 1.4992
62.4710 38.4315 1.4990
62.4910 38.4182 1.4988
62.5110 38.4049 1.4951
62.5310 38.3916 1.4925
62.5510 38.3782 1.4903
62.5710 38.3649 1.4876
62.5910 38.3516 1.4852
62.6110 38.3382 1.4860
62.6310 38.3249 1.4812
62.6510 38.3115 1.4784
62.6710 38.2982 1.4796
62.6910 38.2849 1.4724
62.7110 38.2715 1.4746
62.7310 38.2582 1.4700
62.7510 38.2449 1.4677
62.7710 38.2316 1.4662
62.7910 38.2182 1.4653
62.8110 38.2049 1.4597
62.8310 38.1915 1.4579
62.8510 38.1782 1.4551
62.8710 38.1649 1.4513
62.8910 38.1516 1.4521
62.9110 38.1382 1.4510
62.9310 38.1249 1.4472
62.9510 38.1116 1.4453
62.9710 38.0982 1.4463
62.9910 38.0849 1.4434
63.0110 38.0715 1.4421
63.0310 38.0582 1.4387
63.0510 38.0449 1.4349
63.0710 38.0316 1.4320
63.0910 38.0182 1.4318
63.1110 38.0049 1.4285
63.1310 37.9915 1.4269
63.1510 37.9782 1.4256
63.1710 37.9649 1.4232
63.1910 37.9515 1.4204
63.2110 37.9382 1.4193
63.2310 37.9249 1.4160
63.2510 37.9116 1.4154
63.2710 37.8982 1.4156
63.2910 37.8849 1.4111
63.3110 37.8716 1.4100
63.3310 37.8582 1.4090
63.3510 37.8449 1.4046
63.3710 37.8315 1.4027
63.3910 37.8182 1.4032
63.4110 37.8049 1.4002
63.4310 37.7916 1.3983
63.4510 37.7782 1.3966
63.4710 37.7649 1.3928
63.4910 37.7516 1.3928
63.5110 37.7383 1.3920
63.5310 37.7249 1.3881
63.5510 37.7116 1.3862
63.5710 37.6982 1.3859
63.5910 37.6849 1.3813
63.6110 37.6716 1.3796
63.6310 37.6582 1.3791
63.6510 37.6449 1.3759
63.6710 37.6316 1.3730
63.6910 37.6182 1.3719
63.7110 37.6049 1.3698
63.7310 37.5915 1.3684
63.7510 37.5782 1.3689
63.7710 37.5649 1.3661
63.7910 37.5515 1.3637
63.8110 37.5382 1.3627
63.8310 37.5248 1.3598
63.8510 37.5115 1.3579
63.8710 37.4982 1.3577
63.8910 37.4849 1.3564
63.9110 37.4716 1.3515
63.9310 37.4583 1.3506
63.9510 37.4449 1.3460
63.9710 37.4316 1.3469
63.9910 37.4182 1.3476
64.0110 37.4049 1.3442
64.0310 37.3916 1.3418
64.0510 37.3782 1.3412
64.0710 37.3649 1.3367
64.0910 37.3515 1.3366
64.1110 37.3382 1.3345
64.1310 37.3249 1.3331
64.1510 37.3116 1.3296
64.1710 37.2982 1.3285
64.1910 37.2849 1.3278
64.2110 37.2716 1.3267
64.2310 37.2582 1.3255
64.2510 37.2449 1.3219
64.2710 37.2315 1.3183
64.2910 37.2182 1.3205
64.3110 37.2049 1.3173
64.3310 37.1916 1.3152
64.3510 37.1783 1.3157
64.3710 37.1650 1.3119
64.3910 37.1517 1.3099
64.4110 37.1383 1.3090
64.4310 37.1249 1.3055
64.4510 37.1115 1.3035
64.4710 37.0982 1.3043
64.4910 37.0849 1.3022
64.5110 37.0715 1.2996
64.5310 37.0582 1.2992
64.5510 37.0448 1.2973
64.5710 37.0315 1.2934
64.5910 37.0182 1.2941
64.6110 37.0049 1.2891
64.6310 36.9916 1.2900
64.6510 36.9782 1.2906
64.6710 36.9649 1.2874
64.6910 36.9516 1.2845
64.7110 36.9383 1.2864
64.7310 36.9249 1.2803
64.7510 36.9116 1.2787
64.7710 36.8982 1.2809
64.7910 36.8849 1.2799
64.8110 36.8715 1.2771
64.8310 36.8582 1.2774
64.8510 36.8449 1.2714
64.8710 36.8315 1.2688
64.8910 36.8182 1.2711
64.9110 36.8048 1.2690
64.9310 36.7915 1.2662
64.9510 36.7782 1.2667
64.9710 36.7649 1.2645
64.9910 36.7515 1.2624
65.0110 36.7382 1.2618
65.0310 36.7249 1.2599
65.0510 36.7116 1.2546
65.0710 36.6983 1.2555
65.0910 36.6849 1.2523
65.1110 36.6716 1.2514
65.1310 36.6582 1.2505
65.1510 36.6449 1.2485
65.1710 36.6315 1.2483
65.1910 36.6182 1.2487
65.2110 36.6049 1.2442
65.2310 36.5915 1.2412
65.2510 36.5782 1.2415
65.2710 36.5648 1.2401
65.2910 36.5515 1.2396
65.3110 36.5382 1.2388
65.3310 36.5249 1.2366
65.3510 36.5115 1.2334
65.3710 36.4982 1.2366
65.3910 36.4850 1.2339
65.4110 36.4716 1.2303
65.4310 36.4583 1.2297
65.4510 36.4449 1.2270
65.4710 36.4316 1.2245
65.4910 36.4183 1.2251
65.5110 36.4049 1.2216
65.5310 36.3915 1.2206
65.5510 36.3782 1.2235
65.5710 36.3649 1.2198
65.5910 36.3515 1.2170
65.6110 36.3382 1.2162
65.6310 36.3248 1.2149
65.6510 36.3115 1.2139
65.6710 36.2982 1.2117
65.6910 36.2849 1.2106
65.7110 36.2715 1.2100
65.7310 36.2582 1.2100
65.7510 36.2449 1.2055
65.7710 36.2316 1.2033
65.7910 36.2182 1.2037
65.8110 36.2049 1.2033
65.8310 36.1916 1.1996
65.8510 36.1783 1.2022
65.8710 36.1649 1.1975
65.8910 36.1516 1.1957
65.9110 36.1382 1.1951
65.9310 36.1249 1.1940
65.9510 36.1116 1.1924
65.9710 36.0982 1.1933
65.9910 36.0848 1.1913
66.0110 36.0715 1.1866
66.0310 36.0582 1.1880
66.0510 36.0449 1.1864
66.0710 36.0315 1.1835
66.0910 36.0182 1.1834
66.1110 36.0049 1.1796
66.1310 35.9916 1.1792
66.1510 35.9783 1.1801
66.1710 35.9649 1.1793
66.1910 35.9516 1.1752
66.2110 35.9383 1.1763
66.2310 35.9249 1.1730
66.2510 35.9116 1.1730
66.2710 35.8982 1.1697
66.2910 35.8849 1.1679
66.3110 35.8716 1.1644
66.3310 35.8582 1.1672
66.3510 35.8448 1.1665
66.3710 35.8315 1.1632
66.3910 35.8182 1.1638
66.4110 35.8048 1.1622
66.4310 35.7915 1.1599
66.4510 35.7782 1.1600
66.4710 35.7649 1.1581
66.4910 35.7516 1.1564
66.5110 35.7383 1.1574
66.5310 35.7249 1.1560
66.5510 35.7116 1.1514
66.5710 35.6983 1.1517
66.5910 35.6849 1.1504
66.6110 35.6715 1.1503
66.6310 35.6582 1.1506
66.6510 35.6448 1.1478
66.6710 35.6315 1.1452
66.6910 35.6182 1.1451
66.7110 35.6048 1.1434
66.7310 35.5915 1.1395
66.7510 35.5782 1.1396
66.7710 35.5649 1.1381
66.7910 35.5516 1.1337
66.8110 35.5383 1.1376
66.8310 35.5250 1.1352
66.8510 35.5116 1.1316
66.8710 35.4983 1.1339
66.8910 35.4849 1.1336
66.9110 35.4716 1.1308
66.9310 35.4582 1.1287
66.9510 35.4449 1.1277
66.9710 35.4315 1.1249
66.9910 35.4182 1.1243
67.0110 35.4049 1.1247
67.0310 35.3916 1.1222
67.0510 35.3782 1.1216
67.0710 35.3648 1.1215
67.0910 35.3515 1.1183
67.1110 35.3382 1.1169
67.1310 35.3249 1.1151
67.1510 35.3115 1.1159
67.1710 35.2982 1.1140
67.1910 35.2849 1.1141
67.2110 35.2716 1.1105
67.2310 35.2583 1.1119
67.2510 35.2449 1.1120
67.2710 35.2315 1.1082
67.2910 35.2182 1.1101
67.3110 35.2049 1.1041
67.3310 35.1915 1.1059
67.3510 35.1782 1.1031
67.3710 35.1649 1.1055
67.3910 35.1516 1.1004
67.4110 35.1382 1.1006
67.4310 35.1248 1.1002
67.4510 35.1115 1.0970
67.4710 35.0982 1.0976
67.4910 35.0849 1.0969
67.5110 35.0716 1.0960
67.5310 35.0582 1.0939
67.5510 35.0449 1.0937
67.5710 35.0316 1.0892
67.5910 35.0183 1.0908
67.6110 35.0049 1.0878
67.6310 34.9916 1.0888
67.6510 34.9782 1.0873
67.6710 34.9649 1.0867
67.6910 34.9515 1.0837
67.7110 34.9382 1.0852
67.7310 34.9248 1.0847
67.7510 34.9115 1.0822
67.7710 34.8982 1.0801
67.7910 34.8849 1.0802
67.8110 34.8715 1.0769
67.8310 34.8582 1.0768
67.8510 34.8449 1.0749
67.8710 34.8316 1.0747
67.8910 34.8182 1.0744
67.9110 34.8050 1.0732
67.9310 34.7916 1.0702
67.9510 34.7783 1.0686
67.9710 34.7649 1.0690
67.9910 34.7515 1.0696
68.0110 34.7382 1.0692
68.0310 34.7249 1.0672
68.0510 34.7115 1.0639
68.0710 34.6982 1.0648
68.0910 34.6848 1.0619
68.1110 34.6715 1.0606
68.1310 34.6582 1.0627
68.1510 34.6448 1.0617
68.1710 34.6315 1.0600
68.1910 34.6182 1.0591
68.2110 34.6049 1.0580
68.2310 34.5916 1.0550
68.2510 34.5782 1.0528
68.2710 34.5649 1.0542
68.2910 34.5516 1.0511
68.3110 34.5383 1.0531
68.3310 34.5249 1.0493
68.3510 34.5116 1.0481
68.3710 34.4982 1.0452
68.3910 34.4849 1.0469
68.4110 34.4715 1.0460
68.4310 34.4582 1.0476
68.4510 34.4448 1.0451
68.4710 34.4315 1.0431
68.4910 34.4182 1.0414
68.5110 34.4048 1.0401
68.5310 34.3915 1.0389
68.5510 34.3782 1.0375
68.5710 34.3649 1.0391
68.5910 34.3516 1.0356
68.6110 34.3382 1.0364
68.6310 34.3249 1.0339
68.6510 34.3116 1.0329
68.6710 34.2983 1.0318
68.6910 34.2849 1.0345
68.7110 34.2716 1.0300
68.7310 34.2583 1.0306
68.7510 34.2449 1.0278
68.7710 34.2315 1.0256
68.7910 34.2181 1.0251
68.8110 34.2048 1.0266
68.8310 34.1915 1.0235
68.8510 34.1782 1.0224
68.8710 34.1648 1.0228
68.8910 34.1515 1.0220
68.9110 34.1382 1.0236
68.9310 34.1249 1.0237
68.9510 34.1116 1.0208
68.9710 34.0982 1.0197
68.9910 34.0849 1.0164
69.0110 34.0716 1.0157
69.0310 34.0583 1.0161
69.0510 34.0449 1.0160
69.0710 34.0315 1.0110
69.0910 34.0182 1.0123
69.1110 34.0049 1.0119
69.1310 33.9915 1.0098
69.1510 33.9782 1.0084
69.1710 33.9649 1.0088
69.1910 33.9516 1.0061
69.2110 33.9383 1.0065
69.2310 33.9249 1.0049
69.2510 33.9115 1.0047
69.2710 33.8982 1.0025
69.2910 33.8849 1.0027
69.3110 33.8716 1.0014
69.3310 33.8582 1.0024
69.3510 33.8449 1.0013
69.3710 33.8316 0.9987
69.3910 33.8183 0.9980
69.4110 33.8049 0.9982
69.4310 33.7916 0.9960
69.4510 33.7783 0.9948
69.4710 33.7649 0.9955
69.4910 33.7516 0.9939
69.5110 33.7382 0.9941
69.5310 33.7248 0.9926
69.5510 33.7115 0.9904
69.5710 33.6982 0.9886
69.5910 33.6848 0.9897
69.6110 33.6715 0.9857
69.6310 33.6582 0.9864
69.6510 33.6449 0.9843
69.6710 33.6315 0.9830
69.6910 33.6182 0.9826
69.7110 33.6049 0.9843
69.7310 33.5916 0.9826
69.7510 33.5783 0.9824
69.7710 33.5649 0.9798
69.7910 33.5516 0.9801
69.8110 33.5382 0.9763
69.8310 33.5249 0.9787
69.8510 33.5116 0.9770
69.8710 33.4982 0.9770
69.8910 33.4849 0.9758
69.9110 33.4716 0.9740
69.9310 33.4582 0.9715
69.9510 33.4449 0.9724
69.9710 33.4315 0.9698
69.9910 33.4182 0.9727
70.0110 33.4049 0.9698
70.0310 33.3916 0.9679
70.0510 33.3782 0.9677
70.0710 33.3649 0.9669
70.0910 33.3516 0.9659
70.1110 33.3383 0.9647
70.1310 33.3249 0.9669
70.1510 33.3116 0.9642
70.1710 33.2982 0.9628
70.1910 33.2849 0.9623
70.2110 33.2716 0.9608
70.2310 33.2582 0.9599
70.2510 33.2448 0.9597
70.2710 33.2315 0.9579
70.2910 33.2182 0.9593
70.3110 33.2049 0.9579
70.3310 33.1915 0.9556
70.3510 33.1782 0.9537
70.3710 33.1649 0.9563
70.3910 33.1515 0.9540
70.4110 33.1382 0.9532
70.4310 33.1248 0.9528
70.4510 33.1116 0.9499
70.4710 33.0983 0.9504
70.4910 33.0849 0.9502
70.5110 33.0716 0.9487
70.5310 33.0582 0.9491
70.5510 33.0449 0.9465
70.5710 33.0316 0.9463
70.5910 33.0182 0.9460
70.6110 33.0048 0.9447
70.6310 32.9915 0.9409
70.6510 32.9782 0.9427
70.6710 32.9649 0.9422
70.6910 32.9515 0.9414
70.7110 32.9382 0.9399
70.7310 32.9249 0.9408
70.7510 32.9115 0.9383
70.7710 32.8982 0.9362
70.7910 32.8849 0.9359
70.8110 32.8716 0.9338
70.8310 32.8583 0.9330
70.8510 32.8449 0.9344
70.8710 32.8315 0.9350
70.8910 32.8182 0.9311
70.9110 32.8049 0.9323
70.9310 32.7916 0.9312
70.9510 32.7782 0.9299
70.9710 32.7648 0.9300
70.9910 32.7515 0.9277
71.0110 32.7382 0.9280
71.0310 32.7249 0.9265
71.0510 32.7115 0.9274
71.0710 32.6982 0.9265
71.0910 32.6849 0.9247
71.1110 32.6716 0.9242
71.1310 32.6583 0.9240
71.1510 32.6449 0.9228
71.1710 32.6316 0.9228
71.1910 32.6183 0.9173
71.2110 32.6049 0.9170
71.2310 32.5915 0.9183
71.2510 32.5782 0.9184
71.2710 32.5649 0.9171
71.2910 32.5516 0.9137
71.3110 32.5382 0.9137
71.3310 32.5248 0.9153
71.3510 32.5115 0.9153
71.3710 32.4982 0.9141
71.3910 32.4849 0.9117
71.4110 32.4715 0.9111
71.4310 32.4582 0.9091
71.4510 32.4449 0.9099
71.4710 32.4315 0.9095
71.4910 32.4182 0.9081
71.5110 32.4049 0.9074
71.5310 32.3916 0.9059
71.5510 32.3783 0.9048
71.5710 32.3649 0.9041
71.5910 32.3516 0.9051
71.6110 32.3383 0.9033
71.6310 32.3250 0.9028
71.6510 32.3116 0.9011
71.6710 32.2982 0.9018
71.6910 32.2848 0.9010
71.7110 32.2715 0.8976
71.7310 32.2582 0.8954
71.7510 32.2448 0.8961
71.7710 32.2315 0.8959
71.7910 32.2182 0.8952
71.8110 32.2049 0.8945
71.8310 32.1916 0.8934
71.8510 32.1782 0.8932
71.8710 32.1649 0.8919
71.8910 32.1516 0.8929
71.9110 32.1383 0.8922
71.9310 32.1249 0.8921
71.9510 32.1116 0.8891
71.9710 32.0982 0.8882
71.9910 32.0849 0.8902
72.0110 32.0716 0.8881
72.0310 32.0582 0.8859
72.0510 32.0448 0.8857
72.0710 32.0315 0.8850
72.0910 32.0182 0.8833
72.1110 32.0049 0.8851
72.1310 31.9915 0.8813
72.1510 31.9782 0.8832
72.1710 31.9649 0.8829
72.1910 31.9516 0.8825
72.2110 31.9382 0.8806
72.2310 31.9249 0.8804
72.2510 31.9116 0.8795
72.2710 31.8983 0.8781
72.2910 31.8850 0.8773
72.3110 31.8716 0.8781
72.3310 31.8582 0.8761
72.3510 31.8449 0.8755
72.3710 31.8316 0.8734
72.3910 31.8182 0.8723
72.4110 31.8049 0.8742
72.4310 31.7915 0.8741
72.4510 31.7782 0.8706
72.4710 31.7649 0.8716
72.4910 31.7515 0.8721
72.5110 31.7382 0.8710
72.5310 31.7248 0.8691
72.5510 31.7115 0.8689
72.5710 31.6982 0.8668
72.5910 31.6849 0.8678
72.6110 31.6716 0.8658
72.6310 31.6583 0.8656
72.6510 31.6450 0.8645
72.6710 31.6316 0.8636
72.6910 31.6182 0.8634
72.7110 31.6049 0.8626
72.7310 31.5916 0.8619
72.7510 31.5782 0.8624
72.7710 31.5649 0.8612
72.7910 31.5515 0.8606
72.8110 31.5382 0.8596
72.8310 31.5249 0.8596
72.8510 31.5115 0.8573
72.8710 31.4981 0.8558
72.8910 31.4848 0.8580
72.9110 31.4715 0.8549
72.9310 31.4582 0.8562
72.9510 31.4448 0.8536
72.9710 31.4315 0.8518
72.9910 31.4182 0.8530
73.0110 31.4049 0.8534
73.0310 31.3916 0.8528
73.0510 31.3782 0.8503
73.0710 31.3649 0.8492
73.0910 31.3516 0.8502
73.1110 31.3382 0.8482
73.1310 31.3249 0.8493
73.1510 31.3115 0.8478
73.1710 31.2982 0.8456
73.1910 31.2849 0.8456
73.2110 31.2715 0.8449
73.2310 31.2582 0.8446
73.2510 31.2448 0.8440
73.2710 31.2315 0.8454
73.2910 31.2182 0.8431
73.3110 31.2048 0.8427
73.3310 31.1915 0.8424
73.3510 31.1783 0.8393
73.3710 31.1649 0.8401
73.3910 31.1516 0.8388
73.4110 31.1382 0.8387
73.4310 31.1250 0.8376
73.4510 31.1116 0.8374
73.4710 31.0983 0.8366
73.4910 31.0849 0.8368
73.5110 31.0715 0.8343
73.5310 31.0582 0.8358
73.5510 31.0449 0.8334
73.5710 31.0315 0.8336
73.5910 31.0182 0.8321
73.6110 31.0048 0.8315
73.6310 30.9915 0.8323
73.6510 30.9782 0.8301
73.6710 30.9649 0.8281
73.6910 30.9515 0.8279
73.7110 30.9383 0.8277
73.7310 30.9249 0.8281
73.7510 30.9116 0.8287
73.7710 30.8982 0.8267
73.7910 30.8849 0.8260
73.8110 30.8716 0.8250
73.8310 30.8582 0.8241
73.8510 30.8449 0.8249
73.8710 30.8315 0.8237
73.8910 30.8182 0.8219
73.9110 30.8048 0.8207
73.9310 30.7915 0.8216
73.9510 30.7781 0.8210
73.9710 30.7648 0.8205
73.9910 30.7516 0.8203
74.0110 30.7382 0.8209
74.0310 30.7249 0.8168
74.0510 30.7116 0.8172
74.0710 30.6983 0.8172
74.0910 30.6850 0.8147
74.1110 30.6716 0.8167
74.1310 30.6582 0.8165
74.1510 30.6449 0.8147
74.1710 30.6316 0.8137
74.1910 30.6182 0.8110
74.2110 30.6048 0.8101
74.2310 30.5915 0.8124
74.2510 30.5782 0.8112
74.2710 30.5649 0.8106
74.2910 30.5515 0.8097
74.3110 30.5382 0.8102
74.3310 30.5248 0.8083
74.3510 30.5115 0.8100
74.3710 30.4982 0.8067
74.3910 30.4849 0.8071
74.4110 30.4715 0.8079
74.4310 30.4582 0.8065
74.4510 30.4449 0.8045
74.4710 30.4316 0.8069
74.4910 30.4182 0.8033
74.5110 30.4049 0.8019
74.5310 30.3916 0.8002
74.5510 30.3782 0.8010
74.5710 30.3648 0.7994
74.5910 30.3515 0.8018
74.6110 30.3382 0.8008
74.6310 30.3249 0.7992
74.6510 30.3115 0.7996
74.6710 30.2982 0.7984
74.6910 30.2848 0.7977
74.7110 30.2715 0.7957
74.7310 30.2582 0.7954
74.7510 30.2449 0.7955
74.7710 30.2316 0.7972
74.7910 30.2183 0.7937
74.8110 30.2050 0.7936
74.8310 30.1916 0.7925
74.8510 30.1782 0.7931
74.8710 30.1649 0.7908
74.8910 30.1516 0.7924
74.9110 30.1382 0.7916
74.9310 30.1249 0.7896
74.9510 30.1115 0.7896
74.9710 30.0982 0.7894
74.9910 30.0849 0.7899
75.0110 30.0715 0.7895
75.0310 30.0582 0.7896
75.0510 30.0449 0.7880
75.0710 30.0316 0.7876
75.0910 30.0182 0.7876
75.1110 30.0049 0.7868
75.1310 29.9916 0.7844
75.1510 29.9783 0.7843
75.1710 29.9650 0.7828
75.1910 29.9516 0.7829
75.2110 29.9382 0.7805
75.2310 29.9249 0.7807
75.2510 29.9116 0.7805
75.2710 29.8982 0.7789
75.2910 29.8849 0.7803
75.3110 29.8715 0.7787
75.3310 29.8582 0.7786
75.3510 29.8449 0.7769
75.3710 29.8315 0.7768
75.3910 29.8182 0.7759
75.4110 29.8048 0.7752
75.4310 29.7915 0.7770
75.4510 29.7782 0.7762
75.4710 29.7649 0.7764
75.4910 29.7516 0.7743
75.5110 29.7383 0.7740
75.5310 29.7250 0.7715
75.5510 29.7116 0.7710
75.5710 29.6982 0.7716
75.5910 29.6849 0.7717
75.6110 29.6716 0.7689
75.6310 29.6582 0.7706
75.6510 29.6448 0.7706
75.6710 29.6315 0.7706
75.6910 29.6181 0.7690
75.7110 29.6048 0.7668
75.7310 29.5915 0.7662
75.7510 29.5781 0.7661
75.7710 29.5648 0.7651
75.7910 29.5515 0.7651
75.8110 29.5382 0.7630
75.8310 29.5249 0.7629
75.8510 29.5116 0.7632
75.8710 29.4983 0.7628
75.8910 29.4850 0.7617
75.9110 29.4716 0.7611
75.9310 29.4583 0.7613
75.9510 29.4449 0.7596
75.9710 29.4316 0.7594
75.9910 29.4182 0.7594
76.0110 29.4049 0.7580
76.0310 29.3915 0.7590
76.0510 29.3782 0.7581
76.0710 29.3648 0.7572
76.0910 29.3515 0.7571
76.1110 29.3382 0.7564
76.1310 29.3248 0.7552
76.1510 29.3116 0.7541
76.1710 29.2982 0.7547
76.1910 29.2849 0.7515
76.2110 29.2716 0.7538
76.2310 29.2583 0.7523
76.2510 29.2450 0.7536
76.2710 29.2316 0.7524
76.2910 29.2182 0.7520
76.3110 29.2049 0.7505
76.3310 29.1916 0.7511
76.3510 29.1782 0.7494
76.3710 29.1649 0.7501
76.3910 29.1515 0.7495
76.4110 29.1382 0.7495
76.4310 29.1249 0.7507
76.4510 29.1116 0.7472
76.4710 29.0982 0.7454
76.4910 29.0848 0.7439
76.5110 29.0715 0.7444
76.5310 29.0582 0.7443
76.5510 29.0449 0.7433
76.5710 29.0315 0.7434
76.5910 29.0182 0.7431
76.6110 29.0049 0.7429
76.6310 28.9916 0.7416
76.6510 28.9783 0.7418
76.6710 28.9649 0.7428
76.6910 28.9516 0.7414
76.7110 28.9382 0.7409
76.7310 28.9249 0.7397
76.7510 28.9115 0.7391
76.7710 28.8982 0.7373
76.7910 28.8849 0.7361
76.8110 28.8715 0.7383
76.8310 28.8582 0.7363
76.8510 28.8448 0.7367
76.8710 28.8315 0.7359
76.8910 28.8182 0.7350
76.9110 28.8049 0.7346
76.9310 28.7915 0.7338
76.9510 28.7782 0.7326
76.9710 28.7649 0.7312
76.9910 28.7516 0.7328
77.0110 28.7382 0.7335
77.0310 28.7249 0.7337
77.0510 28.7116 0.7312
77.0710 28.6983 0.7317
77.0910 28.6849 0.7292
77.1110 28.6715 0.7309
77.1310 28.6582 0.7274
77.1510 28.6449 0.7287
77.1710 28.6315 0.7272
77.1910 28.6182 0.7273
77.2110 28.6048 0.7264
77.2310 28.5915 0.7266
77.2510 28.5782 0.7262
77.2710 28.5649 0.7260
77.2910 28.5516 0.7231
77.3110 28.5383 0.7236
77.3310 28.5250 0.7229
77.3510 28.5116 0.7245
77.3710 28.4982 0.7220
77.3910 28.4849 0.7217
77.4110 28.4716 0.7209
77.4310 28.4583 0.7209
77.4510 28.4449 0.7211
77.4710 28.4315 0.7193
77.4910 28.4182 0.7212
77.5110 28.4049 0.7180
77.5310 28.3915 0.7168
77.5510 28.3782 0.7200
77.5710 28.3648 0.7203
77.5910 28.3515 0.7157
77.6110 28.3382 0.7169
77.6310 28.3248 0.7145
77.6510 28.3115 0.7141
77.6710 28.2982 0.7155
77.6910 28.2849 0.7146
77.7110 28.2716 0.7133
77.7310 28.2582 0.7126
77.7510 28.2449 0.7133
77.7710 28.2316 0.7114
77.7910 28.2182 0.7127
77.8110 28.2049 0.7129
77.8310 28.1915 0.7103
77.8510 28.1782 0.7132
77.8710 28.1649 0.7080
77.8910 28.1516 0.7083
77.9110 28.1382 0.7082
77.9310 28.1249 0.7072
77.9510 28.1116 0.7063
77.9710 28.0982 0.7080
77.9910 28.0849 0.7070
78.0110 28.0716 0.7064
78.0310 28.0583 0.7077
78.0510 28.0450 0.7060
78.0710 28.0316 0.7041
78.0910 28.0183 0.7037
78.1110 28.0049 0.7024
78.1310 27.9916 0.7023
78.1510 27.9782 0.7032
78.1710 27.9649 0.7038
78.1910 27.9515 0.7036
78.2110 27.9382 0.7048
78.2310 27.9249 0.7012
78.2510 27.9116 0.6998
78.2710 27.8982 0.7002
78.2910 27.8849 0.7017
78.3110 27.8715 0.6990
78.3310 27.8582 0.7001
78.3510 27.8449 0.7008
78.3710 27.8316 0.6989
78.3910 27.8182 0.6985
78.4110 27.8049 0.6988
78.4310 27.7916 0.6969
78.4510 27.7782 0.6978
78.4710 27.7649 0.6976
78.4910 27.7516 0.6956
78.5110 27.7382 0.6927
78.5310 27.7249 0.6941
78.5510 27.7115 0.6916
78.5710 27.6982 0.6919
78.5910 27.6849 0.6932
78.6110 27.6716 0.6913
78.6310 27.6582 0.6926
78.6510 27.6449 0.6924
78.6710 27.6316 0.6892
78.6910 27.6182 0.6899
78.7110 27.6049 0.6887
78.7310 27.5915 0.6879
78.7510 27.5782 0.6882
78.7710 27.5649 0.6880
78.7910 27.5516 0.6860
78.8110 27.5383 0.6870
78.8310 27.5249 0.6871
78.8510 27.5116 0.6865
78.8710 27.4983 0.6876
78.8910 27.4849 0.6869
78.9110 27.4715 0.6823
78.9310 27.4582 0.6855
78.9510 27.4449 0.6834
78.9710 27.4315 0.6830
78.9910 27.4182 0.6818
79.0110 27.4048 0.6823
79.0310 27.3915 0.6806
79.0510 27.3782 0.6817
79.0710 27.3649 0.6824
79.0910 27.3516 0.6794
79.1110 27.3382 0.6817
79.1310 27.3249 0.6819
79.1510 27.3116 0.6786
79.1710 27.2983 0.6812
79.1910 27.2849 0.6795
79.2110 27.2716 0.6758
79.2310 27.2583 0.6769
79.2510 27.2449 0.6760
79.2710 27.2315 0.6752
79.2910 27.2182 0.6763
79.3110 27.2048 0.6777
79.3310 27.1915 0.6748
79.3510 27.1782 0.6749
79.3710 27.1648 0.6752
79.3910 27.1515 0.6746
79.4110 27.1382 0.6739
79.4310 27.1249 0.6741
79.4510 27.1115 0.6724
79.4710 27.0982 0.6722
79.4910 27.0849 0.6723
79.5110 27.0716 0.6724
79.5310 27.0583 0.6715
79.5510 27.0449 0.6716
79.5710 27.0316 0.6701
79.5910 27.0183 0.6696
79.6110 27.0049 0.6679
79.6310 26.9915 0.6683
79.6510 26.9782 0.6671
79.6710 26.9649 0.6678
79.6910 26.9515 0.6650
79.7110 26.9382 0.6654
79.7310 26.9248 0.6671
79.7510 26.9115 0.6660
79.7710 26.8982 0.6649
79.7910 26.8849 0.6649
79.8110 26.8715 0.6639
79.8310 26.8582 0.6648
79.8510 26.8449 0.6634
79.8710 26.8316 0.6622
79.8910 26.8183 0.6632
79.9110 26.8049 0.6646
79.9310 26.7916 0.6614
79.9510 26.7783 0.6624
79.9710 26.7649 0.6611
79.9910 26.7515 0.6598
80.0110 26.7381 0.6609
80.0310 26.7248 0.6606
80.0510 26.7115 0.6578
80.0710 26.6982 0.6574
80.0910 26.6848 0.6583
80.1110 26.6715 0.6577
80.1310 26.6582 0.6576
80.1510 26.6449 0.6571
80.1710 26.6315 0.6567
80.1910 26.6182 0.6561
80.2110 26.6049 0.6567
80.2310 26.5916 0.6527
80.2510 26.5783 0.6540
80.2710 26.5649 0.6554
80.2910 26.5516 0.6541
80.3110 26.5383 0.6539
80.3310 26.5249 0.6553
80.3510 26.5116 0.6525
80.3710 26.4982 0.6535
80.3910 26.4849 0.6529
80.4110 26.4716 0.6508
80.4310 26.4582 0.6511
80.4510 26.4449 0.6519
80.4710 26.4315 0.6501
80.4910 26.4182 0.6523
80.5110 26.4049 0.6507
80.5310 26.3915 0.6473
80.5510 26.3782 0.6499
80.5710 26.3649 0.6483
80.5910 26.3516 0.6468
80.6110 26.3383 0.6464
80.6310 26.3249 0.6471
80.6510 26.3116 0.6460
80.6710 26.2983 0.6455
80.6910 26.2849 0.6464
80.7110 26.2715 0.6441
80.7310 26.2582 0.6447
80.7510 26.2449 0.6458
80.7710 26.2316 0.6435
80.7910 26.2182 0.6422
80.8110 26.2048 0.6448
80.8310 26.1915 0.6407
80.8510 26.1782 0.6418
80.8710 26.1649 0.6416
80.8910 26.1515 0.6421
80.9110 26.1382 0.6397
80.9310 26.1249 0.6414
80.9510 26.1116 0.6376
80.9710 26.0983 0.6394
80.9910 26.0849 0.6410
81.0110 26.0716 0.6396
81.0310 26.0583 0.6382
81.0510 26.0449 0.6396
81.0710 26.0316 0.6350
81.0910 26.0182 0.6376
81.1110 26.0048 0.6376
81.1310 25.9915 0.6358
81.1510 25.9782 0.6359
81.1710 25.9648 0.6359
81.1910 25.9515 0.6356
81.2110 25.9382 0.6340
81.2310 25.9249 0.6350
81.2510 25.9116 0.6348
81.2710 25.8983 0.6327
81.2910 25.8850 0.6321
81.3110 25.8716 0.6314
81.3310 25.8583 0.6329
81.3510 25.8449 0.6350
81.3710 25.8316 0.6307
81.3910 25.8182 0.6288
81.4110 25.8049 0.6313
81.4310 25.7915 0.6311
81.4510 25.7781 0.6298
81.4710 25.7648 0.6287
81.4910 25.7516 0.6292
81.5110 25.7382 0.6295
81.5310 25.7248 0.6284
81.5510 25.7115 0.6274
81.5710 25.6982 0.6258
81.5910 25.6849 0.6281
81.6110 25.6716 0.6249
81.6310 25.6582 0.6264
81.6510 25.6449 0.6259
81.6710 25.6316 0.6259
81.6910 25.6183 0.6240
81.7110 25.6049 0.6251
81.7310 25.5915 0.6240
81.7510 25.5782 0.6229
81.7710 25.5649 0.6245
81.7910 25.5515 0.6216
81.8110 25.5382 0.6199
81.8310 25.5249 0.6229
81.8510 25.5116 0.6202
81.8710 25.4982 0.6192
81.8910 25.4849 0.6201
81.9110 25.4715 0.6218
81.9310 25.4582 0.6187
81.9510 25.4449 0.6199
81.9710 25.4316 0.6192
81.9910 25.4182 0.6188
82.0110 25.4049 0.6193
82.0310 25.3916 0.6190
82.0510 25.3783 0.6169
82.0710 25.3649 0.6184
82.0910 25.3516 0.6164
82.1110 25.3382 0.6174
82.1310 25.3249 0.6176
82.1510 25.3115 0.6157
82.1710 25.2982 0.6156
82.1910 25.2849 0.6149
82.2110 25.2716 0.6143
82.2310 25.2582 0.6139
82.2510 25.2449 0.6156
82.2710 25.2315 0.6127
82.2910 25.2182 0.6109
82.3110 25.2049 0.6118
82.3310 25.1916 0.6110
82.3510 25.1782 0.6110
82.3710 25.1649 0.6120
82.3910 25.1516 0.6100
82.4110 25.1383 0.6077
82.4310 25.1249 0.6112
82.4510 25.1115 0.6107
82.4710 25.0982 0.6092
82.4910 25.0849 0.6093
82.5110 25.0716 0.6080
82.5310 25.0582 0.6082
82.5510 25.0448 0.6084
82.5710 25.0315 0.6081
82.5910 25.0182 0.6074
82.6110 25.0048 0.6097
82.6310 24.9915 0.6068
82.6510 24.9782 0.6040
82.6710 24.9649 0.6056
82.6910 24.9516 0.6053
82.7110 24.9382 0.6051
82.7310 24.9249 0.6060
82.7510 24.9116 0.6040
82.7710 24.8983 0.6026
82.7910 24.8849 0.6037
82.8110 24.8716 0.6030
82.8310 24.8582 0.6006
82.8510 24.8449 0.6011
82.8710 24.8315 0.6027
82.8910 24.8182 0.5996
82.9110 24.8048 0.6036
82.9310 24.7915 0.6006
82.9510 24.7782 0.6008
82.9710 24.7648 0.6019
82.9910 24.7515 0.6005
83.0110 24.7382 0.5981
83.0310 24.7249 0.5992
83.0510 24.7116 0.5984
83.0710 24.6982 0.5964
83.0910 24.6849 0.5984
83.1110 24.6716 0.5966
83.1310 24.6583 0.5937
83.1510 24.6449 0.5942
83.1710 24.6316 0.5955
83.1910 24.6183 0.5950
83.2110 24.6049 0.5966
83.2310 24.5916 0.5958
83.2510 24.5782 0.5939
83.2710 24.5648 0.5945
83.2910 24.5515 0.5945
83.3110 24.5382 0.5940
83.3310 24.5248 0.5949
83.3510 24.5115 0.5945
83.3710 24.4982 0.5896
83.3910 24.4849 0.5905
83.4110 24.4716 0.5924
83.4310 24.4582 0.5906
83.4510 24.4449 0.5916
83.4710 24.4316 0.5881
83.4910 24.4183 0.5882
83.5110 24.4049 0.5887
83.5310 24.3916 0.5874
83.5510 24.3782 0.5880
83.5710 24.3649 0.5877
83.5910 24.3515 0.5884
83.6110 24.3382 0.5874
83.6310 24.3248 0.5882
83.6510 24.3116 0.5868
83.6710 24.2983 0.5850
83.6910 24.2849 0.5868
83.7110 24.2715 0.5870
83.7310 24.2582 0.5825
83.7510 24.2449 0.5855
83.7710 24.2315 0.5846
83.7910 24.2182 0.5830
83.8110 24.2048 0.5850
83.8310 24.1916 0.5833
83.8510 24.1783 0.5820
83.8710 24.1649 0.5828
83.8910 24.1516 0.5843
83.9110 24.1383 0.5803
83.9310 24.1249 0.5836
83.9510 24.1116 0.5802
83.9710 24.0982 0.5790
83.9910 24.0848 0.5801
84.0110 24.0715 0.5809
84.0310 24.0582 0.5783
84.0510 24.0449 0.5803
84.0710 24.0315 0.5785
84.0910 24.0182 0.5784
84.1110 24.0049 0.5787
84.1310 23.9915 0.5785
84.1510 23.9782 0.5776
84.1710 23.9649 0.5794
84.1910 23.9516 0.5791
84.2110 23.9383 0.5751
84.2310 23.9249 0.5782
84.2510 23.9116 0.5760
84.2710 23.8982 0.5747
84.2910 23.8849 0.5735
84.3110 23.8716 0.5741
84.3310 23.8582 0.5723
84.3510 23.8448 0.5755
84.3710 23.8315 0.5737
84.3910 23.8182 0.5712
84.4110 23.8049 0.5731
84.4310 23.7915 0.5726
84.4510 23.7782 0.5702
84.4710 23.7649 0.5728
84.4910 23.7516 0.5731
84.5110 23.7382 0.5706
84.5310 23.7249 0.5737
84.5510 23.7116 0.5715
84.5710 23.6983 0.5694
84.5910 23.6849 0.5705
84.6110 23.6716 0.5695
84.6310 23.6582 0.5679
84.6510 23.6449 0.5680
84.6710 23.6316 0.5697
84.6910 23.6182 0.5664
84.7110 23.6049 0.5677
84.7310 23.5915 0.5668
84.7510 23.5782 0.5650
84.7710 23.5649 0.5661
84.7910 23.5515 0.5677
84.8110 23.5382 0.5655
84.8310 23.5249 0.5675
84.8510 23.5116 0.5657
84.8710 23.4982 0.5644
84.8910 23.4849 0.5652
84.9110 23.4716 0.5643
84.9310 23.4583 0.5618
84.9510 23.4449 0.5621
84.9710 23.4316 0.5633
84.9910 23.4182 0.5611
85.0110 23.4049 0.5619
85.0310 23.3916 0.5618
85.0510 23.3782 0.5607
85.0710 23.3648 0.5612
85.0910 23.3515 0.5622
85.1110 23.3382 0.5593
85.1310 23.3249 0.5595
85.1510 23.3115 0.5598
85.1710 23.2982 0.5578
85.1910 23.2849 0.5598
85.2110 23.2715 0.5605
85.2310 23.2582 0.5586
85.2510 23.2449 0.5574
85.2710 23.2316 0.5581
85.2910 23.2183 0.5545
85.3110 23.2049 0.5570
85.3310 23.1915 0.5566
85.3510 23.1782 0.5563
85.3710 23.1649 0.5567
85.3910 23.1516 0.5565
85.4110 23.1382 0.5536
85.4310 23.1248 0.5539
85.4510 23.1115 0.5542
85.4710 23.0982 0.5539
85.4910 23.0849 0.5535
85.5110 23.0715 0.5555
85.5310 23.0582 0.5524
85.5510 23.0449 0.5550
85.5710 23.0316 0.5537
85.5910 23.0182 0.5513
85.6110 23.0049 0.5521
85.6310 22.9916 0.5525
85.6510 22.9783 0.5499
85.6710 22.9649 0.5504
85.6910 22.9515 0.5523
85.7110 22.9382 0.5513
85.7310 22.9249 0.5500
85.7510 22.9116 0.5502
85.7710 22.8982 0.5473
85.7910 22.8849 0.5484
85.8110 22.8715 0.5502
85.8310 22.8582 0.5474
85.8510 22.8449 0.5465
85.8710 22.8315 0.5470
85.8910 22.8182 0.5461
85.9110 22.8049 0.5455
85.9310 22.7915 0.5469
85.9510 22.7782 0.5432
85.9710 22.7648 0.5446
85.9910 22.7515 0.5472
86.0110 22.7383 0.5439
86.0310 22.7249 0.5418
86.0510 22.7116 0.5440
86.0710 22.6983 0.5424
86.0910 22.6850 0.5417
86.1110 22.6716 0.5427
86.1310 22.6582 0.5401
86.1510 22.6448 0.5407
86.1710 22.6315 0.5386
86.1910 22.6182 0.5399
86.2110 22.6049 0.5408
86.2310 22.5915 0.5415
86.2510 22.5782 0.5418
86.2710 22.5649 0.5399
86.2910 22.5516 0.5415
86.3110 22.5382 0.5396
86.3310 22.5249 0.5396
86.3510 22.5116 0.5415
86.3710 22.4983 0.5388
86.3910 22.4850 0.5363
86.4110 22.4716 0.5399
86.4310 22.4582 0.5376
86.4510 22.4449 0.5364
86.4710 22.4316 0.5379
86.4910 22.4182 0.5362
86.5110 22.4048 0.5341
86.5310 22.3915 0.5368
86.5510 22.3782 0.5350
86.5710 22.3649 0.5346
86.5910 22.3515 0.5362
86.6110 22.3382 0.5328
86.6310 22.3249 0.5327
86.6510 22.3115 0.5345
86.6710 22.2982 0.5336
86.6910 22.2849 0.5353
86.7110 22.2716 0.5341
86.7310 22.2583 0.5318
86.7510 22.2449 0.5332
86.7710 22.2316 0.5327
86.7910 22.2182 0.5317
86.8110 22.2049 0.5302
86.8310 22.1916 0.5322
86.8510 22.1782 0.5304
86.8710 22.1649 0.5298
86.8910 22.1515 0.5301
86.9110 22.1382 0.5290
86.9310 22.1249 0.5292
86.9510 22.1115 0.5312
86.9710 22.0982 0.5269
86.9910 22.0849 0.5274
87.0110 22.0716 0.5291
87.0310 22.0582 0.5302
87.0510 22.0449 0.5296
87.0710 22.0316 0.5293
87.0910 22.0183 0.5277
87.1110 22.0050 0.5276
87.1310 21.9916 0.5274
87.1510 21.9782 0.5256
87.1710 21.9649 0.5243
87.1910 21.9516 0.5253
87.2110 21.9382 0.5238
87.2310 21.9248 0.5248
87.2510 21.9115 0.5256
87.2710 21.8982 0.5239
87.2910 21.8849 0.5224
87.3110 21.8715 0.5245
87.3310 21.8582 0.5231
87.3510 21.8448 0.5202
87.3710 21.8316 0.5216
87.3910 21.8182 0.5219
87.4110 21.8049 0.5209
87.4310 21.7916 0.5245
87.4510 21.7783 0.5208
87.4710 21.7649 0.5205
87.4910 21.7516 0.5219
87.5110 21.7382 0.5202
87.5310 21.7249 0.5202
87.5510 21.7116 0.5194
87.5710 21.6983 0.5184
87.5910 21.6849 0.5182
87.6110 21.6715 0.5199
87.6310 21.6582 0.5194
87.6510 21.6449 0.5152
87.6710 21.6315 0.5196
87.6910 21.6182 0.5175
87.7110 21.6048 0.5155
87.7310 21.5915 0.5160
87.7510 21.5782 0.5159
87.7710 21.5649 0.5157
87.7910 21.5516 0.5167
87.8110 21.5383 0.5148
87.8310 21.5250 0.5144
87.8510 21.5116 0.5149
87.8710 21.4982 0.5130
87.8910 21.4849 0.5120
87.9110 21.4716 0.5131
87.9310 21.4582 0.5140
87.9510 21.4449 0.5108
87.9710 21.4315 0.5147
87.9910 21.4182 0.5103
88.0110 21.4049 0.5103
88.0310 21.3915 0.5112
88.0510 21.3781 0.5099
88.0710 21.3648 0.5096
88.0910 21.3515 0.5122
88.1110 21.3382 0.5078
88.1310 21.3249 0.5089
88.1510 21.3115 0.5119
88.1710 21.2983 0.5110
88.1910 21.2849 0.5089
88.2110 21.2716 0.5106
88.2310 21.2582 0.5067
88.2510 21.2449 0.5080
88.2710 21.2316 0.5107
88.2910 21.2182 0.5093
88.3110 21.2049 0.5093
88.3310 21.1915 0.5088
88.3510 21.1782 0.5059
88.3710 21.1649 0.5057
88.3910 21.1515 0.5042
88.4110 21.1382 0.5055
88.4310 21.1248 0.5027
88.4510 21.1115 0.5050
88.4710 21.0982 0.5037
88.4910 21.0849 0.5027
88.5110 21.0716 0.5061
88.5310 21.0583 0.5024
88.5510 21.0450 0.5029
88.5710 21.0316 0.5047
88.5910 21.0182 0.5050
88.6110 21.0049 0.5036
88.6310 20.9916 0.5030
88.6510 20.9782 0.5006
88.6710 20.9648 0.5005
88.6910 20.9515 0.5014
88.7110 20.9382 0.5018
88.7310 20.9249 0.4999
88.7510 20.9115 0.5027
88.7710 20.8982 0.5008
88.7910 20.8848 0.4991
88.8110 20.8715 0.5003
88.8310 20.8582 0.4979
88.8510 20.8449 0.4990
88.8710 20.8316 0.4997
88.8910 20.8183 0.4996
88.9110 20.8049 0.4970
88.9310 20.7916 0.4969
88.9510 20.7782 0.4991
88.9710 20.7649 0.4957
88.9910 20.7516 0.4995
89.0110 20.7382 0.4964
89.0310 20.7249 0.4947
89.0510 20.7115 0.4972
89.0710 20.6982 0.4975
89.0910 20.6848 0.4947
89.1110 20.6715 0.4960
89.1310 20.6581 0.4942
89.1510 20.6448 0.4940
89.1710 20.6315 0.4931
89.1910 20.6182 0.4950
89.2110 20.6049 0.4926
89.2310 20.5915 0.4945
89.2510 20.5782 0.4932
89.2710 20.5649 0.4923
89.2910 20.5516 0.4922
89.3110 20.5382 0.4910
89.3310 20.5249 0.4889
89.3510 20.5116 0.4898
89.3710 20.4982 0.4910
89.3910 20.4849 0.4897
89.4110 20.4715 0.4916
89.4310 20.4582 0.4920
89.4510 20.4449 0.4896
89.4710 20.4315 0.4886
89.4910 20.4182 0.4904
89.5110 20.4049 0.4884
89.5310 20.3916 0.4905
89.5510 20.3782 0.4899
89.5710 20.3649 0.4869
89.5910 20.3516 0.4889
89.6110 20.3383 0.4876
89.6310 20.3250 0.4863
89.6510 20.3116 0.4881
89.6710 20.2982 0.4873
89.6910 20.2849 0.4851
89.7110 20.2716 0.4847
89.7310 20.2582 0.4860
89.7510 20.2449 0.4841
89.7710 20.2315 0.4846
89.7910 20.2182 0.4868
89.8110 20.2049 0.4854
89.8310 20.1916 0.4853
89.8510 20.1782 0.4842
89.8710 20.1649 0.4842
89.8910 20.1515 0.4843
89.9110 20.1382 0.4840
89.9310 20.1249 0.4813
89.9510 20.1115 0.4818
89.9710 20.0983 0.4813
89.9910 20.0850 0.4812
90.0110 20.0716 0.4811
90.0310 20.0583 0.4813
90.0510 20.0449 0.4797
90.0710 20.0316 0.4810
90.0910 20.0182 0.4811
90.1110 20.0049 0.4770
90.1310 19.9915 0.4794
90.1510 19.9782 0.4782
90.1710 19.9649 0.4772
90.1910 19.9515 0.4776
90.2110 19.9382 0.4771
90.2310 19.9248 0.4759
90.2510 19.9115 0.4780
90.2710 19.8982 0.4778
90.2910 19.8849 0.4764
90.3110 19.8715 0.4779
90.3310 19.8583 0.4778
90.3510 19.8450 0.4761
90.3710 19.8316 0.4774
90.3910 19.8183 0.4760
90.4110 19.8049 0.4743
90.4310 19.7916 0.4737
90.4510 19.7782 0.4741
90.4710 19.7649 0.4748
90.4910 19.7515 0.4770
90.5110 19.7381 0.4749
90.5310 19.7248 0.4745
90.5510 19.7115 0.4733
90.5710 19.6981 0.4744
90.5910 19.6848 0.4728
90.6110 19.6715 0.4738
90.6310 19.6582 0.4725
90.6510 19.6449 0.4714
90.6710 19.6316 0.4719
90.6910 19.6183 0.4730
90.7110 19.6050 0.4705
90.7310 19.5916 0.4714
90.7510 19.5782 0.4697
90.7710 19.5649 0.4685
90.7910 19.5516 0.4678
90.8110 19.5382 0.4685
90.8310 19.5249 0.4690
90.8510 19.5115 0.4693
90.8710 19.4982 0.4674
90.8910 19.4849 0.4653
90.9110 19.4716 0.4673
90.9310 19.4582 0.4673
90.9510 19.4448 0.4677
90.9710 19.4315 0.4685
90.9910 19.4182 0.4669
91.0110 19.4049 0.4677
91.0310 19.3915 0.4658
91.0510 19.3782 0.4668
91.0710 19.3649 0.4670
91.0910 19.3516 0.4653
91.1110 19.3383 0.4652
91.1310 19.3249 0.4635
91.1510 19.3116 0.4648
91.1710 19.2983 0.4655
91.1910 19.2849 0.4624
91.2110 19.2715 0.4633
91.2310 19.2582 0.4636
91.2510 19.2449 0.4629
91.2710 19.2315 0.4621
91.2910 19.2182 0.4619
91.3110 19.2048 0.4619
91.3310 19.1915 0.4618
91.3510 19.1782 0.4611
91.3710 19.1649 0.4596
91.3910 19.1515 0.4618
91.4110 19.1382 0.4597
91.4310 19.1249 0.4610
91.4510 19.1116 0.4601
91.4710 19.0983 0.4628
91.4910 19.0849 0.4601
91.5110 19.0716 0.4626
91.5310 19.0583 0.4606
91.5510 19.0449 0.4607
91.5710 19.0315 0.4591
91.5910 19.0182 0.4581
91.6110 19.0049 0.4569
91.6310 18.9915 0.4586
91.6510 18.9782 0.4585
91.6710 18.9648 0.4598
91.6910 18.9515 0.4569
91.7110 18.9382 0.4575
91.7310 18.9249 0.4537
91.7510 18.9115 0.4573
91.7710 18.8982 0.4542
91.7910 18.8849 0.4539
91.8110 18.8716 0.4527
91.8310 18.8582 0.4543
91.8510 18.8449 0.4539
91.8710 18.8316 0.4533
91.8910 18.8183 0.4538
91.9110 18.8049 0.4547
91.9310 18.7915 0.4517
91.9510 18.7782 0.4535
91.9710 18.7649 0.4501
91.9910 18.7516 0.4518
92.0110 18.7382 0.4518
92.0310 18.7248 0.4518
92.0510 18.7115 0.4501
92.0710 18.6982 0.4496
92.0910 18.6849 0.4503
92.1110 18.6715 0.4500
92.1310 18.6582 0.4500
92.1510 18.6449 0.4505
92.1710 18.6316 0.4501
92.1910 18.6182 0.4497
92.2110 18.6049 0.4492
92.2310 18.5916 0.4493
92.2510 18.5782 0.4499
92.2710 18.5649 0.4485
92.2910 18.5515 0.4501
92.3110 18.5382 0.4502
92.3310 18.5249 0.4480
92.3510 18.5116 0.4460
92.3710 18.4982 0.4458
92.3910 18.4849 0.4455
92.4110 18.4715 0.4450
92.4310 18.4582 0.4458
92.4510 18.4449 0.4465
92.4710 18.4315 0.4448
92.4910 18.4182 0.4478
92.5110 18.4049 0.4451
92.5310 18.3916 0.4459
92.5510 18.3782 0.4441
92.5710 18.3649 0.4429
92.5910 18.3516 0.4428
92.6110 18.3383 0.4432
92.6310 18.3249 0.4436
92.6510 18.3115 0.4434
92.6710 18.2982 0.4431
92.6910 18.2849 0.4429
92.7110 18.2716 0.4402
92.7310 18.2582 0.4428
92.7510 18.2449 0.4418
92.7710 18.2315 0.4408
92.7910 18.2182 0.4408
92.8110 18.2049 0.4397
92.8310 18.1916 0.4375
92.8510 18.1782 0.4396
92.8710 18.1649 0.4394
92.8910 18.1516 0.4399
92.9110 18.1382 0.4393
92.9310 18.1249 0.4402
92.9510 18.1116 0.4382
92.9710 18.0982 0.4385
92.9910 18.0849 0.4367
93.0110 18.0715 0.4389
93.0310 18.0582 0.4392
93.0510 18.0449 0.4390
93.0710 18.0316 0.4375
93.0910 18.0182 0.4379
93.1110 18.0049 0.4382
93.1310 17.9915 0.4377
93.1510 17.9782 0.4352
93.1710 17.9649 0.4371
93.1910 17.9515 0.4356
93.2110 17.9382 0.4382
93.2310 17.9249 0.4349
93.2510 17.9116 0.4328
93.2710 17.8983 0.4344
93.2910 17.8849 0.4347
93.3110 17.8716 0.4327
93.3310 17.8583 0.4333
93.3510 17.8449 0.4327
93.3710 17.8315 0.4329
93.3910 17.8182 0.4346
93.4110 17.8048 0.4336
93.4310 17.7915 0.4331
93.4510 17.7782 0.4303
93.4710 17.7648 0.4308
93.4910 17.7515 0.4300
93.5110 17.7382 0.4306
93.5310 17.7249 0.4295
93.5510 17.7116 0.4308
93.5710 17.6982 0.4318
93.5910 17.6849 0.4303
93.6110 17.6716 0.4284
93.6310 17.6583 0.4297
93.6510 17.6449 0.4275
93.6710 17.6316 0.4280
93.6910 17.6182 0.4281
93.7110 17.6049 0.4290
93.7310 17.5915 0.4287
93.7510 17.5782 0.4289
93.7710 17.5648 0.4290
93.7910 17.5515 0.4253
93.8110 17.5382 0.4270
93.8310 17.5248 0.4277
93.8510 17.5115 0.4286
93.8710 17.4982 0.4284
93.8910 17.4849 0.4286
93.9110 17.4715 0.4282
93.9310 17.4582 0.4264
93.9510 17.4449 0.4237
93.9710 17.4316 0.4226
93.9910 17.4183 0.4232
94.0110 17.4049 0.4241
94.0310 17.3916 0.4238
94.0510 17.3783 0.4225
94.0710 17.3649 0.4240
94.0910 17.3515 0.4227
94.1110 17.3382 0.4245
94.1310 17.3249 0.4217
94.1510 17.3115 0.4221
94.1710 17.2982 0.4222
94.1910 17.2848 0.4219
94.2110 17.2715 0.4234
94.2310 17.2582 0.4214
94.2510 17.2449 0.4220
94.2710 17.2315 0.4202
94.2910 17.2182 0.4197
94.3110 17.2049 0.4204
94.3310 17.1916 0.4193
94.3510 17.1783 0.4205
94.3710 17.1649 0.4189
94.3910 17.1516 0.4190
94.4110 17.1383 0.4176
94.4310 17.1249 0.4204
94.4510 17.1115 0.4194
94.4710 17.0982 0.4196
94.4910 17.0848 0.4171
94.5110 17.0715 0.4179
94.5310 17.0582 0.4152
94.5510 17.0448 0.4169
94.5710 17.0315 0.4172
94.5910 17.0182 0.4170
94.6110 17.0049 0.4177
94.6310 16.9915 0.4164
94.6510 16.9782 0.4165
94.6710 16.9649 0.4145
94.6910 16.9516 0.4161
94.7110 16.9383 0.4137
94.7310 16.9249 0.4145
94.7510 16.9116 0.4132
94.7710 16.8983 0.4123
94.7910 16.8849 0.4130
94.8110 16.8716 0.4136
94.8310 16.8582 0.4134
94.8510 16.8449 0.4133
94.8710 16.8316 0.4094
94.8910 16.8182 0.4100
94.9110 16.8048 0.4126
94.9310 16.7915 0.4104
94.9510 16.7782 0.4105
94.9710 16.7649 0.4099
94.9910 16.7515 0.4109
95.0110 16.7382 0.4130
95.0310 16.7249 0.4116
95.0510 16.7116 0.4108
95.0710 16.6983 0.4077
95.0910 16.6849 0.4085
95.1110 16.6716 0.4087
95.1310 16.6583 0.4081
95.1510 16.6449 0.4076
95.1710 16.6316 0.4060
95.1910 16.6182 0.4077
95.2110 16.6049 0.4074
95.2310 16.5916 0.4070
95.2510 16.5782 0.4077
95.2710 16.5649 0.4073
95.2910 16.5515 0.4080
95.3110 16.5382 0.4072
95.3310 16.5248 0.4069
95.3510 16.5115 0.4063
95.3710 16.4982 0.4065
95.3910 16.4849 0.4055
95.4110 16.4716 0.4051
95.4310 16.4583 0.4045
95.4510 16.4449 0.4052
95.4710 16.4316 0.4042
95.4910 16.4183 0.4056
95.5110 16.4049 0.4013
95.5310 16.3916 0.4023
95.5510 16.3782 0.4000
95.5710 16.3648 0.4022
95.5910 16.3515 0.4030
95.6110 16.3382 0.4027
95.6310 16.3248 0.4007
95.6510 16.3115 0.4008
95.6710 16.2982 0.3974
95.6910 16.2849 0.4007
95.7110 16.2716 0.4013
95.7310 16.2582 0.4003
95.7510 16.2449 0.4005
95.7710 16.2316 0.4007
95.7910 16.2183 0.3989
95.8110 16.2049 0.3978
95.8310 16.1915 0.3988
95.8510 16.1782 0.3967
95.8710 16.1649 0.3999
95.8910 16.1515 0.3982
95.9110 16.1382 0.3966
95.9310 16.1248 0.3968
95.9510 16.1115 0.3982
95.9710 16.0982 0.3960
95.9910 16.0849 0.3969
96.0110 16.0715 0.3966
96.0310 16.0582 0.3968
96.0510 16.0449 0.3952
96.0710 16.0315 0.3946
96.0910 16.0182 0.3934
96.1110 16.0049 0.3942
96.1310 15.9916 0.3939
96.1510 15.9783 0.3934
96.1710 15.9649 0.3939
96.1910 15.9515 0.3935
96.2110 15.9382 0.3926
96.2310 15.9249 0.3930
96.2510 15.9115 0.3923
96.2710 15.8982 0.3921
96.2910 15.8848 0.3922
96.3110 15.8715 0.3909
96.3310 15.8582 0.3909
96.3510 15.8449 0.3893
96.3710 15.8315 0.3898
96.3910 15.8182 0.3884
96.4110 15.8049 0.3901
96.4310 15.7916 0.3919
96.4510 15.7782 0.3900
96.4710 15.7649 0.3893
96.4910 15.7516 0.3893
96.5110 15.7383 0.3886
96.5310 15.7249 0.3901
96.5510 15.7116 0.3889
96.5710 15.6982 0.3882
96.5910 15.6849 0.3871
96.6110 15.6716 0.3879
96.6310 15.6582 0.3869
96.6510 15.6448 0.3855
96.6710 15.6315 0.3878
96.6910 15.6182 0.3857
96.7110 15.6049 0.3859
96.7310 15.5915 0.3857
96.7510 15.5782 0.3852
96.7710 15.5649 0.3857
96.7910 15.5516 0.3850
96.8110 15.5382 0.3847
96.8310 15.5249 0.3848
96.8510 15.5116 0.3849
96.8710 15.4983 0.3831
96.8910 15.4849 0.3838
96.9110 15.4716 0.3835
96.9310 15.4582 0.3825
96.9510 15.4449 0.3833
96.9710 15.4315 0.3843
96.9910 15.4182 0.3821
97.0110 15.4048 0.3840
97.0310 15.3915 0.3830
97.0510 15.3782 0.3821
97.0710 15.3648 0.3824
97.0910 15.3515 0.3815
97.1110 15.3382 0.3816
97.1310 15.3249 0.3816
97.1510 15.3115 0.3814
97.1710 15.2982 0.3806
97.1910 15.2849 0.3807
97.2110 15.2716 0.3808
97.2310 15.2583 0.3796
97.2510 15.2449 0.3792
97.2710 15.2316 0.3802
97.2910 15.2182 0.3775
97.3110 15.2049 0.3782
97.3310 15.1916 0.3780
97.3510 15.1782 0.3796
97.3710 15.1648 0.3761
97.3910 15.1515 0.3762
97.4110 15.1382 0.3753
97.4310 15.1248 0.3771
97.4510 15.1115 0.3776
97.4710 15.0982 0.3762
97.4910 15.0849 0.3763
97.5110 15.0716 0.3744
97.5310 15.0582 0.3740
97.5510 15.0449 0.3765
97.5710 15.0317 0.3758
97.5910 15.0183 0.3734
97.6110 15.0050 0.3734
97.6310 14.9916 0.3746
97.6510 14.9783 0.3748
97.6710 14.9649 0.3723
97.6910 14.9516 0.3734
97.7110 14.9382 0.3714
97.7310 14.9248 0.3714
97.7510 14.9115 0.3732
97.7710 14.8982 0.3705
97.7910 14.8848 0.3705
97.8110 14.8715 0.3720
97.8310 14.8582 0.3704
97.8510 14.8449 0.3702
97.8710 14.8316 0.3707
97.8910 14.8182 0.3695
97.9110 14.8049 0.3705
97.9310 14.7916 0.3687
97.9510 14.7783 0.3686
97.9710 14.7649 0.3691
97.9910 14.7516 0.3699
98.0110 14.7382 0.3677
98.0310 14.7249 0.3699
98.0510 14.7115 0.3700
98.0710 14.6982 0.3686
98.0910 14.6848 0.3684
98.1110 14.6716 0.3668
98.1310 14.6583 0.3659
98.1510 14.6449 0.3674
98.1710 14.6315 0.3670
98.1910 14.6182 0.3672
98.2110 14.6049 0.3653
98.2310 14.5915 0.3660
98.2510 14.5782 0.3639
98.2710 14.5648 0.3649
98.2910 14.5516 0.3660
98.3110 14.5383 0.3642
98.3310 14.5249 0.3638
98.3510 14.5116 0.3655
98.3710 14.4983 0.3637
98.3910 14.4849 0.3630
98.4110 14.4716 0.3641
98.4310 14.4582 0.3656
98.4510 14.4448 0.3624
98.4710 14.4315 0.3614
98.4910 14.4182 0.3628
98.5110 14.4048 0.3599
98.5310 14.3915 0.3615
98.5510 14.3781 0.3615
98.5710 14.3649 0.3618
98.5910 14.3515 0.3625
98.6110 14.3382 0.3617
98.6310 14.3248 0.3600
98.6510 14.3116 0.3608
98.6710 14.2983 0.3583
98.6910 14.2849 0.3589
98.7110 14.2716 0.3603
98.7310 14.2582 0.3583
98.7510 14.2449 0.3588
98.7710 14.2316 0.3599
98.7910 14.2182 0.3579
98.8110 14.2048 0.3584
98.8310 14.1915 0.3597
98.8510 14.1782 0.3560
98.8710 14.1649 0.3570
98.8910 14.1515 0.3591
98.9110 14.1382 0.3563
98.9310 14.1249 0.3565
98.9510 14.1116 0.3585
98.9710 14.0982 0.3547
98.9910 14.0849 0.3547
99.0110 14.0716 0.3539
99.0310 14.0583 0.3547
99.0510 14.0449 0.3546
99.0710 14.0316 0.3573
99.0910 14.0182 0.3544
99.1110 14.0049 0.3540
99.1310 13.9916 0.3542
99.1510 13.9782 0.3548
99.1710 13.9649 0.3548
99.1910 13.9516 0.3543
99.2110 13.9382 0.3511
99.2310 13.9249 0.3487
99.2510 13.9115 0.3543
99.2710 13.8982 0.3542
99.2910 13.8849 0.3515
99.3110 13.8716 0.3532
99.3310 13.8582 0.3527
99.3510 13.8449 0.3514
99.3710 13.8316 0.3517
99.3910 13.8183 0.3496
99.4110 13.8049 0.3496
99.4310 13.7916 0.3490
99.4510 13.7782 0.3482
99.4710 13.7649 0.3492
99.4910 13.7516 0.3478
99.5110 13.7382 0.3480
99.5310 13.7248 0.3489
99.5510 13.7115 0.3478
99.5710 13.6982 0.3468
99.5910 13.6849 0.3455
99.6110 13.6715 0.3462
99.6310 13.6582 0.3483
99.6510 13.6449 0.3474
99.6710 13.6316 0.3483
99.6910 13.6182 0.3454
99.7110 13.6049 0.3451
99.7310 13.5916 0.3452
99.7510 13.5783 0.3453
99.7710 13.5649 0.3439
99.7910 13.5515 0.3444
99.8110 13.5382 0.3455
99.8310 13.5249 0.3422
99.8510 13.5116 0.3443
99.8710 13.4982 0.3430
99.8910 13.4848 0.3419
99.9110 13.4715 0.3435
99.9310 13.4582 0.3454
99.9510 13.4449 0.3418
99.9710 13.4315 0.3427
99.9910 13.4182 0.3427
100.0110 13.4049 0.3424
100.0310 13.3916 0.3417
100.0510 13.3783 0.3417
100.0710 13.3649 0.3395
100.0910 13.3516 0.3426
100.1110 13.3383 0.3416
100.1310 13.3249 0.3371
100.1510 13.3116 0.3394
100.1710 13.2982 0.3410
100.1910 13.2849 0.3392
100.2110 13.2716 0.3406
100.2310 13.2582 0.3397
100.2510 13.2449 0.3377
100.2710 13.2315 0.3381
100.2910 13.2182 0.3372
100.3110 13.2049 0.3347
100.3310 13.1915 0.3365
100.3510 13.1782 0.3391
100.3710 13.1649 0.3357
100.3910 13.1516 0.3376
100.4110 13.1382 0.3357
100.4310 13.1248 0.3337
100.4510 13.1115 0.3353
100.4710 13.0983 0.3348
100.4910 13.0850 0.3329
100.5110 13.0716 0.3343
100.5310 13.0583 0.3349
100.5510 13.0450 0.3332
100.5710 13.0316 0.3340
100.5910 13.0182 0.3331
100.6110 13.0048 0.3317
100.6310 12.9915 0.3328
100.6510 12.9782 0.3330
100.6710 12.9649 0.3307
100.6910 12.9515 0.3331
100.7110 12.9381 0.3320
100.7310 12.9248 0.3316
100.7510 12.9115 0.3324
100.7710 12.8982 0.3309
100.7910 12.8849 0.3309
100.8110 12.8716 0.3309
100.8310 12.8583 0.3307
100.8510 12.8450 0.3294
100.8710 12.8316 0.3316
100.8910 12.8182 0.3296
100.9110 12.8049 0.3294
100.9310 12.7916 0.3287
100.9510 12.7782 0.3307
100.9710 12.7648 0.3273
100.9910 12.7515 0.3276
101.0110 12.7382 0.3268
101.0310 12.7249 0.3268
101.0510 12.7115 0.3286
101.0710 12.6981 0.3278
101.0910 12.6848 0.3268
101.1110 12.6715 0.3265
101.1310 12.6582 0.3273
101.1510 12.6449 0.3243
101.1710 12.6316 0.3268
101.1910 12.6183 0.3271
101.2110 12.6050 0.3246
101.2310 12.5916 0.3252
101.2510 12.5782 0.3253
101.2710 12.5649 0.3234
101.2910 12.5516 0.3248
101.3110 12.5382 0.3239
101.3310 12.5249 0.3221
101.3510 12.5115 0.3226
101.3710 12.4982 0.3211
101.3910 12.4849 0.3216
101.4110 12.4715 0.3207
101.4310 12.4581 0.3242
101.4510 12.4448 0.3218
101.4710 12.4315 0.3229
101.4910 12.4182 0.3217
101.5110 12.4049 0.3202
101.5310 12.3916 0.3211
101.5510 12.3783 0.3209
101.5710 12.3650 0.3207
101.5910 12.3516 0.3224
101.6110 12.3383 0.3215
101.6310 12.3249 0.3185
101.6510 12.3116 0.3175
101.6710 12.2983 0.3201
101.6910 12.2849 0.3182
101.7110 12.2715 0.3185
101.7310 12.2582 0.3182
101.7510 12.2449 0.3162
101.7710 12.2315 0.3155
101.7910 12.2182 0.3158
101.8110 12.2048 0.3128
101.8310 12.1915 0.3163
101.8510 12.1782 0.3154
101.8710 12.1649 0.3150
101.8910 12.1515 0.3140
101.9110 12.1383 0.3152
101.9310 12.1249 0.3149
101.9510 12.1116 0.3157
101.9710 12.0982 0.3159
101.9910 12.0849 0.3136
102.0110 12.0716 0.3129
102.0310 12.0583 0.3145
102.0510 12.0449 0.3126
102.0710 12.0316 0.3123
102.0910 12.0182 0.3125
102.1110 12.0049 0.3105
102.1310 11.9915 0.3113
102.1510 11.9781 0.3141
102.1710 11.9648 0.3113
102.1910 11.9515 0.3094
102.2110 11.9382 0.3104
102.2310 11.9249 0.3106
102.2510 11.9115 0.3118
102.2710 11.8983 0.3116
102.2910 11.8850 0.3081
102.3110 11.8716 0.3073
102.3310 11.8582 0.3102
102.3510 11.8449 0.3080
102.3710 11.8316 0.3108
102.3910 11.8183 0.3065
102.4110 11.8049 0.3070
102.4310 11.7915 0.3062
102.4510 11.7782 0.3085
102.4710 11.7649 0.3048
102.4910 11.7516 0.3059
102.5110 11.7382 0.3066
102.5310 11.7248 0.3064
102.5510 11.7115 0.3050
102.5710 11.6982 0.3058
102.5910 11.6848 0.3027
102.6110 11.6715 0.3052
102.6310 11.6582 0.3056
102.6510 11.6449 0.3032
102.6710 11.6316 0.3038
102.6910 11.6182 0.3053
102.7110 11.6049 0.3027
102.7310 11.5916 0.3035
102.7510 11.5783 0.3012
102.7710 11.5649 0.3006
102.7910 11.5515 0.3027
102.8110 11.5382 0.3041
102.8310 11.5248 0.3019
102.8510 11.5115 0.3031
102.8710 11.4982 0.3025
102.8910 11.4848 0.3023
102.9110 11.4716 0.3013
102.9310 11.4582 0.3035
102.9510 11.4449 0.3001
102.9710 11.4316 0.3010
102.9910 11.4183 0.3004
103.0110 11.4050 0.3003
103.0310 11.3916 0.2995
103.0510 11.3782 0.2995
103.0710 11.3649 0.2988
103.0910 11.3516 0.2980
103.1110 11.3382 0.2992
103.1310 11.3248 0.2950
103.1510 11.3115 0.2969
103.1710 11.2982 0.2971
103.1910 11.2849 0.2961
103.2110 11.2716 0.2957
103.2310 11.2582 0.2969
103.2510 11.2448 0.2954
103.2710 11.2315 0.2939
103.2910 11.2182 0.2943
103.3110 11.2049 0.2937
103.3310 11.1915 0.2945
103.3510 11.1782 0.2933
103.3710 11.1649 0.2936
103.3910 11.1516 0.2932
103.4110 11.1382 0.2956
103.4310 11.1249 0.2933
103.4510 11.1116 0.2951
103.4710 11.0982 0.2955
103.4910 11.0849 0.2931
103.5110 11.0715 0.2917
103.5310 11.0582 0.2934
103.5510 11.0449 0.2945
103.5710 11.0315 0.2907
103.5910 11.0182 0.2932
103.6110 11.0048 0.2904
103.6310 10.9915 0.2924
103.6510 10.9782 0.2907
103.6710 10.9649 0.2893
103.6910 10.9515 0.2891
103.7110 10.9383 0.2926
103.7310 10.9250 0.2892
103.7510 10.9116 0.2904
103.7710 10.8982 0.2906
103.7910 10.8849 0.2883
103.8110 10.8715 0.2881
103.8310 10.8582 0.2876
103.8510 10.8449 0.2866
103.8710 10.8315 0.2873
103.8910 10.8182 0.2873
103.9110 10.8049 0.2867
103.9310 10.7915 0.2867
103.9510 10.7782 0.2869
103.9710 10.7648 0.2846
103.9910 10.7515 0.2850
104.0110 10.7382 0.2863
104.0310 10.7249 0.2868
104.0510 10.7115 0.2827
104.0710 10.6983 0.2852
104.0910 10.6850 0.2848
104.1110 10.6716 0.2817
104.1310 10.6582 0.2836
104.1510 10.6449 0.2839
104.1710 10.6315 0.2806
104.1910 10.6182 0.2836
104.2110 10.6049 0.2805
104.2310 10.5915 0.2833
104.2510 10.5782 0.2823
104.2710 10.5649 0.2800
104.2910 10.5515 0.2787
104.3110 10.5382 0.2814
104.3310 10.5248 0.2811
104.3510 10.5115 0.2803
104.3710 10.4982 0.2809
104.3910 10.4849 0.2816
104.4110 10.4716 0.2795
104.4310 10.4583 0.2796
104.4510 10.4450 0.2790
104.4710 10.4316 0.2788
104.4910 10.4183 0.2800
104.5110 10.4049 0.2772
104.5310 10.3916 0.2768
104.5510 10.3783 0.2773
104.5710 10.3649 0.2768
104.5910 10.3515 0.2753
104.6110 10.3382 0.2769
104.6310 10.3248 0.2758
104.6510 10.3115 0.2737
104.6710 10.2982 0.2756
104.6910 10.2848 0.2739
104.7110 10.2715 0.2749
104.7310 10.2582 0.2768
104.7510 10.2449 0.2746
104.7710 10.2316 0.2719
104.7910 10.2183 0.2728
104.8110 10.2050 0.2736
104.8310 10.1916 0.2726
104.8510 10.1783 0.2743
104.8710 10.1649 0.2730
104.8910 10.1516 0.2712
104.9110 10.1383 0.2711
104.9310 10.1249 0.2717
104.9510 10.1115 0.2693
104.9710 10.0981 0.2708
104.9910 10.0848 0.2686
105.0110 10.0715 0.2676
105.0310 10.0582 0.2688
105.0510 10.0448 0.2684
105.0710 10.0315 0.2682
105.0910 10.0182 0.2720
105.1110 10.0049 0.2719
105.1310 9.9916 0.2713
105.1510 9.9782 0.2685
105.1710 9.9649 0.2678
105.1910 9.9516 0.2666
105.2110 9.9383 0.2690
105.2310 9.9249 0.2663
105.2510 9.9116 0.2650
105.2710 9.8982 0.2667
105.2910 9.8849 0.2655
105.3110 9.8715 0.2638
105.3310 9.8582 0.2645
105.3510 9.8449 0.2639
105.3710 9.8316 0.2622
105.3910 9.8182 0.2637
105.4110 9.8048 0.2648
105.4310 9.7915 0.2635
105.4510 9.7782 0.2640
105.4710 9.7649 0.2638
105.4910 9.7515 0.2629
105.5110 9.7382 0.2628
105.5310 9.7249 0.2621
105.5510 9.7116 0.2587
105.5710 9.6982 0.2607
105.5910 9.6849 0.2596
105.6110 9.6716 0.2604
105.6310 9.6583 0.2621
105.6510 9.6449 0.2612
105.6710 9.6315 0.2576
105.6910 9.6182 0.2612
105.7110 9.6049 0.2594
105.7310 9.5915 0.2588
105.7510 9.5782 0.2621
105.7710 9.5648 0.2598
105.7910 9.5515 0.2575
105.8110 9.5382 0.2581
105.8310 9.5249 0.2553
105.8510 9.5115 0.2573
105.8710 9.4982 0.2584
105.8910 9.4849 0.2563
105.9110 9.4716 0.2567
105.9310 9.4583 0.2565
105.9510 9.4449 0.2560
105.9710 9.4316 0.2554
105.9910 9.4183 0.2542
106.0110 9.4049 0.2527
106.0310 9.3915 0.2523
106.0510 9.3782 0.2544
106.0710 9.3649 0.2543
106.0910 9.3516 0.2526
106.1110 9.3382 0.2541
106.1310 9.3248 0.2506
106.1510 9.3115 0.2507
106.1710 9.2982 0.2521
106.1910 9.2849 0.2525
106.2110 9.2715 0.2507
106.2310 9.2582 0.2519
106.2510 9.2449 0.2508
106.2710 9.2316 0.2479
106.2910 9.2182 0.2476
106.3110 9.2049 0.2490
106.3310 9.1916 0.2498
106.3510 9.1783 0.2511
106.3710 9.1649 0.2490
106.3910 9.1515 0.2478
106.4110 9.1382 0.2499
106.4310 9.1249 0.2477
106.4510 9.1115 0.2468
106.4710 9.0982 0.2480
106.4910 9.0848 0.2476
106.5110 9.0715 0.2462
106.5310 9.0582 0.2441
106.5510 9.0449 0.2450
106.5710 9.0315 0.2409
106.5910 9.0182 0.2437
106.6110 9.0049 0.2431
106.6310 8.9916 0.2438
106.6510 8.9783 0.2431
106.6710 8.9649 0.2439
106.6910 8.9516 0.2426
106.7110 8.9383 0.2440
106.7310 8.9249 0.2432
106.7510 8.9115 0.2413
106.7710 8.8982 0.2424
106.7910 8.8849 0.2423
106.8110 8.8716 0.2411
106.8310 8.8582 0.2390
106.8510 8.8449 0.2431
106.8710 8.8315 0.2387
106.8910 8.8182 0.2401
106.9110 8.8049 0.2399
106.9310 8.7915 0.2387
106.9510 8.7782 0.2403
106.9710 8.7649 0.2393
106.9910 8.7516 0.2383
107.0110 8.7382 0.2388
107.0310 8.7249 0.2402
107.0510 8.7116 0.2368
107.0710 8.6982 0.2379
107.0910 8.6849 0.2381
107.1110 8.6715 0.2350
107.1310 8.6582 0.2364
107.1510 8.6449 0.2366
107.1710 8.6316 0.2332
107.1910 8.6182 0.2356
107.2110 8.6049 0.2356
107.2310 8.5915 0.2318
107.2510 8.5782 0.2354
107.2710 8.5649 0.2347
107.2910 8.5516 0.2352
107.3110 8.5382 0.2327
107.3310 8.5249 0.2337
107.3510 8.5116 0.2295
107.3710 8.4983 0.2316
107.3910 8.4849 0.2323
107.4110 8.4716 0.2317
107.4310 8.4582 0.2328
107.4510 8.4449 0.2330
107.4710 8.4316 0.2315
107.4910 8.4182 0.2308
107.5110 8.4049 0.2306
107.5310 8.3916 0.2260
107.5510 8.3782 0.2287
107.5710 8.3649 0.2293
107.5910 8.3515 0.2270
107.6110 8.3382 0.2272
107.6310 8.3249 0.2302
107.6510 8.3115 0.2264
107.6710 8.2982 0.2275
107.6910 8.2849 0.2290
107.7110 8.2716 0.2245
107.7310 8.2583 0.2284
107.7510 8.2449 0.2278
107.7710 8.2316 0.2269
107.7910 8.2183 0.2237
107.8110 8.2049 0.2249
107.8310 8.1915 0.2258
107.8510 8.1782 0.2237
107.8710 8.1648 0.2252
107.8910 8.1515 0.2229
107.9110 8.1382 0.2234
107.9310 8.1248 0.2237
107.9510 8.1115 0.2209
107.9710 8.0982 0.2241
107.9910 8.0849 0.2248
108.0110 8.0715 0.2220
108.0310 8.0582 0.2222
108.0510 8.0449 0.2235
108.0710 8.0316 0.2212
108.0910 8.0183 0.2208
108.1110 8.0049 0.2196
108.1310 7.9916 0.2188
108.1510 7.9782 0.2187
108.1710 7.9649 0.2206
108.1910 7.9515 0.2182
108.2110 7.9382 0.2179
108.2310 7.9248 0.2175
108.2510 7.9115 0.2151
108.2710 7.8982 0.2156
108.2910 7.8848 0.2184
108.3110 7.8715 0.2155
108.3310 7.8582 0.2158
108.3510 7.8449 0.2150
108.3710 7.8316 0.2143
108.3910 7.8182 0.2145
108.4110 7.8049 0.2166
108.4310 7.7916 0.2134
108.4510 7.7783 0.2140
108.4710 7.7649 0.2159
108.4910 7.7516 0.2128
108.5110 7.7382 0.2131
108.5310 7.7249 0.2128
108.5510 7.7116 0.2122
108.5710 7.6982 0.2119
108.5910 7.6849 0.2113
108.6110 7.6716 0.2101
108.6310 7.6582 0.2100
108.6510 7.6448 0.2096
108.6710 7.6315 0.2091
108.6910 7.6182 0.2077
108.7110 7.6049 0.2114
108.7310 7.5916 0.2077
108.7510 7.5782 0.2093
108.7710 7.5649 0.2111
108.7910 7.5516 0.2086
108.8110 7.5383 0.2079
108.8310 7.5249 0.2071
108.8510 7.5116 0.2057
108.8710 7.4983 0.2055
108.8910 7.4849 0.2074
108.9110 7.4716 0.2053
108.9310 7.4582 0.2049
108.9510 7.4449 0.2067
108.9710 7.4315 0.2042
108.9910 7.4182 0.2053
109.0110 7.4048 0.2055
109.0310 7.3915 0.2038
109.0510 7.3782 0.2036
109.0710 7.3649 0.2056
109.0910 7.3515 0.2030
109.1110 7.3382 0.2020
109.1310 7.3249 0.2019
109.1510 7.3116 0.2011
109.1710 7.2983 0.2020
109.1910 7.2849 0.2016
109.2110 7.2716 0.1992
109.2310 7.2583 0.1991
109.2510 7.2449 0.2013
109.2710 7.2316 0.1985
109.2910 7.2182 0.2004
109.3110 7.2049 0.2013
109.3310 7.1916 0.1986
109.3510 7.1782 0.1980
109.3710 7.1649 0.1976
109.3910 7.1515 0.1959
109.4110 7.1382 0.1957
109.4310 7.1248 0.1975
109.4510 7.1115 0.1940
109.4710 7.0982 0.1949
109.4910 7.0849 0.1957
109.5110 7.0716 0.1939
109.5310 7.0583 0.1931
109.5510 7.0449 0.1945
109.5710 7.0316 0.1948
109.5910 7.0183 0.1938
109.6110 7.0050 0.1944
109.6310 6.9916 0.1926
109.6510 6.9782 0.1925
109.6710 6.9649 0.1936
109.6910 6.9516 0.1916
109.7110 6.9382 0.1896
109.7310 6.9248 0.1916
109.7510 6.9115 0.1899
109.7710 6.8982 0.1901
109.7910 6.8848 0.1936
109.8110 6.8715 0.1909
109.8310 6.8582 0.1903
109.8510 6.8449 0.1901
109.8710 6.8316 0.1874
109.8910 6.8183 0.1877
109.9110 6.8049 0.1878
109.9310 6.7916 0.1897
109.9510 6.7783 0.1879
109.9710 6.7650 0.1867
109.9910 6.7516 0.1874
110.0110 6.7382 0.1853
110.0310 6.7248 0.1867
110.0510 6.7115 0.1852
110.0710 6.6982 0.1840
110.0910 6.6848 0.1874
110.1110 6.6715 0.1844
110.1310 6.6582 0.1839
110.1510 6.6449 0.1841
110.1710 6.6316 0.1810
110.1910 6.6182 0.1809
110.2110 6.6049 0.1823
110.2310 6.5916 0.1813
110.2510 6.5783 0.1805
110.2710 6.5650 0.1813
110.2910 6.5516 0.1799
110.3110 6.5383 0.1786
110.3310 6.5249 0.1818
110.3510 6.5116 0.1796
110.3710 6.4982 0.1793
110.3910 6.4848 0.1781
110.4110 6.4716 0.1767
110.4310 6.4582 0.1770
110.4510 6.4449 0.1785
110.4710 6.4315 0.1776
110.4910 6.4182 0.1766
110.5110 6.4049 0.1780
110.5310 6.3915 0.1768
110.5510 6.3782 0.1775
110.5710 6.3649 0.1780
110.5910 6.3516 0.1764
110.6110 6.3383 0.1728
110.6310 6.3249 0.1737
110.6510 6.3115 0.1745
110.6710 6.2982 0.1764
110.6910 6.2849 0.1721
110.7110 6.2715 0.1707
110.7310 6.2582 0.1734
110.7510 6.2448 0.1743
110.7710 6.2315 0.1740
110.7910 6.2182 0.1718
110.8110 6.2049 0.1721
110.8310 6.1915 0.1715
110.8510 6.1782 0.1688
110.8710 6.1649 0.1726
110.8910 6.1515 0.1725
110.9110 6.1382 0.1702
110.9310 6.1249 0.1703
110.9510 6.1116 0.1715
110.9710 6.0983 0.1698
110.9910 6.0849 0.1711
111.0110 6.0716 0.1685
111.0310 6.0582 0.1667
111.0510 6.0449 0.1685
111.0710 6.0316 0.1686
111.0910 6.0182 0.1670
111.1110 6.0048 0.1655
111.1310 5.9915 0.1643
111.1510 5.9782 0.1636
111.1710 5.9649 0.1659
111.1910 5.9515 0.1649
111.2110 5.9382 0.1639
111.2310 5.9249 0.1633
111.2510 5.9116 0.1631
111.2710 5.8982 0.1626
111.2910 5.8849 0.1632
111.3110 5.8716 0.1614
111.3310 5.8583 0.1617
111.3510 5.8449 0.1620
111.3710 5.8315 0.1614
111.3910 5.8182 0.1590
111.4110 5.8049 0.1616
111.4310 5.7916 0.1584
111.4510 5.7782 0.1587
111.4710 5.7648 0.1596
111.4910 5.7515 0.1583
111.5110 5.7382 0.1583
111.5310 5.7249 0.1569
111.5510 5.7115 0.1570
111.5710 5.6982 0.1551
111.5910 5.6849 0.1558
111.6110 5.6716 0.1550
111.6310 5.6582 0.1574
111.6510 5.6449 0.1560
111.6710 5.6317 0.1568
111.6910 5.6184 0.1526
111.7110 5.6050 0.1552
111.7310 5.5916 0.1546
111.7510 5.5783 0.1529
111.7710 5.5649 0.1541
111.7910 5.5516 0.1524
111.8110 5.5382 0.1517
111.8310 5.5248 0.1548
111.8510 5.5115 0.1509
111.8710 5.4982 0.1492
111.8910 5.4848 0.1512
111.9110 5.4715 0.1513
111.9310 5.4581 0.1514
111.9510 5.4449 0.1514
111.9710 5.4315 0.1477
111.9910 5.4182 0.1488
112.0110 5.4049 0.1496
112.0310 5.3916 0.1475
112.0510 5.3783 0.1473
112.0710 5.3650 0.1487
112.0910 5.3516 0.1471
112.1110 5.3383 0.1463
112.1310 5.3249 0.1452
112.1510 5.3116 0.1469
112.1710 5.2982 0.1450
112.1910 5.2848 0.1471
112.2110 5.2715 0.1455
112.2310 5.2582 0.1438
112.2510 5.2448 0.1443
112.2710 5.2315 0.1418
112.2910 5.2182 0.1425
112.3110 5.2049 0.1434
112.3310 5.1916 0.1431
112.3510 5.1782 0.1423
112.3710 5.1649 0.1424
112.3910 5.1516 0.1419
112.4110 5.1383 0.1391
112.4310 5.1250 0.1402
112.4510 5.1116 0.1407
112.4710 5.0982 0.1392
112.4910 5.0849 0.1399
112.5110 5.0716 0.1403
112.5310 5.0582 0.1385
112.5510 5.0448 0.1393
112.5710 5.0315 0.1374
112.5910 5.0182 0.1367
112.6110 5.0049 0.1376
112.6310 4.9915 0.1379
112.6510 4.9782 0.1375
112.6710 4.9649 0.1364
112.6910 4.9515 0.1367
112.7110 4.9382 0.1340
112.7310 4.9248 0.1356
112.7510 4.9115 0.1352
112.7710 4.8983 0.1331
112.7910 4.8849 0.1332
112.8110 4.8716 0.1316
112.8310 4.8583 0.1318
112.8510 4.8449 0.1343
112.8710 4.8316 0.1322
112.8910 4.8182 0.1315
112.9110 4.8048 0.1302
112.9310 4.7915 0.1311
112.9510 4.7782 0.1301
112.9710 4.7649 0.1304
112.9910 4.7515 0.1282
113.0110 4.7381 0.1295
113.0310 4.7248 0.1280
113.0510 4.7115 0.1293
113.0710 4.6982 0.1281
113.0910 4.6849 0.1272
113.1110 4.6716 0.1284
113.1310 4.6583 0.1260
113.1510 4.6449 0.1253
113.1710 4.6316 0.1271
113.1910 4.6182 0.1235
113.2110 4.6049 0.1251
113.2310 4.5916 0.1248
113.2510 4.5782 0.1236
113.2710 4.5648 0.1263
113.2910 4.5515 0.1222
113.3110 4.5382 0.1230
113.3310 4.5249 0.1222
113.3510 4.5115 0.1217
113.3710 4.4982 0.1231
113.3910 4.4849 0.1224
113.4110 4.4716 0.1201
113.4310 4.4582 0.1217
113.4510 4.4448 0.1188
113.4710 4.4315 0.1203
113.4910 4.4182 0.1180
113.5110 4.4049 0.1172
113.5310 4.3916 0.1198
113.5510 4.3782 0.1186
113.5710 4.3649 0.1179
113.5910 4.3516 0.1176
113.6110 4.3382 0.1156
113.6310 4.3249 0.1151
113.6510 4.3115 0.1145
113.6710 4.2982 0.1137
113.6910 4.2849 0.1144
113.7110 4.2715 0.1146
113.7310 4.2582 0.1161
113.7510 4.2448 0.1153
113.7710 4.2315 0.1157
113.7910 4.2182 0.1142
113.8110 4.2048 0.1110
113.8310 4.1916 0.1136
113.8510 4.1783 0.1116
113.8710 4.1649 0.1119
113.8910 4.1516 0.1114
113.9110 4.1382 0.1110
113.9310 4.1249 0.1086
113.9510 4.1116 0.1096
113.9710 4.0982 0.1076
113.9910 4.0848 0.1100
114.0110 4.0715 0.1081
114.0310 4.0582 0.1062
114.0510 4.0449 0.1078
114.0710 4.0316 0.1086
114.0910 4.0182 0.1067
114.1110 4.0049 0.1044
114.1310 3.9916 0.1042
114.1510 3.9782 0.1058
114.1710 3.9649 0.1054
114.1910 3.9516 0.1062
114.2110 3.9383 0.1041
114.2310 3.9249 0.1011
114.2510 3.9116 0.1051
114.2710 3.8982 0.1042
114.2910 3.8849 0.1011
114.3110 3.8716 0.1026
114.3310 3.8582 0.1024
114.3510 3.8449 0.0993
114.3710 3.8315 0.1030
114.3910 3.8182 0.0993
114.4110 3.8049 0.1012
114.4310 3.7915 0.0998
114.4510 3.7782 0.1003
114.4710 3.7649 0.0980
114.4910 3.7516 0.1009
114.5110 3.7382 0.0985
114.5310 3.7249 0.0958
114.5510 3.7116 0.0981
114.5710 3.6983 0.0976
114.5910 3.6850 0.0958
114.6110 3.6716 0.0965
114.6310 3.6582 0.0948
114.6510 3.6449 0.0935
114.6710 3.6315 0.0948
114.6910 3.6182 0.0942
114.7110 3.6048 0.0949
114.7310 3.5915 0.0925
114.7510 3.5782 0.0914
114.7710 3.5649 0.0906
114.7910 3.5515 0.0930
114.8110 3.5382 0.0938
114.8310 3.5249 0.0904
114.8510 3.5115 0.0938
114.8710 3.4982 0.0900
114.8910 3.4848 0.0907
114.9110 3.4715 0.0912
114.9310 3.4582 0.0892
114.9510 3.4449 0.0859
114.9710 3.4316 0.0898
114.9910 3.4183 0.0870
115.0110 3.4050 0.0871
115.0310 3.3916 0.0865
115.0510 3.3783 0.0869
115.0710 3.3648 0.0845
115.0910 3.3515 0.0856
115.1110 3.3382 0.0845
115.1310 3.3249 0.0846
115.1510 3.3115 0.0859
115.1710 3.2981 0.0847
115.1910 3.2848 0.0841
115.2110 3.2716 0.0846
115.2310 3.2583 0.0827
115.2510 3.2449 0.0805
115.2710 3.2316 0.0811
115.2910 3.2183 0.0807
115.3110 3.2050 0.0791
115.3310 3.1916 0.0814
115.3510 3.1782 0.0807
115.3710 3.1649 0.0805
115.3910 3.1516 0.0802
115.4110 3.1382 0.0798
115.4310 3.1249 0.0787
115.4510 3.1115 0.0791
115.4710 3.0982 0.0764
115.4910 3.0849 0.0776
115.5110 3.0715 0.0767
115.5310 3.0582 0.0766
115.5510 3.0448 0.0754
115.5710 3.0315 0.0758
115.5910 3.0182 0.0730
115.6110 3.0049 0.0740
115.6310 2.9915 0.0749
115.6510 2.9783 0.0754
115.6710 2.9650 0.0742
115.6910 2.9516 0.0740
115.7110 2.9382 0.0740
115.7310 2.9249 0.0742
115.7510 2.9116 0.0743
115.7710 2.8982 0.0715
115.7910 2.8849 0.0728
115.8110 2.8715 0.0720
115.8310 2.8582 0.0711
115.8510 2.8449 0.0695
115.8710 2.8315 0.0708
115.8910 2.8181 0.0712
115.9110 2.8048 0.0702
115.9310 2.7915 0.0699
115.9510 2.7782 0.0705
115.9710 2.7649 0.0702
115.9910 2.7515 0.0681
116.0110 2.7383 0.0651
116.0310 2.7250 0.0678
116.0510 2.7116 0.0665
116.0710 2.6983 0.0686
116.0910 2.6849 0.0660
116.1110 2.6716 0.0664
116.1310 2.6583 0.0641
116.1510 2.6449 0.0654
116.1710 2.6315 0.0624
116.1910 2.6182 0.0637
116.2110 2.6048 0.0620
116.2310 2.5915 0.0612
116.2510 2.5782 0.0607
116.2710 2.5648 0.0605
116.2910 2.5515 0.0569
116.3110 2.5382 0.0577
116.3310 2.5249 0.0576
116.3510 2.5115 0.0589
116.3710 2.4982 0.0583
116.3910 2.4849 0.0585
116.4110 2.4716 0.0578
116.4310 2.4582 0.0571
116.4510 2.4449 0.0561
116.4710 2.4316 0.0542
116.4910 2.4183 0.0546
116.5110 2.4049 0.0538
116.5310 2.3915 0.0554
116.5510 2.3782 0.0533
116.5710 2.3649 0.0536
116.5910 2.3516 0.0512
116.6110 2.3382 0.0521
116.6310 2.3248 0.0512
116.6510 2.3115 0.0498
116.6710 2.2982 0.0520
116.6910 2.2849 0.0486
116.7110 2.2715 0.0477
116.7310 2.2582 0.0481
116.7510 2.2449 0.0485
116.7710 2.2316 0.0469
116.7910 2.2182 0.0467
116.8110 2.2049 0.0462
116.8310 2.1916 0.0462
116.8510 2.1783 0.0463
116.8710 2.1649 0.0444
116.8910 2.1515 0.0433
116.9110 2.1382 0.0421
116.9310 2.1249 0.0421
116.9510 2.1116 0.0426
116.9710 2.0982 0.0432
116.9910 2.0848 0.0408
117.0110 2.0715 0.0429
117.0310 2.0582 0.0409
117.0510 2.0449 0.0401
117.0710 2.0315 0.0393
117.0910 2.0182 0.0414
117.1110 2.0050 0.0396
117.1310 1.9916 0.0394
117.1510 1.9782 0.0371
117.1710 1.9649 0.0369
117.1910 1.9516 0.0362
117.2110 1.9383 0.0373
117.2310 1.9249 0.0371
117.2510 1.9115 0.0368
117.2710 1.8982 0.0358
117.2910 1.8849 0.0344
117.3110 1.8715 0.0334
117.3310 1.8581 0.0327
117.3510 1.8448 0.0316
117.3710 1.8315 0.0313
117.3910 1.8182 0.0317
117.4110 1.8049 0.0297
117.4310 1.7916 0.0316
117.4510 1.7783 0.0314
117.4710 1.7650 0.0281
117.4910 1.7516 0.0271
117.5110 1.7382 0.0267
117.5310 1.7249 0.0254
117.5510 1.7116 0.0231
117.5710 1.6982 0.0245
117.5910 1.6849 0.0258
117.6110 1.6715 0.0262
117.6310 1.6582 0.0253
117.6510 1.6449 0.0248
117.6710 1.6316 0.0221
117.6910 1.6182 0.0232
117.7110 1.6048 0.0244
117.7310 1.5915 0.0216
117.7510 1.5782 0.0229
117.7710 1.5649 0.0220
117.7910 1.5515 0.0205
117.8110 1.5382 0.0204
117.8310 1.5249 0.0202
117.8510 1.5116 0.0193
117.8710 1.4982 0.0177
117.8910 1.4849 0.0176
117.9110 1.4716 0.0171
117.9310 1.4583 0.0183
117.9510 1.4449 0.0170
117.9710 1.4315 0.0150
117.9910 1.4182 0.0151
118.0110 1.4049 0.0144
118.0310 1.3916 0.0134
118.0510 1.3782 0.0124
118.0710 1.3649 0.0133
118.0910 1.3516 0.0117
118.1110 1.3382 0.0119
118.1310 1.3249 0.0117
118.1510 1.3115 0.0126
118.1710 1.2982 0.0111
118.1910 1.2850 0.0092
118.2110 1.2716 0.0059
118.2310 1.2583 0.0080
118.2510 1.2449 0.0085
118.2710 1.2316 0.0064
118.2910 1.2182 0.0059
118.3110 1.2049 0.0051
118.3310 1.1915 0.0038
118.3510 1.1782 0.0049
118.3710 1.1649 0.0045
118.3910 1.1515 0.0050
118.4110 1.1382 0.0024
118.4310 1.1248 0.0034
118.4510 1.1115 0.0012
118.4710 1.0982 0.0019
118.4910 1.0849 0.0032
118.5110 1.0716 0.0004
118.5310 1.0583 0.0015
118.5510 1.0450 0.0019
118.5710 1.0316 -0.0002
118.5910 1.0182 -0.0004
118.6110 1.0049 -0.0009
118.6310 0.9916 -0.0029
118.6510 0.9782 -0.0018
118.6710 0.9649 -0.0010
118.6910 0.9515 -0.0035
118.7110 0.9382 -0.0031
118.7310 0.9249 -0.0048
118.7510 0.9115 -0.0051
118.7710 0.8982 -0.0027
118.7910 0.8848 -0.0018
118.8110 0.8715 -0.0054
118.8310 0.8582 -0.0022
118.8510 0.8449 -0.0044
118.8710 0.8315 -0.0028
118.8910 0.8182 -0.0036
118.9110 0.8050 -0.0026
118.9310 0.7916 -0.0046
118.9510 0.7783 -0.0026
118.9710 0.7649 -0.0029
118.9910 0.7516 -0.0048
119.0110 0.7383 -0.0047
119.0310 0.7249 -0.0032
119.0510 0.7115 -0.0060
119.0710 0.6981 -0.0040
119.0910 0.6848 -0.0059
119.1110 0.6715 -0.0068
119.1310 0.6582 -0.0048
119.1510 0.6448 -0.0055
119.1710 0.6315 -0.0080
119.1910 0.6182 -0.0064
119.2110 0.6049 -0.0070
119.2310 0.5915 -0.0059
119.2510 0.5782 -0.0079
119.2710 0.5650 -0.0088
119.2910 0.5516 -0.0081
119.3110 0.5383 -0.0070
119.3310 0.5249 -0.0055
119.3510 0.5116 -0.0072
119.3710 0.4983 -0.0051
119.3910 0.4849 -0.0058
119.4110 0.4715 -0.0079
119.4310 0.4581 -0.0082
119.4510 0.4448 -0.0079
119.4710 0.4315 -0.0070
119.4910 0.4182 -0.0060
119.5110 0.4048 -0.0065
119.5310 0.3915 -0.0063
119.5510 0.3782 -0.0070
119.5710 0.3649 -0.0060
119.5910 0.3516 -0.0079
119.6110 0.3383 -0.0063
119.6310 0.3250 -0.0063
119.6510 0.3116 -0.0084
119.6710 0.2983 -0.0079
119.6910 0.2849 -0.0062
119.7110 0.2716 -0.0074
119.7310 0.2583 -0.0064
119.7510 0.2449 -0.0069
119.7710 0.2315 -0.0069
119.7910 0.2182 -0.0073
119.8110 0.2049 -0.0064
119.8310 0.1916 -0.0064
119.8510 0.1782 -0.0070
119.8710 0.1649 -0.0062
119.8910 0.1515 -0.0063
119.9110 0.1382 -0.0068
119.9310 0.1249 -0.0070
119.9510 0.1115 -0.0055
119.9710 0.0982 -0.0072
119.9910 0.0849 -0.0052
120.0110 0.0716 -0.0087
120.0310 0.0583 -0.0085
120.0510 0.0449 -0.0074
120.0710 0.0316 -0.0083
120.0910 0.0183 -0.0070
120.1110 0.0049 -0.0049
120.1190 -0.0003 -0.0006
