Raw Data
Time Displacement Force
(s) (mm) (N)
0.0000 0.0000 -0.0095
0.0200 0.0001 -0.0072
0.0400 0.0020 0.0080
0.0600 0.0095 0.0039
0.0800 0.0213 -0.0070
0.1000 0.0337 -0.0044
0.1200 0.0464 -0.0075
0.1400 0.0598 -0.0054
0.1600 0.0739 -0.0056
0.1800 0.0881 -0.0049
0.2000 0.1021 -0.0031
0.2200 0.1157 -0.0045
0.2400 0.1290 -0.0062
0.2600 0.1423 -0.0043
0.2800 0.1556 -0.0041
0.3000 0.1689 -0.0048
0.3200 0.1823 -0.0020
0.3400 0.1956 -0.0018
0.3600 0.2090 -0.0016
0.3800 0.2224 0.0011
0.4000 0.2358 0.0034
0.4200 0.2491 0.0023
0.4400 0.2624 0.0027
0.4600 0.2757 0.0032
0.4800 0.2891 0.0039
0.5000 0.3024 0.0058
0.5200 0.3157 0.0069
0.5400 0.3290 0.0094
0.5600 0.3424 0.0107
0.5800 0.3557 0.0123
0.6000 0.3690 0.0146
0.6200 0.3823 0.0152
0.6400 0.3956 0.0158
0.6600 0.4090 0.0187
0.6800 0.4224 0.0190
0.7000 0.4357 0.0228
0.7200 0.4491 0.0229
0.7400 0.4624 0.0257
0.7600 0.4758 0.0260
0.7800 0.4891 0.0281
0.8000 0.5024 0.0277
0.8200 0.5158 0.0314
0.8400 0.5291 0.0316
0.8600 0.5424 0.0341
0.8800 0.5557 0.0361
0.9000 0.5690 0.0383
0.9200 0.5824 0.0393
0.9400 0.5957 0.0394
0.9600 0.6090 0.0416
0.9800 0.6222 0.0433
1.0000 0.6356 0.0454
1.0200 0.6490 0.0451
1.0400 0.6623 0.0484
1.0600 0.6757 0.0503
1.0800 0.6890 0.0526
1.1000 0.7024 0.0520
1.1200 0.7158 0.0533
1.1400 0.7291 0.0533
1.1600 0.7424 0.0553
1.1800 0.7558 0.0584
1.2000 0.7691 0.0612
1.2200 0.7825 0.0605
1.2400 0.7957 0.0630
1.2600 0.8091 0.0624
1.2800 0.8224 0.0637
1.3000 0.8357 0.0678
1.3200 0.8490 0.0671
1.3400 0.8623 0.0709
1.3600 0.8756 0.0719
1.3800 0.8890 0.0717
1.4000 0.9023 0.0716
1.4200 0.9157 0.0751
1.4400 0.9291 0.0759
1.4600 0.9424 0.0776
1.4800 0.9558 0.0776
1.5000 0.9691 0.0793
1.5200 0.9824 0.0814
1.5400 0.9958 0.0833
1.5600 1.0091 0.0845
1.5800 1.0224 0.0849
1.6000 1.0357 0.0868
1.6200 1.0490 0.0896
1.6400 1.0624 0.0913
1.6600 1.0757 0.0898
1.6800 1.0891 0.0923
1.7000 1.1024 0.0913
1.7200 1.1157 0.0948
1.7400 1.1290 0.0980
1.7600 1.1424 0.0988
1.7800 1.1557 0.0988
1.8000 1.1690 0.0988
1.8200 1.1824 0.1007
1.8400 1.1958 0.1029
1.8600 1.2091 0.1046
1.8800 1.2224 0.1049
1.9000 1.2358 0.1053
1.9200 1.2491 0.1066
1.9400 1.2624 0.1088
1.9600 1.2757 0.1099
1.9800 1.2890 0.1101
2.0000 1.3024 0.1117
2.0200 1.3157 0.1137
2.0400 1.3290 0.1159
2.0600 1.3423 0.1155
2.0800 1.3556 0.1183
2.1000 1.3690 0.1179
2.1200 1.3824 0.1196
2.1400 1.3957 0.1193
2.1600 1.4090 0.1208
2.1800 1.4224 0.1207
2.2000 1.4358 0.1223
2.2200 1.4491 0.1241
2.2400 1.4624 0.1257
2.2600 1.4757 0.1259
2.2800 1.4891 0.1274
2.3000 1.5024 0.1270
2.3200 1.5157 0.1283
2.3400 1.5291 0.1300
2.3600 1.5424 0.1314
2.3800 1.5558 0.1352
2.4000 1.5691 0.1354
2.4200 1.5824 0.1353
2.4400 1.5957 0.1363
2.4600 1.6090 0.1379
2.4800 1.6223 0.1389
2.5000 1.6356 0.1405
2.5200 1.6490 0.1413
2.5400 1.6624 0.1427
2.5600 1.6758 0.1419
2.5800 1.6891 0.1449
2.6000 1.7024 0.1456
2.6200 1.7158 0.1472
2.6400 1.7291 0.1462
2.6600 1.7425 0.1469
2.6800 1.7558 0.1480
2.7000 1.7691 0.1519
2.7200 1.7824 0.1529
2.7400 1.7957 0.1536
2.7600 1.8090 0.1553
2.7800 1.8223 0.1564
2.8000 1.8356 0.1578
2.8200 1.8490 0.1584
2.8400 1.8623 0.1572
2.8600 1.8756 0.1591
2.8800 1.8890 0.1588
2.9000 1.9024 0.1591
2.9200 1.9158 0.1611
2.9400 1.9291 0.1623
2.9600 1.9425 0.1646
2.9800 1.9558 0.1620
3.0000 1.9691 0.1645
3.0200 1.9824 0.1660
3.0400 1.9957 0.1667
3.0600 2.0090 0.1689
3.0800 2.0224 0.1707
3.1000 2.0357 0.1711
3.1200 2.0490 0.1716
3.1400 2.0623 0.1727
3.1600 2.0756 0.1738
3.1800 2.0890 0.1743
3.2000 2.1024 0.1738
3.2200 2.1157 0.1752
3.2400 2.1290 0.1762
3.2600 2.1424 0.1781
3.2800 2.1558 0.1788
3.3000 2.1691 0.1810
3.3200 2.1824 0.1810
3.3400 2.1958 0.1815
3.3600 2.2091 0.1821
3.3800 2.2225 0.1802
3.4000 2.2357 0.1851
3.4200 2.2490 0.1844
3.4400 2.2623 0.1845
3.4600 2.2757 0.1869
3.4800 2.2890 0.1887
3.5000 2.3023 0.1886
3.5200 2.3156 0.1890
3.5400 2.3290 0.1901
3.5600 2.3423 0.1899
3.5800 2.3557 0.1920
3.6000 2.3690 0.1939
3.6200 2.3824 0.1946
3.6400 2.3958 0.1924
3.6600 2.4091 0.1950
3.6800 2.4224 0.1956
3.7000 2.4357 0.1968
3.7200 2.4491 0.1971
3.7400 2.4624 0.1987
3.7600 2.4757 0.1989
3.7800 2.4890 0.2005
3.8000 2.5023 0.2018
3.8200 2.5157 0.2010
3.8400 2.5290 0.2023
3.8600 2.5423 0.2026
3.8800 2.5557 0.2024
3.9000 2.5690 0.2044
3.9200 2.5824 0.2059
3.9400 2.5957 0.2079
3.9600 2.6090 0.2083
3.9800 2.6224 0.2103
4.0000 2.6358 0.2086
4.0200 2.6491 0.2083
4.0400 2.6624 0.2103
4.0600 2.6758 0.2104
4.0800 2.6891 0.2126
4.1000 2.7025 0.2131
4.1200 2.7158 0.2132
4.1400 2.7291 0.2161
4.1600 2.7424 0.2148
4.1800 2.7557 0.2134
4.2000 2.7691 0.2156
4.2200 2.7823 0.2162
4.2400 2.7956 0.2190
4.2600 2.8090 0.2208
4.2800 2.8224 0.2214
4.3000 2.8357 0.2199
4.3200 2.8490 0.2228
4.3400 2.8624 0.2230
4.3600 2.8758 0.2221
4.3800 2.8891 0.2245
4.4000 2.9024 0.2257
4.4200 2.9157 0.2236
4.4400 2.9291 0.2270
4.4600 2.9425 0.2264
4.4800 2.9558 0.2262
4.5000 2.9691 0.2276
4.5200 2.9824 0.2280
4.5400 2.9957 0.2280
4.5600 3.0091 0.2292
4.5800 3.0224 0.2309
4.6000 3.0356 0.2298
4.6200 3.0490 0.2312
4.6400 3.0623 0.2321
4.6600 3.0756 0.2334
4.6800 3.0890 0.2340
4.7000 3.1024 0.2355
4.7200 3.1158 0.2343
4.7400 3.1291 0.2367
4.7600 3.1425 0.2365
4.7800 3.1558 0.2368
4.8000 3.1691 0.2371
4.8200 3.1825 0.2402
4.8400 3.1958 0.2406
4.8600 3.2090 0.2408
4.8800 3.2224 0.2420
4.9000 3.2357 0.2394
4.9200 3.2490 0.2433
4.9400 3.2623 0.2430
4.9600 3.2756 0.2442
4.9800 3.2890 0.2453
5.0000 3.3023 0.2454
5.0200 3.3157 0.2454
5.0400 3.3290 0.2457
5.0600 3.3424 0.2465
5.0800 3.3558 0.2481
5.1000 3.3691 0.2487
5.1200 3.3824 0.2509
5.1400 3.3957 0.2501
5.1600 3.4091 0.2494
5.1800 3.4224 0.2486
5.2000 3.4358 0.2480
5.2200 3.4490 0.2505
5.2400 3.4623 0.2513
5.2600 3.4757 0.2518
5.2800 3.4890 0.2528
5.3000 3.5023 0.2540
5.3200 3.5157 0.2533
5.3400 3.5290 0.2547
5.3600 3.5424 0.2545
5.3800 3.5557 0.2578
5.4000 3.5690 0.2582
5.4200 3.5824 0.2602
5.4400 3.5958 0.2595
5.4600 3.6091 0.2608
5.4800 3.6224 0.2609
5.5000 3.6357 0.2593
5.5200 3.6491 0.2620
5.5400 3.6625 0.2625
5.5600 3.6758 0.2635
5.5800 3.6891 0.2648
5.6000 3.7024 0.2648
5.6200 3.7157 0.2643
5.6400 3.7291 0.2647
5.6600 3.7424 0.2660
5.6800 3.7557 0.2646
5.7000 3.7690 0.2671
5.7200 3.7824 0.2678
5.7400 3.7957 0.2672
5.7600 3.8090 0.2686
5.7800 3.8224 0.2709
5.8000 3.8358 0.2684
5.8200 3.8491 0.2711
5.8400 3.8624 0.2710
5.8600 3.8757 0.2715
5.8800 3.8891 0.2718
5.9000 3.9024 0.2730
5.9200 3.9157 0.2730
5.9400 3.9290 0.2745
5.9600 3.9423 0.2767
5.9800 3.9557 0.2752
6.0000 3.9691 0.2757
6.0200 3.9824 0.2761
6.0400 3.9957 0.2764
6.0600 4.0090 0.2785
6.0800 4.0224 0.2790
6.1000 4.0357 0.2789
6.1200 4.0490 0.2785
6.1400 4.0624 0.2799
6.1600 4.0757 0.2799
6.1800 4.0891 0.2810
6.2000 4.1024 0.2823
6.2200 4.1157 0.2800
6.2400 4.1291 0.2823
6.2600 4.1424 0.2849
6.2800 4.1558 0.2837
6.3000 4.1691 0.2845
6.3200 4.1824 0.2868
6.3400 4.1957 0.2854
6.3600 4.2090 0.2879
6.3800 4.2223 0.2863
6.4000 4.2356 0.2882
6.4200 4.2490 0.2878
6.4400 4.2623 0.2895
6.4600 4.2757 0.2883
6.4800 4.2890 0.2893
6.5000 4.3024 0.2900
6.5200 4.3158 0.2903
6.5400 4.3291 0.2918
6.5600 4.3424 0.2932
6.5800 4.3558 0.2922
6.6000 4.3691 0.2935
6.6200 4.3825 0.2929
6.6400 4.3958 0.2924
6.6600 4.4090 0.2953
6.6800 4.4223 0.2948
6.7000 4.4357 0.2945
6.7200 4.4491 0.2939
6.7400 4.4624 0.2972
6.7600 4.4757 0.2988
6.7800 4.4890 0.2998
6.8000 4.5023 0.2999
6.8200 4.5157 0.2987
6.8400 4.5290 0.2997
6.8600 4.5424 0.3001
6.8800 4.5557 0.2987
6.9000 4.5691 0.2983
6.9200 4.5824 0.2995
6.9400 4.5958 0.3019
6.9600 4.6091 0.3016
6.9800 4.6225 0.3018
7.0000 4.6358 0.3033
7.0200 4.6491 0.3046
7.0400 4.6623 0.3058
7.0600 4.6757 0.3050
7.0800 4.6890 0.3059
7.1000 4.7023 0.3052
7.1200 4.7156 0.3062
7.1400 4.7290 0.3096
7.1600 4.7424 0.3077
7.1800 4.7557 0.3066
7.2000 4.7691 0.3086
7.2200 4.7824 0.3102
7.2400 4.7958 0.3098
7.2600 4.8091 0.3085
7.2800 4.8224 0.3118
7.3000 4.8357 0.3102
7.3200 4.8490 0.3109
7.3400 4.8624 0.3122
7.3600 4.8757 0.3107
7.3800 4.8891 0.3109
7.4000 4.9024 0.3155
7.4200 4.9157 0.3162
7.4400 4.9291 0.3167
7.4600 4.9424 0.3166
7.4800 4.9557 0.3164
7.5000 4.9690 0.3159
7.5200 4.9824 0.3184
7.5400 4.9957 0.3173
7.5600 5.0090 0.3145
7.5800 5.0223 0.3176
7.6000 5.0357 0.3176
7.6200 5.0491 0.3191
7.6400 5.0624 0.3198
7.6600 5.0757 0.3197
7.6800 5.0891 0.3171
7.7000 5.1024 0.3193
7.7200 5.1158 0.3214
7.7400 5.1291 0.3228
7.7600 5.1424 0.3233
7.7800 5.1557 0.3213
7.8000 5.1691 0.3233
7.8200 5.1824 0.3258
7.8400 5.1957 0.3257
7.8600 5.2090 0.3256
7.8800 5.2223 0.3263
7.9000 5.2357 0.3261
7.9200 5.2490 0.3268
7.9400 5.2624 0.3287
7.9600 5.2757 0.3271
7.9800 5.2891 0.3279
8.0000 5.3024 0.3276
8.0200 5.3157 0.3282
8.0400 5.3291 0.3277
8.0600 5.3425 0.3302
8.0800 5.3558 0.3298
8.1000 5.3691 0.3286
8.1200 5.3824 0.3294
8.1400 5.3957 0.3309
8.1600 5.4091 0.3318
8.1800 5.4224 0.3337
8.2000 5.4357 0.3328
8.2200 5.4490 0.3320
8.2400 5.4623 0.3342
8.2600 5.4757 0.3343
8.2800 5.4890 0.3350
8.3000 5.5024 0.3358
8.3200 5.5157 0.3358
8.3400 5.5291 0.3344
8.3600 5.5424 0.3359
8.3800 5.5557 0.3362
8.4000 5.5691 0.3347
8.4200 5.5824 0.3372
8.4400 5.5958 0.3352
8.4600 5.6091 0.3381
8.4800 5.6224 0.3404
8.5000 5.6357 0.3404
8.5200 5.6491 0.3392
8.5400 5.6624 0.3411
8.5600 5.6757 0.3402
8.5800 5.6890 0.3392
8.6000 5.7023 0.3407
8.6200 5.7157 0.3418
8.6400 5.7290 0.3413
8.6600 5.7423 0.3431
8.6800 5.7557 0.3439
8.7000 5.7691 0.3424
8.7200 5.7824 0.3443
8.7400 5.7957 0.3454
8.7600 5.8091 0.3465
8.7800 5.8224 0.3482
8.8000 5.8357 0.3461
8.8200 5.8490 0.3440
8.8400 5.8624 0.3459
8.8600 5.8757 0.3473
8.8800 5.8891 0.3472
8.9000 5.9024 0.3485
8.9200 5.9157 0.3497
8.9400 5.9290 0.3481
8.9600 5.9424 0.3484
8.9800 5.9557 0.3468
9.0000 5.9690 0.3489
9.0200 5.9824 0.3498
9.0400 5.9957 0.3521
9.0600 6.0091 0.3506
9.0800 6.0224 0.3520
9.1000 6.0357 0.3492
9.1200 6.0491 0.3504
9.1400 6.0624 0.3511
9.1600 6.0758 0.3530
9.1800 6.0891 0.3519
9.2000 6.1024 0.3542
9.2200 6.1157 0.3531
9.2400 6.1290 0.3558
9.2600 6.1424 0.3580
9.2800 6.1557 0.3580
9.3000 6.1690 0.3561
9.3200 6.1823 0.3581
9.3400 6.1957 0.3587
9.3600 6.2090 0.3586
9.3800 6.2224 0.3570
9.4000 6.2357 0.3580
9.4200 6.2491 0.3565
9.4400 6.2624 0.3600
9.4600 6.2757 0.3598
9.4800 6.2891 0.3589
9.5000 6.3024 0.3605
9.5200 6.3158 0.3608
9.5400 6.3291 0.3589
9.5600 6.3424 0.3621
9.5800 6.3557 0.3601
9.6000 6.3691 0.3618
9.6200 6.3824 0.3630
9.6400 6.3957 0.3639
9.6600 6.4090 0.3620
9.6800 6.4224 0.3634
9.7000 6.4357 0.3644
9.7200 6.4490 0.3629
9.7400 6.4623 0.3650
9.7600 6.4757 0.3638
9.7800 6.4891 0.3652
9.8000 6.5025 0.3648
9.8200 6.5158 0.3665
9.8400 6.5291 0.3671
9.8600 6.5425 0.3675
9.8800 6.5558 0.3681
9.9000 6.5692 0.3668
9.9200 6.5824 0.3670
9.9400 6.5957 0.3686
9.9600 6.6090 0.3654
9.9800 6.6224 0.3681
10.0000 6.6356 0.3670
10.0200 6.6489 0.3685
10.0400 6.6623 0.3702
10.0600 6.6756 0.3710
10.0800 6.6890 0.3711
10.1000 6.7023 0.3720
10.1200 6.7157 0.3709
10.1400 6.7291 0.3707
10.1600 6.7425 0.3703
10.1800 6.7558 0.3730
10.2000 6.7691 0.3739
10.2200 6.7824 0.3737
10.2400 6.7958 0.3750
10.2600 6.8091 0.3738
10.2800 6.8224 0.3751
10.3000 6.8357 0.3749
10.3200 6.8490 0.3722
10.3400 6.8624 0.3760
10.3600 6.8757 0.3771
10.3800 6.8890 0.3765
10.4000 6.9023 0.3745
10.4200 6.9157 0.3781
10.4400 6.9290 0.3755
10.4600 6.9423 0.3784
10.4800 6.9557 0.3779
10.5000 6.9691 0.3754
10.5200 6.9825 0.3773
10.5400 6.9958 0.3798
10.5600 7.0091 0.3778
10.5800 7.0224 0.3791
10.6000 7.0358 0.3776
10.6200 7.0491 0.3778
10.6400 7.0624 0.3808
10.6600 7.0757 0.3832
10.6800 7.0890 0.3799
10.7000 7.1024 0.3801
10.7200 7.1157 0.3825
10.7400 7.1290 0.3813
10.7600 7.1423 0.3851
10.7800 7.1557 0.3839
10.8000 7.1690 0.3822
10.8200 7.1824 0.3836
10.8400 7.1957 0.3851
10.8600 7.2091 0.3843
10.8800 7.2225 0.3822
10.9000 7.2358 0.3830
10.9200 7.2491 0.3833
10.9400 7.2624 0.3874
10.9600 7.2758 0.3874
10.9800 7.2891 0.3850
11.0000 7.3024 0.3848
11.0200 7.3157 0.3898
11.0400 7.3290 0.3863
11.0600 7.3424 0.3887
11.0800 7.3557 0.3860
11.1000 7.3690 0.3851
11.1200 7.3823 0.3877
11.1400 7.3957 0.3884
11.1600 7.4090 0.3884
11.1800 7.4223 0.3880
11.2000 7.4357 0.3888
11.2200 7.4491 0.3891
11.2400 7.4625 0.3915
11.2600 7.4758 0.3905
11.2800 7.4891 0.3900
11.3000 7.5024 0.3910
11.3200 7.5158 0.3913
11.3400 7.5291 0.3900
11.3600 7.5424 0.3910
11.3800 7.5557 0.3916
11.4000 7.5691 0.3920
11.4200 7.5824 0.3939
11.4400 7.5957 0.3930
11.4600 7.6090 0.3939
11.4800 7.6223 0.3950
11.5000 7.6356 0.3963
11.5200 7.6490 0.3966
11.5400 7.6623 0.3963
11.5600 7.6757 0.3969
11.5800 7.6891 0.3944
11.6000 7.7024 0.3954
11.6200 7.7158 0.3972
11.6400 7.7291 0.3963
11.6600 7.7424 0.3976
11.6800 7.7558 0.3987
11.7000 7.7691 0.3973
11.7200 7.7824 0.3990
11.7400 7.7957 0.3997
11.7600 7.8091 0.3989
11.7800 7.8224 0.3981
11.8000 7.8357 0.4028
11.8200 7.8490 0.3979
11.8400 7.8623 0.3982
11.8600 7.8757 0.3980
11.8800 7.8890 0.3983
11.9000 7.9023 0.3996
11.9200 7.9157 0.4026
11.9400 7.9291 0.3996
11.9600 7.9425 0.4033
11.9800 7.9558 0.4035
12.0000 7.9691 0.4040
12.0200 7.9824 0.4035
12.0400 7.9958 0.4066
12.0600 8.0091 0.4032
12.0800 8.0224 0.4048
12.1000 8.0357 0.4057
12.1200 8.0490 0.4044
12.1400 8.0624 0.4041
12.1600 8.0757 0.4066
12.1800 8.0890 0.4047
12.2000 8.1023 0.4043
12.2200 8.1157 0.4060
12.2400 8.1291 0.4060
12.2600 8.1424 0.4050
12.2800 8.1557 0.4069
12.3000 8.1691 0.4055
12.3200 8.1825 0.4062
12.3400 8.1958 0.4071
12.3600 8.2091 0.4080
12.3800 8.2224 0.4091
12.4000 8.2358 0.4098
12.4200 8.2491 0.4069
12.4400 8.2624 0.4084
12.4600 8.2757 0.4125
12.4800 8.2890 0.4112
12.5000 8.3024 0.4093
12.5200 8.3157 0.4114
12.5400 8.3290 0.4112
12.5600 8.3423 0.4121
12.5800 8.3557 0.4135
12.6000 8.3690 0.4121
12.6200 8.3824 0.4120
12.6400 8.3957 0.4169
12.6600 8.4091 0.4110
12.6800 8.4225 0.4132
12.7000 8.4358 0.4146
12.7200 8.4491 0.4138
12.7400 8.4624 0.4149
12.7600 8.4758 0.4151
12.7800 8.4891 0.4135
12.8000 8.5024 0.4162
12.8200 8.5157 0.4181
12.8400 8.5290 0.4157
12.8600 8.5424 0.4175
12.8800 8.5557 0.4174
12.9000 8.5690 0.4166
12.9200 8.5823 0.4163
12.9400 8.5957 0.4197
12.9600 8.6090 0.4154
12.9800 8.6224 0.4174
13.0000 8.6357 0.4173
13.0200 8.6491 0.4185
13.0400 8.6624 0.4164
13.0600 8.6758 0.4194
13.0800 8.6891 0.4174
13.1000 8.7024 0.4213
13.1200 8.7158 0.4202
13.1400 8.7291 0.4199
13.1600 8.7424 0.4178
13.1800 8.7557 0.4211
13.2000 8.7690 0.4184
13.2200 8.7824 0.4209
13.2400 8.7957 0.4213
13.2600 8.8090 0.4194
13.2800 8.8223 0.4206
13.3000 8.8357 0.4232
13.3200 8.8490 0.4232
13.3400 8.8624 0.4231
13.3600 8.8757 0.4253
13.3800 8.8890 0.4227
13.4000 8.9024 0.4207
13.4200 8.9158 0.4237
13.4400 8.9291 0.4246
13.4600 8.9424 0.4254
13.4800 8.9558 0.4259
13.5000 8.9691 0.4243
13.5200 8.9824 0.4266
13.5400 8.9957 0.4274
13.5600 9.0090 0.4256
13.5800 9.0224 0.4272
13.6000 9.0357 0.4269
13.6200 9.0490 0.4271
13.6400 9.0623 0.4267
13.6600 9.0757 0.4288
13.6800 9.0890 0.4283
13.7000 9.1024 0.4284
13.7200 9.1157 0.4298
13.7400 9.1291 0.4286
13.7600 9.1425 0.4284
13.7800 9.1558 0.4295
13.8000 9.1691 0.4299
13.8200 9.1824 0.4283
13.8400 9.1958 0.4307
13.8600 9.2091 0.4288
13.8800 9.2224 0.4313
13.9000 9.2357 0.4320
13.9200 9.2490 0.4317
13.9400 9.2624 0.4309
13.9600 9.2757 0.4331
13.9800 9.2890 0.4322
14.0000 9.3023 0.4353
14.0200 9.3157 0.4333
14.0400 9.3290 0.4337
14.0600 9.3423 0.4322
14.0800 9.3557 0.4353
14.1000 9.3690 0.4329
14.1200 9.3824 0.4339
14.1400 9.3958 0.4355
14.1600 9.4091 0.4362
14.1800 9.4224 0.4336
14.2000 9.4357 0.4361
14.2200 9.4491 0.4368
14.2400 9.4624 0.4352
14.2600 9.4757 0.4383
14.2800 9.4890 0.4370
14.3000 9.5024 0.4358
14.3200 9.5157 0.4365
14.3400 9.5290 0.4376
14.3600 9.5423 0.4372
14.3800 9.5557 0.4396
14.4000 9.5690 0.4388
14.4200 9.5824 0.4376
14.4400 9.5957 0.4397
14.4600 9.6090 0.4395
14.4800 9.6224 0.4405
14.5000 9.6358 0.4409
14.5200 9.6491 0.4415
14.5400 9.6624 0.4397
14.5600 9.6757 0.4412
14.5800 9.6891 0.4409
14.6000 9.7024 0.4424
14.6200 9.7157 0.4408
14.6400 9.7291 0.4421
14.6600 9.7424 0.4414
14.6800 9.7557 0.4423
14.7000 9.7690 0.4430
14.7200 9.7824 0.4407
14.7400 9.7957 0.4428
14.7600 9.8090 0.4432
14.7800 9.8223 0.4419
14.8000 9.8357 0.4449
14.8200 9.8490 0.4454
14.8400 9.8624 0.4432
14.8600 9.8758 0.4470
14.8800 9.8891 0.4441
14.9000 9.9024 0.4451
14.9200 9.9157 0.4459
14.9400 9.9291 0.4456
14.9600 9.9424 0.4454
14.9800 9.9557 0.4458
15.0000 9.9691 0.4462
15.0200 9.9824 0.4469
15.0400 9.9957 0.4496
15.0600 10.0090 0.4481
15.0800 10.0223 0.4466
15.1000 10.0356 0.4496
15.1200 10.0490 0.4480
15.1400 10.0623 0.4471
15.1600 10.0757 0.4517
15.1800 10.0891 0.4500
15.2000 10.1024 0.4484
15.2200 10.1158 0.4497
15.2400 10.1291 0.4498
15.2600 10.1424 0.4494
15.2800 10.1558 0.4501
15.3000 10.1691 0.4509
15.3200 10.1825 0.4506
15.3400 10.1958 0.4532
15.3600 10.2091 0.4519
15.3800 10.2224 0.4506
15.4000 10.2357 0.4515
15.4200 10.2490 0.4531
15.4400 10.2623 0.4528
15.4600 10.2757 0.4544
15.4800 10.2890 0.4533
15.5000 10.3023 0.4523
15.5200 10.3157 0.4550
15.5400 10.3290 0.4538
15.5600 10.3424 0.4529
15.5800 10.3557 0.4532
15.6000 10.3691 0.4545
15.6200 10.3824 0.4528
15.6400 10.3958 0.4570
15.6600 10.4092 0.4551
15.6800 10.4225 0.4560
15.7000 10.4358 0.4552
15.7200 10.4490 0.4555
15.7400 10.4624 0.4562
15.7600 10.4757 0.4557
15.7800 10.4890 0.4587
15.8000 10.5023 0.4577
15.8200 10.5156 0.4590
15.8400 10.5290 0.4586
15.8600 10.5423 0.4576
15.8800 10.5557 0.4584
15.9000 10.5690 0.4609
15.9200 10.5824 0.4595
15.9400 10.5958 0.4598
15.9600 10.6091 0.4610
15.9800 10.6224 0.4591
16.0000 10.6357 0.4615
16.0200 10.6491 0.4613
16.0400 10.6624 0.4614
16.0600 10.6757 0.4633
16.0800 10.6890 0.4629
16.1000 10.7024 0.4609
16.1200 10.7157 0.4615
16.1400 10.7291 0.4625
16.1600 10.7424 0.4616
16.1800 10.7557 0.4638
16.2000 10.7690 0.4625
16.2200 10.7824 0.4630
16.2400 10.7957 0.4647
16.2600 10.8090 0.4658
16.2800 10.8224 0.4650
16.3000 10.8357 0.4656
16.3200 10.8491 0.4643
16.3400 10.8624 0.4652
16.3600 10.8758 0.4657
16.3800 10.8891 0.4670
16.4000 10.9024 0.4643
16.4200 10.9157 0.4677
16.4400 10.9290 0.4672
16.4600 10.9423 0.4666
16.4800 10.9557 0.4696
16.5000 10.9690 0.4689
16.5200 10.9823 0.4699
16.5400 10.9957 0.4692
16.5600 11.0090 0.4696
16.5800 11.0224 0.4672
16.6000 11.0357 0.4700
16.6200 11.0490 0.4679
16.6400 11.0624 0.4684
16.6600 11.0758 0.4690
16.6800 11.0891 0.4727
16.7000 11.1024 0.4696
16.7200 11.1157 0.4713
16.7400 11.1291 0.4682
16.7600 11.1424 0.4687
16.7800 11.1557 0.4707
16.8000 11.1691 0.4711
16.8200 11.1824 0.4696
16.8400 11.1957 0.4711
16.8600 11.2091 0.4708
16.8800 11.2223 0.4717
16.9000 11.2357 0.4733
16.9200 11.2490 0.4738
16.9400 11.2624 0.4720
16.9600 11.2757 0.4743
16.9800 11.2890 0.4754
17.0000 11.3024 0.4736
17.0200 11.3158 0.4756
17.0400 11.3291 0.4741
17.0600 11.3424 0.4745
17.0800 11.3558 0.4736
17.1000 11.3691 0.4749
17.1200 11.3825 0.4736
17.1400 11.3958 0.4751
17.1600 11.4091 0.4764
17.1800 11.4224 0.4761
17.2000 11.4357 0.4755
17.2200 11.4491 0.4779
17.2400 11.4623 0.4771
17.2600 11.4756 0.4786
17.2800 11.4890 0.4797
17.3000 11.5023 0.4780
17.3200 11.5157 0.4794
17.3400 11.5290 0.4789
17.3600 11.5424 0.4799
17.3800 11.5558 0.4796
17.4000 11.5691 0.4819
17.4200 11.5824 0.4817
17.4400 11.5958 0.4811
17.4600 11.6092 0.4815
17.4800 11.6225 0.4808
17.5000 11.6358 0.4811
17.5200 11.6490 0.4821
17.5400 11.6624 0.4816
17.5600 11.6757 0.4823
17.5800 11.6891 0.4839
17.6000 11.7024 0.4847
17.6200 11.7157 0.4831
17.6400 11.7290 0.4830
17.6600 11.7424 0.4827
17.6800 11.7557 0.4826
17.7000 11.7690 0.4852
17.7200 11.7824 0.4828
17.7400 11.7957 0.4834
17.7600 11.8091 0.4854
17.7800 11.8224 0.4843
17.8000 11.8358 0.4854
17.8200 11.8491 0.4850
17.8400 11.8625 0.4851
17.8600 11.8757 0.4852
17.8800 11.8890 0.4866
17.9000 11.9024 0.4865
17.9200 11.9157 0.4878
17.9400 11.9291 0.4880
17.9600 11.9423 0.4877
17.9800 11.9556 0.4868
18.0000 11.9690 0.4872
18.0200 11.9824 0.4860
18.0400 11.9957 0.4859
18.0600 12.0090 0.4895
18.0800 12.0224 0.4888
18.1000 12.0358 0.4890
18.1200 12.0491 0.4885
18.1400 12.0624 0.4857
18.1600 12.0758 0.4873
18.1800 12.0891 0.4889
18.2000 12.1024 0.4885
18.2200 12.1157 0.4890
18.2400 12.1290 0.4922
18.2600 12.1423 0.4913
18.2800 12.1557 0.4922
18.3000 12.1691 0.4923
18.3200 12.1824 0.4919
18.3400 12.1957 0.4936
18.3600 12.2090 0.4919
18.3800 12.2224 0.4936
18.4000 12.2357 0.4921
18.4200 12.2490 0.4935
18.4400 12.2624 0.4934
18.4600 12.2758 0.4929
18.4800 12.2891 0.4932
18.5000 12.3024 0.4928
18.5200 12.3158 0.4933
18.5400 12.3291 0.4962
18.5600 12.3425 0.4969
18.5800 12.3558 0.4960
18.6000 12.3691 0.4976
18.6200 12.3824 0.4960
18.6400 12.3957 0.4985
18.6600 12.4090 0.4960
18.6800 12.4223 0.4975
18.7000 12.4356 0.4965
18.7200 12.4489 0.4981
18.7400 12.4623 0.4979
18.7600 12.4757 0.4983
18.7800 12.4890 0.5002
18.8000 12.5024 0.4995
18.8200 12.5158 0.4995
18.8400 12.5291 0.5003
18.8600 12.5424 0.4997
18.8800 12.5557 0.4991
18.9000 12.5691 0.4995
18.9200 12.5824 0.4993
18.9400 12.5958 0.5003
18.9600 12.6090 0.5020
18.9800 12.6224 0.5015
19.0000 12.6357 0.5009
19.0200 12.6491 0.5022
19.0400 12.6624 0.5032
19.0600 12.6756 0.5002
19.0800 12.6890 0.5030
19.1000 12.7023 0.5013
19.1200 12.7157 0.5008
19.1400 12.7290 0.5032
19.1600 12.7424 0.5040
19.1800 12.7558 0.5037
19.2000 12.7691 0.5033
19.2200 12.7825 0.5041
19.2400 12.7958 0.5051
19.2600 12.8091 0.5075
19.2800 12.8225 0.5062
19.3000 12.8358 0.5063
19.3200 12.8491 0.5061
19.3400 12.8624 0.5064
19.3600 12.8757 0.5047
19.3800 12.8890 0.5063
19.4000 12.9023 0.5042
19.4200 12.9156 0.5076
19.4400 12.9290 0.5062
19.4600 12.9424 0.5097
19.4800 12.9557 0.5072
19.5000 12.9690 0.5089
19.5200 12.9824 0.5080
19.5400 12.9958 0.5074
19.5600 13.0091 0.5102
19.5800 13.0224 0.5089
19.6000 13.0357 0.5069
19.6200 13.0491 0.5097
19.6400 13.0624 0.5092
19.6600 13.0758 0.5108
19.6800 13.0890 0.5112
19.7000 13.1023 0.5114
19.7200 13.1157 0.5115
19.7400 13.1290 0.5124
19.7600 13.1423 0.5136
19.7800 13.1556 0.5121
19.8000 13.1690 0.5141
19.8200 13.1824 0.5126
19.8400 13.1957 0.5149
19.8600 13.2090 0.5143
19.8800 13.2224 0.5146
19.9000 13.2358 0.5101
19.9200 13.2491 0.5153
19.9400 13.2624 0.5120
19.9600 13.2757 0.5147
19.9800 13.2891 0.5146
20.0000 13.3025 0.5145
20.0200 13.3158 0.5143
20.0400 13.3291 0.5141
20.0600 13.3423 0.5160
20.0800 13.3557 0.5151
20.1000 13.3691 0.5161
20.1200 13.3824 0.5152
20.1400 13.3957 0.5148
20.1600 13.4090 0.5157
20.1800 13.4223 0.5174
20.2000 13.4357 0.5160
20.2200 13.4490 0.5191
20.2400 13.4624 0.5168
20.2600 13.4758 0.5177
20.2800 13.4891 0.5170
20.3000 13.5024 0.5181
20.3200 13.5157 0.5188
20.3400 13.5291 0.5198
20.3600 13.5425 0.5201
20.3800 13.5558 0.5201
20.4000 13.5690 0.5223
20.4200 13.5823 0.5202
20.4400 13.5957 0.5202
20.4600 13.6091 0.5217
20.4800 13.6224 0.5217
20.5000 13.6357 0.5219
20.5200 13.6490 0.5207
20.5400 13.6623 0.5233
20.5600 13.6757 0.5227
20.5800 13.6890 0.5235
20.6000 13.7024 0.5223
20.6200 13.7157 0.5224
20.6400 13.7291 0.5222
20.6600 13.7424 0.5256
20.6800 13.7557 0.5236
20.7000 13.7691 0.5249
20.7200 13.7825 0.5244
20.7400 13.7958 0.5261
20.7600 13.8091 0.5266
20.7800 13.8224 0.5265
20.8000 13.8357 0.5273
20.8200 13.8491 0.5256
20.8400 13.8624 0.5276
20.8600 13.8757 0.5279
20.8800 13.8890 0.5277
20.9000 13.9023 0.5285
20.9200 13.9157 0.5288
20.9400 13.9290 0.5276
20.9600 13.9424 0.5289
20.9800 13.9558 0.5293
21.0000 13.9691 0.5282
21.0200 13.9825 0.5298
21.0400 13.9958 0.5291
21.0600 14.0091 0.5301
21.0800 14.0225 0.5295
21.1000 14.0358 0.5284
21.1200 14.0490 0.5282
21.1400 14.0623 0.5307
21.1600 14.0757 0.5306
21.1800 14.0891 0.5317
21.2000 14.1024 0.5333
21.2200 14.1157 0.5321
21.2400 14.1290 0.5325
21.2600 14.1423 0.5306
21.2800 14.1557 0.5322
21.3000 14.1690 0.5334
21.3200 14.1823 0.5350
21.3400 14.1957 0.5325
21.3600 14.2091 0.5327
21.3800 14.2224 0.5340
21.4000 14.2357 0.5354
21.4200 14.2491 0.5340
21.4400 14.2625 0.5356
21.4600 14.2758 0.5324
21.4800 14.2891 0.5338
21.5000 14.3024 0.5338
21.5200 14.3157 0.5345
21.5400 14.3290 0.5352
21.5600 14.3423 0.5375
21.5800 14.3557 0.5375
21.6000 14.3690 0.5382
21.6200 14.3824 0.5371
21.6400 14.3957 0.5375
21.6600 14.4091 0.5367
21.6800 14.4224 0.5377
21.7000 14.4358 0.5369
21.7200 14.4491 0.5381
21.7400 14.4624 0.5385
21.7600 14.4757 0.5378
21.7800 14.4890 0.5397
21.8000 14.5024 0.5424
21.8200 14.5158 0.5397
21.8400 14.5291 0.5413
21.8600 14.5424 0.5427
21.8800 14.5557 0.5430
21.9000 14.5691 0.5405
21.9200 14.5824 0.5433
21.9400 14.5957 0.5422
21.9600 14.6090 0.5424
21.9800 14.6224 0.5428
22.0000 14.6357 0.5430
22.0200 14.6490 0.5431
22.0400 14.6624 0.5439
22.0600 14.6757 0.5423
22.0800 14.6891 0.5446
22.1000 14.7024 0.5453
22.1200 14.7157 0.5439
22.1400 14.7290 0.5434
22.1600 14.7424 0.5453
22.1800 14.7558 0.5465
22.2000 14.7691 0.5441
22.2200 14.7824 0.5465
22.2400 14.7957 0.5477
22.2600 14.8091 0.5482
22.2800 14.8224 0.5481
22.3000 14.8357 0.5468
22.3200 14.8490 0.5459
22.3400 14.8623 0.5475
22.3600 14.8757 0.5482
22.3800 14.8890 0.5489
22.4000 14.9024 0.5482
22.4200 14.9157 0.5493
22.4400 14.9291 0.5485
22.4600 14.9424 0.5527
22.4800 14.9557 0.5519
22.5000 14.9691 0.5518
22.5200 14.9824 0.5510
22.5400 14.9958 0.5513
22.5600 15.0091 0.5500
22.5800 15.0224 0.5528
22.6000 15.0357 0.5530
22.6200 15.0491 0.5508
22.6400 15.0624 0.5505
22.6600 15.0757 0.5538
22.6800 15.0890 0.5519
22.7000 15.1023 0.5523
22.7200 15.1156 0.5527
22.7400 15.1290 0.5531
22.7600 15.1423 0.5545
22.7800 15.1557 0.5544
22.8000 15.1691 0.5550
22.8200 15.1824 0.5564
22.8400 15.1958 0.5557
22.8600 15.2091 0.5552
22.8800 15.2225 0.5549
22.9000 15.2358 0.5555
22.9200 15.2491 0.5557
22.9400 15.2624 0.5556
22.9600 15.2757 0.5564
22.9800 15.2891 0.5549
23.0000 15.3024 0.5574
23.0200 15.3157 0.5584
23.0400 15.3290 0.5566
23.0600 15.3423 0.5595
23.0800 15.3557 0.5590
23.1000 15.3690 0.5574
23.1200 15.3823 0.5586
23.1400 15.3957 0.5593
23.1600 15.4091 0.5600
23.1800 15.4224 0.5594
23.2000 15.4358 0.5603
23.2200 15.4491 0.5607
23.2400 15.4624 0.5608
23.2600 15.4758 0.5616
23.2800 15.4891 0.5598
23.3000 15.5024 0.5630
23.3200 15.5157 0.5614
23.3400 15.5291 0.5615
23.3600 15.5424 0.5613
23.3800 15.5557 0.5618
23.4000 15.5690 0.5617
23.4200 15.5823 0.5603
23.4400 15.5957 0.5627
23.4600 15.6090 0.5634
23.4800 15.6224 0.5664
23.5000 15.6357 0.5655
23.5200 15.6491 0.5656
23.5400 15.6624 0.5645
23.5600 15.6757 0.5664
23.5800 15.6891 0.5651
23.6000 15.7024 0.5642
23.6200 15.7158 0.5658
23.6400 15.7291 0.5688
23.6600 15.7424 0.5673
23.6800 15.7557 0.5665
23.7000 15.7690 0.5669
23.7200 15.7824 0.5681
23.7400 15.7957 0.5694
23.7600 15.8090 0.5679
23.7800 15.8223 0.5690
23.8000 15.8357 0.5693
23.8200 15.8490 0.5683
23.8400 15.8623 0.5705
23.8600 15.8757 0.5705
23.8800 15.8891 0.5706
23.9000 15.9024 0.5711
23.9200 15.9157 0.5717
23.9400 15.9290 0.5701
23.9600 15.9424 0.5712
23.9800 15.9557 0.5710
24.0000 15.9691 0.5714
24.0200 15.9824 0.5723
24.0400 15.9957 0.5743
24.0600 16.0091 0.5717
24.0800 16.0224 0.5754
24.1000 16.0357 0.5732
24.1200 16.0490 0.5754
24.1400 16.0623 0.5750
24.1600 16.0757 0.5746
24.1800 16.0890 0.5744
24.2000 16.1023 0.5759
24.2200 16.1157 0.5745
24.2400 16.1291 0.5762
24.2600 16.1425 0.5748
24.2800 16.1558 0.5777
24.3000 16.1691 0.5758
24.3200 16.1824 0.5764
24.3400 16.1958 0.5770
24.3600 16.2091 0.5773
24.3800 16.2224 0.5791
24.4000 16.2357 0.5799
24.4200 16.2491 0.5761
24.4400 16.2624 0.5768
24.4600 16.2757 0.5789
24.4800 16.2890 0.5790
24.5000 16.3023 0.5807
24.5200 16.3157 0.5797
24.5400 16.3290 0.5801
24.5600 16.3423 0.5796
24.5800 16.3557 0.5802
24.6000 16.3691 0.5804
24.6200 16.3825 0.5803
24.6400 16.3958 0.5814
24.6600 16.4091 0.5834
24.6800 16.4225 0.5809
24.7000 16.4358 0.5810
24.7200 16.4491 0.5831
24.7400 16.4624 0.5823
24.7600 16.4757 0.5849
24.7800 16.4890 0.5838
24.8000 16.5024 0.5818
24.8200 16.5157 0.5833
24.8400 16.5290 0.5833
24.8600 16.5423 0.5848
24.8800 16.5557 0.5854
24.9000 16.5690 0.5827
24.9200 16.5823 0.5842
24.9400 16.5957 0.5854
24.9600 16.6091 0.5851
24.9800 16.6225 0.5852
25.0000 16.6358 0.5857
25.0200 16.6491 0.5872
25.0400 16.6624 0.5871
25.0600 16.6758 0.5882
25.0800 16.6891 0.5869
25.1000 16.7024 0.5876
25.1200 16.7157 0.5893
25.1400 16.7290 0.5895
25.1600 16.7424 0.5873
25.1800 16.7557 0.5909
25.2000 16.7690 0.5894
25.2200 16.7823 0.5895
25.2400 16.7957 0.5888
25.2600 16.8090 0.5915
25.2800 16.8224 0.5904
25.3000 16.8357 0.5918
25.3200 16.8491 0.5919
25.3400 16.8625 0.5922
25.3600 16.8758 0.5911
25.3800 16.8891 0.5914
25.4000 16.9024 0.5902
25.4200 16.9158 0.5928
25.4400 16.9291 0.5921
25.4600 16.9424 0.5937
25.4800 16.9557 0.5944
25.5000 16.9690 0.5950
25.5200 16.9824 0.5940
25.5400 16.9957 0.5953
25.5600 17.0090 0.5971
25.5800 17.0223 0.5955
25.6000 17.0357 0.5961
25.6200 17.0490 0.5971
25.6400 17.0623 0.5954
25.6600 17.0757 0.5974
25.6800 17.0891 0.5945
25.7000 17.1025 0.5951
25.7200 17.1158 0.5965
25.7400 17.1291 0.5987
25.7600 17.1424 0.5970
25.7800 17.1558 0.5982
25.8000 17.1691 0.5974
25.8200 17.1824 0.6001
25.8400 17.1957 0.6000
25.8600 17.2091 0.6011
25.8800 17.2224 0.6001
25.9000 17.2357 0.6002
25.9200 17.2490 0.6017
25.9400 17.2623 0.5990
25.9600 17.2756 0.6031
25.9800 17.2890 0.6013
26.0000 17.3024 0.6039
26.0200 17.3157 0.6036
26.0400 17.3291 0.6040
26.0600 17.3424 0.6017
26.0800 17.3558 0.6041
26.1000 17.3691 0.6034
26.1200 17.3824 0.6036
26.1400 17.3958 0.6028
26.1600 17.4091 0.6041
26.1800 17.4224 0.6033
26.2000 17.4357 0.6082
26.2200 17.4490 0.6071
26.2400 17.4624 0.6055
26.2600 17.4757 0.6045
26.2800 17.4890 0.6079
26.3000 17.5023 0.6058
26.3200 17.5157 0.6081
26.3400 17.5290 0.6073
26.3600 17.5423 0.6091
26.3800 17.5557 0.6076
26.4000 17.5690 0.6089
26.4200 17.5824 0.6072
26.4400 17.5958 0.6084
26.4600 17.6091 0.6082
26.4800 17.6224 0.6097
26.5000 17.6358 0.6108
26.5200 17.6491 0.6110
26.5400 17.6624 0.6102
26.5600 17.6757 0.6120
26.5800 17.6890 0.6124
26.6000 17.7024 0.6125
26.6200 17.7157 0.6122
26.6400 17.7290 0.6135
26.6600 17.7423 0.6102
26.6800 17.7557 0.6127
26.7000 17.7690 0.6124
26.7200 17.7824 0.6112
26.7400 17.7957 0.6141
26.7600 17.8091 0.6157
26.7800 17.8225 0.6126
26.8000 17.8358 0.6117
26.8200 17.8491 0.6148
26.8400 17.8624 0.6160
26.8600 17.8758 0.6164
26.8800 17.8891 0.6172
26.9000 17.9024 0.6164
26.9200 17.9157 0.6176
26.9400 17.9290 0.6191
26.9600 17.9424 0.6165
26.9800 17.9557 0.6195
27.0000 17.9690 0.6194
27.0200 17.9823 0.6189
27.0400 17.9957 0.6181
27.0600 18.0090 0.6188
27.0800 18.0224 0.6179
27.1000 18.0357 0.6192
27.1200 18.0491 0.6195
27.1400 18.0624 0.6191
27.1600 18.0758 0.6200
27.1800 18.0891 0.6217
27.2000 18.1024 0.6208
27.2200 18.1158 0.6211
27.2400 18.1291 0.6230
27.2600 18.1424 0.6204
27.2800 18.1557 0.6218
27.3000 18.1690 0.6251
27.3200 18.1824 0.6227
27.3400 18.1957 0.6229
27.3600 18.2090 0.6238
27.3800 18.2223 0.6220
27.4000 18.2357 0.6250
27.4200 18.2490 0.6256
27.4400 18.2624 0.6235
27.4600 18.2757 0.6272
27.4800 18.2891 0.6273
27.5000 18.3024 0.6251
27.5200 18.3158 0.6269
27.5400 18.3291 0.6285
27.5600 18.3424 0.6261
27.5800 18.3557 0.6264
27.6000 18.3691 0.6265
27.6200 18.3824 0.6268
27.6400 18.3957 0.6271
27.6600 18.4090 0.6300
27.6800 18.4224 0.6293
27.7000 18.4357 0.6312
27.7200 18.4490 0.6309
27.7400 18.4624 0.6306
27.7600 18.4757 0.6314
27.7800 18.4890 0.6328
27.8000 18.5024 0.6303
27.8200 18.5157 0.6328
27.8400 18.5290 0.6322
27.8600 18.5424 0.6321
27.8800 18.5558 0.6329
27.9000 18.5691 0.6342
27.9200 18.5824 0.6335
27.9400 18.5958 0.6348
27.9600 18.6091 0.6354
27.9800 18.6224 0.6350
28.0000 18.6357 0.6368
28.0200 18.6490 0.6378
28.0400 18.6624 0.6366
28.0600 18.6757 0.6374
28.0800 18.6890 0.6369
28.1000 18.7023 0.6333
28.1200 18.7156 0.6352
28.1400 18.7290 0.6359
28.1600 18.7423 0.6361
28.1800 18.7557 0.6367
28.2000 18.7691 0.6379
28.2200 18.7825 0.6370
28.2400 18.7958 0.6388
28.2600 18.8091 0.6399
28.2800 18.8224 0.6383
28.3000 18.8358 0.6389
28.3200 18.8491 0.6401
28.3400 18.8624 0.6372
28.3600 18.8757 0.6392
28.3800 18.8890 0.6420
28.4000 18.9024 0.6403
28.4200 18.9157 0.6394
28.4400 18.9290 0.6426
28.4600 18.9423 0.6435
28.4800 18.9556 0.6425
28.5000 18.9690 0.6435
28.5200 18.9823 0.6425
28.5400 18.9957 0.6425
28.5600 19.0090 0.6443
28.5800 19.0224 0.6437
28.6000 19.0358 0.6444
28.6200 19.0491 0.6468
28.6400 19.0624 0.6443
28.6600 19.0758 0.6444
28.6800 19.0891 0.6464
28.7000 19.1024 0.6462
28.7200 19.1157 0.6464
28.7400 19.1290 0.6469
28.7600 19.1424 0.6481
28.7800 19.1557 0.6470
28.8000 19.1690 0.6474
28.8200 19.1823 0.6468
28.8400 19.1956 0.6478
28.8600 19.2090 0.6514
28.8800 19.2224 0.6484
28.9000 19.2357 0.6499
28.9200 19.2490 0.6504
28.9400 19.2624 0.6498
28.9600 19.2758 0.6516
28.9800 19.2891 0.6528
29.0000 19.3024 0.6503
29.0200 19.3157 0.6504
29.0400 19.3291 0.6522
29.0600 19.3424 0.6517
29.0800 19.3558 0.6531
29.1000 19.3691 0.6533
29.1200 19.3824 0.6522
29.1400 19.3957 0.6537
29.1600 19.4090 0.6570
29.1800 19.4223 0.6530
29.2000 19.4357 0.6550
29.2200 19.4490 0.6549
29.2400 19.4624 0.6553
29.2600 19.4757 0.6556
29.2800 19.4890 0.6564
29.3000 19.5024 0.6556
29.3200 19.5157 0.6553
29.3400 19.5291 0.6564
29.3600 19.5424 0.6558
29.3800 19.5557 0.6574
29.4000 19.5691 0.6598
29.4200 19.5824 0.6582
29.4400 19.5957 0.6590
29.4600 19.6090 0.6606
29.4800 19.6224 0.6594
29.5000 19.6357 0.6593
29.5200 19.6490 0.6622
29.5400 19.6623 0.6587
29.5600 19.6756 0.6626
29.5800 19.6890 0.6629
29.6000 19.7023 0.6627
29.6200 19.7157 0.6619
29.6400 19.7290 0.6640
29.6600 19.7424 0.6616
29.6800 19.7558 0.6624
29.7000 19.7691 0.6635
29.7200 19.7824 0.6639
29.7400 19.7958 0.6655
29.7600 19.8091 0.6680
29.7800 19.8224 0.6658
29.8000 19.8357 0.6649
29.8200 19.8490 0.6683
29.8400 19.8624 0.6668
29.8600 19.8757 0.6667
29.8800 19.8890 0.6678
29.9000 19.9023 0.6672
29.9200 19.9157 0.6662
29.9400 19.9290 0.6704
29.9600 19.9424 0.6673
29.9800 19.9557 0.6702
30.0000 19.9690 0.6701
30.0200 19.9824 0.6703
30.0400 19.9958 0.6678
30.0600 20.0091 0.6709
30.0800 20.0224 0.6694
30.1000 20.0358 0.6715
30.1200 20.0491 0.6727
30.1400 20.0625 0.6709
30.1600 20.0758 0.6703
30.1800 20.0891 0.6731
30.2000 20.1024 0.6716
30.2200 20.1157 0.6713
30.2400 20.1290 0.6767
30.2600 20.1423 0.6754
30.2800 20.1556 0.6753
30.3000 20.1690 0.6764
30.3200 20.1824 0.6748
30.3400 20.1957 0.6755
30.3600 20.2090 0.6757
30.3800 20.2224 0.6776
30.4000 20.2358 0.6774
30.4200 20.2491 0.6780
30.4400 20.2624 0.6773
30.4600 20.2757 0.6777
30.4800 20.2891 0.6791
30.5000 20.3024 0.6782
30.5200 20.3157 0.6790
30.5400 20.3290 0.6805
30.5600 20.3424 0.6798
30.5800 20.3557 0.6793
30.6000 20.3690 0.6811
30.6200 20.3824 0.6817
30.6400 20.3957 0.6799
30.6600 20.4090 0.6815
30.6800 20.4224 0.6821
30.7000 20.4357 0.6819
30.7200 20.4490 0.6835
30.7400 20.4624 0.6829
30.7600 20.4757 0.6828
30.7800 20.4891 0.6845
30.8000 20.5024 0.6823
30.8200 20.5158 0.6842
30.8400 20.5291 0.6852
30.8600 20.5425 0.6847
30.8800 20.5558 0.6849
30.9000 20.5690 0.6863
30.9200 20.5823 0.6868
30.9400 20.5957 0.6867
30.9600 20.6090 0.6875
30.9800 20.6223 0.6850
31.0000 20.6356 0.6851
31.0200 20.6490 0.6868
31.0400 20.6624 0.6875
31.0600 20.6757 0.6876
31.0800 20.6890 0.6897
31.1000 20.7024 0.6889
31.1200 20.7158 0.6907
31.1400 20.7291 0.6913
31.1600 20.7424 0.6906
31.1800 20.7557 0.6898
31.2000 20.7691 0.6934
31.2200 20.7824 0.6906
31.2400 20.7957 0.6907
31.2600 20.8090 0.6926
31.2800 20.8224 0.6938
31.3000 20.8357 0.6935
31.3200 20.8491 0.6962
31.3400 20.8624 0.6939
31.3600 20.8757 0.6932
31.3800 20.8890 0.6958
31.4000 20.9023 0.6943
31.4200 20.9156 0.6940
31.4400 20.9290 0.6948
31.4600 20.9424 0.6960
31.4800 20.9558 0.6958
31.5000 20.9691 0.6962
31.5200 20.9824 0.6965
31.5400 20.9958 0.6988
31.5600 21.0091 0.6989
31.5800 21.0225 0.6998
31.6000 21.0358 0.6991
31.6200 21.0491 0.7005
31.6400 21.0624 0.7022
31.6600 21.0757 0.7006
31.6800 21.0890 0.7015
31.7000 21.1023 0.7007
31.7200 21.1156 0.7016
31.7400 21.1290 0.7017
31.7600 21.1423 0.7035
31.7800 21.1557 0.6997
31.8000 21.1690 0.7014
31.8200 21.1824 0.7017
31.8400 21.1958 0.7031
31.8600 21.2091 0.7055
31.8800 21.2224 0.7026
31.9000 21.2358 0.7035
31.9200 21.2491 0.7040
31.9400 21.2625 0.7061
31.9600 21.2758 0.7059
31.9800 21.2890 0.7046
32.0000 21.3024 0.7075
32.0200 21.3157 0.7055
32.0400 21.3290 0.7077
32.0600 21.3423 0.7079
32.0800 21.3557 0.7050
32.1000 21.3690 0.7080
32.1200 21.3824 0.7090
32.1400 21.3957 0.7079
32.1600 21.4090 0.7104
32.1800 21.4224 0.7102
32.2000 21.4358 0.7085
32.2200 21.4491 0.7115
32.2400 21.4625 0.7120
32.2600 21.4758 0.7106
32.2800 21.4891 0.7116
32.3000 21.5025 0.7136
32.3200 21.5158 0.7092
32.3400 21.5291 0.7144
32.3600 21.5424 0.7143
32.3800 21.5557 0.7140
32.4000 21.5690 0.7135
32.4200 21.5823 0.7138
32.4400 21.5956 0.7126
32.4600 21.6090 0.7144
32.4800 21.6223 0.7156
32.5000 21.6357 0.7132
32.5200 21.6490 0.7167
32.5400 21.6624 0.7172
32.5600 21.6758 0.7152
32.5800 21.6891 0.7160
32.6000 21.7024 0.7198
32.6200 21.7158 0.7174
32.6400 21.7291 0.7209
32.6600 21.7425 0.7188
32.6800 21.7558 0.7190
32.7000 21.7691 0.7216
32.7200 21.7824 0.7203
32.7400 21.7957 0.7189
32.7600 21.8090 0.7207
32.7800 21.8223 0.7224
32.8000 21.8357 0.7200
32.8200 21.8490 0.7262
32.8400 21.8624 0.7245
32.8600 21.8757 0.7223
32.8800 21.8890 0.7227
32.9000 21.9024 0.7249
32.9200 21.9157 0.7241
32.9400 21.9291 0.7273
32.9600 21.9424 0.7263
32.9800 21.9558 0.7243
33.0000 21.9691 0.7268
33.0200 21.9825 0.7279
33.0400 21.9958 0.7272
33.0600 22.0091 0.7279
33.0800 22.0224 0.7307
33.1000 22.0357 0.7276
33.1200 22.0491 0.7303
33.1400 22.0624 0.7304
33.1600 22.0756 0.7286
33.1800 22.0890 0.7289
33.2000 22.1023 0.7301
33.2200 22.1157 0.7284
33.2400 22.1290 0.7313
33.2600 22.1423 0.7327
33.2800 22.1557 0.7316
33.3000 22.1691 0.7314
33.3200 22.1824 0.7314
33.3400 22.1957 0.7309
33.3600 22.2091 0.7322
33.3800 22.2224 0.7335
33.4000 22.2358 0.7319
33.4200 22.2490 0.7344
33.4400 22.2624 0.7347
33.4600 22.2757 0.7337
33.4800 22.2891 0.7346
33.5000 22.3024 0.7382
33.5200 22.3157 0.7366
33.5400 22.3290 0.7392
33.5600 22.3423 0.7400
33.5800 22.3557 0.7381
33.6000 22.3690 0.7391
33.6200 22.3824 0.7407
33.6400 22.3957 0.7395
33.6600 22.4091 0.7398
33.6800 22.4224 0.7424
33.7000 22.4358 0.7390
33.7200 22.4491 0.7436
33.7400 22.4625 0.7423
33.7600 22.4758 0.7413
33.7800 22.4891 0.7416
33.8000 22.5024 0.7437
33.8200 22.5157 0.7417
33.8400 22.5290 0.7433
33.8600 22.5423 0.7451
33.8800 22.5556 0.7444
33.9000 22.5690 0.7450
33.9200 22.5824 0.7466
33.9400 22.5957 0.7436
33.9600 22.6091 0.7464
33.9800 22.6224 0.7485
34.0000 22.6358 0.7471
34.0200 22.6492 0.7489
34.0400 22.6625 0.7498
34.0600 22.6757 0.7484
34.0800 22.6891 0.7512
34.1000 22.7024 0.7497
34.1200 22.7158 0.7482
34.1400 22.7290 0.7477
34.1600 22.7424 0.7516
34.1800 22.7557 0.7488
34.2000 22.7690 0.7518
34.2200 22.7823 0.7556
34.2400 22.7956 0.7535
34.2600 22.8090 0.7519
34.2800 22.8223 0.7547
34.3000 22.8357 0.7526
34.3200 22.8490 0.7558
34.3400 22.8624 0.7539
34.3600 22.8757 0.7550
34.3800 22.8891 0.7545
34.4000 22.9024 0.7563
34.4200 22.9157 0.7558
34.4400 22.9291 0.7567
34.4600 22.9425 0.7597
34.4800 22.9558 0.7560
34.5000 22.9691 0.7591
34.5200 22.9824 0.7579
34.5400 22.9957 0.7580
34.5600 23.0090 0.7569
34.5800 23.0224 0.7619
34.6000 23.0357 0.7608
34.6200 23.0490 0.7615
34.6400 23.0623 0.7608
34.6600 23.0757 0.7613
34.6800 23.0890 0.7602
34.7000 23.1024 0.7625
34.7200 23.1157 0.7607
34.7400 23.1291 0.7633
34.7600 23.1424 0.7669
34.7800 23.1557 0.7637
34.8000 23.1691 0.7640
34.8200 23.1824 0.7659
34.8400 23.1958 0.7634
34.8600 23.2091 0.7673
34.8800 23.2224 0.7676
34.9000 23.2357 0.7667
34.9200 23.2491 0.7654
34.9400 23.2624 0.7689
34.9600 23.2757 0.7675
34.9800 23.2890 0.7694
35.0000 23.3023 0.7701
35.0200 23.3157 0.7699
35.0400 23.3290 0.7683
35.0600 23.3424 0.7708
35.0800 23.3557 0.7673
35.1000 23.3691 0.7705
35.1200 23.3824 0.7712
35.1400 23.3957 0.7741
35.1600 23.4091 0.7738
35.1800 23.4224 0.7762
35.2000 23.4358 0.7720
35.2200 23.4491 0.7728
35.2400 23.4624 0.7763
35.2600 23.4757 0.7748
35.2800 23.4890 0.7767
35.3000 23.5024 0.7756
35.3200 23.5157 0.7762
35.3400 23.5290 0.7755
35.3600 23.5423 0.7782
35.3800 23.5557 0.7753
35.4000 23.5690 0.7777
35.4200 23.5824 0.7792
35.4400 23.5957 0.7790
35.4600 23.6091 0.7797
35.4800 23.6224 0.7810
35.5000 23.6358 0.7815
35.5200 23.6491 0.7802
35.5400 23.6624 0.7820
35.5600 23.6758 0.7786
35.5800 23.6890 0.7814
35.6000 23.7023 0.7838
35.6200 23.7157 0.7842
35.6400 23.7291 0.7829
35.6600 23.7424 0.7845
35.6800 23.7557 0.7838
35.7000 23.7690 0.7829
35.7200 23.7823 0.7858
35.7400 23.7957 0.7858
35.7600 23.8090 0.7845
35.7800 23.8223 0.7872
35.8000 23.8357 0.7881
35.8200 23.8491 0.7865
35.8400 23.8624 0.7908
35.8600 23.8758 0.7873
35.8800 23.8891 0.7883
35.9000 23.9024 0.7876
35.9200 23.9158 0.7887
35.9400 23.9291 0.7876
35.9600 23.9424 0.7910
35.9800 23.9557 0.7910
36.0000 23.9690 0.7922
36.0200 23.9824 0.7926
36.0400 23.9957 0.7915
36.0600 24.0090 0.7916
36.0800 24.0223 0.7938
36.1000 24.0357 0.7904
36.1200 24.0490 0.7943
36.1400 24.0624 0.7956
36.1600 24.0757 0.7979
36.1800 24.0891 0.7938
36.2000 24.1024 0.7982
36.2200 24.1157 0.7952
36.2400 24.1291 0.7973
36.2600 24.1424 0.7977
36.2800 24.1558 0.7993
36.3000 24.1691 0.7972
36.3200 24.1824 0.7995
36.3400 24.1957 0.7983
36.3600 24.2091 0.7998
36.3800 24.2224 0.8001
36.4000 24.2357 0.8003
36.4200 24.2490 0.7997
36.4400 24.2624 0.8020
36.4600 24.2757 0.8015
36.4800 24.2890 0.8023
36.5000 24.3023 0.8025
36.5200 24.3157 0.8027
36.5400 24.3291 0.8015
36.5600 24.3424 0.8029
36.5800 24.3557 0.8051
36.6000 24.3690 0.8039
36.6200 24.3824 0.8089
36.6400 24.3958 0.8061
36.6600 24.4091 0.8072
36.6800 24.4224 0.8072
36.7000 24.4357 0.8088
36.7200 24.4491 0.8069
36.7400 24.4624 0.8093
36.7600 24.4757 0.8076
36.7800 24.4890 0.8082
36.8000 24.5023 0.8106
36.8200 24.5157 0.8112
36.8400 24.5290 0.8101
36.8600 24.5424 0.8137
36.8800 24.5557 0.8128
36.9000 24.5691 0.8116
36.9200 24.5824 0.8132
36.9400 24.5957 0.8136
36.9600 24.6091 0.8125
36.9800 24.6224 0.8144
37.0000 24.6358 0.8141
37.0200 24.6491 0.8162
37.0400 24.6624 0.8179
37.0600 24.6757 0.8169
37.0800 24.6891 0.8132
37.1000 24.7024 0.8171
37.1200 24.7157 0.8177
37.1400 24.7290 0.8197
37.1600 24.7423 0.8192
37.1800 24.7557 0.8198
37.2000 24.7690 0.8176
37.2200 24.7823 0.8216
37.2400 24.7957 0.8217
37.2600 24.8091 0.8240
37.2800 24.8224 0.8240
37.3000 24.8358 0.8243
37.3200 24.8491 0.8218
37.3400 24.8624 0.8245
37.3600 24.8758 0.8237
37.3800 24.8891 0.8236
37.4000 24.9024 0.8269
37.4200 24.9157 0.8265
37.4400 24.9291 0.8240
37.4600 24.9424 0.8252
37.4800 24.9557 0.8281
37.5000 24.9690 0.8265
37.5200 24.9823 0.8259
37.5400 24.9957 0.8269
37.5600 25.0090 0.8259
37.5800 25.0223 0.8297
37.6000 25.0357 0.8288
37.6200 25.0491 0.8284
37.6400 25.0624 0.8301
37.6600 25.0758 0.8326
37.6800 25.0891 0.8298
37.7000 25.1024 0.8342
37.7200 25.1158 0.8319
37.7400 25.1291 0.8330
37.7600 25.1424 0.8350
37.7800 25.1557 0.8353
37.8000 25.1691 0.8352
37.8200 25.1824 0.8342
37.8400 25.1957 0.8358
37.8600 25.2090 0.8356
37.8800 25.2223 0.8369
37.9000 25.2357 0.8375
37.9200 25.2490 0.8371
37.9400 25.2624 0.8385
37.9600 25.2757 0.8407
37.9800 25.2891 0.8391
38.0000 25.3024 0.8414
38.0200 25.3157 0.8429
38.0400 25.3291 0.8410
38.0600 25.3424 0.8425
38.0800 25.3558 0.8437
38.1000 25.3691 0.8434
38.1200 25.3824 0.8425
38.1400 25.3957 0.8443
38.1600 25.4090 0.8450
38.1800 25.4224 0.8469
38.2000 25.4357 0.8455
38.2200 25.4490 0.8437
38.2400 25.4623 0.8470
38.2600 25.4757 0.8466
38.2800 25.4890 0.8477
38.3000 25.5023 0.8482
38.3200 25.5157 0.8505
38.3400 25.5291 0.8482
38.3600 25.5424 0.8491
38.3800 25.5558 0.8514
38.4000 25.5691 0.8523
38.4200 25.5824 0.8518
38.4400 25.5958 0.8524
38.4600 25.6091 0.8505
38.4800 25.6224 0.8523
38.5000 25.6357 0.8538
38.5200 25.6491 0.8527
38.5400 25.6624 0.8547
38.5600 25.6757 0.8561
38.5800 25.6890 0.8557
38.6000 25.7023 0.8578
38.6200 25.7157 0.8565
38.6400 25.7290 0.8559
38.6600 25.7423 0.8557
38.6800 25.7557 0.8580
38.7000 25.7691 0.8544
38.7200 25.7825 0.8582
38.7400 25.7958 0.8595
38.7600 25.8091 0.8614
38.7800 25.8224 0.8599
38.8000 25.8358 0.8621
38.8200 25.8491 0.8585
38.8400 25.8624 0.8635
38.8600 25.8757 0.8633
38.8800 25.8890 0.8642
38.9000 25.9024 0.8639
38.9200 25.9157 0.8666
38.9400 25.9290 0.8657
38.9600 25.9423 0.8654
38.9800 25.9556 0.8667
39.0000 25.9690 0.8658
39.0200 25.9823 0.8672
39.0400 25.9957 0.8661
39.0600 26.0091 0.8657
39.0800 26.0225 0.8676
39.1000 26.0358 0.8697
39.1200 26.0491 0.8686
39.1400 26.0624 0.8703
39.1600 26.0758 0.8700
39.1800 26.0891 0.8711
39.2000 26.1024 0.8737
39.2200 26.1157 0.8752
39.2400 26.1290 0.8730
39.2600 26.1424 0.8734
39.2800 26.1557 0.8735
39.3000 26.1690 0.8734
39.3200 26.1823 0.8779
39.3400 26.1957 0.8773
39.3600 26.2090 0.8767
39.3800 26.2224 0.8771
39.4000 26.2357 0.8780
39.4200 26.2491 0.8764
39.4400 26.2625 0.8769
39.4600 26.2758 0.8795
39.4800 26.2891 0.8788
39.5000 26.3024 0.8815
39.5200 26.3158 0.8803
39.5400 26.3291 0.8806
39.5600 26.3424 0.8818
39.5800 26.3557 0.8846
39.6000 26.3690 0.8828
39.6200 26.3824 0.8837
39.6400 26.3957 0.8836
39.6600 26.4090 0.8880
39.6800 26.4223 0.8865
39.7000 26.4356 0.8880
39.7200 26.4490 0.8853
39.7400 26.4624 0.8880
39.7600 26.4757 0.8885
39.7800 26.4891 0.8902
39.8000 26.5025 0.8892
39.8200 26.5158 0.8906
39.8400 26.5291 0.8886
39.8600 26.5424 0.8902
39.8800 26.5558 0.8898
39.9000 26.5691 0.8916
39.9200 26.5824 0.8921
39.9400 26.5957 0.8929
39.9600 26.6090 0.8930
39.9800 26.6224 0.8929
40.0000 26.6357 0.8941
40.0200 26.6490 0.8942
40.0400 26.6623 0.8945
40.0600 26.6757 0.8970
40.0800 26.6890 0.8952
40.1000 26.7023 0.8976
40.1200 26.7157 0.8981
40.1400 26.7291 0.8990
40.1600 26.7424 0.8967
40.1800 26.7558 0.8995
40.2000 26.7691 0.8986
40.2200 26.7824 0.9016
40.2400 26.7958 0.9004
40.2600 26.8092 0.9029
40.2800 26.8225 0.9011
40.3000 26.8357 0.9021
40.3200 26.8491 0.9019
40.3400 26.8624 0.9032
40.3600 26.8757 0.9064
40.3800 26.8890 0.9039
40.4000 26.9023 0.9061
40.4200 26.9156 0.9074
40.4400 26.9290 0.9083
40.4600 26.9424 0.9074
40.4800 26.9557 0.9087
40.5000 26.9691 0.9085
40.5200 26.9824 0.9089
40.5400 26.9958 0.9080
40.5600 27.0091 0.9092
40.5800 27.0224 0.9109
40.6000 27.0358 0.9132
40.6200 27.0491 0.9122
40.6400 27.0624 0.9159
40.6600 27.0757 0.9154
40.6800 27.0890 0.9168
40.7000 27.1024 0.9157
40.7200 27.1157 0.9148
40.7400 27.1290 0.9160
40.7600 27.1423 0.9159
40.7800 27.1557 0.9164
40.8000 27.1690 0.9167
40.8200 27.1823 0.9167
40.8400 27.1957 0.9184
40.8600 27.2090 0.9181
40.8800 27.2224 0.9184
40.9000 27.2358 0.9197
40.9200 27.2491 0.9212
40.9400 27.2624 0.9224
40.9600 27.2758 0.9235
40.9800 27.2891 0.9232
41.0000 27.3024 0.9246
41.0200 27.3157 0.9257
41.0400 27.3290 0.9250
41.0600 27.3424 0.9238
41.0800 27.3557 0.9237
41.1000 27.3690 0.9269
41.1200 27.3823 0.9259
41.1400 27.3957 0.9272
41.1600 27.4090 0.9283
41.1800 27.4224 0.9288
41.2000 27.4357 0.9284
41.2200 27.4490 0.9292
41.2400 27.4624 0.9307
41.2600 27.4758 0.9327
41.2800 27.4891 0.9333
41.3000 27.5024 0.9334
41.3200 27.5158 0.9331
41.3400 27.5291 0.9334
41.3600 27.5424 0.9343
41.3800 27.5557 0.9350
41.4000 27.5690 0.9340
41.4200 27.5823 0.9340
41.4400 27.5957 0.9377
41.4600 27.6090 0.9381
41.4800 27.6223 0.9368
41.5000 27.6357 0.9379
41.5200 27.6490 0.9375
41.5400 27.6624 0.9405
41.5600 27.6757 0.9401
41.5800 27.6891 0.9418
41.6000 27.7024 0.9407
41.6200 27.7158 0.9437
41.6400 27.7291 0.9428
41.6600 27.7424 0.9434
41.6800 27.7558 0.9440
41.7000 27.7691 0.9444
41.7200 27.7825 0.9445
41.7400 27.7957 0.9460
41.7600 27.8090 0.9463
41.7800 27.8224 0.9461
41.8000 27.8357 0.9480
41.8200 27.8490 0.9484
41.8400 27.8623 0.9500
41.8600 27.8757 0.9484
41.8800 27.8890 0.9507
41.9000 27.9024 0.9509
41.9200 27.9157 0.9530
41.9400 27.9291 0.9536
41.9600 27.9424 0.9532
41.9800 27.9558 0.9550
42.0000 27.9691 0.9537
42.0200 27.9824 0.9563
42.0400 27.9957 0.9552
42.0600 28.0091 0.9567
42.0800 28.0224 0.9560
42.1000 28.0357 0.9564
42.1200 28.0490 0.9590
42.1400 28.0624 0.9593
42.1600 28.0757 0.9588
42.1800 28.0890 0.9605
42.2000 28.1023 0.9600
42.2200 28.1157 0.9599
42.2400 28.1290 0.9622
42.2600 28.1424 0.9625
42.2800 28.1557 0.9629
42.3000 28.1690 0.9638
42.3200 28.1824 0.9665
42.3400 28.1957 0.9644
42.3600 28.2091 0.9657
42.3800 28.2224 0.9670
42.4000 28.2357 0.9670
42.4200 28.2491 0.9690
42.4400 28.2625 0.9689
42.4600 28.2758 0.9703
42.4800 28.2891 0.9721
42.5000 28.3024 0.9715
42.5200 28.3157 0.9701
42.5400 28.3290 0.9727
42.5600 28.3423 0.9730
42.5800 28.3556 0.9717
42.6000 28.3690 0.9738
42.6200 28.3824 0.9762
42.6400 28.3957 0.9751
42.6600 28.4091 0.9782
42.6800 28.4225 0.9763
42.7000 28.4358 0.9767
42.7200 28.4491 0.9798
42.7400 28.4624 0.9798
42.7600 28.4758 0.9794
42.7800 28.4891 0.9806
42.8000 28.5024 0.9815
42.8200 28.5157 0.9820
42.8400 28.5290 0.9848
42.8600 28.5424 0.9853
42.8800 28.5557 0.9820
42.9000 28.5690 0.9845
42.9200 28.5823 0.9854
42.9400 28.5956 0.9856
42.9600 28.6090 0.9874
42.9800 28.6223 0.9856
43.0000 28.6357 0.9866
43.0200 28.6490 0.9881
43.0400 28.6624 0.9874
43.0600 28.6758 0.9866
43.0800 28.6891 0.9898
43.1000 28.7024 0.9892
43.1200 28.7158 0.9920
43.1400 28.7291 0.9923
43.1600 28.7424 0.9934
43.1800 28.7557 0.9936
43.2000 28.7690 0.9952
43.2200 28.7823 0.9955
43.2400 28.7957 0.9941
43.2600 28.8090 0.9954
43.2800 28.8223 0.9959
43.3000 28.8356 0.9993
43.3200 28.8490 0.9996
43.3400 28.8624 0.9998
43.3600 28.8757 0.9993
43.3800 28.8891 1.0000
43.4000 28.9024 1.0001
43.4200 28.9158 0.9990
43.4400 28.9291 1.0024
43.4600 28.9424 1.0034
43.4800 28.9557 1.0054
43.5000 28.9691 1.0056
43.5200 28.9825 1.0064
43.5400 28.9958 1.0059
43.5600 29.0091 1.0075
43.5800 29.0224 1.0053
43.6000 29.0358 1.0078
43.6200 29.0491 1.0067
43.6400 29.0623 1.0085
43.6600 29.0757 1.0091
43.6800 29.0890 1.0131
43.7000 29.1024 1.0115
43.7200 29.1157 1.0120
43.7400 29.1290 1.0124
43.7600 29.1424 1.0138
43.7800 29.1558 1.0125
43.8000 29.1691 1.0150
43.8200 29.1824 1.0149
43.8400 29.1957 1.0131
43.8600 29.2091 1.0167
43.8800 29.2224 1.0171
43.9000 29.2357 1.0209
43.9200 29.2491 1.0192
43.9400 29.2624 1.0202
43.9600 29.2758 1.0190
43.9800 29.2891 1.0234
44.0000 29.3023 1.0226
44.0200 29.3157 1.0235
44.0400 29.3290 1.0251
44.0600 29.3423 1.0272
44.0800 29.3557 1.0270
44.1000 29.3690 1.0263
44.1200 29.3824 1.0274
44.1400 29.3957 1.0260
44.1600 29.4091 1.0276
44.1800 29.4224 1.0267
44.2000 29.4358 1.0283
44.2200 29.4491 1.0298
44.2400 29.4625 1.0326
44.2600 29.4758 1.0329
44.2800 29.4890 1.0335
44.3000 29.5024 1.0339
44.3200 29.5157 1.0339
44.3400 29.5290 1.0354
44.3600 29.5423 1.0375
44.3800 29.5556 1.0391
44.4000 29.5690 1.0381
44.4200 29.5823 1.0381
44.4400 29.5957 1.0377
44.4600 29.6090 1.0400
44.4800 29.6224 1.0399
44.5000 29.6358 1.0402
44.5200 29.6491 1.0424
44.5400 29.6624 1.0435
44.5600 29.6758 1.0424
44.5800 29.6891 1.0434
44.6000 29.7025 1.0442
44.6200 29.7158 1.0454
44.6400 29.7291 1.0473
44.6600 29.7424 1.0461
44.6800 29.7557 1.0475
44.7000 29.7691 1.0486
44.7200 29.7824 1.0509
44.7400 29.7957 1.0496
44.7600 29.8090 1.0498
44.7800 29.8223 1.0507
44.8000 29.8357 1.0521
44.8200 29.8490 1.0537
44.8400 29.8624 1.0560
44.8600 29.8758 1.0544
44.8800 29.8891 1.0543
44.9000 29.9024 1.0555
44.9200 29.9157 1.0584
44.9400 29.9291 1.0591
44.9600 29.9425 1.0600
44.9800 29.9558 1.0594
45.0000 29.9691 1.0602
45.0200 29.9824 1.0603
45.0400 29.9957 1.0612
45.0600 30.0091 1.0615
45.0800 30.0224 1.0650
45.1000 30.0357 1.0634
45.1200 30.0490 1.0654
45.1400 30.0624 1.0658
45.1600 30.0757 1.0663
45.1800 30.0890 1.0650
45.2000 30.1024 1.0673
45.2200 30.1157 1.0674
45.2400 30.1291 1.0676
45.2600 30.1424 1.0685
45.2800 30.1557 1.0708
45.3000 30.1691 1.0725
45.3200 30.1824 1.0720
45.3400 30.1958 1.0740
45.3600 30.2090 1.0738
45.3800 30.2224 1.0747
45.4000 30.2357 1.0748
45.4200 30.2490 1.0759
45.4400 30.2623 1.0767
45.4600 30.2756 1.0788
45.4800 30.2890 1.0781
45.5000 30.3023 1.0789
45.5200 30.3157 1.0799
45.5400 30.3290 1.0791
45.5600 30.3424 1.0827
45.5800 30.3558 1.0815
45.6000 30.3691 1.0825
45.6200 30.3824 1.0862
45.6400 30.3957 1.0869
45.6600 30.4091 1.0866
45.6800 30.4224 1.0864
45.7000 30.4358 1.0860
45.7200 30.4491 1.0889
45.7400 30.4624 1.0894
45.7600 30.4757 1.0898
45.7800 30.4891 1.0906
45.8000 30.5024 1.0930
45.8200 30.5157 1.0931
45.8400 30.5290 1.0948
45.8600 30.5423 1.0957
45.8800 30.5557 1.0952
45.9000 30.5690 1.0956
45.9200 30.5824 1.0951
45.9400 30.5958 1.0956
45.9600 30.6091 1.0974
45.9800 30.6224 1.0999
46.0000 30.6358 1.0999
46.0200 30.6491 1.1016
46.0400 30.6625 1.1021
46.0600 30.6758 1.1018
46.0800 30.6891 1.1029
46.1000 30.7024 1.1043
46.1200 30.7157 1.1044
46.1400 30.7290 1.1039
46.1600 30.7423 1.1057
46.1800 30.7556 1.1054
46.2000 30.7690 1.1072
46.2200 30.7823 1.1085
46.2400 30.7957 1.1106
46.2600 30.8090 1.1120
46.2800 30.8224 1.1112
46.3000 30.8358 1.1117
46.3200 30.8491 1.1101
46.3400 30.8624 1.1122
46.3600 30.8758 1.1134
46.3800 30.8891 1.1144
46.4000 30.9025 1.1172
46.4200 30.9158 1.1159
46.4400 30.9290 1.1182
46.4600 30.9424 1.1206
46.4800 30.9557 1.1192
46.5000 30.9691 1.1184
46.5200 30.9824 1.1207
46.5400 30.9957 1.1212
46.5600 31.0090 1.1212
46.5800 31.0223 1.1243
46.6000 31.0357 1.1240
46.6200 31.0490 1.1260
46.6400 31.0624 1.1277
46.6600 31.0758 1.1269
46.6800 31.0891 1.1259
46.7000 31.1024 1.1283
46.7200 31.1157 1.1271
46.7400 31.1291 1.1307
46.7600 31.1425 1.1291
46.7800 31.1558 1.1323
46.8000 31.1691 1.1329
46.8200 31.1823 1.1344
46.8400 31.1957 1.1357
46.8600 31.2090 1.1364
46.8800 31.2223 1.1370
46.9000 31.2356 1.1376
46.9200 31.2490 1.1362
46.9400 31.2623 1.1402
46.9600 31.2757 1.1405
46.9800 31.2890 1.1391
47.0000 31.3024 1.1431
47.0200 31.3158 1.1420
47.0400 31.3292 1.1430
47.0600 31.3425 1.1441
47.0800 31.3558 1.1455
47.1000 31.3691 1.1464
47.1200 31.3825 1.1481
47.1400 31.3958 1.1485
47.1600 31.4091 1.1466
47.1800 31.4223 1.1516
47.2000 31.4357 1.1489
47.2200 31.4490 1.1517
47.2400 31.4624 1.1515
47.2600 31.4757 1.1534
47.2800 31.4890 1.1531
47.3000 31.5023 1.1567
47.3200 31.5157 1.1544
47.3400 31.5290 1.1562
47.3600 31.5424 1.1578
47.3800 31.5557 1.1587
47.4000 31.5691 1.1603
47.4200 31.5825 1.1598
47.4400 31.5958 1.1628
47.4600 31.6091 1.1598
47.4800 31.6225 1.1638
47.5000 31.6358 1.1634
47.5200 31.6491 1.1646
47.5400 31.6624 1.1666
47.5600 31.6757 1.1680
47.5800 31.6891 1.1672
47.6000 31.7024 1.1680
47.6200 31.7157 1.1700
47.6400 31.7290 1.1689
47.6600 31.7423 1.1730
47.6800 31.7557 1.1733
47.7000 31.7690 1.1722
47.7200 31.7824 1.1741
47.7400 31.7958 1.1743
47.7600 31.8091 1.1744
47.7800 31.8224 1.1786
47.8000 31.8357 1.1798
47.8200 31.8491 1.1797
47.8400 31.8624 1.1812
47.8600 31.8758 1.1787
47.8800 31.8891 1.1793
47.9000 31.9024 1.1817
47.9200 31.9157 1.1846
47.9400 31.9291 1.1843
47.9600 31.9424 1.1869
47.9800 31.9557 1.1866
48.0000 31.9690 1.1863
48.0200 31.9823 1.1887
48.0400 31.9956 1.1889
48.0600 32.0089 1.1883
48.0800 32.0223 1.1925
48.1000 32.0357 1.1918
48.1200 32.0491 1.1920
48.1400 32.0625 1.1941
48.1600 32.0758 1.1946
48.1800 32.0891 1.1944
48.2000 32.1024 1.1983
48.2200 32.1158 1.1970
48.2400 32.1291 1.1965
48.2600 32.1424 1.2013
48.2800 32.1557 1.1996
48.3000 32.1691 1.1997
48.3200 32.1824 1.2034
48.3400 32.1957 1.2028
48.3600 32.2090 1.2045
48.3800 32.2224 1.2069
48.4000 32.2357 1.2073
48.4200 32.2490 1.2055
48.4400 32.2623 1.2089
48.4600 32.2757 1.2103
48.4800 32.2891 1.2094
48.5000 32.3025 1.2114
48.5200 32.3158 1.2132
48.5400 32.3291 1.2133
48.5600 32.3425 1.2156
48.5800 32.3558 1.2156
48.6000 32.3691 1.2154
48.6200 32.3823 1.2190
48.6400 32.3957 1.2190
48.6600 32.4090 1.2198
48.6800 32.4224 1.2216
48.7000 32.4357 1.2235
48.7200 32.4490 1.2214
48.7400 32.4624 1.2238
48.7600 32.4757 1.2242
48.7800 32.4890 1.2235
48.8000 32.5024 1.2272
48.8200 32.5158 1.2272
48.8400 32.5291 1.2268
48.8600 32.5424 1.2314
48.8800 32.5557 1.2311
48.9000 32.5691 1.2311
48.9200 32.5824 1.2317
48.9400 32.5958 1.2334
48.9600 32.6091 1.2326
48.9800 32.6224 1.2348
49.0000 32.6357 1.2365
49.0200 32.6491 1.2379
49.0400 32.6624 1.2394
49.0600 32.6757 1.2390
49.0800 32.6890 1.2395
49.1000 32.7023 1.2412
49.1200 32.7157 1.2407
49.1400 32.7290 1.2418
49.1600 32.7424 1.2437
49.1800 32.7557 1.2456
49.2000 32.7691 1.2461
49.2200 32.7824 1.2465
49.2400 32.7957 1.2482
49.2600 32.8091 1.2480
49.2800 32.8224 1.2514
49.3000 32.8357 1.2525
49.3200 32.8491 1.2536
49.3400 32.8624 1.2540
49.3600 32.8757 1.2552
49.3800 32.8891 1.2539
49.4000 32.9024 1.2564
49.4200 32.9157 1.2584
49.4400 32.9290 1.2601
49.4600 32.9423 1.2608
49.4800 32.9557 1.2617
49.5000 32.9690 1.2619
49.5200 32.9824 1.2642
49.5400 32.9957 1.2664
49.5600 33.0091 1.2652
49.5800 33.0224 1.2687
49.6000 33.0357 1.2691
49.6200 33.0491 1.2696
49.6400 33.0624 1.2707
49.6600 33.0758 1.2715
49.6800 33.0891 1.2710
49.7000 33.1024 1.2745
49.7200 33.1157 1.2751
49.7400 33.1291 1.2750
49.7600 33.1424 1.2754
49.7800 33.1557 1.2787
49.8000 33.1690 1.2789
49.8200 33.1823 1.2801
49.8400 33.1957 1.2790
49.8600 33.2090 1.2783
49.8800 33.2224 1.2822
49.9000 33.2357 1.2845
49.9200 33.2491 1.2846
49.9400 33.2625 1.2870
49.9600 33.2758 1.2876
49.9800 33.2891 1.2894
50.0000 33.3024 1.2914
50.0200 33.3158 1.2905
50.0400 33.3291 1.2903
50.0600 33.3424 1.2918
50.0800 33.3557 1.2932
50.1000 33.3691 1.2941
50.1200 33.3824 1.2963
50.1400 33.3957 1.2981
50.1600 33.4090 1.2983
50.1800 33.4223 1.2994
50.2000 33.4357 1.3021
50.2200 33.4490 1.3013
50.2400 33.4623 1.3016
50.2600 33.4757 1.3045
50.2800 33.4891 1.3060
50.3000 33.5024 1.3068
50.3200 33.5158 1.3088
50.3400 33.5291 1.3073
50.3600 33.5424 1.3090
50.3800 33.5558 1.3127
50.4000 33.5691 1.3116
50.4200 33.5824 1.3123
50.4400 33.5957 1.3148
50.4600 33.6090 1.3136
50.4800 33.6224 1.3171
50.5000 33.6357 1.3175
50.5200 33.6490 1.3185
50.5400 33.6623 1.3180
50.5600 33.6757 1.3198
50.5800 33.6890 1.3189
50.6000 33.7024 1.3206
50.6200 33.7157 1.3241
50.6400 33.7291 1.3247
50.6600 33.7424 1.3251
50.6800 33.7558 1.3285
50.7000 33.7691 1.3278
50.7200 33.7824 1.3301
50.7400 33.7958 1.3308
50.7600 33.8091 1.3325
50.7800 33.8224 1.3334
50.8000 33.8357 1.3358
50.8200 33.8491 1.3349
50.8400 33.8624 1.3369
50.8600 33.8757 1.3386
50.8800 33.8890 1.3375
50.9000 33.9024 1.3379
50.9200 33.9157 1.3427
50.9400 33.9290 1.3415
50.9600 33.9423 1.3435
50.9800 33.9557 1.3450
51.0000 33.9691 1.3450
51.0200 33.9824 1.3465
51.0400 33.9957 1.3484
51.0600 34.0090 1.3473
51.0800 34.0224 1.3516
51.1000 34.0358 1.3534
51.1200 34.0491 1.3529
51.1400 34.0624 1.3522
51.1600 34.0757 1.3578
51.1800 34.0891 1.3569
51.2000 34.1024 1.3590
51.2200 34.1157 1.3630
51.2400 34.1290 1.3611
51.2600 34.1423 1.3631
51.2800 34.1557 1.3644
51.3000 34.1690 1.3637
51.3200 34.1824 1.3657
51.3400 34.1957 1.3677
51.3600 34.2091 1.3701
51.3800 34.2225 1.3714
51.4000 34.2358 1.3723
51.4200 34.2491 1.3699
51.4400 34.2624 1.3703
51.4600 34.2758 1.3737
51.4800 34.2891 1.3738
51.5000 34.3024 1.3779
51.5200 34.3157 1.3784
51.5400 34.3291 1.3775
51.5600 34.3424 1.3803
51.5800 34.3557 1.3839
51.6000 34.3690 1.3824
51.6200 34.3823 1.3857
51.6400 34.3957 1.3852
51.6600 34.4090 1.3874
51.6800 34.4223 1.3856
51.7000 34.4357 1.3893
51.7200 34.4490 1.3885
51.7400 34.4624 1.3910
51.7600 34.4757 1.3935
51.7800 34.4891 1.3926
51.8000 34.5024 1.3946
51.8200 34.5158 1.3961
51.8400 34.5291 1.3965
51.8600 34.5424 1.3981
51.8800 34.5557 1.4006
51.9000 34.5691 1.4015
51.9200 34.5824 1.4018
51.9400 34.5957 1.4044
51.9600 34.6090 1.4042
51.9800 34.6223 1.4062
52.0000 34.6357 1.4086
52.0200 34.6490 1.4080
52.0400 34.6623 1.4113
52.0600 34.6757 1.4135
52.0800 34.6891 1.4119
52.1000 34.7024 1.4138
52.1200 34.7158 1.4152
52.1400 34.7291 1.4164
52.1600 34.7424 1.4170
52.1800 34.7558 1.4208
52.2000 34.7691 1.4189
52.2200 34.7824 1.4204
52.2400 34.7957 1.4241
52.2600 34.8091 1.4262
52.2800 34.8224 1.4251
52.3000 34.8358 1.4284
52.3200 34.8490 1.4280
52.3400 34.8623 1.4272
52.3600 34.8757 1.4311
52.3800 34.8890 1.4296
52.4000 34.9023 1.4328
52.4200 34.9157 1.4327
52.4400 34.9291 1.4340
52.4600 34.9424 1.4338
52.4800 34.9557 1.4407
52.5000 34.9691 1.4401
52.5200 34.9824 1.4421
52.5400 34.9958 1.4448
52.5600 35.0091 1.4433
52.5800 35.0224 1.4444
52.6000 35.0357 1.4487
52.6200 35.0490 1.4446
52.6400 35.0624 1.4469
52.6600 35.0757 1.4503
52.6800 35.0890 1.4520
52.7000 35.1023 1.4515
52.7200 35.1157 1.4544
52.7400 35.1290 1.4560
52.7600 35.1424 1.4568
52.7800 35.1557 1.4588
52.8000 35.1691 1.4589
52.8200 35.1824 1.4610
52.8400 35.1958 1.4637
52.8600 35.2091 1.4623
52.8800 35.2224 1.4655
52.9000 35.2357 1.4664
52.9200 35.2491 1.4663
52.9400 35.2624 1.4699
52.9600 35.2757 1.4722
52.9800 35.2891 1.4733
53.0000 35.3024 1.4744
53.0200 35.3157 1.4757
53.0400 35.3290 1.4767
53.0600 35.3423 1.4768
53.0800 35.3557 1.4819
53.1000 35.3690 1.4803
53.1200 35.3823 1.4834
53.1400 35.3957 1.4857
53.1600 35.4091 1.4856
53.1800 35.4225 1.4850
53.2000 35.4358 1.4891
53.2200 35.4491 1.4868
53.2400 35.4624 1.4888
53.2600 35.4758 1.4899
53.2800 35.4891 1.4919
53.3000 35.5024 1.4940
53.3200 35.5157 1.4977
53.3400 35.5290 1.5001
53.3600 35.5424 1.4985
53.3800 35.5557 1.5002
53.4000 35.5690 1.5001
53.4200 35.5823 1.5026
53.4400 35.5956 1.5048
53.4600 35.6090 1.5058
53.4800 35.6223 1.5069
53.5000 35.6357 1.5099
53.5200 35.6491 1.5098
53.5400 35.6624 1.5116
53.5600 35.6758 1.5136
53.5800 35.6891 1.5157
53.6000 35.7024 1.5168
53.6200 35.7158 1.5190
53.6400 35.7292 1.5181
53.6600 35.7424 1.5197
53.6800 35.7557 1.5238
53.7000 35.7690 1.5227
53.7200 35.7824 1.5242
53.7400 35.7957 1.5265
53.7600 35.8090 1.5276
53.7800 35.8223 1.5275
53.8000 35.8357 1.5297
53.8200 35.8490 1.5315
53.8400 35.8624 1.5320
53.8600 35.8757 1.5354
53.8800 35.8890 1.5347
53.9000 35.9024 1.5347
53.9200 35.9158 1.5375
53.9400 35.9291 1.5385
53.9600 35.9424 1.5385
53.9800 35.9558 1.5407
54.0000 35.9691 1.5427
54.0200 35.9824 1.5453
54.0400 35.9957 1.5467
54.0600 36.0090 1.5496
54.0800 36.0224 1.5484
54.1000 36.0357 1.5534
54.1200 36.0490 1.5553
54.1400 36.0623 1.5542
54.1600 36.0757 1.5554
54.1800 36.0890 1.5556
54.2000 36.1024 1.5577
54.2200 36.1157 1.5614
54.2400 36.1291 1.5611
54.2600 36.1425 1.5618
54.2800 36.1558 1.5657
54.3000 36.1691 1.5659
54.3200 36.1824 1.5659
54.3400 36.1958 1.5698
54.3600 36.2091 1.5706
54.3800 36.2224 1.5703
54.4000 36.2357 1.5731
54.4200 36.2490 1.5740
54.4400 36.2624 1.5757
54.4600 36.2757 1.5795
54.4800 36.2890 1.5806
54.5000 36.3023 1.5805
54.5200 36.3157 1.5846
54.5400 36.3290 1.5866
54.5600 36.3423 1.5869
54.5800 36.3557 1.5898
54.6000 36.3690 1.5884
54.6200 36.3824 1.5888
54.6400 36.3958 1.5920
54.6600 36.4091 1.5926
54.6800 36.4224 1.5932
54.7000 36.4358 1.5978
54.7200 36.4492 1.5975
54.7400 36.4625 1.5998
54.7600 36.4757 1.6029
54.7800 36.4891 1.6032
54.8000 36.5024 1.6044
54.8200 36.5157 1.6064
54.8400 36.5290 1.6078
54.8600 36.5423 1.6094
54.8800 36.5556 1.6112
54.9000 36.5690 1.6118
54.9200 36.5823 1.6111
54.9400 36.5957 1.6144
54.9600 36.6090 1.6174
54.9800 36.6224 1.6181
55.0000 36.6358 1.6201
55.0200 36.6491 1.6191
55.0400 36.6624 1.6203
55.0600 36.6758 1.6235
55.0800 36.6891 1.6260
55.1000 36.7024 1.6264
55.1200 36.7157 1.6306
55.1400 36.7291 1.6307
55.1600 36.7424 1.6309
55.1800 36.7557 1.6313
55.2000 36.7690 1.6339
55.2200 36.7823 1.6341
55.2400 36.7956 1.6376
55.2600 36.8090 1.6396
55.2800 36.8223 1.6398
55.3000 36.8357 1.6434
55.3200 36.8490 1.6440
55.3400 36.8624 1.6442
55.3600 36.8758 1.6493
55.3800 36.8891 1.6501
55.4000 36.9025 1.6515
55.4200 36.9158 1.6538
55.4400 36.9292 1.6553
55.4600 36.9425 1.6544
55.4800 36.9558 1.6583
55.5000 36.9691 1.6579
55.5200 36.9824 1.6581
55.5400 36.9957 1.6626
55.5600 37.0090 1.6634
55.5800 37.0223 1.6648
55.6000 37.0357 1.6668
55.6200 37.0490 1.6677
55.6400 37.0624 1.6697
55.6600 37.0757 1.6714
55.6800 37.0891 1.6741
55.7000 37.1024 1.6751
55.7200 37.1158 1.6758
55.7400 37.1291 1.6775
55.7600 37.1424 1.6766
55.7800 37.1557 1.6817
55.8000 37.1691 1.6815
55.8200 37.1824 1.6835
55.8400 37.1957 1.6856
55.8600 37.2090 1.6880
55.8800 37.2223 1.6879
55.9000 37.2357 1.6906
55.9200 37.2490 1.6913
55.9400 37.2623 1.6926
55.9600 37.2756 1.6969
55.9800 37.2890 1.6981
56.0000 37.3024 1.6980
56.0200 37.3157 1.7009
56.0400 37.3290 1.7024
56.0600 37.3424 1.7019
56.0800 37.3558 1.7033
56.1000 37.3691 1.7061
56.1200 37.3824 1.7079
56.1400 37.3958 1.7106
56.1600 37.4091 1.7101
56.1800 37.4224 1.7116
56.2000 37.4357 1.7120
56.2200 37.4490 1.7169
56.2400 37.4624 1.7164
56.2600 37.4757 1.7198
56.2800 37.4890 1.7232
56.3000 37.5023 1.7234
56.3200 37.5157 1.7258
56.3400 37.5290 1.7284
56.3600 37.5424 1.7289
56.3800 37.5557 1.7322
56.4000 37.5690 1.7334
56.4200 37.5824 1.7343
56.4400 37.5958 1.7341
56.4600 37.6091 1.7353
56.4800 37.6224 1.7377
56.5000 37.6357 1.7396
56.5200 37.6491 1.7428
56.5400 37.6625 1.7435
56.5600 37.6757 1.7464
56.5800 37.6890 1.7474
56.6000 37.7024 1.7471
56.6200 37.7157 1.7490
56.6400 37.7290 1.7526
56.6600 37.7423 1.7531
56.6800 37.7557 1.7567
56.7000 37.7690 1.7562
56.7200 37.7824 1.7584
56.7400 37.7957 1.7591
56.7600 37.8090 1.7630
56.7800 37.8224 1.7620
56.8000 37.8358 1.7634
56.8200 37.8491 1.7665
56.8400 37.8624 1.7671
56.8600 37.8757 1.7716
56.8800 37.8891 1.7733
56.9000 37.9025 1.7719
56.9200 37.9158 1.7750
56.9400 37.9290 1.7763
56.9600 37.9424 1.7793
56.9800 37.9557 1.7807
57.0000 37.9690 1.7832
57.0200 37.9823 1.7847
57.0400 37.9956 1.7860
57.0600 38.0090 1.7896
57.0800 38.0223 1.7891
57.1000 38.0357 1.7901
57.1200 38.0490 1.7935
57.1400 38.0624 1.7930
57.1600 38.0758 1.7956
57.1800 38.0891 1.7977
57.2000 38.1024 1.8002
57.2200 38.1158 1.8025
57.2400 38.1291 1.8046
57.2600 38.1424 1.8039
57.2800 38.1557 1.8074
57.3000 38.1690 1.8119
57.3200 38.1824 1.8105
57.3400 38.1957 1.8112
57.3600 38.2090 1.8153
57.3800 38.2223 1.8138
57.4000 38.2356 1.8173
57.4200 38.2490 1.8190
57.4400 38.2623 1.8190
57.4600 38.2757 1.8215
57.4800 38.2890 1.8242
57.5000 38.3024 1.8256
57.5200 38.3158 1.8272
57.5400 38.3291 1.8300
57.5600 38.3424 1.8310
57.5800 38.3557 1.8332
57.6000 38.3691 1.8355
57.6200 38.3825 1.8341
57.6400 38.3958 1.8364
57.6600 38.4090 1.8413
57.6800 38.4223 1.8411
57.7000 38.4357 1.8423
57.7200 38.4490 1.8458
57.7400 38.4623 1.8476
57.7600 38.4756 1.8482
57.7800 38.4890 1.8509
57.8000 38.5024 1.8528
57.8200 38.5157 1.8523
57.8400 38.5291 1.8549
57.8600 38.5424 1.8573
57.8800 38.5558 1.8592
57.9000 38.5691 1.8652
57.9200 38.5824 1.8629
57.9400 38.5957 1.8643
57.9600 38.6091 1.8671
57.9800 38.6224 1.8687
58.0000 38.6358 1.8709
58.0200 38.6491 1.8736
58.0400 38.6624 1.8727
58.0600 38.6757 1.8732
58.0800 38.6891 1.8750
58.1000 38.7024 1.8771
58.1200 38.7157 1.8796
58.1400 38.7290 1.8826
58.1600 38.7424 1.8828
58.1800 38.7557 1.8850
58.2000 38.7690 1.8872
58.2200 38.7824 1.8886
58.2400 38.7958 1.8896
58.2600 38.8091 1.8912
58.2800 38.8224 1.8945
58.3000 38.8357 1.8963
58.3200 38.8491 1.8984
58.3400 38.8624 1.9005
58.3600 38.8757 1.9005
58.3800 38.8890 1.9040
58.4000 38.9024 1.9058
58.4200 38.9157 1.9068
58.4400 38.9291 1.9086
58.4600 38.9424 1.9085
58.4800 38.9557 1.9103
58.5000 38.9690 1.9131
58.5200 38.9823 1.9131
58.5400 38.9957 1.9152
58.5600 39.0090 1.9190
58.5800 39.0224 1.9199
58.6000 39.0358 1.9223
58.6200 39.0491 1.9245
58.6400 39.0624 1.9262
58.6600 39.0758 1.9278
58.6800 39.0891 1.9311
58.7000 39.1025 1.9313
58.7200 39.1158 1.9331
58.7400 39.1290 1.9355
58.7600 39.1424 1.9359
58.7800 39.1557 1.9386
58.8000 39.1690 1.9402
58.8200 39.1823 1.9429
58.8400 39.1956 1.9435
58.8600 39.2090 1.9467
58.8800 39.2223 1.9466
58.9000 39.2357 1.9494
58.9200 39.2490 1.9501
58.9400 39.2624 1.9528
58.9600 39.2757 1.9536
58.9800 39.2891 1.9573
59.0000 39.3024 1.9573
59.0200 39.3158 1.9611
59.0400 39.3291 1.9616
59.0600 39.3425 1.9638
59.0800 39.3558 1.9641
59.1000 39.3691 1.9685
59.1200 39.3824 1.9694
59.1400 39.3957 1.9718
59.1600 39.4090 1.9725
59.1800 39.4223 1.9741
59.2000 39.4356 1.9744
59.2200 39.4490 1.9794
59.2400 39.4623 1.9810
59.2600 39.4757 1.9813
59.2800 39.4890 1.9849
59.3000 39.5024 1.9838
59.3200 39.5158 1.9871
59.3400 39.5291 1.9878
59.3600 39.5424 1.9901
59.3800 39.5558 1.9918
59.4000 39.5691 1.9948
59.4200 39.5825 1.9960
59.4400 39.5958 1.9974
59.4600 39.6091 2.0008
59.4800 39.6224 2.0014
59.5000 39.6357 2.0016
59.5200 39.6491 2.0063
59.5400 39.6624 2.0075
59.5600 39.6757 2.0088
59.5800 39.6890 2.0112
59.6000 39.7024 2.0110
59.6200 39.7157 2.0136
59.6400 39.7290 2.0147
59.6600 39.7424 2.0173
59.6800 39.7557 2.0198
59.7000 39.7691 2.0222
59.7200 39.7824 2.0243
59.7400 39.7957 2.0245
59.7600 39.8091 2.0263
59.7800 39.8224 2.0280
59.8000 39.8358 2.0331
59.8200 39.8491 2.0349
59.8400 39.8624 2.0355
59.8600 39.8757 2.0353
59.8800 39.8890 2.0373
59.9000 39.9023 2.0403
59.9200 39.9156 2.0430
59.9400 39.9290 2.0450
59.9600 39.9423 2.0463
59.9800 39.9557 2.0484
60.0000 39.9690 2.0502
60.0200 39.9824 2.0521
60.0400 39.9957 2.0501
60.0470 40.0003 2.0467
60.0480 40.0009 2.0461
60.0490 40.0016 2.0456
60.0690 40.0120 2.0317
60.0890 40.0140 2.0206
60.1090 40.0055 2.0356
60.1290 39.9926 2.0409
60.1490 39.9796 2.0323
60.1690 39.9668 2.0245
60.1890 39.9534 2.0179
60.2090 39.9395 2.0104
60.2290 39.9254 2.0063
60.2490 39.9117 1.9986
60.2690 39.8982 1.9945
60.2890 39.8849 1.9867
60.3090 39.8716 1.9829
60.3290 39.8583 1.9770
60.3490 39.8450 1.9726
60.3690 39.8316 1.9676
60.3890 39.8182 1.9603
60.4090 39.8048 1.9541
60.4290 39.7915 1.9501
60.4490 39.7781 1.9460
60.4690 39.7648 1.9412
60.4890 39.7514 1.9373
60.5090 39.7381 1.9303
60.5290 39.7248 1.9251
60.5490 39.7114 1.9223
60.5690 39.6981 1.9171
60.5890 39.6848 1.9134
60.6090 39.6715 1.9076
60.6290 39.6581 1.9024
60.6490 39.6448 1.8967
60.6690 39.6315 1.8953
60.6890 39.6182 1.8907
60.7090 39.6049 1.8866
60.7290 39.5915 1.8808
60.7490 39.5781 1.8790
60.7690 39.5648 1.8746
60.7890 39.5515 1.8696
60.8090 39.5381 1.8650
60.8290 39.5248 1.8608
60.8490 39.5114 1.8562
60.8690 39.4981 1.8525
60.8890 39.4848 1.8481
60.9090 39.4714 1.8459
60.9290 39.4580 1.8401
60.9490 39.4447 1.8350
60.9690 39.4314 1.8332
60.9890 39.4181 1.8282
61.0090 39.4048 1.8233
61.0290 39.3915 1.8188
61.0490 39.3782 1.8160
61.0690 39.3649 1.8145
61.0890 39.3515 1.8113
61.1090 39.3382 1.8074
61.1290 39.3248 1.8018
61.1490 39.3115 1.7985
61.1690 39.2981 1.7947
61.1890 39.2847 1.7890
61.2090 39.2714 1.7868
61.2290 39.2580 1.7837
61.2490 39.2447 1.7771
61.2690 39.2314 1.7746
61.2890 39.2180 1.7688
61.3090 39.2047 1.7677
61.3290 39.1914 1.7629
61.3490 39.1781 1.7610
61.3690 39.1648 1.7578
61.3890 39.1514 1.7559
61.4090 39.1382 1.7501
61.4290 39.1249 1.7449
61.4490 39.1115 1.7434
61.4690 39.0982 1.7388
61.4890 39.0848 1.7382
61.5090 39.0715 1.7317
61.5290 39.0581 1.7306
61.5490 39.0447 1.7267
61.5690 39.0314 1.7244
61.5890 39.0181 1.7191
61.6090 39.0047 1.7162
61.6290 38.9914 1.7120
61.6490 38.9780 1.7104
61.6690 38.9647 1.7065
61.6890 38.9515 1.7032
61.7090 38.9381 1.6991
61.7290 38.9248 1.6956
61.7490 38.9115 1.6939
61.7690 38.8982 1.6905
61.7890 38.8849 1.6873
61.8090 38.8715 1.6828
61.8290 38.8581 1.6802
61.8490 38.8448 1.6767
61.8690 38.8315 1.6730
61.8890 38.8181 1.6699
61.9090 38.8047 1.6665
61.9290 38.7914 1.6638
61.9490 38.7781 1.6612
61.9690 38.7648 1.6576
61.9890 38.7515 1.6542
62.0090 38.7381 1.6530
62.0290 38.7247 1.6494
62.0490 38.7114 1.6469
62.0690 38.6981 1.6428
62.0890 38.6847 1.6406
62.1090 38.6714 1.6373
62.1290 38.6581 1.6358
62.1490 38.6448 1.6326
62.1690 38.6315 1.6295
62.1890 38.6181 1.6256
62.2090 38.6048 1.6228
62.2290 38.5915 1.6185
62.2490 38.5781 1.6178
62.2690 38.5647 1.6135
62.2890 38.5514 1.6113
62.3090 38.5381 1.6083
62.3290 38.5248 1.6055
62.3490 38.5114 1.6019
62.3690 38.4980 1.6000
62.3890 38.4847 1.5989
62.4090 38.4714 1.5948
62.4290 38.4581 1.5929
62.4490 38.4447 1.5894
62.4690 38.4314 1.5848
62.4890 38.4181 1.5837
62.5090 38.4048 1.5804
62.5290 38.3915 1.5779
62.5490 38.3781 1.5747
62.5690 38.3648 1.5725
62.5890 38.3515 1.5694
62.6090 38.3381 1.5667
62.6290 38.3248 1.5642
62.6490 38.3114 1.5611
62.6690 38.2981 1.5579
62.6890 38.2848 1.5551
62.7090 38.2714 1.5519
62.7290 38.2580 1.5506
62.7490 38.2447 1.5483
62.7690 38.2314 1.5445
62.7890 38.2181 1.5420
62.8090 38.2047 1.5394
62.8290 38.1914 1.5374
62.8490 38.1781 1.5364
62.8690 38.1648 1.5315
62.8890 38.1515 1.5293
62.9090 38.1381 1.5281
62.9290 38.1248 1.5262
62.9490 38.1115 1.5201
62.9690 38.0981 1.5189
62.9890 38.0848 1.5167
63.0090 38.0714 1.5142
63.0290 38.0581 1.5140
63.0490 38.0448 1.5087
63.0690 38.0315 1.5079
63.0890 38.0181 1.5060
63.1090 38.0047 1.5051
63.1290 37.9914 1.4997
63.1490 37.9781 1.4974
63.1690 37.9647 1.4921
63.1890 37.9514 1.4914
63.2090 37.9381 1.4894
63.2290 37.9248 1.4897
63.2490 37.9115 1.4845
63.2690 37.8981 1.4842
63.2890 37.8848 1.4815
63.3090 37.8715 1.4792
63.3290 37.8581 1.4757
63.3490 37.8447 1.4735
63.3690 37.8314 1.4700
63.3890 37.8181 1.4684
63.4090 37.8048 1.4664
63.4290 37.7915 1.4633
63.4490 37.7781 1.4622
63.4690 37.7648 1.4601
63.4890 37.7515 1.4561
63.5090 37.7381 1.4545
63.5290 37.7248 1.4522
63.5490 37.7114 1.4504
63.5690 37.6981 1.4471
63.5890 37.6848 1.4466
63.6090 37.6715 1.4430
63.6290 37.6581 1.4414
63.6490 37.6448 1.4398
63.6690 37.6314 1.4362
63.6890 37.6181 1.4355
63.7090 37.6048 1.4338
63.7290 37.5914 1.4317
63.7490 37.5781 1.4275
63.7690 37.5648 1.4271
63.7890 37.5514 1.4237
63.8090 37.5381 1.4230
63.8290 37.5247 1.4221
63.8490 37.5114 1.4197
63.8690 37.4981 1.4171
63.8890 37.4848 1.4141
63.9090 37.4715 1.4112
63.9290 37.4581 1.4092
63.9490 37.4448 1.4057
63.9690 37.4315 1.4033
63.9890 37.4181 1.4015
64.0090 37.4047 1.4013
64.0290 37.3914 1.3964
64.0490 37.3781 1.3975
64.0690 37.3648 1.3938
64.0890 37.3514 1.3929
64.1090 37.3381 1.3902
64.1290 37.3248 1.3890
64.1490 37.3115 1.3855
64.1690 37.2981 1.3868
64.1890 37.2847 1.3826
64.2090 37.2714 1.3814
64.2290 37.2581 1.3786
64.2490 37.2448 1.3776
64.2690 37.2314 1.3748
64.2890 37.2181 1.3736
64.3090 37.2048 1.3700
64.3290 37.1915 1.3670
64.3490 37.1782 1.3651
64.3690 37.1649 1.3634
64.3890 37.1515 1.3626
64.4090 37.1382 1.3627
64.4290 37.1248 1.3590
64.4490 37.1114 1.3546
64.4690 37.0981 1.3534
64.4890 37.0848 1.3508
64.5090 37.0714 1.3496
64.5290 37.0581 1.3482
64.5490 37.0447 1.3488
64.5690 37.0314 1.3457
64.5890 37.0181 1.3445
64.6090 37.0048 1.3409
64.6290 36.9914 1.3376
64.6490 36.9781 1.3360
64.6690 36.9648 1.3355
64.6890 36.9515 1.3327
64.7090 36.9381 1.3319
64.7290 36.9248 1.3293
64.7490 36.9115 1.3277
64.7690 36.8981 1.3269
64.7890 36.8848 1.3257
64.8090 36.8714 1.3207
64.8290 36.8580 1.3193
64.8490 36.8447 1.3180
64.8690 36.8314 1.3162
64.8890 36.8181 1.3149
64.9090 36.8047 1.3130
64.9290 36.7914 1.3097
64.9490 36.7781 1.3074
64.9690 36.7648 1.3059
64.9890 36.7514 1.3069
65.0090 36.7381 1.3049
65.0290 36.7248 1.3024
65.0490 36.7115 1.3005
65.0690 36.6982 1.2980
65.0890 36.6848 1.2959
65.1090 36.6715 1.2942
65.1290 36.6581 1.2948
65.1490 36.6448 1.2940
65.1690 36.6314 1.2911
65.1890 36.6181 1.2898
65.2090 36.6048 1.2869
65.2290 36.5914 1.2834
65.2490 36.5780 1.2829
65.2690 36.5647 1.2822
65.2890 36.5514 1.2793
65.3090 36.5381 1.2783
65.3290 36.5248 1.2748
65.3490 36.5114 1.2733
65.3690 36.4981 1.2723
65.3890 36.4848 1.2730
65.4090 36.4715 1.2699
65.4290 36.4582 1.2694
65.4490 36.4448 1.2658
65.4690 36.4315 1.2640
65.4890 36.4182 1.2622
65.5090 36.4048 1.2626
65.5290 36.3914 1.2587
65.5490 36.3781 1.2576
65.5690 36.3647 1.2539
65.5890 36.3514 1.2527
65.6090 36.3381 1.2517
65.6290 36.3247 1.2526
65.6490 36.3114 1.2496
65.6690 36.2981 1.2479
65.6890 36.2848 1.2486
65.7090 36.2714 1.2446
65.7290 36.2581 1.2442
65.7490 36.2448 1.2419
65.7690 36.2315 1.2401
65.7890 36.2181 1.2385
65.8090 36.2048 1.2386
65.8290 36.1915 1.2366
65.8490 36.1782 1.2320
65.8690 36.1648 1.2307
65.8890 36.1514 1.2290
65.9090 36.1381 1.2286
65.9290 36.1248 1.2263
65.9490 36.1115 1.2224
65.9690 36.0981 1.2214
65.9890 36.0847 1.2229
66.0090 36.0714 1.2201
66.0290 36.0581 1.2206
66.0490 36.0447 1.2202
66.0690 36.0314 1.2174
66.0890 36.0181 1.2162
66.1090 36.0048 1.2140
66.1290 35.9915 1.2102
66.1490 35.9781 1.2081
66.1690 35.9648 1.2095
66.1890 35.9515 1.2082
66.2090 35.9382 1.2062
66.2290 35.9248 1.2043
66.2490 35.9114 1.2012
66.2690 35.8981 1.2012
66.2890 35.8848 1.2000
66.3090 35.8715 1.1972
66.3290 35.8581 1.1971
66.3490 35.8447 1.1961
66.3690 35.8314 1.1926
66.3890 35.8181 1.1904
66.4090 35.8047 1.1921
66.4290 35.7914 1.1887
66.4490 35.7781 1.1880
66.4690 35.7648 1.1870
66.4890 35.7515 1.1827
66.5090 35.7382 1.1814
66.5290 35.7248 1.1823
66.5490 35.7115 1.1805
66.5690 35.6982 1.1804
66.5890 35.6848 1.1791
66.6090 35.6714 1.1757
66.6290 35.6581 1.1748
66.6490 35.6447 1.1731
66.6690 35.6314 1.1706
66.6890 35.6181 1.1692
66.7090 35.6047 1.1688
66.7290 35.5914 1.1654
66.7490 35.5781 1.1650
66.7690 35.5648 1.1657
66.7890 35.5515 1.1620
66.8090 35.5381 1.1602
66.8290 35.5248 1.1601
66.8490 35.5115 1.1581
66.8690 35.4982 1.1574
66.8890 35.4848 1.1578
66.9090 35.4715 1.1550
66.9290 35.4581 1.1532
66.9490 35.4448 1.1542
66.9690 35.4314 1.1511
66.9890 35.4180 1.1481
67.0090 35.4047 1.1465
67.0290 35.3914 1.1457
67.0490 35.3781 1.1451
67.0690 35.3647 1.1444
67.0890 35.3514 1.1435
67.1090 35.3381 1.1395
67.1290 35.3248 1.1401
67.1490 35.3114 1.1358
67.1690 35.2981 1.1379
67.1890 35.2848 1.1358
67.2090 35.2715 1.1359
67.2290 35.2581 1.1326
67.2490 35.2448 1.1339
67.2690 35.2314 1.1309
67.2890 35.2181 1.1286
67.3090 35.2048 1.1286
67.3290 35.1914 1.1263
67.3490 35.1781 1.1253
67.3690 35.1648 1.1243
67.3890 35.1514 1.1241
67.4090 35.1381 1.1203
67.4290 35.1247 1.1196
67.4490 35.1114 1.1192
67.4690 35.0981 1.1192
67.4890 35.0848 1.1171
67.5090 35.0714 1.1177
67.5290 35.0581 1.1148
67.5490 35.0448 1.1137
67.5690 35.0315 1.1113
67.5890 35.0182 1.1109
67.6090 35.0048 1.1088
67.6290 34.9914 1.1071
67.6490 34.9781 1.1060
67.6690 34.9648 1.1066
67.6890 34.9514 1.1056
67.7090 34.9381 1.1022
67.7290 34.9247 1.1017
67.7490 34.9114 1.1009
67.7690 34.8981 1.0982
67.7890 34.8847 1.0985
67.8090 34.8714 1.0970
67.8290 34.8581 1.0952
67.8490 34.8448 1.0969
67.8690 34.8315 1.0938
67.8890 34.8181 1.0898
67.9090 34.8048 1.0912
67.9290 34.7915 1.0891
67.9490 34.7782 1.0880
67.9690 34.7648 1.0872
67.9890 34.7514 1.0893
68.0090 34.7381 1.0840
68.0290 34.7248 1.0849
68.0490 34.7114 1.0840
68.0690 34.6980 1.0799
68.0890 34.6847 1.0801
68.1090 34.6714 1.0789
68.1290 34.6581 1.0735
68.1490 34.6447 1.0770
68.1690 34.6314 1.0749
68.1890 34.6181 1.0726
68.2090 34.6048 1.0724
68.2290 34.5914 1.0726
68.2490 34.5781 1.0700
68.2690 34.5648 1.0700
68.2890 34.5515 1.0679
68.3090 34.5382 1.0654
68.3290 34.5248 1.0677
68.3490 34.5114 1.0657
68.3690 34.4981 1.0628
68.3890 34.4848 1.0634
68.4090 34.4714 1.0613
68.4290 34.4580 1.0584
68.4490 34.4447 1.0590
68.4690 34.4314 1.0568
68.4890 34.4181 1.0557
68.5090 34.4047 1.0571
68.5290 34.3914 1.0548
68.5490 34.3781 1.0518
68.5690 34.3648 1.0518
68.5890 34.3515 1.0506
68.6090 34.3381 1.0482
68.6290 34.3248 1.0498
68.6490 34.3115 1.0487
68.6690 34.2982 1.0445
68.6890 34.2848 1.0455
68.7090 34.2715 1.0428
68.7290 34.2582 1.0420
68.7490 34.2448 1.0411
68.7690 34.2314 1.0413
68.7890 34.2180 1.0388
68.8090 34.2047 1.0396
68.8290 34.1914 1.0386
68.8490 34.1781 1.0373
68.8690 34.1647 1.0364
68.8890 34.1514 1.0360
68.9090 34.1381 1.0311
68.9290 34.1248 1.0344
68.9490 34.1115 1.0311
68.9690 34.0981 1.0301
68.9890 34.0848 1.0294
69.0090 34.0715 1.0285
69.0290 34.0582 1.0260
69.0490 34.0448 1.0263
69.0690 34.0314 1.0263
69.0890 34.0181 1.0236
69.1090 34.0048 1.0210
69.1290 33.9914 1.0222
69.1490 33.9780 1.0193
69.1690 33.9647 1.0196
69.1890 33.9515 1.0189
69.2090 33.9381 1.0159
69.2290 33.9248 1.0158
69.2490 33.9114 1.0152
69.2690 33.8981 1.0123
69.2890 33.8848 1.0121
69.3090 33.8714 1.0104
69.3290 33.8581 1.0105
69.3490 33.8448 1.0114
69.3690 33.8315 1.0104
69.3890 33.8181 1.0063
69.4090 33.8048 1.0090
69.4290 33.7915 1.0061
69.4490 33.7781 1.0028
69.4690 33.7648 1.0043
69.4890 33.7514 1.0028
69.5090 33.7381 1.0013
69.5290 33.7247 1.0011
69.5490 33.7114 1.0004
69.5690 33.6981 0.9969
69.5890 33.6847 0.9980
69.6090 33.6714 0.9974
69.6290 33.6581 0.9953
69.6490 33.6448 0.9936
69.6690 33.6314 0.9964
69.6890 33.6181 0.9930
69.7090 33.6048 0.9940
69.7290 33.5915 0.9932
69.7490 33.5782 0.9903
69.7690 33.5648 0.9881
69.7890 33.5515 0.9878
69.8090 33.5381 0.9842
69.8290 33.5248 0.9847
69.8490 33.5115 0.9854
69.8690 33.4981 0.9812
69.8890 33.4847 0.9833
69.9090 33.4714 0.9821
69.9290 33.4581 0.9790
69.9490 33.4447 0.9781
69.9690 33.4314 0.9819
69.9890 33.4181 0.9781
70.0090 33.4048 0.9794
70.0290 33.3914 0.9764
70.0490 33.3781 0.9734
70.0690 33.3648 0.9727
70.0890 33.3515 0.9756
70.1090 33.3382 0.9722
70.1290 33.3248 0.9715
70.1490 33.3114 0.9711
70.1690 33.2981 0.9694
70.1890 33.2848 0.9682
70.2090 33.2715 0.9684
70.2290 33.2581 0.9657
70.2490 33.2447 0.9645
70.2690 33.2314 0.9653
70.2890 33.2181 0.9642
70.3090 33.2047 0.9632
70.3290 33.1914 0.9622
70.3490 33.1780 0.9612
70.3690 33.1647 0.9595
70.3890 33.1514 0.9597
70.4090 33.1381 0.9591
70.4290 33.1247 0.9574
70.4490 33.1115 0.9561
70.4690 33.0982 0.9540
70.4890 33.0848 0.9543
70.5090 33.0714 0.9550
70.5290 33.0581 0.9518
70.5490 33.0448 0.9525
70.5690 33.0314 0.9509
70.5890 33.0181 0.9512
70.6090 33.0047 0.9479
70.6290 32.9914 0.9495
70.6490 32.9781 0.9456
70.6690 32.9648 0.9454
70.6890 32.9514 0.9459
70.7090 32.9381 0.9436
70.7290 32.9248 0.9431
70.7490 32.9114 0.9455
70.7690 32.8981 0.9404
70.7890 32.8848 0.9407
70.8090 32.8715 0.9393
70.8290 32.8582 0.9371
70.8490 32.8448 0.9373
70.8690 32.8314 0.9377
70.8890 32.8181 0.9349
70.9090 32.8048 0.9346
70.9290 32.7914 0.9355
70.9490 32.7781 0.9321
70.9690 32.7647 0.9309
70.9890 32.7514 0.9342
71.0090 32.7381 0.9326
71.0290 32.7248 0.9305
71.0490 32.7114 0.9313
71.0690 32.6981 0.9265
71.0890 32.6848 0.9280
71.1090 32.6715 0.9285
71.1290 32.6581 0.9260
71.1490 32.6448 0.9237
71.1690 32.6315 0.9240
71.1890 32.6182 0.9234
71.2090 32.6048 0.9217
71.2290 32.5914 0.9246
71.2490 32.5781 0.9191
71.2690 32.5648 0.9193
71.2890 32.5514 0.9205
71.3090 32.5381 0.9173
71.3290 32.5247 0.9180
71.3490 32.5114 0.9172
71.3690 32.4981 0.9159
71.3890 32.4848 0.9140
71.4090 32.4714 0.9145
71.4290 32.4581 0.9125
71.4490 32.4448 0.9118
71.4690 32.4314 0.9119
71.4890 32.4181 0.9119
71.5090 32.4048 0.9088
71.5290 32.3915 0.9094
71.5490 32.3781 0.9073
71.5690 32.3648 0.9061
71.5890 32.3515 0.9052
71.6090 32.3381 0.9031
71.6290 32.3248 0.9043
71.6490 32.3115 0.9042
71.6690 32.2981 0.9036
71.6890 32.2847 0.8997
71.7090 32.2714 0.9010
71.7290 32.2581 0.8978
71.7490 32.2447 0.8973
71.7690 32.2314 0.8988
71.7890 32.2180 0.8972
71.8090 32.2047 0.8965
71.8290 32.1914 0.8965
71.8490 32.1781 0.8946
71.8690 32.1648 0.8942
71.8890 32.1515 0.8960
71.9090 32.1382 0.8904
71.9290 32.1248 0.8920
71.9490 32.1115 0.8916
71.9690 32.0981 0.8916
71.9890 32.0848 0.8870
72.0090 32.0714 0.8887
72.0290 32.0581 0.8868
72.0490 32.0447 0.8867
72.0690 32.0314 0.8870
72.0890 32.0181 0.8851
72.1090 32.0048 0.8839
72.1290 31.9914 0.8845
72.1490 31.9781 0.8818
72.1690 31.9648 0.8815
72.1890 31.9515 0.8817
72.2090 31.9381 0.8804
72.2290 31.9248 0.8776
72.2490 31.9115 0.8795
72.2690 31.8982 0.8789
72.2890 31.8848 0.8768
72.3090 31.8715 0.8784
72.3290 31.8581 0.8761
72.3490 31.8448 0.8737
72.3690 31.8315 0.8758
72.3890 31.8181 0.8724
72.4090 31.8047 0.8732
72.4290 31.7914 0.8728
72.4490 31.7781 0.8706
72.4690 31.7647 0.8698
72.4890 31.7514 0.8708
72.5090 31.7380 0.8690
72.5290 31.7247 0.8674
72.5490 31.7114 0.8690
72.5690 31.6981 0.8660
72.5890 31.6848 0.8642
72.6090 31.6715 0.8657
72.6290 31.6582 0.8647
72.6490 31.6449 0.8634
72.6690 31.6315 0.8649
72.6890 31.6181 0.8618
72.7090 31.6048 0.8618
72.7290 31.5915 0.8607
72.7490 31.5781 0.8598
72.7690 31.5647 0.8568
72.7890 31.5514 0.8594
72.8090 31.5381 0.8568
72.8290 31.5247 0.8539
72.8490 31.5114 0.8561
72.8690 31.4980 0.8552
72.8890 31.4847 0.8541
72.9090 31.4714 0.8565
72.9290 31.4581 0.8530
72.9490 31.4447 0.8520
72.9690 31.4314 0.8516
72.9890 31.4181 0.8497
73.0090 31.4048 0.8483
73.0290 31.3915 0.8533
73.0490 31.3781 0.8487
73.0690 31.3648 0.8477
73.0890 31.3515 0.8479
73.1090 31.3381 0.8464
73.1290 31.3248 0.8443
73.1490 31.3114 0.8460
73.1690 31.2981 0.8434
73.1890 31.2848 0.8436
73.2090 31.2714 0.8450
73.2290 31.2580 0.8412
73.2490 31.2447 0.8406
73.2690 31.2314 0.8407
73.2890 31.2181 0.8400
73.3090 31.2047 0.8384
73.3290 31.1914 0.8410
73.3490 31.1782 0.8382
73.3690 31.1648 0.8356
73.3890 31.1515 0.8358
73.4090 31.1381 0.8352
73.4290 31.1248 0.8322
73.4490 31.1115 0.8339
73.4690 31.0982 0.8330
73.4890 31.0848 0.8334
73.5090 31.0714 0.8336
73.5290 31.0581 0.8303
73.5490 31.0448 0.8302
73.5690 31.0314 0.8300
73.5890 31.0180 0.8297
73.6090 31.0047 0.8283
73.6290 30.9914 0.8280
73.6490 30.9781 0.8276
73.6690 30.9647 0.8259
73.6890 30.9514 0.8261
73.7090 30.9382 0.8241
73.7290 30.9248 0.8232
73.7490 30.9115 0.8256
73.7690 30.8981 0.8244
73.7890 30.8848 0.8225
73.8090 30.8715 0.8237
73.8290 30.8581 0.8229
73.8490 30.8448 0.8200
73.8690 30.8314 0.8200
73.8890 30.8181 0.8190
73.9090 30.8047 0.8161
73.9290 30.7914 0.8172
73.9490 30.7780 0.8161
73.9690 30.7647 0.8139
73.9890 30.7514 0.8157
74.0090 30.7381 0.8142
74.0290 30.7248 0.8130
74.0490 30.7115 0.8147
74.0690 30.6982 0.8149
74.0890 30.6849 0.8107
74.1090 30.6715 0.8115
74.1290 30.6581 0.8112
74.1490 30.6448 0.8108
74.1690 30.6314 0.8117
74.1890 30.6181 0.8094
74.2090 30.6047 0.8058
74.2290 30.5914 0.8071
74.2490 30.5781 0.8056
74.2690 30.5648 0.8046
74.2890 30.5514 0.8063
74.3090 30.5380 0.8042
74.3290 30.5247 0.8036
74.3490 30.5114 0.8029
74.3690 30.4981 0.8027
74.3890 30.4847 0.8018
74.4090 30.4714 0.8027
74.4290 30.4581 0.8022
74.4490 30.4448 0.8000
74.4690 30.4315 0.8006
74.4890 30.4181 0.8003
74.5090 30.4048 0.7959
74.5290 30.3915 0.7990
74.5490 30.3781 0.7959
74.5690 30.3647 0.7967
74.5890 30.3514 0.7968
74.6090 30.3381 0.7958
74.6290 30.3248 0.7919
74.6490 30.3114 0.7930
74.6690 30.2980 0.7925
74.6890 30.2847 0.7918
74.7090 30.2714 0.7913
74.7290 30.2581 0.7911
74.7490 30.2448 0.7901
74.7690 30.2314 0.7925
74.7890 30.2182 0.7897
74.8090 30.2048 0.7856
74.8290 30.1915 0.7866
74.8490 30.1781 0.7860
74.8690 30.1648 0.7857
74.8890 30.1515 0.7844
74.9090 30.1381 0.7860
74.9290 30.1248 0.7835
74.9490 30.1114 0.7860
74.9690 30.0981 0.7858
74.9890 30.0848 0.7824
75.0090 30.0714 0.7819
75.0290 30.0581 0.7812
75.0490 30.0448 0.7788
75.0690 30.0315 0.7811
75.0890 30.0181 0.7810
75.1090 30.0048 0.7789
75.1290 29.9915 0.7788
75.1490 29.9782 0.7781
75.1690 29.9648 0.7741
75.1890 29.9515 0.7758
75.2090 29.9381 0.7769
75.2290 29.9248 0.7760
75.2490 29.9115 0.7760
75.2690 29.8981 0.7739
75.2890 29.8847 0.7723
75.3090 29.8714 0.7747
75.3290 29.8581 0.7741
75.3490 29.8448 0.7706
75.3690 29.8314 0.7728
75.3890 29.8180 0.7702
75.4090 29.8047 0.7684
75.4290 29.7914 0.7705
75.4490 29.7781 0.7694
75.4690 29.7648 0.7691
75.4890 29.7515 0.7704
75.5090 29.7382 0.7689
75.5290 29.7249 0.7649
75.5490 29.7115 0.7663
75.5690 29.6981 0.7643
75.5890 29.6848 0.7624
75.6090 29.6715 0.7637
75.6290 29.6581 0.7651
75.6490 29.6447 0.7639
75.6690 29.6314 0.7635
75.6890 29.6180 0.7621
75.7090 29.6047 0.7612
75.7290 29.5914 0.7604
75.7490 29.5780 0.7593
75.7690 29.5647 0.7564
75.7890 29.5514 0.7598
75.8090 29.5381 0.7601
75.8290 29.5248 0.7575
75.8490 29.5114 0.7577
75.8690 29.4981 0.7545
75.8890 29.4848 0.7546
75.9090 29.4715 0.7547
75.9290 29.4581 0.7552
75.9490 29.4448 0.7550
75.9690 29.4315 0.7543
75.9890 29.4181 0.7529
76.0090 29.4047 0.7526
76.0290 29.3914 0.7503
76.0490 29.3780 0.7506
76.0690 29.3647 0.7494
76.0890 29.3514 0.7487
76.1090 29.3380 0.7498
76.1290 29.3247 0.7476
76.1490 29.3115 0.7490
76.1690 29.2981 0.7479
76.1890 29.2848 0.7470
76.2090 29.2715 0.7475
76.2290 29.2582 0.7464
76.2490 29.2448 0.7442
76.2690 29.2315 0.7439
76.2890 29.2181 0.7454
76.3090 29.2048 0.7425
76.3290 29.1915 0.7420
76.3490 29.1781 0.7404
76.3690 29.1647 0.7380
76.3890 29.1514 0.7392
76.4090 29.1381 0.7417
76.4290 29.1248 0.7399
76.4490 29.1115 0.7383
76.4690 29.0981 0.7376
76.4890 29.0847 0.7395
76.5090 29.0714 0.7382
76.5290 29.0581 0.7393
76.5490 29.0447 0.7361
76.5690 29.0314 0.7356
76.5890 29.0181 0.7375
76.6090 29.0048 0.7367
76.6290 28.9915 0.7357
76.6490 28.9781 0.7352
76.6690 28.9648 0.7315
76.6890 28.9515 0.7324
76.7090 28.9381 0.7317
76.7290 28.9248 0.7317
76.7490 28.9114 0.7312
76.7690 28.8981 0.7296
76.7890 28.8848 0.7298
76.8090 28.8714 0.7281
76.8290 28.8580 0.7291
76.8490 28.8447 0.7274
76.8690 28.8314 0.7271
76.8890 28.8181 0.7280
76.9090 28.8048 0.7269
76.9290 28.7914 0.7260
76.9490 28.7781 0.7269
76.9690 28.7648 0.7253
76.9890 28.7515 0.7232
77.0090 28.7381 0.7261
77.0290 28.7248 0.7236
77.0490 28.7115 0.7219
77.0690 28.6982 0.7211
77.0890 28.6848 0.7219
77.1090 28.6714 0.7214
77.1290 28.6581 0.7213
77.1490 28.6448 0.7172
77.1690 28.6314 0.7170
77.1890 28.6180 0.7193
77.2090 28.6047 0.7166
77.2290 28.5914 0.7182
77.2490 28.5781 0.7172
77.2690 28.5648 0.7168
77.2890 28.5514 0.7172
77.3090 28.5381 0.7177
77.3290 28.5248 0.7134
77.3490 28.5115 0.7126
77.3690 28.4981 0.7145
77.3890 28.4848 0.7156
77.4090 28.4715 0.7142
77.4290 28.4582 0.7140
77.4490 28.4448 0.7112
77.4690 28.4314 0.7123
77.4890 28.4181 0.7108
77.5090 28.4048 0.7102
77.5290 28.3914 0.7095
77.5490 28.3781 0.7102
77.5690 28.3647 0.7081
77.5890 28.3514 0.7075
77.6090 28.3381 0.7089
77.6290 28.3247 0.7077
77.6490 28.3114 0.7059
77.6690 28.2981 0.7070
77.6890 28.2848 0.7050
77.7090 28.2715 0.7065
77.7290 28.2581 0.7045
77.7490 28.2448 0.7016
77.7690 28.2315 0.7022
77.7890 28.2181 0.7020
77.8090 28.2048 0.7014
77.8290 28.1914 0.7030
77.8490 28.1781 0.7035
77.8690 28.1648 0.7025
77.8890 28.1514 0.7002
77.9090 28.1381 0.7005
77.9290 28.1248 0.7004
77.9490 28.1114 0.6983
77.9690 28.0981 0.7007
77.9890 28.0848 0.6987
78.0090 28.0715 0.6974
78.0290 28.0581 0.6967
78.0490 28.0448 0.6961
78.0690 28.0315 0.6947
78.0890 28.0181 0.6949
78.1090 28.0048 0.6937
78.1290 27.9914 0.6909
78.1490 27.9781 0.6934
78.1690 27.9648 0.6945
78.1890 27.9514 0.6936
78.2090 27.9381 0.6944
78.2290 27.9248 0.6922
78.2490 27.9114 0.6917
78.2690 27.8981 0.6899
78.2890 27.8847 0.6895
78.3090 27.8714 0.6887
78.3290 27.8581 0.6891
78.3490 27.8448 0.6884
78.3690 27.8315 0.6873
78.3890 27.8181 0.6894
78.4090 27.8048 0.6866
78.4290 27.7915 0.6839
78.4490 27.7781 0.6859
78.4690 27.7648 0.6848
78.4890 27.7514 0.6855
78.5090 27.7381 0.6851
78.5290 27.7248 0.6832
78.5490 27.7114 0.6838
78.5690 27.6981 0.6844
78.5890 27.6848 0.6820
78.6090 27.6714 0.6814
78.6290 27.6581 0.6808
78.6490 27.6447 0.6821
78.6690 27.6314 0.6794
78.6890 27.6181 0.6800
78.7090 27.6047 0.6794
78.7290 27.5914 0.6785
78.7490 27.5781 0.6793
78.7690 27.5648 0.6779
78.7890 27.5515 0.6772
78.8090 27.5382 0.6768
78.8290 27.5248 0.6764
78.8490 27.5115 0.6760
78.8690 27.4982 0.6755
78.8890 27.4848 0.6739
78.9090 27.4714 0.6740
78.9290 27.4581 0.6753
78.9490 27.4448 0.6756
78.9690 27.4314 0.6734
78.9890 27.4181 0.6717
79.0090 27.4047 0.6721
79.0290 27.3914 0.6720
79.0490 27.3781 0.6720
79.0690 27.3648 0.6730
79.0890 27.3514 0.6699
79.1090 27.3381 0.6703
79.1290 27.3248 0.6712
79.1490 27.3115 0.6683
79.1690 27.2981 0.6683
79.1890 27.2848 0.6680
79.2090 27.2715 0.6662
79.2290 27.2581 0.6666
79.2490 27.2448 0.6667
79.2690 27.2314 0.6664
79.2890 27.2181 0.6678
79.3090 27.2047 0.6645
79.3290 27.1914 0.6645
79.3490 27.1781 0.6631
79.3690 27.1647 0.6645
79.3890 27.1514 0.6615
79.4090 27.1381 0.6639
79.4290 27.1248 0.6617
79.4490 27.1114 0.6620
79.4690 27.0981 0.6618
79.4890 27.0848 0.6615
79.5090 27.0715 0.6593
79.5290 27.0582 0.6575
79.5490 27.0448 0.6583
79.5690 27.0315 0.6572
79.5890 27.0181 0.6604
79.6090 27.0048 0.6578
79.6290 26.9914 0.6589
79.6490 26.9781 0.6575
79.6690 26.9648 0.6565
79.6890 26.9514 0.6547
79.7090 26.9381 0.6561
79.7290 26.9247 0.6553
79.7490 26.9114 0.6558
79.7690 26.8981 0.6558
79.7890 26.8847 0.6541
79.8090 26.8714 0.6533
79.8290 26.8581 0.6535
79.8490 26.8448 0.6526
79.8690 26.8315 0.6518
79.8890 26.8182 0.6532
79.9090 26.8048 0.6532
79.9290 26.7915 0.6513
79.9490 26.7782 0.6512
79.9690 26.7648 0.6494
79.9890 26.7514 0.6502
80.0090 26.7380 0.6479
80.0290 26.7247 0.6489
80.0490 26.7114 0.6470
80.0690 26.6981 0.6491
80.0890 26.6847 0.6460
80.1090 26.6714 0.6476
80.1290 26.6581 0.6446
80.1490 26.6448 0.6457
80.1690 26.6314 0.6435
80.1890 26.6181 0.6465
80.2090 26.6048 0.6438
80.2290 26.5915 0.6447
80.2490 26.5781 0.6439
80.2690 26.5648 0.6427
80.2890 26.5515 0.6422
80.3090 26.5382 0.6410
80.3290 26.5248 0.6428
80.3490 26.5115 0.6410
80.3690 26.4981 0.6405
80.3890 26.4848 0.6383
80.4090 26.4715 0.6393
80.4290 26.4581 0.6401
80.4490 26.4447 0.6408
80.4690 26.4314 0.6403
80.4890 26.4181 0.6389
80.5090 26.4048 0.6386
80.5290 26.3914 0.6360
80.5490 26.3781 0.6371
80.5690 26.3648 0.6359
80.5890 26.3515 0.6353
80.6090 26.3382 0.6349
80.6290 26.3248 0.6362
80.6490 26.3115 0.6354
80.6690 26.2982 0.6343
80.6890 26.2848 0.6346
80.7090 26.2714 0.6335
80.7290 26.2581 0.6356
80.7490 26.2448 0.6331
80.7690 26.2315 0.6328
80.7890 26.2181 0.6306
80.8090 26.2047 0.6312
80.8290 26.1914 0.6273
80.8490 26.1781 0.6303
80.8690 26.1647 0.6306
80.8890 26.1514 0.6298
80.9090 26.1381 0.6290
80.9290 26.1248 0.6305
80.9490 26.1115 0.6282
80.9690 26.0982 0.6287
80.9890 26.0848 0.6263
81.0090 26.0715 0.6259
81.0290 26.0582 0.6258
81.0490 26.0448 0.6254
81.0690 26.0314 0.6256
81.0890 26.0181 0.6259
81.1090 26.0047 0.6252
81.1290 25.9914 0.6240
81.1490 25.9781 0.6233
81.1690 25.9647 0.6236
81.1890 25.9514 0.6234
81.2090 25.9381 0.6220
81.2290 25.9248 0.6202
81.2490 25.9115 0.6204
81.2690 25.8981 0.6211
81.2890 25.8848 0.6217
81.3090 25.8715 0.6186
81.3290 25.8582 0.6197
81.3490 25.8448 0.6184
81.3690 25.8314 0.6199
81.3890 25.8181 0.6172
81.4090 25.8048 0.6199
81.4290 25.7914 0.6195
81.4490 25.7780 0.6201
81.4690 25.7647 0.6170
81.4890 25.7514 0.6190
81.5090 25.7381 0.6173
81.5290 25.7247 0.6165
81.5490 25.7114 0.6168
81.5690 25.6981 0.6152
81.5890 25.6848 0.6166
81.6090 25.6714 0.6139
81.6290 25.6581 0.6129
81.6490 25.6448 0.6144
81.6690 25.6315 0.6133
81.6890 25.6181 0.6121
81.7090 25.6048 0.6132
81.7290 25.5914 0.6111
81.7490 25.5781 0.6089
81.7690 25.5648 0.6094
81.7890 25.5514 0.6093
81.8090 25.5381 0.6113
81.8290 25.5247 0.6104
81.8490 25.5114 0.6100
81.8690 25.4981 0.6075
81.8890 25.4847 0.6091
81.9090 25.4714 0.6086
81.9290 25.4581 0.6067
81.9490 25.4448 0.6060
81.9690 25.4314 0.6069
81.9890 25.4181 0.6068
82.0090 25.4048 0.6055
82.0290 25.3915 0.6044
82.0490 25.3782 0.6052
82.0690 25.3648 0.6044
82.0890 25.3514 0.6020
82.1090 25.3381 0.6034
82.1290 25.3248 0.6032
82.1490 25.3114 0.6021
82.1690 25.2981 0.6008
82.1890 25.2847 0.6029
82.2090 25.2714 0.6010
82.2290 25.2581 0.6012
82.2490 25.2447 0.5990
82.2690 25.2314 0.5998
82.2890 25.2181 0.6000
82.3090 25.2048 0.6005
82.3290 25.1914 0.5997
82.3490 25.1781 0.5995
82.3690 25.1648 0.5977
82.3890 25.1515 0.5978
82.4090 25.1382 0.5983
82.4290 25.1248 0.5976
82.4490 25.1114 0.6000
82.4690 25.0981 0.5966
82.4890 25.0848 0.5983
82.5090 25.0714 0.5954
82.5290 25.0580 0.5968
82.5490 25.0447 0.5960
82.5690 25.0314 0.5950
82.5890 25.0181 0.5946
82.6090 25.0047 0.5944
82.6290 24.9914 0.5935
82.6490 24.9781 0.5916
82.6690 24.9648 0.5934
82.6890 24.9514 0.5922
82.7090 24.9381 0.5931
82.7290 24.9248 0.5913
82.7490 24.9115 0.5899
82.7690 24.8982 0.5888
82.7890 24.8848 0.5908
82.8090 24.8715 0.5906
82.8290 24.8581 0.5898
82.8490 24.8448 0.5890
82.8690 24.8314 0.5899
82.8890 24.8180 0.5891
82.9090 24.8047 0.5869
82.9290 24.7914 0.5887
82.9490 24.7781 0.5875
82.9690 24.7647 0.5861
82.9890 24.7514 0.5863
83.0090 24.7381 0.5849
83.0290 24.7248 0.5872
83.0490 24.7114 0.5850
83.0690 24.6981 0.5841
83.0890 24.6848 0.5822
83.1090 24.6715 0.5833
83.1290 24.6582 0.5809
83.1490 24.6448 0.5833
83.1690 24.6315 0.5829
83.1890 24.6182 0.5823
83.2090 24.6048 0.5807
83.2290 24.5914 0.5819
83.2490 24.5780 0.5798
83.2690 24.5647 0.5811
83.2890 24.5514 0.5780
83.3090 24.5381 0.5791
83.3290 24.5247 0.5792
83.3490 24.5114 0.5803
83.3690 24.4981 0.5779
83.3890 24.4848 0.5785
83.4090 24.4715 0.5765
83.4290 24.4581 0.5786
83.4490 24.4448 0.5760
83.4690 24.4315 0.5783
83.4890 24.4182 0.5782
83.5090 24.4048 0.5770
83.5290 24.3914 0.5760
83.5490 24.3781 0.5750
83.5690 24.3648 0.5767
83.5890 24.3514 0.5737
83.6090 24.3380 0.5733
83.6290 24.3247 0.5732
83.6490 24.3114 0.5729
83.6690 24.2981 0.5742
83.6890 24.2848 0.5742
83.7090 24.2714 0.5699
83.7290 24.2581 0.5718
83.7490 24.2448 0.5710
83.7690 24.2314 0.5719
83.7890 24.2181 0.5689
83.8090 24.2047 0.5742
83.8290 24.1914 0.5661
83.8490 24.1781 0.5726
83.8690 24.1648 0.5644
83.8890 24.1515 0.5757
83.9090 24.1381 0.5655
83.9290 24.1248 0.5726
83.9490 24.1114 0.5656
83.9690 24.0981 0.5725
83.9890 24.0847 0.5635
84.0090 24.0714 0.5702
84.0290 24.0581 0.5632
84.0490 24.0447 0.5682
84.0690 24.0314 0.5649
84.0890 24.0181 0.5645
84.1090 24.0048 0.5643
84.1290 23.9914 0.5629
84.1490 23.9781 0.5661
84.1690 23.9648 0.5639
84.1890 23.9515 0.5635
84.2090 23.9382 0.5626
84.2290 23.9248 0.5665
84.2490 23.9115 0.5628
84.2690 23.8981 0.5649
84.2890 23.8848 0.5614
84.3090 23.8714 0.5647
84.3290 23.8581 0.5610
84.3490 23.8447 0.5611
84.3690 23.8314 0.5599
84.3890 23.8181 0.5593
84.4090 23.8048 0.5594
84.4290 23.7914 0.5580
84.4490 23.7781 0.5592
84.4690 23.7648 0.5569
84.4890 23.7515 0.5600
84.5090 23.7381 0.5569
84.5290 23.7248 0.5578
84.5490 23.7115 0.5574
84.5690 23.6982 0.5565
84.5890 23.6848 0.5560
84.6090 23.6714 0.5566
84.6290 23.6581 0.5571
84.6490 23.6448 0.5538
84.6690 23.6315 0.5547
84.6890 23.6181 0.5534
84.7090 23.6047 0.5559
84.7290 23.5914 0.5535
84.7490 23.5781 0.5555
84.7690 23.5648 0.5515
84.7890 23.5514 0.5525
84.8090 23.5381 0.5511
84.8290 23.5248 0.5524
84.8490 23.5115 0.5522
84.8690 23.4981 0.5510
84.8890 23.4848 0.5502
84.9090 23.4715 0.5493
84.9290 23.4582 0.5510
84.9490 23.4448 0.5505
84.9690 23.4314 0.5508
84.9890 23.4181 0.5486
85.0090 23.4048 0.5494
85.0290 23.3915 0.5492
85.0490 23.3781 0.5480
85.0690 23.3647 0.5474
85.0890 23.3514 0.5450
85.1090 23.3381 0.5481
85.1290 23.3248 0.5452
85.1490 23.3114 0.5485
85.1690 23.2981 0.5446
85.1890 23.2848 0.5467
85.2090 23.2714 0.5440
85.2290 23.2581 0.5459
85.2490 23.2448 0.5439
85.2690 23.2315 0.5448
85.2890 23.2182 0.5454
85.3090 23.2048 0.5431
85.3290 23.1914 0.5445
85.3490 23.1781 0.5436
85.3690 23.1648 0.5416
85.3890 23.1514 0.5424
85.4090 23.1381 0.5423
85.4290 23.1247 0.5421
85.4490 23.1114 0.5428
85.4690 23.0981 0.5425
85.4890 23.0847 0.5407
85.5090 23.0714 0.5396
85.5290 23.0581 0.5387
85.5490 23.0448 0.5383
85.5690 23.0315 0.5384
85.5890 23.0181 0.5398
85.6090 23.0048 0.5384
85.6290 22.9915 0.5391
85.6490 22.9782 0.5376
85.6690 22.9648 0.5373
85.6890 22.9514 0.5368
85.7090 22.9381 0.5356
85.7290 22.9248 0.5358
85.7490 22.9115 0.5354
85.7690 22.8981 0.5353
85.7890 22.8847 0.5333
85.8090 22.8714 0.5338
85.8290 22.8581 0.5358
85.8490 22.8448 0.5330
85.8690 22.8314 0.5334
85.8890 22.8181 0.5337
85.9090 22.8048 0.5322
85.9290 22.7914 0.5327
85.9490 22.7781 0.5332
85.9690 22.7647 0.5317
85.9890 22.7514 0.5314
86.0090 22.7381 0.5304
86.0290 22.7248 0.5298
86.0490 22.7115 0.5297
86.0690 22.6982 0.5294
86.0890 22.6848 0.5288
86.1090 22.6715 0.5299
86.1290 22.6581 0.5304
86.1490 22.6447 0.5284
86.1690 22.6314 0.5286
86.1890 22.6181 0.5293
86.2090 22.6048 0.5288
86.2290 22.5914 0.5281
86.2490 22.5780 0.5262
86.2690 22.5647 0.5271
86.2890 22.5514 0.5284
86.3090 22.5381 0.5286
86.3290 22.5248 0.5254
86.3490 22.5114 0.5240
86.3690 22.4981 0.5258
86.3890 22.4848 0.5252
86.4090 22.4715 0.5258
86.4290 22.4581 0.5261
86.4490 22.4448 0.5222
86.4690 22.4315 0.5230
86.4890 22.4181 0.5225
86.5090 22.4047 0.5219
86.5290 22.3914 0.5224
86.5490 22.3781 0.5213
86.5690 22.3648 0.5205
86.5890 22.3514 0.5194
86.6090 22.3380 0.5227
86.6290 22.3247 0.5206
86.6490 22.3114 0.5211
86.6690 22.2981 0.5217
86.6890 22.2847 0.5183
86.7090 22.2714 0.5195
86.7290 22.2582 0.5190
86.7490 22.2448 0.5166
86.7690 22.2315 0.5170
86.7890 22.2181 0.5217
86.8090 22.2048 0.5189
86.8290 22.1915 0.5166
86.8490 22.1781 0.5174
86.8690 22.1647 0.5169
86.8890 22.1514 0.5173
86.9090 22.1381 0.5175
86.9290 22.1247 0.5156
86.9490 22.1114 0.5153
86.9690 22.0980 0.5151
86.9890 22.0848 0.5118
87.0090 22.0714 0.5139
87.0290 22.0581 0.5139
87.0490 22.0448 0.5146
87.0690 22.0315 0.5139
87.0890 22.0182 0.5123
87.1090 22.0049 0.5115
87.1290 21.9915 0.5110
87.1490 21.9781 0.5117
87.1690 21.9648 0.5108
87.1890 21.9515 0.5123
87.2090 21.9381 0.5133
87.2290 21.9247 0.5106
87.2490 21.9114 0.5110
87.2690 21.8981 0.5119
87.2890 21.8847 0.5095
87.3090 21.8714 0.5104
87.3290 21.8580 0.5101
87.3490 21.8447 0.5087
87.3690 21.8314 0.5063
87.3890 21.8181 0.5083
87.4090 21.8048 0.5075
87.4290 21.7914 0.5076
87.4490 21.7781 0.5075
87.4690 21.7648 0.5051
87.4890 21.7515 0.5062
87.5090 21.7381 0.5072
87.5290 21.7248 0.5053
87.5490 21.7115 0.5068
87.5690 21.6981 0.5057
87.5890 21.6848 0.5044
87.6090 21.6714 0.5040
87.6290 21.6581 0.5042
87.6490 21.6448 0.5044
87.6690 21.6314 0.5048
87.6890 21.6180 0.5048
87.7090 21.6047 0.5011
87.7290 21.5914 0.5014
87.7490 21.5781 0.5034
87.7690 21.5647 0.5003
87.7890 21.5514 0.5000
87.8090 21.5382 0.5000
87.8290 21.5248 0.4995
87.8490 21.5115 0.5007
87.8690 21.4981 0.5017
87.8890 21.4848 0.4983
87.9090 21.4715 0.4989
87.9290 21.4581 0.4994
87.9490 21.4448 0.4993
87.9690 21.4314 0.4990
87.9890 21.4181 0.5020
88.0090 21.4048 0.4965
88.0290 21.3914 0.4965
88.0490 21.3780 0.4981
88.0690 21.3647 0.4954
88.0890 21.3514 0.4955
88.1090 21.3381 0.4968
88.1290 21.3247 0.4972
88.1490 21.3114 0.4967
88.1690 21.2981 0.4971
88.1890 21.2848 0.4927
88.2090 21.2715 0.4956
88.2290 21.2581 0.4958
88.2490 21.2448 0.4945
88.2690 21.2315 0.4931
88.2890 21.2181 0.4997
88.3090 21.2047 0.4933
88.3290 21.1914 0.4931
88.3490 21.1781 0.4921
88.3690 21.1647 0.4922
88.3890 21.1514 0.4931
88.4090 21.1380 0.4945
88.4290 21.1247 0.4901
88.4490 21.1114 0.4913
88.4690 21.0981 0.4917
88.4890 21.0848 0.4898
88.5090 21.0715 0.4897
88.5290 21.0582 0.4914
88.5490 21.0449 0.4896
88.5690 21.0315 0.4905
88.5890 21.0181 0.4905
88.6090 21.0048 0.4866
88.6290 20.9915 0.4865
88.6490 20.9781 0.4871
88.6690 20.9647 0.4852
88.6890 20.9514 0.4876
88.7090 20.9381 0.4903
88.7290 20.9248 0.4874
88.7490 20.9114 0.4860
88.7690 20.8980 0.4870
88.7890 20.8847 0.4862
88.8090 20.8714 0.4858
88.8290 20.8581 0.4862
88.8490 20.8448 0.4843
88.8690 20.8314 0.4862
88.8890 20.8181 0.4859
88.9090 20.8048 0.4841
88.9290 20.7915 0.4874
88.9490 20.7781 0.4862
88.9690 20.7648 0.4828
88.9890 20.7515 0.4823
89.0090 20.7381 0.4848
89.0290 20.7247 0.4831
89.0490 20.7114 0.4814
89.0690 20.6981 0.4816
89.0890 20.6847 0.4806
89.1090 20.6714 0.4803
89.1290 20.6580 0.4827
89.1490 20.6447 0.4816
89.1690 20.6314 0.4789
89.1890 20.6181 0.4814
89.2090 20.6047 0.4782
89.2290 20.5914 0.4786
89.2490 20.5781 0.4798
89.2690 20.5648 0.4790
89.2890 20.5515 0.4763
89.3090 20.5381 0.4789
89.3290 20.5248 0.4782
89.3490 20.5115 0.4784
89.3690 20.4981 0.4781
89.3890 20.4847 0.4773
89.4090 20.4714 0.4763
89.4290 20.4581 0.4762
89.4490 20.4447 0.4748
89.4690 20.4314 0.4749
89.4890 20.4181 0.4756
89.5090 20.4047 0.4748
89.5290 20.3915 0.4736
89.5490 20.3781 0.4743
89.5690 20.3648 0.4719
89.5890 20.3514 0.4714
89.6090 20.3382 0.4751
89.6290 20.3248 0.4745
89.6490 20.3115 0.4724
89.6690 20.2981 0.4736
89.6890 20.2848 0.4709
89.7090 20.2715 0.4728
89.7290 20.2581 0.4716
89.7490 20.2447 0.4717
89.7690 20.2314 0.4687
89.7890 20.2181 0.4725
89.8090 20.2048 0.4703
89.8290 20.1915 0.4711
89.8490 20.1781 0.4703
89.8690 20.1647 0.4712
89.8890 20.1514 0.4709
89.9090 20.1381 0.4719
89.9290 20.1248 0.4705
89.9490 20.1114 0.4689
89.9690 20.0981 0.4693
89.9890 20.0849 0.4666
90.0090 20.0715 0.4686
90.0290 20.0581 0.4673
90.0490 20.0448 0.4686
90.0690 20.0315 0.4649
90.0890 20.0181 0.4667
90.1090 20.0048 0.4653
90.1290 19.9914 0.4655
90.1490 19.9781 0.4662
90.1690 19.9647 0.4662
90.1890 19.9514 0.4632
90.2090 19.9380 0.4651
90.2290 19.9247 0.4649
90.2490 19.9114 0.4638
90.2690 19.8981 0.4648
90.2890 19.8848 0.4639
90.3090 19.8714 0.4630
90.3290 19.8581 0.4643
90.3490 19.8448 0.4632
90.3690 19.8315 0.4606
90.3890 19.8181 0.4618
90.4090 19.8048 0.4622
90.4290 19.7915 0.4606
90.4490 19.7781 0.4598
90.4690 19.7647 0.4588
90.4890 19.7514 0.4604
90.5090 19.7380 0.4612
90.5290 19.7247 0.4627
90.5490 19.7114 0.4605
90.5690 19.6980 0.4621
90.5890 19.6847 0.4606
90.6090 19.6714 0.4587
90.6290 19.6581 0.4585
90.6490 19.6448 0.4597
90.6690 19.6315 0.4576
90.6890 19.6181 0.4573
90.7090 19.6048 0.4567
90.7290 19.5915 0.4557
90.7490 19.5781 0.4575
90.7690 19.5648 0.4576
90.7890 19.5515 0.4528
90.8090 19.5381 0.4573
90.8290 19.5247 0.4559
90.8490 19.5114 0.4543
90.8690 19.4981 0.4547
90.8890 19.4848 0.4537
90.9090 19.4715 0.4509
90.9290 19.4581 0.4557
90.9490 19.4447 0.4550
90.9690 19.4314 0.4521
90.9890 19.4181 0.4535
91.0090 19.4048 0.4528
91.0290 19.3914 0.4523
91.0490 19.3781 0.4528
91.0690 19.3648 0.4532
91.0890 19.3515 0.4521
91.1090 19.3381 0.4521
91.1290 19.3248 0.4512
91.1490 19.3115 0.4495
91.1690 19.2982 0.4502
91.1890 19.2848 0.4516
91.2090 19.2714 0.4492
91.2290 19.2581 0.4518
91.2490 19.2448 0.4508
91.2690 19.2314 0.4461
91.2890 19.2180 0.4485
91.3090 19.2047 0.4467
91.3290 19.1914 0.4453
91.3490 19.1781 0.4467
91.3690 19.1648 0.4471
91.3890 19.1514 0.4480
91.4090 19.1381 0.4484
91.4290 19.1248 0.4471
91.4490 19.1115 0.4457
91.4690 19.0981 0.4474
91.4890 19.0848 0.4468
91.5090 19.0715 0.4444
91.5290 19.0581 0.4447
91.5490 19.0448 0.4450
91.5690 19.0314 0.4447
91.5890 19.0181 0.4443
91.6090 19.0048 0.4428
91.6290 18.9914 0.4427
91.6490 18.9781 0.4447
91.6690 18.9647 0.4444
91.6890 18.9514 0.4409
91.7090 18.9381 0.4421
91.7290 18.9248 0.4434
91.7490 18.9114 0.4407
91.7690 18.8981 0.4444
91.7890 18.8848 0.4434
91.8090 18.8715 0.4407
91.8290 18.8581 0.4428
91.8490 18.8448 0.4420
91.8690 18.8315 0.4389
91.8890 18.8182 0.4403
91.9090 18.8048 0.4406
91.9290 18.7914 0.4388
91.9490 18.7781 0.4371
91.9690 18.7648 0.4374
91.9890 18.7515 0.4386
92.0090 18.7381 0.4406
92.0290 18.7247 0.4400
92.0490 18.7114 0.4341
92.0690 18.6981 0.4378
92.0890 18.6847 0.4374
92.1090 18.6714 0.4377
92.1290 18.6581 0.4376
92.1490 18.6448 0.4372
92.1690 18.6315 0.4340
92.1890 18.6181 0.4379
92.2090 18.6048 0.4367
92.2290 18.5915 0.4345
92.2490 18.5781 0.4343
92.2690 18.5648 0.4359
92.2890 18.5514 0.4328
92.3090 18.5380 0.4354
92.3290 18.5247 0.4353
92.3490 18.5114 0.4322
92.3690 18.4981 0.4324
92.3890 18.4848 0.4334
92.4090 18.4714 0.4328
92.4290 18.4581 0.4333
92.4490 18.4448 0.4314
92.4690 18.4314 0.4301
92.4890 18.4181 0.4319
92.5090 18.4048 0.4309
92.5290 18.3915 0.4273
92.5490 18.3781 0.4301
92.5690 18.3648 0.4307
92.5890 18.3514 0.4282
92.6090 18.3381 0.4305
92.6290 18.3248 0.4331
92.6490 18.3114 0.4287
92.6690 18.2980 0.4289
92.6890 18.2847 0.4303
92.7090 18.2714 0.4268
92.7290 18.2581 0.4274
92.7490 18.2447 0.4284
92.7690 18.2314 0.4272
92.7890 18.2181 0.4273
92.8090 18.2048 0.4274
92.8290 18.1915 0.4242
92.8490 18.1781 0.4273
92.8690 18.1648 0.4254
92.8890 18.1515 0.4243
92.9090 18.1381 0.4236
92.9290 18.1248 0.4254
92.9490 18.1114 0.4231
92.9690 18.0981 0.4257
92.9890 18.0848 0.4271
93.0090 18.0714 0.4262
93.0290 18.0581 0.4251
93.0490 18.0447 0.4275
93.0690 18.0314 0.4219
93.0890 18.0181 0.4259
93.1090 18.0047 0.4242
93.1290 17.9914 0.4223
93.1490 17.9781 0.4223
93.1690 17.9648 0.4251
93.1890 17.9514 0.4193
93.2090 17.9381 0.4228
93.2290 17.9248 0.4205
93.2490 17.9115 0.4217
93.2690 17.8982 0.4221
93.2890 17.8848 0.4224
93.3090 17.8715 0.4187
93.3290 17.8582 0.4185
93.3490 17.8448 0.4199
93.3690 17.8314 0.4184
93.3890 17.8181 0.4195
93.4090 17.8048 0.4191
93.4290 17.7914 0.4157
93.4490 17.7780 0.4170
93.4690 17.7647 0.4192
93.4890 17.7513 0.4182
93.5090 17.7381 0.4177
93.5290 17.7248 0.4172
93.5490 17.7114 0.4157
93.5690 17.6981 0.4159
93.5890 17.6848 0.4172
93.6090 17.6715 0.4136
93.6290 17.6581 0.4151
93.6490 17.6448 0.4150
93.6690 17.6314 0.4148
93.6890 17.6181 0.4141
93.7090 17.6048 0.4152
93.7290 17.5914 0.4150
93.7490 17.5780 0.4154
93.7690 17.5647 0.4150
93.7890 17.5514 0.4127
93.8090 17.5381 0.4117
93.8290 17.5247 0.4141
93.8490 17.5114 0.4126
93.8690 17.4981 0.4110
93.8890 17.4848 0.4138
93.9090 17.4714 0.4111
93.9290 17.4581 0.4107
93.9490 17.4448 0.4140
93.9690 17.4315 0.4115
93.9890 17.4182 0.4121
94.0090 17.4048 0.4101
94.0290 17.3915 0.4076
94.0490 17.3781 0.4072
94.0690 17.3648 0.4099
94.0890 17.3514 0.4074
94.1090 17.3381 0.4080
94.1290 17.3248 0.4071
94.1490 17.3114 0.4078
94.1690 17.2981 0.4076
94.1890 17.2847 0.4107
94.2090 17.2714 0.4061
94.2290 17.2581 0.4077
94.2490 17.2448 0.4072
94.2690 17.2314 0.4075
94.2890 17.2181 0.4067
94.3090 17.2048 0.4064
94.3290 17.1915 0.4045
94.3490 17.1782 0.4046
94.3690 17.1648 0.4068
94.3890 17.1515 0.4060
94.4090 17.1382 0.4033
94.4290 17.1248 0.4041
94.4490 17.1114 0.4023
94.4690 17.0980 0.4034
94.4890 17.0847 0.4054
94.5090 17.0714 0.4034
94.5290 17.0581 0.4035
94.5490 17.0447 0.4044
94.5690 17.0314 0.4020
94.5890 17.0181 0.4012
94.6090 17.0048 0.4024
94.6290 16.9914 0.4016
94.6490 16.9781 0.4000
94.6690 16.9648 0.4015
94.6890 16.9515 0.4022
94.7090 16.9381 0.4005
94.7290 16.9248 0.4035
94.7490 16.9115 0.4018
94.7690 16.8982 0.4004
94.7890 16.8848 0.3990
94.8090 16.8715 0.3990
94.8290 16.8581 0.3989
94.8490 16.8448 0.3990
94.8690 16.8314 0.3988
94.8890 16.8181 0.3974
94.9090 16.8047 0.3998
94.9290 16.7914 0.3977
94.9490 16.7781 0.3969
94.9690 16.7648 0.3975
94.9890 16.7514 0.3963
95.0090 16.7381 0.3951
95.0290 16.7248 0.3970
95.0490 16.7115 0.3955
95.0690 16.6982 0.3950
95.0890 16.6848 0.3960
95.1090 16.6715 0.3964
95.1290 16.6582 0.3960
95.1490 16.6448 0.3939
95.1690 16.6315 0.3959
95.1890 16.6181 0.3943
95.2090 16.6048 0.3960
95.2290 16.5915 0.3932
95.2490 16.5781 0.3935
95.2690 16.5647 0.3953
95.2890 16.5514 0.3934
95.3090 16.5381 0.3917
95.3290 16.5247 0.3938
95.3490 16.5114 0.3914
95.3690 16.4981 0.3901
95.3890 16.4848 0.3915
95.4090 16.4715 0.3907
95.4290 16.4582 0.3890
95.4490 16.4448 0.3909
95.4690 16.4315 0.3923
95.4890 16.4182 0.3911
95.5090 16.4048 0.3913
95.5290 16.3915 0.3892
95.5490 16.3781 0.3887
95.5690 16.3647 0.3899
95.5890 16.3514 0.3885
95.6090 16.3381 0.3863
95.6290 16.3247 0.3888
95.6490 16.3114 0.3895
95.6690 16.2981 0.3861
95.6890 16.2848 0.3867
95.7090 16.2715 0.3864
95.7290 16.2581 0.3863
95.7490 16.2448 0.3880
95.7690 16.2315 0.3863
95.7890 16.2182 0.3842
95.8090 16.2048 0.3869
95.8290 16.1914 0.3858
95.8490 16.1781 0.3813
95.8690 16.1648 0.3838
95.8890 16.1514 0.3850
95.9090 16.1380 0.3848
95.9290 16.1247 0.3857
95.9490 16.1114 0.3832
95.9690 16.0981 0.3824
95.9890 16.0847 0.3849
96.0090 16.0714 0.3840
96.0290 16.0581 0.3813
96.0490 16.0448 0.3839
96.0690 16.0314 0.3827
96.0890 16.0181 0.3812
96.1090 16.0048 0.3829
96.1290 15.9915 0.3813
96.1490 15.9782 0.3801
96.1690 15.9648 0.3800
96.1890 15.9514 0.3809
96.2090 15.9381 0.3804
96.2290 15.9248 0.3800
96.2490 15.9114 0.3796
96.2690 15.8981 0.3785
96.2890 15.8847 0.3804
96.3090 15.8714 0.3796
96.3290 15.8581 0.3777
96.3490 15.8447 0.3805
96.3690 15.8314 0.3797
96.3890 15.8181 0.3774
96.4090 15.8048 0.3787
96.4290 15.7915 0.3775
96.4490 15.7781 0.3783
96.4690 15.7648 0.3776
96.4890 15.7515 0.3775
96.5090 15.7382 0.3778
96.5290 15.7248 0.3780
96.5490 15.7114 0.3783
96.5690 15.6981 0.3760
96.5890 15.6848 0.3770
96.6090 15.6714 0.3746
96.6290 15.6581 0.3746
96.6490 15.6447 0.3758
96.6690 15.6314 0.3763
96.6890 15.6181 0.3731
96.7090 15.6048 0.3743
96.7290 15.5914 0.3749
96.7490 15.5781 0.3737
96.7690 15.5648 0.3739
96.7890 15.5514 0.3734
96.8090 15.5381 0.3725
96.8290 15.5248 0.3726
96.8490 15.5115 0.3711
96.8690 15.4982 0.3700
96.8890 15.4848 0.3723
96.9090 15.4714 0.3732
96.9290 15.4581 0.3702
96.9490 15.4448 0.3716
96.9690 15.4314 0.3697
96.9890 15.4180 0.3692
97.0090 15.4047 0.3689
97.0290 15.3914 0.3698
97.0490 15.3781 0.3679
97.0690 15.3647 0.3705
97.0890 15.3514 0.3696
97.1090 15.3380 0.3685
97.1290 15.3247 0.3712
97.1490 15.3114 0.3680
97.1690 15.2981 0.3678
97.1890 15.2848 0.3691
97.2090 15.2715 0.3676
97.2290 15.2582 0.3661
97.2490 15.2448 0.3679
97.2690 15.2315 0.3683
97.2890 15.2181 0.3663
97.3090 15.2048 0.3651
97.3290 15.1914 0.3652
97.3490 15.1781 0.3630
97.3690 15.1647 0.3660
97.3890 15.1514 0.3645
97.4090 15.1381 0.3638
97.4290 15.1247 0.3643
97.4490 15.1114 0.3632
97.4690 15.0981 0.3619
97.4890 15.0848 0.3646
97.5090 15.0714 0.3638
97.5290 15.0581 0.3631
97.5490 15.0448 0.3624
97.5690 15.0315 0.3633
97.5890 15.0182 0.3617
97.6090 15.0049 0.3622
97.6290 14.9915 0.3623
97.6490 14.9782 0.3599
97.6690 14.9648 0.3619
97.6890 14.9514 0.3615
97.7090 14.9381 0.3583
97.7290 14.9247 0.3607
97.7490 14.9114 0.3601
97.7690 14.8981 0.3602
97.7890 14.8847 0.3581
97.8090 14.8714 0.3591
97.8290 14.8581 0.3559
97.8490 14.8448 0.3585
97.8690 14.8315 0.3606
97.8890 14.8181 0.3577
97.9090 14.8048 0.3585
97.9290 14.7915 0.3591
97.9490 14.7782 0.3554
97.9690 14.7648 0.3571
97.9890 14.7514 0.3570
98.0090 14.7381 0.3581
98.0290 14.7248 0.3559
98.0490 14.7114 0.3551
98.0690 14.6981 0.3560
98.0890 14.6847 0.3565
98.1090 14.6714 0.3553
98.1290 14.6581 0.3557
98.1490 14.6448 0.3536
98.1690 14.6314 0.3558
98.1890 14.6181 0.3548
98.2090 14.6048 0.3537
98.2290 14.5914 0.3553
98.2490 14.5781 0.3535
98.2690 14.5647 0.3545
98.2890 14.5514 0.3547
98.3090 14.5381 0.3524
98.3290 14.5248 0.3538
98.3490 14.5115 0.3533
98.3690 14.4981 0.3497
98.3890 14.4848 0.3525
98.4090 14.4714 0.3512
98.4290 14.4581 0.3495
98.4490 14.4447 0.3497
98.4690 14.4314 0.3507
98.4890 14.4181 0.3509
98.5090 14.4047 0.3500
98.5290 14.3914 0.3481
98.5490 14.3780 0.3507
98.5690 14.3647 0.3494
98.5890 14.3514 0.3508
98.6090 14.3381 0.3489
98.6290 14.3247 0.3483
98.6490 14.3114 0.3492
98.6690 14.2981 0.3469
98.6890 14.2848 0.3476
98.7090 14.2715 0.3486
98.7290 14.2581 0.3460
98.7490 14.2448 0.3459
98.7690 14.2315 0.3460
98.7890 14.2181 0.3459
98.8090 14.2047 0.3452
98.8290 14.1914 0.3446
98.8490 14.1781 0.3465
98.8690 14.1648 0.3461
98.8890 14.1514 0.3444
98.9090 14.1381 0.3466
98.9290 14.1248 0.3431
98.9490 14.1115 0.3469
98.9690 14.0981 0.3420
98.9890 14.0848 0.3435
99.0090 14.0715 0.3435
99.0290 14.0582 0.3431
99.0490 14.0448 0.3415
99.0690 14.0314 0.3443
99.0890 14.0181 0.3422
99.1090 14.0048 0.3427
99.1290 13.9915 0.3428
99.1490 13.9781 0.3402
99.1690 13.9648 0.3401
99.1890 13.9514 0.3422
99.2090 13.9381 0.3428
99.2290 13.9248 0.3412
99.2490 13.9114 0.3444
99.2690 13.8981 0.3391
99.2890 13.8848 0.3402
99.3090 13.8714 0.3383
99.3290 13.8581 0.3398
99.3490 13.8447 0.3399
99.3690 13.8315 0.3399
99.3890 13.8182 0.3363
99.4090 13.8048 0.3373
99.4290 13.7915 0.3402
99.4490 13.7781 0.3379
99.4690 13.7648 0.3375
99.4890 13.7514 0.3382
99.5090 13.7381 0.3367
99.5290 13.7247 0.3383
99.5490 13.7114 0.3388
99.5690 13.6981 0.3343
99.5890 13.6848 0.3347
99.6090 13.6714 0.3359
99.6290 13.6581 0.3344
99.6490 13.6448 0.3344
99.6690 13.6315 0.3344
99.6890 13.6181 0.3339
99.7090 13.6048 0.3336
99.7290 13.5915 0.3356
99.7490 13.5782 0.3317
99.7690 13.5648 0.3331
99.7890 13.5514 0.3317
99.8090 13.5381 0.3325
99.8290 13.5248 0.3329
99.8490 13.5115 0.3331
99.8690 13.4981 0.3323
99.8890 13.4847 0.3338
99.9090 13.4714 0.3314
99.9290 13.4581 0.3307
99.9490 13.4448 0.3314
99.9690 13.4314 0.3311
99.9890 13.4181 0.3329
100.0090 13.4047 0.3311
100.0290 13.3914 0.3323
100.0490 13.3781 0.3304
100.0690 13.3648 0.3311
100.0890 13.3515 0.3296
100.1090 13.3382 0.3296
100.1290 13.3248 0.3292
100.1490 13.3114 0.3269
100.1690 13.2981 0.3278
100.1890 13.2848 0.3293
100.2090 13.2715 0.3282
100.2290 13.2581 0.3274
100.2490 13.2447 0.3273
100.2690 13.2314 0.3270
100.2890 13.2181 0.3262
100.3090 13.2048 0.3253
100.3290 13.1914 0.3257
100.3490 13.1781 0.3249
100.3690 13.1648 0.3253
100.3890 13.1514 0.3242
100.4090 13.1381 0.3239
100.4290 13.1247 0.3243
100.4490 13.1114 0.3252
100.4690 13.0981 0.3254
100.4890 13.0848 0.3244
100.5090 13.0715 0.3247
100.5290 13.0582 0.3254
100.5490 13.0448 0.3224
100.5690 13.0315 0.3231
100.5890 13.0181 0.3220
100.6090 13.0047 0.3220
100.6290 12.9914 0.3238
100.6490 12.9781 0.3222
100.6690 12.9648 0.3221
100.6890 12.9514 0.3201
100.7090 12.9380 0.3214
100.7290 12.9247 0.3199
100.7490 12.9114 0.3207
100.7690 12.8981 0.3201
100.7890 12.8848 0.3203
100.8090 12.8714 0.3191
100.8290 12.8581 0.3188
100.8490 12.8448 0.3181
100.8690 12.8315 0.3186
100.8890 12.8181 0.3193
100.9090 12.8048 0.3185
100.9290 12.7915 0.3190
100.9490 12.7781 0.3168
100.9690 12.7647 0.3174
100.9890 12.7514 0.3186
101.0090 12.7381 0.3185
101.0290 12.7248 0.3167
101.0490 12.7114 0.3172
101.0690 12.6980 0.3175
101.0890 12.6847 0.3166
101.1090 12.6714 0.3185
101.1290 12.6581 0.3154
101.1490 12.6447 0.3157
101.1690 12.6314 0.3175
101.1890 12.6182 0.3156
101.2090 12.6048 0.3143
101.2290 12.5915 0.3127
101.2490 12.5781 0.3129
101.2690 12.5648 0.3148
101.2890 12.5515 0.3144
101.3090 12.5381 0.3132
101.3290 12.5248 0.3129
101.3490 12.5114 0.3144
101.3690 12.4981 0.3114
101.3890 12.4847 0.3120
101.4090 12.4714 0.3128
101.4290 12.4580 0.3133
101.4490 12.4447 0.3126
101.4690 12.4314 0.3117
101.4890 12.4181 0.3086
101.5090 12.4047 0.3104
101.5290 12.3914 0.3100
101.5490 12.3782 0.3086
101.5690 12.3649 0.3094
101.5890 12.3515 0.3102
101.6090 12.3381 0.3093
101.6290 12.3248 0.3078
101.6490 12.3115 0.3094
101.6690 12.2981 0.3087
101.6890 12.2847 0.3078
101.7090 12.2714 0.3086
101.7290 12.2581 0.3073
101.7490 12.2447 0.3070
101.7690 12.2314 0.3053
101.7890 12.2180 0.3045
101.8090 12.2047 0.3037
101.8290 12.1914 0.3041
101.8490 12.1781 0.3061
101.8690 12.1648 0.3055
101.8890 12.1514 0.3057
101.9090 12.1381 0.3067
101.9290 12.1248 0.3048
101.9490 12.1115 0.3033
101.9690 12.0981 0.3033
101.9890 12.0848 0.3032
102.0090 12.0715 0.3016
102.0290 12.0581 0.3015
102.0490 12.0448 0.3026
102.0690 12.0314 0.3013
102.0890 12.0181 0.3030
102.1090 12.0048 0.3017
102.1290 11.9914 0.3013
102.1490 11.9780 0.3017
102.1690 11.9647 0.3013
102.1890 11.9514 0.2997
102.2090 11.9381 0.3018
102.2290 11.9247 0.2992
102.2490 11.9114 0.2998
102.2690 11.8981 0.2982
102.2890 11.8848 0.2991
102.3090 11.8715 0.2979
102.3290 11.8581 0.2993
102.3490 11.8448 0.2974
102.3690 11.8315 0.2969
102.3890 11.8181 0.2984
102.4090 11.8048 0.2964
102.4290 11.7914 0.2980
102.4490 11.7781 0.2967
102.4690 11.7648 0.2960
102.4890 11.7514 0.2961
102.5090 11.7381 0.2961
102.5290 11.7247 0.2967
102.5490 11.7114 0.2964
102.5690 11.6981 0.2973
102.5890 11.6847 0.2943
102.6090 11.6714 0.2962
102.6290 11.6581 0.2937
102.6490 11.6448 0.2935
102.6690 11.6315 0.2916
102.6890 11.6181 0.2953
102.7090 11.6048 0.2922
102.7290 11.5915 0.2951
102.7490 11.5781 0.2919
102.7690 11.5648 0.2904
102.7890 11.5514 0.2911
102.8090 11.5381 0.2912
102.8290 11.5247 0.2933
102.8490 11.5114 0.2920
102.8690 11.4980 0.2910
102.8890 11.4847 0.2894
102.9090 11.4714 0.2894
102.9290 11.4581 0.2894
102.9490 11.4448 0.2898
102.9690 11.4315 0.2908
102.9890 11.4182 0.2904
103.0090 11.4049 0.2898
103.0290 11.3915 0.2889
103.0490 11.3781 0.2890
103.0690 11.3648 0.2887
103.0890 11.3515 0.2878
103.1090 11.3381 0.2866
103.1290 11.3247 0.2863
103.1490 11.3114 0.2874
103.1690 11.2981 0.2882
103.1890 11.2848 0.2863
103.2090 11.2714 0.2847
103.2290 11.2581 0.2865
103.2490 11.2447 0.2847
103.2690 11.2314 0.2872
103.2890 11.2181 0.2849
103.3090 11.2047 0.2859
103.3290 11.1914 0.2841
103.3490 11.1781 0.2862
103.3690 11.1648 0.2864
103.3890 11.1515 0.2842
103.4090 11.1381 0.2825
103.4290 11.1248 0.2830
103.4490 11.1115 0.2816
103.4690 11.0981 0.2825
103.4890 11.0848 0.2824
103.5090 11.0714 0.2823
103.5290 11.0581 0.2829
103.5490 11.0448 0.2801
103.5690 11.0314 0.2793
103.5890 11.0181 0.2794
103.6090 11.0047 0.2807
103.6290 10.9914 0.2814
103.6490 10.9781 0.2816
103.6690 10.9648 0.2820
103.6890 10.9514 0.2818
103.7090 10.9381 0.2814
103.7290 10.9248 0.2811
103.7490 10.9115 0.2802
103.7690 10.8981 0.2797
103.7890 10.8848 0.2792
103.8090 10.8714 0.2783
103.8290 10.8581 0.2785
103.8490 10.8448 0.2781
103.8690 10.8314 0.2787
103.8890 10.8181 0.2775
103.9090 10.8048 0.2785
103.9290 10.7914 0.2759
103.9490 10.7781 0.2759
103.9690 10.7647 0.2775
103.9890 10.7514 0.2770
104.0090 10.7381 0.2766
104.0290 10.7248 0.2754
104.0490 10.7114 0.2762
104.0690 10.6981 0.2753
104.0890 10.6848 0.2758
104.1090 10.6715 0.2754
104.1290 10.6581 0.2749
104.1490 10.6448 0.2730
104.1690 10.6314 0.2723
104.1890 10.6181 0.2726
104.2090 10.6048 0.2743
104.2290 10.5914 0.2726
104.2490 10.5781 0.2733
104.2690 10.5648 0.2730
104.2890 10.5514 0.2714
104.3090 10.5380 0.2713
104.3290 10.5247 0.2705
104.3490 10.5114 0.2687
104.3690 10.4981 0.2701
104.3890 10.4848 0.2702
104.4090 10.4714 0.2718
104.4290 10.4581 0.2696
104.4490 10.4449 0.2693
104.4690 10.4315 0.2689
104.4890 10.4181 0.2687
104.5090 10.4048 0.2691
104.5290 10.3915 0.2672
104.5490 10.3781 0.2670
104.5690 10.3648 0.2696
104.5890 10.3514 0.2687
104.6090 10.3380 0.2695
104.6290 10.3247 0.2672
104.6490 10.3114 0.2657
104.6690 10.2981 0.2654
104.6890 10.2847 0.2645
104.7090 10.2714 0.2633
104.7290 10.2581 0.2640
104.7490 10.2448 0.2650
104.7690 10.2314 0.2641
104.7890 10.2181 0.2637
104.8090 10.2049 0.2644
104.8290 10.1915 0.2628
104.8490 10.1782 0.2631
104.8690 10.1648 0.2637
104.8890 10.1515 0.2649
104.9090 10.1381 0.2622
104.9290 10.1247 0.2617
104.9490 10.1114 0.2597
104.9690 10.0980 0.2587
104.9890 10.0847 0.2611
105.0090 10.0714 0.2608
105.0290 10.0580 0.2604
105.0490 10.0447 0.2625
105.0690 10.0314 0.2590
105.0890 10.0181 0.2594
105.1090 10.0048 0.2592
105.1290 9.9914 0.2585
105.1490 9.9781 0.2599
105.1690 9.9648 0.2601
105.1890 9.9515 0.2580
105.2090 9.9381 0.2584
105.2290 9.9248 0.2577
105.2490 9.9114 0.2570
105.2690 9.8981 0.2567
105.2890 9.8848 0.2567
105.3090 9.8714 0.2549
105.3290 9.8581 0.2560
105.3490 9.8448 0.2564
105.3690 9.8315 0.2540
105.3890 9.8181 0.2543
105.4090 9.8047 0.2548
105.4290 9.7914 0.2520
105.4490 9.7781 0.2533
105.4690 9.7648 0.2533
105.4890 9.7514 0.2532
105.5090 9.7381 0.2532
105.5290 9.7248 0.2553
105.5490 9.7115 0.2540
105.5690 9.6981 0.2523
105.5890 9.6848 0.2521
105.6090 9.6715 0.2506
105.6290 9.6582 0.2514
105.6490 9.6448 0.2520
105.6690 9.6314 0.2502
105.6890 9.6180 0.2510
105.7090 9.6047 0.2506
105.7290 9.5914 0.2483
105.7490 9.5780 0.2500
105.7690 9.5647 0.2501
105.7890 9.5514 0.2486
105.8090 9.5381 0.2486
105.8290 9.5248 0.2491
105.8490 9.5114 0.2486
105.8690 9.4981 0.2492
105.8890 9.4848 0.2482
105.9090 9.4715 0.2464
105.9290 9.4581 0.2465
105.9490 9.4448 0.2495
105.9690 9.4315 0.2494
105.9890 9.4181 0.2475
106.0090 9.4048 0.2455
106.0290 9.3914 0.2454
106.0490 9.3781 0.2437
106.0690 9.3648 0.2458
106.0890 9.3514 0.2447
106.1090 9.3381 0.2444
106.1290 9.3247 0.2445
106.1490 9.3114 0.2454
106.1690 9.2981 0.2432
106.1890 9.2848 0.2433
106.2090 9.2714 0.2422
106.2290 9.2581 0.2439
106.2490 9.2448 0.2426
106.2690 9.2315 0.2424
106.2890 9.2181 0.2398
106.3090 9.2048 0.2430
106.3290 9.1915 0.2400
106.3490 9.1781 0.2402
106.3690 9.1648 0.2407
106.3890 9.1514 0.2403
106.4090 9.1381 0.2409
106.4290 9.1248 0.2419
106.4490 9.1114 0.2384
106.4690 9.0981 0.2384
106.4890 9.0847 0.2376
106.5090 9.0714 0.2386
106.5290 9.0581 0.2376
106.5490 9.0447 0.2382
106.5690 9.0314 0.2371
106.5890 9.0181 0.2361
106.6090 9.0048 0.2384
106.6290 8.9915 0.2376
106.6490 8.9781 0.2355
106.6690 8.9648 0.2362
106.6890 8.9515 0.2357
106.7090 8.9381 0.2348
106.7290 8.9248 0.2357
106.7490 8.9114 0.2351
106.7690 8.8980 0.2366
106.7890 8.8848 0.2374
106.8090 8.8714 0.2356
106.8290 8.8581 0.2330
106.8490 8.8448 0.2311
106.8690 8.8314 0.2328
106.8890 8.8181 0.2301
106.9090 8.8048 0.2326
106.9290 8.7914 0.2316
106.9490 8.7781 0.2323
106.9690 8.7648 0.2304
106.9890 8.7515 0.2306
107.0090 8.7381 0.2318
107.0290 8.7248 0.2303
107.0490 8.7114 0.2284
107.0690 8.6981 0.2277
107.0890 8.6848 0.2305
107.1090 8.6714 0.2305
107.1290 8.6581 0.2306
107.1490 8.6448 0.2298
107.1690 8.6314 0.2288
107.1890 8.6181 0.2254
107.2090 8.6048 0.2273
107.2290 8.5914 0.2277
107.2490 8.5781 0.2267
107.2690 8.5648 0.2262
107.2890 8.5515 0.2254
107.3090 8.5381 0.2279
107.3290 8.5248 0.2283
107.3490 8.5115 0.2276
107.3690 8.4981 0.2254
107.3890 8.4848 0.2253
107.4090 8.4714 0.2250
107.4290 8.4581 0.2225
107.4490 8.4448 0.2248
107.4690 8.4314 0.2238
107.4890 8.4181 0.2239
107.5090 8.4048 0.2229
107.5290 8.3915 0.2243
107.5490 8.3781 0.2229
107.5690 8.3647 0.2228
107.5890 8.3514 0.2222
107.6090 8.3381 0.2219
107.6290 8.3247 0.2193
107.6490 8.3114 0.2216
107.6690 8.2981 0.2206
107.6890 8.2848 0.2209
107.7090 8.2715 0.2221
107.7290 8.2582 0.2179
107.7490 8.2448 0.2191
107.7690 8.2315 0.2199
107.7890 8.2182 0.2176
107.8090 8.2048 0.2174
107.8290 8.1914 0.2184
107.8490 8.1781 0.2163
107.8690 8.1647 0.2173
107.8890 8.1514 0.2172
107.9090 8.1381 0.2152
107.9290 8.1247 0.2162
107.9490 8.1114 0.2160
107.9690 8.0981 0.2127
107.9890 8.0848 0.2147
108.0090 8.0714 0.2141
108.0290 8.0581 0.2142
108.0490 8.0448 0.2143
108.0690 8.0315 0.2164
108.0890 8.0182 0.2141
108.1090 8.0048 0.2132
108.1290 7.9914 0.2128
108.1490 7.9781 0.2108
108.1690 7.9648 0.2113
108.1890 7.9514 0.2125
108.2090 7.9380 0.2120
108.2290 7.9247 0.2114
108.2490 7.9114 0.2105
108.2690 7.8981 0.2089
108.2890 7.8847 0.2108
108.3090 7.8714 0.2101
108.3290 7.8581 0.2088
108.3490 7.8448 0.2117
108.3690 7.8314 0.2093
108.3890 7.8181 0.2089
108.4090 7.8048 0.2078
108.4290 7.7915 0.2094
108.4490 7.7782 0.2069
108.4690 7.7648 0.2092
108.4890 7.7514 0.2086
108.5090 7.7381 0.2085
108.5290 7.7248 0.2062
108.5490 7.7114 0.2070
108.5690 7.6981 0.2042
108.5890 7.6848 0.2077
108.6090 7.6714 0.2073
108.6290 7.6581 0.2079
108.6490 7.6447 0.2084
108.6690 7.6314 0.2064
108.6890 7.6181 0.2062
108.7090 7.6048 0.2034
108.7290 7.5914 0.2057
108.7490 7.5781 0.2012
108.7690 7.5648 0.2039
108.7890 7.5515 0.2033
108.8090 7.5382 0.2019
108.8290 7.5248 0.2019
108.8490 7.5115 0.2022
108.8690 7.4982 0.1996
108.8890 7.4848 0.1995
108.9090 7.4714 0.1999
108.9290 7.4581 0.1983
108.9490 7.4447 0.2006
108.9690 7.4314 0.1998
108.9890 7.4181 0.1987
109.0090 7.4047 0.1986
109.0290 7.3914 0.1995
109.0490 7.3781 0.1941
109.0690 7.3648 0.1971
109.0890 7.3514 0.1973
109.1090 7.3381 0.1974
109.1290 7.3248 0.1949
109.1490 7.3115 0.1956
109.1690 7.2981 0.1939
109.1890 7.2848 0.1963
109.2090 7.2714 0.1967
109.2290 7.2581 0.1946
109.2490 7.2448 0.1936
109.2690 7.2315 0.1943
109.2890 7.2181 0.1927
109.3090 7.2048 0.1935
109.3290 7.1914 0.1949
109.3490 7.1781 0.1907
109.3690 7.1647 0.1932
109.3890 7.1514 0.1943
109.4090 7.1380 0.1933
109.4290 7.1247 0.1917
109.4490 7.1114 0.1927
109.4690 7.0981 0.1882
109.4890 7.0848 0.1884
109.5090 7.0715 0.1888
109.5290 7.0582 0.1873
109.5490 7.0448 0.1874
109.5690 7.0315 0.1889
109.5890 7.0181 0.1846
109.6090 7.0048 0.1891
109.6290 6.9915 0.1867
109.6490 6.9781 0.1866
109.6690 6.9648 0.1848
109.6890 6.9515 0.1876
109.7090 6.9381 0.1870
109.7290 6.9247 0.1875
109.7490 6.9114 0.1864
109.7690 6.8980 0.1867
109.7890 6.8847 0.1856
109.8090 6.8714 0.1870
109.8290 6.8581 0.1839
109.8490 6.8448 0.1848
109.8690 6.8315 0.1849
109.8890 6.8182 0.1825
109.9090 6.8048 0.1832
109.9290 6.7915 0.1842
109.9490 6.7782 0.1817
109.9690 6.7648 0.1815
109.9890 6.7515 0.1818
110.0090 6.7381 0.1776
110.0290 6.7247 0.1796
110.0490 6.7114 0.1811
110.0690 6.6981 0.1811
110.0890 6.6847 0.1812
110.1090 6.6714 0.1801
110.1290 6.6581 0.1754
110.1490 6.6448 0.1774
110.1690 6.6315 0.1786
110.1890 6.6181 0.1764
110.2090 6.6048 0.1774
110.2290 6.5915 0.1775
110.2490 6.5782 0.1761
110.2690 6.5648 0.1760
110.2890 6.5515 0.1769
110.3090 6.5381 0.1748
110.3290 6.5248 0.1756
110.3490 6.5115 0.1768
110.3690 6.4981 0.1741
110.3890 6.4847 0.1746
110.4090 6.4714 0.1762
110.4290 6.4581 0.1736
110.4490 6.4447 0.1731
110.4690 6.4314 0.1753
110.4890 6.4181 0.1726
110.5090 6.4048 0.1735
110.5290 6.3914 0.1725
110.5490 6.3781 0.1717
110.5690 6.3647 0.1702
110.5890 6.3515 0.1716
110.6090 6.3381 0.1711
110.6290 6.3248 0.1711
110.6490 6.3114 0.1718
110.6690 6.2981 0.1689
110.6890 6.2848 0.1668
110.7090 6.2714 0.1692
110.7290 6.2581 0.1673
110.7490 6.2447 0.1672
110.7690 6.2314 0.1683
110.7890 6.2181 0.1678
110.8090 6.2047 0.1651
110.8290 6.1914 0.1675
110.8490 6.1781 0.1670
110.8690 6.1648 0.1654
110.8890 6.1514 0.1675
110.9090 6.1381 0.1645
110.9290 6.1248 0.1632
110.9490 6.1115 0.1670
110.9690 6.0982 0.1628
110.9890 6.0848 0.1646
111.0090 6.0714 0.1657
111.0290 6.0581 0.1626
111.0490 6.0448 0.1612
111.0690 6.0315 0.1650
111.0890 6.0181 0.1619
111.1090 6.0047 0.1618
111.1290 5.9914 0.1622
111.1490 5.9781 0.1617
111.1690 5.9648 0.1598
111.1890 5.9514 0.1611
111.2090 5.9381 0.1583
111.2290 5.9248 0.1579
111.2490 5.9115 0.1579
111.2690 5.8981 0.1576
111.2890 5.8848 0.1591
111.3090 5.8715 0.1593
111.3290 5.8582 0.1575
111.3490 5.8448 0.1558
111.3690 5.8314 0.1579
111.3890 5.8181 0.1546
111.4090 5.8048 0.1523
111.4290 5.7914 0.1548
111.4490 5.7781 0.1529
111.4690 5.7647 0.1534
111.4890 5.7514 0.1550
111.5090 5.7381 0.1531
111.5290 5.7247 0.1552
111.5490 5.7114 0.1532
111.5690 5.6980 0.1526
111.5890 5.6848 0.1523
111.6090 5.6714 0.1539
111.6290 5.6581 0.1517
111.6490 5.6448 0.1518
111.6690 5.6315 0.1521
111.6890 5.6182 0.1499
111.7090 5.6049 0.1468
111.7290 5.5915 0.1487
111.7490 5.5781 0.1481
111.7690 5.5648 0.1489
111.7890 5.5514 0.1493
111.8090 5.5381 0.1483
111.8290 5.5247 0.1466
111.8490 5.5114 0.1486
111.8690 5.4981 0.1466
111.8890 5.4847 0.1466
111.9090 5.4714 0.1481
111.9290 5.4580 0.1467
111.9490 5.4447 0.1449
111.9690 5.4314 0.1484
111.9890 5.4181 0.1452
112.0090 5.4048 0.1472
112.0290 5.3915 0.1449
112.0490 5.3782 0.1434
112.0690 5.3649 0.1431
112.0890 5.3515 0.1449
112.1090 5.3382 0.1442
112.1290 5.3248 0.1426
112.1490 5.3114 0.1416
112.1690 5.2980 0.1403
112.1890 5.2847 0.1390
112.2090 5.2714 0.1413
112.2290 5.2580 0.1402
112.2490 5.2447 0.1396
112.2690 5.2314 0.1407
112.2890 5.2181 0.1393
112.3090 5.2048 0.1383
112.3290 5.1915 0.1406
112.3490 5.1781 0.1395
112.3690 5.1648 0.1391
112.3890 5.1515 0.1392
112.4090 5.1382 0.1351
112.4290 5.1248 0.1361
112.4490 5.1115 0.1365
112.4690 5.0981 0.1367
112.4890 5.0848 0.1355
112.5090 5.0714 0.1365
112.5290 5.0581 0.1329
112.5490 5.0447 0.1333
112.5690 5.0314 0.1338
112.5890 5.0181 0.1341
112.6090 5.0048 0.1336
112.6290 4.9914 0.1360
112.6490 4.9781 0.1338
112.6690 4.9648 0.1316
112.6890 4.9514 0.1319
112.7090 4.9381 0.1319
112.7290 4.9247 0.1301
112.7490 4.9114 0.1315
112.7690 4.8981 0.1313
112.7890 4.8848 0.1301
112.8090 4.8715 0.1316
112.8290 4.8581 0.1298
112.8490 4.8448 0.1261
112.8690 4.8315 0.1276
112.8890 4.8181 0.1268
112.9090 4.8047 0.1279
112.9290 4.7914 0.1283
112.9490 4.7781 0.1284
112.9690 4.7647 0.1241
112.9890 4.7514 0.1283
113.0090 4.7380 0.1273
113.0290 4.7247 0.1241
113.0490 4.7114 0.1254
113.0690 4.6981 0.1257
113.0890 4.6848 0.1225
113.1090 4.6715 0.1252
113.1290 4.6581 0.1222
113.1490 4.6448 0.1227
113.1690 4.6315 0.1229
113.1890 4.6181 0.1228
113.2090 4.6048 0.1211
113.2290 4.5915 0.1218
113.2490 4.5781 0.1213
113.2690 4.5647 0.1194
113.2890 4.5514 0.1209
113.3090 4.5381 0.1194
113.3290 4.5247 0.1167
113.3490 4.5114 0.1193
113.3690 4.4980 0.1191
113.3890 4.4848 0.1176
113.4090 4.4714 0.1177
113.4290 4.4581 0.1185
113.4490 4.4447 0.1143
113.4690 4.4314 0.1169
113.4890 4.4181 0.1162
113.5090 4.4048 0.1148
113.5290 4.3914 0.1152
113.5490 4.3781 0.1155
113.5690 4.3648 0.1126
113.5890 4.3515 0.1148
113.6090 4.3381 0.1140
113.6290 4.3247 0.1131
113.6490 4.3114 0.1150
113.6690 4.2981 0.1138
113.6890 4.2848 0.1129
113.7090 4.2714 0.1127
113.7290 4.2581 0.1146
113.7490 4.2448 0.1108
113.7690 4.2314 0.1113
113.7890 4.2181 0.1117
113.8090 4.2047 0.1081
113.8290 4.1914 0.1096
113.8490 4.1781 0.1115
113.8690 4.1648 0.1099
113.8890 4.1515 0.1113
113.9090 4.1381 0.1098
113.9290 4.1248 0.1066
113.9490 4.1115 0.1070
113.9690 4.0981 0.1089
113.9890 4.0847 0.1061
114.0090 4.0714 0.1076
114.0290 4.0581 0.1052
114.0490 4.0448 0.1045
114.0690 4.0314 0.1053
114.0890 4.0181 0.1066
114.1090 4.0048 0.1033
114.1290 3.9915 0.1065
114.1490 3.9781 0.1050
114.1690 3.9648 0.1024
114.1890 3.9515 0.1033
114.2090 3.9382 0.1044
114.2290 3.9248 0.1029
114.2490 3.9115 0.1017
114.2690 3.8981 0.1018
114.2890 3.8848 0.0990
114.3090 3.8715 0.1004
114.3290 3.8581 0.1010
114.3490 3.8447 0.0991
114.3690 3.8314 0.1026
114.3890 3.8181 0.1020
114.4090 3.8048 0.0979
114.4290 3.7914 0.0994
114.4490 3.7781 0.0997
114.4690 3.7648 0.0972
114.4890 3.7515 0.0973
114.5090 3.7381 0.0970
114.5290 3.7248 0.0952
114.5490 3.7115 0.0970
114.5690 3.6982 0.0967
114.5890 3.6849 0.0937
114.6090 3.6715 0.0937
114.6290 3.6581 0.0952
114.6490 3.6448 0.0920
114.6690 3.6314 0.0921
114.6890 3.6181 0.0935
114.7090 3.6047 0.0912
114.7290 3.5914 0.0939
114.7490 3.5781 0.0933
114.7690 3.5648 0.0907
114.7890 3.5514 0.0901
114.8090 3.5381 0.0923
114.8290 3.5248 0.0905
114.8490 3.5114 0.0912
114.8690 3.4981 0.0914
114.8890 3.4847 0.0877
114.9090 3.4714 0.0894
114.9290 3.4581 0.0878
114.9490 3.4448 0.0842
114.9690 3.4315 0.0872
114.9890 3.4182 0.0862
115.0090 3.4048 0.0845
115.0290 3.3915 0.0870
115.0490 3.3781 0.0869
115.0690 3.3647 0.0847
115.0890 3.3514 0.0839
115.1090 3.3381 0.0836
115.1290 3.3248 0.0835
115.1490 3.3114 0.0836
115.1690 3.2980 0.0839
115.1890 3.2847 0.0822
115.2090 3.2714 0.0843
115.2290 3.2581 0.0839
115.2490 3.2448 0.0817
115.2690 3.2315 0.0810
115.2890 3.2182 0.0804
115.3090 3.2049 0.0797
115.3290 3.1915 0.0821
115.3490 3.1781 0.0812
115.3690 3.1648 0.0785
115.3890 3.1515 0.0774
115.4090 3.1381 0.0782
115.4290 3.1247 0.0787
115.4490 3.1114 0.0778
115.4690 3.0981 0.0782
115.4890 3.0847 0.0745
115.5090 3.0714 0.0756
115.5290 3.0580 0.0740
115.5490 3.0447 0.0749
115.5690 3.0314 0.0737
115.5890 3.0181 0.0741
115.6090 3.0047 0.0742
115.6290 2.9914 0.0723
115.6490 2.9781 0.0730
115.6690 2.9648 0.0710
115.6890 2.9515 0.0703
115.7090 2.9381 0.0737
115.7290 2.9248 0.0715
115.7490 2.9115 0.0727
115.7690 2.8981 0.0703
115.7890 2.8847 0.0699
115.8090 2.8714 0.0690
115.8290 2.8581 0.0701
115.8490 2.8448 0.0654
115.8690 2.8314 0.0682
115.8890 2.8180 0.0685
115.9090 2.8047 0.0689
115.9290 2.7914 0.0672
115.9490 2.7781 0.0681
115.9690 2.7647 0.0660
115.9890 2.7514 0.0650
116.0090 2.7381 0.0665
116.0290 2.7248 0.0643
116.0490 2.7115 0.0656
116.0690 2.6981 0.0627
116.0890 2.6848 0.0622
116.1090 2.6715 0.0622
116.1290 2.6581 0.0638
116.1490 2.6447 0.0617
116.1690 2.6314 0.0628
116.1890 2.6181 0.0614
116.2090 2.6047 0.0604
116.2290 2.5914 0.0591
116.2490 2.5780 0.0600
116.2690 2.5647 0.0582
116.2890 2.5514 0.0585
116.3090 2.5381 0.0601
116.3290 2.5247 0.0569
116.3490 2.5114 0.0565
116.3690 2.4981 0.0555
116.3890 2.4848 0.0541
116.4090 2.4715 0.0538
116.4290 2.4581 0.0549
116.4490 2.4448 0.0551
116.4690 2.4315 0.0544
116.4890 2.4182 0.0550
116.5090 2.4048 0.0528
116.5290 2.3914 0.0533
116.5490 2.3781 0.0531
116.5690 2.3648 0.0513
116.5890 2.3514 0.0508
116.6090 2.3381 0.0514
116.6290 2.3247 0.0489
116.6490 2.3114 0.0498
116.6690 2.2981 0.0508
116.6890 2.2848 0.0495
116.7090 2.2714 0.0491
116.7290 2.2581 0.0485
116.7490 2.2448 0.0480
116.7690 2.2315 0.0470
116.7890 2.2181 0.0479
116.8090 2.2048 0.0450
116.8290 2.1915 0.0449
116.8490 2.1782 0.0456
116.8690 2.1648 0.0435
116.8890 2.1514 0.0437
116.9090 2.1381 0.0452
116.9290 2.1248 0.0450
116.9490 2.1114 0.0418
116.9690 2.0980 0.0429
116.9890 2.0847 0.0406
117.0090 2.0714 0.0393
117.0290 2.0581 0.0391
117.0490 2.0447 0.0401
117.0690 2.0314 0.0387
117.0890 2.0181 0.0390
117.1090 2.0048 0.0377
117.1290 1.9915 0.0380
117.1490 1.9781 0.0379
117.1690 1.9648 0.0358
117.1890 1.9515 0.0351
117.2090 1.9381 0.0343
117.2290 1.9248 0.0344
117.2490 1.9114 0.0329
117.2690 1.8981 0.0345
117.2890 1.8847 0.0328
117.3090 1.8714 0.0334
117.3290 1.8580 0.0324
117.3490 1.8447 0.0311
117.3690 1.8314 0.0311
117.3890 1.8181 0.0314
117.4090 1.8048 0.0300
117.4290 1.7915 0.0319
117.4490 1.7782 0.0313
117.4690 1.7649 0.0299
117.4890 1.7515 0.0277
117.5090 1.7382 0.0291
117.5290 1.7248 0.0279
117.5490 1.7115 0.0259
117.5690 1.6981 0.0266
117.5890 1.6847 0.0244
117.6090 1.6714 0.0238
117.6290 1.6580 0.0245
117.6490 1.6448 0.0245
117.6690 1.6314 0.0220
117.6890 1.6181 0.0214
117.7090 1.6047 0.0221
117.7290 1.5914 0.0203
117.7490 1.5781 0.0225
117.7690 1.5648 0.0209
117.7890 1.5514 0.0187
117.8090 1.5381 0.0195
117.8290 1.5248 0.0196
117.8490 1.5115 0.0180
117.8690 1.4982 0.0187
117.8890 1.4848 0.0186
117.9090 1.4715 0.0170
117.9290 1.4581 0.0160
117.9490 1.4447 0.0131
117.9690 1.4314 0.0146
117.9890 1.4181 0.0160
118.0090 1.4048 0.0151
118.0290 1.3914 0.0129
118.0490 1.3781 0.0122
118.0690 1.3647 0.0128
118.0890 1.3514 0.0115
118.1090 1.3381 0.0128
118.1290 1.3248 0.0113
118.1490 1.3114 0.0102
118.1690 1.2981 0.0092
118.1890 1.2849 0.0092
118.2090 1.2715 0.0093
118.2290 1.2582 0.0092
118.2490 1.2448 0.0086
118.2690 1.2315 0.0075
118.2890 1.2181 0.0068
118.3090 1.2048 0.0062
118.3290 1.1914 0.0050
118.3490 1.1780 0.0055
118.3690 1.1647 0.0041
118.3890 1.1514 0.0033
118.4090 1.1381 0.0045
118.4290 1.1247 0.0042
118.4490 1.1114 0.0033
118.4690 1.0981 0.0044
118.4890 1.0848 0.0011
118.5090 1.0714 0.0010
118.5290 1.0581 0.0007
118.5490 1.0448 -0.0013
118.5690 1.0315 -0.0012
118.5890 1.0181 -0.0001
118.6090 1.0048 0.0004
118.6290 0.9914 -0.0040
118.6490 0.9781 -0.0004
118.6690 0.9648 -0.0020
118.6890 0.9514 -0.0026
118.7090 0.9381 -0.0032
118.7290 0.9248 -0.0043
118.7490 0.9114 -0.0046
118.7690 0.8980 -0.0032
118.7890 0.8847 -0.0032
118.8090 0.8714 -0.0053
118.8290 0.8581 -0.0043
118.8490 0.8448 -0.0070
118.8690 0.8314 -0.0070
118.8890 0.8181 -0.0064
118.9090 0.8048 -0.0043
118.9290 0.7915 -0.0084
118.9490 0.7781 -0.0065
118.9690 0.7648 -0.0078
118.9890 0.7515 -0.0075
119.0090 0.7381 -0.0067
119.0290 0.7248 -0.0075
119.0490 0.7114 -0.0077
119.0690 0.6980 -0.0055
119.0890 0.6847 -0.0053
119.1090 0.6714 -0.0072
119.1290 0.6580 -0.0071
119.1490 0.6447 -0.0085
119.1690 0.6314 -0.0105
119.1890 0.6181 -0.0091
119.2090 0.6048 -0.0085
119.2290 0.5914 -0.0101
119.2490 0.5781 -0.0072
119.2690 0.5648 -0.0080
119.2890 0.5515 -0.0092
119.3090 0.5382 -0.0105
119.3290 0.5248 -0.0099
119.3490 0.5115 -0.0099
119.3690 0.4981 -0.0096
119.3890 0.4848 -0.0114
119.4090 0.4714 -0.0114
119.4290 0.4580 -0.0107
119.4490 0.4447 -0.0087
119.4690 0.4314 -0.0109
119.4890 0.4181 -0.0087
119.5090 0.4047 -0.0115
119.5290 0.3914 -0.0117
119.5490 0.3781 -0.0115
119.5690 0.3648 -0.0103
119.5890 0.3514 -0.0118
119.6090 0.3381 -0.0114
119.6290 0.3248 -0.0108
119.6490 0.3115 -0.0125
119.6690 0.2981 -0.0125
119.6890 0.2848 -0.0111
119.7090 0.2714 -0.0114
119.7290 0.2581 -0.0102
119.7490 0.2448 -0.0103
119.7690 0.2314 -0.0121
119.7890 0.2181 -0.0096
119.8090 0.2048 -0.0095
119.8290 0.1915 -0.0113
119.8490 0.1781 -0.0103
119.8690 0.1648 -0.0119
119.8890 0.1514 -0.0104
119.9090 0.1381 -0.0105
119.9290 0.1248 -0.0076
119.9490 0.1114 -0.0123
119.9690 0.0981 -0.0116
119.9890 0.0848 -0.0120
120.0090 0.0715 -0.0105
120.0290 0.0581 -0.0106
120.0490 0.0448 -0.0087
120.0690 0.0315 -0.0090
120.0890 0.0181 -0.0091
120.1090 0.0048 -0.0087
120.1170 -0.0004 -0.0050
