Raw Data
Time Displacement Force
(s) (mm) (N)
0.0000 0.0000 -0.0106
0.0200 0.0001 -0.0068
0.0400 0.0021 0.0064
0.0600 0.0098 0.0008
0.0800 0.0216 -0.0124
0.1000 0.0340 -0.0070
0.1200 0.0468 -0.0109
0.1400 0.0603 -0.0070
0.1600 0.0744 -0.0108
0.1800 0.0886 -0.0096
0.2000 0.1025 -0.0116
0.2200 0.1160 -0.0117
0.2400 0.1293 -0.0094
0.2600 0.1426 -0.0090
0.2800 0.1559 -0.0099
0.3000 0.1693 -0.0102
0.3200 0.1827 -0.0103
0.3400 0.1960 -0.0121
0.3600 0.2094 -0.0092
0.3800 0.2228 -0.0114
0.4000 0.2361 -0.0074
0.4200 0.2494 -0.0122
0.4400 0.2627 -0.0090
0.4600 0.2761 -0.0112
0.4800 0.2895 -0.0101
0.5000 0.3028 -0.0101
0.5200 0.3161 -0.0095
0.5400 0.3294 -0.0101
0.5600 0.3428 -0.0081
0.5800 0.3561 -0.0089
0.6000 0.3694 -0.0094
0.6200 0.3827 -0.0095
0.6400 0.3960 -0.0091
0.6600 0.4094 -0.0068
0.6800 0.4227 -0.0068
0.7000 0.4361 -0.0073
0.7200 0.4494 -0.0087
0.7400 0.4628 -0.0088
0.7600 0.4761 -0.0098
0.7800 0.4894 -0.0078
0.8000 0.5028 -0.0057
0.8200 0.5161 -0.0060
0.8400 0.5295 -0.0051
0.8600 0.5428 -0.0045
0.8800 0.5561 -0.0039
0.9000 0.5694 -0.0036
0.9200 0.5827 -0.0048
0.9400 0.5961 -0.0024
0.9600 0.6093 -0.0020
0.9800 0.6226 -0.0001
1.0000 0.6360 0.0007
1.0200 0.6493 0.0013
1.0400 0.6627 0.0014
1.0600 0.6760 0.0050
1.0800 0.6894 0.0048
1.1000 0.7028 0.0052
1.1200 0.7161 0.0066
1.1400 0.7295 0.0087
1.1600 0.7428 0.0086
1.1800 0.7561 0.0115
1.2000 0.7695 0.0132
1.2200 0.7828 0.0112
1.2400 0.7961 0.0170
1.2600 0.8094 0.0171
1.2800 0.8228 0.0178
1.3000 0.8361 0.0190
1.3200 0.8494 0.0217
1.3400 0.8627 0.0207
1.3600 0.8760 0.0236
1.3800 0.8894 0.0249
1.4000 0.9027 0.0259
1.4200 0.9161 0.0277
1.4400 0.9294 0.0284
1.4600 0.9428 0.0304
1.4800 0.9562 0.0336
1.5000 0.9695 0.0348
1.5200 0.9828 0.0346
1.5400 0.9961 0.0380
1.5600 1.0095 0.0383
1.5800 1.0228 0.0405
1.6000 1.0361 0.0424
1.6200 1.0494 0.0436
1.6400 1.0628 0.0448
1.6600 1.0761 0.0445
1.6800 1.0894 0.0472
1.7000 1.1027 0.0466
1.7200 1.1160 0.0515
1.7400 1.1294 0.0507
1.7600 1.1428 0.0518
1.7800 1.1561 0.0554
1.8000 1.1694 0.0569
1.8200 1.1828 0.0563
1.8400 1.1961 0.0582
1.8600 1.2094 0.0581
1.8800 1.2228 0.0603
1.9000 1.2361 0.0617
1.9200 1.2495 0.0621
1.9400 1.2628 0.0635
1.9600 1.2761 0.0651
1.9800 1.2894 0.0682
2.0000 1.3027 0.0675
2.0200 1.3161 0.0704
2.0400 1.3294 0.0702
2.0600 1.3427 0.0723
2.0800 1.3560 0.0745
2.1000 1.3694 0.0763
2.1200 1.3827 0.0757
2.1400 1.3961 0.0763
2.1600 1.4094 0.0773
2.1800 1.4228 0.0813
2.2000 1.4361 0.0823
2.2200 1.4495 0.0840
2.2400 1.4628 0.0813
2.2600 1.4761 0.0861
2.2800 1.4895 0.0879
2.3000 1.5028 0.0876
2.3200 1.5161 0.0894
2.3400 1.5294 0.0914
2.3600 1.5428 0.0904
2.3800 1.5561 0.0927
2.4000 1.5694 0.0924
2.4200 1.5827 0.0941
2.4400 1.5960 0.0950
2.4600 1.6094 0.0963
2.4800 1.6227 0.0983
2.5000 1.6360 0.0988
2.5200 1.6494 0.1016
2.5400 1.6628 0.0991
2.5600 1.6762 0.1013
2.5800 1.6895 0.1034
2.6000 1.7028 0.1058
2.6200 1.7161 0.1071
2.6400 1.7295 0.1080
2.6600 1.7429 0.1081
2.6800 1.7562 0.1091
2.7000 1.7694 0.1097
2.7200 1.7828 0.1100
2.7400 1.7961 0.1101
2.7600 1.8094 0.1135
2.7800 1.8227 0.1119
2.8000 1.8360 0.1143
2.8200 1.8493 0.1153
2.8400 1.8627 0.1154
2.8600 1.8760 0.1178
2.8800 1.8894 0.1188
2.9000 1.9028 0.1186
2.9200 1.9162 0.1211
2.9400 1.9295 0.1227
2.9600 1.9428 0.1230
2.9800 1.9562 0.1240
3.0000 1.9695 0.1262
3.0200 1.9828 0.1261
3.0400 1.9961 0.1265
3.0600 2.0094 0.1288
3.0800 2.0228 0.1290
3.1000 2.0361 0.1292
3.1200 2.0494 0.1309
3.1400 2.0627 0.1289
3.1600 2.0760 0.1316
3.1800 2.0894 0.1312
3.2000 2.1027 0.1348
3.2200 2.1161 0.1349
3.2400 2.1294 0.1379
3.2600 2.1428 0.1370
3.2800 2.1562 0.1378
3.3000 2.1695 0.1399
3.3200 2.1828 0.1395
3.3400 2.1961 0.1414
3.3600 2.2095 0.1400
3.3800 2.2228 0.1411
3.4000 2.2361 0.1417
3.4200 2.2494 0.1448
3.4400 2.2627 0.1434
3.4600 2.2761 0.1456
3.4800 2.2894 0.1463
3.5000 2.3027 0.1496
3.5200 2.3160 0.1480
3.5400 2.3294 0.1498
3.5600 2.3427 0.1488
3.5800 2.3561 0.1509
3.6000 2.3694 0.1529
3.6200 2.3828 0.1502
3.6400 2.3962 0.1526
3.6600 2.4095 0.1537
3.6800 2.4228 0.1557
3.7000 2.4361 0.1555
3.7200 2.4495 0.1583
3.7400 2.4628 0.1571
3.7600 2.4761 0.1575
3.7800 2.4894 0.1594
3.8000 2.5027 0.1604
3.8200 2.5161 0.1588
3.8400 2.5294 0.1619
3.8600 2.5427 0.1627
3.8800 2.5560 0.1643
3.9000 2.5694 0.1647
3.9200 2.5827 0.1639
3.9400 2.5960 0.1675
3.9600 2.6094 0.1653
3.9800 2.6228 0.1663
4.0000 2.6361 0.1659
4.0200 2.6495 0.1681
4.0400 2.6628 0.1691
4.0600 2.6761 0.1707
4.0800 2.6895 0.1735
4.1000 2.7029 0.1710
4.1200 2.7162 0.1726
4.1400 2.7294 0.1745
4.1600 2.7428 0.1748
4.1800 2.7561 0.1757
4.2000 2.7694 0.1759
4.2200 2.7827 0.1764
4.2400 2.7960 0.1768
4.2600 2.8094 0.1804
4.2800 2.8227 0.1807
4.3000 2.8361 0.1805
4.3200 2.8494 0.1788
4.3400 2.8628 0.1811
4.3600 2.8761 0.1799
4.3800 2.8895 0.1830
4.4000 2.9028 0.1826
4.4200 2.9161 0.1864
4.4400 2.9295 0.1854
4.4600 2.9428 0.1860
4.4800 2.9561 0.1864
4.5000 2.9694 0.1885
4.5200 2.9828 0.1878
4.5400 2.9961 0.1891
4.5600 3.0094 0.1881
4.5800 3.0227 0.1898
4.6000 3.0360 0.1892
4.6200 3.0494 0.1913
4.6400 3.0627 0.1918
4.6600 3.0760 0.1918
4.6800 3.0894 0.1952
4.7000 3.1028 0.1940
4.7200 3.1162 0.1947
4.7400 3.1295 0.1949
4.7600 3.1428 0.1968
4.7800 3.1562 0.1974
4.8000 3.1695 0.1966
4.8200 3.1828 0.1979
4.8400 3.1961 0.1977
4.8600 3.2094 0.1996
4.8800 3.2227 0.2011
4.9000 3.2361 0.2016
4.9200 3.2494 0.2015
4.9400 3.2627 0.2010
4.9600 3.2760 0.2015
4.9800 3.2894 0.2029
5.0000 3.3027 0.2025
5.0200 3.3160 0.2033
5.0400 3.3294 0.2046
5.0600 3.3428 0.2060
5.0800 3.3562 0.2068
5.1000 3.3695 0.2048
5.1200 3.3828 0.2084
5.1400 3.3961 0.2063
5.1600 3.4094 0.2104
5.1800 3.4228 0.2105
5.2000 3.4361 0.2102
5.2200 3.4494 0.2141
5.2400 3.4627 0.2126
5.2600 3.4761 0.2121
5.2800 3.4894 0.2121
5.3000 3.5027 0.2148
5.3200 3.5160 0.2122
5.3400 3.5294 0.2155
5.3600 3.5427 0.2148
5.3800 3.5561 0.2162
5.4000 3.5694 0.2156
5.4200 3.5828 0.2191
5.4400 3.5961 0.2160
5.4600 3.6095 0.2191
5.4800 3.6228 0.2204
5.5000 3.6361 0.2204
5.5200 3.6495 0.2223
5.5400 3.6629 0.2221
5.5600 3.6762 0.2221
5.5800 3.6894 0.2223
5.6000 3.7028 0.2241
5.6200 3.7161 0.2227
5.6400 3.7294 0.2237
5.6600 3.7427 0.2257
5.6800 3.7560 0.2235
5.7000 3.7694 0.2260
5.7200 3.7827 0.2268
5.7400 3.7961 0.2257
5.7600 3.8094 0.2275
5.7800 3.8228 0.2278
5.8000 3.8361 0.2269
5.8200 3.8495 0.2297
5.8400 3.8628 0.2310
5.8600 3.8761 0.2302
5.8800 3.8895 0.2329
5.9000 3.9028 0.2312
5.9200 3.9161 0.2318
5.9400 3.9294 0.2327
5.9600 3.9427 0.2341
5.9800 3.9561 0.2312
6.0000 3.9694 0.2351
6.0200 3.9827 0.2358
6.0400 3.9961 0.2362
6.0600 4.0094 0.2345
6.0800 4.0227 0.2367
6.1000 4.0361 0.2347
6.1200 4.0494 0.2384
6.1400 4.0627 0.2399
6.1600 4.0761 0.2402
6.1800 4.0895 0.2390
6.2000 4.1028 0.2396
6.2200 4.1161 0.2388
6.2400 4.1295 0.2404
6.2600 4.1428 0.2412
6.2800 4.1562 0.2419
6.3000 4.1695 0.2426
6.3200 4.1828 0.2429
6.3400 4.1961 0.2414
6.3600 4.2094 0.2431
6.3800 4.2227 0.2464
6.4000 4.2360 0.2456
6.4200 4.2494 0.2476
6.4400 4.2627 0.2471
6.4600 4.2761 0.2457
6.4800 4.2894 0.2452
6.5000 4.3028 0.2473
6.5200 4.3162 0.2487
6.5400 4.3295 0.2508
6.5600 4.3428 0.2514
6.5800 4.3561 0.2490
6.6000 4.3695 0.2513
6.6200 4.3828 0.2527
6.6400 4.3961 0.2533
6.6600 4.4094 0.2520
6.6800 4.4227 0.2559
6.7000 4.4361 0.2538
6.7200 4.4494 0.2531
6.7400 4.4627 0.2545
6.7600 4.4760 0.2545
6.7800 4.4894 0.2566
6.8000 4.5027 0.2598
6.8200 4.5161 0.2579
6.8400 4.5294 0.2573
6.8600 4.5427 0.2603
6.8800 4.5561 0.2572
6.9000 4.5695 0.2584
6.9200 4.5828 0.2574
6.9400 4.5961 0.2579
6.9600 4.6095 0.2580
6.9800 4.6228 0.2623
7.0000 4.6361 0.2605
7.0200 4.6494 0.2631
7.0400 4.6627 0.2631
7.0600 4.6760 0.2628
7.0800 4.6894 0.2639
7.1000 4.7027 0.2660
7.1200 4.7160 0.2645
7.1400 4.7294 0.2672
7.1600 4.7427 0.2663
7.1800 4.7561 0.2649
7.2000 4.7694 0.2659
7.2200 4.7828 0.2681
7.2400 4.7961 0.2670
7.2600 4.8095 0.2678
7.2800 4.8228 0.2712
7.3000 4.8361 0.2691
7.3200 4.8494 0.2699
7.3400 4.8628 0.2715
7.3600 4.8761 0.2696
7.3800 4.8895 0.2711
7.4000 4.9028 0.2707
7.4200 4.9161 0.2704
7.4400 4.9295 0.2707
7.4600 4.9428 0.2741
7.4800 4.9561 0.2713
7.5000 4.9694 0.2754
7.5200 4.9827 0.2761
7.5400 4.9961 0.2744
7.5600 5.0094 0.2738
7.5800 5.0227 0.2791
7.6000 5.0361 0.2759
7.6200 5.0495 0.2788
7.6400 5.0628 0.2783
7.6600 5.0761 0.2782
7.6800 5.0894 0.2788
7.7000 5.1028 0.2789
7.7200 5.1161 0.2785
7.7400 5.1295 0.2776
7.7600 5.1428 0.2803
7.7800 5.1561 0.2813
7.8000 5.1695 0.2825
7.8200 5.1828 0.2810
7.8400 5.1961 0.2820
7.8600 5.2094 0.2789
7.8800 5.2227 0.2829
7.9000 5.2361 0.2800
7.9200 5.2494 0.2859
7.9400 5.2627 0.2853
7.9600 5.2761 0.2857
7.9800 5.2895 0.2836
8.0000 5.3028 0.2842
8.0200 5.3161 0.2839
8.0400 5.3295 0.2858
8.0600 5.3428 0.2881
8.0800 5.3562 0.2865
8.1000 5.3695 0.2865
8.1200 5.3828 0.2894
8.1400 5.3961 0.2890
8.1600 5.4095 0.2888
8.1800 5.4228 0.2882
8.2000 5.4360 0.2890
8.2200 5.4494 0.2888
8.2400 5.4627 0.2924
8.2600 5.4761 0.2900
8.2800 5.4894 0.2902
8.3000 5.5027 0.2918
8.3200 5.5161 0.2921
8.3400 5.5295 0.2914
8.3600 5.5428 0.2957
8.3800 5.5561 0.2928
8.4000 5.5695 0.2934
8.4200 5.5828 0.2975
8.4400 5.5962 0.2944
8.4600 5.6095 0.2955
8.4800 5.6228 0.2972
8.5000 5.6361 0.2952
8.5200 5.6495 0.2964
8.5400 5.6628 0.2975
8.5600 5.6760 0.2983
8.5800 5.6893 0.2979
8.6000 5.7027 0.2995
8.6200 5.7160 0.2974
8.6400 5.7294 0.2990
8.6600 5.7427 0.3001
8.6800 5.7561 0.3000
8.7000 5.7695 0.2997
8.7200 5.7828 0.3029
8.7400 5.7961 0.3010
8.7600 5.8094 0.3010
8.7800 5.8228 0.3011
8.8000 5.8361 0.3012
8.8200 5.8495 0.3030
8.8400 5.8628 0.3062
8.8600 5.8761 0.3034
8.8800 5.8894 0.3036
8.9000 5.9028 0.3070
8.9200 5.9161 0.3045
8.9400 5.9294 0.3040
8.9600 5.9427 0.3047
8.9800 5.9561 0.3047
9.0000 5.9694 0.3071
9.0200 5.9827 0.3113
9.0400 5.9961 0.3078
9.0600 6.0095 0.3070
9.0800 6.0228 0.3091
9.1000 6.0361 0.3089
9.1200 6.0495 0.3097
9.1400 6.0628 0.3118
9.1600 6.0762 0.3104
9.1800 6.0895 0.3097
9.2000 6.1027 0.3113
9.2200 6.1160 0.3096
9.2400 6.1294 0.3107
9.2600 6.1427 0.3124
9.2800 6.1560 0.3118
9.3000 6.1694 0.3113
9.3200 6.1827 0.3157
9.3400 6.1961 0.3141
9.3600 6.2094 0.3125
9.3800 6.2227 0.3136
9.4000 6.2361 0.3124
9.4200 6.2495 0.3150
9.4400 6.2628 0.3169
9.4600 6.2761 0.3162
9.4800 6.2894 0.3141
9.5000 6.3028 0.3180
9.5200 6.3162 0.3174
9.5400 6.3295 0.3195
9.5600 6.3428 0.3193
9.5800 6.3561 0.3184
9.6000 6.3695 0.3173
9.6200 6.3828 0.3188
9.6400 6.3961 0.3195
9.6600 6.4094 0.3186
9.6800 6.4227 0.3208
9.7000 6.4361 0.3197
9.7200 6.4494 0.3199
9.7400 6.4627 0.3229
9.7600 6.4761 0.3208
9.7800 6.4895 0.3209
9.8000 6.5029 0.3223
9.8200 6.5162 0.3228
9.8400 6.5295 0.3230
9.8600 6.5428 0.3241
9.8800 6.5562 0.3209
9.9000 6.5695 0.3211
9.9200 6.5828 0.3222
9.9400 6.5961 0.3263
9.9600 6.6094 0.3247
9.9800 6.6227 0.3258
10.0000 6.6360 0.3232
10.0200 6.6493 0.3259
10.0400 6.6627 0.3269
10.0600 6.6760 0.3271
10.0800 6.6894 0.3260
10.1000 6.7027 0.3280
10.1200 6.7161 0.3286
10.1400 6.7295 0.3281
10.1600 6.7428 0.3301
10.1800 6.7561 0.3288
10.2000 6.7695 0.3261
10.2200 6.7828 0.3294
10.2400 6.7962 0.3315
10.2600 6.8095 0.3310
10.2800 6.8228 0.3324
10.3000 6.8361 0.3323
10.3200 6.8494 0.3312
10.3400 6.8628 0.3325
10.3600 6.8761 0.3339
10.3800 6.8894 0.3337
10.4000 6.9027 0.3330
10.4200 6.9160 0.3329
10.4400 6.9294 0.3326
10.4600 6.9427 0.3321
10.4800 6.9561 0.3362
10.5000 6.9695 0.3340
10.5200 6.9828 0.3390
10.5400 6.9961 0.3350
10.5600 7.0095 0.3334
10.5800 7.0228 0.3363
10.6000 7.0362 0.3356
10.6200 7.0495 0.3380
10.6400 7.0628 0.3397
10.6600 7.0761 0.3363
10.6800 7.0894 0.3371
10.7000 7.1027 0.3399
10.7200 7.1160 0.3389
10.7400 7.1293 0.3366
10.7600 7.1427 0.3390
10.7800 7.1560 0.3378
10.8000 7.1694 0.3381
10.8200 7.1827 0.3423
10.8400 7.1961 0.3396
10.8600 7.2095 0.3370
10.8800 7.2228 0.3428
10.9000 7.2361 0.3451
10.9200 7.2495 0.3441
10.9400 7.2628 0.3423
10.9600 7.2762 0.3442
10.9800 7.2895 0.3419
11.0000 7.3028 0.3468
11.0200 7.3161 0.3465
11.0400 7.3294 0.3427
11.0600 7.3428 0.3422
11.0800 7.3561 0.3462
11.1000 7.3694 0.3446
11.1200 7.3827 0.3453
11.1400 7.3961 0.3446
11.1600 7.4094 0.3463
11.1800 7.4227 0.3471
11.2000 7.4361 0.3476
11.2200 7.4495 0.3482
11.2400 7.4628 0.3487
11.2600 7.4762 0.3462
11.2800 7.4895 0.3448
11.3000 7.5028 0.3490
11.3200 7.5162 0.3502
11.3400 7.5295 0.3470
11.3600 7.5428 0.3504
11.3800 7.5561 0.3519
11.4000 7.5694 0.3508
11.4200 7.5828 0.3504
11.4400 7.5961 0.3511
11.4600 7.6094 0.3526
11.4800 7.6227 0.3517
11.5000 7.6360 0.3518
11.5200 7.6494 0.3509
11.5400 7.6627 0.3516
11.5600 7.6761 0.3541
11.5800 7.6894 0.3529
11.6000 7.7028 0.3542
11.6200 7.7161 0.3545
11.6400 7.7294 0.3526
11.6600 7.7428 0.3540
11.6800 7.7561 0.3555
11.7000 7.7695 0.3553
11.7200 7.7828 0.3539
11.7400 7.7961 0.3560
11.7600 7.8094 0.3559
11.7800 7.8228 0.3567
11.8000 7.8361 0.3579
11.8200 7.8494 0.3541
11.8400 7.8627 0.3558
11.8600 7.8760 0.3581
11.8800 7.8894 0.3552
11.9000 7.9027 0.3593
11.9200 7.9160 0.3590
11.9400 7.9294 0.3578
11.9600 7.9428 0.3594
11.9800 7.9562 0.3628
12.0000 7.9695 0.3597
12.0200 7.9828 0.3621
12.0400 7.9962 0.3609
12.0600 8.0095 0.3602
12.0800 8.0228 0.3618
12.1000 8.0361 0.3637
12.1200 8.0494 0.3609
12.1400 8.0627 0.3640
12.1600 8.0760 0.3655
12.1800 8.0894 0.3638
12.2000 8.1027 0.3634
12.2200 8.1161 0.3652
12.2400 8.1294 0.3640
12.2600 8.1428 0.3643
12.2800 8.1561 0.3645
12.3000 8.1695 0.3628
12.3200 8.1829 0.3651
12.3400 8.1962 0.3673
12.3600 8.2095 0.3654
12.3800 8.2228 0.3680
12.4000 8.2362 0.3676
12.4200 8.2495 0.3673
12.4400 8.2628 0.3682
12.4600 8.2760 0.3698
12.4800 8.2894 0.3659
12.5000 8.3027 0.3697
12.5200 8.3161 0.3697
12.5400 8.3294 0.3677
12.5600 8.3427 0.3689
12.5800 8.3560 0.3716
12.6000 8.3694 0.3687
12.6200 8.3828 0.3708
12.6400 8.3961 0.3731
12.6600 8.4095 0.3707
12.6800 8.4228 0.3743
12.7000 8.4361 0.3731
12.7200 8.4495 0.3720
12.7400 8.4628 0.3731
12.7600 8.4762 0.3744
12.7800 8.4895 0.3738
12.8000 8.5028 0.3743
12.8200 8.5161 0.3754
12.8400 8.5294 0.3746
12.8600 8.5427 0.3733
12.8800 8.5561 0.3757
12.9000 8.5694 0.3755
12.9200 8.5827 0.3750
12.9400 8.5960 0.3748
12.9600 8.6094 0.3741
12.9800 8.6227 0.3747
13.0000 8.6361 0.3756
13.0200 8.6494 0.3759
13.0400 8.6628 0.3785
13.0600 8.6761 0.3781
13.0800 8.6894 0.3766
13.1000 8.7028 0.3789
13.1200 8.7161 0.3787
13.1400 8.7295 0.3777
13.1600 8.7428 0.3791
13.1800 8.7561 0.3801
13.2000 8.7694 0.3789
13.2200 8.7828 0.3812
13.2400 8.7961 0.3801
13.2600 8.8094 0.3798
13.2800 8.8227 0.3808
13.3000 8.8360 0.3810
13.3200 8.8494 0.3805
13.3400 8.8627 0.3837
13.3600 8.8761 0.3835
13.3800 8.8894 0.3823
13.4000 8.9028 0.3820
13.4200 8.9161 0.3859
13.4400 8.9294 0.3849
13.4600 8.9428 0.3829
13.4800 8.9561 0.3880
13.5000 8.9695 0.3833
13.5200 8.9828 0.3866
13.5400 8.9961 0.3855
13.5600 9.0094 0.3843
13.5800 9.0228 0.3834
13.6000 9.0361 0.3857
13.6200 9.0494 0.3857
13.6400 9.0627 0.3859
13.6600 9.0760 0.3867
13.6800 9.0894 0.3855
13.7000 9.1027 0.3877
13.7200 9.1161 0.3866
13.7400 9.1295 0.3856
13.7600 9.1428 0.3884
13.7800 9.1562 0.3905
13.8000 9.1695 0.3876
13.8200 9.1828 0.3906
13.8400 9.1962 0.3902
13.8600 9.2095 0.3906
13.8800 9.2228 0.3910
13.9000 9.2361 0.3914
13.9200 9.2494 0.3912
13.9400 9.2628 0.3906
13.9600 9.2761 0.3912
13.9800 9.2894 0.3932
14.0000 9.3027 0.3933
14.0200 9.3160 0.3944
14.0400 9.3294 0.3913
14.0600 9.3427 0.3903
14.0800 9.3561 0.3927
14.1000 9.3694 0.3909
14.1200 9.3828 0.3939
14.1400 9.3962 0.3934
14.1600 9.4095 0.3949
14.1800 9.4228 0.3946
14.2000 9.4361 0.3975
14.2200 9.4495 0.3962
14.2400 9.4628 0.3957
14.2600 9.4761 0.3965
14.2800 9.4894 0.3963
14.3000 9.5027 0.3986
14.3200 9.5161 0.3968
14.3400 9.5294 0.3962
14.3600 9.5427 0.3954
14.3800 9.5560 0.3989
14.4000 9.5694 0.3967
14.4200 9.5827 0.3975
14.4400 9.5961 0.3987
14.4600 9.6094 0.3974
14.4800 9.6228 0.3950
14.5000 9.6362 0.3983
14.5200 9.6495 0.3980
14.5400 9.6628 0.4003
14.5600 9.6761 0.4017
14.5800 9.6895 0.3989
14.6000 9.7028 0.3992
14.6200 9.7161 0.4009
14.6400 9.7294 0.4018
14.6600 9.7428 0.4023
14.6800 9.7561 0.4002
14.7000 9.7694 0.4001
14.7200 9.7827 0.3988
14.7400 9.7961 0.4040
14.7600 9.8094 0.4029
14.7800 9.8227 0.4018
14.8000 9.8360 0.4041
14.8200 9.8494 0.4036
14.8400 9.8628 0.4062
14.8600 9.8761 0.4058
14.8800 9.8894 0.4039
14.9000 9.9028 0.4049
14.9200 9.9161 0.4065
14.9400 9.9295 0.4077
14.9600 9.9428 0.4086
14.9800 9.9561 0.4074
15.0000 9.9694 0.4063
15.0200 9.9828 0.4056
15.0400 9.9961 0.4070
15.0600 10.0094 0.4094
15.0800 10.0227 0.4061
15.1000 10.0360 0.4098
15.1200 10.0494 0.4075
15.1400 10.0627 0.4059
15.1600 10.0761 0.4090
15.1800 10.0894 0.4094
15.2000 10.1028 0.4081
15.2200 10.1162 0.4089
15.2400 10.1295 0.4098
15.2600 10.1428 0.4091
15.2800 10.1561 0.4101
15.3000 10.1695 0.4102
15.3200 10.1828 0.4090
15.3400 10.1961 0.4141
15.3600 10.2094 0.4135
15.3800 10.2228 0.4134
15.4000 10.2361 0.4127
15.4200 10.2494 0.4130
15.4400 10.2627 0.4115
15.4600 10.2760 0.4132
15.4800 10.2894 0.4145
15.5000 10.3027 0.4133
15.5200 10.3160 0.4162
15.5400 10.3294 0.4136
15.5600 10.3427 0.4129
15.5800 10.3561 0.4152
15.6000 10.3695 0.4150
15.6200 10.3828 0.4127
15.6400 10.3962 0.4164
15.6600 10.4095 0.4132
15.6800 10.4229 0.4134
15.7000 10.4361 0.4169
15.7200 10.4494 0.4171
15.7400 10.4628 0.4166
15.7600 10.4761 0.4167
15.7800 10.4894 0.4159
15.8000 10.5027 0.4166
15.8200 10.5160 0.4201
15.8400 10.5294 0.4171
15.8600 10.5427 0.4184
15.8800 10.5560 0.4210
15.9000 10.5694 0.4193
15.9200 10.5828 0.4190
15.9400 10.5962 0.4196
15.9600 10.6095 0.4186
15.9800 10.6228 0.4181
16.0000 10.6361 0.4212
16.0200 10.6495 0.4206
16.0400 10.6628 0.4209
16.0600 10.6761 0.4217
16.0800 10.6894 0.4229
16.1000 10.7028 0.4208
16.1200 10.7161 0.4231
16.1400 10.7294 0.4206
16.1600 10.7427 0.4222
16.1800 10.7560 0.4228
16.2000 10.7694 0.4230
16.2200 10.7827 0.4231
16.2400 10.7961 0.4252
16.2600 10.8094 0.4251
16.2800 10.8228 0.4260
16.3000 10.8361 0.4258
16.3200 10.8494 0.4258
16.3400 10.8628 0.4248
16.3600 10.8761 0.4266
16.3800 10.8895 0.4263
16.4000 10.9028 0.4250
16.4200 10.9161 0.4280
16.4400 10.9294 0.4281
16.4600 10.9427 0.4284
16.4800 10.9561 0.4289
16.5000 10.9694 0.4292
16.5200 10.9827 0.4265
16.5400 10.9960 0.4293
16.5600 11.0094 0.4287
16.5800 11.0227 0.4285
16.6000 11.0361 0.4299
16.6200 11.0494 0.4314
16.6400 11.0628 0.4289
16.6600 11.0762 0.4284
16.6800 11.0895 0.4299
16.7000 11.1028 0.4284
16.7200 11.1161 0.4325
16.7400 11.1295 0.4314
16.7600 11.1428 0.4325
16.7800 11.1561 0.4322
16.8000 11.1694 0.4344
16.8200 11.1828 0.4317
16.8400 11.1961 0.4318
16.8600 11.2094 0.4340
16.8800 11.2227 0.4336
16.9000 11.2360 0.4371
16.9200 11.2494 0.4342
16.9400 11.2627 0.4338
16.9600 11.2760 0.4344
16.9800 11.2894 0.4359
17.0000 11.3028 0.4330
17.0200 11.3162 0.4349
17.0400 11.3295 0.4348
17.0600 11.3428 0.4354
17.0800 11.3561 0.4345
17.1000 11.3695 0.4359
17.1200 11.3829 0.4343
17.1400 11.3962 0.4353
17.1600 11.4095 0.4358
17.1800 11.4228 0.4348
17.2000 11.4361 0.4391
17.2200 11.4494 0.4396
17.2400 11.4627 0.4393
17.2600 11.4760 0.4388
17.2800 11.4894 0.4395
17.3000 11.5027 0.4385
17.3200 11.5160 0.4391
17.3400 11.5294 0.4372
17.3600 11.5428 0.4389
17.3800 11.5562 0.4394
17.4000 11.5695 0.4407
17.4200 11.5828 0.4400
17.4400 11.5962 0.4415
17.4600 11.6095 0.4419
17.4800 11.6229 0.4394
17.5000 11.6361 0.4414
17.5200 11.6494 0.4413
17.5400 11.6627 0.4415
17.5600 11.6761 0.4426
17.5800 11.6894 0.4440
17.6000 11.7027 0.4442
17.6200 11.7160 0.4447
17.6400 11.7294 0.4431
17.6600 11.7427 0.4423
17.6800 11.7561 0.4429
17.7000 11.7694 0.4442
17.7200 11.7827 0.4449
17.7400 11.7961 0.4467
17.7600 11.8095 0.4446
17.7800 11.8228 0.4447
17.8000 11.8361 0.4473
17.8200 11.8495 0.4466
17.8400 11.8628 0.4439
17.8600 11.8761 0.4458
17.8800 11.8894 0.4469
17.9000 11.9027 0.4469
17.9200 11.9161 0.4459
17.9400 11.9294 0.4491
17.9600 11.9427 0.4481
17.9800 11.9560 0.4479
18.0000 11.9694 0.4482
18.0200 11.9827 0.4497
18.0400 11.9961 0.4495
18.0600 12.0094 0.4486
18.0800 12.0228 0.4473
18.1000 12.0362 0.4470
18.1200 12.0495 0.4497
18.1400 12.0628 0.4494
18.1600 12.0761 0.4488
18.1800 12.0895 0.4520
18.2000 12.1028 0.4501
18.2200 12.1161 0.4510
18.2400 12.1294 0.4542
18.2600 12.1427 0.4519
18.2800 12.1561 0.4546
18.3000 12.1694 0.4537
18.3200 12.1827 0.4538
18.3400 12.1961 0.4534
18.3600 12.2094 0.4548
18.3800 12.2227 0.4515
18.4000 12.2360 0.4533
18.4200 12.2494 0.4551
18.4400 12.2627 0.4543
18.4600 12.2761 0.4538
18.4800 12.2895 0.4545
18.5000 12.3028 0.4547
18.5200 12.3161 0.4548
18.5400 12.3295 0.4588
18.5600 12.3429 0.4569
18.5800 12.3562 0.4587
18.6000 12.3694 0.4577
18.6200 12.3828 0.4587
18.6400 12.3961 0.4583
18.6600 12.4094 0.4581
18.6800 12.4227 0.4579
18.7000 12.4360 0.4581
18.7200 12.4493 0.4608
18.7400 12.4627 0.4579
18.7600 12.4760 0.4595
18.7800 12.4894 0.4599
18.8000 12.5027 0.4582
18.8200 12.5161 0.4594
18.8400 12.5295 0.4606
18.8600 12.5428 0.4610
18.8800 12.5561 0.4596
18.9000 12.5695 0.4607
18.9200 12.5828 0.4621
18.9400 12.5961 0.4638
18.9600 12.6094 0.4661
18.9800 12.6227 0.4626
19.0000 12.6361 0.4610
19.0200 12.6494 0.4617
19.0400 12.6627 0.4640
19.0600 12.6760 0.4646
19.0800 12.6894 0.4657
19.1000 12.7027 0.4636
19.1200 12.7160 0.4670
19.1400 12.7294 0.4655
19.1600 12.7427 0.4649
19.1800 12.7561 0.4636
19.2000 12.7695 0.4630
19.2200 12.7828 0.4635
19.2400 12.7962 0.4646
19.2600 12.8095 0.4674
19.2800 12.8229 0.4653
19.3000 12.8362 0.4647
19.3200 12.8495 0.4674
19.3400 12.8628 0.4693
19.3600 12.8761 0.4659
19.3800 12.8894 0.4668
19.4000 12.9027 0.4656
19.4200 12.9160 0.4667
19.4400 12.9294 0.4672
19.4600 12.9428 0.4681
19.4800 12.9561 0.4686
19.5000 12.9694 0.4697
19.5200 12.9828 0.4698
19.5400 12.9961 0.4689
19.5600 13.0095 0.4699
19.5800 13.0228 0.4707
19.6000 13.0361 0.4698
19.6200 13.0495 0.4706
19.6400 13.0628 0.4689
19.6600 13.0761 0.4716
19.6800 13.0894 0.4738
19.7000 13.1027 0.4738
19.7200 13.1161 0.4724
19.7400 13.1294 0.4714
19.7600 13.1427 0.4731
19.7800 13.1560 0.4753
19.8000 13.1694 0.4744
19.8200 13.1827 0.4748
19.8400 13.1961 0.4716
19.8600 13.2094 0.4733
19.8800 13.2228 0.4734
19.9000 13.2361 0.4774
19.9200 13.2495 0.4744
19.9400 13.2628 0.4753
19.9600 13.2761 0.4747
19.9800 13.2895 0.4758
20.0000 13.3028 0.4753
20.0200 13.3162 0.4752
20.0400 13.3294 0.4755
20.0600 13.3427 0.4761
20.0800 13.3561 0.4771
20.1000 13.3694 0.4789
20.1200 13.3827 0.4796
20.1400 13.3960 0.4769
20.1600 13.4094 0.4787
20.1800 13.4227 0.4774
20.2000 13.4361 0.4796
20.2200 13.4494 0.4800
20.2400 13.4628 0.4803
20.2600 13.4761 0.4792
20.2800 13.4895 0.4801
20.3000 13.5028 0.4815
20.3200 13.5161 0.4809
20.3400 13.5294 0.4812
20.3600 13.5428 0.4815
20.3800 13.5561 0.4811
20.4000 13.5694 0.4819
20.4200 13.5827 0.4815
20.4400 13.5961 0.4828
20.4600 13.6094 0.4840
20.4800 13.6228 0.4843
20.5000 13.6361 0.4861
20.5200 13.6494 0.4841
20.5400 13.6627 0.4852
20.5600 13.6761 0.4837
20.5800 13.6894 0.4842
20.6000 13.7027 0.4856
20.6200 13.7161 0.4844
20.6400 13.7295 0.4859
20.6600 13.7428 0.4846
20.6800 13.7561 0.4863
20.7000 13.7695 0.4835
20.7200 13.7828 0.4863
20.7400 13.7962 0.4861
20.7600 13.8095 0.4881
20.7800 13.8228 0.4847
20.8000 13.8361 0.4881
20.8200 13.8494 0.4857
20.8400 13.8627 0.4888
20.8600 13.8760 0.4873
20.8800 13.8894 0.4895
20.9000 13.9027 0.4883
20.9200 13.9161 0.4883
20.9400 13.9294 0.4913
20.9600 13.9428 0.4911
20.9800 13.9561 0.4917
21.0000 13.9695 0.4898
21.0200 13.9828 0.4930
21.0400 13.9961 0.4893
21.0600 14.0095 0.4920
21.0800 14.0228 0.4912
21.1000 14.0361 0.4920
21.1200 14.0494 0.4915
21.1400 14.0627 0.4925
21.1600 14.0761 0.4919
21.1800 14.0894 0.4935
21.2000 14.1028 0.4954
21.2200 14.1160 0.4939
21.2400 14.1294 0.4944
21.2600 14.1427 0.4930
21.2800 14.1560 0.4947
21.3000 14.1694 0.4944
21.3200 14.1827 0.4965
21.3400 14.1961 0.4948
21.3600 14.2095 0.4949
21.3800 14.2228 0.4953
21.4000 14.2361 0.4954
21.4200 14.2495 0.4955
21.4400 14.2628 0.4961
21.4600 14.2762 0.4953
21.4800 14.2895 0.4969
21.5000 14.3027 0.4970
21.5200 14.3161 0.4980
21.5400 14.3294 0.4971
21.5600 14.3427 0.4963
21.5800 14.3560 0.4963
21.6000 14.3694 0.4980
21.6200 14.3827 0.5011
21.6400 14.3961 0.4999
21.6600 14.4094 0.5006
21.6800 14.4228 0.5014
21.7000 14.4361 0.5002
21.7200 14.4495 0.5006
21.7400 14.4628 0.5008
21.7600 14.4761 0.4998
21.7800 14.4894 0.5007
21.8000 14.5028 0.5014
21.8200 14.5161 0.5026
21.8400 14.5295 0.5025
21.8600 14.5428 0.5047
21.8800 14.5561 0.5026
21.9000 14.5694 0.5023
21.9200 14.5828 0.5028
21.9400 14.5961 0.5026
21.9600 14.6094 0.5020
21.9800 14.6228 0.5047
22.0000 14.6361 0.5026
22.0200 14.6494 0.5025
22.0400 14.6627 0.5043
22.0600 14.6761 0.5048
22.0800 14.6895 0.5053
22.1000 14.7028 0.5054
22.1200 14.7161 0.5066
22.1400 14.7294 0.5049
22.1600 14.7428 0.5051
22.1800 14.7562 0.5050
22.2000 14.7695 0.5065
22.2200 14.7827 0.5061
22.2400 14.7961 0.5054
22.2600 14.8094 0.5073
22.2800 14.8228 0.5063
22.3000 14.8361 0.5081
22.3200 14.8494 0.5081
22.3400 14.8627 0.5089
22.3600 14.8761 0.5067
22.3800 14.8894 0.5093
22.4000 14.9027 0.5090
22.4200 14.9161 0.5098
22.4400 14.9295 0.5099
22.4600 14.9428 0.5106
22.4800 14.9561 0.5115
22.5000 14.9695 0.5111
22.5200 14.9828 0.5120
22.5400 14.9962 0.5113
22.5600 15.0095 0.5126
22.5800 15.0228 0.5124
22.6000 15.0361 0.5131
22.6200 15.0494 0.5115
22.6400 15.0627 0.5118
22.6600 15.0760 0.5139
22.6800 15.0893 0.5130
22.7000 15.1027 0.5162
22.7200 15.1160 0.5138
22.7400 15.1293 0.5136
22.7600 15.1427 0.5138
22.7800 15.1561 0.5144
22.8000 15.1695 0.5160
22.8200 15.1828 0.5177
22.8400 15.1961 0.5170
22.8600 15.2095 0.5173
22.8800 15.2228 0.5168
22.9000 15.2362 0.5162
22.9200 15.2495 0.5159
22.9400 15.2628 0.5167
22.9600 15.2761 0.5183
22.9800 15.2895 0.5178
23.0000 15.3028 0.5167
23.0200 15.3161 0.5176
23.0400 15.3294 0.5173
23.0600 15.3427 0.5188
23.0800 15.3560 0.5193
23.1000 15.3694 0.5179
23.1200 15.3827 0.5195
23.1400 15.3961 0.5201
23.1600 15.4095 0.5201
23.1800 15.4228 0.5201
23.2000 15.4361 0.5209
23.2200 15.4495 0.5197
23.2400 15.4628 0.5214
23.2600 15.4762 0.5217
23.2800 15.4895 0.5226
23.3000 15.5028 0.5233
23.3200 15.5161 0.5229
23.3400 15.5295 0.5225
23.3600 15.5428 0.5227
23.3800 15.5561 0.5218
23.4000 15.5694 0.5241
23.4200 15.5827 0.5240
23.4400 15.5961 0.5238
23.4600 15.6094 0.5239
23.4800 15.6227 0.5242
23.5000 15.6361 0.5252
23.5200 15.6495 0.5261
23.5400 15.6628 0.5250
23.5600 15.6761 0.5274
23.5800 15.6894 0.5266
23.6000 15.7028 0.5279
23.6200 15.7161 0.5279
23.6400 15.7295 0.5283
23.6600 15.7427 0.5280
23.6800 15.7561 0.5289
23.7000 15.7694 0.5271
23.7200 15.7827 0.5287
23.7400 15.7960 0.5297
23.7600 15.8094 0.5296
23.7800 15.8227 0.5285
23.8000 15.8361 0.5298
23.8200 15.8494 0.5299
23.8400 15.8627 0.5315
23.8600 15.8761 0.5311
23.8800 15.8894 0.5322
23.9000 15.9028 0.5303
23.9200 15.9161 0.5310
23.9400 15.9294 0.5311
23.9600 15.9428 0.5321
23.9800 15.9561 0.5341
24.0000 15.9694 0.5330
24.0200 15.9828 0.5329
24.0400 15.9961 0.5321
24.0600 16.0094 0.5338
24.0800 16.0228 0.5344
24.1000 16.0361 0.5369
24.1200 16.0494 0.5336
24.1400 16.0627 0.5357
24.1600 16.0761 0.5343
24.1800 16.0894 0.5346
24.2000 16.1027 0.5350
24.2200 16.1161 0.5363
24.2400 16.1295 0.5354
24.2600 16.1429 0.5355
24.2800 16.1562 0.5386
24.3000 16.1695 0.5361
24.3200 16.1828 0.5367
24.3400 16.1962 0.5384
24.3600 16.2095 0.5384
24.3800 16.2228 0.5390
24.4000 16.2361 0.5382
24.4200 16.2494 0.5402
24.4400 16.2628 0.5384
24.4600 16.2761 0.5396
24.4800 16.2894 0.5382
24.5000 16.3027 0.5391
24.5200 16.3160 0.5400
24.5400 16.3294 0.5414
24.5600 16.3427 0.5397
24.5800 16.3561 0.5416
24.6000 16.3695 0.5393
24.6200 16.3828 0.5414
24.6400 16.3962 0.5415
24.6600 16.4095 0.5401
24.6800 16.4228 0.5415
24.7000 16.4362 0.5416
24.7200 16.4495 0.5424
24.7400 16.4628 0.5419
24.7600 16.4761 0.5449
24.7800 16.4894 0.5421
24.8000 16.5028 0.5451
24.8200 16.5161 0.5443
24.8400 16.5294 0.5438
24.8600 16.5427 0.5443
24.8800 16.5560 0.5468
24.9000 16.5694 0.5456
24.9200 16.5827 0.5464
24.9400 16.5961 0.5476
24.9600 16.6094 0.5478
24.9800 16.6228 0.5481
25.0000 16.6362 0.5474
25.0200 16.6495 0.5462
25.0400 16.6628 0.5466
25.0600 16.6762 0.5489
25.0800 16.6895 0.5485
25.1000 16.7028 0.5490
25.1200 16.7161 0.5510
25.1400 16.7294 0.5499
25.1600 16.7427 0.5496
25.1800 16.7560 0.5516
25.2000 16.7693 0.5493
25.2200 16.7827 0.5517
25.2400 16.7960 0.5513
25.2600 16.8094 0.5516
25.2800 16.8227 0.5507
25.3000 16.8361 0.5522
25.3200 16.8495 0.5517
25.3400 16.8628 0.5511
25.3600 16.8762 0.5532
25.3800 16.8895 0.5530
25.4000 16.9028 0.5545
25.4200 16.9162 0.5549
25.4400 16.9295 0.5528
25.4600 16.9428 0.5535
25.4800 16.9561 0.5534
25.5000 16.9694 0.5554
25.5200 16.9828 0.5549
25.5400 16.9961 0.5570
25.5600 17.0094 0.5562
25.5800 17.0227 0.5542
25.6000 17.0360 0.5561
25.6200 17.0494 0.5568
25.6400 17.0627 0.5584
25.6600 17.0761 0.5587
25.6800 17.0895 0.5576
25.7000 17.1028 0.5544
25.7200 17.1162 0.5564
25.7400 17.1295 0.5548
25.7600 17.1428 0.5586
25.7800 17.1562 0.5583
25.8000 17.1695 0.5589
25.8200 17.1828 0.5584
25.8400 17.1961 0.5602
25.8600 17.2094 0.5607
25.8800 17.2228 0.5589
25.9000 17.2361 0.5618
25.9200 17.2494 0.5594
25.9400 17.2627 0.5607
25.9600 17.2760 0.5617
25.9800 17.2894 0.5622
26.0000 17.3027 0.5608
26.0200 17.3161 0.5629
26.0400 17.3294 0.5617
26.0600 17.3428 0.5625
26.0800 17.3562 0.5653
26.1000 17.3694 0.5665
26.1200 17.3828 0.5636
26.1400 17.3961 0.5652
26.1600 17.4095 0.5654
26.1800 17.4228 0.5644
26.2000 17.4361 0.5667
26.2200 17.4494 0.5648
26.2400 17.4628 0.5663
26.2600 17.4761 0.5660
26.2800 17.4894 0.5654
26.3000 17.5027 0.5662
26.3200 17.5160 0.5677
26.3400 17.5294 0.5671
26.3600 17.5427 0.5674
26.3800 17.5560 0.5674
26.4000 17.5694 0.5674
26.4200 17.5828 0.5690
26.4400 17.5962 0.5715
26.4600 17.6095 0.5711
26.4800 17.6228 0.5696
26.5000 17.6362 0.5710
26.5200 17.6495 0.5688
26.5400 17.6628 0.5716
26.5600 17.6761 0.5717
26.5800 17.6894 0.5713
26.6000 17.7028 0.5730
26.6200 17.7161 0.5717
26.6400 17.7294 0.5700
26.6600 17.7427 0.5701
26.6800 17.7561 0.5726
26.7000 17.7694 0.5712
26.7200 17.7827 0.5726
26.7400 17.7961 0.5744
26.7600 17.8094 0.5752
26.7800 17.8228 0.5742
26.8000 17.8362 0.5737
26.8200 17.8495 0.5746
26.8400 17.8628 0.5762
26.8600 17.8761 0.5765
26.8800 17.8895 0.5778
26.9000 17.9028 0.5743
26.9200 17.9161 0.5765
26.9400 17.9294 0.5785
26.9600 17.9427 0.5768
26.9800 17.9561 0.5778
27.0000 17.9694 0.5786
27.0200 17.9827 0.5774
27.0400 17.9960 0.5794
27.0600 18.0094 0.5805
27.0800 18.0227 0.5789
27.1000 18.0361 0.5815
27.1200 18.0494 0.5788
27.1400 18.0628 0.5808
27.1600 18.0762 0.5800
27.1800 18.0895 0.5826
27.2000 18.1028 0.5807
27.2200 18.1162 0.5844
27.2400 18.1295 0.5816
27.2600 18.1428 0.5806
27.2800 18.1561 0.5824
27.3000 18.1694 0.5829
27.3200 18.1828 0.5811
27.3400 18.1961 0.5846
27.3600 18.2094 0.5840
27.3800 18.2227 0.5838
27.4000 18.2360 0.5848
27.4200 18.2494 0.5853
27.4400 18.2627 0.5848
27.4600 18.2761 0.5855
27.4800 18.2894 0.5836
27.5000 18.3028 0.5836
27.5200 18.3161 0.5867
27.5400 18.3295 0.5884
27.5600 18.3428 0.5865
27.5800 18.3561 0.5889
27.6000 18.3695 0.5857
27.6200 18.3828 0.5861
27.6400 18.3961 0.5859
27.6600 18.4094 0.5882
27.6800 18.4228 0.5878
27.7000 18.4361 0.5881
27.7200 18.4494 0.5913
27.7400 18.4627 0.5884
27.7600 18.4761 0.5910
27.7800 18.4894 0.5904
27.8000 18.5027 0.5914
27.8200 18.5161 0.5923
27.8400 18.5294 0.5922
27.8600 18.5428 0.5910
27.8800 18.5561 0.5935
27.9000 18.5695 0.5913
27.9200 18.5828 0.5915
27.9400 18.5962 0.5926
27.9600 18.6095 0.5915
27.9800 18.6228 0.5908
28.0000 18.6361 0.5943
28.0200 18.6494 0.5958
28.0400 18.6627 0.5937
28.0600 18.6761 0.5948
28.0800 18.6894 0.5935
28.1000 18.7027 0.5923
28.1200 18.7160 0.5954
28.1400 18.7294 0.5964
28.1600 18.7427 0.5937
28.1800 18.7561 0.5964
28.2000 18.7695 0.5969
28.2200 18.7828 0.5967
28.2400 18.7962 0.5966
28.2600 18.8095 0.5989
28.2800 18.8228 0.5966
28.3000 18.8361 0.5971
28.3200 18.8495 0.5983
28.3400 18.8628 0.5956
28.3600 18.8761 0.5993
28.3800 18.8894 0.6004
28.4000 18.9028 0.6017
28.4200 18.9161 0.6015
28.4400 18.9294 0.6038
28.4600 18.9427 0.6020
28.4800 18.9560 0.6008
28.5000 18.9694 0.6022
28.5200 18.9827 0.6006
28.5400 18.9960 0.6030
28.5600 19.0094 0.6047
28.5800 19.0228 0.6026
28.6000 19.0362 0.6032
28.6200 19.0495 0.6072
28.6400 19.0628 0.6063
28.6600 19.0761 0.6064
28.6800 19.0895 0.6051
28.7000 19.1028 0.6041
28.7200 19.1161 0.6066
28.7400 19.1294 0.6074
28.7600 19.1427 0.6057
28.7800 19.1561 0.6045
28.8000 19.1694 0.6076
28.8200 19.1827 0.6062
28.8400 19.1960 0.6077
28.8600 19.2094 0.6097
28.8800 19.2227 0.6069
28.9000 19.2361 0.6098
28.9200 19.2494 0.6084
28.9400 19.2628 0.6081
28.9600 19.2761 0.6092
28.9800 19.2895 0.6101
29.0000 19.3028 0.6073
29.0200 19.3161 0.6092
29.0400 19.3295 0.6103
29.0600 19.3428 0.6105
29.0800 19.3561 0.6107
29.1000 19.3694 0.6135
29.1200 19.3828 0.6102
29.1400 19.3961 0.6122
29.1600 19.4094 0.6143
29.1800 19.4227 0.6122
29.2000 19.4361 0.6143
29.2200 19.4494 0.6134
29.2400 19.4627 0.6123
29.2600 19.4760 0.6132
29.2800 19.4894 0.6164
29.3000 19.5028 0.6144
29.3200 19.5161 0.6153
29.3400 19.5294 0.6155
29.3600 19.5427 0.6147
29.3800 19.5561 0.6178
29.4000 19.5695 0.6176
29.4200 19.5828 0.6167
29.4400 19.5961 0.6183
29.4600 19.6094 0.6201
29.4800 19.6228 0.6163
29.5000 19.6361 0.6184
29.5200 19.6494 0.6192
29.5400 19.6627 0.6164
29.5600 19.6760 0.6194
29.5800 19.6894 0.6200
29.6000 19.7027 0.6206
29.6200 19.7161 0.6216
29.6400 19.7294 0.6232
29.6600 19.7428 0.6213
29.6800 19.7562 0.6207
29.7000 19.7695 0.6226
29.7200 19.7828 0.6198
29.7400 19.7961 0.6212
29.7600 19.8095 0.6214
29.7800 19.8228 0.6219
29.8000 19.8361 0.6240
29.8200 19.8494 0.6253
29.8400 19.8628 0.6248
29.8600 19.8761 0.6230
29.8800 19.8894 0.6248
29.9000 19.9027 0.6211
29.9200 19.9160 0.6240
29.9400 19.9294 0.6261
29.9600 19.9427 0.6241
29.9800 19.9561 0.6276
30.0000 19.9694 0.6266
30.0200 19.9828 0.6263
30.0400 19.9961 0.6251
30.0600 20.0095 0.6280
30.0800 20.0228 0.6276
30.1000 20.0361 0.6287
30.1200 20.0495 0.6294
30.1400 20.0629 0.6280
30.1600 20.0761 0.6287
30.1800 20.0894 0.6305
30.2000 20.1028 0.6316
30.2200 20.1161 0.6309
30.2400 20.1294 0.6327
30.2600 20.1427 0.6296
30.2800 20.1560 0.6324
30.3000 20.1694 0.6318
30.3200 20.1827 0.6322
30.3400 20.1961 0.6314
30.3600 20.2094 0.6337
30.3800 20.2228 0.6333
30.4000 20.2362 0.6332
30.4200 20.2495 0.6346
30.4400 20.2628 0.6333
30.4600 20.2761 0.6354
30.4800 20.2894 0.6360
30.5000 20.3028 0.6335
30.5200 20.3161 0.6344
30.5400 20.3294 0.6368
30.5600 20.3427 0.6365
30.5800 20.3561 0.6381
30.6000 20.3694 0.6398
30.6200 20.3828 0.6371
30.6400 20.3961 0.6373
30.6600 20.4094 0.6385
30.6800 20.4227 0.6388
30.7000 20.4360 0.6384
30.7200 20.4494 0.6398
30.7400 20.4627 0.6383
30.7600 20.4761 0.6397
30.7800 20.4894 0.6418
30.8000 20.5028 0.6400
30.8200 20.5161 0.6393
30.8400 20.5295 0.6409
30.8600 20.5428 0.6410
30.8800 20.5561 0.6422
30.9000 20.5694 0.6437
30.9200 20.5827 0.6437
30.9400 20.5961 0.6414
30.9600 20.6094 0.6446
30.9800 20.6227 0.6405
31.0000 20.6360 0.6451
31.0200 20.6494 0.6461
31.0400 20.6628 0.6442
31.0600 20.6761 0.6449
31.0800 20.6894 0.6466
31.1000 20.7028 0.6431
31.1200 20.7161 0.6473
31.1400 20.7295 0.6460
31.1600 20.7428 0.6457
31.1800 20.7561 0.6465
31.2000 20.7695 0.6492
31.2200 20.7828 0.6473
31.2400 20.7961 0.6500
31.2600 20.8094 0.6512
31.2800 20.8228 0.6480
31.3000 20.8361 0.6481
31.3200 20.8495 0.6502
31.3400 20.8627 0.6489
31.3600 20.8760 0.6495
31.3800 20.8894 0.6520
31.4000 20.9027 0.6516
31.4200 20.9160 0.6519
31.4400 20.9294 0.6517
31.4600 20.9428 0.6514
31.4800 20.9562 0.6508
31.5000 20.9695 0.6527
31.5200 20.9828 0.6512
31.5400 20.9961 0.6515
31.5600 21.0095 0.6545
31.5800 21.0229 0.6544
31.6000 21.0362 0.6536
31.6200 21.0495 0.6550
31.6400 21.0627 0.6551
31.6600 21.0761 0.6571
31.6800 21.0894 0.6585
31.7000 21.1027 0.6574
31.7200 21.1160 0.6552
31.7400 21.1294 0.6586
31.7600 21.1427 0.6578
31.7800 21.1560 0.6602
31.8000 21.1694 0.6607
31.8200 21.1828 0.6600
31.8400 21.1962 0.6593
31.8600 21.2095 0.6619
31.8800 21.2228 0.6591
31.9000 21.2361 0.6598
31.9200 21.2495 0.6595
31.9400 21.2629 0.6609
31.9600 21.2762 0.6625
31.9800 21.2894 0.6636
32.0000 21.3027 0.6619
32.0200 21.3161 0.6611
32.0400 21.3294 0.6634
32.0600 21.3427 0.6650
32.0800 21.3560 0.6641
32.1000 21.3694 0.6657
32.1200 21.3827 0.6638
32.1400 21.3961 0.6642
32.1600 21.4094 0.6639
32.1800 21.4228 0.6649
32.2000 21.4361 0.6652
32.2200 21.4495 0.6669
32.2400 21.4628 0.6684
32.2600 21.4761 0.6661
32.2800 21.4895 0.6674
32.3000 21.5029 0.6684
32.3200 21.5162 0.6676
32.3400 21.5294 0.6697
32.3600 21.5427 0.6680
32.3800 21.5561 0.6677
32.4000 21.5694 0.6708
32.4200 21.5827 0.6702
32.4400 21.5960 0.6704
32.4600 21.6093 0.6717
32.4800 21.6227 0.6705
32.5000 21.6361 0.6698
32.5200 21.6494 0.6745
32.5400 21.6628 0.6744
32.5600 21.6762 0.6723
32.5800 21.6895 0.6732
32.6000 21.7028 0.6737
32.6200 21.7161 0.6717
32.6400 21.7295 0.6755
32.6600 21.7428 0.6716
32.6800 21.7561 0.6746
32.7000 21.7694 0.6754
32.7200 21.7827 0.6785
32.7400 21.7961 0.6760
32.7600 21.8094 0.6782
32.7800 21.8227 0.6776
32.8000 21.8360 0.6758
32.8200 21.8494 0.6781
32.8400 21.8627 0.6778
32.8600 21.8761 0.6764
32.8800 21.8894 0.6792
32.9000 21.9027 0.6791
32.9200 21.9161 0.6771
32.9400 21.9295 0.6815
32.9600 21.9428 0.6806
32.9800 21.9561 0.6814
33.0000 21.9695 0.6814
33.0200 21.9829 0.6811
33.0400 21.9962 0.6796
33.0600 22.0095 0.6823
33.0800 22.0228 0.6829
33.1000 22.0361 0.6813
33.1200 22.0494 0.6839
33.1400 22.0627 0.6821
33.1600 22.0760 0.6843
33.1800 22.0893 0.6867
33.2000 22.1027 0.6859
33.2200 22.1161 0.6836
33.2400 22.1294 0.6855
33.2600 22.1427 0.6847
33.2800 22.1561 0.6871
33.3000 22.1695 0.6857
33.3200 22.1828 0.6858
33.3400 22.1961 0.6865
33.3600 22.2094 0.6893
33.3800 22.2228 0.6896
33.4000 22.2361 0.6882
33.4200 22.2494 0.6896
33.4400 22.2627 0.6888
33.4600 22.2761 0.6876
33.4800 22.2894 0.6910
33.5000 22.3027 0.6918
33.5200 22.3160 0.6904
33.5400 22.3294 0.6918
33.5600 22.3427 0.6922
33.5800 22.3560 0.6925
33.6000 22.3694 0.6941
33.6200 22.3827 0.6931
33.6400 22.3961 0.6915
33.6600 22.4095 0.6928
33.6800 22.4228 0.6931
33.7000 22.4361 0.6940
33.7200 22.4495 0.6965
33.7400 22.4629 0.6961
33.7600 22.4762 0.6932
33.7800 22.4895 0.6966
33.8000 22.5027 0.6979
33.8200 22.5161 0.6985
33.8400 22.5294 0.6981
33.8600 22.5427 0.6991
33.8800 22.5560 0.6958
33.9000 22.5694 0.6985
33.9200 22.5828 0.6996
33.9400 22.5961 0.6980
33.9600 22.6094 0.6999
33.9800 22.6228 0.7026
34.0000 22.6361 0.7008
34.0200 22.6495 0.7027
34.0400 22.6628 0.7029
34.0600 22.6761 0.7015
34.0800 22.6894 0.7033
34.1000 22.7028 0.7037
34.1200 22.7161 0.7041
34.1400 22.7294 0.7062
34.1600 22.7427 0.7058
34.1800 22.7561 0.7028
34.2000 22.7694 0.7044
34.2200 22.7827 0.7050
34.2400 22.7960 0.7027
34.2600 22.8094 0.7049
34.2800 22.8227 0.7042
34.3000 22.8361 0.7058
34.3200 22.8494 0.7056
34.3400 22.8628 0.7079
34.3600 22.8761 0.7071
34.3800 22.8895 0.7087
34.4000 22.9028 0.7078
34.4200 22.9161 0.7074
34.4400 22.9295 0.7090
34.4600 22.9428 0.7094
34.4800 22.9562 0.7070
34.5000 22.9694 0.7112
34.5200 22.9827 0.7109
34.5400 22.9961 0.7123
34.5600 23.0094 0.7097
34.5800 23.0227 0.7124
34.6000 23.0360 0.7103
34.6200 23.0494 0.7127
34.6400 23.0627 0.7137
34.6600 23.0761 0.7124
34.6800 23.0894 0.7143
34.7000 23.1027 0.7154
34.7200 23.1161 0.7146
34.7400 23.1295 0.7159
34.7600 23.1428 0.7175
34.7800 23.1561 0.7133
34.8000 23.1694 0.7173
34.8200 23.1828 0.7171
34.8400 23.1962 0.7176
34.8600 23.2094 0.7174
34.8800 23.2227 0.7195
34.9000 23.2361 0.7182
34.9200 23.2495 0.7192
34.9400 23.2628 0.7206
34.9600 23.2761 0.7184
34.9800 23.2894 0.7201
35.0000 23.3027 0.7225
35.0200 23.3161 0.7200
35.0400 23.3294 0.7223
35.0600 23.3427 0.7236
35.0800 23.3561 0.7218
35.1000 23.3695 0.7224
35.1200 23.3828 0.7234
35.1400 23.3961 0.7232
35.1600 23.4094 0.7242
35.1800 23.4228 0.7270
35.2000 23.4362 0.7251
35.2200 23.4495 0.7269
35.2400 23.4627 0.7272
35.2600 23.4761 0.7250
35.2800 23.4894 0.7271
35.3000 23.5028 0.7295
35.3200 23.5161 0.7283
35.3400 23.5294 0.7285
35.3600 23.5427 0.7293
35.3800 23.5561 0.7281
35.4000 23.5694 0.7315
35.4200 23.5828 0.7320
35.4400 23.5961 0.7319
35.4600 23.6095 0.7293
35.4800 23.6228 0.7318
35.5000 23.6361 0.7279
35.5200 23.6495 0.7338
35.5400 23.6628 0.7308
35.5600 23.6762 0.7331
35.5800 23.6894 0.7317
35.6000 23.7027 0.7384
35.6200 23.7161 0.7342
35.6400 23.7294 0.7350
35.6600 23.7427 0.7342
35.6800 23.7560 0.7345
35.7000 23.7693 0.7336
35.7200 23.7827 0.7371
35.7400 23.7960 0.7379
35.7600 23.8094 0.7378
35.7800 23.8227 0.7380
35.8000 23.8361 0.7359
35.8200 23.8495 0.7365
35.8400 23.8628 0.7391
35.8600 23.8761 0.7379
35.8800 23.8895 0.7417
35.9000 23.9028 0.7436
35.9200 23.9162 0.7408
35.9400 23.9295 0.7391
35.9600 23.9428 0.7415
35.9800 23.9561 0.7409
36.0000 23.9694 0.7423
36.0200 23.9827 0.7443
36.0400 23.9960 0.7445
36.0600 24.0094 0.7438
36.0800 24.0227 0.7452
36.1000 24.0361 0.7438
36.1200 24.0494 0.7445
36.1400 24.0627 0.7461
36.1600 24.0761 0.7465
36.1800 24.0895 0.7452
36.2000 24.1028 0.7459
36.2200 24.1161 0.7460
36.2400 24.1294 0.7452
36.2600 24.1428 0.7498
36.2800 24.1562 0.7465
36.3000 24.1695 0.7481
36.3200 24.1828 0.7472
36.3400 24.1961 0.7490
36.3600 24.2095 0.7496
36.3800 24.2228 0.7532
36.4000 24.2361 0.7513
36.4200 24.2494 0.7539
36.4400 24.2627 0.7532
36.4600 24.2761 0.7525
36.4800 24.2894 0.7535
36.5000 24.3027 0.7541
36.5200 24.3161 0.7537
36.5400 24.3295 0.7530
36.5600 24.3428 0.7551
36.5800 24.3561 0.7566
36.6000 24.3694 0.7553
36.6200 24.3828 0.7556
36.6400 24.3962 0.7539
36.6600 24.4095 0.7553
36.6800 24.4228 0.7568
36.7000 24.4361 0.7587
36.7200 24.4495 0.7571
36.7400 24.4628 0.7572
36.7600 24.4761 0.7573
36.7800 24.4894 0.7601
36.8000 24.5027 0.7612
36.8200 24.5160 0.7631
36.8400 24.5294 0.7603
36.8600 24.5427 0.7608
36.8800 24.5561 0.7588
36.9000 24.5695 0.7608
36.9200 24.5828 0.7615
36.9400 24.5961 0.7620
36.9600 24.6094 0.7633
36.9800 24.6228 0.7672
37.0000 24.6361 0.7656
37.0200 24.6495 0.7643
37.0400 24.6628 0.7665
37.0600 24.6761 0.7655
37.0800 24.6894 0.7661
37.1000 24.7028 0.7680
37.1200 24.7161 0.7677
37.1400 24.7294 0.7664
37.1600 24.7427 0.7688
37.1800 24.7561 0.7690
37.2000 24.7694 0.7706
37.2200 24.7827 0.7701
37.2400 24.7961 0.7701
37.2600 24.8095 0.7725
37.2800 24.8228 0.7738
37.3000 24.8361 0.7725
37.3200 24.8495 0.7697
37.3400 24.8628 0.7725
37.3600 24.8762 0.7729
37.3800 24.8895 0.7722
37.4000 24.9028 0.7753
37.4200 24.9161 0.7752
37.4400 24.9295 0.7761
37.4600 24.9428 0.7763
37.4800 24.9561 0.7761
37.5000 24.9693 0.7780
37.5200 24.9827 0.7757
37.5400 24.9960 0.7755
37.5600 25.0094 0.7776
37.5800 25.0227 0.7789
37.6000 25.0361 0.7799
37.6200 25.0495 0.7785
37.6400 25.0628 0.7779
37.6600 25.0761 0.7780
37.6800 25.0895 0.7793
37.7000 25.1028 0.7800
37.7200 25.1162 0.7814
37.7400 25.1295 0.7815
37.7600 25.1428 0.7838
37.7800 25.1561 0.7826
37.8000 25.1694 0.7834
37.8200 25.1828 0.7852
37.8400 25.1961 0.7844
37.8600 25.2094 0.7839
37.8800 25.2227 0.7859
37.9000 25.2361 0.7858
37.9200 25.2494 0.7855
37.9400 25.2627 0.7878
37.9600 25.2761 0.7873
37.9800 25.2895 0.7874
38.0000 25.3028 0.7877
38.0200 25.3161 0.7879
38.0400 25.3295 0.7888
38.0600 25.3428 0.7909
38.0800 25.3562 0.7913
38.1000 25.3695 0.7906
38.1200 25.3828 0.7912
38.1400 25.3961 0.7918
38.1600 25.4094 0.7909
38.1800 25.4227 0.7927
38.2000 25.4360 0.7939
38.2200 25.4494 0.7929
38.2400 25.4627 0.7951
38.2600 25.4760 0.7929
38.2800 25.4894 0.7954
38.3000 25.5027 0.7964
38.3200 25.5161 0.7958
38.3400 25.5294 0.7962
38.3600 25.5428 0.7968
38.3800 25.5561 0.7976
38.4000 25.5694 0.7960
38.4200 25.5828 0.7990
38.4400 25.5961 0.7989
38.4600 25.6095 0.7991
38.4800 25.6228 0.7986
38.5000 25.6361 0.7991
38.5200 25.6494 0.7989
38.5400 25.6628 0.8009
38.5600 25.6761 0.8015
38.5800 25.6894 0.8022
38.6000 25.7027 0.8014
38.6200 25.7161 0.8023
38.6400 25.7294 0.8034
38.6600 25.7427 0.8050
38.6800 25.7560 0.8061
38.7000 25.7694 0.8045
38.7200 25.7828 0.8056
38.7400 25.7962 0.8068
38.7600 25.8095 0.8053
38.7800 25.8228 0.8076
38.8000 25.8362 0.8069
38.8200 25.8495 0.8069
38.8400 25.8628 0.8086
38.8600 25.8761 0.8096
38.8800 25.8894 0.8088
38.9000 25.9028 0.8106
38.9200 25.9161 0.8115
38.9400 25.9293 0.8104
38.9600 25.9427 0.8111
38.9800 25.9560 0.8126
39.0000 25.9694 0.8121
39.0200 25.9827 0.8143
39.0400 25.9961 0.8142
39.0600 26.0094 0.8137
39.0800 26.0228 0.8151
39.1000 26.0362 0.8159
39.1200 26.0495 0.8141
39.1400 26.0628 0.8159
39.1600 26.0762 0.8159
39.1800 26.0895 0.8160
39.2000 26.1028 0.8180
39.2200 26.1161 0.8204
39.2400 26.1294 0.8180
39.2600 26.1428 0.8192
39.2800 26.1561 0.8174
39.3000 26.1694 0.8180
39.3200 26.1827 0.8190
39.3400 26.1961 0.8206
39.3600 26.2094 0.8186
39.3800 26.2227 0.8234
39.4000 26.2361 0.8230
39.4200 26.2494 0.8236
39.4400 26.2628 0.8238
39.4600 26.2762 0.8237
39.4800 26.2895 0.8228
39.5000 26.3028 0.8258
39.5200 26.3162 0.8272
39.5400 26.3295 0.8262
39.5600 26.3428 0.8297
39.5800 26.3561 0.8283
39.6000 26.3694 0.8281
39.6200 26.3827 0.8292
39.6400 26.3961 0.8291
39.6600 26.4093 0.8304
39.6800 26.4226 0.8313
39.7000 26.4360 0.8301
39.7200 26.4494 0.8312
39.7400 26.4627 0.8323
39.7600 26.4761 0.8327
39.7800 26.4895 0.8327
39.8000 26.5028 0.8338
39.8200 26.5161 0.8351
39.8400 26.5295 0.8348
39.8600 26.5428 0.8351
39.8800 26.5562 0.8350
39.9000 26.5695 0.8352
39.9200 26.5828 0.8369
39.9400 26.5961 0.8375
39.9600 26.6094 0.8386
39.9800 26.6228 0.8376
40.0000 26.6361 0.8395
40.0200 26.6494 0.8365
40.0400 26.6627 0.8403
40.0600 26.6760 0.8380
40.0800 26.6894 0.8427
40.1000 26.7027 0.8405
40.1200 26.7161 0.8429
40.1400 26.7294 0.8412
40.1600 26.7428 0.8445
40.1800 26.7562 0.8417
40.2000 26.7695 0.8439
40.2200 26.7828 0.8428
40.2400 26.7962 0.8449
40.2600 26.8095 0.8450
40.2800 26.8228 0.8456
40.3000 26.8361 0.8488
40.3200 26.8494 0.8453
40.3400 26.8628 0.8461
40.3600 26.8761 0.8471
40.3800 26.8894 0.8480
40.4000 26.9027 0.8466
40.4200 26.9160 0.8491
40.4400 26.9294 0.8497
40.4600 26.9428 0.8508
40.4800 26.9561 0.8511
40.5000 26.9694 0.8531
40.5200 26.9828 0.8528
40.5400 26.9961 0.8518
40.5600 27.0094 0.8526
40.5800 27.0228 0.8523
40.6000 27.0361 0.8551
40.6200 27.0495 0.8546
40.6400 27.0628 0.8561
40.6600 27.0761 0.8569
40.6800 27.0894 0.8559
40.7000 27.1028 0.8559
40.7200 27.1161 0.8571
40.7400 27.1294 0.8564
40.7600 27.1427 0.8578
40.7800 27.1560 0.8593
40.8000 27.1694 0.8605
40.8200 27.1827 0.8609
40.8400 27.1960 0.8614
40.8600 27.2094 0.8610
40.8800 27.2228 0.8621
40.9000 27.2362 0.8631
40.9200 27.2495 0.8620
40.9400 27.2628 0.8647
40.9600 27.2762 0.8645
40.9800 27.2895 0.8653
41.0000 27.3028 0.8647
41.0200 27.3161 0.8669
41.0400 27.3294 0.8679
41.0600 27.3427 0.8674
41.0800 27.3561 0.8676
41.1000 27.3694 0.8681
41.1200 27.3827 0.8678
41.1400 27.3961 0.8670
41.1600 27.4094 0.8669
41.1800 27.4227 0.8708
41.2000 27.4361 0.8699
41.2200 27.4494 0.8716
41.2400 27.4628 0.8720
41.2600 27.4762 0.8724
41.2800 27.4895 0.8741
41.3000 27.5028 0.8751
41.3200 27.5161 0.8737
41.3400 27.5295 0.8745
41.3600 27.5428 0.8761
41.3800 27.5561 0.8758
41.4000 27.5694 0.8784
41.4200 27.5827 0.8771
41.4400 27.5961 0.8789
41.4600 27.6094 0.8773
41.4800 27.6227 0.8778
41.5000 27.6360 0.8789
41.5200 27.6494 0.8785
41.5400 27.6627 0.8795
41.5600 27.6761 0.8804
41.5800 27.6894 0.8829
41.6000 27.7028 0.8813
41.6200 27.7162 0.8825
41.6400 27.7295 0.8817
41.6600 27.7428 0.8840
41.6800 27.7562 0.8834
41.7000 27.7695 0.8853
41.7200 27.7828 0.8839
41.7400 27.7961 0.8871
41.7600 27.8094 0.8856
41.7800 27.8228 0.8891
41.8000 27.8361 0.8867
41.8200 27.8494 0.8894
41.8400 27.8627 0.8881
41.8600 27.8760 0.8905
41.8800 27.8894 0.8910
41.9000 27.9027 0.8898
41.9200 27.9161 0.8914
41.9400 27.9294 0.8918
41.9600 27.9428 0.8919
41.9800 27.9562 0.8910
42.0000 27.9695 0.8949
42.0200 27.9828 0.8937
42.0400 27.9961 0.8946
42.0600 28.0095 0.8945
42.0800 28.0228 0.8957
42.1000 28.0361 0.8951
42.1200 28.0494 0.8998
42.1400 28.0628 0.8976
42.1600 28.0761 0.9001
42.1800 28.0894 0.9002
42.2000 28.1027 0.9016
42.2200 28.1160 0.9009
42.2400 28.1294 0.9007
42.2600 28.1427 0.9014
42.2800 28.1561 0.9029
42.3000 28.1694 0.9027
42.3200 28.1828 0.9038
42.3400 28.1961 0.9037
42.3600 28.2094 0.9050
42.3800 28.2228 0.9036
42.4000 28.2361 0.9060
42.4200 28.2495 0.9066
42.4400 28.2628 0.9057
42.4600 28.2761 0.9080
42.4800 28.2894 0.9087
42.5000 28.3028 0.9099
42.5200 28.3161 0.9108
42.5400 28.3294 0.9106
42.5600 28.3427 0.9100
42.5800 28.3560 0.9125
42.6000 28.3694 0.9123
42.6200 28.3827 0.9138
42.6400 28.3961 0.9111
42.6600 28.4095 0.9123
42.6800 28.4228 0.9129
42.7000 28.4362 0.9141
42.7200 28.4495 0.9162
42.7400 28.4628 0.9165
42.7600 28.4762 0.9194
42.7800 28.4895 0.9176
42.8000 28.5028 0.9200
42.8200 28.5161 0.9189
42.8400 28.5294 0.9196
42.8600 28.5427 0.9170
42.8800 28.5561 0.9184
42.9000 28.5694 0.9218
42.9200 28.5827 0.9215
42.9400 28.5960 0.9222
42.9600 28.6094 0.9252
42.9800 28.6227 0.9246
43.0000 28.6360 0.9246
43.0200 28.6494 0.9255
43.0400 28.6628 0.9252
43.0600 28.6762 0.9271
43.0800 28.6895 0.9282
43.1000 28.7028 0.9288
43.1200 28.7161 0.9274
43.1400 28.7295 0.9278
43.1600 28.7428 0.9279
43.1800 28.7561 0.9310
43.2000 28.7694 0.9319
43.2200 28.7827 0.9300
43.2400 28.7961 0.9310
43.2600 28.8094 0.9316
43.2800 28.8227 0.9312
43.3000 28.8360 0.9321
43.3200 28.8494 0.9345
43.3400 28.8628 0.9355
43.3600 28.8761 0.9361
43.3800 28.8894 0.9350
43.4000 28.9028 0.9365
43.4200 28.9162 0.9381
43.4400 28.9295 0.9399
43.4600 28.9428 0.9399
43.4800 28.9561 0.9395
43.5000 28.9695 0.9416
43.5200 28.9828 0.9402
43.5400 28.9962 0.9420
43.5600 29.0095 0.9415
43.5800 29.0228 0.9414
43.6000 29.0361 0.9416
43.6200 29.0494 0.9443
43.6400 29.0627 0.9433
43.6600 29.0760 0.9434
43.6800 29.0894 0.9449
43.7000 29.1027 0.9461
43.7200 29.1161 0.9469
43.7400 29.1294 0.9482
43.7600 29.1428 0.9473
43.7800 29.1561 0.9465
43.8000 29.1694 0.9503
43.8200 29.1828 0.9510
43.8400 29.1961 0.9517
43.8600 29.2095 0.9525
43.8800 29.2228 0.9508
43.9000 29.2361 0.9529
43.9200 29.2494 0.9546
43.9400 29.2628 0.9560
43.9600 29.2761 0.9540
43.9800 29.2894 0.9566
44.0000 29.3027 0.9541
44.0200 29.3160 0.9571
44.0400 29.3294 0.9571
44.0600 29.3427 0.9591
44.0800 29.3560 0.9573
44.1000 29.3694 0.9592
44.1200 29.3828 0.9578
44.1400 29.3961 0.9599
44.1600 29.4095 0.9619
44.1800 29.4228 0.9618
44.2000 29.4361 0.9610
44.2200 29.4495 0.9609
44.2400 29.4628 0.9628
44.2600 29.4761 0.9644
44.2800 29.4894 0.9677
44.3000 29.5028 0.9655
44.3200 29.5161 0.9664
44.3400 29.5294 0.9677
44.3600 29.5427 0.9675
44.3800 29.5560 0.9674
44.4000 29.5694 0.9707
44.4200 29.5827 0.9710
44.4400 29.5960 0.9707
44.4600 29.6094 0.9707
44.4800 29.6228 0.9731
44.5000 29.6361 0.9714
44.5200 29.6495 0.9761
44.5400 29.6628 0.9743
44.5600 29.6761 0.9735
44.5800 29.6895 0.9748
44.6000 29.7028 0.9771
44.6200 29.7161 0.9768
44.6400 29.7294 0.9782
44.6600 29.7428 0.9790
44.6800 29.7561 0.9809
44.7000 29.7694 0.9806
44.7200 29.7827 0.9794
44.7400 29.7960 0.9801
44.7600 29.8094 0.9799
44.7800 29.8227 0.9828
44.8000 29.8361 0.9815
44.8200 29.8494 0.9850
44.8400 29.8628 0.9851
44.8600 29.8761 0.9848
44.8800 29.8895 0.9868
44.9000 29.9028 0.9867
44.9200 29.9161 0.9870
44.9400 29.9295 0.9866
44.9600 29.9428 0.9895
44.9800 29.9561 0.9892
45.0000 29.9694 0.9924
45.0200 29.9827 0.9916
45.0400 29.9961 0.9903
45.0600 30.0094 0.9921
45.0800 30.0227 0.9943
45.1000 30.0361 0.9923
45.1200 30.0494 0.9956
45.1400 30.0627 0.9945
45.1600 30.0761 0.9958
45.1800 30.0894 0.9964
45.2000 30.1028 0.9963
45.2200 30.1161 0.9968
45.2400 30.1295 0.9988
45.2600 30.1428 1.0002
45.2800 30.1561 1.0001
45.3000 30.1695 1.0007
45.3200 30.1828 1.0006
45.3400 30.1961 1.0008
45.3600 30.2094 1.0034
45.3800 30.2227 1.0042
45.4000 30.2361 1.0044
45.4200 30.2494 1.0069
45.4400 30.2627 1.0083
45.4600 30.2760 1.0067
45.4800 30.2894 1.0081
45.5000 30.3027 1.0090
45.5200 30.3161 1.0084
45.5400 30.3294 1.0088
45.5600 30.3428 1.0104
45.5800 30.3561 1.0098
45.6000 30.3695 1.0121
45.6200 30.3828 1.0134
45.6400 30.3961 1.0132
45.6600 30.4094 1.0154
45.6800 30.4228 1.0145
45.7000 30.4361 1.0134
45.7200 30.4494 1.0140
45.7400 30.4628 1.0160
45.7600 30.4761 1.0170
45.7800 30.4895 1.0177
45.8000 30.5028 1.0204
45.8200 30.5161 1.0189
45.8400 30.5294 1.0206
45.8600 30.5427 1.0214
45.8800 30.5560 1.0214
45.9000 30.5694 1.0227
45.9200 30.5828 1.0226
45.9400 30.5962 1.0240
45.9600 30.6095 1.0246
45.9800 30.6228 1.0252
46.0000 30.6361 1.0278
46.0200 30.6495 1.0299
46.0400 30.6629 1.0312
46.0600 30.6762 1.0301
46.0800 30.6895 1.0295
46.1000 30.7028 1.0317
46.1200 30.7161 1.0302
46.1400 30.7294 1.0319
46.1600 30.7427 1.0332
46.1800 30.7560 1.0315
46.2000 30.7694 1.0337
46.2200 30.7827 1.0350
46.2400 30.7960 1.0341
46.2600 30.8094 1.0354
46.2800 30.8228 1.0376
46.3000 30.8361 1.0359
46.3200 30.8495 1.0376
46.3400 30.8628 1.0403
46.3600 30.8761 1.0407
46.3800 30.8895 1.0404
46.4000 30.9028 1.0428
46.4200 30.9161 1.0415
46.4400 30.9294 1.0433
46.4600 30.9427 1.0453
46.4800 30.9561 1.0453
46.5000 30.9694 1.0452
46.5200 30.9827 1.0462
46.5400 30.9960 1.0479
46.5600 31.0093 1.0480
46.5800 31.0227 1.0501
46.6000 31.0361 1.0480
46.6200 31.0494 1.0487
46.6400 31.0628 1.0494
46.6600 31.0761 1.0509
46.6800 31.0895 1.0516
46.7000 31.1028 1.0533
46.7200 31.1161 1.0521
46.7400 31.1295 1.0557
46.7600 31.1428 1.0566
46.7800 31.1562 1.0564
46.8000 31.1694 1.0571
46.8200 31.1827 1.0596
46.8400 31.1961 1.0577
46.8600 31.2094 1.0580
46.8800 31.2227 1.0608
46.9000 31.2360 1.0620
46.9200 31.2493 1.0607
46.9400 31.2627 1.0623
46.9600 31.2761 1.0611
46.9800 31.2894 1.0658
47.0000 31.3028 1.0659
47.0200 31.3162 1.0668
47.0400 31.3295 1.0659
47.0600 31.3428 1.0691
47.0800 31.3562 1.0677
47.1000 31.3695 1.0676
47.1200 31.3828 1.0697
47.1400 31.3961 1.0703
47.1600 31.4094 1.0704
47.1800 31.4227 1.0715
47.2000 31.4361 1.0727
47.2200 31.4494 1.0735
47.2400 31.4627 1.0759
47.2600 31.4760 1.0739
47.2800 31.4894 1.0764
47.3000 31.5027 1.0770
47.3200 31.5161 1.0786
47.3400 31.5294 1.0780
47.3600 31.5427 1.0796
47.3800 31.5561 1.0789
47.4000 31.5695 1.0791
47.4200 31.5829 1.0822
47.4400 31.5962 1.0831
47.4600 31.6095 1.0824
47.4800 31.6229 1.0856
47.5000 31.6362 1.0858
47.5200 31.6495 1.0870
47.5400 31.6628 1.0871
47.5600 31.6761 1.0879
47.5800 31.6894 1.0880
47.6000 31.7027 1.0921
47.6200 31.7160 1.0895
47.6400 31.7293 1.0909
47.6600 31.7427 1.0902
47.6800 31.7561 1.0944
47.7000 31.7694 1.0920
47.7200 31.7827 1.0974
47.7400 31.7961 1.0956
47.7600 31.8095 1.0970
47.7800 31.8228 1.0971
47.8000 31.8361 1.0959
47.8200 31.8495 1.0967
47.8400 31.8628 1.0983
47.8600 31.8761 1.1006
47.8800 31.8894 1.1001
47.9000 31.9027 1.1022
47.9200 31.9161 1.1008
47.9400 31.9294 1.1010
47.9600 31.9427 1.1043
47.9800 31.9560 1.1056
48.0000 31.9693 1.1052
48.0200 31.9827 1.1067
48.0400 31.9960 1.1066
48.0600 32.0094 1.1081
48.0800 32.0227 1.1102
48.1000 32.0361 1.1102
48.1200 32.0495 1.1102
48.1400 32.0628 1.1124
48.1600 32.0761 1.1120
48.1800 32.0894 1.1131
48.2000 32.1028 1.1156
48.2200 32.1162 1.1167
48.2400 32.1295 1.1158
48.2600 32.1428 1.1192
48.2800 32.1561 1.1175
48.3000 32.1694 1.1204
48.3200 32.1827 1.1237
48.3400 32.1960 1.1198
48.3600 32.2094 1.1220
48.3800 32.2227 1.1227
48.4000 32.2361 1.1236
48.4200 32.2494 1.1239
48.4400 32.2628 1.1263
48.4600 32.2761 1.1256
48.4800 32.2895 1.1270
48.5000 32.3028 1.1297
48.5200 32.3161 1.1300
48.5400 32.3294 1.1287
48.5600 32.3428 1.1306
48.5800 32.3561 1.1303
48.6000 32.3694 1.1307
48.6200 32.3827 1.1349
48.6400 32.3961 1.1345
48.6600 32.4094 1.1357
48.6800 32.4228 1.1384
48.7000 32.4361 1.1366
48.7200 32.4494 1.1361
48.7400 32.4627 1.1396
48.7600 32.4761 1.1396
48.7800 32.4894 1.1404
48.8000 32.5028 1.1411
48.8200 32.5161 1.1422
48.8400 32.5295 1.1431
48.8600 32.5428 1.1470
48.8800 32.5561 1.1464
48.9000 32.5695 1.1484
48.9200 32.5828 1.1475
48.9400 32.5962 1.1485
48.9600 32.6094 1.1478
48.9800 32.6227 1.1504
49.0000 32.6360 1.1510
49.0200 32.6494 1.1526
49.0400 32.6628 1.1536
49.0600 32.6761 1.1550
49.0800 32.6894 1.1529
49.1000 32.7027 1.1570
49.1200 32.7161 1.1576
49.1400 32.7294 1.1578
49.1600 32.7427 1.1602
49.1800 32.7561 1.1601
49.2000 32.7695 1.1614
49.2200 32.7828 1.1617
49.2400 32.7961 1.1634
49.2600 32.8094 1.1608
49.2800 32.8228 1.1652
49.3000 32.8361 1.1659
49.3200 32.8494 1.1663
49.3400 32.8627 1.1666
49.3600 32.8761 1.1684
49.3800 32.8894 1.1658
49.4000 32.9027 1.1699
49.4200 32.9161 1.1704
49.4400 32.9294 1.1711
49.4600 32.9427 1.1749
49.4800 32.9561 1.1746
49.5000 32.9694 1.1753
49.5200 32.9827 1.1771
49.5400 32.9961 1.1772
49.5600 33.0095 1.1738
49.5800 33.0228 1.1783
49.6000 33.0361 1.1788
49.6200 33.0494 1.1775
49.6400 33.0628 1.1836
49.6600 33.0762 1.1818
49.6800 33.0895 1.1837
49.7000 33.1028 1.1858
49.7200 33.1161 1.1864
49.7400 33.1294 1.1851
49.7600 33.1427 1.1884
49.7800 33.1560 1.1882
49.8000 33.1693 1.1888
49.8200 33.1827 1.1917
49.8400 33.1961 1.1923
49.8600 33.2094 1.1919
49.8800 33.2228 1.1951
49.9000 33.2361 1.1957
49.9200 33.2495 1.1947
49.9400 33.2629 1.1976
49.9600 33.2762 1.1991
49.9800 33.2895 1.2001
50.0000 33.3028 1.2035
50.0200 33.3162 1.2011
50.0400 33.3294 1.2022
50.0600 33.3427 1.2031
50.0800 33.3561 1.2051
50.1000 33.3694 1.2042
50.1200 33.3828 1.2070
50.1400 33.3961 1.2065
50.1600 33.4094 1.2047
50.1800 33.4227 1.2089
50.2000 33.4360 1.2094
50.2200 33.4494 1.2106
50.2400 33.4627 1.2134
50.2600 33.4761 1.2134
50.2800 33.4895 1.2129
50.3000 33.5028 1.2171
50.3200 33.5161 1.2172
50.3400 33.5294 1.2173
50.3600 33.5428 1.2177
50.3800 33.5562 1.2177
50.4000 33.5695 1.2187
50.4200 33.5828 1.2205
50.4400 33.5961 1.2249
50.4600 33.6094 1.2232
50.4800 33.6227 1.2253
50.5000 33.6360 1.2251
50.5200 33.6493 1.2253
50.5400 33.6627 1.2270
50.5600 33.6761 1.2312
50.5800 33.6894 1.2287
50.6000 33.7027 1.2317
50.6200 33.7161 1.2311
50.6400 33.7295 1.2319
50.6600 33.7428 1.2333
50.6800 33.7561 1.2359
50.7000 33.7694 1.2355
50.7200 33.7828 1.2375
50.7400 33.7961 1.2372
50.7600 33.8095 1.2378
50.7800 33.8228 1.2407
50.8000 33.8361 1.2426
50.8200 33.8495 1.2422
50.8400 33.8628 1.2437
50.8600 33.8761 1.2465
50.8800 33.8894 1.2451
50.9000 33.9027 1.2467
50.9200 33.9161 1.2479
50.9400 33.9294 1.2480
50.9600 33.9427 1.2508
50.9800 33.9561 1.2532
51.0000 33.9694 1.2517
51.0200 33.9828 1.2541
51.0400 33.9961 1.2562
51.0600 34.0094 1.2561
51.0800 34.0228 1.2585
51.1000 34.0362 1.2587
51.1200 34.0495 1.2578
51.1400 34.0628 1.2582
51.1600 34.0761 1.2619
51.1800 34.0895 1.2610
51.2000 34.1028 1.2627
51.2200 34.1161 1.2657
51.2400 34.1294 1.2620
51.2600 34.1427 1.2673
51.2800 34.1560 1.2675
51.3000 34.1694 1.2694
51.3200 34.1827 1.2685
51.3400 34.1961 1.2724
51.3600 34.2095 1.2722
51.3800 34.2228 1.2758
51.4000 34.2361 1.2753
51.4200 34.2495 1.2749
51.4400 34.2628 1.2753
51.4600 34.2762 1.2795
51.4800 34.2895 1.2780
51.5000 34.3028 1.2798
51.5200 34.3161 1.2817
51.5400 34.3294 1.2814
51.5600 34.3428 1.2839
51.5800 34.3561 1.2865
51.6000 34.3694 1.2865
51.6200 34.3827 1.2863
51.6400 34.3960 1.2886
51.6600 34.4094 1.2891
51.6800 34.4227 1.2897
51.7000 34.4360 1.2921
51.7200 34.4494 1.2928
51.7400 34.4628 1.2950
51.7600 34.4761 1.2965
51.7800 34.4895 1.2964
51.8000 34.5028 1.2987
51.8200 34.5162 1.3002
51.8400 34.5295 1.2999
51.8600 34.5428 1.3004
51.8800 34.5561 1.3037
51.9000 34.5694 1.3033
51.9200 34.5828 1.3033
51.9400 34.5961 1.3068
51.9600 34.6094 1.3071
51.9800 34.6227 1.3087
52.0000 34.6360 1.3114
52.0200 34.6494 1.3092
52.0400 34.6627 1.3112
52.0600 34.6761 1.3145
52.0800 34.6895 1.3142
52.1000 34.7028 1.3152
52.1200 34.7161 1.3189
52.1400 34.7294 1.3195
52.1600 34.7428 1.3205
52.1800 34.7561 1.3222
52.2000 34.7695 1.3217
52.2200 34.7828 1.3215
52.2400 34.7961 1.3259
52.2600 34.8094 1.3252
52.2800 34.8228 1.3252
52.3000 34.8361 1.3291
52.3200 34.8494 1.3281
52.3400 34.8627 1.3320
52.3600 34.8760 1.3345
52.3800 34.8894 1.3326
52.4000 34.9027 1.3354
52.4200 34.9161 1.3358
52.4400 34.9294 1.3376
52.4600 34.9428 1.3383
52.4800 34.9561 1.3421
52.5000 34.9695 1.3385
52.5200 34.9828 1.3400
52.5400 34.9962 1.3410
52.5600 35.0095 1.3416
52.5800 35.0228 1.3444
52.6000 35.0361 1.3497
52.6200 35.0494 1.3482
52.6400 35.0627 1.3499
52.6600 35.0761 1.3514
52.6800 35.0894 1.3511
52.7000 35.1027 1.3530
52.7200 35.1161 1.3551
52.7400 35.1294 1.3556
52.7600 35.1427 1.3561
52.7800 35.1561 1.3597
52.8000 35.1694 1.3604
52.8200 35.1828 1.3608
52.8400 35.1962 1.3636
52.8600 35.2094 1.3625
52.8800 35.2228 1.3656
52.9000 35.2361 1.3684
52.9200 35.2495 1.3688
52.9400 35.2628 1.3696
52.9600 35.2761 1.3710
52.9800 35.2894 1.3714
53.0000 35.3028 1.3713
53.0200 35.3161 1.3758
53.0400 35.3294 1.3765
53.0600 35.3427 1.3770
53.0800 35.3560 1.3780
53.1000 35.3694 1.3785
53.1200 35.3827 1.3801
53.1400 35.3960 1.3849
53.1600 35.4094 1.3818
53.1800 35.4228 1.3831
53.2000 35.4362 1.3853
53.2200 35.4495 1.3856
53.2400 35.4628 1.3870
53.2600 35.4762 1.3898
53.2800 35.4895 1.3899
53.3000 35.5028 1.3900
53.3200 35.5161 1.3934
53.3400 35.5294 1.3934
53.3600 35.5428 1.3949
53.3800 35.5561 1.3992
53.4000 35.5694 1.3981
53.4200 35.5827 1.4000
53.4400 35.5960 1.4037
53.4600 35.6094 1.4029
53.4800 35.6227 1.4040
53.5000 35.6361 1.4069
53.5200 35.6494 1.4058
53.5400 35.6628 1.4081
53.5600 35.6762 1.4100
53.5800 35.6895 1.4125
53.6000 35.7028 1.4127
53.6200 35.7162 1.4163
53.6400 35.7295 1.4140
53.6600 35.7428 1.4179
53.6800 35.7561 1.4218
53.7000 35.7694 1.4204
53.7200 35.7828 1.4208
53.7400 35.7961 1.4223
53.7600 35.8094 1.4258
53.7800 35.8227 1.4257
53.8000 35.8360 1.4269
53.8200 35.8494 1.4282
53.8400 35.8627 1.4292
53.8600 35.8761 1.4325
53.8800 35.8894 1.4316
53.9000 35.9028 1.4334
53.9200 35.9162 1.4362
53.9400 35.9295 1.4381
53.9600 35.9428 1.4379
53.9800 35.9562 1.4413
54.0000 35.9695 1.4411
54.0200 35.9828 1.4434
54.0400 35.9961 1.4440
54.0600 36.0094 1.4462
54.0800 36.0227 1.4447
54.1000 36.0361 1.4483
54.1200 36.0494 1.4502
54.1400 36.0627 1.4512
54.1600 36.0760 1.4561
54.1800 36.0894 1.4547
54.2000 36.1027 1.4579
54.2200 36.1161 1.4596
54.2400 36.1295 1.4596
54.2600 36.1428 1.4578
54.2800 36.1562 1.4609
54.3000 36.1695 1.4618
54.3200 36.1828 1.4634
54.3400 36.1961 1.4659
54.3600 36.2095 1.4679
54.3800 36.2228 1.4686
54.4000 36.2361 1.4722
54.4200 36.2494 1.4721
54.4400 36.2628 1.4715
54.4600 36.2761 1.4756
54.4800 36.2894 1.4748
54.5000 36.3027 1.4785
54.5200 36.3161 1.4790
54.5400 36.3294 1.4815
54.5600 36.3427 1.4805
54.5800 36.3560 1.4854
54.6000 36.3694 1.4846
54.6200 36.3828 1.4864
54.6400 36.3962 1.4890
54.6600 36.4095 1.4904
54.6800 36.4228 1.4925
54.7000 36.4362 1.4949
54.7200 36.4495 1.4941
54.7400 36.4628 1.4942
54.7600 36.4761 1.4988
54.7800 36.4894 1.4973
54.8000 36.5028 1.4992
54.8200 36.5161 1.5017
54.8400 36.5294 1.5055
54.8600 36.5427 1.5045
54.8800 36.5560 1.5098
54.9000 36.5694 1.5093
54.9200 36.5827 1.5130
54.9400 36.5961 1.5115
54.9600 36.6094 1.5123
54.9800 36.6228 1.5138
55.0000 36.6362 1.5178
55.0200 36.6495 1.5169
55.0400 36.6628 1.5190
55.0600 36.6761 1.5217
55.0800 36.6895 1.5220
55.1000 36.7028 1.5221
55.1200 36.7161 1.5240
55.1400 36.7294 1.5295
55.1600 36.7428 1.5295
55.1800 36.7561 1.5323
55.2000 36.7694 1.5340
55.2200 36.7827 1.5336
55.2400 36.7960 1.5372
55.2600 36.8094 1.5379
55.2800 36.8227 1.5394
55.3000 36.8360 1.5422
55.3200 36.8494 1.5434
55.3400 36.8628 1.5420
55.3600 36.8762 1.5462
55.3800 36.8895 1.5470
55.4000 36.9028 1.5494
55.4200 36.9162 1.5539
55.4400 36.9295 1.5537
55.4600 36.9428 1.5527
55.4800 36.9561 1.5564
55.5000 36.9694 1.5579
55.5200 36.9828 1.5586
55.5400 36.9961 1.5617
55.5600 37.0094 1.5613
55.5800 37.0227 1.5631
55.6000 37.0361 1.5652
55.6200 37.0494 1.5674
55.6400 37.0628 1.5685
55.6600 37.0761 1.5722
55.6800 37.0894 1.5732
55.7000 37.1028 1.5743
55.7200 37.1162 1.5784
55.7400 37.1295 1.5784
55.7600 37.1428 1.5778
55.7800 37.1561 1.5818
55.8000 37.1695 1.5827
55.8200 37.1828 1.5849
55.8400 37.1961 1.5879
55.8600 37.2094 1.5880
55.8800 37.2227 1.5868
55.9000 37.2360 1.5909
55.9200 37.2494 1.5920
55.9400 37.2627 1.5939
55.9600 37.2760 1.5958
55.9800 37.2894 1.5982
56.0000 37.3027 1.5976
56.0200 37.3161 1.6025
56.0400 37.3294 1.6035
56.0600 37.3428 1.6049
56.0800 37.3562 1.6076
56.1000 37.3695 1.6097
56.1200 37.3828 1.6099
56.1400 37.3961 1.6117
56.1600 37.4095 1.6129
56.1800 37.4228 1.6153
56.2000 37.4361 1.6171
56.2200 37.4494 1.6187
56.2400 37.4628 1.6175
56.2600 37.4761 1.6207
56.2800 37.4894 1.6234
56.3000 37.5027 1.6260
56.3200 37.5160 1.6298
56.3400 37.5294 1.6303
56.3600 37.5427 1.6301
56.3800 37.5561 1.6340
56.4000 37.5694 1.6334
56.4200 37.5828 1.6362
56.4400 37.5962 1.6384
56.4600 37.6095 1.6410
56.4800 37.6228 1.6418
56.5000 37.6361 1.6433
56.5200 37.6495 1.6449
56.5400 37.6628 1.6451
56.5600 37.6761 1.6511
56.5800 37.6894 1.6522
56.6000 37.7028 1.6530
56.6200 37.7161 1.6544
56.6400 37.7294 1.6551
56.6600 37.7427 1.6570
56.6800 37.7560 1.6608
56.7000 37.7694 1.6623
56.7200 37.7827 1.6645
56.7400 37.7961 1.6659
56.7600 37.8094 1.6685
56.7800 37.8228 1.6675
56.8000 37.8361 1.6703
56.8200 37.8495 1.6729
56.8400 37.8628 1.6740
56.8600 37.8761 1.6767
56.8800 37.8895 1.6780
56.9000 37.9028 1.6776
56.9200 37.9161 1.6839
56.9400 37.9294 1.6860
56.9600 37.9427 1.6879
56.9800 37.9561 1.6880
57.0000 37.9694 1.6931
57.0200 37.9827 1.6922
57.0400 37.9960 1.6945
57.0600 38.0094 1.6959
57.0800 38.0227 1.6970
57.1000 38.0361 1.6976
57.1200 38.0494 1.7017
57.1400 38.0628 1.7013
57.1600 38.0762 1.7045
57.1800 38.0895 1.7065
57.2000 38.1028 1.7094
57.2200 38.1161 1.7116
57.2400 38.1295 1.7146
57.2600 38.1428 1.7123
57.2800 38.1561 1.7162
57.3000 38.1694 1.7182
57.3200 38.1827 1.7203
57.3400 38.1961 1.7211
57.3600 38.2094 1.7250
57.3800 38.2227 1.7251
57.4000 38.2360 1.7282
57.4200 38.2494 1.7319
57.4400 38.2627 1.7315
57.4600 38.2761 1.7350
57.4800 38.2894 1.7360
57.5000 38.3028 1.7389
57.5200 38.3162 1.7377
57.5400 38.3295 1.7424
57.5600 38.3428 1.7427
57.5800 38.3561 1.7455
57.6000 38.3695 1.7479
57.6200 38.3828 1.7486
57.6400 38.3961 1.7513
57.6600 38.4094 1.7546
57.6800 38.4227 1.7533
57.7000 38.4361 1.7574
57.7200 38.4494 1.7611
57.7400 38.4627 1.7620
57.7600 38.4760 1.7638
57.7800 38.4894 1.7647
57.8000 38.5027 1.7670
57.8200 38.5161 1.7695
57.8400 38.5294 1.7729
57.8600 38.5428 1.7726
57.8800 38.5562 1.7765
57.9000 38.5695 1.7789
57.9200 38.5828 1.7794
57.9400 38.5961 1.7826
57.9600 38.6094 1.7839
57.9800 38.6228 1.7842
58.0000 38.6361 1.7871
58.0200 38.6495 1.7907
58.0400 38.6628 1.7909
58.0600 38.6761 1.7923
58.0800 38.6894 1.7944
58.1000 38.7027 1.7979
58.1200 38.7161 1.7989
58.1400 38.7294 1.8021
58.1600 38.7428 1.8027
58.1800 38.7561 1.8063
58.2000 38.7694 1.8087
58.2200 38.7827 1.8087
58.2400 38.7961 1.8105
58.2600 38.8095 1.8137
58.2800 38.8228 1.8143
58.3000 38.8361 1.8172
58.3200 38.8495 1.8209
58.3400 38.8628 1.8242
58.3600 38.8761 1.8246
58.3800 38.8894 1.8249
58.4000 38.9028 1.8260
58.4200 38.9161 1.8283
58.4400 38.9294 1.8322
58.4600 38.9427 1.8354
58.4800 38.9560 1.8392
58.5000 38.9694 1.8391
58.5200 38.9827 1.8419
58.5400 38.9961 1.8438
58.5600 39.0094 1.8444
58.5800 39.0228 1.8470
58.6000 39.0361 1.8488
58.6200 39.0495 1.8524
58.6400 39.0628 1.8525
58.6600 39.0761 1.8525
58.6800 39.0895 1.8567
58.7000 39.1028 1.8578
58.7200 39.1161 1.8604
58.7400 39.1294 1.8640
58.7600 39.1427 1.8635
58.7800 39.1561 1.8667
58.8000 39.1694 1.8701
58.8200 39.1827 1.8720
58.8400 39.1960 1.8736
58.8600 39.2093 1.8762
58.8800 39.2227 1.8784
58.9000 39.2360 1.8795
58.9200 39.2494 1.8812
58.9400 39.2628 1.8824
58.9600 39.2761 1.8846
58.9800 39.2895 1.8882
59.0000 39.3028 1.8907
59.0200 39.3162 1.8942
59.0400 39.3295 1.8958
59.0600 39.3429 1.8980
59.0800 39.3562 1.8993
59.1000 39.3694 1.9005
59.1200 39.3828 1.9032
59.1400 39.3961 1.9071
59.1600 39.4094 1.9086
59.1800 39.4227 1.9102
59.2000 39.4360 1.9110
59.2200 39.4494 1.9125
59.2400 39.4627 1.9145
59.2600 39.4760 1.9176
59.2800 39.4894 1.9221
59.3000 39.5028 1.9245
59.3200 39.5162 1.9260
59.3400 39.5295 1.9266
59.3600 39.5428 1.9289
59.3800 39.5561 1.9319
59.4000 39.5695 1.9336
59.4200 39.5828 1.9345
59.4400 39.5961 1.9371
59.4600 39.6094 1.9379
59.4800 39.6227 1.9400
59.5000 39.6361 1.9416
59.5200 39.6494 1.9453
59.5400 39.6628 1.9484
59.5600 39.6760 1.9519
59.5800 39.6894 1.9531
59.6000 39.7027 1.9527
59.6200 39.7161 1.9539
59.6400 39.7294 1.9570
59.6600 39.7428 1.9605
59.6800 39.7561 1.9625
59.7000 39.7695 1.9631
59.7200 39.7828 1.9652
59.7400 39.7961 1.9689
59.7600 39.8095 1.9714
59.7800 39.8228 1.9716
59.8000 39.8361 1.9747
59.8200 39.8494 1.9776
59.8400 39.8627 1.9788
59.8600 39.8761 1.9809
59.8800 39.8894 1.9831
59.9000 39.9027 1.9847
59.9200 39.9160 1.9868
59.9400 39.9293 1.9915
59.9600 39.9427 1.9925
59.9800 39.9561 1.9953
60.0000 39.9694 1.9963
60.0200 39.9827 1.9982
60.0400 39.9961 1.9976
60.0460 40.0000 1.9942
60.0470 40.0007 1.9936
60.0480 40.0013 1.9931
60.0680 40.0118 1.9804
60.0880 40.0140 1.9677
60.1080 40.0056 1.9824
60.1280 39.9927 1.9909
60.1480 39.9797 1.9808
60.1680 39.9669 1.9733
60.1880 39.9535 1.9673
60.2080 39.9395 1.9605
60.2280 39.9255 1.9574
60.2480 39.9118 1.9509
60.2680 39.8983 1.9468
60.2880 39.8850 1.9389
60.3080 39.8717 1.9363
60.3280 39.8584 1.9297
60.3480 39.8451 1.9253
60.3680 39.8317 1.9196
60.3880 39.8183 1.9154
60.4080 39.8049 1.9106
60.4280 39.7916 1.9055
60.4480 39.7782 1.9028
60.4680 39.7649 1.8985
60.4880 39.7515 1.8935
60.5080 39.7382 1.8878
60.5280 39.7249 1.8819
60.5480 39.7115 1.8794
60.5680 39.6982 1.8761
60.5880 39.6849 1.8701
60.6080 39.6716 1.8656
60.6280 39.6582 1.8621
60.6480 39.6449 1.8551
60.6680 39.6316 1.8536
60.6880 39.6183 1.8458
60.7080 39.6050 1.8454
60.7280 39.5916 1.8386
60.7480 39.5782 1.8372
60.7680 39.5649 1.8315
60.7880 39.5516 1.8287
60.8080 39.5382 1.8241
60.8280 39.5248 1.8201
60.8480 39.5115 1.8146
60.8680 39.4982 1.8105
60.8880 39.4849 1.8079
60.9080 39.4715 1.8052
60.9280 39.4581 1.8021
60.9480 39.4448 1.7970
60.9680 39.4315 1.7964
60.9880 39.4182 1.7898
61.0080 39.4049 1.7872
61.0280 39.3916 1.7801
61.0480 39.3783 1.7768
61.0680 39.3650 1.7722
61.0880 39.3516 1.7727
61.1080 39.3382 1.7689
61.1280 39.3249 1.7654
61.1480 39.3116 1.7583
61.1680 39.2982 1.7555
61.1880 39.2848 1.7527
61.2080 39.2715 1.7507
61.2280 39.2581 1.7452
61.2480 39.2448 1.7414
61.2680 39.2315 1.7387
61.2880 39.2181 1.7355
61.3080 39.2048 1.7315
61.3280 39.1915 1.7281
61.3480 39.1782 1.7250
61.3680 39.1648 1.7208
61.3880 39.1515 1.7180
61.4080 39.1382 1.7163
61.4280 39.1249 1.7114
61.4480 39.1116 1.7082
61.4680 39.0982 1.7049
61.4880 39.0849 1.7014
61.5080 39.0716 1.6973
61.5280 39.0582 1.6949
61.5480 39.0448 1.6906
61.5680 39.0315 1.6889
61.5880 39.0181 1.6852
61.6080 39.0048 1.6810
61.6280 38.9915 1.6786
61.6480 38.9781 1.6767
61.6680 38.9648 1.6721
61.6880 38.9515 1.6694
61.7080 38.9382 1.6655
61.7280 38.9249 1.6628
61.7480 38.9116 1.6617
61.7680 38.8983 1.6584
61.7880 38.8849 1.6559
61.8080 38.8716 1.6516
61.8280 38.8582 1.6495
61.8480 38.8449 1.6457
61.8680 38.8316 1.6435
61.8880 38.8182 1.6387
61.9080 38.8048 1.6356
61.9280 38.7915 1.6315
61.9480 38.7782 1.6300
61.9680 38.7649 1.6268
61.9880 38.7515 1.6225
62.0080 38.7382 1.6199
62.0280 38.7248 1.6166
62.0480 38.7115 1.6162
62.0680 38.6982 1.6118
62.0880 38.6848 1.6104
62.1080 38.6715 1.6069
62.1280 38.6582 1.6042
62.1480 38.6449 1.6007
62.1680 38.6316 1.5983
62.1880 38.6182 1.5966
62.2080 38.6049 1.5921
62.2280 38.5916 1.5893
62.2480 38.5782 1.5852
62.2680 38.5648 1.5843
62.2880 38.5515 1.5820
62.3080 38.5382 1.5765
62.3280 38.5248 1.5739
62.3480 38.5115 1.5708
62.3680 38.4981 1.5696
62.3880 38.4848 1.5674
62.4080 38.4715 1.5642
62.4280 38.4582 1.5614
62.4480 38.4448 1.5586
62.4680 38.4315 1.5553
62.4880 38.4182 1.5527
62.5080 38.4049 1.5494
62.5280 38.3916 1.5453
62.5480 38.3782 1.5442
62.5680 38.3649 1.5439
62.5880 38.3516 1.5413
62.6080 38.3382 1.5389
62.6280 38.3248 1.5358
62.6480 38.3115 1.5317
62.6680 38.2982 1.5299
62.6880 38.2849 1.5263
62.7080 38.2715 1.5238
62.7280 38.2581 1.5211
62.7480 38.2448 1.5186
62.7680 38.2315 1.5169
62.7880 38.2182 1.5148
62.8080 38.2048 1.5133
62.8280 38.1915 1.5105
62.8480 38.1782 1.5082
62.8680 38.1649 1.5057
62.8880 38.1516 1.5025
62.9080 38.1382 1.4997
62.9280 38.1249 1.4984
62.9480 38.1116 1.4951
62.9680 38.0982 1.4934
62.9880 38.0849 1.4908
63.0080 38.0715 1.4872
63.0280 38.0582 1.4879
63.0480 38.0449 1.4824
63.0680 38.0315 1.4797
63.0880 38.0182 1.4766
63.1080 38.0048 1.4762
63.1280 37.9915 1.4711
63.1480 37.9782 1.4710
63.1680 37.9648 1.4689
63.1880 37.9515 1.4662
63.2080 37.9382 1.4646
63.2280 37.9249 1.4632
63.2480 37.9116 1.4587
63.2680 37.8982 1.4563
63.2880 37.8849 1.4559
63.3080 37.8715 1.4525
63.3280 37.8582 1.4505
63.3480 37.8449 1.4467
63.3680 37.8315 1.4454
63.3880 37.8182 1.4434
63.4080 37.8049 1.4416
63.4280 37.7915 1.4397
63.4480 37.7782 1.4367
63.4680 37.7648 1.4363
63.4880 37.7515 1.4309
63.5080 37.7382 1.4307
63.5280 37.7249 1.4274
63.5480 37.7115 1.4228
63.5680 37.6982 1.4222
63.5880 37.6849 1.4207
63.6080 37.6716 1.4168
63.6280 37.6582 1.4167
63.6480 37.6448 1.4137
63.6680 37.6315 1.4132
63.6880 37.6182 1.4112
63.7080 37.6048 1.4088
63.7280 37.5915 1.4047
63.7480 37.5781 1.4042
63.7680 37.5648 1.4025
63.7880 37.5515 1.3987
63.8080 37.5382 1.3981
63.8280 37.5248 1.3977
63.8480 37.5115 1.3934
63.8680 37.4982 1.3942
63.8880 37.4849 1.3925
63.9080 37.4715 1.3872
63.9280 37.4582 1.3852
63.9480 37.4449 1.3833
63.9680 37.4316 1.3806
63.9880 37.4182 1.3793
64.0080 37.4048 1.3796
64.0280 37.3915 1.3733
64.0480 37.3782 1.3727
64.0680 37.3649 1.3689
64.0880 37.3515 1.3672
64.1080 37.3382 1.3662
64.1280 37.3249 1.3653
64.1480 37.3115 1.3631
64.1680 37.2982 1.3621
64.1880 37.2848 1.3589
64.2080 37.2715 1.3568
64.2280 37.2582 1.3569
64.2480 37.2448 1.3548
64.2680 37.2315 1.3508
64.2880 37.2182 1.3486
64.3080 37.2049 1.3476
64.3280 37.1916 1.3461
64.3480 37.1783 1.3444
64.3680 37.1649 1.3434
64.3880 37.1516 1.3379
64.4080 37.1383 1.3395
64.4280 37.1249 1.3358
64.4480 37.1115 1.3349
64.4680 37.0982 1.3332
64.4880 37.0848 1.3312
64.5080 37.0715 1.3282
64.5280 37.0581 1.3267
64.5480 37.0448 1.3249
64.5680 37.0315 1.3218
64.5880 37.0182 1.3220
64.6080 37.0049 1.3190
64.6280 36.9915 1.3174
64.6480 36.9782 1.3168
64.6680 36.9649 1.3153
64.6880 36.9516 1.3113
64.7080 36.9382 1.3102
64.7280 36.9249 1.3060
64.7480 36.9115 1.3054
64.7680 36.8982 1.3044
64.7880 36.8848 1.3037
64.8080 36.8715 1.2998
64.8280 36.8581 1.2997
64.8480 36.8448 1.2981
64.8680 36.8315 1.2950
64.8880 36.8181 1.2936
64.9080 36.8048 1.2930
64.9280 36.7915 1.2903
64.9480 36.7782 1.2894
64.9680 36.7648 1.2877
64.9880 36.7515 1.2864
65.0080 36.7382 1.2845
65.0280 36.7249 1.2832
65.0480 36.7116 1.2797
65.0680 36.6982 1.2792
65.0880 36.6849 1.2780
65.1080 36.6715 1.2756
65.1280 36.6582 1.2738
65.1480 36.6449 1.2718
65.1680 36.6315 1.2672
65.1880 36.6181 1.2697
65.2080 36.6048 1.2670
65.2280 36.5915 1.2644
65.2480 36.5781 1.2641
65.2680 36.5648 1.2610
65.2880 36.5515 1.2601
65.3080 36.5382 1.2574
65.3280 36.5248 1.2568
65.3480 36.5115 1.2529
65.3680 36.4982 1.2530
65.3880 36.4849 1.2508
65.4080 36.4716 1.2496
65.4280 36.4583 1.2487
65.4480 36.4449 1.2481
65.4680 36.4316 1.2440
65.4880 36.4182 1.2445
65.5080 36.4049 1.2420
65.5280 36.3915 1.2396
65.5480 36.3781 1.2378
65.5680 36.3648 1.2373
65.5880 36.3515 1.2371
65.6080 36.3382 1.2356
65.6280 36.3248 1.2351
65.6480 36.3115 1.2329
65.6680 36.2982 1.2328
65.6880 36.2849 1.2299
65.7080 36.2715 1.2259
65.7280 36.2582 1.2243
65.7480 36.2449 1.2230
65.7680 36.2316 1.2216
65.7880 36.2182 1.2216
65.8080 36.2049 1.2195
65.8280 36.1916 1.2166
65.8480 36.1782 1.2158
65.8680 36.1649 1.2155
65.8880 36.1515 1.2126
65.9080 36.1382 1.2110
65.9280 36.1249 1.2100
65.9480 36.1115 1.2064
65.9680 36.0982 1.2056
65.9880 36.0848 1.2061
66.0080 36.0715 1.2031
66.0280 36.0582 1.2038
66.0480 36.0448 1.1999
66.0680 36.0315 1.2011
66.0880 36.0182 1.1973
66.1080 36.0049 1.1975
66.1280 35.9916 1.1936
66.1480 35.9782 1.1926
66.1680 35.9649 1.1917
66.1880 35.9515 1.1893
66.2080 35.9382 1.1876
66.2280 35.9249 1.1894
66.2480 35.9115 1.1848
66.2680 35.8982 1.1853
66.2880 35.8849 1.1853
66.3080 35.8715 1.1828
66.3280 35.8582 1.1807
66.3480 35.8448 1.1793
66.3680 35.8315 1.1770
66.3880 35.8181 1.1723
66.4080 35.8048 1.1735
66.4280 35.7915 1.1711
66.4480 35.7781 1.1700
66.4680 35.7649 1.1707
66.4880 35.7516 1.1701
66.5080 35.7382 1.1677
66.5280 35.7249 1.1672
66.5480 35.7116 1.1636
66.5680 35.6983 1.1628
66.5880 35.6849 1.1613
66.6080 35.6715 1.1604
66.6280 35.6581 1.1588
66.6480 35.6448 1.1580
66.6680 35.6315 1.1558
66.6880 35.6181 1.1555
66.7080 35.6048 1.1559
66.7280 35.5914 1.1516
66.7480 35.5782 1.1490
66.7680 35.5649 1.1498
66.7880 35.5515 1.1469
66.8080 35.5382 1.1462
66.8280 35.5249 1.1451
66.8480 35.5116 1.1449
66.8680 35.4983 1.1432
66.8880 35.4849 1.1425
66.9080 35.4715 1.1416
66.9280 35.4582 1.1385
66.9480 35.4449 1.1374
66.9680 35.4315 1.1350
66.9880 35.4181 1.1351
67.0080 35.4048 1.1339
67.0280 35.3915 1.1301
67.0480 35.3782 1.1314
67.0680 35.3648 1.1318
67.0880 35.3515 1.1279
67.1080 35.3382 1.1248
67.1280 35.3249 1.1268
67.1480 35.3115 1.1254
67.1680 35.2982 1.1246
67.1880 35.2849 1.1213
67.2080 35.2716 1.1215
67.2280 35.2582 1.1183
67.2480 35.2449 1.1197
67.2680 35.2315 1.1161
67.2880 35.2182 1.1168
67.3080 35.2049 1.1157
67.3280 35.1915 1.1135
67.3480 35.1781 1.1106
67.3680 35.1648 1.1105
67.3880 35.1515 1.1082
67.4080 35.1382 1.1072
67.4280 35.1248 1.1080
67.4480 35.1115 1.1060
67.4680 35.0982 1.1032
67.4880 35.0849 1.1036
67.5080 35.0715 1.1022
67.5280 35.0582 1.1001
67.5480 35.0449 1.1001
67.5680 35.0316 1.0971
67.5880 35.0183 1.0946
67.6080 35.0049 1.0946
67.6280 34.9915 1.0933
67.6480 34.9782 1.0934
67.6680 34.9649 1.0914
67.6880 34.9515 1.0922
67.7080 34.9381 1.0896
67.7280 34.9248 1.0892
67.7480 34.9115 1.0860
67.7680 34.8982 1.0844
67.7880 34.8848 1.0843
67.8080 34.8715 1.0815
67.8280 34.8582 1.0811
67.8480 34.8449 1.0823
67.8680 34.8315 1.0810
67.8880 34.8182 1.0764
67.9080 34.8049 1.0766
67.9280 34.7916 1.0757
67.9480 34.7782 1.0746
67.9680 34.7649 1.0730
67.9880 34.7515 1.0739
68.0080 34.7382 1.0683
68.0280 34.7249 1.0708
68.0480 34.7115 1.0684
68.0680 34.6981 1.0683
68.0880 34.6848 1.0687
68.1080 34.6715 1.0659
68.1280 34.6582 1.0629
68.1480 34.6448 1.0645
68.1680 34.6314 1.0618
68.1880 34.6181 1.0608
68.2080 34.6048 1.0590
68.2280 34.5915 1.0600
68.2480 34.5782 1.0576
68.2680 34.5649 1.0582
68.2880 34.5516 1.0554
68.3080 34.5383 1.0548
68.3280 34.5249 1.0551
68.3480 34.5115 1.0539
68.3680 34.4982 1.0512
68.3880 34.4849 1.0500
68.4080 34.4715 1.0476
68.4280 34.4581 1.0466
68.4480 34.4448 1.0467
68.4680 34.4315 1.0456
68.4880 34.4182 1.0439
68.5080 34.4048 1.0433
68.5280 34.3915 1.0444
68.5480 34.3782 1.0408
68.5680 34.3649 1.0398
68.5880 34.3515 1.0371
68.6080 34.3382 1.0378
68.6280 34.3249 1.0388
68.6480 34.3116 1.0393
68.6680 34.2983 1.0361
68.6880 34.2849 1.0358
68.7080 34.2716 1.0318
68.7280 34.2582 1.0313
68.7480 34.2449 1.0300
68.7680 34.2315 1.0292
68.7880 34.2181 1.0275
68.8080 34.2048 1.0277
68.8280 34.1915 1.0281
68.8480 34.1782 1.0243
68.8680 34.1648 1.0255
68.8880 34.1515 1.0231
68.9080 34.1382 1.0200
68.9280 34.1249 1.0209
68.9480 34.1115 1.0210
68.9680 34.0982 1.0182
68.9880 34.0849 1.0198
69.0080 34.0716 1.0179
69.0280 34.0583 1.0153
69.0480 34.0449 1.0145
69.0680 34.0315 1.0149
69.0880 34.0182 1.0118
69.1080 34.0049 1.0118
69.1280 33.9915 1.0104
69.1480 33.9781 1.0060
69.1680 33.9648 1.0098
69.1880 33.9515 1.0068
69.2080 33.9382 1.0042
69.2280 33.9249 1.0041
69.2480 33.9115 1.0055
69.2680 33.8982 1.0022
69.2880 33.8849 1.0024
69.3080 33.8715 1.0015
69.3280 33.8582 0.9990
69.3480 33.8448 0.9984
69.3680 33.8316 0.9977
69.3880 33.8182 0.9966
69.4080 33.8049 0.9972
69.4280 33.7915 0.9948
69.4480 33.7782 0.9921
69.4680 33.7649 0.9960
69.4880 33.7515 0.9927
69.5080 33.7381 0.9905
69.5280 33.7248 0.9910
69.5480 33.7115 0.9884
69.5680 33.6982 0.9873
69.5880 33.6848 0.9883
69.6080 33.6714 0.9861
69.6280 33.6581 0.9834
69.6480 33.6449 0.9855
69.6680 33.6315 0.9839
69.6880 33.6182 0.9820
69.7080 33.6049 0.9799
69.7280 33.5916 0.9793
69.7480 33.5783 0.9761
69.7680 33.5649 0.9771
69.7880 33.5515 0.9766
69.8080 33.5382 0.9758
69.8280 33.5249 0.9745
69.8480 33.5115 0.9763
69.8680 33.4982 0.9724
69.8880 33.4848 0.9732
69.9080 33.4715 0.9716
69.9280 33.4582 0.9692
69.9480 33.4448 0.9699
69.9680 33.4315 0.9705
69.9880 33.4182 0.9664
70.0080 33.4049 0.9674
70.0280 33.3915 0.9664
70.0480 33.3782 0.9649
70.0680 33.3648 0.9658
70.0880 33.3516 0.9644
70.1080 33.3383 0.9626
70.1280 33.3249 0.9618
70.1480 33.3115 0.9619
70.1680 33.2982 0.9575
70.1880 33.2849 0.9592
70.2080 33.2716 0.9568
70.2280 33.2582 0.9552
70.2480 33.2448 0.9562
70.2680 33.2315 0.9546
70.2880 33.2182 0.9516
70.3080 33.2048 0.9511
70.3280 33.1915 0.9514
70.3480 33.1781 0.9485
70.3680 33.1648 0.9496
70.3880 33.1515 0.9497
70.4080 33.1381 0.9487
70.4280 33.1248 0.9489
70.4480 33.1115 0.9481
70.4680 33.0982 0.9446
70.4880 33.0849 0.9451
70.5080 33.0715 0.9444
70.5280 33.0582 0.9410
70.5480 33.0449 0.9409
70.5680 33.0315 0.9393
70.5880 33.0181 0.9379
70.6080 33.0048 0.9392
70.6280 32.9915 0.9393
70.6480 32.9782 0.9359
70.6680 32.9649 0.9361
70.6880 32.9515 0.9381
70.7080 32.9382 0.9331
70.7280 32.9249 0.9331
70.7480 32.9115 0.9343
70.7680 32.8982 0.9308
70.7880 32.8849 0.9319
70.8080 32.8716 0.9306
70.8280 32.8582 0.9317
70.8480 32.8449 0.9286
70.8680 32.8315 0.9308
70.8880 32.8182 0.9254
70.9080 32.8049 0.9267
70.9280 32.7915 0.9250
70.9480 32.7782 0.9237
70.9680 32.7648 0.9216
70.9880 32.7515 0.9225
71.0080 32.7382 0.9199
71.0280 32.7249 0.9201
71.0480 32.7115 0.9210
71.0680 32.6982 0.9190
71.0880 32.6849 0.9165
71.1080 32.6716 0.9171
71.1280 32.6582 0.9152
71.1480 32.6449 0.9131
71.1680 32.6316 0.9150
71.1880 32.6182 0.9132
71.2080 32.6049 0.9137
71.2280 32.5915 0.9137
71.2480 32.5782 0.9100
71.2680 32.5649 0.9083
71.2880 32.5515 0.9100
71.3080 32.5382 0.9065
71.3280 32.5248 0.9083
71.3480 32.5115 0.9081
71.3680 32.4982 0.9069
71.3880 32.4849 0.9055
71.4080 32.4715 0.9049
71.4280 32.4582 0.9023
71.4480 32.4449 0.8999
71.4680 32.4315 0.9018
71.4880 32.4182 0.8988
71.5080 32.4048 0.8987
71.5280 32.3915 0.9003
71.5480 32.3782 0.8981
71.5680 32.3649 0.8991
71.5880 32.3516 0.8987
71.6080 32.3382 0.8974
71.6280 32.3249 0.8941
71.6480 32.3116 0.8952
71.6680 32.2982 0.8917
71.6880 32.2848 0.8935
71.7080 32.2715 0.8912
71.7280 32.2582 0.8907
71.7480 32.2448 0.8905
71.7680 32.2314 0.8926
71.7880 32.2181 0.8897
71.8080 32.2048 0.8908
71.8280 32.1915 0.8881
71.8480 32.1782 0.8869
71.8680 32.1648 0.8863
71.8880 32.1515 0.8867
71.9080 32.1382 0.8838
71.9280 32.1249 0.8861
71.9480 32.1115 0.8834
71.9680 32.0982 0.8817
71.9880 32.0849 0.8767
72.0080 32.0715 0.8798
72.0280 32.0582 0.8781
72.0480 32.0448 0.8790
72.0680 32.0315 0.8783
72.0880 32.0182 0.8749
72.1080 32.0049 0.8754
72.1280 31.9915 0.8759
72.1480 31.9782 0.8731
72.1680 31.9648 0.8710
72.1880 31.9515 0.8743
72.2080 31.9382 0.8707
72.2280 31.9249 0.8713
72.2480 31.9116 0.8718
72.2680 31.8983 0.8698
72.2880 31.8849 0.8690
72.3080 31.8716 0.8701
72.3280 31.8582 0.8670
72.3480 31.8449 0.8692
72.3680 31.8316 0.8685
72.3880 31.8182 0.8661
72.4080 31.8048 0.8650
72.4280 31.7915 0.8642
72.4480 31.7782 0.8616
72.4680 31.7648 0.8615
72.4880 31.7514 0.8626
72.5080 31.7381 0.8613
72.5280 31.7248 0.8593
72.5480 31.7115 0.8606
72.5680 31.6982 0.8595
72.5880 31.6848 0.8594
72.6080 31.6716 0.8597
72.6280 31.6583 0.8561
72.6480 31.6449 0.8546
72.6680 31.6316 0.8550
72.6880 31.6182 0.8536
72.7080 31.6049 0.8546
72.7280 31.5916 0.8544
72.7480 31.5782 0.8533
72.7680 31.5648 0.8492
72.7880 31.5515 0.8505
72.8080 31.5381 0.8484
72.8280 31.5248 0.8472
72.8480 31.5115 0.8484
72.8680 31.4981 0.8467
72.8880 31.4848 0.8453
72.9080 31.4715 0.8462
72.9280 31.4582 0.8444
72.9480 31.4448 0.8452
72.9680 31.4315 0.8458
72.9880 31.4182 0.8435
73.0080 31.4049 0.8415
73.0280 31.3915 0.8408
73.0480 31.3782 0.8398
73.0680 31.3649 0.8373
73.0880 31.3516 0.8380
73.1080 31.3382 0.8390
73.1280 31.3248 0.8370
73.1480 31.3115 0.8394
73.1680 31.2982 0.8376
73.1880 31.2848 0.8356
73.2080 31.2715 0.8364
73.2280 31.2581 0.8346
73.2480 31.2448 0.8333
73.2680 31.2315 0.8351
73.2880 31.2182 0.8333
73.3080 31.2048 0.8308
73.3280 31.1915 0.8295
73.3480 31.1782 0.8292
73.3680 31.1649 0.8287
73.3880 31.1516 0.8308
73.4080 31.1382 0.8295
73.4280 31.1249 0.8272
73.4480 31.1116 0.8265
73.4680 31.0982 0.8239
73.4880 31.0849 0.8247
73.5080 31.0715 0.8255
73.5280 31.0582 0.8246
73.5480 31.0449 0.8226
73.5680 31.0315 0.8216
73.5880 31.0181 0.8223
73.6080 31.0048 0.8191
73.6280 30.9915 0.8207
73.6480 30.9782 0.8189
73.6680 30.9648 0.8180
73.6880 30.9515 0.8190
73.7080 30.9382 0.8187
73.7280 30.9249 0.8173
73.7480 30.9116 0.8183
73.7680 30.8982 0.8170
73.7880 30.8849 0.8150
73.8080 30.8716 0.8154
73.8280 30.8582 0.8126
73.8480 30.8448 0.8118
73.8680 30.8315 0.8129
73.8880 30.8181 0.8127
73.9080 30.8048 0.8099
73.9280 30.7915 0.8124
73.9480 30.7781 0.8079
73.9680 30.7648 0.8065
73.9880 30.7515 0.8077
74.0080 30.7382 0.8062
74.0280 30.7249 0.8050
74.0480 30.7116 0.8066
74.0680 30.6983 0.8047
74.0880 30.6849 0.8027
74.1080 30.6716 0.8040
74.1280 30.6582 0.8026
74.1480 30.6449 0.8009
74.1680 30.6315 0.8022
74.1880 30.6182 0.8025
74.2080 30.6048 0.7994
74.2280 30.5915 0.8046
74.2480 30.5782 0.7997
74.2680 30.5649 0.7980
74.2880 30.5515 0.7978
74.3080 30.5381 0.7962
74.3280 30.5248 0.7958
74.3480 30.5115 0.7967
74.3680 30.4982 0.7957
74.3880 30.4848 0.7944
74.4080 30.4715 0.7962
74.4280 30.4582 0.7938
74.4480 30.4449 0.7923
74.4680 30.4315 0.7927
74.4880 30.4182 0.7915
74.5080 30.4049 0.7883
74.5280 30.3916 0.7914
74.5480 30.3782 0.7910
74.5680 30.3648 0.7880
74.5880 30.3515 0.7863
74.6080 30.3382 0.7869
74.6280 30.3249 0.7858
74.6480 30.3115 0.7875
74.6680 30.2981 0.7872
74.6880 30.2848 0.7843
74.7080 30.2715 0.7851
74.7280 30.2582 0.7840
74.7480 30.2448 0.7834
74.7680 30.2315 0.7845
74.7880 30.2182 0.7806
74.8080 30.2049 0.7799
74.8280 30.1916 0.7800
74.8480 30.1782 0.7807
74.8680 30.1649 0.7764
74.8880 30.1515 0.7786
74.9080 30.1382 0.7776
74.9280 30.1248 0.7776
74.9480 30.1115 0.7780
74.9680 30.0982 0.7784
74.9880 30.0849 0.7740
75.0080 30.0715 0.7766
75.0280 30.0582 0.7739
75.0480 30.0448 0.7732
75.0680 30.0315 0.7735
75.0880 30.0182 0.7725
75.1080 30.0049 0.7705
75.1280 29.9915 0.7710
75.1480 29.9783 0.7709
75.1680 29.9649 0.7693
75.1880 29.9516 0.7704
75.2080 29.9382 0.7694
75.2280 29.9248 0.7686
75.2480 29.9115 0.7688
75.2680 29.8982 0.7684
75.2880 29.8848 0.7637
75.3080 29.8715 0.7654
75.3280 29.8582 0.7633
75.3480 29.8448 0.7629
75.3680 29.8315 0.7641
75.3880 29.8181 0.7645
75.4080 29.8048 0.7629
75.4280 29.7915 0.7634
75.4480 29.7782 0.7626
75.4680 29.7649 0.7618
75.4880 29.7515 0.7617
75.5080 29.7382 0.7607
75.5280 29.7249 0.7594
75.5480 29.7116 0.7590
75.5680 29.6982 0.7571
75.5880 29.6849 0.7547
75.6080 29.6716 0.7552
75.6280 29.6582 0.7552
75.6480 29.6448 0.7529
75.6680 29.6315 0.7562
75.6880 29.6181 0.7539
75.7080 29.6048 0.7536
75.7280 29.5915 0.7538
75.7480 29.5781 0.7535
75.7680 29.5648 0.7510
75.7880 29.5515 0.7533
75.8080 29.5382 0.7519
75.8280 29.5249 0.7494
75.8480 29.5115 0.7502
75.8680 29.4982 0.7485
75.8880 29.4849 0.7464
75.9080 29.4716 0.7477
75.9280 29.4582 0.7464
75.9480 29.4449 0.7453
75.9680 29.4316 0.7460
75.9880 29.4182 0.7472
76.0080 29.4048 0.7427
76.0280 29.3915 0.7450
76.0480 29.3781 0.7444
76.0680 29.3648 0.7434
76.0880 29.3515 0.7439
76.1080 29.3381 0.7442
76.1280 29.3248 0.7400
76.1480 29.3115 0.7424
76.1680 29.2982 0.7399
76.1880 29.2849 0.7394
76.2080 29.2715 0.7409
76.2280 29.2582 0.7390
76.2480 29.2449 0.7380
76.2680 29.2316 0.7377
76.2880 29.2182 0.7372
76.3080 29.2049 0.7347
76.3280 29.1915 0.7370
76.3480 29.1782 0.7365
76.3680 29.1648 0.7335
76.3880 29.1515 0.7362
76.4080 29.1382 0.7347
76.4280 29.1249 0.7339
76.4480 29.1116 0.7341
76.4680 29.0982 0.7348
76.4880 29.0848 0.7309
76.5080 29.0715 0.7327
76.5280 29.0582 0.7303
76.5480 29.0448 0.7302
76.5680 29.0315 0.7298
76.5880 29.0182 0.7300
76.6080 29.0049 0.7261
76.6280 28.9916 0.7293
76.6480 28.9782 0.7281
76.6680 28.9649 0.7261
76.6880 28.9516 0.7256
76.7080 28.9382 0.7272
76.7280 28.9248 0.7251
76.7480 28.9115 0.7251
76.7680 28.8981 0.7237
76.7880 28.8848 0.7228
76.8080 28.8715 0.7218
76.8280 28.8581 0.7220
76.8480 28.8448 0.7214
76.8680 28.8315 0.7204
76.8880 28.8182 0.7223
76.9080 28.8048 0.7198
76.9280 28.7915 0.7200
76.9480 28.7782 0.7190
76.9680 28.7649 0.7181
76.9880 28.7516 0.7193
77.0080 28.7382 0.7182
77.0280 28.7249 0.7164
77.0480 28.7116 0.7157
77.0680 28.6982 0.7160
77.0880 28.6849 0.7152
77.1080 28.6715 0.7149
77.1280 28.6582 0.7155
77.1480 28.6449 0.7134
77.1680 28.6315 0.7135
77.1880 28.6181 0.7129
77.2080 28.6048 0.7121
77.2280 28.5915 0.7136
77.2480 28.5782 0.7119
77.2680 28.5649 0.7101
77.2880 28.5515 0.7104
77.3080 28.5382 0.7105
77.3280 28.5249 0.7099
77.3480 28.5116 0.7075
77.3680 28.4982 0.7091
77.3880 28.4849 0.7063
77.4080 28.4716 0.7076
77.4280 28.4582 0.7061
77.4480 28.4449 0.7068
77.4680 28.4315 0.7052
77.4880 28.4182 0.7070
77.5080 28.4048 0.7042
77.5280 28.3915 0.7062
77.5480 28.3782 0.7042
77.5680 28.3648 0.7039
77.5880 28.3515 0.7037
77.6080 28.3382 0.7055
77.6280 28.3248 0.7032
77.6480 28.3115 0.7011
77.6680 28.2982 0.7024
77.6880 28.2849 0.6993
77.7080 28.2716 0.7002
77.7280 28.2582 0.6985
77.7480 28.2449 0.6966
77.7680 28.2315 0.6978
77.7880 28.2182 0.6981
77.8080 28.2048 0.6969
77.8280 28.1915 0.6968
77.8480 28.1781 0.6958
77.8680 28.1648 0.6971
77.8880 28.1515 0.6975
77.9080 28.1382 0.6944
77.9280 28.1248 0.6928
77.9480 28.1115 0.6900
77.9680 28.0982 0.6942
77.9880 28.0849 0.6903
78.0080 28.0715 0.6917
78.0280 28.0582 0.6905
78.0480 28.0449 0.6901
78.0680 28.0316 0.6901
78.0880 28.0182 0.6904
78.1080 28.0048 0.6882
78.1280 27.9915 0.6880
78.1480 27.9782 0.6889
78.1680 27.9648 0.6869
78.1880 27.9515 0.6876
78.2080 27.9381 0.6861
78.2280 27.9248 0.6847
78.2480 27.9115 0.6841
78.2680 27.8982 0.6886
78.2880 27.8848 0.6835
78.3080 27.8715 0.6843
78.3280 27.8582 0.6791
78.3480 27.8449 0.6840
78.3680 27.8315 0.6805
78.3880 27.8182 0.6847
78.4080 27.8049 0.6799
78.4280 27.7916 0.6821
78.4480 27.7782 0.6800
78.4680 27.7648 0.6819
78.4880 27.7515 0.6755
78.5080 27.7382 0.6783
78.5280 27.7249 0.6760
78.5480 27.7115 0.6787
78.5680 27.6982 0.6784
78.5880 27.6848 0.6771
78.6080 27.6715 0.6745
78.6280 27.6582 0.6779
78.6480 27.6448 0.6774
78.6680 27.6315 0.6750
78.6880 27.6182 0.6744
78.7080 27.6048 0.6736
78.7280 27.5915 0.6738
78.7480 27.5782 0.6742
78.7680 27.5649 0.6712
78.7880 27.5516 0.6707
78.8080 27.5382 0.6728
78.8280 27.5249 0.6715
78.8480 27.5116 0.6704
78.8680 27.4983 0.6722
78.8880 27.4849 0.6703
78.9080 27.4715 0.6700
78.9280 27.4582 0.6709
78.9480 27.4448 0.6707
78.9680 27.4315 0.6680
78.9880 27.4182 0.6694
79.0080 27.4048 0.6692
79.0280 27.3915 0.6673
79.0480 27.3782 0.6677
79.0680 27.3649 0.6646
79.0880 27.3515 0.6650
79.1080 27.3382 0.6662
79.1280 27.3249 0.6648
79.1480 27.3116 0.6637
79.1680 27.2982 0.6644
79.1880 27.2849 0.6634
79.2080 27.2715 0.6626
79.2280 27.2582 0.6628
79.2480 27.2449 0.6620
79.2680 27.2315 0.6584
79.2880 27.2181 0.6607
79.3080 27.2048 0.6585
79.3280 27.1915 0.6593
79.3480 27.1782 0.6591
79.3680 27.1648 0.6581
79.3880 27.1515 0.6577
79.4080 27.1382 0.6577
79.4280 27.1248 0.6562
79.4480 27.1115 0.6556
79.4680 27.0982 0.6548
79.4880 27.0849 0.6563
79.5080 27.0716 0.6548
79.5280 27.0583 0.6541
79.5480 27.0449 0.6550
79.5680 27.0316 0.6536
79.5880 27.0182 0.6545
79.6080 27.0049 0.6522
79.6280 26.9915 0.6507
79.6480 26.9782 0.6505
79.6680 26.9648 0.6496
79.6880 26.9515 0.6503
79.7080 26.9382 0.6508
79.7280 26.9248 0.6505
79.7480 26.9115 0.6469
79.7680 26.8982 0.6494
79.7880 26.8848 0.6479
79.8080 26.8715 0.6481
79.8280 26.8582 0.6490
79.8480 26.8449 0.6480
79.8680 26.8316 0.6455
79.8880 26.8183 0.6481
79.9080 26.8049 0.6454
79.9280 26.7916 0.6463
79.9480 26.7782 0.6443
79.9680 26.7649 0.6434
79.9880 26.7515 0.6428
80.0080 26.7381 0.6429
80.0280 26.7248 0.6452
80.0480 26.7115 0.6423
80.0680 26.6981 0.6426
80.0880 26.6848 0.6404
80.1080 26.6715 0.6411
80.1280 26.6582 0.6415
80.1480 26.6449 0.6411
80.1680 26.6315 0.6407
80.1880 26.6182 0.6402
80.2080 26.6049 0.6399
80.2280 26.5916 0.6392
80.2480 26.5782 0.6393
80.2680 26.5649 0.6393
80.2880 26.5515 0.6385
80.3080 26.5382 0.6365
80.3280 26.5249 0.6371
80.3480 26.5115 0.6348
80.3680 26.4982 0.6359
80.3880 26.4849 0.6338
80.4080 26.4715 0.6348
80.4280 26.4582 0.6361
80.4480 26.4448 0.6362
80.4680 26.4315 0.6337
80.4880 26.4182 0.6320
80.5080 26.4048 0.6302
80.5280 26.3915 0.6306
80.5480 26.3782 0.6325
80.5680 26.3649 0.6318
80.5880 26.3516 0.6292
80.6080 26.3382 0.6273
80.6280 26.3249 0.6280
80.6480 26.3115 0.6275
80.6680 26.2982 0.6293
80.6880 26.2849 0.6275
80.7080 26.2715 0.6271
80.7280 26.2582 0.6269
80.7480 26.2448 0.6288
80.7680 26.2315 0.6268
80.7880 26.2182 0.6254
80.8080 26.2048 0.6240
80.8280 26.1915 0.6233
80.8480 26.1781 0.6243
80.8680 26.1648 0.6258
80.8880 26.1515 0.6251
80.9080 26.1382 0.6233
80.9280 26.1249 0.6220
80.9480 26.1116 0.6224
80.9680 26.0982 0.6243
80.9880 26.0849 0.6222
81.0080 26.0715 0.6232
81.0280 26.0582 0.6208
81.0480 26.0449 0.6212
81.0680 26.0315 0.6210
81.0880 26.0181 0.6198
81.1080 26.0048 0.6201
81.1280 25.9915 0.6187
81.1480 25.9781 0.6170
81.1680 25.9648 0.6171
81.1880 25.9515 0.6177
81.2080 25.9382 0.6164
81.2280 25.9249 0.6176
81.2480 25.9115 0.6143
81.2680 25.8982 0.6162
81.2880 25.8849 0.6148
81.3080 25.8716 0.6137
81.3280 25.8583 0.6141
81.3480 25.8449 0.6144
81.3680 25.8315 0.6151
81.3880 25.8182 0.6145
81.4080 25.8049 0.6135
81.4280 25.7915 0.6118
81.4480 25.7781 0.6138
81.4680 25.7648 0.6129
81.4880 25.7515 0.6115
81.5080 25.7382 0.6114
81.5280 25.7248 0.6094
81.5480 25.7115 0.6083
81.5680 25.6982 0.6085
81.5880 25.6849 0.6100
81.6080 25.6715 0.6104
81.6280 25.6582 0.6076
81.6480 25.6449 0.6065
81.6680 25.6316 0.6062
81.6880 25.6182 0.6063
81.7080 25.6049 0.6083
81.7280 25.5915 0.6062
81.7480 25.5782 0.6056
81.7680 25.5649 0.6037
81.7880 25.5515 0.6030
81.8080 25.5382 0.6044
81.8280 25.5248 0.6054
81.8480 25.5115 0.6041
81.8680 25.4982 0.6019
81.8880 25.4848 0.6043
81.9080 25.4715 0.6028
81.9280 25.4582 0.6029
81.9480 25.4449 0.6011
81.9680 25.4315 0.6007
81.9880 25.4182 0.6024
82.0080 25.4049 0.6031
82.0280 25.3916 0.6005
82.0480 25.3783 0.6019
82.0680 25.3649 0.6000
82.0880 25.3515 0.5989
82.1080 25.3382 0.5971
82.1280 25.3249 0.5982
82.1480 25.3115 0.5960
82.1680 25.2982 0.5977
82.1880 25.2848 0.5967
82.2080 25.2715 0.5965
82.2280 25.2582 0.5942
82.2480 25.2448 0.5970
82.2680 25.2315 0.5950
82.2880 25.2182 0.5979
82.3080 25.2049 0.5954
82.3280 25.1915 0.5956
82.3480 25.1782 0.5929
82.3680 25.1649 0.5916
82.3880 25.1516 0.5914
82.4080 25.1382 0.5912
82.4280 25.1249 0.5918
82.4480 25.1115 0.5917
82.4680 25.0982 0.5913
82.4880 25.0849 0.5898
82.5080 25.0715 0.5922
82.5280 25.0582 0.5929
82.5480 25.0448 0.5912
82.5680 25.0315 0.5897
82.5880 25.0181 0.5879
82.6080 25.0048 0.5879
82.6280 24.9914 0.5887
82.6480 24.9781 0.5861
82.6680 24.9648 0.5871
82.6880 24.9515 0.5874
82.7080 24.9382 0.5863
82.7280 24.9249 0.5880
82.7480 24.9116 0.5854
82.7680 24.8983 0.5850
82.7880 24.8849 0.5856
82.8080 24.8715 0.5845
82.8280 24.8582 0.5866
82.8480 24.8449 0.5828
82.8680 24.8315 0.5833
82.8880 24.8181 0.5822
82.9080 24.8048 0.5837
82.9280 24.7915 0.5832
82.9480 24.7782 0.5840
82.9680 24.7648 0.5814
82.9880 24.7514 0.5824
83.0080 24.7381 0.5813
83.0280 24.7248 0.5829
83.0480 24.7115 0.5809
83.0680 24.6982 0.5802
83.0880 24.6849 0.5787
83.1080 24.6716 0.5788
83.1280 24.6583 0.5776
83.1480 24.6449 0.5787
83.1680 24.6316 0.5772
83.1880 24.6182 0.5750
83.2080 24.6049 0.5755
83.2280 24.5915 0.5757
83.2480 24.5781 0.5745
83.2680 24.5648 0.5775
83.2880 24.5515 0.5751
83.3080 24.5382 0.5745
83.3280 24.5248 0.5747
83.3480 24.5114 0.5750
83.3680 24.4982 0.5756
83.3880 24.4849 0.5746
83.4080 24.4715 0.5727
83.4280 24.4582 0.5731
83.4480 24.4449 0.5731
83.4680 24.4316 0.5735
83.4880 24.4183 0.5728
83.5080 24.4049 0.5692
83.5280 24.3915 0.5701
83.5480 24.3782 0.5686
83.5680 24.3649 0.5688
83.5880 24.3515 0.5687
83.6080 24.3381 0.5700
83.6280 24.3248 0.5697
83.6480 24.3115 0.5694
83.6680 24.2982 0.5689
83.6880 24.2849 0.5683
83.7080 24.2715 0.5673
83.7280 24.2582 0.5650
83.7480 24.2448 0.5657
83.7680 24.2315 0.5669
83.7880 24.2182 0.5655
83.8080 24.2048 0.5660
83.8280 24.1915 0.5637
83.8480 24.1782 0.5634
83.8680 24.1649 0.5633
83.8880 24.1515 0.5652
83.9080 24.1382 0.5645
83.9280 24.1249 0.5625
83.9480 24.1115 0.5643
83.9680 24.0982 0.5628
83.9880 24.0848 0.5628
84.0080 24.0715 0.5624
84.0280 24.0582 0.5618
84.0480 24.0448 0.5605
84.0680 24.0314 0.5589
84.0880 24.0181 0.5581
84.1080 24.0048 0.5599
84.1280 23.9915 0.5611
84.1480 23.9782 0.5590
84.1680 23.9649 0.5599
84.1880 23.9516 0.5567
84.2080 23.9382 0.5593
84.2280 23.9249 0.5578
84.2480 23.9115 0.5591
84.2680 23.8982 0.5560
84.2880 23.8849 0.5549
84.3080 23.8715 0.5554
84.3280 23.8582 0.5551
84.3480 23.8448 0.5549
84.3680 23.8315 0.5572
84.3880 23.8182 0.5546
84.4080 23.8048 0.5563
84.4280 23.7915 0.5539
84.4480 23.7782 0.5548
84.4680 23.7649 0.5523
84.4880 23.7515 0.5540
84.5080 23.7382 0.5526
84.5280 23.7248 0.5528
84.5480 23.7116 0.5527
84.5680 23.6983 0.5499
84.5880 23.6849 0.5507
84.6080 23.6715 0.5512
84.6280 23.6582 0.5512
84.6480 23.6449 0.5511
84.6680 23.6316 0.5508
84.6880 23.6182 0.5485
84.7080 23.6048 0.5500
84.7280 23.5915 0.5479
84.7480 23.5782 0.5495
84.7680 23.5649 0.5497
84.7880 23.5515 0.5498
84.8080 23.5382 0.5472
84.8280 23.5249 0.5445
84.8480 23.5115 0.5455
84.8680 23.4982 0.5467
84.8880 23.4848 0.5465
84.9080 23.4716 0.5459
84.9280 23.4582 0.5461
84.9480 23.4449 0.5447
84.9680 23.4315 0.5466
84.9880 23.4182 0.5446
85.0080 23.4049 0.5431
85.0280 23.3915 0.5431
85.0480 23.3782 0.5438
85.0680 23.3648 0.5413
85.0880 23.3515 0.5419
85.1080 23.3382 0.5418
85.1280 23.3248 0.5407
85.1480 23.3115 0.5416
85.1680 23.2982 0.5398
85.1880 23.2848 0.5401
85.2080 23.2715 0.5402
85.2280 23.2582 0.5399
85.2480 23.2449 0.5382
85.2680 23.2315 0.5399
85.2880 23.2182 0.5382
85.3080 23.2049 0.5373
85.3280 23.1915 0.5398
85.3480 23.1782 0.5387
85.3680 23.1649 0.5381
85.3880 23.1515 0.5363
85.4080 23.1382 0.5356
85.4280 23.1248 0.5356
85.4480 23.1115 0.5361
85.4680 23.0982 0.5353
85.4880 23.0848 0.5368
85.5080 23.0715 0.5342
85.5280 23.0581 0.5352
85.5480 23.0448 0.5332
85.5680 23.0315 0.5350
85.5880 23.0182 0.5344
85.6080 23.0049 0.5338
85.6280 22.9916 0.5350
85.6480 22.9782 0.5324
85.6680 22.9649 0.5319
85.6880 22.9515 0.5310
85.7080 22.9382 0.5322
85.7280 22.9249 0.5291
85.7480 22.9115 0.5309
85.7680 22.8982 0.5291
85.7880 22.8848 0.5299
85.8080 22.8715 0.5285
85.8280 22.8582 0.5315
85.8480 22.8449 0.5286
85.8680 22.8315 0.5287
85.8880 22.8182 0.5273
85.9080 22.8048 0.5265
85.9280 22.7915 0.5275
85.9480 22.7782 0.5283
85.9680 22.7648 0.5267
85.9880 22.7515 0.5273
86.0080 22.7382 0.5255
86.0280 22.7249 0.5256
86.0480 22.7116 0.5262
86.0680 22.6982 0.5267
86.0880 22.6849 0.5236
86.1080 22.6716 0.5263
86.1280 22.6582 0.5244
86.1480 22.6448 0.5246
86.1680 22.6315 0.5252
86.1880 22.6182 0.5253
86.2080 22.6048 0.5215
86.2280 22.5915 0.5219
86.2480 22.5781 0.5225
86.2680 22.5648 0.5236
86.2880 22.5515 0.5244
86.3080 22.5382 0.5227
86.3280 22.5249 0.5209
86.3480 22.5115 0.5214
86.3680 22.4982 0.5209
86.3880 22.4849 0.5190
86.4080 22.4715 0.5203
86.4280 22.4582 0.5203
86.4480 22.4449 0.5189
86.4680 22.4315 0.5205
86.4880 22.4182 0.5219
86.5080 22.4048 0.5188
86.5280 22.3915 0.5196
86.5480 22.3782 0.5182
86.5680 22.3648 0.5185
86.5880 22.3515 0.5192
86.6080 22.3381 0.5208
86.6280 22.3248 0.5177
86.6480 22.3115 0.5177
86.6680 22.2982 0.5172
86.6880 22.2848 0.5153
86.7080 22.2715 0.5153
86.7280 22.2582 0.5173
86.7480 22.2449 0.5155
86.7680 22.2315 0.5165
86.7880 22.2182 0.5144
86.8080 22.2049 0.5124
86.8280 22.1915 0.5124
86.8480 22.1782 0.5134
86.8680 22.1648 0.5122
86.8880 22.1515 0.5130
86.9080 22.1382 0.5130
86.9280 22.1248 0.5090
86.9480 22.1115 0.5100
86.9680 22.0981 0.5092
86.9880 22.0848 0.5079
87.0080 22.0715 0.5101
87.0280 22.0582 0.5099
87.0480 22.0448 0.5101
87.0680 22.0315 0.5093
87.0880 22.0182 0.5077
87.1080 22.0049 0.5065
87.1280 21.9916 0.5086
87.1480 21.9782 0.5092
87.1680 21.9649 0.5068
87.1880 21.9516 0.5064
87.2080 21.9382 0.5085
87.2280 21.9248 0.5064
87.2480 21.9115 0.5088
87.2680 21.8982 0.5058
87.2880 21.8848 0.5032
87.3080 21.8715 0.5036
87.3280 21.8581 0.5071
87.3480 21.8448 0.5065
87.3680 21.8315 0.5069
87.3880 21.8182 0.5053
87.4080 21.8048 0.5039
87.4280 21.7915 0.5020
87.4480 21.7782 0.5028
87.4680 21.7649 0.5017
87.4880 21.7516 0.4999
87.5080 21.7382 0.5007
87.5280 21.7249 0.4995
87.5480 21.7116 0.5013
87.5680 21.6982 0.5001
87.5880 21.6848 0.4995
87.6080 21.6715 0.5008
87.6280 21.6582 0.5013
87.6480 21.6449 0.5001
87.6680 21.6315 0.4983
87.6880 21.6181 0.5010
87.7080 21.6048 0.4985
87.7280 21.5915 0.4989
87.7480 21.5782 0.5000
87.7680 21.5648 0.4975
87.7880 21.5515 0.4964
87.8080 21.5382 0.4966
87.8280 21.5249 0.4973
87.8480 21.5115 0.4974
87.8680 21.4982 0.4979
87.8880 21.4849 0.4937
87.9080 21.4716 0.4954
87.9280 21.4582 0.4957
87.9480 21.4448 0.4956
87.9680 21.4315 0.4936
87.9880 21.4182 0.4967
88.0080 21.4049 0.4925
88.0280 21.3915 0.4955
88.0480 21.3781 0.4930
88.0680 21.3648 0.4910
88.0880 21.3515 0.4908
88.1080 21.3382 0.4926
88.1280 21.3248 0.4905
88.1480 21.3115 0.4910
88.1680 21.2982 0.4924
88.1880 21.2849 0.4895
88.2080 21.2716 0.4902
88.2280 21.2582 0.4915
88.2480 21.2449 0.4908
88.2680 21.2316 0.4904
88.2880 21.2182 0.4911
88.3080 21.2048 0.4884
88.3280 21.1915 0.4907
88.3480 21.1781 0.4901
88.3680 21.1648 0.4876
88.3880 21.1515 0.4879
88.4080 21.1381 0.4879
88.4280 21.1248 0.4870
88.4480 21.1115 0.4862
88.4680 21.0982 0.4873
88.4880 21.0849 0.4840
88.5080 21.0716 0.4841
88.5280 21.0583 0.4861
88.5480 21.0450 0.4843
88.5680 21.0316 0.4838
88.5880 21.0182 0.4858
88.6080 21.0049 0.4843
88.6280 20.9915 0.4829
88.6480 20.9782 0.4838
88.6680 20.9648 0.4820
88.6880 20.9515 0.4825
88.7080 20.9382 0.4825
88.7280 20.9249 0.4822
88.7480 20.9115 0.4812
88.7680 20.8981 0.4842
88.7880 20.8848 0.4817
88.8080 20.8715 0.4817
88.8280 20.8582 0.4823
88.8480 20.8449 0.4790
88.8680 20.8315 0.4816
88.8880 20.8182 0.4809
88.9080 20.8049 0.4806
88.9280 20.7916 0.4775
88.9480 20.7782 0.4813
88.9680 20.7649 0.4777
88.9880 20.7515 0.4796
89.0080 20.7382 0.4788
89.0280 20.7248 0.4792
89.0480 20.7115 0.4769
89.0680 20.6982 0.4775
89.0880 20.6848 0.4760
89.1080 20.6715 0.4751
89.1280 20.6581 0.4768
89.1480 20.6448 0.4749
89.1680 20.6315 0.4750
89.1880 20.6182 0.4763
89.2080 20.6048 0.4758
89.2280 20.5915 0.4751
89.2480 20.5782 0.4770
89.2680 20.5649 0.4744
89.2880 20.5516 0.4724
89.3080 20.5382 0.4746
89.3280 20.5248 0.4718
89.3480 20.5115 0.4719
89.3680 20.4982 0.4733
89.3880 20.4848 0.4715
89.4080 20.4715 0.4724
89.4280 20.4581 0.4727
89.4480 20.4448 0.4717
89.4680 20.4315 0.4726
89.4880 20.4181 0.4720
89.5080 20.4048 0.4701
89.5280 20.3915 0.4695
89.5480 20.3782 0.4705
89.5680 20.3649 0.4706
89.5880 20.3515 0.4689
89.6080 20.3382 0.4701
89.6280 20.3249 0.4674
89.6480 20.3116 0.4691
89.6680 20.2982 0.4695
89.6880 20.2848 0.4681
89.7080 20.2715 0.4649
89.7280 20.2582 0.4675
89.7480 20.2448 0.4667
89.7680 20.2315 0.4681
89.7880 20.2182 0.4690
89.8080 20.2049 0.4675
89.8280 20.1915 0.4649
89.8480 20.1782 0.4660
89.8680 20.1648 0.4652
89.8880 20.1515 0.4657
89.9080 20.1382 0.4677
89.9280 20.1249 0.4660
89.9480 20.1115 0.4657
89.9680 20.0982 0.4664
89.9880 20.0850 0.4642
90.0080 20.0716 0.4629
90.0280 20.0582 0.4642
90.0480 20.0449 0.4631
90.0680 20.0316 0.4622
90.0880 20.0182 0.4642
90.1080 20.0048 0.4611
90.1280 19.9915 0.4610
90.1480 19.9781 0.4624
90.1680 19.9648 0.4601
90.1880 19.9515 0.4580
90.2080 19.9381 0.4609
90.2280 19.9248 0.4594
90.2480 19.9115 0.4607
90.2680 19.8982 0.4610
90.2880 19.8848 0.4570
90.3080 19.8715 0.4570
90.3280 19.8582 0.4593
90.3480 19.8449 0.4581
90.3680 19.8316 0.4568
90.3880 19.8182 0.4584
90.4080 19.8049 0.4567
90.4280 19.7916 0.4579
90.4480 19.7782 0.4595
90.4680 19.7648 0.4572
90.4880 19.7514 0.4567
90.5080 19.7381 0.4553
90.5280 19.7248 0.4545
90.5480 19.7115 0.4537
90.5680 19.6981 0.4561
90.5880 19.6848 0.4559
90.6080 19.6715 0.4539
90.6280 19.6582 0.4543
90.6480 19.6449 0.4546
90.6680 19.6315 0.4535
90.6880 19.6182 0.4544
90.7080 19.6049 0.4522
90.7280 19.5916 0.4516
90.7480 19.5782 0.4557
90.7680 19.5649 0.4516
90.7880 19.5515 0.4523
90.8080 19.5382 0.4509
90.8280 19.5248 0.4517
90.8480 19.5115 0.4505
90.8680 19.4982 0.4512
90.8880 19.4849 0.4491
90.9080 19.4715 0.4494
90.9280 19.4582 0.4504
90.9480 19.4448 0.4515
90.9680 19.4315 0.4495
90.9880 19.4182 0.4516
91.0080 19.4048 0.4481
91.0280 19.3915 0.4487
91.0480 19.3782 0.4491
91.0680 19.3649 0.4478
91.0880 19.3516 0.4470
91.1080 19.3382 0.4489
91.1280 19.3249 0.4482
91.1480 19.3116 0.4448
91.1680 19.2982 0.4458
91.1880 19.2849 0.4466
91.2080 19.2715 0.4455
91.2280 19.2581 0.4475
91.2480 19.2448 0.4450
91.2680 19.2315 0.4420
91.2880 19.2181 0.4437
91.3080 19.2048 0.4438
91.3280 19.1915 0.4421
91.3480 19.1782 0.4433
91.3680 19.1648 0.4413
91.3880 19.1515 0.4420
91.4080 19.1382 0.4446
91.4280 19.1249 0.4447
91.4480 19.1116 0.4408
91.4680 19.0982 0.4430
91.4880 19.0849 0.4419
91.5080 19.0715 0.4406
91.5280 19.0582 0.4440
91.5480 19.0449 0.4416
91.5680 19.0315 0.4405
91.5880 19.0182 0.4398
91.6080 19.0048 0.4415
91.6280 18.9915 0.4374
91.6480 18.9782 0.4399
91.6680 18.9648 0.4391
91.6880 18.9515 0.4392
91.7080 18.9382 0.4393
91.7280 18.9249 0.4405
91.7480 18.9115 0.4373
91.7680 18.8982 0.4400
91.7880 18.8849 0.4386
91.8080 18.8716 0.4382
91.8280 18.8582 0.4394
91.8480 18.8449 0.4385
91.8680 18.8316 0.4357
91.8880 18.8182 0.4377
91.9080 18.8049 0.4352
91.9280 18.7915 0.4356
91.9480 18.7782 0.4356
91.9680 18.7649 0.4347
91.9880 18.7515 0.4340
92.0080 18.7382 0.4349
92.0280 18.7248 0.4354
92.0480 18.7115 0.4312
92.0680 18.6982 0.4336
92.0880 18.6848 0.4337
92.1080 18.6715 0.4329
92.1280 18.6582 0.4320
92.1480 18.6449 0.4309
92.1680 18.6316 0.4324
92.1880 18.6182 0.4322
92.2080 18.6049 0.4316
92.2280 18.5915 0.4283
92.2480 18.5782 0.4311
92.2680 18.5649 0.4306
92.2880 18.5515 0.4277
92.3080 18.5381 0.4301
92.3280 18.5248 0.4288
92.3480 18.5115 0.4274
92.3680 18.4982 0.4288
92.3880 18.4848 0.4290
92.4080 18.4715 0.4284
92.4280 18.4582 0.4270
92.4480 18.4449 0.4280
92.4680 18.4315 0.4272
92.4880 18.4182 0.4280
92.5080 18.4049 0.4272
92.5280 18.3916 0.4246
92.5480 18.3782 0.4253
92.5680 18.3649 0.4277
92.5880 18.3515 0.4256
92.6080 18.3382 0.4261
92.6280 18.3249 0.4257
92.6480 18.3115 0.4260
92.6680 18.2981 0.4251
92.6880 18.2848 0.4251
92.7080 18.2715 0.4237
92.7280 18.2582 0.4250
92.7480 18.2448 0.4235
92.7680 18.2315 0.4219
92.7880 18.2182 0.4249
92.8080 18.2049 0.4254
92.8280 18.1915 0.4228
92.8480 18.1782 0.4217
92.8680 18.1649 0.4212
92.8880 18.1516 0.4189
92.9080 18.1382 0.4224
92.9280 18.1248 0.4216
92.9480 18.1115 0.4207
92.9680 18.0982 0.4202
92.9880 18.0849 0.4192
93.0080 18.0715 0.4207
93.0280 18.0582 0.4201
93.0480 18.0448 0.4197
93.0680 18.0315 0.4191
93.0880 18.0182 0.4199
93.1080 18.0048 0.4204
93.1280 17.9915 0.4177
93.1480 17.9782 0.4178
93.1680 17.9648 0.4188
93.1880 17.9515 0.4176
93.2080 17.9382 0.4170
93.2280 17.9249 0.4166
93.2480 17.9116 0.4164
93.2680 17.8982 0.4159
93.2880 17.8849 0.4175
93.3080 17.8716 0.4153
93.3280 17.8583 0.4165
93.3480 17.8449 0.4164
93.3680 17.8315 0.4129
93.3880 17.8181 0.4158
93.4080 17.8048 0.4156
93.4280 17.7915 0.4130
93.4480 17.7781 0.4124
93.4680 17.7648 0.4137
93.4880 17.7514 0.4123
93.5080 17.7382 0.4127
93.5280 17.7249 0.4128
93.5480 17.7115 0.4137
93.5680 17.6982 0.4108
93.5880 17.6849 0.4142
93.6080 17.6716 0.4111
93.6280 17.6582 0.4114
93.6480 17.6449 0.4111
93.6680 17.6315 0.4102
93.6880 17.6182 0.4120
93.7080 17.6049 0.4124
93.7280 17.5915 0.4101
93.7480 17.5781 0.4098
93.7680 17.5648 0.4109
93.7880 17.5515 0.4092
93.8080 17.5382 0.4095
93.8280 17.5248 0.4088
93.8480 17.5115 0.4088
93.8680 17.4982 0.4093
93.8880 17.4849 0.4108
93.9080 17.4715 0.4075
93.9280 17.4582 0.4081
93.9480 17.4449 0.4061
93.9680 17.4316 0.4054
93.9880 17.4182 0.4081
94.0080 17.4049 0.4077
94.0280 17.3916 0.4074
94.0480 17.3782 0.4063
94.0680 17.3649 0.4064
94.0880 17.3515 0.4041
94.1080 17.3382 0.4042
94.1280 17.3248 0.4046
94.1480 17.3115 0.4042
94.1680 17.2982 0.4034
94.1880 17.2848 0.4054
94.2080 17.2715 0.4036
94.2280 17.2582 0.4027
94.2480 17.2448 0.4041
94.2680 17.2315 0.4020
94.2880 17.2182 0.4040
94.3080 17.2049 0.4031
94.3280 17.1916 0.4045
94.3480 17.1783 0.4008
94.3680 17.1649 0.4029
94.3880 17.1515 0.3992
94.4080 17.1382 0.4002
94.4280 17.1249 0.4008
94.4480 17.1115 0.4008
94.4680 17.0981 0.3978
94.4880 17.0848 0.4005
94.5080 17.0715 0.4001
94.5280 17.0581 0.4004
94.5480 17.0448 0.3991
94.5680 17.0315 0.3977
94.5880 17.0182 0.3967
94.6080 17.0049 0.3985
94.6280 16.9915 0.3973
94.6480 16.9782 0.3979
94.6680 16.9649 0.3981
94.6880 16.9515 0.3972
94.7080 16.9382 0.3981
94.7280 16.9249 0.3986
94.7480 16.9115 0.3968
94.7680 16.8982 0.3973
94.7880 16.8849 0.3967
94.8080 16.8715 0.3951
94.8280 16.8582 0.3959
94.8480 16.8448 0.3970
94.8680 16.8315 0.3945
94.8880 16.8182 0.3962
94.9080 16.8048 0.3955
94.9280 16.7914 0.3952
94.9480 16.7781 0.3942
94.9680 16.7648 0.3964
94.9880 16.7515 0.3936
95.0080 16.7382 0.3942
95.0280 16.7249 0.3950
95.0480 16.7116 0.3908
95.0680 16.6982 0.3942
95.0880 16.6849 0.3923
95.1080 16.6716 0.3926
95.1280 16.6583 0.3881
95.1480 16.6449 0.3909
95.1680 16.6316 0.3885
95.1880 16.6182 0.3909
95.2080 16.6049 0.3900
95.2280 16.5916 0.3889
95.2480 16.5782 0.3871
95.2680 16.5648 0.3922
95.2880 16.5514 0.3893
95.3080 16.5381 0.3891
95.3280 16.5248 0.3888
95.3480 16.5115 0.3885
95.3680 16.4982 0.3878
95.3880 16.4849 0.3882
95.4080 16.4716 0.3882
95.4280 16.4583 0.3870
95.4480 16.4449 0.3879
95.4680 16.4315 0.3858
95.4880 16.4183 0.3864
95.5080 16.4049 0.3874
95.5280 16.3916 0.3850
95.5480 16.3782 0.3874
95.5680 16.3648 0.3868
95.5880 16.3515 0.3865
95.6080 16.3381 0.3835
95.6280 16.3248 0.3834
95.6480 16.3114 0.3833
95.6680 16.2982 0.3823
95.6880 16.2849 0.3847
95.7080 16.2715 0.3843
95.7280 16.2582 0.3825
95.7480 16.2449 0.3861
95.7680 16.2316 0.3831
95.7880 16.2183 0.3817
95.8080 16.2049 0.3829
95.8280 16.1915 0.3811
95.8480 16.1782 0.3816
95.8680 16.1649 0.3803
95.8880 16.1515 0.3814
95.9080 16.1381 0.3780
95.9280 16.1248 0.3813
95.9480 16.1115 0.3800
95.9680 16.0982 0.3791
95.9880 16.0848 0.3805
96.0080 16.0714 0.3805
96.0280 16.0581 0.3780
96.0480 16.0448 0.3804
96.0680 16.0315 0.3768
96.0880 16.0182 0.3768
96.1080 16.0048 0.3784
96.1280 15.9916 0.3785
96.1480 15.9782 0.3767
96.1680 15.9649 0.3775
96.1880 15.9515 0.3760
96.2080 15.9382 0.3754
96.2280 15.9249 0.3787
96.2480 15.9115 0.3783
96.2680 15.8982 0.3750
96.2880 15.8848 0.3764
96.3080 15.8715 0.3755
96.3280 15.8582 0.3767
96.3480 15.8448 0.3752
96.3680 15.8315 0.3729
96.3880 15.8182 0.3737
96.4080 15.8049 0.3726
96.4280 15.7915 0.3716
96.4480 15.7782 0.3724
96.4680 15.7649 0.3729
96.4880 15.7516 0.3723
96.5080 15.7383 0.3725
96.5280 15.7249 0.3740
96.5480 15.7115 0.3706
96.5680 15.6982 0.3715
96.5880 15.6849 0.3720
96.6080 15.6715 0.3698
96.6280 15.6581 0.3687
96.6480 15.6448 0.3716
96.6680 15.6315 0.3692
96.6880 15.6182 0.3706
96.7080 15.6048 0.3695
96.7280 15.5915 0.3691
96.7480 15.5782 0.3661
96.7680 15.5649 0.3703
96.7880 15.5515 0.3687
96.8080 15.5382 0.3667
96.8280 15.5249 0.3674
96.8480 15.5116 0.3687
96.8680 15.4983 0.3685
96.8880 15.4849 0.3694
96.9080 15.4715 0.3658
96.9280 15.4582 0.3668
96.9480 15.4449 0.3676
96.9680 15.4315 0.3664
96.9880 15.4181 0.3666
97.0080 15.4048 0.3681
97.0280 15.3915 0.3672
97.0480 15.3782 0.3652
97.0680 15.3648 0.3662
97.0880 15.3514 0.3666
97.1080 15.3381 0.3652
97.1280 15.3248 0.3663
97.1480 15.3115 0.3641
97.1680 15.2982 0.3649
97.1880 15.2849 0.3669
97.2080 15.2716 0.3657
97.2280 15.2583 0.3639
97.2480 15.2449 0.3642
97.2680 15.2315 0.3637
97.2880 15.2182 0.3615
97.3080 15.2049 0.3648
97.3280 15.1915 0.3628
97.3480 15.1781 0.3605
97.3680 15.1648 0.3636
97.3880 15.1515 0.3621
97.4080 15.1382 0.3596
97.4280 15.1248 0.3622
97.4480 15.1115 0.3614
97.4680 15.0981 0.3606
97.4880 15.0848 0.3613
97.5080 15.0715 0.3609
97.5280 15.0582 0.3606
97.5480 15.0449 0.3607
97.5680 15.0316 0.3575
97.5880 15.0183 0.3578
97.6080 15.0049 0.3580
97.6280 14.9916 0.3587
97.6480 14.9782 0.3546
97.6680 14.9649 0.3565
97.6880 14.9515 0.3571
97.7080 14.9381 0.3582
97.7280 14.9248 0.3581
97.7480 14.9115 0.3564
97.7680 14.8982 0.3561
97.7880 14.8848 0.3570
97.8080 14.8715 0.3583
97.8280 14.8582 0.3562
97.8480 14.8449 0.3565
97.8680 14.8315 0.3542
97.8880 14.8182 0.3539
97.9080 14.8049 0.3565
97.9280 14.7916 0.3555
97.9480 14.7783 0.3540
97.9680 14.7649 0.3561
97.9880 14.7515 0.3543
98.0080 14.7382 0.3529
98.0280 14.7249 0.3539
98.0480 14.7115 0.3514
98.0680 14.6982 0.3522
98.0880 14.6848 0.3504
98.1080 14.6715 0.3508
98.1280 14.6582 0.3476
98.1480 14.6449 0.3521
98.1680 14.6315 0.3499
98.1880 14.6181 0.3512
98.2080 14.6048 0.3514
98.2280 14.5915 0.3517
98.2480 14.5782 0.3482
98.2680 14.5648 0.3507
98.2880 14.5515 0.3517
98.3080 14.5382 0.3505
98.3280 14.5249 0.3492
98.3480 14.5115 0.3470
98.3680 14.4982 0.3450
98.3880 14.4849 0.3494
98.4080 14.4715 0.3471
98.4280 14.4582 0.3475
98.4480 14.4448 0.3455
98.4680 14.4315 0.3471
98.4880 14.4182 0.3462
98.5080 14.4048 0.3506
98.5280 14.3914 0.3472
98.5480 14.3781 0.3464
98.5680 14.3648 0.3457
98.5880 14.3515 0.3454
98.6080 14.3382 0.3444
98.6280 14.3248 0.3455
98.6480 14.3115 0.3461
98.6680 14.2982 0.3423
98.6880 14.2849 0.3430
98.7080 14.2715 0.3417
98.7280 14.2582 0.3429
98.7480 14.2449 0.3432
98.7680 14.2315 0.3436
98.7880 14.2182 0.3439
98.8080 14.2048 0.3438
98.8280 14.1915 0.3408
98.8480 14.1782 0.3426
98.8680 14.1649 0.3402
98.8880 14.1515 0.3421
98.9080 14.1382 0.3425
98.9280 14.1249 0.3411
98.9480 14.1115 0.3409
98.9680 14.0982 0.3390
98.9880 14.0848 0.3393
99.0080 14.0716 0.3415
99.0280 14.0583 0.3393
99.0480 14.0449 0.3402
99.0680 14.0315 0.3391
99.0880 14.0182 0.3404
99.1080 14.0049 0.3387
99.1280 13.9916 0.3391
99.1480 13.9782 0.3364
99.1680 13.9649 0.3386
99.1880 13.9515 0.3361
99.2080 13.9382 0.3367
99.2280 13.9249 0.3348
99.2480 13.9115 0.3369
99.2680 13.8982 0.3358
99.2880 13.8848 0.3349
99.3080 13.8715 0.3364
99.3280 13.8582 0.3351
99.3480 13.8448 0.3340
99.3680 13.8315 0.3332
99.3880 13.8182 0.3350
99.4080 13.8049 0.3326
99.4280 13.7915 0.3350
99.4480 13.7782 0.3336
99.4680 13.7649 0.3332
99.4880 13.7515 0.3357
99.5080 13.7382 0.3327
99.5280 13.7248 0.3343
99.5480 13.7115 0.3343
99.5680 13.6982 0.3332
99.5880 13.6849 0.3317
99.6080 13.6715 0.3326
99.6280 13.6582 0.3315
99.6480 13.6449 0.3316
99.6680 13.6315 0.3306
99.6880 13.6182 0.3308
99.7080 13.6049 0.3315
99.7280 13.5916 0.3302
99.7480 13.5782 0.3295
99.7680 13.5649 0.3288
99.7880 13.5515 0.3298
99.8080 13.5382 0.3284
99.8280 13.5249 0.3287
99.8480 13.5115 0.3289
99.8680 13.4982 0.3314
99.8880 13.4848 0.3285
99.9080 13.4715 0.3280
99.9280 13.4582 0.3288
99.9480 13.4448 0.3262
99.9680 13.4315 0.3261
99.9880 13.4182 0.3275
100.0080 13.4048 0.3254
100.0280 13.3915 0.3275
100.0480 13.3782 0.3263
100.0680 13.3649 0.3273
100.0880 13.3515 0.3269
100.1080 13.3382 0.3258
100.1280 13.3249 0.3265
100.1480 13.3115 0.3274
100.1680 13.2982 0.3255
100.1880 13.2849 0.3250
100.2080 13.2715 0.3238
100.2280 13.2582 0.3245
100.2480 13.2448 0.3230
100.2680 13.2315 0.3239
100.2880 13.2182 0.3223
100.3080 13.2049 0.3231
100.3280 13.1915 0.3234
100.3480 13.1782 0.3213
100.3680 13.1649 0.3203
100.3880 13.1515 0.3215
100.4080 13.1382 0.3194
100.4280 13.1248 0.3206
100.4480 13.1115 0.3207
100.4680 13.0982 0.3225
100.4880 13.0849 0.3216
100.5080 13.0716 0.3218
100.5280 13.0582 0.3212
100.5480 13.0449 0.3207
100.5680 13.0316 0.3203
100.5880 13.0182 0.3191
100.6080 13.0048 0.3179
100.6280 12.9915 0.3188
100.6480 12.9782 0.3175
100.6680 12.9648 0.3169
100.6880 12.9515 0.3181
100.7080 12.9381 0.3202
100.7280 12.9248 0.3176
100.7480 12.9115 0.3165
100.7680 12.8982 0.3165
100.7880 12.8849 0.3159
100.8080 12.8715 0.3164
100.8280 12.8582 0.3152
100.8480 12.8449 0.3152
100.8680 12.8316 0.3152
100.8880 12.8182 0.3144
100.9080 12.8049 0.3136
100.9280 12.7915 0.3128
100.9480 12.7782 0.3141
100.9680 12.7648 0.3142
100.9880 12.7515 0.3146
101.0080 12.7382 0.3133
101.0280 12.7248 0.3134
101.0480 12.7115 0.3149
101.0680 12.6981 0.3148
101.0880 12.6848 0.3111
101.1080 12.6715 0.3123
101.1280 12.6582 0.3108
101.1480 12.6448 0.3124
101.1680 12.6315 0.3129
101.1880 12.6182 0.3111
101.2080 12.6049 0.3111
101.2280 12.5916 0.3107
101.2480 12.5782 0.3095
101.2680 12.5649 0.3110
101.2880 12.5515 0.3087
101.3080 12.5382 0.3087
101.3280 12.5248 0.3095
101.3480 12.5115 0.3101
101.3680 12.4982 0.3103
101.3880 12.4848 0.3080
101.4080 12.4715 0.3090
101.4280 12.4581 0.3077
101.4480 12.4448 0.3083
101.4680 12.4315 0.3063
101.4880 12.4182 0.3058
101.5080 12.4048 0.3059
101.5280 12.3915 0.3067
101.5480 12.3783 0.3071
101.5680 12.3650 0.3054
101.5880 12.3516 0.3046
101.6080 12.3382 0.3057
101.6280 12.3249 0.3047
101.6480 12.3116 0.3053
101.6680 12.2982 0.3030
101.6880 12.2848 0.3017
101.7080 12.2715 0.3044
101.7280 12.2582 0.3024
101.7480 12.2448 0.3027
101.7680 12.2315 0.3005
101.7880 12.2181 0.3040
101.8080 12.2048 0.3024
101.8280 12.1915 0.3029
101.8480 12.1782 0.3017
101.8680 12.1648 0.3020
101.8880 12.1515 0.3013
101.9080 12.1382 0.2976
101.9280 12.1249 0.3033
101.9480 12.1115 0.3020
101.9680 12.0982 0.3029
101.9880 12.0849 0.3009
102.0080 12.0716 0.3010
102.0280 12.0582 0.2988
102.0480 12.0449 0.3016
102.0680 12.0315 0.2984
102.0880 12.0182 0.2999
102.1080 12.0049 0.2976
102.1280 11.9915 0.2990
102.1480 11.9781 0.2998
102.1680 11.9648 0.2960
102.1880 11.9515 0.2971
102.2080 11.9382 0.2968
102.2280 11.9248 0.2959
102.2480 11.9115 0.2975
102.2680 11.8982 0.2988
102.2880 11.8849 0.2962
102.3080 11.8716 0.2955
102.3280 11.8582 0.2970
102.3480 11.8449 0.2967
102.3680 11.8316 0.2949
102.3880 11.8182 0.2949
102.4080 11.8049 0.2927
102.4280 11.7915 0.2949
102.4480 11.7782 0.2931
102.4680 11.7649 0.2951
102.4880 11.7515 0.2928
102.5080 11.7381 0.2932
102.5280 11.7248 0.2913
102.5480 11.7115 0.2943
102.5680 11.6982 0.2934
102.5880 11.6848 0.2923
102.6080 11.6715 0.2888
102.6280 11.6582 0.2912
102.6480 11.6449 0.2909
102.6680 11.6316 0.2925
102.6880 11.6182 0.2927
102.7080 11.6049 0.2893
102.7280 11.5916 0.2907
102.7480 11.5782 0.2889
102.7680 11.5649 0.2889
102.7880 11.5515 0.2885
102.8080 11.5382 0.2890
102.8280 11.5248 0.2886
102.8480 11.5115 0.2879
102.8680 11.4981 0.2874
102.8880 11.4848 0.2872
102.9080 11.4715 0.2868
102.9280 11.4582 0.2872
102.9480 11.4449 0.2877
102.9680 11.4315 0.2865
102.9880 11.4183 0.2894
103.0080 11.4049 0.2847
103.0280 11.3916 0.2879
103.0480 11.3782 0.2846
103.0680 11.3649 0.2859
103.0880 11.3515 0.2844
103.1080 11.3382 0.2847
103.1280 11.3248 0.2844
103.1480 11.3115 0.2845
103.1680 11.2982 0.2846
103.1880 11.2849 0.2839
103.2080 11.2715 0.2840
103.2280 11.2581 0.2840
103.2480 11.2448 0.2848
103.2680 11.2315 0.2815
103.2880 11.2182 0.2838
103.3080 11.2048 0.2849
103.3280 11.1915 0.2825
103.3480 11.1782 0.2791
103.3680 11.1649 0.2814
103.3880 11.1516 0.2807
103.4080 11.1382 0.2820
103.4280 11.1249 0.2808
103.4480 11.1116 0.2789
103.4680 11.0982 0.2779
103.4880 11.0848 0.2769
103.5080 11.0715 0.2785
103.5280 11.0582 0.2801
103.5480 11.0449 0.2795
103.5680 11.0315 0.2784
103.5880 11.0181 0.2763
103.6080 11.0048 0.2765
103.6280 10.9915 0.2762
103.6480 10.9782 0.2789
103.6680 10.9648 0.2778
103.6880 10.9515 0.2772
103.7080 10.9382 0.2762
103.7280 10.9249 0.2760
103.7480 10.9116 0.2743
103.7680 10.8982 0.2762
103.7880 10.8849 0.2749
103.8080 10.8715 0.2742
103.8280 10.8582 0.2744
103.8480 10.8448 0.2747
103.8680 10.8315 0.2741
103.8880 10.8181 0.2732
103.9080 10.8048 0.2738
103.9280 10.7915 0.2708
103.9480 10.7781 0.2721
103.9680 10.7648 0.2728
103.9880 10.7515 0.2708
104.0080 10.7382 0.2725
104.0280 10.7249 0.2731
104.0480 10.7115 0.2718
104.0680 10.6982 0.2707
104.0880 10.6849 0.2709
104.1080 10.6716 0.2703
104.1280 10.6582 0.2705
104.1480 10.6448 0.2696
104.1680 10.6315 0.2688
104.1880 10.6182 0.2687
104.2080 10.6048 0.2691
104.2280 10.5915 0.2678
104.2480 10.5781 0.2669
104.2680 10.5648 0.2683
104.2880 10.5515 0.2667
104.3080 10.5381 0.2680
104.3280 10.5248 0.2684
104.3480 10.5115 0.2693
104.3680 10.4982 0.2682
104.3880 10.4848 0.2683
104.4080 10.4715 0.2658
104.4280 10.4582 0.2681
104.4480 10.4449 0.2652
104.4680 10.4316 0.2638
104.4880 10.4182 0.2650
104.5080 10.4049 0.2650
104.5280 10.3916 0.2636
104.5480 10.3782 0.2626
104.5680 10.3649 0.2638
104.5880 10.3515 0.2624
104.6080 10.3381 0.2638
104.6280 10.3248 0.2632
104.6480 10.3115 0.2630
104.6680 10.2981 0.2614
104.6880 10.2848 0.2630
104.7080 10.2715 0.2601
104.7280 10.2582 0.2622
104.7480 10.2449 0.2623
104.7680 10.2315 0.2606
104.7880 10.2182 0.2595
104.8080 10.2049 0.2604
104.8280 10.1916 0.2596
104.8480 10.1783 0.2583
104.8680 10.1649 0.2602
104.8880 10.1516 0.2592
104.9080 10.1382 0.2596
104.9280 10.1248 0.2584
104.9480 10.1115 0.2578
104.9680 10.0981 0.2574
104.9880 10.0848 0.2583
105.0080 10.0715 0.2574
105.0280 10.0581 0.2571
105.0480 10.0448 0.2593
105.0680 10.0315 0.2560
105.0880 10.0182 0.2563
105.1080 10.0049 0.2545
105.1280 9.9915 0.2539
105.1480 9.9782 0.2551
105.1680 9.9649 0.2559
105.1880 9.9516 0.2559
105.2080 9.9382 0.2545
105.2280 9.9248 0.2545
105.2480 9.9115 0.2530
105.2680 9.8982 0.2529
105.2880 9.8848 0.2558
105.3080 9.8715 0.2538
105.3280 9.8582 0.2519
105.3480 9.8449 0.2524
105.3680 9.8316 0.2515
105.3880 9.8182 0.2534
105.4080 9.8048 0.2527
105.4280 9.7915 0.2505
105.4480 9.7782 0.2483
105.4680 9.7648 0.2497
105.4880 9.7515 0.2484
105.5080 9.7382 0.2483
105.5280 9.7249 0.2498
105.5480 9.7116 0.2493
105.5680 9.6982 0.2496
105.5880 9.6849 0.2511
105.6080 9.6716 0.2485
105.6280 9.6582 0.2480
105.6480 9.6449 0.2466
105.6680 9.6315 0.2456
105.6880 9.6181 0.2473
105.7080 9.6048 0.2470
105.7280 9.5915 0.2458
105.7480 9.5781 0.2476
105.7680 9.5648 0.2466
105.7880 9.5515 0.2465
105.8080 9.5382 0.2438
105.8280 9.5249 0.2473
105.8480 9.5115 0.2426
105.8680 9.4982 0.2442
105.8880 9.4849 0.2437
105.9080 9.4716 0.2424
105.9280 9.4582 0.2441
105.9480 9.4449 0.2444
105.9680 9.4315 0.2404
105.9880 9.4182 0.2419
106.0080 9.4049 0.2431
106.0280 9.3915 0.2426
106.0480 9.3782 0.2424
106.0680 9.3649 0.2439
106.0880 9.3515 0.2433
106.1080 9.3382 0.2404
106.1280 9.3248 0.2411
106.1480 9.3115 0.2392
106.1680 9.2982 0.2396
106.1880 9.2848 0.2403
106.2080 9.2715 0.2413
106.2280 9.2582 0.2407
106.2480 9.2449 0.2400
106.2680 9.2316 0.2382
106.2880 9.2182 0.2388
106.3080 9.2049 0.2393
106.3280 9.1915 0.2366
106.3480 9.1782 0.2367
106.3680 9.1649 0.2385
106.3880 9.1515 0.2361
106.4080 9.1382 0.2369
106.4280 9.1248 0.2371
106.4480 9.1115 0.2354
106.4680 9.0982 0.2347
106.4880 9.0848 0.2359
106.5080 9.0715 0.2346
106.5280 9.0582 0.2338
106.5480 9.0448 0.2338
106.5680 9.0315 0.2355
106.5880 9.0182 0.2322
106.6080 9.0049 0.2345
106.6280 8.9916 0.2322
106.6480 8.9782 0.2312
106.6680 8.9649 0.2347
106.6880 8.9515 0.2311
106.7080 8.9382 0.2311
106.7280 8.9249 0.2307
106.7480 8.9115 0.2291
106.7680 8.8981 0.2306
106.7880 8.8848 0.2309
106.8080 8.8715 0.2292
106.8280 8.8582 0.2276
106.8480 8.8448 0.2307
106.8680 8.8315 0.2287
106.8880 8.8182 0.2280
106.9080 8.8049 0.2279
106.9280 8.7915 0.2279
106.9480 8.7782 0.2268
106.9680 8.7649 0.2270
106.9880 8.7516 0.2253
107.0080 8.7382 0.2265
107.0280 8.7249 0.2283
107.0480 8.7115 0.2276
107.0680 8.6982 0.2263
107.0880 8.6849 0.2242
107.1080 8.6715 0.2226
107.1280 8.6581 0.2244
107.1480 8.6448 0.2259
107.1680 8.6315 0.2242
107.1880 8.6182 0.2245
107.2080 8.6048 0.2264
107.2280 8.5915 0.2253
107.2480 8.5782 0.2260
107.2680 8.5649 0.2243
107.2880 8.5515 0.2233
107.3080 8.5382 0.2223
107.3280 8.5249 0.2221
107.3480 8.5116 0.2224
107.3680 8.4982 0.2197
107.3880 8.4849 0.2224
107.4080 8.4715 0.2219
107.4280 8.4582 0.2187
107.4480 8.4449 0.2214
107.4680 8.4315 0.2186
107.4880 8.4182 0.2185
107.5080 8.4048 0.2202
107.5280 8.3915 0.2180
107.5480 8.3782 0.2177
107.5680 8.3648 0.2197
107.5880 8.3515 0.2191
107.6080 8.3382 0.2173
107.6280 8.3248 0.2191
107.6480 8.3115 0.2184
107.6680 8.2982 0.2180
107.6880 8.2849 0.2174
107.7080 8.2716 0.2134
107.7280 8.2582 0.2148
107.7480 8.2449 0.2157
107.7680 8.2316 0.2150
107.7880 8.2183 0.2152
107.8080 8.2049 0.2157
107.8280 8.1915 0.2115
107.8480 8.1781 0.2115
107.8680 8.1648 0.2118
107.8880 8.1515 0.2105
107.9080 8.1382 0.2116
107.9280 8.1248 0.2134
107.9480 8.1115 0.2138
107.9680 8.0982 0.2097
107.9880 8.0848 0.2119
108.0080 8.0715 0.2089
108.0280 8.0582 0.2104
108.0480 8.0449 0.2098
108.0680 8.0316 0.2104
108.0880 8.0182 0.2082
108.1080 8.0049 0.2103
108.1280 7.9915 0.2110
108.1480 7.9782 0.2071
108.1680 7.9649 0.2073
108.1880 7.9515 0.2086
108.2080 7.9381 0.2062
108.2280 7.9248 0.2056
108.2480 7.9115 0.2072
108.2680 7.8982 0.2055
108.2880 7.8848 0.2075
108.3080 7.8715 0.2046
108.3280 7.8582 0.2040
108.3480 7.8449 0.2059
108.3680 7.8315 0.2055
108.3880 7.8182 0.2038
108.4080 7.8049 0.2048
108.4280 7.7916 0.2050
108.4480 7.7782 0.1998
108.4680 7.7649 0.2045
108.4880 7.7515 0.2023
108.5080 7.7382 0.2008
108.5280 7.7249 0.2007
108.5480 7.7115 0.2011
108.5680 7.6982 0.1979
108.5880 7.6848 0.2025
108.6080 7.6715 0.2010
108.6280 7.6582 0.2008
108.6480 7.6448 0.1989
108.6680 7.6315 0.2018
108.6880 7.6182 0.2005
108.7080 7.6048 0.1991
108.7280 7.5915 0.2012
108.7480 7.5782 0.1988
108.7680 7.5649 0.1983
108.7880 7.5516 0.1975
108.8080 7.5383 0.1970
108.8280 7.5249 0.1987
108.8480 7.5116 0.1976
108.8680 7.4983 0.1955
108.8880 7.4849 0.1956
108.9080 7.4715 0.1949
108.9280 7.4581 0.1955
108.9480 7.4448 0.1946
108.9680 7.4315 0.1954
108.9880 7.4182 0.1923
109.0080 7.4048 0.1944
109.0280 7.3914 0.1921
109.0480 7.3781 0.1919
109.0680 7.3648 0.1943
109.0880 7.3515 0.1945
109.1080 7.3382 0.1920
109.1280 7.3249 0.1943
109.1480 7.3116 0.1938
109.1680 7.2982 0.1927
109.1880 7.2849 0.1898
109.2080 7.2715 0.1909
109.2280 7.2582 0.1876
109.2480 7.2449 0.1915
109.2680 7.2315 0.1898
109.2880 7.2182 0.1891
109.3080 7.2048 0.1892
109.3280 7.1915 0.1873
109.3480 7.1782 0.1873
109.3680 7.1648 0.1874
109.3880 7.1515 0.1877
109.4080 7.1381 0.1874
109.4280 7.1248 0.1851
109.4480 7.1115 0.1869
109.4680 7.0981 0.1843
109.4880 7.0849 0.1874
109.5080 7.0716 0.1860
109.5280 7.0583 0.1835
109.5480 7.0449 0.1842
109.5680 7.0315 0.1852
109.5880 7.0182 0.1825
109.6080 7.0049 0.1853
109.6280 6.9916 0.1841
109.6480 6.9782 0.1821
109.6680 6.9648 0.1821
109.6880 6.9515 0.1804
109.7080 6.9382 0.1794
109.7280 6.9248 0.1812
109.7480 6.9114 0.1826
109.7680 6.8981 0.1797
109.7880 6.8848 0.1783
109.8080 6.8715 0.1808
109.8280 6.8582 0.1785
109.8480 6.8449 0.1787
109.8680 6.8316 0.1802
109.8880 6.8182 0.1776
109.9080 6.8049 0.1786
109.9280 6.7915 0.1789
109.9480 6.7782 0.1770
109.9680 6.7649 0.1746
109.9880 6.7516 0.1785
110.0080 6.7382 0.1759
110.0280 6.7248 0.1760
110.0480 6.7115 0.1752
110.0680 6.6982 0.1731
110.0880 6.6848 0.1758
110.1080 6.6714 0.1753
110.1280 6.6581 0.1711
110.1480 6.6448 0.1722
110.1680 6.6315 0.1738
110.1880 6.6182 0.1723
110.2080 6.6049 0.1720
110.2280 6.5916 0.1728
110.2480 6.5783 0.1703
110.2680 6.5649 0.1706
110.2880 6.5516 0.1735
110.3080 6.5382 0.1707
110.3280 6.5249 0.1704
110.3480 6.5115 0.1695
110.3680 6.4981 0.1640
110.3880 6.4848 0.1697
110.4080 6.4715 0.1688
110.4280 6.4582 0.1673
110.4480 6.4448 0.1670
110.4680 6.4315 0.1696
110.4880 6.4181 0.1672
110.5080 6.4048 0.1683
110.5280 6.3915 0.1677
110.5480 6.3781 0.1632
110.5680 6.3648 0.1656
110.5880 6.3515 0.1675
110.6080 6.3382 0.1652
110.6280 6.3249 0.1654
110.6480 6.3115 0.1666
110.6680 6.2982 0.1633
110.6880 6.2849 0.1651
110.7080 6.2715 0.1656
110.7280 6.2581 0.1625
110.7480 6.2448 0.1637
110.7680 6.2315 0.1633
110.7880 6.2182 0.1617
110.8080 6.2048 0.1612
110.8280 6.1915 0.1629
110.8480 6.1781 0.1607
110.8680 6.1648 0.1606
110.8880 6.1515 0.1611
110.9080 6.1382 0.1590
110.9280 6.1248 0.1603
110.9480 6.1116 0.1615
110.9680 6.0983 0.1576
110.9880 6.0849 0.1581
111.0080 6.0715 0.1585
111.0280 6.0582 0.1584
111.0480 6.0449 0.1570
111.0680 6.0315 0.1585
111.0880 6.0182 0.1574
111.1080 6.0048 0.1563
111.1280 5.9915 0.1573
111.1480 5.9782 0.1554
111.1680 5.9648 0.1564
111.1880 5.9515 0.1568
111.2080 5.9382 0.1546
111.2280 5.9249 0.1543
111.2480 5.9116 0.1533
111.2680 5.8982 0.1518
111.2880 5.8849 0.1516
111.3080 5.8716 0.1516
111.3280 5.8583 0.1518
111.3480 5.8449 0.1501
111.3680 5.8315 0.1527
111.3880 5.8182 0.1493
111.4080 5.8049 0.1499
111.4280 5.7915 0.1503
111.4480 5.7782 0.1498
111.4680 5.7648 0.1496
111.4880 5.7515 0.1500
111.5080 5.7382 0.1461
111.5280 5.7248 0.1471
111.5480 5.7115 0.1509
111.5680 5.6981 0.1500
111.5880 5.6848 0.1485
111.6080 5.6715 0.1500
111.6280 5.6582 0.1484
111.6480 5.6449 0.1468
111.6680 5.6316 0.1472
111.6880 5.6183 0.1456
111.7080 5.6049 0.1462
111.7280 5.5916 0.1455
111.7480 5.5782 0.1434
111.7680 5.5649 0.1431
111.7880 5.5515 0.1445
111.8080 5.5381 0.1437
111.8280 5.5248 0.1426
111.8480 5.5115 0.1458
111.8680 5.4981 0.1414
111.8880 5.4848 0.1427
111.9080 5.4714 0.1432
111.9280 5.4581 0.1415
111.9480 5.4448 0.1399
111.9680 5.4315 0.1439
111.9880 5.4182 0.1393
112.0080 5.4049 0.1391
112.0280 5.3916 0.1385
112.0480 5.3783 0.1386
112.0680 5.3649 0.1380
112.0880 5.3516 0.1397
112.1080 5.3382 0.1373
112.1280 5.3249 0.1371
112.1480 5.3115 0.1395
112.1680 5.2981 0.1365
112.1880 5.2848 0.1363
112.2080 5.2714 0.1398
112.2280 5.2581 0.1363
112.2480 5.2448 0.1345
112.2680 5.2315 0.1365
112.2880 5.2181 0.1346
112.3080 5.2049 0.1360
112.3280 5.1915 0.1355
112.3480 5.1782 0.1335
112.3680 5.1649 0.1340
112.3880 5.1516 0.1350
112.4080 5.1383 0.1316
112.4280 5.1249 0.1309
112.4480 5.1116 0.1324
112.4680 5.0982 0.1296
112.4880 5.0849 0.1283
112.5080 5.0715 0.1302
112.5280 5.0582 0.1319
112.5480 5.0448 0.1300
112.5680 5.0315 0.1319
112.5880 5.0182 0.1291
112.6080 5.0049 0.1297
112.6280 4.9915 0.1276
112.6480 4.9782 0.1274
112.6680 4.9648 0.1256
112.6880 4.9515 0.1271
112.7080 4.9382 0.1263
112.7280 4.9248 0.1254
112.7480 4.9115 0.1277
112.7680 4.8982 0.1249
112.7880 4.8849 0.1258
112.8080 4.8716 0.1248
112.8280 4.8582 0.1247
112.8480 4.8449 0.1226
112.8680 4.8316 0.1258
112.8880 4.8182 0.1241
112.9080 4.8048 0.1224
112.9280 4.7915 0.1223
112.9480 4.7782 0.1223
112.9680 4.7648 0.1191
112.9880 4.7514 0.1225
113.0080 4.7381 0.1206
113.0280 4.7248 0.1199
113.0480 4.7115 0.1214
113.0680 4.6982 0.1193
113.0880 4.6848 0.1187
113.1080 4.6715 0.1197
113.1280 4.6582 0.1195
113.1480 4.6449 0.1182
113.1680 4.6315 0.1181
113.1880 4.6182 0.1173
113.2080 4.6049 0.1162
113.2280 4.5915 0.1181
113.2480 4.5782 0.1154
113.2680 4.5648 0.1153
113.2880 4.5515 0.1161
113.3080 4.5382 0.1142
113.3280 4.5248 0.1137
113.3480 4.5115 0.1156
113.3680 4.4981 0.1117
113.3880 4.4848 0.1126
113.4080 4.4715 0.1149
113.4280 4.4582 0.1119
113.4480 4.4448 0.1141
113.4680 4.4315 0.1131
113.4880 4.4182 0.1139
113.5080 4.4049 0.1112
113.5280 4.3915 0.1145
113.5480 4.3782 0.1109
113.5680 4.3649 0.1115
113.5880 4.3516 0.1112
113.6080 4.3382 0.1110
113.6280 4.3248 0.1085
113.6480 4.3115 0.1111
113.6680 4.2982 0.1082
113.6880 4.2849 0.1073
113.7080 4.2715 0.1096
113.7280 4.2582 0.1051
113.7480 4.2448 0.1052
113.7680 4.2315 0.1069
113.7880 4.2181 0.1069
113.8080 4.2048 0.1050
113.8280 4.1915 0.1076
113.8480 4.1782 0.1050
113.8680 4.1649 0.1061
113.8880 4.1516 0.1070
113.9080 4.1382 0.1039
113.9280 4.1249 0.1037
113.9480 4.1115 0.1050
113.9680 4.0982 0.1033
113.9880 4.0848 0.1027
114.0080 4.0715 0.1022
114.0280 4.0582 0.1006
114.0480 4.0449 0.1004
114.0680 4.0315 0.1032
114.0880 4.0182 0.1027
114.1080 4.0049 0.0988
114.1280 3.9916 0.1023
114.1480 3.9782 0.0982
114.1680 3.9648 0.1000
114.1880 3.9515 0.0993
114.2080 3.9382 0.0992
114.2280 3.9249 0.0989
114.2480 3.9115 0.1006
114.2680 3.8982 0.0974
114.2880 3.8849 0.0985
114.3080 3.8716 0.0979
114.3280 3.8582 0.0973
114.3480 3.8448 0.0940
114.3680 3.8315 0.0955
114.3880 3.8182 0.0982
114.4080 3.8049 0.0933
114.4280 3.7915 0.0959
114.4480 3.7782 0.0920
114.4680 3.7649 0.0914
114.4880 3.7515 0.0913
114.5080 3.7382 0.0956
114.5280 3.7249 0.0906
114.5480 3.7116 0.0930
114.5680 3.6982 0.0936
114.5880 3.6849 0.0910
114.6080 3.6715 0.0916
114.6280 3.6582 0.0915
114.6480 3.6448 0.0900
114.6680 3.6315 0.0894
114.6880 3.6182 0.0915
114.7080 3.6048 0.0866
114.7280 3.5915 0.0896
114.7480 3.5782 0.0867
114.7680 3.5649 0.0883
114.7880 3.5515 0.0850
114.8080 3.5382 0.0874
114.8280 3.5248 0.0855
114.8480 3.5115 0.0845
114.8680 3.4982 0.0853
114.8880 3.4848 0.0831
114.9080 3.4715 0.0872
114.9280 3.4582 0.0851
114.9480 3.4449 0.0868
114.9680 3.4316 0.0846
114.9880 3.4182 0.0833
115.0080 3.4049 0.0803
115.0280 3.3916 0.0836
115.0480 3.3782 0.0801
115.0680 3.3648 0.0808
115.0880 3.3515 0.0811
115.1080 3.3382 0.0805
115.1280 3.3248 0.0792
115.1480 3.3115 0.0817
115.1680 3.2981 0.0817
115.1880 3.2848 0.0801
115.2080 3.2715 0.0798
115.2280 3.2582 0.0780
115.2480 3.2449 0.0785
115.2680 3.2316 0.0773
115.2880 3.2183 0.0772
115.3080 3.2050 0.0761
115.3280 3.1916 0.0775
115.3480 3.1782 0.0750
115.3680 3.1649 0.0736
115.3880 3.1516 0.0742
115.4080 3.1382 0.0750
115.4280 3.1248 0.0739
115.4480 3.1114 0.0744
115.4680 3.0981 0.0729
115.4880 3.0848 0.0702
115.5080 3.0715 0.0739
115.5280 3.0581 0.0719
115.5480 3.0448 0.0719
115.5680 3.0315 0.0703
115.5880 3.0182 0.0699
115.6080 3.0048 0.0692
115.6280 2.9915 0.0697
115.6480 2.9782 0.0683
115.6680 2.9649 0.0669
115.6880 2.9516 0.0681
115.7080 2.9382 0.0681
115.7280 2.9249 0.0659
115.7480 2.9116 0.0669
115.7680 2.8982 0.0670
115.7880 2.8848 0.0665
115.8080 2.8715 0.0651
115.8280 2.8582 0.0659
115.8480 2.8448 0.0650
115.8680 2.8315 0.0640
115.8880 2.8181 0.0643
115.9080 2.8048 0.0643
115.9280 2.7915 0.0623
115.9480 2.7782 0.0625
115.9680 2.7648 0.0605
115.9880 2.7515 0.0616
116.0080 2.7382 0.0615
116.0280 2.7249 0.0593
116.0480 2.7116 0.0613
116.0680 2.6982 0.0602
116.0880 2.6849 0.0593
116.1080 2.6716 0.0586
116.1280 2.6582 0.0603
116.1480 2.6449 0.0580
116.1680 2.6315 0.0565
116.1880 2.6181 0.0564
116.2080 2.6048 0.0558
116.2280 2.5915 0.0549
116.2480 2.5781 0.0563
116.2680 2.5648 0.0534
116.2880 2.5515 0.0548
116.3080 2.5382 0.0547
116.3280 2.5248 0.0555
116.3480 2.5115 0.0548
116.3680 2.4982 0.0537
116.3880 2.4849 0.0520
116.4080 2.4715 0.0511
116.4280 2.4582 0.0509
116.4480 2.4449 0.0531
116.4680 2.4316 0.0518
116.4880 2.4182 0.0526
116.5080 2.4049 0.0482
116.5280 2.3915 0.0487
116.5480 2.3782 0.0488
116.5680 2.3649 0.0464
116.5880 2.3515 0.0485
116.6080 2.3381 0.0480
116.6280 2.3248 0.0458
116.6480 2.3115 0.0471
116.6680 2.2982 0.0489
116.6880 2.2848 0.0457
116.7080 2.2715 0.0451
116.7280 2.2582 0.0472
116.7480 2.2449 0.0451
116.7680 2.2316 0.0459
116.7880 2.2182 0.0430
116.8080 2.2049 0.0420
116.8280 2.1916 0.0434
116.8480 2.1782 0.0425
116.8680 2.1649 0.0404
116.8880 2.1515 0.0403
116.9080 2.1382 0.0403
116.9280 2.1249 0.0409
116.9480 2.1115 0.0390
116.9680 2.0981 0.0388
116.9880 2.0848 0.0399
117.0080 2.0715 0.0364
117.0280 2.0581 0.0390
117.0480 2.0448 0.0368
117.0680 2.0315 0.0363
117.0880 2.0182 0.0355
117.1080 2.0049 0.0347
117.1280 1.9916 0.0347
117.1480 1.9782 0.0340
117.1680 1.9649 0.0315
117.1880 1.9516 0.0329
117.2080 1.9382 0.0320
117.2280 1.9249 0.0324
117.2480 1.9115 0.0305
117.2680 1.8981 0.0299
117.2880 1.8848 0.0292
117.3080 1.8715 0.0283
117.3280 1.8581 0.0300
117.3480 1.8448 0.0283
117.3680 1.8315 0.0273
117.3880 1.8182 0.0262
117.4080 1.8049 0.0259
117.4280 1.7915 0.0229
117.4480 1.7782 0.0272
117.4680 1.7649 0.0254
117.4880 1.7516 0.0245
117.5080 1.7382 0.0240
117.5280 1.7249 0.0248
117.5480 1.7115 0.0224
117.5680 1.6982 0.0235
117.5880 1.6848 0.0198
117.6080 1.6715 0.0214
117.6280 1.6581 0.0207
117.6480 1.6448 0.0201
117.6680 1.6315 0.0195
117.6880 1.6182 0.0199
117.7080 1.6048 0.0183
117.7280 1.5915 0.0176
117.7480 1.5782 0.0184
117.7680 1.5649 0.0159
117.7880 1.5515 0.0160
117.8080 1.5382 0.0172
117.8280 1.5249 0.0165
117.8480 1.5116 0.0145
117.8680 1.4982 0.0162
117.8880 1.4849 0.0143
117.9080 1.4715 0.0124
117.9280 1.4582 0.0126
117.9480 1.4448 0.0125
117.9680 1.4315 0.0123
117.9880 1.4182 0.0104
118.0080 1.4049 0.0091
118.0280 1.3915 0.0096
118.0480 1.3782 0.0098
118.0680 1.3648 0.0111
118.0880 1.3515 0.0096
118.1080 1.3382 0.0103
118.1280 1.3249 0.0070
118.1480 1.3115 0.0083
118.1680 1.2982 0.0078
118.1880 1.2849 0.0063
118.2080 1.2716 0.0053
118.2280 1.2582 0.0058
118.2480 1.2449 0.0047
118.2680 1.2315 0.0048
118.2880 1.2182 0.0030
118.3080 1.2048 0.0052
118.3280 1.1915 0.0022
118.3480 1.1781 0.0032
118.3680 1.1648 0.0021
118.3880 1.1515 0.0007
118.4080 1.1382 0.0008
118.4280 1.1248 -0.0017
118.4480 1.1115 -0.0017
118.4680 1.0982 -0.0002
118.4880 1.0849 0.0003
118.5080 1.0715 -0.0002
118.5280 1.0582 -0.0010
118.5480 1.0449 -0.0017
118.5680 1.0316 -0.0003
118.5880 1.0182 -0.0010
118.6080 1.0049 -0.0038
118.6280 0.9915 -0.0034
118.6480 0.9782 -0.0029
118.6680 0.9648 -0.0020
118.6880 0.9514 -0.0046
118.7080 0.9381 -0.0017
118.7280 0.9248 -0.0044
118.7480 0.9115 -0.0034
118.7680 0.8981 -0.0048
118.7880 0.8848 -0.0062
118.8080 0.8715 -0.0067
118.8280 0.8582 -0.0069
118.8480 0.8448 -0.0065
118.8680 0.8315 -0.0080
118.8880 0.8182 -0.0054
118.9080 0.8049 -0.0084
118.9280 0.7916 -0.0082
118.9480 0.7782 -0.0082
118.9680 0.7649 -0.0078
118.9880 0.7515 -0.0062
119.0080 0.7382 -0.0049
119.0280 0.7248 -0.0080
119.0480 0.7115 -0.0096
119.0680 0.6981 -0.0093
119.0880 0.6848 -0.0093
119.1080 0.6715 -0.0087
119.1280 0.6581 -0.0072
119.1480 0.6448 -0.0087
119.1680 0.6315 -0.0097
119.1880 0.6182 -0.0097
119.2080 0.6048 -0.0110
119.2280 0.5915 -0.0110
119.2480 0.5782 -0.0081
119.2680 0.5649 -0.0109
119.2880 0.5516 -0.0102
119.3080 0.5382 -0.0119
119.3280 0.5249 -0.0086
119.3480 0.5116 -0.0101
119.3680 0.4982 -0.0106
119.3880 0.4849 -0.0106
119.4080 0.4715 -0.0117
119.4280 0.4581 -0.0102
119.4480 0.4448 -0.0116
119.4680 0.4315 -0.0135
119.4880 0.4181 -0.0118
119.5080 0.4048 -0.0106
119.5280 0.3915 -0.0102
119.5480 0.3782 -0.0100
119.5680 0.3649 -0.0104
119.5880 0.3515 -0.0109
119.6080 0.3382 -0.0098
119.6280 0.3249 -0.0105
119.6480 0.3116 -0.0113
119.6680 0.2982 -0.0105
119.6880 0.2848 -0.0111
119.7080 0.2715 -0.0128
119.7280 0.2582 -0.0087
119.7480 0.2449 -0.0104
119.7680 0.2315 -0.0131
119.7880 0.2182 -0.0103
119.8080 0.2049 -0.0115
119.8280 0.1916 -0.0113
119.8480 0.1782 -0.0098
119.8680 0.1648 -0.0122
119.8880 0.1515 -0.0118
119.9080 0.1382 -0.0103
119.9280 0.1249 -0.0116
119.9480 0.1115 -0.0137
119.9680 0.0982 -0.0122
119.9880 0.0849 -0.0103
120.0080 0.0715 -0.0129
120.0280 0.0582 -0.0111
120.0480 0.0449 -0.0135
120.0680 0.0316 -0.0126
120.0880 0.0182 -0.0124
120.1080 0.0049 -0.0103
120.1160 -0.0004 -0.0068
