Raw Data
Time Displacement Force
(s) (mm) (N)
0.0000 0.0000 -0.0049
0.0200 0.0001 -0.0025
0.0400 0.0020 0.0096
0.0600 0.0096 0.0080
0.0800 0.0215 -0.0058
0.1000 0.0340 -0.0028
0.1200 0.0467 -0.0054
0.1400 0.0601 -0.0035
0.1600 0.0741 -0.0050
0.1800 0.0883 -0.0044
0.2000 0.1022 -0.0089
0.2200 0.1157 -0.0071
0.2400 0.1291 -0.0051
0.2600 0.1424 -0.0053
0.2800 0.1557 -0.0066
0.3000 0.1691 -0.0065
0.3200 0.1824 -0.0051
0.3400 0.1958 -0.0090
0.3600 0.2091 -0.0056
0.3800 0.2225 -0.0084
0.4000 0.2359 -0.0061
0.4200 0.2492 -0.0060
0.4400 0.2625 -0.0070
0.4600 0.2758 -0.0059
0.4800 0.2892 -0.0051
0.5000 0.3025 -0.0072
0.5200 0.3158 -0.0079
0.5400 0.3291 -0.0058
0.5600 0.3425 -0.0064
0.5800 0.3558 -0.0057
0.6000 0.3691 -0.0062
0.6200 0.3824 -0.0055
0.6400 0.3958 -0.0079
0.6600 0.4091 -0.0040
0.6800 0.4224 -0.0080
0.7000 0.4358 -0.0057
0.7200 0.4492 -0.0061
0.7400 0.4625 -0.0054
0.7600 0.4759 -0.0079
0.7800 0.4892 -0.0043
0.8000 0.5025 -0.0045
0.8200 0.5159 -0.0040
0.8400 0.5292 -0.0027
0.8600 0.5426 -0.0035
0.8800 0.5558 -0.0054
0.9000 0.5692 -0.0022
0.9200 0.5825 -0.0046
0.9400 0.5958 -0.0030
0.9600 0.6091 -0.0003
0.9800 0.6224 -0.0015
1.0000 0.6357 -0.0003
1.0200 0.6491 0.0023
1.0400 0.6624 0.0013
1.0600 0.6758 0.0004
1.0800 0.6891 0.0042
1.1000 0.7025 0.0023
1.1200 0.7159 0.0010
1.1400 0.7292 0.0053
1.1600 0.7425 0.0038
1.1800 0.7559 0.0050
1.2000 0.7693 0.0083
1.2200 0.7826 0.0078
1.2400 0.7958 0.0096
1.2600 0.8092 0.0134
1.2800 0.8225 0.0125
1.3000 0.8358 0.0141
1.3200 0.8491 0.0167
1.3400 0.8624 0.0168
1.3600 0.8758 0.0171
1.3800 0.8891 0.0188
1.4000 0.9025 0.0188
1.4200 0.9158 0.0188
1.4400 0.9292 0.0227
1.4600 0.9425 0.0242
1.4800 0.9559 0.0240
1.5000 0.9692 0.0281
1.5200 0.9825 0.0263
1.5400 0.9959 0.0299
1.5600 1.0092 0.0324
1.5800 1.0225 0.0344
1.6000 1.0358 0.0335
1.6200 1.0491 0.0365
1.6400 1.0625 0.0372
1.6600 1.0759 0.0392
1.6800 1.0892 0.0436
1.7000 1.1025 0.0424
1.7200 1.1158 0.0420
1.7400 1.1292 0.0450
1.7600 1.1425 0.0478
1.7800 1.1558 0.0485
1.8000 1.1692 0.0526
1.8200 1.1825 0.0507
1.8400 1.1959 0.0530
1.8600 1.2092 0.0572
1.8800 1.2225 0.0593
1.9000 1.2359 0.0587
1.9200 1.2492 0.0617
1.9400 1.2626 0.0605
1.9600 1.2758 0.0614
1.9800 1.2891 0.0662
2.0000 1.3025 0.0668
2.0200 1.3158 0.0659
2.0400 1.3291 0.0697
2.0600 1.3424 0.0699
2.0800 1.3558 0.0708
2.1000 1.3691 0.0728
2.1200 1.3825 0.0732
2.1400 1.3958 0.0739
2.1600 1.4091 0.0761
2.1800 1.4225 0.0758
2.2000 1.4359 0.0776
2.2200 1.4492 0.0815
2.2400 1.4625 0.0814
2.2600 1.4758 0.0806
2.2800 1.4892 0.0833
2.3000 1.5026 0.0841
2.3200 1.5159 0.0877
2.3400 1.5292 0.0895
2.3600 1.5425 0.0906
2.3800 1.5559 0.0893
2.4000 1.5692 0.0928
2.4200 1.5825 0.0932
2.4400 1.5958 0.0954
2.4600 1.6091 0.0971
2.4800 1.6225 0.0994
2.5000 1.6358 0.0996
2.5200 1.6491 0.1033
2.5400 1.6625 0.1004
2.5600 1.6759 0.1005
2.5800 1.6892 0.1014
2.6000 1.7025 0.1018
2.6200 1.7159 0.1040
2.6400 1.7292 0.1074
2.6600 1.7426 0.1075
2.6800 1.7559 0.1078
2.7000 1.7692 0.1100
2.7200 1.7825 0.1110
2.7400 1.7958 0.1119
2.7600 1.8091 0.1166
2.7800 1.8224 0.1152
2.8000 1.8358 0.1151
2.8200 1.8491 0.1187
2.8400 1.8624 0.1155
2.8600 1.8758 0.1180
2.8800 1.8891 0.1205
2.9000 1.9025 0.1224
2.9200 1.9159 0.1224
2.9400 1.9292 0.1239
2.9600 1.9426 0.1232
2.9800 1.9559 0.1244
3.0000 1.9692 0.1281
3.0200 1.9826 0.1294
3.0400 1.9959 0.1305
3.0600 2.0091 0.1295
3.0800 2.0225 0.1307
3.1000 2.0358 0.1302
3.1200 2.0492 0.1324
3.1400 2.0625 0.1347
3.1600 2.0758 0.1361
3.1800 2.0891 0.1376
3.2000 2.1025 0.1364
3.2200 2.1158 0.1385
3.2400 2.1291 0.1382
3.2600 2.1425 0.1392
3.2800 2.1559 0.1403
3.3000 2.1692 0.1419
3.3200 2.1825 0.1418
3.3400 2.1959 0.1407
3.3600 2.2092 0.1426
3.3800 2.2226 0.1461
3.4000 2.2359 0.1474
3.4200 2.2491 0.1486
3.4400 2.2625 0.1483
3.4600 2.2758 0.1508
3.4800 2.2891 0.1510
3.5000 2.3024 0.1524
3.5200 2.3157 0.1509
3.5400 2.3291 0.1538
3.5600 2.3425 0.1522
3.5800 2.3558 0.1530
3.6000 2.3692 0.1545
3.6200 2.3825 0.1556
3.6400 2.3959 0.1568
3.6600 2.4092 0.1594
3.6800 2.4225 0.1588
3.7000 2.4359 0.1597
3.7200 2.4492 0.1607
3.7400 2.4626 0.1610
3.7600 2.4759 0.1610
3.7800 2.4891 0.1623
3.8000 2.5025 0.1636
3.8200 2.5158 0.1632
3.8400 2.5292 0.1661
3.8600 2.5425 0.1661
3.8800 2.5558 0.1645
3.9000 2.5691 0.1673
3.9200 2.5825 0.1691
3.9400 2.5958 0.1683
3.9600 2.6091 0.1691
3.9800 2.6225 0.1721
4.0000 2.6359 0.1719
4.0200 2.6492 0.1739
4.0400 2.6625 0.1735
4.0600 2.6759 0.1721
4.0800 2.6893 0.1755
4.1000 2.7026 0.1765
4.1200 2.7159 0.1769
4.1400 2.7292 0.1787
4.1600 2.7425 0.1796
4.1800 2.7559 0.1779
4.2000 2.7692 0.1806
4.2200 2.7825 0.1807
4.2400 2.7958 0.1801
4.2600 2.8091 0.1812
4.2800 2.8225 0.1835
4.3000 2.8358 0.1831
4.3200 2.8491 0.1850
4.3400 2.8625 0.1855
4.3600 2.8759 0.1844
4.3800 2.8892 0.1855
4.4000 2.9025 0.1876
4.4200 2.9158 0.1869
4.4400 2.9292 0.1915
4.4600 2.9426 0.1899
4.4800 2.9559 0.1909
4.5000 2.9692 0.1909
4.5200 2.9825 0.1921
4.5400 2.9959 0.1907
4.5600 3.0092 0.1933
4.5800 3.0225 0.1940
4.6000 3.0358 0.1962
4.6200 3.0491 0.1981
4.6400 3.0624 0.1997
4.6600 3.0758 0.1975
4.6800 3.0891 0.2003
4.7000 3.1025 0.2009
4.7200 3.1159 0.1993
4.7400 3.1292 0.2011
4.7600 3.1426 0.2039
4.7800 3.1559 0.2044
4.8000 3.1692 0.2023
4.8200 3.1826 0.2024
4.8400 3.1959 0.2026
4.8600 3.2092 0.2044
4.8800 3.2225 0.2061
4.9000 3.2358 0.2056
4.9200 3.2491 0.2070
4.9400 3.2624 0.2101
4.9600 3.2758 0.2056
4.9800 3.2891 0.2081
5.0000 3.3025 0.2078
5.0200 3.3158 0.2098
5.0400 3.3291 0.2120
5.0600 3.3425 0.2145
5.0800 3.3559 0.2121
5.1000 3.3692 0.2135
5.1200 3.3825 0.2152
5.1400 3.3958 0.2127
5.1600 3.4092 0.2154
5.1800 3.4226 0.2168
5.2000 3.4359 0.2170
5.2200 3.4492 0.2186
5.2400 3.4624 0.2190
5.2600 3.4758 0.2184
5.2800 3.4891 0.2186
5.3000 3.5024 0.2209
5.3200 3.5158 0.2193
5.3400 3.5291 0.2207
5.3600 3.5425 0.2223
5.3800 3.5558 0.2216
5.4000 3.5692 0.2227
5.4200 3.5825 0.2259
5.4400 3.5959 0.2240
5.4600 3.6092 0.2260
5.4800 3.6225 0.2267
5.5000 3.6359 0.2252
5.5200 3.6492 0.2278
5.5400 3.6626 0.2303
5.5600 3.6759 0.2301
5.5800 3.6892 0.2293
5.6000 3.7025 0.2315
5.6200 3.7158 0.2301
5.6400 3.7292 0.2306
5.6600 3.7425 0.2327
5.6800 3.7558 0.2316
5.7000 3.7691 0.2334
5.7200 3.7825 0.2355
5.7400 3.7958 0.2330
5.7600 3.8091 0.2351
5.7800 3.8225 0.2356
5.8000 3.8359 0.2350
5.8200 3.8492 0.2381
5.8400 3.8625 0.2399
5.8600 3.8758 0.2398
5.8800 3.8892 0.2398
5.9000 3.9026 0.2397
5.9200 3.9159 0.2398
5.9400 3.9291 0.2397
5.9600 3.9425 0.2433
5.9800 3.9558 0.2430
6.0000 3.9692 0.2439
6.0200 3.9825 0.2458
6.0400 3.9958 0.2429
6.0600 4.0091 0.2439
6.0800 4.0225 0.2465
6.1000 4.0358 0.2453
6.1200 4.0491 0.2448
6.1400 4.0625 0.2459
6.1600 4.0758 0.2457
6.1800 4.0892 0.2477
6.2000 4.1025 0.2492
6.2200 4.1158 0.2490
6.2400 4.1292 0.2493
6.2600 4.1426 0.2517
6.2800 4.1559 0.2502
6.3000 4.1692 0.2543
6.3200 4.1825 0.2551
6.3400 4.1958 0.2547
6.3600 4.2092 0.2528
6.3800 4.2225 0.2558
6.4000 4.2358 0.2545
6.4200 4.2491 0.2562
6.4400 4.2625 0.2571
6.4600 4.2758 0.2557
6.4800 4.2892 0.2561
6.5000 4.3025 0.2572
6.5200 4.3159 0.2580
6.5400 4.3292 0.2593
6.5600 4.3426 0.2606
6.5800 4.3559 0.2606
6.6000 4.3692 0.2626
6.6200 4.3826 0.2623
6.6400 4.3959 0.2622
6.6600 4.4092 0.2614
6.6800 4.4224 0.2638
6.7000 4.4358 0.2642
6.7200 4.4492 0.2637
6.7400 4.4625 0.2644
6.7600 4.4758 0.2643
6.7800 4.4891 0.2641
6.8000 4.5025 0.2665
6.8200 4.5158 0.2664
6.8400 4.5291 0.2668
6.8600 4.5425 0.2688
6.8800 4.5558 0.2660
6.9000 4.5692 0.2674
6.9200 4.5826 0.2706
6.9400 4.5959 0.2705
6.9600 4.6092 0.2723
6.9800 4.6226 0.2710
7.0000 4.6359 0.2722
7.0200 4.6492 0.2701
7.0400 4.6625 0.2735
7.0600 4.6758 0.2728
7.0800 4.6891 0.2743
7.1000 4.7024 0.2769
7.1200 4.7158 0.2743
7.1400 4.7291 0.2745
7.1600 4.7425 0.2755
7.1800 4.7558 0.2749
7.2000 4.7692 0.2737
7.2200 4.7825 0.2779
7.2400 4.7959 0.2766
7.2600 4.8092 0.2779
7.2800 4.8226 0.2799
7.3000 4.8359 0.2794
7.3200 4.8492 0.2799
7.3400 4.8625 0.2818
7.3600 4.8759 0.2807
7.3800 4.8892 0.2804
7.4000 4.9025 0.2845
7.4200 4.9158 0.2841
7.4400 4.9292 0.2847
7.4600 4.9425 0.2843
7.4800 4.9558 0.2829
7.5000 4.9691 0.2829
7.5200 4.9825 0.2858
7.5400 4.9958 0.2857
7.5600 5.0091 0.2854
7.5800 5.0225 0.2885
7.6000 5.0358 0.2865
7.6200 5.0492 0.2871
7.6400 5.0625 0.2906
7.6600 5.0758 0.2886
7.6800 5.0892 0.2863
7.7000 5.1025 0.2879
7.7200 5.1159 0.2879
7.7400 5.1292 0.2901
7.7600 5.1425 0.2919
7.7800 5.1558 0.2933
7.8000 5.1692 0.2909
7.8200 5.1825 0.2937
7.8400 5.1958 0.2924
7.8600 5.2091 0.2921
7.8800 5.2224 0.2944
7.9000 5.2358 0.2927
7.9200 5.2491 0.2948
7.9400 5.2625 0.2953
7.9600 5.2758 0.2956
7.9800 5.2892 0.2974
8.0000 5.3025 0.2978
8.0200 5.3159 0.2956
8.0400 5.3292 0.2963
8.0600 5.3426 0.2996
8.0800 5.3559 0.2990
8.1000 5.3692 0.2994
8.1200 5.3825 0.3007
8.1400 5.3958 0.3005
8.1600 5.4092 0.3000
8.1800 5.4225 0.3016
8.2000 5.4358 0.3024
8.2200 5.4491 0.3012
8.2400 5.4624 0.3018
8.2600 5.4758 0.3024
8.2800 5.4891 0.3036
8.3000 5.5025 0.3036
8.3200 5.5158 0.3029
8.3400 5.5292 0.3039
8.3600 5.5425 0.3062
8.3800 5.5559 0.3065
8.4000 5.5692 0.3063
8.4200 5.5826 0.3077
8.4400 5.5959 0.3069
8.4600 5.6092 0.3072
8.4800 5.6225 0.3062
8.5000 5.6358 0.3075
8.5200 5.6492 0.3082
8.5400 5.6625 0.3082
8.5600 5.6758 0.3103
8.5800 5.6891 0.3088
8.6000 5.7024 0.3100
8.6200 5.7158 0.3109
8.6400 5.7291 0.3106
8.6600 5.7425 0.3130
8.6800 5.7558 0.3117
8.7000 5.7692 0.3125
8.7200 5.7826 0.3129
8.7400 5.7959 0.3124
8.7600 5.8092 0.3130
8.7800 5.8225 0.3155
8.8000 5.8359 0.3142
8.8200 5.8492 0.3153
8.8400 5.8625 0.3163
8.8600 5.8758 0.3171
8.8800 5.8892 0.3163
8.9000 5.9025 0.3164
8.9200 5.9158 0.3168
8.9400 5.9291 0.3147
8.9600 5.9425 0.3179
8.9800 5.9558 0.3169
9.0000 5.9691 0.3192
9.0200 5.9825 0.3175
9.0400 5.9958 0.3197
9.0600 6.0092 0.3199
9.0800 6.0225 0.3218
9.1000 6.0359 0.3225
9.1200 6.0492 0.3219
9.1400 6.0626 0.3233
9.1600 6.0759 0.3228
9.1800 6.0892 0.3219
9.2000 6.1025 0.3226
9.2200 6.1158 0.3240
9.2400 6.1292 0.3229
9.2600 6.1425 0.3256
9.2800 6.1558 0.3246
9.3000 6.1691 0.3252
9.3200 6.1824 0.3253
9.3400 6.1958 0.3251
9.3600 6.2091 0.3249
9.3800 6.2225 0.3245
9.4000 6.2358 0.3280
9.4200 6.2492 0.3267
9.4400 6.2626 0.3284
9.4600 6.2759 0.3281
9.4800 6.2892 0.3273
9.5000 6.3025 0.3287
9.5200 6.3159 0.3293
9.5400 6.3292 0.3292
9.5600 6.3425 0.3310
9.5800 6.3559 0.3306
9.6000 6.3692 0.3293
9.6200 6.3825 0.3301
9.6400 6.3958 0.3322
9.6600 6.4091 0.3320
9.6800 6.4224 0.3323
9.7000 6.4358 0.3320
9.7200 6.4491 0.3335
9.7400 6.4624 0.3341
9.7600 6.4758 0.3347
9.7800 6.4892 0.3341
9.8000 6.5026 0.3354
9.8200 6.5159 0.3348
9.8400 6.5292 0.3347
9.8600 6.5426 0.3353
9.8800 6.5559 0.3386
9.9000 6.5693 0.3360
9.9200 6.5826 0.3362
9.9400 6.5958 0.3364
9.9600 6.6092 0.3358
9.9800 6.6225 0.3388
10.0000 6.6358 0.3389
10.0200 6.6491 0.3384
10.0400 6.6624 0.3419
10.0600 6.6758 0.3407
10.0800 6.6891 0.3403
10.1000 6.7024 0.3425
10.1200 6.7158 0.3427
10.1400 6.7292 0.3405
10.1600 6.7426 0.3404
10.1800 6.7559 0.3432
10.2000 6.7692 0.3425
10.2200 6.7826 0.3445
10.2400 6.7959 0.3461
10.2600 6.8092 0.3442
10.2800 6.8225 0.3439
10.3000 6.8358 0.3446
10.3200 6.8492 0.3419
10.3400 6.8625 0.3451
10.3600 6.8758 0.3459
10.3800 6.8891 0.3459
10.4000 6.9024 0.3461
10.4200 6.9158 0.3481
10.4400 6.9291 0.3478
10.4600 6.9425 0.3481
10.4800 6.9558 0.3479
10.5000 6.9692 0.3507
10.5200 6.9826 0.3494
10.5400 6.9959 0.3515
10.5600 7.0092 0.3492
10.5800 7.0226 0.3501
10.6000 7.0359 0.3493
10.6200 7.0492 0.3509
10.6400 7.0625 0.3504
10.6600 7.0758 0.3535
10.6800 7.0891 0.3513
10.7000 7.1025 0.3518
10.7200 7.1158 0.3525
10.7400 7.1291 0.3528
10.7600 7.1424 0.3539
10.7800 7.1558 0.3549
10.8000 7.1691 0.3540
10.8200 7.1825 0.3541
10.8400 7.1958 0.3545
10.8600 7.2092 0.3547
10.8800 7.2226 0.3572
10.9000 7.2359 0.3565
10.9200 7.2492 0.3579
10.9400 7.2625 0.3571
10.9600 7.2759 0.3568
10.9800 7.2892 0.3578
11.0000 7.3025 0.3576
11.0200 7.3158 0.3586
11.0400 7.3292 0.3579
11.0600 7.3425 0.3586
11.0800 7.3558 0.3600
11.1000 7.3691 0.3593
11.1200 7.3824 0.3615
11.1400 7.3958 0.3615
11.1600 7.4091 0.3600
11.1800 7.4225 0.3598
11.2000 7.4358 0.3601
11.2200 7.4492 0.3620
11.2400 7.4626 0.3629
11.2600 7.4759 0.3628
11.2800 7.4892 0.3641
11.3000 7.5026 0.3632
11.3200 7.5159 0.3668
11.3400 7.5293 0.3637
11.3600 7.5425 0.3651
11.3800 7.5558 0.3640
11.4000 7.5692 0.3644
11.4200 7.5825 0.3640
11.4400 7.5958 0.3654
11.4600 7.6091 0.3673
11.4800 7.6224 0.3669
11.5000 7.6358 0.3671
11.5200 7.6491 0.3669
11.5400 7.6625 0.3670
11.5600 7.6758 0.3673
11.5800 7.6892 0.3677
11.6000 7.7026 0.3686
11.6200 7.7159 0.3701
11.6400 7.7292 0.3676
11.6600 7.7425 0.3684
11.6800 7.7559 0.3696
11.7000 7.7692 0.3697
11.7200 7.7825 0.3715
11.7400 7.7958 0.3705
11.7600 7.8092 0.3727
11.7800 7.8225 0.3706
11.8000 7.8358 0.3730
11.8200 7.8491 0.3707
11.8400 7.8624 0.3710
11.8600 7.8758 0.3731
11.8800 7.8891 0.3737
11.9000 7.9024 0.3728
11.9200 7.9158 0.3733
11.9400 7.9292 0.3734
11.9600 7.9426 0.3753
11.9800 7.9559 0.3766
12.0000 7.9692 0.3775
12.0200 7.9826 0.3759
12.0400 7.9959 0.3770
12.0600 8.0092 0.3770
12.0800 8.0225 0.3769
12.1000 8.0358 0.3782
12.1200 8.0491 0.3781
12.1400 8.0625 0.3759
12.1600 8.0758 0.3810
12.1800 8.0891 0.3797
12.2000 8.1025 0.3804
12.2200 8.1158 0.3800
12.2400 8.1292 0.3807
12.2600 8.1425 0.3818
12.2800 8.1558 0.3817
12.3000 8.1692 0.3803
12.3200 8.1826 0.3804
12.3400 8.1959 0.3801
12.3600 8.2092 0.3815
12.3800 8.2225 0.3804
12.4000 8.2359 0.3837
12.4200 8.2492 0.3839
12.4400 8.2625 0.3852
12.4600 8.2758 0.3848
12.4800 8.2891 0.3849
12.5000 8.3025 0.3844
12.5200 8.3158 0.3840
12.5400 8.3291 0.3860
12.5600 8.3424 0.3839
12.5800 8.3558 0.3857
12.6000 8.3692 0.3847
12.6200 8.3825 0.3847
12.6400 8.3958 0.3864
12.6600 8.4092 0.3869
12.6800 8.4226 0.3861
12.7000 8.4359 0.3884
12.7200 8.4492 0.3883
12.7400 8.4625 0.3880
12.7600 8.4759 0.3879
12.7800 8.4892 0.3893
12.8000 8.5025 0.3903
12.8200 8.5158 0.3910
12.8400 8.5291 0.3896
12.8600 8.5425 0.3888
12.8800 8.5558 0.3899
12.9000 8.5691 0.3922
12.9200 8.5824 0.3901
12.9400 8.5958 0.3928
12.9600 8.6091 0.3897
12.9800 8.6225 0.3926
13.0000 8.6358 0.3923
13.0200 8.6492 0.3933
13.0400 8.6625 0.3929
13.0600 8.6759 0.3930
13.0800 8.6892 0.3935
13.1000 8.7025 0.3946
13.1200 8.7159 0.3955
13.1400 8.7292 0.3951
13.1600 8.7425 0.3954
13.1800 8.7558 0.3974
13.2000 8.7691 0.3952
13.2200 8.7825 0.3960
13.2400 8.7958 0.3959
13.2600 8.8091 0.3976
13.2800 8.8224 0.3962
13.3000 8.8358 0.3968
13.3200 8.8491 0.3967
13.3400 8.8625 0.3976
13.3600 8.8758 0.3969
13.3800 8.8892 0.3994
13.4000 8.9025 0.3980
13.4200 8.9159 0.4000
13.4400 8.9292 0.4002
13.4600 8.9425 0.3997
13.4800 8.9559 0.3987
13.5000 8.9692 0.3981
13.5200 8.9825 0.4004
13.5400 8.9958 0.4002
13.5600 9.0091 0.4020
13.5800 9.0225 0.4029
13.6000 9.0358 0.4039
13.6200 9.0491 0.4033
13.6400 9.0624 0.4050
13.6600 9.0758 0.4035
13.6800 9.0891 0.4051
13.7000 9.1025 0.4043
13.7200 9.1158 0.4053
13.7400 9.1292 0.4065
13.7600 9.1426 0.4046
13.7800 9.1559 0.4044
13.8000 9.1692 0.4068
13.8200 9.1826 0.4054
13.8400 9.1959 0.4056
13.8600 9.2092 0.4055
13.8800 9.2225 0.4059
13.9000 9.2358 0.4059
13.9200 9.2491 0.4077
13.9400 9.2625 0.4056
13.9600 9.2758 0.4061
13.9800 9.2891 0.4066
14.0000 9.3024 0.4102
14.0200 9.3158 0.4097
14.0400 9.3291 0.4105
14.0600 9.3424 0.4094
14.0800 9.3558 0.4115
14.1000 9.3692 0.4093
14.1200 9.3825 0.4109
14.1400 9.3959 0.4070
14.1600 9.4092 0.4111
14.1800 9.4225 0.4095
14.2000 9.4359 0.4136
14.2200 9.4492 0.4117
14.2400 9.4625 0.4122
14.2600 9.4758 0.4103
14.2800 9.4891 0.4117
14.3000 9.5025 0.4127
14.3200 9.5158 0.4126
14.3400 9.5291 0.4128
14.3600 9.5424 0.4141
14.3800 9.5558 0.4148
14.4000 9.5691 0.4152
14.4200 9.5825 0.4163
14.4400 9.5958 0.4155
14.4600 9.6092 0.4181
14.4800 9.6225 0.4162
14.5000 9.6359 0.4156
14.5200 9.6492 0.4162
14.5400 9.6625 0.4179
14.5600 9.6758 0.4170
14.5800 9.6892 0.4178
14.6000 9.7025 0.4184
14.6200 9.7159 0.4186
14.6400 9.7292 0.4209
14.6600 9.7425 0.4216
14.6800 9.7558 0.4182
14.7000 9.7691 0.4199
14.7200 9.7825 0.4192
14.7400 9.7958 0.4188
14.7600 9.8091 0.4207
14.7800 9.8225 0.4204
14.8000 9.8358 0.4198
14.8200 9.8491 0.4225
14.8400 9.8625 0.4222
14.8600 9.8759 0.4232
14.8800 9.8892 0.4230
14.9000 9.9025 0.4238
14.9200 9.9159 0.4206
14.9400 9.9292 0.4218
14.9600 9.9425 0.4232
14.9800 9.9558 0.4238
15.0000 9.9692 0.4255
15.0200 9.9825 0.4254
15.0400 9.9959 0.4241
15.0600 10.0092 0.4270
15.0800 10.0225 0.4251
15.1000 10.0358 0.4254
15.1200 10.0491 0.4249
15.1400 10.0625 0.4260
15.1600 10.0758 0.4276
15.1800 10.0892 0.4288
15.2000 10.1026 0.4296
15.2200 10.1159 0.4254
15.2400 10.1292 0.4255
15.2600 10.1425 0.4265
15.2800 10.1559 0.4265
15.3000 10.1692 0.4286
15.3200 10.1826 0.4283
15.3400 10.1959 0.4285
15.3600 10.2092 0.4300
15.3800 10.2225 0.4302
15.4000 10.2358 0.4296
15.4200 10.2492 0.4303
15.4400 10.2625 0.4314
15.4600 10.2758 0.4307
15.4800 10.2891 0.4304
15.5000 10.3025 0.4319
15.5200 10.3158 0.4304
15.5400 10.3291 0.4321
15.5600 10.3425 0.4304
15.5800 10.3558 0.4307
15.6000 10.3692 0.4329
15.6200 10.3825 0.4317
15.6400 10.3959 0.4323
15.6600 10.4093 0.4335
15.6800 10.4226 0.4347
15.7000 10.4359 0.4334
15.7200 10.4492 0.4349
15.7400 10.4625 0.4344
15.7600 10.4758 0.4321
15.7800 10.4891 0.4354
15.8000 10.5024 0.4345
15.8200 10.5158 0.4369
15.8400 10.5291 0.4353
15.8600 10.5425 0.4372
15.8800 10.5558 0.4354
15.9000 10.5691 0.4375
15.9200 10.5825 0.4369
15.9400 10.5959 0.4379
15.9600 10.6092 0.4379
15.9800 10.6225 0.4392
16.0000 10.6358 0.4385
16.0200 10.6492 0.4386
16.0400 10.6625 0.4424
16.0600 10.6758 0.4381
16.0800 10.6892 0.4406
16.1000 10.7025 0.4388
16.1200 10.7159 0.4393
16.1400 10.7292 0.4403
16.1600 10.7425 0.4414
16.1800 10.7558 0.4393
16.2000 10.7691 0.4416
16.2200 10.7825 0.4409
16.2400 10.7958 0.4404
16.2600 10.8091 0.4403
16.2800 10.8225 0.4417
16.3000 10.8359 0.4414
16.3200 10.8492 0.4433
16.3400 10.8625 0.4421
16.3600 10.8759 0.4418
16.3800 10.8892 0.4429
16.4000 10.9025 0.4436
16.4200 10.9158 0.4446
16.4400 10.9291 0.4464
16.4600 10.9425 0.4469
16.4800 10.9558 0.4452
16.5000 10.9692 0.4455
16.5200 10.9824 0.4469
16.5400 10.9958 0.4442
16.5600 11.0091 0.4482
16.5800 11.0225 0.4461
16.6000 11.0358 0.4463
16.6200 11.0491 0.4463
16.6400 11.0625 0.4488
16.6600 11.0759 0.4465
16.6800 11.0892 0.4487
16.7000 11.1025 0.4507
16.7200 11.1158 0.4490
16.7400 11.1292 0.4499
16.7600 11.1426 0.4504
16.7800 11.1559 0.4494
16.8000 11.1692 0.4488
16.8200 11.1825 0.4514
16.8400 11.1959 0.4500
16.8600 11.2092 0.4522
16.8800 11.2225 0.4504
16.9000 11.2358 0.4512
16.9200 11.2491 0.4513
16.9400 11.2625 0.4521
16.9600 11.2758 0.4509
16.9800 11.2891 0.4529
17.0000 11.3025 0.4535
17.0200 11.3159 0.4516
17.0400 11.3292 0.4529
17.0600 11.3425 0.4534
17.0800 11.3559 0.4529
17.1000 11.3692 0.4533
17.1200 11.3826 0.4543
17.1400 11.3959 0.4550
17.1600 11.4092 0.4558
17.1800 11.4225 0.4565
17.2000 11.4359 0.4556
17.2200 11.4492 0.4570
17.2400 11.4625 0.4566
17.2600 11.4758 0.4556
17.2800 11.4891 0.4557
17.3000 11.5024 0.4584
17.3200 11.5158 0.4580
17.3400 11.5291 0.4578
17.3600 11.5425 0.4572
17.3800 11.5559 0.4571
17.4000 11.5692 0.4576
17.4200 11.5826 0.4592
17.4400 11.5959 0.4583
17.4600 11.6093 0.4606
17.4800 11.6226 0.4590
17.5000 11.6359 0.4582
17.5200 11.6492 0.4603
17.5400 11.6625 0.4603
17.5600 11.6758 0.4596
17.5800 11.6892 0.4582
17.6000 11.7025 0.4604
17.6200 11.7158 0.4599
17.6400 11.7291 0.4622
17.6600 11.7425 0.4622
17.6800 11.7558 0.4608
17.7000 11.7691 0.4613
17.7200 11.7825 0.4638
17.7400 11.7959 0.4620
17.7600 11.8092 0.4619
17.7800 11.8225 0.4642
17.8000 11.8359 0.4638
17.8200 11.8492 0.4656
17.8400 11.8626 0.4671
17.8600 11.8758 0.4662
17.8800 11.8891 0.4648
17.9000 11.9025 0.4660
17.9200 11.9158 0.4649
17.9400 11.9292 0.4656
17.9600 11.9425 0.4676
17.9800 11.9558 0.4672
18.0000 11.9691 0.4655
18.0200 11.9825 0.4667
18.0400 11.9958 0.4681
18.0600 12.0092 0.4687
18.0800 12.0225 0.4688
18.1000 12.0359 0.4655
18.1200 12.0492 0.4674
18.1400 12.0626 0.4707
18.1600 12.0759 0.4701
18.1800 12.0892 0.4686
18.2000 12.1025 0.4714
18.2200 12.1158 0.4700
18.2400 12.1291 0.4706
18.2600 12.1425 0.4712
18.2800 12.1558 0.4699
18.3000 12.1692 0.4699
18.3200 12.1825 0.4709
18.3400 12.1958 0.4714
18.3600 12.2091 0.4724
18.3800 12.2225 0.4725
18.4000 12.2358 0.4734
18.4200 12.2491 0.4719
18.4400 12.2625 0.4734
18.4600 12.2759 0.4736
18.4800 12.2892 0.4735
18.5000 12.3025 0.4761
18.5200 12.3159 0.4738
18.5400 12.3292 0.4735
18.5600 12.3426 0.4741
18.5800 12.3559 0.4742
18.6000 12.3692 0.4746
18.6200 12.3825 0.4755
18.6400 12.3958 0.4750
18.6600 12.4092 0.4742
18.6800 12.4224 0.4762
18.7000 12.4357 0.4757
18.7200 12.4491 0.4745
18.7400 12.4624 0.4759
18.7600 12.4758 0.4751
18.7800 12.4891 0.4748
18.8000 12.5025 0.4787
18.8200 12.5159 0.4797
18.8400 12.5292 0.4799
18.8600 12.5425 0.4795
18.8800 12.5559 0.4800
18.9000 12.5692 0.4783
18.9200 12.5826 0.4798
18.9400 12.5959 0.4787
18.9600 12.6092 0.4790
18.9800 12.6225 0.4798
19.0000 12.6358 0.4800
19.0200 12.6492 0.4815
19.0400 12.6625 0.4834
19.0600 12.6758 0.4804
19.0800 12.6891 0.4786
19.1000 12.7024 0.4806
19.1200 12.7158 0.4803
19.1400 12.7291 0.4805
19.1600 12.7425 0.4826
19.1800 12.7559 0.4821
19.2000 12.7692 0.4803
19.2200 12.7826 0.4829
19.2400 12.7959 0.4829
19.2600 12.8092 0.4842
19.2800 12.8226 0.4859
19.3000 12.8359 0.4863
19.3200 12.8492 0.4828
19.3400 12.8625 0.4848
19.3600 12.8758 0.4832
19.3800 12.8892 0.4860
19.4000 12.9025 0.4864
19.4200 12.9158 0.4867
19.4400 12.9291 0.4861
19.4600 12.9425 0.4867
19.4800 12.9558 0.4873
19.5000 12.9691 0.4857
19.5200 12.9825 0.4870
19.5400 12.9959 0.4857
19.5600 13.0093 0.4855
19.5800 13.0226 0.4887
19.6000 13.0359 0.4882
19.6200 13.0492 0.4878
19.6400 13.0626 0.4890
19.6600 13.0759 0.4899
19.6800 13.0892 0.4904
19.7000 13.1025 0.4918
19.7200 13.1158 0.4916
19.7400 13.1291 0.4911
19.7600 13.1425 0.4925
19.7800 13.1558 0.4941
19.8000 13.1691 0.4928
19.8200 13.1825 0.4932
19.8400 13.1958 0.4924
19.8600 13.2091 0.4936
19.8800 13.2225 0.4931
19.9000 13.2359 0.4934
19.9200 13.2492 0.4930
19.9400 13.2625 0.4945
19.9600 13.2759 0.4940
19.9800 13.2892 0.4933
20.0000 13.3026 0.4949
20.0200 13.3159 0.4957
20.0400 13.3292 0.4946
20.0600 13.3425 0.4956
20.0800 13.3558 0.4956
20.1000 13.3692 0.4954
20.1200 13.3825 0.4968
20.1400 13.3958 0.4943
20.1600 13.4091 0.4948
20.1800 13.4225 0.4959
20.2000 13.4358 0.4968
20.2200 13.4491 0.4957
20.2400 13.4625 0.4965
20.2600 13.4759 0.4979
20.2800 13.4892 0.4965
20.3000 13.5025 0.4973
20.3200 13.5159 0.4995
20.3400 13.5292 0.4985
20.3600 13.5426 0.4976
20.3800 13.5559 0.4993
20.4000 13.5692 0.4985
20.4200 13.5825 0.5001
20.4400 13.5958 0.5018
20.4600 13.6092 0.4998
20.4800 13.6225 0.5009
20.5000 13.6358 0.5030
20.5200 13.6491 0.5011
20.5400 13.6625 0.5017
20.5600 13.6758 0.5025
20.5800 13.6891 0.5006
20.6000 13.7025 0.5022
20.6200 13.7159 0.5033
20.6400 13.7292 0.5024
20.6600 13.7426 0.5038
20.6800 13.7559 0.5038
20.7000 13.7692 0.5013
20.7200 13.7826 0.5050
20.7400 13.7959 0.5052
20.7600 13.8092 0.5068
20.7800 13.8225 0.5045
20.8000 13.8358 0.5044
20.8200 13.8492 0.5018
20.8400 13.8625 0.5050
20.8600 13.8758 0.5063
20.8800 13.8891 0.5054
20.9000 13.9024 0.5054
20.9200 13.9158 0.5079
20.9400 13.9291 0.5052
20.9600 13.9425 0.5083
20.9800 13.9559 0.5077
21.0000 13.9693 0.5072
21.0200 13.9826 0.5073
21.0400 13.9959 0.5092
21.0600 14.0092 0.5091
21.0800 14.0226 0.5098
21.1000 14.0359 0.5111
21.1200 14.0492 0.5095
21.1400 14.0625 0.5118
21.1600 14.0758 0.5122
21.1800 14.0892 0.5106
21.2000 14.1025 0.5115
21.2200 14.1158 0.5106
21.2400 14.1291 0.5104
21.2600 14.1424 0.5113
21.2800 14.1558 0.5133
21.3000 14.1691 0.5126
21.3200 14.1825 0.5126
21.3400 14.1958 0.5128
21.3600 14.2092 0.5117
21.3800 14.2225 0.5152
21.4000 14.2358 0.5145
21.4200 14.2492 0.5124
21.4400 14.2626 0.5145
21.4600 14.2759 0.5155
21.4800 14.2892 0.5122
21.5000 14.3025 0.5154
21.5200 14.3158 0.5144
21.5400 14.3291 0.5149
21.5600 14.3425 0.5161
21.5800 14.3558 0.5185
21.6000 14.3691 0.5150
21.6200 14.3825 0.5155
21.6400 14.3958 0.5165
21.6600 14.4092 0.5160
21.6800 14.4225 0.5176
21.7000 14.4359 0.5203
21.7200 14.4492 0.5177
21.7400 14.4626 0.5175
21.7600 14.4759 0.5184
21.7800 14.4892 0.5186
21.8000 14.5025 0.5195
21.8200 14.5159 0.5206
21.8400 14.5292 0.5201
21.8600 14.5425 0.5199
21.8800 14.5558 0.5203
21.9000 14.5692 0.5194
21.9200 14.5825 0.5217
21.9400 14.5958 0.5233
21.9600 14.6091 0.5191
21.9800 14.6225 0.5205
22.0000 14.6358 0.5217
22.0200 14.6491 0.5218
22.0400 14.6625 0.5208
22.0600 14.6758 0.5231
22.0800 14.6892 0.5223
22.1000 14.7025 0.5226
22.1200 14.7158 0.5240
22.1400 14.7292 0.5228
22.1600 14.7425 0.5240
22.1800 14.7559 0.5262
22.2000 14.7692 0.5255
22.2200 14.7825 0.5258
22.2400 14.7958 0.5264
22.2600 14.8092 0.5240
22.2800 14.8225 0.5243
22.3000 14.8358 0.5269
22.3200 14.8491 0.5275
22.3400 14.8624 0.5282
22.3600 14.8758 0.5284
22.3800 14.8891 0.5289
22.4000 14.9025 0.5275
22.4200 14.9158 0.5297
22.4400 14.9292 0.5255
22.4600 14.9425 0.5284
22.4800 14.9559 0.5290
22.5000 14.9692 0.5279
22.5200 14.9826 0.5280
22.5400 14.9959 0.5311
22.5600 15.0092 0.5301
22.5800 15.0225 0.5310
22.6000 15.0358 0.5314
22.6200 15.0491 0.5284
22.6400 15.0625 0.5292
22.6600 15.0758 0.5320
22.6800 15.0891 0.5298
22.7000 15.1024 0.5310
22.7200 15.1158 0.5335
22.7400 15.1291 0.5319
22.7600 15.1424 0.5338
22.7800 15.1558 0.5337
22.8000 15.1692 0.5318
22.8200 15.1826 0.5318
22.8400 15.1959 0.5339
22.8600 15.2092 0.5323
22.8800 15.2226 0.5344
22.9000 15.2359 0.5354
22.9200 15.2492 0.5341
22.9400 15.2625 0.5345
22.9600 15.2758 0.5382
22.9800 15.2892 0.5373
23.0000 15.3025 0.5372
23.0200 15.3158 0.5390
23.0400 15.3291 0.5364
23.0600 15.3424 0.5356
23.0800 15.3558 0.5375
23.1000 15.3691 0.5357
23.1200 15.3825 0.5377
23.1400 15.3958 0.5395
23.1600 15.4092 0.5404
23.1800 15.4226 0.5388
23.2000 15.4359 0.5399
23.2200 15.4492 0.5392
23.2400 15.4625 0.5404
23.2600 15.4759 0.5420
23.2800 15.4892 0.5395
23.3000 15.5025 0.5394
23.3200 15.5158 0.5422
23.3400 15.5292 0.5421
23.3600 15.5425 0.5420
23.3800 15.5558 0.5416
23.4000 15.5691 0.5429
23.4200 15.5824 0.5395
23.4400 15.5958 0.5436
23.4600 15.6091 0.5423
23.4800 15.6225 0.5414
23.5000 15.6358 0.5454
23.5200 15.6492 0.5430
23.5400 15.6625 0.5431
23.5600 15.6758 0.5457
23.5800 15.6892 0.5436
23.6000 15.7025 0.5468
23.6200 15.7159 0.5461
23.6400 15.7292 0.5443
23.6600 15.7425 0.5445
23.6800 15.7558 0.5470
23.7000 15.7691 0.5452
23.7200 15.7825 0.5450
23.7400 15.7958 0.5474
23.7600 15.8091 0.5464
23.7800 15.8224 0.5443
23.8000 15.8358 0.5469
23.8200 15.8491 0.5451
23.8400 15.8625 0.5459
23.8600 15.8758 0.5486
23.8800 15.8892 0.5484
23.9000 15.9025 0.5481
23.9200 15.9159 0.5502
23.9400 15.9292 0.5496
23.9600 15.9425 0.5485
23.9800 15.9559 0.5514
24.0000 15.9692 0.5496
24.0200 15.9825 0.5496
24.0400 15.9958 0.5517
24.0600 16.0092 0.5510
24.0800 16.0225 0.5499
24.1000 16.0358 0.5542
24.1200 16.0491 0.5502
24.1400 16.0625 0.5524
24.1600 16.0758 0.5538
24.1800 16.0891 0.5529
24.2000 16.1024 0.5524
24.2200 16.1158 0.5542
24.2400 16.1292 0.5535
24.2600 16.1426 0.5505
24.2800 16.1559 0.5540
24.3000 16.1692 0.5534
24.3200 16.1826 0.5543
24.3400 16.1959 0.5568
24.3600 16.2093 0.5551
24.3800 16.2226 0.5549
24.4000 16.2358 0.5560
24.4200 16.2492 0.5556
24.4400 16.2625 0.5571
24.4600 16.2758 0.5578
24.4800 16.2891 0.5573
24.5000 16.3024 0.5568
24.5200 16.3158 0.5577
24.5400 16.3291 0.5571
24.5600 16.3424 0.5558
24.5800 16.3558 0.5592
24.6000 16.3692 0.5588
24.6200 16.3826 0.5582
24.6400 16.3959 0.5612
24.6600 16.4092 0.5595
24.6800 16.4226 0.5596
24.7000 16.4359 0.5597
24.7200 16.4493 0.5589
24.7400 16.4625 0.5590
24.7600 16.4758 0.5613
24.7800 16.4892 0.5615
24.8000 16.5025 0.5597
24.8200 16.5158 0.5629
24.8400 16.5291 0.5614
24.8600 16.5424 0.5631
24.8800 16.5558 0.5657
24.9000 16.5691 0.5643
24.9200 16.5825 0.5615
24.9400 16.5958 0.5664
24.9600 16.6092 0.5641
24.9800 16.6226 0.5638
25.0000 16.6359 0.5653
25.0200 16.6492 0.5657
25.0400 16.6626 0.5646
25.0600 16.6759 0.5651
25.0800 16.6892 0.5658
25.1000 16.7025 0.5652
25.1200 16.7158 0.5680
25.1400 16.7291 0.5664
25.1600 16.7425 0.5655
25.1800 16.7558 0.5675
25.2000 16.7691 0.5669
25.2200 16.7824 0.5677
25.2400 16.7958 0.5699
25.2600 16.8091 0.5682
25.2800 16.8225 0.5673
25.3000 16.8358 0.5680
25.3200 16.8492 0.5686
25.3400 16.8626 0.5696
25.3600 16.8759 0.5712
25.3800 16.8892 0.5704
25.4000 16.9025 0.5704
25.4200 16.9159 0.5709
25.4400 16.9292 0.5696
25.4600 16.9425 0.5704
25.4800 16.9558 0.5748
25.5000 16.9691 0.5744
25.5200 16.9825 0.5726
25.5400 16.9958 0.5740
25.5600 17.0091 0.5719
25.5800 17.0224 0.5707
25.6000 17.0358 0.5739
25.6200 17.0491 0.5743
25.6400 17.0625 0.5736
25.6600 17.0758 0.5752
25.6800 17.0892 0.5741
25.7000 17.1026 0.5728
25.7200 17.1159 0.5751
25.7400 17.1292 0.5733
25.7600 17.1425 0.5740
25.7800 17.1559 0.5746
25.8000 17.1693 0.5750
25.8200 17.1826 0.5758
25.8400 17.1958 0.5756
25.8600 17.2092 0.5775
25.8800 17.2225 0.5754
25.9000 17.2358 0.5775
25.9200 17.2491 0.5768
25.9400 17.2624 0.5763
25.9600 17.2758 0.5783
25.9800 17.2891 0.5761
26.0000 17.3025 0.5762
26.0200 17.3158 0.5799
26.0400 17.3292 0.5795
26.0600 17.3425 0.5775
26.0800 17.3559 0.5801
26.1000 17.3692 0.5798
26.1200 17.3825 0.5796
26.1400 17.3959 0.5803
26.1600 17.4092 0.5804
26.1800 17.4225 0.5792
26.2000 17.4358 0.5828
26.2200 17.4491 0.5823
26.2400 17.4625 0.5810
26.2600 17.4758 0.5828
26.2800 17.4891 0.5835
26.3000 17.5024 0.5823
26.3200 17.5158 0.5848
26.3400 17.5291 0.5846
26.3600 17.5424 0.5835
26.3800 17.5558 0.5842
26.4000 17.5692 0.5858
26.4200 17.5825 0.5857
26.4400 17.5959 0.5872
26.4600 17.6092 0.5865
26.4800 17.6225 0.5843
26.5000 17.6359 0.5865
26.5200 17.6493 0.5893
26.5400 17.6625 0.5872
26.5600 17.6758 0.5890
26.5800 17.6891 0.5881
26.6000 17.7025 0.5878
26.6200 17.7158 0.5880
26.6400 17.7291 0.5893
26.6600 17.7424 0.5881
26.6800 17.7558 0.5894
26.7000 17.7691 0.5890
26.7200 17.7825 0.5884
26.7400 17.7958 0.5909
26.7600 17.8092 0.5887
26.7800 17.8226 0.5883
26.8000 17.8359 0.5896
26.8200 17.8492 0.5916
26.8400 17.8625 0.5914
26.8600 17.8759 0.5944
26.8800 17.8892 0.5928
26.9000 17.9025 0.5934
26.9200 17.9158 0.5938
26.9400 17.9291 0.5933
26.9600 17.9425 0.5907
26.9800 17.9558 0.5935
27.0000 17.9691 0.5951
27.0200 17.9824 0.5933
27.0400 17.9958 0.5957
27.0600 18.0092 0.5953
27.0800 18.0225 0.5955
27.1000 18.0358 0.5956
27.1200 18.0492 0.5945
27.1400 18.0626 0.5956
27.1600 18.0759 0.5942
27.1800 18.0892 0.5982
27.2000 18.1025 0.5955
27.2200 18.1159 0.5973
27.2400 18.1293 0.5974
27.2600 18.1426 0.5970
27.2800 18.1558 0.5988
27.3000 18.1692 0.6002
27.3200 18.1825 0.5964
27.3400 18.1958 0.5986
27.3600 18.2091 0.6003
27.3800 18.2224 0.5997
27.4000 18.2358 0.6009
27.4200 18.2492 0.6004
27.4400 18.2625 0.5991
27.4600 18.2758 0.5990
27.4800 18.2892 0.6008
27.5000 18.3025 0.5993
27.5200 18.3159 0.6013
27.5400 18.3292 0.6022
27.5600 18.3425 0.6018
27.5800 18.3559 0.6038
27.6000 18.3692 0.6040
27.6200 18.3825 0.6021
27.6400 18.3958 0.6026
27.6600 18.4091 0.6027
27.6800 18.4225 0.6042
27.7000 18.4358 0.6034
27.7200 18.4492 0.6063
27.7400 18.4625 0.6041
27.7600 18.4758 0.6059
27.7800 18.4892 0.6065
27.8000 18.5025 0.6047
27.8200 18.5158 0.6064
27.8400 18.5291 0.6075
27.8600 18.5425 0.6061
27.8800 18.5559 0.6072
27.9000 18.5692 0.6077
27.9200 18.5825 0.6072
27.9400 18.5959 0.6077
27.9600 18.6092 0.6088
27.9800 18.6226 0.6076
28.0000 18.6358 0.6076
28.0200 18.6491 0.6097
28.0400 18.6625 0.6089
28.0600 18.6758 0.6097
28.0800 18.6891 0.6128
28.1000 18.7024 0.6111
28.1200 18.7158 0.6107
28.1400 18.7291 0.6107
28.1600 18.7425 0.6088
28.1800 18.7558 0.6116
28.2000 18.7692 0.6125
28.2200 18.7826 0.6124
28.2400 18.7959 0.6113
28.2600 18.8092 0.6149
28.2800 18.8225 0.6139
28.3000 18.8359 0.6143
28.3200 18.8492 0.6151
28.3400 18.8625 0.6125
28.3600 18.8758 0.6163
28.3800 18.8891 0.6181
28.4000 18.9025 0.6164
28.4200 18.9158 0.6150
28.4400 18.9291 0.6160
28.4600 18.9424 0.6137
28.4800 18.9558 0.6157
28.5000 18.9691 0.6162
28.5200 18.9825 0.6165
28.5400 18.9958 0.6167
28.5600 19.0091 0.6179
28.5800 19.0225 0.6184
28.6000 19.0359 0.6164
28.6200 19.0492 0.6203
28.6400 19.0625 0.6184
28.6600 19.0759 0.6199
28.6800 19.0893 0.6203
28.7000 19.1026 0.6199
28.7200 19.1158 0.6213
28.7400 19.1291 0.6219
28.7600 19.1425 0.6209
28.7800 19.1558 0.6192
28.8000 19.1691 0.6226
28.8200 19.1824 0.6235
28.8400 19.1958 0.6226
28.8600 19.2091 0.6237
28.8800 19.2225 0.6232
28.9000 19.2358 0.6234
28.9200 19.2492 0.6265
28.9400 19.2625 0.6239
28.9600 19.2759 0.6243
28.9800 19.2892 0.6243
29.0000 19.3025 0.6244
29.0200 19.3158 0.6245
29.0400 19.3292 0.6246
29.0600 19.3426 0.6257
29.0800 19.3559 0.6256
29.1000 19.3692 0.6280
29.1200 19.3825 0.6247
29.1400 19.3958 0.6263
29.1600 19.4091 0.6284
29.1800 19.4225 0.6277
29.2000 19.4358 0.6280
29.2200 19.4492 0.6303
29.2400 19.4625 0.6279
29.2600 19.4758 0.6301
29.2800 19.4891 0.6288
29.3000 19.5025 0.6290
29.3200 19.5159 0.6294
29.3400 19.5292 0.6312
29.3600 19.5425 0.6291
29.3800 19.5558 0.6309
29.4000 19.5692 0.6328
29.4200 19.5825 0.6318
29.4400 19.5958 0.6319
29.4600 19.6092 0.6319
29.4800 19.6225 0.6319
29.5000 19.6358 0.6307
29.5200 19.6492 0.6336
29.5400 19.6625 0.6329
29.5600 19.6758 0.6348
29.5800 19.6891 0.6339
29.6000 19.7025 0.6342
29.6200 19.7158 0.6347
29.6400 19.7292 0.6356
29.6600 19.7425 0.6349
29.6800 19.7559 0.6336
29.7000 19.7692 0.6361
29.7200 19.7825 0.6354
29.7400 19.7959 0.6359
29.7600 19.8092 0.6362
29.7800 19.8226 0.6381
29.8000 19.8358 0.6386
29.8200 19.8491 0.6402
29.8400 19.8625 0.6392
29.8600 19.8758 0.6371
29.8800 19.8892 0.6391
29.9000 19.9025 0.6394
29.9200 19.9158 0.6397
29.9400 19.9291 0.6405
29.9600 19.9425 0.6399
29.9800 19.9558 0.6413
30.0000 19.9692 0.6406
30.0200 19.9825 0.6387
30.0400 19.9959 0.6407
30.0600 20.0092 0.6413
30.0800 20.0225 0.6415
30.1000 20.0359 0.6426
30.1200 20.0492 0.6440
30.1400 20.0626 0.6434
30.1600 20.0759 0.6437
30.1800 20.0892 0.6459
30.2000 20.1025 0.6458
30.2200 20.1159 0.6443
30.2400 20.1291 0.6455
30.2600 20.1424 0.6443
30.2800 20.1557 0.6447
30.3000 20.1691 0.6457
30.3200 20.1825 0.6468
30.3400 20.1958 0.6461
30.3600 20.2092 0.6467
30.3800 20.2225 0.6456
30.4000 20.2359 0.6460
30.4200 20.2492 0.6475
30.4400 20.2625 0.6477
30.4600 20.2758 0.6466
30.4800 20.2892 0.6493
30.5000 20.3025 0.6488
30.5200 20.3158 0.6519
30.5400 20.3291 0.6511
30.5600 20.3425 0.6506
30.5800 20.3558 0.6481
30.6000 20.3692 0.6514
30.6200 20.3825 0.6508
30.6400 20.3958 0.6518
30.6600 20.4091 0.6531
30.6800 20.4225 0.6515
30.7000 20.4358 0.6507
30.7200 20.4491 0.6530
30.7400 20.4625 0.6540
30.7600 20.4759 0.6534
30.7800 20.4892 0.6561
30.8000 20.5025 0.6535
30.8200 20.5159 0.6535
30.8400 20.5292 0.6553
30.8600 20.5426 0.6534
30.8800 20.5559 0.6550
30.9000 20.5691 0.6562
30.9200 20.5825 0.6583
30.9400 20.5958 0.6576
30.9600 20.6091 0.6577
30.9800 20.6224 0.6559
31.0000 20.6358 0.6563
31.0200 20.6491 0.6570
31.0400 20.6625 0.6569
31.0600 20.6758 0.6572
31.0800 20.6892 0.6572
31.1000 20.7025 0.6588
31.1200 20.7159 0.6570
31.1400 20.7292 0.6603
31.1600 20.7425 0.6584
31.1800 20.7558 0.6609
31.2000 20.7692 0.6592
31.2200 20.7825 0.6611
31.2400 20.7959 0.6576
31.2600 20.8092 0.6623
31.2800 20.8225 0.6622
31.3000 20.8359 0.6620
31.3200 20.8492 0.6626
31.3400 20.8625 0.6639
31.3600 20.8758 0.6618
31.3800 20.8891 0.6623
31.4000 20.9025 0.6622
31.4200 20.9158 0.6634
31.4400 20.9291 0.6662
31.4600 20.9425 0.6679
31.4800 20.9559 0.6660
31.5000 20.9692 0.6668
31.5200 20.9825 0.6663
31.5400 20.9959 0.6661
31.5600 21.0092 0.6663
31.5800 21.0226 0.6673
31.6000 21.0359 0.6678
31.6200 21.0492 0.6699
31.6400 21.0625 0.6694
31.6600 21.0758 0.6695
31.6800 21.0891 0.6693
31.7000 21.1024 0.6707
31.7200 21.1157 0.6699
31.7400 21.1291 0.6717
31.7600 21.1425 0.6701
31.7800 21.1558 0.6694
31.8000 21.1691 0.6713
31.8200 21.1825 0.6728
31.8400 21.1959 0.6708
31.8600 21.2092 0.6721
31.8800 21.2225 0.6710
31.9000 21.2359 0.6711
31.9200 21.2492 0.6727
31.9400 21.2626 0.6723
31.9600 21.2759 0.6718
31.9800 21.2892 0.6747
32.0000 21.3025 0.6750
32.0200 21.3158 0.6758
32.0400 21.3292 0.6759
32.0600 21.3425 0.6773
32.0800 21.3558 0.6763
32.1000 21.3691 0.6781
32.1200 21.3825 0.6779
32.1400 21.3958 0.6780
32.1600 21.4091 0.6770
32.1800 21.4225 0.6779
32.2000 21.4359 0.6764
32.2200 21.4493 0.6762
32.2400 21.4626 0.6758
32.2600 21.4759 0.6773
32.2800 21.4892 0.6767
32.3000 21.5026 0.6793
32.3200 21.5159 0.6798
32.3400 21.5292 0.6810
32.3600 21.5425 0.6818
32.3800 21.5558 0.6789
32.4000 21.5692 0.6802
32.4200 21.5825 0.6816
32.4400 21.5958 0.6814
32.4600 21.6091 0.6827
32.4800 21.6225 0.6847
32.5000 21.6358 0.6843
32.5200 21.6491 0.6834
32.5400 21.6625 0.6840
32.5600 21.6759 0.6836
32.5800 21.6892 0.6839
32.6000 21.7026 0.6861
32.6200 21.7159 0.6853
32.6400 21.7292 0.6866
32.6600 21.7426 0.6848
32.6800 21.7559 0.6848
32.7000 21.7692 0.6850
32.7200 21.7825 0.6851
32.7400 21.7958 0.6858
32.7600 21.8092 0.6880
32.7800 21.8225 0.6880
32.8000 21.8358 0.6895
32.8200 21.8491 0.6886
32.8400 21.8625 0.6908
32.8600 21.8758 0.6894
32.8800 21.8891 0.6907
32.9000 21.9025 0.6903
32.9200 21.9158 0.6894
32.9400 21.9292 0.6897
32.9600 21.9425 0.6927
32.9800 21.9559 0.6933
33.0000 21.9692 0.6939
33.0200 21.9826 0.6910
33.0400 21.9959 0.6936
33.0600 22.0092 0.6919
33.0800 22.0225 0.6950
33.1000 22.0358 0.6931
33.1200 22.0492 0.6931
33.1400 22.0625 0.6936
33.1600 22.0757 0.6952
33.1800 22.0891 0.6946
33.2000 22.1025 0.6972
33.2200 22.1158 0.6961
33.2400 22.1291 0.6960
33.2600 22.1425 0.6967
33.2800 22.1558 0.6974
33.3000 22.1692 0.6962
33.3200 22.1825 0.6991
33.3400 22.1959 0.6984
33.3600 22.2092 0.6978
33.3800 22.2225 0.6984
33.4000 22.2359 0.6991
33.4200 22.2492 0.6993
33.4400 22.2625 0.6991
33.4600 22.2758 0.6980
33.4800 22.2892 0.6988
33.5000 22.3025 0.7024
33.5200 22.3158 0.7021
33.5400 22.3291 0.7042
33.5600 22.3425 0.7002
33.5800 22.3558 0.7020
33.6000 22.3691 0.7011
33.6200 22.3825 0.7023
33.6400 22.3959 0.7024
33.6600 22.4092 0.7047
33.6800 22.4226 0.7054
33.7000 22.4359 0.7062
33.7200 22.4492 0.7057
33.7400 22.4626 0.7063
33.7600 22.4759 0.7054
33.7800 22.4892 0.7061
33.8000 22.5025 0.7076
33.8200 22.5158 0.7082
33.8400 22.5291 0.7072
33.8600 22.5424 0.7104
33.8800 22.5558 0.7086
33.9000 22.5691 0.7081
33.9200 22.5825 0.7083
33.9400 22.5958 0.7085
33.9600 22.6092 0.7085
33.9800 22.6225 0.7126
34.0000 22.6359 0.7087
34.0200 22.6493 0.7115
34.0400 22.6626 0.7117
34.0600 22.6759 0.7107
34.0800 22.6892 0.7101
34.1000 22.7025 0.7108
34.1200 22.7159 0.7106
34.1400 22.7292 0.7122
34.1600 22.7425 0.7130
34.1800 22.7558 0.7140
34.2000 22.7691 0.7119
34.2200 22.7825 0.7139
34.2400 22.7958 0.7148
34.2600 22.8091 0.7175
34.2800 22.8225 0.7177
34.3000 22.8358 0.7165
34.3200 22.8491 0.7156
34.3400 22.8625 0.7171
34.3600 22.8759 0.7173
34.3800 22.8892 0.7161
34.4000 22.9025 0.7180
34.4200 22.9159 0.7178
34.4400 22.9292 0.7185
34.4600 22.9426 0.7203
34.4800 22.9559 0.7190
34.5000 22.9692 0.7188
34.5200 22.9825 0.7206
34.5400 22.9958 0.7198
34.5600 23.0092 0.7210
34.5800 23.0225 0.7229
34.6000 23.0358 0.7225
34.6200 23.0491 0.7220
34.6400 23.0625 0.7233
34.6600 23.0758 0.7231
34.6800 23.0891 0.7231
34.7000 23.1025 0.7221
34.7200 23.1159 0.7239
34.7400 23.1292 0.7236
34.7600 23.1425 0.7286
34.7800 23.1558 0.7245
34.8000 23.1692 0.7269
34.8200 23.1826 0.7251
34.8400 23.1959 0.7262
34.8600 23.2092 0.7259
34.8800 23.2225 0.7285
34.9000 23.2358 0.7270
34.9200 23.2492 0.7284
34.9400 23.2625 0.7279
34.9600 23.2758 0.7278
34.9800 23.2891 0.7273
35.0000 23.3025 0.7284
35.0200 23.3158 0.7296
35.0400 23.3291 0.7313
35.0600 23.3425 0.7321
35.0800 23.3558 0.7303
35.1000 23.3692 0.7316
35.1200 23.3825 0.7315
35.1400 23.3958 0.7320
35.1600 23.4092 0.7329
35.1800 23.4226 0.7308
35.2000 23.4359 0.7324
35.2200 23.4492 0.7328
35.2400 23.4625 0.7352
35.2600 23.4758 0.7346
35.2800 23.4892 0.7347
35.3000 23.5025 0.7347
35.3200 23.5158 0.7359
35.3400 23.5291 0.7363
35.3600 23.5425 0.7379
35.3800 23.5558 0.7365
35.4000 23.5692 0.7373
35.4200 23.5825 0.7378
35.4400 23.5959 0.7393
35.4600 23.6092 0.7400
35.4800 23.6226 0.7395
35.5000 23.6359 0.7400
35.5200 23.6492 0.7393
35.5400 23.6626 0.7404
35.5600 23.6759 0.7413
35.5800 23.6892 0.7409
35.6000 23.7024 0.7412
35.6200 23.7158 0.7419
35.6400 23.7292 0.7421
35.6600 23.7425 0.7405
35.6800 23.7558 0.7442
35.7000 23.7691 0.7448
35.7200 23.7824 0.7441
35.7400 23.7958 0.7440
35.7600 23.8091 0.7434
35.7800 23.8225 0.7453
35.8000 23.8358 0.7469
35.8200 23.8492 0.7462
35.8400 23.8626 0.7463
35.8600 23.8759 0.7463
35.8800 23.8892 0.7458
35.9000 23.9026 0.7478
35.9200 23.9159 0.7489
35.9400 23.9292 0.7481
35.9600 23.9425 0.7471
35.9800 23.9558 0.7493
36.0000 23.9692 0.7491
36.0200 23.9825 0.7504
36.0400 23.9958 0.7496
36.0600 24.0091 0.7504
36.0800 24.0224 0.7522
36.1000 24.0358 0.7529
36.1200 24.0491 0.7520
36.1400 24.0625 0.7530
36.1600 24.0758 0.7533
36.1800 24.0892 0.7531
36.2000 24.1026 0.7536
36.2200 24.1159 0.7550
36.2400 24.1292 0.7547
36.2600 24.1425 0.7558
36.2800 24.1559 0.7558
36.3000 24.1692 0.7568
36.3200 24.1825 0.7574
36.3400 24.1959 0.7586
36.3600 24.2092 0.7565
36.3800 24.2225 0.7566
36.4000 24.2358 0.7571
36.4200 24.2491 0.7592
36.4400 24.2625 0.7577
36.4600 24.2758 0.7599
36.4800 24.2891 0.7588
36.5000 24.3025 0.7587
36.5200 24.3158 0.7588
36.5400 24.3292 0.7611
36.5600 24.3425 0.7593
36.5800 24.3558 0.7630
36.6000 24.3691 0.7614
36.6200 24.3825 0.7636
36.6400 24.3959 0.7632
36.6600 24.4092 0.7641
36.6800 24.4225 0.7631
36.7000 24.4358 0.7636
36.7200 24.4492 0.7647
36.7400 24.4625 0.7627
36.7600 24.4758 0.7651
36.7800 24.4891 0.7667
36.8000 24.5024 0.7667
36.8200 24.5158 0.7672
36.8400 24.5291 0.7682
36.8600 24.5425 0.7670
36.8800 24.5558 0.7699
36.9000 24.5692 0.7688
36.9200 24.5826 0.7679
36.9400 24.5959 0.7704
36.9600 24.6092 0.7710
36.9800 24.6225 0.7687
37.0000 24.6359 0.7718
37.0200 24.6492 0.7725
37.0400 24.6625 0.7710
37.0600 24.6758 0.7709
37.0800 24.6892 0.7725
37.1000 24.7025 0.7719
37.1200 24.7158 0.7756
37.1400 24.7291 0.7749
37.1600 24.7424 0.7740
37.1800 24.7558 0.7738
37.2000 24.7691 0.7762
37.2200 24.7825 0.7751
37.2400 24.7958 0.7763
37.2600 24.8092 0.7771
37.2800 24.8225 0.7759
37.3000 24.8359 0.7769
37.3200 24.8492 0.7790
37.3400 24.8626 0.7764
37.3600 24.8759 0.7785
37.3800 24.8892 0.7788
37.4000 24.9025 0.7775
37.4200 24.9158 0.7795
37.4400 24.9292 0.7801
37.4600 24.9425 0.7798
37.4800 24.9558 0.7804
37.5000 24.9691 0.7823
37.5200 24.9824 0.7810
37.5400 24.9958 0.7815
37.5600 25.0091 0.7832
37.5800 25.0225 0.7820
37.6000 25.0358 0.7857
37.6200 25.0492 0.7862
37.6400 25.0626 0.7843
37.6600 25.0759 0.7844
37.6800 25.0892 0.7864
37.7000 25.1025 0.7869
37.7200 25.1159 0.7875
37.7400 25.1292 0.7872
37.7600 25.1425 0.7872
37.7800 25.1558 0.7888
37.8000 25.1692 0.7889
37.8200 25.1825 0.7882
37.8400 25.1958 0.7896
37.8600 25.2091 0.7915
37.8800 25.2225 0.7882
37.9000 25.2358 0.7901
37.9200 25.2491 0.7910
37.9400 25.2625 0.7906
37.9600 25.2758 0.7918
37.9800 25.2892 0.7923
38.0000 25.3025 0.7909
38.0200 25.3159 0.7917
38.0400 25.3292 0.7928
38.0600 25.3426 0.7922
38.0800 25.3559 0.7955
38.1000 25.3692 0.7959
38.1200 25.3825 0.7944
38.1400 25.3958 0.7969
38.1600 25.4091 0.7975
38.1800 25.4225 0.7952
38.2000 25.4358 0.7974
38.2200 25.4491 0.7974
38.2400 25.4624 0.7973
38.2600 25.4758 0.7992
38.2800 25.4891 0.7977
38.3000 25.5025 0.8004
38.3200 25.5158 0.7999
38.3400 25.5292 0.8024
38.3600 25.5425 0.7973
38.3800 25.5559 0.8014
38.4000 25.5692 0.8020
38.4200 25.5825 0.8011
38.4400 25.5959 0.8019
38.4600 25.6092 0.8036
38.4800 25.6225 0.8019
38.5000 25.6358 0.8035
38.5200 25.6492 0.8047
38.5400 25.6625 0.8019
38.5600 25.6758 0.8034
38.5800 25.6891 0.8041
38.6000 25.7024 0.8051
38.6200 25.7158 0.8060
38.6400 25.7291 0.8089
38.6600 25.7424 0.8059
38.6800 25.7558 0.8072
38.7000 25.7692 0.8085
38.7200 25.7826 0.8078
38.7400 25.7959 0.8099
38.7600 25.8092 0.8091
38.7800 25.8225 0.8112
38.8000 25.8359 0.8114
38.8200 25.8493 0.8123
38.8400 25.8626 0.8120
38.8600 25.8758 0.8117
38.8800 25.8892 0.8131
38.9000 25.9025 0.8127
38.9200 25.9158 0.8132
38.9400 25.9291 0.8147
38.9600 25.9424 0.8132
38.9800 25.9558 0.8152
39.0000 25.9691 0.8163
39.0200 25.9824 0.8151
39.0400 25.9958 0.8159
39.0600 26.0092 0.8157
39.0800 26.0226 0.8156
39.1000 26.0359 0.8178
39.1200 26.0492 0.8200
39.1400 26.0626 0.8188
39.1600 26.0759 0.8222
39.1800 26.0892 0.8236
39.2000 26.1025 0.8215
39.2200 26.1158 0.8216
39.2400 26.1292 0.8227
39.2600 26.1425 0.8203
39.2800 26.1558 0.8232
39.3000 26.1691 0.8234
39.3200 26.1825 0.8239
39.3400 26.1958 0.8248
39.3600 26.2092 0.8242
39.3800 26.2225 0.8252
39.4000 26.2358 0.8235
39.4200 26.2492 0.8270
39.4400 26.2626 0.8244
39.4600 26.2759 0.8274
39.4800 26.2892 0.8272
39.5000 26.3025 0.8258
39.5200 26.3159 0.8259
39.5400 26.3293 0.8280
39.5600 26.3425 0.8267
39.5800 26.3558 0.8291
39.6000 26.3691 0.8301
39.6200 26.3825 0.8301
39.6400 26.3958 0.8303
39.6600 26.4091 0.8320
39.6800 26.4224 0.8326
39.7000 26.4358 0.8316
39.7200 26.4491 0.8334
39.7400 26.4625 0.8317
39.7600 26.4758 0.8330
39.7800 26.4892 0.8334
39.8000 26.5026 0.8329
39.8200 26.5159 0.8344
39.8400 26.5292 0.8352
39.8600 26.5425 0.8353
39.8800 26.5559 0.8362
39.9000 26.5692 0.8386
39.9200 26.5825 0.8376
39.9400 26.5958 0.8379
39.9600 26.6091 0.8389
39.9800 26.6225 0.8361
40.0000 26.6358 0.8373
40.0200 26.6491 0.8406
40.0400 26.6625 0.8386
40.0600 26.6758 0.8401
40.0800 26.6891 0.8416
40.1000 26.7024 0.8422
40.1200 26.7158 0.8424
40.1400 26.7292 0.8424
40.1600 26.7426 0.8428
40.1800 26.7559 0.8438
40.2000 26.7692 0.8451
40.2200 26.7825 0.8443
40.2400 26.7959 0.8459
40.2600 26.8093 0.8477
40.2800 26.8226 0.8464
40.3000 26.8359 0.8459
40.3200 26.8492 0.8491
40.3400 26.8625 0.8489
40.3600 26.8758 0.8489
40.3800 26.8891 0.8498
40.4000 26.9024 0.8497
40.4200 26.9158 0.8504
40.4400 26.9291 0.8515
40.4600 26.9425 0.8521
40.4800 26.9558 0.8505
40.5000 26.9692 0.8527
40.5200 26.9825 0.8514
40.5400 26.9959 0.8522
40.5600 27.0092 0.8563
40.5800 27.0225 0.8539
40.6000 27.0359 0.8542
40.6200 27.0492 0.8535
40.6400 27.0625 0.8545
40.6600 27.0758 0.8575
40.6800 27.0892 0.8570
40.7000 27.1025 0.8565
40.7200 27.1158 0.8563
40.7400 27.1291 0.8594
40.7600 27.1424 0.8574
40.7800 27.1558 0.8596
40.8000 27.1691 0.8601
40.8200 27.1824 0.8595
40.8400 27.1958 0.8596
40.8600 27.2092 0.8620
40.8800 27.2225 0.8612
40.9000 27.2359 0.8610
40.9200 27.2492 0.8628
40.9400 27.2625 0.8634
40.9600 27.2759 0.8612
40.9800 27.2893 0.8631
41.0000 27.3025 0.8648
41.0200 27.3158 0.8661
41.0400 27.3291 0.8671
41.0600 27.3425 0.8652
41.0800 27.3558 0.8655
41.1000 27.3691 0.8678
41.1200 27.3825 0.8674
41.1400 27.3958 0.8684
41.1600 27.4092 0.8698
41.1800 27.4225 0.8687
41.2000 27.4358 0.8692
41.2200 27.4492 0.8722
41.2400 27.4626 0.8723
41.2600 27.4759 0.8738
41.2800 27.4892 0.8733
41.3000 27.5025 0.8723
41.3200 27.5159 0.8697
41.3400 27.5292 0.8736
41.3600 27.5425 0.8746
41.3800 27.5558 0.8726
41.4000 27.5691 0.8746
41.4200 27.5825 0.8733
41.4400 27.5958 0.8745
41.4600 27.6091 0.8769
41.4800 27.6224 0.8788
41.5000 27.6358 0.8764
41.5200 27.6492 0.8791
41.5400 27.6625 0.8789
41.5600 27.6758 0.8787
41.5800 27.6892 0.8818
41.6000 27.7026 0.8807
41.6200 27.7159 0.8805
41.6400 27.7292 0.8824
41.6600 27.7425 0.8824
41.6800 27.7559 0.8815
41.7000 27.7693 0.8834
41.7200 27.7826 0.8840
41.7400 27.7958 0.8835
41.7600 27.8091 0.8859
41.7800 27.8225 0.8855
41.8000 27.8358 0.8869
41.8200 27.8491 0.8882
41.8400 27.8624 0.8875
41.8600 27.8758 0.8859
41.8800 27.8891 0.8874
41.9000 27.9025 0.8863
41.9200 27.9158 0.8874
41.9400 27.9292 0.8895
41.9600 27.9425 0.8894
41.9800 27.9559 0.8901
42.0000 27.9692 0.8911
42.0200 27.9825 0.8922
42.0400 27.9959 0.8921
42.0600 28.0092 0.8945
42.0800 28.0225 0.8949
42.1000 28.0358 0.8941
42.1200 28.0491 0.8966
42.1400 28.0625 0.8966
42.1600 28.0759 0.8942
42.1800 28.0892 0.8973
42.2000 28.1025 0.8956
42.2200 28.1158 0.8969
42.2400 28.1291 0.8981
42.2600 28.1425 0.8982
42.2800 28.1558 0.8984
42.3000 28.1691 0.8981
42.3200 28.1825 0.8978
42.3400 28.1959 0.8979
42.3600 28.2092 0.9026
42.3800 28.2225 0.9020
42.4000 28.2359 0.9003
42.4200 28.2492 0.9033
42.4400 28.2626 0.9036
42.4600 28.2759 0.9016
42.4800 28.2892 0.9042
42.5000 28.3025 0.9051
42.5200 28.3158 0.9057
42.5400 28.3291 0.9068
42.5600 28.3424 0.9072
42.5800 28.3558 0.9046
42.6000 28.3691 0.9075
42.6200 28.3825 0.9087
42.6400 28.3958 0.9072
42.6600 28.4092 0.9118
42.6800 28.4226 0.9109
42.7000 28.4359 0.9105
42.7200 28.4492 0.9121
42.7400 28.4625 0.9113
42.7600 28.4759 0.9113
42.7800 28.4892 0.9124
42.8000 28.5025 0.9137
42.8200 28.5158 0.9127
42.8400 28.5291 0.9151
42.8600 28.5425 0.9139
42.8800 28.5559 0.9140
42.9000 28.5692 0.9170
42.9200 28.5824 0.9176
42.9400 28.5958 0.9178
42.9600 28.6091 0.9189
42.9800 28.6224 0.9171
43.0000 28.6358 0.9168
43.0200 28.6491 0.9186
43.0400 28.6625 0.9207
43.0600 28.6759 0.9205
43.0800 28.6892 0.9230
43.1000 28.7026 0.9234
43.1200 28.7159 0.9218
43.1400 28.7292 0.9223
43.1600 28.7425 0.9230
43.1800 28.7558 0.9215
43.2000 28.7691 0.9242
43.2200 28.7824 0.9257
43.2400 28.7958 0.9222
43.2600 28.8091 0.9264
43.2800 28.8224 0.9279
43.3000 28.8358 0.9272
43.3200 28.8491 0.9268
43.3400 28.8625 0.9264
43.3600 28.8758 0.9292
43.3800 28.8892 0.9294
43.4000 28.9026 0.9298
43.4200 28.9159 0.9287
43.4400 28.9292 0.9311
43.4600 28.9425 0.9319
43.4800 28.9559 0.9308
43.5000 28.9692 0.9334
43.5200 28.9826 0.9338
43.5400 28.9959 0.9334
43.5600 29.0092 0.9343
43.5800 29.0225 0.9354
43.6000 29.0359 0.9346
43.6200 29.0492 0.9370
43.6400 29.0625 0.9358
43.6600 29.0758 0.9377
43.6800 29.0891 0.9386
43.7000 29.1025 0.9417
43.7200 29.1158 0.9381
43.7400 29.1291 0.9427
43.7600 29.1425 0.9423
43.7800 29.1559 0.9418
43.8000 29.1692 0.9428
43.8200 29.1825 0.9447
43.8400 29.1958 0.9418
43.8600 29.2092 0.9436
43.8800 29.2226 0.9451
43.9000 29.2359 0.9448
43.9200 29.2492 0.9472
43.9400 29.2625 0.9478
43.9600 29.2759 0.9472
43.9800 29.2892 0.9497
44.0000 29.3025 0.9494
44.0200 29.3158 0.9485
44.0400 29.3291 0.9511
44.0600 29.3424 0.9506
44.0800 29.3558 0.9493
44.1000 29.3691 0.9516
44.1200 29.3825 0.9529
44.1400 29.3959 0.9517
44.1600 29.4092 0.9511
44.1800 29.4225 0.9542
44.2000 29.4359 0.9528
44.2200 29.4492 0.9554
44.2400 29.4626 0.9562
44.2600 29.4759 0.9537
44.2800 29.4892 0.9566
44.3000 29.5025 0.9592
44.3200 29.5159 0.9564
44.3400 29.5292 0.9575
44.3600 29.5425 0.9601
44.3800 29.5558 0.9587
44.4000 29.5691 0.9610
44.4200 29.5824 0.9609
44.4400 29.5958 0.9609
44.4600 29.6091 0.9602
44.4800 29.6225 0.9634
44.5000 29.6359 0.9609
44.5200 29.6492 0.9651
44.5400 29.6625 0.9666
44.5600 29.6759 0.9638
44.5800 29.6892 0.9656
44.6000 29.7026 0.9677
44.6200 29.7159 0.9660
44.6400 29.7292 0.9684
44.6600 29.7425 0.9672
44.6800 29.7559 0.9681
44.7000 29.7692 0.9690
44.7200 29.7825 0.9721
44.7400 29.7958 0.9698
44.7600 29.8091 0.9718
44.7800 29.8225 0.9721
44.8000 29.8358 0.9725
44.8200 29.8491 0.9728
44.8400 29.8625 0.9741
44.8600 29.8759 0.9726
44.8800 29.8892 0.9759
44.9000 29.9025 0.9785
44.9200 29.9158 0.9767
44.9400 29.9292 0.9770
44.9600 29.9426 0.9773
44.9800 29.9559 0.9783
45.0000 29.9692 0.9807
45.0200 29.9825 0.9811
45.0400 29.9958 0.9795
45.0600 30.0092 0.9810
45.0800 30.0225 0.9828
45.1000 30.0358 0.9797
45.1200 30.0491 0.9825
45.1400 30.0625 0.9838
45.1600 30.0758 0.9837
45.1800 30.0891 0.9836
45.2000 30.1025 0.9868
45.2200 30.1159 0.9841
45.2400 30.1292 0.9862
45.2600 30.1425 0.9866
45.2800 30.1559 0.9882
45.3000 30.1692 0.9875
45.3200 30.1826 0.9902
45.3400 30.1959 0.9883
45.3600 30.2091 0.9910
45.3800 30.2225 0.9937
45.4000 30.2358 0.9920
45.4200 30.2492 0.9943
45.4400 30.2624 0.9958
45.4600 30.2758 0.9943
45.4800 30.2891 0.9928
45.5000 30.3025 0.9961
45.5200 30.3158 0.9954
45.5400 30.3291 0.9951
45.5600 30.3425 0.9979
45.5800 30.3559 0.9968
45.6000 30.3692 0.9975
45.6200 30.3825 1.0001
45.6400 30.3958 1.0009
45.6600 30.4092 1.0011
45.6800 30.4226 1.0020
45.7000 30.4359 1.0005
45.7200 30.4492 1.0009
45.7400 30.4625 1.0021
45.7600 30.4759 1.0026
45.7800 30.4892 1.0047
45.8000 30.5025 1.0057
45.8200 30.5158 1.0067
45.8400 30.5291 1.0058
45.8600 30.5425 1.0090
45.8800 30.5558 1.0046
45.9000 30.5691 1.0090
45.9200 30.5825 1.0103
45.9400 30.5959 1.0110
45.9600 30.6093 1.0106
45.9800 30.6226 1.0132
46.0000 30.6359 1.0110
46.0200 30.6492 1.0130
46.0400 30.6626 1.0133
46.0600 30.6759 1.0134
46.0800 30.6892 1.0142
46.1000 30.7025 1.0173
46.1200 30.7158 1.0148
46.1400 30.7292 1.0170
46.1600 30.7425 1.0194
46.1800 30.7558 1.0189
46.2000 30.7691 1.0189
46.2200 30.7824 1.0213
46.2400 30.7958 1.0212
46.2600 30.8091 1.0235
46.2800 30.8225 1.0233
46.3000 30.8359 1.0232
46.3200 30.8492 1.0231
46.3400 30.8626 1.0248
46.3600 30.8759 1.0229
46.3800 30.8892 1.0232
46.4000 30.9026 1.0257
46.4200 30.9159 1.0273
46.4400 30.9292 1.0279
46.4600 30.9425 1.0302
46.4800 30.9558 1.0289
46.5000 30.9692 1.0293
46.5200 30.9825 1.0323
46.5400 30.9958 1.0295
46.5600 31.0091 1.0298
46.5800 31.0225 1.0310
46.6000 31.0358 1.0328
46.6200 31.0491 1.0324
46.6400 31.0625 1.0358
46.6600 31.0759 1.0339
46.6800 31.0892 1.0334
46.7000 31.1025 1.0368
46.7200 31.1159 1.0376
46.7400 31.1292 1.0376
46.7600 31.1426 1.0383
46.7800 31.1559 1.0393
46.8000 31.1692 1.0406
46.8200 31.1825 1.0435
46.8400 31.1958 1.0416
46.8600 31.2091 1.0423
46.8800 31.2225 1.0437
46.9000 31.2358 1.0444
46.9200 31.2491 1.0434
46.9400 31.2624 1.0463
46.9600 31.2758 1.0471
46.9800 31.2891 1.0451
47.0000 31.3025 1.0492
47.0200 31.3159 1.0481
47.0400 31.3293 1.0487
47.0600 31.3426 1.0505
47.0800 31.3559 1.0517
47.1000 31.3692 1.0507
47.1200 31.3826 1.0546
47.1400 31.3959 1.0520
47.1600 31.4092 1.0535
47.1800 31.4225 1.0544
47.2000 31.4358 1.0545
47.2200 31.4492 1.0543
47.2400 31.4625 1.0595
47.2600 31.4758 1.0560
47.2800 31.4891 1.0588
47.3000 31.5025 1.0594
47.3200 31.5158 1.0578
47.3400 31.5291 1.0599
47.3600 31.5425 1.0613
47.3800 31.5559 1.0610
47.4000 31.5693 1.0622
47.4200 31.5826 1.0649
47.4400 31.5959 1.0625
47.4600 31.6092 1.0619
47.4800 31.6226 1.0658
47.5000 31.6359 1.0645
47.5200 31.6492 1.0676
47.5400 31.6625 1.0681
47.5600 31.6758 1.0687
47.5800 31.6892 1.0692
47.6000 31.7025 1.0703
47.6200 31.7158 1.0685
47.6400 31.7291 1.0701
47.6600 31.7424 1.0714
47.6800 31.7558 1.0732
47.7000 31.7691 1.0730
47.7200 31.7825 1.0752
47.7400 31.7959 1.0735
47.7600 31.8092 1.0724
47.7800 31.8225 1.0766
47.8000 31.8359 1.0763
47.8200 31.8492 1.0775
47.8400 31.8625 1.0798
47.8600 31.8759 1.0804
47.8800 31.8892 1.0796
47.9000 31.9025 1.0817
47.9200 31.9158 1.0808
47.9400 31.9292 1.0813
47.9600 31.9425 1.0822
47.9800 31.9558 1.0837
48.0000 31.9691 1.0840
48.0200 31.9824 1.0862
48.0400 31.9958 1.0854
48.0600 32.0091 1.0860
48.0800 32.0225 1.0902
48.1000 32.0358 1.0888
48.1200 32.0492 1.0908
48.1400 32.0625 1.0919
48.1600 32.0758 1.0906
48.1800 32.0892 1.0894
48.2000 32.1026 1.0912
48.2200 32.1159 1.0927
48.2400 32.1292 1.0943
48.2600 32.1425 1.0967
48.2800 32.1558 1.0965
48.3000 32.1692 1.0968
48.3200 32.1825 1.0982
48.3400 32.1958 1.0990
48.3600 32.2091 1.0989
48.3800 32.2225 1.1010
48.4000 32.2358 1.1000
48.4200 32.2491 1.1008
48.4400 32.2625 1.1004
48.4600 32.2759 1.1024
48.4800 32.2893 1.1028
48.5000 32.3026 1.1064
48.5200 32.3159 1.1077
48.5400 32.3292 1.1065
48.5600 32.3426 1.1078
48.5800 32.3559 1.1078
48.6000 32.3692 1.1079
48.6200 32.3825 1.1105
48.6400 32.3958 1.1092
48.6600 32.4091 1.1113
48.6800 32.4225 1.1128
48.7000 32.4358 1.1143
48.7200 32.4491 1.1131
48.7400 32.4625 1.1150
48.7600 32.4758 1.1150
48.7800 32.4892 1.1146
48.8000 32.5025 1.1165
48.8200 32.5159 1.1182
48.8400 32.5292 1.1181
48.8600 32.5425 1.1211
48.8800 32.5558 1.1214
48.9000 32.5692 1.1206
48.9200 32.5826 1.1212
48.9400 32.5959 1.1232
48.9600 32.6092 1.1240
48.9800 32.6225 1.1256
49.0000 32.6358 1.1255
49.0200 32.6492 1.1275
49.0400 32.6625 1.1275
49.0600 32.6758 1.1275
49.0800 32.6891 1.1272
49.1000 32.7025 1.1302
49.1200 32.7158 1.1295
49.1400 32.7291 1.1301
49.1600 32.7425 1.1322
49.1800 32.7559 1.1339
49.2000 32.7692 1.1328
49.2200 32.7826 1.1351
49.2400 32.7958 1.1354
49.2600 32.8092 1.1339
49.2800 32.8225 1.1349
49.3000 32.8359 1.1367
49.3200 32.8492 1.1368
49.3400 32.8625 1.1405
49.3600 32.8758 1.1416
49.3800 32.8892 1.1401
49.4000 32.9025 1.1436
49.4200 32.9158 1.1430
49.4400 32.9291 1.1436
49.4600 32.9424 1.1457
49.4800 32.9558 1.1469
49.5000 32.9691 1.1456
49.5200 32.9825 1.1465
49.5400 32.9958 1.1466
49.5600 33.0092 1.1493
49.5800 33.0225 1.1499
49.6000 33.0358 1.1532
49.6200 33.0492 1.1506
49.6400 33.0625 1.1542
49.6600 33.0759 1.1543
49.6800 33.0892 1.1539
49.7000 33.1025 1.1555
49.7200 33.1158 1.1579
49.7400 33.1292 1.1566
49.7600 33.1425 1.1586
49.7800 33.1558 1.1589
49.8000 33.1691 1.1599
49.8200 33.1824 1.1614
49.8400 33.1958 1.1633
49.8600 33.2091 1.1619
49.8800 33.2225 1.1626
49.9000 33.2359 1.1654
49.9200 33.2493 1.1650
49.9400 33.2626 1.1675
49.9600 33.2759 1.1671
49.9800 33.2892 1.1671
50.0000 33.3026 1.1693
50.0200 33.3159 1.1697
50.0400 33.3292 1.1722
50.0600 33.3425 1.1726
50.0800 33.3558 1.1757
50.1000 33.3692 1.1745
50.1200 33.3825 1.1749
50.1400 33.3958 1.1765
50.1600 33.4091 1.1751
50.1800 33.4224 1.1764
50.2000 33.4358 1.1785
50.2200 33.4491 1.1798
50.2400 33.4624 1.1805
50.2600 33.4758 1.1809
50.2800 33.4892 1.1802
50.3000 33.5026 1.1819
50.3200 33.5159 1.1828
50.3400 33.5292 1.1835
50.3600 33.5425 1.1839
50.3800 33.5559 1.1868
50.4000 33.5692 1.1851
50.4200 33.5825 1.1869
50.4400 33.5958 1.1889
50.4600 33.6091 1.1889
50.4800 33.6225 1.1910
50.5000 33.6358 1.1919
50.5200 33.6491 1.1926
50.5400 33.6624 1.1933
50.5600 33.6758 1.1956
50.5800 33.6892 1.1966
50.6000 33.7025 1.1973
50.6200 33.7158 1.1990
50.6400 33.7292 1.1979
50.6600 33.7425 1.1984
50.6800 33.7559 1.2005
50.7000 33.7692 1.2007
50.7200 33.7825 1.2015
50.7400 33.7959 1.2036
50.7600 33.8092 1.2039
50.7800 33.8225 1.2076
50.8000 33.8358 1.2050
50.8200 33.8492 1.2067
50.8400 33.8625 1.2058
50.8600 33.8758 1.2101
50.8800 33.8891 1.2102
50.9000 33.9025 1.2118
50.9200 33.9158 1.2121
50.9400 33.9291 1.2146
50.9600 33.9425 1.2135
50.9800 33.9558 1.2160
51.0000 33.9692 1.2139
51.0200 33.9825 1.2155
51.0400 33.9958 1.2158
51.0600 34.0092 1.2173
51.0800 34.0225 1.2187
51.1000 34.0359 1.2193
51.1200 34.0492 1.2211
51.1400 34.0625 1.2221
51.1600 34.0759 1.2249
51.1800 34.0892 1.2243
51.2000 34.1025 1.2262
51.2200 34.1158 1.2279
51.2400 34.1291 1.2291
51.2600 34.1424 1.2294
51.2800 34.1558 1.2294
51.3000 34.1691 1.2280
51.3200 34.1825 1.2314
51.3400 34.1958 1.2322
51.3600 34.2092 1.2321
51.3800 34.2226 1.2333
51.4000 34.2359 1.2352
51.4200 34.2492 1.2355
51.4400 34.2625 1.2361
51.4600 34.2759 1.2382
51.4800 34.2892 1.2373
51.5000 34.3025 1.2388
51.5200 34.3158 1.2422
51.5400 34.3292 1.2422
51.5600 34.3425 1.2439
51.5800 34.3558 1.2441
51.6000 34.3691 1.2453
51.6200 34.3824 1.2455
51.6400 34.3958 1.2476
51.6600 34.4091 1.2483
51.6800 34.4224 1.2487
51.7000 34.4358 1.2499
51.7200 34.4492 1.2515
51.7400 34.4625 1.2517
51.7600 34.4759 1.2544
51.7800 34.4892 1.2543
51.8000 34.5026 1.2561
51.8200 34.5159 1.2578
51.8400 34.5292 1.2564
51.8600 34.5425 1.2566
51.8800 34.5558 1.2577
51.9000 34.5692 1.2611
51.9200 34.5825 1.2604
51.9400 34.5958 1.2616
51.9600 34.6091 1.2636
51.9800 34.6224 1.2659
52.0000 34.6358 1.2664
52.0200 34.6491 1.2671
52.0400 34.6625 1.2681
52.0600 34.6758 1.2689
52.0800 34.6892 1.2699
52.1000 34.7026 1.2709
52.1200 34.7159 1.2721
52.1400 34.7292 1.2727
52.1600 34.7425 1.2750
52.1800 34.7559 1.2738
52.2000 34.7692 1.2755
52.2200 34.7825 1.2772
52.2400 34.7958 1.2793
52.2600 34.8092 1.2812
52.2800 34.8225 1.2827
52.3000 34.8359 1.2835
52.3200 34.8492 1.2836
52.3400 34.8625 1.2826
52.3600 34.8758 1.2856
52.3800 34.8891 1.2865
52.4000 34.9025 1.2891
52.4200 34.9158 1.2883
52.4400 34.9292 1.2885
52.4600 34.9425 1.2895
52.4800 34.9559 1.2901
52.5000 34.9692 1.2920
52.5200 34.9825 1.2920
52.5400 34.9959 1.2954
52.5600 35.0092 1.2942
52.5800 35.0225 1.2966
52.6000 35.0358 1.2992
52.6200 35.0491 1.2992
52.6400 35.0625 1.3018
52.6600 35.0758 1.3021
52.6800 35.0891 1.3028
52.7000 35.1024 1.3024
52.7200 35.1158 1.3040
52.7400 35.1292 1.3037
52.7600 35.1425 1.3073
52.7800 35.1558 1.3077
52.8000 35.1692 1.3092
52.8200 35.1826 1.3079
52.8400 35.1959 1.3104
52.8600 35.2092 1.3110
52.8800 35.2225 1.3117
52.9000 35.2359 1.3150
52.9200 35.2492 1.3160
52.9400 35.2625 1.3176
52.9600 35.2758 1.3174
52.9800 35.2892 1.3197
53.0000 35.3025 1.3198
53.0200 35.3158 1.3225
53.0400 35.3291 1.3226
53.0600 35.3424 1.3235
53.0800 35.3558 1.3252
53.1000 35.3691 1.3260
53.1200 35.3824 1.3255
53.1400 35.3958 1.3283
53.1600 35.4092 1.3285
53.1800 35.4226 1.3295
53.2000 35.4359 1.3299
53.2200 35.4492 1.3318
53.2400 35.4625 1.3335
53.2600 35.4759 1.3366
53.2800 35.4892 1.3360
53.3000 35.5026 1.3385
53.3200 35.5158 1.3381
53.3400 35.5292 1.3397
53.3600 35.5425 1.3401
53.3800 35.5558 1.3428
53.4000 35.5691 1.3435
53.4200 35.5824 1.3441
53.4400 35.5958 1.3449
53.4600 35.6091 1.3459
53.4800 35.6224 1.3466
53.5000 35.6358 1.3479
53.5200 35.6492 1.3512
53.5400 35.6626 1.3515
53.5600 35.6759 1.3527
53.5800 35.6892 1.3537
53.6000 35.7025 1.3557
53.6200 35.7159 1.3566
53.6400 35.7293 1.3575
53.6600 35.7426 1.3570
53.6800 35.7558 1.3610
53.7000 35.7691 1.3606
53.7200 35.7825 1.3619
53.7400 35.7958 1.3634
53.7600 35.8091 1.3638
53.7800 35.8224 1.3656
53.8000 35.8358 1.3643
53.8200 35.8492 1.3681
53.8400 35.8625 1.3695
53.8600 35.8758 1.3705
53.8800 35.8892 1.3722
53.9000 35.9025 1.3715
53.9200 35.9159 1.3728
53.9400 35.9292 1.3748
53.9600 35.9425 1.3762
53.9800 35.9559 1.3773
54.0000 35.9692 1.3802
54.0200 35.9825 1.3805
54.0400 35.9958 1.3835
54.0600 36.0091 1.3846
54.0800 36.0225 1.3834
54.1000 36.0358 1.3847
54.1200 36.0491 1.3871
54.1400 36.0624 1.3863
54.1600 36.0758 1.3880
54.1800 36.0891 1.3906
54.2000 36.1025 1.3911
54.2200 36.1158 1.3930
54.2400 36.1292 1.3929
54.2600 36.1426 1.3945
54.2800 36.1559 1.3954
54.3000 36.1692 1.3978
54.3200 36.1825 1.3985
54.3400 36.1959 1.4006
54.3600 36.2092 1.4033
54.3800 36.2225 1.4036
54.4000 36.2358 1.4027
54.4200 36.2491 1.4065
54.4400 36.2625 1.4073
54.4600 36.2758 1.4076
54.4800 36.2891 1.4090
54.5000 36.3025 1.4105
54.5200 36.3158 1.4113
54.5400 36.3291 1.4116
54.5600 36.3425 1.4146
54.5800 36.3558 1.4151
54.6000 36.3691 1.4196
54.6200 36.3825 1.4203
54.6400 36.3959 1.4193
54.6600 36.4092 1.4194
54.6800 36.4225 1.4217
54.7000 36.4359 1.4233
54.7200 36.4493 1.4241
54.7400 36.4626 1.4258
54.7600 36.4759 1.4258
54.7800 36.4892 1.4280
54.8000 36.5025 1.4318
54.8200 36.5159 1.4310
54.8400 36.5291 1.4335
54.8600 36.5424 1.4346
54.8800 36.5557 1.4359
54.9000 36.5691 1.4379
54.9200 36.5825 1.4393
54.9400 36.5958 1.4392
54.9600 36.6091 1.4417
54.9800 36.6225 1.4412
55.0000 36.6359 1.4419
55.0200 36.6492 1.4430
55.0400 36.6625 1.4449
55.0600 36.6759 1.4458
55.0800 36.6892 1.4469
55.1000 36.7026 1.4498
55.1200 36.7158 1.4517
55.1400 36.7292 1.4523
55.1600 36.7425 1.4522
55.1800 36.7559 1.4537
55.2000 36.7691 1.4552
55.2200 36.7824 1.4574
55.2400 36.7957 1.4591
55.2600 36.8091 1.4625
55.2800 36.8224 1.4633
55.3000 36.8358 1.4622
55.3200 36.8492 1.4654
55.3400 36.8625 1.4664
55.3600 36.8759 1.4673
55.3800 36.8892 1.4688
55.4000 36.9026 1.4711
55.4200 36.9159 1.4716
55.4400 36.9293 1.4745
55.4600 36.9426 1.4752
55.4800 36.9559 1.4755
55.5000 36.9692 1.4775
55.5200 36.9825 1.4775
55.5400 36.9958 1.4791
55.5600 37.0091 1.4801
55.5800 37.0224 1.4820
55.6000 37.0358 1.4815
55.6200 37.0492 1.4863
55.6400 37.0625 1.4871
55.6600 37.0758 1.4903
55.6800 37.0892 1.4906
55.7000 37.1025 1.4911
55.7200 37.1159 1.4922
55.7400 37.1292 1.4948
55.7600 37.1425 1.4944
55.7800 37.1559 1.4978
55.8000 37.1692 1.4986
55.8200 37.1825 1.5010
55.8400 37.1958 1.5016
55.8600 37.2091 1.5025
55.8800 37.2224 1.5040
55.9000 37.2358 1.5047
55.9200 37.2491 1.5076
55.9400 37.2624 1.5087
55.9600 37.2758 1.5090
55.9800 37.2891 1.5126
56.0000 37.3025 1.5133
56.0200 37.3158 1.5146
56.0400 37.3292 1.5170
56.0600 37.3425 1.5185
56.0800 37.3559 1.5174
56.1000 37.3692 1.5213
56.1200 37.3825 1.5213
56.1400 37.3959 1.5241
56.1600 37.4092 1.5229
56.1800 37.4226 1.5280
56.2000 37.4359 1.5271
56.2200 37.4491 1.5298
56.2400 37.4625 1.5293
56.2600 37.4758 1.5320
56.2800 37.4891 1.5349
56.3000 37.5024 1.5357
56.3200 37.5158 1.5380
56.3400 37.5291 1.5376
56.3600 37.5425 1.5393
56.3800 37.5558 1.5408
56.4000 37.5692 1.5427
56.4200 37.5825 1.5438
56.4400 37.5959 1.5446
56.4600 37.6092 1.5467
56.4800 37.6225 1.5473
56.5000 37.6359 1.5472
56.5200 37.6492 1.5502
56.5400 37.6626 1.5519
56.5600 37.6758 1.5540
56.5800 37.6891 1.5586
56.6000 37.7025 1.5584
56.6200 37.7159 1.5601
56.6400 37.7292 1.5602
56.6600 37.7425 1.5609
56.6800 37.7558 1.5645
56.7000 37.7691 1.5658
56.7200 37.7825 1.5707
56.7400 37.7958 1.5695
56.7600 37.8092 1.5723
56.7800 37.8225 1.5727
56.8000 37.8359 1.5730
56.8200 37.8492 1.5733
56.8400 37.8625 1.5784
56.8600 37.8759 1.5789
56.8800 37.8892 1.5813
56.9000 37.9026 1.5811
56.9200 37.9159 1.5825
56.9400 37.9292 1.5840
56.9600 37.9425 1.5869
56.9800 37.9558 1.5851
57.0000 37.9691 1.5889
57.0200 37.9824 1.5906
57.0400 37.9957 1.5906
57.0600 38.0091 1.5920
57.0800 38.0225 1.5935
57.1000 38.0358 1.5939
57.1200 38.0492 1.5987
57.1400 38.0626 1.6010
57.1600 38.0759 1.6027
57.1800 38.0892 1.6028
57.2000 38.1025 1.6061
57.2200 38.1159 1.6079
57.2400 38.1292 1.6079
57.2600 38.1426 1.6104
57.2800 38.1558 1.6112
57.3000 38.1691 1.6148
57.3200 38.1825 1.6158
57.3400 38.1958 1.6154
57.3600 38.2091 1.6172
57.3800 38.2224 1.6192
57.4000 38.2358 1.6179
57.4200 38.2491 1.6222
57.4400 38.2624 1.6272
57.4600 38.2758 1.6273
57.4800 38.2891 1.6286
57.5000 38.3025 1.6310
57.5200 38.3159 1.6292
57.5400 38.3292 1.6310
57.5600 38.3425 1.6350
57.5800 38.3559 1.6355
57.6000 38.3692 1.6378
57.6200 38.3826 1.6384
57.6400 38.3959 1.6415
57.6600 38.4092 1.6431
57.6800 38.4225 1.6447
57.7000 38.4358 1.6462
57.7200 38.4491 1.6476
57.7400 38.4624 1.6512
57.7600 38.4758 1.6541
57.7800 38.4891 1.6534
57.8000 38.5025 1.6563
57.8200 38.5158 1.6556
57.8400 38.5292 1.6566
57.8600 38.5425 1.6592
57.8800 38.5559 1.6612
57.9000 38.5692 1.6634
57.9200 38.5825 1.6665
57.9400 38.5958 1.6665
57.9600 38.6092 1.6695
57.9800 38.6226 1.6701
58.0000 38.6359 1.6733
58.0200 38.6492 1.6741
58.0400 38.6625 1.6754
58.0600 38.6759 1.6758
58.0800 38.6892 1.6776
58.1000 38.7025 1.6815
58.1200 38.7158 1.6816
58.1400 38.7292 1.6832
58.1600 38.7425 1.6848
58.1800 38.7558 1.6877
58.2000 38.7691 1.6889
58.2200 38.7825 1.6929
58.2400 38.7959 1.6922
58.2600 38.8092 1.6928
58.2800 38.8225 1.6970
58.3000 38.8358 1.6991
58.3200 38.8492 1.6992
58.3400 38.8625 1.7024
58.3600 38.8759 1.7036
58.3800 38.8892 1.7051
58.4000 38.9025 1.7059
58.4200 38.9159 1.7075
58.4400 38.9292 1.7092
58.4600 38.9425 1.7113
58.4800 38.9558 1.7141
58.5000 38.9691 1.7146
58.5200 38.9825 1.7160
58.5400 38.9958 1.7190
58.5600 39.0091 1.7182
58.5800 39.0225 1.7231
58.6000 39.0359 1.7240
58.6200 39.0492 1.7248
58.6400 39.0625 1.7283
58.6600 39.0759 1.7316
58.6800 39.0892 1.7324
58.7000 39.1026 1.7353
58.7200 39.1159 1.7347
58.7400 39.1292 1.7376
58.7600 39.1425 1.7394
58.7800 39.1558 1.7422
58.8000 39.1692 1.7434
58.8200 39.1825 1.7468
58.8400 39.1958 1.7477
58.8600 39.2091 1.7476
58.8800 39.2225 1.7528
58.9000 39.2358 1.7543
58.9200 39.2491 1.7542
58.9400 39.2625 1.7572
58.9600 39.2759 1.7578
58.9800 39.2892 1.7595
59.0000 39.3026 1.7632
59.0200 39.3159 1.7632
59.0400 39.3292 1.7654
59.0600 39.3426 1.7680
59.0800 39.3559 1.7704
59.1000 39.3692 1.7719
59.1200 39.3825 1.7740
59.1400 39.3958 1.7746
59.1600 39.4092 1.7749
59.1800 39.4225 1.7790
59.2000 39.4358 1.7789
59.2200 39.4491 1.7833
59.2400 39.4625 1.7862
59.2600 39.4758 1.7869
59.2800 39.4891 1.7866
59.3000 39.5025 1.7872
59.3200 39.5159 1.7907
59.3400 39.5292 1.7913
59.3600 39.5426 1.7959
59.3800 39.5559 1.7979
59.4000 39.5692 1.7975
59.4200 39.5826 1.8007
59.4400 39.5959 1.8043
59.4600 39.6092 1.8043
59.4800 39.6225 1.8096
59.5000 39.6358 1.8089
59.5200 39.6492 1.8087
59.5400 39.6625 1.8099
59.5600 39.6758 1.8133
59.5800 39.6891 1.8139
59.6000 39.7025 1.8168
59.6200 39.7158 1.8207
59.6400 39.7291 1.8204
59.6600 39.7425 1.8239
59.6800 39.7558 1.8251
59.7000 39.7692 1.8252
59.7200 39.7825 1.8286
59.7400 39.7959 1.8318
59.7600 39.8092 1.8332
59.7800 39.8226 1.8355
59.8000 39.8359 1.8372
59.8200 39.8491 1.8379
59.8400 39.8625 1.8431
59.8600 39.8758 1.8425
59.8800 39.8892 1.8457
59.9000 39.9025 1.8476
59.9200 39.9158 1.8500
59.9400 39.9291 1.8494
59.9600 39.9425 1.8544
59.9800 39.9558 1.8545
60.0000 39.9691 1.8548
60.0200 39.9825 1.8586
60.0400 39.9958 1.8603
60.0470 40.0004 1.8574
60.0480 40.0010 1.8568
60.0490 40.0017 1.8562
60.0690 40.0120 1.8400
60.0890 40.0140 1.8317
60.1090 40.0055 1.8444
60.1290 39.9926 1.8508
60.1490 39.9796 1.8447
60.1690 39.9668 1.8401
60.1890 39.9534 1.8352
60.2090 39.9394 1.8313
60.2290 39.9254 1.8259
60.2490 39.9117 1.8202
60.2690 39.8982 1.8170
60.2890 39.8849 1.8124
60.3090 39.8716 1.8071
60.3290 39.8583 1.8046
60.3490 39.8450 1.7994
60.3690 39.8316 1.7954
60.3890 39.8182 1.7949
60.4090 39.8048 1.7871
60.4290 39.7915 1.7827
60.4490 39.7781 1.7790
60.4690 39.7648 1.7756
60.4890 39.7514 1.7709
60.5090 39.7381 1.7679
60.5290 39.7248 1.7635
60.5490 39.7114 1.7583
60.5690 39.6981 1.7572
60.5890 39.6848 1.7527
60.6090 39.6715 1.7485
60.6290 39.6581 1.7457
60.6490 39.6448 1.7416
60.6690 39.6315 1.7386
60.6890 39.6182 1.7362
60.7090 39.6049 1.7311
60.7290 39.5915 1.7259
60.7490 39.5781 1.7250
60.7690 39.5648 1.7212
60.7890 39.5515 1.7175
60.8090 39.5381 1.7160
60.8290 39.5247 1.7138
60.8490 39.5114 1.7076
60.8690 39.4981 1.7041
60.8890 39.4848 1.7001
60.9090 39.4714 1.6974
60.9290 39.4580 1.6960
60.9490 39.4447 1.6923
60.9690 39.4314 1.6888
60.9890 39.4181 1.6859
61.0090 39.4048 1.6821
61.0290 39.3915 1.6805
61.0490 39.3782 1.6769
61.0690 39.3649 1.6729
61.0890 39.3515 1.6683
61.1090 39.3381 1.6680
61.1290 39.3248 1.6638
61.1490 39.3115 1.6590
61.1690 39.2981 1.6590
61.1890 39.2847 1.6542
61.2090 39.2714 1.6517
61.2290 39.2580 1.6492
61.2490 39.2447 1.6455
61.2690 39.2314 1.6434
61.2890 39.2180 1.6415
61.3090 39.2047 1.6380
61.3290 39.1914 1.6370
61.3490 39.1781 1.6341
61.3690 39.1647 1.6291
61.3890 39.1514 1.6248
61.4090 39.1382 1.6245
61.4290 39.1248 1.6198
61.4490 39.1115 1.6179
61.4690 39.0981 1.6174
61.4890 39.0848 1.6122
61.5090 39.0715 1.6080
61.5290 39.0581 1.6070
61.5490 39.0447 1.6033
61.5690 39.0313 1.6002
61.5890 39.0180 1.5984
61.6090 39.0047 1.5944
61.6290 38.9914 1.5909
61.6490 38.9780 1.5912
61.6690 38.9647 1.5892
61.6890 38.9514 1.5827
61.7090 38.9381 1.5832
61.7290 38.9248 1.5790
61.7490 38.9115 1.5773
61.7690 38.8982 1.5741
61.7890 38.8848 1.5710
61.8090 38.8715 1.5687
61.8290 38.8581 1.5662
61.8490 38.8448 1.5625
61.8690 38.8315 1.5585
61.8890 38.8181 1.5587
61.9090 38.8047 1.5564
61.9290 38.7914 1.5537
61.9490 38.7781 1.5500
61.9690 38.7648 1.5499
61.9890 38.7514 1.5427
62.0090 38.7381 1.5440
62.0290 38.7247 1.5384
62.0490 38.7114 1.5379
62.0690 38.6981 1.5344
62.0890 38.6847 1.5337
62.1090 38.6714 1.5300
62.1290 38.6581 1.5290
62.1490 38.6448 1.5269
62.1690 38.6315 1.5221
62.1890 38.6181 1.5222
62.2090 38.6048 1.5193
62.2290 38.5915 1.5144
62.2490 38.5781 1.5152
62.2690 38.5647 1.5122
62.2890 38.5513 1.5087
62.3090 38.5380 1.5072
62.3290 38.5247 1.5049
62.3490 38.5114 1.5020
62.3690 38.4980 1.5018
62.3890 38.4847 1.4989
62.4090 38.4714 1.4957
62.4290 38.4581 1.4948
62.4490 38.4447 1.4903
62.4690 38.4314 1.4854
62.4890 38.4181 1.4860
62.5090 38.4048 1.4828
62.5290 38.3915 1.4780
62.5490 38.3781 1.4805
62.5690 38.3648 1.4765
62.5890 38.3515 1.4739
62.6090 38.3381 1.4734
62.6290 38.3247 1.4716
62.6490 38.3114 1.4668
62.6690 38.2981 1.4664
62.6890 38.2848 1.4639
62.7090 38.2714 1.4614
62.7290 38.2581 1.4594
62.7490 38.2447 1.4593
62.7690 38.2314 1.4548
62.7890 38.2181 1.4546
62.8090 38.2047 1.4504
62.8290 38.1914 1.4472
62.8490 38.1781 1.4478
62.8690 38.1648 1.4467
62.8890 38.1515 1.4417
62.9090 38.1381 1.4405
62.9290 38.1248 1.4399
62.9490 38.1115 1.4359
62.9690 38.0981 1.4348
62.9890 38.0848 1.4331
63.0090 38.0714 1.4289
63.0290 38.0581 1.4281
63.0490 38.0448 1.4263
63.0690 38.0314 1.4217
63.0890 38.0181 1.4224
63.1090 38.0047 1.4211
63.1290 37.9914 1.4170
63.1490 37.9781 1.4159
63.1690 37.9647 1.4150
63.1890 37.9514 1.4102
63.2090 37.9381 1.4096
63.2290 37.9248 1.4070
63.2490 37.9115 1.4038
63.2690 37.8981 1.4040
63.2890 37.8848 1.4036
63.3090 37.8714 1.3991
63.3290 37.8581 1.3991
63.3490 37.8447 1.3943
63.3690 37.8314 1.3911
63.3890 37.8181 1.3892
63.4090 37.8048 1.3888
63.4290 37.7915 1.3859
63.4490 37.7781 1.3852
63.4690 37.7648 1.3840
63.4890 37.7514 1.3789
63.5090 37.7381 1.3778
63.5290 37.7248 1.3777
63.5490 37.7114 1.3748
63.5690 37.6981 1.3745
63.5890 37.6848 1.3721
63.6090 37.6715 1.3680
63.6290 37.6581 1.3694
63.6490 37.6447 1.3654
63.6690 37.6314 1.3640
63.6890 37.6181 1.3629
63.7090 37.6047 1.3630
63.7290 37.5914 1.3584
63.7490 37.5780 1.3557
63.7690 37.5647 1.3568
63.7890 37.5514 1.3526
63.8090 37.5380 1.3535
63.8290 37.5247 1.3510
63.8490 37.5114 1.3463
63.8690 37.4981 1.3479
63.8890 37.4848 1.3457
63.9090 37.4714 1.3402
63.9290 37.4581 1.3384
63.9490 37.4448 1.3377
63.9690 37.4315 1.3359
63.9890 37.4181 1.3372
64.0090 37.4047 1.3357
64.0290 37.3914 1.3330
64.0490 37.3781 1.3317
64.0690 37.3648 1.3288
64.0890 37.3514 1.3274
64.1090 37.3381 1.3252
64.1290 37.3248 1.3246
64.1490 37.3114 1.3207
64.1690 37.2981 1.3200
64.1890 37.2847 1.3171
64.2090 37.2714 1.3145
64.2290 37.2581 1.3148
64.2490 37.2447 1.3133
64.2690 37.2314 1.3099
64.2890 37.2181 1.3079
64.3090 37.2048 1.3076
64.3290 37.1915 1.3044
64.3490 37.1782 1.3044
64.3690 37.1648 1.3067
64.3890 37.1515 1.3011
64.4090 37.1382 1.3003
64.4290 37.1248 1.2973
64.4490 37.1114 1.2940
64.4690 37.0981 1.2937
64.4890 37.0847 1.2938
64.5090 37.0714 1.2920
64.5290 37.0580 1.2901
64.5490 37.0447 1.2886
64.5690 37.0314 1.2848
64.5890 37.0181 1.2851
64.6090 37.0048 1.2845
64.6290 36.9914 1.2799
64.6490 36.9781 1.2785
64.6690 36.9648 1.2772
64.6890 36.9515 1.2761
64.7090 36.9381 1.2761
64.7290 36.9248 1.2738
64.7490 36.9114 1.2712
64.7690 36.8981 1.2689
64.7890 36.8847 1.2670
64.8090 36.8714 1.2646
64.8290 36.8580 1.2642
64.8490 36.8447 1.2631
64.8690 36.8314 1.2610
64.8890 36.8180 1.2596
64.9090 36.8047 1.2608
64.9290 36.7914 1.2562
64.9490 36.7781 1.2576
64.9690 36.7647 1.2574
64.9890 36.7514 1.2535
65.0090 36.7381 1.2495
65.0290 36.7248 1.2504
65.0490 36.7115 1.2466
65.0690 36.6981 1.2465
65.0890 36.6848 1.2459
65.1090 36.6714 1.2434
65.1290 36.6581 1.2415
65.1490 36.6448 1.2441
65.1690 36.6314 1.2397
65.1890 36.6180 1.2406
65.2090 36.6047 1.2369
65.2290 36.5914 1.2337
65.2490 36.5780 1.2326
65.2690 36.5647 1.2318
65.2890 36.5514 1.2291
65.3090 36.5381 1.2291
65.3290 36.5247 1.2272
65.3490 36.5114 1.2249
65.3690 36.4981 1.2247
65.3890 36.4848 1.2233
65.4090 36.4715 1.2198
65.4290 36.4582 1.2207
65.4490 36.4448 1.2211
65.4690 36.4315 1.2177
65.4890 36.4181 1.2155
65.5090 36.4048 1.2157
65.5290 36.3914 1.2130
65.5490 36.3780 1.2131
65.5690 36.3647 1.2113
65.5890 36.3514 1.2086
65.6090 36.3380 1.2055
65.6290 36.3247 1.2058
65.6490 36.3114 1.2024
65.6690 36.2981 1.2029
65.6890 36.2848 1.2031
65.7090 36.2714 1.2009
65.7290 36.2581 1.2011
65.7490 36.2448 1.1989
65.7690 36.2315 1.1967
65.7890 36.2181 1.1938
65.8090 36.2048 1.1938
65.8290 36.1915 1.1921
65.8490 36.1781 1.1904
65.8690 36.1648 1.1899
65.8890 36.1514 1.1880
65.9090 36.1381 1.1864
65.9290 36.1248 1.1886
65.9490 36.1114 1.1839
65.9690 36.0981 1.1820
65.9890 36.0847 1.1819
66.0090 36.0714 1.1780
66.0290 36.0581 1.1784
66.0490 36.0447 1.1774
66.0690 36.0314 1.1742
66.0890 36.0181 1.1736
66.1090 36.0048 1.1727
66.1290 35.9915 1.1723
66.1490 35.9781 1.1699
66.1690 35.9648 1.1729
66.1890 35.9514 1.1684
66.2090 35.9381 1.1659
66.2290 35.9248 1.1666
66.2490 35.9114 1.1650
66.2690 35.8981 1.1611
66.2890 35.8848 1.1618
66.3090 35.8714 1.1565
66.3290 35.8581 1.1580
66.3490 35.8447 1.1569
66.3690 35.8314 1.1547
66.3890 35.8181 1.1522
66.4090 35.8047 1.1542
66.4290 35.7914 1.1506
66.4490 35.7780 1.1494
66.4690 35.7648 1.1496
66.4890 35.7515 1.1463
66.5090 35.7381 1.1454
66.5290 35.7248 1.1453
66.5490 35.7115 1.1423
66.5690 35.6982 1.1415
66.5890 35.6848 1.1427
66.6090 35.6714 1.1395
66.6290 35.6580 1.1409
66.6490 35.6447 1.1397
66.6690 35.6314 1.1383
66.6890 35.6180 1.1350
66.7090 35.6047 1.1365
66.7290 35.5914 1.1328
66.7490 35.5781 1.1301
66.7690 35.5648 1.1293
66.7890 35.5514 1.1266
66.8090 35.5381 1.1267
66.8290 35.5248 1.1277
66.8490 35.5115 1.1266
66.8690 35.4982 1.1243
66.8890 35.4848 1.1244
66.9090 35.4714 1.1220
66.9290 35.4581 1.1196
66.9490 35.4448 1.1194
66.9690 35.4314 1.1175
66.9890 35.4180 1.1158
67.0090 35.4047 1.1170
67.0290 35.3914 1.1159
67.0490 35.3781 1.1138
67.0690 35.3647 1.1152
67.0890 35.3514 1.1106
67.1090 35.3381 1.1098
67.1290 35.3248 1.1095
67.1490 35.3114 1.1096
67.1690 35.2981 1.1064
67.1890 35.2848 1.1049
67.2090 35.2715 1.1051
67.2290 35.2581 1.1040
67.2490 35.2448 1.1046
67.2690 35.2314 1.1012
67.2890 35.2181 1.0978
67.3090 35.2048 1.0981
67.3290 35.1914 1.0972
67.3490 35.1780 1.0951
67.3690 35.1647 1.0942
67.3890 35.1514 1.0941
67.4090 35.1381 1.0918
67.4290 35.1247 1.0931
67.4490 35.1114 1.0901
67.4690 35.0981 1.0895
67.4890 35.0848 1.0886
67.5090 35.0714 1.0881
67.5290 35.0581 1.0837
67.5490 35.0448 1.0861
67.5690 35.0315 1.0850
67.5890 35.0182 1.0823
67.6090 35.0048 1.0810
67.6290 34.9914 1.0806
67.6490 34.9781 1.0777
67.6690 34.9648 1.0775
67.6890 34.9514 1.0764
67.7090 34.9380 1.0752
67.7290 34.9247 1.0758
67.7490 34.9114 1.0735
67.7690 34.8981 1.0730
67.7890 34.8847 1.0726
67.8090 34.8714 1.0704
67.8290 34.8581 1.0684
67.8490 34.8448 1.0704
67.8690 34.8314 1.0684
67.8890 34.8181 1.0655
67.9090 34.8048 1.0660
67.9290 34.7915 1.0645
67.9490 34.7781 1.0639
67.9690 34.7648 1.0610
67.9890 34.7514 1.0611
68.0090 34.7381 1.0575
68.0290 34.7248 1.0601
68.0490 34.7114 1.0577
68.0690 34.6980 1.0570
68.0890 34.6847 1.0566
68.1090 34.6714 1.0553
68.1290 34.6581 1.0520
68.1490 34.6447 1.0530
68.1690 34.6314 1.0514
68.1890 34.6180 1.0489
68.2090 34.6047 1.0494
68.2290 34.5914 1.0467
68.2490 34.5781 1.0467
68.2690 34.5648 1.0462
68.2890 34.5515 1.0439
68.3090 34.5382 1.0420
68.3290 34.5248 1.0427
68.3490 34.5114 1.0395
68.3690 34.4981 1.0393
68.3890 34.4848 1.0405
68.4090 34.4714 1.0394
68.4290 34.4580 1.0375
68.4490 34.4447 1.0387
68.4690 34.4314 1.0355
68.4890 34.4181 1.0329
68.5090 34.4047 1.0326
68.5290 34.3914 1.0324
68.5490 34.3781 1.0309
68.5690 34.3648 1.0317
68.5890 34.3514 1.0300
68.6090 34.3381 1.0272
68.6290 34.3248 1.0275
68.6490 34.3115 1.0273
68.6690 34.2982 1.0237
68.6890 34.2848 1.0271
68.7090 34.2715 1.0250
68.7290 34.2581 1.0230
68.7490 34.2448 1.0213
68.7690 34.2314 1.0207
68.7890 34.2180 1.0194
68.8090 34.2047 1.0177
68.8290 34.1914 1.0175
68.8490 34.1781 1.0165
68.8690 34.1647 1.0146
68.8890 34.1514 1.0130
68.9090 34.1381 1.0118
68.9290 34.1248 1.0122
68.9490 34.1114 1.0115
68.9690 34.0981 1.0107
68.9890 34.0848 1.0104
69.0090 34.0715 1.0091
69.0290 34.0582 1.0098
69.0490 34.0448 1.0122
69.0690 34.0314 1.0091
69.0890 34.0181 1.0050
69.1090 34.0048 1.0030
69.1290 33.9914 1.0031
69.1490 33.9780 1.0005
69.1690 33.9647 1.0018
69.1890 33.9514 0.9988
69.2090 33.9381 0.9968
69.2290 33.9248 0.9993
69.2490 33.9114 0.9972
69.2690 33.8981 0.9949
69.2890 33.8848 0.9943
69.3090 33.8714 0.9934
69.3290 33.8581 0.9917
69.3490 33.8447 0.9923
69.3690 33.8315 0.9928
69.3890 33.8181 0.9905
69.4090 33.8048 0.9891
69.4290 33.7915 0.9896
69.4490 33.7781 0.9877
69.4690 33.7648 0.9866
69.4890 33.7514 0.9863
69.5090 33.7380 0.9845
69.5290 33.7247 0.9846
69.5490 33.7114 0.9835
69.5690 33.6981 0.9826
69.5890 33.6847 0.9832
69.6090 33.6713 0.9825
69.6290 33.6580 0.9810
69.6490 33.6447 0.9801
69.6690 33.6314 0.9804
69.6890 33.6181 0.9771
69.7090 33.6048 0.9758
69.7290 33.5915 0.9733
69.7490 33.5782 0.9729
69.7690 33.5648 0.9731
69.7890 33.5514 0.9741
69.8090 33.5381 0.9728
69.8290 33.5248 0.9723
69.8490 33.5114 0.9698
69.8690 33.4981 0.9704
69.8890 33.4847 0.9681
69.9090 33.4714 0.9682
69.9290 33.4581 0.9651
69.9490 33.4447 0.9641
69.9690 33.4314 0.9655
69.9890 33.4181 0.9635
70.0090 33.4048 0.9634
70.0290 33.3914 0.9631
70.0490 33.3781 0.9600
70.0690 33.3647 0.9609
70.0890 33.3515 0.9589
70.1090 33.3382 0.9573
70.1290 33.3248 0.9565
70.1490 33.3114 0.9563
70.1690 33.2981 0.9536
70.1890 33.2848 0.9538
70.2090 33.2715 0.9530
70.2290 33.2581 0.9526
70.2490 33.2447 0.9525
70.2690 33.2314 0.9532
70.2890 33.2181 0.9507
70.3090 33.2047 0.9497
70.3290 33.1914 0.9502
70.3490 33.1780 0.9486
70.3690 33.1647 0.9468
70.3890 33.1514 0.9452
70.4090 33.1380 0.9448
70.4290 33.1247 0.9438
70.4490 33.1115 0.9438
70.4690 33.0981 0.9428
70.4890 33.0848 0.9410
70.5090 33.0714 0.9425
70.5290 33.0581 0.9400
70.5490 33.0448 0.9380
70.5690 33.0314 0.9401
70.5890 33.0180 0.9385
70.6090 33.0047 0.9386
70.6290 32.9914 0.9365
70.6490 32.9781 0.9362
70.6690 32.9648 0.9342
70.6890 32.9514 0.9335
70.7090 32.9381 0.9328
70.7290 32.9248 0.9323
70.7490 32.9114 0.9338
70.7690 32.8981 0.9315
70.7890 32.8848 0.9316
70.8090 32.8715 0.9293
70.8290 32.8581 0.9289
70.8490 32.8448 0.9265
70.8690 32.8314 0.9287
70.8890 32.8181 0.9265
70.9090 32.8048 0.9239
70.9290 32.7914 0.9237
70.9490 32.7781 0.9222
70.9690 32.7647 0.9211
70.9890 32.7514 0.9221
71.0090 32.7381 0.9228
71.0290 32.7248 0.9211
71.0490 32.7114 0.9211
71.0690 32.6981 0.9189
71.0890 32.6848 0.9182
71.1090 32.6715 0.9179
71.1290 32.6581 0.9143
71.1490 32.6448 0.9146
71.1690 32.6315 0.9135
71.1890 32.6181 0.9118
71.2090 32.6048 0.9116
71.2290 32.5914 0.9116
71.2490 32.5781 0.9105
71.2690 32.5648 0.9098
71.2890 32.5514 0.9097
71.3090 32.5381 0.9070
71.3290 32.5247 0.9080
71.3490 32.5114 0.9067
71.3690 32.4981 0.9057
71.3890 32.4848 0.9058
71.4090 32.4714 0.9069
71.4290 32.4581 0.9035
71.4490 32.4448 0.9022
71.4690 32.4314 0.9025
71.4890 32.4181 0.9023
71.5090 32.4047 0.9006
71.5290 32.3914 0.9014
71.5490 32.3781 0.8990
71.5690 32.3648 0.8997
71.5890 32.3515 0.9002
71.6090 32.3381 0.8963
71.6290 32.3248 0.8959
71.6490 32.3115 0.8965
71.6690 32.2981 0.8940
71.6890 32.2847 0.8958
71.7090 32.2714 0.8929
71.7290 32.2581 0.8928
71.7490 32.2447 0.8899
71.7690 32.2314 0.8922
71.7890 32.2180 0.8893
71.8090 32.2047 0.8900
71.8290 32.1914 0.8896
71.8490 32.1781 0.8904
71.8690 32.1648 0.8884
71.8890 32.1515 0.8867
71.9090 32.1382 0.8845
71.9290 32.1248 0.8839
71.9490 32.1114 0.8856
71.9690 32.0981 0.8863
71.9890 32.0848 0.8828
72.0090 32.0714 0.8821
72.0290 32.0581 0.8817
72.0490 32.0447 0.8793
72.0690 32.0314 0.8801
72.0890 32.0181 0.8787
72.1090 32.0048 0.8776
72.1290 31.9914 0.8791
72.1490 31.9781 0.8770
72.1690 31.9648 0.8764
72.1890 31.9514 0.8765
72.2090 31.9381 0.8750
72.2290 31.9248 0.8743
72.2490 31.9115 0.8735
72.2690 31.8982 0.8726
72.2890 31.8848 0.8718
72.3090 31.8715 0.8729
72.3290 31.8581 0.8718
72.3490 31.8448 0.8699
72.3690 31.8315 0.8688
72.3890 31.8181 0.8691
72.4090 31.8047 0.8669
72.4290 31.7914 0.8685
72.4490 31.7781 0.8669
72.4690 31.7647 0.8679
72.4890 31.7514 0.8658
72.5090 31.7380 0.8647
72.5290 31.7247 0.8629
72.5490 31.7114 0.8624
72.5690 31.6981 0.8625
72.5890 31.6847 0.8593
72.6090 31.6715 0.8623
72.6290 31.6582 0.8620
72.6490 31.6448 0.8607
72.6690 31.6315 0.8601
72.6890 31.6181 0.8577
72.7090 31.6048 0.8549
72.7290 31.5915 0.8559
72.7490 31.5781 0.8556
72.7690 31.5647 0.8554
72.7890 31.5514 0.8559
72.8090 31.5381 0.8553
72.8290 31.5247 0.8559
72.8490 31.5114 0.8519
72.8690 31.4980 0.8531
72.8890 31.4847 0.8498
72.9090 31.4714 0.8512
72.9290 31.4581 0.8501
72.9490 31.4447 0.8511
72.9690 31.4314 0.8492
72.9890 31.4181 0.8479
73.0090 31.4048 0.8457
73.0290 31.3914 0.8451
73.0490 31.3781 0.8453
73.0690 31.3648 0.8448
73.0890 31.3515 0.8450
73.1090 31.3381 0.8448
73.1290 31.3247 0.8435
73.1490 31.3114 0.8434
73.1690 31.2981 0.8427
73.1890 31.2847 0.8412
73.2090 31.2714 0.8399
73.2290 31.2580 0.8379
73.2490 31.2447 0.8380
73.2690 31.2314 0.8386
73.2890 31.2181 0.8377
73.3090 31.2047 0.8372
73.3290 31.1914 0.8358
73.3490 31.1781 0.8362
73.3690 31.1648 0.8352
73.3890 31.1515 0.8333
73.4090 31.1381 0.8332
73.4290 31.1248 0.8325
73.4490 31.1115 0.8334
73.4690 31.0981 0.8314
73.4890 31.0848 0.8295
73.5090 31.0714 0.8291
73.5290 31.0581 0.8291
73.5490 31.0448 0.8266
73.5690 31.0314 0.8280
73.5890 31.0180 0.8272
73.6090 31.0047 0.8265
73.6290 30.9914 0.8268
73.6490 30.9781 0.8254
73.6690 30.9647 0.8225
73.6890 30.9514 0.8217
73.7090 30.9381 0.8224
73.7290 30.9248 0.8233
73.7490 30.9114 0.8220
73.7690 30.8981 0.8218
73.7890 30.8848 0.8198
73.8090 30.8715 0.8197
73.8290 30.8581 0.8197
73.8490 30.8447 0.8200
73.8690 30.8314 0.8181
73.8890 30.8180 0.8183
73.9090 30.8047 0.8174
73.9290 30.7914 0.8168
73.9490 30.7780 0.8172
73.9690 30.7647 0.8162
73.9890 30.7514 0.8138
74.0090 30.7381 0.8135
74.0290 30.7248 0.8115
74.0490 30.7115 0.8122
74.0690 30.6982 0.8104
74.0890 30.6848 0.8076
74.1090 30.6715 0.8087
74.1290 30.6581 0.8109
74.1490 30.6448 0.8110
74.1690 30.6314 0.8087
74.1890 30.6181 0.8091
74.2090 30.6047 0.8073
74.2290 30.5914 0.8074
74.2490 30.5781 0.8084
74.2690 30.5648 0.8055
74.2890 30.5514 0.8049
74.3090 30.5380 0.8038
74.3290 30.5247 0.8015
74.3490 30.5114 0.8023
74.3690 30.4981 0.8035
74.3890 30.4847 0.8028
74.4090 30.4714 0.8015
74.4290 30.4581 0.8020
74.4490 30.4448 0.7991
74.4690 30.4314 0.7988
74.4890 30.4181 0.7996
74.5090 30.4048 0.7974
74.5290 30.3914 0.7980
74.5490 30.3781 0.7979
74.5690 30.3647 0.7943
74.5890 30.3514 0.7959
74.6090 30.3381 0.7944
74.6290 30.3248 0.7930
74.6490 30.3114 0.7921
74.6690 30.2980 0.7933
74.6890 30.2847 0.7928
74.7090 30.2714 0.7915
74.7290 30.2581 0.7917
74.7490 30.2447 0.7900
74.7690 30.2314 0.7893
74.7890 30.2181 0.7903
74.8090 30.2048 0.7904
74.8290 30.1915 0.7893
74.8490 30.1781 0.7878
74.8690 30.1648 0.7857
74.8890 30.1514 0.7873
74.9090 30.1381 0.7864
74.9290 30.1247 0.7845
74.9490 30.1114 0.7839
74.9690 30.0981 0.7839
74.9890 30.0848 0.7846
75.0090 30.0714 0.7812
75.0290 30.0580 0.7838
75.0490 30.0447 0.7809
75.0690 30.0314 0.7814
75.0890 30.0181 0.7796
75.1090 30.0048 0.7804
75.1290 29.9914 0.7792
75.1490 29.9782 0.7776
75.1690 29.9648 0.7782
75.1890 29.9515 0.7773
75.2090 29.9381 0.7780
75.2290 29.9247 0.7793
75.2490 29.9114 0.7763
75.2690 29.8981 0.7767
75.2890 29.8847 0.7756
75.3090 29.8714 0.7744
75.3290 29.8581 0.7713
75.3490 29.8448 0.7709
75.3690 29.8314 0.7723
75.3890 29.8180 0.7725
75.4090 29.8047 0.7719
75.4290 29.7914 0.7720
75.4490 29.7781 0.7703
75.4690 29.7648 0.7710
75.4890 29.7514 0.7688
75.5090 29.7382 0.7697
75.5290 29.7248 0.7681
75.5490 29.7115 0.7665
75.5690 29.6981 0.7662
75.5890 29.6848 0.7662
75.6090 29.6715 0.7669
75.6290 29.6581 0.7668
75.6490 29.6447 0.7644
75.6690 29.6314 0.7626
75.6890 29.6180 0.7621
75.7090 29.6047 0.7632
75.7290 29.5914 0.7644
75.7490 29.5780 0.7635
75.7690 29.5647 0.7638
75.7890 29.5514 0.7586
75.8090 29.5381 0.7614
75.8290 29.5247 0.7589
75.8490 29.5114 0.7592
75.8690 29.4981 0.7560
75.8890 29.4848 0.7580
75.9090 29.4715 0.7577
75.9290 29.4581 0.7582
75.9490 29.4448 0.7571
75.9690 29.4315 0.7556
75.9890 29.4181 0.7545
76.0090 29.4047 0.7545
76.0290 29.3913 0.7542
76.0490 29.3780 0.7526
76.0690 29.3647 0.7536
76.0890 29.3514 0.7522
76.1090 29.3380 0.7534
76.1290 29.3247 0.7527
76.1490 29.3114 0.7499
76.1690 29.2981 0.7500
76.1890 29.2848 0.7484
76.2090 29.2714 0.7487
76.2290 29.2582 0.7474
76.2490 29.2448 0.7480
76.2690 29.2315 0.7453
76.2890 29.2181 0.7462
76.3090 29.2048 0.7452
76.3290 29.1914 0.7446
76.3490 29.1781 0.7456
76.3690 29.1647 0.7429
76.3890 29.1514 0.7416
76.4090 29.1381 0.7435
76.4290 29.1248 0.7451
76.4490 29.1114 0.7421
76.4690 29.0981 0.7414
76.4890 29.0847 0.7417
76.5090 29.0714 0.7403
76.5290 29.0581 0.7398
76.5490 29.0447 0.7422
76.5690 29.0314 0.7383
76.5890 29.0181 0.7400
76.6090 29.0048 0.7394
76.6290 28.9915 0.7373
76.6490 28.9781 0.7364
76.6690 28.9648 0.7367
76.6890 28.9515 0.7356
76.7090 28.9381 0.7353
76.7290 28.9247 0.7359
76.7490 28.9114 0.7352
76.7690 28.8980 0.7337
76.7890 28.8847 0.7350
76.8090 28.8714 0.7330
76.8290 28.8581 0.7319
76.8490 28.8447 0.7344
76.8690 28.8314 0.7304
76.8890 28.8181 0.7300
76.9090 28.8047 0.7310
76.9290 28.7914 0.7315
76.9490 28.7781 0.7302
76.9690 28.7648 0.7286
76.9890 28.7515 0.7266
77.0090 28.7381 0.7268
77.0290 28.7248 0.7280
77.0490 28.7115 0.7263
77.0690 28.6981 0.7261
77.0890 28.6848 0.7267
77.1090 28.6714 0.7257
77.1290 28.6581 0.7235
77.1490 28.6448 0.7277
77.1690 28.6314 0.7216
77.1890 28.6180 0.7215
77.2090 28.6047 0.7209
77.2290 28.5914 0.7195
77.2490 28.5781 0.7191
77.2690 28.5648 0.7199
77.2890 28.5514 0.7195
77.3090 28.5381 0.7196
77.3290 28.5248 0.7212
77.3490 28.5115 0.7176
77.3690 28.4981 0.7185
77.3890 28.4848 0.7188
77.4090 28.4714 0.7156
77.4290 28.4581 0.7168
77.4490 28.4448 0.7176
77.4690 28.4314 0.7162
77.4890 28.4181 0.7150
77.5090 28.4047 0.7152
77.5290 28.3914 0.7139
77.5490 28.3781 0.7149
77.5690 28.3647 0.7156
77.5890 28.3514 0.7142
77.6090 28.3381 0.7128
77.6290 28.3247 0.7124
77.6490 28.3114 0.7107
77.6690 28.2981 0.7117
77.6890 28.2848 0.7116
77.7090 28.2715 0.7083
77.7290 28.2581 0.7091
77.7490 28.2448 0.7094
77.7690 28.2314 0.7083
77.7890 28.2181 0.7070
77.8090 28.2047 0.7092
77.8290 28.1914 0.7075
77.8490 28.1780 0.7064
77.8690 28.1647 0.7074
77.8890 28.1514 0.7054
77.9090 28.1381 0.7044
77.9290 28.1247 0.7051
77.9490 28.1114 0.7041
77.9690 28.0981 0.7037
77.9890 28.0848 0.7036
78.0090 28.0714 0.7027
78.0290 28.0581 0.7021
78.0490 28.0448 0.6994
78.0690 28.0315 0.7000
78.0890 28.0181 0.6992
78.1090 28.0047 0.7016
78.1290 27.9914 0.6999
78.1490 27.9781 0.6981
78.1690 27.9647 0.7003
78.1890 27.9514 0.6978
78.2090 27.9380 0.6990
78.2290 27.9247 0.6996
78.2490 27.9114 0.6981
78.2690 27.8981 0.6964
78.2890 27.8847 0.6980
78.3090 27.8714 0.6939
78.3290 27.8581 0.6953
78.3490 27.8448 0.6947
78.3690 27.8314 0.6970
78.3890 27.8181 0.6934
78.4090 27.8048 0.6942
78.4290 27.7915 0.6921
78.4490 27.7781 0.6905
78.4690 27.7647 0.6932
78.4890 27.7514 0.6913
78.5090 27.7381 0.6895
78.5290 27.7248 0.6867
78.5490 27.7114 0.6874
78.5690 27.6981 0.6898
78.5890 27.6847 0.6899
78.6090 27.6714 0.6888
78.6290 27.6581 0.6858
78.6490 27.6447 0.6871
78.6690 27.6314 0.6846
78.6890 27.6181 0.6856
78.7090 27.6047 0.6862
78.7290 27.5914 0.6855
78.7490 27.5781 0.6848
78.7690 27.5648 0.6861
78.7890 27.5515 0.6841
78.8090 27.5381 0.6848
78.8290 27.5248 0.6836
78.8490 27.5115 0.6819
78.8690 27.4982 0.6802
78.8890 27.4848 0.6831
78.9090 27.4714 0.6810
78.9290 27.4580 0.6803
78.9490 27.4447 0.6796
78.9690 27.4314 0.6793
78.9890 27.4180 0.6761
79.0090 27.4047 0.6806
79.0290 27.3914 0.6791
79.0490 27.3781 0.6758
79.0690 27.3648 0.6770
79.0890 27.3514 0.6754
79.1090 27.3381 0.6771
79.1290 27.3248 0.6767
79.1490 27.3115 0.6779
79.1690 27.2981 0.6754
79.1890 27.2848 0.6779
79.2090 27.2714 0.6740
79.2290 27.2581 0.6728
79.2490 27.2448 0.6725
79.2690 27.2314 0.6713
79.2890 27.2180 0.6721
79.3090 27.2047 0.6727
79.3290 27.1914 0.6722
79.3490 27.1781 0.6714
79.3690 27.1647 0.6713
79.3890 27.1514 0.6705
79.4090 27.1381 0.6691
79.4290 27.1248 0.6708
79.4490 27.1114 0.6697
79.4690 27.0981 0.6664
79.4890 27.0848 0.6661
79.5090 27.0715 0.6688
79.5290 27.0581 0.6667
79.5490 27.0448 0.6681
79.5690 27.0314 0.6669
79.5890 27.0181 0.6638
79.6090 27.0048 0.6644
79.6290 26.9914 0.6649
79.6490 26.9781 0.6622
79.6690 26.9647 0.6639
79.6890 26.9514 0.6629
79.7090 26.9380 0.6629
79.7290 26.9247 0.6650
79.7490 26.9114 0.6627
79.7690 26.8981 0.6591
79.7890 26.8847 0.6622
79.8090 26.8714 0.6597
79.8290 26.8581 0.6582
79.8490 26.8448 0.6600
79.8690 26.8315 0.6608
79.8890 26.8182 0.6591
79.9090 26.8048 0.6600
79.9290 26.7915 0.6600
79.9490 26.7781 0.6556
79.9690 26.7648 0.6588
79.9890 26.7514 0.6579
80.0090 26.7380 0.6552
80.0290 26.7247 0.6558
80.0490 26.7114 0.6577
80.0690 26.6980 0.6525
80.0890 26.6847 0.6575
80.1090 26.6714 0.6561
80.1290 26.6581 0.6522
80.1490 26.6448 0.6528
80.1690 26.6314 0.6534
80.1890 26.6181 0.6503
80.2090 26.6048 0.6507
80.2290 26.5915 0.6510
80.2490 26.5781 0.6491
80.2690 26.5648 0.6510
80.2890 26.5514 0.6502
80.3090 26.5381 0.6482
80.3290 26.5248 0.6501
80.3490 26.5114 0.6488
80.3690 26.4981 0.6481
80.3890 26.4848 0.6488
80.4090 26.4714 0.6473
80.4290 26.4581 0.6453
80.4490 26.4447 0.6471
80.4690 26.4314 0.6463
80.4890 26.4181 0.6443
80.5090 26.4047 0.6473
80.5290 26.3914 0.6474
80.5490 26.3781 0.6455
80.5690 26.3648 0.6468
80.5890 26.3515 0.6459
80.6090 26.3381 0.6440
80.6290 26.3248 0.6440
80.6490 26.3114 0.6435
80.6690 26.2981 0.6419
80.6890 26.2848 0.6418
80.7090 26.2714 0.6415
80.7290 26.2581 0.6409
80.7490 26.2447 0.6401
80.7690 26.2314 0.6404
80.7890 26.2181 0.6397
80.8090 26.2047 0.6407
80.8290 26.1914 0.6411
80.8490 26.1781 0.6389
80.8690 26.1647 0.6381
80.8890 26.1514 0.6378
80.9090 26.1381 0.6349
80.9290 26.1248 0.6356
80.9490 26.1115 0.6349
80.9690 26.0981 0.6341
80.9890 26.0848 0.6331
81.0090 26.0714 0.6364
81.0290 26.0581 0.6340
81.0490 26.0448 0.6340
81.0690 26.0314 0.6339
81.0890 26.0180 0.6321
81.1090 26.0047 0.6327
81.1290 25.9914 0.6342
81.1490 25.9781 0.6305
81.1690 25.9647 0.6316
81.1890 25.9513 0.6315
81.2090 25.9381 0.6288
81.2290 25.9248 0.6302
81.2490 25.9114 0.6311
81.2690 25.8981 0.6302
81.2890 25.8848 0.6295
81.3090 25.8715 0.6280
81.3290 25.8582 0.6267
81.3490 25.8448 0.6267
81.3690 25.8314 0.6282
81.3890 25.8181 0.6275
81.4090 25.8048 0.6268
81.4290 25.7914 0.6268
81.4490 25.7780 0.6231
81.4690 25.7647 0.6247
81.4890 25.7514 0.6256
81.5090 25.7381 0.6237
81.5290 25.7247 0.6219
81.5490 25.7114 0.6243
81.5690 25.6981 0.6234
81.5890 25.6848 0.6239
81.6090 25.6714 0.6253
81.6290 25.6581 0.6222
81.6490 25.6448 0.6227
81.6690 25.6315 0.6224
81.6890 25.6181 0.6201
81.7090 25.6048 0.6203
81.7290 25.5914 0.6197
81.7490 25.5781 0.6183
81.7690 25.5648 0.6195
81.7890 25.5514 0.6200
81.8090 25.5380 0.6178
81.8290 25.5247 0.6166
81.8490 25.5114 0.6184
81.8690 25.4981 0.6159
81.8890 25.4847 0.6155
81.9090 25.4714 0.6166
81.9290 25.4581 0.6124
81.9490 25.4448 0.6152
81.9690 25.4314 0.6160
81.9890 25.4181 0.6160
82.0090 25.4048 0.6156
82.0290 25.3915 0.6145
82.0490 25.3782 0.6129
82.0690 25.3648 0.6118
82.0890 25.3514 0.6133
82.1090 25.3381 0.6131
82.1290 25.3248 0.6131
82.1490 25.3114 0.6145
82.1690 25.2980 0.6121
82.1890 25.2847 0.6111
82.2090 25.2714 0.6118
82.2290 25.2581 0.6093
82.2490 25.2447 0.6093
82.2690 25.2314 0.6117
82.2890 25.2181 0.6075
82.3090 25.2048 0.6092
82.3290 25.1914 0.6092
82.3490 25.1781 0.6088
82.3690 25.1648 0.6063
82.3890 25.1515 0.6075
82.4090 25.1381 0.6049
82.4290 25.1248 0.6057
82.4490 25.1114 0.6065
82.4690 25.0981 0.6049
82.4890 25.0848 0.6051
82.5090 25.0714 0.6068
82.5290 25.0581 0.6051
82.5490 25.0447 0.6050
82.5690 25.0314 0.6049
82.5890 25.0181 0.6020
82.6090 25.0047 0.6015
82.6290 24.9914 0.6026
82.6490 24.9780 0.6021
82.6690 24.9647 0.6006
82.6890 24.9514 0.6010
82.7090 24.9381 0.5998
82.7290 24.9248 0.6001
82.7490 24.9115 0.6002
82.7690 24.8982 0.5983
82.7890 24.8848 0.5999
82.8090 24.8714 0.5991
82.8290 24.8581 0.5970
82.8490 24.8448 0.5965
82.8690 24.8314 0.5990
82.8890 24.8180 0.5983
82.9090 24.8047 0.5966
82.9290 24.7914 0.5979
82.9490 24.7781 0.5947
82.9690 24.7647 0.5942
82.9890 24.7514 0.5959
83.0090 24.7380 0.5935
83.0290 24.7247 0.5923
83.0490 24.7114 0.5956
83.0690 24.6981 0.5924
83.0890 24.6848 0.5935
83.1090 24.6715 0.5928
83.1290 24.6582 0.5924
83.1490 24.6448 0.5910
83.1690 24.6315 0.5928
83.1890 24.6181 0.5909
83.2090 24.6048 0.5899
83.2290 24.5914 0.5908
83.2490 24.5780 0.5899
83.2690 24.5647 0.5903
83.2890 24.5514 0.5909
83.3090 24.5381 0.5868
83.3290 24.5247 0.5868
83.3490 24.5114 0.5895
83.3690 24.4981 0.5882
83.3890 24.4848 0.5890
83.4090 24.4714 0.5891
83.4290 24.4581 0.5867
83.4490 24.4448 0.5854
83.4690 24.4315 0.5871
83.4890 24.4182 0.5860
83.5090 24.4048 0.5858
83.5290 24.3914 0.5873
83.5490 24.3781 0.5845
83.5690 24.3648 0.5825
83.5890 24.3514 0.5842
83.6090 24.3380 0.5828
83.6290 24.3247 0.5827
83.6490 24.3114 0.5822
83.6690 24.2981 0.5825
83.6890 24.2848 0.5812
83.7090 24.2714 0.5843
83.7290 24.2581 0.5811
83.7490 24.2447 0.5815
83.7690 24.2314 0.5823
83.7890 24.2180 0.5801
83.8090 24.2047 0.5793
83.8290 24.1914 0.5811
83.8490 24.1781 0.5787
83.8690 24.1648 0.5787
83.8890 24.1515 0.5790
83.9090 24.1381 0.5770
83.9290 24.1248 0.5768
83.9490 24.1114 0.5773
83.9690 24.0981 0.5791
83.9890 24.0847 0.5782
84.0090 24.0714 0.5780
84.0290 24.0581 0.5759
84.0490 24.0447 0.5760
84.0690 24.0313 0.5761
84.0890 24.0180 0.5763
84.1090 24.0047 0.5745
84.1290 23.9914 0.5746
84.1490 23.9781 0.5731
84.1690 23.9648 0.5727
84.1890 23.9515 0.5756
84.2090 23.9381 0.5738
84.2290 23.9248 0.5712
84.2490 23.9114 0.5716
84.2690 23.8981 0.5712
84.2890 23.8848 0.5706
84.3090 23.8714 0.5720
84.3290 23.8581 0.5712
84.3490 23.8447 0.5681
84.3690 23.8314 0.5699
84.3890 23.8181 0.5675
84.4090 23.8047 0.5668
84.4290 23.7914 0.5680
84.4490 23.7781 0.5689
84.4690 23.7648 0.5667
84.4890 23.7514 0.5691
84.5090 23.7381 0.5669
84.5290 23.7247 0.5651
84.5490 23.7115 0.5676
84.5690 23.6982 0.5668
84.5890 23.6848 0.5645
84.6090 23.6714 0.5655
84.6290 23.6581 0.5650
84.6490 23.6448 0.5648
84.6690 23.6315 0.5663
84.6890 23.6181 0.5627
84.7090 23.6047 0.5626
84.7290 23.5914 0.5619
84.7490 23.5781 0.5642
84.7690 23.5648 0.5613
84.7890 23.5514 0.5644
84.8090 23.5381 0.5620
84.8290 23.5248 0.5625
84.8490 23.5114 0.5628
84.8690 23.4981 0.5631
84.8890 23.4847 0.5595
84.9090 23.4715 0.5613
84.9290 23.4582 0.5620
84.9490 23.4448 0.5612
84.9690 23.4314 0.5606
84.9890 23.4181 0.5574
85.0090 23.4048 0.5571
85.0290 23.3914 0.5580
85.0490 23.3780 0.5579
85.0690 23.3647 0.5556
85.0890 23.3514 0.5581
85.1090 23.3381 0.5568
85.1290 23.3247 0.5536
85.1490 23.3114 0.5570
85.1690 23.2981 0.5553
85.1890 23.2848 0.5528
85.2090 23.2714 0.5550
85.2290 23.2581 0.5550
85.2490 23.2447 0.5535
85.2690 23.2315 0.5547
85.2890 23.2181 0.5539
85.3090 23.2048 0.5513
85.3290 23.1914 0.5549
85.3490 23.1781 0.5548
85.3690 23.1648 0.5517
85.3890 23.1514 0.5534
85.4090 23.1381 0.5527
85.4290 23.1247 0.5498
85.4490 23.1114 0.5521
85.4690 23.0981 0.5508
85.4890 23.0847 0.5496
85.5090 23.0714 0.5518
85.5290 23.0581 0.5511
85.5490 23.0448 0.5484
85.5690 23.0314 0.5486
85.5890 23.0181 0.5488
85.6090 23.0048 0.5458
85.6290 22.9915 0.5475
85.6490 22.9781 0.5479
85.6690 22.9648 0.5480
85.6890 22.9514 0.5474
85.7090 22.9381 0.5468
85.7290 22.9248 0.5444
85.7490 22.9114 0.5468
85.7690 22.8981 0.5456
85.7890 22.8847 0.5457
85.8090 22.8714 0.5448
85.8290 22.8581 0.5449
85.8490 22.8448 0.5444
85.8690 22.8314 0.5429
85.8890 22.8181 0.5450
85.9090 22.8047 0.5407
85.9290 22.7914 0.5446
85.9490 22.7781 0.5408
85.9690 22.7647 0.5412
85.9890 22.7514 0.5408
86.0090 22.7381 0.5422
86.0290 22.7248 0.5394
86.0490 22.7115 0.5402
86.0690 22.6981 0.5403
86.0890 22.6848 0.5371
86.1090 22.6715 0.5394
86.1290 22.6581 0.5400
86.1490 22.6447 0.5385
86.1690 22.6314 0.5373
86.1890 22.6181 0.5394
86.2090 22.6048 0.5361
86.2290 22.5914 0.5380
86.2490 22.5780 0.5384
86.2690 22.5647 0.5359
86.2890 22.5514 0.5371
86.3090 22.5381 0.5358
86.3290 22.5248 0.5337
86.3490 22.5114 0.5340
86.3690 22.4981 0.5351
86.3890 22.4848 0.5316
86.4090 22.4715 0.5356
86.4290 22.4581 0.5348
86.4490 22.4448 0.5320
86.4690 22.4314 0.5311
86.4890 22.4181 0.5316
86.5090 22.4047 0.5320
86.5290 22.3914 0.5332
86.5490 22.3781 0.5344
86.5690 22.3647 0.5315
86.5890 22.3514 0.5331
86.6090 22.3380 0.5337
86.6290 22.3247 0.5307
86.6490 22.3114 0.5290
86.6690 22.2981 0.5300
86.6890 22.2847 0.5280
86.7090 22.2714 0.5318
86.7290 22.2582 0.5314
86.7490 22.2448 0.5272
86.7690 22.2315 0.5286
86.7890 22.2181 0.5312
86.8090 22.2048 0.5272
86.8290 22.1914 0.5251
86.8490 22.1781 0.5250
86.8690 22.1647 0.5265
86.8890 22.1514 0.5264
86.9090 22.1381 0.5267
86.9290 22.1247 0.5251
86.9490 22.1114 0.5272
86.9690 22.0980 0.5270
86.9890 22.0847 0.5257
87.0090 22.0714 0.5259
87.0290 22.0581 0.5260
87.0490 22.0447 0.5220
87.0690 22.0314 0.5243
87.0890 22.0182 0.5244
87.1090 22.0048 0.5219
87.1290 21.9915 0.5239
87.1490 21.9781 0.5222
87.1690 21.9648 0.5220
87.1890 21.9515 0.5212
87.2090 21.9381 0.5228
87.2290 21.9247 0.5190
87.2490 21.9114 0.5203
87.2690 21.8981 0.5206
87.2890 21.8847 0.5181
87.3090 21.8714 0.5178
87.3290 21.8580 0.5190
87.3490 21.8447 0.5191
87.3690 21.8314 0.5197
87.3890 21.8181 0.5208
87.4090 21.8047 0.5177
87.4290 21.7914 0.5158
87.4490 21.7781 0.5174
87.4690 21.7648 0.5165
87.4890 21.7515 0.5155
87.5090 21.7381 0.5169
87.5290 21.7248 0.5146
87.5490 21.7115 0.5162
87.5690 21.6981 0.5168
87.5890 21.6848 0.5144
87.6090 21.6714 0.5130
87.6290 21.6581 0.5137
87.6490 21.6448 0.5134
87.6690 21.6314 0.5140
87.6890 21.6180 0.5143
87.7090 21.6047 0.5129
87.7290 21.5914 0.5122
87.7490 21.5781 0.5124
87.7690 21.5647 0.5128
87.7890 21.5514 0.5121
87.8090 21.5381 0.5140
87.8290 21.5248 0.5120
87.8490 21.5115 0.5123
87.8690 21.4981 0.5117
87.8890 21.4848 0.5102
87.9090 21.4715 0.5096
87.9290 21.4581 0.5100
87.9490 21.4447 0.5081
87.9690 21.4314 0.5084
87.9890 21.4181 0.5103
88.0090 21.4048 0.5071
88.0290 21.3914 0.5077
88.0490 21.3780 0.5072
88.0690 21.3647 0.5062
88.0890 21.3514 0.5066
88.1090 21.3381 0.5079
88.1290 21.3247 0.5051
88.1490 21.3114 0.5051
88.1690 21.2981 0.5058
88.1890 21.2848 0.5053
88.2090 21.2715 0.5038
88.2290 21.2581 0.5049
88.2490 21.2448 0.5042
88.2690 21.2315 0.5025
88.2890 21.2181 0.5049
88.3090 21.2047 0.5027
88.3290 21.1914 0.5047
88.3490 21.1780 0.5042
88.3690 21.1647 0.5013
88.3890 21.1514 0.5016
88.4090 21.1380 0.5039
88.4290 21.1247 0.5001
88.4490 21.1114 0.5011
88.4690 21.0981 0.5011
88.4890 21.0848 0.5000
88.5090 21.0715 0.4996
88.5290 21.0582 0.4989
88.5490 21.0448 0.4978
88.5690 21.0315 0.4977
88.5890 21.0181 0.5001
88.6090 21.0048 0.4973
88.6290 20.9914 0.4977
88.6490 20.9781 0.4976
88.6690 20.9647 0.4983
88.6890 20.9514 0.4975
88.7090 20.9381 0.4986
88.7290 20.9248 0.4953
88.7490 20.9114 0.4957
88.7690 20.8980 0.4971
88.7890 20.8847 0.4981
88.8090 20.8714 0.4960
88.8290 20.8581 0.4958
88.8490 20.8448 0.4945
88.8690 20.8314 0.4942
88.8890 20.8181 0.4970
88.9090 20.8048 0.4960
88.9290 20.7915 0.4939
88.9490 20.7781 0.4943
88.9690 20.7648 0.4908
88.9890 20.7515 0.4914
89.0090 20.7381 0.4903
89.0290 20.7247 0.4913
89.0490 20.7114 0.4915
89.0690 20.6981 0.4938
89.0890 20.6847 0.4915
89.1090 20.6714 0.4918
89.1290 20.6580 0.4933
89.1490 20.6447 0.4917
89.1690 20.6314 0.4893
89.1890 20.6181 0.4912
89.2090 20.6047 0.4898
89.2290 20.5914 0.4881
89.2490 20.5781 0.4879
89.2690 20.5648 0.4890
89.2890 20.5515 0.4896
89.3090 20.5381 0.4900
89.3290 20.5248 0.4879
89.3490 20.5114 0.4858
89.3690 20.4981 0.4880
89.3890 20.4847 0.4866
89.4090 20.4714 0.4870
89.4290 20.4580 0.4855
89.4490 20.4447 0.4842
89.4690 20.4314 0.4858
89.4890 20.4180 0.4857
89.5090 20.4047 0.4851
89.5290 20.3914 0.4851
89.5490 20.3781 0.4854
89.5690 20.3648 0.4840
89.5890 20.3514 0.4839
89.6090 20.3381 0.4830
89.6290 20.3248 0.4839
89.6490 20.3115 0.4815
89.6690 20.2981 0.4845
89.6890 20.2848 0.4844
89.7090 20.2714 0.4808
89.7290 20.2581 0.4816
89.7490 20.2447 0.4808
89.7690 20.2314 0.4813
89.7890 20.2181 0.4813
89.8090 20.2048 0.4799
89.8290 20.1914 0.4790
89.8490 20.1781 0.4805
89.8690 20.1647 0.4827
89.8890 20.1514 0.4795
89.9090 20.1381 0.4790
89.9290 20.1247 0.4773
89.9490 20.1114 0.4773
89.9690 20.0981 0.4797
89.9890 20.0849 0.4783
90.0090 20.0715 0.4775
90.0290 20.0581 0.4757
90.0490 20.0448 0.4765
90.0690 20.0315 0.4749
90.0890 20.0181 0.4757
90.1090 20.0047 0.4750
90.1290 19.9914 0.4768
90.1490 19.9780 0.4761
90.1690 19.9647 0.4754
90.1890 19.9514 0.4732
90.2090 19.9380 0.4744
90.2290 19.9247 0.4754
90.2490 19.9114 0.4747
90.2690 19.8981 0.4754
90.2890 19.8848 0.4747
90.3090 19.8714 0.4726
90.3290 19.8581 0.4727
90.3490 19.8448 0.4731
90.3690 19.8315 0.4733
90.3890 19.8181 0.4729
90.4090 19.8048 0.4723
90.4290 19.7915 0.4690
90.4490 19.7781 0.4736
90.4690 19.7647 0.4706
90.4890 19.7513 0.4705
90.5090 19.7380 0.4711
90.5290 19.7247 0.4708
90.5490 19.7114 0.4685
90.5690 19.6980 0.4692
90.5890 19.6847 0.4678
90.6090 19.6714 0.4678
90.6290 19.6581 0.4678
90.6490 19.6448 0.4694
90.6690 19.6314 0.4665
90.6890 19.6181 0.4680
90.7090 19.6048 0.4668
90.7290 19.5915 0.4657
90.7490 19.5781 0.4676
90.7690 19.5647 0.4673
90.7890 19.5514 0.4650
90.8090 19.5381 0.4646
90.8290 19.5247 0.4646
90.8490 19.5114 0.4649
90.8690 19.4981 0.4662
90.8890 19.4848 0.4650
90.9090 19.4714 0.4648
90.9290 19.4581 0.4638
90.9490 19.4447 0.4655
90.9690 19.4314 0.4617
90.9890 19.4181 0.4645
91.0090 19.4047 0.4632
91.0290 19.3914 0.4624
91.0490 19.3781 0.4628
91.0690 19.3648 0.4619
91.0890 19.3515 0.4626
91.1090 19.3381 0.4622
91.1290 19.3248 0.4622
91.1490 19.3115 0.4600
91.1690 19.2981 0.4607
91.1890 19.2848 0.4598
91.2090 19.2714 0.4580
91.2290 19.2580 0.4586
91.2490 19.2447 0.4612
91.2690 19.2314 0.4589
91.2890 19.2180 0.4602
91.3090 19.2047 0.4578
91.3290 19.1914 0.4562
91.3490 19.1781 0.4577
91.3690 19.1647 0.4574
91.3890 19.1514 0.4571
91.4090 19.1381 0.4562
91.4290 19.1248 0.4566
91.4490 19.1115 0.4564
91.4690 19.0981 0.4568
91.4890 19.0848 0.4562
91.5090 19.0715 0.4571
91.5290 19.0581 0.4570
91.5490 19.0448 0.4562
91.5690 19.0314 0.4519
91.5890 19.0181 0.4516
91.6090 19.0047 0.4533
91.6290 18.9914 0.4534
91.6490 18.9781 0.4541
91.6690 18.9647 0.4534
91.6890 18.9514 0.4525
91.7090 18.9381 0.4539
91.7290 18.9248 0.4536
91.7490 18.9114 0.4522
91.7690 18.8981 0.4501
91.7890 18.8848 0.4509
91.8090 18.8715 0.4494
91.8290 18.8581 0.4515
91.8490 18.8448 0.4516
91.8690 18.8314 0.4518
91.8890 18.8181 0.4495
91.9090 18.8048 0.4506
91.9290 18.7914 0.4488
91.9490 18.7781 0.4520
91.9690 18.7648 0.4485
91.9890 18.7514 0.4486
92.0090 18.7381 0.4461
92.0290 18.7247 0.4488
92.0490 18.7114 0.4455
92.0690 18.6981 0.4480
92.0890 18.6847 0.4464
92.1090 18.6714 0.4450
92.1290 18.6581 0.4481
92.1490 18.6448 0.4473
92.1690 18.6315 0.4456
92.1890 18.6181 0.4443
92.2090 18.6048 0.4451
92.2290 18.5914 0.4453
92.2490 18.5781 0.4443
92.2690 18.5648 0.4443
92.2890 18.5514 0.4439
92.3090 18.5380 0.4440
92.3290 18.5247 0.4454
92.3490 18.5114 0.4437
92.3690 18.4981 0.4436
92.3890 18.4847 0.4427
92.4090 18.4714 0.4424
92.4290 18.4581 0.4430
92.4490 18.4448 0.4416
92.4690 18.4314 0.4405
92.4890 18.4181 0.4413
92.5090 18.4048 0.4426
92.5290 18.3915 0.4417
92.5490 18.3781 0.4399
92.5690 18.3647 0.4411
92.5890 18.3514 0.4391
92.6090 18.3381 0.4397
92.6290 18.3248 0.4391
92.6490 18.3114 0.4384
92.6690 18.2980 0.4392
92.6890 18.2847 0.4386
92.7090 18.2714 0.4373
92.7290 18.2581 0.4383
92.7490 18.2447 0.4379
92.7690 18.2314 0.4386
92.7890 18.2181 0.4369
92.8090 18.2048 0.4369
92.8290 18.1914 0.4354
92.8490 18.1781 0.4372
92.8690 18.1648 0.4366
92.8890 18.1514 0.4352
92.9090 18.1381 0.4352
92.9290 18.1247 0.4362
92.9490 18.1114 0.4327
92.9690 18.0981 0.4345
92.9890 18.0848 0.4332
93.0090 18.0714 0.4331
93.0290 18.0581 0.4317
93.0490 18.0447 0.4329
93.0690 18.0314 0.4326
93.0890 18.0181 0.4335
93.1090 18.0047 0.4348
93.1290 17.9914 0.4314
93.1490 17.9781 0.4316
93.1690 17.9647 0.4338
93.1890 17.9514 0.4321
93.2090 17.9381 0.4310
93.2290 17.9248 0.4315
93.2490 17.9115 0.4303
93.2690 17.8981 0.4305
93.2890 17.8848 0.4302
93.3090 17.8715 0.4308
93.3290 17.8582 0.4295
93.3490 17.8448 0.4296
93.3690 17.8314 0.4279
93.3890 17.8180 0.4283
93.4090 17.8047 0.4294
93.4290 17.7914 0.4295
93.4490 17.7780 0.4281
93.4690 17.7647 0.4271
93.4890 17.7513 0.4275
93.5090 17.7381 0.4270
93.5290 17.7248 0.4280
93.5490 17.7114 0.4265
93.5690 17.6981 0.4261
93.5890 17.6848 0.4252
93.6090 17.6715 0.4236
93.6290 17.6582 0.4232
93.6490 17.6448 0.4240
93.6690 17.6314 0.4226
93.6890 17.6181 0.4220
93.7090 17.6048 0.4260
93.7290 17.5914 0.4250
93.7490 17.5780 0.4241
93.7690 17.5647 0.4230
93.7890 17.5514 0.4229
93.8090 17.5381 0.4221
93.8290 17.5247 0.4222
93.8490 17.5114 0.4211
93.8690 17.4981 0.4197
93.8890 17.4848 0.4204
93.9090 17.4714 0.4200
93.9290 17.4581 0.4190
93.9490 17.4448 0.4209
93.9690 17.4315 0.4192
93.9890 17.4181 0.4205
94.0090 17.4048 0.4199
94.0290 17.3915 0.4190
94.0490 17.3781 0.4194
94.0690 17.3648 0.4203
94.0890 17.3514 0.4193
94.1090 17.3381 0.4199
94.1290 17.3247 0.4170
94.1490 17.3114 0.4166
94.1690 17.2981 0.4171
94.1890 17.2847 0.4183
94.2090 17.2714 0.4158
94.2290 17.2581 0.4143
94.2490 17.2447 0.4132
94.2690 17.2314 0.4162
94.2890 17.2181 0.4176
94.3090 17.2048 0.4164
94.3290 17.1915 0.4162
94.3490 17.1782 0.4155
94.3690 17.1648 0.4128
94.3890 17.1514 0.4140
94.4090 17.1381 0.4145
94.4290 17.1248 0.4135
94.4490 17.1114 0.4126
94.4690 17.0980 0.4147
94.4890 17.0847 0.4124
94.5090 17.0714 0.4130
94.5290 17.0580 0.4124
94.5490 17.0447 0.4126
94.5690 17.0314 0.4131
94.5890 17.0181 0.4108
94.6090 17.0047 0.4100
94.6290 16.9914 0.4120
94.6490 16.9780 0.4130
94.6690 16.9648 0.4109
94.6890 16.9515 0.4114
94.7090 16.9381 0.4097
94.7290 16.9248 0.4108
94.7490 16.9114 0.4086
94.7690 16.8981 0.4072
94.7890 16.8848 0.4071
94.8090 16.8715 0.4087
94.8290 16.8581 0.4073
94.8490 16.8447 0.4064
94.8690 16.8314 0.4063
94.8890 16.8181 0.4054
94.9090 16.8047 0.4065
94.9290 16.7913 0.4078
94.9490 16.7780 0.4076
94.9690 16.7647 0.4078
94.9890 16.7514 0.4085
95.0090 16.7381 0.4073
95.0290 16.7248 0.4054
95.0490 16.7115 0.4055
95.0690 16.6982 0.4037
95.0890 16.6848 0.4040
95.1090 16.6714 0.4045
95.1290 16.6581 0.4039
95.1490 16.6448 0.4038
95.1690 16.6314 0.4053
95.1890 16.6181 0.4040
95.2090 16.6048 0.4035
95.2290 16.5915 0.4017
95.2490 16.5781 0.4009
95.2690 16.5647 0.4008
95.2890 16.5514 0.4023
95.3090 16.5380 0.4025
95.3290 16.5247 0.4035
95.3490 16.5114 0.4011
95.3690 16.4981 0.4021
95.3890 16.4848 0.3996
95.4090 16.4715 0.4013
95.4290 16.4582 0.3988
95.4490 16.4448 0.3985
95.4690 16.4315 0.4011
95.4890 16.4181 0.4016
95.5090 16.4048 0.4003
95.5290 16.3914 0.4017
95.5490 16.3780 0.3990
95.5690 16.3647 0.3979
95.5890 16.3514 0.3973
95.6090 16.3381 0.3959
95.6290 16.3247 0.3965
95.6490 16.3113 0.3956
95.6690 16.2981 0.3952
95.6890 16.2848 0.3951
95.7090 16.2714 0.3972
95.7290 16.2581 0.3970
95.7490 16.2448 0.3952
95.7690 16.2315 0.3954
95.7890 16.2181 0.3933
95.8090 16.2048 0.3943
95.8290 16.1914 0.3950
95.8490 16.1781 0.3963
95.8690 16.1648 0.3948
95.8890 16.1514 0.3932
95.9090 16.1380 0.3930
95.9290 16.1247 0.3902
95.9490 16.1114 0.3924
95.9690 16.0981 0.3921
95.9890 16.0847 0.3915
96.0090 16.0714 0.3920
96.0290 16.0581 0.3907
96.0490 16.0448 0.3883
96.0690 16.0314 0.3905
96.0890 16.0181 0.3898
96.1090 16.0048 0.3919
96.1290 15.9915 0.3898
96.1490 15.9781 0.3910
96.1690 15.9648 0.3891
96.1890 15.9514 0.3903
96.2090 15.9381 0.3881
96.2290 15.9248 0.3891
96.2490 15.9114 0.3882
96.2690 15.8981 0.3896
96.2890 15.8847 0.3866
96.3090 15.8714 0.3879
96.3290 15.8581 0.3862
96.3490 15.8447 0.3884
96.3690 15.8314 0.3885
96.3890 15.8181 0.3876
96.4090 15.8048 0.3849
96.4290 15.7914 0.3867
96.4490 15.7781 0.3853
96.4690 15.7648 0.3865
96.4890 15.7515 0.3881
96.5090 15.7382 0.3856
96.5290 15.7248 0.3839
96.5490 15.7114 0.3856
96.5690 15.6981 0.3839
96.5890 15.6848 0.3834
96.6090 15.6714 0.3834
96.6290 15.6581 0.3821
96.6490 15.6447 0.3826
96.6690 15.6314 0.3815
96.6890 15.6181 0.3814
96.7090 15.6047 0.3799
96.7290 15.5914 0.3816
96.7490 15.5781 0.3807
96.7690 15.5648 0.3812
96.7890 15.5514 0.3797
96.8090 15.5381 0.3824
96.8290 15.5248 0.3795
96.8490 15.5115 0.3825
96.8690 15.4982 0.3791
96.8890 15.4848 0.3779
96.9090 15.4714 0.3791
96.9290 15.4581 0.3804
96.9490 15.4447 0.3793
96.9690 15.4314 0.3784
96.9890 15.4180 0.3785
97.0090 15.4047 0.3775
97.0290 15.3914 0.3776
97.0490 15.3781 0.3788
97.0690 15.3647 0.3780
97.0890 15.3514 0.3789
97.1090 15.3380 0.3774
97.1290 15.3247 0.3776
97.1490 15.3114 0.3787
97.1690 15.2981 0.3781
97.1890 15.2848 0.3752
97.2090 15.2715 0.3753
97.2290 15.2582 0.3745
97.2490 15.2448 0.3734
97.2690 15.2314 0.3732
97.2890 15.2181 0.3744
97.3090 15.2048 0.3724
97.3290 15.1914 0.3748
97.3490 15.1780 0.3733
97.3690 15.1647 0.3749
97.3890 15.1514 0.3736
97.4090 15.1381 0.3723
97.4290 15.1247 0.3723
97.4490 15.1114 0.3737
97.4690 15.0980 0.3706
97.4890 15.0848 0.3707
97.5090 15.0714 0.3698
97.5290 15.0581 0.3702
97.5490 15.0448 0.3701
97.5690 15.0315 0.3709
97.5890 15.0182 0.3703
97.6090 15.0048 0.3702
97.6290 14.9915 0.3719
97.6490 14.9781 0.3683
97.6690 14.9648 0.3680
97.6890 14.9514 0.3699
97.7090 14.9380 0.3695
97.7290 14.9247 0.3688
97.7490 14.9114 0.3684
97.7690 14.8981 0.3676
97.7890 14.8847 0.3667
97.8090 14.8714 0.3660
97.8290 14.8581 0.3680
97.8490 14.8448 0.3669
97.8690 14.8315 0.3659
97.8890 14.8181 0.3676
97.9090 14.8048 0.3632
97.9290 14.7915 0.3661
97.9490 14.7782 0.3666
97.9690 14.7648 0.3658
97.9890 14.7514 0.3662
98.0090 14.7381 0.3636
98.0290 14.7248 0.3620
98.0490 14.7114 0.3637
98.0690 14.6981 0.3642
98.0890 14.6847 0.3637
98.1090 14.6714 0.3632
98.1290 14.6581 0.3606
98.1490 14.6448 0.3638
98.1690 14.6314 0.3627
98.1890 14.6180 0.3621
98.2090 14.6047 0.3603
98.2290 14.5914 0.3601
98.2490 14.5781 0.3636
98.2690 14.5647 0.3628
98.2890 14.5514 0.3595
98.3090 14.5381 0.3630
98.3290 14.5248 0.3616
98.3490 14.5115 0.3601
98.3690 14.4981 0.3611
98.3890 14.4848 0.3588
98.4090 14.4714 0.3592
98.4290 14.4580 0.3611
98.4490 14.4447 0.3583
98.4690 14.4314 0.3587
98.4890 14.4181 0.3579
98.5090 14.4047 0.3569
98.5290 14.3913 0.3581
98.5490 14.3780 0.3570
98.5690 14.3647 0.3567
98.5890 14.3514 0.3556
98.6090 14.3380 0.3565
98.6290 14.3247 0.3553
98.6490 14.3114 0.3537
98.6690 14.2981 0.3552
98.6890 14.2848 0.3560
98.7090 14.2714 0.3551
98.7290 14.2581 0.3545
98.7490 14.2448 0.3530
98.7690 14.2314 0.3549
98.7890 14.2181 0.3534
98.8090 14.2047 0.3538
98.8290 14.1914 0.3534
98.8490 14.1781 0.3513
98.8690 14.1647 0.3530
98.8890 14.1514 0.3518
98.9090 14.1381 0.3529
98.9290 14.1248 0.3517
98.9490 14.1114 0.3516
98.9690 14.0981 0.3516
98.9890 14.0847 0.3511
99.0090 14.0715 0.3502
99.0290 14.0582 0.3503
99.0490 14.0448 0.3504
99.0690 14.0314 0.3508
99.0890 14.0181 0.3496
99.1090 14.0048 0.3489
99.1290 13.9915 0.3476
99.1490 13.9781 0.3496
99.1690 13.9647 0.3498
99.1890 13.9514 0.3492
99.2090 13.9381 0.3482
99.2290 13.9248 0.3478
99.2490 13.9114 0.3484
99.2690 13.8981 0.3479
99.2890 13.8847 0.3458
99.3090 13.8714 0.3454
99.3290 13.8581 0.3460
99.3490 13.8448 0.3446
99.3690 13.8315 0.3444
99.3890 13.8182 0.3464
99.4090 13.8048 0.3463
99.4290 13.7914 0.3449
99.4490 13.7781 0.3451
99.4690 13.7648 0.3423
99.4890 13.7514 0.3441
99.5090 13.7381 0.3442
99.5290 13.7247 0.3426
99.5490 13.7114 0.3428
99.5690 13.6981 0.3436
99.5890 13.6848 0.3409
99.6090 13.6714 0.3415
99.6290 13.6581 0.3438
99.6490 13.6448 0.3431
99.6690 13.6314 0.3414
99.6890 13.6181 0.3426
99.7090 13.6048 0.3412
99.7290 13.5914 0.3401
99.7490 13.5781 0.3414
99.7690 13.5648 0.3392
99.7890 13.5514 0.3392
99.8090 13.5381 0.3417
99.8290 13.5248 0.3381
99.8490 13.5114 0.3390
99.8690 13.4981 0.3379
99.8890 13.4847 0.3407
99.9090 13.4714 0.3377
99.9290 13.4581 0.3389
99.9490 13.4447 0.3368
99.9690 13.4314 0.3368
99.9890 13.4180 0.3352
100.0090 13.4047 0.3358
100.0290 13.3914 0.3351
100.0490 13.3781 0.3355
100.0690 13.3648 0.3341
100.0890 13.3515 0.3351
100.1090 13.3381 0.3375
100.1290 13.3248 0.3361
100.1490 13.3114 0.3352
100.1690 13.2981 0.3354
100.1890 13.2848 0.3327
100.2090 13.2714 0.3332
100.2290 13.2581 0.3363
100.2490 13.2447 0.3345
100.2690 13.2314 0.3327
100.2890 13.2181 0.3317
100.3090 13.2048 0.3313
100.3290 13.1914 0.3316
100.3490 13.1780 0.3329
100.3690 13.1647 0.3320
100.3890 13.1514 0.3305
100.4090 13.1381 0.3302
100.4290 13.1247 0.3304
100.4490 13.1114 0.3305
100.4690 13.0981 0.3312
100.4890 13.0848 0.3310
100.5090 13.0715 0.3287
100.5290 13.0581 0.3311
100.5490 13.0448 0.3284
100.5690 13.0315 0.3281
100.5890 13.0181 0.3300
100.6090 13.0047 0.3291
100.6290 12.9914 0.3282
100.6490 12.9781 0.3293
100.6690 12.9647 0.3293
100.6890 12.9514 0.3259
100.7090 12.9380 0.3267
100.7290 12.9247 0.3254
100.7490 12.9114 0.3265
100.7690 12.8981 0.3249
100.7890 12.8848 0.3249
100.8090 12.8714 0.3241
100.8290 12.8581 0.3260
100.8490 12.8448 0.3224
100.8690 12.8315 0.3238
100.8890 12.8181 0.3247
100.9090 12.8048 0.3250
100.9290 12.7914 0.3235
100.9490 12.7781 0.3249
100.9690 12.7647 0.3232
100.9890 12.7514 0.3209
101.0090 12.7381 0.3221
101.0290 12.7247 0.3215
101.0490 12.7114 0.3207
101.0690 12.6980 0.3225
101.0890 12.6847 0.3205
101.1090 12.6714 0.3202
101.1290 12.6581 0.3219
101.1490 12.6447 0.3202
101.1690 12.6314 0.3199
101.1890 12.6181 0.3199
101.2090 12.6048 0.3175
101.2290 12.5915 0.3187
101.2490 12.5781 0.3192
101.2690 12.5648 0.3194
101.2890 12.5515 0.3152
101.3090 12.5381 0.3189
101.3290 12.5247 0.3178
101.3490 12.5114 0.3168
101.3690 12.4981 0.3180
101.3890 12.4847 0.3162
101.4090 12.4714 0.3143
101.4290 12.4580 0.3156
101.4490 12.4447 0.3140
101.4690 12.4314 0.3147
101.4890 12.4181 0.3170
101.5090 12.4047 0.3141
101.5290 12.3914 0.3147
101.5490 12.3782 0.3152
101.5690 12.3649 0.3127
101.5890 12.3515 0.3127
101.6090 12.3381 0.3149
101.6290 12.3248 0.3143
101.6490 12.3115 0.3117
101.6690 12.2981 0.3155
101.6890 12.2847 0.3125
101.7090 12.2714 0.3129
101.7290 12.2580 0.3118
101.7490 12.2447 0.3117
101.7690 12.2314 0.3097
101.7890 12.2180 0.3112
101.8090 12.2047 0.3113
101.8290 12.1914 0.3100
101.8490 12.1781 0.3087
101.8690 12.1647 0.3101
101.8890 12.1514 0.3095
101.9090 12.1381 0.3110
101.9290 12.1248 0.3124
101.9490 12.1114 0.3092
101.9690 12.0981 0.3097
101.9890 12.0848 0.3081
102.0090 12.0715 0.3083
102.0290 12.0581 0.3083
102.0490 12.0448 0.3076
102.0690 12.0314 0.3060
102.0890 12.0181 0.3087
102.1090 12.0048 0.3068
102.1290 11.9914 0.3060
102.1490 11.9780 0.3074
102.1690 11.9647 0.3071
102.1890 11.9514 0.3047
102.2090 11.9381 0.3054
102.2290 11.9247 0.3037
102.2490 11.9114 0.3036
102.2690 11.8981 0.3050
102.2890 11.8848 0.3053
102.3090 11.8715 0.3036
102.3290 11.8581 0.3035
102.3490 11.8448 0.3047
102.3690 11.8315 0.3027
102.3890 11.8181 0.3018
102.4090 11.8048 0.3010
102.4290 11.7914 0.3002
102.4490 11.7781 0.3014
102.4690 11.7648 0.3005
102.4890 11.7514 0.3009
102.5090 11.7380 0.3024
102.5290 11.7247 0.2997
102.5490 11.7114 0.2984
102.5690 11.6981 0.2992
102.5890 11.6848 0.2987
102.6090 11.6714 0.2980
102.6290 11.6581 0.2998
102.6490 11.6448 0.3022
102.6690 11.6315 0.2987
102.6890 11.6181 0.2995
102.7090 11.6048 0.2988
102.7290 11.5915 0.2965
102.7490 11.5781 0.2974
102.7690 11.5647 0.2978
102.7890 11.5514 0.2965
102.8090 11.5380 0.2962
102.8290 11.5247 0.2968
102.8490 11.5114 0.2964
102.8690 11.4980 0.2932
102.8890 11.4847 0.2956
102.9090 11.4714 0.2931
102.9290 11.4581 0.2951
102.9490 11.4448 0.2950
102.9690 11.4315 0.2939
102.9890 11.4182 0.2935
103.0090 11.4048 0.2934
103.0290 11.3915 0.2919
103.0490 11.3781 0.2931
103.0690 11.3648 0.2932
103.0890 11.3514 0.2906
103.1090 11.3381 0.2906
103.1290 11.3247 0.2929
103.1490 11.3114 0.2899
103.1690 11.2981 0.2923
103.1890 11.2848 0.2943
103.2090 11.2714 0.2893
103.2290 11.2581 0.2900
103.2490 11.2447 0.2901
103.2690 11.2314 0.2895
103.2890 11.2181 0.2905
103.3090 11.2047 0.2897
103.3290 11.1914 0.2873
103.3490 11.1781 0.2886
103.3690 11.1648 0.2888
103.3890 11.1515 0.2867
103.4090 11.1381 0.2857
103.4290 11.1248 0.2892
103.4490 11.1114 0.2846
103.4690 11.0981 0.2870
103.4890 11.0847 0.2866
103.5090 11.0714 0.2845
103.5290 11.0581 0.2847
103.5490 11.0448 0.2857
103.5690 11.0314 0.2840
103.5890 11.0181 0.2852
103.6090 11.0047 0.2851
103.6290 10.9914 0.2840
103.6490 10.9781 0.2812
103.6690 10.9648 0.2817
103.6890 10.9514 0.2808
103.7090 10.9381 0.2836
103.7290 10.9248 0.2853
103.7490 10.9115 0.2830
103.7690 10.8981 0.2828
103.7890 10.8847 0.2817
103.8090 10.8714 0.2813
103.8290 10.8581 0.2816
103.8490 10.8447 0.2800
103.8690 10.8314 0.2802
103.8890 10.8180 0.2814
103.9090 10.8047 0.2815
103.9290 10.7914 0.2796
103.9490 10.7780 0.2789
103.9690 10.7647 0.2787
103.9890 10.7514 0.2766
104.0090 10.7381 0.2789
104.0290 10.7248 0.2791
104.0490 10.7114 0.2775
104.0690 10.6981 0.2760
104.0890 10.6848 0.2775
104.1090 10.6715 0.2771
104.1290 10.6581 0.2791
104.1490 10.6447 0.2767
104.1690 10.6314 0.2749
104.1890 10.6181 0.2747
104.2090 10.6047 0.2767
104.2290 10.5914 0.2746
104.2490 10.5780 0.2749
104.2690 10.5647 0.2750
104.2890 10.5514 0.2741
104.3090 10.5380 0.2752
104.3290 10.5247 0.2749
104.3490 10.5114 0.2736
104.3690 10.4981 0.2733
104.3890 10.4848 0.2738
104.4090 10.4714 0.2713
104.4290 10.4581 0.2732
104.4490 10.4448 0.2737
104.4690 10.4315 0.2725
104.4890 10.4181 0.2684
104.5090 10.4048 0.2718
104.5290 10.3915 0.2705
104.5490 10.3781 0.2728
104.5690 10.3647 0.2716
104.5890 10.3514 0.2695
104.6090 10.3380 0.2703
104.6290 10.3247 0.2705
104.6490 10.3114 0.2696
104.6690 10.2980 0.2696
104.6890 10.2847 0.2694
104.7090 10.2714 0.2674
104.7290 10.2581 0.2680
104.7490 10.2448 0.2683
104.7690 10.2314 0.2673
104.7890 10.2181 0.2664
104.8090 10.2048 0.2666
104.8290 10.1915 0.2638
104.8490 10.1782 0.2657
104.8690 10.1648 0.2673
104.8890 10.1515 0.2641
104.9090 10.1381 0.2644
104.9290 10.1247 0.2644
104.9490 10.1114 0.2637
104.9690 10.0980 0.2631
104.9890 10.0847 0.2640
105.0090 10.0714 0.2628
105.0290 10.0580 0.2628
105.0490 10.0447 0.2640
105.0690 10.0314 0.2606
105.0890 10.0181 0.2600
105.1090 10.0048 0.2613
105.1290 9.9914 0.2590
105.1490 9.9781 0.2608
105.1690 9.9648 0.2619
105.1890 9.9515 0.2598
105.2090 9.9381 0.2590
105.2290 9.9248 0.2603
105.2490 9.9114 0.2583
105.2690 9.8981 0.2571
105.2890 9.8847 0.2591
105.3090 9.8714 0.2577
105.3290 9.8581 0.2598
105.3490 9.8448 0.2609
105.3690 9.8315 0.2581
105.3890 9.8181 0.2591
105.4090 9.8047 0.2571
105.4290 9.7914 0.2536
105.4490 9.7781 0.2556
105.4690 9.7647 0.2562
105.4890 9.7514 0.2553
105.5090 9.7381 0.2555
105.5290 9.7248 0.2554
105.5490 9.7115 0.2548
105.5690 9.6981 0.2541
105.5890 9.6848 0.2552
105.6090 9.6715 0.2535
105.6290 9.6581 0.2528
105.6490 9.6448 0.2543
105.6690 9.6314 0.2504
105.6890 9.6180 0.2506
105.7090 9.6047 0.2518
105.7290 9.5914 0.2498
105.7490 9.5780 0.2505
105.7690 9.5647 0.2527
105.7890 9.5514 0.2511
105.8090 9.5381 0.2503
105.8290 9.5247 0.2521
105.8490 9.5114 0.2484
105.8690 9.4981 0.2481
105.8890 9.4848 0.2490
105.9090 9.4715 0.2486
105.9290 9.4581 0.2481
105.9490 9.4448 0.2482
105.9690 9.4315 0.2467
105.9890 9.4181 0.2466
106.0090 9.4048 0.2458
106.0290 9.3914 0.2456
106.0490 9.3781 0.2460
106.0690 9.3648 0.2472
106.0890 9.3514 0.2462
106.1090 9.3381 0.2458
106.1290 9.3247 0.2477
106.1490 9.3114 0.2452
106.1690 9.2981 0.2440
106.1890 9.2847 0.2442
106.2090 9.2714 0.2414
106.2290 9.2581 0.2416
106.2490 9.2448 0.2436
106.2690 9.2315 0.2411
106.2890 9.2181 0.2410
106.3090 9.2047 0.2428
106.3290 9.1914 0.2438
106.3490 9.1781 0.2433
106.3690 9.1648 0.2400
106.3890 9.1514 0.2410
106.4090 9.1381 0.2387
106.4290 9.1247 0.2419
106.4490 9.1114 0.2380
106.4690 9.0981 0.2385
106.4890 9.0847 0.2379
106.5090 9.0714 0.2393
106.5290 9.0581 0.2368
106.5490 9.0447 0.2391
106.5690 9.0314 0.2386
106.5890 9.0181 0.2375
106.6090 9.0048 0.2366
106.6290 8.9915 0.2365
106.6490 8.9781 0.2352
106.6690 8.9648 0.2369
106.6890 8.9514 0.2355
106.7090 8.9381 0.2328
106.7290 8.9248 0.2349
106.7490 8.9114 0.2326
106.7690 8.8980 0.2342
106.7890 8.8847 0.2342
106.8090 8.8714 0.2349
106.8290 8.8581 0.2321
106.8490 8.8447 0.2331
106.8690 8.8314 0.2316
106.8890 8.8181 0.2309
106.9090 8.8048 0.2323
106.9290 8.7914 0.2326
106.9490 8.7781 0.2286
106.9690 8.7648 0.2315
106.9890 8.7515 0.2283
107.0090 8.7381 0.2290
107.0290 8.7247 0.2302
107.0490 8.7114 0.2314
107.0690 8.6981 0.2287
107.0890 8.6848 0.2301
107.1090 8.6714 0.2271
107.1290 8.6581 0.2272
107.1490 8.6447 0.2285
107.1690 8.6314 0.2271
107.1890 8.6181 0.2260
107.2090 8.6047 0.2294
107.2290 8.5914 0.2292
107.2490 8.5781 0.2258
107.2690 8.5648 0.2288
107.2890 8.5514 0.2246
107.3090 8.5381 0.2250
107.3290 8.5248 0.2239
107.3490 8.5115 0.2238
107.3690 8.4981 0.2204
107.3890 8.4848 0.2246
107.4090 8.4714 0.2232
107.4290 8.4581 0.2220
107.4490 8.4448 0.2234
107.4690 8.4314 0.2224
107.4890 8.4181 0.2218
107.5090 8.4047 0.2221
107.5290 8.3914 0.2220
107.5490 8.3781 0.2205
107.5690 8.3647 0.2219
107.5890 8.3514 0.2186
107.6090 8.3381 0.2190
107.6290 8.3247 0.2198
107.6490 8.3114 0.2197
107.6690 8.2981 0.2168
107.6890 8.2848 0.2191
107.7090 8.2715 0.2174
107.7290 8.2581 0.2166
107.7490 8.2448 0.2192
107.7690 8.2315 0.2181
107.7890 8.2182 0.2164
107.8090 8.2048 0.2176
107.8290 8.1914 0.2161
107.8490 8.1780 0.2140
107.8690 8.1647 0.2159
107.8890 8.1514 0.2124
107.9090 8.1380 0.2139
107.9290 8.1247 0.2146
107.9490 8.1113 0.2135
107.9690 8.0981 0.2120
107.9890 8.0848 0.2140
108.0090 8.0714 0.2142
108.0290 8.0581 0.2114
108.0490 8.0448 0.2129
108.0690 8.0315 0.2122
108.0890 8.0181 0.2120
108.1090 8.0048 0.2112
108.1290 7.9914 0.2107
108.1490 7.9781 0.2093
108.1690 7.9648 0.2111
108.1890 7.9514 0.2100
108.2090 7.9380 0.2104
108.2290 7.9247 0.2095
108.2490 7.9114 0.2086
108.2690 7.8981 0.2063
108.2890 7.8847 0.2072
108.3090 7.8713 0.2073
108.3290 7.8581 0.2047
108.3490 7.8448 0.2077
108.3690 7.8314 0.2052
108.3890 7.8181 0.2061
108.4090 7.8048 0.2043
108.4290 7.7915 0.2060
108.4490 7.7781 0.2035
108.4690 7.7648 0.2050
108.4890 7.7514 0.2057
108.5090 7.7381 0.2039
108.5290 7.7248 0.2032
108.5490 7.7114 0.2041
108.5690 7.6981 0.2016
108.5890 7.6847 0.2036
108.6090 7.6714 0.2026
108.6290 7.6581 0.2019
108.6490 7.6447 0.2018
108.6690 7.6314 0.2012
108.6890 7.6181 0.1997
108.7090 7.6047 0.2027
108.7290 7.5914 0.2028
108.7490 7.5781 0.1988
108.7690 7.5648 0.1995
108.7890 7.5515 0.2006
108.8090 7.5382 0.1981
108.8290 7.5248 0.1988
108.8490 7.5115 0.1983
108.8690 7.4981 0.1948
108.8890 7.4848 0.1960
108.9090 7.4714 0.1966
108.9290 7.4580 0.1974
108.9490 7.4447 0.1963
108.9690 7.4314 0.1961
108.9890 7.4181 0.1961
109.0090 7.4047 0.1954
109.0290 7.3914 0.1966
109.0490 7.3780 0.1925
109.0690 7.3647 0.1946
109.0890 7.3514 0.1915
109.1090 7.3381 0.1918
109.1290 7.3248 0.1899
109.1490 7.3115 0.1917
109.1690 7.2981 0.1903
109.1890 7.2848 0.1917
109.2090 7.2714 0.1903
109.2290 7.2581 0.1879
109.2490 7.2448 0.1898
109.2690 7.2314 0.1894
109.2890 7.2181 0.1899
109.3090 7.2047 0.1882
109.3290 7.1914 0.1925
109.3490 7.1781 0.1867
109.3690 7.1647 0.1888
109.3890 7.1514 0.1893
109.4090 7.1380 0.1877
109.4290 7.1247 0.1878
109.4490 7.1114 0.1866
109.4690 7.0980 0.1865
109.4890 7.0848 0.1855
109.5090 7.0715 0.1861
109.5290 7.0582 0.1836
109.5490 7.0448 0.1853
109.5690 7.0314 0.1870
109.5890 7.0181 0.1837
109.6090 7.0048 0.1832
109.6290 6.9915 0.1828
109.6490 6.9781 0.1815
109.6690 6.9647 0.1831
109.6890 6.9514 0.1825
109.7090 6.9381 0.1801
109.7290 6.9247 0.1799
109.7490 6.9114 0.1811
109.7690 6.8980 0.1800
109.7890 6.8847 0.1800
109.8090 6.8714 0.1805
109.8290 6.8581 0.1783
109.8490 6.8447 0.1792
109.8690 6.8315 0.1786
109.8890 6.8181 0.1763
109.9090 6.8048 0.1768
109.9290 6.7915 0.1793
109.9490 6.7782 0.1774
109.9690 6.7648 0.1777
109.9890 6.7515 0.1779
110.0090 6.7381 0.1756
110.0290 6.7247 0.1761
110.0490 6.7114 0.1763
110.0690 6.6980 0.1751
110.0890 6.6847 0.1739
110.1090 6.6714 0.1747
110.1290 6.6581 0.1716
110.1490 6.6448 0.1731
110.1690 6.6315 0.1726
110.1890 6.6181 0.1711
110.2090 6.6048 0.1714
110.2290 6.5915 0.1710
110.2490 6.5782 0.1693
110.2690 6.5648 0.1700
110.2890 6.5515 0.1693
110.3090 6.5381 0.1704
110.3290 6.5248 0.1695
110.3490 6.5114 0.1686
110.3690 6.4981 0.1683
110.3890 6.4847 0.1691
110.4090 6.4714 0.1692
110.4290 6.4581 0.1670
110.4490 6.4447 0.1668
110.4690 6.4314 0.1687
110.4890 6.4180 0.1661
110.5090 6.4047 0.1678
110.5290 6.3914 0.1651
110.5490 6.3781 0.1655
110.5690 6.3647 0.1641
110.5890 6.3514 0.1650
110.6090 6.3381 0.1639
110.6290 6.3248 0.1650
110.6490 6.3114 0.1645
110.6690 6.2981 0.1634
110.6890 6.2848 0.1617
110.7090 6.2714 0.1623
110.7290 6.2581 0.1593
110.7490 6.2447 0.1632
110.7690 6.2314 0.1617
110.7890 6.2181 0.1617
110.8090 6.2047 0.1609
110.8290 6.1914 0.1612
110.8490 6.1781 0.1588
110.8690 6.1648 0.1570
110.8890 6.1514 0.1595
110.9090 6.1381 0.1581
110.9290 6.1247 0.1582
110.9490 6.1115 0.1580
110.9690 6.0982 0.1572
110.9890 6.0848 0.1555
111.0090 6.0714 0.1578
111.0290 6.0581 0.1533
111.0490 6.0448 0.1554
111.0690 6.0314 0.1556
111.0890 6.0181 0.1549
111.1090 6.0047 0.1551
111.1290 5.9914 0.1550
111.1490 5.9781 0.1532
111.1690 5.9647 0.1534
111.1890 5.9514 0.1544
111.2090 5.9381 0.1534
111.2290 5.9248 0.1521
111.2490 5.9114 0.1524
111.2690 5.8981 0.1499
111.2890 5.8848 0.1522
111.3090 5.8715 0.1527
111.3290 5.8582 0.1516
111.3490 5.8448 0.1498
111.3690 5.8314 0.1510
111.3890 5.8181 0.1492
111.4090 5.8048 0.1469
111.4290 5.7914 0.1466
111.4490 5.7781 0.1478
111.4690 5.7647 0.1462
111.4890 5.7514 0.1480
111.5090 5.7381 0.1442
111.5290 5.7247 0.1442
111.5490 5.7114 0.1447
111.5690 5.6980 0.1465
111.5890 5.6847 0.1461
111.6090 5.6714 0.1445
111.6290 5.6581 0.1424
111.6490 5.6448 0.1415
111.6690 5.6315 0.1417
111.6890 5.6182 0.1426
111.7090 5.6049 0.1432
111.7290 5.5915 0.1435
111.7490 5.5781 0.1404
111.7690 5.5648 0.1390
111.7890 5.5514 0.1399
111.8090 5.5381 0.1381
111.8290 5.5247 0.1375
111.8490 5.5114 0.1383
111.8690 5.4980 0.1389
111.8890 5.4847 0.1379
111.9090 5.4713 0.1384
111.9290 5.4580 0.1400
111.9490 5.4447 0.1382
111.9690 5.4314 0.1382
111.9890 5.4181 0.1367
112.0090 5.4048 0.1364
112.0290 5.3915 0.1365
112.0490 5.3782 0.1359
112.0690 5.3648 0.1356
112.0890 5.3515 0.1345
112.1090 5.3381 0.1358
112.1290 5.3248 0.1336
112.1490 5.3114 0.1356
112.1690 5.2980 0.1320
112.1890 5.2847 0.1313
112.2090 5.2713 0.1309
112.2290 5.2580 0.1330
112.2490 5.2447 0.1315
112.2690 5.2314 0.1319
112.2890 5.2180 0.1323
112.3090 5.2048 0.1285
112.3290 5.1914 0.1296
112.3490 5.1781 0.1270
112.3690 5.1648 0.1280
112.3890 5.1515 0.1282
112.4090 5.1382 0.1275
112.4290 5.1248 0.1266
112.4490 5.1114 0.1278
112.4690 5.0981 0.1261
112.4890 5.0848 0.1254
112.5090 5.0714 0.1266
112.5290 5.0581 0.1262
112.5490 5.0447 0.1257
112.5690 5.0314 0.1272
112.5890 5.0181 0.1254
112.6090 5.0048 0.1227
112.6290 4.9914 0.1253
112.6490 4.9781 0.1219
112.6690 4.9647 0.1239
112.6890 4.9514 0.1224
112.7090 4.9381 0.1244
112.7290 4.9247 0.1224
112.7490 4.9114 0.1222
112.7690 4.8981 0.1207
112.7890 4.8848 0.1191
112.8090 4.8715 0.1177
112.8290 4.8581 0.1196
112.8490 4.8448 0.1176
112.8690 4.8315 0.1208
112.8890 4.8181 0.1184
112.9090 4.8047 0.1154
112.9290 4.7914 0.1164
112.9490 4.7781 0.1185
112.9690 4.7647 0.1162
112.9890 4.7514 0.1179
113.0090 4.7380 0.1142
113.0290 4.7247 0.1130
113.0490 4.7114 0.1154
113.0690 4.6981 0.1140
113.0890 4.6847 0.1135
113.1090 4.6714 0.1138
113.1290 4.6581 0.1119
113.1490 4.6448 0.1132
113.1690 4.6314 0.1122
113.1890 4.6181 0.1126
113.2090 4.6048 0.1101
113.2290 4.5915 0.1093
113.2490 4.5781 0.1121
113.2690 4.5647 0.1107
113.2890 4.5514 0.1089
113.3090 4.5381 0.1119
113.3290 4.5247 0.1075
113.3490 4.5114 0.1103
113.3690 4.4980 0.1100
113.3890 4.4847 0.1075
113.4090 4.4714 0.1108
113.4290 4.4581 0.1089
113.4490 4.4447 0.1052
113.4690 4.4314 0.1061
113.4890 4.4181 0.1047
113.5090 4.4048 0.1044
113.5290 4.3914 0.1043
113.5490 4.3781 0.1053
113.5690 4.3648 0.1029
113.5890 4.3515 0.1029
113.6090 4.3381 0.1046
113.6290 4.3247 0.1033
113.6490 4.3114 0.1048
113.6690 4.2981 0.1044
113.6890 4.2847 0.1010
113.7090 4.2714 0.1024
113.7290 4.2580 0.1029
113.7490 4.2447 0.0998
113.7690 4.2314 0.1013
113.7890 4.2180 0.0992
113.8090 4.2047 0.0989
113.8290 4.1914 0.0994
113.8490 4.1781 0.0993
113.8690 4.1648 0.0972
113.8890 4.1514 0.0972
113.9090 4.1381 0.0949
113.9290 4.1248 0.0955
113.9490 4.1114 0.0971
113.9690 4.0981 0.0969
113.9890 4.0847 0.0957
114.0090 4.0714 0.0963
114.0290 4.0581 0.0954
114.0490 4.0448 0.0965
114.0690 4.0314 0.0950
114.0890 4.0181 0.0934
114.1090 4.0048 0.0905
114.1290 3.9914 0.0930
114.1490 3.9781 0.0917
114.1690 3.9648 0.0925
114.1890 3.9515 0.0934
114.2090 3.9382 0.0912
114.2290 3.9248 0.0896
114.2490 3.9114 0.0905
114.2690 3.8981 0.0905
114.2890 3.8848 0.0904
114.3090 3.8715 0.0892
114.3290 3.8581 0.0893
114.3490 3.8447 0.0876
114.3690 3.8314 0.0863
114.3890 3.8181 0.0876
114.4090 3.8048 0.0874
114.4290 3.7914 0.0854
114.4490 3.7781 0.0837
114.4690 3.7648 0.0852
114.4890 3.7514 0.0872
114.5090 3.7381 0.0834
114.5290 3.7248 0.0853
114.5490 3.7115 0.0829
114.5690 3.6982 0.0846
114.5890 3.6848 0.0825
114.6090 3.6714 0.0818
114.6290 3.6581 0.0822
114.6490 3.6447 0.0815
114.6690 3.6314 0.0806
114.6890 3.6181 0.0823
114.7090 3.6047 0.0817
114.7290 3.5914 0.0793
114.7490 3.5781 0.0807
114.7690 3.5648 0.0804
114.7890 3.5514 0.0798
114.8090 3.5381 0.0781
114.8290 3.5247 0.0777
114.8490 3.5114 0.0781
114.8690 3.4981 0.0800
114.8890 3.4847 0.0786
114.9090 3.4714 0.0758
114.9290 3.4581 0.0771
114.9490 3.4448 0.0780
114.9690 3.4315 0.0758
114.9890 3.4181 0.0774
115.0090 3.4048 0.0744
115.0290 3.3915 0.0761
115.0490 3.3781 0.0742
115.0690 3.3647 0.0756
115.0890 3.3514 0.0744
115.1090 3.3381 0.0753
115.1290 3.3247 0.0735
115.1490 3.3114 0.0720
115.1690 3.2980 0.0728
115.1890 3.2847 0.0726
115.2090 3.2714 0.0719
115.2290 3.2581 0.0726
115.2490 3.2448 0.0720
115.2690 3.2315 0.0720
115.2890 3.2182 0.0717
115.3090 3.2048 0.0730
115.3290 3.1915 0.0703
115.3490 3.1781 0.0695
115.3690 3.1648 0.0722
115.3890 3.1514 0.0700
115.4090 3.1381 0.0700
115.4290 3.1247 0.0701
115.4490 3.1114 0.0681
115.4690 3.0981 0.0693
115.4890 3.0847 0.0693
115.5090 3.0714 0.0690
115.5290 3.0580 0.0679
115.5490 3.0447 0.0674
115.5690 3.0314 0.0649
115.5890 3.0181 0.0667
115.6090 3.0047 0.0650
115.6290 2.9914 0.0649
115.6490 2.9781 0.0650
115.6690 2.9648 0.0658
115.6890 2.9515 0.0639
115.7090 2.9381 0.0654
115.7290 2.9248 0.0631
115.7490 2.9114 0.0623
115.7690 2.8981 0.0640
115.7890 2.8847 0.0610
115.8090 2.8714 0.0618
115.8290 2.8581 0.0617
115.8490 2.8447 0.0605
115.8690 2.8314 0.0604
115.8890 2.8180 0.0587
115.9090 2.8047 0.0597
115.9290 2.7914 0.0570
115.9490 2.7781 0.0574
115.9690 2.7647 0.0571
115.9890 2.7514 0.0569
116.0090 2.7381 0.0575
116.0290 2.7248 0.0567
116.0490 2.7115 0.0555
116.0690 2.6981 0.0559
116.0890 2.6848 0.0546
116.1090 2.6715 0.0522
116.1290 2.6581 0.0505
116.1490 2.6447 0.0518
116.1690 2.6314 0.0513
116.1890 2.6180 0.0526
116.2090 2.6047 0.0499
116.2290 2.5914 0.0489
116.2490 2.5780 0.0501
116.2690 2.5647 0.0498
116.2890 2.5514 0.0474
116.3090 2.5381 0.0469
116.3290 2.5247 0.0472
116.3490 2.5114 0.0462
116.3690 2.4981 0.0469
116.3890 2.4848 0.0460
116.4090 2.4714 0.0455
116.4290 2.4581 0.0444
116.4490 2.4448 0.0456
116.4690 2.4315 0.0430
116.4890 2.4181 0.0448
116.5090 2.4048 0.0442
116.5290 2.3914 0.0424
116.5490 2.3781 0.0411
116.5690 2.3648 0.0400
116.5890 2.3514 0.0414
116.6090 2.3381 0.0394
116.6290 2.3247 0.0399
116.6490 2.3114 0.0395
116.6690 2.2981 0.0390
116.6890 2.2847 0.0368
116.7090 2.2714 0.0366
116.7290 2.2581 0.0372
116.7490 2.2448 0.0371
116.7690 2.2315 0.0362
116.7890 2.2181 0.0372
116.8090 2.2048 0.0370
116.8290 2.1915 0.0349
116.8490 2.1781 0.0349
116.8690 2.1648 0.0332
116.8890 2.1514 0.0343
116.9090 2.1381 0.0344
116.9290 2.1248 0.0330
116.9490 2.1114 0.0317
116.9690 2.0980 0.0328
116.9890 2.0847 0.0319
117.0090 2.0714 0.0305
117.0290 2.0581 0.0304
117.0490 2.0447 0.0306
117.0690 2.0314 0.0295
117.0890 2.0181 0.0300
117.1090 2.0048 0.0294
117.1290 1.9915 0.0288
117.1490 1.9781 0.0272
117.1690 1.9648 0.0277
117.1890 1.9515 0.0261
117.2090 1.9381 0.0255
117.2290 1.9248 0.0268
117.2490 1.9114 0.0262
117.2690 1.8980 0.0234
117.2890 1.8847 0.0244
117.3090 1.8714 0.0234
117.3290 1.8580 0.0248
117.3490 1.8447 0.0240
117.3690 1.8314 0.0236
117.3890 1.8181 0.0207
117.4090 1.8048 0.0223
117.4290 1.7915 0.0230
117.4490 1.7782 0.0230
117.4690 1.7648 0.0220
117.4890 1.7515 0.0212
117.5090 1.7381 0.0207
117.5290 1.7248 0.0192
117.5490 1.7114 0.0157
117.5690 1.6981 0.0173
117.5890 1.6847 0.0191
117.6090 1.6714 0.0163
117.6290 1.6580 0.0164
117.6490 1.6448 0.0143
117.6690 1.6314 0.0141
117.6890 1.6181 0.0155
117.7090 1.6047 0.0155
117.7290 1.5914 0.0154
117.7490 1.5781 0.0142
117.7690 1.5647 0.0140
117.7890 1.5514 0.0135
117.8090 1.5381 0.0145
117.8290 1.5248 0.0138
117.8490 1.5115 0.0120
117.8690 1.4981 0.0133
117.8890 1.4848 0.0105
117.9090 1.4714 0.0095
117.9290 1.4581 0.0078
117.9490 1.4448 0.0089
117.9690 1.4314 0.0094
117.9890 1.4181 0.0100
118.0090 1.4048 0.0080
118.0290 1.3914 0.0079
118.0490 1.3781 0.0074
118.0690 1.3647 0.0072
118.0890 1.3514 0.0057
118.1090 1.3381 0.0053
118.1290 1.3248 0.0063
118.1490 1.3114 0.0064
118.1690 1.2981 0.0055
118.1890 1.2848 0.0050
118.2090 1.2715 0.0022
118.2290 1.2581 0.0037
118.2490 1.2448 0.0048
118.2690 1.2314 0.0035
118.2890 1.2181 0.0026
118.3090 1.2047 0.0036
118.3290 1.1914 0.0038
118.3490 1.1780 0.0036
118.3690 1.1648 0.0020
118.3890 1.1514 0.0007
118.4090 1.1381 0.0005
118.4290 1.1247 0.0016
118.4490 1.1114 0.0007
118.4690 1.0981 -0.0005
118.4890 1.0848 -0.0013
118.5090 1.0714 -0.0005
118.5290 1.0581 -0.0019
118.5490 1.0448 -0.0005
118.5690 1.0315 -0.0017
118.5890 1.0181 -0.0044
118.6090 1.0047 0.0001
118.6290 0.9914 -0.0026
118.6490 0.9781 -0.0048
118.6690 0.9648 -0.0020
118.6890 0.9514 -0.0023
118.7090 0.9380 -0.0045
118.7290 0.9247 -0.0027
118.7490 0.9114 -0.0055
118.7690 0.8980 -0.0055
118.7890 0.8847 -0.0047
118.8090 0.8714 -0.0051
118.8290 0.8581 -0.0044
118.8490 0.8447 -0.0042
118.8690 0.8314 -0.0049
118.8890 0.8181 -0.0058
118.9090 0.8048 -0.0063
118.9290 0.7915 -0.0054
118.9490 0.7781 -0.0053
118.9690 0.7648 -0.0047
118.9890 0.7514 -0.0050
119.0090 0.7381 -0.0070
119.0290 0.7247 -0.0073
119.0490 0.7114 -0.0057
119.0690 0.6980 -0.0059
119.0890 0.6847 -0.0072
119.1090 0.6714 -0.0049
119.1290 0.6580 -0.0074
119.1490 0.6447 -0.0067
119.1690 0.6314 -0.0085
119.1890 0.6181 -0.0111
119.2090 0.6048 -0.0097
119.2290 0.5914 -0.0095
119.2490 0.5781 -0.0087
119.2690 0.5648 -0.0078
119.2890 0.5515 -0.0085
119.3090 0.5382 -0.0088
119.3290 0.5248 -0.0077
119.3490 0.5115 -0.0095
119.3690 0.4981 -0.0097
119.3890 0.4848 -0.0098
119.4090 0.4714 -0.0085
119.4290 0.4580 -0.0112
119.4490 0.4447 -0.0082
119.4690 0.4314 -0.0097
119.4890 0.4180 -0.0094
119.5090 0.4047 -0.0075
119.5290 0.3914 -0.0066
119.5490 0.3781 -0.0096
119.5690 0.3648 -0.0086
119.5890 0.3515 -0.0083
119.6090 0.3381 -0.0098
119.6290 0.3248 -0.0087
119.6490 0.3115 -0.0074
119.6690 0.2981 -0.0097
119.6890 0.2847 -0.0097
119.7090 0.2714 -0.0104
119.7290 0.2581 -0.0113
119.7490 0.2448 -0.0076
119.7690 0.2314 -0.0094
119.7890 0.2181 -0.0090
119.8090 0.2048 -0.0088
119.8290 0.1915 -0.0098
119.8490 0.1781 -0.0079
119.8690 0.1647 -0.0101
119.8890 0.1514 -0.0073
119.9090 0.1381 -0.0107
119.9290 0.1247 -0.0084
119.9490 0.1114 -0.0088
119.9690 0.0981 -0.0078
119.9890 0.0848 -0.0085
120.0090 0.0715 -0.0081
120.0290 0.0581 -0.0099
120.0490 0.0448 -0.0091
120.0690 0.0315 -0.0072
120.0890 0.0181 -0.0091
120.1090 0.0048 -0.0072
120.1170 -0.0005 -0.0021
