Raw Data
Time Displacement Force
(s) (mm) (N)
0.0000 0.0000 -0.0112
0.0200 0.0001 -0.0089
0.0400 0.0021 0.0048
0.0600 0.0099 -0.0034
0.0800 0.0216 -0.0119
0.1000 0.0341 -0.0081
0.1200 0.0468 -0.0139
0.1400 0.0603 -0.0103
0.1600 0.0744 -0.0139
0.1800 0.0886 -0.0098
0.2000 0.1025 -0.0134
0.2200 0.1161 -0.0129
0.2400 0.1294 -0.0121
0.2600 0.1426 -0.0122
0.2800 0.1560 -0.0132
0.3000 0.1694 -0.0146
0.3200 0.1827 -0.0109
0.3400 0.1961 -0.0129
0.3600 0.2094 -0.0104
0.3800 0.2228 -0.0135
0.4000 0.2362 -0.0116
0.4200 0.2495 -0.0117
0.4400 0.2628 -0.0097
0.4600 0.2762 -0.0121
0.4800 0.2895 -0.0101
0.5000 0.3028 -0.0107
0.5200 0.3161 -0.0088
0.5400 0.3294 -0.0108
0.5600 0.3428 -0.0116
0.5800 0.3561 -0.0108
0.6000 0.3694 -0.0138
0.6200 0.3827 -0.0102
0.6400 0.3961 -0.0115
0.6600 0.4094 -0.0093
0.6800 0.4228 -0.0089
0.7000 0.4361 -0.0078
0.7200 0.4495 -0.0091
0.7400 0.4629 -0.0093
0.7600 0.4762 -0.0086
0.7800 0.4895 -0.0106
0.8000 0.5028 -0.0080
0.8200 0.5162 -0.0075
0.8400 0.5295 -0.0071
0.8600 0.5428 -0.0073
0.8800 0.5561 -0.0066
0.9000 0.5694 -0.0057
0.9200 0.5828 -0.0045
0.9400 0.5961 -0.0046
0.9600 0.6094 -0.0040
0.9800 0.6227 -0.0041
1.0000 0.6360 -0.0021
1.0200 0.6494 -0.0016
1.0400 0.6627 -0.0006
1.0600 0.6761 0.0011
1.0800 0.6894 0.0002
1.1000 0.7028 -0.0001
1.1200 0.7162 0.0024
1.1400 0.7295 0.0030
1.1600 0.7428 0.0059
1.1800 0.7562 0.0061
1.2000 0.7696 0.0060
1.2200 0.7829 0.0083
1.2400 0.7962 0.0089
1.2600 0.8095 0.0113
1.2800 0.8228 0.0128
1.3000 0.8361 0.0140
1.3200 0.8494 0.0147
1.3400 0.8627 0.0191
1.3600 0.8761 0.0187
1.3800 0.8894 0.0201
1.4000 0.9028 0.0204
1.4200 0.9161 0.0220
1.4400 0.9295 0.0234
1.4600 0.9428 0.0264
1.4800 0.9562 0.0250
1.5000 0.9695 0.0276
1.5200 0.9828 0.0295
1.5400 0.9962 0.0322
1.5600 1.0095 0.0341
1.5800 1.0228 0.0360
1.6000 1.0361 0.0367
1.6200 1.0495 0.0370
1.6400 1.0628 0.0376
1.6600 1.0762 0.0403
1.6800 1.0895 0.0390
1.7000 1.1028 0.0420
1.7200 1.1161 0.0432
1.7400 1.1295 0.0461
1.7600 1.1428 0.0460
1.7800 1.1561 0.0483
1.8000 1.1695 0.0483
1.8200 1.1828 0.0508
1.8400 1.1962 0.0521
1.8600 1.2095 0.0558
1.8800 1.2228 0.0556
1.9000 1.2362 0.0574
1.9200 1.2495 0.0575
1.9400 1.2629 0.0616
1.9600 1.2761 0.0613
1.9800 1.2894 0.0640
2.0000 1.3028 0.0635
2.0200 1.3161 0.0639
2.0400 1.3294 0.0661
2.0600 1.3427 0.0666
2.0800 1.3561 0.0694
2.1000 1.3694 0.0709
2.1200 1.3828 0.0708
2.1400 1.3961 0.0732
2.1600 1.4095 0.0749
2.1800 1.4228 0.0752
2.2000 1.4362 0.0782
2.2200 1.4495 0.0761
2.2400 1.4628 0.0793
2.2600 1.4761 0.0806
2.2800 1.4895 0.0805
2.3000 1.5029 0.0821
2.3200 1.5161 0.0830
2.3400 1.5295 0.0856
2.3600 1.5428 0.0865
2.3800 1.5562 0.0882
2.4000 1.5695 0.0894
2.4200 1.5828 0.0900
2.4400 1.5961 0.0910
2.4600 1.6094 0.0914
2.4800 1.6228 0.0922
2.5000 1.6361 0.0945
2.5200 1.6494 0.0951
2.5400 1.6628 0.0971
2.5600 1.6762 0.0955
2.5800 1.6895 0.0998
2.6000 1.7029 0.0986
2.6200 1.7162 0.1008
2.6400 1.7296 0.1008
2.6600 1.7429 0.1029
2.6800 1.7562 0.1052
2.7000 1.7695 0.1058
2.7200 1.7828 0.1062
2.7400 1.7961 0.1073
2.7600 1.8094 0.1088
2.7800 1.8227 0.1091
2.8000 1.8360 0.1112
2.8200 1.8494 0.1124
2.8400 1.8627 0.1137
2.8600 1.8761 0.1121
2.8800 1.8894 0.1144
2.9000 1.9028 0.1141
2.9200 1.9162 0.1150
2.9400 1.9296 0.1176
2.9600 1.9429 0.1164
2.9800 1.9562 0.1169
3.0000 1.9696 0.1177
3.0200 1.9829 0.1199
3.0400 1.9962 0.1215
3.0600 2.0094 0.1249
3.0800 2.0228 0.1235
3.1000 2.0361 0.1230
3.1200 2.0495 0.1265
3.1400 2.0627 0.1279
3.1600 2.0761 0.1290
3.1800 2.0894 0.1293
3.2000 2.1028 0.1291
3.2200 2.1161 0.1319
3.2400 2.1295 0.1337
3.2600 2.1429 0.1330
3.2800 2.1562 0.1354
3.3000 2.1696 0.1323
3.3200 2.1829 0.1368
3.3400 2.1962 0.1355
3.3600 2.2096 0.1404
3.3800 2.2229 0.1378
3.4000 2.2362 0.1396
3.4200 2.2494 0.1396
3.4400 2.2628 0.1407
3.4600 2.2761 0.1401
3.4800 2.2894 0.1435
3.5000 2.3027 0.1421
3.5200 2.3160 0.1450
3.5400 2.3294 0.1456
3.5600 2.3428 0.1452
3.5800 2.3561 0.1468
3.6000 2.3695 0.1448
3.6200 2.3829 0.1466
3.6400 2.3962 0.1459
3.6600 2.4096 0.1510
3.6800 2.4229 0.1500
3.7000 2.4362 0.1505
3.7200 2.4495 0.1516
3.7400 2.4629 0.1529
3.7600 2.4761 0.1534
3.7800 2.4894 0.1543
3.8000 2.5028 0.1543
3.8200 2.5161 0.1557
3.8400 2.5295 0.1573
3.8600 2.5428 0.1587
3.8800 2.5561 0.1578
3.9000 2.5694 0.1605
3.9200 2.5828 0.1615
3.9400 2.5961 0.1606
3.9600 2.6094 0.1620
3.9800 2.6228 0.1633
4.0000 2.6362 0.1637
4.0200 2.6495 0.1666
4.0400 2.6629 0.1644
4.0600 2.6762 0.1649
4.0800 2.6896 0.1663
4.1000 2.7029 0.1663
4.1200 2.7162 0.1676
4.1400 2.7295 0.1702
4.1600 2.7428 0.1700
4.1800 2.7562 0.1699
4.2000 2.7695 0.1718
4.2200 2.7828 0.1737
4.2400 2.7961 0.1729
4.2600 2.8094 0.1744
4.2800 2.8228 0.1751
4.3000 2.8361 0.1755
4.3200 2.8495 0.1762
4.3400 2.8628 0.1767
4.3600 2.8762 0.1768
4.3800 2.8895 0.1775
4.4000 2.9028 0.1787
4.4200 2.9162 0.1797
4.4400 2.9296 0.1822
4.4600 2.9429 0.1819
4.4800 2.9562 0.1819
4.5000 2.9695 0.1841
4.5200 2.9828 0.1838
4.5400 2.9962 0.1815
4.5600 3.0095 0.1826
4.5800 3.0228 0.1829
4.6000 3.0361 0.1841
4.6200 3.0494 0.1859
4.6400 3.0628 0.1860
4.6600 3.0761 0.1889
4.6800 3.0894 0.1894
4.7000 3.1028 0.1898
4.7200 3.1162 0.1885
4.7400 3.1296 0.1925
4.7600 3.1429 0.1915
4.7800 3.1562 0.1922
4.8000 3.1695 0.1925
4.8200 3.1829 0.1928
4.8400 3.1962 0.1935
4.8600 3.2095 0.1960
4.8800 3.2228 0.1959
4.9000 3.2361 0.1948
4.9200 3.2494 0.1966
4.9400 3.2627 0.1965
4.9600 3.2761 0.1984
4.9800 3.2894 0.1977
5.0000 3.3028 0.1996
5.0200 3.3161 0.1977
5.0400 3.3294 0.2014
5.0600 3.3428 0.2018
5.0800 3.3562 0.2017
5.1000 3.3696 0.2038
5.1200 3.3829 0.2040
5.1400 3.3962 0.2039
5.1600 3.4095 0.2064
5.1800 3.4229 0.2041
5.2000 3.4362 0.2068
5.2200 3.4494 0.2075
5.2400 3.4627 0.2079
5.2600 3.4761 0.2061
5.2800 3.4894 0.2092
5.3000 3.5028 0.2082
5.3200 3.5161 0.2077
5.3400 3.5294 0.2091
5.3600 3.5428 0.2112
5.3800 3.5561 0.2107
5.4000 3.5695 0.2131
5.4200 3.5828 0.2132
5.4400 3.5962 0.2144
5.4600 3.6095 0.2137
5.4800 3.6228 0.2136
5.5000 3.6362 0.2141
5.5200 3.6495 0.2150
5.5400 3.6629 0.2182
5.5600 3.6762 0.2160
5.5800 3.6895 0.2193
5.6000 3.7028 0.2205
5.6200 3.7161 0.2199
5.6400 3.7295 0.2206
5.6600 3.7428 0.2207
5.6800 3.7561 0.2205
5.7000 3.7694 0.2207
5.7200 3.7828 0.2209
5.7400 3.7961 0.2205
5.7600 3.8095 0.2242
5.7800 3.8228 0.2242
5.8000 3.8362 0.2243
5.8200 3.8495 0.2245
5.8400 3.8628 0.2255
5.8600 3.8762 0.2236
5.8800 3.8895 0.2275
5.9000 3.9029 0.2265
5.9200 3.9162 0.2254
5.9400 3.9295 0.2273
5.9600 3.9428 0.2286
5.9800 3.9561 0.2304
6.0000 3.9695 0.2312
6.0200 3.9828 0.2322
6.0400 3.9961 0.2306
6.0600 4.0094 0.2331
6.0800 4.0228 0.2327
6.1000 4.0361 0.2313
6.1200 4.0495 0.2327
6.1400 4.0628 0.2324
6.1600 4.0762 0.2327
6.1800 4.0895 0.2342
6.2000 4.1028 0.2359
6.2200 4.1162 0.2346
6.2400 4.1295 0.2381
6.2600 4.1429 0.2371
6.2800 4.1562 0.2371
6.3000 4.1695 0.2364
6.3200 4.1828 0.2398
6.3400 4.1961 0.2376
6.3600 4.2095 0.2426
6.3800 4.2228 0.2423
6.4000 4.2361 0.2416
6.4200 4.2494 0.2421
6.4400 4.2628 0.2423
6.4600 4.2761 0.2434
6.4800 4.2895 0.2436
6.5000 4.3028 0.2448
6.5200 4.3162 0.2441
6.5400 4.3296 0.2454
6.5600 4.3429 0.2454
6.5800 4.3562 0.2456
6.6000 4.3695 0.2445
6.6200 4.3829 0.2458
6.6400 4.3962 0.2462
6.6600 4.4095 0.2489
6.6800 4.4228 0.2497
6.7000 4.4361 0.2476
6.7200 4.4495 0.2477
6.7400 4.4628 0.2506
6.7600 4.4761 0.2500
6.7800 4.4894 0.2517
6.8000 4.5028 0.2526
6.8200 4.5161 0.2521
6.8400 4.5294 0.2536
6.8600 4.5428 0.2555
6.8800 4.5561 0.2536
6.9000 4.5695 0.2570
6.9200 4.5829 0.2556
6.9400 4.5962 0.2549
6.9600 4.6095 0.2544
6.9800 4.6229 0.2583
7.0000 4.6362 0.2561
7.0200 4.6495 0.2570
7.0400 4.6628 0.2559
7.0600 4.6761 0.2578
7.0800 4.6894 0.2578
7.1000 4.7028 0.2595
7.1200 4.7161 0.2573
7.1400 4.7294 0.2581
7.1600 4.7428 0.2607
7.1800 4.7561 0.2595
7.2000 4.7695 0.2638
7.2200 4.7828 0.2623
7.2400 4.7962 0.2626
7.2600 4.8095 0.2619
7.2800 4.8229 0.2639
7.3000 4.8362 0.2617
7.3200 4.8495 0.2631
7.3400 4.8628 0.2647
7.3600 4.8762 0.2644
7.3800 4.8895 0.2652
7.4000 4.9028 0.2686
7.4200 4.9162 0.2646
7.4400 4.9295 0.2666
7.4600 4.9428 0.2683
7.4800 4.9561 0.2663
7.5000 4.9694 0.2679
7.5200 4.9828 0.2687
7.5400 4.9961 0.2672
7.5600 5.0094 0.2693
7.5800 5.0228 0.2732
7.6000 5.0361 0.2723
7.6200 5.0495 0.2712
7.6400 5.0628 0.2734
7.6600 5.0761 0.2728
7.6800 5.0895 0.2731
7.7000 5.1028 0.2747
7.7200 5.1162 0.2725
7.7400 5.1295 0.2751
7.7600 5.1428 0.2762
7.7800 5.1562 0.2743
7.8000 5.1695 0.2756
7.8200 5.1828 0.2768
7.8400 5.1961 0.2752
7.8600 5.2094 0.2763
7.8800 5.2228 0.2796
7.9000 5.2361 0.2773
7.9200 5.2494 0.2794
7.9400 5.2628 0.2791
7.9600 5.2762 0.2780
7.9800 5.2895 0.2784
8.0000 5.3029 0.2803
8.0200 5.3162 0.2787
8.0400 5.3295 0.2810
8.0600 5.3429 0.2818
8.0800 5.3562 0.2822
8.1000 5.3695 0.2810
8.1200 5.3828 0.2826
8.1400 5.3961 0.2816
8.1600 5.4095 0.2836
8.1800 5.4228 0.2849
8.2000 5.4361 0.2861
8.2200 5.4494 0.2853
8.2400 5.4627 0.2863
8.2600 5.4761 0.2842
8.2800 5.4894 0.2859
8.3000 5.5028 0.2880
8.3200 5.5161 0.2857
8.3400 5.5295 0.2866
8.3600 5.5429 0.2878
8.3800 5.5562 0.2880
8.4000 5.5695 0.2892
8.4200 5.5829 0.2911
8.4400 5.5962 0.2901
8.4600 5.6095 0.2917
8.4800 5.6228 0.2900
8.5000 5.6362 0.2890
8.5200 5.6495 0.2898
8.5400 5.6628 0.2925
8.5600 5.6761 0.2912
8.5800 5.6894 0.2918
8.6000 5.7027 0.2933
8.6200 5.7161 0.2921
8.6400 5.7294 0.2939
8.6600 5.7428 0.2944
8.6800 5.7561 0.2972
8.7000 5.7695 0.2947
8.7200 5.7829 0.2991
8.7400 5.7962 0.2966
8.7600 5.8095 0.2957
8.7800 5.8228 0.2978
8.8000 5.8362 0.2942
8.8200 5.8495 0.2968
8.8400 5.8628 0.2980
8.8600 5.8761 0.2975
8.8800 5.8895 0.2966
8.9000 5.9028 0.2995
8.9200 5.9161 0.2979
8.9400 5.9294 0.3002
8.9600 5.9428 0.3010
8.9800 5.9561 0.3001
9.0000 5.9695 0.2991
9.0200 5.9828 0.3004
9.0400 5.9961 0.3005
9.0600 6.0095 0.2998
9.0800 6.0228 0.3038
9.1000 6.0362 0.3037
9.1200 6.0495 0.3038
9.1400 6.0629 0.3066
9.1600 6.0762 0.3054
9.1800 6.0895 0.3049
9.2000 6.1028 0.3053
9.2200 6.1161 0.3061
9.2400 6.1295 0.3045
9.2600 6.1428 0.3058
9.2800 6.1561 0.3058
9.3000 6.1694 0.3048
9.3200 6.1828 0.3079
9.3400 6.1961 0.3053
9.3600 6.2094 0.3069
9.3800 6.2228 0.3092
9.4000 6.2362 0.3081
9.4200 6.2495 0.3094
9.4400 6.2629 0.3123
9.4600 6.2762 0.3096
9.4800 6.2895 0.3097
9.5000 6.3028 0.3103
9.5200 6.3162 0.3126
9.5400 6.3295 0.3115
9.5600 6.3428 0.3132
9.5800 6.3562 0.3136
9.6000 6.3695 0.3131
9.6200 6.3828 0.3150
9.6400 6.3961 0.3138
9.6600 6.4094 0.3140
9.6800 6.4228 0.3143
9.7000 6.4361 0.3147
9.7200 6.4494 0.3146
9.7400 6.4627 0.3173
9.7600 6.4761 0.3148
9.7800 6.4895 0.3173
9.8000 6.5029 0.3184
9.8200 6.5162 0.3184
9.8400 6.5295 0.3164
9.8600 6.5429 0.3200
9.8800 6.5563 0.3185
9.9000 6.5696 0.3164
9.9200 6.5829 0.3195
9.9400 6.5962 0.3182
9.9600 6.6095 0.3195
9.9800 6.6228 0.3204
10.0000 6.6361 0.3220
10.0200 6.6494 0.3190
10.0400 6.6627 0.3222
10.0600 6.6761 0.3210
10.0800 6.6894 0.3224
10.1000 6.7028 0.3226
10.1200 6.7161 0.3212
10.1400 6.7295 0.3214
10.1600 6.7429 0.3249
10.1800 6.7562 0.3240
10.2000 6.7695 0.3246
10.2200 6.7829 0.3250
10.2400 6.7962 0.3252
10.2600 6.8095 0.3242
10.2800 6.8228 0.3252
10.3000 6.8361 0.3244
10.3200 6.8495 0.3248
10.3400 6.8628 0.3277
10.3600 6.8761 0.3280
10.3800 6.8894 0.3269
10.4000 6.9027 0.3295
10.4200 6.9161 0.3284
10.4400 6.9294 0.3283
10.4600 6.9428 0.3285
10.4800 6.9561 0.3276
10.5000 6.9695 0.3269
10.5200 6.9829 0.3295
10.5400 6.9962 0.3295
10.5600 7.0095 0.3310
10.5800 7.0229 0.3328
10.6000 7.0362 0.3333
10.6200 7.0495 0.3301
10.6400 7.0628 0.3330
10.6600 7.0761 0.3331
10.6800 7.0894 0.3317
10.7000 7.1028 0.3345
10.7200 7.1161 0.3347
10.7400 7.1294 0.3350
10.7600 7.1427 0.3352
10.7800 7.1561 0.3364
10.8000 7.1695 0.3348
10.8200 7.1828 0.3387
10.8400 7.1962 0.3357
10.8600 7.2095 0.3353
10.8800 7.2229 0.3359
10.9000 7.2362 0.3386
10.9200 7.2495 0.3362
10.9400 7.2629 0.3406
10.9600 7.2762 0.3365
10.9800 7.2895 0.3384
11.0000 7.3028 0.3395
11.0200 7.3161 0.3390
11.0400 7.3295 0.3382
11.0600 7.3428 0.3407
11.0800 7.3561 0.3405
11.1000 7.3694 0.3389
11.1200 7.3827 0.3391
11.1400 7.3961 0.3403
11.1600 7.4094 0.3402
11.1800 7.4228 0.3416
11.2000 7.4361 0.3414
11.2200 7.4495 0.3426
11.2400 7.4629 0.3429
11.2600 7.4762 0.3432
11.2800 7.4895 0.3419
11.3000 7.5029 0.3445
11.3200 7.5162 0.3461
11.3400 7.5296 0.3433
11.3600 7.5429 0.3459
11.3800 7.5561 0.3452
11.4000 7.5695 0.3443
11.4200 7.5828 0.3449
11.4400 7.5961 0.3462
11.4600 7.6094 0.3439
11.4800 7.6227 0.3481
11.5000 7.6361 0.3470
11.5200 7.6494 0.3458
11.5400 7.6628 0.3479
11.5600 7.6761 0.3484
11.5800 7.6895 0.3477
11.6000 7.7029 0.3472
11.6200 7.7162 0.3496
11.6400 7.7295 0.3484
11.6600 7.7428 0.3517
11.6800 7.7562 0.3497
11.7000 7.7695 0.3482
11.7200 7.7828 0.3501
11.7400 7.7961 0.3520
11.7600 7.8095 0.3512
11.7800 7.8228 0.3531
11.8000 7.8361 0.3516
11.8200 7.8494 0.3523
11.8400 7.8627 0.3534
11.8600 7.8761 0.3522
11.8800 7.8894 0.3531
11.9000 7.9027 0.3523
11.9200 7.9161 0.3539
11.9400 7.9295 0.3505
11.9600 7.9429 0.3549
11.9800 7.9562 0.3541
12.0000 7.9695 0.3533
12.0200 7.9829 0.3555
12.0400 7.9962 0.3561
12.0600 8.0096 0.3564
12.0800 8.0228 0.3574
12.1000 8.0361 0.3574
12.1200 8.0494 0.3570
12.1400 8.0628 0.3568
12.1600 8.0761 0.3581
12.1800 8.0894 0.3574
12.2000 8.1028 0.3588
12.2200 8.1161 0.3594
12.2400 8.1295 0.3585
12.2600 8.1428 0.3603
12.2800 8.1561 0.3622
12.3000 8.1695 0.3568
12.3200 8.1829 0.3607
12.3400 8.1962 0.3608
12.3600 8.2095 0.3610
12.3800 8.2228 0.3631
12.4000 8.2362 0.3632
12.4200 8.2495 0.3623
12.4400 8.2628 0.3634
12.4600 8.2761 0.3633
12.4800 8.2894 0.3610
12.5000 8.3028 0.3631
12.5200 8.3161 0.3638
12.5400 8.3294 0.3610
12.5600 8.3427 0.3626
12.5800 8.3561 0.3630
12.6000 8.3695 0.3645
12.6200 8.3828 0.3659
12.6400 8.3961 0.3680
12.6600 8.4095 0.3646
12.6800 8.4229 0.3652
12.7000 8.4362 0.3648
12.7200 8.4495 0.3663
12.7400 8.4628 0.3669
12.7600 8.4762 0.3683
12.7800 8.4896 0.3655
12.8000 8.5028 0.3677
12.8200 8.5161 0.3697
12.8400 8.5294 0.3678
12.8600 8.5428 0.3694
12.8800 8.5561 0.3679
12.9000 8.5694 0.3698
12.9200 8.5827 0.3700
12.9400 8.5961 0.3708
12.9600 8.6095 0.3686
12.9800 8.6228 0.3710
13.0000 8.6361 0.3713
13.0200 8.6495 0.3696
13.0400 8.6629 0.3702
13.0600 8.6762 0.3715
13.0800 8.6895 0.3703
13.1000 8.7028 0.3719
13.1200 8.7162 0.3726
13.1400 8.7295 0.3693
13.1600 8.7428 0.3719
13.1800 8.7561 0.3723
13.2000 8.7695 0.3717
13.2200 8.7828 0.3730
13.2400 8.7961 0.3761
13.2600 8.8094 0.3739
13.2800 8.8227 0.3757
13.3000 8.8361 0.3760
13.3200 8.8494 0.3761
13.3400 8.8628 0.3782
13.3600 8.8761 0.3779
13.3800 8.8895 0.3742
13.4000 8.9028 0.3760
13.4200 8.9162 0.3780
13.4400 8.9295 0.3775
13.4600 8.9428 0.3768
13.4800 8.9562 0.3765
13.5000 8.9696 0.3767
13.5200 8.9829 0.3784
13.5400 8.9961 0.3791
13.5600 9.0094 0.3803
13.5800 9.0228 0.3797
13.6000 9.0361 0.3815
13.6200 9.0494 0.3785
13.6400 9.0627 0.3798
13.6600 9.0761 0.3792
13.6800 9.0894 0.3804
13.7000 9.1028 0.3819
13.7200 9.1161 0.3841
13.7400 9.1295 0.3823
13.7600 9.1429 0.3819
13.7800 9.1562 0.3847
13.8000 9.1695 0.3834
13.8200 9.1829 0.3854
13.8400 9.1962 0.3851
13.8600 9.2095 0.3845
13.8800 9.2228 0.3844
13.9000 9.2361 0.3871
13.9200 9.2494 0.3843
13.9400 9.2628 0.3855
13.9600 9.2761 0.3852
13.9800 9.2894 0.3858
14.0000 9.3027 0.3847
14.0200 9.3161 0.3878
14.0400 9.3294 0.3839
14.0600 9.3428 0.3856
14.0800 9.3561 0.3869
14.1000 9.3695 0.3870
14.1200 9.3829 0.3868
14.1400 9.3962 0.3895
14.1600 9.4095 0.3867
14.1800 9.4228 0.3889
14.2000 9.4362 0.3905
14.2200 9.4495 0.3896
14.2400 9.4628 0.3898
14.2600 9.4761 0.3907
14.2800 9.4894 0.3917
14.3000 9.5028 0.3913
14.3200 9.5161 0.3916
14.3400 9.5294 0.3906
14.3600 9.5427 0.3902
14.3800 9.5561 0.3930
14.4000 9.5695 0.3921
14.4200 9.5828 0.3927
14.4400 9.5961 0.3938
14.4600 9.6095 0.3929
14.4800 9.6229 0.3937
14.5000 9.6362 0.3937
14.5200 9.6495 0.3937
14.5400 9.6628 0.3936
14.5600 9.6762 0.3949
14.5800 9.6895 0.3932
14.6000 9.7029 0.3954
14.6200 9.7162 0.3949
14.6400 9.7295 0.3952
14.6600 9.7428 0.3952
14.6800 9.7562 0.3966
14.7000 9.7695 0.3955
14.7200 9.7828 0.3962
14.7400 9.7961 0.3964
14.7600 9.8095 0.3979
14.7800 9.8228 0.3945
14.8000 9.8361 0.3973
14.8200 9.8494 0.3981
14.8400 9.8628 0.3984
14.8600 9.8762 0.4002
14.8800 9.8895 0.3985
14.9000 9.9028 0.3983
14.9200 9.9162 0.3990
14.9400 9.9295 0.3979
14.9600 9.9429 0.3983
14.9800 9.9562 0.4008
15.0000 9.9695 0.3998
15.0200 9.9828 0.4014
15.0400 9.9962 0.4022
15.0600 10.0095 0.4040
15.0800 10.0228 0.4009
15.1000 10.0361 0.4032
15.1200 10.0494 0.4031
15.1400 10.0628 0.4030
15.1600 10.0761 0.4048
15.1800 10.0895 0.4039
15.2000 10.1029 0.4018
15.2200 10.1162 0.4044
15.2400 10.1295 0.4031
15.2600 10.1428 0.4032
15.2800 10.1562 0.4060
15.3000 10.1695 0.4027
15.3200 10.1829 0.4053
15.3400 10.1962 0.4076
15.3600 10.2095 0.4075
15.3800 10.2228 0.4049
15.4000 10.2361 0.4079
15.4200 10.2494 0.4076
15.4400 10.2627 0.4068
15.4600 10.2761 0.4083
15.4800 10.2894 0.4071
15.5000 10.3028 0.4066
15.5200 10.3161 0.4082
15.5400 10.3294 0.4090
15.5600 10.3428 0.4079
15.5800 10.3562 0.4091
15.6000 10.3695 0.4081
15.6200 10.3828 0.4094
15.6400 10.3962 0.4117
15.6600 10.4096 0.4117
15.6800 10.4229 0.4116
15.7000 10.4362 0.4116
15.7200 10.4495 0.4130
15.7400 10.4628 0.4103
15.7600 10.4762 0.4116
15.7800 10.4894 0.4113
15.8000 10.5027 0.4128
15.8200 10.5161 0.4142
15.8400 10.5294 0.4126
15.8600 10.5428 0.4132
15.8800 10.5561 0.4151
15.9000 10.5695 0.4150
15.9200 10.5828 0.4137
15.9400 10.5962 0.4152
15.9600 10.6095 0.4148
15.9800 10.6228 0.4144
16.0000 10.6362 0.4154
16.0200 10.6495 0.4145
16.0400 10.6629 0.4171
16.0600 10.6762 0.4182
16.0800 10.6895 0.4162
16.1000 10.7028 0.4165
16.1200 10.7162 0.4176
16.1400 10.7295 0.4186
16.1600 10.7428 0.4176
16.1800 10.7561 0.4178
16.2000 10.7694 0.4177
16.2200 10.7828 0.4175
16.2400 10.7961 0.4189
16.2600 10.8095 0.4196
16.2800 10.8228 0.4196
16.3000 10.8362 0.4210
16.3200 10.8495 0.4185
16.3400 10.8628 0.4191
16.3600 10.8762 0.4192
16.3800 10.8895 0.4207
16.4000 10.9029 0.4212
16.4200 10.9161 0.4240
16.4400 10.9294 0.4224
16.4600 10.9428 0.4224
16.4800 10.9561 0.4233
16.5000 10.9694 0.4229
16.5200 10.9827 0.4204
16.5400 10.9961 0.4241
16.5600 11.0094 0.4235
16.5800 11.0228 0.4244
16.6000 11.0361 0.4232
16.6200 11.0495 0.4231
16.6400 11.0628 0.4219
16.6600 11.0762 0.4239
16.6800 11.0895 0.4242
16.7000 11.1028 0.4246
16.7200 11.1161 0.4248
16.7400 11.1295 0.4271
16.7600 11.1429 0.4258
16.7800 11.1562 0.4269
16.8000 11.1695 0.4276
16.8200 11.1828 0.4271
16.8400 11.1962 0.4281
16.8600 11.2095 0.4293
16.8800 11.2228 0.4288
16.9000 11.2361 0.4296
16.9200 11.2494 0.4295
16.9400 11.2628 0.4283
16.9600 11.2761 0.4300
16.9800 11.2894 0.4298
17.0000 11.3028 0.4277
17.0200 11.3162 0.4309
17.0400 11.3296 0.4299
17.0600 11.3429 0.4279
17.0800 11.3562 0.4314
17.1000 11.3695 0.4311
17.1200 11.3829 0.4288
17.1400 11.3962 0.4310
17.1600 11.4095 0.4338
17.1800 11.4228 0.4337
17.2000 11.4362 0.4336
17.2200 11.4495 0.4312
17.2400 11.4628 0.4312
17.2600 11.4761 0.4329
17.2800 11.4894 0.4331
17.3000 11.5028 0.4317
17.3200 11.5161 0.4336
17.3400 11.5294 0.4343
17.3600 11.5428 0.4364
17.3800 11.5562 0.4366
17.4000 11.5696 0.4364
17.4200 11.5829 0.4346
17.4400 11.5962 0.4360
17.4600 11.6096 0.4350
17.4800 11.6229 0.4356
17.5000 11.6362 0.4374
17.5200 11.6495 0.4366
17.5400 11.6628 0.4339
17.5600 11.6761 0.4386
17.5800 11.6895 0.4382
17.6000 11.7028 0.4378
17.6200 11.7161 0.4381
17.6400 11.7294 0.4380
17.6600 11.7428 0.4365
17.6800 11.7561 0.4404
17.7000 11.7694 0.4383
17.7200 11.7828 0.4394
17.7400 11.7961 0.4384
17.7600 11.8095 0.4408
17.7800 11.8228 0.4413
17.8000 11.8362 0.4414
17.8200 11.8495 0.4404
17.8400 11.8629 0.4407
17.8600 11.8762 0.4405
17.8800 11.8895 0.4424
17.9000 11.9028 0.4414
17.9200 11.9161 0.4417
17.9400 11.9295 0.4416
17.9600 11.9428 0.4434
17.9800 11.9561 0.4434
18.0000 11.9694 0.4434
18.0200 11.9828 0.4421
18.0400 11.9961 0.4431
18.0600 12.0095 0.4445
18.0800 12.0228 0.4434
18.1000 12.0362 0.4439
18.1200 12.0495 0.4433
18.1400 12.0628 0.4443
18.1600 12.0762 0.4451
18.1800 12.0895 0.4451
18.2000 12.1029 0.4451
18.2200 12.1162 0.4450
18.2400 12.1294 0.4461
18.2600 12.1428 0.4479
18.2800 12.1562 0.4489
18.3000 12.1695 0.4483
18.3200 12.1828 0.4489
18.3400 12.1961 0.4494
18.3600 12.2094 0.4502
18.3800 12.2228 0.4478
18.4000 12.2361 0.4489
18.4200 12.2494 0.4489
18.4400 12.2628 0.4482
18.4600 12.2762 0.4500
18.4800 12.2895 0.4491
18.5000 12.3029 0.4489
18.5200 12.3162 0.4514
18.5400 12.3295 0.4511
18.5600 12.3429 0.4507
18.5800 12.3562 0.4513
18.6000 12.3695 0.4523
18.6200 12.3828 0.4528
18.6400 12.3961 0.4508
18.6600 12.4095 0.4511
18.6800 12.4227 0.4507
18.7000 12.4360 0.4525
18.7200 12.4494 0.4538
18.7400 12.4627 0.4526
18.7600 12.4761 0.4536
18.7800 12.4894 0.4536
18.8000 12.5028 0.4544
18.8200 12.5162 0.4532
18.8400 12.5295 0.4548
18.8600 12.5428 0.4564
18.8800 12.5562 0.4556
18.9000 12.5695 0.4560
18.9200 12.5829 0.4545
18.9400 12.5962 0.4561
18.9600 12.6095 0.4586
18.9800 12.6228 0.4594
19.0000 12.6362 0.4569
19.0200 12.6495 0.4580
19.0400 12.6628 0.4577
19.0600 12.6761 0.4592
19.0800 12.6894 0.4577
19.1000 12.7028 0.4560
19.1200 12.7161 0.4568
19.1400 12.7294 0.4588
19.1600 12.7428 0.4566
19.1800 12.7562 0.4599
19.2000 12.7695 0.4591
19.2200 12.7829 0.4604
19.2400 12.7962 0.4603
19.2600 12.8096 0.4614
19.2800 12.8229 0.4601
19.3000 12.8362 0.4618
19.3200 12.8495 0.4613
19.3400 12.8628 0.4623
19.3600 12.8761 0.4599
19.3800 12.8895 0.4624
19.4000 12.9028 0.4636
19.4200 12.9161 0.4637
19.4400 12.9294 0.4649
19.4600 12.9428 0.4630
19.4800 12.9561 0.4619
19.5000 12.9695 0.4631
19.5200 12.9828 0.4626
19.5400 12.9962 0.4634
19.5600 13.0095 0.4634
19.5800 13.0228 0.4647
19.6000 13.0362 0.4651
19.6200 13.0495 0.4629
19.6400 13.0629 0.4645
19.6600 13.0762 0.4650
19.6800 13.0895 0.4675
19.7000 13.1028 0.4672
19.7200 13.1161 0.4691
19.7400 13.1295 0.4681
19.7600 13.1428 0.4676
19.7800 13.1561 0.4680
19.8000 13.1694 0.4666
19.8200 13.1828 0.4686
19.8400 13.1961 0.4684
19.8600 13.2095 0.4681
19.8800 13.2228 0.4681
19.9000 13.2362 0.4703
19.9200 13.2495 0.4680
19.9400 13.2628 0.4705
19.9600 13.2762 0.4704
19.9800 13.2895 0.4708
20.0000 13.3029 0.4688
20.0200 13.3162 0.4706
20.0400 13.3295 0.4724
20.0600 13.3428 0.4711
20.0800 13.3561 0.4718
20.1000 13.3695 0.4697
20.1200 13.3828 0.4716
20.1400 13.3961 0.4723
20.1600 13.4094 0.4738
20.1800 13.4228 0.4722
20.2000 13.4361 0.4742
20.2200 13.4494 0.4744
20.2400 13.4628 0.4758
20.2600 13.4762 0.4729
20.2800 13.4895 0.4738
20.3000 13.5028 0.4757
20.3200 13.5162 0.4738
20.3400 13.5295 0.4727
20.3600 13.5429 0.4751
20.3800 13.5562 0.4747
20.4000 13.5695 0.4752
20.4200 13.5828 0.4778
20.4400 13.5961 0.4774
20.4600 13.6095 0.4760
20.4800 13.6228 0.4777
20.5000 13.6361 0.4768
20.5200 13.6494 0.4797
20.5400 13.6628 0.4776
20.5600 13.6761 0.4782
20.5800 13.6894 0.4785
20.6000 13.7028 0.4767
20.6200 13.7162 0.4780
20.6400 13.7295 0.4800
20.6600 13.7429 0.4812
20.6800 13.7562 0.4805
20.7000 13.7695 0.4800
20.7200 13.7829 0.4796
20.7400 13.7962 0.4788
20.7600 13.8095 0.4817
20.7800 13.8228 0.4805
20.8000 13.8361 0.4808
20.8200 13.8495 0.4815
20.8400 13.8628 0.4817
20.8600 13.8761 0.4813
20.8800 13.8894 0.4823
20.9000 13.9028 0.4825
20.9200 13.9161 0.4843
20.9400 13.9294 0.4839
20.9600 13.9428 0.4839
20.9800 13.9562 0.4834
21.0000 13.9696 0.4850
21.0200 13.9829 0.4865
21.0400 13.9962 0.4839
21.0600 14.0095 0.4854
21.0800 14.0229 0.4843
21.1000 14.0362 0.4858
21.1200 14.0495 0.4858
21.1400 14.0628 0.4879
21.1600 14.0761 0.4846
21.1800 14.0895 0.4864
21.2000 14.1028 0.4847
21.2200 14.1161 0.4889
21.2400 14.1294 0.4871
21.2600 14.1427 0.4908
21.2800 14.1561 0.4868
21.3000 14.1694 0.4906
21.3200 14.1828 0.4879
21.3400 14.1961 0.4880
21.3600 14.2095 0.4883
21.3800 14.2229 0.4892
21.4000 14.2362 0.4896
21.4200 14.2495 0.4895
21.4400 14.2629 0.4898
21.4600 14.2762 0.4905
21.4800 14.2895 0.4922
21.5000 14.3028 0.4914
21.5200 14.3161 0.4912
21.5400 14.3294 0.4908
21.5600 14.3428 0.4941
21.5800 14.3561 0.4919
21.6000 14.3694 0.4932
21.6200 14.3828 0.4952
21.6400 14.3961 0.4929
21.6600 14.4095 0.4930
21.6800 14.4228 0.4934
21.7000 14.4362 0.4926
21.7200 14.4495 0.4942
21.7400 14.4629 0.4965
21.7600 14.4762 0.4938
21.7800 14.4895 0.4953
21.8000 14.5028 0.4945
21.8200 14.5162 0.4953
21.8400 14.5295 0.4958
21.8600 14.5428 0.4969
21.8800 14.5562 0.4947
21.9000 14.5695 0.4968
21.9200 14.5828 0.4971
21.9400 14.5961 0.4983
21.9600 14.6095 0.4986
21.9800 14.6228 0.4973
22.0000 14.6361 0.4974
22.0200 14.6494 0.4964
22.0400 14.6628 0.5016
22.0600 14.6761 0.5006
22.0800 14.6895 0.4996
22.1000 14.7029 0.4988
22.1200 14.7162 0.5003
22.1400 14.7295 0.5013
22.1600 14.7428 0.5002
22.1800 14.7562 0.5007
22.2000 14.7695 0.5016
22.2200 14.7828 0.5010
22.2400 14.7961 0.5011
22.2600 14.8095 0.4994
22.2800 14.8228 0.5014
22.3000 14.8361 0.5031
22.3200 14.8494 0.5006
22.3400 14.8628 0.5031
22.3600 14.8761 0.5014
22.3800 14.8894 0.5046
22.4000 14.9028 0.5041
22.4200 14.9161 0.5028
22.4400 14.9295 0.5011
22.4600 14.9429 0.5050
22.4800 14.9562 0.5042
22.5000 14.9695 0.5035
22.5200 14.9829 0.5047
22.5400 14.9962 0.5041
22.5600 15.0095 0.5043
22.5800 15.0228 0.5051
22.6000 15.0361 0.5069
22.6200 15.0495 0.5039
22.6400 15.0628 0.5061
22.6600 15.0761 0.5059
22.6800 15.0894 0.5088
22.7000 15.1027 0.5075
22.7200 15.1161 0.5077
22.7400 15.1294 0.5078
22.7600 15.1427 0.5097
22.7800 15.1561 0.5092
22.8000 15.1695 0.5105
22.8200 15.1829 0.5092
22.8400 15.1962 0.5098
22.8600 15.2095 0.5097
22.8800 15.2229 0.5094
22.9000 15.2362 0.5103
22.9200 15.2495 0.5103
22.9400 15.2628 0.5127
22.9600 15.2762 0.5116
22.9800 15.2895 0.5120
23.0000 15.3028 0.5129
23.0200 15.3161 0.5141
23.0400 15.3294 0.5135
23.0600 15.3427 0.5134
23.0800 15.3561 0.5139
23.1000 15.3694 0.5119
23.1200 15.3828 0.5151
23.1400 15.3961 0.5135
23.1600 15.4095 0.5150
23.1800 15.4229 0.5160
23.2000 15.4362 0.5153
23.2200 15.4495 0.5136
23.2400 15.4629 0.5148
23.2600 15.4762 0.5141
23.2800 15.4895 0.5144
23.3000 15.5028 0.5166
23.3200 15.5161 0.5170
23.3400 15.5295 0.5180
23.3600 15.5429 0.5184
23.3800 15.5562 0.5172
23.4000 15.5695 0.5170
23.4200 15.5828 0.5178
23.4400 15.5961 0.5178
23.4600 15.6094 0.5179
23.4800 15.6228 0.5187
23.5000 15.6361 0.5194
23.5200 15.6495 0.5203
23.5400 15.6628 0.5192
23.5600 15.6762 0.5199
23.5800 15.6895 0.5202
23.6000 15.7028 0.5220
23.6200 15.7162 0.5233
23.6400 15.7295 0.5224
23.6600 15.7428 0.5228
23.6800 15.7561 0.5207
23.7000 15.7695 0.5204
23.7200 15.7828 0.5218
23.7400 15.7961 0.5227
23.7600 15.8094 0.5243
23.7800 15.8227 0.5240
23.8000 15.8361 0.5217
23.8200 15.8494 0.5232
23.8400 15.8628 0.5245
23.8600 15.8761 0.5261
23.8800 15.8895 0.5238
23.9000 15.9029 0.5247
23.9200 15.9162 0.5251
23.9400 15.9295 0.5244
23.9600 15.9428 0.5251
23.9800 15.9562 0.5272
24.0000 15.9695 0.5260
24.0200 15.9828 0.5258
24.0400 15.9961 0.5280
24.0600 16.0095 0.5280
24.0800 16.0228 0.5276
24.1000 16.0361 0.5286
24.1200 16.0494 0.5265
24.1400 16.0627 0.5274
24.1600 16.0761 0.5283
24.1800 16.0894 0.5285
24.2000 16.1028 0.5299
24.2200 16.1161 0.5313
24.2400 16.1295 0.5281
24.2600 16.1429 0.5302
24.2800 16.1562 0.5299
24.3000 16.1695 0.5313
24.3200 16.1829 0.5305
24.3400 16.1962 0.5320
24.3600 16.2096 0.5317
24.3800 16.2229 0.5314
24.4000 16.2361 0.5330
24.4200 16.2495 0.5312
24.4400 16.2628 0.5318
24.4600 16.2761 0.5329
24.4800 16.2894 0.5333
24.5000 16.3027 0.5342
24.5200 16.3161 0.5364
24.5400 16.3294 0.5335
24.5600 16.3428 0.5343
24.5800 16.3561 0.5336
24.6000 16.3695 0.5353
24.6200 16.3829 0.5347
24.6400 16.3962 0.5355
24.6600 16.4095 0.5344
24.6800 16.4229 0.5366
24.7000 16.4362 0.5385
24.7200 16.4495 0.5377
24.7400 16.4628 0.5381
24.7600 16.4761 0.5384
24.7800 16.4895 0.5380
24.8000 16.5028 0.5364
24.8200 16.5161 0.5377
24.8400 16.5294 0.5391
24.8600 16.5427 0.5396
24.8800 16.5561 0.5390
24.9000 16.5694 0.5403
24.9200 16.5828 0.5396
24.9400 16.5961 0.5406
24.9600 16.6095 0.5384
24.9800 16.6229 0.5404
25.0000 16.6362 0.5417
25.0200 16.6495 0.5395
25.0400 16.6629 0.5415
25.0600 16.6762 0.5414
25.0800 16.6895 0.5404
25.1000 16.7028 0.5420
25.1200 16.7161 0.5422
25.1400 16.7294 0.5428
25.1600 16.7428 0.5434
25.1800 16.7561 0.5457
25.2000 16.7694 0.5432
25.2200 16.7827 0.5465
25.2400 16.7961 0.5434
25.2600 16.8094 0.5444
25.2800 16.8228 0.5446
25.3000 16.8361 0.5463
25.3200 16.8495 0.5439
25.3400 16.8629 0.5444
25.3600 16.8762 0.5480
25.3800 16.8895 0.5472
25.4000 16.9029 0.5468
25.4200 16.9162 0.5469
25.4400 16.9295 0.5460
25.4600 16.9428 0.5469
25.4800 16.9561 0.5502
25.5000 16.9695 0.5485
25.5200 16.9828 0.5476
25.5400 16.9961 0.5503
25.5600 17.0094 0.5488
25.5800 17.0227 0.5492
25.6000 17.0361 0.5514
25.6200 17.0494 0.5501
25.6400 17.0628 0.5507
25.6600 17.0761 0.5501
25.6800 17.0895 0.5503
25.7000 17.1029 0.5503
25.7200 17.1162 0.5514
25.7400 17.1295 0.5502
25.7600 17.1429 0.5488
25.7800 17.1562 0.5514
25.8000 17.1696 0.5521
25.8200 17.1829 0.5528
25.8400 17.1962 0.5541
25.8600 17.2095 0.5532
25.8800 17.2228 0.5507
25.9000 17.2361 0.5547
25.9200 17.2494 0.5553
25.9400 17.2627 0.5546
25.9600 17.2761 0.5568
25.9800 17.2894 0.5551
26.0000 17.3028 0.5545
26.0200 17.3161 0.5560
26.0400 17.3295 0.5568
26.0600 17.3429 0.5571
26.0800 17.3562 0.5588
26.1000 17.3695 0.5573
26.1200 17.3828 0.5572
26.1400 17.3962 0.5560
26.1600 17.4095 0.5579
26.1800 17.4228 0.5568
26.2000 17.4361 0.5599
26.2200 17.4495 0.5601
26.2400 17.4628 0.5586
26.2600 17.4761 0.5615
26.2800 17.4894 0.5585
26.3000 17.5027 0.5589
26.3200 17.5161 0.5607
26.3400 17.5294 0.5593
26.3600 17.5427 0.5608
26.3800 17.5561 0.5625
26.4000 17.5695 0.5574
26.4200 17.5829 0.5603
26.4400 17.5962 0.5623
26.4600 17.6095 0.5631
26.4800 17.6229 0.5617
26.5000 17.6362 0.5647
26.5200 17.6496 0.5631
26.5400 17.6628 0.5630
26.5600 17.6761 0.5650
26.5800 17.6894 0.5644
26.6000 17.7028 0.5649
26.6200 17.7161 0.5661
26.6400 17.7294 0.5626
26.6600 17.7428 0.5641
26.6800 17.7561 0.5672
26.7000 17.7695 0.5678
26.7200 17.7828 0.5670
26.7400 17.7961 0.5632
26.7600 17.8095 0.5663
26.7800 17.8229 0.5668
26.8000 17.8362 0.5686
26.8200 17.8495 0.5680
26.8400 17.8628 0.5651
26.8600 17.8762 0.5689
26.8800 17.8895 0.5683
26.9000 17.9028 0.5708
26.9200 17.9161 0.5699
26.9400 17.9294 0.5691
26.9600 17.9428 0.5689
26.9800 17.9561 0.5699
27.0000 17.9694 0.5704
27.0200 17.9827 0.5708
27.0400 17.9961 0.5708
27.0600 18.0095 0.5727
27.0800 18.0228 0.5705
27.1000 18.0361 0.5728
27.1200 18.0495 0.5723
27.1400 18.0629 0.5737
27.1600 18.0762 0.5742
27.1800 18.0895 0.5735
27.2000 18.1028 0.5724
27.2200 18.1162 0.5742
27.2400 18.1296 0.5749
27.2600 18.1429 0.5759
27.2800 18.1561 0.5776
27.3000 18.1695 0.5744
27.3200 18.1828 0.5738
27.3400 18.1961 0.5757
27.3600 18.2094 0.5779
27.3800 18.2227 0.5757
27.4000 18.2361 0.5769
27.4200 18.2495 0.5755
27.4400 18.2628 0.5772
27.4600 18.2761 0.5785
27.4800 18.2895 0.5779
27.5000 18.3029 0.5784
27.5200 18.3162 0.5802
27.5400 18.3295 0.5808
27.5600 18.3428 0.5798
27.5800 18.3562 0.5810
27.6000 18.3695 0.5800
27.6200 18.3828 0.5781
27.6400 18.3961 0.5802
27.6600 18.4094 0.5803
27.6800 18.4228 0.5815
27.7000 18.4362 0.5838
27.7200 18.4495 0.5823
27.7400 18.4628 0.5814
27.7600 18.4761 0.5842
27.7800 18.4895 0.5836
27.8000 18.5028 0.5836
27.8200 18.5161 0.5830
27.8400 18.5294 0.5837
27.8600 18.5428 0.5811
27.8800 18.5562 0.5856
27.9000 18.5695 0.5865
27.9200 18.5828 0.5858
27.9400 18.5962 0.5894
27.9600 18.6096 0.5863
27.9800 18.6229 0.5842
28.0000 18.6361 0.5871
28.0200 18.6494 0.5868
28.0400 18.6628 0.5870
28.0600 18.6761 0.5871
28.0800 18.6894 0.5874
28.1000 18.7028 0.5868
28.1200 18.7161 0.5878
28.1400 18.7294 0.5889
28.1600 18.7428 0.5901
28.1800 18.7561 0.5913
28.2000 18.7695 0.5894
28.2200 18.7829 0.5871
28.2400 18.7962 0.5901
28.2600 18.8095 0.5926
28.2800 18.8229 0.5887
28.3000 18.8362 0.5899
28.3200 18.8495 0.5896
28.3400 18.8628 0.5888
28.3600 18.8761 0.5899
28.3800 18.8894 0.5899
28.4000 18.9028 0.5920
28.4200 18.9161 0.5943
28.4400 18.9294 0.5962
28.4600 18.9427 0.5938
28.4800 18.9561 0.5939
28.5000 18.9694 0.5926
28.5200 18.9828 0.5936
28.5400 18.9961 0.5961
28.5600 19.0094 0.5954
28.5800 19.0228 0.5956
28.6000 19.0362 0.5965
28.6200 19.0495 0.5974
28.6400 19.0629 0.5966
28.6600 19.0762 0.5974
28.6800 19.0896 0.5986
28.7000 19.1029 0.5968
28.7200 19.1162 0.5986
28.7400 19.1295 0.6003
28.7600 19.1428 0.5985
28.7800 19.1561 0.6000
28.8000 19.1694 0.6002
28.8200 19.1827 0.5989
28.8400 19.1961 0.5995
28.8600 19.2094 0.6004
28.8800 19.2228 0.5991
28.9000 19.2361 0.5999
28.9200 19.2495 0.6012
28.9400 19.2628 0.6020
28.9600 19.2762 0.6024
28.9800 19.2895 0.6035
29.0000 19.3028 0.6019
29.0200 19.3162 0.6019
29.0400 19.3295 0.6038
29.0600 19.3429 0.6042
29.0800 19.3562 0.6061
29.1000 19.3695 0.6060
29.1200 19.3828 0.6034
29.1400 19.3962 0.6058
29.1600 19.4095 0.6074
29.1800 19.4228 0.6052
29.2000 19.4361 0.6089
29.2200 19.4495 0.6077
29.2400 19.4628 0.6050
29.2600 19.4761 0.6069
29.2800 19.4894 0.6101
29.3000 19.5028 0.6071
29.3200 19.5162 0.6081
29.3400 19.5295 0.6091
29.3600 19.5428 0.6079
29.3800 19.5562 0.6093
29.4000 19.5695 0.6085
29.4200 19.5829 0.6108
29.4400 19.5962 0.6096
29.4600 19.6095 0.6124
29.4800 19.6228 0.6083
29.5000 19.6362 0.6103
29.5200 19.6495 0.6102
29.5400 19.6628 0.6107
29.5600 19.6761 0.6130
29.5800 19.6894 0.6131
29.6000 19.7028 0.6107
29.6200 19.7161 0.6125
29.6400 19.7295 0.6143
29.6600 19.7428 0.6122
29.6800 19.7562 0.6136
29.7000 19.7695 0.6156
29.7200 19.7828 0.6132
29.7400 19.7962 0.6142
29.7600 19.8096 0.6179
29.7800 19.8229 0.6137
29.8000 19.8362 0.6159
29.8200 19.8495 0.6172
29.8400 19.8628 0.6162
29.8600 19.8761 0.6175
29.8800 19.8895 0.6183
29.9000 19.9028 0.6167
29.9200 19.9161 0.6179
29.9400 19.9294 0.6191
29.9600 19.9428 0.6166
29.9800 19.9561 0.6191
30.0000 19.9695 0.6216
30.0200 19.9828 0.6195
30.0400 19.9962 0.6201
30.0600 20.0095 0.6196
30.0800 20.0228 0.6189
30.1000 20.0362 0.6216
30.1200 20.0496 0.6208
30.1400 20.0629 0.6197
30.1600 20.0762 0.6242
30.1800 20.0895 0.6221
30.2000 20.1028 0.6213
30.2200 20.1162 0.6227
30.2400 20.1295 0.6247
30.2600 20.1427 0.6225
30.2800 20.1560 0.6249
30.3000 20.1694 0.6257
30.3200 20.1828 0.6236
30.3400 20.1961 0.6242
30.3600 20.2095 0.6265
30.3800 20.2228 0.6260
30.4000 20.2362 0.6257
30.4200 20.2495 0.6257
30.4400 20.2628 0.6280
30.4600 20.2761 0.6259
30.4800 20.2895 0.6272
30.5000 20.3028 0.6270
30.5200 20.3161 0.6283
30.5400 20.3294 0.6281
30.5600 20.3428 0.6300
30.5800 20.3561 0.6314
30.6000 20.3695 0.6331
30.6200 20.3828 0.6288
30.6400 20.3961 0.6310
30.6600 20.4094 0.6304
30.6800 20.4228 0.6288
30.7000 20.4361 0.6294
30.7200 20.4494 0.6331
30.7400 20.4628 0.6310
30.7600 20.4762 0.6323
30.7800 20.4895 0.6340
30.8000 20.5028 0.6335
30.8200 20.5162 0.6334
30.8400 20.5296 0.6341
30.8600 20.5429 0.6302
30.8800 20.5562 0.6328
30.9000 20.5695 0.6354
30.9200 20.5828 0.6341
30.9400 20.5961 0.6334
30.9600 20.6094 0.6362
30.9800 20.6227 0.6360
31.0000 20.6361 0.6370
31.0200 20.6494 0.6371
31.0400 20.6628 0.6374
31.0600 20.6761 0.6394
31.0800 20.6895 0.6388
31.1000 20.7028 0.6386
31.1200 20.7162 0.6368
31.1400 20.7295 0.6395
31.1600 20.7428 0.6391
31.1800 20.7561 0.6412
31.2000 20.7695 0.6402
31.2200 20.7829 0.6385
31.2400 20.7962 0.6393
31.2600 20.8095 0.6409
31.2800 20.8228 0.6403
31.3000 20.8362 0.6388
31.3200 20.8495 0.6413
31.3400 20.8628 0.6425
31.3600 20.8761 0.6423
31.3800 20.8894 0.6448
31.4000 20.9028 0.6424
31.4200 20.9161 0.6432
31.4400 20.9294 0.6450
31.4600 20.9428 0.6458
31.4800 20.9562 0.6447
31.5000 20.9696 0.6470
31.5200 20.9829 0.6456
31.5400 20.9962 0.6459
31.5600 21.0095 0.6462
31.5800 21.0229 0.6461
31.6000 21.0362 0.6462
31.6200 21.0495 0.6490
31.6400 21.0628 0.6484
31.6600 21.0761 0.6475
31.6800 21.0895 0.6476
31.7000 21.1028 0.6471
31.7200 21.1161 0.6485
31.7400 21.1294 0.6513
31.7600 21.1427 0.6499
31.7800 21.1561 0.6507
31.8000 21.1694 0.6522
31.8200 21.1828 0.6517
31.8400 21.1962 0.6498
31.8600 21.2096 0.6520
31.8800 21.2229 0.6508
31.9000 21.2362 0.6525
31.9200 21.2495 0.6532
31.9400 21.2629 0.6526
31.9600 21.2762 0.6529
31.9800 21.2895 0.6558
32.0000 21.3028 0.6534
32.0200 21.3161 0.6546
32.0400 21.3295 0.6562
32.0600 21.3428 0.6542
32.0800 21.3561 0.6536
32.1000 21.3694 0.6552
32.1200 21.3828 0.6570
32.1400 21.3961 0.6562
32.1600 21.4094 0.6596
32.1800 21.4228 0.6575
32.2000 21.4362 0.6562
32.2200 21.4496 0.6578
32.2400 21.4629 0.6580
32.2600 21.4762 0.6572
32.2800 21.4895 0.6606
32.3000 21.5029 0.6575
32.3200 21.5162 0.6589
32.3400 21.5295 0.6614
32.3600 21.5428 0.6600
32.3800 21.5561 0.6580
32.4000 21.5695 0.6609
32.4200 21.5828 0.6606
32.4400 21.5961 0.6627
32.4600 21.6094 0.6649
32.4800 21.6228 0.6637
32.5000 21.6361 0.6620
32.5200 21.6495 0.6642
32.5400 21.6628 0.6645
32.5600 21.6762 0.6635
32.5800 21.6895 0.6659
32.6000 21.7029 0.6650
32.6200 21.7162 0.6641
32.6400 21.7295 0.6664
32.6600 21.7429 0.6652
32.6800 21.7562 0.6663
32.7000 21.7695 0.6684
32.7200 21.7828 0.6669
32.7400 21.7961 0.6653
32.7600 21.8095 0.6693
32.7800 21.8228 0.6667
32.8000 21.8361 0.6688
32.8200 21.8494 0.6705
32.8400 21.8628 0.6704
32.8600 21.8761 0.6693
32.8800 21.8894 0.6721
32.9000 21.9028 0.6717
32.9200 21.9162 0.6709
32.9400 21.9295 0.6716
32.9600 21.9428 0.6726
32.9800 21.9562 0.6717
33.0000 21.9695 0.6750
33.0200 21.9829 0.6740
33.0400 21.9962 0.6755
33.0600 22.0095 0.6773
33.0800 22.0228 0.6738
33.1000 22.0362 0.6724
33.1200 22.0495 0.6741
33.1400 22.0628 0.6745
33.1600 22.0761 0.6759
33.1800 22.0894 0.6776
33.2000 22.1027 0.6774
33.2200 22.1161 0.6770
33.2400 22.1294 0.6802
33.2600 22.1428 0.6774
33.2800 22.1561 0.6768
33.3000 22.1695 0.6782
33.3200 22.1828 0.6779
33.3400 22.1962 0.6801
33.3600 22.2095 0.6830
33.3800 22.2228 0.6807
33.4000 22.2362 0.6796
33.4200 22.2495 0.6786
33.4400 22.2628 0.6818
33.4600 22.2762 0.6809
33.4800 22.2895 0.6804
33.5000 22.3028 0.6819
33.5200 22.3161 0.6810
33.5400 22.3294 0.6845
33.5600 22.3428 0.6846
33.5800 22.3561 0.6847
33.6000 22.3694 0.6859
33.6200 22.3828 0.6863
33.6400 22.3962 0.6838
33.6600 22.4095 0.6856
33.6800 22.4229 0.6861
33.7000 22.4362 0.6856
33.7200 22.4495 0.6862
33.7400 22.4629 0.6854
33.7600 22.4762 0.6853
33.7800 22.4895 0.6889
33.8000 22.5028 0.6890
33.8200 22.5161 0.6871
33.8400 22.5294 0.6887
33.8600 22.5428 0.6896
33.8800 22.5561 0.6891
33.9000 22.5694 0.6923
33.9200 22.5828 0.6901
33.9400 22.5962 0.6903
33.9600 22.6095 0.6902
33.9800 22.6228 0.6931
34.0000 22.6362 0.6912
34.0200 22.6496 0.6937
34.0400 22.6629 0.6917
34.0600 22.6762 0.6920
34.0800 22.6895 0.6927
34.1000 22.7028 0.6940
34.1200 22.7162 0.6930
34.1400 22.7295 0.6979
34.1600 22.7428 0.6946
34.1800 22.7561 0.6963
34.2000 22.7695 0.6958
34.2200 22.7828 0.6958
34.2400 22.7961 0.6964
34.2600 22.8094 0.6971
34.2800 22.8228 0.6982
34.3000 22.8361 0.6972
34.3200 22.8495 0.6968
34.3400 22.8628 0.6999
34.3600 22.8762 0.6981
34.3800 22.8895 0.6993
34.4000 22.9029 0.6988
34.4200 22.9162 0.7002
34.4400 22.9295 0.7023
34.4600 22.9429 0.7014
34.4800 22.9562 0.7015
34.5000 22.9695 0.7015
34.5200 22.9828 0.7025
34.5400 22.9961 0.7009
34.5600 23.0095 0.7013
34.5800 23.0228 0.7041
34.6000 23.0361 0.7028
34.6200 23.0494 0.7061
34.6400 23.0628 0.7058
34.6600 23.0761 0.7027
34.6800 23.0894 0.7058
34.7000 23.1028 0.7050
34.7200 23.1162 0.7053
34.7400 23.1295 0.7057
34.7600 23.1428 0.7072
34.7800 23.1561 0.7065
34.8000 23.1695 0.7084
34.8200 23.1829 0.7092
34.8400 23.1962 0.7086
34.8600 23.2095 0.7087
34.8800 23.2228 0.7116
34.9000 23.2361 0.7091
34.9200 23.2495 0.7104
34.9400 23.2628 0.7098
34.9600 23.2761 0.7097
34.9800 23.2894 0.7108
35.0000 23.3028 0.7118
35.0200 23.3161 0.7135
35.0400 23.3295 0.7149
35.0600 23.3428 0.7137
35.0800 23.3561 0.7144
35.1000 23.3695 0.7139
35.1200 23.3828 0.7159
35.1400 23.3962 0.7142
35.1600 23.4095 0.7179
35.1800 23.4229 0.7178
35.2000 23.4362 0.7159
35.2200 23.4495 0.7164
35.2400 23.4628 0.7170
35.2600 23.4761 0.7154
35.2800 23.4895 0.7179
35.3000 23.5028 0.7185
35.3200 23.5161 0.7169
35.3400 23.5294 0.7188
35.3600 23.5428 0.7198
35.3800 23.5561 0.7199
35.4000 23.5695 0.7230
35.4200 23.5828 0.7229
35.4400 23.5962 0.7209
35.4600 23.6095 0.7211
35.4800 23.6229 0.7220
35.5000 23.6362 0.7224
35.5200 23.6495 0.7244
35.5400 23.6629 0.7244
35.5600 23.6762 0.7225
35.5800 23.6895 0.7228
35.6000 23.7027 0.7236
35.6200 23.7161 0.7242
35.6400 23.7295 0.7238
35.6600 23.7428 0.7260
35.6800 23.7561 0.7238
35.7000 23.7694 0.7264
35.7200 23.7828 0.7289
35.7400 23.7961 0.7273
35.7600 23.8094 0.7303
35.7800 23.8228 0.7287
35.8000 23.8361 0.7287
35.8200 23.8495 0.7278
35.8400 23.8629 0.7283
35.8600 23.8762 0.7275
35.8800 23.8895 0.7285
35.9000 23.9029 0.7313
35.9200 23.9162 0.7310
35.9400 23.9295 0.7321
35.9600 23.9428 0.7335
35.9800 23.9561 0.7310
36.0000 23.9695 0.7335
36.0200 23.9828 0.7339
36.0400 23.9961 0.7343
36.0600 24.0094 0.7353
36.0800 24.0228 0.7351
36.1000 24.0361 0.7350
36.1200 24.0494 0.7371
36.1400 24.0628 0.7359
36.1600 24.0761 0.7353
36.1800 24.0895 0.7356
36.2000 24.1029 0.7369
36.2200 24.1162 0.7343
36.2400 24.1295 0.7376
36.2600 24.1429 0.7390
36.2800 24.1562 0.7377
36.3000 24.1695 0.7417
36.3200 24.1828 0.7404
36.3400 24.1962 0.7387
36.3600 24.2095 0.7394
36.3800 24.2228 0.7416
36.4000 24.2361 0.7411
36.4200 24.2494 0.7434
36.4400 24.2628 0.7449
36.4600 24.2761 0.7448
36.4800 24.2894 0.7427
36.5000 24.3028 0.7445
36.5200 24.3161 0.7436
36.5400 24.3295 0.7446
36.5600 24.3428 0.7444
36.5800 24.3561 0.7446
36.6000 24.3694 0.7464
36.6200 24.3828 0.7462
36.6400 24.3962 0.7469
36.6600 24.4095 0.7448
36.6800 24.4229 0.7469
36.7000 24.4362 0.7482
36.7200 24.4495 0.7499
36.7400 24.4628 0.7507
36.7600 24.4761 0.7500
36.7800 24.4894 0.7503
36.8000 24.5027 0.7493
36.8200 24.5161 0.7503
36.8400 24.5294 0.7511
36.8600 24.5428 0.7545
36.8800 24.5561 0.7526
36.9000 24.5695 0.7529
36.9200 24.5829 0.7523
36.9400 24.5962 0.7545
36.9600 24.6095 0.7516
36.9800 24.6228 0.7547
37.0000 24.6362 0.7542
37.0200 24.6495 0.7555
37.0400 24.6628 0.7559
37.0600 24.6761 0.7558
37.0800 24.6895 0.7563
37.1000 24.7028 0.7565
37.1200 24.7161 0.7581
37.1400 24.7294 0.7563
37.1600 24.7427 0.7580
37.1800 24.7561 0.7594
37.2000 24.7694 0.7601
37.2200 24.7828 0.7594
37.2400 24.7961 0.7597
37.2600 24.8095 0.7608
37.2800 24.8229 0.7630
37.3000 24.8362 0.7600
37.3200 24.8495 0.7611
37.3400 24.8629 0.7627
37.3600 24.8762 0.7593
37.3800 24.8896 0.7618
37.4000 24.9028 0.7630
37.4200 24.9161 0.7648
37.4400 24.9295 0.7632
37.4600 24.9428 0.7658
37.4800 24.9561 0.7647
37.5000 24.9694 0.7647
37.5200 24.9827 0.7668
37.5400 24.9961 0.7673
37.5600 25.0094 0.7647
37.5800 25.0228 0.7671
37.6000 25.0361 0.7695
37.6200 25.0495 0.7686
37.6400 25.0629 0.7684
37.6600 25.0762 0.7686
37.6800 25.0895 0.7681
37.7000 25.1028 0.7705
37.7200 25.1162 0.7755
37.7400 25.1295 0.7701
37.7600 25.1428 0.7712
37.7800 25.1561 0.7700
37.8000 25.1695 0.7755
37.8200 25.1828 0.7732
37.8400 25.1961 0.7735
37.8600 25.2094 0.7759
37.8800 25.2228 0.7748
37.9000 25.2361 0.7722
37.9200 25.2494 0.7769
37.9400 25.2628 0.7751
37.9600 25.2761 0.7736
37.9800 25.2895 0.7772
38.0000 25.3029 0.7796
38.0200 25.3162 0.7787
38.0400 25.3295 0.7803
38.0600 25.3429 0.7805
38.0800 25.3562 0.7790
38.1000 25.3695 0.7784
38.1200 25.3828 0.7803
38.1400 25.3961 0.7782
38.1600 25.4094 0.7793
38.1800 25.4228 0.7849
38.2000 25.4361 0.7812
38.2200 25.4494 0.7814
38.2400 25.4627 0.7806
38.2600 25.4761 0.7847
38.2800 25.4894 0.7816
38.3000 25.5028 0.7867
38.3200 25.5161 0.7847
38.3400 25.5295 0.7841
38.3600 25.5429 0.7866
38.3800 25.5562 0.7871
38.4000 25.5695 0.7873
38.4200 25.5828 0.7879
38.4400 25.5962 0.7880
38.4600 25.6095 0.7887
38.4800 25.6228 0.7901
38.5000 25.6361 0.7900
38.5200 25.6495 0.7900
38.5400 25.6628 0.7886
38.5600 25.6761 0.7920
38.5800 25.6894 0.7924
38.6000 25.7028 0.7969
38.6200 25.7161 0.7938
38.6400 25.7294 0.7935
38.6600 25.7428 0.7932
38.6800 25.7561 0.7937
38.7000 25.7695 0.7955
38.7200 25.7829 0.7953
38.7400 25.7962 0.7958
38.7600 25.8095 0.7962
38.7800 25.8228 0.7951
38.8000 25.8362 0.7964
38.8200 25.8496 0.7973
38.8400 25.8629 0.7987
38.8600 25.8761 0.7982
38.8800 25.8895 0.7979
38.9000 25.9028 0.7994
38.9200 25.9161 0.7994
38.9400 25.9294 0.7989
38.9600 25.9427 0.8014
38.9800 25.9561 0.8018
39.0000 25.9694 0.8011
39.0200 25.9828 0.7996
39.0400 25.9961 0.8043
39.0600 26.0095 0.8047
39.0800 26.0229 0.8042
39.1000 26.0362 0.8054
39.1200 26.0495 0.8039
39.1400 26.0629 0.8079
39.1600 26.0762 0.8068
39.1800 26.0896 0.8066
39.2000 26.1028 0.8094
39.2200 26.1161 0.8058
39.2400 26.1295 0.8061
39.2600 26.1428 0.8071
39.2800 26.1561 0.8090
39.3000 26.1694 0.8093
39.3200 26.1828 0.8094
39.3400 26.1961 0.8098
39.3600 26.2095 0.8091
39.3800 26.2228 0.8120
39.4000 26.2361 0.8126
39.4200 26.2495 0.8130
39.4400 26.2629 0.8120
39.4600 26.2762 0.8131
39.4800 26.2895 0.8116
39.5000 26.3028 0.8151
39.5200 26.3162 0.8133
39.5400 26.3296 0.8148
39.5600 26.3429 0.8138
39.5800 26.3561 0.8161
39.6000 26.3695 0.8180
39.6200 26.3828 0.8180
39.6400 26.3961 0.8181
39.6600 26.4094 0.8180
39.6800 26.4227 0.8202
39.7000 26.4361 0.8187
39.7200 26.4494 0.8204
39.7400 26.4628 0.8223
39.7600 26.4761 0.8221
39.7800 26.4895 0.8225
39.8000 26.5029 0.8214
39.8200 26.5162 0.8218
39.8400 26.5295 0.8232
39.8600 26.5429 0.8233
39.8800 26.5562 0.8237
39.9000 26.5695 0.8248
39.9200 26.5828 0.8274
39.9400 26.5961 0.8286
39.9600 26.6094 0.8283
39.9800 26.6228 0.8290
40.0000 26.6361 0.8280
40.0200 26.6494 0.8282
40.0400 26.6628 0.8293
40.0600 26.6761 0.8287
40.0800 26.6894 0.8288
40.1000 26.7028 0.8288
40.1200 26.7161 0.8314
40.1400 26.7295 0.8325
40.1600 26.7429 0.8323
40.1800 26.7562 0.8312
40.2000 26.7695 0.8315
40.2200 26.7829 0.8310
40.2400 26.7962 0.8316
40.2600 26.8096 0.8330
40.2800 26.8229 0.8338
40.3000 26.8362 0.8356
40.3200 26.8495 0.8356
40.3400 26.8628 0.8367
40.3600 26.8761 0.8376
40.3800 26.8894 0.8365
40.4000 26.9027 0.8369
40.4200 26.9161 0.8370
40.4400 26.9294 0.8382
40.4600 26.9428 0.8367
40.4800 26.9561 0.8379
40.5000 26.9695 0.8375
40.5200 26.9828 0.8393
40.5400 26.9962 0.8380
40.5600 27.0095 0.8397
40.5800 27.0228 0.8396
40.6000 27.0362 0.8433
40.6200 27.0495 0.8425
40.6400 27.0628 0.8436
40.6600 27.0761 0.8446
40.6800 27.0895 0.8475
40.7000 27.1028 0.8463
40.7200 27.1161 0.8469
40.7400 27.1294 0.8472
40.7600 27.1427 0.8460
40.7800 27.1561 0.8449
40.8000 27.1694 0.8475
40.8200 27.1827 0.8474
40.8400 27.1961 0.8481
40.8600 27.2095 0.8501
40.8800 27.2229 0.8485
40.9000 27.2362 0.8501
40.9200 27.2495 0.8520
40.9400 27.2629 0.8517
40.9600 27.2762 0.8509
40.9800 27.2896 0.8536
41.0000 27.3028 0.8533
41.0200 27.3161 0.8535
41.0400 27.3294 0.8537
41.0600 27.3428 0.8544
41.0800 27.3561 0.8529
41.1000 27.3694 0.8573
41.1200 27.3828 0.8584
41.1400 27.3961 0.8557
41.1600 27.4095 0.8545
41.1800 27.4228 0.8585
41.2000 27.4361 0.8573
41.2200 27.4495 0.8594
41.2400 27.4629 0.8590
41.2600 27.4762 0.8592
41.2800 27.4895 0.8594
41.3000 27.5028 0.8611
41.3200 27.5162 0.8606
41.3400 27.5295 0.8636
41.3600 27.5428 0.8639
41.3800 27.5561 0.8626
41.4000 27.5694 0.8654
41.4200 27.5828 0.8645
41.4400 27.5961 0.8648
41.4600 27.6094 0.8668
41.4800 27.6227 0.8673
41.5000 27.6361 0.8666
41.5200 27.6494 0.8679
41.5400 27.6628 0.8693
41.5600 27.6761 0.8699
41.5800 27.6895 0.8706
41.6000 27.7029 0.8691
41.6200 27.7162 0.8697
41.6400 27.7295 0.8726
41.6600 27.7428 0.8737
41.6800 27.7562 0.8696
41.7000 27.7696 0.8725
41.7200 27.7829 0.8710
41.7400 27.7962 0.8719
41.7600 27.8094 0.8741
41.7800 27.8228 0.8734
41.8000 27.8361 0.8760
41.8200 27.8494 0.8768
41.8400 27.8628 0.8772
41.8600 27.8761 0.8766
41.8800 27.8895 0.8784
41.9000 27.9028 0.8781
41.9200 27.9161 0.8773
41.9400 27.9295 0.8783
41.9600 27.9429 0.8783
41.9800 27.9562 0.8794
42.0000 27.9695 0.8823
42.0200 27.9828 0.8803
42.0400 27.9962 0.8822
42.0600 28.0095 0.8818
42.0800 28.0229 0.8835
42.1000 28.0361 0.8852
42.1200 28.0495 0.8861
42.1400 28.0628 0.8841
42.1600 28.0762 0.8857
42.1800 28.0895 0.8855
42.2000 28.1028 0.8860
42.2200 28.1161 0.8843
42.2400 28.1295 0.8868
42.2600 28.1428 0.8868
42.2800 28.1561 0.8916
42.3000 28.1694 0.8910
42.3200 28.1828 0.8904
42.3400 28.1962 0.8917
42.3600 28.2095 0.8921
42.3800 28.2228 0.8930
42.4000 28.2362 0.8943
42.4200 28.2495 0.8949
42.4400 28.2629 0.8937
42.4600 28.2762 0.8921
42.4800 28.2895 0.8952
42.5000 28.3028 0.8959
42.5200 28.3161 0.8952
42.5400 28.3294 0.8969
42.5600 28.3427 0.8964
42.5800 28.3561 0.8981
42.6000 28.3694 0.8975
42.6200 28.3828 0.8997
42.6400 28.3961 0.8999
42.6600 28.4095 0.8986
42.6800 28.4229 0.8989
42.7000 28.4362 0.8998
42.7200 28.4495 0.9021
42.7400 28.4629 0.9022
42.7600 28.4762 0.9027
42.7800 28.4895 0.9017
42.8000 28.5028 0.9030
42.8200 28.5161 0.9058
42.8400 28.5294 0.9074
42.8600 28.5428 0.9058
42.8800 28.5562 0.9040
42.9000 28.5695 0.9051
42.9200 28.5827 0.9078
42.9400 28.5961 0.9069
42.9600 28.6094 0.9096
42.9800 28.6228 0.9104
43.0000 28.6361 0.9106
43.0200 28.6494 0.9110
43.0400 28.6628 0.9132
43.0600 28.6762 0.9113
43.0800 28.6895 0.9134
43.1000 28.7029 0.9129
43.1200 28.7162 0.9140
43.1400 28.7295 0.9146
43.1600 28.7428 0.9132
43.1800 28.7561 0.9161
43.2000 28.7694 0.9161
43.2200 28.7827 0.9162
43.2400 28.7961 0.9178
43.2600 28.8094 0.9172
43.2800 28.8227 0.9188
43.3000 28.8361 0.9188
43.3200 28.8494 0.9209
43.3400 28.8628 0.9200
43.3600 28.8761 0.9201
43.3800 28.8895 0.9210
43.4000 28.9029 0.9224
43.4200 28.9162 0.9232
43.4400 28.9295 0.9233
43.4600 28.9428 0.9243
43.4800 28.9562 0.9227
43.5000 28.9695 0.9246
43.5200 28.9829 0.9256
43.5400 28.9962 0.9265
43.5600 29.0095 0.9262
43.5800 29.0228 0.9293
43.6000 29.0362 0.9269
43.6200 29.0495 0.9285
43.6400 29.0628 0.9286
43.6600 29.0761 0.9302
43.6800 29.0894 0.9314
43.7000 29.1028 0.9307
43.7200 29.1161 0.9335
43.7400 29.1294 0.9329
43.7600 29.1428 0.9353
43.7800 29.1562 0.9323
43.8000 29.1695 0.9372
43.8200 29.1828 0.9355
43.8400 29.1961 0.9374
43.8600 29.2095 0.9363
43.8800 29.2229 0.9361
43.9000 29.2362 0.9365
43.9200 29.2495 0.9376
43.9400 29.2628 0.9390
43.9600 29.2762 0.9395
43.9800 29.2895 0.9431
44.0000 29.3028 0.9388
44.0200 29.3161 0.9429
44.0400 29.3294 0.9436
44.0600 29.3428 0.9443
44.0800 29.3561 0.9409
44.1000 29.3694 0.9449
44.1200 29.3828 0.9443
44.1400 29.3962 0.9446
44.1600 29.4095 0.9473
44.1800 29.4228 0.9463
44.2000 29.4362 0.9459
44.2200 29.4495 0.9451
44.2400 29.4629 0.9488
44.2600 29.4762 0.9492
44.2800 29.4895 0.9506
44.3000 29.5028 0.9518
44.3200 29.5162 0.9526
44.3400 29.5295 0.9495
44.3600 29.5428 0.9523
44.3800 29.5561 0.9506
44.4000 29.5694 0.9541
44.4200 29.5828 0.9533
44.4400 29.5961 0.9551
44.4600 29.6094 0.9563
44.4800 29.6228 0.9559
44.5000 29.6362 0.9577
44.5200 29.6495 0.9562
44.5400 29.6628 0.9566
44.5600 29.6762 0.9561
44.5800 29.6896 0.9619
44.6000 29.7029 0.9614
44.6200 29.7162 0.9607
44.6400 29.7295 0.9630
44.6600 29.7428 0.9625
44.6800 29.7562 0.9621
44.7000 29.7695 0.9637
44.7200 29.7828 0.9633
44.7400 29.7961 0.9632
44.7600 29.8094 0.9658
44.7800 29.8228 0.9656
44.8000 29.8361 0.9695
44.8200 29.8494 0.9685
44.8400 29.8628 0.9697
44.8600 29.8762 0.9706
44.8800 29.8895 0.9727
44.9000 29.9028 0.9714
44.9200 29.9162 0.9711
44.9400 29.9295 0.9708
44.9600 29.9429 0.9719
44.9800 29.9562 0.9709
45.0000 29.9695 0.9745
45.0200 29.9828 0.9736
45.0400 29.9961 0.9766
45.0600 30.0095 0.9768
45.0800 30.0228 0.9790
45.1000 30.0361 0.9754
45.1200 30.0494 0.9788
45.1400 30.0628 0.9770
45.1600 30.0761 0.9776
45.1800 30.0894 0.9786
45.2000 30.1028 0.9828
45.2200 30.1162 0.9800
45.2400 30.1295 0.9839
45.2600 30.1428 0.9835
45.2800 30.1562 0.9842
45.3000 30.1695 0.9840
45.3200 30.1829 0.9848
45.3400 30.1962 0.9853
45.3600 30.2095 0.9855
45.3800 30.2228 0.9897
45.4000 30.2361 0.9858
45.4200 30.2495 0.9888
45.4400 30.2628 0.9897
45.4600 30.2761 0.9901
45.4800 30.2894 0.9921
45.5000 30.3028 0.9930
45.5200 30.3161 0.9894
45.5400 30.3294 0.9942
45.5600 30.3428 0.9937
45.5800 30.3562 0.9943
45.6000 30.3695 0.9947
45.6200 30.3828 0.9962
45.6400 30.3961 0.9950
45.6600 30.4095 0.9979
45.6800 30.4229 0.9996
45.7000 30.4362 0.9983
45.7200 30.4495 1.0010
45.7400 30.4628 0.9989
45.7600 30.4762 0.9980
45.7800 30.4895 1.0004
45.8000 30.5028 1.0021
45.8200 30.5161 1.0010
45.8400 30.5294 1.0045
45.8600 30.5428 1.0052
45.8800 30.5561 1.0052
45.9000 30.5694 1.0054
45.9200 30.5828 1.0056
45.9400 30.5962 1.0066
45.9600 30.6096 1.0058
45.9800 30.6229 1.0099
46.0000 30.6362 1.0080
46.0200 30.6495 1.0095
46.0400 30.6629 1.0096
46.0600 30.6762 1.0106
46.0800 30.6895 1.0121
46.1000 30.7028 1.0131
46.1200 30.7161 1.0112
46.1400 30.7295 1.0144
46.1600 30.7428 1.0167
46.1800 30.7561 1.0154
46.2000 30.7694 1.0190
46.2200 30.7828 1.0183
46.2400 30.7961 1.0172
46.2600 30.8094 1.0189
46.2800 30.8228 1.0195
46.3000 30.8362 1.0199
46.3200 30.8495 1.0215
46.3400 30.8629 1.0233
46.3600 30.8762 1.0217
46.3800 30.8895 1.0245
46.4000 30.9029 1.0226
46.4200 30.9162 1.0254
46.4400 30.9295 1.0230
46.4600 30.9428 1.0265
46.4800 30.9561 1.0247
46.5000 30.9695 1.0271
46.5200 30.9828 1.0287
46.5400 30.9961 1.0292
46.5600 31.0094 1.0309
46.5800 31.0228 1.0334
46.6000 31.0361 1.0334
46.6200 31.0494 1.0321
46.6400 31.0628 1.0347
46.6600 31.0762 1.0333
46.6800 31.0895 1.0353
46.7000 31.1029 1.0356
46.7200 31.1162 1.0348
46.7400 31.1295 1.0364
46.7600 31.1429 1.0374
46.7800 31.1562 1.0367
46.8000 31.1695 1.0391
46.8200 31.1828 1.0409
46.8400 31.1961 1.0400
46.8600 31.2094 1.0425
46.8800 31.2228 1.0419
46.9000 31.2361 1.0402
46.9200 31.2494 1.0421
46.9400 31.2628 1.0442
46.9600 31.2761 1.0448
46.9800 31.2895 1.0478
47.0000 31.3028 1.0478
47.0200 31.3162 1.0479
47.0400 31.3296 1.0467
47.0600 31.3429 1.0501
47.0800 31.3562 1.0456
47.1000 31.3695 1.0495
47.1200 31.3829 1.0524
47.1400 31.3962 1.0513
47.1600 31.4095 1.0537
47.1800 31.4228 1.0543
47.2000 31.4361 1.0529
47.2200 31.4495 1.0559
47.2400 31.4628 1.0587
47.2600 31.4761 1.0574
47.2800 31.4894 1.0596
47.3000 31.5028 1.0595
47.3200 31.5161 1.0579
47.3400 31.5294 1.0571
47.3600 31.5428 1.0613
47.3800 31.5562 1.0602
47.4000 31.5696 1.0630
47.4200 31.5829 1.0627
47.4400 31.5962 1.0621
47.4600 31.6096 1.0632
47.4800 31.6229 1.0663
47.5000 31.6362 1.0669
47.5200 31.6495 1.0651
47.5400 31.6628 1.0682
47.5600 31.6762 1.0680
47.5800 31.6895 1.0699
47.6000 31.7028 1.0714
47.6200 31.7161 1.0720
47.6400 31.7294 1.0743
47.6600 31.7427 1.0722
47.6800 31.7561 1.0730
47.7000 31.7694 1.0730
47.7200 31.7828 1.0769
47.7400 31.7962 1.0744
47.7600 31.8095 1.0767
47.7800 31.8229 1.0771
47.8000 31.8362 1.0784
47.8200 31.8495 1.0796
47.8400 31.8629 1.0818
47.8600 31.8762 1.0795
47.8800 31.8895 1.0828
47.9000 31.9028 1.0850
47.9200 31.9161 1.0846
47.9400 31.9295 1.0854
47.9600 31.9428 1.0878
47.9800 31.9561 1.0851
48.0000 31.9694 1.0875
48.0200 31.9827 1.0872
48.0400 31.9961 1.0882
48.0600 32.0094 1.0877
48.0800 32.0228 1.0903
48.1000 32.0361 1.0895
48.1200 32.0495 1.0912
48.1400 32.0629 1.0945
48.1600 32.0762 1.0922
48.1800 32.0895 1.0938
48.2000 32.1029 1.0964
48.2200 32.1162 1.0940
48.2400 32.1295 1.0956
48.2600 32.1428 1.0984
48.2800 32.1561 1.0983
48.3000 32.1695 1.0980
48.3200 32.1828 1.1023
48.3400 32.1961 1.1029
48.3600 32.2094 1.1019
48.3800 32.2228 1.1050
48.4000 32.2361 1.1001
48.4200 32.2495 1.1034
48.4400 32.2628 1.1065
48.4600 32.2762 1.1071
48.4800 32.2896 1.1080
48.5000 32.3029 1.1088
48.5200 32.3162 1.1084
48.5400 32.3295 1.1090
48.5600 32.3429 1.1124
48.5800 32.3562 1.1125
48.6000 32.3695 1.1107
48.6200 32.3828 1.1151
48.6400 32.3961 1.1141
48.6600 32.4094 1.1152
48.6800 32.4228 1.1157
48.7000 32.4361 1.1157
48.7200 32.4494 1.1166
48.7400 32.4628 1.1235
48.7600 32.4761 1.1183
48.7800 32.4895 1.1220
48.8000 32.5028 1.1219
48.8200 32.5162 1.1230
48.8400 32.5296 1.1220
48.8600 32.5429 1.1255
48.8800 32.5562 1.1232
48.9000 32.5695 1.1235
48.9200 32.5829 1.1254
48.9400 32.5962 1.1262
48.9600 32.6095 1.1269
48.9800 32.6228 1.1288
49.0000 32.6361 1.1288
49.0200 32.6495 1.1313
49.0400 32.6628 1.1340
49.0600 32.6761 1.1330
49.0800 32.6894 1.1358
49.1000 32.7028 1.1346
49.1200 32.7161 1.1364
49.1400 32.7295 1.1341
49.1600 32.7428 1.1390
49.1800 32.7562 1.1377
49.2000 32.7695 1.1388
49.2200 32.7829 1.1406
49.2400 32.7962 1.1394
49.2600 32.8095 1.1391
49.2800 32.8228 1.1435
49.3000 32.8362 1.1434
49.3200 32.8495 1.1433
49.3400 32.8628 1.1450
49.3600 32.8761 1.1453
49.3800 32.8895 1.1474
49.4000 32.9028 1.1495
49.4200 32.9161 1.1505
49.4400 32.9294 1.1486
49.4600 32.9427 1.1516
49.4800 32.9561 1.1522
49.5000 32.9694 1.1532
49.5200 32.9828 1.1556
49.5400 32.9961 1.1542
49.5600 33.0095 1.1562
49.5800 33.0229 1.1574
49.6000 33.0362 1.1583
49.6200 33.0495 1.1560
49.6400 33.0629 1.1611
49.6600 33.0762 1.1592
49.6800 33.0895 1.1601
49.7000 33.1028 1.1622
49.7200 33.1161 1.1620
49.7400 33.1295 1.1610
49.7600 33.1428 1.1661
49.7800 33.1561 1.1658
49.8000 33.1694 1.1668
49.8200 33.1828 1.1689
49.8400 33.1961 1.1679
49.8600 33.2094 1.1705
49.8800 33.2228 1.1728
49.9000 33.2362 1.1733
49.9200 33.2496 1.1728
49.9400 33.2629 1.1749
49.9600 33.2762 1.1752
49.9800 33.2895 1.1758
50.0000 33.3029 1.1772
50.0200 33.3162 1.1778
50.0400 33.3295 1.1778
50.0600 33.3428 1.1793
50.0800 33.3561 1.1801
50.1000 33.3695 1.1801
50.1200 33.3828 1.1817
50.1400 33.3961 1.1823
50.1600 33.4094 1.1862
50.1800 33.4227 1.1857
50.2000 33.4361 1.1881
50.2200 33.4494 1.1850
50.2400 33.4628 1.1894
50.2600 33.4761 1.1903
50.2800 33.4895 1.1886
50.3000 33.5029 1.1919
50.3200 33.5162 1.1926
50.3400 33.5295 1.1927
50.3600 33.5428 1.1929
50.3800 33.5562 1.1933
50.4000 33.5695 1.1962
50.4200 33.5828 1.1998
50.4400 33.5961 1.1985
50.4600 33.6095 1.1984
50.4800 33.6228 1.1991
50.5000 33.6361 1.1982
50.5200 33.6494 1.1981
50.5400 33.6627 1.2043
50.5600 33.6761 1.2041
50.5800 33.6894 1.2037
50.6000 33.7028 1.2067
50.6200 33.7161 1.2071
50.6400 33.7295 1.2070
50.6600 33.7429 1.2087
50.6800 33.7562 1.2110
50.7000 33.7695 1.2118
50.7200 33.7828 1.2125
50.7400 33.7962 1.2133
50.7600 33.8095 1.2119
50.7800 33.8228 1.2153
50.8000 33.8362 1.2160
50.8200 33.8495 1.2174
50.8400 33.8628 1.2190
50.8600 33.8761 1.2209
50.8800 33.8894 1.2189
50.9000 33.9028 1.2222
50.9200 33.9161 1.2241
50.9400 33.9294 1.2225
50.9600 33.9428 1.2266
50.9800 33.9561 1.2270
51.0000 33.9695 1.2262
51.0200 33.9828 1.2258
51.0400 33.9962 1.2290
51.0600 34.0095 1.2263
51.0800 34.0228 1.2323
51.1000 34.0362 1.2324
51.1200 34.0495 1.2338
51.1400 34.0628 1.2355
51.1600 34.0762 1.2363
51.1800 34.0895 1.2351
51.2000 34.1028 1.2373
51.2200 34.1161 1.2394
51.2400 34.1294 1.2391
51.2600 34.1427 1.2413
51.2800 34.1561 1.2434
51.3000 34.1694 1.2393
51.3200 34.1828 1.2451
51.3400 34.1961 1.2470
51.3600 34.2095 1.2466
51.3800 34.2229 1.2491
51.4000 34.2362 1.2473
51.4200 34.2495 1.2498
51.4400 34.2629 1.2498
51.4600 34.2762 1.2536
51.4800 34.2895 1.2535
51.5000 34.3028 1.2557
51.5200 34.3161 1.2544
51.5400 34.3295 1.2556
51.5600 34.3428 1.2574
51.5800 34.3561 1.2612
51.6000 34.3694 1.2578
51.6200 34.3827 1.2635
51.6400 34.3961 1.2626
51.6600 34.4094 1.2614
51.6800 34.4227 1.2633
51.7000 34.4361 1.2644
51.7200 34.4495 1.2647
51.7400 34.4628 1.2668
51.7600 34.4762 1.2690
51.7800 34.4895 1.2660
51.8000 34.5029 1.2692
51.8200 34.5162 1.2720
51.8400 34.5295 1.2732
51.8600 34.5428 1.2736
51.8800 34.5561 1.2771
51.9000 34.5695 1.2745
51.9200 34.5828 1.2787
51.9400 34.5961 1.2800
51.9600 34.6094 1.2787
51.9800 34.6227 1.2811
52.0000 34.6361 1.2835
52.0200 34.6494 1.2841
52.0400 34.6628 1.2836
52.0600 34.6761 1.2869
52.0800 34.6895 1.2862
52.1000 34.7029 1.2873
52.1200 34.7162 1.2879
52.1400 34.7295 1.2876
52.1600 34.7428 1.2904
52.1800 34.7562 1.2922
52.2000 34.7695 1.2931
52.2200 34.7828 1.2953
52.2400 34.7961 1.2952
52.2600 34.8095 1.2962
52.2800 34.8229 1.2982
52.3000 34.8362 1.2990
52.3200 34.8495 1.2993
52.3400 34.8628 1.3010
52.3600 34.8761 1.3046
52.3800 34.8894 1.3023
52.4000 34.9028 1.3047
52.4200 34.9161 1.3047
52.4400 34.9295 1.3085
52.4600 34.9428 1.3085
52.4800 34.9562 1.3095
52.5000 34.9695 1.3093
52.5200 34.9828 1.3143
52.5400 34.9962 1.3145
52.5600 35.0095 1.3163
52.5800 35.0228 1.3170
52.6000 35.0361 1.3167
52.6200 35.0494 1.3169
52.6400 35.0628 1.3204
52.6600 35.0761 1.3208
52.6800 35.0894 1.3207
52.7000 35.1027 1.3240
52.7200 35.1161 1.3244
52.7400 35.1295 1.3252
52.7600 35.1428 1.3265
52.7800 35.1561 1.3293
52.8000 35.1695 1.3272
52.8200 35.1829 1.3297
52.8400 35.1962 1.3320
52.8600 35.2095 1.3327
52.8800 35.2228 1.3340
52.9000 35.2362 1.3364
52.9200 35.2495 1.3369
52.9400 35.2628 1.3408
52.9600 35.2762 1.3414
52.9800 35.2895 1.3392
53.0000 35.3028 1.3427
53.0200 35.3162 1.3457
53.0400 35.3294 1.3445
53.0600 35.3427 1.3460
53.0800 35.3561 1.3492
53.1000 35.3694 1.3477
53.1200 35.3828 1.3500
53.1400 35.3961 1.3527
53.1600 35.4095 1.3501
53.1800 35.4229 1.3524
53.2000 35.4362 1.3552
53.2200 35.4495 1.3550
53.2400 35.4629 1.3551
53.2600 35.4762 1.3585
53.2800 35.4896 1.3573
53.3000 35.5029 1.3615
53.3200 35.5161 1.3625
53.3400 35.5295 1.3651
53.3600 35.5428 1.3656
53.3800 35.5561 1.3679
53.4000 35.5694 1.3680
53.4200 35.5827 1.3680
53.4400 35.5961 1.3715
53.4600 35.6094 1.3695
53.4800 35.6227 1.3743
53.5000 35.6361 1.3761
53.5200 35.6495 1.3753
53.5400 35.6629 1.3769
53.5600 35.6762 1.3800
53.5800 35.6895 1.3808
53.6000 35.7029 1.3812
53.6200 35.7162 1.3835
53.6400 35.7296 1.3834
53.6600 35.7429 1.3858
53.6800 35.7561 1.3879
53.7000 35.7695 1.3887
53.7200 35.7828 1.3892
53.7400 35.7961 1.3916
53.7600 35.8094 1.3922
53.7800 35.8227 1.3935
53.8000 35.8361 1.3949
53.8200 35.8494 1.3952
53.8400 35.8628 1.3980
53.8600 35.8761 1.3997
53.8800 35.8895 1.3995
53.9000 35.9028 1.4001
53.9200 35.9162 1.4050
53.9400 35.9295 1.4037
53.9600 35.9428 1.4057
53.9800 35.9562 1.4071
54.0000 35.9696 1.4077
54.0200 35.9829 1.4102
54.0400 35.9961 1.4138
54.0600 36.0094 1.4132
54.0800 36.0228 1.4160
54.1000 36.0361 1.4166
54.1200 36.0494 1.4174
54.1400 36.0627 1.4173
54.1600 36.0761 1.4201
54.1800 36.0895 1.4195
54.2000 36.1028 1.4218
54.2200 36.1161 1.4251
54.2400 36.1295 1.4254
54.2600 36.1429 1.4263
54.2800 36.1562 1.4296
54.3000 36.1695 1.4283
54.3200 36.1829 1.4323
54.3400 36.1962 1.4334
54.3600 36.2095 1.4335
54.3800 36.2228 1.4364
54.4000 36.2361 1.4392
54.4200 36.2494 1.4391
54.4400 36.2628 1.4387
54.4600 36.2761 1.4421
54.4800 36.2894 1.4438
54.5000 36.3028 1.4439
54.5200 36.3161 1.4452
54.5400 36.3294 1.4463
54.5600 36.3428 1.4465
54.5800 36.3561 1.4502
54.6000 36.3695 1.4490
54.6200 36.3828 1.4526
54.6400 36.3962 1.4546
54.6600 36.4095 1.4538
54.6800 36.4228 1.4577
54.7000 36.4362 1.4605
54.7200 36.4496 1.4595
54.7400 36.4629 1.4610
54.7600 36.4762 1.4645
54.7800 36.4895 1.4668
54.8000 36.5028 1.4669
54.8200 36.5162 1.4703
54.8400 36.5295 1.4697
54.8600 36.5427 1.4715
54.8800 36.5560 1.4728
54.9000 36.5694 1.4742
54.9200 36.5828 1.4766
54.9400 36.5961 1.4773
54.9600 36.6095 1.4773
54.9800 36.6228 1.4782
55.0000 36.6362 1.4811
55.0200 36.6495 1.4828
55.0400 36.6628 1.4847
55.0600 36.6762 1.4872
55.0800 36.6895 1.4869
55.1000 36.7029 1.4902
55.1200 36.7162 1.4928
55.1400 36.7295 1.4913
55.1600 36.7428 1.4952
55.1800 36.7562 1.4963
55.2000 36.7695 1.4970
55.2200 36.7827 1.4992
55.2400 36.7961 1.5032
55.2600 36.8094 1.5007
55.2800 36.8227 1.5026
55.3000 36.8361 1.5044
55.3200 36.8495 1.5060
55.3400 36.8629 1.5074
55.3600 36.8762 1.5100
55.3800 36.8896 1.5111
55.4000 36.9029 1.5127
55.4200 36.9162 1.5144
55.4400 36.9296 1.5156
55.4600 36.9429 1.5169
55.4800 36.9562 1.5206
55.5000 36.9695 1.5209
55.5200 36.9828 1.5226
55.5400 36.9961 1.5234
55.5600 37.0094 1.5265
55.5800 37.0228 1.5279
55.6000 37.0361 1.5305
55.6200 37.0495 1.5298
55.6400 37.0628 1.5286
55.6600 37.0761 1.5361
55.6800 37.0895 1.5364
55.7000 37.1029 1.5377
55.7200 37.1162 1.5392
55.7400 37.1295 1.5412
55.7600 37.1428 1.5431
55.7800 37.1562 1.5458
55.8000 37.1695 1.5440
55.8200 37.1828 1.5474
55.8400 37.1961 1.5502
55.8600 37.2094 1.5515
55.8800 37.2228 1.5502
55.9000 37.2361 1.5544
55.9200 37.2494 1.5551
55.9400 37.2627 1.5570
55.9600 37.2761 1.5597
55.9800 37.2894 1.5638
56.0000 37.3028 1.5640
56.0200 37.3161 1.5637
56.0400 37.3295 1.5645
56.0600 37.3428 1.5665
56.0800 37.3562 1.5717
56.1000 37.3695 1.5706
56.1200 37.3828 1.5715
56.1400 37.3962 1.5752
56.1600 37.4095 1.5770
56.1800 37.4229 1.5798
56.2000 37.4361 1.5785
56.2200 37.4495 1.5788
56.2400 37.4628 1.5805
56.2600 37.4762 1.5839
56.2800 37.4894 1.5856
56.3000 37.5027 1.5873
56.3200 37.5161 1.5897
56.3400 37.5295 1.5919
56.3600 37.5428 1.5933
56.3800 37.5561 1.5970
56.4000 37.5695 1.5979
56.4200 37.5828 1.5990
56.4400 37.5962 1.5991
56.4600 37.6095 1.6015
56.4800 37.6228 1.6038
56.5000 37.6362 1.6070
56.5200 37.6496 1.6072
56.5400 37.6629 1.6080
56.5600 37.6761 1.6117
56.5800 37.6894 1.6132
56.6000 37.7028 1.6144
56.6200 37.7162 1.6181
56.6400 37.7295 1.6190
56.6600 37.7428 1.6182
56.6800 37.7561 1.6225
56.7000 37.7695 1.6234
56.7200 37.7828 1.6248
56.7400 37.7961 1.6281
56.7600 37.8095 1.6277
56.7800 37.8228 1.6305
56.8000 37.8362 1.6336
56.8200 37.8495 1.6351
56.8400 37.8628 1.6368
56.8600 37.8762 1.6370
56.8800 37.8895 1.6411
56.9000 37.9029 1.6411
56.9200 37.9162 1.6435
56.9400 37.9295 1.6452
56.9600 37.9428 1.6461
56.9800 37.9561 1.6491
57.0000 37.9694 1.6523
57.0200 37.9827 1.6536
57.0400 37.9961 1.6562
57.0600 38.0094 1.6556
57.0800 38.0228 1.6574
57.1000 38.0361 1.6602
57.1200 38.0495 1.6629
57.1400 38.0629 1.6627
57.1600 38.0762 1.6680
57.1800 38.0895 1.6687
57.2000 38.1029 1.6718
57.2200 38.1162 1.6710
57.2400 38.1295 1.6733
57.2600 38.1429 1.6729
57.2800 38.1561 1.6790
57.3000 38.1694 1.6792
57.3200 38.1828 1.6833
57.3400 38.1962 1.6843
57.3600 38.2095 1.6879
57.3800 38.2228 1.6877
57.4000 38.2361 1.6915
57.4200 38.2494 1.6938
57.4400 38.2628 1.6932
57.4600 38.2761 1.6943
57.4800 38.2894 1.6971
57.5000 38.3028 1.6972
57.5200 38.3162 1.6998
57.5400 38.3295 1.7039
57.5600 38.3428 1.7058
57.5800 38.3561 1.7067
57.6000 38.3695 1.7074
57.6200 38.3829 1.7089
57.6400 38.3962 1.7132
57.6600 38.4095 1.7146
57.6800 38.4228 1.7161
57.7000 38.4361 1.7204
57.7200 38.4494 1.7212
57.7400 38.4627 1.7211
57.7600 38.4761 1.7251
57.7800 38.4894 1.7276
57.8000 38.5028 1.7270
57.8200 38.5161 1.7301
57.8400 38.5295 1.7323
57.8600 38.5428 1.7360
57.8800 38.5562 1.7374
57.9000 38.5695 1.7394
57.9200 38.5828 1.7415
57.9400 38.5961 1.7429
57.9600 38.6095 1.7463
57.9800 38.6228 1.7474
58.0000 38.6362 1.7486
58.0200 38.6495 1.7515
58.0400 38.6628 1.7533
58.0600 38.6762 1.7571
58.0800 38.6895 1.7570
58.1000 38.7028 1.7592
58.1200 38.7161 1.7624
58.1400 38.7295 1.7615
58.1600 38.7428 1.7657
58.1800 38.7561 1.7668
58.2000 38.7694 1.7705
58.2200 38.7828 1.7719
58.2400 38.7962 1.7738
58.2600 38.8095 1.7762
58.2800 38.8228 1.7777
58.3000 38.8361 1.7791
58.3200 38.8495 1.7828
58.3400 38.8629 1.7846
58.3600 38.8762 1.7873
58.3800 38.8895 1.7884
58.4000 38.9028 1.7889
58.4200 38.9162 1.7919
58.4400 38.9295 1.7939
58.4600 38.9428 1.7983
58.4800 38.9561 1.7974
58.5000 38.9694 1.8003
58.5200 38.9828 1.8011
58.5400 38.9961 1.8049
58.5600 39.0094 1.8081
58.5800 39.0228 1.8110
58.6000 39.0362 1.8108
58.6200 39.0495 1.8127
58.6400 39.0629 1.8159
58.6600 39.0762 1.8175
58.6800 39.0895 1.8200
58.7000 39.1029 1.8207
58.7200 39.1162 1.8229
58.7400 39.1295 1.8253
58.7600 39.1428 1.8297
58.7800 39.1561 1.8302
58.8000 39.1695 1.8329
58.8200 39.1828 1.8342
58.8400 39.1961 1.8361
58.8600 39.2094 1.8393
58.8800 39.2228 1.8429
58.9000 39.2361 1.8452
58.9200 39.2494 1.8462
58.9400 39.2628 1.8483
58.9600 39.2762 1.8498
58.9800 39.2895 1.8524
59.0000 39.3029 1.8539
59.0200 39.3162 1.8559
59.0400 39.3296 1.8589
59.0600 39.3429 1.8614
59.0800 39.3562 1.8625
59.1000 39.3695 1.8687
59.1200 39.3828 1.8680
59.1400 39.3962 1.8710
59.1600 39.4095 1.8720
59.1800 39.4228 1.8771
59.2000 39.4361 1.8777
59.2200 39.4494 1.8794
59.2400 39.4628 1.8805
59.2600 39.4761 1.8818
59.2800 39.4894 1.8867
59.3000 39.5028 1.8884
59.3200 39.5162 1.8914
59.3400 39.5296 1.8932
59.3600 39.5429 1.8956
59.3800 39.5562 1.8960
59.4000 39.5695 1.8987
59.4200 39.5829 1.9016
59.4400 39.5962 1.9036
59.4600 39.6095 1.9064
59.4800 39.6228 1.9102
59.5000 39.6361 1.9112
59.5200 39.6495 1.9133
59.5400 39.6628 1.9156
59.5600 39.6761 1.9176
59.5800 39.6894 1.9187
59.6000 39.7028 1.9200
59.6200 39.7161 1.9224
59.6400 39.7294 1.9268
59.6600 39.7428 1.9284
59.6800 39.7562 1.9295
59.7000 39.7695 1.9308
59.7200 39.7828 1.9345
59.7400 39.7962 1.9361
59.7600 39.8095 1.9388
59.7800 39.8229 1.9426
59.8000 39.8362 1.9414
59.8200 39.8495 1.9451
59.8400 39.8628 1.9481
59.8600 39.8761 1.9494
59.8800 39.8895 1.9522
59.9000 39.9028 1.9528
59.9200 39.9161 1.9565
59.9400 39.9294 1.9596
59.9600 39.9428 1.9612
59.9800 39.9561 1.9630
60.0000 39.9694 1.9662
60.0200 39.9828 1.9680
60.0400 39.9961 1.9683
60.0460 40.0001 1.9661
60.0470 40.0007 1.9656
60.0480 40.0013 1.9650
60.0680 40.0118 1.9516
60.0880 40.0140 1.9400
60.1080 40.0056 1.9537
60.1280 39.9928 1.9614
60.1480 39.9798 1.9528
60.1680 39.9670 1.9463
60.1880 39.9536 1.9389
60.2080 39.9396 1.9329
60.2280 39.9256 1.9284
60.2480 39.9118 1.9252
60.2680 39.8983 1.9195
60.2880 39.8850 1.9121
60.3080 39.8717 1.9097
60.3280 39.8584 1.9019
60.3480 39.8451 1.8996
60.3680 39.8317 1.8914
60.3880 39.8183 1.8888
60.4080 39.8049 1.8849
60.4280 39.7916 1.8804
60.4480 39.7783 1.8743
60.4680 39.7649 1.8702
60.4880 39.7515 1.8655
60.5080 39.7382 1.8622
60.5280 39.7249 1.8578
60.5480 39.7115 1.8537
60.5680 39.6982 1.8496
60.5880 39.6849 1.8469
60.6080 39.6716 1.8395
60.6280 39.6582 1.8347
60.6480 39.6449 1.8332
60.6680 39.6316 1.8281
60.6880 39.6183 1.8245
60.7080 39.6050 1.8191
60.7280 39.5916 1.8164
60.7480 39.5782 1.8125
60.7680 39.5649 1.8094
60.7880 39.5516 1.8045
60.8080 39.5382 1.7987
60.8280 39.5248 1.7957
60.8480 39.5115 1.7923
60.8680 39.4982 1.7885
60.8880 39.4849 1.7848
60.9080 39.4715 1.7825
60.9280 39.4581 1.7761
60.9480 39.4448 1.7723
60.9680 39.4315 1.7682
60.9880 39.4182 1.7654
61.0080 39.4049 1.7621
61.0280 39.3916 1.7584
61.0480 39.3783 1.7552
61.0680 39.3650 1.7538
61.0880 39.3516 1.7493
61.1080 39.3382 1.7452
61.1280 39.3249 1.7390
61.1480 39.3116 1.7354
61.1680 39.2982 1.7348
61.1880 39.2848 1.7300
61.2080 39.2715 1.7272
61.2280 39.2582 1.7240
61.2480 39.2448 1.7191
61.2680 39.2315 1.7189
61.2880 39.2181 1.7137
61.3080 39.2048 1.7113
61.3280 39.1915 1.7057
61.3480 39.1782 1.7045
61.3680 39.1648 1.6992
61.3880 39.1515 1.6981
61.4080 39.1383 1.6926
61.4280 39.1249 1.6907
61.4480 39.1116 1.6854
61.4680 39.0983 1.6833
61.4880 39.0849 1.6814
61.5080 39.0716 1.6781
61.5280 39.0582 1.6741
61.5480 39.0448 1.6684
61.5680 39.0315 1.6684
61.5880 39.0182 1.6654
61.6080 39.0048 1.6629
61.6280 38.9915 1.6581
61.6480 38.9781 1.6560
61.6680 38.9648 1.6516
61.6880 38.9515 1.6506
61.7080 38.9382 1.6457
61.7280 38.9249 1.6453
61.7480 38.9116 1.6411
61.7680 38.8983 1.6372
61.7880 38.8850 1.6327
61.8080 38.8716 1.6306
61.8280 38.8582 1.6271
61.8480 38.8449 1.6237
61.8680 38.8316 1.6206
61.8880 38.8182 1.6204
61.9080 38.8049 1.6154
61.9280 38.7915 1.6156
61.9480 38.7782 1.6128
61.9680 38.7649 1.6072
61.9880 38.7515 1.6039
62.0080 38.7382 1.6011
62.0280 38.7248 1.5979
62.0480 38.7115 1.5955
62.0680 38.6982 1.5932
62.0880 38.6849 1.5910
62.1080 38.6715 1.5878
62.1280 38.6582 1.5852
62.1480 38.6449 1.5832
62.1680 38.6316 1.5801
62.1880 38.6182 1.5781
62.2080 38.6049 1.5742
62.2280 38.5916 1.5691
62.2480 38.5782 1.5692
62.2680 38.5648 1.5679
62.2880 38.5515 1.5627
62.3080 38.5382 1.5605
62.3280 38.5249 1.5560
62.3480 38.5115 1.5538
62.3680 38.4981 1.5511
62.3880 38.4848 1.5483
62.4080 38.4715 1.5467
62.4280 38.4582 1.5448
62.4480 38.4448 1.5412
62.4680 38.4315 1.5414
62.4880 38.4182 1.5382
62.5080 38.4049 1.5363
62.5280 38.3916 1.5302
62.5480 38.3782 1.5286
62.5680 38.3649 1.5250
62.5880 38.3516 1.5232
62.6080 38.3382 1.5210
62.6280 38.3248 1.5179
62.6480 38.3115 1.5157
62.6680 38.2982 1.5136
62.6880 38.2849 1.5138
62.7080 38.2715 1.5105
62.7280 38.2582 1.5084
62.7480 38.2448 1.5021
62.7680 38.2315 1.4999
62.7880 38.2182 1.4970
62.8080 38.2048 1.4962
62.8280 38.1915 1.4922
62.8480 38.1782 1.4907
62.8680 38.1649 1.4871
62.8880 38.1516 1.4875
62.9080 38.1382 1.4871
62.9280 38.1249 1.4836
62.9480 38.1116 1.4811
62.9680 38.0982 1.4761
62.9880 38.0849 1.4739
63.0080 38.0715 1.4724
63.0280 38.0582 1.4706
63.0480 38.0449 1.4698
63.0680 38.0315 1.4660
63.0880 38.0182 1.4637
63.1080 38.0048 1.4603
63.1280 37.9915 1.4547
63.1480 37.9782 1.4552
63.1680 37.9648 1.4522
63.1880 37.9515 1.4511
63.2080 37.9382 1.4498
63.2280 37.9249 1.4464
63.2480 37.9116 1.4437
63.2680 37.8982 1.4428
63.2880 37.8849 1.4409
63.3080 37.8716 1.4365
63.3280 37.8582 1.4346
63.3480 37.8448 1.4341
63.3680 37.8315 1.4317
63.3880 37.8182 1.4289
63.4080 37.8049 1.4266
63.4280 37.7916 1.4243
63.4480 37.7782 1.4237
63.4680 37.7649 1.4217
63.4880 37.7516 1.4179
63.5080 37.7382 1.4163
63.5280 37.7249 1.4140
63.5480 37.7115 1.4113
63.5680 37.6982 1.4087
63.5880 37.6849 1.4066
63.6080 37.6716 1.4048
63.6280 37.6582 1.4040
63.6480 37.6449 1.4015
63.6680 37.6315 1.3991
63.6880 37.6182 1.3965
63.7080 37.6049 1.3949
63.7280 37.5915 1.3923
63.7480 37.5782 1.3912
63.7680 37.5649 1.3892
63.7880 37.5515 1.3871
63.8080 37.5382 1.3843
63.8280 37.5248 1.3834
63.8480 37.5115 1.3800
63.8680 37.4982 1.3793
63.8880 37.4849 1.3767
63.9080 37.4716 1.3732
63.9280 37.4582 1.3729
63.9480 37.4449 1.3702
63.9680 37.4316 1.3694
63.9880 37.4182 1.3680
64.0080 37.4048 1.3658
64.0280 37.3915 1.3612
64.0480 37.3782 1.3597
64.0680 37.3649 1.3572
64.0880 37.3515 1.3565
64.1080 37.3382 1.3548
64.1280 37.3249 1.3548
64.1480 37.3115 1.3506
64.1680 37.2982 1.3489
64.1880 37.2848 1.3462
64.2080 37.2715 1.3431
64.2280 37.2582 1.3430
64.2480 37.2449 1.3406
64.2680 37.2315 1.3382
64.2880 37.2182 1.3360
64.3080 37.2049 1.3333
64.3280 37.1916 1.3314
64.3480 37.1783 1.3303
64.3680 37.1649 1.3293
64.3880 37.1516 1.3262
64.4080 37.1383 1.3257
64.4280 37.1249 1.3251
64.4480 37.1115 1.3229
64.4680 37.0982 1.3225
64.4880 37.0849 1.3184
64.5080 37.0715 1.3154
64.5280 37.0582 1.3162
64.5480 37.0448 1.3149
64.5680 37.0315 1.3109
64.5880 37.0182 1.3093
64.6080 37.0049 1.3070
64.6280 36.9915 1.3043
64.6480 36.9782 1.3051
64.6680 36.9649 1.3021
64.6880 36.9516 1.2996
64.7080 36.9382 1.2983
64.7280 36.9249 1.2981
64.7480 36.9115 1.2921
64.7680 36.8982 1.2943
64.7880 36.8849 1.2913
64.8080 36.8715 1.2884
64.8280 36.8581 1.2867
64.8480 36.8448 1.2849
64.8680 36.8315 1.2831
64.8880 36.8182 1.2837
64.9080 36.8048 1.2831
64.9280 36.7915 1.2787
64.9480 36.7782 1.2761
64.9680 36.7649 1.2759
64.9880 36.7515 1.2736
65.0080 36.7382 1.2724
65.0280 36.7249 1.2713
65.0480 36.7116 1.2698
65.0680 36.6983 1.2706
65.0880 36.6849 1.2691
65.1080 36.6716 1.2653
65.1280 36.6582 1.2630
65.1480 36.6449 1.2620
65.1680 36.6315 1.2563
65.1880 36.6182 1.2559
65.2080 36.6049 1.2553
65.2280 36.5915 1.2514
65.2480 36.5782 1.2538
65.2680 36.5648 1.2527
65.2880 36.5515 1.2474
65.3080 36.5382 1.2484
65.3280 36.5249 1.2465
65.3480 36.5115 1.2445
65.3680 36.4982 1.2417
65.3880 36.4849 1.2422
65.4080 36.4716 1.2380
65.4280 36.4583 1.2388
65.4480 36.4449 1.2366
65.4680 36.4316 1.2364
65.4880 36.4183 1.2344
65.5080 36.4049 1.2316
65.5280 36.3915 1.2276
65.5480 36.3782 1.2276
65.5680 36.3648 1.2256
65.5880 36.3515 1.2234
65.6080 36.3382 1.2240
65.6280 36.3248 1.2206
65.6480 36.3115 1.2179
65.6680 36.2982 1.2185
65.6880 36.2849 1.2166
65.7080 36.2715 1.2146
65.7280 36.2582 1.2127
65.7480 36.2449 1.2127
65.7680 36.2316 1.2097
65.7880 36.2182 1.2090
65.8080 36.2049 1.2081
65.8280 36.1916 1.2060
65.8480 36.1783 1.2058
65.8680 36.1649 1.2050
65.8880 36.1515 1.2019
65.9080 36.1382 1.2004
65.9280 36.1249 1.1999
65.9480 36.1115 1.1967
65.9680 36.0982 1.1963
65.9880 36.0848 1.1945
66.0080 36.0715 1.1925
66.0280 36.0582 1.1921
66.0480 36.0449 1.1912
66.0680 36.0315 1.1874
66.0880 36.0182 1.1875
66.1080 36.0049 1.1858
66.1280 35.9916 1.1839
66.1480 35.9782 1.1831
66.1680 35.9649 1.1826
66.1880 35.9516 1.1791
66.2080 35.9382 1.1771
66.2280 35.9249 1.1769
66.2480 35.9115 1.1736
66.2680 35.8982 1.1745
66.2880 35.8849 1.1742
66.3080 35.8716 1.1704
66.3280 35.8582 1.1699
66.3480 35.8448 1.1712
66.3680 35.8315 1.1674
66.3880 35.8182 1.1673
66.4080 35.8048 1.1629
66.4280 35.7915 1.1612
66.4480 35.7782 1.1612
66.4680 35.7649 1.1603
66.4880 35.7516 1.1590
66.5080 35.7383 1.1568
66.5280 35.7249 1.1579
66.5480 35.7116 1.1532
66.5680 35.6983 1.1516
66.5880 35.6849 1.1518
66.6080 35.6715 1.1498
66.6280 35.6582 1.1500
66.6480 35.6448 1.1474
66.6680 35.6315 1.1439
66.6880 35.6182 1.1445
66.7080 35.6048 1.1435
66.7280 35.5914 1.1423
66.7480 35.5782 1.1401
66.7680 35.5649 1.1416
66.7880 35.5516 1.1397
66.8080 35.5382 1.1389
66.8280 35.5249 1.1373
66.8480 35.5116 1.1338
66.8680 35.4983 1.1343
66.8880 35.4849 1.1326
66.9080 35.4715 1.1304
66.9280 35.4582 1.1292
66.9480 35.4449 1.1274
66.9680 35.4315 1.1252
66.9880 35.4181 1.1256
67.0080 35.4048 1.1249
67.0280 35.3915 1.1235
67.0480 35.3782 1.1210
67.0680 35.3648 1.1214
67.0880 35.3515 1.1176
67.1080 35.3382 1.1160
67.1280 35.3249 1.1160
67.1480 35.3115 1.1147
67.1680 35.2982 1.1123
67.1880 35.2849 1.1126
67.2080 35.2716 1.1115
67.2280 35.2582 1.1093
67.2480 35.2449 1.1104
67.2680 35.2315 1.1059
67.2880 35.2182 1.1042
67.3080 35.2049 1.1060
67.3280 35.1915 1.1043
67.3480 35.1782 1.1015
67.3680 35.1648 1.1032
67.3880 35.1515 1.0992
67.4080 35.1382 1.0976
67.4280 35.1248 1.0987
67.4480 35.1115 1.0953
67.4680 35.0982 1.0946
67.4880 35.0849 1.0939
67.5080 35.0715 1.0919
67.5280 35.0582 1.0902
67.5480 35.0449 1.0921
67.5680 35.0316 1.0879
67.5880 35.0183 1.0868
67.6080 35.0049 1.0875
67.6280 34.9915 1.0851
67.6480 34.9782 1.0805
67.6680 34.9649 1.0827
67.6880 34.9515 1.0792
67.7080 34.9382 1.0811
67.7280 34.9248 1.0783
67.7480 34.9115 1.0769
67.7680 34.8982 1.0756
67.7880 34.8848 1.0757
67.8080 34.8715 1.0724
67.8280 34.8582 1.0699
67.8480 34.8449 1.0717
67.8680 34.8316 1.0711
67.8880 34.8182 1.0695
67.9080 34.8049 1.0704
67.9280 34.7916 1.0656
67.9480 34.7782 1.0626
67.9680 34.7649 1.0655
67.9880 34.7515 1.0623
68.0080 34.7382 1.0619
68.0280 34.7249 1.0617
68.0480 34.7115 1.0617
68.0680 34.6981 1.0604
68.0880 34.6848 1.0600
68.1080 34.6715 1.0569
68.1280 34.6582 1.0532
68.1480 34.6448 1.0565
68.1680 34.6315 1.0538
68.1880 34.6182 1.0513
68.2080 34.6049 1.0533
68.2280 34.5915 1.0502
68.2480 34.5782 1.0482
68.2680 34.5649 1.0502
68.2880 34.5516 1.0459
68.3080 34.5383 1.0463
68.3280 34.5249 1.0448
68.3480 34.5115 1.0435
68.3680 34.4982 1.0400
68.3880 34.4849 1.0421
68.4080 34.4715 1.0381
68.4280 34.4582 1.0376
68.4480 34.4448 1.0387
68.4680 34.4315 1.0382
68.4880 34.4182 1.0346
68.5080 34.4048 1.0345
68.5280 34.3915 1.0327
68.5480 34.3782 1.0315
68.5680 34.3649 1.0311
68.5880 34.3515 1.0305
68.6080 34.3382 1.0285
68.6280 34.3249 1.0288
68.6480 34.3116 1.0276
68.6680 34.2983 1.0255
68.6880 34.2849 1.0257
68.7080 34.2716 1.0240
68.7280 34.2583 1.0205
68.7480 34.2449 1.0216
68.7680 34.2315 1.0221
68.7880 34.2181 1.0181
68.8080 34.2048 1.0201
68.8280 34.1915 1.0174
68.8480 34.1782 1.0167
68.8680 34.1648 1.0167
68.8880 34.1515 1.0170
68.9080 34.1382 1.0124
68.9280 34.1249 1.0130
68.9480 34.1115 1.0103
68.9680 34.0982 1.0114
68.9880 34.0849 1.0089
69.0080 34.0716 1.0093
69.0280 34.0583 1.0056
69.0480 34.0449 1.0076
69.0680 34.0315 1.0057
69.0880 34.0182 1.0028
69.1080 34.0049 1.0027
69.1280 33.9915 1.0038
69.1480 33.9781 1.0002
69.1680 33.9648 1.0007
69.1880 33.9515 1.0006
69.2080 33.9382 0.9996
69.2280 33.9249 0.9987
69.2480 33.9115 0.9977
69.2680 33.8982 0.9927
69.2880 33.8849 0.9944
69.3080 33.8715 0.9913
69.3280 33.8582 0.9916
69.3480 33.8449 0.9903
69.3680 33.8316 0.9898
69.3880 33.8183 0.9879
69.4080 33.8049 0.9878
69.4280 33.7916 0.9857
69.4480 33.7782 0.9846
69.4680 33.7649 0.9842
69.4880 33.7515 0.9836
69.5080 33.7382 0.9808
69.5280 33.7248 0.9824
69.5480 33.7115 0.9821
69.5680 33.6982 0.9785
69.5880 33.6848 0.9803
69.6080 33.6715 0.9778
69.6280 33.6582 0.9780
69.6480 33.6449 0.9768
69.6680 33.6315 0.9750
69.6880 33.6182 0.9750
69.7080 33.6049 0.9737
69.7280 33.5916 0.9727
69.7480 33.5783 0.9692
69.7680 33.5649 0.9716
69.7880 33.5516 0.9715
69.8080 33.5382 0.9684
69.8280 33.5249 0.9676
69.8480 33.5115 0.9684
69.8680 33.4982 0.9653
69.8880 33.4848 0.9650
69.9080 33.4715 0.9649
69.9280 33.4582 0.9613
69.9480 33.4449 0.9632
69.9680 33.4315 0.9621
69.9880 33.4182 0.9590
70.0080 33.4049 0.9594
70.0280 33.3915 0.9598
70.0480 33.3782 0.9550
70.0680 33.3649 0.9566
70.0880 33.3516 0.9539
70.1080 33.3383 0.9518
70.1280 33.3249 0.9524
70.1480 33.3115 0.9525
70.1680 33.2982 0.9490
70.1880 33.2849 0.9499
70.2080 33.2716 0.9504
70.2280 33.2582 0.9489
70.2480 33.2448 0.9500
70.2680 33.2315 0.9487
70.2880 33.2182 0.9454
70.3080 33.2048 0.9452
70.3280 33.1915 0.9466
70.3480 33.1781 0.9431
70.3680 33.1648 0.9432
70.3880 33.1515 0.9391
70.4080 33.1381 0.9399
70.4280 33.1248 0.9380
70.4480 33.1116 0.9389
70.4680 33.0983 0.9365
70.4880 33.0849 0.9386
70.5080 33.0715 0.9371
70.5280 33.0582 0.9345
70.5480 33.0449 0.9348
70.5680 33.0315 0.9341
70.5880 33.0181 0.9304
70.6080 33.0048 0.9320
70.6280 32.9915 0.9332
70.6480 32.9782 0.9286
70.6680 32.9649 0.9295
70.6880 32.9515 0.9277
70.7080 32.9382 0.9279
70.7280 32.9249 0.9267
70.7480 32.9115 0.9265
70.7680 32.8982 0.9237
70.7880 32.8849 0.9259
70.8080 32.8716 0.9233
70.8280 32.8583 0.9200
70.8480 32.8449 0.9210
70.8680 32.8315 0.9201
70.8880 32.8182 0.9172
70.9080 32.8049 0.9190
70.9280 32.7915 0.9191
70.9480 32.7782 0.9145
70.9680 32.7648 0.9169
70.9880 32.7515 0.9152
71.0080 32.7382 0.9147
71.0280 32.7249 0.9140
71.0480 32.7115 0.9124
71.0680 32.6982 0.9096
71.0880 32.6849 0.9114
71.1080 32.6716 0.9114
71.1280 32.6582 0.9084
71.1480 32.6449 0.9099
71.1680 32.6316 0.9098
71.1880 32.6183 0.9057
71.2080 32.6049 0.9068
71.2280 32.5915 0.9058
71.2480 32.5782 0.9051
71.2680 32.5649 0.9029
71.2880 32.5515 0.9029
71.3080 32.5382 0.9006
71.3280 32.5248 0.9022
71.3480 32.5115 0.9025
71.3680 32.4982 0.9004
71.3880 32.4849 0.8982
71.4080 32.4715 0.8987
71.4280 32.4582 0.8965
71.4480 32.4449 0.8961
71.4680 32.4315 0.8952
71.4880 32.4182 0.8927
71.5080 32.4048 0.8932
71.5280 32.3915 0.8938
71.5480 32.3782 0.8932
71.5680 32.3649 0.8911
71.5880 32.3516 0.8916
71.6080 32.3382 0.8888
71.6280 32.3249 0.8886
71.6480 32.3116 0.8899
71.6680 32.2982 0.8871
71.6880 32.2848 0.8874
71.7080 32.2715 0.8849
71.7280 32.2582 0.8836
71.7480 32.2448 0.8835
71.7680 32.2315 0.8851
71.7880 32.2181 0.8823
71.8080 32.2048 0.8836
71.8280 32.1915 0.8817
71.8480 32.1782 0.8808
71.8680 32.1649 0.8793
71.8880 32.1516 0.8783
71.9080 32.1383 0.8768
71.9280 32.1249 0.8774
71.9480 32.1116 0.8767
71.9680 32.0982 0.8745
71.9880 32.0849 0.8735
72.0080 32.0715 0.8733
72.0280 32.0582 0.8723
72.0480 32.0448 0.8709
72.0680 32.0315 0.8705
72.0880 32.0182 0.8691
72.1080 32.0049 0.8683
72.1280 31.9915 0.8698
72.1480 31.9782 0.8686
72.1680 31.9649 0.8692
72.1880 31.9515 0.8688
72.2080 31.9382 0.8653
72.2280 31.9249 0.8638
72.2480 31.9116 0.8657
72.2680 31.8983 0.8627
72.2880 31.8849 0.8627
72.3080 31.8716 0.8640
72.3280 31.8582 0.8617
72.3480 31.8449 0.8597
72.3680 31.8316 0.8603
72.3880 31.8182 0.8599
72.4080 31.8049 0.8580
72.4280 31.7915 0.8589
72.4480 31.7782 0.8549
72.4680 31.7648 0.8557
72.4880 31.7515 0.8571
72.5080 31.7381 0.8562
72.5280 31.7248 0.8548
72.5480 31.7115 0.8568
72.5680 31.6982 0.8524
72.5880 31.6849 0.8526
72.6080 31.6716 0.8516
72.6280 31.6583 0.8497
72.6480 31.6450 0.8476
72.6680 31.6316 0.8492
72.6880 31.6182 0.8474
72.7080 31.6049 0.8473
72.7280 31.5915 0.8475
72.7480 31.5782 0.8454
72.7680 31.5648 0.8451
72.7880 31.5515 0.8459
72.8080 31.5382 0.8436
72.8280 31.5248 0.8432
72.8480 31.5115 0.8438
72.8680 31.4981 0.8425
72.8880 31.4848 0.8403
72.9080 31.4715 0.8413
72.9280 31.4582 0.8377
72.9480 31.4448 0.8377
72.9680 31.4315 0.8385
72.9880 31.4182 0.8360
73.0080 31.4049 0.8350
73.0280 31.3916 0.8376
73.0480 31.3782 0.8349
73.0680 31.3649 0.8349
73.0880 31.3516 0.8352
73.1080 31.3382 0.8311
73.1280 31.3249 0.8322
73.1480 31.3115 0.8333
73.1680 31.2982 0.8321
73.1880 31.2849 0.8298
73.2080 31.2715 0.8305
73.2280 31.2581 0.8278
73.2480 31.2448 0.8269
73.2680 31.2315 0.8243
73.2880 31.2182 0.8247
73.3080 31.2048 0.8238
73.3280 31.1915 0.8257
73.3480 31.1782 0.8227
73.3680 31.1649 0.8236
73.3880 31.1516 0.8259
73.4080 31.1382 0.8226
73.4280 31.1250 0.8217
73.4480 31.1116 0.8223
73.4680 31.0983 0.8224
73.4880 31.0849 0.8204
73.5080 31.0715 0.8211
73.5280 31.0582 0.8179
73.5480 31.0449 0.8167
73.5680 31.0315 0.8181
73.5880 31.0181 0.8139
73.6080 31.0048 0.8143
73.6280 30.9915 0.8141
73.6480 30.9782 0.8163
73.6680 30.9648 0.8133
73.6880 30.9515 0.8135
73.7080 30.9382 0.8108
73.7280 30.9249 0.8100
73.7480 30.9116 0.8121
73.7680 30.8982 0.8112
73.7880 30.8849 0.8087
73.8080 30.8716 0.8083
73.8280 30.8582 0.8082
73.8480 30.8449 0.8083
73.8680 30.8315 0.8095
73.8880 30.8182 0.8052
73.9080 30.8048 0.8049
73.9280 30.7915 0.8072
73.9480 30.7781 0.8061
73.9680 30.7648 0.8035
73.9880 30.7515 0.8035
74.0080 30.7382 0.8011
74.0280 30.7249 0.8004
74.0480 30.7116 0.8024
74.0680 30.6983 0.8010
74.0880 30.6849 0.7988
74.1080 30.6716 0.8013
74.1280 30.6582 0.7984
74.1480 30.6449 0.7978
74.1680 30.6316 0.7979
74.1880 30.6182 0.7967
74.2080 30.6048 0.7954
74.2280 30.5915 0.7963
74.2480 30.5782 0.7950
74.2680 30.5649 0.7918
74.2880 30.5515 0.7928
74.3080 30.5381 0.7931
74.3280 30.5248 0.7907
74.3480 30.5115 0.7917
74.3680 30.4982 0.7887
74.3880 30.4848 0.7896
74.4080 30.4715 0.7904
74.4280 30.4582 0.7887
74.4480 30.4449 0.7886
74.4680 30.4316 0.7890
74.4880 30.4182 0.7867
74.5080 30.4049 0.7835
74.5280 30.3916 0.7854
74.5480 30.3782 0.7853
74.5680 30.3648 0.7833
74.5880 30.3515 0.7847
74.6080 30.3382 0.7816
74.6280 30.3249 0.7808
74.6480 30.3115 0.7808
74.6680 30.2982 0.7807
74.6880 30.2848 0.7814
74.7080 30.2715 0.7816
74.7280 30.2582 0.7788
74.7480 30.2449 0.7781
74.7680 30.2315 0.7793
74.7880 30.2183 0.7773
74.8080 30.2049 0.7766
74.8280 30.1916 0.7768
74.8480 30.1782 0.7757
74.8680 30.1649 0.7738
74.8880 30.1516 0.7739
74.9080 30.1382 0.7742
74.9280 30.1249 0.7747
74.9480 30.1115 0.7742
74.9680 30.0982 0.7699
74.9880 30.0849 0.7681
75.0080 30.0715 0.7698
75.0280 30.0582 0.7702
75.0480 30.0449 0.7681
75.0680 30.0316 0.7669
75.0880 30.0182 0.7674
75.1080 30.0049 0.7658
75.1280 29.9916 0.7676
75.1480 29.9783 0.7659
75.1680 29.9649 0.7655
75.1880 29.9516 0.7660
75.2080 29.9382 0.7632
75.2280 29.9249 0.7610
75.2480 29.9116 0.7626
75.2680 29.8982 0.7611
75.2880 29.8848 0.7609
75.3080 29.8715 0.7625
75.3280 29.8581 0.7605
75.3480 29.8448 0.7617
75.3680 29.8315 0.7599
75.3880 29.8181 0.7612
75.4080 29.8048 0.7580
75.4280 29.7915 0.7595
75.4480 29.7782 0.7583
75.4680 29.7649 0.7570
75.4880 29.7515 0.7547
75.5080 29.7383 0.7553
75.5280 29.7250 0.7546
75.5480 29.7116 0.7554
75.5680 29.6982 0.7545
75.5880 29.6849 0.7526
75.6080 29.6716 0.7524
75.6280 29.6582 0.7528
75.6480 29.6448 0.7513
75.6680 29.6315 0.7526
75.6880 29.6181 0.7499
75.7080 29.6048 0.7474
75.7280 29.5915 0.7504
75.7480 29.5781 0.7490
75.7680 29.5648 0.7467
75.7880 29.5515 0.7465
75.8080 29.5382 0.7455
75.8280 29.5249 0.7449
75.8480 29.5115 0.7445
75.8680 29.4983 0.7466
75.8880 29.4849 0.7433
75.9080 29.4716 0.7442
75.9280 29.4582 0.7437
75.9480 29.4449 0.7431
75.9680 29.4316 0.7423
75.9880 29.4182 0.7422
76.0080 29.4048 0.7403
76.0280 29.3915 0.7426
76.0480 29.3781 0.7406
76.0680 29.3648 0.7393
76.0880 29.3515 0.7404
76.1080 29.3381 0.7381
76.1280 29.3248 0.7392
76.1480 29.3115 0.7382
76.1680 29.2982 0.7371
76.1880 29.2849 0.7333
76.2080 29.2715 0.7356
76.2280 29.2582 0.7337
76.2480 29.2449 0.7333
76.2680 29.2316 0.7349
76.2880 29.2182 0.7344
76.3080 29.2049 0.7336
76.3280 29.1916 0.7319
76.3480 29.1782 0.7308
76.3680 29.1648 0.7286
76.3880 29.1515 0.7304
76.4080 29.1382 0.7312
76.4280 29.1249 0.7269
76.4480 29.1116 0.7286
76.4680 29.0982 0.7287
76.4880 29.0848 0.7275
76.5080 29.0715 0.7243
76.5280 29.0582 0.7245
76.5480 29.0448 0.7223
76.5680 29.0315 0.7260
76.5880 29.0182 0.7256
76.6080 29.0049 0.7237
76.6280 28.9916 0.7241
76.6480 28.9782 0.7234
76.6680 28.9649 0.7215
76.6880 28.9516 0.7233
76.7080 28.9383 0.7222
76.7280 28.9248 0.7208
76.7480 28.9114 0.7205
76.7680 28.8981 0.7194
76.7880 28.8848 0.7194
76.8080 28.8715 0.7201
76.8280 28.8581 0.7175
76.8480 28.8448 0.7165
76.8680 28.8315 0.7168
76.8880 28.8182 0.7170
76.9080 28.8048 0.7164
76.9280 28.7915 0.7158
76.9480 28.7782 0.7163
76.9680 28.7649 0.7153
76.9880 28.7516 0.7138
77.0080 28.7382 0.7139
77.0280 28.7249 0.7104
77.0480 28.7116 0.7105
77.0680 28.6983 0.7104
77.0880 28.6849 0.7116
77.1080 28.6715 0.7117
77.1280 28.6582 0.7103
77.1480 28.6449 0.7096
77.1680 28.6315 0.7087
77.1880 28.6182 0.7091
77.2080 28.6048 0.7075
77.2280 28.5915 0.7094
77.2480 28.5782 0.7087
77.2680 28.5649 0.7066
77.2880 28.5515 0.7057
77.3080 28.5382 0.7070
77.3280 28.5249 0.7041
77.3480 28.5116 0.7045
77.3680 28.4982 0.7032
77.3880 28.4849 0.7037
77.4080 28.4716 0.7027
77.4280 28.4582 0.7028
77.4480 28.4449 0.7016
77.4680 28.4315 0.7007
77.4880 28.4182 0.7004
77.5080 28.4049 0.7008
77.5280 28.3915 0.7006
77.5480 28.3782 0.7012
77.5680 28.3648 0.6979
77.5880 28.3515 0.6980
77.6080 28.3382 0.6973
77.6280 28.3248 0.6975
77.6480 28.3115 0.6968
77.6680 28.2982 0.6959
77.6880 28.2849 0.6949
77.7080 28.2716 0.6957
77.7280 28.2582 0.6943
77.7480 28.2449 0.6949
77.7680 28.2315 0.6936
77.7880 28.2182 0.6952
77.8080 28.2048 0.6913
77.8280 28.1915 0.6932
77.8480 28.1782 0.6920
77.8680 28.1649 0.6911
77.8880 28.1515 0.6904
77.9080 28.1382 0.6914
77.9280 28.1248 0.6930
77.9480 28.1115 0.6904
77.9680 28.0982 0.6895
77.9880 28.0849 0.6870
78.0080 28.0715 0.6862
78.0280 28.0582 0.6873
78.0480 28.0449 0.6872
78.0680 28.0316 0.6847
78.0880 28.0182 0.6858
78.1080 28.0049 0.6843
78.1280 27.9915 0.6854
78.1480 27.9782 0.6842
78.1680 27.9649 0.6824
78.1880 27.9515 0.6819
78.2080 27.9382 0.6820
78.2280 27.9249 0.6811
78.2480 27.9115 0.6806
78.2680 27.8982 0.6807
78.2880 27.8848 0.6800
78.3080 27.8715 0.6782
78.3280 27.8582 0.6771
78.3480 27.8449 0.6785
78.3680 27.8315 0.6786
78.3880 27.8182 0.6777
78.4080 27.8049 0.6786
78.4280 27.7916 0.6774
78.4480 27.7782 0.6775
78.4680 27.7648 0.6769
78.4880 27.7515 0.6740
78.5080 27.7382 0.6734
78.5280 27.7249 0.6730
78.5480 27.7115 0.6732
78.5680 27.6982 0.6754
78.5880 27.6849 0.6736
78.6080 27.6715 0.6721
78.6280 27.6582 0.6724
78.6480 27.6448 0.6701
78.6680 27.6315 0.6694
78.6880 27.6182 0.6694
78.7080 27.6048 0.6688
78.7280 27.5915 0.6683
78.7480 27.5782 0.6674
78.7680 27.5649 0.6690
78.7880 27.5516 0.6675
78.8080 27.5382 0.6671
78.8280 27.5249 0.6653
78.8480 27.5116 0.6676
78.8680 27.4983 0.6676
78.8880 27.4849 0.6693
78.9080 27.4715 0.6652
78.9280 27.4582 0.6651
78.9480 27.4449 0.6622
78.9680 27.4315 0.6646
78.9880 27.4182 0.6643
79.0080 27.4048 0.6649
79.0280 27.3915 0.6633
79.0480 27.3782 0.6623
79.0680 27.3649 0.6608
79.0880 27.3516 0.6607
79.1080 27.3382 0.6622
79.1280 27.3249 0.6599
79.1480 27.3116 0.6589
79.1680 27.2982 0.6586
79.1880 27.2849 0.6587
79.2080 27.2716 0.6582
79.2280 27.2582 0.6573
79.2480 27.2449 0.6567
79.2680 27.2315 0.6567
79.2880 27.2181 0.6569
79.3080 27.2048 0.6569
79.3280 27.1915 0.6537
79.3480 27.1782 0.6535
79.3680 27.1648 0.6547
79.3880 27.1515 0.6533
79.4080 27.1382 0.6547
79.4280 27.1249 0.6509
79.4480 27.1115 0.6524
79.4680 27.0982 0.6523
79.4880 27.0849 0.6528
79.5080 27.0716 0.6526
79.5280 27.0583 0.6512
79.5480 27.0449 0.6509
79.5680 27.0316 0.6487
79.5880 27.0182 0.6503
79.6080 27.0049 0.6501
79.6280 26.9915 0.6482
79.6480 26.9782 0.6479
79.6680 26.9649 0.6489
79.6880 26.9515 0.6474
79.7080 26.9382 0.6469
79.7280 26.9248 0.6462
79.7480 26.9115 0.6454
79.7680 26.8982 0.6460
79.7880 26.8849 0.6461
79.8080 26.8715 0.6458
79.8280 26.8582 0.6462
79.8480 26.8449 0.6446
79.8680 26.8316 0.6437
79.8880 26.8183 0.6443
79.9080 26.8049 0.6443
79.9280 26.7916 0.6433
79.9480 26.7783 0.6432
79.9680 26.7649 0.6424
79.9880 26.7515 0.6409
80.0080 26.7381 0.6394
80.0280 26.7248 0.6402
80.0480 26.7115 0.6383
80.0680 26.6982 0.6394
80.0880 26.6848 0.6392
80.1080 26.6715 0.6390
80.1280 26.6582 0.6376
80.1480 26.6448 0.6383
80.1680 26.6315 0.6355
80.1880 26.6182 0.6376
80.2080 26.6049 0.6359
80.2280 26.5916 0.6357
80.2480 26.5782 0.6335
80.2680 26.5649 0.6360
80.2880 26.5516 0.6342
80.3080 26.5383 0.6350
80.3280 26.5249 0.6322
80.3480 26.5116 0.6332
80.3680 26.4982 0.6292
80.3880 26.4849 0.6335
80.4080 26.4715 0.6299
80.4280 26.4582 0.6296
80.4480 26.4448 0.6290
80.4680 26.4315 0.6288
80.4880 26.4182 0.6301
80.5080 26.4049 0.6312
80.5280 26.3915 0.6292
80.5480 26.3782 0.6289
80.5680 26.3649 0.6277
80.5880 26.3516 0.6271
80.6080 26.3383 0.6277
80.6280 26.3249 0.6249
80.6480 26.3116 0.6251
80.6680 26.2983 0.6251
80.6880 26.2849 0.6254
80.7080 26.2715 0.6224
80.7280 26.2582 0.6256
80.7480 26.2449 0.6245
80.7680 26.2316 0.6244
80.7880 26.2182 0.6232
80.8080 26.2048 0.6224
80.8280 26.1915 0.6229
80.8480 26.1782 0.6232
80.8680 26.1648 0.6244
80.8880 26.1515 0.6222
80.9080 26.1382 0.6207
80.9280 26.1249 0.6212
80.9480 26.1116 0.6200
80.9680 26.0983 0.6176
80.9880 26.0849 0.6190
81.0080 26.0716 0.6183
81.0280 26.0583 0.6188
81.0480 26.0449 0.6196
81.0680 26.0315 0.6167
81.0880 26.0182 0.6183
81.1080 26.0048 0.6168
81.1280 25.9915 0.6177
81.1480 25.9781 0.6146
81.1680 25.9648 0.6150
81.1880 25.9515 0.6144
81.2080 25.9382 0.6154
81.2280 25.9249 0.6141
81.2480 25.9116 0.6141
81.2680 25.8982 0.6125
81.2880 25.8849 0.6139
81.3080 25.8716 0.6121
81.3280 25.8583 0.6131
81.3480 25.8449 0.6108
81.3680 25.8315 0.6107
81.3880 25.8182 0.6084
81.4080 25.8049 0.6094
81.4280 25.7915 0.6091
81.4480 25.7781 0.6102
81.4680 25.7648 0.6079
81.4880 25.7515 0.6089
81.5080 25.7382 0.6085
81.5280 25.7248 0.6095
81.5480 25.7115 0.6077
81.5680 25.6982 0.6075
81.5880 25.6849 0.6060
81.6080 25.6715 0.6074
81.6280 25.6582 0.6063
81.6480 25.6449 0.6054
81.6680 25.6316 0.6059
81.6880 25.6182 0.6034
81.7080 25.6049 0.6035
81.7280 25.5915 0.6012
81.7480 25.5782 0.6021
81.7680 25.5649 0.6015
81.7880 25.5515 0.6017
81.8080 25.5382 0.6011
81.8280 25.5249 0.6011
81.8480 25.5115 0.6008
81.8680 25.4982 0.5994
81.8880 25.4848 0.5999
81.9080 25.4715 0.6001
81.9280 25.4582 0.5993
81.9480 25.4449 0.6002
81.9680 25.4315 0.5996
81.9880 25.4182 0.5987
82.0080 25.4049 0.5979
82.0280 25.3916 0.5955
82.0480 25.3783 0.5961
82.0680 25.3649 0.5963
82.0880 25.3515 0.5968
82.1080 25.3382 0.5962
82.1280 25.3249 0.5954
82.1480 25.3115 0.5957
82.1680 25.2982 0.5939
82.1880 25.2848 0.5945
82.2080 25.2715 0.5926
82.2280 25.2582 0.5932
82.2480 25.2448 0.5931
82.2680 25.2315 0.5953
82.2880 25.2182 0.5917
82.3080 25.2049 0.5935
82.3280 25.1915 0.5916
82.3480 25.1782 0.5911
82.3680 25.1649 0.5906
82.3880 25.1516 0.5918
82.4080 25.1383 0.5907
82.4280 25.1249 0.5909
82.4480 25.1115 0.5904
82.4680 25.0982 0.5868
82.4880 25.0849 0.5865
82.5080 25.0715 0.5883
82.5280 25.0582 0.5876
82.5480 25.0448 0.5872
82.5680 25.0315 0.5860
82.5880 25.0182 0.5856
82.6080 25.0048 0.5879
82.6280 24.9915 0.5879
82.6480 24.9782 0.5855
82.6680 24.9649 0.5844
82.6880 24.9515 0.5832
82.7080 24.9382 0.5835
82.7280 24.9249 0.5836
82.7480 24.9116 0.5840
82.7680 24.8983 0.5818
82.7880 24.8849 0.5805
82.8080 24.8715 0.5835
82.8280 24.8582 0.5823
82.8480 24.8449 0.5828
82.8680 24.8315 0.5823
82.8880 24.8182 0.5804
82.9080 24.8048 0.5790
82.9280 24.7915 0.5797
82.9480 24.7782 0.5786
82.9680 24.7648 0.5768
82.9880 24.7515 0.5790
83.0080 24.7382 0.5778
83.0280 24.7249 0.5784
83.0480 24.7115 0.5789
83.0680 24.6982 0.5764
83.0880 24.6849 0.5764
83.1080 24.6716 0.5758
83.1280 24.6583 0.5740
83.1480 24.6449 0.5751
83.1680 24.6316 0.5755
83.1880 24.6182 0.5739
83.2080 24.6049 0.5729
83.2280 24.5915 0.5728
83.2480 24.5781 0.5731
83.2680 24.5648 0.5713
83.2880 24.5515 0.5732
83.3080 24.5382 0.5731
83.3280 24.5248 0.5725
83.3480 24.5115 0.5728
83.3680 24.4982 0.5683
83.3880 24.4849 0.5689
83.4080 24.4716 0.5692
83.4280 24.4582 0.5703
83.4480 24.4449 0.5681
83.4680 24.4316 0.5710
83.4880 24.4183 0.5690
83.5080 24.4049 0.5690
83.5280 24.3915 0.5677
83.5480 24.3782 0.5664
83.5680 24.3649 0.5675
83.5880 24.3515 0.5674
83.6080 24.3381 0.5656
83.6280 24.3248 0.5658
83.6480 24.3115 0.5675
83.6680 24.2982 0.5634
83.6880 24.2849 0.5662
83.7080 24.2715 0.5642
83.7280 24.2582 0.5667
83.7480 24.2448 0.5656
83.7680 24.2315 0.5648
83.7880 24.2182 0.5641
83.8080 24.2048 0.5633
83.8280 24.1916 0.5631
83.8480 24.1782 0.5606
83.8680 24.1649 0.5604
83.8880 24.1516 0.5612
83.9080 24.1382 0.5596
83.9280 24.1249 0.5614
83.9480 24.1115 0.5611
83.9680 24.0982 0.5604
83.9880 24.0848 0.5593
84.0080 24.0715 0.5606
84.0280 24.0582 0.5612
84.0480 24.0448 0.5594
84.0680 24.0315 0.5607
84.0880 24.0181 0.5587
84.1080 24.0048 0.5570
84.1280 23.9915 0.5579
84.1480 23.9782 0.5572
84.1680 23.9649 0.5574
84.1880 23.9516 0.5577
84.2080 23.9383 0.5578
84.2280 23.9249 0.5556
84.2480 23.9116 0.5565
84.2680 23.8982 0.5542
84.2880 23.8849 0.5544
84.3080 23.8716 0.5544
84.3280 23.8582 0.5537
84.3480 23.8448 0.5513
84.3680 23.8315 0.5531
84.3880 23.8182 0.5518
84.4080 23.8048 0.5509
84.4280 23.7915 0.5519
84.4480 23.7782 0.5493
84.4680 23.7649 0.5505
84.4880 23.7515 0.5508
84.5080 23.7382 0.5500
84.5280 23.7249 0.5484
84.5480 23.7116 0.5486
84.5680 23.6983 0.5490
84.5880 23.6849 0.5473
84.6080 23.6715 0.5476
84.6280 23.6582 0.5482
84.6480 23.6449 0.5487
84.6680 23.6316 0.5481
84.6880 23.6182 0.5470
84.7080 23.6049 0.5472
84.7280 23.5915 0.5468
84.7480 23.5782 0.5464
84.7680 23.5649 0.5442
84.7880 23.5515 0.5464
84.8080 23.5382 0.5454
84.8280 23.5249 0.5443
84.8480 23.5115 0.5448
84.8680 23.4982 0.5442
84.8880 23.4848 0.5420
84.9080 23.4716 0.5436
84.9280 23.4583 0.5422
84.9480 23.4449 0.5415
84.9680 23.4315 0.5413
84.9880 23.4182 0.5416
85.0080 23.4049 0.5385
85.0280 23.3915 0.5426
85.0480 23.3782 0.5410
85.0680 23.3648 0.5424
85.0880 23.3515 0.5394
85.1080 23.3382 0.5407
85.1280 23.3249 0.5369
85.1480 23.3115 0.5392
85.1680 23.2982 0.5387
85.1880 23.2849 0.5374
85.2080 23.2715 0.5398
85.2280 23.2582 0.5373
85.2480 23.2448 0.5357
85.2680 23.2316 0.5367
85.2880 23.2182 0.5350
85.3080 23.2049 0.5348
85.3280 23.1915 0.5361
85.3480 23.1782 0.5359
85.3680 23.1649 0.5345
85.3880 23.1515 0.5360
85.4080 23.1382 0.5346
85.4280 23.1248 0.5336
85.4480 23.1115 0.5344
85.4680 23.0982 0.5346
85.4880 23.0849 0.5322
85.5080 23.0715 0.5335
85.5280 23.0582 0.5315
85.5480 23.0449 0.5330
85.5680 23.0316 0.5319
85.5880 23.0182 0.5324
85.6080 23.0049 0.5300
85.6280 22.9916 0.5316
85.6480 22.9783 0.5297
85.6680 22.9649 0.5279
85.6880 22.9515 0.5303
85.7080 22.9382 0.5281
85.7280 22.9249 0.5281
85.7480 22.9116 0.5279
85.7680 22.8982 0.5277
85.7880 22.8848 0.5281
85.8080 22.8715 0.5287
85.8280 22.8582 0.5247
85.8480 22.8449 0.5250
85.8680 22.8315 0.5259
85.8880 22.8182 0.5301
85.9080 22.8049 0.5258
85.9280 22.7915 0.5255
85.9480 22.7782 0.5230
85.9680 22.7648 0.5225
85.9880 22.7515 0.5243
86.0080 22.7382 0.5242
86.0280 22.7249 0.5224
86.0480 22.7116 0.5238
86.0680 22.6983 0.5248
86.0880 22.6849 0.5215
86.1080 22.6716 0.5243
86.1280 22.6582 0.5218
86.1480 22.6448 0.5219
86.1680 22.6315 0.5206
86.1880 22.6182 0.5225
86.2080 22.6049 0.5202
86.2280 22.5915 0.5210
86.2480 22.5781 0.5211
86.2680 22.5648 0.5171
86.2880 22.5515 0.5214
86.3080 22.5382 0.5187
86.3280 22.5249 0.5191
86.3480 22.5115 0.5170
86.3680 22.4982 0.5194
86.3880 22.4849 0.5150
86.4080 22.4716 0.5173
86.4280 22.4582 0.5181
86.4480 22.4449 0.5143
86.4680 22.4316 0.5170
86.4880 22.4182 0.5175
86.5080 22.4048 0.5162
86.5280 22.3915 0.5150
86.5480 22.3782 0.5156
86.5680 22.3649 0.5113
86.5880 22.3515 0.5159
86.6080 22.3381 0.5143
86.6280 22.3248 0.5136
86.6480 22.3115 0.5133
86.6680 22.2982 0.5121
86.6880 22.2848 0.5100
86.7080 22.2715 0.5136
86.7280 22.2583 0.5133
86.7480 22.2449 0.5116
86.7680 22.2316 0.5118
86.7880 22.2182 0.5109
86.8080 22.2049 0.5087
86.8280 22.1916 0.5093
86.8480 22.1782 0.5108
86.8680 22.1649 0.5102
86.8880 22.1515 0.5103
86.9080 22.1382 0.5078
86.9280 22.1248 0.5082
86.9480 22.1115 0.5102
86.9680 22.0981 0.5102
86.9880 22.0848 0.5061
87.0080 22.0715 0.5064
87.0280 22.0582 0.5069
87.0480 22.0449 0.5043
87.0680 22.0316 0.5069
87.0880 22.0183 0.5071
87.1080 22.0050 0.5039
87.1280 21.9916 0.5070
87.1480 21.9782 0.5061
87.1680 21.9649 0.5052
87.1880 21.9516 0.5041
87.2080 21.9382 0.5042
87.2280 21.9248 0.5024
87.2480 21.9115 0.5035
87.2680 21.8982 0.5047
87.2880 21.8848 0.5028
87.3080 21.8715 0.5040
87.3280 21.8581 0.5043
87.3480 21.8448 0.5010
87.3680 21.8315 0.5009
87.3880 21.8182 0.4998
87.4080 21.8049 0.4995
87.4280 21.7915 0.5001
87.4480 21.7782 0.4993
87.4680 21.7649 0.4984
87.4880 21.7516 0.4998
87.5080 21.7382 0.5004
87.5280 21.7249 0.4982
87.5480 21.7116 0.4986
87.5680 21.6982 0.5004
87.5880 21.6849 0.4965
87.6080 21.6715 0.4967
87.6280 21.6582 0.4969
87.6480 21.6449 0.4943
87.6680 21.6315 0.4972
87.6880 21.6182 0.4963
87.7080 21.6048 0.4945
87.7280 21.5915 0.4938
87.7480 21.5781 0.4957
87.7680 21.5648 0.4933
87.7880 21.5515 0.4934
87.8080 21.5382 0.4936
87.8280 21.5249 0.4902
87.8480 21.5116 0.4932
87.8680 21.4982 0.4934
87.8880 21.4849 0.4926
87.9080 21.4716 0.4931
87.9280 21.4582 0.4946
87.9480 21.4449 0.4921
87.9680 21.4315 0.4942
87.9880 21.4182 0.4917
88.0080 21.4049 0.4902
88.0280 21.3915 0.4899
88.0480 21.3781 0.4920
88.0680 21.3648 0.4899
88.0880 21.3515 0.4915
88.1080 21.3382 0.4920
88.1280 21.3248 0.4887
88.1480 21.3115 0.4903
88.1680 21.2982 0.4889
88.1880 21.2849 0.4871
88.2080 21.2716 0.4887
88.2280 21.2582 0.4894
88.2480 21.2449 0.4848
88.2680 21.2316 0.4855
88.2880 21.2182 0.4855
88.3080 21.2048 0.4854
88.3280 21.1915 0.4849
88.3480 21.1782 0.4860
88.3680 21.1648 0.4840
88.3880 21.1515 0.4855
88.4080 21.1381 0.4864
88.4280 21.1248 0.4854
88.4480 21.1115 0.4851
88.4680 21.0982 0.4841
88.4880 21.0849 0.4827
88.5080 21.0716 0.4830
88.5280 21.0583 0.4839
88.5480 21.0450 0.4818
88.5680 21.0316 0.4806
88.5880 21.0182 0.4819
88.6080 21.0049 0.4817
88.6280 20.9916 0.4840
88.6480 20.9782 0.4830
88.6680 20.9648 0.4807
88.6880 20.9515 0.4803
88.7080 20.9382 0.4832
88.7280 20.9249 0.4788
88.7480 20.9115 0.4785
88.7680 20.8981 0.4781
88.7880 20.8848 0.4772
88.8080 20.8715 0.4790
88.8280 20.8582 0.4788
88.8480 20.8449 0.4779
88.8680 20.8315 0.4767
88.8880 20.8182 0.4795
88.9080 20.8049 0.4770
88.9280 20.7916 0.4777
88.9480 20.7782 0.4764
88.9680 20.7649 0.4756
88.9880 20.7516 0.4737
89.0080 20.7382 0.4756
89.0280 20.7248 0.4749
89.0480 20.7115 0.4753
89.0680 20.6982 0.4746
89.0880 20.6849 0.4750
89.1080 20.6715 0.4734
89.1280 20.6582 0.4768
89.1480 20.6448 0.4758
89.1680 20.6315 0.4725
89.1880 20.6182 0.4746
89.2080 20.6048 0.4713
89.2280 20.5915 0.4717
89.2480 20.5782 0.4701
89.2680 20.5649 0.4722
89.2880 20.5516 0.4722
89.3080 20.5382 0.4717
89.3280 20.5249 0.4707
89.3480 20.5116 0.4690
89.3680 20.4982 0.4717
89.3880 20.4848 0.4683
89.4080 20.4715 0.4694
89.4280 20.4582 0.4705
89.4480 20.4449 0.4692
89.4680 20.4315 0.4667
89.4880 20.4182 0.4697
89.5080 20.4048 0.4672
89.5280 20.3915 0.4686
89.5480 20.3782 0.4723
89.5680 20.3649 0.4679
89.5880 20.3515 0.4652
89.6080 20.3383 0.4655
89.6280 20.3249 0.4666
89.6480 20.3116 0.4636
89.6680 20.2982 0.4674
89.6880 20.2849 0.4641
89.7080 20.2716 0.4643
89.7280 20.2582 0.4649
89.7480 20.2448 0.4633
89.7680 20.2315 0.4631
89.7880 20.2182 0.4657
89.8080 20.2049 0.4634
89.8280 20.1915 0.4638
89.8480 20.1782 0.4642
89.8680 20.1648 0.4655
89.8880 20.1515 0.4625
89.9080 20.1382 0.4642
89.9280 20.1249 0.4611
89.9480 20.1115 0.4603
89.9680 20.0983 0.4618
89.9880 20.0850 0.4602
90.0080 20.0716 0.4593
90.0280 20.0582 0.4606
90.0480 20.0449 0.4600
90.0680 20.0316 0.4588
90.0880 20.0182 0.4604
90.1080 20.0048 0.4589
90.1280 19.9915 0.4587
90.1480 19.9782 0.4600
90.1680 19.9648 0.4600
90.1880 19.9515 0.4586
90.2080 19.9381 0.4573
90.2280 19.9248 0.4577
90.2480 19.9115 0.4554
90.2680 19.8982 0.4592
90.2880 19.8849 0.4561
90.3080 19.8715 0.4562
90.3280 19.8582 0.4581
90.3480 19.8449 0.4556
90.3680 19.8316 0.4539
90.3880 19.8183 0.4554
90.4080 19.8049 0.4541
90.4280 19.7916 0.4545
90.4480 19.7782 0.4553
90.4680 19.7648 0.4553
90.4880 19.7514 0.4542
90.5080 19.7381 0.4549
90.5280 19.7248 0.4545
90.5480 19.7115 0.4523
90.5680 19.6981 0.4551
90.5880 19.6848 0.4538
90.6080 19.6715 0.4546
90.6280 19.6582 0.4545
90.6480 19.6449 0.4525
90.6680 19.6315 0.4501
90.6880 19.6182 0.4511
90.7080 19.6049 0.4500
90.7280 19.5916 0.4494
90.7480 19.5782 0.4514
90.7680 19.5649 0.4511
90.7880 19.5516 0.4486
90.8080 19.5382 0.4502
90.8280 19.5248 0.4498
90.8480 19.5115 0.4500
90.8680 19.4982 0.4496
90.8880 19.4849 0.4467
90.9080 19.4715 0.4473
90.9280 19.4582 0.4489
90.9480 19.4448 0.4503
90.9680 19.4315 0.4467
90.9880 19.4182 0.4487
91.0080 19.4049 0.4472
91.0280 19.3915 0.4462
91.0480 19.3782 0.4472
91.0680 19.3649 0.4450
91.0880 19.3516 0.4442
91.1080 19.3382 0.4448
91.1280 19.3249 0.4441
91.1480 19.3116 0.4433
91.1680 19.2982 0.4446
91.1880 19.2849 0.4436
91.2080 19.2715 0.4444
91.2280 19.2582 0.4438
91.2480 19.2449 0.4445
91.2680 19.2315 0.4410
91.2880 19.2181 0.4421
91.3080 19.2048 0.4415
91.3280 19.1915 0.4420
91.3480 19.1782 0.4428
91.3680 19.1649 0.4410
91.3880 19.1515 0.4388
91.4080 19.1382 0.4397
91.4280 19.1249 0.4390
91.4480 19.1116 0.4416
91.4680 19.0982 0.4406
91.4880 19.0849 0.4393
91.5080 19.0716 0.4368
91.5280 19.0582 0.4399
91.5480 19.0449 0.4391
91.5680 19.0315 0.4372
91.5880 19.0182 0.4391
91.6080 19.0049 0.4392
91.6280 18.9915 0.4357
91.6480 18.9782 0.4372
91.6680 18.9648 0.4373
91.6880 18.9515 0.4370
91.7080 18.9382 0.4374
91.7280 18.9249 0.4357
91.7480 18.9115 0.4350
91.7680 18.8982 0.4365
91.7880 18.8849 0.4370
91.8080 18.8716 0.4350
91.8280 18.8582 0.4362
91.8480 18.8449 0.4344
91.8680 18.8316 0.4338
91.8880 18.8183 0.4362
91.9080 18.8049 0.4330
91.9280 18.7915 0.4304
91.9480 18.7782 0.4331
91.9680 18.7649 0.4321
91.9880 18.7515 0.4313
92.0080 18.7382 0.4328
92.0280 18.7248 0.4323
92.0480 18.7115 0.4306
92.0680 18.6982 0.4326
92.0880 18.6848 0.4351
92.1080 18.6715 0.4312
92.1280 18.6582 0.4302
92.1480 18.6449 0.4297
92.1680 18.6316 0.4288
92.1880 18.6182 0.4332
92.2080 18.6049 0.4298
92.2280 18.5916 0.4296
92.2480 18.5782 0.4299
92.2680 18.5649 0.4305
92.2880 18.5515 0.4306
92.3080 18.5381 0.4309
92.3280 18.5248 0.4280
92.3480 18.5115 0.4254
92.3680 18.4982 0.4283
92.3880 18.4848 0.4291
92.4080 18.4715 0.4274
92.4280 18.4582 0.4283
92.4480 18.4449 0.4264
92.4680 18.4315 0.4245
92.4880 18.4182 0.4249
92.5080 18.4049 0.4246
92.5280 18.3916 0.4247
92.5480 18.3782 0.4251
92.5680 18.3649 0.4257
92.5880 18.3515 0.4244
92.6080 18.3382 0.4244
92.6280 18.3249 0.4245
92.6480 18.3115 0.4234
92.6680 18.2982 0.4256
92.6880 18.2849 0.4232
92.7080 18.2715 0.4228
92.7280 18.2582 0.4227
92.7480 18.2448 0.4223
92.7680 18.2315 0.4197
92.7880 18.2182 0.4223
92.8080 18.2049 0.4218
92.8280 18.1915 0.4207
92.8480 18.1782 0.4210
92.8680 18.1649 0.4215
92.8880 18.1516 0.4182
92.9080 18.1382 0.4208
92.9280 18.1249 0.4206
92.9480 18.1115 0.4174
92.9680 18.0982 0.4179
92.9880 18.0849 0.4199
93.0080 18.0715 0.4170
93.0280 18.0582 0.4187
93.0480 18.0449 0.4178
93.0680 18.0316 0.4177
93.0880 18.0182 0.4181
93.1080 18.0048 0.4200
93.1280 17.9915 0.4167
93.1480 17.9782 0.4164
93.1680 17.9648 0.4165
93.1880 17.9515 0.4138
93.2080 17.9382 0.4166
93.2280 17.9249 0.4167
93.2480 17.9116 0.4143
93.2680 17.8983 0.4151
93.2880 17.8849 0.4147
93.3080 17.8716 0.4113
93.3280 17.8583 0.4138
93.3480 17.8449 0.4128
93.3680 17.8315 0.4141
93.3880 17.8182 0.4139
93.4080 17.8048 0.4148
93.4280 17.7915 0.4117
93.4480 17.7782 0.4122
93.4680 17.7648 0.4137
93.4880 17.7515 0.4113
93.5080 17.7382 0.4126
93.5280 17.7249 0.4126
93.5480 17.7115 0.4106
93.5680 17.6982 0.4113
93.5880 17.6849 0.4128
93.6080 17.6716 0.4119
93.6280 17.6582 0.4106
93.6480 17.6449 0.4109
93.6680 17.6315 0.4073
93.6880 17.6182 0.4085
93.7080 17.6049 0.4095
93.7280 17.5915 0.4098
93.7480 17.5781 0.4073
93.7680 17.5648 0.4096
93.7880 17.5515 0.4062
93.8080 17.5382 0.4091
93.8280 17.5248 0.4082
93.8480 17.5115 0.4073
93.8680 17.4982 0.4058
93.8880 17.4849 0.4084
93.9080 17.4715 0.4061
93.9280 17.4582 0.4059
93.9480 17.4449 0.4058
93.9680 17.4316 0.4047
93.9880 17.4183 0.4037
94.0080 17.4049 0.4079
94.0280 17.3916 0.4063
94.0480 17.3782 0.4043
94.0680 17.3649 0.4028
94.0880 17.3515 0.4032
94.1080 17.3382 0.4035
94.1280 17.3249 0.4039
94.1480 17.3115 0.4019
94.1680 17.2982 0.4024
94.1880 17.2848 0.4046
94.2080 17.2715 0.4019
94.2280 17.2582 0.4027
94.2480 17.2449 0.4011
94.2680 17.2315 0.4009
94.2880 17.2182 0.4021
94.3080 17.2049 0.4021
94.3280 17.1916 0.4005
94.3480 17.1783 0.4023
94.3680 17.1649 0.4017
94.3880 17.1516 0.4000
94.4080 17.1382 0.3973
94.4280 17.1249 0.4013
94.4480 17.1115 0.3977
94.4680 17.0981 0.3983
94.4880 17.0848 0.3978
94.5080 17.0715 0.3975
94.5280 17.0581 0.3963
94.5480 17.0448 0.3986
94.5680 17.0315 0.3963
94.5880 17.0182 0.3969
94.6080 17.0049 0.3971
94.6280 16.9915 0.3949
94.6480 16.9782 0.3940
94.6680 16.9649 0.3968
94.6880 16.9516 0.3960
94.7080 16.9382 0.3949
94.7280 16.9249 0.3961
94.7480 16.9116 0.3933
94.7680 16.8983 0.3932
94.7880 16.8849 0.3949
94.8080 16.8716 0.3914
94.8280 16.8582 0.3933
94.8480 16.8449 0.3940
94.8680 16.8315 0.3914
94.8880 16.8182 0.3926
94.9080 16.8048 0.3946
94.9280 16.7915 0.3910
94.9480 16.7782 0.3914
94.9680 16.7648 0.3937
94.9880 16.7515 0.3926
95.0080 16.7382 0.3911
95.0280 16.7249 0.3941
95.0480 16.7116 0.3888
95.0680 16.6983 0.3884
95.0880 16.6849 0.3907
95.1080 16.6716 0.3913
95.1280 16.6583 0.3903
95.1480 16.6449 0.3903
95.1680 16.6316 0.3887
95.1880 16.6182 0.3889
95.2080 16.6049 0.3898
95.2280 16.5916 0.3896
95.2480 16.5782 0.3876
95.2680 16.5648 0.3893
95.2880 16.5515 0.3881
95.3080 16.5382 0.3870
95.3280 16.5248 0.3887
95.3480 16.5115 0.3886
95.3680 16.4982 0.3872
95.3880 16.4849 0.3868
95.4080 16.4716 0.3853
95.4280 16.4583 0.3855
95.4480 16.4449 0.3875
95.4680 16.4316 0.3839
95.4880 16.4183 0.3836
95.5080 16.4049 0.3836
95.5280 16.3916 0.3831
95.5480 16.3782 0.3823
95.5680 16.3648 0.3841
95.5880 16.3515 0.3827
95.6080 16.3382 0.3818
95.6280 16.3248 0.3830
95.6480 16.3115 0.3827
95.6680 16.2982 0.3819
95.6880 16.2849 0.3847
95.7080 16.2716 0.3827
95.7280 16.2582 0.3815
95.7480 16.2449 0.3810
95.7680 16.2316 0.3809
95.7880 16.2183 0.3790
95.8080 16.2049 0.3818
95.8280 16.1915 0.3814
95.8480 16.1782 0.3794
95.8680 16.1649 0.3799
95.8880 16.1515 0.3798
95.9080 16.1381 0.3782
95.9280 16.1248 0.3803
95.9480 16.1115 0.3795
95.9680 16.0982 0.3792
95.9880 16.0848 0.3783
96.0080 16.0715 0.3777
96.0280 16.0582 0.3757
96.0480 16.0448 0.3789
96.0680 16.0315 0.3774
96.0880 16.0182 0.3768
96.1080 16.0049 0.3770
96.1280 15.9916 0.3761
96.1480 15.9782 0.3741
96.1680 15.9649 0.3767
96.1880 15.9515 0.3753
96.2080 15.9382 0.3738
96.2280 15.9249 0.3761
96.2480 15.9115 0.3751
96.2680 15.8982 0.3731
96.2880 15.8848 0.3737
96.3080 15.8715 0.3742
96.3280 15.8582 0.3740
96.3480 15.8448 0.3734
96.3680 15.8315 0.3729
96.3880 15.8182 0.3713
96.4080 15.8049 0.3735
96.4280 15.7916 0.3702
96.4480 15.7782 0.3720
96.4680 15.7649 0.3718
96.4880 15.7516 0.3705
96.5080 15.7383 0.3694
96.5280 15.7249 0.3704
96.5480 15.7115 0.3717
96.5680 15.6982 0.3696
96.5880 15.6849 0.3687
96.6080 15.6715 0.3704
96.6280 15.6582 0.3679
96.6480 15.6448 0.3688
96.6680 15.6315 0.3682
96.6880 15.6182 0.3659
96.7080 15.6048 0.3686
96.7280 15.5915 0.3674
96.7480 15.5782 0.3676
96.7680 15.5649 0.3681
96.7880 15.5515 0.3686
96.8080 15.5382 0.3659
96.8280 15.5249 0.3674
96.8480 15.5116 0.3642
96.8680 15.4983 0.3654
96.8880 15.4849 0.3672
96.9080 15.4715 0.3667
96.9280 15.4582 0.3648
96.9480 15.4449 0.3652
96.9680 15.4315 0.3662
96.9880 15.4182 0.3651
97.0080 15.4048 0.3661
97.0280 15.3915 0.3657
97.0480 15.3782 0.3638
97.0680 15.3648 0.3627
97.0880 15.3515 0.3629
97.1080 15.3381 0.3617
97.1280 15.3249 0.3631
97.1480 15.3115 0.3640
97.1680 15.2982 0.3614
97.1880 15.2849 0.3636
97.2080 15.2716 0.3605
97.2280 15.2583 0.3607
97.2480 15.2449 0.3615
97.2680 15.2316 0.3618
97.2880 15.2182 0.3601
97.3080 15.2049 0.3603
97.3280 15.1915 0.3607
97.3480 15.1782 0.3615
97.3680 15.1648 0.3606
97.3880 15.1515 0.3622
97.4080 15.1382 0.3606
97.4280 15.1248 0.3596
97.4480 15.1115 0.3597
97.4680 15.0981 0.3587
97.4880 15.0849 0.3574
97.5080 15.0716 0.3603
97.5280 15.0582 0.3567
97.5480 15.0449 0.3593
97.5680 15.0316 0.3559
97.5880 15.0183 0.3578
97.6080 15.0050 0.3561
97.6280 14.9916 0.3580
97.6480 14.9783 0.3551
97.6680 14.9649 0.3556
97.6880 14.9515 0.3541
97.7080 14.9382 0.3543
97.7280 14.9248 0.3555
97.7480 14.9115 0.3557
97.7680 14.8982 0.3532
97.7880 14.8848 0.3518
97.8080 14.8715 0.3535
97.8280 14.8582 0.3544
97.8480 14.8449 0.3547
97.8680 14.8316 0.3538
97.8880 14.8182 0.3537
97.9080 14.8049 0.3516
97.9280 14.7916 0.3531
97.9480 14.7783 0.3512
97.9680 14.7649 0.3535
97.9880 14.7515 0.3526
98.0080 14.7382 0.3521
98.0280 14.7249 0.3505
98.0480 14.7115 0.3492
98.0680 14.6982 0.3508
98.0880 14.6848 0.3507
98.1080 14.6715 0.3493
98.1280 14.6582 0.3475
98.1480 14.6449 0.3482
98.1680 14.6315 0.3490
98.1880 14.6182 0.3475
98.2080 14.6049 0.3492
98.2280 14.5915 0.3480
98.2480 14.5782 0.3472
98.2680 14.5648 0.3494
98.2880 14.5515 0.3495
98.3080 14.5382 0.3469
98.3280 14.5249 0.3482
98.3480 14.5116 0.3462
98.3680 14.4982 0.3466
98.3880 14.4849 0.3477
98.4080 14.4715 0.3444
98.4280 14.4582 0.3457
98.4480 14.4448 0.3452
98.4680 14.4315 0.3444
98.4880 14.4182 0.3464
98.5080 14.4048 0.3457
98.5280 14.3915 0.3458
98.5480 14.3781 0.3450
98.5680 14.3648 0.3441
98.5880 14.3515 0.3419
98.6080 14.3382 0.3430
98.6280 14.3248 0.3431
98.6480 14.3116 0.3440
98.6680 14.2982 0.3420
98.6880 14.2849 0.3433
98.7080 14.2716 0.3411
98.7280 14.2582 0.3428
98.7480 14.2449 0.3419
98.7680 14.2316 0.3440
98.7880 14.2182 0.3414
98.8080 14.2048 0.3400
98.8280 14.1915 0.3393
98.8480 14.1782 0.3401
98.8680 14.1649 0.3407
98.8880 14.1515 0.3398
98.9080 14.1382 0.3412
98.9280 14.1249 0.3379
98.9480 14.1115 0.3374
98.9680 14.0982 0.3374
98.9880 14.0849 0.3360
99.0080 14.0716 0.3375
99.0280 14.0583 0.3376
99.0480 14.0449 0.3362
99.0680 14.0315 0.3367
99.0880 14.0182 0.3374
99.1080 14.0049 0.3370
99.1280 13.9916 0.3352
99.1480 13.9782 0.3365
99.1680 13.9649 0.3363
99.1880 13.9515 0.3379
99.2080 13.9382 0.3358
99.2280 13.9249 0.3340
99.2480 13.9115 0.3344
99.2680 13.8982 0.3334
99.2880 13.8849 0.3331
99.3080 13.8715 0.3356
99.3280 13.8582 0.3346
99.3480 13.8448 0.3334
99.3680 13.8316 0.3337
99.3880 13.8183 0.3326
99.4080 13.8049 0.3332
99.4280 13.7915 0.3317
99.4480 13.7782 0.3311
99.4680 13.7649 0.3320
99.4880 13.7515 0.3318
99.5080 13.7382 0.3326
99.5280 13.7248 0.3304
99.5480 13.7115 0.3327
99.5680 13.6982 0.3323
99.5880 13.6849 0.3299
99.6080 13.6715 0.3303
99.6280 13.6582 0.3304
99.6480 13.6449 0.3284
99.6680 13.6315 0.3301
99.6880 13.6182 0.3295
99.7080 13.6049 0.3312
99.7280 13.5916 0.3287
99.7480 13.5782 0.3297
99.7680 13.5649 0.3276
99.7880 13.5515 0.3281
99.8080 13.5382 0.3259
99.8280 13.5249 0.3274
99.8480 13.5116 0.3291
99.8680 13.4982 0.3256
99.8880 13.4848 0.3244
99.9080 13.4715 0.3243
99.9280 13.4582 0.3270
99.9480 13.4448 0.3260
99.9680 13.4315 0.3249
99.9880 13.4182 0.3242
100.0080 13.4049 0.3245
100.0280 13.3915 0.3247
100.0480 13.3782 0.3240
100.0680 13.3649 0.3232
100.0880 13.3516 0.3253
100.1080 13.3383 0.3252
100.1280 13.3249 0.3235
100.1480 13.3115 0.3230
100.1680 13.2982 0.3216
100.1880 13.2849 0.3214
100.2080 13.2716 0.3229
100.2280 13.2582 0.3231
100.2480 13.2448 0.3227
100.2680 13.2315 0.3218
100.2880 13.2182 0.3218
100.3080 13.2049 0.3206
100.3280 13.1915 0.3198
100.3480 13.1782 0.3210
100.3680 13.1649 0.3189
100.3880 13.1515 0.3199
100.4080 13.1382 0.3186
100.4280 13.1248 0.3192
100.4480 13.1115 0.3199
100.4680 13.0982 0.3198
100.4880 13.0849 0.3183
100.5080 13.0716 0.3168
100.5280 13.0583 0.3176
100.5480 13.0449 0.3183
100.5680 13.0316 0.3175
100.5880 13.0182 0.3182
100.6080 13.0048 0.3164
100.6280 12.9915 0.3168
100.6480 12.9782 0.3148
100.6680 12.9649 0.3159
100.6880 12.9515 0.3165
100.7080 12.9381 0.3151
100.7280 12.9248 0.3134
100.7480 12.9115 0.3151
100.7680 12.8982 0.3156
100.7880 12.8849 0.3144
100.8080 12.8715 0.3134
100.8280 12.8582 0.3137
100.8480 12.8449 0.3129
100.8680 12.8316 0.3135
100.8880 12.8182 0.3150
100.9080 12.8049 0.3111
100.9280 12.7915 0.3115
100.9480 12.7782 0.3116
100.9680 12.7648 0.3128
100.9880 12.7515 0.3125
101.0080 12.7382 0.3113
101.0280 12.7248 0.3100
101.0480 12.7115 0.3095
101.0680 12.6981 0.3111
101.0880 12.6848 0.3103
101.1080 12.6715 0.3106
101.1280 12.6582 0.3101
101.1480 12.6448 0.3094
101.1680 12.6315 0.3100
101.1880 12.6183 0.3100
101.2080 12.6049 0.3107
101.2280 12.5916 0.3088
101.2480 12.5782 0.3091
101.2680 12.5649 0.3066
101.2880 12.5516 0.3060
101.3080 12.5382 0.3044
101.3280 12.5248 0.3076
101.3480 12.5115 0.3059
101.3680 12.4982 0.3085
101.3880 12.4848 0.3045
101.4080 12.4715 0.3054
101.4280 12.4581 0.3068
101.4480 12.4448 0.3046
101.4680 12.4315 0.3039
101.4880 12.4182 0.3040
101.5080 12.4048 0.3045
101.5280 12.3915 0.3059
101.5480 12.3783 0.3043
101.5680 12.3650 0.3034
101.5880 12.3516 0.3028
101.6080 12.3382 0.3034
101.6280 12.3249 0.3035
101.6480 12.3116 0.3017
101.6680 12.2982 0.3033
101.6880 12.2848 0.3039
101.7080 12.2715 0.3028
101.7280 12.2582 0.3008
101.7480 12.2448 0.2989
101.7680 12.2315 0.3016
101.7880 12.2181 0.3022
101.8080 12.2048 0.3014
101.8280 12.1915 0.3003
101.8480 12.1782 0.3008
101.8680 12.1648 0.2990
101.8880 12.1515 0.2987
101.9080 12.1382 0.2995
101.9280 12.1249 0.2983
101.9480 12.1116 0.2985
101.9680 12.0982 0.2992
101.9880 12.0849 0.2993
102.0080 12.0716 0.2984
102.0280 12.0582 0.2958
102.0480 12.0449 0.2950
102.0680 12.0315 0.2959
102.0880 12.0182 0.2964
102.1080 12.0049 0.2973
102.1280 11.9915 0.2939
102.1480 11.9782 0.2970
102.1680 11.9648 0.2957
102.1880 11.9515 0.2941
102.2080 11.9382 0.2936
102.2280 11.9248 0.2930
102.2480 11.9115 0.2924
102.2680 11.8983 0.2938
102.2880 11.8849 0.2934
102.3080 11.8716 0.2947
102.3280 11.8582 0.2928
102.3480 11.8449 0.2919
102.3680 11.8316 0.2933
102.3880 11.8182 0.2942
102.4080 11.8049 0.2931
102.4280 11.7915 0.2906
102.4480 11.7782 0.2906
102.4680 11.7649 0.2920
102.4880 11.7515 0.2901
102.5080 11.7382 0.2922
102.5280 11.7248 0.2908
102.5480 11.7115 0.2905
102.5680 11.6982 0.2900
102.5880 11.6848 0.2894
102.6080 11.6715 0.2901
102.6280 11.6582 0.2879
102.6480 11.6449 0.2879
102.6680 11.6316 0.2866
102.6880 11.6182 0.2899
102.7080 11.6049 0.2897
102.7280 11.5916 0.2883
102.7480 11.5783 0.2869
102.7680 11.5649 0.2880
102.7880 11.5515 0.2866
102.8080 11.5381 0.2880
102.8280 11.5248 0.2866
102.8480 11.5115 0.2873
102.8680 11.4981 0.2860
102.8880 11.4848 0.2871
102.9080 11.4715 0.2854
102.9280 11.4582 0.2863
102.9480 11.4449 0.2845
102.9680 11.4316 0.2833
102.9880 11.4183 0.2832
103.0080 11.4050 0.2841
103.0280 11.3916 0.2829
103.0480 11.3782 0.2819
103.0680 11.3649 0.2826
103.0880 11.3516 0.2830
103.1080 11.3382 0.2834
103.1280 11.3248 0.2815
103.1480 11.3115 0.2815
103.1680 11.2982 0.2794
103.1880 11.2849 0.2813
103.2080 11.2715 0.2788
103.2280 11.2582 0.2806
103.2480 11.2448 0.2812
103.2680 11.2315 0.2780
103.2880 11.2182 0.2800
103.3080 11.2048 0.2781
103.3280 11.1915 0.2802
103.3480 11.1782 0.2794
103.3680 11.1649 0.2808
103.3880 11.1516 0.2764
103.4080 11.1382 0.2772
103.4280 11.1249 0.2766
103.4480 11.1116 0.2795
103.4680 11.0982 0.2771
103.4880 11.0849 0.2774
103.5080 11.0715 0.2756
103.5280 11.0582 0.2762
103.5480 11.0449 0.2761
103.5680 11.0315 0.2756
103.5880 11.0182 0.2772
103.6080 11.0048 0.2743
103.6280 10.9915 0.2755
103.6480 10.9782 0.2744
103.6680 10.9649 0.2761
103.6880 10.9515 0.2742
103.7080 10.9382 0.2744
103.7280 10.9249 0.2737
103.7480 10.9116 0.2723
103.7680 10.8982 0.2708
103.7880 10.8849 0.2722
103.8080 10.8715 0.2683
103.8280 10.8582 0.2701
103.8480 10.8448 0.2721
103.8680 10.8315 0.2694
103.8880 10.8182 0.2716
103.9080 10.8048 0.2709
103.9280 10.7915 0.2719
103.9480 10.7782 0.2711
103.9680 10.7648 0.2734
103.9880 10.7515 0.2688
104.0080 10.7382 0.2696
104.0280 10.7249 0.2690
104.0480 10.7115 0.2696
104.0680 10.6982 0.2685
104.0880 10.6849 0.2698
104.1080 10.6716 0.2659
104.1280 10.6582 0.2690
104.1480 10.6449 0.2676
104.1680 10.6315 0.2665
104.1880 10.6182 0.2658
104.2080 10.6048 0.2653
104.2280 10.5915 0.2664
104.2480 10.5782 0.2657
104.2680 10.5649 0.2671
104.2880 10.5515 0.2642
104.3080 10.5381 0.2662
104.3280 10.5248 0.2662
104.3480 10.5115 0.2632
104.3680 10.4982 0.2637
104.3880 10.4849 0.2641
104.4080 10.4715 0.2631
104.4280 10.4582 0.2636
104.4480 10.4450 0.2632
104.4680 10.4316 0.2631
104.4880 10.4182 0.2632
104.5080 10.4049 0.2634
104.5280 10.3916 0.2618
104.5480 10.3782 0.2614
104.5680 10.3649 0.2631
104.5880 10.3515 0.2616
104.6080 10.3381 0.2629
104.6280 10.3248 0.2600
104.6480 10.3115 0.2606
104.6680 10.2981 0.2621
104.6880 10.2848 0.2624
104.7080 10.2715 0.2605
104.7280 10.2582 0.2584
104.7480 10.2449 0.2597
104.7680 10.2315 0.2586
104.7880 10.2182 0.2581
104.8080 10.2050 0.2587
104.8280 10.1916 0.2589
104.8480 10.1783 0.2579
104.8680 10.1649 0.2595
104.8880 10.1516 0.2566
104.9080 10.1382 0.2581
104.9280 10.1249 0.2566
104.9480 10.1115 0.2556
104.9680 10.0981 0.2547
104.9880 10.0848 0.2557
105.0080 10.0715 0.2537
105.0280 10.0581 0.2542
105.0480 10.0448 0.2560
105.0680 10.0315 0.2537
105.0880 10.0182 0.2546
105.1080 10.0049 0.2559
105.1280 9.9915 0.2540
105.1480 9.9782 0.2545
105.1680 9.9649 0.2529
105.1880 9.9516 0.2520
105.2080 9.9382 0.2515
105.2280 9.9248 0.2520
105.2480 9.9115 0.2519
105.2680 9.8982 0.2503
105.2880 9.8848 0.2502
105.3080 9.8715 0.2502
105.3280 9.8582 0.2509
105.3480 9.8449 0.2532
105.3680 9.8316 0.2495
105.3880 9.8182 0.2504
105.4080 9.8048 0.2501
105.4280 9.7915 0.2483
105.4480 9.7782 0.2466
105.4680 9.7649 0.2472
105.4880 9.7515 0.2463
105.5080 9.7382 0.2458
105.5280 9.7249 0.2493
105.5480 9.7116 0.2465
105.5680 9.6982 0.2469
105.5880 9.6849 0.2458
105.6080 9.6716 0.2461
105.6280 9.6582 0.2464
105.6480 9.6449 0.2483
105.6680 9.6315 0.2423
105.6880 9.6181 0.2453
105.7080 9.6048 0.2443
105.7280 9.5915 0.2446
105.7480 9.5782 0.2434
105.7680 9.5648 0.2435
105.7880 9.5515 0.2412
105.8080 9.5382 0.2410
105.8280 9.5249 0.2438
105.8480 9.5115 0.2418
105.8680 9.4982 0.2427
105.8880 9.4849 0.2433
105.9080 9.4716 0.2405
105.9280 9.4582 0.2403
105.9480 9.4449 0.2425
105.9680 9.4316 0.2405
105.9880 9.4182 0.2393
106.0080 9.4049 0.2423
106.0280 9.3915 0.2392
106.0480 9.3782 0.2401
106.0680 9.3649 0.2379
106.0880 9.3515 0.2398
106.1080 9.3382 0.2377
106.1280 9.3248 0.2392
106.1480 9.3115 0.2371
106.1680 9.2982 0.2365
106.1880 9.2849 0.2367
106.2080 9.2715 0.2360
106.2280 9.2582 0.2352
106.2480 9.2449 0.2356
106.2680 9.2316 0.2360
106.2880 9.2182 0.2344
106.3080 9.2049 0.2379
106.3280 9.1915 0.2341
106.3480 9.1782 0.2356
106.3680 9.1649 0.2327
106.3880 9.1515 0.2347
106.4080 9.1382 0.2312
106.4280 9.1249 0.2356
106.4480 9.1115 0.2321
106.4680 9.0982 0.2308
106.4880 9.0848 0.2323
106.5080 9.0715 0.2315
106.5280 9.0582 0.2320
106.5480 9.0448 0.2323
106.5680 9.0315 0.2324
106.5880 9.0182 0.2298
106.6080 9.0049 0.2319
106.6280 8.9916 0.2311
106.6480 8.9782 0.2308
106.6680 8.9649 0.2311
106.6880 8.9515 0.2294
106.7080 8.9382 0.2280
106.7280 8.9249 0.2294
106.7480 8.9115 0.2293
106.7680 8.8982 0.2274
106.7880 8.8849 0.2274
106.8080 8.8715 0.2250
106.8280 8.8582 0.2263
106.8480 8.8448 0.2263
106.8680 8.8315 0.2268
106.8880 8.8182 0.2243
106.9080 8.8049 0.2271
106.9280 8.7915 0.2238
106.9480 8.7782 0.2244
106.9680 8.7649 0.2241
106.9880 8.7516 0.2231
107.0080 8.7382 0.2217
107.0280 8.7249 0.2259
107.0480 8.7115 0.2237
107.0680 8.6982 0.2231
107.0880 8.6849 0.2236
107.1080 8.6715 0.2229
107.1280 8.6582 0.2221
107.1480 8.6448 0.2207
107.1680 8.6315 0.2208
107.1880 8.6182 0.2180
107.2080 8.6048 0.2226
107.2280 8.5915 0.2223
107.2480 8.5782 0.2205
107.2680 8.5649 0.2208
107.2880 8.5516 0.2209
107.3080 8.5382 0.2176
107.3280 8.5249 0.2187
107.3480 8.5116 0.2185
107.3680 8.4982 0.2191
107.3880 8.4849 0.2198
107.4080 8.4715 0.2175
107.4280 8.4582 0.2157
107.4480 8.4449 0.2160
107.4680 8.4315 0.2174
107.4880 8.4182 0.2154
107.5080 8.4049 0.2168
107.5280 8.3915 0.2156
107.5480 8.3782 0.2145
107.5680 8.3648 0.2168
107.5880 8.3515 0.2146
107.6080 8.3382 0.2139
107.6280 8.3248 0.2144
107.6480 8.3115 0.2137
107.6680 8.2982 0.2117
107.6880 8.2849 0.2141
107.7080 8.2716 0.2129
107.7280 8.2582 0.2119
107.7480 8.2449 0.2129
107.7680 8.2316 0.2130
107.7880 8.2183 0.2092
107.8080 8.2049 0.2107
107.8280 8.1915 0.2099
107.8480 8.1782 0.2108
107.8680 8.1648 0.2112
107.8880 8.1515 0.2092
107.9080 8.1382 0.2076
107.9280 8.1248 0.2069
107.9480 8.1115 0.2104
107.9680 8.0982 0.2062
107.9880 8.0849 0.2076
108.0080 8.0715 0.2062
108.0280 8.0582 0.2052
108.0480 8.0449 0.2087
108.0680 8.0316 0.2081
108.0880 8.0182 0.2043
108.1080 8.0049 0.2078
108.1280 7.9915 0.2081
108.1480 7.9782 0.2047
108.1680 7.9649 0.2060
108.1880 7.9515 0.2043
108.2080 7.9381 0.2046
108.2280 7.9248 0.2045
108.2480 7.9115 0.2059
108.2680 7.8982 0.2032
108.2880 7.8848 0.2059
108.3080 7.8715 0.2053
108.3280 7.8582 0.2015
108.3480 7.8449 0.2028
108.3680 7.8315 0.2028
108.3880 7.8182 0.1999
108.4080 7.8049 0.2030
108.4280 7.7916 0.2043
108.4480 7.7783 0.2001
108.4680 7.7649 0.2011
108.4880 7.7516 0.2011
108.5080 7.7382 0.1997
108.5280 7.7249 0.2003
108.5480 7.7116 0.1995
108.5680 7.6982 0.1984
108.5880 7.6849 0.1992
108.6080 7.6715 0.1993
108.6280 7.6582 0.1955
108.6480 7.6448 0.1975
108.6680 7.6315 0.1967
108.6880 7.6182 0.1962
108.7080 7.6049 0.1969
108.7280 7.5915 0.1957
108.7480 7.5782 0.1950
108.7680 7.5649 0.1948
108.7880 7.5516 0.1957
108.8080 7.5383 0.1939
108.8280 7.5249 0.1942
108.8480 7.5116 0.1932
108.8680 7.4983 0.1918
108.8880 7.4849 0.1913
108.9080 7.4715 0.1939
108.9280 7.4582 0.1909
108.9480 7.4448 0.1905
108.9680 7.4315 0.1909
108.9880 7.4182 0.1904
109.0080 7.4048 0.1912
109.0280 7.3915 0.1922
109.0480 7.3782 0.1897
109.0680 7.3649 0.1907
109.0880 7.3515 0.1912
109.1080 7.3382 0.1878
109.1280 7.3249 0.1897
109.1480 7.3116 0.1892
109.1680 7.2982 0.1887
109.1880 7.2849 0.1887
109.2080 7.2715 0.1872
109.2280 7.2582 0.1864
109.2480 7.2449 0.1881
109.2680 7.2316 0.1889
109.2880 7.2182 0.1869
109.3080 7.2049 0.1872
109.3280 7.1915 0.1868
109.3480 7.1782 0.1849
109.3680 7.1648 0.1832
109.3880 7.1515 0.1871
109.4080 7.1382 0.1835
109.4280 7.1248 0.1859
109.4480 7.1115 0.1854
109.4680 7.0982 0.1856
109.4880 7.0849 0.1824
109.5080 7.0716 0.1863
109.5280 7.0583 0.1812
109.5480 7.0449 0.1826
109.5680 7.0316 0.1820
109.5880 7.0182 0.1819
109.6080 7.0049 0.1816
109.6280 6.9916 0.1817
109.6480 6.9782 0.1788
109.6680 6.9649 0.1812
109.6880 6.9516 0.1800
109.7080 6.9382 0.1761
109.7280 6.9248 0.1794
109.7480 6.9115 0.1793
109.7680 6.8981 0.1769
109.7880 6.8848 0.1777
109.8080 6.8715 0.1780
109.8280 6.8582 0.1757
109.8480 6.8449 0.1751
109.8680 6.8316 0.1770
109.8880 6.8183 0.1734
109.9080 6.8049 0.1767
109.9280 6.7916 0.1759
109.9480 6.7783 0.1743
109.9680 6.7649 0.1746
109.9880 6.7516 0.1754
110.0080 6.7382 0.1715
110.0280 6.7248 0.1727
110.0480 6.7115 0.1726
110.0680 6.6982 0.1735
110.0880 6.6848 0.1719
110.1080 6.6715 0.1728
110.1280 6.6581 0.1711
110.1480 6.6449 0.1713
110.1680 6.6316 0.1720
110.1880 6.6182 0.1680
110.2080 6.6049 0.1716
110.2280 6.5916 0.1703
110.2480 6.5783 0.1682
110.2680 6.5649 0.1684
110.2880 6.5516 0.1694
110.3080 6.5382 0.1679
110.3280 6.5249 0.1678
110.3480 6.5115 0.1672
110.3680 6.4982 0.1672
110.3880 6.4848 0.1657
110.4080 6.4715 0.1671
110.4280 6.4582 0.1635
110.4480 6.4448 0.1652
110.4680 6.4315 0.1659
110.4880 6.4182 0.1630
110.5080 6.4048 0.1629
110.5280 6.3915 0.1649
110.5480 6.3782 0.1638
110.5680 6.3648 0.1646
110.5880 6.3516 0.1643
110.6080 6.3382 0.1628
110.6280 6.3249 0.1620
110.6480 6.3115 0.1641
110.6680 6.2982 0.1605
110.6880 6.2849 0.1607
110.7080 6.2715 0.1616
110.7280 6.2582 0.1599
110.7480 6.2448 0.1607
110.7680 6.2315 0.1617
110.7880 6.2182 0.1591
110.8080 6.2048 0.1583
110.8280 6.1915 0.1606
110.8480 6.1782 0.1600
110.8680 6.1649 0.1583
110.8880 6.1515 0.1590
110.9080 6.1382 0.1563
110.9280 6.1249 0.1573
110.9480 6.1116 0.1549
110.9680 6.0983 0.1534
110.9880 6.0849 0.1550
111.0080 6.0715 0.1564
111.0280 6.0582 0.1532
111.0480 6.0449 0.1539
111.0680 6.0316 0.1554
111.0880 6.0182 0.1529
111.1080 6.0048 0.1534
111.1280 5.9915 0.1535
111.1480 5.9782 0.1514
111.1680 5.9648 0.1503
111.1880 5.9515 0.1539
111.2080 5.9382 0.1506
111.2280 5.9249 0.1515
111.2480 5.9116 0.1515
111.2680 5.8982 0.1507
111.2880 5.8849 0.1508
111.3080 5.8716 0.1524
111.3280 5.8583 0.1494
111.3480 5.8449 0.1499
111.3680 5.8315 0.1477
111.3880 5.8182 0.1476
111.4080 5.8049 0.1465
111.4280 5.7915 0.1487
111.4480 5.7782 0.1476
111.4680 5.7648 0.1466
111.4880 5.7515 0.1486
111.5080 5.7382 0.1472
111.5280 5.7248 0.1464
111.5480 5.7115 0.1482
111.5680 5.6981 0.1428
111.5880 5.6848 0.1433
111.6080 5.6715 0.1459
111.6280 5.6582 0.1453
111.6480 5.6449 0.1429
111.6680 5.6316 0.1443
111.6880 5.6183 0.1418
111.7080 5.6050 0.1411
111.7280 5.5916 0.1425
111.7480 5.5782 0.1425
111.7680 5.5649 0.1423
111.7880 5.5515 0.1432
111.8080 5.5382 0.1382
111.8280 5.5248 0.1399
111.8480 5.5115 0.1401
111.8680 5.4982 0.1379
111.8880 5.4848 0.1381
111.9080 5.4715 0.1407
111.9280 5.4581 0.1385
111.9480 5.4448 0.1391
111.9680 5.4315 0.1387
111.9880 5.4182 0.1368
112.0080 5.4049 0.1377
112.0280 5.3916 0.1366
112.0480 5.3783 0.1364
112.0680 5.3649 0.1344
112.0880 5.3516 0.1381
112.1080 5.3382 0.1326
112.1280 5.3249 0.1353
112.1480 5.3115 0.1344
112.1680 5.2982 0.1334
112.1880 5.2848 0.1346
112.2080 5.2715 0.1348
112.2280 5.2582 0.1318
112.2480 5.2448 0.1309
112.2680 5.2315 0.1336
112.2880 5.2181 0.1323
112.3080 5.2049 0.1335
112.3280 5.1916 0.1334
112.3480 5.1782 0.1324
112.3680 5.1649 0.1312
112.3880 5.1516 0.1298
112.4080 5.1383 0.1276
112.4280 5.1250 0.1293
112.4480 5.1116 0.1311
112.4680 5.0982 0.1285
112.4880 5.0849 0.1289
112.5080 5.0715 0.1275
112.5280 5.0582 0.1272
112.5480 5.0448 0.1261
112.5680 5.0315 0.1267
112.5880 5.0182 0.1251
112.6080 5.0049 0.1264
112.6280 4.9915 0.1246
112.6480 4.9782 0.1228
112.6680 4.9649 0.1226
112.6880 4.9515 0.1250
112.7080 4.9382 0.1240
112.7280 4.9249 0.1221
112.7480 4.9116 0.1230
112.7680 4.8983 0.1221
112.7880 4.8849 0.1197
112.8080 4.8716 0.1233
112.8280 4.8582 0.1232
112.8480 4.8449 0.1185
112.8680 4.8315 0.1221
112.8880 4.8182 0.1192
112.9080 4.8048 0.1211
112.9280 4.7915 0.1184
112.9480 4.7782 0.1187
112.9680 4.7648 0.1173
112.9880 4.7515 0.1211
113.0080 4.7381 0.1187
113.0280 4.7248 0.1160
113.0480 4.7115 0.1172
113.0680 4.6982 0.1163
113.0880 4.6848 0.1162
113.1080 4.6716 0.1172
113.1280 4.6582 0.1169
113.1480 4.6449 0.1138
113.1680 4.6315 0.1161
113.1880 4.6182 0.1152
113.2080 4.6049 0.1141
113.2280 4.5916 0.1145
113.2480 4.5783 0.1127
113.2680 4.5649 0.1118
113.2880 4.5515 0.1128
113.3080 4.5382 0.1106
113.3280 4.5248 0.1109
113.3480 4.5114 0.1115
113.3680 4.4981 0.1122
113.3880 4.4849 0.1096
113.4080 4.4715 0.1112
113.4280 4.4582 0.1094
113.4480 4.4448 0.1090
113.4680 4.4315 0.1095
113.4880 4.4182 0.1083
113.5080 4.4049 0.1086
113.5280 4.3915 0.1076
113.5480 4.3782 0.1083
113.5680 4.3649 0.1066
113.5880 4.3516 0.1065
113.6080 4.3382 0.1056
113.6280 4.3248 0.1052
113.6480 4.3115 0.1054
113.6680 4.2982 0.1062
113.6880 4.2849 0.1033
113.7080 4.2715 0.1057
113.7280 4.2581 0.1036
113.7480 4.2448 0.1037
113.7680 4.2315 0.1032
113.7880 4.2182 0.1014
113.8080 4.2048 0.1028
113.8280 4.1915 0.1042
113.8480 4.1783 0.1024
113.8680 4.1649 0.0999
113.8880 4.1516 0.1029
113.9080 4.1382 0.1017
113.9280 4.1249 0.1009
113.9480 4.1116 0.0998
113.9680 4.0982 0.0987
113.9880 4.0848 0.0969
114.0080 4.0715 0.1011
114.0280 4.0582 0.0998
114.0480 4.0449 0.0986
114.0680 4.0315 0.0993
114.0880 4.0182 0.0991
114.1080 4.0048 0.0967
114.1280 3.9915 0.0951
114.1480 3.9782 0.0972
114.1680 3.9649 0.0946
114.1880 3.9516 0.0980
114.2080 3.9383 0.0964
114.2280 3.9249 0.0943
114.2480 3.9116 0.0955
114.2680 3.8982 0.0956
114.2880 3.8849 0.0943
114.3080 3.8716 0.0951
114.3280 3.8582 0.0938
114.3480 3.8449 0.0924
114.3680 3.8315 0.0927
114.3880 3.8182 0.0930
114.4080 3.8049 0.0915
114.4280 3.7915 0.0914
114.4480 3.7782 0.0928
114.4680 3.7649 0.0894
114.4880 3.7516 0.0909
114.5080 3.7382 0.0907
114.5280 3.7249 0.0882
114.5480 3.7115 0.0920
114.5680 3.6982 0.0900
114.5880 3.6849 0.0883
114.6080 3.6715 0.0894
114.6280 3.6582 0.0893
114.6480 3.6449 0.0859
114.6680 3.6315 0.0843
114.6880 3.6182 0.0861
114.7080 3.6048 0.0860
114.7280 3.5915 0.0856
114.7480 3.5782 0.0866
114.7680 3.5649 0.0829
114.7880 3.5515 0.0852
114.8080 3.5382 0.0857
114.8280 3.5248 0.0838
114.8480 3.5115 0.0843
114.8680 3.4982 0.0815
114.8880 3.4848 0.0813
114.9080 3.4715 0.0821
114.9280 3.4582 0.0820
114.9480 3.4449 0.0793
114.9680 3.4316 0.0819
114.9880 3.4183 0.0819
115.0080 3.4049 0.0789
115.0280 3.3916 0.0800
115.0480 3.3782 0.0790
115.0680 3.3648 0.0776
115.0880 3.3515 0.0798
115.1080 3.3382 0.0790
115.1280 3.3249 0.0791
115.1480 3.3115 0.0770
115.1680 3.2981 0.0781
115.1880 3.2848 0.0762
115.2080 3.2715 0.0759
115.2280 3.2582 0.0755
115.2480 3.2449 0.0746
115.2680 3.2316 0.0752
115.2880 3.2183 0.0766
115.3080 3.2050 0.0716
115.3280 3.1916 0.0734
115.3480 3.1782 0.0741
115.3680 3.1648 0.0734
115.3880 3.1515 0.0738
115.4080 3.1382 0.0732
115.4280 3.1248 0.0702
115.4480 3.1115 0.0712
115.4680 3.0982 0.0695
115.4880 3.0848 0.0688
115.5080 3.0715 0.0687
115.5280 3.0581 0.0701
115.5480 3.0448 0.0677
115.5680 3.0315 0.0700
115.5880 3.0182 0.0698
115.6080 3.0049 0.0679
115.6280 2.9915 0.0678
115.6480 2.9782 0.0677
115.6680 2.9649 0.0669
115.6880 2.9516 0.0663
115.7080 2.9382 0.0667
115.7280 2.9249 0.0627
115.7480 2.9116 0.0638
115.7680 2.8982 0.0646
115.7880 2.8849 0.0624
115.8080 2.8715 0.0634
115.8280 2.8582 0.0631
115.8480 2.8449 0.0608
115.8680 2.8315 0.0621
115.8880 2.8181 0.0623
115.9080 2.8048 0.0614
115.9280 2.7915 0.0614
115.9480 2.7782 0.0606
115.9680 2.7648 0.0585
115.9880 2.7515 0.0594
116.0080 2.7382 0.0584
116.0280 2.7249 0.0583
116.0480 2.7116 0.0579
116.0680 2.6982 0.0574
116.0880 2.6849 0.0550
116.1080 2.6716 0.0567
116.1280 2.6582 0.0563
116.1480 2.6448 0.0553
116.1680 2.6315 0.0551
116.1880 2.6182 0.0535
116.2080 2.6048 0.0520
116.2280 2.5915 0.0497
116.2480 2.5781 0.0523
116.2680 2.5648 0.0536
116.2880 2.5515 0.0516
116.3080 2.5382 0.0521
116.3280 2.5249 0.0500
116.3480 2.5115 0.0515
116.3680 2.4982 0.0529
116.3880 2.4849 0.0497
116.4080 2.4716 0.0495
116.4280 2.4582 0.0493
116.4480 2.4449 0.0478
116.4680 2.4316 0.0482
116.4880 2.4183 0.0479
116.5080 2.4049 0.0466
116.5280 2.3915 0.0459
116.5480 2.3782 0.0454
116.5680 2.3649 0.0461
116.5880 2.3515 0.0458
116.6080 2.3381 0.0461
116.6280 2.3248 0.0450
116.6480 2.3115 0.0440
116.6680 2.2982 0.0450
116.6880 2.2848 0.0430
116.7080 2.2715 0.0438
116.7280 2.2582 0.0434
116.7480 2.2449 0.0447
116.7680 2.2316 0.0446
116.7880 2.2182 0.0449
116.8080 2.2049 0.0418
116.8280 2.1916 0.0397
116.8480 2.1783 0.0408
116.8680 2.1649 0.0365
116.8880 2.1515 0.0404
116.9080 2.1382 0.0383
116.9280 2.1249 0.0368
116.9480 2.1115 0.0376
116.9680 2.0981 0.0368
116.9880 2.0848 0.0364
117.0080 2.0715 0.0357
117.0280 2.0582 0.0341
117.0480 2.0448 0.0343
117.0680 2.0315 0.0339
117.0880 2.0182 0.0348
117.1080 2.0049 0.0322
117.1280 1.9916 0.0312
117.1480 1.9782 0.0319
117.1680 1.9649 0.0301
117.1880 1.9516 0.0307
117.2080 1.9383 0.0303
117.2280 1.9249 0.0286
117.2480 1.9115 0.0306
117.2680 1.8982 0.0282
117.2880 1.8848 0.0284
117.3080 1.8715 0.0276
117.3280 1.8581 0.0278
117.3480 1.8448 0.0264
117.3680 1.8315 0.0253
117.3880 1.8182 0.0251
117.4080 1.8049 0.0266
117.4280 1.7916 0.0234
117.4480 1.7783 0.0239
117.4680 1.7650 0.0231
117.4880 1.7516 0.0228
117.5080 1.7382 0.0224
117.5280 1.7249 0.0204
117.5480 1.7115 0.0194
117.5680 1.6982 0.0210
117.5880 1.6848 0.0192
117.6080 1.6715 0.0179
117.6280 1.6582 0.0191
117.6480 1.6449 0.0158
117.6680 1.6315 0.0168
117.6880 1.6182 0.0175
117.7080 1.6048 0.0159
117.7280 1.5915 0.0136
117.7480 1.5782 0.0145
117.7680 1.5649 0.0143
117.7880 1.5515 0.0154
117.8080 1.5382 0.0133
117.8280 1.5249 0.0113
117.8480 1.5116 0.0105
117.8680 1.4982 0.0112
117.8880 1.4849 0.0098
117.9080 1.4716 0.0092
117.9280 1.4582 0.0143
117.9480 1.4449 0.0118
117.9680 1.4315 0.0086
117.9880 1.4182 0.0099
118.0080 1.4049 0.0081
118.0280 1.3915 0.0090
118.0480 1.3782 0.0076
118.0680 1.3648 0.0059
118.0880 1.3515 0.0058
118.1080 1.3382 0.0056
118.1280 1.3249 0.0067
118.1480 1.3115 0.0054
118.1680 1.2982 0.0076
118.1880 1.2849 0.0048
118.2080 1.2716 0.0031
118.2280 1.2582 0.0019
118.2480 1.2449 0.0021
118.2680 1.2315 0.0032
118.2880 1.2182 0.0036
118.3080 1.2049 0.0003
118.3280 1.1915 0.0006
118.3480 1.1782 0.0002
118.3680 1.1649 0.0005
118.3880 1.1515 -0.0008
118.4080 1.1382 -0.0013
118.4280 1.1248 -0.0009
118.4480 1.1115 -0.0038
118.4680 1.0982 -0.0027
118.4880 1.0849 -0.0029
118.5080 1.0716 -0.0027
118.5280 1.0582 -0.0024
118.5480 1.0449 -0.0037
118.5680 1.0316 -0.0028
118.5880 1.0182 -0.0037
118.6080 1.0048 -0.0042
118.6280 0.9915 -0.0057
118.6480 0.9782 -0.0049
118.6680 0.9649 -0.0055
118.6880 0.9515 -0.0070
118.7080 0.9382 -0.0067
118.7280 0.9249 -0.0071
118.7480 0.9115 -0.0072
118.7680 0.8982 -0.0050
118.7880 0.8848 -0.0064
118.8080 0.8715 -0.0088
118.8280 0.8582 -0.0064
118.8480 0.8449 -0.0086
118.8680 0.8315 -0.0074
118.8880 0.8182 -0.0081
118.9080 0.8049 -0.0067
118.9280 0.7916 -0.0100
118.9480 0.7782 -0.0084
118.9680 0.7649 -0.0100
118.9880 0.7516 -0.0098
119.0080 0.7382 -0.0104
119.0280 0.7249 -0.0076
119.0480 0.7115 -0.0092
119.0680 0.6981 -0.0095
119.0880 0.6848 -0.0108
119.1080 0.6715 -0.0112
119.1280 0.6581 -0.0115
119.1480 0.6448 -0.0105
119.1680 0.6315 -0.0105
119.1880 0.6182 -0.0102
119.2080 0.6049 -0.0108
119.2280 0.5915 -0.0113
119.2480 0.5782 -0.0088
119.2680 0.5649 -0.0102
119.2880 0.5516 -0.0097
119.3080 0.5383 -0.0109
119.3280 0.5249 -0.0117
119.3480 0.5116 -0.0121
119.3680 0.4982 -0.0141
119.3880 0.4849 -0.0123
119.4080 0.4715 -0.0118
119.4280 0.4581 -0.0109
119.4480 0.4448 -0.0117
119.4680 0.4315 -0.0135
119.4880 0.4182 -0.0141
119.5080 0.4048 -0.0130
119.5280 0.3915 -0.0142
119.5480 0.3782 -0.0119
119.5680 0.3649 -0.0132
119.5880 0.3516 -0.0129
119.6080 0.3382 -0.0115
119.6280 0.3249 -0.0112
119.6480 0.3116 -0.0108
119.6680 0.2982 -0.0115
119.6880 0.2849 -0.0112
119.7080 0.2715 -0.0117
119.7280 0.2582 -0.0100
119.7480 0.2449 -0.0107
119.7680 0.2315 -0.0107
119.7880 0.2182 -0.0122
119.8080 0.2049 -0.0119
119.8280 0.1916 -0.0134
119.8480 0.1782 -0.0114
119.8680 0.1648 -0.0110
119.8880 0.1515 -0.0133
119.9080 0.1382 -0.0118
119.9280 0.1249 -0.0110
119.9480 0.1115 -0.0126
119.9680 0.0982 -0.0127
119.9880 0.0849 -0.0127
120.0080 0.0716 -0.0123
120.0280 0.0582 -0.0110
120.0480 0.0449 -0.0104
120.0680 0.0316 -0.0137
120.0880 0.0182 -0.0118
120.1080 0.0049 -0.0115
120.1160 -0.0003 -0.0076
