Raw Data
Time Displacement Force
(s) (mm) (N)
0.0000 0.0000 0.3495
0.0200 0.0001 0.3701
0.0400 0.0022 0.4408
0.0600 0.0101 0.4887
0.0800 0.0220 0.4772
0.1000 0.0345 0.5400
0.1200 0.0472 0.6466
0.1400 0.0607 0.6915
0.1600 0.0747 0.7575
0.1800 0.0889 0.8224
0.2000 0.1028 0.8585
0.2200 0.1163 0.9009
0.2400 0.1297 0.9206
0.2600 0.1430 0.9016
0.2800 0.1563 0.9007
0.3000 0.1697 0.8924
0.3200 0.1831 0.8776
0.3400 0.1964 0.8888
0.3600 0.2097 0.8827
0.3800 0.2231 0.8792
0.4000 0.2364 0.8884
0.4200 0.2497 0.8805
0.4400 0.2630 0.8772
0.4600 0.2764 0.8722
0.4800 0.2897 0.8736
0.5000 0.3031 0.8705
0.5200 0.3164 0.8756
0.5400 0.3297 0.8775
0.5600 0.3430 0.8726
0.5800 0.3564 0.8672
0.6000 0.3698 0.8631
0.6200 0.3831 0.8672
0.6400 0.3964 0.8604
0.6600 0.4098 0.8511
0.6800 0.4232 0.8550
0.7000 0.4365 0.8408
0.7200 0.4498 0.8458
0.7400 0.4631 0.8468
0.7600 0.4765 0.8400
0.7800 0.4898 0.8423
0.8000 0.5031 0.8326
0.8200 0.5164 0.8394
0.8400 0.5298 0.8394
0.8600 0.5431 0.8294
0.8800 0.5564 0.8297
0.9000 0.5697 0.8322
0.9200 0.5830 0.8220
0.9400 0.5964 0.8302
0.9600 0.6097 0.8301
0.9800 0.6230 0.8226
1.0000 0.6364 0.8293
1.0200 0.6498 0.8246
1.0400 0.6631 0.8125
1.0600 0.6765 0.8294
1.0800 0.6898 0.8167
1.1000 0.7031 0.8140
1.1200 0.7165 0.8224
1.1400 0.7298 0.8024
1.1600 0.7431 0.8091
1.1800 0.7564 0.8212
1.2000 0.7698 0.7975
1.2200 0.7831 0.8085
1.2400 0.7964 0.8145
1.2600 0.8097 0.7967
1.2800 0.8230 0.8051
1.3000 0.8364 0.8051
1.3200 0.8497 0.7903
1.3400 0.8631 0.8084
1.3600 0.8764 0.8014
1.3800 0.8898 0.7884
1.4000 0.9031 0.8018
1.4200 0.9164 0.7931
1.4400 0.9298 0.7845
1.4600 0.9431 0.7892
1.4800 0.9565 0.7881
1.5000 0.9698 0.7772
1.5200 0.9831 0.7921
1.5400 0.9964 0.7878
1.5600 1.0097 0.7806
1.5800 1.0231 0.7896
1.6000 1.0364 0.7816
1.6200 1.0497 0.7798
1.6400 1.0630 0.7860
1.6600 1.0764 0.7758
1.6800 1.0897 0.7733
1.7000 1.1031 0.7784
1.7200 1.1164 0.7781
1.7400 1.1298 0.7725
1.7600 1.1432 0.7778
1.7800 1.1565 0.7658
1.8000 1.1698 0.7669
1.8200 1.1831 0.7640
1.8400 1.1965 0.7680
1.8600 1.2098 0.7546
1.8800 1.2231 0.7565
1.9000 1.2364 0.7575
1.9200 1.2497 0.7474
1.9400 1.2631 0.7531
1.9600 1.2764 0.7545
1.9800 1.2897 0.7481
2.0000 1.3030 0.7468
2.0200 1.3164 0.7563
2.0400 1.3297 0.7450
2.0600 1.3431 0.7428
2.0800 1.3564 0.7567
2.1000 1.3698 0.7441
2.1200 1.3832 0.7410
2.1400 1.3965 0.7473
2.1600 1.4098 0.7315
2.1800 1.4231 0.7389
2.2000 1.4365 0.7455
2.2200 1.4498 0.7290
2.2400 1.4631 0.7270
2.2600 1.4764 0.7447
2.2800 1.4897 0.7270
2.3000 1.5031 0.7306
2.3200 1.5164 0.7333
2.3400 1.5297 0.7156
2.3600 1.5430 0.7259
2.3800 1.5564 0.7299
2.4000 1.5698 0.7143
2.4200 1.5831 0.7249
2.4400 1.5964 0.7247
2.4600 1.6098 0.7126
2.4800 1.6231 0.7186
2.5000 1.6365 0.7293
2.5200 1.6498 0.7108
2.5400 1.6631 0.7150
2.5600 1.6764 0.7194
2.5800 1.6898 0.7123
2.6000 1.7031 0.7135
2.6200 1.7164 0.7086
2.6400 1.7298 0.7112
2.6600 1.7431 0.7103
2.6800 1.7564 0.7063
2.7000 1.7697 0.7032
2.7200 1.7831 0.7070
2.7400 1.7964 0.7046
2.7600 1.8097 0.7003
2.7800 1.8231 0.6994
2.8000 1.8364 0.7029
2.8200 1.8497 0.6991
2.8400 1.8631 0.6948
2.8600 1.8765 0.6944
2.8800 1.8898 0.6957
2.9000 1.9031 0.6887
2.9200 1.9165 0.6942
2.9400 1.9298 0.6909
2.9600 1.9431 0.6790
2.9800 1.9564 0.6896
3.0000 1.9698 0.6848
3.0200 1.9831 0.6727
3.0400 1.9964 0.6874
3.0600 2.0097 0.6803
3.0800 2.0230 0.6725
3.1000 2.0364 0.6844
3.1200 2.0497 0.6739
3.1400 2.0631 0.6622
3.1600 2.0764 0.6835
3.1800 2.0898 0.6639
3.2000 2.1031 0.6649
3.2200 2.1165 0.6764
3.2400 2.1298 0.6565
3.2600 2.1431 0.6633
3.2800 2.1565 0.6718
3.3000 2.1698 0.6578
3.3200 2.1831 0.6571
3.3400 2.1964 0.6702
3.3600 2.2097 0.6512
3.3800 2.2231 0.6564
3.4000 2.2364 0.6659
3.4200 2.2497 0.6478
3.4400 2.2630 0.6561
3.4600 2.2764 0.6594
3.4800 2.2898 0.6393
3.5000 2.3031 0.6547
3.5200 2.3164 0.6563
3.5400 2.3298 0.6410
3.5600 2.3431 0.6469
3.5800 2.3565 0.6515
3.6000 2.3698 0.6351
3.6200 2.3831 0.6456
3.6400 2.3965 0.6473
3.6600 2.4099 0.6350
3.6800 2.4232 0.6427
3.7000 2.4365 0.6411
3.7200 2.4498 0.6325
3.7400 2.4631 0.6376
3.7600 2.4764 0.6381
3.7800 2.4897 0.6303
3.8000 2.5030 0.6310
3.8200 2.5163 0.6342
3.8400 2.5297 0.6304
3.8600 2.5430 0.6244
3.8800 2.5564 0.6290
3.9000 2.5698 0.6277
3.9200 2.5832 0.6177
3.9400 2.5965 0.6215
3.9600 2.6098 0.6262
3.9800 2.6231 0.6159
4.0000 2.6365 0.6250
4.0200 2.6498 0.6200
4.0400 2.6631 0.6131
4.0600 2.6764 0.6232
4.0800 2.6897 0.6147
4.1000 2.7031 0.6085
4.1200 2.7164 0.6194
4.1400 2.7297 0.6081
4.1600 2.7430 0.6081
4.1800 2.7564 0.6164
4.2000 2.7697 0.6032
4.2200 2.7830 0.6043
4.2400 2.7964 0.6132
4.2600 2.8097 0.5976
4.2800 2.8231 0.6013
4.3000 2.8365 0.6113
4.3200 2.8498 0.5918
4.3400 2.8631 0.6014
4.3600 2.8765 0.6044
4.3800 2.8898 0.5858
4.4000 2.9031 0.6068
4.4200 2.9164 0.5967
4.4400 2.9297 0.5844
4.4600 2.9431 0.5997
4.4800 2.9564 0.5911
4.5000 2.9697 0.5826
4.5200 2.9830 0.5965
4.5400 2.9964 0.5927
4.5600 3.0098 0.5767
4.5800 3.0231 0.5949
4.6000 3.0364 0.5861
4.6200 3.0497 0.5792
4.6400 3.0631 0.5920
4.6600 3.0764 0.5801
4.6800 3.0897 0.5776
4.7000 3.1031 0.5848
4.7200 3.1164 0.5731
4.7400 3.1298 0.5791
4.7600 3.1431 0.5766
4.7800 3.1565 0.5703
4.8000 3.1698 0.5769
4.8200 3.1832 0.5749
4.8400 3.1965 0.5676
4.8600 3.2098 0.5734
4.8800 3.2231 0.5675
4.9000 3.2364 0.5635
4.9200 3.2497 0.5751
4.9400 3.2630 0.5622
4.9600 3.2764 0.5659
4.9800 3.2897 0.5687
5.0000 3.3032 0.5572
5.0200 3.3165 0.5572
5.0400 3.3299 0.5615
5.0600 3.3432 0.5539
5.0800 3.3565 0.5525
5.1000 3.3698 0.5532
5.1200 3.3831 0.5485
5.1400 3.3964 0.5511
5.1600 3.4097 0.5510
5.1800 3.4231 0.5439
5.2000 3.4364 0.5495
5.2200 3.4497 0.5434
5.2400 3.4630 0.5444
5.2600 3.4763 0.5440
5.2800 3.4897 0.5402
5.3000 3.5031 0.5403
5.3200 3.5164 0.5401
5.3400 3.5297 0.5342
5.3600 3.5431 0.5377
5.3800 3.5565 0.5349
5.4000 3.5698 0.5313
5.4200 3.5831 0.5314
5.4400 3.5965 0.5358
5.4600 3.6098 0.5252
5.4800 3.6231 0.5298
5.5000 3.6364 0.5296
5.5200 3.6497 0.5222
5.5400 3.6631 0.5288
5.5600 3.6764 0.5254
5.5800 3.6897 0.5205
5.6000 3.7030 0.5225
5.6200 3.7164 0.5220
5.6400 3.7297 0.5167
5.6600 3.7431 0.5242
5.6800 3.7564 0.5157
5.7000 3.7698 0.5164
5.7200 3.7831 0.5236
5.7400 3.7965 0.5105
5.7600 3.8098 0.5107
5.7800 3.8231 0.5212
5.8000 3.8365 0.5057
5.8200 3.8498 0.5050
5.8400 3.8632 0.5171
5.8600 3.8765 0.5077
5.8800 3.8898 0.5039
5.9000 3.9031 0.5137
5.9200 3.9165 0.4979
5.9400 3.9298 0.5000
5.9600 3.9430 0.5075
5.9800 3.9564 0.5027
6.0000 3.9697 0.4902
6.0200 3.9831 0.5010
6.0400 3.9964 0.4955
6.0600 4.0098 0.4943
6.0800 4.0231 0.4990
6.1000 4.0365 0.4920
6.1200 4.0498 0.4886
6.1400 4.0631 0.4992
6.1600 4.0765 0.4872
6.1800 4.0898 0.4841
6.2000 4.1031 0.4957
6.2200 4.1164 0.4833
6.2400 4.1297 0.4816
6.2600 4.1431 0.4885
6.2800 4.1564 0.4819
6.3000 4.1698 0.4791
6.3200 4.1831 0.4856
6.3400 4.1964 0.4760
6.3600 4.2097 0.4787
6.3800 4.2231 0.4799
6.4000 4.2364 0.4773
6.4200 4.2497 0.4739
6.4400 4.2631 0.4775
6.4600 4.2765 0.4766
6.4800 4.2898 0.4732
6.5000 4.3031 0.4694
6.5200 4.3165 0.4783
6.5400 4.3298 0.4677
6.5600 4.3432 0.4755
6.5800 4.3565 0.4769
6.6000 4.3698 0.4652
6.6200 4.3831 0.4744
6.6400 4.3964 0.4751
6.6600 4.4097 0.4606
6.6800 4.4230 0.4719
6.7000 4.4364 0.4713
6.7200 4.4497 0.4572
6.7400 4.4631 0.4742
6.7600 4.4764 0.4629
6.7800 4.4897 0.4536
6.8000 4.5031 0.4759
6.8200 4.5165 0.4584
6.8400 4.5298 0.4508
6.8600 4.5431 0.4749
6.8800 4.5564 0.4528
6.9000 4.5698 0.4485
6.9200 4.5831 0.4689
6.9400 4.5964 0.4506
6.9600 4.6098 0.4475
6.9800 4.6231 0.4654
7.0000 4.6364 0.4424
7.0200 4.6497 0.4501
7.0400 4.6630 0.4577
7.0600 4.6763 0.4413
7.0800 4.6897 0.4479
7.1000 4.7030 0.4535
7.1200 4.7163 0.4396
7.1400 4.7297 0.4442
7.1600 4.7431 0.4437
7.1800 4.7565 0.4377
7.2000 4.7699 0.4392
7.2200 4.7832 0.4368
7.2400 4.7965 0.4395
7.2600 4.8099 0.4374
7.2800 4.8232 0.4293
7.3000 4.8365 0.4338
7.3200 4.8497 0.4326
7.3400 4.8630 0.4295
7.3600 4.8764 0.4310
7.3800 4.8897 0.4194
7.4000 4.9030 0.4337
7.4200 4.9164 0.4316
7.4400 4.9298 0.4139
7.4600 4.9431 0.4277
7.4800 4.9564 0.4224
7.5000 4.9698 0.4090
7.5200 4.9831 0.4295
7.5400 4.9965 0.4214
7.5600 5.0098 0.4063
7.5800 5.0231 0.4213
7.6000 5.0365 0.4143
7.6200 5.0498 0.4076
7.6400 5.0631 0.4268
7.6600 5.0764 0.4057
7.6800 5.0897 0.4125
7.7000 5.1031 0.4207
7.7200 5.1164 0.3972
7.7400 5.1297 0.4081
7.7600 5.1430 0.4186
7.7800 5.1563 0.3970
7.8000 5.1697 0.4097
7.8200 5.1831 0.4096
7.8400 5.1964 0.3944
7.8600 5.2098 0.4031
7.8800 5.2231 0.4093
7.9000 5.2365 0.3928
7.9200 5.2498 0.3989
7.9400 5.2631 0.4085
7.9600 5.2764 0.3956
7.9800 5.2898 0.4034
8.0000 5.3032 0.3970
8.0200 5.3165 0.3939
8.0400 5.3298 0.3938
8.0600 5.3431 0.3940
8.0800 5.3564 0.3926
8.1000 5.3698 0.3877
8.1200 5.3830 0.3914
8.1400 5.3964 0.3912
8.1600 5.4097 0.3817
8.1800 5.4231 0.3892
8.2000 5.4364 0.3885
8.2200 5.4497 0.3793
8.2400 5.4631 0.3843
8.2600 5.4765 0.3883
8.2800 5.4898 0.3751
8.3000 5.5032 0.3829
8.3200 5.5165 0.3819
8.3400 5.5298 0.3769
8.3600 5.5431 0.3783
8.3800 5.5564 0.3795
8.4000 5.5698 0.3750
8.4200 5.5831 0.3791
8.4400 5.5964 0.3786
8.4600 5.6098 0.3702
8.4800 5.6231 0.3781
8.5000 5.6364 0.3723
8.5200 5.6497 0.3633
8.5400 5.6631 0.3780
8.5600 5.6764 0.3690
8.5800 5.6897 0.3664
8.6000 5.7031 0.3779
8.6200 5.7165 0.3613
8.6400 5.7298 0.3686
8.6600 5.7431 0.3680
8.6800 5.7564 0.3609
8.7000 5.7698 0.3654
8.7200 5.7832 0.3650
8.7400 5.7965 0.3581
8.7600 5.8098 0.3681
8.7800 5.8231 0.3652
8.8000 5.8364 0.3552
8.8200 5.8498 0.3566
8.8400 5.8630 0.3665
8.8600 5.8764 0.3557
8.8800 5.8897 0.3623
8.9000 5.9031 0.3575
8.9200 5.9164 0.3519
8.9400 5.9298 0.3580
8.9600 5.9431 0.3592
8.9800 5.9565 0.3512
9.0000 5.9698 0.3541
9.0200 5.9832 0.3516
9.0400 5.9965 0.3490
9.0600 6.0098 0.3524
9.0800 6.0232 0.3524
9.1000 6.0365 0.3465
9.1200 6.0498 0.3431
9.1400 6.0631 0.3447
9.1600 6.0764 0.3485
9.1800 6.0897 0.3420
9.2000 6.1030 0.3423
9.2200 6.1164 0.3459
9.2400 6.1297 0.3361
9.2600 6.1430 0.3405
9.2800 6.1564 0.3435
9.3000 6.1697 0.3358
9.3200 6.1831 0.3358
9.3400 6.1965 0.3421
9.3600 6.2098 0.3273
9.3800 6.2232 0.3362
9.4000 6.2365 0.3403
9.4200 6.2498 0.3256
9.4400 6.2631 0.3282
9.4600 6.2765 0.3366
9.4800 6.2897 0.3196
9.5000 6.3030 0.3360
9.5200 6.3164 0.3323
9.5400 6.3297 0.3151
9.5600 6.3430 0.3319
9.5800 6.3564 0.3278
9.6000 6.3697 0.3169
9.6200 6.3831 0.3300
9.6400 6.3964 0.3233
9.6600 6.4098 0.3139
9.6800 6.4231 0.3268
9.7000 6.4365 0.3179
9.7200 6.4498 0.3122
9.7400 6.4631 0.3249
9.7600 6.4764 0.3139
9.7800 6.4898 0.3126
9.8000 6.5031 0.3186
9.8200 6.5165 0.3084
9.8400 6.5298 0.3104
9.8600 6.5431 0.3150
9.8800 6.5565 0.3104
9.9000 6.5698 0.3042
9.9200 6.5831 0.3134
9.9400 6.5964 0.3097
9.9600 6.6097 0.3073
9.9800 6.6231 0.3071
10.0000 6.6364 0.3098
10.0200 6.6497 0.3030
10.0400 6.6631 0.3045
10.0600 6.6764 0.3069
10.0800 6.6898 0.3028
10.1000 6.7031 0.2968
10.1200 6.7165 0.3034
10.1400 6.7298 0.2989
10.1600 6.7432 0.3003
10.1800 6.7565 0.2918
10.2000 6.7698 0.2992
10.2200 6.7831 0.3005
10.2400 6.7964 0.2875
10.2600 6.8098 0.2956
10.2800 6.8231 0.2971
10.3000 6.8364 0.2887
10.3200 6.8497 0.2871
10.3400 6.8631 0.2979
10.3600 6.8764 0.2874
10.3800 6.8897 0.2868
10.4000 6.9031 0.2953
10.4200 6.9164 0.2807
10.4400 6.9298 0.2852
10.4600 6.9431 0.2901
10.4800 6.9565 0.2799
10.5000 6.9698 0.2850
10.5200 6.9831 0.2799
10.5400 6.9965 0.2780
10.5600 7.0097 0.2860
10.5800 7.0231 0.2825
10.6000 7.0364 0.2766
10.6200 7.0498 0.2846
10.6400 7.0631 0.2735
10.6600 7.0764 0.2719
10.6800 7.0897 0.2843
10.7000 7.1031 0.2764
10.7200 7.1164 0.2675
10.7400 7.1298 0.2833
10.7600 7.1431 0.2659
10.7800 7.1564 0.2680
10.8000 7.1698 0.2789
10.8200 7.1831 0.2655
10.8400 7.1965 0.2609
10.8600 7.2098 0.2720
10.8800 7.2232 0.2596
10.9000 7.2365 0.2624
10.9200 7.2498 0.2756
10.9400 7.2631 0.2541
10.9600 7.2764 0.2657
10.9800 7.2898 0.2646
11.0000 7.3031 0.2508
11.0200 7.3164 0.2625
11.0400 7.3297 0.2623
11.0600 7.3430 0.2492
11.0800 7.3564 0.2593
11.1000 7.3697 0.2538
11.1200 7.3831 0.2485
11.1400 7.3965 0.2593
11.1600 7.4098 0.2511
11.1800 7.4232 0.2425
11.2000 7.4365 0.2579
11.2200 7.4498 0.2459
11.2400 7.4631 0.2437
11.2600 7.4765 0.2533
11.2800 7.4898 0.2434
11.3000 7.5031 0.2433
11.3200 7.5164 0.2489
11.3400 7.5298 0.2370
11.3600 7.5431 0.2402
11.3800 7.5564 0.2453
11.4000 7.5697 0.2372
11.4200 7.5831 0.2401
11.4400 7.5964 0.2403
11.4600 7.6097 0.2386
11.4800 7.6231 0.2393
11.5000 7.6364 0.2375
11.5200 7.6498 0.2353
11.5400 7.6631 0.2350
11.5600 7.6765 0.2345
11.5800 7.6898 0.2392
11.6000 7.7032 0.2288
11.6200 7.7165 0.2313
11.6400 7.7298 0.2374
11.6600 7.7431 0.2306
11.6800 7.7564 0.2313
11.7000 7.7697 0.2344
11.7200 7.7831 0.2230
11.7400 7.7964 0.2310
11.7600 7.8097 0.2333
11.7800 7.8230 0.2237
11.8000 7.8364 0.2218
11.8200 7.8497 0.2294
11.8400 7.8631 0.2195
11.8600 7.8764 0.2233
11.8800 7.8898 0.2229
11.9000 7.9031 0.2186
11.9200 7.9164 0.2199
11.9400 7.9297 0.2242
11.9600 7.9431 0.2145
11.9800 7.9565 0.2199
12.0000 7.9698 0.2198
12.0200 7.9831 0.2179
12.0400 7.9965 0.2107
12.0600 8.0098 0.2176
12.0800 8.0231 0.2154
12.1000 8.0364 0.2060
12.1200 8.0497 0.2177
12.1400 8.0630 0.2123
12.1600 8.0764 0.2031
12.1800 8.0897 0.2136
12.2000 8.1030 0.2098
12.2200 8.1164 0.2026
12.2400 8.1298 0.2098
12.2600 8.1432 0.2058
12.2800 8.1565 0.1977
12.3000 8.1698 0.2098
12.3200 8.1832 0.2041
12.3400 8.1965 0.1947
12.3600 8.2098 0.2075
12.3800 8.2231 0.1988
12.4000 8.2364 0.1972
12.4200 8.2497 0.2039
12.4400 8.2631 0.1962
12.4600 8.2764 0.1934
12.4800 8.2897 0.2030
12.5000 8.3030 0.1952
12.5200 8.3164 0.1900
12.5400 8.3297 0.1954
12.5600 8.3431 0.1951
12.5800 8.3564 0.1892
12.6000 8.3698 0.1921
12.6200 8.3832 0.1937
12.6400 8.3965 0.1861
12.6600 8.4098 0.1941
12.6800 8.4232 0.1952
12.7000 8.4365 0.1834
12.7200 8.4498 0.1871
12.7400 8.4631 0.1867
12.7600 8.4764 0.1845
12.7800 8.4897 0.1877
12.8000 8.5031 0.1845
12.8200 8.5164 0.1771
12.8400 8.5297 0.1852
12.8600 8.5431 0.1855
12.8800 8.5564 0.1717
12.9000 8.5698 0.1829
12.9200 8.5831 0.1810
12.9400 8.5964 0.1742
12.9600 8.6098 0.1771
12.9800 8.6232 0.1780
13.0000 8.6365 0.1679
13.0200 8.6498 0.1804
13.0400 8.6631 0.1778
13.0600 8.6765 0.1677
13.0800 8.6898 0.1778
13.1000 8.7031 0.1732
13.1200 8.7165 0.1644
13.1400 8.7298 0.1792
13.1600 8.7431 0.1712
13.1800 8.7564 0.1646
13.2000 8.7697 0.1767
13.2200 8.7830 0.1703
13.2400 8.7964 0.1592
13.2600 8.8098 0.1711
13.2800 8.8231 0.1629
13.3000 8.8364 0.1626
13.3200 8.8498 0.1732
13.3400 8.8632 0.1574
13.3600 8.8765 0.1622
13.3800 8.8898 0.1689
13.4000 8.9031 0.1610
13.4200 8.9165 0.1602
13.4400 8.9298 0.1620
13.4600 8.9431 0.1576
13.4800 8.9564 0.1575
13.5000 8.9697 0.1562
13.5200 8.9831 0.1575
13.5400 8.9964 0.1533
13.5600 9.0097 0.1498
13.5800 9.0231 0.1535
13.6000 9.0364 0.1519
13.6200 9.0497 0.1497
13.6400 9.0630 0.1556
13.6600 9.0764 0.1417
13.6800 9.0898 0.1521
13.7000 9.1031 0.1515
13.7200 9.1165 0.1378
13.7400 9.1298 0.1500
13.7600 9.1432 0.1492
13.7800 9.1565 0.1327
13.8000 9.1698 0.1484
13.8200 9.1831 0.1464
13.8400 9.1964 0.1322
13.8600 9.2097 0.1471
13.8800 9.2231 0.1410
13.9000 9.2364 0.1246
13.9200 9.2497 0.1477
13.9400 9.2630 0.1335
13.9600 9.2764 0.1207
13.9800 9.2897 0.1481
14.0000 9.3031 0.1288
14.0200 9.3164 0.1208
14.0400 9.3298 0.1501
14.0600 9.3431 0.1269
14.0800 9.3565 0.1204
14.1000 9.3698 0.1461
14.1200 9.3831 0.1182
14.1400 9.3965 0.1227
14.1600 9.4098 0.1394
14.1800 9.4231 0.1173
14.2000 9.4364 0.1215
14.2200 9.4498 0.1336
14.2400 9.4631 0.1154
14.2600 9.4764 0.1243
14.2800 9.4897 0.1258
14.3000 9.5030 0.1167
14.3200 9.5164 0.1208
14.3400 9.5297 0.1237
14.3600 9.5430 0.1168
14.3800 9.5564 0.1223
14.4000 9.5698 0.1194
14.4200 9.5832 0.1132
14.4400 9.5965 0.1171
14.4600 9.6098 0.1199
14.4800 9.6232 0.1101
14.5000 9.6365 0.1141
14.5200 9.6498 0.1165
14.5400 9.6631 0.1064
14.5600 9.6764 0.1146
14.5800 9.6897 0.1176
14.6000 9.7030 0.1062
14.6200 9.7164 0.1085
14.6400 9.7297 0.1159
14.6600 9.7431 0.1065
14.6800 9.7564 0.1018
14.7000 9.7698 0.1137
14.7200 9.7831 0.1108
14.7400 9.7964 0.0995
14.7600 9.8098 0.1099
14.7800 9.8232 0.1006
14.8000 9.8365 0.0996
14.8200 9.8498 0.1075
14.8400 9.8631 0.0993
14.8600 9.8765 0.0992
14.8800 9.8898 0.1067
14.9000 9.9031 0.0891
14.9200 9.9164 0.1052
14.9400 9.9297 0.1081
14.9600 9.9431 0.0886
14.9800 9.9564 0.1025
15.0000 9.9697 0.1027
15.0200 9.9830 0.0837
15.0400 9.9964 0.1065
15.0600 10.0097 0.0994
15.0800 10.0231 0.0843
15.1000 10.0364 0.1066
15.1200 10.0498 0.0952
15.1400 10.0632 0.0834
15.1600 10.0765 0.1035
15.1800 10.0898 0.0886
15.2000 10.1031 0.0924
15.2200 10.1165 0.1058
15.2400 10.1298 0.0815
15.2600 10.1431 0.0897
15.2800 10.1564 0.1009
15.3000 10.1698 0.0830
15.3200 10.1831 0.0900
15.3400 10.1964 0.0954
15.3600 10.2097 0.0767
15.3800 10.2230 0.0908
15.4000 10.2364 0.0877
15.4200 10.2497 0.0775
15.4400 10.2631 0.0896
15.4600 10.2764 0.0843
15.4800 10.2898 0.0746
15.5000 10.3032 0.0863
15.5200 10.3165 0.0749
15.5400 10.3298 0.0803
15.5600 10.3432 0.0839
15.5800 10.3565 0.0785
15.6000 10.3698 0.0748
15.6200 10.3831 0.0862
15.6400 10.3964 0.0724
15.6600 10.4097 0.0784
15.6800 10.4231 0.0768
15.7000 10.4364 0.0731
15.7200 10.4497 0.0722
15.7400 10.4631 0.0756
15.7600 10.4764 0.0752
15.7800 10.4897 0.0658
15.8000 10.5031 0.0735
15.8200 10.5164 0.0711
15.8400 10.5297 0.0635
15.8600 10.5431 0.0681
15.8800 10.5564 0.0684
15.9000 10.5698 0.0636
15.9200 10.5831 0.0662
15.9400 10.5965 0.0614
15.9600 10.6098 0.0585
15.9800 10.6232 0.0609
16.0000 10.6365 0.0619
16.0200 10.6498 0.0561
16.0400 10.6631 0.0616
16.0600 10.6764 0.0559
16.0800 10.6897 0.0564
16.1000 10.7030 0.0616
16.1200 10.7164 0.0556
16.1400 10.7297 0.0536
16.1600 10.7431 0.0602
16.1800 10.7564 0.0488
16.2000 10.7698 0.0546
16.2200 10.7832 0.0510
16.2400 10.7965 0.0531
16.2600 10.8098 0.0509
16.2800 10.8231 0.0471
16.3000 10.8365 0.0486
16.3200 10.8498 0.0514
16.3400 10.8631 0.0430
16.3600 10.8764 0.0484
16.3800 10.8897 0.0492
16.4000 10.9031 0.0395
16.4200 10.9164 0.0444
16.4400 10.9297 0.0485
16.4600 10.9430 0.0377
16.4800 10.9564 0.0468
16.5000 10.9697 0.0422
16.5200 10.9831 0.0365
16.5400 10.9964 0.0461
16.5600 11.0097 0.0380
16.5800 11.0231 0.0358
16.6000 11.0365 0.0412
16.6200 11.0498 0.0374
16.6400 11.0631 0.0345
16.6600 11.0765 0.0412
16.6800 11.0898 0.0318
16.7000 11.1031 0.0362
16.7200 11.1164 0.0380
16.7400 11.1297 0.0318
16.7600 11.1431 0.0332
16.7800 11.1564 0.0348
16.8000 11.1697 0.0254
16.8200 11.1831 0.0331
16.8400 11.1964 0.0274
16.8600 11.2098 0.0272
16.8800 11.2231 0.0241
16.9000 11.2364 0.0295
16.9200 11.2498 0.0235
16.9400 11.2631 0.0219
16.9600 11.2765 0.0239
16.9800 11.2898 0.0231
17.0000 11.3031 0.0167
17.0200 11.3164 0.0197
17.0400 11.3298 0.0226
17.0600 11.3431 0.0137
17.0800 11.3565 0.0170
17.1000 11.3698 0.0226
17.1200 11.3831 0.0120
17.1400 11.3965 0.0165
17.1600 11.4097 0.0224
17.1800 11.4231 0.0109
17.2000 11.4364 0.0236
17.2200 11.4497 0.0156
17.2400 11.4631 0.0100
17.2600 11.4764 0.0174
17.2800 11.4897 0.0146
17.3000 11.5031 0.0042
17.3200 11.5165 0.0206
17.3400 11.5298 0.0101
17.3600 11.5431 0.0070
17.3800 11.5565 0.0177
17.4000 11.5698 0.0071
17.4200 11.5831 0.0027
17.4400 11.5964 0.0128
17.4600 11.6098 0.0024
17.4800 11.6231 0.0045
17.5000 11.6365 0.0078
17.5200 11.6497 0.0054
17.5400 11.6630 -0.0004
17.5600 11.6764 0.0133
17.5800 11.6897 0.0013
17.6000 11.7031 -0.0027
17.6200 11.7164 0.0065
17.6400 11.7298 -0.0016
17.6600 11.7431 -0.0025
17.6800 11.7565 0.0056
17.7000 11.7698 -0.0024
17.7200 11.7831 -0.0039
17.7400 11.7965 0.0048
17.7600 11.8098 -0.0098
17.7800 11.8231 -0.0068
17.8000 11.8364 0.0030
17.8200 11.8497 -0.0048
17.8400 11.8631 -0.0112
17.8600 11.8764 0.0029
17.8800 11.8897 -0.0078
17.9000 11.9030 -0.0099
17.9200 11.9164 -0.0030
17.9400 11.9298 -0.0098
17.9600 11.9431 -0.0113
17.9800 11.9564 -0.0032
18.0000 11.9698 -0.0198
18.0200 11.9831 -0.0127
18.0400 11.9965 -0.0090
18.0600 12.0098 -0.0172
18.0800 12.0231 -0.0167
18.1000 12.0365 -0.0124
18.1200 12.0498 -0.0249
18.1400 12.0632 -0.0148
18.1600 12.0765 -0.0120
18.1800 12.0898 -0.0181
18.2000 12.1031 -0.0173
18.2200 12.1164 -0.0201
18.2400 12.1297 -0.0201
18.2600 12.1430 -0.0181
18.2800 12.1564 -0.0183
18.3000 12.1697 -0.0252
18.3200 12.1831 -0.0260
18.3400 12.1964 -0.0202
18.3600 12.2098 -0.0231
18.3800 12.2231 -0.0277
18.4000 12.2365 -0.0213
18.4200 12.2498 -0.0216
18.4400 12.2631 -0.0295
18.4600 12.2765 -0.0291
18.4800 12.2898 -0.0254
18.5000 12.3031 -0.0337
18.5200 12.3164 -0.0214
18.5400 12.3297 -0.0283
18.5600 12.3431 -0.0408
18.5800 12.3564 -0.0247
18.6000 12.3698 -0.0283
18.6200 12.3831 -0.0442
18.6400 12.3964 -0.0200
18.6600 12.4097 -0.0358
18.6800 12.4231 -0.0420
18.7000 12.4364 -0.0241
18.7200 12.4497 -0.0437
18.7400 12.4631 -0.0435
18.7600 12.4765 -0.0232
18.7800 12.4898 -0.0488
18.8000 12.5031 -0.0410
18.8200 12.5165 -0.0343
18.8400 12.5298 -0.0514
18.8600 12.5431 -0.0425
18.8800 12.5564 -0.0339
18.9000 12.5697 -0.0549
18.9200 12.5831 -0.0417
18.9400 12.5964 -0.0394
18.9600 12.6097 -0.0611
18.9800 12.6230 -0.0406
19.0000 12.6364 -0.0409
19.0200 12.6497 -0.0624
19.0400 12.6631 -0.0416
19.0600 12.6764 -0.0467
19.0800 12.6897 -0.0641
19.1000 12.7031 -0.0439
19.1200 12.7164 -0.0587
19.1400 12.7298 -0.0592
19.1600 12.7431 -0.0423
19.1800 12.7564 -0.0588
19.2000 12.7698 -0.0625
19.2200 12.7831 -0.0479
19.2400 12.7964 -0.0602
19.2600 12.8098 -0.0641
19.2800 12.8231 -0.0503
19.3000 12.8365 -0.0681
19.3200 12.8498 -0.0637
19.3400 12.8631 -0.0525
19.3600 12.8764 -0.0701
19.3800 12.8897 -0.0600
19.4000 12.9030 -0.0631
19.4200 12.9164 -0.0714
19.4400 12.9297 -0.0639
19.4600 12.9431 -0.0606
19.4800 12.9565 -0.0736
19.5000 12.9698 -0.0662
19.5200 12.9832 -0.0658
19.5400 12.9965 -0.0715
19.5600 13.0099 -0.0658
19.5800 13.0232 -0.0735
19.6000 13.0365 -0.0707
19.6200 13.0498 -0.0698
19.6400 13.0631 -0.0727
19.6600 13.0764 -0.0731
19.6800 13.0897 -0.0710
19.7000 13.1030 -0.0734
19.7200 13.1164 -0.0721
19.7400 13.1297 -0.0794
19.7600 13.1431 -0.0754
19.7800 13.1564 -0.0763
19.8000 13.1697 -0.0767
19.8200 13.1831 -0.0808
19.8400 13.1965 -0.0793
19.8600 13.2098 -0.0828
19.8800 13.2231 -0.0786
19.9000 13.2365 -0.0838
19.9200 13.2498 -0.0849
19.9400 13.2632 -0.0787
19.9600 13.2765 -0.0864
19.9800 13.2898 -0.0872
20.0000 13.3031 -0.0776
20.0200 13.3164 -0.0878
20.0400 13.3298 -0.0868
20.0600 13.3430 -0.0833
20.0800 13.3564 -0.0902
20.1000 13.3697 -0.0916
20.1200 13.3831 -0.0849
20.1400 13.3964 -0.0911
20.1600 13.4097 -0.0908
20.1800 13.4231 -0.0850
20.2000 13.4365 -0.0978
20.2200 13.4498 -0.0901
20.2400 13.4631 -0.0877
20.2600 13.4764 -0.0949
20.2800 13.4898 -0.0970
20.3000 13.5032 -0.0917
20.3200 13.5165 -0.0976
20.3400 13.5298 -0.0987
20.3600 13.5431 -0.0941
20.3800 13.5565 -0.0983
20.4000 13.5698 -0.0957
20.4200 13.5830 -0.0985
20.4400 13.5963 -0.1052
20.4600 13.6097 -0.0985
20.4800 13.6231 -0.0973
20.5000 13.6364 -0.1032
20.5200 13.6498 -0.1035
20.5400 13.6631 -0.0963
20.5600 13.6765 -0.1117
20.5800 13.6898 -0.1062
20.6000 13.7032 -0.1030
20.6200 13.7165 -0.1044
20.6400 13.7298 -0.1073
20.6600 13.7431 -0.1090
20.6800 13.7564 -0.1074
20.7000 13.7697 -0.1035
20.7200 13.7831 -0.1076
20.7400 13.7964 -0.1143
20.7600 13.8098 -0.1110
20.7800 13.8231 -0.1082
20.8000 13.8364 -0.1118
20.8200 13.8497 -0.1159
20.8400 13.8631 -0.1108
20.8600 13.8764 -0.1114
20.8800 13.8897 -0.1157
20.9000 13.9031 -0.1113
20.9200 13.9165 -0.1168
20.9400 13.9298 -0.1195
20.9600 13.9432 -0.1145
20.9800 13.9565 -0.1193
21.0000 13.9698 -0.1126
21.0200 13.9832 -0.1156
21.0400 13.9965 -0.1197
21.0600 14.0098 -0.1207
21.0800 14.0231 -0.1162
21.1000 14.0364 -0.1247
21.1200 14.0498 -0.1201
21.1400 14.0631 -0.1165
21.1600 14.0764 -0.1250
21.1800 14.0897 -0.1220
21.2000 14.1031 -0.1205
21.2200 14.1164 -0.1269
21.2400 14.1297 -0.1239
21.2600 14.1431 -0.1270
21.2800 14.1565 -0.1322
21.3000 14.1698 -0.1300
21.3200 14.1831 -0.1285
21.3400 14.1965 -0.1306
21.3600 14.2098 -0.1310
21.3800 14.2232 -0.1419
21.4000 14.2365 -0.1320
21.4200 14.2498 -0.1296
21.4400 14.2631 -0.1398
21.4600 14.2764 -0.1344
21.4800 14.2898 -0.1375
21.5000 14.3031 -0.1451
21.5200 14.3163 -0.1361
21.5400 14.3297 -0.1395
21.5600 14.3430 -0.1429
21.5800 14.3563 -0.1389
21.6000 14.3697 -0.1462
21.6200 14.3831 -0.1479
21.6400 14.3965 -0.1400
21.6600 14.4098 -0.1464
21.6800 14.4232 -0.1491
21.7000 14.4365 -0.1415
21.7200 14.4498 -0.1496
21.7400 14.4632 -0.1473
21.7600 14.4765 -0.1439
21.7800 14.4897 -0.1485
21.8000 14.5030 -0.1446
21.8200 14.5164 -0.1467
21.8400 14.5297 -0.1544
21.8600 14.5430 -0.1475
21.8800 14.5564 -0.1511
21.9000 14.5697 -0.1524
21.9200 14.5831 -0.1525
21.9400 14.5964 -0.1534
21.9600 14.6098 -0.1579
21.9800 14.6231 -0.1486
22.0000 14.6365 -0.1536
22.0200 14.6498 -0.1583
22.0400 14.6631 -0.1517
22.0600 14.6764 -0.1574
22.0800 14.6898 -0.1606
22.1000 14.7031 -0.1539
22.1200 14.7164 -0.1630
22.1400 14.7297 -0.1609
22.1600 14.7431 -0.1554
22.1800 14.7564 -0.1620
22.2000 14.7698 -0.1665
22.2200 14.7831 -0.1591
22.2400 14.7964 -0.1642
22.2600 14.8097 -0.1671
22.2800 14.8231 -0.1610
22.3000 14.8364 -0.1682
22.3200 14.8498 -0.1727
22.3400 14.8631 -0.1662
22.3600 14.8765 -0.1715
22.3800 14.8898 -0.1745
22.4000 14.9031 -0.1650
22.4200 14.9165 -0.1711
22.4400 14.9298 -0.1765
22.4600 14.9432 -0.1703
22.4800 14.9565 -0.1730
22.5000 14.9698 -0.1786
22.5200 14.9831 -0.1667
22.5400 14.9964 -0.1765
22.5600 15.0097 -0.1843
22.5800 15.0230 -0.1692
22.6000 15.0363 -0.1755
22.6200 15.0497 -0.1797
22.6400 15.0631 -0.1708
22.6600 15.0764 -0.1800
22.6800 15.0897 -0.1840
22.7000 15.1031 -0.1750
22.7200 15.1165 -0.1803
22.7400 15.1298 -0.1893
22.7600 15.1432 -0.1772
22.7800 15.1565 -0.1845
22.8000 15.1698 -0.1902
22.8200 15.1831 -0.1787
22.8400 15.1964 -0.1880
22.8600 15.2097 -0.1882
22.8800 15.2231 -0.1806
22.9000 15.2364 -0.1894
22.9200 15.2498 -0.1971
22.9400 15.2631 -0.1816
22.9600 15.2764 -0.1890
22.9800 15.2897 -0.2026
23.0000 15.3031 -0.1841
23.0200 15.3164 -0.1894
23.0400 15.3297 -0.2021
23.0600 15.3431 -0.1870
23.0800 15.3564 -0.1937
23.1000 15.3698 -0.2014
23.1200 15.3831 -0.1902
23.1400 15.3964 -0.1952
23.1600 15.4098 -0.2037
23.1800 15.4232 -0.1884
23.2000 15.4365 -0.2038
23.2200 15.4498 -0.2005
23.2400 15.4631 -0.1913
23.2600 15.4764 -0.2001
23.2800 15.4897 -0.2072
23.3000 15.5030 -0.1954
23.3200 15.5163 -0.2007
23.3400 15.5297 -0.2093
23.3600 15.5431 -0.1994
23.3800 15.5564 -0.2039
23.4000 15.5697 -0.2112
23.4200 15.5831 -0.1992
23.4400 15.5965 -0.2078
23.4600 15.6098 -0.2138
23.4800 15.6232 -0.1978
23.5000 15.6365 -0.2097
23.5200 15.6498 -0.2129
23.5400 15.6632 -0.2041
23.5600 15.6765 -0.2161
23.5800 15.6898 -0.2180
23.6000 15.7031 -0.2025
23.6200 15.7164 -0.2192
23.6400 15.7298 -0.2211
23.6600 15.7431 -0.2108
23.6800 15.7564 -0.2181
23.7000 15.7697 -0.2261
23.7200 15.7831 -0.2089
23.7400 15.7964 -0.2266
23.7600 15.8097 -0.2232
23.7800 15.8231 -0.2123
23.8000 15.8364 -0.2253
23.8200 15.8498 -0.2255
23.8400 15.8632 -0.2158
23.8600 15.8765 -0.2307
23.8800 15.8898 -0.2287
23.9000 15.9031 -0.2183
23.9200 15.9164 -0.2301
23.9400 15.9297 -0.2300
23.9600 15.9430 -0.2193
23.9800 15.9564 -0.2313
24.0000 15.9697 -0.2346
24.0200 15.9831 -0.2258
24.0400 15.9964 -0.2331
24.0600 16.0097 -0.2310
24.0800 16.0231 -0.2322
24.1000 16.0364 -0.2324
24.1200 16.0498 -0.2338
24.1400 16.0631 -0.2352
24.1600 16.0764 -0.2367
24.1800 16.0898 -0.2396
24.2000 16.1031 -0.2348
24.2200 16.1164 -0.2330
24.2400 16.1298 -0.2439
24.2600 16.1431 -0.2360
24.2800 16.1565 -0.2374
24.3000 16.1698 -0.2430
24.3200 16.1831 -0.2413
24.3400 16.1965 -0.2409
24.3600 16.2098 -0.2501
24.3800 16.2231 -0.2430
24.4000 16.2364 -0.2442
24.4200 16.2497 -0.2532
24.4400 16.2631 -0.2447
24.4600 16.2764 -0.2439
24.4800 16.2897 -0.2563
24.5000 16.3030 -0.2404
24.5200 16.3164 -0.2564
24.5400 16.3298 -0.2542
24.5600 16.3431 -0.2461
24.5800 16.3565 -0.2591
24.6000 16.3698 -0.2541
24.6200 16.3831 -0.2502
24.6400 16.3965 -0.2618
24.6600 16.4098 -0.2594
24.6800 16.4231 -0.2477
24.7000 16.4365 -0.2647
24.7200 16.4498 -0.2571
24.7400 16.4631 -0.2574
24.7600 16.4764 -0.2693
24.7800 16.4897 -0.2550
24.8000 16.5030 -0.2612
24.8200 16.5164 -0.2716
24.8400 16.5297 -0.2583
24.8600 16.5431 -0.2683
24.8800 16.5564 -0.2645
24.9000 16.5698 -0.2645
24.9200 16.5832 -0.2691
24.9400 16.5965 -0.2716
24.9600 16.6098 -0.2644
24.9800 16.6232 -0.2755
25.0000 16.6365 -0.2674
25.0200 16.6498 -0.2712
25.0400 16.6631 -0.2779
25.0600 16.6764 -0.2691
25.0800 16.6897 -0.2724
25.1000 16.7031 -0.2770
25.1200 16.7164 -0.2697
25.1400 16.7297 -0.2814
25.1600 16.7431 -0.2799
25.1800 16.7564 -0.2759
25.2000 16.7697 -0.2834
25.2200 16.7831 -0.2803
25.2400 16.7964 -0.2771
25.2600 16.8098 -0.2893
25.2800 16.8231 -0.2847
25.3000 16.8365 -0.2791
25.3200 16.8498 -0.2903
25.3400 16.8632 -0.2815
25.3600 16.8765 -0.2835
25.3800 16.8898 -0.2947
25.4000 16.9031 -0.2831
25.4200 16.9164 -0.2846
25.4400 16.9298 -0.2955
25.4600 16.9431 -0.2858
25.4800 16.9564 -0.2941
25.5000 16.9697 -0.2923
25.5200 16.9830 -0.2886
25.5400 16.9964 -0.2934
25.5600 17.0097 -0.2944
25.5800 17.0231 -0.2884
25.6000 17.0364 -0.3003
25.6200 17.0498 -0.2971
25.6400 17.0632 -0.2966
25.6600 17.0765 -0.3002
25.6800 17.0898 -0.2968
25.7000 17.1031 -0.2997
25.7200 17.1165 -0.3064
25.7400 17.1298 -0.2973
25.7600 17.1431 -0.3027
25.7800 17.1564 -0.3040
25.8000 17.1698 -0.2956
25.8200 17.1831 -0.3041
25.8400 17.1964 -0.3066
25.8600 17.2097 -0.2986
25.8800 17.2231 -0.3084
25.9000 17.2364 -0.3087
25.9200 17.2497 -0.3012
25.9400 17.2631 -0.3143
25.9600 17.2764 -0.3076
25.9800 17.2898 -0.3044
26.0000 17.3032 -0.3178
26.0200 17.3165 -0.3090
26.0400 17.3298 -0.3027
26.0600 17.3432 -0.3233
26.0800 17.3565 -0.3122
26.1000 17.3698 -0.3068
26.1200 17.3831 -0.3249
26.1400 17.3964 -0.3118
26.1600 17.4097 -0.3106
26.1800 17.4231 -0.3286
26.2000 17.4364 -0.3141
26.2200 17.4497 -0.3157
26.2400 17.4631 -0.3331
26.2600 17.4764 -0.3145
26.2800 17.4898 -0.3216
26.3000 17.5031 -0.3343
26.3200 17.5164 -0.3168
26.3400 17.5298 -0.3263
26.3600 17.5431 -0.3304
26.3800 17.5564 -0.3251
26.4000 17.5697 -0.3275
26.4200 17.5831 -0.3352
26.4400 17.5965 -0.3295
26.4600 17.6098 -0.3309
26.4800 17.6231 -0.3379
26.5000 17.6364 -0.3287
26.5200 17.6498 -0.3353
26.5400 17.6631 -0.3375
26.5600 17.6764 -0.3355
26.5800 17.6897 -0.3338
26.6000 17.7030 -0.3378
26.6200 17.7164 -0.3391
26.6400 17.7297 -0.3395
26.6600 17.7430 -0.3405
26.6800 17.7564 -0.3469
26.7000 17.7698 -0.3406
26.7200 17.7832 -0.3479
26.7400 17.7965 -0.3462
26.7600 17.8098 -0.3423
26.7800 17.8232 -0.3482
26.8000 17.8365 -0.3499
26.8200 17.8498 -0.3427
26.8400 17.8631 -0.3539
26.8600 17.8764 -0.3487
26.8800 17.8897 -0.3515
26.9000 17.9031 -0.3568
26.9200 17.9164 -0.3508
26.9400 17.9297 -0.3523
26.9600 17.9430 -0.3590
26.9800 17.9564 -0.3533
27.0000 17.9697 -0.3555
27.0200 17.9830 -0.3628
27.0400 17.9964 -0.3547
27.0600 18.0098 -0.3577
27.0800 18.0232 -0.3732
27.1000 18.0365 -0.3571
27.1200 18.0498 -0.3543
27.1400 18.0631 -0.3701
27.1600 18.0765 -0.3616
27.1800 18.0898 -0.3620
27.2000 18.1031 -0.3710
27.2200 18.1164 -0.3668
27.2400 18.1298 -0.3609
27.2600 18.1431 -0.3713
27.2800 18.1564 -0.3690
27.3000 18.1697 -0.3653
27.3200 18.1830 -0.3764
27.3400 18.1964 -0.3744
27.3600 18.2098 -0.3649
27.3800 18.2231 -0.3824
27.4000 18.2364 -0.3788
27.4200 18.2498 -0.3719
27.4400 18.2631 -0.3830
27.4600 18.2765 -0.3810
27.4800 18.2898 -0.3727
27.5000 18.3031 -0.3897
27.5200 18.3165 -0.3868
27.5400 18.3298 -0.3757
27.5600 18.3431 -0.3932
27.5800 18.3565 -0.3875
27.6000 18.3698 -0.3815
27.6200 18.3831 -0.3993
27.6400 18.3964 -0.3905
27.6600 18.4097 -0.3832
27.6800 18.4230 -0.4019
27.7000 18.4364 -0.3914
27.7200 18.4498 -0.3853
27.7400 18.4631 -0.4081
27.7600 18.4764 -0.3933
27.7800 18.4898 -0.3895
27.8000 18.5032 -0.4136
27.8200 18.5165 -0.3974
27.8400 18.5298 -0.3983
27.8600 18.5431 -0.4142
27.8800 18.5565 -0.4050
27.9000 18.5698 -0.4013
27.9200 18.5831 -0.4133
27.9400 18.5964 -0.4065
27.9600 18.6097 -0.4115
27.9800 18.6231 -0.4169
28.0000 18.6364 -0.4099
28.0200 18.6497 -0.4110
28.0400 18.6631 -0.4215
28.0600 18.6764 -0.4145
28.0800 18.6897 -0.4128
28.1000 18.7031 -0.4184
28.1200 18.7164 -0.4220
28.1400 18.7298 -0.4132
28.1600 18.7431 -0.4194
28.1800 18.7565 -0.4277
28.2000 18.7698 -0.4164
28.2200 18.7831 -0.4250
28.2400 18.7965 -0.4277
28.2600 18.8098 -0.4166
28.2800 18.8231 -0.4294
28.3000 18.8364 -0.4303
28.3200 18.8498 -0.4152
28.3400 18.8631 -0.4389
28.3600 18.8764 -0.4357
28.3800 18.8897 -0.4198
28.4000 18.9030 -0.4423
28.4200 18.9164 -0.4335
28.4400 18.9297 -0.4299
28.4600 18.9431 -0.4510
28.4800 18.9564 -0.4329
28.5000 18.9698 -0.4395
28.5200 18.9831 -0.4530
28.5400 18.9965 -0.4360
28.5600 19.0098 -0.4432
28.5800 19.0231 -0.4551
28.6000 19.0365 -0.4381
28.6200 19.0498 -0.4522
28.6400 19.0631 -0.4552
28.6600 19.0764 -0.4441
28.6800 19.0898 -0.4545
28.7000 19.1031 -0.4581
28.7200 19.1164 -0.4471
28.7400 19.1297 -0.4608
28.7600 19.1430 -0.4567
28.7800 19.1563 -0.4552
28.8000 19.1697 -0.4632
28.8200 19.1830 -0.4576
28.8400 19.1964 -0.4603
28.8600 19.2098 -0.4637
28.8800 19.2232 -0.4597
28.9000 19.2365 -0.4684
28.9200 19.2498 -0.4666
28.9400 19.2632 -0.4599
28.9600 19.2765 -0.4707
28.9800 19.2898 -0.4715
29.0000 19.3031 -0.4637
29.0200 19.3164 -0.4732
29.0400 19.3297 -0.4703
29.0600 19.3431 -0.4658
29.0800 19.3564 -0.4822
29.1000 19.3697 -0.4723
29.1200 19.3831 -0.4732
29.1400 19.3964 -0.4825
29.1600 19.4098 -0.4760
29.1800 19.4231 -0.4811
29.2000 19.4364 -0.4906
29.2200 19.4498 -0.4755
29.2400 19.4632 -0.4881
29.2600 19.4765 -0.4951
29.2800 19.4898 -0.4805
29.3000 19.5031 -0.4898
29.3200 19.5165 -0.4985
29.3400 19.5298 -0.4864
29.3600 19.5431 -0.5013
29.3800 19.5564 -0.4989
29.4000 19.5697 -0.4922
29.4200 19.5831 -0.5039
29.4400 19.5964 -0.5022
29.4600 19.6097 -0.5000
29.4800 19.6230 -0.5103
29.5000 19.6364 -0.5071
29.5200 19.6497 -0.5021
29.5400 19.6631 -0.5147
29.5600 19.6764 -0.5107
29.5800 19.6898 -0.5094
29.6000 19.7031 -0.5193
29.6200 19.7164 -0.5141
29.6400 19.7298 -0.5135
29.6600 19.7431 -0.5206
29.6800 19.7565 -0.5168
29.7000 19.7698 -0.5199
29.7200 19.7831 -0.5213
29.7400 19.7964 -0.5240
29.7600 19.8098 -0.5218
29.7800 19.8231 -0.5282
29.8000 19.8364 -0.5281
29.8200 19.8497 -0.5301
29.8400 19.8630 -0.5285
29.8600 19.8764 -0.5306
29.8800 19.8897 -0.5368
29.9000 19.9031 -0.5286
29.9200 19.9164 -0.5328
29.9400 19.9298 -0.5450
29.9600 19.9432 -0.5346
29.9800 19.9565 -0.5394
30.0000 19.9698 -0.5443
30.0200 19.9831 -0.5406
30.0400 19.9965 -0.5395
30.0600 20.0098 -0.5485
30.0800 20.0231 -0.5491
30.1000 20.0364 -0.5458
30.1200 20.0497 -0.5582
30.1400 20.0631 -0.5504
30.1600 20.0764 -0.5516
30.1800 20.0897 -0.5648
30.2000 20.1031 -0.5529
30.2200 20.1164 -0.5575
30.2400 20.1297 -0.5664
30.2600 20.1431 -0.5569
30.2800 20.1564 -0.5610
30.3000 20.1697 -0.5727
30.3200 20.1831 -0.5672
30.3400 20.1965 -0.5631
30.3600 20.2098 -0.5789
30.3800 20.2231 -0.5700
30.4000 20.2365 -0.5737
30.4200 20.2498 -0.5846
30.4400 20.2632 -0.5733
30.4600 20.2765 -0.5827
30.4800 20.2898 -0.5860
30.5000 20.3031 -0.5801
30.5200 20.3164 -0.5892
30.5400 20.3297 -0.5904
30.5600 20.3430 -0.5858
30.5800 20.3564 -0.5911
30.6000 20.3697 -0.6025
30.6200 20.3831 -0.5934
30.6400 20.3964 -0.5666
30.6600 20.4098 -0.4701
30.6800 20.4232 -0.3254
30.7000 20.4365 -0.1988
30.7200 20.4498 -0.1087
30.7400 20.4631 -0.0453
30.7600 20.4765 -0.0041
30.7800 20.4898 0.0187
30.8000 20.5031 0.0726
30.8200 20.5164 0.1210
30.8400 20.5297 0.1649
30.8600 20.5431 0.2366
30.8800 20.5564 0.2889
30.9000 20.5697 0.3282
30.9200 20.5830 0.3976
30.9400 20.5964 0.4469
30.9600 20.6097 0.4877
30.9800 20.6230 0.5495
31.0000 20.6364 0.6083
31.0200 20.6497 0.6408
31.0400 20.6631 0.7044
31.0600 20.6765 0.7448
31.0800 20.6898 0.7791
31.1000 20.7031 0.8440
31.1200 20.7165 0.8856
31.1400 20.7298 0.9218
31.1600 20.7431 0.9838
31.1800 20.7564 1.0246
31.2000 20.7697 1.0605
31.2200 20.7831 1.0998
31.2400 20.7964 1.1028
31.2600 20.8097 1.0975
31.2800 20.8230 1.1029
31.3000 20.8364 1.0925
31.3200 20.8498 1.0939
31.3400 20.8631 1.0966
31.3600 20.8764 1.0874
31.3800 20.8898 1.0916
31.4000 20.9032 1.0910
31.4200 20.9165 1.0861
31.4400 20.9298 1.0858
31.4600 20.9431 1.0858
31.4800 20.9564 1.0877
31.5000 20.9698 1.0883
31.5200 20.9831 1.0755
31.5400 20.9964 1.0783
31.5600 21.0098 1.0869
31.5800 21.0231 1.0733
31.6000 21.0365 1.0721
31.6200 21.0498 1.0806
31.6400 21.0631 1.0685
31.6600 21.0764 1.0746
31.6800 21.0897 1.0702
31.7000 21.1031 1.0681
31.7200 21.1164 1.0742
31.7400 21.1297 1.0657
31.7600 21.1431 1.0589
31.7800 21.1565 1.0698
31.8000 21.1698 1.0574
31.8200 21.1831 1.0579
31.8400 21.1964 1.0664
31.8600 21.2098 1.0516
31.8800 21.2231 1.0493
31.9000 21.2364 1.0588
31.9200 21.2498 1.0440
31.9400 21.2631 1.0437
31.9600 21.2764 1.0499
31.9800 21.2898 1.0387
32.0000 21.3031 1.0394
32.0200 21.3164 1.0390
32.0400 21.3297 1.0342
32.0600 21.3431 1.0376
32.0800 21.3564 1.0380
32.1000 21.3697 1.0273
32.1200 21.3831 1.0358
32.1400 21.3965 1.0343
32.1600 21.4098 1.0223
32.1800 21.4231 1.0329
32.2000 21.4365 1.0317
32.2200 21.4498 1.0158
32.2400 21.4631 1.0276
32.2600 21.4764 1.0250
32.2800 21.4897 1.0164
32.3000 21.5031 1.0185
32.3200 21.5164 1.0170
32.3400 21.5297 1.0049
32.3600 21.5430 1.0206
32.3800 21.5564 1.0088
32.4000 21.5697 1.0001
32.4200 21.5831 1.0082
32.4400 21.5964 0.9981
32.4600 21.6097 0.9974
32.4800 21.6231 1.0051
32.5000 21.6364 0.9920
32.5200 21.6498 0.9900
32.5400 21.6631 0.9905
32.5600 21.6765 0.9858
32.5800 21.6898 0.9828
32.6000 21.7032 0.9822
32.6200 21.7165 0.9800
32.6400 21.7297 0.9802
32.6600 21.7431 0.9767
32.6800 21.7564 0.9751
32.7000 21.7697 0.9759
32.7200 21.7830 0.9652
32.7400 21.7964 0.9701
32.7600 21.8097 0.9666
32.7800 21.8230 0.9526
32.8000 21.8364 0.9650
32.8200 21.8497 0.9586
32.8400 21.8631 0.9447
32.8600 21.8765 0.9620
32.8800 21.8898 0.9481
32.9000 21.9031 0.9427
32.9200 21.9165 0.9539
32.9400 21.9298 0.9426
32.9600 21.9432 0.9336
32.9800 21.9565 0.9483
33.0000 21.9698 0.9319
33.0200 21.9831 0.9309
33.0400 21.9965 0.9429
33.0600 22.0098 0.9264
33.0800 22.0231 0.9293
33.1000 22.0364 0.9378
33.1200 22.0497 0.9170
33.1400 22.0631 0.9300
33.1600 22.0764 0.9279
33.1800 22.0897 0.9146
33.2000 22.1031 0.9278
33.2200 22.1165 0.9240
33.2400 22.1298 0.9151
33.2600 22.1431 0.9231
33.2800 22.1565 0.9195
33.3000 22.1698 0.9130
33.3200 22.1831 0.9161
33.3400 22.1964 0.9105
33.3600 22.2097 0.9138
33.3800 22.2231 0.9109
33.4000 22.2364 0.9017
33.4200 22.2498 0.9095
33.4400 22.2631 0.9031
33.4600 22.2764 0.9003
33.4800 22.2898 0.9060
33.5000 22.3031 0.8926
33.5200 22.3164 0.8993
33.5400 22.3297 0.8992
33.5600 22.3431 0.8921
33.5800 22.3565 0.8918
33.6000 22.3698 0.8927
33.6200 22.3831 0.8862
33.6400 22.3964 0.8883
33.6600 22.4098 0.8863
33.6800 22.4231 0.8842
33.7000 22.4364 0.8823
33.7200 22.4498 0.8860
33.7400 22.4631 0.8760
33.7600 22.4765 0.8770
33.7800 22.4898 0.8788
33.8000 22.5031 0.8713
33.8200 22.5164 0.8713
33.8400 22.5297 0.8760
33.8600 22.5431 0.8645
33.8800 22.5564 0.8630
33.9000 22.5697 0.8719
33.9200 22.5831 0.8604
33.9400 22.5965 0.8599
33.9600 22.6098 0.8607
33.9800 22.6232 0.8586
34.0000 22.6365 0.8552
34.0200 22.6498 0.8535
34.0400 22.6632 0.8510
34.0600 22.6765 0.8490
34.0800 22.6898 0.8481
34.1000 22.7031 0.8460
34.1200 22.7164 0.8415
34.1400 22.7297 0.8433
34.1600 22.7430 0.8398
34.1800 22.7563 0.8417
34.2000 22.7697 0.8333
34.2200 22.7831 0.8373
34.2400 22.7964 0.8345
34.2600 22.8097 0.8296
34.2800 22.8231 0.8304
34.3000 22.8365 0.8274
34.3200 22.8498 0.8263
34.3400 22.8632 0.8265
34.3600 22.8765 0.8226
34.3800 22.8898 0.8189
34.4000 22.9032 0.8177
34.4200 22.9165 0.8167
34.4400 22.9298 0.8174
34.4600 22.9431 0.8213
34.4800 22.9564 0.8034
34.5000 22.9698 0.8104
34.5200 22.9831 0.8135
34.5400 22.9964 0.8021
34.5600 23.0097 0.8137
34.5800 23.0231 0.8035
34.6000 23.0364 0.7985
34.6200 23.0497 0.8082
34.6400 23.0631 0.8020
34.6600 23.0765 0.7901
34.6800 23.0898 0.8040
34.7000 23.1031 0.7894
34.7200 23.1164 0.7888
34.7400 23.1298 0.8011
34.7600 23.1432 0.7874
34.7800 23.1565 0.7864
34.8000 23.1698 0.7926
34.8200 23.1831 0.7772
34.8400 23.1965 0.7847
34.8600 23.2098 0.7867
34.8800 23.2231 0.7776
34.9000 23.2364 0.7686
34.9200 23.2497 0.7858
34.9400 23.2631 0.7722
34.9600 23.2764 0.7656
34.9800 23.2897 0.7721
35.0000 23.3031 0.7733
35.0200 23.3165 0.7628
35.0400 23.3298 0.7625
35.0600 23.3432 0.7660
35.0800 23.3565 0.7572
35.1000 23.3698 0.7594
35.1200 23.3831 0.7637
35.1400 23.3964 0.7532
35.1600 23.4097 0.7568
35.1800 23.4231 0.7604
35.2000 23.4364 0.7457
35.2200 23.4498 0.7562
35.2400 23.4631 0.7536
35.2600 23.4764 0.7392
35.2800 23.4897 0.7505
35.3000 23.5031 0.7494
35.3200 23.5164 0.7333
35.3400 23.5297 0.7520
35.3600 23.5431 0.7430
35.3800 23.5565 0.7281
35.4000 23.5698 0.7466
35.4200 23.5831 0.7396
35.4400 23.5965 0.7205
35.4600 23.6098 0.7496
35.4800 23.6232 0.7275
35.5000 23.6365 0.7188
35.5200 23.6498 0.7402
35.5400 23.6631 0.7230
35.5600 23.6764 0.7187
35.5800 23.6898 0.7332
35.6000 23.7031 0.7146
35.6200 23.7164 0.7183
35.6400 23.7297 0.7304
35.6600 23.7431 0.7093
35.6800 23.7564 0.7103
35.7000 23.7697 0.7186
35.7200 23.7831 0.7070
35.7400 23.7965 0.7116
35.7600 23.8098 0.7067
35.7800 23.8231 0.7053
35.8000 23.8364 0.7048
35.8200 23.8498 0.7037
35.8400 23.8631 0.7022
35.8600 23.8765 0.6961
35.8800 23.8898 0.7013
35.9000 23.9031 0.6924
35.9200 23.9164 0.6946
35.9400 23.9298 0.6937
35.9600 23.9430 0.6931
35.9800 23.9563 0.6839
36.0000 23.9697 0.6912
36.0200 23.9830 0.6842
36.0400 23.9964 0.6736
36.0600 24.0097 0.6867
36.0800 24.0231 0.6851
36.1000 24.0365 0.6630
36.1200 24.0499 0.6801
36.1400 24.0632 0.6753
36.1600 24.0765 0.6632
36.1800 24.0898 0.6755
36.2000 24.1032 0.6715
36.2200 24.1165 0.6576
36.2400 24.1298 0.6719
36.2600 24.1431 0.6677
36.2800 24.1564 0.6546
36.3000 24.1697 0.6691
36.3200 24.1830 0.6625
36.3400 24.1964 0.6480
36.3600 24.2097 0.6619
36.3800 24.2231 0.6582
36.4000 24.2364 0.6423
36.4200 24.2498 0.6624
36.4400 24.2631 0.6494
36.4600 24.2765 0.6405
36.4800 24.2898 0.6547
36.5000 24.3031 0.6456
36.5200 24.3165 0.6364
36.5400 24.3298 0.6488
36.5600 24.3431 0.6433
36.5800 24.3565 0.6318
36.6000 24.3698 0.6406
36.6200 24.3831 0.6360
36.6400 24.3964 0.6325
36.6600 24.4097 0.6359
36.6800 24.4231 0.6306
36.7000 24.4364 0.6286
36.7200 24.4497 0.6256
36.7400 24.4631 0.6329
36.7600 24.4764 0.6192
36.7800 24.4897 0.6217
36.8000 24.5031 0.6271
36.8200 24.5165 0.6186
36.8400 24.5298 0.6160
36.8600 24.5431 0.6209
36.8800 24.5565 0.6163
36.9000 24.5698 0.6110
36.9200 24.5831 0.6223
36.9400 24.5965 0.6102
36.9600 24.6098 0.6075
36.9800 24.6231 0.6150
37.0000 24.6364 0.6044
37.0200 24.6498 0.6053
37.0400 24.6631 0.6079
37.0600 24.6764 0.5996
37.0800 24.6897 0.6089
37.1000 24.7031 0.6047
37.1200 24.7164 0.5981
37.1400 24.7297 0.6017
37.1600 24.7431 0.6004
37.1800 24.7564 0.5899
37.2000 24.7698 0.5990
37.2200 24.7832 0.5923
37.2400 24.7965 0.5860
37.2600 24.8098 0.5948
37.2800 24.8232 0.5916
37.3000 24.8365 0.5804
37.3200 24.8498 0.5949
37.3400 24.8631 0.5894
37.3600 24.8764 0.5831
37.3800 24.8898 0.5852
37.4000 24.9031 0.5815
37.4200 24.9164 0.5744
37.4400 24.9297 0.5845
37.4600 24.9431 0.5751
37.4800 24.9564 0.5686
37.5000 24.9697 0.5837
37.5200 24.9831 0.5712
37.5400 24.9964 0.5637
37.5600 25.0098 0.5769
37.5800 25.0231 0.5675
37.6000 25.0364 0.5613
37.6200 25.0498 0.5703
37.6400 25.0631 0.5625
37.6600 25.0765 0.5579
37.6800 25.0898 0.5675
37.7000 25.1031 0.5589
37.7200 25.1164 0.5564
37.7400 25.1298 0.5627
37.7600 25.1431 0.5499
37.7800 25.1564 0.5571
37.8000 25.1697 0.5587
37.8200 25.1830 0.5498
37.8400 25.1964 0.5485
37.8600 25.2097 0.5548
37.8800 25.2231 0.5416
37.9000 25.2365 0.5450
37.9200 25.2498 0.5470
37.9400 25.2632 0.5393
37.9600 25.2765 0.5448
37.9800 25.2898 0.5406
38.0000 25.3031 0.5353
38.0200 25.3165 0.5401
38.0400 25.3298 0.5363
38.0600 25.3431 0.5367
38.0800 25.3564 0.5348
38.1000 25.3698 0.5313
38.1200 25.3831 0.5299
38.1400 25.3964 0.5317
38.1600 25.4097 0.5293
38.1800 25.4230 0.5234
38.2000 25.4364 0.5318
38.2200 25.4497 0.5243
38.2400 25.4631 0.5197
38.2600 25.4764 0.5295
38.2800 25.4898 0.5160
38.3000 25.5032 0.5117
38.3200 25.5165 0.5216
38.3400 25.5298 0.5166
38.3600 25.5432 0.5106
38.3800 25.5565 0.5124
38.4000 25.5698 0.5124
38.4200 25.5831 0.5042
38.4400 25.5964 0.5154
38.4600 25.6097 0.5066
38.4800 25.6231 0.4999
38.5000 25.6364 0.5119
38.5200 25.6497 0.5024
38.5400 25.6631 0.4916
38.5600 25.6765 0.5097
38.5800 25.6898 0.5004
38.6000 25.7031 0.4939
38.6200 25.7164 0.5043
38.6400 25.7298 0.4971
38.6600 25.7431 0.4854
38.6800 25.7564 0.5050
38.7000 25.7698 0.4959
38.7200 25.7831 0.4812
38.7400 25.7965 0.5002
38.7600 25.8098 0.4873
38.7800 25.8231 0.4809
38.8000 25.8364 0.4959
38.8200 25.8498 0.4841
38.8400 25.8631 0.4792
38.8600 25.8764 0.4929
38.8800 25.8897 0.4779
38.9000 25.9031 0.4711
38.9200 25.9164 0.4912
38.9400 25.9297 0.4735
38.9600 25.9431 0.4674
38.9800 25.9564 0.4886
39.0000 25.9698 0.4652
39.0200 25.9831 0.4670
39.0400 25.9964 0.4812
39.0600 26.0098 0.4656
39.0800 26.0231 0.4598
39.1000 26.0365 0.4772
39.1200 26.0498 0.4551
39.1400 26.0631 0.4608
39.1600 26.0764 0.4760
39.1800 26.0898 0.4511
39.2000 26.1031 0.4584
39.2200 26.1164 0.4720
39.2400 26.1297 0.4453
39.2600 26.1430 0.4545
39.2800 26.1564 0.4609
39.3000 26.1697 0.4487
39.3200 26.1831 0.4518
39.3400 26.1964 0.4573
39.3600 26.2098 0.4436
39.3800 26.2232 0.4483
39.4000 26.2365 0.4525
39.4200 26.2498 0.4408
39.4400 26.2632 0.4455
39.4600 26.2765 0.4439
39.4800 26.2898 0.4344
39.5000 26.3031 0.4400
39.5200 26.3164 0.4439
39.5400 26.3298 0.4343
39.5600 26.3431 0.4324
39.5800 26.3564 0.4372
39.6000 26.3697 0.4327
39.6200 26.3831 0.4225
39.6400 26.3964 0.4398
39.6600 26.4098 0.4290
39.6800 26.4231 0.4181
39.7000 26.4364 0.4341
39.7200 26.4498 0.4258
39.7400 26.4631 0.4180
39.7600 26.4765 0.4322
39.7800 26.4898 0.4192
39.8000 26.5031 0.4110
39.8200 26.5165 0.4224
39.8400 26.5298 0.4176
39.8600 26.5431 0.4060
39.8800 26.5564 0.4243
39.9000 26.5698 0.4117
39.9200 26.5831 0.4053
39.9400 26.5964 0.4152
39.9600 26.6097 0.4050
39.9800 26.6230 0.4093
40.0000 26.6364 0.4074
40.0200 26.6497 0.3985
40.0400 26.6631 0.4020
40.0600 26.6764 0.4062
40.0800 26.6898 0.3968
40.1000 26.7032 0.3894
40.1200 26.7165 0.4048
40.1400 26.7298 0.3913
40.1600 26.7431 0.3875
40.1800 26.7565 0.4075
40.2000 26.7698 0.3831
40.2200 26.7831 0.3879
40.2400 26.7964 0.4061
40.2600 26.8097 0.3772
40.2800 26.8231 0.3769
40.3000 26.8364 0.4031
40.3200 26.8497 0.3766
40.3400 26.8631 0.3711
40.3600 26.8764 0.3879
40.3800 26.8897 0.3725
40.4000 26.9031 0.3733
40.4200 26.9164 0.3789
40.4400 26.9298 0.3603
40.4600 26.9432 0.3706
40.4800 26.9565 0.3647
40.5000 26.9698 0.3564
40.5200 26.9831 0.3710
40.5400 26.9965 0.3626
40.5600 27.0098 0.3528
40.5800 27.0231 0.3598
40.6000 27.0364 0.3529
40.6200 27.0497 0.3507
40.6400 27.0631 0.3585
40.6600 27.0764 0.3474
40.6800 27.0897 0.3442
40.7000 27.1031 0.3500
40.7200 27.1164 0.3456
40.7400 27.1298 0.3421
40.7600 27.1431 0.3434
40.7800 27.1564 0.3426
40.8000 27.1698 0.3414
40.8200 27.1831 0.3267
40.8400 27.1964 0.3406
40.8600 27.2097 0.3454
40.8800 27.2231 0.3264
40.9000 27.2365 0.3315
40.9200 27.2498 0.3385
40.9400 27.2631 0.3250
40.9600 27.2765 0.3370
40.9800 27.2898 0.3270
41.0000 27.3032 0.3171
41.0200 27.3164 0.3327
41.0400 27.3297 0.3254
41.0600 27.3430 0.3181
41.0800 27.3564 0.3279
41.1000 27.3697 0.3182
41.1200 27.3830 0.3154
41.1400 27.3964 0.3208
41.1600 27.4098 0.3197
41.1800 27.4232 0.3137
41.2000 27.4365 0.3115
41.2200 27.4498 0.3162
41.2400 27.4632 0.3168
41.2600 27.4765 0.3078
41.2800 27.4898 0.3139
41.3000 27.5031 0.3134
41.3200 27.5164 0.3097
41.3400 27.5297 0.3172
41.3600 27.5431 0.3082
41.3800 27.5564 0.3084
41.4000 27.5697 0.3118
41.4200 27.5830 0.3107
41.4400 27.5964 0.3056
41.4600 27.6097 0.3135
41.4800 27.6230 0.3098
41.5000 27.6364 0.3059
41.5200 27.6498 0.3086
41.5400 27.6632 0.3064
41.5600 27.6765 0.3038
41.5800 27.6898 0.3126
41.6000 27.7031 0.3019
41.6200 27.7165 0.3036
41.6400 27.7298 0.3051
41.6600 27.7431 0.3056
41.6800 27.7564 0.3029
41.7000 27.7697 0.3069
41.7200 27.7831 0.2956
41.7400 27.7964 0.2964
41.7600 27.8097 0.3016
41.7800 27.8230 0.2999
41.8000 27.8364 0.2967
41.8200 27.8498 0.2918
41.8400 27.8631 0.2932
41.8600 27.8764 0.2896
41.8800 27.8898 0.2948
41.9000 27.9032 0.2916
41.9200 27.9165 0.2845
41.9400 27.9298 0.2914
41.9600 27.9431 0.2843
41.9800 27.9565 0.2820
42.0000 27.9698 0.2858
42.0200 27.9831 0.2796
42.0400 27.9964 0.2782
42.0600 28.0098 0.2776
42.0800 28.0231 0.2735
42.1000 28.0364 0.2739
42.1200 28.0497 0.2784
42.1400 28.0630 0.2654
42.1600 28.0764 0.2660
42.1800 28.0897 0.2690
42.2000 28.1031 0.2641
42.2200 28.1164 0.2598
42.2400 28.1298 0.2648
42.2600 28.1432 0.2563
42.2800 28.1565 0.2554
42.3000 28.1698 0.2619
42.3200 28.1831 0.2529
42.3400 28.1965 0.2532
42.3600 28.2098 0.2574
42.3800 28.2231 0.2468
42.4000 28.2364 0.2512
42.4200 28.2497 0.2561
42.4400 28.2631 0.2430
42.4600 28.2764 0.2396
42.4800 28.2897 0.2483
42.5000 28.3031 0.2371
42.5200 28.3164 0.2406
42.5400 28.3297 0.2434
42.5600 28.3431 0.2338
42.5800 28.3564 0.2373
42.6000 28.3698 0.2348
42.6200 28.3832 0.2270
42.6400 28.3965 0.2368
42.6600 28.4098 0.2319
42.6800 28.4231 0.2239
42.7000 28.4365 0.2313
42.7200 28.4499 0.2234
42.7400 28.4632 0.2240
42.7600 28.4764 0.2277
42.7800 28.4898 0.2225
42.8000 28.5031 0.2156
42.8200 28.5164 0.2245
42.8400 28.5297 0.2146
42.8600 28.5430 0.2195
42.8800 28.5564 0.2185
42.9000 28.5697 0.2071
42.9200 28.5831 0.2120
42.9400 28.5964 0.2164
42.9600 28.6098 0.2056
42.9800 28.6231 0.2140
43.0000 28.6365 0.2111
43.0200 28.6498 0.2063
43.0400 28.6631 0.2152
43.0600 28.6765 0.2049
43.0800 28.6898 0.2030
43.1000 28.7031 0.2135
43.1200 28.7164 0.2017
43.1400 28.7298 0.1972
43.1600 28.7431 0.2105
43.1800 28.7564 0.1947
43.2000 28.7697 0.1951
43.2200 28.7830 0.2119
43.2400 28.7964 0.1899
43.2600 28.8097 0.1925
43.2800 28.8230 0.2045
43.3000 28.8364 0.1854
43.3200 28.8498 0.1897
43.3400 28.8632 0.2020
43.3600 28.8765 0.1835
43.3800 28.8899 0.1840
43.4000 28.9032 0.2015
43.4200 28.9165 0.1795
43.4400 28.9299 0.1867
43.4600 28.9431 0.1886
43.4800 28.9564 0.1763
43.5000 28.9697 0.1867
43.5200 28.9830 0.1907
43.5400 28.9964 0.1696
43.5600 29.0097 0.1830
43.5800 29.0231 0.1815
43.6000 29.0364 0.1674
43.6200 29.0498 0.1829
43.6400 29.0631 0.1731
43.6600 29.0765 0.1626
43.6800 29.0898 0.1842
43.7000 29.1032 0.1717
43.7200 29.1165 0.1586
43.7400 29.1298 0.1810
43.7600 29.1431 0.1729
43.7800 29.1565 0.1544
43.8000 29.1698 0.1745
43.8200 29.1831 0.1765
43.8400 29.1964 0.1598
43.8600 29.2097 0.1688
43.8800 29.2231 0.1716
43.9000 29.2364 0.1582
43.9200 29.2497 0.1673
43.9400 29.2630 0.1698
43.9600 29.2764 0.1597
43.9800 29.2898 0.1647
44.0000 29.3031 0.1652
44.0200 29.3164 0.1613
44.0400 29.3298 0.1636
44.0600 29.3431 0.1606
44.0800 29.3565 0.1571
44.1000 29.3698 0.1665
44.1200 29.3831 0.1556
44.1400 29.3965 0.1510
44.1600 29.4098 0.1621
44.1800 29.4231 0.1498
44.2000 29.4364 0.1463
44.2200 29.4497 0.1609
44.2400 29.4631 0.1449
44.2600 29.4764 0.1456
44.2800 29.4897 0.1522
44.3000 29.5030 0.1457
44.3200 29.5164 0.1544
44.3400 29.5297 0.1444
44.3600 29.5431 0.1367
44.3800 29.5564 0.1508
44.4000 29.5698 0.1449
44.4200 29.5831 0.1358
44.4400 29.5965 0.1480
44.4600 29.6098 0.1364
44.4800 29.6231 0.1313
44.5000 29.6365 0.1493
44.5200 29.6498 0.1311
44.5400 29.6631 0.1302
44.5600 29.6764 0.1411
44.5800 29.6897 0.1217
44.6000 29.7031 0.1302
44.6200 29.7164 0.1362
44.6400 29.7297 0.1178
44.6600 29.7430 0.1314
44.6800 29.7564 0.1282
44.7000 29.7697 0.1105
44.7200 29.7831 0.1286
44.7400 29.7964 0.1228
44.7600 29.8097 0.1054
44.7800 29.8231 0.1242
44.8000 29.8365 0.1175
44.8200 29.8498 0.0981
44.8400 29.8631 0.1230
44.8600 29.8765 0.1089
44.8800 29.8898 0.0967
44.9000 29.9031 0.1124
44.9200 29.9164 0.1004
44.9400 29.9298 0.0998
44.9600 29.9431 0.1086
44.9800 29.9564 0.0964
45.0000 29.9697 0.0980
45.0200 29.9831 0.1024
45.0400 29.9964 0.0932
45.0600 30.0097 0.0923
45.0800 30.0231 0.1000
45.1000 30.0364 0.0866
45.1200 30.0498 0.0884
45.1400 30.0632 0.0934
45.1600 30.0765 0.0897
45.1800 30.0898 0.0845
45.2000 30.1031 0.0884
45.2200 30.1164 0.0934
45.2400 30.1298 0.0748
45.2600 30.1431 0.0850
45.2800 30.1564 0.0889
45.3000 30.1697 0.0754
45.3200 30.1831 0.0804
45.3400 30.1964 0.0831
45.3600 30.2097 0.0696
45.3800 30.2230 0.0814
45.4000 30.2364 0.0775
45.4200 30.2497 0.0641
45.4400 30.2631 0.0799
45.4600 30.2764 0.0759
45.4800 30.2898 0.0603
45.5000 30.3031 0.0767
45.5200 30.3165 0.0609
45.5400 30.3298 0.0584
45.5600 30.3431 0.0687
45.5800 30.3565 0.0623
45.6000 30.3698 0.0587
45.6200 30.3831 0.0639
45.6400 30.3964 0.0592
45.6600 30.4097 0.0584
45.6800 30.4230 0.0605
45.7000 30.4364 0.0522
45.7200 30.4497 0.0533
45.7400 30.4630 0.0548
45.7600 30.4764 0.0488
45.7800 30.4898 0.0552
45.8000 30.5031 0.0490
45.8200 30.5164 0.0496
45.8400 30.5298 0.0471
45.8600 30.5431 0.0405
45.8800 30.5565 0.0469
45.9000 30.5698 0.0375
45.9200 30.5831 0.0391
45.9400 30.5964 0.0430
45.9600 30.6098 0.0330
45.9800 30.6231 0.0345
46.0000 30.6365 0.0438
46.0200 30.6498 0.0292
46.0400 30.6631 0.0326
46.0600 30.6765 0.0370
46.0800 30.6898 0.0187
46.1000 30.7031 0.0325
46.1200 30.7164 0.0364
46.1400 30.7297 0.0098
46.1600 30.7431 0.0327
46.1800 30.7564 0.0286
46.2000 30.7697 0.0080
46.2200 30.7831 0.0222
46.2400 30.7964 0.0243
46.2600 30.8098 0.0078
46.2800 30.8231 0.0214
46.3000 30.8365 0.0163
46.3200 30.8498 0.0065
46.3400 30.8632 0.0145
46.3600 30.8765 0.0133
46.3800 30.8898 0.0050
46.4000 30.9031 0.0133
46.4200 30.9165 0.0020
46.4400 30.9298 0.0039
46.4600 30.9431 0.0072
46.4800 30.9564 -0.0005
46.5000 30.9697 0.0036
46.5200 30.9831 0.0010
46.5400 30.9964 0.0009
46.5600 31.0097 0.0041
46.5800 31.0231 -0.0021
46.6000 31.0365 -0.0008
46.6200 31.0498 -0.0033
46.6400 31.0631 -0.0057
46.6600 31.0765 0.0062
46.6800 31.0898 -0.0049
46.7000 31.1031 -0.0132
46.7200 31.1164 0.0016
46.7400 31.1298 0.0003
46.7600 31.1431 -0.0168
46.7800 31.1565 0.0011
46.8000 31.1698 -0.0019
46.8200 31.1831 -0.0172
46.8400 31.1964 -0.0003
46.8600 31.2097 -0.0092
46.8800 31.2231 -0.0154
46.9000 31.2364 0.0063
46.9200 31.2497 -0.0164
46.9400 31.2631 -0.0230
46.9600 31.2765 0.0052
46.9800 31.2898 -0.0153
47.0000 31.3031 -0.0274
47.0200 31.3165 0.0062
47.0400 31.3298 -0.0183
47.0600 31.3432 -0.0284
47.0800 31.3565 -0.0023
47.1000 31.3698 -0.0183
47.1200 31.3831 -0.0188
47.1400 31.3964 -0.0107
47.1600 31.4097 -0.0231
47.1800 31.4230 -0.0252
47.2000 31.4363 -0.0172
47.2200 31.4497 -0.0224
47.2400 31.4631 -0.0310
47.2600 31.4764 -0.0168
47.2800 31.4897 -0.0293
47.3000 31.5031 -0.0332
47.3200 31.5165 -0.0209
47.3400 31.5298 -0.0339
47.3600 31.5431 -0.0332
47.3800 31.5564 -0.0261
47.4000 31.5698 -0.0350
47.4200 31.5831 -0.0465
47.4400 31.5964 -0.0248
47.4600 31.6098 -0.0365
47.4800 31.6231 -0.0460
47.5000 31.6364 -0.0327
47.5200 31.6498 -0.0371
47.5400 31.6631 -0.0460
47.5600 31.6764 -0.0322
47.5800 31.6897 -0.0383
47.6000 31.7031 -0.0416
47.6200 31.7164 -0.0415
47.6400 31.7297 -0.0412
47.6600 31.7431 -0.0431
47.6800 31.7565 -0.0395
47.7000 31.7698 -0.0474
47.7200 31.7831 -0.0475
47.7400 31.7965 -0.0381
47.7600 31.8098 -0.0452
47.7800 31.8232 -0.0523
47.8000 31.8365 -0.0423
47.8200 31.8497 -0.0496
47.8400 31.8631 -0.0530
47.8600 31.8764 -0.0462
47.8800 31.8898 -0.0512
47.9000 31.9031 -0.0501
47.9200 31.9164 -0.0497
47.9400 31.9297 -0.0577
47.9600 31.9431 -0.0578
47.9800 31.9564 -0.0471
48.0000 31.9697 -0.0607
48.0200 31.9831 -0.0595
48.0400 31.9964 -0.0583
48.0600 32.0098 -0.0664
48.0800 32.0231 -0.0631
48.1000 32.0364 -0.0579
48.1200 32.0498 -0.0673
48.1400 32.0631 -0.0666
48.1600 32.0764 -0.0670
48.1800 32.0898 -0.0660
48.2000 32.1031 -0.0679
48.2200 32.1165 -0.0711
48.2400 32.1298 -0.0762
48.2600 32.1431 -0.0678
48.2800 32.1564 -0.0750
48.3000 32.1697 -0.0802
48.3200 32.1830 -0.0751
48.3400 32.1964 -0.0801
48.3600 32.2097 -0.0762
48.3800 32.2231 -0.0791
48.4000 32.2365 -0.0859
48.4200 32.2498 -0.0822
48.4400 32.2631 -0.0898
48.4600 32.2765 -0.0863
48.4800 32.2898 -0.0790
48.5000 32.3032 -0.0898
48.5200 32.3165 -0.0909
48.5400 32.3298 -0.0855
48.5600 32.3431 -0.0972
48.5800 32.3564 -0.0926
48.6000 32.3697 -0.0903
48.6200 32.3830 -0.1101
48.6400 32.3964 -0.0937
48.6600 32.4097 -0.0965
48.6800 32.4231 -0.1144
48.7000 32.4364 -0.0991
48.7200 32.4497 -0.1015
48.7400 32.4631 -0.1135
48.7600 32.4765 -0.0984
48.7800 32.4898 -0.1100
48.8000 32.5032 -0.1129
48.8200 32.5165 -0.1066
48.8400 32.5298 -0.1137
48.8600 32.5432 -0.1193
48.8800 32.5565 -0.1046
48.9000 32.5698 -0.1173
48.9200 32.5831 -0.1188
48.9400 32.5964 -0.1146
48.9600 32.6098 -0.1231
48.9800 32.6231 -0.1263
49.0000 32.6364 -0.1129
49.0200 32.6497 -0.1251
49.0400 32.6631 -0.1232
49.0600 32.6764 -0.1221
49.0800 32.6897 -0.1245
49.1000 32.7031 -0.1238
49.1200 32.7165 -0.1218
49.1400 32.7298 -0.1298
49.1600 32.7431 -0.1308
49.1800 32.7564 -0.1229
49.2000 32.7698 -0.1304
49.2200 32.7831 -0.1306
49.2400 32.7965 -0.1310
49.2600 32.8098 -0.1305
49.2800 32.8231 -0.1393
49.3000 32.8365 -0.1362
49.3200 32.8498 -0.1328
49.3400 32.8631 -0.1431
49.3600 32.8763 -0.1372
49.3800 32.8897 -0.1325
49.4000 32.9031 -0.1444
49.4200 32.9164 -0.1377
49.4400 32.9298 -0.1379
49.4600 32.9431 -0.1445
49.4800 32.9565 -0.1432
49.5000 32.9698 -0.1396
49.5200 32.9832 -0.1515
49.5400 32.9965 -0.1424
49.5600 33.0098 -0.1440
49.5800 33.0231 -0.1540
49.6000 33.0364 -0.1475
49.6200 33.0497 -0.1474
49.6400 33.0630 -0.1482
49.6600 33.0764 -0.1493
49.6800 33.0898 -0.1572
49.7000 33.1031 -0.1460
49.7200 33.1164 -0.1552
49.7400 33.1297 -0.1594
49.7600 33.1431 -0.1473
49.7800 33.1564 -0.1590
49.8000 33.1697 -0.1612
49.8200 33.1831 -0.1525
49.8400 33.1965 -0.1581
49.8600 33.2098 -0.1655
49.8800 33.2231 -0.1590
49.9000 33.2365 -0.1629
49.9200 33.2498 -0.1712
49.9400 33.2632 -0.1628
49.9600 33.2765 -0.1672
49.9800 33.2898 -0.1725
50.0000 33.3031 -0.1623
50.0200 33.3164 -0.1798
50.0400 33.3298 -0.1720
50.0600 33.3431 -0.1643
50.0800 33.3564 -0.1836
50.1000 33.3697 -0.1820
50.1200 33.3831 -0.1637
50.1400 33.3964 -0.1916
50.1600 33.4097 -0.1860
50.1800 33.4231 -0.1694
50.2000 33.4364 -0.1981
50.2200 33.4498 -0.1915
50.2400 33.4631 -0.1740
50.2600 33.4764 -0.2038
50.2800 33.4898 -0.1911
50.3000 33.5031 -0.1815
50.3200 33.5165 -0.2063
50.3400 33.5298 -0.1954
50.3600 33.5431 -0.1861
50.3800 33.5564 -0.2095
50.4000 33.5698 -0.1961
50.4200 33.5831 -0.1987
50.4400 33.5964 -0.2111
50.4600 33.6097 -0.1982
50.4800 33.6230 -0.2072
50.5000 33.6364 -0.2090
50.5200 33.6497 -0.2012
50.5400 33.6630 -0.2080
50.5600 33.6764 -0.2150
50.5800 33.6898 -0.2029
50.6000 33.7032 -0.2105
50.6200 33.7165 -0.2147
50.6400 33.7298 -0.2102
50.6600 33.7432 -0.2124
50.6800 33.7565 -0.2177
50.7000 33.7698 -0.2104
50.7200 33.7830 -0.2134
50.7400 33.7964 -0.2185
50.7600 33.8097 -0.2186
50.7800 33.8231 -0.2156
50.8000 33.8364 -0.2196
50.8200 33.8497 -0.2159
50.8400 33.8631 -0.2192
50.8600 33.8764 -0.2235
50.8800 33.8898 -0.2195
50.9000 33.9031 -0.2205
50.9200 33.9165 -0.2258
50.9400 33.9298 -0.2200
50.9600 33.9431 -0.2252
50.9800 33.9564 -0.2275
51.0000 33.9698 -0.2211
51.0200 33.9831 -0.2240
51.0400 33.9964 -0.2314
51.0600 34.0098 -0.2239
51.0800 34.0231 -0.2281
51.1000 34.0364 -0.2330
51.1200 34.0497 -0.2290
51.1400 34.0631 -0.2286
51.1600 34.0764 -0.2356
51.1800 34.0897 -0.2319
51.2000 34.1031 -0.2271
51.2200 34.1164 -0.2399
51.2400 34.1298 -0.2345
51.2600 34.1431 -0.2373
51.2800 34.1565 -0.2422
51.3000 34.1698 -0.2415
51.3200 34.1831 -0.2397
51.3400 34.1964 -0.2456
51.3600 34.2098 -0.2424
51.3800 34.2232 -0.2425
51.4000 34.2365 -0.2489
51.4200 34.2498 -0.2472
51.4400 34.2631 -0.2421
51.4600 34.2764 -0.2562
51.4800 34.2898 -0.2487
51.5000 34.3031 -0.2502
51.5200 34.3164 -0.2576
51.5400 34.3297 -0.2509
51.5600 34.3430 -0.2544
51.5800 34.3564 -0.2621
51.6000 34.3697 -0.2540
51.6200 34.3831 -0.2580
51.6400 34.3965 -0.2678
51.6600 34.4098 -0.2564
51.6800 34.4232 -0.2597
51.7000 34.4365 -0.2691
51.7200 34.4498 -0.2629
51.7400 34.4632 -0.2692
51.7600 34.4765 -0.2698
51.7800 34.4898 -0.2597
51.8000 34.5031 -0.2704
51.8200 34.5164 -0.2695
51.8400 34.5298 -0.2691
51.8600 34.5431 -0.2713
51.8800 34.5564 -0.2745
51.9000 34.5697 -0.2704
51.9200 34.5831 -0.2689
51.9400 34.5964 -0.2763
51.9600 34.6097 -0.2767
51.9800 34.6230 -0.2719
52.0000 34.6364 -0.2783
52.0200 34.6497 -0.2793
52.0400 34.6631 -0.2716
52.0600 34.6765 -0.2800
52.0800 34.6898 -0.2822
52.1000 34.7032 -0.2735
52.1200 34.7165 -0.2835
52.1400 34.7298 -0.2858
52.1600 34.7431 -0.2753
52.1800 34.7564 -0.2866
52.2000 34.7698 -0.2849
52.2200 34.7831 -0.2760
52.2400 34.7964 -0.2934
52.2600 34.8097 -0.2896
52.2800 34.8230 -0.2784
52.3000 34.8364 -0.2927
52.3200 34.8497 -0.2960
52.3400 34.8631 -0.2823
52.3600 34.8765 -0.2971
52.3800 34.8898 -0.2952
52.4000 34.9032 -0.2864
52.4200 34.9165 -0.3018
52.4400 34.9298 -0.2959
52.4600 34.9431 -0.2865
52.4800 34.9565 -0.3017
52.5000 34.9698 -0.3011
52.5200 34.9831 -0.2899
52.5400 34.9964 -0.3042
52.5600 35.0098 -0.3019
52.5800 35.0231 -0.2933
52.6000 35.0364 -0.3083
52.6200 35.0497 -0.3071
52.6400 35.0630 -0.2976
52.6600 35.0764 -0.3126
52.6800 35.0897 -0.3044
52.7000 35.1031 -0.3076
52.7200 35.1164 -0.3132
52.7400 35.1298 -0.3084
52.7600 35.1432 -0.3103
52.7800 35.1565 -0.3189
52.8000 35.1698 -0.3082
52.8200 35.1831 -0.3144
52.8400 35.1965 -0.3219
52.8600 35.2098 -0.3146
52.8800 35.2231 -0.3203
52.9000 35.2364 -0.3214
52.9200 35.2497 -0.3176
52.9400 35.2631 -0.3282
52.9600 35.2764 -0.3194
52.9800 35.2897 -0.3194
53.0000 35.3031 -0.3309
53.0200 35.3165 -0.3284
53.0400 35.3298 -0.3205
53.0600 35.3431 -0.3385
53.0800 35.3565 -0.3325
53.1000 35.3698 -0.3268
53.1200 35.3832 -0.3394
53.1400 35.3965 -0.3297
53.1600 35.4098 -0.3380
53.1800 35.4231 -0.3409
53.2000 35.4365 -0.3350
53.2200 35.4498 -0.3407
53.2400 35.4631 -0.3445
53.2600 35.4764 -0.3339
53.2800 35.4898 -0.3461
53.3000 35.5031 -0.3497
53.3200 35.5164 -0.3392
53.3400 35.5297 -0.3472
53.3600 35.5430 -0.3472
53.3800 35.5564 -0.3424
53.4000 35.5697 -0.3547
53.4200 35.5831 -0.3483
53.4400 35.5964 -0.3451
53.4600 35.6098 -0.3550
53.4800 35.6231 -0.3540
53.5000 35.6365 -0.3533
53.5200 35.6498 -0.3562
53.5400 35.6631 -0.3543
53.5600 35.6765 -0.3546
53.5800 35.6898 -0.3596
53.6000 35.7031 -0.3590
53.6200 35.7164 -0.3582
53.6400 35.7298 -0.3627
53.6600 35.7431 -0.3587
53.6800 35.7564 -0.3586
53.7000 35.7697 -0.3652
53.7200 35.7830 -0.3700
53.7400 35.7964 -0.3595
53.7600 35.8097 -0.3658
53.7800 35.8231 -0.3710
53.8000 35.8364 -0.3651
53.8200 35.8498 -0.3765
53.8400 35.8631 -0.3735
53.8600 35.8765 -0.3706
53.8800 35.8898 -0.3803
53.9000 35.9031 -0.3771
53.9200 35.9165 -0.3709
53.9400 35.9298 -0.3838
53.9600 35.9431 -0.3790
53.9800 35.9564 -0.3783
54.0000 35.9698 -0.3870
54.0200 35.9831 -0.3877
54.0400 35.9964 -0.3829
54.0600 36.0097 -0.3881
54.0800 36.0231 -0.3864
54.1000 36.0364 -0.3909
54.1200 36.0498 -0.3925
54.1400 36.0631 -0.3886
54.1600 36.0764 -0.3930
54.1800 36.0898 -0.3889
54.2000 36.1031 -0.3979
54.2200 36.1165 -0.3980
54.2400 36.1298 -0.3896
54.2600 36.1432 -0.4079
54.2800 36.1565 -0.3975
54.3000 36.1698 -0.3960
54.3200 36.1831 -0.4107
54.3400 36.1964 -0.3984
54.3600 36.2098 -0.4012
54.3800 36.2231 -0.4146
54.4000 36.2364 -0.4067
54.4200 36.2497 -0.4013
54.4400 36.2630 -0.4201
54.4600 36.2764 -0.4071
54.4800 36.2897 -0.4101
54.5000 36.3031 -0.4251
54.5200 36.3164 -0.4052
54.5400 36.3298 -0.4165
54.5600 36.3432 -0.4251
54.5800 36.3565 -0.4081
54.6000 36.3698 -0.4204
54.6200 36.3831 -0.4291
54.6400 36.3965 -0.4145
54.6600 36.4098 -0.4206
54.6800 36.4231 -0.4325
54.7000 36.4364 -0.4115
54.7200 36.4497 -0.4267
54.7400 36.4631 -0.4328
54.7600 36.4764 -0.4165
54.7800 36.4897 -0.4324
54.8000 36.5030 -0.4320
54.8200 36.5164 -0.4190
54.8400 36.5297 -0.4360
54.8600 36.5431 -0.4384
54.8800 36.5564 -0.4223
54.9000 36.5698 -0.4389
54.9200 36.5832 -0.4419
54.9400 36.5965 -0.4278
54.9600 36.6098 -0.4445
54.9800 36.6231 -0.4421
55.0000 36.6365 -0.4294
55.0200 36.6498 -0.4482
55.0400 36.6631 -0.4451
55.0600 36.6764 -0.4328
55.0800 36.6897 -0.4473
55.1000 36.7031 -0.4479
55.1200 36.7164 -0.4400
55.1400 36.7297 -0.4479
55.1600 36.7430 -0.4537
55.1800 36.7564 -0.4416
55.2000 36.7697 -0.4549
55.2200 36.7831 -0.4558
55.2400 36.7964 -0.4419
55.2600 36.8098 -0.4571
55.2800 36.8231 -0.4543
55.3000 36.8364 -0.4485
55.3200 36.8497 -0.4557
55.3400 36.8631 -0.4611
55.3600 36.8765 -0.4521
55.3800 36.8898 -0.4624
55.4000 36.9031 -0.4589
55.4200 36.9165 -0.4553
55.4400 36.9298 -0.4659
55.4600 36.9432 -0.4621
55.4800 36.9565 -0.4587
55.5000 36.9697 -0.4696
55.5200 36.9830 -0.4642
55.5400 36.9964 -0.4592
55.5600 37.0097 -0.4704
55.5800 37.0230 -0.4676
55.6000 37.0364 -0.4584
55.6200 37.0498 -0.4777
55.6400 37.0632 -0.4721
55.6600 37.0765 -0.4691
55.6800 37.0898 -0.4769
55.7000 37.1031 -0.4732
55.7200 37.1165 -0.4728
55.7400 37.1298 -0.4796
55.7600 37.1431 -0.4784
55.7800 37.1564 -0.4752
55.8000 37.1698 -0.4790
55.8200 37.1831 -0.4801
55.8400 37.1964 -0.4787
55.8600 37.2097 -0.4867
55.8800 37.2230 -0.4821
55.9000 37.2364 -0.4782
55.9200 37.2497 -0.4905
55.9400 37.2631 -0.4858
55.9600 37.2764 -0.4797
55.9800 37.2898 -0.4961
56.0000 37.3031 -0.4898
56.0200 37.3165 -0.4852
56.0400 37.3298 -0.5002
56.0600 37.3431 -0.4914
56.0800 37.3565 -0.4944
56.1000 37.3698 -0.5045
56.1200 37.3831 -0.4969
56.1400 37.3964 -0.4929
56.1600 37.4098 -0.5068
56.1800 37.4231 -0.4991
56.2000 37.4364 -0.5013
56.2200 37.4497 -0.5117
56.2400 37.4630 -0.4998
56.2600 37.4764 -0.5052
56.2800 37.4897 -0.5171
56.3000 37.5031 -0.5057
56.3200 37.5164 -0.5124
56.3400 37.5298 -0.5127
56.3600 37.5431 -0.5119
56.3800 37.5565 -0.5184
56.4000 37.5698 -0.5177
56.4200 37.5831 -0.5171
56.4400 37.5965 -0.5208
56.4600 37.6098 -0.5221
56.4800 37.6231 -0.5201
56.5000 37.6364 -0.5317
56.5200 37.6498 -0.5282
56.5400 37.6631 -0.5251
56.5600 37.6764 -0.5375
56.5800 37.6897 -0.5308
56.6000 37.7030 -0.5325
56.6200 37.7164 -0.5402
56.6400 37.7297 -0.5347
56.6600 37.7431 -0.5363
56.6800 37.7564 -0.5390
56.7000 37.7698 -0.5416
56.7200 37.7832 -0.5392
56.7400 37.7965 -0.5451
56.7600 37.8098 -0.5458
56.7800 37.8231 -0.5471
56.8000 37.8365 -0.5492
56.8200 37.8498 -0.5505
56.8400 37.8631 -0.5549
56.8600 37.8764 -0.5533
56.8800 37.8897 -0.5524
56.9000 37.9031 -0.5557
56.9200 37.9164 -0.5568
56.9400 37.9297 -0.5662
56.9600 37.9430 -0.5553
56.9800 37.9564 -0.5629
57.0000 37.9697 -0.5681
57.0200 37.9831 -0.5584
57.0400 37.9964 -0.5680
57.0600 38.0098 -0.5705
57.0800 38.0232 -0.5660
57.1000 38.0365 -0.5717
57.1200 38.0498 -0.5772
57.1400 38.0631 -0.5675
57.1600 38.0765 -0.5758
57.1800 38.0899 -0.5766
57.2000 38.1032 -0.5701
57.2200 38.1164 -0.5756
57.2400 38.1297 -0.5768
57.2600 38.1431 -0.5741
57.2800 38.1564 -0.5808
57.3000 38.1697 -0.5815
57.3200 38.1830 -0.5775
57.3400 38.1964 -0.5795
57.3600 38.2097 -0.5844
57.3800 38.2231 -0.5805
57.4000 38.2364 -0.5879
57.4200 38.2497 -0.5811
57.4400 38.2631 -0.5852
57.4600 38.2765 -0.5907
57.4800 38.2898 -0.5910
57.5000 38.3031 -0.5886
57.5200 38.3165 -0.5874
57.5400 38.3298 -0.5974
57.5600 38.3431 -0.5919
57.5800 38.3564 -0.5912
57.6000 38.3698 -0.6015
57.6200 38.3831 -0.5943
57.6400 38.3964 -0.5959
57.6600 38.4097 -0.6076
57.6800 38.4230 -0.6009
57.7000 38.4364 -0.6002
57.7200 38.4497 -0.6336
57.7400 38.4630 -0.5220
57.7600 38.4764 -0.4139
57.7800 38.4897 -0.3841
57.8000 38.5031 -0.3745
57.8200 38.5165 -0.3885
57.8400 38.5298 -0.3991
57.8600 38.5432 -0.3762
57.8800 38.5565 -0.3916
57.9000 38.5698 -0.3924
57.9200 38.5831 -0.3733
57.9400 38.5964 -0.3901
57.9600 38.6097 -0.3905
57.9800 38.6231 -0.3727
58.0000 38.6364 -0.3949
58.0200 38.6497 -0.3906
58.0400 38.6631 -0.3794
58.0600 38.6764 -0.3945
58.0800 38.6898 -0.3866
58.1000 38.7031 -0.3814
58.1200 38.7164 -0.3976
58.1400 38.7298 -0.3856
58.1600 38.7432 -0.3862
58.1800 38.7565 -0.4035
58.2000 38.7698 -0.3821
58.2200 38.7831 -0.3874
58.2400 38.7964 -0.4029
58.2600 38.8098 -0.3882
58.2800 38.8231 -0.3894
58.3000 38.8364 -0.4007
58.3200 38.8498 -0.3890
58.3400 38.8631 -0.3946
58.3600 38.8764 -0.4049
58.3800 38.8897 -0.3920
58.4000 38.9031 -0.3972
58.4200 38.9164 -0.4024
58.4400 38.9298 -0.3986
58.4600 38.9431 -0.4031
58.4800 38.9564 -0.4056
58.5000 38.9698 -0.4019
58.5200 38.9831 -0.4071
58.5400 38.9965 -0.4077
58.5600 39.0098 -0.4090
58.5800 39.0231 -0.4070
58.6000 39.0365 -0.4144
58.6200 39.0498 -0.4114
58.6400 39.0631 -0.4121
58.6600 39.0764 -0.4171
58.6800 39.0897 -0.4145
58.7000 39.1031 -0.4110
58.7200 39.1164 -0.4210
58.7400 39.1297 -0.4215
58.7600 39.1430 -0.4160
58.7800 39.1564 -0.4247
58.8000 39.1697 -0.4251
58.8200 39.1831 -0.4139
58.8400 39.1964 -0.4323
58.8600 39.2098 -0.4251
58.8800 39.2231 -0.4189
58.9000 39.2365 -0.4363
58.9200 39.2498 -0.4299
58.9400 39.2631 -0.4230
58.9600 39.2765 -0.4404
58.9800 39.2898 -0.4343
59.0000 39.3031 -0.4278
59.0200 39.3164 -0.4381
59.0400 39.3297 -0.4315
59.0600 39.3431 -0.4332
59.0800 39.3564 -0.4425
59.1000 39.3697 -0.4377
59.1200 39.3830 -0.4329
59.1400 39.3964 -0.4424
59.1600 39.4097 -0.4415
59.1800 39.4231 -0.4435
59.2000 39.4364 -0.4512
59.2200 39.4497 -0.4381
59.2400 39.4631 -0.4461
59.2600 39.4765 -0.4545
59.2800 39.4898 -0.4436
59.3000 39.5031 -0.4541
59.3200 39.5165 -0.4539
59.3400 39.5298 -0.4518
59.3600 39.5432 -0.4556
59.3800 39.5565 -0.4615
59.4000 39.5697 -0.4542
59.4200 39.5831 -0.4593
59.4400 39.5964 -0.4604
59.4600 39.6097 -0.4638
59.4800 39.6230 -0.4604
59.5000 39.6364 -0.4650
59.5200 39.6497 -0.4657
59.5400 39.6631 -0.4650
59.5600 39.6764 -0.4659
59.5800 39.6898 -0.4709
59.6000 39.7031 -0.4666
59.6200 39.7165 -0.4691
59.6400 39.7298 -0.4730
59.6600 39.7431 -0.4721
59.6800 39.7565 -0.4722
59.7000 39.7698 -0.4716
59.7200 39.7832 -0.4732
59.7400 39.7964 -0.4773
59.7600 39.8097 -0.4781
59.7800 39.8231 -0.4767
59.8000 39.8364 -0.4800
59.8200 39.8498 -0.4829
59.8400 39.8631 -0.4794
59.8600 39.8764 -0.4866
59.8800 39.8897 -0.4893
59.9000 39.9031 -0.4855
59.9200 39.9164 -0.4908
59.9400 39.9297 -0.4907
59.9600 39.9431 -0.4938
59.9800 39.9565 -0.4934
60.0000 39.9698 -0.4973
60.0200 39.9831 -0.4926
60.0400 39.9964 -0.5029
60.0460 40.0003 -0.5157
