Raw Data
Time Displacement Force
(s) (mm) (N)
0.0000 0.0000 0.3320
0.0200 0.0001 0.3515
0.0400 0.0021 0.4264
0.0600 0.0097 0.4775
0.0800 0.0214 0.4592
0.1000 0.0338 0.5306
0.1200 0.0465 0.6420
0.1400 0.0600 0.6706
0.1600 0.0742 0.7225
0.1800 0.0884 0.8080
0.2000 0.1024 0.8427
0.2200 0.1159 0.9044
0.2400 0.1293 0.9525
0.2600 0.1426 0.9204
0.2800 0.1559 0.9163
0.3000 0.1693 0.9200
0.3200 0.1827 0.8875
0.3400 0.1960 0.9094
0.3600 0.2093 0.9113
0.3800 0.2227 0.8954
0.4000 0.2360 0.9044
0.4200 0.2493 0.9084
0.4400 0.2626 0.8961
0.4600 0.2760 0.8951
0.4800 0.2893 0.8967
0.5000 0.3027 0.8894
0.5200 0.3160 0.8883
0.5400 0.3293 0.8988
0.5600 0.3426 0.8937
0.5800 0.3560 0.8896
0.6000 0.3694 0.8901
0.6200 0.3827 0.8875
0.6400 0.3960 0.8810
0.6600 0.4094 0.8841
0.6800 0.4228 0.8814
0.7000 0.4361 0.8653
0.7200 0.4494 0.8794
0.7400 0.4627 0.8696
0.7600 0.4761 0.8604
0.7800 0.4894 0.8715
0.8000 0.5027 0.8671
0.8200 0.5160 0.8591
0.8400 0.5294 0.8677
0.8600 0.5427 0.8583
0.8800 0.5560 0.8568
0.9000 0.5693 0.8627
0.9200 0.5826 0.8546
0.9400 0.5960 0.8509
0.9600 0.6093 0.8586
0.9800 0.6226 0.8531
1.0000 0.6360 0.8486
1.0200 0.6494 0.8527
1.0400 0.6627 0.8455
1.0600 0.6761 0.8391
1.0800 0.6894 0.8491
1.1000 0.7027 0.8412
1.1200 0.7161 0.8360
1.1400 0.7294 0.8401
1.1600 0.7427 0.8360
1.1800 0.7560 0.8299
1.2000 0.7693 0.8359
1.2200 0.7827 0.8295
1.2400 0.7960 0.8172
1.2600 0.8093 0.8384
1.2800 0.8226 0.8230
1.3000 0.8360 0.8112
1.3200 0.8493 0.8269
1.3400 0.8627 0.8173
1.3600 0.8760 0.8048
1.3800 0.8894 0.8245
1.4000 0.9027 0.8133
1.4200 0.9160 0.8034
1.4400 0.9294 0.8152
1.4600 0.9427 0.8041
1.4800 0.9561 0.8007
1.5000 0.9694 0.8131
1.5200 0.9827 0.7954
1.5400 0.9960 0.7994
1.5600 1.0093 0.8077
1.5800 1.0227 0.7966
1.6000 1.0360 0.7942
1.6200 1.0493 0.8010
1.6400 1.0626 0.7963
1.6600 1.0760 0.7856
1.6800 1.0893 0.7903
1.7000 1.1027 0.7892
1.7200 1.1160 0.7874
1.7400 1.1294 0.7900
1.7600 1.1428 0.7940
1.7800 1.1561 0.7863
1.8000 1.1694 0.7826
1.8200 1.1827 0.7830
1.8400 1.1961 0.7739
1.8600 1.2094 0.7792
1.8800 1.2227 0.7813
1.9000 1.2360 0.7691
1.9200 1.2493 0.7689
1.9400 1.2627 0.7710
1.9600 1.2760 0.7700
1.9800 1.2893 0.7663
2.0000 1.3026 0.7646
2.0200 1.3160 0.7649
2.0400 1.3293 0.7620
2.0600 1.3427 0.7568
2.0800 1.3560 0.7570
2.1000 1.3694 0.7590
2.1200 1.3828 0.7586
2.1400 1.3961 0.7444
2.1600 1.4094 0.7529
2.1800 1.4227 0.7490
2.2000 1.4361 0.7469
2.2200 1.4494 0.7490
2.2400 1.4627 0.7420
2.2600 1.4760 0.7427
2.2800 1.4893 0.7478
2.3000 1.5026 0.7359
2.3200 1.5160 0.7396
2.3400 1.5293 0.7435
2.3600 1.5427 0.7324
2.3800 1.5560 0.7380
2.4000 1.5694 0.7352
2.4200 1.5827 0.7288
2.4400 1.5960 0.7379
2.4600 1.6094 0.7400
2.4800 1.6227 0.7175
2.5000 1.6360 0.7388
2.5200 1.6493 0.7282
2.5400 1.6627 0.7165
2.5600 1.6760 0.7309
2.5800 1.6894 0.7227
2.6000 1.7027 0.7214
2.6200 1.7161 0.7275
2.6400 1.7294 0.7113
2.6600 1.7427 0.7210
2.6800 1.7561 0.7201
2.7000 1.7693 0.7072
2.7200 1.7827 0.7164
2.7400 1.7960 0.7133
2.7600 1.8093 0.6999
2.7800 1.8227 0.7167
2.8000 1.8360 0.7067
2.8200 1.8493 0.6956
2.8400 1.8627 0.7121
2.8600 1.8761 0.7021
2.8800 1.8894 0.6894
2.9000 1.9027 0.7089
2.9200 1.9161 0.7009
2.9400 1.9294 0.6939
2.9600 1.9427 0.7049
2.9800 1.9560 0.6902
3.0000 1.9694 0.6903
3.0200 1.9827 0.7014
3.0400 1.9960 0.6817
3.0600 2.0093 0.6834
3.0800 2.0226 0.7000
3.1000 2.0360 0.6802
3.1200 2.0493 0.6823
3.1400 2.0627 0.6909
3.1600 2.0760 0.6772
3.1800 2.0894 0.6789
3.2000 2.1028 0.6847
3.2200 2.1161 0.6749
3.2400 2.1294 0.6774
3.2600 2.1427 0.6786
3.2800 2.1561 0.6716
3.3000 2.1694 0.6710
3.3200 2.1827 0.6740
3.3400 2.1960 0.6698
3.3600 2.2093 0.6693
3.3800 2.2227 0.6656
3.4000 2.2360 0.6672
3.4200 2.2493 0.6666
3.4400 2.2626 0.6585
3.4600 2.2760 0.6652
3.4800 2.2894 0.6598
3.5000 2.3027 0.6586
3.5200 2.3160 0.6612
3.5400 2.3294 0.6558
3.5600 2.3427 0.6478
3.5800 2.3561 0.6592
3.6000 2.3694 0.6540
3.6200 2.3827 0.6472
3.6400 2.3961 0.6562
3.6600 2.4094 0.6431
3.6800 2.4228 0.6429
3.7000 2.4360 0.6550
3.7200 2.4494 0.6406
3.7400 2.4627 0.6458
3.7600 2.4760 0.6485
3.7800 2.4893 0.6343
3.8000 2.5026 0.6365
3.8200 2.5159 0.6488
3.8400 2.5293 0.6304
3.8600 2.5426 0.6390
3.8800 2.5560 0.6425
3.9000 2.5693 0.6294
3.9200 2.5827 0.6314
3.9400 2.5961 0.6389
3.9600 2.6094 0.6265
3.9800 2.6227 0.6304
4.0000 2.6360 0.6369
4.0200 2.6494 0.6161
4.0400 2.6627 0.6280
4.0600 2.6760 0.6366
4.0800 2.6894 0.6173
4.1000 2.7027 0.6230
4.1200 2.7160 0.6325
4.1400 2.7293 0.6090
4.1600 2.7426 0.6188
4.1800 2.7560 0.6256
4.2000 2.7693 0.6052
4.2200 2.7826 0.6200
4.2400 2.7960 0.6203
4.2600 2.8093 0.5992
4.2800 2.8227 0.6185
4.3000 2.8361 0.6108
4.3200 2.8494 0.6010
4.3400 2.8627 0.6107
4.3600 2.8761 0.6082
4.3800 2.8894 0.5970
4.4000 2.9027 0.6030
4.4200 2.9160 0.6064
4.4400 2.9293 0.5981
4.4600 2.9427 0.6012
4.4800 2.9560 0.6011
4.5000 2.9693 0.5945
4.5200 2.9826 0.6005
4.5400 2.9960 0.5980
4.5600 3.0093 0.5949
4.5800 3.0227 0.5895
4.6000 3.0360 0.5989
4.6200 3.0493 0.5889
4.6400 3.0627 0.5843
4.6600 3.0760 0.5973
4.6800 3.0894 0.5835
4.7000 3.1027 0.5832
4.7200 3.1160 0.5929
4.7400 3.1294 0.5810
4.7600 3.1428 0.5790
4.7800 3.1561 0.5922
4.8000 3.1694 0.5753
4.8200 3.1827 0.5756
4.8400 3.1961 0.5886
4.8600 3.2094 0.5708
4.8800 3.2227 0.5792
4.9000 3.2360 0.5872
4.9200 3.2493 0.5602
4.9400 3.2626 0.5768
4.9600 3.2760 0.5782
4.9800 3.2893 0.5677
5.0000 3.3027 0.5704
5.0200 3.3161 0.5684
5.0400 3.3295 0.5583
5.0600 3.3428 0.5710
5.0800 3.3561 0.5656
5.1000 3.3694 0.5578
5.1200 3.3828 0.5675
5.1400 3.3960 0.5600
5.1600 3.4093 0.5586
5.1800 3.4227 0.5622
5.2000 3.4360 0.5577
5.2200 3.4493 0.5590
5.2400 3.4626 0.5570
5.2600 3.4759 0.5531
5.2800 3.4893 0.5604
5.3000 3.5026 0.5498
5.3200 3.5160 0.5508
5.3400 3.5293 0.5541
5.3600 3.5427 0.5436
5.3800 3.5561 0.5514
5.4000 3.5694 0.5520
5.4200 3.5828 0.5348
5.4400 3.5961 0.5498
5.4600 3.6094 0.5488
5.4800 3.6228 0.5354
5.5000 3.6360 0.5503
5.5200 3.6493 0.5387
5.5400 3.6627 0.5311
5.5600 3.6760 0.5439
5.5800 3.6893 0.5381
5.6000 3.7026 0.5394
5.6200 3.7160 0.5414
5.6400 3.7293 0.5296
5.6600 3.7427 0.5276
5.6800 3.7560 0.5399
5.7000 3.7693 0.5298
5.7200 3.7827 0.5324
5.7400 3.7961 0.5313
5.7600 3.8094 0.5238
5.7800 3.8227 0.5302
5.8000 3.8361 0.5274
5.8200 3.8494 0.5242
5.8400 3.8628 0.5307
5.8600 3.8761 0.5203
5.8800 3.8894 0.5182
5.9000 3.9027 0.5276
5.9200 3.9161 0.5113
5.9400 3.9294 0.5202
5.9600 3.9426 0.5247
5.9800 3.9560 0.5099
6.0000 3.9693 0.5128
6.0200 3.9827 0.5139
6.0400 3.9960 0.5046
6.0600 4.0094 0.5158
6.0800 4.0227 0.5084
6.1000 4.0361 0.5019
6.1200 4.0494 0.5119
6.1400 4.0627 0.5097
6.1600 4.0761 0.4961
6.1800 4.0894 0.5099
6.2000 4.1027 0.5023
6.2200 4.1160 0.4914
6.2400 4.1293 0.5081
6.2600 4.1427 0.4933
6.2800 4.1560 0.4916
6.3000 4.1693 0.5051
6.3200 4.1826 0.4882
6.3400 4.1960 0.4932
6.3600 4.2093 0.5019
6.3800 4.2227 0.4821
6.4000 4.2360 0.4900
6.4200 4.2493 0.5011
6.4400 4.2627 0.4844
6.4600 4.2761 0.4843
6.4800 4.2894 0.4994
6.5000 4.3027 0.4791
6.5200 4.3161 0.4864
6.5400 4.3294 0.4927
6.5600 4.3428 0.4768
6.5800 4.3561 0.4880
6.6000 4.3694 0.4913
6.6200 4.3827 0.4716
6.6400 4.3960 0.4830
6.6600 4.4093 0.4878
6.6800 4.4226 0.4733
6.7000 4.4360 0.4758
6.7200 4.4493 0.4842
6.7400 4.4627 0.4691
6.7600 4.4760 0.4755
6.7800 4.4893 0.4741
6.8000 4.5027 0.4716
6.8200 4.5161 0.4696
6.8400 4.5294 0.4694
6.8600 4.5427 0.4682
6.8800 4.5560 0.4665
6.9000 4.5694 0.4738
6.9200 4.5827 0.4660
6.9400 4.5960 0.4622
6.9600 4.6094 0.4717
6.9800 4.6227 0.4630
7.0000 4.6360 0.4599
7.0200 4.6494 0.4659
7.0400 4.6626 0.4627
7.0600 4.6759 0.4539
7.0800 4.6893 0.4662
7.1000 4.7026 0.4629
7.1200 4.7160 0.4477
7.1400 4.7293 0.4642
7.1600 4.7427 0.4553
7.1800 4.7561 0.4435
7.2000 4.7695 0.4578
7.2200 4.7828 0.4523
7.2400 4.7961 0.4411
7.2600 4.8094 0.4639
7.2800 4.8228 0.4453
7.3000 4.8361 0.4372
7.3200 4.8493 0.4574
7.3400 4.8626 0.4454
7.3600 4.8760 0.4364
7.3800 4.8893 0.4551
7.4000 4.9026 0.4363
7.4200 4.9160 0.4315
7.4400 4.9294 0.4514
7.4600 4.9427 0.4333
7.4800 4.9561 0.4273
7.5000 4.9694 0.4517
7.5200 4.9827 0.4311
7.5400 4.9961 0.4231
7.5600 5.0094 0.4372
7.5800 5.0228 0.4150
7.6000 5.0361 0.4138
7.6200 5.0494 0.4237
7.6400 5.0627 0.4123
7.6600 5.0760 0.4077
7.6800 5.0893 0.4244
7.7000 5.1026 0.4105
7.7200 5.1160 0.4095
7.7400 5.1293 0.4141
7.7600 5.1426 0.4081
7.7800 5.1560 0.4024
7.8000 5.1693 0.4167
7.8200 5.1827 0.4013
7.8400 5.1960 0.3998
7.8600 5.2093 0.4120
7.8800 5.2227 0.4037
7.9000 5.2361 0.3945
7.9200 5.2494 0.4079
7.9400 5.2627 0.3952
7.9600 5.2760 0.3922
7.9800 5.2894 0.4066
8.0000 5.3028 0.3957
8.0200 5.3161 0.3897
8.0400 5.3294 0.4039
8.0600 5.3427 0.3941
8.0800 5.3560 0.3884
8.1000 5.3694 0.4010
8.1200 5.3826 0.3875
8.1400 5.3960 0.3876
8.1600 5.4093 0.3930
8.1800 5.4227 0.3827
8.2000 5.4360 0.3892
8.2200 5.4493 0.3930
8.2400 5.4627 0.3821
8.2600 5.4761 0.3831
8.2800 5.4894 0.3839
8.3000 5.5028 0.3831
8.3200 5.5161 0.3822
8.3400 5.5294 0.3865
8.3600 5.5427 0.3746
8.3800 5.5560 0.3733
8.4000 5.5693 0.3819
8.4200 5.5827 0.3756
8.4400 5.5960 0.3716
8.4600 5.6094 0.3831
8.4800 5.6227 0.3712
8.5000 5.6360 0.3700
8.5200 5.6493 0.3746
8.5400 5.6627 0.3695
8.5600 5.6760 0.3696
8.5800 5.6893 0.3699
8.6000 5.7027 0.3684
8.6200 5.7161 0.3678
8.6400 5.7294 0.3684
8.6600 5.7427 0.3661
8.6800 5.7560 0.3704
8.7000 5.7694 0.3630
8.7200 5.7828 0.3644
8.7400 5.7961 0.3690
8.7600 5.8094 0.3629
8.7800 5.8227 0.3646
8.8000 5.8360 0.3646
8.8200 5.8493 0.3577
8.8400 5.8626 0.3649
8.8600 5.8760 0.3562
8.8800 5.8893 0.3597
8.9000 5.9027 0.3604
8.9200 5.9160 0.3565
8.9400 5.9294 0.3531
8.9600 5.9427 0.3613
8.9800 5.9561 0.3486
9.0000 5.9694 0.3501
9.0200 5.9827 0.3601
9.0400 5.9961 0.3513
9.0600 6.0094 0.3472
9.0800 6.0228 0.3537
9.1000 6.0361 0.3407
9.1200 6.0494 0.3474
9.1400 6.0626 0.3537
9.1600 6.0760 0.3425
9.1800 6.0893 0.3407
9.2000 6.1026 0.3444
9.2200 6.1160 0.3397
9.2400 6.1293 0.3404
9.2600 6.1426 0.3380
9.2800 6.1560 0.3336
9.3000 6.1693 0.3450
9.3200 6.1827 0.3305
9.3400 6.1960 0.3297
9.3600 6.2094 0.3373
9.3800 6.2227 0.3297
9.4000 6.2361 0.3316
9.4200 6.2494 0.3304
9.4400 6.2628 0.3257
9.4600 6.2761 0.3335
9.4800 6.2893 0.3256
9.5000 6.3026 0.3220
9.5200 6.3160 0.3319
9.5400 6.3293 0.3290
9.5600 6.3427 0.3119
9.5800 6.3560 0.3272
9.6000 6.3693 0.3212
9.6200 6.3827 0.3181
9.6400 6.3960 0.3246
9.6600 6.4094 0.3113
9.6800 6.4227 0.3186
9.7000 6.4361 0.3212
9.7200 6.4494 0.3087
9.7400 6.4627 0.3187
9.7600 6.4760 0.3197
9.7800 6.4894 0.3059
9.8000 6.5027 0.3142
9.8200 6.5161 0.3156
9.8400 6.5294 0.3034
9.8600 6.5427 0.3119
9.8800 6.5560 0.3097
9.9000 6.5694 0.2993
9.9200 6.5827 0.3173
9.9400 6.5960 0.3034
9.9600 6.6093 0.3016
9.9800 6.6227 0.3088
10.0000 6.6360 0.2990
10.0200 6.6493 0.3013
10.0400 6.6627 0.3085
10.0600 6.6760 0.2912
10.0800 6.6894 0.2969
10.1000 6.7027 0.3017
10.1200 6.7160 0.2971
10.1400 6.7294 0.2959
10.1600 6.7427 0.2979
10.1800 6.7561 0.2905
10.2000 6.7694 0.2953
10.2200 6.7827 0.2930
10.2400 6.7960 0.2933
10.2600 6.8094 0.2941
10.2800 6.8227 0.2848
10.3000 6.8360 0.2848
10.3200 6.8493 0.2977
10.3400 6.8627 0.2827
10.3600 6.8760 0.2856
10.3800 6.8893 0.2910
10.4000 6.9027 0.2755
10.4200 6.9160 0.2897
10.4400 6.9294 0.2877
10.4600 6.9427 0.2728
10.4800 6.9561 0.2873
10.5000 6.9694 0.2884
10.5200 6.9827 0.2692
10.5400 6.9961 0.2875
10.5600 7.0094 0.2790
10.5800 7.0227 0.2704
10.6000 7.0360 0.2883
10.6200 7.0494 0.2730
10.6400 7.0627 0.2677
10.6600 7.0760 0.2898
10.6800 7.0893 0.2668
10.7000 7.1027 0.2715
10.7200 7.1160 0.2841
10.7400 7.1294 0.2624
10.7600 7.1427 0.2691
10.7800 7.1560 0.2823
10.8000 7.1694 0.2556
10.8200 7.1827 0.2717
10.8400 7.1960 0.2780
10.8600 7.2094 0.2505
10.8800 7.2228 0.2736
10.9000 7.2361 0.2705
10.9200 7.2494 0.2516
10.9400 7.2627 0.2732
10.9600 7.2760 0.2653
10.9800 7.2894 0.2518
11.0000 7.3027 0.2673
11.0200 7.3160 0.2611
11.0400 7.3293 0.2517
11.0600 7.3426 0.2641
11.0800 7.3560 0.2631
11.1000 7.3693 0.2482
11.1200 7.3827 0.2591
11.1400 7.3961 0.2573
11.1600 7.4094 0.2489
11.1800 7.4228 0.2541
11.2000 7.4361 0.2582
11.2200 7.4494 0.2464
11.2400 7.4627 0.2502
11.2600 7.4761 0.2557
11.2800 7.4894 0.2451
11.3000 7.5027 0.2468
11.3200 7.5160 0.2590
11.3400 7.5294 0.2354
11.3600 7.5427 0.2446
11.3800 7.5560 0.2541
11.4000 7.5693 0.2386
11.4200 7.5827 0.2395
11.4400 7.5960 0.2523
11.4600 7.6093 0.2373
11.4800 7.6227 0.2364
11.5000 7.6360 0.2479
11.5200 7.6494 0.2325
11.5400 7.6627 0.2366
11.5600 7.6761 0.2448
11.5800 7.6894 0.2265
11.6000 7.7028 0.2382
11.6200 7.7161 0.2413
11.6400 7.7294 0.2183
11.6600 7.7427 0.2408
11.6800 7.7560 0.2389
11.7000 7.7693 0.2161
11.7200 7.7827 0.2337
11.7400 7.7960 0.2388
11.7600 7.8093 0.2156
11.7800 7.8227 0.2331
11.8000 7.8360 0.2305
11.8200 7.8493 0.2199
11.8400 7.8627 0.2280
11.8600 7.8760 0.2229
11.8800 7.8894 0.2093
11.9000 7.9027 0.2245
11.9200 7.9160 0.2220
11.9400 7.9294 0.2147
11.9600 7.9427 0.2153
11.9800 7.9561 0.2212
12.0000 7.9694 0.2182
12.0200 7.9827 0.2140
12.0400 7.9960 0.2138
12.0600 8.0094 0.2121
12.0800 8.0227 0.2157
12.1000 8.0360 0.2115
12.1200 8.0493 0.2088
12.1400 8.0626 0.2100
12.1600 8.0759 0.2081
12.1800 8.0893 0.2030
12.2000 8.1026 0.2134
12.2200 8.1160 0.2124
12.2400 8.1294 0.2000
12.2600 8.1428 0.1982
12.2800 8.1561 0.2137
12.3000 8.1694 0.2091
12.3200 8.1828 0.2062
12.3400 8.1961 0.1962
12.3600 8.2094 0.1986
12.3800 8.2227 0.2024
12.4000 8.2360 0.2092
12.4200 8.2493 0.2004
12.4400 8.2627 0.1928
12.4600 8.2760 0.1990
12.4800 8.2893 0.1991
12.5000 8.3026 0.1964
12.5200 8.3160 0.2004
12.5400 8.3293 0.1957
12.5600 8.3427 0.1853
12.5800 8.3560 0.1935
12.6000 8.3694 0.1987
12.6200 8.3828 0.1871
12.6400 8.3961 0.1879
12.6600 8.4094 0.1876
12.6800 8.4228 0.1849
12.7000 8.4361 0.1922
12.7200 8.4494 0.1923
12.7400 8.4627 0.1824
12.7600 8.4760 0.1797
12.7800 8.4893 0.1904
12.8000 8.5027 0.1882
12.8200 8.5160 0.1868
12.8400 8.5293 0.1769
12.8600 8.5426 0.1872
12.8800 8.5560 0.1821
12.9000 8.5694 0.1742
12.9200 8.5827 0.1771
12.9400 8.5960 0.1801
12.9600 8.6094 0.1857
12.9800 8.6228 0.1809
13.0000 8.6361 0.1578
13.0200 8.6494 0.1775
13.0400 8.6627 0.1885
13.0600 8.6761 0.1748
13.0800 8.6894 0.1731
13.1000 8.7027 0.1733
13.1200 8.7160 0.1545
13.1400 8.7294 0.1753
13.1600 8.7427 0.1905
13.1800 8.7560 0.1634
13.2000 8.7693 0.1597
13.2200 8.7826 0.1666
13.2400 8.7960 0.1605
13.2600 8.8094 0.1804
13.2800 8.8227 0.1802
13.3000 8.8361 0.1445
13.3200 8.8494 0.1542
13.3400 8.8628 0.1670
13.3600 8.8761 0.1673
13.3800 8.8894 0.1709
13.4000 8.9027 0.1561
13.4200 8.9161 0.1406
13.4400 8.9294 0.1748
13.4600 8.9427 0.1676
13.4800 8.9560 0.1492
13.5000 8.9693 0.1661
13.5200 8.9827 0.1530
13.5400 8.9960 0.1498
13.5600 9.0093 0.1677
13.5800 9.0226 0.1486
13.6000 9.0360 0.1466
13.6200 9.0493 0.1588
13.6400 9.0626 0.1562
13.6600 9.0760 0.1482
13.6800 9.0894 0.1549
13.7000 9.1028 0.1372
13.7200 9.1161 0.1447
13.7400 9.1294 0.1640
13.7600 9.1428 0.1440
13.7800 9.1561 0.1340
13.8000 9.1694 0.1503
13.8200 9.1827 0.1457
13.8400 9.1960 0.1396
13.8600 9.2093 0.1511
13.8800 9.2227 0.1339
13.9000 9.2360 0.1425
13.9200 9.2493 0.1508
13.9400 9.2626 0.1309
13.9600 9.2760 0.1380
13.9800 9.2894 0.1456
14.0000 9.3027 0.1326
14.0200 9.3160 0.1355
14.0400 9.3294 0.1362
14.0600 9.3427 0.1299
14.0800 9.3560 0.1316
14.1000 9.3694 0.1412
14.1200 9.3827 0.1351
14.1400 9.3961 0.1279
14.1600 9.4094 0.1265
14.1800 9.4227 0.1307
14.2000 9.4360 0.1283
14.2200 9.4494 0.1370
14.2400 9.4627 0.1242
14.2600 9.4760 0.1195
14.2800 9.4893 0.1315
14.3000 9.5026 0.1303
14.3200 9.5160 0.1162
14.3400 9.5293 0.1288
14.3600 9.5426 0.1249
14.3800 9.5560 0.1144
14.4000 9.5694 0.1299
14.4200 9.5828 0.1177
14.4400 9.5961 0.1163
14.4600 9.6094 0.1294
14.4800 9.6228 0.1065
14.5000 9.6361 0.1147
14.5200 9.6494 0.1310
14.5400 9.6627 0.1098
14.5600 9.6760 0.1166
14.5800 9.6893 0.1221
14.6000 9.7026 0.1051
14.6200 9.7160 0.1118
14.6400 9.7293 0.1240
14.6600 9.7427 0.0993
14.6800 9.7560 0.1116
14.7000 9.7694 0.1136
14.7200 9.7827 0.1015
14.7400 9.7960 0.1097
14.7600 9.8094 0.1068
14.7800 9.8228 0.0961
14.8000 9.8361 0.1096
14.8200 9.8494 0.1015
14.8400 9.8627 0.0989
14.8600 9.8761 0.1047
14.8800 9.8894 0.0925
14.9000 9.9027 0.1027
14.9200 9.9160 0.1091
14.9400 9.9293 0.0932
14.9600 9.9427 0.0960
14.9800 9.9560 0.0995
15.0000 9.9693 0.0964
15.0200 9.9826 0.1004
15.0400 9.9960 0.0948
15.0600 10.0093 0.0915
15.0800 10.0227 0.0960
15.1000 10.0360 0.0944
15.1200 10.0494 0.0917
15.1400 10.0627 0.0967
15.1600 10.0761 0.0862
15.1800 10.0894 0.0969
15.2000 10.1027 0.0976
15.2200 10.1161 0.0899
15.2400 10.1294 0.0815
15.2600 10.1427 0.0962
15.2800 10.1560 0.0897
15.3000 10.1694 0.0911
15.3200 10.1827 0.0909
15.3400 10.1960 0.0818
15.3600 10.2093 0.0892
15.3800 10.2226 0.0889
15.4000 10.2360 0.0805
15.4200 10.2493 0.0889
15.4400 10.2627 0.0868
15.4600 10.2760 0.0781
15.4800 10.2894 0.0837
15.5000 10.3028 0.0866
15.5200 10.3161 0.0706
15.5400 10.3294 0.0788
15.5600 10.3428 0.0862
15.5800 10.3561 0.0751
15.6000 10.3694 0.0752
15.6200 10.3827 0.0743
15.6400 10.3960 0.0753
15.6600 10.4093 0.0742
15.6800 10.4227 0.0754
15.7000 10.4360 0.0732
15.7200 10.4493 0.0725
15.7400 10.4626 0.0662
15.7600 10.4760 0.0697
15.7800 10.4893 0.0752
15.8000 10.5027 0.0716
15.8200 10.5160 0.0640
15.8400 10.5293 0.0632
15.8600 10.5427 0.0687
15.8800 10.5560 0.0716
15.9000 10.5694 0.0551
15.9200 10.5827 0.0662
15.9400 10.5961 0.0639
15.9600 10.6094 0.0567
15.9800 10.6227 0.0669
16.0000 10.6360 0.0626
16.0200 10.6494 0.0538
16.0400 10.6627 0.0566
16.0600 10.6760 0.0621
16.0800 10.6893 0.0598
16.1000 10.7026 0.0560
16.1200 10.7160 0.0552
16.1400 10.7293 0.0587
16.1600 10.7427 0.0566
16.1800 10.7560 0.0525
16.2000 10.7694 0.0569
16.2200 10.7828 0.0552
16.2400 10.7961 0.0449
16.2600 10.8094 0.0567
16.2800 10.8227 0.0582
16.3000 10.8361 0.0482
16.3200 10.8494 0.0508
16.3400 10.8627 0.0539
16.3600 10.8760 0.0432
16.3800 10.8893 0.0514
16.4000 10.9027 0.0502
16.4200 10.9160 0.0431
16.4400 10.9293 0.0389
16.4600 10.9426 0.0552
16.4800 10.9560 0.0389
16.5000 10.9693 0.0413
16.5200 10.9827 0.0434
16.5400 10.9960 0.0433
16.5600 11.0094 0.0427
16.5800 11.0227 0.0354
16.6000 11.0361 0.0384
16.6200 11.0494 0.0350
16.6400 11.0627 0.0328
16.6600 11.0761 0.0389
16.6800 11.0894 0.0458
16.7000 11.1027 0.0264
16.7200 11.1160 0.0294
16.7400 11.1293 0.0381
16.7600 11.1426 0.0311
16.7800 11.1560 0.0334
16.8000 11.1693 0.0326
16.8200 11.1826 0.0244
16.8400 11.1960 0.0317
16.8600 11.2094 0.0256
16.8800 11.2227 0.0333
16.9000 11.2360 0.0332
16.9200 11.2494 0.0185
16.9400 11.2627 0.0202
16.9600 11.2761 0.0331
16.9800 11.2894 0.0266
17.0000 11.3027 0.0198
17.0200 11.3160 0.0213
17.0400 11.3294 0.0141
17.0600 11.3427 0.0103
17.0800 11.3561 0.0334
17.1000 11.3694 0.0250
17.1200 11.3827 0.0103
17.1400 11.3961 0.0092
17.1600 11.4094 0.0252
17.1800 11.4227 0.0178
17.2000 11.4360 0.0162
17.2200 11.4493 0.0191
17.2400 11.4627 0.0090
17.2600 11.4760 0.0123
17.2800 11.4893 0.0114
17.3000 11.5027 0.0199
17.3200 11.5161 0.0224
17.3400 11.5294 0.0021
17.3600 11.5427 -0.0005
17.3800 11.5560 0.0277
17.4000 11.5694 0.0163
17.4200 11.5827 -0.0032
17.4400 11.5960 0.0145
17.4600 11.6094 0.0123
17.4800 11.6227 -0.0016
17.5000 11.6361 0.0211
17.5200 11.6494 0.0077
17.5400 11.6626 0.0009
17.5600 11.6760 0.0071
17.5800 11.6893 0.0025
17.6000 11.7027 0.0052
17.6200 11.7160 0.0142
17.6400 11.7293 -0.0148
17.6600 11.7427 0.0015
17.6800 11.7561 0.0171
17.7000 11.7694 -0.0145
17.7200 11.7827 -0.0024
17.7400 11.7961 0.0208
17.7600 11.8094 -0.0183
17.7800 11.8227 -0.0058
17.8000 11.8360 0.0184
17.8200 11.8493 -0.0209
17.8400 11.8627 -0.0095
17.8600 11.8760 0.0100
17.8800 11.8893 -0.0119
17.9000 11.9026 -0.0124
17.9200 11.9160 -0.0023
17.9400 11.9294 -0.0197
17.9600 11.9427 -0.0020
17.9800 11.9560 0.0022
18.0000 11.9694 -0.0220
18.0200 11.9827 -0.0159
18.0400 11.9960 -0.0111
18.0600 12.0094 -0.0141
18.0800 12.0227 -0.0026
18.1000 12.0360 -0.0196
18.1200 12.0494 -0.0302
18.1400 12.0627 -0.0117
18.1600 12.0760 -0.0139
18.1800 12.0894 -0.0215
18.2000 12.1027 -0.0111
18.2200 12.1160 -0.0204
18.2400 12.1293 -0.0259
18.2600 12.1426 -0.0149
18.2800 12.1560 -0.0152
18.3000 12.1693 -0.0201
18.3200 12.1827 -0.0208
18.3400 12.1960 -0.0279
18.3600 12.2094 -0.0226
18.3800 12.2227 -0.0180
18.4000 12.2361 -0.0309
18.4200 12.2494 -0.0314
18.4400 12.2627 -0.0185
18.4600 12.2761 -0.0272
18.4800 12.2894 -0.0358
18.5000 12.3027 -0.0251
18.5200 12.3160 -0.0271
18.5400 12.3293 -0.0333
18.5600 12.3427 -0.0338
18.5800 12.3560 -0.0268
18.6000 12.3694 -0.0409
18.6200 12.3827 -0.0321
18.6400 12.3960 -0.0296
18.6600 12.4093 -0.0406
18.6800 12.4227 -0.0353
18.7000 12.4360 -0.0304
18.7200 12.4493 -0.0462
18.7400 12.4627 -0.0417
18.7600 12.4761 -0.0314
18.7800 12.4894 -0.0449
18.8000 12.5027 -0.0441
18.8200 12.5160 -0.0409
18.8400 12.5294 -0.0512
18.8600 12.5427 -0.0375
18.8800 12.5560 -0.0361
18.9000 12.5693 -0.0541
18.9200 12.5827 -0.0487
18.9400 12.5960 -0.0384
18.9600 12.6093 -0.0540
18.9800 12.6226 -0.0460
19.0000 12.6360 -0.0356
19.0200 12.6493 -0.0581
19.0400 12.6627 -0.0545
19.0600 12.6760 -0.0443
19.0800 12.6893 -0.0545
19.1000 12.7027 -0.0523
19.1200 12.7160 -0.0458
19.1400 12.7294 -0.0648
19.1600 12.7427 -0.0495
19.1800 12.7560 -0.0460
19.2000 12.7694 -0.0654
19.2200 12.7827 -0.0608
19.2400 12.7960 -0.0436
19.2600 12.8094 -0.0630
19.2800 12.8227 -0.0580
19.3000 12.8361 -0.0511
19.3200 12.8494 -0.0639
19.3400 12.8627 -0.0580
19.3600 12.8760 -0.0485
19.3800 12.8893 -0.0698
19.4000 12.9026 -0.0598
19.4200 12.9160 -0.0507
19.4400 12.9293 -0.0704
19.4600 12.9427 -0.0646
19.4800 12.9561 -0.0550
19.5000 12.9694 -0.0729
19.5200 12.9828 -0.0583
19.5400 12.9961 -0.0567
19.5600 13.0094 -0.0779
19.5800 13.0228 -0.0584
19.6000 13.0361 -0.0656
19.6200 13.0494 -0.0842
19.6400 13.0627 -0.0533
19.6600 13.0760 -0.0655
19.6800 13.0893 -0.0850
19.7000 13.1026 -0.0581
19.7200 13.1159 -0.0663
19.7400 13.1293 -0.0770
19.7600 13.1426 -0.0652
19.7800 13.1560 -0.0747
19.8000 13.1693 -0.0771
19.8200 13.1827 -0.0586
19.8400 13.1961 -0.0781
19.8600 13.2094 -0.0771
19.8800 13.2227 -0.0692
19.9000 13.2361 -0.0778
19.9200 13.2494 -0.0732
19.9400 13.2628 -0.0699
19.9600 13.2761 -0.0876
19.9800 13.2894 -0.0720
20.0000 13.3027 -0.0749
20.0200 13.3160 -0.0825
20.0400 13.3293 -0.0756
20.0600 13.3426 -0.0774
20.0800 13.3560 -0.0894
20.1000 13.3693 -0.0827
20.1200 13.3827 -0.0817
20.1400 13.3960 -0.0831
20.1600 13.4094 -0.0865
20.1800 13.4227 -0.0877
20.2000 13.4361 -0.0843
20.2200 13.4494 -0.0889
20.2400 13.4627 -0.0896
20.2600 13.4760 -0.0860
20.2800 13.4894 -0.0861
20.3000 13.5028 -0.0905
20.3200 13.5161 -0.0889
20.3400 13.5294 -0.0920
20.3600 13.5427 -0.0918
20.3800 13.5560 -0.0931
20.4000 13.5694 -0.0942
20.4200 13.5826 -0.0949
20.4400 13.5959 -0.0928
20.4600 13.6093 -0.1068
20.4800 13.6227 -0.0912
20.5000 13.6360 -0.0996
20.5200 13.6493 -0.1028
20.5400 13.6627 -0.0948
20.5600 13.6761 -0.1060
20.5800 13.6894 -0.1083
20.6000 13.7028 -0.0979
20.6200 13.7161 -0.1021
20.6400 13.7294 -0.1087
20.6600 13.7427 -0.1032
20.6800 13.7560 -0.1123
20.7000 13.7693 -0.1063
20.7200 13.7827 -0.0970
20.7400 13.7960 -0.1178
20.7600 13.8094 -0.1063
20.7800 13.8227 -0.0995
20.8000 13.8360 -0.1208
20.8200 13.8493 -0.1069
20.8400 13.8627 -0.1056
20.8600 13.8760 -0.1241
20.8800 13.8893 -0.1051
20.9000 13.9027 -0.1084
20.9200 13.9161 -0.1259
20.9400 13.9294 -0.1041
20.9600 13.9427 -0.1155
20.9800 13.9561 -0.1270
21.0000 13.9695 -0.1022
21.0200 13.9828 -0.1185
21.0400 13.9961 -0.1289
21.0600 14.0094 -0.1088
21.0800 14.0227 -0.1300
21.1000 14.0360 -0.1240
21.1200 14.0493 -0.1124
21.1400 14.0627 -0.1320
21.1600 14.0760 -0.1318
21.1800 14.0893 -0.1092
21.2000 14.1027 -0.1372
21.2200 14.1160 -0.1300
21.2400 14.1293 -0.1176
21.2600 14.1427 -0.1405
21.2800 14.1561 -0.1278
21.3000 14.1694 -0.1280
21.3200 14.1827 -0.1414
21.3400 14.1960 -0.1255
21.3600 14.2094 -0.1227
21.3800 14.2227 -0.1478
21.4000 14.2361 -0.1312
21.4200 14.2494 -0.1253
21.4400 14.2627 -0.1414
21.4600 14.2761 -0.1386
21.4800 14.2894 -0.1296
21.5000 14.3027 -0.1433
21.5200 14.3159 -0.1322
21.5400 14.3293 -0.1414
21.5600 14.3426 -0.1398
21.5800 14.3559 -0.1423
21.6000 14.3693 -0.1424
21.6200 14.3827 -0.1359
21.6400 14.3961 -0.1489
21.6600 14.4094 -0.1416
21.6800 14.4228 -0.1391
21.7000 14.4361 -0.1559
21.7200 14.4494 -0.1373
21.7400 14.4628 -0.1380
21.7600 14.4760 -0.1607
21.7800 14.4893 -0.1408
21.8000 14.5026 -0.1431
21.8200 14.5160 -0.1627
21.8400 14.5293 -0.1381
21.8600 14.5426 -0.1478
21.8800 14.5560 -0.1656
21.9000 14.5693 -0.1390
21.9200 14.5827 -0.1534
21.9400 14.5960 -0.1602
21.9600 14.6094 -0.1417
21.9800 14.6227 -0.1590
22.0000 14.6361 -0.1624
22.0200 14.6494 -0.1371
22.0400 14.6627 -0.1667
22.0600 14.6760 -0.1598
22.0800 14.6894 -0.1432
22.1000 14.7027 -0.1686
22.1200 14.7160 -0.1607
22.1400 14.7293 -0.1414
22.1600 14.7427 -0.1713
22.1800 14.7560 -0.1567
22.2000 14.7694 -0.1475
22.2200 14.7827 -0.1745
22.2400 14.7960 -0.1589
22.2600 14.8093 -0.1526
22.2800 14.8227 -0.1811
22.3000 14.8360 -0.1582
22.3200 14.8494 -0.1559
22.3400 14.8627 -0.1785
22.3600 14.8761 -0.1652
22.3800 14.8894 -0.1674
22.4000 14.9027 -0.1798
22.4200 14.9161 -0.1563
22.4400 14.9294 -0.1667
22.4600 14.9428 -0.1808
22.4800 14.9561 -0.1734
22.5000 14.9694 -0.1703
22.5200 14.9827 -0.1711
22.5400 14.9960 -0.1661
22.5600 15.0093 -0.1803
22.5800 15.0226 -0.1902
22.6000 15.0359 -0.1630
22.6200 15.0493 -0.1647
22.6400 15.0627 -0.1856
22.6600 15.0760 -0.1790
22.6800 15.0893 -0.1729
22.7000 15.1027 -0.1907
22.7200 15.1160 -0.1719
22.7400 15.1294 -0.1725
22.7600 15.1427 -0.1926
22.7800 15.1561 -0.1850
22.8000 15.1694 -0.1773
22.8200 15.1827 -0.1951
22.8400 15.1960 -0.1761
22.8600 15.2093 -0.1805
22.8800 15.2227 -0.2032
22.9000 15.2360 -0.1832
22.9200 15.2494 -0.1805
22.9400 15.2627 -0.1976
22.9600 15.2760 -0.1849
22.9800 15.2893 -0.1967
23.0000 15.3027 -0.2012
23.0200 15.3160 -0.1801
23.0400 15.3293 -0.1918
23.0600 15.3427 -0.2118
23.0800 15.3560 -0.1905
23.1000 15.3694 -0.1977
23.1200 15.3827 -0.2018
23.1400 15.3960 -0.1626
23.1600 15.4094 -0.2234
23.1800 15.4228 -0.2379
23.2000 15.4361 -0.1580
23.2200 15.4494 -0.1819
23.2400 15.4627 -0.2393
23.2600 15.4760 -0.1879
23.2800 15.4893 -0.2046
23.3000 15.5026 -0.2312
23.3200 15.5159 -0.1615
23.3400 15.5293 -0.2078
23.3600 15.5426 -0.2468
23.3800 15.5560 -0.1658
23.4000 15.5693 -0.2242
23.4200 15.5827 -0.2221
23.4400 15.5961 -0.1690
23.4600 15.6094 -0.2449
23.4800 15.6228 -0.2204
23.5000 15.6361 -0.1668
23.5200 15.6494 -0.2406
23.5400 15.6628 -0.2172
23.5600 15.6761 -0.1851
23.5800 15.6894 -0.2493
23.6000 15.7027 -0.1975
23.6200 15.7160 -0.1919
23.6400 15.7294 -0.2624
23.6600 15.7427 -0.2007
23.6800 15.7560 -0.1968
23.7000 15.7693 -0.2429
23.7200 15.7826 -0.2027
23.7400 15.7960 -0.2235
23.7600 15.8093 -0.2397
23.7800 15.8227 -0.2037
23.8000 15.8360 -0.2244
23.8200 15.8494 -0.2229
23.8400 15.8628 -0.2086
23.8600 15.8761 -0.2485
23.8800 15.8894 -0.2166
23.9000 15.9027 -0.2109
23.9200 15.9160 -0.2391
23.9400 15.9293 -0.2201
23.9600 15.9426 -0.2291
23.9800 15.9560 -0.2390
24.0000 15.9693 -0.2180
24.0200 15.9827 -0.2333
24.0400 15.9960 -0.2318
24.0600 16.0093 -0.2294
24.0800 16.0227 -0.2404
24.1000 16.0360 -0.2206
24.1200 16.0494 -0.2340
24.1400 16.0627 -0.2462
24.1600 16.0760 -0.2193
24.1800 16.0894 -0.2463
24.2000 16.1027 -0.2471
24.2200 16.1160 -0.2152
24.2400 16.1293 -0.2447
24.2600 16.1427 -0.2430
24.2800 16.1561 -0.2265
24.3000 16.1694 -0.2514
24.3200 16.1827 -0.2373
24.3400 16.1960 -0.2254
24.3600 16.2094 -0.2558
24.3800 16.2227 -0.2419
24.4000 16.2360 -0.2378
24.4200 16.2493 -0.2569
24.4400 16.2627 -0.2400
24.4600 16.2760 -0.2416
24.4800 16.2893 -0.2624
24.5000 16.3027 -0.2388
24.5200 16.3160 -0.2512
24.5400 16.3294 -0.2561
24.5600 16.3427 -0.2412
24.5800 16.3561 -0.2564
24.6000 16.3694 -0.2599
24.6200 16.3827 -0.2463
24.6400 16.3961 -0.2617
24.6600 16.4094 -0.2532
24.6800 16.4227 -0.2496
24.7000 16.4361 -0.2644
24.7200 16.4494 -0.2524
24.7400 16.4627 -0.2597
24.7600 16.4760 -0.2637
24.7800 16.4893 -0.2522
24.8000 16.5026 -0.2636
24.8200 16.5160 -0.2678
24.8400 16.5293 -0.2538
24.8600 16.5427 -0.2680
24.8800 16.5560 -0.2669
24.9000 16.5694 -0.2619
24.9200 16.5828 -0.2709
24.9400 16.5961 -0.2642
24.9600 16.6094 -0.2657
24.9800 16.6228 -0.2783
25.0000 16.6361 -0.2559
25.0200 16.6494 -0.2714
25.0400 16.6627 -0.2763
25.0600 16.6760 -0.2602
25.0800 16.6893 -0.2776
25.1000 16.7027 -0.2833
25.1200 16.7160 -0.2606
25.1400 16.7293 -0.2795
25.1600 16.7427 -0.2776
25.1800 16.7560 -0.2715
25.2000 16.7693 -0.2866
25.2200 16.7827 -0.2743
25.2400 16.7960 -0.2709
25.2600 16.8094 -0.2942
25.2800 16.8227 -0.2743
25.3000 16.8361 -0.2798
25.3200 16.8494 -0.2954
25.3400 16.8628 -0.2739
25.3600 16.8761 -0.2834
25.3800 16.8894 -0.2931
25.4000 16.9027 -0.2751
25.4200 16.9160 -0.2892
25.4400 16.9294 -0.2977
25.4600 16.9427 -0.2752
25.4800 16.9560 -0.2930
25.5000 16.9693 -0.2913
25.5200 16.9826 -0.2856
25.5400 16.9959 -0.2922
25.5600 17.0093 -0.2945
25.5800 17.0227 -0.2893
25.6000 17.0360 -0.2973
25.6200 17.0494 -0.2994
25.6400 17.0627 -0.2948
25.6600 17.0760 -0.2958
25.6800 17.0894 -0.2983
25.7000 17.1027 -0.2983
25.7200 17.1161 -0.3026
25.7400 17.1294 -0.2970
25.7600 17.1427 -0.3067
25.7800 17.1560 -0.2967
25.8000 17.1694 -0.3013
25.8200 17.1827 -0.3067
25.8400 17.1960 -0.3021
25.8600 17.2093 -0.3115
25.8800 17.2227 -0.3034
25.9000 17.2360 -0.3072
25.9200 17.2493 -0.3117
25.9400 17.2627 -0.3014
25.9600 17.2760 -0.3080
25.9800 17.2894 -0.3195
26.0000 17.3028 -0.3103
26.0200 17.3161 -0.3069
26.0400 17.3294 -0.3147
26.0600 17.3427 -0.3141
26.0800 17.3561 -0.3166
26.1000 17.3694 -0.3155
26.1200 17.3827 -0.3101
26.1400 17.3960 -0.3216
26.1600 17.4093 -0.3214
26.1800 17.4227 -0.3113
26.2000 17.4360 -0.3215
26.2200 17.4493 -0.3254
26.2400 17.4626 -0.3114
26.2600 17.4760 -0.3302
26.2800 17.4894 -0.3335
26.3000 17.5027 -0.3153
26.3200 17.5160 -0.3283
26.3400 17.5294 -0.3312
26.3600 17.5427 -0.3182
26.3800 17.5560 -0.3386
26.4000 17.5693 -0.3228
26.4200 17.5827 -0.3137
26.4400 17.5961 -0.3375
26.4600 17.6094 -0.3306
26.4800 17.6227 -0.3257
26.5000 17.6360 -0.3401
26.5200 17.6494 -0.3257
26.5400 17.6627 -0.3249
26.5600 17.6760 -0.3493
26.5800 17.6893 -0.3357
26.6000 17.7026 -0.3321
26.6200 17.7160 -0.3481
26.6400 17.7293 -0.3333
26.6600 17.7426 -0.3414
26.6800 17.7560 -0.3546
26.7000 17.7694 -0.3349
26.7200 17.7828 -0.3458
26.7400 17.7961 -0.3491
26.7600 17.8094 -0.3436
26.7800 17.8227 -0.3507
26.8000 17.8361 -0.3539
26.8200 17.8494 -0.3506
26.8400 17.8627 -0.3518
26.8600 17.8760 -0.3446
26.8800 17.8893 -0.3601
26.9000 17.9027 -0.3590
26.9200 17.9160 -0.3418
26.9400 17.9293 -0.3603
26.9600 17.9426 -0.3577
26.9800 17.9560 -0.3524
27.0000 17.9693 -0.3709
27.0200 17.9826 -0.3547
27.0400 17.9960 -0.3534
27.0600 18.0094 -0.3742
27.0800 18.0228 -0.3584
27.1000 18.0361 -0.3575
27.1200 18.0494 -0.3801
27.1400 18.0627 -0.3545
27.1600 18.0761 -0.3560
27.1800 18.0894 -0.3853
27.2000 18.1027 -0.3625
27.2200 18.1160 -0.3625
27.2400 18.1293 -0.3720
27.2600 18.1427 -0.3670
27.2800 18.1560 -0.3740
27.3000 18.1693 -0.3770
27.3200 18.1826 -0.3644
27.3400 18.1960 -0.3827
27.3600 18.2094 -0.3736
27.3800 18.2227 -0.3683
27.4000 18.2360 -0.3913
27.4200 18.2494 -0.3812
27.4400 18.2627 -0.3592
27.4600 18.2761 -0.3910
27.4800 18.2894 -0.3895
27.5000 18.3027 -0.3768
27.5200 18.3161 -0.3889
27.5400 18.3294 -0.3838
27.5600 18.3427 -0.3834
27.5800 18.3561 -0.3939
27.6000 18.3694 -0.3882
27.6200 18.3827 -0.3937
27.6400 18.3960 -0.3946
27.6600 18.4093 -0.3825
27.6800 18.4226 -0.3991
27.7000 18.4360 -0.4063
27.7200 18.4494 -0.3807
27.7400 18.4627 -0.3981
27.7600 18.4760 -0.4104
27.7800 18.4894 -0.3876
27.8000 18.5028 -0.4011
27.8200 18.5161 -0.4120
27.8400 18.5294 -0.3987
27.8600 18.5427 -0.4027
27.8800 18.5561 -0.4163
27.9000 18.5694 -0.3946
27.9200 18.5827 -0.4102
27.9400 18.5960 -0.4140
27.9600 18.6093 -0.4023
27.9800 18.6227 -0.4198
28.0000 18.6360 -0.4069
28.0200 18.6493 -0.4028
28.0400 18.6627 -0.4260
28.0600 18.6760 -0.4092
28.0800 18.6893 -0.4068
28.1000 18.7027 -0.4330
28.1200 18.7160 -0.4140
28.1400 18.7294 -0.3957
28.1600 18.7427 -0.4373
28.1800 18.7561 -0.4355
28.2000 18.7694 -0.4097
28.2200 18.7827 -0.4233
28.2400 18.7961 -0.4271
28.2600 18.8094 -0.4214
28.2800 18.8227 -0.4303
28.3000 18.8360 -0.4367
28.3200 18.8494 -0.4238
28.3400 18.8627 -0.4298
28.3600 18.8760 -0.4295
28.3800 18.8893 -0.4305
28.4000 18.9026 -0.4540
28.4200 18.9160 -0.4369
28.4400 18.9293 -0.4162
28.4600 18.9427 -0.4516
28.4800 18.9560 -0.4460
28.5000 18.9694 -0.4308
28.5200 18.9827 -0.4549
28.5400 18.9961 -0.4423
28.5600 19.0094 -0.4334
28.5800 19.0227 -0.4594
28.6000 19.0361 -0.4501
28.6200 19.0494 -0.4441
28.6400 19.0627 -0.4591
28.6600 19.0760 -0.4478
28.6800 19.0894 -0.4529
28.7000 19.1027 -0.4660
28.7200 19.1160 -0.4527
28.7400 19.1293 -0.4586
28.7600 19.1426 -0.4638
28.7800 19.1559 -0.4586
28.8000 19.1693 -0.4648
28.8200 19.1826 -0.4710
28.8400 19.1960 -0.4604
28.8600 19.2094 -0.4629
28.8800 19.2228 -0.4709
28.9000 19.2361 -0.4641
28.9200 19.2494 -0.4697
28.9400 19.2628 -0.4732
28.9600 19.2761 -0.4675
28.9800 19.2894 -0.4701
29.0000 19.3027 -0.4811
29.0200 19.3160 -0.4704
29.0400 19.3293 -0.4730
29.0600 19.3427 -0.4803
29.0800 19.3560 -0.4760
29.1000 19.3693 -0.4748
29.1200 19.3827 -0.4908
29.1400 19.3960 -0.4762
29.1600 19.4094 -0.4852
29.1800 19.4227 -0.4880
29.2000 19.4360 -0.4846
29.2200 19.4494 -0.4901
29.2400 19.4627 -0.4912
29.2600 19.4761 -0.4874
29.2800 19.4894 -0.4925
29.3000 19.5027 -0.4952
29.3200 19.5160 -0.4908
29.3400 19.5294 -0.4980
29.3600 19.5427 -0.4993
29.3800 19.5560 -0.4974
29.4000 19.5693 -0.5024
29.4200 19.5827 -0.5045
29.4400 19.5960 -0.5004
29.4600 19.6093 -0.5067
29.4800 19.6227 -0.5087
29.5000 19.6360 -0.5097
29.5200 19.6494 -0.5090
29.5400 19.6627 -0.5149
29.5600 19.6760 -0.5098
29.5800 19.6894 -0.5112
29.6000 19.7027 -0.5232
29.6200 19.7161 -0.5165
29.6400 19.7293 -0.5162
29.6600 19.7427 -0.5248
29.6800 19.7560 -0.5210
29.7000 19.7694 -0.5250
29.7200 19.7827 -0.5246
29.7400 19.7960 -0.5237
29.7600 19.8094 -0.5294
29.7800 19.8227 -0.5334
29.8000 19.8360 -0.5271
29.8200 19.8493 -0.5378
29.8400 19.8626 -0.5379
29.8600 19.8760 -0.5295
29.8800 19.8893 -0.5387
29.9000 19.9027 -0.5386
29.9200 19.9160 -0.5354
29.9400 19.9294 -0.5427
29.9600 19.9427 -0.5426
29.9800 19.9561 -0.5396
30.0000 19.9694 -0.5483
30.0200 19.9828 -0.5423
30.0400 19.9961 -0.5497
30.0600 20.0094 -0.5508
30.0800 20.0227 -0.5518
30.1000 20.0360 -0.5501
30.1200 20.0493 -0.5495
30.1400 20.0627 -0.5594
30.1600 20.0760 -0.5620
30.1800 20.0893 -0.5513
30.2000 20.1027 -0.5656
30.2200 20.1160 -0.5662
30.2400 20.1293 -0.5615
30.2600 20.1427 -0.5697
30.2800 20.1560 -0.5651
30.3000 20.1693 -0.5684
30.3200 20.1827 -0.5762
30.3400 20.1961 -0.5717
30.3600 20.2094 -0.5742
30.3800 20.2227 -0.5806
30.4000 20.2361 -0.5789
30.4200 20.2494 -0.5740
30.4400 20.2627 -0.5862
30.4600 20.2760 -0.5809
30.4800 20.2894 -0.5821
30.5000 20.3027 -0.5931
30.5200 20.3160 -0.5858
30.5400 20.3293 -0.5917
30.5600 20.3426 -0.5967
30.5800 20.3560 -0.5932
30.6000 20.3693 -0.5971
30.6200 20.3827 -0.6064
30.6400 20.3960 -0.5708
30.6600 20.4094 -0.4844
30.6800 20.4228 -0.3590
30.7000 20.4361 -0.2368
30.7200 20.4494 -0.1429
30.7400 20.4627 -0.0714
30.7600 20.4760 -0.0107
30.7800 20.4894 0.0123
30.8000 20.5027 0.0614
30.8200 20.5160 0.1247
30.8400 20.5293 0.1674
30.8600 20.5427 0.2247
30.8800 20.5560 0.2887
30.9000 20.5693 0.3366
30.9200 20.5826 0.3916
30.9400 20.5960 0.4434
30.9600 20.6093 0.4907
30.9800 20.6226 0.5453
31.0000 20.6360 0.5998
31.0200 20.6493 0.6443
31.0400 20.6627 0.6937
31.0600 20.6761 0.7352
31.0800 20.6894 0.7832
31.1000 20.7027 0.8366
31.1200 20.7161 0.8815
31.1400 20.7294 0.9306
31.1600 20.7427 0.9745
31.1800 20.7560 1.0237
31.2000 20.7693 1.0670
31.2200 20.7826 1.1010
31.2400 20.7960 1.1167
31.2600 20.8093 1.1251
31.2800 20.8226 1.1188
31.3000 20.8360 1.1208
31.3200 20.8494 1.1217
31.3400 20.8627 1.1172
31.3600 20.8760 1.1166
31.3800 20.8894 1.1243
31.4000 20.9028 1.1176
31.4200 20.9161 1.1151
31.4400 20.9294 1.1122
31.4600 20.9427 1.1191
31.4800 20.9560 1.1158
31.5000 20.9694 1.1055
31.5200 20.9827 1.1139
31.5400 20.9960 1.1087
31.5600 21.0094 1.0939
31.5800 21.0227 1.1082
31.6000 21.0361 1.1072
31.6200 21.0494 1.0911
31.6400 21.0627 1.1044
31.6600 21.0760 1.0954
31.6800 21.0893 1.0806
31.7000 21.1027 1.0929
31.7200 21.1160 1.0865
31.7400 21.1293 1.0781
31.7600 21.1427 1.0794
31.7800 21.1561 1.0750
31.8000 21.1694 1.0734
31.8200 21.1827 1.0747
31.8400 21.1960 1.0747
31.8600 21.2094 1.0654
31.8800 21.2227 1.0661
31.9000 21.2360 1.0607
31.9200 21.2493 1.0678
31.9400 21.2627 1.0581
31.9600 21.2760 1.0608
31.9800 21.2893 1.0534
32.0000 21.3027 1.0532
32.0200 21.3160 1.0579
32.0400 21.3293 1.0522
32.0600 21.3427 1.0505
32.0800 21.3560 1.0549
32.1000 21.3693 1.0421
32.1200 21.3827 1.0459
32.1400 21.3961 1.0517
32.1600 21.4094 1.0397
32.1800 21.4227 1.0441
32.2000 21.4361 1.0457
32.2200 21.4494 1.0292
32.2400 21.4627 1.0415
32.2600 21.4760 1.0396
32.2800 21.4893 1.0256
32.3000 21.5027 1.0424
32.3200 21.5160 1.0275
32.3400 21.5293 1.0175
32.3600 21.5426 1.0340
32.3800 21.5560 1.0193
32.4000 21.5693 1.0085
32.4200 21.5827 1.0308
32.4400 21.5960 1.0098
32.4600 21.6093 1.0140
32.4800 21.6227 1.0146
32.5000 21.6360 1.0002
32.5200 21.6494 1.0078
32.5400 21.6627 1.0091
32.5600 21.6761 0.9910
32.5800 21.6894 1.0045
32.6000 21.7028 0.9966
32.6200 21.7161 0.9863
32.6400 21.7294 1.0012
32.6600 21.7427 0.9894
32.6800 21.7560 0.9835
32.7000 21.7693 0.9909
32.7200 21.7826 0.9777
32.7400 21.7959 0.9816
32.7600 21.8093 0.9796
32.7800 21.8227 0.9693
32.8000 21.8360 0.9752
32.8200 21.8493 0.9726
32.8400 21.8627 0.9613
32.8600 21.8761 0.9688
32.8800 21.8894 0.9658
32.9000 21.9027 0.9535
32.9200 21.9161 0.9629
32.9400 21.9294 0.9520
32.9600 21.9427 0.9510
32.9800 21.9560 0.9582
33.0000 21.9694 0.9505
33.0200 21.9827 0.9497
33.0400 21.9960 0.9507
33.0600 22.0094 0.9404
33.0800 22.0227 0.9452
33.1000 22.0360 0.9452
33.1200 22.0493 0.9352
33.1400 22.0627 0.9403
33.1600 22.0760 0.9467
33.1800 22.0893 0.9277
33.2000 22.1027 0.9425
33.2200 22.1161 0.9373
33.2400 22.1294 0.9246
33.2600 22.1427 0.9450
33.2800 22.1560 0.9297
33.3000 22.1694 0.9228
33.3200 22.1828 0.9407
33.3400 22.1960 0.9284
33.3600 22.2093 0.9215
33.3800 22.2226 0.9330
33.4000 22.2360 0.9190
33.4200 22.2493 0.9187
33.4400 22.2626 0.9281
33.4600 22.2760 0.9142
33.4800 22.2893 0.9158
33.5000 22.3027 0.9216
33.5200 22.3160 0.9018
33.5400 22.3293 0.9132
33.5600 22.3427 0.9130
33.5800 22.3560 0.9015
33.6000 22.3694 0.9056
33.6200 22.3827 0.9041
33.6400 22.3960 0.8940
33.6600 22.4094 0.9001
33.6800 22.4227 0.8933
33.7000 22.4361 0.8943
33.7200 22.4494 0.8932
33.7400 22.4627 0.8870
33.7600 22.4761 0.8849
33.7800 22.4894 0.8859
33.8000 22.5027 0.8841
33.8200 22.5160 0.8862
33.8400 22.5293 0.8824
33.8600 22.5426 0.8736
33.8800 22.5560 0.8829
33.9000 22.5693 0.8748
33.9200 22.5827 0.8677
33.9400 22.5961 0.8786
33.9600 22.6095 0.8662
33.9800 22.6228 0.8588
34.0000 22.6361 0.8722
34.0200 22.6494 0.8663
34.0400 22.6628 0.8591
34.0600 22.6761 0.8652
34.0800 22.6894 0.8551
34.1000 22.7027 0.8524
34.1200 22.7160 0.8665
34.1400 22.7293 0.8502
34.1600 22.7426 0.8551
34.1800 22.7559 0.8554
34.2000 22.7693 0.8402
34.2200 22.7827 0.8490
34.2400 22.7960 0.8509
34.2600 22.8093 0.8360
34.2800 22.8227 0.8456
34.3000 22.8361 0.8403
34.3200 22.8494 0.8306
34.3400 22.8628 0.8394
34.3600 22.8761 0.8408
34.3800 22.8894 0.8267
34.4000 22.9028 0.8330
34.4200 22.9161 0.8268
34.4400 22.9294 0.8256
34.4600 22.9427 0.8267
34.4800 22.9560 0.8198
34.5000 22.9693 0.8215
34.5200 22.9827 0.8187
34.5400 22.9960 0.8175
34.5600 23.0093 0.8189
34.5800 23.0227 0.8087
34.6000 23.0360 0.8130
34.6200 23.0493 0.8098
34.6400 23.0627 0.8046
34.6600 23.0761 0.8101
34.6800 23.0894 0.8053
34.7000 23.1027 0.8001
34.7200 23.1160 0.8031
34.7400 23.1294 0.8029
34.7600 23.1427 0.7925
34.7800 23.1561 0.8064
34.8000 23.1694 0.7882
34.8200 23.1827 0.7882
34.8400 23.1961 0.8081
34.8600 23.2094 0.7833
34.8800 23.2227 0.7841
34.9000 23.2360 0.7998
34.9200 23.2493 0.7789
34.9400 23.2627 0.7809
34.9600 23.2760 0.7940
34.9800 23.2894 0.7746
35.0000 23.3027 0.7769
35.0200 23.3161 0.7872
35.0400 23.3294 0.7606
35.0600 23.3427 0.7785
35.0800 23.3561 0.7810
35.1000 23.3694 0.7547
35.1200 23.3827 0.7752
35.1400 23.3960 0.7718
35.1600 23.4093 0.7494
35.1800 23.4227 0.7703
35.2000 23.4360 0.7689
35.2200 23.4494 0.7455
35.2400 23.4627 0.7642
35.2600 23.4760 0.7605
35.2800 23.4893 0.7418
35.3000 23.5027 0.7577
35.3200 23.5160 0.7553
35.3400 23.5293 0.7365
35.3600 23.5427 0.7536
35.3800 23.5561 0.7428
35.4000 23.5694 0.7339
35.4200 23.5827 0.7487
35.4400 23.5961 0.7407
35.4600 23.6094 0.7283
35.4800 23.6228 0.7413
35.5000 23.6361 0.7343
35.5200 23.6494 0.7268
35.5400 23.6627 0.7387
35.5600 23.6760 0.7311
35.5800 23.6893 0.7254
35.6000 23.7027 0.7296
35.6200 23.7160 0.7191
35.6400 23.7293 0.7243
35.6600 23.7427 0.7275
35.6800 23.7560 0.7133
35.7000 23.7694 0.7186
35.7200 23.7827 0.7215
35.7400 23.7961 0.7108
35.7600 23.8094 0.7122
35.7800 23.8227 0.7117
35.8000 23.8360 0.7007
35.8200 23.8494 0.7104
35.8400 23.8627 0.7025
35.8600 23.8761 0.6948
35.8800 23.8894 0.7101
35.9000 23.9027 0.6979
35.9200 23.9160 0.6885
35.9400 23.9294 0.6997
35.9600 23.9427 0.6917
35.9800 23.9559 0.6882
36.0000 23.9693 0.6910
36.0200 23.9826 0.6857
36.0400 23.9960 0.6790
36.0600 24.0093 0.6929
36.0800 24.0227 0.6781
36.1000 24.0361 0.6802
36.1200 24.0495 0.6852
36.1400 24.0628 0.6761
36.1600 24.0761 0.6748
36.1800 24.0894 0.6807
36.2000 24.1028 0.6707
36.2200 24.1161 0.6716
36.2400 24.1293 0.6729
36.2600 24.1426 0.6687
36.2800 24.1560 0.6649
36.3000 24.1693 0.6679
36.3200 24.1826 0.6642
36.3400 24.1960 0.6629
36.3600 24.2093 0.6646
36.3800 24.2227 0.6593
36.4000 24.2360 0.6541
36.4200 24.2494 0.6554
36.4400 24.2627 0.6581
36.4600 24.2761 0.6478
36.4800 24.2894 0.6514
36.5000 24.3027 0.6527
36.5200 24.3161 0.6454
36.5400 24.3294 0.6469
36.5600 24.3427 0.6478
36.5800 24.3561 0.6394
36.6000 24.3694 0.6457
36.6200 24.3827 0.6425
36.6400 24.3960 0.6352
36.6600 24.4093 0.6369
36.6800 24.4227 0.6383
36.7000 24.4360 0.6287
36.7200 24.4493 0.6373
36.7400 24.4627 0.6377
36.7600 24.4760 0.6244
36.7800 24.4894 0.6294
36.8000 24.5027 0.6315
36.8200 24.5161 0.6238
36.8400 24.5294 0.6318
36.8600 24.5427 0.6182
36.8800 24.5561 0.6165
36.9000 24.5694 0.6239
36.9200 24.5827 0.6138
36.9400 24.5961 0.6166
36.9600 24.6094 0.6229
36.9800 24.6227 0.6129
37.0000 24.6360 0.6085
37.0200 24.6494 0.6194
37.0400 24.6627 0.6091
37.0600 24.6760 0.6064
37.0800 24.6893 0.6154
37.1000 24.7027 0.6031
37.1200 24.7160 0.6026
37.1400 24.7293 0.6170
37.1600 24.7427 0.5964
37.1800 24.7560 0.6034
37.2000 24.7694 0.6082
37.2200 24.7828 0.5921
37.2400 24.7961 0.5982
37.2600 24.8094 0.6056
37.2800 24.8228 0.5847
37.3000 24.8361 0.5948
37.3200 24.8494 0.5941
37.3400 24.8627 0.5833
37.3600 24.8760 0.5911
37.3800 24.8894 0.5894
37.4000 24.9027 0.5767
37.4200 24.9160 0.5838
37.4400 24.9293 0.5826
37.4600 24.9427 0.5712
37.4800 24.9560 0.5831
37.5000 24.9693 0.5802
37.5200 24.9827 0.5721
37.5400 24.9960 0.5774
37.5600 25.0094 0.5743
37.5800 25.0227 0.5704
37.6000 25.0360 0.5746
37.6200 25.0494 0.5698
37.6400 25.0627 0.5682
37.6600 25.0761 0.5647
37.6800 25.0894 0.5669
37.7000 25.1027 0.5627
37.7200 25.1160 0.5604
37.7400 25.1294 0.5645
37.7600 25.1427 0.5600
37.7800 25.1560 0.5552
37.8000 25.1693 0.5624
37.8200 25.1826 0.5572
37.8400 25.1960 0.5501
37.8600 25.2093 0.5525
37.8800 25.2227 0.5548
37.9000 25.2361 0.5405
37.9200 25.2494 0.5502
37.9400 25.2628 0.5464
37.9600 25.2761 0.5361
37.9800 25.2894 0.5479
38.0000 25.3028 0.5425
38.0200 25.3161 0.5292
38.0400 25.3294 0.5468
38.0600 25.3427 0.5393
38.0800 25.3560 0.5280
38.1000 25.3694 0.5399
38.1200 25.3827 0.5345
38.1400 25.3960 0.5231
38.1600 25.4093 0.5356
38.1800 25.4226 0.5298
38.2000 25.4360 0.5194
38.2200 25.4493 0.5296
38.2400 25.4626 0.5249
38.2600 25.4760 0.5146
38.2800 25.4894 0.5248
38.3000 25.5028 0.5222
38.3200 25.5161 0.5124
38.3400 25.5294 0.5221
38.3600 25.5428 0.5150
38.3800 25.5561 0.5110
38.4000 25.5694 0.5107
38.4200 25.5827 0.5130
38.4400 25.5960 0.5088
38.4600 25.6093 0.5104
38.4800 25.6227 0.5082
38.5000 25.6360 0.5065
38.5200 25.6493 0.5071
38.5400 25.6627 0.5033
38.5600 25.6760 0.5001
38.5800 25.6894 0.5086
38.6000 25.7027 0.5007
38.6200 25.7160 0.5000
38.6400 25.7294 0.5009
38.6600 25.7427 0.4994
38.6800 25.7560 0.4957
38.7000 25.7694 0.5033
38.7200 25.7827 0.4946
38.7400 25.7961 0.4914
38.7600 25.8094 0.4983
38.7800 25.8227 0.4875
38.8000 25.8360 0.4922
38.8200 25.8494 0.4939
38.8400 25.8627 0.4817
38.8600 25.8760 0.4895
38.8800 25.8893 0.4919
38.9000 25.9027 0.4787
38.9200 25.9160 0.4815
38.9400 25.9293 0.4841
38.9600 25.9426 0.4783
38.9800 25.9560 0.4807
39.0000 25.9694 0.4789
39.0200 25.9827 0.4684
39.0400 25.9960 0.4773
39.0600 26.0094 0.4725
39.0800 26.0227 0.4676
39.1000 26.0361 0.4697
39.1200 26.0494 0.4702
39.1400 26.0627 0.4646
39.1600 26.0760 0.4644
39.1800 26.0894 0.4658
39.2000 26.1027 0.4585
39.2200 26.1160 0.4608
39.2400 26.1293 0.4600
39.2600 26.1426 0.4582
39.2800 26.1560 0.4544
39.3000 26.1693 0.4540
39.3200 26.1827 0.4554
39.3400 26.1960 0.4516
39.3600 26.2094 0.4492
39.3800 26.2228 0.4514
39.4000 26.2361 0.4466
39.4200 26.2494 0.4405
39.4400 26.2628 0.4506
39.4600 26.2761 0.4408
39.4800 26.2894 0.4418
39.5000 26.3027 0.4493
39.5200 26.3160 0.4322
39.5400 26.3293 0.4420
39.5600 26.3427 0.4409
39.5800 26.3560 0.4293
39.6000 26.3693 0.4409
39.6200 26.3827 0.4363
39.6400 26.3960 0.4200
39.6600 26.4094 0.4376
39.6800 26.4227 0.4346
39.7000 26.4360 0.4206
39.7200 26.4494 0.4341
39.7400 26.4627 0.4259
39.7600 26.4761 0.4124
39.7800 26.4894 0.4326
39.8000 26.5027 0.4194
39.8200 26.5161 0.4086
39.8400 26.5294 0.4234
39.8600 26.5427 0.4162
39.8800 26.5560 0.4080
39.9000 26.5694 0.4199
39.9200 26.5827 0.4105
39.9400 26.5960 0.4076
39.9600 26.6093 0.4167
39.9800 26.6226 0.4056
40.0000 26.6360 0.4021
40.0200 26.6493 0.4089
40.0400 26.6626 0.4037
40.0600 26.6760 0.3958
40.0800 26.6894 0.4039
40.1000 26.7028 0.3977
40.1200 26.7161 0.3961
40.1400 26.7294 0.3997
40.1600 26.7427 0.3942
40.1800 26.7561 0.3872
40.2000 26.7694 0.3962
40.2200 26.7827 0.3876
40.2400 26.7960 0.3856
40.2600 26.8093 0.3937
40.2800 26.8227 0.3806
40.3000 26.8360 0.3789
40.3200 26.8493 0.3860
40.3400 26.8627 0.3783
40.3600 26.8760 0.3746
40.3800 26.8893 0.3744
40.4000 26.9026 0.3754
40.4200 26.9160 0.3709
40.4400 26.9294 0.3728
40.4600 26.9427 0.3651
40.4800 26.9561 0.3636
40.5000 26.9694 0.3647
40.5200 26.9827 0.3672
40.5400 26.9961 0.3568
40.5600 27.0094 0.3579
40.5800 27.0227 0.3603
40.6000 27.0360 0.3532
40.6200 27.0493 0.3565
40.6400 27.0627 0.3552
40.6600 27.0760 0.3464
40.6800 27.0893 0.3513
40.7000 27.1026 0.3499
40.7200 27.1160 0.3398
40.7400 27.1294 0.3504
40.7600 27.1427 0.3431
40.7800 27.1560 0.3367
40.8000 27.1694 0.3456
40.8200 27.1827 0.3409
40.8400 27.1960 0.3349
40.8600 27.2093 0.3412
40.8800 27.2227 0.3341
40.9000 27.2361 0.3373
40.9200 27.2494 0.3333
40.9400 27.2627 0.3305
40.9600 27.2761 0.3349
40.9800 27.2894 0.3285
41.0000 27.3027 0.3235
41.0200 27.3160 0.3345
41.0400 27.3293 0.3242
41.0600 27.3426 0.3274
41.0800 27.3560 0.3260
41.1000 27.3693 0.3211
41.1200 27.3826 0.3251
41.1400 27.3960 0.3269
41.1600 27.4094 0.3205
41.1800 27.4228 0.3210
41.2000 27.4361 0.3204
41.2200 27.4494 0.3156
41.2400 27.4628 0.3173
41.2600 27.4761 0.3174
41.2800 27.4894 0.3115
41.3000 27.5027 0.3153
41.3200 27.5160 0.3137
41.3400 27.5293 0.3112
41.3600 27.5427 0.3109
41.3800 27.5560 0.3077
41.4000 27.5693 0.3112
41.4200 27.5826 0.3090
41.4400 27.5960 0.3056
41.4600 27.6093 0.3084
41.4800 27.6226 0.3071
41.5000 27.6360 0.3034
41.5200 27.6494 0.3108
41.5400 27.6628 0.2989
41.5600 27.6761 0.3017
41.5800 27.6894 0.3060
41.6000 27.7027 0.2987
41.6200 27.7161 0.3005
41.6400 27.7294 0.3063
41.6600 27.7427 0.2977
41.6800 27.7560 0.3063
41.7000 27.7693 0.3020
41.7200 27.7827 0.2951
41.7400 27.7960 0.3000
41.7600 27.8093 0.2985
41.7800 27.8226 0.2907
41.8000 27.8360 0.2997
41.8200 27.8494 0.2947
41.8400 27.8627 0.2865
41.8600 27.8760 0.2974
41.8800 27.8894 0.2939
41.9000 27.9027 0.2844
41.9200 27.9161 0.2932
41.9400 27.9294 0.2890
41.9600 27.9427 0.2806
41.9800 27.9561 0.2924
42.0000 27.9694 0.2804
42.0200 27.9827 0.2805
42.0400 27.9960 0.2870
42.0600 28.0094 0.2768
42.0800 28.0227 0.2764
42.1000 28.0360 0.2832
42.1200 28.0493 0.2668
42.1400 28.0626 0.2763
42.1600 28.0760 0.2761
42.1800 28.0893 0.2623
42.2000 28.1027 0.2702
42.2200 28.1160 0.2710
42.2400 28.1294 0.2569
42.2600 28.1428 0.2680
42.2800 28.1561 0.2638
42.3000 28.1694 0.2511
42.3200 28.1827 0.2590
42.3400 28.1961 0.2622
42.3600 28.2094 0.2454
42.3800 28.2227 0.2586
42.4000 28.2360 0.2563
42.4200 28.2493 0.2448
42.4400 28.2627 0.2508
42.4600 28.2760 0.2462
42.4800 28.2893 0.2421
42.5000 28.3027 0.2426
42.5200 28.3160 0.2466
42.5400 28.3293 0.2396
42.5600 28.3426 0.2398
42.5800 28.3560 0.2396
42.6000 28.3693 0.2371
42.6200 28.3827 0.2308
42.6400 28.3961 0.2355
42.6600 28.4094 0.2334
42.6800 28.4227 0.2253
42.7000 28.4361 0.2275
42.7200 28.4494 0.2258
42.7400 28.4627 0.2168
42.7600 28.4760 0.2282
42.7800 28.4894 0.2218
42.8000 28.5027 0.2123
42.8200 28.5160 0.2198
42.8400 28.5293 0.2173
42.8600 28.5426 0.2071
42.8800 28.5560 0.2259
42.9000 28.5693 0.2105
42.9200 28.5827 0.2045
42.9400 28.5960 0.2190
42.9600 28.6094 0.2059
42.9800 28.6227 0.2028
43.0000 28.6361 0.2156
43.0200 28.6494 0.2007
43.0400 28.6627 0.1958
43.0600 28.6761 0.2121
43.0800 28.6894 0.1988
43.1000 28.7027 0.1943
43.1200 28.7160 0.2109
43.1400 28.7294 0.1973
43.1600 28.7427 0.1900
43.1800 28.7560 0.2061
43.2000 28.7693 0.1923
43.2200 28.7826 0.1858
43.2400 28.7959 0.1998
43.2600 28.8093 0.1921
43.2800 28.8226 0.1843
43.3000 28.8360 0.1933
43.3200 28.8494 0.1856
43.3400 28.8628 0.1817
43.3600 28.8761 0.1861
43.3800 28.8895 0.1830
43.4000 28.9028 0.1768
43.4200 28.9161 0.1860
43.4400 28.9294 0.1756
43.4600 28.9427 0.1706
43.4800 28.9560 0.1813
43.5000 28.9693 0.1761
43.5200 28.9826 0.1692
43.5400 28.9960 0.1752
43.5600 29.0093 0.1748
43.5800 29.0227 0.1656
43.6000 29.0360 0.1735
43.6200 29.0494 0.1717
43.6400 29.0627 0.1636
43.6600 29.0761 0.1660
43.6800 29.0894 0.1725
43.7000 29.1028 0.1610
43.7200 29.1161 0.1653
43.7400 29.1294 0.1674
43.7600 29.1427 0.1656
43.7800 29.1561 0.1664
43.8000 29.1694 0.1634
43.8200 29.1827 0.1585
43.8400 29.1960 0.1645
43.8600 29.2093 0.1655
43.8800 29.2227 0.1583
43.9000 29.2360 0.1670
43.9200 29.2493 0.1703
43.9400 29.2626 0.1524
43.9600 29.2760 0.1695
43.9800 29.2893 0.1674
44.0000 29.3027 0.1519
44.0200 29.3160 0.1640
44.0400 29.3294 0.1646
44.0600 29.3427 0.1476
44.0800 29.3561 0.1622
44.1000 29.3694 0.1640
44.1200 29.3827 0.1458
44.1400 29.3961 0.1602
44.1600 29.4094 0.1561
44.1800 29.4227 0.1405
44.2000 29.4360 0.1599
44.2200 29.4493 0.1541
44.2400 29.4627 0.1377
44.2600 29.4760 0.1513
44.2800 29.4893 0.1510
44.3000 29.5026 0.1413
44.3200 29.5159 0.1505
44.3400 29.5293 0.1467
44.3600 29.5427 0.1384
44.3800 29.5560 0.1469
44.4000 29.5694 0.1430
44.4200 29.5827 0.1345
44.4400 29.5961 0.1379
44.4600 29.6094 0.1372
44.4800 29.6227 0.1252
44.5000 29.6361 0.1382
44.5200 29.6494 0.1343
44.5400 29.6627 0.1260
44.5600 29.6760 0.1300
44.5800 29.6893 0.1293
44.6000 29.7027 0.1233
44.6200 29.7160 0.1238
44.6400 29.7293 0.1219
44.6600 29.7426 0.1170
44.6800 29.7560 0.1165
44.7000 29.7693 0.1201
44.7200 29.7827 0.1100
44.7400 29.7960 0.1170
44.7600 29.8093 0.1135
44.7800 29.8227 0.1007
44.8000 29.8361 0.1108
44.8200 29.8494 0.1077
44.8400 29.8627 0.1007
44.8600 29.8761 0.1088
44.8800 29.8894 0.1018
44.9000 29.9028 0.0967
44.9200 29.9160 0.1048
44.9400 29.9293 0.0987
44.9600 29.9427 0.0950
44.9800 29.9560 0.0951
45.0000 29.9693 0.0902
45.0200 29.9826 0.0926
45.0400 29.9960 0.0959
45.0600 30.0093 0.0885
45.0800 30.0227 0.0863
45.1000 30.0360 0.0868
45.1200 30.0494 0.0834
45.1400 30.0628 0.0851
45.1600 30.0761 0.0820
45.1800 30.0894 0.0820
45.2000 30.1027 0.0874
45.2200 30.1160 0.0731
45.2400 30.1294 0.0797
45.2600 30.1427 0.0852
45.2800 30.1560 0.0735
45.3000 30.1693 0.0743
45.3200 30.1827 0.0789
45.3400 30.1960 0.0712
45.3600 30.2093 0.0744
45.3800 30.2226 0.0743
45.4000 30.2360 0.0651
45.4200 30.2493 0.0714
45.4400 30.2627 0.0684
45.4600 30.2760 0.0627
45.4800 30.2894 0.0676
45.5000 30.3027 0.0656
45.5200 30.3161 0.0549
45.5400 30.3294 0.0685
45.5600 30.3427 0.0609
45.5800 30.3561 0.0527
45.6000 30.3694 0.0647
45.6200 30.3827 0.0615
45.6400 30.3960 0.0488
45.6600 30.4093 0.0622
45.6800 30.4226 0.0564
45.7000 30.4360 0.0497
45.7200 30.4493 0.0568
45.7400 30.4626 0.0517
45.7600 30.4760 0.0474
45.7800 30.4894 0.0553
45.8000 30.5027 0.0442
45.8200 30.5160 0.0469
45.8400 30.5294 0.0535
45.8600 30.5427 0.0433
45.8800 30.5561 0.0406
45.9000 30.5694 0.0510
45.9200 30.5827 0.0384
45.9400 30.5960 0.0403
45.9600 30.6094 0.0426
45.9800 30.6227 0.0297
46.0000 30.6361 0.0361
46.0200 30.6494 0.0399
46.0400 30.6627 0.0286
46.0600 30.6761 0.0335
46.0800 30.6894 0.0302
46.1000 30.7027 0.0240
46.1200 30.7160 0.0321
46.1400 30.7293 0.0234
46.1600 30.7427 0.0218
46.1800 30.7560 0.0246
46.2000 30.7693 0.0184
46.2200 30.7827 0.0153
46.2400 30.7960 0.0187
46.2600 30.8094 0.0109
46.2800 30.8227 0.0154
46.3000 30.8361 0.0142
46.3200 30.8494 0.0063
46.3400 30.8628 0.0076
46.3600 30.8761 0.0121
46.3800 30.8894 0.0043
46.4000 30.9027 0.0085
46.4200 30.9161 0.0026
46.4400 30.9294 -0.0021
46.4600 30.9427 0.0024
46.4800 30.9560 0.0014
46.5000 30.9693 -0.0086
46.5200 30.9827 0.0008
46.5400 30.9960 -0.0079
46.5600 31.0093 -0.0050
46.5800 31.0227 -0.0034
46.6000 31.0361 -0.0132
46.6200 31.0494 -0.0025
46.6400 31.0627 -0.0108
46.6600 31.0761 -0.0101
46.6800 31.0894 -0.0063
46.7000 31.1028 -0.0097
46.7200 31.1160 -0.0106
46.7400 31.1293 -0.0101
46.7600 31.1427 -0.0113
46.7800 31.1560 -0.0144
46.8000 31.1694 -0.0118
46.8200 31.1827 -0.0137
46.8400 31.1960 -0.0122
46.8600 31.2093 -0.0109
46.8800 31.2227 -0.0144
46.9000 31.2360 -0.0113
46.9200 31.2493 -0.0176
46.9400 31.2627 -0.0147
46.9600 31.2760 -0.0186
46.9800 31.2894 -0.0143
47.0000 31.3027 -0.0172
47.0200 31.3160 -0.0161
47.0400 31.3294 -0.0174
47.0600 31.3427 -0.0175
47.0800 31.3561 -0.0185
47.1000 31.3694 -0.0227
47.1200 31.3827 -0.0178
47.1400 31.3960 -0.0228
47.1600 31.4093 -0.0306
47.1800 31.4226 -0.0154
47.2000 31.4359 -0.0209
47.2200 31.4493 -0.0325
47.2400 31.4626 -0.0214
47.2600 31.4760 -0.0185
47.2800 31.4893 -0.0384
47.3000 31.5027 -0.0253
47.3200 31.5161 -0.0237
47.3400 31.5294 -0.0430
47.3600 31.5427 -0.0249
47.3800 31.5560 -0.0341
47.4000 31.5694 -0.0431
47.4200 31.5827 -0.0271
47.4400 31.5961 -0.0384
47.4600 31.6094 -0.0478
47.4800 31.6227 -0.0296
47.5000 31.6360 -0.0427
47.5200 31.6493 -0.0475
47.5400 31.6627 -0.0358
47.5600 31.6760 -0.0473
47.5800 31.6893 -0.0498
47.6000 31.7027 -0.0341
47.6200 31.7160 -0.0507
47.6400 31.7293 -0.0477
47.6600 31.7427 -0.0402
47.6800 31.7561 -0.0562
47.7000 31.7694 -0.0520
47.7200 31.7827 -0.0421
47.7400 31.7961 -0.0522
47.7600 31.8094 -0.0527
47.7800 31.8228 -0.0495
47.8000 31.8361 -0.0536
47.8200 31.8493 -0.0517
47.8400 31.8627 -0.0541
47.8600 31.8760 -0.0523
47.8800 31.8893 -0.0546
47.9000 31.9027 -0.0591
47.9200 31.9160 -0.0579
47.9400 31.9293 -0.0579
47.9600 31.9427 -0.0636
47.9800 31.9560 -0.0611
48.0000 31.9693 -0.0621
48.0200 31.9827 -0.0645
48.0400 31.9960 -0.0632
48.0600 32.0094 -0.0727
48.0800 32.0227 -0.0688
48.1000 32.0360 -0.0595
48.1200 32.0494 -0.0812
48.1400 32.0627 -0.0711
48.1600 32.0761 -0.0630
48.1800 32.0894 -0.0866
48.2000 32.1027 -0.0672
48.2200 32.1161 -0.0669
48.2400 32.1294 -0.0933
48.2600 32.1427 -0.0716
48.2800 32.1560 -0.0710
48.3000 32.1693 -0.0925
48.3200 32.1826 -0.0737
48.3400 32.1960 -0.0791
48.3600 32.2093 -0.0948
48.3800 32.2227 -0.0761
48.4000 32.2361 -0.0894
48.4200 32.2494 -0.0955
48.4400 32.2627 -0.0828
48.4600 32.2761 -0.0916
48.4800 32.2894 -0.0938
48.5000 32.3028 -0.0867
48.5200 32.3161 -0.0942
48.5400 32.3294 -0.0981
48.5600 32.3427 -0.0918
48.5800 32.3560 -0.1019
48.6000 32.3693 -0.1038
48.6200 32.3826 -0.0999
48.6400 32.3960 -0.0998
48.6600 32.4093 -0.1062
48.6800 32.4227 -0.1082
48.7000 32.4360 -0.1068
48.7200 32.4493 -0.1091
48.7400 32.4627 -0.1127
48.7600 32.4761 -0.1089
48.7800 32.4894 -0.1185
48.8000 32.5028 -0.1148
48.8200 32.5161 -0.1132
48.8400 32.5294 -0.1187
48.8600 32.5428 -0.1188
48.8800 32.5561 -0.1128
48.9000 32.5693 -0.1261
48.9200 32.5827 -0.1192
48.9400 32.5960 -0.1202
48.9600 32.6094 -0.1310
48.9800 32.6227 -0.1199
49.0000 32.6360 -0.1199
49.0200 32.6493 -0.1334
49.0400 32.6627 -0.1244
49.0600 32.6760 -0.1265
49.0800 32.6893 -0.1344
49.1000 32.7027 -0.1288
49.1200 32.7161 -0.1349
49.1400 32.7294 -0.1406
49.1600 32.7427 -0.1317
49.1800 32.7561 -0.1361
49.2000 32.7694 -0.1435
49.2200 32.7827 -0.1313
49.2400 32.7961 -0.1415
49.2600 32.8094 -0.1436
49.2800 32.8227 -0.1345
49.3000 32.8361 -0.1437
49.3200 32.8494 -0.1469
49.3400 32.8627 -0.1432
49.3600 32.8760 -0.1479
49.3800 32.8893 -0.1433
49.4000 32.9027 -0.1484
49.4200 32.9160 -0.1468
49.4400 32.9294 -0.1471
49.4600 32.9427 -0.1482
49.4800 32.9561 -0.1450
49.5000 32.9694 -0.1516
49.5200 32.9827 -0.1525
49.5400 32.9961 -0.1451
49.5600 33.0094 -0.1537
49.5800 33.0227 -0.1607
49.6000 33.0360 -0.1437
49.6200 33.0493 -0.1502
49.6400 33.0626 -0.1606
49.6600 33.0760 -0.1476
49.6800 33.0893 -0.1533
49.7000 33.1027 -0.1603
49.7200 33.1160 -0.1482
49.7400 33.1293 -0.1580
49.7600 33.1427 -0.1653
49.7800 33.1560 -0.1495
49.8000 33.1693 -0.1609
49.8200 33.1827 -0.1656
49.8400 33.1960 -0.1501
49.8600 33.2094 -0.1687
49.8800 33.2227 -0.1669
49.9000 33.2361 -0.1546
49.9200 33.2494 -0.1764
49.9400 33.2628 -0.1698
49.9600 33.2761 -0.1594
49.9800 33.2894 -0.1783
50.0000 33.3027 -0.1708
50.0200 33.3160 -0.1695
50.0400 33.3294 -0.1791
50.0600 33.3427 -0.1764
50.0800 33.3560 -0.1701
50.1000 33.3693 -0.1858
50.1200 33.3827 -0.1774
50.1400 33.3960 -0.1832
50.1600 33.4093 -0.1860
50.1800 33.4227 -0.1833
50.2000 33.4360 -0.1844
50.2200 33.4494 -0.1921
50.2400 33.4627 -0.1916
50.2600 33.4760 -0.1866
50.2800 33.4894 -0.1939
50.3000 33.5027 -0.1953
50.3200 33.5161 -0.2013
50.3400 33.5294 -0.1936
50.3600 33.5427 -0.1975
50.3800 33.5560 -0.2035
50.4000 33.5694 -0.2013
50.4200 33.5827 -0.2049
50.4400 33.5960 -0.2076
50.4600 33.6093 -0.2008
50.4800 33.6226 -0.2070
50.5000 33.6360 -0.2107
50.5200 33.6493 -0.2067
50.5400 33.6626 -0.2097
50.5600 33.6760 -0.2108
50.5800 33.6894 -0.2069
50.6000 33.7028 -0.2145
50.6200 33.7161 -0.2109
50.6400 33.7294 -0.2103
50.6600 33.7428 -0.2114
50.6800 33.7561 -0.2163
50.7000 33.7694 -0.2091
50.7200 33.7826 -0.2167
50.7400 33.7960 -0.2198
50.7600 33.8093 -0.2123
50.7800 33.8227 -0.2177
50.8000 33.8360 -0.2176
50.8200 33.8493 -0.2129
50.8400 33.8627 -0.2173
50.8600 33.8760 -0.2228
50.8800 33.8894 -0.2155
50.9000 33.9027 -0.2206
50.9200 33.9161 -0.2204
50.9400 33.9294 -0.2147
50.9600 33.9427 -0.2240
50.9800 33.9560 -0.2250
51.0000 33.9694 -0.2177
51.0200 33.9827 -0.2252
51.0400 33.9960 -0.2269
51.0600 34.0093 -0.2182
51.0800 34.0227 -0.2281
51.1000 34.0360 -0.2305
51.1200 34.0493 -0.2223
51.1400 34.0627 -0.2310
51.1600 34.0760 -0.2324
51.1800 34.0893 -0.2283
51.2000 34.1027 -0.2344
51.2200 34.1160 -0.2416
51.2400 34.1294 -0.2248
51.2600 34.1427 -0.2441
51.2800 34.1561 -0.2417
51.3000 34.1694 -0.2324
51.3200 34.1827 -0.2461
51.3400 34.1960 -0.2458
51.3600 34.2094 -0.2327
51.3800 34.2227 -0.2484
51.4000 34.2361 -0.2494
51.4200 34.2494 -0.2396
51.4400 34.2627 -0.2531
51.4600 34.2760 -0.2513
51.4800 34.2894 -0.2435
51.5000 34.3027 -0.2601
51.5200 34.3160 -0.2531
51.5400 34.3293 -0.2508
51.5600 34.3426 -0.2629
51.5800 34.3560 -0.2567
51.6000 34.3693 -0.2546
51.6200 34.3827 -0.2678
51.6400 34.3960 -0.2609
51.6600 34.4094 -0.2525
51.6800 34.4228 -0.2707
51.7000 34.4361 -0.2679
51.7200 34.4494 -0.2623
51.7400 34.4628 -0.2761
51.7600 34.4761 -0.2767
51.7800 34.4894 -0.2671
51.8000 34.5027 -0.2777
51.8200 34.5160 -0.2746
51.8400 34.5294 -0.2745
51.8600 34.5427 -0.2812
51.8800 34.5560 -0.2812
51.9000 34.5693 -0.2735
51.9200 34.5827 -0.2845
51.9400 34.5960 -0.2844
51.9600 34.6093 -0.2775
51.9800 34.6226 -0.2851
52.0000 34.6360 -0.2913
52.0200 34.6493 -0.2744
52.0400 34.6627 -0.2856
52.0600 34.6760 -0.2979
52.0800 34.6894 -0.2757
52.1000 34.7027 -0.2871
52.1200 34.7161 -0.2978
52.1400 34.7294 -0.2803
52.1600 34.7427 -0.2890
52.1800 34.7560 -0.2945
52.2000 34.7694 -0.2816
52.2200 34.7827 -0.2909
52.2400 34.7960 -0.2982
52.2600 34.8093 -0.2845
52.2800 34.8226 -0.2893
52.3000 34.8360 -0.3014
52.3200 34.8493 -0.2848
52.3400 34.8627 -0.2965
52.3600 34.8760 -0.2992
52.3800 34.8894 -0.2930
52.4000 34.9028 -0.2991
52.4200 34.9161 -0.3029
52.4400 34.9294 -0.2919
52.4600 34.9427 -0.3026
52.4800 34.9561 -0.3078
52.5000 34.9694 -0.2950
52.5200 34.9827 -0.3036
52.5400 34.9960 -0.3112
52.5600 35.0094 -0.2966
52.5800 35.0227 -0.3113
52.6000 35.0360 -0.3137
52.6200 35.0493 -0.2998
52.6400 35.0626 -0.3099
52.6600 35.0760 -0.3230
52.6800 35.0893 -0.2985
52.7000 35.1027 -0.3179
52.7200 35.1160 -0.3271
52.7400 35.1294 -0.3088
52.7600 35.1427 -0.3221
52.7800 35.1561 -0.3231
52.8000 35.1694 -0.3139
52.8200 35.1827 -0.3250
52.8400 35.1961 -0.3305
52.8600 35.2094 -0.3158
52.8800 35.2226 -0.3273
52.9000 35.2360 -0.3341
52.9200 35.2493 -0.3228
52.9400 35.2627 -0.3313
52.9600 35.2760 -0.3348
52.9800 35.2893 -0.3289
53.0000 35.3027 -0.3350
53.0200 35.3161 -0.3334
53.0400 35.3294 -0.3373
53.0600 35.3427 -0.3377
53.0800 35.3560 -0.3419
53.1000 35.3694 -0.3352
53.1200 35.3827 -0.3455
53.1400 35.3961 -0.3452
53.1600 35.4094 -0.3392
53.1800 35.4227 -0.3457
53.2000 35.4361 -0.3487
53.2200 35.4494 -0.3398
53.2400 35.4627 -0.3497
53.2600 35.4760 -0.3486
53.2800 35.4894 -0.3470
53.3000 35.5027 -0.3489
53.3200 35.5160 -0.3524
53.3400 35.5293 -0.3484
53.3600 35.5426 -0.3466
53.3800 35.5560 -0.3557
53.4000 35.5693 -0.3511
53.4200 35.5826 -0.3513
53.4400 35.5960 -0.3612
53.4600 35.6094 -0.3560
53.4800 35.6227 -0.3507
53.5000 35.6361 -0.3688
53.5200 35.6494 -0.3569
53.5400 35.6627 -0.3553
53.5600 35.6761 -0.3678
53.5800 35.6894 -0.3629
53.6000 35.7027 -0.3596
53.6200 35.7160 -0.3705
53.6400 35.7294 -0.3634
53.6600 35.7427 -0.3678
53.6800 35.7560 -0.3709
53.7000 35.7693 -0.3684
53.7200 35.7826 -0.3683
53.7400 35.7960 -0.3791
53.7600 35.8093 -0.3734
53.7800 35.8227 -0.3763
53.8000 35.8360 -0.3770
53.8200 35.8494 -0.3787
53.8400 35.8627 -0.3820
53.8600 35.8761 -0.3796
53.8800 35.8894 -0.3799
53.9000 35.9027 -0.3849
53.9200 35.9161 -0.3876
53.9400 35.9294 -0.3874
53.9600 35.9427 -0.3820
53.9800 35.9560 -0.3893
54.0000 35.9693 -0.3911
54.0200 35.9827 -0.3851
54.0400 35.9960 -0.3936
54.0600 36.0093 -0.3932
54.0800 36.0227 -0.3874
54.1000 36.0360 -0.3974
54.1200 36.0494 -0.4000
54.1400 36.0627 -0.3899
54.1600 36.0760 -0.4030
54.1800 36.0894 -0.3993
54.2000 36.1027 -0.3991
54.2200 36.1161 -0.4049
54.2400 36.1294 -0.3996
54.2600 36.1427 -0.4012
54.2800 36.1561 -0.4102
54.3000 36.1694 -0.3998
54.3200 36.1827 -0.4052
54.3400 36.1960 -0.4105
54.3600 36.2094 -0.4041
54.3800 36.2227 -0.4060
54.4000 36.2360 -0.4159
54.4200 36.2493 -0.4066
54.4400 36.2626 -0.4132
54.4600 36.2760 -0.4185
54.4800 36.2893 -0.4180
54.5000 36.3027 -0.4195
54.5200 36.3160 -0.4187
54.5400 36.3294 -0.4208
54.5600 36.3428 -0.4273
54.5800 36.3561 -0.4175
54.6000 36.3694 -0.4277
54.6200 36.3827 -0.4279
54.6400 36.3961 -0.4230
54.6600 36.4094 -0.4341
54.6800 36.4227 -0.4328
54.7000 36.4360 -0.4228
54.7200 36.4493 -0.4356
54.7400 36.4627 -0.4369
54.7600 36.4760 -0.4267
54.7800 36.4893 -0.4430
54.8000 36.5026 -0.4395
54.8200 36.5160 -0.4294
54.8400 36.5293 -0.4470
54.8600 36.5427 -0.4441
54.8800 36.5560 -0.4296
54.9000 36.5694 -0.4537
54.9200 36.5827 -0.4431
54.9400 36.5961 -0.4355
54.9600 36.6094 -0.4541
54.9800 36.6227 -0.4464
55.0000 36.6361 -0.4422
55.0200 36.6494 -0.4617
55.0400 36.6627 -0.4434
55.0600 36.6760 -0.4431
55.0800 36.6893 -0.4556
55.1000 36.7027 -0.4456
55.1200 36.7160 -0.4502
55.1400 36.7293 -0.4601
55.1600 36.7426 -0.4505
55.1800 36.7560 -0.4505
55.2000 36.7693 -0.4596
55.2200 36.7827 -0.4497
55.2400 36.7960 -0.4551
55.2600 36.8094 -0.4604
55.2800 36.8227 -0.4534
55.3000 36.8360 -0.4568
55.3200 36.8493 -0.4601
55.3400 36.8627 -0.4587
55.3600 36.8761 -0.4566
55.3800 36.8894 -0.4640
55.4000 36.9027 -0.4670
55.4200 36.9161 -0.4568
55.4400 36.9294 -0.4666
55.4600 36.9428 -0.4674
55.4800 36.9561 -0.4595
55.5000 36.9693 -0.4673
55.5200 36.9826 -0.4733
55.5400 36.9960 -0.4590
55.5600 37.0093 -0.4754
55.5800 37.0226 -0.4780
55.6000 37.0360 -0.4630
55.6200 37.0494 -0.4831
55.6400 37.0628 -0.4851
55.6600 37.0761 -0.4640
55.6800 37.0894 -0.4912
55.7000 37.1028 -0.4830
55.7200 37.1161 -0.4722
55.7400 37.1294 -0.4972
55.7600 37.1427 -0.4870
55.7800 37.1560 -0.4737
55.8000 37.1693 -0.4989
55.8200 37.1827 -0.4945
55.8400 37.1960 -0.4820
55.8600 37.2093 -0.5067
55.8800 37.2226 -0.4944
55.9000 37.2360 -0.4875
55.9200 37.2493 -0.5111
55.9400 37.2627 -0.4968
55.9600 37.2760 -0.4896
55.9800 37.2894 -0.5166
56.0000 37.3027 -0.4985
56.0200 37.3161 -0.4953
56.0400 37.3294 -0.5145
56.0600 37.3427 -0.5048
56.0800 37.3561 -0.4996
56.1000 37.3694 -0.5173
56.1200 37.3827 -0.5059
56.1400 37.3960 -0.5005
56.1600 37.4093 -0.5167
56.1800 37.4227 -0.5151
56.2000 37.4360 -0.5042
56.2200 37.4493 -0.5220
56.2400 37.4626 -0.5120
56.2600 37.4760 -0.5131
56.2800 37.4893 -0.5254
56.3000 37.5027 -0.5218
56.3200 37.5160 -0.5166
56.3400 37.5293 -0.5235
56.3600 37.5427 -0.5271
56.3800 37.5561 -0.5226
56.4000 37.5694 -0.5305
56.4200 37.5827 -0.5296
56.4400 37.5961 -0.5275
56.4600 37.6094 -0.5389
56.4800 37.6227 -0.5327
56.5000 37.6360 -0.5279
56.5200 37.6494 -0.5436
56.5400 37.6627 -0.5382
56.5600 37.6760 -0.5359
56.5800 37.6893 -0.5465
56.6000 37.7026 -0.5500
56.6200 37.7160 -0.5383
56.6400 37.7293 -0.5525
56.6600 37.7427 -0.5500
56.6800 37.7560 -0.5464
56.7000 37.7694 -0.5564
56.7200 37.7828 -0.5564
56.7400 37.7961 -0.5504
56.7600 37.8094 -0.5607
56.7800 37.8227 -0.5533
56.8000 37.8361 -0.5553
56.8200 37.8494 -0.5690
56.8400 37.8627 -0.5636
56.8600 37.8760 -0.5562
56.8800 37.8893 -0.5680
56.9000 37.9027 -0.5669
56.9200 37.9160 -0.5657
56.9400 37.9293 -0.5689
56.9600 37.9426 -0.5688
56.9800 37.9560 -0.5691
57.0000 37.9693 -0.5708
57.0200 37.9827 -0.5757
57.0400 37.9960 -0.5688
57.0600 38.0094 -0.5789
57.0800 38.0228 -0.5764
57.1000 38.0361 -0.5701
57.1200 38.0494 -0.5826
57.1400 38.0627 -0.5788
57.1600 38.0761 -0.5743
57.1800 38.0894 -0.5823
57.2000 38.1027 -0.5854
57.2200 38.1160 -0.5765
57.2400 38.1293 -0.5819
57.2600 38.1427 -0.5879
57.2800 38.1560 -0.5823
57.3000 38.1693 -0.5890
57.3200 38.1826 -0.5894
57.3400 38.1960 -0.5911
57.3600 38.2093 -0.5946
57.3800 38.2226 -0.5961
57.4000 38.2360 -0.5895
57.4200 38.2493 -0.5970
57.4400 38.2627 -0.6026
57.4600 38.2761 -0.5976
57.4800 38.2894 -0.5983
57.5000 38.3027 -0.6089
57.5200 38.3160 -0.6023
57.5400 38.3294 -0.6007
57.5600 38.3427 -0.6121
57.5800 38.3560 -0.6098
57.6000 38.3694 -0.6426
57.6200 38.3827 -0.4790
57.6400 38.3960 -0.3791
57.6600 38.4093 -0.3680
57.6800 38.4226 -0.3833
57.7000 38.4359 -0.3763
57.7200 38.4493 -0.3823
57.7400 38.4626 -0.3878
57.7600 38.4760 -0.3798
57.7800 38.4893 -0.3789
57.8000 38.5027 -0.3864
57.8200 38.5161 -0.3827
57.8400 38.5294 -0.3753
57.8600 38.5428 -0.3846
57.8800 38.5561 -0.3810
57.9000 38.5695 -0.3826
57.9200 38.5827 -0.3840
57.9400 38.5960 -0.3802
57.9600 38.6093 -0.3843
57.9800 38.6227 -0.3867
58.0000 38.6360 -0.3848
58.0200 38.6493 -0.3808
58.0400 38.6626 -0.3902
58.0600 38.6760 -0.3868
58.0800 38.6894 -0.3836
58.1000 38.7027 -0.3885
58.1200 38.7160 -0.3905
58.1400 38.7294 -0.3844
58.1600 38.7428 -0.3915
58.1800 38.7561 -0.3913
58.2000 38.7694 -0.3864
58.2200 38.7827 -0.3939
58.2400 38.7960 -0.3940
58.2600 38.8094 -0.3905
58.2800 38.8227 -0.3963
58.3000 38.8360 -0.3928
58.3200 38.8493 -0.3914
58.3400 38.8627 -0.4049
58.3600 38.8760 -0.3922
58.3800 38.8893 -0.3960
58.4000 38.9026 -0.4084
58.4200 38.9160 -0.3984
58.4400 38.9293 -0.3977
58.4600 38.9427 -0.4095
58.4800 38.9560 -0.4038
58.5000 38.9694 -0.4046
58.5200 38.9828 -0.4163
58.5400 38.9961 -0.4072
58.5600 39.0094 -0.4081
58.5800 39.0227 -0.4216
58.6000 39.0361 -0.4087
58.6200 39.0494 -0.4145
58.6400 39.0627 -0.4182
58.6600 39.0760 -0.4131
58.6800 39.0893 -0.4163
58.7000 39.1027 -0.4206
58.7200 39.1160 -0.4213
58.7400 39.1293 -0.4196
58.7600 39.1426 -0.4232
58.7800 39.1560 -0.4227
58.8000 39.1693 -0.4256
58.8200 39.1827 -0.4256
58.8400 39.1960 -0.4207
58.8600 39.2093 -0.4316
58.8800 39.2227 -0.4301
58.9000 39.2361 -0.4286
58.9200 39.2494 -0.4368
58.9400 39.2627 -0.4291
58.9600 39.2761 -0.4331
58.9800 39.2894 -0.4362
59.0000 39.3027 -0.4347
59.0200 39.3160 -0.4353
59.0400 39.3293 -0.4366
59.0600 39.3427 -0.4379
59.0800 39.3560 -0.4423
59.1000 39.3693 -0.4442
59.1200 39.3826 -0.4392
59.1400 39.3960 -0.4425
59.1600 39.4093 -0.4434
59.1800 39.4227 -0.4434
59.2000 39.4360 -0.4505
59.2200 39.4493 -0.4434
59.2400 39.4627 -0.4485
59.2600 39.4760 -0.4527
59.2800 39.4894 -0.4515
59.3000 39.5027 -0.4449
59.3200 39.5161 -0.4586
59.3400 39.5294 -0.4569
59.3600 39.5428 -0.4496
59.3800 39.5561 -0.4646
59.4000 39.5694 -0.4587
59.4200 39.5827 -0.4563
59.4400 39.5960 -0.4694
59.4600 39.6093 -0.4580
59.4800 39.6226 -0.4597
59.5000 39.6360 -0.4720
59.5200 39.6493 -0.4646
59.5400 39.6627 -0.4588
59.5600 39.6760 -0.4772
59.5800 39.6893 -0.4670
59.6000 39.7027 -0.4657
59.6200 39.7161 -0.4886
59.6400 39.7294 -0.4686
59.6600 39.7427 -0.4682
59.6800 39.7560 -0.4878
59.7000 39.7694 -0.4729
59.7200 39.7828 -0.4720
59.7400 39.7961 -0.4901
59.7600 39.8094 -0.4769
59.7800 39.8227 -0.4747
59.8000 39.8360 -0.4908
59.8200 39.8493 -0.4821
59.8400 39.8626 -0.4797
59.8600 39.8760 -0.4937
59.8800 39.8893 -0.4792
59.9000 39.9027 -0.4869
59.9200 39.9160 -0.4970
59.9400 39.9293 -0.4876
59.9600 39.9427 -0.4909
59.9800 39.9561 -0.4978
60.0000 39.9694 -0.4898
60.0200 39.9827 -0.4953
60.0400 39.9960 -0.5076
60.0470 40.0006 -0.5218
